-0.29800000E+01 -0.16630E+05
-0.29300001E+01 -0.23490E+05
-0.28800001E+01 -0.30656E+05
-0.28299999E+01 -0.37016E+05
-0.27800000E+01 -0.43095E+05
-0.27300000E+01 -0.49800E+05
-0.26800001E+01 -0.57133E+05
-0.26300001E+01 -0.65685E+05
-0.25799999E+01 -0.75370E+05
-0.25300000E+01 -0.84031E+05
-0.24800000E+01 -0.90058E+05
-0.24300001E+01 -0.93689E+05
-0.23800001E+01 -0.94495E+05
-0.23299999E+01 -0.92067E+05
-0.22800000E+01 -0.86784E+05
-0.22300000E+01 -0.79070E+05
-0.21800001E+01 -0.70545E+05
-0.21300001E+01 -0.62509E+05
-0.20799999E+01 -0.53996E+05
-0.20300000E+01 -0.44060E+05
-0.19800000E+01 -0.33363E+05
-0.19299999E+01 -0.21484E+05
-0.18800000E+01 -0.72820E+04
-0.18300000E+01  0.80470E+04
-0.17800000E+01  0.22605E+05
-0.17300000E+01  0.35758E+05
-0.16799999E+01  0.46777E+05
-0.16300000E+01  0.53977E+05
-0.15800000E+01  0.57688E+05
-0.15300000E+01  0.60136E+05
-0.14800000E+01  0.61401E+05
-0.14299999E+01  0.61432E+05
-0.13800000E+01  0.60804E+05
-0.13300000E+01  0.58399E+05
-0.12800000E+01  0.53152E+05
-0.12300000E+01  0.46463E+05
-0.11799999E+01  0.40889E+05
-0.11300000E+01  0.34885E+05
-0.10800000E+01  0.25908E+05
-0.10300000E+01  0.16029E+05
-0.98000002E+00  0.76630E+04
-0.93000007E+00  0.14470E+04
-0.87999988E+00 -0.25850E+04
-0.82999992E+00 -0.45810E+04
-0.77999997E+00 -0.52770E+04
-0.73000002E+00 -0.70720E+04
-0.68000007E+00 -0.11157E+05
-0.62999988E+00 -0.16638E+05
-0.57999992E+00 -0.22680E+05
-0.52999997E+00 -0.28071E+05
-0.48000002E+00 -0.32582E+05
-0.43000007E+00 -0.36970E+05
-0.37999988E+00 -0.39953E+05
-0.32999992E+00 -0.40411E+05
-0.27999997E+00 -0.39128E+05
-0.23000002E+00 -0.36990E+05
-0.18000007E+00 -0.34339E+05
-0.12999988E+00 -0.30577E+05
-0.79999924E-01 -0.25408E+05
-0.29999971E-01 -0.19210E+05
 0.19999981E-01 -0.12050E+05
 0.69999933E-01 -0.35700E+04
 0.12000012E+00  0.68500E+04
 0.17000008E+00  0.19001E+05
 0.22000003E+00  0.31238E+05
 0.26999998E+00  0.42549E+05
 0.31999993E+00  0.52499E+05
 0.37000012E+00  0.59550E+05
 0.42000008E+00  0.63643E+05
 0.47000003E+00  0.65971E+05
 0.51999998E+00  0.67614E+05
 0.56999993E+00  0.69073E+05
 0.62000012E+00  0.69070E+05
 0.67000008E+00  0.67088E+05
 0.72000003E+00  0.63659E+05
 0.76999998E+00  0.58880E+05
 0.81999993E+00  0.52069E+05
 0.87000012E+00  0.42207E+05
 0.92000008E+00  0.30099E+05
 0.97000003E+00  0.17234E+05
 0.10200000E+01  0.49000E+04
 0.10700002E+01 -0.53950E+04
 0.11199999E+01 -0.13461E+05
 0.11700001E+01 -0.20086E+05
 0.12200003E+01 -0.25733E+05
 0.12700000E+01 -0.29336E+05
 0.13200002E+01 -0.29522E+05
 0.13699999E+01 -0.26075E+05
 0.14200001E+01 -0.19088E+05
 0.14700003E+01 -0.99950E+04
 0.15200000E+01 -0.96100E+03
 0.15700002E+01  0.75990E+04
 0.16199999E+01  0.15665E+05
 0.16700001E+01  0.22782E+05
 0.17200003E+01  0.29126E+05
 0.17700000E+01  0.34483E+05
 0.18200002E+01  0.39177E+05
 0.18699999E+01  0.42930E+05
 0.19200001E+01  0.44518E+05
 0.19700003E+01  0.44895E+05
 0.20200000E+01  0.44827E+05
 0.20700002E+01  0.43672E+05
 0.21199999E+01  0.40525E+05
 0.21700001E+01  0.36093E+05
 0.22200003E+01  0.32540E+05
 0.22700000E+01  0.29317E+05
 0.23200002E+01  0.25423E+05
 0.23699999E+01  0.21651E+05
 0.24200001E+01  0.18290E+05
 0.24700003E+01  0.15374E+05
 0.25200000E+01  0.13114E+05
 0.25700002E+01  0.11932E+05
 0.26199999E+01  0.12765E+05
 0.26700001E+01  0.15521E+05
 0.27200003E+01  0.18142E+05
 0.27700000E+01  0.18521E+05
 0.28200002E+01  0.16336E+05
 0.28699999E+01  0.12720E+05
 0.29200001E+01  0.87330E+04
 0.29700003E+01  0.48520E+04
 0.30200000E+01  0.98700E+03
 0.30700002E+01 -0.33070E+04
 0.31199999E+01 -0.83140E+04
 0.31700001E+01 -0.14979E+05
 0.32200003E+01 -0.24140E+05
 0.32700000E+01 -0.34476E+05
 0.33200002E+01 -0.43215E+05
 0.33699999E+01 -0.48856E+05
 0.34200001E+01 -0.52010E+05
 0.34700003E+01 -0.52865E+05
 0.35200000E+01 -0.50216E+05
 0.35700002E+01 -0.44405E+05
 0.36199999E+01 -0.37533E+05
 0.36700001E+01 -0.30663E+05
 0.37200003E+01 -0.24151E+05
 0.37700000E+01 -0.19034E+05
 0.38200002E+01 -0.16293E+05
 0.38699999E+01 -0.15252E+05
 0.39200001E+01 -0.13571E+05
 0.39700003E+01 -0.10009E+05
 0.40200000E+01 -0.60010E+04
 0.40700002E+01 -0.25060E+04
 0.41199999E+01  0.17980E+04
 0.41700001E+01  0.75230E+04
 0.42200003E+01  0.14088E+05
 0.42700000E+01  0.20957E+05
 0.43200002E+01  0.26713E+05
 0.43699999E+01  0.30084E+05
 0.44200001E+01  0.31476E+05
 0.44700003E+01  0.31495E+05
 0.45200000E+01  0.30537E+05
 0.45700002E+01  0.29116E+05
 0.46199999E+01  0.27147E+05
 0.46700001E+01  0.24498E+05
 0.47200003E+01  0.21117E+05
 0.47700000E+01  0.17229E+05
 0.48200002E+01  0.13303E+05
 0.48699999E+01  0.87160E+04
 0.49200001E+01  0.27070E+04
 0.49700003E+01 -0.37970E+04
 0.50200000E+01 -0.91800E+04
 0.50700002E+01 -0.13365E+05
 0.51200004E+01 -0.17720E+05
 0.51700006E+01 -0.22822E+05
 0.52199998E+01 -0.27795E+05
 0.52700000E+01 -0.31194E+05
 0.53200002E+01 -0.31934E+05
 0.53700004E+01 -0.30060E+05
 0.54200006E+01 -0.26779E+05
 0.54699998E+01 -0.22833E+05
 0.55200000E+01 -0.18441E+05
 0.55700002E+01 -0.13899E+05
 0.56200004E+01 -0.86770E+04
 0.56700006E+01 -0.30880E+04
 0.57199998E+01  0.22550E+04
 0.57700000E+01  0.65470E+04
 0.58200002E+01  0.85190E+04
 0.58700004E+01  0.82830E+04
 0.59200006E+01  0.59800E+04
 0.59699998E+01  0.93900E+03
 0.60200000E+01 -0.70140E+04
 0.60700002E+01 -0.16381E+05
 0.61200004E+01 -0.26345E+05
 0.61700006E+01 -0.37130E+05
 0.62199998E+01 -0.47122E+05
 0.62700000E+01 -0.54073E+05
 0.63200002E+01 -0.57249E+05
 0.63700004E+01 -0.57233E+05
 0.64200006E+01 -0.54834E+05
 0.64699998E+01 -0.50825E+05
 0.65200000E+01 -0.46577E+05
 0.65700002E+01 -0.43376E+05
 0.66200004E+01 -0.41044E+05
 0.66700006E+01 -0.38407E+05
 0.67199998E+01 -0.35194E+05
 0.67700000E+01 -0.32455E+05
 0.68200002E+01 -0.30653E+05
 0.68700004E+01 -0.29975E+05
 0.69200006E+01 -0.30799E+05
 0.69699998E+01 -0.32808E+05
 0.70200000E+01 -0.34939E+05
 0.70700002E+01 -0.36479E+05
 0.71200004E+01 -0.38771E+05
 0.71700006E+01 -0.42344E+05
 0.72199998E+01 -0.45403E+05
 0.72700000E+01 -0.45962E+05
 0.73200002E+01 -0.42822E+05
 0.73700004E+01 -0.36367E+05
 0.74200006E+01 -0.27178E+05
 0.74699998E+01 -0.16340E+05
 0.75200000E+01 -0.60060E+04
 0.75700002E+01  0.32230E+04
 0.76200004E+01  0.11535E+05
 0.76700006E+01  0.19712E+05
 0.77199998E+01  0.27689E+05
 0.77700000E+01  0.33841E+05
 0.78200002E+01  0.38785E+05
 0.78700004E+01  0.42779E+05
 0.79200006E+01  0.44457E+05
 0.79699998E+01  0.43502E+05
 0.80200005E+01  0.41357E+05
 0.80699997E+01  0.39531E+05
 0.81200008E+01  0.37408E+05
 0.81700001E+01  0.35173E+05
 0.82199993E+01  0.33775E+05
 0.82700005E+01  0.32834E+05
 0.83199997E+01  0.32591E+05
 0.83700008E+01  0.32660E+05
 0.84200001E+01  0.31318E+05
 0.84699993E+01  0.28216E+05
 0.85200005E+01  0.24212E+05
 0.85699997E+01  0.20980E+05
 0.86200008E+01  0.18290E+05
 0.86700001E+01  0.13384E+05
 0.87199993E+01  0.61450E+04
 0.87700005E+01 -0.17080E+04
 0.88199997E+01 -0.88720E+04
 0.88700008E+01 -0.15051E+05
 0.89200001E+01 -0.19269E+05
 0.89699993E+01 -0.19868E+05
 0.90200005E+01 -0.17783E+05
 0.90699997E+01 -0.14110E+05
 0.91200008E+01 -0.95650E+04
 0.91700001E+01 -0.36730E+04
 0.92199993E+01  0.35630E+04
 0.92700005E+01  0.10434E+05
 0.93199997E+01  0.16465E+05
 0.93700008E+01  0.21483E+05
 0.94200001E+01  0.25665E+05
 0.94699993E+01  0.28787E+05
 0.95200005E+01  0.30541E+05
 0.95699997E+01  0.29821E+05
 0.96200008E+01  0.26616E+05
 0.96700001E+01  0.22983E+05
 0.97199993E+01  0.19634E+05
 0.97700005E+01  0.16877E+05
 0.98199997E+01  0.14533E+05
 0.98700008E+01  0.13163E+05
 0.99200001E+01  0.13848E+05
 0.99699993E+01  0.16676E+05
 0.10020000E+02  0.21428E+05
 0.10070000E+02  0.26713E+05
 0.10120001E+02  0.31452E+05
 0.10170000E+02  0.35873E+05
 0.10219999E+02  0.40544E+05
 0.10270000E+02  0.45568E+05
 0.10320000E+02  0.51240E+05
 0.10370001E+02  0.58175E+05
 0.10420000E+02  0.65224E+05
 0.10469999E+02  0.70096E+05
 0.10520000E+02  0.71938E+05
 0.10570000E+02  0.72341E+05
 0.10620001E+02  0.72786E+05
 0.10670000E+02  0.73147E+05
 0.10719999E+02  0.71821E+05
 0.10770000E+02  0.67057E+05
 0.10820000E+02  0.59748E+05
 0.10870001E+02  0.51447E+05
 0.10920000E+02  0.42477E+05
 0.10969999E+02  0.32167E+05
 0.11020000E+02  0.19606E+05
 0.11070000E+02  0.55610E+04
 0.11120001E+02 -0.80420E+04
 0.11170000E+02 -0.20087E+05
 0.11219999E+02 -0.30828E+05
 0.11270000E+02 -0.40676E+05
 0.11320000E+02 -0.49739E+05
 0.11370001E+02 -0.56927E+05
 0.11420000E+02 -0.60172E+05
 0.11469999E+02 -0.59736E+05
 0.11520000E+02 -0.58513E+05
 0.11570000E+02 -0.58409E+05
 0.11620001E+02 -0.59461E+05
 0.11670000E+02 -0.60475E+05
 0.11719999E+02 -0.59495E+05
 0.11770000E+02 -0.56648E+05
 0.11820000E+02 -0.53551E+05
 0.11870001E+02 -0.50767E+05
 0.11920000E+02 -0.47206E+05
 0.11969999E+02 -0.42015E+05
 0.12020000E+02 -0.35877E+05
 0.12070000E+02 -0.30067E+05
 0.12120001E+02 -0.25160E+05
 0.12170000E+02 -0.20639E+05
 0.12219999E+02 -0.16120E+05
 0.12270000E+02 -0.12167E+05
 0.12320000E+02 -0.10009E+05
 0.12370001E+02 -0.91280E+04
 0.12420000E+02 -0.85630E+04
 0.12469999E+02 -0.78930E+04
 0.12520000E+02 -0.62440E+04
 0.12570000E+02 -0.36090E+04
 0.12620001E+02 -0.45800E+03
 0.12670000E+02  0.20770E+04
 0.12719999E+02  0.37170E+04
 0.12770000E+02  0.52470E+04
 0.12820000E+02  0.68590E+04
 0.12870001E+02  0.89010E+04
 0.12920000E+02  0.11185E+05
 0.12969999E+02  0.13160E+05
 0.13020000E+02  0.13930E+05
 0.13070002E+02  0.12881E+05
 0.13120001E+02  0.10360E+05
 0.13170000E+02  0.67930E+04
 0.13220001E+02  0.32430E+04
 0.13270000E+02  0.12100E+03
 0.13320002E+02 -0.19920E+04
 0.13370001E+02 -0.11410E+04
 0.13420000E+02  0.33630E+04
 0.13470001E+02  0.10265E+05
 0.13520000E+02  0.17740E+05
 0.13570002E+02  0.24945E+05
 0.13620001E+02  0.31125E+05
 0.13670000E+02  0.35525E+05
 0.13720001E+02  0.37098E+05
 0.13770000E+02  0.35347E+05
 0.13820002E+02  0.32091E+05
 0.13870001E+02  0.27896E+05
 0.13920000E+02  0.22663E+05
 0.13970001E+02  0.16817E+05
 0.14020000E+02  0.11029E+05
 0.14070002E+02  0.55460E+04
 0.14120001E+02 -0.11740E+04
 0.14170000E+02 -0.92960E+04
 0.14220001E+02 -0.17389E+05
 0.14270000E+02 -0.24592E+05
 0.14320002E+02 -0.30612E+05
 0.14370001E+02 -0.35168E+05
 0.14420000E+02 -0.38127E+05
 0.14470001E+02 -0.39006E+05
 0.14520000E+02 -0.37619E+05
 0.14570002E+02 -0.34566E+05
 0.14620001E+02 -0.31257E+05
 0.14670000E+02 -0.28334E+05
 0.14720001E+02 -0.24218E+05
 0.14770000E+02 -0.18707E+05
 0.14820002E+02 -0.12427E+05
 0.14870001E+02 -0.67050E+04
 0.14920000E+02 -0.30750E+04
 0.14970001E+02 -0.10510E+04
 0.15020000E+02  0.29200E+03
 0.15070002E+02  0.22600E+04
 0.15120001E+02  0.56660E+04
 0.15170000E+02  0.94920E+04
 0.15220001E+02  0.12059E+05
 0.15270000E+02  0.14005E+05
 0.15320002E+02  0.16727E+05
 0.15370001E+02  0.20057E+05
 0.15420000E+02  0.23678E+05
 0.15470001E+02  0.26684E+05
 0.15520000E+02  0.28082E+05
 0.15570002E+02  0.27294E+05
 0.15620001E+02  0.24908E+05
 0.15670000E+02  0.22549E+05
 0.15720001E+02  0.19565E+05
 0.15770000E+02  0.14042E+05
 0.15820002E+02  0.63570E+04
 0.15870001E+02 -0.19970E+04
 0.15920000E+02 -0.10460E+05
 0.15970001E+02 -0.18464E+05
 0.16020000E+02 -0.25349E+05
 0.16070002E+02 -0.31247E+05
 0.16120001E+02 -0.35271E+05
 0.16170000E+02 -0.35598E+05
 0.16220001E+02 -0.32877E+05
 0.16270000E+02 -0.27818E+05
 0.16320002E+02 -0.22473E+05
 0.16370001E+02 -0.16528E+05
 0.16420000E+02 -0.66540E+04
 0.16470001E+02  0.69470E+04
 0.16520000E+02  0.28207E+05
 0.16570002E+02  0.55792E+05
 0.16620001E+02  0.94785E+05
 0.16670000E+02  0.14207E+06
 0.16720001E+02  0.19777E+06
 0.16770000E+02  0.24358E+06
 0.16820002E+02  0.25529E+06
 0.16870001E+02  0.22141E+06
 0.16920000E+02  0.10432E+06
 0.16970001E+02 -0.68706E+05
 0.17020000E+02 -0.34802E+06
 0.17070002E+02 -0.76609E+06
 0.17120001E+02 -0.11607E+07
 0.17170000E+02 -0.13290E+07
 0.17220001E+02 -0.96159E+06
 0.17270000E+02 -0.81696E+05
 0.17320002E+02  0.90046E+06
 0.17370001E+02  0.15636E+07
 0.17420000E+02  0.14100E+07
 0.17470001E+02  0.97437E+06
 0.17520000E+02  0.77268E+06
 0.17570002E+02  0.24692E+06
 0.17620001E+02 -0.61188E+06
 0.17670000E+02 -0.16278E+07
 0.17720001E+02 -0.22433E+07
 0.17770000E+02 -0.24284E+07
 0.17820002E+02 -0.29221E+07
 0.17870001E+02 -0.39058E+07
 0.17920000E+02 -0.46592E+07
 0.17970001E+02 -0.35536E+07
 0.18020000E+02 -0.17253E+07
 0.18070002E+02 -0.10491E+06
 0.18120001E+02  0.98861E+06
 0.18170000E+02  0.15390E+07
 0.18220001E+02  0.28009E+07
 0.18270000E+02  0.27301E+07
 0.18320002E+02  0.15299E+07
 0.18370001E+02  0.82129E+06
 0.18420000E+02  0.75133E+06
 0.18470001E+02  0.11612E+07
 0.18520000E+02  0.12163E+07
 0.18570002E+02 -0.22270E+05
 0.18620001E+02 -0.16493E+07
 0.18670000E+02 -0.25480E+07
 0.18720001E+02 -0.26602E+07
 0.18770000E+02 -0.14703E+07
 0.18820002E+02 -0.11870E+07
 0.18870001E+02 -0.19180E+07
 0.18920000E+02 -0.11507E+07
 0.18970001E+02  0.12082E+07
 0.19020000E+02  0.20657E+07
 0.19070002E+02  0.17549E+07
 0.19120001E+02  0.14602E+07
 0.19170000E+02  0.85620E+06
 0.19220001E+02  0.58116E+06
 0.19270000E+02 -0.34210E+06
 0.19320002E+02 -0.76140E+06
 0.19370001E+02 -0.13792E+07
 0.19420000E+02 -0.22950E+07
 0.19470001E+02 -0.19431E+07
 0.19520000E+02 -0.87290E+06
 0.19570002E+02  0.26430E+06
 0.19620001E+02  0.55413E+06
 0.19670000E+02  0.33336E+06
 0.19720001E+02 -0.71267E+05
 0.19770000E+02 -0.67514E+06
 0.19820002E+02 -0.10498E+07
 0.19870001E+02 -0.20279E+07
 0.19920000E+02 -0.23458E+07
 0.19970001E+02 -0.19443E+07
 0.20020000E+02 -0.21138E+07
 0.20070002E+02 -0.13468E+07
 0.20120001E+02 -0.83590E+06
 0.20170000E+02 -0.12134E+06
 0.20220001E+02  0.13880E+07
 0.20270000E+02  0.19840E+07
 0.20320002E+02  0.20383E+07
 0.20370001E+02  0.24618E+07
 0.20420000E+02  0.31198E+07
 0.20470001E+02  0.28081E+07
 0.20520000E+02  0.49260E+06
 0.20570002E+02 -0.18193E+07
 0.20620001E+02 -0.18345E+07
 0.20670000E+02 -0.20330E+07
 0.20720001E+02 -0.22076E+07
 0.20770000E+02 -0.90883E+06
 0.20820002E+02 -0.39650E+06
 0.20870001E+02 -0.14720E+07
 0.20920000E+02 -0.25398E+07
 0.20970001E+02 -0.25817E+07
 0.21020000E+02 -0.20173E+07
 0.21070002E+02 -0.20006E+07
 0.21120001E+02 -0.19681E+07
 0.21170000E+02  0.30180E+06
 0.21220001E+02  0.31328E+07
 0.21270000E+02  0.29113E+07
 0.21320002E+02  0.99286E+06
 0.21370001E+02  0.17373E+06
 0.21420000E+02 -0.29687E+06
 0.21470001E+02 -0.89186E+05
 0.21520000E+02 -0.34166E+06
 0.21570002E+02 -0.11669E+07
 0.21620001E+02  0.32062E+06
 0.21670000E+02  0.12928E+06
 0.21720001E+02 -0.19345E+07
 0.21770000E+02 -0.11827E+07
 0.21820002E+02 -0.37942E+06
 0.21870001E+02 -0.54230E+06
 0.21920000E+02 -0.90540E+06
 0.21970001E+02 -0.21010E+07
 0.22020000E+02 -0.22300E+07
 0.22070002E+02 -0.23626E+07
 0.22120001E+02 -0.24787E+07
 0.22170000E+02 -0.13629E+07
 0.22220001E+02 -0.33900E+06
 0.22270000E+02  0.78217E+06
 0.22320002E+02  0.18335E+07
 0.22370001E+02  0.19084E+07
 0.22420000E+02  0.18912E+07
 0.22470001E+02  0.22545E+07
 0.22520000E+02  0.13876E+07
 0.22570002E+02  0.50027E+06
 0.22620001E+02 -0.96271E+06
 0.22670000E+02 -0.27923E+07
 0.22720001E+02 -0.30806E+07
 0.22770000E+02 -0.34759E+07
 0.22820002E+02 -0.29868E+07
 0.22870001E+02 -0.12663E+07
 0.22920000E+02  0.47981E+06
 0.22970001E+02  0.32329E+06
 0.23020000E+02  0.17306E+06
 0.23070002E+02  0.13625E+07
 0.23120001E+02  0.99029E+06
 0.23170000E+02 -0.23002E+06
 0.23220001E+02 -0.14162E+07
 0.23270000E+02 -0.41850E+06
 0.23320002E+02  0.11508E+07
 0.23370001E+02  0.48922E+06
 0.23420000E+02  0.12153E+06
 0.23470001E+02 -0.16553E+06
 0.23520000E+02 -0.10532E+07
 0.23570002E+02 -0.20674E+07
 0.23620001E+02 -0.27560E+07
 0.23670000E+02 -0.22115E+07
 0.23720001E+02 -0.12083E+07
 0.23770000E+02  0.15171E+06
 0.23820002E+02  0.53758E+06
 0.23870001E+02 -0.29571E+06
 0.23920000E+02 -0.92130E+05
 0.23970001E+02  0.12724E+06
 0.24020000E+02 -0.29330E+06
 0.24070002E+02 -0.82924E+05
 0.24120001E+02  0.12210E+07
 0.24170000E+02  0.20338E+07
 0.24220001E+02  0.85948E+06
 0.24270000E+02 -0.76576E+06
 0.24320002E+02 -0.61206E+06
 0.24370001E+02  0.91472E+06
 0.24420000E+02  0.26634E+07
 0.24470001E+02  0.42453E+07
 0.24520000E+02  0.44530E+07
 0.24570002E+02  0.36230E+07
 0.24620001E+02  0.26533E+07
 0.24670000E+02  0.21602E+07
 0.24720001E+02  0.22245E+07
 0.24770000E+02  0.18397E+07
 0.24820002E+02  0.36506E+06
 0.24870001E+02 -0.46492E+06
 0.24920000E+02  0.60992E+06
 0.24970001E+02  0.92141E+06
 0.25020000E+02  0.55253E+06
 0.25070002E+02  0.12499E+07
 0.25120001E+02  0.26932E+07
 0.25170000E+02  0.30879E+07
 0.25220001E+02  0.24320E+07
 0.25270000E+02  0.21596E+07
 0.25320002E+02  0.13688E+07
 0.25370001E+02  0.10843E+07
 0.25420000E+02  0.13336E+07
 0.25470001E+02  0.12752E+07
 0.25520000E+02  0.13762E+07
 0.25570002E+02  0.12636E+07
 0.25620001E+02  0.67285E+06
 0.25670000E+02 -0.14036E+06
 0.25720001E+02 -0.10459E+06
 0.25770000E+02  0.81574E+06
 0.25820002E+02  0.18386E+07
 0.25870001E+02  0.21606E+07
 0.25920000E+02  0.30477E+07
 0.25970001E+02  0.41915E+07
 0.26020000E+02  0.34182E+07
 0.26070002E+02  0.23629E+07
 0.26120001E+02  0.24721E+07
 0.26170000E+02  0.22629E+07
 0.26220001E+02  0.11064E+07
 0.26270000E+02  0.33635E+06
 0.26320002E+02 -0.15144E+06
 0.26370001E+02 -0.31999E+06
 0.26420000E+02 -0.35147E+06
 0.26470001E+02 -0.34268E+06
 0.26520000E+02  0.75713E+05
 0.26570002E+02  0.26127E+06
 0.26620001E+02  0.95188E+06
 0.26670000E+02  0.17844E+07
 0.26720001E+02  0.13654E+07
 0.26770000E+02  0.80064E+06
 0.26820002E+02  0.15217E+07
 0.26870001E+02  0.24305E+07
 0.26920000E+02  0.22423E+07
 0.26970001E+02  0.10358E+07
 0.27020000E+02 -0.86274E+06
 0.27070002E+02 -0.25123E+07
 0.27120001E+02 -0.29880E+07
 0.27170000E+02 -0.30022E+07
 0.27220001E+02 -0.24786E+07
 0.27270000E+02 -0.13873E+07
 0.27320002E+02 -0.96141E+06
 0.27370001E+02 -0.86644E+06
 0.27420000E+02 -0.42931E+06
 0.27470001E+02  0.95587E+06
 0.27520000E+02  0.25243E+07
 0.27570002E+02  0.18907E+07
 0.27620001E+02 -0.34191E+06
 0.27670000E+02 -0.23777E+07
 0.27720001E+02 -0.51519E+07
 0.27770000E+02 -0.87095E+07
 0.27820002E+02 -0.10995E+08
 0.27870001E+02 -0.12729E+08
 0.27920000E+02 -0.14332E+08
 0.27970001E+02 -0.12508E+08
 0.28020000E+02 -0.70849E+07
 0.28070002E+02 -0.23509E+07
 0.28120001E+02 -0.15870E+06
 0.28170000E+02  0.33673E+07
 0.28220001E+02  0.10803E+08
 0.28270000E+02  0.14318E+08
 0.28320002E+02  0.10790E+08
 0.28370001E+02  0.11474E+08
 0.28420000E+02  0.14442E+08
 0.28470001E+02  0.10482E+08
 0.28520000E+02  0.74270E+07
 0.28570002E+02  0.85158E+07
 0.28620001E+02  0.42845E+07
 0.28670000E+02 -0.57647E+06
 0.28720001E+02 -0.38822E+06
 0.28770000E+02 -0.36082E+07
 0.28820002E+02 -0.56260E+07
 0.28870001E+02 -0.36958E+07
 0.28920000E+02 -0.39590E+07
 0.28970001E+02 -0.25948E+07
 0.29020000E+02 -0.13313E+07
 0.29070000E+02 -0.37264E+07
 0.29120003E+02 -0.50341E+07
 0.29170002E+02 -0.32400E+07
 0.29220001E+02 -0.66109E+07
 0.29270000E+02 -0.14472E+08
 0.29320000E+02 -0.11923E+08
 0.29370003E+02 -0.38152E+07
 0.29420002E+02 -0.11322E+06
 0.29470001E+02  0.18686E+07
 0.29520000E+02 -0.65234E+06
 0.29570000E+02 -0.63456E+07
 0.29620003E+02 -0.98265E+07
 0.29670002E+02 -0.10211E+08
 0.29720001E+02 -0.99313E+07
 0.29770000E+02 -0.90962E+07
 0.29820000E+02 -0.46602E+07
 0.29870003E+02  0.39243E+06
 0.29920002E+02  0.41456E+07
 0.29970001E+02  0.66166E+07
 0.30020000E+02  0.10064E+08
 0.30070000E+02  0.13869E+08
 0.30120003E+02  0.11459E+08
 0.30170002E+02  0.86898E+07
 0.30220001E+02  0.11052E+08
 0.30270000E+02  0.98364E+07
 0.30320000E+02  0.55298E+07
 0.30370003E+02  0.52655E+07
 0.30420002E+02  0.41211E+07
 0.30470001E+02  0.69790E+06
 0.30520000E+02 -0.70850E+06
 0.30570000E+02 -0.67060E+06
 0.30620003E+02 -0.21079E+07
 0.30670002E+02 -0.38560E+07
 0.30720001E+02 -0.17663E+07
 0.30770000E+02  0.41582E+06
 0.30820000E+02 -0.67800E+06
 0.30870003E+02 -0.32097E+07
 0.30920002E+02 -0.51059E+07
 0.30970001E+02 -0.45222E+07
 0.31020000E+02 -0.10867E+07
 0.31070000E+02  0.22031E+07
 0.31120003E+02  0.36647E+07
 0.31170002E+02  0.32374E+07
 0.31220001E+02  0.97154E+06
 0.31270000E+02  0.42859E+06
 0.31320000E+02  0.33983E+06
 0.31370003E+02  0.10892E+06
 0.31420002E+02  0.21575E+07
 0.31470001E+02  0.37278E+07
 0.31520000E+02  0.12348E+07
 0.31570000E+02 -0.23859E+07
 0.31620003E+02 -0.67977E+06
 0.31670002E+02  0.31836E+07
 0.31720001E+02  0.46088E+07
 0.31770000E+02  0.63721E+07
 0.31820000E+02  0.81115E+07
 0.31870003E+02  0.79962E+07
 0.31920002E+02  0.46619E+07
 0.31970001E+02  0.14402E+06
 0.32020000E+02 -0.64593E+06
 0.32070000E+02 -0.12290E+07
 0.32120003E+02 -0.32471E+07
 0.32170002E+02 -0.37126E+07
 0.32220001E+02 -0.32634E+07
 0.32270000E+02 -0.22976E+07
 0.32320000E+02 -0.14002E+07
 0.32370003E+02 -0.57908E+06
 0.32420002E+02 -0.73912E+06
 0.32470001E+02 -0.18285E+07
 0.32520000E+02 -0.13341E+07
 0.32570000E+02 -0.16023E+07
 0.32620003E+02 -0.10077E+07
 0.32670002E+02  0.15012E+07
 0.32720001E+02  0.25615E+07
 0.32770000E+02  0.58023E+07
 0.32820000E+02  0.91507E+07
 0.32870003E+02  0.97995E+07
 0.32920002E+02  0.88424E+07
 0.32970001E+02  0.24356E+07
 0.33020000E+02 -0.46900E+07
 0.33070000E+02 -0.48464E+07
 0.33120003E+02 -0.27826E+07
 0.33170002E+02 -0.32016E+07
 0.33220001E+02 -0.28579E+07
 0.33270000E+02 -0.77677E+06
 0.33320000E+02 -0.19627E+06
 0.33370003E+02  0.32920E+06
 0.33420002E+02  0.29634E+07
 0.33470001E+02  0.41911E+07
 0.33520000E+02  0.55167E+07
 0.33570000E+02  0.87982E+07
 0.33620003E+02  0.10702E+08
 0.33670002E+02  0.11729E+08
 0.33720001E+02  0.12374E+08
 0.33770000E+02  0.11398E+08
 0.33820000E+02  0.84708E+07
 0.33870003E+02  0.41393E+07
 0.33920002E+02  0.28650E+05
 0.33970001E+02 -0.31497E+07
 0.34020000E+02 -0.61997E+07
 0.34070000E+02 -0.85777E+07
 0.34120003E+02 -0.84107E+07
 0.34170002E+02 -0.65541E+07
 0.34220001E+02 -0.48563E+07
 0.34270000E+02 -0.33021E+07
 0.34320000E+02 -0.16374E+07
 0.34370003E+02 -0.19092E+07
 0.34420002E+02 -0.43175E+07
 0.34470001E+02 -0.53127E+07
 0.34520000E+02 -0.65757E+07
 0.34570000E+02 -0.82061E+07
 0.34620003E+02 -0.52411E+07
 0.34670002E+02 -0.40469E+06
 0.34720001E+02  0.24051E+07
 0.34770000E+02  0.40218E+07
 0.34820000E+02  0.47900E+07
 0.34870003E+02  0.44644E+07
 0.34920002E+02  0.35001E+07
 0.34970001E+02  0.28716E+07
 0.35020000E+02  0.19509E+07
 0.35070000E+02  0.78082E+06
 0.35120003E+02 -0.67520E+06
 0.35170002E+02 -0.26182E+07
 0.35220001E+02 -0.35678E+07
 0.35270000E+02 -0.39688E+07
 0.35320000E+02 -0.40772E+07
 0.35370003E+02 -0.25763E+07
 0.35420002E+02  0.61950E+06
 0.35470001E+02  0.30911E+07
 0.35520000E+02  0.34021E+07
 0.35570000E+02  0.31120E+07
 0.35620003E+02  0.28894E+07
 0.35670002E+02  0.19428E+07
 0.35720001E+02  0.31953E+06
 0.35770000E+02 -0.16473E+07
 0.35820000E+02 -0.39281E+07
 0.35870003E+02 -0.54847E+07
 0.35920002E+02 -0.49765E+07
 0.35970001E+02 -0.29547E+07
 0.36020000E+02 -0.18896E+07
 0.36070000E+02 -0.22189E+07
 0.36120003E+02 -0.31672E+07
 0.36170002E+02 -0.39870E+07
 0.36220001E+02 -0.39359E+07
 0.36270000E+02 -0.29872E+07
 0.36320000E+02 -0.64042E+06
 0.36370003E+02  0.12764E+07
 0.36420002E+02  0.19523E+07
 0.36470001E+02  0.29556E+07
 0.36520000E+02  0.34130E+07
 0.36570000E+02  0.28262E+07
 0.36620003E+02  0.27012E+07
 0.36670002E+02  0.32978E+07
 0.36720001E+02  0.31246E+07
 0.36770000E+02  0.19977E+07
 0.36820000E+02  0.18676E+06
 0.36870003E+02 -0.17916E+07
 0.36920002E+02 -0.27301E+07
 0.36970001E+02 -0.35135E+07
 0.37020000E+02 -0.47541E+07
 0.37070000E+02 -0.52275E+07
 0.37120003E+02 -0.52732E+07
 0.37170002E+02 -0.59795E+07
 0.37220001E+02 -0.56077E+07
 0.37270000E+02 -0.41624E+07
 0.37320000E+02 -0.38381E+07
 0.37370003E+02 -0.40906E+07
 0.37420002E+02 -0.39609E+07
 0.37470001E+02 -0.40055E+07
 0.37520000E+02 -0.42935E+07
 0.37570000E+02 -0.41473E+07
 0.37620003E+02 -0.27842E+07
 0.37670002E+02  0.33986E+06
 0.37720001E+02  0.19189E+07
 0.37770000E+02  0.66878E+06
 0.37820000E+02 -0.24298E+06
 0.37870003E+02 -0.13059E+07
 0.37920002E+02 -0.26592E+07
 0.37970001E+02 -0.26062E+07
 0.38020000E+02 -0.24249E+07
 0.38070000E+02 -0.29840E+07
 0.38120003E+02 -0.32826E+07
 0.38170002E+02 -0.30344E+07
 0.38220001E+02 -0.16790E+07
 0.38270000E+02  0.31122E+06
 0.38320000E+02  0.15014E+07
 0.38370003E+02  0.20276E+07
 0.38420002E+02  0.21459E+07
 0.38470001E+02  0.26301E+07
 0.38520000E+02  0.33646E+07
 0.38570000E+02  0.30730E+07
 0.38620003E+02  0.18574E+07
 0.38670002E+02  0.98354E+06
 0.38720001E+02  0.15756E+07
 0.38770000E+02  0.24171E+07
 0.38820000E+02  0.24327E+07
 0.38870003E+02  0.12610E+07
 0.38920002E+02 -0.68435E+06
 0.38970001E+02 -0.14946E+07
 0.39020000E+02 -0.21875E+07
 0.39070000E+02 -0.34936E+07
 0.39120003E+02 -0.41874E+07
 0.39170002E+02 -0.45091E+07
 0.39220001E+02 -0.37700E+07
 0.39270000E+02 -0.22064E+07
 0.39320000E+02 -0.17555E+07
 0.39370003E+02 -0.12929E+07
 0.39420002E+02  0.35944E+06
 0.39470001E+02  0.18471E+07
 0.39520000E+02  0.17640E+07
 0.39570000E+02  0.54816E+06
 0.39620003E+02 -0.55349E+05
 0.39670002E+02 -0.70922E+06
 0.39720001E+02 -0.16293E+07
 0.39770000E+02 -0.18183E+07
 0.39820000E+02 -0.15648E+07
 0.39870003E+02 -0.12878E+07
 0.39920002E+02 -0.12291E+07
 0.39970001E+02 -0.67266E+06
 0.40020000E+02  0.36621E+06
 0.40070000E+02  0.10785E+07
 0.40120003E+02  0.73016E+06
 0.40170002E+02 -0.48762E+06
 0.40220001E+02 -0.10611E+07
 0.40270000E+02 -0.12753E+05
 0.40320000E+02  0.19260E+07
 0.40370003E+02  0.24743E+07
 0.40420002E+02  0.21515E+07
 0.40470001E+02  0.30402E+07
 0.40520000E+02  0.38248E+07
 0.40570000E+02  0.37868E+07
 0.40620003E+02  0.46563E+07
 0.40670002E+02  0.58873E+07
 0.40720001E+02  0.54458E+07
 0.40770000E+02  0.38475E+07
 0.40820000E+02  0.26899E+07
 0.40870003E+02  0.20047E+07
 0.40920002E+02  0.15308E+07
 0.40970001E+02  0.14731E+07
 0.41020000E+02  0.16564E+07
 0.41070000E+02  0.17561E+07
 0.41120003E+02  0.14124E+07
 0.41170002E+02 -0.60338E+05
 0.41220001E+02 -0.18822E+07
 0.41270000E+02 -0.30157E+07
 0.41320000E+02 -0.34653E+07
 0.41370003E+02 -0.24489E+07
 0.41420002E+02 -0.10831E+07
 0.41470001E+02 -0.43827E+06
 0.41520000E+02  0.71372E+06
 0.41570000E+02  0.16544E+07
 0.41620003E+02  0.16633E+07
 0.41670002E+02  0.17959E+07
 0.41720001E+02  0.19115E+07
 0.41770000E+02  0.10447E+07
 0.41820000E+02 -0.29253E+06
 0.41870003E+02 -0.13110E+07
 0.41920002E+02 -0.19926E+07
 0.41970001E+02 -0.19762E+07
 0.42020000E+02 -0.16571E+07
 0.42070000E+02 -0.12107E+07
 0.42120003E+02 -0.54837E+06
 0.42170002E+02  0.86785E+05
 0.42220001E+02  0.50686E+06
 0.42270000E+02  0.52221E+06
 0.42320000E+02  0.93482E+06
 0.42370003E+02  0.10396E+07
 0.42420002E+02  0.21252E+06
 0.42470001E+02 -0.72959E+06
 0.42520000E+02 -0.13730E+07
 0.42570000E+02 -0.12706E+07
 0.42620003E+02 -0.11916E+07
 0.42670002E+02 -0.11906E+07
 0.42720001E+02 -0.27017E+06
 0.42770000E+02  0.42580E+06
 0.42820000E+02  0.11874E+06
 0.42870003E+02 -0.26379E+06
 0.42920002E+02 -0.47161E+06
 0.42970001E+02 -0.36349E+06
 0.43020000E+02  0.19943E+06
 0.43070000E+02  0.12305E+07
 0.43120003E+02  0.20257E+07
 0.43170002E+02  0.21095E+07
 0.43220001E+02  0.23902E+07
 0.43270000E+02  0.24636E+07
 0.43320000E+02  0.25250E+07
 0.43370003E+02  0.36350E+07
 0.43420002E+02  0.46502E+07
 0.43470001E+02  0.49109E+07
 0.43520000E+02  0.50150E+07
 0.43570000E+02  0.44682E+07
 0.43620003E+02  0.34847E+07
 0.43670002E+02  0.27951E+07
 0.43720001E+02  0.17785E+07
 0.43770000E+02  0.69832E+06
 0.43820000E+02 -0.72550E+04
 0.43870003E+02 -0.73337E+06
 0.43920002E+02 -0.15277E+07
 0.43970001E+02 -0.22246E+07
 0.44020000E+02 -0.25233E+07
 0.44070000E+02 -0.28180E+07
 0.44120003E+02 -0.34252E+07
 0.44170002E+02 -0.37864E+07
 0.44220001E+02 -0.37704E+07
 0.44270000E+02 -0.31959E+07
 0.44320000E+02 -0.20635E+07
 0.44370003E+02 -0.13922E+07
 0.44420002E+02 -0.12753E+07
 0.44470001E+02 -0.10059E+07
 0.44520000E+02 -0.44623E+06
 0.44570000E+02  0.20158E+06
 0.44620003E+02  0.67323E+06
 0.44670002E+02  0.84349E+06
 0.44720001E+02  0.68028E+06
 0.44770000E+02  0.48657E+06
 0.44820000E+02  0.42189E+06
 0.44870003E+02 -0.35522E+05
 0.44920002E+02 -0.70560E+06
 0.44970001E+02 -0.87736E+06
 0.45020000E+02 -0.76336E+06
 0.45070000E+02 -0.88892E+06
 0.45120003E+02 -0.12091E+07
 0.45170002E+02 -0.11697E+07
 0.45220001E+02 -0.66362E+06
 0.45270000E+02  0.14350E+06
 0.45320000E+02  0.96210E+06
 0.45370003E+02  0.12167E+07
 0.45420002E+02  0.98100E+06
 0.45470001E+02  0.70856E+06
 0.45520000E+02  0.49766E+06
 0.45570000E+02  0.44605E+06
 0.45620003E+02  0.27675E+06
 0.45670002E+02 -0.13152E+06
 0.45720001E+02  0.10190E+06
 0.45770000E+02  0.79261E+06
 0.45820000E+02  0.12097E+07
 0.45870003E+02  0.14673E+07
 0.45920002E+02  0.16511E+07
 0.45970001E+02  0.17375E+07
 0.46020000E+02  0.19760E+07
 0.46070000E+02  0.24108E+07
 0.46120003E+02  0.28055E+07
 0.46170002E+02  0.34156E+07
 0.46220001E+02  0.35368E+07
 0.46270000E+02  0.28578E+07
 0.46320000E+02  0.24921E+07
 0.46370003E+02  0.24106E+07
 0.46420002E+02  0.22433E+07
 0.46470001E+02  0.18538E+07
 0.46520000E+02  0.13263E+07
 0.46570000E+02  0.57456E+06
 0.46620003E+02 -0.44872E+06
 0.46670002E+02 -0.10671E+07
 0.46720001E+02 -0.14723E+07
 0.46770000E+02 -0.21140E+07
 0.46820000E+02 -0.27796E+07
 0.46870003E+02 -0.27578E+07
 0.46920002E+02 -0.20894E+07
 0.46970001E+02 -0.17772E+07
 0.47020000E+02 -0.18815E+07
 0.47070000E+02 -0.19835E+07
 0.47120003E+02 -0.20935E+07
 0.47170002E+02 -0.20823E+07
 0.47220001E+02 -0.18658E+07
 0.47270000E+02 -0.17263E+07
 0.47320000E+02 -0.15987E+07
 0.47370003E+02 -0.16703E+07
 0.47420002E+02 -0.20701E+07
 0.47470001E+02 -0.25043E+07
 0.47520000E+02 -0.28768E+07
 0.47570000E+02 -0.26391E+07
 0.47620003E+02 -0.17197E+07
 0.47670002E+02 -0.69272E+06
 0.47720001E+02  0.13803E+06
 0.47770000E+02  0.82643E+06
 0.47820000E+02  0.15752E+07
 0.47870003E+02  0.22236E+07
 0.47920002E+02  0.25509E+07
 0.47970001E+02  0.25113E+07
 0.48020000E+02  0.24241E+07
 0.48070000E+02  0.22663E+07
 0.48120003E+02  0.15695E+07
 0.48170002E+02  0.53165E+06
 0.48220001E+02 -0.61418E+06
 0.48270000E+02 -0.17554E+07
 0.48320000E+02 -0.25286E+07
 0.48370003E+02 -0.26656E+07
 0.48420002E+02 -0.22325E+07
 0.48470001E+02 -0.12524E+07
 0.48520000E+02  0.42370E+05
 0.48570000E+02  0.78849E+06
 0.48620003E+02  0.10606E+07
 0.48670002E+02  0.13268E+07
 0.48720001E+02  0.13347E+07
 0.48770000E+02  0.71146E+06
 0.48820000E+02 -0.38843E+06
 0.48870003E+02 -0.11775E+07
 0.48920002E+02 -0.14779E+07
 0.48970001E+02 -0.13951E+07
 0.49020000E+02 -0.11181E+07
 0.49070000E+02 -0.99301E+06
 0.49120003E+02 -0.86974E+06
 0.49170002E+02 -0.80616E+06
 0.49220001E+02 -0.11608E+07
 0.49270000E+02 -0.18571E+07
 0.49320000E+02 -0.24377E+07
 0.49370003E+02 -0.26770E+07
 0.49420002E+02 -0.28507E+07
 0.49470001E+02 -0.30237E+07
 0.49520000E+02 -0.25452E+07
 0.49570000E+02 -0.15594E+07
 0.49620003E+02 -0.10002E+07
 0.49670002E+02 -0.73935E+06
 0.49720001E+02 -0.46508E+06
 0.49770000E+02  0.77111E+05
 0.49820000E+02  0.10383E+07
 0.49870003E+02  0.15003E+07
 0.49920002E+02  0.13173E+07
 0.49970001E+02  0.13797E+07
 0.50020000E+02  0.18134E+07
 0.50070000E+02  0.21138E+07
 0.50120003E+02  0.19796E+07
 0.50170002E+02  0.14330E+07
 0.50220001E+02  0.93694E+06
 0.50270000E+02  0.71838E+06
 0.50320000E+02  0.49648E+06
 0.50370003E+02  0.42104E+06
 0.50420002E+02  0.36549E+06
 0.50470001E+02  0.22839E+05
 0.50520000E+02 -0.35952E+06
 0.50570000E+02 -0.46979E+06
 0.50620003E+02 -0.36968E+06
 0.50670002E+02 -0.15898E+06
 0.50720001E+02  0.28620E+06
 0.50770000E+02  0.65566E+06
 0.50820000E+02  0.67344E+06
 0.50870003E+02  0.40076E+06
 0.50920002E+02 -0.14495E+06
 0.50970001E+02 -0.74767E+06
 0.51020000E+02 -0.11418E+07
 0.51070000E+02 -0.10875E+07
 0.51120003E+02 -0.63700E+06
 0.51170002E+02 -0.45193E+06
 0.51220001E+02 -0.65667E+06
 0.51270000E+02 -0.47499E+06
 0.51320000E+02  0.22629E+06
 0.51370003E+02  0.73592E+06
 0.51420002E+02  0.12055E+07
 0.51470001E+02  0.20344E+07
 0.51520000E+02  0.25795E+07
 0.51570000E+02  0.25234E+07
 0.51620003E+02  0.21611E+07
 0.51670002E+02  0.18345E+07
 0.51720001E+02  0.17688E+07
 0.51770000E+02  0.17018E+07
 0.51820000E+02  0.14908E+07
 0.51870003E+02  0.13721E+07
 0.51920002E+02  0.14502E+07
 0.51970001E+02  0.15610E+07
 0.52020000E+02  0.12912E+07
 0.52070000E+02  0.46327E+06
 0.52120003E+02 -0.52417E+06
 0.52170002E+02 -0.14203E+07
 0.52220001E+02 -0.22328E+07
 0.52270000E+02 -0.29664E+07
 0.52320000E+02 -0.34844E+07
 0.52370003E+02 -0.33349E+07
 0.52420002E+02 -0.27488E+07
 0.52470001E+02 -0.20009E+07
 0.52520000E+02 -0.99107E+06
 0.52570000E+02 -0.27766E+06
 0.52620003E+02  0.35938E+05
 0.52670002E+02  0.39853E+06
 0.52720001E+02  0.56817E+06
 0.52770000E+02  0.94683E+05
 0.52820000E+02 -0.64526E+06
 0.52870003E+02 -0.11024E+07
 0.52920002E+02 -0.12966E+07
 0.52970001E+02 -0.14263E+07
 0.53020000E+02 -0.15455E+07
 0.53070000E+02 -0.15064E+07
 0.53120003E+02 -0.13559E+07
 0.53170002E+02 -0.11071E+07
 0.53220001E+02 -0.89055E+06
 0.53270000E+02 -0.88536E+06
 0.53320000E+02 -0.72704E+06
 0.53370003E+02 -0.36716E+06
 0.53420002E+02 -0.45282E+05
 0.53470001E+02  0.28212E+06
 0.53520000E+02  0.73214E+06
 0.53570000E+02  0.11203E+07
 0.53620003E+02  0.13375E+07
 0.53670002E+02  0.16311E+07
 0.53720001E+02  0.20517E+07
 0.53770000E+02  0.24278E+07
 0.53820000E+02  0.24622E+07
 0.53870003E+02  0.21758E+07
 0.53920002E+02  0.15928E+07
 0.53970001E+02  0.84846E+06
 0.54020000E+02  0.57733E+06
 0.54070000E+02  0.73493E+06
 0.54120003E+02  0.89879E+06
 0.54170002E+02  0.10928E+07
 0.54220001E+02  0.13131E+07
 0.54270000E+02  0.14153E+07
 0.54320000E+02  0.14065E+07
 0.54370003E+02  0.14743E+07
 0.54420002E+02  0.16533E+07
 0.54470001E+02  0.17546E+07
 0.54520000E+02  0.16719E+07
 0.54570000E+02  0.14183E+07
 0.54620003E+02  0.10131E+07
 0.54670002E+02  0.52810E+06
 0.54720001E+02  0.18038E+06
 0.54770000E+02 -0.39040E+04
 0.54820000E+02 -0.37349E+06
 0.54870003E+02 -0.11744E+07
 0.54920002E+02 -0.22268E+07
 0.54970001E+02 -0.31363E+07
 0.55020000E+02 -0.36692E+07
 0.55070000E+02 -0.37343E+07
 0.55120003E+02 -0.33385E+07
 0.55170002E+02 -0.27717E+07
 0.55220001E+02 -0.21505E+07
 0.55270000E+02 -0.13315E+07
 0.55320000E+02 -0.51794E+06
 0.55370003E+02  0.13597E+06
 0.55420002E+02  0.73993E+06
 0.55470001E+02  0.10709E+07
 0.55520000E+02  0.95026E+06
 0.55570000E+02  0.63143E+06
 0.55620003E+02  0.38365E+06
 0.55670002E+02  0.19458E+06
 0.55720001E+02 -0.50616E+05
 0.55770000E+02 -0.17027E+06
 0.55820000E+02 -0.87681E+05
 0.55870003E+02  0.10279E+06
 0.55920002E+02  0.29157E+06
 0.55970001E+02  0.21216E+06
 0.56020000E+02 -0.92198E+05
 0.56070000E+02 -0.28398E+06
 0.56120003E+02 -0.27120E+06
 0.56170002E+02 -0.29035E+06
 0.56220001E+02 -0.30385E+06
 0.56270000E+02 -0.77396E+05
 0.56320000E+02  0.19401E+06
 0.56370003E+02  0.35788E+06
 0.56420002E+02  0.58342E+06
 0.56470001E+02  0.83028E+06
 0.56520000E+02  0.96857E+06
 0.56570000E+02  0.99993E+06
 0.56620003E+02  0.89564E+06
 0.56670002E+02  0.65243E+06
 0.56720001E+02  0.33391E+06
 0.56770000E+02  0.56270E+04
 0.56820000E+02 -0.32588E+06
 0.56870003E+02 -0.43545E+06
 0.56920002E+02 -0.18036E+06
 0.56970001E+02  0.16029E+06
 0.57020000E+02  0.56722E+06
 0.57070000E+02  0.10594E+07
 0.57120003E+02  0.12797E+07
 0.57170002E+02  0.11655E+07
 0.57220001E+02  0.87738E+06
 0.57270000E+02  0.48440E+06
 0.57320000E+02  0.50624E+05
 0.57370003E+02 -0.39108E+06
 0.57420002E+02 -0.79602E+06
 0.57470001E+02 -0.11511E+07
 0.57520000E+02 -0.13914E+07
 0.57570000E+02 -0.16377E+07
 0.57620003E+02 -0.18687E+07
 0.57670002E+02 -0.18684E+07
 0.57720001E+02 -0.17415E+07
 0.57770000E+02 -0.15727E+07
 0.57820000E+02 -0.14045E+07
 0.57870003E+02 -0.10933E+07
 0.57920002E+02 -0.51208E+06
 0.57970001E+02  0.21637E+05
 0.58020000E+02  0.31248E+06
 0.58070000E+02  0.49536E+06
 0.58120003E+02  0.68234E+06
 0.58170002E+02  0.93447E+06
 0.58220001E+02  0.11865E+07
 0.58270000E+02  0.12135E+07
 0.58320000E+02  0.10916E+07
 0.58370003E+02  0.12479E+07
 0.58420002E+02  0.17223E+07
 0.58470001E+02  0.20838E+07
 0.58520000E+02  0.21845E+07
 0.58570000E+02  0.19775E+07
 0.58620003E+02  0.14284E+07
 0.58670002E+02  0.91784E+06
 0.58720001E+02  0.58076E+06
 0.58770000E+02  0.18720E+06
 0.58820000E+02 -0.17027E+06
 0.58870003E+02 -0.37806E+06
 0.58920002E+02 -0.72927E+06
 0.58970001E+02 -0.13074E+07
 0.59020000E+02 -0.18271E+07
 0.59070000E+02 -0.20999E+07
 0.59120003E+02 -0.20639E+07
 0.59170002E+02 -0.19761E+07
 0.59220001E+02 -0.20468E+07
 0.59270000E+02 -0.20407E+07
 0.59320000E+02 -0.19387E+07
 0.59370003E+02 -0.18094E+07
 0.59420002E+02 -0.14860E+07
 0.59470001E+02 -0.10128E+07
 0.59520000E+02 -0.56932E+06
 0.59570000E+02 -0.17160E+06
 0.59620003E+02  0.27662E+06
 0.59670002E+02  0.80372E+06
 0.59720001E+02  0.12872E+07
 0.59770000E+02  0.15367E+07
 0.59820000E+02  0.14954E+07
 0.59870003E+02  0.13279E+07
 0.59920002E+02  0.12404E+07
 0.59970001E+02  0.12582E+07
 0.60020000E+02  0.12321E+07
 0.60070000E+02  0.99854E+06
 0.60120003E+02  0.49710E+06
 0.60170002E+02 -0.12565E+05
 0.60220001E+02 -0.27890E+06
 0.60270000E+02 -0.49045E+06
 0.60320000E+02 -0.67294E+06
 0.60370003E+02 -0.75301E+06
 0.60420002E+02 -0.86948E+06
 0.60470001E+02 -0.95125E+06
 0.60520000E+02 -0.10534E+07
 0.60570000E+02 -0.13072E+07
 0.60620003E+02 -0.16662E+07
 0.60670002E+02 -0.19976E+07
 0.60720001E+02 -0.20537E+07
 0.60770000E+02 -0.18748E+07
 0.60820000E+02 -0.16114E+07
 0.60870003E+02 -0.13078E+07
 0.60920002E+02 -0.94038E+06
 0.60970001E+02 -0.49598E+06
 0.61020000E+02 -0.85973E+05
 0.61070004E+02  0.42856E+06
 0.61119999E+02  0.11398E+07
 0.61170002E+02  0.17524E+07
 0.61220005E+02  0.20771E+07
 0.61270000E+02  0.21842E+07
 0.61320004E+02  0.21814E+07
 0.61369999E+02  0.21196E+07
 0.61420002E+02  0.19655E+07
 0.61470005E+02  0.17223E+07
 0.61520000E+02  0.15033E+07
 0.61570004E+02  0.14163E+07
 0.61619999E+02  0.13968E+07
 0.61670002E+02  0.12977E+07
 0.61720005E+02  0.10541E+07
 0.61770000E+02  0.79022E+06
 0.61820004E+02  0.71796E+06
 0.61869999E+02  0.71684E+06
 0.61920002E+02  0.62002E+06
 0.61970005E+02  0.51018E+06
 0.62020000E+02  0.40819E+06
 0.62070004E+02  0.36334E+06
 0.62119999E+02  0.37217E+06
 0.62170002E+02  0.32838E+06
 0.62220005E+02  0.23642E+06
 0.62270000E+02 -0.30669E+05
 0.62320004E+02 -0.50970E+06
 0.62369999E+02 -0.96165E+06
 0.62420002E+02 -0.12366E+07
 0.62470005E+02 -0.13188E+07
 0.62520000E+02 -0.13416E+07
 0.62570004E+02 -0.15007E+07
 0.62619999E+02 -0.16139E+07
 0.62670002E+02 -0.15031E+07
 0.62720005E+02 -0.13571E+07
 0.62770000E+02 -0.11787E+07
 0.62820004E+02 -0.10589E+07
 0.62869999E+02 -0.95913E+06
 0.62920002E+02 -0.64367E+06
 0.62970005E+02 -0.25227E+06
 0.63020000E+02  0.12506E+06
 0.63070004E+02  0.34862E+06
 0.63119999E+02  0.37189E+06
 0.63170002E+02  0.33683E+06
 0.63220005E+02  0.35048E+06
 0.63270000E+02  0.44444E+06
 0.63320004E+02  0.38972E+06
 0.63369999E+02  0.16529E+06
 0.63420002E+02 -0.44808E+05
 0.63470005E+02 -0.57976E+05
 0.63520000E+02  0.11554E+06
 0.63570004E+02  0.27900E+06
 0.63619999E+02  0.42957E+06
 0.63670002E+02  0.55431E+06
 0.63720005E+02  0.69409E+06
 0.63770000E+02  0.80900E+06
 0.63820004E+02  0.82482E+06
 0.63869999E+02  0.91909E+06
 0.63920002E+02  0.98999E+06
 0.63970005E+02  0.84383E+06
 0.64019997E+02  0.60077E+06
 0.64070000E+02  0.40202E+06
 0.64119995E+02  0.33083E+06
 0.64169998E+02  0.38246E+06
 0.64220001E+02  0.40901E+06
 0.64269997E+02  0.33553E+06
 0.64320000E+02  0.19602E+06
 0.64369995E+02  0.89381E+05
 0.64419998E+02  0.21527E+06
 0.64470001E+02  0.48675E+06
 0.64519997E+02  0.60252E+06
 0.64570000E+02  0.42713E+06
 0.64619995E+02  0.37525E+05
 0.64669998E+02 -0.29489E+06
 0.64720001E+02 -0.45316E+06
 0.64769997E+02 -0.52756E+06
 0.64820000E+02 -0.53442E+06
 0.64869995E+02 -0.37701E+06
 0.64919998E+02 -0.66260E+05
 0.64970001E+02  0.15225E+06
 0.65019997E+02  0.17592E+06
 0.65070000E+02  0.21493E+06
 0.65119995E+02  0.32514E+06
 0.65169998E+02  0.33475E+06
 0.65220001E+02  0.23520E+06
 0.65269997E+02  0.11622E+06
 0.65320000E+02 -0.19954E+05
 0.65369995E+02 -0.12650E+06
 0.65419998E+02 -0.18647E+06
 0.65470001E+02 -0.33277E+06
 0.65519997E+02 -0.49831E+06
 0.65570000E+02 -0.54134E+06
 0.65619995E+02 -0.63082E+06
 0.65669998E+02 -0.77576E+06
 0.65720001E+02 -0.80236E+06
 0.65769997E+02 -0.79730E+06
 0.65820000E+02 -0.79321E+06
 0.65869995E+02 -0.75490E+06
 0.65919998E+02 -0.68052E+06
 0.65970001E+02 -0.52644E+06
 0.66019997E+02 -0.35774E+06
 0.66070000E+02 -0.14506E+06
 0.66119995E+02  0.64571E+05
 0.66169998E+02  0.11443E+06
 0.66220001E+02  0.54228E+05
 0.66269997E+02  0.13559E+05
 0.66320000E+02  0.31718E+05
 0.66369995E+02  0.32936E+05
 0.66419998E+02  0.67222E+05
 0.66470001E+02  0.21120E+06
 0.66519997E+02  0.39939E+06
 0.66570000E+02  0.50420E+06
 0.66619995E+02  0.43045E+06
 0.66669998E+02  0.26782E+06
 0.66720001E+02  0.10953E+06
 0.66769997E+02 -0.25840E+05
 0.66820000E+02 -0.13900E+06
 0.66869995E+02 -0.23934E+06
 0.66919998E+02 -0.27965E+06
 0.66970001E+02 -0.24643E+06
 0.67019997E+02 -0.16384E+06
 0.67070000E+02 -0.13260E+06
 0.67119995E+02 -0.25915E+06
 0.67169998E+02 -0.38478E+06
 0.67220001E+02 -0.40633E+06
 0.67269997E+02 -0.45291E+06
 0.67320000E+02 -0.54316E+06
 0.67369995E+02 -0.71871E+06
 0.67419998E+02 -0.94025E+06
 0.67470001E+02 -0.10400E+07
 0.67519997E+02 -0.10337E+07
 0.67570000E+02 -0.96046E+06
 0.67619995E+02 -0.94977E+06
 0.67669998E+02 -0.10542E+07
 0.67720001E+02 -0.11145E+07
 0.67769997E+02 -0.10581E+07
 0.67820000E+02 -0.80251E+06
 0.67869995E+02 -0.37963E+06
 0.67919998E+02  0.50072E+05
 0.67970001E+02  0.46745E+06
 0.68019997E+02  0.83093E+06
 0.68070000E+02  0.10951E+07
 0.68119995E+02  0.13776E+07
 0.68169998E+02  0.16415E+07
 0.68220001E+02  0.17644E+07
 0.68269997E+02  0.17162E+07
 0.68320000E+02  0.14670E+07
 0.68369995E+02  0.12258E+07
 0.68419998E+02  0.10553E+07
 0.68470001E+02  0.83795E+06
 0.68519997E+02  0.68771E+06
 0.68570000E+02  0.55817E+06
 0.68619995E+02  0.40647E+06
 0.68669998E+02  0.26619E+06
 0.68720001E+02  0.10093E+06
 0.68769997E+02  0.13616E+05
 0.68820000E+02 -0.15360E+04
 0.68869995E+02  0.90800E+04
 0.68919998E+02 -0.12290E+05
 0.68970001E+02 -0.12772E+06
 0.69019997E+02 -0.20200E+06
 0.69070000E+02 -0.23358E+06
 0.69119995E+02 -0.29863E+06
 0.69169998E+02 -0.30958E+06
 0.69220001E+02 -0.13395E+06
 0.69269997E+02  0.24855E+06
 0.69320000E+02  0.69171E+06
 0.69369995E+02  0.10054E+07
 0.69419998E+02  0.10995E+07
 0.69470001E+02  0.10668E+07
 0.69519997E+02  0.97832E+06
 0.69570000E+02  0.72661E+06
 0.69619995E+02  0.24249E+06
 0.69669998E+02 -0.24853E+06
 0.69720001E+02 -0.53070E+06
 0.69769997E+02 -0.68667E+06
 0.69820000E+02 -0.78756E+06
 0.69869995E+02 -0.87171E+06
 0.69919998E+02 -0.94030E+06
 0.69970001E+02 -0.92945E+06
 0.70019997E+02 -0.87544E+06
 0.70070000E+02 -0.80973E+06
 0.70119995E+02 -0.73216E+06
 0.70169998E+02 -0.62034E+06
 0.70220001E+02 -0.44115E+06
 0.70269997E+02 -0.23498E+06
 0.70320000E+02 -0.10408E+05
 0.70369995E+02  0.26500E+06
 0.70419998E+02  0.44965E+06
 0.70470001E+02  0.37334E+06
 0.70519997E+02  0.14058E+06
 0.70570000E+02 -0.69408E+05
 0.70619995E+02 -0.24907E+06
 0.70669998E+02 -0.45356E+06
 0.70720001E+02 -0.67642E+06
 0.70769997E+02 -0.88261E+06
 0.70820000E+02 -0.98836E+06
 0.70869995E+02 -0.92189E+06
 0.70919998E+02 -0.72307E+06
 0.70970001E+02 -0.48474E+06
 0.71019997E+02 -0.29486E+06
 0.71070000E+02 -0.19300E+06
 0.71119995E+02 -0.13641E+06
 0.71169998E+02 -0.38734E+05
 0.71220001E+02  0.12942E+06
 0.71269997E+02  0.28030E+06
 0.71320000E+02  0.28293E+06
 0.71369995E+02  0.19645E+06
 0.71419998E+02  0.15691E+06
 0.71470001E+02  0.15655E+06
 0.71519997E+02  0.14522E+06
 0.71570000E+02  0.56279E+05
 0.71619995E+02 -0.56188E+05
 0.71669998E+02 -0.77605E+05
 0.71720001E+02 -0.93021E+05
 0.71769997E+02 -0.12704E+06
 0.71820000E+02 -0.13429E+06
 0.71869995E+02 -0.16068E+06
 0.71919998E+02 -0.89279E+05
 0.71970001E+02  0.72790E+05
 0.72019997E+02  0.17925E+06
 0.72070000E+02  0.27867E+06
 0.72119995E+02  0.39326E+06
 0.72169998E+02  0.50628E+06
 0.72220001E+02  0.58761E+06
 0.72269997E+02  0.61966E+06
 0.72320000E+02  0.69821E+06
 0.72369995E+02  0.88051E+06
 0.72419998E+02  0.10515E+07
 0.72470001E+02  0.10821E+07
 0.72519997E+02  0.98032E+06
 0.72570000E+02  0.82206E+06
 0.72619995E+02  0.76417E+06
 0.72669998E+02  0.83229E+06
 0.72720001E+02  0.79223E+06
 0.72769997E+02  0.57454E+06
 0.72820000E+02  0.32740E+06
 0.72869995E+02  0.12728E+06
 0.72919998E+02 -0.19155E+05
 0.72970001E+02 -0.13190E+06
 0.73019997E+02 -0.23457E+06
 0.73070000E+02 -0.29635E+06
 0.73119995E+02 -0.24491E+06
 0.73169998E+02 -0.10518E+06
 0.73220001E+02  0.20715E+05
 0.73269997E+02  0.55328E+05
 0.73320000E+02 -0.35972E+05
 0.73369995E+02 -0.14665E+06
 0.73419998E+02 -0.18808E+06
 0.73470001E+02 -0.21492E+06
 0.73519997E+02 -0.25972E+06
 0.73570000E+02 -0.27325E+06
 0.73619995E+02 -0.23532E+06
 0.73669998E+02 -0.15217E+06
 0.73720001E+02 -0.11978E+05
 0.73769997E+02  0.97580E+05
 0.73820000E+02  0.10711E+06
 0.73869995E+02  0.54043E+05
 0.73919998E+02 -0.15986E+05
 0.73970001E+02 -0.80271E+05
 0.74019997E+02 -0.16646E+06
 0.74070000E+02 -0.28904E+06
 0.74119995E+02 -0.39488E+06
 0.74169998E+02 -0.45421E+06
 0.74220001E+02 -0.49953E+06
 0.74269997E+02 -0.51704E+06
 0.74320000E+02 -0.48597E+06
 0.74369995E+02 -0.41978E+06
 0.74419998E+02 -0.35379E+06
 0.74470001E+02 -0.31140E+06
 0.74519997E+02 -0.24832E+06
 0.74570000E+02 -0.20280E+06
 0.74619995E+02 -0.17730E+06
 0.74669998E+02 -0.67361E+05
 0.74720001E+02  0.88756E+05
 0.74769997E+02  0.22012E+06
 0.74820000E+02  0.32564E+06
 0.74869995E+02  0.40729E+06
 0.74919998E+02  0.48942E+06
 0.74970001E+02  0.52746E+06
 0.75019997E+02  0.46540E+06
 0.75070000E+02  0.32644E+06
 0.75119995E+02  0.12016E+06
 0.75169998E+02 -0.11803E+06
 0.75220001E+02 -0.29644E+06
 0.75269997E+02 -0.37822E+06
 0.75320000E+02 -0.36497E+06
 0.75369995E+02 -0.24251E+06
 0.75419998E+02 -0.63061E+05
 0.75470001E+02  0.95799E+05
 0.75519997E+02  0.19871E+06
 0.75570000E+02  0.28082E+06
 0.75619995E+02  0.38572E+06
 0.75669998E+02  0.48522E+06
 0.75720001E+02  0.55953E+06
 0.75769997E+02  0.56804E+06
 0.75820000E+02  0.50249E+06
 0.75869995E+02  0.37006E+06
 0.75919998E+02  0.14127E+06
 0.75970001E+02 -0.10448E+06
 0.76019997E+02 -0.25769E+06
 0.76070000E+02 -0.29990E+06
 0.76119995E+02 -0.25983E+06
 0.76169998E+02 -0.15665E+06
 0.76220001E+02 -0.33090E+04
 0.76269997E+02  0.16743E+06
 0.76320000E+02  0.32994E+06
 0.76369995E+02  0.45333E+06
 0.76419998E+02  0.50549E+06
 0.76470001E+02  0.49516E+06
 0.76519997E+02  0.44646E+06
 0.76570000E+02  0.38818E+06
 0.76619995E+02  0.31279E+06
 0.76669998E+02  0.13477E+06
 0.76720001E+02 -0.15598E+06
 0.76769997E+02 -0.45098E+06
 0.76820000E+02 -0.71145E+06
 0.76869995E+02 -0.95128E+06
 0.76919998E+02 -0.11321E+07
 0.76970001E+02 -0.12170E+07
 0.77019997E+02 -0.11929E+07
 0.77070000E+02 -0.10974E+07
 0.77119995E+02 -0.10047E+07
 0.77169998E+02 -0.92887E+06
 0.77220001E+02 -0.84219E+06
 0.77269997E+02 -0.74656E+06
 0.77320000E+02 -0.68107E+06
 0.77369995E+02 -0.66635E+06
 0.77419998E+02 -0.69924E+06
 0.77470001E+02 -0.78641E+06
 0.77519997E+02 -0.89645E+06
 0.77570000E+02 -0.94472E+06
 0.77619995E+02 -0.86470E+06
 0.77669998E+02 -0.66939E+06
 0.77720001E+02 -0.45979E+06
 0.77769997E+02 -0.31905E+06
 0.77820000E+02 -0.23828E+06
 0.77869995E+02 -0.16080E+06
 0.77919998E+02 -0.11105E+05
 0.77970001E+02  0.22224E+06
 0.78019997E+02  0.48612E+06
 0.78070000E+02  0.71270E+06
 0.78119995E+02  0.82747E+06
 0.78169998E+02  0.86879E+06
 0.78220001E+02  0.91703E+06
 0.78269997E+02  0.91223E+06
 0.78320000E+02  0.80636E+06
 0.78369995E+02  0.63944E+06
 0.78419998E+02  0.40728E+06
 0.78470001E+02  0.15200E+06
 0.78519997E+02 -0.53536E+05
 0.78570000E+02 -0.20070E+06
 0.78619995E+02 -0.30877E+06
 0.78669998E+02 -0.42022E+06
 0.78720001E+02 -0.51929E+06
 0.78769997E+02 -0.54735E+06
 0.78820000E+02 -0.51414E+06
 0.78869995E+02 -0.46210E+06
 0.78919998E+02 -0.41426E+06
 0.78970001E+02 -0.37893E+06
 0.79019997E+02 -0.31250E+06
 0.79070000E+02 -0.18931E+06
 0.79119995E+02 -0.25659E+05
 0.79169998E+02  0.16659E+06
 0.79220001E+02  0.36405E+06
 0.79269997E+02  0.54708E+06
 0.79320000E+02  0.64458E+06
 0.79369995E+02  0.62856E+06
 0.79419998E+02  0.52281E+06
 0.79470001E+02  0.34614E+06
 0.79519997E+02  0.14800E+06
 0.79570000E+02 -0.54943E+05
 0.79619995E+02 -0.22075E+06
 0.79669998E+02 -0.32608E+06
 0.79720001E+02 -0.40896E+06
 0.79769997E+02 -0.55265E+06
 0.79820000E+02 -0.75703E+06
 0.79869995E+02 -0.87242E+06
 0.79919998E+02 -0.89854E+06
 0.79970001E+02 -0.90665E+06
 0.80019997E+02 -0.85274E+06
 0.80070000E+02 -0.72361E+06
 0.80119995E+02 -0.54568E+06
 0.80169998E+02 -0.30192E+06
 0.80220001E+02 -0.22493E+05
 0.80269997E+02  0.21276E+06
 0.80320000E+02  0.37735E+06
 0.80369995E+02  0.46403E+06
 0.80419998E+02  0.46961E+06
 0.80470001E+02  0.42931E+06
 0.80519997E+02  0.40375E+06
 0.80570000E+02  0.37411E+06
 0.80619995E+02  0.29861E+06
 0.80669998E+02  0.18263E+06
 0.80720001E+02  0.10565E+06
 0.80769997E+02  0.18857E+06
 0.80820000E+02  0.38404E+06
 0.80869995E+02  0.60621E+06
 0.80919998E+02  0.83798E+06
 0.80970001E+02  0.10382E+07
 0.81019997E+02  0.11799E+07
 0.81070000E+02  0.12444E+07
 0.81119995E+02  0.12067E+07
 0.81169998E+02  0.10670E+07
 0.81220001E+02  0.86786E+06
 0.81269997E+02  0.66940E+06
 0.81320000E+02  0.52585E+06
 0.81369995E+02  0.45723E+06
 0.81419998E+02  0.41497E+06
 0.81470001E+02  0.37487E+06
 0.81519997E+02  0.37272E+06
 0.81570000E+02  0.38862E+06
 0.81619995E+02  0.39322E+06
 0.81669998E+02  0.38088E+06
 0.81720001E+02  0.32174E+06
 0.81769997E+02  0.21158E+06
 0.81820000E+02  0.85361E+05
 0.81869995E+02 -0.23930E+04
 0.81919998E+02 -0.42354E+05
 0.81970001E+02 -0.60328E+05
 0.82019997E+02 -0.48800E+05
 0.82070000E+02 -0.89170E+04
 0.82119995E+02  0.39480E+05
 0.82169998E+02  0.58197E+05
 0.82220001E+02  0.36740E+04
 0.82269997E+02 -0.13101E+06
 0.82320000E+02 -0.30097E+06
 0.82369995E+02 -0.43180E+06
 0.82419998E+02 -0.49759E+06
 0.82470001E+02 -0.50400E+06
 0.82519997E+02 -0.46819E+06
 0.82570000E+02 -0.41640E+06
 0.82619995E+02 -0.36161E+06
 0.82669998E+02 -0.30132E+06
 0.82720001E+02 -0.21541E+06
 0.82769997E+02 -0.14000E+06
 0.82820000E+02 -0.10402E+06
 0.82869995E+02 -0.54194E+05
 0.82919998E+02  0.41744E+05
 0.82970001E+02  0.15613E+06
 0.83019997E+02  0.26420E+06
 0.83070000E+02  0.33799E+06
 0.83119995E+02  0.32866E+06
 0.83169998E+02  0.24565E+06
 0.83220001E+02  0.16090E+06
 0.83269997E+02  0.13009E+06
 0.83320000E+02  0.11732E+06
 0.83369995E+02  0.91122E+05
 0.83419998E+02  0.96014E+05
 0.83470001E+02  0.14534E+06
 0.83519997E+02  0.22983E+06
 0.83570000E+02  0.29051E+06
 0.83619995E+02  0.26268E+06
 0.83669998E+02  0.19489E+06
 0.83720001E+02  0.14732E+06
 0.83769997E+02  0.11794E+06
 0.83820000E+02  0.77954E+05
 0.83869995E+02 -0.87000E+04
 0.83919998E+02 -0.12386E+06
 0.83970001E+02 -0.18474E+06
 0.84019997E+02 -0.19467E+06
 0.84070000E+02 -0.21278E+06
 0.84119995E+02 -0.18231E+06
 0.84169998E+02 -0.70297E+05
 0.84220001E+02  0.35797E+05
 0.84269997E+02  0.89763E+05
 0.84320000E+02  0.11216E+06
 0.84369995E+02  0.11807E+06
 0.84419998E+02  0.12969E+06
 0.84470001E+02  0.16255E+06
 0.84519997E+02  0.23202E+06
 0.84570000E+02  0.32161E+06
 0.84619995E+02  0.35438E+06
 0.84669998E+02  0.34470E+06
 0.84720001E+02  0.31566E+06
 0.84769997E+02  0.22318E+06
 0.84820000E+02  0.94413E+05
 0.84869995E+02 -0.25474E+05
 0.84919998E+02 -0.12223E+06
 0.84970001E+02 -0.18719E+06
 0.85019997E+02 -0.18691E+06
 0.85070000E+02 -0.12646E+06
 0.85119995E+02 -0.55142E+05
 0.85169998E+02  0.22536E+05
 0.85220001E+02  0.89123E+05
 0.85269997E+02  0.12783E+06
 0.85320000E+02  0.12403E+06
 0.85369995E+02  0.63524E+05
 0.85419998E+02 -0.27009E+05
 0.85470001E+02 -0.14966E+06
 0.85519997E+02 -0.30838E+06
 0.85570000E+02 -0.46705E+06
 0.85619995E+02 -0.61595E+06
 0.85669998E+02 -0.72551E+06
 0.85720001E+02 -0.73069E+06
 0.85769997E+02 -0.62190E+06
 0.85820000E+02 -0.42467E+06
 0.85869995E+02 -0.21071E+06
 0.85919998E+02 -0.66480E+05
 0.85970001E+02 -0.74870E+04
 0.86019997E+02 -0.69200E+03
 0.86070000E+02 -0.17590E+04
 0.86119995E+02  0.11388E+05
 0.86169998E+02  0.34469E+05
 0.86220001E+02  0.46152E+05
 0.86269997E+02  0.29073E+05
 0.86320000E+02 -0.27416E+05
 0.86369995E+02 -0.14082E+06
 0.86419998E+02 -0.30911E+06
 0.86470001E+02 -0.48823E+06
 0.86519997E+02 -0.59353E+06
 0.86570000E+02 -0.58416E+06
 0.86619995E+02 -0.53304E+06
 0.86669998E+02 -0.50496E+06
 0.86720001E+02 -0.50411E+06
 0.86769997E+02 -0.52384E+06
 0.86820000E+02 -0.54954E+06
 0.86869995E+02 -0.58985E+06
 0.86919998E+02 -0.63814E+06
 0.86970001E+02 -0.67893E+06
 0.87019997E+02 -0.71263E+06
 0.87070000E+02 -0.69243E+06
 0.87119995E+02 -0.59402E+06
 0.87169998E+02 -0.46950E+06
 0.87220001E+02 -0.36130E+06
 0.87269997E+02 -0.29072E+06
 0.87320000E+02 -0.23365E+06
 0.87369995E+02 -0.15738E+06
 0.87419998E+02 -0.10787E+06
 0.87470001E+02 -0.11027E+06
 0.87519997E+02 -0.11812E+06
 0.87570000E+02 -0.10630E+06
 0.87619995E+02 -0.10247E+06
 0.87669998E+02 -0.13364E+06
 0.87720001E+02 -0.19474E+06
 0.87769997E+02 -0.23648E+06
 0.87820000E+02 -0.23858E+06
 0.87869995E+02 -0.23018E+06
 0.87919998E+02 -0.21356E+06
 0.87970001E+02 -0.16558E+06
 0.88019997E+02 -0.51117E+05
 0.88070000E+02  0.88275E+05
 0.88119995E+02  0.20496E+06
 0.88169998E+02  0.31396E+06
 0.88220001E+02  0.36232E+06
 0.88269997E+02  0.34421E+06
 0.88320000E+02  0.31065E+06
 0.88369995E+02  0.27149E+06
 0.88419998E+02  0.26815E+06
 0.88470001E+02  0.31827E+06
 0.88519997E+02  0.41756E+06
 0.88570000E+02  0.54486E+06
 0.88619995E+02  0.65131E+06
 0.88669998E+02  0.72410E+06
 0.88720001E+02  0.76069E+06
 0.88769997E+02  0.76517E+06
 0.88820000E+02  0.70577E+06
 0.88869995E+02  0.56956E+06
 0.88919998E+02  0.43933E+06
 0.88970001E+02  0.39120E+06
 0.89019997E+02  0.45162E+06
 0.89070000E+02  0.57488E+06
 0.89119995E+02  0.66463E+06
 0.89169998E+02  0.65479E+06
 0.89220001E+02  0.54848E+06
 0.89269997E+02  0.39302E+06
 0.89320000E+02  0.23907E+06
 0.89369995E+02  0.12995E+06
 0.89419998E+02  0.49388E+05
 0.89470001E+02 -0.16159E+05
 0.89519997E+02 -0.49439E+05
 0.89570000E+02 -0.74816E+05
 0.89619995E+02 -0.90126E+05
 0.89669998E+02 -0.73907E+05
 0.89720001E+02 -0.28691E+05
 0.89769997E+02  0.36542E+05
 0.89820000E+02  0.10182E+06
 0.89869995E+02  0.16816E+06
 0.89919998E+02  0.22672E+06
 0.89970001E+02  0.25134E+06
 0.90019997E+02  0.22024E+06
 0.90070000E+02  0.10298E+06
 0.90119995E+02 -0.80935E+05
 0.90169998E+02 -0.23902E+06
 0.90220001E+02 -0.30536E+06
 0.90269997E+02 -0.32797E+06
 0.90320000E+02 -0.35057E+06
 0.90369995E+02 -0.35085E+06
 0.90419998E+02 -0.34812E+06
 0.90470001E+02 -0.35959E+06
 0.90519997E+02 -0.38256E+06
 0.90570000E+02 -0.41821E+06
 0.90619995E+02 -0.42996E+06
 0.90669998E+02 -0.39213E+06
 0.90720001E+02 -0.31476E+06
 0.90769997E+02 -0.22380E+06
 0.90820000E+02 -0.11719E+06
 0.90869995E+02  0.17853E+05
 0.90919998E+02  0.13563E+06
 0.90970001E+02  0.19486E+06
 0.91019997E+02  0.20827E+06
 0.91070000E+02  0.20981E+06
 0.91119995E+02  0.23900E+06
 0.91169998E+02  0.31567E+06
 0.91220001E+02  0.39472E+06
 0.91269997E+02  0.43490E+06
 0.91320000E+02  0.44559E+06
 0.91369995E+02  0.43827E+06
 0.91419998E+02  0.42192E+06
 0.91470001E+02  0.37341E+06
 0.91519997E+02  0.29586E+06
 0.91570000E+02  0.22909E+06
 0.91619995E+02  0.16869E+06
 0.91669998E+02  0.12287E+06
 0.91720001E+02  0.10336E+06
 0.91769997E+02  0.11894E+06
 0.91820000E+02  0.18332E+06
 0.91869995E+02  0.23701E+06
 0.91919998E+02  0.22497E+06
 0.91970001E+02  0.17455E+06
 0.92019997E+02  0.13620E+06
 0.92070000E+02  0.13872E+06
 0.92119995E+02  0.15671E+06
 0.92169998E+02  0.15215E+06
 0.92220001E+02  0.13149E+06
 0.92269997E+02  0.10882E+06
 0.92320000E+02  0.99126E+05
 0.92369995E+02  0.94330E+05
 0.92419998E+02  0.73193E+05
 0.92470001E+02  0.37967E+05
 0.92519997E+02  0.22820E+04
 0.92570000E+02  0.23012E+05
 0.92619995E+02  0.11404E+06
 0.92669998E+02  0.22028E+06
 0.92720001E+02  0.31788E+06
 0.92769997E+02  0.39001E+06
 0.92820000E+02  0.43817E+06
 0.92869995E+02  0.48419E+06
 0.92919998E+02  0.48951E+06
 0.92970001E+02  0.42571E+06
 0.93019997E+02  0.31677E+06
 0.93070000E+02  0.18325E+06
 0.93119995E+02  0.67494E+05
 0.93169998E+02  0.13284E+05
 0.93220001E+02  0.24391E+05
 0.93269997E+02  0.46976E+05
 0.93320000E+02  0.40045E+05
 0.93369995E+02  0.42821E+05
 0.93419998E+02  0.69612E+05
 0.93470001E+02  0.82907E+05
 0.93519997E+02  0.75143E+05
 0.93570000E+02  0.81885E+05
 0.93619995E+02  0.10962E+06
 0.93669998E+02  0.10079E+06
 0.93720001E+02  0.46138E+05
 0.93769997E+02 -0.90970E+04
 0.93820000E+02 -0.63932E+05
 0.93869995E+02 -0.12788E+06
 0.93919998E+02 -0.19974E+06
 0.93970001E+02 -0.26930E+06
 0.94019997E+02 -0.29874E+06
 0.94070000E+02 -0.27918E+06
 0.94119995E+02 -0.24823E+06
 0.94169998E+02 -0.23060E+06
 0.94220001E+02 -0.23739E+06
 0.94269997E+02 -0.26932E+06
 0.94320000E+02 -0.30341E+06
 0.94369995E+02 -0.34110E+06
 0.94419998E+02 -0.41577E+06
 0.94470001E+02 -0.54938E+06
 0.94519997E+02 -0.70565E+06
 0.94570000E+02 -0.81169E+06
 0.94619995E+02 -0.84570E+06
 0.94669998E+02 -0.81762E+06
 0.94720001E+02 -0.74027E+06
 0.94769997E+02 -0.62895E+06
 0.94820000E+02 -0.51591E+06
 0.94869995E+02 -0.45614E+06
 0.94919998E+02 -0.44906E+06
 0.94970001E+02 -0.46169E+06
 0.95019997E+02 -0.46935E+06
 0.95070000E+02 -0.45734E+06
 0.95119995E+02 -0.43773E+06
 0.95169998E+02 -0.39674E+06
 0.95220001E+02 -0.34390E+06
 0.95269997E+02 -0.35637E+06
 0.95320000E+02 -0.44771E+06
 0.95369995E+02 -0.55626E+06
 0.95419998E+02 -0.64689E+06
 0.95470001E+02 -0.70550E+06
 0.95519997E+02 -0.72345E+06
 0.95570000E+02 -0.70184E+06
 0.95619995E+02 -0.63839E+06
 0.95669998E+02 -0.54138E+06
 0.95720001E+02 -0.41467E+06
 0.95769997E+02 -0.26094E+06
 0.95820000E+02 -0.11446E+06
 0.95869995E+02  0.27970E+04
 0.95919998E+02  0.10110E+06
 0.95970001E+02  0.18714E+06
 0.96019997E+02  0.25631E+06
 0.96070000E+02  0.31112E+06
 0.96119995E+02  0.34760E+06
 0.96169998E+02  0.34962E+06
 0.96220001E+02  0.32824E+06
 0.96269997E+02  0.29428E+06
 0.96320000E+02  0.25076E+06
 0.96369995E+02  0.22121E+06
 0.96419998E+02  0.19551E+06
 0.96470001E+02  0.14128E+06
 0.96519997E+02  0.70382E+05
 0.96570000E+02  0.14769E+05
 0.96619995E+02 -0.92770E+04
 0.96669998E+02 -0.13777E+05
 0.96720001E+02 -0.18839E+05
 0.96769997E+02 -0.24249E+05
 0.96820000E+02 -0.23322E+05
 0.96869995E+02 -0.19380E+05
 0.96919998E+02 -0.23426E+05
 0.96970001E+02 -0.37167E+05
 0.97019997E+02 -0.68856E+05
 0.97070000E+02 -0.11725E+06
 0.97119995E+02 -0.14592E+06
 0.97169998E+02 -0.13915E+06
 0.97220001E+02 -0.10739E+06
 0.97269997E+02 -0.47050E+05
 0.97320000E+02  0.28831E+05
 0.97369995E+02  0.82891E+05
 0.97419998E+02  0.11764E+06
 0.97470001E+02  0.15748E+06
 0.97519997E+02  0.20792E+06
 0.97570000E+02  0.27458E+06
 0.97619995E+02  0.34683E+06
 0.97669998E+02  0.41883E+06
 0.97720001E+02  0.48635E+06
 0.97769997E+02  0.52049E+06
 0.97820000E+02  0.50870E+06
 0.97869995E+02  0.46842E+06
 0.97919998E+02  0.41524E+06
 0.97970001E+02  0.33245E+06
 0.98019997E+02  0.23494E+06
 0.98070000E+02  0.15960E+06
 0.98119995E+02  0.10179E+06
 0.98169998E+02  0.74708E+05
 0.98220001E+02  0.92257E+05
 0.98269997E+02  0.12089E+06
 0.98320000E+02  0.11596E+06
 0.98369995E+02  0.49970E+05
 0.98419998E+02 -0.70342E+05
 0.98470001E+02 -0.20896E+06
 0.98519997E+02 -0.33600E+06
 0.98570000E+02 -0.44149E+06
 0.98619995E+02 -0.52352E+06
 0.98669998E+02 -0.56918E+06
 0.98720001E+02 -0.56310E+06
 0.98769997E+02 -0.50614E+06
 0.98820000E+02 -0.41247E+06
 0.98869995E+02 -0.30674E+06
 0.98919998E+02 -0.20972E+06
 0.98970001E+02 -0.12277E+06
 0.99019997E+02 -0.29028E+05
 0.99070000E+02  0.69093E+05
 0.99119995E+02  0.14266E+06
 0.99169998E+02  0.18247E+06
 0.99220001E+02  0.19939E+06
 0.99269997E+02  0.21786E+06
 0.99320000E+02  0.24135E+06
 0.99369995E+02  0.24491E+06
 0.99419998E+02  0.23875E+06
 0.99470001E+02  0.23506E+06
 0.99519997E+02  0.22601E+06
 0.99570000E+02  0.21378E+06
 0.99619995E+02  0.20334E+06
 0.99669998E+02  0.20298E+06
 0.99720001E+02  0.20743E+06
 0.99769997E+02  0.20724E+06
 0.99820000E+02  0.20110E+06
 0.99869995E+02  0.18933E+06
 0.99919998E+02  0.17776E+06
 0.99970001E+02  0.16288E+06
 0.10002000E+03  0.14484E+06
 0.10007000E+03  0.13106E+06
 0.10012000E+03  0.12245E+06
 0.10017000E+03  0.12784E+06
 0.10022000E+03  0.16130E+06
 0.10027000E+03  0.21173E+06
 0.10032000E+03  0.25790E+06
 0.10037000E+03  0.29454E+06
 0.10042000E+03  0.32035E+06
 0.10047000E+03  0.34250E+06
 0.10052000E+03  0.35797E+06
 0.10057000E+03  0.35954E+06
 0.10062000E+03  0.35732E+06
 0.10067000E+03  0.36010E+06
 0.10072000E+03  0.37113E+06
 0.10077000E+03  0.37818E+06
 0.10082000E+03  0.36768E+06
 0.10087000E+03  0.35730E+06
 0.10092000E+03  0.37584E+06
 0.10097000E+03  0.40497E+06
 0.10102000E+03  0.38858E+06
 0.10107000E+03  0.30810E+06
 0.10112000E+03  0.19836E+06
 0.10117000E+03  0.78584E+05
 0.10122000E+03 -0.60535E+05
 0.10127000E+03 -0.20597E+06
 0.10132000E+03 -0.34945E+06
 0.10137000E+03 -0.48257E+06
 0.10142000E+03 -0.58832E+06
 0.10147000E+03 -0.67519E+06
 0.10152000E+03 -0.75084E+06
 0.10157000E+03 -0.79963E+06
 0.10162000E+03 -0.78569E+06
 0.10167000E+03 -0.69498E+06
 0.10172000E+03 -0.56426E+06
 0.10177000E+03 -0.44479E+06
 0.10182000E+03 -0.35545E+06
 0.10187000E+03 -0.27023E+06
 0.10192000E+03 -0.16733E+06
 0.10197000E+03 -0.69022E+05
 0.10202000E+03 -0.34000E+04
 0.10207000E+03  0.39571E+05
 0.10212000E+03  0.81817E+05
 0.10217000E+03  0.11191E+06
 0.10222000E+03  0.11903E+06
 0.10227000E+03  0.12520E+06
 0.10232000E+03  0.13939E+06
 0.10237000E+03  0.15452E+06
 0.10242000E+03  0.15165E+06
 0.10247000E+03  0.10945E+06
 0.10252000E+03  0.38231E+05
 0.10257000E+03 -0.25655E+05
 0.10262000E+03 -0.41630E+05
 0.10267000E+03 -0.88400E+04
 0.10272000E+03  0.49999E+05
 0.10277000E+03  0.12586E+06
 0.10282000E+03  0.20865E+06
 0.10287000E+03  0.27338E+06
 0.10292000E+03  0.29790E+06
 0.10297000E+03  0.28960E+06
 0.10302000E+03  0.26167E+06
 0.10307000E+03  0.21703E+06
 0.10312000E+03  0.16874E+06
 0.10317000E+03  0.14565E+06
 0.10322000E+03  0.16356E+06
 0.10327000E+03  0.20179E+06
 0.10332000E+03  0.22521E+06
 0.10337000E+03  0.21306E+06
 0.10342000E+03  0.17525E+06
 0.10347000E+03  0.15313E+06
 0.10352000E+03  0.15947E+06
 0.10357000E+03  0.15592E+06
 0.10362000E+03  0.12588E+06
 0.10367000E+03  0.93262E+05
 0.10372000E+03  0.74529E+05
 0.10377000E+03  0.57214E+05
 0.10382000E+03  0.27080E+05
 0.10387000E+03 -0.12606E+05
 0.10392000E+03 -0.67357E+05
 0.10397000E+03 -0.13975E+06
 0.10402000E+03 -0.20297E+06
 0.10407000E+03 -0.22890E+06
 0.10412000E+03 -0.20760E+06
 0.10417000E+03 -0.15794E+06
 0.10422000E+03 -0.11080E+06
 0.10427000E+03 -0.68715E+05
 0.10432000E+03 -0.16300E+05
 0.10437000E+03  0.49057E+05
 0.10442000E+03  0.10551E+06
 0.10447000E+03  0.14098E+06
 0.10452000E+03  0.16869E+06
 0.10457000E+03  0.18612E+06
 0.10462000E+03  0.18268E+06
 0.10467000E+03  0.16424E+06
 0.10472000E+03  0.13078E+06
 0.10477000E+03  0.65749E+05
 0.10482000E+03 -0.37058E+05
 0.10487000E+03 -0.16436E+06
 0.10492000E+03 -0.28928E+06
 0.10497000E+03 -0.37854E+06
 0.10502000E+03 -0.41636E+06
 0.10507000E+03 -0.41098E+06
 0.10512000E+03 -0.38377E+06
 0.10517000E+03 -0.33662E+06
 0.10522000E+03 -0.25547E+06
 0.10527000E+03 -0.15436E+06
 0.10532000E+03 -0.57071E+05
 0.10537000E+03  0.23615E+05
 0.10542000E+03  0.74381E+05
 0.10547000E+03  0.92621E+05
 0.10552000E+03  0.89826E+05
 0.10557000E+03  0.92212E+05
 0.10562000E+03  0.12835E+06
 0.10567000E+03  0.18950E+06
 0.10572000E+03  0.24780E+06
 0.10577000E+03  0.29468E+06
 0.10582000E+03  0.32756E+06
 0.10587000E+03  0.34326E+06
 0.10592000E+03  0.35120E+06
 0.10597000E+03  0.36168E+06
 0.10602000E+03  0.36995E+06
 0.10607000E+03  0.36818E+06
 0.10612000E+03  0.35469E+06
 0.10617000E+03  0.32985E+06
 0.10622000E+03  0.29368E+06
 0.10627000E+03  0.25024E+06
 0.10632000E+03  0.21133E+06
 0.10637000E+03  0.17883E+06
 0.10642000E+03  0.14779E+06
 0.10647000E+03  0.11658E+06
 0.10652000E+03  0.83701E+05
 0.10657000E+03  0.58307E+05
 0.10662000E+03  0.40845E+05
 0.10667000E+03  0.29825E+05
 0.10672000E+03  0.28085E+05
 0.10677000E+03  0.30627E+05
 0.10682000E+03  0.46486E+05
 0.10687000E+03  0.86169E+05
 0.10692000E+03  0.14187E+06
 0.10697000E+03  0.18875E+06
 0.10702000E+03  0.21180E+06
 0.10707000E+03  0.20129E+06
 0.10712000E+03  0.13712E+06
 0.10717000E+03  0.31368E+05
 0.10722000E+03 -0.84286E+05
 0.10727000E+03 -0.18379E+06
 0.10732000E+03 -0.23765E+06
 0.10737000E+03 -0.23151E+06
 0.10742000E+03 -0.18399E+06
 0.10747000E+03 -0.12892E+06
 0.10752000E+03 -0.78707E+05
 0.10757000E+03 -0.33881E+05
 0.10762000E+03 -0.98570E+04
 0.10767000E+03 -0.22723E+05
 0.10772000E+03 -0.72124E+05
 0.10777000E+03 -0.13677E+06
 0.10782000E+03 -0.18858E+06
 0.10787000E+03 -0.21655E+06
 0.10792000E+03 -0.21995E+06
 0.10797000E+03 -0.20806E+06
 0.10802000E+03 -0.18547E+06
 0.10807000E+03 -0.13219E+06
 0.10812000E+03 -0.45284E+05
 0.10817000E+03  0.50806E+05
 0.10822000E+03  0.13449E+06
 0.10827000E+03  0.19311E+06
 0.10832000E+03  0.23285E+06
 0.10837000E+03  0.26305E+06
 0.10842000E+03  0.27758E+06
 0.10847000E+03  0.26993E+06
 0.10852000E+03  0.24335E+06
 0.10857000E+03  0.20871E+06
 0.10862000E+03  0.17129E+06
 0.10867000E+03  0.12752E+06
 0.10872000E+03  0.70503E+05
 0.10877000E+03  0.40350E+04
 0.10882000E+03 -0.63206E+05
 0.10887000E+03 -0.13488E+06
 0.10892000E+03 -0.22335E+06
 0.10897000E+03 -0.32630E+06
 0.10902000E+03 -0.41556E+06
 0.10907000E+03 -0.47696E+06
 0.10912000E+03 -0.51523E+06
 0.10917000E+03 -0.52830E+06
 0.10922000E+03 -0.51334E+06
 0.10927000E+03 -0.48842E+06
 0.10932000E+03 -0.46496E+06
 0.10937000E+03 -0.41996E+06
 0.10942000E+03 -0.34123E+06
 0.10947000E+03 -0.23670E+06
 0.10952000E+03 -0.12820E+06
 0.10957000E+03 -0.48856E+05
 0.10962000E+03 -0.15349E+05
 0.10967000E+03 -0.31756E+05
 0.10972000E+03 -0.86738E+05
 0.10977000E+03 -0.15774E+06
 0.10982000E+03 -0.23858E+06
 0.10987000E+03 -0.32932E+06
 0.10992000E+03 -0.42857E+06
 0.10997000E+03 -0.51830E+06
 0.11002000E+03 -0.56328E+06
 0.11007000E+03 -0.56224E+06
 0.11012000E+03 -0.54072E+06
 0.11017000E+03 -0.50725E+06
 0.11022000E+03 -0.45056E+06
 0.11027000E+03 -0.37034E+06
 0.11032000E+03 -0.28664E+06
 0.11037000E+03 -0.21195E+06
 0.11042000E+03 -0.14505E+06
 0.11047000E+03 -0.82233E+05
 0.11052000E+03 -0.18493E+05
 0.11057000E+03  0.48344E+05
 0.11062000E+03  0.10892E+06
 0.11067000E+03  0.16106E+06
 0.11072000E+03  0.21134E+06
 0.11077000E+03  0.24909E+06
 0.11082000E+03  0.26449E+06
 0.11087000E+03  0.26221E+06
 0.11092000E+03  0.24157E+06
 0.11097000E+03  0.20268E+06
 0.11102000E+03  0.16723E+06
 0.11107000E+03  0.15905E+06
 0.11112000E+03  0.17369E+06
 0.11117000E+03  0.18204E+06
 0.11122000E+03  0.17013E+06
 0.11127000E+03  0.16030E+06
 0.11132000E+03  0.16670E+06
 0.11137000E+03  0.18299E+06
 0.11142000E+03  0.20236E+06
 0.11147000E+03  0.21569E+06
 0.11152000E+03  0.21381E+06
 0.11157000E+03  0.19754E+06
 0.11162000E+03  0.18220E+06
 0.11167000E+03  0.17832E+06
 0.11172000E+03  0.17524E+06
 0.11177000E+03  0.15898E+06
 0.11182000E+03  0.13658E+06
 0.11187000E+03  0.12046E+06
 0.11192000E+03  0.10609E+06
 0.11197000E+03  0.84668E+05
 0.11202000E+03  0.54262E+05
 0.11207000E+03  0.16223E+05
 0.11212000E+03 -0.17706E+05
 0.11217000E+03 -0.34996E+05
 0.11222000E+03 -0.48112E+05
 0.11227000E+03 -0.68458E+05
 0.11232000E+03 -0.88782E+05
 0.11237000E+03 -0.10350E+06
 0.11242000E+03 -0.98367E+05
 0.11247000E+03 -0.73660E+05
 0.11252000E+03 -0.48774E+05
 0.11257000E+03 -0.29210E+05
 0.11262000E+03 -0.21995E+05
 0.11267000E+03 -0.30997E+05
 0.11272000E+03 -0.45187E+05
 0.11277000E+03 -0.52548E+05
 0.11282000E+03 -0.56072E+05
 0.11287000E+03 -0.62537E+05
 0.11292000E+03 -0.61383E+05
 0.11297000E+03 -0.45884E+05
 0.11302000E+03 -0.21008E+05
 0.11307000E+03  0.89230E+04
 0.11312000E+03  0.39675E+05
 0.11317000E+03  0.57623E+05
 0.11322000E+03  0.55970E+05
 0.11327000E+03  0.50876E+05
 0.11332000E+03  0.45406E+05
 0.11337000E+03  0.24412E+05
 0.11342000E+03 -0.15708E+05
 0.11347000E+03 -0.69784E+05
 0.11352000E+03 -0.12907E+06
 0.11357000E+03 -0.18227E+06
 0.11362000E+03 -0.22609E+06
 0.11367000E+03 -0.25545E+06
 0.11372000E+03 -0.26227E+06
 0.11377000E+03 -0.24197E+06
 0.11382000E+03 -0.20048E+06
 0.11387000E+03 -0.14935E+06
 0.11392000E+03 -0.93832E+05
 0.11397000E+03 -0.50688E+05
 0.11402000E+03 -0.35650E+05
 0.11407000E+03 -0.54336E+05
 0.11412000E+03 -0.99261E+05
 0.11417000E+03 -0.14672E+06
 0.11422000E+03 -0.18669E+06
 0.11427000E+03 -0.22291E+06
 0.11432000E+03 -0.24280E+06
 0.11437000E+03 -0.22728E+06
 0.11442000E+03 -0.18404E+06
 0.11447000E+03 -0.13224E+06
 0.11452000E+03 -0.85695E+05
 0.11457000E+03 -0.44440E+05
 0.11462000E+03 -0.72150E+04
 0.11467000E+03  0.18557E+05
 0.11472000E+03  0.40365E+05
 0.11477000E+03  0.60133E+05
 0.11482000E+03  0.73394E+05
 0.11487000E+03  0.75303E+05
 0.11492000E+03  0.43023E+05
 0.11497000E+03 -0.22016E+05
 0.11502000E+03 -0.81008E+05
 0.11507000E+03 -0.10875E+06
 0.11512000E+03 -0.10625E+06
 0.11517000E+03 -0.91519E+05
 0.11522000E+03 -0.88896E+05
 0.11527000E+03 -0.11107E+06
 0.11532000E+03 -0.15484E+06
 0.11537000E+03 -0.20208E+06
 0.11542000E+03 -0.23083E+06
 0.11547000E+03 -0.23058E+06
 0.11552000E+03 -0.20158E+06
 0.11557000E+03 -0.14236E+06
 0.11562000E+03 -0.59491E+05
 0.11567000E+03  0.27342E+05
 0.11572000E+03  0.11010E+06
 0.11577000E+03  0.18735E+06
 0.11582000E+03  0.24878E+06
 0.11587000E+03  0.27830E+06
 0.11592000E+03  0.27817E+06
 0.11597000E+03  0.27172E+06
 0.11602000E+03  0.26434E+06
 0.11607000E+03  0.25368E+06
 0.11612000E+03  0.24380E+06
 0.11617000E+03  0.22538E+06
 0.11622000E+03  0.19149E+06
 0.11627000E+03  0.15553E+06
 0.11632000E+03  0.12842E+06
 0.11637000E+03  0.11232E+06
 0.11642000E+03  0.10302E+06
 0.11647000E+03  0.86820E+05
 0.11652000E+03  0.62012E+05
 0.11657000E+03  0.39797E+05
 0.11662000E+03  0.32050E+05
 0.11667000E+03  0.44015E+05
 0.11672000E+03  0.66906E+05
 0.11677000E+03  0.84768E+05
 0.11682000E+03  0.84401E+05
 0.11687000E+03  0.55430E+05
 0.11692000E+03  0.15420E+04
 0.11697000E+03 -0.55714E+05
 0.11702000E+03 -0.10973E+06
 0.11707000E+03 -0.17367E+06
 0.11712000E+03 -0.23898E+06
 0.11717000E+03 -0.28066E+06
 0.11722000E+03 -0.29206E+06
 0.11727000E+03 -0.27311E+06
 0.11732000E+03 -0.22986E+06
 0.11737000E+03 -0.17515E+06
 0.11742000E+03 -0.11436E+06
 0.11747000E+03 -0.48530E+05
 0.11752000E+03  0.12756E+05
 0.11757000E+03  0.53521E+05
 0.11762000E+03  0.78596E+05
 0.11767000E+03  0.10051E+06
 0.11772000E+03  0.11600E+06
 0.11777000E+03  0.11541E+06
 0.11782000E+03  0.97831E+05
 0.11787000E+03  0.75114E+05
 0.11792000E+03  0.49946E+05
 0.11797000E+03  0.19471E+05
 0.11802000E+03 -0.15860E+04
 0.11807000E+03 -0.97000E+03
 0.11812000E+03  0.18211E+05
 0.11817000E+03  0.57420E+05
 0.11822000E+03  0.11905E+06
 0.11827000E+03  0.18980E+06
 0.11832000E+03  0.25440E+06
 0.11837000E+03  0.31415E+06
 0.11842000E+03  0.38112E+06
 0.11847000E+03  0.46242E+06
 0.11852000E+03  0.55402E+06
 0.11857000E+03  0.64527E+06
 0.11862000E+03  0.72338E+06
 0.11867000E+03  0.78216E+06
 0.11872000E+03  0.82120E+06
 0.11877000E+03  0.84267E+06
 0.11882000E+03  0.84272E+06
 0.11887000E+03  0.82022E+06
 0.11892000E+03  0.79340E+06
 0.11897000E+03  0.76571E+06
 0.11902000E+03  0.72992E+06
 0.11907000E+03  0.68634E+06
 0.11912000E+03  0.63204E+06
 0.11917000E+03  0.57484E+06
 0.11922000E+03  0.52334E+06
 0.11927000E+03  0.48379E+06
 0.11932000E+03  0.46456E+06
 0.11937000E+03  0.46057E+06
 0.11942000E+03  0.45668E+06
 0.11947000E+03  0.43640E+06
 0.11952000E+03  0.38879E+06
 0.11957000E+03  0.32036E+06
 0.11962000E+03  0.24884E+06
 0.11967000E+03  0.17644E+06
 0.11972000E+03  0.89846E+05
 0.11977000E+03 -0.23428E+05
 0.11982000E+03 -0.15819E+06
 0.11987000E+03 -0.28356E+06
 0.11992000E+03 -0.37742E+06
 0.11997000E+03 -0.44542E+06
 0.12002000E+03 -0.50057E+06
 0.12007000E+03 -0.55096E+06
 0.12012000E+03 -0.59694E+06
 0.12017000E+03 -0.63815E+06
 0.12022000E+03 -0.67366E+06
 0.12027000E+03 -0.69749E+06
 0.12032000E+03 -0.70443E+06
 0.12037000E+03 -0.69171E+06
 0.12042000E+03 -0.66696E+06
 0.12047000E+03 -0.63809E+06
 0.12052000E+03 -0.60599E+06
 0.12057000E+03 -0.57869E+06
 0.12062000E+03 -0.56376E+06
 0.12067000E+03 -0.54616E+06
 0.12072000E+03 -0.49837E+06
 0.12077000E+03 -0.41441E+06
 0.12082000E+03 -0.30685E+06
 0.12087000E+03 -0.20286E+06
 0.12092000E+03 -0.12558E+06
 0.12097000E+03 -0.76808E+05
 0.12102000E+03 -0.57290E+05
 0.12107000E+03 -0.59706E+05
 0.12112000E+03 -0.75549E+05
 0.12117000E+03 -0.96522E+05
 0.12122000E+03 -0.98121E+05
 0.12127000E+03 -0.66490E+05
 0.12132000E+03 -0.84410E+04
 0.12137000E+03  0.59513E+05
 0.12142000E+03  0.11337E+06
 0.12147000E+03  0.14166E+06
 0.12152000E+03  0.15281E+06
 0.12157000E+03  0.15653E+06
 0.12162000E+03  0.15389E+06
 0.12167000E+03  0.14335E+06
 0.12172000E+03  0.12150E+06
 0.12177000E+03  0.84306E+05
 0.12182000E+03  0.37719E+05
 0.12187000E+03 -0.30020E+04
 0.12192000E+03 -0.25675E+05
 0.12197000E+03 -0.35214E+05
 0.12202000E+03 -0.37865E+05
 0.12207000E+03 -0.36366E+05
 0.12212000E+03 -0.40722E+05
 0.12217000E+03 -0.53248E+05
 0.12222000E+03 -0.81069E+05
 0.12227000E+03 -0.13185E+06
 0.12232000E+03 -0.19278E+06
 0.12237000E+03 -0.25260E+06
 0.12242000E+03 -0.30730E+06
 0.12247000E+03 -0.34903E+06
 0.12252000E+03 -0.37759E+06
 0.12257000E+03 -0.39658E+06
 0.12262000E+03 -0.40326E+06
 0.12267000E+03 -0.39998E+06
 0.12272000E+03 -0.38703E+06
 0.12277000E+03 -0.36630E+06
 0.12282000E+03 -0.35180E+06
 0.12287000E+03 -0.34588E+06
 0.12292000E+03 -0.34244E+06
 0.12297000E+03 -0.33897E+06
 0.12302000E+03 -0.33738E+06
 0.12307000E+03 -0.34548E+06
 0.12312000E+03 -0.35293E+06
 0.12317000E+03 -0.33574E+06
 0.12322000E+03 -0.29181E+06
 0.12327000E+03 -0.23947E+06
 0.12332000E+03 -0.18874E+06
 0.12337000E+03 -0.14297E+06
 0.12342000E+03 -0.11301E+06
 0.12347000E+03 -0.95520E+05
 0.12352000E+03 -0.76335E+05
 0.12357000E+03 -0.55706E+05
 0.12362000E+03 -0.31950E+05
 0.12367000E+03  0.10690E+04
 0.12372000E+03  0.41488E+05
 0.12377000E+03  0.83594E+05
 0.12382000E+03  0.12344E+06
 0.12387000E+03  0.15330E+06
 0.12392000E+03  0.16375E+06
 0.12397000E+03  0.15543E+06
 0.12402000E+03  0.12904E+06
 0.12407000E+03  0.85412E+05
 0.12412000E+03  0.39097E+05
 0.12417000E+03  0.15052E+05
 0.12422000E+03  0.21255E+05
 0.12427000E+03  0.41861E+05
 0.12432000E+03  0.56449E+05
 0.12437000E+03  0.49934E+05
 0.12442000E+03  0.22110E+05
 0.12447000E+03 -0.19997E+05
 0.12452000E+03 -0.64764E+05
 0.12457000E+03 -0.97231E+05
 0.12462000E+03 -0.11265E+06
 0.12467000E+03 -0.11403E+06
 0.12472000E+03 -0.10797E+06
 0.12477000E+03 -0.92317E+05
 0.12482000E+03 -0.53448E+05
 0.12487000E+03  0.11640E+05
 0.12492000E+03  0.83142E+05
 0.12497000E+03  0.13518E+06
 0.12502000E+03  0.16234E+06
 0.12507000E+03  0.17815E+06
 0.12512000E+03  0.19790E+06
 0.12517001E+03  0.22726E+06
 0.12521999E+03  0.25830E+06
 0.12527000E+03  0.28456E+06
 0.12532000E+03  0.30808E+06
 0.12537000E+03  0.32073E+06
 0.12542001E+03  0.31232E+06
 0.12546999E+03  0.28924E+06
 0.12552000E+03  0.26139E+06
 0.12557000E+03  0.23424E+06
 0.12562000E+03  0.21618E+06
 0.12567001E+03  0.22066E+06
 0.12571999E+03  0.25455E+06
 0.12577000E+03  0.31125E+06
 0.12582000E+03  0.37305E+06
 0.12587000E+03  0.42512E+06
 0.12592001E+03  0.46762E+06
 0.12596999E+03  0.49982E+06
 0.12602000E+03  0.51931E+06
 0.12607000E+03  0.52250E+06
 0.12612000E+03  0.50916E+06
 0.12617001E+03  0.49280E+06
 0.12621999E+03  0.48479E+06
 0.12627000E+03  0.49123E+06
 0.12632000E+03  0.51304E+06
 0.12637000E+03  0.53479E+06
 0.12642001E+03  0.52970E+06
 0.12646999E+03  0.49153E+06
 0.12652000E+03  0.43785E+06
 0.12657000E+03  0.38542E+06
 0.12662000E+03  0.33874E+06
 0.12667001E+03  0.29515E+06
 0.12671999E+03  0.25711E+06
 0.12677000E+03  0.22897E+06
 0.12682000E+03  0.21350E+06
 0.12687000E+03  0.20387E+06
 0.12692001E+03  0.19371E+06
 0.12696999E+03  0.18180E+06
 0.12702000E+03  0.16673E+06
 0.12707000E+03  0.14736E+06
 0.12712000E+03  0.11801E+06
 0.12717001E+03  0.79904E+05
 0.12721999E+03  0.41032E+05
 0.12727000E+03  0.13614E+05
 0.12732000E+03 -0.12800E+04
 0.12737000E+03 -0.11870E+05
 0.12742001E+03 -0.19092E+05
 0.12746999E+03 -0.24178E+05
 0.12752000E+03 -0.25954E+05
 0.12757000E+03 -0.26767E+05
 0.12762000E+03 -0.36635E+05
 0.12767001E+03 -0.58159E+05
 0.12771999E+03 -0.83869E+05
 0.12777000E+03 -0.10991E+06
 0.12782000E+03 -0.13043E+06
 0.12787000E+03 -0.13870E+06
 0.12792001E+03 -0.14035E+06
 0.12796999E+03 -0.15238E+06
 0.12802000E+03 -0.18553E+06
 0.12807001E+03 -0.22418E+06
 0.12812001E+03 -0.26180E+06
 0.12817001E+03 -0.31006E+06
 0.12822000E+03 -0.36199E+06
 0.12827000E+03 -0.40756E+06
 0.12832001E+03 -0.44738E+06
 0.12837001E+03 -0.48382E+06
 0.12842001E+03 -0.51648E+06
 0.12847000E+03 -0.53685E+06
 0.12852000E+03 -0.53977E+06
 0.12857001E+03 -0.53076E+06
 0.12862001E+03 -0.51547E+06
 0.12867001E+03 -0.49095E+06
 0.12872000E+03 -0.45353E+06
 0.12877000E+03 -0.41377E+06
 0.12882001E+03 -0.38505E+06
 0.12887001E+03 -0.36589E+06
 0.12892001E+03 -0.35073E+06
 0.12897000E+03 -0.34095E+06
 0.12902000E+03 -0.33677E+06
 0.12907001E+03 -0.32896E+06
 0.12912001E+03 -0.30705E+06
 0.12917001E+03 -0.27491E+06
 0.12922000E+03 -0.23817E+06
 0.12927000E+03 -0.19350E+06
 0.12932001E+03 -0.14140E+06
 0.12937001E+03 -0.84987E+05
 0.12942001E+03 -0.29225E+05
 0.12947000E+03  0.21697E+05
 0.12952000E+03  0.68326E+05
 0.12957001E+03  0.10456E+06
 0.12962001E+03  0.12831E+06
 0.12967001E+03  0.14280E+06
 0.12972000E+03  0.14394E+06
 0.12977000E+03  0.13471E+06
 0.12982001E+03  0.11971E+06
 0.12987001E+03  0.97528E+05
 0.12992001E+03  0.65011E+05
 0.12997000E+03  0.25452E+05
 0.13002000E+03 -0.62010E+04
 0.13007001E+03 -0.22752E+05
 0.13012001E+03 -0.25306E+05
 0.13017001E+03 -0.25376E+05
 0.13022000E+03 -0.37060E+05
 0.13027000E+03 -0.57087E+05
 0.13032001E+03 -0.75346E+05
 0.13037001E+03 -0.89626E+05
 0.13042001E+03 -0.11119E+06
 0.13047000E+03 -0.14308E+06
 0.13052000E+03 -0.17487E+06
 0.13057001E+03 -0.20278E+06
 0.13062001E+03 -0.22756E+06
 0.13067001E+03 -0.25049E+06
 0.13072000E+03 -0.26984E+06
 0.13077000E+03 -0.28112E+06
 0.13082001E+03 -0.28199E+06
 0.13087001E+03 -0.26999E+06
 0.13092001E+03 -0.24718E+06
 0.13097000E+03 -0.22043E+06
 0.13102000E+03 -0.19082E+06
 0.13107001E+03 -0.15504E+06
 0.13112001E+03 -0.11327E+06
 0.13117001E+03 -0.69656E+05
 0.13122000E+03 -0.26513E+05
 0.13127000E+03  0.13594E+05
 0.13132001E+03  0.41461E+05
 0.13137001E+03  0.45549E+05
 0.13142001E+03  0.21831E+05
 0.13147000E+03 -0.24480E+05
 0.13152000E+03 -0.85957E+05
 0.13157001E+03 -0.15264E+06
 0.13162001E+03 -0.21290E+06
 0.13167001E+03 -0.25500E+06
 0.13172000E+03 -0.26433E+06
 0.13177000E+03 -0.24420E+06
 0.13182001E+03 -0.21751E+06
 0.13187001E+03 -0.18908E+06
 0.13192001E+03 -0.15075E+06
 0.13197000E+03 -0.10341E+06
 0.13202000E+03 -0.52375E+05
 0.13207001E+03 -0.72300E+03
 0.13212001E+03  0.51980E+05
 0.13217001E+03  0.98466E+05
 0.13222000E+03  0.13337E+06
 0.13227000E+03  0.16184E+06
 0.13232001E+03  0.19103E+06
 0.13237001E+03  0.22995E+06
 0.13242001E+03  0.28202E+06
 0.13247000E+03  0.34537E+06
 0.13252000E+03  0.41061E+06
 0.13257001E+03  0.46251E+06
 0.13262001E+03  0.49366E+06
 0.13267001E+03  0.50560E+06
 0.13272000E+03  0.50817E+06
 0.13277000E+03  0.51162E+06
 0.13282001E+03  0.51671E+06
 0.13287001E+03  0.51692E+06
 0.13292001E+03  0.50657E+06
 0.13297000E+03  0.49019E+06
 0.13302000E+03  0.47608E+06
 0.13307001E+03  0.46444E+06
 0.13312001E+03  0.45320E+06
 0.13317001E+03  0.44488E+06
 0.13322000E+03  0.43477E+06
 0.13327000E+03  0.41070E+06
 0.13332001E+03  0.37492E+06
 0.13337001E+03  0.33609E+06
 0.13342001E+03  0.29434E+06
 0.13347000E+03  0.24949E+06
 0.13352000E+03  0.19994E+06
 0.13357001E+03  0.14540E+06
 0.13362001E+03  0.91475E+05
 0.13367001E+03  0.38825E+05
 0.13372000E+03 -0.14125E+05
 0.13377000E+03 -0.64092E+05
 0.13382001E+03 -0.11017E+06
 0.13387001E+03 -0.14722E+06
 0.13392001E+03 -0.16756E+06
 0.13397000E+03 -0.17498E+06
 0.13402000E+03 -0.17974E+06
 0.13407001E+03 -0.18994E+06
 0.13412001E+03 -0.20233E+06
 0.13417001E+03 -0.20716E+06
 0.13422000E+03 -0.20790E+06
 0.13427000E+03 -0.20648E+06
 0.13432001E+03 -0.19005E+06
 0.13437001E+03 -0.15246E+06
 0.13442001E+03 -0.96835E+05
 0.13447000E+03 -0.31455E+05
 0.13452000E+03  0.38697E+05
 0.13457001E+03  0.11626E+06
 0.13462001E+03  0.19361E+06
 0.13467001E+03  0.25854E+06
 0.13472000E+03  0.30192E+06
 0.13477000E+03  0.31728E+06
 0.13482001E+03  0.30903E+06
 0.13487001E+03  0.28497E+06
 0.13492001E+03  0.24660E+06
 0.13497000E+03  0.19338E+06
 0.13502000E+03  0.12576E+06
 0.13507001E+03  0.48176E+05
 0.13512001E+03 -0.29712E+05
 0.13517001E+03 -0.96763E+05
 0.13522000E+03 -0.14664E+06
 0.13527000E+03 -0.18286E+06
 0.13532001E+03 -0.20933E+06
 0.13537001E+03 -0.22571E+06
 0.13542001E+03 -0.23407E+06
 0.13547000E+03 -0.24102E+06
 0.13552000E+03 -0.25572E+06
 0.13557001E+03 -0.28136E+06
 0.13562001E+03 -0.30918E+06
 0.13567001E+03 -0.33198E+06
 0.13572000E+03 -0.35102E+06
 0.13577000E+03 -0.36440E+06
 0.13582001E+03 -0.37227E+06
 0.13587001E+03 -0.37163E+06
 0.13592001E+03 -0.35059E+06
 0.13597000E+03 -0.30855E+06
 0.13602000E+03 -0.25156E+06
 0.13607001E+03 -0.18282E+06
 0.13612001E+03 -0.10562E+06
 0.13617001E+03 -0.26047E+05
 0.13622000E+03  0.45999E+05
 0.13627000E+03  0.10234E+06
 0.13632001E+03  0.13592E+06
 0.13637001E+03  0.14943E+06
 0.13642001E+03  0.15216E+06
 0.13647000E+03  0.14687E+06
 0.13652000E+03  0.13552E+06
 0.13657001E+03  0.12308E+06
 0.13662001E+03  0.11630E+06
 0.13667001E+03  0.11370E+06
 0.13672000E+03  0.10415E+06
 0.13677000E+03  0.82984E+05
 0.13682001E+03  0.56153E+05
 0.13687001E+03  0.32622E+05
 0.13692001E+03  0.14211E+05
 0.13697000E+03 -0.47580E+04
 0.13702000E+03 -0.25360E+05
 0.13707001E+03 -0.43098E+05
 0.13712001E+03 -0.57159E+05
 0.13717001E+03 -0.68559E+05
 0.13722000E+03 -0.72600E+05
 0.13727000E+03 -0.64895E+05
 0.13732001E+03 -0.42616E+05
 0.13737001E+03 -0.10050E+04
 0.13742001E+03  0.52875E+05
 0.13747000E+03  0.10234E+06
 0.13752000E+03  0.13952E+06
 0.13757001E+03  0.16475E+06
 0.13762001E+03  0.17570E+06
 0.13767001E+03  0.17208E+06
 0.13772000E+03  0.16898E+06
 0.13777000E+03  0.17717E+06
 0.13782001E+03  0.18598E+06
 0.13787001E+03  0.18818E+06
 0.13792001E+03  0.18914E+06
 0.13797000E+03  0.19364E+06
 0.13802000E+03  0.20114E+06
 0.13807001E+03  0.20736E+06
 0.13812001E+03  0.20682E+06
 0.13817001E+03  0.19141E+06
 0.13822000E+03  0.15746E+06
 0.13827000E+03  0.11069E+06
 0.13832001E+03  0.59185E+05
 0.13837001E+03  0.92140E+04
 0.13842001E+03 -0.34321E+05
 0.13847000E+03 -0.65135E+05
 0.13852000E+03 -0.81260E+05
 0.13857001E+03 -0.87122E+05
 0.13862001E+03 -0.89186E+05
 0.13867001E+03 -0.99789E+05
 0.13872000E+03 -0.12516E+06
 0.13877000E+03 -0.15588E+06
 0.13882001E+03 -0.18186E+06
 0.13887001E+03 -0.19760E+06
 0.13892001E+03 -0.20145E+06
 0.13897000E+03 -0.19786E+06
 0.13902000E+03 -0.18738E+06
 0.13907001E+03 -0.16828E+06
 0.13912001E+03 -0.14660E+06
 0.13917001E+03 -0.12888E+06
 0.13922000E+03 -0.11751E+06
 0.13927000E+03 -0.11412E+06
 0.13932001E+03 -0.11759E+06
 0.13937001E+03 -0.12321E+06
 0.13942001E+03 -0.12832E+06
 0.13947000E+03 -0.13471E+06
 0.13952000E+03 -0.14276E+06
 0.13957001E+03 -0.15048E+06
 0.13962001E+03 -0.15850E+06
 0.13967001E+03 -0.16857E+06
 0.13972000E+03 -0.18124E+06
 0.13977000E+03 -0.19192E+06
 0.13982001E+03 -0.19489E+06
 0.13987001E+03 -0.19090E+06
 0.13992001E+03 -0.18286E+06
 0.13997000E+03 -0.17793E+06
 0.14002000E+03 -0.17999E+06
 0.14007001E+03 -0.18471E+06
 0.14012001E+03 -0.19381E+06
 0.14017001E+03 -0.21102E+06
 0.14022000E+03 -0.23525E+06
 0.14027000E+03 -0.25587E+06
 0.14032001E+03 -0.25871E+06
 0.14037001E+03 -0.24278E+06
 0.14042001E+03 -0.21265E+06
 0.14047000E+03 -0.17479E+06
 0.14052000E+03 -0.14074E+06
 0.14057001E+03 -0.11955E+06
 0.14062001E+03 -0.11021E+06
 0.14067001E+03 -0.99230E+05
 0.14072000E+03 -0.77607E+05
 0.14077000E+03 -0.46352E+05
 0.14082001E+03 -0.35630E+04
 0.14087001E+03  0.46605E+05
 0.14092001E+03  0.96515E+05
 0.14097000E+03  0.14626E+06
 0.14102000E+03  0.19304E+06
 0.14107001E+03  0.22949E+06
 0.14112001E+03  0.25373E+06
 0.14117001E+03  0.26972E+06
 0.14122000E+03  0.27372E+06
 0.14127000E+03  0.25658E+06
 0.14132001E+03  0.21928E+06
 0.14137001E+03  0.17308E+06
 0.14142001E+03  0.12997E+06
 0.14147000E+03  0.98780E+05
 0.14152000E+03  0.85496E+05
 0.14157001E+03  0.86820E+05
 0.14162001E+03  0.93131E+05
 0.14167001E+03  0.10135E+06
 0.14172000E+03  0.10994E+06
 0.14177000E+03  0.11488E+06
 0.14182001E+03  0.11974E+06
 0.14187001E+03  0.12931E+06
 0.14192001E+03  0.14048E+06
 0.14197000E+03  0.14736E+06
 0.14202000E+03  0.14484E+06
 0.14207001E+03  0.12713E+06
 0.14212001E+03  0.91473E+05
 0.14217001E+03  0.44933E+05
 0.14222000E+03 -0.10160E+04
 0.14227000E+03 -0.36735E+05
 0.14232001E+03 -0.56894E+05
 0.14237001E+03 -0.63166E+05
 0.14242001E+03 -0.57709E+05
 0.14247000E+03 -0.40093E+05
 0.14252000E+03 -0.13062E+05
 0.14257001E+03  0.12755E+05
 0.14262001E+03  0.26099E+05
 0.14267001E+03  0.28995E+05
 0.14272000E+03  0.27368E+05
 0.14277000E+03  0.20011E+05
 0.14282001E+03  0.57560E+04
 0.14287001E+03 -0.95210E+04
 0.14292001E+03 -0.17998E+05
 0.14297000E+03 -0.17040E+05
 0.14302000E+03 -0.55390E+04
 0.14307001E+03  0.13670E+05
 0.14312001E+03  0.37377E+05
 0.14317001E+03  0.67024E+05
 0.14322000E+03  0.99115E+05
 0.14327000E+03  0.12358E+06
 0.14332001E+03  0.13593E+06
 0.14337001E+03  0.13766E+06
 0.14342001E+03  0.12840E+06
 0.14347000E+03  0.11346E+06
 0.14352000E+03  0.10340E+06
 0.14357001E+03  0.97355E+05
 0.14362001E+03  0.84876E+05
 0.14367001E+03  0.63982E+05
 0.14372000E+03  0.42717E+05
 0.14377000E+03  0.29367E+05
 0.14382001E+03  0.20280E+05
 0.14387001E+03  0.55230E+04
 0.14392001E+03 -0.14951E+05
 0.14397000E+03 -0.36718E+05
 0.14402000E+03 -0.54704E+05
 0.14407001E+03 -0.64854E+05
 0.14412001E+03 -0.68062E+05
 0.14417001E+03 -0.65704E+05
 0.14422000E+03 -0.55710E+05
 0.14427000E+03 -0.38214E+05
 0.14432001E+03 -0.21545E+05
 0.14437001E+03 -0.13237E+05
 0.14442001E+03 -0.12354E+05
 0.14447000E+03 -0.15864E+05
 0.14452000E+03 -0.17565E+05
 0.14457001E+03 -0.90570E+04
 0.14462001E+03  0.11302E+05
 0.14467001E+03  0.39002E+05
 0.14472000E+03  0.64154E+05
 0.14477000E+03  0.81356E+05
 0.14482001E+03  0.91627E+05
 0.14487001E+03  0.94086E+05
 0.14492001E+03  0.89561E+05
 0.14497000E+03  0.80991E+05
 0.14502000E+03  0.71869E+05
 0.14507001E+03  0.66463E+05
 0.14512001E+03  0.72041E+05
 0.14517001E+03  0.93052E+05
 0.14522000E+03  0.12104E+06
 0.14527000E+03  0.13859E+06
 0.14532001E+03  0.13387E+06
 0.14537001E+03  0.11170E+06
 0.14542001E+03  0.83375E+05
 0.14547000E+03  0.55656E+05
 0.14552000E+03  0.32651E+05
 0.14557001E+03  0.12256E+05
 0.14562001E+03 -0.12699E+05
 0.14567001E+03 -0.43258E+05
 0.14572000E+03 -0.70706E+05
 0.14577000E+03 -0.89500E+05
 0.14582001E+03 -0.10565E+06
 0.14587001E+03 -0.12242E+06
 0.14592001E+03 -0.13353E+06
 0.14597000E+03 -0.13240E+06
 0.14602000E+03 -0.11322E+06
 0.14607001E+03 -0.78435E+05
 0.14612001E+03 -0.42953E+05
 0.14617001E+03 -0.18093E+05
 0.14622000E+03 -0.53460E+04
 0.14627000E+03  0.85000E+03
 0.14632001E+03  0.47310E+04
 0.14637001E+03  0.23170E+04
 0.14642001E+03 -0.12512E+05
 0.14647000E+03 -0.43443E+05
 0.14652000E+03 -0.87407E+05
 0.14657001E+03 -0.13398E+06
 0.14662001E+03 -0.17460E+06
 0.14667001E+03 -0.20902E+06
 0.14672000E+03 -0.23806E+06
 0.14677000E+03 -0.25983E+06
 0.14682001E+03 -0.27313E+06
 0.14687001E+03 -0.27390E+06
 0.14692001E+03 -0.25798E+06
 0.14697000E+03 -0.22435E+06
 0.14702000E+03 -0.17639E+06
 0.14707001E+03 -0.12257E+06
 0.14712001E+03 -0.69431E+05
 0.14717001E+03 -0.22165E+05
 0.14722000E+03  0.13375E+05
 0.14727000E+03  0.34456E+05
 0.14732001E+03  0.44522E+05
 0.14737001E+03  0.53269E+05
 0.14742001E+03  0.67219E+05
 0.14747000E+03  0.87119E+05
 0.14752000E+03  0.11463E+06
 0.14757001E+03  0.14683E+06
 0.14762001E+03  0.17549E+06
 0.14767001E+03  0.19769E+06
 0.14772000E+03  0.21542E+06
 0.14777000E+03  0.22559E+06
 0.14782001E+03  0.22289E+06
 0.14787001E+03  0.21196E+06
 0.14792001E+03  0.20132E+06
 0.14797000E+03  0.19027E+06
 0.14802000E+03  0.17030E+06
 0.14807001E+03  0.13698E+06
 0.14812001E+03  0.96999E+05
 0.14817001E+03  0.61082E+05
 0.14822000E+03  0.34549E+05
 0.14827000E+03  0.16349E+05
 0.14832001E+03  0.19850E+04
 0.14837001E+03 -0.98130E+04
 0.14842001E+03 -0.14425E+05
 0.14847000E+03 -0.10640E+05
 0.14852000E+03 -0.29000E+04
 0.14857001E+03  0.57750E+04
 0.14862001E+03  0.15083E+05
 0.14867001E+03  0.24198E+05
 0.14872000E+03  0.32700E+05
 0.14877000E+03  0.38909E+05
 0.14882001E+03  0.39808E+05
 0.14887001E+03  0.36223E+05
 0.14892001E+03  0.33199E+05
 0.14897000E+03  0.37148E+05
 0.14902000E+03  0.49724E+05
 0.14907001E+03  0.69984E+05
 0.14912001E+03  0.96925E+05
 0.14917001E+03  0.12601E+06
 0.14922000E+03  0.14942E+06
 0.14927000E+03  0.15953E+06
 0.14932001E+03  0.15802E+06
 0.14937001E+03  0.15177E+06
 0.14942001E+03  0.14560E+06
 0.14947000E+03  0.14780E+06
 0.14952000E+03  0.16386E+06
 0.14957001E+03  0.18876E+06
 0.14962001E+03  0.21285E+06
 0.14967001E+03  0.22915E+06
 0.14972000E+03  0.23613E+06
 0.14977000E+03  0.23404E+06
 0.14982001E+03  0.22299E+06
 0.14987001E+03  0.20448E+06
 0.14992001E+03  0.17786E+06
 0.14997000E+03  0.14520E+06
