-0.30000000E+01  0.52380E+04
-0.29500000E+01  0.12390E+05
-0.29000001E+01  0.19139E+05
-0.28499999E+01  0.24938E+05
-0.28000000E+01  0.29039E+05
-0.27500000E+01  0.31178E+05
-0.27000000E+01  0.32043E+05
-0.26500001E+01  0.32436E+05
-0.25999999E+01  0.32204E+05
-0.25500000E+01  0.31135E+05
-0.25000000E+01  0.28495E+05
-0.24500000E+01  0.24990E+05
-0.24000001E+01  0.21383E+05
-0.23499999E+01  0.16891E+05
-0.23000000E+01  0.10621E+05
-0.22500000E+01  0.22250E+04
-0.22000000E+01 -0.77470E+04
-0.21500001E+01 -0.18861E+05
-0.20999999E+01 -0.29752E+05
-0.20500000E+01 -0.40082E+05
-0.20000000E+01 -0.50409E+05
-0.19499999E+01 -0.60102E+05
-0.19000000E+01 -0.69329E+05
-0.18500000E+01 -0.78016E+05
-0.18000000E+01 -0.86247E+05
-0.17500000E+01 -0.93663E+05
-0.16999999E+01 -0.99097E+05
-0.16500000E+01 -0.10254E+06
-0.16000000E+01 -0.10364E+06
-0.15500000E+01 -0.10294E+06
-0.15000000E+01 -0.10082E+06
-0.14499999E+01 -0.96808E+05
-0.14000000E+01 -0.92024E+05
-0.13500000E+01 -0.87101E+05
-0.13000000E+01 -0.81822E+05
-0.12500000E+01 -0.76029E+05
-0.11999999E+01 -0.69435E+05
-0.11500000E+01 -0.62100E+05
-0.11000000E+01 -0.54276E+05
-0.10500000E+01 -0.46269E+05
-0.10000000E+01 -0.37525E+05
-0.95000005E+00 -0.27701E+05
-0.89999986E+00 -0.17812E+05
-0.84999990E+00 -0.82410E+04
-0.79999995E+00  0.47200E+03
-0.75000000E+00  0.77250E+04
-0.70000005E+00  0.14117E+05
-0.64999986E+00  0.19551E+05
-0.59999990E+00  0.24068E+05
-0.54999995E+00  0.27605E+05
-0.50000000E+00  0.30008E+05
-0.45000005E+00  0.32280E+05
-0.39999986E+00  0.34878E+05
-0.34999990E+00  0.37843E+05
-0.29999995E+00  0.41583E+05
-0.25000000E+00  0.46693E+05
-0.20000005E+00  0.52794E+05
-0.14999986E+00  0.59415E+05
-0.99999905E-01  0.66857E+05
-0.49999952E-01  0.74886E+05
 0.00000000E+00  0.83185E+05
 0.49999952E-01  0.91343E+05
 0.10000014E+00  0.99063E+05
 0.15000010E+00  0.10523E+06
 0.20000005E+00  0.10983E+06
 0.25000000E+00  0.11368E+06
 0.29999995E+00  0.11563E+06
 0.35000014E+00  0.11533E+06
 0.40000010E+00  0.11207E+06
 0.45000005E+00  0.10568E+06
 0.50000000E+00  0.96551E+05
 0.54999995E+00  0.85050E+05
 0.60000014E+00  0.71469E+05
 0.65000010E+00  0.55844E+05
 0.70000005E+00  0.38993E+05
 0.75000000E+00  0.20953E+05
 0.79999995E+00  0.28890E+04
 0.85000014E+00 -0.15474E+05
 0.90000010E+00 -0.33238E+05
 0.95000005E+00 -0.50021E+05
 0.10000000E+01 -0.66720E+05
 0.10500002E+01 -0.82202E+05
 0.10999999E+01 -0.96950E+05
 0.11500001E+01 -0.10971E+06
 0.12000003E+01 -0.11991E+06
 0.12500000E+01 -0.12660E+06
 0.13000002E+01 -0.12906E+06
 0.13499999E+01 -0.12823E+06
 0.14000001E+01 -0.12450E+06
 0.14500003E+01 -0.11895E+06
 0.15000000E+01 -0.11122E+06
 0.15500002E+01 -0.10168E+06
 0.15999999E+01 -0.90608E+05
 0.16500001E+01 -0.78092E+05
 0.17000003E+01 -0.65019E+05
 0.17500000E+01 -0.51800E+05
 0.18000002E+01 -0.38987E+05
 0.18499999E+01 -0.27014E+05
 0.19000001E+01 -0.16163E+05
 0.19500003E+01 -0.65140E+04
 0.20000000E+01  0.20700E+04
 0.20500002E+01  0.10597E+05
 0.20999999E+01  0.19389E+05
 0.21500001E+01  0.28452E+05
 0.22000003E+01  0.38246E+05
 0.22500000E+01  0.48411E+05
 0.23000002E+01  0.59397E+05
 0.23499999E+01  0.71598E+05
 0.24000001E+01  0.84361E+05
 0.24500003E+01  0.97840E+05
 0.25000000E+01  0.11186E+06
 0.25500002E+01  0.12544E+06
 0.25999999E+01  0.13789E+06
 0.26500001E+01  0.14847E+06
 0.27000003E+01  0.15719E+06
 0.27500000E+01  0.16417E+06
 0.28000002E+01  0.16943E+06
 0.28499999E+01  0.17319E+06
 0.29000001E+01  0.17477E+06
 0.29500003E+01  0.17394E+06
 0.30000000E+01  0.17028E+06
 0.30500002E+01  0.16351E+06
 0.30999999E+01  0.15425E+06
 0.31500001E+01  0.14206E+06
 0.32000003E+01  0.12687E+06
 0.32500000E+01  0.10941E+06
 0.33000002E+01  0.89722E+05
 0.33499999E+01  0.68240E+05
 0.34000001E+01  0.45815E+05
 0.34500003E+01  0.22532E+05
 0.35000000E+01 -0.13320E+04
 0.35500002E+01 -0.24798E+05
 0.35999999E+01 -0.47971E+05
 0.36500001E+01 -0.70723E+05
 0.37000003E+01 -0.92263E+05
 0.37500000E+01 -0.11278E+06
 0.38000002E+01 -0.13133E+06
 0.38499999E+01 -0.14793E+06
 0.39000001E+01 -0.16263E+06
 0.39500003E+01 -0.17470E+06
 0.40000000E+01 -0.18520E+06
 0.40500002E+01 -0.19336E+06
 0.40999999E+01 -0.19905E+06
 0.41500001E+01 -0.20296E+06
 0.42000003E+01 -0.20450E+06
 0.42500000E+01 -0.20467E+06
 0.43000002E+01 -0.20297E+06
 0.43499999E+01 -0.19827E+06
 0.44000001E+01 -0.19068E+06
 0.44500003E+01 -0.17997E+06
 0.45000000E+01 -0.16676E+06
 0.45500002E+01 -0.15145E+06
 0.45999999E+01 -0.13454E+06
 0.46500001E+01 -0.11695E+06
 0.47000003E+01 -0.99173E+05
 0.47500000E+01 -0.81226E+05
 0.48000002E+01 -0.63377E+05
 0.48499999E+01 -0.46372E+05
 0.49000001E+01 -0.30054E+05
 0.49500003E+01 -0.13904E+05
 0.50000000E+01  0.25690E+04
 0.50500002E+01  0.19528E+05
 0.51000004E+01  0.36821E+05
 0.51500006E+01  0.53839E+05
 0.51999998E+01  0.69670E+05
 0.52500000E+01  0.83375E+05
 0.53000002E+01  0.94098E+05
 0.53500004E+01  0.10199E+06
 0.54000006E+01  0.10705E+06
 0.54499998E+01  0.10926E+06
 0.55000000E+01  0.10915E+06
 0.55500002E+01  0.10624E+06
 0.56000004E+01  0.10042E+06
 0.56500006E+01  0.92588E+05
 0.56999998E+01  0.83476E+05
 0.57500000E+01  0.74125E+05
 0.58000002E+01  0.65066E+05
 0.58500004E+01  0.55750E+05
 0.59000006E+01  0.46044E+05
 0.59499998E+01  0.35917E+05
 0.60000000E+01  0.25472E+05
 0.60500002E+01  0.15693E+05
 0.61000004E+01  0.64260E+04
 0.61500006E+01 -0.31440E+04
 0.61999998E+01 -0.12608E+05
 0.62500000E+01 -0.21268E+05
 0.63000002E+01 -0.28746E+05
 0.63500004E+01 -0.34061E+05
 0.64000006E+01 -0.36255E+05
 0.64499998E+01 -0.36157E+05
 0.65000000E+01 -0.33946E+05
 0.65500002E+01 -0.29545E+05
 0.66000004E+01 -0.23032E+05
 0.66500006E+01 -0.14250E+05
 0.66999998E+01 -0.38100E+04
 0.67500000E+01  0.81000E+04
 0.68000002E+01  0.20887E+05
 0.68500004E+01  0.34039E+05
 0.69000006E+01  0.46727E+05
 0.69499998E+01  0.59523E+05
 0.70000000E+01  0.72974E+05
 0.70500002E+01  0.86519E+05
 0.71000004E+01  0.10007E+06
 0.71500006E+01  0.11271E+06
 0.71999998E+01  0.12419E+06
 0.72500000E+01  0.13394E+06
 0.73000002E+01  0.14170E+06
 0.73500004E+01  0.14610E+06
 0.74000006E+01  0.14714E+06
 0.74499998E+01  0.14477E+06
 0.75000000E+01  0.13812E+06
 0.75500002E+01  0.12765E+06
 0.76000004E+01  0.11265E+06
 0.76500006E+01  0.93719E+05
 0.76999998E+01  0.71116E+05
 0.77500000E+01  0.46747E+05
 0.78000002E+01  0.20766E+05
 0.78500004E+01 -0.56010E+04
 0.79000006E+01 -0.30910E+05
 0.79499998E+01 -0.55559E+05
 0.80000000E+01 -0.77934E+05
 0.80500002E+01 -0.98620E+05
 0.81000004E+01 -0.11639E+06
 0.81500006E+01 -0.13192E+06
 0.81999998E+01 -0.14528E+06
 0.82500000E+01 -0.15665E+06
 0.83000002E+01 -0.16596E+06
 0.83500004E+01 -0.17288E+06
 0.84000006E+01 -0.17948E+06
 0.84499998E+01 -0.18400E+06
 0.85000000E+01 -0.18579E+06
 0.85500002E+01 -0.18484E+06
 0.86000004E+01 -0.18171E+06
 0.86500006E+01 -0.17548E+06
 0.86999998E+01 -0.16640E+06
 0.87500000E+01 -0.15586E+06
 0.88000002E+01 -0.14370E+06
 0.88500004E+01 -0.13147E+06
 0.89000006E+01 -0.11891E+06
 0.89499998E+01 -0.10634E+06
 0.90000000E+01 -0.93830E+05
 0.90500002E+01 -0.81512E+05
 0.91000004E+01 -0.68812E+05
 0.91500006E+01 -0.55676E+05
 0.91999998E+01 -0.42670E+05
 0.92500000E+01 -0.28361E+05
 0.93000002E+01 -0.13541E+05
 0.93500004E+01  0.20220E+04
 0.94000006E+01  0.17904E+05
 0.94499998E+01  0.33809E+05
 0.95000000E+01  0.49652E+05
 0.95500002E+01  0.64323E+05
 0.96000004E+01  0.78707E+05
 0.96500006E+01  0.92016E+05
 0.96999998E+01  0.10435E+06
 0.97500000E+01  0.11586E+06
 0.98000002E+01  0.12625E+06
 0.98500004E+01  0.13643E+06
 0.99000006E+01  0.14629E+06
 0.99499998E+01  0.15531E+06
 0.10000000E+02  0.16336E+06
 0.10050000E+02  0.17060E+06
 0.10100000E+02  0.17620E+06
 0.10150001E+02  0.18014E+06
 0.10200000E+02  0.18247E+06
 0.10250000E+02  0.18372E+06
 0.10300000E+02  0.18454E+06
 0.10350000E+02  0.18402E+06
 0.10400001E+02  0.18190E+06
 0.10450000E+02  0.17788E+06
 0.10500000E+02  0.17158E+06
 0.10550000E+02  0.16254E+06
 0.10600000E+02  0.15096E+06
 0.10650001E+02  0.13732E+06
 0.10700000E+02  0.12178E+06
 0.10750000E+02  0.10503E+06
 0.10800000E+02  0.87181E+05
 0.10850000E+02  0.68864E+05
 0.10900001E+02  0.50999E+05
 0.10950000E+02  0.33749E+05
 0.11000000E+02  0.17831E+05
 0.11050000E+02  0.32870E+04
 0.11100000E+02 -0.10530E+05
 0.11150001E+02 -0.24010E+05
 0.11200000E+02 -0.37532E+05
 0.11250000E+02 -0.51137E+05
 0.11300000E+02 -0.64599E+05
 0.11350000E+02 -0.77517E+05
 0.11400001E+02 -0.89605E+05
 0.11450000E+02 -0.10039E+06
 0.11500000E+02 -0.10946E+06
 0.11550000E+02 -0.11631E+06
 0.11600000E+02 -0.12079E+06
 0.11650001E+02 -0.12346E+06
 0.11700000E+02 -0.12415E+06
 0.11750000E+02 -0.12333E+06
 0.11800000E+02 -0.12138E+06
 0.11850000E+02 -0.11881E+06
 0.11900001E+02 -0.11594E+06
 0.11950000E+02 -0.11256E+06
 0.12000000E+02 -0.10906E+06
 0.12050000E+02 -0.10560E+06
 0.12100000E+02 -0.10316E+06
 0.12150001E+02 -0.10108E+06
 0.12200000E+02 -0.98874E+05
 0.12250000E+02 -0.96962E+05
 0.12300000E+02 -0.95055E+05
 0.12350000E+02 -0.93914E+05
 0.12400001E+02 -0.93263E+05
 0.12450000E+02 -0.92689E+05
 0.12500000E+02 -0.91063E+05
 0.12550000E+02 -0.87781E+05
 0.12600000E+02 -0.83091E+05
 0.12650001E+02 -0.76649E+05
 0.12700000E+02 -0.69284E+05
 0.12750000E+02 -0.61504E+05
 0.12800000E+02 -0.53122E+05
 0.12850000E+02 -0.43984E+05
 0.12900001E+02 -0.33976E+05
 0.12950000E+02 -0.22779E+05
 0.13000000E+02 -0.10747E+05
 0.13050001E+02  0.12690E+04
 0.13100000E+02  0.13314E+05
 0.13150000E+02  0.25355E+05
 0.13200001E+02  0.37258E+05
 0.13250000E+02  0.48914E+05
 0.13300001E+02  0.59788E+05
 0.13350000E+02  0.69131E+05
 0.13400000E+02  0.76597E+05
 0.13450001E+02  0.82947E+05
 0.13500000E+02  0.87983E+05
 0.13550001E+02  0.91568E+05
 0.13600000E+02  0.94337E+05
 0.13650000E+02  0.95732E+05
 0.13700001E+02  0.96078E+05
 0.13750000E+02  0.95205E+05
 0.13800001E+02  0.92485E+05
 0.13850000E+02  0.88257E+05
 0.13900000E+02  0.82741E+05
 0.13950001E+02  0.75838E+05
 0.14000000E+02  0.67260E+05
 0.14050001E+02  0.57315E+05
 0.14100000E+02  0.46333E+05
 0.14150000E+02  0.35123E+05
 0.14200001E+02  0.24096E+05
 0.14250000E+02  0.13742E+05
 0.14300001E+02  0.47650E+04
 0.14350000E+02 -0.28140E+04
 0.14400000E+02 -0.90480E+04
 0.14450001E+02 -0.14190E+05
 0.14500000E+02 -0.17664E+05
 0.14550001E+02 -0.19660E+05
 0.14600000E+02 -0.20725E+05
 0.14650000E+02 -0.20667E+05
 0.14700001E+02 -0.19123E+05
 0.14750000E+02 -0.16045E+05
 0.14800001E+02 -0.11875E+05
 0.14850000E+02 -0.64510E+04
 0.14900000E+02 -0.10200E+03
 0.14950001E+02  0.71010E+04
 0.15000000E+02  0.15169E+05
 0.15050001E+02  0.23674E+05
 0.15100000E+02  0.32595E+05
 0.15150000E+02  0.41665E+05
 0.15200001E+02  0.51004E+05
 0.15250000E+02  0.60444E+05
 0.15300001E+02  0.68904E+05
 0.15350000E+02  0.75722E+05
 0.15400000E+02  0.80712E+05
 0.15450001E+02  0.83704E+05
 0.15500000E+02  0.84647E+05
 0.15550001E+02  0.83070E+05
 0.15600000E+02  0.79175E+05
 0.15650000E+02  0.72988E+05
 0.15700001E+02  0.64177E+05
 0.15750000E+02  0.53141E+05
 0.15800001E+02  0.39527E+05
 0.15850000E+02  0.23860E+05
 0.15900000E+02  0.69610E+04
 0.15950001E+02 -0.10540E+05
 0.16000000E+02 -0.28262E+05
 0.16050001E+02 -0.46103E+05
 0.16100000E+02 -0.63685E+05
 0.16150000E+02 -0.81454E+05
 0.16200001E+02 -0.98496E+05
 0.16250000E+02 -0.11386E+06
 0.16300001E+02 -0.12710E+06
 0.16350000E+02 -0.13727E+06
 0.16400000E+02 -0.14464E+06
 0.16450001E+02 -0.14946E+06
 0.16500000E+02 -0.15200E+06
 0.16550001E+02 -0.15265E+06
 0.16600000E+02 -0.15120E+06
 0.16650000E+02 -0.14777E+06
 0.16700001E+02 -0.14252E+06
 0.16750000E+02 -0.13617E+06
 0.16800001E+02 -0.12915E+06
 0.16850000E+02 -0.12251E+06
 0.16900000E+02 -0.11650E+06
 0.16950001E+02 -0.10994E+06
 0.17000000E+02 -0.10297E+06
 0.17050001E+02 -0.94427E+05
 0.17100000E+02 -0.84301E+05
 0.17150000E+02 -0.73292E+05
 0.17200001E+02 -0.61417E+05
 0.17250000E+02 -0.49057E+05
 0.17300001E+02 -0.36306E+05
 0.17350000E+02 -0.23461E+05
 0.17400000E+02 -0.10510E+05
 0.17450001E+02  0.16010E+04
 0.17500000E+02  0.12380E+05
 0.17550001E+02  0.22128E+05
 0.17600000E+02  0.31438E+05
 0.17650000E+02  0.40644E+05
 0.17700001E+02  0.50302E+05
 0.17750000E+02  0.60417E+05
 0.17800001E+02  0.70496E+05
 0.17850000E+02  0.80769E+05
 0.17900000E+02  0.90952E+05
 0.17950001E+02  0.10077E+06
 0.18000000E+02  0.10970E+06
 0.18050001E+02  0.11760E+06
 0.18100000E+02  0.12390E+06
 0.18150000E+02  0.12848E+06
 0.18200001E+02  0.13108E+06
 0.18250000E+02  0.13147E+06
 0.18300001E+02  0.12986E+06
 0.18350000E+02  0.12616E+06
 0.18400000E+02  0.12085E+06
 0.18450001E+02  0.11350E+06
 0.18500000E+02  0.10429E+06
 0.18550001E+02  0.92929E+05
 0.18600000E+02  0.79350E+05
 0.18650000E+02  0.64119E+05
 0.18700001E+02  0.47242E+05
 0.18750000E+02  0.29781E+05
 0.18800001E+02  0.12471E+05
 0.18850000E+02 -0.42840E+04
 0.18900000E+02 -0.19626E+05
 0.18950001E+02 -0.33125E+05
 0.19000000E+02 -0.44520E+05
 0.19050001E+02 -0.53004E+05
 0.19100000E+02 -0.58958E+05
 0.19150000E+02 -0.62937E+05
 0.19200001E+02 -0.65036E+05
 0.19250000E+02 -0.65748E+05
 0.19300001E+02 -0.65193E+05
 0.19350000E+02 -0.63713E+05
 0.19400000E+02 -0.61346E+05
 0.19450001E+02 -0.57794E+05
 0.19500000E+02 -0.53089E+05
 0.19550001E+02 -0.47100E+05
 0.19600000E+02 -0.40250E+05
 0.19650000E+02 -0.32700E+05
 0.19700001E+02 -0.23800E+05
 0.19750000E+02 -0.14228E+05
 0.19800001E+02 -0.45730E+04
 0.19850000E+02  0.48050E+04
 0.19900000E+02  0.13279E+05
 0.19950001E+02  0.21020E+05
 0.20000000E+02  0.27530E+05
 0.20050001E+02  0.32235E+05
 0.20100000E+02  0.34956E+05
 0.20150000E+02  0.36011E+05
 0.20200001E+02  0.35788E+05
 0.20250000E+02  0.34197E+05
 0.20300001E+02  0.31485E+05
 0.20350000E+02  0.27771E+05
 0.20400000E+02  0.23739E+05
 0.20450001E+02  0.19901E+05
 0.20500000E+02  0.16670E+05
 0.20550001E+02  0.14555E+05
 0.20600000E+02  0.13084E+05
 0.20650000E+02  0.12229E+05
 0.20700001E+02  0.12092E+05
 0.20750000E+02  0.12822E+05
 0.20800001E+02  0.14469E+05
 0.20850000E+02  0.17101E+05
 0.20900000E+02  0.20590E+05
 0.20950001E+02  0.24424E+05
 0.21000000E+02  0.28154E+05
 0.21050001E+02  0.31838E+05
 0.21100000E+02  0.35657E+05
 0.21150000E+02  0.40021E+05
 0.21200001E+02  0.45768E+05
 0.21250000E+02  0.53115E+05
 0.21300001E+02  0.62247E+05
 0.21350000E+02  0.69989E+05
 0.21400000E+02  0.75210E+05
 0.21450001E+02  0.77445E+05
 0.21500000E+02  0.79342E+05
 0.21550001E+02  0.82263E+05
 0.21600000E+02  0.87562E+05
 0.21650000E+02  0.89015E+05
 0.21700001E+02  0.80229E+05
 0.21750000E+02  0.71296E+05
 0.21800001E+02  0.60077E+05
 0.21850000E+02  0.58146E+05
 0.21900000E+02  0.53768E+05
 0.21950001E+02  0.31607E+05
 0.22000000E+02  0.96100E+04
 0.22050001E+02 -0.10239E+05
 0.22100000E+02 -0.35121E+05
 0.22150000E+02 -0.63999E+05
 0.22200001E+02 -0.77244E+05
 0.22250000E+02 -0.83771E+05
 0.22300001E+02 -0.98170E+05
 0.22350000E+02 -0.10580E+06
 0.22400000E+02 -0.13039E+06
 0.22450001E+02 -0.13504E+06
 0.22500000E+02 -0.13033E+06
 0.22550001E+02 -0.17232E+06
 0.22600000E+02 -0.15679E+06
 0.22650000E+02 -0.15077E+06
 0.22700001E+02 -0.15947E+06
 0.22750000E+02 -0.15358E+06
 0.22800001E+02 -0.14895E+06
 0.22850000E+02 -0.13809E+06
 0.22900000E+02 -0.15978E+06
 0.22950001E+02 -0.11381E+06
 0.23000000E+02 -0.92010E+05
 0.23050001E+02 -0.80822E+05
 0.23100000E+02 -0.75160E+05
 0.23150000E+02 -0.79200E+05
 0.23200001E+02 -0.60405E+05
 0.23250000E+02 -0.25368E+05
 0.23300001E+02  0.59460E+04
 0.23350000E+02  0.15088E+05
 0.23400000E+02  0.30169E+05
 0.23450001E+02  0.11077E+05
 0.23500000E+02  0.56454E+05
 0.23550001E+02  0.46911E+05
 0.23600000E+02  0.86849E+05
 0.23650000E+02  0.12079E+06
 0.23700001E+02  0.12174E+06
 0.23750000E+02  0.11763E+06
 0.23800001E+02  0.52851E+05
 0.23850000E+02  0.13921E+06
 0.23900000E+02  0.10468E+06
 0.23950001E+02  0.11086E+06
 0.24000000E+02  0.16047E+06
 0.24050001E+02  0.11843E+06
 0.24100000E+02  0.13878E+06
 0.24150000E+02  0.13495E+06
 0.24200001E+02  0.16035E+06
 0.24250000E+02  0.12753E+06
 0.24300001E+02  0.13542E+06
 0.24350000E+02  0.14076E+06
 0.24400000E+02  0.11027E+06
 0.24450001E+02  0.11832E+06
 0.24500000E+02  0.62048E+05
 0.24550001E+02  0.73091E+05
 0.24600000E+02  0.88143E+05
 0.24650000E+02  0.73184E+05
 0.24700001E+02  0.86052E+05
 0.24750000E+02  0.99540E+05
 0.24800001E+02  0.63676E+05
 0.24850000E+02  0.35097E+05
 0.24900000E+02  0.46310E+05
 0.24950001E+02 -0.62597E+05
 0.25000000E+02 -0.67407E+05
 0.25050001E+02  0.30569E+05
 0.25100000E+02  0.22534E+05
 0.25150000E+02 -0.50710E+04
 0.25200001E+02 -0.11174E+05
 0.25250000E+02  0.27013E+05
 0.25300001E+02  0.85740E+04
 0.25350000E+02 -0.42663E+05
 0.25400000E+02 -0.59502E+05
 0.25450001E+02 -0.68014E+05
 0.25500000E+02 -0.78277E+05
 0.25550001E+02 -0.10741E+06
 0.25600000E+02 -0.85178E+05
 0.25650000E+02 -0.13689E+06
 0.25700001E+02 -0.13346E+06
 0.25750000E+02 -0.16432E+05
 0.25800001E+02 -0.59929E+05
 0.25850000E+02 -0.12596E+06
 0.25900000E+02 -0.10314E+06
 0.25950001E+02 -0.14344E+05
 0.26000000E+02 -0.18996E+05
 0.26050001E+02 -0.93758E+05
 0.26100000E+02 -0.71621E+05
 0.26150000E+02 -0.58365E+05
 0.26200001E+02 -0.48520E+05
 0.26250000E+02 -0.62053E+05
 0.26300001E+02 -0.80403E+05
 0.26350000E+02 -0.46688E+05
 0.26400000E+02 -0.26201E+05
 0.26450001E+02 -0.41764E+05
 0.26500000E+02 -0.45841E+05
 0.26550001E+02 -0.64353E+05
 0.26600000E+02 -0.69253E+05
 0.26650000E+02 -0.90390E+04
 0.26700001E+02 -0.29045E+05
 0.26750000E+02 -0.80959E+05
 0.26800001E+02 -0.15986E+05
 0.26850000E+02  0.43523E+05
 0.26900000E+02  0.41820E+05
 0.26950001E+02  0.13701E+05
 0.27000000E+02  0.12647E+05
 0.27050001E+02  0.33263E+05
 0.27100000E+02  0.37709E+05
 0.27150000E+02  0.92848E+05
 0.27200001E+02  0.83688E+05
 0.27250000E+02  0.11138E+06
 0.27300001E+02  0.17255E+06
 0.27350000E+02  0.10572E+06
 0.27400000E+02  0.45831E+05
 0.27450001E+02  0.73073E+05
 0.27500000E+02  0.21510E+06
 0.27550001E+02  0.22468E+06
 0.27600000E+02  0.12884E+06
 0.27650000E+02  0.15824E+06
 0.27700001E+02  0.14098E+06
 0.27750000E+02  0.76278E+05
 0.27800001E+02  0.84210E+05
 0.27850000E+02  0.12774E+06
 0.27900000E+02  0.13594E+06
 0.27950001E+02  0.17001E+06
 0.28000000E+02  0.16120E+06
 0.28050001E+02  0.57278E+05
 0.28100000E+02  0.64852E+05
 0.28150000E+02  0.86118E+05
 0.28200001E+02  0.81248E+05
 0.28250000E+02  0.40079E+05
 0.28300001E+02 -0.29152E+05
 0.28350000E+02  0.23361E+05
 0.28400000E+02 -0.69520E+04
 0.28450001E+02 -0.55233E+05
 0.28500000E+02 -0.91500E+03
 0.28550001E+02 -0.47530E+04
 0.28600000E+02 -0.45795E+05
 0.28650000E+02 -0.57298E+05
 0.28700001E+02 -0.54036E+05
 0.28750000E+02 -0.68098E+05
 0.28800001E+02 -0.69323E+05
 0.28850000E+02 -0.38089E+05
 0.28900000E+02 -0.57245E+05
 0.28950001E+02 -0.13705E+06
 0.29000000E+02 -0.12722E+06
 0.29049999E+02 -0.48993E+05
 0.29100002E+02 -0.22720E+04
 0.29150002E+02  0.24706E+05
 0.29200001E+02 -0.10399E+05
 0.29250000E+02 -0.53512E+05
 0.29299999E+02 -0.48001E+05
 0.29350002E+02 -0.57581E+05
 0.29400002E+02 -0.87982E+05
 0.29450001E+02 -0.10344E+06
 0.29500000E+02 -0.42643E+05
 0.29549999E+02 -0.78590E+04
 0.29600002E+02 -0.24921E+05
 0.29650002E+02  0.88200E+04
 0.29700001E+02  0.15498E+05
 0.29750000E+02  0.30774E+05
 0.29799999E+02  0.65196E+05
 0.29850002E+02  0.10520E+06
 0.29900002E+02  0.95536E+05
 0.29950001E+02 -0.59380E+04
 0.30000000E+02 -0.25924E+05
 0.30049999E+02 -0.32139E+05
 0.30100002E+02 -0.10250E+06
 0.30150002E+02 -0.71220E+05
 0.30200001E+02 -0.84320E+04
 0.30250000E+02  0.18803E+05
 0.30299999E+02  0.80458E+05
 0.30350002E+02  0.86680E+05
 0.30400002E+02  0.48075E+05
 0.30450001E+02 -0.11570E+05
 0.30500000E+02  0.27510E+04
 0.30549999E+02  0.55691E+05
 0.30600002E+02  0.51500E+04
 0.30650002E+02 -0.61861E+05
 0.30700001E+02 -0.78579E+05
 0.30750000E+02 -0.62022E+05
 0.30799999E+02 -0.82054E+05
 0.30850002E+02 -0.73438E+05
 0.30900002E+02 -0.55280E+05
 0.30950001E+02  0.76440E+04
 0.31000000E+02  0.45374E+05
 0.31049999E+02 -0.78310E+04
 0.31100002E+02 -0.58258E+05
 0.31150002E+02 -0.44108E+05
 0.31200001E+02  0.49334E+05
 0.31250000E+02  0.68442E+05
 0.31299999E+02  0.77643E+05
 0.31350002E+02 -0.28957E+05
 0.31400002E+02 -0.17174E+05
 0.31450001E+02  0.39785E+05
 0.31500000E+02 -0.10025E+06
 0.31549999E+02 -0.40659E+05
 0.31600002E+02 -0.17450E+04
 0.31650002E+02 -0.79450E+04
 0.31700001E+02  0.34003E+05
 0.31750000E+02  0.16833E+05
 0.31799999E+02  0.29959E+05
 0.31850002E+02  0.10913E+06
 0.31900002E+02  0.16763E+06
 0.31950001E+02  0.11917E+06
 0.32000000E+02  0.43165E+05
 0.32049999E+02 -0.90450E+04
 0.32100002E+02  0.51022E+05
 0.32150002E+02  0.72472E+05
 0.32200001E+02  0.78893E+05
 0.32250000E+02  0.10524E+06
 0.32299999E+02  0.25429E+05
 0.32350002E+02  0.58950E+04
 0.32400002E+02 -0.47223E+05
 0.32450001E+02 -0.90524E+05
 0.32500000E+02 -0.41613E+05
 0.32549999E+02 -0.45067E+05
 0.32600002E+02 -0.68225E+05
 0.32650002E+02 -0.10310E+06
 0.32700001E+02 -0.14749E+06
 0.32750000E+02 -0.16412E+06
 0.32799999E+02 -0.12568E+06
 0.32850002E+02 -0.79058E+05
 0.32900002E+02 -0.50867E+05
 0.32950001E+02 -0.17825E+05
 0.33000000E+02  0.10049E+05
 0.33049999E+02 -0.43704E+05
 0.33100002E+02 -0.11676E+06
 0.33150002E+02 -0.11961E+06
 0.33200001E+02 -0.74396E+05
 0.33250000E+02  0.42268E+05
 0.33299999E+02  0.47780E+05
 0.33350002E+02 -0.88390E+04
 0.33400002E+02  0.23670E+04
 0.33450001E+02 -0.56613E+05
 0.33500000E+02 -0.68500E+05
 0.33549999E+02  0.73808E+05
 0.33600002E+02  0.21820E+06
 0.33650002E+02  0.29704E+06
 0.33700001E+02  0.24743E+06
 0.33750000E+02  0.15210E+06
 0.33799999E+02  0.13960E+06
 0.33850002E+02  0.93483E+05
 0.33900002E+02  0.15682E+06
 0.33950001E+02  0.20744E+06
 0.34000000E+02  0.38293E+05
 0.34049999E+02 -0.42006E+05
 0.34100002E+02 -0.79041E+05
 0.34150002E+02 -0.18974E+06
 0.34200001E+02 -0.16893E+06
 0.34250000E+02 -0.43625E+05
 0.34299999E+02  0.51690E+05
 0.34350002E+02  0.29002E+05
 0.34400002E+02 -0.30468E+05
 0.34450001E+02 -0.23120E+04
 0.34500000E+02 -0.80480E+05
 0.34549999E+02 -0.15563E+06
 0.34600002E+02 -0.10407E+06
 0.34650002E+02 -0.92193E+05
 0.34700001E+02 -0.11326E+06
 0.34750000E+02 -0.18331E+06
 0.34799999E+02 -0.27739E+06
 0.34850002E+02 -0.27452E+06
 0.34900002E+02 -0.68396E+05
 0.34950001E+02  0.90929E+05
 0.35000000E+02  0.69418E+05
 0.35049999E+02  0.11417E+06
 0.35100002E+02  0.21335E+06
 0.35150002E+02  0.22094E+06
 0.35200001E+02  0.10634E+06
 0.35250000E+02  0.68049E+05
 0.35299999E+02  0.10206E+06
 0.35350002E+02  0.19414E+06
 0.35400002E+02  0.26704E+06
 0.35450001E+02  0.12206E+06
 0.35500000E+02  0.40709E+05
 0.35549999E+02  0.11831E+06
 0.35600002E+02  0.20701E+06
 0.35650002E+02  0.10828E+06
 0.35700001E+02 -0.39628E+05
 0.35750000E+02  0.21695E+05
 0.35799999E+02  0.22889E+05
 0.35850002E+02 -0.66514E+05
 0.35900002E+02 -0.21979E+06
 0.35950001E+02 -0.47117E+06
 0.36000000E+02 -0.53449E+06
 0.36049999E+02 -0.29690E+06
 0.36100002E+02 -0.52950E+04
 0.36150002E+02  0.15636E+06
 0.36200001E+02  0.61828E+05
 0.36250000E+02 -0.34203E+06
 0.36299999E+02 -0.63284E+06
 0.36350002E+02 -0.11439E+07
 0.36400002E+02 -0.24593E+07
 0.36450001E+02 -0.40084E+07
 0.36500000E+02 -0.44831E+07
 0.36549999E+02 -0.23421E+07
 0.36600002E+02  0.36318E+06
 0.36650002E+02 -0.98078E+05
 0.36700001E+02 -0.22719E+07
 0.36750000E+02 -0.21326E+07
 0.36799999E+02  0.37460E+06
 0.36850002E+02  0.27473E+07
 0.36900002E+02  0.29000E+07
 0.36950001E+02  0.56461E+05
 0.37000000E+02 -0.26723E+07
 0.37049999E+02 -0.34293E+07
 0.37100002E+02 -0.30136E+07
 0.37150002E+02 -0.22799E+07
 0.37200001E+02 -0.14864E+07
 0.37250000E+02  0.36660E+06
 0.37299999E+02  0.14137E+07
 0.37350002E+02  0.75335E+06
 0.37400002E+02  0.44524E+06
 0.37450001E+02  0.14217E+07
 0.37500000E+02  0.27340E+07
 0.37549999E+02  0.38847E+07
 0.37600002E+02  0.36278E+07
 0.37650002E+02  0.10004E+07
 0.37700001E+02 -0.64491E+06
 0.37750000E+02 -0.98864E+06
 0.37799999E+02 -0.99883E+06
 0.37850002E+02 -0.17070E+06
 0.37900002E+02  0.40504E+06
 0.37950001E+02  0.61912E+06
 0.38000000E+02  0.57136E+06
 0.38049999E+02  0.11116E+07
 0.38100002E+02  0.17943E+07
 0.38150002E+02  0.88892E+06
 0.38200001E+02 -0.14412E+06
 0.38250000E+02  0.37394E+06
 0.38299999E+02  0.89396E+06
 0.38350002E+02  0.59386E+06
 0.38400002E+02  0.42258E+06
 0.38450001E+02 -0.35056E+06
 0.38500000E+02 -0.15916E+07
 0.38549999E+02 -0.13921E+07
 0.38600002E+02 -0.30621E+06
 0.38650002E+02 -0.30578E+06
 0.38700001E+02 -0.80447E+06
 0.38750000E+02 -0.28683E+06
 0.38799999E+02  0.24516E+06
 0.38850002E+02 -0.36930E+06
 0.38900002E+02 -0.79386E+06
 0.38950001E+02 -0.42493E+06
 0.39000000E+02 -0.12198E+06
 0.39049999E+02  0.13399E+06
 0.39100002E+02  0.70925E+05
 0.39150002E+02 -0.71813E+06
 0.39200001E+02 -0.10783E+07
 0.39250000E+02 -0.32788E+06
 0.39299999E+02  0.41654E+05
 0.39350002E+02 -0.61679E+06
 0.39400002E+02 -0.98284E+06
 0.39450001E+02 -0.67247E+06
 0.39500000E+02 -0.27197E+06
 0.39549999E+02  0.31359E+06
 0.39600002E+02  0.12516E+07
 0.39650002E+02  0.20648E+07
 0.39700001E+02  0.22454E+07
 0.39750000E+02  0.21935E+07
 0.39799999E+02  0.21253E+07
 0.39850002E+02  0.17808E+07
 0.39900002E+02  0.15540E+07
 0.39950001E+02  0.13285E+07
 0.40000000E+02  0.13292E+07
 0.40049999E+02  0.21243E+07
 0.40100002E+02  0.23520E+07
 0.40150002E+02  0.81875E+06
 0.40200001E+02 -0.84297E+06
 0.40250000E+02 -0.10509E+07
 0.40299999E+02 -0.11220E+06
 0.40350002E+02  0.99296E+06
 0.40400002E+02  0.10942E+07
 0.40450001E+02  0.11569E+07
 0.40500000E+02  0.12311E+07
 0.40549999E+02  0.69030E+06
 0.40600002E+02  0.33018E+06
 0.40650002E+02 -0.74920E+06
 0.40700001E+02 -0.13962E+07
 0.40750000E+02 -0.63900E+06
 0.40799999E+02 -0.30319E+06
 0.40850002E+02 -0.16449E+07
 0.40900002E+02 -0.35191E+07
 0.40950001E+02 -0.38807E+07
 0.41000000E+02 -0.30321E+07
 0.41049999E+02 -0.19856E+07
 0.41100002E+02 -0.18757E+07
 0.41150002E+02 -0.13767E+07
 0.41200001E+02 -0.34079E+06
 0.41250000E+02 -0.40547E+06
 0.41299999E+02 -0.68695E+06
 0.41350002E+02 -0.15409E+07
 0.41400002E+02 -0.21269E+07
 0.41450001E+02 -0.17364E+07
 0.41500000E+02 -0.12182E+07
 0.41549999E+02 -0.78162E+06
 0.41600002E+02 -0.41254E+06
 0.41650002E+02  0.14062E+06
 0.41700001E+02  0.12630E+06
 0.41750000E+02 -0.12863E+06
 0.41799999E+02 -0.47436E+06
 0.41850002E+02 -0.57022E+06
 0.41900002E+02 -0.75990E+04
 0.41950001E+02  0.71001E+05
 0.42000000E+02  0.27898E+05
 0.42049999E+02 -0.37385E+06
 0.42100002E+02 -0.10695E+07
 0.42150002E+02 -0.11236E+07
 0.42200001E+02 -0.62078E+06
 0.42250000E+02  0.26410E+06
 0.42299999E+02  0.56109E+06
 0.42350002E+02  0.23286E+06
 0.42400002E+02 -0.31740E+06
 0.42450001E+02 -0.81715E+06
 0.42500000E+02 -0.11167E+07
 0.42549999E+02 -0.13494E+07
 0.42600002E+02 -0.99517E+06
 0.42650002E+02 -0.44156E+06
 0.42700001E+02  0.13754E+06
 0.42750000E+02  0.42759E+06
 0.42799999E+02  0.58233E+05
 0.42850002E+02 -0.84539E+05
 0.42900002E+02  0.66470E+05
 0.42950001E+02  0.24380E+05
 0.43000000E+02 -0.10046E+06
 0.43049999E+02  0.15426E+06
 0.43100002E+02  0.51698E+06
 0.43150002E+02  0.66503E+06
 0.43200001E+02  0.72273E+06
 0.43250000E+02  0.64796E+06
 0.43299999E+02  0.10649E+07
 0.43350002E+02  0.20045E+07
 0.43400002E+02  0.29011E+07
 0.43450001E+02  0.34052E+07
 0.43500000E+02  0.32250E+07
 0.43549999E+02  0.29382E+07
 0.43600002E+02  0.28882E+07
 0.43650002E+02  0.27016E+07
 0.43700001E+02  0.23616E+07
 0.43750000E+02  0.20523E+07
 0.43799999E+02  0.16872E+07
 0.43850002E+02  0.17237E+07
 0.43900002E+02  0.24245E+07
 0.43950001E+02  0.29051E+07
 0.44000000E+02  0.29427E+07
 0.44049999E+02  0.28566E+07
 0.44100002E+02  0.27609E+07
 0.44150002E+02  0.27154E+07
 0.44200001E+02  0.26997E+07
 0.44250000E+02  0.26763E+07
 0.44299999E+02  0.24988E+07
 0.44350002E+02  0.19333E+07
 0.44400002E+02  0.84739E+06
 0.44450001E+02 -0.16950E+05
 0.44500000E+02 -0.34289E+06
 0.44549999E+02 -0.37394E+06
 0.44600002E+02 -0.41522E+05
 0.44650002E+02 -0.41930E+05
 0.44700001E+02 -0.61161E+06
 0.44750000E+02 -0.10930E+07
 0.44799999E+02 -0.13277E+07
 0.44850002E+02 -0.14020E+07
 0.44900002E+02 -0.14185E+07
 0.44950001E+02 -0.15608E+07
 0.45000000E+02 -0.14860E+07
 0.45049999E+02 -0.12215E+07
 0.45100002E+02 -0.11311E+07
 0.45150002E+02 -0.99529E+06
 0.45200001E+02 -0.11751E+07
 0.45250000E+02 -0.16185E+07
 0.45299999E+02 -0.17177E+07
 0.45350002E+02 -0.16083E+07
 0.45400002E+02 -0.14893E+07
 0.45450001E+02 -0.13480E+07
 0.45500000E+02 -0.11439E+07
 0.45549999E+02 -0.80998E+06
 0.45600002E+02 -0.23262E+06
 0.45650002E+02  0.28275E+06
 0.45700001E+02  0.59528E+06
 0.45750000E+02  0.84884E+06
 0.45799999E+02  0.97156E+06
 0.45850002E+02  0.10729E+07
 0.45900002E+02  0.10574E+07
 0.45950001E+02  0.95995E+06
 0.46000000E+02  0.10319E+07
 0.46049999E+02  0.11658E+07
 0.46100002E+02  0.12287E+07
 0.46150002E+02  0.10789E+07
 0.46200001E+02  0.73362E+06
 0.46250000E+02  0.45018E+06
 0.46299999E+02  0.22590E+06
 0.46350002E+02  0.65751E+05
 0.46400002E+02  0.67440E+05
 0.46450001E+02  0.12358E+06
 0.46500000E+02  0.23393E+06
 0.46549999E+02  0.37721E+06
 0.46600002E+02  0.25624E+06
 0.46650002E+02  0.39291E+05
 0.46700001E+02 -0.10756E+06
 0.46750000E+02 -0.44858E+06
 0.46799999E+02 -0.69666E+06
 0.46850002E+02 -0.71974E+06
 0.46900002E+02 -0.88228E+06
 0.46950001E+02 -0.12206E+07
 0.47000000E+02 -0.12412E+07
 0.47049999E+02 -0.85317E+06
 0.47100002E+02 -0.35650E+06
 0.47150002E+02  0.23199E+06
 0.47200001E+02  0.49970E+06
 0.47250000E+02  0.31287E+06
 0.47299999E+02 -0.53652E+05
 0.47350002E+02 -0.47636E+06
 0.47400002E+02 -0.83299E+06
 0.47450001E+02 -0.10442E+07
 0.47500000E+02 -0.10265E+07
 0.47549999E+02 -0.85256E+06
 0.47600002E+02 -0.75249E+06
 0.47650002E+02 -0.68872E+06
 0.47700001E+02 -0.55897E+06
 0.47750000E+02 -0.46439E+06
 0.47799999E+02 -0.26322E+06
 0.47850002E+02 -0.28094E+05
 0.47900002E+02  0.11436E+06
 0.47950001E+02  0.14892E+06
 0.48000000E+02  0.34066E+05
 0.48049999E+02 -0.17120E+06
 0.48100002E+02 -0.40370E+06
 0.48150002E+02 -0.50071E+06
 0.48200001E+02 -0.40596E+06
 0.48250000E+02 -0.12137E+06
 0.48299999E+02  0.14458E+06
 0.48350002E+02  0.44374E+06
 0.48400002E+02  0.79855E+06
 0.48450001E+02  0.95059E+06
 0.48500000E+02  0.10138E+07
 0.48549999E+02  0.12591E+07
 0.48600002E+02  0.16332E+07
 0.48650002E+02  0.17024E+07
 0.48700001E+02  0.16788E+07
 0.48750000E+02  0.17955E+07
 0.48799999E+02  0.18773E+07
 0.48850002E+02  0.20048E+07
 0.48900002E+02  0.19958E+07
 0.48950001E+02  0.17705E+07
 0.49000000E+02  0.15219E+07
 0.49049999E+02  0.13031E+07
 0.49100002E+02  0.12466E+07
 0.49150002E+02  0.12237E+07
 0.49200001E+02  0.10500E+07
 0.49250000E+02  0.91945E+06
 0.49299999E+02  0.58591E+06
 0.49350002E+02  0.11353E+06
 0.49400002E+02 -0.64929E+05
 0.49450001E+02 -0.33249E+06
 0.49500000E+02 -0.73427E+06
 0.49549999E+02 -0.10355E+07
 0.49600002E+02 -0.14865E+07
 0.49650002E+02 -0.18567E+07
 0.49700001E+02 -0.19708E+07
 0.49750000E+02 -0.21140E+07
 0.49799999E+02 -0.21437E+07
 0.49850002E+02 -0.20173E+07
 0.49900002E+02 -0.18949E+07
 0.49950001E+02 -0.19479E+07
 0.50000000E+02 -0.22834E+07
 0.50049999E+02 -0.25088E+07
 0.50100002E+02 -0.25412E+07
 0.50150002E+02 -0.25771E+07
 0.50200001E+02 -0.25439E+07
 0.50250000E+02 -0.25206E+07
 0.50299999E+02 -0.24802E+07
 0.50350002E+02 -0.22726E+07
 0.50400002E+02 -0.19975E+07
 0.50450001E+02 -0.15952E+07
 0.50500000E+02 -0.91493E+06
 0.50549999E+02 -0.15452E+06
 0.50600002E+02  0.32118E+06
 0.50650002E+02  0.36930E+06
 0.50700001E+02  0.23270E+06
 0.50750000E+02  0.29780E+06
 0.50799999E+02  0.44477E+06
 0.50850002E+02  0.37584E+06
 0.50900002E+02  0.19779E+06
 0.50950001E+02 -0.53952E+05
 0.51000000E+02 -0.32576E+06
 0.51049999E+02 -0.59796E+06
 0.51100002E+02 -0.75214E+06
 0.51150002E+02 -0.58269E+06
 0.51200001E+02 -0.20828E+06
 0.51250000E+02  0.13614E+06
 0.51299999E+02  0.27223E+06
 0.51350002E+02  0.24498E+06
 0.51400002E+02  0.12266E+06
 0.51450001E+02  0.32829E+05
 0.51500000E+02 -0.16397E+06
 0.51549999E+02 -0.47968E+06
 0.51600002E+02 -0.73652E+06
 0.51650002E+02 -0.10149E+07
 0.51700001E+02 -0.12871E+07
 0.51750000E+02 -0.17255E+07
 0.51799999E+02 -0.21965E+07
 0.51850002E+02 -0.24358E+07
 0.51900002E+02 -0.23958E+07
 0.51950001E+02 -0.21062E+07
 0.52000000E+02 -0.16498E+07
 0.52049999E+02 -0.11111E+07
 0.52100002E+02 -0.74564E+06
 0.52150002E+02 -0.50554E+06
 0.52200001E+02 -0.24740E+06
 0.52250000E+02 -0.41926E+05
 0.52299999E+02 -0.25030E+05
 0.52350002E+02 -0.13390E+06
 0.52400002E+02 -0.25621E+06
 0.52450001E+02 -0.35518E+06
 0.52500000E+02 -0.39523E+06
 0.52549999E+02 -0.29389E+06
 0.52600002E+02  0.50189E+05
 0.52650002E+02  0.38826E+06
 0.52700001E+02  0.65175E+06
 0.52750000E+02  0.93663E+06
 0.52799999E+02  0.11361E+07
 0.52850002E+02  0.12748E+07
 0.52900002E+02  0.14782E+07
 0.52950001E+02  0.16192E+07
 0.53000000E+02  0.15761E+07
 0.53049999E+02  0.15556E+07
 0.53100002E+02  0.15326E+07
 0.53150002E+02  0.13650E+07
 0.53200001E+02  0.11398E+07
 0.53250000E+02  0.98340E+06
 0.53299999E+02  0.86154E+06
 0.53350002E+02  0.77292E+06
 0.53400002E+02  0.85762E+06
 0.53450001E+02  0.10311E+07
 0.53500000E+02  0.12050E+07
 0.53549999E+02  0.12551E+07
 0.53600002E+02  0.10451E+07
 0.53650002E+02  0.70437E+06
 0.53700001E+02  0.37668E+06
 0.53750000E+02  0.40515E+05
 0.53799999E+02 -0.25137E+06
 0.53850002E+02 -0.36201E+06
 0.53900002E+02 -0.42399E+06
 0.53950001E+02 -0.59599E+06
 0.54000000E+02 -0.85563E+06
 0.54049999E+02 -0.10263E+07
 0.54100002E+02 -0.10239E+07
 0.54150002E+02 -0.97281E+06
 0.54200001E+02 -0.92029E+06
 0.54250000E+02 -0.89364E+06
 0.54299999E+02 -0.10406E+07
 0.54350002E+02 -0.13110E+07
 0.54400002E+02 -0.15635E+07
 0.54450001E+02 -0.16768E+07
 0.54500000E+02 -0.13369E+07
 0.54549999E+02 -0.67755E+06
 0.54600002E+02  0.74684E+05
 0.54650002E+02  0.74599E+06
 0.54700001E+02  0.10960E+07
 0.54750000E+02  0.11429E+07
 0.54799999E+02  0.87964E+06
 0.54850002E+02  0.58260E+06
 0.54900002E+02  0.51321E+06
 0.54950001E+02  0.71969E+06
 0.55000000E+02  0.10987E+07
 0.55049999E+02  0.14103E+07
 0.55100002E+02  0.15623E+07
 0.55150002E+02  0.16264E+07
 0.55200001E+02  0.16778E+07
 0.55250000E+02  0.16319E+07
 0.55299999E+02  0.16630E+07
 0.55350002E+02  0.18720E+07
 0.55400002E+02  0.20378E+07
 0.55450001E+02  0.20688E+07
 0.55500000E+02  0.19646E+07
 0.55549999E+02  0.17752E+07
 0.55600002E+02  0.15314E+07
 0.55650002E+02  0.12857E+07
 0.55700001E+02  0.10342E+07
 0.55750000E+02  0.66312E+06
 0.55799999E+02  0.23678E+06
 0.55850002E+02 -0.18387E+06
 0.55900002E+02 -0.65492E+06
 0.55950001E+02 -0.11834E+07
 0.56000000E+02 -0.16734E+07
 0.56049999E+02 -0.19669E+07
 0.56100002E+02 -0.19986E+07
 0.56150002E+02 -0.17500E+07
 0.56200001E+02 -0.13647E+07
 0.56250000E+02 -0.93282E+06
 0.56299999E+02 -0.40395E+06
 0.56350002E+02  0.11150E+06
 0.56400002E+02  0.51632E+06
 0.56450001E+02  0.74216E+06
 0.56500000E+02  0.76797E+06
 0.56549999E+02  0.56816E+06
 0.56600002E+02  0.24878E+06
 0.56650002E+02 -0.32006E+05
 0.56700001E+02 -0.26392E+06
 0.56750000E+02 -0.29105E+06
 0.56799999E+02 -0.29493E+05
 0.56850002E+02  0.53712E+06
 0.56900002E+02  0.13213E+07
 0.56950001E+02  0.21429E+07
 0.57000000E+02  0.29025E+07
 0.57049999E+02  0.34940E+07
 0.57100002E+02  0.37822E+07
 0.57150002E+02  0.36167E+07
 0.57200001E+02  0.30492E+07
 0.57250000E+02  0.21455E+07
 0.57299999E+02  0.11875E+07
 0.57350002E+02  0.44129E+06
 0.57400002E+02 -0.12893E+06
 0.57450001E+02 -0.40136E+06
 0.57500000E+02 -0.32078E+06
 0.57549999E+02  0.28421E+05
 0.57600002E+02  0.51834E+06
 0.57650002E+02  0.11191E+07
 0.57700001E+02  0.15961E+07
 0.57750000E+02  0.16257E+07
 0.57799999E+02  0.12271E+07
 0.57850002E+02  0.48398E+06
 0.57900002E+02 -0.34124E+06
 0.57950001E+02 -0.10410E+07
 0.58000000E+02 -0.15668E+07
 0.58049999E+02 -0.19009E+07
 0.58100002E+02 -0.20782E+07
 0.58150002E+02 -0.21084E+07
 0.58200001E+02 -0.19481E+07
 0.58250000E+02 -0.15397E+07
 0.58299999E+02 -0.94159E+06
 0.58350002E+02 -0.20648E+06
 0.58400002E+02  0.41508E+06
 0.58450001E+02  0.75533E+06
 0.58500000E+02  0.82875E+06
 0.58549999E+02  0.59640E+06
 0.58600002E+02  0.27876E+06
 0.58650002E+02 -0.23665E+05
 0.58700001E+02 -0.27647E+06
 0.58750000E+02 -0.34663E+06
 0.58799999E+02 -0.28780E+06
 0.58850002E+02 -0.21957E+06
 0.58900002E+02 -0.16398E+06
 0.58950001E+02 -0.58731E+05
 0.59000000E+02  0.12595E+06
 0.59049999E+02  0.35906E+06
 0.59100002E+02  0.53809E+06
 0.59150002E+02  0.69024E+06
 0.59200001E+02  0.74980E+06
 0.59250000E+02  0.52017E+06
 0.59299999E+02  0.96613E+05
 0.59350002E+02 -0.43563E+06
 0.59400002E+02 -0.99532E+06
 0.59450001E+02 -0.14209E+07
 0.59500000E+02 -0.17533E+07
 0.59549999E+02 -0.20446E+07
 0.59600002E+02 -0.23497E+07
 0.59650002E+02 -0.26378E+07
 0.59700001E+02 -0.27293E+07
 0.59750000E+02 -0.27262E+07
 0.59799999E+02 -0.27669E+07
 0.59850002E+02 -0.28011E+07
 0.59900002E+02 -0.29305E+07
 0.59950001E+02 -0.32355E+07
 0.60000000E+02 -0.35356E+07
 0.60049999E+02 -0.37320E+07
 0.60100002E+02 -0.37867E+07
 0.60150002E+02 -0.35964E+07
 0.60200001E+02 -0.32186E+07
 0.60250000E+02 -0.26860E+07
 0.60299999E+02 -0.20689E+07
 0.60350002E+02 -0.14354E+07
 0.60400002E+02 -0.82987E+06
 0.60450001E+02 -0.44260E+06
 0.60500000E+02 -0.24141E+06
 0.60549999E+02 -0.11766E+06
 0.60600002E+02 -0.19617E+05
 0.60650002E+02  0.12866E+06
 0.60700001E+02  0.33966E+06
 0.60750000E+02  0.67860E+06
 0.60799999E+02  0.11754E+07
 0.60850002E+02  0.17410E+07
 0.60900002E+02  0.22603E+07
 0.60950001E+02  0.26807E+07
 0.61000000E+02  0.29625E+07
 0.61050003E+02  0.31070E+07
 0.61099998E+02  0.31180E+07
 0.61150002E+02  0.29370E+07
 0.61200005E+02  0.25742E+07
 0.61250000E+02  0.20572E+07
 0.61300003E+02  0.15063E+07
 0.61349998E+02  0.10350E+07
 0.61400002E+02  0.61786E+06
 0.61450005E+02  0.30140E+06
 0.61500000E+02  0.44345E+05
 0.61550003E+02 -0.21664E+06
 0.61599998E+02 -0.47413E+06
 0.61650002E+02 -0.81452E+06
 0.61700005E+02 -0.11834E+07
 0.61750000E+02 -0.14209E+07
 0.61800003E+02 -0.14792E+07
 0.61849998E+02 -0.14371E+07
 0.61900002E+02 -0.14285E+07
 0.61950005E+02 -0.15755E+07
 0.62000000E+02 -0.18910E+07
 0.62050003E+02 -0.22426E+07
 0.62099998E+02 -0.25383E+07
 0.62150002E+02 -0.27030E+07
 0.62200005E+02 -0.26323E+07
 0.62250000E+02 -0.23240E+07
 0.62300003E+02 -0.19284E+07
 0.62349998E+02 -0.15544E+07
 0.62400002E+02 -0.12411E+07
 0.62450005E+02 -0.10172E+07
 0.62500000E+02 -0.80675E+06
 0.62550003E+02 -0.62680E+06
 0.62599998E+02 -0.52121E+06
 0.62650002E+02 -0.46801E+06
 0.62700005E+02 -0.47262E+06
 0.62750000E+02 -0.47115E+06
 0.62800003E+02 -0.37804E+06
 0.62849998E+02 -0.10158E+06
 0.62900002E+02  0.35830E+06
 0.62950005E+02  0.90064E+06
 0.63000000E+02  0.14664E+07
 0.63050003E+02  0.20042E+07
 0.63099998E+02  0.24448E+07
 0.63150002E+02  0.27242E+07
 0.63200005E+02  0.28514E+07
 0.63250000E+02  0.27898E+07
 0.63300003E+02  0.25114E+07
 0.63349998E+02  0.21515E+07
 0.63400002E+02  0.18018E+07
 0.63450005E+02  0.14977E+07
 0.63500000E+02  0.13343E+07
 0.63550003E+02  0.13535E+07
 0.63599998E+02  0.14594E+07
 0.63650002E+02  0.15582E+07
 0.63700005E+02  0.16289E+07
 0.63750000E+02  0.16486E+07
 0.63800003E+02  0.15809E+07
 0.63849998E+02  0.14111E+07
 0.63900002E+02  0.11619E+07
 0.63950005E+02  0.88949E+06
 0.64000000E+02  0.61472E+06
 0.64050003E+02  0.34181E+06
 0.64099998E+02  0.11598E+06
 0.64150002E+02 -0.47558E+05
 0.64200005E+02 -0.47277E+05
 0.64250000E+02  0.14330E+06
 0.64300003E+02  0.36481E+06
 0.64349998E+02  0.54420E+06
 0.64400002E+02  0.69486E+06
 0.64450005E+02  0.78513E+06
 0.64500000E+02  0.75843E+06
 0.64550003E+02  0.74151E+06
 0.64599998E+02  0.82936E+06
 0.64650002E+02  0.99184E+06
 0.64700005E+02  0.12088E+07
 0.64750000E+02  0.13874E+07
 0.64800003E+02  0.14955E+07
 0.64849998E+02  0.15855E+07
 0.64900002E+02  0.17065E+07
 0.64950005E+02  0.18171E+07
 0.65000000E+02  0.18941E+07
 0.65050003E+02  0.19160E+07
 0.65099998E+02  0.18126E+07
 0.65150002E+02  0.16108E+07
 0.65200005E+02  0.13577E+07
 0.65250000E+02  0.11298E+07
 0.65300003E+02  0.97083E+06
 0.65349998E+02  0.84191E+06
 0.65400002E+02  0.69924E+06
 0.65450005E+02  0.51264E+06
 0.65500000E+02  0.31148E+06
 0.65550003E+02  0.18385E+06
 0.65599998E+02  0.15842E+06
 0.65650002E+02  0.15594E+06
 0.65700005E+02  0.11448E+06
 0.65750000E+02 -0.57700E+03
 0.65800003E+02 -0.19914E+06
 0.65849998E+02 -0.43675E+06
 0.65900002E+02 -0.65918E+06
 0.65950005E+02 -0.82237E+06
 0.66000000E+02 -0.85171E+06
 0.66050003E+02 -0.73376E+06
 0.66099998E+02 -0.55712E+06
 0.66150002E+02 -0.38224E+06
 0.66200005E+02 -0.22101E+06
 0.66250000E+02 -0.14189E+05
 0.66300003E+02  0.23006E+06
 0.66349998E+02  0.44747E+06
 0.66400002E+02  0.64702E+06
 0.66450005E+02  0.78166E+06
 0.66500000E+02  0.77382E+06
 0.66550003E+02  0.63022E+06
 0.66599998E+02  0.46203E+06
 0.66650002E+02  0.35444E+06
 0.66700005E+02  0.31955E+06
 0.66750000E+02  0.34983E+06
 0.66800003E+02  0.37394E+06
 0.66849998E+02  0.28109E+06
 0.66900002E+02  0.26649E+05
 0.66950005E+02 -0.30934E+06
 0.67000000E+02 -0.65443E+06
 0.67050003E+02 -0.93795E+06
 0.67099998E+02 -0.10754E+07
 0.67150002E+02 -0.11129E+07
 0.67200005E+02 -0.11021E+07
 0.67250000E+02 -0.10478E+07
 0.67300003E+02 -0.98474E+06
 0.67349998E+02 -0.95814E+06
 0.67400002E+02 -0.10209E+07
 0.67450005E+02 -0.11855E+07
 0.67500000E+02 -0.14272E+07
 0.67550003E+02 -0.17018E+07
 0.67599998E+02 -0.19850E+07
 0.67650002E+02 -0.22775E+07
 0.67700005E+02 -0.25625E+07
 0.67750000E+02 -0.27914E+07
 0.67800003E+02 -0.28743E+07
 0.67849998E+02 -0.27837E+07
 0.67900002E+02 -0.25556E+07
 0.67950005E+02 -0.22721E+07
 0.68000000E+02 -0.20649E+07
 0.68050003E+02 -0.19798E+07
 0.68099998E+02 -0.19666E+07
 0.68150002E+02 -0.19377E+07
 0.68200005E+02 -0.18252E+07
 0.68250000E+02 -0.16413E+07
 0.68300003E+02 -0.14357E+07
 0.68349998E+02 -0.12894E+07
 0.68400002E+02 -0.12460E+07
 0.68450005E+02 -0.12282E+07
 0.68500000E+02 -0.11904E+07
 0.68550003E+02 -0.11722E+07
 0.68599998E+02 -0.11788E+07
 0.68650002E+02 -0.11949E+07
 0.68700005E+02 -0.12158E+07
 0.68750000E+02 -0.12241E+07
 0.68800003E+02 -0.12055E+07
 0.68849998E+02 -0.11344E+07
 0.68900002E+02 -0.99731E+06
 0.68950005E+02 -0.81571E+06
 0.69000000E+02 -0.58661E+06
 0.69050003E+02 -0.34985E+06
 0.69099998E+02 -0.15861E+06
 0.69150002E+02  0.34540E+05
 0.69200005E+02  0.23043E+06
 0.69250000E+02  0.37585E+06
 0.69300003E+02  0.45502E+06
 0.69349998E+02  0.42774E+06
 0.69400002E+02  0.31817E+06
 0.69450005E+02  0.19064E+06
 0.69500000E+02  0.45845E+05
 0.69550003E+02 -0.84738E+05
 0.69599998E+02 -0.14981E+06
 0.69650002E+02 -0.14005E+06
 0.69700005E+02 -0.58775E+05
 0.69750000E+02  0.32949E+05
 0.69800003E+02  0.83205E+05
 0.69849998E+02  0.12598E+06
 0.69900002E+02  0.16496E+06
 0.69950005E+02  0.23264E+06
 0.70000000E+02  0.31189E+06
 0.70050003E+02  0.29388E+06
 0.70099998E+02  0.17968E+06
 0.70150002E+02 -0.14130E+05
 0.70200005E+02 -0.23992E+06
 0.70250000E+02 -0.37476E+06
 0.70300003E+02 -0.37296E+06
 0.70349998E+02 -0.25305E+06
 0.70400002E+02 -0.88685E+05
 0.70450005E+02  0.35800E+03
 0.70500000E+02  0.19264E+05
 0.70550003E+02  0.59455E+05
 0.70599998E+02  0.16688E+06
 0.70650002E+02  0.37200E+06
 0.70700005E+02  0.63908E+06
 0.70750000E+02  0.93611E+06
 0.70800003E+02  0.12508E+07
 0.70849998E+02  0.15379E+07
 0.70900002E+02  0.17913E+07
 0.70950005E+02  0.20087E+07
 0.71000000E+02  0.21922E+07
 0.71050003E+02  0.23130E+07
 0.71099998E+02  0.23179E+07
 0.71150002E+02  0.22016E+07
 0.71200005E+02  0.20042E+07
 0.71250000E+02  0.17924E+07
 0.71300003E+02  0.16078E+07
 0.71349998E+02  0.14921E+07
 0.71400002E+02  0.14632E+07
 0.71450005E+02  0.15049E+07
 0.71500000E+02  0.15995E+07
 0.71550003E+02  0.17139E+07
 0.71599998E+02  0.18090E+07
 0.71650002E+02  0.18523E+07
 0.71700005E+02  0.18305E+07
 0.71750000E+02  0.17415E+07
 0.71800003E+02  0.15788E+07
 0.71849998E+02  0.13253E+07
 0.71900002E+02  0.10218E+07
 0.71950005E+02  0.74679E+06
 0.72000000E+02  0.51952E+06
 0.72050003E+02  0.32044E+06
 0.72099998E+02  0.12739E+06
 0.72150002E+02 -0.39939E+05
 0.72200005E+02 -0.11500E+06
 0.72250000E+02 -0.54878E+05
 0.72300003E+02  0.12010E+06
 0.72349998E+02  0.36011E+06
 0.72400002E+02  0.62708E+06
 0.72450005E+02  0.85720E+06
 0.72500000E+02  0.97321E+06
 0.72550003E+02  0.96541E+06
 0.72599998E+02  0.86708E+06
 0.72650002E+02  0.69292E+06
 0.72700005E+02  0.45383E+06
 0.72750000E+02  0.19113E+06
 0.72800003E+02 -0.49799E+05
 0.72849998E+02 -0.23503E+06
 0.72900002E+02 -0.35571E+06
 0.72950005E+02 -0.42036E+06
 0.73000000E+02 -0.42032E+06
 0.73050003E+02 -0.36106E+06
 0.73099998E+02 -0.26762E+06
 0.73150002E+02 -0.21101E+06
 0.73200005E+02 -0.23583E+06
 0.73250000E+02 -0.30271E+06
 0.73300003E+02 -0.40223E+06
 0.73349998E+02 -0.52422E+06
 0.73400002E+02 -0.62807E+06
 0.73450005E+02 -0.72646E+06
 0.73500000E+02 -0.84204E+06
 0.73550003E+02 -0.94669E+06
 0.73599998E+02 -0.10399E+07
 0.73650002E+02 -0.11230E+07
 0.73700005E+02 -0.11524E+07
 0.73750000E+02 -0.11195E+07
 0.73800003E+02 -0.10539E+07
 0.73849998E+02 -0.10040E+07
 0.73900002E+02 -0.95030E+06
 0.73950005E+02 -0.82422E+06
 0.74000000E+02 -0.65111E+06
 0.74050003E+02 -0.45566E+06
 0.74099998E+02 -0.25576E+06
 0.74150002E+02 -0.12415E+06
 0.74200005E+02 -0.88512E+05
 0.74250000E+02 -0.15054E+06
 0.74300003E+02 -0.27742E+06
 0.74349998E+02 -0.39528E+06
 0.74400002E+02 -0.46580E+06
 0.74450005E+02 -0.47082E+06
 0.74500000E+02 -0.40988E+06
 0.74550003E+02 -0.30282E+06
 0.74599998E+02 -0.16725E+06
 0.74650002E+02 -0.20933E+05
 0.74700005E+02  0.10446E+06
 0.74750000E+02  0.20514E+06
 0.74800003E+02  0.28198E+06
 0.74849998E+02  0.30473E+06
 0.74900002E+02  0.27172E+06
 0.74950005E+02  0.20448E+06
 0.75000000E+02  0.15131E+06
 0.75050003E+02  0.14927E+06
 0.75099998E+02  0.16917E+06
 0.75150002E+02  0.17525E+06
 0.75200005E+02  0.16571E+06
 0.75250000E+02  0.12608E+06
 0.75300003E+02  0.30856E+05
 0.75349998E+02 -0.13875E+06
 0.75400002E+02 -0.38615E+06
 0.75450005E+02 -0.64424E+06
 0.75500000E+02 -0.85365E+06
 0.75550003E+02 -0.99115E+06
 0.75599998E+02 -0.10184E+07
 0.75650002E+02 -0.92060E+06
 0.75700005E+02 -0.70134E+06
 0.75750000E+02 -0.41431E+06
 0.75800003E+02 -0.15937E+06
 0.75849998E+02  0.11707E+05
 0.75900002E+02  0.96439E+05
 0.75950005E+02  0.10142E+06
 0.76000000E+02  0.34768E+05
 0.76050003E+02 -0.70875E+05
 0.76099998E+02 -0.18789E+06
 0.76150002E+02 -0.30146E+06
 0.76200005E+02 -0.40425E+06
 0.76250000E+02 -0.51798E+06
 0.76300003E+02 -0.63115E+06
 0.76349998E+02 -0.71080E+06
 0.76400002E+02 -0.73248E+06
 0.76450005E+02 -0.72303E+06
 0.76500000E+02 -0.74611E+06
 0.76550003E+02 -0.81134E+06
 0.76599998E+02 -0.89244E+06
 0.76650002E+02 -0.97290E+06
 0.76700005E+02 -0.10457E+07
 0.76750000E+02 -0.10812E+07
 0.76800003E+02 -0.11047E+07
 0.76849998E+02 -0.11662E+07
 0.76900002E+02 -0.12684E+07
 0.76950005E+02 -0.14234E+07
 0.77000000E+02 -0.16076E+07
 0.77050003E+02 -0.17657E+07
 0.77099998E+02 -0.18463E+07
 0.77150002E+02 -0.18392E+07
 0.77200005E+02 -0.17986E+07
 0.77250000E+02 -0.17474E+07
 0.77300003E+02 -0.16638E+07
 0.77349998E+02 -0.15466E+07
 0.77400002E+02 -0.14100E+07
 0.77450005E+02 -0.12795E+07
 0.77500000E+02 -0.11751E+07
 0.77550003E+02 -0.10931E+07
 0.77599998E+02 -0.10153E+07
 0.77650002E+02 -0.91301E+06
 0.77700005E+02 -0.77858E+06
 0.77750000E+02 -0.61299E+06
 0.77800003E+02 -0.39268E+06
 0.77849998E+02 -0.12947E+06
 0.77900002E+02  0.13325E+06
 0.77950005E+02  0.36922E+06
 0.78000000E+02  0.55150E+06
 0.78050003E+02  0.68930E+06
 0.78099998E+02  0.79894E+06
 0.78150002E+02  0.86472E+06
 0.78200005E+02  0.90065E+06
 0.78250000E+02  0.93270E+06
 0.78300003E+02  0.10044E+07
 0.78349998E+02  0.11636E+07
 0.78400002E+02  0.14029E+07
 0.78450005E+02  0.16904E+07
 0.78500000E+02  0.20009E+07
 0.78550003E+02  0.22954E+07
 0.78599998E+02  0.25206E+07
 0.78650002E+02  0.26543E+07
 0.78700005E+02  0.26945E+07
 0.78750000E+02  0.26748E+07
 0.78800003E+02  0.26653E+07
 0.78849998E+02  0.26878E+07
 0.78900002E+02  0.27367E+07
 0.78950005E+02  0.28051E+07
 0.79000000E+02  0.28862E+07
 0.79050003E+02  0.29959E+07
 0.79099998E+02  0.31395E+07
 0.79150002E+02  0.33078E+07
 0.79200005E+02  0.34690E+07
 0.79250000E+02  0.35544E+07
 0.79300003E+02  0.35260E+07
 0.79349998E+02  0.33932E+07
 0.79400002E+02  0.31567E+07
 0.79450005E+02  0.28487E+07
 0.79500000E+02  0.25495E+07
 0.79550003E+02  0.22975E+07
 0.79599998E+02  0.21120E+07
 0.79650002E+02  0.19949E+07
 0.79700005E+02  0.19153E+07
 0.79750000E+02  0.18644E+07
 0.79800003E+02  0.18276E+07
 0.79849998E+02  0.17707E+07
 0.79900002E+02  0.16420E+07
 0.79950005E+02  0.14279E+07
 0.80000000E+02  0.11664E+07
 0.80050003E+02  0.87084E+06
 0.80099998E+02  0.54746E+06
 0.80150002E+02  0.20354E+06
 0.80200005E+02 -0.15412E+06
 0.80250000E+02 -0.50146E+06
 0.80300003E+02 -0.82757E+06
 0.80349998E+02 -0.11450E+07
 0.80400002E+02 -0.14399E+07
 0.80450005E+02 -0.16909E+07
 0.80500000E+02 -0.18973E+07
 0.80550003E+02 -0.20723E+07
 0.80599998E+02 -0.22508E+07
 0.80650002E+02 -0.24319E+07
 0.80700005E+02 -0.25987E+07
 0.80750000E+02 -0.27530E+07
 0.80800003E+02 -0.28969E+07
 0.80849998E+02 -0.30322E+07
 0.80900002E+02 -0.31501E+07
 0.80950005E+02 -0.32610E+07
 0.81000000E+02 -0.33732E+07
 0.81050003E+02 -0.34717E+07
 0.81099998E+02 -0.35328E+07
 0.81150002E+02 -0.35381E+07
 0.81200005E+02 -0.34736E+07
 0.81250000E+02 -0.33575E+07
 0.81300003E+02 -0.32479E+07
 0.81349998E+02 -0.31578E+07
 0.81400002E+02 -0.30878E+07
 0.81450005E+02 -0.30374E+07
 0.81500000E+02 -0.29902E+07
 0.81550003E+02 -0.29356E+07
 0.81599998E+02 -0.28805E+07
 0.81650002E+02 -0.28533E+07
 0.81700005E+02 -0.28224E+07
 0.81750000E+02 -0.27192E+07
 0.81800003E+02 -0.25198E+07
 0.81849998E+02 -0.22575E+07
 0.81900002E+02 -0.19780E+07
 0.81950005E+02 -0.17156E+07
 0.82000000E+02 -0.14903E+07
 0.82050003E+02 -0.12824E+07
 0.82099998E+02 -0.10915E+07
 0.82150002E+02 -0.94026E+06
 0.82200005E+02 -0.84240E+06
 0.82250000E+02 -0.78074E+06
 0.82300003E+02 -0.73193E+06
 0.82349998E+02 -0.68726E+06
 0.82400002E+02 -0.59938E+06
 0.82450005E+02 -0.42447E+06
 0.82500000E+02 -0.15518E+06
 0.82550003E+02  0.16782E+06
 0.82599998E+02  0.46707E+06
 0.82650002E+02  0.69614E+06
 0.82700005E+02  0.85400E+06
 0.82750000E+02  0.96802E+06
 0.82800003E+02  0.10533E+07
 0.82849998E+02  0.11019E+07
 0.82900002E+02  0.11157E+07
 0.82950005E+02  0.11078E+07
 0.83000000E+02  0.10895E+07
 0.83050003E+02  0.10707E+07
 0.83099998E+02  0.10685E+07
 0.83150002E+02  0.11123E+07
 0.83200005E+02  0.12139E+07
 0.83250000E+02  0.13353E+07
 0.83300003E+02  0.14209E+07
 0.83349998E+02  0.14610E+07
 0.83400002E+02  0.14887E+07
 0.83450005E+02  0.15411E+07
 0.83500000E+02  0.16323E+07
 0.83550003E+02  0.17444E+07
 0.83599998E+02  0.18611E+07
 0.83650002E+02  0.19520E+07
 0.83700005E+02  0.19923E+07
 0.83750000E+02  0.20062E+07
 0.83800003E+02  0.20250E+07
 0.83849998E+02  0.20638E+07
 0.83900002E+02  0.21226E+07
 0.83950005E+02  0.21883E+07
 0.84000000E+02  0.22424E+07
 0.84050003E+02  0.22862E+07
 0.84099998E+02  0.23419E+07
 0.84150002E+02  0.23983E+07
 0.84200005E+02  0.24383E+07
 0.84250000E+02  0.24672E+07
 0.84300003E+02  0.24627E+07
 0.84349998E+02  0.23954E+07
 0.84400002E+02  0.22788E+07
 0.84450005E+02  0.21364E+07
 0.84500000E+02  0.19677E+07
 0.84550003E+02  0.17750E+07
 0.84599998E+02  0.15632E+07
 0.84650002E+02  0.13340E+07
 0.84700005E+02  0.10919E+07
 0.84750000E+02  0.85809E+06
 0.84800003E+02  0.66410E+06
 0.84849998E+02  0.49791E+06
 0.84900002E+02  0.33676E+06
 0.84950005E+02  0.17831E+06
 0.85000000E+02  0.81920E+04
 0.85050003E+02 -0.16992E+06
 0.85099998E+02 -0.34344E+06
 0.85150002E+02 -0.54093E+06
 0.85200005E+02 -0.78982E+06
 0.85250000E+02 -0.10844E+07
 0.85300003E+02 -0.13971E+07
 0.85349998E+02 -0.16815E+07
 0.85400002E+02 -0.18964E+07
 0.85450005E+02 -0.20209E+07
 0.85500000E+02 -0.20621E+07
 0.85550003E+02 -0.20505E+07
 0.85599998E+02 -0.20133E+07
 0.85650002E+02 -0.19705E+07
 0.85700005E+02 -0.19452E+07
 0.85750000E+02 -0.19283E+07
 0.85800003E+02 -0.18923E+07
 0.85849998E+02 -0.18523E+07
 0.85900002E+02 -0.18156E+07
 0.85950005E+02 -0.17651E+07
 0.86000000E+02 -0.16940E+07
 0.86050003E+02 -0.15898E+07
 0.86099998E+02 -0.14560E+07
 0.86150002E+02 -0.13073E+07
 0.86200005E+02 -0.11459E+07
 0.86250000E+02 -0.98244E+06
 0.86300003E+02 -0.84483E+06
 0.86349998E+02 -0.74775E+06
 0.86400002E+02 -0.66878E+06
 0.86450005E+02 -0.57325E+06
 0.86500000E+02 -0.46397E+06
 0.86550003E+02 -0.37584E+06
 0.86599998E+02 -0.31233E+06
 0.86650002E+02 -0.25565E+06
 0.86700005E+02 -0.19403E+06
 0.86750000E+02 -0.12058E+06
 0.86800003E+02 -0.45083E+05
 0.86849998E+02  0.25416E+05
 0.86900002E+02  0.83178E+05
 0.86950005E+02  0.11519E+06
 0.87000000E+02  0.12238E+06
 0.87050003E+02  0.12937E+06
 0.87099998E+02  0.15848E+06
 0.87150002E+02  0.19255E+06
 0.87200005E+02  0.19835E+06
 0.87250000E+02  0.16496E+06
 0.87300003E+02  0.10830E+06
 0.87349998E+02  0.38836E+05
 0.87400002E+02 -0.38705E+05
 0.87450005E+02 -0.10708E+06
 0.87500000E+02 -0.16597E+06
 0.87550003E+02 -0.23646E+06
 0.87599998E+02 -0.33064E+06
 0.87650002E+02 -0.42946E+06
 0.87700005E+02 -0.49420E+06
 0.87750000E+02 -0.49754E+06
 0.87800003E+02 -0.42028E+06
 0.87849998E+02 -0.25442E+06
 0.87900002E+02 -0.26516E+05
 0.87950005E+02  0.23173E+06
 0.88000000E+02  0.49676E+06
 0.88050003E+02  0.72774E+06
 0.88099998E+02  0.89604E+06
 0.88150002E+02  0.10038E+07
 0.88200005E+02  0.10759E+07
 0.88250000E+02  0.11461E+07
 0.88300003E+02  0.12188E+07
 0.88349998E+02  0.12858E+07
 0.88400002E+02  0.13513E+07
 0.88450005E+02  0.14202E+07
 0.88500000E+02  0.15116E+07
 0.88550003E+02  0.16376E+07
 0.88599998E+02  0.17776E+07
 0.88650002E+02  0.19057E+07
 0.88700005E+02  0.20080E+07
 0.88750000E+02  0.20679E+07
 0.88800003E+02  0.20547E+07
 0.88849998E+02  0.19558E+07
 0.88900002E+02  0.18057E+07
 0.88950005E+02  0.16309E+07
 0.89000000E+02  0.14178E+07
 0.89050003E+02  0.11628E+07
 0.89099998E+02  0.87679E+06
 0.89150002E+02  0.57098E+06
 0.89200005E+02  0.25031E+06
 0.89250000E+02 -0.80335E+05
 0.89300003E+02 -0.40556E+06
 0.89349998E+02 -0.71287E+06
 0.89400002E+02 -0.97618E+06
 0.89450005E+02 -0.11780E+07
 0.89500000E+02 -0.13377E+07
 0.89550003E+02 -0.14700E+07
 0.89599998E+02 -0.15817E+07
 0.89650002E+02 -0.16909E+07
 0.89700005E+02 -0.17969E+07
 0.89750000E+02 -0.18894E+07
 0.89800003E+02 -0.19725E+07
 0.89849998E+02 -0.20443E+07
 0.89900002E+02 -0.20947E+07
 0.89950005E+02 -0.21205E+07
 0.90000000E+02 -0.21345E+07
 0.90050003E+02 -0.21379E+07
 0.90099998E+02 -0.21112E+07
 0.90150002E+02 -0.20470E+07
 0.90200005E+02 -0.19506E+07
 0.90250000E+02 -0.18205E+07
 0.90300003E+02 -0.16517E+07
 0.90349998E+02 -0.14506E+07
 0.90400002E+02 -0.12146E+07
 0.90450005E+02 -0.94362E+06
 0.90500000E+02 -0.65373E+06
 0.90550003E+02 -0.35698E+06
 0.90599998E+02 -0.67107E+05
 0.90650002E+02  0.20141E+06
 0.90700005E+02  0.42573E+06
 0.90750000E+02  0.60862E+06
 0.90800003E+02  0.77656E+06
 0.90849998E+02  0.94344E+06
 0.90900002E+02  0.11202E+07
 0.90950005E+02  0.13070E+07
 0.91000000E+02  0.14991E+07
 0.91050003E+02  0.16724E+07
 0.91099998E+02  0.18133E+07
 0.91150002E+02  0.19283E+07
 0.91200005E+02  0.20208E+07
 0.91250000E+02  0.20873E+07
 0.91300003E+02  0.21086E+07
 0.91349998E+02  0.20948E+07
 0.91400002E+02  0.20503E+07
 0.91450005E+02  0.19594E+07
 0.91500000E+02  0.18195E+07
 0.91550003E+02  0.16327E+07
 0.91599998E+02  0.14080E+07
 0.91650002E+02  0.11486E+07
 0.91700005E+02  0.86709E+06
 0.91750000E+02  0.57116E+06
 0.91800003E+02  0.26485E+06
 0.91849998E+02 -0.35118E+05
 0.91900002E+02 -0.32284E+06
 0.91950005E+02 -0.59899E+06
 0.92000000E+02 -0.85361E+06
 0.92050003E+02 -0.10675E+07
 0.92099998E+02 -0.12453E+07
 0.92150002E+02 -0.14093E+07
 0.92200005E+02 -0.15728E+07
 0.92250000E+02 -0.17387E+07
 0.92300003E+02 -0.19005E+07
 0.92349998E+02 -0.20397E+07
 0.92400002E+02 -0.21356E+07
 0.92450005E+02 -0.21879E+07
 0.92500000E+02 -0.21936E+07
 0.92550003E+02 -0.21487E+07
 0.92599998E+02 -0.20747E+07
 0.92650002E+02 -0.19921E+07
 0.92700005E+02 -0.19020E+07
 0.92750000E+02 -0.17989E+07
 0.92800003E+02 -0.16810E+07
 0.92849998E+02 -0.15577E+07
 0.92900002E+02 -0.14410E+07
 0.92950005E+02 -0.13223E+07
 0.93000000E+02 -0.11858E+07
 0.93050003E+02 -0.10237E+07
 0.93099998E+02 -0.83040E+06
 0.93150002E+02 -0.60876E+06
 0.93200005E+02 -0.36612E+06
 0.93250000E+02 -0.11741E+06
 0.93300003E+02  0.11643E+06
 0.93349998E+02  0.31753E+06
 0.93400002E+02  0.47677E+06
 0.93450005E+02  0.59738E+06
 0.93500000E+02  0.67748E+06
 0.93550003E+02  0.71745E+06
 0.93599998E+02  0.72103E+06
 0.93650002E+02  0.69896E+06
 0.93700005E+02  0.66169E+06
 0.93750000E+02  0.60204E+06
 0.93800003E+02  0.52437E+06
 0.93849998E+02  0.44758E+06
 0.93900002E+02  0.38351E+06
 0.93950005E+02  0.33763E+06
 0.94000000E+02  0.31099E+06
 0.94050003E+02  0.28508E+06
 0.94099998E+02  0.24091E+06
 0.94150002E+02  0.16634E+06
 0.94200005E+02  0.49607E+05
 0.94250000E+02 -0.94452E+05
 0.94300003E+02 -0.24655E+06
 0.94349998E+02 -0.39646E+06
 0.94400002E+02 -0.53209E+06
 0.94450005E+02 -0.63740E+06
 0.94500000E+02 -0.70050E+06
 0.94550003E+02 -0.72249E+06
 0.94599998E+02 -0.69478E+06
 0.94650002E+02 -0.60638E+06
 0.94700005E+02 -0.46101E+06
 0.94750000E+02 -0.27346E+06
 0.94800003E+02 -0.62476E+05
 0.94849998E+02  0.14974E+06
 0.94900002E+02  0.33772E+06
 0.94950005E+02  0.48720E+06
 0.95000000E+02  0.59835E+06
 0.95050003E+02  0.68164E+06
 0.95099998E+02  0.75187E+06
 0.95150002E+02  0.82446E+06
 0.95200005E+02  0.90434E+06
 0.95250000E+02  0.99039E+06
 0.95300003E+02  0.10907E+07
 0.95349998E+02  0.12122E+07
 0.95400002E+02  0.13625E+07
 0.95450005E+02  0.15398E+07
 0.95500000E+02  0.17222E+07
 0.95550003E+02  0.18797E+07
 0.95599998E+02  0.19857E+07
 0.95650002E+02  0.20295E+07
 0.95700005E+02  0.20144E+07
 0.95750000E+02  0.19603E+07
 0.95800003E+02  0.18800E+07
 0.95849998E+02  0.17679E+07
 0.95900002E+02  0.16286E+07
 0.95950005E+02  0.14800E+07
 0.96000000E+02  0.13392E+07
 0.96050003E+02  0.12131E+07
 0.96099998E+02  0.11064E+07
 0.96150002E+02  0.10133E+07
 0.96200005E+02  0.91488E+06
 0.96250000E+02  0.80057E+06
 0.96300003E+02  0.66877E+06
 0.96349998E+02  0.50990E+06
 0.96400002E+02  0.31982E+06
 0.96450005E+02  0.11089E+06
 0.96500000E+02 -0.10983E+06
 0.96550003E+02 -0.34190E+06
 0.96599998E+02 -0.57613E+06
 0.96650002E+02 -0.79031E+06
 0.96700005E+02 -0.97399E+06
 0.96750000E+02 -0.11243E+07
 0.96800003E+02 -0.12386E+07
 0.96849998E+02 -0.13232E+07
 0.96900002E+02 -0.13704E+07
 0.96950005E+02 -0.13786E+07
 0.97000000E+02 -0.13596E+07
 0.97050003E+02 -0.13235E+07
 0.97099998E+02 -0.12767E+07
 0.97150002E+02 -0.12239E+07
 0.97200005E+02 -0.11693E+07
 0.97250000E+02 -0.11066E+07
 0.97300003E+02 -0.10333E+07
 0.97349998E+02 -0.94681E+06
 0.97400002E+02 -0.84462E+06
 0.97450005E+02 -0.72552E+06
 0.97500000E+02 -0.59369E+06
 0.97550003E+02 -0.46155E+06
 0.97599998E+02 -0.32739E+06
 0.97650002E+02 -0.18891E+06
 0.97700005E+02 -0.42481E+05
 0.97750000E+02  0.11376E+06
 0.97800003E+02  0.27132E+06
 0.97849998E+02  0.42241E+06
 0.97900002E+02  0.55483E+06
 0.97950005E+02  0.66009E+06
 0.98000000E+02  0.73434E+06
 0.98050003E+02  0.77741E+06
 0.98099998E+02  0.79387E+06
 0.98150002E+02  0.78828E+06
 0.98200005E+02  0.76128E+06
 0.98250000E+02  0.71386E+06
 0.98300003E+02  0.65861E+06
 0.98349998E+02  0.60686E+06
 0.98400002E+02  0.56266E+06
 0.98450005E+02  0.52246E+06
 0.98500000E+02  0.47984E+06
 0.98550003E+02  0.43333E+06
 0.98599998E+02  0.37338E+06
 0.98650002E+02  0.29757E+06
 0.98700005E+02  0.21374E+06
 0.98750000E+02  0.12154E+06
 0.98800003E+02  0.22661E+05
 0.98849998E+02 -0.81011E+05
 0.98900002E+02 -0.18840E+06
 0.98950005E+02 -0.29265E+06
 0.99000000E+02 -0.38159E+06
 0.99050003E+02 -0.44866E+06
 0.99099998E+02 -0.50128E+06
 0.99150002E+02 -0.55243E+06
 0.99200005E+02 -0.61326E+06
 0.99250000E+02 -0.68591E+06
 0.99300003E+02 -0.76022E+06
 0.99349998E+02 -0.81620E+06
 0.99400002E+02 -0.84505E+06
 0.99450005E+02 -0.85868E+06
 0.99500000E+02 -0.87892E+06
 0.99550003E+02 -0.91447E+06
 0.99599998E+02 -0.95525E+06
 0.99650002E+02 -0.99866E+06
 0.99700005E+02 -0.10414E+07
 0.99750000E+02 -0.10764E+07
 0.99800003E+02 -0.10966E+07
 0.99849998E+02 -0.10969E+07
 0.99900002E+02 -0.10890E+07
 0.99950005E+02 -0.10844E+07
 0.10000000E+03 -0.10748E+07
 0.10005000E+03 -0.10457E+07
 0.10010000E+03 -0.99219E+06
 0.10015000E+03 -0.92229E+06
 0.10020000E+03 -0.84784E+06
 0.10025000E+03 -0.77088E+06
 0.10030000E+03 -0.69752E+06
 0.10035000E+03 -0.63241E+06
 0.10040000E+03 -0.56118E+06
 0.10045000E+03 -0.47851E+06
 0.10050000E+03 -0.38869E+06
 0.10055000E+03 -0.29611E+06
 0.10060000E+03 -0.21034E+06
 0.10065000E+03 -0.12865E+06
 0.10070000E+03 -0.40852E+05
 0.10075000E+03  0.54509E+05
 0.10080000E+03  0.15425E+06
 0.10085000E+03  0.24132E+06
 0.10090000E+03  0.29256E+06
 0.10095000E+03  0.31110E+06
 0.10100000E+03  0.30585E+06
 0.10105000E+03  0.28071E+06
 0.10110000E+03  0.24717E+06
 0.10115000E+03  0.20858E+06
 0.10120000E+03  0.16522E+06
 0.10125000E+03  0.11643E+06
 0.10130000E+03  0.62155E+05
 0.10135000E+03  0.74600E+04
 0.10140000E+03 -0.40699E+05
 0.10145000E+03 -0.75870E+05
 0.10150000E+03 -0.10018E+06
 0.10155000E+03 -0.12765E+06
 0.10160000E+03 -0.17129E+06
 0.10165000E+03 -0.22034E+06
 0.10170000E+03 -0.26609E+06
 0.10175000E+03 -0.30419E+06
 0.10180000E+03 -0.31702E+06
 0.10185000E+03 -0.29579E+06
 0.10190000E+03 -0.24116E+06
 0.10195000E+03 -0.16256E+06
 0.10200000E+03 -0.70128E+05
 0.10205000E+03  0.24077E+05
 0.10210000E+03  0.11345E+06
 0.10215000E+03  0.20108E+06
 0.10220000E+03  0.27954E+06
 0.10225000E+03  0.34311E+06
 0.10230000E+03  0.38771E+06
 0.10235000E+03  0.41303E+06
 0.10240000E+03  0.41827E+06
 0.10245000E+03  0.40529E+06
 0.10250000E+03  0.39275E+06
 0.10255000E+03  0.39391E+06
 0.10260000E+03  0.41264E+06
 0.10265000E+03  0.44724E+06
 0.10270000E+03  0.49257E+06
 0.10275000E+03  0.54001E+06
 0.10280000E+03  0.58065E+06
 0.10285000E+03  0.60743E+06
 0.10290000E+03  0.61384E+06
 0.10295000E+03  0.60569E+06
 0.10300000E+03  0.59100E+06
 0.10305000E+03  0.57358E+06
 0.10310000E+03  0.55410E+06
 0.10315000E+03  0.52860E+06
 0.10320000E+03  0.49852E+06
 0.10325000E+03  0.47198E+06
 0.10330000E+03  0.45074E+06
 0.10335000E+03  0.42700E+06
 0.10340000E+03  0.40240E+06
 0.10345000E+03  0.39123E+06
 0.10350000E+03  0.40119E+06
 0.10355000E+03  0.43117E+06
 0.10360000E+03  0.47757E+06
 0.10365000E+03  0.53041E+06
 0.10370000E+03  0.57638E+06
 0.10375000E+03  0.61122E+06
 0.10380000E+03  0.62988E+06
 0.10385000E+03  0.62899E+06
 0.10390000E+03  0.61815E+06
 0.10395000E+03  0.59523E+06
 0.10400000E+03  0.55869E+06
 0.10405000E+03  0.51038E+06
 0.10410000E+03  0.44559E+06
 0.10415000E+03  0.37512E+06
 0.10420000E+03  0.31106E+06
 0.10425000E+03  0.25988E+06
 0.10430000E+03  0.22068E+06
 0.10435000E+03  0.18431E+06
 0.10440000E+03  0.15274E+06
 0.10445000E+03  0.12845E+06
 0.10450000E+03  0.10287E+06
 0.10455000E+03  0.75231E+05
 0.10460000E+03  0.46942E+05
 0.10465000E+03  0.10386E+05
 0.10470000E+03 -0.35621E+05
 0.10475000E+03 -0.93754E+05
 0.10480000E+03 -0.17129E+06
 0.10485000E+03 -0.26464E+06
 0.10490000E+03 -0.36178E+06
 0.10495000E+03 -0.45241E+06
 0.10500000E+03 -0.53248E+06
 0.10505000E+03 -0.59644E+06
 0.10510000E+03 -0.63898E+06
 0.10515000E+03 -0.66412E+06
 0.10520000E+03 -0.67348E+06
 0.10525000E+03 -0.66950E+06
 0.10530000E+03 -0.66198E+06
 0.10535000E+03 -0.66018E+06
 0.10540000E+03 -0.67251E+06
 0.10545000E+03 -0.70440E+06
 0.10550000E+03 -0.76378E+06
 0.10555000E+03 -0.85078E+06
 0.10560000E+03 -0.94581E+06
 0.10565000E+03 -0.10323E+07
 0.10570000E+03 -0.11016E+07
 0.10575000E+03 -0.11400E+07
 0.10580000E+03 -0.11396E+07
 0.10585000E+03 -0.11014E+07
 0.10590000E+03 -0.10227E+07
 0.10595000E+03 -0.90555E+06
 0.10600000E+03 -0.76029E+06
 0.10605000E+03 -0.59540E+06
 0.10610000E+03 -0.41846E+06
 0.10615000E+03 -0.24253E+06
 0.10620000E+03 -0.82456E+05
 0.10625000E+03  0.55199E+05
 0.10630000E+03  0.17360E+06
 0.10635000E+03  0.27778E+06
 0.10640000E+03  0.36950E+06
 0.10645000E+03  0.44966E+06
 0.10650000E+03  0.52001E+06
 0.10655000E+03  0.58472E+06
 0.10660000E+03  0.65338E+06
 0.10665000E+03  0.72739E+06
 0.10670000E+03  0.80115E+06
 0.10675000E+03  0.87540E+06
 0.10680000E+03  0.94963E+06
 0.10685000E+03  0.10156E+07
 0.10690000E+03  0.10530E+07
 0.10695000E+03  0.10470E+07
 0.10700000E+03  0.99513E+06
 0.10705000E+03  0.89907E+06
 0.10710000E+03  0.76340E+06
 0.10715000E+03  0.59001E+06
 0.10720000E+03  0.39310E+06
 0.10725000E+03  0.19345E+06
 0.10730000E+03  0.50360E+04
 0.10735000E+03 -0.16483E+06
 0.10740000E+03 -0.31384E+06
 0.10745000E+03 -0.43753E+06
 0.10750000E+03 -0.53168E+06
 0.10755000E+03 -0.59036E+06
 0.10760000E+03 -0.62218E+06
 0.10765000E+03 -0.64872E+06
 0.10770000E+03 -0.68660E+06
 0.10775000E+03 -0.74071E+06
 0.10780000E+03 -0.80113E+06
 0.10785000E+03 -0.86035E+06
 0.10790000E+03 -0.90884E+06
 0.10795000E+03 -0.93016E+06
 0.10800000E+03 -0.91051E+06
 0.10805000E+03 -0.84596E+06
 0.10810000E+03 -0.74188E+06
 0.10815000E+03 -0.60235E+06
 0.10820000E+03 -0.44091E+06
 0.10825000E+03 -0.27695E+06
 0.10830000E+03 -0.12265E+06
 0.10835000E+03  0.65900E+04
 0.10840000E+03  0.99705E+05
 0.10845000E+03  0.16134E+06
 0.10850000E+03  0.19950E+06
 0.10855000E+03  0.21662E+06
 0.10860000E+03  0.21936E+06
 0.10865000E+03  0.22157E+06
 0.10870000E+03  0.23623E+06
 0.10875000E+03  0.27314E+06
 0.10880000E+03  0.32779E+06
 0.10885000E+03  0.38979E+06
 0.10890000E+03  0.45123E+06
 0.10895000E+03  0.49534E+06
 0.10900000E+03  0.50941E+06
 0.10905000E+03  0.48945E+06
 0.10910000E+03  0.44044E+06
 0.10915000E+03  0.37750E+06
 0.10920000E+03  0.31737E+06
 0.10925000E+03  0.27236E+06
 0.10930000E+03  0.23660E+06
 0.10935000E+03  0.20025E+06
 0.10940000E+03  0.16728E+06
 0.10945000E+03  0.13771E+06
 0.10950000E+03  0.10508E+06
 0.10955000E+03  0.72825E+05
 0.10960000E+03  0.46780E+05
 0.10965000E+03  0.22484E+05
 0.10970000E+03 -0.78390E+04
 0.10975000E+03 -0.44733E+05
 0.10980000E+03 -0.79386E+05
 0.10985000E+03 -0.10333E+06
 0.10990000E+03 -0.11113E+06
 0.10995000E+03 -0.10488E+06
 0.11000000E+03 -0.94120E+05
 0.11005000E+03 -0.78915E+05
 0.11010000E+03 -0.56049E+05
 0.11015000E+03 -0.30510E+05
 0.11020000E+03 -0.59360E+04
 0.11025000E+03  0.21835E+05
 0.11030000E+03  0.58995E+05
 0.11035000E+03  0.10562E+06
 0.11040000E+03  0.15310E+06
 0.11045000E+03  0.19791E+06
 0.11050000E+03  0.24329E+06
 0.11055000E+03  0.28368E+06
 0.11060000E+03  0.30731E+06
 0.11065000E+03  0.30949E+06
 0.11070000E+03  0.29411E+06
 0.11075000E+03  0.26838E+06
 0.11080000E+03  0.23952E+06
 0.11085000E+03  0.20384E+06
 0.11090000E+03  0.15554E+06
 0.11095000E+03  0.95768E+05
 0.11100000E+03  0.23724E+05
 0.11105000E+03 -0.60223E+05
 0.11110000E+03 -0.14985E+06
 0.11115000E+03 -0.23611E+06
 0.11120000E+03 -0.31760E+06
 0.11125000E+03 -0.40067E+06
 0.11130000E+03 -0.48579E+06
 0.11135000E+03 -0.56102E+06
 0.11140000E+03 -0.61811E+06
 0.11145000E+03 -0.65438E+06
 0.11150000E+03 -0.66829E+06
 0.11155000E+03 -0.66754E+06
 0.11160000E+03 -0.65519E+06
 0.11165000E+03 -0.63448E+06
 0.11170000E+03 -0.61344E+06
 0.11175000E+03 -0.59157E+06
 0.11180000E+03 -0.56457E+06
 0.11185000E+03 -0.52955E+06
 0.11190000E+03 -0.49334E+06
 0.11195000E+03 -0.46405E+06
 0.11200000E+03 -0.43768E+06
 0.11205000E+03 -0.40651E+06
 0.11210000E+03 -0.36478E+06
 0.11215000E+03 -0.31099E+06
 0.11220000E+03 -0.24772E+06
 0.11225000E+03 -0.18172E+06
 0.11230000E+03 -0.12170E+06
 0.11235000E+03 -0.77234E+05
 0.11240000E+03 -0.56854E+05
 0.11245000E+03 -0.60938E+05
 0.11250000E+03 -0.84432E+05
 0.11255000E+03 -0.12264E+06
 0.11260000E+03 -0.17122E+06
 0.11265000E+03 -0.22317E+06
 0.11270000E+03 -0.27551E+06
 0.11275000E+03 -0.32339E+06
 0.11280000E+03 -0.35517E+06
 0.11285000E+03 -0.36996E+06
 0.11290000E+03 -0.37052E+06
 0.11295000E+03 -0.35467E+06
 0.11300000E+03 -0.32346E+06
 0.11305000E+03 -0.28031E+06
 0.11310000E+03 -0.22961E+06
 0.11315000E+03 -0.17105E+06
 0.11320000E+03 -0.95582E+05
 0.11325000E+03  0.11870E+04
 0.11330000E+03  0.11572E+06
 0.11335000E+03  0.24462E+06
 0.11340000E+03  0.38110E+06
 0.11345000E+03  0.52098E+06
 0.11350000E+03  0.65988E+06
 0.11355000E+03  0.78452E+06
 0.11360000E+03  0.88567E+06
 0.11365000E+03  0.96340E+06
 0.11370000E+03  0.10247E+07
 0.11375000E+03  0.10741E+07
 0.11380000E+03  0.11066E+07
 0.11385000E+03  0.11147E+07
 0.11390000E+03  0.10944E+07
 0.11395000E+03  0.10494E+07
 0.11400000E+03  0.98810E+06
 0.11405000E+03  0.91589E+06
 0.11410000E+03  0.83893E+06
 0.11415000E+03  0.76068E+06
 0.11420000E+03  0.67576E+06
 0.11425000E+03  0.57678E+06
 0.11430000E+03  0.45784E+06
 0.11435000E+03  0.32039E+06
 0.11440000E+03  0.18398E+06
 0.11445000E+03  0.67947E+05
 0.11450000E+03 -0.26580E+05
 0.11455000E+03 -0.10378E+06
 0.11460000E+03 -0.16492E+06
 0.11465000E+03 -0.20721E+06
 0.11470000E+03 -0.23063E+06
 0.11475000E+03 -0.24154E+06
 0.11480000E+03 -0.24641E+06
 0.11485000E+03 -0.25629E+06
 0.11490000E+03 -0.28136E+06
 0.11495000E+03 -0.32641E+06
 0.11500000E+03 -0.38961E+06
 0.11505000E+03 -0.45999E+06
 0.11510000E+03 -0.52595E+06
 0.11515000E+03 -0.57536E+06
 0.11520000E+03 -0.60132E+06
 0.11525000E+03 -0.60753E+06
 0.11530000E+03 -0.60316E+06
 0.11535000E+03 -0.59967E+06
 0.11540000E+03 -0.60554E+06
 0.11545000E+03 -0.62358E+06
 0.11550000E+03 -0.65466E+06
 0.11555000E+03 -0.69570E+06
 0.11560000E+03 -0.73341E+06
 0.11565000E+03 -0.75779E+06
 0.11570000E+03 -0.76320E+06
 0.11575000E+03 -0.74143E+06
 0.11580000E+03 -0.68887E+06
 0.11585000E+03 -0.60548E+06
 0.11590000E+03 -0.49689E+06
 0.11595000E+03 -0.36971E+06
 0.11600000E+03 -0.23206E+06
 0.11605000E+03 -0.89439E+05
 0.11610000E+03  0.61442E+05
 0.11615000E+03  0.21927E+06
 0.11620000E+03  0.38167E+06
 0.11625000E+03  0.54464E+06
 0.11630000E+03  0.70075E+06
 0.11635000E+03  0.84479E+06
 0.11640000E+03  0.97252E+06
 0.11645000E+03  0.10828E+07
 0.11650000E+03  0.11724E+07
 0.11655000E+03  0.12366E+07
 0.11660000E+03  0.12749E+07
 0.11665000E+03  0.12895E+07
 0.11670000E+03  0.12830E+07
 0.11675000E+03  0.12557E+07
 0.11680000E+03  0.12041E+07
 0.11685000E+03  0.11254E+07
 0.11690000E+03  0.10234E+07
 0.11695000E+03  0.89417E+06
 0.11700000E+03  0.73076E+06
 0.11705000E+03  0.53366E+06
 0.11710000E+03  0.30460E+06
 0.11715000E+03  0.52099E+05
 0.11720000E+03 -0.21251E+06
 0.11725000E+03 -0.47988E+06
 0.11730000E+03 -0.73897E+06
 0.11735000E+03 -0.97700E+06
 0.11740000E+03 -0.11780E+07
 0.11745000E+03 -0.13341E+07
 0.11750000E+03 -0.14513E+07
 0.11755000E+03 -0.15334E+07
 0.11760000E+03 -0.15814E+07
 0.11765000E+03 -0.16057E+07
 0.11770000E+03 -0.16131E+07
 0.11775000E+03 -0.16018E+07
 0.11780000E+03 -0.15682E+07
 0.11785000E+03 -0.15045E+07
 0.11790000E+03 -0.14048E+07
 0.11795000E+03 -0.12678E+07
 0.11800000E+03 -0.10974E+07
 0.11805000E+03 -0.89780E+06
 0.11810000E+03 -0.66692E+06
 0.11815000E+03 -0.41037E+06
 0.11820000E+03 -0.14835E+06
 0.11825000E+03  0.97953E+05
 0.11830000E+03  0.31128E+06
 0.11835000E+03  0.47909E+06
 0.11840000E+03  0.59980E+06
 0.11845000E+03  0.67632E+06
 0.11850000E+03  0.71462E+06
 0.11855000E+03  0.72508E+06
 0.11860000E+03  0.71476E+06
 0.11865000E+03  0.68786E+06
 0.11870000E+03  0.64576E+06
 0.11875000E+03  0.59072E+06
 0.11880000E+03  0.52696E+06
 0.11885000E+03  0.46027E+06
 0.11890000E+03  0.39461E+06
 0.11895000E+03  0.32478E+06
 0.11900000E+03  0.24692E+06
 0.11905000E+03  0.15814E+06
 0.11910000E+03  0.53294E+05
 0.11915000E+03 -0.68799E+05
 0.11920000E+03 -0.20161E+06
 0.11925000E+03 -0.33378E+06
 0.11930000E+03 -0.45909E+06
 0.11935000E+03 -0.57084E+06
 0.11940000E+03 -0.66112E+06
 0.11945000E+03 -0.72651E+06
 0.11950000E+03 -0.76279E+06
 0.11955000E+03 -0.76827E+06
 0.11960000E+03 -0.74945E+06
 0.11965000E+03 -0.71269E+06
 0.11970000E+03 -0.66118E+06
 0.11975000E+03 -0.60007E+06
 0.11980000E+03 -0.53475E+06
 0.11985000E+03 -0.46862E+06
 0.11990000E+03 -0.40118E+06
 0.11995000E+03 -0.33162E+06
 0.12000000E+03 -0.26070E+06
 0.12005000E+03 -0.18748E+06
 0.12010000E+03 -0.11056E+06
 0.12015000E+03 -0.26725E+05
 0.12020000E+03  0.68628E+05
 0.12025000E+03  0.17460E+06
 0.12030000E+03  0.28463E+06
 0.12035000E+03  0.39519E+06
 0.12040000E+03  0.50288E+06
 0.12045000E+03  0.60322E+06
 0.12050000E+03  0.69556E+06
 0.12055000E+03  0.77755E+06
 0.12060000E+03  0.84559E+06
 0.12065000E+03  0.89696E+06
 0.12070000E+03  0.93173E+06
 0.12075000E+03  0.95118E+06
 0.12080000E+03  0.95306E+06
 0.12085000E+03  0.93627E+06
 0.12090000E+03  0.90375E+06
 0.12095000E+03  0.85764E+06
 0.12100000E+03  0.79345E+06
 0.12105000E+03  0.70803E+06
 0.12110000E+03  0.60227E+06
 0.12115000E+03  0.47816E+06
 0.12120000E+03  0.34194E+06
 0.12125000E+03  0.20036E+06
 0.12130000E+03  0.61806E+05
 0.12135000E+03 -0.63751E+05
 0.12140000E+03 -0.17015E+06
 0.12145000E+03 -0.25527E+06
 0.12150000E+03 -0.31956E+06
 0.12155000E+03 -0.36813E+06
 0.12160000E+03 -0.40715E+06
 0.12165000E+03 -0.43824E+06
 0.12170000E+03 -0.46133E+06
 0.12175000E+03 -0.47141E+06
 0.12180000E+03 -0.45919E+06
 0.12185000E+03 -0.42260E+06
 0.12190000E+03 -0.36757E+06
 0.12195000E+03 -0.29893E+06
 0.12200000E+03 -0.21678E+06
 0.12205000E+03 -0.12147E+06
 0.12210000E+03 -0.16910E+05
 0.12215000E+03  0.95357E+05
 0.12220000E+03  0.21553E+06
 0.12225000E+03  0.33872E+06
 0.12230000E+03  0.46070E+06
 0.12235000E+03  0.57684E+06
 0.12240000E+03  0.68137E+06
 0.12245000E+03  0.77559E+06
 0.12250000E+03  0.86402E+06
 0.12255000E+03  0.94514E+06
 0.12260000E+03  0.10055E+07
 0.12265000E+03  0.10315E+07
 0.12270000E+03  0.10204E+07
 0.12275000E+03  0.97436E+06
 0.12280000E+03  0.89618E+06
 0.12285000E+03  0.78830E+06
 0.12290000E+03  0.65949E+06
 0.12295000E+03  0.52319E+06
 0.12300000E+03  0.38940E+06
 0.12305000E+03  0.26048E+06
 0.12310000E+03  0.13354E+06
 0.12315000E+03  0.56480E+04
 0.12320000E+03 -0.12338E+06
 0.12325000E+03 -0.24707E+06
 0.12330000E+03 -0.36075E+06
 0.12335000E+03 -0.46536E+06
 0.12340000E+03 -0.56084E+06
 0.12345000E+03 -0.64408E+06
 0.12350000E+03 -0.71009E+06
 0.12355000E+03 -0.76034E+06
 0.12360000E+03 -0.79914E+06
 0.12365000E+03 -0.82369E+06
 0.12370000E+03 -0.83119E+06
 0.12375000E+03 -0.82207E+06
 0.12380000E+03 -0.79819E+06
 0.12385000E+03 -0.76426E+06
 0.12390000E+03 -0.72276E+06
 0.12395000E+03 -0.67240E+06
 0.12400000E+03 -0.61432E+06
 0.12405000E+03 -0.55142E+06
 0.12410000E+03 -0.48469E+06
 0.12415000E+03 -0.41274E+06
 0.12420000E+03 -0.33320E+06
 0.12425000E+03 -0.24679E+06
 0.12430000E+03 -0.15348E+06
 0.12435000E+03 -0.53832E+05
 0.12440000E+03  0.47313E+05
 0.12445000E+03  0.14473E+06
 0.12450000E+03  0.23155E+06
 0.12455000E+03  0.30192E+06
 0.12460000E+03  0.35264E+06
 0.12465000E+03  0.38105E+06
 0.12470000E+03  0.38872E+06
 0.12475000E+03  0.38116E+06
 0.12480000E+03  0.36308E+06
 0.12485000E+03  0.33557E+06
 0.12490000E+03  0.29837E+06
 0.12495000E+03  0.25542E+06
 0.12500000E+03  0.20665E+06
 0.12505000E+03  0.14626E+06
 0.12510001E+03  0.74021E+05
 0.12515001E+03 -0.71710E+04
 0.12520000E+03 -0.95178E+05
 0.12525000E+03 -0.18714E+06
 0.12530000E+03 -0.28368E+06
 0.12535001E+03 -0.39013E+06
 0.12540001E+03 -0.50451E+06
 0.12545000E+03 -0.61769E+06
 0.12550000E+03 -0.72355E+06
 0.12555000E+03 -0.81954E+06
 0.12560001E+03 -0.90304E+06
 0.12565001E+03 -0.96976E+06
 0.12570000E+03 -0.10176E+07
 0.12575000E+03 -0.10474E+07
 0.12580000E+03 -0.10607E+07
 0.12585001E+03 -0.10564E+07
 0.12590001E+03 -0.10301E+07
 0.12595000E+03 -0.98103E+06
 0.12600000E+03 -0.91577E+06
 0.12605000E+03 -0.84665E+06
 0.12610001E+03 -0.78048E+06
 0.12615001E+03 -0.71388E+06
 0.12620000E+03 -0.64482E+06
 0.12625000E+03 -0.57389E+06
 0.12630000E+03 -0.49732E+06
 0.12635001E+03 -0.41099E+06
 0.12640001E+03 -0.31350E+06
 0.12645000E+03 -0.20869E+06
 0.12650000E+03 -0.10186E+06
 0.12655000E+03  0.72000E+04
 0.12660001E+03  0.11682E+06
 0.12665001E+03  0.21991E+06
 0.12670000E+03  0.31046E+06
 0.12675000E+03  0.38376E+06
 0.12680000E+03  0.43766E+06
 0.12685001E+03  0.47686E+06
 0.12690001E+03  0.50485E+06
 0.12695000E+03  0.51914E+06
 0.12700000E+03  0.51904E+06
 0.12705000E+03  0.50640E+06
 0.12710001E+03  0.48058E+06
 0.12715001E+03  0.44120E+06
 0.12720000E+03  0.39351E+06
 0.12725000E+03  0.34371E+06
 0.12730000E+03  0.29392E+06
 0.12735001E+03  0.24844E+06
 0.12740001E+03  0.21363E+06
 0.12745000E+03  0.19189E+06
 0.12750000E+03  0.18436E+06
 0.12755000E+03  0.19221E+06
 0.12760001E+03  0.21341E+06
 0.12765001E+03  0.24314E+06
 0.12770000E+03  0.27502E+06
 0.12775000E+03  0.30239E+06
 0.12780000E+03  0.32011E+06
 0.12785001E+03  0.32853E+06
 0.12790001E+03  0.33279E+06
 0.12795000E+03  0.33441E+06
 0.12800000E+03  0.33242E+06
 0.12805000E+03  0.32964E+06
 0.12810001E+03  0.32975E+06
 0.12815001E+03  0.32995E+06
 0.12820000E+03  0.32695E+06
 0.12825000E+03  0.31904E+06
 0.12830000E+03  0.30326E+06
 0.12835001E+03  0.28164E+06
 0.12840001E+03  0.25309E+06
 0.12845000E+03  0.21322E+06
 0.12850000E+03  0.16178E+06
 0.12855000E+03  0.10435E+06
 0.12860001E+03  0.49764E+05
 0.12865001E+03 -0.89400E+03
 0.12870000E+03 -0.48518E+05
 0.12875000E+03 -0.91122E+05
 0.12880000E+03 -0.12757E+06
 0.12885001E+03 -0.15478E+06
 0.12890001E+03 -0.17076E+06
 0.12895000E+03 -0.17781E+06
 0.12900000E+03 -0.17590E+06
 0.12905000E+03 -0.16070E+06
 0.12910001E+03 -0.13147E+06
 0.12915001E+03 -0.91045E+05
 0.12920000E+03 -0.41666E+05
 0.12925000E+03  0.17387E+05
 0.12930000E+03  0.88272E+05
 0.12935001E+03  0.16797E+06
 0.12940001E+03  0.25300E+06
 0.12945000E+03  0.33701E+06
 0.12950000E+03  0.41318E+06
 0.12955000E+03  0.48681E+06
 0.12960001E+03  0.56412E+06
 0.12965001E+03  0.64671E+06
 0.12970000E+03  0.73170E+06
 0.12975000E+03  0.81014E+06
 0.12980000E+03  0.87370E+06
 0.12985001E+03  0.91530E+06
 0.12990001E+03  0.93150E+06
 0.12995000E+03  0.92394E+06
 0.13000000E+03  0.89670E+06
 0.13005000E+03  0.85454E+06
 0.13010001E+03  0.79914E+06
 0.13015001E+03  0.72713E+06
 0.13020000E+03  0.63718E+06
 0.13025000E+03  0.53528E+06
 0.13030000E+03  0.42953E+06
 0.13035001E+03  0.32464E+06
 0.13040001E+03  0.22210E+06
 0.13045000E+03  0.12096E+06
 0.13050000E+03  0.21085E+05
 0.13055000E+03 -0.75154E+05
 0.13060001E+03 -0.16694E+06
 0.13065001E+03 -0.25309E+06
 0.13070000E+03 -0.33066E+06
 0.13075000E+03 -0.39459E+06
 0.13080000E+03 -0.44229E+06
 0.13085001E+03 -0.47612E+06
 0.13090001E+03 -0.49686E+06
 0.13095000E+03 -0.50611E+06
 0.13100000E+03 -0.50706E+06
 0.13105000E+03 -0.50298E+06
 0.13110001E+03 -0.49551E+06
 0.13115001E+03 -0.48640E+06
 0.13120000E+03 -0.47745E+06
 0.13125000E+03 -0.46740E+06
 0.13130000E+03 -0.45715E+06
 0.13135001E+03 -0.44699E+06
 0.13140001E+03 -0.43725E+06
 0.13145000E+03 -0.43107E+06
 0.13150000E+03 -0.43233E+06
 0.13155000E+03 -0.44547E+06
 0.13160001E+03 -0.46982E+06
 0.13165001E+03 -0.50374E+06
 0.13170000E+03 -0.54637E+06
 0.13175000E+03 -0.59191E+06
 0.13180000E+03 -0.63565E+06
 0.13185001E+03 -0.67533E+06
 0.13190001E+03 -0.70893E+06
 0.13195000E+03 -0.73361E+06
 0.13200000E+03 -0.74809E+06
 0.13205000E+03 -0.75472E+06
 0.13210001E+03 -0.75666E+06
 0.13215001E+03 -0.75827E+06
 0.13220000E+03 -0.76018E+06
 0.13225000E+03 -0.75957E+06
 0.13230000E+03 -0.75161E+06
 0.13235001E+03 -0.73210E+06
 0.13240001E+03 -0.69913E+06
 0.13245000E+03 -0.64939E+06
 0.13250000E+03 -0.58173E+06
 0.13255000E+03 -0.49604E+06
 0.13260001E+03 -0.39467E+06
 0.13265001E+03 -0.28452E+06
 0.13270000E+03 -0.17028E+06
 0.13275000E+03 -0.53742E+05
 0.13280000E+03  0.60129E+05
 0.13285001E+03  0.16536E+06
 0.13290001E+03  0.25947E+06
 0.13295000E+03  0.33966E+06
 0.13300000E+03  0.40336E+06
 0.13305000E+03  0.45069E+06
 0.13310001E+03  0.48234E+06
 0.13315001E+03  0.49938E+06
 0.13320000E+03  0.50642E+06
 0.13325000E+03  0.50840E+06
 0.13330000E+03  0.50765E+06
 0.13335001E+03  0.50352E+06
 0.13340001E+03  0.49085E+06
 0.13345000E+03  0.46506E+06
 0.13350000E+03  0.42016E+06
 0.13355000E+03  0.35264E+06
 0.13360001E+03  0.26582E+06
 0.13365001E+03  0.16348E+06
 0.13370000E+03  0.52405E+05
 0.13375000E+03 -0.60171E+05
 0.13380000E+03 -0.16594E+06
 0.13385001E+03 -0.25505E+06
 0.13390001E+03 -0.32213E+06
 0.13395000E+03 -0.36446E+06
 0.13400000E+03 -0.38028E+06
 0.13405000E+03 -0.37007E+06
 0.13410001E+03 -0.33905E+06
 0.13415001E+03 -0.29337E+06
 0.13420000E+03 -0.23751E+06
 0.13425000E+03 -0.17102E+06
 0.13430000E+03 -0.90932E+05
 0.13435001E+03 -0.14000E+04
 0.13440001E+03  0.92393E+05
 0.13445000E+03  0.18678E+06
 0.13450000E+03  0.27808E+06
 0.13455000E+03  0.36317E+06
 0.13460001E+03  0.43878E+06
 0.13465001E+03  0.50440E+06
 0.13470000E+03  0.56166E+06
 0.13475000E+03  0.61266E+06
 0.13480000E+03  0.65734E+06
 0.13485001E+03  0.69387E+06
 0.13490001E+03  0.72400E+06
 0.13495000E+03  0.75217E+06
 0.13500000E+03  0.77846E+06
 0.13505000E+03  0.79853E+06
 0.13510001E+03  0.80522E+06
 0.13515001E+03  0.79010E+06
 0.13520000E+03  0.75086E+06
 0.13525000E+03  0.69042E+06
 0.13530000E+03  0.61407E+06
 0.13535001E+03  0.52807E+06
 0.13540001E+03  0.43910E+06
 0.13545000E+03  0.35418E+06
 0.13550000E+03  0.27654E+06
 0.13555000E+03  0.20654E+06
 0.13560001E+03  0.14400E+06
 0.13565001E+03  0.88396E+05
 0.13570000E+03  0.37697E+05
 0.13575000E+03 -0.11073E+05
 0.13580000E+03 -0.60695E+05
 0.13585001E+03 -0.11432E+06
 0.13590001E+03 -0.17259E+06
 0.13595000E+03 -0.23367E+06
 0.13600000E+03 -0.29628E+06
 0.13605000E+03 -0.35826E+06
 0.13610001E+03 -0.41550E+06
 0.13615001E+03 -0.46630E+06
 0.13620000E+03 -0.51027E+06
 0.13625000E+03 -0.54515E+06
 0.13630000E+03 -0.57079E+06
 0.13635001E+03 -0.59012E+06
 0.13640001E+03 -0.60752E+06
 0.13645000E+03 -0.62490E+06
 0.13650000E+03 -0.64040E+06
 0.13655000E+03 -0.65172E+06
 0.13660001E+03 -0.65871E+06
 0.13665001E+03 -0.66203E+06
 0.13670000E+03 -0.66040E+06
 0.13675000E+03 -0.65384E+06
 0.13680000E+03 -0.64266E+06
 0.13685001E+03 -0.62653E+06
 0.13690001E+03 -0.60460E+06
 0.13695000E+03 -0.57299E+06
 0.13700000E+03 -0.53049E+06
 0.13705000E+03 -0.48159E+06
 0.13710001E+03 -0.43021E+06
 0.13715001E+03 -0.37579E+06
 0.13720000E+03 -0.31339E+06
 0.13725000E+03 -0.24164E+06
 0.13730000E+03 -0.16340E+06
 0.13735001E+03 -0.78463E+05
 0.13740001E+03  0.10673E+05
 0.13745000E+03  0.10167E+06
 0.13750000E+03  0.19144E+06
 0.13755000E+03  0.27470E+06
 0.13760001E+03  0.34892E+06
 0.13765001E+03  0.41410E+06
 0.13770000E+03  0.47150E+06
 0.13775000E+03  0.52040E+06
 0.13780000E+03  0.56242E+06
 0.13785001E+03  0.60000E+06
 0.13790001E+03  0.63625E+06
 0.13795000E+03  0.66953E+06
 0.13800000E+03  0.69770E+06
 0.13805000E+03  0.72234E+06
 0.13810001E+03  0.73704E+06
 0.13815001E+03  0.73878E+06
 0.13820000E+03  0.72714E+06
 0.13825000E+03  0.69840E+06
 0.13830000E+03  0.64838E+06
 0.13835001E+03  0.57544E+06
 0.13840001E+03  0.48460E+06
 0.13845000E+03  0.37848E+06
 0.13850000E+03  0.25891E+06
 0.13855000E+03  0.13047E+06
 0.13860001E+03 -0.12110E+04
 0.13865001E+03 -0.12995E+06
 0.13870000E+03 -0.25127E+06
 0.13875000E+03 -0.36033E+06
 0.13880000E+03 -0.45419E+06
 0.13885001E+03 -0.53389E+06
 0.13890001E+03 -0.59990E+06
 0.13895000E+03 -0.65446E+06
 0.13900000E+03 -0.70130E+06
 0.13905000E+03 -0.73973E+06
 0.13910001E+03 -0.76717E+06
 0.13915001E+03 -0.78165E+06
 0.13920000E+03 -0.78315E+06
 0.13925000E+03 -0.77143E+06
 0.13930000E+03 -0.74724E+06
 0.13935001E+03 -0.71472E+06
 0.13940001E+03 -0.67609E+06
 0.13945000E+03 -0.63055E+06
 0.13950000E+03 -0.57741E+06
 0.13955000E+03 -0.51689E+06
 0.13960001E+03 -0.44802E+06
 0.13965001E+03 -0.37132E+06
 0.13970000E+03 -0.28858E+06
 0.13975000E+03 -0.20108E+06
 0.13980000E+03 -0.11063E+06
 0.13985001E+03 -0.18054E+05
 0.13990001E+03  0.76089E+05
 0.13995000E+03  0.17069E+06
 0.14000000E+03  0.26091E+06
 0.14005000E+03  0.34081E+06
 0.14010001E+03  0.40768E+06
 0.14015001E+03  0.46061E+06
 0.14020000E+03  0.50206E+06
 0.14025000E+03  0.53586E+06
 0.14030000E+03  0.56468E+06
 0.14035001E+03  0.58973E+06
 0.14040001E+03  0.61099E+06
 0.14045000E+03  0.62830E+06
 0.14050000E+03  0.63918E+06
 0.14055000E+03  0.63835E+06
 0.14060001E+03  0.62298E+06
 0.14065001E+03  0.59419E+06
 0.14070000E+03  0.55147E+06
 0.14075000E+03  0.49444E+06
 0.14080000E+03  0.42437E+06
 0.14085001E+03  0.34329E+06
 0.14090001E+03  0.25689E+06
 0.14095000E+03  0.17014E+06
 0.14100000E+03  0.86343E+05
 0.14105000E+03  0.92730E+04
 0.14110001E+03 -0.60361E+05
 0.14115001E+03 -0.12292E+06
 0.14120000E+03 -0.17900E+06
 0.14125000E+03 -0.23103E+06
 0.14130000E+03 -0.27905E+06
 0.14135001E+03 -0.32300E+06
 0.14140001E+03 -0.36416E+06
 0.14145000E+03 -0.40318E+06
 0.14150000E+03 -0.44194E+06
 0.14155000E+03 -0.48039E+06
 0.14160001E+03 -0.51459E+06
 0.14165001E+03 -0.53983E+06
 0.14170000E+03 -0.55535E+06
 0.14175000E+03 -0.56213E+06
 0.14180000E+03 -0.56089E+06
 0.14185001E+03 -0.55303E+06
 0.14190001E+03 -0.53917E+06
 0.14195000E+03 -0.51922E+06
 0.14200000E+03 -0.48931E+06
 0.14205000E+03 -0.44624E+06
 0.14210001E+03 -0.39149E+06
 0.14215001E+03 -0.32808E+06
 0.14220000E+03 -0.25918E+06
 0.14225000E+03 -0.18769E+06
 0.14230000E+03 -0.11496E+06
 0.14235001E+03 -0.38915E+05
 0.14240001E+03  0.42430E+05
 0.14245000E+03  0.12964E+06
 0.14250000E+03  0.22186E+06
 0.14255000E+03  0.31685E+06
 0.14260001E+03  0.41256E+06
 0.14265001E+03  0.50782E+06
 0.14270000E+03  0.60212E+06
 0.14275000E+03  0.69312E+06
 0.14280000E+03  0.77679E+06
 0.14285001E+03  0.84824E+06
 0.14290001E+03  0.90210E+06
 0.14295000E+03  0.93371E+06
 0.14300000E+03  0.94089E+06
 0.14305000E+03  0.92297E+06
 0.14310001E+03  0.88069E+06
 0.14315001E+03  0.81812E+06
 0.14320000E+03  0.73994E+06
 0.14325000E+03  0.64885E+06
 0.14330000E+03  0.54789E+06
 0.14335001E+03  0.44192E+06
 0.14340001E+03  0.33305E+06
 0.14345000E+03  0.22305E+06
 0.14350000E+03  0.11570E+06
 0.14355000E+03  0.13433E+05
 0.14360001E+03 -0.80104E+05
 0.14365001E+03 -0.16208E+06
 0.14370000E+03 -0.23142E+06
 0.14375000E+03 -0.28645E+06
 0.14380000E+03 -0.32459E+06
 0.14385001E+03 -0.34247E+06
 0.14390001E+03 -0.34112E+06
 0.14395000E+03 -0.32429E+06
 0.14400000E+03 -0.29492E+06
 0.14405000E+03 -0.25563E+06
 0.14410001E+03 -0.20907E+06
 0.14415001E+03 -0.15917E+06
 0.14420000E+03 -0.10796E+06
 0.14425000E+03 -0.57533E+05
 0.14430000E+03 -0.10181E+05
 0.14435001E+03  0.33495E+05
 0.14440001E+03  0.70818E+05
 0.14445000E+03  0.10105E+06
 0.14450000E+03  0.12289E+06
 0.14455000E+03  0.13424E+06
 0.14460001E+03  0.13380E+06
 0.14465001E+03  0.11736E+06
 0.14470000E+03  0.83326E+05
 0.14475000E+03  0.32222E+05
 0.14480000E+03 -0.32298E+05
 0.14485001E+03 -0.10307E+06
 0.14490001E+03 -0.17560E+06
 0.14495000E+03 -0.24834E+06
 0.14500000E+03 -0.31978E+06
 0.14505000E+03 -0.38814E+06
 0.14510001E+03 -0.45225E+06
 0.14515001E+03 -0.50973E+06
 0.14520000E+03 -0.55912E+06
 0.14525000E+03 -0.59942E+06
 0.14530000E+03 -0.62936E+06
 0.14535001E+03 -0.64763E+06
 0.14540001E+03 -0.65256E+06
 0.14545000E+03 -0.64349E+06
 0.14550000E+03 -0.61873E+06
 0.14555000E+03 -0.57764E+06
 0.14560001E+03 -0.52091E+06
 0.14565001E+03 -0.45098E+06
 0.14570000E+03 -0.37314E+06
 0.14575000E+03 -0.29077E+06
 0.14580000E+03 -0.20495E+06
 0.14585001E+03 -0.11656E+06
 0.14590001E+03 -0.28341E+05
 0.14595000E+03  0.56980E+05
 0.14600000E+03  0.13751E+06
 0.14605000E+03  0.20956E+06
 0.14610001E+03  0.26976E+06
 0.14615001E+03  0.31595E+06
 0.14620000E+03  0.34656E+06
 0.14625000E+03  0.36065E+06
 0.14630000E+03  0.35951E+06
 0.14635001E+03  0.34605E+06
 0.14640001E+03  0.32134E+06
 0.14645000E+03  0.28711E+06
 0.14650000E+03  0.24454E+06
 0.14655000E+03  0.19486E+06
 0.14660001E+03  0.14113E+06
 0.14665001E+03  0.83444E+05
 0.14670000E+03  0.21002E+05
 0.14675000E+03 -0.45335E+05
 0.14680000E+03 -0.11307E+06
 0.14685001E+03 -0.17987E+06
 0.14690001E+03 -0.24330E+06
 0.14695000E+03 -0.29898E+06
 0.14700000E+03 -0.34259E+06
 0.14705000E+03 -0.36984E+06
 0.14710001E+03 -0.38019E+06
 0.14715001E+03 -0.37495E+06
 0.14720000E+03 -0.35654E+06
 0.14725000E+03 -0.32859E+06
 0.14730000E+03 -0.29023E+06
 0.14735001E+03 -0.24261E+06
 0.14740001E+03 -0.18964E+06
 0.14745000E+03 -0.13356E+06
 0.14750000E+03 -0.76804E+05
 0.14755000E+03 -0.20958E+05
 0.14760001E+03  0.33051E+05
 0.14765001E+03  0.83791E+05
 0.14770000E+03  0.13140E+06
 0.14775000E+03  0.17718E+06
 0.14780000E+03  0.21913E+06
 0.14785001E+03  0.25400E+06
 0.14790001E+03  0.27822E+06
 0.14795000E+03  0.28948E+06
 0.14800000E+03  0.29053E+06
 0.14805000E+03  0.28489E+06
 0.14810001E+03  0.27532E+06
 0.14815001E+03  0.26495E+06
 0.14820000E+03  0.25550E+06
 0.14825000E+03  0.24718E+06
 0.14830000E+03  0.23929E+06
 0.14835001E+03  0.23127E+06
 0.14840001E+03  0.22263E+06
 0.14845000E+03  0.21074E+06
 0.14850000E+03  0.19324E+06
 0.14855000E+03  0.17024E+06
 0.14860001E+03  0.14266E+06
 0.14865001E+03  0.11338E+06
 0.14870000E+03  0.85866E+05
 0.14875000E+03  0.61516E+05
 0.14880000E+03  0.41080E+05
 0.14885001E+03  0.26143E+05
 0.14890001E+03  0.18029E+05
 0.14895000E+03  0.15937E+05
 0.14900000E+03  0.18495E+05
 0.14905000E+03  0.24889E+05
 0.14910001E+03  0.32400E+05
 0.14915001E+03  0.38090E+05
 0.14920000E+03  0.40744E+05
 0.14925000E+03  0.39364E+05
 0.14930000E+03  0.34184E+05
 0.14935001E+03  0.25579E+05
 0.14940001E+03  0.12217E+05
 0.14945000E+03 -0.60870E+04
 0.14950000E+03 -0.27003E+05
 0.14955000E+03 -0.47331E+05
 0.14960001E+03 -0.64742E+05
 0.14965001E+03 -0.78591E+05
 0.14970000E+03 -0.88007E+05
 0.14975000E+03 -0.93351E+05
 0.14980000E+03 -0.96135E+05
 0.14985001E+03 -0.98092E+05
 0.14990001E+03 -0.10248E+06
 0.14995000E+03 -0.10990E+06
