-0.29800000E+01 -0.54990E+05
-0.29300001E+01 -0.52104E+05
-0.28800001E+01 -0.49022E+05
-0.28299999E+01 -0.45065E+05
-0.27800000E+01 -0.39062E+05
-0.27300000E+01 -0.30891E+05
-0.26800001E+01 -0.21091E+05
-0.26300001E+01 -0.96350E+04
-0.25799999E+01  0.30880E+04
-0.25300000E+01  0.15802E+05
-0.24800000E+01  0.28332E+05
-0.24300001E+01  0.40323E+05
-0.23800001E+01  0.51784E+05
-0.23299999E+01  0.62866E+05
-0.22800000E+01  0.72326E+05
-0.22300000E+01  0.80176E+05
-0.21800001E+01  0.86703E+05
-0.21300001E+01  0.90878E+05
-0.20799999E+01  0.93016E+05
-0.20300000E+01  0.94469E+05
-0.19800000E+01  0.94921E+05
-0.19299999E+01  0.94242E+05
-0.18800000E+01  0.92536E+05
-0.18300000E+01  0.89684E+05
-0.17800000E+01  0.86721E+05
-0.17300000E+01  0.82572E+05
-0.16799999E+01  0.75573E+05
-0.16300000E+01  0.66420E+05
-0.15800000E+01  0.56160E+05
-0.15300000E+01  0.45225E+05
-0.14800000E+01  0.34652E+05
-0.14299999E+01  0.25249E+05
-0.13800000E+01  0.16165E+05
-0.13300000E+01  0.71720E+04
-0.12800000E+01 -0.18930E+04
-0.12300000E+01 -0.11163E+05
-0.11799999E+01 -0.19913E+05
-0.11300000E+01 -0.29355E+05
-0.10800000E+01 -0.39589E+05
-0.10300000E+01 -0.47957E+05
-0.98000002E+00 -0.54635E+05
-0.93000007E+00 -0.59747E+05
-0.87999988E+00 -0.62561E+05
-0.82999992E+00 -0.65129E+05
-0.77999997E+00 -0.67160E+05
-0.73000002E+00 -0.66923E+05
-0.68000007E+00 -0.64848E+05
-0.62999988E+00 -0.61540E+05
-0.57999992E+00 -0.57122E+05
-0.52999997E+00 -0.51343E+05
-0.48000002E+00 -0.44149E+05
-0.43000007E+00 -0.36535E+05
-0.37999988E+00 -0.29869E+05
-0.32999992E+00 -0.24611E+05
-0.27999997E+00 -0.19201E+05
-0.23000002E+00 -0.12814E+05
-0.18000007E+00 -0.74460E+04
-0.12999988E+00 -0.30010E+04
-0.79999924E-01  0.13290E+04
-0.29999971E-01  0.54430E+04
 0.19999981E-01  0.98320E+04
 0.69999933E-01  0.13904E+05
 0.12000012E+00  0.17387E+05
 0.17000008E+00  0.19552E+05
 0.22000003E+00  0.19768E+05
 0.26999998E+00  0.18132E+05
 0.31999993E+00  0.15315E+05
 0.37000012E+00  0.12869E+05
 0.42000008E+00  0.11251E+05
 0.47000003E+00  0.10888E+05
 0.51999998E+00  0.12022E+05
 0.56999993E+00  0.13280E+05
 0.62000012E+00  0.13727E+05
 0.67000008E+00  0.13613E+05
 0.72000003E+00  0.12004E+05
 0.76999998E+00  0.91650E+04
 0.81999993E+00  0.64840E+04
 0.87000012E+00  0.40280E+04
 0.92000008E+00  0.23970E+04
 0.97000003E+00  0.20770E+04
 0.10200000E+01  0.42280E+04
 0.10700002E+01  0.92400E+04
 0.11199999E+01  0.15693E+05
 0.11700001E+01  0.22641E+05
 0.12200003E+01  0.29767E+05
 0.12700000E+01  0.38161E+05
 0.13200002E+01  0.47533E+05
 0.13699999E+01  0.56691E+05
 0.14200001E+01  0.66223E+05
 0.14700003E+01  0.75297E+05
 0.15200000E+01  0.82480E+05
 0.15700002E+01  0.87434E+05
 0.16199999E+01  0.89914E+05
 0.16700001E+01  0.90754E+05
 0.17200003E+01  0.90971E+05
 0.17700000E+01  0.90477E+05
 0.18200002E+01  0.88381E+05
 0.18699999E+01  0.84091E+05
 0.19200001E+01  0.77469E+05
 0.19700003E+01  0.67935E+05
 0.20200000E+01  0.56422E+05
 0.20700002E+01  0.45209E+05
 0.21199999E+01  0.35255E+05
 0.21700001E+01  0.26069E+05
 0.22200003E+01  0.16556E+05
 0.22700000E+01  0.61160E+04
 0.23200002E+01 -0.43260E+04
 0.23699999E+01 -0.14073E+05
 0.24200001E+01 -0.23098E+05
 0.24700003E+01 -0.30902E+05
 0.25200000E+01 -0.37319E+05
 0.25700002E+01 -0.41907E+05
 0.26199999E+01 -0.44876E+05
 0.26700001E+01 -0.46147E+05
 0.27200003E+01 -0.44925E+05
 0.27700000E+01 -0.41648E+05
 0.28200002E+01 -0.36743E+05
 0.28699999E+01 -0.29849E+05
 0.29200001E+01 -0.20753E+05
 0.29700003E+01 -0.11520E+05
 0.30200000E+01 -0.25290E+04
 0.30700002E+01  0.71630E+04
 0.31199999E+01  0.15686E+05
 0.31700001E+01  0.23082E+05
 0.32200003E+01  0.30242E+05
 0.32700000E+01  0.36708E+05
 0.33200002E+01  0.42508E+05
 0.33699999E+01  0.47159E+05
 0.34200001E+01  0.49896E+05
 0.34700003E+01  0.50572E+05
 0.35200000E+01  0.48706E+05
 0.35700002E+01  0.44515E+05
 0.36199999E+01  0.38704E+05
 0.36700001E+01  0.31013E+05
 0.37200003E+01  0.21977E+05
 0.37700000E+01  0.10900E+05
 0.38200002E+01 -0.26510E+04
 0.38699999E+01 -0.16966E+05
 0.39200001E+01 -0.31591E+05
 0.39700003E+01 -0.46548E+05
 0.40200000E+01 -0.60834E+05
 0.40700002E+01 -0.73467E+05
 0.41199999E+01 -0.84796E+05
 0.41700001E+01 -0.95209E+05
 0.42200003E+01 -0.10391E+06
 0.42700000E+01 -0.11034E+06
 0.43200002E+01 -0.11496E+06
 0.43699999E+01 -0.11819E+06
 0.44200001E+01 -0.12003E+06
 0.44700003E+01 -0.12022E+06
 0.45200000E+01 -0.11822E+06
 0.45700002E+01 -0.11385E+06
 0.46199999E+01 -0.10728E+06
 0.46700001E+01 -0.98937E+05
 0.47200003E+01 -0.89173E+05
 0.47700000E+01 -0.78351E+05
 0.48200002E+01 -0.66971E+05
 0.48699999E+01 -0.55694E+05
 0.49200001E+01 -0.45445E+05
 0.49700003E+01 -0.36309E+05
 0.50200000E+01 -0.27836E+05
 0.50700002E+01 -0.20108E+05
 0.51200004E+01 -0.13717E+05
 0.51700006E+01 -0.85480E+04
 0.52199998E+01 -0.36950E+04
 0.52700000E+01  0.12090E+04
 0.53200002E+01  0.50390E+04
 0.53700004E+01  0.68080E+04
 0.54200006E+01  0.68340E+04
 0.54699998E+01  0.54480E+04
 0.55200000E+01  0.40760E+04
 0.55700002E+01  0.36530E+04
 0.56200004E+01  0.33850E+04
 0.56700006E+01  0.32540E+04
 0.57199998E+01  0.30990E+04
 0.57700000E+01  0.25530E+04
 0.58200002E+01  0.28040E+04
 0.58700004E+01  0.44430E+04
 0.59200006E+01  0.76370E+04
 0.59699998E+01  0.11838E+05
 0.60200000E+01  0.15158E+05
 0.60700002E+01  0.17879E+05
 0.61200004E+01  0.19990E+05
 0.61700006E+01  0.20775E+05
 0.62199998E+01  0.21557E+05
 0.62700000E+01  0.22885E+05
 0.63200002E+01  0.24886E+05
 0.63700004E+01  0.27565E+05
 0.64200006E+01  0.29393E+05
 0.64699998E+01  0.29832E+05
 0.65200000E+01  0.28424E+05
 0.65700002E+01  0.24621E+05
 0.66200004E+01  0.19365E+05
 0.66700006E+01  0.14166E+05
 0.67199998E+01  0.11340E+05
 0.67700000E+01  0.10590E+05
 0.68200002E+01  0.10185E+05
 0.68700004E+01  0.93450E+04
 0.69200006E+01  0.73760E+04
 0.69699998E+01  0.54150E+04
 0.70200000E+01  0.34970E+04
 0.70700002E+01  0.17140E+04
 0.71200004E+01  0.62500E+03
 0.71700006E+01  0.30700E+03
 0.72199998E+01  0.10780E+04
 0.72700000E+01  0.13990E+04
 0.73200002E+01  0.55900E+03
 0.73700004E+01 -0.12970E+04
 0.74200006E+01 -0.48510E+04
 0.74699998E+01 -0.97830E+04
 0.75200000E+01 -0.15054E+05
 0.75700002E+01 -0.19538E+05
 0.76200004E+01 -0.21731E+05
 0.76700006E+01 -0.22778E+05
 0.77199998E+01 -0.23960E+05
 0.77700000E+01 -0.25330E+05
 0.78200002E+01 -0.26888E+05
 0.78700004E+01 -0.27781E+05
 0.79200006E+01 -0.28257E+05
 0.79699998E+01 -0.27020E+05
 0.80200005E+01 -0.24192E+05
 0.80699997E+01 -0.20998E+05
 0.81200008E+01 -0.16843E+05
 0.81700001E+01 -0.13415E+05
 0.82199993E+01 -0.11515E+05
 0.82700005E+01 -0.10597E+05
 0.83199997E+01 -0.10495E+05
 0.83700008E+01 -0.10482E+05
 0.84200001E+01 -0.10452E+05
 0.84699993E+01 -0.91360E+04
 0.85200005E+01 -0.59770E+04
 0.85699997E+01 -0.18630E+04
 0.86200008E+01  0.26690E+04
 0.86700001E+01  0.71550E+04
 0.87199993E+01  0.11937E+05
 0.87700005E+01  0.16937E+05
 0.88199997E+01  0.23651E+05
 0.88700008E+01  0.32833E+05
 0.89200001E+01  0.43326E+05
 0.89699993E+01  0.55352E+05
 0.90200005E+01  0.68187E+05
 0.90699997E+01  0.80863E+05
 0.91200008E+01  0.92316E+05
 0.91700001E+01  0.10194E+06
 0.92199993E+01  0.11008E+06
 0.92700005E+01  0.11630E+06
 0.93199997E+01  0.12006E+06
 0.93700008E+01  0.12125E+06
 0.94200001E+01  0.12062E+06
 0.94699993E+01  0.11656E+06
 0.95200005E+01  0.11019E+06
 0.95699997E+01  0.10016E+06
 0.96200008E+01  0.87292E+05
 0.96700001E+01  0.74548E+05
 0.97199993E+01  0.59174E+05
 0.97700005E+01  0.53757E+05
 0.98199997E+01  0.54462E+05
 0.98700008E+01  0.58475E+05
 0.99200001E+01  0.59105E+05
 0.99699993E+01  0.51413E+05
 0.10020000E+02  0.51404E+05
 0.10070000E+02  0.56622E+05
 0.10120001E+02  0.80334E+05
 0.10170000E+02  0.98424E+05
 0.10219999E+02  0.11525E+06
 0.10270000E+02  0.14803E+06
 0.10320000E+02  0.17939E+06
 0.10370001E+02  0.22644E+06
 0.10420000E+02  0.25810E+06
 0.10469999E+02  0.26308E+06
 0.10520000E+02  0.62633E+05
 0.10570000E+02 -0.24390E+06
 0.10620001E+02 -0.49015E+06
 0.10670000E+02 -0.64777E+06
 0.10719999E+02 -0.37761E+06
 0.10770000E+02 -0.23505E+06
 0.10820000E+02 -0.30850E+06
 0.10870001E+02 -0.36549E+06
 0.10920000E+02 -0.29032E+06
 0.10969999E+02  0.18006E+06
 0.11020000E+02  0.41505E+06
 0.11070000E+02  0.36316E+06
 0.11120001E+02  0.19188E+06
 0.11170000E+02 -0.40786E+05
 0.11219999E+02 -0.24937E+06
 0.11270000E+02 -0.38967E+06
 0.11320000E+02 -0.16156E+07
 0.11370001E+02 -0.27993E+07
 0.11420000E+02 -0.29000E+07
 0.11469999E+02 -0.33110E+07
 0.11520000E+02 -0.25133E+07
 0.11570000E+02 -0.13016E+07
 0.11620001E+02 -0.13956E+07
 0.11670000E+02 -0.19437E+07
 0.11719999E+02 -0.22226E+07
 0.11770000E+02 -0.19128E+07
 0.11820000E+02 -0.76864E+06
 0.11870001E+02  0.83732E+05
 0.11920000E+02  0.55524E+06
 0.11969999E+02  0.14488E+06
 0.12020000E+02 -0.11189E+07
 0.12070000E+02 -0.99319E+06
 0.12120001E+02 -0.11650E+07
 0.12170000E+02 -0.13404E+07
 0.12219999E+02 -0.13936E+07
 0.12270000E+02 -0.14367E+07
 0.12320000E+02 -0.19121E+07
 0.12370001E+02 -0.16337E+07
 0.12420000E+02 -0.89425E+06
 0.12469999E+02 -0.21028E+07
 0.12520000E+02 -0.19015E+07
 0.12570000E+02 -0.26198E+07
 0.12620001E+02 -0.38047E+07
 0.12670000E+02 -0.28920E+07
 0.12719999E+02 -0.11797E+07
 0.12770000E+02 -0.15197E+07
 0.12820000E+02 -0.44201E+07
 0.12870001E+02 -0.48564E+07
 0.12920000E+02 -0.24412E+07
 0.12969999E+02  0.45245E+06
 0.13020000E+02  0.23809E+07
 0.13070002E+02  0.28705E+07
 0.13120001E+02  0.20989E+07
 0.13170000E+02  0.95711E+06
 0.13220001E+02  0.80308E+06
 0.13270000E+02  0.12726E+07
 0.13320002E+02  0.79360E+05
 0.13370001E+02 -0.14785E+07
 0.13420000E+02 -0.23366E+07
 0.13470001E+02 -0.23872E+07
 0.13520000E+02 -0.11841E+07
 0.13570002E+02 -0.14920E+05
 0.13620001E+02  0.15245E+07
 0.13670000E+02  0.12772E+07
 0.13720001E+02  0.12217E+06
 0.13770000E+02  0.80996E+06
 0.13820002E+02  0.13519E+07
 0.13870001E+02 -0.16349E+06
 0.13920000E+02 -0.14788E+07
 0.13970001E+02 -0.84204E+06
 0.14020000E+02 -0.49491E+06
 0.14070002E+02 -0.40726E+06
 0.14120001E+02  0.32693E+06
 0.14170000E+02  0.91301E+06
 0.14220001E+02 -0.34412E+06
 0.14270000E+02 -0.11815E+07
 0.14320002E+02  0.96108E+06
 0.14370001E+02  0.12211E+07
 0.14420000E+02  0.78382E+06
 0.14470001E+02  0.29503E+07
 0.14520000E+02  0.26085E+07
 0.14570002E+02  0.37797E+06
 0.14620001E+02 -0.78043E+06
 0.14670000E+02 -0.15908E+07
 0.14720001E+02 -0.21411E+07
 0.14770000E+02 -0.14110E+07
 0.14820002E+02  0.96249E+06
 0.14870001E+02  0.28263E+07
 0.14920000E+02  0.22718E+07
 0.14970001E+02  0.90617E+06
 0.15020000E+02  0.11553E+07
 0.15070002E+02  0.29863E+06
 0.15120001E+02  0.16234E+07
 0.15170000E+02  0.40096E+07
 0.15220001E+02  0.27986E+07
 0.15270000E+02  0.34353E+07
 0.15320002E+02  0.28203E+07
 0.15370001E+02  0.18120E+07
 0.15420000E+02  0.19232E+07
 0.15470001E+02 -0.66089E+05
 0.15520000E+02  0.73342E+05
 0.15570002E+02  0.59890E+06
 0.15620001E+02  0.13828E+06
 0.15670000E+02  0.16193E+07
 0.15720001E+02  0.30189E+07
 0.15770000E+02  0.12826E+07
 0.15820002E+02 -0.36738E+06
 0.15870001E+02 -0.15668E+07
 0.15920000E+02 -0.24982E+07
 0.15970001E+02 -0.34032E+06
 0.16020000E+02  0.66492E+06
 0.16070002E+02  0.11365E+07
 0.16120001E+02  0.17057E+07
 0.16170000E+02 -0.43145E+06
 0.16220001E+02 -0.11452E+07
 0.16270000E+02 -0.40184E+06
 0.16320002E+02  0.97585E+05
 0.16370001E+02  0.11989E+07
 0.16420000E+02  0.40444E+06
 0.16470001E+02 -0.37360E+06
 0.16520000E+02  0.60910E+06
 0.16570002E+02  0.38421E+06
 0.16620001E+02 -0.58684E+06
 0.16670000E+02 -0.15390E+07
 0.16720001E+02 -0.24301E+07
 0.16770000E+02 -0.24105E+07
 0.16820002E+02 -0.12921E+07
 0.16870001E+02 -0.20163E+05
 0.16920000E+02  0.52472E+06
 0.16970001E+02 -0.41036E+05
 0.17020000E+02 -0.13066E+07
 0.17070002E+02 -0.12061E+07
 0.17120001E+02 -0.34620E+06
 0.17170000E+02 -0.13075E+07
 0.17220001E+02 -0.14353E+07
 0.17270000E+02 -0.98788E+06
 0.17320002E+02 -0.13541E+07
 0.17370001E+02  0.12646E+06
 0.17420000E+02  0.16210E+06
 0.17470001E+02  0.25604E+05
 0.17520000E+02  0.23918E+05
 0.17570002E+02 -0.11854E+07
 0.17620001E+02 -0.61821E+06
 0.17670000E+02 -0.24066E+07
 0.17720001E+02 -0.44232E+07
 0.17770000E+02 -0.30616E+07
 0.17820002E+02 -0.24726E+07
 0.17870001E+02 -0.12407E+07
 0.17920000E+02  0.24531E+05
 0.17970001E+02 -0.11504E+06
 0.18020000E+02 -0.81174E+06
 0.18070002E+02 -0.92287E+06
 0.18120001E+02  0.31832E+07
 0.18170000E+02  0.23128E+07
 0.18220001E+02 -0.11186E+07
 0.18270000E+02 -0.55165E+06
 0.18320002E+02 -0.18756E+06
 0.18370001E+02 -0.11901E+07
 0.18420000E+02 -0.97556E+06
 0.18470001E+02  0.34217E+07
 0.18520000E+02  0.16788E+07
 0.18570002E+02  0.19128E+07
 0.18620001E+02  0.47032E+07
 0.18670000E+02  0.26071E+07
 0.18720001E+02 -0.24288E+06
 0.18770000E+02 -0.49865E+07
 0.18820002E+02 -0.43046E+07
 0.18870001E+02 -0.33708E+07
 0.18920000E+02 -0.29189E+07
 0.18970001E+02  0.26932E+07
 0.19020000E+02  0.11693E+08
 0.19070002E+02  0.11629E+08
 0.19120001E+02 -0.19955E+07
 0.19170000E+02 -0.17118E+07
 0.19220001E+02 -0.74305E+07
 0.19270000E+02 -0.24525E+08
 0.19320002E+02 -0.17492E+08
 0.19370001E+02 -0.64024E+06
 0.19420000E+02  0.11477E+08
 0.19470001E+02  0.10604E+08
 0.19520000E+02  0.11263E+08
 0.19570002E+02  0.32604E+07
 0.19620001E+02 -0.11894E+08
 0.19670000E+02 -0.48791E+07
 0.19720001E+02 -0.35272E+07
 0.19770000E+02 -0.20374E+07
 0.19820002E+02 -0.40152E+07
 0.19870001E+02 -0.96040E+07
 0.19920000E+02  0.66051E+07
 0.19970001E+02  0.16159E+08
 0.20020000E+02  0.48812E+07
 0.20070002E+02 -0.34460E+07
 0.20120001E+02 -0.67820E+07
 0.20170000E+02 -0.55146E+07
 0.20220001E+02  0.63463E+07
 0.20270000E+02  0.21407E+08
 0.20320002E+02  0.24643E+08
 0.20370001E+02  0.12275E+08
 0.20420000E+02  0.14706E+06
 0.20470001E+02 -0.19370E+08
 0.20520000E+02 -0.27012E+08
 0.20570002E+02 -0.11750E+08
 0.20620001E+02  0.27611E+07
 0.20670000E+02  0.18671E+08
 0.20720001E+02  0.24701E+08
 0.20770000E+02  0.16524E+08
 0.20820002E+02  0.81546E+07
 0.20870001E+02 -0.23315E+07
 0.20920000E+02 -0.18830E+08
 0.20970001E+02 -0.16584E+08
 0.21020000E+02  0.17185E+07
 0.21070002E+02  0.14857E+08
 0.21120001E+02  0.19452E+08
 0.21170000E+02  0.10116E+08
 0.21220001E+02  0.40874E+07
 0.21270000E+02  0.51132E+06
 0.21320002E+02 -0.55869E+07
 0.21370001E+02 -0.48182E+07
 0.21420000E+02  0.17906E+07
 0.21470001E+02  0.93647E+07
 0.21520000E+02  0.11325E+08
 0.21570002E+02  0.13570E+08
 0.21620001E+02  0.12937E+08
 0.21670000E+02  0.42099E+07
 0.21720001E+02 -0.15317E+06
 0.21770000E+02  0.11433E+07
 0.21820002E+02  0.22009E+06
 0.21870001E+02  0.37235E+07
 0.21920000E+02  0.88622E+07
 0.21970001E+02  0.45667E+07
 0.22020000E+02  0.34672E+07
 0.22070002E+02  0.38043E+07
 0.22120001E+02 -0.36518E+06
 0.22170000E+02  0.40345E+07
 0.22220001E+02  0.39332E+07
 0.22270000E+02 -0.32055E+07
 0.22320002E+02  0.54360E+06
 0.22370001E+02  0.49633E+07
 0.22420000E+02  0.17144E+07
 0.22470001E+02  0.15247E+07
 0.22520000E+02  0.84316E+06
 0.22570002E+02 -0.35579E+07
 0.22620001E+02 -0.18992E+07
 0.22670000E+02  0.41786E+07
 0.22720001E+02  0.80266E+07
 0.22770000E+02  0.10421E+08
 0.22820002E+02  0.12151E+08
 0.22870001E+02  0.91766E+07
 0.22920000E+02  0.52029E+07
 0.22970001E+02  0.33217E+07
 0.23020000E+02 -0.10292E+07
 0.23070002E+02 -0.27163E+07
 0.23120001E+02  0.10588E+07
 0.23170000E+02  0.10565E+07
 0.23220001E+02  0.12650E+07
 0.23270000E+02  0.47960E+07
 0.23320002E+02  0.17294E+07
 0.23370001E+02 -0.78993E+06
 0.23420000E+02  0.28379E+07
 0.23470001E+02  0.78455E+07
 0.23520000E+02  0.11006E+08
 0.23570002E+02  0.94477E+07
 0.23620001E+02  0.71537E+07
 0.23670000E+02  0.63656E+07
 0.23720001E+02  0.73213E+07
 0.23770000E+02  0.89906E+07
 0.23820002E+02  0.74860E+07
 0.23870001E+02  0.33334E+07
 0.23920000E+02  0.20586E+07
 0.23970001E+02  0.35401E+07
 0.24020000E+02  0.37127E+07
 0.24070002E+02  0.27362E+07
 0.24120001E+02  0.13952E+07
 0.24170000E+02 -0.30384E+06
 0.24220001E+02 -0.29658E+07
 0.24270000E+02 -0.39117E+07
 0.24320002E+02 -0.32377E+07
 0.24370001E+02 -0.40920E+06
 0.24420000E+02  0.26252E+07
 0.24470001E+02  0.37714E+07
 0.24520000E+02  0.66860E+07
 0.24570002E+02  0.75159E+07
 0.24620001E+02  0.74205E+07
 0.24670000E+02  0.72246E+07
 0.24720001E+02  0.32860E+07
 0.24770000E+02 -0.75018E+06
 0.24820002E+02 -0.17973E+07
 0.24870001E+02 -0.56839E+06
 0.24920000E+02  0.11292E+07
 0.24970001E+02  0.13187E+07
 0.25020000E+02  0.16778E+07
 0.25070002E+02  0.31865E+07
 0.25120001E+02  0.53423E+07
 0.25170000E+02  0.75715E+07
 0.25220001E+02  0.62456E+07
 0.25270000E+02  0.55991E+07
 0.25320002E+02  0.68489E+07
 0.25370001E+02  0.63026E+07
 0.25420000E+02  0.62017E+07
 0.25470001E+02  0.41667E+07
 0.25520000E+02  0.82630E+06
 0.25570002E+02 -0.12209E+07
 0.25620001E+02 -0.41139E+07
 0.25670000E+02 -0.45234E+07
 0.25720001E+02 -0.16158E+07
 0.25770000E+02  0.26492E+06
 0.25820002E+02  0.15260E+07
 0.25870001E+02  0.34742E+07
 0.25920000E+02  0.50492E+07
 0.25970001E+02  0.59695E+07
 0.26020000E+02  0.62466E+07
 0.26070002E+02  0.45740E+07
 0.26120001E+02  0.22002E+07
 0.26170000E+02 -0.30472E+05
 0.26220001E+02 -0.21773E+07
 0.26270000E+02 -0.11835E+07
 0.26320002E+02  0.36317E+06
 0.26370001E+02 -0.24753E+05
 0.26420000E+02  0.12659E+07
 0.26470001E+02  0.20674E+07
 0.26520000E+02  0.22893E+07
 0.26570002E+02  0.39415E+07
 0.26620001E+02  0.30247E+07
 0.26670000E+02  0.20916E+07
 0.26720001E+02  0.23097E+07
 0.26770000E+02  0.15126E+07
 0.26820002E+02  0.19499E+07
 0.26870001E+02  0.36175E+07
 0.26920000E+02  0.50587E+07
 0.26970001E+02  0.28396E+07
 0.27020000E+02 -0.64225E+06
 0.27070002E+02 -0.14936E+07
 0.27120001E+02 -0.16362E+07
 0.27170000E+02 -0.30178E+06
 0.27220001E+02  0.13544E+07
 0.27270000E+02  0.11822E+07
 0.27320002E+02  0.13675E+07
 0.27370001E+02  0.12542E+07
 0.27420000E+02 -0.17204E+07
 0.27470001E+02 -0.44827E+07
 0.27520000E+02 -0.55904E+07
 0.27570002E+02 -0.61024E+07
 0.27620001E+02 -0.52871E+07
 0.27670000E+02 -0.33271E+07
 0.27720001E+02 -0.59982E+06
 0.27770000E+02  0.19093E+07
 0.27820002E+02  0.27886E+07
 0.27870001E+02  0.15869E+07
 0.27920000E+02 -0.14664E+06
 0.27970001E+02 -0.83658E+06
 0.28020000E+02 -0.17805E+06
 0.28070002E+02  0.10240E+07
 0.28120001E+02  0.16611E+07
 0.28170000E+02  0.10205E+07
 0.28220001E+02 -0.11373E+07
 0.28270000E+02 -0.40565E+07
 0.28320002E+02 -0.54959E+07
 0.28370001E+02 -0.51323E+07
 0.28420000E+02 -0.44681E+07
 0.28470001E+02 -0.25171E+07
 0.28520000E+02 -0.84430E+06
 0.28570002E+02  0.33784E+06
 0.28620001E+02  0.18681E+07
 0.28670000E+02  0.21107E+07
 0.28720001E+02  0.25828E+07
 0.28770000E+02  0.29807E+07
 0.28820002E+02  0.24932E+07
 0.28870001E+02  0.20990E+07
 0.28920000E+02  0.18943E+07
 0.28970001E+02  0.16517E+07
 0.29020000E+02  0.58125E+06
 0.29070000E+02 -0.11026E+07
 0.29120003E+02 -0.32059E+07
 0.29170002E+02 -0.48639E+07
 0.29220001E+02 -0.43388E+07
 0.29270000E+02 -0.20703E+07
 0.29320000E+02  0.58279E+06
 0.29370003E+02  0.27133E+07
 0.29420002E+02  0.38669E+07
 0.29470001E+02  0.51846E+07
 0.29520000E+02  0.68531E+07
 0.29570000E+02  0.81839E+07
 0.29620003E+02  0.89627E+07
 0.29670002E+02  0.91248E+07
 0.29720001E+02  0.91310E+07
 0.29770000E+02  0.73939E+07
 0.29820000E+02  0.62174E+07
 0.29870003E+02  0.67584E+07
 0.29920002E+02  0.60529E+07
 0.29970001E+02  0.70403E+07
 0.30020000E+02  0.72771E+07
 0.30070000E+02  0.54381E+07
 0.30120003E+02  0.57238E+07
 0.30170002E+02  0.50844E+07
 0.30220001E+02  0.41730E+07
 0.30270000E+02  0.31291E+07
 0.30320000E+02  0.58706E+06
 0.30370003E+02 -0.36514E+06
 0.30420002E+02 -0.55115E+06
 0.30470001E+02 -0.78982E+06
 0.30520000E+02 -0.14862E+07
 0.30570000E+02 -0.15603E+07
 0.30620003E+02 -0.75291E+06
 0.30670002E+02 -0.10399E+07
 0.30720001E+02 -0.77642E+06
 0.30770000E+02 -0.16022E+06
 0.30820000E+02 -0.23729E+05
 0.30870003E+02  0.62490E+06
 0.30920002E+02  0.10362E+07
 0.30970001E+02 -0.10597E+06
 0.31020000E+02 -0.13651E+07
 0.31070000E+02 -0.82960E+06
 0.31120003E+02  0.44217E+06
 0.31170002E+02  0.26100E+07
 0.31220001E+02  0.53627E+07
 0.31270000E+02  0.64785E+07
 0.31320000E+02  0.70722E+07
 0.31370003E+02  0.81324E+07
 0.31420002E+02  0.84324E+07
 0.31470001E+02  0.76233E+07
 0.31520000E+02  0.64334E+07
 0.31570000E+02  0.53709E+07
 0.31620003E+02  0.41525E+07
 0.31670002E+02  0.33161E+07
 0.31720001E+02  0.28736E+07
 0.31770000E+02  0.29134E+07
 0.31820000E+02  0.38664E+07
 0.31870003E+02  0.39142E+07
 0.31920002E+02  0.31812E+07
 0.31970001E+02  0.36921E+07
 0.32020000E+02  0.44710E+07
 0.32070000E+02  0.36639E+07
 0.32120003E+02  0.19502E+07
 0.32170002E+02 -0.19650E+06
 0.32220001E+02 -0.31995E+07
 0.32270000E+02 -0.52163E+07
 0.32320000E+02 -0.61872E+07
 0.32370003E+02 -0.69091E+07
 0.32420002E+02 -0.70081E+07
 0.32470001E+02 -0.71060E+07
 0.32520000E+02 -0.66719E+07
 0.32570000E+02 -0.61573E+07
 0.32620003E+02 -0.59585E+07
 0.32670002E+02 -0.45938E+07
 0.32720001E+02 -0.23001E+07
 0.32770000E+02 -0.10479E+07
 0.32820000E+02 -0.66489E+06
 0.32870003E+02  0.24546E+06
 0.32920002E+02  0.11021E+07
 0.32970001E+02  0.19697E+07
 0.33020000E+02  0.29496E+07
 0.33070000E+02  0.29955E+07
 0.33120003E+02  0.28681E+07
 0.33170002E+02  0.32811E+07
 0.33220001E+02  0.30135E+07
 0.33270000E+02  0.28256E+07
 0.33320000E+02  0.33788E+07
 0.33370003E+02  0.43875E+07
 0.33420002E+02  0.64947E+07
 0.33470001E+02  0.75387E+07
 0.33520000E+02  0.74448E+07
 0.33570000E+02  0.74990E+07
 0.33620003E+02  0.67871E+07
 0.33670002E+02  0.54776E+07
 0.33720001E+02  0.31043E+07
 0.33770000E+02  0.16860E+07
 0.33820000E+02  0.16481E+07
 0.33870003E+02  0.72667E+06
 0.33920002E+02  0.68169E+05
 0.33970001E+02 -0.22115E+06
 0.34020000E+02 -0.13196E+06
 0.34070000E+02  0.34823E+06
 0.34120003E+02  0.96285E+06
 0.34170002E+02  0.17817E+07
 0.34220001E+02  0.24283E+07
 0.34270000E+02  0.37527E+07
 0.34320000E+02  0.54109E+07
 0.34370003E+02  0.67351E+07
 0.34420002E+02  0.74567E+07
 0.34470001E+02  0.77633E+07
 0.34520000E+02  0.79522E+07
 0.34570000E+02  0.70814E+07
 0.34620003E+02  0.55467E+07
 0.34670002E+02  0.41778E+07
 0.34720001E+02  0.33115E+07
 0.34770000E+02  0.24352E+07
 0.34820000E+02  0.10748E+07
 0.34870003E+02  0.33759E+06
 0.34920002E+02  0.11894E+06
 0.34970001E+02  0.21579E+06
 0.35020000E+02  0.79590E+04
 0.35070000E+02 -0.31523E+06
 0.35120003E+02  0.45572E+06
 0.35170002E+02  0.11350E+07
 0.35220001E+02  0.79577E+06
 0.35270000E+02 -0.23221E+06
 0.35320000E+02 -0.59423E+06
 0.35370003E+02 -0.77397E+06
 0.35420002E+02 -0.17327E+07
 0.35470001E+02 -0.26270E+07
 0.35520000E+02 -0.36387E+07
 0.35570000E+02 -0.42639E+07
 0.35620003E+02 -0.38746E+07
 0.35670002E+02 -0.27681E+07
 0.35720001E+02 -0.11431E+07
 0.35770000E+02  0.41620E+06
 0.35820000E+02  0.12313E+07
 0.35870003E+02  0.13686E+07
 0.35920002E+02  0.11771E+07
 0.35970001E+02  0.86932E+06
 0.36020000E+02  0.48247E+06
 0.36070000E+02  0.12311E+06
 0.36120003E+02  0.27038E+05
 0.36170002E+02  0.36610E+06
 0.36220001E+02  0.10123E+07
 0.36270000E+02  0.18968E+07
 0.36320000E+02  0.27736E+07
 0.36370003E+02  0.28804E+07
 0.36420002E+02  0.29101E+07
 0.36470001E+02  0.29848E+07
 0.36520000E+02  0.31051E+07
 0.36570000E+02  0.33587E+07
 0.36620003E+02  0.31774E+07
 0.36670002E+02  0.32171E+07
 0.36720001E+02  0.25119E+07
 0.36770000E+02  0.12234E+07
 0.36820000E+02  0.14575E+06
 0.36870003E+02 -0.81293E+06
 0.36920002E+02 -0.96096E+06
 0.36970001E+02 -0.89395E+06
 0.37020000E+02  0.33036E+05
 0.37070000E+02  0.15855E+07
 0.37120003E+02  0.23631E+07
 0.37170002E+02  0.26918E+07
 0.37220001E+02  0.28201E+07
 0.37270000E+02  0.29602E+07
 0.37320000E+02  0.30069E+07
 0.37370003E+02  0.31057E+07
 0.37420002E+02  0.33384E+07
 0.37470001E+02  0.33864E+07
 0.37520000E+02  0.29193E+07
 0.37570000E+02  0.23297E+07
 0.37620003E+02  0.23719E+07
 0.37670002E+02  0.28329E+07
 0.37720001E+02  0.40040E+07
 0.37770000E+02  0.49447E+07
 0.37820000E+02  0.48592E+07
 0.37870003E+02  0.40665E+07
 0.37920002E+02  0.26973E+07
 0.37970001E+02  0.13863E+07
 0.38020000E+02  0.32087E+06
 0.38070000E+02  0.17392E+06
 0.38120003E+02  0.94371E+06
 0.38170002E+02  0.19587E+07
 0.38220001E+02  0.27788E+07
 0.38270000E+02  0.29016E+07
 0.38320000E+02  0.29113E+07
 0.38370003E+02  0.31891E+07
 0.38420002E+02  0.30095E+07
 0.38470001E+02  0.25347E+07
 0.38520000E+02  0.24376E+07
 0.38570000E+02  0.25633E+07
 0.38620003E+02  0.25656E+07
 0.38670002E+02  0.25442E+07
 0.38720001E+02  0.25041E+07
 0.38770000E+02  0.22417E+07
 0.38820000E+02  0.19933E+07
 0.38870003E+02  0.14569E+07
 0.38920002E+02  0.83047E+06
 0.38970001E+02  0.98234E+06
 0.39020000E+02  0.19907E+07
 0.39070000E+02  0.32549E+07
 0.39120003E+02  0.43021E+07
 0.39170002E+02  0.46779E+07
 0.39220001E+02  0.41743E+07
 0.39270000E+02  0.35092E+07
 0.39320000E+02  0.25748E+07
 0.39370003E+02  0.14181E+07
 0.39420002E+02  0.31463E+05
 0.39470001E+02 -0.14201E+07
 0.39520000E+02 -0.24074E+07
 0.39570000E+02 -0.33792E+07
 0.39620003E+02 -0.38978E+07
 0.39670002E+02 -0.46481E+07
 0.39720001E+02 -0.55083E+07
 0.39770000E+02 -0.56548E+07
 0.39820000E+02 -0.56517E+07
 0.39870003E+02 -0.50402E+07
 0.39920002E+02 -0.40308E+07
 0.39970001E+02 -0.23807E+07
 0.40020000E+02 -0.94812E+05
 0.40070000E+02  0.20573E+07
 0.40120003E+02  0.37383E+07
 0.40170002E+02  0.51489E+07
 0.40220001E+02  0.65855E+07
 0.40270000E+02  0.72703E+07
 0.40320000E+02  0.70578E+07
 0.40370003E+02  0.59467E+07
 0.40420002E+02  0.44544E+07
 0.40470001E+02  0.29202E+07
 0.40520000E+02  0.11725E+07
 0.40570000E+02 -0.41034E+06
 0.40620003E+02 -0.18796E+07
 0.40670002E+02 -0.27842E+07
 0.40720001E+02 -0.29288E+07
 0.40770000E+02 -0.27268E+07
 0.40820000E+02 -0.25154E+07
 0.40870003E+02 -0.23785E+07
 0.40920002E+02 -0.19427E+07
 0.40970001E+02 -0.13427E+07
 0.41020000E+02 -0.12127E+07
 0.41070000E+02 -0.14246E+07
 0.41120003E+02 -0.11183E+07
 0.41170002E+02 -0.74532E+06
 0.41220001E+02 -0.61802E+06
 0.41270000E+02 -0.10938E+05
 0.41320000E+02  0.88320E+06
 0.41370003E+02  0.18625E+07
 0.41420002E+02  0.27945E+07
 0.41470001E+02  0.35273E+07
 0.41520000E+02  0.43048E+07
 0.41570000E+02  0.51067E+07
 0.41620003E+02  0.59364E+07
 0.41670002E+02  0.62611E+07
 0.41720001E+02  0.58680E+07
 0.41770000E+02  0.51083E+07
 0.41820000E+02  0.40386E+07
 0.41870003E+02  0.33827E+07
 0.41920002E+02  0.28213E+07
 0.41970001E+02  0.21074E+07
 0.42020000E+02  0.17056E+07
 0.42070000E+02  0.13024E+07
 0.42120003E+02  0.10064E+07
 0.42170002E+02  0.93237E+06
 0.42220001E+02  0.10409E+07
 0.42270000E+02  0.98284E+06
 0.42320000E+02  0.12265E+07
 0.42370003E+02  0.16892E+07
 0.42420002E+02  0.15300E+07
 0.42470001E+02  0.12307E+07
 0.42520000E+02  0.36474E+06
 0.42570000E+02 -0.85875E+06
 0.42620003E+02 -0.16823E+07
 0.42670002E+02 -0.22250E+07
 0.42720001E+02 -0.24667E+07
 0.42770000E+02 -0.26147E+07
 0.42820000E+02 -0.22915E+07
 0.42870003E+02 -0.16872E+07
 0.42920002E+02 -0.13059E+07
 0.42970001E+02 -0.98030E+06
 0.43020000E+02 -0.10651E+07
 0.43070000E+02 -0.14008E+07
 0.43120003E+02 -0.15225E+07
 0.43170002E+02 -0.18789E+07
 0.43220001E+02 -0.22758E+07
 0.43270000E+02 -0.22341E+07
 0.43320000E+02 -0.20754E+07
 0.43370003E+02 -0.15687E+07
 0.43420002E+02 -0.83902E+06
 0.43470001E+02 -0.48010E+06
 0.43520000E+02 -0.36323E+06
 0.43570000E+02 -0.35198E+06
 0.43620003E+02 -0.36153E+06
 0.43670002E+02 -0.13579E+06
 0.43720001E+02  0.99494E+05
 0.43770000E+02  0.25423E+06
 0.43820000E+02  0.63491E+06
 0.43870003E+02  0.97721E+06
 0.43920002E+02  0.15933E+07
 0.43970001E+02  0.24205E+07
 0.44020000E+02  0.30323E+07
 0.44070000E+02  0.38943E+07
 0.44120003E+02  0.41568E+07
 0.44170002E+02  0.36868E+07
 0.44220001E+02  0.34825E+07
 0.44270000E+02  0.34145E+07
 0.44320000E+02  0.36857E+07
 0.44370003E+02  0.39807E+07
 0.44420002E+02  0.42436E+07
 0.44470001E+02  0.46419E+07
 0.44520000E+02  0.49231E+07
 0.44570000E+02  0.54528E+07
 0.44620003E+02  0.54694E+07
 0.44670002E+02  0.50434E+07
 0.44720001E+02  0.46232E+07
 0.44770000E+02  0.37584E+07
 0.44820000E+02  0.28578E+07
 0.44870003E+02  0.18076E+07
 0.44920002E+02  0.73030E+06
 0.44970001E+02 -0.20914E+06
 0.45020000E+02 -0.10318E+07
 0.45070000E+02 -0.11982E+07
 0.45120003E+02 -0.12737E+07
 0.45170002E+02 -0.14835E+07
 0.45220001E+02 -0.16994E+07
 0.45270000E+02 -0.20997E+07
 0.45320000E+02 -0.23319E+07
 0.45370003E+02 -0.24789E+07
 0.45420002E+02 -0.26625E+07
 0.45470001E+02 -0.27233E+07
 0.45520000E+02 -0.26152E+07
 0.45570000E+02 -0.23997E+07
 0.45620003E+02 -0.18912E+07
 0.45670002E+02 -0.11126E+07
 0.45720001E+02 -0.41566E+06
 0.45770000E+02  0.11897E+06
 0.45820000E+02  0.52841E+06
 0.45870003E+02  0.97742E+06
 0.45920002E+02  0.14917E+07
 0.45970001E+02  0.20112E+07
 0.46020000E+02  0.24244E+07
 0.46070000E+02  0.25387E+07
 0.46120003E+02  0.23863E+07
 0.46170002E+02  0.22159E+07
 0.46220001E+02  0.20329E+07
 0.46270000E+02  0.17745E+07
 0.46320000E+02  0.13222E+07
 0.46370003E+02  0.63878E+06
 0.46420002E+02  0.31702E+05
 0.46470001E+02 -0.20310E+06
 0.46520000E+02 -0.40170E+05
 0.46570000E+02  0.40995E+05
 0.46620003E+02 -0.65730E+04
 0.46670002E+02 -0.13395E+06
 0.46720001E+02 -0.43979E+06
 0.46770000E+02 -0.63416E+06
 0.46820000E+02 -0.69037E+06
 0.46870003E+02 -0.71514E+06
 0.46920002E+02 -0.59968E+06
 0.46970001E+02 -0.44682E+06
 0.47020000E+02 -0.55128E+06
 0.47070000E+02 -0.71422E+06
 0.47120003E+02 -0.82175E+06
 0.47170002E+02 -0.89173E+06
 0.47220001E+02 -0.82748E+06
 0.47270000E+02 -0.63565E+06
 0.47320000E+02 -0.15679E+06
 0.47370003E+02  0.40480E+06
 0.47420002E+02  0.88105E+06
 0.47470001E+02  0.12090E+07
 0.47520000E+02  0.12876E+07
 0.47570000E+02  0.12282E+07
 0.47620003E+02  0.89807E+06
 0.47670002E+02  0.48793E+06
 0.47720001E+02  0.52952E+06
 0.47770000E+02  0.11492E+07
 0.47820000E+02  0.19509E+07
 0.47870003E+02  0.25383E+07
 0.47920002E+02  0.28723E+07
 0.47970001E+02  0.30962E+07
 0.48020000E+02  0.32467E+07
 0.48070000E+02  0.31409E+07
 0.48120003E+02  0.27132E+07
 0.48170002E+02  0.20981E+07
 0.48220001E+02  0.14998E+07
 0.48270000E+02  0.10929E+07
 0.48320000E+02  0.95859E+06
 0.48370003E+02  0.97215E+06
 0.48420002E+02  0.89706E+06
 0.48470001E+02  0.75056E+06
 0.48520000E+02  0.57560E+06
 0.48570000E+02  0.36575E+06
 0.48620003E+02  0.26023E+06
 0.48670002E+02  0.27840E+06
 0.48720001E+02  0.45438E+06
 0.48770000E+02  0.76982E+06
 0.48820000E+02  0.10307E+07
 0.48870003E+02  0.88619E+06
 0.48920002E+02  0.54860E+06
 0.48970001E+02  0.71241E+06
 0.49020000E+02  0.93940E+06
 0.49070000E+02  0.93490E+06
 0.49120003E+02  0.81739E+06
 0.49170002E+02  0.43896E+06
 0.49220001E+02  0.11916E+06
 0.49270000E+02 -0.20063E+06
 0.49320000E+02 -0.58586E+06
 0.49370003E+02 -0.91826E+06
 0.49420002E+02 -0.12650E+07
 0.49470001E+02 -0.14247E+07
 0.49520000E+02 -0.15469E+07
 0.49570000E+02 -0.15925E+07
 0.49620003E+02 -0.13166E+07
 0.49670002E+02 -0.11921E+07
 0.49720001E+02 -0.10983E+07
 0.49770000E+02 -0.89236E+06
 0.49820000E+02 -0.58355E+06
 0.49870003E+02 -0.51506E+05
 0.49920002E+02  0.29619E+06
 0.49970001E+02  0.49440E+06
 0.50020000E+02  0.47099E+06
 0.50070000E+02  0.47878E+06
 0.50120003E+02  0.72924E+06
 0.50170002E+02  0.11685E+07
 0.50220001E+02  0.19484E+07
 0.50270000E+02  0.25677E+07
 0.50320000E+02  0.29594E+07
 0.50370003E+02  0.31495E+07
 0.50420002E+02  0.31308E+07
 0.50470001E+02  0.32895E+07
 0.50520000E+02  0.34673E+07
 0.50570000E+02  0.35409E+07
 0.50620003E+02  0.37559E+07
 0.50670002E+02  0.40426E+07
 0.50720001E+02  0.42781E+07
 0.50770000E+02  0.43571E+07
 0.50820000E+02  0.43393E+07
 0.50870003E+02  0.42490E+07
 0.50920002E+02  0.39436E+07
 0.50970001E+02  0.37593E+07
 0.51020000E+02  0.37076E+07
 0.51070000E+02  0.35419E+07
 0.51120003E+02  0.32401E+07
 0.51170002E+02  0.27854E+07
 0.51220001E+02  0.23291E+07
 0.51270000E+02  0.19049E+07
 0.51320000E+02  0.15002E+07
 0.51370003E+02  0.11272E+07
 0.51420002E+02  0.68764E+06
 0.51470001E+02  0.11530E+06
 0.51520000E+02 -0.63715E+06
 0.51570000E+02 -0.14137E+07
 0.51620003E+02 -0.20536E+07
 0.51670002E+02 -0.24628E+07
 0.51720001E+02 -0.26001E+07
 0.51770000E+02 -0.25986E+07
 0.51820000E+02 -0.23808E+07
 0.51870003E+02 -0.19375E+07
 0.51920002E+02 -0.13568E+07
 0.51970001E+02 -0.78388E+06
 0.52020000E+02 -0.47136E+06
 0.52070000E+02 -0.48156E+06
 0.52120003E+02 -0.61374E+06
 0.52170002E+02 -0.57781E+06
 0.52220001E+02 -0.37573E+06
 0.52270000E+02 -0.20486E+06
 0.52320000E+02 -0.26022E+06
 0.52370003E+02 -0.41260E+06
 0.52420002E+02 -0.42582E+06
 0.52470001E+02 -0.42650E+06
 0.52520000E+02 -0.47654E+06
 0.52570000E+02 -0.64498E+06
 0.52620003E+02 -0.85863E+06
 0.52670002E+02 -0.93939E+06
 0.52720001E+02 -0.10901E+07
 0.52770000E+02 -0.12837E+07
 0.52820000E+02 -0.13259E+07
 0.52870003E+02 -0.11080E+07
 0.52920002E+02 -0.74340E+06
 0.52970001E+02 -0.48361E+06
 0.53020000E+02 -0.32709E+06
 0.53070000E+02 -0.30693E+06
 0.53120003E+02 -0.28583E+06
 0.53170002E+02 -0.18586E+06
 0.53220001E+02 -0.85281E+05
 0.53270000E+02  0.32895E+05
 0.53320000E+02 -0.36449E+05
 0.53370003E+02 -0.25859E+06
 0.53420002E+02 -0.36157E+06
 0.53470001E+02 -0.41505E+06
 0.53520000E+02 -0.34495E+06
 0.53570000E+02 -0.41042E+05
 0.53620003E+02  0.31364E+06
 0.53670002E+02  0.54600E+06
 0.53720001E+02  0.52206E+06
 0.53770000E+02  0.43494E+06
 0.53820000E+02  0.50070E+06
 0.53870003E+02  0.66499E+06
 0.53920002E+02  0.75322E+06
 0.53970001E+02  0.63614E+06
 0.54020000E+02  0.43233E+06
 0.54070000E+02  0.13373E+06
 0.54120003E+02 -0.22580E+06
 0.54170002E+02 -0.41799E+06
 0.54220001E+02 -0.44998E+06
 0.54270000E+02 -0.37790E+06
 0.54320000E+02 -0.22894E+06
 0.54370003E+02 -0.10147E+06
 0.54420002E+02  0.26857E+05
 0.54470001E+02  0.25468E+06
 0.54520000E+02  0.60719E+06
 0.54570000E+02  0.89358E+06
 0.54620003E+02  0.10329E+07
 0.54670002E+02  0.10893E+07
 0.54720001E+02  0.11055E+07
 0.54770000E+02  0.11460E+07
 0.54820000E+02  0.10755E+07
 0.54870003E+02  0.10029E+07
 0.54920002E+02  0.11340E+07
 0.54970001E+02  0.14056E+07
 0.55020000E+02  0.15886E+07
 0.55070000E+02  0.14510E+07
 0.55120003E+02  0.11136E+07
 0.55170002E+02  0.87516E+06
 0.55220001E+02  0.86335E+06
 0.55270000E+02  0.87690E+06
 0.55320000E+02  0.92748E+06
 0.55370003E+02  0.85336E+06
 0.55420002E+02  0.47110E+06
 0.55470001E+02  0.10442E+06
 0.55520000E+02 -0.23043E+06
 0.55570000E+02 -0.50990E+06
 0.55620003E+02 -0.73285E+06
 0.55670002E+02 -0.89392E+06
 0.55720001E+02 -0.99495E+06
 0.55770000E+02 -0.11133E+07
 0.55820000E+02 -0.11557E+07
 0.55870003E+02 -0.12643E+07
 0.55920002E+02 -0.13133E+07
 0.55970001E+02 -0.11287E+07
 0.56020000E+02 -0.94846E+06
 0.56070000E+02 -0.84197E+06
 0.56120003E+02 -0.75315E+06
 0.56170002E+02 -0.57305E+06
 0.56220001E+02 -0.26129E+06
 0.56270000E+02 -0.29140E+04
 0.56320000E+02  0.21804E+06
 0.56370003E+02  0.39631E+06
 0.56420002E+02  0.61892E+06
 0.56470001E+02  0.98106E+06
 0.56520000E+02  0.12385E+07
 0.56570000E+02  0.14996E+07
 0.56620003E+02  0.18171E+07
 0.56670002E+02  0.20198E+07
 0.56720001E+02  0.20936E+07
 0.56770000E+02  0.20462E+07
 0.56820000E+02  0.19891E+07
 0.56870003E+02  0.19383E+07
 0.56920002E+02  0.18679E+07
 0.56970001E+02  0.18419E+07
 0.57020000E+02  0.17708E+07
 0.57070000E+02  0.15779E+07
 0.57120003E+02  0.14674E+07
 0.57170002E+02  0.14252E+07
 0.57220001E+02  0.13538E+07
 0.57270000E+02  0.14113E+07
 0.57320000E+02  0.14443E+07
 0.57370003E+02  0.13103E+07
 0.57420002E+02  0.10917E+07
 0.57470001E+02  0.87558E+06
 0.57520000E+02  0.72902E+06
 0.57570000E+02  0.57223E+06
 0.57620003E+02  0.53520E+06
 0.57670002E+02  0.55402E+06
 0.57720001E+02  0.52320E+06
 0.57770000E+02  0.53244E+06
 0.57820000E+02  0.35039E+06
 0.57870003E+02  0.92270E+05
 0.57920002E+02 -0.12164E+06
 0.57970001E+02 -0.37248E+06
 0.58020000E+02 -0.48308E+06
 0.58070000E+02 -0.46600E+06
 0.58120003E+02 -0.38929E+06
 0.58170002E+02 -0.23069E+06
 0.58220001E+02 -0.19879E+05
 0.58270000E+02  0.16580E+06
 0.58320000E+02  0.32122E+06
 0.58370003E+02  0.50407E+06
 0.58420002E+02  0.67648E+06
 0.58470001E+02  0.71486E+06
 0.58520000E+02  0.62412E+06
 0.58570000E+02  0.57234E+06
 0.58620003E+02  0.60083E+06
 0.58670002E+02  0.68183E+06
 0.58720001E+02  0.78936E+06
 0.58770000E+02  0.81325E+06
 0.58820000E+02  0.76325E+06
 0.58870003E+02  0.76385E+06
 0.58920002E+02  0.80774E+06
 0.58970001E+02  0.91381E+06
 0.59020000E+02  0.11267E+07
 0.59070000E+02  0.12729E+07
 0.59120003E+02  0.12706E+07
 0.59170002E+02  0.12648E+07
 0.59220001E+02  0.12954E+07
 0.59270000E+02  0.13948E+07
 0.59320000E+02  0.15439E+07
 0.59370003E+02  0.15758E+07
 0.59420002E+02  0.14865E+07
 0.59470001E+02  0.12859E+07
 0.59520000E+02  0.10271E+07
 0.59570000E+02  0.80581E+06
 0.59620003E+02  0.59804E+06
 0.59670002E+02  0.43278E+06
 0.59720001E+02  0.23740E+06
 0.59770000E+02 -0.52720E+05
 0.59820000E+02 -0.40280E+06
 0.59870003E+02 -0.77308E+06
 0.59920002E+02 -0.11375E+07
 0.59970001E+02 -0.14315E+07
 0.60020000E+02 -0.15622E+07
 0.60070000E+02 -0.15746E+07
 0.60120003E+02 -0.14229E+07
 0.60170002E+02 -0.11799E+07
 0.60220001E+02 -0.96955E+06
 0.60270000E+02 -0.83845E+06
 0.60320000E+02 -0.83094E+06
 0.60370003E+02 -0.75820E+06
 0.60420002E+02 -0.65761E+06
 0.60470001E+02 -0.65144E+06
 0.60520000E+02 -0.68764E+06
 0.60570000E+02 -0.72533E+06
 0.60620003E+02 -0.65651E+06
 0.60670002E+02 -0.46088E+06
 0.60720001E+02 -0.23022E+06
 0.60770000E+02 -0.67150E+04
 0.60820000E+02  0.24330E+06
 0.60870003E+02  0.51698E+06
 0.60920002E+02  0.79514E+06
 0.60970001E+02  0.10103E+07
 0.61020000E+02  0.11192E+07
 0.61070004E+02  0.12338E+07
 0.61119999E+02  0.13685E+07
 0.61170002E+02  0.13925E+07
 0.61220005E+02  0.12805E+07
 0.61270000E+02  0.11173E+07
 0.61320004E+02  0.95036E+06
 0.61369999E+02  0.82916E+06
 0.61420002E+02  0.75016E+06
 0.61470005E+02  0.64862E+06
 0.61520000E+02  0.51490E+06
 0.61570004E+02  0.44797E+06
 0.61619999E+02  0.40270E+06
 0.61670002E+02  0.20475E+06
 0.61720005E+02 -0.45973E+05
 0.61770000E+02 -0.27198E+06
 0.61820004E+02 -0.49494E+06
 0.61869999E+02 -0.66908E+06
 0.61920002E+02 -0.88138E+06
 0.61970005E+02 -0.11994E+07
 0.62020000E+02 -0.15058E+07
 0.62070004E+02 -0.17141E+07
 0.62119999E+02 -0.18047E+07
 0.62170002E+02 -0.18307E+07
 0.62220005E+02 -0.18438E+07
 0.62270000E+02 -0.18153E+07
 0.62320004E+02 -0.18423E+07
 0.62369999E+02 -0.18663E+07
 0.62420002E+02 -0.18049E+07
 0.62470005E+02 -0.17962E+07
 0.62520000E+02 -0.18010E+07
 0.62570004E+02 -0.18001E+07
 0.62619999E+02 -0.18547E+07
 0.62670002E+02 -0.19210E+07
 0.62720005E+02 -0.19547E+07
 0.62770000E+02 -0.19630E+07
 0.62820004E+02 -0.19190E+07
 0.62869999E+02 -0.17264E+07
 0.62920002E+02 -0.14629E+07
 0.62970005E+02 -0.12299E+07
 0.63020000E+02 -0.99604E+06
 0.63070004E+02 -0.75248E+06
 0.63119999E+02 -0.53226E+06
 0.63170002E+02 -0.34885E+06
 0.63220005E+02 -0.19209E+06
 0.63270000E+02 -0.74081E+05
 0.63320004E+02  0.28236E+05
 0.63369999E+02  0.13942E+06
 0.63420002E+02  0.31013E+06
 0.63470005E+02  0.48157E+06
 0.63520000E+02  0.55503E+06
 0.63570004E+02  0.67244E+06
 0.63619999E+02  0.83060E+06
 0.63670002E+02  0.94280E+06
 0.63720005E+02  0.99267E+06
 0.63770000E+02  0.88786E+06
 0.63820004E+02  0.71813E+06
 0.63869999E+02  0.58777E+06
 0.63920002E+02  0.47420E+06
 0.63970005E+02  0.37226E+06
 0.64019997E+02  0.31615E+06
 0.64070000E+02  0.28290E+06
 0.64119995E+02  0.20173E+06
 0.64169998E+02  0.59892E+05
 0.64220001E+02 -0.13526E+06
 0.64269997E+02 -0.29669E+06
 0.64320000E+02 -0.36444E+06
 0.64369995E+02 -0.35338E+06
 0.64419998E+02 -0.24002E+06
 0.64470001E+02 -0.37500E+04
 0.64519997E+02  0.25164E+06
 0.64570000E+02  0.43395E+06
 0.64619995E+02  0.60836E+06
 0.64669998E+02  0.71265E+06
 0.64720001E+02  0.70306E+06
 0.64769997E+02  0.65421E+06
 0.64820000E+02  0.50954E+06
 0.64869995E+02  0.34572E+06
 0.64919998E+02  0.28873E+06
 0.64970001E+02  0.33243E+06
 0.65019997E+02  0.49290E+06
 0.65070000E+02  0.67803E+06
 0.65119995E+02  0.85832E+06
 0.65169998E+02  0.10904E+07
 0.65220001E+02  0.12577E+07
 0.65269997E+02  0.13227E+07
 0.65320000E+02  0.14031E+07
 0.65369995E+02  0.14981E+07
 0.65419998E+02  0.15325E+07
 0.65470001E+02  0.14743E+07
 0.65519997E+02  0.13572E+07
 0.65570000E+02  0.12626E+07
 0.65619995E+02  0.11122E+07
 0.65669998E+02  0.92009E+06
 0.65720001E+02  0.84605E+06
 0.65769997E+02  0.89652E+06
 0.65820000E+02  0.98234E+06
 0.65869995E+02  0.10030E+07
 0.65919998E+02  0.94771E+06
 0.65970001E+02  0.86446E+06
 0.66019997E+02  0.84826E+06
 0.66070000E+02  0.84193E+06
 0.66119995E+02  0.77450E+06
 0.66169998E+02  0.74498E+06
 0.66220001E+02  0.77232E+06
 0.66269997E+02  0.85481E+06
 0.66320000E+02  0.92271E+06
 0.66369995E+02  0.92610E+06
 0.66419998E+02  0.90580E+06
 0.66470001E+02  0.91790E+06
 0.66519997E+02  0.97450E+06
 0.66570000E+02  0.94882E+06
 0.66619995E+02  0.77124E+06
 0.66669998E+02  0.49623E+06
 0.66720001E+02  0.23008E+06
 0.66769997E+02 -0.11657E+05
 0.66820000E+02 -0.30094E+06
 0.66869995E+02 -0.62170E+06
 0.66919998E+02 -0.92890E+06
 0.66970001E+02 -0.11868E+07
 0.67019997E+02 -0.13735E+07
 0.67070000E+02 -0.14891E+07
 0.67119995E+02 -0.15642E+07
 0.67169998E+02 -0.15771E+07
 0.67220001E+02 -0.14968E+07
 0.67269997E+02 -0.14187E+07
 0.67320000E+02 -0.13316E+07
 0.67369995E+02 -0.11889E+07
 0.67419998E+02 -0.10299E+07
 0.67470001E+02 -0.84892E+06
 0.67519997E+02 -0.66278E+06
 0.67570000E+02 -0.47951E+06
 0.67619995E+02 -0.36592E+06
 0.67669998E+02 -0.35052E+06
 0.67720001E+02 -0.35297E+06
 0.67769997E+02 -0.37428E+06
 0.67820000E+02 -0.36384E+06
 0.67869995E+02 -0.29806E+06
 0.67919998E+02 -0.21956E+06
 0.67970001E+02 -0.13206E+06
 0.68019997E+02 -0.94086E+05
 0.68070000E+02 -0.11784E+06
 0.68119995E+02 -0.18896E+06
 0.68169998E+02 -0.24201E+06
 0.68220001E+02 -0.23546E+06
 0.68269997E+02 -0.20449E+06
 0.68320000E+02 -0.12970E+06
 0.68369995E+02 -0.62389E+05
 0.68419998E+02  0.17593E+05
 0.68470001E+02  0.76882E+05
 0.68519997E+02  0.81237E+05
 0.68570000E+02  0.17945E+06
 0.68619995E+02  0.30164E+06
 0.68669998E+02  0.40093E+06
 0.68720001E+02  0.49022E+06
 0.68769997E+02  0.52928E+06
 0.68820000E+02  0.53560E+06
 0.68869995E+02  0.47670E+06
 0.68919998E+02  0.40276E+06
 0.68970001E+02  0.29556E+06
 0.69019997E+02  0.16284E+06
 0.69070000E+02  0.30229E+05
 0.69119995E+02 -0.11989E+06
 0.69169998E+02 -0.23007E+06
 0.69220001E+02 -0.35554E+06
 0.69269997E+02 -0.42895E+06
 0.69320000E+02 -0.40312E+06
 0.69369995E+02 -0.38034E+06
 0.69419998E+02 -0.40082E+06
 0.69470001E+02 -0.45163E+06
 0.69519997E+02 -0.46304E+06
 0.69570000E+02 -0.43824E+06
 0.69619995E+02 -0.35413E+06
 0.69669998E+02 -0.29054E+06
 0.69720001E+02 -0.37518E+06
 0.69769997E+02 -0.52328E+06
 0.69820000E+02 -0.64889E+06
 0.69869995E+02 -0.70951E+06
 0.69919998E+02 -0.70189E+06
 0.69970001E+02 -0.63452E+06
 0.70019997E+02 -0.53974E+06
 0.70070000E+02 -0.45941E+06
 0.70119995E+02 -0.39784E+06
 0.70169998E+02 -0.33765E+06
 0.70220001E+02 -0.20943E+06
 0.70269997E+02 -0.50801E+05
 0.70320000E+02  0.17091E+05
 0.70369995E+02 -0.37710E+05
 0.70419998E+02 -0.14252E+06
 0.70470001E+02 -0.16741E+06
 0.70519997E+02 -0.57446E+05
 0.70570000E+02  0.98958E+05
 0.70619995E+02  0.19722E+06
 0.70669998E+02  0.20515E+06
 0.70720001E+02  0.15342E+06
 0.70769997E+02  0.80356E+05
 0.70820000E+02  0.14792E+05
 0.70869995E+02 -0.18841E+05
 0.70919998E+02 -0.29193E+05
 0.70970001E+02  0.33580E+04
 0.71019997E+02  0.82022E+05
 0.71070000E+02  0.19353E+06
 0.71119995E+02  0.34024E+06
 0.71169998E+02  0.43799E+06
 0.71220001E+02  0.37947E+06
 0.71269997E+02  0.25447E+06
 0.71320000E+02  0.21210E+06
 0.71369995E+02  0.22148E+06
 0.71419998E+02  0.25068E+06
 0.71470001E+02  0.26044E+06
 0.71519997E+02  0.22553E+06
 0.71570000E+02  0.16910E+06
 0.71619995E+02  0.69977E+05
 0.71669998E+02 -0.39103E+05
 0.71720001E+02 -0.14045E+06
 0.71769997E+02 -0.24214E+06
 0.71820000E+02 -0.36014E+06
 0.71869995E+02 -0.47074E+06
 0.71919998E+02 -0.52476E+06
 0.71970001E+02 -0.52403E+06
 0.72019997E+02 -0.47355E+06
 0.72070000E+02 -0.40388E+06
 0.72119995E+02 -0.32201E+06
 0.72169998E+02 -0.23455E+06
 0.72220001E+02 -0.18561E+06
 0.72269997E+02 -0.22132E+06
 0.72320000E+02 -0.33904E+06
 0.72369995E+02 -0.51315E+06
 0.72419998E+02 -0.71747E+06
 0.72470001E+02 -0.88655E+06
 0.72519997E+02 -0.98768E+06
 0.72570000E+02 -0.10396E+07
 0.72619995E+02 -0.10923E+07
 0.72669998E+02 -0.11653E+07
 0.72720001E+02 -0.12252E+07
 0.72769997E+02 -0.12660E+07
 0.72820000E+02 -0.12834E+07
 0.72869995E+02 -0.12491E+07
 0.72919998E+02 -0.11523E+07
 0.72970001E+02 -0.96849E+06
 0.73019997E+02 -0.74079E+06
 0.73070000E+02 -0.56578E+06
 0.73119995E+02 -0.46320E+06
 0.73169998E+02 -0.43083E+06
 0.73220001E+02 -0.40895E+06
 0.73269997E+02 -0.35524E+06
 0.73320000E+02 -0.28806E+06
 0.73369995E+02 -0.18290E+06
 0.73419998E+02 -0.30412E+05
 0.73470001E+02  0.17335E+06
 0.73519997E+02  0.42543E+06
 0.73570000E+02  0.68476E+06
 0.73619995E+02  0.88161E+06
 0.73669998E+02  0.98392E+06
 0.73720001E+02  0.10544E+07
 0.73769997E+02  0.11248E+07
 0.73820000E+02  0.11738E+07
 0.73869995E+02  0.12046E+07
 0.73919998E+02  0.12233E+07
 0.73970001E+02  0.12517E+07
 0.74019997E+02  0.12514E+07
 0.74070000E+02  0.11665E+07
 0.74119995E+02  0.10147E+07
 0.74169998E+02  0.80379E+06
 0.74220001E+02  0.59240E+06
 0.74269997E+02  0.39254E+06
 0.74320000E+02  0.15646E+06
 0.74369995E+02 -0.10407E+06
 0.74419998E+02 -0.35731E+06
 0.74470001E+02 -0.56006E+06
 0.74519997E+02 -0.70728E+06
 0.74570000E+02 -0.79021E+06
 0.74619995E+02 -0.83870E+06
 0.74669998E+02 -0.89176E+06
 0.74720001E+02 -0.94180E+06
 0.74769997E+02 -0.99986E+06
 0.74820000E+02 -0.10407E+07
 0.74869995E+02 -0.10589E+07
 0.74919998E+02 -0.10588E+07
 0.74970001E+02 -0.10709E+07
 0.75019997E+02 -0.10984E+07
 0.75070000E+02 -0.10558E+07
 0.75119995E+02 -0.93655E+06
 0.75169998E+02 -0.76222E+06
 0.75220001E+02 -0.58004E+06
 0.75269997E+02 -0.41708E+06
 0.75320000E+02 -0.22953E+06
 0.75369995E+02 -0.23244E+05
 0.75419998E+02  0.22287E+06
 0.75470001E+02  0.49170E+06
 0.75519997E+02  0.70877E+06
 0.75570000E+02  0.83914E+06
 0.75619995E+02  0.87870E+06
 0.75669998E+02  0.83909E+06
 0.75720001E+02  0.70560E+06
 0.75769997E+02  0.51834E+06
 0.75820000E+02  0.31028E+06
 0.75869995E+02  0.10960E+06
 0.75919998E+02 -0.52140E+05
 0.75970001E+02 -0.23783E+06
 0.76019997E+02 -0.48226E+06
 0.76070000E+02 -0.77300E+06
 0.76119995E+02 -0.10764E+07
 0.76169998E+02 -0.13507E+07
 0.76220001E+02 -0.15246E+07
 0.76269997E+02 -0.15680E+07
 0.76320000E+02 -0.15401E+07
 0.76369995E+02 -0.14761E+07
 0.76419998E+02 -0.14310E+07
 0.76470001E+02 -0.14004E+07
 0.76519997E+02 -0.13635E+07
 0.76570000E+02 -0.13205E+07
 0.76619995E+02 -0.12019E+07
 0.76669998E+02 -0.10170E+07
 0.76720001E+02 -0.85029E+06
 0.76769997E+02 -0.75217E+06
 0.76820000E+02 -0.73350E+06
 0.76869995E+02 -0.75308E+06
 0.76919998E+02 -0.74940E+06
 0.76970001E+02 -0.73456E+06
 0.77019997E+02 -0.69656E+06
 0.77070000E+02 -0.62712E+06
 0.77119995E+02 -0.56416E+06
 0.77169998E+02 -0.49981E+06
 0.77220001E+02 -0.43987E+06
 0.77269997E+02 -0.35638E+06
 0.77320000E+02 -0.25670E+06
 0.77369995E+02 -0.16838E+06
 0.77419998E+02 -0.89417E+05
 0.77470001E+02 -0.25146E+05
 0.77519997E+02  0.45228E+05
 0.77570000E+02  0.10280E+06
 0.77619995E+02  0.14681E+06
 0.77669998E+02  0.17073E+06
 0.77720001E+02  0.19813E+06
 0.77769997E+02  0.28195E+06
 0.77820000E+02  0.38360E+06
 0.77869995E+02  0.49172E+06
 0.77919998E+02  0.59893E+06
 0.77970001E+02  0.67353E+06
 0.78019997E+02  0.71029E+06
 0.78070000E+02  0.72256E+06
 0.78119995E+02  0.73059E+06
 0.78169998E+02  0.77105E+06
 0.78220001E+02  0.88352E+06
 0.78269997E+02  0.10089E+07
 0.78320000E+02  0.10734E+07
 0.78369995E+02  0.11010E+07
 0.78419998E+02  0.11497E+07
 0.78470001E+02  0.12407E+07
 0.78519997E+02  0.13135E+07
 0.78570000E+02  0.12628E+07
 0.78619995E+02  0.10754E+07
 0.78669998E+02  0.80401E+06
 0.78720001E+02  0.50136E+06
 0.78769997E+02  0.20157E+06
 0.78820000E+02 -0.89073E+05
 0.78869995E+02 -0.33763E+06
 0.78919998E+02 -0.53922E+06
 0.78970001E+02 -0.70818E+06
 0.79019997E+02 -0.84092E+06
 0.79070000E+02 -0.92968E+06
 0.79119995E+02 -0.98093E+06
 0.79169998E+02 -0.10097E+07
 0.79220001E+02 -0.99616E+06
 0.79269997E+02 -0.96019E+06
 0.79320000E+02 -0.89939E+06
 0.79369995E+02 -0.80216E+06
 0.79419998E+02 -0.73808E+06
 0.79470001E+02 -0.72488E+06
 0.79519997E+02 -0.77929E+06
 0.79570000E+02 -0.90326E+06
 0.79619995E+02 -0.10186E+07
 0.79669998E+02 -0.10546E+07
 0.79720001E+02 -0.99581E+06
 0.79769997E+02 -0.87465E+06
 0.79820000E+02 -0.70920E+06
 0.79869995E+02 -0.52385E+06
 0.79919998E+02 -0.33172E+06
 0.79970001E+02 -0.15764E+06
 0.80019997E+02 -0.29357E+05
 0.80070000E+02  0.44615E+05
 0.80119995E+02  0.52213E+05
 0.80169998E+02  0.38919E+05
 0.80220001E+02  0.43668E+05
 0.80269997E+02  0.50813E+05
 0.80320000E+02  0.14347E+05
 0.80369995E+02 -0.81500E+05
 0.80419998E+02 -0.22453E+06
 0.80470001E+02 -0.40416E+06
 0.80519997E+02 -0.61494E+06
 0.80570000E+02 -0.83055E+06
 0.80619995E+02 -0.96674E+06
 0.80669998E+02 -0.10309E+07
 0.80720001E+02 -0.10822E+07
 0.80769997E+02 -0.11541E+07
 0.80820000E+02 -0.12445E+07
 0.80869995E+02 -0.13156E+07
 0.80919998E+02 -0.14032E+07
 0.80970001E+02 -0.15054E+07
 0.81019997E+02 -0.16038E+07
 0.81070000E+02 -0.17274E+07
 0.81119995E+02 -0.18907E+07
 0.81169998E+02 -0.20844E+07
 0.81220001E+02 -0.22446E+07
 0.81269997E+02 -0.23415E+07
 0.81320000E+02 -0.23661E+07
 0.81369995E+02 -0.23261E+07
 0.81419998E+02 -0.22467E+07
 0.81470001E+02 -0.20899E+07
 0.81519997E+02 -0.18791E+07
 0.81570000E+02 -0.16564E+07
 0.81619995E+02 -0.14249E+07
 0.81669998E+02 -0.12228E+07
 0.81720001E+02 -0.10430E+07
 0.81769997E+02 -0.87880E+06
 0.81820000E+02 -0.71049E+06
 0.81869995E+02 -0.53478E+06
 0.81919998E+02 -0.38151E+06
 0.81970001E+02 -0.21504E+06
 0.82019997E+02 -0.39621E+05
 0.82070000E+02  0.12782E+06
 0.82119995E+02  0.30240E+06
 0.82169998E+02  0.49660E+06
 0.82220001E+02  0.69128E+06
 0.82269997E+02  0.87408E+06
 0.82320000E+02  0.10316E+07
 0.82369995E+02  0.11150E+07
 0.82419998E+02  0.11289E+07
 0.82470001E+02  0.10982E+07
 0.82519997E+02  0.10695E+07
 0.82570000E+02  0.10524E+07
 0.82619995E+02  0.10404E+07
 0.82669998E+02  0.10375E+07
 0.82720001E+02  0.10278E+07
 0.82769997E+02  0.10161E+07
 0.82820000E+02  0.98905E+06
 0.82869995E+02  0.95579E+06
 0.82919998E+02  0.90076E+06
 0.82970001E+02  0.82915E+06
 0.83019997E+02  0.75192E+06
 0.83070000E+02  0.65542E+06
 0.83119995E+02  0.56336E+06
 0.83169998E+02  0.44408E+06
 0.83220001E+02  0.29542E+06
 0.83269997E+02  0.12459E+06
 0.83320000E+02 -0.62349E+05
 0.83369995E+02 -0.18462E+06
 0.83419998E+02 -0.23100E+06
 0.83470001E+02 -0.27520E+06
 0.83519997E+02 -0.34831E+06
 0.83570000E+02 -0.43272E+06
 0.83619995E+02 -0.50034E+06
 0.83669998E+02 -0.54170E+06
 0.83720001E+02 -0.59871E+06
 0.83769997E+02 -0.68748E+06
 0.83820000E+02 -0.79960E+06
 0.83869995E+02 -0.91471E+06
 0.83919998E+02 -0.99672E+06
 0.83970001E+02 -0.10468E+07
 0.84019997E+02 -0.10763E+07
 0.84070000E+02 -0.11384E+07
 0.84119995E+02 -0.12544E+07
 0.84169998E+02 -0.13811E+07
 0.84220001E+02 -0.14700E+07
 0.84269997E+02 -0.14718E+07
 0.84320000E+02 -0.14225E+07
 0.84369995E+02 -0.13696E+07
 0.84419998E+02 -0.12961E+07
 0.84470001E+02 -0.11911E+07
 0.84519997E+02 -0.10616E+07
 0.84570000E+02 -0.95184E+06
 0.84619995E+02 -0.89006E+06
 0.84669998E+02 -0.85219E+06
 0.84720001E+02 -0.83141E+06
 0.84769997E+02 -0.80806E+06
 0.84820000E+02 -0.79564E+06
 0.84869995E+02 -0.80524E+06
 0.84919998E+02 -0.79978E+06
 0.84970001E+02 -0.78320E+06
 0.85019997E+02 -0.73508E+06
 0.85070000E+02 -0.66778E+06
 0.85119995E+02 -0.61994E+06
 0.85169998E+02 -0.58289E+06
 0.85220001E+02 -0.53359E+06
 0.85269997E+02 -0.44592E+06
 0.85320000E+02 -0.35666E+06
 0.85369995E+02 -0.30375E+06
 0.85419998E+02 -0.29141E+06
 0.85470001E+02 -0.32837E+06
 0.85519997E+02 -0.38794E+06
 0.85570000E+02 -0.40626E+06
 0.85619995E+02 -0.35552E+06
 0.85669998E+02 -0.25862E+06
 0.85720001E+02 -0.13566E+06
 0.85769997E+02  0.27160E+04
 0.85820000E+02  0.15283E+06
 0.85869995E+02  0.29694E+06
 0.85919998E+02  0.42616E+06
 0.85970001E+02  0.52605E+06
 0.86019997E+02  0.57970E+06
 0.86070000E+02  0.60167E+06
 0.86119995E+02  0.59557E+06
 0.86169998E+02  0.58474E+06
 0.86220001E+02  0.57311E+06
 0.86269997E+02  0.54996E+06
 0.86320000E+02  0.53843E+06
 0.86369995E+02  0.55783E+06
 0.86419998E+02  0.62382E+06
 0.86470001E+02  0.72992E+06
 0.86519997E+02  0.83547E+06
 0.86570000E+02  0.87655E+06
 0.86619995E+02  0.81255E+06
 0.86669998E+02  0.65276E+06
 0.86720001E+02  0.46766E+06
 0.86769997E+02  0.31704E+06
 0.86820000E+02  0.20101E+06
 0.86869995E+02  0.10102E+06
 0.86919998E+02 -0.11293E+05
 0.86970001E+02 -0.12508E+06
 0.87019997E+02 -0.23982E+06
 0.87070000E+02 -0.35863E+06
 0.87119995E+02 -0.47938E+06
 0.87169998E+02 -0.59013E+06
 0.87220001E+02 -0.63963E+06
 0.87269997E+02 -0.63585E+06
 0.87320000E+02 -0.58696E+06
 0.87369995E+02 -0.53424E+06
 0.87419998E+02 -0.54500E+06
 0.87470001E+02 -0.60240E+06
 0.87519997E+02 -0.68047E+06
 0.87570000E+02 -0.73444E+06
 0.87619995E+02 -0.74172E+06
 0.87669998E+02 -0.72782E+06
 0.87720001E+02 -0.73103E+06
 0.87769997E+02 -0.79368E+06
 0.87820000E+02 -0.91514E+06
 0.87869995E+02 -0.10700E+07
 0.87919998E+02 -0.12254E+07
 0.87970001E+02 -0.13598E+07
 0.88019997E+02 -0.14502E+07
 0.88070000E+02 -0.14861E+07
 0.88119995E+02 -0.14803E+07
 0.88169998E+02 -0.14389E+07
 0.88220001E+02 -0.13886E+07
 0.88269997E+02 -0.13361E+07
 0.88320000E+02 -0.12842E+07
 0.88369995E+02 -0.12360E+07
 0.88419998E+02 -0.11583E+07
 0.88470001E+02 -0.10679E+07
 0.88519997E+02 -0.98125E+06
 0.88570000E+02 -0.91006E+06
 0.88619995E+02 -0.87968E+06
 0.88669998E+02 -0.84606E+06
 0.88720001E+02 -0.78607E+06
 0.88769997E+02 -0.70139E+06
 0.88820000E+02 -0.59559E+06
 0.88869995E+02 -0.48545E+06
 0.88919998E+02 -0.38573E+06
 0.88970001E+02 -0.30490E+06
 0.89019997E+02 -0.23860E+06
 0.89070000E+02 -0.21791E+06
 0.89119995E+02 -0.23844E+06
 0.89169998E+02 -0.27473E+06
 0.89220001E+02 -0.31687E+06
 0.89269997E+02 -0.34005E+06
 0.89320000E+02 -0.32394E+06
 0.89369995E+02 -0.28572E+06
 0.89419998E+02 -0.25947E+06
 0.89470001E+02 -0.23978E+06
 0.89519997E+02 -0.24538E+06
 0.89570000E+02 -0.26791E+06
 0.89619995E+02 -0.28899E+06
 0.89669998E+02 -0.31719E+06
 0.89720001E+02 -0.33102E+06
 0.89769997E+02 -0.33097E+06
 0.89820000E+02 -0.32014E+06
 0.89869995E+02 -0.31403E+06
 0.89919998E+02 -0.32908E+06
 0.89970001E+02 -0.34080E+06
 0.90019997E+02 -0.31883E+06
 0.90070000E+02 -0.24518E+06
 0.90119995E+02 -0.13100E+06
 0.90169998E+02 -0.23233E+05
 0.90220001E+02  0.48787E+05
 0.90269997E+02  0.88165E+05
 0.90320000E+02  0.98426E+05
 0.90369995E+02  0.85772E+05
 0.90419998E+02  0.55181E+05
 0.90470001E+02  0.16214E+05
 0.90519997E+02 -0.18103E+05
 0.90570000E+02 -0.26919E+05
 0.90619995E+02 -0.12684E+05
 0.90669998E+02  0.14229E+05
 0.90720001E+02  0.60563E+05
 0.90769997E+02  0.10171E+06
 0.90820000E+02  0.10525E+06
 0.90869995E+02  0.68754E+05
 0.90919998E+02  0.21880E+05
 0.90970001E+02 -0.13408E+05
 0.91019997E+02 -0.39033E+05
 0.91070000E+02 -0.73609E+05
 0.91119995E+02 -0.12962E+06
 0.91169998E+02 -0.19346E+06
 0.91220001E+02 -0.26240E+06
 0.91269997E+02 -0.33354E+06
 0.91320000E+02 -0.38991E+06
 0.91369995E+02 -0.43670E+06
 0.91419998E+02 -0.50219E+06
 0.91470001E+02 -0.60275E+06
 0.91519997E+02 -0.73005E+06
 0.91570000E+02 -0.84998E+06
 0.91619995E+02 -0.93703E+06
 0.91669998E+02 -0.10021E+07
 0.91720001E+02 -0.10699E+07
 0.91769997E+02 -0.11550E+07
 0.91820000E+02 -0.12573E+07
 0.91869995E+02 -0.13629E+07
 0.91919998E+02 -0.14408E+07
 0.91970001E+02 -0.14750E+07
 0.92019997E+02 -0.14749E+07
 0.92070000E+02 -0.14694E+07
 0.92119995E+02 -0.14812E+07
 0.92169998E+02 -0.14993E+07
 0.92220001E+02 -0.15011E+07
 0.92269997E+02 -0.14829E+07
 0.92320000E+02 -0.14550E+07
 0.92369995E+02 -0.14132E+07
 0.92419998E+02 -0.13535E+07
 0.92470001E+02 -0.12694E+07
 0.92519997E+02 -0.11694E+07
 0.92570000E+02 -0.10824E+07
 0.92619995E+02 -0.10252E+07
 0.92669998E+02 -0.10177E+07
 0.92720001E+02 -0.10478E+07
 0.92769997E+02 -0.10635E+07
 0.92820000E+02 -0.10392E+07
 0.92869995E+02 -0.97895E+06
 0.92919998E+02 -0.89688E+06
 0.92970001E+02 -0.81344E+06
 0.93019997E+02 -0.74118E+06
 0.93070000E+02 -0.68343E+06
 0.93119995E+02 -0.63420E+06
 0.93169998E+02 -0.58623E+06
 0.93220001E+02 -0.54076E+06
 0.93269997E+02 -0.49500E+06
 0.93320000E+02 -0.44571E+06
 0.93369995E+02 -0.40853E+06
 0.93419998E+02 -0.40623E+06
 0.93470001E+02 -0.42524E+06
 0.93519997E+02 -0.43357E+06
 0.93570000E+02 -0.43031E+06
 0.93619995E+02 -0.42771E+06
 0.93669998E+02 -0.42776E+06
 0.93720001E+02 -0.41109E+06
 0.93769997E+02 -0.37253E+06
 0.93820000E+02 -0.33873E+06
 0.93869995E+02 -0.32709E+06
 0.93919998E+02 -0.34295E+06
 0.93970001E+02 -0.36584E+06
 0.94019997E+02 -0.36164E+06
 0.94070000E+02 -0.32318E+06
 0.94119995E+02 -0.26972E+06
 0.94169998E+02 -0.23911E+06
 0.94220001E+02 -0.23520E+06
 0.94269997E+02 -0.22643E+06
 0.94320000E+02 -0.21084E+06
 0.94369995E+02 -0.19988E+06
 0.94419998E+02 -0.20685E+06
 0.94470001E+02 -0.22239E+06
 0.94519997E+02 -0.22160E+06
 0.94570000E+02 -0.18986E+06
 0.94619995E+02 -0.13437E+06
 0.94669998E+02 -0.91511E+05
 0.94720001E+02 -0.50303E+05
 0.94769997E+02  0.43900E+04
 0.94820000E+02  0.72668E+05
 0.94869995E+02  0.15143E+06
 0.94919998E+02  0.21625E+06
 0.94970001E+02  0.27453E+06
 0.95019997E+02  0.31670E+06
 0.95070000E+02  0.33869E+06
 0.95119995E+02  0.35758E+06
 0.95169998E+02  0.38022E+06
 0.95220001E+02  0.43719E+06
 0.95269997E+02  0.50686E+06
 0.95320000E+02  0.52026E+06
 0.95369995E+02  0.44997E+06
 0.95419998E+02  0.31934E+06
 0.95470001E+02  0.17871E+06
 0.95519997E+02  0.49807E+05
 0.95570000E+02 -0.67520E+05
 0.95619995E+02 -0.17694E+06
 0.95669998E+02 -0.28537E+06
 0.95720001E+02 -0.37915E+06
 0.95769997E+02 -0.46602E+06
 0.95820000E+02 -0.55476E+06
 0.95869995E+02 -0.64266E+06
 0.95919998E+02 -0.74512E+06
 0.95970001E+02 -0.85362E+06
 0.96019997E+02 -0.95407E+06
 0.96070000E+02 -0.10269E+07
 0.96119995E+02 -0.10645E+07
 0.96169998E+02 -0.10793E+07
 0.96220001E+02 -0.10714E+07
 0.96269997E+02 -0.10476E+07
 0.96320000E+02 -0.10065E+07
 0.96369995E+02 -0.95995E+06
 0.96419998E+02 -0.91386E+06
 0.96470001E+02 -0.84732E+06
 0.96519997E+02 -0.77417E+06
 0.96570000E+02 -0.70257E+06
 0.96619995E+02 -0.61949E+06
 0.96669998E+02 -0.53664E+06
 0.96720001E+02 -0.46403E+06
 0.96769997E+02 -0.40463E+06
 0.96820000E+02 -0.35771E+06
 0.96869995E+02 -0.31541E+06
 0.96919998E+02 -0.27231E+06
 0.96970001E+02 -0.22910E+06
 0.97019997E+02 -0.20778E+06
 0.97070000E+02 -0.22052E+06
 0.97119995E+02 -0.24753E+06
 0.97169998E+02 -0.26364E+06
 0.97220001E+02 -0.25155E+06
 0.97269997E+02 -0.20060E+06
 0.97320000E+02 -0.13762E+06
 0.97369995E+02 -0.12287E+06
 0.97419998E+02 -0.17422E+06
 0.97470001E+02 -0.26672E+06
 0.97519997E+02 -0.36170E+06
 0.97570000E+02 -0.42432E+06
 0.97619995E+02 -0.46128E+06
 0.97669998E+02 -0.49462E+06
 0.97720001E+02 -0.54330E+06
 0.97769997E+02 -0.61406E+06
 0.97820000E+02 -0.69345E+06
 0.97869995E+02 -0.78698E+06
 0.97919998E+02 -0.88763E+06
 0.97970001E+02 -0.96402E+06
 0.98019997E+02 -0.10022E+07
 0.98070000E+02 -0.10059E+07
 0.98119995E+02 -0.98050E+06
 0.98169998E+02 -0.93020E+06
 0.98220001E+02 -0.87821E+06
 0.98269997E+02 -0.85670E+06
 0.98320000E+02 -0.88615E+06
 0.98369995E+02 -0.93274E+06
 0.98419998E+02 -0.93195E+06
 0.98470001E+02 -0.87270E+06
 0.98519997E+02 -0.77772E+06
 0.98570000E+02 -0.68100E+06
 0.98619995E+02 -0.61484E+06
 0.98669998E+02 -0.58422E+06
 0.98720001E+02 -0.57313E+06
 0.98769997E+02 -0.57380E+06
 0.98820000E+02 -0.59501E+06
 0.98869995E+02 -0.63132E+06
 0.98919998E+02 -0.67463E+06
 0.98970001E+02 -0.72389E+06
 0.99019997E+02 -0.77181E+06
 0.99070000E+02 -0.79962E+06
 0.99119995E+02 -0.79297E+06
 0.99169998E+02 -0.76416E+06
 0.99220001E+02 -0.73685E+06
 0.99269997E+02 -0.73282E+06
 0.99320000E+02 -0.74462E+06
 0.99369995E+02 -0.74273E+06
 0.99419998E+02 -0.70100E+06
 0.99470001E+02 -0.62214E+06
 0.99519997E+02 -0.55114E+06
 0.99570000E+02 -0.51543E+06
 0.99619995E+02 -0.51557E+06
 0.99669998E+02 -0.52962E+06
 0.99720001E+02 -0.52329E+06
 0.99769997E+02 -0.48865E+06
 0.99820000E+02 -0.42487E+06
 0.99869995E+02 -0.33497E+06
 0.99919998E+02 -0.23545E+06
 0.99970001E+02 -0.13608E+06
 0.10002000E+03 -0.55504E+05
 0.10007000E+03 -0.12299E+05
 0.10012000E+03  0.82690E+04
 0.10017000E+03  0.19135E+05
 0.10022000E+03  0.33109E+05
 0.10027000E+03  0.59419E+05
 0.10032000E+03  0.81028E+05
 0.10037000E+03  0.93455E+05
 0.10042000E+03  0.88791E+05
 0.10047000E+03  0.51353E+05
 0.10052000E+03 -0.16997E+05
 0.10057000E+03 -0.10198E+06
 0.10062000E+03 -0.18490E+06
 0.10067000E+03 -0.26751E+06
 0.10072000E+03 -0.35142E+06
 0.10077000E+03 -0.42636E+06
 0.10082000E+03 -0.48653E+06
 0.10087000E+03 -0.54153E+06
 0.10092000E+03 -0.60265E+06
 0.10097000E+03 -0.65830E+06
 0.10102000E+03 -0.70478E+06
 0.10107000E+03 -0.74029E+06
 0.10112000E+03 -0.75275E+06
 0.10117000E+03 -0.73702E+06
 0.10122000E+03 -0.69665E+06
 0.10127000E+03 -0.65146E+06
 0.10132000E+03 -0.63017E+06
 0.10137000E+03 -0.64846E+06
 0.10142000E+03 -0.70372E+06
 0.10147000E+03 -0.78648E+06
 0.10152000E+03 -0.88680E+06
 0.10157000E+03 -0.98290E+06
 0.10162000E+03 -0.10482E+07
 0.10167000E+03 -0.10774E+07
 0.10172000E+03 -0.10829E+07
 0.10177000E+03 -0.10922E+07
 0.10182000E+03 -0.11258E+07
 0.10187000E+03 -0.11752E+07
 0.10192000E+03 -0.12266E+07
 0.10197000E+03 -0.12638E+07
 0.10202000E+03 -0.12745E+07
 0.10207000E+03 -0.12515E+07
 0.10212000E+03 -0.11900E+07
 0.10217000E+03 -0.11096E+07
 0.10222000E+03 -0.10347E+07
 0.10227000E+03 -0.97714E+06
 0.10232000E+03 -0.94065E+06
 0.10237000E+03 -0.91597E+06
 0.10242000E+03 -0.88386E+06
 0.10247000E+03 -0.83026E+06
 0.10252000E+03 -0.75016E+06
 0.10257000E+03 -0.64872E+06
 0.10262000E+03 -0.55341E+06
 0.10267000E+03 -0.46724E+06
 0.10272000E+03 -0.37882E+06
 0.10277000E+03 -0.30006E+06
 0.10282000E+03 -0.23460E+06
 0.10287000E+03 -0.18338E+06
 0.10292000E+03 -0.16128E+06
 0.10297000E+03 -0.18570E+06
 0.10302000E+03 -0.24727E+06
 0.10307000E+03 -0.30455E+06
 0.10312000E+03 -0.30320E+06
 0.10317000E+03 -0.23502E+06
 0.10322000E+03 -0.14276E+06
 0.10327000E+03 -0.60098E+05
 0.10332000E+03 -0.37200E+03
 0.10337000E+03  0.42156E+05
 0.10342000E+03  0.55795E+05
 0.10347000E+03  0.28296E+05
 0.10352000E+03 -0.30087E+05
 0.10357000E+03 -0.10824E+06
 0.10362000E+03 -0.17480E+06
 0.10367000E+03 -0.20312E+06
 0.10372000E+03 -0.19245E+06
 0.10377000E+03 -0.16043E+06
 0.10382000E+03 -0.13028E+06
 0.10387000E+03 -0.11510E+06
 0.10392000E+03 -0.13184E+06
 0.10397000E+03 -0.17861E+06
 0.10402000E+03 -0.22626E+06
 0.10407000E+03 -0.26002E+06
 0.10412000E+03 -0.27877E+06
 0.10417000E+03 -0.28532E+06
 0.10422000E+03 -0.28158E+06
 0.10427000E+03 -0.26803E+06
 0.10432000E+03 -0.25140E+06
 0.10437000E+03 -0.23052E+06
 0.10442000E+03 -0.20863E+06
 0.10447000E+03 -0.19382E+06
 0.10452000E+03 -0.18640E+06
 0.10457000E+03 -0.18760E+06
 0.10462000E+03 -0.19776E+06
 0.10467000E+03 -0.21546E+06
 0.10472000E+03 -0.23676E+06
 0.10477000E+03 -0.25288E+06
 0.10482000E+03 -0.26953E+06
 0.10487000E+03 -0.30319E+06
 0.10492000E+03 -0.35001E+06
 0.10497000E+03 -0.40619E+06
 0.10502000E+03 -0.46507E+06
 0.10507000E+03 -0.51931E+06
 0.10512000E+03 -0.57294E+06
 0.10517000E+03 -0.62284E+06
 0.10522000E+03 -0.66864E+06
 0.10527000E+03 -0.70598E+06
 0.10532000E+03 -0.73575E+06
 0.10537000E+03 -0.75349E+06
 0.10542000E+03 -0.75176E+06
 0.10547000E+03 -0.74451E+06
 0.10552000E+03 -0.73650E+06
 0.10557000E+03 -0.72887E+06
 0.10562000E+03 -0.72692E+06
 0.10567000E+03 -0.73252E+06
 0.10572000E+03 -0.75085E+06
 0.10577000E+03 -0.77878E+06
 0.10582000E+03 -0.80923E+06
 0.10587000E+03 -0.83661E+06
 0.10592000E+03 -0.84394E+06
 0.10597000E+03 -0.82607E+06
 0.10602000E+03 -0.80271E+06
 0.10607000E+03 -0.78656E+06
 0.10612000E+03 -0.78164E+06
 0.10617000E+03 -0.78462E+06
 0.10622000E+03 -0.77955E+06
 0.10627000E+03 -0.77100E+06
 0.10632000E+03 -0.77276E+06
 0.10637000E+03 -0.78212E+06
 0.10642000E+03 -0.80587E+06
 0.10647000E+03 -0.84719E+06
 0.10652000E+03 -0.90712E+06
 0.10657000E+03 -0.98742E+06
 0.10662000E+03 -0.10699E+07
 0.10667000E+03 -0.11405E+07
 0.10672000E+03 -0.11900E+07
 0.10677000E+03 -0.12117E+07
 0.10682000E+03 -0.12047E+07
 0.10687000E+03 -0.11915E+07
 0.10692000E+03 -0.11861E+07
 0.10697000E+03 -0.11694E+07
 0.10702000E+03 -0.11410E+07
 0.10707000E+03 -0.10974E+07
 0.10712000E+03 -0.10454E+07
 0.10717000E+03 -0.99420E+06
 0.10722000E+03 -0.94241E+06
 0.10727000E+03 -0.90203E+06
 0.10732000E+03 -0.86014E+06
 0.10737000E+03 -0.81777E+06
 0.10742000E+03 -0.77234E+06
 0.10747000E+03 -0.71998E+06
 0.10752000E+03 -0.68311E+06
 0.10757000E+03 -0.63949E+06
 0.10762000E+03 -0.58345E+06
 0.10767000E+03 -0.52003E+06
 0.10772000E+03 -0.44709E+06
 0.10777000E+03 -0.38868E+06
 0.10782000E+03 -0.34024E+06
 0.10787000E+03 -0.30110E+06
 0.10792000E+03 -0.27055E+06
 0.10797000E+03 -0.23184E+06
 0.10802000E+03 -0.18900E+06
 0.10807000E+03 -0.16768E+06
 0.10812000E+03 -0.15952E+06
 0.10817000E+03 -0.15060E+06
 0.10822000E+03 -0.13898E+06
 0.10827000E+03 -0.12101E+06
 0.10832000E+03 -0.11765E+06
 0.10837000E+03 -0.11730E+06
 0.10842000E+03 -0.11822E+06
 0.10847000E+03 -0.11662E+06
 0.10852000E+03 -0.11498E+06
 0.10857000E+03 -0.12402E+06
 0.10862000E+03 -0.12304E+06
 0.10867000E+03 -0.12058E+06
 0.10872000E+03 -0.11075E+06
 0.10877000E+03 -0.10334E+06
 0.10882000E+03 -0.11841E+06
 0.10887000E+03 -0.14424E+06
 0.10892000E+03 -0.19113E+06
 0.10897000E+03 -0.25363E+06
 0.10902000E+03 -0.31703E+06
 0.10907000E+03 -0.38520E+06
 0.10912000E+03 -0.44462E+06
 0.10917000E+03 -0.48894E+06
 0.10922000E+03 -0.52403E+06
 0.10927000E+03 -0.55703E+06
 0.10932000E+03 -0.59996E+06
 0.10937000E+03 -0.64860E+06
 0.10942000E+03 -0.69426E+06
 0.10947000E+03 -0.73086E+06
 0.10952000E+03 -0.75840E+06
 0.10957000E+03 -0.77292E+06
 0.10962000E+03 -0.77162E+06
 0.10967000E+03 -0.76824E+06
 0.10972000E+03 -0.77036E+06
 0.10977000E+03 -0.77109E+06
 0.10982000E+03 -0.75353E+06
 0.10987000E+03 -0.70922E+06
 0.10992000E+03 -0.65300E+06
 0.10997000E+03 -0.61750E+06
 0.11002000E+03 -0.61527E+06
 0.11007000E+03 -0.62920E+06
 0.11012000E+03 -0.63313E+06
 0.11017000E+03 -0.60927E+06
 0.11022000E+03 -0.56655E+06
 0.11027000E+03 -0.52304E+06
 0.11032000E+03 -0.49666E+06
 0.11037000E+03 -0.48296E+06
 0.11042000E+03 -0.45756E+06
 0.11047000E+03 -0.41578E+06
 0.11052000E+03 -0.36833E+06
 0.11057000E+03 -0.33432E+06
 0.11062000E+03 -0.32791E+06
 0.11067000E+03 -0.34781E+06
 0.11072000E+03 -0.38728E+06
 0.11077000E+03 -0.43267E+06
 0.11082000E+03 -0.46779E+06
 0.11087000E+03 -0.48813E+06
 0.11092000E+03 -0.49395E+06
 0.11097000E+03 -0.50298E+06
 0.11102000E+03 -0.53989E+06
 0.11107000E+03 -0.59556E+06
 0.11112000E+03 -0.64987E+06
 0.11117000E+03 -0.68561E+06
 0.11122000E+03 -0.69566E+06
 0.11127000E+03 -0.68642E+06
 0.11132000E+03 -0.67123E+06
 0.11137000E+03 -0.67440E+06
 0.11142000E+03 -0.70439E+06
 0.11147000E+03 -0.74883E+06
 0.11152000E+03 -0.78842E+06
 0.11157000E+03 -0.80144E+06
 0.11162000E+03 -0.78676E+06
 0.11167000E+03 -0.75425E+06
 0.11172000E+03 -0.71889E+06
 0.11177000E+03 -0.69684E+06
 0.11182000E+03 -0.68172E+06
 0.11187000E+03 -0.67190E+06
 0.11192000E+03 -0.65867E+06
 0.11197000E+03 -0.63041E+06
 0.11202000E+03 -0.58187E+06
 0.11207000E+03 -0.50737E+06
 0.11212000E+03 -0.42425E+06
 0.11217000E+03 -0.35212E+06
 0.11222000E+03 -0.31104E+06
 0.11227000E+03 -0.29720E+06
 0.11232000E+03 -0.28781E+06
 0.11237000E+03 -0.27251E+06
 0.11242000E+03 -0.24756E+06
 0.11247000E+03 -0.22620E+06
 0.11252000E+03 -0.21514E+06
 0.11257000E+03 -0.21025E+06
 0.11262000E+03 -0.20690E+06
 0.11267000E+03 -0.20051E+06
 0.11272000E+03 -0.19897E+06
 0.11277000E+03 -0.20762E+06
 0.11282000E+03 -0.22399E+06
 0.11287000E+03 -0.24301E+06
 0.11292000E+03 -0.25503E+06
 0.11297000E+03 -0.25512E+06
 0.11302000E+03 -0.24882E+06
 0.11307000E+03 -0.24243E+06
 0.11312000E+03 -0.23265E+06
 0.11317000E+03 -0.22167E+06
 0.11322000E+03 -0.21466E+06
 0.11327000E+03 -0.21352E+06
 0.11332000E+03 -0.22777E+06
 0.11337000E+03 -0.25954E+06
 0.11342000E+03 -0.30162E+06
 0.11347000E+03 -0.34190E+06
 0.11352000E+03 -0.36281E+06
 0.11357000E+03 -0.36118E+06
 0.11362000E+03 -0.35766E+06
 0.11367000E+03 -0.36994E+06
 0.11372000E+03 -0.39492E+06
 0.11377000E+03 -0.42285E+06
 0.11382000E+03 -0.44832E+06
 0.11387000E+03 -0.48014E+06
 0.11392000E+03 -0.52714E+06
 0.11397000E+03 -0.58403E+06
 0.11402000E+03 -0.64738E+06
 0.11407000E+03 -0.70810E+06
 0.11412000E+03 -0.75324E+06
 0.11417000E+03 -0.77928E+06
 0.11422000E+03 -0.78049E+06
 0.11427000E+03 -0.76522E+06
 0.11432000E+03 -0.75225E+06
 0.11437000E+03 -0.74786E+06
 0.11442000E+03 -0.75393E+06
 0.11447000E+03 -0.75955E+06
 0.11452000E+03 -0.75018E+06
 0.11457000E+03 -0.72597E+06
 0.11462000E+03 -0.69445E+06
 0.11467000E+03 -0.66606E+06
 0.11472000E+03 -0.64404E+06
 0.11477000E+03 -0.62321E+06
 0.11482000E+03 -0.61113E+06
 0.11487000E+03 -0.61538E+06
 0.11492000E+03 -0.63199E+06
 0.11497000E+03 -0.65565E+06
 0.11502000E+03 -0.67666E+06
 0.11507000E+03 -0.68934E+06
 0.11512000E+03 -0.69403E+06
 0.11517000E+03 -0.69388E+06
 0.11522000E+03 -0.69624E+06
 0.11527000E+03 -0.70685E+06
 0.11532000E+03 -0.71718E+06
 0.11537000E+03 -0.72001E+06
 0.11542000E+03 -0.71234E+06
 0.11547000E+03 -0.68589E+06
 0.11552000E+03 -0.64613E+06
 0.11557000E+03 -0.60892E+06
 0.11562000E+03 -0.59418E+06
 0.11567000E+03 -0.60114E+06
 0.11572000E+03 -0.60506E+06
 0.11577000E+03 -0.59841E+06
 0.11582000E+03 -0.59451E+06
 0.11587000E+03 -0.60788E+06
 0.11592000E+03 -0.64090E+06
 0.11597000E+03 -0.67825E+06
 0.11602000E+03 -0.70220E+06
 0.11607000E+03 -0.70964E+06
 0.11612000E+03 -0.70779E+06
 0.11617000E+03 -0.71136E+06
 0.11622000E+03 -0.72160E+06
 0.11627000E+03 -0.72602E+06
 0.11632000E+03 -0.71976E+06
 0.11637000E+03 -0.69913E+06
 0.11642000E+03 -0.67122E+06
 0.11647000E+03 -0.64787E+06
 0.11652000E+03 -0.63278E+06
 0.11657000E+03 -0.62914E+06
 0.11662000E+03 -0.63018E+06
 0.11667000E+03 -0.62410E+06
 0.11672000E+03 -0.61080E+06
 0.11677000E+03 -0.59015E+06
 0.11682000E+03 -0.55430E+06
 0.11687000E+03 -0.50886E+06
 0.11692000E+03 -0.46571E+06
 0.11697000E+03 -0.42714E+06
 0.11702000E+03 -0.39608E+06
 0.11707000E+03 -0.37498E+06
 0.11712000E+03 -0.36329E+06
 0.11717000E+03 -0.35457E+06
 0.11722000E+03 -0.34121E+06
 0.11727000E+03 -0.32264E+06
 0.11732000E+03 -0.30598E+06
 0.11737000E+03 -0.30283E+06
 0.11742000E+03 -0.31754E+06
 0.11747000E+03 -0.34612E+06
 0.11752000E+03 -0.38230E+06
 0.11757000E+03 -0.42525E+06
 0.11762000E+03 -0.47119E+06
 0.11767000E+03 -0.51528E+06
 0.11772000E+03 -0.55308E+06
 0.11777000E+03 -0.57951E+06
 0.11782000E+03 -0.60381E+06
 0.11787000E+03 -0.62658E+06
 0.11792000E+03 -0.64443E+06
 0.11797000E+03 -0.66181E+06
 0.11802000E+03 -0.68664E+06
 0.11807000E+03 -0.72508E+06
 0.11812000E+03 -0.76945E+06
 0.11817000E+03 -0.81178E+06
 0.11822000E+03 -0.83995E+06
 0.11827000E+03 -0.84897E+06
 0.11832000E+03 -0.84450E+06
 0.11837000E+03 -0.83551E+06
 0.11842000E+03 -0.82816E+06
 0.11847000E+03 -0.81716E+06
 0.11852000E+03 -0.80332E+06
 0.11857000E+03 -0.78627E+06
 0.11862000E+03 -0.76364E+06
 0.11867000E+03 -0.73760E+06
 0.11872000E+03 -0.71212E+06
 0.11877000E+03 -0.69038E+06
 0.11882000E+03 -0.67300E+06
 0.11887000E+03 -0.66051E+06
 0.11892000E+03 -0.65300E+06
 0.11897000E+03 -0.64016E+06
 0.11902000E+03 -0.60736E+06
 0.11907000E+03 -0.56269E+06
 0.11912000E+03 -0.51572E+06
 0.11917000E+03 -0.47696E+06
 0.11922000E+03 -0.45448E+06
 0.11927000E+03 -0.43875E+06
 0.11932000E+03 -0.43122E+06
 0.11937000E+03 -0.43266E+06
 0.11942000E+03 -0.43803E+06
 0.11947000E+03 -0.44596E+06
 0.11952000E+03 -0.46135E+06
 0.11957000E+03 -0.49043E+06
 0.11962000E+03 -0.52266E+06
 0.11967000E+03 -0.54492E+06
 0.11972000E+03 -0.55283E+06
 0.11977000E+03 -0.55219E+06
 0.11982000E+03 -0.55637E+06
 0.11987000E+03 -0.56585E+06
 0.11992000E+03 -0.57354E+06
 0.11997000E+03 -0.57501E+06
 0.12002000E+03 -0.56505E+06
 0.12007000E+03 -0.54270E+06
 0.12012000E+03 -0.51058E+06
 0.12017000E+03 -0.47703E+06
 0.12022000E+03 -0.45188E+06
 0.12027000E+03 -0.44054E+06
 0.12032000E+03 -0.44072E+06
 0.12037000E+03 -0.44405E+06
 0.12042000E+03 -0.43610E+06
 0.12047000E+03 -0.40636E+06
 0.12052000E+03 -0.36865E+06
 0.12057000E+03 -0.34003E+06
 0.12062000E+03 -0.32974E+06
 0.12067000E+03 -0.34332E+06
 0.12072000E+03 -0.37714E+06
 0.12077000E+03 -0.42043E+06
 0.12082000E+03 -0.46430E+06
 0.12087000E+03 -0.49973E+06
 0.12092000E+03 -0.51608E+06
 0.12097000E+03 -0.51685E+06
 0.12102000E+03 -0.50880E+06
 0.12107000E+03 -0.49693E+06
 0.12112000E+03 -0.48500E+06
 0.12117000E+03 -0.47406E+06
 0.12122000E+03 -0.46729E+06
 0.12127000E+03 -0.45766E+06
 0.12132000E+03 -0.43291E+06
 0.12137000E+03 -0.38475E+06
 0.12142000E+03 -0.31208E+06
 0.12147000E+03 -0.23026E+06
 0.12152000E+03 -0.15769E+06
 0.12157000E+03 -0.10368E+06
 0.12162000E+03 -0.65901E+05
 0.12167000E+03 -0.36816E+05
 0.12172000E+03 -0.11338E+05
 0.12177000E+03  0.11944E+05
 0.12182000E+03  0.21820E+05
 0.12187000E+03  0.18156E+05
 0.12192000E+03  0.34950E+04
 0.12197000E+03 -0.31845E+05
 0.12202000E+03 -0.84046E+05
 0.12207000E+03 -0.14581E+06
 0.12212000E+03 -0.20915E+06
 0.12217000E+03 -0.26760E+06
 0.12222000E+03 -0.31991E+06
 0.12227000E+03 -0.36687E+06
 0.12232000E+03 -0.41412E+06
 0.12237000E+03 -0.45950E+06
 0.12242000E+03 -0.50397E+06
 0.12247000E+03 -0.54768E+06
 0.12252000E+03 -0.58546E+06
 0.12257000E+03 -0.62113E+06
 0.12262000E+03 -0.65497E+06
 0.12267000E+03 -0.68493E+06
 0.12272000E+03 -0.70254E+06
 0.12277000E+03 -0.70523E+06
 0.12282000E+03 -0.70016E+06
 0.12287000E+03 -0.69096E+06
 0.12292000E+03 -0.68982E+06
 0.12297000E+03 -0.69854E+06
 0.12302000E+03 -0.70699E+06
 0.12307000E+03 -0.70618E+06
 0.12312000E+03 -0.68912E+06
 0.12317000E+03 -0.65825E+06
 0.12322000E+03 -0.62136E+06
 0.12327000E+03 -0.58934E+06
 0.12332000E+03 -0.57027E+06
 0.12337000E+03 -0.56293E+06
 0.12342000E+03 -0.56132E+06
 0.12347000E+03 -0.56045E+06
 0.12352000E+03 -0.56070E+06
 0.12357000E+03 -0.56805E+06
 0.12362000E+03 -0.58576E+06
 0.12367000E+03 -0.60918E+06
 0.12372000E+03 -0.63306E+06
 0.12377000E+03 -0.65619E+06
 0.12382000E+03 -0.67569E+06
 0.12387000E+03 -0.69404E+06
 0.12392000E+03 -0.71653E+06
 0.12397000E+03 -0.74062E+06
 0.12402000E+03 -0.76682E+06
 0.12407000E+03 -0.79302E+06
 0.12412000E+03 -0.81786E+06
 0.12417000E+03 -0.84457E+06
 0.12422000E+03 -0.86641E+06
 0.12427000E+03 -0.87970E+06
 0.12432000E+03 -0.87921E+06
 0.12437000E+03 -0.86315E+06
 0.12442000E+03 -0.84018E+06
 0.12447000E+03 -0.81412E+06
 0.12452000E+03 -0.78980E+06
 0.12457000E+03 -0.76678E+06
 0.12462000E+03 -0.74139E+06
 0.12467000E+03 -0.71222E+06
 0.12472000E+03 -0.67988E+06
 0.12477000E+03 -0.64867E+06
 0.12482000E+03 -0.62215E+06
 0.12487000E+03 -0.59856E+06
 0.12492000E+03 -0.57003E+06
 0.12497000E+03 -0.53891E+06
 0.12502000E+03 -0.50910E+06
 0.12507000E+03 -0.47714E+06
 0.12512000E+03 -0.44720E+06
 0.12517001E+03 -0.41658E+06
 0.12521999E+03 -0.38536E+06
 0.12527000E+03 -0.36097E+06
 0.12532000E+03 -0.33839E+06
 0.12537000E+03 -0.31455E+06
 0.12542001E+03 -0.29022E+06
 0.12546999E+03 -0.26897E+06
 0.12552000E+03 -0.25091E+06
 0.12557000E+03 -0.23586E+06
 0.12562000E+03 -0.22947E+06
 0.12567001E+03 -0.23795E+06
 0.12571999E+03 -0.25728E+06
 0.12577000E+03 -0.28237E+06
 0.12582000E+03 -0.30965E+06
 0.12587000E+03 -0.32802E+06
 0.12592001E+03 -0.34641E+06
 0.12596999E+03 -0.37088E+06
 0.12602000E+03 -0.39689E+06
 0.12607000E+03 -0.42343E+06
 0.12612000E+03 -0.44294E+06
 0.12617001E+03 -0.44920E+06
 0.12621999E+03 -0.44355E+06
 0.12627000E+03 -0.42948E+06
 0.12632000E+03 -0.41660E+06
 0.12637000E+03 -0.41684E+06
 0.12642001E+03 -0.42526E+06
 0.12646999E+03 -0.44062E+06
 0.12652000E+03 -0.46050E+06
 0.12657000E+03 -0.47880E+06
 0.12662000E+03 -0.50271E+06
 0.12667001E+03 -0.52959E+06
 0.12671999E+03 -0.55394E+06
 0.12677000E+03 -0.57482E+06
 0.12682000E+03 -0.58800E+06
 0.12687000E+03 -0.59297E+06
 0.12692001E+03 -0.59141E+06
 0.12696999E+03 -0.58530E+06
 0.12702000E+03 -0.57380E+06
 0.12707000E+03 -0.56471E+06
 0.12712000E+03 -0.56350E+06
 0.12717001E+03 -0.56561E+06
 0.12721999E+03 -0.57115E+06
 0.12727000E+03 -0.57533E+06
 0.12732000E+03 -0.57815E+06
 0.12737000E+03 -0.58254E+06
 0.12742001E+03 -0.58953E+06
 0.12746999E+03 -0.60375E+06
 0.12752000E+03 -0.61853E+06
 0.12757000E+03 -0.62920E+06
 0.12762000E+03 -0.63538E+06
 0.12767001E+03 -0.63221E+06
 0.12771999E+03 -0.62393E+06
 0.12777000E+03 -0.61509E+06
 0.12782000E+03 -0.60464E+06
 0.12787000E+03 -0.59302E+06
 0.12792001E+03 -0.58464E+06
 0.12796999E+03 -0.57918E+06
 0.12802000E+03 -0.57146E+06
 0.12807001E+03 -0.56091E+06
 0.12812001E+03 -0.54386E+06
 0.12817001E+03 -0.52399E+06
 0.12822000E+03 -0.50776E+06
 0.12827000E+03 -0.49967E+06
 0.12832001E+03 -0.50663E+06
 0.12837001E+03 -0.51918E+06
 0.12842001E+03 -0.52723E+06
 0.12847000E+03 -0.52639E+06
 0.12852000E+03 -0.51568E+06
 0.12857001E+03 -0.50514E+06
 0.12862001E+03 -0.49783E+06
 0.12867001E+03 -0.48924E+06
 0.12872000E+03 -0.47649E+06
 0.12877000E+03 -0.46464E+06
 0.12882001E+03 -0.46127E+06
 0.12887001E+03 -0.46322E+06
 0.12892001E+03 -0.46498E+06
 0.12897000E+03 -0.45943E+06
 0.12902000E+03 -0.44166E+06
 0.12907001E+03 -0.41594E+06
 0.12912001E+03 -0.38742E+06
 0.12917001E+03 -0.36553E+06
 0.12922000E+03 -0.36185E+06
 0.12927000E+03 -0.37914E+06
 0.12932001E+03 -0.41358E+06
 0.12937001E+03 -0.45681E+06
 0.12942001E+03 -0.49575E+06
 0.12947000E+03 -0.52139E+06
 0.12952000E+03 -0.53415E+06
 0.12957001E+03 -0.54194E+06
 0.12962001E+03 -0.55285E+06
 0.12967001E+03 -0.56626E+06
 0.12972000E+03 -0.58080E+06
 0.12977000E+03 -0.59247E+06
 0.12982001E+03 -0.59416E+06
 0.12987001E+03 -0.58941E+06
 0.12992001E+03 -0.58123E+06
 0.12997000E+03 -0.57083E+06
 0.13002000E+03 -0.55995E+06
 0.13007001E+03 -0.54755E+06
 0.13012001E+03 -0.53654E+06
 0.13017001E+03 -0.52556E+06
 0.13022000E+03 -0.51173E+06
 0.13027000E+03 -0.49464E+06
 0.13032001E+03 -0.47365E+06
 0.13037001E+03 -0.45435E+06
 0.13042001E+03 -0.44052E+06
 0.13047000E+03 -0.42945E+06
 0.13052000E+03 -0.41796E+06
 0.13057001E+03 -0.39964E+06
 0.13062001E+03 -0.37485E+06
 0.13067001E+03 -0.34917E+06
 0.13072000E+03 -0.32275E+06
 0.13077000E+03 -0.29648E+06
 0.13082001E+03 -0.26845E+06
 0.13087001E+03 -0.24127E+06
 0.13092001E+03 -0.22156E+06
 0.13097000E+03 -0.20832E+06
 0.13102000E+03 -0.20267E+06
 0.13107001E+03 -0.20337E+06
 0.13112001E+03 -0.20858E+06
 0.13117001E+03 -0.21828E+06
 0.13122000E+03 -0.22784E+06
 0.13127000E+03 -0.23923E+06
 0.13132001E+03 -0.25087E+06
 0.13137001E+03 -0.26438E+06
 0.13142001E+03 -0.28594E+06
 0.13147000E+03 -0.30390E+06
 0.13152000E+03 -0.30689E+06
 0.13157001E+03 -0.29358E+06
 0.13162001E+03 -0.27090E+06
 0.13167001E+03 -0.25364E+06
 0.13172000E+03 -0.25027E+06
 0.13177000E+03 -0.25744E+06
 0.13182001E+03 -0.26928E+06
 0.13187001E+03 -0.28255E+06
 0.13192001E+03 -0.29385E+06
 0.13197000E+03 -0.30364E+06
 0.13202000E+03 -0.31496E+06
 0.13207001E+03 -0.33084E+06
 0.13212001E+03 -0.35451E+06
 0.13217001E+03 -0.38756E+06
 0.13222000E+03 -0.43240E+06
 0.13227000E+03 -0.49242E+06
 0.13232001E+03 -0.56532E+06
 0.13237001E+03 -0.63935E+06
 0.13242001E+03 -0.70466E+06
 0.13247000E+03 -0.75887E+06
 0.13252000E+03 -0.80300E+06
 0.13257001E+03 -0.83878E+06
 0.13262001E+03 -0.86844E+06
 0.13267001E+03 -0.89746E+06
 0.13272000E+03 -0.92356E+06
 0.13277000E+03 -0.93557E+06
 0.13282001E+03 -0.92898E+06
 0.13287001E+03 -0.90472E+06
 0.13292001E+03 -0.86760E+06
 0.13297000E+03 -0.82870E+06
 0.13302000E+03 -0.79572E+06
 0.13307001E+03 -0.76947E+06
 0.13312001E+03 -0.74656E+06
 0.13317001E+03 -0.72023E+06
 0.13322000E+03 -0.68241E+06
 0.13327000E+03 -0.63022E+06
 0.13332001E+03 -0.56772E+06
 0.13337001E+03 -0.50155E+06
 0.13342001E+03 -0.43679E+06
 0.13347000E+03 -0.37577E+06
 0.13352000E+03 -0.31960E+06
 0.13357001E+03 -0.26546E+06
 0.13362001E+03 -0.21061E+06
 0.13367001E+03 -0.15647E+06
 0.13372000E+03 -0.10937E+06
 0.13377000E+03 -0.76055E+05
 0.13382001E+03 -0.60396E+05
 0.13387001E+03 -0.59696E+05
 0.13392001E+03 -0.68102E+05
 0.13397000E+03 -0.86483E+05
 0.13402000E+03 -0.11045E+06
 0.13407001E+03 -0.13525E+06
 0.13412001E+03 -0.16106E+06
 0.13417001E+03 -0.18508E+06
 0.13422000E+03 -0.20971E+06
 0.13427000E+03 -0.24106E+06
 0.13432001E+03 -0.28171E+06
 0.13437001E+03 -0.33298E+06
 0.13442001E+03 -0.39533E+06
 0.13447000E+03 -0.46432E+06
 0.13452000E+03 -0.53119E+06
 0.13457001E+03 -0.58985E+06
 0.13462001E+03 -0.64171E+06
 0.13467001E+03 -0.68889E+06
 0.13472000E+03 -0.72724E+06
 0.13477000E+03 -0.75206E+06
 0.13482001E+03 -0.76511E+06
 0.13487001E+03 -0.77420E+06
 0.13492001E+03 -0.78724E+06
 0.13497000E+03 -0.80492E+06
 0.13502000E+03 -0.82138E+06
 0.13507001E+03 -0.82520E+06
 0.13512001E+03 -0.80794E+06
 0.13517001E+03 -0.76971E+06
 0.13522000E+03 -0.71318E+06
 0.13527000E+03 -0.64907E+06
 0.13532001E+03 -0.59224E+06
 0.13537001E+03 -0.54869E+06
 0.13542001E+03 -0.51641E+06
 0.13547000E+03 -0.49336E+06
 0.13552000E+03 -0.47766E+06
 0.13557001E+03 -0.46654E+06
 0.13562001E+03 -0.45792E+06
 0.13567001E+03 -0.44940E+06
 0.13572000E+03 -0.44173E+06
 0.13577000E+03 -0.43635E+06
 0.13582001E+03 -0.43004E+06
 0.13587001E+03 -0.42169E+06
 0.13592001E+03 -0.41586E+06
 0.13597000E+03 -0.41591E+06
 0.13602000E+03 -0.42428E+06
 0.13607001E+03 -0.44293E+06
 0.13612001E+03 -0.46802E+06
 0.13617001E+03 -0.49444E+06
 0.13622000E+03 -0.51887E+06
 0.13627000E+03 -0.53971E+06
 0.13632001E+03 -0.55868E+06
 0.13637001E+03 -0.57609E+06
 0.13642001E+03 -0.59170E+06
 0.13647000E+03 -0.60408E+06
 0.13652000E+03 -0.61424E+06
 0.13657001E+03 -0.62628E+06
 0.13662001E+03 -0.63920E+06
 0.13667001E+03 -0.65243E+06
 0.13672000E+03 -0.66142E+06
 0.13677000E+03 -0.66176E+06
 0.13682001E+03 -0.65740E+06
 0.13687001E+03 -0.65121E+06
 0.13692001E+03 -0.64340E+06
 0.13697000E+03 -0.63195E+06
 0.13702000E+03 -0.61629E+06
 0.13707001E+03 -0.59819E+06
 0.13712001E+03 -0.57897E+06
 0.13717001E+03 -0.56089E+06
 0.13722000E+03 -0.54780E+06
 0.13727000E+03 -0.54137E+06
 0.13732001E+03 -0.53681E+06
 0.13737001E+03 -0.52788E+06
 0.13742001E+03 -0.51015E+06
 0.13747000E+03 -0.48184E+06
 0.13752000E+03 -0.44364E+06
 0.13757001E+03 -0.39730E+06
 0.13762001E+03 -0.34805E+06
 0.13767001E+03 -0.30059E+06
 0.13772000E+03 -0.25449E+06
 0.13777000E+03 -0.20718E+06
 0.13782001E+03 -0.15601E+06
 0.13787001E+03 -0.10232E+06
 0.13792001E+03 -0.51630E+05
 0.13797000E+03 -0.84060E+04
 0.13802000E+03  0.26750E+05
 0.13807001E+03  0.54665E+05
 0.13812001E+03  0.74759E+05
 0.13817001E+03  0.90738E+05
 0.13822000E+03  0.10373E+06
 0.13827000E+03  0.11424E+06
 0.13832001E+03  0.12610E+06
 0.13837001E+03  0.13659E+06
 0.13842001E+03  0.14083E+06
 0.13847000E+03  0.13342E+06
 0.13852000E+03  0.11233E+06
 0.13857001E+03  0.79691E+05
 0.13862001E+03  0.39911E+05
 0.13867001E+03 -0.47000E+03
 0.13872000E+03 -0.38801E+05
 0.13877000E+03 -0.76377E+05
 0.13882001E+03 -0.11672E+06
 0.13887001E+03 -0.16457E+06
 0.13892001E+03 -0.22255E+06
 0.13897000E+03 -0.28463E+06
 0.13902000E+03 -0.34487E+06
 0.13907001E+03 -0.39915E+06
 0.13912001E+03 -0.44273E+06
 0.13917001E+03 -0.47706E+06
 0.13922000E+03 -0.50564E+06
 0.13927000E+03 -0.53487E+06
 0.13932001E+03 -0.56543E+06
 0.13937001E+03 -0.59664E+06
 0.13942001E+03 -0.62946E+06
 0.13947000E+03 -0.66204E+06
 0.13952000E+03 -0.69906E+06
 0.13957001E+03 -0.73938E+06
 0.13962001E+03 -0.77832E+06
 0.13967001E+03 -0.81322E+06
 0.13972000E+03 -0.83986E+06
 0.13977000E+03 -0.85929E+06
 0.13982001E+03 -0.87460E+06
 0.13987001E+03 -0.88967E+06
 0.13992001E+03 -0.90757E+06
 0.13997000E+03 -0.92731E+06
 0.14002000E+03 -0.94758E+06
 0.14007001E+03 -0.96708E+06
 0.14012001E+03 -0.98615E+06
 0.14017001E+03 -0.10061E+07
 0.14022000E+03 -0.10217E+07
 0.14027000E+03 -0.10299E+07
 0.14032001E+03 -0.10293E+07
 0.14037001E+03 -0.10187E+07
 0.14042001E+03 -0.10011E+07
 0.14047000E+03 -0.97641E+06
 0.14052000E+03 -0.94598E+06
 0.14057001E+03 -0.91394E+06
 0.14062001E+03 -0.88315E+06
 0.14067001E+03 -0.85440E+06
 0.14072000E+03 -0.82518E+06
 0.14077000E+03 -0.79143E+06
 0.14082001E+03 -0.74971E+06
 0.14087001E+03 -0.70169E+06
 0.14092001E+03 -0.64917E+06
 0.14097000E+03 -0.59710E+06
 0.14102000E+03 -0.55186E+06
 0.14107001E+03 -0.51289E+06
 0.14112001E+03 -0.47609E+06
 0.14117001E+03 -0.43873E+06
 0.14122000E+03 -0.40452E+06
 0.14127000E+03 -0.37628E+06
 0.14132001E+03 -0.34858E+06
 0.14137001E+03 -0.31636E+06
 0.14142001E+03 -0.27910E+06
 0.14147000E+03 -0.24047E+06
 0.14152000E+03 -0.20765E+06
 0.14157001E+03 -0.18149E+06
 0.14162001E+03 -0.15704E+06
 0.14167001E+03 -0.13145E+06
 0.14172000E+03 -0.10315E+06
 0.14177000E+03 -0.72781E+05
 0.14182001E+03 -0.42844E+05
 0.14187001E+03 -0.17150E+05
 0.14192001E+03  0.22110E+04
 0.14197000E+03  0.17537E+05
 0.14202000E+03  0.29081E+05
 0.14207001E+03  0.38443E+05
 0.14212001E+03  0.51720E+05
 0.14217001E+03  0.71761E+05
 0.14222000E+03  0.93734E+05
 0.14227000E+03  0.10660E+06
 0.14232001E+03  0.10022E+06
 0.14237001E+03  0.72535E+05
 0.14242001E+03  0.27078E+05
 0.14247000E+03 -0.34277E+05
 0.14252000E+03 -0.10648E+06
 0.14257001E+03 -0.18124E+06
 0.14262001E+03 -0.25456E+06
 0.14267001E+03 -0.32318E+06
 0.14272000E+03 -0.38484E+06
 0.14277000E+03 -0.44077E+06
 0.14282001E+03 -0.48845E+06
 0.14287001E+03 -0.52551E+06
 0.14292001E+03 -0.55535E+06
 0.14297000E+03 -0.58093E+06
 0.14302000E+03 -0.60687E+06
 0.14307001E+03 -0.63919E+06
 0.14312001E+03 -0.67860E+06
 0.14317001E+03 -0.71978E+06
 0.14322000E+03 -0.75650E+06
 0.14327000E+03 -0.78182E+06
 0.14332001E+03 -0.79142E+06
 0.14337001E+03 -0.78962E+06
 0.14342001E+03 -0.78023E+06
 0.14347000E+03 -0.76119E+06
 0.14352000E+03 -0.73463E+06
 0.14357001E+03 -0.70759E+06
 0.14362001E+03 -0.68099E+06
 0.14367001E+03 -0.65358E+06
 0.14372000E+03 -0.62531E+06
 0.14377000E+03 -0.59346E+06
 0.14382001E+03 -0.55432E+06
 0.14387001E+03 -0.50781E+06
 0.14392001E+03 -0.45815E+06
 0.14397000E+03 -0.41138E+06
 0.14402000E+03 -0.37419E+06
 0.14407001E+03 -0.34948E+06
 0.14412001E+03 -0.33591E+06
 0.14417001E+03 -0.33068E+06
 0.14422000E+03 -0.32860E+06
 0.14427000E+03 -0.32220E+06
 0.14432001E+03 -0.30868E+06
 0.14437001E+03 -0.29050E+06
 0.14442001E+03 -0.26948E+06
 0.14447000E+03 -0.24746E+06
 0.14452000E+03 -0.22682E+06
 0.14457001E+03 -0.20765E+06
 0.14462001E+03 -0.18886E+06
 0.14467001E+03 -0.17267E+06
 0.14472000E+03 -0.16108E+06
 0.14477000E+03 -0.15304E+06
 0.14482001E+03 -0.14618E+06
 0.14487001E+03 -0.13889E+06
 0.14492001E+03 -0.13288E+06
 0.14497000E+03 -0.13076E+06
 0.14502000E+03 -0.13293E+06
 0.14507001E+03 -0.13712E+06
 0.14512001E+03 -0.13988E+06
 0.14517001E+03 -0.14061E+06
 0.14522000E+03 -0.14384E+06
 0.14527000E+03 -0.15457E+06
 0.14532001E+03 -0.17381E+06
 0.14537001E+03 -0.19971E+06
 0.14542001E+03 -0.22815E+06
 0.14547000E+03 -0.25681E+06
 0.14552000E+03 -0.28502E+06
 0.14557001E+03 -0.31049E+06
 0.14562001E+03 -0.33304E+06
 0.14567001E+03 -0.35379E+06
 0.14572000E+03 -0.37115E+06
 0.14577000E+03 -0.38060E+06
 0.14582001E+03 -0.38227E+06
 0.14587001E+03 -0.38080E+06
 0.14592001E+03 -0.37978E+06
 0.14597000E+03 -0.38366E+06
 0.14602000E+03 -0.39430E+06
 0.14607001E+03 -0.41161E+06
 0.14612001E+03 -0.43332E+06
 0.14617001E+03 -0.45439E+06
 0.14622000E+03 -0.47167E+06
 0.14627000E+03 -0.48582E+06
 0.14632001E+03 -0.49874E+06
 0.14637001E+03 -0.51245E+06
 0.14642001E+03 -0.52937E+06
 0.14647000E+03 -0.54718E+06
 0.14652000E+03 -0.56586E+06
 0.14657001E+03 -0.58561E+06
 0.14662001E+03 -0.60397E+06
 0.14667001E+03 -0.62043E+06
 0.14672000E+03 -0.62880E+06
 0.14677000E+03 -0.62766E+06
 0.14682001E+03 -0.62093E+06
 0.14687001E+03 -0.61150E+06
 0.14692001E+03 -0.60264E+06
 0.14697000E+03 -0.59403E+06
 0.14702000E+03 -0.58547E+06
 0.14707001E+03 -0.57529E+06
 0.14712001E+03 -0.56443E+06
 0.14717001E+03 -0.55533E+06
 0.14722000E+03 -0.54909E+06
 0.14727000E+03 -0.54647E+06
 0.14732001E+03 -0.54485E+06
 0.14737001E+03 -0.54232E+06
 0.14742001E+03 -0.53639E+06
 0.14747000E+03 -0.52733E+06
 0.14752000E+03 -0.51717E+06
 0.14757001E+03 -0.50573E+06
 0.14762001E+03 -0.49445E+06
 0.14767001E+03 -0.48294E+06
 0.14772000E+03 -0.47116E+06
 0.14777000E+03 -0.46043E+06
 0.14782001E+03 -0.45079E+06
 0.14787001E+03 -0.44206E+06
 0.14792001E+03 -0.43164E+06
 0.14797000E+03 -0.41685E+06
 0.14802000E+03 -0.39482E+06
 0.14807001E+03 -0.36698E+06
 0.14812001E+03 -0.33839E+06
 0.14817001E+03 -0.31159E+06
 0.14822000E+03 -0.28983E+06
 0.14827000E+03 -0.27445E+06
 0.14832001E+03 -0.26834E+06
 0.14837001E+03 -0.27100E+06
 0.14842001E+03 -0.27845E+06
 0.14847000E+03 -0.29101E+06
 0.14852000E+03 -0.30356E+06
 0.14857001E+03 -0.31189E+06
 0.14862001E+03 -0.31541E+06
 0.14867001E+03 -0.31544E+06
 0.14872000E+03 -0.31657E+06
 0.14877000E+03 -0.32150E+06
 0.14882001E+03 -0.32993E+06
 0.14887001E+03 -0.33829E+06
 0.14892001E+03 -0.34588E+06
 0.14897000E+03 -0.35029E+06
 0.14902000E+03 -0.34878E+06
 0.14907001E+03 -0.34328E+06
 0.14912001E+03 -0.33720E+06
 0.14917001E+03 -0.33338E+06
 0.14922000E+03 -0.33159E+06
 0.14927000E+03 -0.33007E+06
 0.14932001E+03 -0.32700E+06
 0.14937001E+03 -0.32369E+06
 0.14942001E+03 -0.32306E+06
 0.14947000E+03 -0.32889E+06
 0.14952000E+03 -0.34059E+06
 0.14957001E+03 -0.35612E+06
 0.14962001E+03 -0.37289E+06
 0.14967001E+03 -0.38723E+06
 0.14972000E+03 -0.40412E+06
 0.14977000E+03 -0.42318E+06
 0.14982001E+03 -0.44354E+06
 0.14987001E+03 -0.46762E+06
 0.14992001E+03 -0.49013E+06
 0.14997000E+03 -0.50902E+06
