-0.29800000E+01 -0.76242E+05
-0.29300001E+01 -0.72169E+05
-0.28800001E+01 -0.67067E+05
-0.28299999E+01 -0.59658E+05
-0.27800000E+01 -0.49757E+05
-0.27300000E+01 -0.37729E+05
-0.26800001E+01 -0.26987E+05
-0.26300001E+01 -0.18117E+05
-0.25799999E+01 -0.10643E+05
-0.25300000E+01 -0.51230E+04
-0.24800000E+01 -0.10240E+04
-0.24300001E+01  0.28450E+04
-0.23800001E+01  0.10711E+05
-0.23299999E+01  0.18071E+05
-0.22800000E+01  0.20940E+05
-0.22300000E+01  0.22752E+05
-0.21800001E+01  0.24149E+05
-0.21300001E+01  0.26307E+05
-0.20799999E+01  0.27736E+05
-0.20300000E+01  0.26757E+05
-0.19800000E+01  0.21936E+05
-0.19299999E+01  0.14138E+05
-0.18800000E+01  0.10166E+05
-0.18300000E+01  0.10996E+05
-0.17800000E+01  0.97750E+04
-0.17300000E+01  0.53100E+04
-0.16799999E+01  0.35640E+04
-0.16300000E+01  0.20060E+04
-0.15800000E+01  0.98800E+03
-0.15300000E+01  0.30020E+04
-0.14800000E+01  0.85200E+03
-0.14299999E+01 -0.24480E+04
-0.13800000E+01 -0.54900E+03
-0.13300000E+01  0.42550E+04
-0.12800000E+01  0.91980E+04
-0.12300000E+01  0.16738E+05
-0.11799999E+01  0.26229E+05
-0.11300000E+01  0.33582E+05
-0.10800000E+01  0.39694E+05
-0.10300000E+01  0.43260E+05
-0.98000002E+00  0.46138E+05
-0.93000007E+00  0.49565E+05
-0.87999988E+00  0.53625E+05
-0.82999992E+00  0.57123E+05
-0.77999997E+00  0.55375E+05
-0.73000002E+00  0.52245E+05
-0.68000007E+00  0.48277E+05
-0.62999988E+00  0.43835E+05
-0.57999992E+00  0.39894E+05
-0.52999997E+00  0.32076E+05
-0.48000002E+00  0.24183E+05
-0.43000007E+00  0.17258E+05
-0.37999988E+00  0.10442E+05
-0.32999992E+00  0.73930E+04
-0.27999997E+00  0.81480E+04
-0.23000002E+00  0.13184E+05
-0.18000007E+00  0.18132E+05
-0.12999988E+00  0.20173E+05
-0.79999924E-01  0.21771E+05
-0.29999971E-01  0.20793E+05
 0.19999981E-01  0.18656E+05
 0.69999933E-01  0.13988E+05
 0.12000012E+00  0.89210E+04
 0.17000008E+00  0.98550E+04
 0.22000003E+00  0.94970E+04
 0.26999998E+00  0.60880E+04
 0.31999993E+00  0.18590E+04
 0.37000012E+00 -0.29360E+04
 0.42000008E+00 -0.16060E+04
 0.47000003E+00  0.73950E+04
 0.51999998E+00  0.17608E+05
 0.56999993E+00  0.21049E+05
 0.62000012E+00  0.19471E+05
 0.67000008E+00  0.19680E+05
 0.72000003E+00  0.21152E+05
 0.76999998E+00  0.19444E+05
 0.81999993E+00  0.13470E+05
 0.87000012E+00  0.42110E+04
 0.92000008E+00 -0.39200E+04
 0.97000003E+00 -0.60490E+04
 0.10200000E+01 -0.63560E+04
 0.10700002E+01 -0.75760E+04
 0.11199999E+01 -0.78770E+04
 0.11700001E+01 -0.65740E+04
 0.12200003E+01 -0.68570E+04
 0.12700000E+01 -0.94000E+04
 0.13200002E+01 -0.11659E+05
 0.13699999E+01 -0.14637E+05
 0.14200001E+01 -0.18278E+05
 0.14700003E+01 -0.21855E+05
 0.15200000E+01 -0.26678E+05
 0.15700002E+01 -0.34794E+05
 0.16199999E+01 -0.40431E+05
 0.16700001E+01 -0.40017E+05
 0.17200003E+01 -0.37846E+05
 0.17700000E+01 -0.36184E+05
 0.18200002E+01 -0.37019E+05
 0.18699999E+01 -0.39506E+05
 0.19200001E+01 -0.38705E+05
 0.19700003E+01 -0.34984E+05
 0.20200000E+01 -0.34160E+05
 0.20700002E+01 -0.32063E+05
 0.21199999E+01 -0.20870E+05
 0.21700001E+01 -0.29030E+04
 0.22200003E+01  0.15472E+05
 0.22700000E+01  0.31063E+05
 0.23200002E+01  0.44710E+05
 0.23699999E+01  0.56563E+05
 0.24200001E+01  0.66923E+05
 0.24700003E+01  0.75548E+05
 0.25200000E+01  0.82454E+05
 0.25700002E+01  0.92834E+05
 0.26199999E+01  0.10242E+06
 0.26700001E+01  0.10352E+06
 0.27200003E+01  0.98956E+05
 0.27700000E+01  0.91856E+05
 0.28200002E+01  0.84183E+05
 0.28699999E+01  0.76733E+05
 0.29200001E+01  0.71074E+05
 0.29700003E+01  0.68285E+05
 0.30200000E+01  0.66543E+05
 0.30700002E+01  0.65168E+05
 0.31199999E+01  0.62845E+05
 0.31700001E+01  0.56481E+05
 0.32200003E+01  0.47225E+05
 0.32700000E+01  0.37077E+05
 0.33200002E+01  0.24305E+05
 0.33699999E+01  0.13008E+05
 0.34200001E+01  0.82410E+04
 0.34700003E+01  0.56440E+04
 0.35200000E+01  0.11650E+04
 0.35700002E+01 -0.31260E+04
 0.36199999E+01 -0.63660E+04
 0.36700001E+01 -0.78310E+04
 0.37200003E+01 -0.10648E+05
 0.37700000E+01 -0.18436E+05
 0.38200002E+01 -0.27015E+05
 0.38699999E+01 -0.35084E+05
 0.39200001E+01 -0.43324E+05
 0.39700003E+01 -0.51253E+05
 0.40200000E+01 -0.58669E+05
 0.40700002E+01 -0.64866E+05
 0.41199999E+01 -0.70084E+05
 0.41700001E+01 -0.73495E+05
 0.42200003E+01 -0.73514E+05
 0.42700000E+01 -0.70620E+05
 0.43200002E+01 -0.66622E+05
 0.43699999E+01 -0.60977E+05
 0.44200001E+01 -0.52245E+05
 0.44700003E+01 -0.41982E+05
 0.45200000E+01 -0.34544E+05
 0.45700002E+01 -0.30665E+05
 0.46199999E+01 -0.29755E+05
 0.46700001E+01 -0.29681E+05
 0.47200003E+01 -0.24785E+05
 0.47700000E+01 -0.17907E+05
 0.48200002E+01 -0.13948E+05
 0.48699999E+01 -0.11577E+05
 0.49200001E+01 -0.96040E+04
 0.49700003E+01 -0.78260E+04
 0.50200000E+01 -0.65160E+04
 0.50700002E+01 -0.52160E+04
 0.51200004E+01 -0.47780E+04
 0.51700006E+01 -0.76300E+04
 0.52199998E+01 -0.12587E+05
 0.52700000E+01 -0.17068E+05
 0.53200002E+01 -0.20174E+05
 0.53700004E+01 -0.24322E+05
 0.54200006E+01 -0.30613E+05
 0.54699998E+01 -0.35263E+05
 0.55200000E+01 -0.37702E+05
 0.55700002E+01 -0.39578E+05
 0.56200004E+01 -0.42286E+05
 0.56700006E+01 -0.43736E+05
 0.57199998E+01 -0.41603E+05
 0.57700000E+01 -0.38957E+05
 0.58200002E+01 -0.36795E+05
 0.58700004E+01 -0.38901E+05
 0.59200006E+01 -0.44089E+05
 0.59699998E+01 -0.46992E+05
 0.60200000E+01 -0.52179E+05
 0.60700002E+01 -0.58272E+05
 0.61200004E+01 -0.63039E+05
 0.61700006E+01 -0.68648E+05
 0.62199998E+01 -0.73532E+05
 0.62700000E+01 -0.78741E+05
 0.63200002E+01 -0.82065E+05
 0.63700004E+01 -0.81941E+05
 0.64200006E+01 -0.80503E+05
 0.64699998E+01 -0.77190E+05
 0.65200000E+01 -0.75001E+05
 0.65700002E+01 -0.71063E+05
 0.66200004E+01 -0.57842E+05
 0.66700006E+01 -0.42008E+05
 0.67199998E+01 -0.29629E+05
 0.67700000E+01 -0.17759E+05
 0.68200002E+01 -0.92760E+04
 0.68700004E+01 -0.58930E+04
 0.69200006E+01 -0.81700E+03
 0.69699998E+01  0.71760E+04
 0.70200000E+01  0.14657E+05
 0.70700002E+01  0.19940E+05
 0.71200004E+01  0.20340E+05
 0.71700006E+01  0.20261E+05
 0.72199998E+01  0.21577E+05
 0.72700000E+01  0.21459E+05
 0.73200002E+01  0.21243E+05
 0.73700004E+01  0.21661E+05
 0.74200006E+01  0.24125E+05
 0.74699998E+01  0.24286E+05
 0.75200000E+01  0.18690E+05
 0.75700002E+01  0.13589E+05
 0.76200004E+01  0.13280E+05
 0.76700006E+01  0.15269E+05
 0.77199998E+01  0.15078E+05
 0.77700000E+01  0.13069E+05
 0.78200002E+01  0.10637E+05
 0.78700004E+01  0.78320E+04
 0.79200006E+01  0.72950E+04
 0.79699998E+01  0.87720E+04
 0.80200005E+01  0.12310E+05
 0.80699997E+01  0.16229E+05
 0.81200008E+01  0.16211E+05
 0.81700001E+01  0.15560E+05
 0.82199993E+01  0.15494E+05
 0.82700005E+01  0.14684E+05
 0.83199997E+01  0.15358E+05
 0.83700008E+01  0.16827E+05
 0.84200001E+01  0.19262E+05
 0.84699993E+01  0.21167E+05
 0.85200005E+01  0.21501E+05
 0.85699997E+01  0.24014E+05
 0.86200008E+01  0.26499E+05
 0.86700001E+01  0.29506E+05
 0.87199993E+01  0.36737E+05
 0.87700005E+01  0.46568E+05
 0.88199997E+01  0.56900E+05
 0.88700008E+01  0.63994E+05
 0.89200001E+01  0.67851E+05
 0.89699993E+01  0.71979E+05
 0.90200005E+01  0.74743E+05
 0.90699997E+01  0.74294E+05
 0.91200008E+01  0.70552E+05
 0.91700001E+01  0.63995E+05
 0.92199993E+01  0.57496E+05
 0.92700005E+01  0.50036E+05
 0.93199997E+01  0.41541E+05
 0.93700008E+01  0.35570E+05
 0.94200001E+01  0.32072E+05
 0.94699993E+01  0.29271E+05
 0.95200005E+01  0.27436E+05
 0.95699997E+01  0.28135E+05
 0.96200008E+01  0.27426E+05
 0.96700001E+01  0.22449E+05
 0.97199993E+01  0.16630E+05
 0.97700005E+01  0.11692E+05
 0.98199997E+01  0.91680E+04
 0.98700008E+01  0.84070E+04
 0.99200001E+01  0.58860E+04
 0.99699993E+01  0.13620E+04
 0.10020000E+02 -0.49200E+03
 0.10070000E+02  0.16260E+04
 0.10120001E+02  0.30330E+04
 0.10170000E+02  0.41510E+04
 0.10219999E+02  0.59770E+04
 0.10270000E+02  0.78030E+04
 0.10320000E+02  0.85740E+04
 0.10370001E+02  0.77210E+04
 0.10420000E+02  0.90260E+04
 0.10469999E+02  0.13967E+05
 0.10520000E+02  0.19598E+05
 0.10570000E+02  0.21689E+05
 0.10620001E+02  0.20299E+05
 0.10670000E+02  0.16514E+05
 0.10719999E+02  0.12139E+05
 0.10770000E+02  0.96650E+04
 0.10820000E+02  0.78380E+04
 0.10870001E+02  0.10371E+05
 0.10920000E+02  0.17179E+05
 0.10969999E+02  0.21423E+05
 0.11020000E+02  0.22216E+05
 0.11070000E+02  0.22290E+05
 0.11120001E+02  0.23630E+05
 0.11170000E+02  0.23631E+05
 0.11219999E+02  0.21074E+05
 0.11270000E+02  0.18636E+05
 0.11320000E+02  0.17336E+05
 0.11370001E+02  0.16607E+05
 0.11420000E+02  0.14774E+05
 0.11469999E+02  0.11986E+05
 0.11520000E+02  0.89090E+04
 0.11570000E+02  0.48560E+04
 0.11620001E+02  0.77900E+03
 0.11670000E+02 -0.66100E+03
 0.11719999E+02  0.11500E+03
 0.11770000E+02  0.49900E+03
 0.11820000E+02 -0.11760E+04
 0.11870001E+02 -0.40240E+04
 0.11920000E+02 -0.56960E+04
 0.11969999E+02 -0.68940E+04
 0.12020000E+02 -0.92520E+04
 0.12070000E+02 -0.11556E+05
 0.12120001E+02 -0.10333E+05
 0.12170000E+02 -0.79810E+04
 0.12219999E+02 -0.91020E+04
 0.12270000E+02 -0.11098E+05
 0.12320000E+02 -0.12862E+05
 0.12370001E+02 -0.15805E+05
 0.12420000E+02 -0.18365E+05
 0.12469999E+02 -0.19219E+05
 0.12520000E+02 -0.20019E+05
 0.12570000E+02 -0.22287E+05
 0.12620001E+02 -0.23551E+05
 0.12670000E+02 -0.23103E+05
 0.12719999E+02 -0.22793E+05
 0.12770000E+02 -0.20747E+05
 0.12820000E+02 -0.16721E+05
 0.12870001E+02 -0.12329E+05
 0.12920000E+02 -0.72830E+04
 0.12969999E+02 -0.18950E+04
 0.13020000E+02  0.41190E+04
 0.13070002E+02  0.12318E+05
 0.13120001E+02  0.23477E+05
 0.13170000E+02  0.31991E+05
 0.13220001E+02  0.37651E+05
 0.13270000E+02  0.44941E+05
 0.13320002E+02  0.49729E+05
 0.13370001E+02  0.51140E+05
 0.13420000E+02  0.51222E+05
 0.13470001E+02  0.49743E+05
 0.13520000E+02  0.45082E+05
 0.13570002E+02  0.37704E+05
 0.13620001E+02  0.29027E+05
 0.13670000E+02  0.17222E+05
 0.13720001E+02  0.50340E+04
 0.13770000E+02 -0.62910E+04
 0.13820002E+02 -0.16843E+05
 0.13870001E+02 -0.21998E+05
 0.13920000E+02 -0.25173E+05
 0.13970001E+02 -0.29364E+05
 0.14020000E+02 -0.33349E+05
 0.14070002E+02 -0.41916E+05
 0.14120001E+02 -0.53574E+05
 0.14170000E+02 -0.65283E+05
 0.14220001E+02 -0.76812E+05
 0.14270000E+02 -0.83890E+05
 0.14320002E+02 -0.88032E+05
 0.14370001E+02 -0.92380E+05
 0.14420000E+02 -0.95437E+05
 0.14470001E+02 -0.96040E+05
 0.14520000E+02 -0.94118E+05
 0.14570002E+02 -0.92294E+05
 0.14620001E+02 -0.91266E+05
 0.14670000E+02 -0.89806E+05
 0.14720001E+02 -0.87638E+05
 0.14770000E+02 -0.84902E+05
 0.14820002E+02 -0.83546E+05
 0.14870001E+02 -0.83460E+05
 0.14920000E+02 -0.85052E+05
 0.14970001E+02 -0.86278E+05
 0.15020000E+02 -0.84873E+05
 0.15070002E+02 -0.83530E+05
 0.15120001E+02 -0.80615E+05
 0.15170000E+02 -0.74708E+05
 0.15220001E+02 -0.68105E+05
 0.15270000E+02 -0.60944E+05
 0.15320002E+02 -0.51233E+05
 0.15370001E+02 -0.40746E+05
 0.15420000E+02 -0.32739E+05
 0.15470001E+02 -0.26455E+05
 0.15520000E+02 -0.23014E+05
 0.15570002E+02 -0.22600E+05
 0.15620001E+02 -0.20528E+05
 0.15670000E+02 -0.15273E+05
 0.15720001E+02 -0.11579E+05
 0.15770000E+02 -0.10438E+05
 0.15820002E+02 -0.99050E+04
 0.15870001E+02 -0.98180E+04
 0.15920000E+02 -0.79110E+04
 0.15970001E+02 -0.50630E+04
 0.16020000E+02 -0.22170E+04
 0.16070002E+02 -0.38000E+02
 0.16120001E+02  0.46700E+03
 0.16170000E+02  0.75600E+03
 0.16220001E+02 -0.81200E+03
 0.16270000E+02 -0.36770E+04
 0.16320002E+02 -0.52860E+04
 0.16370001E+02 -0.64270E+04
 0.16420000E+02 -0.76890E+04
 0.16470001E+02 -0.92170E+04
 0.16520000E+02 -0.11072E+05
 0.16570002E+02 -0.11162E+05
 0.16620001E+02 -0.12156E+05
 0.16670000E+02 -0.16711E+05
 0.16720001E+02 -0.20598E+05
 0.16770000E+02 -0.22626E+05
 0.16820002E+02 -0.22504E+05
 0.16870001E+02 -0.21081E+05
 0.16920000E+02 -0.20107E+05
 0.16970001E+02 -0.18689E+05
 0.17020000E+02 -0.18349E+05
 0.17070002E+02 -0.21302E+05
 0.17120001E+02 -0.26426E+05
 0.17170000E+02 -0.29976E+05
 0.17220001E+02 -0.29588E+05
 0.17270000E+02 -0.25257E+05
 0.17320002E+02 -0.19048E+05
 0.17370001E+02 -0.13729E+05
 0.17420000E+02 -0.81530E+04
 0.17470001E+02 -0.74700E+03
 0.17520000E+02  0.67840E+04
 0.17570002E+02  0.13981E+05
 0.17620001E+02  0.20095E+05
 0.17670000E+02  0.25496E+05
 0.17720001E+02  0.31376E+05
 0.17770000E+02  0.37103E+05
 0.17820002E+02  0.43196E+05
 0.17870001E+02  0.47598E+05
 0.17920000E+02  0.50670E+05
 0.17970001E+02  0.55955E+05
 0.18020000E+02  0.62420E+05
 0.18070002E+02  0.68163E+05
 0.18120001E+02  0.72602E+05
 0.18170000E+02  0.76240E+05
 0.18220001E+02  0.78932E+05
 0.18270000E+02  0.79465E+05
 0.18320002E+02  0.79334E+05
 0.18370001E+02  0.78776E+05
 0.18420000E+02  0.77681E+05
 0.18470001E+02  0.76494E+05
 0.18520000E+02  0.74458E+05
 0.18570002E+02  0.73556E+05
 0.18620001E+02  0.72168E+05
 0.18670000E+02  0.67959E+05
 0.18720001E+02  0.62198E+05
 0.18770000E+02  0.55230E+05
 0.18820002E+02  0.49855E+05
 0.18870001E+02  0.46211E+05
 0.18920000E+02  0.43057E+05
 0.18970001E+02  0.42892E+05
 0.19020000E+02  0.44215E+05
 0.19070002E+02  0.44121E+05
 0.19120001E+02  0.42448E+05
 0.19170000E+02  0.39949E+05
 0.19220001E+02  0.38535E+05
 0.19270000E+02  0.38542E+05
 0.19320002E+02  0.37192E+05
 0.19370001E+02  0.34304E+05
 0.19420000E+02  0.32299E+05
 0.19470001E+02  0.29891E+05
 0.19520000E+02  0.26117E+05
 0.19570002E+02  0.19540E+05
 0.19620001E+02  0.11180E+05
 0.19670000E+02  0.54680E+04
 0.19720001E+02 -0.26000E+03
 0.19770000E+02 -0.79820E+04
 0.19820002E+02 -0.16418E+05
 0.19870001E+02 -0.23999E+05
 0.19920000E+02 -0.29506E+05
 0.19970001E+02 -0.32141E+05
 0.20020000E+02 -0.28869E+05
 0.20070002E+02 -0.21813E+05
 0.20120001E+02 -0.14311E+05
 0.20170000E+02 -0.59740E+04
 0.20220001E+02  0.45110E+04
 0.20270000E+02  0.16191E+05
 0.20320002E+02  0.27181E+05
 0.20370001E+02  0.35322E+05
 0.20420000E+02  0.38207E+05
 0.20470001E+02  0.39392E+05
 0.20520000E+02  0.40570E+05
 0.20570002E+02  0.40418E+05
 0.20620001E+02  0.37638E+05
 0.20670000E+02  0.33219E+05
 0.20720001E+02  0.31993E+05
 0.20770000E+02  0.31740E+05
 0.20820002E+02  0.30933E+05
 0.20870001E+02  0.32536E+05
 0.20920000E+02  0.35339E+05
 0.20970001E+02  0.37033E+05
 0.21020000E+02  0.37487E+05
 0.21070002E+02  0.36692E+05
 0.21120001E+02  0.35175E+05
 0.21170000E+02  0.34553E+05
 0.21220001E+02  0.32088E+05
 0.21270000E+02  0.28844E+05
 0.21320002E+02  0.27138E+05
 0.21370001E+02  0.23666E+05
 0.21420000E+02  0.20089E+05
 0.21470001E+02  0.17263E+05
 0.21520000E+02  0.12614E+05
 0.21570002E+02  0.78160E+04
 0.21620001E+02  0.34150E+04
 0.21670000E+02 -0.15570E+04
 0.21720001E+02 -0.58290E+04
 0.21770000E+02 -0.11029E+05
 0.21820002E+02 -0.16340E+05
 0.21870001E+02 -0.19790E+05
 0.21920000E+02 -0.24061E+05
 0.21970001E+02 -0.28901E+05
 0.22020000E+02 -0.35834E+05
 0.22070002E+02 -0.44883E+05
 0.22120001E+02 -0.51419E+05
 0.22170000E+02 -0.55050E+05
 0.22220001E+02 -0.56373E+05
 0.22270000E+02 -0.58379E+05
 0.22320002E+02 -0.62435E+05
 0.22370001E+02 -0.64737E+05
 0.22420000E+02 -0.63086E+05
 0.22470001E+02 -0.57314E+05
 0.22520000E+02 -0.52649E+05
 0.22570002E+02 -0.52384E+05
 0.22620001E+02 -0.52930E+05
 0.22670000E+02 -0.52896E+05
 0.22720001E+02 -0.54190E+05
 0.22770000E+02 -0.57183E+05
 0.22820002E+02 -0.57934E+05
 0.22870001E+02 -0.55614E+05
 0.22920000E+02 -0.51759E+05
 0.22970001E+02 -0.47417E+05
 0.23020000E+02 -0.45190E+05
 0.23070002E+02 -0.45937E+05
 0.23120001E+02 -0.48938E+05
 0.23170000E+02 -0.52721E+05
 0.23220001E+02 -0.56473E+05
 0.23270000E+02 -0.60689E+05
 0.23320002E+02 -0.65733E+05
 0.23370001E+02 -0.70168E+05
 0.23420000E+02 -0.73065E+05
 0.23470001E+02 -0.72013E+05
 0.23520000E+02 -0.67350E+05
 0.23570002E+02 -0.61906E+05
 0.23620001E+02 -0.54872E+05
 0.23670000E+02 -0.47217E+05
 0.23720001E+02 -0.36977E+05
 0.23770000E+02 -0.23557E+05
 0.23820002E+02 -0.11191E+05
 0.23870001E+02 -0.11470E+04
 0.23920000E+02  0.69960E+04
 0.23970001E+02  0.12587E+05
 0.24020000E+02  0.17100E+05
 0.24070002E+02  0.22800E+05
 0.24120001E+02  0.28881E+05
 0.24170000E+02  0.36167E+05
 0.24220001E+02  0.44232E+05
 0.24270000E+02  0.51559E+05
 0.24320002E+02  0.56690E+05
 0.24370001E+02  0.60947E+05
 0.24420000E+02  0.67852E+05
 0.24470001E+02  0.73866E+05
 0.24520000E+02  0.76399E+05
 0.24570002E+02  0.76723E+05
 0.24620001E+02  0.75111E+05
 0.24670000E+02  0.71029E+05
 0.24720001E+02  0.64587E+05
 0.24770000E+02  0.56824E+05
 0.24820002E+02  0.48431E+05
 0.24870001E+02  0.41023E+05
 0.24920000E+02  0.36116E+05
 0.24970001E+02  0.33092E+05
 0.25020000E+02  0.29665E+05
 0.25070002E+02  0.24713E+05
 0.25120001E+02  0.18680E+05
 0.25170000E+02  0.11504E+05
 0.25220001E+02  0.27540E+04
 0.25270000E+02 -0.56970E+04
 0.25320002E+02 -0.13315E+05
 0.25370001E+02 -0.21755E+05
 0.25420000E+02 -0.30144E+05
 0.25470001E+02 -0.38044E+05
 0.25520000E+02 -0.46537E+05
 0.25570002E+02 -0.52601E+05
 0.25620001E+02 -0.55666E+05
 0.25670000E+02 -0.55740E+05
 0.25720001E+02 -0.48927E+05
 0.25770000E+02 -0.39324E+05
 0.25820002E+02 -0.31126E+05
 0.25870001E+02 -0.25545E+05
 0.25920000E+02 -0.21940E+05
 0.25970001E+02 -0.17042E+05
 0.26020000E+02 -0.11764E+05
 0.26070002E+02 -0.65190E+04
 0.26120001E+02 -0.48800E+03
 0.26170000E+02  0.58690E+04
 0.26220001E+02  0.10713E+05
 0.26270000E+02  0.11716E+05
 0.26320002E+02  0.93250E+04
 0.26370001E+02  0.72090E+04
 0.26420000E+02  0.61880E+04
 0.26470001E+02  0.50170E+04
 0.26520000E+02  0.30440E+04
 0.26570002E+02 -0.17750E+04
 0.26620001E+02 -0.60370E+04
 0.26670000E+02 -0.84190E+04
 0.26720001E+02 -0.13409E+05
 0.26770000E+02 -0.19562E+05
 0.26820002E+02 -0.28214E+05
 0.26870001E+02 -0.38105E+05
 0.26920000E+02 -0.43169E+05
 0.26970001E+02 -0.47506E+05
 0.27020000E+02 -0.52483E+05
 0.27070002E+02 -0.54349E+05
 0.27120001E+02 -0.53075E+05
 0.27170000E+02 -0.51225E+05
 0.27220001E+02 -0.51853E+05
 0.27270000E+02 -0.53096E+05
 0.27320002E+02 -0.52235E+05
 0.27370001E+02 -0.51687E+05
 0.27420000E+02 -0.53390E+05
 0.27470001E+02 -0.55222E+05
 0.27520000E+02 -0.53062E+05
 0.27570002E+02 -0.45482E+05
 0.27620001E+02 -0.37605E+05
 0.27670000E+02 -0.32008E+05
 0.27720001E+02 -0.27905E+05
 0.27770000E+02 -0.22514E+05
 0.27820002E+02 -0.13683E+05
 0.27870001E+02 -0.51380E+04
 0.27920000E+02  0.33370E+04
 0.27970001E+02  0.12936E+05
 0.28020000E+02  0.23452E+05
 0.28070002E+02  0.33700E+05
 0.28120001E+02  0.40896E+05
 0.28170000E+02  0.45283E+05
 0.28220001E+02  0.47494E+05
 0.28270000E+02  0.51763E+05
 0.28320002E+02  0.56571E+05
 0.28370001E+02  0.55773E+05
 0.28420000E+02  0.54734E+05
 0.28470001E+02  0.56078E+05
 0.28520000E+02  0.56849E+05
 0.28570002E+02  0.56171E+05
 0.28620001E+02  0.54970E+05
 0.28670000E+02  0.55929E+05
 0.28720001E+02  0.55211E+05
 0.28770000E+02  0.52761E+05
 0.28820002E+02  0.50685E+05
 0.28870001E+02  0.46194E+05
 0.28920000E+02  0.41634E+05
 0.28970001E+02  0.38756E+05
 0.29020000E+02  0.35839E+05
 0.29070000E+02  0.32655E+05
 0.29120003E+02  0.31185E+05
 0.29170002E+02  0.30526E+05
 0.29220001E+02  0.30205E+05
 0.29270000E+02  0.31441E+05
 0.29320000E+02  0.33050E+05
 0.29370003E+02  0.36276E+05
 0.29420002E+02  0.40825E+05
 0.29470001E+02  0.44862E+05
 0.29520000E+02  0.47826E+05
 0.29570000E+02  0.50274E+05
 0.29620003E+02  0.56119E+05
 0.29670002E+02  0.65100E+05
 0.29720001E+02  0.72088E+05
 0.29770000E+02  0.75876E+05
 0.29820000E+02  0.75662E+05
 0.29870003E+02  0.74088E+05
 0.29920002E+02  0.74186E+05
 0.29970001E+02  0.72419E+05
 0.30020000E+02  0.71376E+05
 0.30070000E+02  0.72001E+05
 0.30120003E+02  0.69904E+05
 0.30170002E+02  0.62831E+05
 0.30220001E+02  0.51574E+05
 0.30270000E+02  0.45110E+05
 0.30320000E+02  0.44572E+05
 0.30370003E+02  0.42900E+05
 0.30420002E+02  0.38096E+05
 0.30470001E+02  0.28362E+05
 0.30520000E+02  0.19426E+05
 0.30570000E+02  0.18025E+05
 0.30620003E+02  0.22885E+05
 0.30670002E+02  0.29224E+05
 0.30720001E+02  0.31786E+05
 0.30770000E+02  0.26734E+05
 0.30820000E+02  0.19845E+05
 0.30870003E+02  0.23620E+05
 0.30920002E+02  0.27211E+05
 0.30970001E+02  0.26425E+05
 0.31020000E+02  0.30755E+05
 0.31070000E+02  0.28326E+05
 0.31120003E+02  0.20494E+05
 0.31170002E+02  0.25842E+05
 0.31220001E+02  0.32008E+05
 0.31270000E+02  0.30081E+05
 0.31320000E+02  0.31265E+05
 0.31370003E+02  0.23166E+05
 0.31420002E+02  0.18687E+05
 0.31470001E+02  0.30226E+05
 0.31520000E+02  0.41931E+05
 0.31570000E+02  0.56198E+05
 0.31620003E+02  0.66717E+05
 0.31670002E+02  0.66698E+05
 0.31720001E+02  0.62535E+05
 0.31770000E+02  0.66343E+05
 0.31820000E+02  0.72702E+05
 0.31870003E+02  0.75738E+05
 0.31920002E+02  0.81354E+05
 0.31970001E+02  0.73885E+05
 0.32020000E+02  0.62811E+05
 0.32070000E+02  0.62994E+05
 0.32120003E+02  0.54065E+05
 0.32170002E+02  0.44810E+05
 0.32220001E+02  0.48886E+05
 0.32270000E+02  0.47499E+05
 0.32320000E+02  0.49298E+05
 0.32370003E+02  0.47768E+05
 0.32420002E+02  0.37901E+05
 0.32470001E+02  0.43740E+05
 0.32520000E+02  0.48271E+05
 0.32570000E+02  0.44471E+05
 0.32620003E+02  0.39824E+05
 0.32670002E+02  0.49945E+05
 0.32720001E+02  0.71833E+05
 0.32770000E+02  0.70355E+05
 0.32820000E+02  0.71070E+05
 0.32870003E+02  0.86552E+05
 0.32920002E+02  0.80535E+05
 0.32970001E+02  0.76713E+05
 0.33020000E+02  0.87430E+05
 0.33070000E+02  0.88725E+05
 0.33120003E+02  0.92080E+05
 0.33170002E+02  0.87317E+05
 0.33220001E+02  0.88512E+05
 0.33270000E+02  0.10010E+06
 0.33320000E+02  0.95383E+05
 0.33370003E+02  0.90579E+05
 0.33420002E+02  0.91934E+05
 0.33470001E+02  0.10594E+06
 0.33520000E+02  0.11884E+06
 0.33570000E+02  0.11420E+06
 0.33620003E+02  0.10520E+06
 0.33670002E+02  0.98944E+05
 0.33720001E+02  0.10299E+06
 0.33770000E+02  0.12080E+06
 0.33820000E+02  0.13082E+06
 0.33870003E+02  0.12122E+06
 0.33920002E+02  0.11497E+06
 0.33970001E+02  0.10633E+06
 0.34020000E+02  0.10201E+06
 0.34070000E+02  0.11673E+06
 0.34120003E+02  0.97747E+05
 0.34170002E+02  0.70105E+05
 0.34220001E+02  0.63656E+05
 0.34270000E+02  0.37240E+05
 0.34320000E+02  0.40016E+05
 0.34370003E+02  0.46706E+05
 0.34420002E+02  0.26014E+05
 0.34470001E+02  0.26735E+05
 0.34520000E+02  0.38828E+05
 0.34570000E+02  0.66075E+05
 0.34620003E+02  0.72962E+05
 0.34670002E+02  0.40040E+05
 0.34720001E+02  0.13548E+05
 0.34770000E+02  0.93780E+04
 0.34820000E+02  0.67360E+04
 0.34870003E+02 -0.25000E+05
 0.34920002E+02 -0.41939E+05
 0.34970001E+02 -0.97270E+04
 0.35020000E+02  0.92350E+04
 0.35070000E+02  0.71980E+04
 0.35120003E+02 -0.67800E+03
 0.35170002E+02 -0.37357E+05
 0.35220001E+02 -0.53679E+05
 0.35270000E+02 -0.39140E+05
 0.35320000E+02 -0.41634E+05
 0.35370003E+02 -0.26712E+05
 0.35420002E+02 -0.15260E+05
 0.35470001E+02 -0.38017E+05
 0.35520000E+02 -0.32388E+05
 0.35570000E+02 -0.34834E+05
 0.35620003E+02 -0.68100E+05
 0.35670002E+02 -0.60749E+05
 0.35720001E+02 -0.42148E+05
 0.35770000E+02 -0.41638E+05
 0.35820000E+02 -0.25340E+05
 0.35870003E+02 -0.24860E+05
 0.35920002E+02 -0.36664E+05
 0.35970001E+02 -0.31282E+05
 0.36020000E+02 -0.54870E+04
 0.36070000E+02  0.34907E+05
 0.36120003E+02  0.52828E+05
 0.36170002E+02  0.53286E+05
 0.36220001E+02  0.41931E+05
 0.36270000E+02  0.30495E+05
 0.36320000E+02  0.28449E+05
 0.36370003E+02  0.30973E+05
 0.36420002E+02  0.12881E+05
 0.36470001E+02 -0.15340E+04
 0.36520000E+02  0.27090E+05
 0.36570000E+02  0.36918E+05
 0.36620003E+02  0.47941E+05
 0.36670002E+02  0.40504E+05
 0.36720001E+02 -0.29740E+05
 0.36770000E+02 -0.65720E+05
 0.36820000E+02 -0.37940E+05
 0.36870003E+02 -0.89730E+04
 0.36920002E+02  0.19359E+05
 0.36970001E+02  0.36723E+05
 0.37020000E+02  0.28636E+05
 0.37070000E+02  0.34168E+05
 0.37120003E+02  0.37365E+05
 0.37170002E+02  0.10177E+05
 0.37220001E+02 -0.47314E+05
 0.37270000E+02 -0.61485E+05
 0.37320000E+02 -0.30084E+05
 0.37370003E+02 -0.20045E+05
 0.37420002E+02 -0.16183E+05
 0.37470001E+02 -0.44515E+05
 0.37520000E+02 -0.85016E+05
 0.37570000E+02 -0.11334E+06
 0.37620003E+02 -0.14036E+06
 0.37670002E+02 -0.13266E+06
 0.37720001E+02 -0.11542E+06
 0.37770000E+02 -0.10890E+06
 0.37820000E+02 -0.87556E+05
 0.37870003E+02 -0.76742E+05
 0.37920002E+02 -0.83630E+05
 0.37970001E+02 -0.99885E+05
 0.38020000E+02 -0.10673E+06
 0.38070000E+02 -0.71953E+05
 0.38120003E+02 -0.46784E+05
 0.38170002E+02 -0.26839E+05
 0.38220001E+02 -0.90500E+03
 0.38270000E+02  0.39630E+04
 0.38320000E+02 -0.23940E+04
 0.38370003E+02 -0.15977E+05
 0.38420002E+02 -0.21729E+05
 0.38470001E+02 -0.23484E+05
 0.38520000E+02  0.14255E+05
 0.38570000E+02  0.61176E+05
 0.38620003E+02  0.49247E+05
 0.38670002E+02  0.77340E+04
 0.38720001E+02 -0.16430E+05
 0.38770000E+02 -0.23629E+05
 0.38820000E+02 -0.40987E+05
 0.38870003E+02 -0.35505E+05
 0.38920002E+02 -0.20799E+05
 0.38970001E+02 -0.24460E+04
 0.39020000E+02  0.53160E+05
 0.39070000E+02  0.11074E+06
 0.39120003E+02  0.14646E+06
 0.39170002E+02  0.13499E+06
 0.39220001E+02  0.68132E+05
 0.39270000E+02  0.42760E+04
 0.39320000E+02 -0.21612E+05
 0.39370003E+02 -0.16433E+05
 0.39420002E+02  0.20270E+05
 0.39470001E+02  0.56578E+05
 0.39520000E+02  0.37291E+05
 0.39570000E+02 -0.15698E+05
 0.39620003E+02 -0.47302E+05
 0.39670002E+02 -0.57140E+05
 0.39720001E+02 -0.71759E+05
 0.39770000E+02 -0.86261E+05
 0.39820000E+02 -0.90165E+05
 0.39870003E+02 -0.47133E+05
 0.39920002E+02  0.14770E+05
 0.39970001E+02 -0.91150E+04
 0.40020000E+02 -0.46504E+05
 0.40070000E+02 -0.94945E+05
 0.40120003E+02 -0.14854E+06
 0.40170002E+02 -0.12451E+06
 0.40220001E+02 -0.10310E+06
 0.40270000E+02 -0.58097E+05
 0.40320000E+02 -0.28574E+05
 0.40370003E+02 -0.71813E+05
 0.40420002E+02 -0.95861E+05
 0.40470001E+02 -0.13826E+06
 0.40520000E+02 -0.20410E+06
 0.40570000E+02 -0.21164E+06
 0.40620003E+02 -0.19411E+06
 0.40670002E+02 -0.19243E+06
 0.40720001E+02 -0.20009E+06
 0.40770000E+02 -0.18876E+06
 0.40820000E+02 -0.18252E+06
 0.40870003E+02 -0.20346E+06
 0.40920002E+02 -0.17292E+06
 0.40970001E+02 -0.13728E+06
 0.41020000E+02 -0.12870E+06
 0.41070000E+02 -0.10323E+06
 0.41120003E+02 -0.76325E+05
 0.41170002E+02 -0.59473E+05
 0.41220001E+02 -0.45021E+05
 0.41270000E+02 -0.64941E+05
 0.41320000E+02 -0.12476E+06
 0.41370003E+02 -0.14404E+06
 0.41420002E+02 -0.14164E+06
 0.41470001E+02 -0.16182E+06
 0.41520000E+02 -0.18236E+06
 0.41570000E+02 -0.14554E+06
 0.41620003E+02 -0.86986E+05
 0.41670002E+02 -0.78650E+05
 0.41720001E+02 -0.96300E+05
 0.41770000E+02 -0.13814E+06
 0.41820000E+02 -0.18480E+06
 0.41870003E+02 -0.21018E+06
 0.41920002E+02 -0.19230E+06
 0.41970001E+02 -0.11720E+06
 0.42020000E+02 -0.44860E+05
 0.42070000E+02 -0.18156E+05
 0.42120003E+02 -0.25002E+05
 0.42170002E+02 -0.61085E+05
 0.42220001E+02 -0.58892E+05
 0.42270000E+02 -0.89240E+04
 0.42320000E+02 -0.22540E+04
 0.42370003E+02 -0.39658E+05
 0.42420002E+02 -0.96405E+05
 0.42470001E+02 -0.12991E+06
 0.42520000E+02 -0.13926E+06
 0.42570000E+02 -0.13794E+06
 0.42620003E+02 -0.12254E+06
 0.42670002E+02 -0.14751E+06
 0.42720001E+02 -0.19077E+06
 0.42770000E+02 -0.19581E+06
 0.42820000E+02 -0.15613E+06
 0.42870003E+02 -0.12210E+06
 0.42920002E+02 -0.13133E+06
 0.42970001E+02 -0.16346E+06
 0.43020000E+02 -0.16576E+06
 0.43070000E+02 -0.12406E+06
 0.43120003E+02 -0.84960E+05
 0.43170002E+02 -0.82997E+05
 0.43220001E+02 -0.10332E+06
 0.43270000E+02 -0.10955E+06
 0.43320000E+02 -0.14770E+06
 0.43370003E+02 -0.21361E+06
 0.43420002E+02 -0.25234E+06
 0.43470001E+02 -0.28545E+06
 0.43520000E+02 -0.30380E+06
 0.43570000E+02 -0.26916E+06
 0.43620003E+02 -0.24630E+06
 0.43670002E+02 -0.22654E+06
 0.43720001E+02 -0.16427E+06
 0.43770000E+02 -0.17052E+06
 0.43820000E+02 -0.20820E+06
 0.43870003E+02 -0.21926E+06
 0.43920002E+02 -0.25110E+06
 0.43970001E+02 -0.24448E+06
 0.44020000E+02 -0.22186E+06
 0.44070000E+02 -0.23155E+06
 0.44120003E+02 -0.22937E+06
 0.44170002E+02 -0.20794E+06
 0.44220001E+02 -0.16408E+06
 0.44270000E+02 -0.12313E+06
 0.44320000E+02 -0.90318E+05
 0.44370003E+02 -0.77438E+05
 0.44420002E+02 -0.97581E+05
 0.44470001E+02 -0.99521E+05
 0.44520000E+02 -0.14280E+06
 0.44570000E+02 -0.20271E+06
 0.44620003E+02 -0.20430E+06
 0.44670002E+02 -0.19634E+06
 0.44720001E+02 -0.15954E+06
 0.44770000E+02 -0.11877E+06
 0.44820000E+02 -0.10006E+06
 0.44870003E+02 -0.81607E+05
 0.44920002E+02 -0.92100E+05
 0.44970001E+02 -0.67076E+05
 0.45020000E+02 -0.49499E+05
 0.45070000E+02 -0.12401E+06
 0.45120003E+02 -0.15636E+06
 0.45170002E+02 -0.12330E+06
 0.45220001E+02 -0.80519E+05
 0.45270000E+02 -0.28447E+05
 0.45320000E+02 -0.93900E+04
 0.45370003E+02 -0.32316E+05
 0.45420002E+02 -0.61727E+05
 0.45470001E+02 -0.76820E+05
 0.45520000E+02 -0.99407E+05
 0.45570000E+02 -0.12191E+06
 0.45620003E+02 -0.11980E+06
 0.45670002E+02 -0.89920E+05
 0.45720001E+02 -0.47932E+05
 0.45770000E+02  0.94190E+04
 0.45820000E+02  0.77081E+05
 0.45870003E+02  0.10279E+06
 0.45920002E+02  0.10635E+06
 0.45970001E+02  0.68063E+05
 0.46020000E+02 -0.17739E+05
 0.46070000E+02 -0.33169E+05
 0.46120003E+02  0.22662E+05
 0.46170002E+02  0.54882E+05
 0.46220001E+02  0.47225E+05
 0.46270000E+02  0.26250E+05
 0.46320000E+02  0.12460E+05
 0.46370003E+02  0.16940E+05
 0.46420002E+02 -0.15650E+04
 0.46470001E+02 -0.34718E+05
 0.46520000E+02 -0.22915E+05
 0.46570000E+02  0.52140E+04
 0.46620003E+02  0.14083E+05
 0.46670002E+02 -0.19403E+05
 0.46720001E+02 -0.65423E+05
 0.46770000E+02 -0.70938E+05
 0.46820000E+02 -0.79658E+05
 0.46870003E+02 -0.94071E+05
 0.46920002E+02 -0.92948E+05
 0.46970001E+02 -0.66870E+05
 0.47020000E+02 -0.77151E+05
 0.47070000E+02 -0.13452E+06
 0.47120003E+02 -0.12410E+06
 0.47170002E+02 -0.11226E+06
 0.47220001E+02 -0.11804E+06
 0.47270000E+02 -0.69926E+05
 0.47320000E+02  0.10940E+04
 0.47370003E+02  0.58386E+05
 0.47420002E+02  0.85500E+05
 0.47470001E+02  0.75114E+05
 0.47520000E+02  0.46123E+05
 0.47570000E+02  0.65275E+05
 0.47620003E+02  0.11200E+06
 0.47670002E+02  0.13551E+06
 0.47720001E+02  0.16083E+06
 0.47770000E+02  0.17705E+06
 0.47820000E+02  0.15004E+06
 0.47870003E+02  0.10399E+06
 0.47920002E+02  0.62212E+05
 0.47970001E+02  0.45264E+05
 0.48020000E+02  0.44202E+05
 0.48070000E+02  0.76681E+05
 0.48120003E+02  0.12365E+06
 0.48170002E+02  0.86210E+05
 0.48220001E+02  0.47818E+05
 0.48270000E+02  0.32285E+05
 0.48320000E+02 -0.19050E+04
 0.48370003E+02 -0.18870E+04
 0.48420002E+02  0.11386E+05
 0.48470001E+02  0.29511E+05
 0.48520000E+02  0.42603E+05
 0.48570000E+02  0.47102E+05
 0.48620003E+02  0.65456E+05
 0.48670002E+02  0.10648E+06
 0.48720001E+02  0.16848E+06
 0.48770000E+02  0.20229E+06
 0.48820000E+02  0.20231E+06
 0.48870003E+02  0.17933E+06
 0.48920002E+02  0.12653E+06
 0.48970001E+02  0.90356E+05
 0.49020000E+02  0.11500E+06
 0.49070000E+02  0.13531E+06
 0.49120003E+02  0.62589E+05
 0.49170002E+02 -0.67270E+04
 0.49220001E+02 -0.73460E+04
 0.49270000E+02  0.34317E+05
 0.49320000E+02  0.98096E+05
 0.49370003E+02  0.89919E+05
 0.49420002E+02  0.87719E+05
 0.49470001E+02  0.16746E+06
 0.49520000E+02  0.20469E+06
 0.49570000E+02  0.19900E+06
 0.49620003E+02  0.22562E+06
 0.49670002E+02  0.26236E+06
 0.49720001E+02  0.28177E+06
 0.49770000E+02  0.32225E+06
 0.49820000E+02  0.40120E+06
 0.49870003E+02  0.42915E+06
 0.49920002E+02  0.38217E+06
 0.49970001E+02  0.34005E+06
 0.50020000E+02  0.33241E+06
 0.50070000E+02  0.33279E+06
 0.50120003E+02  0.30139E+06
 0.50170002E+02  0.26047E+06
 0.50220001E+02  0.28006E+06
 0.50270000E+02  0.32121E+06
 0.50320000E+02  0.29661E+06
 0.50370003E+02  0.23944E+06
 0.50420002E+02  0.19551E+06
 0.50470001E+02  0.22914E+06
 0.50520000E+02  0.28768E+06
 0.50570000E+02  0.29240E+06
 0.50620003E+02  0.33025E+06
 0.50670002E+02  0.35311E+06
 0.50720001E+02  0.34762E+06
 0.50770000E+02  0.32061E+06
 0.50820000E+02  0.23107E+06
 0.50870003E+02  0.16963E+06
 0.50920002E+02  0.22422E+06
 0.50970001E+02  0.37560E+06
 0.51020000E+02  0.43754E+06
 0.51070000E+02  0.39825E+06
 0.51120003E+02  0.36429E+06
 0.51170002E+02  0.29992E+06
 0.51220001E+02  0.27792E+06
 0.51270000E+02  0.33932E+06
 0.51320000E+02  0.37930E+06
 0.51370003E+02  0.35853E+06
 0.51420002E+02  0.35144E+06
 0.51470001E+02  0.34533E+06
 0.51520000E+02  0.31777E+06
 0.51570000E+02  0.32196E+06
 0.51620003E+02  0.33212E+06
 0.51670002E+02  0.35529E+06
 0.51720001E+02  0.40541E+06
 0.51770000E+02  0.46062E+06
 0.51820000E+02  0.48769E+06
 0.51870003E+02  0.44716E+06
 0.51920002E+02  0.36892E+06
 0.51970001E+02  0.32016E+06
 0.52020000E+02  0.35551E+06
 0.52070000E+02  0.38476E+06
 0.52120003E+02  0.36323E+06
 0.52170002E+02  0.36118E+06
 0.52220001E+02  0.32080E+06
 0.52270000E+02  0.29442E+06
 0.52320000E+02  0.33501E+06
 0.52370003E+02  0.36595E+06
 0.52420002E+02  0.37446E+06
 0.52470001E+02  0.38627E+06
 0.52520000E+02  0.34202E+06
 0.52570000E+02  0.22513E+06
 0.52620003E+02  0.19286E+06
 0.52670002E+02  0.18158E+06
 0.52720001E+02  0.14165E+06
 0.52770000E+02  0.11899E+06
 0.52820000E+02  0.69285E+05
 0.52870003E+02  0.33382E+05
 0.52920002E+02 -0.42993E+05
 0.52970001E+02 -0.15233E+06
 0.53020000E+02 -0.14858E+06
 0.53070000E+02 -0.58258E+05
 0.53120003E+02 -0.41179E+05
 0.53170002E+02 -0.54424E+05
 0.53220001E+02 -0.23833E+05
 0.53270000E+02 -0.19152E+05
 0.53320000E+02 -0.36230E+04
 0.53370003E+02  0.27808E+05
 0.53420002E+02  0.11615E+05
 0.53470001E+02 -0.55800E+03
 0.53520000E+02  0.12883E+05
 0.53570000E+02 -0.22992E+05
 0.53620003E+02 -0.96066E+05
 0.53670002E+02 -0.15787E+06
 0.53720001E+02 -0.20434E+06
 0.53770000E+02 -0.18983E+06
 0.53820000E+02 -0.12637E+06
 0.53870003E+02 -0.85253E+05
 0.53920002E+02 -0.61262E+05
 0.53970001E+02 -0.51957E+05
 0.54020000E+02 -0.89359E+05
 0.54070000E+02 -0.10446E+06
 0.54120003E+02 -0.69524E+05
 0.54170002E+02 -0.64855E+05
 0.54220001E+02 -0.63325E+05
 0.54270000E+02 -0.90858E+05
 0.54320000E+02 -0.13124E+06
 0.54370003E+02 -0.15994E+06
 0.54420002E+02 -0.21749E+06
 0.54470001E+02 -0.18806E+06
 0.54520000E+02 -0.10762E+06
 0.54570000E+02 -0.69258E+05
 0.54620003E+02 -0.73741E+05
 0.54670002E+02 -0.70296E+05
 0.54720001E+02 -0.19627E+05
 0.54770000E+02  0.44393E+05
 0.54820000E+02  0.79449E+05
 0.54870003E+02  0.10607E+05
 0.54920002E+02 -0.80617E+05
 0.54970001E+02 -0.15863E+06
 0.55020000E+02 -0.21600E+06
 0.55070000E+02 -0.19272E+06
 0.55120003E+02 -0.14864E+06
 0.55170002E+02 -0.92203E+05
 0.55220001E+02 -0.10229E+06
 0.55270000E+02 -0.17144E+06
 0.55320000E+02 -0.19868E+06
 0.55370003E+02 -0.18897E+06
 0.55420002E+02 -0.13221E+06
 0.55470001E+02 -0.15313E+06
 0.55520000E+02 -0.25431E+06
 0.55570000E+02 -0.29110E+06
 0.55620003E+02 -0.28784E+06
 0.55670002E+02 -0.30023E+06
 0.55720001E+02 -0.30331E+06
 0.55770000E+02 -0.30702E+06
 0.55820000E+02 -0.37001E+06
 0.55870003E+02 -0.42149E+06
 0.55920002E+02 -0.46428E+06
 0.55970001E+02 -0.43761E+06
 0.56020000E+02 -0.29811E+06
 0.56070000E+02 -0.26907E+06
 0.56120003E+02 -0.29740E+06
 0.56170002E+02 -0.33745E+06
 0.56220001E+02 -0.41726E+06
 0.56270000E+02 -0.50246E+06
 0.56320000E+02 -0.64536E+06
 0.56370003E+02 -0.66100E+06
 0.56420002E+02 -0.58679E+06
 0.56470001E+02 -0.51551E+06
 0.56520000E+02 -0.37113E+06
 0.56570000E+02 -0.30761E+06
 0.56620003E+02 -0.33179E+06
 0.56670002E+02 -0.35662E+06
 0.56720001E+02 -0.35328E+06
 0.56770000E+02 -0.37472E+06
 0.56820000E+02 -0.45125E+06
 0.56870003E+02 -0.49115E+06
 0.56920002E+02 -0.48167E+06
 0.56970001E+02 -0.46300E+06
 0.57020000E+02 -0.45217E+06
 0.57070000E+02 -0.36743E+06
 0.57120003E+02 -0.30377E+06
 0.57170002E+02 -0.29085E+06
 0.57220001E+02 -0.22554E+06
 0.57270000E+02 -0.18748E+06
 0.57320000E+02 -0.10398E+06
 0.57370003E+02  0.38338E+05
 0.57420002E+02  0.78744E+05
 0.57470001E+02 -0.15919E+05
 0.57520000E+02 -0.72076E+05
 0.57570000E+02  0.30281E+05
 0.57620003E+02  0.71297E+05
 0.57670002E+02 -0.19942E+05
 0.57720001E+02 -0.10291E+06
 0.57770000E+02 -0.15728E+06
 0.57820000E+02 -0.19967E+06
 0.57870003E+02 -0.21776E+06
 0.57920002E+02 -0.12434E+06
 0.57970001E+02  0.13764E+05
 0.58020000E+02  0.68466E+05
 0.58070000E+02  0.38260E+04
 0.58120003E+02 -0.92734E+05
 0.58170002E+02 -0.13736E+06
 0.58220001E+02 -0.32852E+06
 0.58270000E+02 -0.49768E+06
 0.58320000E+02 -0.46318E+06
 0.58370003E+02 -0.47261E+06
 0.58420002E+02 -0.49096E+06
 0.58470001E+02 -0.41678E+06
 0.58520000E+02 -0.36581E+06
 0.58570000E+02 -0.29100E+06
 0.58620003E+02 -0.55273E+05
 0.58670002E+02  0.13234E+05
 0.58720001E+02 -0.15457E+06
 0.58770000E+02 -0.23730E+06
 0.58820000E+02 -0.24746E+06
 0.58870003E+02 -0.17774E+06
 0.58920002E+02 -0.80743E+05
 0.58970001E+02  0.14680E+05
 0.59020000E+02  0.11211E+06
 0.59070000E+02  0.13530E+06
 0.59120003E+02  0.76848E+05
 0.59170002E+02 -0.19370E+05
 0.59220001E+02 -0.28285E+05
 0.59270000E+02  0.14417E+05
 0.59320000E+02  0.74859E+05
 0.59370003E+02  0.13348E+06
 0.59420002E+02  0.14369E+06
 0.59470001E+02  0.22602E+06
 0.59520000E+02  0.35938E+06
 0.59570000E+02  0.40829E+06
 0.59620003E+02  0.39173E+06
 0.59670002E+02  0.32918E+06
 0.59720001E+02  0.23606E+06
 0.59770000E+02  0.15604E+06
 0.59820000E+02  0.11111E+06
 0.59870003E+02  0.12205E+06
 0.59920002E+02  0.10151E+06
 0.59970001E+02  0.65129E+05
 0.60020000E+02  0.31952E+05
 0.60070000E+02 -0.95857E+05
 0.60120003E+02 -0.19154E+06
 0.60170002E+02 -0.20739E+06
 0.60220001E+02 -0.23116E+06
 0.60270000E+02 -0.25280E+06
 0.60320000E+02 -0.26928E+06
 0.60370003E+02 -0.23368E+06
 0.60420002E+02 -0.19084E+06
 0.60470001E+02 -0.13532E+06
 0.60520000E+02 -0.84100E+04
 0.60570000E+02  0.63899E+05
 0.60620003E+02  0.89401E+05
 0.60670002E+02  0.12727E+06
 0.60720001E+02  0.15088E+06
 0.60770000E+02  0.10441E+06
 0.60820000E+02  0.28647E+05
 0.60870003E+02  0.78961E+05
 0.60920002E+02  0.15572E+06
 0.60970001E+02  0.21990E+06
 0.61020000E+02  0.29616E+06
 0.61070004E+02  0.27598E+06
 0.61119999E+02  0.28728E+06
 0.61170002E+02  0.29550E+06
 0.61220005E+02  0.20304E+06
 0.61270000E+02  0.19543E+06
 0.61320004E+02  0.20357E+06
 0.61369999E+02  0.11861E+06
 0.61420002E+02  0.37588E+05
 0.61470005E+02 -0.23230E+04
 0.61520000E+02 -0.62294E+05
 0.61570004E+02 -0.12131E+06
 0.61619999E+02 -0.52303E+05
 0.61670002E+02 -0.13686E+05
 0.61720005E+02 -0.72516E+05
 0.61770000E+02  0.27352E+05
 0.61820004E+02  0.17436E+06
 0.61869999E+02  0.22364E+06
 0.61920002E+02  0.31098E+06
 0.61970005E+02  0.36825E+06
 0.62020000E+02  0.32307E+06
 0.62070004E+02  0.24015E+06
 0.62119999E+02  0.13552E+06
 0.62170002E+02 -0.83050E+04
 0.62220005E+02 -0.81534E+05
 0.62270000E+02 -0.93062E+05
 0.62320004E+02 -0.17582E+06
 0.62369999E+02 -0.27006E+06
 0.62420002E+02 -0.37758E+06
 0.62470005E+02 -0.44970E+06
 0.62520000E+02 -0.44860E+06
 0.62570004E+02 -0.41014E+06
 0.62619999E+02 -0.33967E+06
 0.62670002E+02 -0.27136E+06
 0.62720005E+02 -0.19054E+06
 0.62770000E+02 -0.97484E+05
 0.62820004E+02 -0.13337E+05
 0.62869999E+02  0.28335E+05
 0.62920002E+02  0.88830E+04
 0.62970005E+02 -0.11455E+06
 0.63020000E+02 -0.21084E+06
 0.63070004E+02 -0.20072E+06
 0.63119999E+02 -0.22394E+06
 0.63170002E+02 -0.22695E+06
 0.63220005E+02 -0.14540E+06
 0.63270000E+02 -0.27130E+05
 0.63320004E+02  0.27170E+05
 0.63369999E+02 -0.18660E+05
 0.63420002E+02 -0.40290E+04
 0.63470005E+02  0.61413E+05
 0.63520000E+02  0.41674E+05
 0.63570004E+02 -0.78700E+03
 0.63619999E+02 -0.28934E+05
 0.63670002E+02 -0.57010E+04
 0.63720005E+02  0.11788E+06
 0.63770000E+02  0.24376E+06
 0.63820004E+02  0.24474E+06
 0.63869999E+02  0.18988E+06
 0.63920002E+02  0.22151E+06
 0.63970005E+02  0.27197E+06
 0.64019997E+02  0.24273E+06
 0.64070000E+02  0.17523E+06
 0.64119995E+02  0.16573E+06
 0.64169998E+02  0.12728E+06
 0.64220001E+02  0.35414E+05
 0.64269997E+02 -0.25982E+05
 0.64320000E+02 -0.77852E+05
 0.64369995E+02 -0.12746E+06
 0.64419998E+02 -0.12584E+06
 0.64470001E+02 -0.29780E+05
 0.64519997E+02  0.82825E+05
 0.64570000E+02  0.16718E+06
 0.64619995E+02  0.17033E+06
 0.64669998E+02  0.92230E+05
 0.64720001E+02  0.38647E+05
 0.64769997E+02  0.44057E+05
 0.64820000E+02  0.54295E+05
 0.64869995E+02  0.83123E+05
 0.64919998E+02  0.14490E+06
 0.64970001E+02  0.15917E+06
 0.65019997E+02  0.15285E+06
 0.65070000E+02  0.66024E+05
 0.65119995E+02 -0.95590E+04
 0.65169998E+02  0.39125E+05
 0.65220001E+02  0.15517E+05
 0.65269997E+02 -0.45651E+05
 0.65320000E+02 -0.10973E+06
 0.65369995E+02 -0.23768E+06
 0.65419998E+02 -0.30817E+06
 0.65470001E+02 -0.33581E+06
 0.65519997E+02 -0.35259E+06
 0.65570000E+02 -0.27272E+06
 0.65619995E+02 -0.10721E+06
 0.65669998E+02  0.31560E+05
 0.65720001E+02  0.82724E+05
 0.65769997E+02  0.11810E+06
 0.65820000E+02  0.16579E+06
 0.65869995E+02  0.22883E+06
 0.65919998E+02  0.30348E+06
 0.65970001E+02  0.31103E+06
 0.66019997E+02  0.29058E+06
 0.66070000E+02  0.31155E+06
 0.66119995E+02  0.30025E+06
 0.66169998E+02  0.25333E+06
 0.66220001E+02  0.27742E+06
 0.66269997E+02  0.35531E+06
 0.66320000E+02  0.38119E+06
 0.66369995E+02  0.38354E+06
 0.66419998E+02  0.42743E+06
 0.66470001E+02  0.43307E+06
 0.66519997E+02  0.38808E+06
 0.66570000E+02  0.40552E+06
 0.66619995E+02  0.50859E+06
 0.66669998E+02  0.62237E+06
 0.66720001E+02  0.74626E+06
 0.66769997E+02  0.87518E+06
 0.66820000E+02  0.89379E+06
 0.66869995E+02  0.86696E+06
 0.66919998E+02  0.89223E+06
 0.66970001E+02  0.83528E+06
 0.67019997E+02  0.66539E+06
 0.67070000E+02  0.58643E+06
 0.67119995E+02  0.64049E+06
 0.67169998E+02  0.63915E+06
 0.67220001E+02  0.60857E+06
 0.67269997E+02  0.64812E+06
 0.67320000E+02  0.68076E+06
 0.67369995E+02  0.64253E+06
 0.67419998E+02  0.53559E+06
 0.67470001E+02  0.42112E+06
 0.67519997E+02  0.38198E+06
 0.67570000E+02  0.44475E+06
 0.67619995E+02  0.53584E+06
 0.67669998E+02  0.59127E+06
 0.67720001E+02  0.65042E+06
 0.67769997E+02  0.76362E+06
 0.67820000E+02  0.91355E+06
 0.67869995E+02  0.10397E+07
 0.67919998E+02  0.10608E+07
 0.67970001E+02  0.95972E+06
 0.68019997E+02  0.83971E+06
 0.68070000E+02  0.78069E+06
 0.68119995E+02  0.69351E+06
 0.68169998E+02  0.52742E+06
 0.68220001E+02  0.45250E+06
 0.68269997E+02  0.45297E+06
 0.68320000E+02  0.38983E+06
 0.68369995E+02  0.36757E+06
 0.68419998E+02  0.36830E+06
 0.68470001E+02  0.30751E+06
 0.68519997E+02  0.31458E+06
 0.68570000E+02  0.41461E+06
 0.68619995E+02  0.55342E+06
 0.68669998E+02  0.66497E+06
 0.68720001E+02  0.70162E+06
 0.68769997E+02  0.65836E+06
 0.68820000E+02  0.47480E+06
 0.68869995E+02  0.28272E+06
 0.68919998E+02  0.18413E+06
 0.68970001E+02  0.10226E+06
 0.69019997E+02  0.19666E+05
 0.69070000E+02 -0.68205E+05
 0.69119995E+02 -0.15584E+06
 0.69169998E+02 -0.20771E+06
 0.69220001E+02 -0.19926E+06
 0.69269997E+02 -0.15127E+06
 0.69320000E+02 -0.69120E+05
 0.69369995E+02 -0.24290E+05
 0.69419998E+02 -0.13280E+06
 0.69470001E+02 -0.32228E+06
 0.69519997E+02 -0.49050E+06
 0.69570000E+02 -0.59490E+06
 0.69619995E+02 -0.60629E+06
 0.69669998E+02 -0.58451E+06
 0.69720001E+02 -0.56137E+06
 0.69769997E+02 -0.58667E+06
 0.69820000E+02 -0.66904E+06
 0.69869995E+02 -0.69843E+06
 0.69919998E+02 -0.64394E+06
 0.69970001E+02 -0.53506E+06
 0.70019997E+02 -0.39767E+06
 0.70070000E+02 -0.21435E+06
 0.70119995E+02 -0.29039E+05
 0.70169998E+02  0.74467E+05
 0.70220001E+02  0.11600E+06
 0.70269997E+02  0.12532E+06
 0.70320000E+02  0.13551E+06
 0.70369995E+02  0.17077E+06
 0.70419998E+02  0.20614E+06
 0.70470001E+02  0.25786E+06
 0.70519997E+02  0.32928E+06
 0.70570000E+02  0.34210E+06
 0.70619995E+02  0.30511E+06
 0.70669998E+02  0.24252E+06
 0.70720001E+02  0.17009E+06
 0.70769997E+02  0.13534E+06
 0.70820000E+02  0.63100E+05
 0.70869995E+02 -0.84196E+05
 0.70919998E+02 -0.24185E+06
 0.70970001E+02 -0.32760E+06
 0.71019997E+02 -0.32994E+06
 0.71070000E+02 -0.29019E+06
 0.71119995E+02 -0.23780E+06
 0.71169998E+02 -0.22750E+06
 0.71220001E+02 -0.17670E+06
 0.71269997E+02 -0.12290E+06
 0.71320000E+02 -0.17418E+06
 0.71369995E+02 -0.22493E+06
 0.71419998E+02 -0.24771E+06
 0.71470001E+02 -0.25960E+06
 0.71519997E+02 -0.24836E+06
 0.71570000E+02 -0.23309E+06
 0.71619995E+02 -0.21915E+06
 0.71669998E+02 -0.21703E+06
 0.71720001E+02 -0.24242E+06
 0.71769997E+02 -0.26442E+06
 0.71820000E+02 -0.27676E+06
 0.71869995E+02 -0.33466E+06
 0.71919998E+02 -0.44930E+06
 0.71970001E+02 -0.59263E+06
 0.72019997E+02 -0.73064E+06
 0.72070000E+02 -0.85977E+06
 0.72119995E+02 -0.95328E+06
 0.72169998E+02 -0.97046E+06
 0.72220001E+02 -0.93645E+06
 0.72269997E+02 -0.86479E+06
 0.72320000E+02 -0.79212E+06
 0.72369995E+02 -0.79212E+06
 0.72419998E+02 -0.85486E+06
 0.72470001E+02 -0.89246E+06
 0.72519997E+02 -0.87068E+06
 0.72570000E+02 -0.83972E+06
 0.72619995E+02 -0.84562E+06
 0.72669998E+02 -0.88442E+06
 0.72720001E+02 -0.94565E+06
 0.72769997E+02 -0.10213E+07
 0.72820000E+02 -0.10862E+07
 0.72869995E+02 -0.11490E+07
 0.72919998E+02 -0.12132E+07
 0.72970001E+02 -0.12565E+07
 0.73019997E+02 -0.12361E+07
 0.73070000E+02 -0.11732E+07
 0.73119995E+02 -0.11433E+07
 0.73169998E+02 -0.11198E+07
 0.73220001E+02 -0.10596E+07
 0.73269997E+02 -0.97319E+06
 0.73320000E+02 -0.86679E+06
 0.73369995E+02 -0.72708E+06
 0.73419998E+02 -0.61864E+06
 0.73470001E+02 -0.57967E+06
 0.73519997E+02 -0.53704E+06
 0.73570000E+02 -0.49450E+06
 0.73619995E+02 -0.49399E+06
 0.73669998E+02 -0.51690E+06
 0.73720001E+02 -0.49784E+06
 0.73769997E+02 -0.43974E+06
 0.73820000E+02 -0.41714E+06
 0.73869995E+02 -0.43497E+06
 0.73919998E+02 -0.46330E+06
 0.73970001E+02 -0.48679E+06
 0.74019997E+02 -0.49690E+06
 0.74070000E+02 -0.50453E+06
 0.74119995E+02 -0.51910E+06
 0.74169998E+02 -0.52663E+06
 0.74220001E+02 -0.53356E+06
 0.74269997E+02 -0.52724E+06
 0.74320000E+02 -0.50543E+06
 0.74369995E+02 -0.48051E+06
 0.74419998E+02 -0.43443E+06
 0.74470001E+02 -0.39022E+06
 0.74519997E+02 -0.32431E+06
 0.74570000E+02 -0.22418E+06
 0.74619995E+02 -0.13180E+06
 0.74669998E+02 -0.48952E+05
 0.74720001E+02  0.20388E+05
 0.74769997E+02  0.92953E+05
 0.74820000E+02  0.19272E+06
 0.74869995E+02  0.30309E+06
 0.74919998E+02  0.39383E+06
 0.74970001E+02  0.45872E+06
 0.75019997E+02  0.47793E+06
 0.75070000E+02  0.43328E+06
 0.75119995E+02  0.36358E+06
 0.75169998E+02  0.29656E+06
 0.75220001E+02  0.24362E+06
 0.75269997E+02  0.21290E+06
 0.75320000E+02  0.19216E+06
 0.75369995E+02  0.16372E+06
 0.75419998E+02  0.12256E+06
 0.75470001E+02  0.10580E+06
 0.75519997E+02  0.12121E+06
 0.75570000E+02  0.12765E+06
 0.75619995E+02  0.99663E+05
 0.75669998E+02  0.50935E+05
 0.75720001E+02  0.23261E+05
 0.75769997E+02  0.32460E+04
 0.75820000E+02 -0.29156E+05
 0.75869995E+02 -0.59488E+05
 0.75919998E+02 -0.90180E+05
 0.75970001E+02 -0.11288E+06
 0.76019997E+02 -0.11506E+06
 0.76070000E+02 -0.10302E+06
 0.76119995E+02 -0.80811E+05
 0.76169998E+02 -0.49514E+05
 0.76220001E+02 -0.41744E+05
 0.76269997E+02 -0.64388E+05
 0.76320000E+02 -0.75862E+05
 0.76369995E+02 -0.88806E+05
 0.76419998E+02 -0.12674E+06
 0.76470001E+02 -0.14491E+06
 0.76519997E+02 -0.13695E+06
 0.76570000E+02 -0.12800E+06
 0.76619995E+02 -0.90147E+05
 0.76669998E+02 -0.24660E+04
 0.76720001E+02  0.12339E+06
 0.76769997E+02  0.23884E+06
 0.76820000E+02  0.30118E+06
 0.76869995E+02  0.33035E+06
 0.76919998E+02  0.34922E+06
 0.76970001E+02  0.37071E+06
 0.77019997E+02  0.42266E+06
 0.77070000E+02  0.47635E+06
 0.77119995E+02  0.50370E+06
 0.77169998E+02  0.52120E+06
 0.77220001E+02  0.49339E+06
 0.77269997E+02  0.43902E+06
 0.77320000E+02  0.39396E+06
 0.77369995E+02  0.33241E+06
 0.77419998E+02  0.28315E+06
 0.77470001E+02  0.26001E+06
 0.77519997E+02  0.23880E+06
 0.77570000E+02  0.22573E+06
 0.77619995E+02  0.21097E+06
 0.77669998E+02  0.16091E+06
 0.77720001E+02  0.91040E+05
 0.77769997E+02  0.38804E+05
 0.77820000E+02  0.25017E+05
 0.77869995E+02  0.60538E+05
 0.77919998E+02  0.11655E+06
 0.77970001E+02  0.16626E+06
 0.78019997E+02  0.20871E+06
 0.78070000E+02  0.26294E+06
 0.78119995E+02  0.33339E+06
 0.78169998E+02  0.41126E+06
 0.78220001E+02  0.48712E+06
 0.78269997E+02  0.55010E+06
 0.78320000E+02  0.59678E+06
 0.78369995E+02  0.62192E+06
 0.78419998E+02  0.67543E+06
 0.78470001E+02  0.73917E+06
 0.78519997E+02  0.76287E+06
 0.78570000E+02  0.76802E+06
 0.78619995E+02  0.75342E+06
 0.78669998E+02  0.71468E+06
 0.78720001E+02  0.64624E+06
 0.78769997E+02  0.59019E+06
 0.78820000E+02  0.55570E+06
 0.78869995E+02  0.49878E+06
 0.78919998E+02  0.46379E+06
 0.78970001E+02  0.45516E+06
 0.79019997E+02  0.40523E+06
 0.79070000E+02  0.35046E+06
 0.79119995E+02  0.33132E+06
 0.79169998E+02  0.30486E+06
 0.79220001E+02  0.28846E+06
 0.79269997E+02  0.28008E+06
 0.79320000E+02  0.24705E+06
 0.79369995E+02  0.20927E+06
 0.79419998E+02  0.15835E+06
 0.79470001E+02  0.12320E+06
 0.79519997E+02  0.14397E+06
 0.79570000E+02  0.18770E+06
 0.79619995E+02  0.24111E+06
 0.79669998E+02  0.31243E+06
 0.79720001E+02  0.38461E+06
 0.79769997E+02  0.43222E+06
 0.79820000E+02  0.45774E+06
 0.79869995E+02  0.47846E+06
 0.79919998E+02  0.51166E+06
 0.79970001E+02  0.55603E+06
 0.80019997E+02  0.58292E+06
 0.80070000E+02  0.58406E+06
 0.80119995E+02  0.57120E+06
 0.80169998E+02  0.55744E+06
 0.80220001E+02  0.52796E+06
 0.80269997E+02  0.48736E+06
 0.80320000E+02  0.44702E+06
 0.80369995E+02  0.38338E+06
 0.80419998E+02  0.33430E+06
 0.80470001E+02  0.32624E+06
 0.80519997E+02  0.32179E+06
 0.80570000E+02  0.31485E+06
 0.80619995E+02  0.33249E+06
 0.80669998E+02  0.37516E+06
 0.80720001E+02  0.40870E+06
 0.80769997E+02  0.43303E+06
 0.80820000E+02  0.46431E+06
 0.80869995E+02  0.49826E+06
 0.80919998E+02  0.51603E+06
 0.80970001E+02  0.49503E+06
 0.81019997E+02  0.45601E+06
 0.81070000E+02  0.40641E+06
 0.81119995E+02  0.33470E+06
 0.81169998E+02  0.26596E+06
 0.81220001E+02  0.21864E+06
 0.81269997E+02  0.19595E+06
 0.81320000E+02  0.17474E+06
 0.81369995E+02  0.12987E+06
 0.81419998E+02  0.85679E+05
 0.81470001E+02  0.68438E+05
 0.81519997E+02  0.49500E+05
 0.81570000E+02  0.17955E+05
 0.81619995E+02 -0.54790E+04
 0.81669998E+02 -0.56947E+05
 0.81720001E+02 -0.12290E+06
 0.81769997E+02 -0.15484E+06
 0.81820000E+02 -0.17648E+06
 0.81869995E+02 -0.19328E+06
 0.81919998E+02 -0.19294E+06
 0.81970001E+02 -0.19102E+06
 0.82019997E+02 -0.21088E+06
 0.82070000E+02 -0.24347E+06
 0.82119995E+02 -0.28099E+06
 0.82169998E+02 -0.33168E+06
 0.82220001E+02 -0.36450E+06
 0.82269997E+02 -0.36984E+06
 0.82320000E+02 -0.35421E+06
 0.82369995E+02 -0.33994E+06
 0.82419998E+02 -0.36185E+06
 0.82470001E+02 -0.39850E+06
 0.82519997E+02 -0.41888E+06
 0.82570000E+02 -0.40332E+06
 0.82619995E+02 -0.37609E+06
 0.82669998E+02 -0.36184E+06
 0.82720001E+02 -0.33684E+06
 0.82769997E+02 -0.29970E+06
 0.82820000E+02 -0.26484E+06
 0.82869995E+02 -0.24832E+06
 0.82919998E+02 -0.23959E+06
 0.82970001E+02 -0.21900E+06
 0.83019997E+02 -0.19080E+06
 0.83070000E+02 -0.15176E+06
 0.83119995E+02 -0.11005E+06
 0.83169998E+02 -0.81545E+05
 0.83220001E+02 -0.46717E+05
 0.83269997E+02 -0.10047E+05
 0.83320000E+02 -0.12149E+05
 0.83369995E+02 -0.48174E+05
 0.83419998E+02 -0.11516E+06
 0.83470001E+02 -0.20222E+06
 0.83519997E+02 -0.28647E+06
 0.83570000E+02 -0.36658E+06
 0.83619995E+02 -0.41362E+06
 0.83669998E+02 -0.43258E+06
 0.83720001E+02 -0.43093E+06
 0.83769997E+02 -0.39132E+06
 0.83820000E+02 -0.33450E+06
 0.83869995E+02 -0.28911E+06
 0.83919998E+02 -0.27224E+06
 0.83970001E+02 -0.26819E+06
 0.84019997E+02 -0.26302E+06
 0.84070000E+02 -0.24884E+06
 0.84119995E+02 -0.22772E+06
 0.84169998E+02 -0.22258E+06
 0.84220001E+02 -0.23543E+06
 0.84269997E+02 -0.26477E+06
 0.84320000E+02 -0.30510E+06
 0.84369995E+02 -0.35413E+06
 0.84419998E+02 -0.39407E+06
 0.84470001E+02 -0.42104E+06
 0.84519997E+02 -0.45864E+06
 0.84570000E+02 -0.50183E+06
 0.84619995E+02 -0.54260E+06
 0.84669998E+02 -0.57322E+06
 0.84720001E+02 -0.59838E+06
 0.84769997E+02 -0.61174E+06
 0.84820000E+02 -0.59527E+06
 0.84869995E+02 -0.55849E+06
 0.84919998E+02 -0.51026E+06
 0.84970001E+02 -0.46750E+06
 0.85019997E+02 -0.44411E+06
 0.85070000E+02 -0.43352E+06
 0.85119995E+02 -0.42037E+06
 0.85169998E+02 -0.39994E+06
 0.85220001E+02 -0.37252E+06
 0.85269997E+02 -0.34090E+06
 0.85320000E+02 -0.29864E+06
 0.85369995E+02 -0.23090E+06
 0.85419998E+02 -0.16946E+06
 0.85470001E+02 -0.13812E+06
 0.85519997E+02 -0.12594E+06
 0.85570000E+02 -0.12013E+06
 0.85619995E+02 -0.11003E+06
 0.85669998E+02 -0.10383E+06
 0.85720001E+02 -0.13027E+06
 0.85769997E+02 -0.20542E+06
 0.85820000E+02 -0.30092E+06
 0.85869995E+02 -0.37865E+06
 0.85919998E+02 -0.41863E+06
 0.85970001E+02 -0.42047E+06
 0.86019997E+02 -0.39794E+06
 0.86070000E+02 -0.38403E+06
 0.86119995E+02 -0.38494E+06
 0.86169998E+02 -0.38157E+06
 0.86220001E+02 -0.37609E+06
 0.86269997E+02 -0.34297E+06
 0.86320000E+02 -0.28817E+06
 0.86369995E+02 -0.24804E+06
 0.86419998E+02 -0.21664E+06
 0.86470001E+02 -0.19295E+06
 0.86519997E+02 -0.16853E+06
 0.86570000E+02 -0.14003E+06
 0.86619995E+02 -0.11928E+06
 0.86669998E+02 -0.10108E+06
 0.86720001E+02 -0.93971E+05
 0.86769997E+02 -0.10098E+06
 0.86820000E+02 -0.11305E+06
 0.86869995E+02 -0.11966E+06
 0.86919998E+02 -0.11020E+06
 0.86970001E+02 -0.90765E+05
 0.87019997E+02 -0.65870E+05
 0.87070000E+02 -0.40050E+05
 0.87119995E+02 -0.11837E+05
 0.87169998E+02  0.90810E+04
 0.87220001E+02  0.26317E+05
 0.87269997E+02  0.71629E+05
 0.87320000E+02  0.12976E+06
 0.87369995E+02  0.16796E+06
 0.87419998E+02  0.18223E+06
 0.87470001E+02  0.17310E+06
 0.87519997E+02  0.14085E+06
 0.87570000E+02  0.96334E+05
 0.87619995E+02  0.51049E+05
 0.87669998E+02  0.20203E+05
 0.87720001E+02  0.16520E+05
 0.87769997E+02  0.33474E+05
 0.87820000E+02  0.59337E+05
 0.87869995E+02  0.79530E+05
 0.87919998E+02  0.10452E+06
 0.87970001E+02  0.13768E+06
 0.88019997E+02  0.15310E+06
 0.88070000E+02  0.15695E+06
 0.88119995E+02  0.16005E+06
 0.88169998E+02  0.16136E+06
 0.88220001E+02  0.15367E+06
 0.88269997E+02  0.14029E+06
 0.88320000E+02  0.12196E+06
 0.88369995E+02  0.82897E+05
 0.88419998E+02  0.54778E+05
 0.88470001E+02  0.48381E+05
 0.88519997E+02  0.35073E+05
 0.88570000E+02  0.24355E+05
 0.88619995E+02  0.32860E+05
 0.88669998E+02  0.55166E+05
 0.88720001E+02  0.86691E+05
 0.88769997E+02  0.13429E+06
 0.88820000E+02  0.19161E+06
 0.88869995E+02  0.24735E+06
 0.88919998E+02  0.30092E+06
 0.88970001E+02  0.33745E+06
 0.89019997E+02  0.34120E+06
 0.89070000E+02  0.32370E+06
 0.89119995E+02  0.29709E+06
 0.89169998E+02  0.27165E+06
 0.89220001E+02  0.24767E+06
 0.89269997E+02  0.21273E+06
 0.89320000E+02  0.17659E+06
 0.89369995E+02  0.14552E+06
 0.89419998E+02  0.13705E+06
 0.89470001E+02  0.15881E+06
 0.89519997E+02  0.18682E+06
 0.89570000E+02  0.20660E+06
 0.89619995E+02  0.21252E+06
 0.89669998E+02  0.22081E+06
 0.89720001E+02  0.22488E+06
 0.89769997E+02  0.23300E+06
 0.89820000E+02  0.26615E+06
 0.89869995E+02  0.30697E+06
 0.89919998E+02  0.35108E+06
 0.89970001E+02  0.38509E+06
 0.90019997E+02  0.40298E+06
 0.90070000E+02  0.41421E+06
 0.90119995E+02  0.42356E+06
 0.90169998E+02  0.43122E+06
 0.90220001E+02  0.44578E+06
 0.90269997E+02  0.46515E+06
 0.90320000E+02  0.46758E+06
 0.90369995E+02  0.46045E+06
 0.90419998E+02  0.44684E+06
 0.90470001E+02  0.43066E+06
 0.90519997E+02  0.42467E+06
 0.90570000E+02  0.42490E+06
 0.90619995E+02  0.43275E+06
 0.90669998E+02  0.44698E+06
 0.90720001E+02  0.45194E+06
 0.90769997E+02  0.44053E+06
 0.90820000E+02  0.41378E+06
 0.90869995E+02  0.37061E+06
 0.90919998E+02  0.31544E+06
 0.90970001E+02  0.26254E+06
 0.91019997E+02  0.22093E+06
 0.91070000E+02  0.18942E+06
 0.91119995E+02  0.17565E+06
 0.91169998E+02  0.17700E+06
 0.91220001E+02  0.16447E+06
 0.91269997E+02  0.13629E+06
 0.91320000E+02  0.11557E+06
 0.91369995E+02  0.90999E+05
 0.91419998E+02  0.65491E+05
 0.91470001E+02  0.50313E+05
 0.91519997E+02  0.37557E+05
 0.91570000E+02  0.20273E+05
 0.91619995E+02 -0.12397E+05
 0.91669998E+02 -0.59614E+05
 0.91720001E+02 -0.11419E+06
 0.91769997E+02 -0.15934E+06
 0.91820000E+02 -0.18743E+06
 0.91869995E+02 -0.20090E+06
 0.91919998E+02 -0.19698E+06
 0.91970001E+02 -0.16434E+06
 0.92019997E+02 -0.95805E+05
 0.92070000E+02 -0.19912E+05
 0.92119995E+02  0.41319E+05
 0.92169998E+02  0.95160E+05
 0.92220001E+02  0.15222E+06
 0.92269997E+02  0.20881E+06
 0.92320000E+02  0.23872E+06
 0.92369995E+02  0.23102E+06
 0.92419998E+02  0.20109E+06
 0.92470001E+02  0.16206E+06
 0.92519997E+02  0.12021E+06
 0.92570000E+02  0.74093E+05
 0.92619995E+02  0.17673E+05
 0.92669998E+02 -0.43248E+05
 0.92720001E+02 -0.10733E+06
 0.92769997E+02 -0.17674E+06
 0.92820000E+02 -0.23128E+06
 0.92869995E+02 -0.26897E+06
 0.92919998E+02 -0.29480E+06
 0.92970001E+02 -0.29300E+06
 0.93019997E+02 -0.26968E+06
 0.93070000E+02 -0.24378E+06
 0.93119995E+02 -0.21438E+06
 0.93169998E+02 -0.18355E+06
 0.93220001E+02 -0.15279E+06
 0.93269997E+02 -0.12004E+06
 0.93320000E+02 -0.99220E+05
 0.93369995E+02 -0.85886E+05
 0.93419998E+02 -0.73909E+05
 0.93470001E+02 -0.67819E+05
 0.93519997E+02 -0.69877E+05
 0.93570000E+02 -0.88843E+05
 0.93619995E+02 -0.12215E+06
 0.93669998E+02 -0.16968E+06
 0.93720001E+02 -0.22881E+06
 0.93769997E+02 -0.28406E+06
 0.93820000E+02 -0.32868E+06
 0.93869995E+02 -0.34834E+06
 0.93919998E+02 -0.33745E+06
 0.93970001E+02 -0.31566E+06
 0.94019997E+02 -0.28723E+06
 0.94070000E+02 -0.24979E+06
 0.94119995E+02 -0.20050E+06
 0.94169998E+02 -0.14894E+06
 0.94220001E+02 -0.11122E+06
 0.94269997E+02 -0.90631E+05
 0.94320000E+02 -0.91610E+05
 0.94369995E+02 -0.99474E+05
 0.94419998E+02 -0.11130E+06
 0.94470001E+02 -0.12275E+06
 0.94519997E+02 -0.11651E+06
 0.94570000E+02 -0.10648E+06
 0.94619995E+02 -0.10970E+06
 0.94669998E+02 -0.12514E+06
 0.94720001E+02 -0.14869E+06
 0.94769997E+02 -0.17300E+06
 0.94820000E+02 -0.18079E+06
 0.94869995E+02 -0.18970E+06
 0.94919998E+02 -0.20763E+06
 0.94970001E+02 -0.19580E+06
 0.95019997E+02 -0.16339E+06
 0.95070000E+02 -0.12648E+06
 0.95119995E+02 -0.89531E+05
 0.95169998E+02 -0.77733E+05
 0.95220001E+02 -0.81735E+05
 0.95269997E+02 -0.84297E+05
 0.95320000E+02 -0.81433E+05
 0.95369995E+02 -0.73370E+05
 0.95419998E+02 -0.63952E+05
 0.95470001E+02 -0.49541E+05
 0.95519997E+02 -0.21612E+05
 0.95570000E+02  0.22551E+05
 0.95619995E+02  0.66625E+05
 0.95669998E+02  0.10453E+06
 0.95720001E+02  0.14479E+06
 0.95769997E+02  0.18984E+06
 0.95820000E+02  0.23986E+06
 0.95869995E+02  0.28434E+06
 0.95919998E+02  0.31273E+06
 0.95970001E+02  0.32897E+06
 0.96019997E+02  0.33206E+06
 0.96070000E+02  0.32430E+06
 0.96119995E+02  0.31382E+06
 0.96169998E+02  0.30147E+06
 0.96220001E+02  0.28796E+06
 0.96269997E+02  0.26653E+06
 0.96320000E+02  0.23894E+06
 0.96369995E+02  0.21524E+06
 0.96419998E+02  0.18909E+06
 0.96470001E+02  0.15831E+06
 0.96519997E+02  0.13633E+06
 0.96570000E+02  0.12762E+06
 0.96619995E+02  0.12215E+06
 0.96669998E+02  0.11607E+06
 0.96720001E+02  0.12085E+06
 0.96769997E+02  0.12974E+06
 0.96820000E+02  0.13342E+06
 0.96869995E+02  0.14827E+06
 0.96919998E+02  0.16517E+06
 0.96970001E+02  0.16723E+06
 0.97019997E+02  0.16102E+06
 0.97070000E+02  0.16279E+06
 0.97119995E+02  0.17684E+06
 0.97169998E+02  0.18942E+06
 0.97220001E+02  0.19676E+06
 0.97269997E+02  0.19213E+06
 0.97320000E+02  0.18261E+06
 0.97369995E+02  0.17827E+06
 0.97419998E+02  0.16854E+06
 0.97470001E+02  0.15501E+06
 0.97519997E+02  0.14284E+06
 0.97570000E+02  0.13245E+06
 0.97619995E+02  0.11985E+06
 0.97669998E+02  0.11467E+06
 0.97720001E+02  0.12112E+06
 0.97769997E+02  0.11793E+06
 0.97820000E+02  0.11598E+06
 0.97869995E+02  0.12095E+06
 0.97919998E+02  0.11723E+06
 0.97970001E+02  0.11956E+06
 0.98019997E+02  0.13758E+06
 0.98070000E+02  0.15829E+06
 0.98119995E+02  0.16809E+06
 0.98169998E+02  0.16633E+06
 0.98220001E+02  0.16718E+06
 0.98269997E+02  0.17112E+06
 0.98320000E+02  0.16727E+06
 0.98369995E+02  0.16069E+06
 0.98419998E+02  0.15035E+06
 0.98470001E+02  0.13900E+06
 0.98519997E+02  0.13306E+06
 0.98570000E+02  0.11979E+06
 0.98619995E+02  0.10219E+06
 0.98669998E+02  0.93211E+05
 0.98720001E+02  0.10222E+06
 0.98769997E+02  0.12555E+06
 0.98820000E+02  0.14780E+06
 0.98869995E+02  0.16756E+06
 0.98919998E+02  0.18380E+06
 0.98970001E+02  0.19925E+06
 0.99019997E+02  0.21751E+06
 0.99070000E+02  0.23527E+06
 0.99119995E+02  0.24730E+06
 0.99169998E+02  0.25479E+06
 0.99220001E+02  0.26964E+06
 0.99269997E+02  0.28029E+06
 0.99320000E+02  0.26987E+06
 0.99369995E+02  0.24065E+06
 0.99419998E+02  0.18987E+06
 0.99470001E+02  0.12019E+06
 0.99519997E+02  0.41482E+05
 0.99570000E+02 -0.48271E+05
 0.99619995E+02 -0.14483E+06
 0.99669998E+02 -0.23614E+06
 0.99720001E+02 -0.31542E+06
 0.99769997E+02 -0.37847E+06
 0.99820000E+02 -0.42889E+06
 0.99869995E+02 -0.46538E+06
 0.99919998E+02 -0.48978E+06
 0.99970001E+02 -0.51374E+06
 0.10002000E+03 -0.53840E+06
 0.10007000E+03 -0.56028E+06
 0.10012000E+03 -0.58071E+06
 0.10017000E+03 -0.59345E+06
 0.10022000E+03 -0.58737E+06
 0.10027000E+03 -0.56352E+06
 0.10032000E+03 -0.53376E+06
 0.10037000E+03 -0.51461E+06
 0.10042000E+03 -0.50802E+06
 0.10047000E+03 -0.50488E+06
 0.10052000E+03 -0.50066E+06
 0.10057000E+03 -0.49914E+06
 0.10062000E+03 -0.50192E+06
 0.10067000E+03 -0.49310E+06
 0.10072000E+03 -0.47935E+06
 0.10077000E+03 -0.47579E+06
 0.10082000E+03 -0.47755E+06
 0.10087000E+03 -0.48719E+06
 0.10092000E+03 -0.49918E+06
 0.10097000E+03 -0.50723E+06
 0.10102000E+03 -0.51024E+06
 0.10107000E+03 -0.51074E+06
 0.10112000E+03 -0.51456E+06
 0.10117000E+03 -0.51934E+06
 0.10122000E+03 -0.53342E+06
 0.10127000E+03 -0.55027E+06
 0.10132000E+03 -0.56346E+06
 0.10137000E+03 -0.58394E+06
 0.10142000E+03 -0.60419E+06
 0.10147000E+03 -0.62119E+06
 0.10152000E+03 -0.64098E+06
 0.10157000E+03 -0.65725E+06
 0.10162000E+03 -0.66599E+06
 0.10167000E+03 -0.65888E+06
 0.10172000E+03 -0.62775E+06
 0.10177000E+03 -0.58899E+06
 0.10182000E+03 -0.54998E+06
 0.10187000E+03 -0.51362E+06
 0.10192000E+03 -0.49188E+06
 0.10197000E+03 -0.47645E+06
 0.10202000E+03 -0.45271E+06
 0.10207000E+03 -0.41711E+06
 0.10212000E+03 -0.37990E+06
 0.10217000E+03 -0.34727E+06
 0.10222000E+03 -0.31506E+06
 0.10227000E+03 -0.28410E+06
 0.10232000E+03 -0.24715E+06
 0.10237000E+03 -0.20418E+06
 0.10242000E+03 -0.16891E+06
 0.10247000E+03 -0.13959E+06
 0.10252000E+03 -0.11462E+06
 0.10257000E+03 -0.98202E+05
 0.10262000E+03 -0.86408E+05
 0.10267000E+03 -0.73449E+05
 0.10272000E+03 -0.54165E+05
 0.10277000E+03 -0.23878E+05
 0.10282000E+03  0.19581E+05
 0.10287000E+03  0.70402E+05
 0.10292000E+03  0.12708E+06
 0.10297000E+03  0.18598E+06
 0.10302000E+03  0.23447E+06
 0.10307000E+03  0.27597E+06
 0.10312000E+03  0.30889E+06
 0.10317000E+03  0.33044E+06
 0.10322000E+03  0.34923E+06
 0.10327000E+03  0.36179E+06
 0.10332000E+03  0.36985E+06
 0.10337000E+03  0.37345E+06
 0.10342000E+03  0.36772E+06
 0.10347000E+03  0.35315E+06
 0.10352000E+03  0.33173E+06
 0.10357000E+03  0.30976E+06
 0.10362000E+03  0.28360E+06
 0.10367000E+03  0.24962E+06
 0.10372000E+03  0.22239E+06
 0.10377000E+03  0.20757E+06
 0.10382000E+03  0.19388E+06
 0.10387000E+03  0.17877E+06
 0.10392000E+03  0.16366E+06
 0.10397000E+03  0.15028E+06
 0.10402000E+03  0.14314E+06
 0.10407000E+03  0.14675E+06
 0.10412000E+03  0.15568E+06
 0.10417000E+03  0.16260E+06
 0.10422000E+03  0.17070E+06
 0.10427000E+03  0.17455E+06
 0.10432000E+03  0.17251E+06
 0.10437000E+03  0.17227E+06
 0.10442000E+03  0.17765E+06
 0.10447000E+03  0.19928E+06
 0.10452000E+03  0.23811E+06
 0.10457000E+03  0.27935E+06
 0.10462000E+03  0.31942E+06
 0.10467000E+03  0.35240E+06
 0.10472000E+03  0.37180E+06
 0.10477000E+03  0.38312E+06
 0.10482000E+03  0.39196E+06
 0.10487000E+03  0.40230E+06
 0.10492000E+03  0.41130E+06
 0.10497000E+03  0.41293E+06
 0.10502000E+03  0.39924E+06
 0.10507000E+03  0.37354E+06
 0.10512000E+03  0.34336E+06
 0.10517000E+03  0.31367E+06
 0.10522000E+03  0.28721E+06
 0.10527000E+03  0.25808E+06
 0.10532000E+03  0.23948E+06
 0.10537000E+03  0.23784E+06
 0.10542000E+03  0.24108E+06
 0.10547000E+03  0.23780E+06
 0.10552000E+03  0.21939E+06
 0.10557000E+03  0.19302E+06
 0.10562000E+03  0.17287E+06
 0.10567000E+03  0.16407E+06
 0.10572000E+03  0.16209E+06
 0.10577000E+03  0.16681E+06
 0.10582000E+03  0.17353E+06
 0.10587000E+03  0.18100E+06
 0.10592000E+03  0.19169E+06
 0.10597000E+03  0.20122E+06
 0.10602000E+03  0.21494E+06
 0.10607000E+03  0.23947E+06
 0.10612000E+03  0.27224E+06
 0.10617000E+03  0.29837E+06
 0.10622000E+03  0.31531E+06
 0.10627000E+03  0.32850E+06
 0.10632000E+03  0.33271E+06
 0.10637000E+03  0.33309E+06
 0.10642000E+03  0.33196E+06
 0.10647000E+03  0.32586E+06
 0.10652000E+03  0.32056E+06
 0.10657000E+03  0.31278E+06
 0.10662000E+03  0.29835E+06
 0.10667000E+03  0.28386E+06
 0.10672000E+03  0.25589E+06
 0.10677000E+03  0.21308E+06
 0.10682000E+03  0.17056E+06
 0.10687000E+03  0.12460E+06
 0.10692000E+03  0.76060E+05
 0.10697000E+03  0.27633E+05
 0.10702000E+03 -0.16475E+05
 0.10707000E+03 -0.51522E+05
 0.10712000E+03 -0.78635E+05
 0.10717000E+03 -0.97892E+05
 0.10722000E+03 -0.10954E+06
 0.10727000E+03 -0.11458E+06
 0.10732000E+03 -0.11322E+06
 0.10737000E+03 -0.10510E+06
 0.10742000E+03 -0.95251E+05
 0.10747000E+03 -0.86683E+05
 0.10752000E+03 -0.86162E+05
 0.10757000E+03 -0.10324E+06
 0.10762000E+03 -0.13187E+06
 0.10767000E+03 -0.15835E+06
 0.10772000E+03 -0.17793E+06
 0.10777000E+03 -0.19520E+06
 0.10782000E+03 -0.20431E+06
 0.10787000E+03 -0.20256E+06
 0.10792000E+03 -0.19912E+06
 0.10797000E+03 -0.18444E+06
 0.10802000E+03 -0.15541E+06
 0.10807000E+03 -0.12182E+06
 0.10812000E+03 -0.78158E+05
 0.10817000E+03 -0.23724E+05
 0.10822000E+03  0.34240E+05
 0.10827000E+03  0.93255E+05
 0.10832000E+03  0.14574E+06
 0.10837000E+03  0.18401E+06
 0.10842000E+03  0.21492E+06
 0.10847000E+03  0.25019E+06
 0.10852000E+03  0.29153E+06
 0.10857000E+03  0.33152E+06
 0.10862000E+03  0.37289E+06
 0.10867000E+03  0.40946E+06
 0.10872000E+03  0.42281E+06
 0.10877000E+03  0.41862E+06
 0.10882000E+03  0.40456E+06
 0.10887000E+03  0.39265E+06
 0.10892000E+03  0.38503E+06
 0.10897000E+03  0.36655E+06
 0.10902000E+03  0.34479E+06
 0.10907000E+03  0.32526E+06
 0.10912000E+03  0.30231E+06
 0.10917000E+03  0.27257E+06
 0.10922000E+03  0.24735E+06
 0.10927000E+03  0.23760E+06
 0.10932000E+03  0.22778E+06
 0.10937000E+03  0.20544E+06
 0.10942000E+03  0.17320E+06
 0.10947000E+03  0.13818E+06
 0.10952000E+03  0.10408E+06
 0.10957000E+03  0.71793E+05
 0.10962000E+03  0.40765E+05
 0.10967000E+03  0.65150E+04
 0.10972000E+03 -0.33561E+05
 0.10977000E+03 -0.73206E+05
 0.10982000E+03 -0.10190E+06
 0.10987000E+03 -0.12316E+06
 0.10992000E+03 -0.13858E+06
 0.10997000E+03 -0.14826E+06
 0.11002000E+03 -0.15471E+06
 0.11007000E+03 -0.15379E+06
 0.11012000E+03 -0.15508E+06
 0.11017000E+03 -0.16029E+06
 0.11022000E+03 -0.15880E+06
 0.11027000E+03 -0.14981E+06
 0.11032000E+03 -0.13659E+06
 0.11037000E+03 -0.12468E+06
 0.11042000E+03 -0.11956E+06
 0.11047000E+03 -0.12378E+06
 0.11052000E+03 -0.13328E+06
 0.11057000E+03 -0.14480E+06
 0.11062000E+03 -0.15372E+06
 0.11067000E+03 -0.15639E+06
 0.11072000E+03 -0.15361E+06
 0.11077000E+03 -0.14482E+06
 0.11082000E+03 -0.14084E+06
 0.11087000E+03 -0.14822E+06
 0.11092000E+03 -0.16345E+06
 0.11097000E+03 -0.18262E+06
 0.11102000E+03 -0.20320E+06
 0.11107000E+03 -0.22724E+06
 0.11112000E+03 -0.25281E+06
 0.11117000E+03 -0.27639E+06
 0.11122000E+03 -0.29816E+06
 0.11127000E+03 -0.31832E+06
 0.11132000E+03 -0.33782E+06
 0.11137000E+03 -0.35995E+06
 0.11142000E+03 -0.38120E+06
 0.11147000E+03 -0.39735E+06
 0.11152000E+03 -0.40320E+06
 0.11157000E+03 -0.39159E+06
 0.11162000E+03 -0.36530E+06
 0.11167000E+03 -0.33601E+06
 0.11172000E+03 -0.31028E+06
 0.11177000E+03 -0.29066E+06
 0.11182000E+03 -0.27942E+06
 0.11187000E+03 -0.26537E+06
 0.11192000E+03 -0.24679E+06
 0.11197000E+03 -0.23139E+06
 0.11202000E+03 -0.21562E+06
 0.11207000E+03 -0.19916E+06
 0.11212000E+03 -0.18490E+06
 0.11217000E+03 -0.17321E+06
 0.11222000E+03 -0.16720E+06
 0.11227000E+03 -0.16682E+06
 0.11232000E+03 -0.16965E+06
 0.11237000E+03 -0.17044E+06
 0.11242000E+03 -0.16686E+06
 0.11247000E+03 -0.16510E+06
 0.11252000E+03 -0.16384E+06
 0.11257000E+03 -0.16424E+06
 0.11262000E+03 -0.16891E+06
 0.11267000E+03 -0.17592E+06
 0.11272000E+03 -0.18062E+06
 0.11277000E+03 -0.17821E+06
 0.11282000E+03 -0.17228E+06
 0.11287000E+03 -0.15979E+06
 0.11292000E+03 -0.13666E+06
 0.11297000E+03 -0.10752E+06
 0.11302000E+03 -0.81302E+05
 0.11307000E+03 -0.67404E+05
 0.11312000E+03 -0.62449E+05
 0.11317000E+03 -0.51915E+05
 0.11322000E+03 -0.30776E+05
 0.11327000E+03 -0.48500E+04
 0.11332000E+03  0.25289E+05
 0.11337000E+03  0.54842E+05
 0.11342000E+03  0.72009E+05
 0.11347000E+03  0.83199E+05
 0.11352000E+03  0.97543E+05
 0.11357000E+03  0.10709E+06
 0.11362000E+03  0.11043E+06
 0.11367000E+03  0.10855E+06
 0.11372000E+03  0.10224E+06
 0.11377000E+03  0.92350E+05
 0.11382000E+03  0.78193E+05
 0.11387000E+03  0.68064E+05
 0.11392000E+03  0.55915E+05
 0.11397000E+03  0.41165E+05
 0.11402000E+03  0.34359E+05
 0.11407000E+03  0.22845E+05
 0.11412000E+03  0.12180E+04
 0.11417000E+03 -0.17184E+05
 0.11422000E+03 -0.30331E+05
 0.11427000E+03 -0.41183E+05
 0.11432000E+03 -0.43728E+05
 0.11437000E+03 -0.29831E+05
 0.11442000E+03 -0.46380E+04
 0.11447000E+03  0.13272E+05
 0.11452000E+03  0.20383E+05
 0.11457000E+03  0.15667E+05
 0.11462000E+03 -0.77720E+04
 0.11467000E+03 -0.40148E+05
 0.11472000E+03 -0.74321E+05
 0.11477000E+03 -0.10882E+06
 0.11482000E+03 -0.13741E+06
 0.11487000E+03 -0.16424E+06
 0.11492000E+03 -0.19363E+06
 0.11497000E+03 -0.21747E+06
 0.11502000E+03 -0.23267E+06
 0.11507000E+03 -0.24174E+06
 0.11512000E+03 -0.25229E+06
 0.11517000E+03 -0.27013E+06
 0.11522000E+03 -0.28198E+06
 0.11527000E+03 -0.28698E+06
 0.11532000E+03 -0.29832E+06
 0.11537000E+03 -0.30947E+06
 0.11542000E+03 -0.31794E+06
 0.11547000E+03 -0.32555E+06
 0.11552000E+03 -0.32744E+06
 0.11557000E+03 -0.32065E+06
 0.11562000E+03 -0.30746E+06
 0.11567000E+03 -0.30050E+06
 0.11572000E+03 -0.29356E+06
 0.11577000E+03 -0.28298E+06
 0.11582000E+03 -0.27644E+06
 0.11587000E+03 -0.26714E+06
 0.11592000E+03 -0.25906E+06
 0.11597000E+03 -0.25564E+06
 0.11602000E+03 -0.24762E+06
 0.11607000E+03 -0.23034E+06
 0.11612000E+03 -0.20227E+06
 0.11617000E+03 -0.16563E+06
 0.11622000E+03 -0.12830E+06
 0.11627000E+03 -0.95203E+05
 0.11632000E+03 -0.67616E+05
 0.11637000E+03 -0.42780E+05
 0.11642000E+03 -0.20810E+05
 0.11647000E+03  0.16930E+04
 0.11652000E+03  0.35678E+05
 0.11657000E+03  0.77469E+05
 0.11662000E+03  0.12507E+06
 0.11667000E+03  0.17752E+06
 0.11672000E+03  0.22639E+06
 0.11677000E+03  0.27107E+06
 0.11682000E+03  0.31330E+06
 0.11687000E+03  0.35123E+06
 0.11692000E+03  0.38250E+06
 0.11697000E+03  0.41409E+06
 0.11702000E+03  0.45045E+06
 0.11707000E+03  0.48343E+06
 0.11712000E+03  0.50818E+06
 0.11717000E+03  0.52784E+06
 0.11722000E+03  0.54447E+06
 0.11727000E+03  0.55850E+06
 0.11732000E+03  0.57497E+06
 0.11737000E+03  0.59813E+06
 0.11742000E+03  0.62578E+06
 0.11747000E+03  0.65831E+06
 0.11752000E+03  0.69116E+06
 0.11757000E+03  0.71237E+06
 0.11762000E+03  0.71743E+06
 0.11767000E+03  0.71059E+06
 0.11772000E+03  0.69976E+06
 0.11777000E+03  0.68211E+06
 0.11782000E+03  0.66775E+06
 0.11787000E+03  0.66651E+06
 0.11792000E+03  0.65909E+06
 0.11797000E+03  0.64324E+06
 0.11802000E+03  0.62671E+06
 0.11807000E+03  0.60769E+06
 0.11812000E+03  0.58725E+06
 0.11817000E+03  0.56839E+06
 0.11822000E+03  0.55120E+06
 0.11827000E+03  0.53099E+06
 0.11832000E+03  0.51164E+06
 0.11837000E+03  0.49851E+06
 0.11842000E+03  0.48547E+06
 0.11847000E+03  0.46567E+06
 0.11852000E+03  0.43998E+06
 0.11857000E+03  0.40814E+06
 0.11862000E+03  0.37222E+06
 0.11867000E+03  0.33958E+06
 0.11872000E+03  0.31121E+06
 0.11877000E+03  0.28448E+06
 0.11882000E+03  0.26324E+06
 0.11887000E+03  0.25310E+06
 0.11892000E+03  0.25381E+06
 0.11897000E+03  0.26022E+06
 0.11902000E+03  0.26274E+06
 0.11907000E+03  0.26039E+06
 0.11912000E+03  0.25698E+06
 0.11917000E+03  0.25214E+06
 0.11922000E+03  0.24218E+06
 0.11927000E+03  0.22828E+06
 0.11932000E+03  0.21423E+06
 0.11937000E+03  0.19547E+06
 0.11942000E+03  0.17003E+06
 0.11947000E+03  0.13287E+06
 0.11952000E+03  0.90486E+05
 0.11957000E+03  0.49891E+05
 0.11962000E+03  0.62150E+04
 0.11967000E+03 -0.39031E+05
 0.11972000E+03 -0.87949E+05
 0.11977000E+03 -0.13562E+06
 0.11982000E+03 -0.18597E+06
 0.11987000E+03 -0.24579E+06
 0.11992000E+03 -0.30718E+06
 0.11997000E+03 -0.36959E+06
 0.12002000E+03 -0.43372E+06
 0.12007000E+03 -0.49645E+06
 0.12012000E+03 -0.55540E+06
 0.12017000E+03 -0.61358E+06
 0.12022000E+03 -0.67127E+06
 0.12027000E+03 -0.71781E+06
 0.12032000E+03 -0.75319E+06
 0.12037000E+03 -0.78911E+06
 0.12042000E+03 -0.82874E+06
 0.12047000E+03 -0.86509E+06
 0.12052000E+03 -0.89440E+06
 0.12057000E+03 -0.92475E+06
 0.12062000E+03 -0.95726E+06
 0.12067000E+03 -0.98376E+06
 0.12072000E+03 -0.99700E+06
 0.12077000E+03 -0.99253E+06
 0.12082000E+03 -0.97308E+06
 0.12087000E+03 -0.94055E+06
 0.12092000E+03 -0.89691E+06
 0.12097000E+03 -0.84890E+06
 0.12102000E+03 -0.80235E+06
 0.12107000E+03 -0.75508E+06
 0.12112000E+03 -0.70812E+06
 0.12117000E+03 -0.66224E+06
 0.12122000E+03 -0.61624E+06
 0.12127000E+03 -0.56956E+06
 0.12132000E+03 -0.51754E+06
 0.12137000E+03 -0.46285E+06
 0.12142000E+03 -0.40192E+06
 0.12147000E+03 -0.33704E+06
 0.12152000E+03 -0.28139E+06
 0.12157000E+03 -0.22996E+06
 0.12162000E+03 -0.17489E+06
 0.12167000E+03 -0.11792E+06
 0.12172000E+03 -0.64588E+05
 0.12177000E+03 -0.19163E+05
 0.12182000E+03  0.26479E+05
 0.12187000E+03  0.69799E+05
 0.12192000E+03  0.10444E+06
 0.12197000E+03  0.13963E+06
 0.12202000E+03  0.17342E+06
 0.12207000E+03  0.20671E+06
 0.12212000E+03  0.24165E+06
 0.12217000E+03  0.27189E+06
 0.12222000E+03  0.30041E+06
 0.12227000E+03  0.32839E+06
 0.12232000E+03  0.35591E+06
 0.12237000E+03  0.38345E+06
 0.12242000E+03  0.40763E+06
 0.12247000E+03  0.42573E+06
 0.12252000E+03  0.43961E+06
 0.12257000E+03  0.45408E+06
 0.12262000E+03  0.46772E+06
 0.12267000E+03  0.48290E+06
 0.12272000E+03  0.49722E+06
 0.12277000E+03  0.50193E+06
 0.12282000E+03  0.49760E+06
 0.12287000E+03  0.48634E+06
 0.12292000E+03  0.46803E+06
 0.12297000E+03  0.44444E+06
 0.12302000E+03  0.42739E+06
 0.12307000E+03  0.41431E+06
 0.12312000E+03  0.39193E+06
 0.12317000E+03  0.36564E+06
 0.12322000E+03  0.34382E+06
 0.12327000E+03  0.32704E+06
 0.12332000E+03  0.30938E+06
 0.12337000E+03  0.28870E+06
 0.12342000E+03  0.26123E+06
 0.12347000E+03  0.22646E+06
 0.12352000E+03  0.19237E+06
 0.12357000E+03  0.15161E+06
 0.12362000E+03  0.10030E+06
 0.12367000E+03  0.46464E+05
 0.12372000E+03 -0.34520E+04
 0.12377000E+03 -0.45921E+05
 0.12382000E+03 -0.89214E+05
 0.12387000E+03 -0.13360E+06
 0.12392000E+03 -0.17485E+06
 0.12397000E+03 -0.22169E+06
 0.12402000E+03 -0.27508E+06
 0.12407000E+03 -0.32654E+06
 0.12412000E+03 -0.36632E+06
 0.12417000E+03 -0.39944E+06
 0.12422000E+03 -0.42863E+06
 0.12427000E+03 -0.44237E+06
 0.12432000E+03 -0.45174E+06
 0.12437000E+03 -0.46058E+06
 0.12442000E+03 -0.45893E+06
 0.12447000E+03 -0.45445E+06
 0.12452000E+03 -0.44962E+06
 0.12457000E+03 -0.43856E+06
 0.12462000E+03 -0.42352E+06
 0.12467000E+03 -0.40643E+06
 0.12472000E+03 -0.37945E+06
 0.12477000E+03 -0.35035E+06
 0.12482000E+03 -0.32853E+06
 0.12487000E+03 -0.30937E+06
 0.12492000E+03 -0.28780E+06
 0.12497000E+03 -0.25844E+06
 0.12502000E+03 -0.23472E+06
 0.12507000E+03 -0.21279E+06
 0.12512000E+03 -0.18643E+06
 0.12517001E+03 -0.16491E+06
 0.12521999E+03 -0.13788E+06
 0.12527000E+03 -0.10674E+06
 0.12532000E+03 -0.76258E+05
 0.12537000E+03 -0.47315E+05
 0.12542001E+03 -0.14792E+05
 0.12546999E+03  0.21582E+05
 0.12552000E+03  0.56325E+05
 0.12557000E+03  0.96172E+05
 0.12562000E+03  0.13155E+06
 0.12567001E+03  0.16229E+06
 0.12571999E+03  0.19515E+06
 0.12577000E+03  0.23006E+06
 0.12582000E+03  0.25999E+06
 0.12587000E+03  0.27266E+06
 0.12592001E+03  0.27761E+06
 0.12596999E+03  0.28392E+06
 0.12602000E+03  0.29371E+06
 0.12607000E+03  0.30366E+06
 0.12612000E+03  0.31431E+06
 0.12617001E+03  0.33109E+06
 0.12621999E+03  0.34790E+06
 0.12627000E+03  0.35513E+06
 0.12632000E+03  0.35320E+06
 0.12637000E+03  0.35105E+06
 0.12642001E+03  0.34549E+06
 0.12646999E+03  0.34148E+06
 0.12652000E+03  0.34590E+06
 0.12657000E+03  0.35280E+06
 0.12662000E+03  0.36064E+06
 0.12667001E+03  0.35905E+06
 0.12671999E+03  0.34538E+06
 0.12677000E+03  0.32467E+06
 0.12682000E+03  0.29479E+06
 0.12687000E+03  0.26513E+06
 0.12692001E+03  0.23697E+06
 0.12696999E+03  0.20803E+06
 0.12702000E+03  0.18801E+06
 0.12707000E+03  0.17594E+06
 0.12712000E+03  0.16751E+06
 0.12717001E+03  0.16195E+06
 0.12721999E+03  0.15923E+06
 0.12727000E+03  0.15583E+06
 0.12732000E+03  0.14908E+06
 0.12737000E+03  0.14310E+06
 0.12742001E+03  0.13180E+06
 0.12746999E+03  0.10870E+06
 0.12752000E+03  0.82216E+05
 0.12757000E+03  0.56754E+05
 0.12762000E+03  0.26031E+05
 0.12767001E+03 -0.67490E+04
 0.12771999E+03 -0.32429E+05
 0.12777000E+03 -0.46225E+05
 0.12782000E+03 -0.56125E+05
 0.12787000E+03 -0.73591E+05
 0.12792001E+03 -0.92516E+05
 0.12796999E+03 -0.11298E+06
 0.12802000E+03 -0.13392E+06
 0.12807001E+03 -0.14841E+06
 0.12812001E+03 -0.16676E+06
 0.12817001E+03 -0.19546E+06
 0.12822000E+03 -0.22854E+06
 0.12827000E+03 -0.26087E+06
 0.12832001E+03 -0.29034E+06
 0.12837001E+03 -0.31538E+06
 0.12842001E+03 -0.33291E+06
 0.12847000E+03 -0.33799E+06
 0.12852000E+03 -0.33326E+06
 0.12857001E+03 -0.32548E+06
 0.12862001E+03 -0.31511E+06
 0.12867001E+03 -0.30735E+06
 0.12872000E+03 -0.30193E+06
 0.12877000E+03 -0.29111E+06
 0.12882001E+03 -0.27450E+06
 0.12887001E+03 -0.25726E+06
 0.12892001E+03 -0.24299E+06
 0.12897000E+03 -0.22669E+06
 0.12902000E+03 -0.21170E+06
 0.12907001E+03 -0.20103E+06
 0.12912001E+03 -0.18428E+06
 0.12917001E+03 -0.15855E+06
 0.12922000E+03 -0.13290E+06
 0.12927000E+03 -0.11742E+06
 0.12932001E+03 -0.10789E+06
 0.12937001E+03 -0.97121E+05
 0.12942001E+03 -0.81283E+05
 0.12947000E+03 -0.61381E+05
 0.12952000E+03 -0.46374E+05
 0.12957001E+03 -0.38691E+05
 0.12962001E+03 -0.36664E+05
 0.12967001E+03 -0.38460E+05
 0.12972000E+03 -0.43594E+05
 0.12977000E+03 -0.45518E+05
 0.12982001E+03 -0.41097E+05
 0.12987001E+03 -0.30540E+05
 0.12992001E+03 -0.65230E+04
 0.12997000E+03  0.29852E+05
 0.13002000E+03  0.75022E+05
 0.13007001E+03  0.12052E+06
 0.13012001E+03  0.15554E+06
 0.13017001E+03  0.18140E+06
 0.13022000E+03  0.20176E+06
 0.13027000E+03  0.21744E+06
 0.13032001E+03  0.23389E+06
 0.13037001E+03  0.25685E+06
 0.13042001E+03  0.27908E+06
 0.13047000E+03  0.29362E+06
 0.13052000E+03  0.30919E+06
 0.13057001E+03  0.33047E+06
 0.13062001E+03  0.34738E+06
 0.13067001E+03  0.36072E+06
 0.13072000E+03  0.36794E+06
 0.13077000E+03  0.36262E+06
 0.13082001E+03  0.35847E+06
 0.13087001E+03  0.35264E+06
 0.13092001E+03  0.33962E+06
 0.13097000E+03  0.32788E+06
 0.13102000E+03  0.31866E+06
 0.13107001E+03  0.31349E+06
 0.13112001E+03  0.30737E+06
 0.13117001E+03  0.29814E+06
 0.13122000E+03  0.29093E+06
 0.13127000E+03  0.28762E+06
 0.13132001E+03  0.28472E+06
 0.13137001E+03  0.27452E+06
 0.13142001E+03  0.25965E+06
 0.13147000E+03  0.24386E+06
 0.13152000E+03  0.22371E+06
 0.13157001E+03  0.20045E+06
 0.13162001E+03  0.17138E+06
 0.13167001E+03  0.13945E+06
 0.13172000E+03  0.11232E+06
 0.13177000E+03  0.87981E+05
 0.13182001E+03  0.69496E+05
 0.13187001E+03  0.51569E+05
 0.13192001E+03  0.36649E+05
 0.13197000E+03  0.29870E+05
 0.13202000E+03  0.16860E+05
 0.13207001E+03  0.23120E+04
 0.13212001E+03 -0.10352E+05
 0.13217001E+03 -0.24408E+05
 0.13222000E+03 -0.33434E+05
 0.13227000E+03 -0.41784E+05
 0.13232001E+03 -0.48010E+05
 0.13237001E+03 -0.45725E+05
 0.13242001E+03 -0.41113E+05
 0.13247000E+03 -0.36419E+05
 0.13252000E+03 -0.30631E+05
 0.13257001E+03 -0.31663E+05
 0.13262001E+03 -0.42401E+05
 0.13267001E+03 -0.59430E+05
 0.13272000E+03 -0.81088E+05
 0.13277000E+03 -0.10506E+06
 0.13282001E+03 -0.12290E+06
 0.13287001E+03 -0.13067E+06
 0.13292001E+03 -0.13806E+06
 0.13297000E+03 -0.15045E+06
 0.13302000E+03 -0.16336E+06
 0.13307001E+03 -0.17419E+06
 0.13312001E+03 -0.18201E+06
 0.13317001E+03 -0.18439E+06
 0.13322000E+03 -0.18446E+06
 0.13327000E+03 -0.18173E+06
 0.13332001E+03 -0.17609E+06
 0.13337001E+03 -0.17343E+06
 0.13342001E+03 -0.17507E+06
 0.13347000E+03 -0.17776E+06
 0.13352000E+03 -0.17682E+06
 0.13357001E+03 -0.17361E+06
 0.13362001E+03 -0.16951E+06
 0.13367001E+03 -0.16453E+06
 0.13372000E+03 -0.15717E+06
 0.13377000E+03 -0.14763E+06
 0.13382001E+03 -0.14291E+06
 0.13387001E+03 -0.14360E+06
 0.13392001E+03 -0.14540E+06
 0.13397000E+03 -0.14728E+06
 0.13402000E+03 -0.15066E+06
 0.13407001E+03 -0.15173E+06
 0.13412001E+03 -0.15295E+06
 0.13417001E+03 -0.15977E+06
 0.13422000E+03 -0.16314E+06
 0.13427000E+03 -0.16364E+06
 0.13432001E+03 -0.16052E+06
 0.13437001E+03 -0.15218E+06
 0.13442001E+03 -0.15281E+06
 0.13447000E+03 -0.16150E+06
 0.13452000E+03 -0.16850E+06
 0.13457001E+03 -0.17146E+06
 0.13462001E+03 -0.17160E+06
 0.13467001E+03 -0.16687E+06
 0.13472000E+03 -0.15745E+06
 0.13477000E+03 -0.14937E+06
 0.13482001E+03 -0.14331E+06
 0.13487001E+03 -0.14026E+06
 0.13492001E+03 -0.13696E+06
 0.13497000E+03 -0.13084E+06
 0.13502000E+03 -0.12283E+06
 0.13507001E+03 -0.11322E+06
 0.13512001E+03 -0.10646E+06
 0.13517001E+03 -0.10202E+06
 0.13522000E+03 -0.10231E+06
 0.13527000E+03 -0.10701E+06
 0.13532001E+03 -0.10994E+06
 0.13537001E+03 -0.11246E+06
 0.13542001E+03 -0.11328E+06
 0.13547000E+03 -0.11291E+06
 0.13552000E+03 -0.11024E+06
 0.13557001E+03 -0.10571E+06
 0.13562001E+03 -0.10464E+06
 0.13567001E+03 -0.98278E+05
 0.13572000E+03 -0.85432E+05
 0.13577000E+03 -0.74203E+05
 0.13582001E+03 -0.63766E+05
 0.13587001E+03 -0.48219E+05
 0.13592001E+03 -0.24335E+05
 0.13597000E+03  0.30090E+04
 0.13602000E+03  0.34418E+05
 0.13607001E+03  0.66302E+05
 0.13612001E+03  0.95562E+05
 0.13617001E+03  0.12511E+06
 0.13622000E+03  0.14880E+06
 0.13627000E+03  0.16833E+06
 0.13632001E+03  0.18792E+06
 0.13637001E+03  0.20311E+06
 0.13642001E+03  0.20840E+06
 0.13647000E+03  0.20444E+06
 0.13652000E+03  0.19589E+06
 0.13657001E+03  0.18566E+06
 0.13662001E+03  0.17298E+06
 0.13667001E+03  0.15556E+06
 0.13672000E+03  0.13548E+06
 0.13677000E+03  0.11362E+06
 0.13682001E+03  0.93181E+05
 0.13687001E+03  0.73537E+05
 0.13692001E+03  0.49101E+05
 0.13697000E+03  0.22591E+05
 0.13702000E+03 -0.34960E+04
 0.13707001E+03 -0.27808E+05
 0.13712001E+03 -0.48361E+05
 0.13717001E+03 -0.68709E+05
 0.13722000E+03 -0.91236E+05
 0.13727000E+03 -0.11122E+06
 0.13732001E+03 -0.12398E+06
 0.13737001E+03 -0.13330E+06
 0.13742001E+03 -0.14209E+06
 0.13747000E+03 -0.14893E+06
 0.13752000E+03 -0.15492E+06
 0.13757001E+03 -0.15724E+06
 0.13762001E+03 -0.15254E+06
 0.13767001E+03 -0.14052E+06
 0.13772000E+03 -0.12492E+06
 0.13777000E+03 -0.11076E+06
 0.13782001E+03 -0.93036E+05
 0.13787001E+03 -0.75227E+05
 0.13792001E+03 -0.65141E+05
 0.13797000E+03 -0.55197E+05
 0.13802000E+03 -0.44379E+05
 0.13807001E+03 -0.37009E+05
 0.13812001E+03 -0.33058E+05
 0.13817001E+03 -0.33317E+05
 0.13822000E+03 -0.38199E+05
 0.13827000E+03 -0.47354E+05
 0.13832001E+03 -0.54732E+05
 0.13837001E+03 -0.59501E+05
 0.13842001E+03 -0.63510E+05
 0.13847000E+03 -0.62501E+05
 0.13852000E+03 -0.59276E+05
 0.13857001E+03 -0.56628E+05
 0.13862001E+03 -0.49836E+05
 0.13867001E+03 -0.40793E+05
 0.13872000E+03 -0.31853E+05
 0.13877000E+03 -0.20855E+05
 0.13882001E+03 -0.11473E+05
 0.13887001E+03 -0.43280E+04
 0.13892001E+03  0.16780E+04
 0.13897000E+03  0.88560E+04
 0.13902000E+03  0.20662E+05
 0.13907001E+03  0.33591E+05
 0.13912001E+03  0.44654E+05
 0.13917001E+03  0.50067E+05
 0.13922000E+03  0.53645E+05
 0.13927000E+03  0.59085E+05
 0.13932001E+03  0.62175E+05
 0.13937001E+03  0.67376E+05
 0.13942001E+03  0.71976E+05
 0.13947000E+03  0.71853E+05
 0.13952000E+03  0.69486E+05
 0.13957001E+03  0.64375E+05
 0.13962001E+03  0.58368E+05
 0.13967001E+03  0.53900E+05
 0.13972000E+03  0.51560E+05
 0.13977000E+03  0.47111E+05
 0.13982001E+03  0.38625E+05
 0.13987001E+03  0.24705E+05
 0.13992001E+03  0.62160E+04
 0.13997000E+03 -0.13409E+05
 0.14002000E+03 -0.36037E+05
 0.14007001E+03 -0.58766E+05
 0.14012001E+03 -0.76214E+05
 0.14017001E+03 -0.88635E+05
 0.14022000E+03 -0.99212E+05
 0.14027000E+03 -0.11039E+06
 0.14032001E+03 -0.12482E+06
 0.14037001E+03 -0.13986E+06
 0.14042001E+03 -0.14982E+06
 0.14047000E+03 -0.15271E+06
 0.14052000E+03 -0.14530E+06
 0.14057001E+03 -0.12797E+06
 0.14062001E+03 -0.10754E+06
 0.14067001E+03 -0.86246E+05
 0.14072000E+03 -0.60969E+05
 0.14077000E+03 -0.33122E+05
 0.14082001E+03 -0.75870E+04
 0.14087001E+03  0.14031E+05
 0.14092001E+03  0.34168E+05
 0.14097000E+03  0.55317E+05
 0.14102000E+03  0.77431E+05
 0.14107001E+03  0.10156E+06
 0.14112001E+03  0.12726E+06
 0.14117001E+03  0.14672E+06
 0.14122000E+03  0.15890E+06
 0.14127000E+03  0.17050E+06
 0.14132001E+03  0.18497E+06
 0.14137001E+03  0.20123E+06
 0.14142001E+03  0.21146E+06
 0.14147000E+03  0.21684E+06
 0.14152000E+03  0.22490E+06
 0.14157001E+03  0.23400E+06
 0.14162001E+03  0.24338E+06
 0.14167001E+03  0.25372E+06
 0.14172000E+03  0.26156E+06
 0.14177000E+03  0.26460E+06
 0.14182001E+03  0.26077E+06
 0.14187001E+03  0.24808E+06
 0.14192001E+03  0.23110E+06
 0.14197000E+03  0.21677E+06
 0.14202000E+03  0.20761E+06
 0.14207001E+03  0.20081E+06
 0.14212001E+03  0.19272E+06
 0.14217001E+03  0.18356E+06
 0.14222000E+03  0.17449E+06
 0.14227000E+03  0.16564E+06
 0.14232001E+03  0.15792E+06
 0.14237001E+03  0.15071E+06
 0.14242001E+03  0.13934E+06
 0.14247000E+03  0.12484E+06
 0.14252000E+03  0.11230E+06
 0.14257001E+03  0.10212E+06
 0.14262001E+03  0.90142E+05
 0.14267001E+03  0.74740E+05
 0.14272000E+03  0.60395E+05
 0.14277000E+03  0.43781E+05
 0.14282001E+03  0.22765E+05
 0.14287001E+03  0.46590E+04
 0.14292001E+03 -0.99190E+04
 0.14297000E+03 -0.22063E+05
 0.14302000E+03 -0.31916E+05
 0.14307001E+03 -0.44484E+05
 0.14312001E+03 -0.59390E+05
 0.14317001E+03 -0.72456E+05
 0.14322000E+03 -0.82922E+05
 0.14327000E+03 -0.94671E+05
 0.14332001E+03 -0.11084E+06
 0.14337001E+03 -0.12375E+06
 0.14342001E+03 -0.13166E+06
 0.14347000E+03 -0.14001E+06
 0.14352000E+03 -0.14450E+06
 0.14357001E+03 -0.14482E+06
 0.14362001E+03 -0.14288E+06
 0.14367001E+03 -0.13831E+06
 0.14372000E+03 -0.13325E+06
 0.14377000E+03 -0.12025E+06
 0.14382001E+03 -0.98513E+05
 0.14387001E+03 -0.75852E+05
 0.14392001E+03 -0.54060E+05
 0.14397000E+03 -0.37233E+05
 0.14402000E+03 -0.21091E+05
 0.14407001E+03  0.15550E+04
 0.14412001E+03  0.29214E+05
 0.14417001E+03  0.64637E+05
 0.14422000E+03  0.11031E+06
 0.14427000E+03  0.15991E+06
 0.14432001E+03  0.21120E+06
 0.14437001E+03  0.26793E+06
 0.14442001E+03  0.32349E+06
 0.14447000E+03  0.37201E+06
 0.14452000E+03  0.41909E+06
 0.14457001E+03  0.46299E+06
 0.14462001E+03  0.49764E+06
 0.14467001E+03  0.52256E+06
 0.14472000E+03  0.53588E+06
 0.14477000E+03  0.53772E+06
 0.14482001E+03  0.52996E+06
 0.14487001E+03  0.51590E+06
 0.14492001E+03  0.49830E+06
 0.14497000E+03  0.47602E+06
 0.14502000E+03  0.44988E+06
 0.14507001E+03  0.42239E+06
 0.14512001E+03  0.39785E+06
 0.14517001E+03  0.37663E+06
 0.14522000E+03  0.35649E+06
 0.14527000E+03  0.33768E+06
 0.14532001E+03  0.31580E+06
 0.14537001E+03  0.28840E+06
 0.14542001E+03  0.25692E+06
 0.14547000E+03  0.21844E+06
 0.14552000E+03  0.17478E+06
 0.14557001E+03  0.13223E+06
 0.14562001E+03  0.92058E+05
 0.14567001E+03  0.53438E+05
 0.14572000E+03  0.15416E+05
 0.14577000E+03 -0.21032E+05
 0.14582001E+03 -0.54416E+05
 0.14587001E+03 -0.86991E+05
 0.14592001E+03 -0.11978E+06
 0.14597000E+03 -0.15412E+06
 0.14602000E+03 -0.19034E+06
 0.14607001E+03 -0.22029E+06
 0.14612001E+03 -0.24282E+06
 0.14617001E+03 -0.25968E+06
 0.14622000E+03 -0.26851E+06
 0.14627000E+03 -0.27744E+06
 0.14632001E+03 -0.28916E+06
 0.14637001E+03 -0.30030E+06
 0.14642001E+03 -0.31393E+06
 0.14647000E+03 -0.32976E+06
 0.14652000E+03 -0.34646E+06
 0.14657001E+03 -0.36273E+06
 0.14662001E+03 -0.37889E+06
 0.14667001E+03 -0.39349E+06
 0.14672000E+03 -0.39921E+06
 0.14677000E+03 -0.39753E+06
 0.14682001E+03 -0.39139E+06
 0.14687001E+03 -0.38322E+06
 0.14692001E+03 -0.37744E+06
 0.14697000E+03 -0.37279E+06
 0.14702000E+03 -0.36780E+06
 0.14707001E+03 -0.36469E+06
 0.14712001E+03 -0.36581E+06
 0.14717001E+03 -0.36686E+06
 0.14722000E+03 -0.36596E+06
 0.14727000E+03 -0.36490E+06
 0.14732001E+03 -0.36431E+06
 0.14737001E+03 -0.36676E+06
 0.14742001E+03 -0.37313E+06
 0.14747000E+03 -0.37645E+06
 0.14752000E+03 -0.37214E+06
 0.14757001E+03 -0.36433E+06
 0.14762001E+03 -0.34915E+06
 0.14767001E+03 -0.32529E+06
 0.14772000E+03 -0.29824E+06
 0.14777000E+03 -0.26664E+06
 0.14782001E+03 -0.23344E+06
 0.14787001E+03 -0.20574E+06
 0.14792001E+03 -0.18324E+06
 0.14797000E+03 -0.16086E+06
 0.14802000E+03 -0.13674E+06
 0.14807001E+03 -0.11426E+06
 0.14812001E+03 -0.94943E+05
 0.14817001E+03 -0.75665E+05
 0.14822000E+03 -0.54840E+05
 0.14827000E+03 -0.36603E+05
 0.14832001E+03 -0.22676E+05
 0.14837001E+03 -0.10674E+05
 0.14842001E+03 -0.26080E+04
 0.14847000E+03  0.85310E+04
 0.14852000E+03  0.27371E+05
 0.14857001E+03  0.44282E+05
 0.14862001E+03  0.55852E+05
 0.14867001E+03  0.62173E+05
 0.14872000E+03  0.65332E+05
 0.14877000E+03  0.67846E+05
 0.14882001E+03  0.71009E+05
 0.14887001E+03  0.69723E+05
 0.14892001E+03  0.62591E+05
 0.14897000E+03  0.57314E+05
 0.14902000E+03  0.49721E+05
 0.14907001E+03  0.45585E+05
 0.14912001E+03  0.49445E+05
 0.14917001E+03  0.52566E+05
 0.14922000E+03  0.54644E+05
 0.14927000E+03  0.51394E+05
 0.14932001E+03  0.43741E+05
 0.14937001E+03  0.36485E+05
 0.14942001E+03  0.30113E+05
 0.14947000E+03  0.27622E+05
 0.14952000E+03  0.24535E+05
 0.14957001E+03  0.19405E+05
 0.14962001E+03  0.18232E+05
 0.14967001E+03  0.22337E+05
 0.14972000E+03  0.30780E+05
 0.14977000E+03  0.42813E+05
 0.14982001E+03  0.55177E+05
 0.14987001E+03  0.65629E+05
 0.14992001E+03  0.76259E+05
 0.14997000E+03  0.85048E+05
