-0.29800000E+01 -0.34730E+04
-0.29300001E+01  0.23510E+04
-0.28800001E+01  0.72700E+04
-0.28299999E+01  0.11693E+05
-0.27800000E+01  0.15791E+05
-0.27300000E+01  0.19348E+05
-0.26800001E+01  0.20697E+05
-0.26300001E+01  0.20447E+05
-0.25799999E+01  0.19254E+05
-0.25300000E+01  0.17853E+05
-0.24800000E+01  0.16802E+05
-0.24300001E+01  0.16602E+05
-0.23800001E+01  0.17375E+05
-0.23299999E+01  0.17109E+05
-0.22800000E+01  0.15956E+05
-0.22300000E+01  0.14949E+05
-0.21800001E+01  0.14575E+05
-0.21300001E+01  0.14669E+05
-0.20799999E+01  0.13860E+05
-0.20300000E+01  0.11230E+05
-0.19800000E+01  0.63920E+04
-0.19299999E+01  0.89200E+03
-0.18800000E+01 -0.39290E+04
-0.18300000E+01 -0.80410E+04
-0.17800000E+01 -0.11503E+05
-0.17300000E+01 -0.14822E+05
-0.16799999E+01 -0.17808E+05
-0.16300000E+01 -0.20417E+05
-0.15800000E+01 -0.22657E+05
-0.15300000E+01 -0.24772E+05
-0.14800000E+01 -0.27696E+05
-0.14299999E+01 -0.31328E+05
-0.13800000E+01 -0.34842E+05
-0.13300000E+01 -0.37207E+05
-0.12800000E+01 -0.37617E+05
-0.12300000E+01 -0.37235E+05
-0.11799999E+01 -0.37698E+05
-0.11300000E+01 -0.38662E+05
-0.10800000E+01 -0.40198E+05
-0.10300000E+01 -0.42773E+05
-0.98000002E+00 -0.46038E+05
-0.93000007E+00 -0.49092E+05
-0.87999988E+00 -0.50492E+05
-0.82999992E+00 -0.50333E+05
-0.77999997E+00 -0.49401E+05
-0.73000002E+00 -0.48477E+05
-0.68000007E+00 -0.48153E+05
-0.62999988E+00 -0.48090E+05
-0.57999992E+00 -0.48056E+05
-0.52999997E+00 -0.47740E+05
-0.48000002E+00 -0.47018E+05
-0.43000007E+00 -0.45407E+05
-0.37999988E+00 -0.42407E+05
-0.32999992E+00 -0.39101E+05
-0.27999997E+00 -0.36598E+05
-0.23000002E+00 -0.34626E+05
-0.18000007E+00 -0.32173E+05
-0.12999988E+00 -0.27562E+05
-0.79999924E-01 -0.20334E+05
-0.29999971E-01 -0.12678E+05
 0.19999981E-01 -0.62150E+04
 0.69999933E-01 -0.12970E+04
 0.12000012E+00  0.28570E+04
 0.17000008E+00  0.79890E+04
 0.22000003E+00  0.14378E+05
 0.26999998E+00  0.21525E+05
 0.31999993E+00  0.28330E+05
 0.37000012E+00  0.34374E+05
 0.42000008E+00  0.40156E+05
 0.47000003E+00  0.45186E+05
 0.51999998E+00  0.49688E+05
 0.56999993E+00  0.53999E+05
 0.62000012E+00  0.57758E+05
 0.67000008E+00  0.60901E+05
 0.72000003E+00  0.63294E+05
 0.76999998E+00  0.65267E+05
 0.81999993E+00  0.67921E+05
 0.87000012E+00  0.71987E+05
 0.92000008E+00  0.76813E+05
 0.97000003E+00  0.80998E+05
 0.10200000E+01  0.83352E+05
 0.10700002E+01  0.82823E+05
 0.11199999E+01  0.78900E+05
 0.11700001E+01  0.72089E+05
 0.12200003E+01  0.63793E+05
 0.12700000E+01  0.55121E+05
 0.13200002E+01  0.46605E+05
 0.13699999E+01  0.38458E+05
 0.14200001E+01  0.30518E+05
 0.14700003E+01  0.22889E+05
 0.15200000E+01  0.15315E+05
 0.15700002E+01  0.76600E+04
 0.16199999E+01 -0.76000E+02
 0.16700001E+01 -0.78160E+04
 0.17200003E+01 -0.15054E+05
 0.17700000E+01 -0.21331E+05
 0.18200002E+01 -0.26245E+05
 0.18699999E+01 -0.30280E+05
 0.19200001E+01 -0.33537E+05
 0.19700003E+01 -0.35950E+05
 0.20200000E+01 -0.38008E+05
 0.20700002E+01 -0.39471E+05
 0.21199999E+01 -0.40784E+05
 0.21700001E+01 -0.42364E+05
 0.22200003E+01 -0.43752E+05
 0.22700000E+01 -0.44846E+05
 0.23200002E+01 -0.44937E+05
 0.23699999E+01 -0.44111E+05
 0.24200001E+01 -0.43832E+05
 0.24700003E+01 -0.44426E+05
 0.25200000E+01 -0.44907E+05
 0.25700002E+01 -0.43960E+05
 0.26199999E+01 -0.41161E+05
 0.26700001E+01 -0.36649E+05
 0.27200003E+01 -0.30880E+05
 0.27700000E+01 -0.24463E+05
 0.28200002E+01 -0.17614E+05
 0.28699999E+01 -0.11589E+05
 0.29200001E+01 -0.67950E+04
 0.29700003E+01 -0.23010E+04
 0.30200000E+01  0.22240E+04
 0.30700002E+01  0.64940E+04
 0.31199999E+01  0.94850E+04
 0.31700001E+01  0.10701E+05
 0.32200003E+01  0.10429E+05
 0.32700000E+01  0.97400E+04
 0.33200002E+01  0.91930E+04
 0.33699999E+01  0.82440E+04
 0.34200001E+01  0.66630E+04
 0.34700003E+01  0.43020E+04
 0.35200000E+01  0.12580E+04
 0.35700002E+01 -0.25660E+04
 0.36199999E+01 -0.69580E+04
 0.36700001E+01 -0.11268E+05
 0.37200003E+01 -0.14461E+05
 0.37700000E+01 -0.15821E+05
 0.38200002E+01 -0.15971E+05
 0.38699999E+01 -0.15508E+05
 0.39200001E+01 -0.15590E+05
 0.39700003E+01 -0.16230E+05
 0.40200000E+01 -0.16216E+05
 0.40700002E+01 -0.15044E+05
 0.41199999E+01 -0.12375E+05
 0.41700001E+01 -0.87310E+04
 0.42200003E+01 -0.46000E+04
 0.42700000E+01 -0.26600E+03
 0.43200002E+01  0.32920E+04
 0.43699999E+01  0.49200E+04
 0.44200001E+01  0.49600E+04
 0.44700003E+01  0.46930E+04
 0.45200000E+01  0.49180E+04
 0.45700002E+01  0.61340E+04
 0.46199999E+01  0.84000E+04
 0.46700001E+01  0.11517E+05
 0.47200003E+01  0.14962E+05
 0.47700000E+01  0.18557E+05
 0.48200002E+01  0.21982E+05
 0.48699999E+01  0.25579E+05
 0.49200001E+01  0.29680E+05
 0.49700003E+01  0.33504E+05
 0.50200000E+01  0.36095E+05
 0.50700002E+01  0.36154E+05
 0.51200004E+01  0.34303E+05
 0.51700006E+01  0.31552E+05
 0.52199998E+01  0.28132E+05
 0.52700000E+01  0.23759E+05
 0.53200002E+01  0.18198E+05
 0.53700004E+01  0.12307E+05
 0.54200006E+01  0.60870E+04
 0.54699998E+01  0.51000E+02
 0.55200000E+01 -0.56090E+04
 0.55700002E+01 -0.10725E+05
 0.56200004E+01 -0.14668E+05
 0.56700006E+01 -0.17905E+05
 0.57199998E+01 -0.21041E+05
 0.57700000E+01 -0.24551E+05
 0.58200002E+01 -0.28022E+05
 0.58700004E+01 -0.31265E+05
 0.59200006E+01 -0.33846E+05
 0.59699998E+01 -0.34995E+05
 0.60200000E+01 -0.34917E+05
 0.60700002E+01 -0.34138E+05
 0.61200004E+01 -0.33181E+05
 0.61700006E+01 -0.32627E+05
 0.62199998E+01 -0.33085E+05
 0.62700000E+01 -0.33984E+05
 0.63200002E+01 -0.34639E+05
 0.63700004E+01 -0.34375E+05
 0.64200006E+01 -0.33248E+05
 0.64699998E+01 -0.31780E+05
 0.65200000E+01 -0.29730E+05
 0.65700002E+01 -0.28196E+05
 0.66200004E+01 -0.26901E+05
 0.66700006E+01 -0.25323E+05
 0.67199998E+01 -0.23425E+05
 0.67700000E+01 -0.20608E+05
 0.68200002E+01 -0.17935E+05
 0.68700004E+01 -0.15366E+05
 0.69200006E+01 -0.13296E+05
 0.69699998E+01 -0.12007E+05
 0.70200000E+01 -0.10525E+05
 0.70700002E+01 -0.86190E+04
 0.71200004E+01 -0.59150E+04
 0.71700006E+01 -0.36470E+04
 0.72199998E+01 -0.21710E+04
 0.72700000E+01 -0.10700E+04
 0.73200002E+01 -0.39600E+03
 0.73700004E+01  0.57600E+03
 0.74200006E+01  0.12290E+04
 0.74699998E+01  0.14600E+04
 0.75200000E+01  0.15040E+04
 0.75700002E+01  0.13050E+04
 0.76200004E+01  0.98300E+03
 0.76700006E+01  0.74400E+03
 0.77199998E+01  0.12470E+04
 0.77700000E+01  0.18210E+04
 0.78200002E+01  0.24570E+04
 0.78700004E+01  0.36420E+04
 0.79200006E+01  0.53490E+04
 0.79699998E+01  0.75430E+04
 0.80200005E+01  0.95240E+04
 0.80699997E+01  0.11922E+05
 0.81200008E+01  0.15191E+05
 0.81700001E+01  0.18917E+05
 0.82199993E+01  0.22698E+05
 0.82700005E+01  0.25389E+05
 0.83199997E+01  0.27245E+05
 0.83700008E+01  0.28896E+05
 0.84200001E+01  0.29748E+05
 0.84699993E+01  0.29638E+05
 0.85200005E+01  0.28494E+05
 0.85699997E+01  0.26522E+05
 0.86200008E+01  0.24054E+05
 0.86700001E+01  0.20836E+05
 0.87199993E+01  0.17316E+05
 0.87700005E+01  0.13999E+05
 0.88199997E+01  0.10136E+05
 0.88700008E+01  0.62220E+04
 0.89200001E+01  0.31290E+04
 0.89699993E+01  0.90000E+01
 0.90200005E+01 -0.27720E+04
 0.90699997E+01 -0.60970E+04
 0.91200008E+01 -0.96370E+04
 0.91700001E+01 -0.11266E+05
 0.92199993E+01 -0.11437E+05
 0.92700005E+01 -0.10741E+05
 0.93199997E+01 -0.10778E+05
 0.93700008E+01 -0.11041E+05
 0.94200001E+01 -0.10714E+05
 0.94699993E+01 -0.98710E+04
 0.95200005E+01 -0.85340E+04
 0.95699997E+01 -0.84190E+04
 0.96200008E+01 -0.85610E+04
 0.96700001E+01 -0.91630E+04
 0.97199993E+01 -0.93880E+04
 0.97700005E+01 -0.85050E+04
 0.98199997E+01 -0.89310E+04
 0.98700008E+01 -0.10414E+05
 0.99200001E+01 -0.13793E+05
 0.99699993E+01 -0.18601E+05
 0.10020000E+02 -0.23651E+05
 0.10070000E+02 -0.28836E+05
 0.10120001E+02 -0.33282E+05
 0.10170000E+02 -0.37326E+05
 0.10219999E+02 -0.39985E+05
 0.10270000E+02 -0.41149E+05
 0.10320000E+02 -0.40812E+05
 0.10370001E+02 -0.39510E+05
 0.10420000E+02 -0.38029E+05
 0.10469999E+02 -0.35817E+05
 0.10520000E+02 -0.33399E+05
 0.10570000E+02 -0.28748E+05
 0.10620001E+02 -0.22760E+05
 0.10670000E+02 -0.45680E+04
 0.10719999E+02  0.35322E+05
 0.10770000E+02  0.79071E+05
 0.10820000E+02  0.89590E+05
 0.10870001E+02  0.52136E+05
 0.10920000E+02 -0.19357E+05
 0.10969999E+02 -0.10068E+06
 0.11020000E+02 -0.39905E+05
 0.11070000E+02  0.16424E+06
 0.11120001E+02  0.29053E+06
 0.11170000E+02  0.29178E+06
 0.11219999E+02  0.20812E+06
 0.11270000E+02  0.59321E+05
 0.11320000E+02 -0.51984E+05
 0.11370001E+02  0.47851E+05
 0.11420000E+02  0.22857E+06
 0.11469999E+02  0.37314E+06
 0.11520000E+02  0.49138E+06
 0.11570000E+02  0.41691E+06
 0.11620001E+02  0.30490E+06
 0.11670000E+02  0.20519E+06
 0.11719999E+02  0.21390E+06
 0.11770000E+02  0.52248E+06
 0.11820000E+02  0.65924E+06
 0.11870001E+02  0.68618E+06
 0.11920000E+02  0.80388E+06
 0.11969999E+02  0.37756E+06
 0.12020000E+02 -0.23777E+05
 0.12070000E+02 -0.95871E+05
 0.12120001E+02 -0.24604E+06
 0.12170000E+02  0.26977E+06
 0.12219999E+02  0.45983E+06
 0.12270000E+02  0.45584E+06
 0.12320000E+02  0.87073E+06
 0.12370001E+02  0.35732E+06
 0.12420000E+02  0.31365E+06
 0.12469999E+02  0.33530E+06
 0.12520000E+02 -0.11566E+05
 0.12570000E+02  0.46367E+06
 0.12620001E+02  0.44049E+06
 0.12670000E+02  0.55734E+06
 0.12719999E+02  0.60113E+06
 0.12770000E+02  0.27591E+06
 0.12820000E+02  0.45012E+06
 0.12870001E+02  0.37860E+06
 0.12920000E+02  0.31652E+06
 0.12969999E+02  0.31683E+06
 0.13020000E+02  0.65392E+06
 0.13070002E+02  0.80130E+06
 0.13120001E+02  0.86843E+06
 0.13170000E+02  0.91386E+06
 0.13220001E+02 -0.54595E+05
 0.13270000E+02 -0.15053E+06
 0.13320002E+02 -0.61367E+05
 0.13370001E+02  0.44209E+06
 0.13420000E+02  0.16119E+07
 0.13470001E+02  0.14793E+07
 0.13520000E+02  0.15805E+07
 0.13570002E+02  0.83612E+06
 0.13620001E+02  0.38584E+06
 0.13670000E+02  0.79329E+06
 0.13720001E+02  0.17508E+06
 0.13770000E+02 -0.18275E+05
 0.13820002E+02  0.10068E+06
 0.13870001E+02  0.77078E+06
 0.13920000E+02  0.41624E+06
 0.13970001E+02  0.55625E+05
 0.14020000E+02  0.24846E+06
 0.14070002E+02 -0.54592E+06
 0.14120001E+02  0.66026E+06
 0.14170000E+02  0.19626E+07
 0.14220001E+02  0.15632E+07
 0.14270000E+02  0.11429E+07
 0.14320002E+02  0.38229E+06
 0.14370001E+02  0.54786E+06
 0.14420000E+02  0.12027E+07
 0.14470001E+02  0.79016E+06
 0.14520000E+02  0.78439E+06
 0.14570002E+02  0.58146E+06
 0.14620001E+02  0.55015E+06
 0.14670000E+02  0.15001E+07
 0.14720001E+02  0.56325E+06
 0.14770000E+02  0.15297E+06
 0.14820002E+02  0.94432E+06
 0.14870001E+02  0.21646E+06
 0.14920000E+02  0.85084E+06
 0.14970001E+02  0.20756E+07
 0.15020000E+02  0.15481E+07
 0.15070002E+02  0.10034E+07
 0.15120001E+02  0.48441E+06
 0.15170000E+02  0.57398E+05
 0.15220001E+02 -0.37013E+05
 0.15270000E+02 -0.37608E+06
 0.15320002E+02  0.29077E+06
 0.15370001E+02  0.45014E+06
 0.15420000E+02 -0.35265E+06
 0.15470001E+02  0.13652E+06
 0.15520000E+02  0.52449E+06
 0.15570002E+02  0.81434E+05
 0.15620001E+02  0.41204E+06
 0.15670000E+02  0.11280E+07
 0.15720001E+02  0.15977E+07
 0.15770000E+02  0.19947E+07
 0.15820002E+02  0.10865E+07
 0.15870001E+02  0.19915E+06
 0.15920000E+02 -0.28018E+06
 0.15970001E+02  0.34463E+06
 0.16020000E+02  0.20384E+07
 0.16070002E+02  0.11525E+07
 0.16120001E+02  0.86194E+06
 0.16170000E+02  0.14285E+07
 0.16220001E+02  0.95340E+06
 0.16270000E+02  0.18067E+07
 0.16320002E+02  0.17713E+07
 0.16370001E+02  0.90691E+06
 0.16420000E+02  0.70537E+06
 0.16470001E+02  0.12635E+07
 0.16520000E+02  0.13839E+07
 0.16570002E+02 -0.31616E+06
 0.16620001E+02 -0.39890E+06
 0.16670000E+02  0.54380E+04
 0.16720001E+02 -0.21387E+07
 0.16770000E+02 -0.41137E+07
 0.16820002E+02 -0.47394E+07
 0.16870001E+02 -0.65193E+07
 0.16920000E+02 -0.85822E+07
 0.16970001E+02 -0.48950E+07
 0.17020000E+02  0.35432E+07
 0.17070002E+02  0.43653E+07
 0.17120001E+02 -0.34105E+07
 0.17170000E+02 -0.10651E+08
 0.17220001E+02 -0.18159E+08
 0.17270000E+02 -0.21730E+08
 0.17320002E+02 -0.16463E+08
 0.17370001E+02 -0.99808E+07
 0.17420000E+02 -0.97009E+07
 0.17470001E+02 -0.13746E+08
 0.17520000E+02 -0.12636E+08
 0.17570002E+02 -0.21127E+07
 0.17620001E+02  0.13626E+08
 0.17670000E+02  0.25867E+08
 0.17720001E+02  0.27666E+08
 0.17770000E+02  0.17204E+08
 0.17820002E+02  0.41956E+07
 0.17870001E+02  0.13566E+07
 0.17920000E+02  0.36563E+07
 0.17970001E+02  0.12631E+07
 0.18020000E+02 -0.52621E+07
 0.18070002E+02 -0.10990E+08
 0.18120001E+02 -0.14531E+08
 0.18170000E+02 -0.14783E+08
 0.18220001E+02 -0.14183E+08
 0.18270000E+02 -0.10730E+08
 0.18320002E+02 -0.35461E+07
 0.18370001E+02  0.14573E+07
 0.18420000E+02  0.96875E+07
 0.18470001E+02  0.16561E+08
 0.18520000E+02  0.14432E+08
 0.18570002E+02  0.48051E+07
 0.18620001E+02 -0.11445E+08
 0.18670000E+02 -0.18736E+08
 0.18720001E+02 -0.12246E+08
 0.18770000E+02 -0.71181E+07
 0.18820002E+02 -0.43825E+07
 0.18870001E+02 -0.62397E+07
 0.18920000E+02 -0.15686E+08
 0.18970001E+02 -0.18229E+08
 0.19020000E+02 -0.10455E+08
 0.19070002E+02 -0.12709E+07
 0.19120001E+02  0.31975E+07
 0.19170000E+02  0.20995E+07
 0.19220001E+02  0.18805E+07
 0.19270000E+02  0.46028E+06
 0.19320002E+02 -0.19738E+07
 0.19370001E+02  0.47229E+07
 0.19420000E+02  0.11840E+08
 0.19470001E+02  0.10299E+08
 0.19520000E+02  0.64055E+07
 0.19570002E+02 -0.93788E+06
 0.19620001E+02 -0.10263E+08
 0.19670000E+02 -0.12464E+08
 0.19720001E+02 -0.22956E+07
 0.19770000E+02  0.60677E+07
 0.19820002E+02  0.41379E+07
 0.19870001E+02  0.31477E+07
 0.19920000E+02 -0.10741E+07
 0.19970001E+02 -0.69300E+07
 0.20020000E+02 -0.10664E+08
 0.20070002E+02 -0.10585E+08
 0.20120001E+02 -0.42980E+07
 0.20170000E+02 -0.25601E+07
 0.20220001E+02 -0.32046E+07
 0.20270000E+02 -0.57604E+07
 0.20320002E+02 -0.75387E+07
 0.20370001E+02 -0.35829E+07
 0.20420000E+02  0.21073E+07
 0.20470001E+02  0.68102E+07
 0.20520000E+02  0.64878E+07
 0.20570002E+02  0.52769E+07
 0.20620001E+02  0.41861E+07
 0.20670000E+02  0.52404E+07
 0.20720001E+02  0.68789E+07
 0.20770000E+02  0.64005E+07
 0.20820002E+02  0.53326E+07
 0.20870001E+02  0.88650E+06
 0.20920000E+02 -0.18825E+05
 0.20970001E+02  0.25950E+07
 0.21020000E+02  0.47978E+07
 0.21070002E+02  0.62164E+07
 0.21120001E+02  0.13193E+07
 0.21170000E+02 -0.52824E+07
 0.21220001E+02 -0.74765E+07
 0.21270000E+02 -0.78179E+07
 0.21320002E+02 -0.39577E+07
 0.21370001E+02  0.49496E+06
 0.21420000E+02  0.95184E+05
 0.21470001E+02 -0.11168E+07
 0.21520000E+02 -0.31832E+07
 0.21570002E+02 -0.34480E+07
 0.21620001E+02 -0.11415E+07
 0.21670000E+02  0.11293E+07
 0.21720001E+02  0.34568E+07
 0.21770000E+02  0.38373E+07
 0.21820002E+02  0.33367E+07
 0.21870001E+02  0.24578E+07
 0.21920000E+02  0.90621E+06
 0.21970001E+02  0.40014E+06
 0.22020000E+02  0.18448E+07
 0.22070002E+02  0.41510E+07
 0.22120001E+02  0.59341E+07
 0.22170000E+02  0.75491E+07
 0.22220001E+02  0.79268E+07
 0.22270000E+02  0.72628E+07
 0.22320002E+02  0.85902E+07
 0.22370001E+02  0.94725E+07
 0.22420000E+02  0.71580E+07
 0.22470001E+02  0.35639E+07
 0.22520000E+02  0.69627E+06
 0.22570002E+02  0.61519E+06
 0.22620001E+02  0.19424E+07
 0.22670000E+02  0.32100E+07
 0.22720001E+02  0.31316E+07
 0.22770000E+02  0.26052E+07
 0.22820002E+02  0.42692E+07
 0.22870001E+02  0.45346E+07
 0.22920000E+02  0.41999E+07
 0.22970001E+02  0.46590E+07
 0.23020000E+02  0.42064E+07
 0.23070002E+02  0.53021E+07
 0.23120001E+02  0.52426E+07
 0.23170000E+02  0.23697E+07
 0.23220001E+02 -0.79122E+06
 0.23270000E+02 -0.32960E+07
 0.23320002E+02 -0.19209E+07
 0.23370001E+02  0.13762E+06
 0.23420000E+02  0.41031E+06
 0.23470001E+02  0.23014E+07
 0.23520000E+02  0.33878E+07
 0.23570002E+02  0.45838E+07
 0.23620001E+02  0.56188E+07
 0.23670000E+02  0.46359E+07
 0.23720001E+02  0.46472E+07
 0.23770000E+02  0.44195E+07
 0.23820002E+02  0.43053E+07
 0.23870001E+02  0.36829E+07
 0.23920000E+02  0.12866E+07
 0.23970001E+02 -0.68725E+06
 0.24020000E+02 -0.16163E+07
 0.24070002E+02 -0.20169E+07
 0.24120001E+02 -0.24244E+07
 0.24170000E+02 -0.21216E+07
 0.24220001E+02 -0.95916E+06
 0.24270000E+02  0.20793E+07
 0.24320002E+02  0.38589E+07
 0.24370001E+02  0.21336E+07
 0.24420000E+02 -0.96575E+06
 0.24470001E+02 -0.44549E+07
 0.24520000E+02 -0.50096E+07
 0.24570002E+02 -0.48941E+07
 0.24620001E+02 -0.61923E+07
 0.24670000E+02 -0.73898E+07
 0.24720001E+02 -0.85276E+07
 0.24770000E+02 -0.71932E+07
 0.24820002E+02 -0.48993E+07
 0.24870001E+02 -0.38032E+07
 0.24920000E+02 -0.31424E+07
 0.24970001E+02 -0.32702E+07
 0.25020000E+02 -0.34254E+07
 0.25070002E+02 -0.28719E+07
 0.25120001E+02 -0.17996E+07
 0.25170000E+02 -0.12305E+07
 0.25220001E+02 -0.48885E+06
 0.25270000E+02  0.72528E+06
 0.25320002E+02  0.78858E+06
 0.25370001E+02  0.17887E+07
 0.25420000E+02  0.29425E+07
 0.25470001E+02  0.18875E+07
 0.25520000E+02  0.18310E+07
 0.25570002E+02  0.25621E+07
 0.25620001E+02  0.25953E+07
 0.25670000E+02  0.32903E+07
 0.25720001E+02  0.32303E+07
 0.25770000E+02  0.22930E+07
 0.25820002E+02  0.10105E+07
 0.25870001E+02 -0.33839E+06
 0.25920000E+02 -0.13899E+07
 0.25970001E+02 -0.31408E+07
 0.26020000E+02 -0.42362E+07
 0.26070002E+02 -0.41061E+07
 0.26120001E+02 -0.32959E+07
 0.26170000E+02 -0.20593E+07
 0.26220001E+02 -0.82002E+06
 0.26270000E+02 -0.21047E+06
 0.26320002E+02 -0.44474E+06
 0.26370001E+02 -0.26748E+06
 0.26420000E+02 -0.67088E+06
 0.26470001E+02 -0.13506E+07
 0.26520000E+02 -0.58082E+06
 0.26570002E+02 -0.13435E+06
 0.26620001E+02 -0.47532E+05
 0.26670000E+02  0.91190E+04
 0.26720001E+02 -0.44985E+06
 0.26770000E+02 -0.42228E+06
 0.26820002E+02 -0.40562E+06
 0.26870001E+02  0.43299E+06
 0.26920000E+02  0.17242E+07
 0.26970001E+02  0.22088E+07
 0.27020000E+02  0.23700E+07
 0.27070002E+02  0.12853E+07
 0.27120001E+02  0.70958E+06
 0.27170000E+02  0.95722E+06
 0.27220001E+02  0.10045E+07
 0.27270000E+02  0.20677E+07
 0.27320002E+02  0.24290E+07
 0.27370001E+02  0.22840E+07
 0.27420000E+02  0.23335E+07
 0.27470001E+02  0.20309E+07
 0.27520000E+02  0.21925E+07
 0.27570002E+02  0.24037E+07
 0.27620001E+02  0.33423E+07
 0.27670000E+02  0.46571E+07
 0.27720001E+02  0.52338E+07
 0.27770000E+02  0.52063E+07
 0.27820002E+02  0.44178E+07
 0.27870001E+02  0.40936E+07
 0.27920000E+02  0.44263E+07
 0.27970001E+02  0.37414E+07
 0.28020000E+02  0.18719E+07
 0.28070002E+02 -0.67390E+06
 0.28120001E+02 -0.27025E+07
 0.28170000E+02 -0.27138E+07
 0.28220001E+02 -0.24601E+07
 0.28270000E+02 -0.31825E+07
 0.28320002E+02 -0.33151E+07
 0.28370001E+02 -0.34948E+07
 0.28420000E+02 -0.35938E+07
 0.28470001E+02 -0.20835E+07
 0.28520000E+02 -0.26561E+06
 0.28570002E+02  0.11032E+07
 0.28620001E+02  0.21645E+07
 0.28670000E+02  0.23742E+07
 0.28720001E+02  0.15315E+07
 0.28770000E+02  0.46347E+06
 0.28820002E+02 -0.47917E+06
 0.28870001E+02 -0.11933E+07
 0.28920000E+02 -0.15008E+07
 0.28970001E+02 -0.24412E+07
 0.29020000E+02 -0.34592E+07
 0.29070000E+02 -0.37841E+07
 0.29120003E+02 -0.31632E+07
 0.29170002E+02 -0.17975E+07
 0.29220001E+02 -0.68441E+06
 0.29270000E+02 -0.34614E+06
 0.29320000E+02 -0.12809E+07
 0.29370003E+02 -0.21187E+07
 0.29420002E+02 -0.22581E+07
 0.29470001E+02 -0.21584E+07
 0.29520000E+02 -0.17134E+07
 0.29570000E+02 -0.20108E+07
 0.29620003E+02 -0.24838E+07
 0.29670002E+02 -0.22638E+07
 0.29720001E+02 -0.15846E+07
 0.29770000E+02 -0.29809E+06
 0.29820000E+02  0.82578E+06
 0.29870003E+02  0.11634E+07
 0.29920002E+02  0.11904E+07
 0.29970001E+02  0.15918E+07
 0.30020000E+02  0.16514E+07
 0.30070000E+02  0.11137E+07
 0.30120003E+02  0.14860E+07
 0.30170002E+02  0.22427E+07
 0.30220001E+02  0.21281E+07
 0.30270000E+02  0.15184E+07
 0.30320000E+02  0.48387E+06
 0.30370003E+02 -0.10065E+07
 0.30420002E+02 -0.20546E+07
 0.30470001E+02 -0.21114E+07
 0.30520000E+02 -0.17639E+07
 0.30570000E+02 -0.12786E+07
 0.30620003E+02 -0.38431E+06
 0.30670002E+02  0.72190E+06
 0.30720001E+02  0.17814E+07
 0.30770000E+02  0.26707E+07
 0.30820000E+02  0.30582E+07
 0.30870003E+02  0.27313E+07
 0.30920002E+02  0.23460E+07
 0.30970001E+02  0.22772E+07
 0.31020000E+02  0.20658E+07
 0.31070000E+02  0.14865E+07
 0.31120003E+02  0.29159E+06
 0.31170002E+02 -0.73424E+06
 0.31220001E+02 -0.12452E+07
 0.31270000E+02 -0.18881E+07
 0.31320000E+02 -0.24426E+07
 0.31370003E+02 -0.27526E+07
 0.31420002E+02 -0.25227E+07
 0.31470001E+02 -0.17956E+07
 0.31520000E+02 -0.99632E+06
 0.31570000E+02 -0.72648E+06
 0.31620003E+02 -0.10871E+07
 0.31670002E+02 -0.12847E+07
 0.31720001E+02 -0.87452E+06
 0.31770000E+02 -0.57990E+05
 0.31820000E+02  0.94694E+06
 0.31870003E+02  0.18481E+07
 0.31920002E+02  0.17148E+07
 0.31970001E+02  0.13875E+07
 0.32020000E+02  0.12334E+07
 0.32070000E+02  0.11286E+07
 0.32120003E+02  0.13327E+07
 0.32170002E+02  0.82265E+06
 0.32220001E+02  0.76239E+06
 0.32270000E+02  0.97919E+06
 0.32320000E+02  0.65682E+06
 0.32370003E+02  0.61056E+06
 0.32420002E+02  0.19450E+06
 0.32470001E+02 -0.11223E+06
 0.32520000E+02 -0.10037E+06
 0.32570000E+02 -0.10744E+06
 0.32620003E+02  0.12892E+06
 0.32670002E+02  0.11947E+06
 0.32720001E+02  0.34900E+03
 0.32770000E+02 -0.17852E+05
 0.32820000E+02 -0.21437E+06
 0.32870003E+02 -0.35158E+06
 0.32920002E+02 -0.53873E+06
 0.32970001E+02 -0.13712E+07
 0.33020000E+02 -0.17065E+07
 0.33070000E+02 -0.16602E+07
 0.33120003E+02 -0.23489E+07
 0.33170002E+02 -0.26396E+07
 0.33220001E+02 -0.26658E+07
 0.33270000E+02 -0.24831E+07
 0.33320000E+02 -0.21537E+07
 0.33370003E+02 -0.21005E+07
 0.33420002E+02 -0.15319E+07
 0.33470001E+02 -0.87560E+06
 0.33520000E+02 -0.30925E+06
 0.33570000E+02  0.27772E+06
 0.33620003E+02  0.59712E+06
 0.33670002E+02  0.63202E+06
 0.33720001E+02  0.66737E+06
 0.33770000E+02  0.54443E+06
 0.33820000E+02 -0.20144E+06
 0.33870003E+02 -0.33306E+06
 0.33920002E+02  0.49864E+05
 0.33970001E+02  0.46208E+05
 0.34020000E+02  0.48430E+05
 0.34070000E+02  0.59620E+04
 0.34120003E+02  0.22088E+06
 0.34170002E+02  0.34060E+06
 0.34220001E+02  0.24393E+06
 0.34270000E+02  0.48529E+06
 0.34320000E+02  0.78833E+06
 0.34370003E+02  0.15387E+07
 0.34420002E+02  0.25861E+07
 0.34470001E+02  0.29303E+07
 0.34520000E+02  0.26362E+07
 0.34570000E+02  0.20023E+07
 0.34620003E+02  0.12100E+07
 0.34670002E+02  0.46113E+06
 0.34720001E+02 -0.26971E+06
 0.34770000E+02 -0.94162E+06
 0.34820000E+02 -0.17862E+07
 0.34870003E+02 -0.23696E+07
 0.34920002E+02 -0.21307E+07
 0.34970001E+02 -0.12642E+07
 0.35020000E+02 -0.20283E+06
 0.35070000E+02  0.46010E+06
 0.35120003E+02  0.78712E+06
 0.35170002E+02  0.74850E+06
 0.35220001E+02  0.85450E+06
 0.35270000E+02  0.14141E+07
 0.35320000E+02  0.17961E+07
 0.35370003E+02  0.18428E+07
 0.35420002E+02  0.14223E+07
 0.35470001E+02  0.11378E+07
 0.35520000E+02  0.96451E+06
 0.35570000E+02  0.58672E+06
 0.35620003E+02  0.36724E+06
 0.35670002E+02 -0.70050E+04
 0.35720001E+02 -0.48273E+05
 0.35770000E+02  0.48509E+06
 0.35820000E+02  0.53891E+06
 0.35870003E+02  0.12587E+05
 0.35920002E+02 -0.44858E+06
 0.35970001E+02 -0.80830E+06
 0.36020000E+02 -0.90817E+06
 0.36070000E+02 -0.61434E+06
 0.36120003E+02 -0.74561E+06
 0.36170002E+02 -0.12382E+07
 0.36220001E+02 -0.10890E+07
 0.36270000E+02 -0.12155E+07
 0.36320000E+02 -0.20062E+07
 0.36370003E+02 -0.24290E+07
 0.36420002E+02 -0.26158E+07
 0.36470001E+02 -0.19366E+07
 0.36520000E+02 -0.65266E+06
 0.36570000E+02  0.27239E+05
 0.36620003E+02  0.37474E+06
 0.36670002E+02  0.40570E+06
 0.36720001E+02  0.54618E+06
 0.36770000E+02  0.11358E+07
 0.36820000E+02  0.13826E+07
 0.36870003E+02  0.12149E+07
 0.36920002E+02  0.12034E+07
 0.36970001E+02  0.15404E+07
 0.37020000E+02  0.22735E+07
 0.37070000E+02  0.28353E+07
 0.37120003E+02  0.27746E+07
 0.37170002E+02  0.23639E+07
 0.37220001E+02  0.17263E+07
 0.37270000E+02  0.11846E+07
 0.37320000E+02  0.58873E+06
 0.37370003E+02 -0.19147E+06
 0.37420002E+02 -0.88810E+06
 0.37470001E+02 -0.16292E+07
 0.37520000E+02 -0.18310E+07
 0.37570000E+02 -0.14702E+07
 0.37620003E+02 -0.10456E+07
 0.37670002E+02 -0.63073E+06
 0.37720001E+02 -0.54873E+06
 0.37770000E+02 -0.16308E+06
 0.37820000E+02  0.67817E+06
 0.37870003E+02  0.12292E+07
 0.37920002E+02  0.12940E+07
 0.37970001E+02  0.69608E+06
 0.38020000E+02 -0.11054E+06
 0.38070000E+02 -0.70393E+06
 0.38120003E+02 -0.12991E+07
 0.38170002E+02 -0.18378E+07
 0.38220001E+02 -0.20948E+07
 0.38270000E+02 -0.19582E+07
 0.38320000E+02 -0.18241E+07
 0.38370003E+02 -0.17979E+07
 0.38420002E+02 -0.16251E+07
 0.38470001E+02 -0.11956E+07
 0.38520000E+02  0.30338E+05
 0.38570000E+02  0.15851E+07
 0.38620003E+02  0.25603E+07
 0.38670002E+02  0.29851E+07
 0.38720001E+02  0.28212E+07
 0.38770000E+02  0.24756E+07
 0.38820000E+02  0.20016E+07
 0.38870003E+02  0.11298E+07
 0.38920002E+02  0.18100E+06
 0.38970001E+02 -0.10030E+07
 0.39020000E+02 -0.17577E+07
 0.39070000E+02 -0.17488E+07
 0.39120003E+02 -0.14828E+07
 0.39170002E+02 -0.10473E+07
 0.39220001E+02 -0.11817E+07
 0.39270000E+02 -0.14702E+07
 0.39320000E+02 -0.13220E+07
 0.39370003E+02 -0.94562E+06
 0.39420002E+02 -0.17220E+06
 0.39470001E+02  0.43504E+06
 0.39520000E+02  0.42641E+06
 0.39570000E+02 -0.21276E+05
 0.39620003E+02 -0.46719E+06
 0.39670002E+02 -0.66995E+06
 0.39720001E+02 -0.56787E+06
 0.39770000E+02 -0.36401E+06
 0.39820000E+02 -0.39501E+06
 0.39870003E+02 -0.20425E+06
 0.39920002E+02 -0.17872E+06
 0.39970001E+02 -0.40779E+06
 0.40020000E+02 -0.44957E+06
 0.40070000E+02 -0.73529E+06
 0.40120003E+02 -0.78412E+06
 0.40170002E+02 -0.50948E+06
 0.40220001E+02 -0.30871E+06
 0.40270000E+02 -0.21364E+06
 0.40320000E+02 -0.34667E+06
 0.40370003E+02 -0.41968E+06
 0.40420002E+02 -0.36721E+06
 0.40470001E+02 -0.20642E+06
 0.40520000E+02 -0.13181E+06
 0.40570000E+02 -0.49534E+05
 0.40620003E+02  0.19868E+06
 0.40670002E+02  0.40243E+06
 0.40720001E+02  0.66680E+06
 0.40770000E+02  0.85476E+06
 0.40820000E+02  0.81282E+06
 0.40870003E+02  0.60979E+06
 0.40920002E+02  0.68097E+06
 0.40970001E+02  0.80465E+06
 0.41020000E+02  0.40372E+06
 0.41070000E+02  0.69442E+05
 0.41120003E+02 -0.72777E+05
 0.41170002E+02 -0.35540E+06
 0.41220001E+02 -0.36763E+06
 0.41270000E+02 -0.46815E+06
 0.41320000E+02 -0.10506E+07
 0.41370003E+02 -0.13741E+07
 0.41420002E+02 -0.11555E+07
 0.41470001E+02 -0.94738E+06
 0.41520000E+02 -0.10982E+07
 0.41570000E+02 -0.12899E+07
 0.41620003E+02 -0.14456E+07
 0.41670002E+02 -0.12782E+07
 0.41720001E+02 -0.83152E+06
 0.41770000E+02 -0.55751E+06
 0.41820000E+02 -0.34316E+06
 0.41870003E+02 -0.41019E+06
 0.41920002E+02 -0.64702E+06
 0.41970001E+02 -0.63669E+06
 0.42020000E+02 -0.63416E+06
 0.42070000E+02 -0.79507E+06
 0.42120003E+02 -0.74519E+06
 0.42170002E+02 -0.58402E+06
 0.42220001E+02 -0.48552E+06
 0.42270000E+02 -0.29857E+06
 0.42320000E+02 -0.51756E+06
 0.42370003E+02 -0.11193E+07
 0.42420002E+02 -0.12152E+07
 0.42470001E+02 -0.87600E+06
 0.42520000E+02 -0.29376E+06
 0.42570000E+02  0.26172E+06
 0.42620003E+02  0.48205E+06
 0.42670002E+02  0.65559E+06
 0.42720001E+02  0.97313E+06
 0.42770000E+02  0.18189E+07
 0.42820000E+02  0.25484E+07
 0.42870003E+02  0.27236E+07
 0.42920002E+02  0.25566E+07
 0.42970001E+02  0.18870E+07
 0.43020000E+02  0.12138E+07
 0.43070000E+02  0.61658E+06
 0.43120003E+02  0.61550E+05
 0.43170002E+02 -0.30575E+06
 0.43220001E+02 -0.56342E+06
 0.43270000E+02 -0.72719E+06
 0.43320000E+02 -0.88261E+06
 0.43370003E+02 -0.84569E+06
 0.43420002E+02 -0.61816E+06
 0.43470001E+02 -0.28126E+06
 0.43520000E+02  0.92586E+05
 0.43570000E+02  0.14027E+06
 0.43620003E+02 -0.22689E+05
 0.43670002E+02 -0.15796E+06
 0.43720001E+02 -0.25781E+06
 0.43770000E+02 -0.18738E+06
 0.43820000E+02 -0.48200E+03
 0.43870003E+02  0.31863E+06
 0.43920002E+02  0.65947E+06
 0.43970001E+02  0.78255E+06
 0.44020000E+02  0.81176E+06
 0.44070000E+02  0.74396E+06
 0.44120003E+02  0.85199E+06
 0.44170002E+02  0.13177E+07
 0.44220001E+02  0.17016E+07
 0.44270000E+02  0.15754E+07
 0.44320000E+02  0.86460E+06
 0.44370003E+02  0.16002E+06
 0.44420002E+02 -0.26684E+06
 0.44470001E+02 -0.40598E+06
 0.44520000E+02 -0.28299E+06
 0.44570000E+02 -0.31055E+06
 0.44620003E+02 -0.44228E+06
 0.44670002E+02 -0.46975E+06
 0.44720001E+02 -0.32264E+06
 0.44770000E+02 -0.15287E+06
 0.44820000E+02 -0.24081E+06
 0.44870003E+02 -0.29881E+06
 0.44920002E+02 -0.19815E+06
 0.44970001E+02 -0.10205E+06
 0.45020000E+02  0.33162E+06
 0.45070000E+02  0.69951E+06
 0.45120003E+02  0.49962E+06
 0.45170002E+02  0.36815E+06
 0.45220001E+02  0.54857E+06
 0.45270000E+02  0.66268E+06
 0.45320000E+02  0.56646E+06
 0.45370003E+02  0.43104E+06
 0.45420002E+02  0.21939E+06
 0.45470001E+02  0.18844E+06
 0.45520000E+02  0.42630E+06
 0.45570000E+02  0.56472E+06
 0.45620003E+02  0.68177E+06
 0.45670002E+02  0.76396E+06
 0.45720001E+02  0.86297E+06
 0.45770000E+02  0.84214E+06
 0.45820000E+02  0.71084E+06
 0.45870003E+02  0.63306E+06
 0.45920002E+02  0.48813E+06
 0.45970001E+02  0.47675E+06
 0.46020000E+02  0.52401E+06
 0.46070000E+02  0.58604E+06
 0.46120003E+02  0.60748E+06
 0.46170002E+02  0.52761E+06
 0.46220001E+02  0.54660E+06
 0.46270000E+02  0.60050E+06
 0.46320000E+02  0.45346E+06
 0.46370003E+02  0.36671E+05
 0.46420002E+02 -0.50495E+06
 0.46470001E+02 -0.10031E+07
 0.46520000E+02 -0.10117E+07
 0.46570000E+02 -0.65119E+06
 0.46620003E+02 -0.33298E+06
 0.46670002E+02 -0.18500E+06
 0.46720001E+02 -0.35339E+06
 0.46770000E+02 -0.54566E+06
 0.46820000E+02 -0.46532E+06
 0.46870003E+02 -0.13354E+06
 0.46920002E+02  0.10795E+06
 0.46970001E+02  0.28428E+05
 0.47020000E+02 -0.23066E+06
 0.47070000E+02 -0.29967E+06
 0.47120003E+02 -0.18709E+06
 0.47170002E+02 -0.24723E+06
 0.47220001E+02 -0.14064E+06
 0.47270000E+02  0.27121E+06
 0.47320000E+02  0.64323E+06
 0.47370003E+02  0.68255E+06
 0.47420002E+02  0.21692E+06
 0.47470001E+02 -0.49845E+06
 0.47520000E+02 -0.89766E+06
 0.47570000E+02 -0.66260E+06
 0.47620003E+02 -0.34919E+06
 0.47670002E+02 -0.31532E+06
 0.47720001E+02 -0.41636E+06
 0.47770000E+02 -0.49490E+06
 0.47820000E+02 -0.39278E+06
 0.47870003E+02 -0.20830E+06
 0.47920002E+02 -0.81399E+05
 0.47970001E+02 -0.79588E+05
 0.48020000E+02  0.61579E+05
 0.48070000E+02  0.25516E+06
 0.48120003E+02  0.31064E+06
 0.48170002E+02  0.37149E+06
 0.48220001E+02  0.34522E+06
 0.48270000E+02  0.34805E+06
 0.48320000E+02  0.60740E+06
 0.48370003E+02  0.84699E+06
 0.48420002E+02  0.87047E+06
 0.48470001E+02  0.79020E+06
 0.48520000E+02  0.34358E+06
 0.48570000E+02 -0.22174E+06
 0.48620003E+02 -0.69795E+06
 0.48670002E+02 -0.12692E+07
 0.48720001E+02 -0.16233E+07
 0.48770000E+02 -0.17266E+07
 0.48820000E+02 -0.16458E+07
 0.48870003E+02 -0.14582E+07
 0.48920002E+02 -0.13169E+07
 0.48970001E+02 -0.12580E+07
 0.49020000E+02 -0.10967E+07
 0.49070000E+02 -0.66736E+06
 0.49120003E+02 -0.26789E+06
 0.49170002E+02 -0.13599E+06
 0.49220001E+02 -0.41650E+06
 0.49270000E+02 -0.10137E+07
 0.49320000E+02 -0.15081E+07
 0.49370003E+02 -0.14678E+07
 0.49420002E+02 -0.96110E+06
 0.49470001E+02 -0.53882E+06
 0.49520000E+02 -0.40172E+06
 0.49570000E+02 -0.47244E+06
 0.49620003E+02 -0.49162E+06
 0.49670002E+02 -0.33308E+06
 0.49720001E+02 -0.86114E+05
 0.49770000E+02  0.15641E+06
 0.49820000E+02  0.27651E+06
 0.49870003E+02  0.28222E+06
 0.49920002E+02  0.18485E+06
 0.49970001E+02  0.11344E+06
 0.50020000E+02  0.68529E+05
 0.50070000E+02  0.51421E+05
 0.50120003E+02  0.44792E+05
 0.50170002E+02 -0.89791E+05
 0.50220001E+02 -0.18335E+06
 0.50270000E+02 -0.25285E+06
 0.50320000E+02 -0.25784E+06
 0.50370003E+02 -0.19051E+06
 0.50420002E+02 -0.16757E+06
 0.50470001E+02 -0.13346E+05
 0.50520000E+02  0.24775E+06
 0.50570000E+02  0.51462E+06
 0.50620003E+02  0.59565E+06
 0.50670002E+02  0.47160E+06
 0.50720001E+02  0.37095E+06
 0.50770000E+02  0.31629E+06
 0.50820000E+02  0.22476E+06
 0.50870003E+02 -0.11066E+05
 0.50920002E+02 -0.31644E+06
 0.50970001E+02 -0.47834E+06
 0.51020000E+02 -0.47754E+06
 0.51070000E+02 -0.43624E+06
 0.51120003E+02 -0.33325E+06
 0.51170002E+02 -0.25424E+06
 0.51220001E+02 -0.18358E+06
 0.51270000E+02 -0.12013E+06
 0.51320000E+02 -0.31346E+06
 0.51370003E+02 -0.75561E+06
 0.51420002E+02 -0.12345E+07
 0.51470001E+02 -0.15420E+07
 0.51520000E+02 -0.16246E+07
 0.51570000E+02 -0.14246E+07
 0.51620003E+02 -0.10845E+07
 0.51670002E+02 -0.80092E+06
 0.51720001E+02 -0.53210E+06
 0.51770000E+02 -0.27884E+06
 0.51820000E+02 -0.14587E+06
 0.51870003E+02 -0.99754E+05
 0.51920002E+02  0.53952E+05
 0.51970001E+02  0.36238E+06
 0.52020000E+02  0.67425E+06
 0.52070000E+02  0.68746E+06
 0.52120003E+02  0.48469E+06
 0.52170002E+02  0.22286E+06
 0.52220001E+02  0.39977E+05
 0.52270000E+02  0.16820E+06
 0.52320000E+02  0.49810E+06
 0.52370003E+02  0.93126E+06
 0.52420002E+02  0.13318E+07
 0.52470001E+02  0.15741E+07
 0.52520000E+02  0.16695E+07
 0.52570000E+02  0.16272E+07
 0.52620003E+02  0.14472E+07
 0.52670002E+02  0.13448E+07
 0.52720001E+02  0.14977E+07
 0.52770000E+02  0.16501E+07
 0.52820000E+02  0.16594E+07
 0.52870003E+02  0.14247E+07
 0.52920002E+02  0.97745E+06
 0.52970001E+02  0.60383E+06
 0.53020000E+02  0.29709E+06
 0.53070000E+02  0.31714E+05
 0.53120003E+02 -0.21122E+06
 0.53170002E+02 -0.51735E+06
 0.53220001E+02 -0.82852E+06
 0.53270000E+02 -0.97037E+06
 0.53320000E+02 -0.86015E+06
 0.53370003E+02 -0.79600E+06
 0.53420002E+02 -0.91179E+06
 0.53470001E+02 -0.10478E+07
 0.53520000E+02 -0.10460E+07
 0.53570000E+02 -0.81546E+06
 0.53620003E+02 -0.51951E+06
 0.53670002E+02 -0.32154E+06
 0.53720001E+02 -0.22090E+06
 0.53770000E+02 -0.14191E+06
 0.53820000E+02 -0.12312E+06
 0.53870003E+02 -0.19560E+06
 0.53920002E+02 -0.31934E+06
 0.53970001E+02 -0.35445E+06
 0.54020000E+02 -0.16390E+06
 0.54070000E+02  0.14928E+05
 0.54120003E+02  0.96317E+05
 0.54170002E+02  0.15614E+06
 0.54220001E+02  0.16059E+06
 0.54270000E+02  0.18702E+06
 0.54320000E+02  0.26219E+06
 0.54370003E+02  0.41683E+06
 0.54420002E+02  0.61654E+06
 0.54470001E+02  0.77356E+06
 0.54520000E+02  0.82974E+06
 0.54570000E+02  0.84277E+06
 0.54620003E+02  0.94376E+06
 0.54670002E+02  0.94917E+06
 0.54720001E+02  0.75303E+06
 0.54770000E+02  0.45157E+06
 0.54820000E+02  0.31176E+06
 0.54870003E+02  0.46613E+06
 0.54920002E+02  0.54071E+06
 0.54970001E+02  0.32763E+06
 0.55020000E+02 -0.11331E+06
 0.55070000E+02 -0.55254E+06
 0.55120003E+02 -0.72231E+06
 0.55170002E+02 -0.60961E+06
 0.55220001E+02 -0.41730E+06
 0.55270000E+02 -0.39111E+06
 0.55320000E+02 -0.55095E+06
 0.55370003E+02 -0.71842E+06
 0.55420002E+02 -0.75882E+06
 0.55470001E+02 -0.72543E+06
 0.55520000E+02 -0.74430E+06
 0.55570000E+02 -0.74573E+06
 0.55620003E+02 -0.47003E+06
 0.55670002E+02  0.28781E+05
 0.55720001E+02  0.35236E+06
 0.55770000E+02  0.38235E+06
 0.55820000E+02  0.35509E+06
 0.55870003E+02  0.44735E+06
 0.55920002E+02  0.71568E+06
 0.55970001E+02  0.99474E+06
 0.56020000E+02  0.10323E+07
 0.56070000E+02  0.86908E+06
 0.56120003E+02  0.65569E+06
 0.56170002E+02  0.53149E+06
 0.56220001E+02  0.53284E+06
 0.56270000E+02  0.51472E+06
 0.56320000E+02  0.31417E+06
 0.56370003E+02 -0.17310E+04
 0.56420002E+02 -0.24490E+06
 0.56470001E+02 -0.40532E+06
 0.56520000E+02 -0.52456E+06
 0.56570000E+02 -0.61398E+06
 0.56620003E+02 -0.60550E+06
 0.56670002E+02 -0.41042E+06
 0.56720001E+02 -0.19944E+06
 0.56770000E+02 -0.11799E+06
 0.56820000E+02 -0.12207E+06
 0.56870003E+02 -0.17332E+06
 0.56920002E+02 -0.18564E+06
 0.56970001E+02 -0.24450E+06
 0.57020000E+02 -0.36350E+06
 0.57070000E+02 -0.44638E+06
 0.57120003E+02 -0.56703E+06
 0.57170002E+02 -0.70238E+06
 0.57220001E+02 -0.84336E+06
 0.57270000E+02 -0.85948E+06
 0.57320000E+02 -0.66325E+06
 0.57370003E+02 -0.43861E+06
 0.57420002E+02 -0.21952E+06
 0.57470001E+02 -0.69245E+05
 0.57520000E+02 -0.32650E+05
 0.57570000E+02  0.24317E+05
 0.57620003E+02  0.17844E+06
 0.57670002E+02  0.35802E+06
 0.57720001E+02  0.40378E+06
 0.57770000E+02  0.30817E+06
 0.57820000E+02  0.13475E+06
 0.57870003E+02 -0.74913E+05
 0.57920002E+02 -0.25541E+06
 0.57970001E+02 -0.37241E+06
 0.58020000E+02 -0.38356E+06
 0.58070000E+02 -0.32809E+06
 0.58120003E+02 -0.26959E+06
 0.58170002E+02 -0.14079E+06
 0.58220001E+02  0.36574E+05
 0.58270000E+02  0.14602E+06
 0.58320000E+02  0.12518E+06
 0.58370003E+02 -0.43692E+05
 0.58420002E+02 -0.26272E+06
 0.58470001E+02 -0.38741E+06
 0.58520000E+02 -0.36536E+06
 0.58570000E+02 -0.25806E+06
 0.58620003E+02 -0.17156E+06
 0.58670002E+02 -0.15932E+06
 0.58720001E+02 -0.15582E+06
 0.58770000E+02 -0.76226E+05
 0.58820000E+02  0.27999E+05
 0.58870003E+02  0.47975E+05
 0.58920002E+02 -0.16945E+05
 0.58970001E+02 -0.73917E+05
 0.59020000E+02 -0.66643E+05
 0.59070000E+02 -0.31701E+05
 0.59120003E+02 -0.76780E+05
 0.59170002E+02 -0.21913E+06
 0.59220001E+02 -0.27709E+06
 0.59270000E+02 -0.21129E+06
 0.59320000E+02 -0.15472E+06
 0.59370003E+02 -0.22552E+06
 0.59420002E+02 -0.47018E+06
 0.59470001E+02 -0.68985E+06
 0.59520000E+02 -0.80576E+06
 0.59570000E+02 -0.78304E+06
 0.59620003E+02 -0.65196E+06
 0.59670002E+02 -0.58688E+06
 0.59720001E+02 -0.54793E+06
 0.59770000E+02 -0.62652E+06
 0.59820000E+02 -0.79235E+06
 0.59870003E+02 -0.89800E+06
 0.59920002E+02 -0.93548E+06
 0.59970001E+02 -0.84479E+06
 0.60020000E+02 -0.73017E+06
 0.60070000E+02 -0.65676E+06
 0.60120003E+02 -0.57158E+06
 0.60170002E+02 -0.46763E+06
 0.60220001E+02 -0.34566E+06
 0.60270000E+02 -0.26362E+06
 0.60320000E+02 -0.21570E+06
 0.60370003E+02 -0.11898E+06
 0.60420002E+02  0.32150E+04
 0.60470001E+02  0.11379E+06
 0.60520000E+02  0.21018E+06
 0.60570000E+02  0.23914E+06
 0.60620003E+02  0.16892E+06
 0.60670002E+02  0.75858E+05
 0.60720001E+02  0.44068E+05
 0.60770000E+02  0.19404E+05
 0.60820000E+02 -0.77400E+04
 0.60870003E+02  0.14045E+05
 0.60920002E+02  0.56546E+05
 0.60970001E+02  0.68027E+05
 0.61020000E+02  0.62377E+05
 0.61070004E+02  0.39017E+05
 0.61119999E+02  0.12439E+05
 0.61170002E+02  0.10863E+06
 0.61220005E+02  0.26777E+06
 0.61270000E+02  0.35735E+06
 0.61320004E+02  0.29720E+06
 0.61369999E+02  0.11732E+06
 0.61420002E+02  0.48520E+04
 0.61470005E+02 -0.26614E+05
 0.61520000E+02 -0.17160E+05
 0.61570004E+02  0.57730E+04
 0.61619999E+02  0.21625E+05
 0.61670002E+02  0.50132E+05
 0.61720005E+02  0.44691E+05
 0.61770000E+02 -0.45120E+04
 0.61820004E+02 -0.89044E+05
 0.61869999E+02 -0.15317E+06
 0.61920002E+02 -0.12715E+06
 0.61970005E+02 -0.16420E+04
 0.62020000E+02  0.19802E+06
 0.62070004E+02  0.35579E+06
 0.62119999E+02  0.44067E+06
 0.62170002E+02  0.46664E+06
 0.62220005E+02  0.42920E+06
 0.62270000E+02  0.40280E+06
 0.62320004E+02  0.36919E+06
 0.62369999E+02  0.27919E+06
 0.62420002E+02  0.19609E+06
 0.62470005E+02  0.11958E+06
 0.62520000E+02 -0.11083E+05
 0.62570004E+02 -0.11229E+06
 0.62619999E+02 -0.13077E+06
 0.62670002E+02 -0.13350E+06
 0.62720005E+02 -0.15861E+06
 0.62770000E+02 -0.19865E+06
 0.62820004E+02 -0.18803E+06
 0.62869999E+02 -0.10316E+06
 0.62920002E+02  0.41199E+05
 0.62970005E+02  0.17669E+06
 0.63020000E+02  0.22399E+06
 0.63070004E+02  0.24853E+06
 0.63119999E+02  0.29514E+06
 0.63170002E+02  0.33045E+06
 0.63220005E+02  0.35648E+06
 0.63270000E+02  0.38740E+06
 0.63320004E+02  0.36058E+06
 0.63369999E+02  0.24446E+06
 0.63420002E+02  0.84844E+05
 0.63470005E+02 -0.11388E+06
 0.63520000E+02 -0.27472E+06
 0.63570004E+02 -0.35640E+06
 0.63619999E+02 -0.38163E+06
 0.63670002E+02 -0.31570E+06
 0.63720005E+02 -0.24124E+06
 0.63770000E+02 -0.17460E+06
 0.63820004E+02 -0.70072E+05
 0.63869999E+02 -0.42578E+05
 0.63920002E+02 -0.92979E+05
 0.63970005E+02 -0.16391E+06
 0.64019997E+02 -0.26552E+06
 0.64070000E+02 -0.33938E+06
 0.64119995E+02 -0.34983E+06
 0.64169998E+02 -0.27769E+06
 0.64220001E+02 -0.17259E+06
 0.64269997E+02 -0.11499E+06
 0.64320000E+02 -0.50726E+05
 0.64369995E+02  0.10974E+06
 0.64419998E+02  0.39672E+06
 0.64470001E+02  0.67355E+06
 0.64519997E+02  0.80924E+06
 0.64570000E+02  0.83858E+06
 0.64619995E+02  0.85849E+06
 0.64669998E+02  0.90223E+06
 0.64720001E+02  0.87768E+06
 0.64769997E+02  0.76556E+06
 0.64820000E+02  0.63582E+06
 0.64869995E+02  0.58895E+06
 0.64919998E+02  0.63136E+06
 0.64970001E+02  0.67844E+06
 0.65019997E+02  0.71527E+06
 0.65070000E+02  0.77899E+06
 0.65119995E+02  0.87483E+06
 0.65169998E+02  0.98062E+06
 0.65220001E+02  0.10623E+07
 0.65269997E+02  0.97882E+06
 0.65320000E+02  0.77848E+06
 0.65369995E+02  0.58630E+06
 0.65419998E+02  0.41252E+06
 0.65470001E+02  0.26221E+06
 0.65519997E+02  0.50188E+05
 0.65570000E+02 -0.16241E+06
 0.65619995E+02 -0.30364E+06
 0.65669998E+02 -0.37615E+06
 0.65720001E+02 -0.33429E+06
 0.65769997E+02 -0.21762E+06
 0.65820000E+02 -0.85468E+05
 0.65869995E+02  0.16992E+05
 0.65919998E+02  0.64615E+05
 0.65970001E+02  0.42560E+05
 0.66019997E+02 -0.42782E+05
 0.66070000E+02 -0.13876E+06
 0.66119995E+02 -0.18973E+06
 0.66169998E+02 -0.16246E+06
 0.66220001E+02 -0.10113E+06
 0.66269997E+02 -0.10341E+06
 0.66320000E+02 -0.20162E+06
 0.66369995E+02 -0.30151E+06
 0.66419998E+02 -0.33939E+06
 0.66470001E+02 -0.35173E+06
 0.66519997E+02 -0.39319E+06
 0.66570000E+02 -0.49612E+06
 0.66619995E+02 -0.57659E+06
 0.66669998E+02 -0.54709E+06
 0.66720001E+02 -0.41749E+06
 0.66769997E+02 -0.26230E+06
 0.66820000E+02 -0.17278E+06
 0.66869995E+02 -0.14340E+06
 0.66919998E+02 -0.12789E+06
 0.66970001E+02 -0.13001E+06
 0.67019997E+02 -0.15173E+06
 0.67070000E+02 -0.15845E+06
 0.67119995E+02 -0.13607E+06
 0.67169998E+02 -0.62895E+05
 0.67220001E+02  0.67220E+04
 0.67269997E+02 -0.18566E+05
 0.67320000E+02 -0.12542E+06
 0.67369995E+02 -0.25896E+06
 0.67419998E+02 -0.30493E+06
 0.67470001E+02 -0.31080E+06
 0.67519997E+02 -0.37064E+06
 0.67570000E+02 -0.42150E+06
 0.67619995E+02 -0.45313E+06
 0.67669998E+02 -0.37317E+06
 0.67720001E+02 -0.12958E+06
 0.67769997E+02  0.87540E+05
 0.67820000E+02  0.16490E+06
 0.67869995E+02  0.11574E+06
 0.67919998E+02 -0.37018E+05
 0.67970001E+02 -0.17907E+06
 0.68019997E+02 -0.24319E+06
 0.68070000E+02 -0.29119E+06
 0.68119995E+02 -0.35714E+06
 0.68169998E+02 -0.40826E+06
 0.68220001E+02 -0.46957E+06
 0.68269997E+02 -0.51946E+06
 0.68320000E+02 -0.50777E+06
 0.68369995E+02 -0.51009E+06
 0.68419998E+02 -0.47638E+06
 0.68470001E+02 -0.40317E+06
 0.68519997E+02 -0.37716E+06
 0.68570000E+02 -0.38816E+06
 0.68619995E+02 -0.43173E+06
 0.68669998E+02 -0.42435E+06
 0.68720001E+02 -0.34140E+06
 0.68769997E+02 -0.19218E+06
 0.68820000E+02 -0.38099E+05
 0.68869995E+02 -0.14555E+05
 0.68919998E+02 -0.10571E+06
 0.68970001E+02 -0.23135E+06
 0.69019997E+02 -0.33016E+06
 0.69070000E+02 -0.41940E+06
 0.69119995E+02 -0.50761E+06
 0.69169998E+02 -0.57572E+06
 0.69220001E+02 -0.62323E+06
 0.69269997E+02 -0.65432E+06
 0.69320000E+02 -0.66454E+06
 0.69369995E+02 -0.63541E+06
 0.69419998E+02 -0.61696E+06
 0.69470001E+02 -0.58152E+06
 0.69519997E+02 -0.50489E+06
 0.69570000E+02 -0.39776E+06
 0.69619995E+02 -0.25975E+06
 0.69669998E+02 -0.16631E+06
 0.69720001E+02 -0.12669E+06
 0.69769997E+02 -0.11291E+06
 0.69820000E+02 -0.70807E+05
 0.69869995E+02  0.71465E+05
 0.69919998E+02  0.25933E+06
 0.69970001E+02  0.43148E+06
 0.70019997E+02  0.56893E+06
 0.70070000E+02  0.57661E+06
 0.70119995E+02  0.49155E+06
 0.70169998E+02  0.42878E+06
 0.70220001E+02  0.39979E+06
 0.70269997E+02  0.42740E+06
 0.70320000E+02  0.48309E+06
 0.70369995E+02  0.54965E+06
 0.70419998E+02  0.61223E+06
 0.70470001E+02  0.60940E+06
 0.70519997E+02  0.51416E+06
 0.70570000E+02  0.35065E+06
 0.70619995E+02  0.21091E+06
 0.70669998E+02  0.13423E+06
 0.70720001E+02  0.47960E+05
 0.70769997E+02 -0.95818E+05
 0.70820000E+02 -0.25578E+06
 0.70869995E+02 -0.41143E+06
 0.70919998E+02 -0.49685E+06
 0.70970001E+02 -0.45426E+06
 0.71019997E+02 -0.35547E+06
 0.71070000E+02 -0.23294E+06
 0.71119995E+02 -0.11175E+06
 0.71169998E+02 -0.21581E+05
 0.71220001E+02  0.57479E+05
 0.71269997E+02  0.12474E+06
 0.71320000E+02  0.16570E+06
 0.71369995E+02  0.17664E+06
 0.71419998E+02  0.18889E+06
 0.71470001E+02  0.21142E+06
 0.71519997E+02  0.21809E+06
 0.71570000E+02  0.20014E+06
 0.71619995E+02  0.14695E+06
 0.71669998E+02  0.57796E+05
 0.71720001E+02 -0.56326E+05
 0.71769997E+02 -0.13602E+06
 0.71820000E+02 -0.14722E+06
 0.71869995E+02 -0.13265E+06
 0.71919998E+02 -0.10103E+06
 0.71970001E+02 -0.80352E+05
 0.72019997E+02 -0.94586E+05
 0.72070000E+02 -0.15448E+06
 0.72119995E+02 -0.21656E+06
 0.72169998E+02 -0.19529E+06
 0.72220001E+02 -0.15042E+06
 0.72269997E+02 -0.12735E+06
 0.72320000E+02 -0.13226E+06
 0.72369995E+02 -0.15083E+06
 0.72419998E+02 -0.12035E+06
 0.72470001E+02 -0.71012E+05
 0.72519997E+02 -0.11540E+04
 0.72570000E+02  0.67186E+05
 0.72619995E+02  0.80066E+05
 0.72669998E+02  0.11040E+06
 0.72720001E+02  0.16382E+06
 0.72769997E+02  0.23748E+06
 0.72820000E+02  0.38338E+06
 0.72869995E+02  0.52008E+06
 0.72919998E+02  0.60430E+06
 0.72970001E+02  0.68887E+06
 0.73019997E+02  0.77398E+06
 0.73070000E+02  0.85257E+06
 0.73119995E+02  0.88887E+06
 0.73169998E+02  0.85406E+06
 0.73220001E+02  0.77481E+06
 0.73269997E+02  0.67881E+06
 0.73320000E+02  0.58518E+06
 0.73369995E+02  0.45816E+06
 0.73419998E+02  0.30769E+06
 0.73470001E+02  0.16294E+06
 0.73519997E+02  0.14344E+05
 0.73570000E+02 -0.14374E+06
 0.73619995E+02 -0.34456E+06
 0.73669998E+02 -0.51580E+06
 0.73720001E+02 -0.60342E+06
 0.73769997E+02 -0.65597E+06
 0.73820000E+02 -0.66823E+06
 0.73869995E+02 -0.65522E+06
 0.73919998E+02 -0.66887E+06
 0.73970001E+02 -0.70160E+06
 0.74019997E+02 -0.71428E+06
 0.74070000E+02 -0.71123E+06
 0.74119995E+02 -0.68178E+06
 0.74169998E+02 -0.62182E+06
 0.74220001E+02 -0.58069E+06
 0.74269997E+02 -0.55688E+06
 0.74320000E+02 -0.54278E+06
 0.74369995E+02 -0.56301E+06
 0.74419998E+02 -0.59442E+06
 0.74470001E+02 -0.59134E+06
 0.74519997E+02 -0.53515E+06
 0.74570000E+02 -0.45222E+06
 0.74619995E+02 -0.39916E+06
 0.74669998E+02 -0.38156E+06
 0.74720001E+02 -0.36860E+06
 0.74769997E+02 -0.35429E+06
 0.74820000E+02 -0.34643E+06
 0.74869995E+02 -0.38158E+06
 0.74919998E+02 -0.46478E+06
 0.74970001E+02 -0.52755E+06
 0.75019997E+02 -0.52270E+06
 0.75070000E+02 -0.45487E+06
 0.75119995E+02 -0.37410E+06
 0.75169998E+02 -0.32320E+06
 0.75220001E+02 -0.27577E+06
 0.75269997E+02 -0.18608E+06
 0.75320000E+02 -0.26164E+05
 0.75369995E+02  0.15808E+06
 0.75419998E+02  0.27944E+06
 0.75470001E+02  0.32297E+06
 0.75519997E+02  0.33529E+06
 0.75570000E+02  0.32319E+06
 0.75619995E+02  0.27639E+06
 0.75669998E+02  0.23867E+06
 0.75720001E+02  0.20339E+06
 0.75769997E+02  0.18570E+06
 0.75820000E+02  0.21436E+06
 0.75869995E+02  0.25186E+06
 0.75919998E+02  0.28223E+06
 0.75970001E+02  0.29732E+06
 0.76019997E+02  0.31975E+06
 0.76070000E+02  0.34475E+06
 0.76119995E+02  0.35185E+06
 0.76169998E+02  0.33304E+06
 0.76220001E+02  0.28102E+06
 0.76269997E+02  0.23418E+06
 0.76320000E+02  0.20193E+06
 0.76369995E+02  0.16082E+06
 0.76419998E+02  0.10191E+06
 0.76470001E+02  0.38236E+05
 0.76519997E+02 -0.26570E+04
 0.76570000E+02 -0.16215E+05
 0.76619995E+02 -0.86265E+05
 0.76669998E+02 -0.22876E+06
 0.76720001E+02 -0.35127E+06
 0.76769997E+02 -0.42448E+06
 0.76820000E+02 -0.44840E+06
 0.76869995E+02 -0.42021E+06
 0.76919998E+02 -0.32383E+06
 0.76970001E+02 -0.18071E+06
 0.77019997E+02 -0.19902E+05
 0.77070000E+02  0.14234E+06
 0.77119995E+02  0.26306E+06
 0.77169998E+02  0.34345E+06
 0.77220001E+02  0.39919E+06
 0.77269997E+02  0.42284E+06
 0.77320000E+02  0.40966E+06
 0.77369995E+02  0.38271E+06
 0.77419998E+02  0.37499E+06
 0.77470001E+02  0.37366E+06
 0.77519997E+02  0.34955E+06
 0.77570000E+02  0.32274E+06
 0.77619995E+02  0.30962E+06
 0.77669998E+02  0.31941E+06
 0.77720001E+02  0.33887E+06
 0.77769997E+02  0.32178E+06
 0.77820000E+02  0.27417E+06
 0.77869995E+02  0.22341E+06
 0.77919998E+02  0.18809E+06
 0.77970001E+02  0.15062E+06
 0.78019997E+02  0.11335E+06
 0.78070000E+02  0.10893E+06
 0.78119995E+02  0.12813E+06
 0.78169998E+02  0.17512E+06
 0.78220001E+02  0.21438E+06
 0.78269997E+02  0.20788E+06
 0.78320000E+02  0.18186E+06
 0.78369995E+02  0.16553E+06
 0.78419998E+02  0.16669E+06
 0.78470001E+02  0.17065E+06
 0.78519997E+02  0.15187E+06
 0.78570000E+02  0.76084E+05
 0.78619995E+02 -0.23459E+05
 0.78669998E+02 -0.10586E+06
 0.78720001E+02 -0.16649E+06
 0.78769997E+02 -0.17501E+06
 0.78820000E+02 -0.14564E+06
 0.78869995E+02 -0.12372E+06
 0.78919998E+02 -0.12704E+06
 0.78970001E+02 -0.17678E+06
 0.79019997E+02 -0.26690E+06
 0.79070000E+02 -0.34124E+06
 0.79119995E+02 -0.40471E+06
 0.79169998E+02 -0.47755E+06
 0.79220001E+02 -0.54070E+06
 0.79269997E+02 -0.58158E+06
 0.79320000E+02 -0.56860E+06
 0.79369995E+02 -0.49638E+06
 0.79419998E+02 -0.39654E+06
 0.79470001E+02 -0.29669E+06
 0.79519997E+02 -0.21286E+06
 0.79570000E+02 -0.16004E+06
 0.79619995E+02 -0.13754E+06
 0.79669998E+02 -0.14630E+06
 0.79720001E+02 -0.15007E+06
 0.79769997E+02 -0.92338E+05
 0.79820000E+02 -0.13624E+05
 0.79869995E+02  0.52003E+05
 0.79919998E+02  0.10265E+06
 0.79970001E+02  0.12902E+06
 0.80019997E+02  0.16340E+06
 0.80070000E+02  0.22064E+06
 0.80119995E+02  0.24229E+06
 0.80169998E+02  0.20574E+06
 0.80220001E+02  0.15448E+06
 0.80269997E+02  0.10057E+06
 0.80320000E+02  0.74720E+05
 0.80369995E+02  0.69045E+05
 0.80419998E+02  0.24757E+05
 0.80470001E+02 -0.39030E+05
 0.80519997E+02 -0.89355E+05
 0.80570000E+02 -0.12118E+06
 0.80619995E+02 -0.13420E+06
 0.80669998E+02 -0.14144E+06
 0.80720001E+02 -0.14749E+06
 0.80769997E+02 -0.14363E+06
 0.80820000E+02 -0.13994E+06
 0.80869995E+02 -0.16028E+06
 0.80919998E+02 -0.19364E+06
 0.80970001E+02 -0.19684E+06
 0.81019997E+02 -0.15102E+06
 0.81070000E+02 -0.79503E+05
 0.81119995E+02 -0.15931E+05
 0.81169998E+02  0.85540E+04
 0.81220001E+02 -0.58190E+04
 0.81269997E+02 -0.43175E+05
 0.81320000E+02 -0.96623E+05
 0.81369995E+02 -0.13968E+06
 0.81419998E+02 -0.16094E+06
 0.81470001E+02 -0.13000E+06
 0.81519997E+02 -0.48787E+05
 0.81570000E+02  0.17741E+05
 0.81619995E+02  0.61201E+05
 0.81669998E+02  0.80557E+05
 0.81720001E+02  0.10016E+06
 0.81769997E+02  0.14167E+06
 0.81820000E+02  0.17775E+06
 0.81869995E+02  0.19899E+06
 0.81919998E+02  0.17804E+06
 0.81970001E+02  0.12486E+06
 0.82019997E+02  0.69758E+05
 0.82070000E+02  0.34860E+04
 0.82119995E+02 -0.66502E+05
 0.82169998E+02 -0.13956E+06
 0.82220001E+02 -0.22396E+06
 0.82269997E+02 -0.30207E+06
 0.82320000E+02 -0.36487E+06
 0.82369995E+02 -0.43485E+06
 0.82419998E+02 -0.51191E+06
 0.82470001E+02 -0.54912E+06
 0.82519997E+02 -0.54794E+06
 0.82570000E+02 -0.54051E+06
 0.82619995E+02 -0.54042E+06
 0.82669998E+02 -0.56587E+06
 0.82720001E+02 -0.58924E+06
 0.82769997E+02 -0.59173E+06
 0.82820000E+02 -0.57696E+06
 0.82869995E+02 -0.53312E+06
 0.82919998E+02 -0.46576E+06
 0.82970001E+02 -0.38122E+06
 0.83019997E+02 -0.29044E+06
 0.83070000E+02 -0.21533E+06
 0.83119995E+02 -0.17428E+06
 0.83169998E+02 -0.15800E+06
 0.83220001E+02 -0.14177E+06
 0.83269997E+02 -0.11150E+06
 0.83320000E+02 -0.54846E+05
 0.83369995E+02  0.45630E+04
 0.83419998E+02  0.30622E+05
 0.83470001E+02  0.52496E+05
 0.83519997E+02  0.84899E+05
 0.83570000E+02  0.10136E+06
 0.83619995E+02  0.12644E+06
 0.83669998E+02  0.14957E+06
 0.83720001E+02  0.12570E+06
 0.83769997E+02  0.81190E+05
 0.83820000E+02  0.33109E+05
 0.83869995E+02 -0.34345E+05
 0.83919998E+02 -0.94049E+05
 0.83970001E+02 -0.11266E+06
 0.84019997E+02 -0.94847E+05
 0.84070000E+02 -0.35660E+05
 0.84119995E+02  0.58017E+05
 0.84169998E+02  0.13390E+06
 0.84220001E+02  0.16050E+06
 0.84269997E+02  0.15670E+06
 0.84320000E+02  0.14509E+06
 0.84369995E+02  0.15650E+06
 0.84419998E+02  0.19099E+06
 0.84470001E+02  0.19513E+06
 0.84519997E+02  0.19586E+06
 0.84570000E+02  0.22797E+06
 0.84619995E+02  0.23138E+06
 0.84669998E+02  0.17335E+06
 0.84720001E+02  0.83377E+05
 0.84769997E+02  0.97500E+04
 0.84820000E+02  0.49190E+04
 0.84869995E+02  0.49936E+05
 0.84919998E+02  0.46102E+05
 0.84970001E+02 -0.18872E+05
 0.85019997E+02 -0.78735E+05
 0.85070000E+02 -0.11530E+06
 0.85119995E+02 -0.11448E+06
 0.85169998E+02 -0.91138E+05
 0.85220001E+02 -0.83934E+05
 0.85269997E+02 -0.82221E+05
 0.85320000E+02 -0.95528E+05
 0.85369995E+02 -0.13254E+06
 0.85419998E+02 -0.16496E+06
 0.85470001E+02 -0.16243E+06
 0.85519997E+02 -0.10483E+06
 0.85570000E+02  0.11000E+03
 0.85619995E+02  0.12041E+06
 0.85669998E+02  0.18428E+06
 0.85720001E+02  0.15164E+06
 0.85769997E+02  0.73983E+05
 0.85820000E+02  0.10142E+05
 0.85869995E+02 -0.25776E+05
 0.85919998E+02 -0.58045E+05
 0.85970001E+02 -0.13030E+06
 0.86019997E+02 -0.24093E+06
 0.86070000E+02 -0.32839E+06
 0.86119995E+02 -0.35372E+06
 0.86169998E+02 -0.30490E+06
 0.86220001E+02 -0.22284E+06
 0.86269997E+02 -0.17036E+06
 0.86320000E+02 -0.14455E+06
 0.86369995E+02 -0.14402E+06
 0.86419998E+02 -0.13690E+06
 0.86470001E+02 -0.11008E+06
 0.86519997E+02 -0.84583E+05
 0.86570000E+02 -0.26734E+05
 0.86619995E+02  0.56727E+05
 0.86669998E+02  0.14068E+06
 0.86720001E+02  0.19441E+06
 0.86769997E+02  0.17226E+06
 0.86820000E+02  0.83947E+05
 0.86869995E+02 -0.60460E+04
 0.86919998E+02 -0.49216E+05
 0.86970001E+02 -0.48348E+05
 0.87019997E+02 -0.13035E+05
 0.87070000E+02  0.35894E+05
 0.87119995E+02  0.98447E+05
 0.87169998E+02  0.17526E+06
 0.87220001E+02  0.24048E+06
 0.87269997E+02  0.28498E+06
 0.87320000E+02  0.30872E+06
 0.87369995E+02  0.33436E+06
 0.87419998E+02  0.35711E+06
 0.87470001E+02  0.34561E+06
 0.87519997E+02  0.30274E+06
 0.87570000E+02  0.23478E+06
 0.87619995E+02  0.15966E+06
 0.87669998E+02  0.10497E+06
 0.87720001E+02  0.75648E+05
 0.87769997E+02  0.82357E+05
 0.87820000E+02  0.11499E+06
 0.87869995E+02  0.11545E+06
 0.87919998E+02  0.72548E+05
 0.87970001E+02  0.21935E+05
 0.88019997E+02 -0.49960E+04
 0.88070000E+02  0.17936E+05
 0.88119995E+02  0.78058E+05
 0.88169998E+02  0.12575E+06
 0.88220001E+02  0.12408E+06
 0.88269997E+02  0.86504E+05
 0.88320000E+02  0.41689E+05
 0.88369995E+02  0.99190E+04
 0.88419998E+02  0.61900E+03
 0.88470001E+02 -0.18384E+05
 0.88519997E+02 -0.62908E+05
 0.88570000E+02 -0.96932E+05
 0.88619995E+02 -0.84042E+05
 0.88669998E+02 -0.13213E+05
 0.88720001E+02  0.71054E+05
 0.88769997E+02  0.11805E+06
 0.88820000E+02  0.11788E+06
 0.88869995E+02  0.88070E+05
 0.88919998E+02  0.52862E+05
 0.88970001E+02  0.14744E+05
 0.89019997E+02 -0.22630E+05
 0.89070000E+02 -0.52716E+05
 0.89119995E+02 -0.88434E+05
 0.89169998E+02 -0.15487E+06
 0.89220001E+02 -0.22792E+06
 0.89269997E+02 -0.29687E+06
 0.89320000E+02 -0.37405E+06
 0.89369995E+02 -0.42378E+06
 0.89419998E+02 -0.44778E+06
 0.89470001E+02 -0.45506E+06
 0.89519997E+02 -0.45383E+06
 0.89570000E+02 -0.47084E+06
 0.89619995E+02 -0.49440E+06
 0.89669998E+02 -0.48147E+06
 0.89720001E+02 -0.39863E+06
 0.89769997E+02 -0.25742E+06
 0.89820000E+02 -0.10678E+06
 0.89869995E+02 -0.12168E+05
 0.89919998E+02  0.22096E+05
 0.89970001E+02  0.29132E+05
 0.90019997E+02  0.31352E+05
 0.90070000E+02  0.60819E+05
 0.90119995E+02  0.10383E+06
 0.90169998E+02  0.14587E+06
 0.90220001E+02  0.21275E+06
 0.90269997E+02  0.30095E+06
 0.90320000E+02  0.36886E+06
 0.90369995E+02  0.40580E+06
 0.90419998E+02  0.42654E+06
 0.90470001E+02  0.43642E+06
 0.90519997E+02  0.45478E+06
 0.90570000E+02  0.45755E+06
 0.90619995E+02  0.42287E+06
 0.90669998E+02  0.37331E+06
 0.90720001E+02  0.30366E+06
 0.90769997E+02  0.21399E+06
 0.90820000E+02  0.11459E+06
 0.90869995E+02  0.23172E+05
 0.90919998E+02 -0.66638E+05
 0.90970001E+02 -0.15714E+06
 0.91019997E+02 -0.22621E+06
 0.91070000E+02 -0.28429E+06
 0.91119995E+02 -0.32066E+06
 0.91169998E+02 -0.34374E+06
 0.91220001E+02 -0.36543E+06
 0.91269997E+02 -0.36665E+06
 0.91320000E+02 -0.35746E+06
 0.91369995E+02 -0.33996E+06
 0.91419998E+02 -0.32126E+06
 0.91470001E+02 -0.31624E+06
 0.91519997E+02 -0.31141E+06
 0.91570000E+02 -0.30594E+06
 0.91619995E+02 -0.31158E+06
 0.91669998E+02 -0.34500E+06
 0.91720001E+02 -0.41780E+06
 0.91769997E+02 -0.47490E+06
 0.91820000E+02 -0.47155E+06
 0.91869995E+02 -0.44029E+06
 0.91919998E+02 -0.41111E+06
 0.91970001E+02 -0.39263E+06
 0.92019997E+02 -0.37945E+06
 0.92070000E+02 -0.34396E+06
 0.92119995E+02 -0.27927E+06
 0.92169998E+02 -0.21516E+06
 0.92220001E+02 -0.18315E+06
 0.92269997E+02 -0.18954E+06
 0.92320000E+02 -0.19839E+06
 0.92369995E+02 -0.18174E+06
 0.92419998E+02 -0.15643E+06
 0.92470001E+02 -0.13984E+06
 0.92519997E+02 -0.13048E+06
 0.92570000E+02 -0.11635E+06
 0.92619995E+02 -0.93911E+05
 0.92669998E+02 -0.77356E+05
 0.92720001E+02 -0.75898E+05
 0.92769997E+02 -0.81233E+05
 0.92820000E+02 -0.72043E+05
 0.92869995E+02 -0.41029E+05
 0.92919998E+02 -0.20879E+05
 0.92970001E+02 -0.28395E+05
 0.93019997E+02 -0.59852E+05
 0.93070000E+02 -0.10769E+06
 0.93119995E+02 -0.13587E+06
 0.93169998E+02 -0.13092E+06
 0.93220001E+02 -0.11045E+06
 0.93269997E+02 -0.79157E+05
 0.93320000E+02 -0.29792E+05
 0.93369995E+02  0.24086E+05
 0.93419998E+02  0.67689E+05
 0.93470001E+02  0.97183E+05
 0.93519997E+02  0.94748E+05
 0.93570000E+02  0.70423E+05
 0.93619995E+02  0.43607E+05
 0.93669998E+02  0.60990E+04
 0.93720001E+02 -0.29582E+05
 0.93769997E+02 -0.57987E+05
 0.93820000E+02 -0.79535E+05
 0.93869995E+02 -0.64909E+05
 0.93919998E+02 -0.16250E+04
 0.93970001E+02  0.96747E+05
 0.94019997E+02  0.19587E+06
 0.94070000E+02  0.27919E+06
 0.94119995E+02  0.34824E+06
 0.94169998E+02  0.40521E+06
 0.94220001E+02  0.44782E+06
 0.94269997E+02  0.44642E+06
 0.94320000E+02  0.40887E+06
 0.94369995E+02  0.36423E+06
 0.94419998E+02  0.32549E+06
 0.94470001E+02  0.29023E+06
 0.94519997E+02  0.22938E+06
 0.94570000E+02  0.14520E+06
 0.94619995E+02  0.70729E+05
 0.94669998E+02  0.31382E+05
 0.94720001E+02  0.19354E+05
 0.94769997E+02  0.84800E+03
 0.94820000E+02 -0.29675E+05
 0.94869995E+02 -0.61108E+05
 0.94919998E+02 -0.88110E+05
 0.94970001E+02 -0.11498E+06
 0.95019997E+02 -0.14389E+06
 0.95070000E+02 -0.16773E+06
 0.95119995E+02 -0.20295E+06
 0.95169998E+02 -0.26129E+06
 0.95220001E+02 -0.33491E+06
 0.95269997E+02 -0.41028E+06
 0.95320000E+02 -0.45880E+06
 0.95369995E+02 -0.45990E+06
 0.95419998E+02 -0.41457E+06
 0.95470001E+02 -0.34328E+06
 0.95519997E+02 -0.27433E+06
 0.95570000E+02 -0.22328E+06
 0.95619995E+02 -0.17618E+06
 0.95669998E+02 -0.10995E+06
 0.95720001E+02 -0.31807E+05
 0.95769997E+02  0.34233E+05
 0.95820000E+02  0.67005E+05
 0.95869995E+02  0.56986E+05
 0.95919998E+02  0.22049E+05
 0.95970001E+02 -0.67120E+04
 0.96019997E+02 -0.14216E+05
 0.96070000E+02 -0.41460E+04
 0.96119995E+02  0.11013E+05
 0.96169998E+02  0.19271E+05
 0.96220001E+02  0.18184E+05
 0.96269997E+02  0.18250E+05
 0.96320000E+02  0.40612E+05
 0.96369995E+02  0.90160E+05
 0.96419998E+02  0.15422E+06
 0.96470001E+02  0.21159E+06
 0.96519997E+02  0.23037E+06
 0.96570000E+02  0.21175E+06
 0.96619995E+02  0.18353E+06
 0.96669998E+02  0.17162E+06
 0.96720001E+02  0.18326E+06
 0.96769997E+02  0.18590E+06
 0.96820000E+02  0.16364E+06
 0.96869995E+02  0.14321E+06
 0.96919998E+02  0.13570E+06
 0.96970001E+02  0.13368E+06
 0.97019997E+02  0.14554E+06
 0.97070000E+02  0.16465E+06
 0.97119995E+02  0.17868E+06
 0.97169998E+02  0.18506E+06
 0.97220001E+02  0.15656E+06
 0.97269997E+02  0.88435E+05
 0.97320000E+02  0.23179E+05
 0.97369995E+02 -0.15291E+05
 0.97419998E+02 -0.20398E+05
 0.97470001E+02  0.12000E+05
 0.97519997E+02  0.46236E+05
 0.97570000E+02  0.52603E+05
 0.97619995E+02  0.42416E+05
 0.97669998E+02  0.29846E+05
 0.97720001E+02  0.27460E+05
 0.97769997E+02  0.31829E+05
 0.97820000E+02  0.43181E+05
 0.97869995E+02  0.82548E+05
 0.97919998E+02  0.14321E+06
 0.97970001E+02  0.20167E+06
 0.98019997E+02  0.23150E+06
 0.98070000E+02  0.22209E+06
 0.98119995E+02  0.19767E+06
 0.98169998E+02  0.18303E+06
 0.98220001E+02  0.20052E+06
 0.98269997E+02  0.22557E+06
 0.98320000E+02  0.21819E+06
 0.98369995E+02  0.19464E+06
 0.98419998E+02  0.17463E+06
 0.98470001E+02  0.16946E+06
 0.98519997E+02  0.17959E+06
 0.98570000E+02  0.18497E+06
 0.98619995E+02  0.17043E+06
 0.98669998E+02  0.14215E+06
 0.98720001E+02  0.10481E+06
 0.98769997E+02  0.49520E+05
 0.98820000E+02 -0.26957E+05
 0.98869995E+02 -0.12134E+06
 0.98919998E+02 -0.20615E+06
 0.98970001E+02 -0.26045E+06
 0.99019997E+02 -0.28353E+06
 0.99070000E+02 -0.28335E+06
 0.99119995E+02 -0.27661E+06
 0.99169998E+02 -0.26270E+06
 0.99220001E+02 -0.23607E+06
 0.99269997E+02 -0.20202E+06
 0.99320000E+02 -0.18154E+06
 0.99369995E+02 -0.18102E+06
 0.99419998E+02 -0.19526E+06
 0.99470001E+02 -0.22723E+06
 0.99519997E+02 -0.27165E+06
 0.99570000E+02 -0.32876E+06
 0.99619995E+02 -0.39212E+06
 0.99669998E+02 -0.45834E+06
 0.99720001E+02 -0.53478E+06
 0.99769997E+02 -0.61275E+06
 0.99820000E+02 -0.67526E+06
 0.99869995E+02 -0.70104E+06
 0.99919998E+02 -0.66326E+06
 0.99970001E+02 -0.56099E+06
 0.10002000E+03 -0.43191E+06
 0.10007000E+03 -0.30474E+06
 0.10012000E+03 -0.19680E+06
 0.10017000E+03 -0.12638E+06
 0.10022000E+03 -0.81500E+05
 0.10027000E+03 -0.53165E+05
 0.10032000E+03 -0.54748E+05
 0.10037000E+03 -0.83124E+05
 0.10042000E+03 -0.12272E+06
 0.10047000E+03 -0.15093E+06
 0.10052000E+03 -0.16405E+06
 0.10057000E+03 -0.17709E+06
 0.10062000E+03 -0.19585E+06
 0.10067000E+03 -0.22380E+06
 0.10072000E+03 -0.23759E+06
 0.10077000E+03 -0.21668E+06
 0.10082000E+03 -0.16871E+06
 0.10087000E+03 -0.11095E+06
 0.10092000E+03 -0.62009E+05
 0.10097000E+03 -0.26611E+05
 0.10102000E+03  0.21160E+04
 0.10107000E+03  0.34403E+05
 0.10112000E+03  0.76999E+05
 0.10117000E+03  0.13544E+06
 0.10122000E+03  0.19526E+06
 0.10127000E+03  0.23626E+06
 0.10132000E+03  0.25376E+06
 0.10137000E+03  0.24775E+06
 0.10142000E+03  0.22833E+06
 0.10147000E+03  0.20665E+06
 0.10152000E+03  0.18563E+06
 0.10157000E+03  0.16670E+06
 0.10162000E+03  0.15661E+06
 0.10167000E+03  0.15406E+06
 0.10172000E+03  0.15717E+06
 0.10177000E+03  0.16567E+06
 0.10182000E+03  0.16186E+06
 0.10187000E+03  0.14054E+06
 0.10192000E+03  0.10772E+06
 0.10197000E+03  0.62194E+05
 0.10202000E+03  0.66880E+04
 0.10207000E+03 -0.51077E+05
 0.10212000E+03 -0.97247E+05
 0.10217000E+03 -0.13087E+06
 0.10222000E+03 -0.15977E+06
 0.10227000E+03 -0.18411E+06
 0.10232000E+03 -0.19384E+06
 0.10237000E+03 -0.18799E+06
 0.10242000E+03 -0.18691E+06
 0.10247000E+03 -0.19301E+06
 0.10252000E+03 -0.19737E+06
 0.10257000E+03 -0.18003E+06
 0.10262000E+03 -0.12823E+06
 0.10267000E+03 -0.65366E+05
 0.10272000E+03 -0.71890E+04
 0.10277000E+03  0.40182E+05
 0.10282000E+03  0.68262E+05
 0.10287000E+03  0.72543E+05
 0.10292000E+03  0.61290E+05
 0.10297000E+03  0.53634E+05
 0.10302000E+03  0.52492E+05
 0.10307000E+03  0.37560E+05
 0.10312000E+03  0.63420E+04
 0.10317000E+03 -0.19903E+05
 0.10322000E+03 -0.31125E+05
 0.10327000E+03 -0.25436E+05
 0.10332000E+03 -0.14154E+05
 0.10337000E+03 -0.19364E+05
 0.10342000E+03 -0.52880E+05
 0.10347000E+03 -0.10253E+06
 0.10352000E+03 -0.14386E+06
 0.10357000E+03 -0.15534E+06
 0.10362000E+03 -0.13738E+06
 0.10367000E+03 -0.11836E+06
 0.10372000E+03 -0.12417E+06
 0.10377000E+03 -0.15533E+06
 0.10382000E+03 -0.18360E+06
 0.10387000E+03 -0.18823E+06
 0.10392000E+03 -0.16974E+06
 0.10397000E+03 -0.13020E+06
 0.10402000E+03 -0.75876E+05
 0.10407000E+03 -0.19124E+05
 0.10412000E+03  0.32740E+05
 0.10417000E+03  0.69861E+05
 0.10422000E+03  0.87369E+05
 0.10427000E+03  0.99607E+05
 0.10432000E+03  0.12292E+06
 0.10437000E+03  0.15672E+06
 0.10442000E+03  0.18060E+06
 0.10447000E+03  0.17987E+06
 0.10452000E+03  0.15345E+06
 0.10457000E+03  0.11465E+06
 0.10462000E+03  0.86476E+05
 0.10467000E+03  0.78148E+05
 0.10472000E+03  0.81175E+05
 0.10477000E+03  0.73242E+05
 0.10482000E+03  0.36319E+05
 0.10487000E+03 -0.26694E+05
 0.10492000E+03 -0.10843E+06
 0.10497000E+03 -0.19991E+06
 0.10502000E+03 -0.28444E+06
 0.10507000E+03 -0.34470E+06
 0.10512000E+03 -0.36001E+06
 0.10517000E+03 -0.33078E+06
 0.10522000E+03 -0.28749E+06
 0.10527000E+03 -0.26173E+06
 0.10532000E+03 -0.25381E+06
 0.10537000E+03 -0.23916E+06
 0.10542000E+03 -0.20456E+06
 0.10547000E+03 -0.16460E+06
 0.10552000E+03 -0.15313E+06
 0.10557000E+03 -0.17248E+06
 0.10562000E+03 -0.20925E+06
 0.10567000E+03 -0.25328E+06
 0.10572000E+03 -0.29200E+06
 0.10577000E+03 -0.32539E+06
 0.10582000E+03 -0.34456E+06
 0.10587000E+03 -0.34472E+06
 0.10592000E+03 -0.32983E+06
 0.10597000E+03 -0.30401E+06
 0.10602000E+03 -0.27434E+06
 0.10607000E+03 -0.25150E+06
 0.10612000E+03 -0.22532E+06
 0.10617000E+03 -0.17338E+06
 0.10622000E+03 -0.10092E+06
 0.10627000E+03 -0.22014E+05
 0.10632000E+03  0.45334E+05
 0.10637000E+03  0.83558E+05
 0.10642000E+03  0.96932E+05
 0.10647000E+03  0.10867E+06
 0.10652000E+03  0.12615E+06
 0.10657000E+03  0.15524E+06
 0.10662000E+03  0.19195E+06
 0.10667000E+03  0.20215E+06
 0.10672000E+03  0.17838E+06
 0.10677000E+03  0.13676E+06
 0.10682000E+03  0.99425E+05
 0.10687000E+03  0.79690E+05
 0.10692000E+03  0.74103E+05
 0.10697000E+03  0.67903E+05
 0.10702000E+03  0.48043E+05
 0.10707000E+03  0.27262E+05
 0.10712000E+03  0.99600E+04
 0.10717000E+03 -0.37180E+04
 0.10722000E+03 -0.62100E+04
 0.10727000E+03  0.41770E+04
 0.10732000E+03  0.21802E+05
 0.10737000E+03  0.37056E+05
 0.10742000E+03  0.50279E+05
 0.10747000E+03  0.51546E+05
 0.10752000E+03  0.40676E+05
 0.10757000E+03  0.29133E+05
 0.10762000E+03  0.15746E+05
 0.10767000E+03  0.76160E+04
 0.10772000E+03  0.16289E+05
 0.10777000E+03  0.40624E+05
 0.10782000E+03  0.63880E+05
 0.10787000E+03  0.78921E+05
 0.10792000E+03  0.87197E+05
 0.10797000E+03  0.90544E+05
 0.10802000E+03  0.93428E+05
 0.10807000E+03  0.99347E+05
 0.10812000E+03  0.10562E+06
 0.10817000E+03  0.10996E+06
 0.10822000E+03  0.12109E+06
 0.10827000E+03  0.13219E+06
 0.10832000E+03  0.13416E+06
 0.10837000E+03  0.12188E+06
 0.10842000E+03  0.10236E+06
 0.10847000E+03  0.97017E+05
 0.10852000E+03  0.11063E+06
 0.10857000E+03  0.13728E+06
 0.10862000E+03  0.16566E+06
 0.10867000E+03  0.18485E+06
 0.10872000E+03  0.19056E+06
 0.10877000E+03  0.18576E+06
 0.10882000E+03  0.16760E+06
 0.10887000E+03  0.14604E+06
 0.10892000E+03  0.13646E+06
 0.10897000E+03  0.12341E+06
 0.10902000E+03  0.96512E+05
 0.10907000E+03  0.49557E+05
 0.10912000E+03 -0.19543E+05
 0.10917000E+03 -0.97468E+05
 0.10922000E+03 -0.17173E+06
 0.10927000E+03 -0.23044E+06
 0.10932000E+03 -0.26629E+06
 0.10937000E+03 -0.27148E+06
 0.10942000E+03 -0.25428E+06
 0.10947000E+03 -0.22755E+06
 0.10952000E+03 -0.19824E+06
 0.10957000E+03 -0.17845E+06
 0.10962000E+03 -0.16087E+06
 0.10967000E+03 -0.13891E+06
 0.10972000E+03 -0.11588E+06
 0.10977000E+03 -0.95613E+05
 0.10982000E+03 -0.80950E+05
 0.10987000E+03 -0.64000E+05
 0.10992000E+03 -0.45756E+05
 0.10997000E+03 -0.30667E+05
 0.11002000E+03 -0.18078E+05
 0.11007000E+03 -0.11045E+05
 0.11012000E+03 -0.10045E+05
 0.11017000E+03  0.17530E+04
 0.11022000E+03  0.41079E+05
 0.11027000E+03  0.97440E+05
 0.11032000E+03  0.15664E+06
 0.11037000E+03  0.20593E+06
 0.11042000E+03  0.22983E+06
 0.11047000E+03  0.23133E+06
 0.11052000E+03  0.21925E+06
 0.11057000E+03  0.19499E+06
 0.11062000E+03  0.16799E+06
 0.11067000E+03  0.13783E+06
 0.11072000E+03  0.95825E+05
 0.11077000E+03  0.52301E+05
 0.11082000E+03  0.23237E+05
 0.11087000E+03  0.21045E+05
 0.11092000E+03  0.40693E+05
 0.11097000E+03  0.59934E+05
 0.11102000E+03  0.69351E+05
 0.11107000E+03  0.70281E+05
 0.11112000E+03  0.65878E+05
 0.11117000E+03  0.65159E+05
 0.11122000E+03  0.65568E+05
 0.11127000E+03  0.63326E+05
 0.11132000E+03  0.57304E+05
 0.11137000E+03  0.37383E+05
 0.11142000E+03  0.59780E+04
 0.11147000E+03 -0.27691E+05
 0.11152000E+03 -0.51975E+05
 0.11157000E+03 -0.61728E+05
 0.11162000E+03 -0.68034E+05
 0.11167000E+03 -0.85120E+05
 0.11172000E+03 -0.11751E+06
 0.11177000E+03 -0.15381E+06
 0.11182000E+03 -0.18735E+06
 0.11187000E+03 -0.21029E+06
 0.11192000E+03 -0.21614E+06
 0.11197000E+03 -0.21226E+06
 0.11202000E+03 -0.20565E+06
 0.11207000E+03 -0.20577E+06
 0.11212000E+03 -0.21011E+06
 0.11217000E+03 -0.21102E+06
 0.11222000E+03 -0.21502E+06
 0.11227000E+03 -0.22188E+06
 0.11232000E+03 -0.22954E+06
 0.11237000E+03 -0.24107E+06
 0.11242000E+03 -0.24846E+06
 0.11247000E+03 -0.24926E+06
 0.11252000E+03 -0.24772E+06
 0.11257000E+03 -0.24897E+06
 0.11262000E+03 -0.26773E+06
 0.11267000E+03 -0.29906E+06
 0.11272000E+03 -0.32421E+06
 0.11277000E+03 -0.33451E+06
 0.11282000E+03 -0.33051E+06
 0.11287000E+03 -0.31662E+06
 0.11292000E+03 -0.29056E+06
 0.11297000E+03 -0.25632E+06
 0.11302000E+03 -0.22364E+06
 0.11307000E+03 -0.20197E+06
 0.11312000E+03 -0.18999E+06
 0.11317000E+03 -0.17488E+06
 0.11322000E+03 -0.15415E+06
 0.11327000E+03 -0.13153E+06
 0.11332000E+03 -0.11295E+06
 0.11337000E+03 -0.99236E+05
 0.11342000E+03 -0.82587E+05
 0.11347000E+03 -0.55465E+05
 0.11352000E+03 -0.25844E+05
 0.11357000E+03 -0.49130E+04
 0.11362000E+03  0.15933E+05
 0.11367000E+03  0.48898E+05
 0.11372000E+03  0.10624E+06
 0.11377000E+03  0.19230E+06
 0.11382000E+03  0.29074E+06
 0.11387000E+03  0.37460E+06
 0.11392000E+03  0.44094E+06
 0.11397000E+03  0.50060E+06
 0.11402000E+03  0.54713E+06
 0.11407000E+03  0.58113E+06
 0.11412000E+03  0.60422E+06
 0.11417000E+03  0.61125E+06
 0.11422000E+03  0.60155E+06
 0.11427000E+03  0.58081E+06
 0.11432000E+03  0.55699E+06
 0.11437000E+03  0.53571E+06
 0.11442000E+03  0.52106E+06
 0.11447000E+03  0.50568E+06
 0.11452000E+03  0.47830E+06
 0.11457000E+03  0.43440E+06
 0.11462000E+03  0.37937E+06
 0.11467000E+03  0.32260E+06
 0.11472000E+03  0.26470E+06
 0.11477000E+03  0.20349E+06
 0.11482000E+03  0.14278E+06
 0.11487000E+03  0.96140E+05
 0.11492000E+03  0.76355E+05
 0.11497000E+03  0.75908E+05
 0.11502000E+03  0.76464E+05
 0.11507000E+03  0.64681E+05
 0.11512000E+03  0.36122E+05
 0.11517000E+03 -0.32650E+04
 0.11522000E+03 -0.39008E+05
 0.11527000E+03 -0.58499E+05
 0.11532000E+03 -0.73584E+05
 0.11537000E+03 -0.10320E+06
 0.11542000E+03 -0.15521E+06
 0.11547000E+03 -0.22490E+06
 0.11552000E+03 -0.29090E+06
 0.11557000E+03 -0.33913E+06
 0.11562000E+03 -0.37311E+06
 0.11567000E+03 -0.40050E+06
 0.11572000E+03 -0.42134E+06
 0.11577000E+03 -0.44000E+06
 0.11582000E+03 -0.45869E+06
 0.11587000E+03 -0.47174E+06
 0.11592000E+03 -0.48048E+06
 0.11597000E+03 -0.48419E+06
 0.11602000E+03 -0.48075E+06
 0.11607000E+03 -0.47216E+06
 0.11612000E+03 -0.46194E+06
 0.11617000E+03 -0.44906E+06
 0.11622000E+03 -0.42992E+06
 0.11627000E+03 -0.40439E+06
 0.11632000E+03 -0.38135E+06
 0.11637000E+03 -0.36980E+06
 0.11642000E+03 -0.36713E+06
 0.11647000E+03 -0.36913E+06
 0.11652000E+03 -0.36893E+06
 0.11657000E+03 -0.36799E+06
 0.11662000E+03 -0.37103E+06
 0.11667000E+03 -0.36856E+06
 0.11672000E+03 -0.35219E+06
 0.11677000E+03 -0.32023E+06
 0.11682000E+03 -0.28137E+06
 0.11687000E+03 -0.24791E+06
 0.11692000E+03 -0.22377E+06
 0.11697000E+03 -0.20899E+06
 0.11702000E+03 -0.19245E+06
 0.11707000E+03 -0.16964E+06
 0.11712000E+03 -0.13762E+06
 0.11717000E+03 -0.85963E+05
 0.11722000E+03 -0.24212E+05
 0.11727000E+03  0.39742E+05
 0.11732000E+03  0.93141E+05
 0.11737000E+03  0.11431E+06
 0.11742000E+03  0.10068E+06
 0.11747000E+03  0.64004E+05
 0.11752000E+03  0.25049E+05
 0.11757000E+03 -0.10024E+05
 0.11762000E+03 -0.41752E+05
 0.11767000E+03 -0.62339E+05
 0.11772000E+03 -0.67570E+05
 0.11777000E+03 -0.53825E+05
 0.11782000E+03 -0.31975E+05
 0.11787000E+03 -0.15272E+05
 0.11792000E+03 -0.39160E+04
 0.11797000E+03  0.14730E+04
 0.11802000E+03  0.83170E+04
 0.11807000E+03  0.21560E+05
 0.11812000E+03  0.37220E+05
 0.11817000E+03  0.56186E+05
 0.11822000E+03  0.80440E+05
 0.11827000E+03  0.10886E+06
 0.11832000E+03  0.13325E+06
 0.11837000E+03  0.14492E+06
 0.11842000E+03  0.14048E+06
 0.11847000E+03  0.12610E+06
 0.11852000E+03  0.11045E+06
 0.11857000E+03  0.93974E+05
 0.11862000E+03  0.77959E+05
 0.11867000E+03  0.60565E+05
 0.11872000E+03  0.45382E+05
 0.11877000E+03  0.45751E+05
 0.11882000E+03  0.65832E+05
 0.11887000E+03  0.99203E+05
 0.11892000E+03  0.13177E+06
 0.11897000E+03  0.15342E+06
 0.11902000E+03  0.16937E+06
 0.11907000E+03  0.18509E+06
 0.11912000E+03  0.20165E+06
 0.11917000E+03  0.21860E+06
 0.11922000E+03  0.22783E+06
 0.11927000E+03  0.22526E+06
 0.11932000E+03  0.21061E+06
 0.11937000E+03  0.18159E+06
 0.11942000E+03  0.14616E+06
 0.11947000E+03  0.11274E+06
 0.11952000E+03  0.83554E+05
 0.11957000E+03  0.66080E+05
 0.11962000E+03  0.67178E+05
 0.11967000E+03  0.84840E+05
 0.11972000E+03  0.10515E+06
 0.11977000E+03  0.11267E+06
 0.11982000E+03  0.10879E+06
 0.11987000E+03  0.10344E+06
 0.11992000E+03  0.10241E+06
 0.11997000E+03  0.99798E+05
 0.12002000E+03  0.86137E+05
 0.12007000E+03  0.67917E+05
 0.12012000E+03  0.57737E+05
 0.12017000E+03  0.59888E+05
 0.12022000E+03  0.66791E+05
 0.12027000E+03  0.64094E+05
 0.12032000E+03  0.51940E+05
 0.12037000E+03  0.49452E+05
 0.12042000E+03  0.67210E+05
 0.12047000E+03  0.95468E+05
 0.12052000E+03  0.11456E+06
 0.12057000E+03  0.11257E+06
 0.12062000E+03  0.95848E+05
 0.12067000E+03  0.70336E+05
 0.12072000E+03  0.35946E+05
 0.12077000E+03 -0.84180E+04
 0.12082000E+03 -0.64379E+05
 0.12087000E+03 -0.12489E+06
 0.12092000E+03 -0.17906E+06
 0.12097000E+03 -0.22638E+06
 0.12102000E+03 -0.27176E+06
 0.12107000E+03 -0.30852E+06
 0.12112000E+03 -0.32831E+06
 0.12117000E+03 -0.33496E+06
 0.12122000E+03 -0.33480E+06
 0.12127000E+03 -0.33288E+06
 0.12132000E+03 -0.33069E+06
 0.12137000E+03 -0.32144E+06
 0.12142000E+03 -0.30365E+06
 0.12147000E+03 -0.28937E+06
 0.12152000E+03 -0.28578E+06
 0.12157000E+03 -0.29119E+06
 0.12162000E+03 -0.29775E+06
 0.12167000E+03 -0.29108E+06
 0.12172000E+03 -0.26741E+06
 0.12177000E+03 -0.23797E+06
 0.12182000E+03 -0.21776E+06
 0.12187000E+03 -0.21354E+06
 0.12192000E+03 -0.21987E+06
 0.12197000E+03 -0.22866E+06
 0.12202000E+03 -0.23620E+06
 0.12207000E+03 -0.24117E+06
 0.12212000E+03 -0.24296E+06
 0.12217000E+03 -0.24048E+06
 0.12222000E+03 -0.23459E+06
 0.12227000E+03 -0.22483E+06
 0.12232000E+03 -0.20471E+06
 0.12237000E+03 -0.17425E+06
 0.12242000E+03 -0.14123E+06
 0.12247000E+03 -0.11961E+06
 0.12252000E+03 -0.11710E+06
 0.12257000E+03 -0.12741E+06
 0.12262000E+03 -0.14662E+06
 0.12267000E+03 -0.16892E+06
 0.12272000E+03 -0.19035E+06
 0.12277000E+03 -0.21296E+06
 0.12282000E+03 -0.23858E+06
 0.12287000E+03 -0.26365E+06
 0.12292000E+03 -0.27818E+06
 0.12297000E+03 -0.27580E+06
 0.12302000E+03 -0.25506E+06
 0.12307000E+03 -0.22333E+06
 0.12312000E+03 -0.19250E+06
 0.12317000E+03 -0.16993E+06
 0.12322000E+03 -0.15990E+06
 0.12327000E+03 -0.16321E+06
 0.12332000E+03 -0.17001E+06
 0.12337000E+03 -0.16218E+06
 0.12342000E+03 -0.13112E+06
 0.12347000E+03 -0.82940E+05
 0.12352000E+03 -0.31545E+05
 0.12357000E+03  0.12276E+05
 0.12362000E+03  0.47154E+05
 0.12367000E+03  0.81194E+05
 0.12372000E+03  0.11734E+06
 0.12377000E+03  0.14943E+06
 0.12382000E+03  0.17770E+06
 0.12387000E+03  0.19852E+06
 0.12392000E+03  0.20705E+06
 0.12397000E+03  0.20964E+06
 0.12402000E+03  0.21071E+06
 0.12407000E+03  0.21123E+06
 0.12412000E+03  0.21533E+06
 0.12417000E+03  0.22420E+06
 0.12422000E+03  0.23424E+06
 0.12427000E+03  0.24338E+06
 0.12432000E+03  0.24912E+06
 0.12437000E+03  0.24844E+06
 0.12442000E+03  0.24475E+06
 0.12447000E+03  0.24689E+06
 0.12452000E+03  0.25797E+06
 0.12457000E+03  0.26954E+06
 0.12462000E+03  0.27198E+06
 0.12467000E+03  0.26236E+06
 0.12472000E+03  0.24726E+06
 0.12477000E+03  0.23446E+06
 0.12482000E+03  0.22184E+06
 0.12487000E+03  0.20979E+06
 0.12492000E+03  0.19721E+06
 0.12497000E+03  0.17726E+06
 0.12502000E+03  0.15191E+06
 0.12507000E+03  0.12354E+06
 0.12512000E+03  0.92841E+05
 0.12517001E+03  0.66602E+05
 0.12521999E+03  0.41623E+05
 0.12527000E+03  0.96590E+04
 0.12532000E+03 -0.25676E+05
 0.12537000E+03 -0.62230E+05
 0.12542001E+03 -0.92894E+05
 0.12546999E+03 -0.10975E+06
 0.12552000E+03 -0.11308E+06
 0.12557000E+03 -0.10169E+06
 0.12562000E+03 -0.78363E+05
 0.12567001E+03 -0.45410E+05
 0.12571999E+03 -0.11304E+05
 0.12577000E+03  0.17785E+05
 0.12582000E+03  0.44915E+05
 0.12587000E+03  0.66648E+05
 0.12592001E+03  0.75436E+05
 0.12596999E+03  0.66611E+05
 0.12602000E+03  0.47752E+05
 0.12607000E+03  0.34556E+05
 0.12612000E+03  0.36578E+05
 0.12617001E+03  0.45650E+05
 0.12621999E+03  0.49952E+05
 0.12627000E+03  0.44822E+05
 0.12632000E+03  0.27324E+05
 0.12637000E+03  0.88580E+04
 0.12642001E+03 -0.35220E+04
 0.12646999E+03 -0.14031E+05
 0.12652000E+03 -0.18018E+05
 0.12657000E+03 -0.96030E+04
 0.12662000E+03  0.13635E+05
 0.12667001E+03  0.48959E+05
 0.12671999E+03  0.85289E+05
 0.12677000E+03  0.11494E+06
 0.12682000E+03  0.13886E+06
 0.12687000E+03  0.15337E+06
 0.12692001E+03  0.15573E+06
 0.12696999E+03  0.15174E+06
 0.12702000E+03  0.14703E+06
 0.12707000E+03  0.14378E+06
 0.12712000E+03  0.13696E+06
 0.12717001E+03  0.12069E+06
 0.12721999E+03  0.93662E+05
 0.12727000E+03  0.59984E+05
 0.12732000E+03  0.29752E+05
 0.12737000E+03  0.11343E+05
 0.12742001E+03  0.54310E+04
 0.12746999E+03  0.12000E+04
 0.12752000E+03 -0.94650E+04
 0.12757000E+03 -0.19370E+05
 0.12762000E+03 -0.20599E+05
 0.12767001E+03 -0.12108E+05
 0.12771999E+03  0.36400E+03
 0.12777000E+03  0.10420E+05
 0.12782000E+03  0.20174E+05
 0.12787000E+03  0.27722E+05
 0.12792001E+03  0.27886E+05
 0.12796999E+03  0.23272E+05
 0.12802000E+03  0.20656E+05
 0.12807001E+03  0.30037E+05
 0.12812001E+03  0.50968E+05
 0.12817001E+03  0.71249E+05
 0.12822000E+03  0.83277E+05
 0.12827000E+03  0.85757E+05
 0.12832001E+03  0.81485E+05
 0.12837001E+03  0.72223E+05
 0.12842001E+03  0.60568E+05
 0.12847000E+03  0.49184E+05
 0.12852000E+03  0.36843E+05
 0.12857001E+03  0.20490E+05
 0.12862001E+03  0.31500E+03
 0.12867001E+03 -0.16780E+05
 0.12872000E+03 -0.31200E+05
 0.12877000E+03 -0.49751E+05
 0.12882001E+03 -0.76413E+05
 0.12887001E+03 -0.10942E+06
 0.12892001E+03 -0.14077E+06
 0.12897000E+03 -0.16570E+06
 0.12902000E+03 -0.18220E+06
 0.12907001E+03 -0.19060E+06
 0.12912001E+03 -0.19070E+06
 0.12917001E+03 -0.18476E+06
 0.12922000E+03 -0.17968E+06
 0.12927000E+03 -0.17748E+06
 0.12932001E+03 -0.17791E+06
 0.12937001E+03 -0.17750E+06
 0.12942001E+03 -0.17345E+06
 0.12947000E+03 -0.16568E+06
 0.12952000E+03 -0.15187E+06
 0.12957001E+03 -0.13422E+06
 0.12962001E+03 -0.11812E+06
 0.12967001E+03 -0.10647E+06
 0.12972000E+03 -0.95364E+05
 0.12977000E+03 -0.80729E+05
 0.12982001E+03 -0.66456E+05
 0.12987001E+03 -0.60133E+05
 0.12992001E+03 -0.65946E+05
 0.12997000E+03 -0.75876E+05
 0.13002000E+03 -0.82129E+05
 0.13007001E+03 -0.87041E+05
 0.13012001E+03 -0.91901E+05
 0.13017001E+03 -0.91169E+05
 0.13022000E+03 -0.82369E+05
 0.13027000E+03 -0.66223E+05
 0.13032001E+03 -0.40770E+05
 0.13037001E+03 -0.12511E+05
 0.13042001E+03  0.14556E+05
 0.13047000E+03  0.44283E+05
 0.13052000E+03  0.76311E+05
 0.13057001E+03  0.10704E+06
 0.13062001E+03  0.12876E+06
 0.13067001E+03  0.13458E+06
 0.13072000E+03  0.12747E+06
 0.13077000E+03  0.12060E+06
 0.13082001E+03  0.12030E+06
 0.13087001E+03  0.12016E+06
 0.13092001E+03  0.11316E+06
 0.13097000E+03  0.97377E+05
 0.13102000E+03  0.78461E+05
 0.13107001E+03  0.61094E+05
 0.13112001E+03  0.44755E+05
 0.13117001E+03  0.27381E+05
 0.13122000E+03  0.88760E+04
 0.13127000E+03 -0.86060E+04
 0.13132001E+03 -0.20960E+05
 0.13137001E+03 -0.27042E+05
 0.13142001E+03 -0.33416E+05
 0.13147000E+03 -0.42805E+05
 0.13152000E+03 -0.58238E+05
 0.13157001E+03 -0.81565E+05
 0.13162001E+03 -0.10790E+06
 0.13167001E+03 -0.13515E+06
 0.13172000E+03 -0.16269E+06
 0.13177000E+03 -0.19273E+06
 0.13182001E+03 -0.22634E+06
 0.13187001E+03 -0.26139E+06
 0.13192001E+03 -0.29358E+06
 0.13197000E+03 -0.31396E+06
 0.13202000E+03 -0.31811E+06
 0.13207001E+03 -0.31013E+06
 0.13212001E+03 -0.29709E+06
 0.13217001E+03 -0.28490E+06
 0.13222000E+03 -0.27569E+06
 0.13227000E+03 -0.26693E+06
 0.13232001E+03 -0.25603E+06
 0.13237001E+03 -0.24402E+06
 0.13242001E+03 -0.23331E+06
 0.13247000E+03 -0.22675E+06
 0.13252000E+03 -0.22761E+06
 0.13257001E+03 -0.23325E+06
 0.13262001E+03 -0.23562E+06
 0.13267001E+03 -0.23034E+06
 0.13272000E+03 -0.21492E+06
 0.13277000E+03 -0.19255E+06
 0.13282001E+03 -0.17019E+06
 0.13287001E+03 -0.14832E+06
 0.13292001E+03 -0.12884E+06
 0.13297000E+03 -0.11200E+06
 0.13302000E+03 -0.90722E+05
 0.13307001E+03 -0.61182E+05
 0.13312001E+03 -0.27527E+05
 0.13317001E+03  0.31350E+04
 0.13322000E+03  0.24672E+05
 0.13327000E+03  0.33715E+05
 0.13332001E+03  0.36182E+05
 0.13337001E+03  0.37764E+05
 0.13342001E+03  0.35475E+05
 0.13347000E+03  0.30475E+05
 0.13352000E+03  0.26230E+05
 0.13357001E+03  0.25399E+05
 0.13362001E+03  0.28932E+05
 0.13367001E+03  0.31147E+05
 0.13372000E+03  0.29647E+05
 0.13377000E+03  0.28050E+05
 0.13382001E+03  0.34006E+05
 0.13387001E+03  0.51289E+05
 0.13392001E+03  0.71457E+05
 0.13397000E+03  0.85811E+05
 0.13402000E+03  0.89506E+05
 0.13407001E+03  0.82558E+05
 0.13412001E+03  0.73094E+05
 0.13417001E+03  0.63421E+05
 0.13422000E+03  0.50082E+05
 0.13427000E+03  0.36494E+05
 0.13432001E+03  0.24098E+05
 0.13437001E+03  0.84210E+04
 0.13442001E+03 -0.13723E+05
 0.13447000E+03 -0.40294E+05
 0.13452000E+03 -0.62460E+05
 0.13457001E+03 -0.72461E+05
 0.13462001E+03 -0.72900E+05
 0.13467001E+03 -0.75202E+05
 0.13472000E+03 -0.83021E+05
 0.13477000E+03 -0.89760E+05
 0.13482001E+03 -0.89122E+05
 0.13487001E+03 -0.77719E+05
 0.13492001E+03 -0.62096E+05
 0.13497000E+03 -0.50661E+05
 0.13502000E+03 -0.44392E+05
 0.13507001E+03 -0.41487E+05
 0.13512001E+03 -0.36051E+05
 0.13517001E+03 -0.24088E+05
 0.13522000E+03 -0.10739E+05
 0.13527000E+03 -0.28400E+04
 0.13532001E+03  0.74400E+03
 0.13537001E+03  0.45630E+04
 0.13542001E+03  0.75250E+04
 0.13547000E+03  0.42690E+04
 0.13552000E+03 -0.67940E+04
 0.13557001E+03 -0.22446E+05
 0.13562001E+03 -0.35969E+05
 0.13567001E+03 -0.39311E+05
 0.13572000E+03 -0.34600E+05
 0.13577000E+03 -0.25304E+05
 0.13582001E+03 -0.92530E+04
 0.13587001E+03  0.94700E+04
 0.13592001E+03  0.22644E+05
 0.13597000E+03  0.26260E+05
 0.13602000E+03  0.25702E+05
 0.13607001E+03  0.32172E+05
 0.13612001E+03  0.53364E+05
 0.13617001E+03  0.80717E+05
 0.13622000E+03  0.97286E+05
 0.13627000E+03  0.96584E+05
 0.13632001E+03  0.79673E+05
 0.13637001E+03  0.54125E+05
 0.13642001E+03  0.30472E+05
 0.13647000E+03  0.15599E+05
 0.13652000E+03  0.97040E+04
 0.13657001E+03  0.87990E+04
 0.13662001E+03  0.84920E+04
 0.13667001E+03  0.60070E+04
 0.13672000E+03  0.44450E+04
 0.13677000E+03  0.76650E+04
 0.13682001E+03  0.17032E+05
 0.13687001E+03  0.29422E+05
 0.13692001E+03  0.40905E+05
 0.13697000E+03  0.49703E+05
 0.13702000E+03  0.51928E+05
 0.13707001E+03  0.47459E+05
 0.13712001E+03  0.39685E+05
 0.13717001E+03  0.28545E+05
 0.13722000E+03  0.13426E+05
 0.13727000E+03 -0.47730E+04
 0.13732001E+03 -0.26295E+05
 0.13737001E+03 -0.50119E+05
 0.13742001E+03 -0.73555E+05
 0.13747000E+03 -0.93361E+05
 0.13752000E+03 -0.10752E+06
 0.13757001E+03 -0.11631E+06
 0.13762001E+03 -0.11793E+06
 0.13767001E+03 -0.11746E+06
 0.13772000E+03 -0.12409E+06
 0.13777000E+03 -0.13431E+06
 0.13782001E+03 -0.14280E+06
 0.13787001E+03 -0.14778E+06
 0.13792001E+03 -0.14731E+06
 0.13797000E+03 -0.14251E+06
 0.13802000E+03 -0.13432E+06
 0.13807001E+03 -0.12642E+06
 0.13812001E+03 -0.12198E+06
 0.13817001E+03 -0.12196E+06
 0.13822000E+03 -0.12406E+06
 0.13827000E+03 -0.12033E+06
 0.13832001E+03 -0.10709E+06
 0.13837001E+03 -0.86088E+05
 0.13842001E+03 -0.61472E+05
 0.13847000E+03 -0.35921E+05
 0.13852000E+03 -0.69560E+04
 0.13857001E+03  0.27351E+05
 0.13862001E+03  0.65788E+05
 0.13867001E+03  0.10434E+06
 0.13872000E+03  0.13478E+06
 0.13877000E+03  0.15396E+06
 0.13882001E+03  0.16512E+06
 0.13887001E+03  0.17214E+06
 0.13892001E+03  0.17956E+06
 0.13897000E+03  0.18612E+06
 0.13902000E+03  0.18881E+06
 0.13907001E+03  0.18677E+06
 0.13912001E+03  0.18168E+06
 0.13917001E+03  0.17650E+06
 0.13922000E+03  0.16788E+06
 0.13927000E+03  0.15405E+06
 0.13932001E+03  0.13493E+06
 0.13937001E+03  0.10940E+06
 0.13942001E+03  0.82502E+05
 0.13947000E+03  0.58524E+05
 0.13952000E+03  0.40299E+05
 0.13957001E+03  0.33610E+05
 0.13962001E+03  0.39786E+05
 0.13967001E+03  0.52332E+05
 0.13972000E+03  0.62225E+05
 0.13977000E+03  0.65599E+05
 0.13982001E+03  0.65126E+05
 0.13987001E+03  0.63875E+05
 0.13992001E+03  0.62111E+05
 0.13997000E+03  0.60200E+05
 0.14002000E+03  0.59361E+05
 0.14007001E+03  0.62490E+05
 0.14012001E+03  0.70193E+05
 0.14017001E+03  0.78495E+05
 0.14022000E+03  0.86739E+05
 0.14027000E+03  0.94399E+05
 0.14032001E+03  0.98822E+05
 0.14037001E+03  0.99651E+05
 0.14042001E+03  0.96714E+05
 0.14047000E+03  0.90409E+05
 0.14052000E+03  0.82603E+05
 0.14057001E+03  0.74137E+05
 0.14062001E+03  0.66412E+05
 0.14067001E+03  0.62668E+05
 0.14072000E+03  0.64096E+05
 0.14077000E+03  0.65110E+05
 0.14082001E+03  0.58946E+05
 0.14087001E+03  0.47207E+05
 0.14092001E+03  0.35333E+05
 0.14097000E+03  0.29794E+05
 0.14102000E+03  0.31431E+05
 0.14107001E+03  0.32070E+05
 0.14112001E+03  0.26840E+05
 0.14117001E+03  0.18752E+05
 0.14122000E+03  0.14975E+05
 0.14127000E+03  0.19531E+05
 0.14132001E+03  0.31409E+05
 0.14137001E+03  0.44372E+05
 0.14142001E+03  0.52351E+05
 0.14147000E+03  0.54959E+05
 0.14152000E+03  0.50405E+05
 0.14157001E+03  0.37543E+05
 0.14162001E+03  0.16531E+05
 0.14167001E+03 -0.11261E+05
 0.14172000E+03 -0.38817E+05
 0.14177000E+03 -0.59740E+05
 0.14182001E+03 -0.71260E+05
 0.14187001E+03 -0.74304E+05
 0.14192001E+03 -0.74827E+05
 0.14197000E+03 -0.77551E+05
 0.14202000E+03 -0.80332E+05
 0.14207001E+03 -0.81689E+05
 0.14212001E+03 -0.84112E+05
 0.14217001E+03 -0.88445E+05
 0.14222000E+03 -0.95176E+05
 0.14227000E+03 -0.10301E+06
 0.14232001E+03 -0.10924E+06
 0.14237001E+03 -0.11404E+06
 0.14242001E+03 -0.11854E+06
 0.14247000E+03 -0.12120E+06
 0.14252000E+03 -0.12081E+06
 0.14257001E+03 -0.11898E+06
 0.14262001E+03 -0.11519E+06
 0.14267001E+03 -0.10991E+06
 0.14272000E+03 -0.10623E+06
 0.14277000E+03 -0.10312E+06
 0.14282001E+03 -0.98822E+05
 0.14287001E+03 -0.97016E+05
 0.14292001E+03 -0.10180E+06
 0.14297000E+03 -0.11192E+06
 0.14302000E+03 -0.12389E+06
 0.14307001E+03 -0.13164E+06
 0.14312001E+03 -0.12894E+06
 0.14317001E+03 -0.11671E+06
 0.14322000E+03 -0.98039E+05
 0.14327000E+03 -0.75887E+05
 0.14332001E+03 -0.55392E+05
 0.14337001E+03 -0.40146E+05
 0.14342001E+03 -0.30330E+05
 0.14347000E+03 -0.24579E+05
 0.14352000E+03 -0.22784E+05
 0.14357001E+03 -0.25738E+05
 0.14362001E+03 -0.34068E+05
 0.14367001E+03 -0.46605E+05
 0.14372000E+03 -0.60230E+05
 0.14377000E+03 -0.71587E+05
 0.14382001E+03 -0.78612E+05
 0.14387001E+03 -0.84393E+05
 0.14392001E+03 -0.92944E+05
 0.14397000E+03 -0.10230E+06
 0.14402000E+03 -0.10845E+06
 0.14407001E+03 -0.11039E+06
 0.14412001E+03 -0.10722E+06
 0.14417001E+03 -0.98134E+05
 0.14422000E+03 -0.86247E+05
 0.14427000E+03 -0.75603E+05
 0.14432001E+03 -0.69610E+05
 0.14437001E+03 -0.72061E+05
 0.14442001E+03 -0.81206E+05
 0.14447000E+03 -0.88348E+05
 0.14452000E+03 -0.87588E+05
 0.14457001E+03 -0.78272E+05
 0.14462001E+03 -0.65501E+05
 0.14467001E+03 -0.56998E+05
 0.14472000E+03 -0.53086E+05
 0.14477000E+03 -0.50135E+05
 0.14482001E+03 -0.44852E+05
 0.14487001E+03 -0.35129E+05
 0.14492001E+03 -0.22749E+05
 0.14497000E+03 -0.10848E+05
 0.14502000E+03 -0.84100E+03
 0.14507001E+03  0.61440E+04
 0.14512001E+03  0.76870E+04
 0.14517001E+03  0.60380E+04
 0.14522000E+03  0.61600E+04
 0.14527000E+03  0.95690E+04
 0.14532001E+03  0.17393E+05
 0.14537001E+03  0.27143E+05
 0.14542001E+03  0.33794E+05
 0.14547000E+03  0.37929E+05
 0.14552000E+03  0.43595E+05
 0.14557001E+03  0.51485E+05
 0.14562001E+03  0.58970E+05
 0.14567001E+03  0.61462E+05
 0.14572000E+03  0.56343E+05
 0.14577000E+03  0.47889E+05
 0.14582001E+03  0.41459E+05
 0.14587001E+03  0.37549E+05
 0.14592001E+03  0.33418E+05
 0.14597000E+03  0.29062E+05
 0.14602000E+03  0.24750E+05
 0.14607001E+03  0.19682E+05
 0.14612001E+03  0.14562E+05
 0.14617001E+03  0.66130E+04
 0.14622000E+03 -0.38620E+04
 0.14627000E+03 -0.13887E+05
 0.14632001E+03 -0.24871E+05
 0.14637001E+03 -0.38635E+05
 0.14642001E+03 -0.56668E+05
 0.14647000E+03 -0.74086E+05
 0.14652000E+03 -0.84250E+05
 0.14657001E+03 -0.86851E+05
 0.14662001E+03 -0.85994E+05
 0.14667001E+03 -0.85745E+05
 0.14672000E+03 -0.81416E+05
 0.14677000E+03 -0.68253E+05
 0.14682001E+03 -0.46308E+05
 0.14687001E+03 -0.19640E+05
 0.14692001E+03  0.46160E+04
 0.14697000E+03  0.25830E+05
 0.14702000E+03  0.46194E+05
 0.14707001E+03  0.67943E+05
 0.14712001E+03  0.89506E+05
 0.14717001E+03  0.10479E+06
 0.14722000E+03  0.10967E+06
 0.14727000E+03  0.10250E+06
 0.14732001E+03  0.87614E+05
 0.14737001E+03  0.69782E+05
 0.14742001E+03  0.51804E+05
 0.14747000E+03  0.37362E+05
 0.14752000E+03  0.29057E+05
 0.14757001E+03  0.27331E+05
 0.14762001E+03  0.28075E+05
 0.14767001E+03  0.26407E+05
 0.14772000E+03  0.19246E+05
 0.14777000E+03  0.92940E+04
 0.14782001E+03  0.26730E+04
 0.14787001E+03  0.81200E+03
 0.14792001E+03  0.11750E+04
 0.14797000E+03 -0.16740E+04
 0.14802000E+03 -0.10263E+05
 0.14807001E+03 -0.24502E+05
 0.14812001E+03 -0.44832E+05
 0.14817001E+03 -0.68673E+05
 0.14822000E+03 -0.91955E+05
 0.14827000E+03 -0.11150E+06
 0.14832001E+03 -0.12680E+06
 0.14837001E+03 -0.13863E+06
 0.14842001E+03 -0.14712E+06
 0.14847000E+03 -0.15180E+06
 0.14852000E+03 -0.15232E+06
 0.14857001E+03 -0.14996E+06
 0.14862001E+03 -0.14559E+06
 0.14867001E+03 -0.14038E+06
 0.14872000E+03 -0.13654E+06
 0.14877000E+03 -0.13260E+06
 0.14882001E+03 -0.12498E+06
 0.14887001E+03 -0.11239E+06
 0.14892001E+03 -0.96812E+05
 0.14897000E+03 -0.82180E+05
 0.14902000E+03 -0.68230E+05
 0.14907001E+03 -0.53831E+05
 0.14912001E+03 -0.40702E+05
 0.14917001E+03 -0.30153E+05
 0.14922000E+03 -0.24847E+05
 0.14927000E+03 -0.25773E+05
 0.14932001E+03 -0.27807E+05
 0.14937001E+03 -0.23706E+05
 0.14942001E+03 -0.11197E+05
 0.14947000E+03  0.63070E+04
 0.14952000E+03  0.24595E+05
 0.14957001E+03  0.42328E+05
 0.14962001E+03  0.60888E+05
 0.14967001E+03  0.81646E+05
 0.14972000E+03  0.10377E+06
 0.14977000E+03  0.12338E+06
 0.14982001E+03  0.13591E+06
 0.14987001E+03  0.13976E+06
 0.14992001E+03  0.13732E+06
 0.14997000E+03  0.13182E+06
