-0.29800000E+01  0.49549E+05
-0.29300001E+01  0.46265E+05
-0.28800001E+01  0.45083E+05
-0.28299999E+01  0.43220E+05
-0.27800000E+01  0.39249E+05
-0.27300000E+01  0.35760E+05
-0.26800001E+01  0.34700E+05
-0.26300001E+01  0.35813E+05
-0.25799999E+01  0.37129E+05
-0.25300000E+01  0.35787E+05
-0.24800000E+01  0.31142E+05
-0.24300001E+01  0.27317E+05
-0.23800001E+01  0.26790E+05
-0.23299999E+01  0.27027E+05
-0.22800000E+01  0.27539E+05
-0.22300000E+01  0.28034E+05
-0.21800001E+01  0.26203E+05
-0.21300001E+01  0.23542E+05
-0.20799999E+01  0.22140E+05
-0.20300000E+01  0.21099E+05
-0.19800000E+01  0.18505E+05
-0.19299999E+01  0.13981E+05
-0.18800000E+01  0.92610E+04
-0.18300000E+01  0.48740E+04
-0.17800000E+01  0.19510E+04
-0.17300000E+01  0.17710E+04
-0.16799999E+01  0.36570E+04
-0.16300000E+01  0.56750E+04
-0.15800000E+01  0.57380E+04
-0.15300000E+01  0.44230E+04
-0.14800000E+01  0.23710E+04
-0.14299999E+01 -0.20170E+04
-0.13800000E+01 -0.76780E+04
-0.13300000E+01 -0.11904E+05
-0.12800000E+01 -0.16628E+05
-0.12300000E+01 -0.23666E+05
-0.11799999E+01 -0.31228E+05
-0.11300000E+01 -0.38638E+05
-0.10800000E+01 -0.46032E+05
-0.10300000E+01 -0.52765E+05
-0.98000002E+00 -0.58084E+05
-0.93000007E+00 -0.62527E+05
-0.87999988E+00 -0.67918E+05
-0.82999992E+00 -0.73911E+05
-0.77999997E+00 -0.78182E+05
-0.73000002E+00 -0.79869E+05
-0.68000007E+00 -0.80690E+05
-0.62999988E+00 -0.81049E+05
-0.57999992E+00 -0.80526E+05
-0.52999997E+00 -0.79823E+05
-0.48000002E+00 -0.77122E+05
-0.43000007E+00 -0.73597E+05
-0.37999988E+00 -0.71025E+05
-0.32999992E+00 -0.66246E+05
-0.27999997E+00 -0.58425E+05
-0.23000002E+00 -0.49072E+05
-0.18000007E+00 -0.40501E+05
-0.12999988E+00 -0.35049E+05
-0.79999924E-01 -0.32345E+05
-0.29999971E-01 -0.29612E+05
 0.19999981E-01 -0.23899E+05
 0.69999933E-01 -0.16436E+05
 0.12000012E+00 -0.99950E+04
 0.17000008E+00 -0.52330E+04
 0.22000003E+00 -0.38800E+03
 0.26999998E+00  0.59410E+04
 0.31999993E+00  0.10773E+05
 0.37000012E+00  0.11876E+05
 0.42000008E+00  0.10791E+05
 0.47000003E+00  0.10836E+05
 0.51999998E+00  0.12872E+05
 0.56999993E+00  0.15243E+05
 0.62000012E+00  0.17485E+05
 0.67000008E+00  0.20079E+05
 0.72000003E+00  0.24592E+05
 0.76999998E+00  0.30595E+05
 0.81999993E+00  0.36767E+05
 0.87000012E+00  0.42350E+05
 0.92000008E+00  0.46472E+05
 0.97000003E+00  0.49183E+05
 0.10200000E+01  0.50832E+05
 0.10700002E+01  0.53056E+05
 0.11199999E+01  0.55860E+05
 0.11700001E+01  0.57647E+05
 0.12200003E+01  0.56943E+05
 0.12700000E+01  0.53464E+05
 0.13200002E+01  0.48855E+05
 0.13699999E+01  0.43744E+05
 0.14200001E+01  0.38979E+05
 0.14700003E+01  0.35745E+05
 0.15200000E+01  0.33953E+05
 0.15700002E+01  0.32450E+05
 0.16199999E+01  0.31587E+05
 0.16700001E+01  0.32917E+05
 0.17200003E+01  0.35197E+05
 0.17700000E+01  0.35268E+05
 0.18200002E+01  0.32660E+05
 0.18699999E+01  0.29554E+05
 0.19200001E+01  0.26360E+05
 0.19700003E+01  0.24811E+05
 0.20200000E+01  0.26709E+05
 0.20700002E+01  0.28412E+05
 0.21199999E+01  0.27413E+05
 0.21700001E+01  0.24226E+05
 0.22200003E+01  0.20090E+05
 0.22700000E+01  0.17918E+05
 0.23200002E+01  0.19400E+05
 0.23699999E+01  0.21407E+05
 0.24200001E+01  0.19321E+05
 0.24700003E+01  0.15390E+05
 0.25200000E+01  0.12223E+05
 0.25700002E+01  0.91030E+04
 0.26199999E+01  0.64810E+04
 0.26700001E+01  0.37710E+04
 0.27200003E+01  0.13400E+04
 0.27700000E+01 -0.90600E+03
 0.28200002E+01 -0.34830E+04
 0.28699999E+01 -0.55460E+04
 0.29200001E+01 -0.76250E+04
 0.29700003E+01 -0.10446E+05
 0.30200000E+01 -0.13141E+05
 0.30700002E+01 -0.14840E+05
 0.31199999E+01 -0.16442E+05
 0.31700001E+01 -0.17930E+05
 0.32200003E+01 -0.18618E+05
 0.32700000E+01 -0.19723E+05
 0.33200002E+01 -0.22115E+05
 0.33699999E+01 -0.24797E+05
 0.34200001E+01 -0.26293E+05
 0.34700003E+01 -0.26727E+05
 0.35200000E+01 -0.25815E+05
 0.35700002E+01 -0.21982E+05
 0.36199999E+01 -0.16531E+05
 0.36700001E+01 -0.12945E+05
 0.37200003E+01 -0.12207E+05
 0.37700000E+01 -0.12917E+05
 0.38200002E+01 -0.13371E+05
 0.38699999E+01 -0.12351E+05
 0.39200001E+01 -0.96170E+04
 0.39700003E+01 -0.73440E+04
 0.40200000E+01 -0.90820E+04
 0.40700002E+01 -0.13131E+05
 0.41199999E+01 -0.16162E+05
 0.41700001E+01 -0.18587E+05
 0.42200003E+01 -0.20848E+05
 0.42700000E+01 -0.23366E+05
 0.43200002E+01 -0.25403E+05
 0.43699999E+01 -0.26171E+05
 0.44200001E+01 -0.27347E+05
 0.44700003E+01 -0.29817E+05
 0.45200000E+01 -0.32839E+05
 0.45700002E+01 -0.35926E+05
 0.46199999E+01 -0.38032E+05
 0.46700001E+01 -0.38124E+05
 0.47200003E+01 -0.37423E+05
 0.47700000E+01 -0.36487E+05
 0.48200002E+01 -0.35336E+05
 0.48699999E+01 -0.34548E+05
 0.49200001E+01 -0.33245E+05
 0.49700003E+01 -0.30156E+05
 0.50200000E+01 -0.24547E+05
 0.50700002E+01 -0.18468E+05
 0.51200004E+01 -0.15893E+05
 0.51700006E+01 -0.16006E+05
 0.52199998E+01 -0.15124E+05
 0.52700000E+01 -0.13337E+05
 0.53200002E+01 -0.11513E+05
 0.53700004E+01 -0.10048E+05
 0.54200006E+01 -0.10411E+05
 0.54699998E+01 -0.12921E+05
 0.55200000E+01 -0.15941E+05
 0.55700002E+01 -0.16422E+05
 0.56200004E+01 -0.14269E+05
 0.56700006E+01 -0.12551E+05
 0.57199998E+01 -0.11371E+05
 0.57700000E+01 -0.91920E+04
 0.58200002E+01 -0.73740E+04
 0.58700004E+01 -0.79110E+04
 0.59200006E+01 -0.86230E+04
 0.59699998E+01 -0.63820E+04
 0.60200000E+01 -0.15250E+04
 0.60700002E+01  0.40890E+04
 0.61200004E+01  0.79280E+04
 0.61700006E+01  0.10685E+05
 0.62199998E+01  0.14610E+05
 0.62700000E+01  0.18496E+05
 0.63200002E+01  0.21919E+05
 0.63700004E+01  0.24048E+05
 0.64200006E+01  0.22666E+05
 0.64699998E+01  0.19613E+05
 0.65200000E+01  0.18848E+05
 0.65700002E+01  0.21489E+05
 0.66200004E+01  0.26382E+05
 0.66700006E+01  0.30892E+05
 0.67199998E+01  0.32327E+05
 0.67700000E+01  0.30624E+05
 0.68200002E+01  0.27089E+05
 0.68700004E+01  0.22647E+05
 0.69200006E+01  0.18744E+05
 0.69699998E+01  0.15867E+05
 0.70200000E+01  0.12853E+05
 0.70700002E+01  0.93060E+04
 0.71200004E+01  0.54230E+04
 0.71700006E+01  0.23470E+04
 0.72199998E+01  0.39100E+03
 0.72700000E+01 -0.27900E+03
 0.73200002E+01 -0.14000E+03
 0.73700004E+01 -0.20610E+04
 0.74200006E+01 -0.59550E+04
 0.74699998E+01 -0.10425E+05
 0.75200000E+01 -0.14830E+05
 0.75700002E+01 -0.18380E+05
 0.76200004E+01 -0.21186E+05
 0.76700006E+01 -0.23832E+05
 0.77199998E+01 -0.25768E+05
 0.77700000E+01 -0.24328E+05
 0.78200002E+01 -0.19573E+05
 0.78700004E+01 -0.14932E+05
 0.79200006E+01 -0.12079E+05
 0.79699998E+01 -0.10135E+05
 0.80200005E+01 -0.79420E+04
 0.80699997E+01 -0.60350E+04
 0.81200008E+01 -0.40290E+04
 0.81700001E+01 -0.74800E+03
 0.82199993E+01  0.19530E+04
 0.82700005E+01  0.35600E+04
 0.83199997E+01  0.66630E+04
 0.83700008E+01  0.11628E+05
 0.84200001E+01  0.17259E+05
 0.84699993E+01  0.22672E+05
 0.85200005E+01  0.26344E+05
 0.85699997E+01  0.27565E+05
 0.86200008E+01  0.27072E+05
 0.86700001E+01  0.26331E+05
 0.87199993E+01  0.26534E+05
 0.87700005E+01  0.28166E+05
 0.88199997E+01  0.29826E+05
 0.88700008E+01  0.29414E+05
 0.89200001E+01  0.30005E+05
 0.89699993E+01  0.33319E+05
 0.90200005E+01  0.35513E+05
 0.90699997E+01  0.36064E+05
 0.91200008E+01  0.36321E+05
 0.91700001E+01  0.36362E+05
 0.92199993E+01  0.35789E+05
 0.92700005E+01  0.34072E+05
 0.93199997E+01  0.31917E+05
 0.93700008E+01  0.28703E+05
 0.94200001E+01  0.23918E+05
 0.94699993E+01  0.19729E+05
 0.95200005E+01  0.17196E+05
 0.95699997E+01  0.15839E+05
 0.96200008E+01  0.15385E+05
 0.96700001E+01  0.14749E+05
 0.97199993E+01  0.13884E+05
 0.97700005E+01  0.14001E+05
 0.98199997E+01  0.14333E+05
 0.98700008E+01  0.13171E+05
 0.99200001E+01  0.11201E+05
 0.99699993E+01  0.10321E+05
 0.10020000E+02  0.10143E+05
 0.10070000E+02  0.90460E+04
 0.10120001E+02  0.64280E+04
 0.10170000E+02  0.34850E+04
 0.10219999E+02  0.10250E+04
 0.10270000E+02 -0.93300E+03
 0.10320000E+02 -0.18330E+04
 0.10370001E+02 -0.25370E+04
 0.10420000E+02 -0.32750E+04
 0.10469999E+02 -0.31990E+04
 0.10520000E+02 -0.23190E+04
 0.10570000E+02 -0.13850E+04
 0.10620001E+02 -0.44400E+03
 0.10670000E+02  0.98100E+03
 0.10719999E+02  0.17740E+04
 0.10770000E+02  0.13520E+04
 0.10820000E+02 -0.15400E+03
 0.10870001E+02 -0.29120E+04
 0.10920000E+02 -0.60300E+04
 0.10969999E+02 -0.75860E+04
 0.11020000E+02 -0.82640E+04
 0.11070000E+02 -0.10712E+05
 0.11120001E+02 -0.14028E+05
 0.11170000E+02 -0.15943E+05
 0.11219999E+02 -0.16552E+05
 0.11270000E+02 -0.16678E+05
 0.11320000E+02 -0.15993E+05
 0.11370001E+02 -0.14911E+05
 0.11420000E+02 -0.15169E+05
 0.11469999E+02 -0.16582E+05
 0.11520000E+02 -0.17990E+05
 0.11570000E+02 -0.18815E+05
 0.11620001E+02 -0.18419E+05
 0.11670000E+02 -0.16521E+05
 0.11719999E+02 -0.13428E+05
 0.11770000E+02 -0.11692E+05
 0.11820000E+02 -0.12299E+05
 0.11870001E+02 -0.12223E+05
 0.11920000E+02 -0.10947E+05
 0.11969999E+02 -0.10462E+05
 0.12020000E+02 -0.11082E+05
 0.12070000E+02 -0.12422E+05
 0.12120001E+02 -0.14277E+05
 0.12170000E+02 -0.14853E+05
 0.12219999E+02 -0.14281E+05
 0.12270000E+02 -0.14758E+05
 0.12320000E+02 -0.15581E+05
 0.12370001E+02 -0.15870E+05
 0.12420000E+02 -0.16291E+05
 0.12469999E+02 -0.17672E+05
 0.12520000E+02 -0.19183E+05
 0.12570000E+02 -0.19474E+05
 0.12620001E+02 -0.19226E+05
 0.12670000E+02 -0.19812E+05
 0.12719999E+02 -0.21188E+05
 0.12770000E+02 -0.21051E+05
 0.12820000E+02 -0.18653E+05
 0.12870001E+02 -0.15082E+05
 0.12920000E+02 -0.11335E+05
 0.12969999E+02 -0.90600E+04
 0.13020000E+02 -0.88170E+04
 0.13070002E+02 -0.93860E+04
 0.13120001E+02 -0.94990E+04
 0.13170000E+02 -0.96730E+04
 0.13220001E+02 -0.10696E+05
 0.13270000E+02 -0.12077E+05
 0.13320002E+02 -0.13025E+05
 0.13370001E+02 -0.12360E+05
 0.13420000E+02 -0.10272E+05
 0.13470001E+02 -0.99500E+04
 0.13520000E+02 -0.13330E+05
 0.13570002E+02 -0.18951E+05
 0.13620001E+02 -0.23137E+05
 0.13670000E+02 -0.23507E+05
 0.13720001E+02 -0.22948E+05
 0.13770000E+02 -0.23932E+05
 0.13820002E+02 -0.26104E+05
 0.13870001E+02 -0.28311E+05
 0.13920000E+02 -0.29080E+05
 0.13970001E+02 -0.28314E+05
 0.14020000E+02 -0.26261E+05
 0.14070002E+02 -0.24242E+05
 0.14120001E+02 -0.22798E+05
 0.14170000E+02 -0.20816E+05
 0.14220001E+02 -0.18516E+05
 0.14270000E+02 -0.16759E+05
 0.14320002E+02 -0.15094E+05
 0.14370001E+02 -0.12211E+05
 0.14420000E+02 -0.76340E+04
 0.14470001E+02 -0.20680E+04
 0.14520000E+02  0.24770E+04
 0.14570002E+02  0.49320E+04
 0.14620001E+02  0.60980E+04
 0.14670000E+02  0.75210E+04
 0.14720001E+02  0.10227E+05
 0.14770000E+02  0.13889E+05
 0.14820002E+02  0.17643E+05
 0.14870001E+02  0.21124E+05
 0.14920000E+02  0.24957E+05
 0.14970001E+02  0.28280E+05
 0.15020000E+02  0.29788E+05
 0.15070002E+02  0.29994E+05
 0.15120001E+02  0.30079E+05
 0.15170000E+02  0.30335E+05
 0.15220001E+02  0.30599E+05
 0.15270000E+02  0.30747E+05
 0.15320002E+02  0.30385E+05
 0.15370001E+02  0.30498E+05
 0.15420000E+02  0.30601E+05
 0.15470001E+02  0.28979E+05
 0.15520000E+02  0.25661E+05
 0.15570002E+02  0.22062E+05
 0.15620001E+02  0.19036E+05
 0.15670000E+02  0.15677E+05
 0.15720001E+02  0.12307E+05
 0.15770000E+02  0.89580E+04
 0.15820002E+02  0.60180E+04
 0.15870001E+02  0.45530E+04
 0.15920000E+02  0.45250E+04
 0.15970001E+02  0.57290E+04
 0.16020000E+02  0.65210E+04
 0.16070002E+02  0.74210E+04
 0.16120001E+02  0.93270E+04
 0.16170000E+02  0.10733E+05
 0.16220001E+02  0.11008E+05
 0.16270000E+02  0.10937E+05
 0.16320002E+02  0.12040E+05
 0.16370001E+02  0.13142E+05
 0.16420000E+02  0.12506E+05
 0.16470001E+02  0.11070E+05
 0.16520000E+02  0.10529E+05
 0.16570002E+02  0.10173E+05
 0.16620001E+02  0.85010E+04
 0.16670000E+02  0.66820E+04
 0.16720001E+02  0.50200E+04
 0.16770000E+02  0.25240E+04
 0.16820002E+02 -0.16770E+04
 0.16870001E+02 -0.64220E+04
 0.16920000E+02 -0.10261E+05
 0.16970001E+02 -0.13506E+05
 0.17020000E+02 -0.15687E+05
 0.17070002E+02 -0.17013E+05
 0.17120001E+02 -0.18624E+05
 0.17170000E+02 -0.20806E+05
 0.17220001E+02 -0.21969E+05
 0.17270000E+02 -0.21306E+05
 0.17320002E+02 -0.19100E+05
 0.17370001E+02 -0.15984E+05
 0.17420000E+02 -0.12650E+05
 0.17470001E+02 -0.91390E+04
 0.17520000E+02 -0.69440E+04
 0.17570002E+02 -0.61620E+04
 0.17620001E+02 -0.49880E+04
 0.17670000E+02 -0.21420E+04
 0.17720001E+02  0.26740E+04
 0.17770000E+02  0.83740E+04
 0.17820002E+02  0.12973E+05
 0.17870001E+02  0.15412E+05
 0.17920000E+02  0.16520E+05
 0.17970001E+02  0.17379E+05
 0.18020000E+02  0.19023E+05
 0.18070002E+02  0.20471E+05
 0.18120001E+02  0.19384E+05
 0.18170000E+02  0.15568E+05
 0.18220001E+02  0.10773E+05
 0.18270000E+02  0.63430E+04
 0.18320002E+02  0.18920E+04
 0.18370001E+02 -0.21340E+04
 0.18420000E+02 -0.51690E+04
 0.18470001E+02 -0.76940E+04
 0.18520000E+02 -0.92680E+04
 0.18570002E+02 -0.94930E+04
 0.18620001E+02 -0.90140E+04
 0.18670000E+02 -0.84180E+04
 0.18720001E+02 -0.74890E+04
 0.18770000E+02 -0.53050E+04
 0.18820002E+02 -0.20010E+04
 0.18870001E+02  0.94100E+03
 0.18920000E+02  0.38470E+04
 0.18970001E+02  0.77160E+04
 0.19020000E+02  0.12289E+05
 0.19070002E+02  0.16731E+05
 0.19120001E+02  0.20598E+05
 0.19170000E+02  0.24104E+05
 0.19220001E+02  0.26367E+05
 0.19270000E+02  0.27046E+05
 0.19320002E+02  0.27530E+05
 0.19370001E+02  0.28954E+05
 0.19420000E+02  0.30979E+05
 0.19470001E+02  0.32410E+05
 0.19520000E+02  0.33403E+05
 0.19570002E+02  0.34601E+05
 0.19620001E+02  0.35475E+05
 0.19670000E+02  0.35418E+05
 0.19720001E+02  0.34431E+05
 0.19770000E+02  0.32980E+05
 0.19820002E+02  0.31138E+05
 0.19870001E+02  0.29199E+05
 0.19920000E+02  0.27780E+05
 0.19970001E+02  0.25942E+05
 0.20020000E+02  0.23111E+05
 0.20070002E+02  0.19741E+05
 0.20120001E+02  0.15671E+05
 0.20170000E+02  0.11122E+05
 0.20220001E+02  0.65880E+04
 0.20270000E+02  0.24270E+04
 0.20320002E+02 -0.14510E+04
 0.20370001E+02 -0.64460E+04
 0.20420000E+02 -0.12432E+05
 0.20470001E+02 -0.17651E+05
 0.20520000E+02 -0.22840E+05
 0.20570002E+02 -0.28398E+05
 0.20620001E+02 -0.32407E+05
 0.20670000E+02 -0.34364E+05
 0.20720001E+02 -0.35459E+05
 0.20770000E+02 -0.36292E+05
 0.20820002E+02 -0.36456E+05
 0.20870001E+02 -0.36314E+05
 0.20920000E+02 -0.35632E+05
 0.20970001E+02 -0.33132E+05
 0.21020000E+02 -0.29415E+05
 0.21070002E+02 -0.26041E+05
 0.21120001E+02 -0.23695E+05
 0.21170000E+02 -0.21744E+05
 0.21220001E+02 -0.19644E+05
 0.21270000E+02 -0.18333E+05
 0.21320002E+02 -0.18039E+05
 0.21370001E+02 -0.17978E+05
 0.21420000E+02 -0.17776E+05
 0.21470001E+02 -0.17665E+05
 0.21520000E+02 -0.18300E+05
 0.21570002E+02 -0.19568E+05
 0.21620001E+02 -0.20283E+05
 0.21670000E+02 -0.19395E+05
 0.21720001E+02 -0.16918E+05
 0.21770000E+02 -0.13327E+05
 0.21820002E+02 -0.89850E+04
 0.21870001E+02 -0.42940E+04
 0.21920000E+02  0.22900E+03
 0.21970001E+02  0.45050E+04
 0.22020000E+02  0.89470E+04
 0.22070002E+02  0.13478E+05
 0.22120001E+02  0.17721E+05
 0.22170000E+02  0.20550E+05
 0.22220001E+02  0.22122E+05
 0.22270000E+02  0.24172E+05
 0.22320002E+02  0.25970E+05
 0.22370001E+02  0.26753E+05
 0.22420000E+02  0.26676E+05
 0.22470001E+02  0.25691E+05
 0.22520000E+02  0.24834E+05
 0.22570002E+02  0.24137E+05
 0.22620001E+02  0.23051E+05
 0.22670000E+02  0.21280E+05
 0.22720001E+02  0.19121E+05
 0.22770000E+02  0.17454E+05
 0.22820002E+02  0.16187E+05
 0.22870001E+02  0.15053E+05
 0.22920000E+02  0.13657E+05
 0.22970001E+02  0.12672E+05
 0.23020000E+02  0.12547E+05
 0.23070002E+02  0.11222E+05
 0.23120001E+02  0.74470E+04
 0.23170000E+02  0.17980E+04
 0.23220001E+02 -0.38780E+04
 0.23270000E+02 -0.73140E+04
 0.23320002E+02 -0.83400E+04
 0.23370001E+02 -0.80840E+04
 0.23420000E+02 -0.76770E+04
 0.23470001E+02 -0.83770E+04
 0.23520000E+02 -0.11419E+05
 0.23570002E+02 -0.16422E+05
 0.23620001E+02 -0.21104E+05
 0.23670000E+02 -0.24484E+05
 0.23720001E+02 -0.27435E+05
 0.23770000E+02 -0.30712E+05
 0.23820002E+02 -0.34518E+05
 0.23870001E+02 -0.38476E+05
 0.23920000E+02 -0.41326E+05
 0.23970001E+02 -0.42095E+05
 0.24020000E+02 -0.41520E+05
 0.24070002E+02 -0.40438E+05
 0.24120001E+02 -0.38226E+05
 0.24170000E+02 -0.34857E+05
 0.24220001E+02 -0.31281E+05
 0.24270000E+02 -0.27793E+05
 0.24320002E+02 -0.24508E+05
 0.24370001E+02 -0.21483E+05
 0.24420000E+02 -0.18368E+05
 0.24470001E+02 -0.15079E+05
 0.24520000E+02 -0.12041E+05
 0.24570002E+02 -0.92600E+04
 0.24620001E+02 -0.60190E+04
 0.24670000E+02 -0.22730E+04
 0.24720001E+02  0.32600E+03
 0.24770000E+02  0.15750E+04
 0.24820002E+02  0.31600E+04
 0.24870001E+02  0.48520E+04
 0.24920000E+02  0.61360E+04
 0.24970001E+02  0.72970E+04
 0.25020000E+02  0.83520E+04
 0.25070002E+02  0.93910E+04
 0.25120001E+02  0.11083E+05
 0.25170000E+02  0.13346E+05
 0.25220001E+02  0.14728E+05
 0.25270000E+02  0.14684E+05
 0.25320002E+02  0.13583E+05
 0.25370001E+02  0.11922E+05
 0.25420000E+02  0.98680E+04
 0.25470001E+02  0.79710E+04
 0.25520000E+02  0.70530E+04
 0.25570002E+02  0.69420E+04
 0.25620001E+02  0.74440E+04
 0.25670000E+02  0.86280E+04
 0.25720001E+02  0.94720E+04
 0.25770000E+02  0.90460E+04
 0.25820002E+02  0.75450E+04
 0.25870001E+02  0.49560E+04
 0.25920000E+02  0.21090E+04
 0.25970001E+02  0.91500E+03
 0.26020000E+02  0.24920E+04
 0.26070002E+02  0.60200E+04
 0.26120001E+02  0.96990E+04
 0.26170000E+02  0.12062E+05
 0.26220001E+02  0.13037E+05
 0.26270000E+02  0.14084E+05
 0.26320002E+02  0.16068E+05
 0.26370001E+02  0.18638E+05
 0.26420000E+02  0.21471E+05
 0.26470001E+02  0.24661E+05
 0.26520000E+02  0.27432E+05
 0.26570002E+02  0.29018E+05
 0.26620001E+02  0.29647E+05
 0.26670000E+02  0.30135E+05
 0.26720001E+02  0.30548E+05
 0.26770000E+02  0.29759E+05
 0.26820002E+02  0.28168E+05
 0.26870001E+02  0.26347E+05
 0.26920000E+02  0.24328E+05
 0.26970001E+02  0.22399E+05
 0.27020000E+02  0.20064E+05
 0.27070002E+02  0.16994E+05
 0.27120001E+02  0.13205E+05
 0.27170000E+02  0.87020E+04
 0.27220001E+02  0.33900E+04
 0.27270000E+02 -0.25860E+04
 0.27320002E+02 -0.86770E+04
 0.27370001E+02 -0.14505E+05
 0.27420000E+02 -0.19287E+05
 0.27470001E+02 -0.22310E+05
 0.27520000E+02 -0.23697E+05
 0.27570002E+02 -0.22398E+05
 0.27620001E+02 -0.18007E+05
 0.27670000E+02 -0.13073E+05
 0.27720001E+02 -0.93520E+04
 0.27770000E+02 -0.64590E+04
 0.27820002E+02 -0.38800E+04
 0.27870001E+02 -0.18060E+04
 0.27920000E+02  0.39000E+02
 0.27970001E+02  0.21760E+04
 0.28020000E+02  0.46810E+04
 0.28070002E+02  0.67450E+04
 0.28120001E+02  0.75270E+04
 0.28170000E+02  0.82580E+04
 0.28220001E+02  0.93890E+04
 0.28270000E+02  0.10723E+05
 0.28320002E+02  0.11801E+05
 0.28370001E+02  0.11879E+05
 0.28420000E+02  0.10952E+05
 0.28470001E+02  0.89050E+04
 0.28520000E+02  0.68060E+04
 0.28570002E+02  0.47620E+04
 0.28620001E+02  0.26520E+04
 0.28670000E+02  0.13190E+04
 0.28720001E+02  0.13640E+04
 0.28770000E+02  0.21450E+04
 0.28820002E+02  0.19370E+04
 0.28870001E+02  0.81300E+03
 0.28920000E+02 -0.96400E+03
 0.28970001E+02 -0.25700E+04
 0.29020000E+02 -0.22300E+04
 0.29070000E+02  0.30100E+03
 0.29120003E+02  0.39420E+04
 0.29170002E+02  0.77260E+04
 0.29220001E+02  0.11045E+05
 0.29270000E+02  0.13044E+05
 0.29320000E+02  0.13652E+05
 0.29370003E+02  0.13736E+05
 0.29420002E+02  0.13963E+05
 0.29470001E+02  0.14278E+05
 0.29520000E+02  0.14322E+05
 0.29570000E+02  0.14059E+05
 0.29620003E+02  0.13181E+05
 0.29670002E+02  0.11848E+05
 0.29720001E+02  0.11069E+05
 0.29770000E+02  0.11113E+05
 0.29820000E+02  0.11684E+05
 0.29870003E+02  0.12176E+05
 0.29920002E+02  0.12606E+05
 0.29970001E+02  0.13444E+05
 0.30020000E+02  0.14335E+05
 0.30070000E+02  0.15258E+05
 0.30120003E+02  0.16696E+05
 0.30170002E+02  0.18170E+05
 0.30220001E+02  0.18168E+05
 0.30270000E+02  0.16711E+05
 0.30320000E+02  0.15259E+05
 0.30370003E+02  0.14436E+05
 0.30420002E+02  0.13750E+05
 0.30470001E+02  0.12850E+05
 0.30520000E+02  0.11850E+05
 0.30570000E+02  0.99520E+04
 0.30620003E+02  0.64560E+04
 0.30670002E+02  0.21530E+04
 0.30720001E+02 -0.16910E+04
 0.30770000E+02 -0.46180E+04
 0.30820000E+02 -0.70420E+04
 0.30870003E+02 -0.94840E+04
 0.30920002E+02 -0.11409E+05
 0.30970001E+02 -0.12166E+05
 0.31020000E+02 -0.12519E+05
 0.31070000E+02 -0.13017E+05
 0.31120003E+02 -0.13449E+05
 0.31170002E+02 -0.13914E+05
 0.31220001E+02 -0.14618E+05
 0.31270000E+02 -0.15215E+05
 0.31320000E+02 -0.16254E+05
 0.31370003E+02 -0.18488E+05
 0.31420002E+02 -0.20400E+05
 0.31470001E+02 -0.21308E+05
 0.31520000E+02 -0.21784E+05
 0.31570000E+02 -0.22244E+05
 0.31620003E+02 -0.23561E+05
 0.31670002E+02 -0.26025E+05
 0.31720001E+02 -0.29852E+05
 0.31770000E+02 -0.34109E+05
 0.31820000E+02 -0.37920E+05
 0.31870003E+02 -0.41071E+05
 0.31920002E+02 -0.42714E+05
 0.31970001E+02 -0.43429E+05
 0.32020000E+02 -0.43932E+05
 0.32070000E+02 -0.44690E+05
 0.32120003E+02 -0.45843E+05
 0.32170002E+02 -0.46618E+05
 0.32220001E+02 -0.46460E+05
 0.32270000E+02 -0.45331E+05
 0.32320000E+02 -0.43317E+05
 0.32370003E+02 -0.40203E+05
 0.32420002E+02 -0.36554E+05
 0.32470001E+02 -0.32649E+05
 0.32520000E+02 -0.28965E+05
 0.32570000E+02 -0.26488E+05
 0.32620003E+02 -0.25128E+05
 0.32670002E+02 -0.24072E+05
 0.32720001E+02 -0.21976E+05
 0.32770000E+02 -0.19021E+05
 0.32820000E+02 -0.16138E+05
 0.32870003E+02 -0.13860E+05
 0.32920002E+02 -0.12682E+05
 0.32970001E+02 -0.11893E+05
 0.33020000E+02 -0.10978E+05
 0.33070000E+02 -0.95870E+04
 0.33120003E+02 -0.74010E+04
 0.33170002E+02 -0.45390E+04
 0.33220001E+02 -0.10950E+04
 0.33270000E+02  0.20630E+04
 0.33320000E+02  0.37930E+04
 0.33370003E+02  0.42720E+04
 0.33420002E+02  0.49350E+04
 0.33470001E+02  0.69780E+04
 0.33520000E+02  0.97840E+04
 0.33570000E+02  0.12104E+05
 0.33620003E+02  0.14115E+05
 0.33670002E+02  0.15742E+05
 0.33720001E+02  0.16101E+05
 0.33770000E+02  0.15064E+05
 0.33820000E+02  0.13732E+05
 0.33870003E+02  0.13178E+05
 0.33920002E+02  0.13635E+05
 0.33970001E+02  0.14549E+05
 0.34020000E+02  0.14522E+05
 0.34070000E+02  0.13127E+05
 0.34120003E+02  0.11192E+05
 0.34170002E+02  0.94040E+04
 0.34220001E+02  0.78350E+04
 0.34270000E+02  0.64190E+04
 0.34320000E+02  0.48500E+04
 0.34370003E+02  0.24660E+04
 0.34420002E+02  0.24800E+03
 0.34470001E+02 -0.38600E+03
 0.34520000E+02 -0.23000E+03
 0.34570000E+02 -0.66000E+02
 0.34620003E+02 -0.13300E+03
 0.34670002E+02 -0.86000E+03
 0.34720001E+02 -0.15900E+04
 0.34770000E+02 -0.13910E+04
 0.34820000E+02 -0.13100E+03
 0.34870003E+02  0.15750E+04
 0.34920002E+02  0.32870E+04
 0.34970001E+02  0.43930E+04
 0.35020000E+02  0.42700E+04
 0.35070000E+02  0.37740E+04
 0.35120003E+02  0.34000E+04
 0.35170002E+02  0.34370E+04
 0.35220001E+02  0.44190E+04
 0.35270000E+02  0.58540E+04
 0.35320000E+02  0.75150E+04
 0.35370003E+02  0.87270E+04
 0.35420002E+02  0.88420E+04
 0.35470001E+02  0.76580E+04
 0.35520000E+02  0.51280E+04
 0.35570000E+02  0.24510E+04
 0.35620003E+02  0.31500E+03
 0.35670002E+02 -0.11730E+04
 0.35720001E+02 -0.17220E+04
 0.35770000E+02 -0.88200E+03
 0.35820000E+02  0.13130E+04
 0.35870003E+02  0.31740E+04
 0.35920002E+02  0.40570E+04
 0.35970001E+02  0.49840E+04
 0.36020000E+02  0.61440E+04
 0.36070000E+02  0.71790E+04
 0.36120003E+02  0.76700E+04
 0.36170002E+02  0.88130E+04
 0.36220001E+02  0.11629E+05
 0.36270000E+02  0.14398E+05
 0.36320000E+02  0.16397E+05
 0.36370003E+02  0.18158E+05
 0.36420002E+02  0.19961E+05
 0.36470001E+02  0.21823E+05
 0.36520000E+02  0.23280E+05
 0.36570000E+02  0.24748E+05
 0.36620003E+02  0.26446E+05
 0.36670002E+02  0.27239E+05
 0.36720001E+02  0.26703E+05
 0.36770000E+02  0.25409E+05
 0.36820000E+02  0.24038E+05
 0.36870003E+02  0.22254E+05
 0.36920002E+02  0.19510E+05
 0.36970001E+02  0.17054E+05
 0.37020000E+02  0.16067E+05
 0.37070000E+02  0.16095E+05
 0.37120003E+02  0.16490E+05
 0.37170002E+02  0.17495E+05
 0.37220001E+02  0.18902E+05
 0.37270000E+02  0.20216E+05
 0.37320000E+02  0.21210E+05
 0.37370003E+02  0.22105E+05
 0.37420002E+02  0.23063E+05
 0.37470001E+02  0.23367E+05
 0.37520000E+02  0.22902E+05
 0.37570000E+02  0.22426E+05
 0.37620003E+02  0.22832E+05
 0.37670002E+02  0.23785E+05
 0.37720001E+02  0.24015E+05
 0.37770000E+02  0.23090E+05
 0.37820000E+02  0.21448E+05
 0.37870003E+02  0.19929E+05
 0.37920002E+02  0.18991E+05
 0.37970001E+02  0.17462E+05
 0.38020000E+02  0.14082E+05
 0.38070000E+02  0.94200E+04
 0.38120003E+02  0.51640E+04
 0.38170002E+02  0.23470E+04
 0.38220001E+02  0.19700E+03
 0.38270000E+02 -0.25180E+04
 0.38320000E+02 -0.58290E+04
 0.38370003E+02 -0.91090E+04
 0.38420002E+02 -0.11957E+05
 0.38470001E+02 -0.13996E+05
 0.38520000E+02 -0.15296E+05
 0.38570000E+02 -0.15178E+05
 0.38620003E+02 -0.13215E+05
 0.38670002E+02 -0.10764E+05
 0.38720001E+02 -0.89440E+04
 0.38770000E+02 -0.73980E+04
 0.38820000E+02 -0.47390E+04
 0.38870003E+02 -0.12490E+04
 0.38920002E+02  0.18640E+04
 0.38970001E+02  0.43170E+04
 0.39020000E+02  0.65870E+04
 0.39070000E+02  0.90640E+04
 0.39120003E+02  0.10583E+05
 0.39170002E+02  0.10978E+05
 0.39220001E+02  0.11213E+05
 0.39270000E+02  0.11121E+05
 0.39320000E+02  0.10251E+05
 0.39370003E+02  0.89980E+04
 0.39420002E+02  0.78520E+04
 0.39470001E+02  0.61840E+04
 0.39520000E+02  0.41340E+04
 0.39570000E+02  0.22570E+04
 0.39620003E+02  0.56800E+03
 0.39670002E+02 -0.78000E+03
 0.39720001E+02 -0.20190E+04
 0.39770000E+02 -0.32800E+04
 0.39820000E+02 -0.47890E+04
 0.39870003E+02 -0.65510E+04
 0.39920002E+02 -0.83160E+04
 0.39970001E+02 -0.96750E+04
 0.40020000E+02 -0.10607E+05
 0.40070000E+02 -0.11983E+05
 0.40120003E+02 -0.13880E+05
 0.40170002E+02 -0.16272E+05
 0.40220001E+02 -0.19458E+05
 0.40270000E+02 -0.23271E+05
 0.40320000E+02 -0.26537E+05
 0.40370003E+02 -0.27747E+05
 0.40420002E+02 -0.27167E+05
 0.40470001E+02 -0.26024E+05
 0.40520000E+02 -0.25503E+05
 0.40570000E+02 -0.25757E+05
 0.40620003E+02 -0.25582E+05
 0.40670002E+02 -0.24859E+05
 0.40720001E+02 -0.23982E+05
 0.40770000E+02 -0.22631E+05
 0.40820000E+02 -0.20958E+05
 0.40870003E+02 -0.19267E+05
 0.40920002E+02 -0.17592E+05
 0.40970001E+02 -0.15814E+05
 0.41020000E+02 -0.14135E+05
 0.41070000E+02 -0.13320E+05
 0.41120003E+02 -0.13575E+05
 0.41170002E+02 -0.13928E+05
 0.41220001E+02 -0.13466E+05
 0.41270000E+02 -0.12387E+05
 0.41320000E+02 -0.11525E+05
 0.41370003E+02 -0.11839E+05
 0.41420002E+02 -0.13152E+05
 0.41470001E+02 -0.14686E+05
 0.41520000E+02 -0.15961E+05
 0.41570000E+02 -0.16267E+05
 0.41620003E+02 -0.15766E+05
 0.41670002E+02 -0.15086E+05
 0.41720001E+02 -0.14206E+05
 0.41770000E+02 -0.13208E+05
 0.41820000E+02 -0.12995E+05
 0.41870003E+02 -0.14479E+05
 0.41920002E+02 -0.16409E+05
 0.41970001E+02 -0.17587E+05
 0.42020000E+02 -0.18313E+05
 0.42070000E+02 -0.18045E+05
 0.42120003E+02 -0.17514E+05
 0.42170002E+02 -0.17408E+05
 0.42220001E+02 -0.17683E+05
 0.42270000E+02 -0.18933E+05
 0.42320000E+02 -0.20494E+05
 0.42370003E+02 -0.22462E+05
 0.42420002E+02 -0.24644E+05
 0.42470001E+02 -0.26104E+05
 0.42520000E+02 -0.26753E+05
 0.42570000E+02 -0.26908E+05
 0.42620003E+02 -0.26663E+05
 0.42670002E+02 -0.25435E+05
 0.42720001E+02 -0.23788E+05
 0.42770000E+02 -0.21708E+05
 0.42820000E+02 -0.18640E+05
 0.42870003E+02 -0.14590E+05
 0.42920002E+02 -0.93550E+04
 0.42970001E+02 -0.28750E+04
 0.43020000E+02  0.43670E+04
 0.43070000E+02  0.94550E+04
 0.43120003E+02  0.11751E+05
 0.43170002E+02  0.13276E+05
 0.43220001E+02  0.16126E+05
 0.43270000E+02  0.19932E+05
 0.43320000E+02  0.22210E+05
 0.43370003E+02  0.23581E+05
 0.43420002E+02  0.26016E+05
 0.43470001E+02  0.31089E+05
 0.43520000E+02  0.33956E+05
 0.43570000E+02  0.34776E+05
 0.43620003E+02  0.35428E+05
 0.43670002E+02  0.36626E+05
 0.43720001E+02  0.37777E+05
 0.43770000E+02  0.31078E+05
 0.43820000E+02  0.23070E+05
 0.43870003E+02  0.19432E+05
 0.43920002E+02  0.18336E+05
 0.43970001E+02  0.20857E+05
 0.44020000E+02  0.20712E+05
 0.44070000E+02  0.20129E+05
 0.44120003E+02  0.32748E+05
 0.44170002E+02  0.37841E+05
 0.44220001E+02  0.25700E+05
 0.44270000E+02  0.21085E+05
 0.44320000E+02  0.19543E+05
 0.44370003E+02  0.55270E+04
 0.44420002E+02 -0.32000E+04
 0.44470001E+02 -0.85860E+04
 0.44520000E+02 -0.26084E+05
 0.44570000E+02 -0.29873E+05
 0.44620003E+02 -0.29475E+05
 0.44670002E+02 -0.29235E+05
 0.44720001E+02 -0.35783E+05
 0.44770000E+02 -0.34501E+05
 0.44820000E+02 -0.22468E+05
 0.44870003E+02 -0.31486E+05
 0.44920002E+02 -0.23588E+05
 0.44970001E+02 -0.13085E+05
 0.45020000E+02 -0.11384E+05
 0.45070000E+02 -0.19632E+05
 0.45120003E+02 -0.11495E+05
 0.45170002E+02  0.22840E+04
 0.45220001E+02 -0.20537E+05
 0.45270000E+02 -0.11151E+05
 0.45320000E+02 -0.35940E+04
 0.45370003E+02 -0.12450E+05
 0.45420002E+02  0.57830E+04
 0.45470001E+02  0.14158E+05
 0.45520000E+02  0.10690E+05
 0.45570000E+02  0.17938E+05
 0.45620003E+02  0.22183E+05
 0.45670002E+02  0.20977E+05
 0.45720001E+02  0.15305E+05
 0.45770000E+02  0.14845E+05
 0.45820000E+02  0.36746E+05
 0.45870003E+02  0.36161E+05
 0.45920002E+02  0.15899E+05
 0.45970001E+02  0.43540E+04
 0.46020000E+02  0.38620E+04
 0.46070000E+02  0.23230E+04
 0.46120003E+02 -0.48990E+04
 0.46170002E+02 -0.21750E+04
 0.46220001E+02  0.16540E+04
 0.46270000E+02 -0.40890E+04
 0.46320000E+02 -0.14042E+05
 0.46370003E+02 -0.92860E+04
 0.46420002E+02 -0.11470E+05
 0.46470001E+02 -0.66940E+04
 0.46520000E+02  0.59080E+04
 0.46570000E+02 -0.11630E+04
 0.46620003E+02 -0.11100E+04
 0.46670002E+02  0.55490E+04
 0.46720001E+02  0.10988E+05
 0.46770000E+02  0.74030E+04
 0.46820000E+02 -0.33190E+04
 0.46870003E+02 -0.22760E+04
 0.46920002E+02 -0.10810E+04
 0.46970001E+02 -0.14864E+05
 0.47020000E+02 -0.22055E+05
 0.47070000E+02 -0.23254E+05
 0.47120003E+02 -0.26680E+05
 0.47170002E+02 -0.18888E+05
 0.47220001E+02 -0.24059E+05
 0.47270000E+02 -0.29271E+05
 0.47320000E+02 -0.25644E+05
 0.47370003E+02 -0.38773E+05
 0.47420002E+02 -0.34774E+05
 0.47470001E+02 -0.29063E+05
 0.47520000E+02 -0.33064E+05
 0.47570000E+02 -0.17226E+05
 0.47620003E+02 -0.15400E+05
 0.47670002E+02 -0.21635E+05
 0.47720001E+02 -0.27667E+05
 0.47770000E+02 -0.41972E+05
 0.47820000E+02 -0.44012E+05
 0.47870003E+02 -0.29728E+05
 0.47920002E+02 -0.11661E+05
 0.47970001E+02 -0.75030E+04
 0.48020000E+02 -0.64220E+04
 0.48070000E+02 -0.63360E+04
 0.48120003E+02 -0.52890E+04
 0.48170002E+02 -0.86200E+03
 0.48220001E+02  0.55520E+04
 0.48270000E+02  0.65390E+04
 0.48320000E+02 -0.43210E+04
 0.48370003E+02  0.25040E+04
 0.48420002E+02  0.71700E+03
 0.48470001E+02 -0.27349E+05
 0.48520000E+02 -0.44249E+05
 0.48570000E+02 -0.42176E+05
 0.48620003E+02 -0.46598E+05
 0.48670002E+02 -0.54647E+05
 0.48720001E+02 -0.47400E+05
 0.48770000E+02 -0.62748E+05
 0.48820000E+02 -0.69240E+05
 0.48870003E+02 -0.49231E+05
 0.48920002E+02 -0.53003E+05
 0.48970001E+02 -0.50401E+05
 0.49020000E+02 -0.50937E+05
 0.49070000E+02 -0.61344E+05
 0.49120003E+02 -0.58121E+05
 0.49170002E+02 -0.59235E+05
 0.49220001E+02 -0.60615E+05
 0.49270000E+02 -0.51653E+05
 0.49320000E+02 -0.50523E+05
 0.49370003E+02 -0.76313E+05
 0.49420002E+02 -0.81622E+05
 0.49470001E+02 -0.80484E+05
 0.49520000E+02 -0.11400E+06
 0.49570000E+02 -0.11934E+06
 0.49620003E+02 -0.10326E+06
 0.49670002E+02 -0.10318E+06
 0.49720001E+02 -0.10437E+06
 0.49770000E+02 -0.12665E+06
 0.49820000E+02 -0.14491E+06
 0.49870003E+02 -0.12757E+06
 0.49920002E+02 -0.11368E+06
 0.49970001E+02 -0.11436E+06
 0.50020000E+02 -0.10815E+06
 0.50070000E+02 -0.10834E+06
 0.50120003E+02 -0.11717E+06
 0.50170002E+02 -0.10659E+06
 0.50220001E+02 -0.10243E+06
 0.50270000E+02 -0.93317E+05
 0.50320000E+02 -0.82713E+05
 0.50370003E+02 -0.87154E+05
 0.50420002E+02 -0.67833E+05
 0.50470001E+02 -0.60014E+05
 0.50520000E+02 -0.67310E+05
 0.50570000E+02 -0.69839E+05
 0.50620003E+02 -0.65990E+05
 0.50670002E+02 -0.57472E+05
 0.50720001E+02 -0.48719E+05
 0.50770000E+02 -0.40138E+05
 0.50820000E+02 -0.65847E+05
 0.50870003E+02 -0.91930E+05
 0.50920002E+02 -0.82267E+05
 0.50970001E+02 -0.55683E+05
 0.51020000E+02 -0.55010E+05
 0.51070000E+02 -0.76338E+05
 0.51120003E+02 -0.78015E+05
 0.51170002E+02 -0.68407E+05
 0.51220001E+02 -0.42299E+05
 0.51270000E+02 -0.51929E+05
 0.51320000E+02 -0.62201E+05
 0.51370003E+02 -0.21246E+05
 0.51420002E+02 -0.18200E+05
 0.51470001E+02 -0.23047E+05
 0.51520000E+02 -0.21938E+05
 0.51570000E+02 -0.23937E+05
 0.51620003E+02 -0.51560E+04
 0.51670002E+02  0.25880E+04
 0.51720001E+02  0.12376E+05
 0.51770000E+02  0.20775E+05
 0.51820000E+02  0.31444E+05
 0.51870003E+02  0.34651E+05
 0.51920002E+02  0.17515E+05
 0.51970001E+02  0.32620E+04
 0.52020000E+02 -0.15600E+04
 0.52070000E+02 -0.44510E+04
 0.52120003E+02 -0.51592E+05
 0.52170002E+02 -0.85028E+05
 0.52220001E+02 -0.67027E+05
 0.52270000E+02 -0.70603E+05
 0.52320000E+02 -0.67092E+05
 0.52370003E+02 -0.38117E+05
 0.52420002E+02 -0.10467E+05
 0.52470001E+02  0.10746E+05
 0.52520000E+02  0.14526E+05
 0.52570000E+02  0.35696E+05
 0.52620003E+02  0.55511E+05
 0.52670002E+02  0.49581E+05
 0.52720001E+02  0.68230E+05
 0.52770000E+02  0.94857E+05
 0.52820000E+02  0.86983E+05
 0.52870003E+02  0.62615E+05
 0.52920002E+02  0.55707E+05
 0.52970001E+02  0.43889E+05
 0.53020000E+02  0.28195E+05
 0.53070000E+02  0.27998E+05
 0.53120003E+02  0.96090E+04
 0.53170002E+02 -0.19742E+05
 0.53220001E+02 -0.13777E+05
 0.53270000E+02  0.31929E+05
 0.53320000E+02  0.63045E+05
 0.53370003E+02  0.53272E+05
 0.53420002E+02  0.70902E+05
 0.53470001E+02  0.12951E+06
 0.53520000E+02  0.13373E+06
 0.53570000E+02  0.89035E+05
 0.53620003E+02  0.56524E+05
 0.53670002E+02  0.88360E+04
 0.53720001E+02 -0.43845E+05
 0.53770000E+02 -0.45019E+05
 0.53820000E+02 -0.37573E+05
 0.53870003E+02 -0.40328E+05
 0.53920002E+02 -0.29696E+05
 0.53970001E+02 -0.33311E+05
 0.54020000E+02 -0.35643E+05
 0.54070000E+02 -0.27682E+05
 0.54120003E+02 -0.15890E+04
 0.54170002E+02  0.39184E+05
 0.54220001E+02  0.46456E+05
 0.54270000E+02  0.13281E+05
 0.54320000E+02 -0.88120E+04
 0.54370003E+02  0.40410E+04
 0.54420002E+02  0.21050E+05
 0.54470001E+02  0.47136E+05
 0.54520000E+02  0.91045E+05
 0.54570000E+02  0.11536E+06
 0.54620003E+02  0.89888E+05
 0.54670002E+02  0.81436E+05
 0.54720001E+02  0.11191E+06
 0.54770000E+02  0.12207E+06
 0.54820000E+02  0.14561E+06
 0.54870003E+02  0.15098E+06
 0.54920002E+02  0.96855E+05
 0.54970001E+02  0.59454E+05
 0.55020000E+02  0.54417E+05
 0.55070000E+02  0.52982E+05
 0.55120003E+02  0.48891E+05
 0.55170002E+02  0.60984E+05
 0.55220001E+02  0.97835E+05
 0.55270000E+02  0.12455E+06
 0.55320000E+02  0.14765E+06
 0.55370003E+02  0.16734E+06
 0.55420002E+02  0.15975E+06
 0.55470001E+02  0.15593E+06
 0.55520000E+02  0.14788E+06
 0.55570000E+02  0.11497E+06
 0.55620003E+02  0.86500E+05
 0.55670002E+02  0.65514E+05
 0.55720001E+02  0.65501E+05
 0.55770000E+02  0.78707E+05
 0.55820000E+02  0.64068E+05
 0.55870003E+02  0.49515E+05
 0.55920002E+02  0.41374E+05
 0.55970001E+02  0.46799E+05
 0.56020000E+02  0.43976E+05
 0.56070000E+02 -0.88720E+04
 0.56120003E+02  0.35280E+04
 0.56170002E+02  0.40335E+05
 0.56220001E+02 -0.26380E+05
 0.56270000E+02 -0.98731E+05
 0.56320000E+02 -0.11182E+06
 0.56370003E+02 -0.12101E+06
 0.56420002E+02 -0.15015E+06
 0.56470001E+02 -0.18272E+06
 0.56520000E+02 -0.21011E+06
 0.56570000E+02 -0.23181E+06
 0.56620003E+02 -0.21626E+06
 0.56670002E+02 -0.16888E+06
 0.56720001E+02 -0.15156E+06
 0.56770000E+02 -0.10915E+06
 0.56820000E+02 -0.52900E+05
 0.56870003E+02 -0.31721E+05
 0.56920002E+02  0.40669E+05
 0.56970001E+02  0.12457E+06
 0.57020000E+02  0.14690E+06
 0.57070000E+02  0.13950E+06
 0.57120003E+02  0.15174E+06
 0.57170002E+02  0.17792E+06
 0.57220001E+02  0.16656E+06
 0.57270000E+02  0.12416E+06
 0.57320000E+02  0.96943E+05
 0.57370003E+02  0.82797E+05
 0.57420002E+02  0.49337E+05
 0.57470001E+02  0.18347E+05
 0.57520000E+02 -0.41260E+04
 0.57570000E+02 -0.14164E+05
 0.57620003E+02 -0.98590E+04
 0.57670002E+02 -0.17051E+05
 0.57720001E+02 -0.29299E+05
 0.57770000E+02 -0.49489E+05
 0.57820000E+02 -0.62728E+05
 0.57870003E+02 -0.89089E+05
 0.57920002E+02 -0.11675E+06
 0.57970001E+02 -0.85359E+05
 0.58020000E+02 -0.36207E+05
 0.58070000E+02 -0.18443E+05
 0.58120003E+02 -0.42110E+04
 0.58170002E+02  0.45329E+05
 0.58220001E+02  0.61072E+05
 0.58270000E+02  0.49360E+05
 0.58320000E+02  0.77997E+05
 0.58370003E+02  0.93683E+05
 0.58420002E+02  0.64987E+05
 0.58470001E+02 -0.14953E+05
 0.58520000E+02 -0.74237E+05
 0.58570000E+02 -0.61709E+05
 0.58620003E+02 -0.48128E+05
 0.58670002E+02 -0.46361E+05
 0.58720001E+02 -0.40236E+05
 0.58770000E+02 -0.51763E+05
 0.58820000E+02 -0.56901E+05
 0.58870003E+02 -0.21335E+05
 0.58920002E+02  0.97330E+04
 0.58970001E+02  0.33163E+05
 0.59020000E+02  0.65887E+05
 0.59070000E+02  0.72878E+05
 0.59120003E+02  0.58278E+05
 0.59170002E+02  0.48700E+05
 0.59220001E+02  0.50133E+05
 0.59270000E+02  0.70099E+05
 0.59320000E+02  0.88390E+05
 0.59370003E+02  0.88023E+05
 0.59420002E+02  0.11655E+06
 0.59470001E+02  0.15884E+06
 0.59520000E+02  0.16107E+06
 0.59570000E+02  0.17824E+06
 0.59620003E+02  0.21299E+06
 0.59670002E+02  0.18957E+06
 0.59720001E+02  0.15441E+06
 0.59770000E+02  0.13020E+06
 0.59820000E+02  0.10016E+06
 0.59870003E+02  0.93229E+05
 0.59920002E+02  0.89242E+05
 0.59970001E+02  0.11242E+06
 0.60020000E+02  0.16854E+06
 0.60070000E+02  0.19344E+06
 0.60120003E+02  0.20096E+06
 0.60170002E+02  0.20906E+06
 0.60220001E+02  0.21904E+06
 0.60270000E+02  0.24546E+06
 0.60320000E+02  0.23914E+06
 0.60370003E+02  0.21174E+06
 0.60420002E+02  0.18086E+06
 0.60470001E+02  0.11557E+06
 0.60520000E+02  0.72228E+05
 0.60570000E+02  0.66742E+05
 0.60620003E+02  0.71471E+05
 0.60670002E+02  0.94999E+05
 0.60720001E+02  0.11438E+06
 0.60770000E+02  0.10761E+06
 0.60820000E+02  0.93288E+05
 0.60870003E+02  0.84390E+05
 0.60920002E+02  0.10697E+06
 0.60970001E+02  0.13768E+06
 0.61020000E+02  0.11633E+06
 0.61070004E+02  0.96046E+05
 0.61119999E+02  0.10519E+06
 0.61170002E+02  0.12178E+06
 0.61220005E+02  0.17628E+06
 0.61270000E+02  0.23679E+06
 0.61320004E+02  0.22568E+06
 0.61369999E+02  0.19482E+06
 0.61420002E+02  0.19832E+06
 0.61470005E+02  0.18188E+06
 0.61520000E+02  0.15816E+06
 0.61570004E+02  0.14984E+06
 0.61619999E+02  0.16029E+06
 0.61670002E+02  0.17975E+06
 0.61720005E+02  0.18384E+06
 0.61770000E+02  0.21633E+06
 0.61820004E+02  0.26027E+06
 0.61869999E+02  0.27981E+06
 0.61920002E+02  0.28610E+06
 0.61970005E+02  0.27270E+06
 0.62020000E+02  0.25052E+06
 0.62070004E+02  0.23223E+06
 0.62119999E+02  0.21025E+06
 0.62170002E+02  0.14968E+06
 0.62220005E+02  0.84125E+05
 0.62270000E+02  0.81120E+05
 0.62320004E+02  0.93522E+05
 0.62369999E+02  0.80296E+05
 0.62420002E+02  0.73330E+05
 0.62470005E+02  0.83013E+05
 0.62520000E+02  0.79129E+05
 0.62570004E+02  0.70496E+05
 0.62619999E+02  0.68576E+05
 0.62670002E+02  0.43131E+05
 0.62720005E+02  0.24107E+05
 0.62770000E+02  0.13290E+05
 0.62820004E+02 -0.34508E+05
 0.62869999E+02 -0.10085E+06
 0.62920002E+02 -0.14821E+06
 0.62970005E+02 -0.19576E+06
 0.63020000E+02 -0.25756E+06
 0.63070004E+02 -0.29217E+06
 0.63119999E+02 -0.32019E+06
 0.63170002E+02 -0.33772E+06
 0.63220005E+02 -0.29760E+06
 0.63270000E+02 -0.24279E+06
 0.63320004E+02 -0.21905E+06
 0.63369999E+02 -0.19043E+06
 0.63420002E+02 -0.13506E+06
 0.63470005E+02 -0.64511E+05
 0.63520000E+02  0.33356E+05
 0.63570004E+02  0.11152E+06
 0.63619999E+02  0.15732E+06
 0.63670002E+02  0.20918E+06
 0.63720005E+02  0.23368E+06
 0.63770000E+02  0.25999E+06
 0.63820004E+02  0.32302E+06
 0.63869999E+02  0.33491E+06
 0.63920002E+02  0.30090E+06
 0.63970005E+02  0.27173E+06
 0.64019997E+02  0.23898E+06
 0.64070000E+02  0.22696E+06
 0.64119995E+02  0.18578E+06
 0.64169998E+02  0.11354E+06
 0.64220001E+02  0.54729E+05
 0.64269997E+02 -0.11911E+05
 0.64320000E+02 -0.54999E+05
 0.64369995E+02 -0.78959E+05
 0.64419998E+02 -0.96619E+05
 0.64470001E+02 -0.11098E+06
 0.64519997E+02 -0.14248E+06
 0.64570000E+02 -0.16554E+06
 0.64619995E+02 -0.18690E+06
 0.64669998E+02 -0.21382E+06
 0.64720001E+02 -0.23514E+06
 0.64769997E+02 -0.24176E+06
 0.64820000E+02 -0.24364E+06
 0.64869995E+02 -0.24726E+06
 0.64919998E+02 -0.21643E+06
 0.64970001E+02 -0.17723E+06
 0.65019997E+02 -0.15295E+06
 0.65070000E+02 -0.11160E+06
 0.65119995E+02 -0.59304E+05
 0.65169998E+02 -0.19749E+05
 0.65220001E+02 -0.18840E+04
 0.65269997E+02 -0.12023E+05
 0.65320000E+02 -0.26037E+05
 0.65369995E+02 -0.29876E+05
 0.65419998E+02 -0.44360E+05
 0.65470001E+02 -0.66684E+05
 0.65519997E+02 -0.81398E+05
 0.65570000E+02 -0.71906E+05
 0.65619995E+02 -0.65508E+05
 0.65669998E+02 -0.10377E+06
 0.65720001E+02 -0.15753E+06
 0.65769997E+02 -0.17162E+06
 0.65820000E+02 -0.13391E+06
 0.65869995E+02 -0.74324E+05
 0.65919998E+02 -0.31073E+05
 0.65970001E+02 -0.22908E+05
 0.66019997E+02 -0.20276E+05
 0.66070000E+02  0.15818E+05
 0.66119995E+02  0.67934E+05
 0.66169998E+02  0.67934E+05
 0.66220001E+02  0.28865E+05
 0.66269997E+02 -0.15320E+04
 0.66320000E+02 -0.51482E+05
 0.66369995E+02 -0.76468E+05
 0.66419998E+02 -0.29166E+05
 0.66470001E+02  0.30257E+05
 0.66519997E+02  0.66767E+05
 0.66570000E+02  0.10673E+06
 0.66619995E+02  0.15595E+06
 0.66669998E+02  0.18990E+06
 0.66720001E+02  0.18513E+06
 0.66769997E+02  0.15500E+06
 0.66820000E+02  0.12549E+06
 0.66869995E+02  0.70232E+05
 0.66919998E+02  0.16795E+05
 0.66970001E+02 -0.29573E+05
 0.67019997E+02 -0.84719E+05
 0.67070000E+02 -0.98150E+05
 0.67119995E+02 -0.10363E+06
 0.67169998E+02 -0.12047E+06
 0.67220001E+02 -0.12397E+06
 0.67269997E+02 -0.13049E+06
 0.67320000E+02 -0.14317E+06
 0.67369995E+02 -0.15907E+06
 0.67419998E+02 -0.17190E+06
 0.67470001E+02 -0.17039E+06
 0.67519997E+02 -0.17061E+06
 0.67570000E+02 -0.18070E+06
 0.67619995E+02 -0.20481E+06
 0.67669998E+02 -0.26249E+06
 0.67720001E+02 -0.29364E+06
 0.67769997E+02 -0.26758E+06
 0.67820000E+02 -0.23289E+06
 0.67869995E+02 -0.17907E+06
 0.67919998E+02 -0.97839E+05
 0.67970001E+02 -0.48666E+05
 0.68019997E+02 -0.64573E+05
 0.68070000E+02 -0.84414E+05
 0.68119995E+02 -0.79088E+05
 0.68169998E+02 -0.58652E+05
 0.68220001E+02 -0.38481E+05
 0.68269997E+02 -0.43091E+05
 0.68320000E+02 -0.53483E+05
 0.68369995E+02 -0.63576E+05
 0.68419998E+02 -0.50275E+05
 0.68470001E+02 -0.26590E+04
 0.68519997E+02  0.50772E+05
 0.68570000E+02  0.93270E+05
 0.68619995E+02  0.10864E+06
 0.68669998E+02  0.11327E+06
 0.68720001E+02  0.12172E+06
 0.68769997E+02  0.10220E+06
 0.68820000E+02  0.74386E+05
 0.68869995E+02  0.58662E+05
 0.68919998E+02  0.24872E+05
 0.68970001E+02 -0.93780E+04
 0.69019997E+02 -0.56961E+05
 0.69070000E+02 -0.13881E+06
 0.69119995E+02 -0.20901E+06
 0.69169998E+02 -0.24347E+06
 0.69220001E+02 -0.27122E+06
 0.69269997E+02 -0.30968E+06
 0.69320000E+02 -0.33339E+06
 0.69369995E+02 -0.33413E+06
 0.69419998E+02 -0.31728E+06
 0.69470001E+02 -0.29604E+06
 0.69519997E+02 -0.28887E+06
 0.69570000E+02 -0.28261E+06
 0.69619995E+02 -0.28145E+06
 0.69669998E+02 -0.29089E+06
 0.69720001E+02 -0.31131E+06
 0.69769997E+02 -0.32603E+06
 0.69820000E+02 -0.31986E+06
 0.69869995E+02 -0.29714E+06
 0.69919998E+02 -0.26483E+06
 0.69970001E+02 -0.25135E+06
 0.70019997E+02 -0.18572E+06
 0.70070000E+02 -0.60952E+05
 0.70119995E+02  0.30519E+05
 0.70169998E+02  0.73521E+05
 0.70220001E+02  0.68850E+05
 0.70269997E+02  0.38691E+05
 0.70320000E+02  0.53000E+03
 0.70369995E+02 -0.38651E+05
 0.70419998E+02 -0.65120E+05
 0.70470001E+02 -0.66023E+05
 0.70519997E+02 -0.60121E+05
 0.70570000E+02 -0.42973E+05
 0.70619995E+02  0.98090E+04
 0.70669998E+02  0.72801E+05
 0.70720001E+02  0.12036E+06
 0.70769997E+02  0.12601E+06
 0.70820000E+02  0.11210E+06
 0.70869995E+02  0.11477E+06
 0.70919998E+02  0.11124E+06
 0.70970001E+02  0.75390E+05
 0.71019997E+02  0.55500E+05
 0.71070000E+02  0.61116E+05
 0.71119995E+02  0.17080E+05
 0.71169998E+02 -0.50206E+05
 0.71220001E+02 -0.10738E+06
 0.71269997E+02 -0.14438E+06
 0.71320000E+02 -0.13194E+06
 0.71369995E+02 -0.12151E+06
 0.71419998E+02 -0.11694E+06
 0.71470001E+02 -0.81495E+05
 0.71519997E+02 -0.23505E+05
 0.71570000E+02  0.37429E+05
 0.71619995E+02  0.60503E+05
 0.71669998E+02  0.63507E+05
 0.71720001E+02  0.64361E+05
 0.71769997E+02  0.40372E+05
 0.71820000E+02  0.34181E+05
 0.71869995E+02  0.47109E+05
 0.71919998E+02  0.32171E+05
 0.71970001E+02  0.25859E+05
 0.72019997E+02  0.50503E+05
 0.72070000E+02  0.65759E+05
 0.72119995E+02  0.61405E+05
 0.72169998E+02  0.45184E+05
 0.72220001E+02  0.44016E+05
 0.72269997E+02  0.55344E+05
 0.72320000E+02  0.15036E+05
 0.72369995E+02 -0.42337E+05
 0.72419998E+02 -0.50792E+05
 0.72470001E+02 -0.36713E+05
 0.72519997E+02 -0.40299E+05
 0.72570000E+02 -0.44671E+05
 0.72619995E+02 -0.48351E+05
 0.72669998E+02 -0.84401E+05
 0.72720001E+02 -0.92262E+05
 0.72769997E+02 -0.66376E+05
 0.72820000E+02 -0.34617E+05
 0.72869995E+02  0.53410E+04
 0.72919998E+02  0.22632E+05
 0.72970001E+02  0.54897E+05
 0.73019997E+02  0.89885E+05
 0.73070000E+02  0.93021E+05
 0.73119995E+02  0.87430E+05
 0.73169998E+02  0.86654E+05
 0.73220001E+02  0.10307E+06
 0.73269997E+02  0.12272E+06
 0.73320000E+02  0.12896E+06
 0.73369995E+02  0.12186E+06
 0.73419998E+02  0.97550E+05
 0.73470001E+02  0.85637E+05
 0.73519997E+02  0.10849E+06
 0.73570000E+02  0.10796E+06
 0.73619995E+02  0.86352E+05
 0.73669998E+02  0.83639E+05
 0.73720001E+02  0.52225E+05
 0.73769997E+02 -0.10339E+05
 0.73820000E+02 -0.65881E+05
 0.73869995E+02 -0.77273E+05
 0.73919998E+02 -0.33841E+05
 0.73970001E+02 -0.83900E+04
 0.74019997E+02  0.73930E+04
 0.74070000E+02  0.29505E+05
 0.74119995E+02  0.27922E+05
 0.74169998E+02  0.60800E+05
 0.74220001E+02  0.10122E+06
 0.74269997E+02  0.10042E+06
 0.74320000E+02  0.92309E+05
 0.74369995E+02  0.83338E+05
 0.74419998E+02  0.82653E+05
 0.74470001E+02  0.66654E+05
 0.74519997E+02  0.33253E+05
 0.74570000E+02  0.35546E+05
 0.74619995E+02  0.53796E+05
 0.74669998E+02  0.38496E+05
 0.74720001E+02  0.31987E+05
 0.74769997E+02  0.73495E+05
 0.74820000E+02  0.74816E+05
 0.74869995E+02  0.17061E+05
 0.74919998E+02 -0.18944E+05
 0.74970001E+02 -0.57847E+05
 0.75019997E+02 -0.80747E+05
 0.75070000E+02 -0.54846E+05
 0.75119995E+02 -0.59636E+05
 0.75169998E+02 -0.59735E+05
 0.75220001E+02 -0.25600E+03
 0.75269997E+02  0.63168E+05
 0.75320000E+02  0.80741E+05
 0.75369995E+02  0.30477E+05
 0.75419998E+02 -0.29583E+05
 0.75470001E+02 -0.45781E+05
 0.75519997E+02 -0.63190E+05
 0.75570000E+02 -0.29775E+05
 0.75619995E+02  0.11827E+06
 0.75669998E+02  0.24427E+06
 0.75720001E+02  0.28487E+06
 0.75769997E+02  0.27444E+06
 0.75820000E+02  0.23463E+06
 0.75869995E+02  0.23234E+06
 0.75919998E+02  0.22130E+06
 0.75970001E+02  0.16171E+06
 0.76019997E+02  0.15169E+06
 0.76070000E+02  0.21074E+06
 0.76119995E+02  0.24804E+06
 0.76169998E+02  0.23594E+06
 0.76220001E+02  0.17667E+06
 0.76269997E+02  0.60052E+05
 0.76320000E+02 -0.63505E+05
 0.76369995E+02 -0.15528E+06
 0.76419998E+02 -0.19970E+06
 0.76470001E+02 -0.20712E+06
 0.76519997E+02 -0.19374E+06
 0.76570000E+02 -0.15024E+06
 0.76619995E+02 -0.84706E+05
 0.76669998E+02 -0.35118E+05
 0.76720001E+02 -0.71792E+05
 0.76769997E+02 -0.17449E+06
 0.76820000E+02 -0.23165E+06
 0.76869995E+02 -0.19848E+06
 0.76919998E+02 -0.13770E+06
 0.76970001E+02 -0.85037E+05
 0.77019997E+02 -0.62882E+05
 0.77070000E+02 -0.65309E+05
 0.77119995E+02 -0.75000E+04
 0.77169998E+02  0.51022E+05
 0.77220001E+02  0.43424E+05
 0.77269997E+02  0.28934E+05
 0.77320000E+02  0.77252E+05
 0.77369995E+02  0.16453E+06
 0.77419998E+02  0.15986E+06
 0.77470001E+02  0.60378E+05
 0.77519997E+02  0.35725E+05
 0.77570000E+02  0.11906E+06
 0.77619995E+02  0.13412E+06
 0.77669998E+02  0.68269E+05
 0.77720001E+02  0.19709E+05
 0.77769997E+02  0.15929E+05
 0.77820000E+02  0.23983E+05
 0.77869995E+02  0.11673E+05
 0.77919998E+02  0.69408E+05
 0.77970001E+02  0.10269E+06
 0.78019997E+02  0.33224E+05
 0.78070000E+02  0.48227E+05
 0.78119995E+02  0.10230E+06
 0.78169998E+02  0.62051E+05
 0.78220001E+02  0.21763E+05
 0.78269997E+02  0.39069E+05
 0.78320000E+02  0.71043E+05
 0.78369995E+02  0.10020E+06
 0.78419998E+02  0.97351E+05
 0.78470001E+02  0.61424E+05
 0.78519997E+02  0.23530E+04
 0.78570000E+02 -0.99930E+05
 0.78619995E+02 -0.16495E+06
 0.78669998E+02 -0.15322E+06
 0.78720001E+02 -0.96038E+05
 0.78769997E+02 -0.16659E+05
 0.78820000E+02 -0.68570E+04
 0.78869995E+02 -0.46173E+05
 0.78919998E+02 -0.10144E+06
 0.78970001E+02 -0.15763E+06
 0.79019997E+02 -0.10576E+06
 0.79070000E+02 -0.59521E+05
 0.79119995E+02 -0.92302E+05
 0.79169998E+02 -0.70623E+05
 0.79220001E+02 -0.34738E+05
 0.79269997E+02 -0.16195E+05
 0.79320000E+02  0.39359E+05
 0.79369995E+02  0.73635E+05
 0.79419998E+02  0.72391E+05
 0.79470001E+02  0.86062E+05
 0.79519997E+02  0.10401E+06
 0.79570000E+02  0.12907E+06
 0.79619995E+02  0.12372E+06
 0.79669998E+02  0.64897E+05
 0.79720001E+02  0.23178E+05
 0.79769997E+02 -0.28800E+04
 0.79820000E+02 -0.45363E+05
 0.79869995E+02 -0.70268E+05
 0.79919998E+02 -0.42747E+05
 0.79970001E+02 -0.27750E+04
 0.80019997E+02 -0.10939E+05
 0.80070000E+02 -0.62424E+05
 0.80119995E+02 -0.10411E+06
 0.80169998E+02 -0.96142E+05
 0.80220001E+02 -0.69120E+05
 0.80269997E+02 -0.26368E+05
 0.80320000E+02  0.80640E+04
 0.80369995E+02 -0.25820E+04
 0.80419998E+02  0.85500E+04
 0.80470001E+02 -0.11480E+04
 0.80519997E+02 -0.39280E+05
 0.80570000E+02 -0.20572E+05
 0.80619995E+02  0.23100E+03
 0.80669998E+02 -0.33310E+04
 0.80720001E+02  0.10920E+05
 0.80769997E+02  0.57153E+05
 0.80820000E+02  0.12433E+06
 0.80869995E+02  0.14754E+06
 0.80919998E+02  0.13083E+06
 0.80970001E+02  0.16720E+06
 0.81019997E+02  0.20258E+06
 0.81070000E+02  0.19785E+06
 0.81119995E+02  0.19330E+06
 0.81169998E+02  0.15105E+06
 0.81220001E+02  0.13422E+06
 0.81269997E+02  0.16885E+06
 0.81320000E+02  0.16666E+06
 0.81369995E+02  0.18880E+06
 0.81419998E+02  0.22363E+06
 0.81470001E+02  0.15886E+06
 0.81519997E+02  0.69987E+05
 0.81570000E+02  0.52900E+04
 0.81619995E+02 -0.49923E+05
 0.81669998E+02 -0.98584E+05
 0.81720001E+02 -0.12130E+06
 0.81769997E+02 -0.98773E+05
 0.81820000E+02 -0.81711E+05
 0.81869995E+02 -0.58972E+05
 0.81919998E+02 -0.94231E+05
 0.81970001E+02 -0.23263E+06
 0.82019997E+02 -0.35342E+06
 0.82070000E+02 -0.39359E+06
 0.82119995E+02 -0.37905E+06
 0.82169998E+02 -0.31100E+06
 0.82220001E+02 -0.20530E+06
 0.82269997E+02 -0.14295E+06
 0.82320000E+02 -0.13965E+06
 0.82369995E+02 -0.12926E+06
 0.82419998E+02 -0.93931E+05
 0.82470001E+02 -0.89901E+05
 0.82519997E+02 -0.10840E+06
 0.82570000E+02 -0.12716E+06
 0.82619995E+02 -0.13070E+06
 0.82669998E+02 -0.10113E+06
 0.82720001E+02 -0.87448E+05
 0.82769997E+02 -0.64317E+05
 0.82820000E+02 -0.36580E+05
 0.82869995E+02 -0.40570E+05
 0.82919998E+02 -0.72671E+05
 0.82970001E+02 -0.10973E+06
 0.83019997E+02 -0.99944E+05
 0.83070000E+02 -0.65637E+05
 0.83119995E+02 -0.24191E+05
 0.83169998E+02 -0.37550E+04
 0.83220001E+02 -0.37414E+05
 0.83269997E+02 -0.73541E+05
 0.83320000E+02 -0.79473E+05
 0.83369995E+02 -0.81821E+05
 0.83419998E+02 -0.69365E+05
 0.83470001E+02 -0.77593E+05
 0.83519997E+02 -0.98114E+05
 0.83570000E+02 -0.40208E+05
 0.83619995E+02  0.14068E+05
 0.83669998E+02  0.25008E+05
 0.83720001E+02  0.24350E+05
 0.83769997E+02  0.37480E+04
 0.83820000E+02 -0.26525E+05
 0.83869995E+02 -0.82930E+05
 0.83919998E+02 -0.11225E+06
 0.83970001E+02 -0.89326E+05
 0.84019997E+02 -0.49783E+05
 0.84070000E+02 -0.31140E+04
 0.84119995E+02 -0.16978E+05
 0.84169998E+02 -0.69229E+05
 0.84220001E+02 -0.55662E+05
 0.84269997E+02 -0.47256E+05
 0.84320000E+02 -0.10786E+06
 0.84369995E+02 -0.12510E+06
 0.84419998E+02 -0.48906E+05
 0.84470001E+02  0.67590E+04
 0.84519997E+02 -0.35731E+05
 0.84570000E+02 -0.87412E+05
 0.84619995E+02 -0.38345E+05
 0.84669998E+02  0.57677E+05
 0.84720001E+02  0.64554E+05
 0.84769997E+02 -0.15740E+05
 0.84820000E+02 -0.94258E+05
 0.84869995E+02 -0.15613E+06
 0.84919998E+02 -0.16054E+06
 0.84970001E+02 -0.76186E+05
 0.85019997E+02  0.82800E+04
 0.85070000E+02  0.37641E+05
 0.85119995E+02  0.27220E+05
 0.85169998E+02  0.14103E+05
 0.85220001E+02  0.67300E+03
 0.85269997E+02 -0.76180E+04
 0.85320000E+02  0.17315E+05
 0.85369995E+02  0.58266E+05
 0.85419998E+02  0.99350E+05
 0.85470001E+02  0.79904E+05
 0.85519997E+02  0.23104E+05
 0.85570000E+02 -0.34951E+05
 0.85619995E+02 -0.12679E+06
 0.85669998E+02 -0.19298E+06
 0.85720001E+02 -0.19724E+06
 0.85769997E+02 -0.11249E+06
 0.85820000E+02 -0.25290E+04
 0.85869995E+02  0.48824E+05
 0.85919998E+02  0.51931E+05
 0.85970001E+02  0.21387E+05
 0.86019997E+02  0.35682E+05
 0.86070000E+02  0.67351E+05
 0.86119995E+02  0.66607E+05
 0.86169998E+02  0.71724E+05
 0.86220001E+02  0.93740E+05
 0.86269997E+02  0.15563E+06
 0.86320000E+02  0.19486E+06
 0.86369995E+02  0.15978E+06
 0.86419998E+02  0.14357E+06
 0.86470001E+02  0.16602E+06
 0.86519997E+02  0.15606E+06
 0.86570000E+02  0.10497E+06
 0.86619995E+02  0.52681E+05
 0.86669998E+02  0.40861E+05
 0.86720001E+02  0.53441E+05
 0.86769997E+02  0.65924E+05
 0.86820000E+02  0.82879E+05
 0.86869995E+02  0.99216E+05
 0.86919998E+02  0.11561E+06
 0.86970001E+02  0.13122E+06
 0.87019997E+02  0.14703E+06
 0.87070000E+02  0.15588E+06
 0.87119995E+02  0.15616E+06
 0.87169998E+02  0.12904E+06
 0.87220001E+02  0.12467E+06
 0.87269997E+02  0.15826E+06
 0.87320000E+02  0.12237E+06
 0.87369995E+02  0.52578E+05
 0.87419998E+02 -0.27893E+05
 0.87470001E+02 -0.95149E+05
 0.87519997E+02 -0.95700E+05
 0.87570000E+02 -0.82986E+05
 0.87619995E+02 -0.13041E+05
 0.87669998E+02  0.73037E+05
 0.87720001E+02  0.53499E+05
 0.87769997E+02  0.71460E+04
 0.87820000E+02  0.36884E+05
 0.87869995E+02  0.83399E+05
 0.87919998E+02  0.89826E+05
 0.87970001E+02  0.91212E+05
 0.88019997E+02  0.90991E+05
 0.88070000E+02  0.84336E+05
 0.88119995E+02  0.10983E+06
 0.88169998E+02  0.16458E+06
 0.88220001E+02  0.15675E+06
 0.88269997E+02  0.11468E+06
 0.88320000E+02  0.10558E+06
 0.88369995E+02  0.98537E+05
 0.88419998E+02  0.13417E+06
 0.88470001E+02  0.21422E+06
 0.88519997E+02  0.26709E+06
 0.88570000E+02  0.24587E+06
 0.88619995E+02  0.18554E+06
 0.88669998E+02  0.15515E+06
 0.88720001E+02  0.13979E+06
 0.88769997E+02  0.11688E+06
 0.88820000E+02  0.12705E+06
 0.88869995E+02  0.15534E+06
 0.88919998E+02  0.12352E+06
 0.88970001E+02  0.89568E+05
 0.89019997E+02  0.97166E+05
 0.89070000E+02  0.10762E+06
 0.89119995E+02  0.11372E+06
 0.89169998E+02  0.10264E+06
 0.89220001E+02  0.10548E+06
 0.89269997E+02  0.10805E+06
 0.89320000E+02  0.92507E+05
 0.89369995E+02  0.62259E+05
 0.89419998E+02 -0.43047E+05
 0.89470001E+02 -0.16097E+06
 0.89519997E+02 -0.20142E+06
 0.89570000E+02 -0.17173E+06
 0.89619995E+02 -0.86631E+05
 0.89669998E+02 -0.12980E+05
 0.89720001E+02  0.38557E+05
 0.89769997E+02  0.74136E+05
 0.89820000E+02  0.63545E+05
 0.89869995E+02  0.37280E+05
 0.89919998E+02 -0.79820E+04
 0.89970001E+02 -0.52053E+05
 0.90019997E+02 -0.43197E+05
 0.90070000E+02 -0.35113E+05
 0.90119995E+02 -0.64783E+05
 0.90169998E+02 -0.62657E+05
 0.90220001E+02 -0.37369E+05
 0.90269997E+02 -0.66780E+05
 0.90320000E+02 -0.13228E+06
 0.90369995E+02 -0.18858E+06
 0.90419998E+02 -0.22376E+06
 0.90470001E+02 -0.23289E+06
 0.90519997E+02 -0.24865E+06
 0.90570000E+02 -0.30710E+06
 0.90619995E+02 -0.36163E+06
 0.90669998E+02 -0.33739E+06
 0.90720001E+02 -0.25388E+06
 0.90769997E+02 -0.18505E+06
 0.90820000E+02 -0.12348E+06
 0.90869995E+02 -0.53598E+05
 0.90919998E+02 -0.24605E+05
 0.90970001E+02 -0.22367E+05
 0.91019997E+02 -0.31591E+05
 0.91070000E+02 -0.63045E+05
 0.91119995E+02 -0.86615E+05
 0.91169998E+02 -0.70036E+05
 0.91220001E+02 -0.15301E+05
 0.91269997E+02 -0.24010E+05
 0.91320000E+02 -0.10745E+06
 0.91369995E+02 -0.16752E+06
 0.91419998E+02 -0.21978E+06
 0.91470001E+02 -0.27213E+06
 0.91519997E+02 -0.28196E+06
 0.91570000E+02 -0.23036E+06
 0.91619995E+02 -0.14572E+06
 0.91669998E+02 -0.79030E+05
 0.91720001E+02 -0.34570E+04
 0.91769997E+02  0.56302E+05
 0.91820000E+02  0.33286E+05
 0.91869995E+02 -0.40506E+05
 0.91919998E+02 -0.86238E+05
 0.91970001E+02 -0.51134E+05
 0.92019997E+02  0.21370E+05
 0.92070000E+02  0.68048E+05
 0.92119995E+02  0.59746E+05
 0.92169998E+02 -0.51450E+04
 0.92220001E+02 -0.70228E+05
 0.92269997E+02 -0.61890E+05
 0.92320000E+02 -0.98160E+04
 0.92369995E+02  0.27243E+05
 0.92419998E+02  0.71449E+05
 0.92470001E+02  0.13054E+06
 0.92519997E+02  0.23213E+06
 0.92570000E+02  0.34442E+06
 0.92619995E+02  0.38489E+06
 0.92669998E+02  0.36736E+06
 0.92720001E+02  0.35832E+06
 0.92769997E+02  0.37771E+06
 0.92820000E+02  0.38079E+06
 0.92869995E+02  0.36273E+06
 0.92919998E+02  0.37563E+06
 0.92970001E+02  0.42339E+06
 0.93019997E+02  0.46636E+06
 0.93070000E+02  0.52705E+06
 0.93119995E+02  0.60229E+06
 0.93169998E+02  0.64739E+06
 0.93220001E+02  0.65890E+06
 0.93269997E+02  0.62132E+06
 0.93320000E+02  0.49172E+06
 0.93369995E+02  0.31938E+06
 0.93419998E+02  0.20422E+06
 0.93470001E+02  0.14265E+06
 0.93519997E+02  0.77517E+05
 0.93570000E+02 -0.38534E+05
 0.93619995E+02 -0.13350E+06
 0.93669998E+02 -0.15153E+06
 0.93720001E+02 -0.16455E+06
 0.93769997E+02 -0.18654E+06
 0.93820000E+02 -0.21163E+06
 0.93869995E+02 -0.22938E+06
 0.93919998E+02 -0.23432E+06
 0.93970001E+02 -0.25303E+06
 0.94019997E+02 -0.27426E+06
 0.94070000E+02 -0.28365E+06
 0.94119995E+02 -0.26784E+06
 0.94169998E+02 -0.22481E+06
 0.94220001E+02 -0.17850E+06
 0.94269997E+02 -0.14007E+06
 0.94320000E+02 -0.15438E+06
 0.94369995E+02 -0.23579E+06
 0.94419998E+02 -0.31423E+06
 0.94470001E+02 -0.36197E+06
 0.94519997E+02 -0.39353E+06
 0.94570000E+02 -0.42355E+06
 0.94619995E+02 -0.45400E+06
 0.94669998E+02 -0.45645E+06
 0.94720001E+02 -0.42000E+06
 0.94769997E+02 -0.40317E+06
 0.94820000E+02 -0.41695E+06
 0.94869995E+02 -0.41341E+06
 0.94919998E+02 -0.47187E+06
 0.94970001E+02 -0.58229E+06
 0.95019997E+02 -0.59486E+06
 0.95070000E+02 -0.51975E+06
 0.95119995E+02 -0.44573E+06
 0.95169998E+02 -0.40668E+06
 0.95220001E+02 -0.39754E+06
 0.95269997E+02 -0.39145E+06
 0.95320000E+02 -0.36260E+06
 0.95369995E+02 -0.28071E+06
 0.95419998E+02 -0.16022E+06
 0.95470001E+02 -0.65081E+05
 0.95519997E+02 -0.94980E+04
 0.95570000E+02  0.50189E+05
 0.95619995E+02  0.11070E+06
 0.95669998E+02  0.11847E+06
 0.95720001E+02  0.11767E+06
 0.95769997E+02  0.18523E+06
 0.95820000E+02  0.29885E+06
 0.95869995E+02  0.42070E+06
 0.95919998E+02  0.50492E+06
 0.95970001E+02  0.51974E+06
 0.96019997E+02  0.48083E+06
 0.96070000E+02  0.41805E+06
 0.96119995E+02  0.40097E+06
 0.96169998E+02  0.42154E+06
 0.96220001E+02  0.41646E+06
 0.96269997E+02  0.40845E+06
 0.96320000E+02  0.39233E+06
 0.96369995E+02  0.33670E+06
 0.96419998E+02  0.27333E+06
 0.96470001E+02  0.24693E+06
 0.96519997E+02  0.22586E+06
 0.96570000E+02  0.16649E+06
 0.96619995E+02  0.88766E+05
 0.96669998E+02 -0.13596E+05
 0.96720001E+02 -0.13228E+06
 0.96769997E+02 -0.23225E+06
 0.96820000E+02 -0.31484E+06
 0.96869995E+02 -0.38161E+06
 0.96919998E+02 -0.43525E+06
 0.96970001E+02 -0.47781E+06
 0.97019997E+02 -0.50188E+06
 0.97070000E+02 -0.49074E+06
 0.97119995E+02 -0.48209E+06
 0.97169998E+02 -0.54215E+06
 0.97220001E+02 -0.60556E+06
 0.97269997E+02 -0.59749E+06
 0.97320000E+02 -0.54230E+06
 0.97369995E+02 -0.46766E+06
 0.97419998E+02 -0.40409E+06
 0.97470001E+02 -0.37671E+06
 0.97519997E+02 -0.37311E+06
 0.97570000E+02 -0.34834E+06
 0.97619995E+02 -0.32141E+06
 0.97669998E+02 -0.34275E+06
 0.97720001E+02 -0.34996E+06
 0.97769997E+02 -0.30077E+06
 0.97820000E+02 -0.21919E+06
 0.97869995E+02 -0.14528E+06
 0.97919998E+02 -0.97709E+05
 0.97970001E+02 -0.74900E+04
 0.98019997E+02  0.69895E+05
 0.98070000E+02  0.55292E+05
 0.98119995E+02  0.58841E+05
 0.98169998E+02  0.10672E+06
 0.98220001E+02  0.14435E+06
 0.98269997E+02  0.18101E+06
 0.98320000E+02  0.20259E+06
 0.98369995E+02  0.21208E+06
 0.98419998E+02  0.21024E+06
 0.98470001E+02  0.19486E+06
 0.98519997E+02  0.19925E+06
 0.98570000E+02  0.21207E+06
 0.98619995E+02  0.23228E+06
 0.98669998E+02  0.25815E+06
 0.98720001E+02  0.23332E+06
 0.98769997E+02  0.19488E+06
 0.98820000E+02  0.22577E+06
 0.98869995E+02  0.29493E+06
 0.98919998E+02  0.36781E+06
 0.98970001E+02  0.44115E+06
 0.99019997E+02  0.47923E+06
 0.99070000E+02  0.49266E+06
 0.99119995E+02  0.50920E+06
 0.99169998E+02  0.53177E+06
 0.99220001E+02  0.57131E+06
 0.99269997E+02  0.59330E+06
 0.99320000E+02  0.57181E+06
 0.99369995E+02  0.53716E+06
 0.99419998E+02  0.51023E+06
 0.99470001E+02  0.45777E+06
 0.99519997E+02  0.35381E+06
 0.99570000E+02  0.24754E+06
 0.99619995E+02  0.15666E+06
 0.99669998E+02  0.82132E+05
 0.99720001E+02  0.33639E+05
 0.99769997E+02  0.81680E+04
 0.99820000E+02  0.19891E+05
 0.99869995E+02  0.50930E+05
 0.99919998E+02  0.69724E+05
 0.99970001E+02  0.31506E+05
 0.10002000E+03 -0.77169E+05
 0.10007000E+03 -0.19779E+06
 0.10012000E+03 -0.29585E+06
 0.10017000E+03 -0.37788E+06
 0.10022000E+03 -0.43054E+06
 0.10027000E+03 -0.45313E+06
 0.10032000E+03 -0.48215E+06
 0.10037000E+03 -0.52494E+06
 0.10042000E+03 -0.56091E+06
 0.10047000E+03 -0.56021E+06
 0.10052000E+03 -0.51346E+06
 0.10057000E+03 -0.44318E+06
 0.10062000E+03 -0.37065E+06
 0.10067000E+03 -0.34228E+06
 0.10072000E+03 -0.35856E+06
 0.10077000E+03 -0.37522E+06
 0.10082000E+03 -0.41011E+06
 0.10087000E+03 -0.44986E+06
 0.10092000E+03 -0.45815E+06
 0.10097000E+03 -0.44243E+06
 0.10102000E+03 -0.39512E+06
 0.10107000E+03 -0.30757E+06
 0.10112000E+03 -0.20668E+06
 0.10117000E+03 -0.13820E+06
 0.10122000E+03 -0.98990E+05
 0.10127000E+03 -0.57690E+05
 0.10132000E+03 -0.17695E+05
 0.10137000E+03  0.29515E+05
 0.10142000E+03  0.71760E+05
 0.10147000E+03  0.79556E+05
 0.10152000E+03  0.11176E+06
 0.10157000E+03  0.20310E+06
 0.10162000E+03  0.29695E+06
 0.10167000E+03  0.36980E+06
 0.10172000E+03  0.44083E+06
 0.10177000E+03  0.48722E+06
 0.10182000E+03  0.49684E+06
 0.10187000E+03  0.51191E+06
 0.10192000E+03  0.52268E+06
 0.10197000E+03  0.52193E+06
 0.10202000E+03  0.53154E+06
 0.10207000E+03  0.54675E+06
 0.10212000E+03  0.57537E+06
 0.10217000E+03  0.60238E+06
 0.10222000E+03  0.59157E+06
 0.10227000E+03  0.52121E+06
 0.10232000E+03  0.40282E+06
 0.10237000E+03  0.30678E+06
 0.10242000E+03  0.27979E+06
 0.10247000E+03  0.30159E+06
 0.10252000E+03  0.35407E+06
 0.10257000E+03  0.40849E+06
 0.10262000E+03  0.44146E+06
 0.10267000E+03  0.45692E+06
 0.10272000E+03  0.42304E+06
 0.10277000E+03  0.34674E+06
 0.10282000E+03  0.29286E+06
 0.10287000E+03  0.27086E+06
 0.10292000E+03  0.24446E+06
 0.10297000E+03  0.19140E+06
 0.10302000E+03  0.12492E+06
 0.10307000E+03  0.66154E+05
 0.10312000E+03 -0.48430E+04
 0.10317000E+03 -0.86552E+05
 0.10322000E+03 -0.13923E+06
 0.10327000E+03 -0.17503E+06
 0.10332000E+03 -0.22550E+06
 0.10337000E+03 -0.30463E+06
 0.10342000E+03 -0.39778E+06
 0.10347000E+03 -0.44223E+06
 0.10352000E+03 -0.42782E+06
 0.10357000E+03 -0.41096E+06
 0.10362000E+03 -0.42287E+06
 0.10367000E+03 -0.45694E+06
 0.10372000E+03 -0.46408E+06
 0.10377000E+03 -0.42279E+06
 0.10382000E+03 -0.37832E+06
 0.10387000E+03 -0.34879E+06
 0.10392000E+03 -0.32869E+06
 0.10397000E+03 -0.30919E+06
 0.10402000E+03 -0.26049E+06
 0.10407000E+03 -0.18405E+06
 0.10412000E+03 -0.12030E+06
 0.10417000E+03 -0.53516E+05
 0.10422000E+03  0.44186E+05
 0.10427000E+03  0.11405E+06
 0.10432000E+03  0.14004E+06
 0.10437000E+03  0.15199E+06
 0.10442000E+03  0.16586E+06
 0.10447000E+03  0.21184E+06
 0.10452000E+03  0.27668E+06
 0.10457000E+03  0.35356E+06
 0.10462000E+03  0.41806E+06
 0.10467000E+03  0.41604E+06
 0.10472000E+03  0.36173E+06
 0.10477000E+03  0.28886E+06
 0.10482000E+03  0.21666E+06
 0.10487000E+03  0.15534E+06
 0.10492000E+03  0.84778E+05
 0.10497000E+03  0.10738E+05
 0.10502000E+03 -0.22815E+05
 0.10507000E+03 -0.39911E+05
 0.10512000E+03 -0.77868E+05
 0.10517000E+03 -0.10750E+06
 0.10522000E+03 -0.12064E+06
 0.10527000E+03 -0.14391E+06
 0.10532000E+03 -0.18629E+06
 0.10537000E+03 -0.24153E+06
 0.10542000E+03 -0.28250E+06
 0.10547000E+03 -0.31283E+06
 0.10552000E+03 -0.37448E+06
 0.10557000E+03 -0.42845E+06
 0.10562000E+03 -0.43985E+06
 0.10567000E+03 -0.43082E+06
 0.10572000E+03 -0.39250E+06
 0.10577000E+03 -0.33344E+06
 0.10582000E+03 -0.28366E+06
 0.10587000E+03 -0.24165E+06
 0.10592000E+03 -0.21635E+06
 0.10597000E+03 -0.20656E+06
 0.10602000E+03 -0.17677E+06
 0.10607000E+03 -0.15923E+06
 0.10612000E+03 -0.15654E+06
 0.10617000E+03 -0.11906E+06
 0.10622000E+03 -0.75933E+05
 0.10627000E+03 -0.48473E+05
 0.10632000E+03 -0.31571E+05
 0.10637000E+03 -0.52358E+05
 0.10642000E+03 -0.10650E+06
 0.10647000E+03 -0.16563E+06
 0.10652000E+03 -0.21324E+06
 0.10657000E+03 -0.20334E+06
 0.10662000E+03 -0.14892E+06
 0.10667000E+03 -0.91839E+05
 0.10672000E+03 -0.29497E+05
 0.10677000E+03 -0.74890E+04
 0.10682000E+03 -0.27794E+05
 0.10687000E+03 -0.26955E+05
 0.10692000E+03 -0.17629E+05
 0.10697000E+03 -0.26968E+05
 0.10702000E+03 -0.30693E+05
 0.10707000E+03 -0.24019E+05
 0.10712000E+03 -0.15877E+05
 0.10717000E+03 -0.20101E+05
 0.10722000E+03 -0.42682E+05
 0.10727000E+03 -0.48552E+05
 0.10732000E+03 -0.19556E+05
 0.10737000E+03  0.27261E+05
 0.10742000E+03  0.71533E+05
 0.10747000E+03  0.92727E+05
 0.10752000E+03  0.95004E+05
 0.10757000E+03  0.11466E+06
 0.10762000E+03  0.17358E+06
 0.10767000E+03  0.25739E+06
 0.10772000E+03  0.33159E+06
 0.10777000E+03  0.38870E+06
 0.10782000E+03  0.42760E+06
 0.10787000E+03  0.43017E+06
 0.10792000E+03  0.42593E+06
 0.10797000E+03  0.41907E+06
 0.10802000E+03  0.37883E+06
 0.10807000E+03  0.31704E+06
 0.10812000E+03  0.23566E+06
 0.10817000E+03  0.15236E+06
 0.10822000E+03  0.83653E+05
 0.10827000E+03  0.11759E+05
 0.10832000E+03 -0.73097E+05
 0.10837000E+03 -0.16661E+06
 0.10842000E+03 -0.21450E+06
 0.10847000E+03 -0.17816E+06
 0.10852000E+03 -0.10058E+06
 0.10857000E+03 -0.32316E+05
 0.10862000E+03  0.18371E+05
 0.10867000E+03  0.61540E+05
 0.10872000E+03  0.10196E+06
 0.10877000E+03  0.13544E+06
 0.10882000E+03  0.16230E+06
 0.10887000E+03  0.17536E+06
 0.10892000E+03  0.13776E+06
 0.10897000E+03  0.79849E+05
 0.10902000E+03  0.72128E+05
 0.10907000E+03  0.99761E+05
 0.10912000E+03  0.12935E+06
 0.10917000E+03  0.15773E+06
 0.10922000E+03  0.18958E+06
 0.10927000E+03  0.22047E+06
 0.10932000E+03  0.22255E+06
 0.10937000E+03  0.20199E+06
 0.10942000E+03  0.18871E+06
 0.10947000E+03  0.18492E+06
 0.10952000E+03  0.19196E+06
 0.10957000E+03  0.21129E+06
 0.10962000E+03  0.23745E+06
 0.10967000E+03  0.25184E+06
 0.10972000E+03  0.24256E+06
 0.10977000E+03  0.21432E+06
 0.10982000E+03  0.18353E+06
 0.10987000E+03  0.17018E+06
 0.10992000E+03  0.16209E+06
 0.10997000E+03  0.17132E+06
 0.11002000E+03  0.20278E+06
 0.11007000E+03  0.22004E+06
 0.11012000E+03  0.21211E+06
 0.11017000E+03  0.17580E+06
 0.11022000E+03  0.12086E+06
 0.11027000E+03  0.73031E+05
 0.11032000E+03  0.45473E+05
 0.11037000E+03  0.34164E+05
 0.11042000E+03  0.37321E+05
 0.11047000E+03  0.72799E+05
 0.11052000E+03  0.13836E+06
 0.11057000E+03  0.19563E+06
 0.11062000E+03  0.22866E+06
 0.11067000E+03  0.23274E+06
 0.11072000E+03  0.21626E+06
 0.11077000E+03  0.22637E+06
 0.11082000E+03  0.25521E+06
 0.11087000E+03  0.27405E+06
 0.11092000E+03  0.29748E+06
 0.11097000E+03  0.33353E+06
 0.11102000E+03  0.38008E+06
 0.11107000E+03  0.40703E+06
 0.11112000E+03  0.39612E+06
 0.11117000E+03  0.38381E+06
 0.11122000E+03  0.37074E+06
 0.11127000E+03  0.31961E+06
 0.11132000E+03  0.23334E+06
 0.11137000E+03  0.15564E+06
 0.11142000E+03  0.10205E+06
 0.11147000E+03  0.49739E+05
 0.11152000E+03 -0.13900E+03
 0.11157000E+03 -0.41342E+05
 0.11162000E+03 -0.76479E+05
 0.11167000E+03 -0.10393E+06
 0.11172000E+03 -0.13372E+06
 0.11177000E+03 -0.19100E+06
 0.11182000E+03 -0.25308E+06
 0.11187000E+03 -0.29235E+06
 0.11192000E+03 -0.33360E+06
 0.11197000E+03 -0.35325E+06
 0.11202000E+03 -0.31440E+06
 0.11207000E+03 -0.23866E+06
 0.11212000E+03 -0.15868E+06
 0.11217000E+03 -0.93339E+05
 0.11222000E+03 -0.54548E+05
 0.11227000E+03 -0.14172E+05
 0.11232000E+03  0.41165E+05
 0.11237000E+03  0.89773E+05
 0.11242000E+03  0.14744E+06
 0.11247000E+03  0.21270E+06
 0.11252000E+03  0.27060E+06
 0.11257000E+03  0.31322E+06
 0.11262000E+03  0.34153E+06
 0.11267000E+03  0.35326E+06
 0.11272000E+03  0.33253E+06
 0.11277000E+03  0.31637E+06
 0.11282000E+03  0.32203E+06
 0.11287000E+03  0.32348E+06
 0.11292000E+03  0.30976E+06
 0.11297000E+03  0.27196E+06
 0.11302000E+03  0.22940E+06
 0.11307000E+03  0.21648E+06
 0.11312000E+03  0.22057E+06
 0.11317000E+03  0.20416E+06
 0.11322000E+03  0.16238E+06
 0.11327000E+03  0.10337E+06
 0.11332000E+03  0.32009E+05
 0.11337000E+03 -0.44699E+05
 0.11342000E+03 -0.11563E+06
 0.11347000E+03 -0.15958E+06
 0.11352000E+03 -0.19427E+06
 0.11357000E+03 -0.24613E+06
 0.11362000E+03 -0.28693E+06
 0.11367000E+03 -0.30937E+06
 0.11372000E+03 -0.33971E+06
 0.11377000E+03 -0.36862E+06
 0.11382000E+03 -0.36110E+06
 0.11387000E+03 -0.30600E+06
 0.11392000E+03 -0.23904E+06
 0.11397000E+03 -0.20130E+06
 0.11402000E+03 -0.20467E+06
 0.11407000E+03 -0.23042E+06
 0.11412000E+03 -0.25172E+06
 0.11417000E+03 -0.27340E+06
 0.11422000E+03 -0.30330E+06
 0.11427000E+03 -0.34074E+06
 0.11432000E+03 -0.38859E+06
 0.11437000E+03 -0.41911E+06
 0.11442000E+03 -0.40059E+06
 0.11447000E+03 -0.35526E+06
 0.11452000E+03 -0.31594E+06
 0.11457000E+03 -0.28262E+06
 0.11462000E+03 -0.25894E+06
 0.11467000E+03 -0.24386E+06
 0.11472000E+03 -0.21910E+06
 0.11477000E+03 -0.20115E+06
 0.11482000E+03 -0.22574E+06
 0.11487000E+03 -0.26813E+06
 0.11492000E+03 -0.29965E+06
 0.11497000E+03 -0.33376E+06
 0.11502000E+03 -0.36813E+06
 0.11507000E+03 -0.39586E+06
 0.11512000E+03 -0.40217E+06
 0.11517000E+03 -0.39054E+06
 0.11522000E+03 -0.38374E+06
 0.11527000E+03 -0.37812E+06
 0.11532000E+03 -0.37375E+06
 0.11537000E+03 -0.37459E+06
 0.11542000E+03 -0.37316E+06
 0.11547000E+03 -0.36357E+06
 0.11552000E+03 -0.37016E+06
 0.11557000E+03 -0.40384E+06
 0.11562000E+03 -0.43421E+06
 0.11567000E+03 -0.44340E+06
 0.11572000E+03 -0.42493E+06
 0.11577000E+03 -0.39254E+06
 0.11582000E+03 -0.36652E+06
 0.11587000E+03 -0.33756E+06
 0.11592000E+03 -0.30364E+06
 0.11597000E+03 -0.29190E+06
 0.11602000E+03 -0.30056E+06
 0.11607000E+03 -0.29224E+06
 0.11612000E+03 -0.27030E+06
 0.11617000E+03 -0.25768E+06
 0.11622000E+03 -0.25709E+06
 0.11627000E+03 -0.27175E+06
 0.11632000E+03 -0.29150E+06
 0.11637000E+03 -0.30483E+06
 0.11642000E+03 -0.32528E+06
 0.11647000E+03 -0.36092E+06
 0.11652000E+03 -0.40226E+06
 0.11657000E+03 -0.42638E+06
 0.11662000E+03 -0.41182E+06
 0.11667000E+03 -0.37938E+06
 0.11672000E+03 -0.35320E+06
 0.11677000E+03 -0.34495E+06
 0.11682000E+03 -0.36094E+06
 0.11687000E+03 -0.37943E+06
 0.11692000E+03 -0.38689E+06
 0.11697000E+03 -0.38270E+06
 0.11702000E+03 -0.38604E+06
 0.11707000E+03 -0.41231E+06
 0.11712000E+03 -0.44092E+06
 0.11717000E+03 -0.46235E+06
 0.11722000E+03 -0.47251E+06
 0.11727000E+03 -0.45822E+06
 0.11732000E+03 -0.40900E+06
 0.11737000E+03 -0.33541E+06
 0.11742000E+03 -0.25961E+06
 0.11747000E+03 -0.18934E+06
 0.11752000E+03 -0.13093E+06
 0.11757000E+03 -0.87299E+05
 0.11762000E+03 -0.64104E+05
 0.11767000E+03 -0.56788E+05
 0.11772000E+03 -0.65485E+05
 0.11777000E+03 -0.89984E+05
 0.11782000E+03 -0.10996E+06
 0.11787000E+03 -0.11037E+06
 0.11792000E+03 -0.73183E+05
 0.11797000E+03 -0.72140E+04
 0.11802000E+03  0.69045E+05
 0.11807000E+03  0.13809E+06
 0.11812000E+03  0.17696E+06
 0.11817000E+03  0.19454E+06
 0.11822000E+03  0.21042E+06
 0.11827000E+03  0.21662E+06
 0.11832000E+03  0.18648E+06
 0.11837000E+03  0.15049E+06
 0.11842000E+03  0.14468E+06
 0.11847000E+03  0.14951E+06
 0.11852000E+03  0.15635E+06
 0.11857000E+03  0.15676E+06
 0.11862000E+03  0.14640E+06
 0.11867000E+03  0.13248E+06
 0.11872000E+03  0.12422E+06
 0.11877000E+03  0.13987E+06
 0.11882000E+03  0.17141E+06
 0.11887000E+03  0.20212E+06
 0.11892000E+03  0.22894E+06
 0.11897000E+03  0.24202E+06
 0.11902000E+03  0.23434E+06
 0.11907000E+03  0.21893E+06
 0.11912000E+03  0.21048E+06
 0.11917000E+03  0.21158E+06
 0.11922000E+03  0.21720E+06
 0.11927000E+03  0.22205E+06
 0.11932000E+03  0.22860E+06
 0.11937000E+03  0.24053E+06
 0.11942000E+03  0.27217E+06
 0.11947000E+03  0.31754E+06
 0.11952000E+03  0.33658E+06
 0.11957000E+03  0.32304E+06
 0.11962000E+03  0.28668E+06
 0.11967000E+03  0.23168E+06
 0.11972000E+03  0.19702E+06
 0.11977000E+03  0.20352E+06
 0.11982000E+03  0.22276E+06
 0.11987000E+03  0.23310E+06
 0.11992000E+03  0.22804E+06
 0.11997000E+03  0.21284E+06
 0.12002000E+03  0.19809E+06
 0.12007000E+03  0.18507E+06
 0.12012000E+03  0.18264E+06
 0.12017000E+03  0.18700E+06
 0.12022000E+03  0.19460E+06
 0.12027000E+03  0.21936E+06
 0.12032000E+03  0.25554E+06
 0.12037000E+03  0.29372E+06
 0.12042000E+03  0.33196E+06
 0.12047000E+03  0.37496E+06
 0.12052000E+03  0.41793E+06
 0.12057000E+03  0.44222E+06
 0.12062000E+03  0.44748E+06
 0.12067000E+03  0.42984E+06
 0.12072000E+03  0.39542E+06
 0.12077000E+03  0.36914E+06
 0.12082000E+03  0.36016E+06
 0.12087000E+03  0.36055E+06
 0.12092000E+03  0.34625E+06
 0.12097000E+03  0.31576E+06
 0.12102000E+03  0.28149E+06
 0.12107000E+03  0.24801E+06
 0.12112000E+03  0.21971E+06
 0.12117000E+03  0.18816E+06
 0.12122000E+03  0.17148E+06
 0.12127000E+03  0.18903E+06
 0.12132000E+03  0.23093E+06
 0.12137000E+03  0.26953E+06
 0.12142000E+03  0.28588E+06
 0.12147000E+03  0.29085E+06
 0.12152000E+03  0.28842E+06
 0.12157000E+03  0.28777E+06
 0.12162000E+03  0.29041E+06
 0.12167000E+03  0.28969E+06
 0.12172000E+03  0.28791E+06
 0.12177000E+03  0.28439E+06
 0.12182000E+03  0.27227E+06
 0.12187000E+03  0.25088E+06
 0.12192000E+03  0.23444E+06
 0.12197000E+03  0.21666E+06
 0.12202000E+03  0.19436E+06
 0.12207000E+03  0.18744E+06
 0.12212000E+03  0.20886E+06
 0.12217000E+03  0.25019E+06
 0.12222000E+03  0.31239E+06
 0.12227000E+03  0.38971E+06
 0.12232000E+03  0.43715E+06
 0.12237000E+03  0.44889E+06
 0.12242000E+03  0.44342E+06
 0.12247000E+03  0.42774E+06
 0.12252000E+03  0.41930E+06
 0.12257000E+03  0.41141E+06
 0.12262000E+03  0.39044E+06
 0.12267000E+03  0.36210E+06
 0.12272000E+03  0.33201E+06
 0.12277000E+03  0.31231E+06
 0.12282000E+03  0.31223E+06
 0.12287000E+03  0.31077E+06
 0.12292000E+03  0.29840E+06
 0.12297000E+03  0.28248E+06
 0.12302000E+03  0.25423E+06
 0.12307000E+03  0.20939E+06
 0.12312000E+03  0.16029E+06
 0.12317000E+03  0.11989E+06
 0.12322000E+03  0.81411E+05
 0.12327000E+03  0.31625E+05
 0.12332000E+03 -0.30098E+05
 0.12337000E+03 -0.92196E+05
 0.12342000E+03 -0.14186E+06
 0.12347000E+03 -0.16741E+06
 0.12352000E+03 -0.17202E+06
 0.12357000E+03 -0.17799E+06
 0.12362000E+03 -0.20402E+06
 0.12367000E+03 -0.24130E+06
 0.12372000E+03 -0.26811E+06
 0.12377000E+03 -0.28630E+06
 0.12382000E+03 -0.28870E+06
 0.12387000E+03 -0.27531E+06
 0.12392000E+03 -0.26332E+06
 0.12397000E+03 -0.25168E+06
 0.12402000E+03 -0.23510E+06
 0.12407000E+03 -0.20926E+06
 0.12412000E+03 -0.18374E+06
 0.12417000E+03 -0.16437E+06
 0.12422000E+03 -0.13370E+06
 0.12427000E+03 -0.84140E+05
 0.12432000E+03 -0.42580E+05
 0.12437000E+03 -0.30280E+05
 0.12442000E+03 -0.31495E+05
 0.12447000E+03 -0.39096E+05
 0.12452000E+03 -0.60150E+05
 0.12457000E+03 -0.94782E+05
 0.12462000E+03 -0.12276E+06
 0.12467000E+03 -0.12042E+06
 0.12472000E+03 -0.10714E+06
 0.12477000E+03 -0.11235E+06
 0.12482000E+03 -0.13178E+06
 0.12487000E+03 -0.14266E+06
 0.12492000E+03 -0.13683E+06
 0.12497000E+03 -0.13828E+06
 0.12502000E+03 -0.16684E+06
 0.12507000E+03 -0.20365E+06
 0.12512000E+03 -0.22909E+06
 0.12517001E+03 -0.24363E+06
 0.12521999E+03 -0.25352E+06
 0.12527000E+03 -0.26387E+06
 0.12532000E+03 -0.26780E+06
 0.12537000E+03 -0.26720E+06
 0.12542001E+03 -0.27094E+06
 0.12546999E+03 -0.27282E+06
 0.12552000E+03 -0.28019E+06
 0.12557000E+03 -0.28875E+06
 0.12562000E+03 -0.27821E+06
 0.12567001E+03 -0.26726E+06
 0.12571999E+03 -0.26909E+06
 0.12577000E+03 -0.27730E+06
 0.12582000E+03 -0.29336E+06
 0.12587000E+03 -0.30577E+06
 0.12592001E+03 -0.30634E+06
 0.12596999E+03 -0.30309E+06
 0.12602000E+03 -0.30405E+06
 0.12607000E+03 -0.31872E+06
 0.12612000E+03 -0.33691E+06
 0.12617001E+03 -0.34452E+06
 0.12621999E+03 -0.34032E+06
 0.12627000E+03 -0.31566E+06
 0.12632000E+03 -0.28517E+06
 0.12637000E+03 -0.25760E+06
 0.12642001E+03 -0.22264E+06
 0.12646999E+03 -0.19199E+06
 0.12652000E+03 -0.17171E+06
 0.12657000E+03 -0.14398E+06
 0.12662000E+03 -0.10317E+06
 0.12667001E+03 -0.62488E+05
 0.12671999E+03 -0.26556E+05
 0.12677000E+03  0.42810E+04
 0.12682000E+03  0.36545E+05
 0.12687000E+03  0.67949E+05
 0.12692001E+03  0.74413E+05
 0.12696999E+03  0.65257E+05
 0.12702000E+03  0.73261E+05
 0.12707000E+03  0.90462E+05
 0.12712000E+03  0.97442E+05
 0.12717001E+03  0.81209E+05
 0.12721999E+03  0.40752E+05
 0.12727000E+03  0.31580E+04
 0.12732000E+03 -0.40081E+05
 0.12737000E+03 -0.10066E+06
 0.12742001E+03 -0.14898E+06
 0.12746999E+03 -0.17014E+06
 0.12752000E+03 -0.18185E+06
 0.12757000E+03 -0.20943E+06
 0.12762000E+03 -0.24077E+06
 0.12767001E+03 -0.26038E+06
 0.12771999E+03 -0.27029E+06
 0.12777000E+03 -0.26863E+06
 0.12782000E+03 -0.25805E+06
 0.12787000E+03 -0.23756E+06
 0.12792001E+03 -0.21524E+06
 0.12796999E+03 -0.18665E+06
 0.12802000E+03 -0.14969E+06
 0.12807001E+03 -0.11730E+06
 0.12812001E+03 -0.79832E+05
 0.12817001E+03 -0.36610E+05
 0.12822000E+03  0.66470E+04
 0.12827000E+03  0.44128E+05
 0.12832001E+03  0.62127E+05
 0.12837001E+03  0.72178E+05
 0.12842001E+03  0.77601E+05
 0.12847000E+03  0.65413E+05
 0.12852000E+03  0.52475E+05
 0.12857001E+03  0.53153E+05
 0.12862001E+03  0.59456E+05
 0.12867001E+03  0.60412E+05
 0.12872000E+03  0.52776E+05
 0.12877000E+03  0.38751E+05
 0.12882001E+03  0.10429E+05
 0.12887001E+03 -0.22843E+05
 0.12892001E+03 -0.30165E+05
 0.12897000E+03 -0.12999E+05
 0.12902000E+03  0.47100E+04
 0.12907001E+03  0.25765E+05
 0.12912001E+03  0.52045E+05
 0.12917001E+03  0.79046E+05
 0.12922000E+03  0.11018E+06
 0.12927000E+03  0.13194E+06
 0.12932001E+03  0.13969E+06
 0.12937001E+03  0.14910E+06
 0.12942001E+03  0.16546E+06
 0.12947000E+03  0.17731E+06
 0.12952000E+03  0.17614E+06
 0.12957001E+03  0.17517E+06
 0.12962001E+03  0.18329E+06
 0.12967001E+03  0.19020E+06
 0.12972000E+03  0.19458E+06
 0.12977000E+03  0.19751E+06
 0.12982001E+03  0.19087E+06
 0.12987001E+03  0.17702E+06
 0.12992001E+03  0.16426E+06
 0.12997000E+03  0.15055E+06
 0.13002000E+03  0.13754E+06
 0.13007001E+03  0.11940E+06
 0.13012001E+03  0.89257E+05
 0.13017001E+03  0.69616E+05
 0.13022000E+03  0.68814E+05
 0.13027000E+03  0.78421E+05
 0.13032001E+03  0.96447E+05
 0.13037001E+03  0.11632E+06
 0.13042001E+03  0.14078E+06
 0.13047000E+03  0.15668E+06
 0.13052000E+03  0.15053E+06
 0.13057001E+03  0.14324E+06
 0.13062001E+03  0.14043E+06
 0.13067001E+03  0.13316E+06
 0.13072000E+03  0.11646E+06
 0.13077000E+03  0.82187E+05
 0.13082001E+03  0.29747E+05
 0.13087001E+03 -0.28516E+05
 0.13092001E+03 -0.68756E+05
 0.13097000E+03 -0.89062E+05
 0.13102000E+03 -0.10721E+06
 0.13107001E+03 -0.12710E+06
 0.13112001E+03 -0.13659E+06
 0.13117001E+03 -0.12480E+06
 0.13122000E+03 -0.10367E+06
 0.13127000E+03 -0.81460E+05
 0.13132001E+03 -0.48340E+05
 0.13137001E+03 -0.11811E+05
 0.13142001E+03  0.10088E+05
 0.13147000E+03  0.16160E+05
 0.13152000E+03  0.19477E+05
 0.13157001E+03  0.37939E+05
 0.13162001E+03  0.71391E+05
 0.13167001E+03  0.99721E+05
 0.13172000E+03  0.11705E+06
 0.13177000E+03  0.13508E+06
 0.13182001E+03  0.14262E+06
 0.13187001E+03  0.11871E+06
 0.13192001E+03  0.84632E+05
 0.13197000E+03  0.58295E+05
 0.13202000E+03  0.33096E+05
 0.13207001E+03  0.11608E+05
 0.13212001E+03 -0.14278E+05
 0.13217001E+03 -0.42620E+05
 0.13222000E+03 -0.58449E+05
 0.13227000E+03 -0.63415E+05
 0.13232001E+03 -0.57826E+05
 0.13237001E+03 -0.41348E+05
 0.13242001E+03 -0.15572E+05
 0.13247000E+03  0.18784E+05
 0.13252000E+03  0.48572E+05
 0.13257001E+03  0.56355E+05
 0.13262001E+03  0.50093E+05
 0.13267001E+03  0.48632E+05
 0.13272000E+03  0.52564E+05
 0.13277000E+03  0.55843E+05
 0.13282001E+03  0.55128E+05
 0.13287001E+03  0.54822E+05
 0.13292001E+03  0.52975E+05
 0.13297000E+03  0.45376E+05
 0.13302000E+03  0.38222E+05
 0.13307001E+03  0.31000E+05
 0.13312001E+03  0.25913E+05
 0.13317001E+03  0.39289E+05
 0.13322000E+03  0.76599E+05
 0.13327000E+03  0.11297E+06
 0.13332001E+03  0.13037E+06
 0.13337001E+03  0.14135E+06
 0.13342001E+03  0.15067E+06
 0.13347000E+03  0.15198E+06
 0.13352000E+03  0.14347E+06
 0.13357001E+03  0.13042E+06
 0.13362001E+03  0.13359E+06
 0.13367001E+03  0.15194E+06
 0.13372000E+03  0.17088E+06
 0.13377000E+03  0.18618E+06
 0.13382001E+03  0.19151E+06
 0.13387001E+03  0.19336E+06
 0.13392001E+03  0.18630E+06
 0.13397000E+03  0.15506E+06
 0.13402000E+03  0.10118E+06
 0.13407001E+03  0.42252E+05
 0.13412001E+03 -0.30710E+04
 0.13417001E+03 -0.35338E+05
 0.13422000E+03 -0.65990E+05
 0.13427000E+03 -0.10715E+06
 0.13432001E+03 -0.15770E+06
 0.13437001E+03 -0.21188E+06
 0.13442001E+03 -0.26578E+06
 0.13447000E+03 -0.31291E+06
 0.13452000E+03 -0.34489E+06
 0.13457001E+03 -0.35027E+06
 0.13462001E+03 -0.33369E+06
 0.13467001E+03 -0.31171E+06
 0.13472000E+03 -0.29829E+06
 0.13477000E+03 -0.29136E+06
 0.13482001E+03 -0.27515E+06
 0.13487001E+03 -0.25351E+06
 0.13492001E+03 -0.24181E+06
 0.13497000E+03 -0.23925E+06
 0.13502000E+03 -0.23318E+06
 0.13507001E+03 -0.21488E+06
 0.13512001E+03 -0.18558E+06
 0.13517001E+03 -0.15488E+06
 0.13522000E+03 -0.12625E+06
 0.13527000E+03 -0.96378E+05
 0.13532001E+03 -0.71143E+05
 0.13537001E+03 -0.55994E+05
 0.13542001E+03 -0.52785E+05
 0.13547000E+03 -0.55221E+05
 0.13552000E+03 -0.52353E+05
 0.13557001E+03 -0.40134E+05
 0.13562001E+03 -0.22570E+05
 0.13567001E+03 -0.49900E+04
 0.13572000E+03  0.17953E+05
 0.13577000E+03  0.45459E+05
 0.13582001E+03  0.62409E+05
 0.13587001E+03  0.64261E+05
 0.13592001E+03  0.59405E+05
 0.13597000E+03  0.46707E+05
 0.13602000E+03  0.39233E+05
 0.13607001E+03  0.43392E+05
 0.13612001E+03  0.43688E+05
 0.13617001E+03  0.36303E+05
 0.13622000E+03  0.23107E+05
 0.13627000E+03  0.11655E+05
 0.13632001E+03 -0.11460E+04
 0.13637001E+03 -0.10844E+05
 0.13642001E+03 -0.80820E+04
 0.13647000E+03 -0.46260E+04
 0.13652000E+03 -0.93200E+04
 0.13657001E+03 -0.16988E+05
 0.13662001E+03 -0.23663E+05
 0.13667001E+03 -0.37897E+05
 0.13672000E+03 -0.53657E+05
 0.13677000E+03 -0.61998E+05
 0.13682001E+03 -0.69045E+05
 0.13687001E+03 -0.80331E+05
 0.13692001E+03 -0.95470E+05
 0.13697000E+03 -0.10468E+06
 0.13702000E+03 -0.10080E+06
 0.13707001E+03 -0.83561E+05
 0.13712001E+03 -0.64594E+05
 0.13717001E+03 -0.57167E+05
 0.13722000E+03 -0.62625E+05
 0.13727000E+03 -0.77136E+05
 0.13732001E+03 -0.86458E+05
 0.13737001E+03 -0.86283E+05
 0.13742001E+03 -0.91839E+05
 0.13747000E+03 -0.10644E+06
 0.13752000E+03 -0.11515E+06
 0.13757001E+03 -0.10829E+06
 0.13762001E+03 -0.92880E+05
 0.13767001E+03 -0.79271E+05
 0.13772000E+03 -0.76324E+05
 0.13777000E+03 -0.82457E+05
 0.13782001E+03 -0.87336E+05
 0.13787001E+03 -0.90983E+05
 0.13792001E+03 -0.92303E+05
 0.13797000E+03 -0.89495E+05
 0.13802000E+03 -0.84595E+05
 0.13807001E+03 -0.82332E+05
 0.13812001E+03 -0.80670E+05
 0.13817001E+03 -0.67582E+05
 0.13822000E+03 -0.43595E+05
 0.13827000E+03 -0.15530E+05
 0.13832001E+03  0.10944E+05
 0.13837001E+03  0.35891E+05
 0.13842001E+03  0.63709E+05
 0.13847000E+03  0.89863E+05
 0.13852000E+03  0.10686E+06
 0.13857001E+03  0.12155E+06
 0.13862001E+03  0.14580E+06
 0.13867001E+03  0.17265E+06
 0.13872000E+03  0.19154E+06
 0.13877000E+03  0.20135E+06
 0.13882001E+03  0.20505E+06
 0.13887001E+03  0.20925E+06
 0.13892001E+03  0.21330E+06
 0.13897000E+03  0.20952E+06
 0.13902000E+03  0.20026E+06
 0.13907001E+03  0.19552E+06
 0.13912001E+03  0.18921E+06
 0.13917001E+03  0.16258E+06
 0.13922000E+03  0.11843E+06
 0.13927000E+03  0.76793E+05
 0.13932001E+03  0.49894E+05
 0.13937001E+03  0.25718E+05
 0.13942001E+03 -0.10662E+05
 0.13947000E+03 -0.45356E+05
 0.13952000E+03 -0.67826E+05
 0.13957001E+03 -0.85180E+05
 0.13962001E+03 -0.98556E+05
 0.13967001E+03 -0.10102E+06
 0.13972000E+03 -0.94805E+05
 0.13977000E+03 -0.82370E+05
 0.13982001E+03 -0.60476E+05
 0.13987001E+03 -0.39901E+05
 0.13992001E+03 -0.29114E+05
 0.13997000E+03 -0.23297E+05
 0.14002000E+03 -0.12405E+05
 0.14007001E+03  0.62160E+04
 0.14012001E+03  0.16031E+05
 0.14017001E+03  0.35790E+04
 0.14022000E+03 -0.23622E+05
 0.14027000E+03 -0.44411E+05
 0.14032001E+03 -0.46120E+05
 0.14037001E+03 -0.33475E+05
 0.14042001E+03 -0.20004E+05
 0.14047000E+03 -0.13170E+05
 0.14052000E+03 -0.99250E+04
 0.14057001E+03 -0.13523E+05
 0.14062001E+03 -0.17192E+05
 0.14067001E+03 -0.11463E+05
 0.14072000E+03 -0.44600E+03
 0.14077000E+03  0.16729E+05
 0.14082001E+03  0.34858E+05
 0.14087001E+03  0.44486E+05
 0.14092001E+03  0.49111E+05
 0.14097000E+03  0.61951E+05
 0.14102000E+03  0.83236E+05
 0.14107001E+03  0.96507E+05
 0.14112001E+03  0.96561E+05
 0.14117001E+03  0.89714E+05
 0.14122000E+03  0.84337E+05
 0.14127000E+03  0.93234E+05
 0.14132001E+03  0.11553E+06
 0.14137001E+03  0.13906E+06
 0.14142001E+03  0.15877E+06
 0.14147000E+03  0.17319E+06
 0.14152000E+03  0.18274E+06
 0.14157001E+03  0.17967E+06
 0.14162001E+03  0.16602E+06
 0.14167001E+03  0.15589E+06
 0.14172000E+03  0.15105E+06
 0.14177000E+03  0.14916E+06
 0.14182001E+03  0.15120E+06
 0.14187001E+03  0.16472E+06
 0.14192001E+03  0.18010E+06
 0.14197000E+03  0.18510E+06
 0.14202000E+03  0.19288E+06
 0.14207001E+03  0.20574E+06
 0.14212001E+03  0.22002E+06
 0.14217001E+03  0.23591E+06
 0.14222000E+03  0.24496E+06
 0.14227000E+03  0.24204E+06
 0.14232001E+03  0.22040E+06
 0.14237001E+03  0.18505E+06
 0.14242001E+03  0.14949E+06
 0.14247000E+03  0.10525E+06
 0.14252000E+03  0.55633E+05
 0.14257001E+03  0.19087E+05
 0.14262001E+03 -0.14500E+04
 0.14267001E+03 -0.34240E+04
 0.14272000E+03  0.81790E+04
 0.14277000E+03  0.15821E+05
 0.14282001E+03  0.46390E+04
 0.14287001E+03 -0.21419E+05
 0.14292001E+03 -0.41537E+05
 0.14297000E+03 -0.46699E+05
 0.14302000E+03 -0.37389E+05
 0.14307001E+03 -0.22543E+05
 0.14312001E+03 -0.11644E+05
 0.14317001E+03 -0.99540E+04
 0.14322000E+03 -0.14056E+05
 0.14327000E+03 -0.66580E+04
 0.14332001E+03  0.27660E+04
 0.14337001E+03  0.10945E+05
 0.14342001E+03  0.34429E+05
 0.14347000E+03  0.63788E+05
 0.14352000E+03  0.94697E+05
 0.14357001E+03  0.12488E+06
 0.14362001E+03  0.13766E+06
 0.14367001E+03  0.12648E+06
 0.14372000E+03  0.93865E+05
 0.14377000E+03  0.54014E+05
 0.14382001E+03  0.23190E+05
 0.14387001E+03 -0.40000E+01
 0.14392001E+03 -0.21580E+05
 0.14397000E+03 -0.47096E+05
 0.14402000E+03 -0.82472E+05
 0.14407001E+03 -0.11858E+06
 0.14412001E+03 -0.14189E+06
 0.14417001E+03 -0.15294E+06
 0.14422000E+03 -0.15652E+06
 0.14427000E+03 -0.15606E+06
 0.14432001E+03 -0.15149E+06
 0.14437001E+03 -0.14168E+06
 0.14442001E+03 -0.13699E+06
 0.14447000E+03 -0.14367E+06
 0.14452000E+03 -0.15003E+06
 0.14457001E+03 -0.14827E+06
 0.14462001E+03 -0.13221E+06
 0.14467001E+03 -0.10421E+06
 0.14472000E+03 -0.81391E+05
 0.14477000E+03 -0.58626E+05
 0.14482001E+03 -0.28758E+05
 0.14487001E+03 -0.20570E+04
 0.14492001E+03  0.14236E+05
 0.14497000E+03  0.21141E+05
 0.14502000E+03  0.25402E+05
 0.14507001E+03  0.32359E+05
 0.14512001E+03  0.38601E+05
 0.14517001E+03  0.31846E+05
 0.14522000E+03  0.19564E+05
 0.14527000E+03  0.17677E+05
 0.14532001E+03  0.22417E+05
 0.14537001E+03  0.26267E+05
 0.14542001E+03  0.28279E+05
 0.14547000E+03  0.26807E+05
 0.14552000E+03  0.18876E+05
 0.14557001E+03  0.60210E+04
 0.14562001E+03 -0.13329E+05
 0.14567001E+03 -0.36371E+05
 0.14572000E+03 -0.61810E+05
 0.14577000E+03 -0.86537E+05
 0.14582001E+03 -0.95701E+05
 0.14587001E+03 -0.94425E+05
 0.14592001E+03 -0.97417E+05
 0.14597000E+03 -0.10529E+06
 0.14602000E+03 -0.11491E+06
 0.14607001E+03 -0.12705E+06
 0.14612001E+03 -0.13581E+06
 0.14617001E+03 -0.13330E+06
 0.14622000E+03 -0.12372E+06
 0.14627000E+03 -0.11038E+06
 0.14632001E+03 -0.94971E+05
 0.14637001E+03 -0.77747E+05
 0.14642001E+03 -0.61882E+05
 0.14647000E+03 -0.53351E+05
 0.14652000E+03 -0.51739E+05
 0.14657001E+03 -0.56210E+05
 0.14662001E+03 -0.58583E+05
 0.14667001E+03 -0.53502E+05
 0.14672000E+03 -0.45233E+05
 0.14677000E+03 -0.37507E+05
 0.14682001E+03 -0.37689E+05
 0.14687001E+03 -0.50583E+05
 0.14692001E+03 -0.63967E+05
 0.14697000E+03 -0.68181E+05
 0.14702000E+03 -0.78857E+05
 0.14707001E+03 -0.99095E+05
 0.14712001E+03 -0.11118E+06
 0.14717001E+03 -0.11430E+06
 0.14722000E+03 -0.11731E+06
 0.14727000E+03 -0.11907E+06
 0.14732001E+03 -0.12010E+06
 0.14737001E+03 -0.12184E+06
 0.14742001E+03 -0.11617E+06
 0.14747000E+03 -0.10025E+06
 0.14752000E+03 -0.78838E+05
 0.14757001E+03 -0.55185E+05
 0.14762001E+03 -0.35965E+05
 0.14767001E+03 -0.24303E+05
 0.14772000E+03 -0.12003E+05
 0.14777000E+03 -0.22710E+04
 0.14782001E+03 -0.27750E+04
 0.14787001E+03 -0.28770E+04
 0.14792001E+03  0.50160E+04
 0.14797000E+03  0.14334E+05
 0.14802000E+03  0.22529E+05
 0.14807001E+03  0.31928E+05
 0.14812001E+03  0.39496E+05
 0.14817001E+03  0.41155E+05
 0.14822000E+03  0.33360E+05
 0.14827000E+03  0.20522E+05
 0.14832001E+03  0.11884E+05
 0.14837001E+03  0.88950E+04
 0.14842001E+03  0.72690E+04
 0.14847000E+03  0.20800E+04
 0.14852000E+03 -0.46500E+04
 0.14857001E+03 -0.11575E+05
 0.14862001E+03 -0.18696E+05
 0.14867001E+03 -0.21079E+05
 0.14872000E+03 -0.18144E+05
 0.14877000E+03 -0.11608E+05
 0.14882001E+03 -0.48270E+04
 0.14887001E+03 -0.19180E+04
 0.14892001E+03 -0.58950E+04
 0.14897000E+03 -0.18871E+05
 0.14902000E+03 -0.34959E+05
 0.14907001E+03 -0.46070E+05
 0.14912001E+03 -0.50296E+05
 0.14917001E+03 -0.54924E+05
 0.14922000E+03 -0.64458E+05
 0.14927000E+03 -0.72741E+05
 0.14932001E+03 -0.74195E+05
 0.14937001E+03 -0.66307E+05
 0.14942001E+03 -0.47897E+05
 0.14947000E+03 -0.23071E+05
 0.14952000E+03  0.83700E+03
 0.14957001E+03  0.25262E+05
 0.14962001E+03  0.45248E+05
 0.14967001E+03  0.48245E+05
 0.14972000E+03  0.39951E+05
 0.14977000E+03  0.33961E+05
 0.14982001E+03  0.40563E+05
 0.14987001E+03  0.60718E+05
 0.14992001E+03  0.84434E+05
 0.14997000E+03  0.10747E+06
