-0.29800000E+01 -0.12887E+06
-0.29300001E+01 -0.12990E+06
-0.28800001E+01 -0.12657E+06
-0.28299999E+01 -0.11960E+06
-0.27800000E+01 -0.11093E+06
-0.27300000E+01 -0.10244E+06
-0.26800001E+01 -0.94237E+05
-0.26300001E+01 -0.84501E+05
-0.25799999E+01 -0.72092E+05
-0.25300000E+01 -0.57260E+05
-0.24800000E+01 -0.39479E+05
-0.24300001E+01 -0.17908E+05
-0.23800001E+01  0.60270E+04
-0.23299999E+01  0.29073E+05
-0.22800000E+01  0.48315E+05
-0.22300000E+01  0.63216E+05
-0.21800001E+01  0.75232E+05
-0.21300001E+01  0.85419E+05
-0.20799999E+01  0.94743E+05
-0.20300000E+01  0.10366E+06
-0.19800000E+01  0.11070E+06
-0.19299999E+01  0.11462E+06
-0.18800000E+01  0.11635E+06
-0.18300000E+01  0.11696E+06
-0.17800000E+01  0.11610E+06
-0.17300000E+01  0.11233E+06
-0.16799999E+01  0.10304E+06
-0.16300000E+01  0.87596E+05
-0.15800000E+01  0.68125E+05
-0.15300000E+01  0.45844E+05
-0.14800000E+01  0.22440E+05
-0.14299999E+01 -0.19400E+03
-0.13800000E+01 -0.22489E+05
-0.13300000E+01 -0.44302E+05
-0.12800000E+01 -0.64773E+05
-0.12300000E+01 -0.83719E+05
-0.11799999E+01 -0.10131E+06
-0.11300000E+01 -0.11888E+06
-0.10800000E+01 -0.13644E+06
-0.10300000E+01 -0.15299E+06
-0.98000002E+00 -0.16693E+06
-0.93000007E+00 -0.17425E+06
-0.87999988E+00 -0.17321E+06
-0.82999992E+00 -0.16550E+06
-0.77999997E+00 -0.15218E+06
-0.73000002E+00 -0.13377E+06
-0.68000007E+00 -0.11180E+06
-0.62999988E+00 -0.88623E+05
-0.57999992E+00 -0.65895E+05
-0.52999997E+00 -0.44324E+05
-0.48000002E+00 -0.23901E+05
-0.43000007E+00 -0.42800E+04
-0.37999988E+00  0.15284E+05
-0.32999992E+00  0.35111E+05
-0.27999997E+00  0.54050E+05
-0.23000002E+00  0.70972E+05
-0.18000007E+00  0.85635E+05
-0.12999988E+00  0.98751E+05
-0.79999924E-01  0.11069E+06
-0.29999971E-01  0.12091E+06
 0.19999981E-01  0.12872E+06
 0.69999933E-01  0.13410E+06
 0.12000012E+00  0.13737E+06
 0.17000008E+00  0.13774E+06
 0.22000003E+00  0.13406E+06
 0.26999998E+00  0.12427E+06
 0.31999993E+00  0.10580E+06
 0.37000012E+00  0.78712E+05
 0.42000008E+00  0.44765E+05
 0.47000003E+00  0.42850E+04
 0.51999998E+00 -0.42867E+05
 0.56999993E+00 -0.95845E+05
 0.62000012E+00 -0.15307E+06
 0.67000008E+00 -0.21198E+06
 0.72000003E+00 -0.26873E+06
 0.76999998E+00 -0.31940E+06
 0.81999993E+00 -0.36163E+06
 0.87000012E+00 -0.39333E+06
 0.92000008E+00 -0.41272E+06
 0.97000003E+00 -0.41894E+06
 0.10200000E+01 -0.41161E+06
 0.10700002E+01 -0.39106E+06
 0.11199999E+01 -0.35862E+06
 0.11700001E+01 -0.31548E+06
 0.12200003E+01 -0.26153E+06
 0.12700000E+01 -0.19840E+06
 0.13200002E+01 -0.12999E+06
 0.13699999E+01 -0.59761E+05
 0.14200001E+01  0.10918E+05
 0.14700003E+01  0.82124E+05
 0.15200000E+01  0.15216E+06
 0.15700002E+01  0.21871E+06
 0.16199999E+01  0.28116E+06
 0.16700001E+01  0.33926E+06
 0.17200003E+01  0.39208E+06
 0.17700000E+01  0.43787E+06
 0.18200002E+01  0.47509E+06
 0.18699999E+01  0.50199E+06
 0.19200001E+01  0.51737E+06
 0.19700003E+01  0.52128E+06
 0.20200000E+01  0.51511E+06
 0.20700002E+01  0.50178E+06
 0.21199999E+01  0.48258E+06
 0.21700001E+01  0.45758E+06
 0.22200003E+01  0.42677E+06
 0.22700000E+01  0.38883E+06
 0.23200002E+01  0.34353E+06
 0.23699999E+01  0.29258E+06
 0.24200001E+01  0.23684E+06
 0.24700003E+01  0.17763E+06
 0.25200000E+01  0.11712E+06
 0.25700002E+01  0.55585E+05
 0.26199999E+01 -0.68150E+04
 0.26700001E+01 -0.67707E+05
 0.27200003E+01 -0.12435E+06
 0.27700000E+01 -0.17664E+06
 0.28200002E+01 -0.22394E+06
 0.28699999E+01 -0.26444E+06
 0.29200001E+01 -0.29865E+06
 0.29700003E+01 -0.32881E+06
 0.30200000E+01 -0.35759E+06
 0.30700002E+01 -0.38498E+06
 0.31199999E+01 -0.40821E+06
 0.31700001E+01 -0.42514E+06
 0.32200003E+01 -0.43456E+06
 0.32700000E+01 -0.43651E+06
 0.33200002E+01 -0.43153E+06
 0.33699999E+01 -0.41874E+06
 0.34200001E+01 -0.39648E+06
 0.34700003E+01 -0.36292E+06
 0.35200000E+01 -0.31870E+06
 0.35700002E+01 -0.26638E+06
 0.36199999E+01 -0.20633E+06
 0.36700001E+01 -0.13940E+06
 0.37200003E+01 -0.67644E+05
 0.37700000E+01  0.66330E+04
 0.38200002E+01  0.80708E+05
 0.38699999E+01  0.15178E+06
 0.39200001E+01  0.21648E+06
 0.39700003E+01  0.27213E+06
 0.40200000E+01  0.31686E+06
 0.40700002E+01  0.35165E+06
 0.41199999E+01  0.37919E+06
 0.41700001E+01  0.40010E+06
 0.42200003E+01  0.41437E+06
 0.42700000E+01  0.42028E+06
 0.43200002E+01  0.41536E+06
 0.43699999E+01  0.40007E+06
 0.44200001E+01  0.37642E+06
 0.44700003E+01  0.34642E+06
 0.45200000E+01  0.31249E+06
 0.45700002E+01  0.27589E+06
 0.46199999E+01  0.23533E+06
 0.46700001E+01  0.18988E+06
 0.47200003E+01  0.14022E+06
 0.47700000E+01  0.87537E+05
 0.48200002E+01  0.33606E+05
 0.48699999E+01 -0.20175E+05
 0.49200001E+01 -0.72775E+05
 0.49700003E+01 -0.12206E+06
 0.50200000E+01 -0.16586E+06
 0.50700002E+01 -0.20394E+06
 0.51200004E+01 -0.23730E+06
 0.51700006E+01 -0.26607E+06
 0.52199998E+01 -0.28854E+06
 0.52700000E+01 -0.30252E+06
 0.53200002E+01 -0.30631E+06
 0.53700004E+01 -0.29919E+06
 0.54200006E+01 -0.28334E+06
 0.54699998E+01 -0.26206E+06
 0.55200000E+01 -0.23819E+06
 0.55700002E+01 -0.21428E+06
 0.56200004E+01 -0.19129E+06
 0.56700006E+01 -0.16942E+06
 0.57199998E+01 -0.15028E+06
 0.57700000E+01 -0.13517E+06
 0.58200002E+01 -0.12333E+06
 0.58700004E+01 -0.11352E+06
 0.59200006E+01 -0.10368E+06
 0.59699998E+01 -0.92008E+05
 0.60200000E+01 -0.79675E+05
 0.60700002E+01 -0.69287E+05
 0.61200004E+01 -0.61092E+05
 0.61700006E+01 -0.51853E+05
 0.62199998E+01 -0.37271E+05
 0.62700000E+01 -0.15373E+05
 0.63200002E+01  0.11984E+05
 0.63700004E+01  0.42349E+05
 0.64200006E+01  0.75130E+05
 0.64699998E+01  0.11009E+06
 0.65200000E+01  0.14515E+06
 0.65700002E+01  0.17663E+06
 0.66200004E+01  0.20210E+06
 0.66700006E+01  0.22043E+06
 0.67199998E+01  0.23110E+06
 0.67700000E+01  0.23465E+06
 0.68200002E+01  0.23203E+06
 0.68700004E+01  0.22385E+06
 0.69200006E+01  0.20994E+06
 0.69699998E+01  0.19059E+06
 0.70200000E+01  0.16787E+06
 0.70700002E+01  0.14276E+06
 0.71200004E+01  0.11462E+06
 0.71700006E+01  0.84049E+05
 0.72199998E+01  0.53153E+05
 0.72700000E+01  0.24428E+05
 0.73200002E+01 -0.98800E+03
 0.73700004E+01 -0.23095E+05
 0.74200006E+01 -0.43041E+05
 0.74699998E+01 -0.61858E+05
 0.75200000E+01 -0.78969E+05
 0.75700002E+01 -0.94428E+05
 0.76200004E+01 -0.10755E+06
 0.76700006E+01 -0.11659E+06
 0.77199998E+01 -0.12080E+06
 0.77700000E+01 -0.12047E+06
 0.78200002E+01 -0.11602E+06
 0.78700004E+01 -0.10726E+06
 0.79200006E+01 -0.94672E+05
 0.79699998E+01 -0.79760E+05
 0.80200005E+01 -0.64328E+05
 0.80699997E+01 -0.48478E+05
 0.81200008E+01 -0.31049E+05
 0.81700001E+01 -0.11568E+05
 0.82199993E+01  0.93720E+04
 0.82700005E+01  0.29454E+05
 0.83199997E+01  0.46906E+05
 0.83700008E+01  0.62283E+05
 0.84200001E+01  0.75898E+05
 0.84699993E+01  0.87043E+05
 0.85200005E+01  0.96524E+05
 0.85699997E+01  0.10688E+06
 0.86200008E+01  0.11914E+06
 0.86700001E+01  0.13195E+06
 0.87199993E+01  0.14266E+06
 0.87700005E+01  0.14755E+06
 0.88199997E+01  0.14366E+06
 0.88700008E+01  0.13012E+06
 0.89200001E+01  0.10880E+06
 0.89699993E+01  0.82837E+05
 0.90200005E+01  0.51908E+05
 0.90699997E+01  0.13851E+05
 0.91200008E+01 -0.30939E+05
 0.91700001E+01 -0.79313E+05
 0.92199993E+01 -0.12754E+06
 0.92700005E+01 -0.17287E+06
 0.93199997E+01 -0.21484E+06
 0.93700008E+01 -0.25380E+06
 0.94200001E+01 -0.28714E+06
 0.94699993E+01 -0.31128E+06
 0.95200005E+01 -0.32331E+06
 0.95699997E+01 -0.32150E+06
 0.96200008E+01 -0.30663E+06
 0.96700001E+01 -0.28009E+06
 0.97199993E+01 -0.24404E+06
 0.97700005E+01 -0.20117E+06
 0.98199997E+01 -0.15277E+06
 0.98700008E+01 -0.99792E+05
 0.99200001E+01 -0.44522E+05
 0.99699993E+01  0.11153E+05
 0.10020000E+02  0.68075E+05
 0.10070000E+02  0.12666E+06
 0.10120001E+02  0.18375E+06
 0.10170000E+02  0.23441E+06
 0.10219999E+02  0.27484E+06
 0.10270000E+02  0.30287E+06
 0.10320000E+02  0.31789E+06
 0.10370001E+02  0.32112E+06
 0.10420000E+02  0.31392E+06
 0.10469999E+02  0.29672E+06
 0.10520000E+02  0.27018E+06
 0.10570000E+02  0.23639E+06
 0.10620001E+02  0.19723E+06
 0.10670000E+02  0.15284E+06
 0.10719999E+02  0.10332E+06
 0.10770000E+02  0.50018E+05
 0.10820000E+02 -0.41820E+04
 0.10870001E+02 -0.56576E+05
 0.10920000E+02 -0.10533E+06
 0.10969999E+02 -0.14767E+06
 0.11020000E+02 -0.18142E+06
 0.11070000E+02 -0.20644E+06
 0.11120001E+02 -0.22402E+06
 0.11170000E+02 -0.23632E+06
 0.11219999E+02 -0.24546E+06
 0.11270000E+02 -0.25221E+06
 0.11320000E+02 -0.25548E+06
 0.11370001E+02 -0.25370E+06
 0.11420000E+02 -0.24587E+06
 0.11469999E+02 -0.23252E+06
 0.11520000E+02 -0.21514E+06
 0.11570000E+02 -0.19384E+06
 0.11620001E+02 -0.16778E+06
 0.11670000E+02 -0.13648E+06
 0.11719999E+02 -0.10075E+06
 0.11770000E+02 -0.61562E+05
 0.11820000E+02 -0.17899E+05
 0.11870001E+02  0.31464E+05
 0.11920000E+02  0.84962E+05
 0.11969999E+02  0.13854E+06
 0.12020000E+02  0.18852E+06
 0.12070000E+02  0.23352E+06
 0.12120001E+02  0.27252E+06
 0.12170000E+02  0.30357E+06
 0.12219999E+02  0.32530E+06
 0.12270000E+02  0.33679E+06
 0.12320000E+02  0.33685E+06
 0.12370001E+02  0.32435E+06
 0.12420000E+02  0.29909E+06
 0.12469999E+02  0.26295E+06
 0.12520000E+02  0.21783E+06
 0.12570000E+02  0.16413E+06
 0.12620001E+02  0.10370E+06
 0.12670000E+02  0.41237E+05
 0.12719999E+02 -0.18397E+05
 0.12770000E+02 -0.72287E+05
 0.12820000E+02 -0.11858E+06
 0.12870001E+02 -0.15517E+06
 0.12920000E+02 -0.18095E+06
 0.12969999E+02 -0.19711E+06
 0.13020000E+02 -0.20573E+06
 0.13070002E+02 -0.20839E+06
 0.13120001E+02 -0.20611E+06
 0.13170000E+02 -0.19874E+06
 0.13220001E+02 -0.18492E+06
 0.13270000E+02 -0.16373E+06
 0.13320002E+02 -0.13571E+06
 0.13370001E+02 -0.10314E+06
 0.13420000E+02 -0.68890E+05
 0.13470001E+02 -0.35556E+05
 0.13520000E+02 -0.46490E+04
 0.13570002E+02  0.23952E+05
 0.13620001E+02  0.51200E+05
 0.13670000E+02  0.77351E+05
 0.13720001E+02  0.10056E+06
 0.13770000E+02  0.11973E+06
 0.13820002E+02  0.13639E+06
 0.13870001E+02  0.15161E+06
 0.13920000E+02  0.16480E+06
 0.13970001E+02  0.17510E+06
 0.14020000E+02  0.18290E+06
 0.14070002E+02  0.18941E+06
 0.14120001E+02  0.19498E+06
 0.14170000E+02  0.19910E+06
 0.14220001E+02  0.20032E+06
 0.14270000E+02  0.19623E+06
 0.14320002E+02  0.18459E+06
 0.14370001E+02  0.16512E+06
 0.14420000E+02  0.13929E+06
 0.14470001E+02  0.10780E+06
 0.14520000E+02  0.70807E+05
 0.14570002E+02  0.29628E+05
 0.14620001E+02 -0.13930E+05
 0.14670000E+02 -0.57775E+05
 0.14720001E+02 -0.99647E+05
 0.14770000E+02 -0.13844E+06
 0.14820002E+02 -0.17436E+06
 0.14870001E+02 -0.20735E+06
 0.14920000E+02 -0.23689E+06
 0.14970001E+02 -0.26258E+06
 0.15020000E+02 -0.28355E+06
 0.15070002E+02 -0.29870E+06
 0.15120001E+02 -0.30699E+06
 0.15170000E+02 -0.30724E+06
 0.15220001E+02 -0.29916E+06
 0.15270000E+02 -0.28230E+06
 0.15320002E+02 -0.25606E+06
 0.15370001E+02 -0.22180E+06
 0.15420000E+02 -0.18219E+06
 0.15470001E+02 -0.13922E+06
 0.15520000E+02 -0.93485E+05
 0.15570002E+02 -0.45453E+05
 0.15620001E+02  0.30160E+04
 0.15670000E+02  0.49349E+05
 0.15720001E+02  0.92248E+05
 0.15770000E+02  0.13140E+06
 0.15820002E+02  0.16592E+06
 0.15870001E+02  0.19511E+06
 0.15920000E+02  0.21870E+06
 0.15970001E+02  0.23615E+06
 0.16020000E+02  0.24754E+06
 0.16070002E+02  0.25355E+06
 0.16120001E+02  0.25608E+06
 0.16170000E+02  0.25793E+06
 0.16220001E+02  0.25956E+06
 0.16270000E+02  0.26009E+06
 0.16320002E+02  0.25704E+06
 0.16370001E+02  0.24775E+06
 0.16420000E+02  0.23195E+06
 0.16470001E+02  0.20982E+06
 0.16520000E+02  0.18191E+06
 0.16570002E+02  0.14819E+06
 0.16620001E+02  0.10786E+06
 0.16670000E+02  0.60779E+05
 0.16720001E+02  0.81900E+04
 0.16770000E+02 -0.46635E+05
 0.16820002E+02 -0.99819E+05
 0.16870001E+02 -0.14938E+06
 0.16920000E+02 -0.19536E+06
 0.16970001E+02 -0.23791E+06
 0.17020000E+02 -0.27699E+06
 0.17070002E+02 -0.31162E+06
 0.17120001E+02 -0.34085E+06
 0.17170000E+02 -0.36447E+06
 0.17220001E+02 -0.38143E+06
 0.17270000E+02 -0.39039E+06
 0.17320002E+02 -0.39039E+06
 0.17370001E+02 -0.38078E+06
 0.17420000E+02 -0.36188E+06
 0.17470001E+02 -0.33467E+06
 0.17520000E+02 -0.29866E+06
 0.17570002E+02 -0.25294E+06
 0.17620001E+02 -0.19890E+06
 0.17670000E+02 -0.13847E+06
 0.17720001E+02 -0.73739E+05
 0.17770000E+02 -0.81940E+04
 0.17820002E+02  0.54950E+05
 0.17870001E+02  0.11355E+06
 0.17920000E+02  0.16656E+06
 0.17970001E+02  0.21348E+06
 0.18020000E+02  0.25400E+06
 0.18070002E+02  0.28791E+06
 0.18120001E+02  0.31457E+06
 0.18170000E+02  0.33354E+06
 0.18220001E+02  0.34507E+06
 0.18270000E+02  0.35044E+06
 0.18320002E+02  0.35077E+06
 0.18370001E+02  0.34578E+06
 0.18420000E+02  0.33540E+06
 0.18470001E+02  0.31924E+06
 0.18520000E+02  0.29642E+06
 0.18570002E+02  0.26747E+06
 0.18620001E+02  0.23355E+06
 0.18670000E+02  0.19533E+06
 0.18720001E+02  0.15395E+06
 0.18770000E+02  0.11045E+06
 0.18820002E+02  0.65900E+05
 0.18870001E+02  0.22411E+05
 0.18920000E+02 -0.17783E+05
 0.18970001E+02 -0.53634E+05
 0.19020000E+02 -0.84670E+05
 0.19070002E+02 -0.11005E+06
 0.19120001E+02 -0.13076E+06
 0.19170000E+02 -0.14860E+06
 0.19220001E+02 -0.16349E+06
 0.19270000E+02 -0.17457E+06
 0.19320002E+02 -0.18066E+06
 0.19370001E+02 -0.18071E+06
 0.19420000E+02 -0.17476E+06
 0.19470001E+02 -0.16420E+06
 0.19520000E+02 -0.15165E+06
 0.19570002E+02 -0.13906E+06
 0.19620001E+02 -0.12629E+06
 0.19670000E+02 -0.11267E+06
 0.19720001E+02 -0.98430E+05
 0.19770000E+02 -0.84554E+05
 0.19820002E+02 -0.71411E+05
 0.19870001E+02 -0.58399E+05
 0.19920000E+02 -0.45083E+05
 0.19970001E+02 -0.31855E+05
 0.20020000E+02 -0.20195E+05
 0.20070002E+02 -0.11633E+05
 0.20120001E+02 -0.76210E+04
 0.20170000E+02 -0.89870E+04
 0.20220001E+02 -0.13888E+05
 0.20270000E+02 -0.19759E+05
 0.20320002E+02 -0.24532E+05
 0.20370001E+02 -0.26278E+05
 0.20420000E+02 -0.24580E+05
 0.20470001E+02 -0.20406E+05
 0.20520000E+02 -0.14847E+05
 0.20570002E+02 -0.85050E+04
 0.20620001E+02 -0.10380E+04
 0.20670000E+02  0.78140E+04
 0.20720001E+02  0.17109E+05
 0.20770000E+02  0.26128E+05
 0.20820002E+02  0.35260E+05
 0.20870001E+02  0.44963E+05
 0.20920000E+02  0.54422E+05
 0.20970001E+02  0.62129E+05
 0.21020000E+02  0.66800E+05
 0.21070002E+02  0.67563E+05
 0.21120001E+02  0.64044E+05
 0.21170000E+02  0.56383E+05
 0.21220001E+02  0.45509E+05
 0.21270000E+02  0.32585E+05
 0.21320002E+02  0.18738E+05
 0.21370001E+02  0.49830E+04
 0.21420000E+02 -0.80300E+04
 0.21470001E+02 -0.19998E+05
 0.21520000E+02 -0.31500E+05
 0.21570002E+02 -0.43981E+05
 0.21620001E+02 -0.57995E+05
 0.21670000E+02 -0.72607E+05
 0.21720001E+02 -0.86119E+05
 0.21770000E+02 -0.96999E+05
 0.21820002E+02 -0.10478E+06
 0.21870001E+02 -0.10812E+06
 0.21920000E+02 -0.10465E+06
 0.21970001E+02 -0.92930E+05
 0.22020000E+02 -0.72798E+05
 0.22070002E+02 -0.45987E+05
 0.22120001E+02 -0.15846E+05
 0.22170000E+02  0.14430E+05
 0.22220001E+02  0.43809E+05
 0.22270000E+02  0.72004E+05
 0.22320002E+02  0.97663E+05
 0.22370001E+02  0.11955E+06
 0.22420000E+02  0.13728E+06
 0.22470001E+02  0.15134E+06
 0.22520000E+02  0.16263E+06
 0.22570002E+02  0.17159E+06
 0.22620001E+02  0.17829E+06
 0.22670000E+02  0.18248E+06
 0.22720001E+02  0.18392E+06
 0.22770000E+02  0.18380E+06
 0.22820002E+02  0.18366E+06
 0.22870001E+02  0.18398E+06
 0.22920000E+02  0.18442E+06
 0.22970001E+02  0.18425E+06
 0.23020000E+02  0.18345E+06
 0.23070002E+02  0.18144E+06
 0.23120001E+02  0.17662E+06
 0.23170000E+02  0.16800E+06
 0.23220001E+02  0.15505E+06
 0.23270000E+02  0.13735E+06
 0.23320002E+02  0.11478E+06
 0.23370001E+02  0.88268E+05
 0.23420000E+02  0.58542E+05
 0.23470001E+02  0.25715E+05
 0.23520000E+02 -0.85800E+04
 0.23570002E+02 -0.41522E+05
 0.23620001E+02 -0.70263E+05
 0.23670000E+02 -0.93722E+05
 0.23720001E+02 -0.11200E+06
 0.23770000E+02 -0.12441E+06
 0.23820002E+02 -0.13034E+06
 0.23870001E+02 -0.12990E+06
 0.23920000E+02 -0.12449E+06
 0.23970001E+02 -0.11663E+06
 0.24020000E+02 -0.10855E+06
 0.24070002E+02 -0.10127E+06
 0.24120001E+02 -0.95681E+05
 0.24170000E+02 -0.92407E+05
 0.24220001E+02 -0.91060E+05
 0.24270000E+02 -0.91518E+05
 0.24320002E+02 -0.94122E+05
 0.24370001E+02 -0.98792E+05
 0.24420000E+02 -0.10520E+06
 0.24470001E+02 -0.11417E+06
 0.24520000E+02 -0.12722E+06
 0.24570002E+02 -0.14407E+06
 0.24620001E+02 -0.16224E+06
 0.24670000E+02 -0.17873E+06
 0.24720001E+02 -0.19110E+06
 0.24770000E+02 -0.19800E+06
 0.24820002E+02 -0.19944E+06
 0.24870001E+02 -0.19544E+06
 0.24920000E+02 -0.18550E+06
 0.24970001E+02 -0.16956E+06
 0.25020000E+02 -0.14902E+06
 0.25070002E+02 -0.12625E+06
 0.25120001E+02 -0.10278E+06
 0.25170000E+02 -0.78597E+05
 0.25220001E+02 -0.52856E+05
 0.25270000E+02 -0.25249E+05
 0.25320002E+02  0.37560E+04
 0.25370001E+02  0.32708E+05
 0.25420000E+02  0.59241E+05
 0.25470001E+02  0.80994E+05
 0.25520000E+02  0.96453E+05
 0.25570002E+02  0.10581E+06
 0.25620001E+02  0.11071E+06
 0.25670000E+02  0.11277E+06
 0.25720001E+02  0.11290E+06
 0.25770000E+02  0.11164E+06
 0.25820002E+02  0.10920E+06
 0.25870001E+02  0.10526E+06
 0.25920000E+02  0.99593E+05
 0.25970001E+02  0.93233E+05
 0.26020000E+02  0.87098E+05
 0.26070002E+02  0.80201E+05
 0.26120001E+02  0.72332E+05
 0.26170000E+02  0.64212E+05
 0.26220001E+02  0.56295E+05
 0.26270000E+02  0.49674E+05
 0.26320002E+02  0.44678E+05
 0.26370001E+02  0.40210E+05
 0.26420000E+02  0.34884E+05
 0.26470001E+02  0.27622E+05
 0.26520000E+02  0.18247E+05
 0.26570002E+02  0.84870E+04
 0.26620001E+02  0.65500E+03
 0.26670000E+02 -0.50110E+04
 0.26720001E+02 -0.92860E+04
 0.26770000E+02 -0.12844E+05
 0.26820002E+02 -0.15675E+05
 0.26870001E+02 -0.16807E+05
 0.26920000E+02 -0.15881E+05
 0.26970001E+02 -0.12736E+05
 0.27020000E+02 -0.75310E+04
 0.27070002E+02 -0.64400E+03
 0.27120001E+02  0.85930E+04
 0.27170000E+02  0.20555E+05
 0.27220001E+02  0.35000E+05
 0.27270000E+02  0.52062E+05
 0.27320002E+02  0.71474E+05
 0.27370001E+02  0.92300E+05
 0.27420000E+02  0.11434E+06
 0.27470001E+02  0.13805E+06
 0.27520000E+02  0.16251E+06
 0.27570002E+02  0.18557E+06
 0.27620001E+02  0.20575E+06
 0.27670000E+02  0.22248E+06
 0.27720001E+02  0.23575E+06
 0.27770000E+02  0.24528E+06
 0.27820002E+02  0.25049E+06
 0.27870001E+02  0.25076E+06
 0.27920000E+02  0.24485E+06
 0.27970001E+02  0.23226E+06
 0.28020000E+02  0.21362E+06
 0.28070002E+02  0.18878E+06
 0.28120001E+02  0.15688E+06
 0.28170000E+02  0.11774E+06
 0.28220001E+02  0.72337E+05
 0.28270000E+02  0.22425E+05
 0.28320002E+02 -0.30195E+05
 0.28370001E+02 -0.84635E+05
 0.28420000E+02 -0.14066E+06
 0.28470001E+02 -0.19796E+06
 0.28520000E+02 -0.25537E+06
 0.28570002E+02 -0.31041E+06
 0.28620001E+02 -0.36072E+06
 0.28670000E+02 -0.40541E+06
 0.28720001E+02 -0.44467E+06
 0.28770000E+02 -0.47840E+06
 0.28820002E+02 -0.50630E+06
 0.28870001E+02 -0.52733E+06
 0.28920000E+02 -0.53934E+06
 0.28970001E+02 -0.54109E+06
 0.29020000E+02 -0.53270E+06
 0.29070000E+02 -0.51451E+06
 0.29120003E+02 -0.48632E+06
 0.29170002E+02 -0.44834E+06
 0.29220001E+02 -0.40223E+06
 0.29270000E+02 -0.35003E+06
 0.29320000E+02 -0.29293E+06
 0.29370003E+02 -0.23123E+06
 0.29420002E+02 -0.16574E+06
 0.29470001E+02 -0.97778E+05
 0.29520000E+02 -0.29041E+05
 0.29570000E+02  0.38088E+05
 0.29620003E+02  0.10105E+06
 0.29670002E+02  0.15773E+06
 0.29720001E+02  0.20754E+06
 0.29770000E+02  0.25112E+06
 0.29820000E+02  0.28859E+06
 0.29870003E+02  0.31926E+06
 0.29920002E+02  0.34248E+06
 0.29970001E+02  0.35827E+06
 0.30020000E+02  0.36731E+06
 0.30070000E+02  0.36958E+06
 0.30120003E+02  0.36510E+06
 0.30170002E+02  0.35554E+06
 0.30220001E+02  0.34264E+06
 0.30270000E+02  0.32731E+06
 0.30320000E+02  0.31069E+06
 0.30370003E+02  0.29411E+06
 0.30420002E+02  0.27807E+06
 0.30470001E+02  0.26339E+06
 0.30520000E+02  0.25035E+06
 0.30570000E+02  0.23833E+06
 0.30620003E+02  0.22717E+06
 0.30670002E+02  0.21633E+06
 0.30720001E+02  0.20504E+06
 0.30770000E+02  0.19244E+06
 0.30820000E+02  0.17844E+06
 0.30870003E+02  0.16297E+06
 0.30920002E+02  0.14465E+06
 0.30970001E+02  0.12266E+06
 0.31020000E+02  0.96706E+05
 0.31070000E+02  0.66796E+05
 0.31120003E+02  0.34012E+05
 0.31170002E+02  0.30600E+03
 0.31220001E+02 -0.32033E+05
 0.31270000E+02 -0.61993E+05
 0.31320000E+02 -0.89471E+05
 0.31370003E+02 -0.11390E+06
 0.31420002E+02 -0.13491E+06
 0.31470001E+02 -0.15182E+06
 0.31520000E+02 -0.16419E+06
 0.31570000E+02 -0.17314E+06
 0.31620003E+02 -0.17960E+06
 0.31670002E+02 -0.18326E+06
 0.31720001E+02 -0.18318E+06
 0.31770000E+02 -0.17833E+06
 0.31820000E+02 -0.16822E+06
 0.31870003E+02 -0.15393E+06
 0.31920002E+02 -0.13810E+06
 0.31970001E+02 -0.12424E+06
 0.32020000E+02 -0.11420E+06
 0.32070000E+02 -0.10506E+06
 0.32120003E+02 -0.93587E+05
 0.32170002E+02 -0.80996E+05
 0.32220001E+02 -0.69878E+05
 0.32270000E+02 -0.63442E+05
 0.32320000E+02 -0.67417E+05
 0.32370003E+02 -0.84507E+05
 0.32420002E+02 -0.10774E+06
 0.32470001E+02 -0.12480E+06
 0.32520000E+02 -0.12914E+06
 0.32570000E+02 -0.12583E+06
 0.32620003E+02 -0.12200E+06
 0.32670002E+02 -0.11960E+06
 0.32720001E+02 -0.11982E+06
 0.32770000E+02 -0.10460E+06
 0.32820000E+02 -0.67147E+05
 0.32870003E+02 -0.29250E+05
 0.32920002E+02 -0.71630E+04
 0.32970001E+02 -0.18864E+05
 0.33020000E+02 -0.46133E+05
 0.33070000E+02 -0.57202E+05
 0.33120003E+02 -0.42156E+05
 0.33170002E+02  0.31172E+05
 0.33220001E+02  0.12855E+06
 0.33270000E+02  0.18217E+06
 0.33320000E+02  0.21576E+06
 0.33370003E+02  0.20620E+06
 0.33420002E+02  0.17558E+06
 0.33470001E+02  0.17253E+06
 0.33520000E+02  0.17070E+06
 0.33570000E+02  0.21157E+06
 0.33620003E+02  0.22705E+06
 0.33670002E+02  0.20987E+06
 0.33720001E+02  0.18881E+06
 0.33770000E+02  0.12070E+06
 0.33820000E+02  0.82437E+05
 0.33870003E+02  0.81236E+05
 0.33920002E+02  0.96181E+05
 0.33970001E+02  0.87248E+05
 0.34020000E+02  0.64749E+05
 0.34070000E+02  0.63873E+05
 0.34120003E+02  0.65142E+05
 0.34170002E+02  0.80742E+05
 0.34220001E+02  0.78152E+05
 0.34270000E+02  0.60008E+05
 0.34320000E+02 -0.16979E+05
 0.34370003E+02 -0.11002E+06
 0.34420002E+02 -0.13576E+06
 0.34470001E+02 -0.10585E+06
 0.34520000E+02 -0.21480E+04
 0.34570000E+02  0.77797E+05
 0.34620003E+02  0.11959E+06
 0.34670002E+02  0.97783E+05
 0.34720001E+02  0.44573E+05
 0.34770000E+02  0.52200E+04
 0.34820000E+02 -0.12850E+06
 0.34870003E+02 -0.18668E+06
 0.34920002E+02 -0.16219E+06
 0.34970001E+02 -0.13185E+06
 0.35020000E+02 -0.42800E+03
 0.35070000E+02  0.10328E+06
 0.35120003E+02  0.15492E+06
 0.35170002E+02  0.16316E+06
 0.35220001E+02  0.57344E+05
 0.35270000E+02 -0.55318E+05
 0.35320000E+02 -0.13755E+06
 0.35370003E+02 -0.17686E+06
 0.35420002E+02 -0.13531E+06
 0.35470001E+02 -0.76845E+05
 0.35520000E+02 -0.12467E+05
 0.35570000E+02  0.40406E+05
 0.35620003E+02  0.16243E+05
 0.35670002E+02 -0.19384E+05
 0.35720001E+02 -0.57484E+05
 0.35770000E+02 -0.10382E+06
 0.35820000E+02 -0.78398E+05
 0.35870003E+02 -0.56867E+05
 0.35920002E+02 -0.20239E+05
 0.35970001E+02 -0.16225E+05
 0.36020000E+02 -0.15920E+05
 0.36070000E+02  0.84018E+05
 0.36120003E+02  0.69598E+05
 0.36170002E+02  0.54871E+05
 0.36220001E+02  0.89247E+05
 0.36270000E+02  0.43028E+05
 0.36320000E+02 -0.53290E+04
 0.36370003E+02 -0.30562E+05
 0.36420002E+02 -0.23450E+04
 0.36470001E+02 -0.86490E+04
 0.36520000E+02  0.21032E+05
 0.36570000E+02  0.75867E+05
 0.36620003E+02  0.23494E+05
 0.36670002E+02 -0.25131E+05
 0.36720001E+02 -0.60829E+05
 0.36770000E+02 -0.72538E+05
 0.36820000E+02 -0.45071E+05
 0.36870003E+02 -0.60639E+05
 0.36920002E+02 -0.97965E+05
 0.36970001E+02 -0.14965E+06
 0.37020000E+02 -0.23720E+06
 0.37070000E+02 -0.24133E+06
 0.37120003E+02 -0.14020E+06
 0.37170002E+02 -0.15284E+05
 0.37220001E+02  0.89097E+05
 0.37270000E+02  0.12445E+06
 0.37320000E+02  0.63984E+05
 0.37370003E+02 -0.13273E+05
 0.37420002E+02  0.79030E+04
 0.37470001E+02  0.95255E+05
 0.37520000E+02  0.23382E+06
 0.37570000E+02  0.36160E+06
 0.37620003E+02  0.40499E+06
 0.37670002E+02  0.42610E+06
 0.37720001E+02  0.38514E+06
 0.37770000E+02  0.29288E+06
 0.37820000E+02  0.21580E+06
 0.37870003E+02  0.11954E+06
 0.37920002E+02  0.56120E+05
 0.37970001E+02  0.83359E+05
 0.38020000E+02  0.18098E+06
 0.38070000E+02  0.24143E+06
 0.38120003E+02  0.24675E+06
 0.38170002E+02  0.26771E+06
 0.38220001E+02  0.25420E+06
 0.38270000E+02  0.21045E+06
 0.38320000E+02  0.16430E+06
 0.38370003E+02  0.99962E+05
 0.38420002E+02  0.27450E+04
 0.38470001E+02 -0.59575E+05
 0.38520000E+02 -0.98553E+05
 0.38570000E+02 -0.17908E+06
 0.38620003E+02 -0.27677E+06
 0.38670002E+02 -0.43142E+06
 0.38720001E+02 -0.55534E+06
 0.38770000E+02 -0.55371E+06
 0.38820000E+02 -0.42561E+06
 0.38870003E+02 -0.30285E+06
 0.38920002E+02 -0.28394E+06
 0.38970001E+02 -0.29349E+06
 0.39020000E+02 -0.39856E+06
 0.39070000E+02 -0.49741E+06
 0.39120003E+02 -0.50586E+06
 0.39170002E+02 -0.46801E+06
 0.39220001E+02 -0.25928E+06
 0.39270000E+02  0.12486E+06
 0.39320000E+02  0.50197E+06
 0.39370003E+02  0.68840E+06
 0.39420002E+02  0.75997E+06
 0.39470001E+02  0.73754E+06
 0.39520000E+02  0.53111E+06
 0.39570000E+02  0.35957E+06
 0.39620003E+02  0.22381E+06
 0.39670002E+02  0.23406E+05
 0.39720001E+02  0.31769E+05
 0.39770000E+02  0.13059E+06
 0.39820000E+02  0.10632E+06
 0.39870003E+02  0.11066E+06
 0.39920002E+02  0.57580E+05
 0.39970001E+02 -0.57639E+05
 0.40020000E+02 -0.18110E+06
 0.40070000E+02 -0.29190E+06
 0.40120003E+02 -0.25643E+06
 0.40170002E+02 -0.18914E+06
 0.40220001E+02 -0.11601E+06
 0.40270000E+02  0.90537E+05
 0.40320000E+02  0.29560E+06
 0.40370003E+02  0.37066E+06
 0.40420002E+02  0.36078E+06
 0.40470001E+02  0.25308E+06
 0.40520000E+02  0.85861E+05
 0.40570000E+02 -0.70994E+05
 0.40620003E+02 -0.19752E+06
 0.40670002E+02 -0.27036E+06
 0.40720001E+02 -0.29734E+06
 0.40770000E+02 -0.27943E+06
 0.40820000E+02 -0.22295E+06
 0.40870003E+02 -0.18238E+06
 0.40920002E+02 -0.14897E+06
 0.40970001E+02 -0.16639E+06
 0.41020000E+02 -0.30584E+06
 0.41070000E+02 -0.40704E+06
 0.41120003E+02 -0.44130E+06
 0.41170002E+02 -0.44435E+06
 0.41220001E+02 -0.34076E+06
 0.41270000E+02 -0.24438E+06
 0.41320000E+02 -0.24135E+06
 0.41370003E+02 -0.20806E+06
 0.41420002E+02 -0.30973E+05
 0.41470001E+02  0.19210E+06
 0.41520000E+02  0.24940E+06
 0.41570000E+02  0.22665E+06
 0.41620003E+02  0.25805E+06
 0.41670002E+02  0.26345E+06
 0.41720001E+02  0.28345E+06
 0.41770000E+02  0.34239E+06
 0.41820000E+02  0.33080E+06
 0.41870003E+02  0.22034E+06
 0.41920002E+02  0.17490E+06
 0.41970001E+02  0.22533E+06
 0.42020000E+02  0.23108E+06
 0.42070000E+02  0.19282E+06
 0.42120003E+02  0.12217E+06
 0.42170002E+02  0.36719E+05
 0.42220001E+02 -0.13804E+05
 0.42270000E+02 -0.70595E+05
 0.42320000E+02 -0.17011E+06
 0.42370003E+02 -0.25330E+06
 0.42420002E+02 -0.24479E+06
 0.42470001E+02 -0.13976E+06
 0.42520000E+02 -0.62273E+05
 0.42570000E+02 -0.28266E+05
 0.42620003E+02  0.48604E+05
 0.42670002E+02  0.13402E+06
 0.42720001E+02  0.17671E+06
 0.42770000E+02  0.14695E+06
 0.42820000E+02  0.10721E+06
 0.42870003E+02  0.79090E+05
 0.42920002E+02 -0.51250E+04
 0.42970001E+02 -0.85061E+05
 0.43020000E+02 -0.60286E+05
 0.43070000E+02  0.12708E+05
 0.43120003E+02  0.52658E+05
 0.43170002E+02  0.82251E+05
 0.43220001E+02  0.28704E+05
 0.43270000E+02 -0.14082E+06
 0.43320000E+02 -0.19665E+06
 0.43370003E+02 -0.12792E+06
 0.43420002E+02 -0.76219E+05
 0.43470001E+02  0.40259E+05
 0.43520000E+02  0.88311E+05
 0.43570000E+02  0.66529E+05
 0.43620003E+02  0.80733E+05
 0.43670002E+02  0.90248E+05
 0.43720001E+02  0.14337E+06
 0.43770000E+02  0.94234E+05
 0.43820000E+02  0.27096E+05
 0.43870003E+02  0.54744E+05
 0.43920002E+02 -0.54180E+04
 0.43970001E+02 -0.11583E+06
 0.44020000E+02 -0.15346E+06
 0.44070000E+02 -0.13773E+06
 0.44120003E+02 -0.75135E+05
 0.44170002E+02 -0.60900E+04
 0.44220001E+02 -0.60165E+05
 0.44270000E+02 -0.15723E+06
 0.44320000E+02 -0.14264E+06
 0.44370003E+02 -0.10422E+05
 0.44420002E+02  0.11626E+06
 0.44470001E+02  0.11238E+06
 0.44520000E+02  0.36305E+05
 0.44570000E+02 -0.71598E+05
 0.44620003E+02 -0.25034E+06
 0.44670002E+02 -0.39781E+06
 0.44720001E+02 -0.37904E+06
 0.44770000E+02 -0.26910E+06
 0.44820000E+02 -0.13265E+06
 0.44870003E+02 -0.43390E+04
 0.44920002E+02  0.73301E+05
 0.44970001E+02  0.99264E+05
 0.45020000E+02  0.66316E+05
 0.45070000E+02  0.96713E+05
 0.45120003E+02  0.23350E+06
 0.45170002E+02  0.44144E+06
 0.45220001E+02  0.54096E+06
 0.45270000E+02  0.41709E+06
 0.45320000E+02  0.28324E+06
 0.45370003E+02  0.18653E+06
 0.45420002E+02  0.11883E+06
 0.45470001E+02  0.92962E+05
 0.45520000E+02  0.82910E+04
 0.45570000E+02 -0.12761E+06
 0.45620003E+02 -0.23447E+06
 0.45670002E+02 -0.25394E+06
 0.45720001E+02 -0.97290E+05
 0.45770000E+02  0.14583E+06
 0.45820000E+02  0.27882E+06
 0.45870003E+02  0.26224E+06
 0.45920002E+02  0.11850E+06
 0.45970001E+02 -0.26797E+05
 0.46020000E+02 -0.15872E+06
 0.46070000E+02 -0.24942E+06
 0.46120003E+02 -0.21949E+06
 0.46170002E+02 -0.22532E+06
 0.46220001E+02 -0.24259E+06
 0.46270000E+02 -0.15934E+06
 0.46320000E+02 -0.81361E+05
 0.46370003E+02 -0.76599E+05
 0.46420002E+02 -0.87091E+05
 0.46470001E+02 -0.80585E+05
 0.46520000E+02 -0.37204E+05
 0.46570000E+02  0.68690E+04
 0.46620003E+02 -0.44683E+05
 0.46670002E+02 -0.10492E+06
 0.46720001E+02 -0.95618E+05
 0.46770000E+02 -0.54665E+05
 0.46820000E+02  0.22383E+05
 0.46870003E+02  0.71103E+05
 0.46920002E+02  0.14504E+05
 0.46970001E+02 -0.55907E+05
 0.47020000E+02 -0.24356E+05
 0.47070000E+02  0.41982E+05
 0.47120003E+02  0.15635E+05
 0.47170002E+02 -0.87865E+05
 0.47220001E+02 -0.15468E+06
 0.47270000E+02 -0.13022E+06
 0.47320000E+02 -0.44643E+05
 0.47370003E+02  0.39270E+04
 0.47420002E+02  0.81178E+05
 0.47470001E+02  0.23003E+06
 0.47520000E+02  0.27304E+06
 0.47570000E+02  0.24440E+06
 0.47620003E+02  0.18905E+06
 0.47670002E+02  0.11108E+06
 0.47720001E+02  0.75031E+05
 0.47770000E+02  0.38909E+05
 0.47820000E+02  0.56076E+05
 0.47870003E+02  0.32784E+05
 0.47920002E+02 -0.17614E+06
 0.47970001E+02 -0.33781E+06
 0.48020000E+02 -0.37504E+06
 0.48070000E+02 -0.40085E+06
 0.48120003E+02 -0.38308E+06
 0.48170002E+02 -0.29529E+06
 0.48220001E+02 -0.21437E+06
 0.48270000E+02 -0.22420E+06
 0.48320000E+02 -0.14389E+06
 0.48370003E+02  0.45900E+05
 0.48420002E+02  0.19607E+06
 0.48470001E+02  0.18794E+06
 0.48520000E+02 -0.16416E+05
 0.48570000E+02 -0.48593E+05
 0.48620003E+02  0.12086E+06
 0.48670002E+02  0.22684E+06
 0.48720001E+02  0.19209E+06
 0.48770000E+02  0.85200E+03
 0.48820000E+02 -0.16937E+06
 0.48870003E+02 -0.28095E+06
 0.48920002E+02 -0.32716E+06
 0.48970001E+02 -0.28393E+06
 0.49020000E+02 -0.29448E+06
 0.49070000E+02 -0.33668E+06
 0.49120003E+02 -0.37285E+06
 0.49170002E+02 -0.38097E+06
 0.49220001E+02 -0.27317E+06
 0.49270000E+02 -0.19428E+06
 0.49320000E+02 -0.30770E+06
 0.49370003E+02 -0.49432E+06
 0.49420002E+02 -0.60046E+06
 0.49470001E+02 -0.55060E+06
 0.49520000E+02 -0.34709E+06
 0.49570000E+02 -0.12685E+06
 0.49620003E+02  0.30600E+03
 0.49670002E+02  0.11492E+06
 0.49720001E+02  0.34461E+06
 0.49770000E+02  0.60571E+06
 0.49820000E+02  0.72798E+06
 0.49870003E+02  0.68002E+06
 0.49920002E+02  0.49968E+06
 0.49970001E+02  0.24219E+06
 0.50020000E+02  0.66504E+05
 0.50070000E+02  0.75352E+05
 0.50120003E+02  0.13685E+06
 0.50170002E+02  0.15931E+06
 0.50220001E+02  0.15464E+06
 0.50270000E+02  0.10718E+06
 0.50320000E+02  0.38425E+05
 0.50370003E+02 -0.16423E+05
 0.50420002E+02 -0.10400E+04
 0.50470001E+02  0.78749E+05
 0.50520000E+02  0.18130E+06
 0.50570000E+02  0.31054E+06
 0.50620003E+02  0.39937E+06
 0.50670002E+02  0.42923E+06
 0.50720001E+02  0.45609E+06
 0.50770000E+02  0.50247E+06
 0.50820000E+02  0.55595E+06
 0.50870003E+02  0.49632E+06
 0.50920002E+02  0.25909E+06
 0.50970001E+02  0.25920E+05
 0.51020000E+02 -0.88525E+05
 0.51070000E+02 -0.12902E+06
 0.51120003E+02 -0.54220E+05
 0.51170002E+02  0.90645E+05
 0.51220001E+02  0.16660E+06
 0.51270000E+02  0.14824E+06
 0.51320000E+02  0.10398E+06
 0.51370003E+02 -0.28290E+04
 0.51420002E+02 -0.18182E+06
 0.51470001E+02 -0.24747E+06
 0.51520000E+02 -0.23680E+06
 0.51570000E+02 -0.24233E+06
 0.51620003E+02 -0.18716E+06
 0.51670002E+02 -0.77303E+05
 0.51720001E+02 -0.67210E+05
 0.51770000E+02 -0.23617E+06
 0.51820000E+02 -0.39411E+06
 0.51870003E+02 -0.44229E+06
 0.51920002E+02 -0.42918E+06
 0.51970001E+02 -0.35549E+06
 0.52020000E+02 -0.32866E+06
 0.52070000E+02 -0.43304E+06
 0.52120003E+02 -0.47634E+06
 0.52170002E+02 -0.49763E+06
 0.52220001E+02 -0.58986E+06
 0.52270000E+02 -0.53531E+06
 0.52320000E+02 -0.34037E+06
 0.52370003E+02 -0.34415E+05
 0.52420002E+02  0.20902E+06
 0.52470001E+02  0.28636E+06
 0.52520000E+02  0.40788E+06
 0.52570000E+02  0.51651E+06
 0.52620003E+02  0.59417E+06
 0.52670002E+02  0.66651E+06
 0.52720001E+02  0.68232E+06
 0.52770000E+02  0.67006E+06
 0.52820000E+02  0.57508E+06
 0.52870003E+02  0.43343E+06
 0.52920002E+02  0.38264E+06
 0.52970001E+02  0.41737E+06
 0.53020000E+02  0.50769E+06
 0.53070000E+02  0.47992E+06
 0.53120003E+02  0.17112E+06
 0.53170002E+02 -0.16032E+06
 0.53220001E+02 -0.38420E+06
 0.53270000E+02 -0.49825E+06
 0.53320000E+02 -0.42362E+06
 0.53370003E+02 -0.32966E+06
 0.53420002E+02 -0.26700E+06
 0.53470001E+02 -0.27536E+06
 0.53520000E+02 -0.35302E+06
 0.53570000E+02 -0.25157E+06
 0.53620003E+02 -0.31798E+05
 0.53670002E+02  0.16303E+06
 0.53720001E+02  0.31534E+06
 0.53770000E+02  0.28661E+06
 0.53820000E+02  0.15458E+06
 0.53870003E+02  0.10642E+06
 0.53920002E+02  0.68114E+05
 0.53970001E+02  0.18220E+06
 0.54020000E+02  0.39773E+06
 0.54070000E+02  0.32714E+06
 0.54120003E+02  0.11149E+06
 0.54170002E+02 -0.86607E+05
 0.54220001E+02 -0.24075E+06
 0.54270000E+02 -0.31640E+06
 0.54320000E+02 -0.42114E+06
 0.54370003E+02 -0.56119E+06
 0.54420002E+02 -0.69126E+06
 0.54470001E+02 -0.76542E+06
 0.54520000E+02 -0.86108E+06
 0.54570000E+02 -0.90694E+06
 0.54620003E+02 -0.80547E+06
 0.54670002E+02 -0.63675E+06
 0.54720001E+02 -0.29782E+06
 0.54770000E+02 -0.25387E+05
 0.54820000E+02 -0.70287E+05
 0.54870003E+02 -0.33263E+06
 0.54920002E+02 -0.72661E+06
 0.54970001E+02 -0.10612E+07
 0.55020000E+02 -0.14296E+07
 0.55070000E+02 -0.18458E+07
 0.55120003E+02 -0.21281E+07
 0.55170002E+02 -0.22491E+07
 0.55220001E+02 -0.20881E+07
 0.55270000E+02 -0.15318E+07
 0.55320000E+02 -0.73846E+06
 0.55370003E+02 -0.18637E+06
 0.55420002E+02  0.11027E+06
 0.55470001E+02  0.38429E+06
 0.55520000E+02  0.50040E+06
 0.55570000E+02  0.21413E+06
 0.55620003E+02 -0.43852E+06
 0.55670002E+02 -0.10658E+07
 0.55720001E+02 -0.14782E+07
 0.55770000E+02 -0.16506E+07
 0.55820000E+02 -0.16301E+07
 0.55870003E+02 -0.12773E+07
 0.55920002E+02 -0.37784E+06
 0.55970001E+02  0.74313E+06
 0.56020000E+02  0.13736E+07
 0.56070000E+02  0.11246E+07
 0.56120003E+02  0.20503E+06
 0.56170002E+02 -0.10343E+07
 0.56220001E+02 -0.22343E+07
 0.56270000E+02 -0.27596E+07
 0.56320000E+02 -0.19839E+07
 0.56370003E+02 -0.46526E+06
 0.56420002E+02  0.53314E+06
 0.56470001E+02  0.43511E+06
 0.56520000E+02 -0.42341E+06
 0.56570000E+02 -0.10662E+07
 0.56620003E+02 -0.60398E+06
 0.56670002E+02  0.11676E+07
 0.56720001E+02  0.32618E+07
 0.56770000E+02  0.48276E+07
 0.56820000E+02  0.60155E+07
 0.56870003E+02  0.65011E+07
 0.56920002E+02  0.61462E+07
 0.56970001E+02  0.56496E+07
 0.57020000E+02  0.59371E+07
 0.57070000E+02  0.67544E+07
 0.57120003E+02  0.62524E+07
 0.57170002E+02  0.36582E+07
 0.57220001E+02  0.19912E+06
 0.57270000E+02 -0.22785E+07
 0.57320000E+02 -0.31957E+07
 0.57370003E+02 -0.30801E+07
 0.57420002E+02 -0.22970E+07
 0.57470001E+02 -0.11873E+07
 0.57520000E+02 -0.64767E+06
 0.57570000E+02 -0.14669E+07
 0.57620003E+02 -0.23755E+07
 0.57670002E+02 -0.18661E+07
 0.57720001E+02 -0.36211E+05
 0.57770000E+02  0.17908E+07
 0.57820000E+02  0.14620E+07
 0.57870003E+02 -0.72030E+06
 0.57920002E+02 -0.29320E+07
 0.57970001E+02 -0.47463E+07
 0.58020000E+02 -0.51524E+07
 0.58070000E+02 -0.39069E+07
 0.58120003E+02 -0.25112E+07
 0.58170002E+02 -0.25940E+07
 0.58220001E+02 -0.46078E+07
 0.58270000E+02 -0.62074E+07
 0.58320000E+02 -0.51680E+07
 0.58370003E+02 -0.19225E+07
 0.58420002E+02  0.80637E+06
 0.58470001E+02  0.12015E+07
 0.58520000E+02  0.96172E+06
 0.58570000E+02  0.18557E+07
 0.58620003E+02  0.34866E+07
 0.58670002E+02  0.44814E+07
 0.58720001E+02  0.43380E+07
 0.58770000E+02  0.38644E+07
 0.58820000E+02  0.35781E+07
 0.58870003E+02  0.32426E+07
 0.58920002E+02  0.28399E+07
 0.58970001E+02  0.24114E+07
 0.59020000E+02  0.18679E+07
 0.59070000E+02  0.16559E+07
 0.59120003E+02  0.21117E+07
 0.59170002E+02  0.28273E+07
 0.59220001E+02  0.33624E+07
 0.59270000E+02  0.31435E+07
 0.59320000E+02  0.13766E+07
 0.59370003E+02 -0.10323E+07
 0.59420002E+02 -0.20788E+07
 0.59470001E+02 -0.15699E+07
 0.59520000E+02 -0.12879E+07
 0.59570000E+02 -0.20066E+07
 0.59620003E+02 -0.21750E+07
 0.59670002E+02 -0.99002E+06
 0.59720001E+02  0.91399E+05
 0.59770000E+02 -0.58304E+06
 0.59820000E+02 -0.25811E+07
 0.59870003E+02 -0.43001E+07
 0.59920002E+02 -0.48978E+07
 0.59970001E+02 -0.43430E+07
 0.60020000E+02 -0.30942E+07
 0.60070000E+02 -0.18340E+07
 0.60120003E+02 -0.14037E+07
 0.60170002E+02 -0.19953E+07
 0.60220001E+02 -0.28483E+07
 0.60270000E+02 -0.26923E+07
 0.60320000E+02 -0.14932E+07
 0.60370003E+02 -0.46804E+06
 0.60420002E+02 -0.20181E+06
 0.60470001E+02 -0.78498E+06
 0.60520000E+02 -0.14351E+07
 0.60570000E+02 -0.14661E+07
 0.60620003E+02 -0.12661E+07
 0.60670002E+02 -0.12648E+07
 0.60720001E+02 -0.14084E+07
 0.60770000E+02 -0.13351E+07
 0.60820000E+02 -0.84033E+06
 0.60870003E+02 -0.97324E+05
 0.60920002E+02  0.46115E+06
 0.60970001E+02  0.66450E+06
 0.61020000E+02  0.78477E+06
 0.61070004E+02  0.12063E+07
 0.61119999E+02  0.14689E+07
 0.61170002E+02  0.10109E+07
 0.61220005E+02  0.12971E+06
 0.61270000E+02 -0.11751E+07
 0.61320004E+02 -0.24936E+07
 0.61369999E+02 -0.30626E+07
 0.61420002E+02 -0.30705E+07
 0.61470005E+02 -0.27669E+07
 0.61520000E+02 -0.21047E+07
 0.61570004E+02 -0.16169E+07
 0.61619999E+02 -0.16032E+07
 0.61670002E+02 -0.16123E+07
 0.61720005E+02 -0.15169E+07
 0.61770000E+02 -0.11156E+07
 0.61820004E+02 -0.72193E+06
 0.61869999E+02 -0.67796E+06
 0.61920002E+02 -0.39952E+06
 0.61970005E+02  0.17536E+06
 0.62020000E+02  0.81698E+06
 0.62070004E+02  0.13868E+07
 0.62119999E+02  0.23663E+07
 0.62170002E+02  0.40770E+07
 0.62220005E+02  0.57000E+07
 0.62270000E+02  0.66770E+07
 0.62320004E+02  0.68609E+07
 0.62369999E+02  0.61633E+07
 0.62420002E+02  0.45741E+07
 0.62470005E+02  0.29105E+07
 0.62520000E+02  0.20791E+07
 0.62570004E+02  0.19600E+07
 0.62619999E+02  0.25314E+07
 0.62670002E+02  0.34941E+07
 0.62720005E+02  0.47004E+07
 0.62770000E+02  0.61230E+07
 0.62820004E+02  0.68598E+07
 0.62869999E+02  0.67519E+07
 0.62920002E+02  0.59786E+07
 0.62970005E+02  0.43675E+07
 0.63020000E+02  0.26382E+07
 0.63070004E+02  0.17780E+07
 0.63119999E+02  0.18392E+07
 0.63170002E+02  0.18930E+07
 0.63220005E+02  0.13930E+07
 0.63270000E+02  0.77411E+06
 0.63320004E+02 -0.13645E+06
 0.63369999E+02 -0.16195E+07
 0.63420002E+02 -0.32422E+07
 0.63470005E+02 -0.44303E+07
 0.63520000E+02 -0.51653E+07
 0.63570004E+02 -0.62395E+07
 0.63619999E+02 -0.75461E+07
 0.63670002E+02 -0.82227E+07
 0.63720005E+02 -0.78805E+07
 0.63770000E+02 -0.70399E+07
 0.63820004E+02 -0.62461E+07
 0.63869999E+02 -0.52510E+07
 0.63920002E+02 -0.42789E+07
 0.63970005E+02 -0.34338E+07
 0.64019997E+02 -0.22501E+07
 0.64070000E+02 -0.10819E+07
 0.64119995E+02 -0.39197E+06
 0.64169998E+02  0.39550E+06
 0.64220001E+02  0.15062E+07
 0.64269997E+02  0.26895E+07
 0.64320000E+02  0.37363E+07
 0.64369995E+02  0.41420E+07
 0.64419998E+02  0.39152E+07
 0.64470001E+02  0.31832E+07
 0.64519997E+02  0.21880E+07
 0.64570000E+02  0.15646E+07
 0.64619995E+02  0.12220E+07
 0.64669998E+02  0.91076E+06
 0.64720001E+02  0.72669E+06
 0.64769997E+02  0.69956E+06
 0.64820000E+02  0.10633E+07
 0.64869995E+02  0.16196E+07
 0.64919998E+02  0.18229E+07
 0.64970001E+02  0.15423E+07
 0.65019997E+02  0.80869E+06
 0.65070000E+02  0.19104E+06
 0.65119995E+02 -0.29344E+05
 0.65169998E+02 -0.93925E+05
 0.65220001E+02  0.26198E+06
 0.65269997E+02  0.77978E+06
 0.65320000E+02  0.96509E+06
 0.65369995E+02  0.90866E+06
 0.65419998E+02  0.82634E+06
 0.65470001E+02  0.76724E+06
 0.65519997E+02  0.62004E+06
 0.65570000E+02  0.23028E+06
 0.65619995E+02 -0.35540E+06
 0.65669998E+02 -0.84604E+06
 0.65720001E+02 -0.97902E+06
 0.65769997E+02 -0.43989E+06
 0.65820000E+02  0.64359E+06
 0.65869995E+02  0.19625E+07
 0.65919998E+02  0.30138E+07
 0.65970001E+02  0.32850E+07
 0.66019997E+02  0.28745E+07
 0.66070000E+02  0.21468E+07
 0.66119995E+02  0.17283E+07
 0.66169998E+02  0.16572E+07
 0.66220001E+02  0.14076E+07
 0.66269997E+02  0.89899E+06
 0.66320000E+02  0.60371E+06
 0.66369995E+02  0.59729E+06
 0.66419998E+02  0.42276E+06
 0.66470001E+02  0.29703E+05
 0.66519997E+02 -0.34896E+06
 0.66570000E+02 -0.62646E+06
 0.66619995E+02 -0.80442E+06
 0.66669998E+02 -0.39304E+06
 0.66720001E+02  0.71960E+06
 0.66769997E+02  0.17078E+07
 0.66820000E+02  0.21212E+07
 0.66869995E+02  0.18172E+07
 0.66919998E+02  0.62822E+06
 0.66970001E+02 -0.78298E+06
 0.67019997E+02 -0.17410E+07
 0.67070000E+02 -0.22714E+07
 0.67119995E+02 -0.22455E+07
 0.67169998E+02 -0.16848E+07
 0.67220001E+02 -0.82306E+06
 0.67269997E+02  0.53810E+05
 0.67320000E+02  0.45088E+06
 0.67369995E+02  0.19258E+06
 0.67419998E+02 -0.32366E+06
 0.67470001E+02 -0.81867E+06
 0.67519997E+02 -0.11773E+07
 0.67570000E+02 -0.10801E+07
 0.67619995E+02 -0.47456E+06
 0.67669998E+02  0.27502E+06
 0.67720001E+02  0.74598E+06
 0.67769997E+02  0.90536E+06
 0.67820000E+02  0.10759E+07
 0.67869995E+02  0.12038E+07
 0.67919998E+02  0.87270E+06
 0.67970001E+02  0.11444E+06
 0.68019997E+02 -0.98284E+06
 0.68070000E+02 -0.22171E+07
 0.68119995E+02 -0.30968E+07
 0.68169998E+02 -0.32975E+07
 0.68220001E+02 -0.25444E+07
 0.68269997E+02 -0.11750E+07
 0.68320000E+02  0.25102E+06
 0.68369995E+02  0.13675E+07
 0.68419998E+02  0.17924E+07
 0.68470001E+02  0.14830E+07
 0.68519997E+02  0.59484E+06
 0.68570000E+02 -0.22119E+06
 0.68619995E+02 -0.31594E+06
 0.68669998E+02  0.24506E+06
 0.68720001E+02  0.12379E+07
 0.68769997E+02  0.20553E+07
 0.68820000E+02  0.19682E+07
 0.68869995E+02  0.98222E+06
 0.68919998E+02 -0.16327E+06
 0.68970001E+02 -0.92404E+06
 0.69019997E+02 -0.14406E+07
 0.69070000E+02 -0.15515E+07
 0.69119995E+02 -0.11429E+07
 0.69169998E+02 -0.28404E+06
 0.69220001E+02  0.11142E+07
 0.69269997E+02  0.24451E+07
 0.69320000E+02  0.31197E+07
 0.69369995E+02  0.28777E+07
 0.69419998E+02  0.16669E+07
 0.69470001E+02  0.16408E+06
 0.69519997E+02 -0.92095E+06
 0.69570000E+02 -0.11926E+07
 0.69619995E+02 -0.75424E+06
 0.69669998E+02 -0.21645E+06
 0.69720001E+02 -0.51437E+05
 0.69769997E+02 -0.44511E+06
 0.69820000E+02 -0.12083E+07
 0.69869995E+02 -0.18537E+07
 0.69919998E+02 -0.22657E+07
 0.69970001E+02 -0.26088E+07
 0.70019997E+02 -0.24935E+07
 0.70070000E+02 -0.16077E+07
 0.70119995E+02 -0.18003E+06
 0.70169998E+02  0.14933E+07
 0.70220001E+02  0.28909E+07
 0.70269997E+02  0.36213E+07
 0.70320000E+02  0.36789E+07
 0.70369995E+02  0.31937E+07
 0.70419998E+02  0.22422E+07
 0.70470001E+02  0.86186E+06
 0.70519997E+02 -0.48800E+06
 0.70570000E+02 -0.11579E+07
 0.70619995E+02 -0.10045E+07
 0.70669998E+02 -0.23107E+06
 0.70720001E+02  0.74161E+06
 0.70769997E+02  0.14070E+07
 0.70820000E+02  0.16295E+07
 0.70869995E+02  0.15033E+07
 0.70919998E+02  0.12532E+07
 0.70970001E+02  0.13118E+07
 0.71019997E+02  0.18633E+07
 0.71070000E+02  0.23505E+07
 0.71119995E+02  0.22605E+07
 0.71169998E+02  0.17802E+07
 0.71220001E+02  0.13103E+07
 0.71269997E+02  0.10314E+07
 0.71320000E+02  0.64159E+06
 0.71369995E+02 -0.30780E+05
 0.71419998E+02 -0.56693E+06
 0.71470001E+02 -0.86296E+06
 0.71519997E+02 -0.13631E+07
 0.71570000E+02 -0.22284E+07
 0.71619995E+02 -0.29183E+07
 0.71669998E+02 -0.29752E+07
 0.71720001E+02 -0.25658E+07
 0.71769997E+02 -0.19377E+07
 0.71820000E+02 -0.13088E+07
 0.71869995E+02 -0.79740E+06
 0.71919998E+02 -0.57301E+06
 0.71970001E+02 -0.58737E+06
 0.72019997E+02 -0.55346E+06
 0.72070000E+02 -0.60121E+06
 0.72119995E+02 -0.67399E+06
 0.72169998E+02 -0.68304E+06
 0.72220001E+02 -0.75702E+06
 0.72269997E+02 -0.70820E+06
 0.72320000E+02 -0.40023E+06
 0.72369995E+02 -0.17960E+06
 0.72419998E+02 -0.32067E+06
 0.72470001E+02 -0.41842E+06
 0.72519997E+02 -0.16889E+06
 0.72570000E+02  0.38920E+06
 0.72619995E+02  0.11796E+07
 0.72669998E+02  0.18933E+07
 0.72720001E+02  0.23046E+07
 0.72769997E+02  0.22544E+07
 0.72820000E+02  0.16419E+07
 0.72869995E+02  0.59847E+06
 0.72919998E+02 -0.49653E+06
 0.72970001E+02 -0.12052E+07
 0.73019997E+02 -0.15293E+07
 0.73070000E+02 -0.16200E+07
 0.73119995E+02 -0.14448E+07
 0.73169998E+02 -0.11828E+07
 0.73220001E+02 -0.11342E+07
 0.73269997E+02 -0.12587E+07
 0.73320000E+02 -0.15580E+07
 0.73369995E+02 -0.20784E+07
 0.73419998E+02 -0.27156E+07
 0.73470001E+02 -0.35250E+07
 0.73519997E+02 -0.44030E+07
 0.73570000E+02 -0.51492E+07
 0.73619995E+02 -0.55250E+07
 0.73669998E+02 -0.52782E+07
 0.73720001E+02 -0.45041E+07
 0.73769997E+02 -0.34700E+07
 0.73820000E+02 -0.25801E+07
 0.73869995E+02 -0.22058E+07
 0.73919998E+02 -0.24159E+07
 0.73970001E+02 -0.30498E+07
 0.74019997E+02 -0.36160E+07
 0.74070000E+02 -0.35837E+07
 0.74119995E+02 -0.30030E+07
 0.74169998E+02 -0.21659E+07
 0.74220001E+02 -0.12523E+07
 0.74269997E+02 -0.47317E+06
 0.74320000E+02  0.10810E+06
 0.74369995E+02  0.54686E+06
 0.74419998E+02  0.90024E+06
 0.74470001E+02  0.12087E+07
 0.74519997E+02  0.15456E+07
 0.74570000E+02  0.19177E+07
 0.74619995E+02  0.23928E+07
 0.74669998E+02  0.31670E+07
 0.74720001E+02  0.39222E+07
 0.74769997E+02  0.41670E+07
 0.74820000E+02  0.37170E+07
 0.74869995E+02  0.26665E+07
 0.74919998E+02  0.14921E+07
 0.74970001E+02  0.51532E+06
 0.75019997E+02 -0.96938E+05
 0.75070000E+02 -0.20158E+06
 0.75119995E+02 -0.23279E+05
 0.75169998E+02  0.27810E+06
 0.75220001E+02  0.70114E+06
 0.75269997E+02  0.10506E+07
 0.75320000E+02  0.10965E+07
 0.75369995E+02  0.77764E+06
 0.75419998E+02  0.28636E+06
 0.75470001E+02 -0.19880E+06
 0.75519997E+02 -0.64766E+06
 0.75570000E+02 -0.88884E+06
 0.75619995E+02 -0.85725E+06
 0.75669998E+02 -0.75796E+06
 0.75720001E+02 -0.69980E+06
 0.75769997E+02 -0.69850E+06
 0.75820000E+02 -0.85779E+06
 0.75869995E+02 -0.13313E+07
 0.75919998E+02 -0.21697E+07
 0.75970001E+02 -0.30602E+07
 0.76019997E+02 -0.34989E+07
 0.76070000E+02 -0.33628E+07
 0.76119995E+02 -0.27530E+07
 0.76169998E+02 -0.18345E+07
 0.76220001E+02 -0.96960E+06
 0.76269997E+02 -0.40669E+06
 0.76320000E+02 -0.76808E+05
 0.76369995E+02  0.27340E+06
 0.76419998E+02  0.61252E+06
 0.76470001E+02  0.87794E+06
 0.76519997E+02  0.13199E+07
 0.76570000E+02  0.19285E+07
 0.76619995E+02  0.24291E+07
 0.76669998E+02  0.25850E+07
 0.76720001E+02  0.23374E+07
 0.76769997E+02  0.17916E+07
 0.76820000E+02  0.11711E+07
 0.76869995E+02  0.82523E+06
 0.76919998E+02  0.88723E+06
 0.76970001E+02  0.12158E+07
 0.77019997E+02  0.15270E+07
 0.77070000E+02  0.15691E+07
 0.77119995E+02  0.13417E+07
 0.77169998E+02  0.10271E+07
 0.77220001E+02  0.79356E+06
 0.77269997E+02  0.57131E+06
 0.77320000E+02  0.27896E+06
 0.77369995E+02  0.36385E+05
 0.77419998E+02 -0.48958E+05
 0.77470001E+02  0.85798E+05
 0.77519997E+02  0.45530E+06
 0.77570000E+02  0.92590E+06
 0.77619995E+02  0.11576E+07
 0.77669998E+02  0.84616E+06
 0.77720001E+02  0.20075E+05
 0.77769997E+02 -0.10547E+07
 0.77820000E+02 -0.21401E+07
 0.77869995E+02 -0.31135E+07
 0.77919998E+02 -0.37781E+07
 0.77970001E+02 -0.39019E+07
 0.78019997E+02 -0.35309E+07
 0.78070000E+02 -0.28236E+07
 0.78119995E+02 -0.18681E+07
 0.78169998E+02 -0.92719E+06
 0.78220001E+02 -0.26633E+06
 0.78269997E+02  0.14256E+06
 0.78320000E+02  0.53914E+06
 0.78369995E+02  0.10110E+07
 0.78419998E+02  0.14462E+07
 0.78470001E+02  0.17097E+07
 0.78519997E+02  0.16962E+07
 0.78570000E+02  0.14734E+07
 0.78619995E+02  0.11181E+07
 0.78669998E+02  0.75015E+06
 0.78720001E+02  0.44912E+06
 0.78769997E+02  0.22089E+06
 0.78820000E+02  0.22747E+06
 0.78869995E+02  0.47368E+06
 0.78919998E+02  0.78426E+06
 0.78970001E+02  0.98711E+06
 0.79019997E+02  0.10065E+07
 0.79070000E+02  0.94023E+06
 0.79119995E+02  0.81531E+06
 0.79169998E+02  0.64926E+06
 0.79220001E+02  0.63094E+06
 0.79269997E+02  0.96586E+06
 0.79320000E+02  0.15698E+07
 0.79369995E+02  0.20545E+07
 0.79419998E+02  0.22543E+07
 0.79470001E+02  0.21422E+07
 0.79519997E+02  0.17175E+07
 0.79570000E+02  0.12055E+07
 0.79619995E+02  0.73428E+06
 0.79669998E+02  0.30276E+06
 0.79720001E+02 -0.16592E+06
 0.79769997E+02 -0.62016E+06
 0.79820000E+02 -0.78928E+06
 0.79869995E+02 -0.65286E+06
 0.79919998E+02 -0.40674E+06
 0.79970001E+02 -0.20185E+06
 0.80019997E+02 -0.66819E+05
 0.80070000E+02  0.66957E+05
 0.80119995E+02  0.23993E+06
 0.80169998E+02  0.42597E+06
 0.80220001E+02  0.54045E+06
 0.80269997E+02  0.64866E+06
 0.80320000E+02  0.91027E+06
 0.80369995E+02  0.13849E+07
 0.80419998E+02  0.19243E+07
 0.80470001E+02  0.22193E+07
 0.80519997E+02  0.20965E+07
 0.80570000E+02  0.14797E+07
 0.80619995E+02  0.64492E+06
 0.80669998E+02  0.20990E+05
 0.80720001E+02 -0.33581E+06
 0.80769997E+02 -0.40376E+06
 0.80820000E+02 -0.20298E+06
 0.80869995E+02  0.12479E+06
 0.80919998E+02  0.57683E+06
 0.80970001E+02  0.11262E+07
 0.81019997E+02  0.15498E+07
 0.81070000E+02  0.16501E+07
 0.81119995E+02  0.14046E+07
 0.81169998E+02  0.97178E+06
 0.81220001E+02  0.65300E+06
 0.81269997E+02  0.66824E+06
 0.81320000E+02  0.95464E+06
 0.81369995E+02  0.12931E+07
 0.81419998E+02  0.14667E+07
 0.81470001E+02  0.12988E+07
 0.81519997E+02  0.81884E+06
 0.81570000E+02  0.17266E+06
 0.81619995E+02 -0.49294E+06
 0.81669998E+02 -0.94820E+06
 0.81720001E+02 -0.10318E+07
 0.81769997E+02 -0.71778E+06
 0.81820000E+02 -0.96771E+05
 0.81869995E+02  0.58667E+06
 0.81919998E+02  0.96862E+06
 0.81970001E+02  0.89592E+06
 0.82019997E+02  0.54326E+06
 0.82070000E+02  0.59678E+05
 0.82119995E+02 -0.34420E+06
 0.82169998E+02 -0.47280E+06
 0.82220001E+02 -0.42379E+06
 0.82269997E+02 -0.34932E+06
 0.82320000E+02 -0.38313E+06
 0.82369995E+02 -0.56728E+06
 0.82419998E+02 -0.74077E+06
 0.82470001E+02 -0.81081E+06
 0.82519997E+02 -0.83098E+06
 0.82570000E+02 -0.92939E+06
 0.82619995E+02 -0.10979E+07
 0.82669998E+02 -0.11417E+07
 0.82720001E+02 -0.96933E+06
 0.82769997E+02 -0.68218E+06
 0.82820000E+02 -0.50588E+06
 0.82869995E+02 -0.47396E+06
 0.82919998E+02 -0.44090E+06
 0.82970001E+02 -0.40157E+06
 0.83019997E+02 -0.44698E+06
 0.83070000E+02 -0.54336E+06
 0.83119995E+02 -0.54649E+06
 0.83169998E+02 -0.48578E+06
 0.83220001E+02 -0.48166E+06
 0.83269997E+02 -0.49515E+06
 0.83320000E+02 -0.42211E+06
 0.83369995E+02 -0.19570E+06
 0.83419998E+02  0.13879E+06
 0.83470001E+02  0.40891E+06
 0.83519997E+02  0.46488E+06
 0.83570000E+02  0.23757E+06
 0.83619995E+02 -0.22184E+06
 0.83669998E+02 -0.73066E+06
 0.83720001E+02 -0.10973E+07
 0.83769997E+02 -0.12145E+07
 0.83820000E+02 -0.10380E+07
 0.83869995E+02 -0.61472E+06
 0.83919998E+02 -0.14851E+06
 0.83970001E+02  0.15399E+06
 0.84019997E+02  0.23326E+06
 0.84070000E+02  0.13964E+06
 0.84119995E+02 -0.42487E+05
 0.84169998E+02 -0.23196E+06
 0.84220001E+02 -0.28800E+06
 0.84269997E+02 -0.15645E+06
 0.84320000E+02  0.56166E+05
 0.84369995E+02  0.34253E+06
 0.84419998E+02  0.67342E+06
 0.84470001E+02  0.81333E+06
 0.84519997E+02  0.60456E+06
 0.84570000E+02  0.17302E+06
 0.84619995E+02 -0.21863E+06
 0.84669998E+02 -0.34887E+06
 0.84720001E+02 -0.23989E+06
 0.84769997E+02 -0.65048E+05
 0.84820000E+02  0.89486E+05
 0.84869995E+02  0.13760E+06
 0.84919998E+02 -0.99540E+04
 0.84970001E+02 -0.39574E+06
 0.85019997E+02 -0.90940E+06
 0.85070000E+02 -0.13848E+07
 0.85119995E+02 -0.17555E+07
 0.85169998E+02 -0.19772E+07
 0.85220001E+02 -0.20370E+07
 0.85269997E+02 -0.19133E+07
 0.85320000E+02 -0.16247E+07
 0.85369995E+02 -0.12508E+07
 0.85419998E+02 -0.92805E+06
 0.85470001E+02 -0.75201E+06
 0.85519997E+02 -0.71019E+06
 0.85570000E+02 -0.82629E+06
 0.85619995E+02 -0.97711E+06
 0.85669998E+02 -0.97940E+06
 0.85720001E+02 -0.79095E+06
 0.85769997E+02 -0.36881E+06
 0.85820000E+02  0.19273E+06
 0.85869995E+02  0.78901E+06
 0.85919998E+02  0.14274E+07
 0.85970001E+02  0.19627E+07
 0.86019997E+02  0.21944E+07
 0.86070000E+02  0.20869E+07
 0.86119995E+02  0.18138E+07
 0.86169998E+02  0.15585E+07
 0.86220001E+02  0.13974E+07
 0.86269997E+02  0.12665E+07
 0.86320000E+02  0.10093E+07
 0.86369995E+02  0.71307E+06
 0.86419998E+02  0.55814E+06
 0.86470001E+02  0.52686E+06
 0.86519997E+02  0.56576E+06
 0.86570000E+02  0.66524E+06
 0.86619995E+02  0.82992E+06
 0.86669998E+02  0.98992E+06
 0.86720001E+02  0.99020E+06
 0.86769997E+02  0.85348E+06
 0.86820000E+02  0.62711E+06
 0.86869995E+02  0.30786E+06
 0.86919998E+02 -0.55610E+04
 0.86970001E+02 -0.30694E+06
 0.87019997E+02 -0.59962E+06
 0.87070000E+02 -0.83249E+06
 0.87119995E+02 -0.99852E+06
 0.87169998E+02 -0.11362E+07
 0.87220001E+02 -0.12770E+07
 0.87269997E+02 -0.14045E+07
 0.87320000E+02 -0.15307E+07
 0.87369995E+02 -0.16776E+07
 0.87419998E+02 -0.18695E+07
 0.87470001E+02 -0.20602E+07
 0.87519997E+02 -0.20998E+07
 0.87570000E+02 -0.19131E+07
 0.87619995E+02 -0.16004E+07
 0.87669998E+02 -0.13308E+07
 0.87720001E+02 -0.11533E+07
 0.87769997E+02 -0.98133E+06
 0.87820000E+02 -0.73666E+06
 0.87869995E+02 -0.44007E+06
 0.87919998E+02 -0.98103E+05
 0.87970001E+02  0.23858E+06
 0.88019997E+02  0.50462E+06
 0.88070000E+02  0.72847E+06
 0.88119995E+02  0.89746E+06
 0.88169998E+02  0.10624E+07
 0.88220001E+02  0.12331E+07
 0.88269997E+02  0.13264E+07
 0.88320000E+02  0.13416E+07
 0.88369995E+02  0.12837E+07
 0.88419998E+02  0.11791E+07
 0.88470001E+02  0.11039E+07
 0.88519997E+02  0.11070E+07
 0.88570000E+02  0.11020E+07
 0.88619995E+02  0.98499E+06
 0.88669998E+02  0.81125E+06
 0.88720001E+02  0.68932E+06
 0.88769997E+02  0.67066E+06
 0.88820000E+02  0.71444E+06
 0.88869995E+02  0.70974E+06
 0.88919998E+02  0.61731E+06
 0.88970001E+02  0.49443E+06
 0.89019997E+02  0.30824E+06
 0.89070000E+02  0.37611E+05
 0.89119995E+02 -0.27778E+06
 0.89169998E+02 -0.64730E+06
 0.89220001E+02 -0.10289E+07
 0.89269997E+02 -0.13530E+07
 0.89320000E+02 -0.15306E+07
 0.89369995E+02 -0.15050E+07
 0.89419998E+02 -0.13540E+07
 0.89470001E+02 -0.11334E+07
 0.89519997E+02 -0.80756E+06
 0.89570000E+02 -0.43631E+06
 0.89619995E+02 -0.14195E+06
 0.89669998E+02  0.10505E+05
 0.89720001E+02  0.31699E+05
 0.89769997E+02  0.10898E+05
 0.89820000E+02  0.15695E+05
 0.89869995E+02  0.11145E+06
 0.89919998E+02  0.32074E+06
 0.89970001E+02  0.58265E+06
 0.90019997E+02  0.82290E+06
 0.90070000E+02  0.10031E+07
 0.90119995E+02  0.12246E+07
 0.90169998E+02  0.15712E+07
 0.90220001E+02  0.19428E+07
 0.90269997E+02  0.22122E+07
 0.90320000E+02  0.23047E+07
 0.90369995E+02  0.22296E+07
 0.90419998E+02  0.21085E+07
 0.90470001E+02  0.20091E+07
 0.90519997E+02  0.18465E+07
 0.90570000E+02  0.15422E+07
 0.90619995E+02  0.11808E+07
 0.90669998E+02  0.83818E+06
 0.90720001E+02  0.44287E+06
 0.90769997E+02  0.24038E+05
 0.90820000E+02 -0.34608E+06
 0.90869995E+02 -0.76251E+06
 0.90919998E+02 -0.12348E+07
 0.90970001E+02 -0.16202E+07
 0.91019997E+02 -0.18398E+07
 0.91070000E+02 -0.18906E+07
 0.91119995E+02 -0.18343E+07
 0.91169998E+02 -0.17830E+07
 0.91220001E+02 -0.18019E+07
 0.91269997E+02 -0.18659E+07
 0.91320000E+02 -0.18987E+07
 0.91369995E+02 -0.18808E+07
 0.91419998E+02 -0.17997E+07
 0.91470001E+02 -0.15761E+07
 0.91519997E+02 -0.12132E+07
 0.91570000E+02 -0.81965E+06
 0.91619995E+02 -0.49501E+06
 0.91669998E+02 -0.28379E+06
 0.91720001E+02 -0.14029E+06
 0.91769997E+02  0.33229E+05
 0.91820000E+02  0.26402E+06
 0.91869995E+02  0.49335E+06
 0.91919998E+02  0.68487E+06
 0.91970001E+02  0.85986E+06
 0.92019997E+02  0.10360E+07
 0.92070000E+02  0.11931E+07
 0.92119995E+02  0.13194E+07
 0.92169998E+02  0.14080E+07
 0.92220001E+02  0.14018E+07
 0.92269997E+02  0.13172E+07
 0.92320000E+02  0.12371E+07
 0.92369995E+02  0.11680E+07
 0.92419998E+02  0.10990E+07
 0.92470001E+02  0.10259E+07
 0.92519997E+02  0.97578E+06
 0.92570000E+02  0.95477E+06
 0.92619995E+02  0.92504E+06
 0.92669998E+02  0.87343E+06
 0.92720001E+02  0.74220E+06
 0.92769997E+02  0.50936E+06
 0.92820000E+02  0.25203E+06
 0.92869995E+02  0.15985E+05
 0.92919998E+02 -0.21842E+06
 0.92970001E+02 -0.47600E+06
 0.93019997E+02 -0.74174E+06
 0.93070000E+02 -0.95181E+06
 0.93119995E+02 -0.10865E+07
 0.93169998E+02 -0.11896E+07
 0.93220001E+02 -0.12666E+07
 0.93269997E+02 -0.13039E+07
 0.93320000E+02 -0.12740E+07
 0.93369995E+02 -0.11745E+07
 0.93419998E+02 -0.10762E+07
 0.93470001E+02 -0.10336E+07
 0.93519997E+02 -0.10772E+07
 0.93570000E+02 -0.11725E+07
 0.93619995E+02 -0.12006E+07
 0.93669998E+02 -0.11156E+07
 0.93720001E+02 -0.95767E+06
 0.93769997E+02 -0.76540E+06
 0.93820000E+02 -0.58267E+06
 0.93869995E+02 -0.45636E+06
 0.93919998E+02 -0.36869E+06
 0.93970001E+02 -0.19629E+06
 0.94019997E+02  0.12872E+06
 0.94070000E+02  0.51720E+06
 0.94119995E+02  0.82317E+06
 0.94169998E+02  0.90135E+06
 0.94220001E+02  0.71856E+06
 0.94269997E+02  0.39592E+06
 0.94320000E+02  0.87120E+05
 0.94369995E+02 -0.13444E+06
 0.94419998E+02 -0.24919E+06
 0.94470001E+02 -0.25565E+06
 0.94519997E+02 -0.21144E+06
 0.94570000E+02 -0.14284E+06
 0.94619995E+02 -0.34074E+05
 0.94669998E+02  0.93178E+05
 0.94720001E+02  0.21384E+06
 0.94769997E+02  0.28588E+06
 0.94820000E+02  0.26220E+06
 0.94869995E+02  0.15652E+06
 0.94919998E+02  0.22059E+05
 0.94970001E+02 -0.11196E+06
 0.95019997E+02 -0.25962E+06
 0.95070000E+02 -0.41759E+06
 0.95119995E+02 -0.58665E+06
 0.95169998E+02 -0.81221E+06
 0.95220001E+02 -0.11163E+07
 0.95269997E+02 -0.14194E+07
 0.95320000E+02 -0.16397E+07
 0.95369995E+02 -0.17530E+07
 0.95419998E+02 -0.17082E+07
 0.95470001E+02 -0.15277E+07
 0.95519997E+02 -0.12775E+07
 0.95570000E+02 -0.99147E+06
 0.95619995E+02 -0.76033E+06
 0.95669998E+02 -0.64968E+06
 0.95720001E+02 -0.61388E+06
 0.95769997E+02 -0.62204E+06
 0.95820000E+02 -0.65597E+06
 0.95869995E+02 -0.64456E+06
 0.95919998E+02 -0.59631E+06
 0.95970001E+02 -0.51586E+06
 0.96019997E+02 -0.36190E+06
 0.96070000E+02 -0.17323E+06
 0.96119995E+02  0.12185E+05
 0.96169998E+02  0.13359E+06
 0.96220001E+02  0.11847E+06
 0.96269997E+02  0.59010E+04
 0.96320000E+02 -0.91142E+05
 0.96369995E+02 -0.80748E+05
 0.96419998E+02  0.68550E+05
 0.96470001E+02  0.34408E+06
 0.96519997E+02  0.68419E+06
 0.96570000E+02  0.98376E+06
 0.96619995E+02  0.11520E+07
 0.96669998E+02  0.11753E+07
 0.96720001E+02  0.11193E+07
 0.96769997E+02  0.10584E+07
 0.96820000E+02  0.99577E+06
 0.96869995E+02  0.89368E+06
 0.96919998E+02  0.77081E+06
 0.96970001E+02  0.68559E+06
 0.97019997E+02  0.65158E+06
 0.97070000E+02  0.63843E+06
 0.97119995E+02  0.61904E+06
 0.97169998E+02  0.56445E+06
 0.97220001E+02  0.45378E+06
 0.97269997E+02  0.30316E+06
 0.97320000E+02  0.17657E+06
 0.97369995E+02  0.14316E+06
 0.97419998E+02  0.20830E+06
 0.97470001E+02  0.31572E+06
 0.97519997E+02  0.40485E+06
 0.97570000E+02  0.42062E+06
 0.97619995E+02  0.32151E+06
 0.97669998E+02  0.12596E+06
 0.97720001E+02 -0.11475E+06
 0.97769997E+02 -0.33414E+06
 0.97820000E+02 -0.46894E+06
 0.97869995E+02 -0.47832E+06
 0.97919998E+02 -0.36097E+06
 0.97970001E+02 -0.18373E+06
 0.98019997E+02 -0.37411E+05
 0.98070000E+02  0.23765E+05
 0.98119995E+02  0.54013E+05
 0.98169998E+02  0.16152E+06
 0.98220001E+02  0.35097E+06
 0.98269997E+02  0.56324E+06
 0.98320000E+02  0.79272E+06
 0.98369995E+02  0.10248E+07
 0.98419998E+02  0.11940E+07
 0.98470001E+02  0.12543E+07
 0.98519997E+02  0.12050E+07
 0.98570000E+02  0.10674E+07
 0.98619995E+02  0.86505E+06
 0.98669998E+02  0.63134E+06
 0.98720001E+02  0.44934E+06
 0.98769997E+02  0.38808E+06
 0.98820000E+02  0.39824E+06
 0.98869995E+02  0.42137E+06
 0.98919998E+02  0.44259E+06
 0.98970001E+02  0.46088E+06
 0.99019997E+02  0.49634E+06
 0.99070000E+02  0.56646E+06
 0.99119995E+02  0.69838E+06
 0.99169998E+02  0.89329E+06
 0.99220001E+02  0.11089E+07
 0.99269997E+02  0.12827E+07
 0.99320000E+02  0.13801E+07
 0.99369995E+02  0.13867E+07
 0.99419998E+02  0.12886E+07
 0.99470001E+02  0.10953E+07
 0.99519997E+02  0.83260E+06
 0.99570000E+02  0.56107E+06
 0.99619995E+02  0.34871E+06
 0.99669998E+02  0.22215E+06
 0.99720001E+02  0.13496E+06
 0.99769997E+02  0.57423E+05
 0.99820000E+02  0.66840E+04
 0.99869995E+02 -0.59080E+04
 0.99919998E+02  0.33880E+05
 0.99970001E+02  0.10090E+06
 0.10002000E+03  0.21071E+06
 0.10007000E+03  0.40271E+06
 0.10012000E+03  0.62916E+06
 0.10017000E+03  0.79044E+06
 0.10022000E+03  0.83442E+06
 0.10027000E+03  0.81125E+06
 0.10032000E+03  0.77275E+06
 0.10037000E+03  0.71987E+06
 0.10042000E+03  0.63564E+06
 0.10047000E+03  0.51972E+06
 0.10052000E+03  0.37317E+06
 0.10057000E+03  0.19750E+06
 0.10062000E+03  0.16506E+05
 0.10067000E+03 -0.16411E+06
 0.10072000E+03 -0.34624E+06
 0.10077000E+03 -0.52163E+06
 0.10082000E+03 -0.66225E+06
 0.10087000E+03 -0.72303E+06
 0.10092000E+03 -0.69498E+06
 0.10097000E+03 -0.62780E+06
 0.10102000E+03 -0.57824E+06
 0.10107000E+03 -0.54176E+06
 0.10112000E+03 -0.48136E+06
 0.10117000E+03 -0.41627E+06
 0.10122000E+03 -0.41685E+06
 0.10127000E+03 -0.51972E+06
 0.10132000E+03 -0.68468E+06
 0.10137000E+03 -0.85470E+06
 0.10142000E+03 -0.98684E+06
 0.10147000E+03 -0.10586E+07
 0.10152000E+03 -0.11124E+07
 0.10157000E+03 -0.11725E+07
 0.10162000E+03 -0.12077E+07
 0.10167000E+03 -0.12047E+07
 0.10172000E+03 -0.11554E+07
 0.10177000E+03 -0.10768E+07
 0.10182000E+03 -0.10212E+07
 0.10187000E+03 -0.10026E+07
 0.10192000E+03 -0.99327E+06
 0.10197000E+03 -0.95641E+06
 0.10202000E+03 -0.90484E+06
 0.10207000E+03 -0.88956E+06
 0.10212000E+03 -0.90437E+06
 0.10217000E+03 -0.92605E+06
 0.10222000E+03 -0.94586E+06
 0.10227000E+03 -0.94007E+06
 0.10232000E+03 -0.87850E+06
 0.10237000E+03 -0.74469E+06
 0.10242000E+03 -0.55008E+06
 0.10247000E+03 -0.33515E+06
 0.10252000E+03 -0.17336E+06
 0.10257000E+03 -0.98582E+05
 0.10262000E+03 -0.93950E+05
 0.10267000E+03 -0.15455E+06
 0.10272000E+03 -0.25626E+06
 0.10277000E+03 -0.34513E+06
 0.10282000E+03 -0.36815E+06
 0.10287000E+03 -0.32444E+06
 0.10292000E+03 -0.24217E+06
 0.10297000E+03 -0.11467E+06
 0.10302000E+03  0.26787E+05
 0.10307000E+03  0.11674E+06
 0.10312000E+03  0.17802E+06
 0.10317000E+03  0.28698E+06
 0.10322000E+03  0.47042E+06
 0.10327000E+03  0.67381E+06
 0.10332000E+03  0.78892E+06
 0.10337000E+03  0.77477E+06
 0.10342000E+03  0.66499E+06
 0.10347000E+03  0.48386E+06
 0.10352000E+03  0.28530E+06
 0.10357000E+03  0.12434E+06
 0.10362000E+03 -0.66360E+04
 0.10367000E+03 -0.96946E+05
 0.10372000E+03 -0.12914E+06
 0.10377000E+03 -0.15108E+06
 0.10382000E+03 -0.20394E+06
 0.10387000E+03 -0.26255E+06
 0.10392000E+03 -0.28069E+06
 0.10397000E+03 -0.25792E+06
 0.10402000E+03 -0.22248E+06
 0.10407000E+03 -0.20780E+06
 0.10412000E+03 -0.24236E+06
 0.10417000E+03 -0.32399E+06
 0.10422000E+03 -0.47715E+06
 0.10427000E+03 -0.69380E+06
 0.10432000E+03 -0.91289E+06
 0.10437000E+03 -0.11179E+07
 0.10442000E+03 -0.12597E+07
 0.10447000E+03 -0.12555E+07
 0.10452000E+03 -0.10959E+07
 0.10457000E+03 -0.86360E+06
 0.10462000E+03 -0.61522E+06
 0.10467000E+03 -0.34740E+06
 0.10472000E+03 -0.92901E+05
 0.10477000E+03  0.14428E+06
 0.10482000E+03  0.34965E+06
 0.10487000E+03  0.46674E+06
 0.10492000E+03  0.48888E+06
 0.10497000E+03  0.44920E+06
 0.10502000E+03  0.42561E+06
 0.10507000E+03  0.47068E+06
 0.10512000E+03  0.58794E+06
 0.10517000E+03  0.76931E+06
 0.10522000E+03  0.94553E+06
 0.10527000E+03  0.10344E+07
 0.10532000E+03  0.10253E+07
 0.10537000E+03  0.96205E+06
 0.10542000E+03  0.90549E+06
 0.10547000E+03  0.90201E+06
 0.10552000E+03  0.95736E+06
 0.10557000E+03  0.10465E+07
 0.10562000E+03  0.11268E+07
 0.10567000E+03  0.11846E+07
 0.10572000E+03  0.11953E+07
 0.10577000E+03  0.10834E+07
 0.10582000E+03  0.81622E+06
 0.10587000E+03  0.42953E+06
 0.10592000E+03 -0.10226E+05
 0.10597000E+03 -0.43223E+06
 0.10602000E+03 -0.81377E+06
 0.10607000E+03 -0.11269E+07
 0.10612000E+03 -0.13065E+07
 0.10617000E+03 -0.13763E+07
 0.10622000E+03 -0.13935E+07
 0.10627000E+03 -0.13810E+07
 0.10632000E+03 -0.13313E+07
 0.10637000E+03 -0.12030E+07
 0.10642000E+03 -0.10077E+07
 0.10647000E+03 -0.75000E+06
 0.10652000E+03 -0.41585E+06
 0.10657000E+03 -0.46175E+05
 0.10662000E+03  0.30962E+06
 0.10667000E+03  0.63822E+06
 0.10672000E+03  0.91887E+06
 0.10677000E+03  0.10904E+07
 0.10682000E+03  0.11402E+07
 0.10687000E+03  0.11076E+07
 0.10692000E+03  0.10075E+07
 0.10697000E+03  0.85512E+06
 0.10702000E+03  0.70095E+06
 0.10707000E+03  0.60420E+06
 0.10712000E+03  0.59073E+06
 0.10717000E+03  0.62714E+06
 0.10722000E+03  0.66289E+06
 0.10727000E+03  0.70130E+06
 0.10732000E+03  0.74426E+06
 0.10737000E+03  0.76657E+06
 0.10742000E+03  0.77075E+06
 0.10747000E+03  0.75818E+06
 0.10752000E+03  0.70724E+06
 0.10757000E+03  0.62371E+06
 0.10762000E+03  0.56601E+06
 0.10767000E+03  0.55787E+06
 0.10772000E+03  0.56041E+06
 0.10777000E+03  0.51221E+06
 0.10782000E+03  0.34940E+06
 0.10787000E+03  0.80608E+05
 0.10792000E+03 -0.23357E+06
 0.10797000E+03 -0.53815E+06
 0.10802000E+03 -0.78233E+06
 0.10807000E+03 -0.93246E+06
 0.10812000E+03 -0.98208E+06
 0.10817000E+03 -0.94250E+06
 0.10822000E+03 -0.81324E+06
 0.10827000E+03 -0.61866E+06
 0.10832000E+03 -0.42651E+06
 0.10837000E+03 -0.27546E+06
 0.10842000E+03 -0.16945E+06
 0.10847000E+03 -0.11634E+06
 0.10852000E+03 -0.10194E+06
 0.10857000E+03 -0.70126E+05
 0.10862000E+03  0.38363E+05
 0.10867000E+03  0.20843E+06
 0.10872000E+03  0.35675E+06
 0.10877000E+03  0.43591E+06
 0.10882000E+03  0.45390E+06
 0.10887000E+03  0.43760E+06
 0.10892000E+03  0.41100E+06
 0.10897000E+03  0.38089E+06
 0.10902000E+03  0.35069E+06
 0.10907000E+03  0.32463E+06
 0.10912000E+03  0.28135E+06
 0.10917000E+03  0.21356E+06
 0.10922000E+03  0.14181E+06
 0.10927000E+03  0.72410E+05
 0.10932000E+03  0.41778E+05
 0.10937000E+03  0.79389E+05
 0.10942000E+03  0.15467E+06
 0.10947000E+03  0.23030E+06
 0.10952000E+03  0.28825E+06
 0.10957000E+03  0.31598E+06
 0.10962000E+03  0.28881E+06
 0.10967000E+03  0.22237E+06
 0.10972000E+03  0.15687E+06
 0.10977000E+03  0.79937E+05
 0.10982000E+03 -0.24175E+05
 0.10987000E+03 -0.14315E+06
 0.10992000E+03 -0.25568E+06
 0.10997000E+03 -0.35002E+06
 0.11002000E+03 -0.42499E+06
 0.11007000E+03 -0.46303E+06
 0.11012000E+03 -0.45764E+06
 0.11017000E+03 -0.41224E+06
 0.11022000E+03 -0.32600E+06
 0.11027000E+03 -0.22575E+06
 0.11032000E+03 -0.13582E+06
 0.11037000E+03 -0.60740E+05
 0.11042000E+03 -0.85150E+04
 0.11047000E+03  0.16013E+05
 0.11052000E+03 -0.36760E+04
 0.11057000E+03 -0.62387E+05
 0.11062000E+03 -0.11922E+06
 0.11067000E+03 -0.15306E+06
 0.11072000E+03 -0.15669E+06
 0.11077000E+03 -0.14026E+06
 0.11082000E+03 -0.14572E+06
 0.11087000E+03 -0.22869E+06
 0.11092000E+03 -0.41679E+06
 0.11097000E+03 -0.68161E+06
 0.11102000E+03 -0.95900E+06
 0.11107000E+03 -0.11923E+07
 0.11112000E+03 -0.13665E+07
 0.11117000E+03 -0.14690E+07
 0.11122000E+03 -0.14845E+07
 0.11127000E+03 -0.14112E+07
 0.11132000E+03 -0.12494E+07
 0.11137000E+03 -0.10213E+07
 0.11142000E+03 -0.77023E+06
 0.11147000E+03 -0.54393E+06
 0.11152000E+03 -0.34934E+06
 0.11157000E+03 -0.15390E+06
 0.11162000E+03  0.61290E+05
 0.11167000E+03  0.28598E+06
 0.11172000E+03  0.47327E+06
 0.11177000E+03  0.58887E+06
 0.11182000E+03  0.66004E+06
 0.11187000E+03  0.71303E+06
 0.11192000E+03  0.74508E+06
 0.11197000E+03  0.75141E+06
 0.11202000E+03  0.72456E+06
 0.11207000E+03  0.67471E+06
 0.11212000E+03  0.61574E+06
 0.11217000E+03  0.54743E+06
 0.11222000E+03  0.48439E+06
 0.11227000E+03  0.43243E+06
 0.11232000E+03  0.36474E+06
 0.11237000E+03  0.26923E+06
 0.11242000E+03  0.15527E+06
 0.11247000E+03  0.37652E+05
 0.11252000E+03 -0.73120E+05
 0.11257000E+03 -0.19050E+06
 0.11262000E+03 -0.31459E+06
 0.11267000E+03 -0.41375E+06
 0.11272000E+03 -0.47059E+06
 0.11277000E+03 -0.49118E+06
 0.11282000E+03 -0.47701E+06
 0.11287000E+03 -0.42219E+06
 0.11292000E+03 -0.33183E+06
 0.11297000E+03 -0.24567E+06
 0.11302000E+03 -0.18353E+06
 0.11307000E+03 -0.11801E+06
 0.11312000E+03 -0.39286E+05
 0.11317000E+03  0.52280E+05
 0.11322000E+03  0.14678E+06
 0.11327000E+03  0.23443E+06
 0.11332000E+03  0.33118E+06
 0.11337000E+03  0.41284E+06
 0.11342000E+03  0.43347E+06
 0.11347000E+03  0.39422E+06
 0.11352000E+03  0.31826E+06
 0.11357000E+03  0.24148E+06
 0.11362000E+03  0.19272E+06
 0.11367000E+03  0.16389E+06
 0.11372000E+03  0.14338E+06
 0.11377000E+03  0.13522E+06
 0.11382000E+03  0.15348E+06
 0.11387000E+03  0.19599E+06
 0.11392000E+03  0.23992E+06
 0.11397000E+03  0.28185E+06
 0.11402000E+03  0.32392E+06
 0.11407000E+03  0.36379E+06
 0.11412000E+03  0.41698E+06
 0.11417000E+03  0.48565E+06
 0.11422000E+03  0.55105E+06
 0.11427000E+03  0.60089E+06
 0.11432000E+03  0.60391E+06
 0.11437000E+03  0.53882E+06
 0.11442000E+03  0.43625E+06
 0.11447000E+03  0.34268E+06
 0.11452000E+03  0.30898E+06
 0.11457000E+03  0.36194E+06
 0.11462000E+03  0.47434E+06
 0.11467000E+03  0.60337E+06
 0.11472000E+03  0.69252E+06
 0.11477000E+03  0.70244E+06
 0.11482000E+03  0.66266E+06
 0.11487000E+03  0.60393E+06
 0.11492000E+03  0.53790E+06
 0.11497000E+03  0.48341E+06
 0.11502000E+03  0.44385E+06
 0.11507000E+03  0.39938E+06
 0.11512000E+03  0.33191E+06
 0.11517000E+03  0.24103E+06
 0.11522000E+03  0.13190E+06
 0.11527000E+03  0.16752E+05
 0.11532000E+03 -0.11476E+06
 0.11537000E+03 -0.27322E+06
 0.11542000E+03 -0.44494E+06
 0.11547000E+03 -0.63512E+06
 0.11552000E+03 -0.83099E+06
 0.11557000E+03 -0.99458E+06
 0.11562000E+03 -0.11134E+07
 0.11567000E+03 -0.12132E+07
 0.11572000E+03 -0.13196E+07
 0.11577000E+03 -0.14094E+07
 0.11582000E+03 -0.14573E+07
 0.11587000E+03 -0.14634E+07
 0.11592000E+03 -0.14371E+07
 0.11597000E+03 -0.13950E+07
 0.11602000E+03 -0.13429E+07
 0.11607000E+03 -0.12859E+07
 0.11612000E+03 -0.12245E+07
 0.11617000E+03 -0.11350E+07
 0.11622000E+03 -0.99700E+06
 0.11627000E+03 -0.80749E+06
 0.11632000E+03 -0.57277E+06
 0.11637000E+03 -0.30377E+06
 0.11642000E+03 -0.37600E+03
 0.11647000E+03  0.32643E+06
 0.11652000E+03  0.64746E+06
 0.11657000E+03  0.94139E+06
 0.11662000E+03  0.11870E+07
 0.11667000E+03  0.13581E+07
 0.11672000E+03  0.14457E+07
 0.11677000E+03  0.14801E+07
 0.11682000E+03  0.15016E+07
 0.11687000E+03  0.15237E+07
 0.11692000E+03  0.15231E+07
 0.11697000E+03  0.14558E+07
 0.11702000E+03  0.13060E+07
 0.11707000E+03  0.10979E+07
 0.11712000E+03  0.85601E+06
 0.11717000E+03  0.59004E+06
 0.11722000E+03  0.32206E+06
 0.11727000E+03  0.87990E+05
 0.11732000E+03 -0.92650E+05
 0.11737000E+03 -0.22403E+06
 0.11742000E+03 -0.32214E+06
 0.11747000E+03 -0.39962E+06
 0.11752000E+03 -0.45712E+06
 0.11757000E+03 -0.50776E+06
 0.11762000E+03 -0.58129E+06
 0.11767000E+03 -0.68977E+06
 0.11772000E+03 -0.81138E+06
 0.11777000E+03 -0.90867E+06
 0.11782000E+03 -0.96836E+06
 0.11787000E+03 -0.99654E+06
 0.11792000E+03 -0.10056E+07
 0.11797000E+03 -0.10199E+07
 0.11802000E+03 -0.10507E+07
 0.11807000E+03 -0.10858E+07
 0.11812000E+03 -0.11075E+07
 0.11817000E+03 -0.11104E+07
 0.11822000E+03 -0.11089E+07
 0.11827000E+03 -0.11067E+07
 0.11832000E+03 -0.10761E+07
 0.11837000E+03 -0.99352E+06
 0.11842000E+03 -0.86933E+06
 0.11847000E+03 -0.71154E+06
 0.11852000E+03 -0.51861E+06
 0.11857000E+03 -0.31660E+06
 0.11862000E+03 -0.11417E+06
 0.11867000E+03  0.10696E+06
 0.11872000E+03  0.34238E+06
 0.11877000E+03  0.56764E+06
 0.11882000E+03  0.75618E+06
 0.11887000E+03  0.91309E+06
 0.11892000E+03  0.10573E+07
 0.11897000E+03  0.11731E+07
 0.11902000E+03  0.12447E+07
 0.11907000E+03  0.12810E+07
 0.11912000E+03  0.13038E+07
 0.11917000E+03  0.13200E+07
 0.11922000E+03  0.13079E+07
 0.11927000E+03  0.12442E+07
 0.11932000E+03  0.11250E+07
 0.11937000E+03  0.95697E+06
 0.11942000E+03  0.74396E+06
 0.11947000E+03  0.51364E+06
 0.11952000E+03  0.29465E+06
 0.11957000E+03  0.98750E+05
 0.11962000E+03 -0.69547E+05
 0.11967000E+03 -0.21038E+06
 0.11972000E+03 -0.31182E+06
 0.11977000E+03 -0.36270E+06
 0.11982000E+03 -0.35954E+06
 0.11987000E+03 -0.32585E+06
 0.11992000E+03 -0.29121E+06
 0.11997000E+03 -0.24006E+06
 0.12002000E+03 -0.15261E+06
 0.12007000E+03 -0.40761E+05
 0.12012000E+03  0.77214E+05
 0.12017000E+03  0.16736E+06
 0.12022000E+03  0.21253E+06
 0.12027000E+03  0.24313E+06
 0.12032000E+03  0.27579E+06
 0.12037000E+03  0.31880E+06
 0.12042000E+03  0.38375E+06
 0.12047000E+03  0.45112E+06
 0.12052000E+03  0.49798E+06
 0.12057000E+03  0.52256E+06
 0.12062000E+03  0.52160E+06
 0.12067000E+03  0.49306E+06
 0.12072000E+03  0.43388E+06
 0.12077000E+03  0.33759E+06
 0.12082000E+03  0.21631E+06
 0.12087000E+03  0.91674E+05
 0.12092000E+03 -0.16906E+05
 0.12097000E+03 -0.10118E+06
 0.12102000E+03 -0.15978E+06
 0.12107000E+03 -0.20030E+06
 0.12112000E+03 -0.23442E+06
 0.12117000E+03 -0.24536E+06
 0.12122000E+03 -0.21553E+06
 0.12127000E+03 -0.15709E+06
 0.12132000E+03 -0.94730E+05
 0.12137000E+03 -0.41468E+05
 0.12142000E+03 -0.69340E+04
 0.12147000E+03 -0.95440E+04
 0.12152000E+03 -0.44206E+05
 0.12157000E+03 -0.84338E+05
 0.12162000E+03 -0.10731E+06
 0.12167000E+03 -0.11461E+06
 0.12172000E+03 -0.13666E+06
 0.12177000E+03 -0.19800E+06
 0.12182000E+03 -0.29294E+06
 0.12187000E+03 -0.40215E+06
 0.12192000E+03 -0.51262E+06
 0.12197000E+03 -0.59935E+06
 0.12202000E+03 -0.63121E+06
 0.12207000E+03 -0.60206E+06
 0.12212000E+03 -0.51964E+06
 0.12217000E+03 -0.38349E+06
 0.12222000E+03 -0.20180E+06
 0.12227000E+03  0.62400E+04
 0.12232000E+03  0.21670E+06
 0.12237000E+03  0.38938E+06
 0.12242000E+03  0.50339E+06
 0.12247000E+03  0.56280E+06
 0.12252000E+03  0.58531E+06
 0.12257000E+03  0.60444E+06
 0.12262000E+03  0.63332E+06
 0.12267000E+03  0.65344E+06
 0.12272000E+03  0.63909E+06
 0.12277000E+03  0.58208E+06
 0.12282000E+03  0.47593E+06
 0.12287000E+03  0.31272E+06
 0.12292000E+03  0.11789E+06
 0.12297000E+03 -0.66248E+05
 0.12302000E+03 -0.21258E+06
 0.12307000E+03 -0.30275E+06
 0.12312000E+03 -0.34734E+06
 0.12317000E+03 -0.37924E+06
 0.12322000E+03 -0.40948E+06
 0.12327000E+03 -0.43841E+06
 0.12332000E+03 -0.45966E+06
 0.12337000E+03 -0.47430E+06
 0.12342000E+03 -0.48490E+06
 0.12347000E+03 -0.47678E+06
 0.12352000E+03 -0.44424E+06
 0.12357000E+03 -0.39017E+06
 0.12362000E+03 -0.32546E+06
 0.12367000E+03 -0.25658E+06
 0.12372000E+03 -0.17446E+06
 0.12377000E+03 -0.92759E+05
 0.12382000E+03 -0.42757E+05
 0.12387000E+03 -0.33969E+05
 0.12392000E+03 -0.58723E+05
 0.12397000E+03 -0.99668E+05
 0.12402000E+03 -0.13249E+06
 0.12407000E+03 -0.14158E+06
 0.12412000E+03 -0.13232E+06
 0.12417000E+03 -0.11132E+06
 0.12422000E+03 -0.75494E+05
 0.12427000E+03 -0.32389E+05
 0.12432000E+03  0.74700E+04
 0.12437000E+03  0.45805E+05
 0.12442000E+03  0.83057E+05
 0.12447000E+03  0.97241E+05
 0.12452000E+03  0.75439E+05
 0.12457000E+03  0.32366E+05
 0.12462000E+03 -0.25979E+05
 0.12467000E+03 -0.10573E+06
 0.12472000E+03 -0.21956E+06
 0.12477000E+03 -0.36902E+06
 0.12482000E+03 -0.52402E+06
 0.12487000E+03 -0.65426E+06
 0.12492000E+03 -0.74068E+06
 0.12497000E+03 -0.76581E+06
 0.12502000E+03 -0.72506E+06
 0.12507000E+03 -0.62567E+06
 0.12512000E+03 -0.49091E+06
 0.12517001E+03 -0.35247E+06
 0.12521999E+03 -0.23104E+06
 0.12527000E+03 -0.13198E+06
 0.12532000E+03 -0.49392E+05
 0.12537000E+03  0.24880E+05
 0.12542001E+03  0.98414E+05
 0.12546999E+03  0.15730E+06
 0.12552000E+03  0.19256E+06
 0.12557000E+03  0.23172E+06
 0.12562000E+03  0.29871E+06
 0.12567001E+03  0.38626E+06
 0.12571999E+03  0.46206E+06
 0.12577000E+03  0.50505E+06
 0.12582000E+03  0.52152E+06
 0.12587000E+03  0.53094E+06
 0.12592001E+03  0.55089E+06
 0.12596999E+03  0.57508E+06
 0.12602000E+03  0.57683E+06
 0.12607000E+03  0.52311E+06
 0.12612000E+03  0.39353E+06
 0.12617001E+03  0.19543E+06
 0.12621999E+03 -0.58127E+05
 0.12627000E+03 -0.34551E+06
 0.12632000E+03 -0.62467E+06
 0.12637000E+03 -0.86280E+06
 0.12642001E+03 -0.10367E+07
 0.12646999E+03 -0.11392E+07
 0.12652000E+03 -0.11659E+07
 0.12657000E+03 -0.11025E+07
 0.12662000E+03 -0.98081E+06
 0.12667001E+03 -0.84658E+06
 0.12671999E+03 -0.71291E+06
 0.12677000E+03 -0.58073E+06
 0.12682000E+03 -0.43936E+06
 0.12687000E+03 -0.28751E+06
 0.12692001E+03 -0.14214E+06
 0.12696999E+03 -0.12770E+05
 0.12702000E+03  0.95446E+05
 0.12707000E+03  0.18610E+06
 0.12712000E+03  0.28010E+06
 0.12717001E+03  0.39517E+06
 0.12721999E+03  0.52904E+06
 0.12727000E+03  0.66277E+06
 0.12732000E+03  0.79345E+06
 0.12737000E+03  0.92265E+06
 0.12742001E+03  0.10439E+07
 0.12746999E+03  0.11640E+07
 0.12752000E+03  0.12857E+07
 0.12757000E+03  0.13981E+07
 0.12762000E+03  0.14762E+07
 0.12767001E+03  0.14969E+07
 0.12771999E+03  0.14615E+07
 0.12777000E+03  0.13805E+07
 0.12782000E+03  0.12552E+07
 0.12787000E+03  0.10961E+07
 0.12792001E+03  0.93620E+06
 0.12796999E+03  0.81376E+06
 0.12802000E+03  0.74422E+06
 0.12807001E+03  0.71468E+06
 0.12812001E+03  0.70440E+06
 0.12817001E+03  0.68223E+06
 0.12822000E+03  0.61951E+06
 0.12827000E+03  0.51499E+06
 0.12832001E+03  0.38309E+06
 0.12837001E+03  0.23545E+06
 0.12842001E+03  0.88237E+05
 0.12847000E+03 -0.45465E+05
 0.12852000E+03 -0.15768E+06
 0.12857001E+03 -0.23558E+06
 0.12862001E+03 -0.27510E+06
 0.12867001E+03 -0.28676E+06
 0.12872000E+03 -0.29096E+06
 0.12877000E+03 -0.30923E+06
 0.12882001E+03 -0.36511E+06
 0.12887001E+03 -0.45600E+06
 0.12892001E+03 -0.54890E+06
 0.12897000E+03 -0.62171E+06
 0.12902000E+03 -0.67024E+06
 0.12907001E+03 -0.70822E+06
 0.12912001E+03 -0.74766E+06
 0.12917001E+03 -0.79206E+06
 0.12922000E+03 -0.84200E+06
 0.12927000E+03 -0.87813E+06
 0.12932001E+03 -0.88361E+06
 0.12937001E+03 -0.85835E+06
 0.12942001E+03 -0.80596E+06
 0.12947000E+03 -0.73235E+06
 0.12952000E+03 -0.63308E+06
 0.12957001E+03 -0.50021E+06
 0.12962001E+03 -0.33737E+06
 0.12967001E+03 -0.16238E+06
 0.12972000E+03  0.46530E+04
 0.12977000E+03  0.15717E+06
 0.12982001E+03  0.28827E+06
 0.12987001E+03  0.40076E+06
 0.12992001E+03  0.50667E+06
 0.12997000E+03  0.59681E+06
 0.13002000E+03  0.65609E+06
 0.13007001E+03  0.67544E+06
 0.13012001E+03  0.64982E+06
 0.13017001E+03  0.58839E+06
 0.13022000E+03  0.50555E+06
 0.13027000E+03  0.41188E+06
 0.13032001E+03  0.31226E+06
 0.13037001E+03  0.21754E+06
 0.13042001E+03  0.15160E+06
 0.13047000E+03  0.13851E+06
 0.13052000E+03  0.18288E+06
 0.13057001E+03  0.25290E+06
 0.13062001E+03  0.30225E+06
 0.13067001E+03  0.29329E+06
 0.13072000E+03  0.21184E+06
 0.13077000E+03  0.68165E+05
 0.13082001E+03 -0.11871E+06
 0.13087001E+03 -0.31957E+06
 0.13092001E+03 -0.51702E+06
 0.13097000E+03 -0.71068E+06
 0.13102000E+03 -0.88909E+06
 0.13107001E+03 -0.10295E+07
 0.13112001E+03 -0.11174E+07
 0.13117001E+03 -0.11624E+07
 0.13122000E+03 -0.11914E+07
 0.13127000E+03 -0.12208E+07
 0.13132001E+03 -0.12468E+07
 0.13137001E+03 -0.12544E+07
 0.13142001E+03 -0.12271E+07
 0.13147000E+03 -0.11614E+07
 0.13152000E+03 -0.10601E+07
 0.13157001E+03 -0.93192E+06
 0.13162001E+03 -0.79247E+06
 0.13167001E+03 -0.64826E+06
 0.13172000E+03 -0.49224E+06
 0.13177000E+03 -0.32588E+06
 0.13182001E+03 -0.16352E+06
 0.13187001E+03 -0.78500E+04
 0.13192001E+03  0.14181E+06
 0.13197000E+03  0.28053E+06
 0.13202000E+03  0.40649E+06
 0.13207001E+03  0.52529E+06
 0.13212001E+03  0.64130E+06
 0.13217001E+03  0.74199E+06
 0.13222000E+03  0.81474E+06
 0.13227000E+03  0.86288E+06
 0.13232001E+03  0.90292E+06
 0.13237001E+03  0.95243E+06
 0.13242001E+03  0.10097E+07
 0.13247000E+03  0.10603E+07
 0.13252000E+03  0.10921E+07
 0.13257001E+03  0.10859E+07
 0.13262001E+03  0.10274E+07
 0.13267001E+03  0.92206E+06
 0.13272000E+03  0.77561E+06
 0.13277000E+03  0.59275E+06
 0.13282001E+03  0.38174E+06
 0.13287001E+03  0.14830E+06
 0.13292001E+03 -0.10032E+06
 0.13297000E+03 -0.34728E+06
 0.13302000E+03 -0.57025E+06
 0.13307001E+03 -0.75007E+06
 0.13312001E+03 -0.87342E+06
 0.13317001E+03 -0.93175E+06
 0.13322000E+03 -0.92086E+06
 0.13327000E+03 -0.85618E+06
 0.13332001E+03 -0.76300E+06
 0.13337001E+03 -0.65980E+06
 0.13342001E+03 -0.55642E+06
 0.13347000E+03 -0.45290E+06
 0.13352000E+03 -0.36027E+06
 0.13357001E+03 -0.28854E+06
 0.13362001E+03 -0.22719E+06
 0.13367001E+03 -0.16648E+06
 0.13372000E+03 -0.10422E+06
 0.13377000E+03 -0.46061E+05
 0.13382001E+03 -0.33970E+04
 0.13387001E+03  0.21986E+05
 0.13392001E+03  0.31284E+05
 0.13397000E+03  0.26099E+05
 0.13402000E+03  0.22629E+05
 0.13407001E+03  0.42696E+05
 0.13412001E+03  0.98881E+05
 0.13417001E+03  0.19510E+06
 0.13422000E+03  0.32078E+06
 0.13427000E+03  0.46411E+06
 0.13432001E+03  0.62378E+06
 0.13437001E+03  0.78719E+06
 0.13442001E+03  0.93725E+06
 0.13447000E+03  0.10613E+07
 0.13452000E+03  0.11475E+07
 0.13457001E+03  0.11865E+07
 0.13462001E+03  0.11708E+07
 0.13467001E+03  0.11019E+07
 0.13472000E+03  0.98643E+06
 0.13477000E+03  0.83409E+06
 0.13482001E+03  0.65907E+06
 0.13487001E+03  0.47729E+06
 0.13492001E+03  0.31034E+06
 0.13497000E+03  0.18022E+06
 0.13502000E+03  0.98854E+05
 0.13507001E+03  0.60042E+05
 0.13512001E+03  0.34405E+05
 0.13517001E+03 -0.10895E+05
 0.13522000E+03 -0.83278E+05
 0.13527000E+03 -0.16649E+06
 0.13532001E+03 -0.24216E+06
 0.13537001E+03 -0.30669E+06
 0.13542001E+03 -0.36181E+06
 0.13547000E+03 -0.40155E+06
 0.13552000E+03 -0.42475E+06
 0.13557001E+03 -0.43177E+06
 0.13562001E+03 -0.41908E+06
 0.13567001E+03 -0.38214E+06
 0.13572000E+03 -0.31532E+06
 0.13577000E+03 -0.23292E+06
 0.13582001E+03 -0.16156E+06
 0.13587001E+03 -0.11722E+06
 0.13592001E+03 -0.10633E+06
 0.13597000E+03 -0.12363E+06
 0.13602000E+03 -0.16175E+06
 0.13607001E+03 -0.21301E+06
 0.13612001E+03 -0.26636E+06
 0.13617001E+03 -0.31494E+06
 0.13622000E+03 -0.35098E+06
 0.13627000E+03 -0.36740E+06
 0.13632001E+03 -0.36305E+06
 0.13637001E+03 -0.34292E+06
 0.13642001E+03 -0.31566E+06
 0.13647000E+03 -0.28247E+06
 0.13652000E+03 -0.22816E+06
 0.13657001E+03 -0.14154E+06
 0.13662001E+03 -0.49436E+05
 0.13667001E+03  0.13283E+05
 0.13672000E+03  0.39967E+05
 0.13677000E+03  0.24794E+05
 0.13682001E+03 -0.33875E+05
 0.13687001E+03 -0.12448E+06
 0.13692001E+03 -0.23579E+06
 0.13697000E+03 -0.35366E+06
 0.13702000E+03 -0.46260E+06
 0.13707001E+03 -0.54047E+06
 0.13712001E+03 -0.56888E+06
 0.13717001E+03 -0.54968E+06
 0.13722000E+03 -0.49559E+06
 0.13727000E+03 -0.41664E+06
 0.13732001E+03 -0.31692E+06
 0.13737001E+03 -0.20372E+06
 0.13742001E+03 -0.94733E+05
 0.13747000E+03 -0.32280E+04
 0.13752000E+03  0.69697E+05
 0.13757001E+03  0.12888E+06
 0.13762001E+03  0.18233E+06
 0.13767001E+03  0.22562E+06
 0.13772000E+03  0.24830E+06
 0.13777000E+03  0.24770E+06
 0.13782001E+03  0.22784E+06
 0.13787001E+03  0.20396E+06
 0.13792001E+03  0.18837E+06
 0.13797000E+03  0.17873E+06
 0.13802000E+03  0.17309E+06
 0.13807001E+03  0.17162E+06
 0.13812001E+03  0.17079E+06
 0.13817001E+03  0.17267E+06
 0.13822000E+03  0.18070E+06
 0.13827000E+03  0.19394E+06
 0.13832001E+03  0.20300E+06
 0.13837001E+03  0.19860E+06
 0.13842001E+03  0.18620E+06
 0.13847000E+03  0.17555E+06
 0.13852000E+03  0.17718E+06
 0.13857001E+03  0.19461E+06
 0.13862001E+03  0.22368E+06
 0.13867001E+03  0.26009E+06
 0.13872000E+03  0.29688E+06
 0.13877000E+03  0.32895E+06
 0.13882001E+03  0.34435E+06
 0.13887001E+03  0.32625E+06
 0.13892001E+03  0.27354E+06
 0.13897000E+03  0.20468E+06
 0.13902000E+03  0.13605E+06
 0.13907001E+03  0.73563E+05
 0.13912001E+03  0.16911E+05
 0.13917001E+03 -0.39898E+05
 0.13922000E+03 -0.89722E+05
 0.13927000E+03 -0.11921E+06
 0.13932001E+03 -0.12518E+06
 0.13937001E+03 -0.11269E+06
 0.13942001E+03 -0.98488E+05
 0.13947000E+03 -0.93322E+05
 0.13952000E+03 -0.85267E+05
 0.13957001E+03 -0.63837E+05
 0.13962001E+03 -0.32603E+05
 0.13967001E+03 -0.27700E+03
 0.13972000E+03  0.19971E+05
 0.13977000E+03  0.23012E+05
 0.13982001E+03  0.22900E+05
 0.13987001E+03  0.38840E+05
 0.13992001E+03  0.72330E+05
 0.13997000E+03  0.11364E+06
 0.14002000E+03  0.15039E+06
 0.14007001E+03  0.16270E+06
 0.14012001E+03  0.13450E+06
 0.14017001E+03  0.69801E+05
 0.14022000E+03 -0.47930E+04
 0.14027000E+03 -0.71563E+05
 0.14032001E+03 -0.13348E+06
 0.14037001E+03 -0.19769E+06
 0.14042001E+03 -0.26358E+06
 0.14047000E+03 -0.31220E+06
 0.14052000E+03 -0.32963E+06
 0.14057001E+03 -0.32153E+06
 0.14062001E+03 -0.29352E+06
 0.14067001E+03 -0.24807E+06
 0.14072000E+03 -0.19549E+06
 0.14077000E+03 -0.14288E+06
 0.14082001E+03 -0.91756E+05
 0.14087001E+03 -0.52130E+05
 0.14092001E+03 -0.29177E+05
 0.14097000E+03 -0.23173E+05
 0.14102000E+03 -0.31526E+05
 0.14107001E+03 -0.43497E+05
 0.14112001E+03 -0.55816E+05
 0.14117001E+03 -0.67749E+05
 0.14122000E+03 -0.75298E+05
 0.14127000E+03 -0.75671E+05
 0.14132001E+03 -0.65049E+05
 0.14137001E+03 -0.40506E+05
 0.14142001E+03 -0.58020E+04
 0.14147000E+03  0.32789E+05
 0.14152000E+03  0.78358E+05
 0.14157001E+03  0.13918E+06
 0.14162001E+03  0.22111E+06
 0.14167001E+03  0.31841E+06
 0.14172000E+03  0.41103E+06
 0.14177000E+03  0.47769E+06
 0.14182001E+03  0.50708E+06
 0.14187001E+03  0.50069E+06
 0.14192001E+03  0.46886E+06
 0.14197000E+03  0.42698E+06
 0.14202000E+03  0.38683E+06
 0.14207001E+03  0.34659E+06
 0.14212001E+03  0.29559E+06
 0.14217001E+03  0.22852E+06
 0.14222000E+03  0.14266E+06
 0.14227000E+03  0.35750E+05
 0.14232001E+03 -0.81392E+05
 0.14237001E+03 -0.19180E+06
 0.14242001E+03 -0.27950E+06
 0.14247000E+03 -0.33716E+06
 0.14252000E+03 -0.37150E+06
 0.14257001E+03 -0.38264E+06
 0.14262001E+03 -0.36645E+06
 0.14267001E+03 -0.32651E+06
 0.14272000E+03 -0.27968E+06
 0.14277000E+03 -0.25956E+06
 0.14282001E+03 -0.28699E+06
 0.14287001E+03 -0.35419E+06
 0.14292001E+03 -0.43190E+06
 0.14297000E+03 -0.49107E+06
 0.14302000E+03 -0.52610E+06
 0.14307001E+03 -0.53934E+06
 0.14312001E+03 -0.52790E+06
 0.14317001E+03 -0.49258E+06
 0.14322000E+03 -0.44036E+06
 0.14327000E+03 -0.37914E+06
 0.14332001E+03 -0.31374E+06
 0.14337001E+03 -0.24887E+06
 0.14342001E+03 -0.18185E+06
 0.14347000E+03 -0.10316E+06
 0.14352000E+03 -0.16997E+05
 0.14357001E+03  0.63332E+05
 0.14362001E+03  0.13092E+06
 0.14367001E+03  0.19110E+06
 0.14372000E+03  0.25078E+06
 0.14377000E+03  0.30825E+06
 0.14382001E+03  0.36077E+06
 0.14387001E+03  0.40811E+06
 0.14392001E+03  0.44982E+06
 0.14397000E+03  0.48101E+06
 0.14402000E+03  0.51008E+06
 0.14407001E+03  0.54996E+06
 0.14412001E+03  0.58810E+06
 0.14417001E+03  0.59750E+06
 0.14422000E+03  0.55990E+06
 0.14427000E+03  0.48029E+06
 0.14432001E+03  0.37314E+06
 0.14437001E+03  0.24795E+06
 0.14442001E+03  0.11369E+06
 0.14447000E+03 -0.20629E+05
 0.14452000E+03 -0.14748E+06
 0.14457001E+03 -0.25634E+06
 0.14462001E+03 -0.32113E+06
 0.14467001E+03 -0.32072E+06
 0.14472000E+03 -0.26354E+06
 0.14477000E+03 -0.17317E+06
 0.14482001E+03 -0.69088E+05
 0.14487001E+03  0.45436E+05
 0.14492001E+03  0.16887E+06
 0.14497000E+03  0.28690E+06
 0.14502000E+03  0.38497E+06
 0.14507001E+03  0.45000E+06
 0.14512001E+03  0.47652E+06
 0.14517001E+03  0.47257E+06
 0.14522000E+03  0.45131E+06
 0.14527000E+03  0.41975E+06
 0.14532001E+03  0.36809E+06
 0.14537001E+03  0.28582E+06
 0.14542001E+03  0.17904E+06
 0.14547000E+03  0.63112E+05
 0.14552000E+03 -0.49912E+05
 0.14557001E+03 -0.14802E+06
 0.14562001E+03 -0.22417E+06
 0.14567001E+03 -0.28609E+06
 0.14572000E+03 -0.33448E+06
 0.14577000E+03 -0.35650E+06
 0.14582001E+03 -0.34564E+06
 0.14587001E+03 -0.31037E+06
 0.14592001E+03 -0.26895E+06
 0.14597000E+03 -0.23855E+06
 0.14602000E+03 -0.22362E+06
 0.14607001E+03 -0.21346E+06
 0.14612001E+03 -0.18851E+06
 0.14617001E+03 -0.13236E+06
 0.14622000E+03 -0.43273E+05
 0.14627000E+03  0.69473E+05
 0.14632001E+03  0.18478E+06
 0.14637001E+03  0.27490E+06
 0.14642001E+03  0.32421E+06
 0.14647000E+03  0.33040E+06
 0.14652000E+03  0.30100E+06
 0.14657001E+03  0.24840E+06
 0.14662001E+03  0.18284E+06
 0.14667001E+03  0.11677E+06
 0.14672000E+03  0.62052E+05
 0.14677000E+03  0.23329E+05
 0.14682001E+03  0.27700E+04
 0.14687001E+03  0.25290E+04
 0.14692001E+03  0.13139E+05
 0.14697000E+03  0.12063E+05
 0.14702000E+03 -0.13641E+05
 0.14707001E+03 -0.58192E+05
 0.14712001E+03 -0.11369E+06
 0.14717001E+03 -0.17775E+06
 0.14722000E+03 -0.24493E+06
 0.14727000E+03 -0.31302E+06
 0.14732001E+03 -0.38696E+06
 0.14737001E+03 -0.46470E+06
 0.14742001E+03 -0.53892E+06
 0.14747000E+03 -0.60118E+06
 0.14752000E+03 -0.64303E+06
 0.14757001E+03 -0.65822E+06
 0.14762001E+03 -0.63965E+06
 0.14767001E+03 -0.59000E+06
 0.14772000E+03 -0.52152E+06
 0.14777000E+03 -0.44082E+06
 0.14782001E+03 -0.35475E+06
 0.14787001E+03 -0.27078E+06
 0.14792001E+03 -0.18898E+06
 0.14797000E+03 -0.11031E+06
 0.14802000E+03 -0.37279E+05
 0.14807001E+03  0.28098E+05
 0.14812001E+03  0.88564E+05
 0.14817001E+03  0.15032E+06
 0.14822000E+03  0.20984E+06
 0.14827000E+03  0.25634E+06
 0.14832001E+03  0.28238E+06
 0.14837001E+03  0.29052E+06
 0.14842001E+03  0.29007E+06
 0.14847000E+03  0.28512E+06
 0.14852000E+03  0.26594E+06
 0.14857001E+03  0.21858E+06
 0.14862001E+03  0.14046E+06
 0.14867001E+03  0.39903E+05
 0.14872000E+03 -0.69564E+05
 0.14877000E+03 -0.17320E+06
 0.14882001E+03 -0.25623E+06
 0.14887001E+03 -0.31072E+06
 0.14892001E+03 -0.33994E+06
 0.14897000E+03 -0.34580E+06
 0.14902000E+03 -0.33096E+06
 0.14907001E+03 -0.30839E+06
 0.14912001E+03 -0.29391E+06
 0.14917001E+03 -0.29144E+06
 0.14922000E+03 -0.28721E+06
 0.14927000E+03 -0.26514E+06
 0.14932001E+03 -0.22267E+06
 0.14937001E+03 -0.16938E+06
 0.14942001E+03 -0.11692E+06
 0.14947000E+03 -0.75494E+05
 0.14952000E+03 -0.52088E+05
 0.14957001E+03 -0.44016E+05
 0.14962001E+03 -0.45522E+05
 0.14967001E+03 -0.54751E+05
 0.14972000E+03 -0.67830E+05
 0.14977000E+03 -0.73576E+05
 0.14982001E+03 -0.64300E+05
 0.14987001E+03 -0.43019E+05
 0.14992001E+03 -0.13874E+05
 0.14997000E+03  0.17191E+05
