-0.29800000E+01 -0.46501E+05
-0.29300001E+01 -0.38421E+05
-0.28800001E+01 -0.30014E+05
-0.28299999E+01 -0.20986E+05
-0.27800000E+01 -0.12600E+05
-0.27300000E+01 -0.64110E+04
-0.26800001E+01 -0.14720E+04
-0.26300001E+01  0.22640E+04
-0.25799999E+01  0.46090E+04
-0.25300000E+01  0.62250E+04
-0.24800000E+01  0.68310E+04
-0.24300001E+01  0.66920E+04
-0.23800001E+01  0.59040E+04
-0.23299999E+01  0.53190E+04
-0.22800000E+01  0.37840E+04
-0.22300000E+01 -0.95300E+03
-0.21800001E+01 -0.62240E+04
-0.21300001E+01 -0.10595E+05
-0.20799999E+01 -0.15613E+05
-0.20300000E+01 -0.20504E+05
-0.19800000E+01 -0.24129E+05
-0.19299999E+01 -0.26813E+05
-0.18800000E+01 -0.28568E+05
-0.18300000E+01 -0.28178E+05
-0.17800000E+01 -0.25577E+05
-0.17300000E+01 -0.21746E+05
-0.16799999E+01 -0.17194E+05
-0.16300000E+01 -0.12854E+05
-0.15800000E+01 -0.82450E+04
-0.15300000E+01 -0.31880E+04
-0.14800000E+01  0.16060E+04
-0.14299999E+01  0.56320E+04
-0.13800000E+01  0.71550E+04
-0.13300000E+01  0.61000E+04
-0.12800000E+01  0.45320E+04
-0.12300000E+01  0.31030E+04
-0.11799999E+01  0.20000E+04
-0.11300000E+01  0.22550E+04
-0.10800000E+01  0.34930E+04
-0.10300000E+01  0.53170E+04
-0.98000002E+00  0.75160E+04
-0.93000007E+00  0.82650E+04
-0.87999988E+00  0.73240E+04
-0.82999992E+00  0.53890E+04
-0.77999997E+00  0.17920E+04
-0.73000002E+00 -0.24960E+04
-0.68000007E+00 -0.59740E+04
-0.62999988E+00 -0.81110E+04
-0.57999992E+00 -0.93090E+04
-0.52999997E+00 -0.10763E+05
-0.48000002E+00 -0.11349E+05
-0.43000007E+00 -0.11603E+05
-0.37999988E+00 -0.12700E+05
-0.32999992E+00 -0.12535E+05
-0.27999997E+00 -0.11516E+05
-0.23000002E+00 -0.10447E+05
-0.18000007E+00 -0.92090E+04
-0.12999988E+00 -0.75810E+04
-0.79999924E-01 -0.55260E+04
-0.29999971E-01 -0.51130E+04
 0.19999981E-01 -0.55580E+04
 0.69999933E-01 -0.57220E+04
 0.12000012E+00 -0.63240E+04
 0.17000008E+00 -0.72060E+04
 0.22000003E+00 -0.82420E+04
 0.26999998E+00 -0.90160E+04
 0.31999993E+00 -0.92330E+04
 0.37000012E+00 -0.84150E+04
 0.42000008E+00 -0.70250E+04
 0.47000003E+00 -0.61360E+04
 0.51999998E+00 -0.54930E+04
 0.56999993E+00 -0.50470E+04
 0.62000012E+00 -0.53700E+04
 0.67000008E+00 -0.74030E+04
 0.72000003E+00 -0.10656E+05
 0.76999998E+00 -0.13215E+05
 0.81999993E+00 -0.15642E+05
 0.87000012E+00 -0.19911E+05
 0.92000008E+00 -0.25259E+05
 0.97000003E+00 -0.30605E+05
 0.10200000E+01 -0.35724E+05
 0.10700002E+01 -0.40206E+05
 0.11199999E+01 -0.43515E+05
 0.11700001E+01 -0.44438E+05
 0.12200003E+01 -0.44219E+05
 0.12700000E+01 -0.42764E+05
 0.13200002E+01 -0.39097E+05
 0.13699999E+01 -0.34559E+05
 0.14200001E+01 -0.27426E+05
 0.14700003E+01 -0.17488E+05
 0.15200000E+01 -0.70870E+04
 0.15700002E+01  0.40260E+04
 0.16199999E+01  0.16034E+05
 0.16700001E+01  0.27890E+05
 0.17200003E+01  0.38846E+05
 0.17700000E+01  0.47851E+05
 0.18200002E+01  0.54663E+05
 0.18699999E+01  0.60609E+05
 0.19200001E+01  0.65419E+05
 0.19700003E+01  0.68254E+05
 0.20200000E+01  0.69491E+05
 0.20700002E+01  0.69205E+05
 0.21199999E+01  0.66586E+05
 0.21700001E+01  0.62129E+05
 0.22200003E+01  0.55838E+05
 0.22700000E+01  0.47537E+05
 0.23200002E+01  0.39509E+05
 0.23699999E+01  0.31399E+05
 0.24200001E+01  0.23430E+05
 0.24700003E+01  0.16592E+05
 0.25200000E+01  0.10196E+05
 0.25700002E+01  0.40630E+04
 0.26199999E+01 -0.23350E+04
 0.26700001E+01 -0.75330E+04
 0.27200003E+01 -0.12146E+05
 0.27700000E+01 -0.16961E+05
 0.28200002E+01 -0.20524E+05
 0.28699999E+01 -0.23886E+05
 0.29200001E+01 -0.27443E+05
 0.29700003E+01 -0.31286E+05
 0.30200000E+01 -0.34640E+05
 0.30700002E+01 -0.37280E+05
 0.31199999E+01 -0.40584E+05
 0.31700001E+01 -0.42511E+05
 0.32200003E+01 -0.44373E+05
 0.32700000E+01 -0.47621E+05
 0.33200002E+01 -0.49473E+05
 0.33699999E+01 -0.50030E+05
 0.34200001E+01 -0.50370E+05
 0.34700003E+01 -0.51651E+05
 0.35200000E+01 -0.52203E+05
 0.35700002E+01 -0.51940E+05
 0.36199999E+01 -0.52191E+05
 0.36700001E+01 -0.51148E+05
 0.37200003E+01 -0.50554E+05
 0.37700000E+01 -0.49966E+05
 0.38200002E+01 -0.47585E+05
 0.38699999E+01 -0.44608E+05
 0.39200001E+01 -0.41793E+05
 0.39700003E+01 -0.38847E+05
 0.40200000E+01 -0.35489E+05
 0.40700002E+01 -0.32958E+05
 0.41199999E+01 -0.30366E+05
 0.41700001E+01 -0.27110E+05
 0.42200003E+01 -0.23167E+05
 0.42700000E+01 -0.18358E+05
 0.43200002E+01 -0.13358E+05
 0.43699999E+01 -0.72020E+04
 0.44200001E+01 -0.76900E+03
 0.44700003E+01  0.59520E+04
 0.45200000E+01  0.13547E+05
 0.45700002E+01  0.20827E+05
 0.46199999E+01  0.27687E+05
 0.46700001E+01  0.33065E+05
 0.47200003E+01  0.36671E+05
 0.47700000E+01  0.39466E+05
 0.48200002E+01  0.42127E+05
 0.48699999E+01  0.43349E+05
 0.49200001E+01  0.43104E+05
 0.49700003E+01  0.42366E+05
 0.50200000E+01  0.39910E+05
 0.50700002E+01  0.38422E+05
 0.51200004E+01  0.38427E+05
 0.51700006E+01  0.38565E+05
 0.52199998E+01  0.40337E+05
 0.52700000E+01  0.42988E+05
 0.53200002E+01  0.46725E+05
 0.53700004E+01  0.50722E+05
 0.54200006E+01  0.53549E+05
 0.54699998E+01  0.57051E+05
 0.55200000E+01  0.60440E+05
 0.55700002E+01  0.62225E+05
 0.56200004E+01  0.63315E+05
 0.56700006E+01  0.62947E+05
 0.57199998E+01  0.61993E+05
 0.57700000E+01  0.59864E+05
 0.58200002E+01  0.54484E+05
 0.58700004E+01  0.49480E+05
 0.59200006E+01  0.43818E+05
 0.59699998E+01  0.36700E+05
 0.60200000E+01  0.30575E+05
 0.60700002E+01  0.23236E+05
 0.61200004E+01  0.15862E+05
 0.61700006E+01  0.78370E+04
 0.62199998E+01 -0.77600E+03
 0.62700000E+01 -0.77270E+04
 0.63200002E+01 -0.15260E+05
 0.63700004E+01 -0.21457E+05
 0.64200006E+01 -0.26038E+05
 0.64699998E+01 -0.31823E+05
 0.65200000E+01 -0.36402E+05
 0.65700002E+01 -0.39965E+05
 0.66200004E+01 -0.44458E+05
 0.66700006E+01 -0.47228E+05
 0.67199998E+01 -0.49317E+05
 0.67700000E+01 -0.51123E+05
 0.68200002E+01 -0.50710E+05
 0.68700004E+01 -0.50192E+05
 0.69200006E+01 -0.48083E+05
 0.69699998E+01 -0.46299E+05
 0.70200000E+01 -0.45293E+05
 0.70700002E+01 -0.42907E+05
 0.71200004E+01 -0.43728E+05
 0.71700006E+01 -0.43486E+05
 0.72199998E+01 -0.40758E+05
 0.72700000E+01 -0.40492E+05
 0.73200002E+01 -0.40667E+05
 0.73700004E+01 -0.42727E+05
 0.74200006E+01 -0.47336E+05
 0.74699998E+01 -0.52477E+05
 0.75200000E+01 -0.59224E+05
 0.75700002E+01 -0.66203E+05
 0.76200004E+01 -0.72463E+05
 0.76700006E+01 -0.79000E+05
 0.77199998E+01 -0.83266E+05
 0.77700000E+01 -0.84228E+05
 0.78200002E+01 -0.82834E+05
 0.78700004E+01 -0.79291E+05
 0.79200006E+01 -0.75296E+05
 0.79699998E+01 -0.70953E+05
 0.80200005E+01 -0.66873E+05
 0.80699997E+01 -0.63200E+05
 0.81200008E+01 -0.59071E+05
 0.81700001E+01 -0.56279E+05
 0.82199993E+01 -0.53541E+05
 0.82700005E+01 -0.49515E+05
 0.83199997E+01 -0.45800E+05
 0.83700008E+01 -0.41636E+05
 0.84200001E+01 -0.37747E+05
 0.84699993E+01 -0.34212E+05
 0.85200005E+01 -0.28999E+05
 0.85699997E+01 -0.23283E+05
 0.86200008E+01 -0.18016E+05
 0.86700001E+01 -0.13104E+05
 0.87199993E+01 -0.74680E+04
 0.87700005E+01 -0.24710E+04
 0.88199997E+01  0.15200E+04
 0.88700008E+01  0.82030E+04
 0.89200001E+01  0.15603E+05
 0.89699993E+01  0.23451E+05
 0.90200005E+01  0.32189E+05
 0.90699997E+01  0.39378E+05
 0.91200008E+01  0.47011E+05
 0.91700001E+01  0.53148E+05
 0.92199993E+01  0.57401E+05
 0.92700005E+01  0.62370E+05
 0.93199997E+01  0.64407E+05
 0.93700008E+01  0.66132E+05
 0.94200001E+01  0.68039E+05
 0.94699993E+01  0.67435E+05
 0.95200005E+01  0.68824E+05
 0.95699997E+01  0.67629E+05
 0.96200008E+01  0.63799E+05
 0.96700001E+01  0.60802E+05
 0.97199993E+01  0.54296E+05
 0.97700005E+01  0.49079E+05
 0.98199997E+01  0.45236E+05
 0.98700008E+01  0.39068E+05
 0.99200001E+01  0.34492E+05
 0.99699993E+01  0.29623E+05
 0.10020000E+02  0.23966E+05
 0.10070000E+02  0.18815E+05
 0.10120001E+02  0.12195E+05
 0.10170000E+02  0.78050E+04
 0.10219999E+02  0.28050E+04
 0.10270000E+02 -0.33030E+04
 0.10320000E+02 -0.49140E+04
 0.10370001E+02 -0.69640E+04
 0.10420000E+02 -0.65130E+04
 0.10469999E+02 -0.38630E+04
 0.10520000E+02 -0.31340E+04
 0.10570000E+02  0.28900E+03
 0.10620001E+02  0.19330E+04
 0.10670000E+02  0.42880E+04
 0.10719999E+02  0.52490E+04
 0.10770000E+02  0.74430E+04
 0.10820000E+02  0.11216E+05
 0.10870001E+02  0.11118E+05
 0.10920000E+02  0.86030E+04
 0.10969999E+02  0.30810E+04
 0.11020000E+02 -0.56626E+05
 0.11070000E+02 -0.40128E+06
 0.11120001E+02 -0.83781E+06
 0.11170000E+02 -0.11649E+07
 0.11219999E+02 -0.14408E+07
 0.11270000E+02 -0.12322E+07
 0.11320000E+02 -0.57222E+06
 0.11370001E+02 -0.14912E+06
 0.11420000E+02 -0.34883E+06
 0.11469999E+02 -0.24217E+06
 0.11520000E+02 -0.38444E+06
 0.11570000E+02 -0.12104E+07
 0.11620001E+02 -0.13321E+07
 0.11670000E+02 -0.15546E+07
 0.11719999E+02 -0.18858E+07
 0.11770000E+02 -0.21363E+07
 0.11820000E+02 -0.24786E+07
 0.11870001E+02 -0.42979E+07
 0.11920000E+02 -0.61004E+07
 0.11969999E+02 -0.63031E+07
 0.12020000E+02 -0.53627E+07
 0.12070000E+02 -0.29069E+07
 0.12120001E+02 -0.50322E+07
 0.12170000E+02 -0.49555E+07
 0.12219999E+02 -0.13406E+07
 0.12270000E+02 -0.20185E+07
 0.12320000E+02 -0.14834E+07
 0.12370001E+02 -0.17786E+07
 0.12420000E+02 -0.65363E+06
 0.12469999E+02  0.47764E+06
 0.12520000E+02 -0.18124E+07
 0.12570000E+02 -0.28242E+06
 0.12620001E+02  0.13363E+07
 0.12670000E+02 -0.40791E+06
 0.12719999E+02 -0.10119E+07
 0.12770000E+02  0.60721E+06
 0.12820000E+02 -0.13071E+06
 0.12870001E+02 -0.12894E+07
 0.12920000E+02  0.47717E+06
 0.12969999E+02 -0.30721E+06
 0.13020000E+02 -0.11919E+07
 0.13070002E+02  0.19130E+06
 0.13120001E+02 -0.22175E+07
 0.13170000E+02 -0.47113E+07
 0.13220001E+02 -0.32063E+07
 0.13270000E+02 -0.21232E+07
 0.13320002E+02 -0.36120E+07
 0.13370001E+02 -0.57599E+07
 0.13420000E+02 -0.38617E+07
 0.13470001E+02 -0.16648E+06
 0.13520000E+02 -0.21066E+06
 0.13570002E+02 -0.26111E+06
 0.13620001E+02  0.17755E+07
 0.13670000E+02  0.12444E+07
 0.13720001E+02  0.33820E+06
 0.13770000E+02  0.20665E+07
 0.13820002E+02  0.81825E+06
 0.13870001E+02 -0.50846E+06
 0.13920000E+02  0.19681E+07
 0.13970001E+02  0.28531E+07
 0.14020000E+02  0.11716E+07
 0.14070002E+02 -0.99001E+06
 0.14120001E+02 -0.17334E+07
 0.14170000E+02 -0.13929E+07
 0.14220001E+02 -0.29987E+07
 0.14270000E+02 -0.39017E+07
 0.14320002E+02 -0.35236E+07
 0.14370001E+02 -0.58501E+07
 0.14420000E+02 -0.54622E+07
 0.14470001E+02 -0.37532E+07
 0.14520000E+02 -0.52319E+07
 0.14570002E+02 -0.44597E+07
 0.14620001E+02 -0.27950E+07
 0.14670000E+02 -0.14553E+07
 0.14720001E+02 -0.96746E+06
 0.14770000E+02 -0.15676E+07
 0.14820002E+02 -0.35660E+06
 0.14870001E+02  0.77791E+06
 0.14920000E+02  0.11122E+07
 0.14970001E+02  0.62470E+06
 0.15020000E+02  0.22055E+06
 0.15070002E+02  0.16090E+07
 0.15120001E+02  0.22517E+07
 0.15170000E+02  0.16745E+07
 0.15220001E+02  0.19432E+07
 0.15270000E+02  0.14854E+07
 0.15320002E+02  0.59578E+06
 0.15370001E+02  0.17553E+06
 0.15420000E+02  0.26693E+06
 0.15470001E+02  0.12783E+07
 0.15520000E+02 -0.84685E+06
 0.15570002E+02 -0.36392E+07
 0.15620001E+02 -0.35194E+07
 0.15670000E+02 -0.30382E+07
 0.15720001E+02 -0.20598E+07
 0.15770000E+02 -0.17154E+07
 0.15820002E+02 -0.29702E+07
 0.15870001E+02 -0.34354E+07
 0.15920000E+02 -0.26473E+07
 0.15970001E+02 -0.42079E+07
 0.16020000E+02 -0.53272E+07
 0.16070002E+02 -0.37479E+07
 0.16120001E+02 -0.28919E+07
 0.16170000E+02 -0.18841E+07
 0.16220001E+02 -0.14706E+07
 0.16270000E+02 -0.95962E+06
 0.16320002E+02 -0.78959E+06
 0.16370001E+02 -0.14969E+07
 0.16420000E+02 -0.27887E+06
 0.16470001E+02  0.11460E+07
 0.16520000E+02  0.21960E+07
 0.16570002E+02  0.24064E+07
 0.16620001E+02  0.76304E+06
 0.16670000E+02  0.26032E+06
 0.16720001E+02 -0.47373E+06
 0.16770000E+02 -0.25482E+07
 0.16820002E+02 -0.36529E+07
 0.16870001E+02 -0.52709E+07
 0.16920000E+02 -0.49131E+07
 0.16970001E+02 -0.41823E+07
 0.17020000E+02 -0.48886E+07
 0.17070002E+02 -0.36362E+07
 0.17120001E+02 -0.48103E+07
 0.17170000E+02 -0.57202E+07
 0.17220001E+02 -0.37731E+07
 0.17270000E+02 -0.39292E+07
 0.17320002E+02 -0.51510E+07
 0.17370001E+02 -0.52180E+07
 0.17420000E+02 -0.33714E+07
 0.17470001E+02 -0.28980E+07
 0.17520000E+02 -0.29658E+07
 0.17570002E+02 -0.40849E+06
 0.17620001E+02 -0.12332E+06
 0.17670000E+02 -0.15729E+07
 0.17720001E+02  0.16232E+06
 0.17770000E+02  0.25014E+07
 0.17820002E+02  0.18509E+07
 0.17870001E+02 -0.47202E+07
 0.17920000E+02 -0.96924E+07
 0.17970001E+02 -0.22775E+07
 0.18020000E+02  0.22015E+07
 0.18070002E+02 -0.34970E+07
 0.18120001E+02 -0.59448E+07
 0.18170000E+02 -0.28423E+07
 0.18220001E+02  0.50254E+06
 0.18270000E+02  0.27445E+07
 0.18320002E+02  0.64257E+07
 0.18370001E+02  0.74225E+07
 0.18420000E+02  0.42313E+07
 0.18470001E+02  0.60312E+07
 0.18520000E+02  0.11951E+08
 0.18570002E+02  0.95976E+07
 0.18620001E+02  0.67155E+07
 0.18670000E+02  0.89846E+07
 0.18720001E+02  0.68550E+07
 0.18770000E+02  0.54849E+07
 0.18820002E+02  0.43597E+07
 0.18870001E+02  0.59641E+07
 0.18920000E+02  0.10375E+08
 0.18970001E+02  0.64084E+07
 0.19020000E+02  0.41067E+07
 0.19070002E+02  0.56851E+07
 0.19120001E+02  0.40488E+07
 0.19170000E+02  0.34899E+07
 0.19220001E+02  0.23683E+07
 0.19270000E+02  0.51416E+06
 0.19320002E+02  0.22727E+07
 0.19370001E+02  0.66265E+07
 0.19420000E+02  0.85092E+07
 0.19470001E+02  0.55398E+07
 0.19520000E+02  0.24427E+07
 0.19570002E+02  0.30504E+07
 0.19620001E+02  0.33052E+07
 0.19670000E+02  0.35247E+07
 0.19720001E+02  0.56045E+07
 0.19770000E+02  0.51954E+07
 0.19820002E+02  0.41600E+07
 0.19870001E+02  0.28141E+07
 0.19920000E+02 -0.51613E+06
 0.19970001E+02 -0.30666E+06
 0.20020000E+02  0.38812E+07
 0.20070002E+02  0.41802E+07
 0.20120001E+02  0.84652E+05
 0.20170000E+02 -0.14679E+07
 0.20220001E+02 -0.93282E+06
 0.20270000E+02  0.30703E+06
 0.20320002E+02  0.24172E+07
 0.20370001E+02  0.16844E+07
 0.20420000E+02  0.15351E+06
 0.20470001E+02  0.99890E+06
 0.20520000E+02  0.30300E+07
 0.20570002E+02  0.50767E+07
 0.20620001E+02  0.46701E+07
 0.20670000E+02  0.40659E+07
 0.20720001E+02  0.65562E+07
 0.20770000E+02  0.10296E+08
 0.20820002E+02  0.11213E+08
 0.20870001E+02  0.96650E+07
 0.20920000E+02  0.10185E+08
 0.20970001E+02  0.11006E+08
 0.21020000E+02  0.10164E+08
 0.21070002E+02  0.92032E+07
 0.21120001E+02  0.84156E+07
 0.21170000E+02  0.74092E+07
 0.21220001E+02  0.61187E+07
 0.21270000E+02  0.30958E+07
 0.21320002E+02  0.13172E+07
 0.21370001E+02  0.26074E+07
 0.21420000E+02  0.83192E+06
 0.21470001E+02 -0.22209E+07
 0.21520000E+02 -0.28058E+07
 0.21570002E+02 -0.39959E+07
 0.21620001E+02 -0.60585E+07
 0.21670000E+02 -0.56129E+07
 0.21720001E+02 -0.38993E+07
 0.21770000E+02 -0.41216E+07
 0.21820002E+02 -0.58378E+07
 0.21870001E+02 -0.62466E+07
 0.21920000E+02 -0.30858E+07
 0.21970001E+02  0.61073E+05
 0.22020000E+02  0.13891E+07
 0.22070002E+02  0.16632E+07
 0.22120001E+02  0.88396E+06
 0.22170000E+02  0.98154E+06
 0.22220001E+02  0.57693E+06
 0.22270000E+02 -0.34472E+06
 0.22320002E+02 -0.52147E+05
 0.22370001E+02  0.96792E+06
 0.22420000E+02  0.19280E+07
 0.22470001E+02  0.18747E+07
 0.22520000E+02  0.10027E+07
 0.22570002E+02 -0.11343E+07
 0.22620001E+02 -0.30500E+07
 0.22670000E+02 -0.53679E+07
 0.22720001E+02 -0.88462E+07
 0.22770000E+02 -0.88329E+07
 0.22820002E+02 -0.66124E+07
 0.22870001E+02 -0.48880E+07
 0.22920000E+02 -0.39725E+07
 0.22970001E+02 -0.57986E+07
 0.23020000E+02 -0.49655E+07
 0.23070002E+02 -0.17448E+07
 0.23120001E+02 -0.15650E+07
 0.23170000E+02  0.27242E+06
 0.23220001E+02  0.34591E+07
 0.23270000E+02  0.52289E+07
 0.23320002E+02  0.66516E+07
 0.23370001E+02  0.75472E+07
 0.23420000E+02  0.89336E+07
 0.23470001E+02  0.10032E+08
 0.23520000E+02  0.99171E+07
 0.23570002E+02  0.94275E+07
 0.23620001E+02  0.86542E+07
 0.23670000E+02  0.74147E+07
 0.23720001E+02  0.71471E+07
 0.23770000E+02  0.76969E+07
 0.23820002E+02  0.45487E+07
 0.23870001E+02 -0.18927E+05
 0.23920000E+02 -0.25090E+07
 0.23970001E+02 -0.54456E+07
 0.24020000E+02 -0.70795E+07
 0.24070002E+02 -0.74886E+07
 0.24120001E+02 -0.88544E+07
 0.24170000E+02 -0.92909E+07
 0.24220001E+02 -0.97808E+07
 0.24270000E+02 -0.10864E+08
 0.24320002E+02 -0.10157E+08
 0.24370001E+02 -0.98882E+07
 0.24420000E+02 -0.89439E+07
 0.24470001E+02 -0.58972E+07
 0.24520000E+02 -0.38189E+07
 0.24570002E+02 -0.14601E+07
 0.24620001E+02  0.80875E+06
 0.24670000E+02  0.10580E+07
 0.24720001E+02  0.96238E+06
 0.24770000E+02  0.14076E+07
 0.24820002E+02  0.82658E+06
 0.24870001E+02  0.38820E+06
 0.24920000E+02  0.10897E+07
 0.24970001E+02  0.50410E+06
 0.25020000E+02 -0.78407E+06
 0.25070002E+02 -0.17037E+07
 0.25120001E+02 -0.27627E+07
 0.25170000E+02 -0.28077E+07
 0.25220001E+02 -0.29774E+07
 0.25270000E+02 -0.27228E+07
 0.25320002E+02 -0.10058E+07
 0.25370001E+02 -0.59465E+05
 0.25420000E+02  0.91106E+06
 0.25470001E+02  0.10506E+07
 0.25520000E+02  0.62813E+06
 0.25570002E+02 -0.30331E+05
 0.25620001E+02 -0.20667E+07
 0.25670000E+02 -0.27723E+07
 0.25720001E+02 -0.21855E+07
 0.25770000E+02 -0.13942E+07
 0.25820002E+02 -0.46306E+06
 0.25870001E+02 -0.27738E+06
 0.25920000E+02 -0.33458E+06
 0.25970001E+02  0.98347E+05
 0.26020000E+02  0.11196E+07
 0.26070002E+02  0.26288E+07
 0.26120001E+02  0.34016E+07
 0.26170000E+02  0.27045E+07
 0.26220001E+02  0.27119E+07
 0.26270000E+02  0.40775E+07
 0.26320002E+02  0.36474E+07
 0.26370001E+02  0.22620E+07
 0.26420000E+02  0.10230E+07
 0.26470001E+02 -0.15149E+07
 0.26520000E+02 -0.44674E+07
 0.26570002E+02 -0.69955E+07
 0.26620001E+02 -0.79521E+07
 0.26670000E+02 -0.75919E+07
 0.26720001E+02 -0.71849E+07
 0.26770000E+02 -0.65038E+07
 0.26820002E+02 -0.58162E+07
 0.26870001E+02 -0.51838E+07
 0.26920000E+02 -0.38745E+07
 0.26970001E+02 -0.28647E+07
 0.27020000E+02 -0.28962E+07
 0.27070002E+02 -0.31511E+07
 0.27120001E+02 -0.29555E+07
 0.27170000E+02 -0.31037E+07
 0.27220001E+02 -0.28742E+07
 0.27270000E+02 -0.11131E+07
 0.27320002E+02 -0.63353E+05
 0.27370001E+02  0.25618E+06
 0.27420000E+02  0.13343E+07
 0.27470001E+02  0.24951E+07
 0.27520000E+02  0.18556E+07
 0.27570002E+02  0.46693E+06
 0.27620001E+02  0.10504E+07
 0.27670000E+02  0.25045E+07
 0.27720001E+02  0.29496E+07
 0.27770000E+02  0.25441E+07
 0.27820002E+02  0.22560E+07
 0.27870001E+02  0.25927E+07
 0.27920000E+02  0.25228E+07
 0.27970001E+02  0.18139E+07
 0.28020000E+02  0.20817E+07
 0.28070002E+02  0.23658E+07
 0.28120001E+02  0.12777E+07
 0.28170000E+02  0.90912E+06
 0.28220001E+02  0.14864E+07
 0.28270000E+02  0.37293E+06
 0.28320002E+02 -0.74147E+06
 0.28370001E+02 -0.69952E+06
 0.28420000E+02 -0.19324E+07
 0.28470001E+02 -0.33360E+07
 0.28520000E+02 -0.46191E+07
 0.28570002E+02 -0.61498E+07
 0.28620001E+02 -0.64630E+07
 0.28670000E+02 -0.57647E+07
 0.28720001E+02 -0.44850E+07
 0.28770000E+02 -0.34272E+07
 0.28820002E+02 -0.28174E+07
 0.28870001E+02 -0.16740E+07
 0.28920000E+02 -0.13889E+06
 0.28970001E+02  0.10395E+07
 0.29020000E+02  0.20943E+07
 0.29070000E+02  0.25454E+07
 0.29120003E+02  0.26237E+07
 0.29170002E+02  0.32431E+07
 0.29220001E+02  0.35421E+07
 0.29270000E+02  0.44192E+07
 0.29320000E+02  0.64108E+07
 0.29370003E+02  0.76117E+07
 0.29420002E+02  0.69466E+07
 0.29470001E+02  0.53245E+07
 0.29520000E+02  0.41784E+07
 0.29570000E+02  0.35986E+07
 0.29620003E+02  0.27912E+07
 0.29670002E+02  0.14552E+07
 0.29720001E+02  0.35938E+06
 0.29770000E+02 -0.10966E+07
 0.29820000E+02 -0.26534E+07
 0.29870003E+02 -0.26520E+07
 0.29920002E+02 -0.23868E+07
 0.29970001E+02 -0.20990E+07
 0.30020000E+02 -0.11207E+07
 0.30070000E+02 -0.26216E+06
 0.30120003E+02  0.41562E+06
 0.30170002E+02  0.98060E+06
 0.30220001E+02  0.95330E+06
 0.30270000E+02  0.11481E+07
 0.30320000E+02  0.25892E+07
 0.30370003E+02  0.41467E+07
 0.30420002E+02  0.49045E+07
 0.30470001E+02  0.41945E+07
 0.30520000E+02  0.27896E+07
 0.30570000E+02  0.13523E+07
 0.30620003E+02 -0.61788E+06
 0.30670002E+02 -0.20679E+07
 0.30720001E+02 -0.29098E+07
 0.30770000E+02 -0.36954E+07
 0.30820000E+02 -0.39039E+07
 0.30870003E+02 -0.37194E+07
 0.30920002E+02 -0.36938E+07
 0.30970001E+02 -0.36598E+07
 0.31020000E+02 -0.37449E+07
 0.31070000E+02 -0.34391E+07
 0.31120003E+02 -0.24759E+07
 0.31170002E+02 -0.16802E+07
 0.31220001E+02 -0.89363E+06
 0.31270000E+02 -0.29525E+06
 0.31320000E+02 -0.56104E+06
 0.31370003E+02 -0.68496E+06
 0.31420002E+02 -0.55989E+06
 0.31470001E+02 -0.34440E+06
 0.31520000E+02  0.36852E+06
 0.31570000E+02  0.71600E+06
 0.31620003E+02  0.91911E+06
 0.31670002E+02  0.53203E+06
 0.31720001E+02 -0.25901E+06
 0.31770000E+02 -0.24580E+06
 0.31820000E+02 -0.74690E+05
 0.31870003E+02 -0.39338E+06
 0.31920002E+02 -0.17185E+07
 0.31970001E+02 -0.25556E+07
 0.32020000E+02 -0.22500E+07
 0.32070000E+02 -0.13785E+07
 0.32120003E+02 -0.27184E+06
 0.32170002E+02 -0.10985E+06
 0.32220001E+02  0.12531E+06
 0.32270000E+02  0.24118E+06
 0.32320000E+02  0.44706E+06
 0.32370003E+02  0.17035E+07
 0.32420002E+02  0.28094E+07
 0.32470001E+02  0.34677E+07
 0.32520000E+02  0.33152E+07
 0.32570000E+02  0.30401E+07
 0.32620003E+02  0.28973E+07
 0.32670002E+02  0.23199E+07
 0.32720001E+02  0.24910E+07
 0.32770000E+02  0.28079E+07
 0.32820000E+02  0.25276E+07
 0.32870003E+02  0.25409E+07
 0.32920002E+02  0.28013E+07
 0.32970001E+02  0.30491E+07
 0.33020000E+02  0.32016E+07
 0.33070000E+02  0.31103E+07
 0.33120003E+02  0.27851E+07
 0.33170002E+02  0.25934E+07
 0.33220001E+02  0.25472E+07
 0.33270000E+02  0.19801E+07
 0.33320000E+02  0.98314E+06
 0.33370003E+02  0.25013E+06
 0.33420002E+02  0.23488E+06
 0.33470001E+02  0.40216E+06
 0.33520000E+02  0.74106E+05
 0.33570000E+02 -0.75173E+06
 0.33620003E+02 -0.18468E+07
 0.33670002E+02 -0.26798E+07
 0.33720001E+02 -0.32420E+07
 0.33770000E+02 -0.36136E+07
 0.33820000E+02 -0.40269E+07
 0.33870003E+02 -0.47934E+07
 0.33920002E+02 -0.49368E+07
 0.33970001E+02 -0.39690E+07
 0.34020000E+02 -0.29454E+07
 0.34070000E+02 -0.20849E+07
 0.34120003E+02 -0.90771E+06
 0.34170002E+02  0.11750E+07
 0.34220001E+02  0.39952E+07
 0.34270000E+02  0.59518E+07
 0.34320000E+02  0.70008E+07
 0.34370003E+02  0.77391E+07
 0.34420002E+02  0.75686E+07
 0.34470001E+02  0.70483E+07
 0.34520000E+02  0.71133E+07
 0.34570000E+02  0.69789E+07
 0.34620003E+02  0.62330E+07
 0.34670002E+02  0.50969E+07
 0.34720001E+02  0.39768E+07
 0.34770000E+02  0.34191E+07
 0.34820000E+02  0.29234E+07
 0.34870003E+02  0.26877E+07
 0.34920002E+02  0.20568E+07
 0.34970001E+02  0.79974E+06
 0.35020000E+02  0.18760E+06
 0.35070000E+02 -0.31660E+06
 0.35120003E+02 -0.34121E+06
 0.35170002E+02 -0.43894E+06
 0.35220001E+02 -0.94195E+06
 0.35270000E+02 -0.98999E+06
 0.35320000E+02 -0.17476E+07
 0.35370003E+02 -0.27145E+07
 0.35420002E+02 -0.33882E+07
 0.35470001E+02 -0.33229E+07
 0.35520000E+02 -0.21151E+07
 0.35570000E+02 -0.17300E+07
 0.35620003E+02 -0.17646E+07
 0.35670002E+02 -0.83979E+06
 0.35720001E+02  0.32470E+04
 0.35770000E+02  0.63360E+06
 0.35820000E+02  0.14022E+07
 0.35870003E+02  0.16724E+07
 0.35920002E+02  0.17727E+07
 0.35970001E+02  0.18872E+07
 0.36020000E+02  0.14266E+07
 0.36070000E+02  0.79282E+06
 0.36120003E+02  0.11652E+06
 0.36170002E+02 -0.11803E+07
 0.36220001E+02 -0.27060E+07
 0.36270000E+02 -0.40061E+07
 0.36320000E+02 -0.51803E+07
 0.36370003E+02 -0.59406E+07
 0.36420002E+02 -0.58872E+07
 0.36470001E+02 -0.56141E+07
 0.36520000E+02 -0.55885E+07
 0.36570000E+02 -0.53155E+07
 0.36620003E+02 -0.48178E+07
 0.36670002E+02 -0.42625E+07
 0.36720001E+02 -0.36642E+07
 0.36770000E+02 -0.27807E+07
 0.36820000E+02 -0.17702E+07
 0.36870003E+02 -0.94756E+06
 0.36920002E+02  0.17422E+06
 0.36970001E+02  0.12719E+07
 0.37020000E+02  0.20408E+07
 0.37070000E+02  0.27787E+07
 0.37120003E+02  0.32729E+07
 0.37170002E+02  0.36470E+07
 0.37220001E+02  0.42069E+07
 0.37270000E+02  0.44637E+07
 0.37320000E+02  0.41186E+07
 0.37370003E+02  0.35341E+07
 0.37420002E+02  0.27910E+07
 0.37470001E+02  0.18112E+07
 0.37520000E+02  0.86274E+06
 0.37570000E+02  0.29444E+06
 0.37620003E+02  0.36504E+05
 0.37670002E+02 -0.24051E+06
 0.37720001E+02 -0.20739E+06
 0.37770000E+02  0.43256E+06
 0.37820000E+02  0.10196E+07
 0.37870003E+02  0.11589E+07
 0.37920002E+02  0.15067E+07
 0.37970001E+02  0.19166E+07
 0.38020000E+02  0.16650E+07
 0.38070000E+02  0.15599E+07
 0.38120003E+02  0.18111E+07
 0.38170002E+02  0.20367E+07
 0.38220001E+02  0.24477E+07
 0.38270000E+02  0.25649E+07
 0.38320000E+02  0.24341E+07
 0.38370003E+02  0.20812E+07
 0.38420002E+02  0.14709E+07
 0.38470001E+02  0.10964E+07
 0.38520000E+02  0.13718E+06
 0.38570000E+02 -0.11370E+07
 0.38620003E+02 -0.15412E+07
 0.38670002E+02 -0.19180E+07
 0.38720001E+02 -0.24644E+07
 0.38770000E+02 -0.24777E+07
 0.38820000E+02 -0.22066E+07
 0.38870003E+02 -0.19528E+07
 0.38920002E+02 -0.17556E+07
 0.38970001E+02 -0.14470E+07
 0.39020000E+02 -0.10389E+07
 0.39070000E+02 -0.71256E+06
 0.39120003E+02 -0.25638E+06
 0.39170002E+02  0.29048E+06
 0.39220001E+02  0.54565E+06
 0.39270000E+02  0.55441E+06
 0.39320000E+02  0.34126E+06
 0.39370003E+02 -0.73267E+05
 0.39420002E+02 -0.19958E+06
 0.39470001E+02 -0.12264E+05
 0.39520000E+02  0.14657E+06
 0.39570000E+02  0.12731E+06
 0.39620003E+02 -0.72619E+05
 0.39670002E+02 -0.34276E+06
 0.39720001E+02 -0.86344E+06
 0.39770000E+02 -0.14286E+07
 0.39820000E+02 -0.14257E+07
 0.39870003E+02 -0.14535E+07
 0.39920002E+02 -0.16988E+07
 0.39970001E+02 -0.14107E+07
 0.40020000E+02 -0.10341E+07
 0.40070000E+02 -0.76783E+06
 0.40120003E+02 -0.66077E+06
 0.40170002E+02 -0.74572E+06
 0.40220001E+02 -0.47483E+06
 0.40270000E+02 -0.11322E+06
 0.40320000E+02  0.25400E+05
 0.40370003E+02  0.60367E+05
 0.40420002E+02  0.25856E+06
 0.40470001E+02  0.71088E+06
 0.40520000E+02  0.91348E+06
 0.40570000E+02  0.65162E+06
 0.40620003E+02  0.59102E+06
 0.40670002E+02  0.80868E+06
 0.40720001E+02  0.79874E+06
 0.40770000E+02  0.60856E+06
 0.40820000E+02  0.17699E+06
 0.40870003E+02 -0.21350E+06
 0.40920002E+02 -0.28410E+06
 0.40970001E+02 -0.19840E+06
 0.41020000E+02  0.10977E+06
 0.41070000E+02  0.41129E+06
 0.41120003E+02  0.28136E+06
 0.41170002E+02 -0.20060E+06
 0.41220001E+02 -0.57422E+06
 0.41270000E+02 -0.63641E+06
 0.41320000E+02 -0.42494E+06
 0.41370003E+02  0.65938E+05
 0.41420002E+02  0.62877E+06
 0.41470001E+02  0.88237E+06
 0.41520000E+02  0.98038E+06
 0.41570000E+02  0.10012E+07
 0.41620003E+02  0.57554E+06
 0.41670002E+02  0.30083E+05
 0.41720001E+02 -0.39772E+06
 0.41770000E+02 -0.74270E+06
 0.41820000E+02 -0.95539E+06
 0.41870003E+02 -0.10489E+07
 0.41920002E+02 -0.72483E+06
 0.41970001E+02 -0.52626E+06
 0.42020000E+02 -0.50563E+06
 0.42070000E+02 -0.19966E+06
 0.42120003E+02 -0.16829E+06
 0.42170002E+02 -0.26124E+05
 0.42220001E+02  0.23009E+06
 0.42270000E+02 -0.43800E+03
 0.42320000E+02 -0.32383E+06
 0.42370003E+02 -0.51183E+06
 0.42420002E+02 -0.69826E+06
 0.42470001E+02 -0.12169E+07
 0.42520000E+02 -0.18138E+07
 0.42570000E+02 -0.21455E+07
 0.42620003E+02 -0.24592E+07
 0.42670002E+02 -0.27012E+07
 0.42720001E+02 -0.28753E+07
 0.42770000E+02 -0.30472E+07
 0.42820000E+02 -0.29562E+07
 0.42870003E+02 -0.25371E+07
 0.42920002E+02 -0.20958E+07
 0.42970001E+02 -0.19464E+07
 0.43020000E+02 -0.19254E+07
 0.43070000E+02 -0.17106E+07
 0.43120003E+02 -0.16640E+07
 0.43170002E+02 -0.17987E+07
 0.43220001E+02 -0.16560E+07
 0.43270000E+02 -0.14421E+07
 0.43320000E+02 -0.11646E+07
 0.43370003E+02 -0.73733E+06
 0.43420002E+02 -0.14900E+06
 0.43470001E+02  0.60448E+06
 0.43520000E+02  0.11129E+07
 0.43570000E+02  0.14341E+07
 0.43620003E+02  0.17742E+07
 0.43670002E+02  0.20475E+07
 0.43720001E+02  0.22152E+07
 0.43770000E+02  0.21353E+07
 0.43820000E+02  0.18647E+07
 0.43870003E+02  0.15299E+07
 0.43920002E+02  0.95376E+06
 0.43970001E+02  0.35908E+06
 0.44020000E+02 -0.14663E+05
 0.44070000E+02 -0.13748E+06
 0.44120003E+02 -0.47909E+05
 0.44170002E+02 -0.15355E+06
 0.44220001E+02  0.67262E+05
 0.44270000E+02  0.69180E+06
 0.44320000E+02  0.79586E+06
 0.44370003E+02  0.63456E+06
 0.44420002E+02  0.52838E+06
 0.44470001E+02  0.59541E+06
 0.44520000E+02  0.84508E+06
 0.44570000E+02  0.81235E+06
 0.44620003E+02  0.54887E+06
 0.44670002E+02  0.39504E+06
 0.44720001E+02  0.43413E+06
 0.44770000E+02  0.35338E+06
 0.44820000E+02  0.22847E+06
 0.44870003E+02 -0.36486E+05
 0.44920002E+02 -0.78494E+06
 0.44970001E+02 -0.13184E+07
 0.45020000E+02 -0.12539E+07
 0.45070000E+02 -0.10334E+07
 0.45120003E+02 -0.91792E+06
 0.45170002E+02 -0.53489E+06
 0.45220001E+02  0.82345E+05
 0.45270000E+02  0.24104E+06
 0.45320000E+02  0.23286E+06
 0.45370003E+02  0.44313E+06
 0.45420002E+02  0.57389E+06
 0.45470001E+02  0.56529E+06
 0.45520000E+02  0.51898E+06
 0.45570000E+02  0.44799E+06
 0.45620003E+02  0.36113E+06
 0.45670002E+02  0.46096E+06
 0.45720001E+02  0.76457E+06
 0.45770000E+02  0.92419E+06
 0.45820000E+02  0.91826E+06
 0.45870003E+02  0.10257E+07
 0.45920002E+02  0.11468E+07
 0.45970001E+02  0.88036E+06
 0.46020000E+02  0.43319E+06
 0.46070000E+02  0.63310E+04
 0.46120003E+02 -0.50261E+06
 0.46170002E+02 -0.78800E+06
 0.46220001E+02 -0.85347E+06
 0.46270000E+02 -0.90473E+06
 0.46320000E+02 -0.94900E+06
 0.46370003E+02 -0.97172E+06
 0.46420002E+02 -0.11335E+07
 0.46470001E+02 -0.15048E+07
 0.46520000E+02 -0.16878E+07
 0.46570000E+02 -0.14442E+07
 0.46620003E+02 -0.95880E+06
 0.46670002E+02 -0.52206E+06
 0.46720001E+02 -0.38580E+06
 0.46770000E+02 -0.46582E+06
 0.46820000E+02 -0.39992E+06
 0.46870003E+02 -0.24062E+06
 0.46920002E+02 -0.13993E+06
 0.46970001E+02 -0.85370E+05
 0.47020000E+02  0.20603E+06
 0.47070000E+02  0.79735E+06
 0.47120003E+02  0.12450E+07
 0.47170002E+02  0.15703E+07
 0.47220001E+02  0.17295E+07
 0.47270000E+02  0.16499E+07
 0.47320000E+02  0.15431E+07
 0.47370003E+02  0.15268E+07
 0.47420002E+02  0.14987E+07
 0.47470001E+02  0.12455E+07
 0.47520000E+02  0.91151E+06
 0.47570000E+02  0.55660E+06
 0.47620003E+02  0.16096E+06
 0.47670002E+02 -0.25540E+06
 0.47720001E+02 -0.70567E+06
 0.47770000E+02 -0.83826E+06
 0.47820000E+02 -0.64486E+06
 0.47870003E+02 -0.52962E+06
 0.47920002E+02 -0.50898E+06
 0.47970001E+02 -0.44815E+06
 0.48020000E+02 -0.45648E+06
 0.48070000E+02 -0.47076E+06
 0.48120003E+02 -0.27577E+06
 0.48170002E+02 -0.16252E+06
 0.48220001E+02 -0.20468E+06
 0.48270000E+02 -0.13260E+06
 0.48320000E+02  0.18494E+06
 0.48370003E+02  0.55878E+06
 0.48420002E+02  0.74783E+06
 0.48470001E+02  0.89649E+06
 0.48520000E+02  0.78706E+06
 0.48570000E+02  0.54672E+06
 0.48620003E+02  0.38246E+06
 0.48670002E+02  0.16085E+06
 0.48720001E+02  0.39512E+05
 0.48770000E+02 -0.33122E+06
 0.48820000E+02 -0.86377E+06
 0.48870003E+02 -0.11450E+07
 0.48920002E+02 -0.14114E+07
 0.48970001E+02 -0.17447E+07
 0.49020000E+02 -0.19317E+07
 0.49070000E+02 -0.17804E+07
 0.49120003E+02 -0.14633E+07
 0.49170002E+02 -0.11061E+07
 0.49220001E+02 -0.76005E+06
 0.49270000E+02 -0.54026E+06
 0.49320000E+02 -0.27263E+06
 0.49370003E+02  0.18070E+06
 0.49420002E+02  0.76062E+06
 0.49470001E+02  0.12892E+07
 0.49520000E+02  0.17288E+07
 0.49570000E+02  0.19796E+07
 0.49620003E+02  0.21833E+07
 0.49670002E+02  0.24942E+07
 0.49720001E+02  0.26007E+07
 0.49770000E+02  0.26043E+07
 0.49820000E+02  0.24185E+07
 0.49870003E+02  0.21517E+07
 0.49920002E+02  0.20732E+07
 0.49970001E+02  0.17871E+07
 0.50020000E+02  0.13970E+07
 0.50070000E+02  0.11347E+07
 0.50120003E+02  0.87541E+06
 0.50170002E+02  0.50758E+06
 0.50220001E+02  0.93880E+04
 0.50270000E+02 -0.38161E+06
 0.50320000E+02 -0.63862E+06
 0.50370003E+02 -0.10561E+07
 0.50420002E+02 -0.15128E+07
 0.50470001E+02 -0.19245E+07
 0.50520000E+02 -0.23207E+07
 0.50570000E+02 -0.23427E+07
 0.50620003E+02 -0.22432E+07
 0.50670002E+02 -0.23031E+07
 0.50720001E+02 -0.23466E+07
 0.50770000E+02 -0.23974E+07
 0.50820000E+02 -0.22699E+07
 0.50870003E+02 -0.20147E+07
 0.50920002E+02 -0.17452E+07
 0.50970001E+02 -0.13037E+07
 0.51020000E+02 -0.90839E+06
 0.51070000E+02 -0.61608E+06
 0.51120003E+02 -0.29351E+06
 0.51170002E+02 -0.13105E+06
 0.51220001E+02 -0.10141E+06
 0.51270000E+02  0.18564E+05
 0.51320000E+02  0.19811E+06
 0.51370003E+02  0.23475E+06
 0.51420002E+02  0.27125E+06
 0.51470001E+02  0.48160E+06
 0.51520000E+02  0.56248E+06
 0.51570000E+02  0.64889E+06
 0.51620003E+02  0.91705E+06
 0.51670002E+02  0.12140E+07
 0.51720001E+02  0.14714E+07
 0.51770000E+02  0.16271E+07
 0.51820000E+02  0.17571E+07
 0.51870003E+02  0.18142E+07
 0.51920002E+02  0.18193E+07
 0.51970001E+02  0.17888E+07
 0.52020000E+02  0.17269E+07
 0.52070000E+02  0.16184E+07
 0.52120003E+02  0.13628E+07
 0.52170002E+02  0.99263E+06
 0.52220001E+02  0.54538E+06
 0.52270000E+02  0.12114E+06
 0.52320000E+02 -0.39769E+06
 0.52370003E+02 -0.10409E+07
 0.52420002E+02 -0.15297E+07
 0.52470001E+02 -0.17984E+07
 0.52520000E+02 -0.21240E+07
 0.52570000E+02 -0.24700E+07
 0.52620003E+02 -0.24357E+07
 0.52670002E+02 -0.23233E+07
 0.52720001E+02 -0.23507E+07
 0.52770000E+02 -0.21689E+07
 0.52820000E+02 -0.19372E+07
 0.52870003E+02 -0.17939E+07
 0.52920002E+02 -0.15695E+07
 0.52970001E+02 -0.12780E+07
 0.53020000E+02 -0.10131E+07
 0.53070000E+02 -0.82382E+06
 0.53120003E+02 -0.63458E+06
 0.53170002E+02 -0.44200E+06
 0.53220001E+02 -0.17150E+06
 0.53270000E+02  0.14907E+06
 0.53320000E+02  0.24670E+06
 0.53370003E+02  0.17825E+06
 0.53420002E+02  0.50004E+05
 0.53470001E+02 -0.11771E+06
 0.53520000E+02 -0.25520E+06
 0.53570000E+02 -0.39254E+06
 0.53620003E+02 -0.49966E+06
 0.53670002E+02 -0.58270E+06
 0.53720001E+02 -0.67052E+06
 0.53770000E+02 -0.72397E+06
 0.53820000E+02 -0.62325E+06
 0.53870003E+02 -0.32327E+06
 0.53920002E+02 -0.44732E+05
 0.53970001E+02  0.92870E+05
 0.54020000E+02  0.14564E+06
 0.54070000E+02  0.17950E+06
 0.54120003E+02  0.17475E+06
 0.54170002E+02  0.14486E+06
 0.54220001E+02  0.15812E+05
 0.54270000E+02 -0.24062E+06
 0.54320000E+02 -0.38417E+06
 0.54370003E+02 -0.42567E+06
 0.54420002E+02 -0.28751E+06
 0.54470001E+02 -0.16735E+05
 0.54520000E+02  0.12767E+06
 0.54570000E+02  0.23030E+06
 0.54620003E+02  0.44286E+06
 0.54670002E+02  0.78850E+06
 0.54720001E+02  0.10217E+07
 0.54770000E+02  0.10825E+07
 0.54820000E+02  0.10937E+07
 0.54870003E+02  0.10535E+07
 0.54920002E+02  0.10097E+07
 0.54970001E+02  0.10799E+07
 0.55020000E+02  0.12258E+07
 0.55070000E+02  0.12355E+07
 0.55120003E+02  0.10846E+07
 0.55170002E+02  0.70826E+06
 0.55220001E+02  0.24567E+06
 0.55270000E+02  0.33478E+05
 0.55320000E+02  0.89580E+04
 0.55370003E+02  0.81525E+05
 0.55420002E+02  0.25290E+06
 0.55470001E+02  0.37915E+06
 0.55520000E+02  0.44270E+06
 0.55570000E+02  0.57381E+06
 0.55620003E+02  0.72454E+06
 0.55670002E+02  0.76900E+06
 0.55720001E+02  0.79556E+06
 0.55770000E+02  0.80606E+06
 0.55820000E+02  0.61922E+06
 0.55870003E+02  0.41219E+06
 0.55920002E+02  0.29538E+06
 0.55970001E+02  0.15406E+06
 0.56020000E+02  0.87009E+05
 0.56070000E+02  0.44764E+05
 0.56120003E+02  0.65400E+03
 0.56170002E+02 -0.44135E+05
 0.56220001E+02 -0.17238E+06
 0.56270000E+02 -0.26750E+06
 0.56320000E+02 -0.30140E+06
 0.56370003E+02 -0.29260E+06
 0.56420002E+02 -0.20449E+06
 0.56470001E+02 -0.61780E+05
 0.56520000E+02  0.12312E+06
 0.56570000E+02  0.39065E+06
 0.56620003E+02  0.75483E+06
 0.56670002E+02  0.10980E+07
 0.56720001E+02  0.13517E+07
 0.56770000E+02  0.15501E+07
 0.56820000E+02  0.17307E+07
 0.56870003E+02  0.17968E+07
 0.56920002E+02  0.16938E+07
 0.56970001E+02  0.15077E+07
 0.57020000E+02  0.12314E+07
 0.57070000E+02  0.95184E+06
 0.57120003E+02  0.66858E+06
 0.57170002E+02  0.36506E+06
 0.57220001E+02  0.14249E+06
 0.57270000E+02  0.10819E+05
 0.57320000E+02 -0.69673E+05
 0.57370003E+02 -0.16458E+06
 0.57420002E+02 -0.22283E+06
 0.57470001E+02 -0.26856E+06
 0.57520000E+02 -0.33469E+06
 0.57570000E+02 -0.35686E+06
 0.57620003E+02 -0.31404E+06
 0.57670002E+02 -0.26776E+06
 0.57720001E+02 -0.32055E+06
 0.57770000E+02 -0.41665E+06
 0.57820000E+02 -0.46252E+06
 0.57870003E+02 -0.48145E+06
 0.57920002E+02 -0.48740E+06
 0.57970001E+02 -0.42831E+06
 0.58020000E+02 -0.43246E+06
 0.58070000E+02 -0.57193E+06
 0.58120003E+02 -0.57182E+06
 0.58170002E+02 -0.34959E+06
 0.58220001E+02 -0.13880E+06
 0.58270000E+02 -0.21036E+05
 0.58320000E+02  0.98672E+05
 0.58370003E+02  0.26670E+06
 0.58420002E+02  0.44754E+06
 0.58470001E+02  0.53450E+06
 0.58520000E+02  0.45620E+06
 0.58570000E+02  0.34935E+06
 0.58620003E+02  0.31832E+06
 0.58670002E+02  0.20484E+06
 0.58720001E+02 -0.30934E+05
 0.58770000E+02 -0.21603E+06
 0.58820000E+02 -0.31314E+06
 0.58870003E+02 -0.35247E+06
 0.58920002E+02 -0.40159E+06
 0.58970001E+02 -0.46270E+06
 0.59020000E+02 -0.48188E+06
 0.59070000E+02 -0.58518E+06
 0.59120003E+02 -0.70647E+06
 0.59170002E+02 -0.66290E+06
 0.59220001E+02 -0.56117E+06
 0.59270000E+02 -0.54177E+06
 0.59320000E+02 -0.62446E+06
 0.59370003E+02 -0.79733E+06
 0.59420002E+02 -0.94359E+06
 0.59470001E+02 -0.10598E+07
 0.59520000E+02 -0.12191E+07
 0.59570000E+02 -0.13598E+07
 0.59620003E+02 -0.15149E+07
 0.59670002E+02 -0.15430E+07
 0.59720001E+02 -0.13927E+07
 0.59770000E+02 -0.13254E+07
 0.59820000E+02 -0.12526E+07
 0.59870003E+02 -0.10731E+07
 0.59920002E+02 -0.81174E+06
 0.59970001E+02 -0.51101E+06
 0.60020000E+02 -0.29855E+06
 0.60070000E+02 -0.12520E+06
 0.60120003E+02  0.56187E+05
 0.60170002E+02  0.30683E+06
 0.60220001E+02  0.53694E+06
 0.60270000E+02  0.66699E+06
 0.60320000E+02  0.76208E+06
 0.60370003E+02  0.80148E+06
 0.60420002E+02  0.85514E+06
 0.60470001E+02  0.83638E+06
 0.60520000E+02  0.71706E+06
 0.60570000E+02  0.56336E+06
 0.60620003E+02  0.32326E+06
 0.60670002E+02  0.65312E+05
 0.60720001E+02 -0.22259E+06
 0.60770000E+02 -0.54964E+06
 0.60820000E+02 -0.82160E+06
 0.60870003E+02 -0.10758E+07
 0.60920002E+02 -0.12773E+07
 0.60970001E+02 -0.13279E+07
 0.61020000E+02 -0.12620E+07
 0.61070004E+02 -0.11190E+07
 0.61119999E+02 -0.89667E+06
 0.61170002E+02 -0.62602E+06
 0.61220005E+02 -0.45738E+06
 0.61270000E+02 -0.35151E+06
 0.61320004E+02 -0.21422E+06
 0.61369999E+02 -0.11718E+06
 0.61420002E+02  0.41042E+05
 0.61470005E+02  0.23734E+06
 0.61520000E+02  0.32032E+06
 0.61570004E+02  0.30620E+06
 0.61619999E+02  0.23741E+06
 0.61670002E+02  0.16487E+06
 0.61720005E+02  0.17651E+06
 0.61770000E+02  0.29083E+06
 0.61820004E+02  0.40677E+06
 0.61869999E+02  0.37757E+06
 0.61920002E+02  0.18367E+06
 0.61970005E+02 -0.78260E+04
 0.62020000E+02 -0.14793E+06
 0.62070004E+02 -0.24810E+06
 0.62119999E+02 -0.25627E+06
 0.62170002E+02 -0.17567E+06
 0.62220005E+02 -0.34034E+05
 0.62270000E+02  0.13987E+06
 0.62320004E+02  0.33303E+06
 0.62369999E+02  0.50919E+06
 0.62420002E+02  0.66438E+06
 0.62470005E+02  0.81952E+06
 0.62520000E+02  0.98050E+06
 0.62570004E+02  0.10816E+07
 0.62619999E+02  0.10808E+07
 0.62670002E+02  0.98488E+06
 0.62720005E+02  0.79905E+06
 0.62770000E+02  0.64894E+06
 0.62820004E+02  0.52003E+06
 0.62869999E+02  0.37408E+06
 0.62920002E+02  0.23938E+06
 0.62970005E+02  0.49784E+05
 0.63020000E+02 -0.11494E+06
 0.63070004E+02 -0.18562E+06
 0.63119999E+02 -0.21747E+06
 0.63170002E+02 -0.22869E+06
 0.63220005E+02 -0.20773E+06
 0.63270000E+02 -0.17051E+06
 0.63320004E+02 -0.15657E+06
 0.63369999E+02 -0.11346E+06
 0.63420002E+02 -0.61150E+04
 0.63470005E+02  0.51581E+05
 0.63520000E+02  0.84230E+04
 0.63570004E+02 -0.10775E+06
 0.63619999E+02 -0.24922E+06
 0.63670002E+02 -0.32810E+06
 0.63720005E+02 -0.39396E+06
 0.63770000E+02 -0.43624E+06
 0.63820004E+02 -0.43490E+06
 0.63869999E+02 -0.47448E+06
 0.63920002E+02 -0.45876E+06
 0.63970005E+02 -0.33118E+06
 0.64019997E+02 -0.18359E+06
 0.64070000E+02 -0.11760E+06
 0.64119995E+02 -0.10526E+06
 0.64169998E+02 -0.46617E+05
 0.64220001E+02 -0.17800E+05
 0.64269997E+02 -0.88396E+05
 0.64320000E+02 -0.21799E+06
 0.64369995E+02 -0.34992E+06
 0.64419998E+02 -0.43043E+06
 0.64470001E+02 -0.46798E+06
 0.64519997E+02 -0.44718E+06
 0.64570000E+02 -0.31637E+06
 0.64619995E+02 -0.14450E+06
 0.64669998E+02 -0.17663E+05
 0.64720001E+02  0.38683E+05
 0.64769997E+02  0.72589E+05
 0.64820000E+02  0.13078E+06
 0.64869995E+02  0.18983E+06
 0.64919998E+02  0.30698E+06
 0.64970001E+02  0.43442E+06
 0.65019997E+02  0.51030E+06
 0.65070000E+02  0.58838E+06
 0.65119995E+02  0.63487E+06
 0.65169998E+02  0.65062E+06
 0.65220001E+02  0.66470E+06
 0.65269997E+02  0.65117E+06
 0.65320000E+02  0.60783E+06
 0.65369995E+02  0.57578E+06
 0.65419998E+02  0.60672E+06
 0.65470001E+02  0.62594E+06
 0.65519997E+02  0.54954E+06
 0.65570000E+02  0.44814E+06
 0.65619995E+02  0.29338E+06
 0.65669998E+02  0.97804E+05
 0.65720001E+02 -0.20103E+05
 0.65769997E+02 -0.56948E+05
 0.65820000E+02 -0.37184E+05
 0.65869995E+02 -0.54890E+04
 0.65919998E+02  0.46480E+04
 0.65970001E+02 -0.15063E+05
 0.66019997E+02 -0.23044E+05
 0.66070000E+02 -0.87990E+04
 0.66119995E+02  0.39330E+04
 0.66169998E+02 -0.63670E+04
 0.66220001E+02 -0.11694E+06
 0.66269997E+02 -0.24232E+06
 0.66320000E+02 -0.34784E+06
 0.66369995E+02 -0.49352E+06
 0.66419998E+02 -0.66328E+06
 0.66470001E+02 -0.87061E+06
 0.66519997E+02 -0.10296E+07
 0.66570000E+02 -0.11210E+07
 0.66619995E+02 -0.11514E+07
 0.66669998E+02 -0.11072E+07
 0.66720001E+02 -0.98553E+06
 0.66769997E+02 -0.74495E+06
 0.66820000E+02 -0.53412E+06
 0.66869995E+02 -0.36476E+06
 0.66919998E+02 -0.13866E+06
 0.66970001E+02  0.85536E+05
 0.67019997E+02  0.29597E+06
 0.67070000E+02  0.49140E+06
 0.67119995E+02  0.69871E+06
 0.67169998E+02  0.87279E+06
 0.67220001E+02  0.92245E+06
 0.67269997E+02  0.91164E+06
 0.67320000E+02  0.81904E+06
 0.67369995E+02  0.60725E+06
 0.67419998E+02  0.38947E+06
 0.67470001E+02  0.19016E+06
 0.67519997E+02 -0.28792E+05
 0.67570000E+02 -0.27863E+06
 0.67619995E+02 -0.50982E+06
 0.67669998E+02 -0.62411E+06
 0.67720001E+02 -0.71019E+06
 0.67769997E+02 -0.84739E+06
 0.67820000E+02 -0.90192E+06
 0.67869995E+02 -0.85128E+06
 0.67919998E+02 -0.76628E+06
 0.67970001E+02 -0.64465E+06
 0.68019997E+02 -0.50968E+06
 0.68070000E+02 -0.37541E+06
 0.68119995E+02 -0.25612E+06
 0.68169998E+02 -0.15676E+06
 0.68220001E+02 -0.66032E+05
 0.68269997E+02 -0.12595E+05
 0.68320000E+02  0.60912E+05
 0.68369995E+02  0.16787E+06
 0.68419998E+02  0.23826E+06
 0.68470001E+02  0.31728E+06
 0.68519997E+02  0.40784E+06
 0.68570000E+02  0.46808E+06
 0.68619995E+02  0.53435E+06
 0.68669998E+02  0.63574E+06
 0.68720001E+02  0.75773E+06
 0.68769997E+02  0.84938E+06
 0.68820000E+02  0.88526E+06
 0.68869995E+02  0.91710E+06
 0.68919998E+02  0.99838E+06
 0.68970001E+02  0.10599E+07
 0.69019997E+02  0.10466E+07
 0.69070000E+02  0.99112E+06
 0.69119995E+02  0.86491E+06
 0.69169998E+02  0.67858E+06
 0.69220001E+02  0.48936E+06
 0.69269997E+02  0.31486E+06
 0.69320000E+02  0.18423E+06
 0.69369995E+02  0.11082E+06
 0.69419998E+02  0.48673E+05
 0.69470001E+02 -0.20309E+05
 0.69519997E+02 -0.81416E+05
 0.69570000E+02 -0.11291E+06
 0.69619995E+02 -0.98130E+05
 0.69669998E+02 -0.11433E+06
 0.69720001E+02 -0.17839E+06
 0.69769997E+02 -0.22596E+06
 0.69820000E+02 -0.26529E+06
 0.69869995E+02 -0.34898E+06
 0.69919998E+02 -0.45173E+06
 0.69970001E+02 -0.48564E+06
 0.70019997E+02 -0.47616E+06
 0.70070000E+02 -0.47030E+06
 0.70119995E+02 -0.47847E+06
 0.70169998E+02 -0.45928E+06
 0.70220001E+02 -0.35845E+06
 0.70269997E+02 -0.20266E+06
 0.70320000E+02 -0.17910E+05
 0.70369995E+02  0.12486E+06
 0.70419998E+02  0.22152E+06
 0.70470001E+02  0.28513E+06
 0.70519997E+02  0.27444E+06
 0.70570000E+02  0.20644E+06
 0.70619995E+02  0.72562E+05
 0.70669998E+02 -0.98782E+05
 0.70720001E+02 -0.25243E+06
 0.70769997E+02 -0.37291E+06
 0.70820000E+02 -0.46258E+06
 0.70869995E+02 -0.52695E+06
 0.70919998E+02 -0.57241E+06
 0.70970001E+02 -0.65034E+06
 0.71019997E+02 -0.75829E+06
 0.71070000E+02 -0.82724E+06
 0.71119995E+02 -0.84707E+06
 0.71169998E+02 -0.85004E+06
 0.71220001E+02 -0.86511E+06
 0.71269997E+02 -0.83858E+06
 0.71320000E+02 -0.74273E+06
 0.71369995E+02 -0.65367E+06
 0.71419998E+02 -0.56089E+06
 0.71470001E+02 -0.46278E+06
 0.71519997E+02 -0.39036E+06
 0.71570000E+02 -0.32421E+06
 0.71619995E+02 -0.25806E+06
 0.71669998E+02 -0.17730E+06
 0.71720001E+02 -0.83731E+05
 0.71769997E+02 -0.32998E+05
 0.71820000E+02 -0.48716E+05
 0.71869995E+02 -0.47235E+05
 0.71919998E+02 -0.49090E+04
 0.71970001E+02  0.31781E+05
 0.72019997E+02  0.90310E+05
 0.72070000E+02  0.17319E+06
 0.72119995E+02  0.23291E+06
 0.72169998E+02  0.22990E+06
 0.72220001E+02  0.19358E+06
 0.72269997E+02  0.17402E+06
 0.72320000E+02  0.14216E+06
 0.72369995E+02  0.62459E+05
 0.72419998E+02 -0.77037E+05
 0.72470001E+02 -0.25749E+06
 0.72519997E+02 -0.43894E+06
 0.72570000E+02 -0.57001E+06
 0.72619995E+02 -0.60639E+06
 0.72669998E+02 -0.54365E+06
 0.72720001E+02 -0.41534E+06
 0.72769997E+02 -0.26859E+06
 0.72820000E+02 -0.12860E+06
 0.72869995E+02 -0.27209E+05
 0.72919998E+02  0.33214E+05
 0.72970001E+02  0.10914E+06
 0.73019997E+02  0.25077E+06
 0.73070000E+02  0.42897E+06
 0.73119995E+02  0.55969E+06
 0.73169998E+02  0.60673E+06
 0.73220001E+02  0.62548E+06
 0.73269997E+02  0.65008E+06
 0.73320000E+02  0.66995E+06
 0.73369995E+02  0.74091E+06
 0.73419998E+02  0.83021E+06
 0.73470001E+02  0.82821E+06
 0.73519997E+02  0.77733E+06
 0.73570000E+02  0.78069E+06
 0.73619995E+02  0.81877E+06
 0.73669998E+02  0.81182E+06
 0.73720001E+02  0.72156E+06
 0.73769997E+02  0.55695E+06
 0.73820000E+02  0.38957E+06
 0.73869995E+02  0.25834E+06
 0.73919998E+02  0.16242E+06
 0.73970001E+02  0.10106E+06
 0.74019997E+02  0.62820E+05
 0.74070000E+02  0.48185E+05
 0.74119995E+02  0.40708E+05
 0.74169998E+02  0.49793E+05
 0.74220001E+02  0.80801E+05
 0.74269997E+02  0.69421E+05
 0.74320000E+02  0.23180E+04
 0.74369995E+02 -0.49952E+05
 0.74419998E+02 -0.77553E+05
 0.74470001E+02 -0.10576E+06
 0.74519997E+02 -0.15226E+06
 0.74570000E+02 -0.23577E+06
 0.74619995E+02 -0.32140E+06
 0.74669998E+02 -0.39160E+06
 0.74720001E+02 -0.44861E+06
 0.74769997E+02 -0.47659E+06
 0.74820000E+02 -0.46037E+06
 0.74869995E+02 -0.39609E+06
 0.74919998E+02 -0.29272E+06
 0.74970001E+02 -0.17234E+06
 0.75019997E+02 -0.95678E+05
 0.75070000E+02 -0.64742E+05
 0.75119995E+02 -0.40308E+05
 0.75169998E+02 -0.27150E+05
 0.75220001E+02 -0.31910E+04
 0.75269997E+02  0.55129E+05
 0.75320000E+02  0.13180E+06
 0.75369995E+02  0.19144E+06
 0.75419998E+02  0.21097E+06
 0.75470001E+02  0.16697E+06
 0.75519997E+02  0.75413E+05
 0.75570000E+02 -0.13330E+04
 0.75619995E+02 -0.95757E+05
 0.75669998E+02 -0.20992E+06
 0.75720001E+02 -0.30998E+06
 0.75769997E+02 -0.38950E+06
 0.75820000E+02 -0.44134E+06
 0.75869995E+02 -0.53323E+06
 0.75919998E+02 -0.63268E+06
 0.75970001E+02 -0.67730E+06
 0.76019997E+02 -0.68138E+06
 0.76070000E+02 -0.66379E+06
 0.76119995E+02 -0.66995E+06
 0.76169998E+02 -0.69915E+06
 0.76220001E+02 -0.72627E+06
 0.76269997E+02 -0.71028E+06
 0.76320000E+02 -0.64390E+06
 0.76369995E+02 -0.58639E+06
 0.76419998E+02 -0.57389E+06
 0.76470001E+02 -0.59213E+06
 0.76519997E+02 -0.61913E+06
 0.76570000E+02 -0.68210E+06
 0.76619995E+02 -0.75479E+06
 0.76669998E+02 -0.76804E+06
 0.76720001E+02 -0.74151E+06
 0.76769997E+02 -0.71304E+06
 0.76820000E+02 -0.66242E+06
 0.76869995E+02 -0.56918E+06
 0.76919998E+02 -0.46641E+06
 0.76970001E+02 -0.41507E+06
 0.77019997E+02 -0.44786E+06
 0.77070000E+02 -0.51348E+06
 0.77119995E+02 -0.53143E+06
 0.77169998E+02 -0.46503E+06
 0.77220001E+02 -0.31539E+06
 0.77269997E+02 -0.90948E+05
 0.77320000E+02  0.21909E+06
 0.77369995E+02  0.56612E+06
 0.77419998E+02  0.87961E+06
 0.77470001E+02  0.11479E+07
 0.77519997E+02  0.13739E+07
 0.77570000E+02  0.15418E+07
 0.77619995E+02  0.16485E+07
 0.77669998E+02  0.17163E+07
 0.77720001E+02  0.17253E+07
 0.77769997E+02  0.16804E+07
 0.77820000E+02  0.16100E+07
 0.77869995E+02  0.14853E+07
 0.77919998E+02  0.12938E+07
 0.77970001E+02  0.10699E+07
 0.78019997E+02  0.84291E+06
 0.78070000E+02  0.59395E+06
 0.78119995E+02  0.33344E+06
 0.78169998E+02  0.15742E+06
 0.78220001E+02  0.67416E+05
 0.78269997E+02 -0.21640E+05
 0.78320000E+02 -0.99980E+05
 0.78369995E+02 -0.16849E+06
 0.78419998E+02 -0.24822E+06
 0.78470001E+02 -0.33940E+06
 0.78519997E+02 -0.47042E+06
 0.78570000E+02 -0.61898E+06
 0.78619995E+02 -0.75133E+06
 0.78669998E+02 -0.84314E+06
 0.78720001E+02 -0.90362E+06
 0.78769997E+02 -0.99566E+06
 0.78820000E+02 -0.10931E+07
 0.78869995E+02 -0.11367E+07
 0.78919998E+02 -0.11562E+07
 0.78970001E+02 -0.11811E+07
 0.79019997E+02 -0.12133E+07
 0.79070000E+02 -0.12574E+07
 0.79119995E+02 -0.12842E+07
 0.79169998E+02 -0.12828E+07
 0.79220001E+02 -0.12536E+07
 0.79269997E+02 -0.11666E+07
 0.79320000E+02 -0.10191E+07
 0.79369995E+02 -0.83413E+06
 0.79419998E+02 -0.65533E+06
 0.79470001E+02 -0.49905E+06
 0.79519997E+02 -0.33630E+06
 0.79570000E+02 -0.17132E+06
 0.79619995E+02 -0.73130E+04
 0.79669998E+02  0.15885E+06
 0.79720001E+02  0.31766E+06
 0.79769997E+02  0.47349E+06
 0.79820000E+02  0.60574E+06
 0.79869995E+02  0.69195E+06
 0.79919998E+02  0.74467E+06
 0.79970001E+02  0.80190E+06
 0.80019997E+02  0.88136E+06
 0.80070000E+02  0.94032E+06
 0.80119995E+02  0.98010E+06
 0.80169998E+02  0.10409E+07
 0.80220001E+02  0.10804E+07
 0.80269997E+02  0.10689E+07
 0.80320000E+02  0.10452E+07
 0.80369995E+02  0.10200E+07
 0.80419998E+02  0.99318E+06
 0.80470001E+02  0.97741E+06
 0.80519997E+02  0.95189E+06
 0.80570000E+02  0.88583E+06
 0.80619995E+02  0.76173E+06
 0.80669998E+02  0.57996E+06
 0.80720001E+02  0.38757E+06
 0.80769997E+02  0.21030E+06
 0.80820000E+02  0.62961E+05
 0.80869995E+02 -0.29387E+05
 0.80919998E+02 -0.10351E+06
 0.80970001E+02 -0.17389E+06
 0.81019997E+02 -0.23433E+06
 0.81070000E+02 -0.30104E+06
 0.81119995E+02 -0.37176E+06
 0.81169998E+02 -0.45118E+06
 0.81220001E+02 -0.54006E+06
 0.81269997E+02 -0.64410E+06
 0.81320000E+02 -0.74120E+06
 0.81369995E+02 -0.76389E+06
 0.81419998E+02 -0.72130E+06
 0.81470001E+02 -0.67798E+06
 0.81519997E+02 -0.66619E+06
 0.81570000E+02 -0.68160E+06
 0.81619995E+02 -0.69743E+06
 0.81669998E+02 -0.71688E+06
 0.81720001E+02 -0.74218E+06
 0.81769997E+02 -0.74926E+06
 0.81820000E+02 -0.74912E+06
 0.81869995E+02 -0.78171E+06
 0.81919998E+02 -0.83348E+06
 0.81970001E+02 -0.87704E+06
 0.82019997E+02 -0.91049E+06
 0.82070000E+02 -0.89997E+06
 0.82119995E+02 -0.83720E+06
 0.82169998E+02 -0.74058E+06
 0.82220001E+02 -0.60831E+06
 0.82269997E+02 -0.47862E+06
 0.82320000E+02 -0.40485E+06
 0.82369995E+02 -0.34539E+06
 0.82419998E+02 -0.27380E+06
 0.82470001E+02 -0.22820E+06
 0.82519997E+02 -0.18530E+06
 0.82570000E+02 -0.11787E+06
 0.82619995E+02 -0.22077E+05
 0.82669998E+02  0.10632E+06
 0.82720001E+02  0.23562E+06
 0.82769997E+02  0.31101E+06
 0.82820000E+02  0.31954E+06
 0.82869995E+02  0.29634E+06
 0.82919998E+02  0.27140E+06
 0.82970001E+02  0.24304E+06
 0.83019997E+02  0.20711E+06
 0.83070000E+02  0.19396E+06
 0.83119995E+02  0.23358E+06
 0.83169998E+02  0.33938E+06
 0.83220001E+02  0.48023E+06
 0.83269997E+02  0.61128E+06
 0.83320000E+02  0.71636E+06
 0.83369995E+02  0.77224E+06
 0.83419998E+02  0.77290E+06
 0.83470001E+02  0.71848E+06
 0.83519997E+02  0.63294E+06
 0.83570000E+02  0.52924E+06
 0.83619995E+02  0.37548E+06
 0.83669998E+02  0.18865E+06
 0.83720001E+02 -0.36220E+04
 0.83769997E+02 -0.16683E+06
 0.83820000E+02 -0.29221E+06
 0.83869995E+02 -0.43129E+06
 0.83919998E+02 -0.58923E+06
 0.83970001E+02 -0.73564E+06
 0.84019997E+02 -0.82062E+06
 0.84070000E+02 -0.83992E+06
 0.84119995E+02 -0.83525E+06
 0.84169998E+02 -0.78515E+06
 0.84220001E+02 -0.69024E+06
 0.84269997E+02 -0.58669E+06
 0.84320000E+02 -0.49185E+06
 0.84369995E+02 -0.41058E+06
 0.84419998E+02 -0.33492E+06
 0.84470001E+02 -0.27657E+06
 0.84519997E+02 -0.25068E+06
 0.84570000E+02 -0.24430E+06
 0.84619995E+02 -0.21701E+06
 0.84669998E+02 -0.17598E+06
 0.84720001E+02 -0.13460E+06
 0.84769997E+02 -0.70929E+05
 0.84820000E+02 -0.18640E+05
 0.84869995E+02  0.10299E+05
 0.84919998E+02  0.30541E+05
 0.84970001E+02  0.43865E+05
 0.85019997E+02  0.54954E+05
 0.85070000E+02  0.68200E+05
 0.85119995E+02  0.11575E+06
 0.85169998E+02  0.17217E+06
 0.85220001E+02  0.21111E+06
 0.85269997E+02  0.26790E+06
 0.85320000E+02  0.34547E+06
 0.85369995E+02  0.43226E+06
 0.85419998E+02  0.50213E+06
 0.85470001E+02  0.52794E+06
 0.85519997E+02  0.52823E+06
 0.85570000E+02  0.52879E+06
 0.85619995E+02  0.51438E+06
 0.85669998E+02  0.46773E+06
 0.85720001E+02  0.40819E+06
 0.85769997E+02  0.34654E+06
 0.85820000E+02  0.29507E+06
 0.85869995E+02  0.26376E+06
 0.85919998E+02  0.23533E+06
 0.85970001E+02  0.20455E+06
 0.86019997E+02  0.16199E+06
 0.86070000E+02  0.97683E+05
 0.86119995E+02  0.22994E+05
 0.86169998E+02 -0.56262E+05
 0.86220001E+02 -0.10933E+06
 0.86269997E+02 -0.13808E+06
 0.86320000E+02 -0.18684E+06
 0.86369995E+02 -0.23274E+06
 0.86419998E+02 -0.27153E+06
 0.86470001E+02 -0.32012E+06
 0.86519997E+02 -0.35716E+06
 0.86570000E+02 -0.36854E+06
 0.86619995E+02 -0.34348E+06
 0.86669998E+02 -0.29764E+06
 0.86720001E+02 -0.24141E+06
 0.86769997E+02 -0.19054E+06
 0.86820000E+02 -0.16437E+06
 0.86869995E+02 -0.12614E+06
 0.86919998E+02 -0.52854E+05
 0.86970001E+02  0.43967E+05
 0.87019997E+02  0.12829E+06
 0.87070000E+02  0.17831E+06
 0.87119995E+02  0.19171E+06
 0.87169998E+02  0.15492E+06
 0.87220001E+02  0.11806E+06
 0.87269997E+02  0.11918E+06
 0.87320000E+02  0.15627E+06
 0.87369995E+02  0.20868E+06
 0.87419998E+02  0.21289E+06
 0.87470001E+02  0.17253E+06
 0.87519997E+02  0.11436E+06
 0.87570000E+02  0.36033E+05
 0.87619995E+02 -0.53428E+05
 0.87669998E+02 -0.14532E+06
 0.87720001E+02 -0.21368E+06
 0.87769997E+02 -0.22914E+06
 0.87820000E+02 -0.19482E+06
 0.87869995E+02 -0.14251E+06
 0.87919998E+02 -0.95125E+05
 0.87970001E+02 -0.62948E+05
 0.88019997E+02 -0.54852E+05
 0.88070000E+02 -0.68888E+05
 0.88119995E+02 -0.86670E+05
 0.88169998E+02 -0.95102E+05
 0.88220001E+02 -0.10313E+06
 0.88269997E+02 -0.10867E+06
 0.88320000E+02 -0.12105E+06
 0.88369995E+02 -0.15330E+06
 0.88419998E+02 -0.17859E+06
 0.88470001E+02 -0.18266E+06
 0.88519997E+02 -0.18384E+06
 0.88570000E+02 -0.18803E+06
 0.88619995E+02 -0.17678E+06
 0.88669998E+02 -0.12708E+06
 0.88720001E+02 -0.27568E+05
 0.88769997E+02  0.93307E+05
 0.88820000E+02  0.18013E+06
 0.88869995E+02  0.21810E+06
 0.88919998E+02  0.23560E+06
 0.88970001E+02  0.24347E+06
 0.89019997E+02  0.23392E+06
 0.89070000E+02  0.21410E+06
 0.89119995E+02  0.20748E+06
 0.89169998E+02  0.23834E+06
 0.89220001E+02  0.28085E+06
 0.89269997E+02  0.30674E+06
 0.89320000E+02  0.32622E+06
 0.89369995E+02  0.31283E+06
 0.89419998E+02  0.25016E+06
 0.89470001E+02  0.16044E+06
 0.89519997E+02  0.53722E+05
 0.89570000E+02 -0.78845E+05
 0.89619995E+02 -0.21166E+06
 0.89669998E+02 -0.27202E+06
 0.89720001E+02 -0.24984E+06
 0.89769997E+02 -0.17645E+06
 0.89820000E+02 -0.66897E+05
 0.89869995E+02  0.54621E+05
 0.89919998E+02  0.13793E+06
 0.89970001E+02  0.16233E+06
 0.90019997E+02  0.17356E+06
 0.90070000E+02  0.18627E+06
 0.90119995E+02  0.18923E+06
 0.90169998E+02  0.16840E+06
 0.90220001E+02  0.11856E+06
 0.90269997E+02  0.54990E+05
 0.90320000E+02 -0.12669E+05
 0.90369995E+02 -0.54812E+05
 0.90419998E+02 -0.68916E+05
 0.90470001E+02 -0.74343E+05
 0.90519997E+02 -0.82484E+05
 0.90570000E+02 -0.87880E+05
 0.90619995E+02 -0.75962E+05
 0.90669998E+02 -0.90141E+05
 0.90720001E+02 -0.13082E+06
 0.90769997E+02 -0.15462E+06
 0.90820000E+02 -0.17136E+06
 0.90869995E+02 -0.17452E+06
 0.90919998E+02 -0.17011E+06
 0.90970001E+02 -0.17863E+06
 0.91019997E+02 -0.18723E+06
 0.91070000E+02 -0.17683E+06
 0.91119995E+02 -0.13760E+06
 0.91169998E+02 -0.96477E+05
 0.91220001E+02 -0.74614E+05
 0.91269997E+02 -0.66467E+05
 0.91320000E+02 -0.58474E+05
 0.91369995E+02 -0.49370E+05
 0.91419998E+02 -0.63668E+05
 0.91470001E+02 -0.85763E+05
 0.91519997E+02 -0.92243E+05
 0.91570000E+02 -0.10476E+06
 0.91619995E+02 -0.13152E+06
 0.91669998E+02 -0.16935E+06
 0.91720001E+02 -0.22125E+06
 0.91769997E+02 -0.26922E+06
 0.91820000E+02 -0.29647E+06
 0.91869995E+02 -0.30343E+06
 0.91919998E+02 -0.28769E+06
 0.91970001E+02 -0.25851E+06
 0.92019997E+02 -0.22751E+06
 0.92070000E+02 -0.18322E+06
 0.92119995E+02 -0.13657E+06
 0.92169998E+02 -0.11391E+06
 0.92220001E+02 -0.11585E+06
 0.92269997E+02 -0.13800E+06
 0.92320000E+02 -0.17314E+06
 0.92369995E+02 -0.21358E+06
 0.92419998E+02 -0.24481E+06
 0.92470001E+02 -0.26251E+06
 0.92519997E+02 -0.27440E+06
 0.92570000E+02 -0.26549E+06
 0.92619995E+02 -0.22550E+06
 0.92669998E+02 -0.15895E+06
 0.92720001E+02 -0.91469E+05
 0.92769997E+02 -0.52048E+05
 0.92820000E+02 -0.40975E+05
 0.92869995E+02 -0.34226E+05
 0.92919998E+02 -0.55060E+04
 0.92970001E+02  0.33656E+05
 0.93019997E+02  0.67972E+05
 0.93070000E+02  0.99913E+05
 0.93119995E+02  0.11697E+06
 0.93169998E+02  0.10558E+06
 0.93220001E+02  0.62988E+05
 0.93269997E+02  0.19665E+05
 0.93320000E+02  0.44850E+04
 0.93369995E+02  0.58640E+04
 0.93419998E+02  0.24794E+05
 0.93470001E+02  0.37086E+05
 0.93519997E+02  0.25561E+05
 0.93570000E+02 -0.80200E+03
 0.93619995E+02 -0.40053E+05
 0.93669998E+02 -0.70948E+05
 0.93720001E+02 -0.10146E+06
 0.93769997E+02 -0.11577E+06
 0.93820000E+02 -0.10536E+06
 0.93869995E+02 -0.10695E+06
 0.93919998E+02 -0.10670E+06
 0.93970001E+02 -0.85706E+05
 0.94019997E+02 -0.52768E+05
 0.94070000E+02 -0.13963E+05
 0.94119995E+02  0.28683E+05
 0.94169998E+02  0.78514E+05
 0.94220001E+02  0.13038E+06
 0.94269997E+02  0.17128E+06
 0.94320000E+02  0.20241E+06
 0.94369995E+02  0.23277E+06
 0.94419998E+02  0.26571E+06
 0.94470001E+02  0.28954E+06
 0.94519997E+02  0.30698E+06
 0.94570000E+02  0.33085E+06
 0.94619995E+02  0.34461E+06
 0.94669998E+02  0.34682E+06
 0.94720001E+02  0.35270E+06
 0.94769997E+02  0.36799E+06
 0.94820000E+02  0.36993E+06
 0.94869995E+02  0.34295E+06
 0.94919998E+02  0.32481E+06
 0.94970001E+02  0.32937E+06
 0.95019997E+02  0.34234E+06
 0.95070000E+02  0.35024E+06
 0.95119995E+02  0.32843E+06
 0.95169998E+02  0.27192E+06
 0.95220001E+02  0.19040E+06
 0.95269997E+02  0.80273E+05
 0.95320000E+02 -0.66368E+05
 0.95369995E+02 -0.23902E+06
 0.95419998E+02 -0.40432E+06
 0.95470001E+02 -0.53624E+06
 0.95519997E+02 -0.63698E+06
 0.95570000E+02 -0.71577E+06
 0.95619995E+02 -0.77937E+06
 0.95669998E+02 -0.83755E+06
 0.95720001E+02 -0.89775E+06
 0.95769997E+02 -0.95974E+06
 0.95820000E+02 -0.10151E+07
 0.95869995E+02 -0.10426E+07
 0.95919998E+02 -0.10157E+07
 0.95970001E+02 -0.94703E+06
 0.96019997E+02 -0.87236E+06
 0.96070000E+02 -0.80576E+06
 0.96119995E+02 -0.74862E+06
 0.96169998E+02 -0.69495E+06
 0.96220001E+02 -0.64661E+06
 0.96269997E+02 -0.59648E+06
 0.96320000E+02 -0.53017E+06
 0.96369995E+02 -0.45241E+06
 0.96419998E+02 -0.37190E+06
 0.96470001E+02 -0.29681E+06
 0.96519997E+02 -0.22451E+06
 0.96570000E+02 -0.15564E+06
 0.96619995E+02 -0.94035E+05
 0.96669998E+02 -0.32851E+05
 0.96720001E+02  0.38137E+05
 0.96769997E+02  0.13371E+06
 0.96820000E+02  0.24374E+06
 0.96869995E+02  0.35630E+06
 0.96919998E+02  0.47975E+06
 0.96970001E+02  0.60384E+06
 0.97019997E+02  0.69929E+06
 0.97070000E+02  0.73236E+06
 0.97119995E+02  0.70501E+06
 0.97169998E+02  0.64334E+06
 0.97220001E+02  0.54769E+06
 0.97269997E+02  0.43069E+06
 0.97320000E+02  0.32060E+06
 0.97369995E+02  0.22820E+06
 0.97419998E+02  0.15246E+06
 0.97470001E+02  0.79649E+05
 0.97519997E+02 -0.28610E+04
 0.97570000E+02 -0.96898E+05
 0.97619995E+02 -0.20649E+06
 0.97669998E+02 -0.31797E+06
 0.97720001E+02 -0.41002E+06
 0.97769997E+02 -0.48622E+06
 0.97820000E+02 -0.55198E+06
 0.97869995E+02 -0.60334E+06
 0.97919998E+02 -0.63009E+06
 0.97970001E+02 -0.63834E+06
 0.98019997E+02 -0.65070E+06
 0.98070000E+02 -0.66313E+06
 0.98119995E+02 -0.65208E+06
 0.98169998E+02 -0.60108E+06
 0.98220001E+02 -0.51501E+06
 0.98269997E+02 -0.40127E+06
 0.98320000E+02 -0.26540E+06
 0.98369995E+02 -0.13927E+06
 0.98419998E+02 -0.48159E+05
 0.98470001E+02  0.10867E+05
 0.98519997E+02  0.48917E+05
 0.98570000E+02  0.79058E+05
 0.98619995E+02  0.95167E+05
 0.98669998E+02  0.87089E+05
 0.98720001E+02  0.64229E+05
 0.98769997E+02  0.22820E+05
 0.98820000E+02 -0.30059E+05
 0.98869995E+02 -0.61480E+05
 0.98919998E+02 -0.67734E+05
 0.98970001E+02 -0.52388E+05
 0.99019997E+02 -0.25080E+05
 0.99070000E+02 -0.76980E+04
 0.99119995E+02  0.93250E+04
 0.99169998E+02  0.17677E+05
 0.99220001E+02  0.22525E+05
 0.99269997E+02  0.55379E+05
 0.99320000E+02  0.95501E+05
 0.99369995E+02  0.12222E+06
 0.99419998E+02  0.12996E+06
 0.99470001E+02  0.12948E+06
 0.99519997E+02  0.13526E+06
 0.99570000E+02  0.13798E+06
 0.99619995E+02  0.14669E+06
 0.99669998E+02  0.15282E+06
 0.99720001E+02  0.13046E+06
 0.99769997E+02  0.72299E+05
 0.99820000E+02 -0.16864E+05
 0.99869995E+02 -0.11742E+06
 0.99919998E+02 -0.21139E+06
 0.99970001E+02 -0.27746E+06
 0.10002000E+03 -0.29985E+06
 0.10007000E+03 -0.29474E+06
 0.10012000E+03 -0.28887E+06
 0.10017000E+03 -0.29316E+06
 0.10022000E+03 -0.30588E+06
 0.10027000E+03 -0.32807E+06
 0.10032000E+03 -0.36444E+06
 0.10037000E+03 -0.40258E+06
 0.10042000E+03 -0.41552E+06
 0.10047000E+03 -0.38833E+06
 0.10052000E+03 -0.32630E+06
 0.10057000E+03 -0.25368E+06
 0.10062000E+03 -0.17638E+06
 0.10067000E+03 -0.85854E+05
 0.10072000E+03  0.11095E+05
 0.10077000E+03  0.11032E+06
 0.10082000E+03  0.19678E+06
 0.10087000E+03  0.26090E+06
 0.10092000E+03  0.30654E+06
 0.10097000E+03  0.33638E+06
 0.10102000E+03  0.35382E+06
 0.10107000E+03  0.36844E+06
 0.10112000E+03  0.39226E+06
 0.10117000E+03  0.41867E+06
 0.10122000E+03  0.44488E+06
 0.10127000E+03  0.46675E+06
 0.10132000E+03  0.47501E+06
 0.10137000E+03  0.46736E+06
 0.10142000E+03  0.44340E+06
 0.10147000E+03  0.41722E+06
 0.10152000E+03  0.40188E+06
 0.10157000E+03  0.38910E+06
 0.10162000E+03  0.36646E+06
 0.10167000E+03  0.32715E+06
 0.10172000E+03  0.27118E+06
 0.10177000E+03  0.20683E+06
 0.10182000E+03  0.13044E+06
 0.10187000E+03  0.47434E+05
 0.10192000E+03 -0.12865E+05
 0.10197000E+03 -0.29866E+05
 0.10202000E+03 -0.15647E+05
 0.10207000E+03  0.80780E+04
 0.10212000E+03  0.42727E+05
 0.10217000E+03  0.78304E+05
 0.10222000E+03  0.97502E+05
 0.10227000E+03  0.10842E+06
 0.10232000E+03  0.12535E+06
 0.10237000E+03  0.13844E+06
 0.10242000E+03  0.12568E+06
 0.10247000E+03  0.92094E+05
 0.10252000E+03  0.56438E+05
 0.10257000E+03  0.19653E+05
 0.10262000E+03 -0.31072E+05
 0.10267000E+03 -0.99750E+05
 0.10272000E+03 -0.16999E+06
 0.10277000E+03 -0.22008E+06
 0.10282000E+03 -0.24356E+06
 0.10287000E+03 -0.24314E+06
 0.10292000E+03 -0.22250E+06
 0.10297000E+03 -0.16941E+06
 0.10302000E+03 -0.83474E+05
 0.10307000E+03 -0.21170E+04
 0.10312000E+03  0.60621E+05
 0.10317000E+03  0.10904E+06
 0.10322000E+03  0.13350E+06
 0.10327000E+03  0.11694E+06
 0.10332000E+03  0.50749E+05
 0.10337000E+03 -0.36658E+05
 0.10342000E+03 -0.12596E+06
 0.10347000E+03 -0.22289E+06
 0.10352000E+03 -0.32189E+06
 0.10357000E+03 -0.41496E+06
 0.10362000E+03 -0.48845E+06
 0.10367000E+03 -0.54290E+06
 0.10372000E+03 -0.59277E+06
 0.10377000E+03 -0.62403E+06
 0.10382000E+03 -0.61261E+06
 0.10387000E+03 -0.56428E+06
 0.10392000E+03 -0.49738E+06
 0.10397000E+03 -0.41737E+06
 0.10402000E+03 -0.32682E+06
 0.10407000E+03 -0.22959E+06
 0.10412000E+03 -0.13651E+06
 0.10417000E+03 -0.46224E+05
 0.10422000E+03  0.54791E+05
 0.10427000E+03  0.16419E+06
 0.10432000E+03  0.27371E+06
 0.10437000E+03  0.36599E+06
 0.10442000E+03  0.42780E+06
 0.10447000E+03  0.47103E+06
 0.10452000E+03  0.50003E+06
 0.10457000E+03  0.50879E+06
 0.10462000E+03  0.50017E+06
 0.10467000E+03  0.48291E+06
 0.10472000E+03  0.46320E+06
 0.10477000E+03  0.43263E+06
 0.10482000E+03  0.39066E+06
 0.10487000E+03  0.34076E+06
 0.10492000E+03  0.28811E+06
 0.10497000E+03  0.24214E+06
 0.10502000E+03  0.19966E+06
 0.10507000E+03  0.15661E+06
 0.10512000E+03  0.10043E+06
 0.10517000E+03  0.24804E+05
 0.10522000E+03 -0.65027E+05
 0.10527000E+03 -0.15413E+06
 0.10532000E+03 -0.22248E+06
 0.10537000E+03 -0.27398E+06
 0.10542000E+03 -0.31376E+06
 0.10547000E+03 -0.33820E+06
 0.10552000E+03 -0.33601E+06
 0.10557000E+03 -0.30839E+06
 0.10562000E+03 -0.28373E+06
 0.10567000E+03 -0.27391E+06
 0.10572000E+03 -0.27809E+06
 0.10577000E+03 -0.29622E+06
 0.10582000E+03 -0.32812E+06
 0.10587000E+03 -0.36967E+06
 0.10592000E+03 -0.40785E+06
 0.10597000E+03 -0.42973E+06
 0.10602000E+03 -0.42128E+06
 0.10607000E+03 -0.38966E+06
 0.10612000E+03 -0.35573E+06
 0.10617000E+03 -0.33128E+06
 0.10622000E+03 -0.31061E+06
 0.10627000E+03 -0.27974E+06
 0.10632000E+03 -0.24993E+06
 0.10637000E+03 -0.22770E+06
 0.10642000E+03 -0.20754E+06
 0.10647000E+03 -0.19177E+06
 0.10652000E+03 -0.17771E+06
 0.10657000E+03 -0.16598E+06
 0.10662000E+03 -0.15974E+06
 0.10667000E+03 -0.16925E+06
 0.10672000E+03 -0.20215E+06
 0.10677000E+03 -0.24148E+06
 0.10682000E+03 -0.27025E+06
 0.10687000E+03 -0.28726E+06
 0.10692000E+03 -0.30491E+06
 0.10697000E+03 -0.34029E+06
 0.10702000E+03 -0.38574E+06
 0.10707000E+03 -0.40978E+06
 0.10712000E+03 -0.40158E+06
 0.10717000E+03 -0.38132E+06
 0.10722000E+03 -0.35544E+06
 0.10727000E+03 -0.32207E+06
 0.10732000E+03 -0.27954E+06
 0.10737000E+03 -0.22287E+06
 0.10742000E+03 -0.15757E+06
 0.10747000E+03 -0.80209E+05
 0.10752000E+03  0.22690E+04
 0.10757000E+03  0.80639E+05
 0.10762000E+03  0.15254E+06
 0.10767000E+03  0.19985E+06
 0.10772000E+03  0.22110E+06
 0.10777000E+03  0.23211E+06
 0.10782000E+03  0.23977E+06
 0.10787000E+03  0.25056E+06
 0.10792000E+03  0.27271E+06
 0.10797000E+03  0.30128E+06
 0.10802000E+03  0.33078E+06
 0.10807000E+03  0.35532E+06
 0.10812000E+03  0.36406E+06
 0.10817000E+03  0.35818E+06
 0.10822000E+03  0.34013E+06
 0.10827000E+03  0.31498E+06
 0.10832000E+03  0.28789E+06
 0.10837000E+03  0.25728E+06
 0.10842000E+03  0.22921E+06
 0.10847000E+03  0.19764E+06
 0.10852000E+03  0.15462E+06
 0.10857000E+03  0.11459E+06
 0.10862000E+03  0.80431E+05
 0.10867000E+03  0.43741E+05
 0.10872000E+03  0.66510E+04
 0.10877000E+03 -0.25261E+05
 0.10882000E+03 -0.51492E+05
 0.10887000E+03 -0.76896E+05
 0.10892000E+03 -0.10532E+06
 0.10897000E+03 -0.13772E+06
 0.10902000E+03 -0.17507E+06
 0.10907000E+03 -0.22277E+06
 0.10912000E+03 -0.28440E+06
 0.10917000E+03 -0.34526E+06
 0.10922000E+03 -0.39081E+06
 0.10927000E+03 -0.42698E+06
 0.10932000E+03 -0.46247E+06
 0.10937000E+03 -0.49804E+06
 0.10942000E+03 -0.50786E+06
 0.10947000E+03 -0.47818E+06
 0.10952000E+03 -0.42804E+06
 0.10957000E+03 -0.36473E+06
 0.10962000E+03 -0.30040E+06
 0.10967000E+03 -0.24252E+06
 0.10972000E+03 -0.19307E+06
 0.10977000E+03 -0.15800E+06
 0.10982000E+03 -0.13273E+06
 0.10987000E+03 -0.11958E+06
 0.10992000E+03 -0.11459E+06
 0.10997000E+03 -0.11295E+06
 0.11002000E+03 -0.11589E+06
 0.11007000E+03 -0.11662E+06
 0.11012000E+03 -0.11214E+06
 0.11017000E+03 -0.98562E+05
 0.11022000E+03 -0.72845E+05
 0.11027000E+03 -0.37876E+05
 0.11032000E+03  0.11140E+04
 0.11037000E+03  0.44442E+05
 0.11042000E+03  0.94178E+05
 0.11047000E+03  0.14467E+06
 0.11052000E+03  0.19649E+06
 0.11057000E+03  0.25494E+06
 0.11062000E+03  0.32480E+06
 0.11067000E+03  0.40322E+06
 0.11072000E+03  0.47515E+06
 0.11077000E+03  0.52825E+06
 0.11082000E+03  0.54870E+06
 0.11087000E+03  0.52473E+06
 0.11092000E+03  0.46545E+06
 0.11097000E+03  0.39090E+06
 0.11102000E+03  0.31512E+06
 0.11107000E+03  0.24042E+06
 0.11112000E+03  0.16862E+06
 0.11117000E+03  0.10843E+06
 0.11122000E+03  0.64613E+05
 0.11127000E+03  0.47651E+05
 0.11132000E+03  0.64713E+05
 0.11137000E+03  0.10798E+06
 0.11142000E+03  0.17369E+06
 0.11147000E+03  0.24538E+06
 0.11152000E+03  0.30842E+06
 0.11157000E+03  0.36735E+06
 0.11162000E+03  0.41487E+06
 0.11167000E+03  0.44056E+06
 0.11172000E+03  0.43780E+06
 0.11177000E+03  0.40110E+06
 0.11182000E+03  0.33882E+06
 0.11187000E+03  0.26266E+06
 0.11192000E+03  0.17603E+06
 0.11197000E+03  0.92581E+05
 0.11202000E+03  0.30070E+05
 0.11207000E+03 -0.90570E+04
 0.11212000E+03 -0.33001E+05
 0.11217000E+03 -0.49235E+05
 0.11222000E+03 -0.60936E+05
 0.11227000E+03 -0.82257E+05
 0.11232000E+03 -0.12386E+06
 0.11237000E+03 -0.17873E+06
 0.11242000E+03 -0.24125E+06
 0.11247000E+03 -0.30463E+06
 0.11252000E+03 -0.36063E+06
 0.11257000E+03 -0.40894E+06
 0.11262000E+03 -0.45256E+06
 0.11267000E+03 -0.49290E+06
 0.11272000E+03 -0.53055E+06
 0.11277000E+03 -0.56787E+06
 0.11282000E+03 -0.59488E+06
 0.11287000E+03 -0.60124E+06
 0.11292000E+03 -0.59444E+06
 0.11297000E+03 -0.58326E+06
 0.11302000E+03 -0.57724E+06
 0.11307000E+03 -0.57580E+06
 0.11312000E+03 -0.56769E+06
 0.11317000E+03 -0.54956E+06
 0.11322000E+03 -0.52300E+06
 0.11327000E+03 -0.49141E+06
 0.11332000E+03 -0.46197E+06
 0.11337000E+03 -0.43575E+06
 0.11342000E+03 -0.40678E+06
 0.11347000E+03 -0.37696E+06
 0.11352000E+03 -0.34621E+06
 0.11357000E+03 -0.31635E+06
 0.11362000E+03 -0.28705E+06
 0.11367000E+03 -0.25845E+06
 0.11372000E+03 -0.24723E+06
 0.11377000E+03 -0.25429E+06
 0.11382000E+03 -0.26298E+06
 0.11387000E+03 -0.26697E+06
 0.11392000E+03 -0.27550E+06
 0.11397000E+03 -0.29748E+06
 0.11402000E+03 -0.31984E+06
 0.11407000E+03 -0.33188E+06
 0.11412000E+03 -0.34575E+06
 0.11417000E+03 -0.36985E+06
 0.11422000E+03 -0.40637E+06
 0.11427000E+03 -0.45106E+06
 0.11432000E+03 -0.48303E+06
 0.11437000E+03 -0.48389E+06
 0.11442000E+03 -0.45336E+06
 0.11447000E+03 -0.40296E+06
 0.11452000E+03 -0.34355E+06
 0.11457000E+03 -0.28714E+06
 0.11462000E+03 -0.23942E+06
 0.11467000E+03 -0.19510E+06
 0.11472000E+03 -0.14823E+06
 0.11477000E+03 -0.90823E+05
 0.11482000E+03 -0.21735E+05
 0.11487000E+03  0.45237E+05
 0.11492000E+03  0.10338E+06
 0.11497000E+03  0.16273E+06
 0.11502000E+03  0.23210E+06
 0.11507000E+03  0.31698E+06
 0.11512000E+03  0.40838E+06
 0.11517000E+03  0.49286E+06
 0.11522000E+03  0.56886E+06
 0.11527000E+03  0.62951E+06
 0.11532000E+03  0.67800E+06
 0.11537000E+03  0.71987E+06
 0.11542000E+03  0.75584E+06
 0.11547000E+03  0.79316E+06
 0.11552000E+03  0.82495E+06
 0.11557000E+03  0.84283E+06
 0.11562000E+03  0.84389E+06
 0.11567000E+03  0.82186E+06
 0.11572000E+03  0.77255E+06
 0.11577000E+03  0.69200E+06
 0.11582000E+03  0.58463E+06
 0.11587000E+03  0.46365E+06
 0.11592000E+03  0.34034E+06
 0.11597000E+03  0.22625E+06
 0.11602000E+03  0.13133E+06
 0.11607000E+03  0.63560E+05
 0.11612000E+03  0.26419E+05
 0.11617000E+03  0.99350E+04
 0.11622000E+03  0.32450E+04
 0.11627000E+03 -0.82350E+04
 0.11632000E+03 -0.33657E+05
 0.11637000E+03 -0.65752E+05
 0.11642000E+03 -0.10570E+06
 0.11647000E+03 -0.16002E+06
 0.11652000E+03 -0.22530E+06
 0.11657000E+03 -0.28393E+06
 0.11662000E+03 -0.32533E+06
 0.11667000E+03 -0.35684E+06
 0.11672000E+03 -0.38328E+06
 0.11677000E+03 -0.40334E+06
 0.11682000E+03 -0.41843E+06
 0.11687000E+03 -0.43295E+06
 0.11692000E+03 -0.44882E+06
 0.11697000E+03 -0.46722E+06
 0.11702000E+03 -0.48492E+06
 0.11707000E+03 -0.49929E+06
 0.11712000E+03 -0.50880E+06
 0.11717000E+03 -0.50631E+06
 0.11722000E+03 -0.48624E+06
 0.11727000E+03 -0.45465E+06
 0.11732000E+03 -0.42824E+06
 0.11737000E+03 -0.41337E+06
 0.11742000E+03 -0.40978E+06
 0.11747000E+03 -0.41460E+06
 0.11752000E+03 -0.42015E+06
 0.11757000E+03 -0.43089E+06
 0.11762000E+03 -0.45054E+06
 0.11767000E+03 -0.47199E+06
 0.11772000E+03 -0.48978E+06
 0.11777000E+03 -0.50582E+06
 0.11782000E+03 -0.51486E+06
 0.11787000E+03 -0.50629E+06
 0.11792000E+03 -0.48523E+06
 0.11797000E+03 -0.45456E+06
 0.11802000E+03 -0.41563E+06
 0.11807000E+03 -0.36998E+06
 0.11812000E+03 -0.31790E+06
 0.11817000E+03 -0.27562E+06
 0.11822000E+03 -0.24772E+06
 0.11827000E+03 -0.21507E+06
 0.11832000E+03 -0.15914E+06
 0.11837000E+03 -0.84441E+05
 0.11842000E+03 -0.13510E+05
 0.11847000E+03  0.40323E+05
 0.11852000E+03  0.69816E+05
 0.11857000E+03  0.77706E+05
 0.11862000E+03  0.83660E+05
 0.11867000E+03  0.98287E+05
 0.11872000E+03  0.12288E+06
 0.11877000E+03  0.16369E+06
 0.11882000E+03  0.21779E+06
 0.11887000E+03  0.28209E+06
 0.11892000E+03  0.36305E+06
 0.11897000E+03  0.45352E+06
 0.11902000E+03  0.53809E+06
 0.11907000E+03  0.60837E+06
 0.11912000E+03  0.66153E+06
 0.11917000E+03  0.70054E+06
 0.11922000E+03  0.72523E+06
 0.11927000E+03  0.73672E+06
 0.11932000E+03  0.74072E+06
 0.11937000E+03  0.73550E+06
 0.11942000E+03  0.72403E+06
 0.11947000E+03  0.71052E+06
 0.11952000E+03  0.68980E+06
 0.11957000E+03  0.65310E+06
 0.11962000E+03  0.59679E+06
 0.11967000E+03  0.53407E+06
 0.11972000E+03  0.47598E+06
 0.11977000E+03  0.42309E+06
 0.11982000E+03  0.37312E+06
 0.11987000E+03  0.32370E+06
 0.11992000E+03  0.27748E+06
 0.11997000E+03  0.23158E+06
 0.12002000E+03  0.18192E+06
 0.12007000E+03  0.12418E+06
 0.12012000E+03  0.57514E+05
 0.12017000E+03 -0.65160E+04
 0.12022000E+03 -0.65546E+05
 0.12027000E+03 -0.12842E+06
 0.12032000E+03 -0.20088E+06
 0.12037000E+03 -0.28254E+06
 0.12042000E+03 -0.37289E+06
 0.12047000E+03 -0.46802E+06
 0.12052000E+03 -0.55281E+06
 0.12057000E+03 -0.62244E+06
 0.12062000E+03 -0.67967E+06
 0.12067000E+03 -0.71693E+06
 0.12072000E+03 -0.73097E+06
 0.12077000E+03 -0.72612E+06
 0.12082000E+03 -0.70781E+06
 0.12087000E+03 -0.68714E+06
 0.12092000E+03 -0.67341E+06
 0.12097000E+03 -0.66440E+06
 0.12102000E+03 -0.65625E+06
 0.12107000E+03 -0.64752E+06
 0.12112000E+03 -0.63326E+06
 0.12117000E+03 -0.60749E+06
 0.12122000E+03 -0.56708E+06
 0.12127000E+03 -0.51598E+06
 0.12132000E+03 -0.46586E+06
 0.12137000E+03 -0.42385E+06
 0.12142000E+03 -0.38450E+06
 0.12147000E+03 -0.34247E+06
 0.12152000E+03 -0.30237E+06
 0.12157000E+03 -0.26497E+06
 0.12162000E+03 -0.22358E+06
 0.12167000E+03 -0.18121E+06
 0.12172000E+03 -0.14811E+06
 0.12177000E+03 -0.13392E+06
 0.12182000E+03 -0.14757E+06
 0.12187000E+03 -0.18139E+06
 0.12192000E+03 -0.21848E+06
 0.12197000E+03 -0.25230E+06
 0.12202000E+03 -0.27677E+06
 0.12207000E+03 -0.28440E+06
 0.12212000E+03 -0.26954E+06
 0.12217000E+03 -0.23094E+06
 0.12222000E+03 -0.17320E+06
 0.12227000E+03 -0.96693E+05
 0.12232000E+03 -0.54320E+04
 0.12237000E+03  0.88759E+05
 0.12242000E+03  0.17738E+06
 0.12247000E+03  0.25040E+06
 0.12252000E+03  0.30572E+06
 0.12257000E+03  0.34969E+06
 0.12262000E+03  0.37797E+06
 0.12267000E+03  0.39363E+06
 0.12272000E+03  0.40800E+06
 0.12277000E+03  0.42332E+06
 0.12282000E+03  0.43340E+06
 0.12287000E+03  0.42870E+06
 0.12292000E+03  0.40623E+06
 0.12297000E+03  0.37125E+06
 0.12302000E+03  0.33994E+06
 0.12307000E+03  0.32434E+06
 0.12312000E+03  0.31834E+06
 0.12317000E+03  0.31211E+06
 0.12322000E+03  0.30156E+06
 0.12327000E+03  0.29241E+06
 0.12332000E+03  0.29432E+06
 0.12337000E+03  0.30606E+06
 0.12342000E+03  0.31848E+06
 0.12347000E+03  0.32399E+06
 0.12352000E+03  0.32085E+06
 0.12357000E+03  0.31705E+06
 0.12362000E+03  0.31742E+06
 0.12367000E+03  0.31957E+06
 0.12372000E+03  0.31646E+06
 0.12377000E+03  0.30009E+06
 0.12382000E+03  0.27107E+06
 0.12387000E+03  0.22676E+06
 0.12392000E+03  0.16841E+06
 0.12397000E+03  0.10559E+06
 0.12402000E+03  0.42972E+05
 0.12407000E+03 -0.12487E+05
 0.12412000E+03 -0.59591E+05
 0.12417000E+03 -0.10796E+06
 0.12422000E+03 -0.15579E+06
 0.12427000E+03 -0.19882E+06
 0.12432000E+03 -0.24191E+06
 0.12437000E+03 -0.28295E+06
 0.12442000E+03 -0.31844E+06
 0.12447000E+03 -0.34803E+06
 0.12452000E+03 -0.37620E+06
 0.12457000E+03 -0.40428E+06
 0.12462000E+03 -0.42565E+06
 0.12467000E+03 -0.44640E+06
 0.12472000E+03 -0.47157E+06
 0.12477000E+03 -0.49665E+06
 0.12482000E+03 -0.51347E+06
 0.12487000E+03 -0.51564E+06
 0.12492000E+03 -0.50667E+06
 0.12497000E+03 -0.48044E+06
 0.12502000E+03 -0.44085E+06
 0.12507000E+03 -0.40418E+06
 0.12512000E+03 -0.36883E+06
 0.12517001E+03 -0.33402E+06
 0.12521999E+03 -0.30022E+06
 0.12527000E+03 -0.26743E+06
 0.12532000E+03 -0.23413E+06
 0.12537000E+03 -0.19406E+06
 0.12542001E+03 -0.15456E+06
 0.12546999E+03 -0.11912E+06
 0.12552000E+03 -0.86500E+05
 0.12557000E+03 -0.62067E+05
 0.12562000E+03 -0.42396E+05
 0.12567001E+03 -0.21560E+05
 0.12571999E+03  0.43070E+04
 0.12577000E+03  0.36130E+05
 0.12582000E+03  0.70252E+05
 0.12587000E+03  0.10826E+06
 0.12592001E+03  0.14716E+06
 0.12596999E+03  0.17676E+06
 0.12602000E+03  0.19259E+06
 0.12607000E+03  0.19726E+06
 0.12612000E+03  0.19349E+06
 0.12617001E+03  0.17993E+06
 0.12621999E+03  0.16279E+06
 0.12627000E+03  0.15060E+06
 0.12632000E+03  0.14175E+06
 0.12637000E+03  0.13184E+06
 0.12642001E+03  0.11782E+06
 0.12646999E+03  0.10349E+06
 0.12652000E+03  0.91488E+05
 0.12657000E+03  0.77177E+05
 0.12662000E+03  0.59544E+05
 0.12667001E+03  0.33692E+05
 0.12671999E+03 -0.10400E+04
 0.12677000E+03 -0.42386E+05
 0.12682000E+03 -0.98663E+05
 0.12687000E+03 -0.16444E+06
 0.12692001E+03 -0.22795E+06
 0.12696999E+03 -0.28700E+06
 0.12702000E+03 -0.33937E+06
 0.12707000E+03 -0.38327E+06
 0.12712000E+03 -0.41726E+06
 0.12717001E+03 -0.44720E+06
 0.12721999E+03 -0.47948E+06
 0.12727000E+03 -0.50721E+06
 0.12732000E+03 -0.52393E+06
 0.12737000E+03 -0.52986E+06
 0.12742001E+03 -0.52205E+06
 0.12746999E+03 -0.50125E+06
 0.12752000E+03 -0.47734E+06
 0.12757000E+03 -0.45570E+06
 0.12762000E+03 -0.43635E+06
 0.12767001E+03 -0.42572E+06
 0.12771999E+03 -0.42413E+06
 0.12777000E+03 -0.42288E+06
 0.12782000E+03 -0.42137E+06
 0.12787000E+03 -0.41697E+06
 0.12792001E+03 -0.40453E+06
 0.12796999E+03 -0.38018E+06
 0.12802000E+03 -0.33720E+06
 0.12807001E+03 -0.27849E+06
 0.12812001E+03 -0.21482E+06
 0.12817001E+03 -0.15761E+06
 0.12822000E+03 -0.10952E+06
 0.12827000E+03 -0.68682E+05
 0.12832001E+03 -0.40551E+05
 0.12837001E+03 -0.20194E+05
 0.12842001E+03 -0.14850E+04
 0.12847000E+03  0.23003E+05
 0.12852000E+03  0.62816E+05
 0.12857001E+03  0.10453E+06
 0.12862001E+03  0.14220E+06
 0.12867001E+03  0.17721E+06
 0.12872000E+03  0.20347E+06
 0.12877000E+03  0.22276E+06
 0.12882001E+03  0.23701E+06
 0.12887001E+03  0.25094E+06
 0.12892001E+03  0.26644E+06
 0.12897000E+03  0.27891E+06
 0.12902000E+03  0.28694E+06
 0.12907001E+03  0.29631E+06
 0.12912001E+03  0.30925E+06
 0.12917001E+03  0.31708E+06
 0.12922000E+03  0.31892E+06
 0.12927000E+03  0.31896E+06
 0.12932001E+03  0.32112E+06
 0.12937001E+03  0.33043E+06
 0.12942001E+03  0.34722E+06
 0.12947000E+03  0.37403E+06
 0.12952000E+03  0.40709E+06
 0.12957001E+03  0.43482E+06
 0.12962001E+03  0.44894E+06
 0.12967001E+03  0.43876E+06
 0.12972000E+03  0.40069E+06
 0.12977000E+03  0.34072E+06
 0.12982001E+03  0.26683E+06
 0.12987001E+03  0.19651E+06
 0.12992001E+03  0.14269E+06
 0.12997000E+03  0.10469E+06
 0.13002000E+03  0.80477E+05
 0.13007001E+03  0.66401E+05
 0.13012001E+03  0.61906E+05
 0.13017001E+03  0.66294E+05
 0.13022000E+03  0.79126E+05
 0.13027000E+03  0.10525E+06
 0.13032001E+03  0.13653E+06
 0.13037001E+03  0.17040E+06
 0.13042001E+03  0.21147E+06
 0.13047000E+03  0.24623E+06
 0.13052000E+03  0.26469E+06
 0.13057001E+03  0.26831E+06
 0.13062001E+03  0.26413E+06
 0.13067001E+03  0.25659E+06
 0.13072000E+03  0.23886E+06
 0.13077000E+03  0.20459E+06
 0.13082001E+03  0.16179E+06
 0.13087001E+03  0.12314E+06
 0.13092001E+03  0.89160E+05
 0.13097000E+03  0.58895E+05
 0.13102000E+03  0.30604E+05
 0.13107001E+03  0.53800E+03
 0.13112001E+03 -0.29982E+05
 0.13117001E+03 -0.57299E+05
 0.13122000E+03 -0.74263E+05
 0.13127000E+03 -0.79825E+05
 0.13132001E+03 -0.83704E+05
 0.13137001E+03 -0.92507E+05
 0.13142001E+03 -0.11090E+06
 0.13147000E+03 -0.14192E+06
 0.13152000E+03 -0.18451E+06
 0.13157001E+03 -0.23980E+06
 0.13162001E+03 -0.29481E+06
 0.13167001E+03 -0.33553E+06
 0.13172000E+03 -0.36128E+06
 0.13177000E+03 -0.36669E+06
 0.13182001E+03 -0.35822E+06
 0.13187001E+03 -0.34641E+06
 0.13192001E+03 -0.33210E+06
 0.13197000E+03 -0.32059E+06
 0.13202000E+03 -0.31950E+06
 0.13207001E+03 -0.33187E+06
 0.13212001E+03 -0.34818E+06
 0.13217001E+03 -0.35842E+06
 0.13222000E+03 -0.35946E+06
 0.13227000E+03 -0.35289E+06
 0.13232001E+03 -0.34424E+06
 0.13237001E+03 -0.32908E+06
 0.13242001E+03 -0.30834E+06
 0.13247000E+03 -0.28947E+06
 0.13252000E+03 -0.27309E+06
 0.13257001E+03 -0.25950E+06
 0.13262001E+03 -0.24336E+06
 0.13267001E+03 -0.22611E+06
 0.13272000E+03 -0.20908E+06
 0.13277000E+03 -0.18147E+06
 0.13282001E+03 -0.14452E+06
 0.13287001E+03 -0.10326E+06
 0.13292001E+03 -0.62644E+05
 0.13297000E+03 -0.30976E+05
 0.13302000E+03 -0.24890E+04
 0.13307001E+03  0.22887E+05
 0.13312001E+03  0.40502E+05
 0.13317001E+03  0.54442E+05
 0.13322000E+03  0.60564E+05
 0.13327000E+03  0.62195E+05
 0.13332001E+03  0.66407E+05
 0.13337001E+03  0.73616E+05
 0.13342001E+03  0.88444E+05
 0.13347000E+03  0.10732E+06
 0.13352000E+03  0.12848E+06
 0.13357001E+03  0.14955E+06
 0.13362001E+03  0.16439E+06
 0.13367001E+03  0.17788E+06
 0.13372000E+03  0.18930E+06
 0.13377000E+03  0.19721E+06
 0.13382001E+03  0.19860E+06
 0.13387001E+03  0.18233E+06
 0.13392001E+03  0.14931E+06
 0.13397000E+03  0.10599E+06
 0.13402000E+03  0.52952E+05
 0.13407001E+03 -0.55570E+04
 0.13412001E+03 -0.59718E+05
 0.13417001E+03 -0.10295E+06
 0.13422000E+03 -0.13602E+06
 0.13427000E+03 -0.16112E+06
 0.13432001E+03 -0.17249E+06
 0.13437001E+03 -0.16822E+06
 0.13442001E+03 -0.15701E+06
 0.13447000E+03 -0.14263E+06
 0.13452000E+03 -0.12885E+06
 0.13457001E+03 -0.11920E+06
 0.13462001E+03 -0.11236E+06
 0.13467001E+03 -0.11248E+06
 0.13472000E+03 -0.12067E+06
 0.13477000E+03 -0.13417E+06
 0.13482001E+03 -0.14982E+06
 0.13487001E+03 -0.15884E+06
 0.13492001E+03 -0.15501E+06
 0.13497000E+03 -0.13976E+06
 0.13502000E+03 -0.12246E+06
 0.13507001E+03 -0.10981E+06
 0.13512001E+03 -0.98765E+05
 0.13517001E+03 -0.82451E+05
 0.13522000E+03 -0.63688E+05
 0.13527000E+03 -0.50197E+05
 0.13532001E+03 -0.39233E+05
 0.13537001E+03 -0.29190E+05
 0.13542001E+03 -0.22399E+05
 0.13547000E+03 -0.22186E+05
 0.13552000E+03 -0.24310E+05
 0.13557001E+03 -0.19749E+05
 0.13562001E+03 -0.98730E+04
 0.13567001E+03  0.62940E+04
 0.13572000E+03  0.25787E+05
 0.13577000E+03  0.41224E+05
 0.13582001E+03  0.53311E+05
 0.13587001E+03  0.56964E+05
 0.13592001E+03  0.49569E+05
 0.13597000E+03  0.31694E+05
 0.13602000E+03  0.37460E+04
 0.13607001E+03 -0.25535E+05
 0.13612001E+03 -0.55354E+05
 0.13617001E+03 -0.85813E+05
 0.13622000E+03 -0.11139E+06
 0.13627000E+03 -0.13111E+06
 0.13632001E+03 -0.14439E+06
 0.13637001E+03 -0.15494E+06
 0.13642001E+03 -0.16721E+06
 0.13647000E+03 -0.17888E+06
 0.13652000E+03 -0.18785E+06
 0.13657001E+03 -0.19320E+06
 0.13662001E+03 -0.19272E+06
 0.13667001E+03 -0.18710E+06
 0.13672000E+03 -0.17843E+06
 0.13677000E+03 -0.16953E+06
 0.13682001E+03 -0.16426E+06
 0.13687001E+03 -0.16189E+06
 0.13692001E+03 -0.15980E+06
 0.13697000E+03 -0.15402E+06
 0.13702000E+03 -0.14349E+06
 0.13707001E+03 -0.13261E+06
 0.13712001E+03 -0.12189E+06
 0.13717001E+03 -0.11182E+06
 0.13722000E+03 -0.10839E+06
 0.13727000E+03 -0.11998E+06
 0.13732001E+03 -0.14677E+06
 0.13737001E+03 -0.18165E+06
 0.13742001E+03 -0.22100E+06
 0.13747000E+03 -0.26056E+06
 0.13752000E+03 -0.29634E+06
 0.13757001E+03 -0.32713E+06
 0.13762001E+03 -0.35183E+06
 0.13767001E+03 -0.36889E+06
 0.13772000E+03 -0.37853E+06
 0.13777000E+03 -0.38158E+06
 0.13782001E+03 -0.37838E+06
 0.13787001E+03 -0.37516E+06
 0.13792001E+03 -0.37445E+06
 0.13797000E+03 -0.37218E+06
 0.13802000E+03 -0.36787E+06
 0.13807001E+03 -0.36123E+06
 0.13812001E+03 -0.35675E+06
 0.13817001E+03 -0.35315E+06
 0.13822000E+03 -0.33807E+06
 0.13827000E+03 -0.31401E+06
 0.13832001E+03 -0.28692E+06
 0.13837001E+03 -0.26027E+06
 0.13842001E+03 -0.24028E+06
 0.13847000E+03 -0.22454E+06
 0.13852000E+03 -0.21476E+06
 0.13857001E+03 -0.20736E+06
 0.13862001E+03 -0.19357E+06
 0.13867001E+03 -0.17355E+06
 0.13872000E+03 -0.14293E+06
 0.13877000E+03 -0.99897E+05
 0.13882001E+03 -0.48315E+05
 0.13887001E+03  0.87490E+04
 0.13892001E+03  0.63561E+05
 0.13897000E+03  0.11374E+06
 0.13902000E+03  0.16210E+06
 0.13907001E+03  0.20618E+06
 0.13912001E+03  0.24433E+06
 0.13917001E+03  0.27538E+06
 0.13922000E+03  0.30016E+06
 0.13927000E+03  0.32269E+06
 0.13932001E+03  0.34380E+06
 0.13937001E+03  0.36228E+06
 0.13942001E+03  0.37428E+06
 0.13947000E+03  0.37748E+06
 0.13952000E+03  0.37277E+06
 0.13957001E+03  0.36078E+06
 0.13962001E+03  0.34166E+06
 0.13967001E+03  0.31601E+06
 0.13972000E+03  0.28622E+06
 0.13977000E+03  0.25447E+06
 0.13982001E+03  0.22304E+06
 0.13987001E+03  0.18868E+06
 0.13992001E+03  0.14583E+06
 0.13997000E+03  0.96805E+05
 0.14002000E+03  0.45917E+05
 0.14007001E+03 -0.53240E+04
 0.14012001E+03 -0.59436E+05
 0.14017001E+03 -0.11330E+06
 0.14022000E+03 -0.15918E+06
 0.14027000E+03 -0.19939E+06
 0.14032001E+03 -0.23596E+06
 0.14037001E+03 -0.26876E+06
 0.14042001E+03 -0.29585E+06
 0.14047000E+03 -0.31469E+06
 0.14052000E+03 -0.33105E+06
 0.14057001E+03 -0.34248E+06
 0.14062001E+03 -0.34701E+06
 0.14067001E+03 -0.35073E+06
 0.14072000E+03 -0.35061E+06
 0.14077000E+03 -0.34776E+06
 0.14082001E+03 -0.34260E+06
 0.14087001E+03 -0.33102E+06
 0.14092001E+03 -0.31512E+06
 0.14097000E+03 -0.29115E+06
 0.14102000E+03 -0.25948E+06
 0.14107001E+03 -0.22182E+06
 0.14112001E+03 -0.17758E+06
 0.14117001E+03 -0.13421E+06
 0.14122000E+03 -0.93039E+05
 0.14127000E+03 -0.54647E+05
 0.14132001E+03 -0.23389E+05
 0.14137001E+03 -0.68400E+03
 0.14142001E+03  0.16018E+05
 0.14147000E+03  0.31328E+05
 0.14152000E+03  0.43181E+05
 0.14157001E+03  0.49977E+05
 0.14162001E+03  0.49817E+05
 0.14167001E+03  0.39942E+05
 0.14172000E+03  0.26467E+05
 0.14177000E+03  0.15251E+05
 0.14182001E+03  0.10017E+05
 0.14187001E+03  0.10750E+05
 0.14192001E+03  0.14291E+05
 0.14197000E+03  0.23197E+05
 0.14202000E+03  0.30817E+05
 0.14207001E+03  0.31309E+05
 0.14212001E+03  0.29726E+05
 0.14217001E+03  0.23284E+05
 0.14222000E+03  0.14923E+05
 0.14227000E+03  0.67960E+04
 0.14232001E+03 -0.63270E+04
 0.14237001E+03 -0.16326E+05
 0.14242001E+03 -0.18047E+05
 0.14247000E+03 -0.10943E+05
 0.14252000E+03  0.63710E+04
 0.14257001E+03  0.24855E+05
 0.14262001E+03  0.40793E+05
 0.14267001E+03  0.56301E+05
 0.14272000E+03  0.68807E+05
 0.14277000E+03  0.77299E+05
 0.14282001E+03  0.82650E+05
 0.14287001E+03  0.90489E+05
 0.14292001E+03  0.10658E+06
 0.14297000E+03  0.13011E+06
 0.14302000E+03  0.16162E+06
 0.14307001E+03  0.19924E+06
 0.14312001E+03  0.23735E+06
 0.14317001E+03  0.27377E+06
 0.14322000E+03  0.30603E+06
 0.14327000E+03  0.33674E+06
 0.14332001E+03  0.36912E+06
 0.14337001E+03  0.40139E+06
 0.14342001E+03  0.43142E+06
 0.14347000E+03  0.45198E+06
 0.14352000E+03  0.46364E+06
 0.14357001E+03  0.46914E+06
 0.14362001E+03  0.46367E+06
 0.14367001E+03  0.45008E+06
 0.14372000E+03  0.43248E+06
 0.14377000E+03  0.41739E+06
 0.14382001E+03  0.40564E+06
 0.14387001E+03  0.39121E+06
 0.14392001E+03  0.37540E+06
 0.14397000E+03  0.35415E+06
 0.14402000E+03  0.32908E+06
 0.14407001E+03  0.30069E+06
 0.14412001E+03  0.26649E+06
 0.14417001E+03  0.23479E+06
 0.14422000E+03  0.19971E+06
 0.14427000E+03  0.16055E+06
 0.14432001E+03  0.12518E+06
 0.14437001E+03  0.90718E+05
 0.14442001E+03  0.59538E+05
 0.14447000E+03  0.28454E+05
 0.14452000E+03 -0.51810E+04
 0.14457001E+03 -0.41046E+05
 0.14462001E+03 -0.82764E+05
 0.14467001E+03 -0.12414E+06
 0.14472000E+03 -0.16603E+06
 0.14477000E+03 -0.21457E+06
 0.14482001E+03 -0.26689E+06
 0.14487001E+03 -0.31963E+06
 0.14492001E+03 -0.36669E+06
 0.14497000E+03 -0.39987E+06
 0.14502000E+03 -0.41710E+06
 0.14507001E+03 -0.42068E+06
 0.14512001E+03 -0.41422E+06
 0.14517001E+03 -0.40357E+06
 0.14522000E+03 -0.39157E+06
 0.14527000E+03 -0.38158E+06
 0.14532001E+03 -0.37664E+06
 0.14537001E+03 -0.37434E+06
 0.14542001E+03 -0.37392E+06
 0.14547000E+03 -0.37266E+06
 0.14552000E+03 -0.36845E+06
 0.14557001E+03 -0.36289E+06
 0.14562001E+03 -0.35549E+06
 0.14567001E+03 -0.34603E+06
 0.14572000E+03 -0.33224E+06
 0.14577000E+03 -0.31244E+06
 0.14582001E+03 -0.29010E+06
 0.14587001E+03 -0.26678E+06
 0.14592001E+03 -0.24229E+06
 0.14597000E+03 -0.21767E+06
 0.14602000E+03 -0.19750E+06
 0.14607001E+03 -0.18797E+06
 0.14612001E+03 -0.18457E+06
 0.14617001E+03 -0.18057E+06
 0.14622000E+03 -0.17423E+06
 0.14627000E+03 -0.16344E+06
 0.14632001E+03 -0.14866E+06
 0.14637001E+03 -0.13014E+06
 0.14642001E+03 -0.10983E+06
 0.14647000E+03 -0.88374E+05
 0.14652000E+03 -0.65132E+05
 0.14657001E+03 -0.45690E+05
 0.14662001E+03 -0.32242E+05
 0.14667001E+03 -0.20272E+05
 0.14672000E+03 -0.43760E+04
 0.14677000E+03  0.16867E+05
 0.14682001E+03  0.39450E+05
 0.14687001E+03  0.58647E+05
 0.14692001E+03  0.70300E+05
 0.14697000E+03  0.74784E+05
 0.14702000E+03  0.77406E+05
 0.14707001E+03  0.81918E+05
 0.14712001E+03  0.90106E+05
 0.14717001E+03  0.10126E+06
 0.14722000E+03  0.11400E+06
 0.14727000E+03  0.12868E+06
 0.14732001E+03  0.14141E+06
 0.14737001E+03  0.14707E+06
 0.14742001E+03  0.14880E+06
 0.14747000E+03  0.15137E+06
 0.14752000E+03  0.15712E+06
 0.14757001E+03  0.16704E+06
 0.14762001E+03  0.17641E+06
 0.14767001E+03  0.18415E+06
 0.14772000E+03  0.18415E+06
 0.14777000E+03  0.16767E+06
 0.14782001E+03  0.14110E+06
 0.14787001E+03  0.10689E+06
 0.14792001E+03  0.67707E+05
 0.14797000E+03  0.30492E+05
 0.14802000E+03 -0.27870E+04
 0.14807001E+03 -0.28072E+05
 0.14812001E+03 -0.46644E+05
 0.14817001E+03 -0.61565E+05
 0.14822000E+03 -0.74744E+05
 0.14827000E+03 -0.91787E+05
 0.14832001E+03 -0.11437E+06
 0.14837001E+03 -0.14080E+06
 0.14842001E+03 -0.17108E+06
 0.14847000E+03 -0.20568E+06
 0.14852000E+03 -0.24233E+06
 0.14857001E+03 -0.27685E+06
 0.14862001E+03 -0.30700E+06
 0.14867001E+03 -0.33111E+06
 0.14872000E+03 -0.34843E+06
 0.14877000E+03 -0.35980E+06
 0.14882001E+03 -0.36522E+06
 0.14887001E+03 -0.36611E+06
 0.14892001E+03 -0.36260E+06
 0.14897000E+03 -0.35680E+06
 0.14902000E+03 -0.35166E+06
 0.14907001E+03 -0.34477E+06
 0.14912001E+03 -0.33498E+06
 0.14917001E+03 -0.32236E+06
 0.14922000E+03 -0.30875E+06
 0.14927000E+03 -0.29366E+06
 0.14932001E+03 -0.27720E+06
 0.14937001E+03 -0.26310E+06
 0.14942001E+03 -0.25046E+06
 0.14947000E+03 -0.24003E+06
 0.14952000E+03 -0.23276E+06
 0.14957001E+03 -0.22707E+06
 0.14962001E+03 -0.22018E+06
 0.14967001E+03 -0.20959E+06
 0.14972000E+03 -0.19769E+06
 0.14977000E+03 -0.18491E+06
 0.14982001E+03 -0.17135E+06
 0.14987001E+03 -0.15700E+06
 0.14992001E+03 -0.13857E+06
 0.14997000E+03 -0.11830E+06
