-0.30000000E+01  0.21956E+05
-0.29500000E+01  0.22067E+05
-0.29000001E+01  0.21359E+05
-0.28499999E+01  0.19994E+05
-0.28000000E+01  0.18113E+05
-0.27500000E+01  0.16011E+05
-0.27000000E+01  0.14143E+05
-0.26500001E+01  0.12603E+05
-0.25999999E+01  0.10975E+05
-0.25500000E+01  0.91100E+04
-0.25000000E+01  0.72520E+04
-0.24500000E+01  0.57760E+04
-0.24000001E+01  0.51370E+04
-0.23499999E+01  0.49920E+04
-0.23000000E+01  0.45930E+04
-0.22500000E+01  0.39600E+04
-0.22000000E+01  0.29460E+04
-0.21500001E+01  0.98500E+03
-0.20999999E+01 -0.18280E+04
-0.20500000E+01 -0.47590E+04
-0.20000000E+01 -0.71330E+04
-0.19499999E+01 -0.86850E+04
-0.19000000E+01 -0.92490E+04
-0.18500000E+01 -0.90780E+04
-0.18000000E+01 -0.89970E+04
-0.17500000E+01 -0.92590E+04
-0.16999999E+01 -0.95190E+04
-0.16500000E+01 -0.95380E+04
-0.16000000E+01 -0.93230E+04
-0.15500000E+01 -0.90890E+04
-0.15000000E+01 -0.87510E+04
-0.14499999E+01 -0.81140E+04
-0.14000000E+01 -0.74060E+04
-0.13500000E+01 -0.67720E+04
-0.13000000E+01 -0.62480E+04
-0.12500000E+01 -0.57890E+04
-0.11999999E+01 -0.48810E+04
-0.11500000E+01 -0.33600E+04
-0.11000000E+01 -0.19370E+04
-0.10500000E+01 -0.14060E+04
-0.10000000E+01 -0.20500E+04
-0.95000005E+00 -0.35250E+04
-0.89999986E+00 -0.49150E+04
-0.84999990E+00 -0.55400E+04
-0.79999995E+00 -0.55830E+04
-0.75000000E+00 -0.55410E+04
-0.70000005E+00 -0.57200E+04
-0.64999986E+00 -0.63850E+04
-0.59999990E+00 -0.79630E+04
-0.54999995E+00 -0.10716E+05
-0.50000000E+00 -0.14054E+05
-0.45000005E+00 -0.16706E+05
-0.39999986E+00 -0.17778E+05
-0.34999990E+00 -0.17322E+05
-0.29999995E+00 -0.16247E+05
-0.25000000E+00 -0.15610E+05
-0.20000005E+00 -0.15689E+05
-0.14999986E+00 -0.16078E+05
-0.99999905E-01 -0.15983E+05
-0.49999952E-01 -0.14599E+05
 0.00000000E+00 -0.11556E+05
 0.49999952E-01 -0.69300E+04
 0.10000014E+00 -0.15940E+04
 0.15000010E+00  0.30960E+04
 0.20000005E+00  0.63270E+04
 0.25000000E+00  0.82910E+04
 0.29999995E+00  0.95740E+04
 0.35000014E+00  0.10164E+05
 0.40000010E+00  0.10113E+05
 0.45000005E+00  0.99530E+04
 0.50000000E+00  0.98140E+04
 0.54999995E+00  0.97190E+04
 0.60000014E+00  0.97860E+04
 0.65000010E+00  0.99710E+04
 0.70000005E+00  0.10264E+05
 0.75000000E+00  0.10654E+05
 0.79999995E+00  0.11270E+05
 0.85000014E+00  0.12085E+05
 0.90000010E+00  0.12638E+05
 0.95000005E+00  0.12712E+05
 0.10000000E+01  0.12490E+05
 0.10500002E+01  0.12068E+05
 0.10999999E+01  0.11450E+05
 0.11500001E+01  0.10894E+05
 0.12000003E+01  0.10775E+05
 0.12500000E+01  0.11218E+05
 0.13000002E+01  0.11966E+05
 0.13499999E+01  0.12502E+05
 0.14000001E+01  0.12607E+05
 0.14500003E+01  0.12302E+05
 0.15000000E+01  0.11401E+05
 0.15500002E+01  0.10021E+05
 0.15999999E+01  0.85480E+04
 0.16500001E+01  0.69630E+04
 0.17000003E+01  0.50440E+04
 0.17500000E+01  0.26700E+04
 0.18000002E+01  0.20000E+02
 0.18499999E+01 -0.23550E+04
 0.19000001E+01 -0.40000E+04
 0.19500003E+01 -0.47460E+04
 0.20000000E+01 -0.48020E+04
 0.20500002E+01 -0.45650E+04
 0.20999999E+01 -0.40530E+04
 0.21500001E+01 -0.33930E+04
 0.22000003E+01 -0.30410E+04
 0.22500000E+01 -0.32540E+04
 0.23000002E+01 -0.41140E+04
 0.23499999E+01 -0.54560E+04
 0.24000001E+01 -0.68210E+04
 0.24500003E+01 -0.78120E+04
 0.25000000E+01 -0.83100E+04
 0.25500002E+01 -0.84790E+04
 0.25999999E+01 -0.84750E+04
 0.26500001E+01 -0.85550E+04
 0.27000003E+01 -0.91400E+04
 0.27500000E+01 -0.10145E+05
 0.28000002E+01 -0.11173E+05
 0.28499999E+01 -0.12011E+05
 0.29000001E+01 -0.12534E+05
 0.29500003E+01 -0.12629E+05
 0.30000000E+01 -0.12219E+05
 0.30500002E+01 -0.11576E+05
 0.30999999E+01 -0.10972E+05
 0.31500001E+01 -0.10125E+05
 0.32000003E+01 -0.86680E+04
 0.32500000E+01 -0.63440E+04
 0.33000002E+01 -0.31290E+04
 0.33499999E+01  0.57000E+03
 0.34000001E+01  0.43310E+04
 0.34500003E+01  0.78020E+04
 0.35000000E+01  0.10767E+05
 0.35500002E+01  0.13328E+05
 0.35999999E+01  0.15651E+05
 0.36500001E+01  0.17672E+05
 0.37000003E+01  0.19308E+05
 0.37500000E+01  0.21051E+05
 0.38000002E+01  0.23318E+05
 0.38499999E+01  0.25517E+05
 0.39000001E+01  0.26818E+05
 0.39500003E+01  0.26725E+05
 0.40000000E+01  0.24901E+05
 0.40500002E+01  0.21687E+05
 0.40999999E+01  0.18107E+05
 0.41500001E+01  0.14908E+05
 0.42000003E+01  0.12142E+05
 0.42500000E+01  0.95070E+04
 0.43000002E+01  0.69420E+04
 0.43499999E+01  0.45940E+04
 0.44000001E+01  0.24480E+04
 0.44500003E+01  0.67100E+03
 0.45000000E+01 -0.58400E+03
 0.45500002E+01 -0.14690E+04
 0.45999999E+01 -0.18820E+04
 0.46500001E+01 -0.17870E+04
 0.47000003E+01 -0.17290E+04
 0.47500000E+01 -0.22500E+04
 0.48000002E+01 -0.34120E+04
 0.48499999E+01 -0.49610E+04
 0.49000001E+01 -0.65650E+04
 0.49500003E+01 -0.80010E+04
 0.50000000E+01 -0.92430E+04
 0.50500002E+01 -0.10217E+05
 0.51000004E+01 -0.10981E+05
 0.51500006E+01 -0.11639E+05
 0.51999998E+01 -0.11906E+05
 0.52500000E+01 -0.11941E+05
 0.53000002E+01 -0.12366E+05
 0.53500004E+01 -0.13443E+05
 0.54000006E+01 -0.15257E+05
 0.54499998E+01 -0.17499E+05
 0.55000000E+01 -0.19389E+05
 0.55500002E+01 -0.20500E+05
 0.56000004E+01 -0.21135E+05
 0.56500006E+01 -0.21691E+05
 0.56999998E+01 -0.22229E+05
 0.57500000E+01 -0.22752E+05
 0.58000002E+01 -0.23103E+05
 0.58500004E+01 -0.23035E+05
 0.59000006E+01 -0.22640E+05
 0.59499998E+01 -0.21868E+05
 0.60000000E+01 -0.20211E+05
 0.60500002E+01 -0.17473E+05
 0.61000004E+01 -0.14014E+05
 0.61500006E+01 -0.10611E+05
 0.61999998E+01 -0.80270E+04
 0.62500000E+01 -0.60670E+04
 0.63000002E+01 -0.39420E+04
 0.63500004E+01 -0.12530E+04
 0.64000006E+01  0.18180E+04
 0.64499998E+01  0.47640E+04
 0.65000000E+01  0.72680E+04
 0.65500002E+01  0.93560E+04
 0.66000004E+01  0.11078E+05
 0.66500006E+01  0.12390E+05
 0.66999998E+01  0.13345E+05
 0.67500000E+01  0.14111E+05
 0.68000002E+01  0.14794E+05
 0.68500004E+01  0.15404E+05
 0.69000006E+01  0.16039E+05
 0.69499998E+01  0.16925E+05
 0.70000000E+01  0.17929E+05
 0.70500002E+01  0.18558E+05
 0.71000004E+01  0.18629E+05
 0.71500006E+01  0.18260E+05
 0.71999998E+01  0.17577E+05
 0.72500000E+01  0.16740E+05
 0.73000002E+01  0.15886E+05
 0.73500004E+01  0.15000E+05
 0.74000006E+01  0.13980E+05
 0.74499998E+01  0.12772E+05
 0.75000000E+01  0.11500E+05
 0.75500002E+01  0.10666E+05
 0.76000004E+01  0.10775E+05
 0.76500006E+01  0.11843E+05
 0.76999998E+01  0.13312E+05
 0.77500000E+01  0.14356E+05
 0.78000002E+01  0.14720E+05
 0.78500004E+01  0.14394E+05
 0.79000006E+01  0.13104E+05
 0.79499998E+01  0.10994E+05
 0.80000000E+01  0.84710E+04
 0.80500002E+01  0.58890E+04
 0.81000004E+01  0.35150E+04
 0.81500006E+01  0.10900E+04
 0.81999998E+01 -0.16910E+04
 0.82500000E+01 -0.47290E+04
 0.83000002E+01 -0.77590E+04
 0.83500004E+01 -0.10363E+05
 0.84000006E+01 -0.11997E+05
 0.84499998E+01 -0.12356E+05
 0.85000000E+01 -0.11816E+05
 0.85500002E+01 -0.10899E+05
 0.86000004E+01 -0.95530E+04
 0.86500006E+01 -0.74250E+04
 0.86999998E+01 -0.43790E+04
 0.87500000E+01 -0.10840E+04
 0.88000002E+01  0.13000E+04
 0.88500004E+01  0.22260E+04
 0.89000006E+01  0.17530E+04
 0.89499998E+01 -0.50000E+01
 0.90000000E+01 -0.27940E+04
 0.90500002E+01 -0.60890E+04
 0.91000004E+01 -0.96850E+04
 0.91500006E+01 -0.13355E+05
 0.91999998E+01 -0.16167E+05
 0.92500000E+01 -0.17688E+05
 0.93000002E+01 -0.18464E+05
 0.93500004E+01 -0.18964E+05
 0.94000006E+01 -0.19199E+05
 0.94499998E+01 -0.18695E+05
 0.95000000E+01 -0.17105E+05
 0.95500002E+01 -0.14846E+05
 0.96000004E+01 -0.12442E+05
 0.96500006E+01 -0.10313E+05
 0.96999998E+01 -0.86460E+04
 0.97500000E+01 -0.69430E+04
 0.98000002E+01 -0.45110E+04
 0.98500004E+01 -0.91200E+03
 0.99000006E+01  0.37440E+04
 0.99499998E+01  0.87060E+04
 0.10000000E+02  0.13145E+05
 0.10050000E+02  0.16552E+05
 0.10100000E+02  0.18819E+05
 0.10150001E+02  0.19911E+05
 0.10200000E+02  0.19778E+05
 0.10250000E+02  0.18699E+05
 0.10300000E+02  0.17184E+05
 0.10350000E+02  0.15661E+05
 0.10400001E+02  0.14151E+05
 0.10450000E+02  0.12450E+05
 0.10500000E+02  0.10591E+05
 0.10550000E+02  0.88530E+04
 0.10600000E+02  0.75690E+04
 0.10650001E+02  0.68010E+04
 0.10700000E+02  0.59910E+04
 0.10750000E+02  0.43290E+04
 0.10800000E+02  0.16510E+04
 0.10850000E+02 -0.15620E+04
 0.10900001E+02 -0.48350E+04
 0.10950000E+02 -0.78670E+04
 0.11000000E+02 -0.10320E+05
 0.11050000E+02 -0.12045E+05
 0.11100000E+02 -0.13279E+05
 0.11150001E+02 -0.14162E+05
 0.11200000E+02 -0.14712E+05
 0.11250000E+02 -0.15062E+05
 0.11300000E+02 -0.15448E+05
 0.11350000E+02 -0.16130E+05
 0.11400001E+02 -0.17007E+05
 0.11450000E+02 -0.17609E+05
 0.11500000E+02 -0.17634E+05
 0.11550000E+02 -0.17138E+05
 0.11600000E+02 -0.16277E+05
 0.11650001E+02 -0.15073E+05
 0.11700000E+02 -0.13467E+05
 0.11750000E+02 -0.11418E+05
 0.11800000E+02 -0.89210E+04
 0.11850000E+02 -0.59700E+04
 0.11900001E+02 -0.26720E+04
 0.11950000E+02  0.64700E+03
 0.12000000E+02  0.36120E+04
 0.12050000E+02  0.59460E+04
 0.12100000E+02  0.77610E+04
 0.12150001E+02  0.95870E+04
 0.12200000E+02  0.11578E+05
 0.12250000E+02  0.13433E+05
 0.12300000E+02  0.15087E+05
 0.12350000E+02  0.16657E+05
 0.12400001E+02  0.18102E+05
 0.12450000E+02  0.19064E+05
 0.12500000E+02  0.19247E+05
 0.12550000E+02  0.19040E+05
 0.12600000E+02  0.18748E+05
 0.12650001E+02  0.18062E+05
 0.12700000E+02  0.16826E+05
 0.12750000E+02  0.15150E+05
 0.12800000E+02  0.13259E+05
 0.12850000E+02  0.11346E+05
 0.12900001E+02  0.91760E+04
 0.12950000E+02  0.65870E+04
 0.13000000E+02  0.39120E+04
 0.13050001E+02  0.15080E+04
 0.13100000E+02 -0.39600E+03
 0.13150000E+02 -0.17270E+04
 0.13200001E+02 -0.26540E+04
 0.13250000E+02 -0.34550E+04
 0.13300001E+02 -0.41540E+04
 0.13350000E+02 -0.43460E+04
 0.13400000E+02 -0.37450E+04
 0.13450001E+02 -0.24980E+04
 0.13500000E+02 -0.91500E+03
 0.13550001E+02  0.86100E+03
 0.13600000E+02  0.28900E+04
 0.13650000E+02  0.49810E+04
 0.13700001E+02  0.67550E+04
 0.13750000E+02  0.79690E+04
 0.13800001E+02  0.84190E+04
 0.13850000E+02  0.80040E+04
 0.13900000E+02  0.68670E+04
 0.13950001E+02  0.52080E+04
 0.14000000E+02  0.31110E+04
 0.14050001E+02  0.61000E+03
 0.14100000E+02 -0.21920E+04
 0.14150000E+02 -0.49470E+04
 0.14200001E+02 -0.71850E+04
 0.14250000E+02 -0.86330E+04
 0.14300001E+02 -0.92080E+04
 0.14350000E+02 -0.91950E+04
 0.14400000E+02 -0.91430E+04
 0.14450001E+02 -0.91660E+04
 0.14500000E+02 -0.89050E+04
 0.14550001E+02 -0.81760E+04
 0.14600000E+02 -0.70270E+04
 0.14650000E+02 -0.53910E+04
 0.14700001E+02 -0.31850E+04
 0.14750000E+02 -0.65900E+03
 0.14800001E+02  0.16090E+04
 0.14850000E+02  0.31230E+04
 0.14900000E+02  0.39040E+04
 0.14950001E+02  0.42670E+04
 0.15000000E+02  0.40900E+04
 0.15050001E+02  0.34500E+04
 0.15100000E+02  0.27200E+04
 0.15150000E+02  0.19500E+04
 0.15200001E+02  0.14910E+04
 0.15250000E+02  0.11010E+04
 0.15300001E+02  0.57800E+03
 0.15350000E+02 -0.13900E+03
 0.15400000E+02 -0.19530E+04
 0.15450001E+02 -0.13764E+05
 0.15500000E+02 -0.51015E+05
 0.15550001E+02 -0.10710E+06
 0.15600000E+02 -0.16689E+06
 0.15650000E+02 -0.21446E+06
 0.15700001E+02 -0.22162E+06
 0.15750000E+02 -0.21198E+06
 0.15800001E+02 -0.21320E+06
 0.15850000E+02 -0.17079E+06
 0.15900000E+02 -0.71234E+05
 0.15950001E+02  0.10935E+05
 0.16000000E+02  0.36834E+05
 0.16050001E+02 -0.68470E+04
 0.16100000E+02 -0.12713E+06
 0.16150000E+02 -0.27283E+06
 0.16200001E+02 -0.45285E+06
 0.16250000E+02 -0.74629E+06
 0.16300001E+02 -0.10128E+07
 0.16350000E+02 -0.99271E+06
 0.16400000E+02 -0.87453E+06
 0.16450001E+02 -0.98630E+06
 0.16500000E+02 -0.10960E+07
 0.16550001E+02 -0.89124E+06
 0.16600000E+02 -0.41738E+06
 0.16650000E+02  0.12020E+06
 0.16700001E+02  0.37766E+06
 0.16750000E+02  0.21145E+06
 0.16800001E+02 -0.50147E+05
 0.16850000E+02  0.11992E+06
 0.16900000E+02  0.74220E+06
 0.16950001E+02  0.99812E+06
 0.17000000E+02  0.70185E+06
 0.17050001E+02  0.41545E+06
 0.17100000E+02  0.14106E+06
 0.17150000E+02  0.19399E+06
 0.17200001E+02  0.75561E+06
 0.17250000E+02  0.83821E+06
 0.17300001E+02  0.19280E+06
 0.17350000E+02 -0.20467E+06
 0.17400000E+02 -0.15489E+06
 0.17450001E+02 -0.11316E+06
 0.17500000E+02 -0.10103E+05
 0.17550001E+02 -0.75849E+05
 0.17600000E+02 -0.42602E+06
 0.17650000E+02 -0.54623E+06
 0.17700001E+02 -0.48738E+06
 0.17750000E+02 -0.28547E+06
 0.17800001E+02 -0.10847E+06
 0.17850000E+02 -0.29768E+06
 0.17900000E+02 -0.44635E+06
 0.17950001E+02 -0.47175E+06
 0.18000000E+02 -0.20129E+06
 0.18050001E+02  0.22446E+06
 0.18100000E+02 -0.12917E+06
 0.18150000E+02 -0.63830E+06
 0.18200001E+02 -0.43729E+06
 0.18250000E+02 -0.70035E+05
 0.18300001E+02 -0.92112E+05
 0.18350000E+02 -0.43221E+06
 0.18400000E+02 -0.63372E+06
 0.18450001E+02 -0.62004E+06
 0.18500000E+02 -0.39365E+06
 0.18550001E+02 -0.10000E+06
 0.18600000E+02 -0.41573E+05
 0.18650000E+02  0.78817E+05
 0.18700001E+02  0.13111E+06
 0.18750000E+02  0.12615E+05
 0.18800001E+02  0.78810E+05
 0.18850000E+02  0.23316E+06
 0.18900000E+02  0.25389E+06
 0.18950001E+02 -0.23399E+05
 0.19000000E+02 -0.16845E+06
 0.19050001E+02 -0.18240E+05
 0.19100000E+02  0.21765E+05
 0.19150000E+02  0.20022E+06
 0.19200001E+02  0.46783E+06
 0.19250000E+02  0.55461E+06
 0.19300001E+02  0.65465E+06
 0.19350000E+02  0.80972E+06
 0.19400000E+02  0.70003E+06
 0.19450001E+02  0.35467E+06
 0.19500000E+02  0.72138E+05
 0.19550001E+02 -0.81004E+05
 0.19600000E+02  0.22145E+06
 0.19650000E+02  0.37328E+06
 0.19700001E+02 -0.91917E+05
 0.19750000E+02 -0.35914E+06
 0.19800001E+02 -0.47898E+06
 0.19850000E+02 -0.45635E+06
 0.19900000E+02 -0.22783E+06
 0.19950001E+02 -0.33128E+06
 0.20000000E+02 -0.56483E+06
 0.20050001E+02 -0.73354E+06
 0.20100000E+02 -0.85746E+06
 0.20150000E+02 -0.69949E+06
 0.20200001E+02 -0.39941E+06
 0.20250000E+02 -0.80096E+05
 0.20300001E+02  0.12871E+06
 0.20350000E+02  0.65144E+05
 0.20400000E+02 -0.67340E+05
 0.20450001E+02 -0.31460E+06
 0.20500000E+02 -0.42604E+06
 0.20550001E+02 -0.27871E+06
 0.20600000E+02 -0.25301E+06
 0.20650000E+02 -0.32303E+06
 0.20700001E+02 -0.70555E+06
 0.20750000E+02 -0.11606E+07
 0.20800001E+02 -0.10366E+07
 0.20850000E+02 -0.54326E+06
 0.20900000E+02  0.82057E+05
 0.20950001E+02  0.46294E+06
 0.21000000E+02  0.13179E+06
 0.21050001E+02 -0.30292E+06
 0.21100000E+02 -0.19446E+06
 0.21150000E+02  0.36355E+06
 0.21200001E+02  0.89934E+06
 0.21250000E+02  0.84339E+06
 0.21300001E+02  0.56690E+06
 0.21350000E+02  0.55920E+06
 0.21400000E+02  0.52798E+06
 0.21450001E+02  0.37965E+06
 0.21500000E+02  0.26563E+06
 0.21550001E+02  0.41010E+06
 0.21600000E+02  0.44972E+06
 0.21650000E+02 -0.74160E+05
 0.21700001E+02 -0.49706E+06
 0.21750000E+02 -0.77392E+06
 0.21800001E+02 -0.10462E+07
 0.21850000E+02 -0.82685E+06
 0.21900000E+02 -0.55352E+06
 0.21950001E+02 -0.38027E+06
 0.22000000E+02 -0.14426E+06
 0.22050001E+02 -0.17808E+06
 0.22100000E+02 -0.41240E+06
 0.22150000E+02 -0.76670E+06
 0.22200001E+02 -0.94201E+06
 0.22250000E+02 -0.57570E+06
 0.22300001E+02 -0.20630E+06
 0.22350000E+02 -0.33944E+06
 0.22400000E+02 -0.50050E+06
 0.22450001E+02 -0.32463E+06
 0.22500000E+02 -0.29553E+06
 0.22550001E+02 -0.16246E+06
 0.22600000E+02  0.39716E+06
 0.22650000E+02  0.44469E+06
 0.22700001E+02 -0.97617E+05
 0.22750000E+02 -0.45557E+06
 0.22800001E+02 -0.39257E+06
 0.22850000E+02  0.12698E+05
 0.22900000E+02  0.28013E+06
 0.22950001E+02  0.28002E+06
 0.23000000E+02  0.38109E+06
 0.23050001E+02  0.60768E+06
 0.23100000E+02  0.93758E+06
 0.23150000E+02  0.11782E+07
 0.23200001E+02  0.12441E+07
 0.23250000E+02  0.13155E+07
 0.23300001E+02  0.98556E+06
 0.23350000E+02  0.28840E+06
 0.23400000E+02 -0.70470E+05
 0.23450001E+02 -0.10976E+06
 0.23500000E+02 -0.49373E+05
 0.23550001E+02  0.16975E+06
 0.23600000E+02  0.16828E+06
 0.23650000E+02 -0.12396E+06
 0.23700001E+02 -0.23499E+06
 0.23750000E+02 -0.20070E+06
 0.23800001E+02 -0.40482E+05
 0.23850000E+02  0.20446E+06
 0.23900000E+02  0.26531E+06
 0.23950001E+02  0.26905E+06
 0.24000000E+02  0.23689E+06
 0.24050001E+02  0.21337E+06
 0.24100000E+02  0.52071E+06
 0.24150000E+02  0.87472E+06
 0.24200001E+02  0.81141E+06
 0.24250000E+02  0.58831E+06
 0.24300001E+02  0.36547E+06
 0.24350000E+02  0.14653E+06
 0.24400000E+02  0.16480E+06
 0.24450001E+02  0.24350E+06
 0.24500000E+02  0.16431E+06
 0.24550001E+02 -0.42034E+05
 0.24600000E+02 -0.21534E+06
 0.24650000E+02 -0.17378E+06
 0.24700001E+02 -0.20744E+06
 0.24750000E+02 -0.48481E+06
 0.24800001E+02 -0.39566E+06
 0.24850000E+02  0.32247E+06
 0.24900000E+02  0.96912E+06
 0.24950001E+02  0.13153E+07
 0.25000000E+02  0.14889E+07
 0.25050001E+02  0.13127E+07
 0.25100000E+02  0.10405E+07
 0.25150000E+02  0.81772E+06
 0.25200001E+02  0.39208E+06
 0.25250000E+02 -0.82364E+05
 0.25300001E+02 -0.24183E+05
 0.25350000E+02  0.34629E+06
 0.25400000E+02  0.35131E+06
 0.25450001E+02  0.28452E+06
 0.25500000E+02  0.13878E+06
 0.25550001E+02 -0.12252E+06
 0.25600000E+02  0.20701E+06
 0.25650000E+02  0.47960E+06
 0.25700001E+02 -0.16272E+06
 0.25750000E+02 -0.96436E+06
 0.25800001E+02 -0.15446E+07
 0.25850000E+02 -0.18604E+07
 0.25900000E+02 -0.15316E+07
 0.25950001E+02 -0.72348E+06
 0.26000000E+02 -0.46502E+05
 0.26050001E+02 -0.22633E+06
 0.26100000E+02 -0.73740E+06
 0.26150000E+02 -0.60420E+06
 0.26200001E+02  0.14939E+06
 0.26250000E+02  0.89860E+06
 0.26300001E+02  0.89613E+06
 0.26350000E+02  0.61489E+06
 0.26400000E+02  0.51372E+06
 0.26450001E+02  0.68133E+06
 0.26500000E+02  0.10068E+07
 0.26550001E+02  0.32839E+06
 0.26600000E+02 -0.10924E+07
 0.26650000E+02 -0.19502E+07
 0.26700001E+02 -0.18964E+07
 0.26750000E+02 -0.10739E+07
 0.26800001E+02 -0.11692E+06
 0.26850000E+02  0.23636E+06
 0.26900000E+02 -0.36719E+06
 0.26950001E+02 -0.12841E+07
 0.27000000E+02 -0.11165E+07
 0.27050001E+02  0.98341E+05
 0.27100000E+02  0.13393E+07
 0.27150000E+02  0.18738E+07
 0.27200001E+02  0.12494E+07
 0.27250000E+02  0.81031E+06
 0.27300001E+02  0.16116E+07
 0.27350000E+02  0.23797E+07
 0.27400000E+02  0.24777E+07
 0.27450001E+02  0.20459E+07
 0.27500000E+02  0.85544E+06
 0.27550001E+02 -0.61154E+06
 0.27600000E+02 -0.15220E+07
 0.27650000E+02 -0.15941E+07
 0.27700001E+02 -0.75905E+06
 0.27750000E+02  0.64651E+05
 0.27800001E+02 -0.46442E+06
 0.27850000E+02 -0.12978E+07
 0.27900000E+02 -0.94285E+06
 0.27950001E+02  0.27964E+06
 0.28000000E+02  0.17566E+07
 0.28050001E+02  0.22353E+07
 0.28100000E+02  0.86574E+06
 0.28150000E+02 -0.63697E+06
 0.28200001E+02 -0.37944E+06
 0.28250000E+02  0.87088E+06
 0.28300001E+02  0.13719E+07
 0.28350000E+02  0.65484E+06
 0.28400000E+02 -0.87437E+06
 0.28450001E+02 -0.18836E+07
 0.28500000E+02 -0.13419E+07
 0.28550001E+02 -0.32805E+06
 0.28600000E+02  0.16916E+06
 0.28650000E+02  0.13860E+06
 0.28700001E+02 -0.42202E+06
 0.28750000E+02 -0.64679E+06
 0.28800001E+02 -0.51023E+05
 0.28850000E+02  0.55625E+06
 0.28900000E+02  0.89038E+06
 0.28950001E+02  0.11400E+07
 0.29000000E+02  0.13646E+07
 0.29049999E+02  0.16699E+07
 0.29100002E+02  0.17373E+07
 0.29150002E+02  0.16476E+07
 0.29200001E+02  0.19860E+07
 0.29250000E+02  0.26615E+07
 0.29299999E+02  0.31309E+07
 0.29350002E+02  0.26212E+07
 0.29400002E+02  0.11810E+07
 0.29450001E+02 -0.40139E+06
 0.29500000E+02 -0.16080E+07
 0.29549999E+02 -0.15350E+07
 0.29600002E+02 -0.28854E+06
 0.29650002E+02  0.81606E+06
 0.29700001E+02  0.14246E+07
 0.29750000E+02  0.18561E+07
 0.29799999E+02  0.21202E+07
 0.29850002E+02  0.20414E+07
 0.29900002E+02  0.16816E+07
 0.29950001E+02  0.13581E+07
 0.30000000E+02  0.12602E+07
 0.30049999E+02  0.12333E+07
 0.30100002E+02  0.99736E+06
 0.30150002E+02  0.64461E+06
 0.30200001E+02  0.60842E+06
 0.30250000E+02  0.63159E+06
 0.30299999E+02  0.21272E+05
 0.30350002E+02 -0.79464E+06
 0.30400002E+02 -0.11851E+07
 0.30450001E+02 -0.13492E+07
 0.30500000E+02 -0.11416E+07
 0.30549999E+02 -0.28572E+06
 0.30600002E+02  0.52794E+06
 0.30650002E+02  0.58962E+06
 0.30700001E+02  0.51204E+05
 0.30750000E+02 -0.62717E+06
 0.30799999E+02 -0.10210E+07
 0.30850002E+02 -0.11674E+07
 0.30900002E+02 -0.12387E+07
 0.30950001E+02 -0.92208E+06
 0.31000000E+02 -0.35382E+06
 0.31049999E+02 -0.22844E+06
 0.31100002E+02 -0.71279E+06
 0.31150002E+02 -0.12528E+07
 0.31200001E+02 -0.11553E+07
 0.31250000E+02 -0.19642E+06
 0.31299999E+02  0.10804E+07
 0.31350002E+02  0.17893E+07
 0.31400002E+02  0.16529E+07
 0.31450001E+02  0.89094E+06
 0.31500000E+02  0.16061E+05
 0.31549999E+02 -0.22267E+06
 0.31600002E+02  0.85635E+05
 0.31650002E+02  0.27313E+06
 0.31700001E+02  0.26188E+06
 0.31750000E+02  0.21252E+06
 0.31799999E+02  0.26057E+06
 0.31850002E+02  0.76927E+06
 0.31900002E+02  0.13493E+07
 0.31950001E+02  0.13118E+07
 0.32000000E+02  0.91862E+06
 0.32049999E+02  0.33714E+06
 0.32100002E+02 -0.55540E+06
 0.32150002E+02 -0.14293E+07
 0.32200001E+02 -0.17690E+07
 0.32250000E+02 -0.15701E+07
 0.32299999E+02 -0.14070E+07
 0.32350002E+02 -0.14582E+07
 0.32400002E+02 -0.13565E+07
 0.32450001E+02 -0.97377E+06
 0.32500000E+02 -0.55504E+06
 0.32549999E+02 -0.47259E+06
 0.32600002E+02 -0.76963E+06
 0.32650002E+02 -0.88739E+06
 0.32700001E+02 -0.55523E+06
 0.32750000E+02 -0.11014E+06
 0.32799999E+02  0.13532E+06
 0.32850002E+02  0.12161E+06
 0.32900002E+02 -0.39224E+05
 0.32950001E+02 -0.30126E+06
 0.33000000E+02 -0.55997E+06
 0.33049999E+02 -0.74272E+06
 0.33100002E+02 -0.97109E+06
 0.33150002E+02 -0.11926E+07
 0.33200001E+02 -0.12671E+07
 0.33250000E+02 -0.11366E+07
 0.33299999E+02 -0.76296E+06
 0.33350002E+02 -0.26239E+06
 0.33400002E+02  0.13001E+06
 0.33450001E+02  0.21514E+06
 0.33500000E+02  0.17452E+05
 0.33549999E+02 -0.10378E+06
 0.33600002E+02 -0.14432E+05
 0.33650002E+02 -0.13822E+06
 0.33700001E+02 -0.77101E+06
 0.33750000E+02 -0.17991E+07
 0.33799999E+02 -0.28120E+07
 0.33850002E+02 -0.32214E+07
 0.33900002E+02 -0.28295E+07
 0.33950001E+02 -0.19877E+07
 0.34000000E+02 -0.13199E+07
 0.34049999E+02 -0.10294E+07
 0.34100002E+02 -0.85851E+06
 0.34150002E+02 -0.78911E+06
 0.34200001E+02 -0.59556E+06
 0.34250000E+02  0.24335E+05
 0.34299999E+02  0.87414E+06
 0.34350002E+02  0.17073E+07
 0.34400002E+02  0.24352E+07
 0.34450001E+02  0.29122E+07
 0.34500000E+02  0.27180E+07
 0.34549999E+02  0.16230E+07
 0.34600002E+02  0.43914E+05
 0.34650002E+02 -0.13438E+07
 0.34700001E+02 -0.21558E+07
 0.34750000E+02 -0.25834E+07
 0.34799999E+02 -0.27391E+07
 0.34850002E+02 -0.24438E+07
 0.34900002E+02 -0.18271E+07
 0.34950001E+02 -0.10753E+07
 0.35000000E+02 -0.39159E+06
 0.35049999E+02  0.93851E+05
 0.35100002E+02  0.47699E+06
 0.35150002E+02  0.48917E+06
 0.35200001E+02  0.17131E+06
 0.35250000E+02  0.29777E+06
 0.35299999E+02  0.10134E+07
 0.35350002E+02  0.14823E+07
 0.35400002E+02  0.13641E+07
 0.35450001E+02  0.11445E+07
 0.35500000E+02  0.74972E+06
 0.35549999E+02  0.43886E+05
 0.35600002E+02 -0.53308E+06
 0.35650002E+02 -0.86494E+06
 0.35700001E+02 -0.10568E+07
 0.35750000E+02 -0.11186E+07
 0.35799999E+02 -0.10263E+07
 0.35850002E+02 -0.76439E+06
 0.35900002E+02 -0.31910E+06
 0.35950001E+02  0.16217E+06
 0.36000000E+02  0.49773E+06
 0.36049999E+02  0.80458E+06
 0.36100002E+02  0.10659E+07
 0.36150002E+02  0.11668E+07
 0.36200001E+02  0.10958E+07
 0.36250000E+02  0.81190E+06
 0.36299999E+02  0.31820E+06
 0.36350002E+02 -0.24281E+06
 0.36400002E+02 -0.69163E+06
 0.36450001E+02 -0.98560E+06
 0.36500000E+02 -0.83501E+06
 0.36549999E+02 -0.24505E+06
 0.36600002E+02  0.73372E+05
 0.36650002E+02 -0.93441E+05
 0.36700001E+02 -0.53155E+06
 0.36750000E+02 -0.10716E+07
 0.36799999E+02 -0.12337E+07
 0.36850002E+02 -0.83953E+06
 0.36900002E+02 -0.32237E+06
 0.36950001E+02  0.90051E+05
 0.37000000E+02  0.41879E+06
 0.37049999E+02  0.54259E+06
 0.37100002E+02  0.50462E+06
 0.37150002E+02  0.45500E+06
 0.37200001E+02  0.44084E+06
 0.37250000E+02  0.58152E+06
 0.37299999E+02  0.89385E+06
 0.37350002E+02  0.11103E+07
 0.37400002E+02  0.89119E+06
 0.37450001E+02  0.35910E+06
 0.37500000E+02  0.90830E+04
 0.37549999E+02 -0.15058E+06
 0.37600002E+02 -0.33267E+06
 0.37650002E+02 -0.38228E+06
 0.37700001E+02 -0.23640E+06
 0.37750000E+02  0.11805E+05
 0.37799999E+02  0.33191E+06
 0.37850002E+02  0.56319E+06
 0.37900002E+02  0.60100E+06
 0.37950001E+02  0.57694E+06
 0.38000000E+02  0.68598E+06
 0.38049999E+02  0.10703E+07
 0.38100002E+02  0.15400E+07
 0.38150002E+02  0.17132E+07
 0.38200001E+02  0.16082E+07
 0.38250000E+02  0.14395E+07
 0.38299999E+02  0.12698E+07
 0.38350002E+02  0.11843E+07
 0.38400002E+02  0.11399E+07
 0.38450001E+02  0.89937E+06
 0.38500000E+02  0.47834E+06
 0.38549999E+02  0.14455E+06
 0.38600002E+02  0.15370E+05
 0.38650002E+02  0.16178E+05
 0.38700001E+02 -0.70151E+05
 0.38750000E+02 -0.35625E+06
 0.38799999E+02 -0.60603E+06
 0.38850002E+02 -0.75576E+06
 0.38900002E+02 -0.95566E+06
 0.38950001E+02 -0.10777E+07
 0.39000000E+02 -0.11781E+07
 0.39049999E+02 -0.14629E+07
 0.39100002E+02 -0.17095E+07
 0.39150002E+02 -0.17250E+07
 0.39200001E+02 -0.15415E+07
 0.39250000E+02 -0.12567E+07
 0.39299999E+02 -0.11141E+07
 0.39350002E+02 -0.12136E+07
 0.39400002E+02 -0.13502E+07
 0.39450001E+02 -0.12094E+07
 0.39500000E+02 -0.75286E+06
 0.39549999E+02 -0.24231E+06
 0.39600002E+02  0.21196E+06
 0.39650002E+02  0.59291E+06
 0.39700001E+02  0.86086E+06
 0.39750000E+02  0.10993E+07
 0.39799999E+02  0.13713E+07
 0.39850002E+02  0.17130E+07
 0.39900002E+02  0.21410E+07
 0.39950001E+02  0.23946E+07
 0.40000000E+02  0.22006E+07
 0.40049999E+02  0.17526E+07
 0.40100002E+02  0.12803E+07
 0.40150002E+02  0.71153E+06
 0.40200001E+02  0.49345E+05
 0.40250000E+02 -0.60363E+06
 0.40299999E+02 -0.10303E+07
 0.40350002E+02 -0.10758E+07
 0.40400002E+02 -0.98836E+06
 0.40450001E+02 -0.97547E+06
 0.40500000E+02 -0.97761E+06
 0.40549999E+02 -0.89165E+06
 0.40600002E+02 -0.69977E+06
 0.40650002E+02 -0.40276E+06
 0.40700001E+02  0.11424E+06
 0.40750000E+02  0.66488E+06
 0.40799999E+02  0.81391E+06
 0.40850002E+02  0.49555E+06
 0.40900002E+02 -0.32700E+04
 0.40950001E+02 -0.37022E+06
 0.41000000E+02 -0.53539E+06
 0.41049999E+02 -0.59398E+06
 0.41100002E+02 -0.54811E+06
 0.41150002E+02 -0.37846E+06
 0.41200001E+02 -0.15178E+06
 0.41250000E+02  0.17377E+05
 0.41299999E+02  0.12220E+06
 0.41350002E+02  0.21773E+06
 0.41400002E+02  0.27190E+06
 0.41450001E+02  0.27330E+06
 0.41500000E+02  0.26247E+06
 0.41549999E+02  0.36440E+06
 0.41600002E+02  0.66026E+06
 0.41650002E+02  0.10248E+07
 0.41700001E+02  0.12506E+07
 0.41750000E+02  0.12363E+07
 0.41799999E+02  0.11657E+07
 0.41850002E+02  0.11494E+07
 0.41900002E+02  0.98885E+06
 0.41950001E+02  0.63428E+06
 0.42000000E+02  0.29977E+06
 0.42049999E+02  0.87895E+05
 0.42100002E+02 -0.70909E+05
 0.42150002E+02 -0.22868E+06
 0.42200001E+02 -0.38361E+06
 0.42250000E+02 -0.34593E+06
 0.42299999E+02  0.86400E+03
 0.42350002E+02  0.46245E+06
 0.42400002E+02  0.81877E+06
 0.42450001E+02  0.97324E+06
 0.42500000E+02  0.95662E+06
 0.42549999E+02  0.71572E+06
 0.42600002E+02  0.32408E+06
 0.42650002E+02  0.76453E+05
 0.42700001E+02  0.80350E+04
 0.42750000E+02  0.34240E+04
 0.42799999E+02 -0.32444E+05
 0.42850002E+02 -0.96448E+05
 0.42900002E+02 -0.63538E+05
 0.42950001E+02  0.94831E+05
 0.43000000E+02  0.39927E+06
 0.43049999E+02  0.72291E+06
 0.43100002E+02  0.75921E+06
 0.43150002E+02  0.52844E+06
 0.43200001E+02  0.25138E+06
 0.43250000E+02  0.16852E+05
 0.43299999E+02 -0.40885E+05
 0.43350002E+02  0.95302E+05
 0.43400002E+02  0.18110E+06
 0.43450001E+02  0.11088E+06
 0.43500000E+02 -0.47543E+05
 0.43549999E+02 -0.28203E+06
 0.43600002E+02 -0.60470E+06
 0.43650002E+02 -0.99148E+06
 0.43700001E+02 -0.13002E+07
 0.43750000E+02 -0.14222E+07
 0.43799999E+02 -0.14107E+07
 0.43850002E+02 -0.13727E+07
 0.43900002E+02 -0.14506E+07
 0.43950001E+02 -0.15236E+07
 0.44000000E+02 -0.12387E+07
 0.44049999E+02 -0.60479E+06
 0.44100002E+02 -0.10180E+05
 0.44150002E+02  0.29077E+06
 0.44200001E+02  0.42266E+06
 0.44250000E+02  0.57272E+06
 0.44299999E+02  0.77021E+06
 0.44350002E+02  0.10137E+07
 0.44400002E+02  0.12621E+07
 0.44450001E+02  0.14532E+07
 0.44500000E+02  0.15293E+07
 0.44549999E+02  0.14363E+07
 0.44600002E+02  0.12502E+07
 0.44650002E+02  0.10439E+07
 0.44700001E+02  0.78497E+06
 0.44750000E+02  0.48720E+06
 0.44799999E+02  0.16612E+06
 0.44850002E+02 -0.12234E+06
 0.44900002E+02 -0.27879E+06
 0.44950001E+02 -0.39163E+06
 0.45000000E+02 -0.68796E+06
 0.45049999E+02 -0.11989E+07
 0.45100002E+02 -0.15983E+07
 0.45150002E+02 -0.16111E+07
 0.45200001E+02 -0.13032E+07
 0.45250000E+02 -0.81910E+06
 0.45299999E+02 -0.33017E+06
 0.45350002E+02 -0.85520E+04
 0.45400002E+02  0.15167E+06
 0.45450001E+02  0.23679E+06
 0.45500000E+02  0.21506E+06
 0.45549999E+02  0.89172E+05
 0.45600002E+02  0.94061E+05
 0.45650002E+02  0.32219E+06
 0.45700001E+02  0.56943E+06
 0.45750000E+02  0.65912E+06
 0.45799999E+02  0.53073E+06
 0.45850002E+02  0.22170E+06
 0.45900002E+02 -0.14826E+06
 0.45950001E+02 -0.38067E+06
 0.46000000E+02 -0.35454E+06
 0.46049999E+02 -0.20737E+06
 0.46100002E+02 -0.10609E+06
 0.46150002E+02 -0.68055E+05
 0.46200001E+02 -0.91238E+05
 0.46250000E+02 -0.20270E+06
 0.46299999E+02 -0.33543E+06
 0.46350002E+02 -0.36544E+06
 0.46400002E+02 -0.28279E+06
 0.46450001E+02 -0.13665E+06
 0.46500000E+02  0.22940E+04
 0.46549999E+02  0.16717E+05
 0.46600002E+02 -0.11128E+06
 0.46650002E+02 -0.24707E+06
 0.46700001E+02 -0.27928E+06
 0.46750000E+02 -0.27531E+06
 0.46799999E+02 -0.31548E+06
 0.46850002E+02 -0.36866E+06
 0.46900002E+02 -0.43154E+06
 0.46950001E+02 -0.45989E+06
 0.47000000E+02 -0.39338E+06
 0.47049999E+02 -0.30990E+06
 0.47100002E+02 -0.22496E+06
 0.47150002E+02  0.26030E+04
 0.47200001E+02  0.32726E+06
 0.47250000E+02  0.56594E+06
 0.47299999E+02  0.78430E+06
 0.47350002E+02  0.99217E+06
 0.47400002E+02  0.10427E+07
 0.47450001E+02  0.99550E+06
 0.47500000E+02  0.96562E+06
 0.47549999E+02  0.95637E+06
 0.47600002E+02  0.92188E+06
 0.47650002E+02  0.88418E+06
 0.47700001E+02  0.88089E+06
 0.47750000E+02  0.78648E+06
 0.47799999E+02  0.47449E+06
 0.47850002E+02  0.13762E+05
 0.47900002E+02 -0.41328E+06
 0.47950001E+02 -0.70335E+06
 0.48000000E+02 -0.85114E+06
 0.48049999E+02 -0.86358E+06
 0.48100002E+02 -0.77067E+06
 0.48150002E+02 -0.63279E+06
 0.48200001E+02 -0.51420E+06
 0.48250000E+02 -0.41370E+06
 0.48299999E+02 -0.29023E+06
 0.48350002E+02 -0.14443E+06
 0.48400002E+02 -0.21773E+05
 0.48450001E+02  0.47160E+05
 0.48500000E+02  0.93588E+05
 0.48549999E+02  0.10626E+06
 0.48600002E+02  0.60695E+05
 0.48650002E+02  0.15710E+04
 0.48700001E+02 -0.41717E+05
 0.48750000E+02 -0.61977E+05
 0.48799999E+02 -0.56255E+05
 0.48850002E+02 -0.24370E+04
 0.48900002E+02  0.13829E+06
 0.48950001E+02  0.31250E+06
 0.49000000E+02  0.39690E+06
 0.49049999E+02  0.36127E+06
 0.49100002E+02  0.27724E+06
 0.49150002E+02  0.19266E+06
 0.49200001E+02  0.72573E+05
 0.49250000E+02 -0.13038E+06
 0.49299999E+02 -0.35256E+06
 0.49350002E+02 -0.49108E+06
 0.49400002E+02 -0.57096E+06
 0.49450001E+02 -0.62905E+06
 0.49500000E+02 -0.60614E+06
 0.49549999E+02 -0.49399E+06
 0.49600002E+02 -0.33136E+06
 0.49650002E+02 -0.15626E+06
 0.49700001E+02  0.48220E+04
 0.49750000E+02  0.16641E+06
 0.49799999E+02  0.25210E+06
 0.49850002E+02  0.15622E+06
 0.49900002E+02 -0.76464E+05
 0.49950001E+02 -0.29135E+06
 0.50000000E+02 -0.37129E+06
 0.50049999E+02 -0.39413E+06
 0.50100002E+02 -0.51276E+06
 0.50150002E+02 -0.67080E+06
 0.50200001E+02 -0.69458E+06
 0.50250000E+02 -0.55320E+06
 0.50299999E+02 -0.37223E+06
 0.50350002E+02 -0.26774E+06
 0.50400002E+02 -0.21618E+06
 0.50450001E+02 -0.15791E+06
 0.50500000E+02 -0.73851E+05
 0.50549999E+02  0.21339E+05
 0.50600002E+02  0.68300E+05
 0.50650002E+02  0.13039E+06
 0.50700001E+02  0.30890E+06
 0.50750000E+02  0.52054E+06
 0.50799999E+02  0.64495E+06
 0.50850002E+02  0.63535E+06
 0.50900002E+02  0.48983E+06
 0.50950001E+02  0.26748E+06
 0.51000000E+02  0.61578E+05
 0.51049999E+02 -0.85972E+05
 0.51100002E+02 -0.17126E+06
 0.51150002E+02 -0.19224E+06
 0.51200001E+02 -0.20057E+06
 0.51250000E+02 -0.20274E+06
 0.51299999E+02 -0.15795E+06
 0.51350002E+02 -0.64144E+05
 0.51400002E+02  0.89374E+05
 0.51450001E+02  0.26304E+06
 0.51500000E+02  0.40145E+06
 0.51549999E+02  0.50023E+06
 0.51600002E+02  0.54772E+06
 0.51650002E+02  0.55171E+06
 0.51700001E+02  0.51506E+06
 0.51750000E+02  0.40208E+06
 0.51799999E+02  0.24399E+06
 0.51850002E+02  0.14966E+06
 0.51900002E+02  0.16443E+06
 0.51950001E+02  0.19014E+06
 0.52000000E+02  0.13001E+06
 0.52049999E+02  0.20724E+05
 0.52100002E+02 -0.11465E+06
 0.52150002E+02 -0.28404E+06
 0.52200001E+02 -0.40896E+06
 0.52250000E+02 -0.43440E+06
 0.52299999E+02 -0.39439E+06
 0.52350002E+02 -0.29787E+06
 0.52400002E+02 -0.13784E+06
 0.52450001E+02  0.42229E+05
 0.52500000E+02  0.21326E+06
 0.52549999E+02  0.33944E+06
 0.52600002E+02  0.38105E+06
 0.52650002E+02  0.34463E+06
 0.52700001E+02  0.26382E+06
 0.52750000E+02  0.21676E+06
 0.52799999E+02  0.20988E+06
 0.52850002E+02  0.18937E+06
 0.52900002E+02  0.16367E+06
 0.52950001E+02  0.12114E+06
 0.53000000E+02  0.91990E+05
 0.53049999E+02  0.17152E+06
 0.53100002E+02  0.33534E+06
 0.53150002E+02  0.46830E+06
 0.53200001E+02  0.51496E+06
 0.53250000E+02  0.47945E+06
 0.53299999E+02  0.36324E+06
 0.53350002E+02  0.20444E+06
 0.53400002E+02  0.70012E+05
 0.53450001E+02 -0.51666E+05
 0.53500000E+02 -0.21376E+06
 0.53549999E+02 -0.38563E+06
 0.53600002E+02 -0.44828E+06
 0.53650002E+02 -0.35505E+06
 0.53700001E+02 -0.16153E+06
 0.53750000E+02  0.97879E+05
 0.53799999E+02  0.35737E+06
 0.53850002E+02  0.51511E+06
 0.53900002E+02  0.55578E+06
 0.53950001E+02  0.53223E+06
 0.54000000E+02  0.45501E+06
 0.54049999E+02  0.29361E+06
 0.54100002E+02  0.12278E+06
 0.54150002E+02  0.57855E+05
 0.54200001E+02  0.52795E+05
 0.54250000E+02  0.44220E+05
 0.54299999E+02  0.70231E+05
 0.54350002E+02  0.12908E+06
 0.54400002E+02  0.18525E+06
 0.54450001E+02  0.21718E+06
 0.54500000E+02  0.20268E+06
 0.54549999E+02  0.11903E+06
 0.54600002E+02 -0.43861E+05
 0.54650002E+02 -0.22696E+06
 0.54700001E+02 -0.37740E+06
 0.54750000E+02 -0.47917E+06
 0.54799999E+02 -0.46229E+06
 0.54850002E+02 -0.31877E+06
 0.54900002E+02 -0.18233E+06
 0.54950001E+02 -0.14580E+06
 0.55000000E+02 -0.19344E+06
 0.55049999E+02 -0.29924E+06
 0.55100002E+02 -0.38180E+06
 0.55150002E+02 -0.37392E+06
 0.55200001E+02 -0.33874E+06
 0.55250000E+02 -0.28988E+06
 0.55299999E+02 -0.19118E+06
 0.55350002E+02 -0.85120E+05
 0.55400002E+02 -0.12233E+05
 0.55450001E+02  0.24096E+05
 0.55500000E+02  0.33512E+05
 0.55549999E+02  0.30820E+05
 0.55600002E+02  0.79540E+04
 0.55650002E+02 -0.54331E+05
 0.55700001E+02 -0.13809E+06
 0.55750000E+02 -0.19549E+06
 0.55799999E+02 -0.19628E+06
 0.55850002E+02 -0.13564E+06
 0.55900002E+02 -0.56050E+04
 0.55950001E+02  0.15833E+06
 0.56000000E+02  0.24844E+06
 0.56049999E+02  0.21961E+06
 0.56100002E+02  0.11981E+06
 0.56150002E+02  0.27010E+04
 0.56200001E+02 -0.11015E+06
 0.56250000E+02 -0.23683E+06
 0.56299999E+02 -0.36479E+06
 0.56350002E+02 -0.45565E+06
 0.56400002E+02 -0.49941E+06
 0.56450001E+02 -0.49050E+06
 0.56500000E+02 -0.45298E+06
 0.56549999E+02 -0.42761E+06
 0.56600002E+02 -0.39472E+06
 0.56650002E+02 -0.29795E+06
 0.56700001E+02 -0.14343E+06
 0.56750000E+02 -0.27773E+05
 0.56799999E+02 -0.67330E+04
 0.56850002E+02 -0.97460E+04
 0.56900002E+02  0.27219E+05
 0.56950001E+02  0.87355E+05
 0.57000000E+02  0.14748E+06
 0.57049999E+02  0.21851E+06
 0.57100002E+02  0.31063E+06
 0.57150002E+02  0.40054E+06
 0.57200001E+02  0.47178E+06
 0.57250000E+02  0.52180E+06
 0.57299999E+02  0.54221E+06
 0.57350002E+02  0.53098E+06
 0.57400002E+02  0.49021E+06
 0.57450001E+02  0.41062E+06
 0.57500000E+02  0.28988E+06
 0.57549999E+02  0.17305E+06
 0.57600002E+02  0.83132E+05
 0.57650002E+02 -0.57280E+04
 0.57700001E+02 -0.10983E+06
 0.57750000E+02 -0.23656E+06
 0.57799999E+02 -0.34709E+06
 0.57850002E+02 -0.38466E+06
 0.57900002E+02 -0.32808E+06
 0.57950001E+02 -0.19677E+06
 0.58000000E+02 -0.74428E+05
 0.58049999E+02 -0.86770E+04
 0.58100002E+02  0.19901E+05
 0.58150002E+02  0.25434E+05
 0.58200001E+02  0.40687E+05
 0.58250000E+02  0.10198E+06
 0.58299999E+02  0.21910E+06
 0.58350002E+02  0.36600E+06
 0.58400002E+02  0.48810E+06
 0.58450001E+02  0.55136E+06
 0.58500000E+02  0.55747E+06
 0.58549999E+02  0.51884E+06
 0.58600002E+02  0.44116E+06
 0.58650002E+02  0.36160E+06
 0.58700001E+02  0.32511E+06
 0.58750000E+02  0.32389E+06
 0.58799999E+02  0.31794E+06
 0.58850002E+02  0.28131E+06
 0.58900002E+02  0.23456E+06
 0.58950001E+02  0.16188E+06
 0.59000000E+02  0.98450E+04
 0.59049999E+02 -0.17801E+06
 0.59100002E+02 -0.32627E+06
 0.59150002E+02 -0.43956E+06
 0.59200001E+02 -0.53852E+06
 0.59250000E+02 -0.58371E+06
 0.59299999E+02 -0.54226E+06
 0.59350002E+02 -0.46551E+06
 0.59400002E+02 -0.38718E+06
 0.59450001E+02 -0.26965E+06
 0.59500000E+02 -0.11017E+06
 0.59549999E+02  0.56614E+05
 0.59600002E+02  0.21808E+06
 0.59650002E+02  0.36396E+06
 0.59700001E+02  0.46369E+06
 0.59750000E+02  0.49418E+06
 0.59799999E+02  0.46312E+06
 0.59850002E+02  0.37344E+06
 0.59900002E+02  0.22351E+06
 0.59950001E+02  0.51105E+05
 0.60000000E+02 -0.91719E+05
 0.60049999E+02 -0.19812E+06
 0.60100002E+02 -0.27866E+06
 0.60150002E+02 -0.29623E+06
 0.60200001E+02 -0.22309E+06
 0.60250000E+02 -0.10229E+06
 0.60299999E+02  0.10857E+05
 0.60350002E+02  0.91808E+05
 0.60400002E+02  0.15639E+06
 0.60450001E+02  0.24684E+06
 0.60500000E+02  0.35035E+06
 0.60549999E+02  0.40603E+06
 0.60600002E+02  0.38567E+06
 0.60650002E+02  0.29033E+06
 0.60700001E+02  0.14809E+06
 0.60750000E+02  0.92950E+04
 0.60799999E+02 -0.80001E+05
 0.60850002E+02 -0.94536E+05
 0.60900002E+02 -0.47556E+05
 0.60950001E+02  0.55294E+05
 0.61000000E+02  0.20410E+06
 0.61050003E+02  0.34161E+06
 0.61099998E+02  0.43058E+06
 0.61150002E+02  0.45053E+06
 0.61200005E+02  0.38933E+06
 0.61250000E+02  0.28981E+06
 0.61300003E+02  0.18058E+06
 0.61349998E+02  0.63662E+05
 0.61400002E+02 -0.32849E+05
 0.61450005E+02 -0.10523E+06
 0.61500000E+02 -0.17303E+06
 0.61550003E+02 -0.23161E+06
 0.61599998E+02 -0.26051E+06
 0.61650002E+02 -0.23525E+06
 0.61700005E+02 -0.18351E+06
 0.61750000E+02 -0.18595E+06
 0.61800003E+02 -0.25265E+06
 0.61849998E+02 -0.32009E+06
 0.61900002E+02 -0.34439E+06
 0.61950005E+02 -0.32000E+06
 0.62000000E+02 -0.28226E+06
 0.62050003E+02 -0.25377E+06
 0.62099998E+02 -0.19161E+06
 0.62150002E+02 -0.61708E+05
 0.62200005E+02  0.10890E+06
 0.62250000E+02  0.27453E+06
 0.62300003E+02  0.40839E+06
 0.62349998E+02  0.49971E+06
 0.62400002E+02  0.54027E+06
 0.62450005E+02  0.53962E+06
 0.62500000E+02  0.51680E+06
 0.62550003E+02  0.45711E+06
 0.62599998E+02  0.34800E+06
 0.62650002E+02  0.21994E+06
 0.62700005E+02  0.11722E+06
 0.62750000E+02  0.64672E+05
 0.62800003E+02  0.45082E+05
 0.62849998E+02  0.35877E+05
 0.62900002E+02  0.23852E+05
 0.62950005E+02 -0.16024E+05
 0.63000000E+02 -0.83860E+05
 0.63050003E+02 -0.15645E+06
 0.63099998E+02 -0.21166E+06
 0.63150002E+02 -0.23936E+06
 0.63200005E+02 -0.26576E+06
 0.63250000E+02 -0.31494E+06
 0.63300003E+02 -0.35344E+06
 0.63349998E+02 -0.32452E+06
 0.63400002E+02 -0.22184E+06
 0.63450005E+02 -0.93371E+05
 0.63500000E+02  0.21401E+05
 0.63550003E+02  0.10671E+06
 0.63599998E+02  0.14500E+06
 0.63650002E+02  0.13428E+06
 0.63700005E+02  0.88795E+05
 0.63750000E+02  0.15726E+05
 0.63800003E+02 -0.69228E+05
 0.63849998E+02 -0.13812E+06
 0.63900002E+02 -0.18146E+06
 0.63950005E+02 -0.20788E+06
 0.64000000E+02 -0.22831E+06
 0.64050003E+02 -0.25669E+06
 0.64099998E+02 -0.29300E+06
 0.64150002E+02 -0.30438E+06
 0.64200005E+02 -0.24635E+06
 0.64250000E+02 -0.12260E+06
 0.64300003E+02  0.17870E+04
 0.64349998E+02  0.75002E+05
 0.64400002E+02  0.10082E+06
 0.64450005E+02  0.93107E+05
 0.64500000E+02  0.45562E+05
 0.64550003E+02 -0.37144E+05
 0.64599998E+02 -0.13485E+06
 0.64650002E+02 -0.23043E+06
 0.64700005E+02 -0.28358E+06
 0.64750000E+02 -0.27397E+06
 0.64800003E+02 -0.25798E+06
 0.64849998E+02 -0.27772E+06
 0.64900002E+02 -0.31743E+06
 0.64950005E+02 -0.34724E+06
 0.65000000E+02 -0.33589E+06
 0.65050003E+02 -0.28732E+06
 0.65099998E+02 -0.23005E+06
 0.65150002E+02 -0.17794E+06
 0.65200005E+02 -0.14564E+06
 0.65250000E+02 -0.14168E+06
 0.65300003E+02 -0.15600E+06
 0.65349998E+02 -0.15980E+06
 0.65400002E+02 -0.12900E+06
 0.65450005E+02 -0.73836E+05
 0.65500000E+02 -0.82700E+03
 0.65550003E+02  0.77531E+05
 0.65599998E+02  0.13332E+06
 0.65650002E+02  0.17537E+06
 0.65700005E+02  0.21014E+06
 0.65750000E+02  0.22913E+06
 0.65800003E+02  0.23790E+06
 0.65849998E+02  0.23333E+06
 0.65900002E+02  0.22823E+06
 0.65950005E+02  0.24591E+06
 0.66000000E+02  0.27718E+06
 0.66050003E+02  0.29510E+06
 0.66099998E+02  0.28093E+06
 0.66150002E+02  0.23078E+06
 0.66200005E+02  0.14582E+06
 0.66250000E+02  0.46194E+05
 0.66300003E+02 -0.31599E+05
 0.66349998E+02 -0.60513E+05
 0.66400002E+02 -0.31125E+05
 0.66450005E+02  0.29548E+05
 0.66500000E+02  0.89873E+05
 0.66550003E+02  0.13567E+06
 0.66599998E+02  0.13924E+06
 0.66650002E+02  0.10840E+06
 0.66700005E+02  0.11222E+06
 0.66750000E+02  0.17309E+06
 0.66800003E+02  0.23990E+06
 0.66849998E+02  0.25232E+06
 0.66900002E+02  0.17407E+06
 0.66950005E+02  0.52622E+05
 0.67000000E+02 -0.34252E+05
 0.67050003E+02 -0.82223E+05
 0.67099998E+02 -0.11161E+06
 0.67150002E+02 -0.10818E+06
 0.67200005E+02 -0.43177E+05
 0.67250000E+02  0.66549E+05
 0.67300003E+02  0.16452E+06
 0.67349998E+02  0.21881E+06
 0.67400002E+02  0.22240E+06
 0.67450005E+02  0.17780E+06
 0.67500000E+02  0.10110E+06
 0.67550003E+02  0.13730E+05
 0.67599998E+02 -0.70397E+05
 0.67650002E+02 -0.14049E+06
 0.67700005E+02 -0.19516E+06
 0.67750000E+02 -0.24336E+06
 0.67800003E+02 -0.27500E+06
 0.67849998E+02 -0.28132E+06
 0.67900002E+02 -0.26704E+06
 0.67950005E+02 -0.21910E+06
 0.68000000E+02 -0.12908E+06
 0.68050003E+02 -0.22134E+05
 0.68099998E+02  0.52505E+05
 0.68150002E+02  0.55369E+05
 0.68200005E+02  0.12248E+05
 0.68250000E+02  0.80000E+03
 0.68300003E+02  0.60204E+05
 0.68349998E+02  0.15420E+06
 0.68400002E+02  0.22409E+06
 0.68450005E+02  0.25640E+06
 0.68500000E+02  0.28348E+06
 0.68550003E+02  0.34101E+06
 0.68599998E+02  0.42556E+06
 0.68650002E+02  0.49128E+06
 0.68700005E+02  0.50592E+06
 0.68750000E+02  0.46182E+06
 0.68800003E+02  0.37505E+06
 0.68849998E+02  0.28412E+06
 0.68900002E+02  0.21132E+06
 0.68950005E+02  0.15626E+06
 0.69000000E+02  0.98144E+05
 0.69050003E+02  0.51953E+05
 0.69099998E+02  0.67730E+05
 0.69150002E+02  0.13790E+06
 0.69200005E+02  0.22653E+06
 0.69250000E+02  0.29755E+06
 0.69300003E+02  0.31236E+06
 0.69349998E+02  0.26211E+06
 0.69400002E+02  0.16472E+06
 0.69450005E+02  0.65566E+05
 0.69500000E+02  0.29000E+04
 0.69550003E+02 -0.17580E+05
 0.69599998E+02 -0.68600E+03
 0.69650002E+02  0.34577E+05
 0.69700005E+02  0.57609E+05
 0.69750000E+02  0.38598E+05
 0.69800003E+02 -0.31357E+05
 0.69849998E+02 -0.11974E+06
 0.69900002E+02 -0.19120E+06
 0.69950005E+02 -0.24778E+06
 0.70000000E+02 -0.28663E+06
 0.70050003E+02 -0.27752E+06
 0.70099998E+02 -0.21857E+06
 0.70150002E+02 -0.15458E+06
 0.70200005E+02 -0.11734E+06
 0.70250000E+02 -0.89346E+05
 0.70300003E+02 -0.60349E+05
 0.70349998E+02 -0.45369E+05
 0.70400002E+02 -0.42246E+05
 0.70450005E+02 -0.44392E+05
 0.70500000E+02 -0.40434E+05
 0.70550003E+02 -0.24457E+05
 0.70599998E+02 -0.16656E+05
 0.70650002E+02 -0.28764E+05
 0.70700005E+02 -0.59491E+05
 0.70750000E+02 -0.96388E+05
 0.70800003E+02 -0.11523E+06
 0.70849998E+02 -0.10013E+06
 0.70900002E+02 -0.54005E+05
 0.70950005E+02 -0.14500E+04
 0.71000000E+02  0.43890E+05
 0.71050003E+02  0.91205E+05
 0.71099998E+02  0.14195E+06
 0.71150002E+02  0.18950E+06
 0.71200005E+02  0.21909E+06
 0.71250000E+02  0.21050E+06
 0.71300003E+02  0.18185E+06
 0.71349998E+02  0.17449E+06
 0.71400002E+02  0.18826E+06
 0.71450005E+02  0.20059E+06
 0.71500000E+02  0.20491E+06
 0.71550003E+02  0.20528E+06
 0.71599998E+02  0.20410E+06
 0.71650002E+02  0.19368E+06
 0.71700005E+02  0.16822E+06
 0.71750000E+02  0.11923E+06
 0.71800003E+02  0.36557E+05
 0.71849998E+02 -0.68239E+05
 0.71900002E+02 -0.17354E+06
 0.71950005E+02 -0.25150E+06
 0.72000000E+02 -0.27895E+06
 0.72050003E+02 -0.26909E+06
 0.72099998E+02 -0.24746E+06
 0.72150002E+02 -0.23502E+06
 0.72200005E+02 -0.24728E+06
 0.72250000E+02 -0.26428E+06
 0.72300003E+02 -0.26149E+06
 0.72349998E+02 -0.23739E+06
 0.72400002E+02 -0.18449E+06
 0.72450005E+02 -0.10644E+06
 0.72500000E+02 -0.34280E+05
 0.72550003E+02  0.68980E+04
 0.72599998E+02  0.28860E+05
 0.72650002E+02  0.52572E+05
 0.72700005E+02  0.64132E+05
 0.72750000E+02  0.44527E+05
 0.72800003E+02  0.70360E+04
 0.72849998E+02 -0.24016E+05
 0.72900002E+02 -0.45082E+05
 0.72950005E+02 -0.60925E+05
 0.73000000E+02 -0.67593E+05
 0.73050003E+02 -0.69317E+05
 0.73099998E+02 -0.71705E+05
 0.73150002E+02 -0.70130E+05
 0.73200005E+02 -0.56291E+05
 0.73250000E+02 -0.24537E+05
 0.73300003E+02  0.17503E+05
 0.73349998E+02  0.58049E+05
 0.73400002E+02  0.88392E+05
 0.73450005E+02  0.10134E+06
 0.73500000E+02  0.98567E+05
 0.73550003E+02  0.77117E+05
 0.73599998E+02  0.27582E+05
 0.73650002E+02 -0.36778E+05
 0.73700005E+02 -0.86321E+05
 0.73750000E+02 -0.10757E+06
 0.73800003E+02 -0.10664E+06
 0.73849998E+02 -0.87904E+05
 0.73900002E+02 -0.43855E+05
 0.73950005E+02  0.14026E+05
 0.74000000E+02  0.52544E+05
 0.74050003E+02  0.68236E+05
 0.74099998E+02  0.81902E+05
 0.74150002E+02  0.10769E+06
 0.74200005E+02  0.14791E+06
 0.74250000E+02  0.18656E+06
 0.74300003E+02  0.21592E+06
 0.74349998E+02  0.23621E+06
 0.74400002E+02  0.22206E+06
 0.74450005E+02  0.15796E+06
 0.74500000E+02  0.68668E+05
 0.74550003E+02 -0.18667E+05
 0.74599998E+02 -0.89640E+05
 0.74650002E+02 -0.14068E+06
 0.74700005E+02 -0.18983E+06
 0.74750000E+02 -0.24654E+06
 0.74800003E+02 -0.28522E+06
 0.74849998E+02 -0.27933E+06
 0.74900002E+02 -0.22218E+06
 0.74950005E+02 -0.10989E+06
 0.75000000E+02  0.39006E+05
 0.75050003E+02  0.17625E+06
 0.75099998E+02  0.27421E+06
 0.75150002E+02  0.33613E+06
 0.75200005E+02  0.36877E+06
 0.75250000E+02  0.37538E+06
 0.75300003E+02  0.35866E+06
 0.75349998E+02  0.32240E+06
 0.75400002E+02  0.27134E+06
 0.75450005E+02  0.21123E+06
 0.75500000E+02  0.14362E+06
 0.75550003E+02  0.67301E+05
 0.75599998E+02 -0.12718E+05
 0.75650002E+02 -0.84131E+05
 0.75700005E+02 -0.12946E+06
 0.75750000E+02 -0.13914E+06
 0.75800003E+02 -0.11507E+06
 0.75849998E+02 -0.64327E+05
 0.75900002E+02 -0.48360E+04
 0.75950005E+02  0.47589E+05
 0.76000000E+02  0.91277E+05
 0.76050003E+02  0.13019E+06
 0.76099998E+02  0.15677E+06
 0.76150002E+02  0.15526E+06
 0.76200005E+02  0.13070E+06
 0.76250000E+02  0.93309E+05
 0.76300003E+02  0.45558E+05
 0.76349998E+02  0.49380E+04
 0.76400002E+02 -0.15172E+05
 0.76450005E+02 -0.29102E+05
 0.76500000E+02 -0.53800E+05
 0.76550003E+02 -0.88157E+05
 0.76599998E+02 -0.12657E+06
 0.76650002E+02 -0.16898E+06
 0.76700005E+02 -0.21376E+06
 0.76750000E+02 -0.24439E+06
 0.76800003E+02 -0.24366E+06
 0.76849998E+02 -0.21600E+06
 0.76900002E+02 -0.17046E+06
 0.76950005E+02 -0.11579E+06
 0.77000000E+02 -0.64750E+05
 0.77050003E+02 -0.23498E+05
 0.77099998E+02  0.54460E+04
 0.77150002E+02  0.21324E+05
 0.77200005E+02  0.30476E+05
 0.77250000E+02  0.46011E+05
 0.77300003E+02  0.80833E+05
 0.77349998E+02  0.13468E+06
 0.77400002E+02  0.19165E+06
 0.77450005E+02  0.23263E+06
 0.77500000E+02  0.23894E+06
 0.77550003E+02  0.20166E+06
 0.77599998E+02  0.13106E+06
 0.77650002E+02  0.49923E+05
 0.77700005E+02 -0.67130E+04
 0.77750000E+02 -0.17749E+05
 0.77800003E+02  0.44400E+03
 0.77849998E+02  0.16610E+05
 0.77900002E+02 -0.20430E+04
 0.77950005E+02 -0.69322E+05
 0.78000000E+02 -0.16074E+06
 0.78050003E+02 -0.24162E+06
 0.78099998E+02 -0.28690E+06
 0.78150002E+02 -0.29310E+06
 0.78200005E+02 -0.27722E+06
 0.78250000E+02 -0.24728E+06
 0.78300003E+02 -0.20989E+06
 0.78349998E+02 -0.17994E+06
 0.78400002E+02 -0.16683E+06
 0.78450005E+02 -0.16705E+06
 0.78500000E+02 -0.15686E+06
 0.78550003E+02 -0.12218E+06
 0.78599998E+02 -0.83208E+05
 0.78650002E+02 -0.57615E+05
 0.78700005E+02 -0.44320E+05
 0.78750000E+02 -0.41696E+05
 0.78800003E+02 -0.50903E+05
 0.78849998E+02 -0.65673E+05
 0.78900002E+02 -0.63657E+05
 0.78950005E+02 -0.31097E+05
 0.79000000E+02  0.18340E+05
 0.79050003E+02  0.69239E+05
 0.79099998E+02  0.11275E+06
 0.79150002E+02  0.13872E+06
 0.79200005E+02  0.14594E+06
 0.79250000E+02  0.14951E+06
 0.79300003E+02  0.16562E+06
 0.79349998E+02  0.18993E+06
 0.79400002E+02  0.20605E+06
 0.79450005E+02  0.20376E+06
 0.79500000E+02  0.18427E+06
 0.79550003E+02  0.15891E+06
 0.79599998E+02  0.14093E+06
 0.79650002E+02  0.13570E+06
 0.79700005E+02  0.13680E+06
 0.79750000E+02  0.13394E+06
 0.79800003E+02  0.11868E+06
 0.79849998E+02  0.89019E+05
 0.79900002E+02  0.49052E+05
 0.79950005E+02  0.38240E+04
 0.80000000E+02 -0.35863E+05
 0.80050003E+02 -0.62893E+05
 0.80099998E+02 -0.79616E+05
 0.80150002E+02 -0.85874E+05
 0.80200005E+02 -0.88200E+05
 0.80250000E+02 -0.95588E+05
 0.80300003E+02 -0.96184E+05
 0.80349998E+02 -0.78804E+05
 0.80400002E+02 -0.55593E+05
 0.80450005E+02 -0.43907E+05
 0.80500000E+02 -0.51497E+05
 0.80550003E+02 -0.73192E+05
 0.80599998E+02 -0.92085E+05
 0.80650002E+02 -0.97834E+05
 0.80700005E+02 -0.92824E+05
 0.80750000E+02 -0.71128E+05
 0.80800003E+02 -0.23145E+05
 0.80849998E+02  0.45405E+05
 0.80900002E+02  0.11609E+06
 0.80950005E+02  0.17277E+06
 0.81000000E+02  0.21066E+06
 0.81050003E+02  0.22252E+06
 0.81099998E+02  0.20251E+06
 0.81150002E+02  0.15967E+06
 0.81200005E+02  0.10524E+06
 0.81250000E+02  0.53626E+05
 0.81300003E+02  0.25399E+05
 0.81349998E+02  0.25557E+05
 0.81400002E+02  0.45250E+05
 0.81450005E+02  0.75687E+05
 0.81500000E+02  0.10281E+06
 0.81550003E+02  0.11702E+06
 0.81599998E+02  0.12073E+06
 0.81650002E+02  0.12132E+06
 0.81700005E+02  0.12204E+06
 0.81750000E+02  0.12037E+06
 0.81800003E+02  0.12159E+06
 0.81849998E+02  0.12568E+06
 0.81900002E+02  0.12416E+06
 0.81950005E+02  0.12272E+06
 0.82000000E+02  0.13269E+06
 0.82050003E+02  0.15663E+06
 0.82099998E+02  0.17811E+06
 0.82150002E+02  0.16428E+06
 0.82200005E+02  0.99435E+05
 0.82250000E+02  0.29060E+04
 0.82300003E+02 -0.91154E+05
 0.82349998E+02 -0.16210E+06
 0.82400002E+02 -0.20563E+06
 0.82450005E+02 -0.22168E+06
 0.82500000E+02 -0.21983E+06
 0.82550003E+02 -0.21220E+06
 0.82599998E+02 -0.19667E+06
 0.82650002E+02 -0.16853E+06
 0.82700005E+02 -0.12657E+06
 0.82750000E+02 -0.71095E+05
 0.82800003E+02 -0.11206E+05
 0.82849998E+02  0.43433E+05
 0.82900002E+02  0.92474E+05
 0.82950005E+02  0.13928E+06
 0.83000000E+02  0.18473E+06
 0.83050003E+02  0.22452E+06
 0.83099998E+02  0.25474E+06
 0.83150002E+02  0.27618E+06
 0.83200005E+02  0.28882E+06
 0.83250000E+02  0.29673E+06
 0.83300003E+02  0.30159E+06
 0.83349998E+02  0.29131E+06
 0.83400002E+02  0.26303E+06
 0.83450005E+02  0.22406E+06
 0.83500000E+02  0.17554E+06
 0.83550003E+02  0.13297E+06
 0.83599998E+02  0.11694E+06
 0.83650002E+02  0.12046E+06
 0.83700005E+02  0.11687E+06
 0.83750000E+02  0.81900E+05
 0.83800003E+02  0.16651E+05
 0.83849998E+02 -0.53017E+05
 0.83900002E+02 -0.10466E+06
 0.83950005E+02 -0.12622E+06
 0.84000000E+02 -0.12133E+06
 0.84050003E+02 -0.11306E+06
 0.84099998E+02 -0.11855E+06
 0.84150002E+02 -0.13549E+06
 0.84200005E+02 -0.15326E+06
 0.84250000E+02 -0.17116E+06
 0.84300003E+02 -0.19829E+06
 0.84349998E+02 -0.23449E+06
 0.84400002E+02 -0.27000E+06
 0.84450005E+02 -0.28960E+06
 0.84500000E+02 -0.28245E+06
 0.84550003E+02 -0.25582E+06
 0.84599998E+02 -0.22764E+06
 0.84650002E+02 -0.20887E+06
 0.84700005E+02 -0.19158E+06
 0.84750000E+02 -0.16712E+06
 0.84800003E+02 -0.14078E+06
 0.84849998E+02 -0.11841E+06
 0.84900002E+02 -0.96686E+05
 0.84950005E+02 -0.66129E+05
 0.85000000E+02 -0.30712E+05
 0.85050003E+02 -0.21510E+04
 0.85099998E+02  0.20273E+05
 0.85150002E+02  0.43241E+05
 0.85200005E+02  0.71217E+05
 0.85250000E+02  0.93578E+05
 0.85300003E+02  0.90495E+05
 0.85349998E+02  0.59194E+05
 0.85400002E+02  0.14649E+05
 0.85450005E+02 -0.22090E+05
 0.85500000E+02 -0.36506E+05
 0.85550003E+02 -0.26646E+05
 0.85599998E+02  0.34060E+04
 0.85650002E+02  0.36877E+05
 0.85700005E+02  0.43362E+05
 0.85750000E+02  0.57010E+04
 0.85800003E+02 -0.61323E+05
 0.85849998E+02 -0.12715E+06
 0.85900002E+02 -0.16809E+06
 0.85950005E+02 -0.16841E+06
 0.86000000E+02 -0.12714E+06
 0.86050003E+02 -0.63016E+05
 0.86099998E+02  0.71300E+03
 0.86150002E+02  0.43393E+05
 0.86200005E+02  0.54179E+05
 0.86250000E+02  0.37937E+05
 0.86300003E+02  0.10328E+05
 0.86349998E+02 -0.96860E+04
 0.86400002E+02 -0.16709E+05
 0.86450005E+02 -0.17549E+05
 0.86500000E+02 -0.18771E+05
 0.86550003E+02 -0.29861E+05
 0.86599998E+02 -0.53447E+05
 0.86650002E+02 -0.79537E+05
 0.86700005E+02 -0.10385E+06
 0.86750000E+02 -0.12961E+06
 0.86800003E+02 -0.14706E+06
 0.86849998E+02 -0.13895E+06
 0.86900002E+02 -0.10971E+06
 0.86950005E+02 -0.78969E+05
 0.87000000E+02 -0.57776E+05
 0.87050003E+02 -0.49304E+05
 0.87099998E+02 -0.51010E+05
 0.87150002E+02 -0.56530E+05
 0.87200005E+02 -0.60242E+05
 0.87250000E+02 -0.52615E+05
 0.87300003E+02 -0.22155E+05
 0.87349998E+02  0.34604E+05
 0.87400002E+02  0.10596E+06
 0.87450005E+02  0.17207E+06
 0.87500000E+02  0.22719E+06
 0.87550003E+02  0.27213E+06
 0.87599998E+02  0.29229E+06
 0.87650002E+02  0.27837E+06
 0.87700005E+02  0.25193E+06
 0.87750000E+02  0.24974E+06
 0.87800003E+02  0.28409E+06
 0.87849998E+02  0.33188E+06
 0.87900002E+02  0.36481E+06
 0.87950005E+02  0.36575E+06
 0.88000000E+02  0.32600E+06
 0.88050003E+02  0.24292E+06
 0.88099998E+02  0.12391E+06
 0.88150002E+02  0.13270E+04
 0.88200005E+02 -0.80000E+05
 0.88250000E+02 -0.10169E+06
 0.88300003E+02 -0.82363E+05
 0.88349998E+02 -0.51879E+05
 0.88400002E+02 -0.31346E+05
 0.88450005E+02 -0.31952E+05
 0.88500000E+02 -0.50661E+05
 0.88550003E+02 -0.70443E+05
 0.88599998E+02 -0.78816E+05
 0.88650002E+02 -0.80543E+05
 0.88700005E+02 -0.84139E+05
 0.88750000E+02 -0.88120E+05
 0.88800003E+02 -0.83807E+05
 0.88849998E+02 -0.65767E+05
 0.88900002E+02 -0.40005E+05
 0.88950005E+02 -0.15386E+05
 0.89000000E+02  0.25530E+04
 0.89050003E+02  0.84390E+04
 0.89099998E+02  0.41660E+04
 0.89150002E+02 -0.15130E+04
 0.89200005E+02 -0.51120E+04
 0.89250000E+02 -0.10234E+05
 0.89300003E+02 -0.20302E+05
 0.89349998E+02 -0.28996E+05
 0.89400002E+02 -0.25542E+05
 0.89450005E+02 -0.12501E+05
 0.89500000E+02 -0.24090E+04
 0.89550003E+02 -0.47140E+04
 0.89599998E+02 -0.16885E+05
 0.89650002E+02 -0.19970E+05
 0.89700005E+02 -0.74300E+03
 0.89750000E+02  0.28553E+05
 0.89800003E+02  0.46491E+05
 0.89849998E+02  0.45893E+05
 0.89900002E+02  0.37720E+05
 0.89950005E+02  0.29888E+05
 0.90000000E+02  0.12962E+05
 0.90050003E+02 -0.19071E+05
 0.90099998E+02 -0.53079E+05
 0.90150002E+02 -0.70981E+05
 0.90200005E+02 -0.66224E+05
 0.90250000E+02 -0.41941E+05
 0.90300003E+02 -0.65930E+04
 0.90349998E+02  0.29332E+05
 0.90400002E+02  0.62643E+05
 0.90450005E+02  0.90226E+05
 0.90500000E+02  0.10510E+06
 0.90550003E+02  0.10498E+06
 0.90599998E+02  0.89427E+05
 0.90650002E+02  0.62630E+05
 0.90700005E+02  0.32417E+05
 0.90750000E+02  0.49250E+04
 0.90800003E+02 -0.17180E+05
 0.90849998E+02 -0.38303E+05
 0.90900002E+02 -0.56204E+05
 0.90950005E+02 -0.60345E+05
 0.91000000E+02 -0.51941E+05
 0.91050003E+02 -0.43694E+05
 0.91099998E+02 -0.38862E+05
 0.91150002E+02 -0.25473E+05
 0.91200005E+02  0.45910E+04
 0.91250000E+02  0.47422E+05
 0.91300003E+02  0.91084E+05
 0.91349998E+02  0.12372E+06
 0.91400002E+02  0.14329E+06
 0.91450005E+02  0.14868E+06
 0.91500000E+02  0.13700E+06
 0.91550003E+02  0.11128E+06
 0.91599998E+02  0.79342E+05
 0.91650002E+02  0.46298E+05
 0.91700005E+02  0.90480E+04
 0.91750000E+02 -0.31388E+05
 0.91800003E+02 -0.73593E+05
 0.91849998E+02 -0.12171E+06
 0.91900002E+02 -0.16846E+06
 0.91950005E+02 -0.20218E+06
 0.92000000E+02 -0.21684E+06
 0.92050003E+02 -0.21200E+06
 0.92099998E+02 -0.19390E+06
 0.92150002E+02 -0.16908E+06
 0.92200005E+02 -0.14325E+06
 0.92250000E+02 -0.11787E+06
 0.92300003E+02 -0.91993E+05
 0.92349998E+02 -0.68211E+05
 0.92400002E+02 -0.50260E+05
 0.92450005E+02 -0.39064E+05
 0.92500000E+02 -0.28802E+05
 0.92550003E+02 -0.14166E+05
 0.92599998E+02  0.49750E+04
 0.92650002E+02  0.24939E+05
 0.92700005E+02  0.34743E+05
 0.92750000E+02  0.29144E+05
 0.92800003E+02  0.20633E+05
 0.92849998E+02  0.24099E+05
 0.92900002E+02  0.39193E+05
 0.92950005E+02  0.54003E+05
 0.93000000E+02  0.57381E+05
 0.93050003E+02  0.46506E+05
 0.93099998E+02  0.29210E+05
 0.93150002E+02  0.15191E+05
 0.93200005E+02  0.63550E+04
 0.93250000E+02 -0.14410E+04
 0.93300003E+02 -0.79180E+04
 0.93349998E+02 -0.56430E+04
 0.93400002E+02  0.97440E+04
 0.93450005E+02  0.35591E+05
 0.93500000E+02  0.63392E+05
 0.93550003E+02  0.80074E+05
 0.93599998E+02  0.77606E+05
 0.93650002E+02  0.61775E+05
 0.93700005E+02  0.45177E+05
 0.93750000E+02  0.38454E+05
 0.93800003E+02  0.45100E+05
 0.93849998E+02  0.54285E+05
 0.93900002E+02  0.53470E+05
 0.93950005E+02  0.43110E+05
 0.94000000E+02  0.28353E+05
 0.94050003E+02  0.13682E+05
 0.94099998E+02  0.80910E+04
 0.94150002E+02  0.20322E+05
 0.94200005E+02  0.46036E+05
 0.94250000E+02  0.67037E+05
 0.94300003E+02  0.63099E+05
 0.94349998E+02  0.32157E+05
 0.94400002E+02 -0.97500E+03
 0.94450005E+02 -0.11132E+05
 0.94500000E+02 -0.51000E+02
 0.94550003E+02  0.13224E+05
 0.94599998E+02  0.16931E+05
 0.94650002E+02  0.10629E+05
 0.94700005E+02 -0.25020E+04
 0.94750000E+02 -0.19029E+05
 0.94800003E+02 -0.35987E+05
 0.94849998E+02 -0.47975E+05
 0.94900002E+02 -0.49598E+05
 0.94950005E+02 -0.39464E+05
 0.95000000E+02 -0.22811E+05
 0.95050003E+02 -0.92240E+04
 0.95099998E+02 -0.79600E+03
 0.95150002E+02  0.73390E+04
 0.95200005E+02  0.17018E+05
 0.95250000E+02  0.27345E+05
 0.95300003E+02  0.41917E+05
 0.95349998E+02  0.58068E+05
 0.95400002E+02  0.56395E+05
 0.95450005E+02  0.28595E+05
 0.95500000E+02 -0.10692E+05
 0.95550003E+02 -0.44687E+05
 0.95599998E+02 -0.60489E+05
 0.95650002E+02 -0.54407E+05
 0.95700005E+02 -0.35792E+05
 0.95750000E+02 -0.18589E+05
 0.95800003E+02 -0.15723E+05
 0.95849998E+02 -0.29266E+05
 0.95900002E+02 -0.47342E+05
 0.95950005E+02 -0.55588E+05
 0.96000000E+02 -0.43427E+05
 0.96050003E+02 -0.11146E+05
 0.96099998E+02  0.23933E+05
 0.96150002E+02  0.44682E+05
 0.96200005E+02  0.48802E+05
 0.96250000E+02  0.36931E+05
 0.96300003E+02  0.90850E+04
 0.96349998E+02 -0.25949E+05
 0.96400002E+02 -0.53333E+05
 0.96450005E+02 -0.66434E+05
 0.96500000E+02 -0.70159E+05
 0.96550003E+02 -0.66611E+05
 0.96599998E+02 -0.54906E+05
 0.96650002E+02 -0.38823E+05
 0.96700005E+02 -0.21654E+05
 0.96750000E+02 -0.35300E+04
 0.96800003E+02  0.13625E+05
 0.96849998E+02  0.23655E+05
 0.96900002E+02  0.22806E+05
 0.96950005E+02  0.14158E+05
 0.97000000E+02  0.54220E+04
 0.97050003E+02  0.65380E+04
 0.97099998E+02  0.25933E+05
 0.97150002E+02  0.61651E+05
 0.97200005E+02  0.97514E+05
 0.97250000E+02  0.11530E+06
 0.97300003E+02  0.10437E+06
 0.97349998E+02  0.66760E+05
 0.97400002E+02  0.22545E+05
 0.97450005E+02 -0.42500E+04
 0.97500000E+02 -0.63350E+04
 0.97550003E+02  0.82100E+04
 0.97599998E+02  0.28390E+05
 0.97650002E+02  0.49270E+05
 0.97700005E+02  0.72316E+05
 0.97750000E+02  0.92113E+05
 0.97800003E+02  0.10048E+06
 0.97849998E+02  0.10219E+06
 0.97900002E+02  0.10494E+06
 0.97950005E+02  0.10844E+06
 0.98000000E+02  0.10844E+06
 0.98050003E+02  0.10417E+06
 0.98099998E+02  0.10216E+06
 0.98150002E+02  0.10738E+06
 0.98200005E+02  0.11776E+06
 0.98250000E+02  0.12998E+06
 0.98300003E+02  0.14117E+06
 0.98349998E+02  0.14723E+06
 0.98400002E+02  0.14226E+06
 0.98450005E+02  0.12141E+06
 0.98500000E+02  0.86562E+05
 0.98550003E+02  0.46060E+05
 0.98599998E+02  0.12099E+05
 0.98650002E+02 -0.45220E+04
 0.98700005E+02 -0.43090E+04
 0.98750000E+02  0.26410E+04
 0.98800003E+02  0.95340E+04
 0.98849998E+02  0.17003E+05
 0.98900002E+02  0.26970E+05
 0.98950005E+02  0.39629E+05
 0.99000000E+02  0.52679E+05
 0.99050003E+02  0.61827E+05
 0.99099998E+02  0.66257E+05
 0.99150002E+02  0.65097E+05
 0.99200005E+02  0.54135E+05
 0.99250000E+02  0.36898E+05
 0.99300003E+02  0.19844E+05
 0.99349998E+02  0.23340E+04
 0.99400002E+02 -0.13517E+05
 0.99450005E+02 -0.19454E+05
 0.99500000E+02 -0.73420E+04
 0.99550003E+02  0.23083E+05
 0.99599998E+02  0.59334E+05
 0.99650002E+02  0.85860E+05
 0.99700005E+02  0.95837E+05
 0.99750000E+02  0.89312E+05
 0.99800003E+02  0.66632E+05
 0.99849998E+02  0.33192E+05
 0.99900002E+02  0.19810E+04
 0.99950005E+02 -0.17252E+05
 0.10000000E+03 -0.26802E+05
 0.10005000E+03 -0.39948E+05
 0.10010000E+03 -0.66077E+05
 0.10015000E+03 -0.99068E+05
 0.10020000E+03 -0.12637E+06
 0.10025000E+03 -0.13999E+06
 0.10030000E+03 -0.14132E+06
 0.10035000E+03 -0.13641E+06
 0.10040000E+03 -0.12915E+06
 0.10045000E+03 -0.12148E+06
 0.10050000E+03 -0.10813E+06
 0.10055000E+03 -0.82294E+05
 0.10060000E+03 -0.44871E+05
 0.10065000E+03 -0.35100E+04
 0.10070000E+03  0.28613E+05
 0.10075000E+03  0.45441E+05
 0.10080000E+03  0.48887E+05
 0.10085000E+03  0.41332E+05
 0.10090000E+03  0.30806E+05
 0.10095000E+03  0.26496E+05
 0.10100000E+03  0.32125E+05
 0.10105000E+03  0.41448E+05
 0.10110000E+03  0.41036E+05
 0.10115000E+03  0.24656E+05
 0.10120000E+03 -0.29750E+04
 0.10125000E+03 -0.30512E+05
 0.10130000E+03 -0.50167E+05
 0.10135000E+03 -0.64754E+05
 0.10140000E+03 -0.80264E+05
 0.10145000E+03 -0.97703E+05
 0.10150000E+03 -0.11288E+06
 0.10155000E+03 -0.12155E+06
 0.10160000E+03 -0.12092E+06
 0.10165000E+03 -0.11186E+06
 0.10170000E+03 -0.10020E+06
 0.10175000E+03 -0.89914E+05
 0.10180000E+03 -0.79045E+05
 0.10185000E+03 -0.66171E+05
 0.10190000E+03 -0.57856E+05
 0.10195000E+03 -0.58881E+05
 0.10200000E+03 -0.63159E+05
 0.10205000E+03 -0.65447E+05
 0.10210000E+03 -0.66914E+05
 0.10215000E+03 -0.68150E+05
 0.10220000E+03 -0.69824E+05
 0.10225000E+03 -0.73747E+05
 0.10230000E+03 -0.79868E+05
 0.10235000E+03 -0.86688E+05
 0.10240000E+03 -0.92700E+05
 0.10245000E+03 -0.10106E+06
 0.10250000E+03 -0.11768E+06
 0.10255000E+03 -0.14531E+06
 0.10260000E+03 -0.18682E+06
 0.10265000E+03 -0.23775E+06
 0.10270000E+03 -0.27959E+06
 0.10275000E+03 -0.29552E+06
 0.10280000E+03 -0.28044E+06
 0.10285000E+03 -0.23953E+06
 0.10290000E+03 -0.18634E+06
 0.10295000E+03 -0.13415E+06
 0.10300000E+03 -0.86465E+05
 0.10305000E+03 -0.38861E+05
 0.10310000E+03  0.11082E+05
 0.10315000E+03  0.57021E+05
 0.10320000E+03  0.88607E+05
 0.10325000E+03  0.10514E+06
 0.10330000E+03  0.11736E+06
 0.10335000E+03  0.13354E+06
 0.10340000E+03  0.15088E+06
 0.10345000E+03  0.15831E+06
 0.10350000E+03  0.14753E+06
 0.10355000E+03  0.12305E+06
 0.10360000E+03  0.94692E+05
 0.10365000E+03  0.70711E+05
 0.10370000E+03  0.61403E+05
 0.10375000E+03  0.69133E+05
 0.10380000E+03  0.87009E+05
 0.10385000E+03  0.10952E+06
 0.10390000E+03  0.12823E+06
 0.10395000E+03  0.13601E+06
 0.10400000E+03  0.13319E+06
 0.10405000E+03  0.11918E+06
 0.10410000E+03  0.92116E+05
 0.10415000E+03  0.58258E+05
 0.10420000E+03  0.33587E+05
 0.10425000E+03  0.30674E+05
 0.10430000E+03  0.47342E+05
 0.10435000E+03  0.68165E+05
 0.10440000E+03  0.77101E+05
 0.10445000E+03  0.71886E+05
 0.10450000E+03  0.60868E+05
 0.10455000E+03  0.50484E+05
 0.10460000E+03  0.43672E+05
 0.10465000E+03  0.41048E+05
 0.10470000E+03  0.37781E+05
 0.10475000E+03  0.25603E+05
 0.10480000E+03  0.11740E+04
 0.10485000E+03 -0.28820E+05
 0.10490000E+03 -0.53462E+05
 0.10495000E+03 -0.63281E+05
 0.10500000E+03 -0.52177E+05
 0.10505000E+03 -0.24355E+05
 0.10510000E+03  0.64370E+04
 0.10515000E+03  0.27425E+05
 0.10520000E+03  0.33198E+05
 0.10525000E+03  0.25998E+05
 0.10530000E+03  0.13137E+05
 0.10535000E+03  0.32920E+04
 0.10540000E+03  0.12550E+04
 0.10545000E+03  0.56140E+04
 0.10550000E+03  0.11835E+05
 0.10555000E+03  0.15931E+05
 0.10560000E+03  0.16305E+05
 0.10565000E+03  0.13047E+05
 0.10570000E+03  0.73380E+04
 0.10575000E+03  0.25900E+04
 0.10580000E+03  0.21440E+04
 0.10585000E+03  0.52930E+04
 0.10590000E+03  0.80550E+04
 0.10595000E+03  0.72540E+04
 0.10600000E+03  0.37880E+04
 0.10605000E+03  0.14930E+04
 0.10610000E+03  0.53090E+04
 0.10615000E+03  0.21360E+05
 0.10620000E+03  0.49000E+05
 0.10625000E+03  0.76839E+05
 0.10630000E+03  0.92494E+05
 0.10635000E+03  0.89131E+05
 0.10640000E+03  0.69666E+05
 0.10645000E+03  0.44839E+05
 0.10650000E+03  0.21973E+05
 0.10655000E+03  0.42700E+03
 0.10660000E+03 -0.21418E+05
 0.10665000E+03 -0.39465E+05
 0.10670000E+03 -0.48083E+05
 0.10675000E+03 -0.42654E+05
 0.10680000E+03 -0.21956E+05
 0.10685000E+03  0.62190E+04
 0.10690000E+03  0.30413E+05
 0.10695000E+03  0.42914E+05
 0.10700000E+03  0.41431E+05
 0.10705000E+03  0.28699E+05
 0.10710000E+03  0.12374E+05
 0.10715000E+03  0.31800E+04
 0.10720000E+03  0.67320E+04
 0.10725000E+03  0.20022E+05
 0.10730000E+03  0.37929E+05
 0.10735000E+03  0.56333E+05
 0.10740000E+03  0.70490E+05
 0.10745000E+03  0.76289E+05
 0.10750000E+03  0.72830E+05
 0.10755000E+03  0.65012E+05
 0.10760000E+03  0.61089E+05
 0.10765000E+03  0.64448E+05
 0.10770000E+03  0.70702E+05
 0.10775000E+03  0.72359E+05
 0.10780000E+03  0.65099E+05
 0.10785000E+03  0.49313E+05
 0.10790000E+03  0.29510E+05
 0.10795000E+03  0.12825E+05
 0.10800000E+03 -0.38000E+02
 0.10805000E+03 -0.16515E+05
 0.10810000E+03 -0.39296E+05
 0.10815000E+03 -0.62114E+05
 0.10820000E+03 -0.80831E+05
 0.10825000E+03 -0.10015E+06
 0.10830000E+03 -0.12407E+06
 0.10835000E+03 -0.14605E+06
 0.10840000E+03 -0.15429E+06
 0.10845000E+03 -0.14177E+06
 0.10850000E+03 -0.11070E+06
 0.10855000E+03 -0.70673E+05
 0.10860000E+03 -0.31673E+05
 0.10865000E+03  0.65100E+03
 0.10870000E+03  0.22689E+05
 0.10875000E+03  0.33555E+05
 0.10880000E+03  0.38982E+05
 0.10885000E+03  0.46086E+05
 0.10890000E+03  0.52882E+05
 0.10895000E+03  0.52362E+05
 0.10900000E+03  0.46877E+05
 0.10905000E+03  0.45008E+05
 0.10910000E+03  0.48738E+05
 0.10915000E+03  0.53607E+05
 0.10920000E+03  0.55783E+05
 0.10925000E+03  0.54160E+05
 0.10930000E+03  0.49300E+05
 0.10935000E+03  0.43150E+05
 0.10940000E+03  0.37816E+05
 0.10945000E+03  0.37782E+05
 0.10950000E+03  0.45622E+05
 0.10955000E+03  0.54464E+05
 0.10960000E+03  0.58635E+05
 0.10965000E+03  0.60973E+05
 0.10970000E+03  0.64973E+05
 0.10975000E+03  0.72915E+05
 0.10980000E+03  0.87117E+05
 0.10985000E+03  0.10445E+06
 0.10990000E+03  0.11722E+06
 0.10995000E+03  0.12130E+06
 0.11000000E+03  0.11747E+06
 0.11005000E+03  0.11060E+06
 0.11010000E+03  0.10617E+06
 0.11015000E+03  0.10374E+06
 0.11020000E+03  0.98040E+05
 0.11025000E+03  0.84752E+05
 0.11030000E+03  0.62603E+05
 0.11035000E+03  0.31988E+05
 0.11040000E+03 -0.64400E+03
 0.11045000E+03 -0.20898E+05
 0.11050000E+03 -0.21423E+05
 0.11055000E+03 -0.11888E+05
 0.11060000E+03 -0.77860E+04
 0.11065000E+03 -0.16005E+05
 0.11070000E+03 -0.32332E+05
 0.11075000E+03 -0.50658E+05
 0.11080000E+03 -0.67071E+05
 0.11085000E+03 -0.77637E+05
 0.11090000E+03 -0.83512E+05
 0.11095000E+03 -0.91547E+05
 0.11100000E+03 -0.10805E+06
 0.11105000E+03 -0.13397E+06
 0.11110000E+03 -0.16245E+06
 0.11115000E+03 -0.18439E+06
 0.11120000E+03 -0.19520E+06
 0.11125000E+03 -0.19516E+06
 0.11130000E+03 -0.18566E+06
 0.11135000E+03 -0.16860E+06
 0.11140000E+03 -0.14823E+06
 0.11145000E+03 -0.12809E+06
 0.11150000E+03 -0.11194E+06
 0.11155000E+03 -0.10561E+06
 0.11160000E+03 -0.10900E+06
 0.11165000E+03 -0.11571E+06
 0.11170000E+03 -0.12017E+06
 0.11175000E+03 -0.11617E+06
 0.11180000E+03 -0.10106E+06
 0.11185000E+03 -0.81428E+05
 0.11190000E+03 -0.63876E+05
 0.11195000E+03 -0.50557E+05
 0.11200000E+03 -0.42611E+05
 0.11205000E+03 -0.39378E+05
 0.11210000E+03 -0.40571E+05
 0.11215000E+03 -0.48414E+05
 0.11220000E+03 -0.62289E+05
 0.11225000E+03 -0.75199E+05
 0.11230000E+03 -0.80855E+05
 0.11235000E+03 -0.80667E+05
 0.11240000E+03 -0.79420E+05
 0.11245000E+03 -0.79579E+05
 0.11250000E+03 -0.79535E+05
 0.11255000E+03 -0.74517E+05
 0.11260000E+03 -0.61046E+05
 0.11265000E+03 -0.37447E+05
 0.11270000E+03 -0.25640E+04
 0.11275000E+03  0.41101E+05
 0.11280000E+03  0.86700E+05
 0.11285000E+03  0.12498E+06
 0.11290000E+03  0.14583E+06
 0.11295000E+03  0.14552E+06
 0.11300000E+03  0.13036E+06
 0.11305000E+03  0.10802E+06
 0.11310000E+03  0.81137E+05
 0.11315000E+03  0.51192E+05
 0.11320000E+03  0.22590E+05
 0.11325000E+03  0.83900E+03
 0.11330000E+03 -0.81510E+04
 0.11335000E+03 -0.17220E+04
 0.11340000E+03  0.14259E+05
 0.11345000E+03  0.32751E+05
 0.11350000E+03  0.51243E+05
 0.11355000E+03  0.66170E+05
 0.11360000E+03  0.72276E+05
 0.11365000E+03  0.67873E+05
 0.11370000E+03  0.53718E+05
 0.11375000E+03  0.30396E+05
 0.11380000E+03  0.12460E+04
 0.11385000E+03 -0.29489E+05
 0.11390000E+03 -0.59668E+05
 0.11395000E+03 -0.85445E+05
 0.11400000E+03 -0.10225E+06
 0.11405000E+03 -0.10865E+06
 0.11410000E+03 -0.10482E+06
 0.11415000E+03 -0.94720E+05
 0.11420000E+03 -0.87642E+05
 0.11425000E+03 -0.89546E+05
 0.11430000E+03 -0.99624E+05
 0.11435000E+03 -0.11273E+06
 0.11440000E+03 -0.11851E+06
 0.11445000E+03 -0.10910E+06
 0.11450000E+03 -0.87608E+05
 0.11455000E+03 -0.61182E+05
 0.11460000E+03 -0.34123E+05
 0.11465000E+03 -0.94020E+04
 0.11470000E+03  0.11770E+05
 0.11475000E+03  0.30499E+05
 0.11480000E+03  0.47203E+05
 0.11485000E+03  0.60175E+05
 0.11490000E+03  0.67871E+05
 0.11495000E+03  0.70095E+05
 0.11500000E+03  0.66102E+05
 0.11505000E+03  0.56085E+05
 0.11510000E+03  0.43342E+05
 0.11515000E+03  0.30899E+05
 0.11520000E+03  0.20624E+05
 0.11525000E+03  0.14634E+05
 0.11530000E+03  0.11555E+05
 0.11535000E+03  0.76650E+04
 0.11540000E+03  0.38550E+04
 0.11545000E+03  0.63880E+04
 0.11550000E+03  0.21467E+05
 0.11555000E+03  0.47415E+05
 0.11560000E+03  0.75883E+05
 0.11565000E+03  0.10185E+06
 0.11570000E+03  0.12203E+06
 0.11575000E+03  0.12948E+06
 0.11580000E+03  0.12140E+06
 0.11585000E+03  0.10492E+06
 0.11590000E+03  0.90348E+05
 0.11595000E+03  0.83031E+05
 0.11600000E+03  0.80438E+05
 0.11605000E+03  0.77722E+05
 0.11610000E+03  0.74083E+05
 0.11615000E+03  0.70102E+05
 0.11620000E+03  0.67386E+05
 0.11625000E+03  0.72383E+05
 0.11630000E+03  0.90425E+05
 0.11635000E+03  0.12048E+06
 0.11640000E+03  0.15899E+06
 0.11645000E+03  0.19900E+06
 0.11650000E+03  0.22962E+06
 0.11655000E+03  0.24153E+06
 0.11660000E+03  0.23127E+06
 0.11665000E+03  0.20393E+06
 0.11670000E+03  0.17157E+06
 0.11675000E+03  0.14526E+06
 0.11680000E+03  0.12943E+06
 0.11685000E+03  0.12456E+06
 0.11690000E+03  0.12707E+06
 0.11695000E+03  0.12938E+06
 0.11700000E+03  0.12776E+06
 0.11705000E+03  0.12508E+06
 0.11710000E+03  0.12683E+06
 0.11715000E+03  0.13491E+06
 0.11720000E+03  0.14325E+06
 0.11725000E+03  0.14339E+06
 0.11730000E+03  0.13032E+06
 0.11735000E+03  0.10140E+06
 0.11740000E+03  0.61690E+05
 0.11745000E+03  0.23930E+05
 0.11750000E+03 -0.60680E+04
 0.11755000E+03 -0.29906E+05
 0.11760000E+03 -0.47644E+05
 0.11765000E+03 -0.57016E+05
 0.11770000E+03 -0.55944E+05
 0.11775000E+03 -0.44622E+05
 0.11780000E+03 -0.25099E+05
 0.11785000E+03 -0.39730E+04
 0.11790000E+03  0.84450E+04
 0.11795000E+03  0.71820E+04
 0.11800000E+03 -0.58090E+04
 0.11805000E+03 -0.26771E+05
 0.11810000E+03 -0.52373E+05
 0.11815000E+03 -0.79097E+05
 0.11820000E+03 -0.10186E+06
 0.11825000E+03 -0.11656E+06
 0.11830000E+03 -0.12482E+06
 0.11835000E+03 -0.13137E+06
 0.11840000E+03 -0.13935E+06
 0.11845000E+03 -0.14966E+06
 0.11850000E+03 -0.16076E+06
 0.11855000E+03 -0.17149E+06
 0.11860000E+03 -0.18235E+06
 0.11865000E+03 -0.19487E+06
 0.11870000E+03 -0.20895E+06
 0.11875000E+03 -0.21775E+06
 0.11880000E+03 -0.21515E+06
 0.11885000E+03 -0.20357E+06
 0.11890000E+03 -0.18654E+06
 0.11895000E+03 -0.16440E+06
 0.11900000E+03 -0.13801E+06
 0.11905000E+03 -0.11058E+06
 0.11910000E+03 -0.85482E+05
 0.11915000E+03 -0.63518E+05
 0.11920000E+03 -0.43990E+05
 0.11925000E+03 -0.27785E+05
 0.11930000E+03 -0.17826E+05
 0.11935000E+03 -0.17241E+05
 0.11940000E+03 -0.25997E+05
 0.11945000E+03 -0.38061E+05
 0.11950000E+03 -0.45391E+05
 0.11955000E+03 -0.44762E+05
 0.11960000E+03 -0.39814E+05
 0.11965000E+03 -0.36054E+05
 0.11970000E+03 -0.34978E+05
 0.11975000E+03 -0.32792E+05
 0.11980000E+03 -0.24045E+05
 0.11985000E+03 -0.76420E+04
 0.11990000E+03  0.13579E+05
 0.11995000E+03  0.35062E+05
 0.12000000E+03  0.52693E+05
 0.12005000E+03  0.64018E+05
 0.12010000E+03  0.65595E+05
 0.12015000E+03  0.55729E+05
 0.12020000E+03  0.37208E+05
 0.12025000E+03  0.16450E+05
 0.12030000E+03 -0.40000E+02
 0.12035000E+03 -0.10507E+05
 0.12040000E+03 -0.16162E+05
 0.12045000E+03 -0.18679E+05
 0.12050000E+03 -0.19672E+05
 0.12055000E+03 -0.18481E+05
 0.12060000E+03 -0.10770E+05
 0.12065000E+03  0.68470E+04
 0.12070000E+03  0.32158E+05
 0.12075000E+03  0.60000E+05
 0.12080000E+03  0.83325E+05
 0.12085000E+03  0.96077E+05
 0.12090000E+03  0.97078E+05
 0.12095000E+03  0.85535E+05
 0.12100000E+03  0.59805E+05
 0.12105000E+03  0.21929E+05
 0.12110000E+03 -0.20730E+05
 0.12115000E+03 -0.59059E+05
 0.12120000E+03 -0.88267E+05
 0.12125000E+03 -0.10837E+06
 0.12130000E+03 -0.12137E+06
 0.12135000E+03 -0.12864E+06
 0.12140000E+03 -0.12930E+06
 0.12145000E+03 -0.12410E+06
 0.12150000E+03 -0.11802E+06
 0.12155000E+03 -0.11629E+06
 0.12160000E+03 -0.11889E+06
 0.12165000E+03 -0.12128E+06
 0.12170000E+03 -0.12109E+06
 0.12175000E+03 -0.11712E+06
 0.12180000E+03 -0.10791E+06
 0.12185000E+03 -0.94702E+05
 0.12190000E+03 -0.78949E+05
 0.12195000E+03 -0.60990E+05
 0.12200000E+03 -0.41009E+05
 0.12205000E+03 -0.19672E+05
 0.12210000E+03  0.65500E+03
 0.12215000E+03  0.17296E+05
 0.12220000E+03  0.29933E+05
 0.12225000E+03  0.41078E+05
 0.12230000E+03  0.52063E+05
 0.12235000E+03  0.60286E+05
 0.12240000E+03  0.63306E+05
 0.12245000E+03  0.60216E+05
 0.12250000E+03  0.50472E+05
 0.12255000E+03  0.37315E+05
 0.12260000E+03  0.25078E+05
 0.12265000E+03  0.13569E+05
 0.12270000E+03  0.20360E+04
 0.12275000E+03 -0.67920E+04
 0.12280000E+03 -0.79550E+04
 0.12285000E+03  0.11610E+04
 0.12290000E+03  0.16008E+05
 0.12295000E+03  0.29392E+05
 0.12300000E+03  0.38750E+05
 0.12305000E+03  0.46172E+05
 0.12310000E+03  0.54708E+05
 0.12315000E+03  0.63832E+05
 0.12320000E+03  0.71230E+05
 0.12325000E+03  0.76653E+05
 0.12330000E+03  0.80139E+05
 0.12335000E+03  0.81768E+05
 0.12340000E+03  0.80076E+05
 0.12345000E+03  0.72008E+05
 0.12350000E+03  0.56764E+05
 0.12355000E+03  0.35560E+05
 0.12360000E+03  0.12438E+05
 0.12365000E+03 -0.72530E+04
 0.12370000E+03 -0.21529E+05
 0.12375000E+03 -0.30322E+05
 0.12380000E+03 -0.31796E+05
 0.12385000E+03 -0.23152E+05
 0.12390000E+03 -0.48270E+04
 0.12395000E+03  0.20178E+05
 0.12400000E+03  0.49105E+05
 0.12405000E+03  0.78428E+05
 0.12410000E+03  0.10360E+06
 0.12415000E+03  0.12053E+06
 0.12420000E+03  0.12904E+06
 0.12425000E+03  0.13289E+06
 0.12430000E+03  0.13614E+06
 0.12435000E+03  0.14158E+06
 0.12440000E+03  0.14786E+06
 0.12445000E+03  0.14987E+06
 0.12450000E+03  0.14422E+06
 0.12455000E+03  0.13227E+06
 0.12460000E+03  0.11851E+06
 0.12465000E+03  0.10365E+06
 0.12470000E+03  0.83777E+05
 0.12475000E+03  0.57933E+05
 0.12480000E+03  0.30747E+05
 0.12485000E+03  0.97820E+04
 0.12490000E+03 -0.39400E+03
 0.12495000E+03 -0.91200E+03
 0.12500000E+03  0.60280E+04
 0.12505000E+03  0.17346E+05
 0.12510001E+03  0.28292E+05
 0.12515001E+03  0.35463E+05
 0.12520000E+03  0.35832E+05
 0.12525000E+03  0.26883E+05
 0.12530000E+03  0.87550E+04
 0.12535001E+03 -0.14948E+05
 0.12540001E+03 -0.37983E+05
 0.12545000E+03 -0.55334E+05
 0.12550000E+03 -0.64307E+05
 0.12555000E+03 -0.64616E+05
 0.12560001E+03 -0.58857E+05
 0.12565001E+03 -0.49934E+05
 0.12570000E+03 -0.40604E+05
 0.12575000E+03 -0.35331E+05
 0.12580000E+03 -0.37308E+05
 0.12585001E+03 -0.43924E+05
 0.12590001E+03 -0.50282E+05
 0.12595000E+03 -0.54793E+05
 0.12600000E+03 -0.58214E+05
 0.12605000E+03 -0.58876E+05
 0.12610001E+03 -0.52855E+05
 0.12615001E+03 -0.40567E+05
 0.12620000E+03 -0.27648E+05
 0.12625000E+03 -0.19025E+05
 0.12630000E+03 -0.15514E+05
 0.12635001E+03 -0.14596E+05
 0.12640001E+03 -0.12907E+05
 0.12645000E+03 -0.91010E+04
 0.12650000E+03 -0.38610E+04
 0.12655000E+03  0.25110E+04
 0.12660001E+03  0.90810E+04
 0.12665001E+03  0.13231E+05
 0.12670000E+03  0.12963E+05
 0.12675000E+03  0.71580E+04
 0.12680000E+03 -0.49530E+04
 0.12685001E+03 -0.21574E+05
 0.12690001E+03 -0.37819E+05
 0.12695000E+03 -0.48434E+05
 0.12700000E+03 -0.51052E+05
 0.12705000E+03 -0.47926E+05
 0.12710001E+03 -0.44546E+05
 0.12715001E+03 -0.46604E+05
 0.12720000E+03 -0.56113E+05
 0.12725000E+03 -0.70613E+05
 0.12730000E+03 -0.87183E+05
 0.12735001E+03 -0.10401E+06
 0.12740001E+03 -0.11812E+06
 0.12745000E+03 -0.12626E+06
 0.12750000E+03 -0.12737E+06
 0.12755000E+03 -0.12113E+06
 0.12760001E+03 -0.10739E+06
 0.12765001E+03 -0.88945E+05
 0.12770000E+03 -0.71734E+05
 0.12775000E+03 -0.61345E+05
 0.12780000E+03 -0.58955E+05
 0.12785001E+03 -0.60420E+05
 0.12790001E+03 -0.59759E+05
 0.12795000E+03 -0.54205E+05
 0.12800000E+03 -0.45465E+05
 0.12805000E+03 -0.36943E+05
 0.12810001E+03 -0.30211E+05
 0.12815001E+03 -0.23496E+05
 0.12820000E+03 -0.14585E+05
 0.12825000E+03 -0.38430E+04
 0.12830000E+03  0.56350E+04
 0.12835001E+03  0.11915E+05
 0.12840001E+03  0.18177E+05
 0.12845000E+03  0.28186E+05
 0.12850000E+03  0.41294E+05
 0.12855000E+03  0.55242E+05
 0.12860001E+03  0.71091E+05
 0.12865001E+03  0.92369E+05
 0.12870000E+03  0.11748E+06
 0.12875000E+03  0.13854E+06
 0.12880000E+03  0.14884E+06
 0.12885001E+03  0.14616E+06
 0.12890001E+03  0.13265E+06
 0.12895000E+03  0.11188E+06
 0.12900000E+03  0.85488E+05
 0.12905000E+03  0.56289E+05
 0.12910001E+03  0.28866E+05
 0.12915001E+03  0.68180E+04
 0.12920000E+03 -0.72810E+04
 0.12925000E+03 -0.12776E+05
 0.12930000E+03 -0.11226E+05
 0.12935001E+03 -0.56890E+04
 0.12940001E+03 -0.34100E+03
 0.12945000E+03  0.28130E+04
 0.12950000E+03  0.55130E+04
 0.12955000E+03  0.93300E+04
 0.12960001E+03  0.14030E+05
 0.12965001E+03  0.18293E+05
 0.12970000E+03  0.19698E+05
 0.12975000E+03  0.15807E+05
 0.12980000E+03  0.42240E+04
 0.12985001E+03 -0.14383E+05
 0.12990001E+03 -0.33657E+05
 0.12995000E+03 -0.47055E+05
 0.13000000E+03 -0.53025E+05
 0.13005000E+03 -0.54389E+05
 0.13010001E+03 -0.52550E+05
 0.13015001E+03 -0.45566E+05
 0.13020000E+03 -0.34204E+05
 0.13025000E+03 -0.20797E+05
 0.13030000E+03 -0.53040E+04
 0.13035001E+03  0.11327E+05
 0.13040001E+03  0.26375E+05
 0.13045000E+03  0.39106E+05
 0.13050000E+03  0.51644E+05
 0.13055000E+03  0.64538E+05
 0.13060001E+03  0.74739E+05
 0.13065001E+03  0.79511E+05
 0.13070000E+03  0.78766E+05
 0.13075000E+03  0.75643E+05
 0.13080000E+03  0.74054E+05
 0.13085001E+03  0.72050E+05
 0.13090001E+03  0.63530E+05
 0.13095000E+03  0.47720E+05
 0.13100000E+03  0.30042E+05
 0.13105000E+03  0.15492E+05
 0.13110001E+03  0.58880E+04
 0.13115001E+03  0.11270E+04
 0.13120000E+03  0.21900E+03
 0.13125000E+03  0.11560E+04
 0.13130000E+03  0.12760E+04
 0.13135001E+03 -0.17730E+04
 0.13140001E+03 -0.93940E+04
 0.13145000E+03 -0.21471E+05
 0.13150000E+03 -0.35403E+05
 0.13155000E+03 -0.45756E+05
 0.13160001E+03 -0.48213E+05
 0.13165001E+03 -0.43877E+05
 0.13170000E+03 -0.36626E+05
 0.13175000E+03 -0.28304E+05
 0.13180000E+03 -0.17229E+05
 0.13185001E+03 -0.14800E+03
 0.13190001E+03  0.23134E+05
 0.13195000E+03  0.47497E+05
 0.13200000E+03  0.65947E+05
 0.13205000E+03  0.73670E+05
 0.13210001E+03  0.68735E+05
 0.13215001E+03  0.52844E+05
 0.13220000E+03  0.30969E+05
 0.13225000E+03  0.81070E+04
 0.13230000E+03 -0.12939E+05
 0.13235001E+03 -0.33203E+05
 0.13240001E+03 -0.55912E+05
 0.13245000E+03 -0.80745E+05
 0.13250000E+03 -0.10308E+06
 0.13255000E+03 -0.11899E+06
 0.13260001E+03 -0.12899E+06
 0.13265001E+03 -0.13575E+06
 0.13270000E+03 -0.13885E+06
 0.13275000E+03 -0.13608E+06
 0.13280000E+03 -0.12829E+06
 0.13285001E+03 -0.11803E+06
 0.13290001E+03 -0.10486E+06
 0.13295000E+03 -0.86639E+05
 0.13300000E+03 -0.63806E+05
 0.13305000E+03 -0.37892E+05
 0.13310001E+03 -0.95660E+04
 0.13315001E+03  0.19086E+05
 0.13320000E+03  0.44339E+05
 0.13325000E+03  0.62615E+05
 0.13330000E+03  0.72553E+05
 0.13335001E+03  0.76050E+05
 0.13340001E+03  0.75779E+05
 0.13345000E+03  0.73420E+05
 0.13350000E+03  0.70397E+05
 0.13355000E+03  0.67887E+05
 0.13360001E+03  0.65773E+05
 0.13365001E+03  0.61787E+05
 0.13370000E+03  0.53062E+05
 0.13375000E+03  0.40039E+05
 0.13380000E+03  0.27011E+05
 0.13385001E+03  0.17268E+05
 0.13390001E+03  0.95730E+04
 0.13395000E+03  0.84100E+03
 0.13400000E+03 -0.10310E+05
 0.13405000E+03 -0.23003E+05
 0.13410001E+03 -0.35221E+05
 0.13415001E+03 -0.44797E+05
 0.13420000E+03 -0.48606E+05
 0.13425000E+03 -0.44326E+05
 0.13430000E+03 -0.33014E+05
 0.13435001E+03 -0.18063E+05
 0.13440001E+03 -0.35460E+04
 0.13445000E+03  0.86080E+04
 0.13450000E+03  0.18234E+05
 0.13455000E+03  0.23682E+05
 0.13460001E+03  0.24713E+05
 0.13465001E+03  0.24803E+05
 0.13470000E+03  0.26968E+05
 0.13475000E+03  0.31210E+05
 0.13480000E+03  0.36004E+05
 0.13485001E+03  0.40027E+05
 0.13490001E+03  0.42808E+05
 0.13495000E+03  0.43871E+05
 0.13500000E+03  0.41470E+05
 0.13505000E+03  0.33989E+05
 0.13510001E+03  0.21730E+05
 0.13515001E+03  0.71040E+04
 0.13520000E+03 -0.60510E+04
 0.13525000E+03 -0.15609E+05
 0.13530000E+03 -0.21796E+05
 0.13535001E+03 -0.24840E+05
 0.13540001E+03 -0.25846E+05
 0.13545000E+03 -0.27943E+05
 0.13550000E+03 -0.33974E+05
 0.13555000E+03 -0.43934E+05
 0.13560001E+03 -0.55175E+05
 0.13565001E+03 -0.63591E+05
 0.13570000E+03 -0.65987E+05
 0.13575000E+03 -0.62516E+05
 0.13580000E+03 -0.55091E+05
 0.13585001E+03 -0.45358E+05
 0.13590001E+03 -0.34082E+05
 0.13595000E+03 -0.20462E+05
 0.13600000E+03 -0.42590E+04
 0.13605000E+03  0.11468E+05
 0.13610001E+03  0.21833E+05
 0.13615001E+03  0.24574E+05
 0.13620000E+03  0.22319E+05
 0.13625000E+03  0.19194E+05
 0.13630000E+03  0.16916E+05
 0.13635001E+03  0.16301E+05
 0.13640001E+03  0.19810E+05
 0.13645000E+03  0.28746E+05
 0.13650000E+03  0.39206E+05
 0.13655000E+03  0.45494E+05
 0.13660001E+03  0.45825E+05
 0.13665001E+03  0.41769E+05
 0.13670000E+03  0.36516E+05
 0.13675000E+03  0.33988E+05
 0.13680000E+03  0.36700E+05
 0.13685001E+03  0.44675E+05
 0.13690001E+03  0.55754E+05
 0.13695000E+03  0.66933E+05
 0.13700000E+03  0.76002E+05
 0.13705000E+03  0.82840E+05
 0.13710001E+03  0.88693E+05
 0.13715001E+03  0.93437E+05
 0.13720000E+03  0.95956E+05
 0.13725000E+03  0.96162E+05
 0.13730000E+03  0.94559E+05
 0.13735001E+03  0.91417E+05
 0.13740001E+03  0.86654E+05
 0.13745000E+03  0.79947E+05
 0.13750000E+03  0.70988E+05
 0.13755000E+03  0.60090E+05
 0.13760001E+03  0.48434E+05
 0.13765001E+03  0.37457E+05
 0.13770000E+03  0.28193E+05
 0.13775000E+03  0.20187E+05
 0.13780000E+03  0.10913E+05
 0.13785001E+03 -0.22230E+04
 0.13790001E+03 -0.19902E+05
 0.13795000E+03 -0.41519E+05
 0.13800000E+03 -0.65806E+05
 0.13805000E+03 -0.90714E+05
 0.13810001E+03 -0.11314E+06
 0.13815001E+03 -0.12958E+06
 0.13820000E+03 -0.13820E+06
 0.13825000E+03 -0.13904E+06
 0.13830000E+03 -0.13346E+06
 0.13835001E+03 -0.12430E+06
 0.13840001E+03 -0.11498E+06
 0.13845000E+03 -0.10749E+06
 0.13850000E+03 -0.10242E+06
 0.13855000E+03 -0.99930E+05
 0.13860001E+03 -0.98659E+05
 0.13865001E+03 -0.95986E+05
 0.13870000E+03 -0.88873E+05
 0.13875000E+03 -0.75507E+05
 0.13880000E+03 -0.57869E+05
 0.13885001E+03 -0.40470E+05
 0.13890001E+03 -0.27756E+05
 0.13895000E+03 -0.22180E+05
 0.13900000E+03 -0.22048E+05
 0.13905000E+03 -0.22727E+05
 0.13910001E+03 -0.21402E+05
 0.13915001E+03 -0.18248E+05
 0.13920000E+03 -0.13837E+05
 0.13925000E+03 -0.88750E+04
 0.13930000E+03 -0.41090E+04
 0.13935001E+03  0.60400E+03
 0.13940001E+03  0.64900E+04
 0.13945000E+03  0.14477E+05
 0.13950000E+03  0.23620E+05
 0.13955000E+03  0.32636E+05
 0.13960001E+03  0.40795E+05
 0.13965001E+03  0.47927E+05
 0.13970000E+03  0.54397E+05
 0.13975000E+03  0.60017E+05
 0.13980000E+03  0.64530E+05
 0.13985001E+03  0.68108E+05
 0.13990001E+03  0.71158E+05
 0.13995000E+03  0.74039E+05
 0.14000000E+03  0.77478E+05
 0.14005000E+03  0.82469E+05
 0.14010001E+03  0.87911E+05
 0.14015001E+03  0.91336E+05
 0.14020000E+03  0.91477E+05
 0.14025000E+03  0.88982E+05
 0.14030000E+03  0.86567E+05
 0.14035001E+03  0.86113E+05
 0.14040001E+03  0.87335E+05
 0.14045000E+03  0.90291E+05
 0.14050000E+03  0.94114E+05
 0.14055000E+03  0.96108E+05
 0.14060001E+03  0.94838E+05
 0.14065001E+03  0.90293E+05
 0.14070000E+03  0.82519E+05
 0.14075000E+03  0.72224E+05
 0.14080000E+03  0.61261E+05
 0.14085001E+03  0.51583E+05
 0.14090001E+03  0.43627E+05
 0.14095000E+03  0.35899E+05
 0.14100000E+03  0.26012E+05
 0.14105000E+03  0.12545E+05
 0.14110001E+03 -0.47400E+04
 0.14115001E+03 -0.25836E+05
 0.14120000E+03 -0.49069E+05
 0.14125000E+03 -0.69994E+05
 0.14130000E+03 -0.84383E+05
 0.14135001E+03 -0.90878E+05
 0.14140001E+03 -0.90618E+05
 0.14145000E+03 -0.86862E+05
 0.14150000E+03 -0.82646E+05
 0.14155000E+03 -0.79052E+05
 0.14160001E+03 -0.76712E+05
 0.14165001E+03 -0.75849E+05
 0.14170000E+03 -0.77023E+05
 0.14175000E+03 -0.81180E+05
 0.14180000E+03 -0.87254E+05
 0.14185001E+03 -0.92011E+05
 0.14190001E+03 -0.92198E+05
 0.14195000E+03 -0.86694E+05
 0.14200000E+03 -0.76837E+05
 0.14205000E+03 -0.65606E+05
 0.14210001E+03 -0.56557E+05
 0.14215001E+03 -0.53677E+05
 0.14220000E+03 -0.59754E+05
 0.14225000E+03 -0.71956E+05
 0.14230000E+03 -0.84621E+05
 0.14235001E+03 -0.95251E+05
 0.14240001E+03 -0.10282E+06
 0.14245000E+03 -0.10604E+06
 0.14250000E+03 -0.10502E+06
 0.14255000E+03 -0.10034E+06
 0.14260001E+03 -0.91254E+05
 0.14265001E+03 -0.77752E+05
 0.14270000E+03 -0.62693E+05
 0.14275000E+03 -0.50460E+05
 0.14280000E+03 -0.44611E+05
 0.14285001E+03 -0.45954E+05
 0.14290001E+03 -0.52040E+05
 0.14295000E+03 -0.59476E+05
 0.14300000E+03 -0.66242E+05
 0.14305000E+03 -0.71627E+05
 0.14310001E+03 -0.75346E+05
 0.14315001E+03 -0.76680E+05
 0.14320000E+03 -0.74667E+05
 0.14325000E+03 -0.69602E+05
 0.14330000E+03 -0.62812E+05
 0.14335001E+03 -0.55310E+05
 0.14340001E+03 -0.47110E+05
 0.14345000E+03 -0.37059E+05
 0.14350000E+03 -0.24260E+05
 0.14355000E+03 -0.91970E+04
 0.14360001E+03  0.68290E+04
 0.14365001E+03  0.23040E+05
 0.14370000E+03  0.40273E+05
 0.14375000E+03  0.58294E+05
 0.14380000E+03  0.73716E+05
 0.14385001E+03  0.83494E+05
 0.14390001E+03  0.87515E+05
 0.14395000E+03  0.87051E+05
 0.14400000E+03  0.82916E+05
 0.14405000E+03  0.76568E+05
 0.14410001E+03  0.71390E+05
 0.14415001E+03  0.70159E+05
 0.14420000E+03  0.73019E+05
 0.14425000E+03  0.78472E+05
 0.14430000E+03  0.84715E+05
 0.14435001E+03  0.90210E+05
 0.14440001E+03  0.93558E+05
 0.14445000E+03  0.94136E+05
 0.14450000E+03  0.92074E+05
 0.14455000E+03  0.86632E+05
 0.14460001E+03  0.76667E+05
 0.14465001E+03  0.62392E+05
 0.14470000E+03  0.46068E+05
 0.14475000E+03  0.31086E+05
 0.14480000E+03  0.19968E+05
 0.14485001E+03  0.13840E+05
 0.14490001E+03  0.13182E+05
 0.14495000E+03  0.18028E+05
 0.14500000E+03  0.27239E+05
 0.14505000E+03  0.38165E+05
 0.14510001E+03  0.47687E+05
 0.14515001E+03  0.53145E+05
 0.14520000E+03  0.52550E+05
 0.14525000E+03  0.45967E+05
 0.14530000E+03  0.36144E+05
 0.14535001E+03  0.26438E+05
 0.14540001E+03  0.19247E+05
 0.14545000E+03  0.14864E+05
 0.14550000E+03  0.11671E+05
 0.14555000E+03  0.80440E+04
 0.14560001E+03  0.33410E+04
 0.14565001E+03 -0.15780E+04
 0.14570000E+03 -0.57820E+04
 0.14575000E+03 -0.91480E+04
 0.14580000E+03 -0.11115E+05
 0.14585001E+03 -0.11848E+05
 0.14590001E+03 -0.13049E+05
 0.14595000E+03 -0.16757E+05
 0.14600000E+03 -0.23778E+05
 0.14605000E+03 -0.32660E+05
 0.14610001E+03 -0.42306E+05
 0.14615001E+03 -0.53215E+05
 0.14620000E+03 -0.65310E+05
 0.14625000E+03 -0.77767E+05
 0.14630000E+03 -0.88787E+05
 0.14635001E+03 -0.96025E+05
 0.14640001E+03 -0.98513E+05
 0.14645000E+03 -0.96527E+05
 0.14650000E+03 -0.90724E+05
 0.14655000E+03 -0.81593E+05
 0.14660001E+03 -0.69926E+05
 0.14665001E+03 -0.57290E+05
 0.14670000E+03 -0.44589E+05
 0.14675000E+03 -0.31629E+05
 0.14680000E+03 -0.18208E+05
 0.14685001E+03 -0.39150E+04
 0.14690001E+03  0.11780E+05
 0.14695000E+03  0.27313E+05
 0.14700000E+03  0.39232E+05
 0.14705000E+03  0.44994E+05
 0.14710001E+03  0.44124E+05
 0.14715001E+03  0.39308E+05
 0.14720000E+03  0.34810E+05
 0.14725000E+03  0.31598E+05
 0.14730000E+03  0.27769E+05
 0.14735001E+03  0.22203E+05
 0.14740001E+03  0.15559E+05
 0.14745000E+03  0.10349E+05
 0.14750000E+03  0.95900E+04
 0.14755000E+03  0.14183E+05
 0.14760001E+03  0.21911E+05
 0.14765001E+03  0.29939E+05
 0.14770000E+03  0.37752E+05
 0.14775000E+03  0.45529E+05
 0.14780000E+03  0.52255E+05
 0.14785001E+03  0.56971E+05
 0.14790001E+03  0.58803E+05
 0.14795000E+03  0.57106E+05
 0.14800000E+03  0.53469E+05
 0.14805000E+03  0.50764E+05
 0.14810001E+03  0.49743E+05
 0.14815001E+03  0.49550E+05
 0.14820000E+03  0.50061E+05
 0.14825000E+03  0.50708E+05
 0.14830000E+03  0.49783E+05
 0.14835001E+03  0.46108E+05
 0.14840001E+03  0.39812E+05
 0.14845000E+03  0.31652E+05
 0.14850000E+03  0.21191E+05
 0.14855000E+03  0.68790E+04
 0.14860001E+03 -0.10775E+05
 0.14865001E+03 -0.28060E+05
 0.14870000E+03 -0.40220E+05
 0.14875000E+03 -0.43910E+05
 0.14880000E+03 -0.39472E+05
 0.14885001E+03 -0.31172E+05
 0.14890001E+03 -0.24175E+05
 0.14895000E+03 -0.21508E+05
 0.14900000E+03 -0.22661E+05
 0.14905000E+03 -0.24240E+05
 0.14910001E+03 -0.22778E+05
 0.14915001E+03 -0.17725E+05
 0.14920000E+03 -0.11583E+05
 0.14925000E+03 -0.70300E+04
 0.14930000E+03 -0.53590E+04
 0.14935001E+03 -0.63910E+04
 0.14940001E+03 -0.83730E+04
 0.14945000E+03 -0.98140E+04
 0.14950000E+03 -0.10381E+05
 0.14955000E+03 -0.95020E+04
 0.14960001E+03 -0.60400E+04
 0.14965001E+03  0.72400E+03
 0.14970000E+03  0.94700E+04
 0.14975000E+03  0.17824E+05
 0.14980000E+03  0.25587E+05
 0.14985001E+03  0.33981E+05
 0.14990001E+03  0.42497E+05
 0.14995000E+03  0.49054E+05
