-0.38800001E+01  0.23458E+05
-0.38300002E+01  0.21265E+05
-0.37800002E+01  0.17548E+05
-0.37300000E+01  0.12549E+05
-0.36800001E+01  0.73980E+04
-0.36300001E+01  0.27790E+04
-0.35800002E+01 -0.78000E+03
-0.35300002E+01 -0.33180E+04
-0.34800000E+01 -0.60500E+04
-0.34300001E+01 -0.98010E+04
-0.33800001E+01 -0.13746E+05
-0.33300002E+01 -0.16783E+05
-0.32800002E+01 -0.18873E+05
-0.32300000E+01 -0.20926E+05
-0.31800001E+01 -0.23408E+05
-0.31300001E+01 -0.25880E+05
-0.30800002E+01 -0.27648E+05
-0.30300002E+01 -0.28576E+05
-0.29800000E+01 -0.29081E+05
-0.29300001E+01 -0.28683E+05
-0.28800001E+01 -0.26174E+05
-0.28299999E+01 -0.20967E+05
-0.27800002E+01 -0.13976E+05
-0.27300000E+01 -0.75960E+04
-0.26800001E+01 -0.43460E+04
-0.26300001E+01 -0.47570E+04
-0.25799999E+01 -0.72470E+04
-0.25300002E+01 -0.10897E+05
-0.24800000E+01 -0.15866E+05
-0.24300001E+01 -0.22117E+05
-0.23800001E+01 -0.29418E+05
-0.23299999E+01 -0.36978E+05
-0.22800002E+01 -0.43428E+05
-0.22300000E+01 -0.47250E+05
-0.21800001E+01 -0.48256E+05
-0.21300001E+01 -0.48159E+05
-0.20799999E+01 -0.47818E+05
-0.20300002E+01 -0.46399E+05
-0.19800001E+01 -0.43196E+05
-0.19300001E+01 -0.37998E+05
-0.18800001E+01 -0.30731E+05
-0.18300002E+01 -0.21942E+05
-0.17800000E+01 -0.12883E+05
-0.17300000E+01 -0.44840E+04
-0.16800001E+01  0.33290E+04
-0.16300001E+01  0.10884E+05
-0.15800002E+01  0.17750E+05
-0.15300000E+01  0.23036E+05
-0.14800000E+01  0.26586E+05
-0.14300001E+01  0.29198E+05
-0.13800001E+01  0.30821E+05
-0.13300002E+01  0.30596E+05
-0.12800000E+01  0.28378E+05
-0.12300000E+01  0.24389E+05
-0.11800001E+01  0.19350E+05
-0.11300001E+01  0.14218E+05
-0.10800002E+01  0.10037E+05
-0.10300000E+01  0.69880E+04
-0.98000002E+00  0.38810E+04
-0.93000007E+00  0.37400E+03
-0.88000011E+00 -0.33410E+04
-0.83000016E+00 -0.65480E+04
-0.77999997E+00 -0.85200E+04
-0.73000002E+00 -0.98270E+04
-0.68000007E+00 -0.11145E+05
-0.63000011E+00 -0.12713E+05
-0.58000016E+00 -0.13791E+05
-0.52999997E+00 -0.13756E+05
-0.48000002E+00 -0.13304E+05
-0.43000007E+00 -0.13674E+05
-0.38000011E+00 -0.15348E+05
-0.33000016E+00 -0.17899E+05
-0.27999997E+00 -0.21525E+05
-0.23000002E+00 -0.26300E+05
-0.18000007E+00 -0.31651E+05
-0.13000011E+00 -0.37180E+05
-0.80000162E-01 -0.42332E+05
-0.29999971E-01 -0.46977E+05
 0.19999981E-01 -0.51050E+05
 0.69999933E-01 -0.54000E+05
 0.11999989E+00 -0.55807E+05
 0.17000008E+00 -0.56577E+05
 0.21999979E+00 -0.56293E+05
 0.26999998E+00 -0.55316E+05
 0.32000017E+00 -0.53864E+05
 0.36999989E+00 -0.52005E+05
 0.42000008E+00 -0.49899E+05
 0.46999979E+00 -0.47718E+05
 0.51999998E+00 -0.45692E+05
 0.57000017E+00 -0.43433E+05
 0.61999989E+00 -0.40482E+05
 0.67000008E+00 -0.36814E+05
 0.71999979E+00 -0.32669E+05
 0.76999998E+00 -0.29397E+05
 0.82000017E+00 -0.27657E+05
 0.86999989E+00 -0.26746E+05
 0.92000008E+00 -0.26201E+05
 0.96999979E+00 -0.25185E+05
 0.10200000E+01 -0.22932E+05
 0.10700002E+01 -0.19479E+05
 0.11199999E+01 -0.14381E+05
 0.11700001E+01 -0.70350E+04
 0.12199998E+01  0.20780E+04
 0.12700000E+01  0.12031E+05
 0.13200002E+01  0.21552E+05
 0.13699999E+01  0.29699E+05
 0.14200001E+01  0.36805E+05
 0.14699998E+01  0.43077E+05
 0.15200000E+01  0.48061E+05
 0.15700002E+01  0.51856E+05
 0.16199999E+01  0.55314E+05
 0.16700001E+01  0.58541E+05
 0.17199998E+01  0.61020E+05
 0.17700000E+01  0.62817E+05
 0.18200002E+01  0.63873E+05
 0.18699999E+01  0.63665E+05
 0.19200001E+01  0.62618E+05
 0.19699998E+01  0.61970E+05
 0.20200000E+01  0.61519E+05
 0.20700002E+01  0.59750E+05
 0.21199999E+01  0.55888E+05
 0.21700001E+01  0.50195E+05
 0.22199998E+01  0.43228E+05
 0.22700000E+01  0.35583E+05
 0.23200002E+01  0.27915E+05
 0.23699999E+01  0.20227E+05
 0.24200001E+01  0.11820E+05
 0.24699998E+01  0.26120E+04
 0.25200000E+01 -0.65770E+04
 0.25700002E+01 -0.14286E+05
 0.26199999E+01 -0.19315E+05
 0.26700001E+01 -0.21798E+05
 0.27199998E+01 -0.22962E+05
 0.27700000E+01 -0.24186E+05
 0.28200002E+01 -0.26197E+05
 0.28699999E+01 -0.29000E+05
 0.29200001E+01 -0.31372E+05
 0.29699998E+01 -0.31317E+05
 0.30200000E+01 -0.28172E+05
 0.30700002E+01 -0.23595E+05
 0.31199999E+01 -0.19324E+05
 0.31700001E+01 -0.15634E+05
 0.32199998E+01 -0.12860E+05
 0.32700000E+01 -0.11075E+05
 0.33200002E+01 -0.10356E+05
 0.33699999E+01 -0.10938E+05
 0.34200001E+01 -0.12288E+05
 0.34699998E+01 -0.14153E+05
 0.35200000E+01 -0.15917E+05
 0.35700002E+01 -0.16870E+05
 0.36199999E+01 -0.16870E+05
 0.36700001E+01 -0.14987E+05
 0.37199998E+01 -0.10467E+05
 0.37700000E+01 -0.31460E+04
 0.38200002E+01  0.69980E+04
 0.38699999E+01  0.18795E+05
 0.39200001E+01  0.30524E+05
 0.39699998E+01  0.40750E+05
 0.40200000E+01  0.48002E+05
 0.40700002E+01  0.51919E+05
 0.41199999E+01  0.53594E+05
 0.41700001E+01  0.53649E+05
 0.42200003E+01  0.51559E+05
 0.42700005E+01  0.46790E+05
 0.43199997E+01  0.39516E+05
 0.43699999E+01  0.30362E+05
 0.44200001E+01  0.20272E+05
 0.44700003E+01  0.98490E+04
 0.45200005E+01 -0.22000E+03
 0.45699997E+01 -0.81260E+04
 0.46199999E+01 -0.13213E+05
 0.46700001E+01 -0.15963E+05
 0.47200003E+01 -0.16329E+05
 0.47700005E+01 -0.15174E+05
 0.48199997E+01 -0.13598E+05
 0.48699999E+01 -0.11767E+05
 0.49200001E+01 -0.99170E+04
 0.49700003E+01 -0.78750E+04
 0.50200005E+01 -0.44340E+04
 0.50699997E+01  0.92200E+03
 0.51199999E+01  0.74270E+04
 0.51700001E+01  0.14101E+05
 0.52200003E+01  0.19686E+05
 0.52700005E+01  0.23237E+05
 0.53199997E+01  0.24641E+05
 0.53699999E+01  0.24946E+05
 0.54200001E+01  0.26731E+05
 0.54700003E+01  0.31180E+05
 0.55200005E+01  0.36640E+05
 0.55699997E+01  0.40983E+05
 0.56199999E+01  0.43259E+05
 0.56700001E+01  0.43764E+05
 0.57200003E+01  0.43297E+05
 0.57700005E+01  0.42739E+05
 0.58199997E+01  0.42589E+05
 0.58699999E+01  0.42461E+05
 0.59200001E+01  0.41174E+05
 0.59700003E+01  0.37808E+05
 0.60200005E+01  0.32571E+05
 0.60699997E+01  0.25766E+05
 0.61199999E+01  0.17896E+05
 0.61700001E+01  0.10120E+05
 0.62200003E+01  0.24580E+04
 0.62700005E+01 -0.53960E+04
 0.63199997E+01 -0.12966E+05
 0.63699999E+01 -0.20516E+05
 0.64200001E+01 -0.28282E+05
 0.64700003E+01 -0.35660E+05
 0.65200005E+01 -0.41930E+05
 0.65699997E+01 -0.46598E+05
 0.66199999E+01 -0.49137E+05
 0.66700001E+01 -0.49384E+05
 0.67200003E+01 -0.48091E+05
 0.67700005E+01 -0.45851E+05
 0.68199997E+01 -0.42726E+05
 0.68699999E+01 -0.38539E+05
 0.69200001E+01 -0.33222E+05
 0.69700003E+01 -0.26921E+05
 0.70200005E+01 -0.19860E+05
 0.70699997E+01 -0.12440E+05
 0.71199999E+01 -0.48020E+04
 0.71700001E+01  0.25680E+04
 0.72200003E+01  0.85370E+04
 0.72700005E+01  0.12390E+05
 0.73199997E+01  0.14194E+05
 0.73699999E+01  0.14193E+05
 0.74200001E+01  0.12818E+05
 0.74700003E+01  0.11015E+05
 0.75200005E+01  0.93400E+04
 0.75699997E+01  0.73290E+04
 0.76199999E+01  0.42940E+04
 0.76700001E+01  0.53200E+03
 0.77200003E+01 -0.28710E+04
 0.77700005E+01 -0.48200E+04
 0.78199997E+01 -0.51680E+04
 0.78699999E+01 -0.52930E+04
 0.79200001E+01 -0.65780E+04
 0.79700003E+01 -0.90250E+04
 0.80200005E+01 -0.11413E+05
 0.80699997E+01 -0.12494E+05
 0.81199999E+01 -0.11601E+05
 0.81700001E+01 -0.91400E+04
 0.82200003E+01 -0.68740E+04
 0.82700005E+01 -0.54250E+04
 0.83199997E+01 -0.38830E+04
 0.83699999E+01 -0.22440E+04
 0.84200001E+01 -0.88200E+03
 0.84700003E+01 -0.52000E+02
 0.85200005E+01 -0.20300E+03
 0.85699997E+01 -0.80200E+03
 0.86199999E+01 -0.11920E+04
 0.86700001E+01 -0.16110E+04
 0.87200003E+01 -0.18940E+04
 0.87700005E+01 -0.19250E+04
 0.88199997E+01 -0.23220E+04
 0.88699999E+01 -0.27690E+04
 0.89200001E+01 -0.25390E+04
 0.89700003E+01 -0.19420E+04
 0.90200005E+01 -0.20710E+04
 0.90699997E+01 -0.42720E+04
 0.91199999E+01 -0.88060E+04
 0.91700001E+01 -0.14412E+05
 0.92200003E+01 -0.19631E+05
 0.92700005E+01 -0.24026E+05
 0.93199997E+01 -0.27664E+05
 0.93699999E+01 -0.30738E+05
 0.94200001E+01 -0.33349E+05
 0.94700003E+01 -0.34899E+05
 0.95200005E+01 -0.35060E+05
 0.95699997E+01 -0.33552E+05
 0.96199999E+01 -0.29853E+05
 0.96700001E+01 -0.24057E+05
 0.97200003E+01 -0.17026E+05
 0.97700005E+01 -0.10109E+05
 0.98199997E+01 -0.41030E+04
 0.98699999E+01  0.13790E+04
 0.99200001E+01  0.71030E+04
 0.99700003E+01  0.12922E+05
 0.10020000E+02  0.18160E+05
 0.10070000E+02  0.22509E+05
 0.10120000E+02  0.25639E+05
 0.10170000E+02  0.27405E+05
 0.10220000E+02  0.28164E+05
 0.10270000E+02  0.28498E+05
 0.10320000E+02  0.29319E+05
 0.10370000E+02  0.31446E+05
 0.10420000E+02  0.34604E+05
 0.10470000E+02  0.37832E+05
 0.10520000E+02  0.40304E+05
 0.10570000E+02  0.41282E+05
 0.10620000E+02  0.40204E+05
 0.10670000E+02  0.36966E+05
 0.10720000E+02  0.31746E+05
 0.10770000E+02  0.25040E+05
 0.10820000E+02  0.17965E+05
 0.10870000E+02  0.11166E+05
 0.10920000E+02  0.45250E+04
 0.10970000E+02 -0.17470E+04
 0.11020000E+02 -0.69600E+04
 0.11070000E+02 -0.10717E+05
 0.11120000E+02 -0.13255E+05
 0.11170000E+02 -0.14743E+05
 0.11220000E+02 -0.15352E+05
 0.11270000E+02 -0.15167E+05
 0.11320000E+02 -0.13820E+05
 0.11370000E+02 -0.11448E+05
 0.11420000E+02 -0.85820E+04
 0.11470000E+02 -0.52750E+04
 0.11520000E+02 -0.10020E+04
 0.11570000E+02  0.45960E+04
 0.11620000E+02  0.10471E+05
 0.11670000E+02  0.15080E+05
 0.11720000E+02  0.17742E+05
 0.11770000E+02  0.18616E+05
 0.11820000E+02  0.18385E+05
 0.11870000E+02  0.17405E+05
 0.11920000E+02  0.15520E+05
 0.11970000E+02  0.12548E+05
 0.12020000E+02  0.87950E+04
 0.12070000E+02  0.52070E+04
 0.12120000E+02  0.23840E+04
 0.12170001E+02 -0.97000E+02
 0.12220000E+02 -0.33670E+04
 0.12270000E+02 -0.85220E+04
 0.12320001E+02 -0.15029E+05
 0.12370000E+02 -0.21015E+05
 0.12420001E+02 -0.25929E+05
 0.12470000E+02 -0.30072E+05
 0.12520000E+02 -0.33569E+05
 0.12570001E+02 -0.36712E+05
 0.12620000E+02 -0.38866E+05
 0.12670001E+02 -0.39855E+05
 0.12720000E+02 -0.40961E+05
 0.12770000E+02 -0.42383E+05
 0.12820001E+02 -0.43441E+05
 0.12870000E+02 -0.43854E+05
 0.12920001E+02 -0.43568E+05
 0.12970000E+02 -0.43468E+05
 0.13020000E+02 -0.43724E+05
 0.13070001E+02 -0.43165E+05
 0.13120000E+02 -0.41436E+05
 0.13170001E+02 -0.38898E+05
 0.13220000E+02 -0.36199E+05
 0.13270000E+02 -0.33478E+05
 0.13320001E+02 -0.30655E+05
 0.13370000E+02 -0.28457E+05
 0.13420001E+02 -0.27256E+05
 0.13470000E+02 -0.26794E+05
 0.13520000E+02 -0.26165E+05
 0.13570001E+02 -0.24168E+05
 0.13620000E+02 -0.20870E+05
 0.13670001E+02 -0.16871E+05
 0.13720000E+02 -0.12238E+05
 0.13770000E+02 -0.69050E+04
 0.13820001E+02 -0.69200E+03
 0.13870000E+02  0.61870E+04
 0.13920001E+02  0.13272E+05
 0.13970000E+02  0.20391E+05
 0.14020000E+02  0.27104E+05
 0.14070001E+02  0.33329E+05
 0.14120000E+02  0.39642E+05
 0.14170001E+02  0.45855E+05
 0.14220000E+02  0.51025E+05
 0.14270000E+02  0.54730E+05
 0.14320001E+02  0.56922E+05
 0.14370000E+02  0.57569E+05
 0.14420001E+02  0.56986E+05
 0.14470000E+02  0.54847E+05
 0.14520000E+02  0.50548E+05
 0.14570001E+02  0.44336E+05
 0.14620000E+02  0.37257E+05
 0.14670001E+02  0.30843E+05
 0.14720000E+02  0.25824E+05
 0.14770000E+02  0.22178E+05
 0.14820001E+02  0.19760E+05
 0.14870000E+02  0.18442E+05
 0.14920001E+02  0.17981E+05
 0.14970000E+02  0.17513E+05
 0.15020000E+02  0.16318E+05
 0.15070001E+02  0.14909E+05
 0.15120000E+02  0.14123E+05
 0.15170001E+02  0.13886E+05
 0.15220000E+02  0.14093E+05
 0.15270000E+02  0.14630E+05
 0.15320001E+02  0.15247E+05
 0.15370000E+02  0.15999E+05
 0.15420001E+02  0.16814E+05
 0.15470000E+02  0.17530E+05
 0.15520000E+02  0.17962E+05
 0.15570001E+02  0.18453E+05
 0.15620000E+02  0.19536E+05
 0.15670001E+02  0.20788E+05
 0.15720000E+02  0.21312E+05
 0.15770000E+02  0.20578E+05
 0.15820001E+02  0.18620E+05
 0.15870000E+02  0.16057E+05
 0.15920001E+02  0.13817E+05
 0.15970000E+02  0.11937E+05
 0.16020000E+02  0.95820E+04
 0.16070000E+02  0.66160E+04
 0.16119999E+02  0.36820E+04
 0.16170002E+02  0.12300E+04
 0.16220001E+02 -0.11210E+04
 0.16270000E+02 -0.39250E+04
 0.16320000E+02 -0.65990E+04
 0.16369999E+02 -0.82360E+04
 0.16420002E+02 -0.86520E+04
 0.16470001E+02 -0.79780E+04
 0.16520000E+02 -0.67060E+04
 0.16570000E+02 -0.53840E+04
 0.16619999E+02 -0.39050E+04
 0.16670002E+02 -0.18260E+04
 0.16720001E+02  0.13420E+04
 0.16770000E+02  0.59660E+04
 0.16820000E+02  0.11394E+05
 0.16869999E+02  0.16399E+05
 0.16920002E+02  0.20323E+05
 0.16970001E+02  0.22428E+05
 0.17020000E+02  0.22441E+05
 0.17070000E+02  0.20917E+05
 0.17119999E+02  0.17529E+05
 0.17170002E+02  0.12050E+05
 0.17220001E+02  0.53500E+04
 0.17270000E+02 -0.22340E+04
 0.17320000E+02 -0.10373E+05
 0.17369999E+02 -0.18287E+05
 0.17420002E+02 -0.26145E+05
 0.17470001E+02 -0.34401E+05
 0.17520000E+02 -0.42981E+05
 0.17570000E+02 -0.51382E+05
 0.17619999E+02 -0.58809E+05
 0.17670002E+02 -0.65240E+05
 0.17720001E+02 -0.70423E+05
 0.17770000E+02 -0.73526E+05
 0.17820000E+02 -0.74111E+05
 0.17869999E+02 -0.71997E+05
 0.17920002E+02 -0.67776E+05
 0.17970001E+02 -0.61828E+05
 0.18020000E+02 -0.54719E+05
 0.18070000E+02 -0.46821E+05
 0.18119999E+02 -0.36903E+05
 0.18170002E+02 -0.22628E+05
 0.18220001E+02 -0.10070E+04
 0.18270000E+02  0.30734E+05
 0.18320000E+02  0.69482E+05
 0.18369999E+02  0.10847E+06
 0.18420002E+02  0.14104E+06
 0.18470001E+02  0.15542E+06
 0.18520000E+02  0.14887E+06
 0.18570000E+02  0.11536E+06
 0.18619999E+02  0.47731E+05
 0.18670002E+02 -0.35202E+05
 0.18720001E+02 -0.96564E+05
 0.18770000E+02 -0.10332E+06
 0.18820000E+02 -0.72637E+05
 0.18869999E+02 -0.29415E+05
 0.18920002E+02  0.11074E+05
 0.18970001E+02  0.64610E+04
 0.19020000E+02  0.78240E+04
 0.19070000E+02  0.89906E+05
 0.19119999E+02  0.13091E+06
 0.19170002E+02  0.16778E+06
 0.19220001E+02  0.40056E+06
 0.19270000E+02  0.61286E+06
 0.19320000E+02  0.69468E+06
 0.19369999E+02  0.61186E+06
 0.19420002E+02  0.13781E+06
 0.19470001E+02 -0.37081E+06
 0.19520000E+02 -0.64456E+06
 0.19570000E+02 -0.80610E+06
 0.19619999E+02 -0.94651E+06
 0.19670002E+02 -0.12463E+07
 0.19720001E+02 -0.15016E+07
 0.19770000E+02 -0.14090E+07
 0.19820000E+02 -0.11072E+07
 0.19869999E+02 -0.87540E+06
 0.19920002E+02 -0.71641E+06
 0.19970001E+02 -0.52621E+06
 0.20020000E+02 -0.73082E+05
 0.20070000E+02  0.74573E+06
 0.20119999E+02  0.11610E+07
 0.20170002E+02  0.13556E+07
 0.20220001E+02  0.15069E+07
 0.20270000E+02  0.10484E+07
 0.20320000E+02  0.99587E+06
 0.20369999E+02  0.81605E+06
 0.20420002E+02  0.98923E+05
 0.20470001E+02  0.39900E+04
 0.20520000E+02 -0.10882E+06
 0.20570000E+02  0.34925E+05
 0.20619999E+02  0.15714E+06
 0.20670002E+02 -0.25784E+06
 0.20720001E+02 -0.90874E+05
 0.20770000E+02  0.83389E+05
 0.20820000E+02  0.44251E+06
 0.20869999E+02  0.11165E+07
 0.20920002E+02  0.90710E+06
 0.20970001E+02  0.45972E+06
 0.21020000E+02  0.21836E+06
 0.21070000E+02 -0.71211E+05
 0.21119999E+02 -0.19018E+06
 0.21170002E+02 -0.34483E+06
 0.21220001E+02 -0.66298E+06
 0.21270000E+02 -0.11122E+07
 0.21320000E+02 -0.17415E+07
 0.21369999E+02 -0.19988E+07
 0.21420002E+02 -0.17189E+07
 0.21470001E+02 -0.12046E+07
 0.21520000E+02 -0.54265E+06
 0.21570000E+02 -0.11332E+06
 0.21619999E+02 -0.23632E+06
 0.21670002E+02 -0.51516E+06
 0.21720001E+02 -0.30127E+06
 0.21770000E+02 -0.42540E+04
 0.21820000E+02  0.34161E+06
 0.21869999E+02  0.43036E+06
 0.21920002E+02  0.15388E+05
 0.21970001E+02  0.23453E+06
 0.22020000E+02  0.46802E+06
 0.22070000E+02  0.27074E+06
 0.22119999E+02  0.19092E+06
 0.22170002E+02  0.27601E+06
 0.22220001E+02  0.25814E+06
 0.22270000E+02  0.13312E+06
 0.22320000E+02  0.15515E+06
 0.22369999E+02 -0.38657E+05
 0.22420002E+02  0.59893E+06
 0.22470001E+02  0.15319E+07
 0.22520000E+02  0.14337E+07
 0.22570000E+02  0.11875E+07
 0.22619999E+02  0.65301E+06
 0.22670002E+02  0.32442E+06
 0.22720001E+02  0.59138E+06
 0.22770000E+02  0.32196E+05
 0.22820000E+02 -0.11235E+07
 0.22869999E+02 -0.16046E+07
 0.22920002E+02 -0.18549E+07
 0.22970001E+02 -0.17951E+07
 0.23020000E+02 -0.15123E+07
 0.23070000E+02 -0.14173E+07
 0.23119999E+02  0.71938E+06
 0.23170002E+02  0.16516E+07
 0.23220001E+02  0.12904E+05
 0.23270000E+02  0.77754E+06
 0.23320000E+02  0.95102E+06
 0.23369999E+02  0.32559E+06
 0.23420002E+02  0.11004E+07
 0.23470001E+02  0.33951E+06
 0.23520000E+02 -0.18974E+06
 0.23570000E+02  0.37600E+06
 0.23619999E+02 -0.22568E+06
 0.23670002E+02 -0.10907E+07
 0.23720001E+02 -0.81526E+06
 0.23770000E+02 -0.17759E+05
 0.23820000E+02 -0.30271E+06
 0.23869999E+02 -0.11128E+07
 0.23920002E+02 -0.69793E+06
 0.23970001E+02 -0.17986E+06
 0.24020000E+02  0.80838E+06
 0.24070000E+02  0.24250E+07
 0.24119999E+02  0.14967E+07
 0.24170002E+02 -0.94185E+06
 0.24220001E+02 -0.20111E+07
 0.24270000E+02 -0.22763E+07
 0.24320000E+02 -0.17507E+07
 0.24369999E+02  0.21216E+05
 0.24420002E+02  0.69584E+06
 0.24470001E+02 -0.20761E+06
 0.24520000E+02 -0.80493E+06
 0.24570000E+02 -0.61067E+06
 0.24619999E+02  0.34043E+06
 0.24670002E+02  0.98986E+06
 0.24720001E+02  0.92638E+06
 0.24770000E+02  0.20800E+06
 0.24820000E+02 -0.44318E+06
 0.24869999E+02  0.41817E+06
 0.24920002E+02  0.15426E+07
 0.24970001E+02  0.24087E+07
 0.25020000E+02  0.33075E+07
 0.25070000E+02  0.22375E+07
 0.25119999E+02  0.38068E+06
 0.25170002E+02 -0.39739E+06
 0.25220001E+02 -0.12859E+07
 0.25270000E+02 -0.16424E+07
 0.25320000E+02 -0.15535E+07
 0.25369999E+02 -0.14126E+07
 0.25420002E+02 -0.14398E+07
 0.25470001E+02 -0.18631E+07
 0.25520000E+02 -0.90423E+06
 0.25570000E+02  0.28560E+05
 0.25619999E+02 -0.82414E+05
 0.25670002E+02  0.34282E+06
 0.25720001E+02  0.49376E+06
 0.25770000E+02  0.21795E+06
 0.25820000E+02  0.16842E+06
 0.25869999E+02 -0.41483E+05
 0.25920002E+02 -0.74580E+04
 0.25970001E+02  0.25057E+06
 0.26020000E+02  0.57797E+06
 0.26070000E+02  0.14053E+07
 0.26119999E+02  0.23279E+07
 0.26170002E+02  0.25991E+07
 0.26220001E+02  0.24446E+07
 0.26270000E+02  0.24390E+07
 0.26320000E+02  0.24289E+07
 0.26369999E+02  0.23763E+07
 0.26420002E+02  0.18750E+07
 0.26470001E+02  0.11170E+07
 0.26520000E+02  0.72916E+06
 0.26570000E+02  0.71632E+06
 0.26619999E+02  0.78205E+06
 0.26670002E+02  0.44556E+05
 0.26720001E+02 -0.41780E+06
 0.26770000E+02  0.64932E+05
 0.26820000E+02  0.21159E+06
 0.26869999E+02 -0.44162E+05
 0.26920002E+02 -0.43868E+06
 0.26970001E+02 -0.56757E+06
 0.27020000E+02 -0.65081E+06
 0.27070000E+02 -0.13756E+07
 0.27119999E+02 -0.16991E+07
 0.27170002E+02 -0.12029E+07
 0.27220001E+02 -0.28860E+06
 0.27270000E+02  0.83594E+06
 0.27320000E+02  0.14391E+07
 0.27369999E+02  0.16712E+07
 0.27420002E+02  0.15797E+07
 0.27470001E+02  0.11299E+07
 0.27520000E+02  0.78949E+06
 0.27570000E+02  0.49856E+06
 0.27619999E+02  0.76091E+05
 0.27670002E+02 -0.39046E+06
 0.27720001E+02 -0.65687E+06
 0.27770000E+02 -0.10525E+07
 0.27820000E+02 -0.88159E+06
 0.27869999E+02  0.35600E+06
 0.27920002E+02  0.97782E+06
 0.27970001E+02  0.76584E+06
 0.28020000E+02  0.49496E+06
 0.28070000E+02  0.25174E+06
 0.28119999E+02  0.65731E+06
 0.28169998E+02  0.11642E+07
 0.28220001E+02  0.96071E+06
 0.28270000E+02  0.75293E+06
 0.28320000E+02  0.55110E+06
 0.28369999E+02  0.70454E+06
 0.28419998E+02  0.16676E+07
 0.28470001E+02  0.25500E+07
 0.28520000E+02  0.26797E+07
 0.28570000E+02  0.17777E+07
 0.28619999E+02  0.41139E+06
 0.28669998E+02 -0.69613E+06
 0.28720001E+02 -0.10296E+07
 0.28770000E+02 -0.77651E+06
 0.28820000E+02 -0.65783E+06
 0.28869999E+02 -0.67731E+06
 0.28919998E+02 -0.11307E+07
 0.28970001E+02 -0.15427E+07
 0.29020000E+02 -0.13469E+07
 0.29070000E+02 -0.58399E+06
 0.29119999E+02  0.35371E+06
 0.29169998E+02  0.33878E+06
 0.29220001E+02  0.38271E+05
 0.29270000E+02  0.15822E+06
 0.29320000E+02  0.37494E+06
 0.29369999E+02  0.66149E+06
 0.29419998E+02  0.29179E+06
 0.29470001E+02 -0.88552E+06
 0.29520000E+02 -0.20349E+07
 0.29570000E+02 -0.25978E+07
 0.29619999E+02 -0.23197E+07
 0.29669998E+02 -0.14118E+07
 0.29720001E+02 -0.66295E+06
 0.29770000E+02 -0.45337E+05
 0.29820000E+02  0.49459E+06
 0.29869999E+02  0.64465E+06
 0.29919998E+02  0.58487E+06
 0.29970001E+02  0.14776E+06
 0.30020000E+02 -0.55598E+06
 0.30070000E+02 -0.10727E+07
 0.30119999E+02 -0.11982E+07
 0.30169998E+02 -0.11840E+07
 0.30220001E+02 -0.11174E+07
 0.30270000E+02 -0.79379E+06
 0.30320000E+02 -0.63155E+06
 0.30369999E+02 -0.72993E+06
 0.30419998E+02 -0.86642E+06
 0.30470001E+02 -0.11364E+07
 0.30520000E+02 -0.13004E+07
 0.30570000E+02 -0.88176E+06
 0.30619999E+02 -0.45970E+06
 0.30669998E+02 -0.52528E+06
 0.30720001E+02 -0.27910E+06
 0.30770000E+02 -0.11054E+06
 0.30820000E+02 -0.24571E+06
 0.30869999E+02 -0.15654E+06
 0.30919998E+02 -0.57864E+06
 0.30970001E+02 -0.96957E+06
 0.31020000E+02 -0.66700E+06
 0.31070000E+02 -0.70197E+06
 0.31119999E+02 -0.92726E+06
 0.31169998E+02 -0.97416E+06
 0.31220001E+02 -0.14210E+07
 0.31270000E+02 -0.14310E+07
 0.31320000E+02 -0.29438E+06
 0.31369999E+02  0.14360E+07
 0.31419998E+02  0.35060E+07
 0.31470001E+02  0.49828E+07
 0.31520000E+02  0.53102E+07
 0.31570000E+02  0.45500E+07
 0.31619999E+02  0.28500E+07
 0.31669998E+02  0.14847E+07
 0.31720001E+02  0.36834E+06
 0.31770000E+02 -0.14095E+07
 0.31820000E+02 -0.31894E+07
 0.31869999E+02 -0.46862E+07
 0.31919998E+02 -0.62613E+07
 0.31970001E+02 -0.70724E+07
 0.32020000E+02 -0.63817E+07
 0.32070000E+02 -0.44846E+07
 0.32119999E+02 -0.10761E+07
 0.32169998E+02  0.28110E+07
 0.32220001E+02  0.42478E+07
 0.32270000E+02  0.24152E+07
 0.32320000E+02 -0.95852E+06
 0.32369999E+02 -0.46705E+07
 0.32419998E+02 -0.74873E+07
 0.32470001E+02 -0.81168E+07
 0.32520000E+02 -0.72768E+07
 0.32570000E+02 -0.56562E+07
 0.32619999E+02 -0.41337E+07
 0.32669998E+02 -0.32520E+07
 0.32720001E+02 -0.14275E+07
 0.32770000E+02  0.17315E+07
 0.32820000E+02  0.52422E+07
 0.32869999E+02  0.87451E+07
 0.32919998E+02  0.11509E+08
 0.32970001E+02  0.12100E+08
 0.33020000E+02  0.10278E+08
 0.33070000E+02  0.77725E+07
 0.33119999E+02  0.57060E+07
 0.33169998E+02  0.45455E+07
 0.33220001E+02  0.48486E+07
 0.33270000E+02  0.48336E+07
 0.33320000E+02  0.28707E+07
 0.33369999E+02  0.69973E+06
 0.33419998E+02 -0.31252E+06
 0.33470001E+02 -0.18895E+07
 0.33520000E+02 -0.50320E+07
 0.33570000E+02 -0.84051E+07
 0.33619999E+02 -0.10655E+08
 0.33669998E+02 -0.11308E+08
 0.33720001E+02 -0.10942E+08
 0.33770000E+02 -0.90270E+07
 0.33820000E+02 -0.53918E+07
 0.33869999E+02 -0.21625E+07
 0.33919998E+02 -0.52840E+06
 0.33970001E+02 -0.44893E+06
 0.34020000E+02 -0.14096E+07
 0.34070000E+02 -0.17850E+07
 0.34119999E+02 -0.21306E+06
 0.34169998E+02  0.19767E+07
 0.34220001E+02  0.30713E+07
 0.34270000E+02  0.35279E+07
 0.34320000E+02  0.33305E+07
 0.34369999E+02  0.19707E+07
 0.34419998E+02  0.41583E+06
 0.34470001E+02  0.10432E+07
 0.34520000E+02  0.45619E+07
 0.34570000E+02  0.76326E+07
 0.34619999E+02  0.78274E+07
 0.34669998E+02  0.58221E+07
 0.34720001E+02  0.23408E+07
 0.34770000E+02 -0.17990E+07
 0.34820000E+02 -0.45487E+07
 0.34869999E+02 -0.43974E+07
 0.34919998E+02 -0.28761E+07
 0.34970001E+02 -0.14970E+07
 0.35020000E+02 -0.39283E+06
 0.35070000E+02 -0.17435E+06
 0.35119999E+02 -0.79275E+06
 0.35169998E+02 -0.17914E+07
 0.35220001E+02 -0.26667E+07
 0.35270000E+02 -0.30025E+07
 0.35320000E+02 -0.32888E+07
 0.35369999E+02 -0.36767E+07
 0.35419998E+02 -0.37578E+07
 0.35470001E+02 -0.39883E+07
 0.35520000E+02 -0.42716E+07
 0.35570000E+02 -0.37341E+07
 0.35619999E+02 -0.30656E+07
 0.35669998E+02 -0.26837E+07
 0.35720001E+02 -0.18683E+07
 0.35770000E+02 -0.90471E+06
 0.35820000E+02  0.24119E+06
 0.35869999E+02  0.20072E+07
 0.35919998E+02  0.37347E+07
 0.35970001E+02  0.47805E+07
 0.36020000E+02  0.46659E+07
 0.36070000E+02  0.36359E+07
 0.36119999E+02  0.30088E+07
 0.36169998E+02  0.30463E+07
 0.36220001E+02  0.31649E+07
 0.36270000E+02  0.30638E+07
 0.36320000E+02  0.24978E+07
 0.36369999E+02  0.10118E+07
 0.36419998E+02 -0.18816E+07
 0.36470001E+02 -0.51578E+07
 0.36520000E+02 -0.67918E+07
 0.36570000E+02 -0.59777E+07
 0.36619999E+02 -0.35615E+07
 0.36669998E+02 -0.13547E+07
 0.36720001E+02 -0.38701E+06
 0.36770000E+02 -0.26114E+06
 0.36820000E+02 -0.66510E+06
 0.36869999E+02 -0.15954E+07
 0.36919998E+02 -0.24399E+07
 0.36970001E+02 -0.20367E+07
 0.37020000E+02 -0.38582E+06
 0.37070000E+02  0.12647E+07
 0.37119999E+02  0.28389E+07
 0.37169998E+02  0.45024E+07
 0.37220001E+02  0.52843E+07
 0.37270000E+02  0.48683E+07
 0.37320000E+02  0.40517E+07
 0.37369999E+02  0.33309E+07
 0.37419998E+02  0.24655E+07
 0.37470001E+02  0.14957E+07
 0.37520000E+02  0.89484E+06
 0.37570000E+02  0.52901E+06
 0.37619999E+02  0.54138E+05
 0.37669998E+02 -0.34824E+06
 0.37720001E+02 -0.84648E+06
 0.37770000E+02 -0.18469E+07
 0.37820000E+02 -0.33062E+07
 0.37869999E+02 -0.46104E+07
 0.37919998E+02 -0.46677E+07
 0.37970001E+02 -0.32001E+07
 0.38020000E+02 -0.10960E+07
 0.38070000E+02  0.53541E+06
 0.38119999E+02  0.13120E+07
 0.38169998E+02  0.16017E+07
 0.38220001E+02  0.18037E+07
 0.38270000E+02  0.23294E+07
 0.38320000E+02  0.29735E+07
 0.38369999E+02  0.30747E+07
 0.38419998E+02  0.25447E+07
 0.38470001E+02  0.13840E+07
 0.38520000E+02  0.14961E+06
 0.38570000E+02 -0.49688E+06
 0.38619999E+02 -0.10230E+07
 0.38669998E+02 -0.16510E+07
 0.38720001E+02 -0.25688E+07
 0.38770000E+02 -0.38095E+07
 0.38820000E+02 -0.42776E+07
 0.38869999E+02 -0.33968E+07
 0.38919998E+02 -0.16020E+07
 0.38970001E+02  0.60185E+06
 0.39020000E+02  0.28191E+07
 0.39070000E+02  0.47187E+07
 0.39119999E+02  0.60282E+07
 0.39169998E+02  0.63864E+07
 0.39220001E+02  0.58239E+07
 0.39270000E+02  0.46848E+07
 0.39320000E+02  0.32569E+07
 0.39369999E+02  0.20844E+07
 0.39419998E+02  0.12960E+07
 0.39470001E+02  0.51512E+06
 0.39520000E+02 -0.74468E+06
 0.39570000E+02 -0.23203E+07
 0.39619999E+02 -0.30949E+07
 0.39669998E+02 -0.24321E+07
 0.39720001E+02 -0.20307E+06
 0.39770000E+02  0.27495E+07
 0.39820000E+02  0.45898E+07
 0.39869999E+02  0.49839E+07
 0.39919998E+02  0.48273E+07
 0.39970001E+02  0.43540E+07
 0.40020000E+02  0.35652E+07
 0.40070000E+02  0.27530E+07
 0.40119999E+02  0.18967E+07
 0.40169998E+02  0.67731E+06
 0.40220001E+02 -0.90779E+06
 0.40270000E+02 -0.24123E+07
 0.40320000E+02 -0.34029E+07
 0.40369999E+02 -0.33806E+07
 0.40419998E+02 -0.15162E+07
 0.40470001E+02  0.18004E+07
 0.40520000E+02  0.44060E+07
 0.40570000E+02  0.48222E+07
 0.40619999E+02  0.35246E+07
 0.40669998E+02  0.17109E+07
 0.40720001E+02  0.28315E+06
 0.40770000E+02 -0.30032E+06
 0.40820000E+02 -0.29700E+06
 0.40869999E+02 -0.63720E+06
 0.40919998E+02 -0.16352E+07
 0.40970001E+02 -0.23490E+07
 0.41020000E+02 -0.17917E+07
 0.41070000E+02 -0.14435E+06
 0.41119999E+02  0.17509E+07
 0.41169998E+02  0.33811E+07
 0.41220001E+02  0.44631E+07
 0.41270000E+02  0.48859E+07
 0.41320000E+02  0.47977E+07
 0.41369999E+02  0.45364E+07
 0.41419998E+02  0.42284E+07
 0.41470001E+02  0.33509E+07
 0.41520000E+02  0.16343E+07
 0.41570000E+02 -0.19999E+06
 0.41619999E+02 -0.14508E+07
 0.41669998E+02 -0.18728E+07
 0.41720001E+02 -0.16010E+07
 0.41770000E+02 -0.14629E+07
 0.41820000E+02 -0.17018E+07
 0.41869999E+02 -0.18023E+07
 0.41919998E+02 -0.16640E+07
 0.41970001E+02 -0.96623E+06
 0.42020000E+02  0.47013E+06
 0.42070000E+02  0.14955E+07
 0.42119999E+02  0.10102E+07
 0.42169998E+02 -0.19180E+06
 0.42220001E+02 -0.36677E+06
 0.42270000E+02  0.85059E+06
 0.42320000E+02  0.23209E+07
 0.42369999E+02  0.30766E+07
 0.42419998E+02  0.27194E+07
 0.42470001E+02  0.12168E+07
 0.42520000E+02 -0.63672E+06
 0.42570000E+02 -0.17010E+07
 0.42619999E+02 -0.17210E+07
 0.42669998E+02 -0.11418E+07
 0.42720001E+02 -0.26512E+06
 0.42770000E+02  0.63557E+06
 0.42820000E+02  0.14874E+07
 0.42869999E+02  0.23586E+07
 0.42919998E+02  0.26814E+07
 0.42970001E+02  0.20179E+07
 0.43020000E+02  0.78876E+06
 0.43070000E+02 -0.36144E+06
 0.43119999E+02 -0.10402E+07
 0.43169998E+02 -0.14604E+07
 0.43220001E+02 -0.20009E+07
 0.43270000E+02 -0.27298E+07
 0.43320000E+02 -0.36396E+07
 0.43369999E+02 -0.44526E+07
 0.43419998E+02 -0.46823E+07
 0.43470001E+02 -0.42828E+07
 0.43520000E+02 -0.36327E+07
 0.43570000E+02 -0.29933E+07
 0.43619999E+02 -0.25188E+07
 0.43669998E+02 -0.22355E+07
 0.43720001E+02 -0.20122E+07
 0.43770000E+02 -0.17611E+07
 0.43820000E+02 -0.13783E+07
 0.43869999E+02 -0.83707E+06
 0.43919998E+02 -0.17948E+06
 0.43970001E+02  0.38099E+06
 0.44020000E+02  0.35095E+06
 0.44070000E+02 -0.35598E+06
 0.44119999E+02 -0.13849E+07
 0.44169998E+02 -0.22335E+07
 0.44220001E+02 -0.24222E+07
 0.44270000E+02 -0.23472E+07
 0.44320000E+02 -0.26221E+07
 0.44369999E+02 -0.32329E+07
 0.44419998E+02 -0.38614E+07
 0.44470001E+02 -0.39055E+07
 0.44520000E+02 -0.31024E+07
 0.44570000E+02 -0.17557E+07
 0.44619999E+02 -0.20313E+06
 0.44669998E+02  0.10326E+07
 0.44720001E+02  0.13710E+07
 0.44770000E+02  0.10074E+07
 0.44820000E+02  0.57729E+06
 0.44869999E+02  0.30903E+06
 0.44919998E+02  0.21813E+06
 0.44970001E+02  0.27929E+06
 0.45020000E+02  0.45850E+06
 0.45070000E+02  0.55695E+06
 0.45119999E+02  0.43247E+06
 0.45169998E+02  0.36261E+06
 0.45220001E+02  0.45160E+06
 0.45270000E+02  0.71193E+06
 0.45320000E+02  0.11900E+07
 0.45369999E+02  0.16736E+07
 0.45419998E+02  0.19701E+07
 0.45470001E+02  0.19203E+07
 0.45520000E+02  0.13811E+07
 0.45570000E+02  0.45331E+06
 0.45619999E+02 -0.55182E+06
 0.45669998E+02 -0.13521E+07
 0.45720001E+02 -0.18769E+07
 0.45770000E+02 -0.22978E+07
 0.45820000E+02 -0.28331E+07
 0.45869999E+02 -0.36413E+07
 0.45919998E+02 -0.44718E+07
 0.45970001E+02 -0.47403E+07
 0.46020000E+02 -0.43314E+07
 0.46070000E+02 -0.34790E+07
 0.46119999E+02 -0.25263E+07
 0.46169998E+02 -0.17775E+07
 0.46220001E+02 -0.11999E+07
 0.46270000E+02 -0.73998E+06
 0.46320000E+02 -0.29707E+06
 0.46369999E+02  0.30979E+05
 0.46419998E+02 -0.13078E+06
 0.46470001E+02 -0.64739E+06
 0.46520000E+02 -0.13004E+07
 0.46570000E+02 -0.20461E+07
 0.46619999E+02 -0.25556E+07
 0.46669998E+02 -0.25737E+07
 0.46720001E+02 -0.22328E+07
 0.46770000E+02 -0.16802E+07
 0.46820000E+02 -0.71281E+06
 0.46869999E+02  0.55034E+06
 0.46919998E+02  0.16353E+07
 0.46970001E+02  0.23569E+07
 0.47020000E+02  0.26628E+07
 0.47070000E+02  0.26287E+07
 0.47119999E+02  0.22749E+07
 0.47169998E+02  0.16037E+07
 0.47220001E+02  0.92718E+06
 0.47270000E+02  0.52360E+06
 0.47320000E+02  0.32631E+06
 0.47369999E+02  0.25164E+06
 0.47419998E+02  0.38460E+06
 0.47470001E+02  0.60564E+06
 0.47520000E+02  0.71918E+06
 0.47570000E+02  0.69246E+06
 0.47619999E+02  0.59624E+06
 0.47669998E+02  0.58436E+06
 0.47720001E+02  0.62029E+06
 0.47770000E+02  0.59781E+06
 0.47820000E+02  0.57469E+06
 0.47869999E+02  0.51695E+06
 0.47919998E+02  0.44991E+06
 0.47970001E+02  0.55575E+06
 0.48020000E+02  0.91943E+06
 0.48070000E+02  0.13758E+07
 0.48119999E+02  0.15300E+07
 0.48169998E+02  0.12516E+07
 0.48220001E+02  0.75320E+06
 0.48270000E+02  0.26552E+06
 0.48320000E+02 -0.33646E+05
 0.48369999E+02 -0.27387E+06
 0.48419998E+02 -0.57287E+06
 0.48470001E+02 -0.69484E+06
 0.48520000E+02 -0.61838E+06
 0.48570000E+02 -0.36886E+06
 0.48619999E+02 -0.64795E+05
 0.48669998E+02 -0.96440E+05
 0.48720001E+02 -0.44580E+06
 0.48770000E+02 -0.89507E+06
 0.48820000E+02 -0.13081E+07
 0.48869999E+02 -0.14751E+07
 0.48919998E+02 -0.13794E+07
 0.48970001E+02 -0.12891E+07
 0.49020000E+02 -0.13032E+07
 0.49070000E+02 -0.12304E+07
 0.49119999E+02 -0.88620E+06
 0.49169998E+02 -0.22426E+06
 0.49220001E+02  0.64229E+06
 0.49270000E+02  0.14305E+07
 0.49320000E+02  0.18653E+07
 0.49369999E+02  0.19907E+07
 0.49419998E+02  0.19968E+07
 0.49470001E+02  0.19652E+07
 0.49520000E+02  0.17879E+07
 0.49570000E+02  0.14301E+07
 0.49619999E+02  0.10209E+07
 0.49669998E+02  0.46779E+06
 0.49720001E+02 -0.97203E+05
 0.49770000E+02 -0.40276E+06
 0.49820000E+02 -0.64055E+06
 0.49869999E+02 -0.96581E+06
 0.49919998E+02 -0.13119E+07
 0.49970001E+02 -0.15492E+07
 0.50020000E+02 -0.14162E+07
 0.50070000E+02 -0.90888E+06
 0.50119999E+02 -0.26339E+06
 0.50169998E+02  0.42198E+06
 0.50220001E+02  0.99712E+06
 0.50270000E+02  0.13811E+07
 0.50320000E+02  0.16369E+07
 0.50369999E+02  0.17554E+07
 0.50419998E+02  0.16190E+07
 0.50470001E+02  0.10375E+07
 0.50520000E+02  0.21400E+06
 0.50570000E+02 -0.46828E+06
 0.50619999E+02 -0.88792E+06
 0.50669998E+02 -0.11059E+07
 0.50720001E+02 -0.12488E+07
 0.50770000E+02 -0.12592E+07
 0.50820000E+02 -0.11866E+07
 0.50869999E+02 -0.11172E+07
 0.50919998E+02 -0.94895E+06
 0.50970001E+02 -0.73913E+06
 0.51020000E+02 -0.59355E+06
 0.51070000E+02 -0.32519E+06
 0.51119999E+02  0.29070E+06
 0.51169998E+02  0.10484E+07
 0.51220001E+02  0.15773E+07
 0.51270000E+02  0.16810E+07
 0.51320000E+02  0.15179E+07
 0.51369999E+02  0.13434E+07
 0.51419998E+02  0.12124E+07
 0.51470001E+02  0.11788E+07
 0.51520000E+02  0.10434E+07
 0.51570000E+02  0.64437E+06
 0.51619999E+02  0.23554E+06
 0.51669998E+02  0.30266E+05
 0.51720001E+02  0.79182E+05
 0.51770000E+02  0.36942E+06
 0.51820000E+02  0.72561E+06
 0.51869999E+02  0.10077E+07
 0.51919998E+02  0.12620E+07
 0.51970001E+02  0.15344E+07
 0.52020000E+02  0.17713E+07
 0.52070000E+02  0.19525E+07
 0.52119999E+02  0.21457E+07
 0.52169998E+02  0.22359E+07
 0.52220001E+02  0.21613E+07
 0.52270000E+02  0.19857E+07
 0.52320000E+02  0.16658E+07
 0.52369999E+02  0.13304E+07
 0.52419998E+02  0.10604E+07
 0.52470001E+02  0.82849E+06
 0.52520000E+02  0.62861E+06
 0.52570000E+02  0.34370E+06
 0.52619999E+02  0.15394E+05
 0.52669998E+02 -0.33146E+06
 0.52720001E+02 -0.79464E+06
 0.52770000E+02 -0.13113E+07
 0.52820000E+02 -0.17575E+07
 0.52869999E+02 -0.21065E+07
 0.52919998E+02 -0.23422E+07
 0.52970001E+02 -0.23424E+07
 0.53020000E+02 -0.20503E+07
 0.53070000E+02 -0.15366E+07
 0.53119999E+02 -0.10083E+07
 0.53169998E+02 -0.69850E+06
 0.53220001E+02 -0.67178E+06
 0.53270000E+02 -0.83336E+06
 0.53320000E+02 -0.97451E+06
 0.53369999E+02 -0.11112E+07
 0.53419998E+02 -0.12482E+07
 0.53470001E+02 -0.12071E+07
 0.53520000E+02 -0.11088E+07
 0.53570000E+02 -0.90686E+06
 0.53619999E+02 -0.44022E+06
 0.53669998E+02  0.10379E+06
 0.53720001E+02  0.64548E+06
 0.53770000E+02  0.10947E+07
 0.53820000E+02  0.13083E+07
 0.53869999E+02  0.13726E+07
 0.53919998E+02  0.14831E+07
 0.53970001E+02  0.17220E+07
 0.54020000E+02  0.19776E+07
 0.54070000E+02  0.20966E+07
 0.54119999E+02  0.20003E+07
 0.54169998E+02  0.17930E+07
 0.54220001E+02  0.15676E+07
 0.54270000E+02  0.13187E+07
 0.54320000E+02  0.10219E+07
 0.54369999E+02  0.60894E+06
 0.54419998E+02  0.16068E+06
 0.54470001E+02 -0.17030E+06
 0.54520000E+02 -0.36339E+06
 0.54570000E+02 -0.42949E+06
 0.54619999E+02 -0.28603E+06
 0.54669998E+02  0.11832E+05
 0.54720001E+02  0.27496E+06
 0.54770000E+02  0.39793E+06
 0.54820000E+02  0.36293E+06
 0.54869999E+02  0.24129E+06
 0.54919998E+02 -0.36280E+04
 0.54970001E+02 -0.25172E+06
 0.55020000E+02 -0.27295E+06
 0.55070000E+02 -0.13267E+06
 0.55119999E+02  0.79785E+05
 0.55169998E+02  0.22256E+06
 0.55220001E+02  0.12568E+06
 0.55270000E+02 -0.15390E+06
 0.55320000E+02 -0.43021E+06
 0.55369999E+02 -0.53875E+06
 0.55419998E+02 -0.44296E+06
 0.55470001E+02 -0.30705E+06
 0.55520000E+02 -0.27106E+06
 0.55570000E+02 -0.34538E+06
 0.55619999E+02 -0.55190E+06
 0.55669998E+02 -0.74217E+06
 0.55720001E+02 -0.74662E+06
 0.55770000E+02 -0.57558E+06
 0.55820000E+02 -0.28268E+06
 0.55869999E+02  0.50868E+05
 0.55919998E+02  0.38366E+06
 0.55970001E+02  0.67461E+06
 0.56020000E+02  0.88126E+06
 0.56070000E+02  0.99833E+06
 0.56119999E+02  0.10323E+07
 0.56169998E+02  0.10126E+07
 0.56220001E+02  0.97545E+06
 0.56270000E+02  0.97779E+06
 0.56320000E+02  0.10025E+07
 0.56369999E+02  0.94636E+06
 0.56419998E+02  0.76299E+06
 0.56470001E+02  0.45502E+06
 0.56520000E+02  0.56563E+05
 0.56570000E+02 -0.29128E+06
 0.56619999E+02 -0.54748E+06
 0.56669998E+02 -0.81313E+06
 0.56720001E+02 -0.10252E+07
 0.56770000E+02 -0.11304E+07
 0.56820000E+02 -0.11805E+07
 0.56869999E+02 -0.12084E+07
 0.56919998E+02 -0.12699E+07
 0.56970001E+02 -0.13034E+07
 0.57020000E+02 -0.11982E+07
 0.57070000E+02 -0.97646E+06
 0.57119999E+02 -0.74113E+06
 0.57169998E+02 -0.58468E+06
 0.57220001E+02 -0.57215E+06
 0.57270000E+02 -0.62517E+06
 0.57320000E+02 -0.55367E+06
 0.57369999E+02 -0.33893E+06
 0.57419998E+02 -0.34291E+05
 0.57470001E+02  0.32574E+06
 0.57520000E+02  0.63473E+06
 0.57570000E+02  0.77890E+06
 0.57619999E+02  0.74132E+06
 0.57669998E+02  0.65700E+06
 0.57720001E+02  0.65974E+06
 0.57770000E+02  0.79159E+06
 0.57820000E+02  0.96874E+06
 0.57869999E+02  0.10344E+07
 0.57919998E+02  0.94834E+06
 0.57970001E+02  0.76288E+06
 0.58020000E+02  0.58769E+06
 0.58070000E+02  0.44607E+06
 0.58119999E+02  0.27008E+06
 0.58169998E+02 -0.18980E+04
 0.58220001E+02 -0.40954E+06
 0.58270000E+02 -0.79053E+06
 0.58320000E+02 -0.10110E+07
 0.58369999E+02 -0.11010E+07
 0.58419998E+02 -0.10705E+07
 0.58470001E+02 -0.99411E+06
 0.58520000E+02 -0.96514E+06
 0.58570000E+02 -0.93909E+06
 0.58619999E+02 -0.80401E+06
 0.58669998E+02 -0.54636E+06
 0.58720001E+02 -0.27701E+06
 0.58770000E+02 -0.35346E+05
 0.58820000E+02  0.18193E+06
 0.58869999E+02  0.26164E+06
 0.58919998E+02  0.18508E+06
 0.58970001E+02  0.43986E+05
 0.59020000E+02 -0.12539E+06
 0.59070000E+02 -0.31002E+06
 0.59119999E+02 -0.55084E+06
 0.59169998E+02 -0.85596E+06
 0.59220001E+02 -0.11785E+07
 0.59270000E+02 -0.15466E+07
 0.59320000E+02 -0.18717E+07
 0.59369999E+02 -0.19849E+07
 0.59419998E+02 -0.18441E+07
 0.59470001E+02 -0.14555E+07
 0.59520000E+02 -0.96037E+06
 0.59570000E+02 -0.58008E+06
 0.59619999E+02 -0.39808E+06
 0.59669998E+02 -0.29387E+06
 0.59720001E+02 -0.16114E+06
 0.59770000E+02 -0.61532E+05
 0.59820000E+02  0.22226E+05
 0.59869999E+02  0.12121E+06
 0.59919998E+02  0.20956E+06
 0.59970001E+02  0.27928E+06
 0.60020000E+02  0.33334E+06
 0.60070000E+02  0.44382E+06
 0.60119999E+02  0.61091E+06
 0.60170002E+02  0.73120E+06
 0.60219997E+02  0.75649E+06
 0.60270000E+02  0.73170E+06
 0.60320004E+02  0.68062E+06
 0.60369999E+02  0.57308E+06
 0.60420002E+02  0.38871E+06
 0.60469997E+02  0.14179E+06
 0.60520000E+02 -0.56459E+05
 0.60570004E+02 -0.11538E+06
 0.60619999E+02 -0.68770E+05
 0.60670002E+02  0.19243E+05
 0.60719997E+02  0.15502E+06
 0.60770000E+02  0.36946E+06
 0.60820004E+02  0.55133E+06
 0.60869999E+02  0.57545E+06
 0.60920002E+02  0.45838E+06
 0.60969997E+02  0.29405E+06
 0.61020000E+02  0.18963E+06
 0.61070004E+02  0.21006E+06
 0.61119999E+02  0.36390E+06
 0.61170002E+02  0.61165E+06
 0.61219997E+02  0.87533E+06
 0.61270000E+02  0.10381E+07
 0.61320004E+02  0.10869E+07
 0.61369999E+02  0.11081E+07
 0.61420002E+02  0.10794E+07
 0.61469997E+02  0.88809E+06
 0.61520000E+02  0.45645E+06
 0.61570004E+02 -0.11578E+06
 0.61619999E+02 -0.66153E+06
 0.61670002E+02 -0.10617E+07
 0.61719997E+02 -0.11411E+07
 0.61770000E+02 -0.87928E+06
 0.61820004E+02 -0.47217E+06
 0.61869999E+02 -0.12285E+06
 0.61920002E+02  0.56039E+05
 0.61969997E+02  0.14481E+06
 0.62020000E+02  0.25337E+06
 0.62070004E+02  0.36375E+06
 0.62119999E+02  0.40788E+06
 0.62170002E+02  0.35298E+06
 0.62219997E+02  0.24959E+06
 0.62270000E+02  0.96609E+05
 0.62320004E+02 -0.68123E+05
 0.62369999E+02 -0.13143E+06
 0.62420002E+02 -0.12334E+06
 0.62469997E+02 -0.72556E+05
 0.62520000E+02  0.13326E+05
 0.62570004E+02  0.10529E+06
 0.62619999E+02  0.26354E+06
 0.62670002E+02  0.46779E+06
 0.62719997E+02  0.61108E+06
 0.62770000E+02  0.68690E+06
 0.62820004E+02  0.71584E+06
 0.62869999E+02  0.65939E+06
 0.62920002E+02  0.52845E+06
 0.62969997E+02  0.35645E+06
 0.63020000E+02  0.13252E+06
 0.63070004E+02 -0.78882E+05
 0.63119999E+02 -0.21216E+06
 0.63170002E+02 -0.26284E+06
 0.63219997E+02 -0.19074E+06
 0.63270000E+02 -0.53286E+05
 0.63320004E+02  0.58086E+05
 0.63369999E+02  0.15454E+06
 0.63420002E+02  0.19637E+06
 0.63469997E+02  0.16120E+06
 0.63520000E+02  0.68520E+05
 0.63570004E+02 -0.52602E+05
 0.63619999E+02 -0.11766E+06
 0.63670002E+02 -0.96146E+05
 0.63719997E+02  0.97290E+04
 0.63770000E+02  0.13974E+06
 0.63820004E+02  0.20047E+06
 0.63869999E+02  0.18507E+06
 0.63920002E+02  0.13924E+06
 0.63969997E+02  0.13338E+06
 0.64020004E+02  0.15655E+06
 0.64070007E+02  0.13580E+06
 0.64120003E+02  0.37567E+05
 0.64170006E+02 -0.15422E+06
 0.64220001E+02 -0.40909E+06
 0.64270004E+02 -0.67808E+06
 0.64320007E+02 -0.91333E+06
 0.64370003E+02 -0.10403E+07
 0.64420006E+02 -0.10339E+07
 0.64470001E+02 -0.94645E+06
 0.64520004E+02 -0.78179E+06
 0.64570007E+02 -0.54058E+06
 0.64620003E+02 -0.29425E+06
 0.64670006E+02 -0.38087E+05
 0.64720001E+02  0.20177E+06
 0.64770004E+02  0.33373E+06
 0.64820007E+02  0.36800E+06
 0.64870003E+02  0.34260E+06
 0.64920006E+02  0.27351E+06
 0.64970001E+02  0.13992E+06
 0.65020004E+02 -0.57911E+05
 0.65070007E+02 -0.22383E+06
 0.65120003E+02 -0.30508E+06
 0.65170006E+02 -0.33392E+06
 0.65220001E+02 -0.33241E+06
 0.65270004E+02 -0.33703E+06
 0.65320007E+02 -0.37688E+06
 0.65370003E+02 -0.36991E+06
 0.65420006E+02 -0.24047E+06
 0.65470001E+02 -0.60969E+05
 0.65520004E+02  0.47988E+05
 0.65570007E+02  0.39115E+05
 0.65620003E+02 -0.61036E+05
 0.65670006E+02 -0.23173E+06
 0.65720001E+02 -0.45757E+06
 0.65770004E+02 -0.68678E+06
 0.65820007E+02 -0.85979E+06
 0.65870003E+02 -0.92773E+06
 0.65920006E+02 -0.89903E+06
 0.65970001E+02 -0.78408E+06
 0.66020004E+02 -0.56679E+06
 0.66070007E+02 -0.27167E+06
 0.66120003E+02  0.44560E+05
 0.66170006E+02  0.31548E+06
 0.66220001E+02  0.54436E+06
 0.66270004E+02  0.75824E+06
 0.66320007E+02  0.95329E+06
 0.66370003E+02  0.11033E+07
 0.66420006E+02  0.11781E+07
 0.66470001E+02  0.11956E+07
 0.66520004E+02  0.11661E+07
 0.66570007E+02  0.10950E+07
 0.66620003E+02  0.97425E+06
 0.66670006E+02  0.80279E+06
 0.66720001E+02  0.61908E+06
 0.66770004E+02  0.45318E+06
 0.66820007E+02  0.35326E+06
 0.66870003E+02  0.31351E+06
 0.66920006E+02  0.26185E+06
 0.66970001E+02  0.20803E+06
 0.67020004E+02  0.17113E+06
 0.67070007E+02  0.14217E+06
 0.67120003E+02  0.16879E+06
 0.67170006E+02  0.24907E+06
 0.67220001E+02  0.31795E+06
 0.67270004E+02  0.33336E+06
 0.67320007E+02  0.29302E+06
 0.67370003E+02  0.18428E+06
 0.67420006E+02 -0.95900E+03
 0.67470001E+02 -0.22378E+06
 0.67520004E+02 -0.47984E+06
 0.67570007E+02 -0.78726E+06
 0.67620003E+02 -0.11045E+07
 0.67670006E+02 -0.13200E+07
 0.67720001E+02 -0.13873E+07
 0.67770004E+02 -0.13023E+07
 0.67820007E+02 -0.10581E+07
 0.67870003E+02 -0.76972E+06
 0.67920006E+02 -0.52474E+06
 0.67970001E+02 -0.34752E+06
 0.68020004E+02 -0.26271E+06
 0.68070007E+02 -0.24264E+06
 0.68120003E+02 -0.27596E+06
 0.68170006E+02 -0.30333E+06
 0.68220001E+02 -0.27513E+06
 0.68270004E+02 -0.24466E+06
 0.68320007E+02 -0.19794E+06
 0.68370003E+02 -0.72615E+05
 0.68420006E+02  0.11786E+06
 0.68470001E+02  0.27540E+06
 0.68520004E+02  0.29735E+06
 0.68570007E+02  0.17123E+06
 0.68620003E+02 -0.48179E+05
 0.68670006E+02 -0.27664E+06
 0.68720001E+02 -0.43106E+06
 0.68770004E+02 -0.48165E+06
 0.68820007E+02 -0.43575E+06
 0.68870003E+02 -0.27649E+06
 0.68920006E+02 -0.69480E+04
 0.68970001E+02  0.33965E+06
 0.69020004E+02  0.70143E+06
 0.69070007E+02  0.96182E+06
 0.69120003E+02  0.10790E+07
 0.69170006E+02  0.10885E+07
 0.69220001E+02  0.10125E+07
 0.69270004E+02  0.87450E+06
 0.69320007E+02  0.72277E+06
 0.69370003E+02  0.59031E+06
 0.69420006E+02  0.46410E+06
 0.69470001E+02  0.36134E+06
 0.69520004E+02  0.28392E+06
 0.69570007E+02  0.19597E+06
 0.69620003E+02  0.85656E+05
 0.69670006E+02 -0.55833E+05
 0.69720001E+02 -0.19413E+06
 0.69770004E+02 -0.30378E+06
 0.69820007E+02 -0.39912E+06
 0.69870003E+02 -0.46180E+06
 0.69920006E+02 -0.49172E+06
 0.69970001E+02 -0.50261E+06
 0.70020004E+02 -0.49135E+06
 0.70070007E+02 -0.46502E+06
 0.70120003E+02 -0.44664E+06
 0.70170006E+02 -0.44376E+06
 0.70220001E+02 -0.41866E+06
 0.70270004E+02 -0.34662E+06
 0.70320007E+02 -0.25436E+06
 0.70370003E+02 -0.19500E+06
 0.70420006E+02 -0.18326E+06
 0.70470001E+02 -0.16990E+06
 0.70520004E+02 -0.98996E+05
 0.70570007E+02  0.56487E+05
 0.70620003E+02  0.26640E+06
 0.70670006E+02  0.47063E+06
 0.70720001E+02  0.63607E+06
 0.70770004E+02  0.73592E+06
 0.70820007E+02  0.76000E+06
 0.70870003E+02  0.74314E+06
 0.70920006E+02  0.71852E+06
 0.70970001E+02  0.68902E+06
 0.71020004E+02  0.64187E+06
 0.71070007E+02  0.56703E+06
 0.71120003E+02  0.44854E+06
 0.71170006E+02  0.28045E+06
 0.71220001E+02  0.98910E+05
 0.71270004E+02 -0.95843E+05
 0.71320007E+02 -0.30225E+06
 0.71370003E+02 -0.46370E+06
 0.71420006E+02 -0.56066E+06
 0.71470001E+02 -0.59749E+06
 0.71520004E+02 -0.59629E+06
 0.71570007E+02 -0.57704E+06
 0.71620003E+02 -0.51540E+06
 0.71670006E+02 -0.39960E+06
 0.71720001E+02 -0.26085E+06
 0.71770004E+02 -0.16226E+06
 0.71820007E+02 -0.14446E+06
 0.71870003E+02 -0.18152E+06
 0.71920006E+02 -0.22488E+06
 0.71970001E+02 -0.24655E+06
 0.72020004E+02 -0.24100E+06
 0.72070007E+02 -0.19866E+06
 0.72120003E+02 -0.10273E+06
 0.72170006E+02  0.21493E+05
 0.72220001E+02  0.12422E+06
 0.72270004E+02  0.17940E+06
 0.72320007E+02  0.17841E+06
 0.72370003E+02  0.14221E+06
 0.72420006E+02  0.12376E+06
 0.72470001E+02  0.16615E+06
 0.72520004E+02  0.25850E+06
 0.72570007E+02  0.34089E+06
 0.72620003E+02  0.37622E+06
 0.72670006E+02  0.36075E+06
 0.72720001E+02  0.29858E+06
 0.72770004E+02  0.20732E+06
 0.72820007E+02  0.83329E+05
 0.72870003E+02 -0.56544E+05
 0.72920006E+02 -0.13168E+06
 0.72970001E+02 -0.10590E+06
 0.73020004E+02 -0.47539E+05
 0.73070007E+02 -0.32316E+05
 0.73120003E+02 -0.57116E+05
 0.73170006E+02 -0.63093E+05
 0.73220001E+02  0.17237E+05
 0.73270004E+02  0.18678E+06
 0.73320007E+02  0.37738E+06
 0.73370003E+02  0.53896E+06
 0.73420006E+02  0.63091E+06
 0.73470001E+02  0.60887E+06
 0.73520004E+02  0.48576E+06
 0.73570007E+02  0.30207E+06
 0.73620003E+02  0.67707E+05
 0.73670006E+02 -0.18953E+06
 0.73720001E+02 -0.43724E+06
 0.73770004E+02 -0.64300E+06
 0.73820007E+02 -0.73476E+06
 0.73870003E+02 -0.72177E+06
 0.73920006E+02 -0.65797E+06
 0.73970001E+02 -0.56867E+06
 0.74020004E+02 -0.50934E+06
 0.74070007E+02 -0.45571E+06
 0.74120003E+02 -0.35626E+06
 0.74170006E+02 -0.21632E+06
 0.74220001E+02 -0.37306E+05
 0.74270004E+02  0.12500E+06
 0.74320007E+02  0.21678E+06
 0.74370003E+02  0.21858E+06
 0.74420006E+02  0.11258E+06
 0.74470001E+02 -0.48615E+05
 0.74520004E+02 -0.19010E+06
 0.74570007E+02 -0.26038E+06
 0.74620003E+02 -0.21630E+06
 0.74670006E+02 -0.76649E+05
 0.74720001E+02  0.12467E+06
 0.74770004E+02  0.36917E+06
 0.74820007E+02  0.60616E+06
 0.74870003E+02  0.80416E+06
 0.74920006E+02  0.92738E+06
 0.74970001E+02  0.95466E+06
 0.75020004E+02  0.92500E+06
 0.75070007E+02  0.85014E+06
 0.75120003E+02  0.72633E+06
 0.75170006E+02  0.57844E+06
 0.75220001E+02  0.44171E+06
 0.75270004E+02  0.31506E+06
 0.75320007E+02  0.18354E+06
 0.75370003E+02  0.70733E+05
 0.75420006E+02 -0.22564E+05
 0.75470001E+02 -0.13403E+06
 0.75520004E+02 -0.27944E+06
 0.75570007E+02 -0.44188E+06
 0.75620003E+02 -0.60259E+06
 0.75670006E+02 -0.74185E+06
 0.75720001E+02 -0.84273E+06
 0.75770004E+02 -0.89756E+06
 0.75820007E+02 -0.91393E+06
 0.75870003E+02 -0.90441E+06
 0.75920006E+02 -0.84004E+06
 0.75970001E+02 -0.70437E+06
 0.76020004E+02 -0.53543E+06
 0.76070007E+02 -0.38170E+06
 0.76120003E+02 -0.27289E+06
 0.76170006E+02 -0.17419E+06
 0.76220001E+02 -0.43613E+05
 0.76270004E+02  0.91052E+05
 0.76320007E+02  0.18935E+06
 0.76370003E+02  0.23449E+06
 0.76420006E+02  0.24895E+06
 0.76470001E+02  0.25778E+06
 0.76520004E+02  0.27937E+06
 0.76570007E+02  0.34134E+06
 0.76620003E+02  0.41108E+06
 0.76670006E+02  0.47313E+06
 0.76720001E+02  0.54941E+06
 0.76770004E+02  0.62666E+06
 0.76820007E+02  0.67210E+06
 0.76870003E+02  0.62377E+06
 0.76920006E+02  0.44853E+06
 0.76970001E+02  0.19418E+06
 0.77020004E+02 -0.36874E+05
 0.77070007E+02 -0.18915E+06
 0.77120003E+02 -0.28191E+06
 0.77170006E+02 -0.36080E+06
 0.77220001E+02 -0.49204E+06
 0.77270004E+02 -0.65825E+06
 0.77320007E+02 -0.78058E+06
 0.77370003E+02 -0.85128E+06
 0.77420006E+02 -0.89152E+06
 0.77470001E+02 -0.88730E+06
 0.77520004E+02 -0.86060E+06
 0.77570007E+02 -0.85279E+06
 0.77620003E+02 -0.83498E+06
 0.77670006E+02 -0.76333E+06
 0.77720001E+02 -0.61824E+06
 0.77770004E+02 -0.43209E+06
 0.77820007E+02 -0.27135E+06
 0.77870003E+02 -0.14478E+06
 0.77920006E+02 -0.31570E+05
 0.77970001E+02  0.73889E+05
 0.78020004E+02  0.17582E+06
 0.78070007E+02  0.27497E+06
 0.78120003E+02  0.36570E+06
 0.78170006E+02  0.44330E+06
 0.78220001E+02  0.49905E+06
 0.78270004E+02  0.52556E+06
 0.78320007E+02  0.52545E+06
 0.78370003E+02  0.47710E+06
 0.78420006E+02  0.35518E+06
 0.78470001E+02  0.19020E+06
 0.78520004E+02  0.20372E+05
 0.78570007E+02 -0.12795E+06
 0.78620003E+02 -0.21185E+06
 0.78670006E+02 -0.21272E+06
 0.78720001E+02 -0.16143E+06
 0.78770004E+02 -0.12226E+06
 0.78820007E+02 -0.13614E+06
 0.78870003E+02 -0.17175E+06
 0.78920006E+02 -0.16662E+06
 0.78970001E+02 -0.10277E+06
 0.79020004E+02 -0.11256E+05
 0.79070007E+02  0.87865E+05
 0.79120003E+02  0.18853E+06
 0.79170006E+02  0.28315E+06
 0.79220001E+02  0.36420E+06
 0.79270004E+02  0.41333E+06
 0.79320007E+02  0.42849E+06
 0.79370003E+02  0.40341E+06
 0.79420006E+02  0.36106E+06
 0.79470001E+02  0.36783E+06
 0.79520004E+02  0.41876E+06
 0.79570007E+02  0.49351E+06
 0.79620003E+02  0.57578E+06
 0.79670006E+02  0.59884E+06
 0.79720001E+02  0.54578E+06
 0.79770004E+02  0.44688E+06
 0.79820007E+02  0.31124E+06
 0.79870003E+02  0.14930E+06
 0.79920006E+02 -0.16565E+05
 0.79970001E+02 -0.14976E+06
 0.80020004E+02 -0.22613E+06
 0.80070007E+02 -0.24725E+06
 0.80120003E+02 -0.21647E+06
 0.80170006E+02 -0.17403E+06
 0.80220001E+02 -0.17210E+06
 0.80270004E+02 -0.23310E+06
 0.80320007E+02 -0.34557E+06
 0.80370003E+02 -0.44593E+06
 0.80420006E+02 -0.47837E+06
 0.80470001E+02 -0.43149E+06
 0.80520004E+02 -0.31207E+06
 0.80570007E+02 -0.15074E+06
 0.80620003E+02 -0.76000E+02
 0.80670006E+02  0.12142E+06
 0.80720001E+02  0.22464E+06
 0.80770004E+02  0.29538E+06
 0.80820007E+02  0.31552E+06
 0.80870003E+02  0.29020E+06
 0.80920006E+02  0.24437E+06
 0.80970001E+02  0.21706E+06
 0.81020004E+02  0.24316E+06
 0.81070007E+02  0.30940E+06
 0.81120003E+02  0.36802E+06
 0.81170006E+02  0.40046E+06
 0.81220001E+02  0.41270E+06
 0.81270004E+02  0.41151E+06
 0.81320007E+02  0.39544E+06
 0.81370003E+02  0.37244E+06
 0.81420006E+02  0.37238E+06
 0.81470001E+02  0.40557E+06
 0.81520004E+02  0.47907E+06
 0.81570007E+02  0.60414E+06
 0.81620003E+02  0.73682E+06
 0.81670006E+02  0.81329E+06
 0.81720001E+02  0.81337E+06
 0.81770004E+02  0.74982E+06
 0.81820007E+02  0.64785E+06
 0.81870003E+02  0.53633E+06
 0.81920006E+02  0.45043E+06
 0.81970001E+02  0.40082E+06
 0.82020004E+02  0.35283E+06
 0.82070007E+02  0.29741E+06
 0.82120003E+02  0.26298E+06
 0.82170006E+02  0.25675E+06
 0.82220001E+02  0.25072E+06
 0.82270004E+02  0.19097E+06
 0.82320007E+02  0.67844E+05
 0.82370003E+02 -0.67409E+05
 0.82420006E+02 -0.18891E+06
 0.82470001E+02 -0.29317E+06
 0.82520004E+02 -0.36997E+06
 0.82570007E+02 -0.41974E+06
 0.82620003E+02 -0.45874E+06
 0.82670006E+02 -0.51075E+06
 0.82720001E+02 -0.57186E+06
 0.82770004E+02 -0.62506E+06
 0.82820007E+02 -0.67150E+06
 0.82870003E+02 -0.71992E+06
 0.82920006E+02 -0.78112E+06
 0.82970001E+02 -0.83996E+06
 0.83020004E+02 -0.86964E+06
 0.83070007E+02 -0.86313E+06
 0.83120003E+02 -0.82310E+06
 0.83170006E+02 -0.75703E+06
 0.83220001E+02 -0.67126E+06
 0.83270004E+02 -0.56407E+06
 0.83320007E+02 -0.43004E+06
 0.83370003E+02 -0.27735E+06
 0.83420006E+02 -0.12250E+06
 0.83470001E+02  0.29050E+04
 0.83520004E+02  0.72832E+05
 0.83570007E+02  0.99917E+05
 0.83620003E+02  0.96261E+05
 0.83670006E+02  0.67163E+05
 0.83720001E+02  0.19113E+05
 0.83770004E+02 -0.32348E+05
 0.83820007E+02 -0.51377E+05
 0.83870003E+02 -0.21706E+05
 0.83920006E+02  0.33321E+05
 0.83970001E+02  0.77391E+05
 0.84020004E+02  0.91049E+05
 0.84070007E+02  0.83723E+05
 0.84120003E+02  0.78608E+05
 0.84170006E+02  0.97480E+05
 0.84220001E+02  0.14175E+06
 0.84270004E+02  0.17402E+06
 0.84320007E+02  0.16584E+06
 0.84370003E+02  0.13358E+06
 0.84420006E+02  0.11762E+06
 0.84470001E+02  0.14568E+06
 0.84520004E+02  0.19378E+06
 0.84570007E+02  0.22426E+06
 0.84620003E+02  0.22869E+06
 0.84670006E+02  0.19826E+06
 0.84720001E+02  0.12913E+06
 0.84770004E+02  0.43351E+05
 0.84820007E+02 -0.35468E+05
 0.84870003E+02 -0.84705E+05
 0.84920006E+02 -0.10052E+06
 0.84970001E+02 -0.12494E+06
 0.85020004E+02 -0.19013E+06
 0.85070007E+02 -0.28472E+06
 0.85120003E+02 -0.38914E+06
 0.85170006E+02 -0.48868E+06
 0.85220001E+02 -0.57399E+06
 0.85270004E+02 -0.64550E+06
 0.85320007E+02 -0.68086E+06
 0.85370003E+02 -0.64477E+06
 0.85420006E+02 -0.54337E+06
 0.85470001E+02 -0.40485E+06
 0.85520004E+02 -0.26235E+06
 0.85570007E+02 -0.13364E+06
 0.85620003E+02 -0.84750E+04
 0.85670006E+02  0.10627E+06
 0.85720001E+02  0.19203E+06
 0.85770004E+02  0.23878E+06
 0.85820007E+02  0.23948E+06
 0.85870003E+02  0.21240E+06
 0.85920006E+02  0.21116E+06
 0.85970001E+02  0.25071E+06
 0.86020004E+02  0.28436E+06
 0.86070007E+02  0.27324E+06
 0.86120003E+02  0.22077E+06
 0.86170006E+02  0.15478E+06
 0.86220001E+02  0.86045E+05
 0.86270004E+02  0.89650E+04
 0.86320007E+02 -0.82609E+05
 0.86370003E+02 -0.17060E+06
 0.86420006E+02 -0.22749E+06
 0.86470001E+02 -0.27443E+06
 0.86520004E+02 -0.34767E+06
 0.86570007E+02 -0.44979E+06
 0.86620003E+02 -0.56038E+06
 0.86670006E+02 -0.64735E+06
 0.86720001E+02 -0.68763E+06
 0.86770004E+02 -0.70056E+06
 0.86820007E+02 -0.71335E+06
 0.86870003E+02 -0.70996E+06
 0.86920006E+02 -0.65793E+06
 0.86970001E+02 -0.55729E+06
 0.87020004E+02 -0.43954E+06
 0.87070007E+02 -0.33252E+06
 0.87120003E+02 -0.24149E+06
 0.87170006E+02 -0.14399E+06
 0.87220001E+02 -0.21663E+05
 0.87270004E+02  0.11723E+06
 0.87320007E+02  0.26295E+06
 0.87370003E+02  0.38968E+06
 0.87420006E+02  0.46091E+06
 0.87470001E+02  0.48827E+06
 0.87520004E+02  0.50776E+06
 0.87570007E+02  0.51691E+06
 0.87620003E+02  0.48980E+06
 0.87670006E+02  0.40998E+06
 0.87720001E+02  0.28933E+06
 0.87770004E+02  0.16293E+06
 0.87820007E+02  0.45584E+05
 0.87870003E+02 -0.53899E+05
 0.87920006E+02 -0.11179E+06
 0.87970001E+02 -0.12627E+06
 0.88020004E+02 -0.11413E+06
 0.88070007E+02 -0.78650E+05
 0.88120003E+02 -0.20077E+05
 0.88170006E+02  0.37179E+05
 0.88220001E+02  0.82424E+05
 0.88270004E+02  0.12470E+06
 0.88320007E+02  0.16818E+06
 0.88370003E+02  0.23331E+06
 0.88420006E+02  0.31584E+06
 0.88470001E+02  0.38300E+06
 0.88520004E+02  0.41699E+06
 0.88570007E+02  0.40971E+06
 0.88620003E+02  0.36310E+06
 0.88670006E+02  0.28032E+06
 0.88720001E+02  0.15551E+06
 0.88770004E+02 -0.10000E+03
 0.88820007E+02 -0.14153E+06
 0.88870003E+02 -0.24478E+06
 0.88920006E+02 -0.32422E+06
 0.88970001E+02 -0.38770E+06
 0.89020004E+02 -0.43984E+06
 0.89070007E+02 -0.46001E+06
 0.89120003E+02 -0.41507E+06
 0.89170006E+02 -0.31834E+06
 0.89220001E+02 -0.19385E+06
 0.89270004E+02 -0.55617E+05
 0.89320007E+02  0.80155E+05
 0.89370003E+02  0.19955E+06
 0.89420006E+02  0.28523E+06
 0.89470001E+02  0.33133E+06
 0.89520004E+02  0.34279E+06
 0.89570007E+02  0.32073E+06
 0.89620003E+02  0.26815E+06
 0.89670006E+02  0.20256E+06
 0.89720001E+02  0.15526E+06
 0.89770004E+02  0.14504E+06
 0.89820007E+02  0.17353E+06
 0.89870003E+02  0.22299E+06
 0.89920006E+02  0.25286E+06
 0.89970001E+02  0.25166E+06
 0.90020004E+02  0.24646E+06
 0.90070007E+02  0.25388E+06
 0.90120003E+02  0.27431E+06
 0.90170006E+02  0.29371E+06
 0.90220001E+02  0.30422E+06
 0.90270004E+02  0.32112E+06
 0.90320007E+02  0.33921E+06
 0.90370003E+02  0.34838E+06
 0.90420006E+02  0.35902E+06
 0.90470001E+02  0.36975E+06
 0.90520004E+02  0.37209E+06
 0.90570007E+02  0.37593E+06
 0.90620003E+02  0.39846E+06
 0.90670006E+02  0.42277E+06
 0.90720001E+02  0.42246E+06
 0.90770004E+02  0.40372E+06
 0.90820007E+02  0.37495E+06
 0.90870003E+02  0.32902E+06
 0.90920006E+02  0.24759E+06
 0.90970001E+02  0.11570E+06
 0.91020004E+02 -0.39106E+05
 0.91070007E+02 -0.15396E+06
 0.91120003E+02 -0.19355E+06
 0.91170006E+02 -0.16635E+06
 0.91220001E+02 -0.98519E+05
 0.91270004E+02 -0.26246E+05
 0.91320007E+02  0.37244E+05
 0.91370003E+02  0.99509E+05
 0.91420006E+02  0.14583E+06
 0.91470001E+02  0.16427E+06
 0.91520004E+02  0.16341E+06
 0.91570007E+02  0.17116E+06
 0.91620003E+02  0.22281E+06
 0.91670006E+02  0.32450E+06
 0.91720001E+02  0.44838E+06
 0.91770004E+02  0.54102E+06
 0.91820007E+02  0.56518E+06
 0.91870003E+02  0.51854E+06
 0.91920006E+02  0.40928E+06
 0.91970001E+02  0.26268E+06
 0.92020004E+02  0.11433E+06
 0.92070007E+02 -0.15387E+05
 0.92120003E+02 -0.11670E+06
 0.92170006E+02 -0.18457E+06
 0.92220001E+02 -0.22894E+06
 0.92270004E+02 -0.26103E+06
 0.92320007E+02 -0.28969E+06
 0.92370003E+02 -0.31592E+06
 0.92420006E+02 -0.32673E+06
 0.92470001E+02 -0.32055E+06
 0.92520004E+02 -0.29406E+06
 0.92570007E+02 -0.24566E+06
 0.92620003E+02 -0.19652E+06
 0.92670006E+02 -0.15931E+06
 0.92720001E+02 -0.13552E+06
 0.92770004E+02 -0.13192E+06
 0.92820007E+02 -0.14839E+06
 0.92870003E+02 -0.17352E+06
 0.92920006E+02 -0.18725E+06
 0.92970001E+02 -0.16218E+06
 0.93020004E+02 -0.88232E+05
 0.93070007E+02  0.92020E+04
 0.93120003E+02  0.10221E+06
 0.93170006E+02  0.17305E+06
 0.93220001E+02  0.20768E+06
 0.93270004E+02  0.21301E+06
 0.93320007E+02  0.19781E+06
 0.93370003E+02  0.16396E+06
 0.93420006E+02  0.11694E+06
 0.93470001E+02  0.60907E+05
 0.93520004E+02  0.28550E+04
 0.93570007E+02 -0.57565E+05
 0.93620003E+02 -0.11360E+06
 0.93670006E+02 -0.15125E+06
 0.93720001E+02 -0.17286E+06
 0.93770004E+02 -0.17625E+06
 0.93820007E+02 -0.16301E+06
 0.93870003E+02 -0.14352E+06
 0.93920006E+02 -0.11303E+06
 0.93970001E+02 -0.62429E+05
 0.94020004E+02  0.47990E+04
 0.94070007E+02  0.65999E+05
 0.94120003E+02  0.98007E+05
 0.94170006E+02  0.85729E+05
 0.94220001E+02  0.16457E+05
 0.94270004E+02 -0.92841E+05
 0.94320007E+02 -0.20738E+06
 0.94370003E+02 -0.30747E+06
 0.94420006E+02 -0.37740E+06
 0.94470001E+02 -0.41346E+06
 0.94520004E+02 -0.42518E+06
 0.94570007E+02 -0.40864E+06
 0.94620003E+02 -0.36806E+06
 0.94670006E+02 -0.31924E+06
 0.94720001E+02 -0.25495E+06
 0.94770004E+02 -0.15931E+06
 0.94820007E+02 -0.48658E+05
 0.94870003E+02  0.35342E+05
 0.94920006E+02  0.76229E+05
 0.94970001E+02  0.74245E+05
 0.95020004E+02  0.38418E+05
 0.95070007E+02  0.20000E+01
 0.95120003E+02 -0.31894E+05
 0.95170006E+02 -0.64106E+05
 0.95220001E+02 -0.92649E+05
 0.95270004E+02 -0.11262E+06
 0.95320007E+02 -0.11465E+06
 0.95370003E+02 -0.98714E+05
 0.95420006E+02 -0.81601E+05
 0.95470001E+02 -0.75058E+05
 0.95520004E+02 -0.80457E+05
 0.95570007E+02 -0.88971E+05
 0.95620003E+02 -0.81302E+05
 0.95670006E+02 -0.63243E+05
 0.95720001E+02 -0.60041E+05
 0.95770004E+02 -0.79848E+05
 0.95820007E+02 -0.12293E+06
 0.95870003E+02 -0.16771E+06
 0.95920006E+02 -0.17771E+06
 0.95970001E+02 -0.14390E+06
 0.96020004E+02 -0.83799E+05
 0.96070007E+02 -0.28131E+05
 0.96120003E+02 -0.25050E+04
 0.96170006E+02 -0.66670E+04
 0.96220001E+02 -0.22908E+05
 0.96270004E+02 -0.42920E+05
 0.96320007E+02 -0.73355E+05
 0.96370003E+02 -0.12380E+06
 0.96420006E+02 -0.18840E+06
 0.96470001E+02 -0.24189E+06
 0.96520004E+02 -0.25931E+06
 0.96570007E+02 -0.23716E+06
 0.96620003E+02 -0.20043E+06
 0.96670006E+02 -0.16197E+06
 0.96720001E+02 -0.12051E+06
 0.96770004E+02 -0.92907E+05
 0.96820007E+02 -0.94609E+05
 0.96870003E+02 -0.12814E+06
 0.96920006E+02 -0.18890E+06
 0.96970001E+02 -0.25912E+06
 0.97020004E+02 -0.31563E+06
 0.97070007E+02 -0.34621E+06
 0.97120003E+02 -0.34203E+06
 0.97170006E+02 -0.31211E+06
 0.97220001E+02 -0.28728E+06
 0.97270004E+02 -0.27887E+06
 0.97320007E+02 -0.26762E+06
 0.97370003E+02 -0.23418E+06
 0.97420006E+02 -0.18903E+06
 0.97470001E+02 -0.14918E+06
 0.97520004E+02 -0.11769E+06
 0.97570007E+02 -0.93529E+05
 0.97620003E+02 -0.65526E+05
 0.97670006E+02 -0.15891E+05
 0.97720001E+02  0.59927E+05
 0.97770004E+02  0.14814E+06
 0.97820007E+02  0.23426E+06
 0.97870003E+02  0.30892E+06
 0.97920006E+02  0.37024E+06
 0.97970001E+02  0.41619E+06
 0.98020004E+02  0.43312E+06
 0.98070007E+02  0.41692E+06
 0.98120003E+02  0.37483E+06
 0.98170006E+02  0.31835E+06
 0.98220001E+02  0.25440E+06
 0.98270004E+02  0.17176E+06
 0.98320007E+02  0.72870E+05
 0.98370003E+02 -0.11589E+05
 0.98420006E+02 -0.55933E+05
 0.98470001E+02 -0.59452E+05
 0.98520004E+02 -0.39802E+05
 0.98570007E+02 -0.96400E+04
 0.98620003E+02  0.32033E+05
 0.98670006E+02  0.76672E+05
 0.98720001E+02  0.11135E+06
 0.98770004E+02  0.13510E+06
 0.98820007E+02  0.14455E+06
 0.98870003E+02  0.14264E+06
 0.98920006E+02  0.14414E+06
 0.98970001E+02  0.15501E+06
 0.99020004E+02  0.16780E+06
 0.99070007E+02  0.17968E+06
 0.99120003E+02  0.19499E+06
 0.99170006E+02  0.21617E+06
 0.99220001E+02  0.24252E+06
 0.99270004E+02  0.25660E+06
 0.99320007E+02  0.24548E+06
 0.99370003E+02  0.21829E+06
 0.99420006E+02  0.19751E+06
 0.99470001E+02  0.21267E+06
 0.99520004E+02  0.27032E+06
 0.99570007E+02  0.35547E+06
 0.99620003E+02  0.45107E+06
 0.99670006E+02  0.53830E+06
 0.99720001E+02  0.60497E+06
 0.99770004E+02  0.64587E+06
 0.99820007E+02  0.66127E+06
 0.99870003E+02  0.65572E+06
 0.99920006E+02  0.63113E+06
 0.99970001E+02  0.59392E+06
 0.10002000E+03  0.55758E+06
 0.10007001E+03  0.53091E+06
 0.10012000E+03  0.50855E+06
 0.10017001E+03  0.47582E+06
 0.10022000E+03  0.43259E+06
 0.10027000E+03  0.39408E+06
 0.10032001E+03  0.35770E+06
 0.10037000E+03  0.31442E+06
 0.10042001E+03  0.26995E+06
 0.10047000E+03  0.21529E+06
 0.10052000E+03  0.13503E+06
 0.10057001E+03  0.40558E+05
 0.10062000E+03 -0.41222E+05
 0.10067001E+03 -0.96492E+05
 0.10072000E+03 -0.13410E+06
 0.10077000E+03 -0.16811E+06
 0.10082001E+03 -0.20953E+06
 0.10087000E+03 -0.26277E+06
 0.10092001E+03 -0.30776E+06
 0.10097000E+03 -0.32531E+06
 0.10102000E+03 -0.33699E+06
 0.10107001E+03 -0.38030E+06
 0.10112000E+03 -0.47412E+06
 0.10117001E+03 -0.60672E+06
 0.10122000E+03 -0.74454E+06
 0.10127000E+03 -0.85682E+06
 0.10132001E+03 -0.92497E+06
 0.10137000E+03 -0.95697E+06
 0.10142001E+03 -0.97161E+06
 0.10147000E+03 -0.97099E+06
 0.10152000E+03 -0.94215E+06
 0.10157001E+03 -0.87272E+06
 0.10162000E+03 -0.77229E+06
 0.10167001E+03 -0.65719E+06
 0.10172000E+03 -0.53825E+06
 0.10177000E+03 -0.42012E+06
 0.10182001E+03 -0.30320E+06
 0.10187000E+03 -0.19469E+06
 0.10192001E+03 -0.97147E+05
 0.10197000E+03 -0.10833E+05
 0.10202000E+03  0.60265E+05
 0.10207001E+03  0.11169E+06
 0.10212000E+03  0.13814E+06
 0.10217001E+03  0.14216E+06
 0.10222000E+03  0.13512E+06
 0.10227000E+03  0.13199E+06
 0.10232001E+03  0.13633E+06
 0.10237000E+03  0.13104E+06
 0.10242001E+03  0.10402E+06
 0.10247000E+03  0.63250E+05
 0.10252000E+03  0.23999E+05
 0.10257001E+03 -0.43670E+04
 0.10262000E+03 -0.21644E+05
 0.10267001E+03 -0.24872E+05
 0.10272000E+03 -0.11699E+05
 0.10277000E+03  0.16462E+05
 0.10282001E+03  0.61342E+05
 0.10287000E+03  0.11400E+06
 0.10292001E+03  0.16368E+06
 0.10297000E+03  0.20680E+06
 0.10302000E+03  0.23306E+06
 0.10307001E+03  0.22815E+06
 0.10312000E+03  0.18810E+06
 0.10317001E+03  0.12697E+06
 0.10322000E+03  0.59356E+05
 0.10327000E+03 -0.10390E+05
 0.10332001E+03 -0.87713E+05
 0.10337000E+03 -0.17868E+06
 0.10342001E+03 -0.27273E+06
 0.10347000E+03 -0.35143E+06
 0.10352000E+03 -0.39827E+06
 0.10357001E+03 -0.40041E+06
 0.10362000E+03 -0.35894E+06
 0.10367001E+03 -0.29136E+06
 0.10372000E+03 -0.22149E+06
 0.10377000E+03 -0.17065E+06
 0.10382001E+03 -0.14499E+06
 0.10387000E+03 -0.13491E+06
 0.10392001E+03 -0.12572E+06
 0.10397000E+03 -0.10673E+06
 0.10402000E+03 -0.88642E+05
 0.10407001E+03 -0.83547E+05
 0.10412000E+03 -0.83682E+05
 0.10417001E+03 -0.78855E+05
 0.10422000E+03 -0.63883E+05
 0.10427000E+03 -0.44839E+05
 0.10432001E+03 -0.38425E+05
 0.10437000E+03 -0.51882E+05
 0.10442001E+03 -0.71575E+05
 0.10447000E+03 -0.81912E+05
 0.10452000E+03 -0.85692E+05
 0.10457001E+03 -0.10114E+06
 0.10462000E+03 -0.14293E+06
 0.10467001E+03 -0.20311E+06
 0.10472000E+03 -0.26152E+06
 0.10477000E+03 -0.30053E+06
 0.10482001E+03 -0.31231E+06
 0.10487000E+03 -0.30166E+06
 0.10492001E+03 -0.27163E+06
 0.10497000E+03 -0.21464E+06
 0.10502000E+03 -0.12701E+06
 0.10507001E+03 -0.25805E+05
 0.10512000E+03  0.58641E+05
 0.10517001E+03  0.11805E+06
 0.10522000E+03  0.17348E+06
 0.10527000E+03  0.24071E+06
 0.10532001E+03  0.32236E+06
 0.10537000E+03  0.40671E+06
 0.10542001E+03  0.47743E+06
 0.10547000E+03  0.53456E+06
 0.10552000E+03  0.57900E+06
 0.10557001E+03  0.60374E+06
 0.10562000E+03  0.61066E+06
 0.10567001E+03  0.61240E+06
 0.10572000E+03  0.61540E+06
 0.10577000E+03  0.62380E+06
 0.10582001E+03  0.63001E+06
 0.10587000E+03  0.60768E+06
 0.10592001E+03  0.54790E+06
 0.10597000E+03  0.46757E+06
 0.10602000E+03  0.38958E+06
 0.10607001E+03  0.32604E+06
 0.10612000E+03  0.27831E+06
 0.10617001E+03  0.24721E+06
 0.10622000E+03  0.22791E+06
 0.10627000E+03  0.21280E+06
 0.10632001E+03  0.20132E+06
 0.10637000E+03  0.19204E+06
 0.10642001E+03  0.17568E+06
 0.10647000E+03  0.14586E+06
 0.10652000E+03  0.10629E+06
 0.10657001E+03  0.68180E+05
 0.10662000E+03  0.36839E+05
 0.10667001E+03  0.50200E+04
 0.10672000E+03 -0.33519E+05
 0.10677000E+03 -0.78262E+05
 0.10682001E+03 -0.11460E+06
 0.10687000E+03 -0.12007E+06
 0.10692001E+03 -0.89098E+05
 0.10697000E+03 -0.29709E+05
 0.10702000E+03  0.40618E+05
 0.10707001E+03  0.99868E+05
 0.10712000E+03  0.13560E+06
 0.10717001E+03  0.14490E+06
 0.10722000E+03  0.13887E+06
 0.10727000E+03  0.13174E+06
 0.10732001E+03  0.11788E+06
 0.10737000E+03  0.80753E+05
 0.10742001E+03  0.12786E+05
 0.10747000E+03 -0.79876E+05
 0.10752000E+03 -0.17353E+06
 0.10757001E+03 -0.24437E+06
 0.10762000E+03 -0.28359E+06
 0.10767001E+03 -0.28581E+06
 0.10772000E+03 -0.25824E+06
 0.10777000E+03 -0.21452E+06
 0.10782001E+03 -0.15351E+06
 0.10787000E+03 -0.76066E+05
 0.10792001E+03  0.57460E+04
 0.10797000E+03  0.79430E+05
 0.10802000E+03  0.13076E+06
 0.10807001E+03  0.15124E+06
 0.10812000E+03  0.14196E+06
 0.10817001E+03  0.10167E+06
 0.10822000E+03  0.31606E+05
 0.10827000E+03 -0.55004E+05
 0.10832001E+03 -0.13970E+06
 0.10837000E+03 -0.20655E+06
 0.10842001E+03 -0.24252E+06
 0.10847000E+03 -0.24031E+06
 0.10852000E+03 -0.20149E+06
 0.10857001E+03 -0.13550E+06
 0.10862000E+03 -0.58794E+05
 0.10867001E+03  0.81240E+04
 0.10872000E+03  0.50894E+05
 0.10877000E+03  0.66197E+05
 0.10882001E+03  0.61377E+05
 0.10887000E+03  0.51384E+05
 0.10892001E+03  0.40794E+05
 0.10897000E+03  0.29670E+05
 0.10902000E+03  0.24427E+05
 0.10907001E+03  0.20958E+05
 0.10912000E+03  0.15504E+05
 0.10917001E+03  0.91070E+04
 0.10922000E+03 -0.20950E+04
 0.10927000E+03 -0.12292E+05
 0.10932001E+03 -0.16276E+05
 0.10937000E+03 -0.17005E+05
 0.10942001E+03 -0.96250E+04
 0.10947000E+03  0.10998E+05
 0.10952000E+03  0.33092E+05
 0.10957001E+03  0.41755E+05
 0.10962000E+03  0.36037E+05
 0.10967001E+03  0.12446E+05
 0.10972000E+03 -0.27456E+05
 0.10977000E+03 -0.71732E+05
 0.10982001E+03 -0.11937E+06
 0.10987000E+03 -0.16908E+06
 0.10992001E+03 -0.21529E+06
 0.10997000E+03 -0.25034E+06
 0.11002000E+03 -0.26840E+06
 0.11007001E+03 -0.27347E+06
 0.11012000E+03 -0.26406E+06
 0.11017001E+03 -0.23704E+06
 0.11022000E+03 -0.19676E+06
 0.11027000E+03 -0.15138E+06
 0.11032001E+03 -0.10761E+06
 0.11037000E+03 -0.70474E+05
 0.11042001E+03 -0.48862E+05
 0.11047000E+03 -0.45018E+05
 0.11052000E+03 -0.54564E+05
 0.11057001E+03 -0.68957E+05
 0.11062000E+03 -0.73231E+05
 0.11067001E+03 -0.63016E+05
 0.11072000E+03 -0.42354E+05
 0.11077000E+03 -0.10943E+05
 0.11082001E+03  0.22801E+05
 0.11087000E+03  0.42344E+05
 0.11092001E+03  0.42579E+05
 0.11097000E+03  0.26350E+05
 0.11102000E+03  0.14350E+04
 0.11107001E+03 -0.17691E+05
 0.11112000E+03 -0.23688E+05
 0.11117001E+03 -0.19652E+05
 0.11122000E+03 -0.84830E+04
 0.11127000E+03  0.63330E+04
 0.11132001E+03  0.18943E+05
 0.11137000E+03  0.28054E+05
 0.11142001E+03  0.24983E+05
 0.11147000E+03  0.31490E+04
 0.11152000E+03 -0.33943E+05
 0.11157001E+03 -0.86994E+05
 0.11162000E+03 -0.14070E+06
 0.11167001E+03 -0.17811E+06
 0.11172000E+03 -0.20059E+06
 0.11177000E+03 -0.20550E+06
 0.11182001E+03 -0.19211E+06
 0.11187000E+03 -0.16568E+06
 0.11192001E+03 -0.12719E+06
 0.11197000E+03 -0.86854E+05
 0.11202000E+03 -0.55754E+05
 0.11207001E+03 -0.23793E+05
 0.11212000E+03  0.17115E+05
 0.11217001E+03  0.62625E+05
 0.11222000E+03  0.10905E+06
 0.11227000E+03  0.15461E+06
 0.11232001E+03  0.20176E+06
 0.11237000E+03  0.25775E+06
 0.11242001E+03  0.32864E+06
 0.11247000E+03  0.40350E+06
 0.11252000E+03  0.46558E+06
 0.11257001E+03  0.50614E+06
 0.11262000E+03  0.52314E+06
 0.11267001E+03  0.52494E+06
 0.11272000E+03  0.51945E+06
 0.11277000E+03  0.50970E+06
 0.11282001E+03  0.49383E+06
 0.11287000E+03  0.46548E+06
 0.11292001E+03  0.42222E+06
 0.11297000E+03  0.37821E+06
 0.11302000E+03  0.35728E+06
 0.11307001E+03  0.36591E+06
 0.11312000E+03  0.39690E+06
 0.11317001E+03  0.43524E+06
 0.11322000E+03  0.46064E+06
 0.11327000E+03  0.46508E+06
 0.11332001E+03  0.44248E+06
 0.11337000E+03  0.38129E+06
 0.11342001E+03  0.29002E+06
 0.11347000E+03  0.19241E+06
 0.11352000E+03  0.99413E+05
 0.11357001E+03  0.21098E+05
 0.11362000E+03 -0.34091E+05
 0.11367001E+03 -0.76594E+05
 0.11372000E+03 -0.10875E+06
 0.11377000E+03 -0.11960E+06
 0.11382001E+03 -0.10861E+06
 0.11387000E+03 -0.81218E+05
 0.11392001E+03 -0.42936E+05
 0.11397000E+03 -0.53340E+04
 0.11402000E+03  0.21178E+05
 0.11407001E+03  0.32881E+05
 0.11412000E+03  0.22202E+05
 0.11417001E+03 -0.15915E+05
 0.11422000E+03 -0.70123E+05
 0.11427000E+03 -0.12346E+06
 0.11432001E+03 -0.16893E+06
 0.11437000E+03 -0.20836E+06
 0.11442001E+03 -0.24707E+06
 0.11447000E+03 -0.28963E+06
 0.11452000E+03 -0.33307E+06
 0.11457001E+03 -0.36745E+06
 0.11462000E+03 -0.38406E+06
 0.11467001E+03 -0.38391E+06
 0.11472000E+03 -0.37936E+06
 0.11477000E+03 -0.38358E+06
 0.11482001E+03 -0.39769E+06
 0.11487000E+03 -0.41604E+06
 0.11492001E+03 -0.43291E+06
 0.11497000E+03 -0.44099E+06
 0.11502000E+03 -0.43691E+06
 0.11507001E+03 -0.42224E+06
 0.11512000E+03 -0.40488E+06
 0.11517001E+03 -0.38864E+06
 0.11522000E+03 -0.36823E+06
 0.11527000E+03 -0.34838E+06
 0.11532001E+03 -0.33625E+06
 0.11537000E+03 -0.32903E+06
 0.11542001E+03 -0.32268E+06
 0.11547000E+03 -0.31710E+06
 0.11552000E+03 -0.31228E+06
 0.11557001E+03 -0.30312E+06
 0.11562000E+03 -0.28640E+06
 0.11567001E+03 -0.26126E+06
 0.11572000E+03 -0.22487E+06
 0.11577000E+03 -0.17791E+06
 0.11582001E+03 -0.12676E+06
 0.11587000E+03 -0.85726E+05
 0.11592001E+03 -0.68634E+05
 0.11597000E+03 -0.76314E+05
 0.11602000E+03 -0.96643E+05
 0.11607001E+03 -0.11030E+06
 0.11612000E+03 -0.10184E+06
 0.11617001E+03 -0.70947E+05
 0.11622000E+03 -0.35460E+05
 0.11627000E+03 -0.15029E+05
 0.11632001E+03 -0.15894E+05
 0.11637000E+03 -0.37093E+05
 0.11642001E+03 -0.71811E+05
 0.11647000E+03 -0.11164E+06
 0.11652000E+03 -0.14821E+06
 0.11657001E+03 -0.16172E+06
 0.11662000E+03 -0.14029E+06
 0.11667001E+03 -0.92463E+05
 0.11672000E+03 -0.28532E+05
 0.11677000E+03  0.34454E+05
 0.11682001E+03  0.79950E+05
 0.11687000E+03  0.11164E+06
 0.11692001E+03  0.14091E+06
 0.11697000E+03  0.17234E+06
 0.11702000E+03  0.20290E+06
 0.11707001E+03  0.22570E+06
 0.11712000E+03  0.23275E+06
 0.11717001E+03  0.22065E+06
 0.11722000E+03  0.19611E+06
 0.11727000E+03  0.16866E+06
 0.11732001E+03  0.13967E+06
 0.11737000E+03  0.10744E+06
 0.11742001E+03  0.73538E+05
 0.11747000E+03  0.34724E+05
 0.11752000E+03 -0.11446E+05
 0.11757001E+03 -0.52491E+05
 0.11762000E+03 -0.74247E+05
 0.11767001E+03 -0.78018E+05
 0.11772000E+03 -0.72393E+05
 0.11777000E+03 -0.71882E+05
 0.11782001E+03 -0.89807E+05
 0.11787000E+03 -0.12399E+06
 0.11792001E+03 -0.16784E+06
 0.11797000E+03 -0.21725E+06
 0.11802000E+03 -0.26353E+06
 0.11807001E+03 -0.28898E+06
 0.11812000E+03 -0.27844E+06
 0.11817001E+03 -0.23375E+06
 0.11822000E+03 -0.16955E+06
 0.11827000E+03 -0.10302E+06
 0.11832001E+03 -0.49859E+05
 0.11837000E+03 -0.15843E+05
 0.11842001E+03  0.77140E+04
 0.11847000E+03  0.28455E+05
 0.11852000E+03  0.47782E+05
 0.11857001E+03  0.64539E+05
 0.11862000E+03  0.77465E+05
 0.11867001E+03  0.96705E+05
 0.11872000E+03  0.13254E+06
 0.11877000E+03  0.18153E+06
 0.11882001E+03  0.23967E+06
 0.11887000E+03  0.29878E+06
 0.11892001E+03  0.34682E+06
 0.11897000E+03  0.38335E+06
 0.11902000E+03  0.40964E+06
 0.11907001E+03  0.42082E+06
 0.11912000E+03  0.40980E+06
 0.11917001E+03  0.37614E+06
 0.11922000E+03  0.33042E+06
 0.11927000E+03  0.28014E+06
 0.11932001E+03  0.22760E+06
 0.11937000E+03  0.17192E+06
 0.11942001E+03  0.11338E+06
 0.11947000E+03  0.64511E+05
 0.11952000E+03  0.33875E+05
 0.11957001E+03  0.19962E+05
 0.11962000E+03  0.25529E+05
 0.11967001E+03  0.47546E+05
 0.11972000E+03  0.70003E+05
 0.11977000E+03  0.80154E+05
 0.11982001E+03  0.77629E+05
 0.11987000E+03  0.68928E+05
 0.11992001E+03  0.62331E+05
 0.11997000E+03  0.63709E+05
 0.12002000E+03  0.77518E+05
 0.12007001E+03  0.10962E+06
 0.12012000E+03  0.15534E+06
 0.12017001E+03  0.19403E+06
 0.12022000E+03  0.21059E+06
 0.12027000E+03  0.19811E+06
 0.12032001E+03  0.15543E+06
 0.12037000E+03  0.10288E+06
 0.12042001E+03  0.61580E+05
 0.12047000E+03  0.38505E+05
 0.12052000E+03  0.35942E+05
 0.12057001E+03  0.43483E+05
 0.12062000E+03  0.48487E+05
 0.12067001E+03  0.55539E+05
 0.12072000E+03  0.72098E+05
 0.12077000E+03  0.90869E+05
 0.12082001E+03  0.10315E+06
 0.12087000E+03  0.10737E+06
 0.12092001E+03  0.10403E+06
 0.12097000E+03  0.10002E+06
 0.12102000E+03  0.97448E+05
 0.12107001E+03  0.87167E+05
 0.12112000E+03  0.64669E+05
 0.12117001E+03  0.34010E+05
 0.12122000E+03  0.75200E+03
 0.12127000E+03 -0.31087E+05
 0.12132001E+03 -0.63335E+05
 0.12137000E+03 -0.10150E+06
 0.12142001E+03 -0.14407E+06
 0.12147000E+03 -0.18340E+06
 0.12152000E+03 -0.21098E+06
 0.12157001E+03 -0.22530E+06
 0.12162000E+03 -0.23379E+06
 0.12167001E+03 -0.24485E+06
 0.12172000E+03 -0.26407E+06
 0.12177000E+03 -0.28895E+06
 0.12182001E+03 -0.31340E+06
 0.12187000E+03 -0.33238E+06
 0.12192001E+03 -0.34440E+06
 0.12197000E+03 -0.35463E+06
 0.12202000E+03 -0.36492E+06
 0.12207001E+03 -0.37120E+06
 0.12212000E+03 -0.37106E+06
 0.12217001E+03 -0.36252E+06
 0.12222000E+03 -0.34339E+06
 0.12227000E+03 -0.31545E+06
 0.12232001E+03 -0.27770E+06
 0.12237000E+03 -0.22891E+06
 0.12242001E+03 -0.18025E+06
 0.12247000E+03 -0.14696E+06
 0.12252000E+03 -0.13835E+06
 0.12257001E+03 -0.15099E+06
 0.12262000E+03 -0.16512E+06
 0.12267001E+03 -0.15800E+06
 0.12272000E+03 -0.11833E+06
 0.12277000E+03 -0.51717E+05
 0.12282001E+03  0.23275E+05
 0.12287000E+03  0.88279E+05
 0.12292001E+03  0.14114E+06
 0.12297000E+03  0.18710E+06
 0.12302000E+03  0.22127E+06
 0.12307001E+03  0.23807E+06
 0.12312000E+03  0.23702E+06
 0.12317001E+03  0.22448E+06
 0.12322000E+03  0.21086E+06
 0.12327000E+03  0.19910E+06
 0.12332001E+03  0.18851E+06
 0.12337000E+03  0.17807E+06
 0.12342001E+03  0.17055E+06
 0.12347000E+03  0.17542E+06
 0.12352000E+03  0.19991E+06
 0.12357001E+03  0.24297E+06
 0.12362000E+03  0.29339E+06
 0.12367001E+03  0.33517E+06
 0.12372000E+03  0.35555E+06
 0.12377000E+03  0.34737E+06
 0.12382001E+03  0.31404E+06
 0.12387000E+03  0.26558E+06
 0.12392001E+03  0.21111E+06
 0.12397000E+03  0.16134E+06
 0.12402000E+03  0.12055E+06
 0.12407001E+03  0.85928E+05
 0.12412000E+03  0.56412E+05
 0.12417001E+03  0.34046E+05
 0.12422001E+03  0.26167E+05
 0.12427001E+03  0.37487E+05
 0.12432000E+03  0.61551E+05
 0.12437000E+03  0.87515E+05
 0.12442001E+03  0.10760E+06
 0.12447001E+03  0.11352E+06
 0.12452001E+03  0.10073E+06
 0.12457000E+03  0.77690E+05
 0.12462000E+03  0.60746E+05
 0.12467001E+03  0.63552E+05
 0.12472001E+03  0.84578E+05
 0.12477001E+03  0.11164E+06
 0.12482000E+03  0.13865E+06
 0.12487000E+03  0.16597E+06
 0.12492001E+03  0.19394E+06
 0.12497001E+03  0.22090E+06
 0.12502001E+03  0.24086E+06
 0.12507000E+03  0.24373E+06
 0.12512000E+03  0.22450E+06
 0.12517001E+03  0.18388E+06
 0.12522001E+03  0.12543E+06
 0.12527001E+03  0.62694E+05
 0.12532000E+03  0.97880E+04
 0.12537000E+03 -0.29194E+05
 0.12542001E+03 -0.50658E+05
 0.12547001E+03 -0.53473E+05
 0.12552001E+03 -0.41013E+05
 0.12557000E+03 -0.12280E+05
 0.12562000E+03  0.27333E+05
 0.12567001E+03  0.63923E+05
 0.12572001E+03  0.90676E+05
 0.12577001E+03  0.10118E+06
 0.12582000E+03  0.90808E+05
 0.12587000E+03  0.66002E+05
 0.12592001E+03  0.30507E+05
 0.12597001E+03 -0.13397E+05
 0.12602001E+03 -0.61832E+05
 0.12607000E+03 -0.11634E+06
 0.12612000E+03 -0.17509E+06
 0.12617001E+03 -0.23208E+06
 0.12622001E+03 -0.28310E+06
 0.12627001E+03 -0.31965E+06
 0.12632000E+03 -0.32579E+06
 0.12637000E+03 -0.29250E+06
 0.12642001E+03 -0.22822E+06
 0.12647001E+03 -0.15146E+06
 0.12652001E+03 -0.79837E+05
 0.12657000E+03 -0.25695E+05
 0.12662000E+03 -0.17200E+03
 0.12667001E+03 -0.12710E+05
 0.12672001E+03 -0.64375E+05
 0.12677001E+03 -0.14626E+06
 0.12682000E+03 -0.24272E+06
 0.12687000E+03 -0.32806E+06
 0.12692001E+03 -0.37509E+06
 0.12697001E+03 -0.37733E+06
 0.12702001E+03 -0.34382E+06
 0.12707000E+03 -0.28916E+06
 0.12712000E+03 -0.23562E+06
 0.12717001E+03 -0.19659E+06
 0.12722001E+03 -0.17008E+06
 0.12727001E+03 -0.14734E+06
 0.12732000E+03 -0.11758E+06
 0.12737000E+03 -0.81010E+05
 0.12742001E+03 -0.45565E+05
 0.12747001E+03 -0.18352E+05
 0.12752001E+03 -0.47790E+04
 0.12757000E+03 -0.27510E+04
 0.12762000E+03 -0.41930E+04
 0.12767001E+03 -0.13700E+04
 0.12772001E+03  0.34980E+04
 0.12777001E+03  0.33500E+03
 0.12782000E+03 -0.17976E+05
 0.12787000E+03 -0.51379E+05
 0.12792001E+03 -0.93436E+05
 0.12797001E+03 -0.13773E+06
 0.12802000E+03 -0.17764E+06
 0.12806999E+03 -0.20575E+06
 0.12812000E+03 -0.21986E+06
 0.12817000E+03 -0.22365E+06
 0.12822000E+03 -0.22028E+06
 0.12827000E+03 -0.21112E+06
 0.12831999E+03 -0.19823E+06
 0.12837000E+03 -0.18255E+06
 0.12842000E+03 -0.16375E+06
 0.12847000E+03 -0.13851E+06
 0.12852000E+03 -0.10469E+06
 0.12856999E+03 -0.66738E+05
 0.12862000E+03 -0.29713E+05
 0.12867000E+03  0.39040E+04
 0.12872000E+03  0.34730E+05
 0.12877000E+03  0.65435E+05
 0.12881999E+03  0.97472E+05
 0.12887000E+03  0.12833E+06
 0.12892000E+03  0.15082E+06
 0.12897000E+03  0.15832E+06
 0.12902000E+03  0.14631E+06
 0.12906999E+03  0.11726E+06
 0.12912000E+03  0.82152E+05
 0.12917000E+03  0.50237E+05
 0.12922000E+03  0.27270E+05
 0.12927000E+03  0.15113E+05
 0.12931999E+03  0.76800E+04
 0.12937000E+03 -0.38940E+04
 0.12942000E+03 -0.20648E+05
 0.12947000E+03 -0.37205E+05
 0.12952000E+03 -0.48305E+05
 0.12956999E+03 -0.47869E+05
 0.12962000E+03 -0.33140E+05
 0.12967000E+03 -0.74940E+04
 0.12972000E+03  0.24427E+05
 0.12977000E+03  0.60699E+05
 0.12981999E+03  0.97577E+05
 0.12987000E+03  0.13149E+06
 0.12992000E+03  0.16475E+06
 0.12997000E+03  0.19520E+06
 0.13002000E+03  0.21949E+06
 0.13006999E+03  0.23731E+06
 0.13012000E+03  0.24739E+06
 0.13017000E+03  0.25150E+06
 0.13022000E+03  0.24994E+06
 0.13027000E+03  0.24188E+06
 0.13031999E+03  0.22852E+06
 0.13037000E+03  0.21201E+06
 0.13042000E+03  0.19356E+06
 0.13047000E+03  0.17234E+06
 0.13052000E+03  0.14830E+06
 0.13056999E+03  0.11694E+06
 0.13062000E+03  0.73519E+05
 0.13067000E+03  0.21458E+05
 0.13072000E+03 -0.34256E+05
 0.13077000E+03 -0.90881E+05
 0.13081999E+03 -0.14431E+06
 0.13087000E+03 -0.18634E+06
 0.13092000E+03 -0.20925E+06
 0.13097000E+03 -0.20975E+06
 0.13102000E+03 -0.18498E+06
 0.13106999E+03 -0.13770E+06
 0.13112000E+03 -0.80327E+05
 0.13117000E+03 -0.25659E+05
 0.13122000E+03  0.21151E+05
 0.13127000E+03  0.61081E+05
 0.13131999E+03  0.92845E+05
 0.13137000E+03  0.11239E+06
 0.13142000E+03  0.11826E+06
 0.13147000E+03  0.11583E+06
 0.13152000E+03  0.11535E+06
 0.13156999E+03  0.12511E+06
 0.13162000E+03  0.15039E+06
 0.13167000E+03  0.18769E+06
 0.13172000E+03  0.22734E+06
 0.13177000E+03  0.26473E+06
 0.13181999E+03  0.29503E+06
 0.13187000E+03  0.31220E+06
 0.13192000E+03  0.31514E+06
 0.13197000E+03  0.30583E+06
 0.13202000E+03  0.28948E+06
 0.13206999E+03  0.27159E+06
 0.13212000E+03  0.25349E+06
 0.13217000E+03  0.23439E+06
 0.13222000E+03  0.21357E+06
 0.13227000E+03  0.19405E+06
 0.13231999E+03  0.17952E+06
 0.13237000E+03  0.17026E+06
 0.13242000E+03  0.16330E+06
 0.13247000E+03  0.15145E+06
 0.13252000E+03  0.13312E+06
 0.13256999E+03  0.11023E+06
 0.13262000E+03  0.80439E+05
 0.13267000E+03  0.46514E+05
 0.13272000E+03  0.14660E+05
 0.13277000E+03 -0.12214E+05
 0.13281999E+03 -0.33738E+05
 0.13287000E+03 -0.51098E+05
 0.13292000E+03 -0.64853E+05
 0.13297000E+03 -0.77032E+05
 0.13302000E+03 -0.89526E+05
 0.13306999E+03 -0.99151E+05
 0.13312000E+03 -0.99848E+05
 0.13317000E+03 -0.85950E+05
 0.13322000E+03 -0.60491E+05
 0.13327000E+03 -0.36099E+05
 0.13331999E+03 -0.21747E+05
 0.13337000E+03 -0.17816E+05
 0.13342000E+03 -0.21492E+05
 0.13347000E+03 -0.31562E+05
 0.13352000E+03 -0.44266E+05
 0.13356999E+03 -0.51725E+05
 0.13362000E+03 -0.46387E+05
 0.13367000E+03 -0.29392E+05
 0.13372000E+03 -0.14794E+05
 0.13377000E+03 -0.13073E+05
 0.13381999E+03 -0.23585E+05
 0.13387000E+03 -0.42638E+05
 0.13392000E+03 -0.64520E+05
 0.13397000E+03 -0.85764E+05
 0.13402000E+03 -0.10583E+06
 0.13406999E+03 -0.12369E+06
 0.13412000E+03 -0.14150E+06
 0.13417000E+03 -0.16203E+06
 0.13422000E+03 -0.18676E+06
 0.13427000E+03 -0.21376E+06
 0.13431999E+03 -0.23875E+06
 0.13437000E+03 -0.25962E+06
 0.13442000E+03 -0.27076E+06
 0.13447000E+03 -0.27184E+06
 0.13452000E+03 -0.27215E+06
 0.13456999E+03 -0.27750E+06
 0.13462000E+03 -0.29039E+06
 0.13467000E+03 -0.31154E+06
 0.13472000E+03 -0.33775E+06
 0.13477000E+03 -0.36660E+06
 0.13481999E+03 -0.39606E+06
 0.13487000E+03 -0.41956E+06
 0.13492000E+03 -0.42987E+06
 0.13497000E+03 -0.42042E+06
 0.13502000E+03 -0.38387E+06
 0.13506999E+03 -0.31978E+06
 0.13512000E+03 -0.23644E+06
 0.13517000E+03 -0.14674E+06
 0.13522000E+03 -0.64493E+05
 0.13527000E+03  0.50300E+03
 0.13531999E+03  0.45187E+05
 0.13537000E+03  0.73907E+05
 0.13542000E+03  0.93676E+05
 0.13547000E+03  0.10742E+06
 0.13552000E+03  0.11304E+06
 0.13556999E+03  0.10872E+06
 0.13562000E+03  0.98753E+05
 0.13567000E+03  0.92640E+05
 0.13572000E+03  0.97239E+05
 0.13577000E+03  0.11126E+06
 0.13581999E+03  0.12863E+06
 0.13587000E+03  0.14366E+06
 0.13592000E+03  0.15273E+06
 0.13597000E+03  0.15044E+06
 0.13602000E+03  0.13067E+06
 0.13606999E+03  0.94658E+05
 0.13612000E+03  0.48670E+05
 0.13617000E+03 -0.15000E+04
 0.13622000E+03 -0.49815E+05
 0.13627000E+03 -0.89817E+05
 0.13631999E+03 -0.11841E+06
 0.13637000E+03 -0.13542E+06
 0.13642000E+03 -0.13944E+06
 0.13647000E+03 -0.13552E+06
 0.13652000E+03 -0.13242E+06
 0.13656999E+03 -0.13093E+06
 0.13662000E+03 -0.12669E+06
 0.13667000E+03 -0.11596E+06
 0.13672000E+03 -0.10334E+06
 0.13677000E+03 -0.99131E+05
 0.13681999E+03 -0.10674E+06
 0.13687000E+03 -0.12030E+06
 0.13692000E+03 -0.13090E+06
 0.13697000E+03 -0.13067E+06
 0.13702000E+03 -0.11384E+06
 0.13706999E+03 -0.82713E+05
 0.13712000E+03 -0.44039E+05
 0.13717000E+03 -0.25520E+04
 0.13722000E+03  0.37738E+05
 0.13727000E+03  0.72425E+05
 0.13731999E+03  0.99726E+05
 0.13737000E+03  0.12172E+06
 0.13742000E+03  0.13582E+06
 0.13747000E+03  0.14053E+06
 0.13752000E+03  0.13864E+06
 0.13756999E+03  0.13190E+06
 0.13762000E+03  0.12697E+06
 0.13767000E+03  0.12801E+06
 0.13772000E+03  0.13073E+06
 0.13777000E+03  0.12844E+06
 0.13781999E+03  0.11526E+06
 0.13787000E+03  0.89094E+05
 0.13792000E+03  0.52551E+05
 0.13797000E+03  0.13358E+05
 0.13802000E+03 -0.22065E+05
 0.13806999E+03 -0.51854E+05
 0.13812000E+03 -0.74285E+05
 0.13817000E+03 -0.88763E+05
 0.13822000E+03 -0.94447E+05
 0.13827000E+03 -0.90036E+05
 0.13831999E+03 -0.75716E+05
 0.13837000E+03 -0.52084E+05
 0.13842000E+03 -0.19613E+05
 0.13847000E+03  0.21288E+05
 0.13852000E+03  0.67509E+05
 0.13856999E+03  0.11222E+06
 0.13862000E+03  0.15146E+06
 0.13867000E+03  0.18675E+06
 0.13872000E+03  0.21941E+06
 0.13877000E+03  0.24584E+06
 0.13881999E+03  0.25953E+06
 0.13887000E+03  0.25569E+06
 0.13892000E+03  0.23344E+06
 0.13897000E+03  0.19999E+06
 0.13902000E+03  0.16605E+06
 0.13906999E+03  0.13770E+06
 0.13912000E+03  0.11668E+06
 0.13917000E+03  0.10148E+06
 0.13922000E+03  0.92975E+05
 0.13927000E+03  0.95256E+05
 0.13931999E+03  0.11028E+06
 0.13937000E+03  0.14025E+06
 0.13942000E+03  0.18208E+06
 0.13947000E+03  0.22365E+06
 0.13952000E+03  0.25621E+06
 0.13956999E+03  0.27644E+06
 0.13962000E+03  0.28097E+06
 0.13967000E+03  0.27082E+06
 0.13972000E+03  0.24841E+06
 0.13977000E+03  0.21060E+06
 0.13981999E+03  0.15902E+06
 0.13987000E+03  0.10655E+06
 0.13992000E+03  0.65617E+05
 0.13997000E+03  0.40692E+05
 0.14002000E+03  0.27884E+05
 0.14006999E+03  0.18373E+05
 0.14012000E+03  0.66520E+04
 0.14017000E+03 -0.85020E+04
 0.14022000E+03 -0.24666E+05
 0.14027000E+03 -0.35391E+05
 0.14031999E+03 -0.38716E+05
 0.14037000E+03 -0.38276E+05
 0.14042000E+03 -0.34767E+05
 0.14047000E+03 -0.26800E+05
 0.14052000E+03 -0.18273E+05
 0.14056999E+03 -0.14654E+05
 0.14062000E+03 -0.13985E+05
 0.14067000E+03 -0.10333E+05
 0.14072000E+03  0.27000E+02
 0.14077000E+03  0.17787E+05
 0.14081999E+03  0.39237E+05
 0.14087000E+03  0.59186E+05
 0.14092000E+03  0.75609E+05
 0.14097000E+03  0.89376E+05
 0.14102000E+03  0.99939E+05
 0.14106999E+03  0.10305E+06
 0.14112000E+03  0.98144E+05
 0.14117000E+03  0.89668E+05
 0.14122000E+03  0.80529E+05
 0.14127000E+03  0.71906E+05
 0.14131999E+03  0.66731E+05
 0.14137000E+03  0.69812E+05
 0.14142000E+03  0.81858E+05
 0.14147000E+03  0.99641E+05
 0.14152000E+03  0.11941E+06
 0.14156999E+03  0.13624E+06
 0.14162000E+03  0.14838E+06
 0.14167000E+03  0.15646E+06
 0.14172000E+03  0.15886E+06
 0.14177000E+03  0.15221E+06
 0.14181999E+03  0.13235E+06
 0.14187000E+03  0.10340E+06
 0.14192000E+03  0.75771E+05
 0.14197000E+03  0.52908E+05
 0.14202000E+03  0.33831E+05
 0.14206999E+03  0.16870E+05
 0.14212000E+03  0.26600E+03
 0.14217000E+03 -0.15443E+05
 0.14222000E+03 -0.31687E+05
 0.14227000E+03 -0.53596E+05
 0.14231999E+03 -0.84086E+05
 0.14237000E+03 -0.11700E+06
 0.14242000E+03 -0.14000E+06
 0.14247000E+03 -0.14637E+06
 0.14252000E+03 -0.13718E+06
 0.14256999E+03 -0.11629E+06
 0.14262000E+03 -0.88829E+05
 0.14267000E+03 -0.61003E+05
 0.14272000E+03 -0.39939E+05
 0.14277000E+03 -0.31830E+05
 0.14281999E+03 -0.37917E+05
 0.14287000E+03 -0.53812E+05
 0.14292000E+03 -0.75890E+05
 0.14297000E+03 -0.10464E+06
 0.14302000E+03 -0.14013E+06
 0.14306999E+03 -0.17952E+06
 0.14312000E+03 -0.21812E+06
 0.14317000E+03 -0.24869E+06
 0.14322000E+03 -0.26316E+06
 0.14327000E+03 -0.25574E+06
 0.14331999E+03 -0.22510E+06
 0.14337000E+03 -0.17791E+06
 0.14342000E+03 -0.12832E+06
 0.14347000E+03 -0.91362E+05
 0.14352000E+03 -0.74152E+05
 0.14356999E+03 -0.74795E+05
 0.14362000E+03 -0.89200E+05
 0.14367000E+03 -0.11276E+06
 0.14372000E+03 -0.13902E+06
 0.14377000E+03 -0.16085E+06
 0.14381999E+03 -0.17367E+06
 0.14387000E+03 -0.17809E+06
 0.14392000E+03 -0.17763E+06
 0.14397000E+03 -0.17391E+06
 0.14402000E+03 -0.16600E+06
 0.14406999E+03 -0.15678E+06
 0.14412000E+03 -0.15349E+06
 0.14417000E+03 -0.15867E+06
 0.14422000E+03 -0.16845E+06
 0.14427000E+03 -0.17682E+06
 0.14431999E+03 -0.18007E+06
 0.14437000E+03 -0.18000E+06
 0.14442000E+03 -0.17956E+06
 0.14447000E+03 -0.17922E+06
 0.14452000E+03 -0.17780E+06
 0.14456999E+03 -0.17394E+06
 0.14462000E+03 -0.16904E+06
 0.14467000E+03 -0.16643E+06
 0.14472000E+03 -0.16832E+06
 0.14477000E+03 -0.17502E+06
 0.14481999E+03 -0.18433E+06
 0.14487000E+03 -0.19481E+06
 0.14492000E+03 -0.20772E+06
 0.14497000E+03 -0.22138E+06
 0.14502000E+03 -0.23230E+06
 0.14506999E+03 -0.24019E+06
 0.14512000E+03 -0.24563E+06
 0.14517000E+03 -0.24875E+06
 0.14522000E+03 -0.25248E+06
 0.14527000E+03 -0.25997E+06
 0.14531999E+03 -0.26750E+06
 0.14537000E+03 -0.26670E+06
 0.14542000E+03 -0.25061E+06
 0.14547000E+03 -0.21674E+06
 0.14552000E+03 -0.16967E+06
 0.14556999E+03 -0.11661E+06
 0.14562000E+03 -0.62330E+05
 0.14567000E+03 -0.99890E+04
 0.14572000E+03  0.38721E+05
 0.14577000E+03  0.82936E+05
 0.14581999E+03  0.12147E+06
 0.14587000E+03  0.15391E+06
 0.14592000E+03  0.18046E+06
 0.14597000E+03  0.19933E+06
 0.14602000E+03  0.20822E+06
 0.14606999E+03  0.20498E+06
 0.14612000E+03  0.18490E+06
 0.14617000E+03  0.14603E+06
 0.14622000E+03  0.93541E+05
 0.14627000E+03  0.36521E+05
 0.14631999E+03 -0.13962E+05
 0.14637000E+03 -0.51898E+05
 0.14642000E+03 -0.80314E+05
 0.14647000E+03 -0.10190E+06
 0.14652000E+03 -0.11648E+06
 0.14656999E+03 -0.12295E+06
 0.14662000E+03 -0.11940E+06
 0.14667000E+03 -0.10692E+06
 0.14672000E+03 -0.88211E+05
 0.14677000E+03 -0.65324E+05
 0.14681999E+03 -0.39800E+05
 0.14687000E+03 -0.11855E+05
 0.14692000E+03  0.20467E+05
 0.14697000E+03  0.60076E+05
 0.14702000E+03  0.10681E+06
 0.14706999E+03  0.15732E+06
 0.14712000E+03  0.20786E+06
 0.14717000E+03  0.25515E+06
 0.14722000E+03  0.29380E+06
 0.14727000E+03  0.32022E+06
 0.14731999E+03  0.33561E+06
 0.14737000E+03  0.33991E+06
 0.14742000E+03  0.33450E+06
 0.14747000E+03  0.32378E+06
 0.14752000E+03  0.31040E+06
 0.14756999E+03  0.29571E+06
 0.14762000E+03  0.28088E+06
 0.14767000E+03  0.26590E+06
 0.14772000E+03  0.24900E+06
 0.14777000E+03  0.23036E+06
 0.14781999E+03  0.21242E+06
 0.14787000E+03  0.19706E+06
 0.14792000E+03  0.18300E+06
 0.14797000E+03  0.16587E+06
 0.14802000E+03  0.14403E+06
 0.14806999E+03  0.11831E+06
 0.14812000E+03  0.89680E+05
 0.14817000E+03  0.61119E+05
 0.14822000E+03  0.37270E+05
 0.14827000E+03  0.22161E+05
 0.14831999E+03  0.16884E+05
 0.14837000E+03  0.20713E+05
 0.14842000E+03  0.30668E+05
 0.14847000E+03  0.39779E+05
 0.14852000E+03  0.43827E+05
 0.14856999E+03  0.43110E+05
 0.14862000E+03  0.37001E+05
 0.14867000E+03  0.26131E+05
 0.14872000E+03  0.12479E+05
 0.14877000E+03 -0.13690E+04
 0.14881999E+03 -0.10439E+05
 0.14887000E+03 -0.10462E+05
 0.14892000E+03 -0.41000E+03
 0.14897000E+03  0.15827E+05
 0.14902000E+03  0.32367E+05
 0.14906999E+03  0.46554E+05
