-0.38800001E+01 -0.22181E+05
-0.38300002E+01 -0.23291E+05
-0.37800002E+01 -0.19314E+05
-0.37300000E+01 -0.14226E+05
-0.36800001E+01 -0.12101E+05
-0.36300001E+01 -0.15557E+05
-0.35800002E+01 -0.24708E+05
-0.35300002E+01 -0.37038E+05
-0.34800000E+01 -0.49425E+05
-0.34300001E+01 -0.59708E+05
-0.33800001E+01 -0.67295E+05
-0.33300002E+01 -0.73024E+05
-0.32800002E+01 -0.77564E+05
-0.32300000E+01 -0.80508E+05
-0.31800001E+01 -0.81110E+05
-0.31300001E+01 -0.78505E+05
-0.30800002E+01 -0.72110E+05
-0.30300002E+01 -0.62078E+05
-0.29800000E+01 -0.49034E+05
-0.29300001E+01 -0.34120E+05
-0.28800001E+01 -0.19105E+05
-0.28299999E+01 -0.62190E+04
-0.27800002E+01  0.26720E+04
-0.27300000E+01  0.62350E+04
-0.26800001E+01  0.33350E+04
-0.26300001E+01 -0.59720E+04
-0.25799999E+01 -0.19523E+05
-0.25300002E+01 -0.34179E+05
-0.24800000E+01 -0.47775E+05
-0.24300001E+01 -0.59384E+05
-0.23800001E+01 -0.68623E+05
-0.23299999E+01 -0.75623E+05
-0.22800002E+01 -0.80560E+05
-0.22300000E+01 -0.82469E+05
-0.21800001E+01 -0.79749E+05
-0.21300001E+01 -0.71371E+05
-0.20799999E+01 -0.57532E+05
-0.20300002E+01 -0.40064E+05
-0.19800001E+01 -0.21774E+05
-0.19300001E+01 -0.51090E+04
-0.18800001E+01  0.87460E+04
-0.18300002E+01  0.19653E+05
-0.17800000E+01  0.27670E+05
-0.17300000E+01  0.32492E+05
-0.16800001E+01  0.33827E+05
-0.16300001E+01  0.31864E+05
-0.15800002E+01  0.27445E+05
-0.15300000E+01  0.21774E+05
-0.14800000E+01  0.16681E+05
-0.14300001E+01  0.14151E+05
-0.13800001E+01  0.14497E+05
-0.13300002E+01  0.17042E+05
-0.12800000E+01  0.21119E+05
-0.12300000E+01  0.26250E+05
-0.11800001E+01  0.32493E+05
-0.11300001E+01  0.39552E+05
-0.10800002E+01  0.46606E+05
-0.10300000E+01  0.52579E+05
-0.98000002E+00  0.56526E+05
-0.93000007E+00  0.58689E+05
-0.88000011E+00  0.59517E+05
-0.83000016E+00  0.58839E+05
-0.77999997E+00  0.56810E+05
-0.73000002E+00  0.53713E+05
-0.68000007E+00  0.49951E+05
-0.63000011E+00  0.45844E+05
-0.58000016E+00  0.41228E+05
-0.52999997E+00  0.36025E+05
-0.48000002E+00  0.30352E+05
-0.43000007E+00  0.24658E+05
-0.38000011E+00  0.19297E+05
-0.33000016E+00  0.14117E+05
-0.27999997E+00  0.87220E+04
-0.23000002E+00  0.28850E+04
-0.18000007E+00 -0.25350E+04
-0.13000011E+00 -0.68160E+04
-0.80000162E-01 -0.11232E+05
-0.29999971E-01 -0.17674E+05
 0.19999981E-01 -0.26129E+05
 0.69999933E-01 -0.34207E+05
 0.11999989E+00 -0.39528E+05
 0.17000008E+00 -0.41485E+05
 0.21999979E+00 -0.40847E+05
 0.26999998E+00 -0.38975E+05
 0.32000017E+00 -0.36923E+05
 0.36999989E+00 -0.35605E+05
 0.42000008E+00 -0.36192E+05
 0.46999979E+00 -0.38967E+05
 0.51999998E+00 -0.42496E+05
 0.57000017E+00 -0.44700E+05
 0.61999989E+00 -0.44313E+05
 0.67000008E+00 -0.41257E+05
 0.71999979E+00 -0.35956E+05
 0.76999998E+00 -0.29064E+05
 0.82000017E+00 -0.21703E+05
 0.86999989E+00 -0.15012E+05
 0.92000008E+00 -0.96850E+04
 0.96999979E+00 -0.56220E+04
 0.10200000E+01 -0.21750E+04
 0.10700002E+01  0.86000E+03
 0.11199999E+01  0.33650E+04
 0.11700001E+01  0.58500E+04
 0.12199998E+01  0.96630E+04
 0.12700000E+01  0.16124E+05
 0.13200002E+01  0.24915E+05
 0.13699999E+01  0.34357E+05
 0.14200001E+01  0.42904E+05
 0.14699998E+01  0.49745E+05
 0.15200000E+01  0.55046E+05
 0.15700002E+01  0.59438E+05
 0.16199999E+01  0.63876E+05
 0.16700001E+01  0.68962E+05
 0.17199998E+01  0.74309E+05
 0.17700000E+01  0.79852E+05
 0.18200002E+01  0.86045E+05
 0.18699999E+01  0.93037E+05
 0.19200001E+01  0.10036E+06
 0.19699998E+01  0.10700E+06
 0.20200000E+01  0.11121E+06
 0.20700002E+01  0.11056E+06
 0.21199999E+01  0.10380E+06
 0.21700001E+01  0.91421E+05
 0.22199998E+01  0.75471E+05
 0.22700000E+01  0.59020E+05
 0.23200002E+01  0.44148E+05
 0.23699999E+01  0.31365E+05
 0.24200001E+01  0.20342E+05
 0.24699998E+01  0.10284E+05
 0.25200000E+01  0.49700E+03
 0.25700002E+01 -0.87080E+04
 0.26199999E+01 -0.16180E+05
 0.26700001E+01 -0.21053E+05
 0.27199998E+01 -0.22963E+05
 0.27700000E+01 -0.21817E+05
 0.28200002E+01 -0.18066E+05
 0.28699999E+01 -0.13118E+05
 0.29200001E+01 -0.89030E+04
 0.29699998E+01 -0.64780E+04
 0.30200000E+01 -0.60560E+04
 0.30700002E+01 -0.75870E+04
 0.31199999E+01 -0.10129E+05
 0.31700001E+01 -0.12179E+05
 0.32199998E+01 -0.13105E+05
 0.32700000E+01 -0.13562E+05
 0.33200002E+01 -0.14710E+05
 0.33699999E+01 -0.17069E+05
 0.34200001E+01 -0.19346E+05
 0.34699998E+01 -0.20172E+05
 0.35200000E+01 -0.19811E+05
 0.35700002E+01 -0.18942E+05
 0.36199999E+01 -0.18180E+05
 0.36700001E+01 -0.17194E+05
 0.37199998E+01 -0.15534E+05
 0.37700000E+01 -0.14243E+05
 0.38200002E+01 -0.14873E+05
 0.38699999E+01 -0.18455E+05
 0.39200001E+01 -0.24297E+05
 0.39699998E+01 -0.30053E+05
 0.40200000E+01 -0.33415E+05
 0.40700002E+01 -0.33281E+05
 0.41199999E+01 -0.29916E+05
 0.41700001E+01 -0.24055E+05
 0.42200003E+01 -0.16302E+05
 0.42700005E+01 -0.76280E+04
 0.43199997E+01  0.40800E+03
 0.43699999E+01  0.63790E+04
 0.44200001E+01  0.96730E+04
 0.44700003E+01  0.10852E+05
 0.45200005E+01  0.10816E+05
 0.45699997E+01  0.10204E+05
 0.46199999E+01  0.93290E+04
 0.46700001E+01  0.79310E+04
 0.47200003E+01  0.61230E+04
 0.47700005E+01  0.45680E+04
 0.48199997E+01  0.41280E+04
 0.48699999E+01  0.47990E+04
 0.49200001E+01  0.45930E+04
 0.49700003E+01  0.14680E+04
 0.50200005E+01 -0.49720E+04
 0.50699997E+01 -0.13180E+05
 0.51199999E+01 -0.20431E+05
 0.51700001E+01 -0.24516E+05
 0.52200003E+01 -0.24812E+05
 0.52700005E+01 -0.22447E+05
 0.53199997E+01 -0.18731E+05
 0.53699999E+01 -0.14209E+05
 0.54200001E+01 -0.93060E+04
 0.54700003E+01 -0.47720E+04
 0.55200005E+01 -0.13420E+04
 0.55699997E+01  0.72400E+03
 0.56199999E+01  0.14240E+04
 0.56700001E+01  0.83400E+03
 0.57200003E+01 -0.11140E+04
 0.57700005E+01 -0.43680E+04
 0.58199997E+01 -0.86870E+04
 0.58699999E+01 -0.13675E+05
 0.59200001E+01 -0.18519E+05
 0.59700003E+01 -0.22829E+05
 0.60200005E+01 -0.26374E+05
 0.60699997E+01 -0.28640E+05
 0.61199999E+01 -0.29056E+05
 0.61700001E+01 -0.26984E+05
 0.62200003E+01 -0.22587E+05
 0.62700005E+01 -0.16700E+05
 0.63199997E+01 -0.10590E+05
 0.63699999E+01 -0.64170E+04
 0.64200001E+01 -0.63560E+04
 0.64700003E+01 -0.11472E+05
 0.65200005E+01 -0.21565E+05
 0.65699997E+01 -0.35121E+05
 0.66199999E+01 -0.49898E+05
 0.66700001E+01 -0.64113E+05
 0.67200003E+01 -0.76457E+05
 0.67700005E+01 -0.85814E+05
 0.68199997E+01 -0.91726E+05
 0.68699999E+01 -0.94364E+05
 0.69200001E+01 -0.94177E+05
 0.69700003E+01 -0.92337E+05
 0.70200005E+01 -0.90213E+05
 0.70699997E+01 -0.88929E+05
 0.71199999E+01 -0.89468E+05
 0.71700001E+01 -0.91671E+05
 0.72200003E+01 -0.94470E+05
 0.72700005E+01 -0.96427E+05
 0.73199997E+01 -0.96164E+05
 0.73699999E+01 -0.93255E+05
 0.74200001E+01 -0.88291E+05
 0.74700003E+01 -0.82539E+05
 0.75200005E+01 -0.76538E+05
 0.75699997E+01 -0.69714E+05
 0.76199999E+01 -0.61383E+05
 0.76700001E+01 -0.50900E+05
 0.77200003E+01 -0.38569E+05
 0.77700005E+01 -0.25629E+05
 0.78199997E+01 -0.13223E+05
 0.78699999E+01 -0.24470E+04
 0.79200001E+01  0.63940E+04
 0.79700003E+01  0.14063E+05
 0.80200005E+01  0.21250E+05
 0.80699997E+01  0.27966E+05
 0.81199999E+01  0.34002E+05
 0.81700001E+01  0.39464E+05
 0.82200003E+01  0.44452E+05
 0.82700005E+01  0.49216E+05
 0.83199997E+01  0.54604E+05
 0.83699999E+01  0.61491E+05
 0.84200001E+01  0.69794E+05
 0.84700003E+01  0.78026E+05
 0.85200005E+01  0.84390E+05
 0.85699997E+01  0.88159E+05
 0.86199999E+01  0.89544E+05
 0.86700001E+01  0.89078E+05
 0.87200003E+01  0.87819E+05
 0.87700005E+01  0.86922E+05
 0.88199997E+01  0.86675E+05
 0.88699999E+01  0.87262E+05
 0.89200001E+01  0.88735E+05
 0.89700003E+01  0.89750E+05
 0.90200005E+01  0.88441E+05
 0.90699997E+01  0.83878E+05
 0.91199999E+01  0.76666E+05
 0.91700001E+01  0.68249E+05
 0.92200003E+01  0.59734E+05
 0.92700005E+01  0.51548E+05
 0.93199997E+01  0.43518E+05
 0.93699999E+01  0.35694E+05
 0.94200001E+01  0.28187E+05
 0.94700003E+01  0.21002E+05
 0.95200005E+01  0.14855E+05
 0.95699997E+01  0.11040E+05
 0.96199999E+01  0.10409E+05
 0.96700001E+01  0.12463E+05
 0.97200003E+01  0.15882E+05
 0.97700005E+01  0.19621E+05
 0.98199997E+01  0.23053E+05
 0.98699999E+01  0.25988E+05
 0.99200001E+01  0.28255E+05
 0.99700003E+01  0.28735E+05
 0.10020000E+02  0.26246E+05
 0.10070000E+02  0.21276E+05
 0.10120000E+02  0.15436E+05
 0.10170000E+02  0.98020E+04
 0.10220000E+02  0.46490E+04
 0.10270000E+02 -0.34600E+03
 0.10320000E+02 -0.61810E+04
 0.10370000E+02 -0.13547E+05
 0.10420000E+02 -0.22025E+05
 0.10470000E+02 -0.30380E+05
 0.10520000E+02 -0.36889E+05
 0.10570000E+02 -0.40491E+05
 0.10620000E+02 -0.41883E+05
 0.10670000E+02 -0.42357E+05
 0.10720000E+02 -0.43330E+05
 0.10770000E+02 -0.45970E+05
 0.10820000E+02 -0.49567E+05
 0.10870000E+02 -0.52519E+05
 0.10920000E+02 -0.53489E+05
 0.10970000E+02 -0.51751E+05
 0.11020000E+02 -0.48143E+05
 0.11070000E+02 -0.44036E+05
 0.11120000E+02 -0.40779E+05
 0.11170000E+02 -0.39250E+05
 0.11220000E+02 -0.38756E+05
 0.11270000E+02 -0.38407E+05
 0.11320000E+02 -0.37090E+05
 0.11370000E+02 -0.33233E+05
 0.11420000E+02 -0.26454E+05
 0.11470000E+02 -0.17962E+05
 0.11520000E+02 -0.10728E+05
 0.11570000E+02 -0.75520E+04
 0.11620000E+02 -0.85810E+04
 0.11670000E+02 -0.11712E+05
 0.11720000E+02 -0.14164E+05
 0.11770000E+02 -0.14746E+05
 0.11820000E+02 -0.14397E+05
 0.11870000E+02 -0.14298E+05
 0.11920000E+02 -0.14685E+05
 0.11970000E+02 -0.14881E+05
 0.12020000E+02 -0.13860E+05
 0.12070000E+02 -0.10816E+05
 0.12120000E+02 -0.53220E+04
 0.12170001E+02  0.24180E+04
 0.12220000E+02  0.11461E+05
 0.12270000E+02  0.20631E+05
 0.12320001E+02  0.28744E+05
 0.12370000E+02  0.35291E+05
 0.12420001E+02  0.40365E+05
 0.12470000E+02  0.43779E+05
 0.12520000E+02  0.45311E+05
 0.12570001E+02  0.44570E+05
 0.12620000E+02  0.41550E+05
 0.12670001E+02  0.36867E+05
 0.12720000E+02  0.31134E+05
 0.12770000E+02  0.24967E+05
 0.12820001E+02  0.18169E+05
 0.12870000E+02  0.10287E+05
 0.12920001E+02  0.20760E+04
 0.12970000E+02 -0.48510E+04
 0.13020000E+02 -0.89610E+04
 0.13070001E+02 -0.97410E+04
 0.13120000E+02 -0.83060E+04
 0.13170001E+02 -0.59670E+04
 0.13220000E+02 -0.26250E+04
 0.13270000E+02  0.26340E+04
 0.13320001E+02  0.10427E+05
 0.13370000E+02  0.20615E+05
 0.13420001E+02  0.33090E+05
 0.13470000E+02  0.47282E+05
 0.13520000E+02  0.60936E+05
 0.13570001E+02  0.71262E+05
 0.13620000E+02  0.76283E+05
 0.13670001E+02  0.75697E+05
 0.13720000E+02  0.70701E+05
 0.13770000E+02  0.62938E+05
 0.13820001E+02  0.53848E+05
 0.13870000E+02  0.44468E+05
 0.13920001E+02  0.35721E+05
 0.13970000E+02  0.28118E+05
 0.14020000E+02  0.21411E+05
 0.14070001E+02  0.15114E+05
 0.14120000E+02  0.88690E+04
 0.14170001E+02  0.22500E+04
 0.14220000E+02 -0.50440E+04
 0.14270000E+02 -0.12711E+05
 0.14320001E+02 -0.19590E+05
 0.14370000E+02 -0.24240E+05
 0.14420001E+02 -0.26153E+05
 0.14470000E+02 -0.25943E+05
 0.14520000E+02 -0.24749E+05
 0.14570001E+02 -0.23188E+05
 0.14620000E+02 -0.21208E+05
 0.14670001E+02 -0.19076E+05
 0.14720000E+02 -0.17289E+05
 0.14770000E+02 -0.16232E+05
 0.14820001E+02 -0.16116E+05
 0.14870000E+02 -0.16839E+05
 0.14920001E+02 -0.17973E+05
 0.14970000E+02 -0.18737E+05
 0.15020000E+02 -0.18315E+05
 0.15070001E+02 -0.16409E+05
 0.15120000E+02 -0.13587E+05
 0.15170001E+02 -0.11197E+05
 0.15220000E+02 -0.10257E+05
 0.15270000E+02 -0.10708E+05
 0.15320001E+02 -0.11871E+05
 0.15370000E+02 -0.13041E+05
 0.15420001E+02 -0.14149E+05
 0.15470000E+02 -0.15857E+05
 0.15520000E+02 -0.18904E+05
 0.15570001E+02 -0.23431E+05
 0.15620000E+02 -0.29124E+05
 0.15670001E+02 -0.35574E+05
 0.15720000E+02 -0.42320E+05
 0.15770000E+02 -0.49004E+05
 0.15820001E+02 -0.54978E+05
 0.15870000E+02 -0.59389E+05
 0.15920001E+02 -0.61863E+05
 0.15970000E+02 -0.62971E+05
 0.16020000E+02 -0.63373E+05
 0.16070000E+02 -0.62836E+05
 0.16119999E+02 -0.60972E+05
 0.16170002E+02 -0.57307E+05
 0.16220001E+02 -0.51793E+05
 0.16270000E+02 -0.45009E+05
 0.16320000E+02 -0.37753E+05
 0.16369999E+02 -0.31231E+05
 0.16420002E+02 -0.25857E+05
 0.16470001E+02 -0.21508E+05
 0.16520000E+02 -0.18349E+05
 0.16570000E+02 -0.16551E+05
 0.16619999E+02 -0.16315E+05
 0.16670002E+02 -0.17398E+05
 0.16720001E+02 -0.19056E+05
 0.16770000E+02 -0.20048E+05
 0.16820000E+02 -0.19566E+05
 0.16869999E+02 -0.18214E+05
 0.16920002E+02 -0.16745E+05
 0.16970001E+02 -0.15344E+05
 0.17020000E+02 -0.14095E+05
 0.17070000E+02 -0.13014E+05
 0.17119999E+02 -0.12015E+05
 0.17170002E+02 -0.11041E+05
 0.17220001E+02 -0.95890E+04
 0.17270000E+02 -0.73760E+04
 0.17320000E+02 -0.52080E+04
 0.17369999E+02 -0.39060E+04
 0.17420002E+02 -0.38190E+04
 0.17470001E+02 -0.47480E+04
 0.17520000E+02 -0.61960E+04
 0.17570000E+02 -0.76850E+04
 0.17619999E+02 -0.84310E+04
 0.17670002E+02 -0.76630E+04
 0.17720001E+02 -0.49260E+04
 0.17770000E+02 -0.37600E+03
 0.17820000E+02  0.48730E+04
 0.17869999E+02  0.96980E+04
 0.17920002E+02  0.13719E+05
 0.17970001E+02  0.16984E+05
 0.18020000E+02  0.19757E+05
 0.18070000E+02  0.22265E+05
 0.18119999E+02  0.25577E+05
 0.18170002E+02  0.31371E+05
 0.18220001E+02  0.40813E+05
 0.18270000E+02  0.54575E+05
 0.18320000E+02  0.71340E+05
 0.18369999E+02  0.88839E+05
 0.18420002E+02  0.10541E+06
 0.18470001E+02  0.11782E+06
 0.18520000E+02  0.12357E+06
 0.18570000E+02  0.12172E+06
 0.18619999E+02  0.11054E+06
 0.18670002E+02  0.93802E+05
 0.18720001E+02  0.78389E+05
 0.18770000E+02  0.66613E+05
 0.18820000E+02  0.57008E+05
 0.18869999E+02  0.44580E+05
 0.18920002E+02  0.30559E+05
 0.18970001E+02  0.11670E+05
 0.19020000E+02 -0.88660E+04
 0.19070000E+02 -0.74380E+04
 0.19119999E+02 -0.20440E+04
 0.19170002E+02  0.46360E+04
 0.19220001E+02  0.66818E+05
 0.19270000E+02  0.14465E+06
 0.19320000E+02  0.19572E+06
 0.19369999E+02  0.25102E+06
 0.19420002E+02  0.22784E+06
 0.19470001E+02  0.13156E+06
 0.19520000E+02  0.71478E+05
 0.19570000E+02 -0.84580E+04
 0.19619999E+02 -0.89121E+05
 0.19670002E+02 -0.14688E+06
 0.19720001E+02 -0.22957E+06
 0.19770000E+02 -0.28919E+06
 0.19820000E+02 -0.37086E+06
 0.19869999E+02 -0.48562E+06
 0.19920002E+02 -0.54955E+06
 0.19970001E+02 -0.53664E+06
 0.20020000E+02 -0.40432E+06
 0.20070000E+02 -0.11907E+06
 0.20119999E+02  0.10161E+06
 0.20170002E+02  0.19492E+06
 0.20220001E+02  0.33884E+06
 0.20270000E+02  0.37664E+06
 0.20320000E+02  0.53093E+06
 0.20369999E+02  0.86352E+06
 0.20420002E+02  0.91220E+06
 0.20470001E+02  0.90607E+06
 0.20520000E+02  0.74279E+06
 0.20570000E+02  0.34759E+06
 0.20619999E+02  0.11637E+06
 0.20670002E+02 -0.13584E+06
 0.20720001E+02 -0.20279E+06
 0.20770000E+02 -0.60114E+05
 0.20820000E+02 -0.63642E+05
 0.20869999E+02 -0.96424E+05
 0.20920002E+02 -0.32494E+06
 0.20970001E+02 -0.64060E+06
 0.21020000E+02 -0.49204E+06
 0.21070000E+02 -0.15972E+06
 0.21119999E+02  0.85278E+05
 0.21170002E+02  0.34535E+06
 0.21220001E+02  0.24303E+06
 0.21270000E+02  0.44117E+05
 0.21320000E+02  0.12162E+05
 0.21369999E+02 -0.11657E+06
 0.21420002E+02 -0.12812E+06
 0.21470001E+02 -0.15806E+06
 0.21520000E+02 -0.12941E+06
 0.21570000E+02  0.18587E+05
 0.21619999E+02 -0.73598E+05
 0.21670002E+02 -0.95718E+05
 0.21720001E+02 -0.71170E+05
 0.21770000E+02 -0.54764E+05
 0.21820000E+02 -0.26988E+05
 0.21869999E+02 -0.11508E+06
 0.21920002E+02 -0.23407E+06
 0.21970001E+02 -0.18978E+06
 0.22020000E+02  0.13635E+06
 0.22070000E+02  0.21712E+06
 0.22119999E+02  0.14723E+06
 0.22170002E+02  0.93450E+04
 0.22220001E+02 -0.13120E+06
 0.22270000E+02  0.12770E+06
 0.22320000E+02  0.43018E+06
 0.22369999E+02  0.54244E+06
 0.22420002E+02  0.55156E+06
 0.22470001E+02  0.64182E+06
 0.22520000E+02  0.60611E+06
 0.22570000E+02  0.65162E+06
 0.22619999E+02  0.66497E+06
 0.22670002E+02  0.20884E+06
 0.22720001E+02  0.19344E+05
 0.22770000E+02 -0.25932E+06
 0.22820000E+02 -0.74296E+06
 0.22869999E+02 -0.81746E+06
 0.22920002E+02 -0.75697E+06
 0.22970001E+02 -0.53727E+06
 0.23020000E+02 -0.24553E+06
 0.23070000E+02 -0.39336E+06
 0.23119999E+02 -0.63319E+06
 0.23170002E+02 -0.63045E+06
 0.23220001E+02 -0.81591E+06
 0.23270000E+02 -0.28946E+06
 0.23320000E+02  0.20228E+06
 0.23369999E+02 -0.46662E+06
 0.23420002E+02 -0.26208E+06
 0.23470001E+02 -0.11391E+06
 0.23520000E+02 -0.44603E+06
 0.23570000E+02  0.39912E+06
 0.23619999E+02  0.83257E+06
 0.23670002E+02  0.76058E+06
 0.23720001E+02  0.55189E+06
 0.23770000E+02  0.40976E+05
 0.23820000E+02 -0.30440E+04
 0.23869999E+02  0.84537E+05
 0.23920002E+02  0.27990E+06
 0.23970001E+02  0.35023E+06
 0.24020000E+02 -0.48311E+05
 0.24070000E+02 -0.43800E+06
 0.24119999E+02 -0.78751E+06
 0.24170002E+02 -0.75679E+06
 0.24220001E+02 -0.31483E+05
 0.24270000E+02  0.29777E+06
 0.24320000E+02  0.64078E+05
 0.24369999E+02 -0.10030E+06
 0.24420002E+02 -0.15684E+06
 0.24470001E+02 -0.10151E+06
 0.24520000E+02  0.36738E+06
 0.24570000E+02  0.10427E+07
 0.24619999E+02  0.12520E+07
 0.24670002E+02  0.97655E+06
 0.24720001E+02  0.16523E+06
 0.24770000E+02 -0.35415E+06
 0.24820000E+02 -0.32505E+06
 0.24869999E+02 -0.21895E+06
 0.24920002E+02 -0.60329E+05
 0.24970001E+02 -0.25879E+06
 0.25020000E+02 -0.23579E+06
 0.25070000E+02  0.13498E+06
 0.25119999E+02  0.44930E+06
 0.25170002E+02  0.97435E+06
 0.25220001E+02  0.12153E+07
 0.25270000E+02  0.98506E+06
 0.25320000E+02  0.77369E+06
 0.25369999E+02  0.33583E+06
 0.25420002E+02  0.24777E+06
 0.25470001E+02  0.48211E+06
 0.25520000E+02  0.28902E+06
 0.25570000E+02  0.19522E+06
 0.25619999E+02 -0.36459E+06
 0.25670002E+02 -0.11085E+07
 0.25720001E+02 -0.13720E+07
 0.25770000E+02 -0.15465E+07
 0.25820000E+02 -0.13084E+07
 0.25869999E+02 -0.10993E+07
 0.25920002E+02 -0.12338E+07
 0.25970001E+02 -0.13901E+07
 0.26020000E+02 -0.10672E+07
 0.26070000E+02 -0.80259E+05
 0.26119999E+02  0.46522E+06
 0.26170002E+02  0.37999E+06
 0.26220001E+02  0.28099E+06
 0.26270000E+02  0.16299E+06
 0.26320000E+02  0.29977E+06
 0.26369999E+02  0.96873E+06
 0.26420002E+02  0.16900E+07
 0.26470001E+02  0.18783E+07
 0.26520000E+02  0.18316E+07
 0.26570000E+02  0.19008E+07
 0.26619999E+02  0.21174E+07
 0.26670002E+02  0.21236E+07
 0.26720001E+02  0.15561E+07
 0.26770000E+02  0.81645E+06
 0.26820000E+02 -0.14435E+06
 0.26869999E+02 -0.96162E+06
 0.26920002E+02 -0.10513E+07
 0.26970001E+02 -0.67052E+06
 0.27020000E+02 -0.91617E+05
 0.27070000E+02  0.15030E+06
 0.27119999E+02 -0.24846E+06
 0.27170002E+02 -0.96366E+06
 0.27220001E+02 -0.16461E+07
 0.27270000E+02 -0.19117E+07
 0.27320000E+02 -0.16418E+07
 0.27369999E+02 -0.14389E+07
 0.27420002E+02 -0.11801E+07
 0.27470001E+02 -0.75140E+06
 0.27520000E+02 -0.60201E+06
 0.27570000E+02 -0.12938E+06
 0.27619999E+02  0.77102E+06
 0.27670002E+02  0.15649E+07
 0.27720001E+02  0.19693E+07
 0.27770000E+02  0.17309E+07
 0.27820000E+02  0.10184E+07
 0.27869999E+02  0.41473E+06
 0.27920002E+02  0.19166E+06
 0.27970001E+02  0.12998E+06
 0.28020000E+02  0.48693E+06
 0.28070000E+02  0.84858E+06
 0.28119999E+02  0.64792E+06
 0.28169998E+02  0.56716E+06
 0.28220001E+02  0.74434E+06
 0.28270000E+02  0.92344E+06
 0.28320000E+02  0.10315E+07
 0.28369999E+02  0.10182E+07
 0.28419998E+02  0.10779E+07
 0.28470001E+02  0.10106E+07
 0.28520000E+02  0.67477E+06
 0.28570000E+02  0.29809E+06
 0.28619999E+02  0.10760E+06
 0.28669998E+02  0.37549E+06
 0.28720001E+02  0.71399E+06
 0.28770000E+02  0.62306E+06
 0.28820000E+02  0.17202E+06
 0.28869999E+02 -0.47906E+06
 0.28919998E+02 -0.90928E+06
 0.28970001E+02 -0.62056E+06
 0.29020000E+02  0.19931E+05
 0.29070000E+02  0.54917E+05
 0.29119999E+02 -0.34530E+06
 0.29169998E+02 -0.90186E+06
 0.29220001E+02 -0.13670E+07
 0.29270000E+02 -0.95407E+06
 0.29320000E+02 -0.10121E+06
 0.29369999E+02  0.64068E+06
 0.29419998E+02  0.89403E+06
 0.29470001E+02  0.39389E+06
 0.29520000E+02 -0.24490E+06
 0.29570000E+02 -0.71169E+06
 0.29619999E+02 -0.76900E+06
 0.29669998E+02 -0.45832E+06
 0.29720001E+02 -0.22265E+06
 0.29770000E+02 -0.22884E+06
 0.29820000E+02 -0.58804E+06
 0.29869999E+02 -0.95053E+06
 0.29919998E+02 -0.85578E+06
 0.29970001E+02 -0.49305E+06
 0.30020000E+02 -0.20093E+06
 0.30070000E+02  0.19329E+06
 0.30119999E+02  0.76810E+06
 0.30169998E+02  0.11470E+07
 0.30220001E+02  0.11531E+07
 0.30270000E+02  0.92437E+06
 0.30320000E+02  0.59772E+06
 0.30369999E+02  0.19579E+06
 0.30419998E+02 -0.29162E+06
 0.30470001E+02 -0.89931E+06
 0.30520000E+02 -0.14932E+07
 0.30570000E+02 -0.17729E+07
 0.30619999E+02 -0.16265E+07
 0.30669998E+02 -0.12711E+07
 0.30720001E+02 -0.76351E+06
 0.30770000E+02 -0.22821E+06
 0.30820000E+02  0.87680E+04
 0.30869999E+02 -0.11253E+06
 0.30919998E+02 -0.91630E+06
 0.30970001E+02 -0.21098E+07
 0.31020000E+02 -0.28163E+07
 0.31070000E+02 -0.30813E+07
 0.31119999E+02 -0.31074E+07
 0.31169998E+02 -0.32295E+07
 0.31220001E+02 -0.40818E+07
 0.31270000E+02 -0.51910E+07
 0.31320000E+02 -0.53956E+07
 0.31369999E+02 -0.42383E+07
 0.31419998E+02 -0.21689E+07
 0.31470001E+02 -0.24574E+06
 0.31520000E+02  0.26686E+06
 0.31570000E+02 -0.10364E+07
 0.31619999E+02 -0.30374E+07
 0.31669998E+02 -0.42112E+07
 0.31720001E+02 -0.34676E+07
 0.31770000E+02 -0.64389E+06
 0.31820000E+02  0.30497E+07
 0.31869999E+02  0.58051E+07
 0.31919998E+02  0.63155E+07
 0.31970001E+02  0.40623E+07
 0.32020000E+02 -0.59359E+06
 0.32070000E+02 -0.61170E+07
 0.32119999E+02 -0.99198E+07
 0.32169998E+02 -0.10117E+08
 0.32220001E+02 -0.78331E+07
 0.32270000E+02 -0.47169E+07
 0.32320000E+02 -0.19979E+07
 0.32369999E+02 -0.14072E+07
 0.32419998E+02 -0.25054E+07
 0.32470001E+02 -0.28517E+07
 0.32520000E+02 -0.47386E+06
 0.32570000E+02  0.29858E+07
 0.32619999E+02  0.57321E+07
 0.32669998E+02  0.88525E+07
 0.32720001E+02  0.11734E+08
 0.32770000E+02  0.13156E+08
 0.32820000E+02  0.13661E+08
 0.32869999E+02  0.12933E+08
 0.32919998E+02  0.94240E+07
 0.32970001E+02  0.34342E+07
 0.33020000E+02 -0.26901E+07
 0.33070000E+02 -0.50566E+07
 0.33119999E+02 -0.41748E+07
 0.33169998E+02 -0.35987E+07
 0.33220001E+02 -0.26768E+07
 0.33270000E+02 -0.33398E+07
 0.33320000E+02 -0.61435E+07
 0.33369999E+02 -0.73133E+07
 0.33419998E+02 -0.65273E+07
 0.33470001E+02 -0.47889E+07
 0.33520000E+02 -0.35239E+07
 0.33570000E+02 -0.45834E+07
 0.33619999E+02 -0.63445E+07
 0.33669998E+02 -0.64518E+07
 0.33720001E+02 -0.65000E+07
 0.33770000E+02 -0.61097E+07
 0.33820000E+02 -0.42708E+07
 0.33869999E+02 -0.25036E+07
 0.33919998E+02  0.21783E+06
 0.33970001E+02  0.37335E+07
 0.34020000E+02  0.65744E+07
 0.34070000E+02  0.67878E+07
 0.34119999E+02  0.40719E+07
 0.34169998E+02  0.78812E+06
 0.34220001E+02 -0.31893E+07
 0.34270000E+02 -0.56427E+07
 0.34320000E+02 -0.50540E+07
 0.34369999E+02 -0.35600E+07
 0.34419998E+02 -0.22883E+07
 0.34470001E+02 -0.24653E+07
 0.34520000E+02 -0.34732E+07
 0.34570000E+02 -0.35960E+07
 0.34619999E+02 -0.32536E+07
 0.34669998E+02 -0.34864E+07
 0.34720001E+02 -0.38247E+07
 0.34770000E+02 -0.37405E+07
 0.34820000E+02 -0.25106E+07
 0.34869999E+02  0.26091E+06
 0.34919998E+02  0.27604E+07
 0.34970001E+02  0.42836E+07
 0.35020000E+02  0.48242E+07
 0.35070000E+02  0.40589E+07
 0.35119999E+02  0.32068E+07
 0.35169998E+02  0.32167E+07
 0.35220001E+02  0.36102E+07
 0.35270000E+02  0.31635E+07
 0.35320000E+02  0.17702E+07
 0.35369999E+02  0.88776E+06
 0.35419998E+02  0.73829E+06
 0.35470001E+02  0.13568E+07
 0.35520000E+02  0.35023E+07
 0.35570000E+02  0.58432E+07
 0.35619999E+02  0.63573E+07
 0.35669998E+02  0.58263E+07
 0.35720001E+02  0.54636E+07
 0.35770000E+02  0.48461E+07
 0.35820000E+02  0.45252E+07
 0.35869999E+02  0.42850E+07
 0.35919998E+02  0.25752E+07
 0.35970001E+02 -0.41229E+06
 0.36020000E+02 -0.34665E+07
 0.36070000E+02 -0.59688E+07
 0.36119999E+02 -0.70463E+07
 0.36169998E+02 -0.57636E+07
 0.36220001E+02 -0.33630E+07
 0.36270000E+02 -0.13550E+07
 0.36320000E+02 -0.16387E+05
 0.36369999E+02  0.81260E+06
 0.36419998E+02  0.13482E+07
 0.36470001E+02  0.13866E+07
 0.36520000E+02  0.91841E+06
 0.36570000E+02 -0.66510E+06
 0.36619999E+02 -0.31112E+07
 0.36669998E+02 -0.48468E+07
 0.36720001E+02 -0.49529E+07
 0.36770000E+02 -0.20310E+07
 0.36820000E+02  0.32403E+07
 0.36869999E+02  0.77132E+07
 0.36919998E+02  0.98299E+07
 0.36970001E+02  0.91242E+07
 0.37020000E+02  0.61796E+07
 0.37070000E+02  0.24497E+07
 0.37119999E+02 -0.66536E+06
 0.37169998E+02 -0.21885E+07
 0.37220001E+02 -0.21925E+07
 0.37270000E+02 -0.76348E+06
 0.37320000E+02  0.14452E+07
 0.37369999E+02  0.25767E+07
 0.37419998E+02  0.17545E+07
 0.37470001E+02  0.39345E+05
 0.37520000E+02 -0.14497E+07
 0.37570000E+02 -0.22095E+07
 0.37619999E+02 -0.21097E+07
 0.37669998E+02 -0.15357E+07
 0.37720001E+02 -0.10905E+07
 0.37770000E+02 -0.96430E+06
 0.37820000E+02 -0.41293E+06
 0.37869999E+02  0.60024E+06
 0.37919998E+02  0.12357E+07
 0.37970001E+02  0.12054E+07
 0.38020000E+02  0.66341E+06
 0.38070000E+02  0.26274E+06
 0.38119999E+02  0.36757E+06
 0.38169998E+02  0.11434E+07
 0.38220001E+02  0.24965E+07
 0.38270000E+02  0.30048E+07
 0.38320000E+02  0.20412E+07
 0.38369999E+02  0.78736E+06
 0.38419998E+02  0.69408E+06
 0.38470001E+02  0.23884E+07
 0.38520000E+02  0.54462E+07
 0.38570000E+02  0.88375E+07
 0.38619999E+02  0.10447E+08
 0.38669998E+02  0.95688E+07
 0.38720001E+02  0.82447E+07
 0.38770000E+02  0.78123E+07
 0.38820000E+02  0.78798E+07
 0.38869999E+02  0.71407E+07
 0.38919998E+02  0.50199E+07
 0.38970001E+02  0.22709E+07
 0.39020000E+02 -0.13378E+06
 0.39070000E+02 -0.12598E+07
 0.39119999E+02 -0.11858E+07
 0.39169998E+02 -0.10925E+07
 0.39220001E+02 -0.20870E+07
 0.39270000E+02 -0.37255E+07
 0.39320000E+02 -0.44012E+07
 0.39369999E+02 -0.36949E+07
 0.39419998E+02 -0.23748E+07
 0.39470001E+02 -0.14519E+07
 0.39520000E+02 -0.15744E+07
 0.39570000E+02 -0.21818E+07
 0.39619999E+02 -0.21472E+07
 0.39669998E+02 -0.12548E+07
 0.39720001E+02  0.38761E+06
 0.39770000E+02  0.22549E+07
 0.39820000E+02  0.31014E+07
 0.39869999E+02  0.28079E+07
 0.39919998E+02  0.18149E+07
 0.39970001E+02  0.19208E+06
 0.40020000E+02 -0.19609E+07
 0.40070000E+02 -0.38901E+07
 0.40119999E+02 -0.44986E+07
 0.40169998E+02 -0.37640E+07
 0.40220001E+02 -0.21234E+07
 0.40270000E+02 -0.18103E+06
 0.40320000E+02  0.11285E+07
 0.40369999E+02  0.10606E+07
 0.40419998E+02 -0.45202E+06
 0.40470001E+02 -0.26536E+07
 0.40520000E+02 -0.47934E+07
 0.40570000E+02 -0.57358E+07
 0.40619999E+02 -0.41356E+07
 0.40669998E+02 -0.48342E+06
 0.40720001E+02  0.34783E+07
 0.40770000E+02  0.63879E+07
 0.40820000E+02  0.72764E+07
 0.40869999E+02  0.61916E+07
 0.40919998E+02  0.42447E+07
 0.40970001E+02  0.26611E+07
 0.41020000E+02  0.18078E+07
 0.41070000E+02  0.91886E+06
 0.41119999E+02 -0.43669E+06
 0.41169998E+02 -0.17218E+07
 0.41220001E+02 -0.25768E+07
 0.41270000E+02 -0.31756E+07
 0.41320000E+02 -0.34674E+07
 0.41369999E+02 -0.32741E+07
 0.41419998E+02 -0.28545E+07
 0.41470001E+02 -0.25138E+07
 0.41520000E+02 -0.19109E+07
 0.41570000E+02 -0.95844E+06
 0.41619999E+02 -0.30083E+06
 0.41669998E+02  0.19972E+06
 0.41720001E+02  0.84801E+06
 0.41770000E+02  0.15830E+07
 0.41820000E+02  0.30571E+07
 0.41869999E+02  0.53656E+07
 0.41919998E+02  0.70186E+07
 0.41970001E+02  0.66837E+07
 0.42020000E+02  0.46043E+07
 0.42070000E+02  0.15034E+07
 0.42119999E+02 -0.15701E+07
 0.42169998E+02 -0.31486E+07
 0.42220001E+02 -0.33228E+07
 0.42270000E+02 -0.31858E+07
 0.42320000E+02 -0.32174E+07
 0.42369999E+02 -0.31741E+07
 0.42419998E+02 -0.27099E+07
 0.42470001E+02 -0.17240E+07
 0.42520000E+02 -0.17943E+06
 0.42570000E+02  0.11638E+07
 0.42619999E+02  0.19336E+07
 0.42669998E+02  0.23908E+07
 0.42720001E+02  0.22194E+07
 0.42770000E+02  0.12118E+07
 0.42820000E+02 -0.74104E+06
 0.42869999E+02 -0.34092E+07
 0.42919998E+02 -0.58122E+07
 0.42970001E+02 -0.68410E+07
 0.43020000E+02 -0.62519E+07
 0.43070000E+02 -0.46462E+07
 0.43119999E+02 -0.27910E+07
 0.43169998E+02 -0.17013E+07
 0.43220001E+02 -0.17823E+07
 0.43270000E+02 -0.21754E+07
 0.43320000E+02 -0.23530E+07
 0.43369999E+02 -0.23078E+07
 0.43419998E+02 -0.15931E+07
 0.43470001E+02 -0.26054E+06
 0.43520000E+02  0.10681E+07
 0.43570000E+02  0.20135E+07
 0.43619999E+02  0.25258E+07
 0.43669998E+02  0.25184E+07
 0.43720001E+02  0.20994E+07
 0.43770000E+02  0.15925E+07
 0.43820000E+02  0.11315E+07
 0.43869999E+02  0.72142E+06
 0.43919998E+02  0.23356E+06
 0.43970001E+02 -0.16690E+06
 0.44020000E+02 -0.47102E+06
 0.44070000E+02 -0.76269E+06
 0.44119999E+02 -0.92199E+06
 0.44169998E+02 -0.98433E+06
 0.44220001E+02 -0.12046E+07
 0.44270000E+02 -0.19403E+07
 0.44320000E+02 -0.26161E+07
 0.44369999E+02 -0.28140E+07
 0.44419998E+02 -0.28730E+07
 0.44470001E+02 -0.29018E+07
 0.44520000E+02 -0.34460E+07
 0.44570000E+02 -0.44326E+07
 0.44619999E+02 -0.50999E+07
 0.44669998E+02 -0.51612E+07
 0.44720001E+02 -0.44407E+07
 0.44770000E+02 -0.33212E+07
 0.44820000E+02 -0.21265E+07
 0.44869999E+02 -0.61937E+06
 0.44919998E+02  0.13297E+07
 0.44970001E+02  0.36076E+07
 0.45020000E+02  0.57034E+07
 0.45070000E+02  0.69341E+07
 0.45119999E+02  0.71692E+07
 0.45169998E+02  0.67002E+07
 0.45220001E+02  0.54729E+07
 0.45270000E+02  0.36984E+07
 0.45320000E+02  0.17204E+07
 0.45369999E+02 -0.36527E+06
 0.45419998E+02 -0.18402E+07
 0.45470001E+02 -0.23906E+07
 0.45520000E+02 -0.26446E+07
 0.45570000E+02 -0.29283E+07
 0.45619999E+02 -0.32232E+07
 0.45669998E+02 -0.32728E+07
 0.45720001E+02 -0.25331E+07
 0.45770000E+02 -0.10663E+07
 0.45820000E+02  0.36868E+06
 0.45869999E+02  0.11377E+07
 0.45919998E+02  0.94622E+06
 0.45970001E+02  0.26123E+05
 0.46020000E+02 -0.11483E+07
 0.46070000E+02 -0.22615E+07
 0.46119999E+02 -0.28136E+07
 0.46169998E+02 -0.24806E+07
 0.46220001E+02 -0.15893E+07
 0.46270000E+02 -0.57468E+06
 0.46320000E+02  0.21910E+06
 0.46369999E+02  0.39202E+06
 0.46419998E+02 -0.17257E+05
 0.46470001E+02 -0.43510E+06
 0.46520000E+02 -0.47070E+06
 0.46570000E+02 -0.17692E+06
 0.46619999E+02  0.32724E+06
 0.46669998E+02  0.66611E+06
 0.46720001E+02  0.43267E+06
 0.46770000E+02 -0.36788E+06
 0.46820000E+02 -0.15354E+07
 0.46869999E+02 -0.25698E+07
 0.46919998E+02 -0.31447E+07
 0.46970001E+02 -0.29628E+07
 0.47020000E+02 -0.20094E+07
 0.47070000E+02 -0.11534E+07
 0.47119999E+02 -0.77348E+06
 0.47169998E+02 -0.75742E+06
 0.47220001E+02 -0.91044E+06
 0.47270000E+02 -0.72775E+06
 0.47320000E+02 -0.26636E+06
 0.47369999E+02  0.84408E+05
 0.47419998E+02  0.24957E+06
 0.47470001E+02  0.16658E+06
 0.47520000E+02  0.25731E+05
 0.47570000E+02  0.14161E+06
 0.47619999E+02  0.43752E+06
 0.47669998E+02  0.78942E+06
 0.47720001E+02  0.11605E+07
 0.47770000E+02  0.14963E+07
 0.47820000E+02  0.15586E+07
 0.47869999E+02  0.12652E+07
 0.47919998E+02  0.81442E+06
 0.47970001E+02  0.28177E+06
 0.48020000E+02  0.13195E+06
 0.48070000E+02  0.56920E+06
 0.48119999E+02  0.11623E+07
 0.48169998E+02  0.17117E+07
 0.48220001E+02  0.19443E+07
 0.48270000E+02  0.17974E+07
 0.48320000E+02  0.16244E+07
 0.48369999E+02  0.13195E+07
 0.48419998E+02  0.78966E+06
 0.48470001E+02  0.36087E+06
 0.48520000E+02  0.12320E+06
 0.48570000E+02  0.21277E+06
 0.48619999E+02  0.77845E+06
 0.48669998E+02  0.15013E+07
 0.48720001E+02  0.19234E+07
 0.48770000E+02  0.17276E+07
 0.48820000E+02  0.10076E+07
 0.48869999E+02  0.53390E+05
 0.48919998E+02 -0.10632E+07
 0.48970001E+02 -0.19987E+07
 0.49020000E+02 -0.23308E+07
 0.49070000E+02 -0.19868E+07
 0.49119999E+02 -0.10519E+07
 0.49169998E+02  0.50980E+04
 0.49220001E+02  0.62290E+06
 0.49270000E+02  0.45792E+06
 0.49320000E+02 -0.49659E+06
 0.49369999E+02 -0.16982E+07
 0.49419998E+02 -0.26180E+07
 0.49470001E+02 -0.30315E+07
 0.49520000E+02 -0.29519E+07
 0.49570000E+02 -0.25457E+07
 0.49619999E+02 -0.21558E+07
 0.49669998E+02 -0.21475E+07
 0.49720001E+02 -0.22085E+07
 0.49770000E+02 -0.18232E+07
 0.49820000E+02 -0.89399E+06
 0.49869999E+02  0.41720E+06
 0.49919998E+02  0.15184E+07
 0.49970001E+02  0.18663E+07
 0.50020000E+02  0.14009E+07
 0.50070000E+02  0.35172E+06
 0.50119999E+02 -0.82610E+06
 0.50169998E+02 -0.18338E+07
 0.50220001E+02 -0.26293E+07
 0.50270000E+02 -0.30610E+07
 0.50320000E+02 -0.27685E+07
 0.50369999E+02 -0.16803E+07
 0.50419998E+02 -0.11286E+06
 0.50470001E+02  0.15011E+07
 0.50520000E+02  0.24891E+07
 0.50570000E+02  0.25344E+07
 0.50619999E+02  0.17867E+07
 0.50669998E+02  0.62086E+06
 0.50720001E+02 -0.32161E+06
 0.50770000E+02 -0.69047E+06
 0.50820000E+02 -0.46475E+06
 0.50869999E+02  0.80102E+05
 0.50919998E+02  0.42306E+06
 0.50970001E+02  0.34054E+06
 0.51020000E+02 -0.22397E+05
 0.51070000E+02 -0.43518E+06
 0.51119999E+02 -0.77159E+06
 0.51169998E+02 -0.99066E+06
 0.51220001E+02 -0.10720E+07
 0.51270000E+02 -0.10100E+07
 0.51320000E+02 -0.78727E+06
 0.51369999E+02 -0.35732E+06
 0.51419998E+02  0.18901E+06
 0.51470001E+02  0.65910E+06
 0.51520000E+02  0.10432E+07
 0.51570000E+02  0.13215E+07
 0.51619999E+02  0.15380E+07
 0.51669998E+02  0.16834E+07
 0.51720001E+02  0.15306E+07
 0.51770000E+02  0.10441E+07
 0.51820000E+02  0.36932E+06
 0.51869999E+02 -0.20686E+06
 0.51919998E+02 -0.44555E+06
 0.51970001E+02 -0.33060E+06
 0.52020000E+02 -0.84166E+05
 0.52070000E+02 -0.30318E+05
 0.52119999E+02 -0.20735E+06
 0.52169998E+02 -0.58661E+06
 0.52220001E+02 -0.10766E+07
 0.52270000E+02 -0.13572E+07
 0.52320000E+02 -0.13884E+07
 0.52369999E+02 -0.12782E+07
 0.52419998E+02 -0.10224E+07
 0.52470001E+02 -0.82077E+06
 0.52520000E+02 -0.78551E+06
 0.52570000E+02 -0.90967E+06
 0.52619999E+02 -0.12326E+07
 0.52669998E+02 -0.15713E+07
 0.52720001E+02 -0.17665E+07
 0.52770000E+02 -0.17098E+07
 0.52820000E+02 -0.13295E+07
 0.52869999E+02 -0.83856E+06
 0.52919998E+02 -0.46723E+06
 0.52970001E+02 -0.30530E+06
 0.53020000E+02 -0.46002E+06
 0.53070000E+02 -0.92442E+06
 0.53119999E+02 -0.12870E+07
 0.53169998E+02 -0.12754E+07
 0.53220001E+02 -0.91779E+06
 0.53270000E+02 -0.19808E+06
 0.53320000E+02  0.56792E+06
 0.53369999E+02  0.10189E+07
 0.53419998E+02  0.11207E+07
 0.53470001E+02  0.90690E+06
 0.53520000E+02  0.41511E+06
 0.53570000E+02 -0.12585E+06
 0.53619999E+02 -0.49367E+06
 0.53669998E+02 -0.67525E+06
 0.53720001E+02 -0.57491E+06
 0.53770000E+02 -0.25221E+06
 0.53820000E+02  0.67081E+05
 0.53869999E+02  0.29916E+06
 0.53919998E+02  0.36265E+06
 0.53970001E+02  0.23563E+06
 0.54020000E+02  0.66700E+04
 0.54070000E+02 -0.14952E+06
 0.54119999E+02 -0.11322E+06
 0.54169998E+02  0.10670E+06
 0.54220001E+02  0.52699E+06
 0.54270000E+02  0.10071E+07
 0.54320000E+02  0.14000E+07
 0.54369999E+02  0.16702E+07
 0.54419998E+02  0.17229E+07
 0.54470001E+02  0.16350E+07
 0.54520000E+02  0.14684E+07
 0.54570000E+02  0.11931E+07
 0.54619999E+02  0.81812E+06
 0.54669998E+02  0.26447E+06
 0.54720001E+02 -0.38795E+06
 0.54770000E+02 -0.10554E+07
 0.54820000E+02 -0.18045E+07
 0.54869999E+02 -0.26032E+07
 0.54919998E+02 -0.34036E+07
 0.54970001E+02 -0.40332E+07
 0.55020000E+02 -0.42709E+07
 0.55070000E+02 -0.41042E+07
 0.55119999E+02 -0.35914E+07
 0.55169998E+02 -0.28658E+07
 0.55220001E+02 -0.21227E+07
 0.55270000E+02 -0.13847E+07
 0.55320000E+02 -0.66278E+06
 0.55369999E+02 -0.53197E+05
 0.55419998E+02  0.44255E+06
 0.55470001E+02  0.77765E+06
 0.55520000E+02  0.88273E+06
 0.55570000E+02  0.71370E+06
 0.55619999E+02  0.31815E+06
 0.55669998E+02 -0.58111E+05
 0.55720001E+02 -0.15244E+06
 0.55770000E+02  0.12257E+06
 0.55820000E+02  0.54895E+06
 0.55869999E+02  0.80648E+06
 0.55919998E+02  0.72565E+06
 0.55970001E+02  0.42376E+06
 0.56020000E+02  0.11724E+06
 0.56070000E+02 -0.98658E+05
 0.56119999E+02 -0.10460E+06
 0.56169998E+02  0.18398E+05
 0.56220001E+02  0.83207E+05
 0.56270000E+02  0.11620E+06
 0.56320000E+02  0.15742E+06
 0.56369999E+02  0.26113E+06
 0.56419998E+02  0.45538E+06
 0.56470001E+02  0.60564E+06
 0.56520000E+02  0.60560E+06
 0.56570000E+02  0.52680E+06
 0.56619999E+02  0.53091E+06
 0.56669998E+02  0.71612E+06
 0.56720001E+02  0.10720E+07
 0.56770000E+02  0.14508E+07
 0.56820000E+02  0.16608E+07
 0.56869999E+02  0.16360E+07
 0.56919998E+02  0.13951E+07
 0.56970001E+02  0.10261E+07
 0.57020000E+02  0.66669E+06
 0.57070000E+02  0.36761E+06
 0.57119999E+02  0.19630E+06
 0.57169998E+02  0.24055E+06
 0.57220001E+02  0.44367E+06
 0.57270000E+02  0.63630E+06
 0.57320000E+02  0.59420E+06
 0.57369999E+02  0.19384E+06
 0.57419998E+02 -0.50514E+06
 0.57470001E+02 -0.13492E+07
 0.57520000E+02 -0.21376E+07
 0.57570000E+02 -0.26687E+07
 0.57619999E+02 -0.28302E+07
 0.57669998E+02 -0.26371E+07
 0.57720001E+02 -0.21244E+07
 0.57770000E+02 -0.13792E+07
 0.57820000E+02 -0.64478E+06
 0.57869999E+02 -0.10942E+06
 0.57919998E+02  0.18601E+06
 0.57970001E+02  0.25776E+06
 0.58020000E+02  0.23793E+06
 0.58070000E+02  0.21345E+06
 0.58119999E+02  0.20088E+06
 0.58169998E+02  0.25770E+06
 0.58220001E+02  0.32767E+06
 0.58270000E+02  0.36524E+06
 0.58320000E+02  0.40313E+06
 0.58369999E+02  0.44356E+06
 0.58419998E+02  0.52113E+06
 0.58470001E+02  0.59315E+06
 0.58520000E+02  0.53507E+06
 0.58570000E+02  0.30555E+06
 0.58619999E+02 -0.12250E+05
 0.58669998E+02 -0.36942E+06
 0.58720001E+02 -0.82299E+06
 0.58770000E+02 -0.13027E+07
 0.58820000E+02 -0.17170E+07
 0.58869999E+02 -0.20623E+07
 0.58919998E+02 -0.22616E+07
 0.58970001E+02 -0.23429E+07
 0.59020000E+02 -0.24689E+07
 0.59070000E+02 -0.26331E+07
 0.59119999E+02 -0.27405E+07
 0.59169998E+02 -0.26986E+07
 0.59220001E+02 -0.23348E+07
 0.59270000E+02 -0.16754E+07
 0.59320000E+02 -0.88504E+06
 0.59369999E+02 -0.57202E+05
 0.59419998E+02  0.65296E+06
 0.59470001E+02  0.11365E+07
 0.59520000E+02  0.14292E+07
 0.59570000E+02  0.16076E+07
 0.59619999E+02  0.17188E+07
 0.59669998E+02  0.18463E+07
 0.59720001E+02  0.20123E+07
 0.59770000E+02  0.20866E+07
 0.59820000E+02  0.19681E+07
 0.59869999E+02  0.16297E+07
 0.59919998E+02  0.11256E+07
 0.59970001E+02  0.57766E+06
 0.60020000E+02  0.95144E+05
 0.60070000E+02 -0.30246E+06
 0.60119999E+02 -0.59209E+06
 0.60170002E+02 -0.74045E+06
 0.60219997E+02 -0.83343E+06
 0.60270000E+02 -0.88790E+06
 0.60320004E+02 -0.89934E+06
 0.60369999E+02 -0.96702E+06
 0.60420002E+02 -0.11282E+07
 0.60469997E+02 -0.12940E+07
 0.60520000E+02 -0.13237E+07
 0.60570004E+02 -0.11550E+07
 0.60619999E+02 -0.85161E+06
 0.60670002E+02 -0.60389E+06
 0.60719997E+02 -0.60685E+06
 0.60770000E+02 -0.88951E+06
 0.60820004E+02 -0.13309E+07
 0.60869999E+02 -0.16878E+07
 0.60920002E+02 -0.17332E+07
 0.60969997E+02 -0.14507E+07
 0.61020000E+02 -0.97970E+06
 0.61070004E+02 -0.44441E+06
 0.61119999E+02  0.59807E+05
 0.61170002E+02  0.43960E+06
 0.61219997E+02  0.70311E+06
 0.61270000E+02  0.91454E+06
 0.61320004E+02  0.10940E+07
 0.61369999E+02  0.12816E+07
 0.61420002E+02  0.15295E+07
 0.61469997E+02  0.18184E+07
 0.61520000E+02  0.20610E+07
 0.61570004E+02  0.21799E+07
 0.61619999E+02  0.21749E+07
 0.61670002E+02  0.20050E+07
 0.61719997E+02  0.15969E+07
 0.61770000E+02  0.10541E+07
 0.61820004E+02  0.49531E+06
 0.61869999E+02  0.38671E+05
 0.61920002E+02 -0.16660E+06
 0.61969997E+02 -0.19778E+06
 0.62020000E+02 -0.20645E+06
 0.62070004E+02 -0.32383E+06
 0.62119999E+02 -0.70911E+06
 0.62170002E+02 -0.13596E+07
 0.62219997E+02 -0.20013E+07
 0.62270000E+02 -0.22921E+07
 0.62320004E+02 -0.21675E+07
 0.62369999E+02 -0.17301E+07
 0.62420002E+02 -0.11601E+07
 0.62469997E+02 -0.71825E+06
 0.62520000E+02 -0.42389E+06
 0.62570004E+02 -0.18075E+06
 0.62619999E+02  0.13106E+05
 0.62670002E+02  0.13849E+06
 0.62719997E+02  0.13994E+06
 0.62770000E+02  0.20234E+05
 0.62820004E+02 -0.18372E+06
 0.62869999E+02 -0.45419E+06
 0.62920002E+02 -0.74443E+06
 0.62969997E+02 -0.10320E+07
 0.63020000E+02 -0.12730E+07
 0.63070004E+02 -0.14100E+07
 0.63119999E+02 -0.14536E+07
 0.63170002E+02 -0.14878E+07
 0.63219997E+02 -0.15307E+07
 0.63270000E+02 -0.15240E+07
 0.63320004E+02 -0.14737E+07
 0.63369999E+02 -0.13276E+07
 0.63420002E+02 -0.11028E+07
 0.63469997E+02 -0.93064E+06
 0.63520000E+02 -0.86208E+06
 0.63570004E+02 -0.88057E+06
 0.63619999E+02 -0.90020E+06
 0.63670002E+02 -0.87473E+06
 0.63719997E+02 -0.78082E+06
 0.63770000E+02 -0.62803E+06
 0.63820004E+02 -0.52391E+06
 0.63869999E+02 -0.49445E+06
 0.63920002E+02 -0.54048E+06
 0.63969997E+02 -0.70857E+06
 0.64020004E+02 -0.96221E+06
 0.64070007E+02 -0.11707E+07
 0.64120003E+02 -0.11821E+07
 0.64170006E+02 -0.95136E+06
 0.64220001E+02 -0.55624E+06
 0.64270004E+02 -0.15367E+06
 0.64320007E+02  0.94193E+05
 0.64370003E+02  0.15644E+06
 0.64420006E+02  0.12607E+06
 0.64470001E+02  0.10770E+06
 0.64520004E+02  0.16710E+06
 0.64570007E+02  0.31125E+06
 0.64620003E+02  0.43058E+06
 0.64670006E+02  0.48150E+06
 0.64720001E+02  0.52218E+06
 0.64770004E+02  0.60467E+06
 0.64820007E+02  0.84938E+06
 0.64870003E+02  0.12423E+07
 0.64920006E+02  0.16203E+07
 0.64970001E+02  0.18450E+07
 0.65020004E+02  0.18170E+07
 0.65070007E+02  0.15621E+07
 0.65120003E+02  0.12092E+07
 0.65170006E+02  0.85674E+06
 0.65220001E+02  0.50336E+06
 0.65270004E+02  0.14692E+06
 0.65320007E+02 -0.16435E+06
 0.65370003E+02 -0.40108E+06
 0.65420006E+02 -0.56500E+06
 0.65470001E+02 -0.64846E+06
 0.65520004E+02 -0.62937E+06
 0.65570007E+02 -0.53830E+06
 0.65620003E+02 -0.39156E+06
 0.65670006E+02 -0.20164E+06
 0.65720001E+02 -0.34740E+05
 0.65770004E+02  0.88832E+05
 0.65820007E+02  0.16551E+06
 0.65870003E+02  0.20400E+06
 0.65920006E+02  0.22000E+06
 0.65970001E+02  0.14955E+06
 0.66020004E+02 -0.11975E+06
 0.66070007E+02 -0.62842E+06
 0.66120003E+02 -0.12573E+07
 0.66170006E+02 -0.18426E+07
 0.66220001E+02 -0.22291E+07
 0.66270004E+02 -0.23195E+07
 0.66320007E+02 -0.22224E+07
 0.66370003E+02 -0.20709E+07
 0.66420006E+02 -0.19345E+07
 0.66470001E+02 -0.18688E+07
 0.66520004E+02 -0.18312E+07
 0.66570007E+02 -0.17640E+07
 0.66620003E+02 -0.16383E+07
 0.66670006E+02 -0.14332E+07
 0.66720001E+02 -0.11303E+07
 0.66770004E+02 -0.75499E+06
 0.66820007E+02 -0.41045E+06
 0.66870003E+02 -0.13878E+06
 0.66920006E+02  0.95402E+05
 0.66970001E+02  0.31558E+06
 0.67020004E+02  0.52745E+06
 0.67070007E+02  0.67795E+06
 0.67120003E+02  0.70238E+06
 0.67170006E+02  0.61421E+06
 0.67220001E+02  0.43071E+06
 0.67270004E+02  0.19706E+06
 0.67320007E+02 -0.39180E+04
 0.67370003E+02 -0.12177E+06
 0.67420006E+02 -0.86757E+05
 0.67470001E+02  0.13738E+06
 0.67520004E+02  0.45592E+06
 0.67570007E+02  0.69730E+06
 0.67620003E+02  0.77223E+06
 0.67670006E+02  0.71826E+06
 0.67720001E+02  0.57142E+06
 0.67770004E+02  0.35734E+06
 0.67820007E+02  0.16196E+06
 0.67870003E+02  0.31533E+05
 0.67920006E+02 -0.21546E+05
 0.67970001E+02  0.50767E+05
 0.68020004E+02  0.18416E+06
 0.68070007E+02  0.24378E+06
 0.68120003E+02  0.19192E+06
 0.68170006E+02  0.93883E+05
 0.68220001E+02  0.21069E+05
 0.68270004E+02 -0.21630E+04
 0.68320007E+02  0.56171E+05
 0.68370003E+02  0.17609E+06
 0.68420006E+02  0.28691E+06
 0.68470001E+02  0.34491E+06
 0.68520004E+02  0.33455E+06
 0.68570007E+02  0.27109E+06
 0.68620003E+02  0.18590E+06
 0.68670006E+02  0.12375E+06
 0.68720001E+02  0.10318E+06
 0.68770004E+02  0.83523E+05
 0.68820007E+02  0.13570E+05
 0.68870003E+02 -0.97175E+05
 0.68920006E+02 -0.17391E+06
 0.68970001E+02 -0.19140E+06
 0.69020004E+02 -0.19538E+06
 0.69070007E+02 -0.23546E+06
 0.69120003E+02 -0.33343E+06
 0.69170006E+02 -0.44192E+06
 0.69220001E+02 -0.48845E+06
 0.69270004E+02 -0.43586E+06
 0.69320007E+02 -0.32134E+06
 0.69370003E+02 -0.20998E+06
 0.69420006E+02 -0.12138E+06
 0.69470001E+02 -0.48259E+05
 0.69520004E+02  0.83060E+04
 0.69570007E+02 -0.18772E+05
 0.69620003E+02 -0.16653E+06
 0.69670006E+02 -0.34937E+06
 0.69720001E+02 -0.46785E+06
 0.69770004E+02 -0.48632E+06
 0.69820007E+02 -0.38780E+06
 0.69870003E+02 -0.18135E+06
 0.69920006E+02  0.44939E+05
 0.69970001E+02  0.21885E+06
 0.70020004E+02  0.32925E+06
 0.70070007E+02  0.34143E+06
 0.70120003E+02  0.22325E+06
 0.70170006E+02 -0.43750E+04
 0.70220001E+02 -0.30465E+06
 0.70270004E+02 -0.62777E+06
 0.70320007E+02 -0.91374E+06
 0.70370003E+02 -0.10970E+07
 0.70420006E+02 -0.11542E+07
 0.70470001E+02 -0.11422E+07
 0.70520004E+02 -0.11304E+07
 0.70570007E+02 -0.11728E+07
 0.70620003E+02 -0.12689E+07
 0.70670006E+02 -0.13648E+07
 0.70720001E+02 -0.13835E+07
 0.70770004E+02 -0.12908E+07
 0.70820007E+02 -0.11171E+07
 0.70870003E+02 -0.89961E+06
 0.70920006E+02 -0.71856E+06
 0.70970001E+02 -0.58926E+06
 0.71020004E+02 -0.50382E+06
 0.71070007E+02 -0.51160E+06
 0.71120003E+02 -0.56760E+06
 0.71170006E+02 -0.62000E+06
 0.71220001E+02 -0.64799E+06
 0.71270004E+02 -0.60214E+06
 0.71320007E+02 -0.48089E+06
 0.71370003E+02 -0.32192E+06
 0.71420006E+02 -0.18853E+06
 0.71470001E+02 -0.14511E+06
 0.71520004E+02 -0.18602E+06
 0.71570007E+02 -0.27075E+06
 0.71620003E+02 -0.35950E+06
 0.71670006E+02 -0.43010E+06
 0.71720001E+02 -0.48022E+06
 0.71770004E+02 -0.49778E+06
 0.71820007E+02 -0.48458E+06
 0.71870003E+02 -0.43249E+06
 0.71920006E+02 -0.31476E+06
 0.71970001E+02 -0.11474E+06
 0.72020004E+02  0.19194E+06
 0.72070007E+02  0.60140E+06
 0.72120003E+02  0.10538E+07
 0.72170006E+02  0.14431E+07
 0.72220001E+02  0.16525E+07
 0.72270004E+02  0.16393E+07
 0.72320007E+02  0.14324E+07
 0.72370003E+02  0.11086E+07
 0.72420006E+02  0.74977E+06
 0.72470001E+02  0.37706E+06
 0.72520004E+02 -0.26960E+04
 0.72570007E+02 -0.35806E+06
 0.72620003E+02 -0.65054E+06
 0.72670006E+02 -0.87272E+06
 0.72720001E+02 -0.10515E+07
 0.72770004E+02 -0.12023E+07
 0.72820007E+02 -0.13039E+07
 0.72870003E+02 -0.13166E+07
 0.72920006E+02 -0.12090E+07
 0.72970001E+02 -0.10227E+07
 0.73020004E+02 -0.90154E+06
 0.73070007E+02 -0.91840E+06
 0.73120003E+02 -0.98808E+06
 0.73170006E+02 -0.99927E+06
 0.73220001E+02 -0.89668E+06
 0.73270004E+02 -0.73236E+06
 0.73320007E+02 -0.63542E+06
 0.73370003E+02 -0.64762E+06
 0.73420006E+02 -0.69445E+06
 0.73470001E+02 -0.69061E+06
 0.73520004E+02 -0.57848E+06
 0.73570007E+02 -0.39404E+06
 0.73620003E+02 -0.25290E+06
 0.73670006E+02 -0.19528E+06
 0.73720001E+02 -0.20288E+06
 0.73770004E+02 -0.24193E+06
 0.73820007E+02 -0.24406E+06
 0.73870003E+02 -0.18619E+06
 0.73920006E+02 -0.10090E+06
 0.73970001E+02 -0.37610E+05
 0.74020004E+02 -0.14169E+05
 0.74070007E+02 -0.10700E+03
 0.74120003E+02  0.18262E+05
 0.74170006E+02  0.48412E+05
 0.74220001E+02  0.71863E+05
 0.74270004E+02  0.29561E+05
 0.74320007E+02 -0.10513E+06
 0.74370003E+02 -0.27866E+06
 0.74420006E+02 -0.37482E+06
 0.74470001E+02 -0.32038E+06
 0.74520004E+02 -0.11988E+06
 0.74570007E+02  0.17014E+06
 0.74620003E+02  0.44640E+06
 0.74670006E+02  0.61776E+06
 0.74720001E+02  0.66664E+06
 0.74770004E+02  0.64834E+06
 0.74820007E+02  0.63604E+06
 0.74870003E+02  0.66142E+06
 0.74920006E+02  0.68849E+06
 0.74970001E+02  0.66511E+06
 0.75020004E+02  0.58195E+06
 0.75070007E+02  0.43651E+06
 0.75120003E+02  0.24158E+06
 0.75170006E+02  0.49224E+05
 0.75220001E+02 -0.10725E+06
 0.75270004E+02 -0.21406E+06
 0.75320007E+02 -0.26051E+06
 0.75370003E+02 -0.26917E+06
 0.75420006E+02 -0.30372E+06
 0.75470001E+02 -0.41683E+06
 0.75520004E+02 -0.60723E+06
 0.75570007E+02 -0.85515E+06
 0.75620003E+02 -0.11371E+07
 0.75670006E+02 -0.14201E+07
 0.75720001E+02 -0.16599E+07
 0.75770004E+02 -0.18151E+07
 0.75820007E+02 -0.18418E+07
 0.75870003E+02 -0.16908E+07
 0.75920006E+02 -0.13732E+07
 0.75970001E+02 -0.93951E+06
 0.76020004E+02 -0.45219E+06
 0.76070007E+02  0.14689E+05
 0.76120003E+02  0.41160E+06
 0.76170006E+02  0.69563E+06
 0.76220001E+02  0.83147E+06
 0.76270004E+02  0.83914E+06
 0.76320007E+02  0.78750E+06
 0.76370003E+02  0.73180E+06
 0.76420006E+02  0.69018E+06
 0.76470001E+02  0.63139E+06
 0.76520004E+02  0.50585E+06
 0.76570007E+02  0.32087E+06
 0.76620003E+02  0.12923E+06
 0.76670006E+02 -0.57430E+04
 0.76720001E+02 -0.57100E+05
 0.76770004E+02 -0.62176E+05
 0.76820007E+02 -0.54045E+05
 0.76870003E+02 -0.51532E+05
 0.76920006E+02 -0.74049E+05
 0.76970001E+02 -0.10561E+06
 0.77020004E+02 -0.13492E+06
 0.77070007E+02 -0.16245E+06
 0.77120003E+02 -0.16312E+06
 0.77170006E+02 -0.11758E+06
 0.77220001E+02 -0.26861E+05
 0.77270004E+02  0.83454E+05
 0.77320007E+02  0.18023E+06
 0.77370003E+02  0.23059E+06
 0.77420006E+02  0.21250E+06
 0.77470001E+02  0.15811E+06
 0.77520004E+02  0.94502E+05
 0.77570007E+02  0.18640E+04
 0.77620003E+02 -0.16217E+06
 0.77670006E+02 -0.42279E+06
 0.77720001E+02 -0.74527E+06
 0.77770004E+02 -0.10344E+07
 0.77820007E+02 -0.11912E+07
 0.77870003E+02 -0.11896E+07
 0.77920006E+02 -0.10355E+07
 0.77970001E+02 -0.76621E+06
 0.78020004E+02 -0.44125E+06
 0.78070007E+02 -0.81607E+05
 0.78120003E+02  0.25921E+06
 0.78170006E+02  0.50750E+06
 0.78220001E+02  0.61579E+06
 0.78270004E+02  0.56497E+06
 0.78320007E+02  0.41318E+06
 0.78370003E+02  0.25241E+06
 0.78420006E+02  0.12824E+06
 0.78470001E+02  0.44266E+05
 0.78520004E+02 -0.20310E+05
 0.78570007E+02 -0.10752E+06
 0.78620003E+02 -0.24870E+06
 0.78670006E+02 -0.45643E+06
 0.78720001E+02 -0.73489E+06
 0.78770004E+02 -0.10490E+07
 0.78820007E+02 -0.13187E+07
 0.78870003E+02 -0.14559E+07
 0.78920006E+02 -0.13983E+07
 0.78970001E+02 -0.11679E+07
 0.79020004E+02 -0.86901E+06
 0.79070007E+02 -0.58268E+06
 0.79120003E+02 -0.34584E+06
 0.79170006E+02 -0.16867E+06
 0.79220001E+02 -0.13090E+05
 0.79270004E+02  0.15730E+06
 0.79320007E+02  0.33574E+06
 0.79370003E+02  0.50101E+06
 0.79420006E+02  0.64242E+06
 0.79470001E+02  0.73870E+06
 0.79520004E+02  0.75789E+06
 0.79570007E+02  0.67852E+06
 0.79620003E+02  0.48551E+06
 0.79670006E+02  0.18072E+06
 0.79720001E+02 -0.18156E+06
 0.79770004E+02 -0.50092E+06
 0.79820007E+02 -0.69950E+06
 0.79870003E+02 -0.72902E+06
 0.79920006E+02 -0.59353E+06
 0.79970001E+02 -0.35709E+06
 0.80020004E+02 -0.76399E+05
 0.80070007E+02  0.18322E+06
 0.80120003E+02  0.39686E+06
 0.80170006E+02  0.60938E+06
 0.80220001E+02  0.84710E+06
 0.80270004E+02  0.11042E+07
 0.80320007E+02  0.13083E+07
 0.80370003E+02  0.13498E+07
 0.80420006E+02  0.11869E+07
 0.80470001E+02  0.86644E+06
 0.80520004E+02  0.52066E+06
 0.80570007E+02  0.26255E+06
 0.80620003E+02  0.10326E+06
 0.80670006E+02  0.19908E+05
 0.80720001E+02 -0.23282E+05
 0.80770004E+02 -0.66331E+05
 0.80820007E+02 -0.11957E+06
 0.80870003E+02 -0.18905E+06
 0.80920006E+02 -0.27198E+06
 0.80970001E+02 -0.35609E+06
 0.81020004E+02 -0.44121E+06
 0.81070007E+02 -0.49922E+06
 0.81120003E+02 -0.49984E+06
 0.81170006E+02 -0.43956E+06
 0.81220001E+02 -0.32931E+06
 0.81270004E+02 -0.22376E+06
 0.81320007E+02 -0.19687E+06
 0.81370003E+02 -0.29920E+06
 0.81420006E+02 -0.52392E+06
 0.81470001E+02 -0.79096E+06
 0.81520004E+02 -0.99870E+06
 0.81570007E+02 -0.10861E+07
 0.81620003E+02 -0.10671E+07
 0.81670006E+02 -0.10210E+07
 0.81720001E+02 -0.10195E+07
 0.81770004E+02 -0.10749E+07
 0.81820007E+02 -0.11534E+07
 0.81870003E+02 -0.11960E+07
 0.81920006E+02 -0.11647E+07
 0.81970001E+02 -0.10651E+07
 0.82020004E+02 -0.92682E+06
 0.82070007E+02 -0.78635E+06
 0.82120003E+02 -0.67525E+06
 0.82170006E+02 -0.62278E+06
 0.82220001E+02 -0.63114E+06
 0.82270004E+02 -0.66144E+06
 0.82320007E+02 -0.66986E+06
 0.82370003E+02 -0.61450E+06
 0.82420006E+02 -0.47419E+06
 0.82470001E+02 -0.28318E+06
 0.82520004E+02 -0.98654E+05
 0.82570007E+02  0.23866E+05
 0.82620003E+02  0.65284E+05
 0.82670006E+02  0.66537E+05
 0.82720001E+02  0.71402E+05
 0.82770004E+02  0.99198E+05
 0.82820007E+02  0.13495E+06
 0.82870003E+02  0.14049E+06
 0.82920006E+02  0.99349E+05
 0.82970001E+02  0.34496E+05
 0.83020004E+02 -0.93290E+04
 0.83070007E+02 -0.66770E+04
 0.83120003E+02  0.35415E+05
 0.83170006E+02  0.81569E+05
 0.83220001E+02  0.10161E+06
 0.83270004E+02  0.90975E+05
 0.83320007E+02  0.42584E+05
 0.83370003E+02 -0.35113E+05
 0.83420006E+02 -0.11996E+06
 0.83470001E+02 -0.21724E+06
 0.83520004E+02 -0.32694E+06
 0.83570007E+02 -0.41735E+06
 0.83620003E+02 -0.45244E+06
 0.83670006E+02 -0.40704E+06
 0.83720001E+02 -0.28141E+06
 0.83770004E+02 -0.99349E+05
 0.83820007E+02  0.11533E+06
 0.83870003E+02  0.33797E+06
 0.83920006E+02  0.53165E+06
 0.83970001E+02  0.66672E+06
 0.84020004E+02  0.73627E+06
 0.84070007E+02  0.75908E+06
 0.84120003E+02  0.76886E+06
 0.84170006E+02  0.77006E+06
 0.84220001E+02  0.73214E+06
 0.84270004E+02  0.61071E+06
 0.84320007E+02  0.35590E+06
 0.84370003E+02 -0.39561E+05
 0.84420006E+02 -0.52219E+06
 0.84470001E+02 -0.10125E+07
 0.84520004E+02 -0.14217E+07
 0.84570007E+02 -0.16833E+07
 0.84620003E+02 -0.17653E+07
 0.84670006E+02 -0.16827E+07
 0.84720001E+02 -0.14912E+07
 0.84770004E+02 -0.12306E+07
 0.84820007E+02 -0.94096E+06
 0.84870003E+02 -0.65434E+06
 0.84920006E+02 -0.35964E+06
 0.84970001E+02 -0.57347E+05
 0.85020004E+02  0.23552E+06
 0.85070007E+02  0.49952E+06
 0.85120003E+02  0.69926E+06
 0.85170006E+02  0.82039E+06
 0.85220001E+02  0.88127E+06
 0.85270004E+02  0.90861E+06
 0.85320007E+02  0.91886E+06
 0.85370003E+02  0.89769E+06
 0.85420006E+02  0.80920E+06
 0.85470001E+02  0.63065E+06
 0.85520004E+02  0.37626E+06
 0.85570007E+02  0.93633E+05
 0.85620003E+02 -0.17671E+06
 0.85670006E+02 -0.40927E+06
 0.85720001E+02 -0.58234E+06
 0.85770004E+02 -0.68650E+06
 0.85820007E+02 -0.70236E+06
 0.85870003E+02 -0.61757E+06
 0.85920006E+02 -0.44984E+06
 0.85970001E+02 -0.24390E+06
 0.86020004E+02 -0.56953E+05
 0.86070007E+02  0.79704E+05
 0.86120003E+02  0.15558E+06
 0.86170006E+02  0.18784E+06
 0.86220001E+02  0.21766E+06
 0.86270004E+02  0.26470E+06
 0.86320007E+02  0.32483E+06
 0.86370003E+02  0.37797E+06
 0.86420006E+02  0.39488E+06
 0.86470001E+02  0.35920E+06
 0.86520004E+02  0.27063E+06
 0.86570007E+02  0.14126E+06
 0.86620003E+02 -0.16419E+05
 0.86670006E+02 -0.19543E+06
 0.86720001E+02 -0.37757E+06
 0.86770004E+02 -0.54279E+06
 0.86820007E+02 -0.67775E+06
 0.86870003E+02 -0.78307E+06
 0.86920006E+02 -0.87477E+06
 0.86970001E+02 -0.95255E+06
 0.87020004E+02 -0.10201E+07
 0.87070007E+02 -0.10779E+07
 0.87120003E+02 -0.10868E+07
 0.87170006E+02 -0.10135E+07
 0.87220001E+02 -0.86622E+06
 0.87270004E+02 -0.68896E+06
 0.87320007E+02 -0.53652E+06
 0.87370003E+02 -0.43773E+06
 0.87420006E+02 -0.37496E+06
 0.87470001E+02 -0.30669E+06
 0.87520004E+02 -0.22270E+06
 0.87570007E+02 -0.14818E+06
 0.87620003E+02 -0.11040E+06
 0.87670006E+02 -0.10628E+06
 0.87720001E+02 -0.98315E+05
 0.87770004E+02 -0.64367E+05
 0.87820007E+02 -0.23773E+05
 0.87870003E+02 -0.60220E+04
 0.87920006E+02 -0.29501E+05
 0.87970001E+02 -0.94209E+05
 0.88020004E+02 -0.17169E+06
 0.88070007E+02 -0.23398E+06
 0.88120003E+02 -0.26342E+06
 0.88170006E+02 -0.24291E+06
 0.88220001E+02 -0.17991E+06
 0.88270004E+02 -0.80776E+05
 0.88320007E+02  0.49743E+05
 0.88370003E+02  0.17843E+06
 0.88420006E+02  0.27572E+06
 0.88470001E+02  0.32731E+06
 0.88520004E+02  0.34279E+06
 0.88570007E+02  0.34008E+06
 0.88620003E+02  0.32045E+06
 0.88670006E+02  0.28276E+06
 0.88720001E+02  0.22021E+06
 0.88770004E+02  0.13785E+06
 0.88820007E+02  0.68125E+05
 0.88870003E+02  0.45772E+05
 0.88920006E+02  0.70563E+05
 0.88970001E+02  0.11289E+06
 0.89020004E+02  0.15382E+06
 0.89070007E+02  0.18690E+06
 0.89120003E+02  0.21139E+06
 0.89170006E+02  0.22178E+06
 0.89220001E+02  0.20050E+06
 0.89270004E+02  0.14476E+06
 0.89320007E+02  0.65673E+05
 0.89370003E+02 -0.18584E+05
 0.89420006E+02 -0.82268E+05
 0.89470001E+02 -0.12326E+06
 0.89520004E+02 -0.15752E+06
 0.89570007E+02 -0.19626E+06
 0.89620003E+02 -0.25286E+06
 0.89670006E+02 -0.34425E+06
 0.89720001E+02 -0.46088E+06
 0.89770004E+02 -0.56299E+06
 0.89820007E+02 -0.61428E+06
 0.89870003E+02 -0.58225E+06
 0.89920006E+02 -0.47226E+06
 0.89970001E+02 -0.33154E+06
 0.90020004E+02 -0.18864E+06
 0.90070007E+02 -0.61809E+05
 0.90120003E+02  0.28912E+05
 0.90170006E+02  0.73898E+05
 0.90220001E+02  0.72011E+05
 0.90270004E+02  0.49000E+05
 0.90320007E+02  0.48970E+05
 0.90370003E+02  0.96288E+05
 0.90420006E+02  0.18885E+06
 0.90470001E+02  0.29385E+06
 0.90520004E+02  0.37498E+06
 0.90570007E+02  0.42550E+06
 0.90620003E+02  0.44442E+06
 0.90670006E+02  0.43909E+06
 0.90720001E+02  0.42175E+06
 0.90770004E+02  0.39013E+06
 0.90820007E+02  0.35236E+06
 0.90870003E+02  0.33053E+06
 0.90920006E+02  0.34837E+06
 0.90970001E+02  0.42192E+06
 0.91020004E+02  0.53410E+06
 0.91070007E+02  0.64801E+06
 0.91120003E+02  0.72287E+06
 0.91170006E+02  0.71872E+06
 0.91220001E+02  0.63762E+06
 0.91270004E+02  0.52238E+06
 0.91320007E+02  0.40728E+06
 0.91370003E+02  0.29697E+06
 0.91420006E+02  0.18776E+06
 0.91470001E+02  0.74710E+05
 0.91520004E+02 -0.56051E+05
 0.91570007E+02 -0.20931E+06
 0.91620003E+02 -0.37836E+06
 0.91670006E+02 -0.54947E+06
 0.91720001E+02 -0.69386E+06
 0.91770004E+02 -0.76559E+06
 0.91820007E+02 -0.74179E+06
 0.91870003E+02 -0.65724E+06
 0.91920006E+02 -0.56478E+06
 0.91970001E+02 -0.50710E+06
 0.92020004E+02 -0.50667E+06
 0.92070007E+02 -0.55785E+06
 0.92120003E+02 -0.65261E+06
 0.92170006E+02 -0.77718E+06
 0.92220001E+02 -0.90239E+06
 0.92270004E+02 -0.10054E+07
 0.92320007E+02 -0.10597E+07
 0.92370003E+02 -0.10398E+07
 0.92420006E+02 -0.95601E+06
 0.92470001E+02 -0.84057E+06
 0.92520004E+02 -0.72594E+06
 0.92570007E+02 -0.63486E+06
 0.92620003E+02 -0.56502E+06
 0.92670006E+02 -0.48823E+06
 0.92720001E+02 -0.37410E+06
 0.92770004E+02 -0.22884E+06
 0.92820007E+02 -0.99816E+05
 0.92870003E+02 -0.27787E+05
 0.92920006E+02 -0.18019E+05
 0.92970001E+02 -0.61247E+05
 0.93020004E+02 -0.14396E+06
 0.93070007E+02 -0.25457E+06
 0.93120003E+02 -0.38900E+06
 0.93170006E+02 -0.53548E+06
 0.93220001E+02 -0.66686E+06
 0.93270004E+02 -0.75267E+06
 0.93320007E+02 -0.78409E+06
 0.93370003E+02 -0.76708E+06
 0.93420006E+02 -0.70071E+06
 0.93470001E+02 -0.59186E+06
 0.93520004E+02 -0.45419E+06
 0.93570007E+02 -0.29559E+06
 0.93620003E+02 -0.13394E+06
 0.93670006E+02  0.73630E+04
 0.93720001E+02  0.10877E+06
 0.93770004E+02  0.16987E+06
 0.93820007E+02  0.21202E+06
 0.93870003E+02  0.24606E+06
 0.93920006E+02  0.27077E+06
 0.93970001E+02  0.26779E+06
 0.94020004E+02  0.20683E+06
 0.94070007E+02  0.79829E+05
 0.94120003E+02 -0.95283E+05
 0.94170006E+02 -0.28080E+06
 0.94220001E+02 -0.42600E+06
 0.94270004E+02 -0.50249E+06
 0.94320007E+02 -0.52534E+06
 0.94370003E+02 -0.52289E+06
 0.94420006E+02 -0.49933E+06
 0.94470001E+02 -0.43902E+06
 0.94520004E+02 -0.33559E+06
 0.94570007E+02 -0.18729E+06
 0.94620003E+02 -0.12101E+05
 0.94670006E+02  0.14381E+06
 0.94720001E+02  0.25315E+06
 0.94770004E+02  0.31020E+06
 0.94820007E+02  0.31496E+06
 0.94870003E+02  0.27726E+06
 0.94920006E+02  0.21594E+06
 0.94970001E+02  0.15453E+06
 0.95020004E+02  0.11428E+06
 0.95070007E+02  0.10802E+06
 0.95120003E+02  0.12130E+06
 0.95170006E+02  0.11399E+06
 0.95220001E+02  0.62655E+05
 0.95270004E+02 -0.25290E+05
 0.95320007E+02 -0.12792E+06
 0.95370003E+02 -0.21026E+06
 0.95420006E+02 -0.23927E+06
 0.95470001E+02 -0.21398E+06
 0.95520004E+02 -0.16471E+06
 0.95570007E+02 -0.12851E+06
 0.95620003E+02 -0.13355E+06
 0.95670006E+02 -0.19460E+06
 0.95720001E+02 -0.30488E+06
 0.95770004E+02 -0.41736E+06
 0.95820007E+02 -0.48339E+06
 0.95870003E+02 -0.49102E+06
 0.95920006E+02 -0.45001E+06
 0.95970001E+02 -0.40049E+06
 0.96020004E+02 -0.37467E+06
 0.96070007E+02 -0.35984E+06
 0.96120003E+02 -0.33096E+06
 0.96170006E+02 -0.27555E+06
 0.96220001E+02 -0.19832E+06
 0.96270004E+02 -0.11027E+06
 0.96320007E+02 -0.17917E+05
 0.96370003E+02  0.74163E+05
 0.96420006E+02  0.16102E+06
 0.96470001E+02  0.24142E+06
 0.96520004E+02  0.30502E+06
 0.96570007E+02  0.33545E+06
 0.96620003E+02  0.32365E+06
 0.96670006E+02  0.27253E+06
 0.96720001E+02  0.20900E+06
 0.96770004E+02  0.16521E+06
 0.96820007E+02  0.16865E+06
 0.96870003E+02  0.23181E+06
 0.96920006E+02  0.33525E+06
 0.96970001E+02  0.43856E+06
 0.97020004E+02  0.50169E+06
 0.97070007E+02  0.50545E+06
 0.97120003E+02  0.45409E+06
 0.97170006E+02  0.38009E+06
 0.97220001E+02  0.31653E+06
 0.97270004E+02  0.26207E+06
 0.97320007E+02  0.19543E+06
 0.97370003E+02  0.10549E+06
 0.97420006E+02  0.30170E+04
 0.97470001E+02 -0.94339E+05
 0.97520004E+02 -0.16641E+06
 0.97570007E+02 -0.20822E+06
 0.97620003E+02 -0.23396E+06
 0.97670006E+02 -0.24521E+06
 0.97720001E+02 -0.23484E+06
 0.97770004E+02 -0.21471E+06
 0.97820007E+02 -0.20977E+06
 0.97870003E+02 -0.23260E+06
 0.97920006E+02 -0.28034E+06
 0.97970001E+02 -0.32230E+06
 0.98020004E+02 -0.31193E+06
 0.98070007E+02 -0.22991E+06
 0.98120003E+02 -0.94587E+05
 0.98170006E+02  0.56209E+05
 0.98220001E+02  0.18747E+06
 0.98270004E+02  0.27458E+06
 0.98320007E+02  0.31768E+06
 0.98370003E+02  0.34375E+06
 0.98420006E+02  0.38297E+06
 0.98470001E+02  0.44232E+06
 0.98520004E+02  0.49310E+06
 0.98570007E+02  0.49428E+06
 0.98620003E+02  0.42997E+06
 0.98670006E+02  0.32231E+06
 0.98720001E+02  0.21347E+06
 0.98770004E+02  0.14823E+06
 0.98820007E+02  0.14774E+06
 0.98870003E+02  0.18952E+06
 0.98920006E+02  0.22926E+06
 0.98970001E+02  0.23458E+06
 0.99020004E+02  0.19598E+06
 0.99070007E+02  0.12653E+06
 0.99120003E+02  0.56552E+05
 0.99170006E+02  0.87160E+04
 0.99220001E+02 -0.68980E+04
 0.99270004E+02  0.35230E+04
 0.99320007E+02  0.16405E+05
 0.99370003E+02  0.18536E+05
 0.99420006E+02  0.48060E+04
 0.99470001E+02 -0.28343E+05
 0.99520004E+02 -0.82807E+05
 0.99570007E+02 -0.16377E+06
 0.99620003E+02 -0.27373E+06
 0.99670006E+02 -0.41388E+06
 0.99720001E+02 -0.57887E+06
 0.99770004E+02 -0.74664E+06
 0.99820007E+02 -0.89407E+06
 0.99870003E+02 -0.10127E+07
 0.99920006E+02 -0.10983E+07
 0.99970001E+02 -0.11551E+07
 0.10002000E+03 -0.11922E+07
 0.10007001E+03 -0.12066E+07
 0.10012000E+03 -0.11879E+07
 0.10017001E+03 -0.11238E+07
 0.10022000E+03 -0.10101E+07
 0.10027000E+03 -0.85680E+06
 0.10032001E+03 -0.68677E+06
 0.10037000E+03 -0.52482E+06
 0.10042001E+03 -0.37948E+06
 0.10047000E+03 -0.24495E+06
 0.10052000E+03 -0.10834E+06
 0.10057001E+03  0.34587E+05
 0.10062000E+03  0.17279E+06
 0.10067001E+03  0.29128E+06
 0.10072000E+03  0.37068E+06
 0.10077000E+03  0.40220E+06
 0.10082001E+03  0.39932E+06
 0.10087000E+03  0.37804E+06
 0.10092001E+03  0.35556E+06
 0.10097000E+03  0.35368E+06
 0.10102000E+03  0.37422E+06
 0.10107001E+03  0.39424E+06
 0.10112000E+03  0.38759E+06
 0.10117001E+03  0.34448E+06
 0.10122000E+03  0.29160E+06
 0.10127000E+03  0.27395E+06
 0.10132001E+03  0.31543E+06
 0.10137000E+03  0.40627E+06
 0.10142001E+03  0.50382E+06
 0.10147000E+03  0.56770E+06
 0.10152000E+03  0.59164E+06
 0.10157001E+03  0.59311E+06
 0.10162000E+03  0.59647E+06
 0.10167001E+03  0.60925E+06
 0.10172000E+03  0.61221E+06
 0.10177000E+03  0.58058E+06
 0.10182001E+03  0.50740E+06
 0.10187000E+03  0.40182E+06
 0.10192001E+03  0.27390E+06
 0.10197000E+03  0.12799E+06
 0.10202000E+03 -0.40258E+05
 0.10207001E+03 -0.23071E+06
 0.10212000E+03 -0.41363E+06
 0.10217001E+03 -0.54839E+06
 0.10222000E+03 -0.61972E+06
 0.10227000E+03 -0.62988E+06
 0.10232001E+03 -0.59544E+06
 0.10237000E+03 -0.54384E+06
 0.10242001E+03 -0.48538E+06
 0.10247000E+03 -0.42235E+06
 0.10252000E+03 -0.36919E+06
 0.10257001E+03 -0.34508E+06
 0.10262000E+03 -0.36498E+06
 0.10267001E+03 -0.42302E+06
 0.10272000E+03 -0.48740E+06
 0.10277000E+03 -0.52632E+06
 0.10282001E+03 -0.52273E+06
 0.10287000E+03 -0.47008E+06
 0.10292001E+03 -0.37449E+06
 0.10297000E+03 -0.24975E+06
 0.10302000E+03 -0.11142E+06
 0.10307001E+03  0.19375E+05
 0.10312000E+03  0.12651E+06
 0.10317001E+03  0.21353E+06
 0.10322000E+03  0.29937E+06
 0.10327000E+03  0.39921E+06
 0.10332001E+03  0.50823E+06
 0.10337000E+03  0.59736E+06
 0.10342001E+03  0.63247E+06
 0.10347000E+03  0.60534E+06
 0.10352000E+03  0.52921E+06
 0.10357001E+03  0.42181E+06
 0.10362000E+03  0.30445E+06
 0.10367001E+03  0.18661E+06
 0.10372000E+03  0.65430E+05
 0.10377000E+03 -0.48987E+05
 0.10382001E+03 -0.13199E+06
 0.10387000E+03 -0.16394E+06
 0.10392001E+03 -0.15076E+06
 0.10397000E+03 -0.12771E+06
 0.10402000E+03 -0.13823E+06
 0.10407001E+03 -0.19335E+06
 0.10412000E+03 -0.25812E+06
 0.10417001E+03 -0.28965E+06
 0.10422000E+03 -0.26511E+06
 0.10427000E+03 -0.18845E+06
 0.10432001E+03 -0.84875E+05
 0.10437000E+03  0.24153E+05
 0.10442001E+03  0.12595E+06
 0.10447000E+03  0.20051E+06
 0.10452000E+03  0.22422E+06
 0.10457001E+03  0.18815E+06
 0.10462000E+03  0.11278E+06
 0.10467001E+03  0.39594E+05
 0.10472000E+03  0.30800E+04
 0.10477000E+03  0.12805E+05
 0.10482001E+03  0.55204E+05
 0.10487000E+03  0.11206E+06
 0.10492001E+03  0.16762E+06
 0.10497000E+03  0.20592E+06
 0.10502000E+03  0.21481E+06
 0.10507001E+03  0.18597E+06
 0.10512000E+03  0.11489E+06
 0.10517001E+03  0.57300E+04
 0.10522000E+03 -0.12451E+06
 0.10527000E+03 -0.25567E+06
 0.10532001E+03 -0.37214E+06
 0.10537000E+03 -0.46650E+06
 0.10542001E+03 -0.54401E+06
 0.10547000E+03 -0.61085E+06
 0.10552000E+03 -0.66810E+06
 0.10557001E+03 -0.70729E+06
 0.10562000E+03 -0.71114E+06
 0.10567001E+03 -0.66349E+06
 0.10572000E+03 -0.56036E+06
 0.10577000E+03 -0.42089E+06
 0.10582001E+03 -0.27193E+06
 0.10587000E+03 -0.14321E+06
 0.10592001E+03 -0.56503E+05
 0.10597000E+03 -0.13426E+05
 0.10602000E+03 -0.16436E+05
 0.10607001E+03 -0.62647E+05
 0.10612000E+03 -0.13407E+06
 0.10617001E+03 -0.20471E+06
 0.10622000E+03 -0.25182E+06
 0.10627000E+03 -0.26728E+06
 0.10632001E+03 -0.25570E+06
 0.10637000E+03 -0.23181E+06
 0.10642001E+03 -0.21084E+06
 0.10647000E+03 -0.19904E+06
 0.10652000E+03 -0.19537E+06
 0.10657001E+03 -0.19597E+06
 0.10662000E+03 -0.19701E+06
 0.10667001E+03 -0.19300E+06
 0.10672000E+03 -0.17901E+06
 0.10677000E+03 -0.15931E+06
 0.10682001E+03 -0.14066E+06
 0.10687000E+03 -0.12450E+06
 0.10692001E+03 -0.10500E+06
 0.10697000E+03 -0.62291E+05
 0.10702000E+03  0.19263E+05
 0.10707001E+03  0.12557E+06
 0.10712000E+03  0.22581E+06
 0.10717001E+03  0.29502E+06
 0.10722000E+03  0.32094E+06
 0.10727000E+03  0.31694E+06
 0.10732001E+03  0.31265E+06
 0.10737000E+03  0.32958E+06
 0.10742001E+03  0.37347E+06
 0.10747000E+03  0.43290E+06
 0.10752000E+03  0.49478E+06
 0.10757001E+03  0.54714E+06
 0.10762000E+03  0.57862E+06
 0.10767001E+03  0.58922E+06
 0.10772000E+03  0.58044E+06
 0.10777000E+03  0.55408E+06
 0.10782001E+03  0.51458E+06
 0.10787000E+03  0.45961E+06
 0.10792001E+03  0.37915E+06
 0.10797000E+03  0.26223E+06
 0.10802000E+03  0.11036E+06
 0.10807001E+03 -0.56573E+05
 0.10812000E+03 -0.20446E+06
 0.10817001E+03 -0.30404E+06
 0.10822000E+03 -0.34615E+06
 0.10827000E+03 -0.33873E+06
 0.10832001E+03 -0.30755E+06
 0.10837000E+03 -0.28049E+06
 0.10842001E+03 -0.27030E+06
 0.10847000E+03 -0.27536E+06
 0.10852000E+03 -0.28152E+06
 0.10857001E+03 -0.27156E+06
 0.10862000E+03 -0.23430E+06
 0.10867001E+03 -0.17086E+06
 0.10872000E+03 -0.10295E+06
 0.10877000E+03 -0.62150E+05
 0.10882001E+03 -0.65626E+05
 0.10887000E+03 -0.10504E+06
 0.10892001E+03 -0.15627E+06
 0.10897000E+03 -0.19700E+06
 0.10902000E+03 -0.21238E+06
 0.10907001E+03 -0.20162E+06
 0.10912000E+03 -0.17523E+06
 0.10917001E+03 -0.13756E+06
 0.10922000E+03 -0.82618E+05
 0.10927000E+03 -0.30940E+04
 0.10932001E+03  0.91375E+05
 0.10937000E+03  0.16998E+06
 0.10942001E+03  0.20018E+06
 0.10947000E+03  0.17196E+06
 0.10952000E+03  0.10063E+06
 0.10957001E+03  0.95660E+04
 0.10962000E+03 -0.79483E+05
 0.10967001E+03 -0.15752E+06
 0.10972000E+03 -0.22453E+06
 0.10977000E+03 -0.27494E+06
 0.10982001E+03 -0.31300E+06
 0.10987000E+03 -0.35520E+06
 0.10992001E+03 -0.40927E+06
 0.10997000E+03 -0.47023E+06
 0.11002000E+03 -0.52072E+06
 0.11007001E+03 -0.53755E+06
 0.11012000E+03 -0.50478E+06
 0.11017001E+03 -0.42596E+06
 0.11022000E+03 -0.32075E+06
 0.11027000E+03 -0.20185E+06
 0.11032001E+03 -0.73267E+05
 0.11037000E+03  0.59157E+05
 0.11042001E+03  0.18624E+06
 0.11047000E+03  0.29384E+06
 0.11052000E+03  0.36819E+06
 0.11057001E+03  0.40334E+06
 0.11062000E+03  0.40210E+06
 0.11067001E+03  0.36955E+06
 0.11072000E+03  0.31037E+06
 0.11077000E+03  0.23447E+06
 0.11082001E+03  0.15797E+06
 0.11087000E+03  0.97786E+05
 0.11092001E+03  0.68661E+05
 0.11097000E+03  0.79109E+05
 0.11102000E+03  0.12100E+06
 0.11107001E+03  0.17656E+06
 0.11112000E+03  0.22882E+06
 0.11117001E+03  0.26492E+06
 0.11122000E+03  0.28475E+06
 0.11127000E+03  0.29376E+06
 0.11132001E+03  0.29563E+06
 0.11137000E+03  0.29397E+06
 0.11142001E+03  0.29266E+06
 0.11147000E+03  0.29669E+06
 0.11152000E+03  0.31045E+06
 0.11157001E+03  0.32985E+06
 0.11162000E+03  0.34614E+06
 0.11167001E+03  0.35517E+06
 0.11172000E+03  0.34708E+06
 0.11177000E+03  0.31263E+06
 0.11182001E+03  0.25075E+06
 0.11187000E+03  0.16164E+06
 0.11192001E+03  0.53074E+05
 0.11197000E+03 -0.61820E+05
 0.11202000E+03 -0.16982E+06
 0.11207001E+03 -0.25362E+06
 0.11212000E+03 -0.30929E+06
 0.11217001E+03 -0.35866E+06
 0.11222000E+03 -0.42038E+06
 0.11227000E+03 -0.49728E+06
 0.11232001E+03 -0.58461E+06
 0.11237000E+03 -0.66648E+06
 0.11242001E+03 -0.72990E+06
 0.11247000E+03 -0.78107E+06
 0.11252000E+03 -0.83421E+06
 0.11257001E+03 -0.88949E+06
 0.11262000E+03 -0.93144E+06
 0.11267001E+03 -0.94033E+06
 0.11272000E+03 -0.89984E+06
 0.11277000E+03 -0.81128E+06
 0.11282001E+03 -0.69900E+06
 0.11287000E+03 -0.59626E+06
 0.11292001E+03 -0.52566E+06
 0.11297000E+03 -0.50022E+06
 0.11302000E+03 -0.52735E+06
 0.11307001E+03 -0.60014E+06
 0.11312000E+03 -0.69799E+06
 0.11317001E+03 -0.78775E+06
 0.11322000E+03 -0.83693E+06
 0.11327000E+03 -0.82830E+06
 0.11332001E+03 -0.76089E+06
 0.11337000E+03 -0.65484E+06
 0.11342001E+03 -0.53820E+06
 0.11347000E+03 -0.42910E+06
 0.11352000E+03 -0.33920E+06
 0.11357001E+03 -0.27139E+06
 0.11362000E+03 -0.21429E+06
 0.11367001E+03 -0.15127E+06
 0.11372000E+03 -0.68731E+05
 0.11377000E+03  0.32531E+05
 0.11382001E+03  0.13202E+06
 0.11387000E+03  0.20647E+06
 0.11392001E+03  0.24082E+06
 0.11397000E+03  0.23544E+06
 0.11402000E+03  0.20966E+06
 0.11407001E+03  0.18672E+06
 0.11412000E+03  0.17976E+06
 0.11417001E+03  0.18824E+06
 0.11422000E+03  0.20168E+06
 0.11427000E+03  0.20742E+06
 0.11432001E+03  0.19768E+06
 0.11437000E+03  0.17037E+06
 0.11442001E+03  0.13269E+06
 0.11447000E+03  0.10294E+06
 0.11452000E+03  0.96258E+05
 0.11457001E+03  0.11438E+06
 0.11462000E+03  0.15130E+06
 0.11467001E+03  0.20253E+06
 0.11472000E+03  0.26358E+06
 0.11477000E+03  0.32196E+06
 0.11482001E+03  0.36066E+06
 0.11487000E+03  0.37529E+06
 0.11492001E+03  0.37543E+06
 0.11497000E+03  0.37273E+06
 0.11502000E+03  0.37806E+06
 0.11507001E+03  0.39005E+06
 0.11512000E+03  0.39293E+06
 0.11517001E+03  0.37044E+06
 0.11522000E+03  0.31195E+06
 0.11527000E+03  0.21510E+06
 0.11532001E+03  0.93739E+05
 0.11537000E+03 -0.18562E+05
 0.11542001E+03 -0.87195E+05
 0.11547000E+03 -0.96702E+05
 0.11552000E+03 -0.59633E+05
 0.11557001E+03 -0.13350E+05
 0.11562000E+03  0.44500E+04
 0.11567001E+03 -0.23001E+05
 0.11572000E+03 -0.92706E+05
 0.11577000E+03 -0.18719E+06
 0.11582001E+03 -0.27547E+06
 0.11587000E+03 -0.32755E+06
 0.11592001E+03 -0.32789E+06
 0.11597000E+03 -0.28015E+06
 0.11602000E+03 -0.21445E+06
 0.11607001E+03 -0.17302E+06
 0.11612000E+03 -0.17673E+06
 0.11617001E+03 -0.20757E+06
 0.11622000E+03 -0.22334E+06
 0.11627000E+03 -0.18804E+06
 0.11632001E+03 -0.94681E+05
 0.11637000E+03  0.34900E+05
 0.11642001E+03  0.17365E+06
 0.11647000E+03  0.30308E+06
 0.11652000E+03  0.41069E+06
 0.11657001E+03  0.49039E+06
 0.11662000E+03  0.53622E+06
 0.11667001E+03  0.54341E+06
 0.11672000E+03  0.51841E+06
 0.11677000E+03  0.47722E+06
 0.11682001E+03  0.43792E+06
 0.11687000E+03  0.41417E+06
 0.11692001E+03  0.41227E+06
 0.11697000E+03  0.42310E+06
 0.11702000E+03  0.43237E+06
 0.11707001E+03  0.43610E+06
 0.11712000E+03  0.43284E+06
 0.11717001E+03  0.42464E+06
 0.11722000E+03  0.41724E+06
 0.11727000E+03  0.41339E+06
 0.11732001E+03  0.41154E+06
 0.11737000E+03  0.40664E+06
 0.11742001E+03  0.39560E+06
 0.11747000E+03  0.37838E+06
 0.11752000E+03  0.35068E+06
 0.11757001E+03  0.30510E+06
 0.11762000E+03  0.24072E+06
 0.11767001E+03  0.16580E+06
 0.11772000E+03  0.96888E+05
 0.11777000E+03  0.51877E+05
 0.11782001E+03  0.37253E+05
 0.11787000E+03  0.48641E+05
 0.11792001E+03  0.80261E+05
 0.11797000E+03  0.12408E+06
 0.11802000E+03  0.16809E+06
 0.11807001E+03  0.19898E+06
 0.11812000E+03  0.20513E+06
 0.11817001E+03  0.18184E+06
 0.11822000E+03  0.13444E+06
 0.11827000E+03  0.75868E+05
 0.11832001E+03  0.22473E+05
 0.11837000E+03 -0.10220E+05
 0.11842001E+03 -0.11644E+05
 0.11847000E+03  0.18453E+05
 0.11852000E+03  0.66274E+05
 0.11857001E+03  0.11416E+06
 0.11862000E+03  0.14948E+06
 0.11867001E+03  0.16717E+06
 0.11872000E+03  0.17274E+06
 0.11877000E+03  0.17509E+06
 0.11882001E+03  0.18273E+06
 0.11887000E+03  0.19828E+06
 0.11892001E+03  0.21420E+06
 0.11897000E+03  0.21787E+06
 0.11902000E+03  0.19428E+06
 0.11907001E+03  0.14266E+06
 0.11912000E+03  0.86440E+05
 0.11917001E+03  0.52218E+05
 0.11922000E+03  0.49394E+05
 0.11927000E+03  0.68410E+05
 0.11932001E+03  0.92235E+05
 0.11937000E+03  0.10565E+06
 0.11942001E+03  0.96649E+05
 0.11947000E+03  0.64414E+05
 0.11952000E+03  0.18850E+05
 0.11957001E+03 -0.29584E+05
 0.11962000E+03 -0.70252E+05
 0.11967001E+03 -0.97028E+05
 0.11972000E+03 -0.11486E+06
 0.11977000E+03 -0.13009E+06
 0.11982001E+03 -0.14582E+06
 0.11987000E+03 -0.16809E+06
 0.11992001E+03 -0.19960E+06
 0.11997000E+03 -0.23636E+06
 0.12002000E+03 -0.26994E+06
 0.12007001E+03 -0.28917E+06
 0.12012000E+03 -0.29253E+06
 0.12017001E+03 -0.28604E+06
 0.12022000E+03 -0.26616E+06
 0.12027000E+03 -0.21810E+06
 0.12032001E+03 -0.13219E+06
 0.12037000E+03 -0.12461E+05
 0.12042001E+03  0.12504E+06
 0.12047000E+03  0.25172E+06
 0.12052000E+03  0.34270E+06
 0.12057001E+03  0.38908E+06
 0.12062000E+03  0.39272E+06
 0.12067001E+03  0.36511E+06
 0.12072000E+03  0.31930E+06
 0.12077000E+03  0.26202E+06
 0.12082001E+03  0.20010E+06
 0.12087000E+03  0.14139E+06
 0.12092001E+03  0.92320E+05
 0.12097000E+03  0.57279E+05
 0.12102000E+03  0.32888E+05
 0.12107001E+03  0.12377E+05
 0.12112000E+03 -0.79840E+04
 0.12117001E+03 -0.32086E+05
 0.12122000E+03 -0.68023E+05
 0.12127000E+03 -0.12513E+06
 0.12132001E+03 -0.20567E+06
 0.12137000E+03 -0.30700E+06
 0.12142001E+03 -0.42077E+06
 0.12147000E+03 -0.53161E+06
 0.12152000E+03 -0.62576E+06
 0.12157001E+03 -0.69338E+06
 0.12162000E+03 -0.73085E+06
 0.12167001E+03 -0.74024E+06
 0.12172000E+03 -0.72872E+06
 0.12177000E+03 -0.70550E+06
 0.12182001E+03 -0.67884E+06
 0.12187000E+03 -0.65686E+06
 0.12192001E+03 -0.64057E+06
 0.12197000E+03 -0.62650E+06
 0.12202000E+03 -0.60910E+06
 0.12207001E+03 -0.58190E+06
 0.12212000E+03 -0.54497E+06
 0.12217001E+03 -0.50346E+06
 0.12222000E+03 -0.46345E+06
 0.12227000E+03 -0.42955E+06
 0.12232001E+03 -0.40487E+06
 0.12237000E+03 -0.38937E+06
 0.12242001E+03 -0.37836E+06
 0.12247000E+03 -0.36522E+06
 0.12252000E+03 -0.34403E+06
 0.12257001E+03 -0.30962E+06
 0.12262000E+03 -0.25884E+06
 0.12267001E+03 -0.19434E+06
 0.12272000E+03 -0.12409E+06
 0.12277000E+03 -0.61034E+05
 0.12282001E+03 -0.17799E+05
 0.12287000E+03  0.16200E+04
 0.12292001E+03  0.34540E+04
 0.12297000E+03  0.49010E+04
 0.12302000E+03  0.27604E+05
 0.12307001E+03  0.83489E+05
 0.12312000E+03  0.16199E+06
 0.12317001E+03  0.23526E+06
 0.12322000E+03  0.28084E+06
 0.12327000E+03  0.29306E+06
 0.12332001E+03  0.28546E+06
 0.12337000E+03  0.27998E+06
 0.12342001E+03  0.28750E+06
 0.12347000E+03  0.30708E+06
 0.12352000E+03  0.33324E+06
 0.12357001E+03  0.36376E+06
 0.12362000E+03  0.39991E+06
 0.12367001E+03  0.43737E+06
 0.12372000E+03  0.46920E+06
 0.12377000E+03  0.49086E+06
 0.12382001E+03  0.49691E+06
 0.12387000E+03  0.47901E+06
 0.12392001E+03  0.43311E+06
 0.12397000E+03  0.36967E+06
 0.12402000E+03  0.30721E+06
 0.12407001E+03  0.26362E+06
 0.12412000E+03  0.25336E+06
 0.12417001E+03  0.27278E+06
 0.12422001E+03  0.29735E+06
 0.12427001E+03  0.30233E+06
 0.12432000E+03  0.27799E+06
 0.12437000E+03  0.23254E+06
 0.12442001E+03  0.19053E+06
 0.12447001E+03  0.17707E+06
 0.12452001E+03  0.19635E+06
 0.12457000E+03  0.23524E+06
 0.12462000E+03  0.27095E+06
 0.12467001E+03  0.27708E+06
 0.12472001E+03  0.24248E+06
 0.12477001E+03  0.17694E+06
 0.12482000E+03  0.10410E+06
 0.12487000E+03  0.50391E+05
 0.12492001E+03  0.28951E+05
 0.12497001E+03  0.27856E+05
 0.12502001E+03  0.24245E+05
 0.12507000E+03  0.10780E+05
 0.12512000E+03 -0.50190E+04
 0.12517001E+03 -0.12535E+05
 0.12522001E+03 -0.74130E+04
 0.12527001E+03  0.46290E+04
 0.12532000E+03  0.81440E+04
 0.12537000E+03 -0.16434E+05
 0.12542001E+03 -0.77373E+05
 0.12547001E+03 -0.16734E+06
 0.12552001E+03 -0.26618E+06
 0.12557000E+03 -0.35221E+06
 0.12562000E+03 -0.41992E+06
 0.12567001E+03 -0.47645E+06
 0.12572001E+03 -0.52692E+06
 0.12577001E+03 -0.57031E+06
 0.12582000E+03 -0.59654E+06
 0.12587000E+03 -0.59164E+06
 0.12592001E+03 -0.55402E+06
 0.12597001E+03 -0.49366E+06
 0.12602001E+03 -0.42467E+06
 0.12607000E+03 -0.36261E+06
 0.12612000E+03 -0.31830E+06
 0.12617001E+03 -0.29218E+06
 0.12622001E+03 -0.27825E+06
 0.12627001E+03 -0.26998E+06
 0.12632000E+03 -0.25794E+06
 0.12637000E+03 -0.23616E+06
 0.12642001E+03 -0.20580E+06
 0.12647001E+03 -0.16682E+06
 0.12652001E+03 -0.11826E+06
 0.12657000E+03 -0.63655E+05
 0.12662000E+03 -0.14456E+05
 0.12667001E+03  0.13203E+05
 0.12672001E+03  0.10768E+05
 0.12677001E+03 -0.21021E+05
 0.12682000E+03 -0.75363E+05
 0.12687000E+03 -0.14009E+06
 0.12692001E+03 -0.19959E+06
 0.12697001E+03 -0.23957E+06
 0.12702001E+03 -0.25744E+06
 0.12707000E+03 -0.26009E+06
 0.12712000E+03 -0.25466E+06
 0.12717001E+03 -0.24219E+06
 0.12722001E+03 -0.21656E+06
 0.12727001E+03 -0.17071E+06
 0.12732000E+03 -0.10344E+06
 0.12737000E+03 -0.22903E+05
 0.12742001E+03  0.61616E+05
 0.12747001E+03  0.14055E+06
 0.12752001E+03  0.19879E+06
 0.12757000E+03  0.22383E+06
 0.12762000E+03  0.21344E+06
 0.12767001E+03  0.17623E+06
 0.12772001E+03  0.13087E+06
 0.12777001E+03  0.10061E+06
 0.12782000E+03  0.99854E+05
 0.12787000E+03  0.12621E+06
 0.12792001E+03  0.16805E+06
 0.12797001E+03  0.21468E+06
 0.12802000E+03  0.25891E+06
 0.12806999E+03  0.29767E+06
 0.12812000E+03  0.33588E+06
 0.12817000E+03  0.37966E+06
 0.12822000E+03  0.43058E+06
 0.12827000E+03  0.49320E+06
 0.12831999E+03  0.57000E+06
 0.12837000E+03  0.65349E+06
 0.12842000E+03  0.72868E+06
 0.12847000E+03  0.77444E+06
 0.12852000E+03  0.77277E+06
 0.12856999E+03  0.71675E+06
 0.12862000E+03  0.61059E+06
 0.12867000E+03  0.47306E+06
 0.12872000E+03  0.32982E+06
 0.12877000E+03  0.20049E+06
 0.12881999E+03  0.96538E+05
 0.12887000E+03  0.22470E+05
 0.12892000E+03 -0.25279E+05
 0.12897000E+03 -0.61351E+05
 0.12902000E+03 -0.10529E+06
 0.12906999E+03 -0.16964E+06
 0.12912000E+03 -0.25105E+06
 0.12917000E+03 -0.32928E+06
 0.12922000E+03 -0.38134E+06
 0.12927000E+03 -0.39676E+06
 0.12931999E+03 -0.38234E+06
 0.12937000E+03 -0.35597E+06
 0.12942000E+03 -0.33149E+06
 0.12947000E+03 -0.31251E+06
 0.12952000E+03 -0.29948E+06
 0.12956999E+03 -0.29087E+06
 0.12962000E+03 -0.28321E+06
 0.12967000E+03 -0.27304E+06
 0.12972000E+03 -0.25784E+06
 0.12977000E+03 -0.24052E+06
 0.12981999E+03 -0.22861E+06
 0.12987000E+03 -0.22829E+06
 0.12992000E+03 -0.23881E+06
 0.12997000E+03 -0.25331E+06
 0.13002000E+03 -0.26045E+06
 0.13006999E+03 -0.24936E+06
 0.13012000E+03 -0.21830E+06
 0.13017000E+03 -0.16850E+06
 0.13022000E+03 -0.99361E+05
 0.13027000E+03 -0.17523E+05
 0.13031999E+03  0.57054E+05
 0.13037000E+03  0.10346E+06
 0.13042000E+03  0.11391E+06
 0.13047000E+03  0.92440E+05
 0.13052000E+03  0.53267E+05
 0.13056999E+03  0.13003E+05
 0.13062000E+03 -0.15906E+05
 0.13067000E+03 -0.20482E+05
 0.13072000E+03  0.66150E+04
 0.13077000E+03  0.60584E+05
 0.13081999E+03  0.12926E+06
 0.13087000E+03  0.19837E+06
 0.13092000E+03  0.25884E+06
 0.13097000E+03  0.30684E+06
 0.13102000E+03  0.33845E+06
 0.13106999E+03  0.35006E+06
 0.13112000E+03  0.33890E+06
 0.13117000E+03  0.30922E+06
 0.13122000E+03  0.27442E+06
 0.13127000E+03  0.24700E+06
 0.13131999E+03  0.22981E+06
 0.13137000E+03  0.21323E+06
 0.13142000E+03  0.18706E+06
 0.13147000E+03  0.14926E+06
 0.13152000E+03  0.10346E+06
 0.13156999E+03  0.56675E+05
 0.13162000E+03  0.13303E+05
 0.13167000E+03 -0.20665E+05
 0.13172000E+03 -0.37555E+05
 0.13177000E+03 -0.32520E+05
 0.13181999E+03 -0.38190E+04
 0.13187000E+03  0.41979E+05
 0.13192000E+03  0.95976E+05
 0.13197000E+03  0.15017E+06
 0.13202000E+03  0.19633E+06
 0.13206999E+03  0.22744E+06
 0.13212000E+03  0.23429E+06
 0.13217000E+03  0.21036E+06
 0.13222000E+03  0.15745E+06
 0.13227000E+03  0.86484E+05
 0.13231999E+03  0.12274E+05
 0.13237000E+03 -0.53841E+05
 0.13242000E+03 -0.10631E+06
 0.13247000E+03 -0.14854E+06
 0.13252000E+03 -0.18804E+06
 0.13256999E+03 -0.22883E+06
 0.13262000E+03 -0.27188E+06
 0.13267000E+03 -0.31280E+06
 0.13272000E+03 -0.34290E+06
 0.13277000E+03 -0.35677E+06
 0.13281999E+03 -0.35164E+06
 0.13287000E+03 -0.32430E+06
 0.13292000E+03 -0.27471E+06
 0.13297000E+03 -0.20963E+06
 0.13302000E+03 -0.14064E+06
 0.13306999E+03 -0.81564E+05
 0.13312000E+03 -0.45534E+05
 0.13317000E+03 -0.35647E+05
 0.13322000E+03 -0.43778E+05
 0.13327000E+03 -0.59999E+05
 0.13331999E+03 -0.73380E+05
 0.13337000E+03 -0.74968E+05
 0.13342000E+03 -0.65814E+05
 0.13347000E+03 -0.54934E+05
 0.13352000E+03 -0.53402E+05
 0.13356999E+03 -0.66287E+05
 0.13362000E+03 -0.85300E+05
 0.13367000E+03 -0.91946E+05
 0.13372000E+03 -0.67855E+05
 0.13377000E+03 -0.60490E+04
 0.13381999E+03  0.82535E+05
 0.13387000E+03  0.17518E+06
 0.13392000E+03  0.25127E+06
 0.13397000E+03  0.29862E+06
 0.13402000E+03  0.31418E+06
 0.13406999E+03  0.30333E+06
 0.13412000E+03  0.27597E+06
 0.13417000E+03  0.24558E+06
 0.13422000E+03  0.22487E+06
 0.13427000E+03  0.21817E+06
 0.13431999E+03  0.21670E+06
 0.13437000E+03  0.20265E+06
 0.13442000E+03  0.16715E+06
 0.13447000E+03  0.11564E+06
 0.13452000E+03  0.64277E+05
 0.13456999E+03  0.36098E+05
 0.13462000E+03  0.44789E+05
 0.13467000E+03  0.87918E+05
 0.13472000E+03  0.15079E+06
 0.13477000E+03  0.21453E+06
 0.13481999E+03  0.26516E+06
 0.13487000E+03  0.29778E+06
 0.13492000E+03  0.31736E+06
 0.13497000E+03  0.32839E+06
 0.13502000E+03  0.32889E+06
 0.13506999E+03  0.31544E+06
 0.13512000E+03  0.28697E+06
 0.13517000E+03  0.24474E+06
 0.13522000E+03  0.19193E+06
 0.13527000E+03  0.13429E+06
 0.13531999E+03  0.74564E+05
 0.13537000E+03  0.10249E+05
 0.13542000E+03 -0.61085E+05
 0.13547000E+03 -0.13752E+06
 0.13552000E+03 -0.21065E+06
 0.13556999E+03 -0.27169E+06
 0.13562000E+03 -0.31814E+06
 0.13567000E+03 -0.35210E+06
 0.13572000E+03 -0.37785E+06
 0.13577000E+03 -0.39730E+06
 0.13581999E+03 -0.40750E+06
 0.13587000E+03 -0.40451E+06
 0.13592000E+03 -0.38240E+06
 0.13597000E+03 -0.33579E+06
 0.13602000E+03 -0.26776E+06
 0.13606999E+03 -0.18861E+06
 0.13612000E+03 -0.11343E+06
 0.13617000E+03 -0.57699E+05
 0.13622000E+03 -0.31798E+05
 0.13627000E+03 -0.40089E+05
 0.13631999E+03 -0.79833E+05
 0.13637000E+03 -0.14039E+06
 0.13642000E+03 -0.20332E+06
 0.13647000E+03 -0.25042E+06
 0.13652000E+03 -0.27306E+06
 0.13656999E+03 -0.27258E+06
 0.13662000E+03 -0.25971E+06
 0.13667000E+03 -0.24870E+06
 0.13672000E+03 -0.24965E+06
 0.13677000E+03 -0.26825E+06
 0.13681999E+03 -0.30084E+06
 0.13687000E+03 -0.33541E+06
 0.13692000E+03 -0.36223E+06
 0.13697000E+03 -0.37707E+06
 0.13702000E+03 -0.38385E+06
 0.13706999E+03 -0.39437E+06
 0.13712000E+03 -0.41924E+06
 0.13717000E+03 -0.45867E+06
 0.13722000E+03 -0.50284E+06
 0.13727000E+03 -0.53729E+06
 0.13731999E+03 -0.55052E+06
 0.13737000E+03 -0.54129E+06
 0.13742000E+03 -0.51250E+06
 0.13747000E+03 -0.46424E+06
 0.13752000E+03 -0.39565E+06
 0.13756999E+03 -0.30857E+06
 0.13762000E+03 -0.20709E+06
 0.13767000E+03 -0.98451E+05
 0.13772000E+03  0.71290E+04
 0.13777000E+03  0.10277E+06
 0.13781999E+03  0.18682E+06
 0.13787000E+03  0.26164E+06
 0.13792000E+03  0.32767E+06
 0.13797000E+03  0.38128E+06
 0.13802000E+03  0.41922E+06
 0.13806999E+03  0.44067E+06
 0.13812000E+03  0.45153E+06
 0.13817000E+03  0.46128E+06
 0.13822000E+03  0.47596E+06
 0.13827000E+03  0.49634E+06
 0.13831999E+03  0.51780E+06
 0.13837000E+03  0.53405E+06
 0.13842000E+03  0.53740E+06
 0.13847000E+03  0.52200E+06
 0.13852000E+03  0.48872E+06
 0.13856999E+03  0.44349E+06
 0.13862000E+03  0.39879E+06
 0.13867000E+03  0.36748E+06
 0.13872000E+03  0.35404E+06
 0.13877000E+03  0.35829E+06
 0.13881999E+03  0.37817E+06
 0.13887000E+03  0.40938E+06
 0.13892000E+03  0.44642E+06
 0.13897000E+03  0.48366E+06
 0.13902000E+03  0.51414E+06
 0.13906999E+03  0.52823E+06
 0.13912000E+03  0.51879E+06
 0.13917000E+03  0.48518E+06
 0.13922000E+03  0.43245E+06
 0.13927000E+03  0.37033E+06
 0.13931999E+03  0.31176E+06
 0.13937000E+03  0.26689E+06
 0.13942000E+03  0.23659E+06
 0.13947000E+03  0.21631E+06
 0.13952000E+03  0.20184E+06
 0.13956999E+03  0.18874E+06
 0.13962000E+03  0.17082E+06
 0.13967000E+03  0.14483E+06
 0.13972000E+03  0.11315E+06
 0.13977000E+03  0.76179E+05
 0.13981999E+03  0.32339E+05
 0.13987000E+03 -0.17132E+05
 0.13992000E+03 -0.69607E+05
 0.13997000E+03 -0.12038E+06
 0.14002000E+03 -0.16358E+06
 0.14006999E+03 -0.19468E+06
 0.14012000E+03 -0.20998E+06
 0.14017000E+03 -0.20940E+06
 0.14022000E+03 -0.20116E+06
 0.14027000E+03 -0.19708E+06
 0.14031999E+03 -0.20479E+06
 0.14037000E+03 -0.22592E+06
 0.14042000E+03 -0.25793E+06
 0.14047000E+03 -0.29485E+06
 0.14052000E+03 -0.32855E+06
 0.14056999E+03 -0.35270E+06
 0.14062000E+03 -0.36168E+06
 0.14067000E+03 -0.35194E+06
 0.14072000E+03 -0.32527E+06
 0.14077000E+03 -0.28520E+06
 0.14081999E+03 -0.23725E+06
 0.14087000E+03 -0.18903E+06
 0.14092000E+03 -0.14609E+06
 0.14097000E+03 -0.11034E+06
 0.14102000E+03 -0.78474E+05
 0.14106999E+03 -0.44008E+05
 0.14112000E+03 -0.45860E+04
 0.14117000E+03  0.32787E+05
 0.14122000E+03  0.52226E+05
 0.14127000E+03  0.38369E+05
 0.14131999E+03 -0.11301E+05
 0.14137000E+03 -0.84287E+05
 0.14142000E+03 -0.15986E+06
 0.14147000E+03 -0.21812E+06
 0.14152000E+03 -0.24821E+06
 0.14156999E+03 -0.24876E+06
 0.14162000E+03 -0.22557E+06
 0.14167000E+03 -0.18954E+06
 0.14172000E+03 -0.15231E+06
 0.14177000E+03 -0.12351E+06
 0.14181999E+03 -0.10799E+06
 0.14187000E+03 -0.10713E+06
 0.14192000E+03 -0.12064E+06
 0.14197000E+03 -0.14370E+06
 0.14202000E+03 -0.16541E+06
 0.14206999E+03 -0.17222E+06
 0.14212000E+03 -0.15576E+06
 0.14217000E+03 -0.11613E+06
 0.14222000E+03 -0.58700E+05
 0.14227000E+03  0.11230E+05
 0.14231999E+03  0.88949E+05
 0.14237000E+03  0.16680E+06
 0.14242000E+03  0.23480E+06
 0.14247000E+03  0.28305E+06
 0.14252000E+03  0.30542E+06
 0.14256999E+03  0.30513E+06
 0.14262000E+03  0.29354E+06
 0.14267000E+03  0.28365E+06
 0.14272000E+03  0.28586E+06
 0.14277000E+03  0.30325E+06
 0.14281999E+03  0.32976E+06
 0.14287000E+03  0.35215E+06
 0.14292000E+03  0.35431E+06
 0.14297000E+03  0.32769E+06
 0.14302000E+03  0.27638E+06
 0.14306999E+03  0.21262E+06
 0.14312000E+03  0.14900E+06
 0.14317000E+03  0.92370E+05
 0.14322000E+03  0.45159E+05
 0.14327000E+03  0.95270E+04
 0.14331999E+03 -0.10307E+05
 0.14337000E+03 -0.11741E+05
 0.14342000E+03  0.15260E+04
 0.14347000E+03  0.19801E+05
 0.14352000E+03  0.30956E+05
 0.14356999E+03  0.26008E+05
 0.14362000E+03  0.34670E+04
 0.14367000E+03 -0.28792E+05
 0.14372000E+03 -0.58380E+05
 0.14377000E+03 -0.74707E+05
 0.14381999E+03 -0.71521E+05
 0.14387000E+03 -0.49769E+05
 0.14392000E+03 -0.16888E+05
 0.14397000E+03  0.15802E+05
 0.14402000E+03  0.37910E+05
 0.14406999E+03  0.44087E+05
 0.14412000E+03  0.34996E+05
 0.14417000E+03  0.19685E+05
 0.14422000E+03  0.91960E+04
 0.14427000E+03  0.72560E+04
 0.14431999E+03  0.92950E+04
 0.14437000E+03  0.80390E+04
 0.14442000E+03  0.13340E+04
 0.14447000E+03 -0.82480E+04
 0.14452000E+03 -0.18722E+05
 0.14456999E+03 -0.30628E+05
 0.14462000E+03 -0.46268E+05
 0.14467000E+03 -0.66817E+05
 0.14472000E+03 -0.89997E+05
 0.14477000E+03 -0.11198E+06
 0.14481999E+03 -0.12829E+06
 0.14487000E+03 -0.13551E+06
 0.14492000E+03 -0.13338E+06
 0.14497000E+03 -0.12169E+06
 0.14502000E+03 -0.10060E+06
 0.14506999E+03 -0.69797E+05
 0.14512000E+03 -0.26885E+05
 0.14517000E+03  0.28923E+05
 0.14522000E+03  0.94058E+05
 0.14527000E+03  0.15980E+06
 0.14531999E+03  0.21726E+06
 0.14537000E+03  0.26299E+06
 0.14542000E+03  0.30017E+06
 0.14547000E+03  0.33614E+06
 0.14552000E+03  0.37347E+06
 0.14556999E+03  0.40763E+06
 0.14562000E+03  0.43135E+06
 0.14567000E+03  0.43805E+06
 0.14572000E+03  0.42754E+06
 0.14577000E+03  0.40605E+06
 0.14581999E+03  0.38002E+06
 0.14587000E+03  0.35139E+06
 0.14592000E+03  0.31705E+06
 0.14597000E+03  0.27133E+06
 0.14602000E+03  0.21125E+06
 0.14606999E+03  0.14160E+06
 0.14612000E+03  0.71179E+05
 0.14617000E+03  0.88810E+04
 0.14622000E+03 -0.40784E+05
 0.14627000E+03 -0.81309E+05
 0.14631999E+03 -0.11688E+06
 0.14637000E+03 -0.14923E+06
 0.14642000E+03 -0.17886E+06
 0.14647000E+03 -0.20450E+06
 0.14652000E+03 -0.22502E+06
 0.14656999E+03 -0.24078E+06
 0.14662000E+03 -0.25469E+06
 0.14667000E+03 -0.26977E+06
 0.14672000E+03 -0.28716E+06
 0.14677000E+03 -0.30594E+06
 0.14681999E+03 -0.32177E+06
 0.14687000E+03 -0.33148E+06
 0.14692000E+03 -0.33311E+06
 0.14697000E+03 -0.32385E+06
 0.14702000E+03 -0.30296E+06
 0.14706999E+03 -0.27040E+06
 0.14712000E+03 -0.22753E+06
 0.14717000E+03 -0.17832E+06
 0.14722000E+03 -0.12818E+06
 0.14727000E+03 -0.83368E+05
 0.14731999E+03 -0.47142E+05
 0.14737000E+03 -0.19163E+05
 0.14742000E+03  0.13600E+04
 0.14747000E+03  0.14382E+05
 0.14752000E+03  0.19243E+05
 0.14756999E+03  0.13854E+05
 0.14762000E+03 -0.58310E+04
 0.14767000E+03 -0.44283E+05
 0.14772000E+03 -0.10314E+06
 0.14777000E+03 -0.17945E+06
 0.14781999E+03 -0.26588E+06
 0.14787000E+03 -0.35120E+06
 0.14792000E+03 -0.42410E+06
 0.14797000E+03 -0.47740E+06
 0.14802000E+03 -0.50939E+06
 0.14806999E+03 -0.52310E+06
 0.14812000E+03 -0.52233E+06
 0.14817000E+03 -0.50760E+06
 0.14822000E+03 -0.47640E+06
 0.14827000E+03 -0.42616E+06
 0.14831999E+03 -0.35964E+06
 0.14837000E+03 -0.28782E+06
 0.14842000E+03 -0.22401E+06
 0.14847000E+03 -0.17552E+06
 0.14852000E+03 -0.14194E+06
 0.14856999E+03 -0.11686E+06
 0.14862000E+03 -0.89439E+05
 0.14867000E+03 -0.50193E+05
 0.14872000E+03  0.46890E+04
 0.14877000E+03  0.72150E+05
 0.14881999E+03  0.14132E+06
 0.14887000E+03  0.19951E+06
 0.14892000E+03  0.24080E+06
 0.14897000E+03  0.26848E+06
 0.14902000E+03  0.29117E+06
 0.14906999E+03  0.31709E+06
