-0.38800001E+01  0.80890E+05
-0.38300002E+01  0.58592E+05
-0.37800002E+01  0.36941E+05
-0.37300000E+01  0.16813E+05
-0.36800001E+01 -0.20170E+04
-0.36300001E+01 -0.20161E+05
-0.35800002E+01 -0.37669E+05
-0.35300002E+01 -0.53448E+05
-0.34800000E+01 -0.66179E+05
-0.34300001E+01 -0.74771E+05
-0.33800001E+01 -0.78273E+05
-0.33300002E+01 -0.76865E+05
-0.32800002E+01 -0.72068E+05
-0.32300000E+01 -0.65550E+05
-0.31800001E+01 -0.59033E+05
-0.31300001E+01 -0.54732E+05
-0.30800002E+01 -0.54000E+05
-0.30300002E+01 -0.56289E+05
-0.29800000E+01 -0.59787E+05
-0.29300001E+01 -0.62048E+05
-0.28800001E+01 -0.60627E+05
-0.28299999E+01 -0.54324E+05
-0.27800002E+01 -0.43716E+05
-0.27300000E+01 -0.30748E+05
-0.26800001E+01 -0.17669E+05
-0.26300001E+01 -0.64800E+04
-0.25799999E+01  0.10240E+04
-0.25300002E+01  0.42180E+04
-0.24800000E+01  0.36710E+04
-0.24300001E+01  0.38300E+03
-0.23800001E+01 -0.41350E+04
-0.23299999E+01 -0.79030E+04
-0.22800002E+01 -0.90810E+04
-0.22300000E+01 -0.74480E+04
-0.21800001E+01 -0.47130E+04
-0.21300001E+01 -0.37010E+04
-0.20799999E+01 -0.66700E+04
-0.20300002E+01 -0.13435E+05
-0.19800001E+01 -0.21664E+05
-0.19300001E+01 -0.27849E+05
-0.18800001E+01 -0.29642E+05
-0.18300002E+01 -0.27307E+05
-0.17800000E+01 -0.22702E+05
-0.17300000E+01 -0.17865E+05
-0.16800001E+01 -0.14290E+05
-0.16300001E+01 -0.12665E+05
-0.15800002E+01 -0.11782E+05
-0.15300000E+01 -0.94780E+04
-0.14800000E+01 -0.49280E+04
-0.14300001E+01  0.10760E+04
-0.13800001E+01  0.66560E+04
-0.13300002E+01  0.99880E+04
-0.12800000E+01  0.10431E+05
-0.12300000E+01  0.83740E+04
-0.11800001E+01  0.56280E+04
-0.11300001E+01  0.41330E+04
-0.10800002E+01  0.37110E+04
-0.10300000E+01  0.31820E+04
-0.98000002E+00  0.14950E+04
-0.93000007E+00 -0.17660E+04
-0.88000011E+00 -0.52470E+04
-0.83000016E+00 -0.64270E+04
-0.77999997E+00 -0.37010E+04
-0.73000002E+00  0.26440E+04
-0.68000007E+00  0.12042E+05
-0.63000011E+00  0.23967E+05
-0.58000016E+00  0.37316E+05
-0.52999997E+00  0.51407E+05
-0.48000002E+00  0.65589E+05
-0.43000007E+00  0.78861E+05
-0.38000011E+00  0.90403E+05
-0.33000016E+00  0.99318E+05
-0.27999997E+00  0.10401E+06
-0.23000002E+00  0.10286E+06
-0.18000007E+00  0.95586E+05
-0.13000011E+00  0.83219E+05
-0.80000162E-01  0.68372E+05
-0.29999971E-01  0.54160E+05
 0.19999981E-01  0.42166E+05
 0.69999933E-01  0.32752E+05
 0.11999989E+00  0.25284E+05
 0.17000008E+00  0.18354E+05
 0.21999979E+00  0.10928E+05
 0.26999998E+00  0.34890E+04
 0.32000017E+00 -0.23700E+04
 0.36999989E+00 -0.59480E+04
 0.42000008E+00 -0.74270E+04
 0.46999979E+00 -0.75780E+04
 0.51999998E+00 -0.76530E+04
 0.57000017E+00 -0.85460E+04
 0.61999989E+00 -0.10592E+05
 0.67000008E+00 -0.13478E+05
 0.71999979E+00 -0.16720E+05
 0.76999998E+00 -0.19908E+05
 0.82000017E+00 -0.22696E+05
 0.86999989E+00 -0.25152E+05
 0.92000008E+00 -0.27812E+05
 0.96999979E+00 -0.31327E+05
 0.10200000E+01 -0.36003E+05
 0.10700002E+01 -0.41864E+05
 0.11199999E+01 -0.48231E+05
 0.11700001E+01 -0.54083E+05
 0.12199998E+01 -0.59438E+05
 0.12700000E+01 -0.65000E+05
 0.13200002E+01 -0.71522E+05
 0.13699999E+01 -0.79481E+05
 0.14200001E+01 -0.88350E+05
 0.14699998E+01 -0.96567E+05
 0.15200000E+01 -0.10262E+06
 0.15700002E+01 -0.10585E+06
 0.16199999E+01 -0.10628E+06
 0.16700001E+01 -0.10425E+06
 0.17199998E+01 -0.99929E+05
 0.17700000E+01 -0.93709E+05
 0.18200002E+01 -0.85567E+05
 0.18699999E+01 -0.74154E+05
 0.19200001E+01 -0.58458E+05
 0.19699998E+01 -0.38999E+05
 0.20200000E+01 -0.16970E+05
 0.20700002E+01  0.70900E+04
 0.21199999E+01  0.32323E+05
 0.21700001E+01  0.57243E+05
 0.22199998E+01  0.81076E+05
 0.22700000E+01  0.10323E+06
 0.23200002E+01  0.12285E+06
 0.23699999E+01  0.13891E+06
 0.24200001E+01  0.15109E+06
 0.24699998E+01  0.15991E+06
 0.25200000E+01  0.16467E+06
 0.25700002E+01  0.16382E+06
 0.26199999E+01  0.15698E+06
 0.26700001E+01  0.14528E+06
 0.27199998E+01  0.13085E+06
 0.27700000E+01  0.11562E+06
 0.28200002E+01  0.99868E+05
 0.28699999E+01  0.82352E+05
 0.29200001E+01  0.62505E+05
 0.29699998E+01  0.41621E+05
 0.30200000E+01  0.22306E+05
 0.30700002E+01  0.71430E+04
 0.31199999E+01 -0.30530E+04
 0.31700001E+01 -0.95230E+04
 0.32199998E+01 -0.14181E+05
 0.32700000E+01 -0.18493E+05
 0.33200002E+01 -0.22854E+05
 0.33699999E+01 -0.26622E+05
 0.34200001E+01 -0.29097E+05
 0.34699998E+01 -0.30653E+05
 0.35200000E+01 -0.32296E+05
 0.35700002E+01 -0.34287E+05
 0.36199999E+01 -0.35659E+05
 0.36700001E+01 -0.34811E+05
 0.37199998E+01 -0.31272E+05
 0.37700000E+01 -0.26033E+05
 0.38200002E+01 -0.20401E+05
 0.38699999E+01 -0.15608E+05
 0.39200001E+01 -0.12411E+05
 0.39699998E+01 -0.10881E+05
 0.40200000E+01 -0.10651E+05
 0.40700002E+01 -0.11720E+05
 0.41199999E+01 -0.14622E+05
 0.41700001E+01 -0.20151E+05
 0.42200003E+01 -0.28922E+05
 0.42700005E+01 -0.40298E+05
 0.43199997E+01 -0.52949E+05
 0.43699999E+01 -0.65901E+05
 0.44200001E+01 -0.78488E+05
 0.44700003E+01 -0.89703E+05
 0.45200005E+01 -0.98417E+05
 0.45699997E+01 -0.10384E+06
 0.46199999E+01 -0.10539E+06
 0.46700001E+01 -0.10354E+06
 0.47200003E+01 -0.99853E+05
 0.47700005E+01 -0.96636E+05
 0.48199997E+01 -0.95528E+05
 0.48699999E+01 -0.95954E+05
 0.49200001E+01 -0.96274E+05
 0.49700003E+01 -0.94294E+05
 0.50200005E+01 -0.87966E+05
 0.50699997E+01 -0.76660E+05
 0.51199999E+01 -0.61030E+05
 0.51700001E+01 -0.42862E+05
 0.52200003E+01 -0.25196E+05
 0.52700005E+01 -0.10881E+05
 0.53199997E+01 -0.83000E+03
 0.53699999E+01  0.57350E+04
 0.54200001E+01  0.10823E+05
 0.54700003E+01  0.16470E+05
 0.55200005E+01  0.23201E+05
 0.55699997E+01  0.30075E+05
 0.56199999E+01  0.35716E+05
 0.56700001E+01  0.39552E+05
 0.57200003E+01  0.41839E+05
 0.57700005E+01  0.43332E+05
 0.58199997E+01  0.45189E+05
 0.58699999E+01  0.48133E+05
 0.59200001E+01  0.51837E+05
 0.59700003E+01  0.55589E+05
 0.60200005E+01  0.59451E+05
 0.60699997E+01  0.63907E+05
 0.61199999E+01  0.68547E+05
 0.61700001E+01  0.72399E+05
 0.62200003E+01  0.75407E+05
 0.62700005E+01  0.78116E+05
 0.63199997E+01  0.80380E+05
 0.63699999E+01  0.81694E+05
 0.64200001E+01  0.81729E+05
 0.64700003E+01  0.80309E+05
 0.65200005E+01  0.77498E+05
 0.65699997E+01  0.73402E+05
 0.66199999E+01  0.67782E+05
 0.66700001E+01  0.60382E+05
 0.67200003E+01  0.51434E+05
 0.67700005E+01  0.41615E+05
 0.68199997E+01  0.31858E+05
 0.68699999E+01  0.22745E+05
 0.69200001E+01  0.14204E+05
 0.69700003E+01  0.61140E+04
 0.70200005E+01 -0.91400E+03
 0.70699997E+01 -0.62540E+04
 0.71199999E+01 -0.10450E+05
 0.71700001E+01 -0.14847E+05
 0.72200003E+01 -0.20527E+05
 0.72700005E+01 -0.27582E+05
 0.73199997E+01 -0.35792E+05
 0.73699999E+01 -0.44903E+05
 0.74200001E+01 -0.53870E+05
 0.74700003E+01 -0.61322E+05
 0.75200005E+01 -0.66330E+05
 0.75699997E+01 -0.68199E+05
 0.76199999E+01 -0.66423E+05
 0.76700001E+01 -0.61416E+05
 0.77200003E+01 -0.54158E+05
 0.77700005E+01 -0.46025E+05
 0.78199997E+01 -0.38937E+05
 0.78699999E+01 -0.34083E+05
 0.79200001E+01 -0.31576E+05
 0.79700003E+01 -0.30799E+05
 0.80200005E+01 -0.30704E+05
 0.80699997E+01 -0.31001E+05
 0.81199999E+01 -0.32471E+05
 0.81700001E+01 -0.35258E+05
 0.82200003E+01 -0.38239E+05
 0.82700005E+01 -0.39747E+05
 0.83199997E+01 -0.38271E+05
 0.83699999E+01 -0.33811E+05
 0.84200001E+01 -0.27963E+05
 0.84700003E+01 -0.22662E+05
 0.85200005E+01 -0.19182E+05
 0.85699997E+01 -0.17136E+05
 0.86199999E+01 -0.14863E+05
 0.86700001E+01 -0.11034E+05
 0.87200003E+01 -0.50650E+04
 0.87700005E+01  0.28440E+04
 0.88199997E+01  0.11917E+05
 0.88699999E+01  0.21110E+05
 0.89200001E+01  0.29187E+05
 0.89700003E+01  0.35026E+05
 0.90200005E+01  0.37754E+05
 0.90699997E+01  0.36943E+05
 0.91199999E+01  0.32688E+05
 0.91700001E+01  0.25862E+05
 0.92200003E+01  0.17869E+05
 0.92700005E+01  0.96070E+04
 0.93199997E+01  0.14450E+04
 0.93699999E+01 -0.60450E+04
 0.94200001E+01 -0.11398E+05
 0.94700003E+01 -0.13162E+05
 0.95200005E+01 -0.11061E+05
 0.95699997E+01 -0.52450E+04
 0.96199999E+01  0.34000E+04
 0.96700001E+01  0.12758E+05
 0.97200003E+01  0.20861E+05
 0.97700005E+01  0.27258E+05
 0.98199997E+01  0.32862E+05
 0.98699999E+01  0.38430E+05
 0.99200001E+01  0.43518E+05
 0.99700003E+01  0.47062E+05
 0.10020000E+02  0.48265E+05
 0.10070000E+02  0.46614E+05
 0.10120000E+02  0.41849E+05
 0.10170000E+02  0.34217E+05
 0.10220000E+02  0.24342E+05
 0.10270000E+02  0.13645E+05
 0.10320000E+02  0.46010E+04
 0.10370000E+02 -0.10100E+04
 0.10420000E+02 -0.31250E+04
 0.10470000E+02 -0.27490E+04
 0.10520000E+02 -0.11830E+04
 0.10570000E+02  0.59400E+03
 0.10620000E+02  0.22750E+04
 0.10670000E+02  0.37640E+04
 0.10720000E+02  0.43850E+04
 0.10770000E+02  0.33370E+04
 0.10820000E+02 -0.42400E+03
 0.10870000E+02 -0.76960E+04
 0.10920000E+02 -0.17637E+05
 0.10970000E+02 -0.28479E+05
 0.11020000E+02 -0.38758E+05
 0.11070000E+02 -0.47752E+05
 0.11120000E+02 -0.54993E+05
 0.11170000E+02 -0.59559E+05
 0.11220000E+02 -0.60736E+05
 0.11270000E+02 -0.58224E+05
 0.11320000E+02 -0.51997E+05
 0.11370000E+02 -0.42822E+05
 0.11420000E+02 -0.31421E+05
 0.11470000E+02 -0.18630E+05
 0.11520000E+02 -0.53050E+04
 0.11570000E+02  0.85940E+04
 0.11620000E+02  0.22764E+05
 0.11670000E+02  0.36281E+05
 0.11720000E+02  0.47492E+05
 0.11770000E+02  0.54252E+05
 0.11820000E+02  0.55421E+05
 0.11870000E+02  0.50860E+05
 0.11920000E+02  0.41604E+05
 0.11970000E+02  0.29693E+05
 0.12020000E+02  0.16933E+05
 0.12070000E+02  0.48030E+04
 0.12120000E+02 -0.51220E+04
 0.12170001E+02 -0.11208E+05
 0.12220000E+02 -0.12605E+05
 0.12270000E+02 -0.10000E+05
 0.12320001E+02 -0.51090E+04
 0.12370000E+02 -0.50000E+02
 0.12420001E+02  0.37460E+04
 0.12470000E+02  0.62040E+04
 0.12520000E+02  0.77790E+04
 0.12570001E+02  0.86550E+04
 0.12620000E+02  0.84940E+04
 0.12670001E+02  0.69110E+04
 0.12720000E+02  0.36770E+04
 0.12770000E+02 -0.10520E+04
 0.12820001E+02 -0.65870E+04
 0.12870000E+02 -0.12352E+05
 0.12920001E+02 -0.17716E+05
 0.12970000E+02 -0.22150E+05
 0.13020000E+02 -0.25854E+05
 0.13070001E+02 -0.29335E+05
 0.13120000E+02 -0.33087E+05
 0.13170001E+02 -0.37264E+05
 0.13220000E+02 -0.41497E+05
 0.13270000E+02 -0.45098E+05
 0.13320001E+02 -0.47562E+05
 0.13370000E+02 -0.49432E+05
 0.13420001E+02 -0.51341E+05
 0.13470000E+02 -0.52914E+05
 0.13520000E+02 -0.53518E+05
 0.13570001E+02 -0.52975E+05
 0.13620000E+02 -0.51431E+05
 0.13670001E+02 -0.48813E+05
 0.13720000E+02 -0.44872E+05
 0.13770000E+02 -0.39514E+05
 0.13820001E+02 -0.32637E+05
 0.13870000E+02 -0.24416E+05
 0.13920001E+02 -0.16115E+05
 0.13970000E+02 -0.93180E+04
 0.14020000E+02 -0.45350E+04
 0.14070001E+02 -0.12770E+04
 0.14120000E+02  0.17760E+04
 0.14170001E+02  0.59490E+04
 0.14220000E+02  0.11494E+05
 0.14270000E+02  0.17894E+05
 0.14320001E+02  0.24314E+05
 0.14370000E+02  0.30029E+05
 0.14420001E+02  0.34530E+05
 0.14470000E+02  0.36925E+05
 0.14520000E+02  0.35839E+05
 0.14570001E+02  0.30962E+05
 0.14620000E+02  0.23831E+05
 0.14670001E+02  0.16805E+05
 0.14720000E+02  0.11795E+05
 0.14770000E+02  0.92610E+04
 0.14820001E+02  0.86180E+04
 0.14870000E+02  0.84610E+04
 0.14920001E+02  0.73680E+04
 0.14970000E+02  0.51550E+04
 0.15020000E+02  0.23920E+04
 0.15070001E+02 -0.22500E+03
 0.15120000E+02 -0.19820E+04
 0.15170001E+02 -0.25190E+04
 0.15220000E+02 -0.23750E+04
 0.15270000E+02 -0.27210E+04
 0.15320001E+02 -0.45860E+04
 0.15370000E+02 -0.81800E+04
 0.15420001E+02 -0.12856E+05
 0.15470000E+02 -0.17283E+05
 0.15520000E+02 -0.20024E+05
 0.15570001E+02 -0.20742E+05
 0.15620000E+02 -0.19979E+05
 0.15670001E+02 -0.18389E+05
 0.15720000E+02 -0.16393E+05
 0.15770000E+02 -0.14120E+05
 0.15820001E+02 -0.11345E+05
 0.15870000E+02 -0.72790E+04
 0.15920001E+02 -0.14370E+04
 0.15970000E+02  0.57680E+04
 0.16020000E+02  0.13405E+05
 0.16070000E+02  0.19952E+05
 0.16119999E+02  0.23638E+05
 0.16170002E+02  0.23553E+05
 0.16220001E+02  0.20293E+05
 0.16270000E+02  0.15626E+05
 0.16320000E+02  0.11454E+05
 0.16369999E+02  0.93700E+04
 0.16420002E+02  0.10008E+05
 0.16470001E+02  0.13070E+05
 0.16520000E+02  0.17781E+05
 0.16570000E+02  0.22895E+05
 0.16619999E+02  0.28006E+05
 0.16670002E+02  0.33460E+05
 0.16720001E+02  0.39274E+05
 0.16770000E+02  0.45069E+05
 0.16820000E+02  0.49931E+05
 0.16869999E+02  0.52587E+05
 0.16920002E+02  0.51921E+05
 0.16970001E+02  0.47667E+05
 0.17020000E+02  0.40533E+05
 0.17070000E+02  0.31779E+05
 0.17119999E+02  0.22915E+05
 0.17170002E+02  0.15502E+05
 0.17220001E+02  0.10443E+05
 0.17270000E+02  0.77760E+04
 0.17320000E+02  0.72710E+04
 0.17369999E+02  0.83710E+04
 0.17420002E+02  0.10833E+05
 0.17470001E+02  0.14863E+05
 0.17520000E+02  0.19873E+05
 0.17570000E+02  0.24402E+05
 0.17619999E+02  0.27363E+05
 0.17670002E+02  0.28949E+05
 0.17720001E+02  0.29851E+05
 0.17770000E+02  0.30914E+05
 0.17820000E+02  0.32771E+05
 0.17869999E+02  0.35081E+05
 0.17920002E+02  0.36994E+05
 0.17970001E+02  0.37945E+05
 0.18020000E+02  0.38643E+05
 0.18070000E+02  0.40395E+05
 0.18119999E+02  0.43622E+05
 0.18170002E+02  0.46994E+05
 0.18220001E+02  0.47694E+05
 0.18270000E+02  0.42254E+05
 0.18320000E+02  0.28057E+05
 0.18369999E+02  0.48460E+04
 0.18420002E+02 -0.25018E+05
 0.18470001E+02 -0.55981E+05
 0.18520000E+02 -0.83861E+05
 0.18570000E+02 -0.10371E+06
 0.18619999E+02 -0.11102E+06
 0.18670002E+02 -0.10352E+06
 0.18720001E+02 -0.82084E+05
 0.18770000E+02 -0.54157E+05
 0.18820000E+02 -0.25839E+05
 0.18869999E+02 -0.69200E+04
 0.18920002E+02  0.53300E+03
 0.18970001E+02  0.69270E+04
 0.19020000E+02  0.12720E+05
 0.19070000E+02  0.56490E+04
 0.19119999E+02 -0.14337E+05
 0.19170002E+02 -0.55182E+05
 0.19220001E+02 -0.13482E+06
 0.19270000E+02 -0.22599E+06
 0.19320000E+02 -0.32717E+06
 0.19369999E+02 -0.42232E+06
 0.19420002E+02 -0.46017E+06
 0.19470001E+02 -0.41502E+06
 0.19520000E+02 -0.26921E+06
 0.19570000E+02 -0.91877E+05
 0.19619999E+02  0.99385E+05
 0.19670002E+02  0.33921E+06
 0.19720001E+02  0.68009E+06
 0.19770000E+02  0.11265E+07
 0.19820000E+02  0.15203E+07
 0.19869999E+02  0.17300E+07
 0.19920002E+02  0.16623E+07
 0.19970001E+02  0.14518E+07
 0.20020000E+02  0.12668E+07
 0.20070000E+02  0.10838E+07
 0.20119999E+02  0.93191E+06
 0.20170002E+02  0.65903E+06
 0.20220001E+02  0.29942E+06
 0.20270000E+02 -0.67607E+05
 0.20320000E+02 -0.59392E+06
 0.20369999E+02 -0.99768E+06
 0.20420002E+02 -0.11591E+07
 0.20470001E+02 -0.96198E+06
 0.20520000E+02 -0.45915E+06
 0.20570000E+02 -0.77837E+05
 0.20619999E+02  0.10613E+06
 0.20670002E+02 -0.76329E+05
 0.20720001E+02 -0.23203E+06
 0.20770000E+02 -0.23503E+06
 0.20820000E+02 -0.24467E+06
 0.20869999E+02 -0.38070E+05
 0.20920002E+02 -0.24721E+05
 0.20970001E+02 -0.30346E+05
 0.21020000E+02 -0.15125E+06
 0.21070000E+02 -0.46874E+06
 0.21119999E+02 -0.45814E+06
 0.21170002E+02 -0.37501E+06
 0.21220001E+02 -0.44843E+05
 0.21270000E+02  0.40235E+06
 0.21320000E+02  0.71602E+06
 0.21369999E+02  0.93616E+06
 0.21420002E+02  0.89569E+06
 0.21470001E+02  0.87613E+06
 0.21520000E+02  0.97677E+06
 0.21570000E+02  0.11746E+07
 0.21619999E+02  0.13862E+07
 0.21670002E+02  0.15318E+07
 0.21720001E+02  0.14839E+07
 0.21770000E+02  0.12091E+07
 0.21820000E+02  0.88192E+06
 0.21869999E+02  0.69233E+06
 0.21920002E+02  0.78485E+06
 0.21970001E+02  0.82109E+06
 0.22020000E+02  0.58710E+06
 0.22070000E+02  0.20010E+06
 0.22119999E+02 -0.26985E+06
 0.22170002E+02 -0.63033E+06
 0.22220001E+02 -0.57525E+06
 0.22270000E+02 -0.45876E+06
 0.22320000E+02 -0.41278E+06
 0.22369999E+02 -0.28248E+06
 0.22420002E+02 -0.59782E+06
 0.22470001E+02 -0.93629E+06
 0.22520000E+02 -0.93206E+06
 0.22570000E+02 -0.83022E+06
 0.22619999E+02 -0.43373E+06
 0.22670002E+02  0.30250E+05
 0.22720001E+02  0.21072E+06
 0.22770000E+02  0.77300E+05
 0.22820000E+02 -0.31943E+06
 0.22869999E+02 -0.51868E+06
 0.22920002E+02  0.14200E+05
 0.22970001E+02  0.10360E+07
 0.23020000E+02  0.19827E+07
 0.23070000E+02  0.24825E+07
 0.23119999E+02  0.22868E+07
 0.23170002E+02  0.19031E+07
 0.23220001E+02  0.16978E+07
 0.23270000E+02  0.14189E+07
 0.23320000E+02  0.12544E+07
 0.23369999E+02  0.99154E+06
 0.23420002E+02  0.51546E+06
 0.23470001E+02 -0.38419E+06
 0.23520000E+02 -0.14057E+07
 0.23570000E+02 -0.15323E+07
 0.23619999E+02 -0.75875E+06
 0.23670002E+02  0.26418E+06
 0.23720001E+02  0.65664E+06
 0.23770000E+02  0.40768E+06
 0.23820000E+02  0.21552E+06
 0.23869999E+02  0.34893E+06
 0.23920002E+02  0.78835E+06
 0.23970001E+02  0.16018E+07
 0.24020000E+02  0.20812E+07
 0.24070000E+02  0.16063E+07
 0.24119999E+02  0.33807E+06
 0.24170002E+02 -0.10430E+07
 0.24220001E+02 -0.15581E+07
 0.24270000E+02 -0.10462E+07
 0.24320000E+02  0.10834E+06
 0.24369999E+02  0.10787E+07
 0.24420002E+02  0.15979E+07
 0.24470001E+02  0.15279E+07
 0.24520000E+02  0.80057E+06
 0.24570000E+02  0.20006E+06
 0.24619999E+02 -0.12333E+06
 0.24670002E+02 -0.44792E+06
 0.24720001E+02 -0.63781E+06
 0.24770000E+02 -0.43010E+06
 0.24820000E+02 -0.64358E+05
 0.24869999E+02  0.30322E+06
 0.24920002E+02  0.24791E+06
 0.24970001E+02 -0.41838E+06
 0.25020000E+02 -0.86606E+06
 0.25070000E+02 -0.10391E+07
 0.25119999E+02 -0.12151E+07
 0.25170002E+02 -0.13901E+07
 0.25220001E+02 -0.13535E+07
 0.25270000E+02 -0.86824E+06
 0.25320000E+02 -0.23480E+06
 0.25369999E+02  0.36286E+06
 0.25420002E+02  0.12157E+07
 0.25470001E+02  0.19085E+07
 0.25520000E+02  0.20779E+07
 0.25570000E+02  0.19608E+07
 0.25619999E+02  0.16297E+07
 0.25670002E+02  0.17685E+07
 0.25720001E+02  0.20615E+07
 0.25770000E+02  0.17881E+07
 0.25820000E+02  0.11217E+07
 0.25869999E+02  0.20761E+06
 0.25920002E+02 -0.47486E+06
 0.25970001E+02 -0.48873E+06
 0.26020000E+02  0.36536E+06
 0.26070000E+02  0.12701E+07
 0.26119999E+02  0.12193E+07
 0.26170002E+02  0.39230E+06
 0.26220001E+02 -0.91261E+06
 0.26270000E+02 -0.21573E+07
 0.26320000E+02 -0.28763E+07
 0.26369999E+02 -0.31773E+07
 0.26420002E+02 -0.28403E+07
 0.26470001E+02 -0.21670E+07
 0.26520000E+02 -0.18278E+07
 0.26570000E+02 -0.19194E+07
 0.26619999E+02 -0.21317E+07
 0.26670002E+02 -0.17828E+07
 0.26720001E+02 -0.13761E+07
 0.26770000E+02 -0.12549E+07
 0.26820000E+02 -0.94394E+06
 0.26869999E+02 -0.87634E+06
 0.26920002E+02 -0.10683E+07
 0.26970001E+02 -0.11596E+07
 0.27020000E+02 -0.12176E+07
 0.27070000E+02 -0.14068E+07
 0.27119999E+02 -0.16950E+07
 0.27170002E+02 -0.17881E+07
 0.27220001E+02 -0.14814E+07
 0.27270000E+02 -0.31803E+06
 0.27320000E+02  0.13578E+07
 0.27369999E+02  0.23923E+07
 0.27420002E+02  0.26204E+07
 0.27470001E+02  0.19783E+07
 0.27520000E+02  0.89027E+06
 0.27570000E+02  0.62814E+05
 0.27619999E+02 -0.61498E+06
 0.27670002E+02 -0.13170E+07
 0.27720001E+02 -0.22181E+07
 0.27770000E+02 -0.28684E+07
 0.27820000E+02 -0.27844E+07
 0.27869999E+02 -0.22035E+07
 0.27920002E+02 -0.15735E+07
 0.27970001E+02 -0.10560E+07
 0.28020000E+02 -0.75061E+06
 0.28070000E+02 -0.78583E+06
 0.28119999E+02 -0.98870E+06
 0.28169998E+02 -0.15254E+07
 0.28220001E+02 -0.22903E+07
 0.28270000E+02 -0.28990E+07
 0.28320000E+02 -0.30936E+07
 0.28369999E+02 -0.26333E+07
 0.28419998E+02 -0.18343E+07
 0.28470001E+02 -0.12645E+07
 0.28520000E+02 -0.10886E+07
 0.28570000E+02 -0.11124E+07
 0.28619999E+02 -0.11481E+07
 0.28669998E+02 -0.81436E+06
 0.28720001E+02 -0.29833E+06
 0.28770000E+02  0.25974E+06
 0.28820000E+02  0.88914E+06
 0.28869999E+02  0.11343E+07
 0.28919998E+02  0.11504E+07
 0.28970001E+02  0.94887E+06
 0.29020000E+02  0.60711E+06
 0.29070000E+02  0.33979E+06
 0.29119999E+02  0.12545E+06
 0.29169998E+02  0.13884E+06
 0.29220001E+02  0.19952E+06
 0.29270000E+02 -0.14289E+06
 0.29320000E+02 -0.94535E+06
 0.29369999E+02 -0.15347E+07
 0.29419998E+02 -0.16648E+07
 0.29470001E+02 -0.13906E+07
 0.29520000E+02 -0.67133E+06
 0.29570000E+02  0.86028E+05
 0.29619999E+02  0.55326E+06
 0.29669998E+02  0.43232E+06
 0.29720001E+02  0.86515E+05
 0.29770000E+02  0.26429E+06
 0.29820000E+02  0.93166E+06
 0.29869999E+02  0.16382E+07
 0.29919998E+02  0.19262E+07
 0.29970001E+02  0.14397E+07
 0.30020000E+02  0.42411E+06
 0.30070000E+02 -0.40624E+06
 0.30119999E+02 -0.65858E+06
 0.30169998E+02 -0.30259E+06
 0.30220001E+02  0.17655E+06
 0.30270000E+02  0.84238E+05
 0.30320000E+02 -0.50383E+06
 0.30369999E+02 -0.92681E+06
 0.30419998E+02 -0.78268E+06
 0.30470001E+02 -0.25559E+06
 0.30520000E+02 -0.13522E+05
 0.30570000E+02 -0.20131E+06
 0.30619999E+02 -0.45480E+06
 0.30669998E+02 -0.43025E+06
 0.30720001E+02  0.48935E+06
 0.30770000E+02  0.21620E+07
 0.30820000E+02  0.36346E+07
 0.30869999E+02  0.43532E+07
 0.30919998E+02  0.41104E+07
 0.30970001E+02  0.32866E+07
 0.31020000E+02  0.26453E+07
 0.31070000E+02  0.20626E+07
 0.31119999E+02  0.12510E+07
 0.31169998E+02 -0.38693E+05
 0.31220001E+02 -0.20366E+07
 0.31270000E+02 -0.37670E+07
 0.31320000E+02 -0.38610E+07
 0.31369999E+02 -0.18573E+07
 0.31419998E+02  0.13579E+07
 0.31470001E+02  0.39215E+07
 0.31520000E+02  0.43637E+07
 0.31570000E+02  0.30813E+07
 0.31619999E+02  0.12966E+07
 0.31669998E+02  0.18125E+06
 0.31720001E+02  0.85184E+06
 0.31770000E+02  0.27066E+07
 0.31820000E+02  0.43835E+07
 0.31869999E+02  0.48545E+07
 0.31919998E+02  0.29310E+07
 0.31970001E+02 -0.13444E+07
 0.32020000E+02 -0.58221E+07
 0.32070000E+02 -0.84919E+07
 0.32119999E+02 -0.86452E+07
 0.32169998E+02 -0.57549E+07
 0.32220001E+02 -0.85156E+06
 0.32270000E+02  0.33191E+07
 0.32320000E+02  0.53644E+07
 0.32369999E+02  0.59398E+07
 0.32419998E+02  0.52494E+07
 0.32470001E+02  0.41532E+07
 0.32520000E+02  0.31183E+07
 0.32570000E+02  0.46666E+06
 0.32619999E+02 -0.25782E+07
 0.32669998E+02 -0.53222E+07
 0.32720001E+02 -0.70361E+07
 0.32770000E+02 -0.53411E+07
 0.32820000E+02 -0.18557E+07
 0.32869999E+02  0.13214E+07
 0.32919998E+02  0.20299E+07
 0.32970001E+02  0.47645E+05
 0.33020000E+02 -0.21932E+07
 0.33070000E+02 -0.26236E+07
 0.33119999E+02  0.43461E+06
 0.33169998E+02  0.46133E+07
 0.33220001E+02  0.63404E+07
 0.33270000E+02  0.46787E+07
 0.33320000E+02  0.51136E+06
 0.33369999E+02 -0.41146E+07
 0.33419998E+02 -0.60414E+07
 0.33470001E+02 -0.43773E+07
 0.33520000E+02 -0.15355E+07
 0.33570000E+02  0.13647E+07
 0.33619999E+02  0.35486E+07
 0.33669998E+02  0.51652E+07
 0.33720001E+02  0.65659E+07
 0.33770000E+02  0.67834E+07
 0.33820000E+02  0.58967E+07
 0.33869999E+02  0.37506E+07
 0.33919998E+02 -0.73659E+05
 0.33970001E+02 -0.53522E+07
 0.34020000E+02 -0.10548E+08
 0.34070000E+02 -0.12904E+08
 0.34119999E+02 -0.10324E+08
 0.34169998E+02 -0.37354E+07
 0.34220001E+02  0.40003E+07
 0.34270000E+02  0.99580E+07
 0.34320000E+02  0.10111E+08
 0.34369999E+02  0.42264E+07
 0.34419998E+02 -0.33798E+07
 0.34470001E+02 -0.82068E+07
 0.34520000E+02 -0.69296E+07
 0.34570000E+02 -0.87842E+06
 0.34619999E+02  0.52214E+07
 0.34669998E+02  0.74514E+07
 0.34720001E+02  0.47514E+07
 0.34770000E+02  0.37726E+06
 0.34820000E+02 -0.13659E+07
 0.34869999E+02 -0.17575E+06
 0.34919998E+02  0.12334E+07
 0.34970001E+02  0.11902E+07
 0.35020000E+02 -0.14677E+07
 0.35070000E+02 -0.68789E+07
 0.35119999E+02 -0.11091E+08
 0.35169998E+02 -0.10816E+08
 0.35220001E+02 -0.71622E+07
 0.35270000E+02 -0.20241E+07
 0.35320000E+02  0.35512E+07
 0.35369999E+02  0.83621E+07
 0.35419998E+02  0.11290E+08
 0.35470001E+02  0.12414E+08
 0.35520000E+02  0.10895E+08
 0.35570000E+02  0.66641E+07
 0.35619999E+02  0.13864E+07
 0.35669998E+02 -0.49424E+07
 0.35720001E+02 -0.11274E+08
 0.35770000E+02 -0.14725E+08
 0.35820000E+02 -0.14176E+08
 0.35869999E+02 -0.10916E+08
 0.35919998E+02 -0.59953E+07
 0.35970001E+02 -0.44698E+06
 0.36020000E+02  0.31169E+07
 0.36070000E+02  0.34682E+07
 0.36119999E+02  0.22524E+07
 0.36169998E+02  0.10278E+07
 0.36220001E+02  0.33579E+06
 0.36270000E+02  0.96087E+06
 0.36320000E+02  0.18616E+07
 0.36369999E+02  0.13883E+07
 0.36419998E+02 -0.20173E+06
 0.36470001E+02 -0.24601E+07
 0.36520000E+02 -0.42479E+07
 0.36570000E+02 -0.42253E+07
 0.36619999E+02 -0.18861E+07
 0.36669998E+02  0.16222E+07
 0.36720001E+02  0.39829E+07
 0.36770000E+02  0.42591E+07
 0.36820000E+02  0.22053E+07
 0.36869999E+02 -0.29778E+06
 0.36919998E+02 -0.85980E+06
 0.36970001E+02  0.25684E+06
 0.37020000E+02  0.21758E+07
 0.37070000E+02  0.35580E+07
 0.37119999E+02  0.32198E+07
 0.37169998E+02  0.11628E+07
 0.37220001E+02 -0.15561E+07
 0.37270000E+02 -0.38550E+07
 0.37320000E+02 -0.52676E+07
 0.37369999E+02 -0.55732E+07
 0.37419998E+02 -0.48177E+07
 0.37470001E+02 -0.24830E+07
 0.37520000E+02  0.12948E+07
 0.37570000E+02  0.49111E+07
 0.37619999E+02  0.66903E+07
 0.37669998E+02  0.60361E+07
 0.37720001E+02  0.33107E+07
 0.37770000E+02 -0.29935E+06
 0.37820000E+02 -0.30777E+07
 0.37869999E+02 -0.48480E+07
 0.37919998E+02 -0.63810E+07
 0.37970001E+02 -0.81044E+07
 0.38020000E+02 -0.10069E+08
 0.38070000E+02 -0.11328E+08
 0.38119999E+02 -0.10236E+08
 0.38169998E+02 -0.62173E+07
 0.38220001E+02 -0.59054E+06
 0.38270000E+02  0.53215E+07
 0.38320000E+02  0.10501E+08
 0.38369999E+02  0.13459E+08
 0.38419998E+02  0.13539E+08
 0.38470001E+02  0.11133E+08
 0.38520000E+02  0.70144E+07
 0.38570000E+02  0.25828E+07
 0.38619999E+02 -0.12969E+07
 0.38669998E+02 -0.48499E+07
 0.38720001E+02 -0.83831E+07
 0.38770000E+02 -0.11759E+08
 0.38820000E+02 -0.13432E+08
 0.38869999E+02 -0.12061E+08
 0.38919998E+02 -0.81946E+07
 0.38970001E+02 -0.29632E+07
 0.39020000E+02  0.21407E+07
 0.39070000E+02  0.59137E+07
 0.39119999E+02  0.81748E+07
 0.39169998E+02  0.93019E+07
 0.39220001E+02  0.98415E+07
 0.39270000E+02  0.94081E+07
 0.39320000E+02  0.76279E+07
 0.39369999E+02  0.50710E+07
 0.39419998E+02  0.18827E+07
 0.39470001E+02 -0.14572E+07
 0.39520000E+02 -0.43625E+07
 0.39570000E+02 -0.70022E+07
 0.39619999E+02 -0.91240E+07
 0.39669998E+02 -0.10049E+08
 0.39720001E+02 -0.95406E+07
 0.39770000E+02 -0.77697E+07
 0.39820000E+02 -0.45968E+07
 0.39869999E+02 -0.26654E+06
 0.39919998E+02  0.44322E+07
 0.39970001E+02  0.82665E+07
 0.40020000E+02  0.10108E+08
 0.40070000E+02  0.97906E+07
 0.40119999E+02  0.71832E+07
 0.40169998E+02  0.27424E+07
 0.40220001E+02 -0.19881E+07
 0.40270000E+02 -0.52673E+07
 0.40320000E+02 -0.60505E+07
 0.40369999E+02 -0.41704E+07
 0.40419998E+02 -0.50684E+06
 0.40470001E+02  0.29639E+07
 0.40520000E+02  0.45732E+07
 0.40570000E+02  0.37791E+07
 0.40619999E+02  0.11244E+07
 0.40669998E+02 -0.19846E+07
 0.40720001E+02 -0.37548E+07
 0.40770000E+02 -0.35764E+07
 0.40820000E+02 -0.26469E+07
 0.40869999E+02 -0.21300E+07
 0.40919998E+02 -0.21924E+07
 0.40970001E+02 -0.22795E+07
 0.41020000E+02 -0.18376E+07
 0.41070000E+02 -0.77386E+06
 0.41119999E+02  0.50371E+06
 0.41169998E+02  0.15681E+07
 0.41220001E+02  0.27262E+07
 0.41270000E+02  0.39671E+07
 0.41320000E+02  0.47563E+07
 0.41369999E+02  0.45009E+07
 0.41419998E+02  0.28723E+07
 0.41470001E+02  0.25729E+06
 0.41520000E+02 -0.26030E+07
 0.41570000E+02 -0.40415E+07
 0.41619999E+02 -0.28325E+07
 0.41669998E+02  0.10360E+05
 0.41720001E+02  0.23604E+07
 0.41770000E+02  0.29100E+07
 0.41820000E+02  0.14607E+07
 0.41869999E+02 -0.14618E+07
 0.41919998E+02 -0.39899E+07
 0.41970001E+02 -0.46896E+07
 0.42020000E+02 -0.38178E+07
 0.42070000E+02 -0.18747E+07
 0.42119999E+02  0.53411E+06
 0.42169998E+02  0.26875E+07
 0.42220001E+02  0.45854E+07
 0.42270000E+02  0.67249E+07
 0.42320000E+02  0.86005E+07
 0.42369999E+02  0.90858E+07
 0.42419998E+02  0.81803E+07
 0.42470001E+02  0.63528E+07
 0.42520000E+02  0.43785E+07
 0.42570000E+02  0.30663E+07
 0.42619999E+02  0.20446E+07
 0.42669998E+02  0.11866E+07
 0.42720001E+02  0.74831E+06
 0.42770000E+02  0.61733E+06
 0.42820000E+02  0.51266E+06
 0.42869999E+02  0.18750E+06
 0.42919998E+02 -0.59428E+06
 0.42970001E+02 -0.21519E+07
 0.43020000E+02 -0.35051E+07
 0.43070000E+02 -0.35265E+07
 0.43119999E+02 -0.22933E+07
 0.43169998E+02 -0.57878E+06
 0.43220001E+02  0.64771E+06
 0.43270000E+02  0.11049E+07
 0.43320000E+02  0.11148E+07
 0.43369999E+02  0.13436E+07
 0.43419998E+02  0.20671E+07
 0.43470001E+02  0.28294E+07
 0.43520000E+02  0.29438E+07
 0.43570000E+02  0.20213E+07
 0.43619999E+02  0.26739E+06
 0.43669998E+02 -0.15253E+07
 0.43720001E+02 -0.22456E+07
 0.43770000E+02 -0.17476E+07
 0.43820000E+02 -0.57437E+06
 0.43869999E+02  0.11054E+07
 0.43919998E+02  0.28620E+07
 0.43970001E+02  0.40889E+07
 0.44020000E+02  0.43300E+07
 0.44070000E+02  0.35803E+07
 0.44119999E+02  0.19900E+07
 0.44169998E+02 -0.85529E+05
 0.44220001E+02 -0.12459E+07
 0.44270000E+02 -0.10807E+07
 0.44320000E+02 -0.39045E+06
 0.44369999E+02  0.16726E+06
 0.44419998E+02 -0.21957E+06
 0.44470001E+02 -0.15833E+07
 0.44520000E+02 -0.28078E+07
 0.44570000E+02 -0.30232E+07
 0.44619999E+02 -0.21286E+07
 0.44669998E+02 -0.40352E+06
 0.44720001E+02  0.11437E+07
 0.44770000E+02  0.15420E+07
 0.44820000E+02  0.70866E+06
 0.44869999E+02 -0.73231E+06
 0.44919998E+02 -0.17205E+07
 0.44970001E+02 -0.17053E+07
 0.45020000E+02 -0.79337E+06
 0.45070000E+02  0.70904E+06
 0.45119999E+02  0.22142E+07
 0.45169998E+02  0.30422E+07
 0.45220001E+02  0.29016E+07
 0.45270000E+02  0.17881E+07
 0.45320000E+02  0.40813E+05
 0.45369999E+02 -0.15198E+07
 0.45419998E+02 -0.23606E+07
 0.45470001E+02 -0.23185E+07
 0.45520000E+02 -0.13282E+07
 0.45570000E+02  0.11847E+06
 0.45619999E+02  0.14492E+07
 0.45669998E+02  0.23152E+07
 0.45720001E+02  0.24140E+07
 0.45770000E+02  0.17911E+07
 0.45820000E+02  0.64555E+06
 0.45869999E+02 -0.74869E+06
 0.45919998E+02 -0.21199E+07
 0.45970001E+02 -0.30541E+07
 0.46020000E+02 -0.31057E+07
 0.46070000E+02 -0.23470E+07
 0.46119999E+02 -0.15271E+07
 0.46169998E+02 -0.14538E+07
 0.46220001E+02 -0.20631E+07
 0.46270000E+02 -0.30050E+07
 0.46320000E+02 -0.38325E+07
 0.46369999E+02 -0.41401E+07
 0.46419998E+02 -0.40623E+07
 0.46470001E+02 -0.36603E+07
 0.46520000E+02 -0.30070E+07
 0.46570000E+02 -0.22339E+07
 0.46619999E+02 -0.12629E+07
 0.46669998E+02 -0.15776E+06
 0.46720001E+02  0.83774E+06
 0.46770000E+02  0.14701E+07
 0.46820000E+02  0.16788E+07
 0.46869999E+02  0.15057E+07
 0.46919998E+02  0.97965E+06
 0.46970001E+02  0.24486E+06
 0.47020000E+02 -0.61801E+06
 0.47070000E+02 -0.14948E+07
 0.47119999E+02 -0.21413E+07
 0.47169998E+02 -0.21539E+07
 0.47220001E+02 -0.13961E+07
 0.47270000E+02 -0.39828E+06
 0.47320000E+02  0.22702E+06
 0.47369999E+02  0.75663E+05
 0.47419998E+02 -0.83408E+06
 0.47470001E+02 -0.19682E+07
 0.47520000E+02 -0.27925E+07
 0.47570000E+02 -0.31241E+07
 0.47619999E+02 -0.29401E+07
 0.47669998E+02 -0.22721E+07
 0.47720001E+02 -0.14152E+07
 0.47770000E+02 -0.62071E+06
 0.47820000E+02  0.79210E+05
 0.47869999E+02  0.59538E+06
 0.47919998E+02  0.86857E+06
 0.47970001E+02  0.95881E+06
 0.48020000E+02  0.80107E+06
 0.48070000E+02  0.26594E+06
 0.48119999E+02 -0.83087E+06
 0.48169998E+02 -0.23735E+07
 0.48220001E+02 -0.35755E+07
 0.48270000E+02 -0.38739E+07
 0.48320000E+02 -0.31190E+07
 0.48369999E+02 -0.16102E+07
 0.48419998E+02 -0.31227E+06
 0.48470001E+02  0.20151E+06
 0.48520000E+02  0.14382E+06
 0.48570000E+02  0.56090E+04
 0.48619999E+02  0.20344E+06
 0.48669998E+02  0.57777E+06
 0.48720001E+02  0.95871E+06
 0.48770000E+02  0.14815E+07
 0.48820000E+02  0.19680E+07
 0.48869999E+02  0.25192E+07
 0.48919998E+02  0.31599E+07
 0.48970001E+02  0.33923E+07
 0.49020000E+02  0.30430E+07
 0.49070000E+02  0.21918E+07
 0.49119999E+02  0.10570E+07
 0.49169998E+02  0.15549E+06
 0.49220001E+02 -0.17750E+06
 0.49270000E+02  0.64177E+05
 0.49320000E+02  0.77514E+06
 0.49369999E+02  0.16589E+07
 0.49419998E+02  0.23852E+07
 0.49470001E+02  0.27352E+07
 0.49520000E+02  0.26851E+07
 0.49570000E+02  0.23632E+07
 0.49619999E+02  0.18899E+07
 0.49669998E+02  0.11995E+07
 0.49720001E+02  0.22613E+05
 0.49770000E+02 -0.15678E+07
 0.49820000E+02 -0.33283E+07
 0.49869999E+02 -0.50469E+07
 0.49919998E+02 -0.62873E+07
 0.49970001E+02 -0.67742E+07
 0.50020000E+02 -0.64457E+07
 0.50070000E+02 -0.53487E+07
 0.50119999E+02 -0.37623E+07
 0.50169998E+02 -0.20218E+07
 0.50220001E+02 -0.39383E+06
 0.50270000E+02  0.94146E+06
 0.50320000E+02  0.17190E+07
 0.50369999E+02  0.17558E+07
 0.50419998E+02  0.13095E+07
 0.50470001E+02  0.77904E+06
 0.50520000E+02  0.52276E+06
 0.50570000E+02  0.65572E+06
 0.50619999E+02  0.94810E+06
 0.50669998E+02  0.11532E+07
 0.50720001E+02  0.11863E+07
 0.50770000E+02  0.11206E+07
 0.50820000E+02  0.10120E+07
 0.50869999E+02  0.87630E+06
 0.50919998E+02  0.65467E+06
 0.50970001E+02  0.35970E+06
 0.51020000E+02  0.22570E+06
 0.51070000E+02  0.41104E+06
 0.51119999E+02  0.82213E+06
 0.51169998E+02  0.12058E+07
 0.51220001E+02  0.13328E+07
 0.51270000E+02  0.11108E+07
 0.51320000E+02  0.54954E+06
 0.51369999E+02 -0.22619E+06
 0.51419998E+02 -0.94499E+06
 0.51470001E+02 -0.15184E+07
 0.51520000E+02 -0.20274E+07
 0.51570000E+02 -0.23635E+07
 0.51619999E+02 -0.23503E+07
 0.51669998E+02 -0.18504E+07
 0.51720001E+02 -0.89105E+06
 0.51770000E+02  0.31944E+06
 0.51820000E+02  0.14381E+07
 0.51869999E+02  0.19344E+07
 0.51919998E+02  0.15359E+07
 0.51970001E+02  0.44756E+06
 0.52020000E+02 -0.78472E+06
 0.52070000E+02 -0.15160E+07
 0.52119999E+02 -0.14806E+07
 0.52169998E+02 -0.97457E+06
 0.52220001E+02 -0.55918E+06
 0.52270000E+02 -0.48952E+06
 0.52320000E+02 -0.67949E+06
 0.52369999E+02 -0.89728E+06
 0.52419998E+02 -0.72950E+06
 0.52470001E+02 -0.81148E+05
 0.52520000E+02  0.69950E+06
 0.52570000E+02  0.13369E+07
 0.52619999E+02  0.16606E+07
 0.52669998E+02  0.17039E+07
 0.52720001E+02  0.16872E+07
 0.52770000E+02  0.16436E+07
 0.52820000E+02  0.14325E+07
 0.52869999E+02  0.10225E+07
 0.52919998E+02  0.61253E+06
 0.52970001E+02  0.40760E+06
 0.53020000E+02  0.54404E+06
 0.53070000E+02  0.94852E+06
 0.53119999E+02  0.12124E+07
 0.53169998E+02  0.11170E+07
 0.53220001E+02  0.81460E+06
 0.53270000E+02  0.52924E+06
 0.53320000E+02  0.52647E+06
 0.53369999E+02  0.82706E+06
 0.53419998E+02  0.11003E+07
 0.53470001E+02  0.10624E+07
 0.53520000E+02  0.63305E+06
 0.53570000E+02 -0.31415E+05
 0.53619999E+02 -0.65872E+06
 0.53669998E+02 -0.10627E+07
 0.53720001E+02 -0.12631E+07
 0.53770000E+02 -0.12610E+07
 0.53820000E+02 -0.96504E+06
 0.53869999E+02 -0.43080E+06
 0.53919998E+02  0.29344E+06
 0.53970001E+02  0.11635E+07
 0.54020000E+02  0.19354E+07
 0.54070000E+02  0.23086E+07
 0.54119999E+02  0.22231E+07
 0.54169998E+02  0.16809E+07
 0.54220001E+02  0.79592E+06
 0.54270000E+02 -0.97907E+05
 0.54320000E+02 -0.85200E+06
 0.54369999E+02 -0.14118E+07
 0.54419998E+02 -0.17937E+07
 0.54470001E+02 -0.20677E+07
 0.54520000E+02 -0.22586E+07
 0.54570000E+02 -0.24703E+07
 0.54619999E+02 -0.27252E+07
 0.54669998E+02 -0.30357E+07
 0.54720001E+02 -0.33875E+07
 0.54770000E+02 -0.36855E+07
 0.54820000E+02 -0.38741E+07
 0.54869999E+02 -0.39001E+07
 0.54919998E+02 -0.37659E+07
 0.54970001E+02 -0.34836E+07
 0.55020000E+02 -0.29716E+07
 0.55070000E+02 -0.22348E+07
 0.55119999E+02 -0.13855E+07
 0.55169998E+02 -0.41674E+06
 0.55220001E+02  0.65182E+06
 0.55270000E+02  0.18712E+07
 0.55320000E+02  0.31904E+07
 0.55369999E+02  0.42833E+07
 0.55419998E+02  0.49269E+07
 0.55470001E+02  0.49083E+07
 0.55520000E+02  0.42700E+07
 0.55570000E+02  0.33305E+07
 0.55619999E+02  0.23414E+07
 0.55669998E+02  0.14521E+07
 0.55720001E+02  0.62220E+06
 0.55770000E+02 -0.15570E+06
 0.55820000E+02 -0.74444E+06
 0.55869999E+02 -0.10040E+07
 0.55919998E+02 -0.91109E+06
 0.55970001E+02 -0.60682E+06
 0.56020000E+02 -0.23615E+06
 0.56070000E+02  0.18111E+06
 0.56119999E+02  0.62784E+06
 0.56169998E+02  0.10150E+07
 0.56220001E+02  0.12624E+07
 0.56270000E+02  0.12440E+07
 0.56320000E+02  0.89457E+06
 0.56369999E+02  0.36234E+06
 0.56419998E+02 -0.20301E+06
 0.56470001E+02 -0.73414E+06
 0.56520000E+02 -0.11400E+07
 0.56570000E+02 -0.13504E+07
 0.56619999E+02 -0.13543E+07
 0.56669998E+02 -0.11958E+07
 0.56720001E+02 -0.95588E+06
 0.56770000E+02 -0.75504E+06
 0.56820000E+02 -0.68428E+06
 0.56869999E+02 -0.73602E+06
 0.56919998E+02 -0.90338E+06
 0.56970001E+02 -0.11048E+07
 0.57020000E+02 -0.12167E+07
 0.57070000E+02 -0.12282E+07
 0.57119999E+02 -0.11903E+07
 0.57169998E+02 -0.11938E+07
 0.57220001E+02 -0.12560E+07
 0.57270000E+02 -0.13034E+07
 0.57320000E+02 -0.12161E+07
 0.57369999E+02 -0.89634E+06
 0.57419998E+02 -0.38336E+06
 0.57470001E+02  0.19654E+06
 0.57520000E+02  0.69476E+06
 0.57570000E+02  0.10408E+07
 0.57619999E+02  0.12473E+07
 0.57669998E+02  0.12946E+07
 0.57720001E+02  0.11134E+07
 0.57770000E+02  0.77086E+06
 0.57820000E+02  0.47395E+06
 0.57869999E+02  0.30952E+06
 0.57919998E+02  0.32588E+06
 0.57970001E+02  0.60652E+06
 0.58020000E+02  0.11144E+07
 0.58070000E+02  0.17480E+07
 0.58119999E+02  0.23432E+07
 0.58169998E+02  0.27219E+07
 0.58220001E+02  0.28060E+07
 0.58270000E+02  0.26756E+07
 0.58320000E+02  0.24711E+07
 0.58369999E+02  0.20533E+07
 0.58419998E+02  0.12649E+07
 0.58470001E+02  0.12090E+06
 0.58520000E+02 -0.12762E+07
 0.58570000E+02 -0.25835E+07
 0.58619999E+02 -0.34030E+07
 0.58669998E+02 -0.34319E+07
 0.58720001E+02 -0.25842E+07
 0.58770000E+02 -0.11664E+07
 0.58820000E+02  0.39253E+06
 0.58869999E+02  0.17183E+07
 0.58919998E+02  0.25098E+07
 0.58970001E+02  0.28076E+07
 0.59020000E+02  0.27519E+07
 0.59070000E+02  0.24378E+07
 0.59119999E+02  0.19880E+07
 0.59169998E+02  0.13257E+07
 0.59220001E+02  0.42058E+06
 0.59270000E+02 -0.58356E+06
 0.59320000E+02 -0.14451E+07
 0.59369999E+02 -0.19997E+07
 0.59419998E+02 -0.22511E+07
 0.59470001E+02 -0.22043E+07
 0.59520000E+02 -0.19805E+07
 0.59570000E+02 -0.17171E+07
 0.59619999E+02 -0.14679E+07
 0.59669998E+02 -0.12554E+07
 0.59720001E+02 -0.10474E+07
 0.59770000E+02 -0.78457E+06
 0.59820000E+02 -0.43572E+06
 0.59869999E+02 -0.24465E+05
 0.59919998E+02  0.47919E+06
 0.59970001E+02  0.10166E+07
 0.60020000E+02  0.13999E+07
 0.60070000E+02  0.14505E+07
 0.60119999E+02  0.10314E+07
 0.60170002E+02  0.24006E+06
 0.60219997E+02 -0.69752E+06
 0.60270000E+02 -0.15896E+07
 0.60320004E+02 -0.22721E+07
 0.60369999E+02 -0.27656E+07
 0.60420002E+02 -0.32688E+07
 0.60469997E+02 -0.38759E+07
 0.60520000E+02 -0.43778E+07
 0.60570004E+02 -0.45226E+07
 0.60619999E+02 -0.42520E+07
 0.60670002E+02 -0.36671E+07
 0.60719997E+02 -0.30059E+07
 0.60770000E+02 -0.23484E+07
 0.60820004E+02 -0.15063E+07
 0.60869999E+02 -0.29857E+06
 0.60920002E+02  0.13209E+07
 0.60969997E+02  0.31058E+07
 0.61020000E+02  0.45122E+07
 0.61070004E+02  0.50376E+07
 0.61119999E+02  0.46109E+07
 0.61170002E+02  0.35816E+07
 0.61219997E+02  0.23612E+07
 0.61270000E+02  0.13042E+07
 0.61320004E+02  0.55237E+06
 0.61369999E+02 -0.27584E+05
 0.61420002E+02 -0.60131E+06
 0.61469997E+02 -0.12316E+07
 0.61520000E+02 -0.18549E+07
 0.61570004E+02 -0.22848E+07
 0.61619999E+02 -0.23502E+07
 0.61670002E+02 -0.20328E+07
 0.61719997E+02 -0.14124E+07
 0.61770000E+02 -0.68783E+06
 0.61820004E+02 -0.10492E+06
 0.61869999E+02  0.26882E+06
 0.61920002E+02  0.51718E+06
 0.61969997E+02  0.82954E+06
 0.62020000E+02  0.14040E+07
 0.62070004E+02  0.21970E+07
 0.62119999E+02  0.30401E+07
 0.62170002E+02  0.37113E+07
 0.62219997E+02  0.39539E+07
 0.62270000E+02  0.37756E+07
 0.62320004E+02  0.33171E+07
 0.62369999E+02  0.26692E+07
 0.62420002E+02  0.19313E+07
 0.62469997E+02  0.11676E+07
 0.62520000E+02  0.37449E+06
 0.62570004E+02 -0.47083E+06
 0.62619999E+02 -0.13517E+07
 0.62670002E+02 -0.22345E+07
 0.62719997E+02 -0.30417E+07
 0.62770000E+02 -0.36722E+07
 0.62820004E+02 -0.40208E+07
 0.62869999E+02 -0.39711E+07
 0.62920002E+02 -0.35452E+07
 0.62969997E+02 -0.29233E+07
 0.63020000E+02 -0.22685E+07
 0.63070004E+02 -0.16869E+07
 0.63119999E+02 -0.11708E+07
 0.63170002E+02 -0.62367E+06
 0.63219997E+02 -0.92803E+05
 0.63270000E+02  0.28658E+06
 0.63320004E+02  0.40634E+06
 0.63369999E+02  0.22328E+06
 0.63420002E+02 -0.16173E+06
 0.63469997E+02 -0.53449E+06
 0.63520000E+02 -0.71385E+06
 0.63570004E+02 -0.67870E+06
 0.63619999E+02 -0.52207E+06
 0.63670002E+02 -0.36574E+06
 0.63719997E+02 -0.19454E+06
 0.63770000E+02  0.79893E+05
 0.63820004E+02  0.43335E+06
 0.63869999E+02  0.82959E+06
 0.63920002E+02  0.11972E+07
 0.63969997E+02  0.14481E+07
 0.64020004E+02  0.15737E+07
 0.64070007E+02  0.15961E+07
 0.64120003E+02  0.15305E+07
 0.64170006E+02  0.13373E+07
 0.64220001E+02  0.95760E+06
 0.64270004E+02  0.36087E+06
 0.64320007E+02 -0.38816E+06
 0.64370003E+02 -0.11374E+07
 0.64420006E+02 -0.16764E+07
 0.64470001E+02 -0.18063E+07
 0.64520004E+02 -0.14998E+07
 0.64570007E+02 -0.86446E+06
 0.64620003E+02 -0.11824E+06
 0.64670006E+02  0.54719E+06
 0.64720001E+02  0.10422E+07
 0.64770004E+02  0.13566E+07
 0.64820007E+02  0.16072E+07
 0.64870003E+02  0.18716E+07
 0.64920006E+02  0.21421E+07
 0.64970001E+02  0.23556E+07
 0.65020004E+02  0.24050E+07
 0.65070007E+02  0.22325E+07
 0.65120003E+02  0.18673E+07
 0.65170006E+02  0.14227E+07
 0.65220001E+02  0.10169E+07
 0.65270004E+02  0.71765E+06
 0.65320007E+02  0.53342E+06
 0.65370003E+02  0.42754E+06
 0.65420006E+02  0.34781E+06
 0.65470001E+02  0.24205E+06
 0.65520004E+02  0.14066E+06
 0.65570007E+02  0.90046E+05
 0.65620003E+02  0.44906E+05
 0.65670006E+02 -0.45764E+05
 0.65720001E+02 -0.19625E+06
 0.65770004E+02 -0.36533E+06
 0.65820007E+02 -0.42726E+06
 0.65870003E+02 -0.28817E+06
 0.65920006E+02 -0.13565E+05
 0.65970001E+02  0.23080E+06
 0.66020004E+02  0.29074E+06
 0.66070007E+02  0.80630E+05
 0.66120003E+02 -0.33816E+06
 0.66170006E+02 -0.81290E+06
 0.66220001E+02 -0.12583E+07
 0.66270004E+02 -0.16632E+07
 0.66320007E+02 -0.20437E+07
 0.66370003E+02 -0.24191E+07
 0.66420006E+02 -0.27860E+07
 0.66470001E+02 -0.30432E+07
 0.66520004E+02 -0.30543E+07
 0.66570007E+02 -0.28046E+07
 0.66620003E+02 -0.23793E+07
 0.66670006E+02 -0.19428E+07
 0.66720001E+02 -0.15975E+07
 0.66770004E+02 -0.12848E+07
 0.66820007E+02 -0.89364E+06
 0.66870003E+02 -0.36128E+06
 0.66920006E+02  0.26268E+06
 0.66970001E+02  0.84221E+06
 0.67020004E+02  0.11890E+07
 0.67070007E+02  0.12387E+07
 0.67120003E+02  0.11463E+07
 0.67170006E+02  0.10843E+07
 0.67220001E+02  0.11466E+07
 0.67270004E+02  0.12966E+07
 0.67320007E+02  0.13861E+07
 0.67370003E+02  0.13746E+07
 0.67420006E+02  0.13487E+07
 0.67470001E+02  0.13831E+07
 0.67520004E+02  0.14897E+07
 0.67570007E+02  0.16030E+07
 0.67620003E+02  0.15908E+07
 0.67670006E+02  0.14041E+07
 0.67720001E+02  0.11396E+07
 0.67770004E+02  0.88705E+06
 0.67820007E+02  0.68399E+06
 0.67870003E+02  0.47633E+06
 0.67920006E+02  0.22060E+06
 0.67970001E+02 -0.33141E+05
 0.68020004E+02 -0.28066E+06
 0.68070007E+02 -0.50358E+06
 0.68120003E+02 -0.67494E+06
 0.68170006E+02 -0.81792E+06
 0.68220001E+02 -0.91674E+06
 0.68270004E+02 -0.92330E+06
 0.68320007E+02 -0.79308E+06
 0.68370003E+02 -0.53576E+06
 0.68420006E+02 -0.24684E+06
 0.68470001E+02 -0.15828E+05
 0.68520004E+02  0.81343E+05
 0.68570007E+02  0.18385E+05
 0.68620003E+02 -0.14506E+06
 0.68670006E+02 -0.35484E+06
 0.68720001E+02 -0.57154E+06
 0.68770004E+02 -0.76607E+06
 0.68820007E+02 -0.90465E+06
 0.68870003E+02 -0.95174E+06
 0.68920006E+02 -0.90240E+06
 0.68970001E+02 -0.76860E+06
 0.69020004E+02 -0.56473E+06
 0.69070007E+02 -0.33125E+06
 0.69120003E+02 -0.11745E+06
 0.69170006E+02  0.71122E+05
 0.69220001E+02  0.20624E+06
 0.69270004E+02  0.23836E+06
 0.69320007E+02  0.16227E+06
 0.69370003E+02 -0.97680E+04
 0.69420006E+02 -0.23567E+06
 0.69470001E+02 -0.43098E+06
 0.69520004E+02 -0.52256E+06
 0.69570007E+02 -0.50555E+06
 0.69620003E+02 -0.42247E+06
 0.69670006E+02 -0.31377E+06
 0.69720001E+02 -0.21522E+06
 0.69770004E+02 -0.13989E+06
 0.69820007E+02 -0.74036E+05
 0.69870003E+02  0.26580E+04
 0.69920006E+02  0.93565E+05
 0.69970001E+02  0.14481E+06
 0.70020004E+02  0.72120E+05
 0.70070007E+02 -0.13074E+06
 0.70120003E+02 -0.37600E+06
 0.70170006E+02 -0.58569E+06
 0.70220001E+02 -0.69905E+06
 0.70270004E+02 -0.68855E+06
 0.70320007E+02 -0.59412E+06
 0.70370003E+02 -0.45676E+06
 0.70420006E+02 -0.32558E+06
 0.70470001E+02 -0.20776E+06
 0.70520004E+02 -0.54941E+05
 0.70570007E+02  0.16949E+06
 0.70620003E+02  0.48208E+06
 0.70670006E+02  0.86958E+06
 0.70720001E+02  0.13158E+07
 0.70770004E+02  0.17343E+07
 0.70820007E+02  0.20119E+07
 0.70870003E+02  0.21160E+07
 0.70920006E+02  0.20094E+07
 0.70970001E+02  0.16706E+07
 0.71020004E+02  0.11757E+07
 0.71070007E+02  0.65022E+06
 0.71120003E+02  0.18134E+06
 0.71170006E+02 -0.14801E+06
 0.71220001E+02 -0.26468E+06
 0.71270004E+02 -0.25208E+06
 0.71320007E+02 -0.23524E+06
 0.71370003E+02 -0.25919E+06
 0.71420006E+02 -0.36573E+06
 0.71470001E+02 -0.53537E+06
 0.71520004E+02 -0.72012E+06
 0.71570007E+02 -0.92312E+06
 0.71620003E+02 -0.11306E+07
 0.71670006E+02 -0.13018E+07
 0.71720001E+02 -0.13789E+07
 0.71770004E+02 -0.13275E+07
 0.71820007E+02 -0.11827E+07
 0.71870003E+02 -0.10258E+07
 0.71920006E+02 -0.93714E+06
 0.71970001E+02 -0.93210E+06
 0.72020004E+02 -0.98449E+06
 0.72070007E+02 -0.10458E+07
 0.72120003E+02 -0.10431E+07
 0.72170006E+02 -0.94993E+06
 0.72220001E+02 -0.77291E+06
 0.72270004E+02 -0.52502E+06
 0.72320007E+02 -0.28282E+06
 0.72370003E+02 -0.12324E+06
 0.72420006E+02 -0.58215E+05
 0.72470001E+02 -0.92295E+05
 0.72520004E+02 -0.14566E+06
 0.72570007E+02 -0.64634E+05
 0.72620003E+02  0.18066E+06
 0.72670006E+02  0.48776E+06
 0.72720001E+02  0.74089E+06
 0.72770004E+02  0.89104E+06
 0.72820007E+02  0.95808E+06
 0.72870003E+02  0.99195E+06
 0.72920006E+02  0.10430E+07
 0.72970001E+02  0.11135E+07
 0.73020004E+02  0.11710E+07
 0.73070007E+02  0.11749E+07
 0.73120003E+02  0.10972E+07
 0.73170006E+02  0.97938E+06
 0.73220001E+02  0.89115E+06
 0.73270004E+02  0.85348E+06
 0.73320007E+02  0.82552E+06
 0.73370003E+02  0.74835E+06
 0.73420006E+02  0.61011E+06
 0.73470001E+02  0.44322E+06
 0.73520004E+02  0.25758E+06
 0.73570007E+02  0.58878E+05
 0.73620003E+02 -0.12619E+06
 0.73670006E+02 -0.30772E+06
 0.73720001E+02 -0.47892E+06
 0.73770004E+02 -0.57876E+06
 0.73820007E+02 -0.55618E+06
 0.73870003E+02 -0.40459E+06
 0.73920006E+02 -0.15095E+06
 0.73970001E+02  0.18784E+06
 0.74020004E+02  0.54516E+06
 0.74070007E+02  0.80806E+06
 0.74120003E+02  0.92914E+06
 0.74170006E+02  0.87543E+06
 0.74220001E+02  0.63134E+06
 0.74270004E+02  0.23072E+06
 0.74320007E+02 -0.29149E+06
 0.74370003E+02 -0.86254E+06
 0.74420006E+02 -0.13759E+07
 0.74470001E+02 -0.17334E+07
 0.74520004E+02 -0.18919E+07
 0.74570007E+02 -0.18903E+07
 0.74620003E+02 -0.17772E+07
 0.74670006E+02 -0.15988E+07
 0.74720001E+02 -0.14065E+07
 0.74770004E+02 -0.11799E+07
 0.74820007E+02 -0.91271E+06
 0.74870003E+02 -0.65774E+06
 0.74920006E+02 -0.43096E+06
 0.74970001E+02 -0.23733E+06
 0.75020004E+02 -0.80301E+05
 0.75070007E+02  0.20952E+05
 0.75120003E+02  0.46956E+05
 0.75170006E+02  0.20896E+05
 0.75220001E+02 -0.19556E+05
 0.75270004E+02 -0.46328E+05
 0.75320007E+02 -0.69768E+05
 0.75370003E+02 -0.13688E+06
 0.75420006E+02 -0.27825E+06
 0.75470001E+02 -0.44894E+06
 0.75520004E+02 -0.54782E+06
 0.75570007E+02 -0.47789E+06
 0.75620003E+02 -0.19798E+06
 0.75670006E+02  0.23908E+06
 0.75720001E+02  0.71491E+06
 0.75770004E+02  0.11133E+07
 0.75820007E+02  0.13521E+07
 0.75870003E+02  0.13922E+07
 0.75920006E+02  0.12534E+07
 0.75970001E+02  0.10224E+07
 0.76020004E+02  0.81765E+06
 0.76070007E+02  0.69527E+06
 0.76120003E+02  0.63059E+06
 0.76170006E+02  0.58401E+06
 0.76220001E+02  0.49875E+06
 0.76270004E+02  0.31946E+06
 0.76320007E+02  0.78644E+05
 0.76370003E+02 -0.15692E+06
 0.76420006E+02 -0.31700E+06
 0.76470001E+02 -0.31641E+06
 0.76520004E+02 -0.19533E+06
 0.76570007E+02 -0.47043E+05
 0.76620003E+02  0.10122E+06
 0.76670006E+02  0.23188E+06
 0.76720001E+02  0.35045E+06
 0.76770004E+02  0.46626E+06
 0.76820007E+02  0.57383E+06
 0.76870003E+02  0.66488E+06
 0.76920006E+02  0.72595E+06
 0.76970001E+02  0.74091E+06
 0.77020004E+02  0.71551E+06
 0.77070007E+02  0.67279E+06
 0.77120003E+02  0.59718E+06
 0.77170006E+02  0.48386E+06
 0.77220001E+02  0.36974E+06
 0.77270004E+02  0.26146E+06
 0.77320007E+02  0.13674E+06
 0.77370003E+02 -0.38000E+04
 0.77420006E+02 -0.13429E+06
 0.77470001E+02 -0.24192E+06
 0.77520004E+02 -0.33292E+06
 0.77570007E+02 -0.39746E+06
 0.77620003E+02 -0.43227E+06
 0.77670006E+02 -0.45299E+06
 0.77720001E+02 -0.45625E+06
 0.77770004E+02 -0.43442E+06
 0.77820007E+02 -0.38757E+06
 0.77870003E+02 -0.28971E+06
 0.77920006E+02 -0.11666E+06
 0.77970001E+02  0.10769E+06
 0.78020004E+02  0.31843E+06
 0.78070007E+02  0.41629E+06
 0.78120003E+02  0.34131E+06
 0.78170006E+02  0.11391E+06
 0.78220001E+02 -0.19868E+06
 0.78270004E+02 -0.48256E+06
 0.78320007E+02 -0.64634E+06
 0.78370003E+02 -0.66319E+06
 0.78420006E+02 -0.52003E+06
 0.78470001E+02 -0.22497E+06
 0.78520004E+02  0.16661E+06
 0.78570007E+02  0.58326E+06
 0.78620003E+02  0.95698E+06
 0.78670006E+02  0.12261E+07
 0.78720001E+02  0.13755E+07
 0.78770004E+02  0.14404E+07
 0.78820007E+02  0.14596E+07
 0.78870003E+02  0.14429E+07
 0.78920006E+02  0.13473E+07
 0.78970001E+02  0.11048E+07
 0.79020004E+02  0.67460E+06
 0.79070007E+02  0.76127E+05
 0.79120003E+02 -0.60189E+06
 0.79170006E+02 -0.12414E+07
 0.79220001E+02 -0.17324E+07
 0.79270004E+02 -0.20164E+07
 0.79320007E+02 -0.20884E+07
 0.79370003E+02 -0.19653E+07
 0.79420006E+02 -0.16992E+07
 0.79470001E+02 -0.13492E+07
 0.79520004E+02 -0.97492E+06
 0.79570007E+02 -0.64802E+06
 0.79620003E+02 -0.39473E+06
 0.79670006E+02 -0.21103E+06
 0.79720001E+02 -0.87025E+05
 0.79770004E+02 -0.95000E+03
 0.79820007E+02  0.47001E+05
 0.79870003E+02  0.59905E+05
 0.79920006E+02  0.56019E+05
 0.79970001E+02  0.51313E+05
 0.80020004E+02  0.67104E+05
 0.80070007E+02  0.12298E+06
 0.80120003E+02  0.22602E+06
 0.80170006E+02  0.34043E+06
 0.80220001E+02  0.41755E+06
 0.80270004E+02  0.44778E+06
 0.80320007E+02  0.43044E+06
 0.80370003E+02  0.37917E+06
 0.80420006E+02  0.31228E+06
 0.80470001E+02  0.23179E+06
 0.80520004E+02  0.14328E+06
 0.80570007E+02  0.55747E+05
 0.80620003E+02  0.49460E+04
 0.80670006E+02  0.18785E+05
 0.80720001E+02  0.78966E+05
 0.80770004E+02  0.13905E+06
 0.80820007E+02  0.15588E+06
 0.80870003E+02  0.11863E+06
 0.80920006E+02  0.29801E+05
 0.80970001E+02 -0.94257E+05
 0.81020004E+02 -0.22392E+06
 0.81070007E+02 -0.33531E+06
 0.81120003E+02 -0.42174E+06
 0.81170006E+02 -0.48823E+06
 0.81220001E+02 -0.54346E+06
 0.81270004E+02 -0.58658E+06
 0.81320007E+02 -0.58652E+06
 0.81370003E+02 -0.51008E+06
 0.81420006E+02 -0.36015E+06
 0.81470001E+02 -0.16986E+06
 0.81520004E+02  0.16212E+05
 0.81570007E+02  0.14807E+06
 0.81620003E+02  0.21767E+06
 0.81670006E+02  0.26598E+06
 0.81720001E+02  0.30845E+06
 0.81770004E+02  0.33305E+06
 0.81820007E+02  0.33404E+06
 0.81870003E+02  0.31528E+06
 0.81920006E+02  0.28946E+06
 0.81970001E+02  0.25244E+06
 0.82020004E+02  0.18949E+06
 0.82070007E+02  0.88813E+05
 0.82120003E+02 -0.44113E+05
 0.82170006E+02 -0.16389E+06
 0.82220001E+02 -0.21733E+06
 0.82270004E+02 -0.16191E+06
 0.82320007E+02  0.25365E+05
 0.82370003E+02  0.32184E+06
 0.82420006E+02  0.64508E+06
 0.82470001E+02  0.91097E+06
 0.82520004E+02  0.10705E+07
 0.82570007E+02  0.10845E+07
 0.82620003E+02  0.97815E+06
 0.82670006E+02  0.83090E+06
 0.82720001E+02  0.70884E+06
 0.82770004E+02  0.64981E+06
 0.82820007E+02  0.62915E+06
 0.82870003E+02  0.56958E+06
 0.82920006E+02  0.40890E+06
 0.82970001E+02  0.15250E+06
 0.83020004E+02 -0.13884E+06
 0.83070007E+02 -0.39826E+06
 0.83120003E+02 -0.57592E+06
 0.83170006E+02 -0.67871E+06
 0.83220001E+02 -0.75484E+06
 0.83270004E+02 -0.83371E+06
 0.83320007E+02 -0.91978E+06
 0.83370003E+02 -0.98050E+06
 0.83420006E+02 -0.97386E+06
 0.83470001E+02 -0.88404E+06
 0.83520004E+02 -0.72494E+06
 0.83570007E+02 -0.53064E+06
 0.83620003E+02 -0.32708E+06
 0.83670006E+02 -0.15369E+06
 0.83720001E+02 -0.51797E+05
 0.83770004E+02 -0.27653E+05
 0.83820007E+02 -0.61882E+05
 0.83870003E+02 -0.11662E+06
 0.83920006E+02 -0.16400E+06
 0.83970001E+02 -0.21895E+06
 0.84020004E+02 -0.29254E+06
 0.84070007E+02 -0.36706E+06
 0.84120003E+02 -0.42868E+06
 0.84170006E+02 -0.44812E+06
 0.84220001E+02 -0.42814E+06
 0.84270004E+02 -0.42863E+06
 0.84320007E+02 -0.47430E+06
 0.84370003E+02 -0.54733E+06
 0.84420006E+02 -0.60884E+06
 0.84470001E+02 -0.61816E+06
 0.84520004E+02 -0.58470E+06
 0.84570007E+02 -0.54662E+06
 0.84620003E+02 -0.53894E+06
 0.84670006E+02 -0.56620E+06
 0.84720001E+02 -0.57739E+06
 0.84770004E+02 -0.51252E+06
 0.84820007E+02 -0.33941E+06
 0.84870003E+02 -0.76140E+05
 0.84920006E+02  0.19804E+06
 0.84970001E+02  0.41275E+06
 0.85020004E+02  0.54235E+06
 0.85070007E+02  0.58848E+06
 0.85120003E+02  0.59661E+06
 0.85170006E+02  0.61415E+06
 0.85220001E+02  0.64611E+06
 0.85270004E+02  0.66377E+06
 0.85320007E+02  0.62338E+06
 0.85370003E+02  0.51133E+06
 0.85420006E+02  0.34761E+06
 0.85470001E+02  0.18730E+06
 0.85520004E+02  0.11492E+06
 0.85570007E+02  0.18377E+06
 0.85620003E+02  0.37984E+06
 0.85670006E+02  0.61112E+06
 0.85720001E+02  0.75804E+06
 0.85770004E+02  0.75673E+06
 0.85820007E+02  0.61766E+06
 0.85870003E+02  0.41025E+06
 0.85920006E+02  0.21857E+06
 0.85970001E+02  0.86784E+05
 0.86020004E+02  0.43030E+04
 0.86070007E+02 -0.53951E+05
 0.86120003E+02 -0.83198E+05
 0.86170006E+02 -0.59432E+05
 0.86220001E+02  0.21090E+05
 0.86270004E+02  0.12556E+06
 0.86320007E+02  0.19386E+06
 0.86370003E+02  0.16613E+06
 0.86420006E+02  0.48931E+05
 0.86470001E+02 -0.10130E+06
 0.86520004E+02 -0.22321E+06
 0.86570007E+02 -0.25891E+06
 0.86620003E+02 -0.21785E+06
 0.86670006E+02 -0.15276E+06
 0.86720001E+02 -0.10821E+06
 0.86770004E+02 -0.11052E+06
 0.86820007E+02 -0.13549E+06
 0.86870003E+02 -0.13225E+06
 0.86920006E+02 -0.76006E+05
 0.86970001E+02  0.15985E+05
 0.87020004E+02  0.11682E+06
 0.87070007E+02  0.19977E+06
 0.87120003E+02  0.24190E+06
 0.87170006E+02  0.25356E+06
 0.87220001E+02  0.25000E+06
 0.87270004E+02  0.22208E+06
 0.87320007E+02  0.14714E+06
 0.87370003E+02  0.15399E+05
 0.87420006E+02 -0.14300E+06
 0.87470001E+02 -0.27923E+06
 0.87520004E+02 -0.34435E+06
 0.87570007E+02 -0.31440E+06
 0.87620003E+02 -0.20873E+06
 0.87670006E+02 -0.59101E+05
 0.87720001E+02  0.97821E+05
 0.87770004E+02  0.23234E+06
 0.87820007E+02  0.31310E+06
 0.87870003E+02  0.30719E+06
 0.87920006E+02  0.21043E+06
 0.87970001E+02  0.33909E+05
 0.88020004E+02 -0.18313E+06
 0.88070007E+02 -0.38157E+06
 0.88120003E+02 -0.51899E+06
 0.88170006E+02 -0.58145E+06
 0.88220001E+02 -0.57558E+06
 0.88270004E+02 -0.51167E+06
 0.88320007E+02 -0.41373E+06
 0.88370003E+02 -0.28446E+06
 0.88420006E+02 -0.11129E+06
 0.88470001E+02  0.10551E+06
 0.88520004E+02  0.36847E+06
 0.88570007E+02  0.65193E+06
 0.88620003E+02  0.92034E+06
 0.88670006E+02  0.11478E+07
 0.88720001E+02  0.13148E+07
 0.88770004E+02  0.14241E+07
 0.88820007E+02  0.14563E+07
 0.88870003E+02  0.13644E+07
 0.88920006E+02  0.11414E+07
 0.88970001E+02  0.83477E+06
 0.89020004E+02  0.50384E+06
 0.89070007E+02  0.20444E+06
 0.89120003E+02 -0.34121E+05
 0.89170006E+02 -0.22677E+06
 0.89220001E+02 -0.38432E+06
 0.89270004E+02 -0.48850E+06
 0.89320007E+02 -0.51789E+06
 0.89370003E+02 -0.47836E+06
 0.89420006E+02 -0.41941E+06
 0.89470001E+02 -0.39573E+06
 0.89520004E+02 -0.42001E+06
 0.89570007E+02 -0.46180E+06
 0.89620003E+02 -0.47525E+06
 0.89670006E+02 -0.43657E+06
 0.89720001E+02 -0.35261E+06
 0.89770004E+02 -0.23747E+06
 0.89820007E+02 -0.11499E+06
 0.89870003E+02 -0.17048E+05
 0.89920006E+02  0.29267E+05
 0.89970001E+02  0.12053E+05
 0.90020004E+02 -0.44533E+05
 0.90070007E+02 -0.10631E+06
 0.90120003E+02 -0.15178E+06
 0.90170006E+02 -0.19202E+06
 0.90220001E+02 -0.26290E+06
 0.90270004E+02 -0.37456E+06
 0.90320007E+02 -0.50585E+06
 0.90370003E+02 -0.60473E+06
 0.90420006E+02 -0.62245E+06
 0.90470001E+02 -0.56040E+06
 0.90520004E+02 -0.45684E+06
 0.90570007E+02 -0.35320E+06
 0.90620003E+02 -0.27223E+06
 0.90670006E+02 -0.21334E+06
 0.90720001E+02 -0.14750E+06
 0.90770004E+02 -0.28427E+05
 0.90820007E+02  0.15967E+06
 0.90870003E+02  0.39035E+06
 0.90920006E+02  0.61700E+06
 0.90970001E+02  0.77597E+06
 0.91020004E+02  0.82541E+06
 0.91070007E+02  0.78028E+06
 0.91120003E+02  0.66900E+06
 0.91170006E+02  0.50976E+06
 0.91220001E+02  0.33663E+06
 0.91270004E+02  0.18740E+06
 0.91320007E+02  0.93159E+05
 0.91370003E+02  0.76653E+05
 0.91420006E+02  0.13203E+06
 0.91470001E+02  0.23462E+06
 0.91520004E+02  0.35949E+06
 0.91570007E+02  0.48924E+06
 0.91620003E+02  0.60992E+06
 0.91670006E+02  0.69437E+06
 0.91720001E+02  0.71043E+06
 0.91770004E+02  0.64158E+06
 0.91820007E+02  0.48993E+06
 0.91870003E+02  0.28044E+06
 0.91920006E+02  0.56297E+05
 0.91970001E+02 -0.14058E+06
 0.92020004E+02 -0.29253E+06
 0.92070007E+02 -0.41314E+06
 0.92120003E+02 -0.51235E+06
 0.92170006E+02 -0.57994E+06
 0.92220001E+02 -0.60378E+06
 0.92270004E+02 -0.57313E+06
 0.92320007E+02 -0.48889E+06
 0.92370003E+02 -0.37900E+06
 0.92420006E+02 -0.28060E+06
 0.92470001E+02 -0.22414E+06
 0.92520004E+02 -0.22796E+06
 0.92570007E+02 -0.27599E+06
 0.92620003E+02 -0.33196E+06
 0.92670006E+02 -0.37028E+06
 0.92720001E+02 -0.37376E+06
 0.92770004E+02 -0.34231E+06
 0.92820007E+02 -0.28972E+06
 0.92870003E+02 -0.22420E+06
 0.92920006E+02 -0.16615E+06
 0.92970001E+02 -0.12695E+06
 0.93020004E+02 -0.83645E+05
 0.93070007E+02 -0.18901E+05
 0.93120003E+02  0.79557E+05
 0.93170006E+02  0.21872E+06
 0.93220001E+02  0.37785E+06
 0.93270004E+02  0.52098E+06
 0.93320007E+02  0.61641E+06
 0.93370003E+02  0.66003E+06
 0.93420006E+02  0.67438E+06
 0.93470001E+02  0.68269E+06
 0.93520004E+02  0.70529E+06
 0.93570007E+02  0.74026E+06
 0.93620003E+02  0.74274E+06
 0.93670006E+02  0.66882E+06
 0.93720001E+02  0.49800E+06
 0.93770004E+02  0.24685E+06
 0.93820007E+02 -0.30558E+05
 0.93870003E+02 -0.29073E+06
 0.93920006E+02 -0.49944E+06
 0.93970001E+02 -0.62805E+06
 0.94020004E+02 -0.67571E+06
 0.94070007E+02 -0.66734E+06
 0.94120003E+02 -0.63841E+06
 0.94170006E+02 -0.62910E+06
 0.94220001E+02 -0.65586E+06
 0.94270004E+02 -0.69117E+06
 0.94320007E+02 -0.70226E+06
 0.94370003E+02 -0.67793E+06
 0.94420006E+02 -0.63037E+06
 0.94470001E+02 -0.57150E+06
 0.94520004E+02 -0.49266E+06
 0.94570007E+02 -0.38330E+06
 0.94620003E+02 -0.25299E+06
 0.94670006E+02 -0.12524E+06
 0.94720001E+02 -0.14866E+05
 0.94770004E+02  0.67862E+05
 0.94820007E+02  0.12581E+06
 0.94870003E+02  0.18005E+06
 0.94920006E+02  0.24481E+06
 0.94970001E+02  0.31294E+06
 0.95020004E+02  0.36083E+06
 0.95070007E+02  0.36392E+06
 0.95120003E+02  0.30683E+06
 0.95170006E+02  0.20960E+06
 0.95220001E+02  0.11637E+06
 0.95270004E+02  0.48630E+05
 0.95320007E+02 -0.36120E+04
 0.95370003E+02 -0.67786E+05
 0.95420006E+02 -0.16630E+06
 0.95470001E+02 -0.28351E+06
 0.95520004E+02 -0.35757E+06
 0.95570007E+02 -0.33686E+06
 0.95620003E+02 -0.22041E+06
 0.95670006E+02 -0.44306E+05
 0.95720001E+02  0.14436E+06
 0.95770004E+02  0.30782E+06
 0.95820007E+02  0.43372E+06
 0.95870003E+02  0.53794E+06
 0.95920006E+02  0.62774E+06
 0.95970001E+02  0.68970E+06
 0.96020004E+02  0.70683E+06
 0.96070007E+02  0.66053E+06
 0.96120003E+02  0.54845E+06
 0.96170006E+02  0.39330E+06
 0.96220001E+02  0.21147E+06
 0.96270004E+02  0.31100E+04
 0.96320007E+02 -0.23434E+06
 0.96370003E+02 -0.49227E+06
 0.96420006E+02 -0.73098E+06
 0.96470001E+02 -0.89327E+06
 0.96520004E+02 -0.94365E+06
 0.96570007E+02 -0.89166E+06
 0.96620003E+02 -0.78559E+06
 0.96670006E+02 -0.67919E+06
 0.96720001E+02 -0.59315E+06
 0.96770004E+02 -0.52520E+06
 0.96820007E+02 -0.47466E+06
 0.96870003E+02 -0.43958E+06
 0.96920006E+02 -0.41133E+06
 0.96970001E+02 -0.36940E+06
 0.97020004E+02 -0.30029E+06
 0.97070007E+02 -0.20752E+06
 0.97120003E+02 -0.10506E+06
 0.97170006E+02 -0.21936E+05
 0.97220001E+02  0.14269E+05
 0.97270004E+02  0.68880E+04
 0.97320007E+02 -0.13787E+05
 0.97370003E+02 -0.10124E+05
 0.97420006E+02  0.51242E+05
 0.97470001E+02  0.16855E+06
 0.97520004E+02  0.30371E+06
 0.97570007E+02  0.41310E+06
 0.97620003E+02  0.47116E+06
 0.97670006E+02  0.47992E+06
 0.97720001E+02  0.44849E+06
 0.97770004E+02  0.38974E+06
 0.97820007E+02  0.32189E+06
 0.97870003E+02  0.26060E+06
 0.97920006E+02  0.22194E+06
 0.97970001E+02  0.22654E+06
 0.98020004E+02  0.29843E+06
 0.98070007E+02  0.43812E+06
 0.98120003E+02  0.60077E+06
 0.98170006E+02  0.71995E+06
 0.98220001E+02  0.75619E+06
 0.98270004E+02  0.71460E+06
 0.98320007E+02  0.62798E+06
 0.98370003E+02  0.53727E+06
 0.98420006E+02  0.46420E+06
 0.98470001E+02  0.39747E+06
 0.98520004E+02  0.31417E+06
 0.98570007E+02  0.20080E+06
 0.98620003E+02  0.71008E+05
 0.98670006E+02 -0.40538E+05
 0.98720001E+02 -0.10993E+06
 0.98770004E+02 -0.12841E+06
 0.98820007E+02 -0.11590E+06
 0.98870003E+02 -0.10636E+06
 0.98920006E+02 -0.11642E+06
 0.98970001E+02 -0.15659E+06
 0.99020004E+02 -0.22658E+06
 0.99070007E+02 -0.30991E+06
 0.99120003E+02 -0.37362E+06
 0.99170006E+02 -0.38556E+06
 0.99220001E+02 -0.33572E+06
 0.99270004E+02 -0.23239E+06
 0.99320007E+02 -0.98708E+05
 0.99370003E+02  0.50355E+05
 0.99420006E+02  0.20695E+06
 0.99470001E+02  0.34696E+06
 0.99520004E+02  0.43492E+06
 0.99570007E+02  0.44742E+06
 0.99620003E+02  0.39233E+06
 0.99670006E+02  0.29426E+06
 0.99720001E+02  0.17576E+06
 0.99770004E+02  0.56508E+05
 0.99820007E+02 -0.50097E+05
 0.99870003E+02 -0.13459E+06
 0.99920006E+02 -0.18383E+06
 0.99970001E+02 -0.18855E+06
 0.10002000E+03 -0.14284E+06
 0.10007001E+03 -0.50000E+05
 0.10012000E+03  0.61909E+05
 0.10017001E+03  0.16457E+06
 0.10022000E+03  0.25252E+06
 0.10027000E+03  0.33386E+06
 0.10032001E+03  0.42098E+06
 0.10037000E+03  0.52127E+06
 0.10042001E+03  0.62150E+06
 0.10047000E+03  0.68732E+06
 0.10052000E+03  0.68835E+06
 0.10057001E+03  0.62293E+06
 0.10062000E+03  0.51740E+06
 0.10067001E+03  0.40776E+06
 0.10072000E+03  0.31783E+06
 0.10077000E+03  0.24801E+06
 0.10082001E+03  0.18760E+06
 0.10087000E+03  0.14162E+06
 0.10092001E+03  0.13473E+06
 0.10097000E+03  0.18555E+06
 0.10102000E+03  0.29292E+06
 0.10107001E+03  0.43310E+06
 0.10112000E+03  0.56005E+06
 0.10117001E+03  0.61958E+06
 0.10122000E+03  0.57862E+06
 0.10127000E+03  0.44469E+06
 0.10132001E+03  0.25787E+06
 0.10137000E+03  0.74058E+05
 0.10142001E+03 -0.61396E+05
 0.10147000E+03 -0.12843E+06
 0.10152000E+03 -0.13221E+06
 0.10157001E+03 -0.91171E+05
 0.10162000E+03 -0.13822E+05
 0.10167001E+03  0.95722E+05
 0.10172000E+03  0.22572E+06
 0.10177000E+03  0.35613E+06
 0.10182001E+03  0.46160E+06
 0.10187000E+03  0.51349E+06
 0.10192001E+03  0.49587E+06
 0.10197000E+03  0.41545E+06
 0.10202000E+03  0.28462E+06
 0.10207001E+03  0.13045E+06
 0.10212000E+03 -0.15000E+05
 0.10217001E+03 -0.13008E+06
 0.10222000E+03 -0.19698E+06
 0.10227000E+03 -0.21986E+06
 0.10232001E+03 -0.21731E+06
 0.10237000E+03 -0.20796E+06
 0.10242001E+03 -0.21170E+06
 0.10247000E+03 -0.23351E+06
 0.10252000E+03 -0.26078E+06
 0.10257001E+03 -0.27924E+06
 0.10262000E+03 -0.28985E+06
 0.10267001E+03 -0.30643E+06
 0.10272000E+03 -0.33802E+06
 0.10277000E+03 -0.38899E+06
 0.10282001E+03 -0.46602E+06
 0.10287000E+03 -0.56647E+06
 0.10292001E+03 -0.65887E+06
 0.10297000E+03 -0.69653E+06
 0.10302000E+03 -0.66493E+06
 0.10307001E+03 -0.59045E+06
 0.10312000E+03 -0.50933E+06
 0.10317001E+03 -0.44996E+06
 0.10322000E+03 -0.41347E+06
 0.10327000E+03 -0.38282E+06
 0.10332001E+03 -0.35144E+06
 0.10337000E+03 -0.33043E+06
 0.10342001E+03 -0.34619E+06
 0.10347000E+03 -0.41717E+06
 0.10352000E+03 -0.52398E+06
 0.10357001E+03 -0.60826E+06
 0.10362000E+03 -0.62557E+06
 0.10367001E+03 -0.57472E+06
 0.10372000E+03 -0.48167E+06
 0.10377000E+03 -0.38605E+06
 0.10382001E+03 -0.29926E+06
 0.10387000E+03 -0.20121E+06
 0.10392001E+03 -0.72008E+05
 0.10397000E+03  0.90924E+05
 0.10402000E+03  0.26028E+06
 0.10407001E+03  0.39581E+06
 0.10412000E+03  0.46917E+06
 0.10417001E+03  0.48554E+06
 0.10422000E+03  0.47290E+06
 0.10427000E+03  0.45007E+06
 0.10432001E+03  0.41791E+06
 0.10437000E+03  0.36191E+06
 0.10442001E+03  0.26654E+06
 0.10447000E+03  0.13520E+06
 0.10452000E+03  0.57100E+04
 0.10457001E+03 -0.64911E+05
 0.10462000E+03 -0.43951E+05
 0.10467001E+03  0.56130E+05
 0.10472000E+03  0.17826E+06
 0.10477000E+03  0.25184E+06
 0.10482001E+03  0.24126E+06
 0.10487000E+03  0.15627E+06
 0.10492001E+03  0.39812E+05
 0.10497000E+03 -0.63240E+05
 0.10502000E+03 -0.12992E+06
 0.10507001E+03 -0.15913E+06
 0.10512000E+03 -0.16305E+06
 0.10517001E+03 -0.15096E+06
 0.10522000E+03 -0.12588E+06
 0.10527000E+03 -0.87539E+05
 0.10532001E+03 -0.36090E+05
 0.10537000E+03  0.29376E+05
 0.10542001E+03  0.99516E+05
 0.10547000E+03  0.15020E+06
 0.10552000E+03  0.16082E+06
 0.10557001E+03  0.12446E+06
 0.10562000E+03  0.48836E+05
 0.10567001E+03 -0.49590E+05
 0.10572000E+03 -0.15233E+06
 0.10577000E+03 -0.24924E+06
 0.10582001E+03 -0.33385E+06
 0.10587000E+03 -0.39238E+06
 0.10592001E+03 -0.41395E+06
 0.10597000E+03 -0.40721E+06
 0.10602000E+03 -0.39439E+06
 0.10607001E+03 -0.39465E+06
 0.10612000E+03 -0.41856E+06
 0.10617001E+03 -0.45161E+06
 0.10622000E+03 -0.46363E+06
 0.10627000E+03 -0.44159E+06
 0.10632001E+03 -0.38685E+06
 0.10637000E+03 -0.31084E+06
 0.10642001E+03 -0.23458E+06
 0.10647000E+03 -0.17591E+06
 0.10652000E+03 -0.14394E+06
 0.10657001E+03 -0.13871E+06
 0.10662000E+03 -0.15138E+06
 0.10667001E+03 -0.16284E+06
 0.10672000E+03 -0.15003E+06
 0.10677000E+03 -0.94013E+05
 0.10682001E+03  0.10432E+05
 0.10687000E+03  0.13907E+06
 0.10692001E+03  0.24927E+06
 0.10697000E+03  0.30999E+06
 0.10702000E+03  0.31662E+06
 0.10707001E+03  0.29342E+06
 0.10712000E+03  0.27714E+06
 0.10717001E+03  0.28745E+06
 0.10722000E+03  0.32331E+06
 0.10727000E+03  0.36675E+06
 0.10732001E+03  0.39203E+06
 0.10737000E+03  0.39072E+06
 0.10742001E+03  0.37106E+06
 0.10747000E+03  0.33914E+06
 0.10752000E+03  0.29484E+06
 0.10757001E+03  0.23759E+06
 0.10762000E+03  0.16858E+06
 0.10767001E+03  0.10442E+06
 0.10772000E+03  0.71286E+05
 0.10777000E+03  0.81158E+05
 0.10782001E+03  0.13231E+06
 0.10787000E+03  0.21030E+06
 0.10792001E+03  0.29860E+06
 0.10797000E+03  0.39167E+06
 0.10802000E+03  0.49055E+06
 0.10807001E+03  0.59071E+06
 0.10812000E+03  0.67302E+06
 0.10817001E+03  0.71100E+06
 0.10822000E+03  0.68662E+06
 0.10827000E+03  0.59517E+06
 0.10832001E+03  0.44512E+06
 0.10837000E+03  0.26854E+06
 0.10842001E+03  0.11235E+06
 0.10847000E+03  0.14736E+05
 0.10852000E+03 -0.12436E+05
 0.10857001E+03  0.83830E+04
 0.10862000E+03  0.40366E+05
 0.10867001E+03  0.62736E+05
 0.10872000E+03  0.74899E+05
 0.10877000E+03  0.73257E+05
 0.10882001E+03  0.45003E+05
 0.10887000E+03 -0.17301E+05
 0.10892001E+03 -0.11145E+06
 0.10897000E+03 -0.22216E+06
 0.10902000E+03 -0.32700E+06
 0.10907001E+03 -0.40895E+06
 0.10912000E+03 -0.46437E+06
 0.10917001E+03 -0.51236E+06
 0.10922000E+03 -0.57084E+06
 0.10927000E+03 -0.62836E+06
 0.10932001E+03 -0.65647E+06
 0.10937000E+03 -0.62954E+06
 0.10942001E+03 -0.54112E+06
 0.10947000E+03 -0.40481E+06
 0.10952000E+03 -0.24371E+06
 0.10957001E+03 -0.89795E+05
 0.10962000E+03  0.30822E+05
 0.10967001E+03  0.11149E+06
 0.10972000E+03  0.15182E+06
 0.10977000E+03  0.15368E+06
 0.10982001E+03  0.12283E+06
 0.10987000E+03  0.67974E+05
 0.10992001E+03  0.87040E+04
 0.10997000E+03 -0.36945E+05
 0.11002000E+03 -0.61236E+05
 0.11007001E+03 -0.65392E+05
 0.11012000E+03 -0.58200E+05
 0.11017001E+03 -0.45229E+05
 0.11022000E+03 -0.29268E+05
 0.11027000E+03 -0.76000E+04
 0.11032001E+03  0.24248E+05
 0.11037000E+03  0.65948E+05
 0.11042001E+03  0.10939E+06
 0.11047000E+03  0.13523E+06
 0.11052000E+03  0.12649E+06
 0.11057001E+03  0.85379E+05
 0.11062000E+03  0.41587E+05
 0.11067001E+03  0.30841E+05
 0.11072000E+03  0.70067E+05
 0.11077000E+03  0.15612E+06
 0.11082001E+03  0.26678E+06
 0.11087000E+03  0.37268E+06
 0.11092001E+03  0.45483E+06
 0.11097000E+03  0.51001E+06
 0.11102000E+03  0.54438E+06
 0.11107001E+03  0.56880E+06
 0.11112000E+03  0.59424E+06
 0.11117001E+03  0.62673E+06
 0.11122000E+03  0.66709E+06
 0.11127000E+03  0.70721E+06
 0.11132001E+03  0.73379E+06
 0.11137000E+03  0.73137E+06
 0.11142001E+03  0.68106E+06
 0.11147000E+03  0.56337E+06
 0.11152000E+03  0.37039E+06
 0.11157001E+03  0.11981E+06
 0.11162000E+03 -0.14559E+06
 0.11167001E+03 -0.37257E+06
 0.11172000E+03 -0.52563E+06
 0.11177000E+03 -0.59735E+06
 0.11182001E+03 -0.60404E+06
 0.11187000E+03 -0.57628E+06
 0.11192001E+03 -0.53704E+06
 0.11197000E+03 -0.49200E+06
 0.11202000E+03 -0.43894E+06
 0.11207001E+03 -0.39222E+06
 0.11212000E+03 -0.37748E+06
 0.11217001E+03 -0.40194E+06
 0.11222000E+03 -0.44801E+06
 0.11227000E+03 -0.48564E+06
 0.11232001E+03 -0.49066E+06
 0.11237000E+03 -0.45958E+06
 0.11242001E+03 -0.41126E+06
 0.11247000E+03 -0.36376E+06
 0.11252000E+03 -0.31936E+06
 0.11257001E+03 -0.27177E+06
 0.11262000E+03 -0.21202E+06
 0.11267001E+03 -0.13821E+06
 0.11272000E+03 -0.63944E+05
 0.11277000E+03 -0.86000E+04
 0.11282001E+03  0.17256E+05
 0.11287000E+03  0.10687E+05
 0.11292001E+03 -0.22689E+05
 0.11297000E+03 -0.68762E+05
 0.11302000E+03 -0.10646E+06
 0.11307001E+03 -0.11176E+06
 0.11312000E+03 -0.70240E+05
 0.11317001E+03  0.17410E+05
 0.11322000E+03  0.13047E+06
 0.11327000E+03  0.23302E+06
 0.11332001E+03  0.29042E+06
 0.11337000E+03  0.28984E+06
 0.11342001E+03  0.25222E+06
 0.11347000E+03  0.21243E+06
 0.11352000E+03  0.19954E+06
 0.11357001E+03  0.22672E+06
 0.11362000E+03  0.27926E+06
 0.11367001E+03  0.33124E+06
 0.11372000E+03  0.36922E+06
 0.11377000E+03  0.39536E+06
 0.11382001E+03  0.42266E+06
 0.11387000E+03  0.46849E+06
 0.11392001E+03  0.54342E+06
 0.11397000E+03  0.63590E+06
 0.11402000E+03  0.72076E+06
 0.11407001E+03  0.77299E+06
 0.11412000E+03  0.76656E+06
 0.11417001E+03  0.68466E+06
 0.11422000E+03  0.53640E+06
 0.11427000E+03  0.35379E+06
 0.11432001E+03  0.17072E+06
 0.11437000E+03  0.20348E+05
 0.11442001E+03 -0.70876E+05
 0.11447000E+03 -0.10290E+06
 0.11452000E+03 -0.94324E+05
 0.11457001E+03 -0.71664E+05
 0.11462000E+03 -0.60622E+05
 0.11467001E+03 -0.70110E+05
 0.11472000E+03 -0.90849E+05
 0.11477000E+03 -0.10142E+06
 0.11482001E+03 -0.79830E+05
 0.11487000E+03 -0.14325E+05
 0.11492001E+03  0.92053E+05
 0.11497000E+03  0.21878E+06
 0.11502000E+03  0.32981E+06
 0.11507001E+03  0.39078E+06
 0.11512000E+03  0.38714E+06
 0.11517001E+03  0.32258E+06
 0.11522000E+03  0.22228E+06
 0.11527000E+03  0.12491E+06
 0.11532001E+03  0.65086E+05
 0.11537000E+03  0.59503E+05
 0.11542001E+03  0.95616E+05
 0.11547000E+03  0.14605E+06
 0.11552000E+03  0.18111E+06
 0.11557001E+03  0.17834E+06
 0.11562000E+03  0.13139E+06
 0.11567001E+03  0.52548E+05
 0.11572000E+03 -0.25318E+05
 0.11577000E+03 -0.69166E+05
 0.11582001E+03 -0.61633E+05
 0.11587000E+03 -0.75210E+04
 0.11592001E+03  0.63380E+05
 0.11597000E+03  0.11406E+06
 0.11602000E+03  0.12072E+06
 0.11607001E+03  0.84027E+05
 0.11612000E+03  0.17282E+05
 0.11617001E+03 -0.63988E+05
 0.11622000E+03 -0.14453E+06
 0.11627000E+03 -0.21939E+06
 0.11632001E+03 -0.29098E+06
 0.11637000E+03 -0.36295E+06
 0.11642001E+03 -0.42746E+06
 0.11647000E+03 -0.46194E+06
 0.11652000E+03 -0.44879E+06
 0.11657001E+03 -0.39053E+06
 0.11662000E+03 -0.30971E+06
 0.11667001E+03 -0.23326E+06
 0.11672000E+03 -0.17875E+06
 0.11677000E+03 -0.14950E+06
 0.11682001E+03 -0.13036E+06
 0.11687000E+03 -0.94315E+05
 0.11692001E+03 -0.23849E+05
 0.11697000E+03  0.74818E+05
 0.11702000E+03  0.17661E+06
 0.11707001E+03  0.25906E+06
 0.11712000E+03  0.31429E+06
 0.11717001E+03  0.33634E+06
 0.11722000E+03  0.32094E+06
 0.11727000E+03  0.27085E+06
 0.11732001E+03  0.19460E+06
 0.11737000E+03  0.10982E+06
 0.11742001E+03  0.35422E+05
 0.11747000E+03 -0.12311E+05
 0.11752000E+03 -0.20204E+05
 0.11757001E+03  0.99990E+04
 0.11762000E+03  0.55427E+05
 0.11767001E+03  0.86614E+05
 0.11772000E+03  0.89843E+05
 0.11777000E+03  0.70447E+05
 0.11782001E+03  0.41584E+05
 0.11787000E+03  0.13033E+05
 0.11792001E+03 -0.21559E+05
 0.11797000E+03 -0.76489E+05
 0.11802000E+03 -0.14896E+06
 0.11807001E+03 -0.21708E+06
 0.11812000E+03 -0.25083E+06
 0.11817001E+03 -0.23134E+06
 0.11822000E+03 -0.16833E+06
 0.11827000E+03 -0.95160E+05
 0.11832001E+03 -0.45432E+05
 0.11837000E+03 -0.31006E+05
 0.11842001E+03 -0.45704E+05
 0.11847000E+03 -0.73011E+05
 0.11852000E+03 -0.90713E+05
 0.11857001E+03 -0.86930E+05
 0.11862000E+03 -0.71922E+05
 0.11867001E+03 -0.66808E+05
 0.11872000E+03 -0.82820E+05
 0.11877000E+03 -0.11002E+06
 0.11882001E+03 -0.12416E+06
 0.11887000E+03 -0.11045E+06
 0.11892001E+03 -0.73649E+05
 0.11897000E+03 -0.26818E+05
 0.11902000E+03  0.20344E+05
 0.11907001E+03  0.59600E+05
 0.11912000E+03  0.82761E+05
 0.11917001E+03  0.83370E+05
 0.11922000E+03  0.56397E+05
 0.11927000E+03  0.39790E+04
 0.11932001E+03 -0.65885E+05
 0.11937000E+03 -0.14024E+06
 0.11942001E+03 -0.20446E+06
 0.11947000E+03 -0.25249E+06
 0.11952000E+03 -0.28568E+06
 0.11957001E+03 -0.30835E+06
 0.11962000E+03 -0.32098E+06
 0.11967001E+03 -0.31886E+06
 0.11972000E+03 -0.29597E+06
 0.11977000E+03 -0.24858E+06
 0.11982001E+03 -0.18661E+06
 0.11987000E+03 -0.13271E+06
 0.11992001E+03 -0.11212E+06
 0.11997000E+03 -0.14011E+06
 0.12002000E+03 -0.20482E+06
 0.12007001E+03 -0.27264E+06
 0.12012000E+03 -0.31026E+06
 0.12017001E+03 -0.30573E+06
 0.12022000E+03 -0.27328E+06
 0.12027000E+03 -0.23136E+06
 0.12032001E+03 -0.18584E+06
 0.12037000E+03 -0.13195E+06
 0.12042001E+03 -0.60710E+05
 0.12047000E+03  0.35548E+05
 0.12052000E+03  0.15164E+06
 0.12057001E+03  0.26495E+06
 0.12062000E+03  0.35259E+06
 0.12067001E+03  0.40421E+06
 0.12072000E+03  0.42458E+06
 0.12077000E+03  0.42803E+06
 0.12082001E+03  0.42483E+06
 0.12087000E+03  0.41727E+06
 0.12092001E+03  0.40477E+06
 0.12097000E+03  0.38937E+06
 0.12102000E+03  0.37626E+06
 0.12107001E+03  0.36680E+06
 0.12112000E+03  0.35178E+06
 0.12117001E+03  0.31365E+06
 0.12122000E+03  0.24546E+06
 0.12127000E+03  0.16020E+06
 0.12132001E+03  0.75147E+05
 0.12137000E+03  0.50000E+04
 0.12142001E+03 -0.37489E+05
 0.12147000E+03 -0.47383E+05
 0.12152000E+03 -0.34241E+05
 0.12157001E+03 -0.18411E+05
 0.12162000E+03 -0.15675E+05
 0.12167001E+03 -0.29762E+05
 0.12172000E+03 -0.56605E+05
 0.12177000E+03 -0.88545E+05
 0.12182001E+03 -0.11771E+06
 0.12187000E+03 -0.13825E+06
 0.12192001E+03 -0.14634E+06
 0.12197000E+03 -0.14355E+06
 0.12202000E+03 -0.13422E+06
 0.12207001E+03 -0.12316E+06
 0.12212000E+03 -0.11719E+06
 0.12217001E+03 -0.12083E+06
 0.12222000E+03 -0.13333E+06
 0.12227000E+03 -0.14397E+06
 0.12232001E+03 -0.13902E+06
 0.12237000E+03 -0.11840E+06
 0.12242001E+03 -0.94299E+05
 0.12247000E+03 -0.74242E+05
 0.12252000E+03 -0.56004E+05
 0.12257001E+03 -0.37262E+05
 0.12262000E+03 -0.15428E+05
 0.12267001E+03  0.12377E+05
 0.12272000E+03  0.37887E+05
 0.12277000E+03  0.49797E+05
 0.12282001E+03  0.52273E+05
 0.12287000E+03  0.59812E+05
 0.12292001E+03  0.82151E+05
 0.12297000E+03  0.11649E+06
 0.12302000E+03  0.15019E+06
 0.12307001E+03  0.16691E+06
 0.12312000E+03  0.15022E+06
 0.12317001E+03  0.89916E+05
 0.12322000E+03 -0.12040E+05
 0.12327000E+03 -0.14016E+06
 0.12332001E+03 -0.26475E+06
 0.12337000E+03 -0.34964E+06
 0.12342001E+03 -0.37492E+06
 0.12347000E+03 -0.34357E+06
 0.12352000E+03 -0.27898E+06
 0.12357001E+03 -0.21857E+06
 0.12362000E+03 -0.18693E+06
 0.12367001E+03 -0.18359E+06
 0.12372000E+03 -0.18894E+06
 0.12377000E+03 -0.17530E+06
 0.12382001E+03 -0.12364E+06
 0.12387000E+03 -0.35807E+05
 0.12392001E+03  0.65861E+05
 0.12397000E+03  0.15424E+06
 0.12402000E+03  0.21279E+06
 0.12407001E+03  0.24203E+06
 0.12412000E+03  0.25883E+06
 0.12417001E+03  0.28330E+06
 0.12422001E+03  0.32875E+06
 0.12427001E+03  0.39467E+06
 0.12432000E+03  0.46823E+06
 0.12437000E+03  0.53758E+06
 0.12442001E+03  0.59026E+06
 0.12447001E+03  0.61744E+06
 0.12452001E+03  0.62034E+06
 0.12457000E+03  0.60388E+06
 0.12462000E+03  0.57194E+06
 0.12467001E+03  0.52668E+06
 0.12472001E+03  0.47236E+06
 0.12477001E+03  0.41061E+06
 0.12482000E+03  0.33787E+06
 0.12487000E+03  0.24697E+06
 0.12492001E+03  0.13176E+06
 0.12497001E+03  0.42000E+03
 0.12502001E+03 -0.12958E+06
 0.12507000E+03 -0.24362E+06
 0.12512000E+03 -0.32966E+06
 0.12517001E+03 -0.37779E+06
 0.12522001E+03 -0.38360E+06
 0.12527001E+03 -0.34860E+06
 0.12532000E+03 -0.28158E+06
 0.12537000E+03 -0.19799E+06
 0.12542001E+03 -0.10860E+06
 0.12547001E+03 -0.13206E+05
 0.12552001E+03  0.10099E+06
 0.12557000E+03  0.24844E+06
 0.12562000E+03  0.42737E+06
 0.12567001E+03  0.62099E+06
 0.12572001E+03  0.80420E+06
 0.12577001E+03  0.94442E+06
 0.12582000E+03  0.10040E+07
 0.12587000E+03  0.95636E+06
 0.12592001E+03  0.80478E+06
 0.12597001E+03  0.58499E+06
 0.12602001E+03  0.35339E+06
 0.12607000E+03  0.16240E+06
 0.12612000E+03  0.38544E+05
 0.12617001E+03 -0.24619E+05
 0.12622001E+03 -0.55306E+05
 0.12627001E+03 -0.74457E+05
 0.12632000E+03 -0.81904E+05
 0.12637000E+03 -0.65200E+05
 0.12642001E+03 -0.15922E+05
 0.12647001E+03  0.53347E+05
 0.12652001E+03  0.11226E+06
 0.12657000E+03  0.13636E+06
 0.12662000E+03  0.12215E+06
 0.12667001E+03  0.84584E+05
 0.12672001E+03  0.44259E+05
 0.12677001E+03  0.17566E+05
 0.12682000E+03  0.13733E+05
 0.12687000E+03  0.31021E+05
 0.12692001E+03  0.61461E+05
 0.12697001E+03  0.95839E+05
 0.12702001E+03  0.12022E+06
 0.12707000E+03  0.11525E+06
 0.12712000E+03  0.64231E+05
 0.12717001E+03 -0.30960E+05
 0.12722001E+03 -0.15039E+06
 0.12727001E+03 -0.27003E+06
 0.12732000E+03 -0.36581E+06
 0.12737000E+03 -0.42238E+06
 0.12742001E+03 -0.44058E+06
 0.12747001E+03 -0.43096E+06
 0.12752001E+03 -0.40776E+06
 0.12757000E+03 -0.37907E+06
 0.12762000E+03 -0.34275E+06
 0.12767001E+03 -0.29983E+06
 0.12772001E+03 -0.25460E+06
 0.12777001E+03 -0.20712E+06
 0.12782000E+03 -0.15518E+06
 0.12787000E+03 -0.95106E+05
 0.12792001E+03 -0.28165E+05
 0.12797001E+03  0.34320E+05
 0.12802000E+03  0.74488E+05
 0.12806999E+03  0.76321E+05
 0.12812000E+03  0.36657E+05
 0.12817000E+03 -0.31493E+05
 0.12822000E+03 -0.10707E+06
 0.12827000E+03 -0.17688E+06
 0.12831999E+03 -0.24212E+06
 0.12837000E+03 -0.30731E+06
 0.12842000E+03 -0.36803E+06
 0.12847000E+03 -0.40686E+06
 0.12852000E+03 -0.40256E+06
 0.12856999E+03 -0.34987E+06
 0.12862000E+03 -0.26275E+06
 0.12867000E+03 -0.16056E+06
 0.12872000E+03 -0.62337E+05
 0.12877000E+03  0.16895E+05
 0.12881999E+03  0.68231E+05
 0.12887000E+03  0.85430E+05
 0.12892000E+03  0.68401E+05
 0.12897000E+03  0.23304E+05
 0.12902000E+03 -0.41533E+05
 0.12906999E+03 -0.11328E+06
 0.12912000E+03 -0.17772E+06
 0.12917000E+03 -0.22672E+06
 0.12922000E+03 -0.25847E+06
 0.12927000E+03 -0.27610E+06
 0.12931999E+03 -0.28900E+06
 0.12937000E+03 -0.30732E+06
 0.12942000E+03 -0.33695E+06
 0.12947000E+03 -0.37654E+06
 0.12952000E+03 -0.41373E+06
 0.12956999E+03 -0.43476E+06
 0.12962000E+03 -0.43587E+06
 0.12967000E+03 -0.42057E+06
 0.12972000E+03 -0.39458E+06
 0.12977000E+03 -0.36399E+06
 0.12981999E+03 -0.33384E+06
 0.12987000E+03 -0.31018E+06
 0.12992000E+03 -0.30027E+06
 0.12997000E+03 -0.30944E+06
 0.13002000E+03 -0.33656E+06
 0.13006999E+03 -0.36949E+06
 0.13012000E+03 -0.39297E+06
 0.13017000E+03 -0.39386E+06
 0.13022000E+03 -0.35936E+06
 0.13027000E+03 -0.28288E+06
 0.13031999E+03 -0.16932E+06
 0.13037000E+03 -0.34442E+05
 0.13042000E+03  0.10389E+06
 0.13047000E+03  0.23001E+06
 0.13052000E+03  0.32681E+06
 0.13056999E+03  0.38197E+06
 0.13062000E+03  0.39468E+06
 0.13067000E+03  0.37370E+06
 0.13072000E+03  0.33568E+06
 0.13077000E+03  0.30103E+06
 0.13081999E+03  0.28487E+06
 0.13087000E+03  0.29158E+06
 0.13092000E+03  0.31704E+06
 0.13097000E+03  0.35339E+06
 0.13102000E+03  0.39344E+06
 0.13106999E+03  0.43173E+06
 0.13112000E+03  0.46188E+06
 0.13117000E+03  0.47931E+06
 0.13122000E+03  0.48305E+06
 0.13127000E+03  0.47417E+06
 0.13131999E+03  0.45677E+06
 0.13137000E+03  0.43055E+06
 0.13142000E+03  0.39219E+06
 0.13147000E+03  0.34375E+06
 0.13152000E+03  0.29262E+06
 0.13156999E+03  0.24885E+06
 0.13162000E+03  0.21610E+06
 0.13167000E+03  0.18682E+06
 0.13172000E+03  0.14625E+06
 0.13177000E+03  0.81886E+05
 0.13181999E+03 -0.97880E+04
 0.13187000E+03 -0.12029E+06
 0.13192000E+03 -0.22574E+06
 0.13197000E+03 -0.30042E+06
 0.13202000E+03 -0.33200E+06
 0.13206999E+03 -0.32414E+06
 0.13212000E+03 -0.29357E+06
 0.13217000E+03 -0.25983E+06
 0.13222000E+03 -0.23590E+06
 0.13227000E+03 -0.22519E+06
 0.13231999E+03 -0.22408E+06
 0.13237000E+03 -0.22277E+06
 0.13242000E+03 -0.21003E+06
 0.13247000E+03 -0.18055E+06
 0.13252000E+03 -0.13367E+06
 0.13256999E+03 -0.71973E+05
 0.13262000E+03 -0.93300E+03
 0.13267000E+03  0.70161E+05
 0.13272000E+03  0.12760E+06
 0.13277000E+03  0.15956E+06
 0.13281999E+03  0.16233E+06
 0.13287000E+03  0.14068E+06
 0.13292000E+03  0.10808E+06
 0.13297000E+03  0.85042E+05
 0.13302000E+03  0.89351E+05
 0.13306999E+03  0.12864E+06
 0.13312000E+03  0.19932E+06
 0.13317000E+03  0.28566E+06
 0.13322000E+03  0.36835E+06
 0.13327000E+03  0.43498E+06
 0.13331999E+03  0.47936E+06
 0.13337000E+03  0.50018E+06
 0.13342000E+03  0.49940E+06
 0.13347000E+03  0.47801E+06
 0.13352000E+03  0.43857E+06
 0.13356999E+03  0.38824E+06
 0.13362000E+03  0.33469E+06
 0.13367000E+03  0.28899E+06
 0.13372000E+03  0.26652E+06
 0.13377000E+03  0.27623E+06
 0.13381999E+03  0.31248E+06
 0.13387000E+03  0.35444E+06
 0.13392000E+03  0.37791E+06
 0.13397000E+03  0.36931E+06
 0.13402000E+03  0.33079E+06
 0.13406999E+03  0.27516E+06
 0.13412000E+03  0.21612E+06
 0.13417000E+03  0.16695E+06
 0.13422000E+03  0.13401E+06
 0.13427000E+03  0.11163E+06
 0.13431999E+03  0.92949E+05
 0.13437000E+03  0.74955E+05
 0.13442000E+03  0.57609E+05
 0.13447000E+03  0.41721E+05
 0.13452000E+03  0.25106E+05
 0.13456999E+03  0.73410E+04
 0.13462000E+03 -0.10243E+05
 0.13467000E+03 -0.26589E+05
 0.13472000E+03 -0.40000E+05
 0.13477000E+03 -0.51782E+05
 0.13481999E+03 -0.67506E+05
 0.13487000E+03 -0.94354E+05
 0.13492000E+03 -0.13444E+06
 0.13497000E+03 -0.18156E+06
 0.13502000E+03 -0.22521E+06
 0.13506999E+03 -0.25637E+06
 0.13512000E+03 -0.27373E+06
 0.13517000E+03 -0.28380E+06
 0.13522000E+03 -0.29650E+06
 0.13527000E+03 -0.31645E+06
 0.13531999E+03 -0.33546E+06
 0.13537000E+03 -0.33808E+06
 0.13542000E+03 -0.30968E+06
 0.13547000E+03 -0.24699E+06
 0.13552000E+03 -0.16783E+06
 0.13556999E+03 -0.98775E+05
 0.13562000E+03 -0.58765E+05
 0.13567000E+03 -0.56514E+05
 0.13572000E+03 -0.86323E+05
 0.13577000E+03 -0.12868E+06
 0.13581999E+03 -0.16324E+06
 0.13587000E+03 -0.17835E+06
 0.13592000E+03 -0.17329E+06
 0.13597000E+03 -0.15452E+06
 0.13602000E+03 -0.12905E+06
 0.13606999E+03 -0.10281E+06
 0.13612000E+03 -0.76759E+05
 0.13617000E+03 -0.47088E+05
 0.13622000E+03 -0.10880E+05
 0.13627000E+03  0.36107E+05
 0.13631999E+03  0.10003E+06
 0.13637000E+03  0.18363E+06
 0.13642000E+03  0.28169E+06
 0.13647000E+03  0.37800E+06
 0.13652000E+03  0.44930E+06
 0.13656999E+03  0.47792E+06
 0.13662000E+03  0.45867E+06
 0.13667000E+03  0.39903E+06
 0.13672000E+03  0.31507E+06
 0.13677000E+03  0.22042E+06
 0.13681999E+03  0.12137E+06
 0.13687000E+03  0.23316E+05
 0.13692000E+03 -0.63641E+05
 0.13697000E+03 -0.12756E+06
 0.13702000E+03 -0.15847E+06
 0.13706999E+03 -0.15481E+06
 0.13712000E+03 -0.12875E+06
 0.13717000E+03 -0.97772E+05
 0.13722000E+03 -0.75948E+05
 0.13727000E+03 -0.66142E+05
 0.13731999E+03 -0.60842E+05
 0.13737000E+03 -0.53045E+05
 0.13742000E+03 -0.39211E+05
 0.13747000E+03 -0.20300E+05
 0.13752000E+03  0.87900E+03
 0.13756999E+03  0.22410E+05
 0.13762000E+03  0.44173E+05
 0.13767000E+03  0.66548E+05
 0.13772000E+03  0.84226E+05
 0.13777000E+03  0.88559E+05
 0.13781999E+03  0.70256E+05
 0.13787000E+03  0.22445E+05
 0.13792000E+03 -0.50904E+05
 0.13797000E+03 -0.13253E+06
 0.13802000E+03 -0.19999E+06
 0.13806999E+03 -0.23898E+06
 0.13812000E+03 -0.24791E+06
 0.13817000E+03 -0.23829E+06
 0.13822000E+03 -0.22739E+06
 0.13827000E+03 -0.22358E+06
 0.13831999E+03 -0.22548E+06
 0.13837000E+03 -0.22618E+06
 0.13842000E+03 -0.21830E+06
 0.13847000E+03 -0.20069E+06
 0.13852000E+03 -0.17482E+06
 0.13856999E+03 -0.14052E+06
 0.13862000E+03 -0.97626E+05
 0.13867000E+03 -0.48338E+05
 0.13872000E+03  0.23000E+04
 0.13877000E+03  0.45517E+05
 0.13881999E+03  0.70131E+05
 0.13887000E+03  0.67940E+05
 0.13892000E+03  0.39627E+05
 0.13897000E+03 -0.25090E+04
 0.13902000E+03 -0.40469E+05
 0.13906999E+03 -0.60604E+05
 0.13912000E+03 -0.57631E+05
 0.13917000E+03 -0.33983E+05
 0.13922000E+03  0.28280E+04
 0.13927000E+03  0.43954E+05
 0.13931999E+03  0.79124E+05
 0.13937000E+03  0.10200E+06
 0.13942000E+03  0.11703E+06
 0.13947000E+03  0.13119E+06
 0.13952000E+03  0.14855E+06
 0.13956999E+03  0.17167E+06
 0.13962000E+03  0.20126E+06
 0.13967000E+03  0.23779E+06
 0.13972000E+03  0.27658E+06
 0.13977000E+03  0.30761E+06
 0.13981999E+03  0.32404E+06
 0.13987000E+03  0.32343E+06
 0.13992000E+03  0.30700E+06
 0.13997000E+03  0.27915E+06
 0.14002000E+03  0.24157E+06
 0.14006999E+03  0.19124E+06
 0.14012000E+03  0.12620E+06
 0.14017000E+03  0.49376E+05
 0.14022000E+03 -0.33049E+05
 0.14027000E+03 -0.11520E+06
 0.14031999E+03 -0.19060E+06
 0.14037000E+03 -0.25153E+06
 0.14042000E+03 -0.29492E+06
 0.14047000E+03 -0.32095E+06
 0.14052000E+03 -0.32722E+06
 0.14056999E+03 -0.31335E+06
 0.14062000E+03 -0.28506E+06
 0.14067000E+03 -0.25027E+06
 0.14072000E+03 -0.21572E+06
 0.14077000E+03 -0.18659E+06
 0.14081999E+03 -0.16522E+06
 0.14087000E+03 -0.14726E+06
 0.14092000E+03 -0.12306E+06
 0.14097000E+03 -0.85694E+05
 0.14102000E+03 -0.35780E+05
 0.14106999E+03  0.18950E+05
 0.14112000E+03  0.67955E+05
 0.14117000E+03  0.10275E+06
 0.14122000E+03  0.11847E+06
 0.14127000E+03  0.11474E+06
 0.14131999E+03  0.94825E+05
 0.14137000E+03  0.62322E+05
 0.14142000E+03  0.22700E+05
 0.14147000E+03 -0.12935E+05
 0.14152000E+03 -0.32145E+05
 0.14156999E+03 -0.30835E+05
 0.14162000E+03 -0.15131E+05
 0.14167000E+03  0.46970E+04
 0.14172000E+03  0.17702E+05
 0.14177000E+03  0.17597E+05
 0.14181999E+03  0.73420E+04
 0.14187000E+03 -0.46140E+04
 0.14192000E+03 -0.62470E+04
 0.14197000E+03  0.11584E+05
 0.14202000E+03  0.48247E+05
 0.14206999E+03  0.96284E+05
 0.14212000E+03  0.14732E+06
 0.14217000E+03  0.19561E+06
 0.14222000E+03  0.23603E+06
 0.14227000E+03  0.26423E+06
 0.14231999E+03  0.27823E+06
 0.14237000E+03  0.27908E+06
 0.14242000E+03  0.26938E+06
 0.14247000E+03  0.25449E+06
 0.14252000E+03  0.24287E+06
 0.14256999E+03  0.24032E+06
 0.14262000E+03  0.24796E+06
 0.14267000E+03  0.26310E+06
 0.14272000E+03  0.28199E+06
 0.14277000E+03  0.29995E+06
 0.14281999E+03  0.30906E+06
 0.14287000E+03  0.29823E+06
 0.14292000E+03  0.25988E+06
 0.14297000E+03  0.19646E+06
 0.14302000E+03  0.12222E+06
 0.14306999E+03  0.59459E+05
 0.14312000E+03  0.25391E+05
 0.14317000E+03  0.25808E+05
 0.14322000E+03  0.56750E+05
 0.14327000E+03  0.10730E+06
 0.14331999E+03  0.16497E+06
 0.14337000E+03  0.21993E+06
 0.14342000E+03  0.26502E+06
 0.14347000E+03  0.29526E+06
 0.14352000E+03  0.30759E+06
 0.14356999E+03  0.29862E+06
 0.14362000E+03  0.26589E+06
 0.14367000E+03  0.21111E+06
 0.14372000E+03  0.14092E+06
 0.14377000E+03  0.65826E+05
 0.14381999E+03 -0.38260E+04
 0.14387000E+03 -0.60158E+05
 0.14392000E+03 -0.10002E+06
 0.14397000E+03 -0.12856E+06
 0.14402000E+03 -0.15606E+06
 0.14406999E+03 -0.18920E+06
 0.14412000E+03 -0.22536E+06
 0.14417000E+03 -0.25312E+06
 0.14422000E+03 -0.25739E+06
 0.14427000E+03 -0.22834E+06
 0.14431999E+03 -0.16856E+06
 0.14437000E+03 -0.92843E+05
 0.14442000E+03 -0.20761E+05
 0.14447000E+03  0.34232E+05
 0.14452000E+03  0.69268E+05
 0.14456999E+03  0.91164E+05
 0.14462000E+03  0.11181E+06
 0.14467000E+03  0.13972E+06
 0.14472000E+03  0.17517E+06
 0.14477000E+03  0.21114E+06
 0.14481999E+03  0.23868E+06
 0.14487000E+03  0.25054E+06
 0.14492000E+03  0.24328E+06
 0.14497000E+03  0.21821E+06
 0.14502000E+03  0.17740E+06
 0.14506999E+03  0.12294E+06
 0.14512000E+03  0.59097E+05
 0.14517000E+03 -0.90480E+04
 0.14522000E+03 -0.76548E+05
 0.14527000E+03 -0.13720E+06
 0.14531999E+03 -0.18522E+06
 0.14537000E+03 -0.21856E+06
 0.14542000E+03 -0.23964E+06
 0.14547000E+03 -0.25336E+06
 0.14552000E+03 -0.26521E+06
 0.14556999E+03 -0.27932E+06
 0.14562000E+03 -0.29430E+06
 0.14567000E+03 -0.30344E+06
 0.14572000E+03 -0.29972E+06
 0.14577000E+03 -0.28036E+06
 0.14581999E+03 -0.25020E+06
 0.14587000E+03 -0.21997E+06
 0.14592000E+03 -0.19848E+06
 0.14597000E+03 -0.18576E+06
 0.14602000E+03 -0.17343E+06
 0.14606999E+03 -0.15037E+06
 0.14612000E+03 -0.10770E+06
 0.14617000E+03 -0.42056E+05
 0.14622000E+03  0.42002E+05
 0.14627000E+03  0.12979E+06
 0.14631999E+03  0.19921E+06
 0.14637000E+03  0.23012E+06
 0.14642000E+03  0.21252E+06
 0.14647000E+03  0.15118E+06
 0.14652000E+03  0.63575E+05
 0.14656999E+03 -0.30100E+05
 0.14662000E+03 -0.11519E+06
 0.14667000E+03 -0.18812E+06
 0.14672000E+03 -0.25344E+06
 0.14677000E+03 -0.31626E+06
 0.14681999E+03 -0.37989E+06
 0.14687000E+03 -0.44373E+06
 0.14692000E+03 -0.50523E+06
 0.14697000E+03 -0.56172E+06
 0.14702000E+03 -0.60907E+06
 0.14706999E+03 -0.64252E+06
 0.14712000E+03 -0.65800E+06
 0.14717000E+03 -0.65467E+06
 0.14722000E+03 -0.63764E+06
 0.14727000E+03 -0.61709E+06
 0.14731999E+03 -0.60067E+06
 0.14737000E+03 -0.58715E+06
 0.14742000E+03 -0.56590E+06
 0.14747000E+03 -0.52026E+06
 0.14752000E+03 -0.43783E+06
 0.14756999E+03 -0.31712E+06
 0.14762000E+03 -0.16993E+06
 0.14767000E+03 -0.16856E+05
 0.14772000E+03  0.12483E+06
 0.14777000E+03  0.24679E+06
 0.14781999E+03  0.34644E+06
 0.14787000E+03  0.42100E+06
 0.14792000E+03  0.46839E+06
 0.14797000E+03  0.49021E+06
 0.14802000E+03  0.48827E+06
 0.14806999E+03  0.46543E+06
 0.14812000E+03  0.42730E+06
 0.14817000E+03  0.37999E+06
 0.14822000E+03  0.32872E+06
 0.14827000E+03  0.27668E+06
 0.14831999E+03  0.22518E+06
 0.14837000E+03  0.17624E+06
 0.14842000E+03  0.13341E+06
 0.14847000E+03  0.98622E+05
 0.14852000E+03  0.70818E+05
 0.14856999E+03  0.45324E+05
 0.14862000E+03  0.15024E+05
 0.14867000E+03 -0.24181E+05
 0.14872000E+03 -0.70104E+05
 0.14877000E+03 -0.11518E+06
 0.14881999E+03 -0.14719E+06
 0.14887000E+03 -0.15286E+06
 0.14892000E+03 -0.12777E+06
 0.14897000E+03 -0.78132E+05
 0.14902000E+03 -0.14913E+05
 0.14906999E+03  0.49307E+05
