-0.38800001E+01 -0.67129E+05
-0.38300002E+01 -0.62201E+05
-0.37800002E+01 -0.56432E+05
-0.37300000E+01 -0.49324E+05
-0.36800001E+01 -0.40771E+05
-0.36300001E+01 -0.31127E+05
-0.35800002E+01 -0.20804E+05
-0.35300002E+01 -0.10730E+05
-0.34800000E+01 -0.14430E+04
-0.34300001E+01  0.75720E+04
-0.33800001E+01  0.16432E+05
-0.33300002E+01  0.24813E+05
-0.32800002E+01  0.32809E+05
-0.32300000E+01  0.40707E+05
-0.31800001E+01  0.48560E+05
-0.31300001E+01  0.56095E+05
-0.30800002E+01  0.62851E+05
-0.30300002E+01  0.68829E+05
-0.29800000E+01  0.74453E+05
-0.29300001E+01  0.79284E+05
-0.28800001E+01  0.82727E+05
-0.28299999E+01  0.84905E+05
-0.27800002E+01  0.86112E+05
-0.27300000E+01  0.87140E+05
-0.26800001E+01  0.88361E+05
-0.26300001E+01  0.89186E+05
-0.25799999E+01  0.89261E+05
-0.25300002E+01  0.88263E+05
-0.24800000E+01  0.86016E+05
-0.24300001E+01  0.82447E+05
-0.23800001E+01  0.77361E+05
-0.23299999E+01  0.71417E+05
-0.22800002E+01  0.65425E+05
-0.22300000E+01  0.59295E+05
-0.21800001E+01  0.52523E+05
-0.21300001E+01  0.45225E+05
-0.20799999E+01  0.38366E+05
-0.20300002E+01  0.32539E+05
-0.19800001E+01  0.27477E+05
-0.19300001E+01  0.22916E+05
-0.18800001E+01  0.19087E+05
-0.18300002E+01  0.16187E+05
-0.17800000E+01  0.13932E+05
-0.17300000E+01  0.12026E+05
-0.16800001E+01  0.10389E+05
-0.16300001E+01  0.90270E+04
-0.15800002E+01  0.77770E+04
-0.15300000E+01  0.63250E+04
-0.14800000E+01  0.48310E+04
-0.14300001E+01  0.35410E+04
-0.13800001E+01  0.24540E+04
-0.13300002E+01  0.17670E+04
-0.12800000E+01  0.16950E+04
-0.12300000E+01  0.18910E+04
-0.11800001E+01  0.14590E+04
-0.11300001E+01 -0.33500E+03
-0.10800002E+01 -0.35800E+04
-0.10300000E+01 -0.79030E+04
-0.98000002E+00 -0.12624E+05
-0.93000007E+00 -0.16954E+05
-0.88000011E+00 -0.20274E+05
-0.83000016E+00 -0.22154E+05
-0.77999997E+00 -0.22601E+05
-0.73000002E+00 -0.22010E+05
-0.68000007E+00 -0.20561E+05
-0.63000011E+00 -0.17919E+05
-0.58000016E+00 -0.14074E+05
-0.52999997E+00 -0.95850E+04
-0.48000002E+00 -0.48470E+04
-0.43000007E+00 -0.39000E+03
-0.38000011E+00  0.33810E+04
-0.33000016E+00  0.65020E+04
-0.27999997E+00  0.92310E+04
-0.23000002E+00  0.11843E+05
-0.18000007E+00  0.14423E+05
-0.13000011E+00  0.16860E+05
-0.80000162E-01  0.18820E+05
-0.29999971E-01  0.20140E+05
 0.19999981E-01  0.20693E+05
 0.69999933E-01  0.20542E+05
 0.11999989E+00  0.19593E+05
 0.17000008E+00  0.17203E+05
 0.21999979E+00  0.13227E+05
 0.26999998E+00  0.83630E+04
 0.32000017E+00  0.34880E+04
 0.36999989E+00 -0.12030E+04
 0.42000008E+00 -0.58320E+04
 0.46999979E+00 -0.10429E+05
 0.51999998E+00 -0.15168E+05
 0.57000017E+00 -0.20329E+05
 0.61999989E+00 -0.26241E+05
 0.67000008E+00 -0.32563E+05
 0.71999979E+00 -0.38490E+05
 0.76999998E+00 -0.43877E+05
 0.82000017E+00 -0.48914E+05
 0.86999989E+00 -0.53297E+05
 0.92000008E+00 -0.56877E+05
 0.96999979E+00 -0.59624E+05
 0.10200000E+01 -0.61023E+05
 0.10700002E+01 -0.61402E+05
 0.11199999E+01 -0.61508E+05
 0.11700001E+01 -0.61409E+05
 0.12199998E+01 -0.61232E+05
 0.12700000E+01 -0.60779E+05
 0.13200002E+01 -0.60114E+05
 0.13699999E+01 -0.59666E+05
 0.14200001E+01 -0.58881E+05
 0.14699998E+01 -0.57269E+05
 0.15200000E+01 -0.55067E+05
 0.15700002E+01 -0.52127E+05
 0.16199999E+01 -0.48003E+05
 0.16700001E+01 -0.42778E+05
 0.17199998E+01 -0.36837E+05
 0.17700000E+01 -0.30634E+05
 0.18200002E+01 -0.24242E+05
 0.18699999E+01 -0.17664E+05
 0.19200001E+01 -0.11423E+05
 0.19699998E+01 -0.57000E+04
 0.20200000E+01 -0.44900E+03
 0.20700002E+01  0.44000E+04
 0.21199999E+01  0.91560E+04
 0.21700001E+01  0.14214E+05
 0.22199998E+01  0.19311E+05
 0.22700000E+01  0.23686E+05
 0.23200002E+01  0.27209E+05
 0.23699999E+01  0.30058E+05
 0.24200001E+01  0.32362E+05
 0.24699998E+01  0.34475E+05
 0.25200000E+01  0.36777E+05
 0.25700002E+01  0.39167E+05
 0.26199999E+01  0.41200E+05
 0.26700001E+01  0.42398E+05
 0.27199998E+01  0.42561E+05
 0.27700000E+01  0.41931E+05
 0.28200002E+01  0.40636E+05
 0.28699999E+01  0.38573E+05
 0.29200001E+01  0.35846E+05
 0.29699998E+01  0.32893E+05
 0.30200000E+01  0.30028E+05
 0.30700002E+01  0.27259E+05
 0.31199999E+01  0.24771E+05
 0.31700001E+01  0.23215E+05
 0.32199998E+01  0.23142E+05
 0.32700000E+01  0.24240E+05
 0.33200002E+01  0.25637E+05
 0.33699999E+01  0.26653E+05
 0.34200001E+01  0.26729E+05
 0.34699998E+01  0.25813E+05
 0.35200000E+01  0.24470E+05
 0.35700002E+01  0.23079E+05
 0.36199999E+01  0.22093E+05
 0.36700001E+01  0.21856E+05
 0.37199998E+01  0.22431E+05
 0.37700000E+01  0.23948E+05
 0.38200002E+01  0.25789E+05
 0.38699999E+01  0.26797E+05
 0.39200001E+01  0.26389E+05
 0.39699998E+01  0.24718E+05
 0.40200000E+01  0.22255E+05
 0.40700002E+01  0.19447E+05
 0.41199999E+01  0.16441E+05
 0.41700001E+01  0.12974E+05
 0.42200003E+01  0.87330E+04
 0.42700005E+01  0.38610E+04
 0.43199997E+01 -0.13760E+04
 0.43699999E+01 -0.69650E+04
 0.44200001E+01 -0.12551E+05
 0.44700003E+01 -0.17737E+05
 0.45200005E+01 -0.22526E+05
 0.45699997E+01 -0.26951E+05
 0.46199999E+01 -0.31312E+05
 0.46700001E+01 -0.35880E+05
 0.47200003E+01 -0.40653E+05
 0.47700005E+01 -0.45631E+05
 0.48199997E+01 -0.50607E+05
 0.48699999E+01 -0.55385E+05
 0.49200001E+01 -0.59730E+05
 0.49700003E+01 -0.63356E+05
 0.50200005E+01 -0.66208E+05
 0.50699997E+01 -0.68494E+05
 0.51199999E+01 -0.70613E+05
 0.51700001E+01 -0.72806E+05
 0.52200003E+01 -0.75071E+05
 0.52700005E+01 -0.77077E+05
 0.53199997E+01 -0.78300E+05
 0.53699999E+01 -0.78061E+05
 0.54200001E+01 -0.75897E+05
 0.54700003E+01 -0.71750E+05
 0.55200005E+01 -0.65578E+05
 0.55699997E+01 -0.57965E+05
 0.56199999E+01 -0.49554E+05
 0.56700001E+01 -0.40532E+05
 0.57200003E+01 -0.31296E+05
 0.57700005E+01 -0.22164E+05
 0.58199997E+01 -0.13298E+05
 0.58699999E+01 -0.51200E+04
 0.59200001E+01  0.21300E+04
 0.59700003E+01  0.85110E+04
 0.60200005E+01  0.13819E+05
 0.60699997E+01  0.18204E+05
 0.61199999E+01  0.21853E+05
 0.61700001E+01  0.24405E+05
 0.62200003E+01  0.26053E+05
 0.62700005E+01  0.27282E+05
 0.63199997E+01  0.27886E+05
 0.63699999E+01  0.27517E+05
 0.64200001E+01  0.26510E+05
 0.64700003E+01  0.25420E+05
 0.65200005E+01  0.24115E+05
 0.65699997E+01  0.22257E+05
 0.66199999E+01  0.20282E+05
 0.66700001E+01  0.18494E+05
 0.67200003E+01  0.16759E+05
 0.67700005E+01  0.15390E+05
 0.68199997E+01  0.14561E+05
 0.68699999E+01  0.14248E+05
 0.69200001E+01  0.14675E+05
 0.69700003E+01  0.15865E+05
 0.70200005E+01  0.17539E+05
 0.70699997E+01  0.19296E+05
 0.71199999E+01  0.20817E+05
 0.71700001E+01  0.22041E+05
 0.72200003E+01  0.22945E+05
 0.72700005E+01  0.23619E+05
 0.73199997E+01  0.24257E+05
 0.73699999E+01  0.24909E+05
 0.74200001E+01  0.25650E+05
 0.74700003E+01  0.26262E+05
 0.75200005E+01  0.26329E+05
 0.75699997E+01  0.25745E+05
 0.76199999E+01  0.24521E+05
 0.76700001E+01  0.22830E+05
 0.77200003E+01  0.20919E+05
 0.77700005E+01  0.18812E+05
 0.78199997E+01  0.16584E+05
 0.78699999E+01  0.14176E+05
 0.79200001E+01  0.11550E+05
 0.79700003E+01  0.88880E+04
 0.80200005E+01  0.63120E+04
 0.80699997E+01  0.39730E+04
 0.81199999E+01  0.16450E+04
 0.81700001E+01 -0.82800E+03
 0.82200003E+01 -0.30070E+04
 0.82700005E+01 -0.43420E+04
 0.83199997E+01 -0.45410E+04
 0.83699999E+01 -0.38170E+04
 0.84200001E+01 -0.25230E+04
 0.84700003E+01 -0.86600E+03
 0.85200005E+01  0.13420E+04
 0.85699997E+01  0.45020E+04
 0.86199999E+01  0.87010E+04
 0.86700001E+01  0.13904E+05
 0.87200003E+01  0.20058E+05
 0.87700005E+01  0.26954E+05
 0.88199997E+01  0.34181E+05
 0.88699999E+01  0.41226E+05
 0.89200001E+01  0.47488E+05
 0.89700003E+01  0.52377E+05
 0.90200005E+01  0.55648E+05
 0.90699997E+01  0.57246E+05
 0.91199999E+01  0.57190E+05
 0.91700001E+01  0.55615E+05
 0.92200003E+01  0.52696E+05
 0.92700005E+01  0.48788E+05
 0.93199997E+01  0.44022E+05
 0.93699999E+01  0.38244E+05
 0.94200001E+01  0.31582E+05
 0.94700003E+01  0.24369E+05
 0.95200005E+01  0.16838E+05
 0.95699997E+01  0.91360E+04
 0.96199999E+01  0.16700E+04
 0.96700001E+01 -0.52920E+04
 0.97200003E+01 -0.11840E+05
 0.97700005E+01 -0.18046E+05
 0.98199997E+01 -0.23971E+05
 0.98699999E+01 -0.29438E+05
 0.99200001E+01 -0.34238E+05
 0.99700003E+01 -0.38273E+05
 0.10020000E+02 -0.41195E+05
 0.10070000E+02 -0.42653E+05
 0.10120000E+02 -0.42467E+05
 0.10170000E+02 -0.40591E+05
 0.10220000E+02 -0.37329E+05
 0.10270000E+02 -0.33190E+05
 0.10320000E+02 -0.28623E+05
 0.10370000E+02 -0.24162E+05
 0.10420000E+02 -0.20459E+05
 0.10470000E+02 -0.17715E+05
 0.10520000E+02 -0.15252E+05
 0.10570000E+02 -0.12727E+05
 0.10620000E+02 -0.10509E+05
 0.10670000E+02 -0.85950E+04
 0.10720000E+02 -0.70840E+04
 0.10770000E+02 -0.64080E+04
 0.10820000E+02 -0.67860E+04
 0.10870000E+02 -0.80170E+04
 0.10920000E+02 -0.97410E+04
 0.10970000E+02 -0.11674E+05
 0.11020000E+02 -0.13341E+05
 0.11070000E+02 -0.14773E+05
 0.11120000E+02 -0.16589E+05
 0.11170000E+02 -0.19390E+05
 0.11220000E+02 -0.23317E+05
 0.11270000E+02 -0.27730E+05
 0.11320000E+02 -0.31743E+05
 0.11370000E+02 -0.34677E+05
 0.11420000E+02 -0.36233E+05
 0.11470000E+02 -0.36340E+05
 0.11520000E+02 -0.35248E+05
 0.11570000E+02 -0.33434E+05
 0.11620000E+02 -0.31197E+05
 0.11670000E+02 -0.28819E+05
 0.11720000E+02 -0.26481E+05
 0.11770000E+02 -0.24269E+05
 0.11820000E+02 -0.22285E+05
 0.11870000E+02 -0.20754E+05
 0.11920000E+02 -0.19841E+05
 0.11970000E+02 -0.19093E+05
 0.12020000E+02 -0.17827E+05
 0.12070000E+02 -0.15899E+05
 0.12120000E+02 -0.13473E+05
 0.12170001E+02 -0.10514E+05
 0.12220000E+02 -0.72560E+04
 0.12270000E+02 -0.41380E+04
 0.12320001E+02 -0.11910E+04
 0.12370000E+02  0.14790E+04
 0.12420001E+02  0.34020E+04
 0.12470000E+02  0.45210E+04
 0.12520000E+02  0.54430E+04
 0.12570001E+02  0.68200E+04
 0.12620000E+02  0.89240E+04
 0.12670001E+02  0.11631E+05
 0.12720000E+02  0.14805E+05
 0.12770000E+02  0.18302E+05
 0.12820001E+02  0.21967E+05
 0.12870000E+02  0.25694E+05
 0.12920001E+02  0.29088E+05
 0.12970000E+02  0.31506E+05
 0.13020000E+02  0.32596E+05
 0.13070001E+02  0.32637E+05
 0.13120000E+02  0.32144E+05
 0.13170001E+02  0.31520E+05
 0.13220000E+02  0.30890E+05
 0.13270000E+02  0.30134E+05
 0.13320001E+02  0.29405E+05
 0.13370000E+02  0.28907E+05
 0.13420001E+02  0.28607E+05
 0.13470000E+02  0.28683E+05
 0.13520000E+02  0.29415E+05
 0.13570001E+02  0.30780E+05
 0.13620000E+02  0.32452E+05
 0.13670001E+02  0.34029E+05
 0.13720000E+02  0.35222E+05
 0.13770000E+02  0.36315E+05
 0.13820001E+02  0.37976E+05
 0.13870000E+02  0.40250E+05
 0.13920001E+02  0.42694E+05
 0.13970000E+02  0.44918E+05
 0.14020000E+02  0.46580E+05
 0.14070001E+02  0.47086E+05
 0.14120000E+02  0.46198E+05
 0.14170001E+02  0.44283E+05
 0.14220000E+02  0.41577E+05
 0.14270000E+02  0.38525E+05
 0.14320001E+02  0.35742E+05
 0.14370000E+02  0.33411E+05
 0.14420001E+02  0.31149E+05
 0.14470000E+02  0.28457E+05
 0.14520000E+02  0.25157E+05
 0.14570001E+02  0.21241E+05
 0.14620000E+02  0.16860E+05
 0.14670001E+02  0.12434E+05
 0.14720000E+02  0.80910E+04
 0.14770000E+02  0.35410E+04
 0.14820001E+02 -0.11820E+04
 0.14870000E+02 -0.60090E+04
 0.14920001E+02 -0.10962E+05
 0.14970000E+02 -0.15919E+05
 0.15020000E+02 -0.20702E+05
 0.15070001E+02 -0.25066E+05
 0.15120000E+02 -0.29200E+05
 0.15170001E+02 -0.33586E+05
 0.15220000E+02 -0.38395E+05
 0.15270000E+02 -0.43444E+05
 0.15320001E+02 -0.48671E+05
 0.15370000E+02 -0.54244E+05
 0.15420001E+02 -0.59945E+05
 0.15470000E+02 -0.65343E+05
 0.15520000E+02 -0.70386E+05
 0.15570001E+02 -0.75308E+05
 0.15620000E+02 -0.80272E+05
 0.15670001E+02 -0.85372E+05
 0.15720000E+02 -0.90373E+05
 0.15770000E+02 -0.94627E+05
 0.15820001E+02 -0.97424E+05
 0.15870000E+02 -0.98353E+05
 0.15920001E+02 -0.97837E+05
 0.15970000E+02 -0.96193E+05
 0.16020000E+02 -0.93203E+05
 0.16070000E+02 -0.89002E+05
 0.16119999E+02 -0.83685E+05
 0.16170002E+02 -0.77397E+05
 0.16220001E+02 -0.70364E+05
 0.16270000E+02 -0.62409E+05
 0.16320000E+02 -0.53669E+05
 0.16369999E+02 -0.44746E+05
 0.16420002E+02 -0.36102E+05
 0.16470001E+02 -0.27955E+05
 0.16520000E+02 -0.20593E+05
 0.16570000E+02 -0.13275E+05
 0.16619999E+02 -0.40000E+04
 0.16670002E+02  0.97110E+04
 0.16720001E+02  0.29181E+05
 0.16770000E+02  0.53850E+05
 0.16820000E+02  0.81575E+05
 0.16869999E+02  0.10361E+06
 0.16920002E+02  0.11199E+06
 0.16970001E+02  0.10827E+06
 0.17020000E+02  0.97327E+05
 0.17070000E+02  0.88353E+05
 0.17119999E+02  0.94565E+05
 0.17170002E+02  0.11354E+06
 0.17220001E+02  0.12957E+06
 0.17270000E+02  0.14081E+06
 0.17320000E+02  0.14477E+06
 0.17369999E+02  0.13648E+06
 0.17420002E+02  0.12306E+06
 0.17470001E+02  0.11604E+06
 0.17520000E+02  0.12011E+06
 0.17570000E+02  0.13417E+06
 0.17619999E+02  0.17213E+06
 0.17670002E+02  0.22208E+06
 0.17720001E+02  0.25586E+06
 0.17770000E+02  0.25645E+06
 0.17820000E+02  0.25855E+06
 0.17869999E+02  0.29718E+06
 0.17920002E+02  0.30072E+06
 0.17970001E+02  0.25415E+06
 0.18020000E+02  0.16554E+06
 0.18070000E+02  0.38757E+05
 0.18119999E+02 -0.99211E+05
 0.18170002E+02 -0.21143E+06
 0.18220001E+02 -0.24262E+06
 0.18270000E+02 -0.30465E+06
 0.18320000E+02 -0.47848E+06
 0.18369999E+02 -0.68799E+06
 0.18420002E+02 -0.85086E+06
 0.18470001E+02 -0.95061E+06
 0.18520000E+02 -0.94440E+06
 0.18570000E+02 -0.79482E+06
 0.18619999E+02 -0.66382E+06
 0.18670002E+02 -0.62918E+06
 0.18720001E+02 -0.61289E+06
 0.18770000E+02 -0.43218E+06
 0.18820000E+02 -0.51872E+05
 0.18869999E+02  0.23085E+06
 0.18920002E+02  0.37435E+06
 0.18970001E+02  0.52320E+06
 0.19020000E+02  0.66776E+06
 0.19070000E+02  0.85244E+06
 0.19119999E+02  0.10091E+07
 0.19170002E+02  0.92744E+06
 0.19220001E+02  0.78568E+06
 0.19270000E+02  0.67822E+06
 0.19320000E+02  0.63417E+06
 0.19369999E+02  0.70662E+06
 0.19420002E+02  0.48665E+06
 0.19470001E+02  0.22343E+06
 0.19520000E+02  0.20090E+06
 0.19570000E+02  0.37627E+05
 0.19619999E+02 -0.12111E+06
 0.19670002E+02 -0.19507E+06
 0.19720001E+02 -0.31897E+06
 0.19770000E+02 -0.27558E+06
 0.19820000E+02 -0.26458E+06
 0.19869999E+02 -0.46954E+06
 0.19920002E+02 -0.64801E+06
 0.19970001E+02 -0.78473E+06
 0.20020000E+02 -0.81195E+06
 0.20070000E+02 -0.93292E+06
 0.20119999E+02 -0.11594E+07
 0.20170002E+02 -0.10033E+07
 0.20220001E+02 -0.71403E+06
 0.20270000E+02 -0.44086E+06
 0.20320000E+02 -0.93855E+05
 0.20369999E+02  0.57189E+05
 0.20420002E+02  0.21554E+06
 0.20470001E+02  0.64084E+06
 0.20520000E+02  0.91756E+06
 0.20570000E+02  0.79675E+06
 0.20619999E+02  0.67050E+06
 0.20670002E+02  0.62644E+06
 0.20720001E+02  0.58333E+06
 0.20770000E+02  0.62208E+06
 0.20820000E+02  0.60492E+06
 0.20869999E+02  0.32775E+06
 0.20920002E+02 -0.10620E+06
 0.20970001E+02 -0.16918E+06
 0.21020000E+02 -0.33010E+04
 0.21070000E+02 -0.25194E+06
 0.21119999E+02 -0.65577E+06
 0.21170002E+02 -0.76222E+06
 0.21220001E+02 -0.59412E+06
 0.21270000E+02 -0.38714E+06
 0.21320000E+02 -0.26017E+06
 0.21369999E+02 -0.15910E+06
 0.21420002E+02 -0.15442E+06
 0.21470001E+02 -0.95667E+05
 0.21520000E+02  0.17871E+06
 0.21570000E+02  0.31336E+06
 0.21619999E+02  0.21879E+06
 0.21670002E+02  0.33899E+05
 0.21720001E+02 -0.44414E+06
 0.21770000E+02 -0.89640E+06
 0.21820000E+02 -0.86437E+06
 0.21869999E+02 -0.38690E+06
 0.21920002E+02  0.57373E+05
 0.21970001E+02  0.33300E+06
 0.22020000E+02  0.84095E+06
 0.22070000E+02  0.11264E+07
 0.22119999E+02  0.82100E+06
 0.22170002E+02  0.41506E+06
 0.22220001E+02  0.80341E+05
 0.22270000E+02 -0.41259E+06
 0.22320000E+02 -0.75709E+06
 0.22369999E+02 -0.56040E+06
 0.22420002E+02 -0.21944E+06
 0.22470001E+02 -0.80263E+05
 0.22520000E+02 -0.10944E+06
 0.22570000E+02 -0.49769E+05
 0.22619999E+02  0.19561E+05
 0.22670002E+02 -0.41566E+06
 0.22720001E+02 -0.87888E+06
 0.22770000E+02 -0.76580E+06
 0.22820000E+02 -0.14722E+06
 0.22869999E+02  0.36600E+06
 0.22920002E+02  0.36359E+06
 0.22970001E+02  0.43737E+06
 0.23020000E+02  0.58588E+06
 0.23070000E+02  0.51625E+06
 0.23119999E+02  0.32163E+06
 0.23170002E+02  0.14058E+06
 0.23220001E+02  0.15749E+06
 0.23270000E+02  0.19954E+05
 0.23320000E+02 -0.35832E+06
 0.23369999E+02 -0.57860E+06
 0.23420002E+02 -0.46022E+06
 0.23470001E+02  0.93593E+05
 0.23520000E+02  0.45138E+06
 0.23570000E+02  0.39638E+06
 0.23619999E+02  0.48178E+06
 0.23670002E+02  0.84075E+06
 0.23720001E+02  0.97345E+06
 0.23770000E+02  0.72412E+06
 0.23820000E+02  0.65484E+06
 0.23869999E+02  0.29259E+06
 0.23920002E+02 -0.22350E+06
 0.23970001E+02 -0.49372E+06
 0.24020000E+02 -0.53341E+06
 0.24070000E+02 -0.29953E+06
 0.24119999E+02 -0.31632E+06
 0.24170002E+02 -0.75573E+05
 0.24220001E+02  0.99939E+05
 0.24270000E+02 -0.36143E+06
 0.24320000E+02 -0.62335E+06
 0.24369999E+02 -0.48850E+06
 0.24420002E+02 -0.18847E+06
 0.24470001E+02 -0.24761E+05
 0.24520000E+02  0.10741E+06
 0.24570000E+02  0.40685E+06
 0.24619999E+02  0.61714E+06
 0.24670002E+02  0.89437E+06
 0.24720001E+02  0.12828E+07
 0.24770000E+02  0.12347E+07
 0.24820000E+02  0.80017E+06
 0.24869999E+02  0.51349E+06
 0.24920002E+02  0.24298E+06
 0.24970001E+02  0.13166E+06
 0.25020000E+02  0.34806E+06
 0.25070000E+02  0.60910E+06
 0.25119999E+02  0.77778E+06
 0.25170002E+02  0.85937E+06
 0.25220001E+02  0.70969E+06
 0.25270000E+02  0.26746E+06
 0.25320000E+02 -0.77722E+05
 0.25369999E+02 -0.46509E+06
 0.25420002E+02 -0.83199E+06
 0.25470001E+02 -0.68391E+06
 0.25520000E+02 -0.21519E+06
 0.25570000E+02  0.13971E+06
 0.25619999E+02  0.33693E+06
 0.25670002E+02  0.53229E+06
 0.25720001E+02  0.72509E+06
 0.25770000E+02  0.89733E+06
 0.25820000E+02  0.11174E+07
 0.25869999E+02  0.13697E+07
 0.25920002E+02  0.13300E+07
 0.25970001E+02  0.99416E+06
 0.26020000E+02  0.77738E+06
 0.26070000E+02  0.55214E+06
 0.26119999E+02  0.27918E+06
 0.26170002E+02  0.14571E+06
 0.26220001E+02 -0.10103E+06
 0.26270000E+02 -0.21268E+06
 0.26320000E+02  0.46718E+05
 0.26369999E+02  0.45846E+06
 0.26420002E+02  0.78521E+06
 0.26470001E+02  0.61964E+06
 0.26520000E+02  0.78357E+05
 0.26570000E+02 -0.20762E+06
 0.26619999E+02  0.55900E+05
 0.26670002E+02  0.43568E+06
 0.26720001E+02  0.45759E+06
 0.26770000E+02  0.25567E+06
 0.26820000E+02  0.25566E+06
 0.26869999E+02  0.14179E+06
 0.26920002E+02 -0.22256E+06
 0.26970001E+02 -0.31414E+06
 0.27020000E+02 -0.20550E+06
 0.27070000E+02  0.68930E+04
 0.27119999E+02 -0.13014E+06
 0.27170002E+02 -0.63240E+06
 0.27220001E+02 -0.90808E+06
 0.27270000E+02 -0.87734E+06
 0.27320000E+02 -0.52005E+06
 0.27369999E+02 -0.10353E+06
 0.27420002E+02  0.10529E+05
 0.27470001E+02 -0.19624E+06
 0.27520000E+02 -0.23840E+06
 0.27570000E+02 -0.11843E+06
 0.27619999E+02  0.57594E+05
 0.27670002E+02  0.36659E+06
 0.27720001E+02  0.56998E+06
 0.27770000E+02  0.85244E+06
 0.27820000E+02  0.84120E+06
 0.27869999E+02  0.32822E+06
 0.27920002E+02 -0.12358E+06
 0.27970001E+02 -0.55489E+06
 0.28020000E+02 -0.97500E+06
 0.28070000E+02 -0.10462E+07
 0.28119999E+02 -0.77122E+06
 0.28169998E+02 -0.42312E+06
 0.28220001E+02 -0.18889E+06
 0.28270000E+02 -0.12789E+06
 0.28320000E+02 -0.28087E+06
 0.28369999E+02 -0.62359E+06
 0.28419998E+02 -0.99404E+06
 0.28470001E+02 -0.10257E+07
 0.28520000E+02 -0.84293E+06
 0.28570000E+02 -0.69972E+06
 0.28619999E+02 -0.48378E+06
 0.28669998E+02 -0.29791E+06
 0.28720001E+02 -0.13532E+06
 0.28770000E+02 -0.94086E+05
 0.28820000E+02 -0.39291E+06
 0.28869999E+02 -0.10753E+07
 0.28919998E+02 -0.19399E+07
 0.28970001E+02 -0.25769E+07
 0.29020000E+02 -0.27788E+07
 0.29070000E+02 -0.26374E+07
 0.29119999E+02 -0.21828E+07
 0.29169998E+02 -0.12256E+07
 0.29220001E+02 -0.12720E+06
 0.29270000E+02  0.88072E+06
 0.29320000E+02  0.18190E+07
 0.29369999E+02  0.23140E+07
 0.29419998E+02  0.26660E+07
 0.29470001E+02  0.29456E+07
 0.29520000E+02  0.24088E+07
 0.29570000E+02  0.10356E+07
 0.29619999E+02 -0.58068E+06
 0.29669998E+02 -0.20891E+07
 0.29720001E+02 -0.33394E+07
 0.29770000E+02 -0.40669E+07
 0.29820000E+02 -0.38025E+07
 0.29869999E+02 -0.25139E+07
 0.29919998E+02 -0.80292E+06
 0.29970001E+02  0.63086E+06
 0.30020000E+02  0.14387E+07
 0.30070000E+02  0.19327E+07
 0.30119999E+02  0.23682E+07
 0.30169998E+02  0.24340E+07
 0.30220001E+02  0.17369E+07
 0.30270000E+02  0.50817E+06
 0.30320000E+02 -0.91336E+06
 0.30369999E+02 -0.23533E+07
 0.30419998E+02 -0.31121E+07
 0.30470001E+02 -0.29301E+07
 0.30520000E+02 -0.22430E+07
 0.30570000E+02 -0.10596E+07
 0.30619999E+02 -0.12616E+05
 0.30669998E+02  0.21179E+06
 0.30720001E+02  0.50331E+06
 0.30770000E+02  0.47708E+06
 0.30820000E+02 -0.48278E+06
 0.30869999E+02 -0.12926E+07
 0.30919998E+02 -0.16133E+07
 0.30970001E+02 -0.14551E+07
 0.31020000E+02 -0.72852E+06
 0.31070000E+02  0.33534E+06
 0.31119999E+02  0.95379E+06
 0.31169998E+02  0.64205E+06
 0.31220001E+02  0.33616E+06
 0.31270000E+02  0.64214E+06
 0.31320000E+02  0.13001E+07
 0.31369999E+02  0.16562E+07
 0.31419998E+02  0.12222E+07
 0.31470001E+02  0.25235E+06
 0.31520000E+02 -0.77086E+06
 0.31570000E+02 -0.92382E+06
 0.31619999E+02 -0.95498E+05
 0.31669998E+02  0.79572E+06
 0.31720001E+02  0.16102E+07
 0.31770000E+02  0.20496E+07
 0.31820000E+02  0.18292E+07
 0.31869999E+02  0.13580E+07
 0.31919998E+02  0.27803E+06
 0.31970001E+02 -0.65552E+06
 0.32020000E+02 -0.50016E+06
 0.32070000E+02 -0.28672E+06
 0.32119999E+02 -0.20580E+06
 0.32169998E+02  0.50585E+05
 0.32220001E+02  0.58592E+06
 0.32270000E+02  0.89388E+06
 0.32320000E+02  0.67246E+06
 0.32369999E+02  0.52904E+06
 0.32419998E+02  0.15176E+06
 0.32470001E+02 -0.28903E+06
 0.32520000E+02 -0.28658E+06
 0.32570000E+02  0.12435E+06
 0.32619999E+02  0.32180E+05
 0.32669998E+02 -0.11477E+07
 0.32720001E+02 -0.20843E+07
 0.32770000E+02 -0.21083E+07
 0.32820000E+02 -0.22308E+07
 0.32869999E+02 -0.24495E+07
 0.32919998E+02 -0.19879E+07
 0.32970001E+02 -0.19272E+07
 0.33020000E+02 -0.23156E+07
 0.33070000E+02 -0.24499E+07
 0.33119999E+02 -0.25205E+07
 0.33169998E+02 -0.18607E+07
 0.33220001E+02 -0.88000E+06
 0.33270000E+02 -0.43375E+05
 0.33320000E+02  0.68427E+06
 0.33369999E+02  0.96761E+06
 0.33419998E+02  0.74373E+06
 0.33470001E+02 -0.15935E+06
 0.33520000E+02 -0.11029E+07
 0.33570000E+02 -0.17510E+07
 0.33619999E+02 -0.21022E+07
 0.33669998E+02 -0.19548E+07
 0.33720001E+02 -0.18483E+07
 0.33770000E+02 -0.17007E+07
 0.33820000E+02 -0.16192E+07
 0.33869999E+02 -0.16296E+07
 0.33919998E+02 -0.10179E+07
 0.33970001E+02 -0.44207E+06
 0.34020000E+02 -0.15961E+06
 0.34070000E+02  0.46308E+06
 0.34119999E+02  0.10406E+07
 0.34169998E+02  0.16125E+07
 0.34220001E+02  0.25544E+07
 0.34270000E+02  0.28917E+07
 0.34320000E+02  0.23987E+07
 0.34369999E+02  0.18563E+07
 0.34419998E+02  0.10832E+07
 0.34470001E+02  0.17580E+06
 0.34520000E+02 -0.62159E+06
 0.34570000E+02 -0.12511E+07
 0.34619999E+02 -0.16263E+07
 0.34669998E+02 -0.18468E+07
 0.34720001E+02 -0.16967E+07
 0.34770000E+02 -0.12907E+07
 0.34820000E+02 -0.69864E+06
 0.34869999E+02  0.79189E+05
 0.34919998E+02  0.47722E+06
 0.34970001E+02  0.58070E+06
 0.35020000E+02  0.90960E+06
 0.35070000E+02  0.13560E+07
 0.35119999E+02  0.18969E+07
 0.35169998E+02  0.21523E+07
 0.35220001E+02  0.16039E+07
 0.35270000E+02  0.81122E+06
 0.35320000E+02  0.18594E+06
 0.35369999E+02 -0.18153E+06
 0.35419998E+02 -0.32902E+06
 0.35470001E+02 -0.59067E+06
 0.35520000E+02 -0.64045E+06
 0.35570000E+02 -0.53918E+06
 0.35619999E+02 -0.61186E+06
 0.35669998E+02 -0.45387E+05
 0.35720001E+02  0.83510E+06
 0.35770000E+02  0.84022E+06
 0.35820000E+02  0.39018E+06
 0.35869999E+02 -0.17114E+06
 0.35919998E+02 -0.69598E+06
 0.35970001E+02 -0.64964E+06
 0.36020000E+02 -0.36452E+06
 0.36070000E+02 -0.27145E+06
 0.36119999E+02 -0.30782E+06
 0.36169998E+02 -0.24225E+06
 0.36220001E+02  0.95750E+04
 0.36270000E+02  0.39026E+06
 0.36320000E+02  0.89005E+06
 0.36369999E+02  0.12314E+07
 0.36419998E+02  0.11118E+07
 0.36470001E+02  0.63531E+06
 0.36520000E+02  0.39421E+06
 0.36570000E+02  0.64208E+06
 0.36619999E+02  0.10975E+07
 0.36669998E+02  0.15168E+07
 0.36720001E+02  0.14751E+07
 0.36770000E+02  0.97962E+06
 0.36820000E+02  0.63880E+06
 0.36869999E+02  0.81399E+06
 0.36919998E+02  0.13378E+07
 0.36970001E+02  0.18664E+07
 0.37020000E+02  0.22585E+07
 0.37070000E+02  0.22906E+07
 0.37119999E+02  0.20223E+07
 0.37169998E+02  0.18116E+07
 0.37220001E+02  0.14184E+07
 0.37270000E+02  0.64383E+06
 0.37320000E+02 -0.13963E+06
 0.37369999E+02 -0.63686E+06
 0.37419998E+02 -0.66447E+06
 0.37470001E+02 -0.27791E+06
 0.37520000E+02 -0.89065E+05
 0.37570000E+02 -0.35032E+06
 0.37619999E+02 -0.60645E+06
 0.37669998E+02 -0.82109E+06
 0.37720001E+02 -0.93383E+06
 0.37770000E+02 -0.49268E+06
 0.37820000E+02  0.30272E+06
 0.37869999E+02  0.85804E+06
 0.37919998E+02  0.10244E+07
 0.37970001E+02  0.11363E+07
 0.38020000E+02  0.12963E+07
 0.38070000E+02  0.13972E+07
 0.38119999E+02  0.16401E+07
 0.38169998E+02  0.21321E+07
 0.38220001E+02  0.26208E+07
 0.38270000E+02  0.28723E+07
 0.38320000E+02  0.30577E+07
 0.38369999E+02  0.34205E+07
 0.38419998E+02  0.38600E+07
 0.38470001E+02  0.40713E+07
 0.38520000E+02  0.39906E+07
 0.38570000E+02  0.36924E+07
 0.38619999E+02  0.31816E+07
 0.38669998E+02  0.24928E+07
 0.38720001E+02  0.15911E+07
 0.38770000E+02  0.77414E+06
 0.38820000E+02 -0.15440E+05
 0.38869999E+02 -0.96851E+06
 0.38919998E+02 -0.16619E+07
 0.38970001E+02 -0.19282E+07
 0.39020000E+02 -0.18312E+07
 0.39070000E+02 -0.15157E+07
 0.39119999E+02 -0.75982E+06
 0.39169998E+02  0.33464E+06
 0.39220001E+02  0.13051E+07
 0.39270000E+02  0.22603E+07
 0.39320000E+02  0.28201E+07
 0.39369999E+02  0.28085E+07
 0.39419998E+02  0.26604E+07
 0.39470001E+02  0.23728E+07
 0.39520000E+02  0.18612E+07
 0.39570000E+02  0.14096E+07
 0.39619999E+02  0.12404E+07
 0.39669998E+02  0.11000E+07
 0.39720001E+02  0.83313E+06
 0.39770000E+02  0.79334E+06
 0.39820000E+02  0.12316E+07
 0.39869999E+02  0.17764E+07
 0.39919998E+02  0.18067E+07
 0.39970001E+02  0.11298E+07
 0.40020000E+02  0.33650E+06
 0.40070000E+02 -0.22255E+05
 0.40119999E+02  0.14427E+05
 0.40169998E+02  0.22855E+06
 0.40220001E+02  0.18268E+06
 0.40270000E+02 -0.10123E+06
 0.40320000E+02 -0.49393E+06
 0.40369999E+02 -0.11146E+07
 0.40419998E+02 -0.15519E+07
 0.40470001E+02 -0.17711E+07
 0.40520000E+02 -0.19687E+07
 0.40570000E+02 -0.18562E+07
 0.40619999E+02 -0.14364E+07
 0.40669998E+02 -0.86679E+06
 0.40720001E+02 -0.25415E+06
 0.40770000E+02  0.76855E+05
 0.40820000E+02  0.10341E+06
 0.40869999E+02 -0.48808E+05
 0.40919998E+02 -0.16854E+06
 0.40970001E+02  0.17530E+06
 0.41020000E+02  0.65298E+06
 0.41070000E+02  0.74263E+06
 0.41119999E+02  0.48225E+06
 0.41169998E+02  0.20696E+06
 0.41220001E+02  0.16652E+06
 0.41270000E+02 -0.32674E+05
 0.41320000E+02 -0.44788E+06
 0.41369999E+02 -0.97234E+06
 0.41419998E+02 -0.16663E+07
 0.41470001E+02 -0.20615E+07
 0.41520000E+02 -0.18417E+07
 0.41570000E+02 -0.10351E+07
 0.41619999E+02 -0.13571E+06
 0.41669998E+02  0.18456E+06
 0.41720001E+02 -0.15089E+06
 0.41770000E+02 -0.77144E+06
 0.41820000E+02 -0.12428E+07
 0.41869999E+02 -0.13466E+07
 0.41919998E+02 -0.11690E+07
 0.41970001E+02 -0.98003E+06
 0.42020000E+02 -0.10249E+07
 0.42070000E+02 -0.12421E+07
 0.42119999E+02 -0.12467E+07
 0.42169998E+02 -0.11362E+07
 0.42220001E+02 -0.13381E+07
 0.42270000E+02 -0.17863E+07
 0.42320000E+02 -0.22429E+07
 0.42369999E+02 -0.26518E+07
 0.42419998E+02 -0.27734E+07
 0.42470001E+02 -0.23910E+07
 0.42520000E+02 -0.19925E+07
 0.42570000E+02 -0.19289E+07
 0.42619999E+02 -0.20760E+07
 0.42669998E+02 -0.22091E+07
 0.42720001E+02 -0.21003E+07
 0.42770000E+02 -0.19271E+07
 0.42820000E+02 -0.17400E+07
 0.42869999E+02 -0.16220E+07
 0.42919998E+02 -0.18634E+07
 0.42970001E+02 -0.23152E+07
 0.43020000E+02 -0.26368E+07
 0.43070000E+02 -0.28912E+07
 0.43119999E+02 -0.32801E+07
 0.43169998E+02 -0.34598E+07
 0.43220001E+02 -0.32683E+07
 0.43270000E+02 -0.29961E+07
 0.43320000E+02 -0.26584E+07
 0.43369999E+02 -0.23287E+07
 0.43419998E+02 -0.22204E+07
 0.43470001E+02 -0.21724E+07
 0.43520000E+02 -0.19386E+07
 0.43570000E+02 -0.15043E+07
 0.43619999E+02 -0.10596E+07
 0.43669998E+02 -0.88926E+06
 0.43720001E+02 -0.92205E+06
 0.43770000E+02 -0.89230E+06
 0.43820000E+02 -0.70842E+06
 0.43869999E+02 -0.42542E+06
 0.43919998E+02 -0.21450E+06
 0.43970001E+02 -0.22051E+06
 0.44020000E+02 -0.42543E+06
 0.44070000E+02 -0.62734E+06
 0.44119999E+02 -0.66512E+06
 0.44169998E+02 -0.60565E+06
 0.44220001E+02 -0.48551E+06
 0.44270000E+02 -0.23897E+06
 0.44320000E+02 -0.22426E+05
 0.44369999E+02 -0.30879E+05
 0.44419998E+02 -0.79853E+05
 0.44470001E+02  0.35755E+05
 0.44520000E+02  0.23513E+06
 0.44570000E+02  0.59775E+06
 0.44619999E+02  0.11132E+07
 0.44669998E+02  0.14209E+07
 0.44720001E+02  0.15638E+07
 0.44770000E+02  0.17609E+07
 0.44820000E+02  0.19479E+07
 0.44869999E+02  0.21262E+07
 0.44919998E+02  0.23175E+07
 0.44970001E+02  0.24506E+07
 0.45020000E+02  0.23747E+07
 0.45070000E+02  0.21200E+07
 0.45119999E+02  0.18514E+07
 0.45169998E+02  0.15981E+07
 0.45220001E+02  0.14440E+07
 0.45270000E+02  0.12991E+07
 0.45320000E+02  0.11202E+07
 0.45369999E+02  0.11200E+07
 0.45419998E+02  0.12504E+07
 0.45470001E+02  0.13748E+07
 0.45520000E+02  0.13970E+07
 0.45570000E+02  0.12736E+07
 0.45619999E+02  0.12716E+07
 0.45669998E+02  0.14728E+07
 0.45720001E+02  0.16088E+07
 0.45770000E+02  0.16653E+07
 0.45820000E+02  0.17236E+07
 0.45869999E+02  0.17716E+07
 0.45919998E+02  0.17752E+07
 0.45970001E+02  0.16234E+07
 0.46020000E+02  0.12803E+07
 0.46070000E+02  0.77370E+06
 0.46119999E+02  0.27476E+06
 0.46169998E+02 -0.81618E+05
 0.46220001E+02 -0.27009E+06
 0.46270000E+02 -0.27398E+06
 0.46320000E+02 -0.36372E+06
 0.46369999E+02 -0.76111E+06
 0.46419998E+02 -0.12702E+07
 0.46470001E+02 -0.15758E+07
 0.46520000E+02 -0.15871E+07
 0.46570000E+02 -0.14643E+07
 0.46619999E+02 -0.13776E+07
 0.46669998E+02 -0.13462E+07
 0.46720001E+02 -0.12264E+07
 0.46770000E+02 -0.97488E+06
 0.46820000E+02 -0.76936E+06
 0.46869999E+02 -0.74342E+06
 0.46919998E+02 -0.89754E+06
 0.46970001E+02 -0.12055E+07
 0.47020000E+02 -0.15367E+07
 0.47070000E+02 -0.16969E+07
 0.47119999E+02 -0.16954E+07
 0.47169998E+02 -0.15948E+07
 0.47220001E+02 -0.14525E+07
 0.47270000E+02 -0.13141E+07
 0.47320000E+02 -0.11268E+07
 0.47369999E+02 -0.89390E+06
 0.47419998E+02 -0.54569E+06
 0.47470001E+02 -0.10802E+06
 0.47520000E+02  0.20334E+06
 0.47570000E+02  0.41992E+06
 0.47619999E+02  0.59702E+06
 0.47669998E+02  0.62617E+06
 0.47720001E+02  0.59896E+06
 0.47770000E+02  0.68031E+06
 0.47820000E+02  0.84048E+06
 0.47869999E+02  0.85158E+06
 0.47919998E+02  0.66325E+06
 0.47970001E+02  0.55814E+06
 0.48020000E+02  0.61721E+06
 0.48070000E+02  0.68882E+06
 0.48119999E+02  0.65659E+06
 0.48169998E+02  0.60424E+06
 0.48220001E+02  0.67470E+06
 0.48270000E+02  0.79980E+06
 0.48320000E+02  0.92708E+06
 0.48369999E+02  0.10699E+07
 0.48419998E+02  0.11791E+07
 0.48470001E+02  0.11940E+07
 0.48520000E+02  0.11119E+07
 0.48570000E+02  0.94992E+06
 0.48619999E+02  0.74059E+06
 0.48669998E+02  0.51671E+06
 0.48720001E+02  0.32338E+06
 0.48770000E+02  0.15222E+06
 0.48820000E+02  0.67442E+05
 0.48869999E+02  0.23318E+06
 0.48919998E+02  0.44466E+06
 0.48970001E+02  0.51849E+06
 0.49020000E+02  0.45962E+06
 0.49070000E+02  0.24775E+06
 0.49119999E+02  0.51542E+05
 0.49169998E+02 -0.10180E+06
 0.49220001E+02 -0.22151E+06
 0.49270000E+02 -0.20347E+06
 0.49320000E+02 -0.12606E+06
 0.49369999E+02 -0.32419E+05
 0.49419998E+02  0.65513E+05
 0.49470001E+02  0.42155E+05
 0.49520000E+02 -0.70446E+05
 0.49570000E+02 -0.21790E+06
 0.49619999E+02 -0.39662E+06
 0.49669998E+02 -0.52556E+06
 0.49720001E+02 -0.62733E+06
 0.49770000E+02 -0.70767E+06
 0.49820000E+02 -0.69683E+06
 0.49869999E+02 -0.46614E+06
 0.49919998E+02  0.70006E+05
 0.49970001E+02  0.74848E+06
 0.50020000E+02  0.13873E+07
 0.50070000E+02  0.18794E+07
 0.50119999E+02  0.21892E+07
 0.50169998E+02  0.23797E+07
 0.50220001E+02  0.24088E+07
 0.50270000E+02  0.22787E+07
 0.50320000E+02  0.21298E+07
 0.50369999E+02  0.19528E+07
 0.50419998E+02  0.17160E+07
 0.50470001E+02  0.15052E+07
 0.50520000E+02  0.13047E+07
 0.50570000E+02  0.10439E+07
 0.50619999E+02  0.80039E+06
 0.50669998E+02  0.57528E+06
 0.50720001E+02  0.23910E+06
 0.50770000E+02 -0.15325E+06
 0.50820000E+02 -0.50819E+06
 0.50869999E+02 -0.84424E+06
 0.50919998E+02 -0.11336E+07
 0.50970001E+02 -0.13228E+07
 0.51020000E+02 -0.14130E+07
 0.51070000E+02 -0.14282E+07
 0.51119999E+02 -0.14295E+07
 0.51169998E+02 -0.15102E+07
 0.51220001E+02 -0.16514E+07
 0.51270000E+02 -0.17882E+07
 0.51320000E+02 -0.19166E+07
 0.51369999E+02 -0.19553E+07
 0.51419998E+02 -0.18738E+07
 0.51470001E+02 -0.18277E+07
 0.51520000E+02 -0.18998E+07
 0.51570000E+02 -0.20492E+07
 0.51619999E+02 -0.22473E+07
 0.51669998E+02 -0.24029E+07
 0.51720001E+02 -0.23782E+07
 0.51770000E+02 -0.22234E+07
 0.51820000E+02 -0.20900E+07
 0.51869999E+02 -0.19122E+07
 0.51919998E+02 -0.15823E+07
 0.51970001E+02 -0.11641E+07
 0.52020000E+02 -0.74536E+06
 0.52070000E+02 -0.37574E+06
 0.52119999E+02 -0.33928E+05
 0.52169998E+02  0.31234E+06
 0.52220001E+02  0.61272E+06
 0.52270000E+02  0.87245E+06
 0.52320000E+02  0.10887E+07
 0.52369999E+02  0.11549E+07
 0.52419998E+02  0.10946E+07
 0.52470001E+02  0.10605E+07
 0.52520000E+02  0.11205E+07
 0.52570000E+02  0.12388E+07
 0.52619999E+02  0.13183E+07
 0.52669998E+02  0.12924E+07
 0.52720001E+02  0.12340E+07
 0.52770000E+02  0.11589E+07
 0.52820000E+02  0.10132E+07
 0.52869999E+02  0.85746E+06
 0.52919998E+02  0.73058E+06
 0.52970001E+02  0.68141E+06
 0.53020000E+02  0.69080E+06
 0.53070000E+02  0.72692E+06
 0.53119999E+02  0.83525E+06
 0.53169998E+02  0.95833E+06
 0.53220001E+02  0.11709E+07
 0.53270000E+02  0.14675E+07
 0.53320000E+02  0.16877E+07
 0.53369999E+02  0.18398E+07
 0.53419998E+02  0.18996E+07
 0.53470001E+02  0.18285E+07
 0.53520000E+02  0.16298E+07
 0.53570000E+02  0.13244E+07
 0.53619999E+02  0.98539E+06
 0.53669998E+02  0.69520E+06
 0.53720001E+02  0.48788E+06
 0.53770000E+02  0.32171E+06
 0.53820000E+02  0.15022E+06
 0.53869999E+02 -0.72855E+05
 0.53919998E+02 -0.32089E+06
 0.53970001E+02 -0.52961E+06
 0.54020000E+02 -0.67421E+06
 0.54070000E+02 -0.75092E+06
 0.54119999E+02 -0.80207E+06
 0.54169998E+02 -0.86875E+06
 0.54220001E+02 -0.97920E+06
 0.54270000E+02 -0.11868E+07
 0.54320000E+02 -0.14365E+07
 0.54369999E+02 -0.15539E+07
 0.54419998E+02 -0.15017E+07
 0.54470001E+02 -0.13845E+07
 0.54520000E+02 -0.13088E+07
 0.54570000E+02 -0.12863E+07
 0.54619999E+02 -0.12888E+07
 0.54669998E+02 -0.12298E+07
 0.54720001E+02 -0.99579E+06
 0.54770000E+02 -0.64800E+06
 0.54820000E+02 -0.23266E+06
 0.54869999E+02  0.14311E+06
 0.54919998E+02  0.37172E+06
 0.54970001E+02  0.54672E+06
 0.55020000E+02  0.59828E+06
 0.55070000E+02  0.49569E+06
 0.55119999E+02  0.37241E+06
 0.55169998E+02  0.20676E+06
 0.55220001E+02  0.16744E+05
 0.55270000E+02 -0.82338E+05
 0.55320000E+02 -0.19439E+05
 0.55369999E+02  0.17016E+06
 0.55419998E+02  0.36589E+06
 0.55470001E+02  0.58015E+06
 0.55520000E+02  0.82108E+06
 0.55570000E+02  0.97485E+06
 0.55619999E+02  0.10517E+07
 0.55669998E+02  0.11080E+07
 0.55720001E+02  0.11147E+07
 0.55770000E+02  0.10528E+07
 0.55820000E+02  0.91237E+06
 0.55869999E+02  0.66186E+06
 0.55919998E+02  0.31182E+06
 0.55970001E+02 -0.83854E+05
 0.56020000E+02 -0.46602E+06
 0.56070000E+02 -0.77395E+06
 0.56119999E+02 -0.99497E+06
 0.56169998E+02 -0.11402E+07
 0.56220001E+02 -0.12119E+07
 0.56270000E+02 -0.11937E+07
 0.56320000E+02 -0.10796E+07
 0.56369999E+02 -0.94619E+06
 0.56419998E+02 -0.87977E+06
 0.56470001E+02 -0.85601E+06
 0.56520000E+02 -0.79667E+06
 0.56570000E+02 -0.63998E+06
 0.56619999E+02 -0.37505E+06
 0.56669998E+02 -0.81774E+05
 0.56720001E+02  0.18755E+06
 0.56770000E+02  0.41457E+06
 0.56820000E+02  0.61255E+06
 0.56869999E+02  0.78120E+06
 0.56919998E+02  0.86970E+06
 0.56970001E+02  0.92594E+06
 0.57020000E+02  0.95873E+06
 0.57070000E+02  0.89301E+06
 0.57119999E+02  0.75297E+06
 0.57169998E+02  0.62555E+06
 0.57220001E+02  0.54596E+06
 0.57270000E+02  0.51175E+06
 0.57320000E+02  0.52754E+06
 0.57369999E+02  0.58319E+06
 0.57419998E+02  0.61765E+06
 0.57470001E+02  0.57293E+06
 0.57520000E+02  0.44986E+06
 0.57570000E+02  0.26276E+06
 0.57619999E+02  0.47637E+05
 0.57669998E+02 -0.15708E+06
 0.57720001E+02 -0.32808E+06
 0.57770000E+02 -0.45566E+06
 0.57820000E+02 -0.55677E+06
 0.57869999E+02 -0.68097E+06
 0.57919998E+02 -0.85581E+06
 0.57970001E+02 -0.10093E+07
 0.58020000E+02 -0.11319E+07
 0.58070000E+02 -0.12430E+07
 0.58119999E+02 -0.12882E+07
 0.58169998E+02 -0.12974E+07
 0.58220001E+02 -0.12908E+07
 0.58270000E+02 -0.12453E+07
 0.58320000E+02 -0.11428E+07
 0.58369999E+02 -0.93539E+06
 0.58419998E+02 -0.64798E+06
 0.58470001E+02 -0.28930E+06
 0.58520000E+02  0.11330E+06
 0.58570000E+02  0.45709E+06
 0.58619999E+02  0.75280E+06
 0.58669998E+02  0.10102E+07
 0.58720001E+02  0.11962E+07
 0.58770000E+02  0.12993E+07
 0.58820000E+02  0.13026E+07
 0.58869999E+02  0.12487E+07
 0.58919998E+02  0.11654E+07
 0.58970001E+02  0.10149E+07
 0.59020000E+02  0.78153E+06
 0.59070000E+02  0.53074E+06
 0.59119999E+02  0.32420E+06
 0.59169998E+02  0.18989E+06
 0.59220001E+02  0.16131E+06
 0.59270000E+02  0.21598E+06
 0.59320000E+02  0.29964E+06
 0.59369999E+02  0.38556E+06
 0.59419998E+02  0.49083E+06
 0.59470001E+02  0.55991E+06
 0.59520000E+02  0.52990E+06
 0.59570000E+02  0.44623E+06
 0.59619999E+02  0.33632E+06
 0.59669998E+02  0.25142E+06
 0.59720001E+02  0.23398E+06
 0.59770000E+02  0.25063E+06
 0.59820000E+02  0.28181E+06
 0.59869999E+02  0.32346E+06
 0.59919998E+02  0.34020E+06
 0.59970001E+02  0.29740E+06
 0.60020000E+02  0.23150E+06
 0.60070000E+02  0.15911E+06
 0.60119999E+02  0.66847E+05
 0.60170002E+02 -0.16369E+05
 0.60219997E+02 -0.10990E+06
 0.60270000E+02 -0.19117E+06
 0.60320004E+02 -0.19508E+06
 0.60369999E+02 -0.14494E+06
 0.60420002E+02 -0.48389E+05
 0.60469997E+02  0.77587E+05
 0.60520000E+02  0.17858E+06
 0.60570004E+02  0.23292E+06
 0.60619999E+02  0.23539E+06
 0.60670002E+02  0.18621E+06
 0.60719997E+02  0.10335E+06
 0.60770000E+02  0.11877E+05
 0.60820004E+02 -0.11581E+06
 0.60869999E+02 -0.25350E+06
 0.60920002E+02 -0.32998E+06
 0.60969997E+02 -0.35487E+06
 0.61020000E+02 -0.29867E+06
 0.61070004E+02 -0.16187E+06
 0.61119999E+02 -0.10458E+05
 0.61170002E+02  0.10850E+06
 0.61219997E+02  0.12269E+06
 0.61270000E+02  0.34135E+05
 0.61320004E+02 -0.70040E+05
 0.61369999E+02 -0.12864E+06
 0.61420002E+02 -0.18352E+06
 0.61469997E+02 -0.32552E+06
 0.61520000E+02 -0.54064E+06
 0.61570004E+02 -0.74823E+06
 0.61619999E+02 -0.87008E+06
 0.61670002E+02 -0.85353E+06
 0.61719997E+02 -0.72217E+06
 0.61770000E+02 -0.53293E+06
 0.61820004E+02 -0.36378E+06
 0.61869999E+02 -0.28685E+06
 0.61920002E+02 -0.25526E+06
 0.61969997E+02 -0.20053E+06
 0.62020000E+02 -0.13052E+06
 0.62070004E+02 -0.63408E+05
 0.62119999E+02 -0.38906E+05
 0.62170002E+02 -0.80059E+05
 0.62219997E+02 -0.10533E+06
 0.62270000E+02 -0.91552E+05
 0.62320004E+02 -0.12533E+06
 0.62369999E+02 -0.17304E+06
 0.62420002E+02 -0.21782E+06
 0.62469997E+02 -0.28587E+06
 0.62520000E+02 -0.33646E+06
 0.62570004E+02 -0.40774E+06
 0.62619999E+02 -0.50973E+06
 0.62670002E+02 -0.60719E+06
 0.62719997E+02 -0.69479E+06
 0.62770000E+02 -0.76149E+06
 0.62820004E+02 -0.77929E+06
 0.62869999E+02 -0.72883E+06
 0.62920002E+02 -0.66200E+06
 0.62969997E+02 -0.63907E+06
 0.63020000E+02 -0.64263E+06
 0.63070004E+02 -0.60798E+06
 0.63119999E+02 -0.54279E+06
 0.63170002E+02 -0.45118E+06
 0.63219997E+02 -0.31371E+06
 0.63270000E+02 -0.18728E+06
 0.63320004E+02 -0.69252E+05
 0.63369999E+02  0.73872E+05
 0.63420002E+02  0.20351E+06
 0.63469997E+02  0.26457E+06
 0.63520000E+02  0.23182E+06
 0.63570004E+02  0.17303E+06
 0.63619999E+02  0.17948E+06
 0.63670002E+02  0.22021E+06
 0.63719997E+02  0.21711E+06
 0.63770000E+02  0.17375E+06
 0.63820004E+02  0.14067E+06
 0.63869999E+02  0.15618E+06
 0.63920002E+02  0.21871E+06
 0.63969997E+02  0.28627E+06
 0.64020004E+02  0.33844E+06
 0.64070007E+02  0.38081E+06
 0.64120003E+02  0.39820E+06
 0.64170006E+02  0.35661E+06
 0.64220001E+02  0.24671E+06
 0.64270004E+02  0.13364E+06
 0.64320007E+02  0.71746E+05
 0.64370003E+02  0.53784E+05
 0.64420006E+02  0.71455E+05
 0.64470001E+02  0.12433E+06
 0.64520004E+02  0.20982E+06
 0.64570007E+02  0.29148E+06
 0.64620003E+02  0.34080E+06
 0.64670006E+02  0.35358E+06
 0.64720001E+02  0.32835E+06
 0.64770004E+02  0.28082E+06
 0.64820007E+02  0.20039E+06
 0.64870003E+02  0.89649E+05
 0.64920006E+02 -0.29258E+05
 0.64970001E+02 -0.15288E+06
 0.65020004E+02 -0.25537E+06
 0.65070007E+02 -0.31249E+06
 0.65120003E+02 -0.33517E+06
 0.65170006E+02 -0.33818E+06
 0.65220001E+02 -0.32836E+06
 0.65270004E+02 -0.31558E+06
 0.65320007E+02 -0.29002E+06
 0.65370003E+02 -0.26406E+06
 0.65420006E+02 -0.24229E+06
 0.65470001E+02 -0.17336E+06
 0.65520004E+02 -0.59875E+05
 0.65570007E+02  0.78750E+05
 0.65620003E+02  0.26038E+06
 0.65670006E+02  0.44331E+06
 0.65720001E+02  0.57777E+06
 0.65770004E+02  0.69561E+06
 0.65820007E+02  0.79615E+06
 0.65870003E+02  0.84717E+06
 0.65920006E+02  0.85305E+06
 0.65970001E+02  0.80675E+06
 0.66020004E+02  0.74394E+06
 0.66070007E+02  0.70452E+06
 0.66120003E+02  0.66601E+06
 0.66170006E+02  0.60452E+06
 0.66220001E+02  0.51870E+06
 0.66270004E+02  0.42021E+06
 0.66320007E+02  0.29626E+06
 0.66370003E+02  0.13968E+06
 0.66420006E+02 -0.10311E+05
 0.66470001E+02 -0.12344E+06
 0.66520004E+02 -0.18902E+06
 0.66570007E+02 -0.20233E+06
 0.66620003E+02 -0.20223E+06
 0.66670006E+02 -0.22725E+06
 0.66720001E+02 -0.26728E+06
 0.66770004E+02 -0.31047E+06
 0.66820007E+02 -0.32352E+06
 0.66870003E+02 -0.27049E+06
 0.66920006E+02 -0.16732E+06
 0.66970001E+02 -0.45712E+05
 0.67020004E+02  0.16702E+05
 0.67070007E+02 -0.37701E+05
 0.67120003E+02 -0.13750E+06
 0.67170006E+02 -0.22035E+06
 0.67220001E+02 -0.28344E+06
 0.67270004E+02 -0.32187E+06
 0.67320007E+02 -0.34114E+06
 0.67370003E+02 -0.33714E+06
 0.67420006E+02 -0.29905E+06
 0.67470001E+02 -0.23740E+06
 0.67520004E+02 -0.17798E+06
 0.67570007E+02 -0.12776E+06
 0.67620003E+02 -0.77275E+05
 0.67670006E+02 -0.20486E+05
 0.67720001E+02  0.31408E+05
 0.67770004E+02  0.63119E+05
 0.67820007E+02  0.90631E+05
 0.67870003E+02  0.12598E+06
 0.67920006E+02  0.17155E+06
 0.67970001E+02  0.24497E+06
 0.68020004E+02  0.32647E+06
 0.68070007E+02  0.39110E+06
 0.68120003E+02  0.45665E+06
 0.68170006E+02  0.50447E+06
 0.68220001E+02  0.52792E+06
 0.68270004E+02  0.55549E+06
 0.68320007E+02  0.58370E+06
 0.68370003E+02  0.61473E+06
 0.68420006E+02  0.64395E+06
 0.68470001E+02  0.65066E+06
 0.68520004E+02  0.60014E+06
 0.68570007E+02  0.48008E+06
 0.68620003E+02  0.33362E+06
 0.68670006E+02  0.19469E+06
 0.68720001E+02  0.84173E+05
 0.68770004E+02  0.18008E+05
 0.68820007E+02  0.27760E+04
 0.68870003E+02  0.11653E+05
 0.68920006E+02 -0.48510E+04
 0.68970001E+02 -0.35270E+05
 0.69020004E+02 -0.47642E+05
 0.69070007E+02 -0.54487E+05
 0.69120003E+02 -0.48034E+05
 0.69170006E+02 -0.20026E+05
 0.69220001E+02 -0.27130E+04
 0.69270004E+02 -0.15400E+04
 0.69320007E+02 -0.18823E+05
 0.69370003E+02 -0.55109E+05
 0.69420006E+02 -0.92162E+05
 0.69470001E+02 -0.12021E+06
 0.69520004E+02 -0.13654E+06
 0.69570007E+02 -0.15414E+06
 0.69620003E+02 -0.18031E+06
 0.69670006E+02 -0.21570E+06
 0.69720001E+02 -0.26433E+06
 0.69770004E+02 -0.33614E+06
 0.69820007E+02 -0.42974E+06
 0.69870003E+02 -0.53243E+06
 0.69920006E+02 -0.62823E+06
 0.69970001E+02 -0.69090E+06
 0.70020004E+02 -0.71906E+06
 0.70070007E+02 -0.73063E+06
 0.70120003E+02 -0.74680E+06
 0.70170006E+02 -0.78082E+06
 0.70220001E+02 -0.82617E+06
 0.70270004E+02 -0.86114E+06
 0.70320007E+02 -0.86196E+06
 0.70370003E+02 -0.81249E+06
 0.70420006E+02 -0.72161E+06
 0.70470001E+02 -0.63260E+06
 0.70520004E+02 -0.56170E+06
 0.70570007E+02 -0.49488E+06
 0.70620003E+02 -0.43573E+06
 0.70670006E+02 -0.40146E+06
 0.70720001E+02 -0.38059E+06
 0.70770004E+02 -0.35559E+06
 0.70820007E+02 -0.33002E+06
 0.70870003E+02 -0.28344E+06
 0.70920006E+02 -0.21604E+06
 0.70970001E+02 -0.15253E+06
 0.71020004E+02 -0.89464E+05
 0.71070007E+02 -0.21717E+05
 0.71120003E+02  0.43767E+05
 0.71170006E+02  0.87540E+05
 0.71220001E+02  0.10068E+06
 0.71270004E+02  0.11092E+06
 0.71320007E+02  0.13385E+06
 0.71370003E+02  0.17199E+06
 0.71420006E+02  0.22221E+06
 0.71470001E+02  0.24758E+06
 0.71520004E+02  0.24648E+06
 0.71570007E+02  0.25140E+06
 0.71620003E+02  0.27192E+06
 0.71670006E+02  0.29772E+06
 0.71720001E+02  0.30802E+06
 0.71770004E+02  0.31995E+06
 0.71820007E+02  0.34063E+06
 0.71870003E+02  0.33370E+06
 0.71920006E+02  0.28751E+06
 0.71970001E+02  0.19916E+06
 0.72020004E+02  0.10103E+06
 0.72070007E+02  0.35326E+05
 0.72120003E+02  0.24050E+04
 0.72170006E+02  0.40000E+01
 0.72220001E+02  0.36010E+04
 0.72270004E+02  0.17730E+04
 0.72320007E+02 -0.65330E+04
 0.72370003E+02 -0.42471E+05
 0.72420006E+02 -0.11080E+06
 0.72470001E+02 -0.20284E+06
 0.72520004E+02 -0.29559E+06
 0.72570007E+02 -0.36587E+06
 0.72620003E+02 -0.40342E+06
 0.72670006E+02 -0.41876E+06
 0.72720001E+02 -0.42271E+06
 0.72770004E+02 -0.39899E+06
 0.72820007E+02 -0.34326E+06
 0.72870003E+02 -0.26496E+06
 0.72920006E+02 -0.16929E+06
 0.72970001E+02 -0.74451E+05
 0.73020004E+02  0.15481E+05
 0.73070007E+02  0.11751E+06
 0.73120003E+02  0.20888E+06
 0.73170006E+02  0.26233E+06
 0.73220001E+02  0.28720E+06
 0.73270004E+02  0.28461E+06
 0.73320007E+02  0.26735E+06
 0.73370003E+02  0.25388E+06
 0.73420006E+02  0.25608E+06
 0.73470001E+02  0.28252E+06
 0.73520004E+02  0.30778E+06
 0.73570007E+02  0.31479E+06
 0.73620003E+02  0.30274E+06
 0.73670006E+02  0.27536E+06
 0.73720001E+02  0.25339E+06
 0.73770004E+02  0.24883E+06
 0.73820007E+02  0.24978E+06
 0.73870003E+02  0.23966E+06
 0.73920006E+02  0.22322E+06
 0.73970001E+02  0.21040E+06
 0.74020004E+02  0.20447E+06
 0.74070007E+02  0.19812E+06
 0.74120003E+02  0.18370E+06
 0.74170006E+02  0.16272E+06
 0.74220001E+02  0.13480E+06
 0.74270004E+02  0.11667E+06
 0.74320007E+02  0.12012E+06
 0.74370003E+02  0.13443E+06
 0.74420006E+02  0.15345E+06
 0.74470001E+02  0.17108E+06
 0.74520004E+02  0.18608E+06
 0.74570007E+02  0.19474E+06
 0.74620003E+02  0.19278E+06
 0.74670006E+02  0.19123E+06
 0.74720001E+02  0.18449E+06
 0.74770004E+02  0.17369E+06
 0.74820007E+02  0.18743E+06
 0.74870003E+02  0.22050E+06
 0.74920006E+02  0.23913E+06
 0.74970001E+02  0.24605E+06
 0.75020004E+02  0.25818E+06
 0.75070007E+02  0.28218E+06
 0.75120003E+02  0.32958E+06
 0.75170006E+02  0.38744E+06
 0.75220001E+02  0.44418E+06
 0.75270004E+02  0.49222E+06
 0.75320007E+02  0.50519E+06
 0.75370003E+02  0.48107E+06
 0.75420006E+02  0.43341E+06
 0.75470001E+02  0.37141E+06
 0.75520004E+02  0.29547E+06
 0.75570007E+02  0.22210E+06
 0.75620003E+02  0.17804E+06
 0.75670006E+02  0.15605E+06
 0.75720001E+02  0.14881E+06
 0.75770004E+02  0.14984E+06
 0.75820007E+02  0.15167E+06
 0.75870003E+02  0.14931E+06
 0.75920006E+02  0.12484E+06
 0.75970001E+02  0.75420E+05
 0.76020004E+02  0.68150E+04
 0.76070007E+02 -0.74868E+05
 0.76120003E+02 -0.16348E+06
 0.76170006E+02 -0.25903E+06
 0.76220001E+02 -0.35579E+06
 0.76270004E+02 -0.44038E+06
 0.76320007E+02 -0.50847E+06
 0.76370003E+02 -0.56232E+06
 0.76420006E+02 -0.59463E+06
 0.76470001E+02 -0.61179E+06
 0.76520004E+02 -0.61766E+06
 0.76570007E+02 -0.59040E+06
 0.76620003E+02 -0.52998E+06
 0.76670006E+02 -0.45977E+06
 0.76720001E+02 -0.39429E+06
 0.76770004E+02 -0.34667E+06
 0.76820007E+02 -0.31596E+06
 0.76870003E+02 -0.29213E+06
 0.76920006E+02 -0.27307E+06
 0.76970001E+02 -0.25653E+06
 0.77020004E+02 -0.26087E+06
 0.77070007E+02 -0.29406E+06
 0.77120003E+02 -0.32559E+06
 0.77170006E+02 -0.33356E+06
 0.77220001E+02 -0.32077E+06
 0.77270004E+02 -0.30196E+06
 0.77320007E+02 -0.29191E+06
 0.77370003E+02 -0.28952E+06
 0.77420006E+02 -0.28080E+06
 0.77470001E+02 -0.24603E+06
 0.77520004E+02 -0.17431E+06
 0.77570007E+02 -0.85768E+05
 0.77620003E+02 -0.15792E+05
 0.77670006E+02  0.16140E+05
 0.77720001E+02  0.21535E+05
 0.77770004E+02  0.15904E+05
 0.77820007E+02  0.65430E+04
 0.77870003E+02 -0.31830E+04
 0.77920006E+02 -0.28298E+05
 0.77970001E+02 -0.61754E+05
 0.78020004E+02 -0.76075E+05
 0.78070007E+02 -0.60171E+05
 0.78120003E+02 -0.16155E+05
 0.78170006E+02  0.32850E+05
 0.78220001E+02  0.63580E+05
 0.78270004E+02  0.87920E+05
 0.78320007E+02  0.13071E+06
 0.78370003E+02  0.19376E+06
 0.78420006E+02  0.26099E+06
 0.78470001E+02  0.31827E+06
 0.78520004E+02  0.36727E+06
 0.78570007E+02  0.41412E+06
 0.78620003E+02  0.46259E+06
 0.78670006E+02  0.50770E+06
 0.78720001E+02  0.54330E+06
 0.78770004E+02  0.59047E+06
 0.78820007E+02  0.66842E+06
 0.78870003E+02  0.76304E+06
 0.78920006E+02  0.85162E+06
 0.78970001E+02  0.92699E+06
 0.79020004E+02  0.98952E+06
 0.79070007E+02  0.10187E+07
 0.79120003E+02  0.98455E+06
 0.79170006E+02  0.89872E+06
 0.79220001E+02  0.77750E+06
 0.79270004E+02  0.62683E+06
 0.79320007E+02  0.47748E+06
 0.79370003E+02  0.35020E+06
 0.79420006E+02  0.25820E+06
 0.79470001E+02  0.19471E+06
 0.79520004E+02  0.13385E+06
 0.79570007E+02  0.65900E+05
 0.79620003E+02 -0.18369E+05
 0.79670006E+02 -0.10532E+06
 0.79720001E+02 -0.18799E+06
 0.79770004E+02 -0.28863E+06
 0.79820007E+02 -0.40140E+06
 0.79870003E+02 -0.49943E+06
 0.79920006E+02 -0.57144E+06
 0.79970001E+02 -0.61613E+06
 0.80020004E+02 -0.62839E+06
 0.80070007E+02 -0.61634E+06
 0.80120003E+02 -0.58886E+06
 0.80170006E+02 -0.57118E+06
 0.80220001E+02 -0.58628E+06
 0.80270004E+02 -0.60918E+06
 0.80320007E+02 -0.63046E+06
 0.80370003E+02 -0.65082E+06
 0.80420006E+02 -0.65120E+06
 0.80470001E+02 -0.61728E+06
 0.80520004E+02 -0.55733E+06
 0.80570007E+02 -0.49133E+06
 0.80620003E+02 -0.40795E+06
 0.80670006E+02 -0.29534E+06
 0.80720001E+02 -0.17046E+06
 0.80770004E+02 -0.51594E+05
 0.80820007E+02  0.39539E+05
 0.80870003E+02  0.81287E+05
 0.80920006E+02  0.68871E+05
 0.80970001E+02  0.11459E+05
 0.81020004E+02 -0.51638E+05
 0.81070007E+02 -0.86725E+05
 0.81120003E+02 -0.98813E+05
 0.81170006E+02 -0.81719E+05
 0.81220001E+02 -0.46773E+05
 0.81270004E+02 -0.26280E+05
 0.81320007E+02 -0.23734E+05
 0.81370003E+02 -0.33461E+05
 0.81420006E+02 -0.31093E+05
 0.81470001E+02  0.66000E+03
 0.81520004E+02  0.29105E+05
 0.81570007E+02  0.27757E+05
 0.81620003E+02  0.22080E+04
 0.81670006E+02 -0.42836E+05
 0.81720001E+02 -0.96217E+05
 0.81770004E+02 -0.13094E+06
 0.81820007E+02 -0.13638E+06
 0.81870003E+02 -0.13167E+06
 0.81920006E+02 -0.13311E+06
 0.81970001E+02 -0.14175E+06
 0.82020004E+02 -0.16422E+06
 0.82070007E+02 -0.19328E+06
 0.82120003E+02 -0.20590E+06
 0.82170006E+02 -0.19977E+06
 0.82220001E+02 -0.17900E+06
 0.82270004E+02 -0.16173E+06
 0.82320007E+02 -0.18197E+06
 0.82370003E+02 -0.23060E+06
 0.82420006E+02 -0.27762E+06
 0.82470001E+02 -0.31150E+06
 0.82520004E+02 -0.32493E+06
 0.82570007E+02 -0.32800E+06
 0.82620003E+02 -0.33131E+06
 0.82670006E+02 -0.32517E+06
 0.82720001E+02 -0.30191E+06
 0.82770004E+02 -0.26990E+06
 0.82820007E+02 -0.23683E+06
 0.82870003E+02 -0.20131E+06
 0.82920006E+02 -0.17260E+06
 0.82970001E+02 -0.15154E+06
 0.83020004E+02 -0.13325E+06
 0.83070007E+02 -0.12539E+06
 0.83120003E+02 -0.12513E+06
 0.83170006E+02 -0.12506E+06
 0.83220001E+02 -0.12470E+06
 0.83270004E+02 -0.12597E+06
 0.83320007E+02 -0.13175E+06
 0.83370003E+02 -0.14797E+06
 0.83420006E+02 -0.17921E+06
 0.83470001E+02 -0.22394E+06
 0.83520004E+02 -0.28008E+06
 0.83570007E+02 -0.33830E+06
 0.83620003E+02 -0.38762E+06
 0.83670006E+02 -0.42313E+06
 0.83720001E+02 -0.43105E+06
 0.83770004E+02 -0.40091E+06
 0.83820007E+02 -0.34483E+06
 0.83870003E+02 -0.28097E+06
 0.83920006E+02 -0.21861E+06
 0.83970001E+02 -0.16760E+06
 0.84020004E+02 -0.14006E+06
 0.84070007E+02 -0.12636E+06
 0.84120003E+02 -0.10938E+06
 0.84170006E+02 -0.88122E+05
 0.84220001E+02 -0.57025E+05
 0.84270004E+02 -0.10683E+05
 0.84320007E+02  0.44378E+05
 0.84370003E+02  0.95336E+05
 0.84420006E+02  0.12965E+06
 0.84470001E+02  0.14240E+06
 0.84520004E+02  0.13390E+06
 0.84570007E+02  0.11108E+06
 0.84620003E+02  0.86075E+05
 0.84670006E+02  0.67978E+05
 0.84720001E+02  0.53942E+05
 0.84770004E+02  0.43694E+05
 0.84820007E+02  0.45642E+05
 0.84870003E+02  0.60039E+05
 0.84920006E+02  0.84657E+05
 0.84970001E+02  0.11982E+06
 0.85020004E+02  0.16357E+06
 0.85070007E+02  0.21233E+06
 0.85120003E+02  0.26037E+06
 0.85170006E+02  0.30757E+06
 0.85220001E+02  0.35918E+06
 0.85270004E+02  0.40465E+06
 0.85320007E+02  0.44011E+06
 0.85370003E+02  0.47782E+06
 0.85420006E+02  0.51855E+06
 0.85470001E+02  0.55386E+06
 0.85520004E+02  0.57889E+06
 0.85570007E+02  0.60274E+06
 0.85620003E+02  0.63071E+06
 0.85670006E+02  0.66026E+06
 0.85720001E+02  0.68635E+06
 0.85770004E+02  0.71042E+06
 0.85820007E+02  0.74283E+06
 0.85870003E+02  0.77415E+06
 0.85920006E+02  0.79918E+06
 0.85970001E+02  0.82635E+06
 0.86020004E+02  0.85102E+06
 0.86070007E+02  0.87476E+06
 0.86120003E+02  0.90886E+06
 0.86170006E+02  0.94486E+06
 0.86220001E+02  0.96118E+06
 0.86270004E+02  0.94014E+06
 0.86320007E+02  0.87952E+06
 0.86370003E+02  0.78744E+06
 0.86420006E+02  0.66828E+06
 0.86470001E+02  0.54485E+06
 0.86520004E+02  0.43963E+06
 0.86570007E+02  0.35724E+06
 0.86620003E+02  0.30453E+06
 0.86670006E+02  0.28217E+06
 0.86720001E+02  0.28032E+06
 0.86770004E+02  0.28068E+06
 0.86820007E+02  0.27146E+06
 0.86870003E+02  0.25157E+06
 0.86920006E+02  0.21628E+06
 0.86970001E+02  0.16671E+06
 0.87020004E+02  0.11014E+06
 0.87070007E+02  0.46685E+05
 0.87120003E+02 -0.26448E+05
 0.87170006E+02 -0.10440E+06
 0.87220001E+02 -0.17952E+06
 0.87270004E+02 -0.24556E+06
 0.87320007E+02 -0.30544E+06
 0.87370003E+02 -0.35934E+06
 0.87420006E+02 -0.39729E+06
 0.87470001E+02 -0.42238E+06
 0.87520004E+02 -0.42444E+06
 0.87570007E+02 -0.38857E+06
 0.87620003E+02 -0.33140E+06
 0.87670006E+02 -0.27706E+06
 0.87720001E+02 -0.24114E+06
 0.87770004E+02 -0.21938E+06
 0.87820007E+02 -0.20290E+06
 0.87870003E+02 -0.19881E+06
 0.87920006E+02 -0.20950E+06
 0.87970001E+02 -0.22734E+06
 0.88020004E+02 -0.24467E+06
 0.88070007E+02 -0.25454E+06
 0.88120003E+02 -0.24944E+06
 0.88170006E+02 -0.23087E+06
 0.88220001E+02 -0.20968E+06
 0.88270004E+02 -0.18332E+06
 0.88320007E+02 -0.14795E+06
 0.88370003E+02 -0.11769E+06
 0.88420006E+02 -0.96512E+05
 0.88470001E+02 -0.77644E+05
 0.88520004E+02 -0.66360E+05
 0.88570007E+02 -0.68022E+05
 0.88620003E+02 -0.76332E+05
 0.88670006E+02 -0.87247E+05
 0.88720001E+02 -0.97256E+05
 0.88770004E+02 -0.10290E+06
 0.88820007E+02 -0.12352E+06
 0.88870003E+02 -0.17104E+06
 0.88920006E+02 -0.23410E+06
 0.88970001E+02 -0.30471E+06
 0.89020004E+02 -0.37359E+06
 0.89070007E+02 -0.43665E+06
 0.89120003E+02 -0.48684E+06
 0.89170006E+02 -0.50741E+06
 0.89220001E+02 -0.49903E+06
 0.89270004E+02 -0.47675E+06
 0.89320007E+02 -0.45046E+06
 0.89370003E+02 -0.42526E+06
 0.89420006E+02 -0.40715E+06
 0.89470001E+02 -0.39776E+06
 0.89520004E+02 -0.38079E+06
 0.89570007E+02 -0.33825E+06
 0.89620003E+02 -0.27619E+06
 0.89670006E+02 -0.20732E+06
 0.89720001E+02 -0.14340E+06
 0.89770004E+02 -0.91419E+05
 0.89820007E+02 -0.47320E+05
 0.89870003E+02 -0.13889E+05
 0.89920006E+02  0.16610E+04
 0.89970001E+02 -0.27200E+04
 0.90020004E+02 -0.24027E+05
 0.90070007E+02 -0.57252E+05
 0.90120003E+02 -0.85319E+05
 0.90170006E+02 -0.84948E+05
 0.90220001E+02 -0.57799E+05
 0.90270004E+02 -0.12718E+05
 0.90320007E+02  0.38240E+05
 0.90370003E+02  0.71762E+05
 0.90420006E+02  0.86561E+05
 0.90470001E+02  0.89934E+05
 0.90520004E+02  0.83926E+05
 0.90570007E+02  0.75067E+05
 0.90620003E+02  0.58656E+05
 0.90670006E+02  0.25808E+05
 0.90720001E+02 -0.24097E+05
 0.90770004E+02 -0.88475E+05
 0.90820007E+02 -0.15343E+06
 0.90870003E+02 -0.20726E+06
 0.90920006E+02 -0.25527E+06
 0.90970001E+02 -0.29523E+06
 0.91020004E+02 -0.31772E+06
 0.91070007E+02 -0.31589E+06
 0.91120003E+02 -0.28756E+06
 0.91170006E+02 -0.23731E+06
 0.91220001E+02 -0.16554E+06
 0.91270004E+02 -0.75045E+05
 0.91320007E+02  0.19310E+05
 0.91370003E+02  0.10468E+06
 0.91420006E+02  0.17686E+06
 0.91470001E+02  0.22666E+06
 0.91520004E+02  0.24231E+06
 0.91570007E+02  0.22285E+06
 0.91620003E+02  0.18325E+06
 0.91670006E+02  0.13759E+06
 0.91720001E+02  0.87870E+05
 0.91770004E+02  0.31791E+05
 0.91820007E+02 -0.32524E+05
 0.91870003E+02 -0.96940E+05
 0.91920006E+02 -0.14805E+06
 0.91970001E+02 -0.18215E+06
 0.92020004E+02 -0.20165E+06
 0.92070007E+02 -0.20556E+06
 0.92120003E+02 -0.19505E+06
 0.92170006E+02 -0.17314E+06
 0.92220001E+02 -0.14490E+06
 0.92270004E+02 -0.11208E+06
 0.92320007E+02 -0.67437E+05
 0.92370003E+02 -0.13880E+05
 0.92420006E+02  0.40048E+05
 0.92470001E+02  0.90151E+05
 0.92520004E+02  0.13470E+06
 0.92570007E+02  0.16834E+06
 0.92620003E+02  0.17929E+06
 0.92670006E+02  0.16697E+06
 0.92720001E+02  0.14203E+06
 0.92770004E+02  0.12378E+06
 0.92820007E+02  0.12415E+06
 0.92870003E+02  0.12761E+06
 0.92920006E+02  0.12556E+06
 0.92970001E+02  0.12319E+06
 0.93020004E+02  0.12155E+06
 0.93070007E+02  0.12443E+06
 0.93120003E+02  0.13020E+06
 0.93170006E+02  0.13704E+06
 0.93220001E+02  0.14902E+06
 0.93270004E+02  0.16539E+06
 0.93320007E+02  0.18182E+06
 0.93370003E+02  0.19930E+06
 0.93420006E+02  0.22345E+06
 0.93470001E+02  0.24512E+06
 0.93520004E+02  0.24419E+06
 0.93570007E+02  0.21511E+06
 0.93620003E+02  0.16374E+06
 0.93670006E+02  0.95843E+05
 0.93720001E+02  0.17991E+05
 0.93770004E+02 -0.56581E+05
 0.93820007E+02 -0.11743E+06
 0.93870003E+02 -0.16568E+06
 0.93920006E+02 -0.20188E+06
 0.93970001E+02 -0.22902E+06
 0.94020004E+02 -0.25346E+06
 0.94070007E+02 -0.26764E+06
 0.94120003E+02 -0.25586E+06
 0.94170006E+02 -0.22058E+06
 0.94220001E+02 -0.17114E+06
 0.94270004E+02 -0.12009E+06
 0.94320007E+02 -0.86642E+05
 0.94370003E+02 -0.72604E+05
 0.94420006E+02 -0.75124E+05
 0.94470001E+02 -0.86218E+05
 0.94520004E+02 -0.94222E+05
 0.94570007E+02 -0.92159E+05
 0.94620003E+02 -0.67566E+05
 0.94670006E+02 -0.24513E+05
 0.94720001E+02  0.19882E+05
 0.94770004E+02  0.55293E+05
 0.94820007E+02  0.76003E+05
 0.94870003E+02  0.84150E+05
 0.94920006E+02  0.96434E+05
 0.94970001E+02  0.12399E+06
 0.95020004E+02  0.15643E+06
 0.95070007E+02  0.18980E+06
 0.95120003E+02  0.22324E+06
 0.95170006E+02  0.24786E+06
 0.95220001E+02  0.26130E+06
 0.95270004E+02  0.26121E+06
 0.95320007E+02  0.24282E+06
 0.95370003E+02  0.20513E+06
 0.95420006E+02  0.15815E+06
 0.95470001E+02  0.11947E+06
 0.95520004E+02  0.10211E+06
 0.95570007E+02  0.11130E+06
 0.95620003E+02  0.14661E+06
 0.95670006E+02  0.19976E+06
 0.95720001E+02  0.25212E+06
 0.95770004E+02  0.29392E+06
 0.95820007E+02  0.32737E+06
 0.95870003E+02  0.35241E+06
 0.95920006E+02  0.37028E+06
 0.95970001E+02  0.38757E+06
 0.96020004E+02  0.41250E+06
 0.96070007E+02  0.44685E+06
 0.96120003E+02  0.48124E+06
 0.96170006E+02  0.50235E+06
 0.96220001E+02  0.50324E+06
 0.96270004E+02  0.48615E+06
 0.96320007E+02  0.45252E+06
 0.96370003E+02  0.40027E+06
 0.96420006E+02  0.33660E+06
 0.96470001E+02  0.27752E+06
 0.96520004E+02  0.22782E+06
 0.96570007E+02  0.18219E+06
 0.96620003E+02  0.13964E+06
 0.96670006E+02  0.97599E+05
 0.96720001E+02  0.50283E+05
 0.96770004E+02 -0.66330E+04
 0.96820007E+02 -0.74723E+05
 0.96870003E+02 -0.15287E+06
 0.96920006E+02 -0.22928E+06
 0.96970001E+02 -0.28699E+06
 0.97020004E+02 -0.32018E+06
 0.97070007E+02 -0.33315E+06
 0.97120003E+02 -0.33558E+06
 0.97170006E+02 -0.33396E+06
 0.97220001E+02 -0.33632E+06
 0.97270004E+02 -0.34617E+06
 0.97320007E+02 -0.35701E+06
 0.97370003E+02 -0.36519E+06
 0.97420006E+02 -0.36806E+06
 0.97470001E+02 -0.36681E+06
 0.97520004E+02 -0.36631E+06
 0.97570007E+02 -0.36560E+06
 0.97620003E+02 -0.36516E+06
 0.97670006E+02 -0.36985E+06
 0.97720001E+02 -0.37668E+06
 0.97770004E+02 -0.38326E+06
 0.97820007E+02 -0.39576E+06
 0.97870003E+02 -0.41740E+06
 0.97920006E+02 -0.43751E+06
 0.97970001E+02 -0.44082E+06
 0.98020004E+02 -0.42441E+06
 0.98070007E+02 -0.39496E+06
 0.98120003E+02 -0.36149E+06
 0.98170006E+02 -0.33183E+06
 0.98220001E+02 -0.31441E+06
 0.98270004E+02 -0.30570E+06
 0.98320007E+02 -0.29616E+06
 0.98370003E+02 -0.28488E+06
 0.98420006E+02 -0.27343E+06
 0.98470001E+02 -0.26888E+06
 0.98520004E+02 -0.26911E+06
 0.98570007E+02 -0.26720E+06
 0.98620003E+02 -0.26182E+06
 0.98670006E+02 -0.25125E+06
 0.98720001E+02 -0.23468E+06
 0.98770004E+02 -0.20926E+06
 0.98820007E+02 -0.18361E+06
 0.98870003E+02 -0.16198E+06
 0.98920006E+02 -0.13806E+06
 0.98970001E+02 -0.11876E+06
 0.99020004E+02 -0.10758E+06
 0.99070007E+02 -0.97371E+05
 0.99120003E+02 -0.77096E+05
 0.99170006E+02 -0.35356E+05
 0.99220001E+02  0.25685E+05
 0.99270004E+02  0.88536E+05
 0.99320007E+02  0.13749E+06
 0.99370003E+02  0.16948E+06
 0.99420006E+02  0.18536E+06
 0.99470001E+02  0.19019E+06
 0.99520004E+02  0.19287E+06
 0.99570007E+02  0.19436E+06
 0.99620003E+02  0.19680E+06
 0.99670006E+02  0.20722E+06
 0.99720001E+02  0.22374E+06
 0.99770004E+02  0.24223E+06
 0.99820007E+02  0.25755E+06
 0.99870003E+02  0.26089E+06
 0.99920006E+02  0.25085E+06
 0.99970001E+02  0.23471E+06
 0.10002000E+03  0.22207E+06
 0.10007001E+03  0.20991E+06
 0.10012000E+03  0.18925E+06
 0.10017001E+03  0.16412E+06
 0.10022000E+03  0.14662E+06
 0.10027000E+03  0.14492E+06
 0.10032001E+03  0.15359E+06
 0.10037000E+03  0.16420E+06
 0.10042001E+03  0.16858E+06
 0.10047000E+03  0.16350E+06
 0.10052000E+03  0.15837E+06
 0.10057001E+03  0.15002E+06
 0.10062000E+03  0.12969E+06
 0.10067001E+03  0.99049E+05
 0.10072000E+03  0.64270E+05
 0.10077000E+03  0.39851E+05
 0.10082001E+03  0.36935E+05
 0.10087000E+03  0.45708E+05
 0.10092001E+03  0.51486E+05
 0.10097000E+03  0.52835E+05
 0.10102000E+03  0.49175E+05
 0.10107001E+03  0.42427E+05
 0.10112000E+03  0.35670E+05
 0.10117001E+03  0.22456E+05
 0.10122000E+03 -0.16350E+04
 0.10127000E+03 -0.32100E+05
 0.10132001E+03 -0.62196E+05
 0.10137000E+03 -0.89134E+05
 0.10142001E+03 -0.10956E+06
 0.10147000E+03 -0.12168E+06
 0.10152000E+03 -0.13065E+06
 0.10157001E+03 -0.13818E+06
 0.10162000E+03 -0.14688E+06
 0.10167001E+03 -0.16086E+06
 0.10172000E+03 -0.17653E+06
 0.10177000E+03 -0.19513E+06
 0.10182001E+03 -0.21667E+06
 0.10187000E+03 -0.23408E+06
 0.10192001E+03 -0.24612E+06
 0.10197000E+03 -0.25226E+06
 0.10202000E+03 -0.24880E+06
 0.10207001E+03 -0.23482E+06
 0.10212000E+03 -0.21307E+06
 0.10217001E+03 -0.18948E+06
 0.10222000E+03 -0.17143E+06
 0.10227000E+03 -0.16268E+06
 0.10232001E+03 -0.16263E+06
 0.10237000E+03 -0.16912E+06
 0.10242001E+03 -0.18128E+06
 0.10247000E+03 -0.19717E+06
 0.10252000E+03 -0.20984E+06
 0.10257001E+03 -0.21173E+06
 0.10262000E+03 -0.19728E+06
 0.10267001E+03 -0.17005E+06
 0.10272000E+03 -0.14023E+06
 0.10277000E+03 -0.10970E+06
 0.10282001E+03 -0.81262E+05
 0.10287000E+03 -0.57243E+05
 0.10292001E+03 -0.31314E+05
 0.10297000E+03 -0.46050E+04
 0.10302000E+03  0.17063E+05
 0.10307001E+03  0.32963E+05
 0.10312000E+03  0.45251E+05
 0.10317001E+03  0.57322E+05
 0.10322000E+03  0.69190E+05
 0.10327000E+03  0.77960E+05
 0.10332001E+03  0.82971E+05
 0.10337000E+03  0.90939E+05
 0.10342001E+03  0.10865E+06
 0.10347000E+03  0.13437E+06
 0.10352000E+03  0.16304E+06
 0.10357001E+03  0.18914E+06
 0.10362000E+03  0.20966E+06
 0.10367001E+03  0.22498E+06
 0.10372000E+03  0.23647E+06
 0.10377000E+03  0.24462E+06
 0.10382001E+03  0.25055E+06
 0.10387000E+03  0.25853E+06
 0.10392001E+03  0.26836E+06
 0.10397000E+03  0.27918E+06
 0.10402000E+03  0.29178E+06
 0.10407001E+03  0.29759E+06
 0.10412000E+03  0.29222E+06
 0.10417001E+03  0.28063E+06
 0.10422000E+03  0.26802E+06
 0.10427000E+03  0.26170E+06
 0.10432001E+03  0.26581E+06
 0.10437000E+03  0.28484E+06
 0.10442001E+03  0.32097E+06
 0.10447000E+03  0.36969E+06
 0.10452000E+03  0.42485E+06
 0.10457001E+03  0.47091E+06
 0.10462000E+03  0.49907E+06
 0.10467001E+03  0.51216E+06
 0.10472000E+03  0.50516E+06
 0.10477000E+03  0.47699E+06
 0.10482001E+03  0.43355E+06
 0.10487000E+03  0.38237E+06
 0.10492001E+03  0.33067E+06
 0.10497000E+03  0.28071E+06
 0.10502000E+03  0.23335E+06
 0.10507001E+03  0.18530E+06
 0.10512000E+03  0.13747E+06
 0.10517001E+03  0.95010E+05
 0.10522000E+03  0.56006E+05
 0.10527000E+03  0.19643E+05
 0.10532001E+03 -0.16934E+05
 0.10537000E+03 -0.58683E+05
 0.10542001E+03 -0.97065E+05
 0.10547000E+03 -0.12631E+06
 0.10552000E+03 -0.15120E+06
 0.10557001E+03 -0.17060E+06
 0.10562000E+03 -0.18372E+06
 0.10567001E+03 -0.18772E+06
 0.10572000E+03 -0.17655E+06
 0.10577000E+03 -0.15215E+06
 0.10582001E+03 -0.12061E+06
 0.10587000E+03 -0.87923E+05
 0.10592001E+03 -0.54516E+05
 0.10597000E+03 -0.14124E+05
 0.10602000E+03  0.35413E+05
 0.10607001E+03  0.90567E+05
 0.10612000E+03  0.14994E+06
 0.10617001E+03  0.20776E+06
 0.10622000E+03  0.25284E+06
 0.10627000E+03  0.28129E+06
 0.10632001E+03  0.29278E+06
 0.10637000E+03  0.29097E+06
 0.10642001E+03  0.28516E+06
 0.10647000E+03  0.28168E+06
 0.10652000E+03  0.28377E+06
 0.10657001E+03  0.29348E+06
 0.10662000E+03  0.30952E+06
 0.10667001E+03  0.32609E+06
 0.10672000E+03  0.33916E+06
 0.10677000E+03  0.34469E+06
 0.10682001E+03  0.33458E+06
 0.10687000E+03  0.30245E+06
 0.10692001E+03  0.24883E+06
 0.10697000E+03  0.18557E+06
 0.10702000E+03  0.12329E+06
 0.10707001E+03  0.63925E+05
 0.10712000E+03  0.11739E+05
 0.10717001E+03 -0.29687E+05
 0.10722000E+03 -0.60678E+05
 0.10727000E+03 -0.76681E+05
 0.10732001E+03 -0.77331E+05
 0.10737000E+03 -0.74687E+05
 0.10742001E+03 -0.77812E+05
 0.10747000E+03 -0.85177E+05
 0.10752000E+03 -0.87686E+05
 0.10757001E+03 -0.80682E+05
 0.10762000E+03 -0.62732E+05
 0.10767001E+03 -0.31153E+05
 0.10772000E+03  0.73950E+04
 0.10777000E+03  0.43671E+05
 0.10782001E+03  0.70198E+05
 0.10787000E+03  0.83146E+05
 0.10792001E+03  0.83167E+05
 0.10797000E+03  0.68491E+05
 0.10802000E+03  0.37979E+05
 0.10807001E+03 -0.23200E+03
 0.10812000E+03 -0.36729E+05
 0.10817001E+03 -0.70995E+05
 0.10822000E+03 -0.10521E+06
 0.10827000E+03 -0.14238E+06
 0.10832001E+03 -0.18421E+06
 0.10837000E+03 -0.23399E+06
 0.10842001E+03 -0.29506E+06
 0.10847000E+03 -0.37059E+06
 0.10852000E+03 -0.46568E+06
 0.10857001E+03 -0.57196E+06
 0.10862000E+03 -0.67132E+06
 0.10867001E+03 -0.75181E+06
 0.10872000E+03 -0.81048E+06
 0.10877000E+03 -0.84791E+06
 0.10882001E+03 -0.86619E+06
 0.10887000E+03 -0.87111E+06
 0.10892001E+03 -0.86743E+06
 0.10897000E+03 -0.85929E+06
 0.10902000E+03 -0.84818E+06
 0.10907001E+03 -0.82884E+06
 0.10912000E+03 -0.80125E+06
 0.10917001E+03 -0.77537E+06
 0.10922000E+03 -0.75693E+06
 0.10927000E+03 -0.74159E+06
 0.10932001E+03 -0.72528E+06
 0.10937000E+03 -0.70612E+06
 0.10942001E+03 -0.67840E+06
 0.10947000E+03 -0.64068E+06
 0.10952000E+03 -0.59250E+06
 0.10957001E+03 -0.52879E+06
 0.10962000E+03 -0.44903E+06
 0.10967001E+03 -0.35770E+06
 0.10972000E+03 -0.26398E+06
 0.10977000E+03 -0.17599E+06
 0.10982001E+03 -0.95774E+05
 0.10987000E+03 -0.20510E+05
 0.10992001E+03  0.54142E+05
 0.10997000E+03  0.12896E+06
 0.11002000E+03  0.19851E+06
 0.11007001E+03  0.25270E+06
 0.11012000E+03  0.28834E+06
 0.11017001E+03  0.30963E+06
 0.11022000E+03  0.32058E+06
 0.11027000E+03  0.32593E+06
 0.11032001E+03  0.33185E+06
 0.11037000E+03  0.34238E+06
 0.11042001E+03  0.35854E+06
 0.11047000E+03  0.37832E+06
 0.11052000E+03  0.39723E+06
 0.11057001E+03  0.41107E+06
 0.11062000E+03  0.41327E+06
 0.11067001E+03  0.39954E+06
 0.11072000E+03  0.37275E+06
 0.11077000E+03  0.33998E+06
 0.11082001E+03  0.31100E+06
 0.11087000E+03  0.29329E+06
 0.11092001E+03  0.29197E+06
 0.11097000E+03  0.30699E+06
 0.11102000E+03  0.32322E+06
 0.11107001E+03  0.32341E+06
 0.11112000E+03  0.30682E+06
 0.11117001E+03  0.28052E+06
 0.11122000E+03  0.24779E+06
 0.11127000E+03  0.20635E+06
 0.11132001E+03  0.15358E+06
 0.11137000E+03  0.93674E+05
 0.11142001E+03  0.32211E+05
 0.11147000E+03 -0.27611E+05
 0.11152000E+03 -0.78917E+05
 0.11157001E+03 -0.11686E+06
 0.11162000E+03 -0.14169E+06
 0.11167001E+03 -0.15703E+06
 0.11172000E+03 -0.17414E+06
 0.11177000E+03 -0.19719E+06
 0.11182001E+03 -0.22172E+06
 0.11187000E+03 -0.24923E+06
 0.11192001E+03 -0.27861E+06
 0.11197000E+03 -0.30255E+06
 0.11202000E+03 -0.31520E+06
 0.11207001E+03 -0.31539E+06
 0.11212000E+03 -0.30412E+06
 0.11217001E+03 -0.28600E+06
 0.11222000E+03 -0.26850E+06
 0.11227000E+03 -0.25261E+06
 0.11232001E+03 -0.23537E+06
 0.11237000E+03 -0.21698E+06
 0.11242001E+03 -0.19782E+06
 0.11247000E+03 -0.17765E+06
 0.11252000E+03 -0.15832E+06
 0.11257001E+03 -0.13867E+06
 0.11262000E+03 -0.11562E+06
 0.11267001E+03 -0.86960E+05
 0.11272000E+03 -0.48814E+05
 0.11277000E+03 -0.22090E+04
 0.11282001E+03  0.45088E+05
 0.11287000E+03  0.87047E+05
 0.11292001E+03  0.11958E+06
 0.11297000E+03  0.14178E+06
 0.11302000E+03  0.15783E+06
 0.11307001E+03  0.17189E+06
 0.11312000E+03  0.18555E+06
 0.11317001E+03  0.19727E+06
 0.11322000E+03  0.20807E+06
 0.11327000E+03  0.21537E+06
 0.11332001E+03  0.21447E+06
 0.11337000E+03  0.21379E+06
 0.11342001E+03  0.21819E+06
 0.11347000E+03  0.22066E+06
 0.11352000E+03  0.21712E+06
 0.11357001E+03  0.20880E+06
 0.11362000E+03  0.19677E+06
 0.11367001E+03  0.18236E+06
 0.11372000E+03  0.16826E+06
 0.11377000E+03  0.15336E+06
 0.11382001E+03  0.13876E+06
 0.11387000E+03  0.12607E+06
 0.11392001E+03  0.11703E+06
 0.11397000E+03  0.11479E+06
 0.11402000E+03  0.11666E+06
 0.11407001E+03  0.12458E+06
 0.11412000E+03  0.13658E+06
 0.11417001E+03  0.14682E+06
 0.11422000E+03  0.15553E+06
 0.11427000E+03  0.15709E+06
 0.11432001E+03  0.15133E+06
 0.11437000E+03  0.14383E+06
 0.11442001E+03  0.13489E+06
 0.11447000E+03  0.12751E+06
 0.11452000E+03  0.12583E+06
 0.11457001E+03  0.13434E+06
 0.11462000E+03  0.15853E+06
 0.11467001E+03  0.19156E+06
 0.11472000E+03  0.22098E+06
 0.11477000E+03  0.24213E+06
 0.11482001E+03  0.25154E+06
 0.11487000E+03  0.24556E+06
 0.11492001E+03  0.22491E+06
 0.11497000E+03  0.19656E+06
 0.11502000E+03  0.16412E+06
 0.11507001E+03  0.12393E+06
 0.11512000E+03  0.75611E+05
 0.11517001E+03  0.22021E+05
 0.11522000E+03 -0.31230E+05
 0.11527000E+03 -0.75762E+05
 0.11532001E+03 -0.10888E+06
 0.11537000E+03 -0.13033E+06
 0.11542001E+03 -0.13899E+06
 0.11547000E+03 -0.13757E+06
 0.11552000E+03 -0.12528E+06
 0.11557001E+03 -0.10056E+06
 0.11562000E+03 -0.67807E+05
 0.11567001E+03 -0.34507E+05
 0.11572000E+03 -0.13661E+05
 0.11577000E+03 -0.13829E+05
 0.11582001E+03 -0.30807E+05
 0.11587000E+03 -0.55756E+05
 0.11592001E+03 -0.77904E+05
 0.11597000E+03 -0.87729E+05
 0.11602000E+03 -0.84890E+05
 0.11607001E+03 -0.73254E+05
 0.11612000E+03 -0.55164E+05
 0.11617001E+03 -0.34047E+05
 0.11622000E+03 -0.10893E+05
 0.11627000E+03  0.13893E+05
 0.11632001E+03  0.38953E+05
 0.11637000E+03  0.64860E+05
 0.11642001E+03  0.89245E+05
 0.11647000E+03  0.10972E+06
 0.11652000E+03  0.12859E+06
 0.11657001E+03  0.14984E+06
 0.11662000E+03  0.17511E+06
 0.11667001E+03  0.20020E+06
 0.11672000E+03  0.21863E+06
 0.11677000E+03  0.22779E+06
 0.11682001E+03  0.22632E+06
 0.11687000E+03  0.21303E+06
 0.11692001E+03  0.19410E+06
 0.11697000E+03  0.17824E+06
 0.11702000E+03  0.16857E+06
 0.11707001E+03  0.16812E+06
 0.11712000E+03  0.17607E+06
 0.11717001E+03  0.18291E+06
 0.11722000E+03  0.18433E+06
 0.11727000E+03  0.17942E+06
 0.11732001E+03  0.16352E+06
 0.11737000E+03  0.13710E+06
 0.11742001E+03  0.10382E+06
 0.11747000E+03  0.69089E+05
 0.11752000E+03  0.41829E+05
 0.11757001E+03  0.24374E+05
 0.11762000E+03  0.10360E+05
 0.11767001E+03 -0.53040E+04
 0.11772000E+03 -0.23168E+05
 0.11777000E+03 -0.43910E+05
 0.11782001E+03 -0.69744E+05
 0.11787000E+03 -0.10156E+06
 0.11792001E+03 -0.13654E+06
 0.11797000E+03 -0.17373E+06
 0.11802000E+03 -0.21410E+06
 0.11807001E+03 -0.25293E+06
 0.11812000E+03 -0.28645E+06
 0.11817001E+03 -0.31500E+06
 0.11822000E+03 -0.33995E+06
 0.11827000E+03 -0.36467E+06
 0.11832001E+03 -0.38885E+06
 0.11837000E+03 -0.40793E+06
 0.11842001E+03 -0.41962E+06
 0.11847000E+03 -0.42417E+06
 0.11852000E+03 -0.42026E+06
 0.11857001E+03 -0.40621E+06
 0.11862000E+03 -0.38291E+06
 0.11867001E+03 -0.35117E+06
 0.11872000E+03 -0.31173E+06
 0.11877000E+03 -0.26491E+06
 0.11882001E+03 -0.21145E+06
 0.11887000E+03 -0.15490E+06
 0.11892001E+03 -0.99629E+05
 0.11897000E+03 -0.50097E+05
 0.11902000E+03 -0.71470E+04
 0.11907001E+03  0.30277E+05
 0.11912000E+03  0.61760E+05
 0.11917001E+03  0.90243E+05
 0.11922000E+03  0.11632E+06
 0.11927000E+03  0.13676E+06
 0.11932001E+03  0.15350E+06
 0.11937000E+03  0.17254E+06
 0.11942001E+03  0.19567E+06
 0.11947000E+03  0.22029E+06
 0.11952000E+03  0.24305E+06
 0.11957001E+03  0.25896E+06
 0.11962000E+03  0.26708E+06
 0.11967001E+03  0.26666E+06
 0.11972000E+03  0.25344E+06
 0.11977000E+03  0.22940E+06
 0.11982001E+03  0.19556E+06
 0.11987000E+03  0.14923E+06
 0.11992001E+03  0.93919E+05
 0.11997000E+03  0.34584E+05
 0.12002000E+03 -0.24732E+05
 0.12007001E+03 -0.78917E+05
 0.12012000E+03 -0.12953E+06
 0.12017001E+03 -0.17959E+06
 0.12022000E+03 -0.22635E+06
 0.12027000E+03 -0.26851E+06
 0.12032001E+03 -0.30388E+06
 0.12037000E+03 -0.32687E+06
 0.12042001E+03 -0.33355E+06
 0.12047000E+03 -0.32409E+06
 0.12052000E+03 -0.30184E+06
 0.12057001E+03 -0.27462E+06
 0.12062000E+03 -0.25312E+06
 0.12067001E+03 -0.23755E+06
 0.12072000E+03 -0.22047E+06
 0.12077000E+03 -0.19893E+06
 0.12082001E+03 -0.17006E+06
 0.12087000E+03 -0.13276E+06
 0.12092001E+03 -0.89445E+05
 0.12097000E+03 -0.37420E+05
 0.12102000E+03  0.21447E+05
 0.12107001E+03  0.75709E+05
 0.12112000E+03  0.11957E+06
 0.12117001E+03  0.15338E+06
 0.12122000E+03  0.17968E+06
 0.12127000E+03  0.20315E+06
 0.12132001E+03  0.22586E+06
 0.12137000E+03  0.24885E+06
 0.12142001E+03  0.27197E+06
 0.12147000E+03  0.29285E+06
 0.12152000E+03  0.30803E+06
 0.12157001E+03  0.31401E+06
 0.12162000E+03  0.30720E+06
 0.12167001E+03  0.28524E+06
 0.12172000E+03  0.25156E+06
 0.12177000E+03  0.21035E+06
 0.12182001E+03  0.16613E+06
 0.12187000E+03  0.12292E+06
 0.12192001E+03  0.81642E+05
 0.12197000E+03  0.44578E+05
 0.12202000E+03  0.12928E+05
 0.12207001E+03 -0.10121E+05
 0.12212000E+03 -0.22161E+05
 0.12217001E+03 -0.24718E+05
 0.12222000E+03 -0.19629E+05
 0.12227000E+03 -0.10521E+05
 0.12232001E+03 -0.19160E+04
 0.12237000E+03  0.27980E+04
 0.12242001E+03  0.19250E+04
 0.12247000E+03 -0.53770E+04
 0.12252000E+03 -0.14747E+05
 0.12257001E+03 -0.18501E+05
 0.12262000E+03 -0.11857E+05
 0.12267001E+03  0.50730E+04
 0.12272000E+03  0.25769E+05
 0.12277000E+03  0.40832E+05
 0.12282001E+03  0.42775E+05
 0.12287000E+03  0.31726E+05
 0.12292001E+03  0.15351E+05
 0.12297000E+03  0.26200E+04
 0.12302000E+03 -0.12940E+04
 0.12307001E+03  0.59440E+04
 0.12312000E+03  0.21735E+05
 0.12317001E+03  0.36464E+05
 0.12322000E+03  0.46380E+05
 0.12327000E+03  0.52780E+05
 0.12332001E+03  0.55962E+05
 0.12337000E+03  0.58678E+05
 0.12342001E+03  0.65650E+05
 0.12347000E+03  0.80247E+05
 0.12352000E+03  0.99871E+05
 0.12357001E+03  0.12001E+06
 0.12362000E+03  0.13535E+06
 0.12367001E+03  0.14446E+06
 0.12372000E+03  0.15142E+06
 0.12377000E+03  0.15762E+06
 0.12382001E+03  0.16412E+06
 0.12387000E+03  0.17184E+06
 0.12392001E+03  0.18053E+06
 0.12397000E+03  0.18848E+06
 0.12402000E+03  0.19130E+06
 0.12407001E+03  0.18507E+06
 0.12412000E+03  0.16801E+06
 0.12417001E+03  0.14102E+06
 0.12422001E+03  0.10958E+06
 0.12427001E+03  0.81236E+05
 0.12432000E+03  0.59221E+05
 0.12437000E+03  0.41569E+05
 0.12442001E+03  0.30156E+05
 0.12447001E+03  0.31605E+05
 0.12452001E+03  0.44627E+05
 0.12457000E+03  0.63455E+05
 0.12462000E+03  0.82158E+05
 0.12467001E+03  0.93485E+05
 0.12472001E+03  0.94281E+05
 0.12477001E+03  0.85126E+05
 0.12482000E+03  0.67505E+05
 0.12487000E+03  0.41283E+05
 0.12492001E+03  0.11115E+05
 0.12497001E+03 -0.15549E+05
 0.12502001E+03 -0.37749E+05
 0.12507000E+03 -0.56362E+05
 0.12512000E+03 -0.72667E+05
 0.12517001E+03 -0.86697E+05
 0.12522001E+03 -0.96337E+05
 0.12527001E+03 -0.10048E+06
 0.12532000E+03 -0.98766E+05
 0.12537000E+03 -0.92134E+05
 0.12542001E+03 -0.83211E+05
 0.12547001E+03 -0.74627E+05
 0.12552001E+03 -0.65871E+05
 0.12557000E+03 -0.55303E+05
 0.12562000E+03 -0.45230E+05
 0.12567001E+03 -0.39350E+05
 0.12572001E+03 -0.37239E+05
 0.12577001E+03 -0.36727E+05
 0.12582000E+03 -0.39621E+05
 0.12587000E+03 -0.49143E+05
 0.12592001E+03 -0.64363E+05
 0.12597001E+03 -0.80884E+05
 0.12602001E+03 -0.96501E+05
 0.12607000E+03 -0.11472E+06
 0.12612000E+03 -0.13829E+06
 0.12617001E+03 -0.16651E+06
 0.12622001E+03 -0.19692E+06
 0.12627001E+03 -0.22296E+06
 0.12632000E+03 -0.24086E+06
 0.12637000E+03 -0.25272E+06
 0.12642001E+03 -0.25952E+06
 0.12647001E+03 -0.25885E+06
 0.12652001E+03 -0.25020E+06
 0.12657000E+03 -0.23675E+06
 0.12662000E+03 -0.22071E+06
 0.12667001E+03 -0.20492E+06
 0.12672001E+03 -0.19423E+06
 0.12677001E+03 -0.19139E+06
 0.12682000E+03 -0.19416E+06
 0.12687000E+03 -0.19930E+06
 0.12692001E+03 -0.20423E+06
 0.12697001E+03 -0.20558E+06
 0.12702001E+03 -0.20355E+06
 0.12707000E+03 -0.19878E+06
 0.12712000E+03 -0.19069E+06
 0.12717001E+03 -0.18143E+06
 0.12722001E+03 -0.17084E+06
 0.12727001E+03 -0.15698E+06
 0.12732000E+03 -0.13973E+06
 0.12737000E+03 -0.12140E+06
 0.12742001E+03 -0.10808E+06
 0.12747001E+03 -0.10252E+06
 0.12752001E+03 -0.10161E+06
 0.12757000E+03 -0.10155E+06
 0.12762000E+03 -0.99284E+05
 0.12767001E+03 -0.94864E+05
 0.12772001E+03 -0.92390E+05
 0.12777001E+03 -0.93957E+05
 0.12782000E+03 -0.10002E+06
 0.12787000E+03 -0.11208E+06
 0.12792001E+03 -0.12745E+06
 0.12797001E+03 -0.14290E+06
 0.12802000E+03 -0.15684E+06
 0.12806999E+03 -0.16658E+06
 0.12812000E+03 -0.16866E+06
 0.12817000E+03 -0.15865E+06
 0.12822000E+03 -0.13670E+06
 0.12827000E+03 -0.10800E+06
 0.12831999E+03 -0.77563E+05
 0.12837000E+03 -0.46440E+05
 0.12842000E+03 -0.12898E+05
 0.12847000E+03  0.23484E+05
 0.12852000E+03  0.61394E+05
 0.12856999E+03  0.98046E+05
 0.12862000E+03  0.13139E+06
 0.12867000E+03  0.16142E+06
 0.12872000E+03  0.18867E+06
 0.12877000E+03  0.21214E+06
 0.12881999E+03  0.23021E+06
 0.12887000E+03  0.24362E+06
 0.12892000E+03  0.25271E+06
 0.12897000E+03  0.25571E+06
 0.12902000E+03  0.25350E+06
 0.12906999E+03  0.24742E+06
 0.12912000E+03  0.23492E+06
 0.12917000E+03  0.21572E+06
 0.12922000E+03  0.19310E+06
 0.12927000E+03  0.17000E+06
 0.12931999E+03  0.14775E+06
 0.12937000E+03  0.12595E+06
 0.12942000E+03  0.10515E+06
 0.12947000E+03  0.84734E+05
 0.12952000E+03  0.62785E+05
 0.12956999E+03  0.39647E+05
 0.12962000E+03  0.17012E+05
 0.12967000E+03 -0.33300E+04
 0.12972000E+03 -0.21039E+05
 0.12977000E+03 -0.37184E+05
 0.12981999E+03 -0.53188E+05
 0.12987000E+03 -0.68692E+05
 0.12992000E+03 -0.79629E+05
 0.12997000E+03 -0.82122E+05
 0.13002000E+03 -0.76586E+05
 0.13006999E+03 -0.67037E+05
 0.13012000E+03 -0.56347E+05
 0.13017000E+03 -0.43362E+05
 0.13022000E+03 -0.27413E+05
 0.13027000E+03 -0.11071E+05
 0.13031999E+03  0.26910E+04
 0.13037000E+03  0.12678E+05
 0.13042000E+03  0.19967E+05
 0.13047000E+03  0.24643E+05
 0.13052000E+03  0.24867E+05
 0.13056999E+03  0.21410E+05
 0.13062000E+03  0.17115E+05
 0.13067000E+03  0.14921E+05
 0.13072000E+03  0.15913E+05
 0.13077000E+03  0.15249E+05
 0.13081999E+03  0.69980E+04
 0.13087000E+03 -0.94030E+04
 0.13092000E+03 -0.29464E+05
 0.13097000E+03 -0.46999E+05
 0.13102000E+03 -0.60148E+05
 0.13106999E+03 -0.69584E+05
 0.13112000E+03 -0.74736E+05
 0.13117000E+03 -0.76930E+05
 0.13122000E+03 -0.75357E+05
 0.13127000E+03 -0.67099E+05
 0.13131999E+03 -0.56150E+05
 0.13137000E+03 -0.48341E+05
 0.13142000E+03 -0.43857E+05
 0.13147000E+03 -0.41733E+05
 0.13152000E+03 -0.40639E+05
 0.13156999E+03 -0.38503E+05
 0.13162000E+03 -0.37040E+05
 0.13167000E+03 -0.36577E+05
 0.13172000E+03 -0.32681E+05
 0.13177000E+03 -0.22380E+05
 0.13181999E+03 -0.59390E+04
 0.13187000E+03  0.13238E+05
 0.13192000E+03  0.31583E+05
 0.13197000E+03  0.46231E+05
 0.13202000E+03  0.55411E+05
 0.13206999E+03  0.62023E+05
 0.13212000E+03  0.67209E+05
 0.13217000E+03  0.70023E+05
 0.13222000E+03  0.74007E+05
 0.13227000E+03  0.80395E+05
 0.13231999E+03  0.88054E+05
 0.13237000E+03  0.98129E+05
 0.13242000E+03  0.10862E+06
 0.13247000E+03  0.11511E+06
 0.13252000E+03  0.11604E+06
 0.13256999E+03  0.11341E+06
 0.13262000E+03  0.10997E+06
 0.13267000E+03  0.10698E+06
 0.13272000E+03  0.10320E+06
 0.13277000E+03  0.96569E+05
 0.13281999E+03  0.88997E+05
 0.13287000E+03  0.83685E+05
 0.13292000E+03  0.80743E+05
 0.13297000E+03  0.78559E+05
 0.13302000E+03  0.75283E+05
 0.13306999E+03  0.70927E+05
 0.13312000E+03  0.68633E+05
 0.13317000E+03  0.71670E+05
 0.13322000E+03  0.78897E+05
 0.13327000E+03  0.88309E+05
 0.13331999E+03  0.99565E+05
 0.13337000E+03  0.10878E+06
 0.13342000E+03  0.11133E+06
 0.13347000E+03  0.10503E+06
 0.13352000E+03  0.89235E+05
 0.13356999E+03  0.65172E+05
 0.13362000E+03  0.35411E+05
 0.13367000E+03  0.25370E+04
 0.13372000E+03 -0.32356E+05
 0.13377000E+03 -0.67338E+05
 0.13381999E+03 -0.99436E+05
 0.13387000E+03 -0.12716E+06
 0.13392000E+03 -0.15101E+06
 0.13397000E+03 -0.17136E+06
 0.13402000E+03 -0.18685E+06
 0.13406999E+03 -0.19357E+06
 0.13412000E+03 -0.18715E+06
 0.13417000E+03 -0.16817E+06
 0.13422000E+03 -0.14032E+06
 0.13427000E+03 -0.10947E+06
 0.13431999E+03 -0.81622E+05
 0.13437000E+03 -0.58670E+05
 0.13442000E+03 -0.41021E+05
 0.13447000E+03 -0.28181E+05
 0.13452000E+03 -0.19466E+05
 0.13456999E+03 -0.14291E+05
 0.13462000E+03 -0.10779E+05
 0.13467000E+03 -0.62450E+04
 0.13472000E+03  0.10180E+04
 0.13477000E+03  0.86870E+04
 0.13481999E+03  0.13554E+05
 0.13487000E+03  0.15487E+05
 0.13492000E+03  0.17586E+05
 0.13497000E+03  0.22572E+05
 0.13502000E+03  0.31347E+05
 0.13506999E+03  0.47223E+05
 0.13512000E+03  0.73582E+05
 0.13517000E+03  0.10970E+06
 0.13522000E+03  0.15074E+06
 0.13527000E+03  0.19091E+06
 0.13531999E+03  0.22530E+06
 0.13537000E+03  0.25100E+06
 0.13542000E+03  0.26929E+06
 0.13547000E+03  0.28165E+06
 0.13552000E+03  0.28974E+06
 0.13556999E+03  0.29591E+06
 0.13562000E+03  0.30042E+06
 0.13567000E+03  0.30453E+06
 0.13572000E+03  0.30864E+06
 0.13577000E+03  0.31100E+06
 0.13581999E+03  0.31073E+06
 0.13587000E+03  0.30936E+06
 0.13592000E+03  0.30900E+06
 0.13597000E+03  0.30923E+06
 0.13602000E+03  0.30953E+06
 0.13606999E+03  0.30955E+06
 0.13612000E+03  0.30829E+06
 0.13617000E+03  0.30323E+06
 0.13622000E+03  0.29237E+06
 0.13627000E+03  0.27815E+06
 0.13631999E+03  0.26338E+06
 0.13637000E+03  0.24961E+06
 0.13642000E+03  0.23797E+06
 0.13647000E+03  0.22847E+06
 0.13652000E+03  0.22073E+06
 0.13656999E+03  0.21238E+06
 0.13662000E+03  0.20022E+06
 0.13667000E+03  0.18247E+06
 0.13672000E+03  0.15884E+06
 0.13677000E+03  0.12969E+06
 0.13681999E+03  0.95558E+05
 0.13687000E+03  0.55528E+05
 0.13692000E+03  0.82880E+04
 0.13697000E+03 -0.42393E+05
 0.13702000E+03 -0.92401E+05
 0.13706999E+03 -0.14021E+06
 0.13712000E+03 -0.18399E+06
 0.13717000E+03 -0.22306E+06
 0.13722000E+03 -0.25661E+06
 0.13727000E+03 -0.28484E+06
 0.13731999E+03 -0.30990E+06
 0.13737000E+03 -0.33483E+06
 0.13742000E+03 -0.36072E+06
 0.13747000E+03 -0.38544E+06
 0.13752000E+03 -0.40938E+06
 0.13756999E+03 -0.43333E+06
 0.13762000E+03 -0.45543E+06
 0.13767000E+03 -0.47419E+06
 0.13772000E+03 -0.48776E+06
 0.13777000E+03 -0.49621E+06
 0.13781999E+03 -0.50149E+06
 0.13787000E+03 -0.50303E+06
 0.13792000E+03 -0.49938E+06
 0.13797000E+03 -0.49142E+06
 0.13802000E+03 -0.48030E+06
 0.13806999E+03 -0.46452E+06
 0.13812000E+03 -0.44266E+06
 0.13817000E+03 -0.41546E+06
 0.13822000E+03 -0.38401E+06
 0.13827000E+03 -0.34950E+06
 0.13831999E+03 -0.31215E+06
 0.13837000E+03 -0.27112E+06
 0.13842000E+03 -0.22733E+06
 0.13847000E+03 -0.18395E+06
 0.13852000E+03 -0.14384E+06
 0.13856999E+03 -0.10675E+06
 0.13862000E+03 -0.70752E+05
 0.13867000E+03 -0.34903E+05
 0.13872000E+03  0.27980E+04
 0.13877000E+03  0.42877E+05
 0.13881999E+03  0.81517E+05
 0.13887000E+03  0.11414E+06
 0.13892000E+03  0.13871E+06
 0.13897000E+03  0.15691E+06
 0.13902000E+03  0.17141E+06
 0.13906999E+03  0.18447E+06
 0.13912000E+03  0.19775E+06
 0.13917000E+03  0.21089E+06
 0.13922000E+03  0.22237E+06
 0.13927000E+03  0.22899E+06
 0.13931999E+03  0.22711E+06
 0.13937000E+03  0.21604E+06
 0.13942000E+03  0.19815E+06
 0.13947000E+03  0.17847E+06
 0.13952000E+03  0.16098E+06
 0.13956999E+03  0.14614E+06
 0.13962000E+03  0.13471E+06
 0.13967000E+03  0.12639E+06
 0.13972000E+03  0.11882E+06
 0.13977000E+03  0.11154E+06
 0.13981999E+03  0.10393E+06
 0.13987000E+03  0.93870E+05
 0.13992000E+03  0.80380E+05
 0.13997000E+03  0.62364E+05
 0.14002000E+03  0.39160E+05
 0.14006999E+03  0.12777E+05
 0.14012000E+03 -0.16202E+05
 0.14017000E+03 -0.48139E+05
 0.14022000E+03 -0.79238E+05
 0.14027000E+03 -0.10704E+06
 0.14031999E+03 -0.13304E+06
 0.14037000E+03 -0.15666E+06
 0.14042000E+03 -0.17789E+06
 0.14047000E+03 -0.19761E+06
 0.14052000E+03 -0.21360E+06
 0.14056999E+03 -0.22420E+06
 0.14062000E+03 -0.22960E+06
 0.14067000E+03 -0.22974E+06
 0.14072000E+03 -0.22448E+06
 0.14077000E+03 -0.21527E+06
 0.14081999E+03 -0.20355E+06
 0.14087000E+03 -0.18946E+06
 0.14092000E+03 -0.17258E+06
 0.14097000E+03 -0.15206E+06
 0.14102000E+03 -0.13015E+06
 0.14106999E+03 -0.11002E+06
 0.14112000E+03 -0.93623E+05
 0.14117000E+03 -0.83418E+05
 0.14122000E+03 -0.80010E+05
 0.14127000E+03 -0.84214E+05
 0.14131999E+03 -0.94858E+05
 0.14137000E+03 -0.10733E+06
 0.14142000E+03 -0.11787E+06
 0.14147000E+03 -0.12319E+06
 0.14152000E+03 -0.12163E+06
 0.14156999E+03 -0.11302E+06
 0.14162000E+03 -0.97437E+05
 0.14167000E+03 -0.76110E+05
 0.14172000E+03 -0.51404E+05
 0.14177000E+03 -0.26049E+05
 0.14181999E+03 -0.20430E+04
 0.14187000E+03  0.19861E+05
 0.14192000E+03  0.38448E+05
 0.14197000E+03  0.51751E+05
 0.14202000E+03  0.61123E+05
 0.14206999E+03  0.69936E+05
 0.14212000E+03  0.79467E+05
 0.14217000E+03  0.90321E+05
 0.14222000E+03  0.10462E+06
 0.14227000E+03  0.12336E+06
 0.14231999E+03  0.14426E+06
 0.14237000E+03  0.16548E+06
 0.14242000E+03  0.18694E+06
 0.14247000E+03  0.20802E+06
 0.14252000E+03  0.22653E+06
 0.14256999E+03  0.23850E+06
 0.14262000E+03  0.24031E+06
 0.14267000E+03  0.23214E+06
 0.14272000E+03  0.21732E+06
 0.14277000E+03  0.19885E+06
 0.14281999E+03  0.17816E+06
 0.14287000E+03  0.15486E+06
 0.14292000E+03  0.12727E+06
 0.14297000E+03  0.92394E+05
 0.14302000E+03  0.48461E+05
 0.14306999E+03 -0.11560E+04
 0.14312000E+03 -0.50978E+05
 0.14317000E+03 -0.94638E+05
 0.14322000E+03 -0.12754E+06
 0.14327000E+03 -0.14969E+06
 0.14331999E+03 -0.16315E+06
 0.14337000E+03 -0.17174E+06
 0.14342000E+03 -0.17724E+06
 0.14347000E+03 -0.17926E+06
 0.14352000E+03 -0.17667E+06
 0.14356999E+03 -0.16829E+06
 0.14362000E+03 -0.15794E+06
 0.14367000E+03 -0.15070E+06
 0.14372000E+03 -0.14740E+06
 0.14377000E+03 -0.14634E+06
 0.14381999E+03 -0.14462E+06
 0.14387000E+03 -0.13959E+06
 0.14392000E+03 -0.13121E+06
 0.14397000E+03 -0.12003E+06
 0.14402000E+03 -0.10475E+06
 0.14406999E+03 -0.83479E+05
 0.14412000E+03 -0.53304E+05
 0.14417000E+03 -0.10969E+05
 0.14422000E+03  0.41085E+05
 0.14427000E+03  0.96171E+05
 0.14431999E+03  0.15182E+06
 0.14437000E+03  0.20786E+06
 0.14442000E+03  0.26312E+06
 0.14447000E+03  0.31543E+06
 0.14452000E+03  0.35885E+06
 0.14456999E+03  0.39000E+06
 0.14462000E+03  0.41196E+06
 0.14467000E+03  0.42747E+06
 0.14472000E+03  0.43800E+06
 0.14477000E+03  0.44368E+06
 0.14481999E+03  0.44250E+06
 0.14487000E+03  0.43347E+06
 0.14492000E+03  0.41973E+06
 0.14497000E+03  0.40620E+06
 0.14502000E+03  0.39454E+06
 0.14506999E+03  0.38349E+06
 0.14512000E+03  0.37025E+06
 0.14517000E+03  0.35318E+06
 0.14522000E+03  0.33292E+06
 0.14527000E+03  0.30958E+06
 0.14531999E+03  0.28315E+06
 0.14537000E+03  0.25513E+06
 0.14542000E+03  0.22716E+06
 0.14547000E+03  0.19938E+06
 0.14552000E+03  0.17217E+06
 0.14556999E+03  0.14678E+06
 0.14562000E+03  0.12187E+06
 0.14567000E+03  0.95600E+05
 0.14572000E+03  0.68168E+05
 0.14577000E+03  0.39389E+05
 0.14581999E+03  0.10798E+05
 0.14587000E+03 -0.15531E+05
 0.14592000E+03 -0.39619E+05
 0.14597000E+03 -0.59762E+05
 0.14602000E+03 -0.74646E+05
 0.14606999E+03 -0.83969E+05
 0.14612000E+03 -0.86428E+05
 0.14617000E+03 -0.83508E+05
 0.14622000E+03 -0.77481E+05
 0.14627000E+03 -0.69845E+05
 0.14631999E+03 -0.64465E+05
 0.14637000E+03 -0.64334E+05
 0.14642000E+03 -0.68346E+05
 0.14647000E+03 -0.75309E+05
 0.14652000E+03 -0.86391E+05
 0.14656999E+03 -0.10172E+06
 0.14662000E+03 -0.11929E+06
 0.14667000E+03 -0.13720E+06
 0.14672000E+03 -0.15401E+06
 0.14677000E+03 -0.16873E+06
 0.14681999E+03 -0.18192E+06
 0.14687000E+03 -0.19379E+06
 0.14692000E+03 -0.20427E+06
 0.14697000E+03 -0.21346E+06
 0.14702000E+03 -0.22064E+06
 0.14706999E+03 -0.22563E+06
 0.14712000E+03 -0.22724E+06
 0.14717000E+03 -0.22530E+06
 0.14722000E+03 -0.22188E+06
 0.14727000E+03 -0.21755E+06
 0.14731999E+03 -0.21153E+06
 0.14737000E+03 -0.20386E+06
 0.14742000E+03 -0.19490E+06
 0.14747000E+03 -0.18365E+06
 0.14752000E+03 -0.16981E+06
 0.14756999E+03 -0.15480E+06
 0.14762000E+03 -0.14062E+06
 0.14767000E+03 -0.12721E+06
 0.14772000E+03 -0.11368E+06
 0.14777000E+03 -0.99385E+05
 0.14781999E+03 -0.83156E+05
 0.14787000E+03 -0.66429E+05
 0.14792000E+03 -0.50507E+05
 0.14797000E+03 -0.36660E+05
 0.14802000E+03 -0.26317E+05
 0.14806999E+03 -0.20209E+05
 0.14812000E+03 -0.20223E+05
 0.14817000E+03 -0.25762E+05
 0.14822000E+03 -0.34507E+05
 0.14827000E+03 -0.44551E+05
 0.14831999E+03 -0.55037E+05
 0.14837000E+03 -0.65579E+05
 0.14842000E+03 -0.75120E+05
 0.14847000E+03 -0.82323E+05
 0.14852000E+03 -0.84941E+05
 0.14856999E+03 -0.83713E+05
 0.14862000E+03 -0.82102E+05
 0.14867000E+03 -0.81870E+05
 0.14872000E+03 -0.82881E+05
 0.14877000E+03 -0.83481E+05
 0.14881999E+03 -0.81497E+05
 0.14887000E+03 -0.75688E+05
 0.14892000E+03 -0.66654E+05
 0.14897000E+03 -0.56790E+05
 0.14902000E+03 -0.48032E+05
 0.14906999E+03 -0.39598E+05
