-0.38800001E+01 -0.27855E+05
-0.38300002E+01 -0.20989E+05
-0.37800002E+01 -0.12564E+05
-0.37300000E+01 -0.36670E+04
-0.36800001E+01  0.48080E+04
-0.36300001E+01  0.13054E+05
-0.35800002E+01  0.21463E+05
-0.35300002E+01  0.29776E+05
-0.34800000E+01  0.37390E+05
-0.34300001E+01  0.43999E+05
-0.33800001E+01  0.49279E+05
-0.33300002E+01  0.52610E+05
-0.32800002E+01  0.53537E+05
-0.32300000E+01  0.52180E+05
-0.31800001E+01  0.48999E+05
-0.31300001E+01  0.44497E+05
-0.30800002E+01  0.39092E+05
-0.30300002E+01  0.33325E+05
-0.29800000E+01  0.27517E+05
-0.29300001E+01  0.21046E+05
-0.28800001E+01  0.13239E+05
-0.28299999E+01  0.44960E+04
-0.27800002E+01 -0.42250E+04
-0.27300000E+01 -0.12338E+05
-0.26800001E+01 -0.19496E+05
-0.26300001E+01 -0.25272E+05
-0.25799999E+01 -0.29554E+05
-0.25300002E+01 -0.32618E+05
-0.24800000E+01 -0.34519E+05
-0.24300001E+01 -0.35238E+05
-0.23800001E+01 -0.35027E+05
-0.23299999E+01 -0.33895E+05
-0.22800002E+01 -0.31842E+05
-0.22300000E+01 -0.29392E+05
-0.21800001E+01 -0.27169E+05
-0.21300001E+01 -0.25338E+05
-0.20799999E+01 -0.23427E+05
-0.20300002E+01 -0.21001E+05
-0.19800001E+01 -0.17922E+05
-0.19300001E+01 -0.13849E+05
-0.18800001E+01 -0.86800E+04
-0.18300002E+01 -0.23750E+04
-0.17800000E+01  0.51640E+04
-0.17300000E+01  0.13474E+05
-0.16800001E+01  0.21766E+05
-0.16300001E+01  0.29240E+05
-0.15800002E+01  0.35405E+05
-0.15300000E+01  0.40181E+05
-0.14800000E+01  0.43632E+05
-0.14300001E+01  0.45931E+05
-0.13800001E+01  0.47453E+05
-0.13300002E+01  0.48862E+05
-0.12800000E+01  0.50513E+05
-0.12300000E+01  0.51788E+05
-0.11800001E+01  0.51630E+05
-0.11300001E+01  0.49351E+05
-0.10800002E+01  0.44567E+05
-0.10300000E+01  0.37129E+05
-0.98000002E+00  0.27798E+05
-0.93000007E+00  0.17862E+05
-0.88000011E+00  0.77510E+04
-0.83000016E+00 -0.29810E+04
-0.77999997E+00 -0.14764E+05
-0.73000002E+00 -0.27393E+05
-0.68000007E+00 -0.39927E+05
-0.63000011E+00 -0.51606E+05
-0.58000016E+00 -0.62490E+05
-0.52999997E+00 -0.72461E+05
-0.48000002E+00 -0.80869E+05
-0.43000007E+00 -0.87267E+05
-0.38000011E+00 -0.91516E+05
-0.33000016E+00 -0.93453E+05
-0.27999997E+00 -0.92815E+05
-0.23000002E+00 -0.89837E+05
-0.18000007E+00 -0.85176E+05
-0.13000011E+00 -0.78945E+05
-0.80000162E-01 -0.71019E+05
-0.29999971E-01 -0.61605E+05
 0.19999981E-01 -0.51162E+05
 0.69999933E-01 -0.40005E+05
 0.11999989E+00 -0.28217E+05
 0.17000008E+00 -0.15631E+05
 0.21999979E+00 -0.21880E+04
 0.26999998E+00  0.11386E+05
 0.32000017E+00  0.24646E+05
 0.36999989E+00  0.37752E+05
 0.42000008E+00  0.50678E+05
 0.46999979E+00  0.62889E+05
 0.51999998E+00  0.73640E+05
 0.57000017E+00  0.82627E+05
 0.61999989E+00  0.89614E+05
 0.67000008E+00  0.94374E+05
 0.71999979E+00  0.96940E+05
 0.76999998E+00  0.97758E+05
 0.82000017E+00  0.97619E+05
 0.86999989E+00  0.97015E+05
 0.92000008E+00  0.96000E+05
 0.96999979E+00  0.94415E+05
 0.10200000E+01  0.92244E+05
 0.10700002E+01  0.89406E+05
 0.11199999E+01  0.85200E+05
 0.11700001E+01  0.78909E+05
 0.12199998E+01  0.70655E+05
 0.12700000E+01  0.61369E+05
 0.13200002E+01  0.51980E+05
 0.13699999E+01  0.42905E+05
 0.14200001E+01  0.34291E+05
 0.14699998E+01  0.25826E+05
 0.15200000E+01  0.16913E+05
 0.15700002E+01  0.77070E+04
 0.16199999E+01 -0.12390E+04
 0.16700001E+01 -0.10078E+05
 0.17199998E+01 -0.19223E+05
 0.17700000E+01 -0.28234E+05
 0.18200002E+01 -0.36023E+05
 0.18699999E+01 -0.42143E+05
 0.19200001E+01 -0.47055E+05
 0.19699998E+01 -0.51030E+05
 0.20200000E+01 -0.54007E+05
 0.20700002E+01 -0.56112E+05
 0.21199999E+01 -0.56970E+05
 0.21700001E+01 -0.55798E+05
 0.22199998E+01 -0.52409E+05
 0.22700000E+01 -0.47193E+05
 0.23200002E+01 -0.40866E+05
 0.23699999E+01 -0.34178E+05
 0.24200001E+01 -0.27745E+05
 0.24699998E+01 -0.21893E+05
 0.25200000E+01 -0.16852E+05
 0.25700002E+01 -0.13147E+05
 0.26199999E+01 -0.11018E+05
 0.26700001E+01 -0.10360E+05
 0.27199998E+01 -0.10811E+05
 0.27700000E+01 -0.11890E+05
 0.28200002E+01 -0.13252E+05
 0.28699999E+01 -0.14384E+05
 0.29200001E+01 -0.15214E+05
 0.29699998E+01 -0.16013E+05
 0.30200000E+01 -0.16596E+05
 0.30700002E+01 -0.16569E+05
 0.31199999E+01 -0.15808E+05
 0.31700001E+01 -0.14795E+05
 0.32199998E+01 -0.14111E+05
 0.32700000E+01 -0.14120E+05
 0.33200002E+01 -0.14822E+05
 0.33699999E+01 -0.15543E+05
 0.34200001E+01 -0.15593E+05
 0.34699998E+01 -0.14920E+05
 0.35200000E+01 -0.13974E+05
 0.35700002E+01 -0.13070E+05
 0.36199999E+01 -0.12181E+05
 0.36700001E+01 -0.11195E+05
 0.37199998E+01 -0.10069E+05
 0.37700000E+01 -0.84300E+04
 0.38200002E+01 -0.59860E+04
 0.38699999E+01 -0.33970E+04
 0.39200001E+01 -0.12720E+04
 0.39699998E+01  0.51600E+03
 0.40200000E+01  0.23480E+04
 0.40700002E+01  0.43750E+04
 0.41199999E+01  0.67310E+04
 0.41700001E+01  0.98130E+04
 0.42200003E+01  0.13371E+05
 0.42700005E+01  0.16360E+05
 0.43199997E+01  0.18135E+05
 0.43699999E+01  0.18740E+05
 0.44200001E+01  0.18364E+05
 0.44700003E+01  0.17181E+05
 0.45200005E+01  0.15636E+05
 0.45699997E+01  0.14372E+05
 0.46199999E+01  0.13612E+05
 0.46700001E+01  0.13218E+05
 0.47200003E+01  0.13051E+05
 0.47700005E+01  0.12865E+05
 0.48199997E+01  0.12228E+05
 0.48699999E+01  0.11088E+05
 0.49200001E+01  0.10080E+05
 0.49700003E+01  0.97320E+04
 0.50200005E+01  0.98570E+04
 0.50699997E+01  0.98120E+04
 0.51199999E+01  0.93550E+04
 0.51700001E+01  0.84200E+04
 0.52200003E+01  0.68830E+04
 0.52700005E+01  0.47760E+04
 0.53199997E+01  0.16030E+04
 0.53699999E+01 -0.32620E+04
 0.54200001E+01 -0.96470E+04
 0.54700003E+01 -0.16699E+05
 0.55200005E+01 -0.23675E+05
 0.55699997E+01 -0.30220E+05
 0.56199999E+01 -0.35917E+05
 0.56700001E+01 -0.40167E+05
 0.57200003E+01 -0.42785E+05
 0.57700005E+01 -0.44278E+05
 0.58199997E+01 -0.45000E+05
 0.58699999E+01 -0.44856E+05
 0.59200001E+01 -0.43638E+05
 0.59700003E+01 -0.41226E+05
 0.60200005E+01 -0.37838E+05
 0.60699997E+01 -0.33664E+05
 0.61199999E+01 -0.28256E+05
 0.61700001E+01 -0.21408E+05
 0.62200003E+01 -0.13628E+05
 0.62700005E+01 -0.52450E+04
 0.63199997E+01  0.38430E+04
 0.63699999E+01  0.13393E+05
 0.64200001E+01  0.22470E+05
 0.64700003E+01  0.30282E+05
 0.65200005E+01  0.36770E+05
 0.65699997E+01  0.42464E+05
 0.66199999E+01  0.47316E+05
 0.66700001E+01  0.50915E+05
 0.67200003E+01  0.53356E+05
 0.67700005E+01  0.54835E+05
 0.68199997E+01  0.55228E+05
 0.68699999E+01  0.53711E+05
 0.69200001E+01  0.50277E+05
 0.69700003E+01  0.45886E+05
 0.70200005E+01  0.41089E+05
 0.70699997E+01  0.36106E+05
 0.71199999E+01  0.30872E+05
 0.71700001E+01  0.25309E+05
 0.72200003E+01  0.19279E+05
 0.72700005E+01  0.12862E+05
 0.73199997E+01  0.64000E+04
 0.73699999E+01 -0.85000E+02
 0.74200001E+01 -0.65430E+04
 0.74700003E+01 -0.12904E+05
 0.75200005E+01 -0.19307E+05
 0.75699997E+01 -0.25616E+05
 0.76199999E+01 -0.31272E+05
 0.76700001E+01 -0.35663E+05
 0.77200003E+01 -0.38785E+05
 0.77700005E+01 -0.41238E+05
 0.78199997E+01 -0.43537E+05
 0.78699999E+01 -0.46014E+05
 0.79200001E+01 -0.48604E+05
 0.79700003E+01 -0.50636E+05
 0.80200005E+01 -0.51340E+05
 0.80699997E+01 -0.50407E+05
 0.81199999E+01 -0.47957E+05
 0.81700001E+01 -0.44194E+05
 0.82200003E+01 -0.39289E+05
 0.82700005E+01 -0.33501E+05
 0.83199997E+01 -0.26661E+05
 0.83699999E+01 -0.18382E+05
 0.84200001E+01 -0.91190E+04
 0.84700003E+01  0.23000E+03
 0.85200005E+01  0.89760E+04
 0.85699997E+01  0.16794E+05
 0.86199999E+01  0.23636E+05
 0.86700001E+01  0.29681E+05
 0.87200003E+01  0.35327E+05
 0.87700005E+01  0.40869E+05
 0.88199997E+01  0.46325E+05
 0.88699999E+01  0.51185E+05
 0.89200001E+01  0.54517E+05
 0.89700003E+01  0.55612E+05
 0.90200005E+01  0.54728E+05
 0.90699997E+01  0.52869E+05
 0.91199999E+01  0.50708E+05
 0.91700001E+01  0.48318E+05
 0.92200003E+01  0.45718E+05
 0.92700005E+01  0.43386E+05
 0.93199997E+01  0.41615E+05
 0.93699999E+01  0.40071E+05
 0.94200001E+01  0.38704E+05
 0.94700003E+01  0.37701E+05
 0.95200005E+01  0.37211E+05
 0.95699997E+01  0.37358E+05
 0.96199999E+01  0.38179E+05
 0.96700001E+01  0.39931E+05
 0.97200003E+01  0.42636E+05
 0.97700005E+01  0.45892E+05
 0.98199997E+01  0.48925E+05
 0.98699999E+01  0.51020E+05
 0.99200001E+01  0.52079E+05
 0.99700003E+01  0.51987E+05
 0.10020000E+02  0.50406E+05
 0.10070000E+02  0.47416E+05
 0.10120000E+02  0.43792E+05
 0.10170000E+02  0.40136E+05
 0.10220000E+02  0.36868E+05
 0.10270000E+02  0.34286E+05
 0.10320000E+02  0.31804E+05
 0.10370000E+02  0.28474E+05
 0.10420000E+02  0.24143E+05
 0.10470000E+02  0.19498E+05
 0.10520000E+02  0.14843E+05
 0.10570000E+02  0.10036E+05
 0.10620000E+02  0.51410E+04
 0.10670000E+02  0.33500E+03
 0.10720000E+02 -0.45900E+04
 0.10770000E+02 -0.96120E+04
 0.10820000E+02 -0.13924E+05
 0.10870000E+02 -0.17300E+05
 0.10920000E+02 -0.20145E+05
 0.10970000E+02 -0.22420E+05
 0.11020000E+02 -0.23990E+05
 0.11070000E+02 -0.25352E+05
 0.11120000E+02 -0.27025E+05
 0.11170000E+02 -0.28673E+05
 0.11220000E+02 -0.29281E+05
 0.11270000E+02 -0.28390E+05
 0.11320000E+02 -0.26725E+05
 0.11370000E+02 -0.24995E+05
 0.11420000E+02 -0.23536E+05
 0.11470000E+02 -0.22877E+05
 0.11520000E+02 -0.23520E+05
 0.11570000E+02 -0.25446E+05
 0.11620000E+02 -0.28050E+05
 0.11670000E+02 -0.30854E+05
 0.11720000E+02 -0.33872E+05
 0.11770000E+02 -0.36950E+05
 0.11820000E+02 -0.39582E+05
 0.11870000E+02 -0.41688E+05
 0.11920000E+02 -0.43761E+05
 0.11970000E+02 -0.46008E+05
 0.12020000E+02 -0.48293E+05
 0.12070000E+02 -0.50663E+05
 0.12120000E+02 -0.53026E+05
 0.12170001E+02 -0.54903E+05
 0.12220000E+02 -0.55838E+05
 0.12270000E+02 -0.55802E+05
 0.12320001E+02 -0.54804E+05
 0.12370000E+02 -0.52588E+05
 0.12420001E+02 -0.49326E+05
 0.12470000E+02 -0.45346E+05
 0.12520000E+02 -0.40908E+05
 0.12570001E+02 -0.36725E+05
 0.12620000E+02 -0.33430E+05
 0.12670001E+02 -0.30957E+05
 0.12720000E+02 -0.28890E+05
 0.12770000E+02 -0.27104E+05
 0.12820001E+02 -0.25561E+05
 0.12870000E+02 -0.24144E+05
 0.12920001E+02 -0.22725E+05
 0.12970000E+02 -0.21243E+05
 0.13020000E+02 -0.19842E+05
 0.13070001E+02 -0.18359E+05
 0.13120000E+02 -0.16562E+05
 0.13170001E+02 -0.14729E+05
 0.13220000E+02 -0.13375E+05
 0.13270000E+02 -0.12757E+05
 0.13320001E+02 -0.12707E+05
 0.13370000E+02 -0.12927E+05
 0.13420001E+02 -0.13362E+05
 0.13470000E+02 -0.13843E+05
 0.13520000E+02 -0.13994E+05
 0.13570001E+02 -0.13903E+05
 0.13620000E+02 -0.14121E+05
 0.13670001E+02 -0.14819E+05
 0.13720000E+02 -0.15572E+05
 0.13770000E+02 -0.16190E+05
 0.13820001E+02 -0.16784E+05
 0.13870000E+02 -0.17391E+05
 0.13920001E+02 -0.17792E+05
 0.13970000E+02 -0.17533E+05
 0.14020000E+02 -0.16276E+05
 0.14070001E+02 -0.14300E+05
 0.14120000E+02 -0.12481E+05
 0.14170001E+02 -0.11164E+05
 0.14220000E+02 -0.10159E+05
 0.14270000E+02 -0.97000E+04
 0.14320001E+02 -0.10338E+05
 0.14370000E+02 -0.12114E+05
 0.14420001E+02 -0.14262E+05
 0.14470000E+02 -0.15957E+05
 0.14520000E+02 -0.16969E+05
 0.14570001E+02 -0.17184E+05
 0.14620000E+02 -0.16631E+05
 0.14670001E+02 -0.15639E+05
 0.14720000E+02 -0.14349E+05
 0.14770000E+02 -0.12995E+05
 0.14820001E+02 -0.11852E+05
 0.14870000E+02 -0.11102E+05
 0.14920001E+02 -0.10726E+05
 0.14970000E+02 -0.10413E+05
 0.15020000E+02 -0.97090E+04
 0.15070001E+02 -0.80730E+04
 0.15120000E+02 -0.55460E+04
 0.15170001E+02 -0.25850E+04
 0.15220000E+02  0.49900E+03
 0.15270000E+02  0.36400E+04
 0.15320001E+02  0.69180E+04
 0.15370000E+02  0.10317E+05
 0.15420001E+02  0.13472E+05
 0.15470000E+02  0.15922E+05
 0.15520000E+02  0.17799E+05
 0.15570001E+02  0.19697E+05
 0.15620000E+02  0.22104E+05
 0.15670001E+02  0.24858E+05
 0.15720000E+02  0.27563E+05
 0.15770000E+02  0.30037E+05
 0.15820001E+02  0.32037E+05
 0.15870000E+02  0.33496E+05
 0.15920001E+02  0.34291E+05
 0.15970000E+02  0.34263E+05
 0.16020000E+02  0.33621E+05
 0.16070000E+02  0.32973E+05
 0.16119999E+02  0.32673E+05
 0.16170002E+02  0.32389E+05
 0.16220001E+02  0.31920E+05
 0.16270000E+02  0.31373E+05
 0.16320000E+02  0.30861E+05
 0.16369999E+02  0.30392E+05
 0.16420002E+02  0.30024E+05
 0.16470001E+02  0.29805E+05
 0.16520000E+02  0.29463E+05
 0.16570000E+02  0.29269E+05
 0.16619999E+02  0.30605E+05
 0.16670002E+02  0.35488E+05
 0.16720001E+02  0.45122E+05
 0.16770000E+02  0.58681E+05
 0.16820000E+02  0.74361E+05
 0.16869999E+02  0.86711E+05
 0.16920002E+02  0.87846E+05
 0.16970001E+02  0.76200E+05
 0.17020000E+02  0.57333E+05
 0.17070000E+02  0.41259E+05
 0.17119999E+02  0.40814E+05
 0.17170002E+02  0.58699E+05
 0.17220001E+02  0.79962E+05
 0.17270000E+02  0.91921E+05
 0.17320000E+02  0.94860E+05
 0.17369999E+02  0.94022E+05
 0.17420002E+02  0.91369E+05
 0.17470001E+02  0.89893E+05
 0.17520000E+02  0.97581E+05
 0.17570000E+02  0.11171E+06
 0.17619999E+02  0.13889E+06
 0.17670002E+02  0.19030E+06
 0.17720001E+02  0.25185E+06
 0.17770000E+02  0.28476E+06
 0.17820000E+02  0.28162E+06
 0.17869999E+02  0.28924E+06
 0.17920002E+02  0.29938E+06
 0.17970001E+02  0.27441E+06
 0.18020000E+02  0.19717E+06
 0.18070000E+02  0.87831E+05
 0.18119999E+02 -0.19964E+05
 0.18170002E+02 -0.11676E+06
 0.18220001E+02 -0.15805E+06
 0.18270000E+02 -0.20021E+06
 0.18320000E+02 -0.35119E+06
 0.18369999E+02 -0.59982E+06
 0.18420002E+02 -0.83890E+06
 0.18470001E+02 -0.95554E+06
 0.18520000E+02 -0.89454E+06
 0.18570000E+02 -0.69469E+06
 0.18619999E+02 -0.56546E+06
 0.18670002E+02 -0.60893E+06
 0.18720001E+02 -0.68754E+06
 0.18770000E+02 -0.59204E+06
 0.18820000E+02 -0.28105E+06
 0.18869999E+02  0.45899E+05
 0.18920002E+02  0.26463E+06
 0.18970001E+02  0.31142E+06
 0.19020000E+02  0.23115E+06
 0.19070000E+02  0.28217E+06
 0.19119999E+02  0.57206E+06
 0.19170002E+02  0.74780E+06
 0.19220001E+02  0.62008E+06
 0.19270000E+02  0.38901E+06
 0.19320000E+02  0.19767E+06
 0.19369999E+02  0.14181E+06
 0.19420002E+02  0.95636E+05
 0.19470001E+02  0.95244E+05
 0.19520000E+02  0.14217E+06
 0.19570000E+02 -0.51243E+05
 0.19619999E+02 -0.26991E+06
 0.19670002E+02 -0.22402E+06
 0.19720001E+02 -0.13691E+06
 0.19770000E+02 -0.13484E+06
 0.19820000E+02 -0.22858E+06
 0.19869999E+02 -0.43644E+06
 0.19920002E+02 -0.57200E+06
 0.19970001E+02 -0.75399E+06
 0.20020000E+02 -0.89459E+06
 0.20070000E+02 -0.81015E+06
 0.20119999E+02 -0.90667E+06
 0.20170002E+02 -0.10768E+07
 0.20220001E+02 -0.92427E+06
 0.20270000E+02 -0.55905E+06
 0.20320000E+02 -0.28422E+06
 0.20369999E+02 -0.23381E+06
 0.20420002E+02 -0.68023E+05
 0.20470001E+02  0.22160E+06
 0.20520000E+02  0.19474E+06
 0.20570000E+02  0.10741E+06
 0.20619999E+02  0.20221E+06
 0.20670002E+02  0.16695E+06
 0.20720001E+02  0.13691E+05
 0.20770000E+02  0.29669E+05
 0.20820000E+02  0.13873E+06
 0.20869999E+02 -0.10502E+06
 0.20920002E+02 -0.49954E+06
 0.20970001E+02 -0.47814E+06
 0.21020000E+02 -0.23517E+06
 0.21070000E+02 -0.32918E+06
 0.21119999E+02 -0.67306E+06
 0.21170002E+02 -0.80765E+06
 0.21220001E+02 -0.73242E+06
 0.21270000E+02 -0.47464E+06
 0.21320000E+02 -0.12196E+06
 0.21369999E+02  0.18790E+06
 0.21420002E+02  0.28723E+06
 0.21470001E+02 -0.30773E+05
 0.21520000E+02 -0.28940E+06
 0.21570000E+02 -0.25950E+06
 0.21619999E+02 -0.21914E+06
 0.21670002E+02 -0.21658E+06
 0.21720001E+02 -0.54443E+06
 0.21770000E+02 -0.95274E+06
 0.21820000E+02 -0.10217E+07
 0.21869999E+02 -0.85761E+06
 0.21920002E+02 -0.48440E+06
 0.21970001E+02 -0.94869E+05
 0.22020000E+02  0.20405E+06
 0.22070000E+02  0.20066E+06
 0.22119999E+02 -0.43403E+05
 0.22170002E+02 -0.35553E+06
 0.22220001E+02 -0.77249E+06
 0.22270000E+02 -0.11152E+07
 0.22320000E+02 -0.12892E+07
 0.22369999E+02 -0.10840E+07
 0.22420002E+02 -0.72724E+06
 0.22470001E+02 -0.52709E+06
 0.22520000E+02 -0.41933E+06
 0.22570000E+02 -0.42728E+06
 0.22619999E+02 -0.43014E+06
 0.22670002E+02 -0.52133E+06
 0.22720001E+02 -0.64309E+06
 0.22770000E+02 -0.56049E+06
 0.22820000E+02 -0.19366E+06
 0.22869999E+02  0.25488E+06
 0.22920002E+02  0.28260E+06
 0.22970001E+02  0.94523E+05
 0.23020000E+02  0.95162E+05
 0.23070000E+02  0.10232E+06
 0.23119999E+02 -0.25857E+06
 0.23170002E+02 -0.55461E+06
 0.23220001E+02 -0.36516E+06
 0.23270000E+02 -0.15944E+06
 0.23320000E+02 -0.25162E+06
 0.23369999E+02 -0.56042E+06
 0.23420002E+02 -0.51462E+06
 0.23470001E+02  0.76490E+04
 0.23520000E+02  0.13543E+06
 0.23570000E+02 -0.15087E+06
 0.23619999E+02  0.16249E+05
 0.23670002E+02  0.47281E+06
 0.23720001E+02  0.54990E+06
 0.23770000E+02  0.19937E+06
 0.23820000E+02 -0.19827E+06
 0.23869999E+02 -0.56057E+06
 0.23920002E+02 -0.84375E+06
 0.23970001E+02 -0.10253E+07
 0.24020000E+02 -0.94713E+06
 0.24070000E+02 -0.49070E+06
 0.24119999E+02 -0.48547E+06
 0.24170002E+02 -0.55016E+06
 0.24220001E+02 -0.15452E+06
 0.24270000E+02 -0.52417E+05
 0.24320000E+02 -0.28554E+06
 0.24369999E+02 -0.39490E+06
 0.24420002E+02 -0.17509E+06
 0.24470001E+02  0.60299E+05
 0.24520000E+02  0.74266E+05
 0.24570000E+02  0.15318E+06
 0.24619999E+02  0.37334E+06
 0.24670002E+02  0.55477E+06
 0.24720001E+02  0.70480E+06
 0.24770000E+02  0.76104E+06
 0.24820000E+02  0.55337E+06
 0.24869999E+02  0.13642E+06
 0.24920002E+02 -0.43589E+05
 0.24970001E+02  0.21342E+06
 0.25020000E+02  0.66707E+06
 0.25070000E+02  0.10469E+07
 0.25119999E+02  0.97902E+06
 0.25170002E+02  0.66992E+06
 0.25220001E+02  0.30604E+06
 0.25270000E+02  0.46443E+05
 0.25320000E+02  0.37712E+05
 0.25369999E+02 -0.18903E+06
 0.25420002E+02 -0.49528E+06
 0.25470001E+02 -0.56880E+06
 0.25520000E+02 -0.40056E+06
 0.25570000E+02 -0.17161E+06
 0.25619999E+02  0.54377E+05
 0.25670002E+02  0.42253E+06
 0.25720001E+02  0.71266E+06
 0.25770000E+02  0.93832E+06
 0.25820000E+02  0.11150E+07
 0.25869999E+02  0.12742E+07
 0.25920002E+02  0.13968E+07
 0.25970001E+02  0.12399E+07
 0.26020000E+02  0.10893E+07
 0.26070000E+02  0.12034E+07
 0.26119999E+02  0.11645E+07
 0.26170002E+02  0.87479E+06
 0.26220001E+02  0.61460E+06
 0.26270000E+02  0.43309E+06
 0.26320000E+02  0.47759E+06
 0.26369999E+02  0.57569E+06
 0.26420002E+02  0.81026E+06
 0.26470001E+02  0.12694E+07
 0.26520000E+02  0.16043E+07
 0.26570000E+02  0.18770E+07
 0.26619999E+02  0.20054E+07
 0.26670002E+02  0.18698E+07
 0.26720001E+02  0.16509E+07
 0.26770000E+02  0.14829E+07
 0.26820000E+02  0.13855E+07
 0.26869999E+02  0.12197E+07
 0.26920002E+02  0.10494E+07
 0.26970001E+02  0.10442E+07
 0.27020000E+02  0.81174E+06
 0.27070000E+02  0.39517E+06
 0.27119999E+02  0.23322E+06
 0.27170002E+02  0.23964E+06
 0.27220001E+02  0.15789E+06
 0.27270000E+02 -0.30138E+05
 0.27320000E+02 -0.84856E+05
 0.27369999E+02 -0.93000E+03
 0.27420002E+02  0.69407E+05
 0.27470001E+02 -0.37155E+05
 0.27520000E+02 -0.60847E+05
 0.27570000E+02  0.24954E+06
 0.27619999E+02  0.73270E+06
 0.27670002E+02  0.11455E+07
 0.27720001E+02  0.12724E+07
 0.27770000E+02  0.10795E+07
 0.27820000E+02  0.81606E+06
 0.27869999E+02  0.83375E+06
 0.27920002E+02  0.86271E+06
 0.27970001E+02  0.76234E+06
 0.28020000E+02  0.64168E+06
 0.28070000E+02  0.40690E+06
 0.28119999E+02  0.24216E+06
 0.28169998E+02  0.36589E+06
 0.28220001E+02  0.66982E+06
 0.28270000E+02  0.72670E+06
 0.28320000E+02  0.33147E+06
 0.28369999E+02 -0.24261E+06
 0.28419998E+02 -0.59202E+06
 0.28470001E+02 -0.59113E+06
 0.28520000E+02 -0.46488E+06
 0.28570000E+02 -0.25936E+06
 0.28619999E+02 -0.19226E+06
 0.28669998E+02 -0.20034E+06
 0.28720001E+02  0.18689E+06
 0.28770000E+02  0.70091E+06
 0.28820000E+02  0.10723E+07
 0.28869999E+02  0.12968E+07
 0.28919998E+02  0.14792E+07
 0.28970001E+02  0.14181E+07
 0.29020000E+02  0.86552E+06
 0.29070000E+02  0.25588E+06
 0.29119999E+02 -0.60716E+06
 0.29169998E+02 -0.18834E+07
 0.29220001E+02 -0.28680E+07
 0.29270000E+02 -0.32626E+07
 0.29320000E+02 -0.31705E+07
 0.29369999E+02 -0.30259E+07
 0.29419998E+02 -0.27851E+07
 0.29470001E+02 -0.19144E+07
 0.29520000E+02 -0.89535E+06
 0.29570000E+02  0.59496E+05
 0.29619999E+02  0.84825E+06
 0.29669998E+02  0.13346E+07
 0.29720001E+02  0.21259E+07
 0.29770000E+02  0.26454E+07
 0.29820000E+02  0.22994E+07
 0.29869999E+02  0.15563E+07
 0.29919998E+02  0.56944E+06
 0.29970001E+02 -0.25542E+06
 0.30020000E+02 -0.68965E+06
 0.30070000E+02 -0.10457E+07
 0.30119999E+02 -0.14817E+07
 0.30169998E+02 -0.18514E+07
 0.30220001E+02 -0.17406E+07
 0.30270000E+02 -0.12809E+07
 0.30320000E+02 -0.23425E+06
 0.30369999E+02  0.11460E+07
 0.30419998E+02  0.16980E+07
 0.30470001E+02  0.15533E+07
 0.30520000E+02  0.59738E+06
 0.30570000E+02 -0.33910E+06
 0.30619999E+02 -0.34680E+06
 0.30669998E+02 -0.43966E+06
 0.30720001E+02 -0.53177E+06
 0.30770000E+02 -0.60063E+06
 0.30820000E+02 -0.78236E+06
 0.30869999E+02 -0.93891E+06
 0.30919998E+02 -0.13649E+07
 0.30970001E+02 -0.18418E+07
 0.31020000E+02 -0.19514E+07
 0.31070000E+02 -0.15148E+07
 0.31119999E+02 -0.83587E+06
 0.31169998E+02 -0.50324E+06
 0.31220001E+02 -0.72174E+06
 0.31270000E+02 -0.57096E+06
 0.31320000E+02 -0.13033E+05
 0.31369999E+02  0.16430E+05
 0.31419998E+02 -0.72471E+06
 0.31470001E+02 -0.14879E+07
 0.31520000E+02 -0.13073E+07
 0.31570000E+02 -0.78614E+06
 0.31619999E+02 -0.34483E+06
 0.31669998E+02 -0.85618E+05
 0.31720001E+02 -0.74081E+05
 0.31770000E+02 -0.32664E+06
 0.31820000E+02 -0.73907E+06
 0.31869999E+02 -0.39954E+06
 0.31919998E+02  0.26359E+06
 0.31970001E+02  0.24086E+06
 0.32020000E+02 -0.22930E+06
 0.32070000E+02 -0.13639E+06
 0.32119999E+02  0.82444E+06
 0.32169998E+02  0.13411E+07
 0.32220001E+02  0.53648E+06
 0.32270000E+02 -0.25409E+06
 0.32320000E+02 -0.13409E+05
 0.32369999E+02  0.79736E+06
 0.32419998E+02  0.12905E+07
 0.32470001E+02  0.11218E+07
 0.32520000E+02  0.13470E+07
 0.32570000E+02  0.14940E+07
 0.32619999E+02  0.60798E+06
 0.32669998E+02  0.21094E+06
 0.32720001E+02  0.11260E+07
 0.32770000E+02  0.21000E+07
 0.32820000E+02  0.23131E+07
 0.32869999E+02  0.22420E+07
 0.32919998E+02  0.24483E+07
 0.32970001E+02  0.18968E+07
 0.33020000E+02  0.14294E+06
 0.33070000E+02 -0.85578E+06
 0.33119999E+02 -0.97153E+06
 0.33169998E+02 -0.14408E+07
 0.33220001E+02 -0.20338E+07
 0.33270000E+02 -0.21800E+07
 0.33320000E+02 -0.19196E+07
 0.33369999E+02 -0.12280E+07
 0.33419998E+02  0.37180E+04
 0.33470001E+02  0.63876E+06
 0.33520000E+02  0.37947E+06
 0.33570000E+02 -0.41792E+05
 0.33619999E+02 -0.34975E+06
 0.33669998E+02 -0.78800E+06
 0.33720001E+02 -0.16438E+07
 0.33770000E+02 -0.20054E+07
 0.33820000E+02 -0.12982E+07
 0.33869999E+02 -0.67087E+06
 0.33919998E+02 -0.82879E+06
 0.33970001E+02 -0.61924E+06
 0.34020000E+02 -0.43398E+06
 0.34070000E+02 -0.73911E+06
 0.34119999E+02 -0.74316E+06
 0.34169998E+02 -0.93028E+06
 0.34220001E+02 -0.13852E+07
 0.34270000E+02 -0.20124E+07
 0.34320000E+02 -0.22541E+07
 0.34369999E+02 -0.13377E+07
 0.34419998E+02  0.13342E+06
 0.34470001E+02  0.10127E+07
 0.34520000E+02  0.12737E+07
 0.34570000E+02  0.16469E+07
 0.34619999E+02  0.22601E+07
 0.34669998E+02  0.29534E+07
 0.34720001E+02  0.30321E+07
 0.34770000E+02  0.23702E+07
 0.34820000E+02  0.13814E+07
 0.34869999E+02  0.45704E+06
 0.34919998E+02  0.15520E+06
 0.34970001E+02  0.41126E+06
 0.35020000E+02  0.73018E+06
 0.35070000E+02  0.71525E+06
 0.35119999E+02  0.57184E+06
 0.35169998E+02  0.47711E+06
 0.35220001E+02  0.51848E+06
 0.35270000E+02  0.12674E+07
 0.35320000E+02  0.24615E+07
 0.35369999E+02  0.28248E+07
 0.35419998E+02  0.23813E+07
 0.35470001E+02  0.22154E+07
 0.35520000E+02  0.25224E+07
 0.35570000E+02  0.27827E+07
 0.35619999E+02  0.27065E+07
 0.35669998E+02  0.25834E+07
 0.35720001E+02  0.23303E+07
 0.35770000E+02  0.13952E+07
 0.35820000E+02  0.63552E+05
 0.35869999E+02 -0.48522E+06
 0.35919998E+02 -0.23104E+06
 0.35970001E+02 -0.25671E+06
 0.36020000E+02 -0.49114E+06
 0.36070000E+02 -0.37178E+06
 0.36119999E+02  0.15054E+06
 0.36169998E+02  0.85132E+06
 0.36220001E+02  0.11911E+07
 0.36270000E+02  0.89051E+06
 0.36320000E+02  0.40554E+06
 0.36369999E+02  0.37489E+06
 0.36419998E+02  0.87827E+06
 0.36470001E+02  0.13296E+07
 0.36520000E+02  0.12623E+07
 0.36570000E+02  0.77604E+06
 0.36619999E+02 -0.26375E+05
 0.36669998E+02 -0.81203E+06
 0.36720001E+02 -0.12090E+07
 0.36770000E+02 -0.13014E+07
 0.36820000E+02 -0.88773E+06
 0.36869999E+02 -0.14619E+06
 0.36919998E+02  0.15000E+06
 0.36970001E+02 -0.64972E+05
 0.37020000E+02 -0.49592E+06
 0.37070000E+02 -0.97910E+06
 0.37119999E+02 -0.14345E+07
 0.37169998E+02 -0.19011E+07
 0.37220001E+02 -0.21609E+07
 0.37270000E+02 -0.20939E+07
 0.37320000E+02 -0.19519E+07
 0.37369999E+02 -0.17041E+07
 0.37419998E+02 -0.10256E+07
 0.37470001E+02 -0.69250E+05
 0.37520000E+02  0.50877E+06
 0.37570000E+02  0.71682E+06
 0.37619999E+02  0.10276E+07
 0.37669998E+02  0.14201E+07
 0.37720001E+02  0.17889E+07
 0.37770000E+02  0.19716E+07
 0.37820000E+02  0.18214E+07
 0.37869999E+02  0.14586E+07
 0.37919998E+02  0.13379E+07
 0.37970001E+02  0.18115E+07
 0.38020000E+02  0.22792E+07
 0.38070000E+02  0.22457E+07
 0.38119999E+02  0.21362E+07
 0.38169998E+02  0.20701E+07
 0.38220001E+02  0.16911E+07
 0.38270000E+02  0.10786E+07
 0.38320000E+02  0.46340E+06
 0.38369999E+02 -0.12448E+06
 0.38419998E+02 -0.57180E+06
 0.38470001E+02 -0.90668E+06
 0.38520000E+02 -0.12255E+07
 0.38570000E+02 -0.13518E+07
 0.38619999E+02 -0.14122E+07
 0.38669998E+02 -0.14634E+07
 0.38720001E+02 -0.13104E+07
 0.38770000E+02 -0.11178E+07
 0.38820000E+02 -0.10287E+07
 0.38869999E+02 -0.10599E+07
 0.38919998E+02 -0.11061E+07
 0.38970001E+02 -0.11555E+07
 0.39020000E+02 -0.10620E+07
 0.39070000E+02 -0.68713E+06
 0.39119999E+02 -0.36205E+06
 0.39169998E+02 -0.50811E+06
 0.39220001E+02 -0.12617E+07
 0.39270000E+02 -0.19771E+07
 0.39320000E+02 -0.21503E+07
 0.39369999E+02 -0.18812E+07
 0.39419998E+02 -0.14021E+07
 0.39470001E+02 -0.11148E+07
 0.39520000E+02 -0.10563E+07
 0.39570000E+02 -0.96095E+06
 0.39619999E+02 -0.84056E+06
 0.39669998E+02 -0.86699E+06
 0.39720001E+02 -0.10033E+07
 0.39770000E+02 -0.10063E+07
 0.39820000E+02 -0.85504E+06
 0.39869999E+02 -0.87352E+06
 0.39919998E+02 -0.88959E+06
 0.39970001E+02 -0.57160E+06
 0.40020000E+02 -0.19078E+06
 0.40070000E+02  0.15258E+05
 0.40119999E+02  0.11932E+06
 0.40169998E+02  0.33774E+06
 0.40220001E+02  0.44803E+06
 0.40270000E+02  0.67979E+05
 0.40320000E+02 -0.46941E+06
 0.40369999E+02 -0.87318E+06
 0.40419998E+02 -0.10214E+07
 0.40470001E+02 -0.81032E+06
 0.40520000E+02 -0.71818E+06
 0.40570000E+02 -0.99266E+06
 0.40619999E+02 -0.14647E+07
 0.40669998E+02 -0.17873E+07
 0.40720001E+02 -0.15929E+07
 0.40770000E+02 -0.11715E+07
 0.40820000E+02 -0.78067E+06
 0.40869999E+02 -0.48576E+06
 0.40919998E+02 -0.40625E+06
 0.40970001E+02 -0.55500E+06
 0.41020000E+02 -0.92561E+06
 0.41070000E+02 -0.13409E+07
 0.41119999E+02 -0.16030E+07
 0.41169998E+02 -0.17785E+07
 0.41220001E+02 -0.20741E+07
 0.41270000E+02 -0.23188E+07
 0.41320000E+02 -0.22879E+07
 0.41369999E+02 -0.20182E+07
 0.41419998E+02 -0.16720E+07
 0.41470001E+02 -0.14598E+07
 0.41520000E+02 -0.14985E+07
 0.41570000E+02 -0.17454E+07
 0.41619999E+02 -0.18076E+07
 0.41669998E+02 -0.13656E+07
 0.41720001E+02 -0.55369E+06
 0.41770000E+02  0.13820E+06
 0.41820000E+02  0.32370E+06
 0.41869999E+02 -0.64902E+05
 0.41919998E+02 -0.75142E+06
 0.41970001E+02 -0.12182E+07
 0.42020000E+02 -0.13111E+07
 0.42070000E+02 -0.13749E+07
 0.42119999E+02 -0.17926E+07
 0.42169998E+02 -0.22862E+07
 0.42220001E+02 -0.22836E+07
 0.42270000E+02 -0.18695E+07
 0.42320000E+02 -0.16071E+07
 0.42369999E+02 -0.16229E+07
 0.42419998E+02 -0.14958E+07
 0.42470001E+02 -0.12173E+07
 0.42520000E+02 -0.10517E+07
 0.42570000E+02 -0.64317E+06
 0.42619999E+02  0.19142E+06
 0.42669998E+02  0.79168E+06
 0.42720001E+02  0.86742E+06
 0.42770000E+02  0.80064E+06
 0.42820000E+02  0.69424E+06
 0.42869999E+02  0.43784E+06
 0.42919998E+02  0.20882E+06
 0.42970001E+02  0.33365E+06
 0.43020000E+02  0.66850E+06
 0.43070000E+02  0.90164E+06
 0.43119999E+02  0.13213E+07
 0.43169998E+02  0.19784E+07
 0.43220001E+02  0.24754E+07
 0.43270000E+02  0.27477E+07
 0.43320000E+02  0.29258E+07
 0.43369999E+02  0.30339E+07
 0.43419998E+02  0.30381E+07
 0.43470001E+02  0.30061E+07
 0.43520000E+02  0.29725E+07
 0.43570000E+02  0.28525E+07
 0.43619999E+02  0.26035E+07
 0.43669998E+02  0.22752E+07
 0.43720001E+02  0.18368E+07
 0.43770000E+02  0.12099E+07
 0.43820000E+02  0.60816E+06
 0.43869999E+02  0.29640E+06
 0.43919998E+02  0.11037E+06
 0.43970001E+02 -0.20937E+06
 0.44020000E+02 -0.68280E+06
 0.44070000E+02 -0.10178E+07
 0.44119999E+02 -0.93222E+06
 0.44169998E+02 -0.54152E+06
 0.44220001E+02 -0.52408E+05
 0.44270000E+02  0.39923E+06
 0.44320000E+02  0.87771E+06
 0.44369999E+02  0.14212E+07
 0.44419998E+02  0.19131E+07
 0.44470001E+02  0.22222E+07
 0.44520000E+02  0.21846E+07
 0.44570000E+02  0.19593E+07
 0.44619999E+02  0.17922E+07
 0.44669998E+02  0.16638E+07
 0.44720001E+02  0.15227E+07
 0.44770000E+02  0.14250E+07
 0.44820000E+02  0.14299E+07
 0.44869999E+02  0.14090E+07
 0.44919998E+02  0.12020E+07
 0.44970001E+02  0.93349E+06
 0.45020000E+02  0.76715E+06
 0.45070000E+02  0.59597E+06
 0.45119999E+02  0.39804E+06
 0.45169998E+02  0.31839E+06
 0.45220001E+02  0.35072E+06
 0.45270000E+02  0.29631E+06
 0.45320000E+02 -0.27169E+05
 0.45369999E+02 -0.44420E+06
 0.45419998E+02 -0.69316E+06
 0.45470001E+02 -0.74213E+06
 0.45520000E+02 -0.72186E+06
 0.45570000E+02 -0.85820E+06
 0.45619999E+02 -0.10205E+07
 0.45669998E+02 -0.10280E+07
 0.45720001E+02 -0.88655E+06
 0.45770000E+02 -0.65834E+06
 0.45820000E+02 -0.54461E+06
 0.45869999E+02 -0.40942E+06
 0.45919998E+02 -0.26021E+06
 0.45970001E+02 -0.32880E+06
 0.46020000E+02 -0.49077E+06
 0.46070000E+02 -0.52898E+06
 0.46119999E+02 -0.34072E+06
 0.46169998E+02 -0.16849E+06
 0.46220001E+02 -0.21565E+06
 0.46270000E+02 -0.29070E+06
 0.46320000E+02 -0.15316E+06
 0.46369999E+02  0.21050E+06
 0.46419998E+02  0.66696E+06
 0.46470001E+02  0.11087E+07
 0.46520000E+02  0.13848E+07
 0.46570000E+02  0.14489E+07
 0.46619999E+02  0.14060E+07
 0.46669998E+02  0.14130E+07
 0.46720001E+02  0.13896E+07
 0.46770000E+02  0.11837E+07
 0.46820000E+02  0.93124E+06
 0.46869999E+02  0.71938E+06
 0.46919998E+02  0.71045E+06
 0.46970001E+02  0.88619E+06
 0.47020000E+02  0.95112E+06
 0.47070000E+02  0.91739E+06
 0.47119999E+02  0.86404E+06
 0.47169998E+02  0.81029E+06
 0.47220001E+02  0.74858E+06
 0.47270000E+02  0.60888E+06
 0.47320000E+02  0.31907E+06
 0.47369999E+02 -0.18025E+06
 0.47419998E+02 -0.68478E+06
 0.47470001E+02 -0.90200E+06
 0.47520000E+02 -0.83897E+06
 0.47570000E+02 -0.65942E+06
 0.47619999E+02 -0.47796E+06
 0.47669998E+02 -0.33616E+06
 0.47720001E+02 -0.24940E+06
 0.47770000E+02 -0.29475E+06
 0.47820000E+02 -0.40365E+06
 0.47869999E+02 -0.47132E+06
 0.47919998E+02 -0.57311E+06
 0.47970001E+02 -0.72616E+06
 0.48020000E+02 -0.95086E+06
 0.48070000E+02 -0.11606E+07
 0.48119999E+02 -0.12243E+07
 0.48169998E+02 -0.12163E+07
 0.48220001E+02 -0.11661E+07
 0.48270000E+02 -0.10805E+07
 0.48320000E+02 -0.10061E+07
 0.48369999E+02 -0.93937E+06
 0.48419998E+02 -0.92238E+06
 0.48470001E+02 -0.94137E+06
 0.48520000E+02 -0.77082E+06
 0.48570000E+02 -0.37929E+06
 0.48619999E+02  0.18214E+05
 0.48669998E+02  0.29521E+06
 0.48720001E+02  0.47169E+06
 0.48770000E+02  0.72243E+06
 0.48820000E+02  0.98427E+06
 0.48869999E+02  0.10042E+07
 0.48919998E+02  0.80779E+06
 0.48970001E+02  0.52773E+06
 0.49020000E+02  0.24022E+06
 0.49070000E+02  0.20939E+05
 0.49119999E+02 -0.40511E+05
 0.49169998E+02  0.58633E+05
 0.49220001E+02  0.15170E+06
 0.49270000E+02  0.13486E+06
 0.49320000E+02 -0.33874E+05
 0.49369999E+02 -0.31753E+06
 0.49419998E+02 -0.52386E+06
 0.49470001E+02 -0.44141E+06
 0.49520000E+02 -0.32889E+05
 0.49570000E+02  0.37174E+06
 0.49619999E+02  0.52596E+06
 0.49669998E+02  0.46892E+06
 0.49720001E+02  0.30284E+06
 0.49770000E+02  0.18726E+06
 0.49820000E+02  0.11126E+06
 0.49869999E+02 -0.80824E+05
 0.49919998E+02 -0.34801E+06
 0.49970001E+02 -0.59168E+06
 0.50020000E+02 -0.95468E+06
 0.50070000E+02 -0.13233E+07
 0.50119999E+02 -0.14381E+07
 0.50169998E+02 -0.13208E+07
 0.50220001E+02 -0.10548E+07
 0.50270000E+02 -0.83332E+06
 0.50320000E+02 -0.72123E+06
 0.50369999E+02 -0.70971E+06
 0.50419998E+02 -0.74674E+06
 0.50470001E+02 -0.78569E+06
 0.50520000E+02 -0.89124E+06
 0.50570000E+02 -0.10323E+07
 0.50619999E+02 -0.11480E+07
 0.50669998E+02 -0.11407E+07
 0.50720001E+02 -0.10463E+07
 0.50770000E+02 -0.93853E+06
 0.50820000E+02 -0.81241E+06
 0.50869999E+02 -0.69343E+06
 0.50919998E+02 -0.69056E+06
 0.50970001E+02 -0.82301E+06
 0.51020000E+02 -0.99232E+06
 0.51070000E+02 -0.11009E+07
 0.51119999E+02 -0.10501E+07
 0.51169998E+02 -0.10047E+07
 0.51220001E+02 -0.10379E+07
 0.51270000E+02 -0.10322E+07
 0.51320000E+02 -0.96137E+06
 0.51369999E+02 -0.76687E+06
 0.51419998E+02 -0.47585E+06
 0.51470001E+02 -0.13902E+06
 0.51520000E+02  0.20473E+06
 0.51570000E+02  0.51080E+06
 0.51619999E+02  0.79577E+06
 0.51669998E+02  0.10898E+07
 0.51720001E+02  0.14194E+07
 0.51770000E+02  0.17117E+07
 0.51820000E+02  0.19336E+07
 0.51869999E+02  0.21310E+07
 0.51919998E+02  0.23222E+07
 0.51970001E+02  0.23995E+07
 0.52020000E+02  0.22841E+07
 0.52070000E+02  0.21155E+07
 0.52119999E+02  0.19427E+07
 0.52169998E+02  0.17230E+07
 0.52220001E+02  0.14252E+07
 0.52270000E+02  0.10992E+07
 0.52320000E+02  0.83464E+06
 0.52369999E+02  0.63787E+06
 0.52419998E+02  0.57116E+06
 0.52470001E+02  0.63540E+06
 0.52520000E+02  0.69460E+06
 0.52570000E+02  0.67275E+06
 0.52619999E+02  0.61536E+06
 0.52669998E+02  0.58809E+06
 0.52720001E+02  0.68251E+06
 0.52770000E+02  0.86115E+06
 0.52820000E+02  0.94317E+06
 0.52869999E+02  0.94482E+06
 0.52919998E+02  0.96952E+06
 0.52970001E+02  0.10911E+07
 0.53020000E+02  0.12612E+07
 0.53070000E+02  0.13479E+07
 0.53119999E+02  0.13556E+07
 0.53169998E+02  0.11900E+07
 0.53220001E+02  0.80701E+06
 0.53270000E+02  0.34873E+06
 0.53320000E+02 -0.15249E+06
 0.53369999E+02 -0.68174E+06
 0.53419998E+02 -0.11545E+07
 0.53470001E+02 -0.15393E+07
 0.53520000E+02 -0.18381E+07
 0.53570000E+02 -0.20547E+07
 0.53619999E+02 -0.21640E+07
 0.53669998E+02 -0.21701E+07
 0.53720001E+02 -0.21661E+07
 0.53770000E+02 -0.21385E+07
 0.53820000E+02 -0.20470E+07
 0.53869999E+02 -0.19662E+07
 0.53919998E+02 -0.18648E+07
 0.53970001E+02 -0.16634E+07
 0.54020000E+02 -0.13892E+07
 0.54070000E+02 -0.10991E+07
 0.54119999E+02 -0.79198E+06
 0.54169998E+02 -0.47248E+06
 0.54220001E+02 -0.19040E+06
 0.54270000E+02  0.10266E+06
 0.54320000E+02  0.38771E+06
 0.54369999E+02  0.60878E+06
 0.54419998E+02  0.76162E+06
 0.54470001E+02  0.81780E+06
 0.54520000E+02  0.75279E+06
 0.54570000E+02  0.55081E+06
 0.54619999E+02  0.33849E+06
 0.54669998E+02  0.12938E+06
 0.54720001E+02 -0.11558E+06
 0.54770000E+02 -0.37630E+06
 0.54820000E+02 -0.69392E+06
 0.54869999E+02 -0.97072E+06
 0.54919998E+02 -0.11140E+07
 0.54970001E+02 -0.10927E+07
 0.55020000E+02 -0.93856E+06
 0.55070000E+02 -0.70386E+06
 0.55119999E+02 -0.34264E+06
 0.55169998E+02  0.12446E+06
 0.55220001E+02  0.58871E+06
 0.55270000E+02  0.91409E+06
 0.55320000E+02  0.10172E+07
 0.55369999E+02  0.97414E+06
 0.55419998E+02  0.91135E+06
 0.55470001E+02  0.82321E+06
 0.55520000E+02  0.61857E+06
 0.55570000E+02  0.35279E+06
 0.55619999E+02  0.16885E+06
 0.55669998E+02  0.78151E+05
 0.55720001E+02  0.32289E+05
 0.55770000E+02  0.15560E+05
 0.55820000E+02  0.63694E+05
 0.55869999E+02  0.21060E+06
 0.55919998E+02  0.45095E+06
 0.55970001E+02  0.71762E+06
 0.56020000E+02  0.87898E+06
 0.56070000E+02  0.89609E+06
 0.56119999E+02  0.80668E+06
 0.56169998E+02  0.68301E+06
 0.56220001E+02  0.54772E+06
 0.56270000E+02  0.38608E+06
 0.56320000E+02  0.23556E+06
 0.56369999E+02  0.16004E+06
 0.56419998E+02  0.21930E+06
 0.56470001E+02  0.30414E+06
 0.56520000E+02  0.33506E+06
 0.56570000E+02  0.35202E+06
 0.56619999E+02  0.36841E+06
 0.56669998E+02  0.35765E+06
 0.56720001E+02  0.30443E+06
 0.56770000E+02  0.24564E+06
 0.56820000E+02  0.15472E+06
 0.56869999E+02  0.89953E+05
 0.56919998E+02  0.94572E+05
 0.56970001E+02  0.11238E+06
 0.57020000E+02  0.12650E+06
 0.57070000E+02  0.97282E+05
 0.57119999E+02 -0.20495E+05
 0.57169998E+02 -0.27014E+06
 0.57220001E+02 -0.56194E+06
 0.57270000E+02 -0.76862E+06
 0.57320000E+02 -0.90470E+06
 0.57369999E+02 -0.96729E+06
 0.57419998E+02 -0.90487E+06
 0.57470001E+02 -0.71838E+06
 0.57520000E+02 -0.48208E+06
 0.57570000E+02 -0.27038E+06
 0.57619999E+02 -0.81836E+05
 0.57669998E+02  0.10641E+06
 0.57720001E+02  0.30882E+06
 0.57770000E+02  0.47117E+06
 0.57820000E+02  0.48620E+06
 0.57869999E+02  0.37777E+06
 0.57919998E+02  0.19646E+06
 0.57970001E+02 -0.32700E+05
 0.58020000E+02 -0.22193E+06
 0.58070000E+02 -0.26816E+06
 0.58119999E+02 -0.13762E+06
 0.58169998E+02  0.84421E+05
 0.58220001E+02  0.30072E+06
 0.58270000E+02  0.46377E+06
 0.58320000E+02  0.55434E+06
 0.58369999E+02  0.56854E+06
 0.58419998E+02  0.54856E+06
 0.58470001E+02  0.55604E+06
 0.58520000E+02  0.56202E+06
 0.58570000E+02  0.50678E+06
 0.58619999E+02  0.43316E+06
 0.58669998E+02  0.37921E+06
 0.58720001E+02  0.30958E+06
 0.58770000E+02  0.20418E+06
 0.58820000E+02  0.76684E+05
 0.58869999E+02 -0.44319E+05
 0.58919998E+02 -0.19623E+06
 0.58970001E+02 -0.35816E+06
 0.59020000E+02 -0.40121E+06
 0.59070000E+02 -0.32095E+06
 0.59119999E+02 -0.19992E+06
 0.59169998E+02 -0.65193E+05
 0.59220001E+02  0.77952E+05
 0.59270000E+02  0.18455E+06
 0.59320000E+02  0.19977E+06
 0.59369999E+02  0.14932E+06
 0.59419998E+02  0.96924E+05
 0.59470001E+02  0.16254E+05
 0.59520000E+02 -0.12119E+06
 0.59570000E+02 -0.24333E+06
 0.59619999E+02 -0.30029E+06
 0.59669998E+02 -0.27806E+06
 0.59720001E+02 -0.17305E+06
 0.59770000E+02 -0.22268E+05
 0.59820000E+02  0.12829E+06
 0.59869999E+02  0.23036E+06
 0.59919998E+02  0.28493E+06
 0.59970001E+02  0.30250E+06
 0.60020000E+02  0.24066E+06
 0.60070000E+02  0.11130E+06
 0.60119999E+02 -0.30095E+05
 0.60170002E+02 -0.15251E+06
 0.60219997E+02 -0.23034E+06
 0.60270000E+02 -0.22757E+06
 0.60320004E+02 -0.15218E+06
 0.60369999E+02 -0.11454E+06
 0.60420002E+02 -0.19226E+06
 0.60469997E+02 -0.36402E+06
 0.60520000E+02 -0.55078E+06
 0.60570004E+02 -0.67556E+06
 0.60619999E+02 -0.70575E+06
 0.60670002E+02 -0.64406E+06
 0.60719997E+02 -0.56589E+06
 0.60770000E+02 -0.51757E+06
 0.60820004E+02 -0.49817E+06
 0.60869999E+02 -0.48252E+06
 0.60920002E+02 -0.41377E+06
 0.60969997E+02 -0.31212E+06
 0.61020000E+02 -0.21790E+06
 0.61070004E+02 -0.13897E+06
 0.61119999E+02 -0.94069E+05
 0.61170002E+02 -0.11235E+06
 0.61219997E+02 -0.19583E+06
 0.61270000E+02 -0.27182E+06
 0.61320004E+02 -0.27182E+06
 0.61369999E+02 -0.23294E+06
 0.61420002E+02 -0.21311E+06
 0.61469997E+02 -0.18527E+06
 0.61520000E+02 -0.12463E+06
 0.61570004E+02 -0.55381E+05
 0.61619999E+02  0.18387E+05
 0.61670002E+02  0.89360E+05
 0.61719997E+02  0.13183E+06
 0.61770000E+02  0.13052E+06
 0.61820004E+02  0.12016E+06
 0.61869999E+02  0.16700E+06
 0.61920002E+02  0.20567E+06
 0.61969997E+02  0.17934E+06
 0.62020000E+02  0.12868E+06
 0.62070004E+02  0.21577E+05
 0.62119999E+02 -0.11065E+06
 0.62170002E+02 -0.20511E+06
 0.62219997E+02 -0.28225E+06
 0.62270000E+02 -0.35146E+06
 0.62320004E+02 -0.41229E+06
 0.62369999E+02 -0.43401E+06
 0.62420002E+02 -0.38603E+06
 0.62469997E+02 -0.31993E+06
 0.62520000E+02 -0.25099E+06
 0.62570004E+02 -0.13928E+06
 0.62619999E+02 -0.87260E+04
 0.62670002E+02  0.12334E+06
 0.62719997E+02  0.24901E+06
 0.62770000E+02  0.34164E+06
 0.62820004E+02  0.38311E+06
 0.62869999E+02  0.33823E+06
 0.62920002E+02  0.17411E+06
 0.62969997E+02 -0.93217E+05
 0.63020000E+02 -0.39099E+06
 0.63070004E+02 -0.62516E+06
 0.63119999E+02 -0.72402E+06
 0.63170002E+02 -0.71225E+06
 0.63219997E+02 -0.63650E+06
 0.63270000E+02 -0.52072E+06
 0.63320004E+02 -0.38683E+06
 0.63369999E+02 -0.21796E+06
 0.63420002E+02 -0.54787E+05
 0.63469997E+02  0.46021E+05
 0.63520000E+02  0.93519E+05
 0.63570004E+02  0.12524E+06
 0.63619999E+02  0.15447E+06
 0.63670002E+02  0.15904E+06
 0.63719997E+02  0.14849E+06
 0.63770000E+02  0.17179E+06
 0.63820004E+02  0.27296E+06
 0.63869999E+02  0.42176E+06
 0.63920002E+02  0.54216E+06
 0.63969997E+02  0.61721E+06
 0.64020004E+02  0.69298E+06
 0.64070007E+02  0.78055E+06
 0.64120003E+02  0.84596E+06
 0.64170006E+02  0.89246E+06
 0.64220001E+02  0.92617E+06
 0.64270004E+02  0.96044E+06
 0.64320007E+02  0.10041E+07
 0.64370003E+02  0.10248E+07
 0.64420006E+02  0.10222E+07
 0.64470001E+02  0.99120E+06
 0.64520004E+02  0.92315E+06
 0.64570007E+02  0.81633E+06
 0.64620003E+02  0.68811E+06
 0.64670006E+02  0.59999E+06
 0.64720001E+02  0.55092E+06
 0.64770004E+02  0.47755E+06
 0.64820007E+02  0.34823E+06
 0.64870003E+02  0.21090E+06
 0.64920006E+02  0.10552E+06
 0.64970001E+02  0.35622E+05
 0.65020004E+02 -0.38568E+05
 0.65070007E+02 -0.16972E+06
 0.65120003E+02 -0.34982E+06
 0.65170006E+02 -0.56199E+06
 0.65220001E+02 -0.74911E+06
 0.65270004E+02 -0.90159E+06
 0.65320007E+02 -0.10335E+07
 0.65370003E+02 -0.10872E+07
 0.65420006E+02 -0.10570E+07
 0.65470001E+02 -0.10002E+07
 0.65520004E+02 -0.96643E+06
 0.65570007E+02 -0.94884E+06
 0.65620003E+02 -0.90862E+06
 0.65670006E+02 -0.81723E+06
 0.65720001E+02 -0.67467E+06
 0.65770004E+02 -0.51233E+06
 0.65820007E+02 -0.35473E+06
 0.65870003E+02 -0.23939E+06
 0.65920006E+02 -0.18975E+06
 0.65970001E+02 -0.15476E+06
 0.66020004E+02 -0.89574E+05
 0.66070007E+02  0.10677E+05
 0.66120003E+02  0.14496E+06
 0.66170006E+02  0.28968E+06
 0.66220001E+02  0.41828E+06
 0.66270004E+02  0.51472E+06
 0.66320007E+02  0.57172E+06
 0.66370003E+02  0.59526E+06
 0.66420006E+02  0.59298E+06
 0.66470001E+02  0.58630E+06
 0.66520004E+02  0.60565E+06
 0.66570007E+02  0.63974E+06
 0.66620003E+02  0.66282E+06
 0.66670006E+02  0.68162E+06
 0.66720001E+02  0.72981E+06
 0.66770004E+02  0.81304E+06
 0.66820007E+02  0.86791E+06
 0.66870003E+02  0.87719E+06
 0.66920006E+02  0.89135E+06
 0.66970001E+02  0.92239E+06
 0.67020004E+02  0.93247E+06
 0.67070007E+02  0.90439E+06
 0.67120003E+02  0.87861E+06
 0.67170006E+02  0.87446E+06
 0.67220001E+02  0.84853E+06
 0.67270004E+02  0.73807E+06
 0.67320007E+02  0.51226E+06
 0.67370003E+02  0.19003E+06
 0.67420006E+02 -0.14689E+06
 0.67470001E+02 -0.39584E+06
 0.67520004E+02 -0.54791E+06
 0.67570007E+02 -0.64708E+06
 0.67620003E+02 -0.71968E+06
 0.67670006E+02 -0.76480E+06
 0.67720001E+02 -0.75075E+06
 0.67770004E+02 -0.68764E+06
 0.67820007E+02 -0.61026E+06
 0.67870003E+02 -0.56064E+06
 0.67920006E+02 -0.56675E+06
 0.67970001E+02 -0.56750E+06
 0.68020004E+02 -0.51665E+06
 0.68070007E+02 -0.44925E+06
 0.68120003E+02 -0.38734E+06
 0.68170006E+02 -0.30248E+06
 0.68220001E+02 -0.17651E+06
 0.68270004E+02 -0.28869E+05
 0.68320007E+02  0.82605E+05
 0.68370003E+02  0.10322E+06
 0.68420006E+02  0.56930E+05
 0.68470001E+02 -0.79850E+04
 0.68520004E+02 -0.74937E+05
 0.68570007E+02 -0.15692E+06
 0.68620003E+02 -0.23999E+06
 0.68670006E+02 -0.28495E+06
 0.68720001E+02 -0.31494E+06
 0.68770004E+02 -0.34654E+06
 0.68820007E+02 -0.35987E+06
 0.68870003E+02 -0.35385E+06
 0.68920006E+02 -0.36416E+06
 0.68970001E+02 -0.41818E+06
 0.69020004E+02 -0.47598E+06
 0.69070007E+02 -0.50745E+06
 0.69120003E+02 -0.50022E+06
 0.69170006E+02 -0.46108E+06
 0.69220001E+02 -0.41439E+06
 0.69270004E+02 -0.34897E+06
 0.69320007E+02 -0.25376E+06
 0.69370003E+02 -0.13336E+06
 0.69420006E+02 -0.24574E+05
 0.69470001E+02  0.50846E+05
 0.69520004E+02  0.12910E+06
 0.69570007E+02  0.21671E+06
 0.69620003E+02  0.27432E+06
 0.69670006E+02  0.30282E+06
 0.69720001E+02  0.34007E+06
 0.69770004E+02  0.39561E+06
 0.69820007E+02  0.44452E+06
 0.69870003E+02  0.47038E+06
 0.69920006E+02  0.48908E+06
 0.69970001E+02  0.49898E+06
 0.70020004E+02  0.46780E+06
 0.70070007E+02  0.38548E+06
 0.70120003E+02  0.28242E+06
 0.70170006E+02  0.20221E+06
 0.70220001E+02  0.16206E+06
 0.70270004E+02  0.15133E+06
 0.70320007E+02  0.14742E+06
 0.70370003E+02  0.13115E+06
 0.70420006E+02  0.98324E+05
 0.70470001E+02  0.45847E+05
 0.70520004E+02 -0.18098E+05
 0.70570007E+02 -0.79969E+05
 0.70620003E+02 -0.12748E+06
 0.70670006E+02 -0.14992E+06
 0.70720001E+02 -0.15544E+06
 0.70770004E+02 -0.13527E+06
 0.70820007E+02 -0.79879E+05
 0.70870003E+02 -0.31230E+04
 0.70920006E+02  0.87934E+05
 0.70970001E+02  0.19287E+06
 0.71020004E+02  0.30301E+06
 0.71070007E+02  0.38985E+06
 0.71120003E+02  0.42731E+06
 0.71170006E+02  0.40618E+06
 0.71220001E+02  0.33066E+06
 0.71270004E+02  0.21825E+06
 0.71320007E+02  0.10026E+06
 0.71370003E+02  0.15375E+05
 0.71420006E+02 -0.34522E+05
 0.71470001E+02 -0.73857E+05
 0.71520004E+02 -0.83744E+05
 0.71570007E+02 -0.36940E+05
 0.71620003E+02  0.42340E+05
 0.71670006E+02  0.11324E+06
 0.71720001E+02  0.16309E+06
 0.71770004E+02  0.20584E+06
 0.71820007E+02  0.23820E+06
 0.71870003E+02  0.23968E+06
 0.71920006E+02  0.20935E+06
 0.71970001E+02  0.14980E+06
 0.72020004E+02  0.72634E+05
 0.72070007E+02  0.69500E+04
 0.72120003E+02 -0.41760E+05
 0.72170006E+02 -0.94135E+05
 0.72220001E+02 -0.16217E+06
 0.72270004E+02 -0.22120E+06
 0.72320007E+02 -0.25065E+06
 0.72370003E+02 -0.26706E+06
 0.72420006E+02 -0.27584E+06
 0.72470001E+02 -0.25641E+06
 0.72520004E+02 -0.19102E+06
 0.72570007E+02 -0.10854E+06
 0.72620003E+02 -0.56460E+05
 0.72670006E+02 -0.32881E+05
 0.72720001E+02 -0.22440E+05
 0.72770004E+02 -0.19702E+05
 0.72820007E+02 -0.20626E+05
 0.72870003E+02 -0.27753E+05
 0.72920006E+02 -0.40484E+05
 0.72970001E+02 -0.56822E+05
 0.73020004E+02 -0.51228E+05
 0.73070007E+02 -0.12359E+05
 0.73120003E+02  0.20571E+05
 0.73170006E+02  0.27065E+05
 0.73220001E+02  0.23704E+05
 0.73270004E+02  0.18411E+05
 0.73320007E+02  0.19070E+04
 0.73370003E+02 -0.15636E+05
 0.73420006E+02 -0.56940E+04
 0.73470001E+02  0.29825E+05
 0.73520004E+02  0.72935E+05
 0.73570007E+02  0.11864E+06
 0.73620003E+02  0.14704E+06
 0.73670006E+02  0.13228E+06
 0.73720001E+02  0.77478E+05
 0.73770004E+02  0.13382E+05
 0.73820007E+02 -0.37980E+05
 0.73870003E+02 -0.90569E+05
 0.73920006E+02 -0.14573E+06
 0.73970001E+02 -0.18025E+06
 0.74020004E+02 -0.18987E+06
 0.74070007E+02 -0.19291E+06
 0.74120003E+02 -0.21894E+06
 0.74170006E+02 -0.26820E+06
 0.74220001E+02 -0.32266E+06
 0.74270004E+02 -0.39020E+06
 0.74320007E+02 -0.46324E+06
 0.74370003E+02 -0.50327E+06
 0.74420006E+02 -0.50000E+06
 0.74470001E+02 -0.48542E+06
 0.74520004E+02 -0.47747E+06
 0.74570007E+02 -0.46122E+06
 0.74620003E+02 -0.43992E+06
 0.74670006E+02 -0.44131E+06
 0.74720001E+02 -0.45861E+06
 0.74770004E+02 -0.46393E+06
 0.74820007E+02 -0.45510E+06
 0.74870003E+02 -0.43379E+06
 0.74920006E+02 -0.38480E+06
 0.74970001E+02 -0.29829E+06
 0.75020004E+02 -0.21396E+06
 0.75070007E+02 -0.18100E+06
 0.75120003E+02 -0.18840E+06
 0.75170006E+02 -0.21092E+06
 0.75220001E+02 -0.24933E+06
 0.75270004E+02 -0.29608E+06
 0.75320007E+02 -0.31410E+06
 0.75370003E+02 -0.29002E+06
 0.75420006E+02 -0.25172E+06
 0.75470001E+02 -0.20956E+06
 0.75520004E+02 -0.16329E+06
 0.75570007E+02 -0.13196E+06
 0.75620003E+02 -0.12677E+06
 0.75670006E+02 -0.14056E+06
 0.75720001E+02 -0.15810E+06
 0.75770004E+02 -0.17378E+06
 0.75820007E+02 -0.19412E+06
 0.75870003E+02 -0.20866E+06
 0.75920006E+02 -0.20324E+06
 0.75970001E+02 -0.16713E+06
 0.76020004E+02 -0.10949E+06
 0.76070007E+02 -0.56097E+05
 0.76120003E+02 -0.25348E+05
 0.76170006E+02 -0.22079E+05
 0.76220001E+02 -0.18296E+05
 0.76270004E+02  0.13014E+05
 0.76320007E+02  0.86343E+05
 0.76370003E+02  0.19290E+06
 0.76420006E+02  0.32040E+06
 0.76470001E+02  0.45536E+06
 0.76520004E+02  0.55847E+06
 0.76570007E+02  0.62155E+06
 0.76620003E+02  0.66145E+06
 0.76670006E+02  0.68895E+06
 0.76720001E+02  0.69483E+06
 0.76770004E+02  0.67838E+06
 0.76820007E+02  0.65882E+06
 0.76870003E+02  0.64340E+06
 0.76920006E+02  0.63699E+06
 0.76970001E+02  0.64139E+06
 0.77020004E+02  0.64947E+06
 0.77070007E+02  0.65050E+06
 0.77120003E+02  0.64674E+06
 0.77170006E+02  0.62623E+06
 0.77220001E+02  0.57028E+06
 0.77270004E+02  0.48582E+06
 0.77320007E+02  0.38160E+06
 0.77370003E+02  0.27220E+06
 0.77420006E+02  0.18151E+06
 0.77470001E+02  0.13285E+06
 0.77520004E+02  0.12727E+06
 0.77570007E+02  0.14391E+06
 0.77620003E+02  0.17511E+06
 0.77670006E+02  0.22188E+06
 0.77720001E+02  0.28726E+06
 0.77770004E+02  0.37046E+06
 0.77820007E+02  0.44238E+06
 0.77870003E+02  0.47616E+06
 0.77920006E+02  0.47296E+06
 0.77970001E+02  0.43932E+06
 0.78020004E+02  0.39137E+06
 0.78070007E+02  0.35432E+06
 0.78120003E+02  0.34661E+06
 0.78170006E+02  0.36277E+06
 0.78220001E+02  0.38103E+06
 0.78270004E+02  0.38967E+06
 0.78320007E+02  0.38434E+06
 0.78370003E+02  0.36285E+06
 0.78420006E+02  0.32583E+06
 0.78470001E+02  0.28904E+06
 0.78520004E+02  0.26539E+06
 0.78570007E+02  0.24256E+06
 0.78620003E+02  0.20429E+06
 0.78670006E+02  0.13810E+06
 0.78720001E+02  0.49774E+05
 0.78770004E+02 -0.39124E+05
 0.78820007E+02 -0.11363E+06
 0.78870003E+02 -0.17080E+06
 0.78920006E+02 -0.21609E+06
 0.78970001E+02 -0.25557E+06
 0.79020004E+02 -0.29672E+06
 0.79070007E+02 -0.33786E+06
 0.79120003E+02 -0.36509E+06
 0.79170006E+02 -0.35921E+06
 0.79220001E+02 -0.31951E+06
 0.79270004E+02 -0.26561E+06
 0.79320007E+02 -0.21014E+06
 0.79370003E+02 -0.17240E+06
 0.79420006E+02 -0.16076E+06
 0.79470001E+02 -0.15299E+06
 0.79520004E+02 -0.13632E+06
 0.79570007E+02 -0.11451E+06
 0.79620003E+02 -0.80078E+05
 0.79670006E+02 -0.14450E+05
 0.79720001E+02  0.67081E+05
 0.79770004E+02  0.12785E+06
 0.79820007E+02  0.15940E+06
 0.79870003E+02  0.14783E+06
 0.79920006E+02  0.79456E+05
 0.79970001E+02 -0.31317E+05
 0.80020004E+02 -0.15056E+06
 0.80070007E+02 -0.25055E+06
 0.80120003E+02 -0.33784E+06
 0.80170006E+02 -0.41426E+06
 0.80220001E+02 -0.46955E+06
 0.80270004E+02 -0.50438E+06
 0.80320007E+02 -0.51570E+06
 0.80370003E+02 -0.48407E+06
 0.80420006E+02 -0.40693E+06
 0.80470001E+02 -0.32019E+06
 0.80520004E+02 -0.25832E+06
 0.80570007E+02 -0.23591E+06
 0.80620003E+02 -0.23704E+06
 0.80670006E+02 -0.24451E+06
 0.80720001E+02 -0.26804E+06
 0.80770004E+02 -0.30596E+06
 0.80820007E+02 -0.34139E+06
 0.80870003E+02 -0.35561E+06
 0.80920006E+02 -0.34399E+06
 0.80970001E+02 -0.31800E+06
 0.81020004E+02 -0.29343E+06
 0.81070007E+02 -0.28864E+06
 0.81120003E+02 -0.31173E+06
 0.81170006E+02 -0.36428E+06
 0.81220001E+02 -0.44117E+06
 0.81270004E+02 -0.51426E+06
 0.81320007E+02 -0.54730E+06
 0.81370003E+02 -0.53328E+06
 0.81420006E+02 -0.48799E+06
 0.81470001E+02 -0.42731E+06
 0.81520004E+02 -0.35558E+06
 0.81570007E+02 -0.25945E+06
 0.81620003E+02 -0.12827E+06
 0.81670006E+02  0.28460E+05
 0.81720001E+02  0.17918E+06
 0.81770004E+02  0.29990E+06
 0.81820007E+02  0.38563E+06
 0.81870003E+02  0.42521E+06
 0.81920006E+02  0.40488E+06
 0.81970001E+02  0.32460E+06
 0.82020004E+02  0.21474E+06
 0.82070007E+02  0.10369E+06
 0.82120003E+02  0.70580E+04
 0.82170006E+02 -0.59414E+05
 0.82220001E+02 -0.10141E+06
 0.82270004E+02 -0.11879E+06
 0.82320007E+02 -0.10728E+06
 0.82370003E+02 -0.64119E+05
 0.82420006E+02  0.13627E+05
 0.82470001E+02  0.10463E+06
 0.82520004E+02  0.18039E+06
 0.82570007E+02  0.22510E+06
 0.82620003E+02  0.25112E+06
 0.82670006E+02  0.28073E+06
 0.82720001E+02  0.31257E+06
 0.82770004E+02  0.33465E+06
 0.82820007E+02  0.33744E+06
 0.82870003E+02  0.31593E+06
 0.82920006E+02  0.26759E+06
 0.82970001E+02  0.19005E+06
 0.83020004E+02  0.88388E+05
 0.83070007E+02 -0.25527E+05
 0.83120003E+02 -0.12997E+06
 0.83170006E+02 -0.20340E+06
 0.83220001E+02 -0.24207E+06
 0.83270004E+02 -0.25271E+06
 0.83320007E+02 -0.24494E+06
 0.83370003E+02 -0.22247E+06
 0.83420006E+02 -0.18142E+06
 0.83470001E+02 -0.12704E+06
 0.83520004E+02 -0.73854E+05
 0.83570007E+02 -0.22283E+05
 0.83620003E+02  0.40734E+05
 0.83670006E+02  0.11083E+06
 0.83720001E+02  0.16817E+06
 0.83770004E+02  0.19629E+06
 0.83820007E+02  0.19382E+06
 0.83870003E+02  0.18069E+06
 0.83920006E+02  0.17029E+06
 0.83970001E+02  0.16461E+06
 0.84020004E+02  0.16441E+06
 0.84070007E+02  0.15807E+06
 0.84120003E+02  0.12959E+06
 0.84170006E+02  0.77522E+05
 0.84220001E+02  0.26189E+05
 0.84270004E+02 -0.12067E+05
 0.84320007E+02 -0.59889E+05
 0.84370003E+02 -0.12832E+06
 0.84420006E+02 -0.19436E+06
 0.84470001E+02 -0.23008E+06
 0.84520004E+02 -0.23182E+06
 0.84570007E+02 -0.20877E+06
 0.84620003E+02 -0.16498E+06
 0.84670006E+02 -0.10524E+06
 0.84720001E+02 -0.34736E+05
 0.84770004E+02  0.50433E+05
 0.84820007E+02  0.14476E+06
 0.84870003E+02  0.21877E+06
 0.84920006E+02  0.25316E+06
 0.84970001E+02  0.26233E+06
 0.85020004E+02  0.25773E+06
 0.85070007E+02  0.23054E+06
 0.85120003E+02  0.19063E+06
 0.85170006E+02  0.16210E+06
 0.85220001E+02  0.14657E+06
 0.85270004E+02  0.13270E+06
 0.85320007E+02  0.13234E+06
 0.85370003E+02  0.16507E+06
 0.85420006E+02  0.21780E+06
 0.85470001E+02  0.26845E+06
 0.85520004E+02  0.32041E+06
 0.85570007E+02  0.38679E+06
 0.85620003E+02  0.46386E+06
 0.85670006E+02  0.54083E+06
 0.85720001E+02  0.60682E+06
 0.85770004E+02  0.63651E+06
 0.85820007E+02  0.62180E+06
 0.85870003E+02  0.58003E+06
 0.85920006E+02  0.51513E+06
 0.85970001E+02  0.42733E+06
 0.86020004E+02  0.32530E+06
 0.86070007E+02  0.22178E+06
 0.86120003E+02  0.12519E+06
 0.86170006E+02  0.40356E+05
 0.86220001E+02 -0.27294E+05
 0.86270004E+02 -0.75530E+05
 0.86320007E+02 -0.10053E+06
 0.86370003E+02 -0.10361E+06
 0.86420006E+02 -0.85268E+05
 0.86470001E+02 -0.55446E+05
 0.86520004E+02 -0.25751E+05
 0.86570007E+02  0.32620E+04
 0.86620003E+02  0.24616E+05
 0.86670006E+02  0.28956E+05
 0.86720001E+02  0.23910E+04
 0.86770004E+02 -0.55862E+05
 0.86820007E+02 -0.12551E+06
 0.86870003E+02 -0.18809E+06
 0.86920006E+02 -0.24805E+06
 0.86970001E+02 -0.31356E+06
 0.87020004E+02 -0.36916E+06
 0.87070007E+02 -0.40156E+06
 0.87120003E+02 -0.40580E+06
 0.87170006E+02 -0.38634E+06
 0.87220001E+02 -0.35556E+06
 0.87270004E+02 -0.31736E+06
 0.87320007E+02 -0.27259E+06
 0.87370003E+02 -0.22459E+06
 0.87420006E+02 -0.17355E+06
 0.87470001E+02 -0.12280E+06
 0.87520004E+02 -0.87327E+05
 0.87570007E+02 -0.70252E+05
 0.87620003E+02 -0.59280E+05
 0.87670006E+02 -0.49119E+05
 0.87720001E+02 -0.45341E+05
 0.87770004E+02 -0.51338E+05
 0.87820007E+02 -0.51868E+05
 0.87870003E+02 -0.37703E+05
 0.87920006E+02 -0.24183E+05
 0.87970001E+02 -0.18832E+05
 0.88020004E+02 -0.16455E+05
 0.88070007E+02 -0.22284E+05
 0.88120003E+02 -0.41027E+05
 0.88170006E+02 -0.59442E+05
 0.88220001E+02 -0.61558E+05
 0.88270004E+02 -0.39144E+05
 0.88320007E+02  0.60410E+04
 0.88370003E+02  0.63683E+05
 0.88420006E+02  0.12294E+06
 0.88470001E+02  0.16825E+06
 0.88520004E+02  0.18337E+06
 0.88570007E+02  0.15344E+06
 0.88620003E+02  0.74871E+05
 0.88670006E+02 -0.18681E+05
 0.88720001E+02 -0.84637E+05
 0.88770004E+02 -0.11304E+06
 0.88820007E+02 -0.11530E+06
 0.88870003E+02 -0.10098E+06
 0.88920006E+02 -0.67246E+05
 0.88970001E+02 -0.15614E+05
 0.89020004E+02  0.41661E+05
 0.89070007E+02  0.91794E+05
 0.89120003E+02  0.11955E+06
 0.89170006E+02  0.11114E+06
 0.89220001E+02  0.65937E+05
 0.89270004E+02  0.15990E+05
 0.89320007E+02 -0.33210E+04
 0.89370003E+02  0.19590E+04
 0.89420006E+02  0.61070E+04
 0.89470001E+02 -0.88700E+04
 0.89520004E+02 -0.40680E+05
 0.89570007E+02 -0.74346E+05
 0.89620003E+02 -0.10164E+06
 0.89670006E+02 -0.11540E+06
 0.89720001E+02 -0.10948E+06
 0.89770004E+02 -0.82488E+05
 0.89820007E+02 -0.43253E+05
 0.89870003E+02 -0.55500E+03
 0.89920006E+02  0.48595E+05
 0.89970001E+02  0.10455E+06
 0.90020004E+02  0.16945E+06
 0.90070007E+02  0.23822E+06
 0.90120003E+02  0.29308E+06
 0.90170006E+02  0.31422E+06
 0.90220001E+02  0.28352E+06
 0.90270004E+02  0.20766E+06
 0.90320007E+02  0.11575E+06
 0.90370003E+02  0.31418E+05
 0.90420006E+02 -0.32187E+05
 0.90470001E+02 -0.66064E+05
 0.90520004E+02 -0.71438E+05
 0.90570007E+02 -0.50359E+05
 0.90620003E+02 -0.13246E+05
 0.90670006E+02  0.18357E+05
 0.90720001E+02  0.42371E+05
 0.90770004E+02  0.68805E+05
 0.90820007E+02  0.99512E+05
 0.90870003E+02  0.12211E+06
 0.90920006E+02  0.13016E+06
 0.90970001E+02  0.13755E+06
 0.91020004E+02  0.15399E+06
 0.91070007E+02  0.16488E+06
 0.91120003E+02  0.15927E+06
 0.91170006E+02  0.14602E+06
 0.91220001E+02  0.12519E+06
 0.91270004E+02  0.87927E+05
 0.91320007E+02  0.36728E+05
 0.91370003E+02 -0.58690E+04
 0.91420006E+02 -0.23286E+05
 0.91470001E+02 -0.18141E+05
 0.91520004E+02  0.43980E+04
 0.91570007E+02  0.42559E+05
 0.91620003E+02  0.94173E+05
 0.91670006E+02  0.14137E+06
 0.91720001E+02  0.16614E+06
 0.91770004E+02  0.17130E+06
 0.91820007E+02  0.16982E+06
 0.91870003E+02  0.16203E+06
 0.91920006E+02  0.13660E+06
 0.91970001E+02  0.93632E+05
 0.92020004E+02  0.42724E+05
 0.92070007E+02 -0.60580E+04
 0.92120003E+02 -0.55973E+05
 0.92170006E+02 -0.11423E+06
 0.92220001E+02 -0.17243E+06
 0.92270004E+02 -0.22131E+06
 0.92320007E+02 -0.25228E+06
 0.92370003E+02 -0.25071E+06
 0.92420006E+02 -0.20589E+06
 0.92470001E+02 -0.13354E+06
 0.92520004E+02 -0.64334E+05
 0.92570007E+02 -0.93300E+04
 0.92620003E+02  0.33515E+05
 0.92670006E+02  0.67845E+05
 0.92720001E+02  0.95613E+05
 0.92770004E+02  0.10964E+06
 0.92820007E+02  0.10245E+06
 0.92870003E+02  0.81657E+05
 0.92920006E+02  0.67914E+05
 0.92970001E+02  0.72014E+05
 0.93020004E+02  0.84227E+05
 0.93070007E+02  0.98330E+05
 0.93120003E+02  0.11102E+06
 0.93170006E+02  0.11122E+06
 0.93220001E+02  0.10128E+06
 0.93270004E+02  0.92233E+05
 0.93320007E+02  0.80494E+05
 0.93370003E+02  0.57801E+05
 0.93420006E+02  0.32319E+05
 0.93470001E+02  0.16072E+05
 0.93520004E+02  0.69050E+04
 0.93570007E+02 -0.14718E+05
 0.93620003E+02 -0.65016E+05
 0.93670006E+02 -0.13128E+06
 0.93720001E+02 -0.18742E+06
 0.93770004E+02 -0.22591E+06
 0.93820007E+02 -0.26031E+06
 0.93870003E+02 -0.29392E+06
 0.93920006E+02 -0.31348E+06
 0.93970001E+02 -0.31062E+06
 0.94020004E+02 -0.29132E+06
 0.94070007E+02 -0.25917E+06
 0.94120003E+02 -0.20547E+06
 0.94170006E+02 -0.13030E+06
 0.94220001E+02 -0.42824E+05
 0.94270004E+02  0.48704E+05
 0.94320007E+02  0.13292E+06
 0.94370003E+02  0.19819E+06
 0.94420006E+02  0.23896E+06
 0.94470001E+02  0.25965E+06
 0.94520004E+02  0.26717E+06
 0.94570007E+02  0.25961E+06
 0.94620003E+02  0.23494E+06
 0.94670006E+02  0.19513E+06
 0.94720001E+02  0.14605E+06
 0.94770004E+02  0.10137E+06
 0.94820007E+02  0.68217E+05
 0.94870003E+02  0.44708E+05
 0.94920006E+02  0.25623E+05
 0.94970001E+02  0.58800E+04
 0.95020004E+02 -0.16539E+05
 0.95070007E+02 -0.46270E+05
 0.95120003E+02 -0.80295E+05
 0.95170006E+02 -0.11070E+06
 0.95220001E+02 -0.13187E+06
 0.95270004E+02 -0.14654E+06
 0.95320007E+02 -0.16448E+06
 0.95370003E+02 -0.18148E+06
 0.95420006E+02 -0.19253E+06
 0.95470001E+02 -0.20246E+06
 0.95520004E+02 -0.21687E+06
 0.95570007E+02 -0.23312E+06
 0.95620003E+02 -0.24753E+06
 0.95670006E+02 -0.26274E+06
 0.95720001E+02 -0.27717E+06
 0.95770004E+02 -0.29207E+06
 0.95820007E+02 -0.30831E+06
 0.95870003E+02 -0.32457E+06
 0.95920006E+02 -0.34139E+06
 0.95970001E+02 -0.36284E+06
 0.96020004E+02 -0.40313E+06
 0.96070007E+02 -0.46597E+06
 0.96120003E+02 -0.53818E+06
 0.96170006E+02 -0.60203E+06
 0.96220001E+02 -0.64120E+06
 0.96270004E+02 -0.65360E+06
 0.96320007E+02 -0.64703E+06
 0.96370003E+02 -0.63039E+06
 0.96420006E+02 -0.60952E+06
 0.96470001E+02 -0.58795E+06
 0.96520004E+02 -0.56490E+06
 0.96570007E+02 -0.52696E+06
 0.96620003E+02 -0.46313E+06
 0.96670006E+02 -0.37435E+06
 0.96720001E+02 -0.26774E+06
 0.96770004E+02 -0.15319E+06
 0.96820007E+02 -0.42363E+05
 0.96870003E+02  0.48470E+05
 0.96920006E+02  0.11177E+06
 0.96970001E+02  0.15563E+06
 0.97020004E+02  0.19084E+06
 0.97070007E+02  0.22563E+06
 0.97120003E+02  0.25966E+06
 0.97170006E+02  0.29002E+06
 0.97220001E+02  0.31552E+06
 0.97270004E+02  0.33245E+06
 0.97320007E+02  0.33797E+06
 0.97370003E+02  0.32760E+06
 0.97420006E+02  0.30498E+06
 0.97470001E+02  0.28194E+06
 0.97520004E+02  0.25946E+06
 0.97570007E+02  0.23024E+06
 0.97620003E+02  0.19301E+06
 0.97670006E+02  0.14586E+06
 0.97720001E+02  0.84657E+05
 0.97770004E+02  0.18304E+05
 0.97820007E+02 -0.38635E+05
 0.97870003E+02 -0.75732E+05
 0.97920006E+02 -0.88930E+05
 0.97970001E+02 -0.84311E+05
 0.98020004E+02 -0.65642E+05
 0.98070007E+02 -0.34428E+05
 0.98120003E+02  0.19820E+04
 0.98170006E+02  0.36820E+05
 0.98220001E+02  0.64150E+05
 0.98270004E+02  0.88062E+05
 0.98320007E+02  0.11334E+06
 0.98370003E+02  0.13762E+06
 0.98420006E+02  0.16878E+06
 0.98470001E+02  0.20421E+06
 0.98520004E+02  0.23204E+06
 0.98570007E+02  0.24774E+06
 0.98620003E+02  0.25199E+06
 0.98670006E+02  0.25166E+06
 0.98720001E+02  0.24691E+06
 0.98770004E+02  0.23864E+06
 0.98820007E+02  0.23399E+06
 0.98870003E+02  0.23366E+06
 0.98920006E+02  0.23728E+06
 0.98970001E+02  0.25080E+06
 0.99020004E+02  0.27575E+06
 0.99070007E+02  0.30190E+06
 0.99120003E+02  0.31542E+06
 0.99170006E+02  0.30835E+06
 0.99220001E+02  0.27907E+06
 0.99270004E+02  0.23329E+06
 0.99320007E+02  0.18172E+06
 0.99370003E+02  0.13739E+06
 0.99420006E+02  0.10938E+06
 0.99470001E+02  0.92898E+05
 0.99520004E+02  0.88132E+05
 0.99570007E+02  0.98856E+05
 0.99620003E+02  0.11738E+06
 0.99670006E+02  0.13558E+06
 0.99720001E+02  0.14689E+06
 0.99770004E+02  0.14746E+06
 0.99820007E+02  0.14020E+06
 0.99870003E+02  0.12732E+06
 0.99920006E+02  0.10711E+06
 0.99970001E+02  0.81584E+05
 0.10002000E+03  0.55875E+05
 0.10007001E+03  0.34213E+05
 0.10012000E+03  0.19431E+05
 0.10017001E+03  0.12249E+05
 0.10022000E+03  0.12143E+05
 0.10027000E+03  0.12892E+05
 0.10032001E+03  0.47450E+04
 0.10037000E+03 -0.10000E+05
 0.10042001E+03 -0.22273E+05
 0.10047000E+03 -0.35738E+05
 0.10052000E+03 -0.58080E+05
 0.10057001E+03 -0.91794E+05
 0.10062000E+03 -0.13354E+06
 0.10067001E+03 -0.17893E+06
 0.10072000E+03 -0.22814E+06
 0.10077000E+03 -0.27310E+06
 0.10082001E+03 -0.30402E+06
 0.10087000E+03 -0.32002E+06
 0.10092001E+03 -0.32392E+06
 0.10097000E+03 -0.31376E+06
 0.10102000E+03 -0.28583E+06
 0.10107001E+03 -0.24840E+06
 0.10112000E+03 -0.20987E+06
 0.10117001E+03 -0.17080E+06
 0.10122000E+03 -0.13336E+06
 0.10127000E+03 -0.10298E+06
 0.10132001E+03 -0.84311E+05
 0.10137000E+03 -0.78237E+05
 0.10142001E+03 -0.78411E+05
 0.10147000E+03 -0.71323E+05
 0.10152000E+03 -0.51220E+05
 0.10157001E+03 -0.27822E+05
 0.10162000E+03 -0.13298E+05
 0.10167001E+03 -0.87220E+04
 0.10172000E+03 -0.48230E+04
 0.10177000E+03  0.45130E+04
 0.10182001E+03  0.17354E+05
 0.10187000E+03  0.31535E+05
 0.10192001E+03  0.50873E+05
 0.10197000E+03  0.77688E+05
 0.10202000E+03  0.10256E+06
 0.10207001E+03  0.12078E+06
 0.10212000E+03  0.14398E+06
 0.10217001E+03  0.18113E+06
 0.10222000E+03  0.22466E+06
 0.10227000E+03  0.26104E+06
 0.10232001E+03  0.28400E+06
 0.10237000E+03  0.29709E+06
 0.10242001E+03  0.31010E+06
 0.10247000E+03  0.32634E+06
 0.10252000E+03  0.34438E+06
 0.10257001E+03  0.36053E+06
 0.10262000E+03  0.36892E+06
 0.10267001E+03  0.37137E+06
 0.10272000E+03  0.37048E+06
 0.10277000E+03  0.36708E+06
 0.10282001E+03  0.35881E+06
 0.10287000E+03  0.34330E+06
 0.10292001E+03  0.32589E+06
 0.10297000E+03  0.30775E+06
 0.10302000E+03  0.28310E+06
 0.10307001E+03  0.25320E+06
 0.10312000E+03  0.23240E+06
 0.10317001E+03  0.22740E+06
 0.10322000E+03  0.23102E+06
 0.10327000E+03  0.24049E+06
 0.10332001E+03  0.25438E+06
 0.10337000E+03  0.26825E+06
 0.10342001E+03  0.27590E+06
 0.10347000E+03  0.27268E+06
 0.10352000E+03  0.26454E+06
 0.10357001E+03  0.25850E+06
 0.10362000E+03  0.25425E+06
 0.10367001E+03  0.24692E+06
 0.10372000E+03  0.23299E+06
 0.10377000E+03  0.21876E+06
 0.10382001E+03  0.20932E+06
 0.10387000E+03  0.20417E+06
 0.10392001E+03  0.20036E+06
 0.10397000E+03  0.19026E+06
 0.10402000E+03  0.17228E+06
 0.10407001E+03  0.15142E+06
 0.10412000E+03  0.13177E+06
 0.10417001E+03  0.11233E+06
 0.10422000E+03  0.94552E+05
 0.10427000E+03  0.83854E+05
 0.10432001E+03  0.71005E+05
 0.10437000E+03  0.42850E+05
 0.10442001E+03  0.21160E+04
 0.10447000E+03 -0.40659E+05
 0.10452000E+03 -0.85396E+05
 0.10457001E+03 -0.13918E+06
 0.10462000E+03 -0.19498E+06
 0.10467001E+03 -0.23886E+06
 0.10472000E+03 -0.27246E+06
 0.10477000E+03 -0.30371E+06
 0.10482001E+03 -0.33235E+06
 0.10487000E+03 -0.36185E+06
 0.10492001E+03 -0.39718E+06
 0.10497000E+03 -0.43240E+06
 0.10502000E+03 -0.45725E+06
 0.10507001E+03 -0.47199E+06
 0.10512000E+03 -0.48328E+06
 0.10517001E+03 -0.48875E+06
 0.10522000E+03 -0.48546E+06
 0.10527000E+03 -0.46963E+06
 0.10532001E+03 -0.43496E+06
 0.10537000E+03 -0.38570E+06
 0.10542001E+03 -0.33043E+06
 0.10547000E+03 -0.27357E+06
 0.10552000E+03 -0.21545E+06
 0.10557001E+03 -0.16051E+06
 0.10562000E+03 -0.11828E+06
 0.10567001E+03 -0.88736E+05
 0.10572000E+03 -0.62786E+05
 0.10577000E+03 -0.36876E+05
 0.10582001E+03 -0.17014E+05
 0.10587000E+03 -0.68270E+04
 0.10592001E+03  0.43000E+02
 0.10597000E+03  0.14534E+05
 0.10602000E+03  0.37143E+05
 0.10607001E+03  0.57410E+05
 0.10612000E+03  0.70849E+05
 0.10617001E+03  0.79558E+05
 0.10622000E+03  0.82675E+05
 0.10627000E+03  0.80333E+05
 0.10632001E+03  0.77983E+05
 0.10637000E+03  0.82038E+05
 0.10642001E+03  0.95663E+05
 0.10647000E+03  0.11232E+06
 0.10652000E+03  0.12749E+06
 0.10657001E+03  0.14543E+06
 0.10662000E+03  0.16615E+06
 0.10667001E+03  0.18485E+06
 0.10672000E+03  0.19682E+06
 0.10677000E+03  0.20077E+06
 0.10682001E+03  0.19722E+06
 0.10687000E+03  0.18779E+06
 0.10692001E+03  0.17901E+06
 0.10697000E+03  0.17839E+06
 0.10702000E+03  0.18506E+06
 0.10707001E+03  0.19200E+06
 0.10712000E+03  0.19456E+06
 0.10717001E+03  0.18981E+06
 0.10722000E+03  0.17828E+06
 0.10727000E+03  0.16813E+06
 0.10732001E+03  0.16473E+06
 0.10737000E+03  0.15898E+06
 0.10742001E+03  0.13768E+06
 0.10747000E+03  0.95287E+05
 0.10752000E+03  0.35980E+05
 0.10757001E+03 -0.28490E+05
 0.10762000E+03 -0.90660E+05
 0.10767001E+03 -0.15013E+06
 0.10772000E+03 -0.20494E+06
 0.10777000E+03 -0.25243E+06
 0.10782001E+03 -0.29408E+06
 0.10787000E+03 -0.33736E+06
 0.10792001E+03 -0.38534E+06
 0.10797000E+03 -0.42881E+06
 0.10802000E+03 -0.46682E+06
 0.10807001E+03 -0.50920E+06
 0.10812000E+03 -0.55498E+06
 0.10817001E+03 -0.58985E+06
 0.10822000E+03 -0.60227E+06
 0.10827000E+03 -0.59572E+06
 0.10832001E+03 -0.57502E+06
 0.10837000E+03 -0.53721E+06
 0.10842001E+03 -0.48755E+06
 0.10847000E+03 -0.44008E+06
 0.10852000E+03 -0.40030E+06
 0.10857001E+03 -0.36465E+06
 0.10862000E+03 -0.32850E+06
 0.10867001E+03 -0.28624E+06
 0.10872000E+03 -0.23228E+06
 0.10877000E+03 -0.16422E+06
 0.10882001E+03 -0.82496E+05
 0.10887000E+03  0.10831E+05
 0.10892001E+03  0.10640E+06
 0.10897000E+03  0.19089E+06
 0.10902000E+03  0.25655E+06
 0.10907001E+03  0.30169E+06
 0.10912000E+03  0.33122E+06
 0.10917001E+03  0.35265E+06
 0.10922000E+03  0.37318E+06
 0.10927000E+03  0.39764E+06
 0.10932001E+03  0.42116E+06
 0.10937000E+03  0.43808E+06
 0.10942001E+03  0.45070E+06
 0.10947000E+03  0.46232E+06
 0.10952000E+03  0.47694E+06
 0.10957001E+03  0.49665E+06
 0.10962000E+03  0.51456E+06
 0.10967001E+03  0.52095E+06
 0.10972000E+03  0.51351E+06
 0.10977000E+03  0.49455E+06
 0.10982001E+03  0.46588E+06
 0.10987000E+03  0.42780E+06
 0.10992001E+03  0.37862E+06
 0.10997000E+03  0.31776E+06
 0.11002000E+03  0.24493E+06
 0.11007001E+03  0.16312E+06
 0.11012000E+03  0.79668E+05
 0.11017001E+03 -0.36520E+04
 0.11022000E+03 -0.89881E+05
 0.11027000E+03 -0.17776E+06
 0.11032001E+03 -0.26250E+06
 0.11037000E+03 -0.34179E+06
 0.11042001E+03 -0.41651E+06
 0.11047000E+03 -0.47906E+06
 0.11052000E+03 -0.51271E+06
 0.11057001E+03 -0.51298E+06
 0.11062000E+03 -0.48911E+06
 0.11067001E+03 -0.45526E+06
 0.11072000E+03 -0.42158E+06
 0.11077000E+03 -0.38970E+06
 0.11082001E+03 -0.35843E+06
 0.11087000E+03 -0.32432E+06
 0.11092001E+03 -0.28986E+06
 0.11097000E+03 -0.25774E+06
 0.11102000E+03 -0.22469E+06
 0.11107001E+03 -0.18824E+06
 0.11112000E+03 -0.14983E+06
 0.11117001E+03 -0.11429E+06
 0.11122000E+03 -0.83918E+05
 0.11127000E+03 -0.60500E+05
 0.11132001E+03 -0.46300E+05
 0.11137000E+03 -0.43796E+05
 0.11142001E+03 -0.51887E+05
 0.11147000E+03 -0.64445E+05
 0.11152000E+03 -0.76308E+05
 0.11157001E+03 -0.85241E+05
 0.11162000E+03 -0.91679E+05
 0.11167001E+03 -0.94220E+05
 0.11172000E+03 -0.91495E+05
 0.11177000E+03 -0.86047E+05
 0.11182001E+03 -0.78092E+05
 0.11187000E+03 -0.64488E+05
 0.11192001E+03 -0.48205E+05
 0.11197000E+03 -0.40342E+05
 0.11202000E+03 -0.49253E+05
 0.11207001E+03 -0.70608E+05
 0.11212000E+03 -0.93665E+05
 0.11217001E+03 -0.11316E+06
 0.11222000E+03 -0.13102E+06
 0.11227000E+03 -0.14570E+06
 0.11232001E+03 -0.14857E+06
 0.11237000E+03 -0.14060E+06
 0.11242001E+03 -0.13140E+06
 0.11247000E+03 -0.12627E+06
 0.11252000E+03 -0.12816E+06
 0.11257001E+03 -0.14070E+06
 0.11262000E+03 -0.16300E+06
 0.11267001E+03 -0.18579E+06
 0.11272000E+03 -0.20118E+06
 0.11277000E+03 -0.20744E+06
 0.11282001E+03 -0.20295E+06
 0.11287000E+03 -0.18634E+06
 0.11292001E+03 -0.15979E+06
 0.11297000E+03 -0.13102E+06
 0.11302000E+03 -0.10653E+06
 0.11307001E+03 -0.84547E+05
 0.11312000E+03 -0.60990E+05
 0.11317001E+03 -0.33981E+05
 0.11322000E+03 -0.72940E+04
 0.11327000E+03  0.11596E+05
 0.11332001E+03  0.24480E+05
 0.11337000E+03  0.40447E+05
 0.11342001E+03  0.65284E+05
 0.11347000E+03  0.10113E+06
 0.11352000E+03  0.14791E+06
 0.11357001E+03  0.20325E+06
 0.11362000E+03  0.26136E+06
 0.11367001E+03  0.31746E+06
 0.11372000E+03  0.37020E+06
 0.11377000E+03  0.41383E+06
 0.11382001E+03  0.43808E+06
 0.11387000E+03  0.44144E+06
 0.11392001E+03  0.43527E+06
 0.11397000E+03  0.42836E+06
 0.11402000E+03  0.41840E+06
 0.11407001E+03  0.40214E+06
 0.11412000E+03  0.38156E+06
 0.11417001E+03  0.35426E+06
 0.11422000E+03  0.31588E+06
 0.11427000E+03  0.27211E+06
 0.11432001E+03  0.23548E+06
 0.11437000E+03  0.21591E+06
 0.11442001E+03  0.21086E+06
 0.11447000E+03  0.21128E+06
 0.11452000E+03  0.21028E+06
 0.11457001E+03  0.20216E+06
 0.11462000E+03  0.18551E+06
 0.11467001E+03  0.16101E+06
 0.11472000E+03  0.12794E+06
 0.11477000E+03  0.90781E+05
 0.11482001E+03  0.59978E+05
 0.11487000E+03  0.42102E+05
 0.11492001E+03  0.39005E+05
 0.11497000E+03  0.49161E+05
 0.11502000E+03  0.66215E+05
 0.11507001E+03  0.85510E+05
 0.11512000E+03  0.10926E+06
 0.11517001E+03  0.14199E+06
 0.11522000E+03  0.18145E+06
 0.11527000E+03  0.21993E+06
 0.11532001E+03  0.24958E+06
 0.11537000E+03  0.26888E+06
 0.11542001E+03  0.28348E+06
 0.11547000E+03  0.29384E+06
 0.11552000E+03  0.29812E+06
 0.11557001E+03  0.29592E+06
 0.11562000E+03  0.28809E+06
 0.11567001E+03  0.27729E+06
 0.11572000E+03  0.26557E+06
 0.11577000E+03  0.25723E+06
 0.11582001E+03  0.25407E+06
 0.11587000E+03  0.25459E+06
 0.11592001E+03  0.25381E+06
 0.11597000E+03  0.24466E+06
 0.11602000E+03  0.22549E+06
 0.11607001E+03  0.20071E+06
 0.11612000E+03  0.17818E+06
 0.11617001E+03  0.16020E+06
 0.11622000E+03  0.14320E+06
 0.11627000E+03  0.12457E+06
 0.11632001E+03  0.10264E+06
 0.11637000E+03  0.77826E+05
 0.11642001E+03  0.49985E+05
 0.11647000E+03  0.17521E+05
 0.11652000E+03 -0.16716E+05
 0.11657001E+03 -0.47780E+05
 0.11662000E+03 -0.75799E+05
 0.11667001E+03 -0.10507E+06
 0.11672000E+03 -0.14165E+06
 0.11677000E+03 -0.19261E+06
 0.11682001E+03 -0.25709E+06
 0.11687000E+03 -0.32420E+06
 0.11692001E+03 -0.38370E+06
 0.11697000E+03 -0.42923E+06
 0.11702000E+03 -0.45763E+06
 0.11707001E+03 -0.46990E+06
 0.11712000E+03 -0.47356E+06
 0.11717001E+03 -0.47989E+06
 0.11722000E+03 -0.49192E+06
 0.11727000E+03 -0.50489E+06
 0.11732001E+03 -0.51756E+06
 0.11737000E+03 -0.52960E+06
 0.11742001E+03 -0.53264E+06
 0.11747000E+03 -0.51986E+06
 0.11752000E+03 -0.49783E+06
 0.11757001E+03 -0.47741E+06
 0.11762000E+03 -0.46249E+06
 0.11767001E+03 -0.44656E+06
 0.11772000E+03 -0.42188E+06
 0.11777000E+03 -0.38953E+06
 0.11782001E+03 -0.35041E+06
 0.11787000E+03 -0.30170E+06
 0.11792001E+03 -0.24352E+06
 0.11797000E+03 -0.18006E+06
 0.11802000E+03 -0.11973E+06
 0.11807001E+03 -0.67501E+05
 0.11812000E+03 -0.22193E+05
 0.11817001E+03  0.19405E+05
 0.11822000E+03  0.61498E+05
 0.11827000E+03  0.10211E+06
 0.11832001E+03  0.13488E+06
 0.11837000E+03  0.15640E+06
 0.11842001E+03  0.16731E+06
 0.11847000E+03  0.16948E+06
 0.11852000E+03  0.16488E+06
 0.11857001E+03  0.15664E+06
 0.11862000E+03  0.14482E+06
 0.11867001E+03  0.12760E+06
 0.11872000E+03  0.10668E+06
 0.11877000E+03  0.85064E+05
 0.11882001E+03  0.59781E+05
 0.11887000E+03  0.28068E+05
 0.11892001E+03 -0.32780E+04
 0.11897000E+03 -0.27178E+05
 0.11902000E+03 -0.44541E+05
 0.11907001E+03 -0.59574E+05
 0.11912000E+03 -0.71076E+05
 0.11917001E+03 -0.74843E+05
 0.11922000E+03 -0.72818E+05
 0.11927000E+03 -0.71143E+05
 0.11932001E+03 -0.73473E+05
 0.11937000E+03 -0.77838E+05
 0.11942001E+03 -0.82187E+05
 0.11947000E+03 -0.92487E+05
 0.11952000E+03 -0.11528E+06
 0.11957001E+03 -0.14333E+06
 0.11962000E+03 -0.16220E+06
 0.11967001E+03 -0.16848E+06
 0.11972000E+03 -0.16863E+06
 0.11977000E+03 -0.16588E+06
 0.11982001E+03 -0.15554E+06
 0.11987000E+03 -0.13475E+06
 0.11992001E+03 -0.10743E+06
 0.11997000E+03 -0.75948E+05
 0.12002000E+03 -0.41706E+05
 0.12007001E+03 -0.11092E+05
 0.12012000E+03  0.69590E+04
 0.12017001E+03  0.12137E+05
 0.12022000E+03  0.13688E+05
 0.12027000E+03  0.18655E+05
 0.12032001E+03  0.29004E+05
 0.12037000E+03  0.43110E+05
 0.12042001E+03  0.55757E+05
 0.12047000E+03  0.61463E+05
 0.12052000E+03  0.60732E+05
 0.12057001E+03  0.62571E+05
 0.12062000E+03  0.74639E+05
 0.12067001E+03  0.95023E+05
 0.12072000E+03  0.11763E+06
 0.12077000E+03  0.13878E+06
 0.12082001E+03  0.15800E+06
 0.12087000E+03  0.17470E+06
 0.12092001E+03  0.18716E+06
 0.12097000E+03  0.19240E+06
 0.12102000E+03  0.18441E+06
 0.12107001E+03  0.15822E+06
 0.12112000E+03  0.11818E+06
 0.12117001E+03  0.77068E+05
 0.12122000E+03  0.44044E+05
 0.12127000E+03  0.21381E+05
 0.12132001E+03  0.89860E+04
 0.12137000E+03  0.49040E+04
 0.12142001E+03  0.45800E+04
 0.12147000E+03  0.36840E+04
 0.12152000E+03  0.41620E+04
 0.12157001E+03  0.13490E+05
 0.12162000E+03  0.33255E+05
 0.12167001E+03  0.56681E+05
 0.12172000E+03  0.77667E+05
 0.12177000E+03  0.93246E+05
 0.12182001E+03  0.10205E+06
 0.12187000E+03  0.10316E+06
 0.12192001E+03  0.97311E+05
 0.12197000E+03  0.92679E+05
 0.12202000E+03  0.10036E+06
 0.12207001E+03  0.12334E+06
 0.12212000E+03  0.15672E+06
 0.12217001E+03  0.19389E+06
 0.12222000E+03  0.23116E+06
 0.12227000E+03  0.26481E+06
 0.12232001E+03  0.29166E+06
 0.12237000E+03  0.31353E+06
 0.12242001E+03  0.33441E+06
 0.12247000E+03  0.35912E+06
 0.12252000E+03  0.38852E+06
 0.12257001E+03  0.41902E+06
 0.12262000E+03  0.44398E+06
 0.12267001E+03  0.45704E+06
 0.12272000E+03  0.46048E+06
 0.12277000E+03  0.45973E+06
 0.12282001E+03  0.45460E+06
 0.12287000E+03  0.44255E+06
 0.12292001E+03  0.42516E+06
 0.12297000E+03  0.40438E+06
 0.12302000E+03  0.37832E+06
 0.12307001E+03  0.34358E+06
 0.12312000E+03  0.29958E+06
 0.12317001E+03  0.25112E+06
 0.12322000E+03  0.20323E+06
 0.12327000E+03  0.15632E+06
 0.12332001E+03  0.10708E+06
 0.12337000E+03  0.53196E+05
 0.12342001E+03 -0.54050E+04
 0.12347000E+03 -0.65963E+05
 0.12352000E+03 -0.12233E+06
 0.12357001E+03 -0.16853E+06
 0.12362000E+03 -0.20096E+06
 0.12367001E+03 -0.22140E+06
 0.12372000E+03 -0.23445E+06
 0.12377000E+03 -0.23988E+06
 0.12382001E+03 -0.23520E+06
 0.12387000E+03 -0.22503E+06
 0.12392001E+03 -0.21541E+06
 0.12397000E+03 -0.20194E+06
 0.12402000E+03 -0.17639E+06
 0.12407001E+03 -0.13940E+06
 0.12412000E+03 -0.97952E+05
 0.12417001E+03 -0.54998E+05
 0.12422001E+03 -0.92990E+04
 0.12427001E+03  0.37588E+05
 0.12432000E+03  0.79346E+05
 0.12437000E+03  0.10839E+06
 0.12442001E+03  0.11881E+06
 0.12447001E+03  0.11203E+06
 0.12452001E+03  0.96514E+05
 0.12457000E+03  0.80109E+05
 0.12462000E+03  0.67183E+05
 0.12467001E+03  0.56978E+05
 0.12472001E+03  0.47186E+05
 0.12477001E+03  0.35759E+05
 0.12482000E+03  0.22358E+05
 0.12487000E+03  0.88820E+04
 0.12492001E+03 -0.82920E+04
 0.12497001E+03 -0.33301E+05
 0.12502001E+03 -0.62735E+05
 0.12507000E+03 -0.90212E+05
 0.12512000E+03 -0.11186E+06
 0.12517001E+03 -0.12864E+06
 0.12522001E+03 -0.14420E+06
 0.12527001E+03 -0.16070E+06
 0.12532000E+03 -0.17876E+06
 0.12537000E+03 -0.19842E+06
 0.12542001E+03 -0.21800E+06
 0.12547001E+03 -0.23571E+06
 0.12552001E+03 -0.25089E+06
 0.12557000E+03 -0.26310E+06
 0.12562000E+03 -0.27413E+06
 0.12567001E+03 -0.28788E+06
 0.12572001E+03 -0.30524E+06
 0.12577001E+03 -0.32348E+06
 0.12582000E+03 -0.34053E+06
 0.12587000E+03 -0.35348E+06
 0.12592001E+03 -0.35728E+06
 0.12597001E+03 -0.34905E+06
 0.12602001E+03 -0.32993E+06
 0.12607000E+03 -0.30424E+06
 0.12612000E+03 -0.27827E+06
 0.12617001E+03 -0.25673E+06
 0.12622001E+03 -0.24300E+06
 0.12627001E+03 -0.23845E+06
 0.12632000E+03 -0.24034E+06
 0.12637000E+03 -0.24465E+06
 0.12642001E+03 -0.24635E+06
 0.12647001E+03 -0.24306E+06
 0.12652001E+03 -0.23696E+06
 0.12657000E+03 -0.22815E+06
 0.12662000E+03 -0.21217E+06
 0.12667001E+03 -0.18505E+06
 0.12672001E+03 -0.14571E+06
 0.12677001E+03 -0.95105E+05
 0.12682000E+03 -0.38722E+05
 0.12687000E+03  0.17119E+05
 0.12692001E+03  0.69561E+05
 0.12697001E+03  0.11831E+06
 0.12702001E+03  0.16277E+06
 0.12707000E+03  0.19890E+06
 0.12712000E+03  0.22220E+06
 0.12717001E+03  0.23217E+06
 0.12722001E+03  0.23232E+06
 0.12727001E+03  0.22577E+06
 0.12732000E+03  0.21632E+06
 0.12737000E+03  0.20910E+06
 0.12742001E+03  0.20482E+06
 0.12747001E+03  0.19720E+06
 0.12752001E+03  0.17929E+06
 0.12757000E+03  0.15179E+06
 0.12762000E+03  0.11959E+06
 0.12767001E+03  0.84913E+05
 0.12772001E+03  0.50129E+05
 0.12777001E+03  0.21944E+05
 0.12782000E+03  0.39360E+04
 0.12787000E+03 -0.76300E+04
 0.12792001E+03 -0.16745E+05
 0.12797001E+03 -0.25643E+05
 0.12802000E+03 -0.35783E+05
 0.12806999E+03 -0.49354E+05
 0.12812000E+03 -0.65009E+05
 0.12817000E+03 -0.77706E+05
 0.12822000E+03 -0.85990E+05
 0.12827000E+03 -0.90147E+05
 0.12831999E+03 -0.90638E+05
 0.12837000E+03 -0.86997E+05
 0.12842000E+03 -0.79873E+05
 0.12847000E+03 -0.74032E+05
 0.12852000E+03 -0.73316E+05
 0.12856999E+03 -0.78104E+05
 0.12862000E+03 -0.87247E+05
 0.12867000E+03 -0.99897E+05
 0.12872000E+03 -0.11407E+06
 0.12877000E+03 -0.12488E+06
 0.12881999E+03 -0.12844E+06
 0.12887000E+03 -0.12509E+06
 0.12892000E+03 -0.11462E+06
 0.12897000E+03 -0.94883E+05
 0.12902000E+03 -0.66091E+05
 0.12906999E+03 -0.31209E+05
 0.12912000E+03  0.65380E+04
 0.12917000E+03  0.44627E+05
 0.12922000E+03  0.78152E+05
 0.12927000E+03  0.10122E+06
 0.12931999E+03  0.11268E+06
 0.12937000E+03  0.11524E+06
 0.12942000E+03  0.11088E+06
 0.12947000E+03  0.10248E+06
 0.12952000E+03  0.95966E+05
 0.12956999E+03  0.95977E+05
 0.12962000E+03  0.10168E+06
 0.12967000E+03  0.10552E+06
 0.12972000E+03  0.10189E+06
 0.12977000E+03  0.92189E+05
 0.12981999E+03  0.76891E+05
 0.12987000E+03  0.54906E+05
 0.12992000E+03  0.28195E+05
 0.12997000E+03  0.15210E+04
 0.13002000E+03 -0.22479E+05
 0.13006999E+03 -0.43885E+05
 0.13012000E+03 -0.62991E+05
 0.13017000E+03 -0.78330E+05
 0.13022000E+03 -0.87695E+05
 0.13027000E+03 -0.91674E+05
 0.13031999E+03 -0.88314E+05
 0.13037000E+03 -0.75973E+05
 0.13042000E+03 -0.58738E+05
 0.13047000E+03 -0.40887E+05
 0.13052000E+03 -0.25176E+05
 0.13056999E+03 -0.12432E+05
 0.13062000E+03 -0.37820E+04
 0.13067000E+03 -0.12170E+04
 0.13072000E+03 -0.28660E+04
 0.13077000E+03 -0.53010E+04
 0.13081999E+03 -0.72090E+04
 0.13087000E+03 -0.79900E+04
 0.13092000E+03 -0.63170E+04
 0.13097000E+03  0.35000E+02
 0.13102000E+03  0.13396E+05
 0.13106999E+03  0.32658E+05
 0.13112000E+03  0.52270E+05
 0.13117000E+03  0.68212E+05
 0.13122000E+03  0.80589E+05
 0.13127000E+03  0.90339E+05
 0.13131999E+03  0.97418E+05
 0.13137000E+03  0.10221E+06
 0.13142000E+03  0.10631E+06
 0.13147000E+03  0.11020E+06
 0.13152000E+03  0.11103E+06
 0.13156999E+03  0.10622E+06
 0.13162000E+03  0.96463E+05
 0.13167000E+03  0.83020E+05
 0.13172000E+03  0.70011E+05
 0.13177000E+03  0.62428E+05
 0.13181999E+03  0.62041E+05
 0.13187000E+03  0.69744E+05
 0.13192000E+03  0.82921E+05
 0.13197000E+03  0.94934E+05
 0.13202000E+03  0.10017E+06
 0.13206999E+03  0.96057E+05
 0.13212000E+03  0.82052E+05
 0.13217000E+03  0.60766E+05
 0.13222000E+03  0.40267E+05
 0.13227000E+03  0.27463E+05
 0.13231999E+03  0.19242E+05
 0.13237000E+03  0.79900E+04
 0.13242000E+03 -0.10247E+05
 0.13247000E+03 -0.36576E+05
 0.13252000E+03 -0.70252E+05
 0.13256999E+03 -0.10798E+06
 0.13262000E+03 -0.14386E+06
 0.13267000E+03 -0.17291E+06
 0.13272000E+03 -0.19385E+06
 0.13277000E+03 -0.20656E+06
 0.13281999E+03 -0.20862E+06
 0.13287000E+03 -0.19667E+06
 0.13292000E+03 -0.17326E+06
 0.13297000E+03 -0.14736E+06
 0.13302000E+03 -0.12494E+06
 0.13306999E+03 -0.10571E+06
 0.13312000E+03 -0.88468E+05
 0.13317000E+03 -0.70940E+05
 0.13322000E+03 -0.51082E+05
 0.13327000E+03 -0.31824E+05
 0.13331999E+03 -0.17507E+05
 0.13337000E+03 -0.78780E+04
 0.13342000E+03  0.77400E+03
 0.13347000E+03  0.91780E+04
 0.13352000E+03  0.17188E+05
 0.13356999E+03  0.28415E+05
 0.13362000E+03  0.45531E+05
 0.13367000E+03  0.67557E+05
 0.13372000E+03  0.91367E+05
 0.13377000E+03  0.11476E+06
 0.13381999E+03  0.13795E+06
 0.13387000E+03  0.16072E+06
 0.13392000E+03  0.18108E+06
 0.13397000E+03  0.19764E+06
 0.13402000E+03  0.21191E+06
 0.13406999E+03  0.22614E+06
 0.13412000E+03  0.24039E+06
 0.13417000E+03  0.25180E+06
 0.13422000E+03  0.25946E+06
 0.13427000E+03  0.26587E+06
 0.13431999E+03  0.27093E+06
 0.13437000E+03  0.27293E+06
 0.13442000E+03  0.27192E+06
 0.13447000E+03  0.27046E+06
 0.13452000E+03  0.27039E+06
 0.13456999E+03  0.27243E+06
 0.13462000E+03  0.27793E+06
 0.13467000E+03  0.28468E+06
 0.13472000E+03  0.28785E+06
 0.13477000E+03  0.28590E+06
 0.13481999E+03  0.28108E+06
 0.13487000E+03  0.27260E+06
 0.13492000E+03  0.25574E+06
 0.13497000E+03  0.22890E+06
 0.13502000E+03  0.19698E+06
 0.13506999E+03  0.16746E+06
 0.13512000E+03  0.14406E+06
 0.13517000E+03  0.12626E+06
 0.13522000E+03  0.11005E+06
 0.13527000E+03  0.91251E+05
 0.13531999E+03  0.69892E+05
 0.13537000E+03  0.46077E+05
 0.13542000E+03  0.17801E+05
 0.13547000E+03 -0.14493E+05
 0.13552000E+03 -0.48779E+05
 0.13556999E+03 -0.84529E+05
 0.13562000E+03 -0.11832E+06
 0.13567000E+03 -0.14462E+06
 0.13572000E+03 -0.16075E+06
 0.13577000E+03 -0.16868E+06
 0.13581999E+03 -0.17362E+06
 0.13587000E+03 -0.17756E+06
 0.13592000E+03 -0.18000E+06
 0.13597000E+03 -0.18227E+06
 0.13602000E+03 -0.18478E+06
 0.13606999E+03 -0.18550E+06
 0.13612000E+03 -0.18326E+06
 0.13617000E+03 -0.17848E+06
 0.13622000E+03 -0.17401E+06
 0.13627000E+03 -0.17401E+06
 0.13631999E+03 -0.17878E+06
 0.13637000E+03 -0.18615E+06
 0.13642000E+03 -0.19397E+06
 0.13647000E+03 -0.19946E+06
 0.13652000E+03 -0.20121E+06
 0.13656999E+03 -0.20123E+06
 0.13662000E+03 -0.20309E+06
 0.13667000E+03 -0.20871E+06
 0.13672000E+03 -0.21898E+06
 0.13677000E+03 -0.23382E+06
 0.13681999E+03 -0.24995E+06
 0.13687000E+03 -0.26284E+06
 0.13692000E+03 -0.27093E+06
 0.13697000E+03 -0.27550E+06
 0.13702000E+03 -0.27630E+06
 0.13706999E+03 -0.27107E+06
 0.13712000E+03 -0.26008E+06
 0.13717000E+03 -0.24605E+06
 0.13722000E+03 -0.23180E+06
 0.13727000E+03 -0.21909E+06
 0.13731999E+03 -0.20790E+06
 0.13737000E+03 -0.19770E+06
 0.13742000E+03 -0.18873E+06
 0.13747000E+03 -0.17981E+06
 0.13752000E+03 -0.16798E+06
 0.13756999E+03 -0.15137E+06
 0.13762000E+03 -0.13229E+06
 0.13767000E+03 -0.11775E+06
 0.13772000E+03 -0.11094E+06
 0.13777000E+03 -0.10900E+06
 0.13781999E+03 -0.10967E+06
 0.13787000E+03 -0.11186E+06
 0.13792000E+03 -0.11338E+06
 0.13797000E+03 -0.11062E+06
 0.13802000E+03 -0.10261E+06
 0.13806999E+03 -0.90538E+05
 0.13812000E+03 -0.74731E+05
 0.13817000E+03 -0.57191E+05
 0.13822000E+03 -0.40566E+05
 0.13827000E+03 -0.26195E+05
 0.13831999E+03 -0.12937E+05
 0.13837000E+03  0.21440E+04
 0.13842000E+03  0.19650E+05
 0.13847000E+03  0.37541E+05
 0.13852000E+03  0.53823E+05
 0.13856999E+03  0.68286E+05
 0.13862000E+03  0.81392E+05
 0.13867000E+03  0.91761E+05
 0.13872000E+03  0.97623E+05
 0.13877000E+03  0.10257E+06
 0.13881999E+03  0.11307E+06
 0.13887000E+03  0.12900E+06
 0.13892000E+03  0.14616E+06
 0.13897000E+03  0.16300E+06
 0.13902000E+03  0.18046E+06
 0.13906999E+03  0.19864E+06
 0.13912000E+03  0.21780E+06
 0.13917000E+03  0.24061E+06
 0.13922000E+03  0.26759E+06
 0.13927000E+03  0.29658E+06
 0.13931999E+03  0.32448E+06
 0.13937000E+03  0.34724E+06
 0.13942000E+03  0.36150E+06
 0.13947000E+03  0.36551E+06
 0.13952000E+03  0.35957E+06
 0.13956999E+03  0.34420E+06
 0.13962000E+03  0.32060E+06
 0.13967000E+03  0.29305E+06
 0.13972000E+03  0.26700E+06
 0.13977000E+03  0.24456E+06
 0.13981999E+03  0.22377E+06
 0.13987000E+03  0.20341E+06
 0.13992000E+03  0.18184E+06
 0.13997000E+03  0.15577E+06
 0.14002000E+03  0.12397E+06
 0.14006999E+03  0.88151E+05
 0.14012000E+03  0.50471E+05
 0.14017000E+03  0.11062E+05
 0.14022000E+03 -0.27923E+05
 0.14027000E+03 -0.62591E+05
 0.14031999E+03 -0.92807E+05
 0.14037000E+03 -0.12092E+06
 0.14042000E+03 -0.14796E+06
 0.14047000E+03 -0.17428E+06
 0.14052000E+03 -0.20174E+06
 0.14056999E+03 -0.23096E+06
 0.14062000E+03 -0.26043E+06
 0.14067000E+03 -0.28861E+06
 0.14072000E+03 -0.31296E+06
 0.14077000E+03 -0.33131E+06
 0.14081999E+03 -0.34306E+06
 0.14087000E+03 -0.34834E+06
 0.14092000E+03 -0.34661E+06
 0.14097000E+03 -0.33820E+06
 0.14102000E+03 -0.32735E+06
 0.14106999E+03 -0.31567E+06
 0.14112000E+03 -0.29904E+06
 0.14117000E+03 -0.27487E+06
 0.14122000E+03 -0.24419E+06
 0.14127000E+03 -0.20703E+06
 0.14131999E+03 -0.16317E+06
 0.14137000E+03 -0.11629E+06
 0.14142000E+03 -0.71769E+05
 0.14147000E+03 -0.32928E+05
 0.14152000E+03  0.14800E+03
 0.14156999E+03  0.27932E+05
 0.14162000E+03  0.51475E+05
 0.14167000E+03  0.74223E+05
 0.14172000E+03  0.99472E+05
 0.14177000E+03  0.12831E+06
 0.14181999E+03  0.15756E+06
 0.14187000E+03  0.18193E+06
 0.14192000E+03  0.19863E+06
 0.14197000E+03  0.20948E+06
 0.14202000E+03  0.21753E+06
 0.14206999E+03  0.22243E+06
 0.14212000E+03  0.22363E+06
 0.14217000E+03  0.22187E+06
 0.14222000E+03  0.21573E+06
 0.14227000E+03  0.20148E+06
 0.14231999E+03  0.17714E+06
 0.14237000E+03  0.14327E+06
 0.14242000E+03  0.10128E+06
 0.14247000E+03  0.53709E+05
 0.14252000E+03  0.50140E+04
 0.14256999E+03 -0.38720E+05
 0.14262000E+03 -0.75740E+05
 0.14267000E+03 -0.10802E+06
 0.14272000E+03 -0.13481E+06
 0.14277000E+03 -0.15418E+06
 0.14281999E+03 -0.16517E+06
 0.14287000E+03 -0.16906E+06
 0.14292000E+03 -0.16773E+06
 0.14297000E+03 -0.16166E+06
 0.14302000E+03 -0.15302E+06
 0.14306999E+03 -0.14387E+06
 0.14312000E+03 -0.13401E+06
 0.14317000E+03 -0.12425E+06
 0.14322000E+03 -0.11652E+06
 0.14327000E+03 -0.11246E+06
 0.14331999E+03 -0.11220E+06
 0.14337000E+03 -0.11242E+06
 0.14342000E+03 -0.10883E+06
 0.14347000E+03 -0.99638E+05
 0.14352000E+03 -0.85515E+05
 0.14356999E+03 -0.69402E+05
 0.14362000E+03 -0.53872E+05
 0.14367000E+03 -0.38126E+05
 0.14372000E+03 -0.20778E+05
 0.14377000E+03 -0.26910E+04
 0.14381999E+03  0.15134E+05
 0.14387000E+03  0.33302E+05
 0.14392000E+03  0.51345E+05
 0.14397000E+03  0.67917E+05
 0.14402000E+03  0.85276E+05
 0.14406999E+03  0.10760E+06
 0.14412000E+03  0.13366E+06
 0.14417000E+03  0.15812E+06
 0.14422000E+03  0.17972E+06
 0.14427000E+03  0.20164E+06
 0.14431999E+03  0.22749E+06
 0.14437000E+03  0.25797E+06
 0.14442000E+03  0.29052E+06
 0.14447000E+03  0.32180E+06
 0.14452000E+03  0.34828E+06
 0.14456999E+03  0.36685E+06
 0.14462000E+03  0.37507E+06
 0.14467000E+03  0.37228E+06
 0.14472000E+03  0.36239E+06
 0.14477000E+03  0.35133E+06
 0.14481999E+03  0.34183E+06
 0.14487000E+03  0.33318E+06
 0.14492000E+03  0.32418E+06
 0.14497000E+03  0.31390E+06
 0.14502000E+03  0.30078E+06
 0.14506999E+03  0.28428E+06
 0.14512000E+03  0.26506E+06
 0.14517000E+03  0.24213E+06
 0.14522000E+03  0.21404E+06
 0.14527000E+03  0.18270E+06
 0.14531999E+03  0.15396E+06
 0.14537000E+03  0.13278E+06
 0.14542000E+03  0.11814E+06
 0.14547000E+03  0.10441E+06
 0.14552000E+03  0.87964E+05
 0.14556999E+03  0.70668E+05
 0.14562000E+03  0.56000E+05
 0.14567000E+03  0.43763E+05
 0.14572000E+03  0.31757E+05
 0.14577000E+03  0.19605E+05
 0.14581999E+03  0.74370E+04
 0.14587000E+03 -0.58260E+04
 0.14592000E+03 -0.23571E+05
 0.14597000E+03 -0.49826E+05
 0.14602000E+03 -0.85126E+05
 0.14606999E+03 -0.12506E+06
 0.14612000E+03 -0.16472E+06
 0.14617000E+03 -0.20325E+06
 0.14622000E+03 -0.24068E+06
 0.14627000E+03 -0.27436E+06
 0.14631999E+03 -0.30083E+06
 0.14637000E+03 -0.31844E+06
 0.14642000E+03 -0.32637E+06
 0.14647000E+03 -0.32568E+06
 0.14652000E+03 -0.31971E+06
 0.14656999E+03 -0.31215E+06
 0.14662000E+03 -0.30514E+06
 0.14667000E+03 -0.29832E+06
 0.14672000E+03 -0.29148E+06
 0.14677000E+03 -0.28334E+06
 0.14681999E+03 -0.27166E+06
 0.14687000E+03 -0.25533E+06
 0.14692000E+03 -0.23462E+06
 0.14697000E+03 -0.20980E+06
 0.14702000E+03 -0.18067E+06
 0.14706999E+03 -0.14938E+06
 0.14712000E+03 -0.11845E+06
 0.14717000E+03 -0.88957E+05
 0.14722000E+03 -0.61607E+05
 0.14727000E+03 -0.37842E+05
 0.14731999E+03 -0.18233E+05
 0.14737000E+03 -0.10270E+04
 0.14742000E+03  0.15150E+05
 0.14747000E+03  0.30680E+05
 0.14752000E+03  0.46094E+05
 0.14756999E+03  0.62338E+05
 0.14762000E+03  0.79858E+05
 0.14767000E+03  0.97529E+05
 0.14772000E+03  0.11284E+06
 0.14777000E+03  0.12396E+06
 0.14781999E+03  0.13108E+06
 0.14787000E+03  0.13479E+06
 0.14792000E+03  0.13587E+06
 0.14797000E+03  0.13612E+06
 0.14802000E+03  0.13724E+06
 0.14806999E+03  0.13968E+06
 0.14812000E+03  0.14250E+06
 0.14817000E+03  0.14431E+06
 0.14822000E+03  0.14347E+06
 0.14827000E+03  0.13914E+06
 0.14831999E+03  0.13323E+06
 0.14837000E+03  0.12755E+06
 0.14842000E+03  0.12191E+06
 0.14847000E+03  0.11469E+06
 0.14852000E+03  0.10446E+06
 0.14856999E+03  0.91202E+05
 0.14862000E+03  0.75399E+05
 0.14867000E+03  0.59104E+05
 0.14872000E+03  0.46149E+05
 0.14877000E+03  0.40564E+05
 0.14881999E+03  0.43337E+05
 0.14887000E+03  0.51122E+05
 0.14892000E+03  0.59483E+05
 0.14897000E+03  0.64403E+05
 0.14902000E+03  0.62438E+05
 0.14906999E+03  0.52504E+05
