-0.38800001E+01  0.35764E+05
-0.38300002E+01  0.36986E+05
-0.37800002E+01  0.36507E+05
-0.37300000E+01  0.34412E+05
-0.36800001E+01  0.30900E+05
-0.36300001E+01  0.26515E+05
-0.35800002E+01  0.21819E+05
-0.35300002E+01  0.16021E+05
-0.34800000E+01  0.96770E+04
-0.34300001E+01  0.37700E+04
-0.33800001E+01 -0.26950E+04
-0.33300002E+01 -0.11276E+05
-0.32800002E+01 -0.22656E+05
-0.32300000E+01 -0.35536E+05
-0.31800001E+01 -0.48870E+05
-0.31300001E+01 -0.62914E+05
-0.30800002E+01 -0.77456E+05
-0.30300002E+01 -0.91538E+05
-0.29800000E+01 -0.10412E+06
-0.29300001E+01 -0.11456E+06
-0.28800001E+01 -0.12256E+06
-0.28299999E+01 -0.12843E+06
-0.27800002E+01 -0.13282E+06
-0.27300000E+01 -0.13548E+06
-0.26800001E+01 -0.13537E+06
-0.26300001E+01 -0.13265E+06
-0.25799999E+01 -0.12848E+06
-0.25300002E+01 -0.12353E+06
-0.24800000E+01 -0.11796E+06
-0.24300001E+01 -0.11120E+06
-0.23800001E+01 -0.10298E+06
-0.23299999E+01 -0.93574E+05
-0.22800002E+01 -0.83974E+05
-0.22300000E+01 -0.76464E+05
-0.21800001E+01 -0.72140E+05
-0.21300001E+01 -0.69874E+05
-0.20799999E+01 -0.68270E+05
-0.20300002E+01 -0.66600E+05
-0.19800001E+01 -0.64901E+05
-0.19300001E+01 -0.62723E+05
-0.18800001E+01 -0.59707E+05
-0.18300002E+01 -0.56785E+05
-0.17800000E+01 -0.54941E+05
-0.17300000E+01 -0.54037E+05
-0.16800001E+01 -0.53525E+05
-0.16300001E+01 -0.52400E+05
-0.15800002E+01 -0.49620E+05
-0.15300000E+01 -0.46784E+05
-0.14800000E+01 -0.45710E+05
-0.14300001E+01 -0.45929E+05
-0.13800001E+01 -0.46314E+05
-0.13300002E+01 -0.45966E+05
-0.12800000E+01 -0.43238E+05
-0.12300000E+01 -0.37633E+05
-0.11800001E+01 -0.31186E+05
-0.11300001E+01 -0.24926E+05
-0.10800002E+01 -0.19000E+05
-0.10300000E+01 -0.13597E+05
-0.98000002E+00 -0.84400E+04
-0.93000007E+00 -0.33060E+04
-0.88000011E+00  0.11160E+04
-0.83000016E+00  0.44950E+04
-0.77999997E+00  0.81620E+04
-0.73000002E+00  0.12948E+05
-0.68000007E+00  0.18417E+05
-0.63000011E+00  0.23346E+05
-0.58000016E+00  0.27007E+05
-0.52999997E+00  0.30684E+05
-0.48000002E+00  0.35185E+05
-0.43000007E+00  0.39734E+05
-0.38000011E+00  0.44968E+05
-0.33000016E+00  0.51985E+05
-0.27999997E+00  0.59790E+05
-0.23000002E+00  0.66504E+05
-0.18000007E+00  0.71025E+05
-0.13000011E+00  0.73620E+05
-0.80000162E-01  0.75313E+05
-0.29999971E-01  0.75687E+05
 0.19999981E-01  0.73897E+05
 0.69999933E-01  0.70868E+05
 0.11999989E+00  0.67979E+05
 0.17000008E+00  0.66354E+05
 0.21999979E+00  0.66903E+05
 0.26999998E+00  0.69951E+05
 0.32000017E+00  0.74671E+05
 0.36999989E+00  0.79784E+05
 0.42000008E+00  0.84344E+05
 0.46999979E+00  0.87773E+05
 0.51999998E+00  0.89946E+05
 0.57000017E+00  0.90134E+05
 0.61999989E+00  0.88574E+05
 0.67000008E+00  0.86241E+05
 0.71999979E+00  0.83404E+05
 0.76999998E+00  0.81014E+05
 0.82000017E+00  0.79140E+05
 0.86999989E+00  0.77189E+05
 0.92000008E+00  0.75226E+05
 0.96999979E+00  0.73022E+05
 0.10200000E+01  0.70707E+05
 0.10700002E+01  0.68078E+05
 0.11199999E+01  0.65232E+05
 0.11700001E+01  0.63170E+05
 0.12199998E+01  0.61719E+05
 0.12700000E+01  0.60502E+05
 0.13200002E+01  0.58184E+05
 0.13699999E+01  0.53187E+05
 0.14200001E+01  0.46592E+05
 0.14699998E+01  0.39083E+05
 0.15200000E+01  0.30667E+05
 0.15700002E+01  0.22326E+05
 0.16199999E+01  0.14692E+05
 0.16700001E+01  0.79080E+04
 0.17199998E+01  0.83000E+03
 0.17700000E+01 -0.72990E+04
 0.18200002E+01 -0.16136E+05
 0.18699999E+01 -0.26023E+05
 0.19200001E+01 -0.36333E+05
 0.19699998E+01 -0.46706E+05
 0.20200000E+01 -0.57441E+05
 0.20700002E+01 -0.67465E+05
 0.21199999E+01 -0.76020E+05
 0.21700001E+01 -0.83277E+05
 0.22199998E+01 -0.89656E+05
 0.22700000E+01 -0.95676E+05
 0.23200002E+01 -0.10150E+06
 0.23699999E+01 -0.10675E+06
 0.24200001E+01 -0.11098E+06
 0.24699998E+01 -0.11408E+06
 0.25200000E+01 -0.11542E+06
 0.25700002E+01 -0.11462E+06
 0.26199999E+01 -0.11285E+06
 0.26700001E+01 -0.11150E+06
 0.27199998E+01 -0.11075E+06
 0.27700000E+01 -0.10963E+06
 0.28200002E+01 -0.10743E+06
 0.28699999E+01 -0.10392E+06
 0.29200001E+01 -0.98578E+05
 0.29699998E+01 -0.91005E+05
 0.30200000E+01 -0.81782E+05
 0.30700002E+01 -0.71873E+05
 0.31199999E+01 -0.62254E+05
 0.31700001E+01 -0.54989E+05
 0.32199998E+01 -0.50976E+05
 0.32700000E+01 -0.48638E+05
 0.33200002E+01 -0.46164E+05
 0.33699999E+01 -0.43065E+05
 0.34200001E+01 -0.40730E+05
 0.34699998E+01 -0.39599E+05
 0.35200000E+01 -0.39362E+05
 0.35700002E+01 -0.40578E+05
 0.36199999E+01 -0.42100E+05
 0.36700001E+01 -0.42318E+05
 0.37199998E+01 -0.41440E+05
 0.37700000E+01 -0.40515E+05
 0.38200002E+01 -0.39214E+05
 0.38699999E+01 -0.36390E+05
 0.39200001E+01 -0.31989E+05
 0.39699998E+01 -0.26212E+05
 0.40200000E+01 -0.19562E+05
 0.40700002E+01 -0.13219E+05
 0.41199999E+01 -0.83250E+04
 0.41700001E+01 -0.49180E+04
 0.42200003E+01 -0.17250E+04
 0.42700005E+01  0.24670E+04
 0.43199997E+01  0.82230E+04
 0.43699999E+01  0.15025E+05
 0.44200001E+01  0.21630E+05
 0.44700003E+01  0.27943E+05
 0.45200005E+01  0.34260E+05
 0.45699997E+01  0.40616E+05
 0.46199999E+01  0.46771E+05
 0.46700001E+01  0.52066E+05
 0.47200003E+01  0.56496E+05
 0.47700005E+01  0.60602E+05
 0.48199997E+01  0.65319E+05
 0.48699999E+01  0.70732E+05
 0.49200001E+01  0.75585E+05
 0.49700003E+01  0.79239E+05
 0.50200005E+01  0.81725E+05
 0.50699997E+01  0.83592E+05
 0.51199999E+01  0.85684E+05
 0.51700001E+01  0.87915E+05
 0.52200003E+01  0.90556E+05
 0.52700005E+01  0.93468E+05
 0.53199997E+01  0.95442E+05
 0.53699999E+01  0.96886E+05
 0.54200001E+01  0.97451E+05
 0.54700003E+01  0.95753E+05
 0.55200005E+01  0.92108E+05
 0.55699997E+01  0.86679E+05
 0.56199999E+01  0.80203E+05
 0.56700001E+01  0.74361E+05
 0.57200003E+01  0.68919E+05
 0.57700005E+01  0.62914E+05
 0.58199997E+01  0.56891E+05
 0.58699999E+01  0.51687E+05
 0.59200001E+01  0.47908E+05
 0.59700003E+01  0.45622E+05
 0.60200005E+01  0.44218E+05
 0.60699997E+01  0.43401E+05
 0.61199999E+01  0.42931E+05
 0.61700001E+01  0.42957E+05
 0.62200003E+01  0.43347E+05
 0.62700005E+01  0.43676E+05
 0.63199997E+01  0.43511E+05
 0.63699999E+01  0.41975E+05
 0.64200001E+01  0.39204E+05
 0.64700003E+01  0.35604E+05
 0.65200005E+01  0.31354E+05
 0.65699997E+01  0.27428E+05
 0.66199999E+01  0.24539E+05
 0.66700001E+01  0.22173E+05
 0.67200003E+01  0.18930E+05
 0.67700005E+01  0.13794E+05
 0.68199997E+01  0.69350E+04
 0.68699999E+01 -0.82200E+03
 0.69200001E+01 -0.81450E+04
 0.69700003E+01 -0.14482E+05
 0.70200005E+01 -0.20476E+05
 0.70699997E+01 -0.26771E+05
 0.71199999E+01 -0.33492E+05
 0.71700001E+01 -0.39760E+05
 0.72200003E+01 -0.45343E+05
 0.72700005E+01 -0.51282E+05
 0.73199997E+01 -0.57339E+05
 0.73699999E+01 -0.62481E+05
 0.74200001E+01 -0.66787E+05
 0.74700003E+01 -0.69854E+05
 0.75200005E+01 -0.71444E+05
 0.75699997E+01 -0.72348E+05
 0.76199999E+01 -0.72524E+05
 0.76700001E+01 -0.70958E+05
 0.77200003E+01 -0.68039E+05
 0.77700005E+01 -0.66305E+05
 0.78199997E+01 -0.66021E+05
 0.78699999E+01 -0.65761E+05
 0.79200001E+01 -0.65823E+05
 0.79700003E+01 -0.66676E+05
 0.80200005E+01 -0.67885E+05
 0.80699997E+01 -0.68271E+05
 0.81199999E+01 -0.67492E+05
 0.81700001E+01 -0.66474E+05
 0.82200003E+01 -0.65773E+05
 0.82700005E+01 -0.65390E+05
 0.83199997E+01 -0.65183E+05
 0.83699999E+01 -0.64889E+05
 0.84200001E+01 -0.63490E+05
 0.84700003E+01 -0.60611E+05
 0.85200005E+01 -0.56826E+05
 0.85699997E+01 -0.51856E+05
 0.86199999E+01 -0.45684E+05
 0.86700001E+01 -0.38782E+05
 0.87200003E+01 -0.31911E+05
 0.87700005E+01 -0.26485E+05
 0.88199997E+01 -0.22662E+05
 0.88699999E+01 -0.19378E+05
 0.89200001E+01 -0.16142E+05
 0.89700003E+01 -0.12966E+05
 0.90200005E+01 -0.96490E+04
 0.90699997E+01 -0.57070E+04
 0.91199999E+01 -0.12420E+04
 0.91700001E+01  0.31380E+04
 0.92200003E+01  0.69510E+04
 0.92700005E+01  0.92920E+04
 0.93199997E+01  0.93990E+04
 0.93699999E+01  0.80220E+04
 0.94200001E+01  0.69750E+04
 0.94700003E+01  0.68020E+04
 0.95200005E+01  0.67830E+04
 0.95699997E+01  0.68330E+04
 0.96199999E+01  0.73940E+04
 0.96700001E+01  0.92820E+04
 0.97200003E+01  0.12287E+05
 0.97700005E+01  0.15325E+05
 0.98199997E+01  0.18237E+05
 0.98699999E+01  0.21060E+05
 0.99200001E+01  0.23904E+05
 0.99700003E+01  0.26396E+05
 0.10020000E+02  0.28312E+05
 0.10070000E+02  0.29430E+05
 0.10120000E+02  0.29031E+05
 0.10170000E+02  0.27843E+05
 0.10220000E+02  0.26671E+05
 0.10270000E+02  0.25530E+05
 0.10320000E+02  0.24242E+05
 0.10370000E+02  0.22504E+05
 0.10420000E+02  0.19826E+05
 0.10470000E+02  0.15715E+05
 0.10520000E+02  0.10797E+05
 0.10570000E+02  0.61860E+04
 0.10620000E+02  0.29570E+04
 0.10670000E+02  0.16410E+04
 0.10720000E+02  0.22170E+04
 0.10770000E+02  0.46370E+04
 0.10820000E+02  0.82180E+04
 0.10870000E+02  0.11720E+05
 0.10920000E+02  0.14372E+05
 0.10970000E+02  0.16431E+05
 0.11020000E+02  0.18046E+05
 0.11070000E+02  0.19439E+05
 0.11120000E+02  0.20671E+05
 0.11170000E+02  0.21308E+05
 0.11220000E+02  0.22319E+05
 0.11270000E+02  0.24117E+05
 0.11320000E+02  0.25294E+05
 0.11370000E+02  0.25689E+05
 0.11420000E+02  0.26099E+05
 0.11470000E+02  0.26328E+05
 0.11520000E+02  0.25632E+05
 0.11570000E+02  0.23568E+05
 0.11620000E+02  0.20900E+05
 0.11670000E+02  0.18112E+05
 0.11720000E+02  0.14496E+05
 0.11770000E+02  0.10761E+05
 0.11820000E+02  0.84520E+04
 0.11870000E+02  0.82200E+04
 0.11920000E+02  0.99950E+04
 0.11970000E+02  0.12837E+05
 0.12020000E+02  0.15920E+05
 0.12070000E+02  0.18831E+05
 0.12120000E+02  0.21686E+05
 0.12170001E+02  0.24704E+05
 0.12220000E+02  0.27499E+05
 0.12270000E+02  0.30377E+05
 0.12320001E+02  0.32860E+05
 0.12370000E+02  0.33742E+05
 0.12420001E+02  0.33110E+05
 0.12470000E+02  0.31235E+05
 0.12520000E+02  0.28879E+05
 0.12570001E+02  0.26823E+05
 0.12620000E+02  0.24912E+05
 0.12670001E+02  0.23005E+05
 0.12720000E+02  0.20584E+05
 0.12770000E+02  0.17083E+05
 0.12820001E+02  0.12521E+05
 0.12870000E+02  0.77430E+04
 0.12920001E+02  0.32960E+04
 0.12970000E+02 -0.18900E+04
 0.13020000E+02 -0.79010E+04
 0.13070001E+02 -0.13940E+05
 0.13120000E+02 -0.19456E+05
 0.13170001E+02 -0.23897E+05
 0.13220000E+02 -0.27548E+05
 0.13270000E+02 -0.30697E+05
 0.13320001E+02 -0.33194E+05
 0.13370000E+02 -0.34469E+05
 0.13420001E+02 -0.34738E+05
 0.13470000E+02 -0.34948E+05
 0.13520000E+02 -0.35876E+05
 0.13570001E+02 -0.38377E+05
 0.13620000E+02 -0.42654E+05
 0.13670001E+02 -0.48227E+05
 0.13720000E+02 -0.53330E+05
 0.13770000E+02 -0.56616E+05
 0.13820001E+02 -0.58903E+05
 0.13870000E+02 -0.61242E+05
 0.13920001E+02 -0.63706E+05
 0.13970000E+02 -0.65782E+05
 0.14020000E+02 -0.67519E+05
 0.14070001E+02 -0.69122E+05
 0.14120000E+02 -0.70253E+05
 0.14170001E+02 -0.70132E+05
 0.14220000E+02 -0.68759E+05
 0.14270000E+02 -0.66459E+05
 0.14320001E+02 -0.62295E+05
 0.14370000E+02 -0.56189E+05
 0.14420001E+02 -0.48728E+05
 0.14470000E+02 -0.41038E+05
 0.14520000E+02 -0.34547E+05
 0.14570001E+02 -0.28833E+05
 0.14620000E+02 -0.23735E+05
 0.14670001E+02 -0.19652E+05
 0.14720000E+02 -0.16873E+05
 0.14770000E+02 -0.15779E+05
 0.14820001E+02 -0.16321E+05
 0.14870000E+02 -0.18992E+05
 0.14920001E+02 -0.23466E+05
 0.14970000E+02 -0.28069E+05
 0.15020000E+02 -0.32004E+05
 0.15070001E+02 -0.35171E+05
 0.15120000E+02 -0.37210E+05
 0.15170001E+02 -0.37453E+05
 0.15220000E+02 -0.35091E+05
 0.15270000E+02 -0.30226E+05
 0.15320001E+02 -0.23407E+05
 0.15370000E+02 -0.15398E+05
 0.15420001E+02 -0.77090E+04
 0.15470000E+02 -0.67300E+03
 0.15520000E+02  0.66770E+04
 0.15570001E+02  0.15120E+05
 0.15620000E+02  0.24561E+05
 0.15670001E+02  0.34227E+05
 0.15720000E+02  0.43470E+05
 0.15770000E+02  0.51485E+05
 0.15820001E+02  0.57740E+05
 0.15870000E+02  0.62538E+05
 0.15920001E+02  0.66051E+05
 0.15970000E+02  0.68218E+05
 0.16020000E+02  0.69390E+05
 0.16070000E+02  0.70219E+05
 0.16119999E+02  0.71939E+05
 0.16170002E+02  0.74782E+05
 0.16220001E+02  0.77412E+05
 0.16270000E+02  0.79395E+05
 0.16320000E+02  0.80759E+05
 0.16369999E+02  0.80952E+05
 0.16420002E+02  0.80108E+05
 0.16470001E+02  0.79154E+05
 0.16520000E+02  0.79269E+05
 0.16570000E+02  0.81025E+05
 0.16619999E+02  0.83413E+05
 0.16670002E+02  0.85109E+05
 0.16720001E+02  0.85612E+05
 0.16770000E+02  0.85501E+05
 0.16820000E+02  0.85156E+05
 0.16869999E+02  0.83789E+05
 0.16920002E+02  0.80369E+05
 0.16970001E+02  0.74568E+05
 0.17020000E+02  0.67387E+05
 0.17070000E+02  0.59762E+05
 0.17119999E+02  0.52413E+05
 0.17170002E+02  0.45464E+05
 0.17220001E+02  0.38172E+05
 0.17270000E+02  0.30283E+05
 0.17320000E+02  0.22170E+05
 0.17369999E+02  0.14131E+05
 0.17420002E+02  0.59540E+04
 0.17470001E+02 -0.25690E+04
 0.17520000E+02 -0.11957E+05
 0.17570000E+02 -0.21892E+05
 0.17619999E+02 -0.31252E+05
 0.17670002E+02 -0.39208E+05
 0.17720001E+02 -0.45695E+05
 0.17770000E+02 -0.51186E+05
 0.17820000E+02 -0.54834E+05
 0.17869999E+02 -0.56168E+05
 0.17920002E+02 -0.56085E+05
 0.17970001E+02 -0.55597E+05
 0.18020000E+02 -0.55546E+05
 0.18070000E+02 -0.56190E+05
 0.18119999E+02 -0.57146E+05
 0.18170002E+02 -0.57862E+05
 0.18220001E+02 -0.58210E+05
 0.18270000E+02 -0.58406E+05
 0.18320000E+02 -0.58776E+05
 0.18369999E+02 -0.59315E+05
 0.18420002E+02 -0.60328E+05
 0.18470001E+02 -0.62045E+05
 0.18520000E+02 -0.63339E+05
 0.18570000E+02 -0.63454E+05
 0.18619999E+02 -0.62974E+05
 0.18670002E+02 -0.62713E+05
 0.18720001E+02 -0.62508E+05
 0.18770000E+02 -0.61816E+05
 0.18820000E+02 -0.61058E+05
 0.18869999E+02 -0.60561E+05
 0.18920002E+02 -0.59607E+05
 0.18970001E+02 -0.57497E+05
 0.19020000E+02 -0.54192E+05
 0.19070000E+02 -0.49905E+05
 0.19119999E+02 -0.45459E+05
 0.19170002E+02 -0.41229E+05
 0.19220001E+02 -0.36716E+05
 0.19270000E+02 -0.31950E+05
 0.19320000E+02 -0.27156E+05
 0.19369999E+02 -0.22391E+05
 0.19420002E+02 -0.17460E+05
 0.19470001E+02 -0.12010E+05
 0.19520000E+02 -0.58940E+04
 0.19570000E+02  0.48600E+03
 0.19619999E+02  0.64770E+04
 0.19670002E+02  0.12087E+05
 0.19720001E+02  0.17959E+05
 0.19770000E+02  0.24579E+05
 0.19820000E+02  0.31685E+05
 0.19869999E+02  0.38871E+05
 0.19920002E+02  0.45561E+05
 0.19970001E+02  0.51551E+05
 0.20020000E+02  0.57064E+05
 0.20070000E+02  0.61547E+05
 0.20119999E+02  0.64467E+05
 0.20170002E+02  0.65545E+05
 0.20220001E+02  0.64832E+05
 0.20270000E+02  0.62650E+05
 0.20320000E+02  0.59338E+05
 0.20369999E+02  0.55097E+05
 0.20420002E+02  0.50142E+05
 0.20470001E+02  0.45461E+05
 0.20520000E+02  0.41433E+05
 0.20570000E+02  0.38002E+05
 0.20619999E+02  0.35362E+05
 0.20670002E+02  0.33567E+05
 0.20720001E+02  0.32359E+05
 0.20770000E+02  0.31117E+05
 0.20820000E+02  0.29625E+05
 0.20869999E+02  0.27464E+05
 0.20920002E+02  0.24164E+05
 0.20970001E+02  0.19848E+05
 0.21020000E+02  0.15327E+05
 0.21070000E+02  0.11513E+05
 0.21119999E+02  0.86800E+04
 0.21170002E+02  0.62480E+04
 0.21220001E+02  0.27120E+04
 0.21270000E+02 -0.21260E+04
 0.21320000E+02 -0.71730E+04
 0.21369999E+02 -0.12042E+05
 0.21420002E+02 -0.16731E+05
 0.21470001E+02 -0.21437E+05
 0.21520000E+02 -0.26169E+05
 0.21570000E+02 -0.30392E+05
 0.21619999E+02 -0.33969E+05
 0.21670002E+02 -0.37212E+05
 0.21720001E+02 -0.40432E+05
 0.21770000E+02 -0.43747E+05
 0.21820000E+02 -0.46941E+05
 0.21869999E+02 -0.49039E+05
 0.21920002E+02 -0.49070E+05
 0.21970001E+02 -0.47544E+05
 0.22020000E+02 -0.45164E+05
 0.22070000E+02 -0.42357E+05
 0.22119999E+02 -0.39462E+05
 0.22170002E+02 -0.36606E+05
 0.22220001E+02 -0.33851E+05
 0.22270000E+02 -0.31012E+05
 0.22320000E+02 -0.28811E+05
 0.22369999E+02 -0.28035E+05
 0.22420002E+02 -0.27901E+05
 0.22470001E+02 -0.27165E+05
 0.22520000E+02 -0.25066E+05
 0.22570000E+02 -0.21696E+05
 0.22619999E+02 -0.17437E+05
 0.22670002E+02 -0.12049E+05
 0.22720001E+02 -0.65560E+04
 0.22770000E+02 -0.25000E+04
 0.22820000E+02  0.35000E+02
 0.22869999E+02  0.14620E+04
 0.22920002E+02  0.23090E+04
 0.22970001E+02  0.26020E+04
 0.23020000E+02  0.25290E+04
 0.23070000E+02  0.26450E+04
 0.23119999E+02  0.34180E+04
 0.23170002E+02  0.54200E+04
 0.23220001E+02  0.83290E+04
 0.23270000E+02  0.11329E+05
 0.23320000E+02  0.13538E+05
 0.23369999E+02  0.14314E+05
 0.23420002E+02  0.13746E+05
 0.23470001E+02  0.12384E+05
 0.23520000E+02  0.11379E+05
 0.23570000E+02  0.11242E+05
 0.23619999E+02  0.11251E+05
 0.23670002E+02  0.10574E+05
 0.23720001E+02  0.90820E+04
 0.23770000E+02  0.68470E+04
 0.23820000E+02  0.38960E+04
 0.23869999E+02  0.51800E+03
 0.23920002E+02 -0.28940E+04
 0.23970001E+02 -0.49780E+04
 0.24020000E+02 -0.46990E+04
 0.24070000E+02 -0.28770E+04
 0.24119999E+02 -0.12700E+04
 0.24170002E+02 -0.15780E+04
 0.24220001E+02 -0.46110E+04
 0.24270000E+02 -0.97010E+04
 0.24320000E+02 -0.15319E+05
 0.24369999E+02 -0.20563E+05
 0.24420002E+02 -0.24431E+05
 0.24470001E+02 -0.25820E+05
 0.24520000E+02 -0.24816E+05
 0.24570000E+02 -0.22472E+05
 0.24619999E+02 -0.19868E+05
 0.24670002E+02 -0.17276E+05
 0.24720001E+02 -0.14575E+05
 0.24770000E+02 -0.11930E+05
 0.24820000E+02 -0.94660E+04
 0.24869999E+02 -0.69150E+04
 0.24920002E+02 -0.44270E+04
 0.24970001E+02 -0.26940E+04
 0.25020000E+02 -0.16950E+04
 0.25070000E+02 -0.55200E+03
 0.25119999E+02  0.10170E+04
 0.25170002E+02  0.28920E+04
 0.25220001E+02  0.54250E+04
 0.25270000E+02  0.85580E+04
 0.25320000E+02  0.11728E+05
 0.25369999E+02  0.14487E+05
 0.25420002E+02  0.17011E+05
 0.25470001E+02  0.19376E+05
 0.25520000E+02  0.21107E+05
 0.25570000E+02  0.22381E+05
 0.25619999E+02  0.24232E+05
 0.25670002E+02  0.27266E+05
 0.25720001E+02  0.30791E+05
 0.25770000E+02  0.33999E+05
 0.25820000E+02  0.36534E+05
 0.25869999E+02  0.37857E+05
 0.25920002E+02  0.37977E+05
 0.25970001E+02  0.37667E+05
 0.26020000E+02  0.37342E+05
 0.26070000E+02  0.37319E+05
 0.26119999E+02  0.38076E+05
 0.26170002E+02  0.39197E+05
 0.26220001E+02  0.39748E+05
 0.26270000E+02  0.39158E+05
 0.26320000E+02  0.37215E+05
 0.26369999E+02  0.34218E+05
 0.26420002E+02  0.30851E+05
 0.26470001E+02  0.27569E+05
 0.26520000E+02  0.24415E+05
 0.26570000E+02  0.21295E+05
 0.26619999E+02  0.18357E+05
 0.26670002E+02  0.15916E+05
 0.26720001E+02  0.13536E+05
 0.26770000E+02  0.10460E+05
 0.26820000E+02  0.62660E+04
 0.26869999E+02  0.12240E+04
 0.26920002E+02 -0.34720E+04
 0.26970001E+02 -0.73380E+04
 0.27020000E+02 -0.10781E+05
 0.27070000E+02 -0.14134E+05
 0.27119999E+02 -0.17116E+05
 0.27170002E+02 -0.18773E+05
 0.27220001E+02 -0.19111E+05
 0.27270000E+02 -0.19248E+05
 0.27320000E+02 -0.20154E+05
 0.27369999E+02 -0.21822E+05
 0.27420002E+02 -0.23678E+05
 0.27470001E+02 -0.25683E+05
 0.27520000E+02 -0.27716E+05
 0.27570000E+02 -0.29588E+05
 0.27619999E+02 -0.31374E+05
 0.27670002E+02 -0.33093E+05
 0.27720001E+02 -0.34965E+05
 0.27770000E+02 -0.37001E+05
 0.27820000E+02 -0.38919E+05
 0.27869999E+02 -0.40989E+05
 0.27920002E+02 -0.43543E+05
 0.27970001E+02 -0.45910E+05
 0.28020000E+02 -0.47830E+05
 0.28070000E+02 -0.49812E+05
 0.28119999E+02 -0.52106E+05
 0.28169998E+02 -0.54682E+05
 0.28220001E+02 -0.56749E+05
 0.28270000E+02 -0.57791E+05
 0.28320000E+02 -0.57571E+05
 0.28369999E+02 -0.55461E+05
 0.28419998E+02 -0.51679E+05
 0.28470001E+02 -0.46867E+05
 0.28520000E+02 -0.41693E+05
 0.28570000E+02 -0.36916E+05
 0.28619999E+02 -0.32906E+05
 0.28669998E+02 -0.29753E+05
 0.28720001E+02 -0.27297E+05
 0.28770000E+02 -0.25256E+05
 0.28820000E+02 -0.23486E+05
 0.28869999E+02 -0.21711E+05
 0.28919998E+02 -0.19419E+05
 0.28970001E+02 -0.16416E+05
 0.29020000E+02 -0.12690E+05
 0.29070000E+02 -0.80660E+04
 0.29119999E+02 -0.24290E+04
 0.29169998E+02  0.41960E+04
 0.29220001E+02  0.11351E+05
 0.29270000E+02  0.18427E+05
 0.29320000E+02  0.25244E+05
 0.29369999E+02  0.31770E+05
 0.29419998E+02  0.37473E+05
 0.29470001E+02  0.41278E+05
 0.29520000E+02  0.42674E+05
 0.29570000E+02  0.41784E+05
 0.29619999E+02  0.38989E+05
 0.29669998E+02  0.35498E+05
 0.29720001E+02  0.32310E+05
 0.29770000E+02  0.29573E+05
 0.29820000E+02  0.27422E+05
 0.29869999E+02  0.26081E+05
 0.29919998E+02  0.25814E+05
 0.29970001E+02  0.26293E+05
 0.30020000E+02  0.27247E+05
 0.30070000E+02  0.28675E+05
 0.30119999E+02  0.29921E+05
 0.30169998E+02  0.30904E+05
 0.30220001E+02  0.32242E+05
 0.30270000E+02  0.34276E+05
 0.30320000E+02  0.36838E+05
 0.30369999E+02  0.39821E+05
 0.30419998E+02  0.42744E+05
 0.30470001E+02  0.45355E+05
 0.30520000E+02  0.48348E+05
 0.30570000E+02  0.51773E+05
 0.30619999E+02  0.55434E+05
 0.30669998E+02  0.58712E+05
 0.30720001E+02  0.61403E+05
 0.30770000E+02  0.63903E+05
 0.30820000E+02  0.65514E+05
 0.30869999E+02  0.65359E+05
 0.30919998E+02  0.63173E+05
 0.30970001E+02  0.59651E+05
 0.31020000E+02  0.55192E+05
 0.31070000E+02  0.49789E+05
 0.31119999E+02  0.43273E+05
 0.31169998E+02  0.35455E+05
 0.31220001E+02  0.27500E+05
 0.31270000E+02  0.20189E+05
 0.31320000E+02  0.13442E+05
 0.31369999E+02  0.73880E+04
 0.31419998E+02  0.23250E+04
 0.31470001E+02 -0.16550E+04
 0.31520000E+02 -0.48240E+04
 0.31570000E+02 -0.76950E+04
 0.31619999E+02 -0.10315E+05
 0.31669998E+02 -0.11948E+05
 0.31720001E+02 -0.12444E+05
 0.31770000E+02 -0.12374E+05
 0.31820000E+02 -0.12616E+05
 0.31869999E+02 -0.13342E+05
 0.31919998E+02 -0.14092E+05
 0.31970001E+02 -0.14883E+05
 0.32020000E+02 -0.16032E+05
 0.32070000E+02 -0.18301E+05
 0.32119999E+02 -0.21855E+05
 0.32169998E+02 -0.26261E+05
 0.32220001E+02 -0.31313E+05
 0.32270000E+02 -0.36262E+05
 0.32320000E+02 -0.40567E+05
 0.32369999E+02 -0.44219E+05
 0.32419998E+02 -0.47180E+05
 0.32470001E+02 -0.49806E+05
 0.32520000E+02 -0.52683E+05
 0.32570000E+02 -0.55917E+05
 0.32619999E+02 -0.59311E+05
 0.32669998E+02 -0.63069E+05
 0.32720001E+02 -0.67127E+05
 0.32770000E+02 -0.70740E+05
 0.32820000E+02 -0.72870E+05
 0.32869999E+02 -0.73113E+05
 0.32919998E+02 -0.72302E+05
 0.32970001E+02 -0.71366E+05
 0.33020000E+02 -0.70675E+05
 0.33070000E+02 -0.70015E+05
 0.33119999E+02 -0.69002E+05
 0.33169998E+02 -0.67312E+05
 0.33220001E+02 -0.64907E+05
 0.33270000E+02 -0.62005E+05
 0.33320000E+02 -0.58657E+05
 0.33369999E+02 -0.54829E+05
 0.33419998E+02 -0.50275E+05
 0.33470001E+02 -0.45122E+05
 0.33520000E+02 -0.39821E+05
 0.33570000E+02 -0.34480E+05
 0.33619999E+02 -0.29271E+05
 0.33669998E+02 -0.24411E+05
 0.33720001E+02 -0.19899E+05
 0.33770000E+02 -0.15424E+05
 0.33820000E+02 -0.11148E+05
 0.33869999E+02 -0.78630E+04
 0.33919998E+02 -0.57390E+04
 0.33970001E+02 -0.45210E+04
 0.34020000E+02 -0.37110E+04
 0.34070000E+02 -0.27940E+04
 0.34119999E+02 -0.15320E+04
 0.34169998E+02  0.20300E+03
 0.34220001E+02  0.19890E+04
 0.34270000E+02  0.36780E+04
 0.34320000E+02  0.50400E+04
 0.34369999E+02  0.54070E+04
 0.34419998E+02  0.52540E+04
 0.34470001E+02  0.54090E+04
 0.34520000E+02  0.60690E+04
 0.34570000E+02  0.73570E+04
 0.34619999E+02  0.97670E+04
 0.34669998E+02  0.13624E+05
 0.34720001E+02  0.18417E+05
 0.34770000E+02  0.23306E+05
 0.34820000E+02  0.27982E+05
 0.34869999E+02  0.32774E+05
 0.34919998E+02  0.37903E+05
 0.34970001E+02  0.43532E+05
 0.35020000E+02  0.49387E+05
 0.35070000E+02  0.54571E+05
 0.35119999E+02  0.58570E+05
 0.35169998E+02  0.61365E+05
 0.35220001E+02  0.63249E+05
 0.35270000E+02  0.64704E+05
 0.35320000E+02  0.65867E+05
 0.35369999E+02  0.66349E+05
 0.35419998E+02  0.65731E+05
 0.35470001E+02  0.63646E+05
 0.35520000E+02  0.60018E+05
 0.35570000E+02  0.55107E+05
 0.35619999E+02  0.49243E+05
 0.35669998E+02  0.43113E+05
 0.35720001E+02  0.37207E+05
 0.35770000E+02  0.31451E+05
 0.35820000E+02  0.25570E+05
 0.35869999E+02  0.19748E+05
 0.35919998E+02  0.14634E+05
 0.35970001E+02  0.10540E+05
 0.36020000E+02  0.70930E+04
 0.36070000E+02  0.34960E+04
 0.36119999E+02 -0.42500E+03
 0.36169998E+02 -0.46270E+04
 0.36220001E+02 -0.88660E+04
 0.36270000E+02 -0.12085E+05
 0.36320000E+02 -0.13800E+05
 0.36369999E+02 -0.14046E+05
 0.36419998E+02 -0.13136E+05
 0.36470001E+02 -0.11652E+05
 0.36520000E+02 -0.95810E+04
 0.36570000E+02 -0.70710E+04
 0.36619999E+02 -0.42060E+04
 0.36669998E+02 -0.78000E+03
 0.36720001E+02  0.30990E+04
 0.36770000E+02  0.71400E+04
 0.36820000E+02  0.10731E+05
 0.36869999E+02  0.13488E+05
 0.36919998E+02  0.15273E+05
 0.36970001E+02  0.16109E+05
 0.37020000E+02  0.16337E+05
 0.37070000E+02  0.16241E+05
 0.37119999E+02  0.16215E+05
 0.37169998E+02  0.16164E+05
 0.37220001E+02  0.15763E+05
 0.37270000E+02  0.15602E+05
 0.37320000E+02  0.16074E+05
 0.37369999E+02  0.16768E+05
 0.37419998E+02  0.16791E+05
 0.37470001E+02  0.15424E+05
 0.37520000E+02  0.13126E+05
 0.37570000E+02  0.10241E+05
 0.37619999E+02  0.65870E+04
 0.37669998E+02  0.22170E+04
 0.37720001E+02 -0.28360E+04
 0.37770000E+02 -0.82390E+04
 0.37820000E+02 -0.13524E+05
 0.37869999E+02 -0.18355E+05
 0.37919998E+02 -0.22455E+05
 0.37970001E+02 -0.25678E+05
 0.38020000E+02 -0.27971E+05
 0.38070000E+02 -0.29574E+05
 0.38119999E+02 -0.30948E+05
 0.38169998E+02 -0.32475E+05
 0.38220001E+02 -0.34081E+05
 0.38270000E+02 -0.35408E+05
 0.38320000E+02 -0.35732E+05
 0.38369999E+02 -0.34342E+05
 0.38419998E+02 -0.31729E+05
 0.38470001E+02 -0.28878E+05
 0.38520000E+02 -0.26474E+05
 0.38570000E+02 -0.24714E+05
 0.38619999E+02 -0.23113E+05
 0.38669998E+02 -0.21381E+05
 0.38720001E+02 -0.19498E+05
 0.38770000E+02 -0.17011E+05
 0.38820000E+02 -0.13619E+05
 0.38869999E+02 -0.97290E+04
 0.38919998E+02 -0.59680E+04
 0.38970001E+02 -0.25180E+04
 0.39020000E+02  0.71700E+03
 0.39070000E+02  0.34280E+04
 0.39119999E+02  0.51300E+04
 0.39169998E+02  0.55790E+04
 0.39220001E+02  0.47330E+04
 0.39270000E+02  0.29820E+04
 0.39320000E+02  0.10710E+04
 0.39369999E+02 -0.48200E+03
 0.39419998E+02 -0.14650E+04
 0.39470001E+02 -0.18390E+04
 0.39520000E+02 -0.16840E+04
 0.39570000E+02 -0.14840E+04
 0.39619999E+02 -0.16100E+04
 0.39669998E+02 -0.15740E+04
 0.39720001E+02 -0.11060E+04
 0.39770000E+02 -0.55700E+03
 0.39820000E+02 -0.27400E+03
 0.39869999E+02 -0.50800E+03
 0.39919998E+02 -0.13600E+04
 0.39970001E+02 -0.26610E+04
 0.40020000E+02 -0.39880E+04
 0.40070000E+02 -0.50540E+04
 0.40119999E+02 -0.56440E+04
 0.40169998E+02 -0.59190E+04
 0.40220001E+02 -0.61530E+04
 0.40270000E+02 -0.60950E+04
 0.40320000E+02 -0.57910E+04
 0.40369999E+02 -0.56260E+04
 0.40419998E+02 -0.58720E+04
 0.40470001E+02 -0.63230E+04
 0.40520000E+02 -0.68300E+04
 0.40570000E+02 -0.75230E+04
 0.40619999E+02 -0.80420E+04
 0.40669998E+02 -0.81820E+04
 0.40720001E+02 -0.80190E+04
 0.40770000E+02 -0.75850E+04
 0.40820000E+02 -0.71270E+04
 0.40869999E+02 -0.66230E+04
 0.40919998E+02 -0.55580E+04
 0.40970001E+02 -0.37440E+04
 0.41020000E+02 -0.13830E+04
 0.41070000E+02  0.11870E+04
 0.41119999E+02  0.36700E+04
 0.41169998E+02  0.61100E+04
 0.41220001E+02  0.82600E+04
 0.41270000E+02  0.98800E+04
 0.41320000E+02  0.11349E+05
 0.41369999E+02  0.12864E+05
 0.41419998E+02  0.14093E+05
 0.41470001E+02  0.14742E+05
 0.41520000E+02  0.14877E+05
 0.41570000E+02  0.14513E+05
 0.41619999E+02  0.13368E+05
 0.41669998E+02  0.11333E+05
 0.41720001E+02  0.88250E+04
 0.41770000E+02  0.63020E+04
 0.41820000E+02  0.38070E+04
 0.41869999E+02  0.14970E+04
 0.41919998E+02 -0.72200E+03
 0.41970001E+02 -0.33320E+04
 0.42020000E+02 -0.65900E+04
 0.42070000E+02 -0.10305E+05
 0.42119999E+02 -0.13599E+05
 0.42169998E+02 -0.16094E+05
 0.42220001E+02 -0.17750E+05
 0.42270000E+02 -0.18429E+05
 0.42320000E+02 -0.18450E+05
 0.42369999E+02 -0.18277E+05
 0.42419998E+02 -0.18458E+05
 0.42470001E+02 -0.19067E+05
 0.42520000E+02 -0.20171E+05
 0.42570000E+02 -0.21591E+05
 0.42619999E+02 -0.22812E+05
 0.42669998E+02 -0.23876E+05
 0.42720001E+02 -0.24924E+05
 0.42770000E+02 -0.26006E+05
 0.42820000E+02 -0.26888E+05
 0.42869999E+02 -0.27472E+05
 0.42919998E+02 -0.27754E+05
 0.42970001E+02 -0.27428E+05
 0.43020000E+02 -0.26602E+05
 0.43070000E+02 -0.25592E+05
 0.43119999E+02 -0.24352E+05
 0.43169998E+02 -0.23222E+05
 0.43220001E+02 -0.22592E+05
 0.43270000E+02 -0.22271E+05
 0.43320000E+02 -0.21949E+05
 0.43369999E+02 -0.21248E+05
 0.43419998E+02 -0.20020E+05
 0.43470001E+02 -0.18408E+05
 0.43520000E+02 -0.16698E+05
 0.43570000E+02 -0.14820E+05
 0.43619999E+02 -0.12430E+05
 0.43669998E+02 -0.99130E+04
 0.43720001E+02 -0.76590E+04
 0.43770000E+02 -0.54430E+04
 0.43820000E+02 -0.27750E+04
 0.43869999E+02  0.89200E+03
 0.43919998E+02  0.50370E+04
 0.43970001E+02  0.86060E+04
 0.44020000E+02  0.11620E+05
 0.44070000E+02  0.14159E+05
 0.44119999E+02  0.15911E+05
 0.44169998E+02  0.16920E+05
 0.44220001E+02  0.17625E+05
 0.44270000E+02  0.18566E+05
 0.44320000E+02  0.19947E+05
 0.44369999E+02  0.21412E+05
 0.44419998E+02  0.22321E+05
 0.44470001E+02  0.22601E+05
 0.44520000E+02  0.22668E+05
 0.44570000E+02  0.23119E+05
 0.44619999E+02  0.24384E+05
 0.44669998E+02  0.26486E+05
 0.44720001E+02  0.29047E+05
 0.44770000E+02  0.31425E+05
 0.44820000E+02  0.33332E+05
 0.44869999E+02  0.34741E+05
 0.44919998E+02  0.35993E+05
 0.44970001E+02  0.37159E+05
 0.45020000E+02  0.37832E+05
 0.45070000E+02  0.38310E+05
 0.45119999E+02  0.38775E+05
 0.45169998E+02  0.38797E+05
 0.45220001E+02  0.37919E+05
 0.45270000E+02  0.36194E+05
 0.45320000E+02  0.33125E+05
 0.45369999E+02  0.28223E+05
 0.45419998E+02  0.22508E+05
 0.45470001E+02  0.16004E+05
 0.45520000E+02  0.10117E+05
 0.45570000E+02  0.23800E+04
 0.45619999E+02 -0.74710E+04
 0.45669998E+02 -0.12826E+05
 0.45720001E+02 -0.80300E+03
 0.45770000E+02  0.28853E+05
 0.45820000E+02  0.44171E+05
 0.45869999E+02  0.28907E+05
 0.45919998E+02 -0.24198E+05
 0.45970001E+02 -0.87158E+05
 0.46020000E+02 -0.13139E+06
 0.46070000E+02 -0.13953E+06
 0.46119999E+02 -0.10435E+06
 0.46169998E+02 -0.93689E+05
 0.46220001E+02 -0.82997E+05
 0.46270000E+02 -0.72945E+05
 0.46320000E+02 -0.57064E+05
 0.46369999E+02  0.47759E+05
 0.46419998E+02  0.13058E+06
 0.46470001E+02  0.13188E+06
 0.46520000E+02  0.10903E+06
 0.46570000E+02  0.17984E+05
 0.46619999E+02 -0.71358E+05
 0.46669998E+02 -0.84034E+05
 0.46720001E+02 -0.86705E+05
 0.46770000E+02 -0.64963E+05
 0.46820000E+02 -0.32829E+05
 0.46869999E+02 -0.19943E+05
 0.46919998E+02  0.16050E+04
 0.46970001E+02  0.28217E+05
 0.47020000E+02  0.15329E+05
 0.47070000E+02  0.17578E+05
 0.47119999E+02  0.30973E+05
 0.47169998E+02  0.25861E+05
 0.47220001E+02  0.31161E+05
 0.47270000E+02 -0.20543E+05
 0.47320000E+02 -0.66740E+04
 0.47369999E+02 -0.24500E+03
 0.47419998E+02 -0.48997E+05
 0.47470001E+02 -0.39817E+05
 0.47520000E+02 -0.36576E+05
 0.47570000E+02  0.38247E+05
 0.47619999E+02  0.49313E+05
 0.47669998E+02 -0.36604E+05
 0.47720001E+02 -0.24787E+05
 0.47770000E+02 -0.22527E+05
 0.47820000E+02 -0.61923E+05
 0.47869999E+02 -0.72737E+05
 0.47919998E+02 -0.10638E+06
 0.47970001E+02 -0.65345E+05
 0.48020000E+02 -0.15441E+05
 0.48070000E+02 -0.48826E+05
 0.48119999E+02 -0.37753E+05
 0.48169998E+02 -0.63904E+05
 0.48220001E+02 -0.40747E+05
 0.48270000E+02  0.39210E+04
 0.48320000E+02 -0.12816E+05
 0.48369999E+02  0.33109E+05
 0.48419998E+02  0.43033E+05
 0.48470001E+02 -0.10440E+04
 0.48520000E+02 -0.35149E+05
 0.48570000E+02  0.11930E+04
 0.48619999E+02  0.33684E+05
 0.48669998E+02  0.51373E+05
 0.48720001E+02  0.82539E+05
 0.48770000E+02  0.29140E+05
 0.48820000E+02  0.80130E+04
 0.48869999E+02 -0.13835E+05
 0.48919998E+02 -0.44608E+05
 0.48970001E+02  0.42430E+04
 0.49020000E+02  0.30844E+05
 0.49070000E+02  0.49090E+05
 0.49119999E+02  0.86417E+05
 0.49169998E+02  0.98872E+05
 0.49220001E+02  0.45504E+05
 0.49270000E+02 -0.97740E+04
 0.49320000E+02 -0.26591E+05
 0.49369999E+02 -0.58521E+05
 0.49419998E+02 -0.58905E+05
 0.49470001E+02  0.36030E+04
 0.49520000E+02  0.46426E+05
 0.49570000E+02  0.13356E+05
 0.49619999E+02  0.33186E+05
 0.49669998E+02  0.55173E+05
 0.49720001E+02  0.25029E+05
 0.49770000E+02  0.16518E+05
 0.49820000E+02 -0.35425E+05
 0.49869999E+02 -0.41751E+05
 0.49919998E+02 -0.11201E+05
 0.49970001E+02 -0.18636E+05
 0.50020000E+02  0.89580E+04
 0.50070000E+02  0.13920E+05
 0.50119999E+02 -0.21303E+05
 0.50169998E+02 -0.14749E+05
 0.50220001E+02 -0.19717E+05
 0.50270000E+02 -0.27995E+05
 0.50320000E+02 -0.16671E+05
 0.50369999E+02 -0.19899E+05
 0.50419998E+02 -0.28340E+05
 0.50470001E+02 -0.49387E+05
 0.50520000E+02 -0.17189E+05
 0.50570000E+02  0.13392E+05
 0.50619999E+02  0.56300E+03
 0.50669998E+02 -0.21240E+04
 0.50720001E+02 -0.21532E+05
 0.50770000E+02 -0.31067E+05
 0.50820000E+02 -0.20283E+05
 0.50869999E+02 -0.78620E+04
 0.50919998E+02  0.45800E+03
 0.50970001E+02 -0.66700E+04
 0.51020000E+02 -0.92540E+04
 0.51070000E+02 -0.87460E+04
 0.51119999E+02 -0.15582E+05
 0.51169998E+02 -0.30670E+05
 0.51220001E+02 -0.58914E+05
 0.51270000E+02 -0.77248E+05
 0.51320000E+02 -0.78503E+05
 0.51369999E+02 -0.61184E+05
 0.51419998E+02 -0.48365E+05
 0.51470001E+02 -0.41868E+05
 0.51520000E+02 -0.85100E+04
 0.51570000E+02  0.10489E+05
 0.51619999E+02  0.72810E+04
 0.51669998E+02 -0.83960E+04
 0.51720001E+02 -0.28486E+05
 0.51770000E+02 -0.16943E+05
 0.51820000E+02 -0.29003E+05
 0.51869999E+02 -0.52104E+05
 0.51919998E+02 -0.38740E+05
 0.51970001E+02 -0.28227E+05
 0.52020000E+02 -0.27157E+05
 0.52070000E+02 -0.35714E+05
 0.52119999E+02 -0.37312E+05
 0.52169998E+02 -0.30882E+05
 0.52220001E+02 -0.55910E+05
 0.52270000E+02 -0.73933E+05
 0.52320000E+02 -0.53989E+05
 0.52369999E+02 -0.17905E+05
 0.52419998E+02  0.20357E+05
 0.52470001E+02  0.17032E+05
 0.52520000E+02  0.16251E+05
 0.52570000E+02  0.13977E+05
 0.52619999E+02 -0.32669E+05
 0.52669998E+02 -0.58787E+05
 0.52720001E+02 -0.57758E+05
 0.52770000E+02 -0.12037E+05
 0.52820000E+02  0.25962E+05
 0.52869999E+02  0.66480E+04
 0.52919998E+02 -0.11772E+05
 0.52970001E+02 -0.27331E+05
 0.53020000E+02 -0.21625E+05
 0.53070000E+02 -0.40114E+05
 0.53119999E+02 -0.55161E+05
 0.53169998E+02  0.10610E+04
 0.53220001E+02  0.12780E+04
 0.53270000E+02 -0.16289E+05
 0.53320000E+02  0.48610E+04
 0.53369999E+02 -0.58200E+03
 0.53419998E+02  0.25855E+05
 0.53470001E+02  0.33561E+05
 0.53520000E+02  0.92030E+04
 0.53570000E+02  0.54410E+04
 0.53619999E+02 -0.15330E+04
 0.53669998E+02  0.18165E+05
 0.53720001E+02  0.37652E+05
 0.53770000E+02  0.65945E+05
 0.53820000E+02  0.78469E+05
 0.53869999E+02  0.33813E+05
 0.53919998E+02 -0.34030E+04
 0.53970001E+02 -0.25420E+04
 0.54020000E+02  0.35399E+05
 0.54070000E+02  0.59552E+05
 0.54119999E+02  0.52438E+05
 0.54169998E+02  0.27751E+05
 0.54220001E+02 -0.58440E+04
 0.54270000E+02  0.57900E+03
 0.54320000E+02  0.21683E+05
 0.54369999E+02  0.23702E+05
 0.54419998E+02  0.25672E+05
 0.54470001E+02  0.37528E+05
 0.54520000E+02  0.38183E+05
 0.54570000E+02  0.17933E+05
 0.54619999E+02  0.75746E+05
 0.54669998E+02  0.15144E+06
 0.54720001E+02  0.15457E+06
 0.54770000E+02  0.18442E+06
 0.54820000E+02  0.19571E+06
 0.54869999E+02  0.15135E+06
 0.54919998E+02  0.11482E+06
 0.54970001E+02  0.62908E+05
 0.55020000E+02  0.15819E+05
 0.55070000E+02 -0.18890E+05
 0.55119999E+02 -0.74541E+05
 0.55169998E+02 -0.95546E+05
 0.55220001E+02 -0.10262E+06
 0.55270000E+02 -0.85085E+05
 0.55320000E+02 -0.18536E+05
 0.55369999E+02  0.18891E+05
 0.55419998E+02  0.49711E+05
 0.55470001E+02  0.58899E+05
 0.55520000E+02  0.35633E+05
 0.55570000E+02 -0.12030E+04
 0.55619999E+02 -0.53077E+05
 0.55669998E+02 -0.66452E+05
 0.55720001E+02 -0.76185E+05
 0.55770000E+02 -0.80667E+05
 0.55820000E+02 -0.62348E+05
 0.55869999E+02 -0.55751E+05
 0.55919998E+02 -0.56580E+04
 0.55970001E+02  0.25467E+05
 0.56020000E+02 -0.26901E+05
 0.56070000E+02 -0.86857E+05
 0.56119999E+02 -0.13841E+06
 0.56169998E+02 -0.15347E+06
 0.56220001E+02 -0.17040E+06
 0.56270000E+02 -0.18250E+06
 0.56320000E+02 -0.93574E+05
 0.56369999E+02 -0.59670E+04
 0.56419998E+02  0.76743E+05
 0.56470001E+02  0.15233E+06
 0.56520000E+02  0.14260E+06
 0.56570000E+02  0.11755E+06
 0.56619999E+02  0.76774E+05
 0.56669998E+02  0.24534E+05
 0.56720001E+02  0.18390E+04
 0.56770000E+02  0.60621E+05
 0.56820000E+02  0.10067E+06
 0.56869999E+02  0.10519E+06
 0.56919998E+02  0.13233E+06
 0.56970001E+02  0.11663E+06
 0.57020000E+02  0.15395E+06
 0.57070000E+02  0.13254E+06
 0.57119999E+02  0.92462E+05
 0.57169998E+02  0.14797E+06
 0.57220001E+02  0.12440E+06
 0.57270000E+02  0.87958E+05
 0.57320000E+02  0.99212E+05
 0.57369999E+02  0.98188E+05
 0.57419998E+02  0.96800E+05
 0.57470001E+02  0.84488E+05
 0.57520000E+02  0.45667E+05
 0.57570000E+02 -0.20590E+05
 0.57619999E+02 -0.12262E+06
 0.57669998E+02 -0.15403E+06
 0.57720001E+02 -0.97010E+05
 0.57770000E+02 -0.20574E+05
 0.57820000E+02  0.81638E+05
 0.57869999E+02  0.13113E+06
 0.57919998E+02  0.13681E+06
 0.57970001E+02  0.14805E+06
 0.58020000E+02  0.13975E+06
 0.58070000E+02  0.10870E+06
 0.58119999E+02  0.80755E+05
 0.58169998E+02  0.41350E+05
 0.58220001E+02  0.21460E+04
 0.58270000E+02  0.19395E+05
 0.58320000E+02  0.45074E+05
 0.58369999E+02  0.73882E+05
 0.58419998E+02  0.87059E+05
 0.58470001E+02  0.48566E+05
 0.58520000E+02  0.43301E+05
 0.58570000E+02  0.63477E+05
 0.58619999E+02  0.67448E+05
 0.58669998E+02  0.10600E+06
 0.58720001E+02  0.12094E+06
 0.58770000E+02  0.98871E+05
 0.58820000E+02  0.64827E+05
 0.58869999E+02  0.31250E+04
 0.58919998E+02 -0.29374E+05
 0.58970001E+02 -0.91551E+05
 0.59020000E+02 -0.11173E+06
 0.59070000E+02 -0.29417E+05
 0.59119999E+02  0.61934E+05
 0.59169998E+02  0.14715E+06
 0.59220001E+02  0.14421E+06
 0.59270000E+02  0.77618E+05
 0.59320000E+02 -0.28425E+05
 0.59369999E+02 -0.16047E+06
 0.59419998E+02 -0.20157E+06
 0.59470001E+02 -0.21667E+06
 0.59520000E+02 -0.30303E+06
 0.59570000E+02 -0.38066E+06
 0.59619999E+02 -0.39936E+06
 0.59669998E+02 -0.41883E+06
 0.59720001E+02 -0.41424E+06
 0.59770000E+02 -0.32605E+06
 0.59820000E+02 -0.16297E+06
 0.59869999E+02  0.76350E+04
 0.59919998E+02  0.80041E+05
 0.59970001E+02  0.70342E+05
 0.60020000E+02  0.15565E+05
 0.60070000E+02 -0.66608E+05
 0.60119999E+02 -0.85782E+05
 0.60170002E+02 -0.41191E+05
 0.60219997E+02  0.21586E+05
 0.60270000E+02  0.58718E+05
 0.60320004E+02  0.36301E+05
 0.60369999E+02 -0.30230E+04
 0.60420002E+02 -0.64996E+05
 0.60469997E+02 -0.13257E+06
 0.60520000E+02 -0.98374E+05
 0.60570004E+02 -0.29730E+04
 0.60619999E+02  0.55963E+05
 0.60670002E+02  0.96872E+05
 0.60719997E+02  0.14808E+06
 0.60770000E+02  0.15488E+06
 0.60820004E+02  0.83828E+05
 0.60869999E+02  0.73172E+05
 0.60920002E+02  0.86096E+05
 0.60969997E+02  0.39837E+05
 0.61020000E+02  0.33626E+05
 0.61070004E+02  0.45175E+05
 0.61119999E+02  0.88282E+05
 0.61170002E+02  0.13488E+06
 0.61219997E+02  0.13098E+06
 0.61270000E+02  0.16967E+06
 0.61320004E+02  0.22998E+06
 0.61369999E+02  0.23576E+06
 0.61420002E+02  0.17424E+06
 0.61469997E+02  0.69959E+05
 0.61520000E+02 -0.12135E+05
 0.61570004E+02 -0.67173E+05
 0.61619999E+02 -0.10048E+06
 0.61670002E+02 -0.90134E+05
 0.61719997E+02 -0.54986E+05
 0.61770000E+02 -0.12627E+05
 0.61820004E+02  0.26946E+05
 0.61869999E+02  0.44063E+05
 0.61920002E+02 -0.24680E+04
 0.61969997E+02 -0.93075E+05
 0.62020000E+02 -0.12273E+06
 0.62070004E+02 -0.51860E+05
 0.62119999E+02  0.62509E+05
 0.62170002E+02  0.13094E+06
 0.62219997E+02  0.14561E+06
 0.62270000E+02  0.18240E+06
 0.62320004E+02  0.21473E+06
 0.62369999E+02  0.18285E+06
 0.62420002E+02  0.17724E+06
 0.62469997E+02  0.23760E+06
 0.62520000E+02  0.24984E+06
 0.62570004E+02  0.19190E+06
 0.62619999E+02  0.13872E+06
 0.62670002E+02  0.88773E+05
 0.62719997E+02  0.63809E+05
 0.62770000E+02  0.84139E+05
 0.62820004E+02  0.87963E+05
 0.62869999E+02  0.80334E+05
 0.62920002E+02  0.67871E+05
 0.62969997E+02  0.57593E+05
 0.63020000E+02  0.18399E+05
 0.63070004E+02 -0.28423E+05
 0.63119999E+02  0.41700E+05
 0.63170002E+02  0.16032E+06
 0.63219997E+02  0.24618E+06
 0.63270000E+02  0.29300E+06
 0.63320004E+02  0.27122E+06
 0.63369999E+02  0.19872E+06
 0.63420002E+02  0.13255E+06
 0.63469997E+02  0.71304E+05
 0.63520000E+02 -0.32359E+05
 0.63570004E+02 -0.10095E+06
 0.63619999E+02 -0.10988E+06
 0.63670002E+02 -0.15056E+06
 0.63719997E+02 -0.18816E+06
 0.63770000E+02 -0.15318E+06
 0.63820004E+02 -0.11427E+06
 0.63869999E+02 -0.10284E+06
 0.63920002E+02 -0.88670E+05
 0.63969997E+02 -0.94972E+05
 0.64020004E+02 -0.83692E+05
 0.64070007E+02 -0.36660E+05
 0.64120003E+02 -0.25325E+05
 0.64170006E+02 -0.40044E+05
 0.64220001E+02 -0.48670E+05
 0.64270004E+02 -0.56415E+05
 0.64320007E+02 -0.46871E+05
 0.64370003E+02 -0.52145E+05
 0.64420006E+02 -0.23150E+05
 0.64470001E+02  0.22430E+05
 0.64520004E+02  0.35691E+05
 0.64570007E+02  0.98790E+05
 0.64620003E+02  0.11172E+06
 0.64670006E+02  0.70581E+05
 0.64720001E+02  0.28735E+05
 0.64770004E+02 -0.25997E+05
 0.64820007E+02 -0.39653E+05
 0.64870003E+02 -0.52703E+05
 0.64920006E+02 -0.70365E+05
 0.64970001E+02 -0.10937E+06
 0.65020004E+02 -0.16246E+06
 0.65070007E+02 -0.18482E+06
 0.65120003E+02 -0.15713E+06
 0.65170006E+02 -0.11476E+06
 0.65220001E+02 -0.80428E+05
 0.65270004E+02 -0.16084E+05
 0.65320007E+02 -0.16583E+05
 0.65370003E+02 -0.47397E+05
 0.65420006E+02 -0.57819E+05
 0.65470001E+02 -0.10363E+06
 0.65520004E+02 -0.13032E+06
 0.65570007E+02 -0.14500E+06
 0.65620003E+02 -0.17585E+06
 0.65670006E+02 -0.18511E+06
 0.65720001E+02 -0.13170E+06
 0.65770004E+02 -0.51544E+05
 0.65820007E+02 -0.17491E+05
 0.65870003E+02 -0.28678E+05
 0.65920006E+02 -0.73240E+05
 0.65970001E+02 -0.15362E+06
 0.66020004E+02 -0.24081E+06
 0.66070007E+02 -0.27270E+06
 0.66120003E+02 -0.21312E+06
 0.66170006E+02 -0.94646E+05
 0.66220001E+02  0.47724E+05
 0.66270004E+02  0.18120E+06
 0.66320007E+02  0.25358E+06
 0.66370003E+02  0.23459E+06
 0.66420006E+02  0.11790E+06
 0.66470001E+02 -0.27448E+05
 0.66520004E+02 -0.84004E+05
 0.66570007E+02 -0.44173E+05
 0.66620003E+02 -0.55060E+04
 0.66670006E+02 -0.14350E+04
 0.66720001E+02  0.21772E+05
 0.66770004E+02  0.86373E+05
 0.66820007E+02  0.12189E+06
 0.66870003E+02  0.11454E+06
 0.66920006E+02  0.91939E+05
 0.66970001E+02  0.24838E+05
 0.67020004E+02 -0.31253E+05
 0.67070007E+02 -0.76169E+05
 0.67120003E+02 -0.14043E+06
 0.67170006E+02 -0.15541E+06
 0.67220001E+02 -0.11113E+06
 0.67270004E+02 -0.20661E+05
 0.67320007E+02  0.69116E+05
 0.67370003E+02  0.80795E+05
 0.67420006E+02  0.33310E+05
 0.67470001E+02  0.10550E+04
 0.67520004E+02  0.31084E+05
 0.67570007E+02  0.86880E+05
 0.67620003E+02  0.92352E+05
 0.67670006E+02  0.69498E+05
 0.67720001E+02  0.60400E+05
 0.67770004E+02  0.52906E+05
 0.67820007E+02  0.67901E+05
 0.67870003E+02  0.79624E+05
 0.67920006E+02  0.49365E+05
 0.67970001E+02  0.31284E+05
 0.68020004E+02  0.25879E+05
 0.68070007E+02 -0.19387E+05
 0.68120003E+02 -0.63352E+05
 0.68170006E+02 -0.77005E+05
 0.68220001E+02 -0.99064E+05
 0.68270004E+02 -0.96392E+05
 0.68320007E+02 -0.81709E+05
 0.68370003E+02 -0.11342E+06
 0.68420006E+02 -0.15265E+06
 0.68470001E+02 -0.18505E+06
 0.68520004E+02 -0.22147E+06
 0.68570007E+02 -0.22483E+06
 0.68620003E+02 -0.20756E+06
 0.68670006E+02 -0.19271E+06
 0.68720001E+02 -0.15567E+06
 0.68770004E+02 -0.12842E+06
 0.68820007E+02 -0.11104E+06
 0.68870003E+02 -0.91008E+05
 0.68920006E+02 -0.99637E+05
 0.68970001E+02 -0.10319E+06
 0.69020004E+02 -0.81726E+05
 0.69070007E+02 -0.57719E+05
 0.69120003E+02 -0.30035E+05
 0.69170006E+02  0.15015E+05
 0.69220001E+02  0.66021E+05
 0.69270004E+02  0.86681E+05
 0.69320007E+02  0.70376E+05
 0.69370003E+02  0.44892E+05
 0.69420006E+02  0.28389E+05
 0.69470001E+02  0.10285E+05
 0.69520004E+02  0.66300E+04
 0.69570007E+02  0.48119E+05
 0.69620003E+02  0.62697E+05
 0.69670006E+02  0.18680E+04
 0.69720001E+02 -0.67372E+05
 0.69770004E+02 -0.10098E+06
 0.69820007E+02 -0.72277E+05
 0.69870003E+02 -0.12377E+05
 0.69920006E+02  0.16447E+05
 0.69970001E+02  0.48361E+05
 0.70020004E+02  0.78798E+05
 0.70070007E+02  0.58802E+05
 0.70120003E+02  0.15456E+05
 0.70170006E+02 -0.11477E+05
 0.70220001E+02  0.99310E+04
 0.70270004E+02  0.80953E+05
 0.70320007E+02  0.13164E+06
 0.70370003E+02  0.14692E+06
 0.70420006E+02  0.16791E+06
 0.70470001E+02  0.16916E+06
 0.70520004E+02  0.12814E+06
 0.70570007E+02  0.90147E+05
 0.70620003E+02  0.10414E+06
 0.70670006E+02  0.14738E+06
 0.70720001E+02  0.16524E+06
 0.70770004E+02  0.12197E+06
 0.70820007E+02  0.45654E+05
 0.70870003E+02 -0.78370E+04
 0.70920006E+02 -0.41359E+05
 0.70970001E+02 -0.67802E+05
 0.71020004E+02 -0.10226E+06
 0.71070007E+02 -0.11233E+06
 0.71120003E+02 -0.11215E+06
 0.71170006E+02 -0.16534E+06
 0.71220001E+02 -0.19755E+06
 0.71270004E+02 -0.16255E+06
 0.71320007E+02 -0.13996E+06
 0.71370003E+02 -0.16179E+06
 0.71420006E+02 -0.18896E+06
 0.71470001E+02 -0.17141E+06
 0.71520004E+02 -0.10396E+06
 0.71570007E+02 -0.50155E+05
 0.71620003E+02 -0.35160E+05
 0.71670006E+02 -0.49314E+05
 0.71720001E+02 -0.83284E+05
 0.71770004E+02 -0.10293E+06
 0.71820007E+02 -0.10260E+06
 0.71870003E+02 -0.11308E+06
 0.71920006E+02 -0.10932E+06
 0.71970001E+02 -0.74488E+05
 0.72020004E+02 -0.53258E+05
 0.72070007E+02 -0.48711E+05
 0.72120003E+02 -0.37912E+05
 0.72170006E+02 -0.28800E+04
 0.72220001E+02  0.33654E+05
 0.72270004E+02  0.47981E+05
 0.72320007E+02  0.48632E+05
 0.72370003E+02  0.33531E+05
 0.72420006E+02 -0.14774E+05
 0.72470001E+02 -0.82054E+05
 0.72520004E+02 -0.12560E+06
 0.72570007E+02 -0.16832E+06
 0.72620003E+02 -0.22349E+06
 0.72670006E+02 -0.24415E+06
 0.72720001E+02 -0.20126E+06
 0.72770004E+02 -0.11911E+06
 0.72820007E+02 -0.17729E+05
 0.72870003E+02  0.74723E+05
 0.72920006E+02  0.10621E+06
 0.72970001E+02  0.96105E+05
 0.73020004E+02  0.68680E+05
 0.73070007E+02 -0.49070E+04
 0.73120003E+02 -0.75383E+05
 0.73170006E+02 -0.70397E+05
 0.73220001E+02 -0.43389E+05
 0.73270004E+02 -0.39611E+05
 0.73320007E+02 -0.58770E+05
 0.73370003E+02 -0.80962E+05
 0.73420006E+02 -0.64310E+05
 0.73470001E+02 -0.41372E+05
 0.73520004E+02 -0.34357E+05
 0.73570007E+02 -0.16889E+05
 0.73620003E+02  0.64960E+04
 0.73670006E+02  0.35025E+05
 0.73720001E+02  0.63190E+05
 0.73770004E+02  0.76219E+05
 0.73820007E+02  0.76495E+05
 0.73870003E+02  0.47280E+05
 0.73920006E+02  0.13280E+05
 0.73970001E+02 -0.13348E+05
 0.74020004E+02 -0.69591E+05
 0.74070007E+02 -0.12251E+06
 0.74120003E+02 -0.12328E+06
 0.74170006E+02 -0.85077E+05
 0.74220001E+02 -0.56434E+05
 0.74270004E+02 -0.41848E+05
 0.74320007E+02 -0.25425E+05
 0.74370003E+02 -0.42290E+04
 0.74420006E+02  0.45408E+05
 0.74470001E+02  0.12606E+06
 0.74520004E+02  0.21083E+06
 0.74570007E+02  0.26498E+06
 0.74620003E+02  0.26852E+06
 0.74670006E+02  0.25100E+06
 0.74720001E+02  0.24781E+06
 0.74770004E+02  0.25037E+06
 0.74820007E+02  0.22570E+06
 0.74870003E+02  0.15460E+06
 0.74920006E+02  0.10929E+06
 0.74970001E+02  0.13329E+06
 0.75020004E+02  0.15245E+06
 0.75070007E+02  0.15249E+06
 0.75120003E+02  0.15744E+06
 0.75170006E+02  0.15037E+06
 0.75220001E+02  0.11376E+06
 0.75270004E+02  0.58145E+05
 0.75320007E+02  0.18324E+05
 0.75370003E+02  0.17241E+05
 0.75420006E+02  0.26502E+05
 0.75470001E+02 -0.18663E+05
 0.75520004E+02 -0.93511E+05
 0.75570007E+02 -0.13840E+06
 0.75620003E+02 -0.16511E+06
 0.75670006E+02 -0.16649E+06
 0.75720001E+02 -0.12217E+06
 0.75770004E+02 -0.61866E+05
 0.75820007E+02 -0.11600E+05
 0.75870003E+02  0.20610E+05
 0.75920006E+02  0.29964E+05
 0.75970001E+02  0.66509E+05
 0.76020004E+02  0.11838E+06
 0.76070007E+02  0.13337E+06
 0.76120003E+02  0.14180E+06
 0.76170006E+02  0.11717E+06
 0.76220001E+02  0.45714E+05
 0.76270004E+02 -0.95100E+04
 0.76320007E+02 -0.71000E+02
 0.76370003E+02  0.61191E+05
 0.76420006E+02  0.10887E+06
 0.76470001E+02  0.10382E+06
 0.76520004E+02  0.35969E+05
 0.76570007E+02 -0.35911E+05
 0.76620003E+02 -0.54057E+05
 0.76670006E+02 -0.53001E+05
 0.76720001E+02 -0.48504E+05
 0.76770004E+02 -0.28083E+05
 0.76820007E+02 -0.35535E+05
 0.76870003E+02 -0.54741E+05
 0.76920006E+02 -0.52667E+05
 0.76970001E+02 -0.80214E+05
 0.77020004E+02 -0.11529E+06
 0.77070007E+02 -0.11456E+06
 0.77120003E+02 -0.74609E+05
 0.77170006E+02 -0.43380E+05
 0.77220001E+02 -0.47611E+05
 0.77270004E+02 -0.38859E+05
 0.77320007E+02 -0.78280E+04
 0.77370003E+02  0.47557E+05
 0.77420006E+02  0.91895E+05
 0.77470001E+02  0.11811E+06
 0.77520004E+02  0.16509E+06
 0.77570007E+02  0.22254E+06
 0.77620003E+02  0.26692E+06
 0.77670006E+02  0.27560E+06
 0.77720001E+02  0.24661E+06
 0.77770004E+02  0.21600E+06
 0.77820007E+02  0.19942E+06
 0.77870003E+02  0.18577E+06
 0.77920006E+02  0.17166E+06
 0.77970001E+02  0.12234E+06
 0.78020004E+02  0.54329E+05
 0.78070007E+02  0.41478E+05
 0.78120003E+02  0.73296E+05
 0.78170006E+02  0.63744E+05
 0.78220001E+02  0.30954E+05
 0.78270004E+02  0.23431E+05
 0.78320007E+02  0.93450E+04
 0.78370003E+02  0.30510E+04
 0.78420006E+02  0.20383E+05
 0.78470001E+02  0.53635E+05
 0.78520004E+02  0.55829E+05
 0.78570007E+02  0.10318E+05
 0.78620003E+02 -0.46633E+05
 0.78670006E+02 -0.75492E+05
 0.78720001E+02 -0.49187E+05
 0.78770004E+02 -0.20550E+04
 0.78820007E+02  0.58093E+05
 0.78870003E+02  0.13323E+06
 0.78920006E+02  0.21405E+06
 0.78970001E+02  0.24035E+06
 0.79020004E+02  0.23827E+06
 0.79070007E+02  0.27710E+06
 0.79120003E+02  0.26404E+06
 0.79170006E+02  0.16903E+06
 0.79220001E+02  0.69766E+05
 0.79270004E+02 -0.27249E+05
 0.79320007E+02 -0.15288E+06
 0.79370003E+02 -0.21411E+06
 0.79420006E+02 -0.19735E+06
 0.79470001E+02 -0.15249E+06
 0.79520004E+02 -0.68327E+05
 0.79570007E+02  0.18599E+05
 0.79620003E+02  0.12972E+06
 0.79670006E+02  0.23375E+06
 0.79720001E+02  0.30397E+06
 0.79770004E+02  0.34850E+06
 0.79820007E+02  0.33111E+06
 0.79870003E+02  0.25701E+06
 0.79920006E+02  0.10391E+06
 0.79970001E+02 -0.60597E+05
 0.80020004E+02 -0.19257E+06
 0.80070007E+02 -0.33303E+06
 0.80120003E+02 -0.38123E+06
 0.80170006E+02 -0.38977E+06
 0.80220001E+02 -0.34964E+06
 0.80270004E+02 -0.20460E+06
 0.80320007E+02 -0.13478E+06
 0.80370003E+02 -0.98151E+05
 0.80420006E+02 -0.64964E+05
 0.80470001E+02 -0.43657E+05
 0.80520004E+02 -0.29413E+05
 0.80570007E+02 -0.53933E+05
 0.80620003E+02 -0.91973E+05
 0.80670006E+02 -0.14900E+06
 0.80720001E+02 -0.14881E+06
 0.80770004E+02 -0.17664E+06
 0.80820007E+02 -0.33726E+06
 0.80870003E+02 -0.61048E+06
 0.80920006E+02 -0.82514E+06
 0.80970001E+02 -0.83863E+06
 0.81020004E+02 -0.69833E+06
 0.81070007E+02 -0.41369E+06
 0.81120003E+02 -0.97615E+05
 0.81170006E+02  0.21395E+06
 0.81220001E+02  0.50193E+06
 0.81270004E+02  0.68330E+06
 0.81320007E+02  0.67157E+06
 0.81370003E+02  0.43462E+06
 0.81420006E+02  0.94819E+05
 0.81470001E+02 -0.25789E+06
 0.81520004E+02 -0.45215E+06
 0.81570007E+02 -0.42161E+06
 0.81620003E+02 -0.28022E+06
 0.81670006E+02 -0.13727E+06
 0.81720001E+02 -0.70971E+05
 0.81770004E+02 -0.98430E+04
 0.81820007E+02  0.65886E+05
 0.81870003E+02  0.11829E+06
 0.81920006E+02  0.22838E+06
 0.81970001E+02  0.34698E+06
 0.82020004E+02  0.37488E+06
 0.82070007E+02  0.32079E+06
 0.82120003E+02  0.18904E+06
 0.82170006E+02  0.43684E+05
 0.82220001E+02 -0.58802E+05
 0.82270004E+02 -0.68263E+05
 0.82320007E+02 -0.42250E+04
 0.82370003E+02  0.41410E+04
 0.82420006E+02 -0.12095E+05
 0.82470001E+02  0.45803E+05
 0.82520004E+02  0.11928E+06
 0.82570007E+02  0.11110E+06
 0.82620003E+02  0.51933E+05
 0.82670006E+02 -0.10180E+04
 0.82720001E+02 -0.95884E+05
 0.82770004E+02 -0.23205E+06
 0.82820007E+02 -0.36661E+06
 0.82870003E+02 -0.50914E+06
 0.82920006E+02 -0.58139E+06
 0.82970001E+02 -0.56406E+06
 0.83020004E+02 -0.55743E+06
 0.83070007E+02 -0.51736E+06
 0.83120003E+02 -0.35235E+06
 0.83170006E+02 -0.13202E+06
 0.83220001E+02  0.23604E+05
 0.83270004E+02  0.10155E+06
 0.83320007E+02  0.81345E+05
 0.83370003E+02  0.14820E+05
 0.83420006E+02 -0.26111E+05
 0.83470001E+02 -0.12110E+06
 0.83520004E+02 -0.22441E+06
 0.83570007E+02 -0.23221E+06
 0.83620003E+02 -0.12619E+06
 0.83670006E+02  0.15322E+05
 0.83720001E+02  0.53186E+05
 0.83770004E+02  0.29005E+05
 0.83820007E+02  0.21757E+05
 0.83870003E+02 -0.98630E+04
 0.83920006E+02 -0.53934E+05
 0.83970001E+02 -0.79825E+05
 0.84020004E+02 -0.70553E+05
 0.84070007E+02  0.57993E+05
 0.84120003E+02  0.22725E+06
 0.84170006E+02  0.26678E+06
 0.84220001E+02  0.23763E+06
 0.84270004E+02  0.23088E+06
 0.84320007E+02  0.23113E+06
 0.84370003E+02  0.19498E+06
 0.84420006E+02  0.14770E+06
 0.84470001E+02  0.17250E+06
 0.84520004E+02  0.26062E+06
 0.84570007E+02  0.31155E+06
 0.84620003E+02  0.21311E+06
 0.84670006E+02  0.44000E+05
 0.84720001E+02 -0.61384E+05
 0.84770004E+02 -0.12331E+06
 0.84820007E+02 -0.14903E+06
 0.84870003E+02 -0.10039E+06
 0.84920006E+02 -0.12302E+05
 0.84970001E+02  0.95005E+05
 0.85020004E+02  0.19702E+06
 0.85070007E+02  0.18920E+06
 0.85120003E+02  0.13255E+06
 0.85170006E+02  0.12585E+06
 0.85220001E+02  0.99532E+05
 0.85270004E+02  0.15035E+05
 0.85320007E+02 -0.47108E+05
 0.85370003E+02 -0.31647E+05
 0.85420006E+02  0.18113E+05
 0.85470001E+02  0.83927E+05
 0.85520004E+02  0.99775E+05
 0.85570007E+02  0.50783E+05
 0.85620003E+02 -0.15333E+05
 0.85670006E+02 -0.11744E+06
 0.85720001E+02 -0.15827E+06
 0.85770004E+02 -0.11531E+06
 0.85820007E+02 -0.60853E+05
 0.85870003E+02  0.84000E+03
 0.85920006E+02  0.63271E+05
 0.85970001E+02  0.50602E+05
 0.86020004E+02 -0.33826E+05
 0.86070007E+02 -0.79140E+05
 0.86120003E+02 -0.11700E+06
 0.86170006E+02 -0.12265E+06
 0.86220001E+02 -0.36686E+05
 0.86270004E+02  0.47391E+05
 0.86320007E+02  0.36357E+05
 0.86370003E+02 -0.44946E+05
 0.86420006E+02 -0.86811E+05
 0.86470001E+02 -0.53515E+05
 0.86520004E+02  0.33884E+05
 0.86570007E+02  0.16178E+06
 0.86620003E+02  0.24164E+06
 0.86670006E+02  0.23354E+06
 0.86720001E+02  0.22159E+06
 0.86770004E+02  0.22320E+06
 0.86820007E+02  0.18668E+06
 0.86870003E+02  0.10893E+06
 0.86920006E+02  0.44493E+05
 0.86970001E+02  0.11530E+04
 0.87020004E+02 -0.55111E+05
 0.87070007E+02 -0.68633E+05
 0.87120003E+02 -0.51840E+04
 0.87170006E+02  0.65920E+05
 0.87220001E+02  0.10456E+06
 0.87270004E+02  0.10966E+06
 0.87320007E+02  0.91645E+05
 0.87370003E+02  0.84941E+05
 0.87420006E+02  0.11481E+06
 0.87470001E+02  0.14508E+06
 0.87520004E+02  0.15934E+06
 0.87570007E+02  0.18588E+06
 0.87620003E+02  0.19169E+06
 0.87670006E+02  0.17539E+06
 0.87720001E+02  0.14915E+06
 0.87770004E+02  0.13319E+06
 0.87820007E+02  0.15878E+06
 0.87870003E+02  0.15797E+06
 0.87920006E+02  0.96522E+05
 0.87970001E+02  0.97820E+04
 0.88020004E+02  0.12462E+05
 0.88070007E+02  0.10882E+06
 0.88120003E+02  0.15982E+06
 0.88170006E+02  0.19091E+06
 0.88220001E+02  0.22873E+06
 0.88270004E+02  0.25668E+06
 0.88320007E+02  0.25467E+06
 0.88370003E+02  0.20648E+06
 0.88420006E+02  0.12495E+06
 0.88470001E+02  0.28867E+05
 0.88520004E+02  0.16050E+05
 0.88570007E+02  0.51807E+05
 0.88620003E+02  0.64745E+05
 0.88670006E+02  0.88991E+05
 0.88720001E+02  0.12548E+06
 0.88770004E+02  0.16191E+06
 0.88820007E+02  0.15987E+06
 0.88870003E+02  0.88262E+05
 0.88920006E+02 -0.39426E+05
 0.88970001E+02 -0.16829E+06
 0.89020004E+02 -0.27348E+06
 0.89070007E+02 -0.35606E+06
 0.89120003E+02 -0.35091E+06
 0.89170006E+02 -0.29835E+06
 0.89220001E+02 -0.25729E+06
 0.89270004E+02 -0.16762E+06
 0.89320007E+02 -0.94287E+05
 0.89370003E+02 -0.90288E+05
 0.89420006E+02 -0.17977E+06
 0.89470001E+02 -0.34102E+06
 0.89520004E+02 -0.42501E+06
 0.89570007E+02 -0.40576E+06
 0.89620003E+02 -0.32654E+06
 0.89670006E+02 -0.27326E+06
 0.89720001E+02 -0.24408E+06
 0.89770004E+02 -0.18294E+06
 0.89820007E+02 -0.17033E+06
 0.89870003E+02 -0.24407E+06
 0.89920006E+02 -0.35254E+06
 0.89970001E+02 -0.42769E+06
 0.90020004E+02 -0.42854E+06
 0.90070007E+02 -0.36529E+06
 0.90120003E+02 -0.27526E+06
 0.90170006E+02 -0.16052E+06
 0.90220001E+02  0.22780E+04
 0.90270004E+02  0.10972E+06
 0.90320007E+02  0.35948E+05
 0.90370003E+02 -0.10628E+06
 0.90420006E+02 -0.18581E+06
 0.90470001E+02 -0.23447E+06
 0.90520004E+02 -0.29865E+06
 0.90570007E+02 -0.37226E+06
 0.90620003E+02 -0.38023E+06
 0.90670006E+02 -0.31789E+06
 0.90720001E+02 -0.22805E+06
 0.90770004E+02 -0.11648E+06
 0.90820007E+02 -0.23970E+05
 0.90870003E+02  0.12140E+04
 0.90920006E+02 -0.20467E+05
 0.90970001E+02 -0.12551E+05
 0.91020004E+02  0.27884E+05
 0.91070007E+02  0.86739E+05
 0.91120003E+02  0.15792E+06
 0.91170006E+02  0.15802E+06
 0.91220001E+02  0.26368E+05
 0.91270004E+02 -0.18071E+06
 0.91320007E+02 -0.36396E+06
 0.91370003E+02 -0.40026E+06
 0.91420006E+02 -0.30294E+06
 0.91470001E+02 -0.17386E+06
 0.91520004E+02  0.39921E+05
 0.91570007E+02  0.25900E+06
 0.91620003E+02  0.34043E+06
 0.91670006E+02  0.28076E+06
 0.91720001E+02  0.12236E+06
 0.91770004E+02  0.16436E+05
 0.91820007E+02  0.31180E+04
 0.91870003E+02 -0.53565E+05
 0.91920006E+02 -0.11426E+06
 0.91970001E+02 -0.12558E+06
 0.92020004E+02 -0.13946E+06
 0.92070007E+02 -0.10943E+06
 0.92120003E+02 -0.46582E+05
 0.92170006E+02 -0.17410E+05
 0.92220001E+02 -0.14133E+05
 0.92270004E+02 -0.10028E+05
 0.92320007E+02 -0.33619E+05
 0.92370003E+02 -0.91099E+05
 0.92420006E+02 -0.17594E+06
 0.92470001E+02 -0.25164E+06
 0.92520004E+02 -0.23639E+06
 0.92570007E+02 -0.19743E+06
 0.92620003E+02 -0.77762E+05
 0.92670006E+02  0.18423E+06
 0.92720001E+02  0.40409E+06
 0.92770004E+02  0.46862E+06
 0.92820007E+02  0.30882E+06
 0.92870003E+02  0.39202E+05
 0.92920006E+02 -0.95816E+05
 0.92970001E+02 -0.85538E+05
 0.93020004E+02  0.16310E+04
 0.93070007E+02  0.10995E+06
 0.93120003E+02  0.13276E+06
 0.93170006E+02  0.42769E+05
 0.93220001E+02 -0.10526E+06
 0.93270004E+02 -0.23710E+06
 0.93320007E+02 -0.21802E+06
 0.93370003E+02 -0.41893E+05
 0.93420006E+02  0.13603E+06
 0.93470001E+02  0.22293E+06
 0.93520004E+02  0.16620E+06
 0.93570007E+02  0.36526E+05
 0.93620003E+02 -0.27592E+05
 0.93670006E+02 -0.10502E+05
 0.93720001E+02  0.63295E+05
 0.93770004E+02  0.99915E+05
 0.93820007E+02  0.23263E+05
 0.93870003E+02 -0.11843E+06
 0.93920006E+02 -0.22869E+06
 0.93970001E+02 -0.31611E+06
 0.94020004E+02 -0.43128E+06
 0.94070007E+02 -0.41840E+06
 0.94120003E+02 -0.21712E+06
 0.94170006E+02 -0.41952E+05
 0.94220001E+02 -0.11178E+05
 0.94270004E+02 -0.70158E+05
 0.94320007E+02 -0.14404E+06
 0.94370003E+02 -0.16890E+06
 0.94420006E+02 -0.13943E+06
 0.94470001E+02 -0.57152E+05
 0.94520004E+02  0.15748E+06
 0.94570007E+02  0.44182E+06
 0.94620003E+02  0.60850E+06
 0.94670006E+02  0.62672E+06
 0.94720001E+02  0.51634E+06
 0.94770004E+02  0.30192E+06
 0.94820007E+02  0.91672E+05
 0.94870003E+02  0.36170E+04
 0.94920006E+02  0.29668E+05
 0.94970001E+02  0.92604E+05
 0.95020004E+02  0.18103E+06
 0.95070007E+02  0.28788E+06
 0.95120003E+02  0.38870E+06
 0.95170006E+02  0.42903E+06
 0.95220001E+02  0.39684E+06
 0.95270004E+02  0.33442E+06
 0.95320007E+02  0.27026E+06
 0.95370003E+02  0.23617E+06
 0.95420006E+02  0.21224E+06
 0.95470001E+02  0.16412E+06
 0.95520004E+02  0.13188E+06
 0.95570007E+02  0.19110E+06
 0.95620003E+02  0.32344E+06
 0.95670006E+02  0.39842E+06
 0.95720001E+02  0.37954E+06
 0.95770004E+02  0.34494E+06
 0.95820007E+02  0.28959E+06
 0.95870003E+02  0.24235E+06
 0.95920006E+02  0.22489E+06
 0.95970001E+02  0.18521E+06
 0.96020004E+02  0.12843E+06
 0.96070007E+02  0.17735E+05
 0.96120003E+02 -0.13608E+06
 0.96170006E+02 -0.25067E+06
 0.96220001E+02 -0.28140E+06
 0.96270004E+02 -0.23953E+06
 0.96320007E+02 -0.10992E+06
 0.96370003E+02  0.94908E+05
 0.96420006E+02  0.26873E+06
 0.96470001E+02  0.35542E+06
 0.96520004E+02  0.32681E+06
 0.96570007E+02  0.21723E+06
 0.96620003E+02  0.11536E+06
 0.96670006E+02  0.97720E+05
 0.96720001E+02  0.14086E+06
 0.96770004E+02  0.12072E+06
 0.96820007E+02 -0.36334E+05
 0.96870003E+02 -0.27216E+06
 0.96920006E+02 -0.42864E+06
 0.96970001E+02 -0.48069E+06
 0.97020004E+02 -0.45333E+06
 0.97070007E+02 -0.36730E+06
 0.97120003E+02 -0.29484E+06
 0.97170006E+02 -0.20312E+06
 0.97220001E+02 -0.47846E+05
 0.97270004E+02  0.14237E+06
 0.97320007E+02  0.23645E+06
 0.97370003E+02  0.16907E+06
 0.97420006E+02  0.66180E+04
 0.97470001E+02 -0.21959E+06
 0.97520004E+02 -0.39268E+06
 0.97570007E+02 -0.41244E+06
 0.97620003E+02 -0.33678E+06
 0.97670006E+02 -0.22739E+06
 0.97720001E+02 -0.99856E+05
 0.97770004E+02  0.17896E+05
 0.97820007E+02  0.69778E+05
 0.97870003E+02  0.31469E+05
 0.97920006E+02 -0.61333E+05
 0.97970001E+02 -0.22196E+06
 0.98020004E+02 -0.47190E+06
 0.98070007E+02 -0.67475E+06
 0.98120003E+02 -0.68450E+06
 0.98170006E+02 -0.58392E+06
 0.98220001E+02 -0.50061E+06
 0.98270004E+02 -0.43640E+06
 0.98320007E+02 -0.35741E+06
 0.98370003E+02 -0.21564E+06
 0.98420006E+02 -0.84896E+05
 0.98470001E+02 -0.55731E+05
 0.98520004E+02 -0.49333E+05
 0.98570007E+02  0.44522E+05
 0.98620003E+02  0.26962E+06
 0.98670006E+02  0.53348E+06
 0.98720001E+02  0.67945E+06
 0.98770004E+02  0.64353E+06
 0.98820007E+02  0.48257E+06
 0.98870003E+02  0.31986E+06
 0.98920006E+02  0.22922E+06
 0.98970001E+02  0.20387E+06
 0.99020004E+02  0.20145E+06
 0.99070007E+02  0.16477E+06
 0.99120003E+02  0.74993E+05
 0.99170006E+02 -0.41032E+05
 0.99220001E+02 -0.13042E+06
 0.99270004E+02 -0.84343E+05
 0.99320007E+02  0.12174E+06
 0.99370003E+02  0.34600E+06
 0.99420006E+02  0.47801E+06
 0.99470001E+02  0.45799E+06
 0.99520004E+02  0.25048E+06
 0.99570007E+02  0.44300E+03
 0.99620003E+02 -0.95407E+05
 0.99670006E+02 -0.45220E+05
 0.99720001E+02  0.29450E+05
 0.99770004E+02  0.10913E+06
 0.99820007E+02  0.22444E+06
 0.99870003E+02  0.30784E+06
 0.99920006E+02  0.26769E+06
 0.99970001E+02  0.61521E+05
 0.10002000E+03 -0.25768E+06
 0.10007001E+03 -0.50668E+06
 0.10012000E+03 -0.55089E+06
 0.10017001E+03 -0.35909E+06
 0.10022000E+03 -0.22128E+05
 0.10027000E+03  0.24702E+06
 0.10032001E+03  0.38312E+06
 0.10037000E+03  0.33276E+06
 0.10042001E+03  0.36236E+05
 0.10047000E+03 -0.28691E+06
 0.10052000E+03 -0.40973E+06
 0.10057001E+03 -0.27576E+06
 0.10062000E+03  0.41484E+05
 0.10067001E+03  0.39271E+06
 0.10072000E+03  0.67061E+06
 0.10077000E+03  0.76980E+06
 0.10082001E+03  0.59387E+06
 0.10087000E+03  0.19754E+06
 0.10092001E+03 -0.21659E+06
 0.10097000E+03 -0.46478E+06
 0.10102000E+03 -0.43406E+06
 0.10107001E+03 -0.14976E+06
 0.10112000E+03  0.23470E+06
 0.10117001E+03  0.61271E+06
 0.10122000E+03  0.92028E+06
 0.10127000E+03  0.10664E+07
 0.10132001E+03  0.10296E+07
 0.10137000E+03  0.84242E+06
 0.10142001E+03  0.55686E+06
 0.10147000E+03  0.26701E+06
 0.10152000E+03  0.29420E+04
 0.10157001E+03 -0.16694E+06
 0.10162000E+03 -0.18883E+06
 0.10167001E+03 -0.98535E+05
 0.10172000E+03  0.10964E+06
 0.10177000E+03  0.33607E+06
 0.10182001E+03  0.44390E+06
 0.10187000E+03  0.41166E+06
 0.10192001E+03  0.29603E+06
 0.10197000E+03  0.13610E+06
 0.10202000E+03 -0.48159E+05
 0.10207001E+03 -0.15238E+06
 0.10212000E+03 -0.19443E+06
 0.10217001E+03 -0.25732E+06
 0.10222000E+03 -0.32214E+06
 0.10227000E+03 -0.36735E+06
 0.10232001E+03 -0.35142E+06
 0.10237000E+03 -0.28813E+06
 0.10242001E+03 -0.21036E+06
 0.10247000E+03 -0.10499E+06
 0.10252000E+03  0.15900E+05
 0.10257001E+03  0.17083E+06
 0.10262000E+03  0.34023E+06
 0.10267001E+03  0.44205E+06
 0.10272000E+03  0.43792E+06
 0.10277000E+03  0.35419E+06
 0.10282001E+03  0.24966E+06
 0.10287000E+03  0.12071E+06
 0.10292001E+03 -0.35581E+05
 0.10297000E+03 -0.18106E+06
 0.10302000E+03 -0.29888E+06
 0.10307001E+03 -0.36704E+06
 0.10312000E+03 -0.36845E+06
 0.10317001E+03 -0.30071E+06
 0.10322000E+03 -0.18235E+06
 0.10327000E+03 -0.64097E+05
 0.10332001E+03  0.12926E+05
 0.10337000E+03  0.56801E+05
 0.10342001E+03  0.91363E+05
 0.10347000E+03  0.11414E+06
 0.10352000E+03  0.78210E+05
 0.10357001E+03 -0.40439E+05
 0.10362000E+03 -0.18892E+06
 0.10367001E+03 -0.33006E+06
 0.10372000E+03 -0.44928E+06
 0.10377000E+03 -0.53878E+06
 0.10382001E+03 -0.60090E+06
 0.10387000E+03 -0.62856E+06
 0.10392001E+03 -0.61226E+06
 0.10397000E+03 -0.53367E+06
 0.10402000E+03 -0.39506E+06
 0.10407001E+03 -0.25299E+06
 0.10412000E+03 -0.15095E+06
 0.10417001E+03 -0.58160E+05
 0.10422000E+03  0.84230E+04
 0.10427000E+03  0.83520E+04
 0.10432001E+03 -0.46536E+05
 0.10437000E+03 -0.13327E+06
 0.10442001E+03 -0.21198E+06
 0.10447000E+03 -0.30853E+06
 0.10452000E+03 -0.47231E+06
 0.10457001E+03 -0.65349E+06
 0.10462000E+03 -0.74053E+06
 0.10467001E+03 -0.69058E+06
 0.10472000E+03 -0.56908E+06
 0.10477000E+03 -0.44171E+06
 0.10482001E+03 -0.32432E+06
 0.10487000E+03 -0.21334E+06
 0.10492001E+03 -0.84395E+05
 0.10497000E+03  0.42031E+05
 0.10502000E+03  0.10499E+06
 0.10507001E+03  0.12340E+06
 0.10512000E+03  0.10639E+06
 0.10517001E+03  0.82346E+05
 0.10522000E+03  0.83745E+05
 0.10527000E+03  0.57317E+05
 0.10532001E+03  0.30708E+05
 0.10537000E+03  0.50377E+05
 0.10542001E+03  0.13338E+06
 0.10547000E+03  0.26917E+06
 0.10552000E+03  0.35073E+06
 0.10557001E+03  0.31020E+06
 0.10562000E+03  0.17967E+06
 0.10567001E+03  0.20780E+05
 0.10572000E+03 -0.13167E+06
 0.10577000E+03 -0.25396E+06
 0.10582001E+03 -0.30870E+06
 0.10587000E+03 -0.27913E+06
 0.10592001E+03 -0.17136E+06
 0.10597000E+03  0.12533E+05
 0.10602000E+03  0.24216E+06
 0.10607001E+03  0.41039E+06
 0.10612000E+03  0.43908E+06
 0.10617001E+03  0.36146E+06
 0.10622000E+03  0.24436E+06
 0.10627000E+03  0.15045E+06
 0.10632001E+03  0.74686E+05
 0.10637000E+03 -0.39848E+05
 0.10642001E+03 -0.18294E+06
 0.10647000E+03 -0.30430E+06
 0.10652000E+03 -0.36113E+06
 0.10657001E+03 -0.33122E+06
 0.10662000E+03 -0.22928E+06
 0.10667001E+03 -0.12417E+06
 0.10672000E+03 -0.67594E+05
 0.10677000E+03 -0.36698E+05
 0.10682001E+03  0.41450E+04
 0.10687000E+03  0.55164E+05
 0.10692001E+03  0.66572E+05
 0.10697000E+03  0.25829E+05
 0.10702000E+03 -0.42330E+05
 0.10707001E+03 -0.14305E+06
 0.10712000E+03 -0.25117E+06
 0.10717001E+03 -0.31406E+06
 0.10722000E+03 -0.30749E+06
 0.10727000E+03 -0.25809E+06
 0.10732001E+03 -0.23568E+06
 0.10737000E+03 -0.26730E+06
 0.10742001E+03 -0.32446E+06
 0.10747000E+03 -0.37620E+06
 0.10752000E+03 -0.40007E+06
 0.10757001E+03 -0.37402E+06
 0.10762000E+03 -0.24969E+06
 0.10767001E+03 -0.54667E+05
 0.10772000E+03  0.87178E+05
 0.10777000E+03  0.15169E+06
 0.10782001E+03  0.20615E+06
 0.10787000E+03  0.25854E+06
 0.10792001E+03  0.26678E+06
 0.10797000E+03  0.22730E+06
 0.10802000E+03  0.16779E+06
 0.10807001E+03  0.80636E+05
 0.10812000E+03 -0.36390E+05
 0.10817001E+03 -0.14221E+06
 0.10822000E+03 -0.18712E+06
 0.10827000E+03 -0.15218E+06
 0.10832001E+03 -0.53002E+05
 0.10837000E+03  0.10032E+06
 0.10842001E+03  0.26782E+06
 0.10847000E+03  0.35416E+06
 0.10852000E+03  0.30492E+06
 0.10857001E+03  0.15111E+06
 0.10862000E+03 -0.47377E+05
 0.10867001E+03 -0.22626E+06
 0.10872000E+03 -0.30671E+06
 0.10877000E+03 -0.24977E+06
 0.10882001E+03 -0.11158E+06
 0.10887000E+03  0.16488E+05
 0.10892001E+03  0.75441E+05
 0.10897000E+03  0.65866E+05
 0.10902000E+03  0.18147E+05
 0.10907001E+03 -0.42726E+05
 0.10912000E+03 -0.96215E+05
 0.10917001E+03 -0.13413E+06
 0.10922000E+03 -0.15712E+06
 0.10927000E+03 -0.17343E+06
 0.10932001E+03 -0.21177E+06
 0.10937000E+03 -0.30003E+06
 0.10942001E+03 -0.42568E+06
 0.10947000E+03 -0.57439E+06
 0.10952000E+03 -0.71763E+06
 0.10957001E+03 -0.81403E+06
 0.10962000E+03 -0.80278E+06
 0.10967001E+03 -0.63039E+06
 0.10972000E+03 -0.37451E+06
 0.10977000E+03 -0.14831E+06
 0.10982001E+03 -0.21180E+04
 0.10987000E+03  0.53215E+05
 0.10992001E+03  0.18557E+05
 0.10997000E+03 -0.10549E+06
 0.11002000E+03 -0.28524E+06
 0.11007001E+03 -0.46077E+06
 0.11012000E+03 -0.57810E+06
 0.11017001E+03 -0.59136E+06
 0.11022000E+03 -0.45814E+06
 0.11027000E+03 -0.22918E+06
 0.11032001E+03 -0.40517E+05
 0.11037000E+03  0.54916E+05
 0.11042001E+03  0.10171E+06
 0.11047000E+03  0.15460E+06
 0.11052000E+03  0.23486E+06
 0.11057001E+03  0.31032E+06
 0.11062000E+03  0.34765E+06
 0.11067001E+03  0.36948E+06
 0.11072000E+03  0.37399E+06
 0.11077000E+03  0.30782E+06
 0.11082001E+03  0.18779E+06
 0.11087000E+03  0.83819E+05
 0.11092001E+03  0.54910E+05
 0.11097000E+03  0.12468E+06
 0.11102000E+03  0.24574E+06
 0.11107001E+03  0.35208E+06
 0.11112000E+03  0.40289E+06
 0.11117001E+03  0.39817E+06
 0.11122000E+03  0.37374E+06
 0.11127000E+03  0.37227E+06
 0.11132001E+03  0.38570E+06
 0.11137000E+03  0.36764E+06
 0.11142001E+03  0.30468E+06
 0.11147000E+03  0.19452E+06
 0.11152000E+03  0.60785E+05
 0.11157001E+03 -0.46054E+05
 0.11162000E+03 -0.97182E+05
 0.11167001E+03 -0.10586E+06
 0.11172000E+03 -0.98596E+05
 0.11177000E+03 -0.98831E+05
 0.11182001E+03 -0.12237E+06
 0.11187000E+03 -0.14473E+06
 0.11192001E+03 -0.15966E+06
 0.11197000E+03 -0.18154E+06
 0.11202000E+03 -0.19544E+06
 0.11207001E+03 -0.20081E+06
 0.11212000E+03 -0.22793E+06
 0.11217001E+03 -0.29266E+06
 0.11222000E+03 -0.36528E+06
 0.11227000E+03 -0.39456E+06
 0.11232001E+03 -0.35897E+06
 0.11237000E+03 -0.27378E+06
 0.11242001E+03 -0.19010E+06
 0.11247000E+03 -0.14425E+06
 0.11252000E+03 -0.12914E+06
 0.11257001E+03 -0.12834E+06
 0.11262000E+03 -0.11043E+06
 0.11267001E+03 -0.72981E+05
 0.11272000E+03 -0.42252E+05
 0.11277000E+03 -0.46740E+05
 0.11282001E+03 -0.86164E+05
 0.11287000E+03 -0.12291E+06
 0.11292001E+03 -0.12892E+06
 0.11297000E+03 -0.89984E+05
 0.11302000E+03 -0.23135E+05
 0.11307001E+03  0.58271E+05
 0.11312000E+03  0.13583E+06
 0.11317001E+03  0.18983E+06
 0.11322000E+03  0.22866E+06
 0.11327000E+03  0.24293E+06
 0.11332001E+03  0.23018E+06
 0.11337000E+03  0.19886E+06
 0.11342001E+03  0.16746E+06
 0.11347000E+03  0.15552E+06
 0.11352000E+03  0.16430E+06
 0.11357001E+03  0.18881E+06
 0.11362000E+03  0.21058E+06
 0.11367001E+03  0.22377E+06
 0.11372000E+03  0.22401E+06
 0.11377000E+03  0.21172E+06
 0.11382001E+03  0.20483E+06
 0.11387000E+03  0.19150E+06
 0.11392001E+03  0.15944E+06
 0.11397000E+03  0.12359E+06
 0.11402000E+03  0.10919E+06
 0.11407001E+03  0.13450E+06
 0.11412000E+03  0.16638E+06
 0.11417001E+03  0.18251E+06
 0.11422000E+03  0.20649E+06
 0.11427000E+03  0.24825E+06
 0.11432001E+03  0.30050E+06
 0.11437000E+03  0.33560E+06
 0.11442001E+03  0.33784E+06
 0.11447000E+03  0.31192E+06
 0.11452000E+03  0.25814E+06
 0.11457001E+03  0.18681E+06
 0.11462000E+03  0.11078E+06
 0.11467001E+03  0.61632E+05
 0.11472000E+03  0.81932E+05
 0.11477000E+03  0.17305E+06
 0.11482001E+03  0.29238E+06
 0.11487000E+03  0.38752E+06
 0.11492001E+03  0.42475E+06
 0.11497000E+03  0.40561E+06
 0.11502000E+03  0.35950E+06
 0.11507001E+03  0.30379E+06
 0.11512000E+03  0.23913E+06
 0.11517001E+03  0.18729E+06
 0.11522000E+03  0.18167E+06
 0.11527000E+03  0.20598E+06
 0.11532001E+03  0.23890E+06
 0.11537000E+03  0.29441E+06
 0.11542001E+03  0.36323E+06
 0.11547000E+03  0.42919E+06
 0.11552000E+03  0.48712E+06
 0.11557001E+03  0.53989E+06
 0.11562000E+03  0.58978E+06
 0.11567001E+03  0.62850E+06
 0.11572000E+03  0.64636E+06
 0.11577000E+03  0.63189E+06
 0.11582001E+03  0.58621E+06
 0.11587000E+03  0.52503E+06
 0.11592001E+03  0.45372E+06
 0.11597000E+03  0.36351E+06
 0.11602000E+03  0.27257E+06
 0.11607001E+03  0.20789E+06
 0.11612000E+03  0.16287E+06
 0.11617001E+03  0.11741E+06
 0.11622000E+03  0.66303E+05
 0.11627000E+03  0.27425E+05
 0.11632001E+03  0.15857E+05
 0.11637000E+03  0.31700E+05
 0.11642001E+03  0.70433E+05
 0.11647000E+03  0.12255E+06
 0.11652000E+03  0.16031E+06
 0.11657001E+03  0.15033E+06
 0.11662000E+03  0.83844E+05
 0.11667001E+03 -0.23855E+05
 0.11672000E+03 -0.13664E+06
 0.11677000E+03 -0.21203E+06
 0.11682001E+03 -0.22391E+06
 0.11687000E+03 -0.17657E+06
 0.11692001E+03 -0.80582E+05
 0.11697000E+03  0.40374E+05
 0.11702000E+03  0.14462E+06
 0.11707001E+03  0.21576E+06
 0.11712000E+03  0.24884E+06
 0.11717001E+03  0.24621E+06
 0.11722000E+03  0.20993E+06
 0.11727000E+03  0.15213E+06
 0.11732001E+03  0.10456E+06
 0.11737000E+03  0.65496E+05
 0.11742001E+03  0.14462E+05
 0.11747000E+03 -0.41942E+05
 0.11752000E+03 -0.80992E+05
 0.11757001E+03 -0.79489E+05
 0.11762000E+03 -0.15335E+05
 0.11767001E+03  0.10590E+06
 0.11772000E+03  0.23703E+06
 0.11777000E+03  0.31954E+06
 0.11782001E+03  0.32228E+06
 0.11787000E+03  0.25612E+06
 0.11792001E+03  0.16975E+06
 0.11797000E+03  0.10996E+06
 0.11802000E+03  0.83714E+05
 0.11807001E+03  0.90580E+05
 0.11812000E+03  0.11324E+06
 0.11817001E+03  0.12919E+06
 0.11822000E+03  0.15700E+06
 0.11827000E+03  0.19970E+06
 0.11832001E+03  0.23340E+06
 0.11837000E+03  0.24824E+06
 0.11842001E+03  0.23635E+06
 0.11847000E+03  0.19885E+06
 0.11852000E+03  0.14909E+06
 0.11857001E+03  0.90065E+05
 0.11862000E+03  0.35380E+05
 0.11867001E+03  0.12562E+05
 0.11872000E+03  0.16291E+05
 0.11877000E+03  0.22519E+05
 0.11882001E+03  0.33740E+05
 0.11887000E+03  0.52425E+05
 0.11892001E+03  0.61438E+05
 0.11897000E+03  0.60685E+05
 0.11902000E+03  0.76533E+05
 0.11907001E+03  0.11317E+06
 0.11912000E+03  0.13921E+06
 0.11917001E+03  0.14635E+06
 0.11922000E+03  0.15585E+06
 0.11927000E+03  0.16530E+06
 0.11932001E+03  0.16089E+06
 0.11937000E+03  0.15825E+06
 0.11942001E+03  0.16749E+06
 0.11947000E+03  0.17086E+06
 0.11952000E+03  0.16426E+06
 0.11957001E+03  0.16048E+06
 0.11962000E+03  0.16397E+06
 0.11967001E+03  0.17819E+06
 0.11972000E+03  0.20625E+06
 0.11977000E+03  0.23620E+06
 0.11982001E+03  0.25541E+06
 0.11987000E+03  0.25492E+06
 0.11992001E+03  0.22340E+06
 0.11997000E+03  0.16268E+06
 0.12002000E+03  0.79379E+05
 0.12007001E+03 -0.12105E+05
 0.12012000E+03 -0.81425E+05
 0.12017001E+03 -0.12737E+06
 0.12022000E+03 -0.16844E+06
 0.12027000E+03 -0.20655E+06
 0.12032001E+03 -0.25156E+06
 0.12037000E+03 -0.29853E+06
 0.12042001E+03 -0.31613E+06
 0.12047000E+03 -0.29000E+06
 0.12052000E+03 -0.22682E+06
 0.12057001E+03 -0.14506E+06
 0.12062000E+03 -0.57684E+05
 0.12067001E+03  0.28528E+05
 0.12072000E+03  0.96840E+05
 0.12077000E+03  0.13909E+06
 0.12082001E+03  0.15567E+06
 0.12087000E+03  0.14640E+06
 0.12092001E+03  0.12113E+06
 0.12097000E+03  0.90311E+05
 0.12102000E+03  0.58005E+05
 0.12107001E+03  0.24076E+05
 0.12112000E+03 -0.14974E+05
 0.12117001E+03 -0.51996E+05
 0.12122000E+03 -0.82806E+05
 0.12127000E+03 -0.12218E+06
 0.12132001E+03 -0.18145E+06
 0.12137000E+03 -0.26416E+06
 0.12142001E+03 -0.36025E+06
 0.12147000E+03 -0.45124E+06
 0.12152000E+03 -0.52623E+06
 0.12157001E+03 -0.56973E+06
 0.12162000E+03 -0.56872E+06
 0.12167001E+03 -0.53625E+06
 0.12172000E+03 -0.50071E+06
 0.12177000E+03 -0.47572E+06
 0.12182001E+03 -0.47078E+06
 0.12187000E+03 -0.48971E+06
 0.12192001E+03 -0.52071E+06
 0.12197000E+03 -0.55349E+06
 0.12202000E+03 -0.57305E+06
 0.12207001E+03 -0.56928E+06
 0.12212000E+03 -0.54659E+06
 0.12217001E+03 -0.51279E+06
 0.12222000E+03 -0.47546E+06
 0.12227000E+03 -0.43516E+06
 0.12232001E+03 -0.38444E+06
 0.12237000E+03 -0.31930E+06
 0.12242001E+03 -0.25108E+06
 0.12247000E+03 -0.19627E+06
 0.12252000E+03 -0.15874E+06
 0.12257001E+03 -0.13471E+06
 0.12262000E+03 -0.11700E+06
 0.12267001E+03 -0.99164E+05
 0.12272000E+03 -0.97693E+05
 0.12277000E+03 -0.12179E+06
 0.12282001E+03 -0.14941E+06
 0.12287000E+03 -0.16748E+06
 0.12292001E+03 -0.17322E+06
 0.12297000E+03 -0.17127E+06
 0.12302000E+03 -0.17434E+06
 0.12307001E+03 -0.18201E+06
 0.12312000E+03 -0.19605E+06
 0.12317001E+03 -0.22844E+06
 0.12322000E+03 -0.27779E+06
 0.12327000E+03 -0.32456E+06
 0.12332001E+03 -0.35671E+06
 0.12337000E+03 -0.36968E+06
 0.12342001E+03 -0.35330E+06
 0.12347000E+03 -0.30944E+06
 0.12352000E+03 -0.24839E+06
 0.12357001E+03 -0.18163E+06
 0.12362000E+03 -0.12423E+06
 0.12367001E+03 -0.91533E+05
 0.12372000E+03 -0.87629E+05
 0.12377000E+03 -0.10439E+06
 0.12382001E+03 -0.13416E+06
 0.12387000E+03 -0.16692E+06
 0.12392001E+03 -0.20610E+06
 0.12397000E+03 -0.25730E+06
 0.12402000E+03 -0.30745E+06
 0.12407001E+03 -0.34370E+06
 0.12412000E+03 -0.36167E+06
 0.12417001E+03 -0.35656E+06
 0.12422001E+03 -0.32309E+06
 0.12427001E+03 -0.27439E+06
 0.12432000E+03 -0.23296E+06
 0.12437000E+03 -0.21429E+06
 0.12442001E+03 -0.22378E+06
 0.12447001E+03 -0.25646E+06
 0.12452001E+03 -0.30274E+06
 0.12457000E+03 -0.34071E+06
 0.12462000E+03 -0.35706E+06
 0.12467001E+03 -0.35847E+06
 0.12472001E+03 -0.35209E+06
 0.12477001E+03 -0.34516E+06
 0.12482000E+03 -0.33900E+06
 0.12487000E+03 -0.33009E+06
 0.12492001E+03 -0.31294E+06
 0.12497001E+03 -0.28295E+06
 0.12502001E+03 -0.23997E+06
 0.12507000E+03 -0.18608E+06
 0.12512000E+03 -0.14127E+06
 0.12517001E+03 -0.10541E+06
 0.12522001E+03 -0.64597E+05
 0.12527001E+03 -0.39484E+05
 0.12532000E+03 -0.37345E+05
 0.12537000E+03 -0.50079E+05
 0.12542001E+03 -0.71887E+05
 0.12547001E+03 -0.87768E+05
 0.12552001E+03 -0.92519E+05
 0.12557000E+03 -0.93015E+05
 0.12562000E+03 -0.91057E+05
 0.12567001E+03 -0.84929E+05
 0.12572001E+03 -0.79690E+05
 0.12577001E+03 -0.76037E+05
 0.12582000E+03 -0.72346E+05
 0.12587000E+03 -0.71336E+05
 0.12592001E+03 -0.67048E+05
 0.12597001E+03 -0.49816E+05
 0.12602001E+03 -0.23468E+05
 0.12607000E+03 -0.52750E+04
 0.12612000E+03 -0.14838E+05
 0.12617001E+03 -0.55957E+05
 0.12622001E+03 -0.12306E+06
 0.12627001E+03 -0.20547E+06
 0.12632000E+03 -0.28190E+06
 0.12637000E+03 -0.33951E+06
 0.12642001E+03 -0.36986E+06
 0.12647001E+03 -0.37121E+06
 0.12652001E+03 -0.36134E+06
 0.12657000E+03 -0.35270E+06
 0.12662000E+03 -0.34020E+06
 0.12667001E+03 -0.32114E+06
 0.12672001E+03 -0.29343E+06
 0.12677001E+03 -0.25346E+06
 0.12682000E+03 -0.20822E+06
 0.12687000E+03 -0.16081E+06
 0.12692001E+03 -0.11173E+06
 0.12697001E+03 -0.78440E+05
 0.12702001E+03 -0.77191E+05
 0.12707000E+03 -0.94715E+05
 0.12712000E+03 -0.11635E+06
 0.12717001E+03 -0.13645E+06
 0.12722001E+03 -0.13370E+06
 0.12727001E+03 -0.10610E+06
 0.12732000E+03 -0.73233E+05
 0.12737000E+03 -0.41689E+05
 0.12742001E+03 -0.39330E+04
 0.12747001E+03  0.46495E+05
 0.12752001E+03  0.10023E+06
 0.12757000E+03  0.14686E+06
 0.12762000E+03  0.18577E+06
 0.12767001E+03  0.21875E+06
 0.12772001E+03  0.24489E+06
 0.12777001E+03  0.27690E+06
 0.12782000E+03  0.32737E+06
 0.12787000E+03  0.37942E+06
 0.12792001E+03  0.41456E+06
 0.12797001E+03  0.42422E+06
 0.12802000E+03  0.40745E+06
 0.12806999E+03  0.37419E+06
 0.12812000E+03  0.33003E+06
 0.12817000E+03  0.28175E+06
 0.12822000E+03  0.24895E+06
 0.12827000E+03  0.24126E+06
 0.12831999E+03  0.24347E+06
 0.12837000E+03  0.24585E+06
 0.12842000E+03  0.24898E+06
 0.12847000E+03  0.25181E+06
 0.12852000E+03  0.24737E+06
 0.12856999E+03  0.22374E+06
 0.12862000E+03  0.18975E+06
 0.12867000E+03  0.15971E+06
 0.12872000E+03  0.14193E+06
 0.12877000E+03  0.13936E+06
 0.12881999E+03  0.14560E+06
 0.12887000E+03  0.16382E+06
 0.12892000E+03  0.18679E+06
 0.12897000E+03  0.20220E+06
 0.12902000E+03  0.21483E+06
 0.12906999E+03  0.22422E+06
 0.12912000E+03  0.22151E+06
 0.12917000E+03  0.20485E+06
 0.12922000E+03  0.18810E+06
 0.12927000E+03  0.18847E+06
 0.12931999E+03  0.21196E+06
 0.12937000E+03  0.25256E+06
 0.12942000E+03  0.29806E+06
 0.12947000E+03  0.34347E+06
 0.12952000E+03  0.38794E+06
 0.12956999E+03  0.42786E+06
 0.12962000E+03  0.45681E+06
 0.12967000E+03  0.46790E+06
 0.12972000E+03  0.45910E+06
 0.12977000E+03  0.43886E+06
 0.12981999E+03  0.42746E+06
 0.12987000E+03  0.44403E+06
 0.12992000E+03  0.48462E+06
 0.12997000E+03  0.52078E+06
 0.13002000E+03  0.53781E+06
 0.13006999E+03  0.53596E+06
 0.13012000E+03  0.52109E+06
 0.13017000E+03  0.51647E+06
 0.13022000E+03  0.53547E+06
 0.13027000E+03  0.56915E+06
 0.13031999E+03  0.59681E+06
 0.13037000E+03  0.60789E+06
 0.13042000E+03  0.60357E+06
 0.13047000E+03  0.59183E+06
 0.13052000E+03  0.59166E+06
 0.13056999E+03  0.60356E+06
 0.13062000E+03  0.62038E+06
 0.13067000E+03  0.63658E+06
 0.13072000E+03  0.64129E+06
 0.13077000E+03  0.63048E+06
 0.13081999E+03  0.60851E+06
 0.13087000E+03  0.58416E+06
 0.13092000E+03  0.55923E+06
 0.13097000E+03  0.53031E+06
 0.13102000E+03  0.48935E+06
 0.13106999E+03  0.43370E+06
 0.13112000E+03  0.37176E+06
 0.13117000E+03  0.31333E+06
 0.13122000E+03  0.26575E+06
 0.13127000E+03  0.22517E+06
 0.13131999E+03  0.17753E+06
 0.13137000E+03  0.11585E+06
 0.13142000E+03  0.48075E+05
 0.13147000E+03 -0.13074E+05
 0.13152000E+03 -0.59732E+05
 0.13156999E+03 -0.94671E+05
 0.13162000E+03 -0.12718E+06
 0.13167000E+03 -0.16197E+06
 0.13172000E+03 -0.18919E+06
 0.13177000E+03 -0.19082E+06
 0.13181999E+03 -0.15861E+06
 0.13187000E+03 -0.11022E+06
 0.13192000E+03 -0.76053E+05
 0.13197000E+03 -0.67396E+05
 0.13202000E+03 -0.76815E+05
 0.13206999E+03 -0.90953E+05
 0.13212000E+03 -0.10240E+06
 0.13217000E+03 -0.10714E+06
 0.13222000E+03 -0.10000E+06
 0.13227000E+03 -0.80381E+05
 0.13231999E+03 -0.51254E+05
 0.13237000E+03 -0.18202E+05
 0.13242000E+03  0.14802E+05
 0.13247000E+03  0.51182E+05
 0.13252000E+03  0.94828E+05
 0.13256999E+03  0.13925E+06
 0.13262000E+03  0.17295E+06
 0.13267000E+03  0.18594E+06
 0.13272000E+03  0.18060E+06
 0.13277000E+03  0.16603E+06
 0.13281999E+03  0.14231E+06
 0.13287000E+03  0.11547E+06
 0.13292000E+03  0.97860E+05
 0.13297000E+03  0.87992E+05
 0.13302000E+03  0.78811E+05
 0.13306999E+03  0.71232E+05
 0.13312000E+03  0.56661E+05
 0.13317000E+03  0.33699E+05
 0.13322000E+03  0.18504E+05
 0.13327000E+03  0.41710E+04
 0.13331999E+03 -0.21769E+05
 0.13337000E+03 -0.58447E+05
 0.13342000E+03 -0.10146E+06
 0.13347000E+03 -0.14174E+06
 0.13352000E+03 -0.17936E+06
 0.13356999E+03 -0.21292E+06
 0.13362000E+03 -0.23176E+06
 0.13367000E+03 -0.23099E+06
 0.13372000E+03 -0.22031E+06
 0.13377000E+03 -0.21974E+06
 0.13381999E+03 -0.24063E+06
 0.13387000E+03 -0.27829E+06
 0.13392000E+03 -0.31550E+06
 0.13397000E+03 -0.34035E+06
 0.13402000E+03 -0.34650E+06
 0.13406999E+03 -0.32900E+06
 0.13412000E+03 -0.30030E+06
 0.13417000E+03 -0.27399E+06
 0.13422000E+03 -0.25929E+06
 0.13427000E+03 -0.25888E+06
 0.13431999E+03 -0.26621E+06
 0.13437000E+03 -0.27912E+06
 0.13442000E+03 -0.29722E+06
 0.13447000E+03 -0.31406E+06
 0.13452000E+03 -0.31506E+06
 0.13456999E+03 -0.29694E+06
 0.13462000E+03 -0.27082E+06
 0.13467000E+03 -0.24377E+06
 0.13472000E+03 -0.22413E+06
 0.13477000E+03 -0.21310E+06
 0.13481999E+03 -0.19657E+06
 0.13487000E+03 -0.17223E+06
 0.13492000E+03 -0.14375E+06
 0.13497000E+03 -0.11514E+06
 0.13502000E+03 -0.95072E+05
 0.13506999E+03 -0.85884E+05
 0.13512000E+03 -0.88583E+05
 0.13517000E+03 -0.94577E+05
 0.13522000E+03 -0.98134E+05
 0.13527000E+03 -0.10231E+06
 0.13531999E+03 -0.10715E+06
 0.13537000E+03 -0.11414E+06
 0.13542000E+03 -0.12300E+06
 0.13547000E+03 -0.13688E+06
 0.13552000E+03 -0.16321E+06
 0.13556999E+03 -0.20198E+06
 0.13562000E+03 -0.24199E+06
 0.13567000E+03 -0.27242E+06
 0.13572000E+03 -0.28960E+06
 0.13577000E+03 -0.30079E+06
 0.13581999E+03 -0.30980E+06
 0.13587000E+03 -0.30907E+06
 0.13592000E+03 -0.30148E+06
 0.13597000E+03 -0.29200E+06
 0.13602000E+03 -0.28074E+06
 0.13606999E+03 -0.26268E+06
 0.13612000E+03 -0.23372E+06
 0.13617000E+03 -0.20362E+06
 0.13622000E+03 -0.17909E+06
 0.13627000E+03 -0.15974E+06
 0.13631999E+03 -0.14605E+06
 0.13637000E+03 -0.13987E+06
 0.13642000E+03 -0.14204E+06
 0.13647000E+03 -0.14634E+06
 0.13652000E+03 -0.14368E+06
 0.13656999E+03 -0.12793E+06
 0.13662000E+03 -0.10310E+06
 0.13667000E+03 -0.85374E+05
 0.13672000E+03 -0.81746E+05
 0.13677000E+03 -0.87474E+05
 0.13681999E+03 -0.10289E+06
 0.13687000E+03 -0.12234E+06
 0.13692000E+03 -0.13526E+06
 0.13697000E+03 -0.14273E+06
 0.13702000E+03 -0.14476E+06
 0.13706999E+03 -0.13928E+06
 0.13712000E+03 -0.12891E+06
 0.13717000E+03 -0.12083E+06
 0.13722000E+03 -0.12890E+06
 0.13727000E+03 -0.15607E+06
 0.13731999E+03 -0.19044E+06
 0.13737000E+03 -0.21863E+06
 0.13742000E+03 -0.23317E+06
 0.13747000E+03 -0.23367E+06
 0.13752000E+03 -0.22602E+06
 0.13756999E+03 -0.21708E+06
 0.13762000E+03 -0.21278E+06
 0.13767000E+03 -0.21520E+06
 0.13772000E+03 -0.21690E+06
 0.13777000E+03 -0.20927E+06
 0.13781999E+03 -0.19350E+06
 0.13787000E+03 -0.18019E+06
 0.13792000E+03 -0.17002E+06
 0.13797000E+03 -0.15951E+06
 0.13802000E+03 -0.15644E+06
 0.13806999E+03 -0.16335E+06
 0.13812000E+03 -0.17702E+06
 0.13817000E+03 -0.19377E+06
 0.13822000E+03 -0.20238E+06
 0.13827000E+03 -0.19818E+06
 0.13831999E+03 -0.18502E+06
 0.13837000E+03 -0.16265E+06
 0.13842000E+03 -0.13463E+06
 0.13847000E+03 -0.10278E+06
 0.13852000E+03 -0.71316E+05
 0.13856999E+03 -0.51646E+05
 0.13862000E+03 -0.43791E+05
 0.13867000E+03 -0.39271E+05
 0.13872000E+03 -0.32474E+05
 0.13877000E+03 -0.20619E+05
 0.13881999E+03 -0.11460E+04
 0.13887000E+03  0.18374E+05
 0.13892000E+03  0.30080E+05
 0.13897000E+03  0.39543E+05
 0.13902000E+03  0.51285E+05
 0.13906999E+03  0.65180E+05
 0.13912000E+03  0.81800E+05
 0.13917000E+03  0.99463E+05
 0.13922000E+03  0.11180E+06
 0.13927000E+03  0.11230E+06
 0.13931999E+03  0.97643E+05
 0.13937000E+03  0.77576E+05
 0.13942000E+03  0.66255E+05
 0.13947000E+03  0.68533E+05
 0.13952000E+03  0.83862E+05
 0.13956999E+03  0.10468E+06
 0.13962000E+03  0.12621E+06
 0.13967000E+03  0.14516E+06
 0.13972000E+03  0.15590E+06
 0.13977000E+03  0.16024E+06
 0.13981999E+03  0.16274E+06
 0.13987000E+03  0.16566E+06
 0.13992000E+03  0.17048E+06
 0.13997000E+03  0.17522E+06
 0.14002000E+03  0.17843E+06
 0.14006999E+03  0.18720E+06
 0.14012000E+03  0.20182E+06
 0.14017000E+03  0.21551E+06
 0.14022000E+03  0.22765E+06
 0.14027000E+03  0.23148E+06
 0.14031999E+03  0.21750E+06
 0.14037000E+03  0.19011E+06
 0.14042000E+03  0.15970E+06
 0.14047000E+03  0.12936E+06
 0.14052000E+03  0.10679E+06
 0.14056999E+03  0.97694E+05
 0.14062000E+03  0.99030E+05
 0.14067000E+03  0.11151E+06
 0.14072000E+03  0.13195E+06
 0.14077000E+03  0.15964E+06
 0.14081999E+03  0.19238E+06
 0.14087000E+03  0.21502E+06
 0.14092000E+03  0.22075E+06
 0.14097000E+03  0.21557E+06
 0.14102000E+03  0.21036E+06
 0.14106999E+03  0.21837E+06
 0.14112000E+03  0.23998E+06
 0.14117000E+03  0.26813E+06
 0.14122000E+03  0.29747E+06
 0.14127000E+03  0.32039E+06
 0.14131999E+03  0.33403E+06
 0.14137000E+03  0.34100E+06
 0.14142000E+03  0.34247E+06
 0.14147000E+03  0.33565E+06
 0.14152000E+03  0.32448E+06
 0.14156999E+03  0.31746E+06
 0.14162000E+03  0.31581E+06
 0.14167000E+03  0.31713E+06
 0.14172000E+03  0.31486E+06
 0.14177000E+03  0.30367E+06
 0.14181999E+03  0.28599E+06
 0.14187000E+03  0.27137E+06
 0.14192000E+03  0.26728E+06
 0.14197000E+03  0.26642E+06
 0.14202000E+03  0.25434E+06
 0.14206999E+03  0.22562E+06
 0.14212000E+03  0.18716E+06
 0.14217000E+03  0.14826E+06
 0.14222000E+03  0.11827E+06
 0.14227000E+03  0.10036E+06
 0.14231999E+03  0.89865E+05
 0.14237000E+03  0.80968E+05
 0.14242000E+03  0.69032E+05
 0.14247000E+03  0.54772E+05
 0.14252000E+03  0.35904E+05
 0.14256999E+03  0.91290E+04
 0.14262000E+03 -0.24455E+05
 0.14267000E+03 -0.59316E+05
 0.14272000E+03 -0.86975E+05
 0.14277000E+03 -0.10877E+06
 0.14281999E+03 -0.13157E+06
 0.14287000E+03 -0.15775E+06
 0.14292000E+03 -0.18308E+06
 0.14297000E+03 -0.19573E+06
 0.14302000E+03 -0.19023E+06
 0.14306999E+03 -0.17588E+06
 0.14312000E+03 -0.16082E+06
 0.14317000E+03 -0.14247E+06
 0.14322000E+03 -0.12116E+06
 0.14327000E+03 -0.10371E+06
 0.14331999E+03 -0.90349E+05
 0.14337000E+03 -0.79462E+05
 0.14342000E+03 -0.69927E+05
 0.14347000E+03 -0.58012E+05
 0.14352000E+03 -0.42103E+05
 0.14356999E+03 -0.21345E+05
 0.14362000E+03  0.85300E+03
 0.14367000E+03  0.18519E+05
 0.14372000E+03  0.27422E+05
 0.14377000E+03  0.29337E+05
 0.14381999E+03  0.28884E+05
 0.14387000E+03  0.26596E+05
 0.14392000E+03  0.17780E+05
 0.14397000E+03 -0.90130E+04
 0.14402000E+03 -0.54326E+05
 0.14406999E+03 -0.10984E+06
 0.14412000E+03 -0.16635E+06
 0.14417000E+03 -0.21484E+06
 0.14422000E+03 -0.25805E+06
 0.14427000E+03 -0.30004E+06
 0.14431999E+03 -0.34648E+06
 0.14437000E+03 -0.39905E+06
 0.14442000E+03 -0.44700E+06
 0.14447000E+03 -0.48812E+06
 0.14452000E+03 -0.52016E+06
 0.14456999E+03 -0.53653E+06
 0.14462000E+03 -0.53888E+06
 0.14467000E+03 -0.53098E+06
 0.14472000E+03 -0.52407E+06
 0.14477000E+03 -0.52162E+06
 0.14481999E+03 -0.51120E+06
 0.14487000E+03 -0.48741E+06
 0.14492000E+03 -0.45405E+06
 0.14497000E+03 -0.41850E+06
 0.14502000E+03 -0.38291E+06
 0.14506999E+03 -0.34458E+06
 0.14512000E+03 -0.30532E+06
 0.14517000E+03 -0.27020E+06
 0.14522000E+03 -0.24373E+06
 0.14527000E+03 -0.22419E+06
 0.14531999E+03 -0.20585E+06
 0.14537000E+03 -0.18408E+06
 0.14542000E+03 -0.15902E+06
 0.14547000E+03 -0.13097E+06
 0.14552000E+03 -0.99816E+05
 0.14556999E+03 -0.69421E+05
 0.14562000E+03 -0.37488E+05
 0.14567000E+03 -0.52450E+04
 0.14572000E+03  0.20537E+05
 0.14577000E+03  0.40608E+05
 0.14581999E+03  0.58335E+05
 0.14587000E+03  0.76381E+05
 0.14592000E+03  0.92479E+05
 0.14597000E+03  0.10544E+06
 0.14602000E+03  0.11634E+06
 0.14606999E+03  0.12576E+06
 0.14612000E+03  0.13735E+06
 0.14617000E+03  0.14663E+06
 0.14622000E+03  0.14613E+06
 0.14627000E+03  0.13909E+06
 0.14631999E+03  0.13281E+06
 0.14637000E+03  0.13455E+06
 0.14642000E+03  0.14863E+06
 0.14647000E+03  0.17210E+06
 0.14652000E+03  0.20075E+06
 0.14656999E+03  0.22737E+06
 0.14662000E+03  0.24928E+06
 0.14667000E+03  0.27056E+06
 0.14672000E+03  0.28778E+06
 0.14677000E+03  0.29836E+06
 0.14681999E+03  0.30206E+06
 0.14687000E+03  0.29933E+06
 0.14692000E+03  0.29372E+06
 0.14697000E+03  0.29143E+06
 0.14702000E+03  0.29557E+06
 0.14706999E+03  0.30112E+06
 0.14712000E+03  0.30619E+06
 0.14717000E+03  0.30796E+06
 0.14722000E+03  0.30314E+06
 0.14727000E+03  0.29488E+06
 0.14731999E+03  0.28674E+06
 0.14737000E+03  0.27942E+06
 0.14742000E+03  0.27299E+06
 0.14747000E+03  0.26864E+06
 0.14752000E+03  0.26319E+06
 0.14756999E+03  0.25262E+06
 0.14762000E+03  0.24285E+06
 0.14767000E+03  0.23717E+06
 0.14772000E+03  0.23060E+06
 0.14777000E+03  0.22319E+06
 0.14781999E+03  0.21220E+06
 0.14787000E+03  0.19278E+06
 0.14792000E+03  0.16093E+06
 0.14797000E+03  0.12043E+06
 0.14802000E+03  0.88140E+05
 0.14806999E+03  0.71676E+05
 0.14812000E+03  0.66099E+05
 0.14817000E+03  0.64411E+05
 0.14822000E+03  0.70871E+05
 0.14827000E+03  0.87515E+05
 0.14831999E+03  0.10555E+06
 0.14837000E+03  0.12418E+06
 0.14842000E+03  0.14354E+06
 0.14847000E+03  0.16656E+06
 0.14852000E+03  0.19429E+06
 0.14856999E+03  0.22024E+06
 0.14862000E+03  0.24023E+06
 0.14867000E+03  0.25077E+06
 0.14872000E+03  0.25167E+06
 0.14877000E+03  0.24557E+06
 0.14881999E+03  0.23598E+06
 0.14887000E+03  0.22513E+06
 0.14892000E+03  0.21387E+06
 0.14897000E+03  0.20100E+06
 0.14902000E+03  0.18261E+06
 0.14906999E+03  0.16266E+06
