-0.38800001E+01 -0.78599E+05
-0.38300002E+01 -0.72076E+05
-0.37800002E+01 -0.65073E+05
-0.37300000E+01 -0.58187E+05
-0.36800001E+01 -0.51597E+05
-0.36300001E+01 -0.45077E+05
-0.35800002E+01 -0.38410E+05
-0.35300002E+01 -0.30666E+05
-0.34800000E+01 -0.21502E+05
-0.34300001E+01 -0.11214E+05
-0.33800001E+01  0.49200E+03
-0.33300002E+01  0.13742E+05
-0.32800002E+01  0.27493E+05
-0.32300000E+01  0.40258E+05
-0.31800001E+01  0.52178E+05
-0.31300001E+01  0.63402E+05
-0.30800002E+01  0.72767E+05
-0.30300002E+01  0.80141E+05
-0.29800000E+01  0.85801E+05
-0.29300001E+01  0.88921E+05
-0.28800001E+01  0.89134E+05
-0.28299999E+01  0.87887E+05
-0.27800002E+01  0.86119E+05
-0.27300000E+01  0.84065E+05
-0.26800001E+01  0.81762E+05
-0.26300001E+01  0.78047E+05
-0.25799999E+01  0.72850E+05
-0.25300002E+01  0.66340E+05
-0.24800000E+01  0.58627E+05
-0.24300001E+01  0.51487E+05
-0.23800001E+01  0.46057E+05
-0.23299999E+01  0.41933E+05
-0.22800002E+01  0.38492E+05
-0.22300000E+01  0.35879E+05
-0.21800001E+01  0.34445E+05
-0.21300001E+01  0.33538E+05
-0.20799999E+01  0.32804E+05
-0.20300002E+01  0.33124E+05
-0.19800001E+01  0.35034E+05
-0.19300001E+01  0.38579E+05
-0.18800001E+01  0.43923E+05
-0.18300002E+01  0.50865E+05
-0.17800000E+01  0.58579E+05
-0.17300000E+01  0.66330E+05
-0.16800001E+01  0.73926E+05
-0.16300001E+01  0.81091E+05
-0.15800002E+01  0.86974E+05
-0.15300000E+01  0.90393E+05
-0.14800000E+01  0.91552E+05
-0.14300001E+01  0.91174E+05
-0.13800001E+01  0.88938E+05
-0.13300002E+01  0.85262E+05
-0.12800000E+01  0.81719E+05
-0.12300000E+01  0.78592E+05
-0.11800001E+01  0.75346E+05
-0.11300001E+01  0.72899E+05
-0.10800002E+01  0.71235E+05
-0.10300000E+01  0.69130E+05
-0.98000002E+00  0.65729E+05
-0.93000007E+00  0.60488E+05
-0.88000011E+00  0.54052E+05
-0.83000016E+00  0.46579E+05
-0.77999997E+00  0.37863E+05
-0.73000002E+00  0.28616E+05
-0.68000007E+00  0.18784E+05
-0.63000011E+00  0.81020E+04
-0.58000016E+00 -0.26590E+04
-0.52999997E+00 -0.12514E+05
-0.48000002E+00 -0.21336E+05
-0.43000007E+00 -0.29856E+05
-0.38000011E+00 -0.37806E+05
-0.33000016E+00 -0.44444E+05
-0.27999997E+00 -0.50238E+05
-0.23000002E+00 -0.55435E+05
-0.18000007E+00 -0.60496E+05
-0.13000011E+00 -0.66136E+05
-0.80000162E-01 -0.71941E+05
-0.29999971E-01 -0.77460E+05
 0.19999981E-01 -0.82616E+05
 0.69999933E-01 -0.87455E+05
 0.11999989E+00 -0.91701E+05
 0.17000008E+00 -0.95536E+05
 0.21999979E+00 -0.99069E+05
 0.26999998E+00 -0.10120E+06
 0.32000017E+00 -0.10186E+06
 0.36999989E+00 -0.10084E+06
 0.42000008E+00 -0.97461E+05
 0.46999979E+00 -0.92250E+05
 0.51999998E+00 -0.85370E+05
 0.57000017E+00 -0.76898E+05
 0.61999989E+00 -0.66133E+05
 0.67000008E+00 -0.52985E+05
 0.71999979E+00 -0.38703E+05
 0.76999998E+00 -0.23509E+05
 0.82000017E+00 -0.84410E+04
 0.86999989E+00  0.57030E+04
 0.92000008E+00  0.18868E+05
 0.96999979E+00  0.29909E+05
 0.10200000E+01  0.38581E+05
 0.10700002E+01  0.44966E+05
 0.11199999E+01  0.49056E+05
 0.11700001E+01  0.51395E+05
 0.12199998E+01  0.52225E+05
 0.12700000E+01  0.51744E+05
 0.13200002E+01  0.50147E+05
 0.13699999E+01  0.47453E+05
 0.14200001E+01  0.43032E+05
 0.14699998E+01  0.36483E+05
 0.15200000E+01  0.28998E+05
 0.15700002E+01  0.21867E+05
 0.16199999E+01  0.15705E+05
 0.16700001E+01  0.10565E+05
 0.17199998E+01  0.58870E+04
 0.17700000E+01  0.13830E+04
 0.18200002E+01 -0.30800E+04
 0.18699999E+01 -0.76250E+04
 0.19200001E+01 -0.12246E+05
 0.19699998E+01 -0.17073E+05
 0.20200000E+01 -0.21521E+05
 0.20700002E+01 -0.25140E+05
 0.21199999E+01 -0.28940E+05
 0.21700001E+01 -0.32768E+05
 0.22199998E+01 -0.35956E+05
 0.22700000E+01 -0.39435E+05
 0.23200002E+01 -0.43521E+05
 0.23699999E+01 -0.48218E+05
 0.24200001E+01 -0.54012E+05
 0.24699998E+01 -0.60566E+05
 0.25200000E+01 -0.67068E+05
 0.25700002E+01 -0.73282E+05
 0.26199999E+01 -0.78934E+05
 0.26700001E+01 -0.83369E+05
 0.27199998E+01 -0.86882E+05
 0.27700000E+01 -0.89691E+05
 0.28200002E+01 -0.90918E+05
 0.28699999E+01 -0.90483E+05
 0.29200001E+01 -0.89520E+05
 0.29699998E+01 -0.88942E+05
 0.30200000E+01 -0.88072E+05
 0.30700002E+01 -0.86109E+05
 0.31199999E+01 -0.83778E+05
 0.31700001E+01 -0.82086E+05
 0.32199998E+01 -0.81745E+05
 0.32700000E+01 -0.82322E+05
 0.33200002E+01 -0.82549E+05
 0.33699999E+01 -0.82051E+05
 0.34200001E+01 -0.80760E+05
 0.34699998E+01 -0.78388E+05
 0.35200000E+01 -0.74809E+05
 0.35700002E+01 -0.69068E+05
 0.36199999E+01 -0.60086E+05
 0.36700001E+01 -0.48996E+05
 0.37199998E+01 -0.37158E+05
 0.37700000E+01 -0.24304E+05
 0.38200002E+01 -0.10453E+05
 0.38699999E+01  0.39330E+04
 0.39200001E+01  0.18952E+05
 0.39699998E+01  0.34325E+05
 0.40200000E+01  0.48995E+05
 0.40700002E+01  0.62184E+05
 0.41199999E+01  0.73676E+05
 0.41700001E+01  0.83629E+05
 0.42200003E+01  0.92352E+05
 0.42700005E+01  0.10048E+06
 0.43199997E+01  0.10799E+06
 0.43699999E+01  0.11383E+06
 0.44200001E+01  0.11774E+06
 0.44700003E+01  0.12003E+06
 0.45200005E+01  0.12121E+06
 0.45699997E+01  0.12186E+06
 0.46199999E+01  0.12193E+06
 0.46700001E+01  0.12140E+06
 0.47200003E+01  0.12056E+06
 0.47700005E+01  0.11914E+06
 0.48199997E+01  0.11636E+06
 0.48699999E+01  0.11233E+06
 0.49200001E+01  0.10694E+06
 0.49700003E+01  0.10007E+06
 0.50200005E+01  0.92727E+05
 0.50699997E+01  0.85444E+05
 0.51199999E+01  0.77847E+05
 0.51700001E+01  0.69631E+05
 0.52200003E+01  0.61118E+05
 0.52700005E+01  0.53018E+05
 0.53199997E+01  0.45980E+05
 0.53699999E+01  0.40016E+05
 0.54200001E+01  0.34223E+05
 0.54700003E+01  0.28093E+05
 0.55200005E+01  0.21305E+05
 0.55699997E+01  0.13566E+05
 0.56199999E+01  0.49720E+04
 0.56700001E+01 -0.43950E+04
 0.57200003E+01 -0.14496E+05
 0.57700005E+01 -0.25686E+05
 0.58199997E+01 -0.38284E+05
 0.58699999E+01 -0.51405E+05
 0.59200001E+01 -0.64159E+05
 0.59700003E+01 -0.76687E+05
 0.60200005E+01 -0.88698E+05
 0.60699997E+01 -0.10014E+06
 0.61199999E+01 -0.11100E+06
 0.61700001E+01 -0.12021E+06
 0.62200003E+01 -0.12715E+06
 0.62700005E+01 -0.13122E+06
 0.63199997E+01 -0.13155E+06
 0.63699999E+01 -0.12811E+06
 0.64200001E+01 -0.12166E+06
 0.64700003E+01 -0.11236E+06
 0.65200005E+01 -0.10024E+06
 0.65699997E+01 -0.86311E+05
 0.66199999E+01 -0.71114E+05
 0.66700001E+01 -0.54440E+05
 0.67200003E+01 -0.36457E+05
 0.67700005E+01 -0.18228E+05
 0.68199997E+01 -0.79100E+03
 0.68699999E+01  0.15827E+05
 0.69200001E+01  0.31176E+05
 0.69700003E+01  0.45063E+05
 0.70200005E+01  0.58198E+05
 0.70699997E+01  0.70312E+05
 0.71199999E+01  0.80359E+05
 0.71700001E+01  0.88011E+05
 0.72200003E+01  0.93520E+05
 0.72700005E+01  0.97342E+05
 0.73199997E+01  0.10014E+06
 0.73699999E+01  0.10208E+06
 0.74200001E+01  0.10338E+06
 0.74700003E+01  0.10423E+06
 0.75200005E+01  0.10465E+06
 0.75699997E+01  0.10436E+06
 0.76199999E+01  0.10258E+06
 0.76700001E+01  0.99822E+05
 0.77200003E+01  0.96799E+05
 0.77700005E+01  0.93776E+05
 0.78199997E+01  0.90880E+05
 0.78699999E+01  0.88165E+05
 0.79200001E+01  0.85126E+05
 0.79700003E+01  0.80323E+05
 0.80200005E+01  0.73683E+05
 0.80699997E+01  0.65350E+05
 0.81199999E+01  0.55066E+05
 0.81700001E+01  0.43545E+05
 0.82200003E+01  0.31141E+05
 0.82700005E+01  0.17511E+05
 0.83199997E+01  0.24760E+04
 0.83699999E+01 -0.13251E+05
 0.84200001E+01 -0.28504E+05
 0.84700003E+01 -0.42681E+05
 0.85200005E+01 -0.55537E+05
 0.85699997E+01 -0.66712E+05
 0.86199999E+01 -0.76224E+05
 0.86700001E+01 -0.84320E+05
 0.87200003E+01 -0.90981E+05
 0.87700005E+01 -0.95743E+05
 0.88199997E+01 -0.97240E+05
 0.88699999E+01 -0.94696E+05
 0.89200001E+01 -0.88416E+05
 0.89700003E+01 -0.79587E+05
 0.90200005E+01 -0.69339E+05
 0.90699997E+01 -0.57637E+05
 0.91199999E+01 -0.45862E+05
 0.91700001E+01 -0.35352E+05
 0.92200003E+01 -0.26401E+05
 0.92700005E+01 -0.20137E+05
 0.93199997E+01 -0.16178E+05
 0.93699999E+01 -0.13116E+05
 0.94200001E+01 -0.10616E+05
 0.94700003E+01 -0.95000E+04
 0.95200005E+01 -0.10613E+05
 0.95699997E+01 -0.13088E+05
 0.96199999E+01 -0.16199E+05
 0.96700001E+01 -0.20047E+05
 0.97200003E+01 -0.24874E+05
 0.97700005E+01 -0.31073E+05
 0.98199997E+01 -0.38076E+05
 0.98699999E+01 -0.45334E+05
 0.99200001E+01 -0.52451E+05
 0.99700003E+01 -0.58912E+05
 0.10020000E+02 -0.64458E+05
 0.10070000E+02 -0.68139E+05
 0.10120000E+02 -0.69289E+05
 0.10170000E+02 -0.68019E+05
 0.10220000E+02 -0.64626E+05
 0.10270000E+02 -0.59814E+05
 0.10320000E+02 -0.54343E+05
 0.10370000E+02 -0.48843E+05
 0.10420000E+02 -0.43706E+05
 0.10470000E+02 -0.38609E+05
 0.10520000E+02 -0.32823E+05
 0.10570000E+02 -0.25742E+05
 0.10620000E+02 -0.17277E+05
 0.10670000E+02 -0.82030E+04
 0.10720000E+02  0.10060E+04
 0.10770000E+02  0.10939E+05
 0.10820000E+02  0.21978E+05
 0.10870000E+02  0.33639E+05
 0.10920000E+02  0.45068E+05
 0.10970000E+02  0.55609E+05
 0.11020000E+02  0.64484E+05
 0.11070000E+02  0.70879E+05
 0.11120000E+02  0.75396E+05
 0.11170000E+02  0.78594E+05
 0.11220000E+02  0.79573E+05
 0.11270000E+02  0.77740E+05
 0.11320000E+02  0.73085E+05
 0.11370000E+02  0.66360E+05
 0.11420000E+02  0.59046E+05
 0.11470000E+02  0.52185E+05
 0.11520000E+02  0.46338E+05
 0.11570000E+02  0.41168E+05
 0.11620000E+02  0.36318E+05
 0.11670000E+02  0.32438E+05
 0.11720000E+02  0.30011E+05
 0.11770000E+02  0.28738E+05
 0.11820000E+02  0.27296E+05
 0.11870000E+02  0.25430E+05
 0.11920000E+02  0.24608E+05
 0.11970000E+02  0.25039E+05
 0.12020000E+02  0.25748E+05
 0.12070000E+02  0.25751E+05
 0.12120000E+02  0.24398E+05
 0.12170001E+02  0.20996E+05
 0.12220000E+02  0.15036E+05
 0.12270000E+02  0.70390E+04
 0.12320001E+02 -0.25040E+04
 0.12370000E+02 -0.13322E+05
 0.12420001E+02 -0.24936E+05
 0.12470000E+02 -0.36489E+05
 0.12520000E+02 -0.47366E+05
 0.12570001E+02 -0.57872E+05
 0.12620000E+02 -0.67638E+05
 0.12670001E+02 -0.75808E+05
 0.12720000E+02 -0.81980E+05
 0.12770000E+02 -0.85780E+05
 0.12820001E+02 -0.87272E+05
 0.12870000E+02 -0.86088E+05
 0.12920001E+02 -0.81935E+05
 0.12970000E+02 -0.75057E+05
 0.13020000E+02 -0.65269E+05
 0.13070001E+02 -0.53281E+05
 0.13120000E+02 -0.40120E+05
 0.13170001E+02 -0.26789E+05
 0.13220000E+02 -0.13700E+05
 0.13270000E+02 -0.61700E+03
 0.13320001E+02  0.11509E+05
 0.13370000E+02  0.21893E+05
 0.13420001E+02  0.30059E+05
 0.13470000E+02  0.35870E+05
 0.13520000E+02  0.39775E+05
 0.13570001E+02  0.42011E+05
 0.13620000E+02  0.43341E+05
 0.13670001E+02  0.44567E+05
 0.13720000E+02  0.46322E+05
 0.13770000E+02  0.49409E+05
 0.13820001E+02  0.53553E+05
 0.13870000E+02  0.57607E+05
 0.13920001E+02  0.61322E+05
 0.13970000E+02  0.65058E+05
 0.14020000E+02  0.69016E+05
 0.14070001E+02  0.73054E+05
 0.14120000E+02  0.76752E+05
 0.14170001E+02  0.80150E+05
 0.14220000E+02  0.83346E+05
 0.14270000E+02  0.86389E+05
 0.14320001E+02  0.89066E+05
 0.14370000E+02  0.90943E+05
 0.14420001E+02  0.91454E+05
 0.14470000E+02  0.89680E+05
 0.14520000E+02  0.85251E+05
 0.14570001E+02  0.78011E+05
 0.14620000E+02  0.68594E+05
 0.14670001E+02  0.58115E+05
 0.14720000E+02  0.46640E+05
 0.14770000E+02  0.34808E+05
 0.14820001E+02  0.23359E+05
 0.14870000E+02  0.12455E+05
 0.14920001E+02  0.22170E+04
 0.14970000E+02 -0.74230E+04
 0.15020000E+02 -0.15857E+05
 0.15070001E+02 -0.22947E+05
 0.15120000E+02 -0.28356E+05
 0.15170001E+02 -0.30932E+05
 0.15220000E+02 -0.30945E+05
 0.15270000E+02 -0.28948E+05
 0.15320001E+02 -0.24452E+05
 0.15370000E+02 -0.17402E+05
 0.15420001E+02 -0.84080E+04
 0.15470000E+02  0.20190E+04
 0.15520000E+02  0.13661E+05
 0.15570001E+02  0.25982E+05
 0.15620000E+02  0.38042E+05
 0.15670001E+02  0.49415E+05
 0.15720000E+02  0.59343E+05
 0.15770000E+02  0.67168E+05
 0.15820001E+02  0.72908E+05
 0.15870000E+02  0.76266E+05
 0.15920001E+02  0.77237E+05
 0.15970000E+02  0.76164E+05
 0.16020000E+02  0.73563E+05
 0.16070000E+02  0.69319E+05
 0.16119999E+02  0.63017E+05
 0.16170002E+02  0.55330E+05
 0.16220001E+02  0.46904E+05
 0.16270000E+02  0.37851E+05
 0.16320000E+02  0.28261E+05
 0.16369999E+02  0.18327E+05
 0.16420002E+02  0.84730E+04
 0.16470001E+02 -0.70700E+03
 0.16520000E+02 -0.90430E+04
 0.16570000E+02 -0.16512E+05
 0.16619999E+02 -0.22963E+05
 0.16670002E+02 -0.28714E+05
 0.16720001E+02 -0.33624E+05
 0.16770000E+02 -0.37604E+05
 0.16820000E+02 -0.40790E+05
 0.16869999E+02 -0.42932E+05
 0.16920002E+02 -0.45033E+05
 0.16970001E+02 -0.47839E+05
 0.17020000E+02 -0.51198E+05
 0.17070000E+02 -0.55213E+05
 0.17119999E+02 -0.59840E+05
 0.17170002E+02 -0.65082E+05
 0.17220001E+02 -0.70205E+05
 0.17270000E+02 -0.74521E+05
 0.17320000E+02 -0.77854E+05
 0.17369999E+02 -0.80095E+05
 0.17420002E+02 -0.81619E+05
 0.17470001E+02 -0.82535E+05
 0.17520000E+02 -0.82719E+05
 0.17570000E+02 -0.82222E+05
 0.17619999E+02 -0.81100E+05
 0.17670002E+02 -0.79579E+05
 0.17720001E+02 -0.77972E+05
 0.17770000E+02 -0.75993E+05
 0.17820000E+02 -0.73450E+05
 0.17869999E+02 -0.70558E+05
 0.17920002E+02 -0.67210E+05
 0.17970001E+02 -0.63279E+05
 0.18020000E+02 -0.58618E+05
 0.18070000E+02 -0.53086E+05
 0.18119999E+02 -0.46676E+05
 0.18170002E+02 -0.39596E+05
 0.18220001E+02 -0.31862E+05
 0.18270000E+02 -0.22839E+05
 0.18320000E+02 -0.12579E+05
 0.18369999E+02 -0.20280E+04
 0.18420002E+02  0.83100E+04
 0.18470001E+02  0.18130E+05
 0.18520000E+02  0.26471E+05
 0.18570000E+02  0.32553E+05
 0.18619999E+02  0.36924E+05
 0.18670002E+02  0.39731E+05
 0.18720001E+02  0.39915E+05
 0.18770000E+02  0.38105E+05
 0.18820000E+02  0.35054E+05
 0.18869999E+02  0.29312E+05
 0.18920002E+02  0.20746E+05
 0.18970001E+02  0.10558E+05
 0.19020000E+02 -0.23200E+03
 0.19070000E+02 -0.11023E+05
 0.19119999E+02 -0.22018E+05
 0.19170002E+02 -0.32423E+05
 0.19220001E+02 -0.41943E+05
 0.19270000E+02 -0.50929E+05
 0.19320000E+02 -0.58614E+05
 0.19369999E+02 -0.64982E+05
 0.19420002E+02 -0.70364E+05
 0.19470001E+02 -0.74251E+05
 0.19520000E+02 -0.76447E+05
 0.19570000E+02 -0.77441E+05
 0.19619999E+02 -0.77725E+05
 0.19670002E+02 -0.77490E+05
 0.19720001E+02 -0.76925E+05
 0.19770000E+02 -0.75980E+05
 0.19820000E+02 -0.74618E+05
 0.19869999E+02 -0.73357E+05
 0.19920002E+02 -0.72177E+05
 0.19970001E+02 -0.70740E+05
 0.20020000E+02 -0.68276E+05
 0.20070000E+02 -0.63632E+05
 0.20119999E+02 -0.57456E+05
 0.20170002E+02 -0.50607E+05
 0.20220001E+02 -0.43043E+05
 0.20270000E+02 -0.35007E+05
 0.20320000E+02 -0.26747E+05
 0.20369999E+02 -0.18683E+05
 0.20420002E+02 -0.11004E+05
 0.20470001E+02 -0.37170E+04
 0.20520000E+02  0.31710E+04
 0.20570000E+02  0.97970E+04
 0.20619999E+02  0.16123E+05
 0.20670002E+02  0.22111E+05
 0.20720001E+02  0.27327E+05
 0.20770000E+02  0.31925E+05
 0.20820000E+02  0.36886E+05
 0.20869999E+02  0.41876E+05
 0.20920002E+02  0.46020E+05
 0.20970001E+02  0.49506E+05
 0.21020000E+02  0.53131E+05
 0.21070000E+02  0.57401E+05
 0.21119999E+02  0.62167E+05
 0.21170002E+02  0.67154E+05
 0.21220001E+02  0.71782E+05
 0.21270000E+02  0.75550E+05
 0.21320000E+02  0.78942E+05
 0.21369999E+02  0.82851E+05
 0.21420002E+02  0.87127E+05
 0.21470001E+02  0.90600E+05
 0.21520000E+02  0.93107E+05
 0.21570000E+02  0.95177E+05
 0.21619999E+02  0.96883E+05
 0.21670002E+02  0.98369E+05
 0.21720001E+02  0.99523E+05
 0.21770000E+02  0.99683E+05
 0.21820000E+02  0.98048E+05
 0.21869999E+02  0.94601E+05
 0.21920002E+02  0.89752E+05
 0.21970001E+02  0.83493E+05
 0.22020000E+02  0.76113E+05
 0.22070000E+02  0.67950E+05
 0.22119999E+02  0.58879E+05
 0.22170002E+02  0.48843E+05
 0.22220001E+02  0.38355E+05
 0.22270000E+02  0.27380E+05
 0.22320000E+02  0.15747E+05
 0.22369999E+02  0.46890E+04
 0.22420002E+02 -0.49890E+04
 0.22470001E+02 -0.13126E+05
 0.22520000E+02 -0.19508E+05
 0.22570000E+02 -0.24271E+05
 0.22619999E+02 -0.27660E+05
 0.22670002E+02 -0.29523E+05
 0.22720001E+02 -0.29061E+05
 0.22770000E+02 -0.27068E+05
 0.22820000E+02 -0.25237E+05
 0.22869999E+02 -0.23556E+05
 0.22920002E+02 -0.21719E+05
 0.22970001E+02 -0.19550E+05
 0.23020000E+02 -0.16715E+05
 0.23070000E+02 -0.13584E+05
 0.23119999E+02 -0.10423E+05
 0.23170002E+02 -0.71130E+04
 0.23220001E+02 -0.38950E+04
 0.23270000E+02 -0.85200E+03
 0.23320000E+02  0.16510E+04
 0.23369999E+02  0.28420E+04
 0.23420002E+02  0.27800E+04
 0.23470001E+02  0.19180E+04
 0.23520000E+02  0.27500E+03
 0.23570000E+02 -0.26610E+04
 0.23619999E+02 -0.64360E+04
 0.23670002E+02 -0.10062E+05
 0.23720001E+02 -0.13610E+05
 0.23770000E+02 -0.16606E+05
 0.23820000E+02 -0.18399E+05
 0.23869999E+02 -0.19073E+05
 0.23920002E+02 -0.18843E+05
 0.23970001E+02 -0.17547E+05
 0.24020000E+02 -0.14807E+05
 0.24070000E+02 -0.11163E+05
 0.24119999E+02 -0.70480E+04
 0.24170002E+02 -0.24780E+04
 0.24220001E+02  0.24070E+04
 0.24270000E+02  0.73760E+04
 0.24320000E+02  0.12120E+05
 0.24369999E+02  0.16682E+05
 0.24420002E+02  0.20802E+05
 0.24470001E+02  0.24149E+05
 0.24520000E+02  0.26000E+05
 0.24570000E+02  0.25897E+05
 0.24619999E+02  0.24286E+05
 0.24670002E+02  0.21766E+05
 0.24720001E+02  0.19028E+05
 0.24770000E+02  0.15744E+05
 0.24820000E+02  0.11955E+05
 0.24869999E+02  0.82060E+04
 0.24920002E+02  0.50270E+04
 0.24970001E+02  0.24740E+04
 0.25020000E+02  0.37800E+03
 0.25070000E+02 -0.49700E+03
 0.25119999E+02  0.16100E+03
 0.25170002E+02  0.16500E+04
 0.25220001E+02  0.21190E+04
 0.25270000E+02  0.24640E+04
 0.25320000E+02  0.30690E+04
 0.25369999E+02  0.17130E+04
 0.25420002E+02 -0.97100E+03
 0.25470001E+02 -0.30560E+04
 0.25520000E+02 -0.65460E+04
 0.25570000E+02 -0.12062E+05
 0.25619999E+02 -0.14908E+05
 0.25670002E+02 -0.18332E+05
 0.25720001E+02 -0.24000E+05
 0.25770000E+02 -0.25392E+05
 0.25820000E+02 -0.25033E+05
 0.25869999E+02 -0.25646E+05
 0.25920002E+02 -0.24287E+05
 0.25970001E+02 -0.25647E+05
 0.26020000E+02 -0.28334E+05
 0.26070000E+02 -0.21867E+05
 0.26119999E+02 -0.11486E+05
 0.26170002E+02 -0.74940E+04
 0.26220001E+02 -0.10431E+05
 0.26270000E+02 -0.16608E+05
 0.26320000E+02 -0.17155E+05
 0.26369999E+02 -0.20139E+05
 0.26420002E+02 -0.30205E+05
 0.26470001E+02 -0.28801E+05
 0.26520000E+02 -0.26736E+05
 0.26570000E+02 -0.32628E+05
 0.26619999E+02 -0.40144E+05
 0.26670002E+02 -0.53301E+05
 0.26720001E+02 -0.56307E+05
 0.26770000E+02 -0.49553E+05
 0.26820000E+02 -0.51581E+05
 0.26869999E+02 -0.60531E+05
 0.26920002E+02 -0.77804E+05
 0.26970001E+02 -0.98813E+05
 0.27020000E+02 -0.10182E+06
 0.27070000E+02 -0.90239E+05
 0.27119999E+02 -0.76344E+05
 0.27170002E+02 -0.62491E+05
 0.27220001E+02 -0.52382E+05
 0.27270000E+02 -0.40110E+05
 0.27320000E+02 -0.24050E+05
 0.27369999E+02 -0.16149E+05
 0.27420002E+02 -0.24360E+04
 0.27470001E+02  0.30831E+05
 0.27520000E+02  0.38862E+05
 0.27570000E+02  0.19353E+05
 0.27619999E+02  0.67280E+04
 0.27670002E+02  0.34242E+05
 0.27720001E+02  0.10598E+06
 0.27770000E+02  0.12278E+06
 0.27820000E+02  0.67833E+05
 0.27869999E+02  0.29334E+05
 0.27920002E+02  0.24403E+05
 0.27970001E+02  0.44654E+05
 0.28020000E+02  0.10701E+06
 0.28070000E+02  0.13028E+06
 0.28119999E+02  0.69788E+05
 0.28169998E+02  0.21716E+05
 0.28220001E+02 -0.50252E+05
 0.28270000E+02 -0.13186E+06
 0.28320000E+02 -0.89761E+05
 0.28369999E+02 -0.82840E+04
 0.28419998E+02  0.63216E+05
 0.28470001E+02  0.13015E+06
 0.28520000E+02  0.13524E+06
 0.28570000E+02  0.13360E+06
 0.28619999E+02  0.12532E+06
 0.28669998E+02  0.19705E+06
 0.28720001E+02  0.28466E+06
 0.28770000E+02  0.16676E+06
 0.28820000E+02 -0.50323E+05
 0.28869999E+02 -0.25956E+06
 0.28919998E+02 -0.32381E+06
 0.28970001E+02 -0.18071E+06
 0.29020000E+02  0.65260E+04
 0.29070000E+02  0.15471E+06
 0.29119999E+02  0.24161E+06
 0.29169998E+02  0.18353E+06
 0.29220001E+02  0.89123E+05
 0.29270000E+02  0.12415E+06
 0.29320000E+02  0.35065E+05
 0.29369999E+02 -0.16720E+06
 0.29419998E+02 -0.12850E+06
 0.29470001E+02  0.56227E+05
 0.29520000E+02  0.15309E+06
 0.29570000E+02  0.18599E+06
 0.29619999E+02  0.12664E+06
 0.29669998E+02 -0.60960E+04
 0.29720001E+02 -0.13390E+06
 0.29770000E+02 -0.15500E+06
 0.29820000E+02  0.35551E+05
 0.29869999E+02  0.14448E+06
 0.29919998E+02  0.54513E+05
 0.29970001E+02  0.14074E+05
 0.30020000E+02  0.12630E+06
 0.30070000E+02  0.13275E+06
 0.30119999E+02 -0.34072E+05
 0.30169998E+02  0.69774E+05
 0.30220001E+02  0.20743E+06
 0.30270000E+02  0.17600E+06
 0.30320000E+02  0.32760E+06
 0.30369999E+02  0.34916E+06
 0.30419998E+02  0.10480E+06
 0.30470001E+02 -0.90219E+05
 0.30520000E+02 -0.52680E+05
 0.30570000E+02  0.79572E+05
 0.30619999E+02  0.10952E+05
 0.30669998E+02  0.17223E+06
 0.30720001E+02  0.35568E+06
 0.30770000E+02  0.18971E+06
 0.30820000E+02  0.11899E+06
 0.30869999E+02 -0.45700E+05
 0.30919998E+02 -0.12178E+06
 0.30970001E+02 -0.10037E+06
 0.31020000E+02 -0.28485E+06
 0.31070000E+02 -0.24884E+06
 0.31119999E+02  0.92153E+05
 0.31169998E+02  0.30219E+06
 0.31220001E+02 -0.48856E+05
 0.31270000E+02 -0.28650E+06
 0.31320000E+02  0.84472E+05
 0.31369999E+02  0.23851E+06
 0.31419998E+02  0.25739E+05
 0.31470001E+02 -0.93680E+04
 0.31520000E+02 -0.20596E+05
 0.31570000E+02  0.46950E+04
 0.31619999E+02  0.32064E+06
 0.31669998E+02  0.37421E+06
 0.31720001E+02  0.57572E+05
 0.31770000E+02 -0.17431E+06
 0.31820000E+02  0.76734E+05
 0.31869999E+02  0.33974E+06
 0.31919998E+02 -0.12851E+06
 0.31970001E+02 -0.80542E+06
 0.32020000E+02 -0.10978E+07
 0.32070000E+02 -0.64419E+06
 0.32119999E+02  0.41201E+05
 0.32169998E+02  0.27948E+06
 0.32220001E+02  0.41635E+06
 0.32270000E+02  0.65607E+06
 0.32320000E+02  0.60371E+06
 0.32369999E+02  0.97379E+05
 0.32419998E+02 -0.21153E+06
 0.32470001E+02 -0.48076E+06
 0.32520000E+02 -0.96440E+06
 0.32570000E+02 -0.99722E+06
 0.32619999E+02 -0.28760E+06
 0.32669998E+02  0.30444E+06
 0.32720001E+02  0.13787E+06
 0.32770000E+02  0.13294E+06
 0.32820000E+02  0.47107E+05
 0.32869999E+02  0.68508E+05
 0.32919998E+02  0.40967E+06
 0.32970001E+02  0.14409E+06
 0.33020000E+02  0.18875E+06
 0.33070000E+02 -0.60662E+05
 0.33119999E+02 -0.78629E+06
 0.33169998E+02 -0.75662E+06
 0.33220001E+02 -0.27802E+06
 0.33270000E+02  0.15117E+06
 0.33320000E+02 -0.31051E+05
 0.33369999E+02 -0.27428E+06
 0.33419998E+02 -0.33383E+06
 0.33470001E+02 -0.79638E+06
 0.33520000E+02 -0.90904E+06
 0.33570000E+02 -0.39931E+06
 0.33619999E+02 -0.16607E+06
 0.33669998E+02 -0.17058E+06
 0.33720001E+02 -0.61056E+05
 0.33770000E+02  0.43684E+05
 0.33820000E+02 -0.16076E+06
 0.33869999E+02 -0.16357E+06
 0.33919998E+02  0.15129E+06
 0.33970001E+02 -0.64553E+05
 0.34020000E+02 -0.25988E+06
 0.34070000E+02 -0.14560E+06
 0.34119999E+02 -0.19324E+05
 0.34169998E+02 -0.20484E+05
 0.34220001E+02 -0.12621E+06
 0.34270000E+02 -0.12254E+06
 0.34320000E+02 -0.93956E+05
 0.34369999E+02 -0.44289E+05
 0.34419998E+02 -0.52188E+05
 0.34470001E+02 -0.34475E+05
 0.34520000E+02  0.26142E+06
 0.34570000E+02  0.47479E+06
 0.34619999E+02  0.14692E+06
 0.34669998E+02 -0.10376E+06
 0.34720001E+02  0.72710E+04
 0.34770000E+02  0.18547E+06
 0.34820000E+02  0.59837E+06
 0.34869999E+02  0.10617E+07
 0.34919998E+02  0.91988E+06
 0.34970001E+02  0.19094E+06
 0.35020000E+02 -0.20040E+06
 0.35070000E+02  0.16233E+06
 0.35119999E+02  0.47868E+06
 0.35169998E+02  0.47473E+06
 0.35220001E+02  0.52662E+06
 0.35270000E+02  0.27387E+06
 0.35320000E+02  0.12078E+06
 0.35369999E+02  0.28723E+06
 0.35419998E+02  0.22611E+06
 0.35470001E+02  0.37329E+05
 0.35520000E+02  0.55593E+05
 0.35570000E+02  0.43971E+06
 0.35619999E+02  0.74682E+06
 0.35669998E+02  0.81749E+06
 0.35720001E+02  0.32523E+06
 0.35770000E+02 -0.43343E+06
 0.35820000E+02 -0.53140E+06
 0.35869999E+02 -0.60152E+06
 0.35919998E+02 -0.84996E+06
 0.35970001E+02 -0.72653E+06
 0.36020000E+02 -0.59102E+06
 0.36070000E+02 -0.34777E+06
 0.36119999E+02 -0.14457E+05
 0.36169998E+02 -0.16888E+06
 0.36220001E+02 -0.35690E+06
 0.36270000E+02 -0.54434E+06
 0.36320000E+02 -0.56034E+06
 0.36369999E+02 -0.31132E+06
 0.36419998E+02 -0.21650E+06
 0.36470001E+02 -0.22881E+06
 0.36520000E+02 -0.55019E+06
 0.36570000E+02 -0.40484E+06
 0.36619999E+02 -0.12156E+05
 0.36669998E+02 -0.10682E+06
 0.36720001E+02  0.52901E+05
 0.36770000E+02  0.32544E+06
 0.36820000E+02  0.39710E+06
 0.36869999E+02  0.38636E+06
 0.36919998E+02  0.30995E+06
 0.36970001E+02  0.51263E+06
 0.37020000E+02  0.83911E+06
 0.37070000E+02  0.77235E+06
 0.37119999E+02  0.44338E+06
 0.37169998E+02  0.20311E+05
 0.37220001E+02 -0.48925E+06
 0.37270000E+02 -0.91001E+06
 0.37320000E+02 -0.89023E+06
 0.37369999E+02 -0.60011E+06
 0.37419998E+02 -0.72555E+06
 0.37470001E+02 -0.87733E+06
 0.37520000E+02 -0.61292E+06
 0.37570000E+02 -0.44084E+06
 0.37619999E+02 -0.49125E+06
 0.37669998E+02 -0.53099E+06
 0.37720001E+02 -0.52630E+06
 0.37770000E+02 -0.16363E+06
 0.37820000E+02  0.46885E+06
 0.37869999E+02  0.82764E+06
 0.37919998E+02  0.79530E+06
 0.37970001E+02  0.55968E+06
 0.38020000E+02  0.57385E+06
 0.38070000E+02  0.52236E+06
 0.38119999E+02  0.29524E+06
 0.38169998E+02  0.27367E+06
 0.38220001E+02  0.56915E+05
 0.38270000E+02 -0.31366E+06
 0.38320000E+02 -0.38489E+06
 0.38369999E+02 -0.58765E+05
 0.38419998E+02  0.35963E+06
 0.38470001E+02  0.62187E+06
 0.38520000E+02  0.60504E+06
 0.38570000E+02  0.23714E+06
 0.38619999E+02 -0.52353E+05
 0.38669998E+02 -0.10352E+06
 0.38720001E+02 -0.50331E+05
 0.38770000E+02  0.12002E+06
 0.38820000E+02  0.20430E+06
 0.38869999E+02  0.22049E+06
 0.38919998E+02  0.37655E+06
 0.38970001E+02  0.54989E+06
 0.39020000E+02  0.46023E+06
 0.39070000E+02  0.93200E+04
 0.39119999E+02 -0.34554E+06
 0.39169998E+02 -0.30123E+06
 0.39220001E+02 -0.20912E+06
 0.39270000E+02 -0.32746E+06
 0.39320000E+02 -0.55382E+06
 0.39369999E+02 -0.61716E+06
 0.39419998E+02 -0.35986E+06
 0.39470001E+02 -0.39480E+04
 0.39520000E+02  0.15588E+06
 0.39570000E+02  0.18500E+06
 0.39619999E+02  0.25694E+06
 0.39669998E+02  0.34543E+06
 0.39720001E+02  0.29478E+06
 0.39770000E+02  0.23823E+06
 0.39820000E+02  0.41703E+06
 0.39869999E+02  0.65686E+06
 0.39919998E+02  0.59609E+06
 0.39970001E+02  0.29042E+06
 0.40020000E+02  0.28768E+05
 0.40070000E+02 -0.65808E+05
 0.40119999E+02  0.15868E+05
 0.40169998E+02  0.12552E+06
 0.40220001E+02  0.29048E+06
 0.40270000E+02  0.33593E+06
 0.40320000E+02  0.13654E+06
 0.40369999E+02 -0.10194E+06
 0.40419998E+02 -0.32223E+06
 0.40470001E+02 -0.60555E+06
 0.40520000E+02 -0.82484E+06
 0.40570000E+02 -0.73947E+06
 0.40619999E+02 -0.64300E+06
 0.40669998E+02 -0.59932E+06
 0.40720001E+02 -0.53187E+06
 0.40770000E+02 -0.30042E+06
 0.40820000E+02  0.10300E+06
 0.40869999E+02  0.23818E+06
 0.40919998E+02  0.14097E+06
 0.40970001E+02 -0.46689E+05
 0.41020000E+02 -0.11769E+06
 0.41070000E+02 -0.41730E+05
 0.41119999E+02  0.56738E+05
 0.41169998E+02  0.21797E+06
 0.41220001E+02  0.23650E+06
 0.41270000E+02  0.18856E+06
 0.41320000E+02  0.17842E+06
 0.41369999E+02  0.61504E+05
 0.41419998E+02 -0.97917E+05
 0.41470001E+02 -0.25619E+06
 0.41520000E+02 -0.34458E+06
 0.41570000E+02 -0.26699E+06
 0.41619999E+02 -0.78779E+05
 0.41669998E+02  0.11258E+06
 0.41720001E+02  0.17202E+06
 0.41770000E+02  0.28630E+06
 0.41820000E+02  0.42508E+06
 0.41869999E+02  0.22622E+06
 0.41919998E+02 -0.10710E+05
 0.41970001E+02 -0.13810E+06
 0.42020000E+02 -0.28960E+06
 0.42070000E+02 -0.29161E+06
 0.42119999E+02 -0.30587E+06
 0.42169998E+02 -0.40199E+06
 0.42220001E+02 -0.44718E+06
 0.42270000E+02 -0.43075E+06
 0.42320000E+02 -0.15567E+06
 0.42369999E+02  0.13310E+06
 0.42419998E+02  0.93467E+05
 0.42470001E+02 -0.34541E+05
 0.42520000E+02 -0.17613E+06
 0.42570000E+02 -0.19870E+06
 0.42619999E+02  0.32854E+05
 0.42669998E+02  0.15183E+06
 0.42720001E+02  0.22697E+06
 0.42770000E+02  0.36574E+06
 0.42820000E+02  0.26186E+06
 0.42869999E+02  0.18358E+06
 0.42919998E+02  0.18012E+06
 0.42970001E+02  0.68434E+05
 0.43020000E+02  0.13667E+06
 0.43070000E+02  0.27006E+06
 0.43119999E+02  0.19228E+06
 0.43169998E+02 -0.31114E+05
 0.43220001E+02 -0.15089E+06
 0.43270000E+02 -0.50498E+05
 0.43320000E+02 -0.36700E+04
 0.43369999E+02 -0.17810E+06
 0.43419998E+02 -0.49565E+06
 0.43470001E+02 -0.60826E+06
 0.43520000E+02 -0.40094E+06
 0.43570000E+02 -0.24889E+06
 0.43619999E+02 -0.23807E+06
 0.43669998E+02 -0.27758E+06
 0.43720001E+02 -0.14792E+06
 0.43770000E+02  0.36198E+05
 0.43820000E+02  0.14671E+06
 0.43869999E+02  0.29664E+06
 0.43919998E+02  0.21113E+06
 0.43970001E+02  0.52259E+05
 0.44020000E+02 -0.69792E+05
 0.44070000E+02 -0.25387E+06
 0.44119999E+02 -0.29616E+06
 0.44169998E+02 -0.31276E+06
 0.44220001E+02 -0.51486E+06
 0.44270000E+02 -0.63389E+06
 0.44320000E+02 -0.47479E+06
 0.44369999E+02 -0.38572E+06
 0.44419998E+02 -0.38944E+06
 0.44470001E+02 -0.19270E+06
 0.44520000E+02  0.52954E+05
 0.44570000E+02  0.17215E+06
 0.44619999E+02  0.17503E+06
 0.44669998E+02  0.28000E+04
 0.44720001E+02 -0.12625E+06
 0.44770000E+02  0.39657E+05
 0.44820000E+02  0.32776E+06
 0.44869999E+02  0.53480E+06
 0.44919998E+02  0.64005E+06
 0.44970001E+02  0.56533E+06
 0.45020000E+02  0.36429E+06
 0.45070000E+02  0.16333E+06
 0.45119999E+02 -0.73435E+05
 0.45169998E+02 -0.32191E+06
 0.45220001E+02 -0.51226E+06
 0.45270000E+02 -0.55491E+06
 0.45320000E+02 -0.53733E+06
 0.45369999E+02 -0.56048E+06
 0.45419998E+02 -0.48416E+06
 0.45470001E+02 -0.22524E+06
 0.45520000E+02  0.18631E+06
 0.45570000E+02  0.40600E+06
 0.45619999E+02  0.28551E+06
 0.45669998E+02  0.11611E+06
 0.45720001E+02 -0.75549E+05
 0.45770000E+02 -0.19400E+06
 0.45820000E+02 -0.20628E+06
 0.45869999E+02 -0.24969E+06
 0.45919998E+02 -0.44062E+06
 0.45970001E+02 -0.61088E+06
 0.46020000E+02 -0.37850E+06
 0.46070000E+02 -0.74763E+05
 0.46119999E+02  0.96935E+05
 0.46169998E+02  0.21871E+06
 0.46220001E+02  0.27567E+06
 0.46270000E+02  0.33906E+06
 0.46320000E+02  0.22082E+06
 0.46369999E+02  0.39394E+05
 0.46419998E+02  0.45327E+05
 0.46470001E+02 -0.97350E+04
 0.46520000E+02 -0.28535E+06
 0.46570000E+02 -0.54546E+06
 0.46619999E+02 -0.68311E+06
 0.46669998E+02 -0.69279E+06
 0.46720001E+02 -0.67997E+06
 0.46770000E+02 -0.78595E+06
 0.46820000E+02 -0.80779E+06
 0.46869999E+02 -0.70826E+06
 0.46919998E+02 -0.59452E+06
 0.46970001E+02 -0.43451E+06
 0.47020000E+02 -0.14046E+06
 0.47070000E+02  0.25275E+06
 0.47119999E+02  0.54974E+06
 0.47169998E+02  0.77889E+06
 0.47220001E+02  0.96634E+06
 0.47270000E+02  0.11692E+07
 0.47320000E+02  0.15392E+07
 0.47369999E+02  0.18348E+07
 0.47419998E+02  0.18606E+07
 0.47470001E+02  0.17909E+07
 0.47520000E+02  0.17158E+07
 0.47570000E+02  0.17030E+07
 0.47619999E+02  0.16939E+07
 0.47669998E+02  0.16295E+07
 0.47720001E+02  0.16100E+07
 0.47770000E+02  0.14455E+07
 0.47820000E+02  0.95157E+06
 0.47869999E+02  0.59504E+06
 0.47919998E+02  0.80189E+06
 0.47970001E+02  0.10257E+07
 0.48020000E+02  0.99516E+06
 0.48070000E+02  0.78477E+06
 0.48119999E+02  0.26203E+06
 0.48169998E+02 -0.23665E+06
 0.48220001E+02 -0.47304E+06
 0.48270000E+02 -0.56597E+06
 0.48320000E+02 -0.62508E+06
 0.48369999E+02 -0.69241E+06
 0.48419998E+02 -0.73777E+06
 0.48470001E+02 -0.59445E+06
 0.48520000E+02 -0.48102E+06
 0.48570000E+02 -0.49124E+06
 0.48619999E+02 -0.43426E+06
 0.48669998E+02 -0.54863E+06
 0.48720001E+02 -0.77107E+06
 0.48770000E+02 -0.99532E+06
 0.48820000E+02 -0.12361E+07
 0.48869999E+02 -0.15885E+07
 0.48919998E+02 -0.18916E+07
 0.48970001E+02 -0.18679E+07
 0.49020000E+02 -0.18631E+07
 0.49070000E+02 -0.19105E+07
 0.49119999E+02 -0.18674E+07
 0.49169998E+02 -0.17344E+07
 0.49220001E+02 -0.14578E+07
 0.49270000E+02 -0.11385E+07
 0.49320000E+02 -0.77336E+06
 0.49369999E+02 -0.35639E+06
 0.49419998E+02 -0.57507E+05
 0.49470001E+02  0.26380E+06
 0.49520000E+02  0.69274E+06
 0.49570000E+02  0.93831E+06
 0.49619999E+02  0.96357E+06
 0.49669998E+02  0.86121E+06
 0.49720001E+02  0.61097E+06
 0.49770000E+02  0.42648E+06
 0.49820000E+02  0.56413E+06
 0.49869999E+02  0.54256E+06
 0.49919998E+02  0.13911E+06
 0.49970001E+02 -0.10048E+06
 0.50020000E+02 -0.37273E+05
 0.50070000E+02 -0.17082E+06
 0.50119999E+02 -0.90678E+06
 0.50169998E+02 -0.17171E+07
 0.50220001E+02 -0.21635E+07
 0.50270000E+02 -0.22225E+07
 0.50320000E+02 -0.18581E+07
 0.50369999E+02 -0.16252E+07
 0.50419998E+02 -0.17182E+07
 0.50470001E+02 -0.16714E+07
 0.50520000E+02 -0.13889E+07
 0.50570000E+02 -0.12038E+07
 0.50619999E+02 -0.12240E+07
 0.50669998E+02 -0.15128E+07
 0.50720001E+02 -0.21599E+07
 0.50770000E+02 -0.25703E+07
 0.50820000E+02 -0.24379E+07
 0.50869999E+02 -0.21728E+07
 0.50919998E+02 -0.19776E+07
 0.50970001E+02 -0.16427E+07
 0.51020000E+02 -0.12404E+07
 0.51070000E+02 -0.11424E+07
 0.51119999E+02 -0.93451E+06
 0.51169998E+02 -0.37495E+06
 0.51220001E+02  0.87000E+03
 0.51270000E+02 -0.99475E+05
 0.51320000E+02 -0.44003E+06
 0.51369999E+02 -0.70539E+06
 0.51419998E+02 -0.78179E+06
 0.51470001E+02 -0.50480E+06
 0.51520000E+02 -0.28388E+06
 0.51570000E+02 -0.34324E+06
 0.51619999E+02 -0.42992E+06
 0.51669998E+02 -0.58585E+06
 0.51720001E+02 -0.52920E+06
 0.51770000E+02 -0.43383E+06
 0.51820000E+02 -0.61414E+06
 0.51869999E+02 -0.42877E+06
 0.51919998E+02  0.65805E+06
 0.51970001E+02  0.19988E+07
 0.52020000E+02  0.27891E+07
 0.52070000E+02  0.30657E+07
 0.52119999E+02  0.27605E+07
 0.52169998E+02  0.21493E+07
 0.52220001E+02  0.16841E+07
 0.52270000E+02  0.11756E+07
 0.52320000E+02  0.70406E+06
 0.52369999E+02  0.24022E+06
 0.52419998E+02 -0.46347E+06
 0.52470001E+02 -0.11642E+07
 0.52520000E+02 -0.16156E+07
 0.52570000E+02 -0.18249E+07
 0.52619999E+02 -0.17531E+07
 0.52669998E+02 -0.16781E+07
 0.52720001E+02 -0.14897E+07
 0.52770000E+02 -0.57842E+06
 0.52820000E+02  0.63611E+06
 0.52869999E+02  0.16594E+07
 0.52919998E+02  0.24330E+07
 0.52970001E+02  0.29308E+07
 0.53020000E+02  0.35414E+07
 0.53070000E+02  0.44051E+07
 0.53119999E+02  0.51654E+07
 0.53169998E+02  0.55771E+07
 0.53220001E+02  0.58419E+07
 0.53270000E+02  0.59871E+07
 0.53320000E+02  0.56977E+07
 0.53369999E+02  0.50839E+07
 0.53419998E+02  0.42574E+07
 0.53470001E+02  0.33204E+07
 0.53520000E+02  0.27033E+07
 0.53570000E+02  0.24033E+07
 0.53619999E+02  0.23107E+07
 0.53669998E+02  0.23040E+07
 0.53720001E+02  0.21318E+07
 0.53770000E+02  0.17016E+07
 0.53820000E+02  0.10603E+07
 0.53869999E+02  0.78273E+06
 0.53919998E+02  0.92810E+06
 0.53970001E+02  0.90726E+06
 0.54020000E+02  0.88737E+06
 0.54070000E+02  0.12495E+07
 0.54119999E+02  0.18438E+07
 0.54169998E+02  0.23231E+07
 0.54220001E+02  0.26742E+07
 0.54270000E+02  0.29242E+07
 0.54320000E+02  0.30824E+07
 0.54369999E+02  0.33440E+07
 0.54419998E+02  0.34439E+07
 0.54470001E+02  0.33234E+07
 0.54520000E+02  0.30974E+07
 0.54570000E+02  0.26453E+07
 0.54619999E+02  0.23833E+07
 0.54669998E+02  0.26477E+07
 0.54720001E+02  0.30958E+07
 0.54770000E+02  0.31783E+07
 0.54820000E+02  0.29669E+07
 0.54869999E+02  0.28483E+07
 0.54919998E+02  0.29000E+07
 0.54970001E+02  0.30678E+07
 0.55020000E+02  0.30406E+07
 0.55070000E+02  0.26597E+07
 0.55119999E+02  0.20472E+07
 0.55169998E+02  0.13278E+07
 0.55220001E+02  0.55557E+06
 0.55270000E+02  0.93975E+05
 0.55320000E+02  0.39618E+06
 0.55369999E+02  0.69973E+06
 0.55419998E+02  0.37283E+06
 0.55470001E+02 -0.12561E+06
 0.55520000E+02 -0.49415E+06
 0.55570000E+02 -0.51659E+06
 0.55619999E+02 -0.39603E+06
 0.55669998E+02 -0.56944E+06
 0.55720001E+02 -0.10274E+07
 0.55770000E+02 -0.16468E+07
 0.55820000E+02 -0.21973E+07
 0.55869999E+02 -0.25584E+07
 0.55919998E+02 -0.27809E+07
 0.55970001E+02 -0.29743E+07
 0.56020000E+02 -0.31251E+07
 0.56070000E+02 -0.29842E+07
 0.56119999E+02 -0.25049E+07
 0.56169998E+02 -0.16893E+07
 0.56220001E+02 -0.77583E+06
 0.56270000E+02 -0.25238E+06
 0.56320000E+02 -0.99857E+05
 0.56369999E+02 -0.20557E+06
 0.56419998E+02 -0.50138E+06
 0.56470001E+02 -0.80923E+06
 0.56520000E+02 -0.10300E+07
 0.56570000E+02 -0.11902E+07
 0.56619999E+02 -0.13541E+07
 0.56669998E+02 -0.12681E+07
 0.56720001E+02 -0.84724E+06
 0.56770000E+02 -0.35084E+06
 0.56820000E+02  0.14294E+06
 0.56869999E+02  0.77178E+06
 0.56919998E+02  0.14458E+07
 0.56970001E+02  0.18316E+07
 0.57020000E+02  0.18886E+07
 0.57070000E+02  0.17492E+07
 0.57119999E+02  0.16440E+07
 0.57169998E+02  0.17169E+07
 0.57220001E+02  0.16434E+07
 0.57270000E+02  0.13300E+07
 0.57320000E+02  0.79009E+06
 0.57369999E+02 -0.41473E+05
 0.57419998E+02 -0.74488E+06
 0.57470001E+02 -0.10242E+07
 0.57520000E+02 -0.90326E+06
 0.57570000E+02 -0.77686E+06
 0.57619999E+02 -0.99299E+06
 0.57669998E+02 -0.13210E+07
 0.57720001E+02 -0.15840E+07
 0.57770000E+02 -0.17689E+07
 0.57820000E+02 -0.18404E+07
 0.57869999E+02 -0.17464E+07
 0.57919998E+02 -0.15681E+07
 0.57970001E+02 -0.14308E+07
 0.58020000E+02 -0.14162E+07
 0.58070000E+02 -0.14007E+07
 0.58119999E+02 -0.11832E+07
 0.58169998E+02 -0.84852E+06
 0.58220001E+02 -0.56948E+06
 0.58270000E+02 -0.48598E+06
 0.58320000E+02 -0.33057E+06
 0.58369999E+02  0.63420E+04
 0.58419998E+02  0.16241E+06
 0.58470001E+02  0.22634E+06
 0.58520000E+02  0.42794E+06
 0.58570000E+02  0.62607E+06
 0.58619999E+02  0.62072E+06
 0.58669998E+02  0.57085E+06
 0.58720001E+02  0.58104E+06
 0.58770000E+02  0.46478E+06
 0.58820000E+02  0.38834E+06
 0.58869999E+02  0.50843E+06
 0.58919998E+02  0.55999E+06
 0.58970001E+02  0.29186E+06
 0.59020000E+02 -0.30308E+06
 0.59070000E+02 -0.10993E+07
 0.59119999E+02 -0.19350E+07
 0.59169998E+02 -0.27224E+07
 0.59220001E+02 -0.35096E+07
 0.59270000E+02 -0.41666E+07
 0.59320000E+02 -0.44415E+07
 0.59369999E+02 -0.45116E+07
 0.59419998E+02 -0.47270E+07
 0.59470001E+02 -0.50822E+07
 0.59520000E+02 -0.53756E+07
 0.59570000E+02 -0.54589E+07
 0.59619999E+02 -0.52820E+07
 0.59669998E+02 -0.50030E+07
 0.59720001E+02 -0.49159E+07
 0.59770000E+02 -0.49911E+07
 0.59820000E+02 -0.50937E+07
 0.59869999E+02 -0.52432E+07
 0.59919998E+02 -0.53617E+07
 0.59970001E+02 -0.52604E+07
 0.60020000E+02 -0.49243E+07
 0.60070000E+02 -0.46335E+07
 0.60119999E+02 -0.44077E+07
 0.60170002E+02 -0.40831E+07
 0.60219997E+02 -0.37025E+07
 0.60270000E+02 -0.33943E+07
 0.60320004E+02 -0.33317E+07
 0.60369999E+02 -0.35372E+07
 0.60420002E+02 -0.38454E+07
 0.60469997E+02 -0.39703E+07
 0.60520000E+02 -0.37686E+07
 0.60570004E+02 -0.34913E+07
 0.60619999E+02 -0.32682E+07
 0.60670002E+02 -0.30169E+07
 0.60719997E+02 -0.27990E+07
 0.60770000E+02 -0.27087E+07
 0.60820004E+02 -0.26205E+07
 0.60869999E+02 -0.22888E+07
 0.60920002E+02 -0.18480E+07
 0.60969997E+02 -0.15524E+07
 0.61020000E+02 -0.13705E+07
 0.61070004E+02 -0.11727E+07
 0.61119999E+02 -0.87887E+06
 0.61170002E+02 -0.69678E+06
 0.61219997E+02 -0.83247E+06
 0.61270000E+02 -0.11999E+07
 0.61320004E+02 -0.15362E+07
 0.61369999E+02 -0.14994E+07
 0.61420002E+02 -0.94567E+06
 0.61469997E+02 -0.11915E+06
 0.61520000E+02  0.49267E+06
 0.61570004E+02  0.69926E+06
 0.61619999E+02  0.67138E+06
 0.61670002E+02  0.59691E+06
 0.61719997E+02  0.57367E+06
 0.61770000E+02  0.64000E+06
 0.61820004E+02  0.86583E+06
 0.61869999E+02  0.11933E+07
 0.61920002E+02  0.14963E+07
 0.61969997E+02  0.17034E+07
 0.62020000E+02  0.17347E+07
 0.62070004E+02  0.17033E+07
 0.62119999E+02  0.17673E+07
 0.62170002E+02  0.18323E+07
 0.62219997E+02  0.17851E+07
 0.62270000E+02  0.15522E+07
 0.62320004E+02  0.11418E+07
 0.62369999E+02  0.82300E+06
 0.62420002E+02  0.78098E+06
 0.62469997E+02  0.10066E+07
 0.62520000E+02  0.14004E+07
 0.62570004E+02  0.17924E+07
 0.62619999E+02  0.20795E+07
 0.62670002E+02  0.21936E+07
 0.62719997E+02  0.22638E+07
 0.62770000E+02  0.24180E+07
 0.62820004E+02  0.24874E+07
 0.62869999E+02  0.24047E+07
 0.62920002E+02  0.22452E+07
 0.62969997E+02  0.19775E+07
 0.63020000E+02  0.16225E+07
 0.63070004E+02  0.14359E+07
 0.63119999E+02  0.15873E+07
 0.63170002E+02  0.18507E+07
 0.63219997E+02  0.19786E+07
 0.63270000E+02  0.19840E+07
 0.63320004E+02  0.18957E+07
 0.63369999E+02  0.17759E+07
 0.63420002E+02  0.17583E+07
 0.63469997E+02  0.17522E+07
 0.63520000E+02  0.16326E+07
 0.63570004E+02  0.14448E+07
 0.63619999E+02  0.13389E+07
 0.63670002E+02  0.13285E+07
 0.63719997E+02  0.12900E+07
 0.63770000E+02  0.12625E+07
 0.63820004E+02  0.11316E+07
 0.63869999E+02  0.78490E+06
 0.63920002E+02  0.29717E+06
 0.63969997E+02 -0.21886E+06
 0.64020004E+02 -0.58644E+06
 0.64070007E+02 -0.77105E+06
 0.64120003E+02 -0.75782E+06
 0.64170006E+02 -0.59468E+06
 0.64220001E+02 -0.43294E+06
 0.64270004E+02 -0.32678E+06
 0.64320007E+02 -0.28477E+06
 0.64370003E+02 -0.20660E+06
 0.64420006E+02  0.33361E+05
 0.64470001E+02  0.44055E+06
 0.64520004E+02  0.10165E+07
 0.64570007E+02  0.16539E+07
 0.64620003E+02  0.21588E+07
 0.64670006E+02  0.24749E+07
 0.64720001E+02  0.25494E+07
 0.64770004E+02  0.23772E+07
 0.64820007E+02  0.20915E+07
 0.64870003E+02  0.18619E+07
 0.64920006E+02  0.18298E+07
 0.64970001E+02  0.19368E+07
 0.65020004E+02  0.20191E+07
 0.65070007E+02  0.20441E+07
 0.65120003E+02  0.20127E+07
 0.65170006E+02  0.18109E+07
 0.65220001E+02  0.14875E+07
 0.65270004E+02  0.12304E+07
 0.65320007E+02  0.97638E+06
 0.65370003E+02  0.68737E+06
 0.65420006E+02  0.43957E+06
 0.65470001E+02  0.23645E+06
 0.65520004E+02  0.12286E+06
 0.65570007E+02  0.13657E+06
 0.65620003E+02  0.29254E+06
 0.65670006E+02  0.51285E+06
 0.65720001E+02  0.64300E+06
 0.65770004E+02  0.66333E+06
 0.65820007E+02  0.65138E+06
 0.65870003E+02  0.64495E+06
 0.65920006E+02  0.58830E+06
 0.65970001E+02  0.45277E+06
 0.66020004E+02  0.29373E+06
 0.66070007E+02  0.12998E+06
 0.66120003E+02 -0.13065E+05
 0.66170006E+02 -0.15117E+06
 0.66220001E+02 -0.37999E+06
 0.66270004E+02 -0.64389E+06
 0.66320007E+02 -0.75829E+06
 0.66370003E+02 -0.68437E+06
 0.66420006E+02 -0.55149E+06
 0.66470001E+02 -0.51992E+06
 0.66520004E+02 -0.68471E+06
 0.66570007E+02 -0.98051E+06
 0.66620003E+02 -0.13103E+07
 0.66670006E+02 -0.15512E+07
 0.66720001E+02 -0.15403E+07
 0.66770004E+02 -0.12989E+07
 0.66820007E+02 -0.99823E+06
 0.66870003E+02 -0.78595E+06
 0.66920006E+02 -0.60347E+06
 0.66970001E+02 -0.38921E+06
 0.67020004E+02 -0.21401E+06
 0.67070007E+02 -0.12014E+06
 0.67120003E+02 -0.16515E+06
 0.67170006E+02 -0.29467E+06
 0.67220001E+02 -0.37144E+06
 0.67270004E+02 -0.38928E+06
 0.67320007E+02 -0.39478E+06
 0.67370003E+02 -0.35269E+06
 0.67420006E+02 -0.25512E+06
 0.67470001E+02 -0.15870E+06
 0.67520004E+02 -0.13646E+06
 0.67570007E+02 -0.20049E+06
 0.67620003E+02 -0.26636E+06
 0.67670006E+02 -0.30987E+06
 0.67720001E+02 -0.33799E+06
 0.67770004E+02 -0.35542E+06
 0.67820007E+02 -0.30373E+06
 0.67870003E+02 -0.16988E+06
 0.67920006E+02 -0.38785E+05
 0.67970001E+02  0.12130E+06
 0.68020004E+02  0.29584E+06
 0.68070007E+02  0.45804E+06
 0.68120003E+02  0.54234E+06
 0.68170006E+02  0.43310E+06
 0.68220001E+02  0.23912E+06
 0.68270004E+02  0.81851E+05
 0.68320007E+02 -0.23944E+05
 0.68370003E+02 -0.13996E+06
 0.68420006E+02 -0.29522E+06
 0.68470001E+02 -0.38458E+06
 0.68520004E+02 -0.33300E+06
 0.68570007E+02 -0.12708E+06
 0.68620003E+02  0.15515E+06
 0.68670006E+02  0.42727E+06
 0.68720001E+02  0.65988E+06
 0.68770004E+02  0.88462E+06
 0.68820007E+02  0.11628E+07
 0.68870003E+02  0.14540E+07
 0.68920006E+02  0.16965E+07
 0.68970001E+02  0.18486E+07
 0.69020004E+02  0.18635E+07
 0.69070007E+02  0.16878E+07
 0.69120003E+02  0.13601E+07
 0.69170006E+02  0.10145E+07
 0.69220001E+02  0.72382E+06
 0.69270004E+02  0.49578E+06
 0.69320007E+02  0.27387E+06
 0.69370003E+02  0.61380E+04
 0.69420006E+02 -0.28354E+06
 0.69470001E+02 -0.51262E+06
 0.69520004E+02 -0.63484E+06
 0.69570007E+02 -0.68037E+06
 0.69620003E+02 -0.60812E+06
 0.69670006E+02 -0.35707E+06
 0.69720001E+02  0.67995E+05
 0.69770004E+02  0.59416E+06
 0.69820007E+02  0.10351E+07
 0.69870003E+02  0.12819E+07
 0.69920006E+02  0.13322E+07
 0.69970001E+02  0.11977E+07
 0.70020004E+02  0.96758E+06
 0.70070007E+02  0.77367E+06
 0.70120003E+02  0.71603E+06
 0.70170006E+02  0.73108E+06
 0.70220001E+02  0.76525E+06
 0.70270004E+02  0.85190E+06
 0.70320007E+02  0.94175E+06
 0.70370003E+02  0.10219E+07
 0.70420006E+02  0.11055E+07
 0.70470001E+02  0.12313E+07
 0.70520004E+02  0.14628E+07
 0.70570007E+02  0.17672E+07
 0.70620003E+02  0.20559E+07
 0.70670006E+02  0.23077E+07
 0.70720001E+02  0.25460E+07
 0.70770004E+02  0.27374E+07
 0.70820007E+02  0.27832E+07
 0.70870003E+02  0.26482E+07
 0.70920006E+02  0.24586E+07
 0.70970001E+02  0.23541E+07
 0.71020004E+02  0.24021E+07
 0.71070007E+02  0.25111E+07
 0.71120003E+02  0.25156E+07
 0.71170006E+02  0.23812E+07
 0.71220001E+02  0.21488E+07
 0.71270004E+02  0.18948E+07
 0.71320007E+02  0.16479E+07
 0.71370003E+02  0.13910E+07
 0.71420006E+02  0.11306E+07
 0.71470001E+02  0.85655E+06
 0.71520004E+02  0.59735E+06
 0.71570007E+02  0.33251E+06
 0.71620003E+02 -0.29594E+05
 0.71670006E+02 -0.44621E+06
 0.71720001E+02 -0.84622E+06
 0.71770004E+02 -0.11999E+07
 0.71820007E+02 -0.14547E+07
 0.71870003E+02 -0.15827E+07
 0.71920006E+02 -0.15918E+07
 0.71970001E+02 -0.15419E+07
 0.72020004E+02 -0.14853E+07
 0.72070007E+02 -0.14206E+07
 0.72120003E+02 -0.13129E+07
 0.72170006E+02 -0.11183E+07
 0.72220001E+02 -0.83893E+06
 0.72270004E+02 -0.55830E+06
 0.72320007E+02 -0.36619E+06
 0.72370003E+02 -0.27391E+06
 0.72420006E+02 -0.22634E+06
 0.72470001E+02 -0.17149E+06
 0.72520004E+02 -0.12117E+06
 0.72570007E+02 -0.74110E+05
 0.72620003E+02 -0.17276E+05
 0.72670006E+02  0.16300E+05
 0.72720001E+02  0.14756E+05
 0.72770004E+02  0.25083E+05
 0.72820007E+02  0.87842E+05
 0.72870003E+02  0.14183E+06
 0.72920006E+02  0.13298E+06
 0.72970001E+02  0.55744E+05
 0.73020004E+02 -0.53977E+05
 0.73070007E+02 -0.93136E+05
 0.73120003E+02 -0.57124E+05
 0.73170006E+02 -0.13793E+05
 0.73220001E+02 -0.21955E+05
 0.73270004E+02 -0.77891E+05
 0.73320007E+02 -0.17914E+06
 0.73370003E+02 -0.36339E+06
 0.73420006E+02 -0.59178E+06
 0.73470001E+02 -0.83091E+06
 0.73520004E+02 -0.10079E+07
 0.73570007E+02 -0.10942E+07
 0.73620003E+02 -0.11439E+07
 0.73670006E+02 -0.11502E+07
 0.73720001E+02 -0.11145E+07
 0.73770004E+02 -0.10356E+07
 0.73820007E+02 -0.92210E+06
 0.73870003E+02 -0.77970E+06
 0.73920006E+02 -0.64073E+06
 0.73970001E+02 -0.61659E+06
 0.74020004E+02 -0.75926E+06
 0.74070007E+02 -0.99602E+06
 0.74120003E+02 -0.12302E+07
 0.74170006E+02 -0.14167E+07
 0.74220001E+02 -0.15233E+07
 0.74270004E+02 -0.15802E+07
 0.74320007E+02 -0.16223E+07
 0.74370003E+02 -0.16120E+07
 0.74420006E+02 -0.15475E+07
 0.74470001E+02 -0.14680E+07
 0.74520004E+02 -0.14067E+07
 0.74570007E+02 -0.13782E+07
 0.74620003E+02 -0.13799E+07
 0.74670006E+02 -0.13607E+07
 0.74720001E+02 -0.12880E+07
 0.74770004E+02 -0.12035E+07
 0.74820007E+02 -0.11049E+07
 0.74870003E+02 -0.96929E+06
 0.74920006E+02 -0.82142E+06
 0.74970001E+02 -0.67724E+06
 0.75020004E+02 -0.53735E+06
 0.75070007E+02 -0.45536E+06
 0.75120003E+02 -0.48164E+06
 0.75170006E+02 -0.59416E+06
 0.75220001E+02 -0.71776E+06
 0.75270004E+02 -0.78491E+06
 0.75320007E+02 -0.80815E+06
 0.75370003E+02 -0.81805E+06
 0.75420006E+02 -0.82945E+06
 0.75470001E+02 -0.84113E+06
 0.75520004E+02 -0.83697E+06
 0.75570007E+02 -0.83713E+06
 0.75620003E+02 -0.87922E+06
 0.75670006E+02 -0.98229E+06
 0.75720001E+02 -0.11306E+07
 0.75770004E+02 -0.12331E+07
 0.75820007E+02 -0.12117E+07
 0.75870003E+02 -0.11232E+07
 0.75920006E+02 -0.10624E+07
 0.75970001E+02 -0.10487E+07
 0.76020004E+02 -0.10398E+07
 0.76070007E+02 -0.10226E+07
 0.76120003E+02 -0.10023E+07
 0.76170006E+02 -0.96012E+06
 0.76220001E+02 -0.90655E+06
 0.76270004E+02 -0.87140E+06
 0.76320007E+02 -0.86292E+06
 0.76370003E+02 -0.87579E+06
 0.76420006E+02 -0.89050E+06
 0.76470001E+02 -0.87884E+06
 0.76520004E+02 -0.82470E+06
 0.76570007E+02 -0.69894E+06
 0.76620003E+02 -0.51828E+06
 0.76670006E+02 -0.31955E+06
 0.76720001E+02 -0.10074E+06
 0.76770004E+02  0.11579E+06
 0.76820007E+02  0.31870E+06
 0.76870003E+02  0.51910E+06
 0.76920006E+02  0.70994E+06
 0.76970001E+02  0.84812E+06
 0.77020004E+02  0.88366E+06
 0.77070007E+02  0.80913E+06
 0.77120003E+02  0.65123E+06
 0.77170006E+02  0.47093E+06
 0.77220001E+02  0.34313E+06
 0.77270004E+02  0.30527E+06
 0.77320007E+02  0.32900E+06
 0.77370003E+02  0.36615E+06
 0.77420006E+02  0.39249E+06
 0.77470001E+02  0.39841E+06
 0.77520004E+02  0.40708E+06
 0.77570007E+02  0.43167E+06
 0.77620003E+02  0.46807E+06
 0.77670006E+02  0.53283E+06
 0.77720001E+02  0.63216E+06
 0.77770004E+02  0.76885E+06
 0.77820007E+02  0.94703E+06
 0.77870003E+02  0.11326E+07
 0.77920006E+02  0.12823E+07
 0.77970001E+02  0.13701E+07
 0.78020004E+02  0.13620E+07
 0.78070007E+02  0.12985E+07
 0.78120003E+02  0.12393E+07
 0.78170006E+02  0.11650E+07
 0.78220001E+02  0.10680E+07
 0.78270004E+02  0.97508E+06
 0.78320007E+02  0.93375E+06
 0.78370003E+02  0.95817E+06
 0.78420006E+02  0.10050E+07
 0.78470001E+02  0.10176E+07
 0.78520004E+02  0.98162E+06
 0.78570007E+02  0.93411E+06
 0.78620003E+02  0.89132E+06
 0.78670006E+02  0.85537E+06
 0.78720001E+02  0.82693E+06
 0.78770004E+02  0.81670E+06
 0.78820007E+02  0.83021E+06
 0.78870003E+02  0.84715E+06
 0.78920006E+02  0.86452E+06
 0.78970001E+02  0.87855E+06
 0.79020004E+02  0.87314E+06
 0.79070007E+02  0.80422E+06
 0.79120003E+02  0.62835E+06
 0.79170006E+02  0.38527E+06
 0.79220001E+02  0.13858E+06
 0.79270004E+02 -0.83716E+05
 0.79320007E+02 -0.26977E+06
 0.79370003E+02 -0.42610E+06
 0.79420006E+02 -0.57583E+06
 0.79470001E+02 -0.72255E+06
 0.79520004E+02 -0.81652E+06
 0.79570007E+02 -0.81894E+06
 0.79620003E+02 -0.73708E+06
 0.79670006E+02 -0.59937E+06
 0.79720001E+02 -0.46505E+06
 0.79770004E+02 -0.36897E+06
 0.79820007E+02 -0.32429E+06
 0.79870003E+02 -0.31511E+06
 0.79920006E+02 -0.29662E+06
 0.79970001E+02 -0.26948E+06
 0.80020004E+02 -0.22640E+06
 0.80070007E+02 -0.17730E+06
 0.80120003E+02 -0.16984E+06
 0.80170006E+02 -0.22328E+06
 0.80220001E+02 -0.30847E+06
 0.80270004E+02 -0.36799E+06
 0.80320007E+02 -0.40532E+06
 0.80370003E+02 -0.44516E+06
 0.80420006E+02 -0.48832E+06
 0.80470001E+02 -0.54568E+06
 0.80520004E+02 -0.59584E+06
 0.80570007E+02 -0.61141E+06
 0.80620003E+02 -0.59061E+06
 0.80670006E+02 -0.55476E+06
 0.80720001E+02 -0.56108E+06
 0.80770004E+02 -0.63964E+06
 0.80820007E+02 -0.78919E+06
 0.80870003E+02 -0.10026E+07
 0.80920006E+02 -0.12500E+07
 0.80970001E+02 -0.14712E+07
 0.81020004E+02 -0.16123E+07
 0.81070007E+02 -0.16853E+07
 0.81120003E+02 -0.17196E+07
 0.81170006E+02 -0.17155E+07
 0.81220001E+02 -0.16741E+07
 0.81270004E+02 -0.16481E+07
 0.81320007E+02 -0.16517E+07
 0.81370003E+02 -0.16351E+07
 0.81420006E+02 -0.15875E+07
 0.81470001E+02 -0.14987E+07
 0.81520004E+02 -0.13883E+07
 0.81570007E+02 -0.12933E+07
 0.81620003E+02 -0.11977E+07
 0.81670006E+02 -0.10885E+07
 0.81720001E+02 -0.98276E+06
 0.81770004E+02 -0.89134E+06
 0.81820007E+02 -0.79631E+06
 0.81870003E+02 -0.67452E+06
 0.81920006E+02 -0.51437E+06
 0.81970001E+02 -0.33738E+06
 0.82020004E+02 -0.18061E+06
 0.82070007E+02 -0.40923E+05
 0.82120003E+02  0.83137E+05
 0.82170006E+02  0.18197E+06
 0.82220001E+02  0.29050E+06
 0.82270004E+02  0.42716E+06
 0.82320007E+02  0.56013E+06
 0.82370003E+02  0.65643E+06
 0.82420006E+02  0.69954E+06
 0.82470001E+02  0.74023E+06
 0.82520004E+02  0.84404E+06
 0.82570007E+02  0.10107E+07
 0.82620003E+02  0.12250E+07
 0.82670006E+02  0.14635E+07
 0.82720001E+02  0.16782E+07
 0.82770004E+02  0.18150E+07
 0.82820007E+02  0.18491E+07
 0.82870003E+02  0.17898E+07
 0.82920006E+02  0.16767E+07
 0.82970001E+02  0.15664E+07
 0.83020004E+02  0.14501E+07
 0.83070007E+02  0.12821E+07
 0.83120003E+02  0.10758E+07
 0.83170006E+02  0.87676E+06
 0.83220001E+02  0.70835E+06
 0.83270004E+02  0.57726E+06
 0.83320007E+02  0.49374E+06
 0.83370003E+02  0.47789E+06
 0.83420006E+02  0.54534E+06
 0.83470001E+02  0.66254E+06
 0.83520004E+02  0.75646E+06
 0.83570007E+02  0.79000E+06
 0.83620003E+02  0.77791E+06
 0.83670006E+02  0.74264E+06
 0.83720001E+02  0.68855E+06
 0.83770004E+02  0.61283E+06
 0.83820007E+02  0.55151E+06
 0.83870003E+02  0.55679E+06
 0.83920006E+02  0.62116E+06
 0.83970001E+02  0.70218E+06
 0.84020004E+02  0.77159E+06
 0.84070007E+02  0.82290E+06
 0.84120003E+02  0.85520E+06
 0.84170006E+02  0.86648E+06
 0.84220001E+02  0.87829E+06
 0.84270004E+02  0.90669E+06
 0.84320007E+02  0.93231E+06
 0.84370003E+02  0.95563E+06
 0.84420006E+02  0.99461E+06
 0.84470001E+02  0.10332E+07
 0.84520004E+02  0.10583E+07
 0.84570007E+02  0.10710E+07
 0.84620003E+02  0.10734E+07
 0.84670006E+02  0.10640E+07
 0.84720001E+02  0.10334E+07
 0.84770004E+02  0.98688E+06
 0.84820007E+02  0.91952E+06
 0.84870003E+02  0.82892E+06
 0.84920006E+02  0.73288E+06
 0.84970001E+02  0.63700E+06
 0.85020004E+02  0.54239E+06
 0.85070007E+02  0.44584E+06
 0.85120003E+02  0.35045E+06
 0.85170006E+02  0.27196E+06
 0.85220001E+02  0.22203E+06
 0.85270004E+02  0.19752E+06
 0.85320007E+02  0.18511E+06
 0.85370003E+02  0.17875E+06
 0.85420006E+02  0.15475E+06
 0.85470001E+02  0.91203E+05
 0.85520004E+02 -0.32490E+04
 0.85570007E+02 -0.11340E+06
 0.85620003E+02 -0.22220E+06
 0.85670006E+02 -0.31071E+06
 0.85720001E+02 -0.37330E+06
 0.85770004E+02 -0.42429E+06
 0.85820007E+02 -0.48603E+06
 0.85870003E+02 -0.57280E+06
 0.85920006E+02 -0.66802E+06
 0.85970001E+02 -0.76676E+06
 0.86020004E+02 -0.87488E+06
 0.86070007E+02 -0.98202E+06
 0.86120003E+02 -0.11087E+07
 0.86170006E+02 -0.12516E+07
 0.86220001E+02 -0.13728E+07
 0.86270004E+02 -0.14656E+07
 0.86320007E+02 -0.15198E+07
 0.86370003E+02 -0.15059E+07
 0.86420006E+02 -0.14278E+07
 0.86470001E+02 -0.13376E+07
 0.86520004E+02 -0.12752E+07
 0.86570007E+02 -0.12303E+07
 0.86620003E+02 -0.11764E+07
 0.86670006E+02 -0.10978E+07
 0.86720001E+02 -0.98831E+06
 0.86770004E+02 -0.86248E+06
 0.86820007E+02 -0.73399E+06
 0.86870003E+02 -0.59310E+06
 0.86920006E+02 -0.42817E+06
 0.86970001E+02 -0.25323E+06
 0.87020004E+02 -0.89228E+05
 0.87070007E+02  0.63961E+05
 0.87120003E+02  0.18343E+06
 0.87170006E+02  0.24380E+06
 0.87220001E+02  0.25843E+06
 0.87270004E+02  0.23146E+06
 0.87320007E+02  0.14987E+06
 0.87370003E+02 -0.52210E+04
 0.87420006E+02 -0.21437E+06
 0.87470001E+02 -0.38760E+06
 0.87520004E+02 -0.46197E+06
 0.87570007E+02 -0.44448E+06
 0.87620003E+02 -0.35563E+06
 0.87670006E+02 -0.22959E+06
 0.87720001E+02 -0.11431E+06
 0.87770004E+02 -0.12340E+05
 0.87820007E+02  0.10186E+06
 0.87870003E+02  0.23062E+06
 0.87920006E+02  0.36386E+06
 0.87970001E+02  0.49130E+06
 0.88020004E+02  0.60328E+06
 0.88070007E+02  0.70541E+06
 0.88120003E+02  0.82068E+06
 0.88170006E+02  0.93416E+06
 0.88220001E+02  0.10135E+07
 0.88270004E+02  0.10608E+07
 0.88320007E+02  0.11103E+07
 0.88370003E+02  0.11878E+07
 0.88420006E+02  0.12660E+07
 0.88470001E+02  0.13184E+07
 0.88520004E+02  0.13306E+07
 0.88570007E+02  0.12896E+07
 0.88620003E+02  0.11934E+07
 0.88670006E+02  0.10370E+07
 0.88720001E+02  0.84242E+06
 0.88770004E+02  0.64456E+06
 0.88820007E+02  0.46222E+06
 0.88870003E+02  0.30844E+06
 0.88920006E+02  0.17804E+06
 0.88970001E+02  0.77779E+05
 0.89020004E+02  0.36156E+05
 0.89070007E+02  0.51363E+05
 0.89120003E+02  0.91998E+05
 0.89170006E+02  0.13444E+06
 0.89220001E+02  0.17468E+06
 0.89270004E+02  0.20636E+06
 0.89320007E+02  0.22145E+06
 0.89370003E+02  0.21966E+06
 0.89420006E+02  0.21175E+06
 0.89470001E+02  0.20144E+06
 0.89520004E+02  0.16697E+06
 0.89570007E+02  0.11296E+06
 0.89620003E+02  0.59780E+05
 0.89670006E+02  0.98450E+04
 0.89720001E+02 -0.35316E+05
 0.89770004E+02 -0.85228E+05
 0.89820007E+02 -0.14334E+06
 0.89870003E+02 -0.21201E+06
 0.89920006E+02 -0.30321E+06
 0.89970001E+02 -0.41566E+06
 0.90020004E+02 -0.56558E+06
 0.90070007E+02 -0.77458E+06
 0.90120003E+02 -0.10142E+07
 0.90170006E+02 -0.12283E+07
 0.90220001E+02 -0.13799E+07
 0.90270004E+02 -0.14608E+07
 0.90320007E+02 -0.14843E+07
 0.90370003E+02 -0.14659E+07
 0.90420006E+02 -0.14117E+07
 0.90470001E+02 -0.13300E+07
 0.90520004E+02 -0.12297E+07
 0.90570007E+02 -0.11283E+07
 0.90620003E+02 -0.10412E+07
 0.90670006E+02 -0.95998E+06
 0.90720001E+02 -0.85858E+06
 0.90770004E+02 -0.72675E+06
 0.90820007E+02 -0.59992E+06
 0.90870003E+02 -0.51016E+06
 0.90920006E+02 -0.46626E+06
 0.90970001E+02 -0.45144E+06
 0.91020004E+02 -0.41493E+06
 0.91070007E+02 -0.33285E+06
 0.91120003E+02 -0.22044E+06
 0.91170006E+02 -0.95916E+05
 0.91220001E+02  0.35670E+05
 0.91270004E+02  0.17455E+06
 0.91320007E+02  0.32889E+06
 0.91370003E+02  0.51380E+06
 0.91420006E+02  0.72191E+06
 0.91470001E+02  0.93396E+06
 0.91520004E+02  0.11229E+07
 0.91570007E+02  0.12785E+07
 0.91620003E+02  0.14161E+07
 0.91670006E+02  0.15236E+07
 0.91720001E+02  0.15957E+07
 0.91770004E+02  0.16361E+07
 0.91820007E+02  0.16208E+07
 0.91870003E+02  0.15480E+07
 0.91920006E+02  0.14359E+07
 0.91970001E+02  0.12981E+07
 0.92020004E+02  0.11429E+07
 0.92070007E+02  0.96859E+06
 0.92120003E+02  0.78031E+06
 0.92170006E+02  0.57817E+06
 0.92220001E+02  0.35672E+06
 0.92270004E+02  0.11930E+06
 0.92320007E+02 -0.12924E+06
 0.92370003E+02 -0.37271E+06
 0.92420006E+02 -0.58378E+06
 0.92470001E+02 -0.74072E+06
 0.92520004E+02 -0.85806E+06
 0.92570007E+02 -0.97767E+06
 0.92620003E+02 -0.11056E+07
 0.92670006E+02 -0.12205E+07
 0.92720001E+02 -0.13104E+07
 0.92770004E+02 -0.13807E+07
 0.92820007E+02 -0.14574E+07
 0.92870003E+02 -0.15486E+07
 0.92920006E+02 -0.16409E+07
 0.92970001E+02 -0.17193E+07
 0.93020004E+02 -0.17795E+07
 0.93070007E+02 -0.18471E+07
 0.93120003E+02 -0.19325E+07
 0.93170006E+02 -0.20247E+07
 0.93220001E+02 -0.21116E+07
 0.93270004E+02 -0.21770E+07
 0.93320007E+02 -0.22157E+07
 0.93370003E+02 -0.22193E+07
 0.93420006E+02 -0.21781E+07
 0.93470001E+02 -0.20862E+07
 0.93520004E+02 -0.19419E+07
 0.93570007E+02 -0.17662E+07
 0.93620003E+02 -0.15958E+07
 0.93670006E+02 -0.14597E+07
 0.93720001E+02 -0.13683E+07
 0.93770004E+02 -0.13177E+07
 0.93820007E+02 -0.12740E+07
 0.93870003E+02 -0.11835E+07
 0.93920006E+02 -0.10321E+07
 0.93970001E+02 -0.84463E+06
 0.94020004E+02 -0.64477E+06
 0.94070007E+02 -0.44503E+06
 0.94120003E+02 -0.24126E+06
 0.94170006E+02 -0.27053E+05
 0.94220001E+02  0.18498E+06
 0.94270004E+02  0.37819E+06
 0.94320007E+02  0.55742E+06
 0.94370003E+02  0.73138E+06
 0.94420006E+02  0.89201E+06
 0.94470001E+02  0.10225E+07
 0.94520004E+02  0.11126E+07
 0.94570007E+02  0.11852E+07
 0.94620003E+02  0.12818E+07
 0.94670006E+02  0.14149E+07
 0.94720001E+02  0.15589E+07
 0.94770004E+02  0.16880E+07
 0.94820007E+02  0.17971E+07
 0.94870003E+02  0.18780E+07
 0.94920006E+02  0.19295E+07
 0.94970001E+02  0.19681E+07
 0.95020004E+02  0.20027E+07
 0.95070007E+02  0.20395E+07
 0.95120003E+02  0.20944E+07
 0.95170006E+02  0.21682E+07
 0.95220001E+02  0.22395E+07
 0.95270004E+02  0.22821E+07
 0.95320007E+02  0.22820E+07
 0.95370003E+02  0.22427E+07
 0.95420006E+02  0.21722E+07
 0.95470001E+02  0.20825E+07
 0.95520004E+02  0.19892E+07
 0.95570007E+02  0.18956E+07
 0.95620003E+02  0.17826E+07
 0.95670006E+02  0.16389E+07
 0.95720001E+02  0.14713E+07
 0.95770004E+02  0.12686E+07
 0.95820007E+02  0.10279E+07
 0.95870003E+02  0.77591E+06
 0.95920006E+02  0.53709E+06
 0.95970001E+02  0.32312E+06
 0.96020004E+02  0.13930E+06
 0.96070007E+02 -0.13668E+05
 0.96120003E+02 -0.12101E+06
 0.96170006E+02 -0.16532E+06
 0.96220001E+02 -0.16978E+06
 0.96270004E+02 -0.17008E+06
 0.96320007E+02 -0.18039E+06
 0.96370003E+02 -0.19382E+06
 0.96420006E+02 -0.19537E+06
 0.96470001E+02 -0.18910E+06
 0.96520004E+02 -0.17700E+06
 0.96570007E+02 -0.15644E+06
 0.96620003E+02 -0.13641E+06
 0.96670006E+02 -0.12131E+06
 0.96720001E+02 -0.11129E+06
 0.96770004E+02 -0.11019E+06
 0.96820007E+02 -0.13148E+06
 0.96870003E+02 -0.17080E+06
 0.96920006E+02 -0.19810E+06
 0.96970001E+02 -0.20193E+06
 0.97020004E+02 -0.18863E+06
 0.97070007E+02 -0.17968E+06
 0.97120003E+02 -0.20434E+06
 0.97170006E+02 -0.26571E+06
 0.97220001E+02 -0.35033E+06
 0.97270004E+02 -0.44084E+06
 0.97320007E+02 -0.53042E+06
 0.97370003E+02 -0.62832E+06
 0.97420006E+02 -0.72752E+06
 0.97470001E+02 -0.80880E+06
 0.97520004E+02 -0.85790E+06
 0.97570007E+02 -0.86098E+06
 0.97620003E+02 -0.80607E+06
 0.97670006E+02 -0.69540E+06
 0.97720001E+02 -0.55624E+06
 0.97770004E+02 -0.41381E+06
 0.97820007E+02 -0.27815E+06
 0.97870003E+02 -0.15769E+06
 0.97920006E+02 -0.59000E+05
 0.97970001E+02  0.45000E+03
 0.98020004E+02  0.72840E+04
 0.98070007E+02 -0.27050E+05
 0.98120003E+02 -0.74318E+05
 0.98170006E+02 -0.10584E+06
 0.98220001E+02 -0.11086E+06
 0.98270004E+02 -0.89611E+05
 0.98320007E+02 -0.68420E+05
 0.98370003E+02 -0.78301E+05
 0.98420006E+02 -0.11267E+06
 0.98470001E+02 -0.16391E+06
 0.98520004E+02 -0.23729E+06
 0.98570007E+02 -0.32129E+06
 0.98620003E+02 -0.38064E+06
 0.98670006E+02 -0.39754E+06
 0.98720001E+02 -0.38572E+06
 0.98770004E+02 -0.35352E+06
 0.98820007E+02 -0.30082E+06
 0.98870003E+02 -0.23602E+06
 0.98920006E+02 -0.16544E+06
 0.98970001E+02 -0.84920E+05
 0.99020004E+02 -0.61350E+04
 0.99070007E+02  0.56444E+05
 0.99120003E+02  0.10576E+06
 0.99170006E+02  0.14783E+06
 0.99220001E+02  0.18782E+06
 0.99270004E+02  0.22723E+06
 0.99320007E+02  0.26212E+06
 0.99370003E+02  0.27885E+06
 0.99420006E+02  0.27105E+06
 0.99470001E+02  0.25024E+06
 0.99520004E+02  0.22587E+06
 0.99570007E+02  0.20502E+06
 0.99620003E+02  0.19257E+06
 0.99670006E+02  0.18592E+06
 0.99720001E+02  0.17432E+06
 0.99770004E+02  0.14912E+06
 0.99820007E+02  0.11292E+06
 0.99870003E+02  0.64225E+05
 0.99920006E+02  0.29500E+04
 0.99970001E+02 -0.60478E+05
 0.10002000E+03 -0.10198E+06
 0.10007001E+03 -0.10256E+06
 0.10012000E+03 -0.66530E+05
 0.10017001E+03 -0.94640E+04
 0.10022000E+03  0.39818E+05
 0.10027000E+03  0.66210E+05
 0.10032001E+03  0.75043E+05
 0.10037000E+03  0.74376E+05
 0.10042001E+03  0.72992E+05
 0.10047000E+03  0.75970E+05
 0.10052000E+03  0.91334E+05
 0.10057001E+03  0.11210E+06
 0.10062000E+03  0.12420E+06
 0.10067001E+03  0.12682E+06
 0.10072000E+03  0.11392E+06
 0.10077000E+03  0.84704E+05
 0.10082001E+03  0.47020E+05
 0.10087000E+03 -0.12880E+04
 0.10092001E+03 -0.63923E+05
 0.10097000E+03 -0.13650E+06
 0.10102000E+03 -0.19799E+06
 0.10107001E+03 -0.22959E+06
 0.10112000E+03 -0.23658E+06
 0.10117001E+03 -0.22435E+06
 0.10122000E+03 -0.19495E+06
 0.10127000E+03 -0.15364E+06
 0.10132001E+03 -0.10944E+06
 0.10137000E+03 -0.72625E+05
 0.10142001E+03 -0.44454E+05
 0.10147000E+03 -0.28198E+05
 0.10152000E+03 -0.20884E+05
 0.10157001E+03 -0.10200E+05
 0.10162000E+03  0.10239E+05
 0.10167001E+03  0.40677E+05
 0.10172000E+03  0.81865E+05
 0.10177000E+03  0.13654E+06
 0.10182001E+03  0.19182E+06
 0.10187000E+03  0.22804E+06
 0.10192001E+03  0.24508E+06
 0.10197000E+03  0.25635E+06
 0.10202000E+03  0.26374E+06
 0.10207001E+03  0.24872E+06
 0.10212000E+03  0.18960E+06
 0.10217001E+03  0.74333E+05
 0.10222000E+03 -0.88605E+05
 0.10227000E+03 -0.27203E+06
 0.10232001E+03 -0.45062E+06
 0.10237000E+03 -0.60704E+06
 0.10242001E+03 -0.72980E+06
 0.10247000E+03 -0.81008E+06
 0.10252000E+03 -0.84469E+06
 0.10257001E+03 -0.84376E+06
 0.10262000E+03 -0.81582E+06
 0.10267001E+03 -0.76398E+06
 0.10272000E+03 -0.68870E+06
 0.10277000E+03 -0.58916E+06
 0.10282001E+03 -0.48237E+06
 0.10287000E+03 -0.38364E+06
 0.10292001E+03 -0.29153E+06
 0.10297000E+03 -0.20850E+06
 0.10302000E+03 -0.14028E+06
 0.10307001E+03 -0.88140E+05
 0.10312000E+03 -0.51406E+05
 0.10317001E+03 -0.33529E+05
 0.10322000E+03 -0.34972E+05
 0.10327000E+03 -0.37598E+05
 0.10332001E+03 -0.27685E+05
 0.10337000E+03 -0.18517E+05
 0.10342001E+03 -0.21152E+05
 0.10347000E+03 -0.38926E+05
 0.10352000E+03 -0.78216E+05
 0.10357001E+03 -0.14216E+06
 0.10362000E+03 -0.23518E+06
 0.10367001E+03 -0.35155E+06
 0.10372000E+03 -0.46179E+06
 0.10377000E+03 -0.53931E+06
 0.10382001E+03 -0.58844E+06
 0.10387000E+03 -0.61674E+06
 0.10392001E+03 -0.61576E+06
 0.10397000E+03 -0.58605E+06
 0.10402000E+03 -0.53493E+06
 0.10407001E+03 -0.46098E+06
 0.10412000E+03 -0.36834E+06
 0.10417001E+03 -0.27782E+06
 0.10422000E+03 -0.20518E+06
 0.10427000E+03 -0.14852E+06
 0.10432001E+03 -0.10189E+06
 0.10437000E+03 -0.51158E+05
 0.10442001E+03  0.16782E+05
 0.10447000E+03  0.95514E+05
 0.10452000E+03  0.17954E+06
 0.10457001E+03  0.26468E+06
 0.10462000E+03  0.34670E+06
 0.10467001E+03  0.43145E+06
 0.10472000E+03  0.51441E+06
 0.10477000E+03  0.58441E+06
 0.10482001E+03  0.63531E+06
 0.10487000E+03  0.66275E+06
 0.10492001E+03  0.66765E+06
 0.10497000E+03  0.65108E+06
 0.10502000E+03  0.61240E+06
 0.10507001E+03  0.56094E+06
 0.10512000E+03  0.51136E+06
 0.10517001E+03  0.47351E+06
 0.10522000E+03  0.46361E+06
 0.10527000E+03  0.48998E+06
 0.10532001E+03  0.53978E+06
 0.10537000E+03  0.59189E+06
 0.10542001E+03  0.63141E+06
 0.10547000E+03  0.65910E+06
 0.10552000E+03  0.67629E+06
 0.10557001E+03  0.69198E+06
 0.10562000E+03  0.71580E+06
 0.10567001E+03  0.74702E+06
 0.10572000E+03  0.78761E+06
 0.10577000E+03  0.83502E+06
 0.10582001E+03  0.88524E+06
 0.10587000E+03  0.92472E+06
 0.10592001E+03  0.94323E+06
 0.10597000E+03  0.94404E+06
 0.10602000E+03  0.92836E+06
 0.10607001E+03  0.90262E+06
 0.10612000E+03  0.86707E+06
 0.10617001E+03  0.81120E+06
 0.10622000E+03  0.73928E+06
 0.10627000E+03  0.67358E+06
 0.10632001E+03  0.62402E+06
 0.10637000E+03  0.58327E+06
 0.10642001E+03  0.54083E+06
 0.10647000E+03  0.48542E+06
 0.10652000E+03  0.41714E+06
 0.10657001E+03  0.34322E+06
 0.10662000E+03  0.26449E+06
 0.10667001E+03  0.17953E+06
 0.10672000E+03  0.88270E+05
 0.10677000E+03 -0.45810E+04
 0.10682001E+03 -0.93628E+05
 0.10687000E+03 -0.17933E+06
 0.10692001E+03 -0.26667E+06
 0.10697000E+03 -0.36038E+06
 0.10702000E+03 -0.45893E+06
 0.10707001E+03 -0.55911E+06
 0.10712000E+03 -0.65794E+06
 0.10717001E+03 -0.74685E+06
 0.10722000E+03 -0.81606E+06
 0.10727000E+03 -0.86886E+06
 0.10732001E+03 -0.91563E+06
 0.10737000E+03 -0.96341E+06
 0.10742001E+03 -0.10169E+07
 0.10747000E+03 -0.10724E+07
 0.10752000E+03 -0.11213E+07
 0.10757001E+03 -0.11533E+07
 0.10762000E+03 -0.11570E+07
 0.10767001E+03 -0.11190E+07
 0.10772000E+03 -0.10307E+07
 0.10777000E+03 -0.89631E+06
 0.10782001E+03 -0.72496E+06
 0.10787000E+03 -0.52951E+06
 0.10792001E+03 -0.32715E+06
 0.10797000E+03 -0.13161E+06
 0.10802000E+03  0.51703E+05
 0.10807001E+03  0.22105E+06
 0.10812000E+03  0.37413E+06
 0.10817001E+03  0.51135E+06
 0.10822000E+03  0.62653E+06
 0.10827000E+03  0.70635E+06
 0.10832001E+03  0.74228E+06
 0.10837000E+03  0.73485E+06
 0.10842001E+03  0.69357E+06
 0.10847000E+03  0.63222E+06
 0.10852000E+03  0.56282E+06
 0.10857001E+03  0.49709E+06
 0.10862000E+03  0.44833E+06
 0.10867001E+03  0.42390E+06
 0.10872000E+03  0.42099E+06
 0.10877000E+03  0.42525E+06
 0.10882001E+03  0.41906E+06
 0.10887000E+03  0.39098E+06
 0.10892001E+03  0.33779E+06
 0.10897000E+03  0.26464E+06
 0.10902000E+03  0.17949E+06
 0.10907001E+03  0.82140E+05
 0.10912000E+03 -0.37552E+05
 0.10917001E+03 -0.17998E+06
 0.10922000E+03 -0.33539E+06
 0.10927000E+03 -0.49454E+06
 0.10932001E+03 -0.65242E+06
 0.10937000E+03 -0.80392E+06
 0.10942001E+03 -0.93801E+06
 0.10947000E+03 -0.10498E+07
 0.10952000E+03 -0.11412E+07
 0.10957001E+03 -0.12124E+07
 0.10962000E+03 -0.12591E+07
 0.10967001E+03 -0.12784E+07
 0.10972000E+03 -0.12716E+07
 0.10977000E+03 -0.12476E+07
 0.10982001E+03 -0.12163E+07
 0.10987000E+03 -0.11778E+07
 0.10992001E+03 -0.11407E+07
 0.10997000E+03 -0.11168E+07
 0.11002000E+03 -0.10988E+07
 0.11007001E+03 -0.10715E+07
 0.11012000E+03 -0.10287E+07
 0.11017001E+03 -0.96726E+06
 0.11022000E+03 -0.88287E+06
 0.11027000E+03 -0.78089E+06
 0.11032001E+03 -0.66891E+06
 0.11037000E+03 -0.55546E+06
 0.11042001E+03 -0.45136E+06
 0.11047000E+03 -0.35772E+06
 0.11052000E+03 -0.27658E+06
 0.11057001E+03 -0.21086E+06
 0.11062000E+03 -0.15539E+06
 0.11067001E+03 -0.10773E+06
 0.11072000E+03 -0.63862E+05
 0.11077000E+03 -0.22618E+05
 0.11082001E+03  0.91610E+04
 0.11087000E+03  0.27613E+05
 0.11092001E+03  0.31856E+05
 0.11097000E+03  0.24940E+05
 0.11102000E+03  0.12585E+05
 0.11107001E+03  0.72760E+04
 0.11112000E+03  0.18345E+05
 0.11117001E+03  0.41320E+05
 0.11122000E+03  0.77569E+05
 0.11127000E+03  0.13268E+06
 0.11132001E+03  0.20582E+06
 0.11137000E+03  0.29546E+06
 0.11142001E+03  0.39838E+06
 0.11147000E+03  0.50384E+06
 0.11152000E+03  0.60346E+06
 0.11157001E+03  0.70081E+06
 0.11162000E+03  0.79550E+06
 0.11167001E+03  0.88342E+06
 0.11172000E+03  0.96572E+06
 0.11177000E+03  0.10346E+07
 0.11182001E+03  0.10712E+07
 0.11187000E+03  0.10688E+07
 0.11192001E+03  0.10374E+07
 0.11197000E+03  0.98551E+06
 0.11202000E+03  0.91721E+06
 0.11207001E+03  0.83565E+06
 0.11212000E+03  0.74626E+06
 0.11217001E+03  0.65206E+06
 0.11222000E+03  0.55266E+06
 0.11227000E+03  0.45013E+06
 0.11232001E+03  0.33853E+06
 0.11237000E+03  0.21577E+06
 0.11242001E+03  0.91978E+05
 0.11247000E+03 -0.22823E+05
 0.11252000E+03 -0.11941E+06
 0.11257001E+03 -0.20020E+06
 0.11262000E+03 -0.27852E+06
 0.11267001E+03 -0.36212E+06
 0.11272000E+03 -0.44731E+06
 0.11277000E+03 -0.52741E+06
 0.11282001E+03 -0.59634E+06
 0.11287000E+03 -0.64305E+06
 0.11292001E+03 -0.66158E+06
 0.11297000E+03 -0.64946E+06
 0.11302000E+03 -0.60579E+06
 0.11307001E+03 -0.53546E+06
 0.11312000E+03 -0.44602E+06
 0.11317001E+03 -0.34861E+06
 0.11322000E+03 -0.24954E+06
 0.11327000E+03 -0.15105E+06
 0.11332001E+03 -0.57041E+05
 0.11337000E+03  0.26533E+05
 0.11342001E+03  0.94139E+05
 0.11347000E+03  0.14212E+06
 0.11352000E+03  0.16745E+06
 0.11357001E+03  0.17277E+06
 0.11362000E+03  0.16204E+06
 0.11367001E+03  0.13713E+06
 0.11372000E+03  0.10293E+06
 0.11377000E+03  0.64656E+05
 0.11382001E+03  0.22480E+05
 0.11387000E+03 -0.23248E+05
 0.11392001E+03 -0.71589E+05
 0.11397000E+03 -0.11671E+06
 0.11402000E+03 -0.15299E+06
 0.11407001E+03 -0.18372E+06
 0.11412000E+03 -0.20265E+06
 0.11417001E+03 -0.19743E+06
 0.11422000E+03 -0.16108E+06
 0.11427000E+03 -0.95142E+05
 0.11432001E+03 -0.10202E+05
 0.11437000E+03  0.83028E+05
 0.11442001E+03  0.17724E+06
 0.11447000E+03  0.27418E+06
 0.11452000E+03  0.37856E+06
 0.11457001E+03  0.48486E+06
 0.11462000E+03  0.58539E+06
 0.11467001E+03  0.67909E+06
 0.11472000E+03  0.76434E+06
 0.11477000E+03  0.84182E+06
 0.11482001E+03  0.91166E+06
 0.11487000E+03  0.96556E+06
 0.11492001E+03  0.99637E+06
 0.11497000E+03  0.10044E+07
 0.11502000E+03  0.99782E+06
 0.11507001E+03  0.98775E+06
 0.11512000E+03  0.98130E+06
 0.11517001E+03  0.97770E+06
 0.11522000E+03  0.96920E+06
 0.11527000E+03  0.95052E+06
 0.11532001E+03  0.92205E+06
 0.11537000E+03  0.88254E+06
 0.11542001E+03  0.83050E+06
 0.11547000E+03  0.77070E+06
 0.11552000E+03  0.71138E+06
 0.11557001E+03  0.65420E+06
 0.11562000E+03  0.59264E+06
 0.11567001E+03  0.52632E+06
 0.11572000E+03  0.46143E+06
 0.11577000E+03  0.39969E+06
 0.11582001E+03  0.33367E+06
 0.11587000E+03  0.25342E+06
 0.11592001E+03  0.16056E+06
 0.11597000E+03  0.64876E+05
 0.11602000E+03 -0.25079E+05
 0.11607001E+03 -0.10467E+06
 0.11612000E+03 -0.17213E+06
 0.11617001E+03 -0.23396E+06
 0.11622000E+03 -0.29828E+06
 0.11627000E+03 -0.36473E+06
 0.11632001E+03 -0.43357E+06
 0.11637000E+03 -0.50182E+06
 0.11642001E+03 -0.56167E+06
 0.11647000E+03 -0.60131E+06
 0.11652000E+03 -0.61334E+06
 0.11657001E+03 -0.60723E+06
 0.11662000E+03 -0.59647E+06
 0.11667001E+03 -0.59554E+06
 0.11672000E+03 -0.60963E+06
 0.11677000E+03 -0.62876E+06
 0.11682001E+03 -0.64674E+06
 0.11687000E+03 -0.65777E+06
 0.11692001E+03 -0.65567E+06
 0.11697000E+03 -0.64372E+06
 0.11702000E+03 -0.63046E+06
 0.11707001E+03 -0.62514E+06
 0.11712000E+03 -0.63168E+06
 0.11717001E+03 -0.64733E+06
 0.11722000E+03 -0.66610E+06
 0.11727000E+03 -0.68246E+06
 0.11732001E+03 -0.69063E+06
 0.11737000E+03 -0.67850E+06
 0.11742001E+03 -0.63936E+06
 0.11747000E+03 -0.57955E+06
 0.11752000E+03 -0.50829E+06
 0.11757001E+03 -0.42832E+06
 0.11762000E+03 -0.33431E+06
 0.11767001E+03 -0.22144E+06
 0.11772000E+03 -0.90794E+05
 0.11777000E+03  0.49554E+05
 0.11782001E+03  0.18402E+06
 0.11787000E+03  0.30186E+06
 0.11792001E+03  0.40086E+06
 0.11797000E+03  0.47910E+06
 0.11802000E+03  0.54011E+06
 0.11807001E+03  0.58738E+06
 0.11812000E+03  0.61689E+06
 0.11817001E+03  0.62270E+06
 0.11822000E+03  0.60184E+06
 0.11827000E+03  0.56442E+06
 0.11832001E+03  0.52861E+06
 0.11837000E+03  0.50204E+06
 0.11842001E+03  0.47934E+06
 0.11847000E+03  0.45591E+06
 0.11852000E+03  0.42719E+06
 0.11857001E+03  0.38631E+06
 0.11862000E+03  0.33859E+06
 0.11867001E+03  0.29384E+06
 0.11872000E+03  0.25776E+06
 0.11877000E+03  0.23436E+06
 0.11882001E+03  0.22242E+06
 0.11887000E+03  0.21974E+06
 0.11892001E+03  0.22229E+06
 0.11897000E+03  0.22662E+06
 0.11902000E+03  0.23626E+06
 0.11907001E+03  0.25406E+06
 0.11912000E+03  0.27959E+06
 0.11917001E+03  0.31272E+06
 0.11922000E+03  0.34668E+06
 0.11927000E+03  0.36994E+06
 0.11932001E+03  0.37690E+06
 0.11937000E+03  0.36967E+06
 0.11942001E+03  0.35378E+06
 0.11947000E+03  0.33598E+06
 0.11952000E+03  0.32406E+06
 0.11957001E+03  0.32016E+06
 0.11962000E+03  0.32011E+06
 0.11967001E+03  0.31855E+06
 0.11972000E+03  0.31070E+06
 0.11977000E+03  0.29436E+06
 0.11982001E+03  0.26974E+06
 0.11987000E+03  0.23974E+06
 0.11992001E+03  0.21210E+06
 0.11997000E+03  0.19062E+06
 0.12002000E+03  0.16858E+06
 0.12007001E+03  0.14110E+06
 0.12012000E+03  0.11048E+06
 0.12017001E+03  0.84670E+05
 0.12022000E+03  0.76311E+05
 0.12027000E+03  0.88254E+05
 0.12032001E+03  0.10860E+06
 0.12037000E+03  0.12472E+06
 0.12042001E+03  0.12701E+06
 0.12047000E+03  0.11096E+06
 0.12052000E+03  0.81127E+05
 0.12057001E+03  0.46354E+05
 0.12062000E+03  0.13300E+05
 0.12067001E+03 -0.16697E+05
 0.12072000E+03 -0.47113E+05
 0.12077000E+03 -0.82263E+05
 0.12082001E+03 -0.11617E+06
 0.12087000E+03 -0.13916E+06
 0.12092001E+03 -0.14969E+06
 0.12097000E+03 -0.14873E+06
 0.12102000E+03 -0.13415E+06
 0.12107001E+03 -0.10201E+06
 0.12112000E+03 -0.55984E+05
 0.12117001E+03 -0.73590E+04
 0.12122000E+03  0.32971E+05
 0.12127000E+03  0.59367E+05
 0.12132001E+03  0.71923E+05
 0.12137000E+03  0.73009E+05
 0.12142001E+03  0.63736E+05
 0.12147000E+03  0.40444E+05
 0.12152000E+03  0.14780E+04
 0.12157001E+03 -0.47048E+05
 0.12162000E+03 -0.96917E+05
 0.12167001E+03 -0.14410E+06
 0.12172000E+03 -0.18744E+06
 0.12177000E+03 -0.22864E+06
 0.12182001E+03 -0.27327E+06
 0.12187000E+03 -0.32190E+06
 0.12192001E+03 -0.37148E+06
 0.12197000E+03 -0.42097E+06
 0.12202000E+03 -0.46718E+06
 0.12207001E+03 -0.50574E+06
 0.12212000E+03 -0.53862E+06
 0.12217001E+03 -0.57050E+06
 0.12222000E+03 -0.59875E+06
 0.12227000E+03 -0.62144E+06
 0.12232001E+03 -0.64047E+06
 0.12237000E+03 -0.65896E+06
 0.12242001E+03 -0.68142E+06
 0.12247000E+03 -0.70905E+06
 0.12252000E+03 -0.73846E+06
 0.12257001E+03 -0.76055E+06
 0.12262000E+03 -0.77056E+06
 0.12267001E+03 -0.77297E+06
 0.12272000E+03 -0.77222E+06
 0.12277000E+03 -0.76888E+06
 0.12282001E+03 -0.76047E+06
 0.12287000E+03 -0.74293E+06
 0.12292001E+03 -0.71181E+06
 0.12297000E+03 -0.66848E+06
 0.12302000E+03 -0.61923E+06
 0.12307001E+03 -0.56753E+06
 0.12312000E+03 -0.51427E+06
 0.12317001E+03 -0.45917E+06
 0.12322000E+03 -0.39922E+06
 0.12327000E+03 -0.33296E+06
 0.12332001E+03 -0.26342E+06
 0.12337000E+03 -0.19400E+06
 0.12342001E+03 -0.12374E+06
 0.12347000E+03 -0.51363E+05
 0.12352000E+03  0.17629E+05
 0.12357001E+03  0.75469E+05
 0.12362000E+03  0.11687E+06
 0.12367001E+03  0.14201E+06
 0.12372000E+03  0.15545E+06
 0.12377000E+03  0.16074E+06
 0.12382001E+03  0.16088E+06
 0.12387000E+03  0.16146E+06
 0.12392001E+03  0.17028E+06
 0.12397000E+03  0.18682E+06
 0.12402000E+03  0.19868E+06
 0.12407001E+03  0.19654E+06
 0.12412000E+03  0.17903E+06
 0.12417001E+03  0.14534E+06
 0.12422001E+03  0.98622E+05
 0.12427001E+03  0.44109E+05
 0.12432000E+03 -0.13149E+05
 0.12437000E+03 -0.67483E+05
 0.12442001E+03 -0.11980E+06
 0.12447001E+03 -0.17312E+06
 0.12452001E+03 -0.22939E+06
 0.12457000E+03 -0.29229E+06
 0.12462000E+03 -0.35872E+06
 0.12467001E+03 -0.41789E+06
 0.12472001E+03 -0.45978E+06
 0.12477001E+03 -0.48274E+06
 0.12482000E+03 -0.49253E+06
 0.12487000E+03 -0.49402E+06
 0.12492001E+03 -0.49304E+06
 0.12497001E+03 -0.49520E+06
 0.12502001E+03 -0.50230E+06
 0.12507000E+03 -0.51390E+06
 0.12512000E+03 -0.52498E+06
 0.12517001E+03 -0.53102E+06
 0.12522001E+03 -0.53033E+06
 0.12527001E+03 -0.51919E+06
 0.12532000E+03 -0.49688E+06
 0.12537000E+03 -0.46770E+06
 0.12542001E+03 -0.43483E+06
 0.12547001E+03 -0.39758E+06
 0.12552001E+03 -0.35459E+06
 0.12557000E+03 -0.30864E+06
 0.12562000E+03 -0.26258E+06
 0.12567001E+03 -0.21676E+06
 0.12572001E+03 -0.17314E+06
 0.12577001E+03 -0.13304E+06
 0.12582000E+03 -0.95151E+05
 0.12587000E+03 -0.59642E+05
 0.12592001E+03 -0.30344E+05
 0.12597001E+03 -0.81610E+04
 0.12602001E+03  0.92470E+04
 0.12607000E+03  0.22718E+05
 0.12612000E+03  0.32089E+05
 0.12617001E+03  0.38503E+05
 0.12622001E+03  0.48830E+05
 0.12627001E+03  0.68239E+05
 0.12632000E+03  0.95065E+05
 0.12637000E+03  0.12405E+06
 0.12642001E+03  0.15093E+06
 0.12647001E+03  0.17569E+06
 0.12652001E+03  0.19894E+06
 0.12657000E+03  0.22257E+06
 0.12662000E+03  0.24740E+06
 0.12667001E+03  0.27183E+06
 0.12672001E+03  0.29712E+06
 0.12677001E+03  0.32519E+06
 0.12682000E+03  0.35083E+06
 0.12687000E+03  0.36673E+06
 0.12692001E+03  0.37374E+06
 0.12697001E+03  0.37445E+06
 0.12702001E+03  0.37166E+06
 0.12707000E+03  0.37167E+06
 0.12712000E+03  0.37975E+06
 0.12717001E+03  0.40080E+06
 0.12722001E+03  0.43524E+06
 0.12727001E+03  0.47878E+06
 0.12732000E+03  0.52655E+06
 0.12737000E+03  0.57592E+06
 0.12742001E+03  0.62703E+06
 0.12747001E+03  0.67697E+06
 0.12752001E+03  0.72320E+06
 0.12757000E+03  0.76232E+06
 0.12762000E+03  0.79061E+06
 0.12767001E+03  0.80491E+06
 0.12772001E+03  0.80218E+06
 0.12777001E+03  0.78573E+06
 0.12782000E+03  0.76185E+06
 0.12787000E+03  0.73614E+06
 0.12792001E+03  0.71078E+06
 0.12797001E+03  0.68742E+06
 0.12802000E+03  0.67054E+06
 0.12806999E+03  0.66043E+06
 0.12812000E+03  0.65470E+06
 0.12817000E+03  0.65479E+06
 0.12822000E+03  0.66327E+06
 0.12827000E+03  0.67830E+06
 0.12831999E+03  0.68827E+06
 0.12837000E+03  0.68068E+06
 0.12842000E+03  0.65428E+06
 0.12847000E+03  0.61538E+06
 0.12852000E+03  0.57274E+06
 0.12856999E+03  0.53077E+06
 0.12862000E+03  0.48725E+06
 0.12867000E+03  0.43895E+06
 0.12872000E+03  0.38424E+06
 0.12877000E+03  0.32384E+06
 0.12881999E+03  0.25759E+06
 0.12887000E+03  0.18112E+06
 0.12892000E+03  0.92836E+05
 0.12897000E+03 -0.41680E+04
 0.12902000E+03 -0.10518E+06
 0.12906999E+03 -0.20284E+06
 0.12912000E+03 -0.29171E+06
 0.12917000E+03 -0.36704E+06
 0.12922000E+03 -0.42562E+06
 0.12927000E+03 -0.46835E+06
 0.12931999E+03 -0.49486E+06
 0.12937000E+03 -0.50533E+06
 0.12942000E+03 -0.50339E+06
 0.12947000E+03 -0.49387E+06
 0.12952000E+03 -0.48026E+06
 0.12956999E+03 -0.46466E+06
 0.12962000E+03 -0.44716E+06
 0.12967000E+03 -0.42285E+06
 0.12972000E+03 -0.38902E+06
 0.12977000E+03 -0.34880E+06
 0.12981999E+03 -0.30523E+06
 0.12987000E+03 -0.26082E+06
 0.12992000E+03 -0.21472E+06
 0.12997000E+03 -0.16370E+06
 0.13002000E+03 -0.10814E+06
 0.13006999E+03 -0.52758E+05
 0.13012000E+03 -0.27150E+04
 0.13017000E+03  0.40795E+05
 0.13022000E+03  0.76427E+05
 0.13027000E+03  0.10351E+06
 0.13031999E+03  0.12387E+06
 0.13037000E+03  0.13542E+06
 0.13042000E+03  0.13455E+06
 0.13047000E+03  0.12084E+06
 0.13052000E+03  0.93994E+05
 0.13056999E+03  0.54531E+05
 0.13062000E+03  0.73440E+04
 0.13067000E+03 -0.42937E+05
 0.13072000E+03 -0.93087E+05
 0.13077000E+03 -0.13982E+06
 0.13081999E+03 -0.18045E+06
 0.13087000E+03 -0.21018E+06
 0.13092000E+03 -0.22868E+06
 0.13097000E+03 -0.24309E+06
 0.13102000E+03 -0.25690E+06
 0.13106999E+03 -0.26620E+06
 0.13112000E+03 -0.26754E+06
 0.13117000E+03 -0.26107E+06
 0.13122000E+03 -0.24848E+06
 0.13127000E+03 -0.23218E+06
 0.13131999E+03 -0.21414E+06
 0.13137000E+03 -0.19494E+06
 0.13142000E+03 -0.17275E+06
 0.13147000E+03 -0.14739E+06
 0.13152000E+03 -0.12147E+06
 0.13156999E+03 -0.96118E+05
 0.13162000E+03 -0.70941E+05
 0.13167000E+03 -0.44916E+05
 0.13172000E+03 -0.17503E+05
 0.13177000E+03  0.10106E+05
 0.13181999E+03  0.38622E+05
 0.13187000E+03  0.71379E+05
 0.13192000E+03  0.11220E+06
 0.13197000E+03  0.16071E+06
 0.13202000E+03  0.21190E+06
 0.13206999E+03  0.26361E+06
 0.13212000E+03  0.31246E+06
 0.13217000E+03  0.35487E+06
 0.13222000E+03  0.38874E+06
 0.13227000E+03  0.41200E+06
 0.13231999E+03  0.42746E+06
 0.13237000E+03  0.43841E+06
 0.13242000E+03  0.44646E+06
 0.13247000E+03  0.45038E+06
 0.13252000E+03  0.44840E+06
 0.13256999E+03  0.44093E+06
 0.13262000E+03  0.42922E+06
 0.13267000E+03  0.41608E+06
 0.13272000E+03  0.40100E+06
 0.13277000E+03  0.38212E+06
 0.13281999E+03  0.36143E+06
 0.13287000E+03  0.34016E+06
 0.13292000E+03  0.31739E+06
 0.13297000E+03  0.29506E+06
 0.13302000E+03  0.27527E+06
 0.13306999E+03  0.25701E+06
 0.13312000E+03  0.23865E+06
 0.13317000E+03  0.21742E+06
 0.13322000E+03  0.18949E+06
 0.13327000E+03  0.15291E+06
 0.13331999E+03  0.11103E+06
 0.13337000E+03  0.66716E+05
 0.13342000E+03  0.17925E+05
 0.13347000E+03 -0.36653E+05
 0.13352000E+03 -0.94946E+05
 0.13356999E+03 -0.15379E+06
 0.13362000E+03 -0.20848E+06
 0.13367000E+03 -0.25610E+06
 0.13372000E+03 -0.30245E+06
 0.13377000E+03 -0.35278E+06
 0.13381999E+03 -0.40611E+06
 0.13387000E+03 -0.46098E+06
 0.13392000E+03 -0.51673E+06
 0.13397000E+03 -0.57319E+06
 0.13402000E+03 -0.62749E+06
 0.13406999E+03 -0.67344E+06
 0.13412000E+03 -0.70476E+06
 0.13417000E+03 -0.72144E+06
 0.13422000E+03 -0.72739E+06
 0.13427000E+03 -0.72268E+06
 0.13431999E+03 -0.70511E+06
 0.13437000E+03 -0.67390E+06
 0.13442000E+03 -0.63004E+06
 0.13447000E+03 -0.57620E+06
 0.13452000E+03 -0.51948E+06
 0.13456999E+03 -0.46310E+06
 0.13462000E+03 -0.40518E+06
 0.13467000E+03 -0.34545E+06
 0.13472000E+03 -0.28473E+06
 0.13477000E+03 -0.22651E+06
 0.13481999E+03 -0.17128E+06
 0.13487000E+03 -0.11866E+06
 0.13492000E+03 -0.70132E+05
 0.13497000E+03 -0.27643E+05
 0.13502000E+03  0.51350E+04
 0.13506999E+03  0.29719E+05
 0.13512000E+03  0.51834E+05
 0.13517000E+03  0.75677E+05
 0.13522000E+03  0.10188E+06
 0.13527000E+03  0.13012E+06
 0.13531999E+03  0.15924E+06
 0.13537000E+03  0.18458E+06
 0.13542000E+03  0.20287E+06
 0.13547000E+03  0.21234E+06
 0.13552000E+03  0.21242E+06
 0.13556999E+03  0.20510E+06
 0.13562000E+03  0.19296E+06
 0.13567000E+03  0.17972E+06
 0.13572000E+03  0.16739E+06
 0.13577000E+03  0.15638E+06
 0.13581999E+03  0.14792E+06
 0.13587000E+03  0.14146E+06
 0.13592000E+03  0.13648E+06
 0.13597000E+03  0.13270E+06
 0.13602000E+03  0.12835E+06
 0.13606999E+03  0.12320E+06
 0.13612000E+03  0.11823E+06
 0.13617000E+03  0.11540E+06
 0.13622000E+03  0.11812E+06
 0.13627000E+03  0.12720E+06
 0.13631999E+03  0.13911E+06
 0.13637000E+03  0.15060E+06
 0.13642000E+03  0.16200E+06
 0.13647000E+03  0.17130E+06
 0.13652000E+03  0.17341E+06
 0.13656999E+03  0.16783E+06
 0.13662000E+03  0.15709E+06
 0.13667000E+03  0.14428E+06
 0.13672000E+03  0.13179E+06
 0.13677000E+03  0.11977E+06
 0.13681999E+03  0.10667E+06
 0.13687000E+03  0.90809E+05
 0.13692000E+03  0.74220E+05
 0.13697000E+03  0.59132E+05
 0.13702000E+03  0.43352E+05
 0.13706999E+03  0.23613E+05
 0.13712000E+03 -0.56600E+03
 0.13717000E+03 -0.27571E+05
 0.13722000E+03 -0.56814E+05
 0.13727000E+03 -0.88947E+05
 0.13731999E+03 -0.12613E+06
 0.13737000E+03 -0.16997E+06
 0.13742000E+03 -0.21794E+06
 0.13747000E+03 -0.26601E+06
 0.13752000E+03 -0.31083E+06
 0.13756999E+03 -0.35150E+06
 0.13762000E+03 -0.38950E+06
 0.13767000E+03 -0.42656E+06
 0.13772000E+03 -0.46124E+06
 0.13777000E+03 -0.48771E+06
 0.13781999E+03 -0.50369E+06
 0.13787000E+03 -0.50878E+06
 0.13792000E+03 -0.50219E+06
 0.13797000E+03 -0.48560E+06
 0.13802000E+03 -0.45718E+06
 0.13806999E+03 -0.41505E+06
 0.13812000E+03 -0.36295E+06
 0.13817000E+03 -0.30682E+06
 0.13822000E+03 -0.24917E+06
 0.13827000E+03 -0.19269E+06
 0.13831999E+03 -0.14440E+06
 0.13837000E+03 -0.10815E+06
 0.13842000E+03 -0.82009E+05
 0.13847000E+03 -0.61390E+05
 0.13852000E+03 -0.42814E+05
 0.13856999E+03 -0.24072E+05
 0.13862000E+03 -0.38740E+04
 0.13867000E+03  0.16482E+05
 0.13872000E+03  0.37214E+05
 0.13877000E+03  0.60280E+05
 0.13881999E+03  0.87680E+05
 0.13887000E+03  0.12394E+06
 0.13892000E+03  0.17164E+06
 0.13897000E+03  0.22639E+06
 0.13902000E+03  0.28024E+06
 0.13906999E+03  0.32546E+06
 0.13912000E+03  0.35796E+06
 0.13917000E+03  0.37778E+06
 0.13922000E+03  0.38647E+06
 0.13927000E+03  0.38633E+06
 0.13931999E+03  0.37749E+06
 0.13937000E+03  0.35808E+06
 0.13942000E+03  0.32940E+06
 0.13947000E+03  0.29544E+06
 0.13952000E+03  0.25905E+06
 0.13956999E+03  0.22372E+06
 0.13962000E+03  0.19240E+06
 0.13967000E+03  0.16512E+06
 0.13972000E+03  0.14218E+06
 0.13977000E+03  0.12217E+06
 0.13981999E+03  0.10192E+06
 0.13987000E+03  0.82589E+05
 0.13992000E+03  0.69115E+05
 0.13997000E+03  0.65473E+05
 0.14002000E+03  0.73294E+05
 0.14006999E+03  0.92089E+05
 0.14012000E+03  0.11822E+06
 0.14017000E+03  0.14683E+06
 0.14022000E+03  0.17556E+06
 0.14027000E+03  0.20458E+06
 0.14031999E+03  0.23479E+06
 0.14037000E+03  0.26681E+06
 0.14042000E+03  0.30166E+06
 0.14047000E+03  0.34179E+06
 0.14052000E+03  0.38808E+06
 0.14056999E+03  0.43841E+06
 0.14062000E+03  0.49029E+06
 0.14067000E+03  0.54091E+06
 0.14072000E+03  0.58628E+06
 0.14077000E+03  0.62112E+06
 0.14081999E+03  0.64074E+06
 0.14087000E+03  0.64320E+06
 0.14092000E+03  0.62641E+06
 0.14097000E+03  0.59087E+06
 0.14102000E+03  0.54237E+06
 0.14106999E+03  0.48783E+06
 0.14112000E+03  0.43336E+06
 0.14117000E+03  0.38014E+06
 0.14122000E+03  0.32688E+06
 0.14127000E+03  0.27268E+06
 0.14131999E+03  0.21574E+06
 0.14137000E+03  0.15802E+06
 0.14142000E+03  0.10319E+06
 0.14147000E+03  0.54781E+05
 0.14152000E+03  0.15819E+05
 0.14156999E+03 -0.14519E+05
 0.14162000E+03 -0.40227E+05
 0.14167000E+03 -0.66570E+05
 0.14172000E+03 -0.96141E+05
 0.14177000E+03 -0.12898E+06
 0.14181999E+03 -0.16574E+06
 0.14187000E+03 -0.20870E+06
 0.14192000E+03 -0.25969E+06
 0.14197000E+03 -0.31747E+06
 0.14202000E+03 -0.38083E+06
 0.14206999E+03 -0.44808E+06
 0.14212000E+03 -0.51350E+06
 0.14217000E+03 -0.57069E+06
 0.14222000E+03 -0.61702E+06
 0.14227000E+03 -0.65169E+06
 0.14231999E+03 -0.67437E+06
 0.14237000E+03 -0.68556E+06
 0.14242000E+03 -0.68349E+06
 0.14247000E+03 -0.66590E+06
 0.14252000E+03 -0.63266E+06
 0.14256999E+03 -0.58543E+06
 0.14262000E+03 -0.52676E+06
 0.14267000E+03 -0.45767E+06
 0.14272000E+03 -0.37920E+06
 0.14277000E+03 -0.29480E+06
 0.14281999E+03 -0.21242E+06
 0.14287000E+03 -0.13902E+06
 0.14292000E+03 -0.76973E+05
 0.14297000E+03 -0.25553E+05
 0.14302000E+03  0.18972E+05
 0.14306999E+03  0.58500E+05
 0.14312000E+03  0.92102E+05
 0.14317000E+03  0.11711E+06
 0.14322000E+03  0.13128E+06
 0.14327000E+03  0.13255E+06
 0.14331999E+03  0.11960E+06
 0.14337000E+03  0.96221E+05
 0.14342000E+03  0.66515E+05
 0.14347000E+03  0.32417E+05
 0.14352000E+03 -0.23820E+04
 0.14356999E+03 -0.35619E+05
 0.14362000E+03 -0.67151E+05
 0.14367000E+03 -0.94291E+05
 0.14372000E+03 -0.11360E+06
 0.14377000E+03 -0.12307E+06
 0.14381999E+03 -0.12621E+06
 0.14387000E+03 -0.13017E+06
 0.14392000E+03 -0.13928E+06
 0.14397000E+03 -0.15581E+06
 0.14402000E+03 -0.17640E+06
 0.14406999E+03 -0.19676E+06
 0.14412000E+03 -0.21611E+06
 0.14417000E+03 -0.23300E+06
 0.14422000E+03 -0.24446E+06
 0.14427000E+03 -0.24751E+06
 0.14431999E+03 -0.24263E+06
 0.14437000E+03 -0.23085E+06
 0.14442000E+03 -0.21198E+06
 0.14447000E+03 -0.18500E+06
 0.14452000E+03 -0.14973E+06
 0.14456999E+03 -0.10872E+06
 0.14462000E+03 -0.63523E+05
 0.14467000E+03 -0.15018E+05
 0.14472000E+03  0.35956E+05
 0.14477000E+03  0.87842E+05
 0.14481999E+03  0.13946E+06
 0.14487000E+03  0.18992E+06
 0.14492000E+03  0.23600E+06
 0.14497000E+03  0.27629E+06
 0.14502000E+03  0.31294E+06
 0.14506999E+03  0.34562E+06
 0.14512000E+03  0.36873E+06
 0.14517000E+03  0.37968E+06
 0.14522000E+03  0.38049E+06
 0.14527000E+03  0.37333E+06
 0.14531999E+03  0.36168E+06
 0.14537000E+03  0.34786E+06
 0.14542000E+03  0.33151E+06
 0.14547000E+03  0.31139E+06
 0.14552000E+03  0.28800E+06
 0.14556999E+03  0.26540E+06
 0.14562000E+03  0.24842E+06
 0.14567000E+03  0.23886E+06
 0.14572000E+03  0.23667E+06
 0.14577000E+03  0.24092E+06
 0.14581999E+03  0.24966E+06
 0.14587000E+03  0.26280E+06
 0.14592000E+03  0.28155E+06
 0.14597000E+03  0.30551E+06
 0.14602000E+03  0.33030E+06
 0.14606999E+03  0.35008E+06
 0.14612000E+03  0.36212E+06
 0.14617000E+03  0.36645E+06
 0.14622000E+03  0.36382E+06
 0.14627000E+03  0.35424E+06
 0.14631999E+03  0.33789E+06
 0.14637000E+03  0.31472E+06
 0.14642000E+03  0.28364E+06
 0.14647000E+03  0.24474E+06
 0.14652000E+03  0.19950E+06
 0.14656999E+03  0.15104E+06
 0.14662000E+03  0.10300E+06
 0.14667000E+03  0.55645E+05
 0.14672000E+03  0.69400E+04
 0.14677000E+03 -0.44549E+05
 0.14681999E+03 -0.97537E+05
 0.14687000E+03 -0.14851E+06
 0.14692000E+03 -0.19541E+06
 0.14697000E+03 -0.23829E+06
 0.14702000E+03 -0.27826E+06
 0.14706999E+03 -0.31501E+06
 0.14712000E+03 -0.34693E+06
 0.14717000E+03 -0.37211E+06
 0.14722000E+03 -0.38872E+06
 0.14727000E+03 -0.39767E+06
 0.14731999E+03 -0.40133E+06
 0.14737000E+03 -0.40200E+06
 0.14742000E+03 -0.40089E+06
 0.14747000E+03 -0.39797E+06
 0.14752000E+03 -0.39378E+06
 0.14756999E+03 -0.38948E+06
 0.14762000E+03 -0.38605E+06
 0.14767000E+03 -0.38486E+06
 0.14772000E+03 -0.38576E+06
 0.14777000E+03 -0.38508E+06
 0.14781999E+03 -0.37996E+06
 0.14787000E+03 -0.37055E+06
 0.14792000E+03 -0.35943E+06
 0.14797000E+03 -0.34890E+06
 0.14802000E+03 -0.33818E+06
 0.14806999E+03 -0.32496E+06
 0.14812000E+03 -0.30732E+06
 0.14817000E+03 -0.28530E+06
 0.14822000E+03 -0.25907E+06
 0.14827000E+03 -0.22864E+06
 0.14831999E+03 -0.19580E+06
 0.14837000E+03 -0.16316E+06
 0.14842000E+03 -0.13282E+06
 0.14847000E+03 -0.10518E+06
 0.14852000E+03 -0.81639E+05
 0.14856999E+03 -0.63587E+05
 0.14862000E+03 -0.49605E+05
 0.14867000E+03 -0.38722E+05
 0.14872000E+03 -0.30400E+05
 0.14877000E+03 -0.23695E+05
 0.14881999E+03 -0.18697E+05
 0.14887000E+03 -0.17068E+05
 0.14892000E+03 -0.21850E+05
 0.14897000E+03 -0.33577E+05
 0.14902000E+03 -0.50309E+05
 0.14906999E+03 -0.70477E+05
