-0.38800001E+01  0.34867E+05
-0.38300002E+01  0.36239E+05
-0.37800002E+01  0.36945E+05
-0.37300000E+01  0.36502E+05
-0.36800001E+01  0.34532E+05
-0.36300001E+01  0.32757E+05
-0.35800002E+01  0.33069E+05
-0.35300002E+01  0.35490E+05
-0.34800000E+01  0.39109E+05
-0.34300001E+01  0.42881E+05
-0.33800001E+01  0.45890E+05
-0.33300002E+01  0.47023E+05
-0.32800002E+01  0.47402E+05
-0.32300000E+01  0.49217E+05
-0.31800001E+01  0.53583E+05
-0.31300001E+01  0.59907E+05
-0.30800002E+01  0.65004E+05
-0.30300002E+01  0.66888E+05
-0.29800000E+01  0.65806E+05
-0.29300001E+01  0.63206E+05
-0.28800001E+01  0.61023E+05
-0.28299999E+01  0.59031E+05
-0.27800002E+01  0.55994E+05
-0.27300000E+01  0.52334E+05
-0.26800001E+01  0.48855E+05
-0.26300001E+01  0.44230E+05
-0.25799999E+01  0.35768E+05
-0.25300002E+01  0.24711E+05
-0.24800000E+01  0.13953E+05
-0.24300001E+01  0.35300E+04
-0.23800001E+01 -0.53560E+04
-0.23299999E+01 -0.12255E+05
-0.22800002E+01 -0.19446E+05
-0.22300000E+01 -0.26955E+05
-0.21800001E+01 -0.32448E+05
-0.21300001E+01 -0.34507E+05
-0.20799999E+01 -0.33782E+05
-0.20300002E+01 -0.31508E+05
-0.19800001E+01 -0.28424E+05
-0.19300001E+01 -0.25686E+05
-0.18800001E+01 -0.24090E+05
-0.18300002E+01 -0.23777E+05
-0.17800000E+01 -0.24530E+05
-0.17300000E+01 -0.24756E+05
-0.16800001E+01 -0.22558E+05
-0.16300001E+01 -0.19043E+05
-0.15800002E+01 -0.16253E+05
-0.15300000E+01 -0.13886E+05
-0.14800000E+01 -0.11748E+05
-0.14300001E+01 -0.10475E+05
-0.13800001E+01 -0.11084E+05
-0.13300002E+01 -0.13585E+05
-0.12800000E+01 -0.15662E+05
-0.12300000E+01 -0.16097E+05
-0.11800001E+01 -0.17023E+05
-0.11300001E+01 -0.19962E+05
-0.10800002E+01 -0.23500E+05
-0.10300000E+01 -0.25834E+05
-0.98000002E+00 -0.27043E+05
-0.93000007E+00 -0.28081E+05
-0.88000011E+00 -0.28309E+05
-0.83000016E+00 -0.27619E+05
-0.77999997E+00 -0.26268E+05
-0.73000002E+00 -0.24690E+05
-0.68000007E+00 -0.25037E+05
-0.63000011E+00 -0.26981E+05
-0.58000016E+00 -0.28675E+05
-0.52999997E+00 -0.29552E+05
-0.48000002E+00 -0.28357E+05
-0.43000007E+00 -0.26420E+05
-0.38000011E+00 -0.27503E+05
-0.33000016E+00 -0.30980E+05
-0.27999997E+00 -0.34702E+05
-0.23000002E+00 -0.38440E+05
-0.18000007E+00 -0.41699E+05
-0.13000011E+00 -0.44000E+05
-0.80000162E-01 -0.45352E+05
-0.29999971E-01 -0.46895E+05
 0.19999981E-01 -0.48405E+05
 0.69999933E-01 -0.48119E+05
 0.11999989E+00 -0.44706E+05
 0.17000008E+00 -0.38629E+05
 0.21999979E+00 -0.31693E+05
 0.26999998E+00 -0.24250E+05
 0.32000017E+00 -0.17417E+05
 0.36999989E+00 -0.11715E+05
 0.42000008E+00 -0.60660E+04
 0.46999979E+00 -0.37000E+02
 0.51999998E+00  0.56290E+04
 0.57000017E+00  0.93200E+04
 0.61999989E+00  0.12019E+05
 0.67000008E+00  0.15049E+05
 0.71999979E+00  0.17337E+05
 0.76999998E+00  0.19582E+05
 0.82000017E+00  0.23276E+05
 0.86999989E+00  0.27775E+05
 0.92000008E+00  0.31674E+05
 0.96999979E+00  0.34441E+05
 0.10200000E+01  0.37710E+05
 0.10700002E+01  0.41774E+05
 0.11199999E+01  0.43543E+05
 0.11700001E+01  0.42339E+05
 0.12199998E+01  0.40467E+05
 0.12700000E+01  0.39637E+05
 0.13200002E+01  0.40991E+05
 0.13699999E+01  0.44701E+05
 0.14200001E+01  0.48982E+05
 0.14699998E+01  0.51850E+05
 0.15200000E+01  0.52983E+05
 0.15700002E+01  0.52751E+05
 0.16199999E+01  0.52714E+05
 0.16700001E+01  0.52305E+05
 0.17199998E+01  0.49875E+05
 0.17700000E+01  0.47185E+05
 0.18200002E+01  0.45494E+05
 0.18699999E+01  0.44573E+05
 0.19200001E+01  0.43636E+05
 0.19699998E+01  0.41948E+05
 0.20200000E+01  0.38605E+05
 0.20700002E+01  0.33379E+05
 0.21199999E+01  0.28467E+05
 0.21700001E+01  0.25584E+05
 0.22199998E+01  0.24262E+05
 0.22700000E+01  0.23628E+05
 0.23200002E+01  0.23316E+05
 0.23699999E+01  0.22329E+05
 0.24200001E+01  0.20307E+05
 0.24699998E+01  0.17824E+05
 0.25200000E+01  0.14537E+05
 0.25700002E+01  0.10337E+05
 0.26199999E+01  0.56940E+04
 0.26700001E+01  0.15190E+04
 0.27199998E+01 -0.18050E+04
 0.27700000E+01 -0.58460E+04
 0.28200002E+01 -0.11943E+05
 0.28699999E+01 -0.19284E+05
 0.29200001E+01 -0.25541E+05
 0.29699998E+01 -0.29213E+05
 0.30200000E+01 -0.30398E+05
 0.30700002E+01 -0.30282E+05
 0.31199999E+01 -0.29898E+05
 0.31700001E+01 -0.28850E+05
 0.32199998E+01 -0.26655E+05
 0.32700000E+01 -0.23726E+05
 0.33200002E+01 -0.21735E+05
 0.33699999E+01 -0.20943E+05
 0.34200001E+01 -0.19265E+05
 0.34699998E+01 -0.15620E+05
 0.35200000E+01 -0.10921E+05
 0.35700002E+01 -0.72080E+04
 0.36199999E+01 -0.51520E+04
 0.36700001E+01 -0.35860E+04
 0.37199998E+01 -0.14900E+04
 0.37700000E+01  0.79600E+03
 0.38200002E+01  0.19720E+04
 0.38699999E+01  0.13380E+04
 0.39200001E+01 -0.17800E+03
 0.39699998E+01  0.39300E+03
 0.40200000E+01  0.44740E+04
 0.40700002E+01  0.10257E+05
 0.41199999E+01  0.15919E+05
 0.41700001E+01  0.19983E+05
 0.42200003E+01  0.21560E+05
 0.42700005E+01  0.20880E+05
 0.43199997E+01  0.18345E+05
 0.43699999E+01  0.14762E+05
 0.44200001E+01  0.11503E+05
 0.44700003E+01  0.94320E+04
 0.45200005E+01  0.81230E+04
 0.45699997E+01  0.68020E+04
 0.46199999E+01  0.54460E+04
 0.46700001E+01  0.39080E+04
 0.47200003E+01  0.14540E+04
 0.47700005E+01 -0.19330E+04
 0.48199997E+01 -0.59880E+04
 0.48699999E+01 -0.10069E+05
 0.49200001E+01 -0.13863E+05
 0.49700003E+01 -0.18993E+05
 0.50200005E+01 -0.26226E+05
 0.50699997E+01 -0.34770E+05
 0.51199999E+01 -0.42278E+05
 0.51700001E+01 -0.46864E+05
 0.52200003E+01 -0.49600E+05
 0.52700005E+01 -0.51697E+05
 0.53199997E+01 -0.53902E+05
 0.53699999E+01 -0.55504E+05
 0.54200001E+01 -0.55192E+05
 0.54700003E+01 -0.52912E+05
 0.55200005E+01 -0.48723E+05
 0.55699997E+01 -0.43142E+05
 0.56199999E+01 -0.37058E+05
 0.56700001E+01 -0.30952E+05
 0.57200003E+01 -0.24920E+05
 0.57700005E+01 -0.19450E+05
 0.58199997E+01 -0.16247E+05
 0.58699999E+01 -0.14629E+05
 0.59200001E+01 -0.11615E+05
 0.59700003E+01 -0.64440E+04
 0.60200005E+01 -0.13800E+03
 0.60699997E+01  0.51630E+04
 0.61199999E+01  0.88700E+04
 0.61700001E+01  0.10487E+05
 0.62200003E+01  0.92530E+04
 0.62700005E+01  0.71400E+04
 0.63199997E+01  0.47160E+04
 0.63699999E+01  0.19380E+04
 0.64200001E+01  0.14600E+03
 0.64700003E+01 -0.47500E+03
 0.65200005E+01 -0.12200E+04
 0.65699997E+01 -0.36650E+04
 0.66199999E+01 -0.78710E+04
 0.66700001E+01 -0.12677E+05
 0.67200003E+01 -0.17406E+05
 0.67700005E+01 -0.21608E+05
 0.68199997E+01 -0.24731E+05
 0.68699999E+01 -0.26353E+05
 0.69200001E+01 -0.26454E+05
 0.69700003E+01 -0.26138E+05
 0.70200005E+01 -0.26669E+05
 0.70699997E+01 -0.28098E+05
 0.71199999E+01 -0.29788E+05
 0.71700001E+01 -0.30552E+05
 0.72200003E+01 -0.28853E+05
 0.72700005E+01 -0.25503E+05
 0.73199997E+01 -0.22326E+05
 0.73699999E+01 -0.18817E+05
 0.74200001E+01 -0.14726E+05
 0.74700003E+01 -0.10651E+05
 0.75200005E+01 -0.61730E+04
 0.75699997E+01 -0.85800E+03
 0.76199999E+01  0.48290E+04
 0.76700001E+01  0.97850E+04
 0.77200003E+01  0.13939E+05
 0.77700005E+01  0.18236E+05
 0.78199997E+01  0.22925E+05
 0.78699999E+01  0.28091E+05
 0.79200001E+01  0.33592E+05
 0.79700003E+01  0.38970E+05
 0.80200005E+01  0.43379E+05
 0.80699997E+01  0.46201E+05
 0.81199999E+01  0.48818E+05
 0.81700001E+01  0.52100E+05
 0.82200003E+01  0.55850E+05
 0.82700005E+01  0.59495E+05
 0.83199997E+01  0.61882E+05
 0.83699999E+01  0.63522E+05
 0.84200001E+01  0.65269E+05
 0.84700003E+01  0.66737E+05
 0.85200005E+01  0.66275E+05
 0.85699997E+01  0.62645E+05
 0.86199999E+01  0.57727E+05
 0.86700001E+01  0.53510E+05
 0.87200003E+01  0.50081E+05
 0.87700005E+01  0.48256E+05
 0.88199997E+01  0.47953E+05
 0.88699999E+01  0.46995E+05
 0.89200001E+01  0.44465E+05
 0.89700003E+01  0.41536E+05
 0.90200005E+01  0.38832E+05
 0.90699997E+01  0.35941E+05
 0.91199999E+01  0.33826E+05
 0.91700001E+01  0.33248E+05
 0.92200003E+01  0.33626E+05
 0.92700005E+01  0.34221E+05
 0.93199997E+01  0.33606E+05
 0.93699999E+01  0.30902E+05
 0.94200001E+01  0.26718E+05
 0.94700003E+01  0.21253E+05
 0.95200005E+01  0.14721E+05
 0.95699997E+01  0.84460E+04
 0.96199999E+01  0.28350E+04
 0.96700001E+01 -0.20610E+04
 0.97200003E+01 -0.61280E+04
 0.97700005E+01 -0.97810E+04
 0.98199997E+01 -0.12270E+05
 0.98699999E+01 -0.12684E+05
 0.99200001E+01 -0.12169E+05
 0.99700003E+01 -0.12456E+05
 0.10020000E+02 -0.14114E+05
 0.10070000E+02 -0.16501E+05
 0.10120000E+02 -0.18989E+05
 0.10170000E+02 -0.21250E+05
 0.10220000E+02 -0.22408E+05
 0.10270000E+02 -0.22322E+05
 0.10320000E+02 -0.21980E+05
 0.10370000E+02 -0.21827E+05
 0.10420000E+02 -0.20721E+05
 0.10470000E+02 -0.18630E+05
 0.10520000E+02 -0.16968E+05
 0.10570000E+02 -0.16472E+05
 0.10620000E+02 -0.17750E+05
 0.10670000E+02 -0.20152E+05
 0.10720000E+02 -0.22177E+05
 0.10770000E+02 -0.23451E+05
 0.10820000E+02 -0.24499E+05
 0.10870000E+02 -0.26002E+05
 0.10920000E+02 -0.27847E+05
 0.10970000E+02 -0.28522E+05
 0.11020000E+02 -0.26496E+05
 0.11070000E+02 -0.22715E+05
 0.11120000E+02 -0.19891E+05
 0.11170000E+02 -0.18670E+05
 0.11220000E+02 -0.18066E+05
 0.11270000E+02 -0.17771E+05
 0.11320000E+02 -0.15912E+05
 0.11370000E+02 -0.11034E+05
 0.11420000E+02 -0.51700E+04
 0.11470000E+02  0.86000E+02
 0.11520000E+02  0.49440E+04
 0.11570000E+02  0.96080E+04
 0.11620000E+02  0.13585E+05
 0.11670000E+02  0.16145E+05
 0.11720000E+02  0.17501E+05
 0.11770000E+02  0.18290E+05
 0.11820000E+02  0.18305E+05
 0.11870000E+02  0.16587E+05
 0.11920000E+02  0.13189E+05
 0.11970000E+02  0.94280E+04
 0.12020000E+02  0.57770E+04
 0.12070000E+02  0.22110E+04
 0.12120000E+02 -0.60800E+03
 0.12170001E+02 -0.27340E+04
 0.12220000E+02 -0.53220E+04
 0.12270000E+02 -0.93000E+04
 0.12320001E+02 -0.13648E+05
 0.12370000E+02 -0.16840E+05
 0.12420001E+02 -0.18859E+05
 0.12470000E+02 -0.19775E+05
 0.12520000E+02 -0.19932E+05
 0.12570001E+02 -0.19687E+05
 0.12620000E+02 -0.19289E+05
 0.12670001E+02 -0.19719E+05
 0.12720000E+02 -0.21232E+05
 0.12770000E+02 -0.22931E+05
 0.12820001E+02 -0.23956E+05
 0.12870000E+02 -0.23340E+05
 0.12920001E+02 -0.21093E+05
 0.12970000E+02 -0.19981E+05
 0.13020000E+02 -0.21678E+05
 0.13070001E+02 -0.24005E+05
 0.13120000E+02 -0.24908E+05
 0.13170001E+02 -0.24931E+05
 0.13220000E+02 -0.25386E+05
 0.13270000E+02 -0.26983E+05
 0.13320001E+02 -0.29928E+05
 0.13370000E+02 -0.33323E+05
 0.13420001E+02 -0.35060E+05
 0.13470000E+02 -0.35175E+05
 0.13520000E+02 -0.36229E+05
 0.13570001E+02 -0.38688E+05
 0.13620000E+02 -0.40348E+05
 0.13670001E+02 -0.38976E+05
 0.13720000E+02 -0.35473E+05
 0.13770000E+02 -0.32632E+05
 0.13820001E+02 -0.30672E+05
 0.13870000E+02 -0.28802E+05
 0.13920001E+02 -0.26345E+05
 0.13970000E+02 -0.22250E+05
 0.14020000E+02 -0.17204E+05
 0.14070001E+02 -0.12142E+05
 0.14120000E+02 -0.77940E+04
 0.14170001E+02 -0.43540E+04
 0.14220000E+02  0.49000E+02
 0.14270000E+02  0.47050E+04
 0.14320001E+02  0.74940E+04
 0.14370000E+02  0.84070E+04
 0.14420001E+02  0.88670E+04
 0.14470000E+02  0.10230E+05
 0.14520000E+02  0.12024E+05
 0.14570001E+02  0.14092E+05
 0.14620000E+02  0.15920E+05
 0.14670001E+02  0.17733E+05
 0.14720000E+02  0.19972E+05
 0.14770000E+02  0.21483E+05
 0.14820001E+02  0.21922E+05
 0.14870000E+02  0.20608E+05
 0.14920001E+02  0.17681E+05
 0.14970000E+02  0.14338E+05
 0.15020000E+02  0.11722E+05
 0.15070001E+02  0.11094E+05
 0.15120000E+02  0.11815E+05
 0.15170001E+02  0.11974E+05
 0.15220000E+02  0.11822E+05
 0.15270000E+02  0.12793E+05
 0.15320001E+02  0.14459E+05
 0.15370000E+02  0.15806E+05
 0.15420001E+02  0.16913E+05
 0.15470000E+02  0.18913E+05
 0.15520000E+02  0.20847E+05
 0.15570001E+02  0.21189E+05
 0.15620000E+02  0.21519E+05
 0.15670001E+02  0.23171E+05
 0.15720000E+02  0.25045E+05
 0.15770000E+02  0.25240E+05
 0.15820001E+02  0.24440E+05
 0.15870000E+02  0.24214E+05
 0.15920001E+02  0.24127E+05
 0.15970000E+02  0.24188E+05
 0.16020000E+02  0.24162E+05
 0.16070000E+02  0.22706E+05
 0.16119999E+02  0.19509E+05
 0.16170002E+02  0.15521E+05
 0.16220001E+02  0.11933E+05
 0.16270000E+02  0.80410E+04
 0.16320000E+02  0.35260E+04
 0.16369999E+02  0.22000E+02
 0.16420002E+02 -0.23130E+04
 0.16470001E+02 -0.44850E+04
 0.16520000E+02 -0.78290E+04
 0.16570000E+02 -0.12320E+05
 0.16619999E+02 -0.17701E+05
 0.16670002E+02 -0.23699E+05
 0.16720001E+02 -0.28091E+05
 0.16770000E+02 -0.29964E+05
 0.16820000E+02 -0.30396E+05
 0.16869999E+02 -0.30447E+05
 0.16920002E+02 -0.30418E+05
 0.16970001E+02 -0.30782E+05
 0.17020000E+02 -0.31367E+05
 0.17070000E+02 -0.31330E+05
 0.17119999E+02 -0.30467E+05
 0.17170002E+02 -0.29695E+05
 0.17220001E+02 -0.30486E+05
 0.17270000E+02 -0.31524E+05
 0.17320000E+02 -0.31185E+05
 0.17369999E+02 -0.29987E+05
 0.17420002E+02 -0.28479E+05
 0.17470001E+02 -0.27676E+05
 0.17520000E+02 -0.28482E+05
 0.17570000E+02 -0.30692E+05
 0.17619999E+02 -0.32862E+05
 0.17670002E+02 -0.33581E+05
 0.17720001E+02 -0.33398E+05
 0.17770000E+02 -0.32951E+05
 0.17820000E+02 -0.31796E+05
 0.17869999E+02 -0.29149E+05
 0.17920002E+02 -0.25050E+05
 0.17970001E+02 -0.20102E+05
 0.18020000E+02 -0.13859E+05
 0.18070000E+02 -0.68390E+04
 0.18119999E+02 -0.35900E+03
 0.18170002E+02  0.54130E+04
 0.18220001E+02  0.10930E+05
 0.18270000E+02  0.16737E+05
 0.18320000E+02  0.22420E+05
 0.18369999E+02  0.28363E+05
 0.18420002E+02  0.35442E+05
 0.18470001E+02  0.42796E+05
 0.18520000E+02  0.49496E+05
 0.18570000E+02  0.54900E+05
 0.18619999E+02  0.58956E+05
 0.18670002E+02  0.62158E+05
 0.18720001E+02  0.65132E+05
 0.18770000E+02  0.67780E+05
 0.18820000E+02  0.68220E+05
 0.18869999E+02  0.66235E+05
 0.18920002E+02  0.63725E+05
 0.18970001E+02  0.61314E+05
 0.19020000E+02  0.58920E+05
 0.19070000E+02  0.56346E+05
 0.19119999E+02  0.52821E+05
 0.19170002E+02  0.48085E+05
 0.19220001E+02  0.42615E+05
 0.19270000E+02  0.37106E+05
 0.19320000E+02  0.32162E+05
 0.19369999E+02  0.28595E+05
 0.19420002E+02  0.27063E+05
 0.19470001E+02  0.26785E+05
 0.19520000E+02  0.26253E+05
 0.19570000E+02  0.25157E+05
 0.19619999E+02  0.23916E+05
 0.19670002E+02  0.22674E+05
 0.19720001E+02  0.21801E+05
 0.19770000E+02  0.20559E+05
 0.19820000E+02  0.17416E+05
 0.19869999E+02  0.12153E+05
 0.19920002E+02  0.48640E+04
 0.19970001E+02 -0.31370E+04
 0.20020000E+02 -0.95820E+04
 0.20070000E+02 -0.14649E+05
 0.20119999E+02 -0.19511E+05
 0.20170002E+02 -0.24285E+05
 0.20220001E+02 -0.28297E+05
 0.20270000E+02 -0.31468E+05
 0.20320000E+02 -0.34395E+05
 0.20369999E+02 -0.37180E+05
 0.20420002E+02 -0.39376E+05
 0.20470001E+02 -0.40037E+05
 0.20520000E+02 -0.39469E+05
 0.20570000E+02 -0.37983E+05
 0.20619999E+02 -0.35125E+05
 0.20670002E+02 -0.30905E+05
 0.20720001E+02 -0.25727E+05
 0.20770000E+02 -0.20711E+05
 0.20820000E+02 -0.16116E+05
 0.20869999E+02 -0.11837E+05
 0.20920002E+02 -0.84780E+04
 0.20970001E+02 -0.60170E+04
 0.21020000E+02 -0.40390E+04
 0.21070000E+02 -0.28350E+04
 0.21119999E+02 -0.25630E+04
 0.21170002E+02 -0.25070E+04
 0.21220001E+02 -0.23080E+04
 0.21270000E+02 -0.21110E+04
 0.21320000E+02 -0.16810E+04
 0.21369999E+02 -0.20800E+03
 0.21420002E+02  0.18200E+04
 0.21470001E+02  0.27710E+04
 0.21520000E+02  0.27680E+04
 0.21570000E+02  0.24160E+04
 0.21619999E+02  0.20480E+04
 0.21670002E+02  0.16060E+04
 0.21720001E+02  0.11450E+04
 0.21770000E+02  0.17700E+04
 0.21820000E+02  0.31030E+04
 0.21869999E+02  0.42070E+04
 0.21920002E+02  0.48230E+04
 0.21970001E+02  0.51670E+04
 0.22020000E+02  0.52330E+04
 0.22070000E+02  0.46630E+04
 0.22119999E+02  0.43210E+04
 0.22170002E+02  0.53860E+04
 0.22220001E+02  0.80470E+04
 0.22270000E+02  0.11028E+05
 0.22320000E+02  0.13735E+05
 0.22369999E+02  0.16147E+05
 0.22420002E+02  0.18221E+05
 0.22470001E+02  0.20478E+05
 0.22520000E+02  0.22097E+05
 0.22570000E+02  0.22888E+05
 0.22619999E+02  0.23177E+05
 0.22670002E+02  0.22221E+05
 0.22720001E+02  0.20461E+05
 0.22770000E+02  0.18696E+05
 0.22820000E+02  0.16978E+05
 0.22869999E+02  0.15164E+05
 0.22920002E+02  0.13246E+05
 0.22970001E+02  0.11820E+05
 0.23020000E+02  0.11326E+05
 0.23070000E+02  0.11401E+05
 0.23119999E+02  0.11631E+05
 0.23170002E+02  0.11770E+05
 0.23220001E+02  0.10651E+05
 0.23270000E+02  0.75270E+04
 0.23320000E+02  0.35660E+04
 0.23369999E+02  0.60000E+02
 0.23420002E+02 -0.32200E+04
 0.23470001E+02 -0.68900E+04
 0.23520000E+02 -0.10364E+05
 0.23570000E+02 -0.12476E+05
 0.23619999E+02 -0.13514E+05
 0.23670002E+02 -0.15836E+05
 0.23720001E+02 -0.19726E+05
 0.23770000E+02 -0.23186E+05
 0.23820000E+02 -0.25359E+05
 0.23869999E+02 -0.26231E+05
 0.23920002E+02 -0.26991E+05
 0.23970001E+02 -0.28421E+05
 0.24020000E+02 -0.30289E+05
 0.24070000E+02 -0.32394E+05
 0.24119999E+02 -0.34441E+05
 0.24170002E+02 -0.36374E+05
 0.24220001E+02 -0.38017E+05
 0.24270000E+02 -0.39962E+05
 0.24320000E+02 -0.42676E+05
 0.24369999E+02 -0.45728E+05
 0.24420002E+02 -0.49035E+05
 0.24470001E+02 -0.51672E+05
 0.24520000E+02 -0.52789E+05
 0.24570000E+02 -0.52861E+05
 0.24619999E+02 -0.52737E+05
 0.24670002E+02 -0.53077E+05
 0.24720001E+02 -0.53007E+05
 0.24770000E+02 -0.51824E+05
 0.24820000E+02 -0.50014E+05
 0.24869999E+02 -0.47748E+05
 0.24920002E+02 -0.45039E+05
 0.24970001E+02 -0.42391E+05
 0.25020000E+02 -0.40224E+05
 0.25070000E+02 -0.37043E+05
 0.25119999E+02 -0.31725E+05
 0.25170002E+02 -0.25264E+05
 0.25220001E+02 -0.19373E+05
 0.25270000E+02 -0.14891E+05
 0.25320000E+02 -0.10400E+05
 0.25369999E+02 -0.44510E+04
 0.25420002E+02  0.23050E+04
 0.25470001E+02  0.84920E+04
 0.25520000E+02  0.13790E+05
 0.25570000E+02  0.18376E+05
 0.25619999E+02  0.22361E+05
 0.25670002E+02  0.25271E+05
 0.25720001E+02  0.26598E+05
 0.25770000E+02  0.26120E+05
 0.25820000E+02  0.23473E+05
 0.25869999E+02  0.20359E+05
 0.25920002E+02  0.18913E+05
 0.25970001E+02  0.18693E+05
 0.26020000E+02  0.18819E+05
 0.26070000E+02  0.19433E+05
 0.26119999E+02  0.20230E+05
 0.26170002E+02  0.20364E+05
 0.26220001E+02  0.19902E+05
 0.26270000E+02  0.19585E+05
 0.26320000E+02  0.19454E+05
 0.26369999E+02  0.19093E+05
 0.26420002E+02  0.18263E+05
 0.26470001E+02  0.17376E+05
 0.26520000E+02  0.17335E+05
 0.26570000E+02  0.17741E+05
 0.26619999E+02  0.17369E+05
 0.26670002E+02  0.15966E+05
 0.26720001E+02  0.14441E+05
 0.26770000E+02  0.13726E+05
 0.26820000E+02  0.13512E+05
 0.26869999E+02  0.12561E+05
 0.26920002E+02  0.10510E+05
 0.26970001E+02  0.80580E+04
 0.27020000E+02  0.56800E+04
 0.27070000E+02  0.43600E+04
 0.27119999E+02  0.44470E+04
 0.27170002E+02  0.52910E+04
 0.27220001E+02  0.62570E+04
 0.27270000E+02  0.69940E+04
 0.27320000E+02  0.77480E+04
 0.27369999E+02  0.79350E+04
 0.27420002E+02  0.80370E+04
 0.27470001E+02  0.86750E+04
 0.27520000E+02  0.94340E+04
 0.27570000E+02  0.10285E+05
 0.27619999E+02  0.10629E+05
 0.27670002E+02  0.10162E+05
 0.27720001E+02  0.89780E+04
 0.27770000E+02  0.72860E+04
 0.27820000E+02  0.51530E+04
 0.27869999E+02  0.30970E+04
 0.27920002E+02  0.16980E+04
 0.27970001E+02  0.10090E+04
 0.28020000E+02  0.12320E+04
 0.28070000E+02  0.21270E+04
 0.28119999E+02  0.35650E+04
 0.28169998E+02  0.54840E+04
 0.28220001E+02  0.74370E+04
 0.28270000E+02  0.95710E+04
 0.28320000E+02  0.11922E+05
 0.28369999E+02  0.13499E+05
 0.28419998E+02  0.14155E+05
 0.28470001E+02  0.14553E+05
 0.28520000E+02  0.15538E+05
 0.28570000E+02  0.17063E+05
 0.28619999E+02  0.18280E+05
 0.28669998E+02  0.18885E+05
 0.28720001E+02  0.18729E+05
 0.28770000E+02  0.18613E+05
 0.28820000E+02  0.19323E+05
 0.28869999E+02  0.20642E+05
 0.28919998E+02  0.21489E+05
 0.28970001E+02  0.21443E+05
 0.29020000E+02  0.20970E+05
 0.29070000E+02  0.19577E+05
 0.29119999E+02  0.16570E+05
 0.29169998E+02  0.12482E+05
 0.29220001E+02  0.90880E+04
 0.29270000E+02  0.70780E+04
 0.29320000E+02  0.56100E+04
 0.29369999E+02  0.40980E+04
 0.29419998E+02  0.26930E+04
 0.29470001E+02  0.14970E+04
 0.29520000E+02 -0.16200E+03
 0.29570000E+02 -0.31780E+04
 0.29619999E+02 -0.73370E+04
 0.29669998E+02 -0.11119E+05
 0.29720001E+02 -0.13420E+05
 0.29770000E+02 -0.14200E+05
 0.29820000E+02 -0.13389E+05
 0.29869999E+02 -0.11183E+05
 0.29919998E+02 -0.83710E+04
 0.29970001E+02 -0.53540E+04
 0.30020000E+02 -0.24970E+04
 0.30070000E+02 -0.12100E+03
 0.30119999E+02  0.20870E+04
 0.30169998E+02  0.49350E+04
 0.30220001E+02  0.93840E+04
 0.30270000E+02  0.14961E+05
 0.30320000E+02  0.19349E+05
 0.30369999E+02  0.21278E+05
 0.30419998E+02  0.21526E+05
 0.30470001E+02  0.21385E+05
 0.30520000E+02  0.21251E+05
 0.30570000E+02  0.21347E+05
 0.30619999E+02  0.20917E+05
 0.30669998E+02  0.19353E+05
 0.30720001E+02  0.18212E+05
 0.30770000E+02  0.17256E+05
 0.30820000E+02  0.16272E+05
 0.30869999E+02  0.14744E+05
 0.30919998E+02  0.12437E+05
 0.30970001E+02  0.10633E+05
 0.31020000E+02  0.89220E+04
 0.31070000E+02  0.78010E+04
 0.31119999E+02  0.70430E+04
 0.31169998E+02  0.62490E+04
 0.31220001E+02  0.62460E+04
 0.31270000E+02  0.67310E+04
 0.31320000E+02  0.73320E+04
 0.31369999E+02  0.79360E+04
 0.31419998E+02  0.87550E+04
 0.31470001E+02  0.99220E+04
 0.31520000E+02  0.10735E+05
 0.31570000E+02  0.10027E+05
 0.31619999E+02  0.74880E+04
 0.31669998E+02  0.38410E+04
 0.31720001E+02  0.40800E+03
 0.31770000E+02 -0.24200E+04
 0.31820000E+02 -0.54670E+04
 0.31869999E+02 -0.80800E+04
 0.31919998E+02 -0.98090E+04
 0.31970001E+02 -0.11032E+05
 0.32020000E+02 -0.11794E+05
 0.32070000E+02 -0.12469E+05
 0.32119999E+02 -0.12527E+05
 0.32169998E+02 -0.11889E+05
 0.32220001E+02 -0.11470E+05
 0.32270000E+02 -0.11522E+05
 0.32320000E+02 -0.11273E+05
 0.32369999E+02 -0.97420E+04
 0.32419998E+02 -0.80490E+04
 0.32470001E+02 -0.73220E+04
 0.32520000E+02 -0.73040E+04
 0.32570000E+02 -0.74680E+04
 0.32619999E+02 -0.71650E+04
 0.32669998E+02 -0.65480E+04
 0.32720001E+02 -0.55180E+04
 0.32770000E+02 -0.50300E+04
 0.32820000E+02 -0.61350E+04
 0.32869999E+02 -0.74690E+04
 0.32919998E+02 -0.79470E+04
 0.32970001E+02 -0.82100E+04
 0.33020000E+02 -0.92530E+04
 0.33070000E+02 -0.11100E+05
 0.33119999E+02 -0.13354E+05
 0.33169998E+02 -0.15024E+05
 0.33220001E+02 -0.15018E+05
 0.33270000E+02 -0.14169E+05
 0.33320000E+02 -0.14063E+05
 0.33369999E+02 -0.15042E+05
 0.33419998E+02 -0.16267E+05
 0.33470001E+02 -0.17551E+05
 0.33520000E+02 -0.19731E+05
 0.33570000E+02 -0.23253E+05
 0.33619999E+02 -0.27825E+05
 0.33669998E+02 -0.32233E+05
 0.33720001E+02 -0.35528E+05
 0.33770000E+02 -0.37948E+05
 0.33820000E+02 -0.40223E+05
 0.33869999E+02 -0.42816E+05
 0.33919998E+02 -0.45631E+05
 0.33970001E+02 -0.48182E+05
 0.34020000E+02 -0.49719E+05
 0.34070000E+02 -0.50252E+05
 0.34119999E+02 -0.50283E+05
 0.34169998E+02 -0.49780E+05
 0.34220001E+02 -0.48534E+05
 0.34270000E+02 -0.46405E+05
 0.34320000E+02 -0.43642E+05
 0.34369999E+02 -0.40890E+05
 0.34419998E+02 -0.38341E+05
 0.34470001E+02 -0.35845E+05
 0.34520000E+02 -0.33560E+05
 0.34570000E+02 -0.31119E+05
 0.34619999E+02 -0.27779E+05
 0.34669998E+02 -0.23502E+05
 0.34720001E+02 -0.19065E+05
 0.34770000E+02 -0.16122E+05
 0.34820000E+02 -0.15213E+05
 0.34869999E+02 -0.15394E+05
 0.34919998E+02 -0.16331E+05
 0.34970001E+02 -0.17502E+05
 0.35020000E+02 -0.18320E+05
 0.35070000E+02 -0.18851E+05
 0.35119999E+02 -0.18681E+05
 0.35169998E+02 -0.17635E+05
 0.35220001E+02 -0.16042E+05
 0.35270000E+02 -0.13755E+05
 0.35320000E+02 -0.10508E+05
 0.35369999E+02 -0.66510E+04
 0.35419998E+02 -0.29150E+04
 0.35470001E+02  0.41800E+03
 0.35520000E+02  0.33890E+04
 0.35570000E+02  0.63990E+04
 0.35619999E+02  0.99420E+04
 0.35669998E+02  0.13821E+05
 0.35720001E+02  0.17626E+05
 0.35770000E+02  0.21453E+05
 0.35820000E+02  0.25312E+05
 0.35869999E+02  0.28621E+05
 0.35919998E+02  0.30801E+05
 0.35970001E+02  0.31803E+05
 0.36020000E+02  0.32189E+05
 0.36070000E+02  0.32691E+05
 0.36119999E+02  0.33560E+05
 0.36169998E+02  0.34201E+05
 0.36220001E+02  0.34096E+05
 0.36270000E+02  0.33144E+05
 0.36320000E+02  0.31662E+05
 0.36369999E+02  0.29955E+05
 0.36419998E+02  0.27400E+05
 0.36470001E+02  0.23998E+05
 0.36520000E+02  0.20739E+05
 0.36570000E+02  0.17661E+05
 0.36619999E+02  0.14303E+05
 0.36669998E+02  0.11201E+05
 0.36720001E+02  0.88980E+04
 0.36770000E+02  0.75670E+04
 0.36820000E+02  0.71520E+04
 0.36869999E+02  0.72090E+04
 0.36919998E+02  0.76400E+04
 0.36970001E+02  0.85940E+04
 0.37020000E+02  0.10482E+05
 0.37070000E+02  0.13098E+05
 0.37119999E+02  0.15468E+05
 0.37169998E+02  0.17329E+05
 0.37220001E+02  0.18928E+05
 0.37270000E+02  0.20663E+05
 0.37320000E+02  0.22816E+05
 0.37369999E+02  0.25255E+05
 0.37419998E+02  0.27107E+05
 0.37470001E+02  0.27290E+05
 0.37520000E+02  0.25848E+05
 0.37570000E+02  0.23514E+05
 0.37619999E+02  0.20904E+05
 0.37669998E+02  0.17830E+05
 0.37720001E+02  0.13877E+05
 0.37770000E+02  0.93580E+04
 0.37820000E+02  0.45570E+04
 0.37869999E+02 -0.32000E+02
 0.37919998E+02 -0.43150E+04
 0.37970001E+02 -0.92390E+04
 0.38020000E+02 -0.14792E+05
 0.38070000E+02 -0.19811E+05
 0.38119999E+02 -0.23461E+05
 0.38169998E+02 -0.25855E+05
 0.38220001E+02 -0.27225E+05
 0.38270000E+02 -0.27534E+05
 0.38320000E+02 -0.26862E+05
 0.38369999E+02 -0.25490E+05
 0.38419998E+02 -0.23729E+05
 0.38470001E+02 -0.20821E+05
 0.38520000E+02 -0.16523E+05
 0.38570000E+02 -0.12274E+05
 0.38619999E+02 -0.87100E+04
 0.38669998E+02 -0.47050E+04
 0.38720001E+02  0.58500E+03
 0.38770000E+02  0.70760E+04
 0.38820000E+02  0.14541E+05
 0.38869999E+02  0.22277E+05
 0.38919998E+02  0.29732E+05
 0.38970001E+02  0.36531E+05
 0.39020000E+02  0.42546E+05
 0.39070000E+02  0.48314E+05
 0.39119999E+02  0.53784E+05
 0.39169998E+02  0.57749E+05
 0.39220001E+02  0.59306E+05
 0.39270000E+02  0.59481E+05
 0.39320000E+02  0.59274E+05
 0.39369999E+02  0.58573E+05
 0.39419998E+02  0.56975E+05
 0.39470001E+02  0.54177E+05
 0.39520000E+02  0.50749E+05
 0.39570000E+02  0.47345E+05
 0.39619999E+02  0.44298E+05
 0.39669998E+02  0.41054E+05
 0.39720001E+02  0.36710E+05
 0.39770000E+02  0.31188E+05
 0.39820000E+02  0.25066E+05
 0.39869999E+02  0.19492E+05
 0.39919998E+02  0.14825E+05
 0.39970001E+02  0.10276E+05
 0.40020000E+02  0.53760E+04
 0.40070000E+02  0.54900E+03
 0.40119999E+02 -0.34240E+04
 0.40169998E+02 -0.63580E+04
 0.40220001E+02 -0.87150E+04
 0.40270000E+02 -0.10619E+05
 0.40320000E+02 -0.12149E+05
 0.40369999E+02 -0.13340E+05
 0.40419998E+02 -0.14065E+05
 0.40470001E+02 -0.14315E+05
 0.40520000E+02 -0.14014E+05
 0.40570000E+02 -0.13330E+05
 0.40619999E+02 -0.12186E+05
 0.40669998E+02 -0.10588E+05
 0.40720001E+02 -0.93910E+04
 0.40770000E+02 -0.93520E+04
 0.40820000E+02 -0.99950E+04
 0.40869999E+02 -0.10874E+05
 0.40919998E+02 -0.12114E+05
 0.40970001E+02 -0.13138E+05
 0.41020000E+02 -0.13642E+05
 0.41070000E+02 -0.13599E+05
 0.41119999E+02 -0.12774E+05
 0.41169998E+02 -0.11356E+05
 0.41220001E+02 -0.95500E+04
 0.41270000E+02 -0.78820E+04
 0.41320000E+02 -0.66900E+04
 0.41369999E+02 -0.61710E+04
 0.41419998E+02 -0.67340E+04
 0.41470001E+02 -0.80860E+04
 0.41520000E+02 -0.99030E+04
 0.41570000E+02 -0.11833E+05
 0.41619999E+02 -0.13888E+05
 0.41669998E+02 -0.16148E+05
 0.41720001E+02 -0.18456E+05
 0.41770000E+02 -0.21102E+05
 0.41820000E+02 -0.23781E+05
 0.41869999E+02 -0.25702E+05
 0.41919998E+02 -0.26940E+05
 0.41970001E+02 -0.28458E+05
 0.42020000E+02 -0.30271E+05
 0.42070000E+02 -0.32252E+05
 0.42119999E+02 -0.34676E+05
 0.42169998E+02 -0.38087E+05
 0.42220001E+02 -0.42808E+05
 0.42270000E+02 -0.47015E+05
 0.42320000E+02 -0.48320E+05
 0.42369999E+02 -0.48111E+05
 0.42419998E+02 -0.47907E+05
 0.42470001E+02 -0.46546E+05
 0.42520000E+02 -0.41529E+05
 0.42570000E+02 -0.33657E+05
 0.42619999E+02 -0.30266E+05
 0.42669998E+02 -0.28070E+05
 0.42720001E+02 -0.23125E+05
 0.42770000E+02 -0.15451E+05
 0.42820000E+02 -0.11394E+05
 0.42869999E+02 -0.19803E+05
 0.42919998E+02 -0.27237E+05
 0.42970001E+02 -0.24769E+05
 0.43020000E+02 -0.18678E+05
 0.43070000E+02 -0.11150E+05
 0.43119999E+02 -0.47290E+04
 0.43169998E+02  0.19160E+04
 0.43220001E+02  0.19212E+05
 0.43270000E+02  0.29769E+05
 0.43320000E+02  0.16636E+05
 0.43369999E+02  0.80930E+04
 0.43419998E+02  0.16600E+05
 0.43470001E+02 -0.14420E+04
 0.43520000E+02 -0.19121E+05
 0.43570000E+02 -0.16201E+05
 0.43619999E+02 -0.38137E+05
 0.43669998E+02 -0.50887E+05
 0.43720001E+02 -0.39955E+05
 0.43770000E+02 -0.27831E+05
 0.43820000E+02 -0.45777E+05
 0.43869999E+02 -0.40031E+05
 0.43919998E+02 -0.13505E+05
 0.43970001E+02 -0.20741E+05
 0.44020000E+02 -0.63620E+04
 0.44070000E+02  0.37780E+04
 0.44119999E+02  0.63830E+04
 0.44169998E+02 -0.35000E+04
 0.44220001E+02  0.27860E+04
 0.44270000E+02  0.16047E+05
 0.44320000E+02 -0.33050E+04
 0.44369999E+02  0.56850E+04
 0.44419998E+02  0.18424E+05
 0.44470001E+02  0.19220E+05
 0.44520000E+02  0.17959E+05
 0.44570000E+02  0.22224E+05
 0.44619999E+02  0.31847E+05
 0.44669998E+02  0.44370E+05
 0.44720001E+02  0.41196E+05
 0.44770000E+02  0.34853E+05
 0.44820000E+02  0.38249E+05
 0.44869999E+02  0.31402E+05
 0.44919998E+02  0.58089E+05
 0.44970001E+02  0.65432E+05
 0.45020000E+02  0.21876E+05
 0.45070000E+02  0.16142E+05
 0.45119999E+02  0.36078E+05
 0.45169998E+02  0.17184E+05
 0.45220001E+02 -0.43100E+04
 0.45270000E+02 -0.35550E+04
 0.45320000E+02  0.76770E+04
 0.45369999E+02  0.34490E+04
 0.45419998E+02 -0.21197E+05
 0.45470001E+02 -0.28970E+05
 0.45520000E+02 -0.28962E+05
 0.45570000E+02 -0.19530E+05
 0.45619999E+02 -0.16689E+05
 0.45669998E+02 -0.22889E+05
 0.45720001E+02 -0.23462E+05
 0.45770000E+02 -0.23359E+05
 0.45820000E+02 -0.87600E+04
 0.45869999E+02 -0.49320E+04
 0.45919998E+02 -0.25787E+05
 0.45970001E+02 -0.28869E+05
 0.46020000E+02 -0.28385E+05
 0.46070000E+02 -0.42407E+05
 0.46119999E+02 -0.28922E+05
 0.46169998E+02 -0.29649E+05
 0.46220001E+02 -0.46363E+05
 0.46270000E+02 -0.31065E+05
 0.46320000E+02 -0.28263E+05
 0.46369999E+02 -0.42627E+05
 0.46419998E+02 -0.35635E+05
 0.46470001E+02 -0.19004E+05
 0.46520000E+02 -0.19351E+05
 0.46570000E+02 -0.13561E+05
 0.46619999E+02 -0.33010E+04
 0.46669998E+02 -0.52160E+04
 0.46720001E+02  0.73000E+03
 0.46770000E+02 -0.49480E+04
 0.46820000E+02 -0.12314E+05
 0.46869999E+02 -0.18494E+05
 0.46919998E+02 -0.36868E+05
 0.46970001E+02 -0.19034E+05
 0.47020000E+02  0.11608E+05
 0.47070000E+02  0.15236E+05
 0.47119999E+02  0.18257E+05
 0.47169998E+02  0.21361E+05
 0.47220001E+02  0.22101E+05
 0.47270000E+02  0.32717E+05
 0.47320000E+02  0.28703E+05
 0.47369999E+02  0.11596E+05
 0.47419998E+02  0.19235E+05
 0.47470001E+02  0.29607E+05
 0.47520000E+02  0.17283E+05
 0.47570000E+02 -0.11568E+05
 0.47619999E+02 -0.30283E+05
 0.47669998E+02 -0.34146E+05
 0.47720001E+02 -0.43731E+05
 0.47770000E+02 -0.41195E+05
 0.47820000E+02 -0.31425E+05
 0.47869999E+02 -0.29594E+05
 0.47919998E+02 -0.34350E+05
 0.47970001E+02 -0.37289E+05
 0.48020000E+02 -0.39921E+05
 0.48070000E+02 -0.34797E+05
 0.48119999E+02 -0.12000E+05
 0.48169998E+02 -0.15019E+05
 0.48220001E+02 -0.19227E+05
 0.48270000E+02 -0.16860E+04
 0.48320000E+02 -0.36420E+04
 0.48369999E+02  0.24900E+03
 0.48419998E+02  0.43680E+04
 0.48470001E+02 -0.15381E+05
 0.48520000E+02 -0.35057E+05
 0.48570000E+02 -0.46153E+05
 0.48619999E+02 -0.63774E+05
 0.48669998E+02 -0.92091E+05
 0.48720001E+02 -0.89362E+05
 0.48770000E+02 -0.77529E+05
 0.48820000E+02 -0.87748E+05
 0.48869999E+02 -0.10086E+06
 0.48919998E+02 -0.11747E+06
 0.48970001E+02 -0.10906E+06
 0.49020000E+02 -0.92017E+05
 0.49070000E+02 -0.89552E+05
 0.49119999E+02 -0.94300E+05
 0.49169998E+02 -0.84291E+05
 0.49220001E+02 -0.56582E+05
 0.49270000E+02 -0.63619E+05
 0.49320000E+02 -0.69196E+05
 0.49369999E+02 -0.55635E+05
 0.49419998E+02 -0.52864E+05
 0.49470001E+02 -0.40978E+05
 0.49520000E+02 -0.38095E+05
 0.49570000E+02 -0.44235E+05
 0.49619999E+02 -0.15422E+05
 0.49669998E+02 -0.17220E+04
 0.49720001E+02 -0.26789E+05
 0.49770000E+02 -0.19311E+05
 0.49820000E+02  0.22130E+04
 0.49869999E+02 -0.14524E+05
 0.49919998E+02 -0.38283E+05
 0.49970001E+02 -0.33797E+05
 0.50020000E+02 -0.22399E+05
 0.50070000E+02 -0.11166E+05
 0.50119999E+02 -0.16160E+05
 0.50169998E+02 -0.27551E+05
 0.50220001E+02 -0.39658E+05
 0.50270000E+02 -0.54111E+05
 0.50320000E+02 -0.40876E+05
 0.50369999E+02 -0.45805E+05
 0.50419998E+02 -0.46334E+05
 0.50470001E+02 -0.16082E+05
 0.50520000E+02  0.61040E+04
 0.50570000E+02  0.95430E+04
 0.50619999E+02 -0.51200E+03
 0.50669998E+02  0.28540E+04
 0.50720001E+02  0.13407E+05
 0.50770000E+02  0.38131E+05
 0.50820000E+02  0.60636E+05
 0.50869999E+02  0.54885E+05
 0.50919998E+02  0.52510E+05
 0.50970001E+02  0.45527E+05
 0.51020000E+02  0.30218E+05
 0.51070000E+02  0.20560E+05
 0.51119999E+02  0.64890E+04
 0.51169998E+02 -0.63800E+04
 0.51220001E+02 -0.43457E+05
 0.51270000E+02 -0.70504E+05
 0.51320000E+02 -0.45239E+05
 0.51369999E+02 -0.23464E+05
 0.51419998E+02 -0.10826E+05
 0.51470001E+02  0.99940E+04
 0.51520000E+02  0.47789E+05
 0.51570000E+02  0.73230E+05
 0.51619999E+02  0.75278E+05
 0.51669998E+02  0.10183E+06
 0.51720001E+02  0.12527E+06
 0.51770000E+02  0.14165E+06
 0.51820000E+02  0.17045E+06
 0.51869999E+02  0.19414E+06
 0.51919998E+02  0.17746E+06
 0.51970001E+02  0.12745E+06
 0.52020000E+02  0.12186E+06
 0.52070000E+02  0.13104E+06
 0.52119999E+02  0.10216E+06
 0.52169998E+02  0.64375E+05
 0.52220001E+02  0.40256E+05
 0.52270000E+02  0.29480E+05
 0.52320000E+02  0.41253E+05
 0.52369999E+02  0.76686E+05
 0.52419998E+02  0.89839E+05
 0.52470001E+02  0.78099E+05
 0.52520000E+02  0.11370E+06
 0.52570000E+02  0.18054E+06
 0.52619999E+02  0.17791E+06
 0.52669998E+02  0.12038E+06
 0.52720001E+02  0.75002E+05
 0.52770000E+02  0.20683E+05
 0.52820000E+02 -0.52489E+05
 0.52869999E+02 -0.78073E+05
 0.52919998E+02 -0.57456E+05
 0.52970001E+02 -0.52390E+05
 0.53020000E+02 -0.83806E+05
 0.53070000E+02 -0.11108E+06
 0.53119999E+02 -0.87291E+05
 0.53169998E+02 -0.43205E+05
 0.53220001E+02 -0.23690E+04
 0.53270000E+02  0.37214E+05
 0.53320000E+02  0.65528E+05
 0.53369999E+02  0.52799E+05
 0.53419998E+02  0.26178E+05
 0.53470001E+02  0.36752E+05
 0.53520000E+02  0.48424E+05
 0.53570000E+02  0.71057E+05
 0.53619999E+02  0.98093E+05
 0.53669998E+02  0.90935E+05
 0.53720001E+02  0.86942E+05
 0.53770000E+02  0.81265E+05
 0.53820000E+02  0.70741E+05
 0.53869999E+02  0.83350E+05
 0.53919998E+02  0.11430E+06
 0.53970001E+02  0.11290E+06
 0.54020000E+02  0.69722E+05
 0.54070000E+02  0.50578E+05
 0.54119999E+02  0.30330E+05
 0.54169998E+02  0.66900E+04
 0.54220001E+02  0.12651E+05
 0.54270000E+02  0.40849E+05
 0.54320000E+02  0.84351E+05
 0.54369999E+02  0.10951E+06
 0.54419998E+02  0.12181E+06
 0.54470001E+02  0.14194E+06
 0.54520000E+02  0.15983E+06
 0.54570000E+02  0.16158E+06
 0.54619999E+02  0.15226E+06
 0.54669998E+02  0.11367E+06
 0.54720001E+02  0.90246E+05
 0.54770000E+02  0.10086E+06
 0.54820000E+02  0.59321E+05
 0.54869999E+02  0.15095E+05
 0.54919998E+02  0.32123E+05
 0.54970001E+02  0.56412E+05
 0.55020000E+02  0.52120E+05
 0.55070000E+02  0.44856E+05
 0.55119999E+02  0.49625E+05
 0.55169998E+02  0.55392E+05
 0.55220001E+02  0.66736E+05
 0.55270000E+02  0.43386E+05
 0.55320000E+02 -0.21105E+05
 0.55369999E+02 -0.56746E+05
 0.55419998E+02 -0.59900E+05
 0.55470001E+02 -0.76341E+05
 0.55520000E+02 -0.12512E+06
 0.55570000E+02 -0.19213E+06
 0.55619999E+02 -0.22783E+06
 0.55669998E+02 -0.19789E+06
 0.55720001E+02 -0.17317E+06
 0.55770000E+02 -0.16247E+06
 0.55820000E+02 -0.94364E+05
 0.55869999E+02 -0.31039E+05
 0.55919998E+02  0.87500E+03
 0.55970001E+02  0.60504E+05
 0.56020000E+02  0.13636E+06
 0.56070000E+02  0.19366E+06
 0.56119999E+02  0.21047E+06
 0.56169998E+02  0.18223E+06
 0.56220001E+02  0.16732E+06
 0.56270000E+02  0.17457E+06
 0.56320000E+02  0.13562E+06
 0.56369999E+02  0.55477E+05
 0.56419998E+02  0.16359E+05
 0.56470001E+02  0.33630E+05
 0.56520000E+02 -0.13301E+05
 0.56570000E+02 -0.10752E+06
 0.56619999E+02 -0.12230E+06
 0.56669998E+02 -0.99755E+05
 0.56720001E+02 -0.10295E+06
 0.56770000E+02 -0.11740E+06
 0.56820000E+02 -0.12334E+06
 0.56869999E+02 -0.13680E+06
 0.56919998E+02 -0.16767E+06
 0.56970001E+02 -0.19594E+06
 0.57020000E+02 -0.18489E+06
 0.57070000E+02 -0.12388E+06
 0.57119999E+02 -0.82763E+05
 0.57169998E+02 -0.58683E+05
 0.57220001E+02 -0.38450E+04
 0.57270000E+02  0.26218E+05
 0.57320000E+02  0.76100E+03
 0.57369999E+02 -0.66910E+04
 0.57419998E+02  0.30484E+05
 0.57470001E+02  0.42495E+05
 0.57520000E+02 -0.12217E+05
 0.57570000E+02 -0.97499E+05
 0.57619999E+02 -0.13739E+06
 0.57669998E+02 -0.12984E+06
 0.57720001E+02 -0.11054E+06
 0.57770000E+02 -0.78253E+05
 0.57820000E+02 -0.48219E+05
 0.57869999E+02 -0.27589E+05
 0.57919998E+02 -0.16712E+05
 0.57970001E+02  0.14560E+04
 0.58020000E+02  0.25441E+05
 0.58070000E+02  0.53991E+05
 0.58119999E+02  0.91149E+05
 0.58169998E+02  0.95593E+05
 0.58220001E+02  0.73228E+05
 0.58270000E+02  0.34090E+05
 0.58320000E+02 -0.81120E+04
 0.58369999E+02  0.27850E+04
 0.58419998E+02  0.42946E+05
 0.58470001E+02  0.51752E+05
 0.58520000E+02  0.68174E+05
 0.58570000E+02  0.13363E+06
 0.58619999E+02  0.17743E+06
 0.58669998E+02  0.16188E+06
 0.58720001E+02  0.14193E+06
 0.58770000E+02  0.13700E+06
 0.58820000E+02  0.13635E+06
 0.58869999E+02  0.10857E+06
 0.58919998E+02  0.62471E+05
 0.58970001E+02  0.68747E+05
 0.59020000E+02  0.10852E+06
 0.59070000E+02  0.12412E+06
 0.59119999E+02  0.13713E+06
 0.59169998E+02  0.17478E+06
 0.59220001E+02  0.19192E+06
 0.59270000E+02  0.16756E+06
 0.59320000E+02  0.16927E+06
 0.59369999E+02  0.20905E+06
 0.59419998E+02  0.20433E+06
 0.59470001E+02  0.16450E+06
 0.59520000E+02  0.11750E+06
 0.59570000E+02  0.52290E+05
 0.59619999E+02  0.58660E+04
 0.59669998E+02 -0.21191E+05
 0.59720001E+02 -0.13979E+05
 0.59770000E+02  0.18807E+05
 0.59820000E+02  0.31969E+05
 0.59869999E+02  0.32700E+05
 0.59919998E+02  0.39065E+05
 0.59970001E+02  0.35435E+05
 0.60020000E+02  0.24472E+05
 0.60070000E+02  0.29209E+05
 0.60119999E+02  0.20253E+05
 0.60170002E+02  0.31511E+05
 0.60219997E+02  0.10259E+06
 0.60270000E+02  0.16847E+06
 0.60320004E+02  0.19972E+06
 0.60369999E+02  0.21989E+06
 0.60420002E+02  0.20738E+06
 0.60469997E+02  0.17753E+06
 0.60520000E+02  0.16814E+06
 0.60570004E+02  0.12112E+06
 0.60619999E+02  0.46953E+05
 0.60670002E+02  0.24068E+05
 0.60719997E+02  0.47336E+05
 0.60770000E+02  0.83557E+05
 0.60820004E+02  0.81259E+05
 0.60869999E+02  0.75624E+05
 0.60920002E+02  0.11833E+06
 0.60969997E+02  0.13572E+06
 0.61020000E+02  0.13174E+06
 0.61070004E+02  0.12126E+06
 0.61119999E+02  0.10802E+06
 0.61170002E+02  0.10737E+06
 0.61219997E+02  0.46156E+05
 0.61270000E+02 -0.61137E+05
 0.61320004E+02 -0.11342E+06
 0.61369999E+02 -0.95036E+05
 0.61420002E+02 -0.72450E+05
 0.61469997E+02 -0.61374E+05
 0.61520000E+02 -0.55816E+05
 0.61570004E+02 -0.52651E+05
 0.61619999E+02 -0.16659E+05
 0.61670002E+02 -0.23450E+04
 0.61719997E+02 -0.36667E+05
 0.61770000E+02 -0.66830E+05
 0.61820004E+02 -0.11028E+06
 0.61869999E+02 -0.15028E+06
 0.61920002E+02 -0.16148E+06
 0.61969997E+02 -0.19242E+06
 0.62020000E+02 -0.23106E+06
 0.62070004E+02 -0.26246E+06
 0.62119999E+02 -0.29922E+06
 0.62170002E+02 -0.32962E+06
 0.62219997E+02 -0.34182E+06
 0.62270000E+02 -0.30560E+06
 0.62320004E+02 -0.22865E+06
 0.62369999E+02 -0.15360E+06
 0.62420002E+02 -0.11306E+06
 0.62469997E+02 -0.59178E+05
 0.62520000E+02  0.42178E+05
 0.62570004E+02  0.13876E+06
 0.62619999E+02  0.22875E+06
 0.62670002E+02  0.29060E+06
 0.62719997E+02  0.30892E+06
 0.62770000E+02  0.32014E+06
 0.62820004E+02  0.31372E+06
 0.62869999E+02  0.29929E+06
 0.62920002E+02  0.30478E+06
 0.62969997E+02  0.26014E+06
 0.63020000E+02  0.17149E+06
 0.63070004E+02  0.11047E+06
 0.63119999E+02  0.52515E+05
 0.63170002E+02 -0.11809E+05
 0.63219997E+02 -0.92780E+05
 0.63270000E+02 -0.15626E+06
 0.63320004E+02 -0.19587E+06
 0.63369999E+02 -0.24101E+06
 0.63420002E+02 -0.24366E+06
 0.63469997E+02 -0.20092E+06
 0.63520000E+02 -0.15591E+06
 0.63570004E+02 -0.14531E+06
 0.63619999E+02 -0.16566E+06
 0.63670002E+02 -0.19556E+06
 0.63719997E+02 -0.22949E+06
 0.63770000E+02 -0.27461E+06
 0.63820004E+02 -0.30619E+06
 0.63869999E+02 -0.30713E+06
 0.63920002E+02 -0.29241E+06
 0.63969997E+02 -0.23536E+06
 0.64020004E+02 -0.16870E+06
 0.64070007E+02 -0.16145E+06
 0.64120003E+02 -0.16510E+06
 0.64170006E+02 -0.11447E+06
 0.64220001E+02 -0.26066E+05
 0.64270004E+02  0.60180E+05
 0.64320007E+02  0.96662E+05
 0.64370003E+02  0.10035E+06
 0.64420006E+02  0.99948E+05
 0.64470001E+02  0.72739E+05
 0.64520004E+02  0.31379E+05
 0.64570007E+02  0.79710E+04
 0.64620003E+02  0.43500E+04
 0.64670006E+02 -0.12127E+05
 0.64720001E+02 -0.42250E+05
 0.64770004E+02 -0.65628E+05
 0.64820007E+02 -0.72745E+05
 0.64870003E+02 -0.50389E+05
 0.64920006E+02 -0.17376E+05
 0.64970001E+02  0.80100E+03
 0.65020004E+02 -0.49370E+04
 0.65070007E+02 -0.26759E+05
 0.65120003E+02 -0.41811E+05
 0.65170006E+02 -0.37793E+05
 0.65220001E+02 -0.37728E+05
 0.65270004E+02 -0.70552E+05
 0.65320007E+02 -0.11141E+06
 0.65370003E+02 -0.13815E+06
 0.65420006E+02 -0.16130E+06
 0.65470001E+02 -0.15667E+06
 0.65520004E+02 -0.12326E+06
 0.65570007E+02 -0.10571E+06
 0.65620003E+02 -0.66480E+05
 0.65670006E+02  0.88680E+04
 0.65720001E+02  0.65704E+05
 0.65770004E+02  0.92800E+05
 0.65820007E+02  0.93700E+05
 0.65870003E+02  0.11068E+06
 0.65920006E+02  0.10808E+06
 0.65970001E+02  0.30357E+05
 0.66020004E+02 -0.35213E+05
 0.66070007E+02 -0.42464E+05
 0.66120003E+02 -0.20611E+05
 0.66170006E+02  0.11529E+05
 0.66220001E+02  0.35382E+05
 0.66270004E+02  0.24283E+05
 0.66320007E+02 -0.53100E+04
 0.66370003E+02 -0.29175E+05
 0.66420006E+02 -0.66544E+05
 0.66470001E+02 -0.10902E+06
 0.66520004E+02 -0.13504E+06
 0.66570007E+02 -0.15504E+06
 0.66620003E+02 -0.18579E+06
 0.66670006E+02 -0.21040E+06
 0.66720001E+02 -0.23571E+06
 0.66770004E+02 -0.25340E+06
 0.66820007E+02 -0.22709E+06
 0.66870003E+02 -0.18738E+06
 0.66920006E+02 -0.14544E+06
 0.66970001E+02 -0.95208E+05
 0.67020004E+02 -0.42630E+05
 0.67070007E+02  0.11423E+05
 0.67120003E+02  0.47286E+05
 0.67170006E+02  0.56676E+05
 0.67220001E+02  0.58797E+05
 0.67270004E+02  0.68536E+05
 0.67320007E+02  0.56866E+05
 0.67370003E+02  0.33945E+05
 0.67420006E+02  0.26972E+05
 0.67470001E+02  0.17478E+05
 0.67520004E+02  0.34650E+04
 0.67570007E+02  0.18621E+05
 0.67620003E+02  0.77070E+05
 0.67670006E+02  0.11494E+06
 0.67720001E+02  0.11361E+06
 0.67770004E+02  0.10340E+06
 0.67820007E+02  0.93657E+05
 0.67870003E+02  0.85305E+05
 0.67920006E+02  0.72681E+05
 0.67970001E+02  0.68535E+05
 0.68020004E+02  0.52161E+05
 0.68070007E+02  0.42056E+05
 0.68120003E+02  0.37142E+05
 0.68170006E+02 -0.20876E+05
 0.68220001E+02 -0.10071E+06
 0.68270004E+02 -0.16668E+06
 0.68320007E+02 -0.21859E+06
 0.68370003E+02 -0.24996E+06
 0.68420006E+02 -0.24672E+06
 0.68470001E+02 -0.23299E+06
 0.68520004E+02 -0.23917E+06
 0.68570007E+02 -0.24018E+06
 0.68620003E+02 -0.22217E+06
 0.68670006E+02 -0.19820E+06
 0.68720001E+02 -0.19074E+06
 0.68770004E+02 -0.17487E+06
 0.68820007E+02 -0.15630E+06
 0.68870003E+02 -0.17406E+06
 0.68920006E+02 -0.17904E+06
 0.68970001E+02 -0.15536E+06
 0.69020004E+02 -0.14153E+06
 0.69070007E+02 -0.14009E+06
 0.69120003E+02 -0.10472E+06
 0.69170006E+02 -0.10095E+05
 0.69220001E+02  0.70770E+05
 0.69270004E+02  0.93719E+05
 0.69320007E+02  0.10550E+06
 0.69370003E+02  0.11339E+06
 0.69420006E+02  0.77731E+05
 0.69470001E+02  0.50450E+04
 0.69520004E+02 -0.50492E+05
 0.69570007E+02 -0.62174E+05
 0.69620003E+02 -0.40862E+05
 0.69670006E+02  0.41700E+04
 0.69720001E+02  0.58835E+05
 0.69770004E+02  0.11431E+06
 0.69820007E+02  0.15284E+06
 0.69870003E+02  0.17016E+06
 0.69920006E+02  0.18524E+06
 0.69970001E+02  0.19126E+06
 0.70020004E+02  0.17826E+06
 0.70070007E+02  0.15008E+06
 0.70120003E+02  0.13258E+06
 0.70170006E+02  0.13912E+06
 0.70220001E+02  0.12781E+06
 0.70270004E+02  0.84027E+05
 0.70320007E+02  0.34733E+05
 0.70370003E+02 -0.12049E+05
 0.70420006E+02 -0.34858E+05
 0.70470001E+02 -0.31592E+05
 0.70520004E+02 -0.28275E+05
 0.70570007E+02 -0.23455E+05
 0.70620003E+02 -0.12134E+05
 0.70670006E+02 -0.29380E+04
 0.70720001E+02 -0.22200E+04
 0.70770004E+02  0.73200E+03
 0.70820007E+02 -0.10613E+05
 0.70870003E+02 -0.28797E+05
 0.70920006E+02 -0.16435E+05
 0.70970001E+02 -0.16880E+05
 0.71020004E+02 -0.40216E+05
 0.71070007E+02 -0.44937E+05
 0.71120003E+02 -0.28255E+05
 0.71170006E+02  0.17556E+05
 0.71220001E+02  0.78756E+05
 0.71270004E+02  0.13752E+06
 0.71320007E+02  0.19809E+06
 0.71370003E+02  0.24954E+06
 0.71420006E+02  0.28198E+06
 0.71470001E+02  0.29628E+06
 0.71520004E+02  0.30190E+06
 0.71570007E+02  0.31232E+06
 0.71620003E+02  0.32233E+06
 0.71670006E+02  0.29482E+06
 0.71720001E+02  0.23292E+06
 0.71770004E+02  0.17236E+06
 0.71820007E+02  0.11255E+06
 0.71870003E+02  0.54416E+05
 0.71920006E+02  0.14693E+05
 0.71970001E+02  0.99530E+04
 0.72020004E+02  0.25642E+05
 0.72070007E+02  0.41916E+05
 0.72120003E+02  0.51485E+05
 0.72170006E+02  0.53018E+05
 0.72220001E+02  0.38538E+05
 0.72270004E+02  0.21127E+05
 0.72320007E+02  0.31506E+05
 0.72370003E+02  0.33213E+05
 0.72420006E+02  0.28996E+05
 0.72470001E+02  0.60572E+05
 0.72520004E+02  0.12081E+06
 0.72570007E+02  0.16348E+06
 0.72620003E+02  0.17590E+06
 0.72670006E+02  0.17527E+06
 0.72720001E+02  0.15245E+06
 0.72770004E+02  0.13057E+06
 0.72820007E+02  0.10545E+06
 0.72870003E+02  0.91738E+05
 0.72920006E+02  0.10597E+06
 0.72970001E+02  0.10037E+06
 0.73020004E+02  0.83514E+05
 0.73070007E+02  0.78457E+05
 0.73120003E+02  0.73863E+05
 0.73170006E+02  0.73990E+05
 0.73220001E+02  0.10450E+06
 0.73270004E+02  0.13074E+06
 0.73320007E+02  0.11283E+06
 0.73370003E+02  0.11036E+06
 0.73420006E+02  0.12381E+06
 0.73470001E+02  0.10214E+06
 0.73520004E+02  0.78625E+05
 0.73570007E+02  0.94378E+05
 0.73620003E+02  0.12641E+06
 0.73670006E+02  0.15056E+06
 0.73720001E+02  0.17038E+06
 0.73770004E+02  0.19439E+06
 0.73820007E+02  0.24129E+06
 0.73870003E+02  0.28579E+06
 0.73920006E+02  0.29386E+06
 0.73970001E+02  0.29345E+06
 0.74020004E+02  0.31208E+06
 0.74070007E+02  0.32040E+06
 0.74120003E+02  0.28148E+06
 0.74170006E+02  0.20806E+06
 0.74220001E+02  0.12280E+06
 0.74270004E+02  0.22359E+05
 0.74320007E+02 -0.80911E+05
 0.74370003E+02 -0.16361E+06
 0.74420006E+02 -0.22780E+06
 0.74470001E+02 -0.28070E+06
 0.74520004E+02 -0.31825E+06
 0.74570007E+02 -0.32442E+06
 0.74620003E+02 -0.30314E+06
 0.74670006E+02 -0.27568E+06
 0.74720001E+02 -0.25735E+06
 0.74770004E+02 -0.25445E+06
 0.74820007E+02 -0.24623E+06
 0.74870003E+02 -0.21939E+06
 0.74920006E+02 -0.22211E+06
 0.74970001E+02 -0.25527E+06
 0.75020004E+02 -0.25676E+06
 0.75070007E+02 -0.21435E+06
 0.75120003E+02 -0.14294E+06
 0.75170006E+02 -0.90111E+05
 0.75220001E+02 -0.61513E+05
 0.75270004E+02 -0.42716E+05
 0.75320007E+02 -0.45407E+05
 0.75370003E+02 -0.59516E+05
 0.75420006E+02 -0.81329E+05
 0.75470001E+02 -0.79135E+05
 0.75520004E+02 -0.53912E+05
 0.75570007E+02 -0.56426E+05
 0.75620003E+02 -0.87289E+05
 0.75670006E+02 -0.93444E+05
 0.75720001E+02 -0.72183E+05
 0.75770004E+02 -0.47369E+05
 0.75820007E+02 -0.39117E+05
 0.75870003E+02 -0.57438E+05
 0.75920006E+02 -0.79597E+05
 0.75970001E+02 -0.11126E+06
 0.76020004E+02 -0.10307E+06
 0.76070007E+02 -0.35129E+05
 0.76120003E+02 -0.61380E+04
 0.76170006E+02 -0.49300E+05
 0.76220001E+02 -0.83479E+05
 0.76270004E+02 -0.13301E+06
 0.76320007E+02 -0.16959E+06
 0.76370003E+02 -0.82301E+05
 0.76420006E+02  0.27847E+05
 0.76470001E+02  0.10834E+06
 0.76520004E+02  0.15523E+06
 0.76570007E+02  0.17150E+06
 0.76620003E+02  0.18581E+06
 0.76670006E+02  0.15392E+06
 0.76720001E+02  0.10734E+06
 0.76770004E+02  0.11741E+06
 0.76820007E+02  0.16466E+06
 0.76870003E+02  0.14514E+06
 0.76920006E+02  0.80119E+05
 0.76970001E+02  0.18690E+05
 0.77020004E+02 -0.44934E+05
 0.77070007E+02 -0.55024E+05
 0.77120003E+02 -0.62942E+05
 0.77170006E+02 -0.11720E+06
 0.77220001E+02 -0.15727E+06
 0.77270004E+02 -0.14848E+06
 0.77320007E+02 -0.97977E+05
 0.77370003E+02 -0.55314E+05
 0.77420006E+02 -0.63118E+05
 0.77470001E+02 -0.12531E+06
 0.77520004E+02 -0.20817E+06
 0.77570007E+02 -0.30020E+06
 0.77620003E+02 -0.38526E+06
 0.77670006E+02 -0.43780E+06
 0.77720001E+02 -0.46396E+06
 0.77770004E+02 -0.40575E+06
 0.77820007E+02 -0.29895E+06
 0.77870003E+02 -0.21518E+06
 0.77920006E+02 -0.11816E+06
 0.77970001E+02 -0.10596E+05
 0.78020004E+02  0.66331E+05
 0.78070007E+02  0.10247E+06
 0.78120003E+02  0.11679E+06
 0.78170006E+02  0.10575E+06
 0.78220001E+02  0.76552E+05
 0.78270004E+02  0.80740E+04
 0.78320007E+02 -0.74137E+05
 0.78370003E+02 -0.97642E+05
 0.78420006E+02 -0.81483E+05
 0.78470001E+02 -0.29631E+05
 0.78520004E+02  0.36490E+05
 0.78570007E+02  0.49119E+05
 0.78620003E+02  0.45520E+04
 0.78670006E+02 -0.31653E+05
 0.78720001E+02 -0.55644E+05
 0.78770004E+02 -0.80468E+05
 0.78820007E+02 -0.70358E+05
 0.78870003E+02 -0.67564E+05
 0.78920006E+02 -0.80095E+05
 0.78970001E+02 -0.71836E+05
 0.79020004E+02 -0.70704E+05
 0.79070007E+02 -0.97490E+05
 0.79120003E+02 -0.15422E+06
 0.79170006E+02 -0.18975E+06
 0.79220001E+02 -0.12931E+06
 0.79270004E+02 -0.21607E+05
 0.79320007E+02  0.36491E+05
 0.79370003E+02  0.37868E+05
 0.79420006E+02  0.16355E+05
 0.79470001E+02  0.11492E+05
 0.79520004E+02  0.21383E+05
 0.79570007E+02  0.82510E+04
 0.79620003E+02  0.26820E+04
 0.79670006E+02  0.16813E+05
 0.79720001E+02  0.81740E+04
 0.79770004E+02  0.55960E+04
 0.79820007E+02  0.35758E+05
 0.79870003E+02  0.76364E+05
 0.79920006E+02  0.81644E+05
 0.79970001E+02  0.26384E+05
 0.80020004E+02 -0.20064E+05
 0.80070007E+02 -0.52533E+05
 0.80120003E+02 -0.10704E+06
 0.80170006E+02 -0.13483E+06
 0.80220001E+02 -0.89602E+05
 0.80270004E+02 -0.19086E+05
 0.80320007E+02  0.22900E+05
 0.80370003E+02  0.82707E+05
 0.80420006E+02  0.13805E+06
 0.80470001E+02  0.12810E+06
 0.80520004E+02  0.66785E+05
 0.80570007E+02 -0.14244E+05
 0.80620003E+02 -0.71251E+05
 0.80670006E+02 -0.87413E+05
 0.80720001E+02 -0.76230E+05
 0.80770004E+02 -0.30737E+05
 0.80820007E+02  0.64277E+05
 0.80870003E+02  0.14211E+06
 0.80920006E+02  0.13771E+06
 0.80970001E+02  0.11150E+06
 0.81020004E+02  0.78378E+05
 0.81070007E+02  0.15943E+05
 0.81120003E+02 -0.59793E+05
 0.81170006E+02 -0.14298E+06
 0.81220001E+02 -0.16898E+06
 0.81270004E+02 -0.10074E+06
 0.81320007E+02  0.15468E+05
 0.81370003E+02  0.12937E+06
 0.81420006E+02  0.23827E+06
 0.81470001E+02  0.30877E+06
 0.81520004E+02  0.32118E+06
 0.81570007E+02  0.31734E+06
 0.81620003E+02  0.26021E+06
 0.81670006E+02  0.14742E+06
 0.81720001E+02  0.48061E+05
 0.81770004E+02 -0.44740E+04
 0.81820007E+02 -0.31645E+05
 0.81870003E+02 -0.35849E+05
 0.81920006E+02  0.22680E+04
 0.81970001E+02  0.60065E+05
 0.82020004E+02  0.13826E+06
 0.82070007E+02  0.19642E+06
 0.82120003E+02  0.17431E+06
 0.82170006E+02  0.90549E+05
 0.82220001E+02 -0.15400E+03
 0.82270004E+02 -0.66198E+05
 0.82320007E+02 -0.10212E+06
 0.82370003E+02 -0.87070E+05
 0.82420006E+02 -0.53102E+05
 0.82470001E+02 -0.95820E+04
 0.82520004E+02  0.49896E+05
 0.82570007E+02  0.51027E+05
 0.82620003E+02  0.16515E+05
 0.82670006E+02 -0.19881E+05
 0.82720001E+02 -0.76091E+05
 0.82770004E+02 -0.86128E+05
 0.82820007E+02 -0.80516E+05
 0.82870003E+02 -0.12102E+06
 0.82920006E+02 -0.14523E+06
 0.82970001E+02 -0.15171E+06
 0.83020004E+02 -0.14668E+06
 0.83070007E+02 -0.87716E+05
 0.83120003E+02 -0.51930E+04
 0.83170006E+02  0.39669E+05
 0.83220001E+02  0.61352E+05
 0.83270004E+02  0.79247E+05
 0.83320007E+02  0.44641E+05
 0.83370003E+02 -0.11458E+05
 0.83420006E+02 -0.58550E+05
 0.83470001E+02 -0.14363E+06
 0.83520004E+02 -0.24068E+06
 0.83570007E+02 -0.28378E+06
 0.83620003E+02 -0.25656E+06
 0.83670006E+02 -0.20872E+06
 0.83720001E+02 -0.16379E+06
 0.83770004E+02 -0.12774E+06
 0.83820007E+02 -0.13602E+06
 0.83870003E+02 -0.19099E+06
 0.83920006E+02 -0.24743E+06
 0.83970001E+02 -0.26521E+06
 0.84020004E+02 -0.29308E+06
 0.84070007E+02 -0.33811E+06
 0.84120003E+02 -0.34896E+06
 0.84170006E+02 -0.33435E+06
 0.84220001E+02 -0.32347E+06
 0.84270004E+02 -0.33735E+06
 0.84320007E+02 -0.33277E+06
 0.84370003E+02 -0.30524E+06
 0.84420006E+02 -0.28302E+06
 0.84470001E+02 -0.25528E+06
 0.84520004E+02 -0.26100E+06
 0.84570007E+02 -0.27123E+06
 0.84620003E+02 -0.28484E+06
 0.84670006E+02 -0.32850E+06
 0.84720001E+02 -0.31742E+06
 0.84770004E+02 -0.22567E+06
 0.84820007E+02 -0.86451E+05
 0.84870003E+02  0.12414E+05
 0.84920006E+02  0.25976E+05
 0.84970001E+02  0.18284E+05
 0.85020004E+02 -0.67490E+04
 0.85070007E+02 -0.60721E+05
 0.85120003E+02 -0.12148E+06
 0.85170006E+02 -0.15292E+06
 0.85220001E+02 -0.14786E+06
 0.85270004E+02 -0.16164E+06
 0.85320007E+02 -0.20972E+06
 0.85370003E+02 -0.26679E+06
 0.85420006E+02 -0.30486E+06
 0.85470001E+02 -0.28474E+06
 0.85520004E+02 -0.20114E+06
 0.85570007E+02 -0.11037E+06
 0.85620003E+02 -0.71184E+05
 0.85670006E+02 -0.78713E+05
 0.85720001E+02 -0.10462E+06
 0.85770004E+02 -0.13139E+06
 0.85820007E+02 -0.13574E+06
 0.85870003E+02 -0.12023E+06
 0.85920006E+02 -0.11510E+06
 0.85970001E+02 -0.11272E+06
 0.86020004E+02 -0.11037E+06
 0.86070007E+02 -0.12890E+06
 0.86120003E+02 -0.16039E+06
 0.86170006E+02 -0.18772E+06
 0.86220001E+02 -0.21502E+06
 0.86270004E+02 -0.22759E+06
 0.86320007E+02 -0.21332E+06
 0.86370003E+02 -0.19962E+06
 0.86420006E+02 -0.16499E+06
 0.86470001E+02 -0.11634E+06
 0.86520004E+02 -0.73285E+05
 0.86570007E+02 -0.99100E+04
 0.86620003E+02  0.41571E+05
 0.86670006E+02  0.62114E+05
 0.86720001E+02  0.85975E+05
 0.86770004E+02  0.12553E+06
 0.86820007E+02  0.16429E+06
 0.86870003E+02  0.14574E+06
 0.86920006E+02  0.68418E+05
 0.86970001E+02  0.60359E+05
 0.87020004E+02  0.13541E+06
 0.87070007E+02  0.22670E+06
 0.87120003E+02  0.34963E+06
 0.87170006E+02  0.44535E+06
 0.87220001E+02  0.42458E+06
 0.87270004E+02  0.33242E+06
 0.87320007E+02  0.28400E+06
 0.87370003E+02  0.28552E+06
 0.87420006E+02  0.28374E+06
 0.87470001E+02  0.30434E+06
 0.87520004E+02  0.35936E+06
 0.87570007E+02  0.41536E+06
 0.87620003E+02  0.43446E+06
 0.87670006E+02  0.39811E+06
 0.87720001E+02  0.34458E+06
 0.87770004E+02  0.27442E+06
 0.87820007E+02  0.19226E+06
 0.87870003E+02  0.14321E+06
 0.87920006E+02  0.12807E+06
 0.87970001E+02  0.16788E+06
 0.88020004E+02  0.24585E+06
 0.88070007E+02  0.31994E+06
 0.88120003E+02  0.40640E+06
 0.88170006E+02  0.48291E+06
 0.88220001E+02  0.54584E+06
 0.88270004E+02  0.60272E+06
 0.88320007E+02  0.59020E+06
 0.88370003E+02  0.47892E+06
 0.88420006E+02  0.32616E+06
 0.88470001E+02  0.23386E+06
 0.88520004E+02  0.25060E+06
 0.88570007E+02  0.31244E+06
 0.88620003E+02  0.35323E+06
 0.88670006E+02  0.36463E+06
 0.88720001E+02  0.31228E+06
 0.88770004E+02  0.18976E+06
 0.88820007E+02  0.72300E+05
 0.88870003E+02  0.42410E+04
 0.88920006E+02 -0.31371E+05
 0.88970001E+02 -0.47040E+05
 0.89020004E+02 -0.27458E+05
 0.89070007E+02  0.32585E+05
 0.89120003E+02  0.95388E+05
 0.89170006E+02  0.13134E+06
 0.89220001E+02  0.13793E+06
 0.89270004E+02  0.11440E+06
 0.89320007E+02  0.11781E+06
 0.89370003E+02  0.18262E+06
 0.89420006E+02  0.25904E+06
 0.89470001E+02  0.30175E+06
 0.89520004E+02  0.28429E+06
 0.89570007E+02  0.19171E+06
 0.89620003E+02  0.47115E+05
 0.89670006E+02 -0.77314E+05
 0.89720001E+02 -0.17514E+06
 0.89770004E+02 -0.26910E+06
 0.89820007E+02 -0.31019E+06
 0.89870003E+02 -0.28123E+06
 0.89920006E+02 -0.21578E+06
 0.89970001E+02 -0.13778E+06
 0.90020004E+02 -0.52757E+05
 0.90070007E+02  0.28632E+05
 0.90120003E+02  0.10750E+06
 0.90170006E+02  0.17192E+06
 0.90220001E+02  0.19342E+06
 0.90270004E+02  0.17427E+06
 0.90320007E+02  0.89562E+05
 0.90370003E+02 -0.34056E+05
 0.90420006E+02 -0.13008E+06
 0.90470001E+02 -0.20282E+06
 0.90520004E+02 -0.23765E+06
 0.90570007E+02 -0.24786E+06
 0.90620003E+02 -0.25245E+06
 0.90670006E+02 -0.22693E+06
 0.90720001E+02 -0.18796E+06
 0.90770004E+02 -0.15502E+06
 0.90820007E+02 -0.13494E+06
 0.90870003E+02 -0.12637E+06
 0.90920006E+02 -0.10809E+06
 0.90970001E+02 -0.87954E+05
 0.91020004E+02 -0.84193E+05
 0.91070007E+02 -0.51386E+05
 0.91120003E+02 -0.13656E+05
 0.91170006E+02 -0.62824E+05
 0.91220001E+02 -0.21347E+06
 0.91270004E+02 -0.39073E+06
 0.91320007E+02 -0.47358E+06
 0.91370003E+02 -0.45216E+06
 0.91420006E+02 -0.34978E+06
 0.91470001E+02 -0.18559E+06
 0.91520004E+02 -0.37092E+05
 0.91570007E+02  0.62022E+05
 0.91620003E+02  0.95735E+05
 0.91670006E+02  0.63454E+05
 0.91720001E+02 -0.13015E+05
 0.91770004E+02 -0.94590E+05
 0.91820007E+02 -0.13000E+06
 0.91870003E+02 -0.10850E+06
 0.91920006E+02 -0.31959E+05
 0.91970001E+02  0.73959E+05
 0.92020004E+02  0.13422E+06
 0.92070007E+02  0.12904E+06
 0.92120003E+02  0.86901E+05
 0.92170006E+02  0.19785E+05
 0.92220001E+02  0.71700E+03
 0.92270004E+02  0.73204E+05
 0.92320007E+02  0.16380E+06
 0.92370003E+02  0.22528E+06
 0.92420006E+02  0.27927E+06
 0.92470001E+02  0.33179E+06
 0.92520004E+02  0.37182E+06
 0.92570007E+02  0.40063E+06
 0.92620003E+02  0.39520E+06
 0.92670006E+02  0.34928E+06
 0.92720001E+02  0.32605E+06
 0.92770004E+02  0.34221E+06
 0.92820007E+02  0.33936E+06
 0.92870003E+02  0.30527E+06
 0.92920006E+02  0.25694E+06
 0.92970001E+02  0.18061E+06
 0.93020004E+02  0.84318E+05
 0.93070007E+02  0.25940E+05
 0.93120003E+02  0.26809E+05
 0.93170006E+02  0.46830E+05
 0.93220001E+02  0.78170E+05
 0.93270004E+02  0.12579E+06
 0.93320007E+02  0.15116E+06
 0.93370003E+02  0.13853E+06
 0.93420006E+02  0.10342E+06
 0.93470001E+02  0.36231E+05
 0.93520004E+02 -0.42559E+05
 0.93570007E+02 -0.85232E+05
 0.93620003E+02 -0.11142E+06
 0.93670006E+02 -0.13057E+06
 0.93720001E+02 -0.10905E+06
 0.93770004E+02 -0.68403E+05
 0.93820007E+02 -0.39710E+05
 0.93870003E+02 -0.34504E+05
 0.93920006E+02 -0.79372E+05
 0.93970001E+02 -0.16111E+06
 0.94020004E+02 -0.24199E+06
 0.94070007E+02 -0.28639E+06
 0.94120003E+02 -0.25062E+06
 0.94170006E+02 -0.14305E+06
 0.94220001E+02 -0.36950E+04
 0.94270004E+02  0.11573E+06
 0.94320007E+02  0.16250E+06
 0.94370003E+02  0.12356E+06
 0.94420006E+02  0.44797E+05
 0.94470001E+02 -0.59530E+04
 0.94520004E+02 -0.22952E+05
 0.94570007E+02 -0.13448E+05
 0.94620003E+02 -0.12918E+05
 0.94670006E+02 -0.69355E+05
 0.94720001E+02 -0.14136E+06
 0.94770004E+02 -0.16666E+06
 0.94820007E+02 -0.12882E+06
 0.94870003E+02 -0.65901E+05
 0.94920006E+02 -0.82170E+04
 0.94970001E+02  0.53494E+05
 0.95020004E+02  0.11943E+06
 0.95070007E+02  0.16348E+06
 0.95120003E+02  0.18343E+06
 0.95170006E+02  0.19930E+06
 0.95220001E+02  0.17831E+06
 0.95270004E+02  0.17034E+06
 0.95320007E+02  0.21201E+06
 0.95370003E+02  0.24374E+06
 0.95420006E+02  0.29121E+06
 0.95470001E+02  0.33707E+06
 0.95520004E+02  0.37754E+06
 0.95570007E+02  0.46527E+06
 0.95620003E+02  0.56254E+06
 0.95670006E+02  0.60615E+06
 0.95720001E+02  0.57373E+06
 0.95770004E+02  0.50258E+06
 0.95820007E+02  0.41399E+06
 0.95870003E+02  0.32702E+06
 0.95920006E+02  0.27449E+06
 0.95970001E+02  0.23460E+06
 0.96020004E+02  0.18367E+06
 0.96070007E+02  0.12494E+06
 0.96120003E+02  0.66788E+05
 0.96170006E+02 -0.23940E+04
 0.96220001E+02 -0.78416E+05
 0.96270004E+02 -0.11950E+06
 0.96320007E+02 -0.11937E+06
 0.96370003E+02 -0.98135E+05
 0.96420006E+02 -0.62732E+05
 0.96470001E+02 -0.23338E+05
 0.96520004E+02  0.11010E+05
 0.96570007E+02  0.41002E+05
 0.96620003E+02  0.44616E+05
 0.96670006E+02  0.91900E+03
 0.96720001E+02 -0.75357E+05
 0.96770004E+02 -0.18181E+06
 0.96820007E+02 -0.32475E+06
 0.96870003E+02 -0.48735E+06
 0.96920006E+02 -0.61620E+06
 0.96970001E+02 -0.65711E+06
 0.97020004E+02 -0.60743E+06
 0.97070007E+02 -0.50124E+06
 0.97120003E+02 -0.38629E+06
 0.97170006E+02 -0.29557E+06
 0.97220001E+02 -0.25840E+06
 0.97270004E+02 -0.27306E+06
 0.97320007E+02 -0.30196E+06
 0.97370003E+02 -0.34564E+06
 0.97420006E+02 -0.39257E+06
 0.97470001E+02 -0.41356E+06
 0.97520004E+02 -0.39832E+06
 0.97570007E+02 -0.33539E+06
 0.97620003E+02 -0.25886E+06
 0.97670006E+02 -0.20635E+06
 0.97720001E+02 -0.16106E+06
 0.97770004E+02 -0.10731E+06
 0.97820007E+02 -0.24693E+05
 0.97870003E+02  0.91167E+05
 0.97920006E+02  0.19242E+06
 0.97970001E+02  0.24643E+06
 0.98020004E+02  0.24750E+06
 0.98070007E+02  0.21113E+06
 0.98120003E+02  0.19006E+06
 0.98170006E+02  0.21334E+06
 0.98220001E+02  0.25743E+06
 0.98270004E+02  0.28426E+06
 0.98320007E+02  0.26158E+06
 0.98370003E+02  0.20625E+06
 0.98420006E+02  0.14792E+06
 0.98470001E+02  0.94534E+05
 0.98520004E+02  0.70745E+05
 0.98570007E+02  0.99058E+05
 0.98620003E+02  0.19780E+06
 0.98670006E+02  0.33496E+06
 0.98720001E+02  0.43949E+06
 0.98770004E+02  0.46822E+06
 0.98820007E+02  0.42332E+06
 0.98870003E+02  0.35064E+06
 0.98920006E+02  0.27682E+06
 0.98970001E+02  0.20237E+06
 0.99020004E+02  0.14890E+06
 0.99070007E+02  0.13943E+06
 0.99120003E+02  0.14461E+06
 0.99170006E+02  0.13990E+06
 0.99220001E+02  0.14414E+06
 0.99270004E+02  0.16566E+06
 0.99320007E+02  0.18834E+06
 0.99370003E+02  0.19363E+06
 0.99420006E+02  0.16791E+06
 0.99470001E+02  0.10939E+06
 0.99520004E+02  0.32465E+05
 0.99570007E+02 -0.55854E+05
 0.99620003E+02 -0.14531E+06
 0.99670006E+02 -0.23636E+06
 0.99720001E+02 -0.34440E+06
 0.99770004E+02 -0.47246E+06
 0.99820007E+02 -0.58637E+06
 0.99870003E+02 -0.65521E+06
 0.99920006E+02 -0.69622E+06
 0.99970001E+02 -0.71673E+06
 0.10002000E+03 -0.71008E+06
 0.10007001E+03 -0.68390E+06
 0.10012000E+03 -0.64900E+06
 0.10017001E+03 -0.59258E+06
 0.10022000E+03 -0.51490E+06
 0.10027000E+03 -0.45216E+06
 0.10032001E+03 -0.40802E+06
 0.10037000E+03 -0.35074E+06
 0.10042001E+03 -0.27857E+06
 0.10047000E+03 -0.22031E+06
 0.10052000E+03 -0.19098E+06
 0.10057001E+03 -0.19424E+06
 0.10062000E+03 -0.20565E+06
 0.10067001E+03 -0.19112E+06
 0.10072000E+03 -0.15790E+06
 0.10077000E+03 -0.11738E+06
 0.10082001E+03 -0.74343E+05
 0.10087000E+03 -0.27324E+05
 0.10092001E+03  0.30521E+05
 0.10097000E+03  0.92932E+05
 0.10102000E+03  0.14832E+06
 0.10107001E+03  0.17896E+06
 0.10112000E+03  0.20413E+06
 0.10117001E+03  0.25635E+06
 0.10122000E+03  0.32432E+06
 0.10127000E+03  0.39015E+06
 0.10132001E+03  0.44676E+06
 0.10137000E+03  0.49481E+06
 0.10142001E+03  0.52626E+06
 0.10147000E+03  0.51665E+06
 0.10152000E+03  0.48031E+06
 0.10157001E+03  0.44793E+06
 0.10162000E+03  0.43492E+06
 0.10167001E+03  0.45299E+06
 0.10172000E+03  0.47426E+06
 0.10177000E+03  0.46720E+06
 0.10182001E+03  0.42319E+06
 0.10187000E+03  0.34003E+06
 0.10192001E+03  0.23676E+06
 0.10197000E+03  0.14238E+06
 0.10202000E+03  0.76837E+05
 0.10207001E+03  0.61121E+05
 0.10212000E+03  0.83998E+05
 0.10217001E+03  0.10209E+06
 0.10222000E+03  0.10540E+06
 0.10227000E+03  0.94978E+05
 0.10232001E+03  0.49149E+05
 0.10237000E+03 -0.47556E+05
 0.10242001E+03 -0.15795E+06
 0.10247000E+03 -0.23996E+06
 0.10252000E+03 -0.30803E+06
 0.10257001E+03 -0.37448E+06
 0.10262000E+03 -0.41956E+06
 0.10267001E+03 -0.42831E+06
 0.10272000E+03 -0.41425E+06
 0.10277000E+03 -0.39814E+06
 0.10282001E+03 -0.40804E+06
 0.10287000E+03 -0.46429E+06
 0.10292001E+03 -0.52748E+06
 0.10297000E+03 -0.56692E+06
 0.10302000E+03 -0.59135E+06
 0.10307001E+03 -0.59619E+06
 0.10312000E+03 -0.59718E+06
 0.10317001E+03 -0.61180E+06
 0.10322000E+03 -0.62176E+06
 0.10327000E+03 -0.63410E+06
 0.10332001E+03 -0.65373E+06
 0.10337000E+03 -0.65081E+06
 0.10342001E+03 -0.61579E+06
 0.10347000E+03 -0.55222E+06
 0.10352000E+03 -0.47486E+06
 0.10357001E+03 -0.40914E+06
 0.10362000E+03 -0.38171E+06
 0.10367001E+03 -0.41521E+06
 0.10372000E+03 -0.48431E+06
 0.10377000E+03 -0.52371E+06
 0.10382001E+03 -0.49952E+06
 0.10387000E+03 -0.43392E+06
 0.10392001E+03 -0.34959E+06
 0.10397000E+03 -0.24611E+06
 0.10402000E+03 -0.14573E+06
 0.10407001E+03 -0.86436E+05
 0.10412000E+03 -0.77994E+05
 0.10417001E+03 -0.10322E+06
 0.10422000E+03 -0.13712E+06
 0.10427000E+03 -0.16401E+06
 0.10432001E+03 -0.17710E+06
 0.10437000E+03 -0.17223E+06
 0.10442001E+03 -0.15017E+06
 0.10447000E+03 -0.10991E+06
 0.10452000E+03 -0.65861E+05
 0.10457001E+03 -0.48469E+05
 0.10462000E+03 -0.58587E+05
 0.10467001E+03 -0.95655E+05
 0.10472000E+03 -0.15683E+06
 0.10477000E+03 -0.21214E+06
 0.10482001E+03 -0.24744E+06
 0.10487000E+03 -0.24829E+06
 0.10492001E+03 -0.22467E+06
 0.10497000E+03 -0.21507E+06
 0.10502000E+03 -0.21459E+06
 0.10507001E+03 -0.18871E+06
 0.10512000E+03 -0.13355E+06
 0.10517001E+03 -0.87123E+05
 0.10522000E+03 -0.75658E+05
 0.10527000E+03 -0.86708E+05
 0.10532001E+03 -0.97816E+05
 0.10537000E+03 -0.10067E+06
 0.10542001E+03 -0.89498E+05
 0.10547000E+03 -0.50011E+05
 0.10552000E+03  0.11762E+05
 0.10557001E+03  0.86067E+05
 0.10562000E+03  0.16982E+06
 0.10567001E+03  0.21857E+06
 0.10572000E+03  0.21294E+06
 0.10577000E+03  0.17870E+06
 0.10582001E+03  0.12597E+06
 0.10587000E+03  0.88708E+05
 0.10592001E+03  0.86900E+05
 0.10597000E+03  0.84065E+05
 0.10602000E+03  0.57218E+05
 0.10607001E+03  0.93460E+04
 0.10612000E+03 -0.54728E+05
 0.10617001E+03 -0.11675E+06
 0.10622000E+03 -0.15703E+06
 0.10627000E+03 -0.17558E+06
 0.10632001E+03 -0.19543E+06
 0.10637000E+03 -0.23479E+06
 0.10642001E+03 -0.29993E+06
 0.10647000E+03 -0.36171E+06
 0.10652000E+03 -0.36732E+06
 0.10657001E+03 -0.33329E+06
 0.10662000E+03 -0.29232E+06
 0.10667001E+03 -0.24158E+06
 0.10672000E+03 -0.18753E+06
 0.10677000E+03 -0.13373E+06
 0.10682001E+03 -0.78847E+05
 0.10687000E+03 -0.24303E+05
 0.10692001E+03  0.52315E+05
 0.10697000E+03  0.15263E+06
 0.10702000E+03  0.24405E+06
 0.10707001E+03  0.31348E+06
 0.10712000E+03  0.36311E+06
 0.10717001E+03  0.40062E+06
 0.10722000E+03  0.40543E+06
 0.10727000E+03  0.35922E+06
 0.10732001E+03  0.27777E+06
 0.10737000E+03  0.18998E+06
 0.10742001E+03  0.12668E+06
 0.10747000E+03  0.75163E+05
 0.10752000E+03  0.17748E+05
 0.10757001E+03 -0.29357E+05
 0.10762000E+03 -0.50166E+05
 0.10767001E+03 -0.46196E+05
 0.10772000E+03 -0.32636E+05
 0.10777000E+03 -0.14006E+05
 0.10782001E+03  0.11419E+05
 0.10787000E+03  0.39493E+05
 0.10792001E+03  0.58598E+05
 0.10797000E+03  0.47932E+05
 0.10802000E+03  0.20245E+05
 0.10807001E+03 -0.48160E+04
 0.10812000E+03 -0.29382E+05
 0.10817001E+03 -0.41218E+05
 0.10822000E+03 -0.45661E+05
 0.10827000E+03 -0.53355E+05
 0.10832001E+03 -0.55979E+05
 0.10837000E+03 -0.58346E+05
 0.10842001E+03 -0.66075E+05
 0.10847000E+03 -0.67279E+05
 0.10852000E+03 -0.44191E+05
 0.10857001E+03  0.59950E+04
 0.10862000E+03  0.71355E+05
 0.10867001E+03  0.13540E+06
 0.10872000E+03  0.18590E+06
 0.10877000E+03  0.21186E+06
 0.10882001E+03  0.20652E+06
 0.10887000E+03  0.20070E+06
 0.10892001E+03  0.20217E+06
 0.10897000E+03  0.18685E+06
 0.10902000E+03  0.18597E+06
 0.10907001E+03  0.23141E+06
 0.10912000E+03  0.29527E+06
 0.10917001E+03  0.34480E+06
 0.10922000E+03  0.37658E+06
 0.10927000E+03  0.39333E+06
 0.10932001E+03  0.40581E+06
 0.10937000E+03  0.42463E+06
 0.10942001E+03  0.44376E+06
 0.10947000E+03  0.45784E+06
 0.10952000E+03  0.45631E+06
 0.10957001E+03  0.44730E+06
 0.10962000E+03  0.44112E+06
 0.10967001E+03  0.41923E+06
 0.10972000E+03  0.38596E+06
 0.10977000E+03  0.35724E+06
 0.10982001E+03  0.35619E+06
 0.10987000E+03  0.40166E+06
 0.10992001E+03  0.48017E+06
 0.10997000E+03  0.56669E+06
 0.11002000E+03  0.63492E+06
 0.11007001E+03  0.67845E+06
 0.11012000E+03  0.70072E+06
 0.11017001E+03  0.69681E+06
 0.11022000E+03  0.66120E+06
 0.11027000E+03  0.61352E+06
 0.11032001E+03  0.57627E+06
 0.11037000E+03  0.54657E+06
 0.11042001E+03  0.52493E+06
 0.11047000E+03  0.49750E+06
 0.11052000E+03  0.44603E+06
 0.11057001E+03  0.38135E+06
 0.11062000E+03  0.32654E+06
 0.11067001E+03  0.30732E+06
 0.11072000E+03  0.31748E+06
 0.11077000E+03  0.34063E+06
 0.11082001E+03  0.38294E+06
 0.11087000E+03  0.41985E+06
 0.11092001E+03  0.42955E+06
 0.11097000E+03  0.41345E+06
 0.11102000E+03  0.35893E+06
 0.11107001E+03  0.27380E+06
 0.11112000E+03  0.18726E+06
 0.11117001E+03  0.12440E+06
 0.11122000E+03  0.10581E+06
 0.11127000E+03  0.12232E+06
 0.11132001E+03  0.14624E+06
 0.11137000E+03  0.17662E+06
 0.11142001E+03  0.22248E+06
 0.11147000E+03  0.27074E+06
 0.11152000E+03  0.29474E+06
 0.11157001E+03  0.29640E+06
 0.11162000E+03  0.30788E+06
 0.11167001E+03  0.34075E+06
 0.11172000E+03  0.38659E+06
 0.11177000E+03  0.43298E+06
 0.11182001E+03  0.47861E+06
 0.11187000E+03  0.51936E+06
 0.11192001E+03  0.54326E+06
 0.11197000E+03  0.56204E+06
 0.11202000E+03  0.57085E+06
 0.11207001E+03  0.56898E+06
 0.11212000E+03  0.58600E+06
 0.11217001E+03  0.63398E+06
 0.11222000E+03  0.70988E+06
 0.11227000E+03  0.78782E+06
 0.11232001E+03  0.83358E+06
 0.11237000E+03  0.83652E+06
 0.11242001E+03  0.80497E+06
 0.11247000E+03  0.75184E+06
 0.11252000E+03  0.67795E+06
 0.11257001E+03  0.58748E+06
 0.11262000E+03  0.49510E+06
 0.11267001E+03  0.40283E+06
 0.11272000E+03  0.30528E+06
 0.11277000E+03  0.21652E+06
 0.11282001E+03  0.15394E+06
 0.11287000E+03  0.12156E+06
 0.11292001E+03  0.11268E+06
 0.11297000E+03  0.11074E+06
 0.11302000E+03  0.99570E+05
 0.11307001E+03  0.72318E+05
 0.11312000E+03  0.39931E+05
 0.11317001E+03  0.16312E+05
 0.11322000E+03  0.10652E+05
 0.11327000E+03  0.26216E+05
 0.11332001E+03  0.52650E+05
 0.11337000E+03  0.77572E+05
 0.11342001E+03  0.90892E+05
 0.11347000E+03  0.84083E+05
 0.11352000E+03  0.65075E+05
 0.11357001E+03  0.55006E+05
 0.11362000E+03  0.46058E+05
 0.11367001E+03  0.18786E+05
 0.11372000E+03 -0.68340E+04
 0.11377000E+03 -0.10913E+05
 0.11382001E+03  0.33600E+04
 0.11387000E+03  0.23291E+05
 0.11392001E+03  0.29469E+05
 0.11397000E+03  0.17260E+05
 0.11402000E+03 -0.12706E+05
 0.11407001E+03 -0.42226E+05
 0.11412000E+03 -0.46777E+05
 0.11417001E+03 -0.44278E+05
 0.11422000E+03 -0.60549E+05
 0.11427000E+03 -0.91550E+05
 0.11432001E+03 -0.12133E+06
 0.11437000E+03 -0.13977E+06
 0.11442001E+03 -0.13761E+06
 0.11447000E+03 -0.11806E+06
 0.11452000E+03 -0.10291E+06
 0.11457001E+03 -0.10845E+06
 0.11462000E+03 -0.13254E+06
 0.11467001E+03 -0.15984E+06
 0.11472000E+03 -0.18500E+06
 0.11477000E+03 -0.21451E+06
 0.11482001E+03 -0.25429E+06
 0.11487000E+03 -0.29140E+06
 0.11492001E+03 -0.30909E+06
 0.11497000E+03 -0.31810E+06
 0.11502000E+03 -0.32072E+06
 0.11507001E+03 -0.31992E+06
 0.11512000E+03 -0.32825E+06
 0.11517001E+03 -0.33549E+06
 0.11522000E+03 -0.33720E+06
 0.11527000E+03 -0.33616E+06
 0.11532001E+03 -0.32975E+06
 0.11537000E+03 -0.32883E+06
 0.11542001E+03 -0.34574E+06
 0.11547000E+03 -0.38933E+06
 0.11552000E+03 -0.44766E+06
 0.11557001E+03 -0.48916E+06
 0.11562000E+03 -0.51770E+06
 0.11567001E+03 -0.54968E+06
 0.11572000E+03 -0.57449E+06
 0.11577000E+03 -0.58466E+06
 0.11582001E+03 -0.59382E+06
 0.11587000E+03 -0.60828E+06
 0.11592001E+03 -0.61665E+06
 0.11597000E+03 -0.61731E+06
 0.11602000E+03 -0.61738E+06
 0.11607001E+03 -0.61500E+06
 0.11612000E+03 -0.60103E+06
 0.11617001E+03 -0.57486E+06
 0.11622000E+03 -0.53672E+06
 0.11627000E+03 -0.48792E+06
 0.11632001E+03 -0.43910E+06
 0.11637000E+03 -0.40725E+06
 0.11642001E+03 -0.41375E+06
 0.11647000E+03 -0.44813E+06
 0.11652000E+03 -0.48876E+06
 0.11657001E+03 -0.52081E+06
 0.11662000E+03 -0.52643E+06
 0.11667001E+03 -0.50823E+06
 0.11672000E+03 -0.48254E+06
 0.11677000E+03 -0.46580E+06
 0.11682001E+03 -0.45885E+06
 0.11687000E+03 -0.45374E+06
 0.11692001E+03 -0.44082E+06
 0.11697000E+03 -0.42810E+06
 0.11702000E+03 -0.43327E+06
 0.11707001E+03 -0.43848E+06
 0.11712000E+03 -0.43184E+06
 0.11717001E+03 -0.42704E+06
 0.11722000E+03 -0.43294E+06
 0.11727000E+03 -0.46047E+06
 0.11732001E+03 -0.50406E+06
 0.11737000E+03 -0.54053E+06
 0.11742001E+03 -0.56948E+06
 0.11747000E+03 -0.59372E+06
 0.11752000E+03 -0.60931E+06
 0.11757001E+03 -0.61407E+06
 0.11762000E+03 -0.59770E+06
 0.11767001E+03 -0.56634E+06
 0.11772000E+03 -0.53383E+06
 0.11777000E+03 -0.51305E+06
 0.11782001E+03 -0.51188E+06
 0.11787000E+03 -0.52537E+06
 0.11792001E+03 -0.55759E+06
 0.11797000E+03 -0.58863E+06
 0.11802000E+03 -0.59520E+06
 0.11807001E+03 -0.59011E+06
 0.11812000E+03 -0.58825E+06
 0.11817001E+03 -0.58672E+06
 0.11822000E+03 -0.56614E+06
 0.11827000E+03 -0.53040E+06
 0.11832001E+03 -0.49173E+06
 0.11837000E+03 -0.45882E+06
 0.11842001E+03 -0.44089E+06
 0.11847000E+03 -0.42073E+06
 0.11852000E+03 -0.39465E+06
 0.11857001E+03 -0.36385E+06
 0.11862000E+03 -0.32512E+06
 0.11867001E+03 -0.30092E+06
 0.11872000E+03 -0.30050E+06
 0.11877000E+03 -0.30313E+06
 0.11882001E+03 -0.31202E+06
 0.11887000E+03 -0.34199E+06
 0.11892001E+03 -0.37556E+06
 0.11897000E+03 -0.39637E+06
 0.11902000E+03 -0.40061E+06
 0.11907001E+03 -0.38597E+06
 0.11912000E+03 -0.35021E+06
 0.11917001E+03 -0.29231E+06
 0.11922000E+03 -0.21141E+06
 0.11927000E+03 -0.11964E+06
 0.11932001E+03 -0.48290E+05
 0.11937000E+03 -0.90530E+04
 0.11942001E+03  0.13318E+05
 0.11947000E+03  0.32752E+05
 0.11952000E+03  0.53291E+05
 0.11957001E+03  0.76509E+05
 0.11962000E+03  0.96308E+05
 0.11967001E+03  0.11568E+06
 0.11972000E+03  0.15549E+06
 0.11977000E+03  0.21515E+06
 0.11982001E+03  0.27539E+06
 0.11987000E+03  0.33399E+06
 0.11992001E+03  0.39175E+06
 0.11997000E+03  0.44289E+06
 0.12002000E+03  0.49082E+06
 0.12007001E+03  0.52414E+06
 0.12012000E+03  0.51909E+06
 0.12017001E+03  0.47166E+06
 0.12022000E+03  0.38733E+06
 0.12027000E+03  0.28399E+06
 0.12032001E+03  0.19622E+06
 0.12037000E+03  0.14488E+06
 0.12042001E+03  0.12893E+06
 0.12047000E+03  0.13976E+06
 0.12052000E+03  0.15295E+06
 0.12057001E+03  0.14005E+06
 0.12062000E+03  0.11417E+06
 0.12067001E+03  0.10575E+06
 0.12072000E+03  0.11550E+06
 0.12077000E+03  0.12743E+06
 0.12082001E+03  0.12368E+06
 0.12087000E+03  0.10539E+06
 0.12092001E+03  0.94390E+05
 0.12097000E+03  0.91193E+05
 0.12102000E+03  0.87646E+05
 0.12107001E+03  0.91126E+05
 0.12112000E+03  0.98195E+05
 0.12117001E+03  0.10987E+06
 0.12122000E+03  0.14110E+06
 0.12127000E+03  0.18563E+06
 0.12132001E+03  0.23124E+06
 0.12137000E+03  0.28353E+06
 0.12142001E+03  0.34558E+06
 0.12147000E+03  0.40809E+06
 0.12152000E+03  0.46540E+06
 0.12157001E+03  0.50596E+06
 0.12162000E+03  0.51636E+06
 0.12167001E+03  0.50584E+06
 0.12172000E+03  0.47912E+06
 0.12177000E+03  0.43625E+06
 0.12182001E+03  0.39374E+06
 0.12187000E+03  0.37333E+06
 0.12192001E+03  0.38296E+06
 0.12197000E+03  0.41109E+06
 0.12202000E+03  0.44721E+06
 0.12207001E+03  0.48274E+06
 0.12212000E+03  0.50724E+06
 0.12217001E+03  0.51665E+06
 0.12222000E+03  0.51991E+06
 0.12227000E+03  0.51998E+06
 0.12232001E+03  0.51382E+06
 0.12237000E+03  0.50863E+06
 0.12242001E+03  0.50060E+06
 0.12247000E+03  0.49292E+06
 0.12252000E+03  0.49174E+06
 0.12257001E+03  0.49066E+06
 0.12262000E+03  0.48949E+06
 0.12267001E+03  0.47529E+06
 0.12272000E+03  0.44090E+06
 0.12277000E+03  0.39644E+06
 0.12282001E+03  0.35124E+06
 0.12287000E+03  0.32345E+06
 0.12292001E+03  0.31565E+06
 0.12297000E+03  0.32047E+06
 0.12302000E+03  0.33921E+06
 0.12307001E+03  0.35467E+06
 0.12312000E+03  0.34978E+06
 0.12317001E+03  0.33719E+06
 0.12322000E+03  0.32962E+06
 0.12327000E+03  0.32639E+06
 0.12332001E+03  0.31654E+06
 0.12337000E+03  0.29084E+06
 0.12342001E+03  0.26842E+06
 0.12347000E+03  0.25918E+06
 0.12352000E+03  0.25748E+06
 0.12357001E+03  0.25863E+06
 0.12362000E+03  0.25357E+06
 0.12367001E+03  0.24918E+06
 0.12372000E+03  0.24640E+06
 0.12377000E+03  0.24274E+06
 0.12382001E+03  0.24722E+06
 0.12387000E+03  0.25844E+06
 0.12392001E+03  0.26381E+06
 0.12397000E+03  0.25710E+06
 0.12402000E+03  0.24831E+06
 0.12407001E+03  0.23867E+06
 0.12412000E+03  0.21937E+06
 0.12417001E+03  0.18810E+06
 0.12422001E+03  0.14625E+06
 0.12427001E+03  0.10949E+06
 0.12432000E+03  0.80476E+05
 0.12437000E+03  0.42856E+05
 0.12442001E+03 -0.83900E+03
 0.12447001E+03 -0.42254E+05
 0.12452001E+03 -0.80015E+05
 0.12457000E+03 -0.10504E+06
 0.12462000E+03 -0.10094E+06
 0.12467001E+03 -0.71559E+05
 0.12472001E+03 -0.40014E+05
 0.12477001E+03 -0.21410E+05
 0.12482000E+03 -0.18628E+05
 0.12487000E+03 -0.26299E+05
 0.12492001E+03 -0.41983E+05
 0.12497001E+03 -0.74531E+05
 0.12502001E+03 -0.12260E+06
 0.12507000E+03 -0.16249E+06
 0.12512000E+03 -0.19283E+06
 0.12517001E+03 -0.22995E+06
 0.12522001E+03 -0.26893E+06
 0.12527001E+03 -0.29958E+06
 0.12532000E+03 -0.31307E+06
 0.12537000E+03 -0.31025E+06
 0.12542001E+03 -0.29643E+06
 0.12547001E+03 -0.26729E+06
 0.12552001E+03 -0.23623E+06
 0.12557000E+03 -0.22390E+06
 0.12562000E+03 -0.23381E+06
 0.12567001E+03 -0.26195E+06
 0.12572001E+03 -0.29608E+06
 0.12577001E+03 -0.32738E+06
 0.12582000E+03 -0.35158E+06
 0.12587000E+03 -0.35524E+06
 0.12592001E+03 -0.32307E+06
 0.12597001E+03 -0.26019E+06
 0.12602001E+03 -0.18979E+06
 0.12607000E+03 -0.12817E+06
 0.12612000E+03 -0.87004E+05
 0.12617001E+03 -0.64949E+05
 0.12622001E+03 -0.55872E+05
 0.12627001E+03 -0.59625E+05
 0.12632000E+03 -0.66026E+05
 0.12637000E+03 -0.66830E+05
 0.12642001E+03 -0.61187E+05
 0.12647001E+03 -0.44775E+05
 0.12652001E+03 -0.21536E+05
 0.12657000E+03 -0.88860E+04
 0.12662000E+03 -0.44220E+04
 0.12667001E+03 -0.21310E+04
 0.12672001E+03 -0.14155E+05
 0.12677001E+03 -0.36042E+05
 0.12682000E+03 -0.50566E+05
 0.12687000E+03 -0.52623E+05
 0.12692001E+03 -0.49494E+05
 0.12697001E+03 -0.46554E+05
 0.12702001E+03 -0.49847E+05
 0.12707000E+03 -0.58971E+05
 0.12712000E+03 -0.67019E+05
 0.12717001E+03 -0.78306E+05
 0.12722001E+03 -0.86849E+05
 0.12727001E+03 -0.89828E+05
 0.12732000E+03 -0.10055E+06
 0.12737000E+03 -0.11887E+06
 0.12742001E+03 -0.13273E+06
 0.12747001E+03 -0.14139E+06
 0.12752001E+03 -0.15142E+06
 0.12757000E+03 -0.16398E+06
 0.12762000E+03 -0.18080E+06
 0.12767001E+03 -0.19048E+06
 0.12772001E+03 -0.18438E+06
 0.12777001E+03 -0.17027E+06
 0.12782000E+03 -0.15758E+06
 0.12787000E+03 -0.15161E+06
 0.12792001E+03 -0.14362E+06
 0.12797001E+03 -0.13663E+06
 0.12802000E+03 -0.13658E+06
 0.12806999E+03 -0.13925E+06
 0.12812000E+03 -0.15215E+06
 0.12817000E+03 -0.17844E+06
 0.12822000E+03 -0.20079E+06
 0.12827000E+03 -0.19854E+06
 0.12831999E+03 -0.17890E+06
 0.12837000E+03 -0.15872E+06
 0.12842000E+03 -0.14016E+06
 0.12847000E+03 -0.13152E+06
 0.12852000E+03 -0.14577E+06
 0.12856999E+03 -0.17853E+06
 0.12862000E+03 -0.21278E+06
 0.12867000E+03 -0.23454E+06
 0.12872000E+03 -0.23509E+06
 0.12877000E+03 -0.21789E+06
 0.12881999E+03 -0.19480E+06
 0.12887000E+03 -0.16365E+06
 0.12892000E+03 -0.11781E+06
 0.12897000E+03 -0.63151E+05
 0.12902000E+03 -0.75520E+04
 0.12906999E+03  0.39993E+05
 0.12912000E+03  0.72140E+05
 0.12917000E+03  0.93282E+05
 0.12922000E+03  0.11302E+06
 0.12927000E+03  0.12660E+06
 0.12931999E+03  0.12662E+06
 0.12937000E+03  0.12388E+06
 0.12942000E+03  0.12621E+06
 0.12947000E+03  0.12647E+06
 0.12952000E+03  0.11975E+06
 0.12956999E+03  0.12197E+06
 0.12962000E+03  0.14444E+06
 0.12967000E+03  0.17198E+06
 0.12972000E+03  0.19131E+06
 0.12977000E+03  0.19932E+06
 0.12981999E+03  0.19525E+06
 0.12987000E+03  0.18339E+06
 0.12992000E+03  0.17173E+06
 0.12997000E+03  0.16217E+06
 0.13002000E+03  0.15301E+06
 0.13006999E+03  0.14928E+06
 0.13012000E+03  0.15583E+06
 0.13017000E+03  0.16656E+06
 0.13022000E+03  0.17542E+06
 0.13027000E+03  0.18064E+06
 0.13031999E+03  0.17892E+06
 0.13037000E+03  0.17141E+06
 0.13042000E+03  0.15785E+06
 0.13047000E+03  0.14260E+06
 0.13052000E+03  0.13483E+06
 0.13056999E+03  0.12808E+06
 0.13062000E+03  0.11958E+06
 0.13067000E+03  0.11584E+06
 0.13072000E+03  0.11018E+06
 0.13077000E+03  0.99725E+05
 0.13081999E+03  0.89478E+05
 0.13087000E+03  0.75838E+05
 0.13092000E+03  0.60167E+05
 0.13097000E+03  0.52432E+05
 0.13102000E+03  0.48493E+05
 0.13106999E+03  0.38817E+05
 0.13112000E+03  0.30791E+05
 0.13117000E+03  0.27147E+05
 0.13122000E+03  0.22992E+05
 0.13127000E+03  0.23857E+05
 0.13131999E+03  0.27498E+05
 0.13137000E+03  0.29426E+05
 0.13142000E+03  0.29537E+05
 0.13147000E+03  0.25023E+05
 0.13152000E+03  0.16556E+05
 0.13156999E+03  0.37500E+04
 0.13162000E+03 -0.14600E+03
 0.13167000E+03  0.11897E+05
 0.13172000E+03  0.27786E+05
 0.13177000E+03  0.44651E+05
 0.13181999E+03  0.56423E+05
 0.13187000E+03  0.62167E+05
 0.13192000E+03  0.67700E+05
 0.13197000E+03  0.65932E+05
 0.13202000E+03  0.59879E+05
 0.13206999E+03  0.55961E+05
 0.13212000E+03  0.47113E+05
 0.13217000E+03  0.41247E+05
 0.13222000E+03  0.53733E+05
 0.13227000E+03  0.79138E+05
 0.13231999E+03  0.10506E+06
 0.13237000E+03  0.12253E+06
 0.13242000E+03  0.12525E+06
 0.13247000E+03  0.11332E+06
 0.13252000E+03  0.10210E+06
 0.13256999E+03  0.10920E+06
 0.13262000E+03  0.12530E+06
 0.13267000E+03  0.13507E+06
 0.13272000E+03  0.13260E+06
 0.13277000E+03  0.11591E+06
 0.13281999E+03  0.98865E+05
 0.13287000E+03  0.91365E+05
 0.13292000E+03  0.86982E+05
 0.13297000E+03  0.82999E+05
 0.13302000E+03  0.84697E+05
 0.13306999E+03  0.94890E+05
 0.13312000E+03  0.10825E+06
 0.13317000E+03  0.12609E+06
 0.13322000E+03  0.14916E+06
 0.13327000E+03  0.17021E+06
 0.13331999E+03  0.18865E+06
 0.13337000E+03  0.19696E+06
 0.13342000E+03  0.17213E+06
 0.13347000E+03  0.11312E+06
 0.13352000E+03  0.48293E+05
 0.13356999E+03 -0.91580E+04
 0.13362000E+03 -0.55940E+05
 0.13367000E+03 -0.88732E+05
 0.13372000E+03 -0.11083E+06
 0.13377000E+03 -0.12809E+06
 0.13381999E+03 -0.14829E+06
 0.13387000E+03 -0.16775E+06
 0.13392000E+03 -0.18322E+06
 0.13397000E+03 -0.19161E+06
 0.13402000E+03 -0.18928E+06
 0.13406999E+03 -0.18947E+06
 0.13412000E+03 -0.19852E+06
 0.13417000E+03 -0.20419E+06
 0.13422000E+03 -0.19682E+06
 0.13427000E+03 -0.18454E+06
 0.13431999E+03 -0.18257E+06
 0.13437000E+03 -0.18765E+06
 0.13442000E+03 -0.19227E+06
 0.13447000E+03 -0.19949E+06
 0.13452000E+03 -0.20206E+06
 0.13456999E+03 -0.18988E+06
 0.13462000E+03 -0.17259E+06
 0.13467000E+03 -0.16451E+06
 0.13472000E+03 -0.16510E+06
 0.13477000E+03 -0.16995E+06
 0.13481999E+03 -0.17300E+06
 0.13487000E+03 -0.17373E+06
 0.13492000E+03 -0.17850E+06
 0.13497000E+03 -0.18208E+06
 0.13502000E+03 -0.18578E+06
 0.13506999E+03 -0.18770E+06
 0.13512000E+03 -0.18098E+06
 0.13517000E+03 -0.17039E+06
 0.13522000E+03 -0.15960E+06
 0.13527000E+03 -0.15492E+06
 0.13531999E+03 -0.15394E+06
 0.13537000E+03 -0.14810E+06
 0.13542000E+03 -0.14295E+06
 0.13547000E+03 -0.14859E+06
 0.13552000E+03 -0.16158E+06
 0.13556999E+03 -0.17477E+06
 0.13562000E+03 -0.18122E+06
 0.13567000E+03 -0.17662E+06
 0.13572000E+03 -0.17066E+06
 0.13577000E+03 -0.16345E+06
 0.13581999E+03 -0.14643E+06
 0.13587000E+03 -0.12489E+06
 0.13592000E+03 -0.11425E+06
 0.13597000E+03 -0.11828E+06
 0.13602000E+03 -0.13190E+06
 0.13606999E+03 -0.15377E+06
 0.13612000E+03 -0.17681E+06
 0.13617000E+03 -0.19583E+06
 0.13622000E+03 -0.21002E+06
 0.13627000E+03 -0.22043E+06
 0.13631999E+03 -0.22910E+06
 0.13637000E+03 -0.23187E+06
 0.13642000E+03 -0.22132E+06
 0.13647000E+03 -0.20464E+06
 0.13652000E+03 -0.19843E+06
 0.13656999E+03 -0.20247E+06
 0.13662000E+03 -0.20426E+06
 0.13667000E+03 -0.18859E+06
 0.13672000E+03 -0.15674E+06
 0.13677000E+03 -0.12550E+06
 0.13681999E+03 -0.95804E+05
 0.13687000E+03 -0.62704E+05
 0.13692000E+03 -0.30381E+05
 0.13697000E+03  0.14100E+03
 0.13702000E+03  0.25973E+05
 0.13706999E+03  0.39550E+05
 0.13712000E+03  0.47320E+05
 0.13717000E+03  0.61807E+05
 0.13722000E+03  0.80813E+05
 0.13727000E+03  0.97195E+05
 0.13731999E+03  0.11555E+06
 0.13737000E+03  0.14298E+06
 0.13742000E+03  0.17705E+06
 0.13747000E+03  0.20964E+06
 0.13752000E+03  0.23857E+06
 0.13756999E+03  0.26551E+06
 0.13762000E+03  0.28393E+06
 0.13767000E+03  0.28855E+06
 0.13772000E+03  0.28053E+06
 0.13777000E+03  0.26973E+06
 0.13781999E+03  0.26772E+06
 0.13787000E+03  0.27020E+06
 0.13792000E+03  0.26598E+06
 0.13797000E+03  0.25591E+06
 0.13802000E+03  0.24994E+06
 0.13806999E+03  0.24958E+06
 0.13812000E+03  0.25050E+06
 0.13817000E+03  0.24806E+06
 0.13822000E+03  0.24212E+06
 0.13827000E+03  0.23589E+06
 0.13831999E+03  0.22920E+06
 0.13837000E+03  0.21904E+06
 0.13842000E+03  0.19862E+06
 0.13847000E+03  0.17532E+06
 0.13852000E+03  0.16312E+06
 0.13856999E+03  0.15369E+06
 0.13862000E+03  0.13642E+06
 0.13867000E+03  0.11211E+06
 0.13872000E+03  0.77435E+05
 0.13877000E+03  0.42651E+05
 0.13881999E+03  0.27177E+05
 0.13887000E+03  0.28629E+05
 0.13892000E+03  0.35833E+05
 0.13897000E+03  0.41660E+05
 0.13902000E+03  0.45679E+05
 0.13906999E+03  0.44120E+05
 0.13912000E+03  0.24126E+05
 0.13917000E+03 -0.11781E+05
 0.13922000E+03 -0.49477E+05
 0.13927000E+03 -0.81188E+05
 0.13931999E+03 -0.10543E+06
 0.13937000E+03 -0.12643E+06
 0.13942000E+03 -0.15045E+06
 0.13947000E+03 -0.17546E+06
 0.13952000E+03 -0.19643E+06
 0.13956999E+03 -0.20898E+06
 0.13962000E+03 -0.21248E+06
 0.13967000E+03 -0.21591E+06
 0.13972000E+03 -0.21806E+06
 0.13977000E+03 -0.21663E+06
 0.13981999E+03 -0.21512E+06
 0.13987000E+03 -0.21111E+06
 0.13992000E+03 -0.20498E+06
 0.13997000E+03 -0.19443E+06
 0.14002000E+03 -0.18246E+06
 0.14006999E+03 -0.17556E+06
 0.14012000E+03 -0.16424E+06
 0.14017000E+03 -0.14161E+06
 0.14022000E+03 -0.11785E+06
 0.14027000E+03 -0.10204E+06
 0.14031999E+03 -0.88621E+05
 0.14037000E+03 -0.66935E+05
 0.14042000E+03 -0.37954E+05
 0.14047000E+03 -0.73150E+04
 0.14052000E+03  0.20465E+05
 0.14056999E+03  0.35511E+05
 0.14062000E+03  0.33829E+05
 0.14067000E+03  0.21218E+05
 0.14072000E+03  0.81750E+04
 0.14077000E+03 -0.63290E+04
 0.14081999E+03 -0.26936E+05
 0.14087000E+03 -0.40958E+05
 0.14092000E+03 -0.45223E+05
 0.14097000E+03 -0.51750E+05
 0.14102000E+03 -0.60984E+05
 0.14106999E+03 -0.61804E+05
 0.14112000E+03 -0.45761E+05
 0.14117000E+03 -0.14347E+05
 0.14122000E+03  0.17275E+05
 0.14127000E+03  0.40165E+05
 0.14131999E+03  0.57962E+05
 0.14137000E+03  0.69331E+05
 0.14142000E+03  0.75836E+05
 0.14147000E+03  0.81647E+05
 0.14152000E+03  0.82836E+05
 0.14156999E+03  0.76129E+05
 0.14162000E+03  0.69821E+05
 0.14167000E+03  0.74553E+05
 0.14172000E+03  0.95295E+05
 0.14177000E+03  0.12558E+06
 0.14181999E+03  0.15563E+06
 0.14187000E+03  0.18254E+06
 0.14192000E+03  0.19727E+06
 0.14197000E+03  0.19642E+06
 0.14202000E+03  0.18532E+06
 0.14206999E+03  0.17306E+06
 0.14212000E+03  0.17169E+06
 0.14217000E+03  0.18506E+06
 0.14222000E+03  0.20366E+06
 0.14227000E+03  0.21111E+06
 0.14231999E+03  0.20533E+06
 0.14237000E+03  0.19230E+06
 0.14242000E+03  0.17737E+06
 0.14247000E+03  0.16320E+06
 0.14252000E+03  0.14683E+06
 0.14256999E+03  0.13157E+06
 0.14262000E+03  0.12416E+06
 0.14267000E+03  0.12266E+06
 0.14272000E+03  0.12114E+06
 0.14277000E+03  0.12250E+06
 0.14281999E+03  0.12689E+06
 0.14287000E+03  0.13076E+06
 0.14292000E+03  0.14014E+06
 0.14297000E+03  0.15308E+06
 0.14302000E+03  0.15718E+06
 0.14306999E+03  0.15000E+06
 0.14312000E+03  0.13293E+06
 0.14317000E+03  0.10828E+06
 0.14322000E+03  0.84338E+05
 0.14327000E+03  0.67427E+05
 0.14331999E+03  0.60715E+05
 0.14337000E+03  0.57286E+05
 0.14342000E+03  0.48533E+05
 0.14347000E+03  0.39702E+05
 0.14352000E+03  0.28708E+05
 0.14356999E+03  0.80720E+04
 0.14362000E+03 -0.12794E+05
 0.14367000E+03 -0.24831E+05
 0.14372000E+03 -0.30414E+05
 0.14377000E+03 -0.31618E+05
 0.14381999E+03 -0.34290E+05
 0.14387000E+03 -0.47894E+05
 0.14392000E+03 -0.66119E+05
 0.14397000E+03 -0.79540E+05
 0.14402000E+03 -0.90169E+05
 0.14406999E+03 -0.99587E+05
 0.14412000E+03 -0.11037E+06
 0.14417000E+03 -0.11618E+06
 0.14422000E+03 -0.11172E+06
 0.14427000E+03 -0.10251E+06
 0.14431999E+03 -0.86824E+05
 0.14437000E+03 -0.67745E+05
 0.14442000E+03 -0.53724E+05
 0.14447000E+03 -0.46445E+05
 0.14452000E+03 -0.43187E+05
 0.14456999E+03 -0.38922E+05
 0.14462000E+03 -0.33474E+05
 0.14467000E+03 -0.28548E+05
 0.14472000E+03 -0.22072E+05
 0.14477000E+03 -0.14990E+05
 0.14481999E+03 -0.10984E+05
 0.14487000E+03 -0.85420E+04
 0.14492000E+03 -0.53420E+04
 0.14497000E+03 -0.30920E+04
 0.14502000E+03  0.37900E+03
 0.14506999E+03  0.12030E+05
 0.14512000E+03  0.29779E+05
 0.14517000E+03  0.42421E+05
 0.14522000E+03  0.46016E+05
 0.14527000E+03  0.44220E+05
 0.14531999E+03  0.42196E+05
 0.14537000E+03  0.45242E+05
 0.14542000E+03  0.51039E+05
 0.14547000E+03  0.55157E+05
 0.14552000E+03  0.58817E+05
 0.14556999E+03  0.61713E+05
 0.14562000E+03  0.63098E+05
 0.14567000E+03  0.63768E+05
 0.14572000E+03  0.59162E+05
 0.14577000E+03  0.44369E+05
 0.14581999E+03  0.20645E+05
 0.14587000E+03 -0.11084E+05
 0.14592000E+03 -0.42288E+05
 0.14597000E+03 -0.61856E+05
 0.14602000E+03 -0.70644E+05
 0.14606999E+03 -0.71180E+05
 0.14612000E+03 -0.62192E+05
 0.14617000E+03 -0.42455E+05
 0.14622000E+03 -0.18822E+05
 0.14627000E+03  0.89000E+02
 0.14631999E+03  0.60160E+04
 0.14637000E+03 -0.72720E+04
 0.14642000E+03 -0.30129E+05
 0.14647000E+03 -0.49373E+05
 0.14652000E+03 -0.60730E+05
 0.14656999E+03 -0.67587E+05
 0.14662000E+03 -0.70548E+05
 0.14667000E+03 -0.64651E+05
 0.14672000E+03 -0.55419E+05
 0.14677000E+03 -0.51048E+05
 0.14681999E+03 -0.49878E+05
 0.14687000E+03 -0.49162E+05
 0.14692000E+03 -0.45588E+05
 0.14697000E+03 -0.35948E+05
 0.14702000E+03 -0.22756E+05
 0.14706999E+03 -0.93630E+04
 0.14712000E+03  0.91500E+03
 0.14717000E+03 -0.72000E+02
 0.14722000E+03 -0.17393E+05
 0.14727000E+03 -0.42693E+05
 0.14731999E+03 -0.64120E+05
 0.14737000E+03 -0.79286E+05
 0.14742000E+03 -0.88319E+05
 0.14747000E+03 -0.90050E+05
 0.14752000E+03 -0.87943E+05
 0.14756999E+03 -0.84497E+05
 0.14762000E+03 -0.83248E+05
 0.14767000E+03 -0.90994E+05
 0.14772000E+03 -0.10288E+06
 0.14777000E+03 -0.11228E+06
 0.14781999E+03 -0.12448E+06
 0.14787000E+03 -0.13883E+06
 0.14792000E+03 -0.14670E+06
 0.14797000E+03 -0.14702E+06
 0.14802000E+03 -0.14281E+06
 0.14806999E+03 -0.13790E+06
 0.14812000E+03 -0.13558E+06
 0.14817000E+03 -0.13371E+06
 0.14822000E+03 -0.13375E+06
 0.14827000E+03 -0.13608E+06
 0.14831999E+03 -0.13703E+06
 0.14837000E+03 -0.13591E+06
 0.14842000E+03 -0.13380E+06
 0.14847000E+03 -0.13538E+06
 0.14852000E+03 -0.13587E+06
 0.14856999E+03 -0.12822E+06
 0.14862000E+03 -0.11599E+06
 0.14867000E+03 -0.99668E+05
 0.14872000E+03 -0.84615E+05
 0.14877000E+03 -0.72989E+05
 0.14881999E+03 -0.55376E+05
 0.14887000E+03 -0.28901E+05
 0.14892000E+03  0.32160E+04
 0.14897000E+03  0.34793E+05
 0.14902000E+03  0.64540E+05
 0.14906999E+03  0.94423E+05
