-0.38800001E+01  0.12592E+06
-0.38300002E+01  0.12377E+06
-0.37800002E+01  0.11968E+06
-0.37300000E+01  0.11383E+06
-0.36800001E+01  0.10705E+06
-0.36300001E+01  0.99211E+05
-0.35800002E+01  0.89454E+05
-0.35300002E+01  0.78132E+05
-0.34800000E+01  0.66439E+05
-0.34300001E+01  0.54484E+05
-0.33800001E+01  0.41491E+05
-0.33300002E+01  0.26805E+05
-0.32800002E+01  0.12069E+05
-0.32300000E+01 -0.18720E+04
-0.31800001E+01 -0.17359E+05
-0.31300001E+01 -0.34614E+05
-0.30800002E+01 -0.50222E+05
-0.30300002E+01 -0.63473E+05
-0.29800000E+01 -0.76292E+05
-0.29300001E+01 -0.86994E+05
-0.28800001E+01 -0.94400E+05
-0.28299999E+01 -0.10052E+06
-0.27800002E+01 -0.10620E+06
-0.27300000E+01 -0.11124E+06
-0.26800001E+01 -0.11525E+06
-0.26300001E+01 -0.11779E+06
-0.25799999E+01 -0.11925E+06
-0.25300002E+01 -0.12033E+06
-0.24800000E+01 -0.11962E+06
-0.24300001E+01 -0.11637E+06
-0.23800001E+01 -0.11260E+06
-0.23299999E+01 -0.10879E+06
-0.22800002E+01 -0.10553E+06
-0.22300000E+01 -0.10349E+06
-0.21800001E+01 -0.10066E+06
-0.21300001E+01 -0.95505E+05
-0.20799999E+01 -0.89122E+05
-0.20300002E+01 -0.82840E+05
-0.19800001E+01 -0.75813E+05
-0.19300001E+01 -0.67646E+05
-0.18800001E+01 -0.58466E+05
-0.18300002E+01 -0.47700E+05
-0.17800000E+01 -0.35773E+05
-0.17300000E+01 -0.23759E+05
-0.16800001E+01 -0.13173E+05
-0.16300001E+01 -0.45360E+04
-0.15800002E+01  0.46740E+04
-0.15300000E+01  0.15100E+05
-0.14800000E+01  0.24094E+05
-0.14300001E+01  0.30999E+05
-0.13800001E+01  0.36269E+05
-0.13300002E+01  0.41549E+05
-0.12800000E+01  0.48070E+05
-0.12300000E+01  0.53904E+05
-0.11800001E+01  0.59238E+05
-0.11300001E+01  0.65186E+05
-0.10800002E+01  0.70307E+05
-0.10300000E+01  0.74632E+05
-0.98000002E+00  0.78715E+05
-0.93000007E+00  0.83202E+05
-0.88000011E+00  0.88524E+05
-0.83000016E+00  0.92981E+05
-0.77999997E+00  0.96645E+05
-0.73000002E+00  0.10000E+06
-0.68000007E+00  0.10363E+06
-0.63000011E+00  0.10748E+06
-0.58000016E+00  0.11012E+06
-0.52999997E+00  0.11039E+06
-0.48000002E+00  0.10778E+06
-0.43000007E+00  0.10459E+06
-0.38000011E+00  0.10110E+06
-0.33000016E+00  0.95901E+05
-0.27999997E+00  0.89014E+05
-0.23000002E+00  0.81250E+05
-0.18000007E+00  0.73336E+05
-0.13000011E+00  0.63969E+05
-0.80000162E-01  0.53028E+05
-0.29999971E-01  0.41833E+05
 0.19999981E-01  0.31736E+05
 0.69999933E-01  0.23791E+05
 0.11999989E+00  0.16551E+05
 0.17000008E+00  0.82440E+04
 0.21999979E+00 -0.78500E+03
 0.26999998E+00 -0.92070E+04
 0.32000017E+00 -0.15891E+05
 0.36999989E+00 -0.21512E+05
 0.42000008E+00 -0.27562E+05
 0.46999979E+00 -0.33035E+05
 0.51999998E+00 -0.37141E+05
 0.57000017E+00 -0.41226E+05
 0.61999989E+00 -0.45593E+05
 0.67000008E+00 -0.50563E+05
 0.71999979E+00 -0.54795E+05
 0.76999998E+00 -0.55235E+05
 0.82000017E+00 -0.51945E+05
 0.86999989E+00 -0.46425E+05
 0.92000008E+00 -0.39607E+05
 0.96999979E+00 -0.30503E+05
 0.10200000E+01 -0.18306E+05
 0.10700002E+01 -0.42310E+04
 0.11199999E+01  0.10195E+05
 0.11700001E+01  0.23562E+05
 0.12199998E+01  0.37340E+05
 0.12700000E+01  0.50881E+05
 0.13200002E+01  0.61085E+05
 0.13699999E+01  0.69299E+05
 0.14200001E+01  0.76472E+05
 0.14699998E+01  0.81421E+05
 0.15200000E+01  0.85245E+05
 0.15700002E+01  0.88929E+05
 0.16199999E+01  0.90520E+05
 0.16700001E+01  0.89912E+05
 0.17199998E+01  0.87818E+05
 0.17700000E+01  0.83089E+05
 0.18200002E+01  0.76008E+05
 0.18699999E+01  0.67203E+05
 0.19200001E+01  0.57368E+05
 0.19699998E+01  0.46377E+05
 0.20200000E+01  0.33758E+05
 0.20700002E+01  0.20044E+05
 0.21199999E+01  0.61950E+04
 0.21700001E+01 -0.71110E+04
 0.22199998E+01 -0.19109E+05
 0.22700000E+01 -0.29444E+05
 0.23200002E+01 -0.39992E+05
 0.23699999E+01 -0.51305E+05
 0.24200001E+01 -0.61271E+05
 0.24699998E+01 -0.67573E+05
 0.25200000E+01 -0.71462E+05
 0.25700002E+01 -0.75281E+05
 0.26199999E+01 -0.78729E+05
 0.26700001E+01 -0.80546E+05
 0.27199998E+01 -0.79949E+05
 0.27700000E+01 -0.78951E+05
 0.28200002E+01 -0.77323E+05
 0.28699999E+01 -0.73893E+05
 0.29200001E+01 -0.69888E+05
 0.29699998E+01 -0.64538E+05
 0.30200000E+01 -0.58550E+05
 0.30700002E+01 -0.51906E+05
 0.31199999E+01 -0.45033E+05
 0.31700001E+01 -0.39972E+05
 0.32199998E+01 -0.37129E+05
 0.32700000E+01 -0.36283E+05
 0.33200002E+01 -0.34556E+05
 0.33699999E+01 -0.33190E+05
 0.34200001E+01 -0.33412E+05
 0.34699998E+01 -0.33486E+05
 0.35200000E+01 -0.33879E+05
 0.35700002E+01 -0.35103E+05
 0.36199999E+01 -0.36614E+05
 0.36700001E+01 -0.36442E+05
 0.37199998E+01 -0.34653E+05
 0.37700000E+01 -0.32255E+05
 0.38200002E+01 -0.29562E+05
 0.38699999E+01 -0.26844E+05
 0.39200001E+01 -0.25316E+05
 0.39699998E+01 -0.24342E+05
 0.40200000E+01 -0.24013E+05
 0.40700002E+01 -0.23290E+05
 0.41199999E+01 -0.20667E+05
 0.41700001E+01 -0.18436E+05
 0.42200003E+01 -0.15482E+05
 0.42700005E+01 -0.13777E+05
 0.43199997E+01 -0.13422E+05
 0.43699999E+01 -0.13138E+05
 0.44200001E+01 -0.13329E+05
 0.44700003E+01 -0.12652E+05
 0.45200005E+01 -0.11614E+05
 0.45699997E+01 -0.81260E+04
 0.46199999E+01 -0.45240E+04
 0.46700001E+01 -0.51600E+03
 0.47200003E+01  0.55650E+04
 0.47700005E+01  0.10642E+05
 0.48199997E+01  0.16642E+05
 0.48699999E+01  0.23217E+05
 0.49200001E+01  0.29341E+05
 0.49700003E+01  0.35032E+05
 0.50200005E+01  0.39187E+05
 0.50699997E+01  0.42373E+05
 0.51199999E+01  0.43772E+05
 0.51700001E+01  0.42372E+05
 0.52200003E+01  0.37963E+05
 0.52700005E+01  0.31763E+05
 0.53199997E+01  0.23919E+05
 0.53699999E+01  0.14236E+05
 0.54200001E+01  0.53190E+04
 0.54700003E+01 -0.31140E+04
 0.55200005E+01 -0.11596E+05
 0.55699997E+01 -0.19038E+05
 0.56199999E+01 -0.26692E+05
 0.56700001E+01 -0.34098E+05
 0.57200003E+01 -0.38685E+05
 0.57700005E+01 -0.40954E+05
 0.58199997E+01 -0.41029E+05
 0.58699999E+01 -0.38463E+05
 0.59200001E+01 -0.34909E+05
 0.59700003E+01 -0.28995E+05
 0.60200005E+01 -0.21216E+05
 0.60699997E+01 -0.12175E+05
 0.61199999E+01 -0.11500E+04
 0.61700001E+01  0.13100E+05
 0.62200003E+01  0.29319E+05
 0.62700005E+01  0.42527E+05
 0.63199997E+01  0.57312E+05
 0.63699999E+01  0.68497E+05
 0.64200001E+01  0.81674E+05
 0.64700003E+01  0.91493E+05
 0.65200005E+01  0.10060E+06
 0.65699997E+01  0.10907E+06
 0.66199999E+01  0.11228E+06
 0.66700001E+01  0.12036E+06
 0.67200003E+01  0.14234E+06
 0.67700005E+01  0.26329E+06
 0.68199997E+01  0.34928E+06
 0.68699999E+01  0.40653E+06
 0.69200001E+01  0.41037E+06
 0.69700003E+01  0.46496E+05
 0.70200005E+01 -0.28439E+06
 0.70699997E+01 -0.37529E+06
 0.71199999E+01 -0.62883E+06
 0.71700001E+01 -0.78346E+06
 0.72200003E+01 -0.45959E+06
 0.72700005E+01  0.19468E+06
 0.73199997E+01  0.74460E+06
 0.73699999E+01  0.10176E+07
 0.74200001E+01  0.11103E+07
 0.74700003E+01  0.18063E+06
 0.75200005E+01 -0.89933E+06
 0.75699997E+01 -0.77155E+06
 0.76199999E+01 -0.59995E+06
 0.76700001E+01 -0.23628E+06
 0.77200003E+01  0.47286E+06
 0.77700005E+01  0.10598E+07
 0.78199997E+01  0.15337E+07
 0.78699999E+01  0.12903E+07
 0.79200001E+01  0.42610E+06
 0.79700003E+01 -0.11455E+07
 0.80200005E+01 -0.32493E+07
 0.80699997E+01 -0.29739E+07
 0.81199999E+01  0.41891E+06
 0.81700001E+01  0.93607E+06
 0.82200003E+01 -0.17079E+07
 0.82700005E+01 -0.65737E+06
 0.83199997E+01  0.86893E+06
 0.83699999E+01 -0.12024E+07
 0.84200001E+01 -0.12832E+07
 0.84700003E+01  0.43450E+06
 0.85200005E+01  0.39562E+06
 0.85699997E+01  0.24586E+06
 0.86199999E+01  0.16704E+07
 0.86700001E+01  0.24481E+07
 0.87200003E+01 -0.19979E+06
 0.87700005E+01 -0.11626E+07
 0.88199997E+01 -0.15785E+06
 0.88699999E+01 -0.17242E+07
 0.89200001E+01 -0.14726E+07
 0.89700003E+01  0.14916E+07
 0.90200005E+01  0.29126E+07
 0.90699997E+01  0.23538E+07
 0.91199999E+01  0.12846E+07
 0.91700001E+01  0.75740E+06
 0.92200003E+01 -0.30124E+06
 0.92700005E+01 -0.60085E+06
 0.93199997E+01  0.57322E+06
 0.93699999E+01 -0.46196E+06
 0.94200001E+01 -0.12489E+07
 0.94700003E+01 -0.45303E+06
 0.95200005E+01  0.45140E+06
 0.95699997E+01 -0.42225E+06
 0.96199999E+01 -0.25796E+07
 0.96700001E+01 -0.14325E+07
 0.97200003E+01 -0.92906E+06
 0.97700005E+01 -0.97081E+06
 0.98199997E+01  0.13518E+07
 0.98699999E+01  0.16615E+07
 0.99200001E+01  0.69968E+06
 0.99700003E+01  0.15122E+07
 0.10020000E+02  0.14364E+07
 0.10070000E+02  0.64944E+06
 0.10120000E+02 -0.92979E+05
 0.10170000E+02 -0.93280E+06
 0.10220000E+02  0.46341E+06
 0.10270000E+02  0.13716E+07
 0.10320000E+02  0.16729E+07
 0.10370000E+02  0.33234E+07
 0.10420000E+02  0.31819E+07
 0.10470000E+02  0.14986E+07
 0.10520000E+02  0.90075E+06
 0.10570000E+02 -0.11520E+07
 0.10620000E+02 -0.27299E+07
 0.10670000E+02 -0.63688E+06
 0.10720000E+02  0.14605E+07
 0.10770000E+02  0.16275E+07
 0.10820000E+02 -0.13612E+07
 0.10870000E+02 -0.31209E+07
 0.10920000E+02 -0.24421E+07
 0.10970000E+02 -0.29460E+07
 0.11020000E+02 -0.18605E+07
 0.11070000E+02 -0.41652E+06
 0.11120000E+02 -0.84562E+06
 0.11170000E+02 -0.29295E+07
 0.11220000E+02 -0.43058E+07
 0.11270000E+02 -0.30660E+07
 0.11320000E+02 -0.11805E+07
 0.11370000E+02  0.18114E+06
 0.11420000E+02  0.11426E+07
 0.11470000E+02  0.12681E+07
 0.11520000E+02  0.26488E+06
 0.11570000E+02 -0.20768E+06
 0.11620000E+02 -0.72781E+06
 0.11670000E+02 -0.18732E+07
 0.11720000E+02 -0.46797E+07
 0.11770000E+02 -0.54223E+07
 0.11820000E+02 -0.75258E+06
 0.11870000E+02  0.16362E+07
 0.11920000E+02  0.10775E+06
 0.11970000E+02 -0.12174E+07
 0.12020000E+02 -0.11703E+07
 0.12070000E+02 -0.27340E+07
 0.12120000E+02 -0.45761E+07
 0.12170001E+02 -0.61583E+07
 0.12220000E+02 -0.85485E+07
 0.12270000E+02 -0.43211E+07
 0.12320001E+02  0.90611E+06
 0.12370000E+02  0.19522E+07
 0.12420001E+02  0.23418E+07
 0.12470000E+02  0.64802E+06
 0.12520000E+02  0.69901E+06
 0.12570001E+02  0.65887E+07
 0.12620000E+02  0.97138E+07
 0.12670001E+02  0.54743E+07
 0.12720000E+02  0.55107E+07
 0.12770000E+02  0.66387E+07
 0.12820001E+02 -0.33153E+07
 0.12870000E+02 -0.82802E+07
 0.12920001E+02 -0.29248E+07
 0.12970000E+02  0.14218E+07
 0.13020000E+02  0.43863E+07
 0.13070001E+02 -0.30472E+07
 0.13120000E+02 -0.21174E+07
 0.13170001E+02  0.39017E+07
 0.13220000E+02 -0.42187E+07
 0.13270000E+02 -0.28509E+07
 0.13320001E+02  0.87328E+06
 0.13370000E+02  0.11872E+07
 0.13420001E+02 -0.21267E+07
 0.13470000E+02 -0.10593E+08
 0.13520000E+02 -0.10142E+08
 0.13570001E+02 -0.63845E+07
 0.13620000E+02 -0.29279E+06
 0.13670001E+02  0.66098E+07
 0.13720000E+02  0.92132E+07
 0.13770000E+02  0.57702E+07
 0.13820001E+02  0.41891E+06
 0.13870000E+02  0.32598E+06
 0.13920001E+02 -0.45073E+06
 0.13970000E+02 -0.63892E+06
 0.14020000E+02 -0.21247E+07
 0.14070001E+02 -0.87515E+07
 0.14120000E+02 -0.10784E+08
 0.14170001E+02 -0.93208E+07
 0.14220000E+02 -0.80750E+07
 0.14270000E+02 -0.22958E+07
 0.14320001E+02  0.45042E+07
 0.14370000E+02  0.78325E+07
 0.14420001E+02  0.82485E+07
 0.14470000E+02  0.22655E+07
 0.14520000E+02 -0.58092E+07
 0.14570001E+02 -0.76520E+07
 0.14620000E+02 -0.57267E+07
 0.14670001E+02 -0.48932E+07
 0.14720000E+02 -0.26420E+07
 0.14770000E+02 -0.13433E+05
 0.14820001E+02 -0.26848E+07
 0.14870000E+02 -0.24539E+07
 0.14920001E+02 -0.13500E+06
 0.14970000E+02  0.38556E+06
 0.15020000E+02  0.34524E+07
 0.15070001E+02  0.38131E+07
 0.15120000E+02  0.47845E+07
 0.15170001E+02  0.65260E+07
 0.15220000E+02  0.46991E+07
 0.15270000E+02  0.43739E+07
 0.15320001E+02  0.42071E+07
 0.15370000E+02  0.13746E+07
 0.15420001E+02 -0.87933E+06
 0.15470000E+02 -0.10114E+06
 0.15520000E+02 -0.16912E+07
 0.15570001E+02 -0.49569E+07
 0.15620000E+02 -0.33205E+07
 0.15670001E+02 -0.57724E+06
 0.15720000E+02  0.76367E+06
 0.15770000E+02  0.18077E+07
 0.15820001E+02  0.29122E+07
 0.15870000E+02  0.26237E+07
 0.15920001E+02  0.11203E+07
 0.15970000E+02 -0.15675E+07
 0.16020000E+02 -0.56166E+07
 0.16070000E+02 -0.45727E+07
 0.16119999E+02  0.11559E+07
 0.16170002E+02  0.36779E+07
 0.16220001E+02  0.13115E+07
 0.16270000E+02 -0.27809E+06
 0.16320000E+02  0.26778E+06
 0.16369999E+02  0.11481E+06
 0.16420002E+02  0.19003E+07
 0.16470001E+02  0.42174E+07
 0.16520000E+02  0.36825E+07
 0.16570000E+02  0.30947E+07
 0.16619999E+02  0.28421E+07
 0.16670002E+02  0.23807E+07
 0.16720001E+02  0.19464E+07
 0.16770000E+02  0.26895E+07
 0.16820000E+02  0.49238E+07
 0.16869999E+02  0.57105E+07
 0.16920002E+02  0.49235E+07
 0.16970001E+02  0.54189E+07
 0.17020000E+02  0.76561E+07
 0.17070000E+02  0.60233E+07
 0.17119999E+02  0.11430E+07
 0.17170002E+02 -0.16663E+07
 0.17220001E+02 -0.16013E+07
 0.17270000E+02  0.12912E+07
 0.17320000E+02  0.30916E+07
 0.17369999E+02  0.40376E+07
 0.17420002E+02  0.38804E+07
 0.17470001E+02  0.17554E+07
 0.17520000E+02  0.95758E+06
 0.17570000E+02  0.44624E+06
 0.17619999E+02  0.17152E+07
 0.17670002E+02  0.37666E+07
 0.17720001E+02  0.37246E+07
 0.17770000E+02  0.18707E+07
 0.17820000E+02  0.35813E+06
 0.17869999E+02  0.18438E+07
 0.17920002E+02  0.30778E+07
 0.17970001E+02  0.30913E+07
 0.18020000E+02  0.39430E+07
 0.18070000E+02  0.40987E+07
 0.18119999E+02  0.33890E+07
 0.18170002E+02  0.37891E+07
 0.18220001E+02  0.43363E+07
 0.18270000E+02  0.54782E+07
 0.18320000E+02  0.74167E+07
 0.18369999E+02  0.78509E+07
 0.18420002E+02  0.56407E+07
 0.18470001E+02  0.23109E+07
 0.18520000E+02  0.20096E+07
 0.18570000E+02  0.19918E+07
 0.18619999E+02  0.33589E+06
 0.18670002E+02 -0.38055E+06
 0.18720001E+02 -0.55279E+06
 0.18770000E+02 -0.61781E+06
 0.18820000E+02 -0.15177E+07
 0.18869999E+02 -0.75960E+06
 0.18920002E+02  0.12070E+07
 0.18970001E+02  0.14029E+07
 0.19020000E+02  0.20995E+07
 0.19070000E+02  0.25977E+07
 0.19119999E+02  0.25237E+07
 0.19170002E+02  0.25169E+07
 0.19220001E+02  0.61623E+06
 0.19270000E+02 -0.57590E+06
 0.19320000E+02 -0.83638E+06
 0.19369999E+02 -0.36090E+07
 0.19420002E+02 -0.59577E+07
 0.19470001E+02 -0.43324E+07
 0.19520000E+02 -0.12617E+07
 0.19570000E+02 -0.16320E+07
 0.19619999E+02 -0.22230E+07
 0.19670002E+02 -0.11036E+07
 0.19720001E+02 -0.23537E+07
 0.19770000E+02 -0.22429E+07
 0.19820000E+02  0.14416E+06
 0.19869999E+02  0.14930E+07
 0.19920002E+02  0.12401E+07
 0.19970001E+02 -0.14164E+07
 0.20020000E+02 -0.30654E+07
 0.20070000E+02 -0.16286E+07
 0.20119999E+02 -0.58919E+06
 0.20170002E+02 -0.12134E+07
 0.20220001E+02 -0.14794E+07
 0.20270000E+02 -0.17311E+07
 0.20320000E+02 -0.33609E+07
 0.20369999E+02 -0.52362E+07
 0.20420002E+02 -0.66101E+07
 0.20470001E+02 -0.54764E+07
 0.20520000E+02 -0.42559E+07
 0.20570000E+02 -0.61927E+07
 0.20619999E+02 -0.66438E+07
 0.20670002E+02 -0.52242E+07
 0.20720001E+02 -0.27875E+07
 0.20770000E+02 -0.94710E+06
 0.20820000E+02 -0.18597E+07
 0.20869999E+02 -0.24089E+07
 0.20920002E+02 -0.29831E+07
 0.20970001E+02 -0.35817E+07
 0.21020000E+02 -0.25182E+07
 0.21070000E+02  0.19260E+06
 0.21119999E+02  0.24665E+07
 0.21170002E+02  0.16241E+07
 0.21220001E+02  0.24150E+06
 0.21270000E+02  0.26994E+06
 0.21320000E+02  0.76562E+06
 0.21369999E+02  0.20075E+07
 0.21420002E+02  0.30353E+07
 0.21470001E+02  0.26058E+07
 0.21520000E+02  0.15159E+07
 0.21570000E+02  0.10571E+07
 0.21619999E+02  0.13688E+07
 0.21670002E+02  0.69204E+06
 0.21720001E+02  0.31025E+06
 0.21770000E+02  0.18539E+07
 0.21820000E+02  0.16175E+07
 0.21869999E+02  0.10005E+05
 0.21920002E+02 -0.29184E+06
 0.21970001E+02 -0.90063E+06
 0.22020000E+02 -0.17009E+07
 0.22070000E+02 -0.21432E+07
 0.22119999E+02 -0.28682E+07
 0.22170002E+02 -0.41042E+07
 0.22220001E+02 -0.58635E+07
 0.22270000E+02 -0.68259E+07
 0.22320000E+02 -0.58138E+07
 0.22369999E+02 -0.41610E+07
 0.22420002E+02 -0.38687E+07
 0.22470001E+02 -0.44047E+07
 0.22520000E+02 -0.54179E+07
 0.22570000E+02 -0.61156E+07
 0.22619999E+02 -0.40159E+07
 0.22670002E+02 -0.46422E+06
 0.22720001E+02  0.18272E+07
 0.22770000E+02  0.25134E+07
 0.22820000E+02  0.30212E+07
 0.22869999E+02  0.34137E+07
 0.22920002E+02  0.24723E+07
 0.22970001E+02  0.25366E+07
 0.23020000E+02  0.42545E+07
 0.23070000E+02  0.59308E+07
 0.23119999E+02  0.67559E+07
 0.23170002E+02  0.65694E+07
 0.23220001E+02  0.55167E+07
 0.23270000E+02  0.34224E+07
 0.23320000E+02  0.12631E+07
 0.23369999E+02 -0.30633E+06
 0.23420002E+02 -0.78236E+06
 0.23470001E+02 -0.11390E+07
 0.23520000E+02 -0.22149E+07
 0.23570000E+02 -0.28993E+07
 0.23619999E+02 -0.36720E+07
 0.23670002E+02 -0.39908E+07
 0.23720001E+02 -0.26083E+07
 0.23770000E+02 -0.17258E+07
 0.23820000E+02 -0.24680E+07
 0.23869999E+02 -0.20576E+07
 0.23920002E+02 -0.98347E+06
 0.23970001E+02 -0.12838E+07
 0.24020000E+02 -0.25251E+07
 0.24070000E+02 -0.35242E+07
 0.24119999E+02 -0.22226E+07
 0.24170002E+02 -0.69044E+06
 0.24220001E+02 -0.12225E+07
 0.24270000E+02 -0.25010E+07
 0.24320000E+02 -0.30888E+07
 0.24369999E+02 -0.18220E+07
 0.24420002E+02 -0.24658E+06
 0.24470001E+02 -0.28244E+06
 0.24520000E+02 -0.20795E+06
 0.24570000E+02  0.11862E+07
 0.24619999E+02  0.22336E+07
 0.24670002E+02  0.27399E+07
 0.24720001E+02  0.25455E+07
 0.24770000E+02  0.18557E+07
 0.24820000E+02  0.11898E+07
 0.24869999E+02  0.36723E+06
 0.24920002E+02  0.26637E+06
 0.24970001E+02 -0.11631E+06
 0.25020000E+02  0.10924E+06
 0.25070000E+02  0.21551E+07
 0.25119999E+02  0.33669E+07
 0.25170002E+02  0.31635E+07
 0.25220001E+02  0.26439E+07
 0.25270000E+02  0.15841E+07
 0.25320000E+02  0.21152E+06
 0.25369999E+02 -0.22234E+06
 0.25420002E+02  0.25563E+06
 0.25470001E+02  0.51797E+06
 0.25520000E+02  0.42786E+06
 0.25570000E+02  0.86150E+05
 0.25619999E+02  0.20104E+05
 0.25670002E+02  0.61007E+06
 0.25720001E+02  0.71702E+06
 0.25770000E+02  0.65626E+06
 0.25820000E+02  0.13636E+07
 0.25869999E+02  0.15835E+07
 0.25920002E+02  0.12779E+07
 0.25970001E+02  0.85253E+06
 0.26020000E+02  0.77763E+05
 0.26070000E+02  0.54846E+05
 0.26119999E+02 -0.21132E+06
 0.26170002E+02 -0.13548E+07
 0.26220001E+02 -0.23502E+07
 0.26270000E+02 -0.33843E+07
 0.26320000E+02 -0.33858E+07
 0.26369999E+02 -0.24682E+07
 0.26420002E+02 -0.14510E+07
 0.26470001E+02 -0.88290E+06
 0.26520000E+02 -0.13280E+07
 0.26570000E+02 -0.17851E+07
 0.26619999E+02 -0.25994E+07
 0.26670002E+02 -0.25910E+07
 0.26720001E+02 -0.61160E+06
 0.26770000E+02  0.17099E+07
 0.26820000E+02  0.28242E+07
 0.26869999E+02  0.23871E+07
 0.26920002E+02  0.17895E+07
 0.26970001E+02  0.11941E+07
 0.27020000E+02  0.72265E+06
 0.27070000E+02  0.12002E+06
 0.27119999E+02 -0.91979E+06
 0.27170002E+02 -0.12940E+07
 0.27220001E+02 -0.10949E+07
 0.27270000E+02 -0.63022E+06
 0.27320000E+02  0.15122E+06
 0.27369999E+02  0.13493E+07
 0.27420002E+02  0.20350E+07
 0.27470001E+02  0.16313E+07
 0.27520000E+02  0.74770E+06
 0.27570000E+02  0.37603E+05
 0.27619999E+02  0.16285E+06
 0.27670002E+02  0.23751E+06
 0.27720001E+02 -0.31030E+06
 0.27770000E+02 -0.34126E+06
 0.27820000E+02  0.29748E+06
 0.27869999E+02  0.68188E+06
 0.27920002E+02  0.16558E+06
 0.27970001E+02 -0.91499E+06
 0.28020000E+02 -0.13276E+07
 0.28070000E+02 -0.11020E+07
 0.28119999E+02 -0.98406E+06
 0.28169998E+02 -0.97551E+06
 0.28220001E+02 -0.24389E+06
 0.28270000E+02  0.11426E+07
 0.28320000E+02  0.19903E+07
 0.28369999E+02  0.21091E+07
 0.28419998E+02  0.14954E+07
 0.28470001E+02  0.64395E+06
 0.28520000E+02 -0.21052E+06
 0.28570000E+02 -0.12885E+07
 0.28619999E+02 -0.19563E+07
 0.28669998E+02 -0.19067E+07
 0.28720001E+02 -0.16037E+07
 0.28770000E+02 -0.14176E+07
 0.28820000E+02 -0.13291E+07
 0.28869999E+02 -0.13670E+07
 0.28919998E+02 -0.16233E+07
 0.28970001E+02 -0.20841E+07
 0.29020000E+02 -0.21132E+07
 0.29070000E+02 -0.13895E+07
 0.29119999E+02 -0.59703E+06
 0.29169998E+02 -0.99453E+05
 0.29220001E+02  0.57013E+05
 0.29270000E+02  0.52268E+05
 0.29320000E+02  0.73208E+06
 0.29369999E+02  0.19437E+07
 0.29419998E+02  0.29114E+07
 0.29470001E+02  0.38835E+07
 0.29520000E+02  0.42610E+07
 0.29570000E+02  0.40121E+07
 0.29619999E+02  0.42478E+07
 0.29669998E+02  0.43299E+07
 0.29720001E+02  0.42877E+07
 0.29770000E+02  0.42604E+07
 0.29820000E+02  0.37688E+07
 0.29869999E+02  0.35083E+07
 0.29919998E+02  0.29341E+07
 0.29970001E+02  0.16470E+07
 0.30020000E+02  0.54571E+06
 0.30070000E+02  0.17361E+06
 0.30119999E+02 -0.19358E+05
 0.30169998E+02 -0.63183E+06
 0.30220001E+02 -0.11760E+07
 0.30270000E+02 -0.16223E+07
 0.30320000E+02 -0.17597E+07
 0.30369999E+02 -0.14486E+07
 0.30419998E+02 -0.12954E+07
 0.30470001E+02 -0.12042E+07
 0.30520000E+02 -0.89230E+06
 0.30570000E+02 -0.95497E+06
 0.30619999E+02 -0.12094E+07
 0.30669998E+02 -0.43626E+06
 0.30720001E+02  0.34928E+06
 0.30770000E+02  0.11151E+06
 0.30820000E+02 -0.23249E+06
 0.30869999E+02 -0.70571E+06
 0.30919998E+02 -0.14757E+07
 0.30970001E+02 -0.21208E+07
 0.31020000E+02 -0.20055E+07
 0.31070000E+02 -0.11610E+07
 0.31119999E+02 -0.64628E+06
 0.31169998E+02 -0.48131E+06
 0.31220001E+02 -0.24878E+06
 0.31270000E+02 -0.13967E+06
 0.31320000E+02  0.12483E+06
 0.31369999E+02  0.52099E+06
 0.31419998E+02  0.34653E+06
 0.31470001E+02  0.42120E+05
 0.31520000E+02  0.12829E+06
 0.31570000E+02  0.25053E+06
 0.31619999E+02  0.31982E+06
 0.31669998E+02  0.40549E+06
 0.31720001E+02  0.38472E+06
 0.31770000E+02  0.12395E+06
 0.31820000E+02  0.31852E+05
 0.31869999E+02  0.63150E+05
 0.31919998E+02 -0.28883E+06
 0.31970001E+02 -0.38022E+06
 0.32020000E+02  0.85339E+05
 0.32070000E+02  0.62310E+04
 0.32119999E+02 -0.59952E+06
 0.32169998E+02 -0.47946E+06
 0.32220001E+02  0.44488E+06
 0.32270000E+02  0.13238E+07
 0.32320000E+02  0.13368E+07
 0.32369999E+02  0.95800E+06
 0.32419998E+02  0.95192E+06
 0.32470001E+02  0.71764E+06
 0.32520000E+02  0.65285E+06
 0.32570000E+02  0.90877E+06
 0.32619999E+02  0.59909E+06
 0.32669998E+02  0.21115E+06
 0.32720001E+02 -0.65918E+05
 0.32770000E+02 -0.62835E+06
 0.32820000E+02 -0.11217E+07
 0.32869999E+02 -0.14046E+07
 0.32919998E+02 -0.15019E+07
 0.32970001E+02 -0.10559E+07
 0.33020000E+02 -0.18672E+06
 0.33070000E+02  0.16142E+06
 0.33119999E+02 -0.22007E+06
 0.33169998E+02 -0.36209E+06
 0.33220001E+02  0.10825E+06
 0.33270000E+02  0.64874E+06
 0.33320000E+02  0.85008E+06
 0.33369999E+02  0.66664E+06
 0.33419998E+02  0.35020E+06
 0.33470001E+02  0.78383E+05
 0.33520000E+02 -0.40855E+06
 0.33570000E+02 -0.13970E+07
 0.33619999E+02 -0.23168E+07
 0.33669998E+02 -0.26171E+07
 0.33720001E+02 -0.30228E+07
 0.33770000E+02 -0.33828E+07
 0.33820000E+02 -0.28864E+07
 0.33869999E+02 -0.22386E+07
 0.33919998E+02 -0.18893E+07
 0.33970001E+02 -0.12539E+07
 0.34020000E+02 -0.35955E+06
 0.34070000E+02  0.12245E+06
 0.34119999E+02  0.12006E+06
 0.34169998E+02  0.64677E+05
 0.34220001E+02  0.24669E+05
 0.34270000E+02  0.18087E+05
 0.34320000E+02  0.24811E+06
 0.34369999E+02  0.58064E+06
 0.34419998E+02  0.75100E+06
 0.34470001E+02  0.75670E+06
 0.34520000E+02  0.74005E+06
 0.34570000E+02  0.88889E+06
 0.34619999E+02  0.10752E+07
 0.34669998E+02  0.10964E+07
 0.34720001E+02  0.10689E+07
 0.34770000E+02  0.87219E+06
 0.34820000E+02  0.69231E+06
 0.34869999E+02  0.71306E+06
 0.34919998E+02  0.40026E+06
 0.34970001E+02 -0.11361E+06
 0.35020000E+02 -0.32369E+06
 0.35070000E+02 -0.38460E+06
 0.35119999E+02 -0.76471E+06
 0.35169998E+02 -0.11931E+07
 0.35220001E+02 -0.11552E+07
 0.35270000E+02 -0.93788E+06
 0.35320000E+02 -0.73588E+06
 0.35369999E+02 -0.30831E+06
 0.35419998E+02  0.16452E+06
 0.35470001E+02  0.16011E+06
 0.35520000E+02  0.15755E+06
 0.35570000E+02  0.35866E+06
 0.35619999E+02  0.39889E+06
 0.35669998E+02  0.22865E+06
 0.35720001E+02 -0.15199E+06
 0.35770000E+02 -0.30017E+06
 0.35820000E+02 -0.64618E+06
 0.35869999E+02 -0.12530E+07
 0.35919998E+02 -0.13276E+07
 0.35970001E+02 -0.12076E+07
 0.36020000E+02 -0.98516E+06
 0.36070000E+02 -0.33940E+06
 0.36119999E+02  0.62206E+05
 0.36169998E+02 -0.16744E+06
 0.36220001E+02 -0.40900E+06
 0.36270000E+02 -0.57688E+06
 0.36320000E+02 -0.51337E+06
 0.36369999E+02 -0.17452E+06
 0.36419998E+02 -0.38046E+06
 0.36470001E+02 -0.10175E+07
 0.36520000E+02 -0.13375E+07
 0.36570000E+02 -0.10271E+07
 0.36619999E+02 -0.32694E+06
 0.36669998E+02  0.32524E+06
 0.36720001E+02  0.57313E+06
 0.36770000E+02  0.68192E+06
 0.36820000E+02  0.12879E+07
 0.36869999E+02  0.19870E+07
 0.36919998E+02  0.23718E+07
 0.36970001E+02  0.26554E+07
 0.37020000E+02  0.27634E+07
 0.37070000E+02  0.24173E+07
 0.37119999E+02  0.17722E+07
 0.37169998E+02  0.12104E+07
 0.37220001E+02  0.76385E+06
 0.37270000E+02  0.47962E+06
 0.37320000E+02  0.62407E+06
 0.37369999E+02  0.90044E+06
 0.37419998E+02  0.97133E+06
 0.37470001E+02  0.12419E+07
 0.37520000E+02  0.15037E+07
 0.37570000E+02  0.12576E+07
 0.37619999E+02  0.82071E+06
 0.37669998E+02  0.65436E+06
 0.37720001E+02  0.78999E+06
 0.37770000E+02  0.10556E+07
 0.37820000E+02  0.12454E+07
 0.37869999E+02  0.96934E+06
 0.37919998E+02  0.47163E+06
 0.37970001E+02  0.32435E+06
 0.38020000E+02  0.48543E+06
 0.38070000E+02  0.67036E+06
 0.38119999E+02  0.59188E+06
 0.38169998E+02  0.40992E+06
 0.38220001E+02  0.44866E+06
 0.38270000E+02  0.59102E+06
 0.38320000E+02  0.65888E+06
 0.38369999E+02  0.56398E+06
 0.38419998E+02  0.29285E+06
 0.38470001E+02  0.28026E+06
 0.38520000E+02  0.60242E+06
 0.38570000E+02  0.61800E+06
 0.38619999E+02  0.50090E+06
 0.38669998E+02  0.43902E+06
 0.38720001E+02  0.15995E+06
 0.38770000E+02 -0.11165E+06
 0.38820000E+02 -0.33428E+05
 0.38869999E+02  0.27232E+06
 0.38919998E+02  0.39132E+06
 0.38970001E+02  0.45433E+06
 0.39020000E+02  0.43808E+06
 0.39070000E+02  0.43844E+06
 0.39119999E+02  0.64710E+06
 0.39169998E+02  0.64492E+06
 0.39220001E+02  0.44179E+06
 0.39270000E+02  0.18855E+06
 0.39320000E+02 -0.20813E+06
 0.39369999E+02 -0.61858E+06
 0.39419998E+02 -0.10336E+07
 0.39470001E+02 -0.16170E+07
 0.39520000E+02 -0.18746E+07
 0.39570000E+02 -0.15663E+07
 0.39619999E+02 -0.11830E+07
 0.39669998E+02 -0.89890E+06
 0.39720001E+02 -0.83656E+06
 0.39770000E+02 -0.98164E+06
 0.39820000E+02 -0.93725E+06
 0.39869999E+02 -0.63389E+06
 0.39919998E+02 -0.33599E+06
 0.39970001E+02 -0.43095E+05
 0.40020000E+02  0.19437E+06
 0.40070000E+02  0.35723E+06
 0.40119999E+02  0.74960E+06
 0.40169998E+02  0.12695E+07
 0.40220001E+02  0.15106E+07
 0.40270000E+02  0.16829E+07
 0.40320000E+02  0.20749E+07
 0.40369999E+02  0.22228E+07
 0.40419998E+02  0.18662E+07
 0.40470001E+02  0.14065E+07
 0.40520000E+02  0.11004E+07
 0.40570000E+02  0.98178E+06
 0.40619999E+02  0.82089E+06
 0.40669998E+02  0.14913E+06
 0.40720001E+02 -0.86346E+06
 0.40770000E+02 -0.16435E+07
 0.40820000E+02 -0.19036E+07
 0.40869999E+02 -0.19131E+07
 0.40919998E+02 -0.19156E+07
 0.40970001E+02 -0.16855E+07
 0.41020000E+02 -0.14010E+07
 0.41070000E+02 -0.12379E+07
 0.41119999E+02 -0.10716E+07
 0.41169998E+02 -0.67653E+06
 0.41220001E+02  0.66455E+05
 0.41270000E+02  0.93035E+06
 0.41320000E+02  0.14807E+07
 0.41369999E+02  0.13882E+07
 0.41419998E+02  0.94733E+06
 0.41470001E+02  0.35251E+06
 0.41520000E+02 -0.19993E+06
 0.41570000E+02 -0.51996E+06
 0.41619999E+02 -0.85147E+06
 0.41669998E+02 -0.12745E+07
 0.41720001E+02 -0.18159E+07
 0.41770000E+02 -0.23234E+07
 0.41820000E+02 -0.26636E+07
 0.41869999E+02 -0.27061E+07
 0.41919998E+02 -0.23933E+07
 0.41970001E+02 -0.20776E+07
 0.42020000E+02 -0.18066E+07
 0.42070000E+02 -0.15558E+07
 0.42119999E+02 -0.13515E+07
 0.42169998E+02 -0.10329E+07
 0.42220001E+02 -0.63008E+06
 0.42270000E+02 -0.33533E+06
 0.42320000E+02 -0.92604E+05
 0.42369999E+02  0.30007E+06
 0.42419998E+02  0.72542E+06
 0.42470001E+02  0.10193E+07
 0.42520000E+02  0.10472E+07
 0.42570000E+02  0.73982E+06
 0.42619999E+02  0.30507E+06
 0.42669998E+02  0.98669E+05
 0.42720001E+02  0.18968E+06
 0.42770000E+02  0.27132E+06
 0.42820000E+02  0.35276E+06
 0.42869999E+02  0.51030E+06
 0.42919998E+02  0.57647E+06
 0.42970001E+02  0.43321E+06
 0.43020000E+02  0.17332E+06
 0.43070000E+02  0.64894E+05
 0.43119999E+02  0.42836E+05
 0.43169998E+02 -0.33674E+05
 0.43220001E+02 -0.65074E+05
 0.43270000E+02 -0.13524E+06
 0.43320000E+02 -0.33668E+06
 0.43369999E+02 -0.45192E+06
 0.43419998E+02 -0.30976E+06
 0.43470001E+02 -0.28178E+06
 0.43520000E+02 -0.59233E+06
 0.43570000E+02 -0.91953E+06
 0.43619999E+02 -0.10517E+07
 0.43669998E+02 -0.88741E+06
 0.43720001E+02 -0.55854E+06
 0.43770000E+02 -0.16182E+06
 0.43820000E+02  0.36612E+06
 0.43869999E+02  0.94076E+06
 0.43919998E+02  0.14851E+07
 0.43970001E+02  0.18827E+07
 0.44020000E+02  0.20363E+07
 0.44070000E+02  0.18566E+07
 0.44119999E+02  0.13729E+07
 0.44169998E+02  0.95419E+06
 0.44220001E+02  0.87890E+06
 0.44270000E+02  0.75304E+06
 0.44320000E+02  0.28294E+06
 0.44369999E+02 -0.20378E+06
 0.44419998E+02 -0.64537E+06
 0.44470001E+02 -0.10789E+07
 0.44520000E+02 -0.12584E+07
 0.44570000E+02 -0.13095E+07
 0.44619999E+02 -0.13977E+07
 0.44669998E+02 -0.13261E+07
 0.44720001E+02 -0.11415E+07
 0.44770000E+02 -0.80167E+06
 0.44820000E+02 -0.23556E+06
 0.44869999E+02  0.22826E+06
 0.44919998E+02  0.38265E+06
 0.44970001E+02  0.35322E+06
 0.45020000E+02  0.35488E+06
 0.45070000E+02  0.41658E+06
 0.45119999E+02  0.56973E+06
 0.45169998E+02  0.83285E+06
 0.45220001E+02  0.98381E+06
 0.45270000E+02  0.10042E+07
 0.45320000E+02  0.10514E+07
 0.45369999E+02  0.98590E+06
 0.45419998E+02  0.60854E+06
 0.45470001E+02  0.19302E+06
 0.45520000E+02  0.13893E+06
 0.45570000E+02  0.28086E+06
 0.45619999E+02  0.40269E+06
 0.45669998E+02  0.44724E+06
 0.45720001E+02  0.46656E+06
 0.45770000E+02  0.62924E+06
 0.45820000E+02  0.84845E+06
 0.45869999E+02  0.10627E+07
 0.45919998E+02  0.12035E+07
 0.45970001E+02  0.13905E+07
 0.46020000E+02  0.17534E+07
 0.46070000E+02  0.18662E+07
 0.46119999E+02  0.15421E+07
 0.46169998E+02  0.10917E+07
 0.46220001E+02  0.67436E+06
 0.46270000E+02  0.34082E+06
 0.46320000E+02  0.11723E+06
 0.46369999E+02 -0.19814E+06
 0.46419998E+02 -0.66694E+06
 0.46470001E+02 -0.10711E+07
 0.46520000E+02 -0.12494E+07
 0.46570000E+02 -0.12891E+07
 0.46619999E+02 -0.12983E+07
 0.46669998E+02 -0.12156E+07
 0.46720001E+02 -0.10762E+07
 0.46770000E+02 -0.98995E+06
 0.46820000E+02 -0.93718E+06
 0.46869999E+02 -0.70803E+06
 0.46919998E+02 -0.31831E+06
 0.46970001E+02 -0.20024E+05
 0.47020000E+02  0.19528E+06
 0.47070000E+02  0.37758E+06
 0.47119999E+02  0.43631E+06
 0.47169998E+02  0.37860E+06
 0.47220001E+02  0.30740E+06
 0.47270000E+02  0.29246E+06
 0.47320000E+02  0.25847E+06
 0.47369999E+02  0.35607E+05
 0.47419998E+02 -0.22692E+06
 0.47470001E+02 -0.25257E+06
 0.47520000E+02 -0.64399E+05
 0.47570000E+02  0.88800E+04
 0.47619999E+02 -0.26015E+06
 0.47669998E+02 -0.60006E+06
 0.47720001E+02 -0.78885E+06
 0.47770000E+02 -0.84163E+06
 0.47820000E+02 -0.76471E+06
 0.47869999E+02 -0.66417E+06
 0.47919998E+02 -0.57835E+06
 0.47970001E+02 -0.49692E+06
 0.48020000E+02 -0.54427E+06
 0.48070000E+02 -0.61630E+06
 0.48119999E+02 -0.59986E+06
 0.48169998E+02 -0.60778E+06
 0.48220001E+02 -0.51339E+06
 0.48270000E+02 -0.37249E+06
 0.48320000E+02 -0.33043E+06
 0.48369999E+02 -0.29406E+06
 0.48419998E+02 -0.36170E+06
 0.48470001E+02 -0.58057E+06
 0.48520000E+02 -0.82078E+06
 0.48570000E+02 -0.98678E+06
 0.48619999E+02 -0.10783E+07
 0.48669998E+02 -0.11438E+07
 0.48720001E+02 -0.11906E+07
 0.48770000E+02 -0.12239E+07
 0.48820000E+02 -0.12749E+07
 0.48869999E+02 -0.12869E+07
 0.48919998E+02 -0.10988E+07
 0.48970001E+02 -0.75931E+06
 0.49020000E+02 -0.58372E+06
 0.49070000E+02 -0.64361E+06
 0.49119999E+02 -0.66714E+06
 0.49169998E+02 -0.53602E+06
 0.49220001E+02 -0.25724E+06
 0.49270000E+02  0.83312E+05
 0.49320000E+02  0.40088E+06
 0.49369999E+02  0.67002E+06
 0.49419998E+02  0.71632E+06
 0.49470001E+02  0.72141E+06
 0.49520000E+02  0.88450E+06
 0.49570000E+02  0.10266E+07
 0.49619999E+02  0.11680E+07
 0.49669998E+02  0.13158E+07
 0.49720001E+02  0.14179E+07
 0.49770000E+02  0.15168E+07
 0.49820000E+02  0.16285E+07
 0.49869999E+02  0.17050E+07
 0.49919998E+02  0.17043E+07
 0.49970001E+02  0.17077E+07
 0.50020000E+02  0.17093E+07
 0.50070000E+02  0.16745E+07
 0.50119999E+02  0.14993E+07
 0.50169998E+02  0.10976E+07
 0.50220001E+02  0.69184E+06
 0.50270000E+02  0.34041E+06
 0.50320000E+02 -0.71610E+04
 0.50369999E+02 -0.22613E+06
 0.50419998E+02 -0.48832E+06
 0.50470001E+02 -0.10009E+07
 0.50520000E+02 -0.14762E+07
 0.50570000E+02 -0.16786E+07
 0.50619999E+02 -0.16924E+07
 0.50669998E+02 -0.15676E+07
 0.50720001E+02 -0.13684E+07
 0.50770000E+02 -0.11386E+07
 0.50820000E+02 -0.86891E+06
 0.50869999E+02 -0.62248E+06
 0.50919998E+02 -0.42143E+06
 0.50970001E+02 -0.12004E+06
 0.51020000E+02  0.45420E+06
 0.51070000E+02  0.11209E+07
 0.51119999E+02  0.15543E+07
 0.51169998E+02  0.17071E+07
 0.51220001E+02  0.16881E+07
 0.51270000E+02  0.15144E+07
 0.51320000E+02  0.11924E+07
 0.51369999E+02  0.91976E+06
 0.51419998E+02  0.75292E+06
 0.51470001E+02  0.65942E+06
 0.51520000E+02  0.62662E+06
 0.51570000E+02  0.47833E+06
 0.51619999E+02  0.24334E+06
 0.51669998E+02  0.12093E+06
 0.51720001E+02  0.15224E+06
 0.51770000E+02  0.22198E+06
 0.51820000E+02  0.18497E+06
 0.51869999E+02 -0.20250E+04
 0.51919998E+02 -0.18568E+06
 0.51970001E+02 -0.21990E+06
 0.52020000E+02 -0.14297E+06
 0.52070000E+02 -0.95050E+04
 0.52119999E+02  0.38185E+05
 0.52169998E+02 -0.12516E+06
 0.52220001E+02 -0.38875E+06
 0.52270000E+02 -0.55233E+06
 0.52320000E+02 -0.53299E+06
 0.52369999E+02 -0.44065E+06
 0.52419998E+02 -0.33602E+06
 0.52470001E+02 -0.14640E+06
 0.52520000E+02  0.43879E+05
 0.52570000E+02  0.80203E+05
 0.52619999E+02 -0.14190E+04
 0.52669998E+02 -0.13087E+06
 0.52720001E+02 -0.23812E+06
 0.52770000E+02 -0.24222E+06
 0.52820000E+02 -0.29994E+06
 0.52869999E+02 -0.55830E+06
 0.52919998E+02 -0.89823E+06
 0.52970001E+02 -0.11779E+07
 0.53020000E+02 -0.13685E+07
 0.53070000E+02 -0.14210E+07
 0.53119999E+02 -0.12836E+07
 0.53169998E+02 -0.11332E+07
 0.53220001E+02 -0.10599E+07
 0.53270000E+02 -0.86292E+06
 0.53320000E+02 -0.52678E+06
 0.53369999E+02 -0.27675E+06
 0.53419998E+02 -0.18351E+06
 0.53470001E+02 -0.20975E+06
 0.53520000E+02 -0.26153E+06
 0.53570000E+02 -0.20274E+06
 0.53619999E+02 -0.79807E+05
 0.53669998E+02  0.15312E+05
 0.53720001E+02  0.10967E+06
 0.53770000E+02  0.34052E+06
 0.53820000E+02  0.63354E+06
 0.53869999E+02  0.79965E+06
 0.53919998E+02  0.89233E+06
 0.53970001E+02  0.92809E+06
 0.54020000E+02  0.87854E+06
 0.54070000E+02  0.71764E+06
 0.54119999E+02  0.50380E+06
 0.54169998E+02  0.38083E+06
 0.54220001E+02  0.31024E+06
 0.54270000E+02  0.22082E+06
 0.54320000E+02  0.14612E+06
 0.54369999E+02  0.19364E+06
 0.54419998E+02  0.31124E+06
 0.54470001E+02  0.28805E+06
 0.54520000E+02  0.10137E+06
 0.54570000E+02 -0.14398E+06
 0.54619999E+02 -0.32390E+06
 0.54669998E+02 -0.36295E+06
 0.54720001E+02 -0.34484E+06
 0.54770000E+02 -0.38248E+06
 0.54820000E+02 -0.44972E+06
 0.54869999E+02 -0.48975E+06
 0.54919998E+02 -0.46976E+06
 0.54970001E+02 -0.34290E+06
 0.55020000E+02 -0.17846E+06
 0.55070000E+02 -0.68862E+05
 0.55119999E+02 -0.74183E+05
 0.55169998E+02 -0.18791E+06
 0.55220001E+02 -0.28949E+06
 0.55270000E+02 -0.30883E+06
 0.55320000E+02 -0.31310E+06
 0.55369999E+02 -0.34990E+06
 0.55419998E+02 -0.29778E+06
 0.55470001E+02 -0.18558E+06
 0.55520000E+02 -0.19084E+06
 0.55570000E+02 -0.26029E+06
 0.55619999E+02 -0.20695E+06
 0.55669998E+02 -0.39183E+05
 0.55720001E+02  0.14192E+06
 0.55770000E+02  0.30159E+06
 0.55820000E+02  0.37254E+06
 0.55869999E+02  0.45084E+06
 0.55919998E+02  0.61876E+06
 0.55970001E+02  0.79146E+06
 0.56020000E+02  0.93114E+06
 0.56070000E+02  0.95393E+06
 0.56119999E+02  0.79486E+06
 0.56169998E+02  0.58771E+06
 0.56220001E+02  0.56986E+06
 0.56270000E+02  0.73649E+06
 0.56320000E+02  0.91942E+06
 0.56369999E+02  0.10838E+07
 0.56419998E+02  0.12197E+07
 0.56470001E+02  0.13487E+07
 0.56520000E+02  0.15283E+07
 0.56570000E+02  0.16747E+07
 0.56619999E+02  0.16494E+07
 0.56669998E+02  0.14533E+07
 0.56720001E+02  0.12119E+07
 0.56770000E+02  0.10316E+07
 0.56820000E+02  0.92311E+06
 0.56869999E+02  0.77888E+06
 0.56919998E+02  0.48322E+06
 0.56970001E+02  0.16778E+06
 0.57020000E+02 -0.38043E+05
 0.57070000E+02 -0.21667E+06
 0.57119999E+02 -0.41860E+06
 0.57169998E+02 -0.63991E+06
 0.57220001E+02 -0.81332E+06
 0.57270000E+02 -0.86966E+06
 0.57320000E+02 -0.85999E+06
 0.57369999E+02 -0.86451E+06
 0.57419998E+02 -0.88464E+06
 0.57470001E+02 -0.88184E+06
 0.57520000E+02 -0.82237E+06
 0.57570000E+02 -0.69052E+06
 0.57619999E+02 -0.51944E+06
 0.57669998E+02 -0.31352E+06
 0.57720001E+02 -0.67135E+05
 0.57770000E+02  0.17820E+06
 0.57820000E+02  0.34770E+06
 0.57869999E+02  0.39903E+06
 0.57919998E+02  0.39796E+06
 0.57970001E+02  0.39446E+06
 0.58020000E+02  0.37880E+06
 0.58070000E+02  0.32989E+06
 0.58119999E+02  0.28934E+06
 0.58169998E+02  0.39698E+06
 0.58220001E+02  0.63970E+06
 0.58270000E+02  0.91634E+06
 0.58320000E+02  0.11768E+07
 0.58369999E+02  0.12960E+07
 0.58419998E+02  0.12573E+07
 0.58470001E+02  0.12191E+07
 0.58520000E+02  0.12910E+07
 0.58570000E+02  0.13997E+07
 0.58619999E+02  0.13950E+07
 0.58669998E+02  0.12844E+07
 0.58720001E+02  0.11596E+07
 0.58770000E+02  0.95829E+06
 0.58820000E+02  0.64225E+06
 0.58869999E+02  0.37060E+06
 0.58919998E+02  0.21082E+06
 0.58970001E+02  0.59208E+05
 0.59020000E+02 -0.14666E+06
 0.59070000E+02 -0.43430E+06
 0.59119999E+02 -0.82406E+06
 0.59169998E+02 -0.12191E+07
 0.59220001E+02 -0.15197E+07
 0.59270000E+02 -0.17164E+07
 0.59320000E+02 -0.18106E+07
 0.59369999E+02 -0.18440E+07
 0.59419998E+02 -0.18760E+07
 0.59470001E+02 -0.18760E+07
 0.59520000E+02 -0.18164E+07
 0.59570000E+02 -0.17601E+07
 0.59619999E+02 -0.16836E+07
 0.59669998E+02 -0.15681E+07
 0.59720001E+02 -0.14660E+07
 0.59770000E+02 -0.13352E+07
 0.59820000E+02 -0.11584E+07
 0.59869999E+02 -0.10175E+07
 0.59919998E+02 -0.89478E+06
 0.59970001E+02 -0.71662E+06
 0.60020000E+02 -0.63232E+06
 0.60070000E+02 -0.73868E+06
 0.60119999E+02 -0.86529E+06
 0.60170002E+02 -0.91573E+06
 0.60219997E+02 -0.92396E+06
 0.60270000E+02 -0.87738E+06
 0.60320004E+02 -0.74457E+06
 0.60369999E+02 -0.63394E+06
 0.60420002E+02 -0.59808E+06
 0.60469997E+02 -0.50790E+06
 0.60520000E+02 -0.33240E+06
 0.60570004E+02 -0.14137E+06
 0.60619999E+02 -0.16722E+05
 0.60670002E+02  0.29944E+05
 0.60719997E+02  0.31233E+05
 0.60770000E+02  0.35142E+05
 0.60820004E+02  0.17793E+06
 0.60869999E+02  0.43821E+06
 0.60920002E+02  0.61782E+06
 0.60969997E+02  0.59971E+06
 0.61020000E+02  0.52734E+06
 0.61070004E+02  0.53257E+06
 0.61119999E+02  0.52722E+06
 0.61170002E+02  0.53086E+06
 0.61219997E+02  0.52867E+06
 0.61270000E+02  0.42787E+06
 0.61320004E+02  0.32068E+06
 0.61369999E+02  0.31328E+06
 0.61420002E+02  0.33524E+06
 0.61469997E+02  0.22984E+06
 0.61520000E+02  0.40710E+04
 0.61570004E+02 -0.22164E+06
 0.61619999E+02 -0.40409E+06
 0.61670002E+02 -0.52103E+06
 0.61719997E+02 -0.59591E+06
 0.61770000E+02 -0.66863E+06
 0.61820004E+02 -0.72622E+06
 0.61869999E+02 -0.78837E+06
 0.61920002E+02 -0.83526E+06
 0.61969997E+02 -0.78660E+06
 0.62020000E+02 -0.66869E+06
 0.62070004E+02 -0.55956E+06
 0.62119999E+02 -0.52015E+06
 0.62170002E+02 -0.61622E+06
 0.62219997E+02 -0.75780E+06
 0.62270000E+02 -0.77669E+06
 0.62320004E+02 -0.68881E+06
 0.62369999E+02 -0.59552E+06
 0.62420002E+02 -0.46896E+06
 0.62469997E+02 -0.28268E+06
 0.62520000E+02 -0.10730E+06
 0.62570004E+02  0.11280E+06
 0.62619999E+02  0.39561E+06
 0.62670002E+02  0.58307E+06
 0.62719997E+02  0.66143E+06
 0.62770000E+02  0.70141E+06
 0.62820004E+02  0.71032E+06
 0.62869999E+02  0.76084E+06
 0.62920002E+02  0.89788E+06
 0.62969997E+02  0.10040E+07
 0.63020000E+02  0.95211E+06
 0.63070004E+02  0.77911E+06
 0.63119999E+02  0.59701E+06
 0.63170002E+02  0.45925E+06
 0.63219997E+02  0.38958E+06
 0.63270000E+02  0.35227E+06
 0.63320004E+02  0.27845E+06
 0.63369999E+02  0.16155E+06
 0.63420002E+02  0.62298E+05
 0.63469997E+02  0.79506E+05
 0.63520000E+02  0.18875E+06
 0.63570004E+02  0.31473E+06
 0.63619999E+02  0.45333E+06
 0.63670002E+02  0.49570E+06
 0.63719997E+02  0.36598E+06
 0.63770000E+02  0.18903E+06
 0.63820004E+02  0.85375E+05
 0.63869999E+02  0.37295E+05
 0.63920002E+02 -0.45190E+04
 0.63969997E+02 -0.15021E+05
 0.64020004E+02  0.53913E+05
 0.64070007E+02  0.17937E+06
 0.64120003E+02  0.27881E+06
 0.64170006E+02  0.33199E+06
 0.64220001E+02  0.35654E+06
 0.64270004E+02  0.35861E+06
 0.64320007E+02  0.34331E+06
 0.64370003E+02  0.32340E+06
 0.64420006E+02  0.36730E+06
 0.64470001E+02  0.47172E+06
 0.64520004E+02  0.56032E+06
 0.64570007E+02  0.59657E+06
 0.64620003E+02  0.57630E+06
 0.64670006E+02  0.50183E+06
 0.64720001E+02  0.35570E+06
 0.64770004E+02  0.19730E+06
 0.64820007E+02  0.82047E+05
 0.64870003E+02 -0.26754E+05
 0.64920006E+02 -0.11075E+06
 0.64970001E+02 -0.12462E+06
 0.65020004E+02 -0.10240E+06
 0.65070007E+02 -0.76790E+05
 0.65120003E+02 -0.16290E+05
 0.65170006E+02  0.83956E+05
 0.65220001E+02  0.19606E+06
 0.65270004E+02  0.27859E+06
 0.65320007E+02  0.32750E+06
 0.65370003E+02  0.38017E+06
 0.65420006E+02  0.41403E+06
 0.65470001E+02  0.44777E+06
 0.65520004E+02  0.52607E+06
 0.65570007E+02  0.58608E+06
 0.65620003E+02  0.52900E+06
 0.65670006E+02  0.36926E+06
 0.65720001E+02  0.18189E+06
 0.65770004E+02 -0.29870E+05
 0.65820007E+02 -0.21020E+06
 0.65870003E+02 -0.30723E+06
 0.65920006E+02 -0.37872E+06
 0.65970001E+02 -0.49761E+06
 0.66020004E+02 -0.68436E+06
 0.66070007E+02 -0.83092E+06
 0.66120003E+02 -0.86330E+06
 0.66170006E+02 -0.80706E+06
 0.66220001E+02 -0.67250E+06
 0.66270004E+02 -0.51819E+06
 0.66320007E+02 -0.44408E+06
 0.66370003E+02 -0.47713E+06
 0.66420006E+02 -0.53250E+06
 0.66470001E+02 -0.56206E+06
 0.66520004E+02 -0.62189E+06
 0.66570007E+02 -0.73729E+06
 0.66620003E+02 -0.87333E+06
 0.66670006E+02 -0.99407E+06
 0.66720001E+02 -0.10867E+07
 0.66770004E+02 -0.11384E+07
 0.66820007E+02 -0.11391E+07
 0.66870003E+02 -0.10962E+07
 0.66920006E+02 -0.10336E+07
 0.66970001E+02 -0.99464E+06
 0.67020004E+02 -0.95581E+06
 0.67070007E+02 -0.84356E+06
 0.67120003E+02 -0.66930E+06
 0.67170006E+02 -0.48616E+06
 0.67220001E+02 -0.32226E+06
 0.67270004E+02 -0.16705E+06
 0.67320007E+02  0.15831E+05
 0.67370003E+02  0.17590E+06
 0.67420006E+02  0.27218E+06
 0.67470001E+02  0.36494E+06
 0.67520004E+02  0.46471E+06
 0.67570007E+02  0.54156E+06
 0.67620003E+02  0.58543E+06
 0.67670006E+02  0.62566E+06
 0.67720001E+02  0.68475E+06
 0.67770004E+02  0.72969E+06
 0.67820007E+02  0.76741E+06
 0.67870003E+02  0.79542E+06
 0.67920006E+02  0.78930E+06
 0.67970001E+02  0.79804E+06
 0.68020004E+02  0.85896E+06
 0.68070007E+02  0.90865E+06
 0.68120003E+02  0.90112E+06
 0.68170006E+02  0.86491E+06
 0.68220001E+02  0.79072E+06
 0.68270004E+02  0.65550E+06
 0.68320007E+02  0.48034E+06
 0.68370003E+02  0.31818E+06
 0.68420006E+02  0.17159E+06
 0.68470001E+02 -0.29580E+04
 0.68520004E+02 -0.14329E+06
 0.68570007E+02 -0.20138E+06
 0.68620003E+02 -0.21017E+06
 0.68670006E+02 -0.17200E+06
 0.68720001E+02 -0.10396E+06
 0.68770004E+02 -0.33659E+05
 0.68820007E+02 -0.12620E+04
 0.68870003E+02 -0.35891E+05
 0.68920006E+02 -0.10071E+06
 0.68970001E+02 -0.15170E+06
 0.69020004E+02 -0.15074E+06
 0.69070007E+02 -0.66651E+05
 0.69120003E+02  0.11455E+06
 0.69170006E+02  0.34037E+06
 0.69220001E+02  0.51639E+06
 0.69270004E+02  0.61536E+06
 0.69320007E+02  0.64047E+06
 0.69370003E+02  0.58436E+06
 0.69420006E+02  0.45192E+06
 0.69470001E+02  0.27997E+06
 0.69520004E+02  0.95652E+05
 0.69570007E+02 -0.63831E+05
 0.69620003E+02 -0.14718E+06
 0.69670006E+02 -0.14774E+06
 0.69720001E+02 -0.69032E+05
 0.69770004E+02  0.42199E+05
 0.69820007E+02  0.14432E+06
 0.69870003E+02  0.24476E+06
 0.69920006E+02  0.35343E+06
 0.69970001E+02  0.46314E+06
 0.70020004E+02  0.52476E+06
 0.70070007E+02  0.51372E+06
 0.70120003E+02  0.44573E+06
 0.70170006E+02  0.36817E+06
 0.70220001E+02  0.35205E+06
 0.70270004E+02  0.36824E+06
 0.70320007E+02  0.31366E+06
 0.70370003E+02  0.21563E+06
 0.70420006E+02  0.16364E+06
 0.70470001E+02  0.16972E+06
 0.70520004E+02  0.22494E+06
 0.70570007E+02  0.29689E+06
 0.70620003E+02  0.33778E+06
 0.70670006E+02  0.32604E+06
 0.70720001E+02  0.28937E+06
 0.70770004E+02  0.25873E+06
 0.70820007E+02  0.20387E+06
 0.70870003E+02  0.10660E+06
 0.70920006E+02 -0.13284E+05
 0.70970001E+02 -0.12872E+06
 0.71020004E+02 -0.22812E+06
 0.71070007E+02 -0.36036E+06
 0.71120003E+02 -0.53546E+06
 0.71170006E+02 -0.69444E+06
 0.71220001E+02 -0.81308E+06
 0.71270004E+02 -0.90180E+06
 0.71320007E+02 -0.97296E+06
 0.71370003E+02 -0.10391E+07
 0.71420006E+02 -0.11136E+07
 0.71470001E+02 -0.11760E+07
 0.71520004E+02 -0.12123E+07
 0.71570007E+02 -0.12294E+07
 0.71620003E+02 -0.12315E+07
 0.71670006E+02 -0.12303E+07
 0.71720001E+02 -0.12049E+07
 0.71770004E+02 -0.11521E+07
 0.71820007E+02 -0.10890E+07
 0.71870003E+02 -0.98172E+06
 0.71920006E+02 -0.81682E+06
 0.71970001E+02 -0.61305E+06
 0.72020004E+02 -0.37589E+06
 0.72070007E+02 -0.16428E+06
 0.72120003E+02 -0.20848E+05
 0.72170006E+02  0.10394E+06
 0.72220001E+02  0.27676E+06
 0.72270004E+02  0.49779E+06
 0.72320007E+02  0.69514E+06
 0.72370003E+02  0.85961E+06
 0.72420006E+02  0.10166E+07
 0.72470001E+02  0.11641E+07
 0.72520004E+02  0.12921E+07
 0.72570007E+02  0.13914E+07
 0.72620003E+02  0.14677E+07
 0.72670006E+02  0.14741E+07
 0.72720001E+02  0.13852E+07
 0.72770004E+02  0.12527E+07
 0.72820007E+02  0.11308E+07
 0.72870003E+02  0.10517E+07
 0.72920006E+02  0.10219E+07
 0.72970001E+02  0.10306E+07
 0.73020004E+02  0.10391E+07
 0.73070007E+02  0.10003E+07
 0.73120003E+02  0.93586E+06
 0.73170006E+02  0.88082E+06
 0.73220001E+02  0.80540E+06
 0.73270004E+02  0.71125E+06
 0.73320007E+02  0.63297E+06
 0.73370003E+02  0.57646E+06
 0.73420006E+02  0.51093E+06
 0.73470001E+02  0.40713E+06
 0.73520004E+02  0.30410E+06
 0.73570007E+02  0.24871E+06
 0.73620003E+02  0.22117E+06
 0.73670006E+02  0.19093E+06
 0.73720001E+02  0.14492E+06
 0.73770004E+02  0.57745E+05
 0.73820007E+02 -0.70741E+05
 0.73870003E+02 -0.21352E+06
 0.73920006E+02 -0.35732E+06
 0.73970001E+02 -0.52220E+06
 0.74020004E+02 -0.71954E+06
 0.74070007E+02 -0.93324E+06
 0.74120003E+02 -0.11447E+07
 0.74170006E+02 -0.13075E+07
 0.74220001E+02 -0.13990E+07
 0.74270004E+02 -0.14166E+07
 0.74320007E+02 -0.13520E+07
 0.74370003E+02 -0.12533E+07
 0.74420006E+02 -0.11721E+07
 0.74470001E+02 -0.11050E+07
 0.74520004E+02 -0.99993E+06
 0.74570007E+02 -0.83935E+06
 0.74620003E+02 -0.69705E+06
 0.74670006E+02 -0.60972E+06
 0.74720001E+02 -0.53930E+06
 0.74770004E+02 -0.44174E+06
 0.74820007E+02 -0.32141E+06
 0.74870003E+02 -0.22848E+06
 0.74920006E+02 -0.16104E+06
 0.74970001E+02 -0.83425E+05
 0.75020004E+02 -0.70540E+04
 0.75070007E+02  0.90087E+05
 0.75120003E+02  0.23662E+06
 0.75170006E+02  0.39392E+06
 0.75220001E+02  0.55345E+06
 0.75270004E+02  0.70966E+06
 0.75320007E+02  0.82244E+06
 0.75370003E+02  0.86702E+06
 0.75420006E+02  0.85247E+06
 0.75470001E+02  0.80844E+06
 0.75520004E+02  0.74210E+06
 0.75570007E+02  0.65791E+06
 0.75620003E+02  0.55687E+06
 0.75670006E+02  0.43912E+06
 0.75720001E+02  0.33619E+06
 0.75770004E+02  0.25743E+06
 0.75820007E+02  0.18188E+06
 0.75870003E+02  0.10296E+06
 0.75920006E+02  0.13990E+05
 0.75970001E+02 -0.96332E+05
 0.76020004E+02 -0.22253E+06
 0.76070007E+02 -0.31856E+06
 0.76120003E+02 -0.36899E+06
 0.76170006E+02 -0.41918E+06
 0.76220001E+02 -0.47591E+06
 0.76270004E+02 -0.51716E+06
 0.76320007E+02 -0.54721E+06
 0.76370003E+02 -0.59112E+06
 0.76420006E+02 -0.63597E+06
 0.76470001E+02 -0.65518E+06
 0.76520004E+02 -0.66813E+06
 0.76570007E+02 -0.68659E+06
 0.76620003E+02 -0.69479E+06
 0.76670006E+02 -0.65584E+06
 0.76720001E+02 -0.55897E+06
 0.76770004E+02 -0.45548E+06
 0.76820007E+02 -0.38986E+06
 0.76870003E+02 -0.36477E+06
 0.76920006E+02 -0.36686E+06
 0.76970001E+02 -0.36862E+06
 0.77020004E+02 -0.33652E+06
 0.77070007E+02 -0.27348E+06
 0.77120003E+02 -0.22359E+06
 0.77170006E+02 -0.21377E+06
 0.77220001E+02 -0.24067E+06
 0.77270004E+02 -0.31265E+06
 0.77320007E+02 -0.41546E+06
 0.77370003E+02 -0.52082E+06
 0.77420006E+02 -0.61022E+06
 0.77470001E+02 -0.65029E+06
 0.77520004E+02 -0.62600E+06
 0.77570007E+02 -0.54352E+06
 0.77620003E+02 -0.42394E+06
 0.77670006E+02 -0.28251E+06
 0.77720001E+02 -0.13850E+06
 0.77770004E+02 -0.34719E+05
 0.77820007E+02  0.33321E+05
 0.77870003E+02  0.89216E+05
 0.77920006E+02  0.13837E+06
 0.77970001E+02  0.20215E+06
 0.78020004E+02  0.27475E+06
 0.78070007E+02  0.31944E+06
 0.78120003E+02  0.31415E+06
 0.78170006E+02  0.26624E+06
 0.78220001E+02  0.21440E+06
 0.78270004E+02  0.18070E+06
 0.78320007E+02  0.16514E+06
 0.78370003E+02  0.15904E+06
 0.78420006E+02  0.13347E+06
 0.78470001E+02  0.86930E+05
 0.78520004E+02  0.57748E+05
 0.78570007E+02  0.81083E+05
 0.78620003E+02  0.14510E+06
 0.78670006E+02  0.19722E+06
 0.78720001E+02  0.20141E+06
 0.78770004E+02  0.16712E+06
 0.78820007E+02  0.13171E+06
 0.78870003E+02  0.12244E+06
 0.78920006E+02  0.11911E+06
 0.78970001E+02  0.89897E+05
 0.79020004E+02  0.56497E+05
 0.79070007E+02  0.28489E+05
 0.79120003E+02 -0.95160E+04
 0.79170006E+02 -0.45069E+05
 0.79220001E+02 -0.50900E+05
 0.79270004E+02 -0.17815E+05
 0.79320007E+02  0.17526E+05
 0.79370003E+02  0.37235E+05
 0.79420006E+02  0.67203E+05
 0.79470001E+02  0.14141E+06
 0.79520004E+02  0.26237E+06
 0.79570007E+02  0.38876E+06
 0.79620003E+02  0.48605E+06
 0.79670006E+02  0.54086E+06
 0.79720001E+02  0.58226E+06
 0.79770004E+02  0.64434E+06
 0.79820007E+02  0.71262E+06
 0.79870003E+02  0.76659E+06
 0.79920006E+02  0.79464E+06
 0.79970001E+02  0.77450E+06
 0.80020004E+02  0.72090E+06
 0.80070007E+02  0.68386E+06
 0.80120003E+02  0.65842E+06
 0.80170006E+02  0.62478E+06
 0.80220001E+02  0.58686E+06
 0.80270004E+02  0.52384E+06
 0.80320007E+02  0.42392E+06
 0.80370003E+02  0.29177E+06
 0.80420006E+02  0.11806E+06
 0.80470001E+02 -0.73495E+05
 0.80520004E+02 -0.23968E+06
 0.80570007E+02 -0.38388E+06
 0.80620003E+02 -0.50931E+06
 0.80670006E+02 -0.59394E+06
 0.80720001E+02 -0.64303E+06
 0.80770004E+02 -0.67901E+06
 0.80820007E+02 -0.72007E+06
 0.80870003E+02 -0.79572E+06
 0.80920006E+02 -0.91062E+06
 0.80970001E+02 -0.10099E+07
 0.81020004E+02 -0.10373E+07
 0.81070007E+02 -0.99527E+06
 0.81120003E+02 -0.91659E+06
 0.81170006E+02 -0.83329E+06
 0.81220001E+02 -0.78351E+06
 0.81270004E+02 -0.76955E+06
 0.81320007E+02 -0.74906E+06
 0.81370003E+02 -0.67959E+06
 0.81420006E+02 -0.54394E+06
 0.81470001E+02 -0.37331E+06
 0.81520004E+02 -0.20665E+06
 0.81570007E+02 -0.49608E+05
 0.81620003E+02  0.10749E+06
 0.81670006E+02  0.28099E+06
 0.81720001E+02  0.47557E+06
 0.81770004E+02  0.66850E+06
 0.81820007E+02  0.85283E+06
 0.81870003E+02  0.10305E+07
 0.81920006E+02  0.11550E+07
 0.81970001E+02  0.11900E+07
 0.82020004E+02  0.11750E+07
 0.82070007E+02  0.11507E+07
 0.82120003E+02  0.11155E+07
 0.82170006E+02  0.10842E+07
 0.82220001E+02  0.10619E+07
 0.82270004E+02  0.10059E+07
 0.82320007E+02  0.88425E+06
 0.82370003E+02  0.72723E+06
 0.82420006E+02  0.58857E+06
 0.82470001E+02  0.48349E+06
 0.82520004E+02  0.41396E+06
 0.82570007E+02  0.36785E+06
 0.82620003E+02  0.30031E+06
 0.82670006E+02  0.19594E+06
 0.82720001E+02  0.96105E+05
 0.82770004E+02  0.46564E+05
 0.82820007E+02  0.44791E+05
 0.82870003E+02  0.65163E+05
 0.82920006E+02  0.81631E+05
 0.82970001E+02  0.62456E+05
 0.83020004E+02  0.20821E+05
 0.83070007E+02 -0.96290E+04
 0.83120003E+02 -0.26532E+05
 0.83170006E+02 -0.45226E+05
 0.83220001E+02 -0.90169E+05
 0.83270004E+02 -0.17257E+06
 0.83320007E+02 -0.27087E+06
 0.83370003E+02 -0.34247E+06
 0.83420006E+02 -0.35722E+06
 0.83470001E+02 -0.31511E+06
 0.83520004E+02 -0.25725E+06
 0.83570007E+02 -0.22100E+06
 0.83620003E+02 -0.18662E+06
 0.83670006E+02 -0.14188E+06
 0.83720001E+02 -0.10778E+06
 0.83770004E+02 -0.91173E+05
 0.83820007E+02 -0.80896E+05
 0.83870003E+02 -0.66793E+05
 0.83920006E+02 -0.45274E+05
 0.83970001E+02 -0.33006E+05
 0.84020004E+02 -0.48765E+05
 0.84070007E+02 -0.76770E+05
 0.84120003E+02 -0.12205E+06
 0.84170006E+02 -0.18955E+06
 0.84220001E+02 -0.24577E+06
 0.84270004E+02 -0.28677E+06
 0.84320007E+02 -0.31239E+06
 0.84370003E+02 -0.31734E+06
 0.84420006E+02 -0.31600E+06
 0.84470001E+02 -0.30784E+06
 0.84520004E+02 -0.28589E+06
 0.84570007E+02 -0.26110E+06
 0.84620003E+02 -0.24644E+06
 0.84670006E+02 -0.23578E+06
 0.84720001E+02 -0.21702E+06
 0.84770004E+02 -0.19311E+06
 0.84820007E+02 -0.17690E+06
 0.84870003E+02 -0.14879E+06
 0.84920006E+02 -0.78223E+05
 0.84970001E+02  0.23461E+05
 0.85020004E+02  0.12478E+06
 0.85070007E+02  0.20314E+06
 0.85120003E+02  0.27126E+06
 0.85170006E+02  0.34322E+06
 0.85220001E+02  0.40434E+06
 0.85270004E+02  0.43540E+06
 0.85320007E+02  0.43424E+06
 0.85370003E+02  0.44203E+06
 0.85420006E+02  0.48547E+06
 0.85470001E+02  0.54119E+06
 0.85520004E+02  0.57995E+06
 0.85570007E+02  0.59931E+06
 0.85620003E+02  0.62131E+06
 0.85670006E+02  0.62617E+06
 0.85720001E+02  0.57920E+06
 0.85770004E+02  0.50457E+06
 0.85820007E+02  0.41699E+06
 0.85870003E+02  0.29460E+06
 0.85920006E+02  0.13860E+06
 0.85970001E+02 -0.34476E+05
 0.86020004E+02 -0.20770E+06
 0.86070007E+02 -0.36197E+06
 0.86120003E+02 -0.49697E+06
 0.86170006E+02 -0.61625E+06
 0.86220001E+02 -0.70984E+06
 0.86270004E+02 -0.77773E+06
 0.86320007E+02 -0.82697E+06
 0.86370003E+02 -0.85486E+06
 0.86420006E+02 -0.85966E+06
 0.86470001E+02 -0.85403E+06
 0.86520004E+02 -0.84234E+06
 0.86570007E+02 -0.81432E+06
 0.86620003E+02 -0.78383E+06
 0.86670006E+02 -0.76103E+06
 0.86720001E+02 -0.73157E+06
 0.86770004E+02 -0.68528E+06
 0.86820007E+02 -0.62596E+06
 0.86870003E+02 -0.56243E+06
 0.86920006E+02 -0.48407E+06
 0.86970001E+02 -0.38203E+06
 0.87020004E+02 -0.24777E+06
 0.87070007E+02 -0.83406E+05
 0.87120003E+02  0.70448E+05
 0.87170006E+02  0.17889E+06
 0.87220001E+02  0.24779E+06
 0.87270004E+02  0.31027E+06
 0.87320007E+02  0.37795E+06
 0.87370003E+02  0.44310E+06
 0.87420006E+02  0.50014E+06
 0.87470001E+02  0.55035E+06
 0.87520004E+02  0.58837E+06
 0.87570007E+02  0.57806E+06
 0.87620003E+02  0.51389E+06
 0.87670006E+02  0.42787E+06
 0.87720001E+02  0.34474E+06
 0.87770004E+02  0.28070E+06
 0.87820007E+02  0.22908E+06
 0.87870003E+02  0.18397E+06
 0.87920006E+02  0.14527E+06
 0.87970001E+02  0.10782E+06
 0.88020004E+02  0.74736E+05
 0.88070007E+02  0.49660E+05
 0.88120003E+02  0.36986E+05
 0.88170006E+02  0.85280E+04
 0.88220001E+02 -0.61445E+05
 0.88270004E+02 -0.13874E+06
 0.88320007E+02 -0.19971E+06
 0.88370003E+02 -0.23588E+06
 0.88420006E+02 -0.24801E+06
 0.88470001E+02 -0.26288E+06
 0.88520004E+02 -0.27873E+06
 0.88570007E+02 -0.28442E+06
 0.88620003E+02 -0.26264E+06
 0.88670006E+02 -0.19066E+06
 0.88720001E+02 -0.88049E+05
 0.88770004E+02  0.14385E+05
 0.88820007E+02  0.10055E+06
 0.88870003E+02  0.16319E+06
 0.88920006E+02  0.19515E+06
 0.88970001E+02  0.20756E+06
 0.89020004E+02  0.21801E+06
 0.89070007E+02  0.23163E+06
 0.89120003E+02  0.26530E+06
 0.89170006E+02  0.30294E+06
 0.89220001E+02  0.30989E+06
 0.89270004E+02  0.27685E+06
 0.89320007E+02  0.20943E+06
 0.89370003E+02  0.13006E+06
 0.89420006E+02  0.58128E+05
 0.89470001E+02  0.90930E+04
 0.89520004E+02 -0.22202E+05
 0.89570007E+02 -0.60335E+05
 0.89620003E+02 -0.10197E+06
 0.89670006E+02 -0.13564E+06
 0.89720001E+02 -0.15346E+06
 0.89770004E+02 -0.13726E+06
 0.89820007E+02 -0.10174E+06
 0.89870003E+02 -0.79262E+05
 0.89920006E+02 -0.75929E+05
 0.89970001E+02 -0.91199E+05
 0.90020004E+02 -0.11188E+06
 0.90070007E+02 -0.12202E+06
 0.90120003E+02 -0.12646E+06
 0.90170006E+02 -0.13435E+06
 0.90220001E+02 -0.13551E+06
 0.90270004E+02 -0.12491E+06
 0.90320007E+02 -0.11414E+06
 0.90370003E+02 -0.87267E+05
 0.90420006E+02 -0.56262E+05
 0.90470001E+02 -0.53735E+05
 0.90520004E+02 -0.63922E+05
 0.90570007E+02 -0.73041E+05
 0.90620003E+02 -0.76704E+05
 0.90670006E+02 -0.67025E+05
 0.90720001E+02 -0.62340E+05
 0.90770004E+02 -0.87706E+05
 0.90820007E+02 -0.11723E+06
 0.90870003E+02 -0.11584E+06
 0.90920006E+02 -0.93293E+05
 0.90970001E+02 -0.62510E+05
 0.91020004E+02 -0.30487E+05
 0.91070007E+02 -0.77930E+04
 0.91120003E+02  0.13902E+05
 0.91170006E+02  0.62556E+05
 0.91220001E+02  0.12789E+06
 0.91270004E+02  0.16427E+06
 0.91320007E+02  0.14994E+06
 0.91370003E+02  0.91504E+05
 0.91420006E+02  0.14821E+05
 0.91470001E+02 -0.50948E+05
 0.91520004E+02 -0.91785E+05
 0.91570007E+02 -0.13078E+06
 0.91620003E+02 -0.18954E+06
 0.91670006E+02 -0.24127E+06
 0.91720001E+02 -0.26609E+06
 0.91770004E+02 -0.25938E+06
 0.91820007E+02 -0.22297E+06
 0.91870003E+02 -0.17601E+06
 0.91920006E+02 -0.13150E+06
 0.91970001E+02 -0.10684E+06
 0.92020004E+02 -0.10347E+06
 0.92070007E+02 -0.10785E+06
 0.92120003E+02 -0.10352E+06
 0.92170006E+02 -0.69759E+05
 0.92220001E+02 -0.35385E+05
 0.92270004E+02 -0.26734E+05
 0.92320007E+02 -0.25775E+05
 0.92370003E+02 -0.37527E+05
 0.92420006E+02 -0.70974E+05
 0.92470001E+02 -0.99390E+05
 0.92520004E+02 -0.10106E+06
 0.92570007E+02 -0.77301E+05
 0.92620003E+02 -0.30690E+05
 0.92670006E+02  0.36504E+05
 0.92720001E+02  0.11612E+06
 0.92770004E+02  0.20321E+06
 0.92820007E+02  0.30303E+06
 0.92870003E+02  0.39964E+06
 0.92920006E+02  0.46288E+06
 0.92970001E+02  0.49925E+06
 0.93020004E+02  0.53116E+06
 0.93070007E+02  0.57463E+06
 0.93120003E+02  0.63378E+06
 0.93170006E+02  0.67685E+06
 0.93220001E+02  0.68267E+06
 0.93270004E+02  0.65784E+06
 0.93320007E+02  0.59944E+06
 0.93370003E+02  0.51250E+06
 0.93420006E+02  0.41084E+06
 0.93470001E+02  0.29822E+06
 0.93520004E+02  0.18965E+06
 0.93570007E+02  0.10761E+06
 0.93620003E+02  0.55055E+05
 0.93670006E+02  0.18218E+05
 0.93720001E+02 -0.34668E+05
 0.93770004E+02 -0.12143E+06
 0.93820007E+02 -0.22022E+06
 0.93870003E+02 -0.28909E+06
 0.93920006E+02 -0.29694E+06
 0.93970001E+02 -0.25802E+06
 0.94020004E+02 -0.20810E+06
 0.94070007E+02 -0.16428E+06
 0.94120003E+02 -0.11774E+06
 0.94170006E+02 -0.64223E+05
 0.94220001E+02 -0.39020E+04
 0.94270004E+02  0.74569E+05
 0.94320007E+02  0.15693E+06
 0.94370003E+02  0.23799E+06
 0.94420006E+02  0.33666E+06
 0.94470001E+02  0.44474E+06
 0.94520004E+02  0.54587E+06
 0.94570007E+02  0.62494E+06
 0.94620003E+02  0.66567E+06
 0.94670006E+02  0.66588E+06
 0.94720001E+02  0.63778E+06
 0.94770004E+02  0.60694E+06
 0.94820007E+02  0.58472E+06
 0.94870003E+02  0.55455E+06
 0.94920006E+02  0.50279E+06
 0.94970001E+02  0.43291E+06
 0.95020004E+02  0.35007E+06
 0.95070007E+02  0.25388E+06
 0.95120003E+02  0.14395E+06
 0.95170006E+02  0.25700E+05
 0.95220001E+02 -0.99175E+05
 0.95270004E+02 -0.23996E+06
 0.95320007E+02 -0.39507E+06
 0.95370003E+02 -0.54809E+06
 0.95420006E+02 -0.67604E+06
 0.95470001E+02 -0.77020E+06
 0.95520004E+02 -0.85001E+06
 0.95570007E+02 -0.92991E+06
 0.95620003E+02 -0.10096E+07
 0.95670006E+02 -0.10753E+07
 0.95720001E+02 -0.11164E+07
 0.95770004E+02 -0.11335E+07
 0.95820007E+02 -0.11236E+07
 0.95870003E+02 -0.10883E+07
 0.95920006E+02 -0.10248E+07
 0.95970001E+02 -0.93619E+06
 0.96020004E+02 -0.84381E+06
 0.96070007E+02 -0.76681E+06
 0.96120003E+02 -0.69242E+06
 0.96170006E+02 -0.59771E+06
 0.96220001E+02 -0.49751E+06
 0.96270004E+02 -0.39938E+06
 0.96320007E+02 -0.29074E+06
 0.96370003E+02 -0.18038E+06
 0.96420006E+02 -0.86154E+05
 0.96470001E+02 -0.91890E+04
 0.96520004E+02  0.73096E+05
 0.96570007E+02  0.17424E+06
 0.96620003E+02  0.27874E+06
 0.96670006E+02  0.35852E+06
 0.96720001E+02  0.40401E+06
 0.96770004E+02  0.43850E+06
 0.96820007E+02  0.47582E+06
 0.96870003E+02  0.50967E+06
 0.96920006E+02  0.53106E+06
 0.96970001E+02  0.53214E+06
 0.97020004E+02  0.51391E+06
 0.97070007E+02  0.48154E+06
 0.97120003E+02  0.43712E+06
 0.97170006E+02  0.37341E+06
 0.97220001E+02  0.29217E+06
 0.97270004E+02  0.20589E+06
 0.97320007E+02  0.11582E+06
 0.97370003E+02  0.31376E+05
 0.97420006E+02 -0.28555E+05
 0.97470001E+02 -0.53925E+05
 0.97520004E+02 -0.54995E+05
 0.97570007E+02 -0.61441E+05
 0.97620003E+02 -0.85926E+05
 0.97670006E+02 -0.12113E+06
 0.97720001E+02 -0.15504E+06
 0.97770004E+02 -0.17526E+06
 0.97820007E+02 -0.17061E+06
 0.97870003E+02 -0.13002E+06
 0.97920006E+02 -0.62653E+05
 0.97970001E+02  0.16637E+05
 0.98020004E+02  0.10476E+06
 0.98070007E+02  0.18984E+06
 0.98120003E+02  0.24780E+06
 0.98170006E+02  0.26660E+06
 0.98220001E+02  0.25458E+06
 0.98270004E+02  0.22574E+06
 0.98320007E+02  0.20151E+06
 0.98370003E+02  0.19694E+06
 0.98420006E+02  0.19900E+06
 0.98470001E+02  0.18967E+06
 0.98520004E+02  0.17626E+06
 0.98570007E+02  0.17386E+06
 0.98620003E+02  0.17547E+06
 0.98670006E+02  0.15741E+06
 0.98720001E+02  0.11383E+06
 0.98770004E+02  0.61888E+05
 0.98820007E+02  0.27412E+05
 0.98870003E+02  0.25947E+05
 0.98920006E+02  0.36685E+05
 0.98970001E+02  0.40768E+05
 0.99020004E+02  0.35329E+05
 0.99070007E+02  0.94020E+04
 0.99120003E+02 -0.47234E+05
 0.99170006E+02 -0.13168E+06
 0.99220001E+02 -0.22691E+06
 0.99270004E+02 -0.30972E+06
 0.99320007E+02 -0.36457E+06
 0.99370003E+02 -0.40222E+06
 0.99420006E+02 -0.42239E+06
 0.99470001E+02 -0.41722E+06
 0.99520004E+02 -0.39633E+06
 0.99570007E+02 -0.36401E+06
 0.99620003E+02 -0.32332E+06
 0.99670006E+02 -0.26242E+06
 0.99720001E+02 -0.17799E+06
 0.99770004E+02 -0.82239E+05
 0.99820007E+02  0.12194E+05
 0.99870003E+02  0.89634E+05
 0.99920006E+02  0.14690E+06
 0.99970001E+02  0.16846E+06
 0.10002000E+03  0.15307E+06
 0.10007001E+03  0.12182E+06
 0.10012000E+03  0.84033E+05
 0.10017001E+03  0.55732E+05
 0.10022000E+03  0.42690E+05
 0.10027000E+03  0.31992E+05
 0.10032001E+03  0.14407E+05
 0.10037000E+03 -0.90100E+04
 0.10042001E+03 -0.35540E+05
 0.10047000E+03 -0.61517E+05
 0.10052000E+03 -0.78330E+05
 0.10057001E+03 -0.86647E+05
 0.10062000E+03 -0.89261E+05
 0.10067001E+03 -0.80968E+05
 0.10072000E+03 -0.55669E+05
 0.10077000E+03 -0.23279E+05
 0.10082001E+03  0.41280E+04
 0.10087000E+03  0.37072E+05
 0.10092001E+03  0.82266E+05
 0.10097000E+03  0.13594E+06
 0.10102000E+03  0.19055E+06
 0.10107001E+03  0.23465E+06
 0.10112000E+03  0.27120E+06
 0.10117001E+03  0.29863E+06
 0.10122000E+03  0.30006E+06
 0.10127000E+03  0.27910E+06
 0.10132001E+03  0.26203E+06
 0.10137000E+03  0.26175E+06
 0.10142001E+03  0.27407E+06
 0.10147000E+03  0.29115E+06
 0.10152000E+03  0.30454E+06
 0.10157001E+03  0.32492E+06
 0.10162000E+03  0.35730E+06
 0.10167001E+03  0.38708E+06
 0.10172000E+03  0.41031E+06
 0.10177000E+03  0.42733E+06
 0.10182001E+03  0.44776E+06
 0.10187000E+03  0.47304E+06
 0.10192001E+03  0.48664E+06
 0.10197000E+03  0.48374E+06
 0.10202000E+03  0.46274E+06
 0.10207001E+03  0.42451E+06
 0.10212000E+03  0.37410E+06
 0.10217001E+03  0.30332E+06
 0.10222000E+03  0.20460E+06
 0.10227000E+03  0.96539E+05
 0.10232001E+03 -0.24000E+02
 0.10237000E+03 -0.88916E+05
 0.10242001E+03 -0.18004E+06
 0.10247000E+03 -0.26614E+06
 0.10252000E+03 -0.33281E+06
 0.10257001E+03 -0.39184E+06
 0.10262000E+03 -0.45358E+06
 0.10267001E+03 -0.50632E+06
 0.10272000E+03 -0.54655E+06
 0.10277000E+03 -0.57780E+06
 0.10282001E+03 -0.60172E+06
 0.10287000E+03 -0.61696E+06
 0.10292001E+03 -0.61513E+06
 0.10297000E+03 -0.58280E+06
 0.10302000E+03 -0.52066E+06
 0.10307001E+03 -0.44365E+06
 0.10312000E+03 -0.37027E+06
 0.10317001E+03 -0.30372E+06
 0.10322000E+03 -0.23981E+06
 0.10327000E+03 -0.19710E+06
 0.10332001E+03 -0.18472E+06
 0.10337000E+03 -0.18705E+06
 0.10342001E+03 -0.16577E+06
 0.10347000E+03 -0.96013E+05
 0.10352000E+03 -0.72920E+04
 0.10357001E+03  0.76565E+05
 0.10362000E+03  0.14418E+06
 0.10367001E+03  0.17871E+06
 0.10372000E+03  0.19829E+06
 0.10377000E+03  0.22187E+06
 0.10382001E+03  0.24950E+06
 0.10387000E+03  0.28233E+06
 0.10392001E+03  0.31191E+06
 0.10397000E+03  0.33855E+06
 0.10402000E+03  0.35272E+06
 0.10407001E+03  0.33997E+06
 0.10412000E+03  0.31446E+06
 0.10417001E+03  0.27657E+06
 0.10422000E+03  0.21157E+06
 0.10427000E+03  0.11585E+06
 0.10432001E+03 -0.13010E+04
 0.10437000E+03 -0.11428E+06
 0.10442001E+03 -0.19650E+06
 0.10447000E+03 -0.24472E+06
 0.10452000E+03 -0.28880E+06
 0.10457001E+03 -0.35017E+06
 0.10462000E+03 -0.41799E+06
 0.10467001E+03 -0.48106E+06
 0.10472000E+03 -0.53963E+06
 0.10477000E+03 -0.58672E+06
 0.10482001E+03 -0.60864E+06
 0.10487000E+03 -0.60847E+06
 0.10492001E+03 -0.58855E+06
 0.10497000E+03 -0.54295E+06
 0.10502000E+03 -0.48658E+06
 0.10507001E+03 -0.43460E+06
 0.10512000E+03 -0.38406E+06
 0.10517001E+03 -0.34207E+06
 0.10522000E+03 -0.31738E+06
 0.10527000E+03 -0.30050E+06
 0.10532001E+03 -0.28327E+06
 0.10537000E+03 -0.25891E+06
 0.10542001E+03 -0.22079E+06
 0.10547000E+03 -0.17032E+06
 0.10552000E+03 -0.10432E+06
 0.10557001E+03 -0.32056E+05
 0.10562000E+03  0.25788E+05
 0.10567001E+03  0.68601E+05
 0.10572000E+03  0.10912E+06
 0.10577000E+03  0.16649E+06
 0.10582001E+03  0.25505E+06
 0.10587000E+03  0.36603E+06
 0.10592001E+03  0.47320E+06
 0.10597000E+03  0.55651E+06
 0.10602000E+03  0.60337E+06
 0.10607001E+03  0.59854E+06
 0.10612000E+03  0.56015E+06
 0.10617001E+03  0.53278E+06
 0.10622000E+03  0.53441E+06
 0.10627000E+03  0.55330E+06
 0.10632001E+03  0.56271E+06
 0.10637000E+03  0.53767E+06
 0.10642001E+03  0.47964E+06
 0.10647000E+03  0.41229E+06
 0.10652000E+03  0.34960E+06
 0.10657001E+03  0.28526E+06
 0.10662000E+03  0.21169E+06
 0.10667001E+03  0.12737E+06
 0.10672000E+03  0.38277E+05
 0.10677000E+03 -0.43837E+05
 0.10682001E+03 -0.11296E+06
 0.10687000E+03 -0.16558E+06
 0.10692001E+03 -0.20036E+06
 0.10697000E+03 -0.21755E+06
 0.10702000E+03 -0.22166E+06
 0.10707001E+03 -0.22877E+06
 0.10712000E+03 -0.24130E+06
 0.10717001E+03 -0.24174E+06
 0.10722000E+03 -0.22896E+06
 0.10727000E+03 -0.21267E+06
 0.10732001E+03 -0.19302E+06
 0.10737000E+03 -0.17246E+06
 0.10742001E+03 -0.14599E+06
 0.10747000E+03 -0.10626E+06
 0.10752000E+03 -0.63729E+05
 0.10757001E+03 -0.30041E+05
 0.10762000E+03 -0.26810E+04
 0.10767001E+03  0.29395E+05
 0.10772000E+03  0.73380E+05
 0.10777000E+03  0.11843E+06
 0.10782001E+03  0.14698E+06
 0.10787000E+03  0.16510E+06
 0.10792001E+03  0.19527E+06
 0.10797000E+03  0.24266E+06
 0.10802000E+03  0.28950E+06
 0.10807001E+03  0.32424E+06
 0.10812000E+03  0.34524E+06
 0.10817001E+03  0.35126E+06
 0.10822000E+03  0.34490E+06
 0.10827000E+03  0.33141E+06
 0.10832001E+03  0.32390E+06
 0.10837000E+03  0.32900E+06
 0.10842001E+03  0.33328E+06
 0.10847000E+03  0.32219E+06
 0.10852000E+03  0.29913E+06
 0.10857001E+03  0.27590E+06
 0.10862000E+03  0.25450E+06
 0.10867001E+03  0.22468E+06
 0.10872000E+03  0.17718E+06
 0.10877000E+03  0.11854E+06
 0.10882001E+03  0.62647E+05
 0.10887000E+03  0.81270E+04
 0.10892001E+03 -0.47555E+05
 0.10897000E+03 -0.87394E+05
 0.10902000E+03 -0.97908E+05
 0.10907001E+03 -0.81829E+05
 0.10912000E+03 -0.50846E+05
 0.10917001E+03 -0.15916E+05
 0.10922000E+03  0.15242E+05
 0.10927000E+03  0.35476E+05
 0.10932001E+03  0.49047E+05
 0.10937000E+03  0.65284E+05
 0.10942001E+03  0.88130E+05
 0.10947000E+03  0.12338E+06
 0.10952000E+03  0.16928E+06
 0.10957001E+03  0.20918E+06
 0.10962000E+03  0.23464E+06
 0.10967001E+03  0.25090E+06
 0.10972000E+03  0.26392E+06
 0.10977000E+03  0.27747E+06
 0.10982001E+03  0.28875E+06
 0.10987000E+03  0.28639E+06
 0.10992001E+03  0.26788E+06
 0.10997000E+03  0.24327E+06
 0.11002000E+03  0.21802E+06
 0.11007001E+03  0.19423E+06
 0.11012000E+03  0.17045E+06
 0.11017001E+03  0.14439E+06
 0.11022000E+03  0.11630E+06
 0.11027000E+03  0.86773E+05
 0.11032001E+03  0.55630E+05
 0.11037000E+03  0.19405E+05
 0.11042001E+03 -0.21367E+05
 0.11047000E+03 -0.64760E+05
 0.11052000E+03 -0.10638E+06
 0.11057001E+03 -0.14271E+06
 0.11062000E+03 -0.18009E+06
 0.11067001E+03 -0.21849E+06
 0.11072000E+03 -0.25199E+06
 0.11077000E+03 -0.28081E+06
 0.11082001E+03 -0.30857E+06
 0.11087000E+03 -0.34028E+06
 0.11092001E+03 -0.37872E+06
 0.11097000E+03 -0.41953E+06
 0.11102000E+03 -0.45229E+06
 0.11107001E+03 -0.46681E+06
 0.11112000E+03 -0.45809E+06
 0.11117001E+03 -0.43689E+06
 0.11122000E+03 -0.41750E+06
 0.11127000E+03 -0.39750E+06
 0.11132001E+03 -0.37460E+06
 0.11137000E+03 -0.35171E+06
 0.11142001E+03 -0.32982E+06
 0.11147000E+03 -0.31256E+06
 0.11152000E+03 -0.30537E+06
 0.11157001E+03 -0.30729E+06
 0.11162000E+03 -0.30520E+06
 0.11167001E+03 -0.29098E+06
 0.11172000E+03 -0.27353E+06
 0.11177000E+03 -0.26520E+06
 0.11182001E+03 -0.26587E+06
 0.11187000E+03 -0.26179E+06
 0.11192001E+03 -0.24615E+06
 0.11197000E+03 -0.22962E+06
 0.11202000E+03 -0.22481E+06
 0.11207001E+03 -0.22941E+06
 0.11212000E+03 -0.23325E+06
 0.11217001E+03 -0.23432E+06
 0.11222000E+03 -0.23751E+06
 0.11227000E+03 -0.23888E+06
 0.11232001E+03 -0.22428E+06
 0.11237000E+03 -0.19397E+06
 0.11242001E+03 -0.15571E+06
 0.11247000E+03 -0.11037E+06
 0.11252000E+03 -0.64525E+05
 0.11257001E+03 -0.28124E+05
 0.11262000E+03  0.11050E+04
 0.11267001E+03  0.39212E+05
 0.11272000E+03  0.93229E+05
 0.11277000E+03  0.15528E+06
 0.11282001E+03  0.21461E+06
 0.11287000E+03  0.26471E+06
 0.11292001E+03  0.30866E+06
 0.11297000E+03  0.34844E+06
 0.11302000E+03  0.38248E+06
 0.11307001E+03  0.41114E+06
 0.11312000E+03  0.43283E+06
 0.11317001E+03  0.44298E+06
 0.11322000E+03  0.44340E+06
 0.11327000E+03  0.44525E+06
 0.11332001E+03  0.44860E+06
 0.11337000E+03  0.43690E+06
 0.11342001E+03  0.39496E+06
 0.11347000E+03  0.32422E+06
 0.11352000E+03  0.24242E+06
 0.11357001E+03  0.16293E+06
 0.11362000E+03  0.83600E+05
 0.11367001E+03 -0.10600E+04
 0.11372000E+03 -0.92447E+05
 0.11377000E+03 -0.18725E+06
 0.11382001E+03 -0.27751E+06
 0.11387000E+03 -0.35980E+06
 0.11392001E+03 -0.42874E+06
 0.11397000E+03 -0.47398E+06
 0.11402000E+03 -0.49499E+06
 0.11407001E+03 -0.49675E+06
 0.11412000E+03 -0.48793E+06
 0.11417001E+03 -0.47640E+06
 0.11422000E+03 -0.46001E+06
 0.11427000E+03 -0.43719E+06
 0.11432001E+03 -0.40090E+06
 0.11437000E+03 -0.33982E+06
 0.11442001E+03 -0.26630E+06
 0.11447000E+03 -0.20596E+06
 0.11452000E+03 -0.16460E+06
 0.11457001E+03 -0.12920E+06
 0.11462000E+03 -0.85286E+05
 0.11467001E+03 -0.28888E+05
 0.11472000E+03  0.35498E+05
 0.11477000E+03  0.10076E+06
 0.11482001E+03  0.16068E+06
 0.11487000E+03  0.21559E+06
 0.11492001E+03  0.25730E+06
 0.11497000E+03  0.27602E+06
 0.11502000E+03  0.28347E+06
 0.11507001E+03  0.29471E+06
 0.11512000E+03  0.31068E+06
 0.11517001E+03  0.32016E+06
 0.11522000E+03  0.31969E+06
 0.11527000E+03  0.31250E+06
 0.11532001E+03  0.29153E+06
 0.11537000E+03  0.25080E+06
 0.11542001E+03  0.19322E+06
 0.11547000E+03  0.13576E+06
 0.11552000E+03  0.86801E+05
 0.11557001E+03  0.42707E+05
 0.11562000E+03  0.74780E+04
 0.11567001E+03 -0.16458E+05
 0.11572000E+03 -0.24905E+05
 0.11577000E+03 -0.27543E+05
 0.11582001E+03 -0.37450E+05
 0.11587000E+03 -0.45617E+05
 0.11592001E+03 -0.41960E+05
 0.11597000E+03 -0.19530E+05
 0.11602000E+03  0.14520E+05
 0.11607001E+03  0.38180E+05
 0.11612000E+03  0.47316E+05
 0.11617001E+03  0.54088E+05
 0.11622000E+03  0.66701E+05
 0.11627000E+03  0.90333E+05
 0.11632001E+03  0.12762E+06
 0.11637000E+03  0.17332E+06
 0.11642001E+03  0.22450E+06
 0.11647000E+03  0.27804E+06
 0.11652000E+03  0.31634E+06
 0.11657001E+03  0.32438E+06
 0.11662000E+03  0.30953E+06
 0.11667001E+03  0.28809E+06
 0.11672000E+03  0.27048E+06
 0.11677000E+03  0.25199E+06
 0.11682001E+03  0.21667E+06
 0.11687000E+03  0.16301E+06
 0.11692001E+03  0.99951E+05
 0.11697000E+03  0.33450E+05
 0.11702000E+03 -0.34949E+05
 0.11707001E+03 -0.10262E+06
 0.11712000E+03 -0.15555E+06
 0.11717001E+03 -0.19164E+06
 0.11722000E+03 -0.22026E+06
 0.11727000E+03 -0.23875E+06
 0.11732001E+03 -0.24726E+06
 0.11737000E+03 -0.25001E+06
 0.11742001E+03 -0.24586E+06
 0.11747000E+03 -0.23697E+06
 0.11752000E+03 -0.23269E+06
 0.11757001E+03 -0.23332E+06
 0.11762000E+03 -0.22320E+06
 0.11767001E+03 -0.19377E+06
 0.11772000E+03 -0.14838E+06
 0.11777000E+03 -0.95003E+05
 0.11782001E+03 -0.47597E+05
 0.11787000E+03 -0.15656E+05
 0.11792001E+03  0.45490E+04
 0.11797000E+03  0.22184E+05
 0.11802000E+03  0.41751E+05
 0.11807001E+03  0.64259E+05
 0.11812000E+03  0.86885E+05
 0.11817001E+03  0.10253E+06
 0.11822000E+03  0.11578E+06
 0.11827000E+03  0.13742E+06
 0.11832001E+03  0.16254E+06
 0.11837000E+03  0.17643E+06
 0.11842001E+03  0.17471E+06
 0.11847000E+03  0.17054E+06
 0.11852000E+03  0.17340E+06
 0.11857001E+03  0.18331E+06
 0.11862000E+03  0.19851E+06
 0.11867001E+03  0.20912E+06
 0.11872000E+03  0.20905E+06
 0.11877000E+03  0.20298E+06
 0.11882001E+03  0.19572E+06
 0.11887000E+03  0.18829E+06
 0.11892001E+03  0.18607E+06
 0.11897000E+03  0.19588E+06
 0.11902000E+03  0.21586E+06
 0.11907001E+03  0.24410E+06
 0.11912000E+03  0.27665E+06
 0.11917001E+03  0.30690E+06
 0.11922000E+03  0.33076E+06
 0.11927000E+03  0.34314E+06
 0.11932001E+03  0.34071E+06
 0.11937000E+03  0.32694E+06
 0.11942001E+03  0.31631E+06
 0.11947000E+03  0.31241E+06
 0.11952000E+03  0.30232E+06
 0.11957001E+03  0.28210E+06
 0.11962000E+03  0.25094E+06
 0.11967001E+03  0.20880E+06
 0.11972000E+03  0.16765E+06
 0.11977000E+03  0.13829E+06
 0.11982001E+03  0.11687E+06
 0.11987000E+03  0.97996E+05
 0.11992001E+03  0.83739E+05
 0.11997000E+03  0.71774E+05
 0.12002000E+03  0.58508E+05
 0.12007001E+03  0.44370E+05
 0.12012000E+03  0.24522E+05
 0.12017001E+03 -0.67010E+04
 0.12022000E+03 -0.48287E+05
 0.12027000E+03 -0.99229E+05
 0.12032001E+03 -0.15549E+06
 0.12037000E+03 -0.21404E+06
 0.12042001E+03 -0.28260E+06
 0.12047000E+03 -0.36220E+06
 0.12052000E+03 -0.44213E+06
 0.12057001E+03 -0.51090E+06
 0.12062000E+03 -0.56174E+06
 0.12067001E+03 -0.59646E+06
 0.12072000E+03 -0.62254E+06
 0.12077000E+03 -0.64208E+06
 0.12082001E+03 -0.64388E+06
 0.12087000E+03 -0.61808E+06
 0.12092001E+03 -0.56791E+06
 0.12097000E+03 -0.50640E+06
 0.12102000E+03 -0.45142E+06
 0.12107001E+03 -0.41164E+06
 0.12112000E+03 -0.38327E+06
 0.12117001E+03 -0.35936E+06
 0.12122000E+03 -0.33329E+06
 0.12127000E+03 -0.30231E+06
 0.12132001E+03 -0.26904E+06
 0.12137000E+03 -0.23516E+06
 0.12142001E+03 -0.20050E+06
 0.12147000E+03 -0.16720E+06
 0.12152000E+03 -0.13114E+06
 0.12157001E+03 -0.86037E+05
 0.12162000E+03 -0.40434E+05
 0.12167001E+03 -0.67290E+04
 0.12172000E+03  0.15863E+05
 0.12177000E+03  0.32708E+05
 0.12182001E+03  0.46415E+05
 0.12187000E+03  0.61186E+05
 0.12192001E+03  0.81213E+05
 0.12197000E+03  0.10827E+06
 0.12202000E+03  0.13573E+06
 0.12207001E+03  0.15422E+06
 0.12212000E+03  0.16072E+06
 0.12217001E+03  0.15193E+06
 0.12222000E+03  0.13193E+06
 0.12227000E+03  0.11124E+06
 0.12232001E+03  0.86071E+05
 0.12237000E+03  0.48636E+05
 0.12242001E+03  0.72210E+04
 0.12247000E+03 -0.26767E+05
 0.12252000E+03 -0.53613E+05
 0.12257001E+03 -0.78165E+05
 0.12262000E+03 -0.98471E+05
 0.12267001E+03 -0.11066E+06
 0.12272000E+03 -0.11462E+06
 0.12277000E+03 -0.10698E+06
 0.12282001E+03 -0.84623E+05
 0.12287000E+03 -0.54403E+05
 0.12292001E+03 -0.29840E+05
 0.12297000E+03 -0.21264E+05
 0.12302000E+03 -0.28991E+05
 0.12307001E+03 -0.48472E+05
 0.12312000E+03 -0.75884E+05
 0.12317001E+03 -0.97377E+05
 0.12322000E+03 -0.99457E+05
 0.12327000E+03 -0.83909E+05
 0.12332001E+03 -0.62821E+05
 0.12337000E+03 -0.52682E+05
 0.12342001E+03 -0.57896E+05
 0.12347000E+03 -0.70034E+05
 0.12352000E+03 -0.77446E+05
 0.12357001E+03 -0.78770E+05
 0.12362000E+03 -0.79382E+05
 0.12367001E+03 -0.73015E+05
 0.12372000E+03 -0.56916E+05
 0.12377000E+03 -0.36858E+05
 0.12382001E+03 -0.17201E+05
 0.12387000E+03  0.94100E+03
 0.12392001E+03  0.12518E+05
 0.12397000E+03  0.14796E+05
 0.12402000E+03  0.18293E+05
 0.12407001E+03  0.22687E+05
 0.12412000E+03  0.20551E+05
 0.12417001E+03  0.17023E+05
 0.12422001E+03  0.13778E+05
 0.12427001E+03  0.48110E+04
 0.12432000E+03 -0.10359E+05
 0.12437000E+03 -0.25529E+05
 0.12442001E+03 -0.37394E+05
 0.12447001E+03 -0.49124E+05
 0.12452001E+03 -0.59769E+05
 0.12457000E+03 -0.62594E+05
 0.12462000E+03 -0.57959E+05
 0.12467001E+03 -0.52352E+05
 0.12472001E+03 -0.49207E+05
 0.12477001E+03 -0.51309E+05
 0.12482000E+03 -0.56153E+05
 0.12487000E+03 -0.50485E+05
 0.12492001E+03 -0.29624E+05
 0.12497001E+03 -0.71470E+04
 0.12502001E+03  0.21670E+04
 0.12507000E+03  0.21050E+04
 0.12512000E+03  0.79540E+04
 0.12517001E+03  0.20505E+05
 0.12522001E+03  0.37893E+05
 0.12527001E+03  0.62723E+05
 0.12532000E+03  0.87783E+05
 0.12537000E+03  0.10909E+06
 0.12542001E+03  0.12822E+06
 0.12547001E+03  0.14211E+06
 0.12552001E+03  0.14737E+06
 0.12557000E+03  0.14695E+06
 0.12562000E+03  0.14654E+06
 0.12567001E+03  0.14563E+06
 0.12572001E+03  0.13800E+06
 0.12577001E+03  0.11818E+06
 0.12582000E+03  0.86081E+05
 0.12587000E+03  0.47878E+05
 0.12592001E+03  0.14786E+05
 0.12597001E+03 -0.26340E+04
 0.12602001E+03 -0.41020E+04
 0.12607000E+03 -0.24630E+04
 0.12612000E+03 -0.75690E+04
 0.12617001E+03 -0.15254E+05
 0.12622001E+03 -0.16528E+05
 0.12627001E+03 -0.15170E+04
 0.12632000E+03  0.31772E+05
 0.12637000E+03  0.73037E+05
 0.12642001E+03  0.11196E+06
 0.12647001E+03  0.14209E+06
 0.12652001E+03  0.15754E+06
 0.12657000E+03  0.15841E+06
 0.12662000E+03  0.15791E+06
 0.12667001E+03  0.16670E+06
 0.12672001E+03  0.18668E+06
 0.12677001E+03  0.21557E+06
 0.12682000E+03  0.24429E+06
 0.12687000E+03  0.26464E+06
 0.12692001E+03  0.27798E+06
 0.12697001E+03  0.29871E+06
 0.12702001E+03  0.33350E+06
 0.12707000E+03  0.37594E+06
 0.12712000E+03  0.41874E+06
 0.12717001E+03  0.44940E+06
 0.12722001E+03  0.46041E+06
 0.12727001E+03  0.45145E+06
 0.12732000E+03  0.43036E+06
 0.12737000E+03  0.41054E+06
 0.12742001E+03  0.39596E+06
 0.12747001E+03  0.38437E+06
 0.12752001E+03  0.37139E+06
 0.12757000E+03  0.35632E+06
 0.12762000E+03  0.34307E+06
 0.12767001E+03  0.33051E+06
 0.12772001E+03  0.31232E+06
 0.12777001E+03  0.27940E+06
 0.12782000E+03  0.22619E+06
 0.12787000E+03  0.16085E+06
 0.12792001E+03  0.96398E+05
 0.12797001E+03  0.38574E+05
 0.12802000E+03 -0.11247E+05
 0.12806999E+03 -0.53341E+05
 0.12812000E+03 -0.86825E+05
 0.12817000E+03 -0.11340E+06
 0.12822000E+03 -0.13555E+06
 0.12827000E+03 -0.15226E+06
 0.12831999E+03 -0.16367E+06
 0.12837000E+03 -0.16685E+06
 0.12842000E+03 -0.16375E+06
 0.12847000E+03 -0.16034E+06
 0.12852000E+03 -0.15066E+06
 0.12856999E+03 -0.13094E+06
 0.12862000E+03 -0.10758E+06
 0.12867000E+03 -0.84152E+05
 0.12872000E+03 -0.62771E+05
 0.12877000E+03 -0.45129E+05
 0.12881999E+03 -0.30344E+05
 0.12887000E+03 -0.13098E+05
 0.12892000E+03  0.13209E+05
 0.12897000E+03  0.45820E+05
 0.12902000E+03  0.74485E+05
 0.12906999E+03  0.90813E+05
 0.12912000E+03  0.89920E+05
 0.12917000E+03  0.66594E+05
 0.12922000E+03  0.27294E+05
 0.12927000E+03 -0.15089E+05
 0.12931999E+03 -0.58322E+05
 0.12937000E+03 -0.10271E+06
 0.12942000E+03 -0.14812E+06
 0.12947000E+03 -0.18619E+06
 0.12952000E+03 -0.20618E+06
 0.12956999E+03 -0.21041E+06
 0.12962000E+03 -0.20270E+06
 0.12967000E+03 -0.18867E+06
 0.12972000E+03 -0.17612E+06
 0.12977000E+03 -0.16575E+06
 0.12981999E+03 -0.16040E+06
 0.12987000E+03 -0.16520E+06
 0.12992000E+03 -0.17736E+06
 0.12997000E+03 -0.19470E+06
 0.13002000E+03 -0.22100E+06
 0.13006999E+03 -0.25514E+06
 0.13012000E+03 -0.28990E+06
 0.13017000E+03 -0.31618E+06
 0.13022000E+03 -0.32832E+06
 0.13027000E+03 -0.33168E+06
 0.13031999E+03 -0.33454E+06
 0.13037000E+03 -0.33447E+06
 0.13042000E+03 -0.32265E+06
 0.13047000E+03 -0.29822E+06
 0.13052000E+03 -0.26326E+06
 0.13056999E+03 -0.22010E+06
 0.13062000E+03 -0.17640E+06
 0.13067000E+03 -0.13644E+06
 0.13072000E+03 -0.10025E+06
 0.13077000E+03 -0.65874E+05
 0.13081999E+03 -0.33256E+05
 0.13087000E+03 -0.21110E+04
 0.13092000E+03  0.29805E+05
 0.13097000E+03  0.57505E+05
 0.13102000E+03  0.77363E+05
 0.13106999E+03  0.95014E+05
 0.13112000E+03  0.11523E+06
 0.13117000E+03  0.13928E+06
 0.13122000E+03  0.16580E+06
 0.13127000E+03  0.18801E+06
 0.13131999E+03  0.20049E+06
 0.13137000E+03  0.20324E+06
 0.13142000E+03  0.20096E+06
 0.13147000E+03  0.19828E+06
 0.13152000E+03  0.19960E+06
 0.13156999E+03  0.20356E+06
 0.13162000E+03  0.20053E+06
 0.13167000E+03  0.19272E+06
 0.13172000E+03  0.18591E+06
 0.13177000E+03  0.17691E+06
 0.13181999E+03  0.16309E+06
 0.13187000E+03  0.14721E+06
 0.13192000E+03  0.13136E+06
 0.13197000E+03  0.11441E+06
 0.13202000E+03  0.98565E+05
 0.13206999E+03  0.79467E+05
 0.13212000E+03  0.47101E+05
 0.13217000E+03  0.90900E+03
 0.13222000E+03 -0.47206E+05
 0.13227000E+03 -0.85134E+05
 0.13231999E+03 -0.11441E+06
 0.13237000E+03 -0.13745E+06
 0.13242000E+03 -0.15037E+06
 0.13247000E+03 -0.15211E+06
 0.13252000E+03 -0.14537E+06
 0.13256999E+03 -0.14020E+06
 0.13262000E+03 -0.14505E+06
 0.13267000E+03 -0.15931E+06
 0.13272000E+03 -0.18002E+06
 0.13277000E+03 -0.20316E+06
 0.13281999E+03 -0.22854E+06
 0.13287000E+03 -0.24939E+06
 0.13292000E+03 -0.25386E+06
 0.13297000E+03 -0.24740E+06
 0.13302000E+03 -0.24464E+06
 0.13306999E+03 -0.24787E+06
 0.13312000E+03 -0.24698E+06
 0.13317000E+03 -0.23815E+06
 0.13322000E+03 -0.22586E+06
 0.13327000E+03 -0.21305E+06
 0.13331999E+03 -0.20193E+06
 0.13337000E+03 -0.19019E+06
 0.13342000E+03 -0.17166E+06
 0.13347000E+03 -0.14677E+06
 0.13352000E+03 -0.11986E+06
 0.13356999E+03 -0.92164E+05
 0.13362000E+03 -0.61419E+05
 0.13367000E+03 -0.25311E+05
 0.13372000E+03  0.10261E+05
 0.13377000E+03  0.40662E+05
 0.13381999E+03  0.68211E+05
 0.13387000E+03  0.94696E+05
 0.13392000E+03  0.12272E+06
 0.13397000E+03  0.15209E+06
 0.13402000E+03  0.18143E+06
 0.13406999E+03  0.20841E+06
 0.13412000E+03  0.22816E+06
 0.13417000E+03  0.24042E+06
 0.13422000E+03  0.25218E+06
 0.13427000E+03  0.26861E+06
 0.13431999E+03  0.27872E+06
 0.13437000E+03  0.27515E+06
 0.13442000E+03  0.27007E+06
 0.13447000E+03  0.26820E+06
 0.13452000E+03  0.26133E+06
 0.13456999E+03  0.24457E+06
 0.13462000E+03  0.21788E+06
 0.13467000E+03  0.18273E+06
 0.13472000E+03  0.14194E+06
 0.13477000E+03  0.99834E+05
 0.13481999E+03  0.58644E+05
 0.13487000E+03  0.20609E+05
 0.13492000E+03 -0.13325E+05
 0.13497000E+03 -0.45595E+05
 0.13502000E+03 -0.72836E+05
 0.13506999E+03 -0.91417E+05
 0.13512000E+03 -0.10804E+06
 0.13517000E+03 -0.12748E+06
 0.13522000E+03 -0.14601E+06
 0.13527000E+03 -0.16177E+06
 0.13531999E+03 -0.17239E+06
 0.13537000E+03 -0.17139E+06
 0.13542000E+03 -0.15575E+06
 0.13547000E+03 -0.12987E+06
 0.13552000E+03 -0.98003E+05
 0.13556999E+03 -0.64753E+05
 0.13562000E+03 -0.38929E+05
 0.13567000E+03 -0.18256E+05
 0.13572000E+03 -0.10690E+04
 0.13577000E+03  0.73860E+04
 0.13581999E+03  0.13987E+05
 0.13587000E+03  0.24673E+05
 0.13592000E+03  0.33774E+05
 0.13597000E+03  0.36520E+05
 0.13602000E+03  0.35663E+05
 0.13606999E+03  0.33038E+05
 0.13612000E+03  0.29716E+05
 0.13617000E+03  0.29417E+05
 0.13622000E+03  0.29705E+05
 0.13627000E+03  0.26725E+05
 0.13631999E+03  0.19532E+05
 0.13637000E+03  0.41180E+04
 0.13642000E+03 -0.19584E+05
 0.13647000E+03 -0.39213E+05
 0.13652000E+03 -0.45849E+05
 0.13656999E+03 -0.41404E+05
 0.13662000E+03 -0.26770E+05
 0.13667000E+03 -0.53280E+04
 0.13672000E+03  0.13287E+05
 0.13677000E+03  0.25607E+05
 0.13681999E+03  0.40414E+05
 0.13687000E+03  0.66134E+05
 0.13692000E+03  0.10262E+06
 0.13697000E+03  0.13934E+06
 0.13702000E+03  0.16659E+06
 0.13706999E+03  0.18785E+06
 0.13712000E+03  0.20492E+06
 0.13717000E+03  0.21533E+06
 0.13722000E+03  0.22453E+06
 0.13727000E+03  0.24042E+06
 0.13731999E+03  0.26220E+06
 0.13737000E+03  0.28122E+06
 0.13742000E+03  0.29215E+06
 0.13747000E+03  0.29518E+06
 0.13752000E+03  0.29028E+06
 0.13756999E+03  0.27931E+06
 0.13762000E+03  0.26539E+06
 0.13767000E+03  0.24986E+06
 0.13772000E+03  0.23336E+06
 0.13777000E+03  0.21692E+06
 0.13781999E+03  0.19952E+06
 0.13787000E+03  0.17560E+06
 0.13792000E+03  0.14669E+06
 0.13797000E+03  0.12236E+06
 0.13802000E+03  0.10349E+06
 0.13806999E+03  0.87368E+05
 0.13812000E+03  0.72117E+05
 0.13817000E+03  0.50119E+05
 0.13822000E+03  0.20465E+05
 0.13827000E+03 -0.11289E+05
 0.13831999E+03 -0.43384E+05
 0.13837000E+03 -0.76266E+05
 0.13842000E+03 -0.11298E+06
 0.13847000E+03 -0.15596E+06
 0.13852000E+03 -0.20526E+06
 0.13856999E+03 -0.25672E+06
 0.13862000E+03 -0.30704E+06
 0.13867000E+03 -0.35655E+06
 0.13872000E+03 -0.40090E+06
 0.13877000E+03 -0.43826E+06
 0.13881999E+03 -0.46971E+06
 0.13887000E+03 -0.49455E+06
 0.13892000E+03 -0.51628E+06
 0.13897000E+03 -0.53744E+06
 0.13902000E+03 -0.55481E+06
 0.13906999E+03 -0.56134E+06
 0.13912000E+03 -0.55785E+06
 0.13917000E+03 -0.55172E+06
 0.13922000E+03 -0.53818E+06
 0.13927000E+03 -0.51377E+06
 0.13931999E+03 -0.47988E+06
 0.13937000E+03 -0.43225E+06
 0.13942000E+03 -0.37127E+06
 0.13947000E+03 -0.30505E+06
 0.13952000E+03 -0.24604E+06
 0.13956999E+03 -0.19576E+06
 0.13962000E+03 -0.14661E+06
 0.13967000E+03 -0.10061E+06
 0.13972000E+03 -0.57188E+05
 0.13977000E+03 -0.10362E+05
 0.13981999E+03  0.36982E+05
 0.13987000E+03  0.82206E+05
 0.13992000E+03  0.12599E+06
 0.13997000E+03  0.16377E+06
 0.14002000E+03  0.19450E+06
 0.14006999E+03  0.22485E+06
 0.14012000E+03  0.25904E+06
 0.14017000E+03  0.29261E+06
 0.14022000E+03  0.32094E+06
 0.14027000E+03  0.34310E+06
 0.14031999E+03  0.35509E+06
 0.14037000E+03  0.35956E+06
 0.14042000E+03  0.36421E+06
 0.14047000E+03  0.36407E+06
 0.14052000E+03  0.35270E+06
 0.14056999E+03  0.33521E+06
 0.14062000E+03  0.31597E+06
 0.14067000E+03  0.29685E+06
 0.14072000E+03  0.27522E+06
 0.14077000E+03  0.24303E+06
 0.14081999E+03  0.20178E+06
 0.14087000E+03  0.15981E+06
 0.14092000E+03  0.12372E+06
 0.14097000E+03  0.93079E+05
 0.14102000E+03  0.60952E+05
 0.14106999E+03  0.29639E+05
 0.14112000E+03  0.78760E+04
 0.14117000E+03 -0.26040E+04
 0.14122000E+03 -0.10219E+05
 0.14127000E+03 -0.26451E+05
 0.14131999E+03 -0.50520E+05
 0.14137000E+03 -0.76007E+05
 0.14142000E+03 -0.98066E+05
 0.14147000E+03 -0.10683E+06
 0.14152000E+03 -0.10277E+06
 0.14156999E+03 -0.94953E+05
 0.14162000E+03 -0.85535E+05
 0.14167000E+03 -0.80170E+05
 0.14172000E+03 -0.81893E+05
 0.14177000E+03 -0.82659E+05
 0.14181999E+03 -0.78917E+05
 0.14187000E+03 -0.74026E+05
 0.14192000E+03 -0.69640E+05
 0.14197000E+03 -0.64787E+05
 0.14202000E+03 -0.56221E+05
 0.14206999E+03 -0.41365E+05
 0.14212000E+03 -0.22165E+05
 0.14217000E+03 -0.45090E+04
 0.14222000E+03  0.62290E+04
 0.14227000E+03  0.72590E+04
 0.14231999E+03 -0.52000E+02
 0.14237000E+03 -0.59270E+04
 0.14242000E+03 -0.52180E+04
 0.14247000E+03 -0.57600E+03
 0.14252000E+03  0.10761E+05
 0.14256999E+03  0.29988E+05
 0.14262000E+03  0.49071E+05
 0.14267000E+03  0.58338E+05
 0.14272000E+03  0.59557E+05
 0.14277000E+03  0.64918E+05
 0.14281999E+03  0.79692E+05
 0.14287000E+03  0.98511E+05
 0.14292000E+03  0.11689E+06
 0.14297000E+03  0.13024E+06
 0.14302000E+03  0.13330E+06
 0.14306999E+03  0.12582E+06
 0.14312000E+03  0.10862E+06
 0.14317000E+03  0.87033E+05
 0.14322000E+03  0.71534E+05
 0.14327000E+03  0.69272E+05
 0.14331999E+03  0.77189E+05
 0.14337000E+03  0.81412E+05
 0.14342000E+03  0.71126E+05
 0.14347000E+03  0.48463E+05
 0.14352000E+03  0.20087E+05
 0.14356999E+03 -0.12508E+05
 0.14362000E+03 -0.47070E+05
 0.14367000E+03 -0.80841E+05
 0.14372000E+03 -0.11394E+06
 0.14377000E+03 -0.14633E+06
 0.14381999E+03 -0.17735E+06
 0.14387000E+03 -0.19859E+06
 0.14392000E+03 -0.20173E+06
 0.14397000E+03 -0.18860E+06
 0.14402000E+03 -0.16417E+06
 0.14406999E+03 -0.13581E+06
 0.14412000E+03 -0.10823E+06
 0.14417000E+03 -0.79525E+05
 0.14422000E+03 -0.47340E+05
 0.14427000E+03 -0.77950E+04
 0.14431999E+03  0.38137E+05
 0.14437000E+03  0.81892E+05
 0.14442000E+03  0.11881E+06
 0.14447000E+03  0.14890E+06
 0.14452000E+03  0.17706E+06
 0.14456999E+03  0.20672E+06
 0.14462000E+03  0.23550E+06
 0.14467000E+03  0.26259E+06
 0.14472000E+03  0.28557E+06
 0.14477000E+03  0.30049E+06
 0.14481999E+03  0.30462E+06
 0.14487000E+03  0.30222E+06
 0.14492000E+03  0.29855E+06
 0.14497000E+03  0.28809E+06
 0.14502000E+03  0.27105E+06
 0.14506999E+03  0.25376E+06
 0.14512000E+03  0.23750E+06
 0.14517000E+03  0.22311E+06
 0.14522000E+03  0.20988E+06
 0.14527000E+03  0.19341E+06
 0.14531999E+03  0.17620E+06
 0.14537000E+03  0.16243E+06
 0.14542000E+03  0.14170E+06
 0.14547000E+03  0.11163E+06
 0.14552000E+03  0.87110E+05
 0.14556999E+03  0.73771E+05
 0.14562000E+03  0.64074E+05
 0.14567000E+03  0.53885E+05
 0.14572000E+03  0.44592E+05
 0.14577000E+03  0.36073E+05
 0.14581999E+03  0.25111E+05
 0.14587000E+03  0.10106E+05
 0.14592000E+03 -0.38760E+04
 0.14597000E+03 -0.15601E+05
 0.14602000E+03 -0.28275E+05
 0.14606999E+03 -0.40751E+05
 0.14612000E+03 -0.48209E+05
 0.14617000E+03 -0.46928E+05
 0.14622000E+03 -0.42600E+05
 0.14627000E+03 -0.39925E+05
 0.14631999E+03 -0.36186E+05
 0.14637000E+03 -0.34550E+05
 0.14642000E+03 -0.37590E+05
 0.14647000E+03 -0.40005E+05
 0.14652000E+03 -0.35853E+05
 0.14656999E+03 -0.23718E+05
 0.14662000E+03 -0.77790E+04
 0.14667000E+03  0.91060E+04
 0.14672000E+03  0.21349E+05
 0.14677000E+03  0.22483E+05
 0.14681999E+03  0.13296E+05
 0.14687000E+03 -0.65370E+04
 0.14692000E+03 -0.31432E+05
 0.14697000E+03 -0.54866E+05
 0.14702000E+03 -0.82087E+05
 0.14706999E+03 -0.11497E+06
 0.14712000E+03 -0.15188E+06
 0.14717000E+03 -0.19151E+06
 0.14722000E+03 -0.22704E+06
 0.14727000E+03 -0.25627E+06
 0.14731999E+03 -0.28480E+06
 0.14737000E+03 -0.31306E+06
 0.14742000E+03 -0.33985E+06
 0.14747000E+03 -0.36547E+06
 0.14752000E+03 -0.38990E+06
 0.14756999E+03 -0.41505E+06
 0.14762000E+03 -0.43763E+06
 0.14767000E+03 -0.45626E+06
 0.14772000E+03 -0.47227E+06
 0.14777000E+03 -0.48597E+06
 0.14781999E+03 -0.49595E+06
 0.14787000E+03 -0.49955E+06
 0.14792000E+03 -0.50246E+06
 0.14797000E+03 -0.50429E+06
 0.14802000E+03 -0.49661E+06
 0.14806999E+03 -0.48077E+06
 0.14812000E+03 -0.46238E+06
 0.14817000E+03 -0.44547E+06
 0.14822000E+03 -0.43400E+06
 0.14827000E+03 -0.42118E+06
 0.14831999E+03 -0.39325E+06
 0.14837000E+03 -0.35273E+06
 0.14842000E+03 -0.31264E+06
 0.14847000E+03 -0.27332E+06
 0.14852000E+03 -0.22941E+06
 0.14856999E+03 -0.17977E+06
 0.14862000E+03 -0.12386E+06
 0.14867000E+03 -0.67052E+05
 0.14872000E+03 -0.15993E+05
 0.14877000E+03  0.29687E+05
 0.14881999E+03  0.73869E+05
 0.14887000E+03  0.12100E+06
 0.14892000E+03  0.17319E+06
 0.14897000E+03  0.22632E+06
 0.14902000E+03  0.27369E+06
 0.14906999E+03  0.31628E+06
