-0.38800001E+01 -0.70470E+05
-0.38300002E+01 -0.45078E+05
-0.37800002E+01 -0.20519E+05
-0.37300000E+01  0.34030E+04
-0.36800001E+01  0.27662E+05
-0.36300001E+01  0.51562E+05
-0.35800002E+01  0.73805E+05
-0.35300002E+01  0.95040E+05
-0.34800000E+01  0.11578E+06
-0.34300001E+01  0.13445E+06
-0.33800001E+01  0.14945E+06
-0.33300002E+01  0.15974E+06
-0.32800002E+01  0.16331E+06
-0.32300000E+01  0.15703E+06
-0.31800001E+01  0.14064E+06
-0.31300001E+01  0.11775E+06
-0.30800002E+01  0.93130E+05
-0.30300002E+01  0.70579E+05
-0.29800000E+01  0.51171E+05
-0.29300001E+01  0.34868E+05
-0.28800001E+01  0.21173E+05
-0.28299999E+01  0.86410E+04
-0.27800002E+01 -0.38490E+04
-0.27300000E+01 -0.16117E+05
-0.26800001E+01 -0.26432E+05
-0.26300001E+01 -0.33119E+05
-0.25799999E+01 -0.35512E+05
-0.25300002E+01 -0.33077E+05
-0.24800000E+01 -0.24410E+05
-0.24300001E+01 -0.10605E+05
-0.23800001E+01  0.42660E+04
-0.23299999E+01  0.17725E+05
-0.22800002E+01  0.28406E+05
-0.22300000E+01  0.36532E+05
-0.21800001E+01  0.42786E+05
-0.21300001E+01  0.45750E+05
-0.20799999E+01  0.44937E+05
-0.20300002E+01  0.41354E+05
-0.19800001E+01  0.34473E+05
-0.19300001E+01  0.24529E+05
-0.18800001E+01  0.12971E+05
-0.18300002E+01  0.52000E+02
-0.17800000E+01 -0.13144E+05
-0.17300000E+01 -0.26442E+05
-0.16800001E+01 -0.38973E+05
-0.16300001E+01 -0.47310E+05
-0.15800002E+01 -0.50072E+05
-0.15300000E+01 -0.47485E+05
-0.14800000E+01 -0.39990E+05
-0.14300001E+01 -0.28979E+05
-0.13800001E+01 -0.17086E+05
-0.13300002E+01 -0.71370E+04
-0.12800000E+01 -0.81800E+03
-0.12300000E+01  0.97100E+03
-0.11800001E+01 -0.24350E+04
-0.11300001E+01 -0.10768E+05
-0.10800002E+01 -0.22485E+05
-0.10300000E+01 -0.36265E+05
-0.98000002E+00 -0.51096E+05
-0.93000007E+00 -0.66021E+05
-0.88000011E+00 -0.80330E+05
-0.83000016E+00 -0.92636E+05
-0.77999997E+00 -0.10276E+06
-0.73000002E+00 -0.11217E+06
-0.68000007E+00 -0.12055E+06
-0.63000011E+00 -0.12721E+06
-0.58000016E+00 -0.13158E+06
-0.52999997E+00 -0.13225E+06
-0.48000002E+00 -0.12834E+06
-0.43000007E+00 -0.11940E+06
-0.38000011E+00 -0.10565E+06
-0.33000016E+00 -0.86809E+05
-0.27999997E+00 -0.61868E+05
-0.23000002E+00 -0.31242E+05
-0.18000007E+00  0.41030E+04
-0.13000011E+00  0.41907E+05
-0.80000162E-01  0.79549E+05
-0.29999971E-01  0.11613E+06
 0.19999981E-01  0.15029E+06
 0.69999933E-01  0.18011E+06
 0.11999989E+00  0.20379E+06
 0.17000008E+00  0.22015E+06
 0.21999979E+00  0.22938E+06
 0.26999998E+00  0.23252E+06
 0.32000017E+00  0.22979E+06
 0.36999989E+00  0.22089E+06
 0.42000008E+00  0.20722E+06
 0.46999979E+00  0.19062E+06
 0.51999998E+00  0.17207E+06
 0.57000017E+00  0.15181E+06
 0.61999989E+00  0.12984E+06
 0.67000008E+00  0.10576E+06
 0.71999979E+00  0.79336E+05
 0.76999998E+00  0.51438E+05
 0.82000017E+00  0.22804E+05
 0.86999989E+00 -0.69580E+04
 0.92000008E+00 -0.37808E+05
 0.96999979E+00 -0.67919E+05
 0.10200000E+01 -0.95824E+05
 0.10700002E+01 -0.12048E+06
 0.11199999E+01 -0.14087E+06
 0.11700001E+01 -0.15685E+06
 0.12199998E+01 -0.16832E+06
 0.12700000E+01 -0.17543E+06
 0.13200002E+01 -0.17891E+06
 0.13699999E+01 -0.17903E+06
 0.14200001E+01 -0.17563E+06
 0.14699998E+01 -0.16919E+06
 0.15200000E+01 -0.16089E+06
 0.15700002E+01 -0.15081E+06
 0.16199999E+01 -0.13880E+06
 0.16700001E+01 -0.12618E+06
 0.17199998E+01 -0.11268E+06
 0.17700000E+01 -0.97991E+05
 0.18200002E+01 -0.84052E+05
 0.18699999E+01 -0.72548E+05
 0.19200001E+01 -0.64178E+05
 0.19699998E+01 -0.56934E+05
 0.20200000E+01 -0.49057E+05
 0.20700002E+01 -0.40818E+05
 0.21199999E+01 -0.31917E+05
 0.21700001E+01 -0.22145E+05
 0.22199998E+01 -0.10596E+05
 0.22700000E+01  0.27850E+04
 0.23200002E+01  0.16781E+05
 0.23699999E+01  0.30964E+05
 0.24200001E+01  0.44650E+05
 0.24699998E+01  0.56823E+05
 0.25200000E+01  0.67017E+05
 0.25700002E+01  0.76121E+05
 0.26199999E+01  0.86436E+05
 0.26700001E+01  0.98257E+05
 0.27199998E+01  0.10938E+06
 0.27700000E+01  0.11905E+06
 0.28200002E+01  0.12706E+06
 0.28699999E+01  0.13281E+06
 0.29200001E+01  0.13518E+06
 0.29699998E+01  0.13332E+06
 0.30200000E+01  0.12799E+06
 0.30700002E+01  0.11876E+06
 0.31199999E+01  0.10558E+06
 0.31700001E+01  0.89384E+05
 0.32199998E+01  0.70988E+05
 0.32700000E+01  0.51889E+05
 0.33200002E+01  0.32551E+05
 0.33699999E+01  0.13069E+05
 0.34200001E+01 -0.64540E+04
 0.34699998E+01 -0.25969E+05
 0.35200000E+01 -0.44268E+05
 0.35700002E+01 -0.60646E+05
 0.36199999E+01 -0.74448E+05
 0.36700001E+01 -0.83517E+05
 0.37199998E+01 -0.86310E+05
 0.37700000E+01 -0.83826E+05
 0.38200002E+01 -0.77107E+05
 0.38699999E+01 -0.67773E+05
 0.39200001E+01 -0.58317E+05
 0.39699998E+01 -0.48161E+05
 0.40200000E+01 -0.34693E+05
 0.40700002E+01 -0.16884E+05
 0.41199999E+01  0.35750E+04
 0.41700001E+01  0.23741E+05
 0.42200003E+01  0.41142E+05
 0.42700005E+01  0.54432E+05
 0.43199997E+01  0.62790E+05
 0.43699999E+01  0.66920E+05
 0.44200001E+01  0.67941E+05
 0.44700003E+01  0.65028E+05
 0.45200005E+01  0.58832E+05
 0.45699997E+01  0.52254E+05
 0.46199999E+01  0.46824E+05
 0.46700001E+01  0.41482E+05
 0.47200003E+01  0.35457E+05
 0.47700005E+01  0.28154E+05
 0.48199997E+01  0.18773E+05
 0.48699999E+01  0.82870E+04
 0.49200001E+01 -0.19570E+04
 0.49700003E+01 -0.10659E+05
 0.50200005E+01 -0.17997E+05
 0.50699997E+01 -0.24829E+05
 0.51199999E+01 -0.31070E+05
 0.51700001E+01 -0.37184E+05
 0.52200003E+01 -0.43726E+05
 0.52700005E+01 -0.51457E+05
 0.53199997E+01 -0.60480E+05
 0.53699999E+01 -0.70078E+05
 0.54200001E+01 -0.79482E+05
 0.54700003E+01 -0.87563E+05
 0.55200005E+01 -0.93754E+05
 0.55699997E+01 -0.97891E+05
 0.56199999E+01 -0.98971E+05
 0.56700001E+01 -0.95664E+05
 0.57200003E+01 -0.88056E+05
 0.57700005E+01 -0.76591E+05
 0.58199997E+01 -0.61087E+05
 0.58699999E+01 -0.41631E+05
 0.59200001E+01 -0.19286E+05
 0.59700003E+01  0.37440E+04
 0.60200005E+01  0.25280E+05
 0.60699997E+01  0.44513E+05
 0.61199999E+01  0.61917E+05
 0.61700001E+01  0.77338E+05
 0.62200003E+01  0.90091E+05
 0.62700005E+01  0.99772E+05
 0.63199997E+01  0.10601E+06
 0.63699999E+01  0.10853E+06
 0.64200001E+01  0.10769E+06
 0.64700003E+01  0.10468E+06
 0.65200005E+01  0.10090E+06
 0.65699997E+01  0.97228E+05
 0.66199999E+01  0.92836E+05
 0.66700001E+01  0.86561E+05
 0.67200003E+01  0.78529E+05
 0.67700005E+01  0.70079E+05
 0.68199997E+01  0.62809E+05
 0.68699999E+01  0.56186E+05
 0.69200001E+01  0.48772E+05
 0.69700003E+01  0.39634E+05
 0.70200005E+01  0.28570E+05
 0.70699997E+01  0.17222E+05
 0.71199999E+01  0.67950E+04
 0.71700001E+01 -0.33590E+04
 0.72200003E+01 -0.14344E+05
 0.72700005E+01 -0.26226E+05
 0.73199997E+01 -0.37970E+05
 0.73699999E+01 -0.48760E+05
 0.74200001E+01 -0.58657E+05
 0.74700003E+01 -0.68292E+05
 0.75200005E+01 -0.77812E+05
 0.75699997E+01 -0.86725E+05
 0.76199999E+01 -0.94050E+05
 0.76700001E+01 -0.98377E+05
 0.77200003E+01 -0.99221E+05
 0.77700005E+01 -0.98187E+05
 0.78199997E+01 -0.96316E+05
 0.78699999E+01 -0.92465E+05
 0.79200001E+01 -0.85924E+05
 0.79700003E+01 -0.76197E+05
 0.80200005E+01 -0.63876E+05
 0.80699997E+01 -0.51401E+05
 0.81199999E+01 -0.39600E+05
 0.81700001E+01 -0.27752E+05
 0.82200003E+01 -0.15034E+05
 0.82700005E+01 -0.12150E+04
 0.83199997E+01  0.12927E+05
 0.83699999E+01  0.26458E+05
 0.84200001E+01  0.39250E+05
 0.84700003E+01  0.51151E+05
 0.85200005E+01  0.61264E+05
 0.85699997E+01  0.68268E+05
 0.86199999E+01  0.70681E+05
 0.86700001E+01  0.68740E+05
 0.87200003E+01  0.63427E+05
 0.87700005E+01  0.55184E+05
 0.88199997E+01  0.44371E+05
 0.88699999E+01  0.31237E+05
 0.89200001E+01  0.16087E+05
 0.89700003E+01 -0.27500E+03
 0.90200005E+01 -0.16050E+05
 0.90699997E+01 -0.28952E+05
 0.91199999E+01 -0.37251E+05
 0.91700001E+01 -0.41398E+05
 0.92200003E+01 -0.41780E+05
 0.92700005E+01 -0.38583E+05
 0.93199997E+01 -0.33151E+05
 0.93699999E+01 -0.25707E+05
 0.94200001E+01 -0.16687E+05
 0.94700003E+01 -0.63920E+04
 0.95200005E+01  0.47980E+04
 0.95699997E+01  0.14889E+05
 0.96199999E+01  0.22594E+05
 0.96700001E+01  0.26221E+05
 0.97200003E+01  0.24172E+05
 0.97700005E+01  0.16940E+05
 0.98199997E+01  0.60830E+04
 0.98699999E+01 -0.55860E+04
 0.99200001E+01 -0.16798E+05
 0.99700003E+01 -0.27869E+05
 0.10020000E+02 -0.38014E+05
 0.10070000E+02 -0.46806E+05
 0.10120000E+02 -0.53417E+05
 0.10170000E+02 -0.55839E+05
 0.10220000E+02 -0.52632E+05
 0.10270000E+02 -0.43624E+05
 0.10320000E+02 -0.30763E+05
 0.10370000E+02 -0.17214E+05
 0.10420000E+02 -0.53810E+04
 0.10470000E+02  0.35860E+04
 0.10520000E+02  0.10728E+05
 0.10570000E+02  0.17546E+05
 0.10620000E+02  0.23743E+05
 0.10670000E+02  0.28617E+05
 0.10720000E+02  0.31468E+05
 0.10770000E+02  0.30787E+05
 0.10820000E+02  0.25590E+05
 0.10870000E+02  0.16584E+05
 0.10920000E+02  0.50030E+04
 0.10970000E+02 -0.75480E+04
 0.11020000E+02 -0.19511E+05
 0.11070000E+02 -0.30612E+05
 0.11120000E+02 -0.40094E+05
 0.11170000E+02 -0.46799E+05
 0.11220000E+02 -0.50397E+05
 0.11270000E+02 -0.50758E+05
 0.11320000E+02 -0.47991E+05
 0.11370000E+02 -0.42999E+05
 0.11420000E+02 -0.36822E+05
 0.11470000E+02 -0.29679E+05
 0.11520000E+02 -0.22135E+05
 0.11570000E+02 -0.14591E+05
 0.11620000E+02 -0.69020E+04
 0.11670000E+02  0.88300E+03
 0.11720000E+02  0.92580E+04
 0.11770000E+02  0.18915E+05
 0.11820000E+02  0.29080E+05
 0.11870000E+02  0.38361E+05
 0.11920000E+02  0.46038E+05
 0.11970000E+02  0.52043E+05
 0.12020000E+02  0.57477E+05
 0.12070000E+02  0.63308E+05
 0.12120000E+02  0.69356E+05
 0.12170001E+02  0.74559E+05
 0.12220000E+02  0.78144E+05
 0.12270000E+02  0.80465E+05
 0.12320001E+02  0.81817E+05
 0.12370000E+02  0.81813E+05
 0.12420001E+02  0.79924E+05
 0.12470000E+02  0.75378E+05
 0.12520000E+02  0.68375E+05
 0.12570001E+02  0.59936E+05
 0.12620000E+02  0.49308E+05
 0.12670001E+02  0.36153E+05
 0.12720000E+02  0.22450E+05
 0.12770000E+02  0.10262E+05
 0.12820001E+02  0.73000E+02
 0.12870000E+02 -0.87330E+04
 0.12920001E+02 -0.16279E+05
 0.12970000E+02 -0.23040E+05
 0.13020000E+02 -0.29634E+05
 0.13070001E+02 -0.35275E+05
 0.13120000E+02 -0.39440E+05
 0.13170001E+02 -0.41997E+05
 0.13220000E+02 -0.43034E+05
 0.13270000E+02 -0.42979E+05
 0.13320001E+02 -0.42347E+05
 0.13370000E+02 -0.42610E+05
 0.13420001E+02 -0.44334E+05
 0.13470000E+02 -0.46731E+05
 0.13520000E+02 -0.49090E+05
 0.13570001E+02 -0.50944E+05
 0.13620000E+02 -0.52607E+05
 0.13670001E+02 -0.54820E+05
 0.13720000E+02 -0.57209E+05
 0.13770000E+02 -0.58404E+05
 0.13820001E+02 -0.57674E+05
 0.13870000E+02 -0.55190E+05
 0.13920001E+02 -0.50518E+05
 0.13970000E+02 -0.43114E+05
 0.14020000E+02 -0.33042E+05
 0.14070001E+02 -0.20105E+05
 0.14120000E+02 -0.50710E+04
 0.14170001E+02  0.10885E+05
 0.14220000E+02  0.27353E+05
 0.14270000E+02  0.43841E+05
 0.14320001E+02  0.59319E+05
 0.14370000E+02  0.72062E+05
 0.14420001E+02  0.80408E+05
 0.14470000E+02  0.83675E+05
 0.14520000E+02  0.81729E+05
 0.14570001E+02  0.74254E+05
 0.14620000E+02  0.61439E+05
 0.14670001E+02  0.44815E+05
 0.14720000E+02  0.26268E+05
 0.14770000E+02  0.68740E+04
 0.14820001E+02 -0.13181E+05
 0.14870000E+02 -0.34243E+05
 0.14920001E+02 -0.55682E+05
 0.14970000E+02 -0.76381E+05
 0.15020000E+02 -0.94394E+05
 0.15070001E+02 -0.10669E+06
 0.15120000E+02 -0.11139E+06
 0.15170001E+02 -0.10827E+06
 0.15220000E+02 -0.98841E+05
 0.15270000E+02 -0.84608E+05
 0.15320001E+02 -0.66923E+05
 0.15370000E+02 -0.46581E+05
 0.15420001E+02 -0.23874E+05
 0.15470000E+02  0.22600E+03
 0.15520000E+02  0.25694E+05
 0.15570001E+02  0.50867E+05
 0.15620000E+02  0.73015E+05
 0.15670001E+02  0.91447E+05
 0.15720000E+02  0.10532E+06
 0.15770000E+02  0.11326E+06
 0.15820001E+02  0.11372E+06
 0.15870000E+02  0.10580E+06
 0.15920001E+02  0.91832E+05
 0.15970000E+02  0.74274E+05
 0.16020000E+02  0.54394E+05
 0.16070000E+02  0.33606E+05
 0.16119999E+02  0.12852E+05
 0.16170002E+02 -0.74480E+04
 0.16220001E+02 -0.26419E+05
 0.16270000E+02 -0.42282E+05
 0.16320000E+02 -0.54486E+05
 0.16369999E+02 -0.62976E+05
 0.16420002E+02 -0.66785E+05
 0.16470001E+02 -0.64729E+05
 0.16520000E+02 -0.57829E+05
 0.16570000E+02 -0.48060E+05
 0.16619999E+02 -0.35718E+05
 0.16670002E+02 -0.22329E+05
 0.16720001E+02 -0.10320E+05
 0.16770000E+02 -0.11560E+04
 0.16820000E+02  0.53730E+04
 0.16869999E+02  0.93290E+04
 0.16920002E+02  0.95850E+04
 0.16970001E+02  0.63330E+04
 0.17020000E+02  0.58800E+03
 0.17070000E+02 -0.66990E+04
 0.17119999E+02 -0.14507E+05
 0.17170002E+02 -0.21456E+05
 0.17220001E+02 -0.27194E+05
 0.17270000E+02 -0.31120E+05
 0.17320000E+02 -0.31850E+05
 0.17369999E+02 -0.29175E+05
 0.17420002E+02 -0.22112E+05
 0.17470001E+02 -0.11500E+05
 0.17520000E+02  0.86800E+03
 0.17570000E+02  0.14526E+05
 0.17619999E+02  0.27296E+05
 0.17670002E+02  0.38496E+05
 0.17720001E+02  0.48448E+05
 0.17770000E+02  0.55830E+05
 0.17820000E+02  0.60625E+05
 0.17869999E+02  0.63714E+05
 0.17920002E+02  0.65531E+05
 0.17970001E+02  0.65339E+05
 0.18020000E+02  0.62857E+05
 0.18070000E+02  0.59616E+05
 0.18119999E+02  0.55791E+05
 0.18170002E+02  0.50971E+05
 0.18220001E+02  0.44826E+05
 0.18270000E+02  0.37175E+05
 0.18320000E+02  0.28960E+05
 0.18369999E+02  0.20963E+05
 0.18420002E+02  0.14670E+05
 0.18470001E+02  0.10933E+05
 0.18520000E+02  0.94130E+04
 0.18570000E+02  0.10074E+05
 0.18619999E+02  0.12874E+05
 0.18670002E+02  0.17465E+05
 0.18720001E+02  0.21961E+05
 0.18770000E+02  0.25164E+05
 0.18820000E+02  0.27521E+05
 0.18869999E+02  0.29051E+05
 0.18920002E+02  0.29829E+05
 0.18970001E+02  0.29856E+05
 0.19020000E+02  0.29301E+05
 0.19070000E+02  0.28528E+05
 0.19119999E+02  0.27642E+05
 0.19170002E+02  0.26388E+05
 0.19220001E+02  0.24921E+05
 0.19270000E+02  0.23848E+05
 0.19320000E+02  0.23131E+05
 0.19369999E+02  0.22776E+05
 0.19420002E+02  0.22028E+05
 0.19470001E+02  0.19425E+05
 0.19520000E+02  0.15195E+05
 0.19570000E+02  0.10146E+05
 0.19619999E+02  0.34520E+04
 0.19670002E+02 -0.52830E+04
 0.19720001E+02 -0.15325E+05
 0.19770000E+02 -0.25932E+05
 0.19820000E+02 -0.36254E+05
 0.19869999E+02 -0.46049E+05
 0.19920002E+02 -0.55263E+05
 0.19970001E+02 -0.63511E+05
 0.20020000E+02 -0.71198E+05
 0.20070000E+02 -0.79073E+05
 0.20119999E+02 -0.86393E+05
 0.20170002E+02 -0.91044E+05
 0.20220001E+02 -0.91273E+05
 0.20270000E+02 -0.87391E+05
 0.20320000E+02 -0.80906E+05
 0.20369999E+02 -0.73469E+05
 0.20420002E+02 -0.66424E+05
 0.20470001E+02 -0.60555E+05
 0.20520000E+02 -0.56763E+05
 0.20570000E+02 -0.54817E+05
 0.20619999E+02 -0.53806E+05
 0.20670002E+02 -0.52968E+05
 0.20720001E+02 -0.52560E+05
 0.20770000E+02 -0.53260E+05
 0.20820000E+02 -0.53879E+05
 0.20869999E+02 -0.53561E+05
 0.20920002E+02 -0.52466E+05
 0.20970001E+02 -0.50582E+05
 0.21020000E+02 -0.47649E+05
 0.21070000E+02 -0.43680E+05
 0.21119999E+02 -0.38716E+05
 0.21170002E+02 -0.32056E+05
 0.21220001E+02 -0.23178E+05
 0.21270000E+02 -0.12982E+05
 0.21320000E+02 -0.34430E+04
 0.21369999E+02  0.40200E+04
 0.21420002E+02  0.86630E+04
 0.21470001E+02  0.10324E+05
 0.21520000E+02  0.95300E+04
 0.21570000E+02  0.67430E+04
 0.21619999E+02  0.23940E+04
 0.21670002E+02 -0.15350E+04
 0.21720001E+02 -0.25020E+04
 0.21770000E+02 -0.10000E+03
 0.21820000E+02  0.40240E+04
 0.21869999E+02  0.85740E+04
 0.21920002E+02  0.13734E+05
 0.21970001E+02  0.20062E+05
 0.22020000E+02  0.28149E+05
 0.22070000E+02  0.37423E+05
 0.22119999E+02  0.46695E+05
 0.22170002E+02  0.55006E+05
 0.22220001E+02  0.60771E+05
 0.22270000E+02  0.63405E+05
 0.22320000E+02  0.63882E+05
 0.22369999E+02  0.62897E+05
 0.22420002E+02  0.59919E+05
 0.22470001E+02  0.54262E+05
 0.22520000E+02  0.45637E+05
 0.22570000E+02  0.34708E+05
 0.22619999E+02  0.23395E+05
 0.22670002E+02  0.12455E+05
 0.22720001E+02  0.17630E+04
 0.22770000E+02 -0.76350E+04
 0.22820000E+02 -0.14609E+05
 0.22869999E+02 -0.18606E+05
 0.22920002E+02 -0.19083E+05
 0.22970001E+02 -0.16248E+05
 0.23020000E+02 -0.11187E+05
 0.23070000E+02 -0.43210E+04
 0.23119999E+02  0.48710E+04
 0.23170002E+02  0.16335E+05
 0.23220001E+02  0.29760E+05
 0.23270000E+02  0.44785E+05
 0.23320000E+02  0.59777E+05
 0.23369999E+02  0.72429E+05
 0.23420002E+02  0.81374E+05
 0.23470001E+02  0.86211E+05
 0.23520000E+02  0.86310E+05
 0.23570000E+02  0.82094E+05
 0.23619999E+02  0.74604E+05
 0.23670002E+02  0.63454E+05
 0.23720001E+02  0.48584E+05
 0.23770000E+02  0.30707E+05
 0.23820000E+02  0.10163E+05
 0.23869999E+02 -0.11907E+05
 0.23920002E+02 -0.33415E+05
 0.23970001E+02 -0.52367E+05
 0.24020000E+02 -0.67755E+05
 0.24070000E+02 -0.78597E+05
 0.24119999E+02 -0.83800E+05
 0.24170002E+02 -0.84347E+05
 0.24220001E+02 -0.80360E+05
 0.24270000E+02 -0.71925E+05
 0.24320000E+02 -0.60217E+05
 0.24369999E+02 -0.45589E+05
 0.24420002E+02 -0.28073E+05
 0.24470001E+02 -0.72930E+04
 0.24520000E+02  0.14866E+05
 0.24570000E+02  0.36845E+05
 0.24619999E+02  0.57209E+05
 0.24670002E+02  0.73522E+05
 0.24720001E+02  0.85017E+05
 0.24770000E+02  0.90122E+05
 0.24820000E+02  0.87916E+05
 0.24869999E+02  0.79166E+05
 0.24920002E+02  0.64976E+05
 0.24970001E+02  0.46844E+05
 0.25020000E+02  0.25410E+05
 0.25070000E+02  0.47200E+03
 0.25119999E+02 -0.26279E+05
 0.25170002E+02 -0.51468E+05
 0.25220001E+02 -0.72798E+05
 0.25270000E+02 -0.87958E+05
 0.25320000E+02 -0.95409E+05
 0.25369999E+02 -0.95301E+05
 0.25420002E+02 -0.88244E+05
 0.25470001E+02 -0.75985E+05
 0.25520000E+02 -0.59529E+05
 0.25570000E+02 -0.39273E+05
 0.25619999E+02 -0.17119E+05
 0.25670002E+02  0.43970E+04
 0.25720001E+02  0.23361E+05
 0.25770000E+02  0.38038E+05
 0.25820000E+02  0.46829E+05
 0.25869999E+02  0.49829E+05
 0.25920002E+02  0.48259E+05
 0.25970001E+02  0.43509E+05
 0.26020000E+02  0.36125E+05
 0.26070000E+02  0.26447E+05
 0.26119999E+02  0.15774E+05
 0.26170002E+02  0.58700E+04
 0.26220001E+02 -0.20890E+04
 0.26270000E+02 -0.87940E+04
 0.26320000E+02 -0.14528E+05
 0.26369999E+02 -0.18892E+05
 0.26420002E+02 -0.21211E+05
 0.26470001E+02 -0.19940E+05
 0.26520000E+02 -0.14626E+05
 0.26570000E+02 -0.60220E+04
 0.26619999E+02  0.44620E+04
 0.26670002E+02  0.14762E+05
 0.26720001E+02  0.22971E+05
 0.26770000E+02  0.27982E+05
 0.26820000E+02  0.28988E+05
 0.26869999E+02  0.25669E+05
 0.26920002E+02  0.18077E+05
 0.26970001E+02  0.69350E+04
 0.27020000E+02 -0.60570E+04
 0.27070000E+02 -0.19983E+05
 0.27119999E+02 -0.34491E+05
 0.27170002E+02 -0.49679E+05
 0.27220001E+02 -0.64775E+05
 0.27270000E+02 -0.77286E+05
 0.27320000E+02 -0.86332E+05
 0.27369999E+02 -0.91793E+05
 0.27420002E+02 -0.93843E+05
 0.27470001E+02 -0.93039E+05
 0.27520000E+02 -0.88460E+05
 0.27570000E+02 -0.80066E+05
 0.27619999E+02 -0.68713E+05
 0.27670002E+02 -0.55314E+05
 0.27720001E+02 -0.40807E+05
 0.27770000E+02 -0.25079E+05
 0.27820000E+02 -0.83960E+04
 0.27869999E+02  0.85500E+04
 0.27920002E+02  0.25211E+05
 0.27970001E+02  0.40076E+05
 0.28020000E+02  0.51967E+05
 0.28070000E+02  0.60807E+05
 0.28119999E+02  0.66332E+05
 0.28169998E+02  0.69015E+05
 0.28220001E+02  0.69150E+05
 0.28270000E+02  0.67011E+05
 0.28320000E+02  0.63575E+05
 0.28369999E+02  0.59026E+05
 0.28419998E+02  0.53288E+05
 0.28470001E+02  0.45515E+05
 0.28520000E+02  0.35448E+05
 0.28570000E+02  0.23918E+05
 0.28619999E+02  0.10790E+05
 0.28669998E+02 -0.39190E+04
 0.28720001E+02 -0.18760E+05
 0.28770000E+02 -0.32418E+05
 0.28820000E+02 -0.44831E+05
 0.28869999E+02 -0.55605E+05
 0.28919998E+02 -0.64101E+05
 0.28970001E+02 -0.69628E+05
 0.29020000E+02 -0.70808E+05
 0.29070000E+02 -0.68203E+05
 0.29119999E+02 -0.63768E+05
 0.29169998E+02 -0.58135E+05
 0.29220001E+02 -0.51595E+05
 0.29270000E+02 -0.44118E+05
 0.29320000E+02 -0.35264E+05
 0.29369999E+02 -0.25157E+05
 0.29419998E+02 -0.15136E+05
 0.29470001E+02 -0.57280E+04
 0.29520000E+02  0.28640E+04
 0.29570000E+02  0.99340E+04
 0.29619999E+02  0.16685E+05
 0.29669998E+02  0.23756E+05
 0.29720001E+02  0.31613E+05
 0.29770000E+02  0.40140E+05
 0.29820000E+02  0.47764E+05
 0.29869999E+02  0.54368E+05
 0.29919998E+02  0.60601E+05
 0.29970001E+02  0.66993E+05
 0.30020000E+02  0.72547E+05
 0.30070000E+02  0.77112E+05
 0.30119999E+02  0.82027E+05
 0.30169998E+02  0.85824E+05
 0.30220001E+02  0.88042E+05
 0.30270000E+02  0.89006E+05
 0.30320000E+02  0.87349E+05
 0.30369999E+02  0.83893E+05
 0.30419998E+02  0.78679E+05
 0.30470001E+02  0.71213E+05
 0.30520000E+02  0.62202E+05
 0.30570000E+02  0.51405E+05
 0.30619999E+02  0.39780E+05
 0.30669998E+02  0.29910E+05
 0.30720001E+02  0.23425E+05
 0.30770000E+02  0.14593E+05
 0.30820000E+02 -0.79030E+04
 0.30869999E+02 -0.46491E+05
 0.30919998E+02 -0.96271E+05
 0.30970001E+02 -0.13620E+06
 0.31020000E+02 -0.12123E+06
 0.31070000E+02 -0.30659E+05
 0.31119999E+02  0.63774E+05
 0.31169998E+02  0.49539E+05
 0.31220001E+02 -0.44066E+05
 0.31270000E+02 -0.11620E+06
 0.31320000E+02 -0.10509E+06
 0.31369999E+02 -0.59666E+05
 0.31419998E+02 -0.64919E+05
 0.31470001E+02 -0.17962E+06
 0.31520000E+02 -0.42949E+06
 0.31570000E+02 -0.57065E+06
 0.31619999E+02 -0.52370E+06
 0.31669998E+02 -0.26106E+06
 0.31720001E+02  0.75146E+05
 0.31770000E+02  0.16782E+06
 0.31820000E+02  0.16521E+06
 0.31869999E+02  0.24651E+05
 0.31919998E+02 -0.11385E+06
 0.31970001E+02 -0.45979E+05
 0.32020000E+02 -0.41797E+05
 0.32070000E+02 -0.66596E+05
 0.32119999E+02 -0.94496E+05
 0.32169998E+02 -0.20815E+06
 0.32220001E+02 -0.38232E+06
 0.32270000E+02 -0.50774E+06
 0.32320000E+02 -0.36127E+06
 0.32369999E+02 -0.26204E+05
 0.32419998E+02  0.31709E+06
 0.32470001E+02  0.54022E+06
 0.32520000E+02  0.65206E+06
 0.32570000E+02  0.68817E+06
 0.32619999E+02  0.66624E+06
 0.32669998E+02  0.71689E+06
 0.32720001E+02  0.72912E+06
 0.32770000E+02  0.51977E+06
 0.32820000E+02  0.11336E+06
 0.32869999E+02 -0.16913E+06
 0.32919998E+02 -0.26518E+06
 0.32970001E+02 -0.21681E+06
 0.33020000E+02 -0.42260E+04
 0.33070000E+02  0.42308E+05
 0.33119999E+02 -0.87446E+05
 0.33169998E+02 -0.60481E+05
 0.33220001E+02  0.23181E+05
 0.33270000E+02  0.46760E+04
 0.33320000E+02 -0.15248E+06
 0.33369999E+02 -0.30923E+06
 0.33419998E+02 -0.28404E+06
 0.33470001E+02 -0.28065E+06
 0.33520000E+02  0.93939E+05
 0.33570000E+02  0.29807E+06
 0.33619999E+02 -0.13480E+05
 0.33669998E+02 -0.13356E+06
 0.33720001E+02 -0.43753E+06
 0.33770000E+02 -0.52185E+06
 0.33820000E+02 -0.35740E+06
 0.33869999E+02 -0.26536E+06
 0.33919998E+02 -0.48156E+05
 0.33970001E+02 -0.96167E+05
 0.34020000E+02 -0.14057E+06
 0.34070000E+02 -0.89910E+05
 0.34119999E+02 -0.52074E+05
 0.34169998E+02  0.18002E+06
 0.34220001E+02  0.18896E+06
 0.34270000E+02 -0.55465E+05
 0.34320000E+02 -0.17866E+05
 0.34369999E+02  0.40522E+05
 0.34419998E+02  0.37042E+05
 0.34470001E+02  0.26410E+06
 0.34520000E+02  0.18367E+06
 0.34570000E+02 -0.42990E+04
 0.34619999E+02  0.80781E+05
 0.34669998E+02  0.22348E+06
 0.34720001E+02  0.34063E+06
 0.34770000E+02  0.12398E+06
 0.34820000E+02 -0.89372E+05
 0.34869999E+02 -0.23634E+06
 0.34919998E+02 -0.42003E+06
 0.34970001E+02 -0.45638E+06
 0.35020000E+02 -0.42107E+06
 0.35070000E+02 -0.17034E+06
 0.35119999E+02 -0.69107E+05
 0.35169998E+02 -0.23763E+06
 0.35220001E+02 -0.34969E+06
 0.35270000E+02 -0.18157E+06
 0.35320000E+02  0.30624E+06
 0.35369999E+02  0.40956E+06
 0.35419998E+02  0.11742E+06
 0.35470001E+02 -0.10892E+06
 0.35520000E+02 -0.22454E+06
 0.35570000E+02  0.20841E+06
 0.35619999E+02  0.82493E+06
 0.35669998E+02  0.11005E+07
 0.35720001E+02  0.10658E+07
 0.35770000E+02  0.73875E+06
 0.35820000E+02  0.70725E+06
 0.35869999E+02  0.87230E+06
 0.35919998E+02  0.97873E+06
 0.35970001E+02  0.95209E+06
 0.36020000E+02  0.63588E+06
 0.36070000E+02  0.25828E+06
 0.36119999E+02 -0.48830E+06
 0.36169998E+02 -0.10815E+07
 0.36220001E+02 -0.11262E+07
 0.36270000E+02 -0.15143E+07
 0.36320000E+02 -0.20033E+07
 0.36369999E+02 -0.19713E+07
 0.36419998E+02 -0.16843E+07
 0.36470001E+02 -0.13372E+07
 0.36520000E+02 -0.67012E+06
 0.36570000E+02  0.49523E+05
 0.36619999E+02  0.43528E+06
 0.36669998E+02  0.81199E+06
 0.36720001E+02  0.12768E+07
 0.36770000E+02  0.16695E+07
 0.36820000E+02  0.17639E+07
 0.36869999E+02  0.16496E+07
 0.36919998E+02  0.13166E+07
 0.36970001E+02  0.76406E+06
 0.37020000E+02  0.36690E+06
 0.37070000E+02  0.10175E+06
 0.37119999E+02 -0.21080E+06
 0.37169998E+02 -0.80241E+06
 0.37220001E+02 -0.11147E+07
 0.37270000E+02 -0.79643E+06
 0.37320000E+02 -0.36742E+06
 0.37369999E+02 -0.72223E+05
 0.37419998E+02  0.10868E+06
 0.37470001E+02  0.26576E+06
 0.37520000E+02  0.98937E+05
 0.37570000E+02 -0.25781E+06
 0.37619999E+02 -0.55141E+06
 0.37669998E+02 -0.69279E+06
 0.37720001E+02 -0.38708E+06
 0.37770000E+02 -0.42282E+05
 0.37820000E+02  0.26117E+05
 0.37869999E+02  0.81598E+05
 0.37919998E+02 -0.25890E+06
 0.37970001E+02 -0.10437E+07
 0.38020000E+02 -0.12469E+07
 0.38070000E+02 -0.75490E+06
 0.38119999E+02 -0.46887E+06
 0.38169998E+02 -0.54870E+06
 0.38220001E+02 -0.14177E+06
 0.38270000E+02  0.38689E+06
 0.38320000E+02  0.43043E+06
 0.38369999E+02  0.73509E+06
 0.38419998E+02  0.95523E+06
 0.38470001E+02  0.64871E+06
 0.38520000E+02  0.15080E+06
 0.38570000E+02 -0.25284E+06
 0.38619999E+02 -0.25050E+06
 0.38669998E+02 -0.25288E+06
 0.38720001E+02 -0.24376E+06
 0.38770000E+02 -0.61138E+05
 0.38820000E+02 -0.17335E+05
 0.38869999E+02  0.61556E+05
 0.38919998E+02  0.40283E+06
 0.38970001E+02  0.92367E+06
 0.39020000E+02  0.10894E+07
 0.39070000E+02  0.90198E+06
 0.39119999E+02  0.62747E+06
 0.39169998E+02  0.38268E+06
 0.39220001E+02  0.34636E+06
 0.39270000E+02  0.41516E+06
 0.39320000E+02  0.69222E+06
 0.39369999E+02  0.80334E+06
 0.39419998E+02  0.70488E+06
 0.39470001E+02  0.68961E+06
 0.39520000E+02  0.68076E+06
 0.39570000E+02  0.67006E+06
 0.39619999E+02  0.46037E+06
 0.39669998E+02  0.20559E+06
 0.39720001E+02 -0.18092E+06
 0.39770000E+02 -0.67366E+06
 0.39820000E+02 -0.67717E+06
 0.39869999E+02 -0.31329E+06
 0.39919998E+02 -0.18551E+05
 0.39970001E+02 -0.63168E+05
 0.40020000E+02 -0.28612E+06
 0.40070000E+02 -0.34044E+06
 0.40119999E+02 -0.53944E+06
 0.40169998E+02 -0.73321E+06
 0.40220001E+02 -0.71229E+06
 0.40270000E+02 -0.92106E+06
 0.40320000E+02 -0.11389E+07
 0.40369999E+02 -0.11281E+07
 0.40419998E+02 -0.96362E+06
 0.40470001E+02 -0.69665E+06
 0.40520000E+02 -0.48292E+06
 0.40570000E+02 -0.24602E+06
 0.40619999E+02 -0.19066E+06
 0.40669998E+02 -0.19557E+06
 0.40720001E+02  0.86838E+05
 0.40770000E+02  0.26533E+06
 0.40820000E+02  0.24996E+06
 0.40869999E+02  0.40139E+06
 0.40919998E+02  0.72524E+06
 0.40970001E+02  0.74443E+06
 0.41020000E+02  0.52468E+06
 0.41070000E+02  0.65416E+06
 0.41119999E+02  0.87053E+06
 0.41169998E+02  0.82542E+06
 0.41220001E+02  0.66572E+06
 0.41270000E+02  0.48630E+06
 0.41320000E+02  0.17918E+06
 0.41369999E+02 -0.26226E+06
 0.41419998E+02 -0.40337E+06
 0.41470001E+02 -0.21314E+06
 0.41520000E+02 -0.12016E+06
 0.41570000E+02 -0.18915E+06
 0.41619999E+02 -0.63962E+05
 0.41669998E+02  0.21627E+06
 0.41720001E+02  0.28498E+06
 0.41770000E+02  0.34031E+06
 0.41820000E+02  0.41776E+06
 0.41869999E+02  0.36720E+06
 0.41919998E+02  0.28529E+06
 0.41970001E+02  0.12946E+06
 0.42020000E+02 -0.99399E+05
 0.42070000E+02 -0.23828E+06
 0.42119999E+02 -0.33033E+06
 0.42169998E+02 -0.44291E+06
 0.42220001E+02 -0.36876E+06
 0.42270000E+02 -0.17688E+06
 0.42320000E+02 -0.57450E+04
 0.42369999E+02  0.15693E+06
 0.42419998E+02  0.23674E+06
 0.42470001E+02  0.17276E+06
 0.42520000E+02  0.41429E+05
 0.42570000E+02 -0.67970E+05
 0.42619999E+02 -0.13532E+06
 0.42669998E+02 -0.50955E+05
 0.42720001E+02 -0.66142E+05
 0.42770000E+02 -0.21688E+06
 0.42820000E+02 -0.25297E+06
 0.42869999E+02 -0.26478E+06
 0.42919998E+02 -0.12758E+06
 0.42970001E+02  0.10091E+06
 0.43020000E+02  0.17845E+06
 0.43070000E+02  0.16424E+06
 0.43119999E+02  0.88509E+05
 0.43169998E+02 -0.85210E+05
 0.43220001E+02 -0.34027E+06
 0.43270000E+02 -0.52233E+06
 0.43320000E+02 -0.58346E+06
 0.43369999E+02 -0.71182E+06
 0.43419998E+02 -0.85713E+06
 0.43470001E+02 -0.88078E+06
 0.43520000E+02 -0.86872E+06
 0.43570000E+02 -0.81063E+06
 0.43619999E+02 -0.50546E+06
 0.43669998E+02 -0.10175E+06
 0.43720001E+02  0.41569E+05
 0.43770000E+02  0.93128E+05
 0.43820000E+02  0.29714E+06
 0.43869999E+02  0.59399E+06
 0.43919998E+02  0.82349E+06
 0.43970001E+02  0.82263E+06
 0.44020000E+02  0.67877E+06
 0.44070000E+02  0.57066E+06
 0.44119999E+02  0.44556E+06
 0.44169998E+02  0.21476E+06
 0.44220001E+02 -0.23096E+05
 0.44270000E+02 -0.13477E+06
 0.44320000E+02 -0.13110E+06
 0.44369999E+02 -0.17485E+06
 0.44419998E+02 -0.23805E+06
 0.44470001E+02 -0.79777E+05
 0.44520000E+02  0.32205E+06
 0.44570000E+02  0.77902E+06
 0.44619999E+02  0.89013E+06
 0.44669998E+02  0.54405E+06
 0.44720001E+02  0.24411E+06
 0.44770000E+02  0.30493E+06
 0.44820000E+02  0.61878E+06
 0.44869999E+02  0.73777E+06
 0.44919998E+02  0.37234E+06
 0.44970001E+02 -0.14836E+06
 0.45020000E+02 -0.43472E+06
 0.45070000E+02 -0.39290E+06
 0.45119999E+02 -0.31639E+06
 0.45169998E+02 -0.44106E+06
 0.45220001E+02 -0.59073E+06
 0.45270000E+02 -0.49916E+06
 0.45320000E+02 -0.19158E+06
 0.45369999E+02  0.47008E+05
 0.45419998E+02  0.20836E+06
 0.45470001E+02  0.33305E+06
 0.45520000E+02  0.30954E+06
 0.45570000E+02  0.18343E+06
 0.45619999E+02  0.30982E+05
 0.45669998E+02 -0.14992E+06
 0.45720001E+02 -0.43306E+06
 0.45770000E+02 -0.68626E+06
 0.45820000E+02 -0.55460E+06
 0.45869999E+02 -0.28776E+06
 0.45919998E+02 -0.27546E+06
 0.45970001E+02 -0.32078E+06
 0.46020000E+02 -0.29357E+06
 0.46070000E+02 -0.18940E+06
 0.46119999E+02 -0.71177E+05
 0.46169998E+02 -0.23883E+05
 0.46220001E+02  0.58620E+05
 0.46270000E+02  0.12479E+06
 0.46320000E+02  0.17684E+06
 0.46369999E+02  0.28812E+06
 0.46419998E+02  0.35944E+06
 0.46470001E+02  0.34964E+06
 0.46520000E+02  0.20070E+06
 0.46570000E+02  0.13016E+06
 0.46619999E+02  0.85542E+05
 0.46669998E+02 -0.15791E+06
 0.46720001E+02 -0.23483E+06
 0.46770000E+02 -0.98070E+05
 0.46820000E+02  0.45304E+05
 0.46869999E+02 -0.45213E+05
 0.46919998E+02 -0.36006E+06
 0.46970001E+02 -0.39921E+06
 0.47020000E+02 -0.17090E+06
 0.47070000E+02  0.17173E+05
 0.47119999E+02  0.14092E+06
 0.47169998E+02  0.19663E+06
 0.47220001E+02  0.21046E+06
 0.47270000E+02  0.33494E+06
 0.47320000E+02  0.63970E+06
 0.47369999E+02  0.89126E+06
 0.47419998E+02  0.88923E+06
 0.47470001E+02  0.81954E+06
 0.47520000E+02  0.66375E+06
 0.47570000E+02  0.32295E+06
 0.47619999E+02  0.95318E+05
 0.47669998E+02  0.92483E+05
 0.47720001E+02  0.39997E+05
 0.47770000E+02 -0.14451E+06
 0.47820000E+02 -0.20937E+06
 0.47869999E+02 -0.17630E+06
 0.47919998E+02 -0.14686E+06
 0.47970001E+02 -0.71437E+05
 0.48020000E+02  0.62340E+04
 0.48070000E+02  0.78278E+05
 0.48119999E+02  0.68411E+05
 0.48169998E+02 -0.28410E+05
 0.48220001E+02 -0.19398E+06
 0.48270000E+02 -0.37754E+06
 0.48320000E+02 -0.43724E+06
 0.48369999E+02 -0.44537E+06
 0.48419998E+02 -0.43539E+06
 0.48470001E+02 -0.40906E+06
 0.48520000E+02 -0.37526E+06
 0.48570000E+02 -0.23805E+06
 0.48619999E+02 -0.48874E+05
 0.48669998E+02  0.19323E+05
 0.48720001E+02 -0.26658E+05
 0.48770000E+02  0.17588E+05
 0.48820000E+02  0.14377E+06
 0.48869999E+02  0.14517E+06
 0.48919998E+02 -0.44410E+05
 0.48970001E+02 -0.38763E+06
 0.49020000E+02 -0.59536E+06
 0.49070000E+02 -0.53358E+06
 0.49119999E+02 -0.45568E+06
 0.49169998E+02 -0.37645E+06
 0.49220001E+02 -0.24301E+06
 0.49270000E+02 -0.82263E+05
 0.49320000E+02  0.27757E+05
 0.49369999E+02  0.16496E+06
 0.49419998E+02  0.35789E+06
 0.49470001E+02  0.34595E+06
 0.49520000E+02  0.12498E+06
 0.49570000E+02 -0.35886E+05
 0.49619999E+02  0.10091E+06
 0.49669998E+02  0.22761E+06
 0.49720001E+02  0.13798E+06
 0.49770000E+02  0.77745E+05
 0.49820000E+02  0.11116E+06
 0.49869999E+02  0.18718E+06
 0.49919998E+02  0.19942E+06
 0.49970001E+02  0.19591E+06
 0.50020000E+02  0.20865E+06
 0.50070000E+02  0.25789E+06
 0.50119999E+02  0.41771E+06
 0.50169998E+02  0.55312E+06
 0.50220001E+02  0.41024E+06
 0.50270000E+02 -0.59323E+05
 0.50320000E+02 -0.42525E+06
 0.50369999E+02 -0.41063E+06
 0.50419998E+02 -0.20433E+06
 0.50470001E+02 -0.14327E+05
 0.50520000E+02 -0.79555E+05
 0.50570000E+02 -0.40104E+06
 0.50619999E+02 -0.58385E+06
 0.50669998E+02 -0.45575E+06
 0.50720001E+02 -0.17000E+06
 0.50770000E+02  0.93824E+05
 0.50820000E+02  0.10176E+06
 0.50869999E+02 -0.13604E+06
 0.50919998E+02 -0.30959E+06
 0.50970001E+02 -0.49010E+06
 0.51020000E+02 -0.74439E+06
 0.51070000E+02 -0.81714E+06
 0.51119999E+02 -0.68872E+06
 0.51169998E+02 -0.41408E+06
 0.51220001E+02 -0.41980E+04
 0.51270000E+02  0.41595E+06
 0.51320000E+02  0.57140E+06
 0.51369999E+02  0.46121E+06
 0.51419998E+02  0.41243E+06
 0.51470001E+02  0.53036E+06
 0.51520000E+02  0.59384E+06
 0.51570000E+02  0.38914E+06
 0.51619999E+02  0.15832E+06
 0.51669998E+02  0.51820E+05
 0.51720001E+02 -0.72864E+05
 0.51770000E+02 -0.54160E+05
 0.51820000E+02  0.36766E+05
 0.51869999E+02 -0.44859E+05
 0.51919998E+02 -0.97304E+05
 0.51970001E+02  0.33777E+05
 0.52020000E+02  0.17618E+06
 0.52070000E+02  0.16039E+06
 0.52119999E+02  0.19627E+06
 0.52169998E+02  0.32512E+06
 0.52220001E+02  0.27285E+06
 0.52270000E+02  0.11928E+06
 0.52320000E+02 -0.10224E+06
 0.52369999E+02 -0.36831E+06
 0.52419998E+02 -0.53613E+06
 0.52470001E+02 -0.52980E+06
 0.52520000E+02 -0.36494E+06
 0.52570000E+02 -0.20686E+06
 0.52619999E+02 -0.10327E+06
 0.52669998E+02 -0.13233E+06
 0.52720001E+02 -0.15383E+06
 0.52770000E+02  0.71694E+05
 0.52820000E+02  0.33475E+06
 0.52869999E+02  0.39502E+06
 0.52919998E+02  0.29563E+06
 0.52970001E+02  0.15446E+06
 0.53020000E+02  0.31361E+05
 0.53070000E+02 -0.41604E+05
 0.53119999E+02 -0.13868E+06
 0.53169998E+02 -0.32800E+06
 0.53220001E+02 -0.57095E+06
 0.53270000E+02 -0.66934E+06
 0.53320000E+02 -0.62631E+06
 0.53369999E+02 -0.61744E+06
 0.53419998E+02 -0.48592E+06
 0.53470001E+02 -0.22831E+06
 0.53520000E+02 -0.17978E+06
 0.53570000E+02 -0.37101E+06
 0.53619999E+02 -0.35486E+06
 0.53669998E+02 -0.17644E+06
 0.53720001E+02 -0.24310E+06
 0.53770000E+02 -0.35375E+06
 0.53820000E+02 -0.22338E+06
 0.53869999E+02 -0.79120E+04
 0.53919998E+02  0.54324E+05
 0.53970001E+02 -0.26178E+05
 0.54020000E+02 -0.99142E+05
 0.54070000E+02 -0.76750E+05
 0.54119999E+02  0.36745E+05
 0.54169998E+02  0.96941E+05
 0.54220001E+02 -0.19602E+06
 0.54270000E+02 -0.67942E+06
 0.54320000E+02 -0.10985E+07
 0.54369999E+02 -0.13966E+07
 0.54419998E+02 -0.13317E+07
 0.54470001E+02 -0.97618E+06
 0.54520000E+02 -0.46898E+06
 0.54570000E+02 -0.11999E+06
 0.54619999E+02 -0.17818E+05
 0.54669998E+02  0.15896E+06
 0.54720001E+02  0.37984E+06
 0.54770000E+02  0.63376E+06
 0.54820000E+02  0.71982E+06
 0.54869999E+02  0.55083E+06
 0.54919998E+02  0.34772E+06
 0.54970001E+02  0.55832E+05
 0.55020000E+02 -0.27380E+06
 0.55070000E+02 -0.48480E+06
 0.55119999E+02 -0.31894E+06
 0.55169998E+02  0.19698E+06
 0.55220001E+02  0.50856E+06
 0.55270000E+02  0.34206E+06
 0.55320000E+02 -0.20616E+06
 0.55369999E+02 -0.51986E+06
 0.55419998E+02 -0.27130E+05
 0.55470001E+02  0.86292E+06
 0.55520000E+02  0.14543E+07
 0.55570000E+02  0.15295E+07
 0.55619999E+02  0.12226E+07
 0.55669998E+02  0.52730E+06
 0.55720001E+02 -0.46354E+06
 0.55770000E+02 -0.13768E+07
 0.55820000E+02 -0.17706E+07
 0.55869999E+02 -0.13847E+07
 0.55919998E+02 -0.74096E+06
 0.55970001E+02 -0.10041E+06
 0.56020000E+02  0.48372E+06
 0.56070000E+02  0.44058E+06
 0.56119999E+02  0.19392E+06
 0.56169998E+02  0.28950E+06
 0.56220001E+02  0.35756E+06
 0.56270000E+02 -0.26475E+05
 0.56320000E+02 -0.48624E+06
 0.56369999E+02 -0.17843E+06
 0.56419998E+02  0.34755E+06
 0.56470001E+02  0.33636E+06
 0.56520000E+02  0.30228E+06
 0.56570000E+02  0.94840E+06
 0.56619999E+02  0.16185E+07
 0.56669998E+02  0.13266E+07
 0.56720001E+02  0.96252E+06
 0.56770000E+02  0.10420E+07
 0.56820000E+02  0.65141E+06
 0.56869999E+02 -0.45518E+06
 0.56919998E+02 -0.13300E+07
 0.56970001E+02 -0.98257E+06
 0.57020000E+02  0.19459E+06
 0.57070000E+02  0.98259E+06
 0.57119999E+02  0.78839E+06
 0.57169998E+02  0.13254E+05
 0.57220001E+02 -0.39376E+06
 0.57270000E+02 -0.32129E+06
 0.57320000E+02 -0.38863E+06
 0.57369999E+02 -0.27019E+06
 0.57419998E+02 -0.13596E+06
 0.57470001E+02 -0.78020E+06
 0.57520000E+02 -0.16583E+07
 0.57570000E+02 -0.21089E+07
 0.57619999E+02 -0.17495E+07
 0.57669998E+02 -0.82190E+06
 0.57720001E+02 -0.51660E+06
 0.57770000E+02 -0.27459E+06
 0.57820000E+02  0.73498E+06
 0.57869999E+02  0.13728E+07
 0.57919998E+02  0.83798E+06
 0.57970001E+02 -0.47085E+06
 0.58020000E+02 -0.11927E+07
 0.58070000E+02 -0.72085E+06
 0.58119999E+02  0.24003E+06
 0.58169998E+02  0.94682E+06
 0.58220001E+02  0.10465E+07
 0.58270000E+02  0.91230E+06
 0.58320000E+02  0.58715E+06
 0.58369999E+02 -0.23083E+06
 0.58419998E+02 -0.11671E+07
 0.58470001E+02 -0.14115E+07
 0.58520000E+02 -0.91536E+06
 0.58570000E+02 -0.24493E+06
 0.58619999E+02  0.53190E+04
 0.58669998E+02 -0.22600E+06
 0.58720001E+02 -0.87541E+05
 0.58770000E+02  0.58556E+06
 0.58820000E+02  0.85052E+06
 0.58869999E+02  0.42428E+06
 0.58919998E+02  0.12031E+06
 0.58970001E+02  0.66258E+05
 0.59020000E+02 -0.22906E+06
 0.59070000E+02 -0.41594E+06
 0.59119999E+02 -0.18405E+05
 0.59169998E+02  0.57149E+06
 0.59220001E+02  0.77949E+06
 0.59270000E+02  0.31038E+06
 0.59320000E+02 -0.55614E+05
 0.59369999E+02  0.39006E+06
 0.59419998E+02  0.87134E+06
 0.59470001E+02  0.13244E+07
 0.59520000E+02  0.19894E+07
 0.59570000E+02  0.25316E+07
 0.59619999E+02  0.25051E+07
 0.59669998E+02  0.19567E+07
 0.59720001E+02  0.15945E+07
 0.59770000E+02  0.16050E+07
 0.59820000E+02  0.17904E+07
 0.59869999E+02  0.14955E+07
 0.59919998E+02  0.84479E+06
 0.59970001E+02  0.34030E+06
 0.60020000E+02 -0.32892E+06
 0.60070000E+02 -0.70077E+06
 0.60119999E+02 -0.67380E+06
 0.60170002E+02 -0.56611E+06
 0.60219997E+02 -0.17304E+06
 0.60270000E+02 -0.61069E+05
 0.60320004E+02 -0.68790E+06
 0.60369999E+02 -0.13714E+07
 0.60420002E+02 -0.14925E+07
 0.60469997E+02 -0.12628E+07
 0.60520000E+02 -0.65322E+06
 0.60570004E+02  0.11143E+06
 0.60619999E+02  0.96067E+05
 0.60670002E+02 -0.23941E+06
 0.60719997E+02 -0.11078E+06
 0.60770000E+02  0.16286E+06
 0.60820004E+02  0.47663E+06
 0.60869999E+02  0.84457E+06
 0.60920002E+02  0.88442E+06
 0.60969997E+02  0.23501E+06
 0.61020000E+02 -0.89486E+06
 0.61070004E+02 -0.18378E+07
 0.61119999E+02 -0.20788E+07
 0.61170002E+02 -0.15756E+07
 0.61219997E+02 -0.38948E+06
 0.61270000E+02  0.11509E+07
 0.61320004E+02  0.19784E+07
 0.61369999E+02  0.15073E+07
 0.61420002E+02  0.42014E+06
 0.61469997E+02 -0.11310E+06
 0.61520000E+02  0.43278E+05
 0.61570004E+02  0.27698E+06
 0.61619999E+02  0.64753E+06
 0.61670002E+02  0.11344E+07
 0.61719997E+02  0.13753E+07
 0.61770000E+02  0.12215E+07
 0.61820004E+02  0.85274E+06
 0.61869999E+02  0.77499E+06
 0.61920002E+02  0.93663E+06
 0.61969997E+02  0.78581E+06
 0.62020000E+02  0.44844E+06
 0.62070004E+02  0.29437E+06
 0.62119999E+02  0.23087E+06
 0.62170002E+02 -0.26877E+05
 0.62219997E+02 -0.47647E+06
 0.62270000E+02 -0.79052E+06
 0.62320004E+02 -0.10622E+07
 0.62369999E+02 -0.15817E+07
 0.62420002E+02 -0.18778E+07
 0.62469997E+02 -0.14682E+07
 0.62520000E+02 -0.10731E+07
 0.62570004E+02 -0.13079E+07
 0.62619999E+02 -0.18015E+07
 0.62670002E+02 -0.21664E+07
 0.62719997E+02 -0.21453E+07
 0.62770000E+02 -0.18050E+07
 0.62820004E+02 -0.12326E+07
 0.62869999E+02 -0.40621E+06
 0.62920002E+02  0.21240E+06
 0.62969997E+02  0.46719E+06
 0.63020000E+02  0.42665E+06
 0.63070004E+02  0.46493E+05
 0.63119999E+02 -0.42042E+06
 0.63170002E+02 -0.64852E+06
 0.63219997E+02 -0.42324E+06
 0.63270000E+02 -0.23121E+05
 0.63320004E+02  0.19668E+06
 0.63369999E+02  0.41109E+06
 0.63420002E+02  0.88628E+06
 0.63469997E+02  0.14375E+07
 0.63520000E+02  0.16580E+07
 0.63570004E+02  0.15611E+07
 0.63619999E+02  0.12702E+07
 0.63670002E+02  0.88899E+06
 0.63719997E+02  0.73670E+06
 0.63770000E+02  0.79490E+06
 0.63820004E+02  0.81575E+06
 0.63869999E+02  0.80460E+06
 0.63920002E+02  0.71012E+06
 0.63969997E+02  0.55328E+06
 0.64020004E+02  0.43352E+06
 0.64070007E+02  0.39311E+06
 0.64120003E+02  0.49649E+06
 0.64170006E+02  0.35126E+06
 0.64220001E+02 -0.60532E+05
 0.64270004E+02 -0.14538E+06
 0.64320007E+02  0.36347E+05
 0.64370003E+02  0.95748E+05
 0.64420006E+02 -0.11557E+06
 0.64470001E+02 -0.31716E+06
 0.64520004E+02 -0.30155E+05
 0.64570007E+02  0.71013E+06
 0.64620003E+02  0.14435E+07
 0.64670006E+02  0.16136E+07
 0.64720001E+02  0.10781E+07
 0.64770004E+02  0.51891E+06
 0.64820007E+02  0.56839E+06
 0.64870003E+02  0.10500E+07
 0.64920006E+02  0.14200E+07
 0.64970001E+02  0.12167E+07
 0.65020004E+02  0.50806E+06
 0.65070007E+02 -0.90558E+05
 0.65120003E+02 -0.37335E+06
 0.65170006E+02 -0.62259E+06
 0.65220001E+02 -0.72384E+06
 0.65270004E+02 -0.52998E+06
 0.65320007E+02 -0.30840E+06
 0.65370003E+02 -0.16732E+06
 0.65420006E+02 -0.14516E+06
 0.65470001E+02 -0.46448E+06
 0.65520004E+02 -0.99770E+06
 0.65570007E+02 -0.13261E+07
 0.65620003E+02 -0.12650E+07
 0.65670006E+02 -0.78746E+06
 0.65720001E+02 -0.20295E+06
 0.65770004E+02  0.28053E+06
 0.65820007E+02  0.92912E+06
 0.65870003E+02  0.13273E+07
 0.65920006E+02  0.61318E+06
 0.65970001E+02 -0.97072E+06
 0.66020004E+02 -0.23290E+07
 0.66070007E+02 -0.28776E+07
 0.66120003E+02 -0.27032E+07
 0.66170006E+02 -0.20670E+07
 0.66220001E+02 -0.12806E+07
 0.66270004E+02 -0.56758E+06
 0.66320007E+02 -0.99126E+05
 0.66370003E+02  0.22144E+06
 0.66420006E+02  0.68175E+06
 0.66470001E+02  0.91885E+06
 0.66520004E+02  0.63531E+06
 0.66570007E+02  0.15463E+06
 0.66620003E+02 -0.31867E+06
 0.66670006E+02 -0.45998E+06
 0.66720001E+02 -0.17094E+06
 0.66770004E+02  0.23207E+06
 0.66820007E+02  0.52080E+06
 0.66870003E+02  0.63312E+06
 0.66920006E+02  0.75549E+06
 0.66970001E+02  0.83467E+06
 0.67020004E+02  0.77972E+06
 0.67070007E+02  0.71824E+06
 0.67120003E+02  0.68629E+06
 0.67170006E+02  0.78800E+06
 0.67220001E+02  0.11702E+07
 0.67270004E+02  0.18587E+07
 0.67320007E+02  0.24072E+07
 0.67370003E+02  0.23429E+07
 0.67420006E+02  0.18137E+07
 0.67470001E+02  0.96427E+06
 0.67520004E+02  0.10396E+05
 0.67570007E+02 -0.56157E+06
 0.67620003E+02 -0.56325E+06
 0.67670006E+02 -0.28519E+05
 0.67720001E+02  0.81943E+06
 0.67770004E+02  0.16187E+07
 0.67820007E+02  0.20809E+07
 0.67870003E+02  0.20274E+07
 0.67920006E+02  0.14810E+07
 0.67970001E+02  0.54855E+06
 0.68020004E+02 -0.47268E+06
 0.68070007E+02 -0.13341E+07
 0.68120003E+02 -0.19722E+07
 0.68170006E+02 -0.22056E+07
 0.68220001E+02 -0.20858E+07
 0.68270004E+02 -0.17385E+07
 0.68320007E+02 -0.12632E+07
 0.68370003E+02 -0.10122E+07
 0.68420006E+02 -0.11187E+07
 0.68470001E+02 -0.13919E+07
 0.68520004E+02 -0.15785E+07
 0.68570007E+02 -0.16339E+07
 0.68620003E+02 -0.16305E+07
 0.68670006E+02 -0.13954E+07
 0.68720001E+02 -0.76555E+06
 0.68770004E+02  0.22537E+06
 0.68820007E+02  0.12059E+07
 0.68870003E+02  0.17194E+07
 0.68920006E+02  0.15914E+07
 0.68970001E+02  0.94768E+06
 0.69020004E+02  0.22142E+06
 0.69070007E+02 -0.31760E+06
 0.69120003E+02 -0.63299E+06
 0.69170006E+02 -0.80750E+06
 0.69220001E+02 -0.93622E+06
 0.69270004E+02 -0.97090E+06
 0.69320007E+02 -0.93184E+06
 0.69370003E+02 -0.70575E+06
 0.69420006E+02 -0.46648E+05
 0.69470001E+02  0.65053E+06
 0.69520004E+02  0.78099E+06
 0.69570007E+02  0.54298E+06
 0.69620003E+02  0.20961E+06
 0.69670006E+02 -0.19622E+06
 0.69720001E+02 -0.48496E+06
 0.69770004E+02 -0.60741E+06
 0.69820007E+02 -0.62470E+06
 0.69870003E+02 -0.64781E+06
 0.69920006E+02 -0.86507E+06
 0.69970001E+02 -0.12530E+07
 0.70020004E+02 -0.16583E+07
 0.70070007E+02 -0.17176E+07
 0.70120003E+02 -0.11293E+07
 0.70170006E+02 -0.27240E+06
 0.70220001E+02  0.40834E+06
 0.70270004E+02  0.85277E+06
 0.70320007E+02  0.11410E+07
 0.70370003E+02  0.12794E+07
 0.70420006E+02  0.12185E+07
 0.70470001E+02  0.10695E+07
 0.70520004E+02  0.81988E+06
 0.70570007E+02  0.48776E+06
 0.70620003E+02  0.16879E+06
 0.70670006E+02 -0.13388E+06
 0.70720001E+02 -0.13972E+06
 0.70770004E+02  0.14427E+06
 0.70820007E+02  0.28501E+06
 0.70870003E+02  0.11582E+06
 0.70920006E+02 -0.26452E+06
 0.70970001E+02 -0.67875E+06
 0.71020004E+02 -0.10512E+07
 0.71070007E+02 -0.12842E+07
 0.71120003E+02 -0.12952E+07
 0.71170006E+02 -0.11389E+07
 0.71220001E+02 -0.81454E+06
 0.71270004E+02 -0.40736E+06
 0.71320007E+02  0.18842E+05
 0.71370003E+02  0.29668E+06
 0.71420006E+02  0.11201E+06
 0.71470001E+02 -0.40703E+06
 0.71520004E+02 -0.91386E+06
 0.71570007E+02 -0.11354E+07
 0.71620003E+02 -0.96840E+06
 0.71670006E+02 -0.63758E+06
 0.71720001E+02 -0.37463E+06
 0.71770004E+02 -0.70410E+05
 0.71820007E+02  0.34547E+06
 0.71870003E+02  0.50715E+06
 0.71920006E+02  0.34777E+06
 0.71970001E+02  0.10881E+06
 0.72020004E+02 -0.10283E+06
 0.72070007E+02 -0.25187E+06
 0.72120003E+02 -0.40201E+06
 0.72170006E+02 -0.57590E+06
 0.72220001E+02 -0.87671E+06
 0.72270004E+02 -0.12774E+07
 0.72320007E+02 -0.15493E+07
 0.72370003E+02 -0.16432E+07
 0.72420006E+02 -0.15555E+07
 0.72470001E+02 -0.13200E+07
 0.72520004E+02 -0.11510E+07
 0.72570007E+02 -0.11266E+07
 0.72620003E+02 -0.11233E+07
 0.72670006E+02 -0.95251E+06
 0.72720001E+02 -0.65511E+06
 0.72770004E+02 -0.45235E+06
 0.72820007E+02 -0.12062E+06
 0.72870003E+02  0.48626E+06
 0.72920006E+02  0.11119E+07
 0.72970001E+02  0.14636E+07
 0.73020004E+02  0.14602E+07
 0.73070007E+02  0.12866E+07
 0.73120003E+02  0.84704E+06
 0.73170006E+02  0.77900E+04
 0.73220001E+02 -0.88309E+06
 0.73270004E+02 -0.13340E+07
 0.73320007E+02 -0.12099E+07
 0.73370003E+02 -0.78474E+06
 0.73420006E+02 -0.51424E+06
 0.73470001E+02 -0.52791E+06
 0.73520004E+02 -0.61085E+06
 0.73570007E+02 -0.71178E+06
 0.73620003E+02 -0.84431E+06
 0.73670006E+02 -0.96757E+06
 0.73720001E+02 -0.89868E+06
 0.73770004E+02 -0.60886E+06
 0.73820007E+02 -0.32564E+06
 0.73870003E+02 -0.51753E+05
 0.73920006E+02  0.29363E+06
 0.73970001E+02  0.68966E+06
 0.74020004E+02  0.99786E+06
 0.74070007E+02  0.10293E+07
 0.74120003E+02  0.71910E+06
 0.74170006E+02  0.23745E+06
 0.74220001E+02 -0.12754E+06
 0.74270004E+02 -0.30699E+06
 0.74320007E+02 -0.30986E+06
 0.74370003E+02 -0.14339E+05
 0.74420006E+02  0.40119E+06
 0.74470001E+02  0.50616E+06
 0.74520004E+02  0.24566E+06
 0.74570007E+02 -0.12661E+06
 0.74620003E+02 -0.39781E+06
 0.74670006E+02 -0.64336E+06
 0.74720001E+02 -0.98980E+06
 0.74770004E+02 -0.12790E+07
 0.74820007E+02 -0.13269E+07
 0.74870003E+02 -0.10146E+07
 0.74920006E+02 -0.37996E+06
 0.74970001E+02  0.38113E+06
 0.75020004E+02  0.10581E+07
 0.75070007E+02  0.13955E+07
 0.75120003E+02  0.12508E+07
 0.75170006E+02  0.82478E+06
 0.75220001E+02  0.43895E+06
 0.75270004E+02  0.13375E+06
 0.75320007E+02 -0.16851E+06
 0.75370003E+02 -0.42406E+06
 0.75420006E+02 -0.44018E+06
 0.75470001E+02 -0.12528E+06
 0.75520004E+02  0.32783E+06
 0.75570007E+02  0.67724E+06
 0.75620003E+02  0.70552E+06
 0.75670006E+02  0.39798E+06
 0.75720001E+02 -0.72108E+05
 0.75770004E+02 -0.50887E+06
 0.75820007E+02 -0.74963E+06
 0.75870003E+02 -0.81717E+06
 0.75920006E+02 -0.70517E+06
 0.75970001E+02 -0.36452E+06
 0.76020004E+02  0.78742E+05
 0.76070007E+02  0.48744E+06
 0.76120003E+02  0.79408E+06
 0.76170006E+02  0.86355E+06
 0.76220001E+02  0.64856E+06
 0.76270004E+02  0.28702E+06
 0.76320007E+02 -0.15304E+06
 0.76370003E+02 -0.57620E+06
 0.76420006E+02 -0.75439E+06
 0.76470001E+02 -0.52952E+06
 0.76520004E+02  0.92923E+05
 0.76570007E+02  0.95215E+06
 0.76620003E+02  0.17665E+07
 0.76670006E+02  0.21916E+07
 0.76720001E+02  0.20188E+07
 0.76770004E+02  0.13564E+07
 0.76820007E+02  0.58324E+06
 0.76870003E+02 -0.13187E+05
 0.76920006E+02 -0.34699E+06
 0.76970001E+02 -0.52242E+06
 0.77020004E+02 -0.73522E+06
 0.77070007E+02 -0.91920E+06
 0.77120003E+02 -0.10391E+07
 0.77170006E+02 -0.11157E+07
 0.77220001E+02 -0.10593E+07
 0.77270004E+02 -0.86953E+06
 0.77320007E+02 -0.53378E+06
 0.77370003E+02 -0.82994E+05
 0.77420006E+02  0.41865E+06
 0.77470001E+02  0.94266E+06
 0.77520004E+02  0.13704E+07
 0.77570007E+02  0.16130E+07
 0.77620003E+02  0.16778E+07
 0.77670006E+02  0.15542E+07
 0.77720001E+02  0.13672E+07
 0.77770004E+02  0.12998E+07
 0.77820007E+02  0.12244E+07
 0.77870003E+02  0.10404E+07
 0.77920006E+02  0.84958E+06
 0.77970001E+02  0.64412E+06
 0.78020004E+02  0.38261E+06
 0.78070007E+02  0.14501E+06
 0.78120003E+02  0.98440E+05
 0.78170006E+02  0.22613E+06
 0.78220001E+02  0.44597E+06
 0.78270004E+02  0.76102E+06
 0.78320007E+02  0.10943E+07
 0.78370003E+02  0.13932E+07
 0.78420006E+02  0.15426E+07
 0.78470001E+02  0.15397E+07
 0.78520004E+02  0.15391E+07
 0.78570007E+02  0.13983E+07
 0.78620003E+02  0.99651E+06
 0.78670006E+02  0.49023E+06
 0.78720001E+02  0.48470E+05
 0.78770004E+02 -0.28592E+06
 0.78820007E+02 -0.65438E+06
 0.78870003E+02 -0.10909E+07
 0.78920006E+02 -0.14522E+07
 0.78970001E+02 -0.15633E+07
 0.79020004E+02 -0.13034E+07
 0.79070007E+02 -0.69773E+06
 0.79120003E+02  0.92919E+05
 0.79170006E+02  0.79429E+06
 0.79220001E+02  0.12168E+07
 0.79270004E+02  0.13666E+07
 0.79320007E+02  0.14648E+07
 0.79370003E+02  0.16019E+07
 0.79420006E+02  0.17088E+07
 0.79470001E+02  0.18110E+07
 0.79520004E+02  0.18036E+07
 0.79570007E+02  0.16383E+07
 0.79620003E+02  0.13473E+07
 0.79670006E+02  0.10237E+07
 0.79720001E+02  0.86975E+06
 0.79770004E+02  0.92971E+06
 0.79820007E+02  0.11262E+07
 0.79870003E+02  0.12452E+07
 0.79920006E+02  0.11956E+07
 0.79970001E+02  0.10955E+07
 0.80020004E+02  0.91266E+06
 0.80070007E+02  0.53632E+06
 0.80120003E+02 -0.17936E+05
 0.80170006E+02 -0.58172E+06
 0.80220001E+02 -0.99271E+06
 0.80270004E+02 -0.10582E+07
 0.80320007E+02 -0.63396E+06
 0.80370003E+02  0.12885E+06
 0.80420006E+02  0.92701E+06
 0.80470001E+02  0.14121E+07
 0.80520004E+02  0.14314E+07
 0.80570007E+02  0.11118E+07
 0.80620003E+02  0.57198E+06
 0.80670006E+02 -0.13025E+05
 0.80720001E+02 -0.45394E+06
 0.80770004E+02 -0.73942E+06
 0.80820007E+02 -0.84338E+06
 0.80870003E+02 -0.65504E+06
 0.80920006E+02 -0.24614E+06
 0.80970001E+02  0.17137E+06
 0.81020004E+02  0.43886E+06
 0.81070007E+02  0.45744E+06
 0.81120003E+02  0.26088E+06
 0.81170006E+02 -0.83406E+05
 0.81220001E+02 -0.45660E+06
 0.81270004E+02 -0.55064E+06
 0.81320007E+02 -0.24342E+06
 0.81370003E+02  0.24123E+06
 0.81420006E+02  0.69465E+06
 0.81470001E+02  0.94527E+06
 0.81520004E+02  0.84409E+06
 0.81570007E+02  0.47301E+06
 0.81620003E+02  0.10752E+05
 0.81670006E+02 -0.38936E+06
 0.81720001E+02 -0.54385E+06
 0.81770004E+02 -0.38228E+06
 0.81820007E+02 -0.51252E+05
 0.81870003E+02  0.22846E+06
 0.81920006E+02  0.34915E+06
 0.81970001E+02  0.34520E+06
 0.82020004E+02  0.27232E+06
 0.82070007E+02  0.18336E+06
 0.82120003E+02  0.94088E+05
 0.82170006E+02 -0.32005E+05
 0.82220001E+02 -0.20254E+06
 0.82270004E+02 -0.44505E+06
 0.82320007E+02 -0.75002E+06
 0.82370003E+02 -0.10852E+07
 0.82420006E+02 -0.14084E+07
 0.82470001E+02 -0.16174E+07
 0.82520004E+02 -0.17138E+07
 0.82570007E+02 -0.17094E+07
 0.82620003E+02 -0.15597E+07
 0.82670006E+02 -0.12437E+07
 0.82720001E+02 -0.83453E+06
 0.82770004E+02 -0.54069E+06
 0.82820007E+02 -0.41681E+06
 0.82870003E+02 -0.40236E+06
 0.82920006E+02 -0.47878E+06
 0.82970001E+02 -0.53855E+06
 0.83020004E+02 -0.49963E+06
 0.83070007E+02 -0.42548E+06
 0.83120003E+02 -0.44822E+06
 0.83170006E+02 -0.57264E+06
 0.83220001E+02 -0.63907E+06
 0.83270004E+02 -0.53824E+06
 0.83320007E+02 -0.30588E+06
 0.83370003E+02 -0.79028E+05
 0.83420006E+02  0.71401E+05
 0.83470001E+02  0.15597E+06
 0.83520004E+02  0.17810E+06
 0.83570007E+02  0.17522E+06
 0.83620003E+02  0.17048E+06
 0.83670006E+02  0.10074E+06
 0.83720001E+02 -0.10899E+06
 0.83770004E+02 -0.41466E+06
 0.83820007E+02 -0.71451E+06
 0.83870003E+02 -0.90180E+06
 0.83920006E+02 -0.95084E+06
 0.83970001E+02 -0.94948E+06
 0.84020004E+02 -0.97599E+06
 0.84070007E+02 -0.10733E+07
 0.84120003E+02 -0.11880E+07
 0.84170006E+02 -0.12503E+07
 0.84220001E+02 -0.12079E+07
 0.84270004E+02 -0.10770E+07
 0.84320007E+02 -0.91186E+06
 0.84370003E+02 -0.72223E+06
 0.84420006E+02 -0.60970E+06
 0.84470001E+02 -0.62704E+06
 0.84520004E+02 -0.79804E+06
 0.84570007E+02 -0.10459E+07
 0.84620003E+02 -0.11136E+07
 0.84670006E+02 -0.89036E+06
 0.84720001E+02 -0.46973E+06
 0.84770004E+02 -0.66843E+05
 0.84820007E+02  0.11906E+06
 0.84870003E+02  0.47955E+05
 0.84920006E+02 -0.15260E+06
 0.84970001E+02 -0.32535E+06
 0.85020004E+02 -0.38400E+06
 0.85070007E+02 -0.28990E+06
 0.85120003E+02 -0.96450E+05
 0.85170006E+02  0.64101E+05
 0.85220001E+02  0.12406E+06
 0.85270004E+02  0.11983E+06
 0.85320007E+02  0.61465E+05
 0.85370003E+02 -0.59471E+05
 0.85420006E+02 -0.22807E+06
 0.85470001E+02 -0.37059E+06
 0.85520004E+02 -0.39916E+06
 0.85570007E+02 -0.28691E+06
 0.85620003E+02 -0.20588E+05
 0.85670006E+02  0.26425E+06
 0.85720001E+02  0.36079E+06
 0.85770004E+02  0.22920E+06
 0.85820007E+02 -0.43906E+05
 0.85870003E+02 -0.33997E+06
 0.85920006E+02 -0.58908E+06
 0.85970001E+02 -0.75918E+06
 0.86020004E+02 -0.79742E+06
 0.86070007E+02 -0.68961E+06
 0.86120003E+02 -0.48194E+06
 0.86170006E+02 -0.24323E+06
 0.86220001E+02 -0.70347E+05
 0.86270004E+02 -0.24730E+04
 0.86320007E+02  0.51460E+04
 0.86370003E+02 -0.41778E+05
 0.86420006E+02 -0.18362E+06
 0.86470001E+02 -0.42400E+06
 0.86520004E+02 -0.70145E+06
 0.86570007E+02 -0.95922E+06
 0.86620003E+02 -0.11428E+07
 0.86670006E+02 -0.11767E+07
 0.86720001E+02 -0.10732E+07
 0.86770004E+02 -0.88984E+06
 0.86820007E+02 -0.66338E+06
 0.86870003E+02 -0.38499E+06
 0.86920006E+02 -0.57815E+05
 0.86970001E+02  0.25309E+06
 0.87020004E+02  0.56400E+06
 0.87070007E+02  0.89306E+06
 0.87120003E+02  0.12224E+07
 0.87170006E+02  0.15567E+07
 0.87220001E+02  0.18798E+07
 0.87270004E+02  0.21784E+07
 0.87320007E+02  0.23740E+07
 0.87370003E+02  0.23294E+07
 0.87420006E+02  0.19871E+07
 0.87470001E+02  0.13913E+07
 0.87520004E+02  0.64259E+06
 0.87570007E+02 -0.10119E+06
 0.87620003E+02 -0.64070E+06
 0.87670006E+02 -0.84505E+06
 0.87720001E+02 -0.75974E+06
 0.87770004E+02 -0.50924E+06
 0.87820007E+02 -0.21579E+06
 0.87870003E+02 -0.95350E+04
 0.87920006E+02  0.84076E+05
 0.87970001E+02  0.81507E+05
 0.88020004E+02 -0.45480E+04
 0.88070007E+02 -0.76557E+05
 0.88120003E+02 -0.58706E+05
 0.88170006E+02  0.50872E+05
 0.88220001E+02  0.23205E+06
 0.88270004E+02  0.40662E+06
 0.88320007E+02  0.44700E+06
 0.88370003E+02  0.34666E+06
 0.88420006E+02  0.21610E+06
 0.88470001E+02  0.14750E+06
 0.88520004E+02  0.19876E+06
 0.88570007E+02  0.33283E+06
 0.88620003E+02  0.49594E+06
 0.88670006E+02  0.66094E+06
 0.88720001E+02  0.75476E+06
 0.88770004E+02  0.74789E+06
 0.88820007E+02  0.67731E+06
 0.88870003E+02  0.62135E+06
 0.88920006E+02  0.63333E+06
 0.88970001E+02  0.70000E+06
 0.89020004E+02  0.82083E+06
 0.89070007E+02  0.98212E+06
 0.89120003E+02  0.11741E+07
 0.89170006E+02  0.13867E+07
 0.89220001E+02  0.15461E+07
 0.89270004E+02  0.16200E+07
 0.89320007E+02  0.15901E+07
 0.89370003E+02  0.14004E+07
 0.89420006E+02  0.10881E+07
 0.89470001E+02  0.75367E+06
 0.89520004E+02  0.44986E+06
 0.89570007E+02  0.19203E+06
 0.89620003E+02 -0.14665E+05
 0.89670006E+02 -0.15729E+06
 0.89720001E+02 -0.22091E+06
 0.89770004E+02 -0.25914E+06
 0.89820007E+02 -0.33022E+06
 0.89870003E+02 -0.41460E+06
 0.89920006E+02 -0.49470E+06
 0.89970001E+02 -0.49252E+06
 0.90020004E+02 -0.34012E+06
 0.90070007E+02 -0.12291E+06
 0.90120003E+02  0.99290E+05
 0.90170006E+02  0.26876E+06
 0.90220001E+02  0.30976E+06
 0.90270004E+02  0.25804E+06
 0.90320007E+02  0.11800E+06
 0.90370003E+02 -0.95724E+05
 0.90420006E+02 -0.27255E+06
 0.90470001E+02 -0.36717E+06
 0.90520004E+02 -0.38917E+06
 0.90570007E+02 -0.35586E+06
 0.90620003E+02 -0.27610E+06
 0.90670006E+02 -0.12070E+06
 0.90720001E+02  0.11270E+06
 0.90770004E+02  0.36430E+06
 0.90820007E+02  0.52716E+06
 0.90870003E+02  0.55471E+06
 0.90920006E+02  0.47234E+06
 0.90970001E+02  0.34336E+06
 0.91020004E+02  0.25838E+06
 0.91070007E+02  0.20695E+06
 0.91120003E+02  0.14777E+06
 0.91170006E+02  0.10578E+06
 0.91220001E+02  0.10750E+06
 0.91270004E+02  0.88891E+05
 0.91320007E+02 -0.33338E+05
 0.91370003E+02 -0.22113E+06
 0.91420006E+02 -0.40556E+06
 0.91470001E+02 -0.53708E+06
 0.91520004E+02 -0.63438E+06
 0.91570007E+02 -0.75550E+06
 0.91620003E+02 -0.87812E+06
 0.91670006E+02 -0.99030E+06
 0.91720001E+02 -0.11040E+07
 0.91770004E+02 -0.12025E+07
 0.91820007E+02 -0.12788E+07
 0.91870003E+02 -0.13020E+07
 0.91920006E+02 -0.12383E+07
 0.91970001E+02 -0.11306E+07
 0.92020004E+02 -0.10134E+07
 0.92070007E+02 -0.85709E+06
 0.92120003E+02 -0.67619E+06
 0.92170006E+02 -0.55887E+06
 0.92220001E+02 -0.54118E+06
 0.92270004E+02 -0.56937E+06
 0.92320007E+02 -0.55229E+06
 0.92370003E+02 -0.39904E+06
 0.92420006E+02 -0.10396E+06
 0.92470001E+02  0.24824E+06
 0.92520004E+02  0.56526E+06
 0.92570007E+02  0.80264E+06
 0.92620003E+02  0.94003E+06
 0.92670006E+02  0.95235E+06
 0.92720001E+02  0.83949E+06
 0.92770004E+02  0.66797E+06
 0.92820007E+02  0.52034E+06
 0.92870003E+02  0.39035E+06
 0.92920006E+02  0.21345E+06
 0.92970001E+02 -0.39178E+05
 0.93020004E+02 -0.34560E+06
 0.93070007E+02 -0.65960E+06
 0.93120003E+02 -0.90721E+06
 0.93170006E+02 -0.10614E+07
 0.93220001E+02 -0.11461E+07
 0.93270004E+02 -0.11486E+07
 0.93320007E+02 -0.10920E+07
 0.93370003E+02 -0.10444E+07
 0.93420006E+02 -0.10028E+07
 0.93470001E+02 -0.91598E+06
 0.93520004E+02 -0.73855E+06
 0.93570007E+02 -0.45915E+06
 0.93620003E+02 -0.15515E+06
 0.93670006E+02  0.85039E+05
 0.93720001E+02  0.20434E+06
 0.93770004E+02  0.15107E+06
 0.93820007E+02 -0.63642E+05
 0.93870003E+02 -0.34629E+06
 0.93920006E+02 -0.60664E+06
 0.93970001E+02 -0.78239E+06
 0.94020004E+02 -0.78489E+06
 0.94070007E+02 -0.62516E+06
 0.94120003E+02 -0.42931E+06
 0.94170006E+02 -0.26506E+06
 0.94220001E+02 -0.13289E+06
 0.94270004E+02  0.25429E+05
 0.94320007E+02  0.27226E+06
 0.94370003E+02  0.61358E+06
 0.94420006E+02  0.10376E+07
 0.94470001E+02  0.14811E+07
 0.94520004E+02  0.18292E+07
 0.94570007E+02  0.19859E+07
 0.94620003E+02  0.19135E+07
 0.94670006E+02  0.16317E+07
 0.94720001E+02  0.12106E+07
 0.94770004E+02  0.73642E+06
 0.94820007E+02  0.27730E+06
 0.94870003E+02 -0.70408E+05
 0.94920006E+02 -0.22991E+06
 0.94970001E+02 -0.24731E+06
 0.95020004E+02 -0.21599E+06
 0.95070007E+02 -0.22643E+06
 0.95120003E+02 -0.31033E+06
 0.95170006E+02 -0.35266E+06
 0.95220001E+02 -0.26616E+06
 0.95270004E+02 -0.70440E+05
 0.95320007E+02  0.19006E+06
 0.95370003E+02  0.44520E+06
 0.95420006E+02  0.63788E+06
 0.95470001E+02  0.72916E+06
 0.95520004E+02  0.70541E+06
 0.95570007E+02  0.60573E+06
 0.95620003E+02  0.50065E+06
 0.95670006E+02  0.44971E+06
 0.95720001E+02  0.44992E+06
 0.95770004E+02  0.48213E+06
 0.95820007E+02  0.55622E+06
 0.95870003E+02  0.63914E+06
 0.95920006E+02  0.68773E+06
 0.95970001E+02  0.70782E+06
 0.96020004E+02  0.69939E+06
 0.96070007E+02  0.67186E+06
 0.96120003E+02  0.64091E+06
 0.96170006E+02  0.58757E+06
 0.96220001E+02  0.50293E+06
 0.96270004E+02  0.40479E+06
 0.96320007E+02  0.30488E+06
 0.96370003E+02  0.19843E+06
 0.96420006E+02  0.68514E+05
 0.96470001E+02 -0.70139E+05
 0.96520004E+02 -0.16680E+06
 0.96570007E+02 -0.22093E+06
 0.96620003E+02 -0.24938E+06
 0.96670006E+02 -0.22349E+06
 0.96720001E+02 -0.14311E+06
 0.96770004E+02 -0.88301E+05
 0.96820007E+02 -0.10704E+06
 0.96870003E+02 -0.16467E+06
 0.96920006E+02 -0.23147E+06
 0.96970001E+02 -0.23993E+06
 0.97020004E+02 -0.12568E+06
 0.97070007E+02  0.54646E+05
 0.97120003E+02  0.17932E+06
 0.97170006E+02  0.18899E+06
 0.97220001E+02  0.13209E+06
 0.97270004E+02  0.68647E+05
 0.97320007E+02  0.37719E+05
 0.97370003E+02  0.59283E+05
 0.97420006E+02  0.94316E+05
 0.97470001E+02  0.84001E+05
 0.97520004E+02 -0.81320E+04
 0.97570007E+02 -0.17242E+06
 0.97620003E+02 -0.35713E+06
 0.97670006E+02 -0.52493E+06
 0.97720001E+02 -0.65057E+06
 0.97770004E+02 -0.70032E+06
 0.97820007E+02 -0.64820E+06
 0.97870003E+02 -0.48429E+06
 0.97920006E+02 -0.22915E+06
 0.97970001E+02  0.61071E+05
 0.98020004E+02  0.32144E+06
 0.98070007E+02  0.49880E+06
 0.98120003E+02  0.55465E+06
 0.98170006E+02  0.48260E+06
 0.98220001E+02  0.29636E+06
 0.98270004E+02  0.32240E+05
 0.98320007E+02 -0.21628E+06
 0.98370003E+02 -0.37912E+06
 0.98420006E+02 -0.46635E+06
 0.98470001E+02 -0.48075E+06
 0.98520004E+02 -0.44643E+06
 0.98570007E+02 -0.43334E+06
 0.98620003E+02 -0.48973E+06
 0.98670006E+02 -0.63010E+06
 0.98720001E+02 -0.79670E+06
 0.98770004E+02 -0.92924E+06
 0.98820007E+02 -0.10182E+07
 0.98870003E+02 -0.10928E+07
 0.98920006E+02 -0.11971E+07
 0.98970001E+02 -0.12938E+07
 0.99020004E+02 -0.13247E+07
 0.99070007E+02 -0.12601E+07
 0.99120003E+02 -0.10718E+07
 0.99170006E+02 -0.77780E+06
 0.99220001E+02 -0.45903E+06
 0.99270004E+02 -0.19522E+06
 0.99320007E+02 -0.52890E+04
 0.99370003E+02  0.11796E+06
 0.99420006E+02  0.21814E+06
 0.99470001E+02  0.35286E+06
 0.99520004E+02  0.48869E+06
 0.99570007E+02  0.55324E+06
 0.99620003E+02  0.54350E+06
 0.99670006E+02  0.45668E+06
 0.99720001E+02  0.26706E+06
 0.99770004E+02  0.48769E+05
 0.99820007E+02 -0.97491E+05
 0.99870003E+02 -0.15276E+06
 0.99920006E+02 -0.13913E+06
 0.99970001E+02 -0.88528E+05
 0.10002000E+03 -0.39255E+05
 0.10007001E+03 -0.39944E+05
 0.10012000E+03 -0.10852E+06
 0.10017001E+03 -0.22957E+06
 0.10022000E+03 -0.35706E+06
 0.10027000E+03 -0.42062E+06
 0.10032001E+03 -0.38361E+06
 0.10037000E+03 -0.25669E+06
 0.10042001E+03 -0.10109E+06
 0.10047000E+03  0.32592E+05
 0.10052000E+03  0.13420E+06
 0.10057001E+03  0.18868E+06
 0.10062000E+03  0.20531E+06
 0.10067001E+03  0.20599E+06
 0.10072000E+03  0.19742E+06
 0.10077000E+03  0.16997E+06
 0.10082001E+03  0.98304E+05
 0.10087000E+03  0.71870E+04
 0.10092001E+03 -0.63284E+05
 0.10097000E+03 -0.12865E+06
 0.10102000E+03 -0.17533E+06
 0.10107001E+03 -0.14449E+06
 0.10112000E+03 -0.32059E+05
 0.10117001E+03  0.11201E+06
 0.10122000E+03  0.22336E+06
 0.10127000E+03  0.23264E+06
 0.10132001E+03  0.13432E+06
 0.10137000E+03  0.10277E+05
 0.10142001E+03 -0.79879E+05
 0.10147000E+03 -0.11852E+06
 0.10152000E+03 -0.69812E+05
 0.10157001E+03  0.76192E+05
 0.10162000E+03  0.28525E+06
 0.10167001E+03  0.52326E+06
 0.10172000E+03  0.76264E+06
 0.10177000E+03  0.94555E+06
 0.10182001E+03  0.99360E+06
 0.10187000E+03  0.88858E+06
 0.10192001E+03  0.69151E+06
 0.10197000E+03  0.47718E+06
 0.10202000E+03  0.28381E+06
 0.10207001E+03  0.12317E+06
 0.10212000E+03  0.10372E+05
 0.10217001E+03 -0.63004E+05
 0.10222000E+03 -0.12874E+06
 0.10227000E+03 -0.18782E+06
 0.10232001E+03 -0.22782E+06
 0.10237000E+03 -0.23004E+06
 0.10242001E+03 -0.19653E+06
 0.10247000E+03 -0.15346E+06
 0.10252000E+03 -0.96275E+05
 0.10257001E+03 -0.13304E+05
 0.10262000E+03  0.10996E+06
 0.10267001E+03  0.25546E+06
 0.10272000E+03  0.37794E+06
 0.10277000E+03  0.48005E+06
 0.10282001E+03  0.56301E+06
 0.10287000E+03  0.62065E+06
 0.10292001E+03  0.66500E+06
 0.10297000E+03  0.66716E+06
 0.10302000E+03  0.59552E+06
 0.10307001E+03  0.47024E+06
 0.10312000E+03  0.33866E+06
 0.10317001E+03  0.24412E+06
 0.10322000E+03  0.17448E+06
 0.10327000E+03  0.92676E+05
 0.10332001E+03 -0.55500E+03
 0.10337000E+03 -0.10869E+06
 0.10342001E+03 -0.25302E+06
 0.10347000E+03 -0.40083E+06
 0.10352000E+03 -0.50748E+06
 0.10357001E+03 -0.55577E+06
 0.10362000E+03 -0.49640E+06
 0.10367001E+03 -0.32678E+06
 0.10372000E+03 -0.11682E+06
 0.10377000E+03  0.75641E+05
 0.10382001E+03  0.22294E+06
 0.10387000E+03  0.32876E+06
 0.10392001E+03  0.41085E+06
 0.10397000E+03  0.48387E+06
 0.10402000E+03  0.54029E+06
 0.10407001E+03  0.56085E+06
 0.10412000E+03  0.53826E+06
 0.10417001E+03  0.46273E+06
 0.10422000E+03  0.32768E+06
 0.10427000E+03  0.15478E+06
 0.10432001E+03 -0.93600E+03
 0.10437000E+03 -0.77055E+05
 0.10442001E+03 -0.49278E+05
 0.10447000E+03  0.45661E+05
 0.10452000E+03  0.14089E+06
 0.10457001E+03  0.20194E+06
 0.10462000E+03  0.24005E+06
 0.10467001E+03  0.25195E+06
 0.10472000E+03  0.20564E+06
 0.10477000E+03  0.11547E+06
 0.10482001E+03  0.49163E+05
 0.10487000E+03  0.27096E+05
 0.10492001E+03  0.11316E+05
 0.10497000E+03 -0.21481E+05
 0.10502000E+03 -0.61826E+05
 0.10507001E+03 -0.90408E+05
 0.10512000E+03 -0.11412E+06
 0.10517001E+03 -0.15740E+06
 0.10522000E+03 -0.23621E+06
 0.10527000E+03 -0.33705E+06
 0.10532001E+03 -0.41914E+06
 0.10537000E+03 -0.46315E+06
 0.10542001E+03 -0.46605E+06
 0.10547000E+03 -0.43872E+06
 0.10552000E+03 -0.40440E+06
 0.10557001E+03 -0.37859E+06
 0.10562000E+03 -0.37658E+06
 0.10567001E+03 -0.38104E+06
 0.10572000E+03 -0.37080E+06
 0.10577000E+03 -0.35679E+06
 0.10582001E+03 -0.32896E+06
 0.10587000E+03 -0.27962E+06
 0.10592001E+03 -0.23382E+06
 0.10597000E+03 -0.21502E+06
 0.10602000E+03 -0.22652E+06
 0.10607001E+03 -0.24621E+06
 0.10612000E+03 -0.25439E+06
 0.10617001E+03 -0.25777E+06
 0.10622000E+03 -0.27163E+06
 0.10627000E+03 -0.29044E+06
 0.10632001E+03 -0.28629E+06
 0.10637000E+03 -0.24791E+06
 0.10642001E+03 -0.19129E+06
 0.10647000E+03 -0.13261E+06
 0.10652000E+03 -0.87990E+05
 0.10657001E+03 -0.76920E+05
 0.10662000E+03 -0.97687E+05
 0.10667001E+03 -0.12649E+06
 0.10672000E+03 -0.14747E+06
 0.10677000E+03 -0.15648E+06
 0.10682001E+03 -0.12454E+06
 0.10687000E+03 -0.33349E+05
 0.10692001E+03  0.81253E+05
 0.10697000E+03  0.17922E+06
 0.10702000E+03  0.23883E+06
 0.10707001E+03  0.26254E+06
 0.10712000E+03  0.26776E+06
 0.10717001E+03  0.25378E+06
 0.10722000E+03  0.20654E+06
 0.10727000E+03  0.14099E+06
 0.10732001E+03  0.89030E+05
 0.10737000E+03  0.42537E+05
 0.10742001E+03 -0.28778E+05
 0.10747000E+03 -0.13941E+06
 0.10752000E+03 -0.25980E+06
 0.10757001E+03 -0.33229E+06
 0.10762000E+03 -0.33083E+06
 0.10767001E+03 -0.27715E+06
 0.10772000E+03 -0.18953E+06
 0.10777000E+03 -0.58104E+05
 0.10782001E+03  0.10855E+06
 0.10787000E+03  0.28629E+06
 0.10792001E+03  0.44182E+06
 0.10797000E+03  0.52963E+06
 0.10802000E+03  0.52588E+06
 0.10807001E+03  0.43288E+06
 0.10812000E+03  0.27566E+06
 0.10817001E+03  0.96147E+05
 0.10822000E+03 -0.63299E+05
 0.10827000E+03 -0.16724E+06
 0.10832001E+03 -0.21335E+06
 0.10837000E+03 -0.21894E+06
 0.10842001E+03 -0.18254E+06
 0.10847000E+03 -0.93249E+05
 0.10852000E+03  0.59233E+05
 0.10857001E+03  0.25806E+06
 0.10862000E+03  0.45547E+06
 0.10867001E+03  0.60986E+06
 0.10872000E+03  0.69035E+06
 0.10877000E+03  0.69140E+06
 0.10882001E+03  0.63400E+06
 0.10887000E+03  0.53695E+06
 0.10892001E+03  0.40755E+06
 0.10897000E+03  0.24747E+06
 0.10902000E+03  0.80353E+05
 0.10907001E+03 -0.58548E+05
 0.10912000E+03 -0.15846E+06
 0.10917001E+03 -0.22778E+06
 0.10922000E+03 -0.28220E+06
 0.10927000E+03 -0.33219E+06
 0.10932001E+03 -0.36416E+06
 0.10937000E+03 -0.35800E+06
 0.10942001E+03 -0.32488E+06
 0.10947000E+03 -0.27893E+06
 0.10952000E+03 -0.24065E+06
 0.10957001E+03 -0.25523E+06
 0.10962000E+03 -0.32760E+06
 0.10967001E+03 -0.42907E+06
 0.10972000E+03 -0.52098E+06
 0.10977000E+03 -0.57307E+06
 0.10982001E+03 -0.58816E+06
 0.10987000E+03 -0.56613E+06
 0.10992001E+03 -0.51479E+06
 0.10997000E+03 -0.45836E+06
 0.11002000E+03 -0.41316E+06
 0.11007001E+03 -0.37799E+06
 0.11012000E+03 -0.34352E+06
 0.11017001E+03 -0.32214E+06
 0.11022000E+03 -0.31392E+06
 0.11027000E+03 -0.27997E+06
 0.11032001E+03 -0.19669E+06
 0.11037000E+03 -0.69623E+05
 0.11042001E+03  0.77888E+05
 0.11047000E+03  0.21265E+06
 0.11052000E+03  0.32209E+06
 0.11057001E+03  0.41445E+06
 0.11062000E+03  0.48411E+06
 0.11067001E+03  0.50720E+06
 0.11072000E+03  0.47483E+06
 0.11077000E+03  0.38958E+06
 0.11082001E+03  0.27313E+06
 0.11087000E+03  0.14690E+06
 0.11092001E+03  0.52590E+04
 0.11097000E+03 -0.12985E+06
 0.11102000E+03 -0.21851E+06
 0.11107001E+03 -0.24735E+06
 0.11112000E+03 -0.22054E+06
 0.11117001E+03 -0.15022E+06
 0.11122000E+03 -0.53639E+05
 0.11127000E+03  0.63839E+05
 0.11132001E+03  0.18869E+06
 0.11137000E+03  0.29268E+06
 0.11142001E+03  0.37162E+06
 0.11147000E+03  0.42148E+06
 0.11152000E+03  0.44172E+06
 0.11157001E+03  0.44719E+06
 0.11162000E+03  0.43606E+06
 0.11167001E+03  0.39154E+06
 0.11172000E+03  0.30227E+06
 0.11177000E+03  0.17990E+06
 0.11182001E+03  0.36318E+05
 0.11187000E+03 -0.11335E+06
 0.11192001E+03 -0.23433E+06
 0.11197000E+03 -0.30962E+06
 0.11202000E+03 -0.34143E+06
 0.11207001E+03 -0.34601E+06
 0.11212000E+03 -0.35551E+06
 0.11217001E+03 -0.36597E+06
 0.11222000E+03 -0.35100E+06
 0.11227000E+03 -0.30575E+06
 0.11232001E+03 -0.22476E+06
 0.11237000E+03 -0.11700E+06
 0.11242001E+03 -0.94310E+04
 0.11247000E+03  0.87092E+05
 0.11252000E+03  0.17878E+06
 0.11257001E+03  0.24957E+06
 0.11262000E+03  0.25884E+06
 0.11267001E+03  0.19888E+06
 0.11272000E+03  0.98302E+05
 0.11277000E+03 -0.14687E+05
 0.11282001E+03 -0.12072E+06
 0.11287000E+03 -0.20475E+06
 0.11292001E+03 -0.25898E+06
 0.11297000E+03 -0.27268E+06
 0.11302000E+03 -0.24658E+06
 0.11307001E+03 -0.20243E+06
 0.11312000E+03 -0.15370E+06
 0.11317001E+03 -0.10461E+06
 0.11322000E+03 -0.45783E+05
 0.11327000E+03  0.17023E+05
 0.11332001E+03  0.40802E+05
 0.11337000E+03  0.85350E+04
 0.11342001E+03 -0.60529E+05
 0.11347000E+03 -0.14571E+06
 0.11352000E+03 -0.21933E+06
 0.11357001E+03 -0.25393E+06
 0.11362000E+03 -0.24072E+06
 0.11367001E+03 -0.18441E+06
 0.11372000E+03 -0.84955E+05
 0.11377000E+03  0.55016E+05
 0.11382001E+03  0.21436E+06
 0.11387000E+03  0.37176E+06
 0.11392001E+03  0.51570E+06
 0.11397000E+03  0.64528E+06
 0.11402000E+03  0.75769E+06
 0.11407001E+03  0.83142E+06
 0.11412000E+03  0.84683E+06
 0.11417001E+03  0.78947E+06
 0.11422000E+03  0.66199E+06
 0.11427000E+03  0.50643E+06
 0.11432001E+03  0.36214E+06
 0.11437000E+03  0.22720E+06
 0.11442001E+03  0.93655E+05
 0.11447000E+03 -0.11370E+05
 0.11452000E+03 -0.63615E+05
 0.11457001E+03 -0.62728E+05
 0.11462000E+03 -0.19836E+05
 0.11467001E+03  0.37353E+05
 0.11472000E+03  0.83472E+05
 0.11477000E+03  0.83590E+05
 0.11482001E+03  0.25052E+05
 0.11487000E+03 -0.54996E+05
 0.11492001E+03 -0.12515E+06
 0.11497000E+03 -0.16752E+06
 0.11502000E+03 -0.18300E+06
 0.11507001E+03 -0.18847E+06
 0.11512000E+03 -0.19804E+06
 0.11517001E+03 -0.21018E+06
 0.11522000E+03 -0.20936E+06
 0.11527000E+03 -0.19290E+06
 0.11532001E+03 -0.16213E+06
 0.11537000E+03 -0.12629E+06
 0.11542001E+03 -0.10152E+06
 0.11547000E+03 -0.84847E+05
 0.11552000E+03 -0.58549E+05
 0.11557001E+03 -0.22539E+05
 0.11562000E+03  0.91940E+04
 0.11567001E+03  0.35590E+05
 0.11572000E+03  0.63843E+05
 0.11577000E+03  0.11588E+06
 0.11582001E+03  0.20334E+06
 0.11587000E+03  0.31066E+06
 0.11592001E+03  0.41236E+06
 0.11597000E+03  0.47285E+06
 0.11602000E+03  0.49221E+06
 0.11607001E+03  0.50118E+06
 0.11612000E+03  0.50001E+06
 0.11617001E+03  0.48412E+06
 0.11622000E+03  0.45875E+06
 0.11627000E+03  0.41316E+06
 0.11632001E+03  0.34035E+06
 0.11637000E+03  0.23810E+06
 0.11642001E+03  0.10594E+06
 0.11647000E+03 -0.43336E+05
 0.11652000E+03 -0.18475E+06
 0.11657001E+03 -0.28708E+06
 0.11662000E+03 -0.33014E+06
 0.11667001E+03 -0.30554E+06
 0.11672000E+03 -0.22624E+06
 0.11677000E+03 -0.11598E+06
 0.11682001E+03  0.10731E+05
 0.11687000E+03  0.14190E+06
 0.11692001E+03  0.26262E+06
 0.11697000E+03  0.36430E+06
 0.11702000E+03  0.44876E+06
 0.11707001E+03  0.49912E+06
 0.11712000E+03  0.48651E+06
 0.11717001E+03  0.41006E+06
 0.11722000E+03  0.30377E+06
 0.11727000E+03  0.18452E+06
 0.11732001E+03  0.48365E+05
 0.11737000E+03 -0.10206E+06
 0.11742001E+03 -0.27654E+06
 0.11747000E+03 -0.46614E+06
 0.11752000E+03 -0.64332E+06
 0.11757001E+03 -0.79487E+06
 0.11762000E+03 -0.91710E+06
 0.11767001E+03 -0.99993E+06
 0.11772000E+03 -0.10343E+07
 0.11777000E+03 -0.10286E+07
 0.11782001E+03 -0.99095E+06
 0.11787000E+03 -0.93018E+06
 0.11792001E+03 -0.83978E+06
 0.11797000E+03 -0.71347E+06
 0.11802000E+03 -0.57173E+06
 0.11807001E+03 -0.41274E+06
 0.11812000E+03 -0.22830E+06
 0.11817001E+03 -0.41734E+05
 0.11822000E+03  0.12510E+06
 0.11827000E+03  0.25152E+06
 0.11832001E+03  0.31477E+06
 0.11837000E+03  0.31142E+06
 0.11842001E+03  0.24981E+06
 0.11847000E+03  0.15219E+06
 0.11852000E+03  0.55192E+05
 0.11857001E+03 -0.19910E+05
 0.11862000E+03 -0.79429E+05
 0.11867001E+03 -0.12459E+06
 0.11872000E+03 -0.14962E+06
 0.11877000E+03 -0.16738E+06
 0.11882001E+03 -0.18787E+06
 0.11887000E+03 -0.20244E+06
 0.11892001E+03 -0.20127E+06
 0.11897000E+03 -0.17413E+06
 0.11902000E+03 -0.10432E+06
 0.11907001E+03 -0.27950E+04
 0.11912000E+03  0.98792E+05
 0.11917001E+03  0.19485E+06
 0.11922000E+03  0.28200E+06
 0.11927000E+03  0.34778E+06
 0.11932001E+03  0.38768E+06
 0.11937000E+03  0.41474E+06
 0.11942001E+03  0.45794E+06
 0.11947000E+03  0.50960E+06
 0.11952000E+03  0.55632E+06
 0.11957001E+03  0.61251E+06
 0.11962000E+03  0.66345E+06
 0.11967001E+03  0.68564E+06
 0.11972000E+03  0.68319E+06
 0.11977000E+03  0.66240E+06
 0.11982001E+03  0.60782E+06
 0.11987000E+03  0.50876E+06
 0.11992001E+03  0.37257E+06
 0.11997000E+03  0.21175E+06
 0.12002000E+03  0.50422E+05
 0.12007001E+03 -0.85677E+05
 0.12012000E+03 -0.17262E+06
 0.12017001E+03 -0.21596E+06
 0.12022000E+03 -0.24520E+06
 0.12027000E+03 -0.26959E+06
 0.12032001E+03 -0.28954E+06
 0.12037000E+03 -0.29898E+06
 0.12042001E+03 -0.28475E+06
 0.12047000E+03 -0.23849E+06
 0.12052000E+03 -0.16174E+06
 0.12057001E+03 -0.59498E+05
 0.12062000E+03  0.61728E+05
 0.12067001E+03  0.18236E+06
 0.12072000E+03  0.29994E+06
 0.12077000E+03  0.42540E+06
 0.12082001E+03  0.53754E+06
 0.12087000E+03  0.59546E+06
 0.12092001E+03  0.57063E+06
 0.12097000E+03  0.45327E+06
 0.12102000E+03  0.25099E+06
 0.12107001E+03  0.65550E+04
 0.12112000E+03 -0.23078E+06
 0.12117001E+03 -0.44167E+06
 0.12122000E+03 -0.60327E+06
 0.12127000E+03 -0.69834E+06
 0.12132001E+03 -0.73518E+06
 0.12137000E+03 -0.72606E+06
 0.12142001E+03 -0.69159E+06
 0.12147000E+03 -0.65499E+06
 0.12152000E+03 -0.62110E+06
 0.12157001E+03 -0.58676E+06
 0.12162000E+03 -0.55640E+06
 0.12167001E+03 -0.53898E+06
 0.12172000E+03 -0.52174E+06
 0.12177000E+03 -0.47252E+06
 0.12182001E+03 -0.38142E+06
 0.12187000E+03 -0.27231E+06
 0.12192001E+03 -0.18397E+06
 0.12197000E+03 -0.13612E+06
 0.12202000E+03 -0.12202E+06
 0.12207001E+03 -0.12932E+06
 0.12212000E+03 -0.14967E+06
 0.12217001E+03 -0.17838E+06
 0.12222000E+03 -0.20915E+06
 0.12227000E+03 -0.24105E+06
 0.12232001E+03 -0.27935E+06
 0.12237000E+03 -0.32224E+06
 0.12242001E+03 -0.35563E+06
 0.12247000E+03 -0.36184E+06
 0.12252000E+03 -0.32828E+06
 0.12257001E+03 -0.26675E+06
 0.12262000E+03 -0.20488E+06
 0.12267001E+03 -0.14385E+06
 0.12272000E+03 -0.76412E+05
 0.12277000E+03  0.22700E+03
 0.12282001E+03  0.98018E+05
 0.12287000E+03  0.21108E+06
 0.12292001E+03  0.30417E+06
 0.12297000E+03  0.33711E+06
 0.12302000E+03  0.30130E+06
 0.12307001E+03  0.21988E+06
 0.12312000E+03  0.11865E+06
 0.12317001E+03  0.22221E+05
 0.12322000E+03 -0.56492E+05
 0.12327000E+03 -0.11942E+06
 0.12332001E+03 -0.16914E+06
 0.12337000E+03 -0.20518E+06
 0.12342001E+03 -0.22345E+06
 0.12347000E+03 -0.22572E+06
 0.12352000E+03 -0.20703E+06
 0.12357001E+03 -0.15500E+06
 0.12362000E+03 -0.79829E+05
 0.12367001E+03  0.67390E+04
 0.12372000E+03  0.11488E+06
 0.12377000E+03  0.24791E+06
 0.12382001E+03  0.37132E+06
 0.12387000E+03  0.44323E+06
 0.12392001E+03  0.45252E+06
 0.12397000E+03  0.40928E+06
 0.12402000E+03  0.34813E+06
 0.12407001E+03  0.29356E+06
 0.12412000E+03  0.24202E+06
 0.12417001E+03  0.19432E+06
 0.12422001E+03  0.15188E+06
 0.12427001E+03  0.13435E+06
 0.12432000E+03  0.16293E+06
 0.12437000E+03  0.23011E+06
 0.12442001E+03  0.32069E+06
 0.12447001E+03  0.40992E+06
 0.12452001E+03  0.47680E+06
 0.12457000E+03  0.52626E+06
 0.12462000E+03  0.57164E+06
 0.12467001E+03  0.60420E+06
 0.12472001E+03  0.59862E+06
 0.12477001E+03  0.53858E+06
 0.12482000E+03  0.41747E+06
 0.12487000E+03  0.24320E+06
 0.12492001E+03  0.44709E+05
 0.12497001E+03 -0.13017E+06
 0.12502001E+03 -0.23886E+06
 0.12507000E+03 -0.27949E+06
 0.12512000E+03 -0.27268E+06
 0.12517001E+03 -0.23438E+06
 0.12522001E+03 -0.18009E+06
 0.12527001E+03 -0.13270E+06
 0.12532000E+03 -0.11137E+06
 0.12537000E+03 -0.10475E+06
 0.12542001E+03 -0.92765E+05
 0.12547001E+03 -0.74266E+05
 0.12552001E+03 -0.51824E+05
 0.12557000E+03 -0.30659E+05
 0.12562000E+03 -0.29605E+05
 0.12567001E+03 -0.63629E+05
 0.12572001E+03 -0.12481E+06
 0.12577001E+03 -0.19091E+06
 0.12582000E+03 -0.23270E+06
 0.12587000E+03 -0.23398E+06
 0.12592001E+03 -0.20326E+06
 0.12597001E+03 -0.15543E+06
 0.12602001E+03 -0.10562E+06
 0.12607000E+03 -0.65621E+05
 0.12612000E+03 -0.38391E+05
 0.12617001E+03 -0.27937E+05
 0.12622001E+03 -0.38909E+05
 0.12627001E+03 -0.67941E+05
 0.12632000E+03 -0.11153E+06
 0.12637000E+03 -0.16945E+06
 0.12642001E+03 -0.23887E+06
 0.12647001E+03 -0.30382E+06
 0.12652001E+03 -0.34790E+06
 0.12657000E+03 -0.37357E+06
 0.12662000E+03 -0.38859E+06
 0.12667001E+03 -0.39626E+06
 0.12672001E+03 -0.39202E+06
 0.12677001E+03 -0.37464E+06
 0.12682000E+03 -0.34310E+06
 0.12687000E+03 -0.27650E+06
 0.12692001E+03 -0.16191E+06
 0.12697001E+03 -0.12409E+05
 0.12702001E+03  0.15085E+06
 0.12707000E+03  0.29971E+06
 0.12712000E+03  0.41107E+06
 0.12717001E+03  0.47959E+06
 0.12722001E+03  0.50120E+06
 0.12727001E+03  0.47818E+06
 0.12732000E+03  0.42287E+06
 0.12737000E+03  0.35000E+06
 0.12742001E+03  0.27607E+06
 0.12747001E+03  0.20933E+06
 0.12752001E+03  0.14480E+06
 0.12757000E+03  0.80298E+05
 0.12762000E+03  0.30178E+05
 0.12767001E+03  0.24080E+04
 0.12772001E+03 -0.85570E+04
 0.12777001E+03 -0.88730E+04
 0.12782000E+03  0.85700E+03
 0.12787000E+03  0.34101E+05
 0.12792001E+03  0.10406E+06
 0.12797001E+03  0.20889E+06
 0.12802000E+03  0.33209E+06
 0.12806999E+03  0.44636E+06
 0.12812000E+03  0.52859E+06
 0.12817000E+03  0.57028E+06
 0.12822000E+03  0.57502E+06
 0.12827000E+03  0.55856E+06
 0.12831999E+03  0.53240E+06
 0.12837000E+03  0.48446E+06
 0.12842000E+03  0.40229E+06
 0.12847000E+03  0.30568E+06
 0.12852000E+03  0.22779E+06
 0.12856999E+03  0.18237E+06
 0.12862000E+03  0.16622E+06
 0.12867000E+03  0.15870E+06
 0.12872000E+03  0.13590E+06
 0.12877000E+03  0.96198E+05
 0.12881999E+03  0.51392E+05
 0.12887000E+03  0.11699E+05
 0.12892000E+03 -0.20360E+05
 0.12897000E+03 -0.40214E+05
 0.12902000E+03 -0.36325E+05
 0.12906999E+03 -0.51390E+04
 0.12912000E+03  0.40640E+05
 0.12917000E+03  0.79641E+05
 0.12922000E+03  0.10633E+06
 0.12927000E+03  0.13115E+06
 0.12931999E+03  0.15859E+06
 0.12937000E+03  0.18934E+06
 0.12942000E+03  0.22486E+06
 0.12947000E+03  0.26727E+06
 0.12952000E+03  0.31084E+06
 0.12956999E+03  0.33974E+06
 0.12962000E+03  0.34762E+06
 0.12967000E+03  0.33231E+06
 0.12972000E+03  0.29888E+06
 0.12977000E+03  0.26005E+06
 0.12981999E+03  0.20917E+06
 0.12987000E+03  0.13934E+06
 0.12992000E+03  0.60454E+05
 0.12997000E+03 -0.17278E+05
 0.13002000E+03 -0.96961E+05
 0.13006999E+03 -0.18034E+06
 0.13012000E+03 -0.24480E+06
 0.13017000E+03 -0.27369E+06
 0.13022000E+03 -0.26929E+06
 0.13027000E+03 -0.24030E+06
 0.13031999E+03 -0.19960E+06
 0.13037000E+03 -0.15403E+06
 0.13042000E+03 -0.10535E+06
 0.13047000E+03 -0.57347E+05
 0.13052000E+03 -0.20809E+05
 0.13056999E+03  0.23140E+04
 0.13062000E+03  0.18392E+05
 0.13067000E+03  0.14469E+05
 0.13072000E+03 -0.26847E+05
 0.13077000E+03 -0.10098E+06
 0.13081999E+03 -0.19320E+06
 0.13087000E+03 -0.29289E+06
 0.13092000E+03 -0.39225E+06
 0.13097000E+03 -0.47846E+06
 0.13102000E+03 -0.53438E+06
 0.13106999E+03 -0.55917E+06
 0.13112000E+03 -0.56548E+06
 0.13117000E+03 -0.56450E+06
 0.13122000E+03 -0.56153E+06
 0.13127000E+03 -0.55580E+06
 0.13131999E+03 -0.54660E+06
 0.13137000E+03 -0.52553E+06
 0.13142000E+03 -0.48962E+06
 0.13147000E+03 -0.44891E+06
 0.13152000E+03 -0.41185E+06
 0.13156999E+03 -0.38958E+06
 0.13162000E+03 -0.38814E+06
 0.13167000E+03 -0.39611E+06
 0.13172000E+03 -0.40420E+06
 0.13177000E+03 -0.41373E+06
 0.13181999E+03 -0.41566E+06
 0.13187000E+03 -0.40664E+06
 0.13192000E+03 -0.39202E+06
 0.13197000E+03 -0.36297E+06
 0.13202000E+03 -0.32387E+06
 0.13206999E+03 -0.28420E+06
 0.13212000E+03 -0.23515E+06
 0.13217000E+03 -0.17479E+06
 0.13222000E+03 -0.10643E+06
 0.13227000E+03 -0.38324E+05
 0.13231999E+03  0.16626E+05
 0.13237000E+03  0.58704E+05
 0.13242000E+03  0.88227E+05
 0.13247000E+03  0.10252E+06
 0.13252000E+03  0.10207E+06
 0.13256999E+03  0.84328E+05
 0.13262000E+03  0.50893E+05
 0.13267000E+03  0.88220E+04
 0.13272000E+03 -0.41265E+05
 0.13277000E+03 -0.92926E+05
 0.13281999E+03 -0.13146E+06
 0.13287000E+03 -0.15215E+06
 0.13292000E+03 -0.15421E+06
 0.13297000E+03 -0.14979E+06
 0.13302000E+03 -0.14914E+06
 0.13306999E+03 -0.13791E+06
 0.13312000E+03 -0.10819E+06
 0.13317000E+03 -0.59683E+05
 0.13322000E+03  0.62910E+04
 0.13327000E+03  0.78816E+05
 0.13331999E+03  0.14788E+06
 0.13337000E+03  0.20412E+06
 0.13342000E+03  0.23997E+06
 0.13347000E+03  0.25494E+06
 0.13352000E+03  0.25751E+06
 0.13356999E+03  0.26220E+06
 0.13362000E+03  0.27902E+06
 0.13367000E+03  0.30350E+06
 0.13372000E+03  0.32560E+06
 0.13377000E+03  0.34225E+06
 0.13381999E+03  0.34004E+06
 0.13387000E+03  0.30628E+06
 0.13392000E+03  0.24894E+06
 0.13397000E+03  0.17807E+06
 0.13402000E+03  0.10234E+06
 0.13406999E+03  0.35578E+05
 0.13412000E+03 -0.47880E+04
 0.13417000E+03 -0.72030E+04
 0.13422000E+03  0.21189E+05
 0.13427000E+03  0.56818E+05
 0.13431999E+03  0.75137E+05
 0.13437000E+03  0.70851E+05
 0.13442000E+03  0.60107E+05
 0.13447000E+03  0.59374E+05
 0.13452000E+03  0.74881E+05
 0.13456999E+03  0.11057E+06
 0.13462000E+03  0.16949E+06
 0.13467000E+03  0.24860E+06
 0.13472000E+03  0.33707E+06
 0.13477000E+03  0.41946E+06
 0.13481999E+03  0.47861E+06
 0.13487000E+03  0.50313E+06
 0.13492000E+03  0.49746E+06
 0.13497000E+03  0.47299E+06
 0.13502000E+03  0.43919E+06
 0.13506999E+03  0.39969E+06
 0.13512000E+03  0.35433E+06
 0.13517000E+03  0.29839E+06
 0.13522000E+03  0.22296E+06
 0.13527000E+03  0.14153E+06
 0.13531999E+03  0.72163E+05
 0.13537000E+03  0.82880E+04
 0.13542000E+03 -0.55086E+05
 0.13547000E+03 -0.10686E+06
 0.13552000E+03 -0.13456E+06
 0.13556999E+03 -0.13299E+06
 0.13562000E+03 -0.10578E+06
 0.13567000E+03 -0.72033E+05
 0.13572000E+03 -0.50660E+05
 0.13577000E+03 -0.43322E+05
 0.13581999E+03 -0.50040E+05
 0.13587000E+03 -0.70822E+05
 0.13592000E+03 -0.10123E+06
 0.13597000E+03 -0.13625E+06
 0.13602000E+03 -0.16701E+06
 0.13606999E+03 -0.18748E+06
 0.13612000E+03 -0.19614E+06
 0.13617000E+03 -0.19028E+06
 0.13622000E+03 -0.16192E+06
 0.13627000E+03 -0.10302E+06
 0.13631999E+03 -0.14835E+05
 0.13637000E+03  0.91187E+05
 0.13642000E+03  0.19559E+06
 0.13647000E+03  0.28798E+06
 0.13652000E+03  0.36071E+06
 0.13656999E+03  0.39982E+06
 0.13662000E+03  0.39655E+06
 0.13667000E+03  0.34968E+06
 0.13672000E+03  0.26858E+06
 0.13677000E+03  0.16416E+06
 0.13681999E+03  0.46399E+05
 0.13687000E+03 -0.70402E+05
 0.13692000E+03 -0.17599E+06
 0.13697000E+03 -0.27250E+06
 0.13702000E+03 -0.36163E+06
 0.13706999E+03 -0.43875E+06
 0.13712000E+03 -0.50009E+06
 0.13717000E+03 -0.53600E+06
 0.13722000E+03 -0.53613E+06
 0.13727000E+03 -0.49950E+06
 0.13731999E+03 -0.44135E+06
 0.13737000E+03 -0.38380E+06
 0.13742000E+03 -0.33635E+06
 0.13747000E+03 -0.29056E+06
 0.13752000E+03 -0.23063E+06
 0.13756999E+03 -0.15405E+06
 0.13762000E+03 -0.72542E+05
 0.13767000E+03 -0.37640E+04
 0.13772000E+03  0.37658E+05
 0.13777000E+03  0.48766E+05
 0.13781999E+03  0.33248E+05
 0.13787000E+03 -0.27260E+04
 0.13792000E+03 -0.44840E+05
 0.13797000E+03 -0.80499E+05
 0.13802000E+03 -0.11094E+06
 0.13806999E+03 -0.13536E+06
 0.13812000E+03 -0.14951E+06
 0.13817000E+03 -0.15126E+06
 0.13822000E+03 -0.13394E+06
 0.13827000E+03 -0.96420E+05
 0.13831999E+03 -0.49826E+05
 0.13837000E+03 -0.44670E+04
 0.13842000E+03  0.43478E+05
 0.13847000E+03  0.95066E+05
 0.13852000E+03  0.14085E+06
 0.13856999E+03  0.18662E+06
 0.13862000E+03  0.24734E+06
 0.13867000E+03  0.32750E+06
 0.13872000E+03  0.41437E+06
 0.13877000E+03  0.48511E+06
 0.13881999E+03  0.52527E+06
 0.13887000E+03  0.53176E+06
 0.13892000E+03  0.50909E+06
 0.13897000E+03  0.45996E+06
 0.13902000E+03  0.38790E+06
 0.13906999E+03  0.30311E+06
 0.13912000E+03  0.21698E+06
 0.13917000E+03  0.13968E+06
 0.13922000E+03  0.71291E+05
 0.13927000E+03  0.61330E+04
 0.13931999E+03 -0.56443E+05
 0.13937000E+03 -0.11001E+06
 0.13942000E+03 -0.14868E+06
 0.13947000E+03 -0.17512E+06
 0.13952000E+03 -0.18811E+06
 0.13956999E+03 -0.18517E+06
 0.13962000E+03 -0.17223E+06
 0.13967000E+03 -0.16196E+06
 0.13972000E+03 -0.16618E+06
 0.13977000E+03 -0.18203E+06
 0.13981999E+03 -0.20193E+06
 0.13987000E+03 -0.22596E+06
 0.13992000E+03 -0.25485E+06
 0.13997000E+03 -0.28382E+06
 0.14002000E+03 -0.31146E+06
 0.14006999E+03 -0.34237E+06
 0.14012000E+03 -0.37484E+06
 0.14017000E+03 -0.40048E+06
 0.14022000E+03 -0.41304E+06
 0.14027000E+03 -0.41740E+06
 0.14031999E+03 -0.41900E+06
 0.14037000E+03 -0.41459E+06
 0.14042000E+03 -0.40380E+06
 0.14047000E+03 -0.38699E+06
 0.14052000E+03 -0.36124E+06
 0.14056999E+03 -0.32455E+06
 0.14062000E+03 -0.27570E+06
 0.14067000E+03 -0.21747E+06
 0.14072000E+03 -0.15832E+06
 0.14077000E+03 -0.10629E+06
 0.14081999E+03 -0.64103E+05
 0.14087000E+03 -0.34172E+05
 0.14092000E+03 -0.20850E+05
 0.14097000E+03 -0.22401E+05
 0.14102000E+03 -0.28846E+05
 0.14106999E+03 -0.32028E+05
 0.14112000E+03 -0.27749E+05
 0.14117000E+03 -0.58570E+04
 0.14122000E+03  0.38707E+05
 0.14127000E+03  0.95433E+05
 0.14131999E+03  0.14999E+06
 0.14137000E+03  0.19275E+06
 0.14142000E+03  0.22174E+06
 0.14147000E+03  0.24207E+06
 0.14152000E+03  0.26896E+06
 0.14156999E+03  0.31544E+06
 0.14162000E+03  0.37370E+06
 0.14167000E+03  0.42760E+06
 0.14172000E+03  0.46326E+06
 0.14177000E+03  0.47198E+06
 0.14181999E+03  0.45896E+06
 0.14187000E+03  0.43304E+06
 0.14192000E+03  0.39962E+06
 0.14197000E+03  0.36672E+06
 0.14202000E+03  0.33328E+06
 0.14206999E+03  0.28906E+06
 0.14212000E+03  0.23072E+06
 0.14217000E+03  0.16050E+06
 0.14222000E+03  0.83242E+05
 0.14227000E+03  0.22320E+04
 0.14231999E+03 -0.80724E+05
 0.14237000E+03 -0.15302E+06
 0.14242000E+03 -0.19875E+06
 0.14247000E+03 -0.21014E+06
 0.14252000E+03 -0.18732E+06
 0.14256999E+03 -0.13925E+06
 0.14262000E+03 -0.73950E+05
 0.14267000E+03  0.29000E+03
 0.14272000E+03  0.72227E+05
 0.14277000E+03  0.13215E+06
 0.14281999E+03  0.17243E+06
 0.14287000E+03  0.19940E+06
 0.14292000E+03  0.22378E+06
 0.14297000E+03  0.25039E+06
 0.14302000E+03  0.28228E+06
 0.14306999E+03  0.31496E+06
 0.14312000E+03  0.33934E+06
 0.14317000E+03  0.34579E+06
 0.14322000E+03  0.32946E+06
 0.14327000E+03  0.29431E+06
 0.14331999E+03  0.25021E+06
 0.14337000E+03  0.20144E+06
 0.14342000E+03  0.14135E+06
 0.14347000E+03  0.76063E+05
 0.14352000E+03  0.23746E+05
 0.14356999E+03 -0.96020E+04
 0.14362000E+03 -0.24713E+05
 0.14367000E+03 -0.22168E+05
 0.14372000E+03 -0.60010E+04
 0.14377000E+03  0.19040E+05
 0.14381999E+03  0.45018E+05
 0.14387000E+03  0.61715E+05
 0.14392000E+03  0.64727E+05
 0.14397000E+03  0.50584E+05
 0.14402000E+03  0.12708E+05
 0.14406999E+03 -0.52007E+05
 0.14412000E+03 -0.14110E+06
 0.14417000E+03 -0.24038E+06
 0.14422000E+03 -0.32940E+06
 0.14427000E+03 -0.39499E+06
 0.14431999E+03 -0.42857E+06
 0.14437000E+03 -0.43320E+06
 0.14442000E+03 -0.41774E+06
 0.14447000E+03 -0.38691E+06
 0.14452000E+03 -0.34580E+06
 0.14456999E+03 -0.29171E+06
 0.14462000E+03 -0.22070E+06
 0.14467000E+03 -0.13439E+06
 0.14472000E+03 -0.39865E+05
 0.14477000E+03  0.55920E+05
 0.14481999E+03  0.15542E+06
 0.14487000E+03  0.25552E+06
 0.14492000E+03  0.34119E+06
 0.14497000E+03  0.39818E+06
 0.14502000E+03  0.41930E+06
 0.14506999E+03  0.40576E+06
 0.14512000E+03  0.36652E+06
 0.14517000E+03  0.30951E+06
 0.14522000E+03  0.24476E+06
 0.14527000E+03  0.18288E+06
 0.14531999E+03  0.12542E+06
 0.14537000E+03  0.74672E+05
 0.14542000E+03  0.31332E+05
 0.14547000E+03 -0.69100E+04
 0.14552000E+03 -0.41510E+05
 0.14556999E+03 -0.77438E+05
 0.14562000E+03 -0.11547E+06
 0.14567000E+03 -0.15115E+06
 0.14572000E+03 -0.18108E+06
 0.14577000E+03 -0.20128E+06
 0.14581999E+03 -0.20274E+06
 0.14587000E+03 -0.18232E+06
 0.14592000E+03 -0.15495E+06
 0.14597000E+03 -0.13744E+06
 0.14602000E+03 -0.13637E+06
 0.14606999E+03 -0.15135E+06
 0.14612000E+03 -0.17767E+06
 0.14617000E+03 -0.20641E+06
 0.14622000E+03 -0.22845E+06
 0.14627000E+03 -0.23887E+06
 0.14631999E+03 -0.23707E+06
 0.14637000E+03 -0.23094E+06
 0.14642000E+03 -0.22269E+06
 0.14647000E+03 -0.20388E+06
 0.14652000E+03 -0.17412E+06
 0.14656999E+03 -0.13848E+06
 0.14662000E+03 -0.96091E+05
 0.14667000E+03 -0.44614E+05
 0.14672000E+03  0.15235E+05
 0.14677000E+03  0.80743E+05
 0.14681999E+03  0.14438E+06
 0.14687000E+03  0.19878E+06
 0.14692000E+03  0.24072E+06
 0.14697000E+03  0.26367E+06
 0.14702000E+03  0.26166E+06
 0.14706999E+03  0.23906E+06
 0.14712000E+03  0.20668E+06
 0.14717000E+03  0.17443E+06
 0.14722000E+03  0.14548E+06
 0.14727000E+03  0.11462E+06
 0.14731999E+03  0.81834E+05
 0.14737000E+03  0.50323E+05
 0.14742000E+03  0.14752E+05
 0.14747000E+03 -0.24455E+05
 0.14752000E+03 -0.61291E+05
 0.14756999E+03 -0.96455E+05
 0.14762000E+03 -0.12688E+06
 0.14767000E+03 -0.14173E+06
 0.14772000E+03 -0.13494E+06
 0.14777000E+03 -0.11052E+06
 0.14781999E+03 -0.79923E+05
 0.14787000E+03 -0.48941E+05
 0.14792000E+03 -0.10236E+05
 0.14797000E+03  0.39468E+05
 0.14802000E+03  0.94395E+05
 0.14806999E+03  0.14715E+06
 0.14812000E+03  0.19058E+06
 0.14817000E+03  0.21674E+06
 0.14822000E+03  0.21738E+06
 0.14827000E+03  0.19348E+06
 0.14831999E+03  0.15115E+06
 0.14837000E+03  0.93718E+05
 0.14842000E+03  0.28346E+05
 0.14847000E+03 -0.36403E+05
 0.14852000E+03 -0.96230E+05
 0.14856999E+03 -0.15169E+06
 0.14862000E+03 -0.20520E+06
 0.14867000E+03 -0.25589E+06
 0.14872000E+03 -0.29742E+06
 0.14877000E+03 -0.32062E+06
 0.14881999E+03 -0.32049E+06
 0.14887000E+03 -0.29496E+06
 0.14892000E+03 -0.25011E+06
 0.14897000E+03 -0.19914E+06
 0.14902000E+03 -0.15149E+06
 0.14906999E+03 -0.11222E+06
