-0.38800001E+01  0.72160E+04
-0.38300002E+01  0.12362E+05
-0.37800002E+01  0.15592E+05
-0.37300000E+01  0.18959E+05
-0.36800001E+01  0.23160E+05
-0.36300001E+01  0.26731E+05
-0.35800002E+01  0.27776E+05
-0.35300002E+01  0.25418E+05
-0.34800000E+01  0.16693E+05
-0.34300001E+01  0.99800E+03
-0.33800001E+01 -0.18401E+05
-0.33300002E+01 -0.38363E+05
-0.32800002E+01 -0.57562E+05
-0.32300000E+01 -0.73760E+05
-0.31800001E+01 -0.84509E+05
-0.31300001E+01 -0.88937E+05
-0.30800002E+01 -0.85231E+05
-0.30300002E+01 -0.72508E+05
-0.29800000E+01 -0.52975E+05
-0.29300001E+01 -0.32587E+05
-0.28800001E+01 -0.15219E+05
-0.28299999E+01  0.97900E+03
-0.27800002E+01  0.17649E+05
-0.27300000E+01  0.34117E+05
-0.26800001E+01  0.51743E+05
-0.26300001E+01  0.72201E+05
-0.25799999E+01  0.94309E+05
-0.25300002E+01  0.11789E+06
-0.24800000E+01  0.14093E+06
-0.24300001E+01  0.16013E+06
-0.23800001E+01  0.17450E+06
-0.23299999E+01  0.18328E+06
-0.22800002E+01  0.18799E+06
-0.22300000E+01  0.18968E+06
-0.21800001E+01  0.18674E+06
-0.21300001E+01  0.17851E+06
-0.20799999E+01  0.16819E+06
-0.20300002E+01  0.16027E+06
-0.19800001E+01  0.15402E+06
-0.19300001E+01  0.14626E+06
-0.18800001E+01  0.13692E+06
-0.18300002E+01  0.12791E+06
-0.17800000E+01  0.11642E+06
-0.17300000E+01  0.99062E+05
-0.16800001E+01  0.77783E+05
-0.16300001E+01  0.52073E+05
-0.15800002E+01  0.20704E+05
-0.15300000E+01 -0.15677E+05
-0.14800000E+01 -0.53470E+05
-0.14300001E+01 -0.85092E+05
-0.13800001E+01 -0.10886E+06
-0.13300002E+01 -0.12456E+06
-0.12800000E+01 -0.13111E+06
-0.12300000E+01 -0.13236E+06
-0.11800001E+01 -0.13326E+06
-0.11300001E+01 -0.13681E+06
-0.10800002E+01 -0.14187E+06
-0.10300000E+01 -0.14684E+06
-0.98000002E+00 -0.15169E+06
-0.93000007E+00 -0.15770E+06
-0.88000011E+00 -0.16404E+06
-0.83000016E+00 -0.16782E+06
-0.77999997E+00 -0.16826E+06
-0.73000002E+00 -0.16630E+06
-0.68000007E+00 -0.16487E+06
-0.63000011E+00 -0.16243E+06
-0.58000016E+00 -0.15752E+06
-0.52999997E+00 -0.14917E+06
-0.48000002E+00 -0.13512E+06
-0.43000007E+00 -0.11698E+06
-0.38000011E+00 -0.97059E+05
-0.33000016E+00 -0.77177E+05
-0.27999997E+00 -0.57272E+05
-0.23000002E+00 -0.37526E+05
-0.18000007E+00 -0.17357E+05
-0.13000011E+00  0.31440E+04
-0.80000162E-01  0.23361E+05
-0.29999971E-01  0.40530E+05
 0.19999981E-01  0.49833E+05
 0.69999933E-01  0.49864E+05
 0.11999989E+00  0.39293E+05
 0.17000008E+00  0.22753E+05
 0.21999979E+00  0.55800E+04
 0.26999998E+00 -0.10536E+05
 0.32000017E+00 -0.20852E+05
 0.36999989E+00 -0.23217E+05
 0.42000008E+00 -0.16745E+05
 0.46999979E+00 -0.39130E+04
 0.51999998E+00  0.10011E+05
 0.57000017E+00  0.24038E+05
 0.61999989E+00  0.38573E+05
 0.67000008E+00  0.53925E+05
 0.71999979E+00  0.65476E+05
 0.76999998E+00  0.68946E+05
 0.82000017E+00  0.67107E+05
 0.86999989E+00  0.62569E+05
 0.92000008E+00  0.55256E+05
 0.96999979E+00  0.46111E+05
 0.10200000E+01  0.41030E+05
 0.10700002E+01  0.41625E+05
 0.11199999E+01  0.42891E+05
 0.11700001E+01  0.43635E+05
 0.12199998E+01  0.43209E+05
 0.12700000E+01  0.42273E+05
 0.13200002E+01  0.41632E+05
 0.13699999E+01  0.40599E+05
 0.14200001E+01  0.43120E+05
 0.14699998E+01  0.47985E+05
 0.15200000E+01  0.50708E+05
 0.15700002E+01  0.51062E+05
 0.16199999E+01  0.49072E+05
 0.16700001E+01  0.46059E+05
 0.17199998E+01  0.42712E+05
 0.17700000E+01  0.38776E+05
 0.18200002E+01  0.33803E+05
 0.18699999E+01  0.26924E+05
 0.19200001E+01  0.19015E+05
 0.19699998E+01  0.13853E+05
 0.20200000E+01  0.12356E+05
 0.20700002E+01  0.10919E+05
 0.21199999E+01  0.97080E+04
 0.21700001E+01  0.99330E+04
 0.22199998E+01  0.12204E+05
 0.22700000E+01  0.15063E+05
 0.23200002E+01  0.15817E+05
 0.23699999E+01  0.17203E+05
 0.24200001E+01  0.19597E+05
 0.24699998E+01  0.22085E+05
 0.25200000E+01  0.24343E+05
 0.25700002E+01  0.24127E+05
 0.26199999E+01  0.20688E+05
 0.26700001E+01  0.13796E+05
 0.27199998E+01  0.40550E+04
 0.27700000E+01 -0.81140E+04
 0.28200002E+01 -0.21918E+05
 0.28699999E+01 -0.36430E+05
 0.29200001E+01 -0.52246E+05
 0.29699998E+01 -0.67361E+05
 0.30200000E+01 -0.80253E+05
 0.30700002E+01 -0.92999E+05
 0.31199999E+01 -0.10414E+06
 0.31700001E+01 -0.11366E+06
 0.32199998E+01 -0.12132E+06
 0.32700000E+01 -0.12270E+06
 0.33200002E+01 -0.11971E+06
 0.33699999E+01 -0.11419E+06
 0.34200001E+01 -0.10528E+06
 0.34699998E+01 -0.94909E+05
 0.35200000E+01 -0.82493E+05
 0.35700002E+01 -0.67321E+05
 0.36199999E+01 -0.49639E+05
 0.36700001E+01 -0.28450E+05
 0.37199998E+01 -0.53470E+04
 0.37700000E+01  0.18929E+05
 0.38200002E+01  0.43658E+05
 0.38699999E+01  0.66812E+05
 0.39200001E+01  0.87867E+05
 0.39699998E+01  0.10610E+06
 0.40200000E+01  0.12154E+06
 0.40700002E+01  0.13457E+06
 0.41199999E+01  0.14444E+06
 0.41700001E+01  0.14880E+06
 0.42200003E+01  0.14629E+06
 0.42700005E+01  0.13820E+06
 0.43199997E+01  0.12644E+06
 0.43699999E+01  0.11122E+06
 0.44200001E+01  0.93111E+05
 0.44700003E+01  0.75196E+05
 0.45200005E+01  0.59484E+05
 0.45699997E+01  0.45897E+05
 0.46199999E+01  0.33758E+05
 0.46700001E+01  0.22827E+05
 0.47200003E+01  0.12419E+05
 0.47700005E+01  0.17270E+04
 0.48199997E+01 -0.11212E+05
 0.48699999E+01 -0.26113E+05
 0.49200001E+01 -0.41262E+05
 0.49700003E+01 -0.55934E+05
 0.50200005E+01 -0.67713E+05
 0.50699997E+01 -0.76122E+05
 0.51199999E+01 -0.80618E+05
 0.51700001E+01 -0.83686E+05
 0.52200003E+01 -0.89224E+05
 0.52700005E+01 -0.95572E+05
 0.53199997E+01 -0.10107E+06
 0.53699999E+01 -0.10462E+06
 0.54200001E+01 -0.10563E+06
 0.54700003E+01 -0.10284E+06
 0.55200005E+01 -0.94315E+05
 0.55699997E+01 -0.82912E+05
 0.56199999E+01 -0.68671E+05
 0.56700001E+01 -0.50126E+05
 0.57200003E+01 -0.31192E+05
 0.57700005E+01 -0.12446E+05
 0.58199997E+01  0.65470E+04
 0.58699999E+01  0.27273E+05
 0.59200001E+01  0.52034E+05
 0.59700003E+01  0.76774E+05
 0.60200005E+01  0.97478E+05
 0.60699997E+01  0.11142E+06
 0.61199999E+01  0.11991E+06
 0.61700001E+01  0.12346E+06
 0.62200003E+01  0.11984E+06
 0.62700005E+01  0.11358E+06
 0.63199997E+01  0.10475E+06
 0.63699999E+01  0.92995E+05
 0.64200001E+01  0.78991E+05
 0.64700003E+01  0.58769E+05
 0.65200005E+01  0.32931E+05
 0.65699997E+01  0.19120E+04
 0.66199999E+01 -0.29111E+05
 0.66700001E+01 -0.53274E+05
 0.67200003E+01 -0.70313E+05
 0.67700005E+01 -0.79787E+05
 0.68199997E+01 -0.83966E+05
 0.68699999E+01 -0.83603E+05
 0.69200001E+01 -0.76496E+05
 0.69700003E+01 -0.64140E+05
 0.70200005E+01 -0.49607E+05
 0.70699997E+01 -0.37011E+05
 0.71199999E+01 -0.27675E+05
 0.71700001E+01 -0.19603E+05
 0.72200003E+01 -0.14146E+05
 0.72700005E+01 -0.11921E+05
 0.73199997E+01 -0.10918E+05
 0.73699999E+01 -0.11533E+05
 0.74200001E+01 -0.13872E+05
 0.74700003E+01 -0.16963E+05
 0.75200005E+01 -0.22087E+05
 0.75699997E+01 -0.31540E+05
 0.76199999E+01 -0.46544E+05
 0.76700001E+01 -0.62555E+05
 0.77200003E+01 -0.75568E+05
 0.77700005E+01 -0.84275E+05
 0.78199997E+01 -0.83094E+05
 0.78699999E+01 -0.73383E+05
 0.79200001E+01 -0.59167E+05
 0.79700003E+01 -0.41688E+05
 0.80200005E+01 -0.22650E+05
 0.80699997E+01  0.48700E+03
 0.81199999E+01  0.27922E+05
 0.81700001E+01  0.57763E+05
 0.82200003E+01  0.87433E+05
 0.82700005E+01  0.11131E+06
 0.83199997E+01  0.12644E+06
 0.83699999E+01  0.13273E+06
 0.84200001E+01  0.12985E+06
 0.84700003E+01  0.11867E+06
 0.85200005E+01  0.10100E+06
 0.85699997E+01  0.81504E+05
 0.86199999E+01  0.63943E+05
 0.86700001E+01  0.49492E+05
 0.87200003E+01  0.39650E+05
 0.87700005E+01  0.30819E+05
 0.88199997E+01  0.23455E+05
 0.88699999E+01  0.20555E+05
 0.89200001E+01  0.22619E+05
 0.89700003E+01  0.30723E+05
 0.90200005E+01  0.41213E+05
 0.90699997E+01  0.52974E+05
 0.91199999E+01  0.62632E+05
 0.91700001E+01  0.66998E+05
 0.92200003E+01  0.68523E+05
 0.92700005E+01  0.68908E+05
 0.93199997E+01  0.68574E+05
 0.93699999E+01  0.63891E+05
 0.94200001E+01  0.55590E+05
 0.94700003E+01  0.44209E+05
 0.95200005E+01  0.30118E+05
 0.95699997E+01  0.17087E+05
 0.96199999E+01  0.33050E+04
 0.96700001E+01 -0.10652E+05
 0.97200003E+01 -0.23644E+05
 0.97700005E+01 -0.34732E+05
 0.98199997E+01 -0.40383E+05
 0.98699999E+01 -0.42429E+05
 0.99200001E+01 -0.43045E+05
 0.99700003E+01 -0.44902E+05
 0.10020000E+02 -0.50029E+05
 0.10070000E+02 -0.54525E+05
 0.10120000E+02 -0.57916E+05
 0.10170000E+02 -0.61813E+05
 0.10220000E+02 -0.66041E+05
 0.10270000E+02 -0.71068E+05
 0.10320000E+02 -0.74549E+05
 0.10370000E+02 -0.75639E+05
 0.10420000E+02 -0.75543E+05
 0.10470000E+02 -0.72663E+05
 0.10520000E+02 -0.66263E+05
 0.10570000E+02 -0.56078E+05
 0.10620000E+02 -0.42238E+05
 0.10670000E+02 -0.27183E+05
 0.10720000E+02 -0.13138E+05
 0.10770000E+02 -0.27140E+04
 0.10820000E+02  0.20980E+04
 0.10870000E+02  0.26930E+04
 0.10920000E+02  0.63000E+03
 0.10970000E+02 -0.38210E+04
 0.11020000E+02 -0.11264E+05
 0.11070000E+02 -0.20628E+05
 0.11120000E+02 -0.28766E+05
 0.11170000E+02 -0.38202E+05
 0.11220000E+02 -0.51256E+05
 0.11270000E+02 -0.65222E+05
 0.11320000E+02 -0.77251E+05
 0.11370000E+02 -0.86302E+05
 0.11420000E+02 -0.93227E+05
 0.11470000E+02 -0.96146E+05
 0.11520000E+02 -0.94312E+05
 0.11570000E+02 -0.89566E+05
 0.11620000E+02 -0.83266E+05
 0.11670000E+02 -0.75563E+05
 0.11720000E+02 -0.67818E+05
 0.11770000E+02 -0.64039E+05
 0.11820000E+02 -0.63357E+05
 0.11870000E+02 -0.63060E+05
 0.11920000E+02 -0.60921E+05
 0.11970000E+02 -0.54423E+05
 0.12020000E+02 -0.42597E+05
 0.12070000E+02 -0.24370E+05
 0.12120000E+02 -0.37530E+04
 0.12170001E+02  0.15635E+05
 0.12220000E+02  0.33897E+05
 0.12270000E+02  0.50734E+05
 0.12320001E+02  0.66928E+05
 0.12370000E+02  0.79571E+05
 0.12420001E+02  0.87786E+05
 0.12470000E+02  0.92756E+05
 0.12520000E+02  0.95959E+05
 0.12570001E+02  0.10019E+06
 0.12620000E+02  0.10182E+06
 0.12670001E+02  0.10169E+06
 0.12720000E+02  0.10260E+06
 0.12770000E+02  0.10310E+06
 0.12820001E+02  0.10570E+06
 0.12870000E+02  0.11026E+06
 0.12920001E+02  0.11479E+06
 0.12970000E+02  0.11942E+06
 0.13020000E+02  0.12349E+06
 0.13070001E+02  0.12531E+06
 0.13120000E+02  0.12247E+06
 0.13170001E+02  0.11397E+06
 0.13220000E+02  0.10051E+06
 0.13270000E+02  0.85314E+05
 0.13320001E+02  0.71169E+05
 0.13370000E+02  0.58071E+05
 0.13420001E+02  0.43511E+05
 0.13470000E+02  0.25823E+05
 0.13520000E+02  0.87580E+04
 0.13570001E+02 -0.65230E+04
 0.13620000E+02 -0.19982E+05
 0.13670001E+02 -0.30157E+05
 0.13720000E+02 -0.37600E+05
 0.13770000E+02 -0.44449E+05
 0.13820001E+02 -0.52488E+05
 0.13870000E+02 -0.61043E+05
 0.13920001E+02 -0.71357E+05
 0.13970000E+02 -0.83806E+05
 0.14020000E+02 -0.98966E+05
 0.14070001E+02 -0.11643E+06
 0.14120000E+02 -0.13455E+06
 0.14170001E+02 -0.15367E+06
 0.14220000E+02 -0.17166E+06
 0.14270000E+02 -0.18856E+06
 0.14320001E+02 -0.20192E+06
 0.14370000E+02 -0.20820E+06
 0.14420001E+02 -0.21114E+06
 0.14470000E+02 -0.20938E+06
 0.14520000E+02 -0.19727E+06
 0.14570001E+02 -0.17644E+06
 0.14620000E+02 -0.15120E+06
 0.14670001E+02 -0.12438E+06
 0.14720000E+02 -0.95645E+05
 0.14770000E+02 -0.63122E+05
 0.14820001E+02 -0.29363E+05
 0.14870000E+02  0.32670E+04
 0.14920001E+02  0.34337E+05
 0.14970000E+02  0.63311E+05
 0.15020000E+02  0.88332E+05
 0.15070001E+02  0.10692E+06
 0.15120000E+02  0.11946E+06
 0.15170001E+02  0.12820E+06
 0.15220000E+02  0.13668E+06
 0.15270000E+02  0.14291E+06
 0.15320001E+02  0.14403E+06
 0.15370000E+02  0.14282E+06
 0.15420001E+02  0.14047E+06
 0.15470000E+02  0.13835E+06
 0.15520000E+02  0.13696E+06
 0.15570001E+02  0.13706E+06
 0.15620000E+02  0.14069E+06
 0.15670001E+02  0.14711E+06
 0.15720000E+02  0.15402E+06
 0.15770000E+02  0.16001E+06
 0.15820001E+02  0.16594E+06
 0.15870000E+02  0.17200E+06
 0.15920001E+02  0.17648E+06
 0.15970000E+02  0.17774E+06
 0.16020000E+02  0.17603E+06
 0.16070000E+02  0.16986E+06
 0.16119999E+02  0.15684E+06
 0.16170002E+02  0.13642E+06
 0.16220001E+02  0.10854E+06
 0.16270000E+02  0.75228E+05
 0.16320000E+02  0.38787E+05
 0.16369999E+02  0.23300E+04
 0.16420002E+02 -0.33412E+05
 0.16470001E+02 -0.68423E+05
 0.16520000E+02 -0.10135E+06
 0.16570000E+02 -0.13028E+06
 0.16619999E+02 -0.15061E+06
 0.16670002E+02 -0.16299E+06
 0.16720001E+02 -0.16903E+06
 0.16770000E+02 -0.16780E+06
 0.16820000E+02 -0.15997E+06
 0.16869999E+02 -0.14811E+06
 0.16920002E+02 -0.13580E+06
 0.16970001E+02 -0.12612E+06
 0.17020000E+02 -0.12014E+06
 0.17070000E+02 -0.11373E+06
 0.17119999E+02 -0.10585E+06
 0.17170002E+02 -0.96424E+05
 0.17220001E+02 -0.84626E+05
 0.17270000E+02 -0.73723E+05
 0.17320000E+02 -0.63591E+05
 0.17369999E+02 -0.49892E+05
 0.17420002E+02 -0.31583E+05
 0.17470001E+02 -0.11789E+05
 0.17520000E+02  0.88190E+04
 0.17570000E+02  0.29860E+05
 0.17619999E+02  0.49958E+05
 0.17670002E+02  0.67547E+05
 0.17720001E+02  0.80566E+05
 0.17770000E+02  0.89861E+05
 0.17820000E+02  0.94687E+05
 0.17869999E+02  0.93254E+05
 0.17920002E+02  0.86540E+05
 0.17970001E+02  0.74638E+05
 0.18020000E+02  0.59814E+05
 0.18070000E+02  0.43221E+05
 0.18119999E+02  0.22407E+05
 0.18170002E+02  0.78600E+03
 0.18220001E+02 -0.17632E+05
 0.18270000E+02 -0.32167E+05
 0.18320000E+02 -0.42678E+05
 0.18369999E+02 -0.49713E+05
 0.18420002E+02 -0.53064E+05
 0.18470001E+02 -0.52382E+05
 0.18520000E+02 -0.46627E+05
 0.18570000E+02 -0.36361E+05
 0.18619999E+02 -0.26527E+05
 0.18670002E+02 -0.20843E+05
 0.18720001E+02 -0.17163E+05
 0.18770000E+02 -0.16282E+05
 0.18820000E+02 -0.18808E+05
 0.18869999E+02 -0.20226E+05
 0.18920002E+02 -0.20138E+05
 0.18970001E+02 -0.20815E+05
 0.19020000E+02 -0.23076E+05
 0.19070000E+02 -0.26193E+05
 0.19119999E+02 -0.28912E+05
 0.19170002E+02 -0.31007E+05
 0.19220001E+02 -0.33238E+05
 0.19270000E+02 -0.32904E+05
 0.19320000E+02 -0.27457E+05
 0.19369999E+02 -0.17424E+05
 0.19420002E+02 -0.38420E+04
 0.19470001E+02  0.10400E+05
 0.19520000E+02  0.24704E+05
 0.19570000E+02  0.37941E+05
 0.19619999E+02  0.49733E+05
 0.19670002E+02  0.60692E+05
 0.19720001E+02  0.70422E+05
 0.19770000E+02  0.80043E+05
 0.19820000E+02  0.86696E+05
 0.19869999E+02  0.88014E+05
 0.19920002E+02  0.84321E+05
 0.19970001E+02  0.75311E+05
 0.20020000E+02  0.61648E+05
 0.20070000E+02  0.45471E+05
 0.20119999E+02  0.28963E+05
 0.20170002E+02  0.13527E+05
 0.20220001E+02 -0.72000E+03
 0.20270000E+02 -0.14184E+05
 0.20320000E+02 -0.23526E+05
 0.20369999E+02 -0.29259E+05
 0.20420002E+02 -0.33000E+05
 0.20470001E+02 -0.32379E+05
 0.20520000E+02 -0.29747E+05
 0.20570000E+02 -0.28372E+05
 0.20619999E+02 -0.29031E+05
 0.20670002E+02 -0.31912E+05
 0.20720001E+02 -0.34337E+05
 0.20770000E+02 -0.34210E+05
 0.20820000E+02 -0.35014E+05
 0.20869999E+02 -0.39509E+05
 0.20920002E+02 -0.48224E+05
 0.20970001E+02 -0.64916E+05
 0.21020000E+02 -0.96984E+05
 0.21070000E+02 -0.16509E+06
 0.21119999E+02 -0.31268E+06
 0.21170002E+02 -0.56348E+06
 0.21220001E+02 -0.85048E+06
 0.21270000E+02 -0.10028E+07
 0.21320000E+02 -0.86830E+06
 0.21369999E+02 -0.42926E+06
 0.21420002E+02  0.14376E+06
 0.21470001E+02  0.52997E+06
 0.21520000E+02  0.56381E+06
 0.21570000E+02  0.20323E+06
 0.21619999E+02 -0.55288E+06
 0.21670002E+02 -0.14093E+07
 0.21720001E+02 -0.20790E+07
 0.21770000E+02 -0.26948E+07
 0.21820000E+02 -0.33687E+07
 0.21869999E+02 -0.39355E+07
 0.21920002E+02 -0.41465E+07
 0.21970001E+02 -0.33951E+07
 0.22020000E+02 -0.21773E+07
 0.22070000E+02 -0.14807E+07
 0.22119999E+02 -0.37313E+06
 0.22170002E+02  0.12064E+07
 0.22220001E+02  0.22156E+07
 0.22270000E+02  0.28644E+07
 0.22320000E+02  0.30347E+07
 0.22369999E+02  0.25217E+07
 0.22420002E+02  0.24508E+07
 0.22470001E+02  0.26611E+07
 0.22520000E+02  0.21402E+07
 0.22570000E+02  0.21038E+07
 0.22619999E+02  0.22957E+07
 0.22670002E+02  0.14814E+07
 0.22720001E+02  0.87038E+06
 0.22770000E+02  0.90844E+06
 0.22820000E+02  0.14188E+07
 0.22869999E+02  0.21404E+07
 0.22920002E+02  0.19342E+07
 0.22970001E+02  0.13398E+07
 0.23020000E+02  0.13779E+07
 0.23070000E+02  0.14958E+07
 0.23119999E+02  0.70151E+06
 0.23170002E+02 -0.37481E+06
 0.23220001E+02  0.59412E+05
 0.23270000E+02  0.11835E+07
 0.23320000E+02  0.84887E+06
 0.23369999E+02 -0.81196E+06
 0.23420002E+02 -0.19722E+07
 0.23470001E+02 -0.23434E+07
 0.23520000E+02 -0.27895E+07
 0.23570000E+02 -0.29238E+07
 0.23619999E+02 -0.21269E+07
 0.23670002E+02 -0.51999E+06
 0.23720001E+02  0.40382E+06
 0.23770000E+02 -0.35999E+05
 0.23820000E+02 -0.91800E+06
 0.23869999E+02 -0.21605E+07
 0.23920002E+02 -0.25277E+07
 0.23970001E+02 -0.34794E+06
 0.24020000E+02  0.17577E+07
 0.24070000E+02  0.14302E+07
 0.24119999E+02  0.32819E+06
 0.24170002E+02 -0.37358E+06
 0.24220001E+02  0.43286E+06
 0.24270000E+02  0.15347E+07
 0.24320000E+02 -0.14068E+06
 0.24369999E+02 -0.25366E+07
 0.24420002E+02 -0.27809E+07
 0.24470001E+02 -0.13537E+07
 0.24520000E+02  0.29823E+06
 0.24570000E+02  0.65984E+06
 0.24619999E+02 -0.36421E+06
 0.24670002E+02 -0.65138E+06
 0.24720001E+02  0.96752E+06
 0.24770000E+02  0.15709E+07
 0.24820000E+02  0.34362E+06
 0.24869999E+02  0.23436E+06
 0.24920002E+02  0.52606E+06
 0.24970001E+02  0.35064E+06
 0.25020000E+02  0.89984E+06
 0.25070000E+02  0.14910E+07
 0.25119999E+02  0.11782E+07
 0.25170002E+02  0.35830E+06
 0.25220001E+02  0.25052E+05
 0.25270000E+02  0.18681E+06
 0.25320000E+02  0.35254E+06
 0.25369999E+02 -0.54561E+06
 0.25420002E+02 -0.15814E+07
 0.25470001E+02 -0.19009E+06
 0.25520000E+02  0.16465E+07
 0.25570000E+02  0.17113E+07
 0.25619999E+02  0.70120E+06
 0.25670002E+02 -0.23518E+06
 0.25720001E+02 -0.10595E+06
 0.25770000E+02  0.70965E+06
 0.25820000E+02  0.96128E+06
 0.25869999E+02  0.48425E+06
 0.25920002E+02  0.39534E+06
 0.25970001E+02  0.51180E+06
 0.26020000E+02  0.64562E+06
 0.26070000E+02  0.82140E+06
 0.26119999E+02  0.58566E+06
 0.26170002E+02  0.83106E+06
 0.26220001E+02  0.17921E+07
 0.26270000E+02  0.22228E+07
 0.26320000E+02  0.19548E+07
 0.26369999E+02  0.11342E+07
 0.26420002E+02  0.21160E+06
 0.26470001E+02  0.92507E+05
 0.26520000E+02 -0.53823E+06
 0.26570000E+02 -0.19853E+07
 0.26619999E+02 -0.26638E+07
 0.26670002E+02 -0.23594E+07
 0.26720001E+02 -0.23921E+07
 0.26770000E+02 -0.32056E+07
 0.26820000E+02 -0.33339E+07
 0.26869999E+02 -0.25920E+07
 0.26920002E+02 -0.25150E+07
 0.26970001E+02 -0.36951E+07
 0.27020000E+02 -0.42659E+07
 0.27070000E+02 -0.34250E+07
 0.27119999E+02 -0.28329E+07
 0.27170002E+02 -0.26489E+07
 0.27220001E+02 -0.26305E+07
 0.27270000E+02 -0.25878E+07
 0.27320000E+02 -0.15912E+07
 0.27369999E+02 -0.13901E+06
 0.27420002E+02  0.15000E+07
 0.27470001E+02  0.28971E+07
 0.27520000E+02  0.31908E+07
 0.27570000E+02  0.33261E+07
 0.27619999E+02  0.39860E+07
 0.27670002E+02  0.48900E+07
 0.27720001E+02  0.56235E+07
 0.27770000E+02  0.58096E+07
 0.27820000E+02  0.50073E+07
 0.27869999E+02  0.31068E+07
 0.27920002E+02  0.10893E+07
 0.27970001E+02 -0.69250E+04
 0.28020000E+02  0.45691E+06
 0.28070000E+02  0.11496E+07
 0.28119999E+02 -0.89803E+05
 0.28169998E+02 -0.15689E+07
 0.28220001E+02 -0.14741E+07
 0.28270000E+02 -0.15069E+07
 0.28320000E+02 -0.24632E+07
 0.28369999E+02 -0.31893E+07
 0.28419998E+02 -0.35057E+07
 0.28470001E+02 -0.36328E+07
 0.28520000E+02 -0.29014E+07
 0.28570000E+02 -0.16959E+07
 0.28619999E+02 -0.88423E+06
 0.28669998E+02 -0.67045E+05
 0.28720001E+02  0.89420E+06
 0.28770000E+02  0.20726E+07
 0.28820000E+02  0.37789E+07
 0.28869999E+02  0.44353E+07
 0.28919998E+02  0.35770E+07
 0.28970001E+02  0.35989E+07
 0.29020000E+02  0.51511E+07
 0.29070000E+02  0.64132E+07
 0.29119999E+02  0.60687E+07
 0.29169998E+02  0.46288E+07
 0.29220001E+02  0.34164E+07
 0.29270000E+02  0.31099E+07
 0.29320000E+02  0.32193E+07
 0.29369999E+02  0.30480E+07
 0.29419998E+02  0.29657E+07
 0.29470001E+02  0.29611E+07
 0.29520000E+02  0.24223E+07
 0.29570000E+02  0.20330E+07
 0.29619999E+02  0.19071E+07
 0.29669998E+02  0.79892E+06
 0.29720001E+02 -0.10224E+07
 0.29770000E+02 -0.18849E+07
 0.29820000E+02 -0.17367E+07
 0.29869999E+02 -0.22117E+07
 0.29919998E+02 -0.34645E+07
 0.29970001E+02 -0.39320E+07
 0.30020000E+02 -0.31237E+07
 0.30070000E+02 -0.17857E+07
 0.30119999E+02 -0.57096E+06
 0.30169998E+02 -0.16626E+06
 0.30220001E+02 -0.10704E+06
 0.30270000E+02  0.33448E+06
 0.30320000E+02  0.67738E+06
 0.30369999E+02  0.11202E+07
 0.30419998E+02  0.12922E+07
 0.30470001E+02  0.44722E+06
 0.30520000E+02  0.16935E+06
 0.30570000E+02  0.68212E+06
 0.30619999E+02  0.44880E+06
 0.30669998E+02  0.26552E+06
 0.30720001E+02  0.35816E+06
 0.30770000E+02  0.93457E+05
 0.30820000E+02  0.68962E+05
 0.30869999E+02 -0.25604E+05
 0.30919998E+02 -0.14413E+06
 0.30970001E+02  0.68067E+06
 0.31020000E+02  0.13637E+07
 0.31070000E+02  0.89931E+06
 0.31119999E+02  0.59714E+06
 0.31169998E+02  0.43503E+06
 0.31220001E+02  0.31315E+06
 0.31270000E+02  0.81008E+06
 0.31320000E+02  0.81753E+06
 0.31369999E+02  0.85493E+06
 0.31419998E+02  0.12513E+07
 0.31470001E+02  0.87071E+06
 0.31520000E+02  0.65266E+06
 0.31570000E+02  0.11106E+07
 0.31619999E+02  0.16147E+07
 0.31669998E+02  0.19276E+07
 0.31720001E+02  0.18077E+07
 0.31770000E+02  0.13991E+07
 0.31820000E+02  0.10814E+07
 0.31869999E+02  0.78651E+06
 0.31919998E+02 -0.85155E+05
 0.31970001E+02 -0.10405E+07
 0.32020000E+02 -0.14882E+07
 0.32070000E+02 -0.24491E+07
 0.32119999E+02 -0.32733E+07
 0.32169998E+02 -0.31132E+07
 0.32220001E+02 -0.32248E+07
 0.32270000E+02 -0.30649E+07
 0.32320000E+02 -0.21444E+07
 0.32369999E+02 -0.12699E+07
 0.32419998E+02 -0.44098E+06
 0.32470001E+02 -0.55303E+06
 0.32520000E+02 -0.12610E+07
 0.32570000E+02 -0.10949E+07
 0.32619999E+02 -0.77157E+06
 0.32669998E+02 -0.10352E+07
 0.32720001E+02 -0.15915E+07
 0.32770000E+02 -0.17929E+07
 0.32820000E+02 -0.13230E+07
 0.32869999E+02 -0.11030E+07
 0.32919998E+02 -0.15634E+07
 0.32970001E+02 -0.20381E+07
 0.33020000E+02 -0.20878E+07
 0.33070000E+02 -0.17107E+07
 0.33119999E+02 -0.11984E+07
 0.33169998E+02 -0.11278E+07
 0.33220001E+02 -0.17687E+07
 0.33270000E+02 -0.25267E+07
 0.33320000E+02 -0.30184E+07
 0.33369999E+02 -0.32457E+07
 0.33419998E+02 -0.33889E+07
 0.33470001E+02 -0.40256E+07
 0.33520000E+02 -0.46665E+07
 0.33570000E+02 -0.48212E+07
 0.33619999E+02 -0.46187E+07
 0.33669998E+02 -0.35990E+07
 0.33720001E+02 -0.22186E+07
 0.33770000E+02 -0.15088E+07
 0.33820000E+02 -0.13251E+07
 0.33869999E+02 -0.11069E+07
 0.33919998E+02 -0.72786E+06
 0.33970001E+02 -0.19419E+06
 0.34020000E+02  0.24667E+06
 0.34070000E+02  0.33350E+06
 0.34119999E+02  0.28066E+06
 0.34169998E+02  0.69476E+06
 0.34220001E+02  0.14172E+07
 0.34270000E+02  0.16370E+07
 0.34320000E+02  0.16580E+07
 0.34369999E+02  0.15466E+07
 0.34419998E+02  0.15414E+07
 0.34470001E+02  0.21541E+07
 0.34520000E+02  0.24193E+07
 0.34570000E+02  0.20083E+07
 0.34619999E+02  0.14816E+07
 0.34669998E+02  0.10169E+07
 0.34720001E+02  0.30498E+06
 0.34770000E+02 -0.58688E+06
 0.34820000E+02 -0.12273E+07
 0.34869999E+02 -0.17299E+07
 0.34919998E+02 -0.15699E+07
 0.34970001E+02 -0.59185E+06
 0.35020000E+02  0.26408E+06
 0.35070000E+02  0.62242E+06
 0.35119999E+02  0.66276E+06
 0.35169998E+02  0.54016E+06
 0.35220001E+02  0.30264E+06
 0.35270000E+02  0.47966E+06
 0.35320000E+02  0.13535E+07
 0.35369999E+02  0.19153E+07
 0.35419998E+02  0.13658E+07
 0.35470001E+02  0.32149E+06
 0.35520000E+02 -0.21519E+06
 0.35570000E+02 -0.53570E+06
 0.35619999E+02 -0.12660E+07
 0.35669998E+02 -0.13722E+07
 0.35720001E+02 -0.15338E+06
 0.35770000E+02  0.11883E+07
 0.35820000E+02  0.21131E+07
 0.35869999E+02  0.27774E+07
 0.35919998E+02  0.26716E+07
 0.35970001E+02  0.20595E+07
 0.36020000E+02  0.16104E+07
 0.36070000E+02  0.11468E+07
 0.36119999E+02  0.71985E+05
 0.36169998E+02 -0.15304E+07
 0.36220001E+02 -0.23345E+07
 0.36270000E+02 -0.19718E+07
 0.36320000E+02 -0.13094E+07
 0.36369999E+02 -0.74486E+06
 0.36419998E+02 -0.40028E+06
 0.36470001E+02  0.15055E+05
 0.36520000E+02 -0.81190E+04
 0.36570000E+02 -0.74361E+06
 0.36619999E+02 -0.10664E+07
 0.36669998E+02 -0.13059E+07
 0.36720001E+02 -0.20699E+07
 0.36770000E+02 -0.27469E+07
 0.36820000E+02 -0.32118E+07
 0.36869999E+02 -0.34968E+07
 0.36919998E+02 -0.31782E+07
 0.36970001E+02 -0.23401E+07
 0.37020000E+02 -0.12220E+07
 0.37070000E+02 -0.12664E+06
 0.37119999E+02  0.20940E+06
 0.37169998E+02  0.24984E+05
 0.37220001E+02 -0.22020E+06
 0.37270000E+02 -0.87898E+06
 0.37320000E+02 -0.15019E+07
 0.37369999E+02 -0.15083E+07
 0.37419998E+02 -0.12092E+07
 0.37470001E+02 -0.50391E+06
 0.37520000E+02  0.14229E+06
 0.37570000E+02  0.94233E+05
 0.37619999E+02  0.10099E+05
 0.37669998E+02  0.18914E+05
 0.37720001E+02 -0.22964E+06
 0.37770000E+02 -0.74224E+06
 0.37820000E+02 -0.13602E+07
 0.37869999E+02 -0.18856E+07
 0.37919998E+02 -0.20494E+07
 0.37970001E+02 -0.12032E+07
 0.38020000E+02  0.31868E+06
 0.38070000E+02  0.17307E+07
 0.38119999E+02  0.28915E+07
 0.38169998E+02  0.35875E+07
 0.38220001E+02  0.35589E+07
 0.38270000E+02  0.22564E+07
 0.38320000E+02  0.39541E+06
 0.38369999E+02 -0.37142E+06
 0.38419998E+02 -0.30294E+06
 0.38470001E+02 -0.49335E+06
 0.38520000E+02 -0.10124E+07
 0.38570000E+02 -0.12698E+07
 0.38619999E+02 -0.14934E+07
 0.38669998E+02 -0.15623E+07
 0.38720001E+02 -0.48697E+06
 0.38770000E+02  0.55120E+06
 0.38820000E+02  0.60277E+06
 0.38869999E+02  0.63502E+06
 0.38919998E+02  0.11528E+06
 0.38970001E+02 -0.13729E+07
 0.39020000E+02 -0.26992E+07
 0.39070000E+02 -0.30928E+07
 0.39119999E+02 -0.25954E+07
 0.39169998E+02 -0.21677E+07
 0.39220001E+02 -0.20462E+07
 0.39270000E+02 -0.16411E+07
 0.39320000E+02 -0.15049E+07
 0.39369999E+02 -0.18792E+07
 0.39419998E+02 -0.16135E+07
 0.39470001E+02  0.16366E+06
 0.39520000E+02  0.22559E+07
 0.39570000E+02  0.29795E+07
 0.39619999E+02  0.25301E+07
 0.39669998E+02  0.17954E+07
 0.39720001E+02  0.19589E+07
 0.39770000E+02  0.21752E+07
 0.39820000E+02  0.43196E+06
 0.39869999E+02 -0.18087E+07
 0.39919998E+02 -0.33478E+07
 0.39970001E+02 -0.48301E+07
 0.40020000E+02 -0.56460E+07
 0.40070000E+02 -0.46713E+07
 0.40119999E+02 -0.23781E+07
 0.40169998E+02 -0.70624E+06
 0.40220001E+02 -0.55165E+06
 0.40270000E+02 -0.16461E+07
 0.40320000E+02 -0.27885E+07
 0.40369999E+02 -0.22745E+07
 0.40419998E+02 -0.15441E+06
 0.40470001E+02  0.16415E+07
 0.40520000E+02  0.18332E+07
 0.40570000E+02  0.79891E+06
 0.40619999E+02 -0.85632E+06
 0.40669998E+02 -0.17656E+07
 0.40720001E+02 -0.30901E+06
 0.40770000E+02  0.31011E+07
 0.40820000E+02  0.61897E+07
 0.40869999E+02  0.75085E+07
 0.40919998E+02  0.80403E+07
 0.40970001E+02  0.88990E+07
 0.41020000E+02  0.96220E+07
 0.41070000E+02  0.93719E+07
 0.41119999E+02  0.82528E+07
 0.41169998E+02  0.61195E+07
 0.41220001E+02  0.21209E+07
 0.41270000E+02 -0.29020E+07
 0.41320000E+02 -0.62117E+07
 0.41369999E+02 -0.61780E+07
 0.41419998E+02 -0.36148E+07
 0.41470001E+02  0.22597E+06
 0.41520000E+02  0.39757E+07
 0.41570000E+02  0.56764E+07
 0.41619999E+02  0.50894E+07
 0.41669998E+02  0.38808E+07
 0.41720001E+02  0.29377E+07
 0.41770000E+02  0.17519E+07
 0.41820000E+02  0.12700E+06
 0.41869999E+02 -0.89604E+06
 0.41919998E+02 -0.10039E+07
 0.41970001E+02 -0.49289E+06
 0.42020000E+02  0.10388E+07
 0.42070000E+02  0.34101E+07
 0.42119999E+02  0.57723E+07
 0.42169998E+02  0.67937E+07
 0.42220001E+02  0.57779E+07
 0.42270000E+02  0.31525E+07
 0.42320000E+02  0.31382E+06
 0.42369999E+02 -0.12091E+07
 0.42419998E+02 -0.16860E+07
 0.42470001E+02 -0.12330E+07
 0.42520000E+02 -0.10956E+06
 0.42570000E+02  0.52094E+06
 0.42619999E+02  0.91454E+06
 0.42669998E+02  0.11196E+07
 0.42720001E+02  0.50828E+06
 0.42770000E+02 -0.57416E+06
 0.42820000E+02 -0.17853E+07
 0.42869999E+02 -0.24522E+07
 0.42919998E+02 -0.21508E+07
 0.42970001E+02 -0.16942E+07
 0.43020000E+02 -0.15832E+07
 0.43070000E+02 -0.16998E+07
 0.43119999E+02 -0.14627E+07
 0.43169998E+02 -0.11760E+07
 0.43220001E+02 -0.21767E+07
 0.43270000E+02 -0.41237E+07
 0.43320000E+02 -0.54318E+07
 0.43369999E+02 -0.55411E+07
 0.43419998E+02 -0.46408E+07
 0.43470001E+02 -0.30572E+07
 0.43520000E+02 -0.10289E+07
 0.43570000E+02  0.14120E+07
 0.43619999E+02  0.36138E+07
 0.43669998E+02  0.51535E+07
 0.43720001E+02  0.61323E+07
 0.43770000E+02  0.68758E+07
 0.43820000E+02  0.77221E+07
 0.43869999E+02  0.79058E+07
 0.43919998E+02  0.66771E+07
 0.43970001E+02  0.44591E+07
 0.44020000E+02  0.20885E+07
 0.44070000E+02  0.32061E+06
 0.44119999E+02 -0.41739E+06
 0.44169998E+02 -0.61483E+06
 0.44220001E+02 -0.46344E+06
 0.44270000E+02 -0.12092E+06
 0.44320000E+02 -0.13345E+06
 0.44369999E+02  0.42456E+06
 0.44419998E+02  0.16524E+07
 0.44470001E+02  0.22431E+07
 0.44520000E+02  0.20268E+07
 0.44570000E+02  0.15979E+07
 0.44619999E+02  0.14585E+07
 0.44669998E+02  0.16618E+07
 0.44720001E+02  0.22349E+07
 0.44770000E+02  0.30358E+07
 0.44820000E+02  0.34632E+07
 0.44869999E+02  0.32350E+07
 0.44919998E+02  0.26792E+07
 0.44970001E+02  0.21360E+07
 0.45020000E+02  0.11719E+07
 0.45070000E+02 -0.51767E+06
 0.45119999E+02 -0.24293E+07
 0.45169998E+02 -0.38105E+07
 0.45220001E+02 -0.39110E+07
 0.45270000E+02 -0.25203E+07
 0.45320000E+02 -0.47352E+06
 0.45369999E+02  0.13316E+07
 0.45419998E+02  0.31064E+07
 0.45470001E+02  0.42971E+07
 0.45520000E+02  0.36617E+07
 0.45570000E+02  0.18852E+07
 0.45619999E+02  0.31910E+06
 0.45669998E+02 -0.72004E+06
 0.45720001E+02 -0.97696E+06
 0.45770000E+02 -0.51914E+06
 0.45820000E+02 -0.40922E+06
 0.45869999E+02 -0.82642E+06
 0.45919998E+02 -0.13718E+07
 0.45970001E+02 -0.21272E+07
 0.46020000E+02 -0.31089E+07
 0.46070000E+02 -0.43328E+07
 0.46119999E+02 -0.50742E+07
 0.46169998E+02 -0.46039E+07
 0.46220001E+02 -0.31399E+07
 0.46270000E+02 -0.15112E+07
 0.46320000E+02 -0.20468E+06
 0.46369999E+02  0.13180E+07
 0.46419998E+02  0.31158E+07
 0.46470001E+02  0.47062E+07
 0.46520000E+02  0.56245E+07
 0.46570000E+02  0.53669E+07
 0.46619999E+02  0.43295E+07
 0.46669998E+02  0.30397E+07
 0.46720001E+02  0.13272E+07
 0.46770000E+02 -0.72603E+06
 0.46820000E+02 -0.23846E+07
 0.46869999E+02 -0.29463E+07
 0.46919998E+02 -0.24428E+07
 0.46970001E+02 -0.15621E+07
 0.47020000E+02 -0.11828E+07
 0.47070000E+02 -0.14359E+07
 0.47119999E+02 -0.19500E+07
 0.47169998E+02 -0.29854E+07
 0.47220001E+02 -0.43577E+07
 0.47270000E+02 -0.57635E+07
 0.47320000E+02 -0.76301E+07
 0.47369999E+02 -0.92262E+07
 0.47419998E+02 -0.98739E+07
 0.47470001E+02 -0.97386E+07
 0.47520000E+02 -0.85154E+07
 0.47570000E+02 -0.65278E+07
 0.47619999E+02 -0.41289E+07
 0.47669998E+02 -0.17031E+07
 0.47720001E+02  0.24070E+05
 0.47770000E+02  0.93961E+06
 0.47820000E+02  0.12516E+07
 0.47869999E+02  0.16309E+07
 0.47919998E+02  0.21606E+07
 0.47970001E+02  0.28721E+07
 0.48020000E+02  0.39117E+07
 0.48070000E+02  0.44247E+07
 0.48119999E+02  0.44019E+07
 0.48169998E+02  0.36955E+07
 0.48220001E+02  0.21945E+07
 0.48270000E+02  0.10787E+07
 0.48320000E+02  0.64916E+06
 0.48369999E+02  0.64983E+06
 0.48419998E+02  0.90950E+06
 0.48470001E+02  0.11988E+07
 0.48520000E+02  0.13604E+07
 0.48570000E+02  0.98882E+06
 0.48619999E+02 -0.24820E+06
 0.48669998E+02 -0.22123E+07
 0.48720001E+02 -0.44802E+07
 0.48770000E+02 -0.66806E+07
 0.48820000E+02 -0.79309E+07
 0.48869999E+02 -0.77076E+07
 0.48919998E+02 -0.70440E+07
 0.48970001E+02 -0.67689E+07
 0.49020000E+02 -0.69379E+07
 0.49070000E+02 -0.76072E+07
 0.49119999E+02 -0.83973E+07
 0.49169998E+02 -0.87468E+07
 0.49220001E+02 -0.80711E+07
 0.49270000E+02 -0.64041E+07
 0.49320000E+02 -0.46069E+07
 0.49369999E+02 -0.31103E+07
 0.49419998E+02 -0.18431E+07
 0.49470001E+02 -0.44073E+06
 0.49520000E+02  0.98476E+06
 0.49570000E+02  0.15915E+07
 0.49619999E+02  0.13580E+07
 0.49669998E+02  0.11316E+07
 0.49720001E+02  0.15119E+07
 0.49770000E+02  0.25824E+07
 0.49820000E+02  0.40187E+07
 0.49869999E+02  0.53782E+07
 0.49919998E+02  0.61342E+07
 0.49970001E+02  0.60826E+07
 0.50020000E+02  0.58912E+07
 0.50070000E+02  0.57559E+07
 0.50119999E+02  0.49841E+07
 0.50169998E+02  0.35738E+07
 0.50220001E+02  0.19478E+07
 0.50270000E+02  0.28640E+05
 0.50320000E+02 -0.21828E+07
 0.50369999E+02 -0.41299E+07
 0.50419998E+02 -0.50028E+07
 0.50470001E+02 -0.45937E+07
 0.50520000E+02 -0.34529E+07
 0.50570000E+02 -0.22571E+07
 0.50619999E+02 -0.15400E+07
 0.50669998E+02 -0.11870E+07
 0.50720001E+02 -0.98207E+06
 0.50770000E+02 -0.10427E+07
 0.50820000E+02 -0.11309E+07
 0.50869999E+02 -0.11031E+07
 0.50919998E+02 -0.10039E+07
 0.50970001E+02 -0.10378E+07
 0.51020000E+02 -0.16327E+07
 0.51070000E+02 -0.23226E+07
 0.51119999E+02 -0.20793E+07
 0.51169998E+02 -0.10420E+07
 0.51220001E+02 -0.23846E+06
 0.51270000E+02 -0.19698E+06
 0.51320000E+02 -0.78723E+06
 0.51369999E+02 -0.13494E+07
 0.51419998E+02 -0.13319E+07
 0.51470001E+02 -0.99736E+06
 0.51520000E+02 -0.47973E+06
 0.51570000E+02  0.40790E+06
 0.51619999E+02  0.15500E+07
 0.51669998E+02  0.26360E+07
 0.51720001E+02  0.33148E+07
 0.51770000E+02  0.36153E+07
 0.51820000E+02  0.37178E+07
 0.51869999E+02  0.37397E+07
 0.51919998E+02  0.36266E+07
 0.51970001E+02  0.33438E+07
 0.52020000E+02  0.32052E+07
 0.52070000E+02  0.32152E+07
 0.52119999E+02  0.34202E+07
 0.52169998E+02  0.40832E+07
 0.52220001E+02  0.51164E+07
 0.52270000E+02  0.60719E+07
 0.52320000E+02  0.65160E+07
 0.52369999E+02  0.64402E+07
 0.52419998E+02  0.58020E+07
 0.52470001E+02  0.45170E+07
 0.52520000E+02  0.28549E+07
 0.52570000E+02  0.83560E+06
 0.52619999E+02 -0.13417E+07
 0.52669998E+02 -0.27572E+07
 0.52720001E+02 -0.29376E+07
 0.52770000E+02 -0.23555E+07
 0.52820000E+02 -0.17043E+07
 0.52869999E+02 -0.15484E+07
 0.52919998E+02 -0.21710E+07
 0.52970001E+02 -0.31488E+07
 0.53020000E+02 -0.42498E+07
 0.53070000E+02 -0.55986E+07
 0.53119999E+02 -0.68252E+07
 0.53169998E+02 -0.75895E+07
 0.53220001E+02 -0.75747E+07
 0.53270000E+02 -0.66756E+07
 0.53320000E+02 -0.54192E+07
 0.53369999E+02 -0.41170E+07
 0.53419998E+02 -0.24286E+07
 0.53470001E+02 -0.11603E+05
 0.53520000E+02  0.29363E+07
 0.53570000E+02  0.59134E+07
 0.53619999E+02  0.83343E+07
 0.53669998E+02  0.96878E+07
 0.53720001E+02  0.97805E+07
 0.53770000E+02  0.84472E+07
 0.53820000E+02  0.58578E+07
 0.53869999E+02  0.29707E+07
 0.53919998E+02  0.90316E+06
 0.53970001E+02  0.23577E+05
 0.54020000E+02  0.39703E+05
 0.54070000E+02  0.79444E+06
 0.54119999E+02  0.18352E+07
 0.54169998E+02  0.25624E+07
 0.54220001E+02  0.27558E+07
 0.54270000E+02  0.27193E+07
 0.54320000E+02  0.33025E+07
 0.54369999E+02  0.42136E+07
 0.54419998E+02  0.42778E+07
 0.54470001E+02  0.30572E+07
 0.54520000E+02  0.78092E+06
 0.54570000E+02 -0.17086E+07
 0.54619999E+02 -0.35136E+07
 0.54669998E+02 -0.42881E+07
 0.54720001E+02 -0.40321E+07
 0.54770000E+02 -0.31895E+07
 0.54820000E+02 -0.22803E+07
 0.54869999E+02 -0.15080E+07
 0.54919998E+02 -0.95780E+06
 0.54970001E+02 -0.61706E+06
 0.55020000E+02 -0.75906E+06
 0.55070000E+02 -0.14608E+07
 0.55119999E+02 -0.23215E+07
 0.55169998E+02 -0.29843E+07
 0.55220001E+02 -0.31036E+07
 0.55270000E+02 -0.29416E+07
 0.55320000E+02 -0.29619E+07
 0.55369999E+02 -0.28902E+07
 0.55419998E+02 -0.22416E+07
 0.55470001E+02 -0.11108E+07
 0.55520000E+02  0.23736E+06
 0.55570000E+02  0.19985E+07
 0.55619999E+02  0.40184E+07
 0.55669998E+02  0.58351E+07
 0.55720001E+02  0.72053E+07
 0.55770000E+02  0.78092E+07
 0.55820000E+02  0.74515E+07
 0.55869999E+02  0.62152E+07
 0.55919998E+02  0.41780E+07
 0.55970001E+02  0.14426E+07
 0.56020000E+02 -0.15317E+07
 0.56070000E+02 -0.41115E+07
 0.56119999E+02 -0.57389E+07
 0.56169998E+02 -0.62692E+07
 0.56220001E+02 -0.60724E+07
 0.56270000E+02 -0.53787E+07
 0.56320000E+02 -0.43145E+07
 0.56369999E+02 -0.30542E+07
 0.56419998E+02 -0.15883E+07
 0.56470001E+02 -0.18883E+06
 0.56520000E+02  0.74161E+06
 0.56570000E+02  0.12809E+07
 0.56619999E+02  0.15954E+07
 0.56669998E+02  0.18403E+07
 0.56720001E+02  0.21012E+07
 0.56770000E+02  0.21925E+07
 0.56820000E+02  0.21461E+07
 0.56869999E+02  0.21449E+07
 0.56919998E+02  0.22356E+07
 0.56970001E+02  0.25574E+07
 0.57020000E+02  0.33308E+07
 0.57070000E+02  0.45952E+07
 0.57119999E+02  0.58332E+07
 0.57169998E+02  0.62782E+07
 0.57220001E+02  0.57816E+07
 0.57270000E+02  0.47557E+07
 0.57320000E+02  0.35639E+07
 0.57369999E+02  0.21978E+07
 0.57419998E+02  0.71501E+06
 0.57470001E+02 -0.51718E+06
 0.57520000E+02 -0.13684E+07
 0.57570000E+02 -0.17785E+07
 0.57619999E+02 -0.16882E+07
 0.57669998E+02 -0.12557E+07
 0.57720001E+02 -0.60002E+06
 0.57770000E+02  0.19379E+06
 0.57820000E+02  0.10014E+07
 0.57869999E+02  0.14603E+07
 0.57919998E+02  0.11029E+07
 0.57970001E+02 -0.12418E+06
 0.58020000E+02 -0.19274E+07
 0.58070000E+02 -0.37690E+07
 0.58119999E+02 -0.51202E+07
 0.58169998E+02 -0.57241E+07
 0.58220001E+02 -0.54973E+07
 0.58270000E+02 -0.45823E+07
 0.58320000E+02 -0.34298E+07
 0.58369999E+02 -0.26069E+07
 0.58419998E+02 -0.22497E+07
 0.58470001E+02 -0.21584E+07
 0.58520000E+02 -0.21603E+07
 0.58570000E+02 -0.20716E+07
 0.58619999E+02 -0.17044E+07
 0.58669998E+02 -0.78740E+06
 0.58720001E+02  0.66705E+06
 0.58770000E+02  0.21016E+07
 0.58820000E+02  0.30259E+07
 0.58869999E+02  0.32755E+07
 0.58919998E+02  0.29716E+07
 0.58970001E+02  0.24563E+07
 0.59020000E+02  0.18408E+07
 0.59070000E+02  0.12965E+07
 0.59119999E+02  0.10836E+07
 0.59169998E+02  0.11669E+07
 0.59220001E+02  0.14827E+07
 0.59270000E+02  0.18925E+07
 0.59320000E+02  0.23495E+07
 0.59369999E+02  0.27972E+07
 0.59419998E+02  0.28104E+07
 0.59470001E+02  0.23019E+07
 0.59520000E+02  0.17368E+07
 0.59570000E+02  0.12947E+07
 0.59619999E+02  0.83386E+06
 0.59669998E+02  0.33444E+06
 0.59720001E+02 -0.67653E+05
 0.59770000E+02 -0.19716E+06
 0.59820000E+02 -0.14227E+06
 0.59869999E+02 -0.12720E+06
 0.59919998E+02 -0.21106E+06
 0.59970001E+02 -0.53495E+06
 0.60020000E+02 -0.14632E+07
 0.60070000E+02 -0.30848E+07
 0.60119999E+02 -0.50011E+07
 0.60170002E+02 -0.66636E+07
 0.60219997E+02 -0.76795E+07
 0.60270000E+02 -0.79635E+07
 0.60320004E+02 -0.74903E+07
 0.60369999E+02 -0.62565E+07
 0.60420002E+02 -0.44433E+07
 0.60469997E+02 -0.23454E+07
 0.60520000E+02 -0.24736E+06
 0.60570004E+02  0.16100E+07
 0.60619999E+02  0.28405E+07
 0.60670002E+02  0.31476E+07
 0.60719997E+02  0.27808E+07
 0.60770000E+02  0.21865E+07
 0.60820004E+02  0.15413E+07
 0.60869999E+02  0.92197E+06
 0.60920002E+02  0.54060E+06
 0.60969997E+02  0.52108E+06
 0.61020000E+02  0.77094E+06
 0.61070004E+02  0.11294E+07
 0.61119999E+02  0.13375E+07
 0.61170002E+02  0.12962E+07
 0.61219997E+02  0.10054E+07
 0.61270000E+02  0.48994E+06
 0.61320004E+02 -0.72915E+05
 0.61369999E+02 -0.73658E+06
 0.61420002E+02 -0.14420E+07
 0.61469997E+02 -0.18387E+07
 0.61520000E+02 -0.19580E+07
 0.61570004E+02 -0.21320E+07
 0.61619999E+02 -0.24297E+07
 0.61670002E+02 -0.26290E+07
 0.61719997E+02 -0.25154E+07
 0.61770000E+02 -0.21840E+07
 0.61820004E+02 -0.18474E+07
 0.61869999E+02 -0.14712E+07
 0.61920002E+02 -0.11190E+07
 0.61969997E+02 -0.89500E+06
 0.62020000E+02 -0.59613E+06
 0.62070004E+02 -0.83414E+05
 0.62119999E+02  0.47323E+06
 0.62170002E+02  0.95534E+06
 0.62219997E+02  0.14959E+07
 0.62270000E+02  0.21308E+07
 0.62320004E+02  0.26744E+07
 0.62369999E+02  0.27735E+07
 0.62420002E+02  0.22050E+07
 0.62469997E+02  0.13286E+07
 0.62520000E+02  0.66247E+06
 0.62570004E+02  0.38342E+06
 0.62619999E+02  0.43906E+06
 0.62670002E+02  0.83020E+06
 0.62719997E+02  0.15543E+07
 0.62770000E+02  0.23210E+07
 0.62820004E+02  0.29632E+07
 0.62869999E+02  0.36097E+07
 0.62920002E+02  0.42083E+07
 0.62969997E+02  0.45511E+07
 0.63020000E+02  0.44996E+07
 0.63070004E+02  0.40863E+07
 0.63119999E+02  0.33653E+07
 0.63170002E+02  0.23706E+07
 0.63219997E+02  0.12994E+07
 0.63270000E+02  0.28236E+06
 0.63320004E+02 -0.67826E+06
 0.63369999E+02 -0.16421E+07
 0.63420002E+02 -0.26103E+07
 0.63469997E+02 -0.34171E+07
 0.63520000E+02 -0.39872E+07
 0.63570004E+02 -0.43275E+07
 0.63619999E+02 -0.44620E+07
 0.63670002E+02 -0.44645E+07
 0.63719997E+02 -0.43708E+07
 0.63770000E+02 -0.42487E+07
 0.63820004E+02 -0.41065E+07
 0.63869999E+02 -0.38043E+07
 0.63920002E+02 -0.33438E+07
 0.63969997E+02 -0.28400E+07
 0.64020004E+02 -0.23092E+07
 0.64070007E+02 -0.16438E+07
 0.64120003E+02 -0.81322E+06
 0.64170006E+02  0.12405E+05
 0.64220001E+02  0.78458E+06
 0.64270004E+02  0.13951E+07
 0.64320007E+02  0.15369E+07
 0.64370003E+02  0.13030E+07
 0.64420006E+02  0.11296E+07
 0.64470001E+02  0.12100E+07
 0.64520004E+02  0.14915E+07
 0.64570007E+02  0.17381E+07
 0.64620003E+02  0.15731E+07
 0.64670006E+02  0.90957E+06
 0.64720001E+02  0.14940E+06
 0.64770004E+02 -0.26611E+06
 0.64820007E+02 -0.36266E+06
 0.64870003E+02 -0.37696E+06
 0.64920006E+02 -0.34644E+06
 0.64970001E+02 -0.15013E+06
 0.65020004E+02  0.27880E+06
 0.65070007E+02  0.99484E+06
 0.65120003E+02  0.21089E+07
 0.65170006E+02  0.33830E+07
 0.65220001E+02  0.43669E+07
 0.65270004E+02  0.48793E+07
 0.65320007E+02  0.48445E+07
 0.65370003E+02  0.42522E+07
 0.65420006E+02  0.33132E+07
 0.65470001E+02  0.22968E+07
 0.65520004E+02  0.14174E+07
 0.65570007E+02  0.72563E+06
 0.65620003E+02  0.15158E+06
 0.65670006E+02 -0.33852E+06
 0.65720001E+02 -0.92327E+06
 0.65770004E+02 -0.17491E+07
 0.65820007E+02 -0.26677E+07
 0.65870003E+02 -0.34291E+07
 0.65920006E+02 -0.38576E+07
 0.65970001E+02 -0.38593E+07
 0.66020004E+02 -0.33697E+07
 0.66070007E+02 -0.24423E+07
 0.66120003E+02 -0.12733E+07
 0.66170006E+02 -0.21149E+06
 0.66220001E+02  0.43438E+06
 0.66270004E+02  0.77737E+06
 0.66320007E+02  0.10085E+07
 0.66370003E+02  0.95976E+06
 0.66420006E+02  0.47476E+06
 0.66470001E+02 -0.33546E+06
 0.66520004E+02 -0.12736E+07
 0.66570007E+02 -0.19875E+07
 0.66620003E+02 -0.23455E+07
 0.66670006E+02 -0.24827E+07
 0.66720001E+02 -0.23152E+07
 0.66770004E+02 -0.19798E+07
 0.66820007E+02 -0.16260E+07
 0.66870003E+02 -0.11480E+07
 0.66920006E+02 -0.56093E+06
 0.66970001E+02  0.17162E+06
 0.67020004E+02  0.10216E+07
 0.67070007E+02  0.18352E+07
 0.67120003E+02  0.24854E+07
 0.67170006E+02  0.29718E+07
 0.67220001E+02  0.33594E+07
 0.67270004E+02  0.35465E+07
 0.67320007E+02  0.34713E+07
 0.67370003E+02  0.31626E+07
 0.67420006E+02  0.26807E+07
 0.67470001E+02  0.20961E+07
 0.67520004E+02  0.14169E+07
 0.67570007E+02  0.84548E+06
 0.67620003E+02  0.63312E+06
 0.67670006E+02  0.74997E+06
 0.67720001E+02  0.95518E+06
 0.67770004E+02  0.97067E+06
 0.67820007E+02  0.71024E+06
 0.67870003E+02  0.22857E+06
 0.67920006E+02 -0.29599E+06
 0.67970001E+02 -0.70941E+06
 0.68020004E+02 -0.10256E+07
 0.68070007E+02 -0.11752E+07
 0.68120003E+02 -0.11712E+07
 0.68170006E+02 -0.10677E+07
 0.68220001E+02 -0.89454E+06
 0.68270004E+02 -0.78870E+06
 0.68320007E+02 -0.78774E+06
 0.68370003E+02 -0.90184E+06
 0.68420006E+02 -0.11125E+07
 0.68470001E+02 -0.12470E+07
 0.68520004E+02 -0.11828E+07
 0.68570007E+02 -0.11028E+07
 0.68620003E+02 -0.12440E+07
 0.68670006E+02 -0.14471E+07
 0.68720001E+02 -0.14400E+07
 0.68770004E+02 -0.12616E+07
 0.68820007E+02 -0.10716E+07
 0.68870003E+02 -0.84467E+06
 0.68920006E+02 -0.48174E+06
 0.68970001E+02 -0.85406E+05
 0.69020004E+02  0.21586E+06
 0.69070007E+02  0.52104E+06
 0.69120003E+02  0.84215E+06
 0.69170006E+02  0.10655E+07
 0.69220001E+02  0.11541E+07
 0.69270004E+02  0.10134E+07
 0.69320007E+02  0.69216E+06
 0.69370003E+02  0.39060E+06
 0.69420006E+02  0.15563E+06
 0.69470001E+02 -0.44326E+05
 0.69520004E+02 -0.18629E+06
 0.69570007E+02 -0.24484E+06
 0.69620003E+02 -0.23107E+06
 0.69670006E+02 -0.11208E+06
 0.69720001E+02  0.14141E+06
 0.69770004E+02  0.46656E+06
 0.69820007E+02  0.66618E+06
 0.69870003E+02  0.50846E+06
 0.69920006E+02 -0.14302E+05
 0.69970001E+02 -0.67506E+06
 0.70020004E+02 -0.11870E+07
 0.70070007E+02 -0.13961E+07
 0.70120003E+02 -0.13009E+07
 0.70170006E+02 -0.10021E+07
 0.70220001E+02 -0.62741E+06
 0.70270004E+02 -0.20497E+06
 0.70320007E+02  0.20816E+06
 0.70370003E+02  0.55161E+06
 0.70420006E+02  0.79043E+06
 0.70470001E+02  0.80516E+06
 0.70520004E+02  0.59248E+06
 0.70570007E+02  0.29806E+06
 0.70620003E+02 -0.28141E+05
 0.70670006E+02 -0.35951E+06
 0.70720001E+02 -0.55203E+06
 0.70770004E+02 -0.58596E+06
 0.70820007E+02 -0.57880E+06
 0.70870003E+02 -0.59538E+06
 0.70920006E+02 -0.71843E+06
 0.70970001E+02 -0.10020E+07
 0.71020004E+02 -0.14083E+07
 0.71070007E+02 -0.18745E+07
 0.71120003E+02 -0.22541E+07
 0.71170006E+02 -0.23720E+07
 0.71220001E+02 -0.22187E+07
 0.71270004E+02 -0.17495E+07
 0.71320007E+02 -0.85748E+06
 0.71370003E+02  0.21364E+06
 0.71420006E+02  0.11755E+07
 0.71470001E+02  0.19553E+07
 0.71520004E+02  0.24422E+07
 0.71570007E+02  0.25224E+07
 0.71620003E+02  0.21162E+07
 0.71670006E+02  0.14367E+07
 0.71720001E+02  0.80243E+06
 0.71770004E+02  0.28874E+06
 0.71820007E+02 -0.52558E+05
 0.71870003E+02 -0.20479E+06
 0.71920006E+02 -0.11408E+06
 0.71970001E+02  0.19001E+06
 0.72020004E+02  0.54509E+06
 0.72070007E+02  0.86469E+06
 0.72120003E+02  0.10764E+07
 0.72170006E+02  0.11298E+07
 0.72220001E+02  0.95607E+06
 0.72270004E+02  0.64040E+06
 0.72320007E+02  0.31427E+06
 0.72370003E+02 -0.13325E+06
 0.72420006E+02 -0.75726E+06
 0.72470001E+02 -0.14356E+07
 0.72520004E+02 -0.19868E+07
 0.72570007E+02 -0.22645E+07
 0.72620003E+02 -0.22227E+07
 0.72670006E+02 -0.18657E+07
 0.72720001E+02 -0.12262E+07
 0.72770004E+02 -0.38236E+06
 0.72820007E+02  0.50624E+06
 0.72870003E+02  0.12173E+07
 0.72920006E+02  0.15691E+07
 0.72970001E+02  0.14918E+07
 0.73020004E+02  0.10831E+07
 0.73070007E+02  0.56044E+06
 0.73120003E+02  0.56306E+05
 0.73170006E+02 -0.32964E+06
 0.73220001E+02 -0.45766E+06
 0.73270004E+02 -0.30243E+06
 0.73320007E+02  0.55965E+05
 0.73370003E+02  0.49526E+06
 0.73420006E+02  0.85731E+06
 0.73470001E+02  0.10077E+07
 0.73520004E+02  0.95814E+06
 0.73570007E+02  0.84964E+06
 0.73620003E+02  0.80600E+06
 0.73670006E+02  0.88730E+06
 0.73720001E+02  0.10583E+07
 0.73770004E+02  0.12361E+07
 0.73820007E+02  0.13719E+07
 0.73870003E+02  0.13996E+07
 0.73920006E+02  0.12604E+07
 0.73970001E+02  0.99732E+06
 0.74020004E+02  0.74741E+06
 0.74070007E+02  0.61357E+06
 0.74120003E+02  0.57156E+06
 0.74170006E+02  0.54462E+06
 0.74220001E+02  0.51022E+06
 0.74270004E+02  0.48801E+06
 0.74320007E+02  0.47140E+06
 0.74370003E+02  0.44180E+06
 0.74420006E+02  0.33040E+06
 0.74470001E+02  0.54334E+05
 0.74520004E+02 -0.31016E+06
 0.74570007E+02 -0.56129E+06
 0.74620003E+02 -0.59158E+06
 0.74670006E+02 -0.43554E+06
 0.74720001E+02 -0.12453E+06
 0.74770004E+02  0.26491E+06
 0.74820007E+02  0.61947E+06
 0.74870003E+02  0.82905E+06
 0.74920006E+02  0.72388E+06
 0.74970001E+02  0.29268E+06
 0.75020004E+02 -0.25551E+06
 0.75070007E+02 -0.71515E+06
 0.75120003E+02 -0.10119E+07
 0.75170006E+02 -0.11112E+07
 0.75220001E+02 -0.95917E+06
 0.75270004E+02 -0.63497E+06
 0.75320007E+02 -0.29354E+06
 0.75370003E+02 -0.81626E+05
 0.75420006E+02 -0.71782E+05
 0.75470001E+02 -0.17326E+06
 0.75520004E+02 -0.36967E+06
 0.75570007E+02 -0.68375E+06
 0.75620003E+02 -0.10186E+07
 0.75670006E+02 -0.13166E+07
 0.75720001E+02 -0.15439E+07
 0.75770004E+02 -0.16602E+07
 0.75820007E+02 -0.16302E+07
 0.75870003E+02 -0.14869E+07
 0.75920006E+02 -0.13840E+07
 0.75970001E+02 -0.13875E+07
 0.76020004E+02 -0.13878E+07
 0.76070007E+02 -0.12484E+07
 0.76120003E+02 -0.91688E+06
 0.76170006E+02 -0.37552E+06
 0.76220001E+02  0.34315E+06
 0.76270004E+02  0.11180E+07
 0.76320007E+02  0.18214E+07
 0.76370003E+02  0.22809E+07
 0.76420006E+02  0.23444E+07
 0.76470001E+02  0.20617E+07
 0.76520004E+02  0.15878E+07
 0.76570007E+02  0.10834E+07
 0.76620003E+02  0.66147E+06
 0.76670006E+02  0.35610E+06
 0.76720001E+02  0.19374E+06
 0.76770004E+02  0.18857E+06
 0.76820007E+02  0.32031E+06
 0.76870003E+02  0.49782E+06
 0.76920006E+02  0.54123E+06
 0.76970001E+02  0.32751E+06
 0.77020004E+02  0.14000E+03
 0.77070007E+02 -0.20172E+06
 0.77120003E+02 -0.22641E+06
 0.77170006E+02 -0.11360E+06
 0.77220001E+02  0.10262E+06
 0.77270004E+02  0.34432E+06
 0.77320007E+02  0.46338E+06
 0.77370003E+02  0.38986E+06
 0.77420006E+02  0.21663E+06
 0.77470001E+02  0.44680E+04
 0.77520004E+02 -0.30782E+06
 0.77570007E+02 -0.78223E+06
 0.77620003E+02 -0.13832E+07
 0.77670006E+02 -0.20417E+07
 0.77720001E+02 -0.27145E+07
 0.77770004E+02 -0.33029E+07
 0.77820007E+02 -0.36107E+07
 0.77870003E+02 -0.34808E+07
 0.77920006E+02 -0.29633E+07
 0.77970001E+02 -0.22871E+07
 0.78020004E+02 -0.15977E+07
 0.78070007E+02 -0.86650E+06
 0.78120003E+02 -0.11539E+06
 0.78170006E+02  0.57500E+06
 0.78220001E+02  0.10887E+07
 0.78270004E+02  0.13320E+07
 0.78320007E+02  0.13563E+07
 0.78370003E+02  0.11823E+07
 0.78420006E+02  0.87382E+06
 0.78470001E+02  0.64120E+06
 0.78520004E+02  0.53796E+06
 0.78570007E+02  0.46166E+06
 0.78620003E+02  0.41469E+06
 0.78670006E+02  0.42042E+06
 0.78720001E+02  0.44948E+06
 0.78770004E+02  0.46103E+06
 0.78820007E+02  0.47958E+06
 0.78870003E+02  0.65086E+06
 0.78920006E+02  0.10148E+07
 0.78970001E+02  0.15751E+07
 0.79020004E+02  0.23008E+07
 0.79070007E+02  0.29444E+07
 0.79120003E+02  0.32920E+07
 0.79170006E+02  0.32668E+07
 0.79220001E+02  0.28973E+07
 0.79270004E+02  0.22697E+07
 0.79320007E+02  0.14717E+07
 0.79370003E+02  0.69388E+06
 0.79420006E+02  0.11486E+06
 0.79470001E+02 -0.27338E+06
 0.79520004E+02 -0.54764E+06
 0.79570007E+02 -0.73045E+06
 0.79620003E+02 -0.86908E+06
 0.79670006E+02 -0.99430E+06
 0.79720001E+02 -0.10536E+07
 0.79770004E+02 -0.10484E+07
 0.79820007E+02 -0.11028E+07
 0.79870003E+02 -0.13166E+07
 0.79920006E+02 -0.16177E+07
 0.79970001E+02 -0.18974E+07
 0.80020004E+02 -0.21307E+07
 0.80070007E+02 -0.23131E+07
 0.80120003E+02 -0.24330E+07
 0.80170006E+02 -0.24692E+07
 0.80220001E+02 -0.24252E+07
 0.80270004E+02 -0.22942E+07
 0.80320007E+02 -0.20236E+07
 0.80370003E+02 -0.15883E+07
 0.80420006E+02 -0.98411E+06
 0.80470001E+02 -0.23313E+06
 0.80520004E+02  0.56652E+06
 0.80570007E+02  0.12886E+07
 0.80620003E+02  0.18446E+07
 0.80670006E+02  0.21505E+07
 0.80720001E+02  0.21233E+07
 0.80770004E+02  0.18380E+07
 0.80820007E+02  0.14470E+07
 0.80870003E+02  0.99142E+06
 0.80920006E+02  0.55212E+06
 0.80970001E+02  0.25817E+06
 0.81020004E+02  0.84389E+05
 0.81070007E+02 -0.54793E+05
 0.81120003E+02 -0.10159E+06
 0.81170006E+02  0.47595E+05
 0.81220001E+02  0.32901E+06
 0.81270004E+02  0.61500E+06
 0.81320007E+02  0.86003E+06
 0.81370003E+02  0.10054E+07
 0.81420006E+02  0.96598E+06
 0.81470001E+02  0.71943E+06
 0.81520004E+02  0.31386E+06
 0.81570007E+02 -0.18400E+06
 0.81620003E+02 -0.70227E+06
 0.81670006E+02 -0.11600E+07
 0.81720001E+02 -0.14844E+07
 0.81770004E+02 -0.16543E+07
 0.81820007E+02 -0.17122E+07
 0.81870003E+02 -0.16549E+07
 0.81920006E+02 -0.14493E+07
 0.81970001E+02 -0.11360E+07
 0.82020004E+02 -0.76358E+06
 0.82070007E+02 -0.32222E+06
 0.82120003E+02  0.13635E+06
 0.82170006E+02  0.48864E+06
 0.82220001E+02  0.69367E+06
 0.82270004E+02  0.73242E+06
 0.82320007E+02  0.59107E+06
 0.82370003E+02  0.33079E+06
 0.82420006E+02  0.86040E+04
 0.82470001E+02 -0.31993E+06
 0.82520004E+02 -0.57438E+06
 0.82570007E+02 -0.68941E+06
 0.82620003E+02 -0.61435E+06
 0.82670006E+02 -0.38372E+06
 0.82720001E+02 -0.74737E+05
 0.82770004E+02  0.35409E+06
 0.82820007E+02  0.89197E+06
 0.82870003E+02  0.13704E+07
 0.82920006E+02  0.16408E+07
 0.82970001E+02  0.16449E+07
 0.83020004E+02  0.14598E+07
 0.83070007E+02  0.12258E+07
 0.83120003E+02  0.10338E+07
 0.83170006E+02  0.96284E+06
 0.83220001E+02  0.10401E+07
 0.83270004E+02  0.11686E+07
 0.83320007E+02  0.12141E+07
 0.83370003E+02  0.11482E+07
 0.83420006E+02  0.10265E+07
 0.83470001E+02  0.88061E+06
 0.83520004E+02  0.71836E+06
 0.83570007E+02  0.58748E+06
 0.83620003E+02  0.56203E+06
 0.83670006E+02  0.68293E+06
 0.83720001E+02  0.88646E+06
 0.83770004E+02  0.10385E+07
 0.83820007E+02  0.10673E+07
 0.83870003E+02  0.93283E+06
 0.83920006E+02  0.60607E+06
 0.83970001E+02  0.12325E+06
 0.84020004E+02 -0.41289E+06
 0.84070007E+02 -0.89562E+06
 0.84120003E+02 -0.12919E+07
 0.84170006E+02 -0.15837E+07
 0.84220001E+02 -0.17010E+07
 0.84270004E+02 -0.16240E+07
 0.84320007E+02 -0.14486E+07
 0.84370003E+02 -0.12602E+07
 0.84420006E+02 -0.10680E+07
 0.84470001E+02 -0.86686E+06
 0.84520004E+02 -0.66263E+06
 0.84570007E+02 -0.46185E+06
 0.84620003E+02 -0.29746E+06
 0.84670006E+02 -0.17521E+06
 0.84720001E+02 -0.61323E+05
 0.84770004E+02  0.46283E+05
 0.84820007E+02  0.17889E+06
 0.84870003E+02  0.35476E+06
 0.84920006E+02  0.53765E+06
 0.84970001E+02  0.66988E+06
 0.85020004E+02  0.69358E+06
 0.85070007E+02  0.61552E+06
 0.85120003E+02  0.44226E+06
 0.85170006E+02  0.18299E+06
 0.85220001E+02 -0.58157E+05
 0.85270004E+02 -0.16396E+06
 0.85320007E+02 -0.13850E+06
 0.85370003E+02 -0.10464E+06
 0.85420006E+02 -0.16004E+06
 0.85470001E+02 -0.30507E+06
 0.85520004E+02 -0.50132E+06
 0.85570007E+02 -0.76257E+06
 0.85620003E+02 -0.11577E+07
 0.85670006E+02 -0.16481E+07
 0.85720001E+02 -0.21081E+07
 0.85770004E+02 -0.24266E+07
 0.85820007E+02 -0.25108E+07
 0.85870003E+02 -0.23450E+07
 0.85920006E+02 -0.19311E+07
 0.85970001E+02 -0.12990E+07
 0.86020004E+02 -0.56565E+06
 0.86070007E+02  0.16537E+06
 0.86120003E+02  0.86493E+06
 0.86170006E+02  0.15143E+07
 0.86220001E+02  0.20444E+07
 0.86270004E+02  0.24270E+07
 0.86320007E+02  0.26885E+07
 0.86370003E+02  0.28527E+07
 0.86420006E+02  0.29221E+07
 0.86470001E+02  0.28336E+07
 0.86520004E+02  0.25644E+07
 0.86570007E+02  0.21762E+07
 0.86620003E+02  0.16725E+07
 0.86670006E+02  0.10136E+07
 0.86720001E+02  0.23790E+06
 0.86770004E+02 -0.57020E+06
 0.86820007E+02 -0.13186E+07
 0.86870003E+02 -0.18647E+07
 0.86920006E+02 -0.20839E+07
 0.86970001E+02 -0.19707E+07
 0.87020004E+02 -0.16189E+07
 0.87070007E+02 -0.11365E+07
 0.87120003E+02 -0.58264E+06
 0.87170006E+02 -0.39383E+05
 0.87220001E+02  0.38924E+06
 0.87270004E+02  0.67171E+06
 0.87320007E+02  0.82323E+06
 0.87370003E+02  0.91442E+06
 0.87420006E+02  0.10051E+07
 0.87470001E+02  0.11199E+07
 0.87520004E+02  0.13038E+07
 0.87570007E+02  0.14949E+07
 0.87620003E+02  0.15662E+07
 0.87670006E+02  0.14978E+07
 0.87720001E+02  0.13359E+07
 0.87770004E+02  0.11071E+07
 0.87820007E+02  0.83548E+06
 0.87870003E+02  0.52332E+06
 0.87920006E+02  0.15434E+06
 0.87970001E+02 -0.29450E+06
 0.88020004E+02 -0.79369E+06
 0.88070007E+02 -0.12170E+07
 0.88120003E+02 -0.14792E+07
 0.88170006E+02 -0.15544E+07
 0.88220001E+02 -0.14667E+07
 0.88270004E+02 -0.12461E+07
 0.88320007E+02 -0.89284E+06
 0.88370003E+02 -0.49832E+06
 0.88420006E+02 -0.21181E+06
 0.88470001E+02 -0.13872E+06
 0.88520004E+02 -0.31499E+06
 0.88570007E+02 -0.71151E+06
 0.88620003E+02 -0.12108E+07
 0.88670006E+02 -0.16520E+07
 0.88720001E+02 -0.19285E+07
 0.88770004E+02 -0.20246E+07
 0.88820007E+02 -0.20216E+07
 0.88870003E+02 -0.19518E+07
 0.88920006E+02 -0.17473E+07
 0.88970001E+02 -0.13638E+07
 0.89020004E+02 -0.82494E+06
 0.89070007E+02 -0.25040E+06
 0.89120003E+02  0.24921E+06
 0.89170006E+02  0.65367E+06
 0.89220001E+02  0.90877E+06
 0.89270004E+02  0.98413E+06
 0.89320007E+02  0.93100E+06
 0.89370003E+02  0.80322E+06
 0.89420006E+02  0.66486E+06
 0.89470001E+02  0.53251E+06
 0.89520004E+02  0.43975E+06
 0.89570007E+02  0.45726E+06
 0.89620003E+02  0.52816E+06
 0.89670006E+02  0.59788E+06
 0.89720001E+02  0.70340E+06
 0.89770004E+02  0.83497E+06
 0.89820007E+02  0.93949E+06
 0.89870003E+02  0.96310E+06
 0.89920006E+02  0.90395E+06
 0.89970001E+02  0.82729E+06
 0.90020004E+02  0.74080E+06
 0.90070007E+02  0.59955E+06
 0.90120003E+02  0.38612E+06
 0.90170006E+02  0.10176E+06
 0.90220001E+02 -0.23178E+06
 0.90270004E+02 -0.57540E+06
 0.90320007E+02 -0.90871E+06
 0.90370003E+02 -0.12542E+07
 0.90420006E+02 -0.15900E+07
 0.90470001E+02 -0.18509E+07
 0.90520004E+02 -0.20413E+07
 0.90570007E+02 -0.21939E+07
 0.90620003E+02 -0.22962E+07
 0.90670006E+02 -0.23037E+07
 0.90720001E+02 -0.21862E+07
 0.90770004E+02 -0.19098E+07
 0.90820007E+02 -0.14118E+07
 0.90870003E+02 -0.70809E+06
 0.90920006E+02  0.65616E+05
 0.90970001E+02  0.76188E+06
 0.91020004E+02  0.12920E+07
 0.91070007E+02  0.16391E+07
 0.91120003E+02  0.18128E+07
 0.91170006E+02  0.18099E+07
 0.91220001E+02  0.16582E+07
 0.91270004E+02  0.14513E+07
 0.91320007E+02  0.13088E+07
 0.91370003E+02  0.12784E+07
 0.91420006E+02  0.12959E+07
 0.91470001E+02  0.12759E+07
 0.91520004E+02  0.12049E+07
 0.91570007E+02  0.11381E+07
 0.91620003E+02  0.11017E+07
 0.91670006E+02  0.10348E+07
 0.91720001E+02  0.90290E+06
 0.91770004E+02  0.68860E+06
 0.91820007E+02  0.34294E+06
 0.91870003E+02 -0.79154E+05
 0.91920006E+02 -0.50642E+06
 0.91970001E+02 -0.97930E+06
 0.92020004E+02 -0.15247E+07
 0.92070007E+02 -0.20342E+07
 0.92120003E+02 -0.23202E+07
 0.92170006E+02 -0.23047E+07
 0.92220001E+02 -0.20319E+07
 0.92270004E+02 -0.15656E+07
 0.92320007E+02 -0.10221E+07
 0.92370003E+02 -0.54224E+06
 0.92420006E+02 -0.16146E+06
 0.92470001E+02  0.13649E+06
 0.92520004E+02  0.35988E+06
 0.92570007E+02  0.54890E+06
 0.92620003E+02  0.72181E+06
 0.92670006E+02  0.84778E+06
 0.92720001E+02  0.89660E+06
 0.92770004E+02  0.87853E+06
 0.92820007E+02  0.79921E+06
 0.92870003E+02  0.65876E+06
 0.92920006E+02  0.48422E+06
 0.92970001E+02  0.27934E+06
 0.93020004E+02  0.83031E+05
 0.93070007E+02 -0.14299E+05
 0.93120003E+02  0.26140E+05
 0.93170006E+02  0.17793E+06
 0.93220001E+02  0.38032E+06
 0.93270004E+02  0.57738E+06
 0.93320007E+02  0.72647E+06
 0.93370003E+02  0.79203E+06
 0.93420006E+02  0.77207E+06
 0.93470001E+02  0.66940E+06
 0.93520004E+02  0.46685E+06
 0.93570007E+02  0.19308E+06
 0.93620003E+02 -0.46806E+05
 0.93670006E+02 -0.18243E+06
 0.93720001E+02 -0.25053E+06
 0.93770004E+02 -0.30553E+06
 0.93820007E+02 -0.36487E+06
 0.93870003E+02 -0.43515E+06
 0.93920006E+02 -0.51460E+06
 0.93970001E+02 -0.62408E+06
 0.94020004E+02 -0.75497E+06
 0.94070007E+02 -0.83441E+06
 0.94120003E+02 -0.84786E+06
 0.94170006E+02 -0.80748E+06
 0.94220001E+02 -0.71697E+06
 0.94270004E+02 -0.60662E+06
 0.94320007E+02 -0.48089E+06
 0.94370003E+02 -0.33785E+06
 0.94420006E+02 -0.21087E+06
 0.94470001E+02 -0.14654E+06
 0.94520004E+02 -0.15559E+06
 0.94570007E+02 -0.19496E+06
 0.94620003E+02 -0.20023E+06
 0.94670006E+02 -0.17219E+06
 0.94720001E+02 -0.18333E+06
 0.94770004E+02 -0.27180E+06
 0.94820007E+02 -0.41486E+06
 0.94870003E+02 -0.55103E+06
 0.94920006E+02 -0.63939E+06
 0.94970001E+02 -0.66841E+06
 0.95020004E+02 -0.61682E+06
 0.95070007E+02 -0.48822E+06
 0.95120003E+02 -0.26130E+06
 0.95170006E+02  0.88185E+05
 0.95220001E+02  0.49569E+06
 0.95270004E+02  0.88633E+06
 0.95320007E+02  0.12189E+07
 0.95370003E+02  0.14457E+07
 0.95420006E+02  0.15017E+07
 0.95470001E+02  0.13697E+07
 0.95520004E+02  0.11136E+07
 0.95570007E+02  0.79350E+06
 0.95620003E+02  0.44828E+06
 0.95670006E+02  0.10260E+06
 0.95720001E+02 -0.20410E+06
 0.95770004E+02 -0.43204E+06
 0.95820007E+02 -0.59229E+06
 0.95870003E+02 -0.64947E+06
 0.95920006E+02 -0.55359E+06
 0.95970001E+02 -0.32047E+06
 0.96020004E+02 -0.14310E+05
 0.96070007E+02  0.29612E+06
 0.96120003E+02  0.59435E+06
 0.96170006E+02  0.86148E+06
 0.96220001E+02  0.10633E+07
 0.96270004E+02  0.11622E+07
 0.96320007E+02  0.11378E+07
 0.96370003E+02  0.10075E+07
 0.96420006E+02  0.79005E+06
 0.96470001E+02  0.53335E+06
 0.96520004E+02  0.30752E+06
 0.96570007E+02  0.15699E+06
 0.96620003E+02  0.79212E+05
 0.96670006E+02  0.25357E+05
 0.96720001E+02 -0.38650E+05
 0.96770004E+02 -0.10286E+06
 0.96820007E+02 -0.15716E+06
 0.96870003E+02 -0.19934E+06
 0.96920006E+02 -0.18828E+06
 0.96970001E+02 -0.44115E+05
 0.97020004E+02  0.25703E+06
 0.97070007E+02  0.64636E+06
 0.97120003E+02  0.10105E+07
 0.97170006E+02  0.12313E+07
 0.97220001E+02  0.12753E+07
 0.97270004E+02  0.11736E+07
 0.97320007E+02  0.94017E+06
 0.97370003E+02  0.61572E+06
 0.97420006E+02  0.27373E+06
 0.97470001E+02 -0.16639E+05
 0.97520004E+02 -0.22143E+06
 0.97570007E+02 -0.34972E+06
 0.97620003E+02 -0.40884E+06
 0.97670006E+02 -0.38081E+06
 0.97720001E+02 -0.26862E+06
 0.97770004E+02 -0.12982E+06
 0.97820007E+02 -0.17440E+05
 0.97870003E+02  0.22476E+05
 0.97920006E+02 -0.36203E+05
 0.97970001E+02 -0.12896E+06
 0.98020004E+02 -0.20591E+06
 0.98070007E+02 -0.29717E+06
 0.98120003E+02 -0.41502E+06
 0.98170006E+02 -0.53306E+06
 0.98220001E+02 -0.61297E+06
 0.98270004E+02 -0.62580E+06
 0.98320007E+02 -0.58431E+06
 0.98370003E+02 -0.53687E+06
 0.98420006E+02 -0.53166E+06
 0.98470001E+02 -0.60483E+06
 0.98520004E+02 -0.72275E+06
 0.98570007E+02 -0.77129E+06
 0.98620003E+02 -0.68630E+06
 0.98670006E+02 -0.48744E+06
 0.98720001E+02 -0.22028E+06
 0.98770004E+02  0.61740E+05
 0.98820007E+02  0.29711E+06
 0.98870003E+02  0.43793E+06
 0.98920006E+02  0.49179E+06
 0.98970001E+02  0.51385E+06
 0.99020004E+02  0.52812E+06
 0.99070007E+02  0.49104E+06
 0.99120003E+02  0.38872E+06
 0.99170006E+02  0.26109E+06
 0.99220001E+02  0.13891E+06
 0.99270004E+02  0.52087E+05
 0.99320007E+02  0.20292E+05
 0.99370003E+02  0.58926E+05
 0.99420006E+02  0.16642E+06
 0.99470001E+02  0.27148E+06
 0.99520004E+02  0.30670E+06
 0.99570007E+02  0.28615E+06
 0.99620003E+02  0.26940E+06
 0.99670006E+02  0.30488E+06
 0.99720001E+02  0.37695E+06
 0.99770004E+02  0.39901E+06
 0.99820007E+02  0.29297E+06
 0.99870003E+02  0.41676E+05
 0.99920006E+02 -0.31083E+06
 0.99970001E+02 -0.68970E+06
 0.10002000E+03 -0.10543E+07
 0.10007001E+03 -0.13927E+07
 0.10012000E+03 -0.16990E+07
 0.10017001E+03 -0.19430E+07
 0.10022000E+03 -0.20596E+07
 0.10027000E+03 -0.20231E+07
 0.10032001E+03 -0.18716E+07
 0.10037000E+03 -0.16591E+07
 0.10042001E+03 -0.14088E+07
 0.10047000E+03 -0.11316E+07
 0.10052000E+03 -0.85401E+06
 0.10057001E+03 -0.58712E+06
 0.10062000E+03 -0.31490E+06
 0.10067001E+03 -0.41537E+05
 0.10072000E+03  0.21254E+06
 0.10077000E+03  0.43984E+06
 0.10082001E+03  0.65403E+06
 0.10087000E+03  0.86902E+06
 0.10092001E+03  0.10390E+07
 0.10097000E+03  0.11253E+07
 0.10102000E+03  0.11535E+07
 0.10107001E+03  0.11330E+07
 0.10112000E+03  0.10419E+07
 0.10117001E+03  0.85882E+06
 0.10122000E+03  0.59626E+06
 0.10127000E+03  0.32198E+06
 0.10132001E+03  0.11282E+06
 0.10137000E+03  0.13742E+05
 0.10142001E+03  0.20939E+05
 0.10147000E+03  0.89650E+05
 0.10152000E+03  0.16119E+06
 0.10157001E+03  0.19168E+06
 0.10162000E+03  0.19640E+06
 0.10167001E+03  0.21259E+06
 0.10172000E+03  0.24077E+06
 0.10177000E+03  0.27927E+06
 0.10182001E+03  0.31515E+06
 0.10187000E+03  0.28923E+06
 0.10192001E+03  0.18290E+06
 0.10197000E+03  0.50721E+05
 0.10202000E+03 -0.70644E+05
 0.10207001E+03 -0.15021E+06
 0.10212000E+03 -0.14167E+06
 0.10217001E+03 -0.41849E+05
 0.10222000E+03  0.12518E+06
 0.10227000E+03  0.32614E+06
 0.10232001E+03  0.51137E+06
 0.10237000E+03  0.65271E+06
 0.10242001E+03  0.73720E+06
 0.10247000E+03  0.75530E+06
 0.10252000E+03  0.71044E+06
 0.10257001E+03  0.62205E+06
 0.10262000E+03  0.52801E+06
 0.10267001E+03  0.43960E+06
 0.10272000E+03  0.33060E+06
 0.10277000E+03  0.17891E+06
 0.10282001E+03  0.10359E+05
 0.10287000E+03 -0.12052E+06
 0.10292001E+03 -0.19813E+06
 0.10297000E+03 -0.26650E+06
 0.10302000E+03 -0.37879E+06
 0.10307001E+03 -0.54058E+06
 0.10312000E+03 -0.72638E+06
 0.10317001E+03 -0.87957E+06
 0.10322000E+03 -0.95010E+06
 0.10327000E+03 -0.94835E+06
 0.10332001E+03 -0.89346E+06
 0.10337000E+03 -0.80112E+06
 0.10342001E+03 -0.69654E+06
 0.10347000E+03 -0.57068E+06
 0.10352000E+03 -0.37371E+06
 0.10357001E+03 -0.68124E+05
 0.10362000E+03  0.31915E+06
 0.10367001E+03  0.71542E+06
 0.10372000E+03  0.10587E+07
 0.10377000E+03  0.13235E+07
 0.10382001E+03  0.15172E+07
 0.10387000E+03  0.16570E+07
 0.10392001E+03  0.17473E+07
 0.10397000E+03  0.17766E+07
 0.10402000E+03  0.17476E+07
 0.10407001E+03  0.16497E+07
 0.10412000E+03  0.14379E+07
 0.10417001E+03  0.11172E+07
 0.10422000E+03  0.76471E+06
 0.10427000E+03  0.44671E+06
 0.10432001E+03  0.16729E+06
 0.10437000E+03 -0.98720E+05
 0.10442001E+03 -0.35321E+06
 0.10447000E+03 -0.56619E+06
 0.10452000E+03 -0.71658E+06
 0.10457001E+03 -0.84989E+06
 0.10462000E+03 -0.10286E+07
 0.10467001E+03 -0.12499E+07
 0.10472000E+03 -0.14435E+07
 0.10477000E+03 -0.15215E+07
 0.10482001E+03 -0.14780E+07
 0.10487000E+03 -0.13615E+07
 0.10492001E+03 -0.11701E+07
 0.10497000E+03 -0.90314E+06
 0.10502000E+03 -0.60977E+06
 0.10507001E+03 -0.30821E+06
 0.10512000E+03 -0.14090E+04
 0.10517001E+03  0.25084E+06
 0.10522000E+03  0.41482E+06
 0.10527000E+03  0.51391E+06
 0.10532001E+03  0.55940E+06
 0.10537000E+03  0.54693E+06
 0.10542001E+03  0.47157E+06
 0.10547000E+03  0.34096E+06
 0.10552000E+03  0.16274E+06
 0.10557001E+03 -0.60744E+05
 0.10562000E+03 -0.29847E+06
 0.10567001E+03 -0.52496E+06
 0.10572000E+03 -0.72850E+06
 0.10577000E+03 -0.87652E+06
 0.10582001E+03 -0.95634E+06
 0.10587000E+03 -0.99030E+06
 0.10592001E+03 -0.99778E+06
 0.10597000E+03 -0.97161E+06
 0.10602000E+03 -0.89549E+06
 0.10607001E+03 -0.77310E+06
 0.10612000E+03 -0.61306E+06
 0.10617001E+03 -0.42306E+06
 0.10622000E+03 -0.22202E+06
 0.10627000E+03 -0.17059E+05
 0.10632001E+03  0.19942E+06
 0.10637000E+03  0.42152E+06
 0.10642001E+03  0.62423E+06
 0.10647000E+03  0.77018E+06
 0.10652000E+03  0.82967E+06
 0.10657001E+03  0.81512E+06
 0.10662000E+03  0.76219E+06
 0.10667001E+03  0.66955E+06
 0.10672000E+03  0.51176E+06
 0.10677000E+03  0.30596E+06
 0.10682001E+03  0.11312E+06
 0.10687000E+03 -0.38845E+05
 0.10692001E+03 -0.16160E+06
 0.10697000E+03 -0.25468E+06
 0.10702000E+03 -0.32493E+06
 0.10707001E+03 -0.40391E+06
 0.10712000E+03 -0.51100E+06
 0.10717001E+03 -0.61296E+06
 0.10722000E+03 -0.66282E+06
 0.10727000E+03 -0.66539E+06
 0.10732001E+03 -0.65589E+06
 0.10737000E+03 -0.63644E+06
 0.10742001E+03 -0.58343E+06
 0.10747000E+03 -0.51436E+06
 0.10752000E+03 -0.45892E+06
 0.10757001E+03 -0.41312E+06
 0.10762000E+03 -0.38933E+06
 0.10767001E+03 -0.41255E+06
 0.10772000E+03 -0.45968E+06
 0.10777000E+03 -0.49889E+06
 0.10782001E+03 -0.54134E+06
 0.10787000E+03 -0.60314E+06
 0.10792001E+03 -0.66044E+06
 0.10797000E+03 -0.65943E+06
 0.10802000E+03 -0.58041E+06
 0.10807001E+03 -0.45978E+06
 0.10812000E+03 -0.33724E+06
 0.10817001E+03 -0.20718E+06
 0.10822000E+03 -0.45540E+05
 0.10827000E+03  0.13950E+06
 0.10832001E+03  0.32143E+06
 0.10837000E+03  0.47755E+06
 0.10842001E+03  0.60311E+06
 0.10847000E+03  0.71216E+06
 0.10852000E+03  0.81677E+06
 0.10857001E+03  0.92516E+06
 0.10862000E+03  0.10258E+07
 0.10867001E+03  0.10917E+07
 0.10872000E+03  0.11073E+07
 0.10877000E+03  0.10857E+07
 0.10882001E+03  0.10637E+07
 0.10887000E+03  0.10347E+07
 0.10892001E+03  0.95079E+06
 0.10897000E+03  0.79586E+06
 0.10902000E+03  0.58347E+06
 0.10907001E+03  0.34723E+06
 0.10912000E+03  0.13462E+06
 0.10917001E+03 -0.35069E+05
 0.10922000E+03 -0.16767E+06
 0.10927000E+03 -0.27081E+06
 0.10932001E+03 -0.35830E+06
 0.10937000E+03 -0.44163E+06
 0.10942001E+03 -0.53338E+06
 0.10947000E+03 -0.64102E+06
 0.10952000E+03 -0.74347E+06
 0.10957001E+03 -0.81597E+06
 0.10962000E+03 -0.85686E+06
 0.10967001E+03 -0.87249E+06
 0.10972000E+03 -0.86137E+06
 0.10977000E+03 -0.81152E+06
 0.10982001E+03 -0.70395E+06
 0.10987000E+03 -0.51519E+06
 0.10992001E+03 -0.23818E+06
 0.10997000E+03  0.77207E+05
 0.11002000E+03  0.35967E+06
 0.11007001E+03  0.58483E+06
 0.11012000E+03  0.74029E+06
 0.11017001E+03  0.80879E+06
 0.11022000E+03  0.80982E+06
 0.11027000E+03  0.76428E+06
 0.11032001E+03  0.67379E+06
 0.11037000E+03  0.56664E+06
 0.11042001E+03  0.47688E+06
 0.11047000E+03  0.40517E+06
 0.11052000E+03  0.34650E+06
 0.11057001E+03  0.30474E+06
 0.11062000E+03  0.27525E+06
 0.11067001E+03  0.24978E+06
 0.11072000E+03  0.22848E+06
 0.11077000E+03  0.21004E+06
 0.11082001E+03  0.19731E+06
 0.11087000E+03  0.16716E+06
 0.11092001E+03  0.63765E+05
 0.11097000E+03 -0.10963E+06
 0.11102000E+03 -0.30795E+06
 0.11107001E+03 -0.49013E+06
 0.11112000E+03 -0.61165E+06
 0.11117001E+03 -0.67579E+06
 0.11122000E+03 -0.71700E+06
 0.11127000E+03 -0.74554E+06
 0.11132001E+03 -0.74974E+06
 0.11137000E+03 -0.70762E+06
 0.11142001E+03 -0.59064E+06
 0.11147000E+03 -0.40186E+06
 0.11152000E+03 -0.19227E+06
 0.11157001E+03  0.13063E+05
 0.11162000E+03  0.22656E+06
 0.11167001E+03  0.43808E+06
 0.11172000E+03  0.60834E+06
 0.11177000E+03  0.70257E+06
 0.11182001E+03  0.73275E+06
 0.11187000E+03  0.74279E+06
 0.11192001E+03  0.75023E+06
 0.11197000E+03  0.77013E+06
 0.11202000E+03  0.80532E+06
 0.11207001E+03  0.80351E+06
 0.11212000E+03  0.73784E+06
 0.11217001E+03  0.62666E+06
 0.11222000E+03  0.49294E+06
 0.11227000E+03  0.37693E+06
 0.11232001E+03  0.31274E+06
 0.11237000E+03  0.29868E+06
 0.11242001E+03  0.30307E+06
 0.11247000E+03  0.28863E+06
 0.11252000E+03  0.23428E+06
 0.11257001E+03  0.14270E+06
 0.11262000E+03  0.33783E+05
 0.11267001E+03 -0.59835E+05
 0.11272000E+03 -0.11314E+06
 0.11277000E+03 -0.14591E+06
 0.11282001E+03 -0.18901E+06
 0.11287000E+03 -0.23534E+06
 0.11292001E+03 -0.27108E+06
 0.11297000E+03 -0.29142E+06
 0.11302000E+03 -0.26821E+06
 0.11307001E+03 -0.17285E+06
 0.11312000E+03 -0.10336E+05
 0.11317001E+03  0.20693E+06
 0.11322000E+03  0.47274E+06
 0.11327000E+03  0.75606E+06
 0.11332001E+03  0.10162E+07
 0.11337000E+03  0.12504E+07
 0.11342001E+03  0.14673E+07
 0.11347000E+03  0.16492E+07
 0.11352000E+03  0.17719E+07
 0.11357001E+03  0.18226E+07
 0.11362000E+03  0.17767E+07
 0.11367001E+03  0.15962E+07
 0.11372000E+03  0.12677E+07
 0.11377000E+03  0.80925E+06
 0.11382001E+03  0.25904E+06
 0.11387000E+03 -0.33697E+06
 0.11392001E+03 -0.91249E+06
 0.11397000E+03 -0.13895E+07
 0.11402000E+03 -0.17436E+07
 0.11407001E+03 -0.20006E+07
 0.11412000E+03 -0.21833E+07
 0.11417001E+03 -0.22872E+07
 0.11422000E+03 -0.22904E+07
 0.11427000E+03 -0.21855E+07
 0.11432001E+03 -0.19791E+07
 0.11437000E+03 -0.16937E+07
 0.11442001E+03 -0.13638E+07
 0.11447000E+03 -0.99855E+06
 0.11452000E+03 -0.59723E+06
 0.11457001E+03 -0.18216E+06
 0.11462000E+03  0.20905E+06
 0.11467001E+03  0.54298E+06
 0.11472000E+03  0.80202E+06
 0.11477000E+03  0.98354E+06
 0.11482001E+03  0.10961E+07
 0.11487000E+03  0.11547E+07
 0.11492001E+03  0.11761E+07
 0.11497000E+03  0.11831E+07
 0.11502000E+03  0.11867E+07
 0.11507001E+03  0.11658E+07
 0.11512000E+03  0.10936E+07
 0.11517001E+03  0.97350E+06
 0.11522000E+03  0.83651E+06
 0.11527000E+03  0.70349E+06
 0.11532001E+03  0.58534E+06
 0.11537000E+03  0.48747E+06
 0.11542001E+03  0.38256E+06
 0.11547000E+03  0.23223E+06
 0.11552000E+03  0.18648E+05
 0.11557001E+03 -0.25260E+06
 0.11562000E+03 -0.55315E+06
 0.11567001E+03 -0.83509E+06
 0.11572000E+03 -0.10621E+07
 0.11577000E+03 -0.12303E+07
 0.11582001E+03 -0.13363E+07
 0.11587000E+03 -0.13786E+07
 0.11592001E+03 -0.13699E+07
 0.11597000E+03 -0.13346E+07
 0.11602000E+03 -0.13044E+07
 0.11607001E+03 -0.12863E+07
 0.11612000E+03 -0.12689E+07
 0.11617001E+03 -0.12531E+07
 0.11622000E+03 -0.12413E+07
 0.11627000E+03 -0.12132E+07
 0.11632001E+03 -0.11484E+07
 0.11637000E+03 -0.10506E+07
 0.11642001E+03 -0.91779E+06
 0.11647000E+03 -0.73725E+06
 0.11652000E+03 -0.50752E+06
 0.11657001E+03 -0.23345E+06
 0.11662000E+03  0.74905E+05
 0.11667001E+03  0.38035E+06
 0.11672000E+03  0.63333E+06
 0.11677000E+03  0.80751E+06
 0.11682001E+03  0.90440E+06
 0.11687000E+03  0.95721E+06
 0.11692001E+03  0.98088E+06
 0.11697000E+03  0.95148E+06
 0.11702000E+03  0.85854E+06
 0.11707001E+03  0.70250E+06
 0.11712000E+03  0.48719E+06
 0.11717001E+03  0.22933E+06
 0.11722000E+03 -0.47963E+05
 0.11727000E+03 -0.31928E+06
 0.11732001E+03 -0.55937E+06
 0.11737000E+03 -0.74462E+06
 0.11742001E+03 -0.86927E+06
 0.11747000E+03 -0.95474E+06
 0.11752000E+03 -0.10036E+07
 0.11757001E+03 -0.98433E+06
 0.11762000E+03 -0.87390E+06
 0.11767001E+03 -0.68200E+06
 0.11772000E+03 -0.45732E+06
 0.11777000E+03 -0.23041E+06
 0.11782001E+03  0.30400E+04
 0.11787000E+03  0.21870E+06
 0.11792001E+03  0.38706E+06
 0.11797000E+03  0.51536E+06
 0.11802000E+03  0.62375E+06
 0.11807001E+03  0.70941E+06
 0.11812000E+03  0.75756E+06
 0.11817001E+03  0.78203E+06
 0.11822000E+03  0.80123E+06
 0.11827000E+03  0.80886E+06
 0.11832001E+03  0.78873E+06
 0.11837000E+03  0.72371E+06
 0.11842001E+03  0.61634E+06
 0.11847000E+03  0.49003E+06
 0.11852000E+03  0.36938E+06
 0.11857001E+03  0.28321E+06
 0.11862000E+03  0.25029E+06
 0.11867001E+03  0.26165E+06
 0.11872000E+03  0.29120E+06
 0.11877000E+03  0.30023E+06
 0.11882001E+03  0.25606E+06
 0.11887000E+03  0.15918E+06
 0.11892001E+03  0.19991E+05
 0.11897000E+03 -0.15977E+06
 0.11902000E+03 -0.36333E+06
 0.11907001E+03 -0.55858E+06
 0.11912000E+03 -0.73027E+06
 0.11917001E+03 -0.88376E+06
 0.11922000E+03 -0.10143E+07
 0.11927000E+03 -0.10897E+07
 0.11932001E+03 -0.10857E+07
 0.11937000E+03 -0.10256E+07
 0.11942001E+03 -0.93876E+06
 0.11947000E+03 -0.82724E+06
 0.11952000E+03 -0.69803E+06
 0.11957001E+03 -0.56472E+06
 0.11962000E+03 -0.42841E+06
 0.11967001E+03 -0.29041E+06
 0.11972000E+03 -0.17477E+06
 0.11977000E+03 -0.10126E+06
 0.11982001E+03 -0.47895E+05
 0.11987000E+03  0.11780E+05
 0.11992001E+03  0.74149E+05
 0.11997000E+03  0.13844E+06
 0.12002000E+03  0.21824E+06
 0.12007001E+03  0.31663E+06
 0.12012000E+03  0.42279E+06
 0.12017001E+03  0.51892E+06
 0.12022000E+03  0.58735E+06
 0.12027000E+03  0.60790E+06
 0.12032001E+03  0.57513E+06
 0.12037000E+03  0.50523E+06
 0.12042001E+03  0.40978E+06
 0.12047000E+03  0.31489E+06
 0.12052000E+03  0.25133E+06
 0.12057001E+03  0.21982E+06
 0.12062000E+03  0.21421E+06
 0.12067001E+03  0.23427E+06
 0.12072000E+03  0.28507E+06
 0.12077000E+03  0.38358E+06
 0.12082001E+03  0.52965E+06
 0.12087000E+03  0.67912E+06
 0.12092001E+03  0.77240E+06
 0.12097000E+03  0.78420E+06
 0.12102000E+03  0.73950E+06
 0.12107001E+03  0.66786E+06
 0.12112000E+03  0.56558E+06
 0.12117001E+03  0.42728E+06
 0.12122000E+03  0.27729E+06
 0.12127000E+03  0.14580E+06
 0.12132001E+03  0.44678E+05
 0.12137000E+03 -0.18000E+05
 0.12142001E+03 -0.29635E+05
 0.12147000E+03  0.11214E+05
 0.12152000E+03  0.77519E+05
 0.12157001E+03  0.13311E+06
 0.12162000E+03  0.15863E+06
 0.12167001E+03  0.16732E+06
 0.12172000E+03  0.19766E+06
 0.12177000E+03  0.25840E+06
 0.12182001E+03  0.33995E+06
 0.12187000E+03  0.43863E+06
 0.12192001E+03  0.54357E+06
 0.12197000E+03  0.63767E+06
 0.12202000E+03  0.69135E+06
 0.12207001E+03  0.68718E+06
 0.12212000E+03  0.62796E+06
 0.12217001E+03  0.50134E+06
 0.12222000E+03  0.28962E+06
 0.12227000E+03  0.98520E+04
 0.12232001E+03 -0.29514E+06
 0.12237000E+03 -0.57301E+06
 0.12242001E+03 -0.77636E+06
 0.12247000E+03 -0.88333E+06
 0.12252000E+03 -0.88790E+06
 0.12257001E+03 -0.80510E+06
 0.12262000E+03 -0.67297E+06
 0.12267001E+03 -0.52902E+06
 0.12272000E+03 -0.38587E+06
 0.12277000E+03 -0.22998E+06
 0.12282001E+03 -0.53819E+05
 0.12287000E+03  0.14592E+06
 0.12292001E+03  0.37567E+06
 0.12297000E+03  0.60087E+06
 0.12302000E+03  0.76914E+06
 0.12307001E+03  0.87929E+06
 0.12312000E+03  0.95661E+06
 0.12317001E+03  0.10233E+07
 0.12322000E+03  0.10944E+07
 0.12327000E+03  0.11462E+07
 0.12332001E+03  0.11336E+07
 0.12337000E+03  0.10451E+07
 0.12342001E+03  0.90762E+06
 0.12347000E+03  0.74541E+06
 0.12352000E+03  0.57200E+06
 0.12357001E+03  0.40232E+06
 0.12362000E+03  0.24746E+06
 0.12367001E+03  0.12338E+06
 0.12372000E+03  0.40521E+05
 0.12377000E+03 -0.15180E+05
 0.12382001E+03 -0.76705E+05
 0.12387000E+03 -0.17219E+06
 0.12392001E+03 -0.29821E+06
 0.12397000E+03 -0.44292E+06
 0.12402000E+03 -0.60061E+06
 0.12407001E+03 -0.75556E+06
 0.12412000E+03 -0.89308E+06
 0.12417001E+03 -0.99300E+06
 0.12422001E+03 -0.10309E+07
 0.12427001E+03 -0.10031E+07
 0.12432000E+03 -0.91726E+06
 0.12437000E+03 -0.79157E+06
 0.12442001E+03 -0.65344E+06
 0.12447001E+03 -0.52249E+06
 0.12452001E+03 -0.42375E+06
 0.12457000E+03 -0.37053E+06
 0.12462000E+03 -0.33532E+06
 0.12467001E+03 -0.29655E+06
 0.12472001E+03 -0.27450E+06
 0.12477001E+03 -0.29010E+06
 0.12482000E+03 -0.33752E+06
 0.12487000E+03 -0.39736E+06
 0.12492001E+03 -0.45659E+06
 0.12497001E+03 -0.50870E+06
 0.12502001E+03 -0.55567E+06
 0.12507000E+03 -0.61190E+06
 0.12512000E+03 -0.67087E+06
 0.12517001E+03 -0.70670E+06
 0.12522001E+03 -0.70342E+06
 0.12527001E+03 -0.65347E+06
 0.12532000E+03 -0.55480E+06
 0.12537000E+03 -0.41047E+06
 0.12542001E+03 -0.23946E+06
 0.12547001E+03 -0.76101E+05
 0.12552001E+03  0.53142E+05
 0.12557000E+03  0.13918E+06
 0.12562000E+03  0.19121E+06
 0.12567001E+03  0.22086E+06
 0.12572001E+03  0.22595E+06
 0.12577001E+03  0.20109E+06
 0.12582000E+03  0.15263E+06
 0.12587000E+03  0.98555E+05
 0.12592001E+03  0.54216E+05
 0.12597001E+03  0.19078E+05
 0.12602001E+03 -0.10438E+05
 0.12607000E+03 -0.18390E+05
 0.12612000E+03  0.10475E+05
 0.12617001E+03  0.67619E+05
 0.12622001E+03  0.13122E+06
 0.12627001E+03  0.17933E+06
 0.12632000E+03  0.20111E+06
 0.12637000E+03  0.21058E+06
 0.12642001E+03  0.22362E+06
 0.12647001E+03  0.21386E+06
 0.12652001E+03  0.15997E+06
 0.12657000E+03  0.81696E+05
 0.12662000E+03 -0.15755E+05
 0.12667001E+03 -0.15766E+06
 0.12672001E+03 -0.35003E+06
 0.12677001E+03 -0.54880E+06
 0.12682000E+03 -0.71576E+06
 0.12687000E+03 -0.84900E+06
 0.12692001E+03 -0.94855E+06
 0.12697001E+03 -0.10094E+07
 0.12702001E+03 -0.10342E+07
 0.12707000E+03 -0.10335E+07
 0.12712000E+03 -0.10040E+07
 0.12717001E+03 -0.93116E+06
 0.12722001E+03 -0.80098E+06
 0.12727001E+03 -0.60588E+06
 0.12732000E+03 -0.35099E+06
 0.12737000E+03 -0.71811E+05
 0.12742001E+03  0.16922E+06
 0.12747001E+03  0.34688E+06
 0.12752001E+03  0.47308E+06
 0.12757000E+03  0.55921E+06
 0.12762000E+03  0.61995E+06
 0.12767001E+03  0.66806E+06
 0.12772001E+03  0.71124E+06
 0.12777001E+03  0.73740E+06
 0.12782000E+03  0.72031E+06
 0.12787000E+03  0.65642E+06
 0.12792001E+03  0.55502E+06
 0.12797001E+03  0.42011E+06
 0.12802000E+03  0.26358E+06
 0.12806999E+03  0.11560E+06
 0.12812000E+03  0.91150E+04
 0.12817000E+03 -0.36719E+05
 0.12822000E+03 -0.10748E+05
 0.12827000E+03  0.81711E+05
 0.12831999E+03  0.22011E+06
 0.12837000E+03  0.38226E+06
 0.12842000E+03  0.54481E+06
 0.12847000E+03  0.68052E+06
 0.12852000E+03  0.75852E+06
 0.12856999E+03  0.76550E+06
 0.12862000E+03  0.71081E+06
 0.12867000E+03  0.61745E+06
 0.12872000E+03  0.51410E+06
 0.12877000E+03  0.41434E+06
 0.12881999E+03  0.31381E+06
 0.12887000E+03  0.21332E+06
 0.12892000E+03  0.12928E+06
 0.12897000E+03  0.78471E+05
 0.12902000E+03  0.62355E+05
 0.12906999E+03  0.65714E+05
 0.12912000E+03  0.73436E+05
 0.12917000E+03  0.81272E+05
 0.12922000E+03  0.90788E+05
 0.12927000E+03  0.93033E+05
 0.12931999E+03  0.69819E+05
 0.12937000E+03  0.20767E+05
 0.12942000E+03 -0.50702E+05
 0.12947000E+03 -0.14561E+06
 0.12952000E+03 -0.24872E+06
 0.12956999E+03 -0.34621E+06
 0.12962000E+03 -0.43430E+06
 0.12967000E+03 -0.51095E+06
 0.12972000E+03 -0.58022E+06
 0.12977000E+03 -0.65028E+06
 0.12981999E+03 -0.71678E+06
 0.12987000E+03 -0.74711E+06
 0.12992000E+03 -0.71536E+06
 0.12997000E+03 -0.61669E+06
 0.13002000E+03 -0.45220E+06
 0.13006999E+03 -0.25656E+06
 0.13012000E+03 -0.76688E+05
 0.13017000E+03  0.69103E+05
 0.13022000E+03  0.18461E+06
 0.13027000E+03  0.27789E+06
 0.13031999E+03  0.34568E+06
 0.13037000E+03  0.39192E+06
 0.13042000E+03  0.43254E+06
 0.13047000E+03  0.47194E+06
 0.13052000E+03  0.50412E+06
 0.13056999E+03  0.52524E+06
 0.13062000E+03  0.53384E+06
 0.13067000E+03  0.52795E+06
 0.13072000E+03  0.50658E+06
 0.13077000E+03  0.45951E+06
 0.13081999E+03  0.38544E+06
 0.13087000E+03  0.31091E+06
 0.13092000E+03  0.25894E+06
 0.13097000E+03  0.23636E+06
 0.13102000E+03  0.24033E+06
 0.13106999E+03  0.26228E+06
 0.13112000E+03  0.28603E+06
 0.13117000E+03  0.28530E+06
 0.13122000E+03  0.24158E+06
 0.13127000E+03  0.15100E+06
 0.13131999E+03  0.34330E+05
 0.13137000E+03 -0.70226E+05
 0.13142000E+03 -0.12807E+06
 0.13147000E+03 -0.12688E+06
 0.13152000E+03 -0.95897E+05
 0.13156999E+03 -0.74247E+05
 0.13162000E+03 -0.92492E+05
 0.13167000E+03 -0.15636E+06
 0.13172000E+03 -0.23672E+06
 0.13177000E+03 -0.30699E+06
 0.13181999E+03 -0.34661E+06
 0.13187000E+03 -0.34516E+06
 0.13192000E+03 -0.31215E+06
 0.13197000E+03 -0.25726E+06
 0.13202000E+03 -0.18102E+06
 0.13206999E+03 -0.70666E+05
 0.13212000E+03  0.84815E+05
 0.13217000E+03  0.26280E+06
 0.13222000E+03  0.42892E+06
 0.13227000E+03  0.56904E+06
 0.13231999E+03  0.67417E+06
 0.13237000E+03  0.72421E+06
 0.13242000E+03  0.70428E+06
 0.13247000E+03  0.63189E+06
 0.13252000E+03  0.52748E+06
 0.13256999E+03  0.39288E+06
 0.13262000E+03  0.25216E+06
 0.13267000E+03  0.13980E+06
 0.13272000E+03  0.53305E+05
 0.13277000E+03 -0.29079E+05
 0.13281999E+03 -0.11400E+06
 0.13287000E+03 -0.19297E+06
 0.13292000E+03 -0.25043E+06
 0.13297000E+03 -0.28399E+06
 0.13302000E+03 -0.31012E+06
 0.13306999E+03 -0.33595E+06
 0.13312000E+03 -0.36317E+06
 0.13317000E+03 -0.40910E+06
 0.13322000E+03 -0.48046E+06
 0.13327000E+03 -0.56038E+06
 0.13331999E+03 -0.63212E+06
 0.13337000E+03 -0.68298E+06
 0.13342000E+03 -0.70832E+06
 0.13347000E+03 -0.71129E+06
 0.13352000E+03 -0.69511E+06
 0.13356999E+03 -0.67157E+06
 0.13362000E+03 -0.64821E+06
 0.13367000E+03 -0.61247E+06
 0.13372000E+03 -0.55162E+06
 0.13377000E+03 -0.47341E+06
 0.13381999E+03 -0.39975E+06
 0.13387000E+03 -0.34364E+06
 0.13392000E+03 -0.29734E+06
 0.13397000E+03 -0.24791E+06
 0.13402000E+03 -0.19815E+06
 0.13406999E+03 -0.16307E+06
 0.13412000E+03 -0.14745E+06
 0.13417000E+03 -0.14332E+06
 0.13422000E+03 -0.14920E+06
 0.13427000E+03 -0.16031E+06
 0.13431999E+03 -0.16194E+06
 0.13437000E+03 -0.14744E+06
 0.13442000E+03 -0.11042E+06
 0.13447000E+03 -0.52496E+05
 0.13452000E+03  0.13411E+05
 0.13456999E+03  0.81380E+05
 0.13462000E+03  0.14368E+06
 0.13467000E+03  0.18424E+06
 0.13472000E+03  0.19325E+06
 0.13477000E+03  0.18578E+06
 0.13481999E+03  0.19373E+06
 0.13487000E+03  0.23808E+06
 0.13492000E+03  0.30916E+06
 0.13497000E+03  0.38650E+06
 0.13502000E+03  0.45776E+06
 0.13506999E+03  0.50768E+06
 0.13512000E+03  0.53009E+06
 0.13517000E+03  0.51933E+06
 0.13522000E+03  0.46904E+06
 0.13527000E+03  0.39436E+06
 0.13531999E+03  0.30944E+06
 0.13537000E+03  0.21590E+06
 0.13542000E+03  0.12037E+06
 0.13547000E+03  0.31133E+05
 0.13552000E+03 -0.49726E+05
 0.13556999E+03 -0.12083E+06
 0.13562000E+03 -0.17211E+06
 0.13567000E+03 -0.17949E+06
 0.13572000E+03 -0.12370E+06
 0.13577000E+03 -0.11488E+05
 0.13581999E+03  0.13356E+06
 0.13587000E+03  0.28752E+06
 0.13592000E+03  0.42973E+06
 0.13597000E+03  0.54305E+06
 0.13602000E+03  0.62033E+06
 0.13606999E+03  0.65988E+06
 0.13612000E+03  0.65911E+06
 0.13617000E+03  0.62628E+06
 0.13622000E+03  0.57685E+06
 0.13627000E+03  0.52227E+06
 0.13631999E+03  0.47139E+06
 0.13637000E+03  0.42918E+06
 0.13642000E+03  0.39717E+06
 0.13647000E+03  0.37541E+06
 0.13652000E+03  0.35717E+06
 0.13656999E+03  0.33007E+06
 0.13662000E+03  0.28118E+06
 0.13667000E+03  0.19917E+06
 0.13672000E+03  0.93966E+05
 0.13677000E+03 -0.14359E+05
 0.13681999E+03 -0.12393E+06
 0.13687000E+03 -0.23019E+06
 0.13692000E+03 -0.31583E+06
 0.13697000E+03 -0.36383E+06
 0.13702000E+03 -0.36384E+06
 0.13706999E+03 -0.32151E+06
 0.13712000E+03 -0.25743E+06
 0.13717000E+03 -0.19592E+06
 0.13722000E+03 -0.15451E+06
 0.13727000E+03 -0.14399E+06
 0.13731999E+03 -0.17071E+06
 0.13737000E+03 -0.22710E+06
 0.13742000E+03 -0.28614E+06
 0.13747000E+03 -0.32446E+06
 0.13752000E+03 -0.33637E+06
 0.13756999E+03 -0.31272E+06
 0.13762000E+03 -0.25043E+06
 0.13767000E+03 -0.16562E+06
 0.13772000E+03 -0.78406E+05
 0.13777000E+03 -0.89780E+04
 0.13781999E+03  0.33156E+05
 0.13787000E+03  0.54624E+05
 0.13792000E+03  0.58762E+05
 0.13797000E+03  0.37508E+05
 0.13802000E+03 -0.90830E+04
 0.13806999E+03 -0.74958E+05
 0.13812000E+03 -0.15979E+06
 0.13817000E+03 -0.26165E+06
 0.13822000E+03 -0.39176E+06
 0.13827000E+03 -0.56421E+06
 0.13831999E+03 -0.76927E+06
 0.13837000E+03 -0.98034E+06
 0.13842000E+03 -0.11610E+07
 0.13847000E+03 -0.12741E+07
 0.13852000E+03 -0.12957E+07
 0.13856999E+03 -0.12262E+07
 0.13862000E+03 -0.10851E+07
 0.13867000E+03 -0.89608E+06
 0.13872000E+03 -0.67959E+06
 0.13877000E+03 -0.45734E+06
 0.13881999E+03 -0.25186E+06
 0.13887000E+03 -0.78334E+05
 0.13892000E+03  0.63930E+05
 0.13897000E+03  0.19610E+06
 0.13902000E+03  0.33333E+06
 0.13906999E+03  0.47812E+06
 0.13912000E+03  0.63459E+06
 0.13917000E+03  0.80404E+06
 0.13922000E+03  0.97721E+06
 0.13927000E+03  0.11386E+07
 0.13931999E+03  0.12793E+07
 0.13937000E+03  0.13857E+07
 0.13942000E+03  0.14395E+07
 0.13947000E+03  0.14319E+07
 0.13952000E+03  0.13630E+07
 0.13956999E+03  0.12426E+07
 0.13962000E+03  0.10906E+07
 0.13967000E+03  0.92786E+06
 0.13972000E+03  0.76848E+06
 0.13977000E+03  0.62311E+06
 0.13981999E+03  0.48835E+06
 0.13987000E+03  0.34991E+06
 0.13992000E+03  0.19850E+06
 0.13997000E+03  0.28130E+05
 0.14002000E+03 -0.15453E+06
 0.14006999E+03 -0.33216E+06
 0.14012000E+03 -0.49445E+06
 0.14017000E+03 -0.63136E+06
 0.14022000E+03 -0.73349E+06
 0.14027000E+03 -0.80341E+06
 0.14031999E+03 -0.84718E+06
 0.14037000E+03 -0.87822E+06
 0.14042000E+03 -0.91618E+06
 0.14047000E+03 -0.96121E+06
 0.14052000E+03 -0.99227E+06
 0.14056999E+03 -0.99620E+06
 0.14062000E+03 -0.97346E+06
 0.14067000E+03 -0.91484E+06
 0.14072000E+03 -0.80307E+06
 0.14077000E+03 -0.63501E+06
 0.14081999E+03 -0.44199E+06
 0.14087000E+03 -0.26267E+06
 0.14092000E+03 -0.10776E+06
 0.14097000E+03  0.22805E+05
 0.14102000E+03  0.13289E+06
 0.14106999E+03  0.22285E+06
 0.14112000E+03  0.28407E+06
 0.14117000E+03  0.31126E+06
 0.14122000E+03  0.30983E+06
 0.14127000E+03  0.29660E+06
 0.14131999E+03  0.28544E+06
 0.14137000E+03  0.28494E+06
 0.14142000E+03  0.30275E+06
 0.14147000E+03  0.33395E+06
 0.14152000E+03  0.35753E+06
 0.14156999E+03  0.35583E+06
 0.14162000E+03  0.32615E+06
 0.14167000E+03  0.27755E+06
 0.14172000E+03  0.22017E+06
 0.14177000E+03  0.15632E+06
 0.14181999E+03  0.89951E+05
 0.14187000E+03  0.23126E+05
 0.14192000E+03 -0.46461E+05
 0.14197000E+03 -0.10527E+06
 0.14202000E+03 -0.13009E+06
 0.14206999E+03 -0.11571E+06
 0.14212000E+03 -0.77784E+05
 0.14217000E+03 -0.36102E+05
 0.14222000E+03 -0.65260E+04
 0.14227000E+03 -0.47000E+02
 0.14231999E+03 -0.15007E+05
 0.14237000E+03 -0.39443E+05
 0.14242000E+03 -0.62001E+05
 0.14247000E+03 -0.76248E+05
 0.14252000E+03 -0.80035E+05
 0.14256999E+03 -0.71184E+05
 0.14262000E+03 -0.41973E+05
 0.14267000E+03  0.18143E+05
 0.14272000E+03  0.10832E+06
 0.14277000E+03  0.21661E+06
 0.14281999E+03  0.33264E+06
 0.14287000E+03  0.44475E+06
 0.14292000E+03  0.53092E+06
 0.14297000E+03  0.57600E+06
 0.14302000E+03  0.58328E+06
 0.14306999E+03  0.55357E+06
 0.14312000E+03  0.48278E+06
 0.14317000E+03  0.37736E+06
 0.14322000E+03  0.25046E+06
 0.14327000E+03  0.11505E+06
 0.14331999E+03 -0.12540E+05
 0.14337000E+03 -0.12002E+06
 0.14342000E+03 -0.19977E+06
 0.14347000E+03 -0.24632E+06
 0.14352000E+03 -0.26006E+06
 0.14356999E+03 -0.24618E+06
 0.14362000E+03 -0.21856E+06
 0.14367000E+03 -0.18183E+06
 0.14372000E+03 -0.13400E+06
 0.14377000E+03 -0.88548E+05
 0.14381999E+03 -0.50269E+05
 0.14387000E+03 -0.11422E+05
 0.14392000E+03  0.24907E+05
 0.14397000E+03  0.49521E+05
 0.14402000E+03  0.62746E+05
 0.14406999E+03  0.82120E+05
 0.14412000E+03  0.12083E+06
 0.14417000E+03  0.16930E+06
 0.14422000E+03  0.20998E+06
 0.14427000E+03  0.23573E+06
 0.14431999E+03  0.24543E+06
 0.14437000E+03  0.23892E+06
 0.14442000E+03  0.22174E+06
 0.14447000E+03  0.19949E+06
 0.14452000E+03  0.18466E+06
 0.14456999E+03  0.18710E+06
 0.14462000E+03  0.20074E+06
 0.14467000E+03  0.21268E+06
 0.14472000E+03  0.21110E+06
 0.14477000E+03  0.19252E+06
 0.14481999E+03  0.15767E+06
 0.14487000E+03  0.10474E+06
 0.14492000E+03  0.33825E+05
 0.14497000E+03 -0.50004E+05
 0.14502000E+03 -0.14170E+06
 0.14506999E+03 -0.23509E+06
 0.14512000E+03 -0.32620E+06
 0.14517000E+03 -0.40957E+06
 0.14522000E+03 -0.47470E+06
 0.14527000E+03 -0.51304E+06
 0.14531999E+03 -0.52711E+06
 0.14537000E+03 -0.53020E+06
 0.14542000E+03 -0.52202E+06
 0.14547000E+03 -0.49421E+06
 0.14552000E+03 -0.45041E+06
 0.14556999E+03 -0.39603E+06
 0.14562000E+03 -0.33024E+06
 0.14567000E+03 -0.25731E+06
 0.14572000E+03 -0.18288E+06
 0.14577000E+03 -0.10033E+06
 0.14581999E+03 -0.52770E+04
 0.14587000E+03  0.91964E+05
 0.14592000E+03  0.17879E+06
 0.14597000E+03  0.24692E+06
 0.14602000E+03  0.29408E+06
 0.14606999E+03  0.32856E+06
 0.14612000E+03  0.35560E+06
 0.14617000E+03  0.36884E+06
 0.14622000E+03  0.36486E+06
 0.14627000E+03  0.34739E+06
 0.14631999E+03  0.31790E+06
 0.14637000E+03  0.27938E+06
 0.14642000E+03  0.23793E+06
 0.14647000E+03  0.19317E+06
 0.14652000E+03  0.14462E+06
 0.14656999E+03  0.91402E+05
 0.14662000E+03  0.24987E+05
 0.14667000E+03 -0.59272E+05
 0.14672000E+03 -0.15917E+06
 0.14677000E+03 -0.27100E+06
 0.14681999E+03 -0.38405E+06
 0.14687000E+03 -0.48246E+06
 0.14692000E+03 -0.55812E+06
 0.14697000E+03 -0.60991E+06
 0.14702000E+03 -0.62824E+06
 0.14706999E+03 -0.60224E+06
 0.14712000E+03 -0.54209E+06
 0.14717000E+03 -0.47385E+06
 0.14722000E+03 -0.41625E+06
 0.14727000E+03 -0.36889E+06
 0.14731999E+03 -0.31953E+06
 0.14737000E+03 -0.25806E+06
 0.14742000E+03 -0.18516E+06
 0.14747000E+03 -0.10687E+06
 0.14752000E+03 -0.29580E+05
 0.14756999E+03  0.38778E+05
 0.14762000E+03  0.92001E+05
 0.14767000E+03  0.12708E+06
 0.14772000E+03  0.14948E+06
 0.14777000E+03  0.16469E+06
 0.14781999E+03  0.17276E+06
 0.14787000E+03  0.17622E+06
 0.14792000E+03  0.17761E+06
 0.14797000E+03  0.18113E+06
 0.14802000E+03  0.19102E+06
 0.14806999E+03  0.20682E+06
 0.14812000E+03  0.22611E+06
 0.14817000E+03  0.24741E+06
 0.14822000E+03  0.26480E+06
 0.14827000E+03  0.26569E+06
 0.14831999E+03  0.23907E+06
 0.14837000E+03  0.17826E+06
 0.14842000E+03  0.87101E+05
 0.14847000E+03 -0.22952E+05
 0.14852000E+03 -0.13269E+06
 0.14856999E+03 -0.21840E+06
 0.14862000E+03 -0.27475E+06
 0.14867000E+03 -0.30497E+06
 0.14872000E+03 -0.31200E+06
 0.14877000E+03 -0.30241E+06
 0.14881999E+03 -0.28098E+06
 0.14887000E+03 -0.26344E+06
 0.14892000E+03 -0.27315E+06
 0.14897000E+03 -0.31472E+06
 0.14902000E+03 -0.36955E+06
 0.14906999E+03 -0.41808E+06
