-0.38800001E+01  0.68440E+04
-0.38300002E+01  0.72860E+04
-0.37800002E+01  0.76830E+04
-0.37300000E+01  0.80260E+04
-0.36800001E+01  0.86190E+04
-0.36300001E+01  0.95670E+04
-0.35800002E+01  0.11123E+05
-0.35300002E+01  0.12780E+05
-0.34800000E+01  0.14020E+05
-0.34300001E+01  0.14212E+05
-0.33800001E+01  0.12949E+05
-0.33300002E+01  0.10596E+05
-0.32800002E+01  0.80220E+04
-0.32300000E+01  0.54800E+04
-0.31800001E+01  0.27070E+04
-0.31300001E+01  0.56900E+03
-0.30800002E+01 -0.13500E+03
-0.30300002E+01  0.79200E+03
-0.29800000E+01  0.27340E+04
-0.29300001E+01  0.49150E+04
-0.28800001E+01  0.71440E+04
-0.28299999E+01  0.92910E+04
-0.27800002E+01  0.11701E+05
-0.27300000E+01  0.13677E+05
-0.26800001E+01  0.14212E+05
-0.26300001E+01  0.13465E+05
-0.25799999E+01  0.12121E+05
-0.25300002E+01  0.11211E+05
-0.24800000E+01  0.10549E+05
-0.24300001E+01  0.94700E+04
-0.23800001E+01  0.79090E+04
-0.23299999E+01  0.61080E+04
-0.22800002E+01  0.45780E+04
-0.22300000E+01  0.30140E+04
-0.21800001E+01  0.14650E+04
-0.21300001E+01  0.48900E+03
-0.20799999E+01 -0.28900E+03
-0.20300002E+01 -0.12790E+04
-0.19800001E+01 -0.24400E+04
-0.19300001E+01 -0.35830E+04
-0.18800001E+01 -0.53770E+04
-0.18300002E+01 -0.82830E+04
-0.17800000E+01 -0.10679E+05
-0.17300000E+01 -0.12047E+05
-0.16800001E+01 -0.13002E+05
-0.16300001E+01 -0.12931E+05
-0.15800002E+01 -0.11472E+05
-0.15300000E+01 -0.88260E+04
-0.14800000E+01 -0.56330E+04
-0.14300001E+01 -0.22720E+04
-0.13800001E+01  0.86500E+03
-0.13300002E+01  0.30520E+04
-0.12800000E+01  0.45780E+04
-0.12300000E+01  0.57880E+04
-0.11800001E+01  0.64490E+04
-0.11300001E+01  0.66710E+04
-0.10800002E+01  0.67400E+04
-0.10300000E+01  0.61830E+04
-0.98000002E+00  0.49450E+04
-0.93000007E+00  0.36640E+04
-0.88000011E+00  0.24790E+04
-0.83000016E+00  0.80100E+03
-0.77999997E+00 -0.17310E+04
-0.73000002E+00 -0.43740E+04
-0.68000007E+00 -0.68930E+04
-0.63000011E+00 -0.91540E+04
-0.58000016E+00 -0.10514E+05
-0.52999997E+00 -0.10788E+05
-0.48000002E+00 -0.95250E+04
-0.43000007E+00 -0.67940E+04
-0.38000011E+00 -0.35820E+04
-0.33000016E+00 -0.12800E+03
-0.27999997E+00  0.38530E+04
-0.23000002E+00  0.81790E+04
-0.18000007E+00  0.11961E+05
-0.13000011E+00  0.14352E+05
-0.80000162E-01  0.15207E+05
-0.29999971E-01  0.15123E+05
 0.19999981E-01  0.14878E+05
 0.69999933E-01  0.13760E+05
 0.11999989E+00  0.11093E+05
 0.17000008E+00  0.80190E+04
 0.21999979E+00  0.57090E+04
 0.26999998E+00  0.40660E+04
 0.32000017E+00  0.23350E+04
 0.36999989E+00  0.16100E+03
 0.42000008E+00 -0.24490E+04
 0.46999979E+00 -0.52550E+04
 0.51999998E+00 -0.77650E+04
 0.57000017E+00 -0.98450E+04
 0.61999989E+00 -0.11790E+05
 0.67000008E+00 -0.13964E+05
 0.71999979E+00 -0.16262E+05
 0.76999998E+00 -0.17794E+05
 0.82000017E+00 -0.18055E+05
 0.86999989E+00 -0.17494E+05
 0.92000008E+00 -0.16576E+05
 0.96999979E+00 -0.15588E+05
 0.10200000E+01 -0.14855E+05
 0.10700002E+01 -0.14588E+05
 0.11199999E+01 -0.14873E+05
 0.11700001E+01 -0.15537E+05
 0.12199998E+01 -0.15820E+05
 0.12700000E+01 -0.15078E+05
 0.13200002E+01 -0.13308E+05
 0.13699999E+01 -0.10833E+05
 0.14200001E+01 -0.80090E+04
 0.14699998E+01 -0.46450E+04
 0.15200000E+01 -0.55800E+03
 0.15700002E+01  0.35210E+04
 0.16199999E+01  0.67700E+04
 0.16700001E+01  0.92840E+04
 0.17199998E+01  0.11025E+05
 0.17700000E+01  0.11286E+05
 0.18200002E+01  0.99980E+04
 0.18699999E+01  0.81110E+04
 0.19200001E+01  0.66150E+04
 0.19699998E+01  0.52010E+04
 0.20200000E+01  0.32260E+04
 0.20700002E+01  0.72100E+03
 0.21199999E+01 -0.19690E+04
 0.21700001E+01 -0.40800E+04
 0.22199998E+01 -0.52050E+04
 0.22700000E+01 -0.54690E+04
 0.23200002E+01 -0.49560E+04
 0.23699999E+01 -0.41180E+04
 0.24200001E+01 -0.36210E+04
 0.24699998E+01 -0.35130E+04
 0.25200000E+01 -0.38600E+04
 0.25700002E+01 -0.46490E+04
 0.26199999E+01 -0.54540E+04
 0.26700001E+01 -0.59280E+04
 0.27199998E+01 -0.58040E+04
 0.27700000E+01 -0.56990E+04
 0.28200002E+01 -0.60470E+04
 0.28699999E+01 -0.66690E+04
 0.29200001E+01 -0.80040E+04
 0.29699998E+01 -0.10392E+05
 0.30200000E+01 -0.13304E+05
 0.30700002E+01 -0.15777E+05
 0.31199999E+01 -0.17086E+05
 0.31700001E+01 -0.16946E+05
 0.32199998E+01 -0.16166E+05
 0.32700000E+01 -0.15525E+05
 0.33200002E+01 -0.14523E+05
 0.33699999E+01 -0.12573E+05
 0.34200001E+01 -0.10022E+05
 0.34699998E+01 -0.70770E+04
 0.35200000E+01 -0.43190E+04
 0.35700002E+01 -0.29120E+04
 0.36199999E+01 -0.20950E+04
 0.36700001E+01 -0.11260E+04
 0.37199998E+01  0.36100E+03
 0.37700000E+01  0.25210E+04
 0.38200002E+01  0.46780E+04
 0.38699999E+01  0.63560E+04
 0.39200001E+01  0.74090E+04
 0.39699998E+01  0.86400E+04
 0.40200000E+01  0.97950E+04
 0.40700002E+01  0.10819E+05
 0.41199999E+01  0.12777E+05
 0.41700001E+01  0.16236E+05
 0.42200003E+01  0.20775E+05
 0.42700005E+01  0.25890E+05
 0.43199997E+01  0.31721E+05
 0.43699999E+01  0.37156E+05
 0.44200001E+01  0.41275E+05
 0.44700003E+01  0.44698E+05
 0.45200005E+01  0.48158E+05
 0.45699997E+01  0.51008E+05
 0.46199999E+01  0.53214E+05
 0.46700001E+01  0.55543E+05
 0.47200003E+01  0.57040E+05
 0.47700005E+01  0.56965E+05
 0.48199997E+01  0.55744E+05
 0.48699999E+01  0.53665E+05
 0.49200001E+01  0.50728E+05
 0.49700003E+01  0.47498E+05
 0.50200005E+01  0.43943E+05
 0.50699997E+01  0.39620E+05
 0.51199999E+01  0.35149E+05
 0.51700001E+01  0.30161E+05
 0.52200003E+01  0.24431E+05
 0.52700005E+01  0.18497E+05
 0.53199997E+01  0.12303E+05
 0.53699999E+01  0.67520E+04
 0.54200001E+01  0.21490E+04
 0.54700003E+01 -0.22880E+04
 0.55200005E+01 -0.67590E+04
 0.55699997E+01 -0.11334E+05
 0.56199999E+01 -0.16485E+05
 0.56700001E+01 -0.22096E+05
 0.57200003E+01 -0.26941E+05
 0.57700005E+01 -0.30876E+05
 0.58199997E+01 -0.34361E+05
 0.58699999E+01 -0.36873E+05
 0.59200001E+01 -0.38770E+05
 0.59700003E+01 -0.40866E+05
 0.60200005E+01 -0.42869E+05
 0.60699997E+01 -0.44555E+05
 0.61199999E+01 -0.46297E+05
 0.61700001E+01 -0.48378E+05
 0.62200003E+01 -0.49977E+05
 0.62700005E+01 -0.50616E+05
 0.63199997E+01 -0.51050E+05
 0.63699999E+01 -0.50938E+05
 0.64200001E+01 -0.49633E+05
 0.64700003E+01 -0.47651E+05
 0.65200005E+01 -0.45148E+05
 0.65699997E+01 -0.41884E+05
 0.66199999E+01 -0.38001E+05
 0.66700001E+01 -0.33314E+05
 0.67200003E+01 -0.27998E+05
 0.67700005E+01 -0.22642E+05
 0.68199997E+01 -0.17157E+05
 0.68699999E+01 -0.11461E+05
 0.69200001E+01 -0.59180E+04
 0.69700003E+01 -0.82500E+03
 0.70200005E+01  0.36290E+04
 0.70699997E+01  0.76000E+04
 0.71199999E+01  0.10971E+05
 0.71700001E+01  0.13170E+05
 0.72200003E+01  0.14521E+05
 0.72700005E+01  0.15395E+05
 0.73199997E+01  0.15724E+05
 0.73699999E+01  0.16087E+05
 0.74200001E+01  0.16550E+05
 0.74700003E+01  0.17053E+05
 0.75200005E+01  0.17866E+05
 0.75699997E+01  0.18361E+05
 0.76199999E+01  0.18692E+05
 0.76700001E+01  0.18811E+05
 0.77200003E+01  0.18191E+05
 0.77700005E+01  0.16746E+05
 0.78199997E+01  0.14295E+05
 0.78699999E+01  0.11599E+05
 0.79200001E+01  0.96010E+04
 0.79700003E+01  0.87140E+04
 0.80200005E+01  0.83810E+04
 0.80699997E+01  0.83770E+04
 0.81199999E+01  0.89430E+04
 0.81700001E+01  0.10077E+05
 0.82200003E+01  0.11151E+05
 0.82700005E+01  0.11472E+05
 0.83199997E+01  0.11646E+05
 0.83699999E+01  0.11643E+05
 0.84200001E+01  0.11126E+05
 0.84700003E+01  0.96770E+04
 0.85200005E+01  0.78640E+04
 0.85699997E+01  0.62350E+04
 0.86199999E+01  0.45660E+04
 0.86700001E+01  0.27620E+04
 0.87200003E+01  0.33200E+03
 0.87700005E+01 -0.19560E+04
 0.88199997E+01 -0.45600E+04
 0.88699999E+01 -0.77930E+04
 0.89200001E+01 -0.11407E+05
 0.89700003E+01 -0.15453E+05
 0.90200005E+01 -0.18917E+05
 0.90699997E+01 -0.21806E+05
 0.91199999E+01 -0.24016E+05
 0.91700001E+01 -0.25861E+05
 0.92200003E+01 -0.27786E+05
 0.92700005E+01 -0.30319E+05
 0.93199997E+01 -0.33070E+05
 0.93699999E+01 -0.35357E+05
 0.94200001E+01 -0.36379E+05
 0.94700003E+01 -0.36324E+05
 0.95200005E+01 -0.35013E+05
 0.95699997E+01 -0.32343E+05
 0.96199999E+01 -0.32052E+05
 0.96700001E+01 -0.31358E+05
 0.97200003E+01 -0.52453E+05
 0.97700005E+01 -0.12770E+06
 0.98199997E+01 -0.24647E+06
 0.98699999E+01 -0.30285E+06
 0.99200001E+01 -0.23765E+06
 0.99700003E+01 -0.63685E+05
 0.10020000E+02  0.20745E+06
 0.10070000E+02  0.29183E+06
 0.10120000E+02  0.13262E+05
 0.10170000E+02 -0.29337E+06
 0.10220000E+02 -0.36120E+06
 0.10270000E+02 -0.38849E+06
 0.10320000E+02 -0.27905E+06
 0.10370000E+02  0.89550E+05
 0.10420000E+02  0.20322E+06
 0.10470000E+02 -0.37315E+05
 0.10520000E+02 -0.24026E+06
 0.10570000E+02 -0.26410E+06
 0.10620000E+02 -0.21947E+06
 0.10670000E+02 -0.17334E+06
 0.10720000E+02  0.29930E+04
 0.10770000E+02  0.15770E+06
 0.10820000E+02 -0.14371E+06
 0.10870000E+02 -0.15195E+06
 0.10920000E+02  0.54642E+05
 0.10970000E+02 -0.44918E+06
 0.11020000E+02 -0.38603E+06
 0.11070000E+02  0.50387E+05
 0.11120000E+02  0.18708E+06
 0.11170000E+02  0.48198E+06
 0.11220000E+02  0.32418E+06
 0.11270000E+02  0.45514E+06
 0.11320000E+02  0.28165E+06
 0.11370000E+02 -0.53804E+06
 0.11420000E+02 -0.29889E+06
 0.11470000E+02  0.15227E+05
 0.11520000E+02 -0.69367E+05
 0.11570000E+02  0.31255E+05
 0.11620000E+02  0.16430E+06
 0.11670000E+02  0.16997E+06
 0.11720000E+02  0.79706E+05
 0.11770000E+02  0.22657E+06
 0.11820000E+02  0.33916E+06
 0.11870000E+02  0.27482E+06
 0.11920000E+02 -0.24125E+06
 0.11970000E+02 -0.35978E+06
 0.12020000E+02 -0.12209E+06
 0.12070000E+02 -0.58215E+06
 0.12120000E+02 -0.61179E+06
 0.12170001E+02 -0.85182E+06
 0.12220000E+02 -0.10585E+07
 0.12270000E+02 -0.85754E+05
 0.12320001E+02  0.63419E+06
 0.12370000E+02  0.10116E+07
 0.12420001E+02  0.64668E+06
 0.12470000E+02  0.36975E+06
 0.12520000E+02  0.77530E+06
 0.12570001E+02  0.73234E+06
 0.12620000E+02  0.14317E+07
 0.12670001E+02  0.12492E+07
 0.12720000E+02  0.12249E+05
 0.12770000E+02 -0.43719E+06
 0.12820001E+02  0.11968E+06
 0.12870000E+02  0.12104E+06
 0.12920001E+02 -0.16006E+07
 0.12970000E+02 -0.11918E+07
 0.13020000E+02 -0.20621E+06
 0.13070001E+02 -0.43720E+06
 0.13120000E+02  0.23766E+06
 0.13170001E+02  0.15824E+06
 0.13220000E+02 -0.11851E+07
 0.13270000E+02 -0.14912E+07
 0.13320001E+02 -0.72473E+06
 0.13370000E+02 -0.82808E+06
 0.13420001E+02 -0.12902E+07
 0.13470000E+02 -0.12662E+07
 0.13520000E+02 -0.77883E+05
 0.13570001E+02 -0.62328E+06
 0.13620000E+02 -0.16330E+07
 0.13670001E+02 -0.44892E+06
 0.13720000E+02 -0.58128E+06
 0.13770000E+02  0.62606E+06
 0.13820001E+02  0.16402E+07
 0.13870000E+02  0.90515E+06
 0.13920001E+02  0.16587E+07
 0.13970000E+02  0.14862E+07
 0.14020000E+02 -0.47973E+06
 0.14070001E+02 -0.16811E+07
 0.14120000E+02 -0.85437E+06
 0.14170001E+02  0.92568E+05
 0.14220000E+02 -0.75822E+06
 0.14270000E+02 -0.71318E+06
 0.14320001E+02  0.13276E+07
 0.14370000E+02  0.26776E+06
 0.14420001E+02 -0.95945E+06
 0.14470000E+02  0.53789E+05
 0.14520000E+02 -0.10008E+07
 0.14570001E+02 -0.18702E+07
 0.14620000E+02 -0.64018E+06
 0.14670001E+02  0.51648E+06
 0.14720000E+02 -0.15857E+06
 0.14770000E+02 -0.11965E+07
 0.14820001E+02 -0.91345E+06
 0.14870000E+02 -0.18606E+06
 0.14920001E+02 -0.76696E+06
 0.14970000E+02 -0.19142E+07
 0.15020000E+02 -0.35780E+07
 0.15070001E+02 -0.55976E+07
 0.15120000E+02 -0.38103E+07
 0.15170001E+02 -0.16317E+07
 0.15220000E+02 -0.23236E+07
 0.15270000E+02 -0.13327E+07
 0.15320001E+02  0.55692E+06
 0.15370000E+02  0.10312E+07
 0.15420001E+02  0.11445E+06
 0.15470000E+02 -0.13075E+07
 0.15520000E+02 -0.17570E+07
 0.15570001E+02 -0.24268E+07
 0.15620000E+02 -0.13965E+07
 0.15670001E+02 -0.33487E+06
 0.15720000E+02 -0.23861E+07
 0.15770000E+02 -0.33781E+07
 0.15820001E+02 -0.29510E+07
 0.15870000E+02 -0.35940E+07
 0.15920001E+02 -0.49447E+07
 0.15970000E+02 -0.39154E+07
 0.16020000E+02 -0.23936E+07
 0.16070000E+02 -0.27935E+07
 0.16119999E+02 -0.13392E+07
 0.16170002E+02 -0.16906E+06
 0.16220001E+02 -0.14963E+07
 0.16270000E+02 -0.17122E+07
 0.16320000E+02 -0.45268E+06
 0.16369999E+02 -0.11854E+07
 0.16420002E+02 -0.16668E+07
 0.16470001E+02 -0.21421E+06
 0.16520000E+02  0.79410E+06
 0.16570000E+02  0.12542E+07
 0.16619999E+02  0.26701E+07
 0.16670002E+02  0.68937E+07
 0.16720001E+02  0.89797E+07
 0.16770000E+02  0.80009E+07
 0.16820000E+02  0.48699E+07
 0.16869999E+02  0.14047E+07
 0.16920002E+02 -0.10114E+06
 0.16970001E+02 -0.17692E+07
 0.17020000E+02  0.15104E+07
 0.17070000E+02  0.52708E+07
 0.17119999E+02  0.50258E+07
 0.17170002E+02  0.63963E+07
 0.17220001E+02  0.82301E+07
 0.17270000E+02  0.94052E+07
 0.17320000E+02  0.84942E+07
 0.17369999E+02  0.49647E+07
 0.17420002E+02  0.40540E+07
 0.17470001E+02  0.39126E+07
 0.17520000E+02  0.24941E+07
 0.17570000E+02  0.19153E+07
 0.17619999E+02 -0.18854E+06
 0.17670002E+02 -0.34754E+07
 0.17720001E+02 -0.71135E+07
 0.17770000E+02 -0.76746E+07
 0.17820000E+02 -0.13732E+07
 0.17869999E+02  0.42338E+07
 0.17920002E+02  0.30708E+07
 0.17970001E+02  0.19052E+07
 0.18020000E+02  0.77476E+06
 0.18070000E+02 -0.30242E+07
 0.18119999E+02 -0.33541E+07
 0.18170002E+02 -0.19815E+07
 0.18220001E+02 -0.25448E+07
 0.18270000E+02 -0.24139E+07
 0.18320000E+02 -0.13402E+06
 0.18369999E+02  0.22746E+07
 0.18420002E+02  0.26999E+07
 0.18470001E+02  0.15363E+07
 0.18520000E+02  0.29507E+07
 0.18570000E+02  0.54770E+07
 0.18619999E+02  0.32797E+07
 0.18670002E+02 -0.12911E+07
 0.18720001E+02 -0.32611E+07
 0.18770000E+02 -0.73438E+06
 0.18820000E+02  0.63721E+06
 0.18869999E+02 -0.11215E+07
 0.18920002E+02 -0.41578E+07
 0.18970001E+02 -0.50797E+07
 0.19020000E+02 -0.61946E+06
 0.19070000E+02  0.21363E+07
 0.19119999E+02  0.37409E+07
 0.19170002E+02  0.34287E+07
 0.19220001E+02  0.14490E+07
 0.19270000E+02  0.21982E+06
 0.19320000E+02 -0.25605E+07
 0.19369999E+02 -0.28242E+07
 0.19420002E+02 -0.23732E+07
 0.19470001E+02  0.16946E+07
 0.19520000E+02  0.50669E+07
 0.19570000E+02  0.15778E+07
 0.19619999E+02 -0.28571E+07
 0.19670002E+02 -0.58344E+07
 0.19720001E+02 -0.42116E+07
 0.19770000E+02 -0.25882E+07
 0.19820000E+02 -0.14009E+07
 0.19869999E+02  0.93406E+06
 0.19920002E+02  0.19399E+07
 0.19970001E+02  0.37672E+07
 0.20020000E+02  0.37112E+07
 0.20070000E+02  0.15096E+07
 0.20119999E+02  0.25093E+07
 0.20170002E+02  0.57298E+07
 0.20220001E+02  0.52825E+07
 0.20270000E+02  0.16643E+07
 0.20320000E+02 -0.77537E+06
 0.20369999E+02 -0.18442E+07
 0.20420002E+02 -0.45266E+07
 0.20470001E+02 -0.62211E+07
 0.20520000E+02 -0.47688E+07
 0.20570000E+02 -0.39961E+07
 0.20619999E+02 -0.30389E+07
 0.20670002E+02 -0.15102E+07
 0.20720001E+02  0.74411E+06
 0.20770000E+02  0.39912E+07
 0.20820000E+02  0.60436E+07
 0.20869999E+02  0.79682E+07
 0.20920002E+02  0.10595E+08
 0.20970001E+02  0.13266E+08
 0.21020000E+02  0.13109E+08
 0.21070000E+02  0.96734E+07
 0.21119999E+02  0.59073E+07
 0.21170002E+02  0.31961E+07
 0.21220001E+02  0.13300E+07
 0.21270000E+02 -0.51498E+06
 0.21320000E+02 -0.16512E+07
 0.21369999E+02 -0.18135E+07
 0.21420002E+02 -0.11451E+07
 0.21470001E+02  0.31986E+06
 0.21520000E+02  0.31556E+07
 0.21570000E+02  0.58182E+07
 0.21619999E+02  0.65230E+07
 0.21670002E+02  0.77657E+07
 0.21720001E+02  0.96893E+07
 0.21770000E+02  0.10407E+08
 0.21820000E+02  0.89271E+07
 0.21869999E+02  0.61255E+07
 0.21920002E+02  0.46016E+07
 0.21970001E+02  0.34079E+07
 0.22020000E+02  0.77076E+06
 0.22070000E+02 -0.16345E+07
 0.22119999E+02 -0.29934E+07
 0.22170002E+02 -0.38212E+07
 0.22220001E+02 -0.29237E+07
 0.22270000E+02 -0.22509E+07
 0.22320000E+02 -0.28740E+07
 0.22369999E+02 -0.32975E+07
 0.22420002E+02 -0.35015E+07
 0.22470001E+02 -0.16876E+07
 0.22520000E+02 -0.42284E+06
 0.22570000E+02 -0.92989E+06
 0.22619999E+02 -0.15050E+06
 0.22670002E+02  0.16983E+07
 0.22720001E+02  0.41436E+07
 0.22770000E+02  0.38376E+07
 0.22820000E+02  0.15521E+07
 0.22869999E+02  0.11493E+07
 0.22920002E+02  0.51567E+06
 0.22970001E+02 -0.14179E+07
 0.23020000E+02 -0.48497E+07
 0.23070000E+02 -0.89710E+07
 0.23119999E+02 -0.10944E+08
 0.23170002E+02 -0.97870E+07
 0.23220001E+02 -0.69630E+07
 0.23270000E+02 -0.44561E+07
 0.23320000E+02 -0.25429E+07
 0.23369999E+02 -0.15749E+07
 0.23420002E+02 -0.91661E+06
 0.23470001E+02 -0.33701E+06
 0.23520000E+02 -0.71880E+04
 0.23570000E+02  0.36838E+06
 0.23619999E+02 -0.50307E+05
 0.23670002E+02 -0.57896E+05
 0.23720001E+02 -0.31678E+06
 0.23770000E+02 -0.16182E+07
 0.23820000E+02 -0.24639E+07
 0.23869999E+02 -0.25177E+07
 0.23920002E+02 -0.15641E+07
 0.23970001E+02 -0.54585E+05
 0.24020000E+02  0.12746E+07
 0.24070000E+02  0.12400E+07
 0.24119999E+02 -0.12397E+05
 0.24170002E+02 -0.19210E+07
 0.24220001E+02 -0.29014E+07
 0.24270000E+02 -0.21706E+07
 0.24320000E+02 -0.16065E+07
 0.24369999E+02 -0.10448E+07
 0.24420002E+02 -0.22656E+07
 0.24470001E+02 -0.42833E+07
 0.24520000E+02 -0.40665E+07
 0.24570000E+02 -0.33913E+07
 0.24619999E+02 -0.33692E+07
 0.24670002E+02 -0.31420E+07
 0.24720001E+02 -0.26062E+07
 0.24770000E+02 -0.21889E+07
 0.24820000E+02 -0.57832E+06
 0.24869999E+02  0.43383E+06
 0.24920002E+02  0.25955E+05
 0.24970001E+02  0.97834E+05
 0.25020000E+02 -0.18840E+06
 0.25070000E+02 -0.49197E+06
 0.25119999E+02 -0.10240E+07
 0.25170002E+02 -0.13026E+07
 0.25220001E+02 -0.55110E+06
 0.25270000E+02 -0.26337E+06
 0.25320000E+02 -0.98005E+06
 0.25369999E+02 -0.20092E+07
 0.25420002E+02 -0.28635E+07
 0.25470001E+02 -0.34348E+07
 0.25520000E+02 -0.34444E+07
 0.25570000E+02 -0.39154E+07
 0.25619999E+02 -0.45689E+07
 0.25670002E+02 -0.47269E+07
 0.25720001E+02 -0.51649E+07
 0.25770000E+02 -0.51492E+07
 0.25820000E+02 -0.48395E+07
 0.25869999E+02 -0.41985E+07
 0.25920002E+02 -0.27181E+07
 0.25970001E+02 -0.16176E+07
 0.26020000E+02 -0.13966E+07
 0.26070000E+02 -0.15536E+07
 0.26119999E+02 -0.15010E+07
 0.26170002E+02 -0.12810E+07
 0.26220001E+02 -0.14128E+07
 0.26270000E+02 -0.19964E+07
 0.26320000E+02 -0.23216E+07
 0.26369999E+02 -0.15378E+07
 0.26420002E+02 -0.25120E+06
 0.26470001E+02  0.12886E+06
 0.26520000E+02 -0.66603E+05
 0.26570000E+02  0.53623E+06
 0.26619999E+02  0.17384E+07
 0.26670002E+02  0.26884E+07
 0.26720001E+02  0.29066E+07
 0.26770000E+02  0.27035E+07
 0.26820000E+02  0.25254E+07
 0.26869999E+02  0.20331E+07
 0.26920002E+02  0.10442E+07
 0.26970001E+02 -0.78884E+06
 0.27020000E+02 -0.24921E+07
 0.27070000E+02 -0.30207E+07
 0.27119999E+02 -0.30062E+07
 0.27170002E+02 -0.23772E+07
 0.27220001E+02 -0.16782E+07
 0.27270000E+02 -0.84520E+06
 0.27320000E+02  0.49999E+06
 0.27369999E+02  0.66938E+06
 0.27420002E+02  0.72013E+05
 0.27470001E+02 -0.14869E+06
 0.27520000E+02 -0.75860E+06
 0.27570000E+02 -0.15455E+07
 0.27619999E+02 -0.20383E+07
 0.27670002E+02 -0.22302E+07
 0.27720001E+02 -0.19786E+07
 0.27770000E+02 -0.16331E+07
 0.27820000E+02 -0.19018E+07
 0.27869999E+02 -0.27700E+07
 0.27920002E+02 -0.29661E+07
 0.27970001E+02 -0.21582E+07
 0.28020000E+02 -0.60034E+06
 0.28070000E+02  0.13234E+07
 0.28119999E+02  0.25521E+07
 0.28169998E+02  0.31116E+07
 0.28220001E+02  0.29555E+07
 0.28270000E+02  0.25404E+07
 0.28320000E+02  0.21758E+07
 0.28369999E+02  0.12305E+07
 0.28419998E+02  0.59881E+06
 0.28470001E+02  0.34206E+06
 0.28520000E+02 -0.21886E+05
 0.28570000E+02 -0.31049E+06
 0.28619999E+02 -0.39674E+06
 0.28669998E+02  0.10016E+05
 0.28720001E+02  0.20378E+06
 0.28770000E+02  0.36689E+06
 0.28820000E+02  0.10846E+07
 0.28869999E+02  0.17752E+07
 0.28919998E+02  0.23314E+07
 0.28970001E+02  0.26573E+07
 0.29020000E+02  0.24095E+07
 0.29070000E+02  0.18759E+07
 0.29119999E+02  0.12099E+07
 0.29169998E+02  0.17964E+06
 0.29220001E+02 -0.63373E+06
 0.29270000E+02 -0.95936E+06
 0.29320000E+02 -0.12307E+07
 0.29369999E+02 -0.12497E+07
 0.29419998E+02 -0.92960E+06
 0.29470001E+02 -0.52945E+06
 0.29520000E+02 -0.35495E+06
 0.29570000E+02 -0.37614E+06
 0.29619999E+02 -0.13983E+06
 0.29669998E+02  0.25793E+06
 0.29720001E+02  0.63144E+06
 0.29770000E+02  0.13733E+07
 0.29820000E+02  0.21790E+07
 0.29869999E+02  0.21919E+07
 0.29919998E+02  0.17706E+07
 0.29970001E+02  0.13635E+07
 0.30020000E+02  0.91985E+06
 0.30070000E+02  0.27158E+06
 0.30119999E+02 -0.63334E+06
 0.30169998E+02 -0.15271E+07
 0.30220001E+02 -0.22295E+07
 0.30270000E+02 -0.24533E+07
 0.30320000E+02 -0.25683E+07
 0.30369999E+02 -0.27632E+07
 0.30419998E+02 -0.27241E+07
 0.30470001E+02 -0.24458E+07
 0.30520000E+02 -0.16364E+07
 0.30570000E+02 -0.37748E+06
 0.30619999E+02  0.61063E+06
 0.30669998E+02  0.11874E+07
 0.30720001E+02  0.16278E+07
 0.30770000E+02  0.16616E+07
 0.30820000E+02  0.93441E+06
 0.30869999E+02 -0.61195E+05
 0.30919998E+02 -0.65096E+06
 0.30970001E+02 -0.69694E+06
 0.31020000E+02 -0.14160E+06
 0.31070000E+02  0.85746E+06
 0.31119999E+02  0.15475E+07
 0.31169998E+02  0.12724E+07
 0.31220001E+02  0.76770E+06
 0.31270000E+02  0.52306E+06
 0.31320000E+02 -0.15804E+06
 0.31369999E+02 -0.75026E+06
 0.31419998E+02 -0.63314E+06
 0.31470001E+02 -0.38695E+06
 0.31520000E+02 -0.24569E+06
 0.31570000E+02 -0.39252E+06
 0.31619999E+02 -0.84256E+06
 0.31669998E+02 -0.14536E+07
 0.31720001E+02 -0.18974E+07
 0.31770000E+02 -0.15724E+07
 0.31820000E+02 -0.77952E+06
 0.31869999E+02  0.18588E+06
 0.31919998E+02  0.76103E+06
 0.31970001E+02  0.72183E+06
 0.32020000E+02  0.78473E+06
 0.32070000E+02  0.70483E+06
 0.32119999E+02  0.38912E+06
 0.32169998E+02  0.54960E+06
 0.32220001E+02  0.10044E+07
 0.32270000E+02  0.15560E+07
 0.32320000E+02  0.24089E+07
 0.32369999E+02  0.25622E+07
 0.32419998E+02  0.18613E+07
 0.32470001E+02  0.10335E+07
 0.32520000E+02  0.66223E+06
 0.32570000E+02  0.12808E+07
 0.32619999E+02  0.19143E+07
 0.32669998E+02  0.20271E+07
 0.32720001E+02  0.22055E+07
 0.32770000E+02  0.25857E+07
 0.32820000E+02  0.25531E+07
 0.32869999E+02  0.20067E+07
 0.32919998E+02  0.16553E+07
 0.32970001E+02  0.16746E+07
 0.33020000E+02  0.19902E+07
 0.33070000E+02  0.22592E+07
 0.33119999E+02  0.20064E+07
 0.33169998E+02  0.12410E+07
 0.33220001E+02  0.49723E+06
 0.33270000E+02  0.19702E+05
 0.33320000E+02 -0.75350E+06
 0.33369999E+02 -0.14122E+07
 0.33419998E+02 -0.12142E+07
 0.33470001E+02 -0.59513E+06
 0.33520000E+02 -0.13630E+05
 0.33570000E+02  0.40935E+06
 0.33619999E+02  0.70275E+06
 0.33669998E+02  0.76175E+06
 0.33720001E+02  0.73654E+06
 0.33770000E+02  0.64084E+06
 0.33820000E+02  0.37120E+06
 0.33869999E+02  0.88810E+05
 0.33919998E+02 -0.31610E+05
 0.33970001E+02  0.11108E+06
 0.34020000E+02  0.98468E+05
 0.34070000E+02 -0.36577E+05
 0.34119999E+02  0.11828E+05
 0.34169998E+02  0.32316E+06
 0.34220001E+02  0.67549E+06
 0.34270000E+02  0.77838E+06
 0.34320000E+02  0.57248E+06
 0.34369999E+02  0.11576E+06
 0.34419998E+02 -0.21274E+06
 0.34470001E+02 -0.41150E+06
 0.34520000E+02 -0.88630E+06
 0.34570000E+02 -0.16210E+07
 0.34619999E+02 -0.20455E+07
 0.34669998E+02 -0.21201E+07
 0.34720001E+02 -0.22855E+07
 0.34770000E+02 -0.23831E+07
 0.34820000E+02 -0.18664E+07
 0.34869999E+02 -0.10198E+07
 0.34919998E+02 -0.46929E+06
 0.34970001E+02 -0.72101E+05
 0.35020000E+02  0.39028E+06
 0.35070000E+02  0.12437E+07
 0.35119999E+02  0.19902E+07
 0.35169998E+02  0.22346E+07
 0.35220001E+02  0.23696E+07
 0.35270000E+02  0.21711E+07
 0.35320000E+02  0.21720E+07
 0.35369999E+02  0.26084E+07
 0.35419998E+02  0.28583E+07
 0.35470001E+02  0.30731E+07
 0.35520000E+02  0.30713E+07
 0.35570000E+02  0.29013E+07
 0.35619999E+02  0.31907E+07
 0.35669998E+02  0.34587E+07
 0.35720001E+02  0.35493E+07
 0.35770000E+02  0.35897E+07
 0.35820000E+02  0.31519E+07
 0.35869999E+02  0.24168E+07
 0.35919998E+02  0.18186E+07
 0.35970001E+02  0.11874E+07
 0.36020000E+02  0.75273E+06
 0.36070000E+02  0.66590E+06
 0.36119999E+02  0.28607E+06
 0.36169998E+02  0.23279E+06
 0.36220001E+02  0.13827E+06
 0.36270000E+02 -0.84638E+06
 0.36320000E+02 -0.17653E+07
 0.36369999E+02 -0.23352E+07
 0.36419998E+02 -0.28661E+07
 0.36470001E+02 -0.34387E+07
 0.36520000E+02 -0.39475E+07
 0.36570000E+02 -0.42809E+07
 0.36619999E+02 -0.43601E+07
 0.36669998E+02 -0.39917E+07
 0.36720001E+02 -0.33115E+07
 0.36770000E+02 -0.27917E+07
 0.36820000E+02 -0.25430E+07
 0.36869999E+02 -0.21753E+07
 0.36919998E+02 -0.15559E+07
 0.36970001E+02 -0.12888E+07
 0.37020000E+02 -0.14724E+07
 0.37070000E+02 -0.14430E+07
 0.37119999E+02 -0.12776E+07
 0.37169998E+02 -0.93655E+06
 0.37220001E+02 -0.35125E+06
 0.37270000E+02  0.18340E+06
 0.37320000E+02  0.88599E+06
 0.37369999E+02  0.18219E+07
 0.37419998E+02  0.24263E+07
 0.37470001E+02  0.22611E+07
 0.37520000E+02  0.20216E+07
 0.37570000E+02  0.20158E+07
 0.37619999E+02  0.18301E+07
 0.37669998E+02  0.15509E+07
 0.37720001E+02  0.11651E+07
 0.37770000E+02  0.93309E+06
 0.37820000E+02  0.84289E+06
 0.37869999E+02  0.54722E+06
 0.37919998E+02  0.38462E+06
 0.37970001E+02  0.24676E+06
 0.38020000E+02  0.11460E+06
 0.38070000E+02  0.47521E+06
 0.38119999E+02  0.95470E+06
 0.38169998E+02  0.15288E+07
 0.38220001E+02  0.20572E+07
 0.38270000E+02  0.19729E+07
 0.38320000E+02  0.17227E+07
 0.38369999E+02  0.13209E+07
 0.38419998E+02  0.56360E+06
 0.38470001E+02 -0.25645E+06
 0.38520000E+02 -0.10054E+07
 0.38570000E+02 -0.14926E+07
 0.38619999E+02 -0.17227E+07
 0.38669998E+02 -0.20320E+07
 0.38720001E+02 -0.22918E+07
 0.38770000E+02 -0.22997E+07
 0.38820000E+02 -0.21533E+07
 0.38869999E+02 -0.16854E+07
 0.38919998E+02 -0.12735E+07
 0.38970001E+02 -0.10465E+07
 0.39020000E+02 -0.66584E+06
 0.39070000E+02 -0.46270E+06
 0.39119999E+02 -0.32200E+06
 0.39169998E+02 -0.10928E+05
 0.39220001E+02  0.24706E+06
 0.39270000E+02  0.61026E+06
 0.39320000E+02  0.94481E+06
 0.39369999E+02  0.92456E+06
 0.39419998E+02  0.80749E+06
 0.39470001E+02  0.66940E+06
 0.39520000E+02  0.39717E+06
 0.39570000E+02  0.51194E+05
 0.39619999E+02 -0.21034E+06
 0.39669998E+02 -0.42656E+06
 0.39720001E+02 -0.74404E+06
 0.39770000E+02 -0.10152E+07
 0.39820000E+02 -0.12521E+07
 0.39869999E+02 -0.15225E+07
 0.39919998E+02 -0.17032E+07
 0.39970001E+02 -0.16539E+07
 0.40020000E+02 -0.13854E+07
 0.40070000E+02 -0.10549E+07
 0.40119999E+02 -0.70658E+06
 0.40169998E+02 -0.38392E+06
 0.40220001E+02 -0.15014E+06
 0.40270000E+02 -0.53968E+05
 0.40320000E+02 -0.23009E+06
 0.40369999E+02 -0.37697E+06
 0.40419998E+02 -0.26984E+06
 0.40470001E+02 -0.72882E+05
 0.40520000E+02  0.26003E+06
 0.40570000E+02  0.72180E+06
 0.40619999E+02  0.11559E+07
 0.40669998E+02  0.12921E+07
 0.40720001E+02  0.13853E+07
 0.40770000E+02  0.15842E+07
 0.40820000E+02  0.16764E+07
 0.40869999E+02  0.15824E+07
 0.40919998E+02  0.13606E+07
 0.40970001E+02  0.11809E+07
 0.41020000E+02  0.73164E+06
 0.41070000E+02  0.12600E+06
 0.41119999E+02 -0.55063E+06
 0.41169998E+02 -0.10602E+07
 0.41220001E+02 -0.94504E+06
 0.41270000E+02 -0.79418E+06
 0.41320000E+02 -0.65583E+06
 0.41369999E+02 -0.20546E+06
 0.41419998E+02  0.16834E+06
 0.41470001E+02  0.37865E+06
 0.41520000E+02  0.62086E+06
 0.41570000E+02  0.78369E+06
 0.41619999E+02  0.77964E+06
 0.41669998E+02  0.68606E+06
 0.41720001E+02  0.46716E+06
 0.41770000E+02  0.24331E+06
 0.41820000E+02 -0.80111E+05
 0.41869999E+02 -0.49905E+06
 0.41919998E+02 -0.58367E+06
 0.41970001E+02 -0.63579E+06
 0.42020000E+02 -0.92013E+06
 0.42070000E+02 -0.11683E+07
 0.42119999E+02 -0.12966E+07
 0.42169998E+02 -0.13642E+07
 0.42220001E+02 -0.14507E+07
 0.42270000E+02 -0.15940E+07
 0.42320000E+02 -0.17067E+07
 0.42369999E+02 -0.16714E+07
 0.42419998E+02 -0.16370E+07
 0.42470001E+02 -0.16957E+07
 0.42520000E+02 -0.15533E+07
 0.42570000E+02 -0.10790E+07
 0.42619999E+02 -0.76400E+06
 0.42669998E+02 -0.69086E+06
 0.42720001E+02 -0.44632E+06
 0.42770000E+02 -0.20400E+06
 0.42820000E+02 -0.62488E+05
 0.42869999E+02  0.25134E+05
 0.42919998E+02  0.16134E+06
 0.42970001E+02  0.43666E+06
 0.43020000E+02  0.64463E+06
 0.43070000E+02  0.92158E+06
 0.43119999E+02  0.11002E+07
 0.43169998E+02  0.83237E+06
 0.43220001E+02  0.35765E+06
 0.43270000E+02  0.79712E+05
 0.43320000E+02 -0.11443E+06
 0.43369999E+02 -0.31277E+06
 0.43419998E+02 -0.23373E+06
 0.43470001E+02 -0.26570E+05
 0.43520000E+02  0.24509E+06
 0.43570000E+02  0.57190E+06
 0.43619999E+02  0.91719E+06
 0.43669998E+02  0.12432E+07
 0.43720001E+02  0.13401E+07
 0.43770000E+02  0.12074E+07
 0.43820000E+02  0.96953E+06
 0.43869999E+02  0.86764E+06
 0.43919998E+02  0.80843E+06
 0.43970001E+02  0.59857E+06
 0.44020000E+02  0.39765E+06
 0.44070000E+02  0.23271E+06
 0.44119999E+02  0.10552E+06
 0.44169998E+02  0.47746E+05
 0.44220001E+02  0.56028E+05
 0.44270000E+02  0.12039E+06
 0.44320000E+02  0.96562E+05
 0.44369999E+02 -0.73937E+05
 0.44419998E+02 -0.38849E+06
 0.44470001E+02 -0.63677E+06
 0.44520000E+02 -0.65807E+06
 0.44570000E+02 -0.65695E+06
 0.44619999E+02 -0.73270E+06
 0.44669998E+02 -0.10151E+07
 0.44720001E+02 -0.11962E+07
 0.44770000E+02 -0.94546E+06
 0.44820000E+02 -0.73723E+06
 0.44869999E+02 -0.67690E+06
 0.44919998E+02 -0.68324E+06
 0.44970001E+02 -0.63065E+06
 0.45020000E+02 -0.31317E+06
 0.45070000E+02 -0.99450E+04
 0.45119999E+02  0.19296E+06
 0.45169998E+02  0.28582E+06
 0.45220001E+02  0.23417E+06
 0.45270000E+02  0.13376E+06
 0.45320000E+02  0.62590E+05
 0.45369999E+02  0.29172E+05
 0.45419998E+02  0.25570E+04
 0.45470001E+02  0.24937E+05
 0.45520000E+02  0.21535E+06
 0.45570000E+02  0.57467E+06
 0.45619999E+02  0.10258E+07
 0.45669998E+02  0.16518E+07
 0.45720001E+02  0.20298E+07
 0.45770000E+02  0.19497E+07
 0.45820000E+02  0.17473E+07
 0.45869999E+02  0.14400E+07
 0.45919998E+02  0.11771E+07
 0.45970001E+02  0.97498E+06
 0.46020000E+02  0.77188E+06
 0.46070000E+02  0.65117E+06
 0.46119999E+02  0.42309E+06
 0.46169998E+02  0.28871E+06
 0.46220001E+02  0.39738E+06
 0.46270000E+02  0.34734E+06
 0.46320000E+02  0.77781E+05
 0.46369999E+02 -0.10691E+05
 0.46419998E+02  0.20158E+06
 0.46470001E+02  0.24589E+06
 0.46520000E+02  0.85858E+05
 0.46570000E+02 -0.10417E+06
 0.46619999E+02 -0.36508E+06
 0.46669998E+02 -0.33178E+06
 0.46720001E+02 -0.80293E+05
 0.46770000E+02 -0.24110E+05
 0.46820000E+02 -0.16065E+05
 0.46869999E+02  0.37082E+05
 0.46919998E+02  0.17453E+06
 0.46970001E+02  0.45044E+06
 0.47020000E+02  0.68098E+06
 0.47070000E+02  0.73161E+06
 0.47119999E+02  0.55036E+06
 0.47169998E+02  0.29679E+06
 0.47220001E+02 -0.23727E+05
 0.47270000E+02 -0.30174E+06
 0.47320000E+02 -0.45589E+06
 0.47369999E+02 -0.76496E+06
 0.47419998E+02 -0.12000E+07
 0.47470001E+02 -0.16636E+07
 0.47520000E+02 -0.19045E+07
 0.47570000E+02 -0.18321E+07
 0.47619999E+02 -0.17348E+07
 0.47669998E+02 -0.16980E+07
 0.47720001E+02 -0.14768E+07
 0.47770000E+02 -0.11241E+07
 0.47820000E+02 -0.94234E+06
 0.47869999E+02 -0.86692E+06
 0.47919998E+02 -0.98823E+06
 0.47970001E+02 -0.12140E+07
 0.48020000E+02 -0.12633E+07
 0.48070000E+02 -0.10677E+07
 0.48119999E+02 -0.74805E+06
 0.48169998E+02 -0.47288E+06
 0.48220001E+02 -0.12579E+06
 0.48270000E+02  0.24612E+06
 0.48320000E+02  0.53190E+06
 0.48369999E+02  0.65723E+06
 0.48419998E+02  0.75148E+06
 0.48470001E+02  0.10049E+07
 0.48520000E+02  0.13791E+07
 0.48570000E+02  0.18559E+07
 0.48619999E+02  0.22200E+07
 0.48669998E+02  0.23402E+07
 0.48720001E+02  0.21550E+07
 0.48770000E+02  0.18147E+07
 0.48820000E+02  0.15109E+07
 0.48869999E+02  0.12310E+07
 0.48919998E+02  0.10790E+07
 0.48970001E+02  0.99510E+06
 0.49020000E+02  0.95017E+06
 0.49070000E+02  0.81612E+06
 0.49119999E+02  0.61012E+06
 0.49169998E+02  0.42330E+06
 0.49220001E+02  0.13992E+06
 0.49270000E+02 -0.16686E+06
 0.49320000E+02 -0.50093E+06
 0.49369999E+02 -0.86659E+06
 0.49419998E+02 -0.11772E+07
 0.49470001E+02 -0.12462E+07
 0.49520000E+02 -0.11989E+07
 0.49570000E+02 -0.12771E+07
 0.49619999E+02 -0.13036E+07
 0.49669998E+02 -0.11450E+07
 0.49720001E+02 -0.85532E+06
 0.49770000E+02 -0.65703E+06
 0.49820000E+02 -0.51328E+06
 0.49869999E+02 -0.22028E+06
 0.49919998E+02  0.84051E+05
 0.49970001E+02  0.23874E+06
 0.50020000E+02  0.24440E+06
 0.50070000E+02  0.91914E+05
 0.50119999E+02 -0.29615E+05
 0.50169998E+02  0.15772E+06
 0.50220001E+02  0.41957E+06
 0.50270000E+02  0.56661E+06
 0.50320000E+02  0.74597E+06
 0.50369999E+02  0.89155E+06
 0.50419998E+02  0.91318E+06
 0.50470001E+02  0.88626E+06
 0.50520000E+02  0.92083E+06
 0.50570000E+02  0.96430E+06
 0.50619999E+02  0.81918E+06
 0.50669998E+02  0.50510E+06
 0.50720001E+02  0.19243E+06
 0.50770000E+02  0.22280E+05
 0.50820000E+02 -0.85887E+05
 0.50869999E+02 -0.25110E+06
 0.50919998E+02 -0.26735E+06
 0.50970001E+02 -0.19963E+06
 0.51020000E+02 -0.34326E+06
 0.51070000E+02 -0.67151E+06
 0.51119999E+02 -0.83446E+06
 0.51169998E+02 -0.69723E+06
 0.51220001E+02 -0.65602E+06
 0.51270000E+02 -0.81082E+06
 0.51320000E+02 -0.96051E+06
 0.51369999E+02 -0.10029E+07
 0.51419998E+02 -0.93683E+06
 0.51470001E+02 -0.98562E+06
 0.51520000E+02 -0.11608E+07
 0.51570000E+02 -0.12989E+07
 0.51619999E+02 -0.14426E+07
 0.51669998E+02 -0.15438E+07
 0.51720001E+02 -0.14388E+07
 0.51770000E+02 -0.11668E+07
 0.51820000E+02 -0.89004E+06
 0.51869999E+02 -0.65046E+06
 0.51919998E+02 -0.31343E+06
 0.51970001E+02  0.13179E+06
 0.52020000E+02  0.52764E+06
 0.52070000E+02  0.84316E+06
 0.52119999E+02  0.10598E+07
 0.52169998E+02  0.11589E+07
 0.52220001E+02  0.12729E+07
 0.52270000E+02  0.14011E+07
 0.52320000E+02  0.14249E+07
 0.52369999E+02  0.14409E+07
 0.52419998E+02  0.15543E+07
 0.52470001E+02  0.16487E+07
 0.52520000E+02  0.15718E+07
 0.52570000E+02  0.14187E+07
 0.52619999E+02  0.13531E+07
 0.52669998E+02  0.13073E+07
 0.52720001E+02  0.11603E+07
 0.52770000E+02  0.92371E+06
 0.52820000E+02  0.71974E+06
 0.52869999E+02  0.52828E+06
 0.52919998E+02  0.25694E+06
 0.52970001E+02  0.17490E+05
 0.53020000E+02 -0.70849E+05
 0.53070000E+02 -0.10455E+06
 0.53119999E+02 -0.23678E+06
 0.53169998E+02 -0.47554E+06
 0.53220001E+02 -0.68398E+06
 0.53270000E+02 -0.70478E+06
 0.53320000E+02 -0.61403E+06
 0.53369999E+02 -0.59586E+06
 0.53419998E+02 -0.59785E+06
 0.53470001E+02 -0.56025E+06
 0.53520000E+02 -0.60355E+06
 0.53570000E+02 -0.82144E+06
 0.53619999E+02 -0.11295E+07
 0.53669998E+02 -0.12968E+07
 0.53720001E+02 -0.12646E+07
 0.53770000E+02 -0.11279E+07
 0.53820000E+02 -0.99105E+06
 0.53869999E+02 -0.93842E+06
 0.53919998E+02 -0.92330E+06
 0.53970001E+02 -0.84171E+06
 0.54020000E+02 -0.64608E+06
 0.54070000E+02 -0.43723E+06
 0.54119999E+02 -0.32545E+06
 0.54169998E+02 -0.30263E+06
 0.54220001E+02 -0.23089E+06
 0.54270000E+02 -0.19873E+05
 0.54320000E+02  0.23946E+06
 0.54369999E+02  0.43213E+06
 0.54419998E+02  0.57176E+06
 0.54470001E+02  0.71053E+06
 0.54520000E+02  0.81492E+06
 0.54570000E+02  0.84459E+06
 0.54619999E+02  0.76484E+06
 0.54669998E+02  0.61344E+06
 0.54720001E+02  0.46136E+06
 0.54770000E+02  0.40478E+06
 0.54820000E+02  0.46484E+06
 0.54869999E+02  0.53564E+06
 0.54919998E+02  0.57365E+06
 0.54970001E+02  0.55894E+06
 0.55020000E+02  0.48607E+06
 0.55070000E+02  0.46148E+06
 0.55119999E+02  0.56362E+06
 0.55169998E+02  0.70183E+06
 0.55220001E+02  0.74912E+06
 0.55270000E+02  0.64664E+06
 0.55320000E+02  0.52917E+06
 0.55369999E+02  0.44748E+06
 0.55419998E+02  0.25887E+06
 0.55470001E+02  0.37564E+05
 0.55520000E+02 -0.92439E+05
 0.55570000E+02 -0.14860E+06
 0.55619999E+02 -0.22023E+06
 0.55669998E+02 -0.33737E+06
 0.55720001E+02 -0.39596E+06
 0.55770000E+02 -0.38739E+06
 0.55820000E+02 -0.38478E+06
 0.55869999E+02 -0.38874E+06
 0.55919998E+02 -0.35507E+06
 0.55970001E+02 -0.31567E+06
 0.56020000E+02 -0.29072E+06
 0.56070000E+02 -0.21450E+06
 0.56119999E+02 -0.13715E+06
 0.56169998E+02 -0.11585E+06
 0.56220001E+02 -0.18258E+06
 0.56270000E+02 -0.26951E+06
 0.56320000E+02 -0.30930E+06
 0.56369999E+02 -0.46995E+06
 0.56419998E+02 -0.67023E+06
 0.56470001E+02 -0.74386E+06
 0.56520000E+02 -0.77212E+06
 0.56570000E+02 -0.72478E+06
 0.56619999E+02 -0.58213E+06
 0.56669998E+02 -0.48665E+06
 0.56720001E+02 -0.48693E+06
 0.56770000E+02 -0.45321E+06
 0.56820000E+02 -0.30683E+06
 0.56869999E+02 -0.18068E+06
 0.56919998E+02 -0.13519E+06
 0.56970001E+02 -0.79501E+05
 0.57020000E+02  0.18444E+05
 0.57070000E+02  0.11500E+06
 0.57119999E+02  0.11794E+06
 0.57169998E+02  0.23773E+05
 0.57220001E+02 -0.76647E+05
 0.57270000E+02 -0.11932E+06
 0.57320000E+02 -0.87672E+05
 0.57369999E+02  0.70989E+05
 0.57419998E+02  0.29343E+06
 0.57470001E+02  0.38396E+06
 0.57520000E+02  0.34038E+06
 0.57570000E+02  0.26216E+06
 0.57619999E+02  0.18377E+06
 0.57669998E+02  0.64268E+05
 0.57720001E+02 -0.88981E+05
 0.57770000E+02 -0.26230E+06
 0.57820000E+02 -0.41849E+06
 0.57869999E+02 -0.48744E+06
 0.57919998E+02 -0.51075E+06
 0.57970001E+02 -0.44866E+06
 0.58020000E+02 -0.30210E+06
 0.58070000E+02 -0.13045E+06
 0.58119999E+02  0.86041E+05
 0.58169998E+02  0.33853E+06
 0.58220001E+02  0.56033E+06
 0.58270000E+02  0.67130E+06
 0.58320000E+02  0.67402E+06
 0.58369999E+02  0.62067E+06
 0.58419998E+02  0.48914E+06
 0.58470001E+02  0.26117E+06
 0.58520000E+02  0.70771E+05
 0.58570000E+02 -0.32260E+05
 0.58619999E+02 -0.10312E+06
 0.58669998E+02 -0.16932E+06
 0.58720001E+02 -0.22815E+06
 0.58770000E+02 -0.20824E+06
 0.58820000E+02 -0.97142E+05
 0.58869999E+02  0.44830E+05
 0.58919998E+02  0.18651E+06
 0.58970001E+02  0.39052E+06
 0.59020000E+02  0.58824E+06
 0.59070000E+02  0.69692E+06
 0.59119999E+02  0.74544E+06
 0.59169998E+02  0.65930E+06
 0.59220001E+02  0.46983E+06
 0.59270000E+02  0.29805E+06
 0.59320000E+02  0.18941E+06
 0.59369999E+02  0.13555E+06
 0.59419998E+02  0.15188E+06
 0.59470001E+02  0.24140E+06
 0.59520000E+02  0.33079E+06
 0.59570000E+02  0.34382E+06
 0.59619999E+02  0.28640E+06
 0.59669998E+02  0.26112E+06
 0.59720001E+02  0.26619E+06
 0.59770000E+02  0.22600E+06
 0.59820000E+02  0.13384E+06
 0.59869999E+02 -0.26322E+05
 0.59919998E+02 -0.25599E+06
 0.59970001E+02 -0.40287E+06
 0.60020000E+02 -0.39537E+06
 0.60070000E+02 -0.37555E+06
 0.60119999E+02 -0.41681E+06
 0.60170002E+02 -0.49798E+06
 0.60219997E+02 -0.54900E+06
 0.60270000E+02 -0.55329E+06
 0.60320004E+02 -0.56656E+06
 0.60369999E+02 -0.53686E+06
 0.60420002E+02 -0.48410E+06
 0.60469997E+02 -0.51300E+06
 0.60520000E+02 -0.55357E+06
 0.60570004E+02 -0.54609E+06
 0.60619999E+02 -0.49133E+06
 0.60670002E+02 -0.35465E+06
 0.60719997E+02 -0.15483E+06
 0.60770000E+02  0.73326E+05
 0.60820004E+02  0.25998E+06
 0.60869999E+02  0.32544E+06
 0.60920002E+02  0.26959E+06
 0.60969997E+02  0.17644E+06
 0.61020000E+02  0.16810E+06
 0.61070004E+02  0.23390E+06
 0.61119999E+02  0.26490E+06
 0.61170002E+02  0.23287E+06
 0.61219997E+02  0.13640E+06
 0.61270000E+02  0.70570E+04
 0.61320004E+02 -0.11302E+06
 0.61369999E+02 -0.21708E+06
 0.61420002E+02 -0.30484E+06
 0.61469997E+02 -0.37586E+06
 0.61520000E+02 -0.40582E+06
 0.61570004E+02 -0.38742E+06
 0.61619999E+02 -0.28908E+06
 0.61670002E+02 -0.15863E+06
 0.61719997E+02 -0.65766E+05
 0.61770000E+02  0.29763E+05
 0.61820004E+02  0.12890E+06
 0.61869999E+02  0.18710E+06
 0.61920002E+02  0.13964E+06
 0.61969997E+02  0.18630E+05
 0.62020000E+02 -0.12320E+06
 0.62070004E+02 -0.28514E+06
 0.62119999E+02 -0.39683E+06
 0.62170002E+02 -0.42610E+06
 0.62219997E+02 -0.37442E+06
 0.62270000E+02 -0.25675E+06
 0.62320004E+02 -0.12679E+06
 0.62369999E+02  0.25430E+04
 0.62420002E+02  0.11319E+06
 0.62469997E+02  0.19026E+06
 0.62520000E+02  0.25941E+06
 0.62570004E+02  0.31654E+06
 0.62619999E+02  0.37443E+06
 0.62670002E+02  0.43377E+06
 0.62719997E+02  0.43835E+06
 0.62770000E+02  0.37107E+06
 0.62820004E+02  0.29042E+06
 0.62869999E+02  0.24590E+06
 0.62920002E+02  0.23258E+06
 0.62969997E+02  0.25828E+06
 0.63020000E+02  0.30034E+06
 0.63070004E+02  0.33276E+06
 0.63119999E+02  0.32812E+06
 0.63170002E+02  0.25218E+06
 0.63219997E+02  0.16133E+06
 0.63270000E+02  0.76185E+05
 0.63320004E+02  0.36120E+04
 0.63369999E+02 -0.78253E+05
 0.63420002E+02 -0.22816E+06
 0.63469997E+02 -0.37786E+06
 0.63520000E+02 -0.47028E+06
 0.63570004E+02 -0.50639E+06
 0.63619999E+02 -0.54454E+06
 0.63670002E+02 -0.61377E+06
 0.63719997E+02 -0.62888E+06
 0.63770000E+02 -0.58089E+06
 0.63820004E+02 -0.47467E+06
 0.63869999E+02 -0.32435E+06
 0.63920002E+02 -0.17444E+06
 0.63969997E+02 -0.26251E+05
 0.64020004E+02  0.85277E+05
 0.64070007E+02  0.15212E+06
 0.64120003E+02  0.19150E+06
 0.64170006E+02  0.21367E+06
 0.64220001E+02  0.23451E+06
 0.64270004E+02  0.26275E+06
 0.64320007E+02  0.30065E+06
 0.64370003E+02  0.32155E+06
 0.64420006E+02  0.27715E+06
 0.64470001E+02  0.18244E+06
 0.64520004E+02  0.12678E+06
 0.64570007E+02  0.10176E+06
 0.64620003E+02  0.34180E+05
 0.64670006E+02 -0.75132E+05
 0.64720001E+02 -0.15368E+06
 0.64770004E+02 -0.16765E+06
 0.64820007E+02 -0.13316E+06
 0.64870003E+02 -0.52058E+05
 0.64920006E+02  0.41163E+05
 0.64970001E+02  0.99830E+05
 0.65020004E+02  0.10279E+06
 0.65070007E+02  0.88917E+05
 0.65120003E+02  0.74936E+05
 0.65170006E+02  0.22464E+05
 0.65220001E+02 -0.59284E+05
 0.65270004E+02 -0.15835E+06
 0.65320007E+02 -0.26446E+06
 0.65370003E+02 -0.34222E+06
 0.65420006E+02 -0.38439E+06
 0.65470001E+02 -0.37769E+06
 0.65520004E+02 -0.32743E+06
 0.65570007E+02 -0.26560E+06
 0.65620003E+02 -0.20560E+06
 0.65670006E+02 -0.18095E+06
 0.65720001E+02 -0.18512E+06
 0.65770004E+02 -0.19328E+06
 0.65820007E+02 -0.19032E+06
 0.65870003E+02 -0.14936E+06
 0.65920006E+02 -0.94514E+05
 0.65970001E+02 -0.44543E+05
 0.66020004E+02  0.49090E+04
 0.66070007E+02  0.29858E+05
 0.66120003E+02  0.31004E+05
 0.66170006E+02  0.20592E+05
 0.66220001E+02  0.43623E+05
 0.66270004E+02  0.14563E+06
 0.66320007E+02  0.24476E+06
 0.66370003E+02  0.28482E+06
 0.66420006E+02  0.30158E+06
 0.66470001E+02  0.31451E+06
 0.66520004E+02  0.33680E+06
 0.66570007E+02  0.36245E+06
 0.66620003E+02  0.35868E+06
 0.66670006E+02  0.28934E+06
 0.66720001E+02  0.18484E+06
 0.66770004E+02  0.10477E+06
 0.66820007E+02  0.49272E+05
 0.66870003E+02  0.22614E+05
 0.66920006E+02  0.30200E+03
 0.66970001E+02 -0.42394E+05
 0.67020004E+02 -0.79449E+05
 0.67070007E+02 -0.81601E+05
 0.67120003E+02 -0.30060E+05
 0.67170006E+02  0.43712E+05
 0.67220001E+02  0.97990E+05
 0.67270004E+02  0.11876E+06
 0.67320007E+02  0.12229E+06
 0.67370003E+02  0.13129E+06
 0.67420006E+02  0.15606E+06
 0.67470001E+02  0.19364E+06
 0.67520004E+02  0.20094E+06
 0.67570007E+02  0.16789E+06
 0.67620003E+02  0.18384E+06
 0.67670006E+02  0.26672E+06
 0.67720001E+02  0.29167E+06
 0.67770004E+02  0.29048E+06
 0.67820007E+02  0.36543E+06
 0.67870003E+02  0.45208E+06
 0.67920006E+02  0.49845E+06
 0.67970001E+02  0.46013E+06
 0.68020004E+02  0.32898E+06
 0.68070007E+02  0.16858E+06
 0.68120003E+02  0.40600E+03
 0.68170006E+02 -0.15325E+06
 0.68220001E+02 -0.27311E+06
 0.68270004E+02 -0.35530E+06
 0.68320007E+02 -0.40580E+06
 0.68370003E+02 -0.39773E+06
 0.68420006E+02 -0.32378E+06
 0.68470001E+02 -0.22632E+06
 0.68520004E+02 -0.11719E+06
 0.68570007E+02 -0.33614E+05
 0.68620003E+02 -0.12230E+04
 0.68670006E+02  0.61370E+04
 0.68720001E+02  0.18818E+05
 0.68770004E+02  0.36414E+05
 0.68820007E+02  0.24179E+05
 0.68870003E+02 -0.26915E+05
 0.68920006E+02 -0.10616E+06
 0.68970001E+02 -0.19041E+06
 0.69020004E+02 -0.21478E+06
 0.69070007E+02 -0.15034E+06
 0.69120003E+02 -0.59417E+05
 0.69170006E+02 -0.68800E+04
 0.69220001E+02  0.27572E+05
 0.69270004E+02  0.10353E+06
 0.69320007E+02  0.20962E+06
 0.69370003E+02  0.32681E+06
 0.69420006E+02  0.43876E+06
 0.69470001E+02  0.49301E+06
 0.69520004E+02  0.50919E+06
 0.69570007E+02  0.53842E+06
 0.69620003E+02  0.56563E+06
 0.69670006E+02  0.56489E+06
 0.69720001E+02  0.55979E+06
 0.69770004E+02  0.57769E+06
 0.69820007E+02  0.61989E+06
 0.69870003E+02  0.62564E+06
 0.69920006E+02  0.58920E+06
 0.69970001E+02  0.56109E+06
 0.70020004E+02  0.49648E+06
 0.70070007E+02  0.41517E+06
 0.70120003E+02  0.36649E+06
 0.70170006E+02  0.32772E+06
 0.70220001E+02  0.30333E+06
 0.70270004E+02  0.29573E+06
 0.70320007E+02  0.27883E+06
 0.70370003E+02  0.26228E+06
 0.70420006E+02  0.27080E+06
 0.70470001E+02  0.28992E+06
 0.70520004E+02  0.27958E+06
 0.70570007E+02  0.25537E+06
 0.70620003E+02  0.25866E+06
 0.70670006E+02  0.21801E+06
 0.70720001E+02  0.11859E+06
 0.70770004E+02  0.59449E+05
 0.70820007E+02  0.28047E+05
 0.70870003E+02 -0.55365E+05
 0.70920006E+02 -0.15453E+06
 0.70970001E+02 -0.18846E+06
 0.71020004E+02 -0.13203E+06
 0.71070007E+02  0.12733E+05
 0.71120003E+02  0.15085E+06
 0.71170006E+02  0.20389E+06
 0.71220001E+02  0.19461E+06
 0.71270004E+02  0.19200E+06
 0.71320007E+02  0.24174E+06
 0.71370003E+02  0.25766E+06
 0.71420006E+02  0.19369E+06
 0.71470001E+02  0.87532E+05
 0.71520004E+02 -0.20739E+05
 0.71570007E+02 -0.90706E+05
 0.71620003E+02 -0.15617E+06
 0.71670006E+02 -0.23728E+06
 0.71720001E+02 -0.31495E+06
 0.71770004E+02 -0.40185E+06
 0.71820007E+02 -0.49953E+06
 0.71870003E+02 -0.60198E+06
 0.71920006E+02 -0.69029E+06
 0.71970001E+02 -0.75405E+06
 0.72020004E+02 -0.81827E+06
 0.72070007E+02 -0.86406E+06
 0.72120003E+02 -0.86380E+06
 0.72170006E+02 -0.81780E+06
 0.72220001E+02 -0.70438E+06
 0.72270004E+02 -0.55454E+06
 0.72320007E+02 -0.46408E+06
 0.72370003E+02 -0.44195E+06
 0.72420006E+02 -0.41371E+06
 0.72470001E+02 -0.33773E+06
 0.72520004E+02 -0.25230E+06
 0.72570007E+02 -0.18573E+06
 0.72620003E+02 -0.12906E+06
 0.72670006E+02 -0.92130E+05
 0.72720001E+02 -0.58244E+05
 0.72770004E+02 -0.45407E+05
 0.72820007E+02 -0.50781E+05
 0.72870003E+02 -0.46607E+05
 0.72920006E+02 -0.58712E+05
 0.72970001E+02 -0.86364E+05
 0.73020004E+02 -0.12481E+06
 0.73070007E+02 -0.17429E+06
 0.73120003E+02 -0.25250E+06
 0.73170006E+02 -0.29987E+06
 0.73220001E+02 -0.25700E+06
 0.73270004E+02 -0.20669E+06
 0.73320007E+02 -0.19122E+06
 0.73370003E+02 -0.21045E+06
 0.73420006E+02 -0.24280E+06
 0.73470001E+02 -0.27624E+06
 0.73520004E+02 -0.31677E+06
 0.73570007E+02 -0.32558E+06
 0.73620003E+02 -0.31162E+06
 0.73670006E+02 -0.31115E+06
 0.73720001E+02 -0.33576E+06
 0.73770004E+02 -0.38980E+06
 0.73820007E+02 -0.46000E+06
 0.73870003E+02 -0.52742E+06
 0.73920006E+02 -0.58982E+06
 0.73970001E+02 -0.63891E+06
 0.74020004E+02 -0.66044E+06
 0.74070007E+02 -0.64673E+06
 0.74120003E+02 -0.57695E+06
 0.74170006E+02 -0.43743E+06
 0.74220001E+02 -0.28438E+06
 0.74270004E+02 -0.18292E+06
 0.74320007E+02 -0.12284E+06
 0.74370003E+02 -0.89706E+05
 0.74420006E+02 -0.79914E+05
 0.74470001E+02 -0.11562E+06
 0.74520004E+02 -0.19744E+06
 0.74570007E+02 -0.27523E+06
 0.74620003E+02 -0.33596E+06
 0.74670006E+02 -0.37297E+06
 0.74720001E+02 -0.38658E+06
 0.74770004E+02 -0.35838E+06
 0.74820007E+02 -0.28493E+06
 0.74870003E+02 -0.20528E+06
 0.74920006E+02 -0.15051E+06
 0.74970001E+02 -0.13696E+06
 0.75020004E+02 -0.13651E+06
 0.75070007E+02 -0.13938E+06
 0.75120003E+02 -0.13521E+06
 0.75170006E+02 -0.85533E+05
 0.75220001E+02 -0.24766E+05
 0.75270004E+02 -0.27242E+05
 0.75320007E+02 -0.66070E+05
 0.75370003E+02 -0.71398E+05
 0.75420006E+02 -0.36686E+05
 0.75470001E+02  0.26093E+05
 0.75520004E+02  0.11458E+06
 0.75570007E+02  0.21608E+06
 0.75620003E+02  0.29928E+06
 0.75670006E+02  0.37359E+06
 0.75720001E+02  0.45584E+06
 0.75770004E+02  0.51734E+06
 0.75820007E+02  0.56809E+06
 0.75870003E+02  0.61648E+06
 0.75920006E+02  0.63401E+06
 0.75970001E+02  0.59536E+06
 0.76020004E+02  0.54068E+06
 0.76070007E+02  0.53216E+06
 0.76120003E+02  0.50858E+06
 0.76170006E+02  0.42907E+06
 0.76220001E+02  0.33770E+06
 0.76270004E+02  0.26632E+06
 0.76320007E+02  0.19610E+06
 0.76370003E+02  0.11866E+06
 0.76420006E+02  0.77975E+05
 0.76470001E+02  0.91589E+05
 0.76520004E+02  0.15418E+06
 0.76570007E+02  0.22928E+06
 0.76620003E+02  0.27094E+06
 0.76670006E+02  0.25892E+06
 0.76720001E+02  0.21042E+06
 0.76770004E+02  0.16981E+06
 0.76820007E+02  0.16037E+06
 0.76870003E+02  0.15309E+06
 0.76920006E+02  0.13574E+06
 0.76970001E+02  0.11957E+06
 0.77020004E+02  0.74779E+05
 0.77070007E+02  0.10350E+05
 0.77120003E+02 -0.31161E+05
 0.77170006E+02 -0.40653E+05
 0.77220001E+02 -0.35931E+05
 0.77270004E+02 -0.15892E+05
 0.77320007E+02  0.19895E+05
 0.77370003E+02  0.64149E+05
 0.77420006E+02  0.14047E+06
 0.77470001E+02  0.23339E+06
 0.77520004E+02  0.32503E+06
 0.77570007E+02  0.41587E+06
 0.77620003E+02  0.48839E+06
 0.77670006E+02  0.54964E+06
 0.77720001E+02  0.57520E+06
 0.77770004E+02  0.53588E+06
 0.77820007E+02  0.47702E+06
 0.77870003E+02  0.45839E+06
 0.77920006E+02  0.49025E+06
 0.77970001E+02  0.54443E+06
 0.78020004E+02  0.59033E+06
 0.78070007E+02  0.59550E+06
 0.78120003E+02  0.55111E+06
 0.78170006E+02  0.48489E+06
 0.78220001E+02  0.42689E+06
 0.78270004E+02  0.40161E+06
 0.78320007E+02  0.39013E+06
 0.78370003E+02  0.34628E+06
 0.78420006E+02  0.28707E+06
 0.78470001E+02  0.24555E+06
 0.78520004E+02  0.21896E+06
 0.78570007E+02  0.18666E+06
 0.78620003E+02  0.13888E+06
 0.78670006E+02  0.10343E+06
 0.78720001E+02  0.84015E+05
 0.78770004E+02  0.75941E+05
 0.78820007E+02  0.92630E+05
 0.78870003E+02  0.14630E+06
 0.78920006E+02  0.21429E+06
 0.78970001E+02  0.22621E+06
 0.79020004E+02  0.16092E+06
 0.79070007E+02  0.50489E+05
 0.79120003E+02 -0.50697E+05
 0.79170006E+02 -0.11920E+06
 0.79220001E+02 -0.15016E+06
 0.79270004E+02 -0.12349E+06
 0.79320007E+02 -0.84257E+05
 0.79370003E+02 -0.67601E+05
 0.79420006E+02 -0.66864E+05
 0.79470001E+02 -0.71371E+05
 0.79520004E+02 -0.59845E+05
 0.79570007E+02 -0.21687E+05
 0.79620003E+02  0.38966E+05
 0.79670006E+02  0.10977E+06
 0.79720001E+02  0.19758E+06
 0.79770004E+02  0.26373E+06
 0.79820007E+02  0.24662E+06
 0.79870003E+02  0.16617E+06
 0.79920006E+02  0.59513E+05
 0.79970001E+02 -0.26016E+05
 0.80020004E+02 -0.41499E+05
 0.80070007E+02 -0.84510E+04
 0.80120003E+02  0.20165E+05
 0.80170006E+02  0.12976E+05
 0.80220001E+02 -0.13970E+05
 0.80270004E+02 -0.39572E+05
 0.80320007E+02 -0.42407E+05
 0.80370003E+02 -0.77510E+04
 0.80420006E+02  0.34998E+05
 0.80470001E+02  0.59846E+05
 0.80520004E+02  0.51081E+05
 0.80570007E+02 -0.42040E+04
 0.80620003E+02 -0.92545E+05
 0.80670006E+02 -0.18577E+06
 0.80720001E+02 -0.26329E+06
 0.80770004E+02 -0.29412E+06
 0.80820007E+02 -0.28649E+06
 0.80870003E+02 -0.26064E+06
 0.80920006E+02 -0.21297E+06
 0.80970001E+02 -0.16205E+06
 0.81020004E+02 -0.13755E+06
 0.81070007E+02 -0.14640E+06
 0.81120003E+02 -0.13148E+06
 0.81170006E+02 -0.83725E+05
 0.81220001E+02 -0.32850E+05
 0.81270004E+02  0.41090E+04
 0.81320007E+02  0.13041E+05
 0.81370003E+02  0.18270E+05
 0.81420006E+02  0.84600E+04
 0.81470001E+02 -0.21821E+05
 0.81520004E+02 -0.69012E+05
 0.81570007E+02 -0.12019E+06
 0.81620003E+02 -0.14311E+06
 0.81670006E+02 -0.17263E+06
 0.81720001E+02 -0.22512E+06
 0.81770004E+02 -0.26507E+06
 0.81820007E+02 -0.30483E+06
 0.81870003E+02 -0.36990E+06
 0.81920006E+02 -0.43974E+06
 0.81970001E+02 -0.49238E+06
 0.82020004E+02 -0.53418E+06
 0.82070007E+02 -0.57281E+06
 0.82120003E+02 -0.60543E+06
 0.82170006E+02 -0.64458E+06
 0.82220001E+02 -0.68866E+06
 0.82270004E+02 -0.71016E+06
 0.82320007E+02 -0.69166E+06
 0.82370003E+02 -0.65131E+06
 0.82420006E+02 -0.62974E+06
 0.82470001E+02 -0.61763E+06
 0.82520004E+02 -0.60288E+06
 0.82570007E+02 -0.58982E+06
 0.82620003E+02 -0.56024E+06
 0.82670006E+02 -0.53510E+06
 0.82720001E+02 -0.52159E+06
 0.82770004E+02 -0.47280E+06
 0.82820007E+02 -0.39225E+06
 0.82870003E+02 -0.35849E+06
 0.82920006E+02 -0.39218E+06
 0.82970001E+02 -0.40869E+06
 0.83020004E+02 -0.36156E+06
 0.83070007E+02 -0.26774E+06
 0.83120003E+02 -0.15576E+06
 0.83170006E+02 -0.67619E+05
 0.83220001E+02 -0.15469E+05
 0.83270004E+02  0.17530E+05
 0.83320007E+02  0.36428E+05
 0.83370003E+02  0.36557E+05
 0.83420006E+02  0.21794E+05
 0.83470001E+02  0.33910E+04
 0.83520004E+02 -0.14359E+05
 0.83570007E+02 -0.35490E+05
 0.83620003E+02 -0.63586E+05
 0.83670006E+02 -0.60008E+05
 0.83720001E+02 -0.16080E+04
 0.83770004E+02  0.68041E+05
 0.83820007E+02  0.12487E+06
 0.83870003E+02  0.16251E+06
 0.83920006E+02  0.19269E+06
 0.83970001E+02  0.22923E+06
 0.84020004E+02  0.25725E+06
 0.84070007E+02  0.27634E+06
 0.84120003E+02  0.27423E+06
 0.84170006E+02  0.23522E+06
 0.84220001E+02  0.15832E+06
 0.84270004E+02  0.54633E+05
 0.84320007E+02 -0.38385E+05
 0.84370003E+02 -0.95395E+05
 0.84420006E+02 -0.11300E+06
 0.84470001E+02 -0.10243E+06
 0.84520004E+02 -0.78683E+05
 0.84570007E+02 -0.55525E+05
 0.84620003E+02 -0.47346E+05
 0.84670006E+02 -0.62660E+05
 0.84720001E+02 -0.96484E+05
 0.84770004E+02 -0.11414E+06
 0.84820007E+02 -0.11930E+06
 0.84870003E+02 -0.12761E+06
 0.84920006E+02 -0.11006E+06
 0.84970001E+02 -0.58784E+05
 0.85020004E+02  0.12658E+05
 0.85070007E+02  0.76466E+05
 0.85120003E+02  0.12752E+06
 0.85170006E+02  0.18669E+06
 0.85220001E+02  0.25890E+06
 0.85270004E+02  0.33228E+06
 0.85320007E+02  0.38318E+06
 0.85370003E+02  0.41495E+06
 0.85420006E+02  0.45071E+06
 0.85470001E+02  0.50271E+06
 0.85520004E+02  0.55982E+06
 0.85570007E+02  0.61659E+06
 0.85620003E+02  0.64521E+06
 0.85670006E+02  0.60109E+06
 0.85720001E+02  0.51216E+06
 0.85770004E+02  0.43930E+06
 0.85820007E+02  0.42585E+06
 0.85870003E+02  0.46074E+06
 0.85920006E+02  0.49277E+06
 0.85970001E+02  0.47986E+06
 0.86020004E+02  0.40840E+06
 0.86070007E+02  0.30804E+06
 0.86120003E+02  0.20053E+06
 0.86170006E+02  0.10278E+06
 0.86220001E+02  0.44384E+05
 0.86270004E+02  0.25241E+05
 0.86320007E+02  0.31072E+05
 0.86370003E+02  0.61477E+05
 0.86420006E+02  0.10755E+06
 0.86470001E+02  0.15474E+06
 0.86520004E+02  0.19635E+06
 0.86570007E+02  0.22114E+06
 0.86620003E+02  0.22577E+06
 0.86670006E+02  0.22799E+06
 0.86720001E+02  0.25080E+06
 0.86770004E+02  0.30215E+06
 0.86820007E+02  0.36517E+06
 0.86870003E+02  0.41336E+06
 0.86920006E+02  0.43156E+06
 0.86970001E+02  0.40419E+06
 0.87020004E+02  0.32159E+06
 0.87070007E+02  0.21188E+06
 0.87120003E+02  0.12282E+06
 0.87170006E+02  0.77163E+05
 0.87220001E+02  0.61966E+05
 0.87270004E+02  0.47239E+05
 0.87320007E+02  0.36440E+04
 0.87370003E+02 -0.65727E+05
 0.87420006E+02 -0.15002E+06
 0.87470001E+02 -0.24036E+06
 0.87520004E+02 -0.29556E+06
 0.87570007E+02 -0.30909E+06
 0.87620003E+02 -0.31568E+06
 0.87670006E+02 -0.33300E+06
 0.87720001E+02 -0.36914E+06
 0.87770004E+02 -0.41433E+06
 0.87820007E+02 -0.44578E+06
 0.87870003E+02 -0.46842E+06
 0.87920006E+02 -0.50025E+06
 0.87970001E+02 -0.53733E+06
 0.88020004E+02 -0.55272E+06
 0.88070007E+02 -0.52100E+06
 0.88120003E+02 -0.44587E+06
 0.88170006E+02 -0.35854E+06
 0.88220001E+02 -0.28274E+06
 0.88270004E+02 -0.23267E+06
 0.88320007E+02 -0.19913E+06
 0.88370003E+02 -0.12884E+06
 0.88420006E+02 -0.36301E+05
 0.88470001E+02  0.39440E+05
 0.88520004E+02  0.12528E+06
 0.88570007E+02  0.22824E+06
 0.88620003E+02  0.34430E+06
 0.88670006E+02  0.45550E+06
 0.88720001E+02  0.53383E+06
 0.88770004E+02  0.57694E+06
 0.88820007E+02  0.58597E+06
 0.88870003E+02  0.56773E+06
 0.88920006E+02  0.53911E+06
 0.88970001E+02  0.51705E+06
 0.89020004E+02  0.49328E+06
 0.89070007E+02  0.45945E+06
 0.89120003E+02  0.43119E+06
 0.89170006E+02  0.41608E+06
 0.89220001E+02  0.40628E+06
 0.89270004E+02  0.39073E+06
 0.89320007E+02  0.35769E+06
 0.89370003E+02  0.30995E+06
 0.89420006E+02  0.26339E+06
 0.89470001E+02  0.21223E+06
 0.89520004E+02  0.15441E+06
 0.89570007E+02  0.10666E+06
 0.89620003E+02  0.79563E+05
 0.89670006E+02  0.77106E+05
 0.89720001E+02  0.84221E+05
 0.89770004E+02  0.10143E+06
 0.89820007E+02  0.13716E+06
 0.89870003E+02  0.17621E+06
 0.89920006E+02  0.21571E+06
 0.89970001E+02  0.23850E+06
 0.90020004E+02  0.22384E+06
 0.90070007E+02  0.17919E+06
 0.90120003E+02  0.10847E+06
 0.90170006E+02  0.17416E+05
 0.90220001E+02 -0.74954E+05
 0.90270004E+02 -0.15365E+06
 0.90320007E+02 -0.22920E+06
 0.90370003E+02 -0.31152E+06
 0.90420006E+02 -0.38672E+06
 0.90470001E+02 -0.43999E+06
 0.90520004E+02 -0.45524E+06
 0.90570007E+02 -0.43394E+06
 0.90620003E+02 -0.39614E+06
 0.90670006E+02 -0.36332E+06
 0.90720001E+02 -0.36269E+06
 0.90770004E+02 -0.37451E+06
 0.90820007E+02 -0.38668E+06
 0.90870003E+02 -0.42907E+06
 0.90920006E+02 -0.47239E+06
 0.90970001E+02 -0.48167E+06
 0.91020004E+02 -0.47185E+06
 0.91070007E+02 -0.46345E+06
 0.91120003E+02 -0.45368E+06
 0.91170006E+02 -0.43593E+06
 0.91220001E+02 -0.41044E+06
 0.91270004E+02 -0.36863E+06
 0.91320007E+02 -0.33237E+06
 0.91370003E+02 -0.32360E+06
 0.91420006E+02 -0.33392E+06
 0.91470001E+02 -0.33656E+06
 0.91520004E+02 -0.30984E+06
 0.91570007E+02 -0.27064E+06
 0.91620003E+02 -0.23942E+06
 0.91670006E+02 -0.22418E+06
 0.91720001E+02 -0.22044E+06
 0.91770004E+02 -0.21770E+06
 0.91820007E+02 -0.21443E+06
 0.91870003E+02 -0.20550E+06
 0.91920006E+02 -0.19185E+06
 0.91970001E+02 -0.19528E+06
 0.92020004E+02 -0.21140E+06
 0.92070007E+02 -0.21512E+06
 0.92120003E+02 -0.19856E+06
 0.92170006E+02 -0.15705E+06
 0.92220001E+02 -0.10319E+06
 0.92270004E+02 -0.50702E+05
 0.92320007E+02 -0.26718E+05
 0.92370003E+02 -0.48393E+05
 0.92420006E+02 -0.72649E+05
 0.92470001E+02 -0.71373E+05
 0.92520004E+02 -0.41139E+05
 0.92570007E+02  0.11218E+05
 0.92620003E+02  0.67846E+05
 0.92670006E+02  0.12054E+06
 0.92720001E+02  0.15235E+06
 0.92770004E+02  0.17542E+06
 0.92820007E+02  0.21178E+06
 0.92870003E+02  0.23949E+06
 0.92920006E+02  0.23111E+06
 0.92970001E+02  0.18494E+06
 0.93020004E+02  0.12913E+06
 0.93070007E+02  0.86448E+05
 0.93120003E+02  0.52081E+05
 0.93170006E+02  0.18173E+05
 0.93220001E+02 -0.12393E+05
 0.93270004E+02 -0.18397E+05
 0.93320007E+02 -0.20450E+04
 0.93370003E+02  0.27510E+04
 0.93420006E+02 -0.26880E+04
 0.93470001E+02  0.20411E+05
 0.93520004E+02  0.73278E+05
 0.93570007E+02  0.10410E+06
 0.93620003E+02  0.10341E+06
 0.93670006E+02  0.10407E+06
 0.93720001E+02  0.10599E+06
 0.93770004E+02  0.77220E+05
 0.93820007E+02  0.11938E+05
 0.93870003E+02 -0.43759E+05
 0.93920006E+02 -0.62261E+05
 0.93970001E+02 -0.54536E+05
 0.94020004E+02 -0.34022E+05
 0.94070007E+02 -0.15103E+05
 0.94120003E+02 -0.75600E+03
 0.94170006E+02  0.20046E+05
 0.94220001E+02  0.41460E+05
 0.94270004E+02  0.56263E+05
 0.94320007E+02  0.59955E+05
 0.94370003E+02  0.44316E+05
 0.94420006E+02  0.28045E+05
 0.94470001E+02  0.34456E+05
 0.94520004E+02  0.56429E+05
 0.94570007E+02  0.62421E+05
 0.94620003E+02  0.48815E+05
 0.94670006E+02  0.31865E+05
 0.94720001E+02  0.97100E+04
 0.94770004E+02 -0.15995E+05
 0.94820007E+02 -0.47202E+05
 0.94870003E+02 -0.80032E+05
 0.94920006E+02 -0.10300E+06
 0.94970001E+02 -0.11597E+06
 0.95020004E+02 -0.11071E+06
 0.95070007E+02 -0.82575E+05
 0.95120003E+02 -0.48691E+05
 0.95170006E+02 -0.28025E+05
 0.95220001E+02 -0.25415E+05
 0.95270004E+02 -0.26700E+05
 0.95320007E+02 -0.22872E+05
 0.95370003E+02 -0.31443E+05
 0.95420006E+02 -0.55841E+05
 0.95470001E+02 -0.78434E+05
 0.95520004E+02 -0.95500E+05
 0.95570007E+02 -0.11133E+06
 0.95620003E+02 -0.14095E+06
 0.95670006E+02 -0.18505E+06
 0.95720001E+02 -0.21750E+06
 0.95770004E+02 -0.22570E+06
 0.95820007E+02 -0.21310E+06
 0.95870003E+02 -0.19729E+06
 0.95920006E+02 -0.19194E+06
 0.95970001E+02 -0.18973E+06
 0.96020004E+02 -0.17202E+06
 0.96070007E+02 -0.13134E+06
 0.96120003E+02 -0.80909E+05
 0.96170006E+02 -0.27818E+05
 0.96220001E+02  0.21560E+05
 0.96270004E+02  0.63298E+05
 0.96320007E+02  0.10484E+06
 0.96370003E+02  0.14576E+06
 0.96420006E+02  0.19313E+06
 0.96470001E+02  0.25819E+06
 0.96520004E+02  0.32919E+06
 0.96570007E+02  0.39664E+06
 0.96620003E+02  0.46112E+06
 0.96670006E+02  0.51212E+06
 0.96720001E+02  0.53520E+06
 0.96770004E+02  0.53353E+06
 0.96820007E+02  0.52358E+06
 0.96870003E+02  0.50656E+06
 0.96920006E+02  0.47327E+06
 0.96970001E+02  0.42255E+06
 0.97020004E+02  0.36412E+06
 0.97070007E+02  0.30834E+06
 0.97120003E+02  0.26107E+06
 0.97170006E+02  0.23308E+06
 0.97220001E+02  0.22909E+06
 0.97270004E+02  0.23030E+06
 0.97320007E+02  0.21164E+06
 0.97370003E+02  0.17423E+06
 0.97420006E+02  0.13176E+06
 0.97470001E+02  0.88380E+05
 0.97520004E+02  0.54355E+05
 0.97570007E+02  0.42762E+05
 0.97620003E+02  0.45948E+05
 0.97670006E+02  0.50296E+05
 0.97720001E+02  0.56096E+05
 0.97770004E+02  0.59395E+05
 0.97820007E+02  0.53020E+05
 0.97870003E+02  0.46727E+05
 0.97920006E+02  0.45248E+05
 0.97970001E+02  0.38049E+05
 0.98020004E+02  0.26257E+05
 0.98070007E+02  0.20996E+05
 0.98120003E+02  0.29655E+05
 0.98170006E+02  0.52726E+05
 0.98220001E+02  0.83317E+05
 0.98270004E+02  0.10737E+06
 0.98320007E+02  0.11541E+06
 0.98370003E+02  0.11819E+06
 0.98420006E+02  0.12148E+06
 0.98470001E+02  0.11764E+06
 0.98520004E+02  0.11718E+06
 0.98570007E+02  0.13394E+06
 0.98620003E+02  0.16415E+06
 0.98670006E+02  0.19523E+06
 0.98720001E+02  0.21186E+06
 0.98770004E+02  0.20837E+06
 0.98820007E+02  0.18293E+06
 0.98870003E+02  0.12807E+06
 0.98920006E+02  0.52419E+05
 0.98970001E+02 -0.21788E+05
 0.99020004E+02 -0.84509E+05
 0.99070007E+02 -0.12606E+06
 0.99120003E+02 -0.14835E+06
 0.99170006E+02 -0.16641E+06
 0.99220001E+02 -0.17492E+06
 0.99270004E+02 -0.16436E+06
 0.99320007E+02 -0.13033E+06
 0.99370003E+02 -0.71808E+05
 0.99420006E+02  0.16260E+04
 0.99470001E+02  0.72229E+05
 0.99520004E+02  0.12481E+06
 0.99570007E+02  0.16011E+06
 0.99620003E+02  0.18211E+06
 0.99670006E+02  0.18861E+06
 0.99720001E+02  0.17868E+06
 0.99770004E+02  0.15376E+06
 0.99820007E+02  0.11908E+06
 0.99870003E+02  0.76852E+05
 0.99920006E+02  0.31541E+05
 0.99970001E+02 -0.14260E+04
 0.10002000E+03 -0.27661E+05
 0.10007001E+03 -0.64464E+05
 0.10012000E+03 -0.10345E+06
 0.10017001E+03 -0.12735E+06
 0.10022000E+03 -0.14032E+06
 0.10027000E+03 -0.16090E+06
 0.10032001E+03 -0.18730E+06
 0.10037000E+03 -0.20552E+06
 0.10042001E+03 -0.21209E+06
 0.10047000E+03 -0.22009E+06
 0.10052000E+03 -0.23950E+06
 0.10057001E+03 -0.24402E+06
 0.10062000E+03 -0.21644E+06
 0.10067001E+03 -0.17834E+06
 0.10072000E+03 -0.14573E+06
 0.10077000E+03 -0.11758E+06
 0.10082001E+03 -0.10368E+06
 0.10087000E+03 -0.11444E+06
 0.10092001E+03 -0.13714E+06
 0.10097000E+03 -0.16088E+06
 0.10102000E+03 -0.17952E+06
 0.10107001E+03 -0.19251E+06
 0.10112000E+03 -0.20790E+06
 0.10117001E+03 -0.22429E+06
 0.10122000E+03 -0.24171E+06
 0.10127000E+03 -0.25867E+06
 0.10132001E+03 -0.27562E+06
 0.10137000E+03 -0.29267E+06
 0.10142001E+03 -0.29498E+06
 0.10147000E+03 -0.28288E+06
 0.10152000E+03 -0.27197E+06
 0.10157001E+03 -0.26620E+06
 0.10162000E+03 -0.26024E+06
 0.10167001E+03 -0.25005E+06
 0.10172000E+03 -0.23252E+06
 0.10177000E+03 -0.20501E+06
 0.10182001E+03 -0.16386E+06
 0.10187000E+03 -0.11328E+06
 0.10192001E+03 -0.64576E+05
 0.10197000E+03 -0.22359E+05
 0.10202000E+03  0.48740E+04
 0.10207001E+03  0.21682E+05
 0.10212000E+03  0.41549E+05
 0.10217001E+03  0.60522E+05
 0.10222000E+03  0.67574E+05
 0.10227000E+03  0.62272E+05
 0.10232001E+03  0.59323E+05
 0.10237000E+03  0.64308E+05
 0.10242001E+03  0.73663E+05
 0.10247000E+03  0.87063E+05
 0.10252000E+03  0.94946E+05
 0.10257001E+03  0.94479E+05
 0.10262000E+03  0.10367E+06
 0.10267001E+03  0.13572E+06
 0.10272000E+03  0.18297E+06
 0.10277000E+03  0.23107E+06
 0.10282001E+03  0.26951E+06
 0.10287000E+03  0.28554E+06
 0.10292001E+03  0.27344E+06
 0.10297000E+03  0.24618E+06
 0.10302000E+03  0.22440E+06
 0.10307001E+03  0.21196E+06
 0.10312000E+03  0.20215E+06
 0.10317001E+03  0.19483E+06
 0.10322000E+03  0.18766E+06
 0.10327000E+03  0.17856E+06
 0.10332001E+03  0.16714E+06
 0.10337000E+03  0.15069E+06
 0.10342001E+03  0.12907E+06
 0.10347000E+03  0.10727E+06
 0.10352000E+03  0.89177E+05
 0.10357001E+03  0.77522E+05
 0.10362000E+03  0.71443E+05
 0.10367001E+03  0.58346E+05
 0.10372000E+03  0.32508E+05
 0.10377000E+03  0.59130E+04
 0.10382001E+03 -0.13691E+05
 0.10387000E+03 -0.26560E+05
 0.10392001E+03 -0.33943E+05
 0.10397000E+03 -0.36142E+05
 0.10402000E+03 -0.27521E+05
 0.10407001E+03 -0.86500E+04
 0.10412000E+03  0.74880E+04
 0.10417001E+03  0.84630E+04
 0.10422000E+03 -0.15570E+04
 0.10427000E+03 -0.52870E+04
 0.10432001E+03 -0.46150E+04
 0.10437000E+03 -0.12669E+05
 0.10442001E+03 -0.32757E+05
 0.10447000E+03 -0.67777E+05
 0.10452000E+03 -0.10469E+06
 0.10457001E+03 -0.13337E+06
 0.10462000E+03 -0.16488E+06
 0.10467001E+03 -0.20433E+06
 0.10472000E+03 -0.24359E+06
 0.10477000E+03 -0.26916E+06
 0.10482001E+03 -0.28667E+06
 0.10487000E+03 -0.31130E+06
 0.10492001E+03 -0.34437E+06
 0.10497000E+03 -0.38017E+06
 0.10502000E+03 -0.41094E+06
 0.10507001E+03 -0.42889E+06
 0.10512000E+03 -0.42480E+06
 0.10517001E+03 -0.40158E+06
 0.10522000E+03 -0.38291E+06
 0.10527000E+03 -0.38005E+06
 0.10532001E+03 -0.38440E+06
 0.10537000E+03 -0.38815E+06
 0.10542001E+03 -0.38606E+06
 0.10547000E+03 -0.37498E+06
 0.10552000E+03 -0.34803E+06
 0.10557001E+03 -0.31080E+06
 0.10562000E+03 -0.27167E+06
 0.10567001E+03 -0.23304E+06
 0.10572000E+03 -0.19606E+06
 0.10577000E+03 -0.15722E+06
 0.10582001E+03 -0.12212E+06
 0.10587000E+03 -0.86963E+05
 0.10592001E+03 -0.45234E+05
 0.10597000E+03  0.89290E+04
 0.10602000E+03  0.72216E+05
 0.10607001E+03  0.12829E+06
 0.10612000E+03  0.16864E+06
 0.10617001E+03  0.18783E+06
 0.10622000E+03  0.19106E+06
 0.10627000E+03  0.17816E+06
 0.10632001E+03  0.16070E+06
 0.10637000E+03  0.15570E+06
 0.10642001E+03  0.16168E+06
 0.10647000E+03  0.17227E+06
 0.10652000E+03  0.17767E+06
 0.10657001E+03  0.18802E+06
 0.10662000E+03  0.20466E+06
 0.10667001E+03  0.22751E+06
 0.10672000E+03  0.25546E+06
 0.10677000E+03  0.27198E+06
 0.10682001E+03  0.28137E+06
 0.10687000E+03  0.28861E+06
 0.10692001E+03  0.29673E+06
 0.10697000E+03  0.29906E+06
 0.10702000E+03  0.28756E+06
 0.10707001E+03  0.26752E+06
 0.10712000E+03  0.24271E+06
 0.10717001E+03  0.22532E+06
 0.10722000E+03  0.22472E+06
 0.10727000E+03  0.23953E+06
 0.10732001E+03  0.26945E+06
 0.10737000E+03  0.30401E+06
 0.10742001E+03  0.33052E+06
 0.10747000E+03  0.34870E+06
 0.10752000E+03  0.35348E+06
 0.10757001E+03  0.34538E+06
 0.10762000E+03  0.33061E+06
 0.10767001E+03  0.31231E+06
 0.10772000E+03  0.29454E+06
 0.10777000E+03  0.27758E+06
 0.10782001E+03  0.26017E+06
 0.10787000E+03  0.23933E+06
 0.10792001E+03  0.21358E+06
 0.10797000E+03  0.17745E+06
 0.10802000E+03  0.12695E+06
 0.10807001E+03  0.80824E+05
 0.10812000E+03  0.62027E+05
 0.10817001E+03  0.70682E+05
 0.10822000E+03  0.90134E+05
 0.10827000E+03  0.10599E+06
 0.10832001E+03  0.11155E+06
 0.10837000E+03  0.10892E+06
 0.10842001E+03  0.11453E+06
 0.10847000E+03  0.13728E+06
 0.10852000E+03  0.16818E+06
 0.10857001E+03  0.19414E+06
 0.10862000E+03  0.20982E+06
 0.10867001E+03  0.21968E+06
 0.10872000E+03  0.22348E+06
 0.10877000E+03  0.21920E+06
 0.10882001E+03  0.20777E+06
 0.10887000E+03  0.19136E+06
 0.10892001E+03  0.16578E+06
 0.10897000E+03  0.13023E+06
 0.10902000E+03  0.10001E+06
 0.10907001E+03  0.84233E+05
 0.10912000E+03  0.85866E+05
 0.10917001E+03  0.97349E+05
 0.10922000E+03  0.10569E+06
 0.10927000E+03  0.10281E+06
 0.10932001E+03  0.86008E+05
 0.10937000E+03  0.60890E+05
 0.10942001E+03  0.22121E+05
 0.10947000E+03 -0.24619E+05
 0.10952000E+03 -0.72679E+05
 0.10957001E+03 -0.12692E+06
 0.10962000E+03 -0.17942E+06
 0.10967001E+03 -0.21795E+06
 0.10972000E+03 -0.23441E+06
 0.10977000E+03 -0.24135E+06
 0.10982001E+03 -0.25067E+06
 0.10987000E+03 -0.26284E+06
 0.10992001E+03 -0.28016E+06
 0.10997000E+03 -0.29468E+06
 0.11002000E+03 -0.29777E+06
 0.11007001E+03 -0.28651E+06
 0.11012000E+03 -0.26963E+06
 0.11017001E+03 -0.25852E+06
 0.11022000E+03 -0.25719E+06
 0.11027000E+03 -0.26556E+06
 0.11032001E+03 -0.27437E+06
 0.11037000E+03 -0.28365E+06
 0.11042001E+03 -0.29886E+06
 0.11047000E+03 -0.32054E+06
 0.11052000E+03 -0.34586E+06
 0.11057001E+03 -0.35976E+06
 0.11062000E+03 -0.35259E+06
 0.11067001E+03 -0.32878E+06
 0.11072000E+03 -0.29870E+06
 0.11077000E+03 -0.27251E+06
 0.11082001E+03 -0.25359E+06
 0.11087000E+03 -0.23920E+06
 0.11092001E+03 -0.22248E+06
 0.11097000E+03 -0.20279E+06
 0.11102000E+03 -0.18917E+06
 0.11107001E+03 -0.19076E+06
 0.11112000E+03 -0.20227E+06
 0.11117001E+03 -0.20897E+06
 0.11122000E+03 -0.21548E+06
 0.11127000E+03 -0.23330E+06
 0.11132001E+03 -0.25471E+06
 0.11137000E+03 -0.26918E+06
 0.11142001E+03 -0.27552E+06
 0.11147000E+03 -0.27864E+06
 0.11152000E+03 -0.27813E+06
 0.11157001E+03 -0.25809E+06
 0.11162000E+03 -0.21324E+06
 0.11167001E+03 -0.16075E+06
 0.11172000E+03 -0.12238E+06
 0.11177000E+03 -0.10786E+06
 0.11182001E+03 -0.10418E+06
 0.11187000E+03 -0.10166E+06
 0.11192001E+03 -0.10311E+06
 0.11197000E+03 -0.11541E+06
 0.11202000E+03 -0.14602E+06
 0.11207001E+03 -0.18631E+06
 0.11212000E+03 -0.22854E+06
 0.11217001E+03 -0.27174E+06
 0.11222000E+03 -0.31014E+06
 0.11227000E+03 -0.33481E+06
 0.11232001E+03 -0.33661E+06
 0.11237000E+03 -0.31790E+06
 0.11242001E+03 -0.28706E+06
 0.11247000E+03 -0.25234E+06
 0.11252000E+03 -0.22132E+06
 0.11257001E+03 -0.19387E+06
 0.11262000E+03 -0.16598E+06
 0.11267001E+03 -0.14150E+06
 0.11272000E+03 -0.12535E+06
 0.11277000E+03 -0.11196E+06
 0.11282001E+03 -0.94721E+05
 0.11287000E+03 -0.74008E+05
 0.11292001E+03 -0.50759E+05
 0.11297000E+03 -0.22206E+05
 0.11302000E+03  0.91600E+03
 0.11307001E+03  0.12766E+05
 0.11312000E+03  0.33064E+05
 0.11317001E+03  0.72518E+05
 0.11322000E+03  0.12716E+06
 0.11327000E+03  0.18920E+06
 0.11332001E+03  0.25269E+06
 0.11337000E+03  0.31689E+06
 0.11342001E+03  0.37803E+06
 0.11347000E+03  0.43779E+06
 0.11352000E+03  0.49862E+06
 0.11357001E+03  0.54914E+06
 0.11362000E+03  0.57839E+06
 0.11367001E+03  0.58386E+06
 0.11372000E+03  0.57237E+06
 0.11377000E+03  0.55536E+06
 0.11382001E+03  0.53778E+06
 0.11387000E+03  0.52592E+06
 0.11392001E+03  0.51864E+06
 0.11397000E+03  0.51084E+06
 0.11402000E+03  0.50204E+06
 0.11407001E+03  0.49154E+06
 0.11412000E+03  0.48073E+06
 0.11417001E+03  0.46433E+06
 0.11422000E+03  0.44178E+06
 0.11427000E+03  0.41742E+06
 0.11432001E+03  0.39098E+06
 0.11437000E+03  0.36736E+06
 0.11442001E+03  0.34898E+06
 0.11447000E+03  0.33486E+06
 0.11452000E+03  0.32688E+06
 0.11457001E+03  0.31835E+06
 0.11462000E+03  0.30105E+06
 0.11467001E+03  0.27735E+06
 0.11472000E+03  0.25138E+06
 0.11477000E+03  0.21982E+06
 0.11482001E+03  0.17492E+06
 0.11487000E+03  0.12219E+06
 0.11492001E+03  0.71258E+05
 0.11497000E+03  0.19497E+05
 0.11502000E+03 -0.30673E+05
 0.11507001E+03 -0.71516E+05
 0.11512000E+03 -0.10560E+06
 0.11517001E+03 -0.13533E+06
 0.11522000E+03 -0.15566E+06
 0.11527000E+03 -0.16627E+06
 0.11532001E+03 -0.16544E+06
 0.11537000E+03 -0.15147E+06
 0.11542001E+03 -0.13383E+06
 0.11547000E+03 -0.12199E+06
 0.11552000E+03 -0.12106E+06
 0.11557001E+03 -0.12768E+06
 0.11562000E+03 -0.13241E+06
 0.11567001E+03 -0.12829E+06
 0.11572000E+03 -0.11363E+06
 0.11577000E+03 -0.94060E+05
 0.11582001E+03 -0.73317E+05
 0.11587000E+03 -0.53445E+05
 0.11592001E+03 -0.34266E+05
 0.11597000E+03 -0.13882E+05
 0.11602000E+03  0.23920E+04
 0.11607001E+03  0.66830E+04
 0.11612000E+03 -0.52700E+04
 0.11617001E+03 -0.33688E+05
 0.11622000E+03 -0.71880E+05
 0.11627000E+03 -0.10613E+06
 0.11632001E+03 -0.12713E+06
 0.11637000E+03 -0.13718E+06
 0.11642001E+03 -0.14459E+06
 0.11647000E+03 -0.15286E+06
 0.11652000E+03 -0.15816E+06
 0.11657001E+03 -0.15795E+06
 0.11662000E+03 -0.15484E+06
 0.11667001E+03 -0.15628E+06
 0.11672000E+03 -0.16243E+06
 0.11677000E+03 -0.16141E+06
 0.11682001E+03 -0.14616E+06
 0.11687000E+03 -0.11882E+06
 0.11692001E+03 -0.93230E+05
 0.11697000E+03 -0.90120E+05
 0.11702000E+03 -0.10801E+06
 0.11707001E+03 -0.12709E+06
 0.11712000E+03 -0.13640E+06
 0.11717001E+03 -0.13504E+06
 0.11722000E+03 -0.12757E+06
 0.11727000E+03 -0.11802E+06
 0.11732001E+03 -0.10746E+06
 0.11737000E+03 -0.95756E+05
 0.11742001E+03 -0.81801E+05
 0.11747000E+03 -0.72969E+05
 0.11752000E+03 -0.76102E+05
 0.11757001E+03 -0.83782E+05
 0.11762000E+03 -0.84349E+05
 0.11767001E+03 -0.76661E+05
 0.11772000E+03 -0.67876E+05
 0.11777000E+03 -0.61855E+05
 0.11782001E+03 -0.63132E+05
 0.11787000E+03 -0.71194E+05
 0.11792001E+03 -0.80010E+05
 0.11797000E+03 -0.89042E+05
 0.11802000E+03 -0.94200E+05
 0.11807001E+03 -0.90338E+05
 0.11812000E+03 -0.75017E+05
 0.11817001E+03 -0.48900E+05
 0.11822000E+03 -0.17928E+05
 0.11827000E+03  0.18242E+05
 0.11832001E+03  0.61348E+05
 0.11837000E+03  0.10546E+06
 0.11842001E+03  0.14265E+06
 0.11847000E+03  0.17178E+06
 0.11852000E+03  0.19866E+06
 0.11857001E+03  0.22346E+06
 0.11862000E+03  0.24224E+06
 0.11867001E+03  0.25490E+06
 0.11872000E+03  0.26318E+06
 0.11877000E+03  0.26450E+06
 0.11882001E+03  0.25476E+06
 0.11887000E+03  0.23888E+06
 0.11892001E+03  0.22232E+06
 0.11897000E+03  0.20801E+06
 0.11902000E+03  0.20213E+06
 0.11907001E+03  0.20731E+06
 0.11912000E+03  0.21839E+06
 0.11917001E+03  0.22674E+06
 0.11922000E+03  0.22818E+06
 0.11927000E+03  0.22076E+06
 0.11932001E+03  0.20073E+06
 0.11937000E+03  0.16814E+06
 0.11942001E+03  0.12797E+06
 0.11947000E+03  0.88174E+05
 0.11952000E+03  0.58694E+05
 0.11957001E+03  0.42789E+05
 0.11962000E+03  0.31036E+05
 0.11967001E+03  0.99780E+04
 0.11972000E+03 -0.20478E+05
 0.11977000E+03 -0.47841E+05
 0.11982001E+03 -0.65155E+05
 0.11987000E+03 -0.71273E+05
 0.11992001E+03 -0.63565E+05
 0.11997000E+03 -0.39055E+05
 0.12002000E+03  0.42100E+03
 0.12007001E+03  0.49004E+05
 0.12012000E+03  0.98508E+05
 0.12017001E+03  0.14144E+06
 0.12022000E+03  0.17367E+06
 0.12027000E+03  0.19364E+06
 0.12032001E+03  0.20257E+06
 0.12037000E+03  0.20080E+06
 0.12042001E+03  0.19246E+06
 0.12047000E+03  0.18352E+06
 0.12052000E+03  0.17644E+06
 0.12057001E+03  0.16870E+06
 0.12062000E+03  0.15623E+06
 0.12067001E+03  0.13910E+06
 0.12072000E+03  0.11806E+06
 0.12077000E+03  0.97477E+05
 0.12082001E+03  0.80869E+05
 0.12087000E+03  0.65833E+05
 0.12092001E+03  0.52859E+05
 0.12097000E+03  0.43009E+05
 0.12102000E+03  0.37882E+05
 0.12107001E+03  0.43348E+05
 0.12112000E+03  0.59939E+05
 0.12117001E+03  0.83202E+05
 0.12122000E+03  0.10623E+06
 0.12127000E+03  0.11911E+06
 0.12132001E+03  0.11503E+06
 0.12137000E+03  0.93721E+05
 0.12142001E+03  0.59531E+05
 0.12147000E+03  0.17387E+05
 0.12152000E+03 -0.27076E+05
 0.12157001E+03 -0.69706E+05
 0.12162000E+03 -0.10628E+06
 0.12167001E+03 -0.13231E+06
 0.12172000E+03 -0.14775E+06
 0.12177000E+03 -0.15567E+06
 0.12182001E+03 -0.16064E+06
 0.12187000E+03 -0.16411E+06
 0.12192001E+03 -0.16212E+06
 0.12197000E+03 -0.15421E+06
 0.12202000E+03 -0.14604E+06
 0.12207001E+03 -0.14146E+06
 0.12212000E+03 -0.14568E+06
 0.12217001E+03 -0.16563E+06
 0.12222000E+03 -0.20096E+06
 0.12227000E+03 -0.24616E+06
 0.12232001E+03 -0.29450E+06
 0.12237000E+03 -0.33779E+06
 0.12242001E+03 -0.36426E+06
 0.12247000E+03 -0.36646E+06
 0.12252000E+03 -0.35286E+06
 0.12257001E+03 -0.33398E+06
 0.12262000E+03 -0.31195E+06
 0.12267001E+03 -0.29093E+06
 0.12272000E+03 -0.27812E+06
 0.12277000E+03 -0.27580E+06
 0.12282001E+03 -0.27888E+06
 0.12287000E+03 -0.28573E+06
 0.12292001E+03 -0.29940E+06
 0.12297000E+03 -0.31340E+06
 0.12302000E+03 -0.32136E+06
 0.12307001E+03 -0.32628E+06
 0.12312000E+03 -0.32774E+06
 0.12317001E+03 -0.32224E+06
 0.12322000E+03 -0.31031E+06
 0.12327000E+03 -0.29350E+06
 0.12332001E+03 -0.27128E+06
 0.12337000E+03 -0.24396E+06
 0.12342001E+03 -0.21781E+06
 0.12347000E+03 -0.19951E+06
 0.12352000E+03 -0.18561E+06
 0.12357001E+03 -0.16877E+06
 0.12362000E+03 -0.14747E+06
 0.12367001E+03 -0.12686E+06
 0.12372000E+03 -0.11037E+06
 0.12377000E+03 -0.92969E+05
 0.12382001E+03 -0.69375E+05
 0.12387000E+03 -0.37857E+05
 0.12392001E+03 -0.12190E+04
 0.12397000E+03  0.34538E+05
 0.12402000E+03  0.64392E+05
 0.12407001E+03  0.82689E+05
 0.12412000E+03  0.89104E+05
 0.12417001E+03  0.88169E+05
 0.12422001E+03  0.83926E+05
 0.12427001E+03  0.79532E+05
 0.12432000E+03  0.73970E+05
 0.12437000E+03  0.66506E+05
 0.12442001E+03  0.62487E+05
 0.12447001E+03  0.62050E+05
 0.12452001E+03  0.55594E+05
 0.12457000E+03  0.41914E+05
 0.12462000E+03  0.25372E+05
 0.12467001E+03  0.53000E+04
 0.12472001E+03 -0.22599E+05
 0.12477001E+03 -0.59320E+05
 0.12482000E+03 -0.95642E+05
 0.12487000E+03 -0.12676E+06
 0.12492001E+03 -0.15389E+06
 0.12497001E+03 -0.17816E+06
 0.12502001E+03 -0.19909E+06
 0.12507000E+03 -0.21456E+06
 0.12512000E+03 -0.23291E+06
 0.12517001E+03 -0.25983E+06
 0.12522001E+03 -0.28452E+06
 0.12527001E+03 -0.29759E+06
 0.12532000E+03 -0.29973E+06
 0.12537000E+03 -0.29528E+06
 0.12542001E+03 -0.28890E+06
 0.12547001E+03 -0.28139E+06
 0.12552001E+03 -0.26776E+06
 0.12557000E+03 -0.24486E+06
 0.12562000E+03 -0.21600E+06
 0.12567001E+03 -0.18646E+06
 0.12572001E+03 -0.15804E+06
 0.12577001E+03 -0.13010E+06
 0.12582000E+03 -0.10511E+06
 0.12587000E+03 -0.83076E+05
 0.12592001E+03 -0.57657E+05
 0.12597001E+03 -0.25418E+05
 0.12602001E+03  0.76570E+04
 0.12607000E+03  0.37163E+05
 0.12612000E+03  0.67039E+05
 0.12617001E+03  0.10115E+06
 0.12622001E+03  0.14080E+06
 0.12627001E+03  0.18148E+06
 0.12632000E+03  0.21806E+06
 0.12637000E+03  0.24931E+06
 0.12642001E+03  0.27637E+06
 0.12647001E+03  0.30226E+06
 0.12652001E+03  0.32579E+06
 0.12657000E+03  0.34495E+06
 0.12662000E+03  0.35838E+06
 0.12667001E+03  0.36784E+06
 0.12672001E+03  0.37749E+06
 0.12677001E+03  0.38620E+06
 0.12682000E+03  0.39144E+06
 0.12687000E+03  0.39222E+06
 0.12692001E+03  0.39345E+06
 0.12697001E+03  0.40184E+06
 0.12702001E+03  0.41303E+06
 0.12707000E+03  0.41688E+06
 0.12712000E+03  0.40661E+06
 0.12717001E+03  0.37976E+06
 0.12722001E+03  0.34133E+06
 0.12727001E+03  0.29993E+06
 0.12732000E+03  0.26252E+06
 0.12737000E+03  0.23562E+06
 0.12742001E+03  0.21828E+06
 0.12747001E+03  0.20157E+06
 0.12752001E+03  0.18295E+06
 0.12757000E+03  0.17034E+06
 0.12762000E+03  0.16910E+06
 0.12767001E+03  0.17583E+06
 0.12772001E+03  0.18410E+06
 0.12777001E+03  0.19246E+06
 0.12782000E+03  0.20387E+06
 0.12787000E+03  0.21624E+06
 0.12792001E+03  0.22651E+06
 0.12797001E+03  0.23543E+06
 0.12802000E+03  0.24407E+06
 0.12806999E+03  0.25208E+06
 0.12812000E+03  0.26110E+06
 0.12817000E+03  0.27382E+06
 0.12822000E+03  0.29027E+06
 0.12827000E+03  0.30650E+06
 0.12831999E+03  0.31441E+06
 0.12837000E+03  0.31160E+06
 0.12842000E+03  0.30123E+06
 0.12847000E+03  0.28763E+06
 0.12852000E+03  0.27509E+06
 0.12856999E+03  0.26205E+06
 0.12862000E+03  0.24408E+06
 0.12867000E+03  0.21883E+06
 0.12872000E+03  0.18812E+06
 0.12877000E+03  0.15727E+06
 0.12881999E+03  0.13025E+06
 0.12887000E+03  0.10894E+06
 0.12892000E+03  0.95163E+05
 0.12897000E+03  0.84459E+05
 0.12902000E+03  0.70656E+05
 0.12906999E+03  0.54171E+05
 0.12912000E+03  0.35684E+05
 0.12917000E+03  0.11485E+05
 0.12922000E+03 -0.24921E+05
 0.12927000E+03 -0.73538E+05
 0.12931999E+03 -0.12801E+06
 0.12937000E+03 -0.18073E+06
 0.12942000E+03 -0.22316E+06
 0.12947000E+03 -0.25299E+06
 0.12952000E+03 -0.27301E+06
 0.12956999E+03 -0.28570E+06
 0.12962000E+03 -0.29413E+06
 0.12967000E+03 -0.30178E+06
 0.12972000E+03 -0.30871E+06
 0.12977000E+03 -0.31176E+06
 0.12981999E+03 -0.30979E+06
 0.12987000E+03 -0.30528E+06
 0.12992000E+03 -0.30260E+06
 0.12997000E+03 -0.30220E+06
 0.13002000E+03 -0.30095E+06
 0.13006999E+03 -0.29858E+06
 0.13012000E+03 -0.29307E+06
 0.13017000E+03 -0.28094E+06
 0.13022000E+03 -0.26333E+06
 0.13027000E+03 -0.23981E+06
 0.13031999E+03 -0.20971E+06
 0.13037000E+03 -0.17573E+06
 0.13042000E+03 -0.13918E+06
 0.13047000E+03 -0.97476E+05
 0.13052000E+03 -0.47288E+05
 0.13056999E+03  0.79400E+04
 0.13062000E+03  0.57537E+05
 0.13067000E+03  0.91278E+05
 0.13072000E+03  0.10954E+06
 0.13077000E+03  0.11952E+06
 0.13081999E+03  0.12589E+06
 0.13087000E+03  0.12910E+06
 0.13092000E+03  0.12532E+06
 0.13097000E+03  0.11199E+06
 0.13102000E+03  0.89086E+05
 0.13106999E+03  0.59717E+05
 0.13112000E+03  0.31832E+05
 0.13117000E+03  0.10587E+05
 0.13122000E+03 -0.81010E+04
 0.13127000E+03 -0.27290E+05
 0.13131999E+03 -0.43435E+05
 0.13137000E+03 -0.54160E+05
 0.13142000E+03 -0.58935E+05
 0.13147000E+03 -0.60497E+05
 0.13152000E+03 -0.64093E+05
 0.13156999E+03 -0.70687E+05
 0.13162000E+03 -0.77460E+05
 0.13167000E+03 -0.82655E+05
 0.13172000E+03 -0.83143E+05
 0.13177000E+03 -0.74589E+05
 0.13181999E+03 -0.61350E+05
 0.13187000E+03 -0.51597E+05
 0.13192000E+03 -0.47679E+05
 0.13197000E+03 -0.48054E+05
 0.13202000E+03 -0.47570E+05
 0.13206999E+03 -0.43325E+05
 0.13212000E+03 -0.34661E+05
 0.13217000E+03 -0.19300E+05
 0.13222000E+03  0.17190E+04
 0.13227000E+03  0.23531E+05
 0.13231999E+03  0.42303E+05
 0.13237000E+03  0.60194E+05
 0.13242000E+03  0.79951E+05
 0.13247000E+03  0.10075E+06
 0.13252000E+03  0.11955E+06
 0.13256999E+03  0.13215E+06
 0.13262000E+03  0.13761E+06
 0.13267000E+03  0.13851E+06
 0.13272000E+03  0.14040E+06
 0.13277000E+03  0.14263E+06
 0.13281999E+03  0.13582E+06
 0.13287000E+03  0.11599E+06
 0.13292000E+03  0.85562E+05
 0.13297000E+03  0.53096E+05
 0.13302000E+03  0.27350E+05
 0.13306999E+03  0.89450E+04
 0.13312000E+03 -0.42700E+03
 0.13317000E+03 -0.75800E+03
 0.13322000E+03  0.26960E+04
 0.13327000E+03  0.36010E+04
 0.13331999E+03 -0.25940E+04
 0.13337000E+03 -0.12552E+05
 0.13342000E+03 -0.22547E+05
 0.13347000E+03 -0.34995E+05
 0.13352000E+03 -0.51463E+05
 0.13356999E+03 -0.71821E+05
 0.13362000E+03 -0.94006E+05
 0.13367000E+03 -0.11232E+06
 0.13372000E+03 -0.12570E+06
 0.13377000E+03 -0.14150E+06
 0.13381999E+03 -0.16361E+06
 0.13387000E+03 -0.18588E+06
 0.13392000E+03 -0.20182E+06
 0.13397000E+03 -0.20983E+06
 0.13402000E+03 -0.21179E+06
 0.13406999E+03 -0.20994E+06
 0.13412000E+03 -0.20467E+06
 0.13417000E+03 -0.19879E+06
 0.13422000E+03 -0.19423E+06
 0.13427000E+03 -0.18748E+06
 0.13431999E+03 -0.17685E+06
 0.13437000E+03 -0.16544E+06
 0.13442000E+03 -0.15590E+06
 0.13447000E+03 -0.14626E+06
 0.13452000E+03 -0.13216E+06
 0.13456999E+03 -0.11377E+06
 0.13462000E+03 -0.95612E+05
 0.13467000E+03 -0.81989E+05
 0.13472000E+03 -0.73871E+05
 0.13477000E+03 -0.68459E+05
 0.13481999E+03 -0.64970E+05
 0.13487000E+03 -0.63589E+05
 0.13492000E+03 -0.58325E+05
 0.13497000E+03 -0.42589E+05
 0.13502000E+03 -0.17576E+05
 0.13506999E+03  0.95280E+04
 0.13512000E+03  0.30775E+05
 0.13517000E+03  0.42561E+05
 0.13522000E+03  0.47384E+05
 0.13527000E+03  0.50158E+05
 0.13531999E+03  0.54769E+05
 0.13537000E+03  0.64660E+05
 0.13542000E+03  0.82560E+05
 0.13547000E+03  0.10448E+06
 0.13552000E+03  0.12451E+06
 0.13556999E+03  0.14183E+06
 0.13562000E+03  0.15734E+06
 0.13567000E+03  0.17036E+06
 0.13572000E+03  0.17574E+06
 0.13577000E+03  0.17197E+06
 0.13581999E+03  0.16220E+06
 0.13587000E+03  0.15111E+06
 0.13592000E+03  0.14537E+06
 0.13597000E+03  0.14780E+06
 0.13602000E+03  0.15693E+06
 0.13606999E+03  0.16740E+06
 0.13612000E+03  0.17375E+06
 0.13617000E+03  0.17336E+06
 0.13622000E+03  0.16658E+06
 0.13627000E+03  0.15456E+06
 0.13631999E+03  0.13686E+06
 0.13637000E+03  0.11215E+06
 0.13642000E+03  0.81069E+05
 0.13647000E+03  0.47546E+05
 0.13652000E+03  0.12465E+05
 0.13656999E+03 -0.23886E+05
 0.13662000E+03 -0.56992E+05
 0.13667000E+03 -0.85217E+05
 0.13672000E+03 -0.11136E+06
 0.13677000E+03 -0.13579E+06
 0.13681999E+03 -0.15836E+06
 0.13687000E+03 -0.17927E+06
 0.13692000E+03 -0.19477E+06
 0.13697000E+03 -0.20411E+06
 0.13702000E+03 -0.21047E+06
 0.13706999E+03 -0.21473E+06
 0.13712000E+03 -0.21544E+06
 0.13717000E+03 -0.21226E+06
 0.13722000E+03 -0.20820E+06
 0.13727000E+03 -0.20404E+06
 0.13731999E+03 -0.19913E+06
 0.13737000E+03 -0.19190E+06
 0.13742000E+03 -0.17968E+06
 0.13747000E+03 -0.16345E+06
 0.13752000E+03 -0.14287E+06
 0.13756999E+03 -0.11763E+06
 0.13762000E+03 -0.90048E+05
 0.13767000E+03 -0.59568E+05
 0.13772000E+03 -0.25698E+05
 0.13777000E+03  0.95000E+04
 0.13781999E+03  0.45395E+05
 0.13787000E+03  0.80562E+05
 0.13792000E+03  0.10968E+06
 0.13797000E+03  0.12852E+06
 0.13802000E+03  0.13762E+06
 0.13806999E+03  0.14067E+06
 0.13812000E+03  0.14233E+06
 0.13817000E+03  0.14651E+06
 0.13822000E+03  0.15168E+06
 0.13827000E+03  0.15463E+06
 0.13831999E+03  0.15604E+06
 0.13837000E+03  0.15504E+06
 0.13842000E+03  0.15215E+06
 0.13847000E+03  0.15067E+06
 0.13852000E+03  0.15186E+06
 0.13856999E+03  0.15531E+06
 0.13862000E+03  0.15633E+06
 0.13867000E+03  0.15134E+06
 0.13872000E+03  0.14221E+06
 0.13877000E+03  0.13176E+06
 0.13881999E+03  0.12256E+06
 0.13887000E+03  0.11501E+06
 0.13892000E+03  0.10901E+06
 0.13897000E+03  0.10506E+06
 0.13902000E+03  0.10096E+06
 0.13906999E+03  0.93004E+05
 0.13912000E+03  0.82104E+05
 0.13917000E+03  0.73245E+05
 0.13922000E+03  0.67471E+05
 0.13927000E+03  0.61200E+05
 0.13931999E+03  0.53298E+05
 0.13937000E+03  0.46610E+05
 0.13942000E+03  0.40926E+05
 0.13947000E+03  0.31886E+05
 0.13952000E+03  0.16784E+05
 0.13956999E+03 -0.17070E+04
 0.13962000E+03 -0.18138E+05
 0.13967000E+03 -0.30654E+05
 0.13972000E+03 -0.40803E+05
 0.13977000E+03 -0.51721E+05
 0.13981999E+03 -0.63434E+05
 0.13987000E+03 -0.70713E+05
 0.13992000E+03 -0.72736E+05
 0.13997000E+03 -0.72957E+05
 0.14002000E+03 -0.71010E+05
 0.14006999E+03 -0.67103E+05
 0.14012000E+03 -0.63846E+05
 0.14017000E+03 -0.62249E+05
 0.14022000E+03 -0.63618E+05
 0.14027000E+03 -0.70426E+05
 0.14031999E+03 -0.84730E+05
 0.14037000E+03 -0.10604E+06
 0.14042000E+03 -0.12910E+06
 0.14047000E+03 -0.14734E+06
 0.14052000E+03 -0.16121E+06
 0.14056999E+03 -0.17284E+06
 0.14062000E+03 -0.17718E+06
 0.14067000E+03 -0.16981E+06
 0.14072000E+03 -0.15303E+06
 0.14077000E+03 -0.13071E+06
 0.14081999E+03 -0.10495E+06
 0.14087000E+03 -0.76632E+05
 0.14092000E+03 -0.47872E+05
 0.14097000E+03 -0.22990E+05
 0.14102000E+03 -0.58660E+04
 0.14106999E+03  0.35600E+03
 0.14112000E+03 -0.31490E+04
 0.14117000E+03 -0.10430E+05
 0.14122000E+03 -0.17562E+05
 0.14127000E+03 -0.21905E+05
 0.14131999E+03 -0.22893E+05
 0.14137000E+03 -0.22018E+05
 0.14142000E+03 -0.17226E+05
 0.14147000E+03 -0.67930E+04
 0.14152000E+03  0.64610E+04
 0.14156999E+03  0.20084E+05
 0.14162000E+03  0.33090E+05
 0.14167000E+03  0.43305E+05
 0.14172000E+03  0.48160E+05
 0.14177000E+03  0.47360E+05
 0.14181999E+03  0.43717E+05
 0.14187000E+03  0.40241E+05
 0.14192000E+03  0.39299E+05
 0.14197000E+03  0.41980E+05
 0.14202000E+03  0.47065E+05
 0.14206999E+03  0.53332E+05
 0.14212000E+03  0.61367E+05
 0.14217000E+03  0.69434E+05
 0.14222000E+03  0.72507E+05
 0.14227000E+03  0.69826E+05
 0.14231999E+03  0.63801E+05
 0.14237000E+03  0.58311E+05
 0.14242000E+03  0.57176E+05
 0.14247000E+03  0.59024E+05
 0.14252000E+03  0.59072E+05
 0.14256999E+03  0.53131E+05
 0.14262000E+03  0.43091E+05
 0.14267000E+03  0.31965E+05
 0.14272000E+03  0.17541E+05
 0.14277000E+03 -0.11490E+04
 0.14281999E+03 -0.20446E+05
 0.14287000E+03 -0.35245E+05
 0.14292000E+03 -0.43146E+05
 0.14297000E+03 -0.43521E+05
 0.14302000E+03 -0.37834E+05
 0.14306999E+03 -0.31976E+05
 0.14312000E+03 -0.30119E+05
 0.14317000E+03 -0.33632E+05
 0.14322000E+03 -0.43911E+05
 0.14327000E+03 -0.57277E+05
 0.14331999E+03 -0.66080E+05
 0.14337000E+03 -0.66079E+05
 0.14342000E+03 -0.59707E+05
 0.14347000E+03 -0.50594E+05
 0.14352000E+03 -0.37612E+05
 0.14356999E+03 -0.21260E+05
 0.14362000E+03 -0.40260E+04
 0.14367000E+03  0.13720E+05
 0.14372000E+03  0.30336E+05
 0.14377000E+03  0.45171E+05
 0.14381999E+03  0.59480E+05
 0.14387000E+03  0.72601E+05
 0.14392000E+03  0.83674E+05
 0.14397000E+03  0.93963E+05
 0.14402000E+03  0.10496E+06
 0.14406999E+03  0.11500E+06
 0.14412000E+03  0.12144E+06
 0.14417000E+03  0.12493E+06
 0.14422000E+03  0.12554E+06
 0.14427000E+03  0.12202E+06
 0.14431999E+03  0.11580E+06
 0.14437000E+03  0.10949E+06
 0.14442000E+03  0.10488E+06
 0.14447000E+03  0.10140E+06
 0.14452000E+03  0.97730E+05
 0.14456999E+03  0.93636E+05
 0.14462000E+03  0.88069E+05
 0.14467000E+03  0.80209E+05
 0.14472000E+03  0.69365E+05
 0.14477000E+03  0.54465E+05
 0.14481999E+03  0.37712E+05
 0.14487000E+03  0.23509E+05
 0.14492000E+03  0.14062E+05
 0.14497000E+03  0.88880E+04
 0.14502000E+03  0.55310E+04
 0.14506999E+03  0.16760E+04
 0.14512000E+03 -0.19080E+04
 0.14517000E+03 -0.38130E+04
 0.14522000E+03 -0.55580E+04
 0.14527000E+03 -0.86980E+04
 0.14531999E+03 -0.12221E+05
 0.14537000E+03 -0.17163E+05
 0.14542000E+03 -0.26641E+05
 0.14547000E+03 -0.41976E+05
 0.14552000E+03 -0.63399E+05
 0.14556999E+03 -0.87100E+05
 0.14562000E+03 -0.10653E+06
 0.14567000E+03 -0.11879E+06
 0.14572000E+03 -0.12318E+06
 0.14577000E+03 -0.11981E+06
 0.14581999E+03 -0.10991E+06
 0.14587000E+03 -0.95631E+05
 0.14592000E+03 -0.81277E+05
 0.14597000E+03 -0.68150E+05
 0.14602000E+03 -0.52146E+05
 0.14606999E+03 -0.30876E+05
 0.14612000E+03 -0.74980E+04
 0.14617000E+03  0.12857E+05
 0.14622000E+03  0.28371E+05
 0.14627000E+03  0.39941E+05
 0.14631999E+03  0.48020E+05
 0.14637000E+03  0.51576E+05
 0.14642000E+03  0.49516E+05
 0.14647000E+03  0.43715E+05
 0.14652000E+03  0.35619E+05
 0.14656999E+03  0.24896E+05
 0.14662000E+03  0.13734E+05
 0.14667000E+03  0.75150E+04
 0.14672000E+03  0.93280E+04
 0.14677000E+03  0.16106E+05
 0.14681999E+03  0.24076E+05
 0.14687000E+03  0.32113E+05
 0.14692000E+03  0.40872E+05
 0.14697000E+03  0.49578E+05
 0.14702000E+03  0.55090E+05
 0.14706999E+03  0.56370E+05
 0.14712000E+03  0.54557E+05
 0.14717000E+03  0.53897E+05
 0.14722000E+03  0.59622E+05
 0.14727000E+03  0.69696E+05
 0.14731999E+03  0.79436E+05
 0.14737000E+03  0.88029E+05
 0.14742000E+03  0.96620E+05
 0.14747000E+03  0.10606E+06
 0.14752000E+03  0.11491E+06
 0.14756999E+03  0.12218E+06
 0.14762000E+03  0.12657E+06
 0.14767000E+03  0.12350E+06
 0.14772000E+03  0.10938E+06
 0.14777000E+03  0.86503E+05
 0.14781999E+03  0.60191E+05
 0.14787000E+03  0.33166E+05
 0.14792000E+03  0.54380E+04
 0.14797000E+03 -0.21342E+05
 0.14802000E+03 -0.41880E+05
 0.14806999E+03 -0.56447E+05
 0.14812000E+03 -0.72115E+05
 0.14817000E+03 -0.92692E+05
 0.14822000E+03 -0.11784E+06
 0.14827000E+03 -0.14556E+06
 0.14831999E+03 -0.17404E+06
 0.14837000E+03 -0.20259E+06
 0.14842000E+03 -0.23121E+06
 0.14847000E+03 -0.25948E+06
 0.14852000E+03 -0.28496E+06
 0.14856999E+03 -0.30398E+06
 0.14862000E+03 -0.31439E+06
 0.14867000E+03 -0.31648E+06
 0.14872000E+03 -0.31016E+06
 0.14877000E+03 -0.29502E+06
 0.14881999E+03 -0.27281E+06
 0.14887000E+03 -0.24751E+06
 0.14892000E+03 -0.22490E+06
 0.14897000E+03 -0.21021E+06
 0.14902000E+03 -0.20256E+06
 0.14906999E+03 -0.19421E+06
