-0.38800001E+01  0.55470E+04
-0.38300002E+01  0.66750E+04
-0.37800002E+01  0.75350E+04
-0.37300000E+01  0.78800E+04
-0.36800001E+01  0.73520E+04
-0.36300001E+01  0.56780E+04
-0.35800002E+01  0.34960E+04
-0.35300002E+01  0.76400E+03
-0.34800000E+01 -0.31880E+04
-0.34300001E+01 -0.83040E+04
-0.33800001E+01 -0.13110E+05
-0.33300002E+01 -0.16817E+05
-0.32800002E+01 -0.20454E+05
-0.32300000E+01 -0.23941E+05
-0.31800001E+01 -0.26686E+05
-0.31300001E+01 -0.28337E+05
-0.30800002E+01 -0.28929E+05
-0.30300002E+01 -0.29332E+05
-0.29800000E+01 -0.29819E+05
-0.29300001E+01 -0.29715E+05
-0.28800001E+01 -0.28494E+05
-0.28299999E+01 -0.26309E+05
-0.27800002E+01 -0.23297E+05
-0.27300000E+01 -0.20090E+05
-0.26800001E+01 -0.17050E+05
-0.26300001E+01 -0.13922E+05
-0.25799999E+01 -0.10802E+05
-0.25300002E+01 -0.73740E+04
-0.24800000E+01 -0.32260E+04
-0.24300001E+01  0.12550E+04
-0.23800001E+01  0.47440E+04
-0.23299999E+01  0.65100E+04
-0.22800002E+01  0.72490E+04
-0.22300000E+01  0.73110E+04
-0.21800001E+01  0.61090E+04
-0.21300001E+01  0.32690E+04
-0.20799999E+01 -0.10070E+04
-0.20300002E+01 -0.67290E+04
-0.19800001E+01 -0.14143E+05
-0.19300001E+01 -0.22585E+05
-0.18800001E+01 -0.31330E+05
-0.18300002E+01 -0.40682E+05
-0.17800000E+01 -0.51120E+05
-0.17300000E+01 -0.62067E+05
-0.16800001E+01 -0.72040E+05
-0.16300001E+01 -0.80801E+05
-0.15800002E+01 -0.88736E+05
-0.15300000E+01 -0.95400E+05
-0.14800000E+01 -0.99412E+05
-0.14300001E+01 -0.99435E+05
-0.13800001E+01 -0.94798E+05
-0.13300002E+01 -0.85295E+05
-0.12800000E+01 -0.71681E+05
-0.12300000E+01 -0.55039E+05
-0.11800001E+01 -0.37261E+05
-0.11300001E+01 -0.19464E+05
-0.10800002E+01 -0.16460E+04
-0.10300000E+01  0.15668E+05
-0.98000002E+00  0.32327E+05
-0.93000007E+00  0.47730E+05
-0.88000011E+00  0.61173E+05
-0.83000016E+00  0.72618E+05
-0.77999997E+00  0.82716E+05
-0.73000002E+00  0.92659E+05
-0.68000007E+00  0.10231E+06
-0.63000011E+00  0.11069E+06
-0.58000016E+00  0.11729E+06
-0.52999997E+00  0.12179E+06
-0.48000002E+00  0.12425E+06
-0.43000007E+00  0.12463E+06
-0.38000011E+00  0.12253E+06
-0.33000016E+00  0.11780E+06
-0.27999997E+00  0.11064E+06
-0.23000002E+00  0.10201E+06
-0.18000007E+00  0.93132E+05
-0.13000011E+00  0.83499E+05
-0.80000162E-01  0.72094E+05
-0.29999971E-01  0.59386E+05
 0.19999981E-01  0.46425E+05
 0.69999933E-01  0.33561E+05
 0.11999989E+00  0.21141E+05
 0.17000008E+00  0.10420E+05
 0.21999979E+00  0.19250E+04
 0.26999998E+00 -0.50440E+04
 0.32000017E+00 -0.11060E+05
 0.36999989E+00 -0.15718E+05
 0.42000008E+00 -0.18856E+05
 0.46999979E+00 -0.21124E+05
 0.51999998E+00 -0.22679E+05
 0.57000017E+00 -0.23860E+05
 0.61999989E+00 -0.25772E+05
 0.67000008E+00 -0.29928E+05
 0.71999979E+00 -0.36251E+05
 0.76999998E+00 -0.42931E+05
 0.82000017E+00 -0.49020E+05
 0.86999989E+00 -0.54444E+05
 0.92000008E+00 -0.59181E+05
 0.96999979E+00 -0.63066E+05
 0.10200000E+01 -0.66181E+05
 0.10700002E+01 -0.68280E+05
 0.11199999E+01 -0.68926E+05
 0.11700001E+01 -0.68502E+05
 0.12199998E+01 -0.67448E+05
 0.12700000E+01 -0.65871E+05
 0.13200002E+01 -0.63688E+05
 0.13699999E+01 -0.60277E+05
 0.14200001E+01 -0.54685E+05
 0.14699998E+01 -0.47529E+05
 0.15200000E+01 -0.39972E+05
 0.15700002E+01 -0.32493E+05
 0.16199999E+01 -0.25599E+05
 0.16700001E+01 -0.19525E+05
 0.17199998E+01 -0.14968E+05
 0.17700000E+01 -0.12082E+05
 0.18200002E+01 -0.10259E+05
 0.18699999E+01 -0.89820E+04
 0.19200001E+01 -0.78380E+04
 0.19699998E+01 -0.69530E+04
 0.20200000E+01 -0.64900E+04
 0.20700002E+01 -0.63930E+04
 0.21199999E+01 -0.60980E+04
 0.21700001E+01 -0.49410E+04
 0.22199998E+01 -0.30110E+04
 0.22700000E+01 -0.13470E+04
 0.23200002E+01 -0.38900E+03
 0.23699999E+01  0.70000E+03
 0.24200001E+01  0.19060E+04
 0.24699998E+01  0.26540E+04
 0.25200000E+01  0.29290E+04
 0.25700002E+01  0.34550E+04
 0.26199999E+01  0.44070E+04
 0.26700001E+01  0.49490E+04
 0.27199998E+01  0.58540E+04
 0.27700000E+01  0.81190E+04
 0.28200002E+01  0.10675E+05
 0.28699999E+01  0.12514E+05
 0.29200001E+01  0.14588E+05
 0.29699998E+01  0.18015E+05
 0.30200000E+01  0.22060E+05
 0.30700002E+01  0.25693E+05
 0.31199999E+01  0.28412E+05
 0.31700001E+01  0.29563E+05
 0.32199998E+01  0.28762E+05
 0.32700000E+01  0.26358E+05
 0.33200002E+01  0.23144E+05
 0.33699999E+01  0.19332E+05
 0.34200001E+01  0.14756E+05
 0.34699998E+01  0.99800E+04
 0.35200000E+01  0.57880E+04
 0.35700002E+01  0.24950E+04
 0.36199999E+01  0.80000E+02
 0.36700001E+01 -0.19190E+04
 0.37199998E+01 -0.41500E+04
 0.37700000E+01 -0.69180E+04
 0.38200002E+01 -0.98370E+04
 0.38699999E+01 -0.11996E+05
 0.39200001E+01 -0.13143E+05
 0.39699998E+01 -0.13538E+05
 0.40200000E+01 -0.13307E+05
 0.40700002E+01 -0.12953E+05
 0.41199999E+01 -0.12716E+05
 0.41700001E+01 -0.11634E+05
 0.42200003E+01 -0.80240E+04
 0.42700005E+01 -0.15490E+04
 0.43199997E+01  0.63000E+04
 0.43699999E+01  0.14416E+05
 0.44200001E+01  0.22993E+05
 0.44700003E+01  0.32807E+05
 0.45200005E+01  0.43386E+05
 0.45699997E+01  0.53341E+05
 0.46199999E+01  0.62160E+05
 0.46700001E+01  0.69762E+05
 0.47200003E+01  0.75153E+05
 0.47700005E+01  0.76765E+05
 0.48199997E+01  0.74920E+05
 0.48699999E+01  0.70798E+05
 0.49200001E+01  0.64710E+05
 0.49700003E+01  0.57350E+05
 0.50200005E+01  0.50200E+05
 0.50699997E+01  0.44435E+05
 0.51199999E+01  0.39756E+05
 0.51700001E+01  0.35307E+05
 0.52200003E+01  0.30911E+05
 0.52700005E+01  0.26897E+05
 0.53199997E+01  0.23429E+05
 0.53699999E+01  0.20276E+05
 0.54200001E+01  0.17357E+05
 0.54700003E+01  0.14782E+05
 0.55200005E+01  0.12032E+05
 0.55699997E+01  0.83120E+04
 0.56199999E+01  0.38350E+04
 0.56700001E+01 -0.60500E+03
 0.57200003E+01 -0.45180E+04
 0.57700005E+01 -0.81970E+04
 0.58199997E+01 -0.12457E+05
 0.58699999E+01 -0.17678E+05
 0.59200001E+01 -0.23704E+05
 0.59700003E+01 -0.29548E+05
 0.60200005E+01 -0.34360E+05
 0.60699997E+01 -0.38516E+05
 0.61199999E+01 -0.42661E+05
 0.61700001E+01 -0.46890E+05
 0.62200003E+01 -0.50727E+05
 0.62700005E+01 -0.54189E+05
 0.63199997E+01 -0.56900E+05
 0.63699999E+01 -0.57719E+05
 0.64200001E+01 -0.56573E+05
 0.64700003E+01 -0.54352E+05
 0.65200005E+01 -0.51983E+05
 0.65699997E+01 -0.49477E+05
 0.66199999E+01 -0.47184E+05
 0.66700001E+01 -0.45695E+05
 0.67200003E+01 -0.44510E+05
 0.67700005E+01 -0.43185E+05
 0.68199997E+01 -0.41584E+05
 0.68699999E+01 -0.39937E+05
 0.69200001E+01 -0.38312E+05
 0.69700003E+01 -0.36514E+05
 0.70200005E+01 -0.34408E+05
 0.70699997E+01 -0.31550E+05
 0.71199999E+01 -0.28272E+05
 0.71700001E+01 -0.25772E+05
 0.72200003E+01 -0.24602E+05
 0.72700005E+01 -0.24189E+05
 0.73199997E+01 -0.24241E+05
 0.73699999E+01 -0.25167E+05
 0.74200001E+01 -0.26938E+05
 0.74700003E+01 -0.29323E+05
 0.75200005E+01 -0.31444E+05
 0.75699997E+01 -0.32387E+05
 0.76199999E+01 -0.32886E+05
 0.76700001E+01 -0.33831E+05
 0.77200003E+01 -0.34645E+05
 0.77700005E+01 -0.34400E+05
 0.78199997E+01 -0.33485E+05
 0.78699999E+01 -0.32716E+05
 0.79200001E+01 -0.31315E+05
 0.79700003E+01 -0.28094E+05
 0.80200005E+01 -0.23498E+05
 0.80699997E+01 -0.18708E+05
 0.81199999E+01 -0.14221E+05
 0.81700001E+01 -0.94250E+04
 0.82200003E+01 -0.38490E+04
 0.82700005E+01  0.23010E+04
 0.83199997E+01  0.89710E+04
 0.83699999E+01  0.15635E+05
 0.84200001E+01  0.21437E+05
 0.84700003E+01  0.25836E+05
 0.85200005E+01  0.29012E+05
 0.85699997E+01  0.31297E+05
 0.86199999E+01  0.32669E+05
 0.86700001E+01  0.33369E+05
 0.87200003E+01  0.33211E+05
 0.87700005E+01  0.32546E+05
 0.88199997E+01  0.32298E+05
 0.88699999E+01  0.32542E+05
 0.89200001E+01  0.33708E+05
 0.89700003E+01  0.36027E+05
 0.90200005E+01  0.38661E+05
 0.90699997E+01  0.41038E+05
 0.91199999E+01  0.43249E+05
 0.91700001E+01  0.45009E+05
 0.92200003E+01  0.45994E+05
 0.92700005E+01  0.46428E+05
 0.93199997E+01  0.46190E+05
 0.93699999E+01  0.44851E+05
 0.94200001E+01  0.41951E+05
 0.94700003E+01  0.37571E+05
 0.95200005E+01  0.32020E+05
 0.95699997E+01  0.25230E+05
 0.96199999E+01  0.17604E+05
 0.96700001E+01  0.97840E+04
 0.97200003E+01  0.25650E+04
 0.97700005E+01 -0.33760E+04
 0.98199997E+01 -0.80680E+04
 0.98699999E+01 -0.11437E+05
 0.99200001E+01 -0.13526E+05
 0.99700003E+01 -0.14465E+05
 0.10020000E+02 -0.14217E+05
 0.10070000E+02 -0.13037E+05
 0.10120000E+02 -0.11081E+05
 0.10170000E+02 -0.86330E+04
 0.10220000E+02 -0.58440E+04
 0.10270000E+02 -0.29640E+04
 0.10320000E+02 -0.70800E+03
 0.10370000E+02  0.81800E+03
 0.10420000E+02  0.16200E+04
 0.10470000E+02  0.14290E+04
 0.10520000E+02  0.37700E+03
 0.10570000E+02 -0.96700E+03
 0.10620000E+02 -0.21680E+04
 0.10670000E+02 -0.33530E+04
 0.10720000E+02 -0.42050E+04
 0.10770000E+02 -0.36370E+04
 0.10820000E+02 -0.12850E+04
 0.10870000E+02  0.26120E+04
 0.10920000E+02  0.79800E+04
 0.10970000E+02  0.14156E+05
 0.11020000E+02  0.20135E+05
 0.11070000E+02  0.25280E+05
 0.11120000E+02  0.29281E+05
 0.11170000E+02  0.32002E+05
 0.11220000E+02  0.33205E+05
 0.11270000E+02  0.33005E+05
 0.11320000E+02  0.31951E+05
 0.11370000E+02  0.30258E+05
 0.11420000E+02  0.28119E+05
 0.11470000E+02  0.25748E+05
 0.11520000E+02  0.22839E+05
 0.11570000E+02  0.18999E+05
 0.11620000E+02  0.14413E+05
 0.11670000E+02  0.96350E+04
 0.11720000E+02  0.49530E+04
 0.11770000E+02  0.41200E+03
 0.11820000E+02 -0.41370E+04
 0.11870000E+02 -0.86470E+04
 0.11920000E+02 -0.12720E+05
 0.11970000E+02 -0.15881E+05
 0.12020000E+02 -0.17645E+05
 0.12070000E+02 -0.18353E+05
 0.12120000E+02 -0.18632E+05
 0.12170001E+02 -0.18492E+05
 0.12220000E+02 -0.17108E+05
 0.12270000E+02 -0.13661E+05
 0.12320001E+02 -0.86970E+04
 0.12370000E+02 -0.27430E+04
 0.12420001E+02  0.37410E+04
 0.12470000E+02  0.10036E+05
 0.12520000E+02  0.16080E+05
 0.12570001E+02  0.21970E+05
 0.12620000E+02  0.27559E+05
 0.12670001E+02  0.32008E+05
 0.12720000E+02  0.34934E+05
 0.12770000E+02  0.36729E+05
 0.12820001E+02  0.37301E+05
 0.12870000E+02  0.36550E+05
 0.12920001E+02  0.34516E+05
 0.12970000E+02  0.31007E+05
 0.13020000E+02  0.25284E+05
 0.13070001E+02  0.17424E+05
 0.13120000E+02  0.89100E+04
 0.13170001E+02  0.41000E+03
 0.13220000E+02 -0.75240E+04
 0.13270000E+02 -0.13967E+05
 0.13320001E+02 -0.19113E+05
 0.13370000E+02 -0.23154E+05
 0.13420001E+02 -0.25654E+05
 0.13470000E+02 -0.25657E+05
 0.13520000E+02 -0.22631E+05
 0.13570001E+02 -0.17120E+05
 0.13620000E+02 -0.95880E+04
 0.13670001E+02 -0.14250E+04
 0.13720000E+02  0.54230E+04
 0.13770000E+02  0.99480E+04
 0.13820001E+02  0.12635E+05
 0.13870000E+02  0.14580E+05
 0.13920001E+02  0.15693E+05
 0.13970000E+02  0.15571E+05
 0.14020000E+02  0.13850E+05
 0.14070001E+02  0.10854E+05
 0.14120000E+02  0.75750E+04
 0.14170001E+02  0.45270E+04
 0.14220000E+02  0.21380E+04
 0.14270000E+02  0.84200E+03
 0.14320001E+02  0.11800E+04
 0.14370000E+02  0.31750E+04
 0.14420001E+02  0.62580E+04
 0.14470000E+02  0.10100E+05
 0.14520000E+02  0.14152E+05
 0.14570001E+02  0.17117E+05
 0.14620000E+02  0.18108E+05
 0.14670001E+02  0.17879E+05
 0.14720000E+02  0.17640E+05
 0.14770000E+02  0.17498E+05
 0.14820001E+02  0.16779E+05
 0.14870000E+02  0.15081E+05
 0.14920001E+02  0.12092E+05
 0.14970000E+02  0.78070E+04
 0.15020000E+02  0.31630E+04
 0.15070001E+02 -0.10440E+04
 0.15120000E+02 -0.40750E+04
 0.15170001E+02 -0.54210E+04
 0.15220000E+02 -0.60410E+04
 0.15270000E+02 -0.71820E+04
 0.15320001E+02 -0.92010E+04
 0.15370000E+02 -0.11504E+05
 0.15420001E+02 -0.13709E+05
 0.15470000E+02 -0.16306E+05
 0.15520000E+02 -0.19140E+05
 0.15570001E+02 -0.21840E+05
 0.15620000E+02 -0.24782E+05
 0.15670001E+02 -0.28587E+05
 0.15720000E+02 -0.32864E+05
 0.15770000E+02 -0.36499E+05
 0.15820001E+02 -0.39479E+05
 0.15870000E+02 -0.42086E+05
 0.15920001E+02 -0.44113E+05
 0.15970000E+02 -0.45067E+05
 0.16020000E+02 -0.44677E+05
 0.16070000E+02 -0.42829E+05
 0.16119999E+02 -0.39337E+05
 0.16170002E+02 -0.34911E+05
 0.16220001E+02 -0.30405E+05
 0.16270000E+02 -0.26160E+05
 0.16320000E+02 -0.22589E+05
 0.16369999E+02 -0.20587E+05
 0.16420002E+02 -0.20492E+05
 0.16470001E+02 -0.21166E+05
 0.16520000E+02 -0.21529E+05
 0.16570000E+02 -0.21106E+05
 0.16619999E+02 -0.20166E+05
 0.16670002E+02 -0.19027E+05
 0.16720001E+02 -0.17351E+05
 0.16770000E+02 -0.15266E+05
 0.16820000E+02 -0.12980E+05
 0.16869999E+02 -0.10738E+05
 0.16920002E+02 -0.91970E+04
 0.16970001E+02 -0.89600E+04
 0.17020000E+02 -0.97630E+04
 0.17070000E+02 -0.10727E+05
 0.17119999E+02 -0.11235E+05
 0.17170002E+02 -0.11145E+05
 0.17220001E+02 -0.11327E+05
 0.17270000E+02 -0.12264E+05
 0.17320000E+02 -0.13539E+05
 0.17369999E+02 -0.14595E+05
 0.17420002E+02 -0.15250E+05
 0.17470001E+02 -0.16036E+05
 0.17520000E+02 -0.16905E+05
 0.17570000E+02 -0.17728E+05
 0.17619999E+02 -0.18590E+05
 0.17670002E+02 -0.19197E+05
 0.17720001E+02 -0.18752E+05
 0.17770000E+02 -0.16697E+05
 0.17820000E+02 -0.14032E+05
 0.17869999E+02 -0.11523E+05
 0.17920002E+02 -0.86610E+04
 0.17970001E+02 -0.47020E+04
 0.18020000E+02  0.61500E+03
 0.18070000E+02  0.71890E+04
 0.18119999E+02  0.15094E+05
 0.18170002E+02  0.23718E+05
 0.18220001E+02  0.31589E+05
 0.18270000E+02  0.37567E+05
 0.18320000E+02  0.41363E+05
 0.18369999E+02  0.43131E+05
 0.18420002E+02  0.43061E+05
 0.18470001E+02  0.41400E+05
 0.18520000E+02  0.38287E+05
 0.18570000E+02  0.33589E+05
 0.18619999E+02  0.27981E+05
 0.18670002E+02  0.22834E+05
 0.18720001E+02  0.18745E+05
 0.18770000E+02  0.15742E+05
 0.18820000E+02  0.13670E+05
 0.18869999E+02  0.12472E+05
 0.18920002E+02  0.12375E+05
 0.18970001E+02  0.13448E+05
 0.19020000E+02  0.15644E+05
 0.19070000E+02  0.18647E+05
 0.19119999E+02  0.21817E+05
 0.19170002E+02  0.24430E+05
 0.19220001E+02  0.26013E+05
 0.19270000E+02  0.26960E+05
 0.19320000E+02  0.27376E+05
 0.19369999E+02  0.26809E+05
 0.19420002E+02  0.25515E+05
 0.19470001E+02  0.23595E+05
 0.19520000E+02  0.20592E+05
 0.19570000E+02  0.16477E+05
 0.19619999E+02  0.11995E+05
 0.19670002E+02  0.76270E+04
 0.19720001E+02  0.34180E+04
 0.19770000E+02  0.88000E+02
 0.19820000E+02 -0.17940E+04
 0.19869999E+02 -0.21590E+04
 0.19920002E+02 -0.11330E+04
 0.19970001E+02  0.85400E+03
 0.20020000E+02  0.35010E+04
 0.20070000E+02  0.71010E+04
 0.20119999E+02  0.12154E+05
 0.20170002E+02  0.18029E+05
 0.20220001E+02  0.24006E+05
 0.20270000E+02  0.29881E+05
 0.20320000E+02  0.35335E+05
 0.20369999E+02  0.40113E+05
 0.20420002E+02  0.43604E+05
 0.20470001E+02  0.45177E+05
 0.20520000E+02  0.44347E+05
 0.20570000E+02  0.41614E+05
 0.20619999E+02  0.38085E+05
 0.20670002E+02  0.34140E+05
 0.20720001E+02  0.30195E+05
 0.20770000E+02  0.26383E+05
 0.20820000E+02  0.22058E+05
 0.20869999E+02  0.16307E+05
 0.20920002E+02  0.93610E+04
 0.20970001E+02  0.23110E+04
 0.21020000E+02 -0.43060E+04
 0.21070000E+02 -0.10137E+05
 0.21119999E+02 -0.15261E+05
 0.21170002E+02 -0.20225E+05
 0.21220001E+02 -0.24974E+05
 0.21270000E+02 -0.28521E+05
 0.21320000E+02 -0.30610E+05
 0.21369999E+02 -0.31956E+05
 0.21420002E+02 -0.32559E+05
 0.21470001E+02 -0.32316E+05
 0.21520000E+02 -0.31718E+05
 0.21570000E+02 -0.31046E+05
 0.21619999E+02 -0.30125E+05
 0.21670002E+02 -0.28675E+05
 0.21720001E+02 -0.27300E+05
 0.21770000E+02 -0.27161E+05
 0.21820000E+02 -0.28198E+05
 0.21869999E+02 -0.29609E+05
 0.21920002E+02 -0.30899E+05
 0.21970001E+02 -0.32169E+05
 0.22020000E+02 -0.34025E+05
 0.22070000E+02 -0.36823E+05
 0.22119999E+02 -0.39860E+05
 0.22170002E+02 -0.42033E+05
 0.22220001E+02 -0.43662E+05
 0.22270000E+02 -0.45479E+05
 0.22320000E+02 -0.47581E+05
 0.22369999E+02 -0.49589E+05
 0.22420002E+02 -0.50984E+05
 0.22470001E+02 -0.52073E+05
 0.22520000E+02 -0.52708E+05
 0.22570000E+02 -0.52868E+05
 0.22619999E+02 -0.52279E+05
 0.22670002E+02 -0.49938E+05
 0.22720001E+02 -0.45080E+05
 0.22770000E+02 -0.37355E+05
 0.22820000E+02 -0.29643E+05
 0.22869999E+02 -0.24124E+05
 0.22920002E+02 -0.20256E+05
 0.22970001E+02 -0.14085E+05
 0.23020000E+02 -0.33610E+04
 0.23070000E+02  0.94410E+04
 0.23119999E+02  0.21419E+05
 0.23170002E+02  0.25111E+05
 0.23220001E+02  0.21686E+05
 0.23270000E+02  0.18641E+05
 0.23320000E+02  0.19976E+05
 0.23369999E+02  0.24729E+05
 0.23420002E+02  0.38236E+05
 0.23470001E+02  0.63829E+05
 0.23520000E+02  0.87564E+05
 0.23570000E+02  0.11790E+06
 0.23619999E+02  0.15493E+06
 0.23670002E+02  0.18172E+06
 0.23720001E+02  0.19187E+06
 0.23770000E+02  0.21512E+06
 0.23820000E+02  0.27663E+06
 0.23869999E+02  0.31798E+06
 0.23920002E+02  0.31131E+06
 0.23970001E+02  0.30460E+06
 0.24020000E+02  0.29764E+06
 0.24070000E+02  0.23796E+06
 0.24119999E+02  0.20909E+06
 0.24170002E+02  0.27150E+06
 0.24220001E+02  0.28262E+06
 0.24270000E+02  0.17812E+06
 0.24320000E+02  0.77997E+05
 0.24369999E+02  0.10651E+06
 0.24420002E+02  0.18302E+06
 0.24470001E+02  0.20806E+06
 0.24520000E+02  0.24589E+06
 0.24570000E+02  0.28834E+06
 0.24619999E+02  0.27218E+06
 0.24670002E+02  0.25284E+06
 0.24720001E+02  0.31952E+06
 0.24770000E+02  0.38038E+06
 0.24820000E+02  0.27609E+06
 0.24869999E+02  0.69425E+05
 0.24920002E+02 -0.87020E+05
 0.24970001E+02 -0.12823E+06
 0.25020000E+02 -0.13646E+06
 0.25070000E+02 -0.19362E+06
 0.25119999E+02 -0.27199E+06
 0.25170002E+02 -0.42733E+06
 0.25220001E+02 -0.60692E+06
 0.25270000E+02 -0.66102E+06
 0.25320000E+02 -0.60632E+06
 0.25369999E+02 -0.57190E+06
 0.25420002E+02 -0.62482E+06
 0.25470001E+02 -0.58730E+06
 0.25520000E+02 -0.36450E+06
 0.25570000E+02 -0.25864E+06
 0.25619999E+02 -0.33275E+06
 0.25670002E+02 -0.22648E+06
 0.25720001E+02  0.67553E+05
 0.25770000E+02  0.20541E+06
 0.25820000E+02  0.14477E+06
 0.25869999E+02  0.15611E+06
 0.25920002E+02  0.13946E+06
 0.25970001E+02 -0.52052E+05
 0.26020000E+02 -0.62113E+05
 0.26070000E+02  0.98068E+05
 0.26119999E+02 -0.92496E+05
 0.26170002E+02 -0.53342E+06
 0.26220001E+02 -0.48032E+06
 0.26270000E+02 -0.44110E+04
 0.26320000E+02  0.20563E+06
 0.26369999E+02  0.95456E+05
 0.26420002E+02 -0.14922E+06
 0.26470001E+02 -0.36582E+06
 0.26520000E+02 -0.40911E+06
 0.26570000E+02 -0.13611E+06
 0.26619999E+02  0.34067E+06
 0.26670002E+02  0.49244E+06
 0.26720001E+02  0.44030E+06
 0.26770000E+02  0.39765E+06
 0.26820000E+02  0.27687E+06
 0.26869999E+02  0.30292E+06
 0.26920002E+02  0.41935E+06
 0.26970001E+02  0.42486E+06
 0.27020000E+02  0.31202E+06
 0.27070000E+02  0.18790E+06
 0.27119999E+02  0.10897E+06
 0.27170002E+02 -0.12053E+05
 0.27220001E+02 -0.10326E+06
 0.27270000E+02 -0.14640E+06
 0.27320000E+02 -0.11956E+06
 0.27369999E+02  0.13926E+06
 0.27420002E+02  0.38244E+06
 0.27470001E+02  0.30730E+06
 0.27520000E+02  0.14627E+05
 0.27570000E+02 -0.29411E+06
 0.27619999E+02 -0.58184E+06
 0.27670002E+02 -0.86779E+06
 0.27720001E+02 -0.93262E+06
 0.27770000E+02 -0.76920E+06
 0.27820000E+02 -0.79840E+06
 0.27869999E+02 -0.99032E+06
 0.27920002E+02 -0.95125E+06
 0.27970001E+02 -0.77344E+06
 0.28020000E+02 -0.59855E+06
 0.28070000E+02 -0.54024E+06
 0.28119999E+02 -0.35556E+06
 0.28169998E+02  0.11325E+06
 0.28220001E+02  0.23564E+06
 0.28270000E+02  0.15224E+06
 0.28320000E+02  0.28237E+06
 0.28369999E+02  0.60303E+06
 0.28419998E+02  0.82991E+06
 0.28470001E+02  0.52190E+06
 0.28520000E+02  0.33122E+05
 0.28570000E+02 -0.29026E+06
 0.28619999E+02 -0.71911E+06
 0.28669998E+02 -0.10176E+07
 0.28720001E+02 -0.96480E+06
 0.28770000E+02 -0.12324E+07
 0.28820000E+02 -0.18183E+07
 0.28869999E+02 -0.20800E+07
 0.28919998E+02 -0.16060E+07
 0.28970001E+02 -0.69083E+06
 0.29020000E+02 -0.14626E+06
 0.29070000E+02  0.31838E+06
 0.29119999E+02  0.66875E+06
 0.29169998E+02  0.79933E+06
 0.29220001E+02  0.12472E+07
 0.29270000E+02  0.17244E+07
 0.29320000E+02  0.17386E+07
 0.29369999E+02  0.11776E+07
 0.29419998E+02  0.60328E+06
 0.29470001E+02  0.21761E+06
 0.29520000E+02 -0.72243E+05
 0.29570000E+02 -0.35430E+06
 0.29619999E+02 -0.72202E+06
 0.29669998E+02 -0.10510E+07
 0.29720001E+02 -0.12982E+07
 0.29770000E+02 -0.86619E+06
 0.29820000E+02 -0.42402E+06
 0.29869999E+02 -0.41888E+06
 0.29919998E+02 -0.23306E+06
 0.29970001E+02  0.25442E+05
 0.30020000E+02  0.62383E+06
 0.30070000E+02  0.11757E+07
 0.30119999E+02  0.13634E+07
 0.30169998E+02  0.15392E+07
 0.30220001E+02  0.12753E+07
 0.30270000E+02  0.41848E+06
 0.30320000E+02 -0.49427E+05
 0.30369999E+02  0.38694E+06
 0.30419998E+02  0.74121E+06
 0.30470001E+02  0.20226E+06
 0.30520000E+02 -0.64803E+06
 0.30570000E+02 -0.68536E+06
 0.30619999E+02 -0.12006E+06
 0.30669998E+02  0.15370E+06
 0.30720001E+02  0.19715E+06
 0.30770000E+02  0.25078E+06
 0.30820000E+02  0.59180E+06
 0.30869999E+02  0.97169E+06
 0.30919998E+02  0.57480E+06
 0.30970001E+02 -0.48363E+06
 0.31020000E+02 -0.11768E+07
 0.31070000E+02 -0.55807E+06
 0.31119999E+02  0.32272E+05
 0.31169998E+02 -0.38565E+06
 0.31220001E+02 -0.77725E+06
 0.31270000E+02 -0.11161E+07
 0.31320000E+02 -0.10890E+07
 0.31369999E+02 -0.76728E+06
 0.31419998E+02 -0.16521E+06
 0.31470001E+02  0.71722E+06
 0.31520000E+02  0.68197E+06
 0.31570000E+02  0.61237E+05
 0.31619999E+02  0.40757E+05
 0.31669998E+02  0.70362E+06
 0.31720001E+02  0.10198E+07
 0.31770000E+02  0.72542E+06
 0.31820000E+02  0.38008E+06
 0.31869999E+02  0.78602E+05
 0.31919998E+02 -0.25573E+06
 0.31970001E+02 -0.53931E+06
 0.32020000E+02 -0.30006E+06
 0.32070000E+02  0.25255E+06
 0.32119999E+02  0.28610E+06
 0.32169998E+02  0.55108E+05
 0.32220001E+02  0.42609E+06
 0.32270000E+02  0.10581E+07
 0.32320000E+02  0.13577E+07
 0.32369999E+02  0.13317E+07
 0.32419998E+02  0.13284E+07
 0.32470001E+02  0.17082E+07
 0.32520000E+02  0.19411E+07
 0.32570000E+02  0.15252E+07
 0.32619999E+02  0.67523E+06
 0.32669998E+02  0.12042E+06
 0.32720001E+02  0.31123E+05
 0.32770000E+02  0.19185E+05
 0.32820000E+02  0.12590E+06
 0.32869999E+02  0.25083E+06
 0.32919998E+02  0.38646E+06
 0.32970001E+02  0.50524E+06
 0.33020000E+02  0.78870E+06
 0.33070000E+02  0.12814E+07
 0.33119999E+02  0.15897E+07
 0.33169998E+02  0.16301E+07
 0.33220001E+02  0.15016E+07
 0.33270000E+02  0.16987E+07
 0.33320000E+02  0.18451E+07
 0.33369999E+02  0.14077E+07
 0.33419998E+02  0.88154E+06
 0.33470001E+02  0.39138E+06
 0.33520000E+02 -0.16875E+06
 0.33570000E+02 -0.85588E+06
 0.33619999E+02 -0.12822E+07
 0.33669998E+02 -0.11333E+07
 0.33720001E+02 -0.10681E+07
 0.33770000E+02 -0.11777E+07
 0.33820000E+02 -0.10482E+07
 0.33869999E+02 -0.87531E+06
 0.33919998E+02 -0.98658E+06
 0.33970001E+02 -0.11632E+07
 0.34020000E+02 -0.76419E+06
 0.34070000E+02 -0.28205E+06
 0.34119999E+02 -0.38864E+06
 0.34169998E+02 -0.71174E+06
 0.34220001E+02 -0.80347E+06
 0.34270000E+02 -0.42889E+06
 0.34320000E+02 -0.27616E+05
 0.34369999E+02  0.15421E+06
 0.34419998E+02  0.19209E+06
 0.34470001E+02  0.19221E+06
 0.34520000E+02  0.45770E+06
 0.34570000E+02  0.77993E+06
 0.34619999E+02  0.10258E+07
 0.34669998E+02  0.11196E+07
 0.34720001E+02  0.94803E+06
 0.34770000E+02  0.71451E+06
 0.34820000E+02  0.35952E+06
 0.34869999E+02 -0.11192E+06
 0.34919998E+02 -0.37711E+06
 0.34970001E+02 -0.53589E+06
 0.35020000E+02 -0.54049E+06
 0.35070000E+02 -0.38624E+06
 0.35119999E+02 -0.44166E+06
 0.35169998E+02 -0.46968E+06
 0.35220001E+02 -0.30594E+06
 0.35270000E+02  0.64346E+05
 0.35320000E+02  0.51304E+06
 0.35369999E+02  0.50346E+06
 0.35419998E+02  0.22900E+06
 0.35470001E+02  0.20895E+06
 0.35520000E+02  0.57742E+06
 0.35570000E+02  0.91876E+06
 0.35619999E+02  0.36632E+06
 0.35669998E+02 -0.71358E+06
 0.35720001E+02 -0.11867E+07
 0.35770000E+02 -0.89925E+06
 0.35820000E+02 -0.36973E+06
 0.35869999E+02 -0.48987E+05
 0.35919998E+02  0.18267E+06
 0.35970001E+02  0.11719E+06
 0.36020000E+02 -0.44615E+06
 0.36070000E+02 -0.63815E+06
 0.36119999E+02 -0.33523E+06
 0.36169998E+02 -0.27491E+06
 0.36220001E+02 -0.61377E+06
 0.36270000E+02 -0.84283E+06
 0.36320000E+02 -0.70060E+06
 0.36369999E+02 -0.56693E+06
 0.36419998E+02 -0.54402E+06
 0.36470001E+02 -0.55442E+06
 0.36520000E+02 -0.72614E+06
 0.36570000E+02 -0.90636E+06
 0.36619999E+02 -0.66308E+06
 0.36669998E+02 -0.49413E+06
 0.36720001E+02 -0.80900E+06
 0.36770000E+02 -0.69426E+06
 0.36820000E+02 -0.40000E+04
 0.36869999E+02  0.42685E+06
 0.36919998E+02  0.43220E+06
 0.36970001E+02  0.31081E+06
 0.37020000E+02 -0.30923E+05
 0.37070000E+02 -0.35318E+06
 0.37119999E+02 -0.27316E+06
 0.37169998E+02 -0.37144E+05
 0.37220001E+02 -0.77318E+05
 0.37270000E+02 -0.72220E+06
 0.37320000E+02 -0.12518E+07
 0.37369999E+02 -0.13385E+07
 0.37419998E+02 -0.14032E+07
 0.37470001E+02 -0.10294E+07
 0.37520000E+02 -0.46274E+06
 0.37570000E+02 -0.12190E+06
 0.37619999E+02  0.77761E+05
 0.37669998E+02  0.58757E+05
 0.37720001E+02  0.13000E+06
 0.37770000E+02  0.32395E+06
 0.37820000E+02  0.43804E+06
 0.37869999E+02  0.51343E+06
 0.37919998E+02  0.47875E+06
 0.37970001E+02  0.36354E+06
 0.38020000E+02  0.26685E+06
 0.38070000E+02  0.27235E+06
 0.38119999E+02  0.26032E+06
 0.38169998E+02 -0.40960E+04
 0.38220001E+02 -0.31058E+06
 0.38270000E+02 -0.36580E+06
 0.38320000E+02 -0.44525E+06
 0.38369999E+02 -0.81451E+06
 0.38419998E+02 -0.94046E+06
 0.38470001E+02 -0.58598E+06
 0.38520000E+02 -0.10658E+06
 0.38570000E+02  0.28589E+05
 0.38619999E+02 -0.42681E+06
 0.38669998E+02 -0.67694E+06
 0.38720001E+02 -0.47668E+06
 0.38770000E+02 -0.28130E+06
 0.38820000E+02 -0.40966E+05
 0.38869999E+02  0.15804E+06
 0.38919998E+02  0.21614E+06
 0.38970001E+02  0.60865E+05
 0.39020000E+02 -0.57305E+05
 0.39070000E+02  0.17928E+06
 0.39119999E+02  0.38693E+06
 0.39169998E+02  0.30363E+06
 0.39220001E+02  0.13366E+06
 0.39270000E+02  0.14732E+06
 0.39320000E+02  0.29806E+06
 0.39369999E+02  0.37730E+06
 0.39419998E+02  0.28536E+06
 0.39470001E+02  0.16880E+06
 0.39520000E+02  0.19341E+06
 0.39570000E+02  0.83063E+05
 0.39619999E+02 -0.84086E+05
 0.39669998E+02 -0.54240E+04
 0.39720001E+02  0.35901E+06
 0.39770000E+02  0.61494E+06
 0.39820000E+02  0.49820E+06
 0.39869999E+02  0.44179E+06
 0.39919998E+02  0.19056E+06
 0.39970001E+02 -0.48855E+06
 0.40020000E+02 -0.10240E+07
 0.40070000E+02 -0.10799E+07
 0.40119999E+02 -0.76665E+06
 0.40169998E+02 -0.51632E+06
 0.40220001E+02 -0.49815E+06
 0.40270000E+02 -0.55748E+06
 0.40320000E+02 -0.47780E+06
 0.40369999E+02 -0.18274E+06
 0.40419998E+02  0.14524E+06
 0.40470001E+02  0.45371E+06
 0.40520000E+02  0.58152E+06
 0.40570000E+02  0.55773E+06
 0.40619999E+02  0.65841E+06
 0.40669998E+02  0.80175E+06
 0.40720001E+02  0.74370E+06
 0.40770000E+02  0.39700E+06
 0.40820000E+02  0.38301E+05
 0.40869999E+02 -0.23050E+06
 0.40919998E+02 -0.42190E+06
 0.40970001E+02 -0.30667E+06
 0.41020000E+02 -0.42654E+05
 0.41070000E+02  0.55007E+05
 0.41119999E+02  0.93090E+05
 0.41169998E+02  0.34688E+06
 0.41220001E+02  0.82953E+06
 0.41270000E+02  0.11733E+07
 0.41320000E+02  0.10688E+07
 0.41369999E+02  0.69483E+06
 0.41419998E+02  0.37126E+06
 0.41470001E+02  0.30131E+05
 0.41520000E+02 -0.55545E+06
 0.41570000E+02 -0.10412E+07
 0.41619999E+02 -0.12280E+07
 0.41669998E+02 -0.12952E+07
 0.41720001E+02 -0.10660E+07
 0.41770000E+02 -0.75885E+06
 0.41820000E+02 -0.70810E+06
 0.41869999E+02 -0.79300E+06
 0.41919998E+02 -0.65396E+06
 0.41970001E+02 -0.21206E+06
 0.42020000E+02  0.55674E+05
 0.42070000E+02  0.64693E+05
 0.42119999E+02 -0.51298E+05
 0.42169998E+02 -0.91686E+05
 0.42220001E+02  0.11730E+06
 0.42270000E+02  0.41409E+06
 0.42320000E+02  0.57933E+06
 0.42369999E+02  0.44086E+06
 0.42419998E+02  0.43952E+06
 0.42470001E+02  0.66582E+06
 0.42520000E+02  0.57115E+06
 0.42570000E+02  0.27298E+06
 0.42619999E+02  0.18087E+06
 0.42669998E+02  0.23102E+06
 0.42720001E+02 -0.12555E+06
 0.42770000E+02 -0.76050E+06
 0.42820000E+02 -0.97547E+06
 0.42869999E+02 -0.90312E+06
 0.42919998E+02 -0.97574E+06
 0.42970001E+02 -0.11939E+07
 0.43020000E+02 -0.12312E+07
 0.43070000E+02 -0.95776E+06
 0.43119999E+02 -0.39282E+06
 0.43169998E+02  0.56562E+06
 0.43220001E+02  0.15351E+07
 0.43270000E+02  0.17731E+07
 0.43320000E+02  0.10903E+07
 0.43369999E+02 -0.56232E+05
 0.43419998E+02 -0.12290E+07
 0.43470001E+02 -0.19597E+07
 0.43520000E+02 -0.20992E+07
 0.43570000E+02 -0.19027E+07
 0.43619999E+02 -0.15917E+07
 0.43669998E+02 -0.12469E+07
 0.43720001E+02 -0.58603E+06
 0.43770000E+02  0.32214E+06
 0.43820000E+02  0.11825E+07
 0.43869999E+02  0.17539E+07
 0.43919998E+02  0.18961E+07
 0.43970001E+02  0.17010E+07
 0.44020000E+02  0.12167E+07
 0.44070000E+02  0.85758E+06
 0.44119999E+02  0.92398E+06
 0.44169998E+02  0.12815E+07
 0.44220001E+02  0.15306E+07
 0.44270000E+02  0.13560E+07
 0.44320000E+02  0.10374E+07
 0.44369999E+02  0.72574E+06
 0.44419998E+02  0.41411E+06
 0.44470001E+02  0.14229E+06
 0.44520000E+02 -0.18692E+06
 0.44570000E+02 -0.31528E+06
 0.44619999E+02 -0.13515E+06
 0.44669998E+02 -0.21879E+05
 0.44720001E+02 -0.87153E+05
 0.44770000E+02 -0.23842E+06
 0.44820000E+02 -0.49387E+06
 0.44869999E+02 -0.95394E+06
 0.44919998E+02 -0.14518E+07
 0.44970001E+02 -0.15694E+07
 0.45020000E+02 -0.13086E+07
 0.45070000E+02 -0.96288E+06
 0.45119999E+02 -0.47548E+06
 0.45169998E+02  0.25665E+06
 0.45220001E+02  0.10620E+07
 0.45270000E+02  0.16305E+07
 0.45320000E+02  0.15536E+07
 0.45369999E+02  0.83788E+06
 0.45419998E+02 -0.13725E+06
 0.45470001E+02 -0.92690E+06
 0.45520000E+02 -0.10741E+07
 0.45570000E+02 -0.79177E+06
 0.45619999E+02 -0.69848E+06
 0.45669998E+02 -0.75330E+06
 0.45720001E+02 -0.58435E+06
 0.45770000E+02 -0.31700E+06
 0.45820000E+02 -0.34735E+06
 0.45869999E+02 -0.43446E+06
 0.45919998E+02 -0.38239E+05
 0.45970001E+02  0.80772E+06
 0.46020000E+02  0.17435E+07
 0.46070000E+02  0.21945E+07
 0.46119999E+02  0.18390E+07
 0.46169998E+02  0.76180E+06
 0.46220001E+02 -0.49251E+06
 0.46270000E+02 -0.10184E+07
 0.46320000E+02 -0.72959E+06
 0.46369999E+02 -0.35856E+06
 0.46419998E+02 -0.38102E+06
 0.46470001E+02 -0.36568E+06
 0.46520000E+02  0.67954E+05
 0.46570000E+02  0.57220E+06
 0.46619999E+02  0.71548E+06
 0.46669998E+02  0.42106E+06
 0.46720001E+02 -0.15052E+06
 0.46770000E+02 -0.84512E+06
 0.46820000E+02 -0.13596E+07
 0.46869999E+02 -0.15934E+07
 0.46919998E+02 -0.14410E+07
 0.46970001E+02 -0.76112E+06
 0.47020000E+02  0.10902E+06
 0.47070000E+02  0.68754E+06
 0.47119999E+02  0.64466E+06
 0.47169998E+02  0.19548E+06
 0.47220001E+02  0.83109E+05
 0.47270000E+02  0.34900E+06
 0.47320000E+02  0.13448E+06
 0.47369999E+02 -0.60173E+06
 0.47419998E+02 -0.12348E+07
 0.47470001E+02 -0.14774E+07
 0.47520000E+02 -0.12456E+07
 0.47570000E+02 -0.86592E+06
 0.47619999E+02 -0.69679E+06
 0.47669998E+02 -0.76021E+06
 0.47720001E+02 -0.72872E+06
 0.47770000E+02 -0.31943E+06
 0.47820000E+02  0.16605E+06
 0.47869999E+02  0.33348E+06
 0.47919998E+02  0.28563E+06
 0.47970001E+02  0.27184E+06
 0.48020000E+02  0.23283E+06
 0.48070000E+02  0.25290E+06
 0.48119999E+02  0.36077E+06
 0.48169998E+02  0.27711E+06
 0.48220001E+02  0.15223E+06
 0.48270000E+02  0.29008E+06
 0.48320000E+02  0.61975E+06
 0.48369999E+02  0.96830E+06
 0.48419998E+02  0.11729E+07
 0.48470001E+02  0.11407E+07
 0.48520000E+02  0.91333E+06
 0.48570000E+02  0.48725E+06
 0.48619999E+02 -0.10860E+06
 0.48669998E+02 -0.66093E+06
 0.48720001E+02 -0.90079E+06
 0.48770000E+02 -0.78479E+06
 0.48820000E+02 -0.66194E+06
 0.48869999E+02 -0.83172E+06
 0.48919998E+02 -0.11926E+07
 0.48970001E+02 -0.13075E+07
 0.49020000E+02 -0.10922E+07
 0.49070000E+02 -0.10212E+07
 0.49119999E+02 -0.11538E+07
 0.49169998E+02 -0.10928E+07
 0.49220001E+02 -0.51330E+06
 0.49270000E+02  0.21173E+06
 0.49320000E+02  0.27057E+06
 0.49369999E+02 -0.21101E+06
 0.49419998E+02 -0.49708E+06
 0.49470001E+02 -0.42267E+06
 0.49520000E+02 -0.36775E+06
 0.49570000E+02 -0.70129E+06
 0.49619999E+02 -0.13840E+07
 0.49669998E+02 -0.18690E+07
 0.49720001E+02 -0.15699E+07
 0.49770000E+02 -0.45627E+06
 0.49820000E+02  0.91374E+06
 0.49869999E+02  0.19436E+07
 0.49919998E+02  0.23635E+07
 0.49970001E+02  0.22007E+07
 0.50020000E+02  0.17343E+07
 0.50070000E+02  0.13482E+07
 0.50119999E+02  0.11847E+07
 0.50169998E+02  0.10237E+07
 0.50220001E+02  0.68535E+06
 0.50270000E+02  0.27598E+06
 0.50320000E+02  0.30700E+03
 0.50369999E+02 -0.11701E+06
 0.50419998E+02 -0.20719E+06
 0.50470001E+02 -0.30472E+06
 0.50520000E+02 -0.18686E+06
 0.50570000E+02  0.17900E+06
 0.50619999E+02  0.61089E+06
 0.50669998E+02  0.11105E+07
 0.50720001E+02  0.13886E+07
 0.50770000E+02  0.11974E+07
 0.50820000E+02  0.84248E+06
 0.50869999E+02  0.61132E+06
 0.50919998E+02  0.49568E+06
 0.50970001E+02  0.49756E+06
 0.51020000E+02  0.63086E+06
 0.51070000E+02  0.79177E+06
 0.51119999E+02  0.79416E+06
 0.51169998E+02  0.50186E+06
 0.51220001E+02  0.22912E+06
 0.51270000E+02  0.22572E+06
 0.51320000E+02  0.20757E+06
 0.51369999E+02 -0.84108E+05
 0.51419998E+02 -0.54140E+06
 0.51470001E+02 -0.80802E+06
 0.51520000E+02 -0.72177E+06
 0.51570000E+02 -0.37911E+06
 0.51619999E+02 -0.57680E+05
 0.51669998E+02 -0.75447E+05
 0.51720001E+02 -0.31226E+06
 0.51770000E+02 -0.39003E+06
 0.51820000E+02 -0.65959E+05
 0.51869999E+02  0.56268E+06
 0.51919998E+02  0.11592E+07
 0.51970001E+02  0.15724E+07
 0.52020000E+02  0.17897E+07
 0.52070000E+02  0.18283E+07
 0.52119999E+02  0.16884E+07
 0.52169998E+02  0.14181E+07
 0.52220001E+02  0.11044E+07
 0.52270000E+02  0.74410E+06
 0.52320000E+02  0.49648E+06
 0.52369999E+02  0.51823E+06
 0.52419998E+02  0.82448E+06
 0.52470001E+02  0.13051E+07
 0.52520000E+02  0.17018E+07
 0.52570000E+02  0.19574E+07
 0.52619999E+02  0.20204E+07
 0.52669998E+02  0.18534E+07
 0.52720001E+02  0.16847E+07
 0.52770000E+02  0.15941E+07
 0.52820000E+02  0.14510E+07
 0.52869999E+02  0.12940E+07
 0.52919998E+02  0.13404E+07
 0.52970001E+02  0.17393E+07
 0.53020000E+02  0.24017E+07
 0.53070000E+02  0.29433E+07
 0.53119999E+02  0.30650E+07
 0.53169998E+02  0.27626E+07
 0.53220001E+02  0.22263E+07
 0.53270000E+02  0.16134E+07
 0.53320000E+02  0.85211E+06
 0.53369999E+02  0.60478E+05
 0.53419998E+02 -0.58485E+06
 0.53470001E+02 -0.10080E+07
 0.53520000E+02 -0.10650E+07
 0.53570000E+02 -0.80794E+06
 0.53619999E+02 -0.50368E+06
 0.53669998E+02 -0.26529E+06
 0.53720001E+02  0.16075E+06
 0.53770000E+02  0.69876E+06
 0.53820000E+02  0.82654E+06
 0.53869999E+02  0.46616E+06
 0.53919998E+02 -0.12298E+05
 0.53970001E+02 -0.30626E+06
 0.54020000E+02 -0.50420E+06
 0.54070000E+02 -0.80845E+06
 0.54119999E+02 -0.10548E+07
 0.54169998E+02 -0.10411E+07
 0.54220001E+02 -0.77790E+06
 0.54270000E+02 -0.39047E+06
 0.54320000E+02 -0.95216E+05
 0.54369999E+02 -0.76701E+05
 0.54419998E+02 -0.32208E+06
 0.54470001E+02 -0.59048E+06
 0.54520000E+02 -0.61913E+06
 0.54570000E+02 -0.33541E+06
 0.54619999E+02  0.44408E+05
 0.54669998E+02  0.24002E+06
 0.54720001E+02  0.26230E+06
 0.54770000E+02  0.28244E+06
 0.54820000E+02  0.35868E+06
 0.54869999E+02  0.44866E+06
 0.54919998E+02  0.41505E+06
 0.54970001E+02  0.14839E+06
 0.55020000E+02 -0.21018E+06
 0.55070000E+02 -0.41381E+06
 0.55119999E+02 -0.37064E+06
 0.55169998E+02 -0.18186E+06
 0.55220001E+02 -0.38428E+05
 0.55270000E+02  0.10233E+05
 0.55320000E+02  0.40569E+05
 0.55369999E+02  0.49760E+05
 0.55419998E+02  0.33007E+05
 0.55470001E+02 -0.50997E+05
 0.55520000E+02 -0.29937E+06
 0.55570000E+02 -0.70832E+06
 0.55619999E+02 -0.11173E+07
 0.55669998E+02 -0.13733E+07
 0.55720001E+02 -0.14996E+07
 0.55770000E+02 -0.15407E+07
 0.55820000E+02 -0.15314E+07
 0.55869999E+02 -0.14867E+07
 0.55919998E+02 -0.13660E+07
 0.55970001E+02 -0.11347E+07
 0.56020000E+02 -0.76725E+06
 0.56070000E+02 -0.26716E+06
 0.56119999E+02  0.27480E+06
 0.56169998E+02  0.58345E+06
 0.56220001E+02  0.48480E+06
 0.56270000E+02  0.10833E+06
 0.56320000E+02 -0.30256E+06
 0.56369999E+02 -0.54704E+06
 0.56419998E+02 -0.60826E+06
 0.56470001E+02 -0.58352E+06
 0.56520000E+02 -0.56513E+06
 0.56570000E+02 -0.64013E+06
 0.56619999E+02 -0.97325E+06
 0.56669998E+02 -0.15797E+07
 0.56720001E+02 -0.20683E+07
 0.56770000E+02 -0.20777E+07
 0.56820000E+02 -0.17098E+07
 0.56869999E+02 -0.13917E+07
 0.56919998E+02 -0.13245E+07
 0.56970001E+02 -0.12881E+07
 0.57020000E+02 -0.11079E+07
 0.57070000E+02 -0.92731E+06
 0.57119999E+02 -0.96940E+06
 0.57169998E+02 -0.12316E+07
 0.57220001E+02 -0.14979E+07
 0.57270000E+02 -0.16063E+07
 0.57320000E+02 -0.16140E+07
 0.57369999E+02 -0.16536E+07
 0.57419998E+02 -0.17405E+07
 0.57470001E+02 -0.17699E+07
 0.57520000E+02 -0.16458E+07
 0.57570000E+02 -0.13736E+07
 0.57619999E+02 -0.10472E+07
 0.57669998E+02 -0.84552E+06
 0.57720001E+02 -0.84876E+06
 0.57770000E+02 -0.97546E+06
 0.57820000E+02 -0.11007E+07
 0.57869999E+02 -0.11237E+07
 0.57919998E+02 -0.10711E+07
 0.57970001E+02 -0.10170E+07
 0.58020000E+02 -0.97175E+06
 0.58070000E+02 -0.87895E+06
 0.58119999E+02 -0.73468E+06
 0.58169998E+02 -0.64317E+06
 0.58220001E+02 -0.67517E+06
 0.58270000E+02 -0.78802E+06
 0.58320000E+02 -0.83821E+06
 0.58369999E+02 -0.75121E+06
 0.58419998E+02 -0.65439E+06
 0.58470001E+02 -0.62452E+06
 0.58520000E+02 -0.59546E+06
 0.58570000E+02 -0.52325E+06
 0.58619999E+02 -0.30707E+06
 0.58669998E+02  0.32278E+05
 0.58720001E+02  0.25987E+06
 0.58770000E+02  0.24614E+06
 0.58820000E+02  0.53406E+05
 0.58869999E+02 -0.17474E+06
 0.58919998E+02 -0.34700E+06
 0.58970001E+02 -0.40286E+06
 0.59020000E+02 -0.34533E+06
 0.59070000E+02 -0.27742E+06
 0.59119999E+02 -0.29804E+06
 0.59169998E+02 -0.41180E+06
 0.59220001E+02 -0.52818E+06
 0.59270000E+02 -0.63179E+06
 0.59320000E+02 -0.70836E+06
 0.59369999E+02 -0.72777E+06
 0.59419998E+02 -0.68152E+06
 0.59470001E+02 -0.57099E+06
 0.59520000E+02 -0.43521E+06
 0.59570000E+02 -0.21748E+06
 0.59619999E+02  0.94744E+05
 0.59669998E+02  0.46404E+06
 0.59720001E+02  0.86949E+06
 0.59770000E+02  0.12488E+07
 0.59820000E+02  0.15235E+07
 0.59869999E+02  0.15885E+07
 0.59919998E+02  0.14145E+07
 0.59970001E+02  0.10681E+07
 0.60020000E+02  0.65632E+06
 0.60070000E+02  0.21673E+06
 0.60119999E+02 -0.21094E+06
 0.60170002E+02 -0.50452E+06
 0.60219997E+02 -0.62445E+06
 0.60270000E+02 -0.61162E+06
 0.60320004E+02 -0.52972E+06
 0.60369999E+02 -0.41898E+06
 0.60420002E+02 -0.21780E+06
 0.60469997E+02  0.17275E+06
 0.60520000E+02  0.73994E+06
 0.60570004E+02  0.13915E+07
 0.60619999E+02  0.20122E+07
 0.60670002E+02  0.24648E+07
 0.60719997E+02  0.26413E+07
 0.60770000E+02  0.25330E+07
 0.60820004E+02  0.22712E+07
 0.60869999E+02  0.20330E+07
 0.60920002E+02  0.18541E+07
 0.60969997E+02  0.16103E+07
 0.61020000E+02  0.13294E+07
 0.61070004E+02  0.11489E+07
 0.61119999E+02  0.10767E+07
 0.61170002E+02  0.10407E+07
 0.61219997E+02  0.91644E+06
 0.61270000E+02  0.66554E+06
 0.61320004E+02  0.35697E+06
 0.61369999E+02  0.32722E+05
 0.61420002E+02 -0.29469E+06
 0.61469997E+02 -0.57314E+06
 0.61520000E+02 -0.71450E+06
 0.61570004E+02 -0.64707E+06
 0.61619999E+02 -0.32030E+06
 0.61670002E+02  0.18676E+06
 0.61719997E+02  0.68892E+06
 0.61770000E+02  0.11055E+07
 0.61820004E+02  0.14431E+07
 0.61869999E+02  0.16594E+07
 0.61920002E+02  0.16979E+07
 0.61969997E+02  0.15239E+07
 0.62020000E+02  0.11577E+07
 0.62070004E+02  0.73822E+06
 0.62119999E+02  0.40404E+06
 0.62170002E+02  0.18020E+06
 0.62219997E+02  0.18435E+05
 0.62270000E+02 -0.12836E+06
 0.62320004E+02 -0.23372E+06
 0.62369999E+02 -0.21794E+06
 0.62420002E+02 -0.91068E+05
 0.62469997E+02  0.71668E+05
 0.62520000E+02  0.17903E+06
 0.62570004E+02  0.10419E+06
 0.62619999E+02 -0.13927E+06
 0.62670002E+02 -0.47222E+06
 0.62719997E+02 -0.85588E+06
 0.62770000E+02 -0.11776E+07
 0.62820004E+02 -0.13473E+07
 0.62869999E+02 -0.13737E+07
 0.62920002E+02 -0.13203E+07
 0.62969997E+02 -0.12308E+07
 0.63020000E+02 -0.10950E+07
 0.63070004E+02 -0.91056E+06
 0.63119999E+02 -0.66586E+06
 0.63170002E+02 -0.30684E+06
 0.63219997E+02  0.13776E+06
 0.63270000E+02  0.55279E+06
 0.63320004E+02  0.88540E+06
 0.63369999E+02  0.11286E+07
 0.63420002E+02  0.12639E+07
 0.63469997E+02  0.12659E+07
 0.63520000E+02  0.11705E+07
 0.63570004E+02  0.10669E+07
 0.63619999E+02  0.99421E+06
 0.63670002E+02  0.89777E+06
 0.63719997E+02  0.72012E+06
 0.63770000E+02  0.48128E+06
 0.63820004E+02  0.20139E+06
 0.63869999E+02 -0.79500E+05
 0.63920002E+02 -0.35281E+06
 0.63969997E+02 -0.66916E+06
 0.64020004E+02 -0.10265E+07
 0.64070007E+02 -0.13756E+07
 0.64120003E+02 -0.16100E+07
 0.64170006E+02 -0.16613E+07
 0.64220001E+02 -0.15550E+07
 0.64270004E+02 -0.13605E+07
 0.64320007E+02 -0.11668E+07
 0.64370003E+02 -0.98520E+06
 0.64420006E+02 -0.79476E+06
 0.64470001E+02 -0.58139E+06
 0.64520004E+02 -0.33317E+06
 0.64570007E+02 -0.75120E+05
 0.64620003E+02  0.19475E+06
 0.64670006E+02  0.51054E+06
 0.64720001E+02  0.89696E+06
 0.64770004E+02  0.12869E+07
 0.64820007E+02  0.15630E+07
 0.64870003E+02  0.16873E+07
 0.64920006E+02  0.16778E+07
 0.64970001E+02  0.15825E+07
 0.65020004E+02  0.14345E+07
 0.65070007E+02  0.12569E+07
 0.65120003E+02  0.10562E+07
 0.65170006E+02  0.84488E+06
 0.65220001E+02  0.70705E+06
 0.65270004E+02  0.66572E+06
 0.65320007E+02  0.64661E+06
 0.65370003E+02  0.59786E+06
 0.65420006E+02  0.52637E+06
 0.65470001E+02  0.45179E+06
 0.65520004E+02  0.36993E+06
 0.65570007E+02  0.25605E+06
 0.65620003E+02  0.12342E+06
 0.65670006E+02  0.17138E+05
 0.65720001E+02 -0.32149E+05
 0.65770004E+02 -0.90370E+04
 0.65820007E+02  0.54869E+05
 0.65870003E+02  0.12270E+06
 0.65920006E+02  0.16434E+06
 0.65970001E+02  0.12823E+06
 0.66020004E+02 -0.34220E+04
 0.66070007E+02 -0.16212E+06
 0.66120003E+02 -0.26771E+06
 0.66170006E+02 -0.32982E+06
 0.66220001E+02 -0.37850E+06
 0.66270004E+02 -0.40809E+06
 0.66320007E+02 -0.43256E+06
 0.66370003E+02 -0.44972E+06
 0.66420006E+02 -0.43296E+06
 0.66470001E+02 -0.38368E+06
 0.66520004E+02 -0.30374E+06
 0.66570007E+02 -0.20981E+06
 0.66620003E+02 -0.83000E+05
 0.66670006E+02  0.12356E+06
 0.66720001E+02  0.38155E+06
 0.66770004E+02  0.61468E+06
 0.66820007E+02  0.77316E+06
 0.66870003E+02  0.88374E+06
 0.66920006E+02  0.10005E+07
 0.66970001E+02  0.11262E+07
 0.67020004E+02  0.11721E+07
 0.67070007E+02  0.10479E+07
 0.67120003E+02  0.77811E+06
 0.67170006E+02  0.42882E+06
 0.67220001E+02  0.27728E+05
 0.67270004E+02 -0.42117E+06
 0.67320007E+02 -0.90422E+06
 0.67370003E+02 -0.13625E+07
 0.67420006E+02 -0.17149E+07
 0.67470001E+02 -0.19594E+07
 0.67520004E+02 -0.21459E+07
 0.67570007E+02 -0.22954E+07
 0.67620003E+02 -0.23976E+07
 0.67670006E+02 -0.24232E+07
 0.67720001E+02 -0.23924E+07
 0.67770004E+02 -0.23225E+07
 0.67820007E+02 -0.21986E+07
 0.67870003E+02 -0.20449E+07
 0.67920006E+02 -0.18757E+07
 0.67970001E+02 -0.16737E+07
 0.68020004E+02 -0.14234E+07
 0.68070007E+02 -0.11472E+07
 0.68120003E+02 -0.84622E+06
 0.68170006E+02 -0.45547E+06
 0.68220001E+02  0.23622E+05
 0.68270004E+02  0.50336E+06
 0.68320007E+02  0.93033E+06
 0.68370003E+02  0.13110E+07
 0.68420006E+02  0.16454E+07
 0.68470001E+02  0.18569E+07
 0.68520004E+02  0.18408E+07
 0.68570007E+02  0.16093E+07
 0.68620003E+02  0.12974E+07
 0.68670006E+02  0.10175E+07
 0.68720001E+02  0.77814E+06
 0.68770004E+02  0.55317E+06
 0.68820007E+02  0.36673E+06
 0.68870003E+02  0.26770E+06
 0.68920006E+02  0.24706E+06
 0.68970001E+02  0.27119E+06
 0.69020004E+02  0.34339E+06
 0.69070007E+02  0.45904E+06
 0.69120003E+02  0.58432E+06
 0.69170006E+02  0.68295E+06
 0.69220001E+02  0.68900E+06
 0.69270004E+02  0.52418E+06
 0.69320007E+02  0.25311E+06
 0.69370003E+02  0.34170E+05
 0.69420006E+02 -0.68440E+05
 0.69470001E+02 -0.10307E+06
 0.69520004E+02 -0.14145E+06
 0.69570007E+02 -0.16662E+06
 0.69620003E+02 -0.12894E+06
 0.69670006E+02 -0.57240E+04
 0.69720001E+02  0.20444E+06
 0.69770004E+02  0.44528E+06
 0.69820007E+02  0.63435E+06
 0.69870003E+02  0.70929E+06
 0.69920006E+02  0.66541E+06
 0.69970001E+02  0.54658E+06
 0.70020004E+02  0.40853E+06
 0.70070007E+02  0.28024E+06
 0.70120003E+02  0.12418E+06
 0.70170006E+02 -0.81593E+05
 0.70220001E+02 -0.28608E+06
 0.70270004E+02 -0.43488E+06
 0.70320007E+02 -0.47791E+06
 0.70370003E+02 -0.39626E+06
 0.70420006E+02 -0.24282E+06
 0.70470001E+02 -0.91123E+05
 0.70520004E+02  0.13580E+05
 0.70570007E+02  0.86557E+05
 0.70620003E+02  0.15459E+06
 0.70670006E+02  0.20264E+06
 0.70720001E+02  0.21195E+06
 0.70770004E+02  0.18449E+06
 0.70820007E+02  0.11865E+06
 0.70870003E+02  0.35151E+05
 0.70920006E+02  0.70660E+04
 0.70970001E+02  0.75413E+05
 0.71020004E+02  0.17869E+06
 0.71070007E+02  0.22193E+06
 0.71120003E+02  0.19583E+06
 0.71170006E+02  0.14224E+06
 0.71220001E+02  0.78552E+05
 0.71270004E+02  0.89300E+04
 0.71320007E+02 -0.68502E+05
 0.71370003E+02 -0.16341E+06
 0.71420006E+02 -0.29172E+06
 0.71470001E+02 -0.42497E+06
 0.71520004E+02 -0.50940E+06
 0.71570007E+02 -0.51229E+06
 0.71620003E+02 -0.43699E+06
 0.71670006E+02 -0.33781E+06
 0.71720001E+02 -0.22713E+06
 0.71770004E+02 -0.10462E+06
 0.71820007E+02 -0.45340E+04
 0.71870003E+02  0.73521E+05
 0.71920006E+02  0.14392E+06
 0.71970001E+02  0.21313E+06
 0.72020004E+02  0.26734E+06
 0.72070007E+02  0.28040E+06
 0.72120003E+02  0.25145E+06
 0.72170006E+02  0.23608E+06
 0.72220001E+02  0.28786E+06
 0.72270004E+02  0.37192E+06
 0.72320007E+02  0.42378E+06
 0.72370003E+02  0.39172E+06
 0.72420006E+02  0.26137E+06
 0.72470001E+02  0.67527E+05
 0.72520004E+02 -0.16212E+06
 0.72570007E+02 -0.41620E+06
 0.72620003E+02 -0.68324E+06
 0.72670006E+02 -0.91613E+06
 0.72720001E+02 -0.10306E+07
 0.72770004E+02 -0.98858E+06
 0.72820007E+02 -0.84382E+06
 0.72870003E+02 -0.69014E+06
 0.72920006E+02 -0.57741E+06
 0.72970001E+02 -0.51889E+06
 0.73020004E+02 -0.51292E+06
 0.73070007E+02 -0.54344E+06
 0.73120003E+02 -0.59653E+06
 0.73170006E+02 -0.63688E+06
 0.73220001E+02 -0.62794E+06
 0.73270004E+02 -0.54764E+06
 0.73320007E+02 -0.40340E+06
 0.73370003E+02 -0.22779E+06
 0.73420006E+02 -0.40535E+05
 0.73470001E+02  0.13031E+06
 0.73520004E+02  0.27320E+06
 0.73570007E+02  0.39652E+06
 0.73620003E+02  0.50805E+06
 0.73670006E+02  0.60365E+06
 0.73720001E+02  0.64011E+06
 0.73770004E+02  0.58059E+06
 0.73820007E+02  0.44212E+06
 0.73870003E+02  0.29710E+06
 0.73920006E+02  0.21089E+06
 0.73970001E+02  0.19736E+06
 0.74020004E+02  0.23849E+06
 0.74070007E+02  0.31452E+06
 0.74120003E+02  0.41611E+06
 0.74170006E+02  0.51641E+06
 0.74220001E+02  0.59721E+06
 0.74270004E+02  0.66796E+06
 0.74320007E+02  0.72483E+06
 0.74370003E+02  0.71470E+06
 0.74420006E+02  0.59633E+06
 0.74470001E+02  0.41129E+06
 0.74520004E+02  0.23052E+06
 0.74570007E+02  0.92659E+05
 0.74620003E+02 -0.12776E+05
 0.74670006E+02 -0.88841E+05
 0.74720001E+02 -0.12977E+06
 0.74770004E+02 -0.14945E+06
 0.74820007E+02 -0.13451E+06
 0.74870003E+02 -0.64618E+05
 0.74920006E+02  0.58383E+05
 0.74970001E+02  0.19049E+06
 0.75020004E+02  0.28929E+06
 0.75070007E+02  0.35253E+06
 0.75120003E+02  0.37076E+06
 0.75170006E+02  0.34976E+06
 0.75220001E+02  0.29337E+06
 0.75270004E+02  0.19194E+06
 0.75320007E+02  0.45891E+05
 0.75370003E+02 -0.13897E+06
 0.75420006E+02 -0.34836E+06
 0.75470001E+02 -0.58318E+06
 0.75520004E+02 -0.84174E+06
 0.75570007E+02 -0.10964E+07
 0.75620003E+02 -0.12876E+07
 0.75670006E+02 -0.13706E+07
 0.75720001E+02 -0.13602E+07
 0.75770004E+02 -0.12870E+07
 0.75820007E+02 -0.11787E+07
 0.75870003E+02 -0.10471E+07
 0.75920006E+02 -0.90817E+06
 0.75970001E+02 -0.78183E+06
 0.76020004E+02 -0.65269E+06
 0.76070007E+02 -0.52172E+06
 0.76120003E+02 -0.42016E+06
 0.76170006E+02 -0.34857E+06
 0.76220001E+02 -0.27491E+06
 0.76270004E+02 -0.20617E+06
 0.76320007E+02 -0.18623E+06
 0.76370003E+02 -0.21262E+06
 0.76420006E+02 -0.24014E+06
 0.76470001E+02 -0.22830E+06
 0.76520004E+02 -0.16433E+06
 0.76570007E+02 -0.58894E+05
 0.76620003E+02  0.82703E+05
 0.76670006E+02  0.24646E+06
 0.76720001E+02  0.41090E+06
 0.76770004E+02  0.57581E+06
 0.76820007E+02  0.73178E+06
 0.76870003E+02  0.84722E+06
 0.76920006E+02  0.91438E+06
 0.76970001E+02  0.95797E+06
 0.77020004E+02  0.99786E+06
 0.77070007E+02  0.10378E+07
 0.77120003E+02  0.10703E+07
 0.77170006E+02  0.10886E+07
 0.77220001E+02  0.10939E+07
 0.77270004E+02  0.10906E+07
 0.77320007E+02  0.10913E+07
 0.77370003E+02  0.10918E+07
 0.77420006E+02  0.10683E+07
 0.77470001E+02  0.10152E+07
 0.77520004E+02  0.93009E+06
 0.77570007E+02  0.79734E+06
 0.77620003E+02  0.63039E+06
 0.77670006E+02  0.45978E+06
 0.77720001E+02  0.28322E+06
 0.77770004E+02  0.76003E+05
 0.77820007E+02 -0.16973E+06
 0.77870003E+02 -0.42216E+06
 0.77920006E+02 -0.64613E+06
 0.77970001E+02 -0.82740E+06
 0.78020004E+02 -0.96250E+06
 0.78070007E+02 -0.10632E+07
 0.78120003E+02 -0.11306E+07
 0.78170006E+02 -0.11375E+07
 0.78220001E+02 -0.10518E+07
 0.78270004E+02 -0.88498E+06
 0.78320007E+02 -0.69478E+06
 0.78370003E+02 -0.52619E+06
 0.78420006E+02 -0.37609E+06
 0.78470001E+02 -0.23310E+06
 0.78520004E+02 -0.11162E+06
 0.78570007E+02 -0.15920E+05
 0.78620003E+02  0.53891E+05
 0.78670006E+02  0.90958E+05
 0.78720001E+02  0.91069E+05
 0.78770004E+02  0.57414E+05
 0.78820007E+02  0.10845E+05
 0.78870003E+02 -0.38172E+05
 0.78920006E+02 -0.84972E+05
 0.78970001E+02 -0.10105E+06
 0.79020004E+02 -0.69438E+05
 0.79070007E+02 -0.29911E+05
 0.79120003E+02 -0.31523E+05
 0.79170006E+02 -0.68097E+05
 0.79220001E+02 -0.10659E+06
 0.79270004E+02 -0.15012E+06
 0.79320007E+02 -0.21901E+06
 0.79370003E+02 -0.29792E+06
 0.79420006E+02 -0.36572E+06
 0.79470001E+02 -0.42482E+06
 0.79520004E+02 -0.46675E+06
 0.79570007E+02 -0.45716E+06
 0.79620003E+02 -0.37734E+06
 0.79670006E+02 -0.24595E+06
 0.79720001E+02 -0.10244E+06
 0.79770004E+02  0.27812E+05
 0.79820007E+02  0.16165E+06
 0.79870003E+02  0.30144E+06
 0.79920006E+02  0.40751E+06
 0.79970001E+02  0.45800E+06
 0.80020004E+02  0.46636E+06
 0.80070007E+02  0.43812E+06
 0.80120003E+02  0.35873E+06
 0.80170006E+02  0.24423E+06
 0.80220001E+02  0.12794E+06
 0.80270004E+02  0.25226E+05
 0.80320007E+02 -0.49175E+05
 0.80370003E+02 -0.83442E+05
 0.80420006E+02 -0.87902E+05
 0.80470001E+02 -0.94592E+05
 0.80520004E+02 -0.10918E+06
 0.80570007E+02 -0.10562E+06
 0.80620003E+02 -0.70761E+05
 0.80670006E+02 -0.10091E+05
 0.80720001E+02  0.72266E+05
 0.80770004E+02  0.17039E+06
 0.80820007E+02  0.26556E+06
 0.80870003E+02  0.33866E+06
 0.80920006E+02  0.36743E+06
 0.80970001E+02  0.34291E+06
 0.81020004E+02  0.27638E+06
 0.81070007E+02  0.18015E+06
 0.81120003E+02  0.60532E+05
 0.81170006E+02 -0.71520E+05
 0.81220001E+02 -0.17633E+06
 0.81270004E+02 -0.20735E+06
 0.81320007E+02 -0.14352E+06
 0.81370003E+02 -0.90440E+04
 0.81420006E+02  0.15013E+06
 0.81470001E+02  0.32106E+06
 0.81520004E+02  0.49996E+06
 0.81570007E+02  0.65364E+06
 0.81620003E+02  0.75149E+06
 0.81670006E+02  0.79225E+06
 0.81720001E+02  0.78984E+06
 0.81770004E+02  0.75594E+06
 0.81820007E+02  0.68480E+06
 0.81870003E+02  0.56914E+06
 0.81920006E+02  0.41261E+06
 0.81970001E+02  0.23055E+06
 0.82020004E+02  0.70780E+05
 0.82070007E+02 -0.18613E+05
 0.82120003E+02 -0.35085E+05
 0.82170006E+02 -0.21978E+05
 0.82220001E+02 -0.31857E+05
 0.82270004E+02 -0.82331E+05
 0.82320007E+02 -0.15343E+06
 0.82370003E+02 -0.20994E+06
 0.82420006E+02 -0.24325E+06
 0.82470001E+02 -0.27363E+06
 0.82520004E+02 -0.30273E+06
 0.82570007E+02 -0.31472E+06
 0.82620003E+02 -0.31227E+06
 0.82670006E+02 -0.30078E+06
 0.82720001E+02 -0.27531E+06
 0.82770004E+02 -0.25178E+06
 0.82820007E+02 -0.24651E+06
 0.82870003E+02 -0.25087E+06
 0.82920006E+02 -0.24515E+06
 0.82970001E+02 -0.21823E+06
 0.83020004E+02 -0.17060E+06
 0.83070007E+02 -0.98230E+05
 0.83120003E+02 -0.14651E+05
 0.83170006E+02  0.51830E+05
 0.83220001E+02  0.85932E+05
 0.83270004E+02  0.83149E+05
 0.83320007E+02  0.48102E+05
 0.83370003E+02  0.38500E+03
 0.83420006E+02 -0.37854E+05
 0.83470001E+02 -0.75423E+05
 0.83520004E+02 -0.12006E+06
 0.83570007E+02 -0.14738E+06
 0.83620003E+02 -0.13704E+06
 0.83670006E+02 -0.91708E+05
 0.83720001E+02 -0.22763E+05
 0.83770004E+02  0.64389E+05
 0.83820007E+02  0.14894E+06
 0.83870003E+02  0.19173E+06
 0.83920006E+02  0.17469E+06
 0.83970001E+02  0.12876E+06
 0.84020004E+02  0.86053E+05
 0.84070007E+02  0.31196E+05
 0.84120003E+02 -0.38734E+05
 0.84170006E+02 -0.97664E+05
 0.84220001E+02 -0.12857E+06
 0.84270004E+02 -0.13224E+06
 0.84320007E+02 -0.11164E+06
 0.84370003E+02 -0.57235E+05
 0.84420006E+02  0.14759E+05
 0.84470001E+02  0.83501E+05
 0.84520004E+02  0.15912E+06
 0.84570007E+02  0.24574E+06
 0.84620003E+02  0.32448E+06
 0.84670006E+02  0.37344E+06
 0.84720001E+02  0.39306E+06
 0.84770004E+02  0.38336E+06
 0.84820007E+02  0.33448E+06
 0.84870003E+02  0.24795E+06
 0.84920006E+02  0.12697E+06
 0.84970001E+02 -0.12760E+05
 0.85020004E+02 -0.13479E+06
 0.85070007E+02 -0.20759E+06
 0.85120003E+02 -0.22373E+06
 0.85170006E+02 -0.19158E+06
 0.85220001E+02 -0.12331E+06
 0.85270004E+02 -0.34255E+05
 0.85320007E+02  0.56274E+05
 0.85370003E+02  0.12621E+06
 0.85420006E+02  0.15931E+06
 0.85470001E+02  0.15196E+06
 0.85520004E+02  0.12078E+06
 0.85570007E+02  0.83157E+05
 0.85620003E+02  0.43520E+05
 0.85670006E+02  0.93870E+04
 0.85720001E+02 -0.17149E+05
 0.85770004E+02 -0.43338E+05
 0.85820007E+02 -0.80601E+05
 0.85870003E+02 -0.12509E+06
 0.85920006E+02 -0.15603E+06
 0.85970001E+02 -0.18609E+06
 0.86020004E+02 -0.25309E+06
 0.86070007E+02 -0.36769E+06
 0.86120003E+02 -0.49913E+06
 0.86170006E+02 -0.59734E+06
 0.86220001E+02 -0.64283E+06
 0.86270004E+02 -0.66085E+06
 0.86320007E+02 -0.68756E+06
 0.86370003E+02 -0.72854E+06
 0.86420006E+02 -0.76120E+06
 0.86470001E+02 -0.76885E+06
 0.86520004E+02 -0.74223E+06
 0.86570007E+02 -0.68858E+06
 0.86620003E+02 -0.61831E+06
 0.86670006E+02 -0.52624E+06
 0.86720001E+02 -0.40162E+06
 0.86770004E+02 -0.23556E+06
 0.86820007E+02 -0.38788E+05
 0.86870003E+02  0.17049E+06
 0.86920006E+02  0.36537E+06
 0.86970001E+02  0.51441E+06
 0.87020004E+02  0.59351E+06
 0.87070007E+02  0.58505E+06
 0.87120003E+02  0.50617E+06
 0.87170006E+02  0.38302E+06
 0.87220001E+02  0.23127E+06
 0.87270004E+02  0.71406E+05
 0.87320007E+02 -0.69984E+05
 0.87370003E+02 -0.16010E+06
 0.87420006E+02 -0.18171E+06
 0.87470001E+02 -0.13534E+06
 0.87520004E+02 -0.52487E+05
 0.87570007E+02  0.30998E+05
 0.87620003E+02  0.11456E+06
 0.87670006E+02  0.18911E+06
 0.87720001E+02  0.23611E+06
 0.87770004E+02  0.25672E+06
 0.87820007E+02  0.26818E+06
 0.87870003E+02  0.26075E+06
 0.87920006E+02  0.18841E+06
 0.87970001E+02  0.45373E+05
 0.88020004E+02 -0.12371E+06
 0.88070007E+02 -0.28446E+06
 0.88120003E+02 -0.42798E+06
 0.88170006E+02 -0.54504E+06
 0.88220001E+02 -0.62263E+06
 0.88270004E+02 -0.65066E+06
 0.88320007E+02 -0.62821E+06
 0.88370003E+02 -0.56084E+06
 0.88420006E+02 -0.44924E+06
 0.88470001E+02 -0.30150E+06
 0.88520004E+02 -0.13973E+06
 0.88570007E+02  0.12366E+05
 0.88620003E+02  0.14499E+06
 0.88670006E+02  0.25215E+06
 0.88720001E+02  0.32920E+06
 0.88770004E+02  0.37671E+06
 0.88820007E+02  0.38912E+06
 0.88870003E+02  0.36686E+06
 0.88920006E+02  0.31414E+06
 0.88970001E+02  0.23776E+06
 0.89020004E+02  0.15862E+06
 0.89070007E+02  0.96681E+05
 0.89120003E+02  0.62029E+05
 0.89170006E+02  0.55627E+05
 0.89220001E+02  0.67236E+05
 0.89270004E+02  0.84331E+05
 0.89320007E+02  0.99765E+05
 0.89370003E+02  0.11394E+06
 0.89420006E+02  0.13124E+06
 0.89470001E+02  0.14748E+06
 0.89520004E+02  0.16310E+06
 0.89570007E+02  0.18912E+06
 0.89620003E+02  0.22220E+06
 0.89670006E+02  0.24439E+06
 0.89720001E+02  0.24455E+06
 0.89770004E+02  0.22880E+06
 0.89820007E+02  0.20994E+06
 0.89870003E+02  0.19742E+06
 0.89920006E+02  0.19391E+06
 0.89970001E+02  0.20113E+06
 0.90020004E+02  0.22448E+06
 0.90070007E+02  0.26666E+06
 0.90120003E+02  0.32880E+06
 0.90170006E+02  0.39813E+06
 0.90220001E+02  0.45712E+06
 0.90270004E+02  0.49800E+06
 0.90320007E+02  0.52002E+06
 0.90370003E+02  0.53056E+06
 0.90420006E+02  0.53109E+06
 0.90470001E+02  0.52627E+06
 0.90520004E+02  0.51383E+06
 0.90570007E+02  0.47526E+06
 0.90620003E+02  0.40632E+06
 0.90670006E+02  0.31930E+06
 0.90720001E+02  0.23753E+06
 0.90770004E+02  0.17596E+06
 0.90820007E+02  0.13250E+06
 0.90870003E+02  0.10562E+06
 0.90920006E+02  0.91202E+05
 0.90970001E+02  0.82974E+05
 0.91020004E+02  0.71912E+05
 0.91070007E+02  0.45576E+05
 0.91120003E+02  0.35270E+04
 0.91170006E+02 -0.39717E+05
 0.91220001E+02 -0.74957E+05
 0.91270004E+02 -0.10754E+06
 0.91320007E+02 -0.14298E+06
 0.91370003E+02 -0.18242E+06
 0.91420006E+02 -0.22157E+06
 0.91470001E+02 -0.24435E+06
 0.91520004E+02 -0.23693E+06
 0.91570007E+02 -0.20185E+06
 0.91620003E+02 -0.15442E+06
 0.91670006E+02 -0.11674E+06
 0.91720001E+02 -0.98804E+05
 0.91770004E+02 -0.88691E+05
 0.91820007E+02 -0.75713E+05
 0.91870003E+02 -0.66114E+05
 0.91920006E+02 -0.73844E+05
 0.91970001E+02 -0.11100E+06
 0.92020004E+02 -0.17488E+06
 0.92070007E+02 -0.24562E+06
 0.92120003E+02 -0.30191E+06
 0.92170006E+02 -0.33640E+06
 0.92220001E+02 -0.36202E+06
 0.92270004E+02 -0.38617E+06
 0.92320007E+02 -0.40406E+06
 0.92370003E+02 -0.41412E+06
 0.92420006E+02 -0.40843E+06
 0.92470001E+02 -0.37594E+06
 0.92520004E+02 -0.31768E+06
 0.92570007E+02 -0.24781E+06
 0.92620003E+02 -0.16979E+06
 0.92670006E+02 -0.83117E+05
 0.92720001E+02 -0.84220E+04
 0.92770004E+02  0.47296E+05
 0.92820007E+02  0.10272E+06
 0.92870003E+02  0.16510E+06
 0.92920006E+02  0.21432E+06
 0.92970001E+02  0.23517E+06
 0.93020004E+02  0.25008E+06
 0.93070007E+02  0.28624E+06
 0.93120003E+02  0.33458E+06
 0.93170006E+02  0.36226E+06
 0.93220001E+02  0.35384E+06
 0.93270004E+02  0.31960E+06
 0.93320007E+02  0.27303E+06
 0.93370003E+02  0.21797E+06
 0.93420006E+02  0.15374E+06
 0.93470001E+02  0.87134E+05
 0.93520004E+02  0.30857E+05
 0.93570007E+02  0.42450E+04
 0.93620003E+02  0.16818E+05
 0.93670006E+02  0.45188E+05
 0.93720001E+02  0.58467E+05
 0.93770004E+02  0.54428E+05
 0.93820007E+02  0.46533E+05
 0.93870003E+02  0.41730E+05
 0.93920006E+02  0.45568E+05
 0.93970001E+02  0.56779E+05
 0.94020004E+02  0.60500E+05
 0.94070007E+02  0.42871E+05
 0.94120003E+02  0.14878E+05
 0.94170006E+02 -0.73960E+04
 0.94220001E+02 -0.30540E+05
 0.94270004E+02 -0.59796E+05
 0.94320007E+02 -0.93920E+05
 0.94370003E+02 -0.13132E+06
 0.94420006E+02 -0.16174E+06
 0.94470001E+02 -0.17675E+06
 0.94520004E+02 -0.19129E+06
 0.94570007E+02 -0.22163E+06
 0.94620003E+02 -0.24995E+06
 0.94670006E+02 -0.26490E+06
 0.94720001E+02 -0.28672E+06
 0.94770004E+02 -0.32378E+06
 0.94820007E+02 -0.36996E+06
 0.94870003E+02 -0.42033E+06
 0.94920006E+02 -0.45977E+06
 0.94970001E+02 -0.47802E+06
 0.95020004E+02 -0.48024E+06
 0.95070007E+02 -0.47703E+06
 0.95120003E+02 -0.47782E+06
 0.95170006E+02 -0.48314E+06
 0.95220001E+02 -0.49011E+06
 0.95270004E+02 -0.48922E+06
 0.95320007E+02 -0.46834E+06
 0.95370003E+02 -0.42988E+06
 0.95420006E+02 -0.38019E+06
 0.95470001E+02 -0.32183E+06
 0.95520004E+02 -0.25237E+06
 0.95570007E+02 -0.16595E+06
 0.95620003E+02 -0.71971E+05
 0.95670006E+02  0.11926E+05
 0.95720001E+02  0.82576E+05
 0.95770004E+02  0.14352E+06
 0.95820007E+02  0.19133E+06
 0.95870003E+02  0.23213E+06
 0.95920006E+02  0.29600E+06
 0.95970001E+02  0.39269E+06
 0.96020004E+02  0.48784E+06
 0.96070007E+02  0.54589E+06
 0.96120003E+02  0.55515E+06
 0.96170006E+02  0.52857E+06
 0.96220001E+02  0.48940E+06
 0.96270004E+02  0.45920E+06
 0.96320007E+02  0.45060E+06
 0.96370003E+02  0.46230E+06
 0.96420006E+02  0.48548E+06
 0.96470001E+02  0.49705E+06
 0.96520004E+02  0.47778E+06
 0.96570007E+02  0.43638E+06
 0.96620003E+02  0.39317E+06
 0.96670006E+02  0.35105E+06
 0.96720001E+02  0.29100E+06
 0.96770004E+02  0.19352E+06
 0.96820007E+02  0.57294E+05
 0.96870003E+02 -0.91768E+05
 0.96920006E+02 -0.22097E+06
 0.96970001E+02 -0.32372E+06
 0.97020004E+02 -0.41631E+06
 0.97070007E+02 -0.49893E+06
 0.97120003E+02 -0.54769E+06
 0.97170006E+02 -0.56008E+06
 0.97220001E+02 -0.55320E+06
 0.97270004E+02 -0.52617E+06
 0.97320007E+02 -0.47131E+06
 0.97370003E+02 -0.39807E+06
 0.97420006E+02 -0.31171E+06
 0.97470001E+02 -0.20970E+06
 0.97520004E+02 -0.11967E+06
 0.97570007E+02 -0.68645E+05
 0.97620003E+02 -0.47583E+05
 0.97670006E+02 -0.38884E+05
 0.97720001E+02 -0.37962E+05
 0.97770004E+02 -0.57557E+05
 0.97820007E+02 -0.10385E+06
 0.97870003E+02 -0.15577E+06
 0.97920006E+02 -0.18471E+06
 0.97970001E+02 -0.18222E+06
 0.98020004E+02 -0.15416E+06
 0.98070007E+02 -0.10608E+06
 0.98120003E+02 -0.55782E+05
 0.98170006E+02 -0.29396E+05
 0.98220001E+02 -0.30634E+05
 0.98270004E+02 -0.43664E+05
 0.98320007E+02 -0.70986E+05
 0.98370003E+02 -0.12169E+06
 0.98420006E+02 -0.17793E+06
 0.98470001E+02 -0.22060E+06
 0.98520004E+02 -0.24836E+06
 0.98570007E+02 -0.25219E+06
 0.98620003E+02 -0.21816E+06
 0.98670006E+02 -0.14706E+06
 0.98720001E+02 -0.48490E+05
 0.98770004E+02  0.56715E+05
 0.98820007E+02  0.14118E+06
 0.98870003E+02  0.19445E+06
 0.98920006E+02  0.22902E+06
 0.98970001E+02  0.26033E+06
 0.99020004E+02  0.28298E+06
 0.99070007E+02  0.29105E+06
 0.99120003E+02  0.29280E+06
 0.99170006E+02  0.28778E+06
 0.99220001E+02  0.27726E+06
 0.99270004E+02  0.27379E+06
 0.99320007E+02  0.28572E+06
 0.99370003E+02  0.30237E+06
 0.99420006E+02  0.30643E+06
 0.99470001E+02  0.30201E+06
 0.99520004E+02  0.29376E+06
 0.99570007E+02  0.28001E+06
 0.99620003E+02  0.26316E+06
 0.99670006E+02  0.24087E+06
 0.99720001E+02  0.21175E+06
 0.99770004E+02  0.17576E+06
 0.99820007E+02  0.13679E+06
 0.99870003E+02  0.89145E+05
 0.99920006E+02  0.13475E+05
 0.99970001E+02 -0.92404E+05
 0.10002000E+03 -0.21245E+06
 0.10007001E+03 -0.32729E+06
 0.10012000E+03 -0.42030E+06
 0.10017001E+03 -0.47215E+06
 0.10022000E+03 -0.46762E+06
 0.10027000E+03 -0.42108E+06
 0.10032001E+03 -0.36332E+06
 0.10037000E+03 -0.31437E+06
 0.10042001E+03 -0.28058E+06
 0.10047000E+03 -0.25638E+06
 0.10052000E+03 -0.21808E+06
 0.10057001E+03 -0.14749E+06
 0.10062000E+03 -0.75341E+05
 0.10067001E+03 -0.40168E+05
 0.10072000E+03 -0.29826E+05
 0.10077000E+03 -0.15352E+05
 0.10082001E+03  0.83790E+04
 0.10087000E+03  0.31627E+05
 0.10092001E+03  0.42960E+05
 0.10097000E+03  0.31261E+05
 0.10102000E+03 -0.86360E+04
 0.10107001E+03 -0.63513E+05
 0.10112000E+03 -0.10119E+06
 0.10117001E+03 -0.98748E+05
 0.10122000E+03 -0.54787E+05
 0.10127000E+03  0.29933E+05
 0.10132001E+03  0.15382E+06
 0.10137000E+03  0.30353E+06
 0.10142001E+03  0.45346E+06
 0.10147000E+03  0.58970E+06
 0.10152000E+03  0.71847E+06
 0.10157001E+03  0.82522E+06
 0.10162000E+03  0.88754E+06
 0.10167001E+03  0.91878E+06
 0.10172000E+03  0.93961E+06
 0.10177000E+03  0.94182E+06
 0.10182001E+03  0.90735E+06
 0.10187000E+03  0.84787E+06
 0.10192001E+03  0.78994E+06
 0.10197000E+03  0.73061E+06
 0.10202000E+03  0.65295E+06
 0.10207001E+03  0.55968E+06
 0.10212000E+03  0.45884E+06
 0.10217001E+03  0.34153E+06
 0.10222000E+03  0.19822E+06
 0.10227000E+03  0.45837E+05
 0.10232001E+03 -0.95105E+05
 0.10237000E+03 -0.22037E+06
 0.10242001E+03 -0.32136E+06
 0.10247000E+03 -0.38483E+06
 0.10252000E+03 -0.40514E+06
 0.10257001E+03 -0.39496E+06
 0.10262000E+03 -0.37024E+06
 0.10267001E+03 -0.34173E+06
 0.10272000E+03 -0.32141E+06
 0.10277000E+03 -0.29646E+06
 0.10282001E+03 -0.24346E+06
 0.10287000E+03 -0.16786E+06
 0.10292001E+03 -0.96117E+05
 0.10297000E+03 -0.43762E+05
 0.10302000E+03 -0.11960E+05
 0.10307001E+03 -0.20040E+04
 0.10312000E+03 -0.10419E+05
 0.10317001E+03 -0.24005E+05
 0.10322000E+03 -0.42579E+05
 0.10327000E+03 -0.86245E+05
 0.10332001E+03 -0.14697E+06
 0.10337000E+03 -0.20069E+06
 0.10342001E+03 -0.25198E+06
 0.10347000E+03 -0.30322E+06
 0.10352000E+03 -0.33529E+06
 0.10357001E+03 -0.33472E+06
 0.10362000E+03 -0.31868E+06
 0.10367001E+03 -0.30964E+06
 0.10372000E+03 -0.31093E+06
 0.10377000E+03 -0.31345E+06
 0.10382001E+03 -0.30156E+06
 0.10387000E+03 -0.28048E+06
 0.10392001E+03 -0.25449E+06
 0.10397000E+03 -0.20323E+06
 0.10402000E+03 -0.12460E+06
 0.10407001E+03 -0.43295E+05
 0.10412000E+03  0.22153E+05
 0.10417001E+03  0.73861E+05
 0.10422000E+03  0.11159E+06
 0.10427000E+03  0.12940E+06
 0.10432001E+03  0.13639E+06
 0.10437000E+03  0.13908E+06
 0.10442001E+03  0.13106E+06
 0.10447000E+03  0.11064E+06
 0.10452000E+03  0.92092E+05
 0.10457001E+03  0.97192E+05
 0.10462000E+03  0.12953E+06
 0.10467001E+03  0.17388E+06
 0.10472000E+03  0.21209E+06
 0.10477000E+03  0.22832E+06
 0.10482001E+03  0.21556E+06
 0.10487000E+03  0.18289E+06
 0.10492001E+03  0.14206E+06
 0.10497000E+03  0.92800E+05
 0.10502000E+03  0.38306E+05
 0.10507001E+03 -0.17991E+05
 0.10512000E+03 -0.81132E+05
 0.10517001E+03 -0.14760E+06
 0.10522000E+03 -0.20634E+06
 0.10527000E+03 -0.25285E+06
 0.10532001E+03 -0.28533E+06
 0.10537000E+03 -0.28355E+06
 0.10542001E+03 -0.23437E+06
 0.10547000E+03 -0.16459E+06
 0.10552000E+03 -0.96564E+05
 0.10557001E+03 -0.30811E+05
 0.10562000E+03  0.25108E+05
 0.10567001E+03  0.58620E+05
 0.10572000E+03  0.68233E+05
 0.10577000E+03  0.63709E+05
 0.10582001E+03  0.49248E+05
 0.10587000E+03  0.22260E+05
 0.10592001E+03 -0.20933E+05
 0.10597000E+03 -0.76541E+05
 0.10602000E+03 -0.12889E+06
 0.10607001E+03 -0.17081E+06
 0.10612000E+03 -0.20366E+06
 0.10617001E+03 -0.22846E+06
 0.10622000E+03 -0.24798E+06
 0.10627000E+03 -0.26196E+06
 0.10632001E+03 -0.26350E+06
 0.10637000E+03 -0.24528E+06
 0.10642001E+03 -0.21381E+06
 0.10647000E+03 -0.18701E+06
 0.10652000E+03 -0.17409E+06
 0.10657001E+03 -0.17139E+06
 0.10662000E+03 -0.16958E+06
 0.10667001E+03 -0.16520E+06
 0.10672000E+03 -0.16653E+06
 0.10677000E+03 -0.17252E+06
 0.10682001E+03 -0.17178E+06
 0.10687000E+03 -0.15864E+06
 0.10692001E+03 -0.12799E+06
 0.10697000E+03 -0.83028E+05
 0.10702000E+03 -0.44626E+05
 0.10707001E+03 -0.25107E+05
 0.10712000E+03 -0.92250E+04
 0.10717001E+03  0.25639E+05
 0.10722000E+03  0.81092E+05
 0.10727000E+03  0.14057E+06
 0.10732001E+03  0.19302E+06
 0.10737000E+03  0.22742E+06
 0.10742001E+03  0.23210E+06
 0.10747000E+03  0.21117E+06
 0.10752000E+03  0.17154E+06
 0.10757001E+03  0.10885E+06
 0.10762000E+03  0.21222E+05
 0.10767001E+03 -0.81672E+05
 0.10772000E+03 -0.18583E+06
 0.10777000E+03 -0.27313E+06
 0.10782001E+03 -0.32956E+06
 0.10787000E+03 -0.35222E+06
 0.10792001E+03 -0.34334E+06
 0.10797000E+03 -0.31050E+06
 0.10802000E+03 -0.25915E+06
 0.10807001E+03 -0.19149E+06
 0.10812000E+03 -0.11837E+06
 0.10817001E+03 -0.50506E+05
 0.10822000E+03  0.91110E+04
 0.10827000E+03  0.56467E+05
 0.10832001E+03  0.89140E+05
 0.10837000E+03  0.11051E+06
 0.10842001E+03  0.12741E+06
 0.10847000E+03  0.14664E+06
 0.10852000E+03  0.16694E+06
 0.10857001E+03  0.17860E+06
 0.10862000E+03  0.17730E+06
 0.10867001E+03  0.17469E+06
 0.10872000E+03  0.18287E+06
 0.10877000E+03  0.19638E+06
 0.10882001E+03  0.20521E+06
 0.10887000E+03  0.20645E+06
 0.10892001E+03  0.19739E+06
 0.10897000E+03  0.17290E+06
 0.10902000E+03  0.13598E+06
 0.10907001E+03  0.10020E+06
 0.10912000E+03  0.74674E+05
 0.10917001E+03  0.62214E+05
 0.10922000E+03  0.64095E+05
 0.10927000E+03  0.77028E+05
 0.10932001E+03  0.94262E+05
 0.10937000E+03  0.11050E+06
 0.10942001E+03  0.12258E+06
 0.10947000E+03  0.13156E+06
 0.10952000E+03  0.14189E+06
 0.10957001E+03  0.14993E+06
 0.10962000E+03  0.14989E+06
 0.10967001E+03  0.14303E+06
 0.10972000E+03  0.12449E+06
 0.10977000E+03  0.81609E+05
 0.10982001E+03  0.10800E+05
 0.10987000E+03 -0.75588E+05
 0.10992001E+03 -0.15683E+06
 0.10997000E+03 -0.21888E+06
 0.11002000E+03 -0.26025E+06
 0.11007001E+03 -0.28319E+06
 0.11012000E+03 -0.28899E+06
 0.11017001E+03 -0.26923E+06
 0.11022000E+03 -0.20893E+06
 0.11027000E+03 -0.11118E+06
 0.11032001E+03 -0.19590E+04
 0.11037000E+03  0.91141E+05
 0.11042001E+03  0.15715E+06
 0.11047000E+03  0.19782E+06
 0.11052000E+03  0.21738E+06
 0.11057001E+03  0.21744E+06
 0.11062000E+03  0.19781E+06
 0.11067001E+03  0.16253E+06
 0.11072000E+03  0.12122E+06
 0.11077000E+03  0.88503E+05
 0.11082001E+03  0.80050E+05
 0.11087000E+03  0.10592E+06
 0.11092001E+03  0.15950E+06
 0.11097000E+03  0.22273E+06
 0.11102000E+03  0.28909E+06
 0.11107001E+03  0.35358E+06
 0.11112000E+03  0.40039E+06
 0.11117001E+03  0.41801E+06
 0.11122000E+03  0.40507E+06
 0.11127000E+03  0.36093E+06
 0.11132001E+03  0.28159E+06
 0.11137000E+03  0.17329E+06
 0.11142001E+03  0.54253E+05
 0.11147000E+03 -0.57321E+05
 0.11152000E+03 -0.14399E+06
 0.11157001E+03 -0.18951E+06
 0.11162000E+03 -0.19100E+06
 0.11167001E+03 -0.16355E+06
 0.11172000E+03 -0.12557E+06
 0.11177000E+03 -0.90454E+05
 0.11182001E+03 -0.55980E+05
 0.11187000E+03 -0.14692E+05
 0.11192001E+03  0.20893E+05
 0.11197000E+03  0.32353E+05
 0.11202000E+03  0.97750E+04
 0.11207001E+03 -0.37643E+05
 0.11212000E+03 -0.84308E+05
 0.11217001E+03 -0.11711E+06
 0.11222000E+03 -0.13836E+06
 0.11227000E+03 -0.15117E+06
 0.11232001E+03 -0.15628E+06
 0.11237000E+03 -0.15068E+06
 0.11242001E+03 -0.12529E+06
 0.11247000E+03 -0.78630E+05
 0.11252000E+03 -0.19358E+05
 0.11257001E+03  0.43725E+05
 0.11262000E+03  0.97167E+05
 0.11267001E+03  0.13038E+06
 0.11272000E+03  0.13919E+06
 0.11277000E+03  0.12069E+06
 0.11282001E+03  0.81044E+05
 0.11287000E+03  0.34625E+05
 0.11292001E+03 -0.69810E+04
 0.11297000E+03 -0.41121E+05
 0.11302000E+03 -0.67159E+05
 0.11307001E+03 -0.83046E+05
 0.11312000E+03 -0.93023E+05
 0.11317001E+03 -0.10356E+06
 0.11322000E+03 -0.11875E+06
 0.11327000E+03 -0.14118E+06
 0.11332001E+03 -0.17144E+06
 0.11337000E+03 -0.20792E+06
 0.11342001E+03 -0.24448E+06
 0.11347000E+03 -0.27706E+06
 0.11352000E+03 -0.30439E+06
 0.11357001E+03 -0.32616E+06
 0.11362000E+03 -0.34532E+06
 0.11367001E+03 -0.36225E+06
 0.11372000E+03 -0.37247E+06
 0.11377000E+03 -0.36964E+06
 0.11382001E+03 -0.35802E+06
 0.11387000E+03 -0.34439E+06
 0.11392001E+03 -0.32181E+06
 0.11397000E+03 -0.28311E+06
 0.11402000E+03 -0.23227E+06
 0.11407001E+03 -0.18088E+06
 0.11412000E+03 -0.13677E+06
 0.11417001E+03 -0.10168E+06
 0.11422000E+03 -0.78237E+05
 0.11427000E+03 -0.69393E+05
 0.11432001E+03 -0.70818E+05
 0.11437000E+03 -0.69781E+05
 0.11442001E+03 -0.57375E+05
 0.11447000E+03 -0.36821E+05
 0.11452000E+03 -0.17741E+05
 0.11457001E+03 -0.71420E+04
 0.11462000E+03 -0.99640E+04
 0.11467001E+03 -0.30965E+05
 0.11472000E+03 -0.72175E+05
 0.11477000E+03 -0.12589E+06
 0.11482001E+03 -0.17300E+06
 0.11487000E+03 -0.19625E+06
 0.11492001E+03 -0.19232E+06
 0.11497000E+03 -0.17171E+06
 0.11502000E+03 -0.14625E+06
 0.11507001E+03 -0.12364E+06
 0.11512000E+03 -0.10551E+06
 0.11517001E+03 -0.81019E+05
 0.11522000E+03 -0.38034E+05
 0.11527000E+03  0.21351E+05
 0.11532001E+03  0.84878E+05
 0.11537000E+03  0.14429E+06
 0.11542001E+03  0.19654E+06
 0.11547000E+03  0.23752E+06
 0.11552000E+03  0.26506E+06
 0.11557001E+03  0.28394E+06
 0.11562000E+03  0.30272E+06
 0.11567001E+03  0.32585E+06
 0.11572000E+03  0.35106E+06
 0.11577000E+03  0.37413E+06
 0.11582001E+03  0.39372E+06
 0.11587000E+03  0.40509E+06
 0.11592001E+03  0.40384E+06
 0.11597000E+03  0.39829E+06
 0.11602000E+03  0.39878E+06
 0.11607001E+03  0.40514E+06
 0.11612000E+03  0.41385E+06
 0.11617001E+03  0.42855E+06
 0.11622000E+03  0.45434E+06
 0.11627000E+03  0.48169E+06
 0.11632001E+03  0.49145E+06
 0.11637000E+03  0.47454E+06
 0.11642001E+03  0.43411E+06
 0.11647000E+03  0.38119E+06
 0.11652000E+03  0.32603E+06
 0.11657001E+03  0.27053E+06
 0.11662000E+03  0.21412E+06
 0.11667001E+03  0.15894E+06
 0.11672000E+03  0.11278E+06
 0.11677000E+03  0.81011E+05
 0.11682001E+03  0.59637E+05
 0.11687000E+03  0.44290E+05
 0.11692001E+03  0.36820E+05
 0.11697000E+03  0.36088E+05
 0.11702000E+03  0.31401E+05
 0.11707001E+03  0.18764E+05
 0.11712000E+03  0.98050E+04
 0.11717001E+03  0.16807E+05
 0.11722000E+03  0.40171E+05
 0.11727000E+03  0.71850E+05
 0.11732001E+03  0.99638E+05
 0.11737000E+03  0.11187E+06
 0.11742001E+03  0.10840E+06
 0.11747000E+03  0.10093E+06
 0.11752000E+03  0.10156E+06
 0.11757001E+03  0.10947E+06
 0.11762000E+03  0.11080E+06
 0.11767001E+03  0.99307E+05
 0.11772000E+03  0.81341E+05
 0.11777000E+03  0.57732E+05
 0.11782001E+03  0.27631E+05
 0.11787000E+03 -0.11260E+04
 0.11792001E+03 -0.25428E+05
 0.11797000E+03 -0.53457E+05
 0.11802000E+03 -0.87001E+05
 0.11807001E+03 -0.11240E+06
 0.11812000E+03 -0.12021E+06
 0.11817001E+03 -0.11783E+06
 0.11822000E+03 -0.11994E+06
 0.11827000E+03 -0.13367E+06
 0.11832001E+03 -0.15590E+06
 0.11837000E+03 -0.18039E+06
 0.11842001E+03 -0.20115E+06
 0.11847000E+03 -0.21760E+06
 0.11852000E+03 -0.22911E+06
 0.11857001E+03 -0.22809E+06
 0.11862000E+03 -0.21279E+06
 0.11867001E+03 -0.19312E+06
 0.11872000E+03 -0.17889E+06
 0.11877000E+03 -0.17521E+06
 0.11882001E+03 -0.18310E+06
 0.11887000E+03 -0.19524E+06
 0.11892001E+03 -0.19995E+06
 0.11897000E+03 -0.19503E+06
 0.11902000E+03 -0.18726E+06
 0.11907001E+03 -0.17338E+06
 0.11912000E+03 -0.14507E+06
 0.11917001E+03 -0.10817E+06
 0.11922000E+03 -0.74393E+05
 0.11927000E+03 -0.44845E+05
 0.11932001E+03 -0.14522E+05
 0.11937000E+03  0.12990E+05
 0.11942001E+03  0.29272E+05
 0.11947000E+03  0.29264E+05
 0.11952000E+03  0.13098E+05
 0.11957001E+03 -0.70670E+04
 0.11962000E+03 -0.19863E+05
 0.11967001E+03 -0.31371E+05
 0.11972000E+03 -0.48199E+05
 0.11977000E+03 -0.66654E+05
 0.11982001E+03 -0.84606E+05
 0.11987000E+03 -0.10523E+06
 0.11992001E+03 -0.12816E+06
 0.11997000E+03 -0.14476E+06
 0.12002000E+03 -0.14960E+06
 0.12007001E+03 -0.14569E+06
 0.12012000E+03 -0.14361E+06
 0.12017001E+03 -0.15099E+06
 0.12022000E+03 -0.16225E+06
 0.12027000E+03 -0.17303E+06
 0.12032001E+03 -0.18438E+06
 0.12037000E+03 -0.19791E+06
 0.12042001E+03 -0.21131E+06
 0.12047000E+03 -0.22277E+06
 0.12052000E+03 -0.23574E+06
 0.12057001E+03 -0.24435E+06
 0.12062000E+03 -0.23624E+06
 0.12067001E+03 -0.21024E+06
 0.12072000E+03 -0.17574E+06
 0.12077000E+03 -0.13449E+06
 0.12082001E+03 -0.81996E+05
 0.12087000E+03 -0.22206E+05
 0.12092001E+03  0.37937E+05
 0.12097000E+03  0.93693E+05
 0.12102000E+03  0.13838E+06
 0.12107001E+03  0.16787E+06
 0.12112000E+03  0.19164E+06
 0.12117001E+03  0.21981E+06
 0.12122000E+03  0.24583E+06
 0.12127000E+03  0.26274E+06
 0.12132001E+03  0.27586E+06
 0.12137000E+03  0.28553E+06
 0.12142001E+03  0.28180E+06
 0.12147000E+03  0.26481E+06
 0.12152000E+03  0.24425E+06
 0.12157001E+03  0.22166E+06
 0.12162000E+03  0.19345E+06
 0.12167001E+03  0.15867E+06
 0.12172000E+03  0.11498E+06
 0.12177000E+03  0.61338E+05
 0.12182001E+03  0.32150E+04
 0.12187000E+03 -0.53784E+05
 0.12192001E+03 -0.10445E+06
 0.12197000E+03 -0.14432E+06
 0.12202000E+03 -0.17699E+06
 0.12207001E+03 -0.20942E+06
 0.12212000E+03 -0.24540E+06
 0.12217001E+03 -0.28724E+06
 0.12222000E+03 -0.33402E+06
 0.12227000E+03 -0.37787E+06
 0.12232001E+03 -0.41189E+06
 0.12237000E+03 -0.44073E+06
 0.12242001E+03 -0.47474E+06
 0.12247000E+03 -0.51787E+06
 0.12252000E+03 -0.56389E+06
 0.12257001E+03 -0.60234E+06
 0.12262000E+03 -0.62766E+06
 0.12267001E+03 -0.63966E+06
 0.12272000E+03 -0.63807E+06
 0.12277000E+03 -0.62014E+06
 0.12282001E+03 -0.58416E+06
 0.12287000E+03 -0.53001E+06
 0.12292001E+03 -0.45691E+06
 0.12297000E+03 -0.36617E+06
 0.12302000E+03 -0.26240E+06
 0.12307001E+03 -0.15484E+06
 0.12312000E+03 -0.55973E+05
 0.12317001E+03  0.25316E+05
 0.12322000E+03  0.86433E+05
 0.12327000E+03  0.12891E+06
 0.12332001E+03  0.15655E+06
 0.12337000E+03  0.17338E+06
 0.12342001E+03  0.18452E+06
 0.12347000E+03  0.19300E+06
 0.12352000E+03  0.19594E+06
 0.12357001E+03  0.19179E+06
 0.12362000E+03  0.18604E+06
 0.12367001E+03  0.19004E+06
 0.12372000E+03  0.20911E+06
 0.12377000E+03  0.23388E+06
 0.12382001E+03  0.25053E+06
 0.12387000E+03  0.25282E+06
 0.12392001E+03  0.24174E+06
 0.12397000E+03  0.22374E+06
 0.12402000E+03  0.20855E+06
 0.12407001E+03  0.20128E+06
 0.12412000E+03  0.20078E+06
 0.12417001E+03  0.19841E+06
 0.12422001E+03  0.18282E+06
 0.12427001E+03  0.15085E+06
 0.12432000E+03  0.10878E+06
 0.12437000E+03  0.63563E+05
 0.12442001E+03  0.17908E+05
 0.12447001E+03 -0.21320E+05
 0.12452001E+03 -0.45244E+05
 0.12457000E+03 -0.51692E+05
 0.12462000E+03 -0.45457E+05
 0.12467001E+03 -0.32890E+05
 0.12472001E+03 -0.17333E+05
 0.12477001E+03 -0.25000E+02
 0.12482000E+03  0.21868E+05
 0.12487000E+03  0.52876E+05
 0.12492001E+03  0.92624E+05
 0.12497001E+03  0.13353E+06
 0.12502001E+03  0.17045E+06
 0.12507000E+03  0.20840E+06
 0.12512000E+03  0.25243E+06
 0.12517001E+03  0.30193E+06
 0.12522001E+03  0.35407E+06
 0.12527001E+03  0.40230E+06
 0.12532000E+03  0.43367E+06
 0.12537000E+03  0.44068E+06
 0.12542001E+03  0.42905E+06
 0.12547001E+03  0.40927E+06
 0.12552001E+03  0.38931E+06
 0.12557000E+03  0.37264E+06
 0.12562000E+03  0.35785E+06
 0.12567001E+03  0.34059E+06
 0.12572001E+03  0.32194E+06
 0.12577001E+03  0.31145E+06
 0.12582000E+03  0.31944E+06
 0.12587000E+03  0.34500E+06
 0.12592001E+03  0.37969E+06
 0.12597001E+03  0.41796E+06
 0.12602001E+03  0.45127E+06
 0.12607000E+03  0.47498E+06
 0.12612000E+03  0.49304E+06
 0.12617001E+03  0.50324E+06
 0.12622001E+03  0.49354E+06
 0.12627001E+03  0.45273E+06
 0.12632000E+03  0.38012E+06
 0.12637000E+03  0.28194E+06
 0.12642001E+03  0.16689E+06
 0.12647001E+03  0.47038E+05
 0.12652001E+03 -0.66161E+05
 0.12657000E+03 -0.16585E+06
 0.12662000E+03 -0.25134E+06
 0.12667001E+03 -0.32114E+06
 0.12672001E+03 -0.37084E+06
 0.12677001E+03 -0.40012E+06
 0.12682000E+03 -0.41043E+06
 0.12687000E+03 -0.40298E+06
 0.12692001E+03 -0.38041E+06
 0.12697001E+03 -0.34686E+06
 0.12702001E+03 -0.30225E+06
 0.12707000E+03 -0.24631E+06
 0.12712000E+03 -0.18955E+06
 0.12717001E+03 -0.14488E+06
 0.12722001E+03 -0.11934E+06
 0.12727001E+03 -0.10854E+06
 0.12732000E+03 -0.10044E+06
 0.12737000E+03 -0.90187E+05
 0.12742001E+03 -0.80141E+05
 0.12747001E+03 -0.70850E+05
 0.12752001E+03 -0.59219E+05
 0.12757000E+03 -0.47024E+05
 0.12762000E+03 -0.34129E+05
 0.12767001E+03 -0.12194E+05
 0.12772001E+03  0.20894E+05
 0.12777001E+03  0.62554E+05
 0.12782000E+03  0.11194E+06
 0.12787000E+03  0.16508E+06
 0.12792001E+03  0.21257E+06
 0.12797001E+03  0.24692E+06
 0.12802000E+03  0.26885E+06
 0.12806999E+03  0.27940E+06
 0.12812000E+03  0.28024E+06
 0.12817000E+03  0.27703E+06
 0.12822000E+03  0.27127E+06
 0.12827000E+03  0.25761E+06
 0.12831999E+03  0.23020E+06
 0.12837000E+03  0.19052E+06
 0.12842000E+03  0.14905E+06
 0.12847000E+03  0.11708E+06
 0.12852000E+03  0.96210E+05
 0.12856999E+03  0.79801E+05
 0.12862000E+03  0.63051E+05
 0.12867000E+03  0.46841E+05
 0.12872000E+03  0.35489E+05
 0.12877000E+03  0.32662E+05
 0.12881999E+03  0.36974E+05
 0.12887000E+03  0.40400E+05
 0.12892000E+03  0.34781E+05
 0.12897000E+03  0.22315E+05
 0.12902000E+03  0.12291E+05
 0.12906999E+03  0.58020E+04
 0.12912000E+03 -0.79800E+04
 0.12917000E+03 -0.38605E+05
 0.12922000E+03 -0.82963E+05
 0.12927000E+03 -0.13087E+06
 0.12931999E+03 -0.17531E+06
 0.12937000E+03 -0.21297E+06
 0.12942000E+03 -0.24502E+06
 0.12947000E+03 -0.27726E+06
 0.12952000E+03 -0.31279E+06
 0.12956999E+03 -0.34846E+06
 0.12962000E+03 -0.37988E+06
 0.12967000E+03 -0.40641E+06
 0.12972000E+03 -0.42731E+06
 0.12977000E+03 -0.43986E+06
 0.12981999E+03 -0.44515E+06
 0.12987000E+03 -0.44667E+06
 0.12992000E+03 -0.44416E+06
 0.12997000E+03 -0.43426E+06
 0.13002000E+03 -0.41906E+06
 0.13006999E+03 -0.40138E+06
 0.13012000E+03 -0.37762E+06
 0.13017000E+03 -0.34678E+06
 0.13022000E+03 -0.31163E+06
 0.13027000E+03 -0.27418E+06
 0.13031999E+03 -0.23459E+06
 0.13037000E+03 -0.19230E+06
 0.13042000E+03 -0.14718E+06
 0.13047000E+03 -0.99199E+05
 0.13052000E+03 -0.54055E+05
 0.13056999E+03 -0.21714E+05
 0.13062000E+03 -0.42930E+04
 0.13067000E+03  0.69200E+04
 0.13072000E+03  0.20960E+05
 0.13077000E+03  0.41489E+05
 0.13081999E+03  0.65212E+05
 0.13087000E+03  0.84257E+05
 0.13092000E+03  0.94446E+05
 0.13097000E+03  0.98352E+05
 0.13102000E+03  0.10325E+06
 0.13106999E+03  0.11260E+06
 0.13112000E+03  0.12428E+06
 0.13117000E+03  0.13865E+06
 0.13122000E+03  0.15911E+06
 0.13127000E+03  0.18509E+06
 0.13131999E+03  0.20939E+06
 0.13137000E+03  0.22447E+06
 0.13142000E+03  0.22842E+06
 0.13147000E+03  0.22325E+06
 0.13152000E+03  0.20915E+06
 0.13156999E+03  0.18476E+06
 0.13162000E+03  0.15090E+06
 0.13167000E+03  0.11228E+06
 0.13172000E+03  0.75341E+05
 0.13177000E+03  0.45307E+05
 0.13181999E+03  0.24523E+05
 0.13187000E+03  0.11275E+05
 0.13192000E+03  0.33740E+04
 0.13197000E+03 -0.25170E+04
 0.13202000E+03 -0.98420E+04
 0.13206999E+03 -0.17389E+05
 0.13212000E+03 -0.23791E+05
 0.13217000E+03 -0.31538E+05
 0.13222000E+03 -0.45989E+05
 0.13227000E+03 -0.67115E+05
 0.13231999E+03 -0.87271E+05
 0.13237000E+03 -0.10357E+06
 0.13242000E+03 -0.12120E+06
 0.13247000E+03 -0.14640E+06
 0.13252000E+03 -0.17742E+06
 0.13256999E+03 -0.20250E+06
 0.13262000E+03 -0.21074E+06
 0.13267000E+03 -0.20104E+06
 0.13272000E+03 -0.17985E+06
 0.13277000E+03 -0.15310E+06
 0.13281999E+03 -0.12299E+06
 0.13287000E+03 -0.93255E+05
 0.13292000E+03 -0.69529E+05
 0.13297000E+03 -0.51217E+05
 0.13302000E+03 -0.35122E+05
 0.13306999E+03 -0.21168E+05
 0.13312000E+03 -0.10400E+05
 0.13317000E+03 -0.54850E+04
 0.13322000E+03 -0.58790E+04
 0.13327000E+03 -0.31860E+04
 0.13331999E+03  0.99540E+04
 0.13337000E+03  0.31450E+05
 0.13342000E+03  0.53788E+05
 0.13347000E+03  0.70955E+05
 0.13352000E+03  0.80703E+05
 0.13356999E+03  0.85981E+05
 0.13362000E+03  0.92749E+05
 0.13367000E+03  0.10202E+06
 0.13372000E+03  0.11244E+06
 0.13377000E+03  0.12450E+06
 0.13381999E+03  0.13870E+06
 0.13387000E+03  0.15895E+06
 0.13392000E+03  0.18634E+06
 0.13397000E+03  0.21296E+06
 0.13402000E+03  0.23313E+06
 0.13406999E+03  0.25186E+06
 0.13412000E+03  0.27528E+06
 0.13417000E+03  0.29910E+06
 0.13422000E+03  0.31587E+06
 0.13427000E+03  0.32350E+06
 0.13431999E+03  0.31959E+06
 0.13437000E+03  0.30228E+06
 0.13442000E+03  0.27415E+06
 0.13447000E+03  0.24203E+06
 0.13452000E+03  0.21156E+06
 0.13456999E+03  0.18056E+06
 0.13462000E+03  0.14431E+06
 0.13467000E+03  0.99567E+05
 0.13472000E+03  0.47622E+05
 0.13477000E+03 -0.56470E+04
 0.13481999E+03 -0.57866E+05
 0.13487000E+03 -0.10805E+06
 0.13492000E+03 -0.15126E+06
 0.13497000E+03 -0.18069E+06
 0.13502000E+03 -0.19252E+06
 0.13506999E+03 -0.18751E+06
 0.13512000E+03 -0.16904E+06
 0.13517000E+03 -0.14315E+06
 0.13522000E+03 -0.11514E+06
 0.13527000E+03 -0.86497E+05
 0.13531999E+03 -0.56830E+05
 0.13537000E+03 -0.26611E+05
 0.13542000E+03  0.12240E+04
 0.13547000E+03  0.22759E+05
 0.13552000E+03  0.38796E+05
 0.13556999E+03  0.54795E+05
 0.13562000E+03  0.74019E+05
 0.13567000E+03  0.95531E+05
 0.13572000E+03  0.11402E+06
 0.13577000E+03  0.12324E+06
 0.13581999E+03  0.12063E+06
 0.13587000E+03  0.10976E+06
 0.13592000E+03  0.10028E+06
 0.13597000E+03  0.97589E+05
 0.13602000E+03  0.96681E+05
 0.13606999E+03  0.89647E+05
 0.13612000E+03  0.75510E+05
 0.13617000E+03  0.59375E+05
 0.13622000E+03  0.42706E+05
 0.13627000E+03  0.23611E+05
 0.13631999E+03  0.43120E+04
 0.13637000E+03 -0.96020E+04
 0.13642000E+03 -0.14346E+05
 0.13647000E+03 -0.11850E+05
 0.13652000E+03 -0.10001E+05
 0.13656999E+03 -0.16341E+05
 0.13662000E+03 -0.30139E+05
 0.13667000E+03 -0.45424E+05
 0.13672000E+03 -0.59935E+05
 0.13677000E+03 -0.73035E+05
 0.13681999E+03 -0.84339E+05
 0.13687000E+03 -0.96705E+05
 0.13692000E+03 -0.11335E+06
 0.13697000E+03 -0.13355E+06
 0.13702000E+03 -0.14832E+06
 0.13706999E+03 -0.14886E+06
 0.13712000E+03 -0.13687E+06
 0.13717000E+03 -0.11708E+06
 0.13722000E+03 -0.93179E+05
 0.13727000E+03 -0.67838E+05
 0.13731999E+03 -0.41747E+05
 0.13737000E+03 -0.17232E+05
 0.13742000E+03  0.30000E+04
 0.13747000E+03  0.19276E+05
 0.13752000E+03  0.29469E+05
 0.13756999E+03  0.26449E+05
 0.13762000E+03  0.55700E+04
 0.13767000E+03 -0.32247E+05
 0.13772000E+03 -0.82023E+05
 0.13777000E+03 -0.13748E+06
 0.13781999E+03 -0.19174E+06
 0.13787000E+03 -0.23715E+06
 0.13792000E+03 -0.26901E+06
 0.13797000E+03 -0.28562E+06
 0.13802000E+03 -0.28488E+06
 0.13806999E+03 -0.26595E+06
 0.13812000E+03 -0.23256E+06
 0.13817000E+03 -0.19174E+06
 0.13822000E+03 -0.15268E+06
 0.13827000E+03 -0.11860E+06
 0.13831999E+03 -0.84337E+05
 0.13837000E+03 -0.48795E+05
 0.13842000E+03 -0.15713E+05
 0.13847000E+03  0.11705E+05
 0.13852000E+03  0.31246E+05
 0.13856999E+03  0.42344E+05
 0.13862000E+03  0.48240E+05
 0.13867000E+03  0.54948E+05
 0.13872000E+03  0.62123E+05
 0.13877000E+03  0.59510E+05
 0.13881999E+03  0.37968E+05
 0.13887000E+03 -0.12650E+04
 0.13892000E+03 -0.49799E+05
 0.13897000E+03 -0.97821E+05
 0.13902000E+03 -0.13922E+06
 0.13906999E+03 -0.17324E+06
 0.13912000E+03 -0.20162E+06
 0.13917000E+03 -0.22404E+06
 0.13922000E+03 -0.23702E+06
 0.13927000E+03 -0.24075E+06
 0.13931999E+03 -0.24082E+06
 0.13937000E+03 -0.24404E+06
 0.13942000E+03 -0.25224E+06
 0.13947000E+03 -0.26035E+06
 0.13952000E+03 -0.26204E+06
 0.13956999E+03 -0.25306E+06
 0.13962000E+03 -0.23357E+06
 0.13967000E+03 -0.20647E+06
 0.13972000E+03 -0.17197E+06
 0.13977000E+03 -0.12685E+06
 0.13981999E+03 -0.67994E+05
 0.13987000E+03  0.19800E+03
 0.13992000E+03  0.66045E+05
 0.13997000E+03  0.12144E+06
 0.14002000E+03  0.16630E+06
 0.14006999E+03  0.20275E+06
 0.14012000E+03  0.22986E+06
 0.14017000E+03  0.24363E+06
 0.14022000E+03  0.24172E+06
 0.14027000E+03  0.22783E+06
 0.14031999E+03  0.20753E+06
 0.14037000E+03  0.18362E+06
 0.14042000E+03  0.15528E+06
 0.14047000E+03  0.12199E+06
 0.14052000E+03  0.88943E+05
 0.14056999E+03  0.60701E+05
 0.14062000E+03  0.37265E+05
 0.14067000E+03  0.16637E+05
 0.14072000E+03 -0.62830E+04
 0.14077000E+03 -0.36762E+05
 0.14081999E+03 -0.74391E+05
 0.14087000E+03 -0.11304E+06
 0.14092000E+03 -0.14734E+06
 0.14097000E+03 -0.17541E+06
 0.14102000E+03 -0.19510E+06
 0.14106999E+03 -0.20251E+06
 0.14112000E+03 -0.19586E+06
 0.14117000E+03 -0.17742E+06
 0.14122000E+03 -0.14862E+06
 0.14127000E+03 -0.10895E+06
 0.14131999E+03 -0.60522E+05
 0.14137000E+03 -0.56670E+04
 0.14142000E+03  0.55049E+05
 0.14147000E+03  0.11884E+06
 0.14152000E+03  0.18011E+06
 0.14156999E+03  0.23442E+06
 0.14162000E+03  0.28012E+06
 0.14167000E+03  0.31330E+06
 0.14172000E+03  0.32762E+06
 0.14177000E+03  0.32569E+06
 0.14181999E+03  0.31795E+06
 0.14187000E+03  0.30730E+06
 0.14192000E+03  0.28964E+06
 0.14197000E+03  0.26324E+06
 0.14202000E+03  0.23231E+06
 0.14206999E+03  0.20497E+06
 0.14212000E+03  0.18531E+06
 0.14217000E+03  0.17184E+06
 0.14222000E+03  0.16162E+06
 0.14227000E+03  0.15298E+06
 0.14231999E+03  0.14362E+06
 0.14237000E+03  0.13156E+06
 0.14242000E+03  0.11929E+06
 0.14247000E+03  0.10950E+06
 0.14252000E+03  0.99760E+05
 0.14256999E+03  0.84464E+05
 0.14262000E+03  0.63280E+05
 0.14267000E+03  0.41637E+05
 0.14272000E+03  0.22858E+05
 0.14277000E+03  0.79580E+04
 0.14281999E+03 -0.22140E+04
 0.14287000E+03 -0.63530E+04
 0.14292000E+03 -0.31910E+04
 0.14297000E+03  0.66770E+04
 0.14302000E+03  0.21662E+05
 0.14306999E+03  0.39103E+05
 0.14312000E+03  0.54726E+05
 0.14317000E+03  0.65296E+05
 0.14322000E+03  0.69579E+05
 0.14327000E+03  0.67028E+05
 0.14331999E+03  0.57534E+05
 0.14337000E+03  0.39631E+05
 0.14342000E+03  0.10414E+05
 0.14347000E+03 -0.30438E+05
 0.14352000E+03 -0.78711E+05
 0.14356999E+03 -0.13030E+06
 0.14362000E+03 -0.18216E+06
 0.14367000E+03 -0.22691E+06
 0.14372000E+03 -0.25724E+06
 0.14377000E+03 -0.27278E+06
 0.14381999E+03 -0.27774E+06
 0.14387000E+03 -0.27321E+06
 0.14392000E+03 -0.25653E+06
 0.14397000E+03 -0.22956E+06
 0.14402000E+03 -0.19788E+06
 0.14406999E+03 -0.16503E+06
 0.14412000E+03 -0.13386E+06
 0.14417000E+03 -0.10785E+06
 0.14422000E+03 -0.85781E+05
 0.14427000E+03 -0.62689E+05
 0.14431999E+03 -0.36025E+05
 0.14437000E+03 -0.58220E+04
 0.14442000E+03  0.25792E+05
 0.14447000E+03  0.58531E+05
 0.14452000E+03  0.93960E+05
 0.14456999E+03  0.13042E+06
 0.14462000E+03  0.16419E+06
 0.14467000E+03  0.19317E+06
 0.14472000E+03  0.21728E+06
 0.14477000E+03  0.23555E+06
 0.14481999E+03  0.24800E+06
 0.14487000E+03  0.25531E+06
 0.14492000E+03  0.25504E+06
 0.14497000E+03  0.24548E+06
 0.14502000E+03  0.22807E+06
 0.14506999E+03  0.20576E+06
 0.14512000E+03  0.17772E+06
 0.14517000E+03  0.14254E+06
 0.14522000E+03  0.10388E+06
 0.14527000E+03  0.62290E+05
 0.14531999E+03  0.17458E+05
 0.14537000E+03 -0.24817E+05
 0.14542000E+03 -0.59341E+05
 0.14547000E+03 -0.86466E+05
 0.14552000E+03 -0.10818E+06
 0.14556999E+03 -0.12343E+06
 0.14562000E+03 -0.12932E+06
 0.14567000E+03 -0.12634E+06
 0.14572000E+03 -0.12028E+06
 0.14577000E+03 -0.11389E+06
 0.14581999E+03 -0.10342E+06
 0.14587000E+03 -0.85256E+05
 0.14592000E+03 -0.60230E+05
 0.14597000E+03 -0.33269E+05
 0.14602000E+03 -0.73660E+04
 0.14606999E+03  0.16887E+05
 0.14612000E+03  0.36938E+05
 0.14617000E+03  0.50735E+05
 0.14622000E+03  0.58722E+05
 0.14627000E+03  0.59602E+05
 0.14631999E+03  0.49701E+05
 0.14637000E+03  0.30660E+05
 0.14642000E+03  0.96210E+04
 0.14647000E+03 -0.85420E+04
 0.14652000E+03 -0.22625E+05
 0.14656999E+03 -0.31958E+05
 0.14662000E+03 -0.34471E+05
 0.14667000E+03 -0.30404E+05
 0.14672000E+03 -0.25481E+05
 0.14677000E+03 -0.24532E+05
 0.14681999E+03 -0.26860E+05
 0.14687000E+03 -0.28633E+05
 0.14692000E+03 -0.28676E+05
 0.14697000E+03 -0.30813E+05
 0.14702000E+03 -0.36957E+05
 0.14706999E+03 -0.44953E+05
 0.14712000E+03 -0.52241E+05
 0.14717000E+03 -0.55941E+05
 0.14722000E+03 -0.55245E+05
 0.14727000E+03 -0.54109E+05
 0.14731999E+03 -0.55756E+05
 0.14737000E+03 -0.58076E+05
 0.14742000E+03 -0.58191E+05
 0.14747000E+03 -0.54997E+05
 0.14752000E+03 -0.47726E+05
 0.14756999E+03 -0.35545E+05
 0.14762000E+03 -0.18733E+05
 0.14767000E+03  0.22100E+03
 0.14772000E+03  0.17924E+05
 0.14777000E+03  0.31611E+05
 0.14781999E+03  0.42439E+05
 0.14787000E+03  0.53932E+05
 0.14792000E+03  0.68687E+05
 0.14797000E+03  0.87313E+05
 0.14802000E+03  0.10490E+06
 0.14806999E+03  0.11541E+06
 0.14812000E+03  0.11792E+06
 0.14817000E+03  0.11426E+06
 0.14822000E+03  0.10695E+06
 0.14827000E+03  0.98718E+05
 0.14831999E+03  0.90375E+05
 0.14837000E+03  0.79320E+05
 0.14842000E+03  0.63113E+05
 0.14847000E+03  0.46136E+05
 0.14852000E+03  0.35622E+05
 0.14856999E+03  0.33368E+05
 0.14862000E+03  0.37068E+05
 0.14867000E+03  0.46054E+05
 0.14872000E+03  0.60424E+05
 0.14877000E+03  0.75819E+05
 0.14881999E+03  0.88109E+05
 0.14887000E+03  0.97583E+05
 0.14892000E+03  0.10542E+06
 0.14897000E+03  0.11224E+06
 0.14902000E+03  0.11890E+06
 0.14906999E+03  0.12656E+06
