-0.38800001E+01 -0.80039E+05
-0.38300002E+01 -0.96231E+05
-0.37800002E+01 -0.10817E+06
-0.37300000E+01 -0.11481E+06
-0.36800001E+01 -0.11636E+06
-0.36300001E+01 -0.11360E+06
-0.35800002E+01 -0.10737E+06
-0.35300002E+01 -0.98863E+05
-0.34800000E+01 -0.89290E+05
-0.34300001E+01 -0.79910E+05
-0.33800001E+01 -0.71643E+05
-0.33300002E+01 -0.64694E+05
-0.32800002E+01 -0.58666E+05
-0.32300000E+01 -0.53383E+05
-0.31800001E+01 -0.49057E+05
-0.31300001E+01 -0.45148E+05
-0.30800002E+01 -0.40901E+05
-0.30300002E+01 -0.36119E+05
-0.29800000E+01 -0.31022E+05
-0.29300001E+01 -0.25626E+05
-0.28800001E+01 -0.19292E+05
-0.28299999E+01 -0.12277E+05
-0.27800002E+01 -0.59020E+04
-0.27300000E+01 -0.91500E+03
-0.26800001E+01  0.29760E+04
-0.26300001E+01  0.66450E+04
-0.25799999E+01  0.10552E+05
-0.25300002E+01  0.14176E+05
-0.24800000E+01  0.16506E+05
-0.24300001E+01  0.16829E+05
-0.23800001E+01  0.15342E+05
-0.23299999E+01  0.13063E+05
-0.22800002E+01  0.10867E+05
-0.22300000E+01  0.97780E+04
-0.21800001E+01  0.10948E+05
-0.21300001E+01  0.14511E+05
-0.20799999E+01  0.19479E+05
-0.20300002E+01  0.24582E+05
-0.19800001E+01  0.29219E+05
-0.19300001E+01  0.33176E+05
-0.18800001E+01  0.36702E+05
-0.18300002E+01  0.40674E+05
-0.17800000E+01  0.45908E+05
-0.17300000E+01  0.52459E+05
-0.16800001E+01  0.59261E+05
-0.16300001E+01  0.64418E+05
-0.15800002E+01  0.66559E+05
-0.15300000E+01  0.65441E+05
-0.14800000E+01  0.61251E+05
-0.14300001E+01  0.55270E+05
-0.13800001E+01  0.48924E+05
-0.13300002E+01  0.42190E+05
-0.12800000E+01  0.34602E+05
-0.12300000E+01  0.26559E+05
-0.11800001E+01  0.19107E+05
-0.11300001E+01  0.12958E+05
-0.10800002E+01  0.84070E+04
-0.10300000E+01  0.52640E+04
-0.98000002E+00  0.35020E+04
-0.93000007E+00  0.31410E+04
-0.88000011E+00  0.34460E+04
-0.83000016E+00  0.36720E+04
-0.77999997E+00  0.36960E+04
-0.73000002E+00  0.38280E+04
-0.68000007E+00  0.43780E+04
-0.63000011E+00  0.55070E+04
-0.58000016E+00  0.68590E+04
-0.52999997E+00  0.80650E+04
-0.48000002E+00  0.89010E+04
-0.43000007E+00  0.91990E+04
-0.38000011E+00  0.93680E+04
-0.33000016E+00  0.90910E+04
-0.27999997E+00  0.74390E+04
-0.23000002E+00  0.39940E+04
-0.18000007E+00 -0.59100E+03
-0.13000011E+00 -0.51400E+04
-0.80000162E-01 -0.95720E+04
-0.29999971E-01 -0.13956E+05
 0.19999981E-01 -0.18066E+05
 0.69999933E-01 -0.21702E+05
 0.11999989E+00 -0.24873E+05
 0.17000008E+00 -0.28562E+05
 0.21999979E+00 -0.33420E+05
 0.26999998E+00 -0.39085E+05
 0.32000017E+00 -0.45302E+05
 0.36999989E+00 -0.52056E+05
 0.42000008E+00 -0.59026E+05
 0.46999979E+00 -0.65515E+05
 0.51999998E+00 -0.71057E+05
 0.57000017E+00 -0.75800E+05
 0.61999989E+00 -0.80115E+05
 0.67000008E+00 -0.84055E+05
 0.71999979E+00 -0.87376E+05
 0.76999998E+00 -0.89509E+05
 0.82000017E+00 -0.89790E+05
 0.86999989E+00 -0.87760E+05
 0.92000008E+00 -0.83254E+05
 0.96999979E+00 -0.77071E+05
 0.10200000E+01 -0.69958E+05
 0.10700002E+01 -0.61341E+05
 0.11199999E+01 -0.50618E+05
 0.11700001E+01 -0.38132E+05
 0.12199998E+01 -0.24813E+05
 0.12700000E+01 -0.11615E+05
 0.13200002E+01  0.84400E+03
 0.13699999E+01  0.11286E+05
 0.14200001E+01  0.18739E+05
 0.14699998E+01  0.23845E+05
 0.15200000E+01  0.27666E+05
 0.15700002E+01  0.30776E+05
 0.16199999E+01  0.32453E+05
 0.16700001E+01  0.31426E+05
 0.17199998E+01  0.27291E+05
 0.17700000E+01  0.20974E+05
 0.18200002E+01  0.14436E+05
 0.18699999E+01  0.95780E+04
 0.19200001E+01  0.70740E+04
 0.19699998E+01  0.62370E+04
 0.20200000E+01  0.61580E+04
 0.20700002E+01  0.61410E+04
 0.21199999E+01  0.54330E+04
 0.21700001E+01  0.29780E+04
 0.22199998E+01 -0.22910E+04
 0.22700000E+01 -0.10061E+05
 0.23200002E+01 -0.18396E+05
 0.23699999E+01 -0.25249E+05
 0.24200001E+01 -0.29132E+05
 0.24699998E+01 -0.29836E+05
 0.25200000E+01 -0.28329E+05
 0.25700002E+01 -0.25450E+05
 0.26199999E+01 -0.21456E+05
 0.26700001E+01 -0.16219E+05
 0.27199998E+01 -0.98630E+04
 0.27700000E+01 -0.28130E+04
 0.28200002E+01  0.45900E+04
 0.28699999E+01  0.12099E+05
 0.29200001E+01  0.19311E+05
 0.29699998E+01  0.25792E+05
 0.30200000E+01  0.30950E+05
 0.30700002E+01  0.34205E+05
 0.31199999E+01  0.35688E+05
 0.31700001E+01  0.35628E+05
 0.32199998E+01  0.34212E+05
 0.32700000E+01  0.32425E+05
 0.33200002E+01  0.31717E+05
 0.33699999E+01  0.32573E+05
 0.34200001E+01  0.34811E+05
 0.34699998E+01  0.38551E+05
 0.35200000E+01  0.43700E+05
 0.35700002E+01  0.50312E+05
 0.36199999E+01  0.58174E+05
 0.36700001E+01  0.65964E+05
 0.37199998E+01  0.72327E+05
 0.37700000E+01  0.76540E+05
 0.38200002E+01  0.78738E+05
 0.38699999E+01  0.80037E+05
 0.39200001E+01  0.81526E+05
 0.39699998E+01  0.83876E+05
 0.40200000E+01  0.87046E+05
 0.40700002E+01  0.89226E+05
 0.41199999E+01  0.88507E+05
 0.41700001E+01  0.84316E+05
 0.42200003E+01  0.76426E+05
 0.42700005E+01  0.65219E+05
 0.43199997E+01  0.51605E+05
 0.43699999E+01  0.36496E+05
 0.44200001E+01  0.20931E+05
 0.44700003E+01  0.56910E+04
 0.45200005E+01 -0.85820E+04
 0.45699997E+01 -0.21404E+05
 0.46199999E+01 -0.33005E+05
 0.46700001E+01 -0.44099E+05
 0.47200003E+01 -0.55087E+05
 0.47700005E+01 -0.66254E+05
 0.48199997E+01 -0.77541E+05
 0.48699999E+01 -0.87693E+05
 0.49200001E+01 -0.95282E+05
 0.49700003E+01 -0.99642E+05
 0.50200005E+01 -0.10088E+06
 0.50699997E+01 -0.99150E+05
 0.51199999E+01 -0.94310E+05
 0.51700001E+01 -0.86864E+05
 0.52200003E+01 -0.78082E+05
 0.52700005E+01 -0.69415E+05
 0.53199997E+01 -0.60999E+05
 0.53699999E+01 -0.51368E+05
 0.54200001E+01 -0.38947E+05
 0.54700003E+01 -0.23318E+05
 0.55200005E+01 -0.56680E+04
 0.55699997E+01  0.12518E+05
 0.56199999E+01  0.29991E+05
 0.56700001E+01  0.45664E+05
 0.57200003E+01  0.58977E+05
 0.57700005E+01  0.69512E+05
 0.58199997E+01  0.77140E+05
 0.58699999E+01  0.82245E+05
 0.59200001E+01  0.85467E+05
 0.59700003E+01  0.87431E+05
 0.60200005E+01  0.88718E+05
 0.60699997E+01  0.89549E+05
 0.61199999E+01  0.89799E+05
 0.61700001E+01  0.89806E+05
 0.62200003E+01  0.89871E+05
 0.62700005E+01  0.89250E+05
 0.63199997E+01  0.87001E+05
 0.63699999E+01  0.83003E+05
 0.64200001E+01  0.77671E+05
 0.64700003E+01  0.71336E+05
 0.65200005E+01  0.63739E+05
 0.65699997E+01  0.54234E+05
 0.66199999E+01  0.42938E+05
 0.66700001E+01  0.30817E+05
 0.67200003E+01  0.18462E+05
 0.67700005E+01  0.59950E+04
 0.68199997E+01 -0.64300E+04
 0.68699999E+01 -0.18620E+05
 0.69200001E+01 -0.30274E+05
 0.69700003E+01 -0.41486E+05
 0.70200005E+01 -0.52762E+05
 0.70699997E+01 -0.64126E+05
 0.71199999E+01 -0.75538E+05
 0.71700001E+01 -0.87401E+05
 0.72200003E+01 -0.99645E+05
 0.72700005E+01 -0.11172E+06
 0.73199997E+01 -0.12293E+06
 0.73699999E+01 -0.13214E+06
 0.74200001E+01 -0.13836E+06
 0.74700003E+01 -0.14097E+06
 0.75200005E+01 -0.14009E+06
 0.75699997E+01 -0.13596E+06
 0.76199999E+01 -0.12808E+06
 0.76700001E+01 -0.11642E+06
 0.77200003E+01 -0.10159E+06
 0.77700005E+01 -0.83976E+05
 0.78199997E+01 -0.63892E+05
 0.78699999E+01 -0.41890E+05
 0.79200001E+01 -0.18607E+05
 0.79700003E+01  0.56680E+04
 0.80200005E+01  0.31193E+05
 0.80699997E+01  0.57420E+05
 0.81199999E+01  0.82749E+05
 0.81700001E+01  0.10570E+06
 0.82200003E+01  0.12480E+06
 0.82700005E+01  0.13926E+06
 0.83199997E+01  0.14881E+06
 0.83699999E+01  0.15324E+06
 0.84200001E+01  0.15271E+06
 0.84700003E+01  0.14735E+06
 0.85200005E+01  0.13742E+06
 0.85699997E+01  0.12364E+06
 0.86199999E+01  0.10723E+06
 0.86700001E+01  0.89381E+05
 0.87200003E+01  0.70511E+05
 0.87700005E+01  0.50332E+05
 0.88199997E+01  0.29180E+05
 0.88699999E+01  0.75810E+04
 0.89200001E+01 -0.13561E+05
 0.89700003E+01 -0.32159E+05
 0.90200005E+01 -0.46440E+05
 0.90699997E+01 -0.55546E+05
 0.91199999E+01 -0.59435E+05
 0.91700001E+01 -0.59054E+05
 0.92200003E+01 -0.56201E+05
 0.92700005E+01 -0.52041E+05
 0.93199997E+01 -0.46324E+05
 0.93699999E+01 -0.38847E+05
 0.94200001E+01 -0.30283E+05
 0.94700003E+01 -0.21679E+05
 0.95200005E+01 -0.13600E+05
 0.95699997E+01 -0.63720E+04
 0.96199999E+01 -0.39000E+03
 0.96700001E+01  0.34290E+04
 0.97200003E+01  0.37820E+04
 0.97700005E+01  0.18500E+03
 0.98199997E+01 -0.71750E+04
 0.98699999E+01 -0.17256E+05
 0.99200001E+01 -0.28411E+05
 0.99700003E+01 -0.39187E+05
 0.10020000E+02 -0.47938E+05
 0.10070000E+02 -0.53273E+05
 0.10120000E+02 -0.54930E+05
 0.10170000E+02 -0.53411E+05
 0.10220000E+02 -0.49651E+05
 0.10270000E+02 -0.44972E+05
 0.10320000E+02 -0.40452E+05
 0.10370000E+02 -0.36827E+05
 0.10420000E+02 -0.33852E+05
 0.10470000E+02 -0.30856E+05
 0.10520000E+02 -0.28280E+05
 0.10570000E+02 -0.26674E+05
 0.10620000E+02 -0.25816E+05
 0.10670000E+02 -0.25037E+05
 0.10720000E+02 -0.23728E+05
 0.10770000E+02 -0.21502E+05
 0.10820000E+02 -0.17963E+05
 0.10870000E+02 -0.13038E+05
 0.10920000E+02 -0.71920E+04
 0.10970000E+02 -0.12370E+04
 0.11020000E+02  0.39180E+04
 0.11070000E+02  0.78110E+04
 0.11120000E+02  0.10336E+05
 0.11170000E+02  0.11620E+05
 0.11220000E+02  0.12250E+05
 0.11270000E+02  0.12946E+05
 0.11320000E+02  0.13950E+05
 0.11370000E+02  0.15401E+05
 0.11420000E+02  0.17879E+05
 0.11470000E+02  0.21781E+05
 0.11520000E+02  0.27749E+05
 0.11570000E+02  0.36300E+05
 0.11620000E+02  0.47143E+05
 0.11670000E+02  0.59453E+05
 0.11720000E+02  0.71843E+05
 0.11770000E+02  0.83806E+05
 0.11820000E+02  0.95058E+05
 0.11870000E+02  0.10491E+06
 0.11920000E+02  0.11346E+06
 0.11970000E+02  0.12051E+06
 0.12020000E+02  0.12561E+06
 0.12070000E+02  0.12818E+06
 0.12120000E+02  0.12752E+06
 0.12170001E+02  0.12326E+06
 0.12220000E+02  0.11503E+06
 0.12270000E+02  0.10277E+06
 0.12320001E+02  0.86689E+05
 0.12370000E+02  0.66926E+05
 0.12420001E+02  0.43857E+05
 0.12470000E+02  0.18898E+05
 0.12520000E+02 -0.64680E+04
 0.12570001E+02 -0.31011E+05
 0.12620000E+02 -0.53493E+05
 0.12670001E+02 -0.73179E+05
 0.12720000E+02 -0.89292E+05
 0.12770000E+02 -0.10143E+06
 0.12820001E+02 -0.10966E+06
 0.12870000E+02 -0.11398E+06
 0.12920001E+02 -0.11448E+06
 0.12970000E+02 -0.11128E+06
 0.13020000E+02 -0.10502E+06
 0.13070001E+02 -0.97027E+05
 0.13120000E+02 -0.88121E+05
 0.13170001E+02 -0.78133E+05
 0.13220000E+02 -0.67079E+05
 0.13270000E+02 -0.55015E+05
 0.13320001E+02 -0.42300E+05
 0.13370000E+02 -0.29437E+05
 0.13420001E+02 -0.16593E+05
 0.13470000E+02 -0.36970E+04
 0.13520000E+02  0.93650E+04
 0.13570001E+02  0.21646E+05
 0.13620000E+02  0.31682E+05
 0.13670001E+02  0.38856E+05
 0.13720000E+02  0.43572E+05
 0.13770000E+02  0.46511E+05
 0.13820001E+02  0.47738E+05
 0.13870000E+02  0.46432E+05
 0.13920001E+02  0.41996E+05
 0.13970000E+02  0.34833E+05
 0.14020000E+02  0.25828E+05
 0.14070001E+02  0.16092E+05
 0.14120000E+02  0.62700E+04
 0.14170001E+02 -0.36200E+04
 0.14220000E+02 -0.14130E+05
 0.14270000E+02 -0.25920E+05
 0.14320001E+02 -0.38674E+05
 0.14370000E+02 -0.51786E+05
 0.14420001E+02 -0.64984E+05
 0.14470000E+02 -0.78002E+05
 0.14520000E+02 -0.90287E+05
 0.14570001E+02 -0.10069E+06
 0.14620000E+02 -0.10810E+06
 0.14670001E+02 -0.11233E+06
 0.14720000E+02 -0.11376E+06
 0.14770000E+02 -0.11252E+06
 0.14820001E+02 -0.10875E+06
 0.14870000E+02 -0.10266E+06
 0.14920001E+02 -0.94565E+05
 0.14970000E+02 -0.84663E+05
 0.15020000E+02 -0.72918E+05
 0.15070001E+02 -0.59792E+05
 0.15120000E+02 -0.46155E+05
 0.15170001E+02 -0.32048E+05
 0.15220000E+02 -0.16997E+05
 0.15270000E+02 -0.11120E+04
 0.15320001E+02  0.15087E+05
 0.15370000E+02  0.31018E+05
 0.15420001E+02  0.46263E+05
 0.15470000E+02  0.60339E+05
 0.15520000E+02  0.72355E+05
 0.15570001E+02  0.81250E+05
 0.15620000E+02  0.86295E+05
 0.15670001E+02  0.87406E+05
 0.15720000E+02  0.85082E+05
 0.15770000E+02  0.80167E+05
 0.15820001E+02  0.73164E+05
 0.15870000E+02  0.63926E+05
 0.15920001E+02  0.52164E+05
 0.15970000E+02  0.38002E+05
 0.16020000E+02  0.22160E+05
 0.16070000E+02  0.60040E+04
 0.16119999E+02 -0.87210E+04
 0.16170002E+02 -0.20923E+05
 0.16220001E+02 -0.30325E+05
 0.16270000E+02 -0.37033E+05
 0.16320000E+02 -0.41692E+05
 0.16369999E+02 -0.45071E+05
 0.16420002E+02 -0.47500E+05
 0.16470001E+02 -0.48675E+05
 0.16520000E+02 -0.48055E+05
 0.16570000E+02 -0.45388E+05
 0.16619999E+02 -0.40800E+05
 0.16670002E+02 -0.34321E+05
 0.16720001E+02 -0.25457E+05
 0.16770000E+02 -0.13936E+05
 0.16820000E+02 -0.41400E+03
 0.16869999E+02  0.13554E+05
 0.16920002E+02  0.26058E+05
 0.16970001E+02  0.35960E+05
 0.17020000E+02  0.43343E+05
 0.17070000E+02  0.48526E+05
 0.17119999E+02  0.51527E+05
 0.17170002E+02  0.52217E+05
 0.17220001E+02  0.50570E+05
 0.17270000E+02  0.46785E+05
 0.17320000E+02  0.40729E+05
 0.17369999E+02  0.32385E+05
 0.17420002E+02  0.22306E+05
 0.17470001E+02  0.11282E+05
 0.17520000E+02  0.20000E+03
 0.17570000E+02 -0.10036E+05
 0.17619999E+02 -0.18618E+05
 0.17670002E+02 -0.25120E+05
 0.17720001E+02 -0.29533E+05
 0.17770000E+02 -0.32144E+05
 0.17820000E+02 -0.32809E+05
 0.17869999E+02 -0.31562E+05
 0.17920002E+02 -0.28890E+05
 0.17970001E+02 -0.24596E+05
 0.18020000E+02 -0.18466E+05
 0.18070000E+02 -0.10853E+05
 0.18119999E+02 -0.22250E+04
 0.18170002E+02  0.68060E+04
 0.18220001E+02  0.15518E+05
 0.18270000E+02  0.23396E+05
 0.18320000E+02  0.29571E+05
 0.18369999E+02  0.33279E+05
 0.18420002E+02  0.34871E+05
 0.18470001E+02  0.35317E+05
 0.18520000E+02  0.36130E+05
 0.18570000E+02  0.38264E+05
 0.18619999E+02  0.41225E+05
 0.18670002E+02  0.44178E+05
 0.18720001E+02  0.46386E+05
 0.18770000E+02  0.47716E+05
 0.18820000E+02  0.48587E+05
 0.18869999E+02  0.49319E+05
 0.18920002E+02  0.50285E+05
 0.18970001E+02  0.51646E+05
 0.19020000E+02  0.53412E+05
 0.19070000E+02  0.55634E+05
 0.19119999E+02  0.57992E+05
 0.19170002E+02  0.59984E+05
 0.19220001E+02  0.61133E+05
 0.19270000E+02  0.61370E+05
 0.19320000E+02  0.61414E+05
 0.19369999E+02  0.61932E+05
 0.19420002E+02  0.63568E+05
 0.19470001E+02  0.66520E+05
 0.19520000E+02  0.69632E+05
 0.19570000E+02  0.71430E+05
 0.19619999E+02  0.70714E+05
 0.19670002E+02  0.66815E+05
 0.19720001E+02  0.59782E+05
 0.19770000E+02  0.50033E+05
 0.19820000E+02  0.38007E+05
 0.19869999E+02  0.23760E+05
 0.19920002E+02  0.73040E+04
 0.19970001E+02 -0.11128E+05
 0.20020000E+02 -0.31010E+05
 0.20070000E+02 -0.51369E+05
 0.20119999E+02 -0.70116E+05
 0.20170002E+02 -0.85033E+05
 0.20220001E+02 -0.95289E+05
 0.20270000E+02 -0.10043E+06
 0.20320000E+02 -0.10020E+06
 0.20369999E+02 -0.94984E+05
 0.20420002E+02 -0.85737E+05
 0.20470001E+02 -0.73926E+05
 0.20520000E+02 -0.61577E+05
 0.20570000E+02 -0.50603E+05
 0.20619999E+02 -0.41566E+05
 0.20670002E+02 -0.34156E+05
 0.20720001E+02 -0.28502E+05
 0.20770000E+02 -0.24869E+05
 0.20820000E+02 -0.22858E+05
 0.20869999E+02 -0.22002E+05
 0.20920002E+02 -0.22288E+05
 0.20970001E+02 -0.23774E+05
 0.21020000E+02 -0.26552E+05
 0.21070000E+02 -0.30391E+05
 0.21119999E+02 -0.34529E+05
 0.21170002E+02 -0.38152E+05
 0.21220001E+02 -0.40574E+05
 0.21270000E+02 -0.41387E+05
 0.21320000E+02 -0.39991E+05
 0.21369999E+02 -0.36155E+05
 0.21420002E+02 -0.30475E+05
 0.21470001E+02 -0.23231E+05
 0.21520000E+02 -0.14735E+05
 0.21570000E+02 -0.55100E+04
 0.21619999E+02  0.40680E+04
 0.21670002E+02  0.13904E+05
 0.21720001E+02  0.24194E+05
 0.21770000E+02  0.34556E+05
 0.21820000E+02  0.43929E+05
 0.21869999E+02  0.51161E+05
 0.21920002E+02  0.55993E+05
 0.21970001E+02  0.58849E+05
 0.22020000E+02  0.59824E+05
 0.22070000E+02  0.58855E+05
 0.22119999E+02  0.56255E+05
 0.22170002E+02  0.52452E+05
 0.22220001E+02  0.47375E+05
 0.22270000E+02  0.40723E+05
 0.22320000E+02  0.32273E+05
 0.22369999E+02  0.22649E+05
 0.22420002E+02  0.13100E+05
 0.22470001E+02  0.44560E+04
 0.22520000E+02 -0.28180E+04
 0.22570000E+02 -0.87620E+04
 0.22619999E+02 -0.13178E+05
 0.22670002E+02 -0.16178E+05
 0.22720001E+02 -0.18671E+05
 0.22770000E+02 -0.20695E+05
 0.22820000E+02 -0.22220E+05
 0.22869999E+02 -0.22926E+05
 0.22920002E+02 -0.22813E+05
 0.22970001E+02 -0.21845E+05
 0.23020000E+02 -0.18889E+05
 0.23070000E+02 -0.13344E+05
 0.23119999E+02 -0.45560E+04
 0.23170002E+02  0.59170E+04
 0.23220001E+02  0.14550E+05
 0.23270000E+02  0.18228E+05
 0.23320000E+02  0.19935E+05
 0.23369999E+02  0.24593E+05
 0.23420002E+02  0.30437E+05
 0.23470001E+02  0.38885E+05
 0.23520000E+02  0.49721E+05
 0.23570000E+02  0.59932E+05
 0.23619999E+02  0.72313E+05
 0.23670002E+02  0.92570E+05
 0.23720001E+02  0.11393E+06
 0.23770000E+02  0.12735E+06
 0.23820000E+02  0.14280E+06
 0.23869999E+02  0.16834E+06
 0.23920002E+02  0.19934E+06
 0.23970001E+02  0.21718E+06
 0.24020000E+02  0.22413E+06
 0.24070000E+02  0.23032E+06
 0.24119999E+02  0.22058E+06
 0.24170002E+02  0.20825E+06
 0.24220001E+02  0.22648E+06
 0.24270000E+02  0.24877E+06
 0.24320000E+02  0.23406E+06
 0.24369999E+02  0.21020E+06
 0.24420002E+02  0.20397E+06
 0.24470001E+02  0.21717E+06
 0.24520000E+02  0.23863E+06
 0.24570000E+02  0.24001E+06
 0.24619999E+02  0.22919E+06
 0.24670002E+02  0.22023E+06
 0.24720001E+02  0.20999E+06
 0.24770000E+02  0.22300E+06
 0.24820000E+02  0.26200E+06
 0.24869999E+02  0.27873E+06
 0.24920002E+02  0.22829E+06
 0.24970001E+02  0.13521E+06
 0.25020000E+02  0.86488E+05
 0.25070000E+02  0.92322E+05
 0.25119999E+02  0.94526E+05
 0.25170002E+02  0.81199E+05
 0.25220001E+02  0.38848E+05
 0.25270000E+02 -0.44921E+05
 0.25320000E+02 -0.11589E+06
 0.25369999E+02 -0.13205E+06
 0.25420002E+02 -0.14402E+06
 0.25470001E+02 -0.20382E+06
 0.25520000E+02 -0.27616E+06
 0.25570000E+02 -0.34743E+06
 0.25619999E+02 -0.43014E+06
 0.25670002E+02 -0.50960E+06
 0.25720001E+02 -0.49724E+06
 0.25770000E+02 -0.35900E+06
 0.25820000E+02 -0.24355E+06
 0.25869999E+02 -0.21642E+06
 0.25920002E+02 -0.26855E+06
 0.25970001E+02 -0.34150E+06
 0.26020000E+02 -0.32349E+06
 0.26070000E+02 -0.21206E+06
 0.26119999E+02 -0.14990E+06
 0.26170002E+02 -0.24620E+06
 0.26220001E+02 -0.35605E+06
 0.26270000E+02 -0.32262E+06
 0.26320000E+02 -0.15321E+06
 0.26369999E+02 -0.19457E+05
 0.26420002E+02 -0.72286E+05
 0.26470001E+02 -0.21457E+06
 0.26520000E+02 -0.26502E+06
 0.26570000E+02 -0.13726E+06
 0.26619999E+02  0.20514E+05
 0.26670002E+02  0.21673E+05
 0.26720001E+02 -0.48190E+04
 0.26770000E+02  0.64720E+05
 0.26820000E+02  0.11942E+06
 0.26869999E+02  0.83759E+05
 0.26920002E+02 -0.12609E+05
 0.26970001E+02 -0.11648E+05
 0.27020000E+02  0.11013E+06
 0.27070000E+02  0.23688E+06
 0.27119999E+02  0.31055E+06
 0.27170002E+02  0.18229E+06
 0.27220001E+02  0.28382E+05
 0.27270000E+02  0.10618E+06
 0.27320000E+02  0.20655E+06
 0.27369999E+02  0.24553E+06
 0.27420002E+02  0.31924E+06
 0.27470001E+02  0.39622E+06
 0.27520000E+02  0.47248E+06
 0.27570000E+02  0.51381E+06
 0.27619999E+02  0.33146E+06
 0.27670002E+02 -0.54909E+05
 0.27720001E+02 -0.39083E+06
 0.27770000E+02 -0.48535E+06
 0.27820000E+02 -0.33888E+06
 0.27869999E+02 -0.32779E+06
 0.27920002E+02 -0.52267E+06
 0.27970001E+02 -0.62666E+06
 0.28020000E+02 -0.55914E+06
 0.28070000E+02 -0.44858E+06
 0.28119999E+02 -0.32858E+06
 0.28169998E+02 -0.16176E+06
 0.28220001E+02 -0.10081E+06
 0.28270000E+02 -0.34645E+05
 0.28320000E+02  0.36525E+05
 0.28369999E+02 -0.13283E+05
 0.28419998E+02  0.54550E+04
 0.28470001E+02  0.14963E+06
 0.28520000E+02  0.16794E+06
 0.28570000E+02 -0.27795E+05
 0.28619999E+02 -0.14689E+06
 0.28669998E+02 -0.16130E+06
 0.28720001E+02 -0.18464E+06
 0.28770000E+02 -0.26304E+06
 0.28820000E+02 -0.51818E+06
 0.28869999E+02 -0.94442E+06
 0.28919998E+02 -0.12963E+07
 0.28970001E+02 -0.13774E+07
 0.29020000E+02 -0.12271E+07
 0.29070000E+02 -0.88005E+06
 0.29119999E+02 -0.61764E+06
 0.29169998E+02 -0.72525E+06
 0.29220001E+02 -0.10555E+07
 0.29270000E+02 -0.12038E+07
 0.29320000E+02 -0.10017E+07
 0.29369999E+02 -0.76555E+06
 0.29419998E+02 -0.60352E+06
 0.29470001E+02 -0.39602E+06
 0.29520000E+02 -0.35544E+06
 0.29570000E+02 -0.53034E+06
 0.29619999E+02 -0.44190E+06
 0.29669998E+02 -0.23186E+06
 0.29720001E+02 -0.17870E+06
 0.29770000E+02 -0.97862E+05
 0.29820000E+02 -0.18516E+06
 0.29869999E+02 -0.24792E+06
 0.29919998E+02 -0.26601E+06
 0.29970001E+02 -0.38440E+06
 0.30020000E+02 -0.32629E+06
 0.30070000E+02 -0.18378E+06
 0.30119999E+02 -0.90850E+04
 0.30169998E+02  0.34053E+05
 0.30220001E+02 -0.14206E+06
 0.30270000E+02 -0.20936E+06
 0.30320000E+02 -0.25817E+06
 0.30369999E+02 -0.29952E+06
 0.30419998E+02  0.51521E+05
 0.30470001E+02  0.47617E+06
 0.30520000E+02  0.44857E+06
 0.30570000E+02  0.10758E+06
 0.30619999E+02 -0.29784E+05
 0.30669998E+02  0.32452E+06
 0.30720001E+02  0.94966E+06
 0.30770000E+02  0.12978E+07
 0.30820000E+02  0.11166E+07
 0.30869999E+02  0.10230E+07
 0.30919998E+02  0.12971E+07
 0.30970001E+02  0.11414E+07
 0.31020000E+02  0.23153E+06
 0.31070000E+02 -0.65248E+06
 0.31119999E+02 -0.10115E+07
 0.31169998E+02 -0.77274E+06
 0.31220001E+02 -0.51004E+06
 0.31270000E+02 -0.86585E+06
 0.31320000E+02 -0.11207E+07
 0.31369999E+02 -0.88846E+06
 0.31419998E+02 -0.47086E+06
 0.31470001E+02 -0.17338E+06
 0.31520000E+02 -0.11884E+06
 0.31570000E+02 -0.12078E+06
 0.31619999E+02 -0.22894E+06
 0.31669998E+02 -0.21136E+06
 0.31720001E+02 -0.76130E+04
 0.31770000E+02  0.47073E+05
 0.31820000E+02  0.25414E+06
 0.31869999E+02  0.81276E+06
 0.31919998E+02  0.10279E+07
 0.31970001E+02  0.68273E+06
 0.32020000E+02 -0.99110E+04
 0.32070000E+02 -0.63876E+06
 0.32119999E+02 -0.63362E+06
 0.32169998E+02 -0.39768E+06
 0.32220001E+02 -0.49375E+06
 0.32270000E+02 -0.74686E+06
 0.32320000E+02 -0.34516E+06
 0.32369999E+02  0.53457E+06
 0.32419998E+02  0.94245E+06
 0.32470001E+02  0.78641E+06
 0.32520000E+02  0.30667E+06
 0.32570000E+02  0.25748E+06
 0.32619999E+02  0.53896E+06
 0.32669998E+02  0.29410E+06
 0.32720001E+02  0.17634E+05
 0.32770000E+02  0.27550E+06
 0.32820000E+02  0.66051E+06
 0.32869999E+02  0.81400E+06
 0.32919998E+02  0.95813E+06
 0.32970001E+02  0.11481E+07
 0.33020000E+02  0.12897E+07
 0.33070000E+02  0.13930E+07
 0.33119999E+02  0.13283E+07
 0.33169998E+02  0.12336E+07
 0.33220001E+02  0.13578E+07
 0.33270000E+02  0.15883E+07
 0.33320000E+02  0.16066E+07
 0.33369999E+02  0.15428E+07
 0.33419998E+02  0.13387E+07
 0.33470001E+02  0.80251E+06
 0.33520000E+02  0.52383E+06
 0.33570000E+02  0.59614E+06
 0.33619999E+02  0.65405E+06
 0.33669998E+02  0.90055E+06
 0.33720001E+02  0.13253E+07
 0.33770000E+02  0.15156E+07
 0.33820000E+02  0.13964E+07
 0.33869999E+02  0.10264E+07
 0.33919998E+02  0.62095E+06
 0.33970001E+02  0.59526E+06
 0.34020000E+02  0.88073E+06
 0.34070000E+02  0.10319E+07
 0.34119999E+02  0.92272E+06
 0.34169998E+02  0.67317E+06
 0.34220001E+02  0.29676E+06
 0.34270000E+02 -0.70398E+05
 0.34320000E+02 -0.46239E+06
 0.34369999E+02 -0.95042E+06
 0.34419998E+02 -0.12981E+07
 0.34470001E+02 -0.13464E+07
 0.34520000E+02 -0.10893E+07
 0.34570000E+02 -0.67000E+06
 0.34619999E+02 -0.35848E+06
 0.34669998E+02 -0.32174E+06
 0.34720001E+02 -0.29511E+06
 0.34770000E+02  0.26677E+05
 0.34820000E+02  0.43595E+06
 0.34869999E+02  0.52964E+06
 0.34919998E+02  0.31620E+06
 0.34970001E+02  0.24288E+06
 0.35020000E+02  0.40651E+06
 0.35070000E+02  0.46941E+06
 0.35119999E+02  0.43349E+06
 0.35169998E+02  0.44627E+06
 0.35220001E+02  0.58024E+06
 0.35270000E+02  0.85258E+06
 0.35320000E+02  0.84133E+06
 0.35369999E+02  0.34522E+06
 0.35419998E+02 -0.19215E+06
 0.35470001E+02 -0.48490E+06
 0.35520000E+02 -0.49072E+06
 0.35570000E+02 -0.18005E+06
 0.35619999E+02  0.17251E+06
 0.35669998E+02  0.38520E+06
 0.35720001E+02  0.44447E+06
 0.35770000E+02  0.50305E+06
 0.35820000E+02  0.80575E+06
 0.35869999E+02  0.10465E+07
 0.35919998E+02  0.10527E+07
 0.35970001E+02  0.93807E+06
 0.36020000E+02  0.72787E+06
 0.36070000E+02  0.56062E+06
 0.36119999E+02  0.47369E+06
 0.36169998E+02  0.37666E+06
 0.36220001E+02  0.10273E+06
 0.36270000E+02 -0.28699E+06
 0.36320000E+02 -0.64763E+06
 0.36369999E+02 -0.11371E+07
 0.36419998E+02 -0.15844E+07
 0.36470001E+02 -0.15749E+07
 0.36520000E+02 -0.13583E+07
 0.36570000E+02 -0.13001E+07
 0.36619999E+02 -0.11544E+07
 0.36669998E+02 -0.92176E+06
 0.36720001E+02 -0.76540E+06
 0.36770000E+02 -0.47056E+06
 0.36820000E+02  0.91260E+05
 0.36869999E+02  0.59333E+06
 0.36919998E+02  0.65332E+06
 0.36970001E+02  0.47196E+06
 0.37020000E+02  0.17359E+06
 0.37070000E+02 -0.19599E+06
 0.37119999E+02 -0.29488E+06
 0.37169998E+02 -0.41328E+05
 0.37220001E+02  0.28771E+06
 0.37270000E+02  0.36149E+06
 0.37320000E+02  0.16308E+06
 0.37369999E+02 -0.21935E+06
 0.37419998E+02 -0.64665E+06
 0.37470001E+02 -0.79252E+06
 0.37520000E+02 -0.50683E+06
 0.37570000E+02  0.13009E+06
 0.37619999E+02  0.69374E+06
 0.37669998E+02  0.85764E+06
 0.37720001E+02  0.77738E+06
 0.37770000E+02  0.42749E+06
 0.37820000E+02 -0.56903E+05
 0.37869999E+02 -0.37721E+06
 0.37919998E+02 -0.67891E+06
 0.37970001E+02 -0.95015E+06
 0.38020000E+02 -0.10507E+07
 0.38070000E+02 -0.10519E+07
 0.38119999E+02 -0.97937E+06
 0.38169998E+02 -0.99209E+06
 0.38220001E+02 -0.12204E+07
 0.38270000E+02 -0.14761E+07
 0.38320000E+02 -0.15191E+07
 0.38369999E+02 -0.12816E+07
 0.38419998E+02 -0.84411E+06
 0.38470001E+02 -0.32650E+06
 0.38520000E+02  0.10614E+06
 0.38570000E+02  0.36430E+06
 0.38619999E+02  0.35448E+06
 0.38669998E+02 -0.84900E+03
 0.38720001E+02 -0.30487E+06
 0.38770000E+02 -0.23257E+06
 0.38820000E+02 -0.26818E+06
 0.38869999E+02 -0.70355E+06
 0.38919998E+02 -0.11102E+07
 0.38970001E+02 -0.12173E+07
 0.39020000E+02 -0.11057E+07
 0.39070000E+02 -0.81189E+06
 0.39119999E+02 -0.43910E+06
 0.39169998E+02 -0.26478E+06
 0.39220001E+02 -0.16135E+06
 0.39270000E+02  0.87705E+05
 0.39320000E+02  0.26734E+06
 0.39369999E+02  0.41276E+06
 0.39419998E+02  0.57466E+06
 0.39470001E+02  0.45141E+06
 0.39520000E+02  0.22379E+06
 0.39570000E+02  0.22404E+06
 0.39619999E+02  0.24586E+06
 0.39669998E+02  0.17125E+06
 0.39720001E+02  0.14188E+06
 0.39770000E+02  0.25210E+06
 0.39820000E+02  0.49544E+06
 0.39869999E+02  0.61177E+06
 0.39919998E+02  0.39612E+06
 0.39970001E+02 -0.10612E+06
 0.40020000E+02 -0.79758E+06
 0.40070000E+02 -0.16237E+07
 0.40119999E+02 -0.23222E+07
 0.40169998E+02 -0.23371E+07
 0.40220001E+02 -0.17892E+07
 0.40270000E+02 -0.13048E+07
 0.40320000E+02 -0.10920E+07
 0.40369999E+02 -0.10854E+07
 0.40419998E+02 -0.10648E+07
 0.40470001E+02 -0.82708E+06
 0.40520000E+02 -0.44249E+06
 0.40570000E+02 -0.88084E+05
 0.40619999E+02  0.14650E+06
 0.40669998E+02  0.24054E+06
 0.40720001E+02  0.24468E+06
 0.40770000E+02  0.41927E+06
 0.40820000E+02  0.76453E+06
 0.40869999E+02  0.81758E+06
 0.40919998E+02  0.65725E+06
 0.40970001E+02  0.45510E+06
 0.41020000E+02 -0.14274E+05
 0.41070000E+02 -0.47736E+06
 0.41119999E+02 -0.73597E+06
 0.41169998E+02 -0.93218E+06
 0.41220001E+02 -0.95773E+06
 0.41270000E+02 -0.87618E+06
 0.41320000E+02 -0.78147E+06
 0.41369999E+02 -0.52207E+06
 0.41419998E+02  0.29830E+05
 0.41470001E+02  0.79762E+06
 0.41520000E+02  0.14431E+07
 0.41570000E+02  0.17288E+07
 0.41619999E+02  0.15078E+07
 0.41669998E+02  0.99546E+06
 0.41720001E+02  0.60961E+06
 0.41770000E+02  0.34371E+06
 0.41820000E+02  0.17425E+06
 0.41869999E+02  0.19830E+04
 0.41919998E+02 -0.31600E+06
 0.41970001E+02 -0.64158E+06
 0.42020000E+02 -0.80158E+06
 0.42070000E+02 -0.61957E+06
 0.42119999E+02  0.16446E+06
 0.42169998E+02  0.15835E+07
 0.42220001E+02  0.30705E+07
 0.42270000E+02  0.38272E+07
 0.42320000E+02  0.32646E+07
 0.42369999E+02  0.13320E+07
 0.42419998E+02 -0.11330E+07
 0.42470001E+02 -0.29901E+07
 0.42520000E+02 -0.36051E+07
 0.42570000E+02 -0.31168E+07
 0.42619999E+02 -0.19241E+07
 0.42669998E+02 -0.32384E+06
 0.42720001E+02  0.93530E+06
 0.42770000E+02  0.10562E+07
 0.42820000E+02  0.15703E+06
 0.42869999E+02 -0.80566E+06
 0.42919998E+02 -0.79717E+06
 0.42970001E+02  0.26656E+06
 0.43020000E+02  0.14384E+07
 0.43070000E+02  0.18701E+07
 0.43119999E+02  0.14705E+07
 0.43169998E+02  0.67901E+06
 0.43220001E+02 -0.12231E+06
 0.43270000E+02 -0.88746E+06
 0.43320000E+02 -0.15538E+07
 0.43369999E+02 -0.20351E+07
 0.43419998E+02 -0.22868E+07
 0.43470001E+02 -0.22042E+07
 0.43520000E+02 -0.20444E+07
 0.43570000E+02 -0.21705E+07
 0.43619999E+02 -0.25949E+07
 0.43669998E+02 -0.28224E+07
 0.43720001E+02 -0.22196E+07
 0.43770000E+02 -0.11056E+07
 0.43820000E+02 -0.20112E+06
 0.43869999E+02  0.43672E+06
 0.43919998E+02  0.11211E+07
 0.43970001E+02  0.17956E+07
 0.44020000E+02  0.19957E+07
 0.44070000E+02  0.14735E+07
 0.44119999E+02  0.39468E+06
 0.44169998E+02 -0.73646E+06
 0.44220001E+02 -0.10590E+07
 0.44270000E+02 -0.54344E+05
 0.44320000E+02  0.17176E+07
 0.44369999E+02  0.33205E+07
 0.44419998E+02  0.40763E+07
 0.44470001E+02  0.37217E+07
 0.44520000E+02  0.26515E+07
 0.44570000E+02  0.14674E+07
 0.44619999E+02  0.53645E+06
 0.44669998E+02  0.97165E+05
 0.44720001E+02  0.53477E+05
 0.44770000E+02 -0.75705E+05
 0.44820000E+02 -0.32117E+06
 0.44869999E+02 -0.29617E+06
 0.44919998E+02 -0.31774E+05
 0.44970001E+02  0.24246E+06
 0.45020000E+02  0.65921E+06
 0.45070000E+02  0.13225E+07
 0.45119999E+02  0.18724E+07
 0.45169998E+02  0.19510E+07
 0.45220001E+02  0.13943E+07
 0.45270000E+02  0.11925E+06
 0.45320000E+02 -0.15624E+07
 0.45369999E+02 -0.30914E+07
 0.45419998E+02 -0.40701E+07
 0.45470001E+02 -0.43670E+07
 0.45520000E+02 -0.41175E+07
 0.45570000E+02 -0.33105E+07
 0.45619999E+02 -0.19657E+07
 0.45669998E+02 -0.68748E+06
 0.45720001E+02  0.72110E+05
 0.45770000E+02  0.46369E+06
 0.45820000E+02  0.77250E+06
 0.45869999E+02  0.11059E+07
 0.45919998E+02  0.11214E+07
 0.45970001E+02  0.86237E+06
 0.46020000E+02  0.88485E+06
 0.46070000E+02  0.12307E+07
 0.46119999E+02  0.16718E+07
 0.46169998E+02  0.16283E+07
 0.46220001E+02  0.54582E+06
 0.46270000E+02 -0.10726E+07
 0.46320000E+02 -0.19893E+07
 0.46369999E+02 -0.15515E+07
 0.46419998E+02 -0.39663E+06
 0.46470001E+02  0.69109E+06
 0.46520000E+02  0.15731E+07
 0.46570000E+02  0.22534E+07
 0.46619999E+02  0.24032E+07
 0.46669998E+02  0.18205E+07
 0.46720001E+02  0.78980E+06
 0.46770000E+02 -0.40428E+06
 0.46820000E+02 -0.14516E+07
 0.46869999E+02 -0.18991E+07
 0.46919998E+02 -0.13889E+07
 0.46970001E+02 -0.95235E+05
 0.47020000E+02  0.12886E+07
 0.47070000E+02  0.22906E+07
 0.47119999E+02  0.29290E+07
 0.47169998E+02  0.29804E+07
 0.47220001E+02  0.21752E+07
 0.47270000E+02  0.10089E+07
 0.47320000E+02  0.24470E+04
 0.47369999E+02 -0.75888E+06
 0.47419998E+02 -0.13674E+07
 0.47470001E+02 -0.20272E+07
 0.47520000E+02 -0.30857E+07
 0.47570000E+02 -0.45809E+07
 0.47619999E+02 -0.58812E+07
 0.47669998E+02 -0.65122E+07
 0.47720001E+02 -0.63059E+07
 0.47770000E+02 -0.50418E+07
 0.47820000E+02 -0.27839E+07
 0.47869999E+02 -0.17916E+06
 0.47919998E+02  0.19427E+07
 0.47970001E+02  0.32009E+07
 0.48020000E+02  0.38119E+07
 0.48070000E+02  0.43324E+07
 0.48119999E+02  0.49974E+07
 0.48169998E+02  0.56757E+07
 0.48220001E+02  0.61392E+07
 0.48270000E+02  0.59898E+07
 0.48320000E+02  0.50268E+07
 0.48369999E+02  0.32701E+07
 0.48419998E+02  0.92140E+06
 0.48470001E+02 -0.14437E+07
 0.48520000E+02 -0.31816E+07
 0.48570000E+02 -0.37349E+07
 0.48619999E+02 -0.28882E+07
 0.48669998E+02 -0.11848E+07
 0.48720001E+02  0.68617E+06
 0.48770000E+02  0.23351E+07
 0.48820000E+02  0.33068E+07
 0.48869999E+02  0.34244E+07
 0.48919998E+02  0.29680E+07
 0.48970001E+02  0.24380E+07
 0.49020000E+02  0.21655E+07
 0.49070000E+02  0.18818E+07
 0.49119999E+02  0.13413E+07
 0.49169998E+02  0.67862E+06
 0.49220001E+02  0.50218E+05
 0.49270000E+02 -0.59270E+06
 0.49320000E+02 -0.15102E+07
 0.49369999E+02 -0.26848E+07
 0.49419998E+02 -0.35108E+07
 0.49470001E+02 -0.34419E+07
 0.49520000E+02 -0.26093E+07
 0.49570000E+02 -0.16287E+07
 0.49619999E+02 -0.12316E+07
 0.49669998E+02 -0.15352E+07
 0.49720001E+02 -0.18669E+07
 0.49770000E+02 -0.16728E+07
 0.49820000E+02 -0.98082E+06
 0.49869999E+02 -0.20122E+06
 0.49919998E+02  0.21580E+06
 0.49970001E+02  0.25578E+05
 0.50020000E+02 -0.51437E+06
 0.50070000E+02 -0.79378E+06
 0.50119999E+02 -0.62432E+06
 0.50169998E+02 -0.32944E+06
 0.50220001E+02 -0.23545E+06
 0.50270000E+02 -0.31468E+06
 0.50320000E+02  0.65606E+05
 0.50369999E+02  0.15059E+07
 0.50419998E+02  0.38213E+07
 0.50470001E+02  0.62943E+07
 0.50520000E+02  0.79738E+07
 0.50570000E+02  0.82273E+07
 0.50619999E+02  0.74104E+07
 0.50669998E+02  0.64072E+07
 0.50720001E+02  0.56657E+07
 0.50770000E+02  0.50905E+07
 0.50820000E+02  0.44357E+07
 0.50869999E+02  0.36342E+07
 0.50919998E+02  0.27691E+07
 0.50970001E+02  0.18204E+07
 0.51020000E+02  0.75778E+06
 0.51070000E+02 -0.36132E+06
 0.51119999E+02 -0.14641E+07
 0.51169998E+02 -0.24544E+07
 0.51220001E+02 -0.31311E+07
 0.51270000E+02 -0.34225E+07
 0.51320000E+02 -0.35142E+07
 0.51369999E+02 -0.34809E+07
 0.51419998E+02 -0.30342E+07
 0.51470001E+02 -0.19817E+07
 0.51520000E+02 -0.61879E+06
 0.51570000E+02  0.57423E+06
 0.51619999E+02  0.13599E+07
 0.51669998E+02  0.19629E+07
 0.51720001E+02  0.24857E+07
 0.51770000E+02  0.26911E+07
 0.51820000E+02  0.24305E+07
 0.51869999E+02  0.16790E+07
 0.51919998E+02  0.67928E+06
 0.51970001E+02 -0.18683E+06
 0.52020000E+02 -0.66888E+06
 0.52070000E+02 -0.72620E+06
 0.52119999E+02 -0.58330E+06
 0.52169998E+02 -0.50738E+06
 0.52220001E+02 -0.57826E+06
 0.52270000E+02 -0.77932E+06
 0.52320000E+02 -0.13083E+07
 0.52369999E+02 -0.22121E+07
 0.52419998E+02 -0.30174E+07
 0.52470001E+02 -0.32941E+07
 0.52520000E+02 -0.29451E+07
 0.52570000E+02 -0.21488E+07
 0.52619999E+02 -0.12034E+07
 0.52669998E+02 -0.39675E+06
 0.52720001E+02  0.30343E+05
 0.52770000E+02  0.15597E+06
 0.52820000E+02  0.26999E+06
 0.52869999E+02  0.52259E+06
 0.52919998E+02  0.88308E+06
 0.52970001E+02  0.12898E+07
 0.53020000E+02  0.17294E+07
 0.53070000E+02  0.20325E+07
 0.53119999E+02  0.19559E+07
 0.53169998E+02  0.16515E+07
 0.53220001E+02  0.15325E+07
 0.53270000E+02  0.16747E+07
 0.53320000E+02  0.18263E+07
 0.53369999E+02  0.18218E+07
 0.53419998E+02  0.16083E+07
 0.53470001E+02  0.12627E+07
 0.53520000E+02  0.88314E+06
 0.53570000E+02  0.36564E+06
 0.53619999E+02 -0.40346E+06
 0.53669998E+02 -0.13167E+07
 0.53720001E+02 -0.20401E+07
 0.53770000E+02 -0.23851E+07
 0.53820000E+02 -0.25529E+07
 0.53869999E+02 -0.28429E+07
 0.53919998E+02 -0.33846E+07
 0.53970001E+02 -0.40920E+07
 0.54020000E+02 -0.47337E+07
 0.54070000E+02 -0.51270E+07
 0.54119999E+02 -0.51642E+07
 0.54169998E+02 -0.48531E+07
 0.54220001E+02 -0.43216E+07
 0.54270000E+02 -0.35751E+07
 0.54320000E+02 -0.27346E+07
 0.54369999E+02 -0.21662E+07
 0.54419998E+02 -0.20837E+07
 0.54470001E+02 -0.22775E+07
 0.54520000E+02 -0.22932E+07
 0.54570000E+02 -0.19723E+07
 0.54619999E+02 -0.14489E+07
 0.54669998E+02 -0.81532E+06
 0.54720001E+02 -0.20867E+05
 0.54770000E+02  0.10071E+07
 0.54820000E+02  0.20892E+07
 0.54869999E+02  0.29457E+07
 0.54919998E+02  0.34529E+07
 0.54970001E+02  0.35112E+07
 0.55020000E+02  0.30173E+07
 0.55070000E+02  0.20945E+07
 0.55119999E+02  0.10341E+07
 0.55169998E+02 -0.49184E+05
 0.55220001E+02 -0.12192E+07
 0.55270000E+02 -0.23744E+07
 0.55320000E+02 -0.32056E+07
 0.55369999E+02 -0.36046E+07
 0.55419998E+02 -0.37408E+07
 0.55470001E+02 -0.38187E+07
 0.55520000E+02 -0.39488E+07
 0.55570000E+02 -0.40650E+07
 0.55619999E+02 -0.39666E+07
 0.55669998E+02 -0.35220E+07
 0.55720001E+02 -0.28541E+07
 0.55770000E+02 -0.21164E+07
 0.55820000E+02 -0.13872E+07
 0.55869999E+02 -0.74163E+06
 0.55919998E+02 -0.24091E+06
 0.55970001E+02  0.30236E+05
 0.56020000E+02  0.96507E+05
 0.56070000E+02  0.81718E+05
 0.56119999E+02  0.16061E+06
 0.56169998E+02  0.41913E+06
 0.56220001E+02  0.66884E+06
 0.56270000E+02  0.68060E+06
 0.56320000E+02  0.49896E+06
 0.56369999E+02  0.30521E+06
 0.56419998E+02  0.11883E+06
 0.56470001E+02 -0.18097E+06
 0.56520000E+02 -0.66012E+06
 0.56570000E+02 -0.11684E+07
 0.56619999E+02 -0.15299E+07
 0.56669998E+02 -0.17269E+07
 0.56720001E+02 -0.17805E+07
 0.56770000E+02 -0.16795E+07
 0.56820000E+02 -0.14334E+07
 0.56869999E+02 -0.11127E+07
 0.56919998E+02 -0.76065E+06
 0.56970001E+02 -0.42932E+06
 0.57020000E+02 -0.15481E+06
 0.57070000E+02  0.93755E+05
 0.57119999E+02  0.29830E+06
 0.57169998E+02  0.43759E+06
 0.57220001E+02  0.58752E+06
 0.57270000E+02  0.88876E+06
 0.57320000E+02  0.12991E+07
 0.57369999E+02  0.14630E+07
 0.57419998E+02  0.10367E+07
 0.57470001E+02  0.75987E+05
 0.57520000E+02 -0.97469E+06
 0.57570000E+02 -0.16073E+07
 0.57619999E+02 -0.15751E+07
 0.57669998E+02 -0.10689E+07
 0.57720001E+02 -0.50409E+06
 0.57770000E+02 -0.16919E+06
 0.57820000E+02 -0.44335E+05
 0.57869999E+02  0.10256E+06
 0.57919998E+02  0.47358E+06
 0.57970001E+02  0.11128E+07
 0.58020000E+02  0.18724E+07
 0.58070000E+02  0.25928E+07
 0.58119999E+02  0.30941E+07
 0.58169998E+02  0.31374E+07
 0.58220001E+02  0.25832E+07
 0.58270000E+02  0.14140E+07
 0.58320000E+02 -0.12149E+06
 0.58369999E+02 -0.15605E+07
 0.58419998E+02 -0.25562E+07
 0.58470001E+02 -0.29734E+07
 0.58520000E+02 -0.28530E+07
 0.58570000E+02 -0.22534E+07
 0.58619999E+02 -0.11910E+07
 0.58669998E+02  0.14596E+06
 0.58720001E+02  0.14700E+07
 0.58770000E+02  0.26346E+07
 0.58820000E+02  0.36957E+07
 0.58869999E+02  0.48190E+07
 0.58919998E+02  0.60030E+07
 0.58970001E+02  0.69650E+07
 0.59020000E+02  0.73501E+07
 0.59070000E+02  0.69768E+07
 0.59119999E+02  0.59363E+07
 0.59169998E+02  0.44949E+07
 0.59220001E+02  0.29018E+07
 0.59270000E+02  0.13285E+07
 0.59320000E+02 -0.93799E+05
 0.59369999E+02 -0.12198E+07
 0.59419998E+02 -0.18874E+07
 0.59470001E+02 -0.20663E+07
 0.59520000E+02 -0.18898E+07
 0.59570000E+02 -0.15673E+07
 0.59619999E+02 -0.12645E+07
 0.59669998E+02 -0.10172E+07
 0.59720001E+02 -0.81691E+06
 0.59770000E+02 -0.59280E+06
 0.59820000E+02 -0.24989E+06
 0.59869999E+02  0.22208E+06
 0.59919998E+02  0.73367E+06
 0.59970001E+02  0.11358E+07
 0.60020000E+02  0.13442E+07
 0.60070000E+02  0.14002E+07
 0.60119999E+02  0.14052E+07
 0.60170002E+02  0.13672E+07
 0.60219997E+02  0.12984E+07
 0.60270000E+02  0.12916E+07
 0.60320004E+02  0.14058E+07
 0.60369999E+02  0.16974E+07
 0.60420002E+02  0.21878E+07
 0.60469997E+02  0.28159E+07
 0.60520000E+02  0.34603E+07
 0.60570004E+02  0.40068E+07
 0.60619999E+02  0.43491E+07
 0.60670002E+02  0.44222E+07
 0.60719997E+02  0.42999E+07
 0.60770000E+02  0.40399E+07
 0.60820004E+02  0.37006E+07
 0.60869999E+02  0.33565E+07
 0.60920002E+02  0.29080E+07
 0.60969997E+02  0.22232E+07
 0.61020000E+02  0.12850E+07
 0.61070004E+02  0.14354E+06
 0.61119999E+02 -0.10911E+07
 0.61170002E+02 -0.22607E+07
 0.61219997E+02 -0.32009E+07
 0.61270000E+02 -0.38446E+07
 0.61320004E+02 -0.42408E+07
 0.61369999E+02 -0.44000E+07
 0.61420002E+02 -0.42985E+07
 0.61469997E+02 -0.40132E+07
 0.61520000E+02 -0.36403E+07
 0.61570004E+02 -0.31653E+07
 0.61619999E+02 -0.25724E+07
 0.61670002E+02 -0.19374E+07
 0.61719997E+02 -0.13899E+07
 0.61770000E+02 -0.10774E+07
 0.61820004E+02 -0.10630E+07
 0.61869999E+02 -0.12888E+07
 0.61920002E+02 -0.16119E+07
 0.61969997E+02 -0.18557E+07
 0.62020000E+02 -0.18992E+07
 0.62070004E+02 -0.17381E+07
 0.62119999E+02 -0.14614E+07
 0.62170002E+02 -0.11198E+07
 0.62219997E+02 -0.75988E+06
 0.62270000E+02 -0.47521E+06
 0.62320004E+02 -0.29965E+06
 0.62369999E+02 -0.16635E+06
 0.62420002E+02  0.39969E+05
 0.62469997E+02  0.35671E+06
 0.62520000E+02  0.70900E+06
 0.62570004E+02  0.97019E+06
 0.62619999E+02  0.99310E+06
 0.62670002E+02  0.73479E+06
 0.62719997E+02  0.32692E+06
 0.62770000E+02 -0.78051E+05
 0.62820004E+02 -0.39229E+06
 0.62869999E+02 -0.61292E+06
 0.62920002E+02 -0.85063E+06
 0.62969997E+02 -0.12388E+07
 0.63020000E+02 -0.18136E+07
 0.63070004E+02 -0.24775E+07
 0.63119999E+02 -0.30643E+07
 0.63170002E+02 -0.33902E+07
 0.63219997E+02 -0.33358E+07
 0.63270000E+02 -0.29066E+07
 0.63320004E+02 -0.22149E+07
 0.63369999E+02 -0.14967E+07
 0.63420002E+02 -0.98251E+06
 0.63469997E+02 -0.69152E+06
 0.63520000E+02 -0.46544E+06
 0.63570004E+02 -0.13865E+06
 0.63619999E+02  0.41190E+06
 0.63670002E+02  0.11995E+07
 0.63719997E+02  0.20533E+07
 0.63770000E+02  0.27620E+07
 0.63820004E+02  0.32240E+07
 0.63869999E+02  0.34517E+07
 0.63920002E+02  0.34832E+07
 0.63969997E+02  0.33101E+07
 0.64020004E+02  0.29370E+07
 0.64070007E+02  0.24715E+07
 0.64120003E+02  0.20381E+07
 0.64170006E+02  0.16443E+07
 0.64220001E+02  0.12730E+07
 0.64270004E+02  0.91074E+06
 0.64320007E+02  0.47517E+06
 0.64370003E+02 -0.77487E+05
 0.64420006E+02 -0.66292E+06
 0.64470001E+02 -0.11165E+07
 0.64520004E+02 -0.13264E+07
 0.64570007E+02 -0.13304E+07
 0.64620003E+02 -0.12617E+07
 0.64670006E+02 -0.12421E+07
 0.64720001E+02 -0.12911E+07
 0.64770004E+02 -0.13163E+07
 0.64820007E+02 -0.12113E+07
 0.64870003E+02 -0.93505E+06
 0.64920006E+02 -0.53034E+06
 0.64970001E+02 -0.10935E+06
 0.65020004E+02  0.22626E+06
 0.65070007E+02  0.43873E+06
 0.65120003E+02  0.54778E+06
 0.65170006E+02  0.62638E+06
 0.65220001E+02  0.73386E+06
 0.65270004E+02  0.91544E+06
 0.65320007E+02  0.12051E+07
 0.65370003E+02  0.15206E+07
 0.65420006E+02  0.17369E+07
 0.65470001E+02  0.18048E+07
 0.65520004E+02  0.17223E+07
 0.65570007E+02  0.15151E+07
 0.65620003E+02  0.12280E+07
 0.65670006E+02  0.90234E+06
 0.65720001E+02  0.55694E+06
 0.65770004E+02  0.19049E+06
 0.65820007E+02 -0.19435E+06
 0.65870003E+02 -0.58952E+06
 0.65920006E+02 -0.95968E+06
 0.65970001E+02 -0.12362E+07
 0.66020004E+02 -0.13638E+07
 0.66070007E+02 -0.13034E+07
 0.66120003E+02 -0.10871E+07
 0.66170006E+02 -0.87967E+06
 0.66220001E+02 -0.83535E+06
 0.66270004E+02 -0.96579E+06
 0.66320007E+02 -0.11895E+07
 0.66370003E+02 -0.14558E+07
 0.66420006E+02 -0.17926E+07
 0.66470001E+02 -0.21949E+07
 0.66520004E+02 -0.25906E+07
 0.66570007E+02 -0.28923E+07
 0.66620003E+02 -0.29949E+07
 0.66670006E+02 -0.28182E+07
 0.66720001E+02 -0.23305E+07
 0.66770004E+02 -0.15890E+07
 0.66820007E+02 -0.78797E+06
 0.66870003E+02 -0.13414E+06
 0.66920006E+02  0.27577E+06
 0.66970001E+02  0.50186E+06
 0.67020004E+02  0.68400E+06
 0.67070007E+02  0.85694E+06
 0.67120003E+02  0.94072E+06
 0.67170006E+02  0.86590E+06
 0.67220001E+02  0.64193E+06
 0.67270004E+02  0.33314E+06
 0.67320007E+02 -0.30160E+04
 0.67370003E+02 -0.36186E+06
 0.67420006E+02 -0.77692E+06
 0.67470001E+02 -0.12430E+07
 0.67520004E+02 -0.16752E+07
 0.67570007E+02 -0.19719E+07
 0.67620003E+02 -0.20753E+07
 0.67670006E+02 -0.19316E+07
 0.67720001E+02 -0.15155E+07
 0.67770004E+02 -0.91048E+06
 0.67820007E+02 -0.27794E+06
 0.67870003E+02  0.23023E+06
 0.67920006E+02  0.55276E+06
 0.67970001E+02  0.74637E+06
 0.68020004E+02  0.90843E+06
 0.68070007E+02  0.10845E+07
 0.68120003E+02  0.12514E+07
 0.68170006E+02  0.13677E+07
 0.68220001E+02  0.14073E+07
 0.68270004E+02  0.13605E+07
 0.68320007E+02  0.12515E+07
 0.68370003E+02  0.11273E+07
 0.68420006E+02  0.10019E+07
 0.68470001E+02  0.86838E+06
 0.68520004E+02  0.74675E+06
 0.68570007E+02  0.65921E+06
 0.68620003E+02  0.61372E+06
 0.68670006E+02  0.62199E+06
 0.68720001E+02  0.67257E+06
 0.68770004E+02  0.70678E+06
 0.68820007E+02  0.64677E+06
 0.68870003E+02  0.46620E+06
 0.68920006E+02  0.20176E+06
 0.68970001E+02 -0.11835E+06
 0.69020004E+02 -0.47096E+06
 0.69070007E+02 -0.80016E+06
 0.69120003E+02 -0.10685E+07
 0.69170006E+02 -0.12682E+07
 0.69220001E+02 -0.13831E+07
 0.69270004E+02 -0.14115E+07
 0.69320007E+02 -0.13606E+07
 0.69370003E+02 -0.12191E+07
 0.69420006E+02 -0.96125E+06
 0.69470001E+02 -0.58426E+06
 0.69520004E+02 -0.14013E+06
 0.69570007E+02  0.30143E+06
 0.69620003E+02  0.69585E+06
 0.69670006E+02  0.10062E+07
 0.69720001E+02  0.12022E+07
 0.69770004E+02  0.12940E+07
 0.69820007E+02  0.12933E+07
 0.69870003E+02  0.12112E+07
 0.69920006E+02  0.10832E+07
 0.69970001E+02  0.96533E+06
 0.70020004E+02  0.94725E+06
 0.70070007E+02  0.10984E+07
 0.70120003E+02  0.14012E+07
 0.70170006E+02  0.17503E+07
 0.70220001E+02  0.20411E+07
 0.70270004E+02  0.22382E+07
 0.70320007E+02  0.23568E+07
 0.70370003E+02  0.23968E+07
 0.70420006E+02  0.23111E+07
 0.70470001E+02  0.20634E+07
 0.70520004E+02  0.16467E+07
 0.70570007E+02  0.11010E+07
 0.70620003E+02  0.51781E+06
 0.70670006E+02 -0.27531E+05
 0.70720001E+02 -0.51585E+06
 0.70770004E+02 -0.95822E+06
 0.70820007E+02 -0.13395E+07
 0.70870003E+02 -0.16285E+07
 0.70920006E+02 -0.18263E+07
 0.70970001E+02 -0.19571E+07
 0.71020004E+02 -0.20275E+07
 0.71070007E+02 -0.20020E+07
 0.71120003E+02 -0.18487E+07
 0.71170006E+02 -0.15860E+07
 0.71220001E+02 -0.12544E+07
 0.71270004E+02 -0.90149E+06
 0.71320007E+02 -0.56892E+06
 0.71370003E+02 -0.25730E+06
 0.71420006E+02  0.58231E+05
 0.71470001E+02  0.35666E+06
 0.71520004E+02  0.54660E+06
 0.71570007E+02  0.55903E+06
 0.71620003E+02  0.41127E+06
 0.71670006E+02  0.15104E+06
 0.71720001E+02 -0.18842E+06
 0.71770004E+02 -0.58839E+06
 0.71820007E+02 -0.99792E+06
 0.71870003E+02 -0.13247E+07
 0.71920006E+02 -0.15208E+07
 0.71970001E+02 -0.15963E+07
 0.72020004E+02 -0.15852E+07
 0.72070007E+02 -0.15190E+07
 0.72120003E+02 -0.13902E+07
 0.72170006E+02 -0.11600E+07
 0.72220001E+02 -0.80648E+06
 0.72270004E+02 -0.35432E+06
 0.72320007E+02  0.14981E+06
 0.72370003E+02  0.63716E+06
 0.72420006E+02  0.10192E+07
 0.72470001E+02  0.12626E+07
 0.72520004E+02  0.13876E+07
 0.72570007E+02  0.14271E+07
 0.72620003E+02  0.14283E+07
 0.72670006E+02  0.14403E+07
 0.72720001E+02  0.15157E+07
 0.72770004E+02  0.16792E+07
 0.72820007E+02  0.19006E+07
 0.72870003E+02  0.21133E+07
 0.72920006E+02  0.22268E+07
 0.72970001E+02  0.21553E+07
 0.73020004E+02  0.18514E+07
 0.73070007E+02  0.13266E+07
 0.73120003E+02  0.63582E+06
 0.73170006E+02 -0.15016E+06
 0.73220001E+02 -0.93215E+06
 0.73270004E+02 -0.16021E+07
 0.73320007E+02 -0.21040E+07
 0.73370003E+02 -0.24401E+07
 0.73420006E+02 -0.26270E+07
 0.73470001E+02 -0.26640E+07
 0.73520004E+02 -0.25375E+07
 0.73570007E+02 -0.22637E+07
 0.73620003E+02 -0.19282E+07
 0.73670006E+02 -0.16327E+07
 0.73720001E+02 -0.14170E+07
 0.73770004E+02 -0.12579E+07
 0.73820007E+02 -0.11023E+07
 0.73870003E+02 -0.90551E+06
 0.73920006E+02 -0.63592E+06
 0.73970001E+02 -0.27161E+06
 0.74020004E+02  0.17132E+06
 0.74070007E+02  0.63785E+06
 0.74120003E+02  0.10674E+07
 0.74170006E+02  0.14261E+07
 0.74220001E+02  0.17032E+07
 0.74270004E+02  0.18935E+07
 0.74320007E+02  0.20194E+07
 0.74370003E+02  0.20974E+07
 0.74420006E+02  0.20841E+07
 0.74470001E+02  0.19164E+07
 0.74520004E+02  0.15519E+07
 0.74570007E+02  0.99258E+06
 0.74620003E+02  0.30325E+06
 0.74670006E+02 -0.40709E+06
 0.74720001E+02 -0.10215E+07
 0.74770004E+02 -0.14555E+07
 0.74820007E+02 -0.16676E+07
 0.74870003E+02 -0.16650E+07
 0.74920006E+02 -0.14865E+07
 0.74970001E+02 -0.11713E+07
 0.75020004E+02 -0.76883E+06
 0.75070007E+02 -0.33495E+06
 0.75120003E+02  0.92310E+05
 0.75170006E+02  0.49031E+06
 0.75220001E+02  0.83090E+06
 0.75270004E+02  0.10669E+07
 0.75320007E+02  0.11220E+07
 0.75370003E+02  0.93639E+06
 0.75420006E+02  0.52714E+06
 0.75470001E+02 -0.26000E+05
 0.75520004E+02 -0.60655E+06
 0.75570007E+02 -0.10944E+07
 0.75620003E+02 -0.14135E+07
 0.75670006E+02 -0.15348E+07
 0.75720001E+02 -0.14572E+07
 0.75770004E+02 -0.12241E+07
 0.75820007E+02 -0.91307E+06
 0.75870003E+02 -0.60382E+06
 0.75920006E+02 -0.37020E+06
 0.75970001E+02 -0.24367E+06
 0.76020004E+02 -0.18986E+06
 0.76070007E+02 -0.14651E+06
 0.76120003E+02 -0.70275E+05
 0.76170006E+02  0.42934E+05
 0.76220001E+02  0.17556E+06
 0.76270004E+02  0.31787E+06
 0.76320007E+02  0.46021E+06
 0.76370003E+02  0.58298E+06
 0.76420006E+02  0.67215E+06
 0.76470001E+02  0.72698E+06
 0.76520004E+02  0.75062E+06
 0.76570007E+02  0.72804E+06
 0.76620003E+02  0.63495E+06
 0.76670006E+02  0.46772E+06
 0.76720001E+02  0.25991E+06
 0.76770004E+02  0.61258E+05
 0.76820007E+02 -0.10271E+06
 0.76870003E+02 -0.22228E+06
 0.76920006E+02 -0.29792E+06
 0.76970001E+02 -0.33772E+06
 0.77020004E+02 -0.32966E+06
 0.77070007E+02 -0.24216E+06
 0.77120003E+02 -0.65930E+05
 0.77170006E+02  0.15953E+06
 0.77220001E+02  0.37594E+06
 0.77270004E+02  0.54931E+06
 0.77320007E+02  0.69046E+06
 0.77370003E+02  0.81393E+06
 0.77420006E+02  0.89871E+06
 0.77470001E+02  0.89205E+06
 0.77520004E+02  0.73658E+06
 0.77570007E+02  0.43751E+06
 0.77620003E+02  0.64885E+05
 0.77670006E+02 -0.28747E+06
 0.77720001E+02 -0.52863E+06
 0.77770004E+02 -0.60188E+06
 0.77820007E+02 -0.49096E+06
 0.77870003E+02 -0.23078E+06
 0.77920006E+02  0.96989E+05
 0.77970001E+02  0.40074E+06
 0.78020004E+02  0.59896E+06
 0.78070007E+02  0.64499E+06
 0.78120003E+02  0.55938E+06
 0.78170006E+02  0.41863E+06
 0.78220001E+02  0.29470E+06
 0.78270004E+02  0.20503E+06
 0.78320007E+02  0.11668E+06
 0.78370003E+02 -0.14058E+05
 0.78420006E+02 -0.20387E+06
 0.78470001E+02 -0.43457E+06
 0.78520004E+02 -0.64649E+06
 0.78570007E+02 -0.75738E+06
 0.78620003E+02 -0.72108E+06
 0.78670006E+02 -0.56245E+06
 0.78720001E+02 -0.36757E+06
 0.78770004E+02 -0.23284E+06
 0.78820007E+02 -0.21737E+06
 0.78870003E+02 -0.31608E+06
 0.78920006E+02 -0.47352E+06
 0.78970001E+02 -0.63323E+06
 0.79020004E+02 -0.76058E+06
 0.79070007E+02 -0.86027E+06
 0.79120003E+02 -0.96074E+06
 0.79170006E+02 -0.10715E+07
 0.79220001E+02 -0.11842E+07
 0.79270004E+02 -0.12683E+07
 0.79320007E+02 -0.12761E+07
 0.79370003E+02 -0.11745E+07
 0.79420006E+02 -0.94906E+06
 0.79470001E+02 -0.59973E+06
 0.79520004E+02 -0.13453E+06
 0.79570007E+02  0.41706E+06
 0.79620003E+02  0.98759E+06
 0.79670006E+02  0.15190E+07
 0.79720001E+02  0.19740E+07
 0.79770004E+02  0.22983E+07
 0.79820007E+02  0.24390E+07
 0.79870003E+02  0.23776E+07
 0.79920006E+02  0.21368E+07
 0.79970001E+02  0.17753E+07
 0.80020004E+02  0.13720E+07
 0.80070007E+02  0.99926E+06
 0.80120003E+02  0.68621E+06
 0.80170006E+02  0.42213E+06
 0.80220001E+02  0.20364E+06
 0.80270004E+02  0.47216E+05
 0.80320007E+02 -0.29164E+05
 0.80370003E+02 -0.18276E+05
 0.80420006E+02  0.56554E+05
 0.80470001E+02  0.14351E+06
 0.80520004E+02  0.18682E+06
 0.80570007E+02  0.15785E+06
 0.80620003E+02  0.76682E+05
 0.80670006E+02 -0.29690E+05
 0.80720001E+02 -0.15810E+06
 0.80770004E+02 -0.31791E+06
 0.80820007E+02 -0.51655E+06
 0.80870003E+02 -0.75047E+06
 0.80920006E+02 -0.10177E+07
 0.80970001E+02 -0.13023E+07
 0.81020004E+02 -0.15554E+07
 0.81070007E+02 -0.17106E+07
 0.81120003E+02 -0.17058E+07
 0.81170006E+02 -0.15083E+07
 0.81220001E+02 -0.11279E+07
 0.81270004E+02 -0.61978E+06
 0.81320007E+02 -0.64777E+05
 0.81370003E+02  0.45912E+06
 0.81420006E+02  0.88431E+06
 0.81470001E+02  0.11611E+07
 0.81520004E+02  0.12754E+07
 0.81570007E+02  0.12444E+07
 0.81620003E+02  0.10907E+07
 0.81670006E+02  0.85080E+06
 0.81720001E+02  0.58013E+06
 0.81770004E+02  0.33734E+06
 0.81820007E+02  0.16838E+06
 0.81870003E+02  0.79275E+05
 0.81920006E+02  0.25095E+05
 0.81970001E+02 -0.49220E+05
 0.82020004E+02 -0.15804E+06
 0.82070007E+02 -0.26640E+06
 0.82120003E+02 -0.30887E+06
 0.82170006E+02 -0.25238E+06
 0.82220001E+02 -0.13590E+06
 0.82270004E+02 -0.26923E+05
 0.82320007E+02  0.23420E+05
 0.82370003E+02 -0.22930E+04
 0.82420006E+02 -0.97035E+05
 0.82470001E+02 -0.24650E+06
 0.82520004E+02 -0.43184E+06
 0.82570007E+02 -0.63344E+06
 0.82620003E+02 -0.83381E+06
 0.82670006E+02 -0.10120E+07
 0.82720001E+02 -0.11448E+07
 0.82770004E+02 -0.12294E+07
 0.82820007E+02 -0.12836E+07
 0.82870003E+02 -0.13126E+07
 0.82920006E+02 -0.13040E+07
 0.82970001E+02 -0.12532E+07
 0.83020004E+02 -0.11749E+07
 0.83070007E+02 -0.10837E+07
 0.83120003E+02 -0.96966E+06
 0.83170006E+02 -0.79780E+06
 0.83220001E+02 -0.54139E+06
 0.83270004E+02 -0.21622E+06
 0.83320007E+02  0.11414E+06
 0.83370003E+02  0.37329E+06
 0.83420006E+02  0.52056E+06
 0.83470001E+02  0.55188E+06
 0.83520004E+02  0.48141E+06
 0.83570007E+02  0.34665E+06
 0.83620003E+02  0.21070E+06
 0.83670006E+02  0.12687E+06
 0.83720001E+02  0.11154E+06
 0.83770004E+02  0.15742E+06
 0.83820007E+02  0.24656E+06
 0.83870003E+02  0.36234E+06
 0.83920006E+02  0.48690E+06
 0.83970001E+02  0.60515E+06
 0.84020004E+02  0.71204E+06
 0.84070007E+02  0.80133E+06
 0.84120003E+02  0.87126E+06
 0.84170006E+02  0.92598E+06
 0.84220001E+02  0.96443E+06
 0.84270004E+02  0.96760E+06
 0.84320007E+02  0.91930E+06
 0.84370003E+02  0.83977E+06
 0.84420006E+02  0.77574E+06
 0.84470001E+02  0.77430E+06
 0.84520004E+02  0.84806E+06
 0.84570007E+02  0.96498E+06
 0.84620003E+02  0.10756E+07
 0.84670006E+02  0.11326E+07
 0.84720001E+02  0.11044E+07
 0.84770004E+02  0.98270E+06
 0.84820007E+02  0.78707E+06
 0.84870003E+02  0.56161E+06
 0.84920006E+02  0.35046E+06
 0.84970001E+02  0.17381E+06
 0.85020004E+02  0.20376E+05
 0.85070007E+02 -0.13968E+06
 0.85120003E+02 -0.34394E+06
 0.85170006E+02 -0.61340E+06
 0.85220001E+02 -0.91962E+06
 0.85270004E+02 -0.12102E+07
 0.85320007E+02 -0.14527E+07
 0.85370003E+02 -0.16377E+07
 0.85420006E+02 -0.17647E+07
 0.85470001E+02 -0.18400E+07
 0.85520004E+02 -0.18766E+07
 0.85570007E+02 -0.18693E+07
 0.85620003E+02 -0.17954E+07
 0.85670006E+02 -0.16535E+07
 0.85720001E+02 -0.14655E+07
 0.85770004E+02 -0.12696E+07
 0.85820007E+02 -0.11117E+07
 0.85870003E+02 -0.10090E+07
 0.85920006E+02 -0.94000E+06
 0.85970001E+02 -0.86623E+06
 0.86020004E+02 -0.75127E+06
 0.86070007E+02 -0.57652E+06
 0.86120003E+02 -0.34985E+06
 0.86170006E+02 -0.90056E+05
 0.86220001E+02  0.18263E+06
 0.86270004E+02  0.43981E+06
 0.86320007E+02  0.65050E+06
 0.86370003E+02  0.79754E+06
 0.86420006E+02  0.89237E+06
 0.86470001E+02  0.95876E+06
 0.86520004E+02  0.10115E+07
 0.86570007E+02  0.10448E+07
 0.86620003E+02  0.10347E+07
 0.86670006E+02  0.95934E+06
 0.86720001E+02  0.81620E+06
 0.86770004E+02  0.63890E+06
 0.86820007E+02  0.48828E+06
 0.86870003E+02  0.42696E+06
 0.86920006E+02  0.49649E+06
 0.86970001E+02  0.69252E+06
 0.87020004E+02  0.96083E+06
 0.87070007E+02  0.12260E+07
 0.87120003E+02  0.14246E+07
 0.87170006E+02  0.15208E+07
 0.87220001E+02  0.15219E+07
 0.87270004E+02  0.14718E+07
 0.87320007E+02  0.14159E+07
 0.87370003E+02  0.13657E+07
 0.87420006E+02  0.12921E+07
 0.87470001E+02  0.11579E+07
 0.87520004E+02  0.94084E+06
 0.87570007E+02  0.64146E+06
 0.87620003E+02  0.28948E+06
 0.87670006E+02 -0.62633E+05
 0.87720001E+02 -0.35266E+06
 0.87770004E+02 -0.53640E+06
 0.87820007E+02 -0.60808E+06
 0.87870003E+02 -0.59152E+06
 0.87920006E+02 -0.52081E+06
 0.87970001E+02 -0.42840E+06
 0.88020004E+02 -0.34718E+06
 0.88070007E+02 -0.30672E+06
 0.88120003E+02 -0.32043E+06
 0.88170006E+02 -0.38778E+06
 0.88220001E+02 -0.50255E+06
 0.88270004E+02 -0.65105E+06
 0.88320007E+02 -0.82115E+06
 0.88370003E+02 -0.10114E+07
 0.88420006E+02 -0.12188E+07
 0.88470001E+02 -0.14208E+07
 0.88520004E+02 -0.15752E+07
 0.88570007E+02 -0.16501E+07
 0.88620003E+02 -0.16531E+07
 0.88670006E+02 -0.16234E+07
 0.88720001E+02 -0.15954E+07
 0.88770004E+02 -0.15693E+07
 0.88820007E+02 -0.15247E+07
 0.88870003E+02 -0.14418E+07
 0.88920006E+02 -0.13067E+07
 0.88970001E+02 -0.11147E+07
 0.89020004E+02 -0.87034E+06
 0.89070007E+02 -0.58712E+06
 0.89120003E+02 -0.28033E+06
 0.89170006E+02  0.34502E+05
 0.89220001E+02  0.33712E+06
 0.89270004E+02  0.61207E+06
 0.89320007E+02  0.85713E+06
 0.89370003E+02  0.10754E+07
 0.89420006E+02  0.12678E+07
 0.89470001E+02  0.14358E+07
 0.89520004E+02  0.15865E+07
 0.89570007E+02  0.17314E+07
 0.89620003E+02  0.18664E+07
 0.89670006E+02  0.19648E+07
 0.89720001E+02  0.19943E+07
 0.89770004E+02  0.19437E+07
 0.89820007E+02  0.18410E+07
 0.89870003E+02  0.17278E+07
 0.89920006E+02  0.16325E+07
 0.89970001E+02  0.15575E+07
 0.90020004E+02  0.14717E+07
 0.90070007E+02  0.13270E+07
 0.90120003E+02  0.10748E+07
 0.90170006E+02  0.70181E+06
 0.90220001E+02  0.25467E+06
 0.90270004E+02 -0.19177E+06
 0.90320007E+02 -0.56342E+06
 0.90370003E+02 -0.81719E+06
 0.90420006E+02 -0.95411E+06
 0.90470001E+02 -0.98837E+06
 0.90520004E+02 -0.93535E+06
 0.90570007E+02 -0.81966E+06
 0.90620003E+02 -0.67383E+06
 0.90670006E+02 -0.53422E+06
 0.90720001E+02 -0.42828E+06
 0.90770004E+02 -0.36040E+06
 0.90820007E+02 -0.31205E+06
 0.90870003E+02 -0.26602E+06
 0.90920006E+02 -0.23636E+06
 0.90970001E+02 -0.24369E+06
 0.91020004E+02 -0.28847E+06
 0.91070007E+02 -0.36135E+06
 0.91120003E+02 -0.44568E+06
 0.91170006E+02 -0.53447E+06
 0.91220001E+02 -0.63085E+06
 0.91270004E+02 -0.72464E+06
 0.91320007E+02 -0.79098E+06
 0.91370003E+02 -0.80711E+06
 0.91420006E+02 -0.77333E+06
 0.91470001E+02 -0.71349E+06
 0.91520004E+02 -0.64957E+06
 0.91570007E+02 -0.58134E+06
 0.91620003E+02 -0.49826E+06
 0.91670006E+02 -0.40391E+06
 0.91720001E+02 -0.32123E+06
 0.91770004E+02 -0.27377E+06
 0.91820007E+02 -0.26807E+06
 0.91870003E+02 -0.29043E+06
 0.91920006E+02 -0.31498E+06
 0.91970001E+02 -0.31567E+06
 0.92020004E+02 -0.26849E+06
 0.92070007E+02 -0.16884E+06
 0.92120003E+02 -0.37533E+05
 0.92170006E+02  0.10196E+06
 0.92220001E+02  0.22533E+06
 0.92270004E+02  0.30588E+06
 0.92320007E+02  0.33093E+06
 0.92370003E+02  0.30550E+06
 0.92420006E+02  0.23464E+06
 0.92470001E+02  0.12353E+06
 0.92520004E+02 -0.78530E+04
 0.92570007E+02 -0.14217E+06
 0.92620003E+02 -0.27880E+06
 0.92670006E+02 -0.40782E+06
 0.92720001E+02 -0.49694E+06
 0.92770004E+02 -0.51571E+06
 0.92820007E+02 -0.45324E+06
 0.92870003E+02 -0.32268E+06
 0.92920006E+02 -0.16291E+06
 0.92970001E+02 -0.11112E+05
 0.93020004E+02  0.12062E+06
 0.93070007E+02  0.24272E+06
 0.93120003E+02  0.36525E+06
 0.93170006E+02  0.46187E+06
 0.93220001E+02  0.48478E+06
 0.93270004E+02  0.41622E+06
 0.93320007E+02  0.29026E+06
 0.93370003E+02  0.16762E+06
 0.93420006E+02  0.91016E+05
 0.93470001E+02  0.61337E+05
 0.93520004E+02  0.47263E+05
 0.93570007E+02  0.18189E+05
 0.93620003E+02 -0.37394E+05
 0.93670006E+02 -0.12073E+06
 0.93720001E+02 -0.23459E+06
 0.93770004E+02 -0.37563E+06
 0.93820007E+02 -0.52193E+06
 0.93870003E+02 -0.64367E+06
 0.93920006E+02 -0.71558E+06
 0.93970001E+02 -0.72149E+06
 0.94020004E+02 -0.66184E+06
 0.94070007E+02 -0.54805E+06
 0.94120003E+02 -0.39397E+06
 0.94170006E+02 -0.22012E+06
 0.94220001E+02 -0.44999E+05
 0.94270004E+02  0.13141E+06
 0.94320007E+02  0.32073E+06
 0.94370003E+02  0.52222E+06
 0.94420006E+02  0.71248E+06
 0.94470001E+02  0.86868E+06
 0.94520004E+02  0.98600E+06
 0.94570007E+02  0.10661E+07
 0.94620003E+02  0.11083E+07
 0.94670006E+02  0.11132E+07
 0.94720001E+02  0.10888E+07
 0.94770004E+02  0.10499E+07
 0.94820007E+02  0.10122E+07
 0.94870003E+02  0.97854E+06
 0.94920006E+02  0.93507E+06
 0.94970001E+02  0.87289E+06
 0.95020004E+02  0.79138E+06
 0.95070007E+02  0.69019E+06
 0.95120003E+02  0.58115E+06
 0.95170006E+02  0.47310E+06
 0.95220001E+02  0.35126E+06
 0.95270004E+02  0.19333E+06
 0.95320007E+02 -0.13523E+05
 0.95370003E+02 -0.26358E+06
 0.95420006E+02 -0.53385E+06
 0.95470001E+02 -0.79523E+06
 0.95520004E+02 -0.10242E+07
 0.95570007E+02 -0.12153E+07
 0.95620003E+02 -0.13628E+07
 0.95670006E+02 -0.14474E+07
 0.95720001E+02 -0.14577E+07
 0.95770004E+02 -0.13915E+07
 0.95820007E+02 -0.12530E+07
 0.95870003E+02 -0.10592E+07
 0.95920006E+02 -0.82921E+06
 0.95970001E+02 -0.57338E+06
 0.96020004E+02 -0.30162E+06
 0.96070007E+02 -0.33178E+05
 0.96120003E+02  0.20621E+06
 0.96170006E+02  0.39832E+06
 0.96220001E+02  0.54043E+06
 0.96270004E+02  0.63217E+06
 0.96320007E+02  0.66650E+06
 0.96370003E+02  0.64510E+06
 0.96420006E+02  0.59145E+06
 0.96470001E+02  0.53207E+06
 0.96520004E+02  0.47791E+06
 0.96570007E+02  0.42694E+06
 0.96620003E+02  0.37171E+06
 0.96670006E+02  0.30790E+06
 0.96720001E+02  0.23300E+06
 0.96770004E+02  0.14680E+06
 0.96820007E+02  0.51963E+05
 0.96870003E+02 -0.50805E+05
 0.96920006E+02 -0.15303E+06
 0.96970001E+02 -0.24565E+06
 0.97020004E+02 -0.33999E+06
 0.97070007E+02 -0.45961E+06
 0.97120003E+02 -0.61686E+06
 0.97170006E+02 -0.80427E+06
 0.97220001E+02 -0.10033E+07
 0.97270004E+02 -0.11883E+07
 0.97320007E+02 -0.13314E+07
 0.97370003E+02 -0.14142E+07
 0.97420006E+02 -0.14263E+07
 0.97470001E+02 -0.13689E+07
 0.97520004E+02 -0.12632E+07
 0.97570007E+02 -0.11364E+07
 0.97620003E+02 -0.10102E+07
 0.97670006E+02 -0.90036E+06
 0.97720001E+02 -0.81714E+06
 0.97770004E+02 -0.75385E+06
 0.97820007E+02 -0.68361E+06
 0.97870003E+02 -0.57884E+06
 0.97920006E+02 -0.42053E+06
 0.97970001E+02 -0.20190E+06
 0.98020004E+02  0.56255E+05
 0.98070007E+02  0.30847E+06
 0.98120003E+02  0.51332E+06
 0.98170006E+02  0.64810E+06
 0.98220001E+02  0.70659E+06
 0.98270004E+02  0.69976E+06
 0.98320007E+02  0.64902E+06
 0.98370003E+02  0.57184E+06
 0.98420006E+02  0.48348E+06
 0.98470001E+02  0.40951E+06
 0.98520004E+02  0.37180E+06
 0.98570007E+02  0.37338E+06
 0.98620003E+02  0.41106E+06
 0.98670006E+02  0.47942E+06
 0.98720001E+02  0.57452E+06
 0.98770004E+02  0.69372E+06
 0.98820007E+02  0.81415E+06
 0.98870003E+02  0.90021E+06
 0.98920006E+02  0.93469E+06
 0.98970001E+02  0.93112E+06
 0.99020004E+02  0.91103E+06
 0.99070007E+02  0.87578E+06
 0.99120003E+02  0.82036E+06
 0.99170006E+02  0.75184E+06
 0.99220001E+02  0.67772E+06
 0.99270004E+02  0.59125E+06
 0.99320007E+02  0.48011E+06
 0.99370003E+02  0.33941E+06
 0.99420006E+02  0.17281E+06
 0.99470001E+02 -0.52200E+04
 0.99520004E+02 -0.17721E+06
 0.99570007E+02 -0.33295E+06
 0.99620003E+02 -0.46770E+06
 0.99670006E+02 -0.57275E+06
 0.99720001E+02 -0.63352E+06
 0.99770004E+02 -0.64122E+06
 0.99820007E+02 -0.59968E+06
 0.99870003E+02 -0.52945E+06
 0.99920006E+02 -0.45351E+06
 0.99970001E+02 -0.38232E+06
 0.10002000E+03 -0.32181E+06
 0.10007001E+03 -0.26712E+06
 0.10012000E+03 -0.20151E+06
 0.10017001E+03 -0.10765E+06
 0.10022000E+03  0.32230E+05
 0.10027000E+03  0.23180E+06
 0.10032001E+03  0.48571E+06
 0.10037000E+03  0.76160E+06
 0.10042001E+03  0.10179E+07
 0.10047000E+03  0.12235E+07
 0.10052000E+03  0.13616E+07
 0.10057001E+03  0.14262E+07
 0.10062000E+03  0.14132E+07
 0.10067001E+03  0.13191E+07
 0.10072000E+03  0.11453E+07
 0.10077000E+03  0.90551E+06
 0.10082001E+03  0.62762E+06
 0.10087000E+03  0.34496E+06
 0.10092001E+03  0.82549E+05
 0.10097000E+03 -0.15531E+06
 0.10102000E+03 -0.37737E+06
 0.10107001E+03 -0.58980E+06
 0.10112000E+03 -0.78990E+06
 0.10117001E+03 -0.96368E+06
 0.10122000E+03 -0.10865E+07
 0.10127000E+03 -0.11368E+07
 0.10132001E+03 -0.11107E+07
 0.10137000E+03 -0.10144E+07
 0.10142001E+03 -0.85655E+06
 0.10147000E+03 -0.65091E+06
 0.10152000E+03 -0.42363E+06
 0.10157001E+03 -0.20496E+06
 0.10162000E+03 -0.58590E+04
 0.10167001E+03  0.17311E+06
 0.10172000E+03  0.33786E+06
 0.10177000E+03  0.50535E+06
 0.10182001E+03  0.67796E+06
 0.10187000E+03  0.83790E+06
 0.10192001E+03  0.97066E+06
 0.10197000E+03  0.10813E+07
 0.10202000E+03  0.11788E+07
 0.10207001E+03  0.12489E+07
 0.10212000E+03  0.12614E+07
 0.10217001E+03  0.11980E+07
 0.10222000E+03  0.10665E+07
 0.10227000E+03  0.89589E+06
 0.10232001E+03  0.71154E+06
 0.10237000E+03  0.52102E+06
 0.10242001E+03  0.32387E+06
 0.10247000E+03  0.11364E+06
 0.10252000E+03 -0.11007E+06
 0.10257001E+03 -0.33639E+06
 0.10262000E+03 -0.55747E+06
 0.10267001E+03 -0.77476E+06
 0.10272000E+03 -0.99237E+06
 0.10277000E+03 -0.12015E+07
 0.10282001E+03 -0.13847E+07
 0.10287000E+03 -0.15284E+07
 0.10292001E+03 -0.16220E+07
 0.10297000E+03 -0.16578E+07
 0.10302000E+03 -0.16338E+07
 0.10307001E+03 -0.15573E+07
 0.10312000E+03 -0.14439E+07
 0.10317001E+03 -0.13068E+07
 0.10322000E+03 -0.11532E+07
 0.10327000E+03 -0.98918E+06
 0.10332001E+03 -0.82206E+06
 0.10337000E+03 -0.65649E+06
 0.10342001E+03 -0.49194E+06
 0.10347000E+03 -0.32731E+06
 0.10352000E+03 -0.16015E+06
 0.10357001E+03  0.22650E+04
 0.10362000E+03  0.14189E+06
 0.10367001E+03  0.25495E+06
 0.10372000E+03  0.34223E+06
 0.10377000E+03  0.40304E+06
 0.10382001E+03  0.45177E+06
 0.10387000E+03  0.50874E+06
 0.10392001E+03  0.58346E+06
 0.10397000E+03  0.66501E+06
 0.10402000E+03  0.73330E+06
 0.10407001E+03  0.77024E+06
 0.10412000E+03  0.75720E+06
 0.10417001E+03  0.69055E+06
 0.10422000E+03  0.59052E+06
 0.10427000E+03  0.48866E+06
 0.10432001E+03  0.41018E+06
 0.10437000E+03  0.35554E+06
 0.10442001E+03  0.30754E+06
 0.10447000E+03  0.25258E+06
 0.10452000E+03  0.17888E+06
 0.10457001E+03  0.78655E+05
 0.10462000E+03 -0.41638E+05
 0.10467001E+03 -0.16342E+06
 0.10472000E+03 -0.26236E+06
 0.10477000E+03 -0.32393E+06
 0.10482001E+03 -0.35188E+06
 0.10487000E+03 -0.36024E+06
 0.10492001E+03 -0.36519E+06
 0.10497000E+03 -0.37956E+06
 0.10502000E+03 -0.40192E+06
 0.10507001E+03 -0.41868E+06
 0.10512000E+03 -0.42202E+06
 0.10517001E+03 -0.40674E+06
 0.10522000E+03 -0.36329E+06
 0.10527000E+03 -0.29052E+06
 0.10532001E+03 -0.20826E+06
 0.10537000E+03 -0.14307E+06
 0.10542001E+03 -0.10530E+06
 0.10547000E+03 -0.96983E+05
 0.10552000E+03 -0.12311E+06
 0.10557001E+03 -0.18617E+06
 0.10562000E+03 -0.27568E+06
 0.10567001E+03 -0.36463E+06
 0.10572000E+03 -0.42260E+06
 0.10577000E+03 -0.42984E+06
 0.10582001E+03 -0.38385E+06
 0.10587000E+03 -0.29071E+06
 0.10592001E+03 -0.16136E+06
 0.10597000E+03 -0.17308E+05
 0.10602000E+03  0.11910E+06
 0.10607001E+03  0.23327E+06
 0.10612000E+03  0.31696E+06
 0.10617001E+03  0.36224E+06
 0.10622000E+03  0.36146E+06
 0.10627000E+03  0.31163E+06
 0.10632001E+03  0.22334E+06
 0.10637000E+03  0.12352E+06
 0.10642001E+03  0.38372E+05
 0.10647000E+03 -0.17699E+05
 0.10652000E+03 -0.46968E+05
 0.10657001E+03 -0.58853E+05
 0.10662000E+03 -0.52918E+05
 0.10667001E+03 -0.26230E+05
 0.10672000E+03  0.16079E+05
 0.10677000E+03  0.62882E+05
 0.10682001E+03  0.10771E+06
 0.10687000E+03  0.15607E+06
 0.10692001E+03  0.21097E+06
 0.10697000E+03  0.26452E+06
 0.10702000E+03  0.31196E+06
 0.10707001E+03  0.35832E+06
 0.10712000E+03  0.41219E+06
 0.10717001E+03  0.48210E+06
 0.10722000E+03  0.57103E+06
 0.10727000E+03  0.67081E+06
 0.10732001E+03  0.76394E+06
 0.10737000E+03  0.82999E+06
 0.10742001E+03  0.85835E+06
 0.10747000E+03  0.85184E+06
 0.10752000E+03  0.81747E+06
 0.10757001E+03  0.75846E+06
 0.10762000E+03  0.67116E+06
 0.10767001E+03  0.55090E+06
 0.10772000E+03  0.39778E+06
 0.10777000E+03  0.21563E+06
 0.10782001E+03  0.17992E+05
 0.10787000E+03 -0.17412E+06
 0.10792001E+03 -0.34867E+06
 0.10797000E+03 -0.50132E+06
 0.10802000E+03 -0.62928E+06
 0.10807001E+03 -0.72890E+06
 0.10812000E+03 -0.79454E+06
 0.10817001E+03 -0.83108E+06
 0.10822000E+03 -0.85478E+06
 0.10827000E+03 -0.87792E+06
 0.10832001E+03 -0.90412E+06
 0.10837000E+03 -0.92488E+06
 0.10842001E+03 -0.91713E+06
 0.10847000E+03 -0.86057E+06
 0.10852000E+03 -0.75178E+06
 0.10857001E+03 -0.59986E+06
 0.10862000E+03 -0.42031E+06
 0.10867001E+03 -0.22570E+06
 0.10872000E+03 -0.21657E+05
 0.10877000E+03  0.18447E+06
 0.10882001E+03  0.37700E+06
 0.10887000E+03  0.53415E+06
 0.10892001E+03  0.63854E+06
 0.10897000E+03  0.68586E+06
 0.10902000E+03  0.68540E+06
 0.10907001E+03  0.65405E+06
 0.10912000E+03  0.61360E+06
 0.10917001E+03  0.58532E+06
 0.10922000E+03  0.57627E+06
 0.10927000E+03  0.58149E+06
 0.10932001E+03  0.59012E+06
 0.10937000E+03  0.59321E+06
 0.10942001E+03  0.59028E+06
 0.10947000E+03  0.58256E+06
 0.10952000E+03  0.57360E+06
 0.10957001E+03  0.56331E+06
 0.10962000E+03  0.53750E+06
 0.10967001E+03  0.47463E+06
 0.10972000E+03  0.36562E+06
 0.10977000E+03  0.22456E+06
 0.10982001E+03  0.72302E+05
 0.10987000E+03 -0.73332E+05
 0.10992001E+03 -0.19886E+06
 0.10997000E+03 -0.29863E+06
 0.11002000E+03 -0.37079E+06
 0.11007001E+03 -0.42374E+06
 0.11012000E+03 -0.46899E+06
 0.11017001E+03 -0.50475E+06
 0.11022000E+03 -0.52282E+06
 0.11027000E+03 -0.52124E+06
 0.11032001E+03 -0.51042E+06
 0.11037000E+03 -0.50536E+06
 0.11042001E+03 -0.51210E+06
 0.11047000E+03 -0.52193E+06
 0.11052000E+03 -0.51509E+06
 0.11057001E+03 -0.47406E+06
 0.11062000E+03 -0.39681E+06
 0.11067001E+03 -0.29527E+06
 0.11072000E+03 -0.17919E+06
 0.11077000E+03 -0.52731E+05
 0.11082001E+03  0.79889E+05
 0.11087000E+03  0.21568E+06
 0.11092001E+03  0.35079E+06
 0.11097000E+03  0.47502E+06
 0.11102000E+03  0.57298E+06
 0.11107001E+03  0.63702E+06
 0.11112000E+03  0.66944E+06
 0.11117001E+03  0.67137E+06
 0.11122000E+03  0.64763E+06
 0.11127000E+03  0.60540E+06
 0.11132001E+03  0.54258E+06
 0.11137000E+03  0.45629E+06
 0.11142001E+03  0.35069E+06
 0.11147000E+03  0.23460E+06
 0.11152000E+03  0.11663E+06
 0.11157001E+03 -0.10750E+04
 0.11162000E+03 -0.11822E+06
 0.11167001E+03 -0.23137E+06
 0.11172000E+03 -0.33221E+06
 0.11177000E+03 -0.41019E+06
 0.11182001E+03 -0.46295E+06
 0.11187000E+03 -0.49561E+06
 0.11192001E+03 -0.51247E+06
 0.11197000E+03 -0.51794E+06
 0.11202000E+03 -0.51276E+06
 0.11207001E+03 -0.49226E+06
 0.11212000E+03 -0.45419E+06
 0.11217001E+03 -0.39427E+06
 0.11222000E+03 -0.30719E+06
 0.11227000E+03 -0.19563E+06
 0.11232001E+03 -0.72361E+05
 0.11237000E+03  0.39503E+05
 0.11242001E+03  0.11470E+06
 0.11247000E+03  0.13982E+06
 0.11252000E+03  0.11586E+06
 0.11257001E+03  0.51300E+05
 0.11262000E+03 -0.42831E+05
 0.11267001E+03 -0.15819E+06
 0.11272000E+03 -0.28411E+06
 0.11277000E+03 -0.40354E+06
 0.11282001E+03 -0.50205E+06
 0.11287000E+03 -0.56910E+06
 0.11292001E+03 -0.60136E+06
 0.11297000E+03 -0.60422E+06
 0.11302000E+03 -0.57937E+06
 0.11307001E+03 -0.52154E+06
 0.11312000E+03 -0.42535E+06
 0.11317001E+03 -0.29009E+06
 0.11322000E+03 -0.12261E+06
 0.11327000E+03  0.60779E+05
 0.11332001E+03  0.23741E+06
 0.11337000E+03  0.38883E+06
 0.11342001E+03  0.50086E+06
 0.11347000E+03  0.56076E+06
 0.11352000E+03  0.56730E+06
 0.11357001E+03  0.53251E+06
 0.11362000E+03  0.47644E+06
 0.11367001E+03  0.42238E+06
 0.11372000E+03  0.38839E+06
 0.11377000E+03  0.37868E+06
 0.11382001E+03  0.38098E+06
 0.11387000E+03  0.37701E+06
 0.11392001E+03  0.35575E+06
 0.11397000E+03  0.31960E+06
 0.11402000E+03  0.27789E+06
 0.11407001E+03  0.23687E+06
 0.11412000E+03  0.19677E+06
 0.11417001E+03  0.15181E+06
 0.11422000E+03  0.97139E+05
 0.11427000E+03  0.31427E+05
 0.11432001E+03 -0.46827E+05
 0.11437000E+03 -0.14043E+06
 0.11442001E+03 -0.24934E+06
 0.11447000E+03 -0.36551E+06
 0.11452000E+03 -0.48065E+06
 0.11457001E+03 -0.59007E+06
 0.11462000E+03 -0.68466E+06
 0.11467001E+03 -0.74981E+06
 0.11472000E+03 -0.77106E+06
 0.11477000E+03 -0.74233E+06
 0.11482001E+03 -0.66720E+06
 0.11487000E+03 -0.54816E+06
 0.11492001E+03 -0.38653E+06
 0.11497000E+03 -0.19190E+06
 0.11502000E+03  0.16426E+05
 0.11507001E+03  0.21497E+06
 0.11512000E+03  0.38259E+06
 0.11517001E+03  0.50577E+06
 0.11522000E+03  0.58202E+06
 0.11527000E+03  0.61649E+06
 0.11532001E+03  0.61405E+06
 0.11537000E+03  0.58086E+06
 0.11542001E+03  0.53030E+06
 0.11547000E+03  0.47450E+06
 0.11552000E+03  0.41961E+06
 0.11557001E+03  0.36885E+06
 0.11562000E+03  0.31950E+06
 0.11567001E+03  0.26989E+06
 0.11572000E+03  0.22394E+06
 0.11577000E+03  0.18559E+06
 0.11582001E+03  0.16036E+06
 0.11587000E+03  0.15490E+06
 0.11592001E+03  0.17644E+06
 0.11597000E+03  0.22659E+06
 0.11602000E+03  0.29074E+06
 0.11607001E+03  0.34490E+06
 0.11612000E+03  0.36706E+06
 0.11617001E+03  0.34407E+06
 0.11622000E+03  0.27510E+06
 0.11627000E+03  0.16498E+06
 0.11632001E+03  0.17394E+05
 0.11637000E+03 -0.16138E+06
 0.11642001E+03 -0.35672E+06
 0.11647000E+03 -0.54687E+06
 0.11652000E+03 -0.70985E+06
 0.11657001E+03 -0.83276E+06
 0.11662000E+03 -0.91362E+06
 0.11667001E+03 -0.95392E+06
 0.11672000E+03 -0.95182E+06
 0.11677000E+03 -0.90062E+06
 0.11682001E+03 -0.79668E+06
 0.11687000E+03 -0.64793E+06
 0.11692001E+03 -0.47132E+06
 0.11697000E+03 -0.28977E+06
 0.11702000E+03 -0.12699E+06
 0.11707001E+03 -0.27700E+03
 0.11712000E+03  0.83497E+05
 0.11717001E+03  0.12702E+06
 0.11722000E+03  0.13290E+06
 0.11727000E+03  0.10036E+06
 0.11732001E+03  0.29112E+05
 0.11737000E+03 -0.77302E+05
 0.11742001E+03 -0.20516E+06
 0.11747000E+03 -0.33182E+06
 0.11752000E+03 -0.44010E+06
 0.11757001E+03 -0.52470E+06
 0.11762000E+03 -0.58019E+06
 0.11767001E+03 -0.60010E+06
 0.11772000E+03 -0.58480E+06
 0.11777000E+03 -0.53753E+06
 0.11782001E+03 -0.46352E+06
 0.11787000E+03 -0.37123E+06
 0.11792001E+03 -0.26620E+06
 0.11797000E+03 -0.14765E+06
 0.11802000E+03 -0.13237E+05
 0.11807001E+03  0.13102E+06
 0.11812000E+03  0.26845E+06
 0.11817001E+03  0.38448E+06
 0.11822000E+03  0.47482E+06
 0.11827000E+03  0.54177E+06
 0.11832001E+03  0.58629E+06
 0.11837000E+03  0.60548E+06
 0.11842001E+03  0.59562E+06
 0.11847000E+03  0.54923E+06
 0.11852000E+03  0.46316E+06
 0.11857001E+03  0.34888E+06
 0.11862000E+03  0.22284E+06
 0.11867001E+03  0.94899E+05
 0.11872000E+03 -0.32411E+05
 0.11877000E+03 -0.15630E+06
 0.11882001E+03 -0.27065E+06
 0.11887000E+03 -0.37089E+06
 0.11892001E+03 -0.45470E+06
 0.11897000E+03 -0.52275E+06
 0.11902000E+03 -0.58083E+06
 0.11907001E+03 -0.63549E+06
 0.11912000E+03 -0.68752E+06
 0.11917001E+03 -0.72856E+06
 0.11922000E+03 -0.74685E+06
 0.11927000E+03 -0.73490E+06
 0.11932001E+03 -0.69057E+06
 0.11937000E+03 -0.61802E+06
 0.11942001E+03 -0.52654E+06
 0.11947000E+03 -0.42946E+06
 0.11952000E+03 -0.34033E+06
 0.11957001E+03 -0.26526E+06
 0.11962000E+03 -0.20414E+06
 0.11967001E+03 -0.15816E+06
 0.11972000E+03 -0.13186E+06
 0.11977000E+03 -0.12782E+06
 0.11982001E+03 -0.14202E+06
 0.11987000E+03 -0.16723E+06
 0.11992001E+03 -0.19474E+06
 0.11997000E+03 -0.21279E+06
 0.12002000E+03 -0.21069E+06
 0.12007001E+03 -0.17956E+06
 0.12012000E+03 -0.11585E+06
 0.12017001E+03 -0.27815E+05
 0.12022000E+03  0.70590E+05
 0.12027000E+03  0.17158E+06
 0.12032001E+03  0.27816E+06
 0.12037000E+03  0.39366E+06
 0.12042001E+03  0.51424E+06
 0.12047000E+03  0.63205E+06
 0.12052000E+03  0.73826E+06
 0.12057001E+03  0.82473E+06
 0.12062000E+03  0.88530E+06
 0.12067001E+03  0.91878E+06
 0.12072000E+03  0.92253E+06
 0.12077000E+03  0.89242E+06
 0.12082001E+03  0.83105E+06
 0.12087000E+03  0.74765E+06
 0.12092001E+03  0.65598E+06
 0.12097000E+03  0.56853E+06
 0.12102000E+03  0.49067E+06
 0.12107001E+03  0.41859E+06
 0.12112000E+03  0.34478E+06
 0.12117001E+03  0.27240E+06
 0.12122000E+03  0.21742E+06
 0.12127000E+03  0.19700E+06
 0.12132001E+03  0.22014E+06
 0.12137000E+03  0.28208E+06
 0.12142001E+03  0.36522E+06
 0.12147000E+03  0.44955E+06
 0.12152000E+03  0.51992E+06
 0.12157001E+03  0.56570E+06
 0.12162000E+03  0.58262E+06
 0.12167001E+03  0.57128E+06
 0.12172000E+03  0.52927E+06
 0.12177000E+03  0.45021E+06
 0.12182001E+03  0.33127E+06
 0.12187000E+03  0.17768E+06
 0.12192001E+03 -0.38700E+03
 0.12197000E+03 -0.19003E+06
 0.12202000E+03 -0.37596E+06
 0.12207001E+03 -0.54230E+06
 0.12212000E+03 -0.67332E+06
 0.12217001E+03 -0.75548E+06
 0.12222000E+03 -0.78208E+06
 0.12227000E+03 -0.75765E+06
 0.12232001E+03 -0.69771E+06
 0.12237000E+03 -0.62007E+06
 0.12242001E+03 -0.53787E+06
 0.12247000E+03 -0.46276E+06
 0.12252000E+03 -0.40484E+06
 0.12257001E+03 -0.36275E+06
 0.12262000E+03 -0.32092E+06
 0.12267001E+03 -0.26158E+06
 0.12272000E+03 -0.17664E+06
 0.12277000E+03 -0.69615E+05
 0.12282001E+03  0.48289E+05
 0.12287000E+03  0.16334E+06
 0.12292001E+03  0.26359E+06
 0.12297000E+03  0.34635E+06
 0.12302000E+03  0.42196E+06
 0.12307001E+03  0.50285E+06
 0.12312000E+03  0.59246E+06
 0.12317001E+03  0.68656E+06
 0.12322000E+03  0.78092E+06
 0.12327000E+03  0.87370E+06
 0.12332001E+03  0.96010E+06
 0.12337000E+03  0.10289E+07
 0.12342001E+03  0.10664E+07
 0.12347000E+03  0.10633E+07
 0.12352000E+03  0.10226E+07
 0.12357001E+03  0.95690E+06
 0.12362000E+03  0.87589E+06
 0.12367001E+03  0.78639E+06
 0.12372000E+03  0.69287E+06
 0.12377000E+03  0.59278E+06
 0.12382001E+03  0.48172E+06
 0.12387000E+03  0.35691E+06
 0.12392001E+03  0.22067E+06
 0.12397000E+03  0.84867E+05
 0.12402000E+03 -0.38730E+05
 0.12407001E+03 -0.14370E+06
 0.12412000E+03 -0.22200E+06
 0.12417001E+03 -0.27007E+06
 0.12422001E+03 -0.29620E+06
 0.12427001E+03 -0.31591E+06
 0.12432000E+03 -0.33861E+06
 0.12437000E+03 -0.35878E+06
 0.12442001E+03 -0.36451E+06
 0.12447001E+03 -0.34538E+06
 0.12452001E+03 -0.29944E+06
 0.12457000E+03 -0.23379E+06
 0.12462000E+03 -0.15808E+06
 0.12467001E+03 -0.84874E+05
 0.12472001E+03 -0.28300E+05
 0.12477001E+03  0.11290E+04
 0.12482000E+03  0.37680E+04
 0.12487000E+03 -0.55460E+04
 0.12492001E+03 -0.84530E+04
 0.12497001E+03  0.22870E+04
 0.12502001E+03  0.21299E+05
 0.12507000E+03  0.39017E+05
 0.12512000E+03  0.50083E+05
 0.12517001E+03  0.52293E+05
 0.12522001E+03  0.41374E+05
 0.12527001E+03  0.12701E+05
 0.12532000E+03 -0.33062E+05
 0.12537000E+03 -0.84970E+05
 0.12542001E+03 -0.12630E+06
 0.12547001E+03 -0.14483E+06
 0.12552001E+03 -0.13954E+06
 0.12557000E+03 -0.11992E+06
 0.12562000E+03 -0.98000E+05
 0.12567001E+03 -0.84051E+05
 0.12572001E+03 -0.84565E+05
 0.12577001E+03 -0.97652E+05
 0.12582000E+03 -0.11229E+06
 0.12587000E+03 -0.11428E+06
 0.12592001E+03 -0.93386E+05
 0.12597001E+03 -0.48849E+05
 0.12602001E+03  0.10349E+05
 0.12607000E+03  0.69967E+05
 0.12612000E+03  0.11476E+06
 0.12617001E+03  0.13793E+06
 0.12622001E+03  0.14306E+06
 0.12627001E+03  0.13502E+06
 0.12632000E+03  0.12024E+06
 0.12637000E+03  0.10544E+06
 0.12642001E+03  0.94332E+05
 0.12647001E+03  0.89939E+05
 0.12652001E+03  0.87909E+05
 0.12657000E+03  0.76961E+05
 0.12662000E+03  0.49173E+05
 0.12667001E+03  0.40150E+04
 0.12672001E+03 -0.52010E+05
 0.12677001E+03 -0.11362E+06
 0.12682000E+03 -0.18372E+06
 0.12687000E+03 -0.27092E+06
 0.12692001E+03 -0.38139E+06
 0.12697001E+03 -0.51392E+06
 0.12702001E+03 -0.66274E+06
 0.12707000E+03 -0.81800E+06
 0.12712000E+03 -0.96555E+06
 0.12717001E+03 -0.10920E+07
 0.12722001E+03 -0.11893E+07
 0.12727001E+03 -0.12566E+07
 0.12732000E+03 -0.12974E+07
 0.12737000E+03 -0.13076E+07
 0.12742001E+03 -0.12766E+07
 0.12747001E+03 -0.11971E+07
 0.12752001E+03 -0.10657E+07
 0.12757000E+03 -0.88629E+06
 0.12762000E+03 -0.67022E+06
 0.12767001E+03 -0.43344E+06
 0.12772001E+03 -0.19413E+06
 0.12777001E+03  0.31779E+05
 0.12782000E+03  0.23070E+06
 0.12787000E+03  0.39265E+06
 0.12792001E+03  0.51426E+06
 0.12797001E+03  0.60076E+06
 0.12802000E+03  0.66247E+06
 0.12806999E+03  0.70586E+06
 0.12812000E+03  0.72927E+06
 0.12817000E+03  0.72514E+06
 0.12822000E+03  0.68762E+06
 0.12827000E+03  0.61869E+06
 0.12831999E+03  0.52806E+06
 0.12837000E+03  0.42443E+06
 0.12842000E+03  0.30994E+06
 0.12847000E+03  0.18761E+06
 0.12852000E+03  0.66867E+05
 0.12856999E+03 -0.39931E+05
 0.12862000E+03 -0.12707E+06
 0.12867000E+03 -0.19897E+06
 0.12872000E+03 -0.26104E+06
 0.12877000E+03 -0.31418E+06
 0.12881999E+03 -0.35682E+06
 0.12887000E+03 -0.38597E+06
 0.12892000E+03 -0.39855E+06
 0.12897000E+03 -0.39210E+06
 0.12902000E+03 -0.36454E+06
 0.12906999E+03 -0.31744E+06
 0.12912000E+03 -0.25884E+06
 0.12917000E+03 -0.20160E+06
 0.12922000E+03 -0.15777E+06
 0.12927000E+03 -0.13565E+06
 0.12931999E+03 -0.13987E+06
 0.12937000E+03 -0.17074E+06
 0.12942000E+03 -0.22397E+06
 0.12947000E+03 -0.28864E+06
 0.12952000E+03 -0.34976E+06
 0.12956999E+03 -0.39332E+06
 0.12962000E+03 -0.40728E+06
 0.12967000E+03 -0.38485E+06
 0.12972000E+03 -0.32826E+06
 0.12977000E+03 -0.24610E+06
 0.12981999E+03 -0.14911E+06
 0.12987000E+03 -0.49902E+05
 0.12992000E+03  0.41977E+05
 0.12997000E+03  0.12657E+06
 0.13002000E+03  0.21090E+06
 0.13006999E+03  0.30041E+06
 0.13012000E+03  0.39004E+06
 0.13017000E+03  0.46715E+06
 0.13022000E+03  0.52184E+06
 0.13027000E+03  0.55012E+06
 0.13031999E+03  0.55546E+06
 0.13037000E+03  0.54717E+06
 0.13042000E+03  0.53721E+06
 0.13047000E+03  0.53625E+06
 0.13052000E+03  0.54422E+06
 0.13056999E+03  0.55069E+06
 0.13062000E+03  0.54455E+06
 0.13067000E+03  0.52012E+06
 0.13072000E+03  0.48144E+06
 0.13077000E+03  0.44093E+06
 0.13081999E+03  0.41161E+06
 0.13087000E+03  0.40081E+06
 0.13092000E+03  0.40818E+06
 0.13097000E+03  0.43003E+06
 0.13102000E+03  0.46263E+06
 0.13106999E+03  0.49953E+06
 0.13112000E+03  0.53305E+06
 0.13117000E+03  0.55744E+06
 0.13122000E+03  0.56921E+06
 0.13127000E+03  0.56619E+06
 0.13131999E+03  0.54542E+06
 0.13137000E+03  0.50352E+06
 0.13142000E+03  0.43577E+06
 0.13147000E+03  0.34067E+06
 0.13152000E+03  0.22694E+06
 0.13156999E+03  0.10642E+06
 0.13162000E+03 -0.14220E+05
 0.13167000E+03 -0.13443E+06
 0.13172000E+03 -0.25800E+06
 0.13177000E+03 -0.38719E+06
 0.13181999E+03 -0.51918E+06
 0.13187000E+03 -0.64706E+06
 0.13192000E+03 -0.76189E+06
 0.13197000E+03 -0.85538E+06
 0.13202000E+03 -0.92151E+06
 0.13206999E+03 -0.95881E+06
 0.13212000E+03 -0.97030E+06
 0.13217000E+03 -0.96136E+06
 0.13222000E+03 -0.93607E+06
 0.13227000E+03 -0.89664E+06
 0.13231999E+03 -0.84701E+06
 0.13237000E+03 -0.78934E+06
 0.13242000E+03 -0.72092E+06
 0.13247000E+03 -0.63813E+06
 0.13252000E+03 -0.53715E+06
 0.13256999E+03 -0.41235E+06
 0.13262000E+03 -0.26018E+06
 0.13267000E+03 -0.86253E+05
 0.13272000E+03  0.93761E+05
 0.13277000E+03  0.26184E+06
 0.13281999E+03  0.40723E+06
 0.13287000E+03  0.52654E+06
 0.13292000E+03  0.61556E+06
 0.13297000E+03  0.66916E+06
 0.13302000E+03  0.68717E+06
 0.13306999E+03  0.67500E+06
 0.13312000E+03  0.63962E+06
 0.13317000E+03  0.58414E+06
 0.13322000E+03  0.50760E+06
 0.13327000E+03  0.41422E+06
 0.13331999E+03  0.31726E+06
 0.13337000E+03  0.22893E+06
 0.13342000E+03  0.15204E+06
 0.13347000E+03  0.82730E+05
 0.13352000E+03  0.19602E+05
 0.13356999E+03 -0.31711E+05
 0.13362000E+03 -0.63105E+05
 0.13367000E+03 -0.72747E+05
 0.13372000E+03 -0.69249E+05
 0.13377000E+03 -0.66474E+05
 0.13381999E+03 -0.73789E+05
 0.13387000E+03 -0.92781E+05
 0.13392000E+03 -0.12139E+06
 0.13397000E+03 -0.15431E+06
 0.13402000E+03 -0.18553E+06
 0.13406999E+03 -0.21352E+06
 0.13412000E+03 -0.23926E+06
 0.13417000E+03 -0.26578E+06
 0.13422000E+03 -0.29732E+06
 0.13427000E+03 -0.33051E+06
 0.13431999E+03 -0.35624E+06
 0.13437000E+03 -0.37006E+06
 0.13442000E+03 -0.37410E+06
 0.13447000E+03 -0.37312E+06
 0.13452000E+03 -0.36924E+06
 0.13456999E+03 -0.36378E+06
 0.13462000E+03 -0.36040E+06
 0.13467000E+03 -0.36202E+06
 0.13472000E+03 -0.36672E+06
 0.13477000E+03 -0.36461E+06
 0.13481999E+03 -0.34239E+06
 0.13487000E+03 -0.29076E+06
 0.13492000E+03 -0.20845E+06
 0.13497000E+03 -0.99522E+05
 0.13502000E+03  0.32817E+05
 0.13506999E+03  0.18202E+06
 0.13512000E+03  0.33344E+06
 0.13517000E+03  0.46724E+06
 0.13522000E+03  0.56496E+06
 0.13527000E+03  0.62011E+06
 0.13531999E+03  0.63996E+06
 0.13537000E+03  0.63520E+06
 0.13542000E+03  0.61379E+06
 0.13547000E+03  0.58262E+06
 0.13552000E+03  0.54749E+06
 0.13556999E+03  0.51354E+06
 0.13562000E+03  0.48377E+06
 0.13567000E+03  0.45350E+06
 0.13572000E+03  0.41360E+06
 0.13577000E+03  0.35994E+06
 0.13581999E+03  0.29651E+06
 0.13587000E+03  0.23133E+06
 0.13592000E+03  0.17220E+06
 0.13597000E+03  0.12332E+06
 0.13602000E+03  0.83479E+05
 0.13606999E+03  0.47755E+05
 0.13612000E+03  0.91860E+04
 0.13617000E+03 -0.35272E+05
 0.13622000E+03 -0.81223E+05
 0.13627000E+03 -0.12214E+06
 0.13631999E+03 -0.15262E+06
 0.13637000E+03 -0.17252E+06
 0.13642000E+03 -0.18947E+06
 0.13647000E+03 -0.21333E+06
 0.13652000E+03 -0.24809E+06
 0.13656999E+03 -0.28967E+06
 0.13662000E+03 -0.33184E+06
 0.13667000E+03 -0.36959E+06
 0.13672000E+03 -0.40031E+06
 0.13677000E+03 -0.42591E+06
 0.13681999E+03 -0.44891E+06
 0.13687000E+03 -0.46738E+06
 0.13692000E+03 -0.47533E+06
 0.13697000E+03 -0.46539E+06
 0.13702000E+03 -0.43275E+06
 0.13706999E+03 -0.37865E+06
 0.13712000E+03 -0.30955E+06
 0.13717000E+03 -0.23496E+06
 0.13722000E+03 -0.16527E+06
 0.13727000E+03 -0.10828E+06
 0.13731999E+03 -0.68492E+05
 0.13737000E+03 -0.47593E+05
 0.13742000E+03 -0.43918E+05
 0.13747000E+03 -0.52689E+05
 0.13752000E+03 -0.65367E+05
 0.13756999E+03 -0.73772E+05
 0.13762000E+03 -0.77015E+05
 0.13767000E+03 -0.79059E+05
 0.13772000E+03 -0.82580E+05
 0.13777000E+03 -0.86243E+05
 0.13781999E+03 -0.83837E+05
 0.13787000E+03 -0.69342E+05
 0.13792000E+03 -0.41316E+05
 0.13797000E+03 -0.13030E+04
 0.13802000E+03  0.47686E+05
 0.13806999E+03  0.10298E+06
 0.13812000E+03  0.16111E+06
 0.13817000E+03  0.21624E+06
 0.13822000E+03  0.26323E+06
 0.13827000E+03  0.29895E+06
 0.13831999E+03  0.32358E+06
 0.13837000E+03  0.34190E+06
 0.13842000E+03  0.35793E+06
 0.13847000E+03  0.37247E+06
 0.13852000E+03  0.38649E+06
 0.13856999E+03  0.40070E+06
 0.13862000E+03  0.41447E+06
 0.13867000E+03  0.42649E+06
 0.13872000E+03  0.43542E+06
 0.13877000E+03  0.44002E+06
 0.13881999E+03  0.43856E+06
 0.13887000E+03  0.43021E+06
 0.13892000E+03  0.41810E+06
 0.13897000E+03  0.40958E+06
 0.13902000E+03  0.40942E+06
 0.13906999E+03  0.41268E+06
 0.13912000E+03  0.40704E+06
 0.13917000E+03  0.38290E+06
 0.13922000E+03  0.33838E+06
 0.13927000E+03  0.27836E+06
 0.13931999E+03  0.21272E+06
 0.13937000E+03  0.15240E+06
 0.13942000E+03  0.10460E+06
 0.13947000E+03  0.68653E+05
 0.13952000E+03  0.41273E+05
 0.13956999E+03  0.22855E+05
 0.13962000E+03  0.15119E+05
 0.13967000E+03  0.20157E+05
 0.13972000E+03  0.37891E+05
 0.13977000E+03  0.62990E+05
 0.13981999E+03  0.88371E+05
 0.13987000E+03  0.10909E+06
 0.13992000E+03  0.12098E+06
 0.13997000E+03  0.11954E+06
 0.14002000E+03  0.10069E+06
 0.14006999E+03  0.64616E+05
 0.14012000E+03  0.20215E+05
 0.14017000E+03 -0.18869E+05
 0.14022000E+03 -0.41350E+05
 0.14027000E+03 -0.45361E+05
 0.14031999E+03 -0.39369E+05
 0.14037000E+03 -0.35073E+05
 0.14042000E+03 -0.43111E+05
 0.14047000E+03 -0.67335E+05
 0.14052000E+03 -0.10290E+06
 0.14056999E+03 -0.14308E+06
 0.14062000E+03 -0.18389E+06
 0.14067000E+03 -0.22536E+06
 0.14072000E+03 -0.26573E+06
 0.14077000E+03 -0.29699E+06
 0.14081999E+03 -0.31244E+06
 0.14087000E+03 -0.31235E+06
 0.14092000E+03 -0.30178E+06
 0.14097000E+03 -0.28741E+06
 0.14102000E+03 -0.27001E+06
 0.14106999E+03 -0.24287E+06
 0.14112000E+03 -0.20252E+06
 0.14117000E+03 -0.15139E+06
 0.14122000E+03 -0.93528E+05
 0.14127000E+03 -0.32425E+05
 0.14131999E+03  0.30416E+05
 0.14137000E+03  0.92487E+05
 0.14142000E+03  0.14936E+06
 0.14147000E+03  0.19795E+06
 0.14152000E+03  0.23766E+06
 0.14156999E+03  0.26925E+06
 0.14162000E+03  0.29108E+06
 0.14167000E+03  0.29910E+06
 0.14172000E+03  0.29106E+06
 0.14177000E+03  0.26873E+06
 0.14181999E+03  0.24014E+06
 0.14187000E+03  0.21698E+06
 0.14192000E+03  0.20768E+06
 0.14197000E+03  0.21388E+06
 0.14202000E+03  0.23001E+06
 0.14206999E+03  0.24672E+06
 0.14212000E+03  0.25608E+06
 0.14217000E+03  0.25254E+06
 0.14222000E+03  0.23022E+06
 0.14227000E+03  0.18596E+06
 0.14231999E+03  0.12311E+06
 0.14237000E+03  0.47474E+05
 0.14242000E+03 -0.37576E+05
 0.14247000E+03 -0.13001E+06
 0.14252000E+03 -0.22575E+06
 0.14256999E+03 -0.32015E+06
 0.14262000E+03 -0.41148E+06
 0.14267000E+03 -0.50062E+06
 0.14272000E+03 -0.58703E+06
 0.14277000E+03 -0.66487E+06
 0.14281999E+03 -0.72440E+06
 0.14287000E+03 -0.75669E+06
 0.14292000E+03 -0.75697E+06
 0.14297000E+03 -0.72415E+06
 0.14302000E+03 -0.65921E+06
 0.14306999E+03 -0.56546E+06
 0.14312000E+03 -0.45028E+06
 0.14317000E+03 -0.32401E+06
 0.14322000E+03 -0.19649E+06
 0.14327000E+03 -0.75659E+05
 0.14331999E+03  0.31446E+05
 0.14337000E+03  0.11928E+06
 0.14342000E+03  0.18658E+06
 0.14347000E+03  0.23495E+06
 0.14352000E+03  0.26877E+06
 0.14356999E+03  0.29507E+06
 0.14362000E+03  0.31773E+06
 0.14367000E+03  0.33705E+06
 0.14372000E+03  0.35076E+06
 0.14377000E+03  0.35501E+06
 0.14381999E+03  0.34903E+06
 0.14387000E+03  0.33587E+06
 0.14392000E+03  0.32012E+06
 0.14397000E+03  0.30578E+06
 0.14402000E+03  0.29303E+06
 0.14406999E+03  0.27754E+06
 0.14412000E+03  0.25372E+06
 0.14417000E+03  0.21687E+06
 0.14422000E+03  0.16418E+06
 0.14427000E+03  0.95927E+05
 0.14431999E+03  0.15516E+05
 0.14437000E+03 -0.68846E+05
 0.14442000E+03 -0.14459E+06
 0.14447000E+03 -0.20212E+06
 0.14452000E+03 -0.24017E+06
 0.14456999E+03 -0.26245E+06
 0.14462000E+03 -0.27418E+06
 0.14467000E+03 -0.28097E+06
 0.14472000E+03 -0.28640E+06
 0.14477000E+03 -0.29302E+06
 0.14481999E+03 -0.30332E+06
 0.14487000E+03 -0.31664E+06
 0.14492000E+03 -0.32815E+06
 0.14497000E+03 -0.33144E+06
 0.14502000E+03 -0.32363E+06
 0.14506999E+03 -0.30790E+06
 0.14512000E+03 -0.29178E+06
 0.14517000E+03 -0.28123E+06
 0.14522000E+03 -0.27472E+06
 0.14527000E+03 -0.26627E+06
 0.14531999E+03 -0.25268E+06
 0.14537000E+03 -0.23666E+06
 0.14542000E+03 -0.22311E+06
 0.14547000E+03 -0.21348E+06
 0.14552000E+03 -0.20519E+06
 0.14556999E+03 -0.19371E+06
 0.14562000E+03 -0.17611E+06
 0.14567000E+03 -0.14928E+06
 0.14572000E+03 -0.10829E+06
 0.14577000E+03 -0.51491E+05
 0.14581999E+03  0.17909E+05
 0.14587000E+03  0.94293E+05
 0.14592000E+03  0.17082E+06
 0.14597000E+03  0.24007E+06
 0.14602000E+03  0.29520E+06
 0.14606999E+03  0.33170E+06
 0.14612000E+03  0.34826E+06
 0.14617000E+03  0.34423E+06
 0.14622000E+03  0.31895E+06
 0.14627000E+03  0.27435E+06
 0.14631999E+03  0.21467E+06
 0.14637000E+03  0.14532E+06
 0.14642000E+03  0.71234E+05
 0.14647000E+03 -0.39110E+04
 0.14652000E+03 -0.76602E+05
 0.14656999E+03 -0.14319E+06
 0.14662000E+03 -0.20022E+06
 0.14667000E+03 -0.24526E+06
 0.14672000E+03 -0.27732E+06
 0.14677000E+03 -0.29672E+06
 0.14681999E+03 -0.30539E+06
 0.14687000E+03 -0.30377E+06
 0.14692000E+03 -0.28855E+06
 0.14697000E+03 -0.25874E+06
 0.14702000E+03 -0.21928E+06
 0.14706999E+03 -0.17657E+06
 0.14712000E+03 -0.13518E+06
 0.14717000E+03 -0.97957E+05
 0.14722000E+03 -0.66207E+05
 0.14727000E+03 -0.40400E+05
 0.14731999E+03 -0.20887E+05
 0.14737000E+03 -0.72700E+04
 0.14742000E+03  0.38800E+03
 0.14747000E+03  0.16600E+03
 0.14752000E+03 -0.10247E+05
 0.14756999E+03 -0.32276E+05
 0.14762000E+03 -0.63488E+05
 0.14767000E+03 -0.96614E+05
 0.14772000E+03 -0.12514E+06
 0.14777000E+03 -0.14602E+06
 0.14781999E+03 -0.15734E+06
 0.14787000E+03 -0.15674E+06
 0.14792000E+03 -0.14290E+06
 0.14797000E+03 -0.11849E+06
 0.14802000E+03 -0.88178E+05
 0.14806999E+03 -0.53943E+05
 0.14812000E+03 -0.15675E+05
 0.14817000E+03  0.26770E+05
 0.14822000E+03  0.72160E+05
 0.14827000E+03  0.11727E+06
 0.14831999E+03  0.16040E+06
 0.14837000E+03  0.20324E+06
 0.14842000E+03  0.24830E+06
 0.14847000E+03  0.29789E+06
 0.14852000E+03  0.35290E+06
 0.14856999E+03  0.41053E+06
 0.14862000E+03  0.46543E+06
 0.14867000E+03  0.51147E+06
 0.14872000E+03  0.54192E+06
 0.14877000E+03  0.55253E+06
 0.14881999E+03  0.54443E+06
 0.14887000E+03  0.52411E+06
 0.14892000E+03  0.50147E+06
 0.14897000E+03  0.48301E+06
 0.14902000E+03  0.46985E+06
 0.14906999E+03  0.45974E+06
