-0.38800001E+01 -0.61661E+05
-0.38300002E+01 -0.57081E+05
-0.37800002E+01 -0.50890E+05
-0.37300000E+01 -0.43404E+05
-0.36800001E+01 -0.37453E+05
-0.36300001E+01 -0.32270E+05
-0.35800002E+01 -0.25558E+05
-0.35300002E+01 -0.16966E+05
-0.34800000E+01 -0.68210E+04
-0.34300001E+01  0.31180E+04
-0.33800001E+01  0.11647E+05
-0.33300002E+01  0.18881E+05
-0.32800002E+01  0.24340E+05
-0.32300000E+01  0.27313E+05
-0.31800001E+01  0.28479E+05
-0.31300001E+01  0.29920E+05
-0.30800002E+01  0.33048E+05
-0.30300002E+01  0.37859E+05
-0.29800000E+01  0.42131E+05
-0.29300001E+01  0.44924E+05
-0.28800001E+01  0.47780E+05
-0.28299999E+01  0.50285E+05
-0.27800002E+01  0.52191E+05
-0.27300000E+01  0.54325E+05
-0.26800001E+01  0.56209E+05
-0.26300001E+01  0.58823E+05
-0.25799999E+01  0.63524E+05
-0.25300002E+01  0.69076E+05
-0.24800000E+01  0.73265E+05
-0.24300001E+01  0.75846E+05
-0.23800001E+01  0.77670E+05
-0.23299999E+01  0.78172E+05
-0.22800002E+01  0.78306E+05
-0.22300000E+01  0.78459E+05
-0.21800001E+01  0.77476E+05
-0.21300001E+01  0.75709E+05
-0.20799999E+01  0.72933E+05
-0.20300002E+01  0.69171E+05
-0.19800001E+01  0.64288E+05
-0.19300001E+01  0.58073E+05
-0.18800001E+01  0.52362E+05
-0.18300002E+01  0.47663E+05
-0.17800000E+01  0.43036E+05
-0.17300000E+01  0.38563E+05
-0.16800001E+01  0.33066E+05
-0.16300001E+01  0.24960E+05
-0.15800002E+01  0.15557E+05
-0.15300000E+01  0.57480E+04
-0.14800000E+01 -0.40480E+04
-0.14300001E+01 -0.13061E+05
-0.13800001E+01 -0.22078E+05
-0.13300002E+01 -0.30556E+05
-0.12800000E+01 -0.37188E+05
-0.12300000E+01 -0.42085E+05
-0.11800001E+01 -0.44918E+05
-0.11300001E+01 -0.44361E+05
-0.10800002E+01 -0.41871E+05
-0.10300000E+01 -0.40404E+05
-0.98000002E+00 -0.40666E+05
-0.93000007E+00 -0.41525E+05
-0.88000011E+00 -0.41120E+05
-0.83000016E+00 -0.39567E+05
-0.77999997E+00 -0.37321E+05
-0.73000002E+00 -0.33179E+05
-0.68000007E+00 -0.26604E+05
-0.63000011E+00 -0.18875E+05
-0.58000016E+00 -0.11847E+05
-0.52999997E+00 -0.57200E+04
-0.48000002E+00  0.71400E+03
-0.43000007E+00  0.73520E+04
-0.38000011E+00  0.12777E+05
-0.33000016E+00  0.17504E+05
-0.27999997E+00  0.23061E+05
-0.23000002E+00  0.29920E+05
-0.18000007E+00  0.37800E+05
-0.13000011E+00  0.45400E+05
-0.80000162E-01  0.52292E+05
-0.29999971E-01  0.58670E+05
 0.19999981E-01  0.63407E+05
 0.69999933E-01  0.66263E+05
 0.11999989E+00  0.67846E+05
 0.17000008E+00  0.68262E+05
 0.21999979E+00  0.68319E+05
 0.26999998E+00  0.67940E+05
 0.32000017E+00  0.65788E+05
 0.36999989E+00  0.61121E+05
 0.42000008E+00  0.54117E+05
 0.46999979E+00  0.46199E+05
 0.51999998E+00  0.39094E+05
 0.57000017E+00  0.32739E+05
 0.61999989E+00  0.26222E+05
 0.67000008E+00  0.19475E+05
 0.71999979E+00  0.12239E+05
 0.76999998E+00  0.48400E+04
 0.82000017E+00 -0.23850E+04
 0.86999989E+00 -0.94990E+04
 0.92000008E+00 -0.15141E+05
 0.96999979E+00 -0.19251E+05
 0.10200000E+01 -0.23193E+05
 0.10700002E+01 -0.26155E+05
 0.11199999E+01 -0.28059E+05
 0.11700001E+01 -0.30485E+05
 0.12199998E+01 -0.32726E+05
 0.12700000E+01 -0.33950E+05
 0.13200002E+01 -0.34144E+05
 0.13699999E+01 -0.32441E+05
 0.14200001E+01 -0.29239E+05
 0.14699998E+01 -0.25501E+05
 0.15200000E+01 -0.20823E+05
 0.15700002E+01 -0.15067E+05
 0.16199999E+01 -0.90300E+04
 0.16700001E+01 -0.38970E+04
 0.17199998E+01 -0.22100E+03
 0.17700000E+01  0.22190E+04
 0.18200002E+01  0.37550E+04
 0.18699999E+01  0.55210E+04
 0.19200001E+01  0.77540E+04
 0.19699998E+01  0.91110E+04
 0.20200000E+01  0.95630E+04
 0.20700002E+01  0.10378E+05
 0.21199999E+01  0.10640E+05
 0.21700001E+01  0.80010E+04
 0.22199998E+01  0.17760E+04
 0.22700000E+01 -0.72940E+04
 0.23200002E+01 -0.17516E+05
 0.23699999E+01 -0.27798E+05
 0.24200001E+01 -0.37003E+05
 0.24699998E+01 -0.43495E+05
 0.25200000E+01 -0.48340E+05
 0.25700002E+01 -0.53601E+05
 0.26199999E+01 -0.59633E+05
 0.26700001E+01 -0.65705E+05
 0.27199998E+01 -0.71043E+05
 0.27700000E+01 -0.75220E+05
 0.28200002E+01 -0.78289E+05
 0.28699999E+01 -0.79903E+05
 0.29200001E+01 -0.78620E+05
 0.29699998E+01 -0.74906E+05
 0.30200000E+01 -0.70394E+05
 0.30700002E+01 -0.64894E+05
 0.31199999E+01 -0.58058E+05
 0.31700001E+01 -0.50665E+05
 0.32199998E+01 -0.42949E+05
 0.32700000E+01 -0.35163E+05
 0.33200002E+01 -0.28913E+05
 0.33699999E+01 -0.24709E+05
 0.34200001E+01 -0.21988E+05
 0.34699998E+01 -0.19744E+05
 0.35200000E+01 -0.16542E+05
 0.35700002E+01 -0.12916E+05
 0.36199999E+01 -0.10810E+05
 0.36700001E+01 -0.10116E+05
 0.37199998E+01 -0.96890E+04
 0.37700000E+01 -0.97840E+04
 0.38200002E+01 -0.10582E+05
 0.38699999E+01 -0.12581E+05
 0.39200001E+01 -0.15894E+05
 0.39699998E+01 -0.19143E+05
 0.40200000E+01 -0.21313E+05
 0.40700002E+01 -0.22518E+05
 0.41199999E+01 -0.23826E+05
 0.41700001E+01 -0.25399E+05
 0.42200003E+01 -0.25809E+05
 0.42700005E+01 -0.25165E+05
 0.43199997E+01 -0.25321E+05
 0.43699999E+01 -0.25634E+05
 0.44200001E+01 -0.24246E+05
 0.44700003E+01 -0.20736E+05
 0.45200005E+01 -0.15820E+05
 0.45699997E+01 -0.10581E+05
 0.46199999E+01 -0.53170E+04
 0.46700001E+01 -0.88400E+03
 0.47200003E+01  0.19380E+04
 0.47700005E+01  0.30940E+04
 0.48199997E+01  0.41990E+04
 0.48699999E+01  0.62590E+04
 0.49200001E+01  0.69460E+04
 0.49700003E+01  0.61480E+04
 0.50200005E+01  0.54900E+04
 0.50699997E+01  0.50550E+04
 0.51199999E+01  0.44980E+04
 0.51700001E+01  0.43440E+04
 0.52200003E+01  0.53050E+04
 0.52700005E+01  0.68480E+04
 0.53199997E+01  0.96320E+04
 0.53699999E+01  0.14191E+05
 0.54200001E+01  0.19373E+05
 0.54700003E+01  0.24421E+05
 0.55200005E+01  0.28696E+05
 0.55699997E+01  0.32344E+05
 0.56199999E+01  0.35962E+05
 0.56700001E+01  0.39691E+05
 0.57200003E+01  0.43821E+05
 0.57700005E+01  0.47043E+05
 0.58199997E+01  0.48351E+05
 0.58699999E+01  0.49341E+05
 0.59200001E+01  0.50113E+05
 0.59700003E+01  0.49224E+05
 0.60200005E+01  0.46678E+05
 0.60699997E+01  0.43041E+05
 0.61199999E+01  0.38864E+05
 0.61700001E+01  0.34951E+05
 0.62200003E+01  0.31209E+05
 0.62700005E+01  0.26583E+05
 0.63199997E+01  0.21751E+05
 0.63699999E+01  0.18141E+05
 0.64200001E+01  0.14743E+05
 0.64700003E+01  0.10279E+05
 0.65200005E+01  0.45770E+04
 0.65699997E+01 -0.19520E+04
 0.66199999E+01 -0.75540E+04
 0.66700001E+01 -0.12143E+05
 0.67200003E+01 -0.17460E+05
 0.67700005E+01 -0.22899E+05
 0.68199997E+01 -0.27778E+05
 0.68699999E+01 -0.32257E+05
 0.69200001E+01 -0.35288E+05
 0.69700003E+01 -0.36744E+05
 0.70200005E+01 -0.37199E+05
 0.70699997E+01 -0.36684E+05
 0.71199999E+01 -0.35625E+05
 0.71700001E+01 -0.34582E+05
 0.72200003E+01 -0.33185E+05
 0.72700005E+01 -0.30077E+05
 0.73199997E+01 -0.25504E+05
 0.73699999E+01 -0.21390E+05
 0.74200001E+01 -0.17839E+05
 0.74700003E+01 -0.13853E+05
 0.75200005E+01 -0.81430E+04
 0.75699997E+01 -0.12290E+04
 0.76199999E+01  0.54430E+04
 0.76700001E+01  0.12113E+05
 0.77200003E+01  0.17374E+05
 0.77700005E+01  0.21304E+05
 0.78199997E+01  0.24884E+05
 0.78699999E+01  0.26968E+05
 0.79200001E+01  0.27746E+05
 0.79700003E+01  0.28909E+05
 0.80200005E+01  0.31528E+05
 0.80699997E+01  0.34803E+05
 0.81199999E+01  0.38146E+05
 0.81700001E+01  0.42046E+05
 0.82200003E+01  0.46601E+05
 0.82700005E+01  0.51404E+05
 0.83199997E+01  0.55596E+05
 0.83699999E+01  0.58707E+05
 0.84200001E+01  0.60041E+05
 0.84700003E+01  0.58963E+05
 0.85200005E+01  0.56352E+05
 0.85699997E+01  0.51804E+05
 0.86199999E+01  0.45811E+05
 0.86700001E+01  0.40061E+05
 0.87200003E+01  0.33225E+05
 0.87700005E+01  0.24426E+05
 0.88199997E+01  0.13665E+05
 0.88699999E+01  0.15820E+04
 0.89200001E+01 -0.99760E+04
 0.89700003E+01 -0.20821E+05
 0.90200005E+01 -0.30169E+05
 0.90699997E+01 -0.37235E+05
 0.91199999E+01 -0.43627E+05
 0.91700001E+01 -0.48726E+05
 0.92200003E+01 -0.51269E+05
 0.92700005E+01 -0.52839E+05
 0.93199997E+01 -0.54055E+05
 0.93699999E+01 -0.54366E+05
 0.94200001E+01 -0.53958E+05
 0.94700003E+01 -0.53141E+05
 0.95200005E+01 -0.52444E+05
 0.95699997E+01 -0.51911E+05
 0.96199999E+01 -0.50420E+05
 0.96700001E+01 -0.47681E+05
 0.97200003E+01 -0.44139E+05
 0.97700005E+01 -0.39937E+05
 0.98199997E+01 -0.35971E+05
 0.98699999E+01 -0.32925E+05
 0.99200001E+01 -0.30380E+05
 0.99700003E+01 -0.27725E+05
 0.10020000E+02 -0.24679E+05
 0.10070000E+02 -0.20703E+05
 0.10120000E+02 -0.15154E+05
 0.10170000E+02 -0.86210E+04
 0.10220000E+02 -0.21980E+04
 0.10270000E+02  0.40450E+04
 0.10320000E+02  0.10519E+05
 0.10370000E+02  0.17237E+05
 0.10420000E+02  0.24216E+05
 0.10470000E+02  0.31276E+05
 0.10520000E+02  0.38568E+05
 0.10570000E+02  0.45690E+05
 0.10620000E+02  0.51775E+05
 0.10670000E+02  0.57066E+05
 0.10720000E+02  0.60886E+05
 0.10770000E+02  0.62585E+05
 0.10820000E+02  0.62468E+05
 0.10870000E+02  0.61143E+05
 0.10920000E+02  0.59787E+05
 0.10970000E+02  0.59469E+05
 0.11020000E+02  0.59948E+05
 0.11070000E+02  0.60648E+05
 0.11120000E+02  0.62253E+05
 0.11170000E+02  0.64176E+05
 0.11220000E+02  0.65253E+05
 0.11270000E+02  0.64630E+05
 0.11320000E+02  0.62539E+05
 0.11370000E+02  0.60830E+05
 0.11420000E+02  0.59566E+05
 0.11470000E+02  0.58160E+05
 0.11520000E+02  0.56141E+05
 0.11570000E+02  0.53285E+05
 0.11620000E+02  0.50527E+05
 0.11670000E+02  0.48908E+05
 0.11720000E+02  0.48611E+05
 0.11770000E+02  0.48350E+05
 0.11820000E+02  0.47725E+05
 0.11870000E+02  0.47237E+05
 0.11920000E+02  0.46793E+05
 0.11970000E+02  0.46291E+05
 0.12020000E+02  0.45372E+05
 0.12070000E+02  0.43992E+05
 0.12120000E+02  0.42373E+05
 0.12170001E+02  0.39854E+05
 0.12220000E+02  0.36673E+05
 0.12270000E+02  0.33192E+05
 0.12320001E+02  0.28098E+05
 0.12370000E+02  0.21278E+05
 0.12420001E+02  0.12936E+05
 0.12470000E+02  0.36790E+04
 0.12520000E+02 -0.50960E+04
 0.12570001E+02 -0.13341E+05
 0.12620000E+02 -0.21071E+05
 0.12670001E+02 -0.28330E+05
 0.12720000E+02 -0.35368E+05
 0.12770000E+02 -0.42122E+05
 0.12820001E+02 -0.48673E+05
 0.12870000E+02 -0.54092E+05
 0.12920001E+02 -0.57638E+05
 0.12970000E+02 -0.61387E+05
 0.13020000E+02 -0.66258E+05
 0.13070001E+02 -0.71333E+05
 0.13120000E+02 -0.76338E+05
 0.13170001E+02 -0.80724E+05
 0.13220000E+02 -0.83525E+05
 0.13270000E+02 -0.84383E+05
 0.13320001E+02 -0.84719E+05
 0.13370000E+02 -0.84450E+05
 0.13420001E+02 -0.82832E+05
 0.13470000E+02 -0.80714E+05
 0.13520000E+02 -0.77656E+05
 0.13570001E+02 -0.73048E+05
 0.13620000E+02 -0.68110E+05
 0.13670001E+02 -0.64084E+05
 0.13720000E+02 -0.60120E+05
 0.13770000E+02 -0.55462E+05
 0.13820001E+02 -0.50906E+05
 0.13870000E+02 -0.47456E+05
 0.13920001E+02 -0.44923E+05
 0.13970000E+02 -0.42348E+05
 0.14020000E+02 -0.39233E+05
 0.14070001E+02 -0.35565E+05
 0.14120000E+02 -0.32243E+05
 0.14170001E+02 -0.28800E+05
 0.14220000E+02 -0.24849E+05
 0.14270000E+02 -0.21006E+05
 0.14320001E+02 -0.17295E+05
 0.14370000E+02 -0.13801E+05
 0.14420001E+02 -0.93550E+04
 0.14470000E+02 -0.33920E+04
 0.14520000E+02  0.33490E+04
 0.14570001E+02  0.99110E+04
 0.14620000E+02  0.15099E+05
 0.14670001E+02  0.19021E+05
 0.14720000E+02  0.22772E+05
 0.14770000E+02  0.26598E+05
 0.14820001E+02  0.30284E+05
 0.14870000E+02  0.33065E+05
 0.14920001E+02  0.34037E+05
 0.14970000E+02  0.33398E+05
 0.15020000E+02  0.31392E+05
 0.15070001E+02  0.29279E+05
 0.15120000E+02  0.27991E+05
 0.15170001E+02  0.26997E+05
 0.15220000E+02  0.25476E+05
 0.15270000E+02  0.23402E+05
 0.15320001E+02  0.22012E+05
 0.15370000E+02  0.20838E+05
 0.15420001E+02  0.19144E+05
 0.15470000E+02  0.17190E+05
 0.15520000E+02  0.15202E+05
 0.15570001E+02  0.13652E+05
 0.15620000E+02  0.12124E+05
 0.15670001E+02  0.10451E+05
 0.15720000E+02  0.92970E+04
 0.15770000E+02  0.85000E+04
 0.15820001E+02  0.75210E+04
 0.15870000E+02  0.64480E+04
 0.15920001E+02  0.63520E+04
 0.15970000E+02  0.72950E+04
 0.16020000E+02  0.78650E+04
 0.16070000E+02  0.85490E+04
 0.16119999E+02  0.10162E+05
 0.16170002E+02  0.11753E+05
 0.16220001E+02  0.12865E+05
 0.16270000E+02  0.13553E+05
 0.16320000E+02  0.13402E+05
 0.16369999E+02  0.12855E+05
 0.16420002E+02  0.12198E+05
 0.16470001E+02  0.11309E+05
 0.16520000E+02  0.10471E+05
 0.16570000E+02  0.86310E+04
 0.16619999E+02  0.65370E+04
 0.16670002E+02  0.57630E+04
 0.16720001E+02  0.45040E+04
 0.16770000E+02  0.18540E+04
 0.16820000E+02 -0.14600E+04
 0.16869999E+02 -0.54070E+04
 0.16920002E+02 -0.10123E+05
 0.16970001E+02 -0.16116E+05
 0.17020000E+02 -0.22842E+05
 0.17070000E+02 -0.28897E+05
 0.17119999E+02 -0.33353E+05
 0.17170002E+02 -0.35727E+05
 0.17220001E+02 -0.37161E+05
 0.17270000E+02 -0.39211E+05
 0.17320000E+02 -0.42381E+05
 0.17369999E+02 -0.46403E+05
 0.17420002E+02 -0.50373E+05
 0.17470001E+02 -0.53726E+05
 0.17520000E+02 -0.56222E+05
 0.17570000E+02 -0.58059E+05
 0.17619999E+02 -0.59941E+05
 0.17670002E+02 -0.61470E+05
 0.17720001E+02 -0.64412E+05
 0.17770000E+02 -0.67902E+05
 0.17820000E+02 -0.69325E+05
 0.17869999E+02 -0.69617E+05
 0.17920002E+02 -0.68645E+05
 0.17970001E+02 -0.68851E+05
 0.18020000E+02 -0.66229E+05
 0.18070000E+02 -0.60403E+05
 0.18119999E+02 -0.52363E+05
 0.18170002E+02 -0.43187E+05
 0.18220001E+02 -0.40850E+05
 0.18270000E+02 -0.37014E+05
 0.18320000E+02 -0.33448E+05
 0.18369999E+02 -0.28328E+05
 0.18420002E+02 -0.17437E+05
 0.18470001E+02 -0.15412E+05
 0.18520000E+02 -0.13689E+05
 0.18570000E+02 -0.51650E+04
 0.18619999E+02 -0.19650E+04
 0.18670002E+02 -0.48340E+04
 0.18720001E+02 -0.10031E+05
 0.18770000E+02 -0.14837E+05
 0.18820000E+02 -0.77450E+04
 0.18869999E+02  0.96000E+02
 0.18920002E+02 -0.12789E+05
 0.18970001E+02 -0.26913E+05
 0.19020000E+02 -0.26854E+05
 0.19070000E+02 -0.17049E+05
 0.19119999E+02  0.29700E+03
 0.19170002E+02 -0.12200E+05
 0.19220001E+02 -0.42664E+05
 0.19270000E+02 -0.45520E+05
 0.19320000E+02 -0.40250E+05
 0.19369999E+02 -0.34244E+05
 0.19420002E+02 -0.30337E+05
 0.19470001E+02 -0.34841E+05
 0.19520000E+02 -0.27343E+05
 0.19570000E+02 -0.15253E+05
 0.19619999E+02 -0.21213E+05
 0.19670002E+02 -0.25151E+05
 0.19720001E+02 -0.39217E+05
 0.19770000E+02 -0.47258E+05
 0.19820000E+02 -0.37614E+05
 0.19869999E+02 -0.52613E+05
 0.19920002E+02 -0.52595E+05
 0.19970001E+02 -0.36727E+05
 0.20020000E+02 -0.17758E+05
 0.20070000E+02 -0.10011E+05
 0.20119999E+02 -0.35431E+05
 0.20170002E+02 -0.49228E+05
 0.20220001E+02 -0.36110E+05
 0.20270000E+02 -0.25581E+05
 0.20320000E+02 -0.40001E+05
 0.20369999E+02 -0.65110E+05
 0.20420002E+02 -0.79033E+05
 0.20470001E+02 -0.48247E+05
 0.20520000E+02 -0.16040E+04
 0.20570000E+02 -0.23302E+05
 0.20619999E+02 -0.58357E+05
 0.20670002E+02 -0.72209E+05
 0.20720001E+02 -0.50968E+05
 0.20770000E+02  0.62240E+04
 0.20820000E+02  0.72030E+04
 0.20869999E+02  0.92770E+04
 0.20920002E+02  0.10678E+05
 0.20970001E+02 -0.13146E+05
 0.21020000E+02 -0.24310E+05
 0.21070000E+02 -0.39483E+05
 0.21119999E+02 -0.53194E+05
 0.21170002E+02 -0.15138E+05
 0.21220001E+02  0.17476E+05
 0.21270000E+02 -0.39930E+05
 0.21320000E+02 -0.22778E+05
 0.21369999E+02  0.78473E+05
 0.21420002E+02  0.17818E+06
 0.21470001E+02  0.17160E+06
 0.21520000E+02  0.17206E+05
 0.21570000E+02  0.45191E+05
 0.21619999E+02  0.26813E+06
 0.21670002E+02  0.27133E+06
 0.21720001E+02 -0.19700E+03
 0.21770000E+02 -0.24749E+06
 0.21820000E+02 -0.20579E+06
 0.21869999E+02 -0.77210E+04
 0.21920002E+02  0.34735E+05
 0.21970001E+02  0.67920E+04
 0.22020000E+02  0.15428E+05
 0.22070000E+02  0.11724E+06
 0.22119999E+02  0.27322E+06
 0.22170002E+02  0.16804E+06
 0.22220001E+02 -0.12454E+06
 0.22270000E+02 -0.11239E+06
 0.22320000E+02  0.31012E+05
 0.22369999E+02  0.88526E+05
 0.22420002E+02  0.25512E+06
 0.22470001E+02  0.14000E+06
 0.22520000E+02 -0.38523E+05
 0.22570000E+02  0.20695E+06
 0.22619999E+02  0.41217E+06
 0.22670002E+02  0.46722E+06
 0.22720001E+02  0.47287E+06
 0.22770000E+02  0.35358E+06
 0.22820000E+02  0.45992E+06
 0.22869999E+02  0.37204E+06
 0.22920002E+02 -0.15656E+06
 0.22970001E+02 -0.32985E+05
 0.23020000E+02  0.20173E+06
 0.23070000E+02  0.24674E+05
 0.23119999E+02  0.40539E+05
 0.23170002E+02 -0.50117E+05
 0.23220001E+02 -0.52722E+05
 0.23270000E+02 -0.81128E+05
 0.23320000E+02 -0.16209E+06
 0.23369999E+02 -0.32345E+05
 0.23420002E+02  0.13557E+05
 0.23470001E+02 -0.68125E+05
 0.23520000E+02 -0.86873E+05
 0.23570000E+02  0.64003E+05
 0.23619999E+02  0.12210E+05
 0.23670002E+02  0.28203E+06
 0.23720001E+02  0.37041E+06
 0.23770000E+02 -0.21548E+06
 0.23820000E+02 -0.28694E+06
 0.23869999E+02  0.13060E+06
 0.23920002E+02  0.51988E+06
 0.23970001E+02  0.85728E+05
 0.24020000E+02 -0.30953E+06
 0.24070000E+02 -0.19916E+05
 0.24119999E+02  0.27213E+06
 0.24170002E+02  0.38650E+06
 0.24220001E+02  0.14598E+06
 0.24270000E+02  0.97675E+05
 0.24320000E+02 -0.34367E+06
 0.24369999E+02 -0.26615E+06
 0.24420002E+02  0.13236E+06
 0.24470001E+02 -0.19241E+06
 0.24520000E+02 -0.25034E+06
 0.24570000E+02 -0.16696E+06
 0.24619999E+02  0.27865E+06
 0.24670002E+02  0.14049E+05
 0.24720001E+02 -0.28598E+06
 0.24770000E+02 -0.19764E+06
 0.24820000E+02 -0.41815E+06
 0.24869999E+02 -0.72011E+05
 0.24920002E+02  0.13091E+06
 0.24970001E+02  0.30577E+06
 0.25020000E+02  0.27668E+05
 0.25070000E+02 -0.45993E+06
 0.25119999E+02 -0.41408E+06
 0.25170002E+02 -0.22373E+06
 0.25220001E+02 -0.29130E+06
 0.25270000E+02 -0.25744E+06
 0.25320000E+02  0.47629E+06
 0.25369999E+02  0.34826E+06
 0.25420002E+02 -0.42459E+05
 0.25470001E+02 -0.31773E+06
 0.25520000E+02 -0.91185E+06
 0.25570000E+02 -0.60144E+06
 0.25619999E+02  0.46840E+05
 0.25670002E+02  0.28837E+06
 0.25720001E+02  0.92516E+05
 0.25770000E+02 -0.56101E+06
 0.25820000E+02 -0.76615E+06
 0.25869999E+02 -0.89603E+05
 0.25920002E+02  0.23924E+05
 0.25970001E+02 -0.17085E+06
 0.26020000E+02 -0.29471E+06
 0.26070000E+02 -0.72062E+06
 0.26119999E+02 -0.61709E+06
 0.26170002E+02 -0.18806E+06
 0.26220001E+02  0.47764E+06
 0.26270000E+02  0.77967E+06
 0.26320000E+02  0.37391E+06
 0.26369999E+02 -0.33558E+06
 0.26420002E+02 -0.74965E+06
 0.26470001E+02 -0.34176E+06
 0.26520000E+02  0.55249E+05
 0.26570000E+02  0.22849E+06
 0.26619999E+02  0.20511E+06
 0.26670002E+02 -0.15993E+06
 0.26720001E+02 -0.29818E+06
 0.26770000E+02  0.71043E+05
 0.26820000E+02  0.21572E+06
 0.26869999E+02 -0.11846E+06
 0.26920002E+02 -0.42101E+06
 0.26970001E+02 -0.31211E+06
 0.27020000E+02 -0.18518E+06
 0.27070000E+02 -0.10638E+06
 0.27119999E+02  0.38036E+06
 0.27170002E+02  0.40097E+06
 0.27220001E+02  0.97398E+05
 0.27270000E+02  0.15216E+06
 0.27320000E+02  0.33233E+06
 0.27369999E+02  0.50761E+06
 0.27420002E+02  0.48654E+06
 0.27470001E+02 -0.32451E+05
 0.27520000E+02 -0.70499E+06
 0.27570000E+02 -0.67540E+06
 0.27619999E+02 -0.60566E+06
 0.27670002E+02 -0.66004E+06
 0.27720001E+02 -0.50828E+06
 0.27770000E+02 -0.58334E+06
 0.27820000E+02 -0.37567E+06
 0.27869999E+02  0.37276E+06
 0.27920002E+02  0.84854E+06
 0.27970001E+02  0.54489E+06
 0.28020000E+02  0.10740E+06
 0.28070000E+02 -0.25006E+06
 0.28119999E+02  0.46974E+05
 0.28169998E+02  0.83165E+06
 0.28220001E+02  0.81901E+06
 0.28270000E+02  0.58264E+06
 0.28320000E+02  0.59138E+06
 0.28369999E+02  0.87017E+06
 0.28419998E+02  0.10471E+07
 0.28470001E+02  0.80124E+06
 0.28520000E+02  0.39645E+06
 0.28570000E+02  0.49286E+05
 0.28619999E+02 -0.15789E+06
 0.28669998E+02 -0.35030E+06
 0.28720001E+02 -0.45963E+06
 0.28770000E+02 -0.65207E+06
 0.28820000E+02 -0.88538E+06
 0.28869999E+02 -0.75275E+06
 0.28919998E+02  0.24912E+05
 0.28970001E+02  0.20956E+06
 0.29020000E+02  0.23823E+05
 0.29070000E+02  0.62404E+06
 0.29119999E+02  0.71573E+06
 0.29169998E+02  0.74240E+06
 0.29220001E+02  0.13228E+07
 0.29270000E+02  0.11221E+07
 0.29320000E+02  0.23819E+06
 0.29369999E+02 -0.79193E+05
 0.29419998E+02  0.72150E+04
 0.29470001E+02 -0.35929E+06
 0.29520000E+02 -0.59974E+06
 0.29570000E+02 -0.25776E+06
 0.29619999E+02  0.22383E+06
 0.29669998E+02  0.37904E+06
 0.29720001E+02  0.22778E+06
 0.29770000E+02  0.13128E+06
 0.29820000E+02  0.19265E+05
 0.29869999E+02 -0.12326E+06
 0.29919998E+02 -0.21089E+06
 0.29970001E+02 -0.99780E+04
 0.30020000E+02  0.33964E+06
 0.30070000E+02  0.18378E+06
 0.30119999E+02  0.30914E+06
 0.30169998E+02  0.98331E+06
 0.30220001E+02  0.80961E+06
 0.30270000E+02  0.17632E+06
 0.30320000E+02 -0.51070E+05
 0.30369999E+02 -0.29534E+06
 0.30419998E+02 -0.24427E+06
 0.30470001E+02  0.18786E+05
 0.30520000E+02 -0.33650E+06
 0.30570000E+02 -0.44512E+06
 0.30619999E+02 -0.24939E+06
 0.30669998E+02 -0.30575E+06
 0.30720001E+02 -0.69209E+05
 0.30770000E+02 -0.13430E+06
 0.30820000E+02 -0.18913E+06
 0.30869999E+02  0.32853E+06
 0.30919998E+02  0.48229E+06
 0.30970001E+02  0.25609E+06
 0.31020000E+02  0.22598E+06
 0.31070000E+02  0.13086E+06
 0.31119999E+02  0.41921E+05
 0.31169998E+02  0.35562E+06
 0.31220001E+02  0.57636E+06
 0.31270000E+02  0.25631E+06
 0.31320000E+02 -0.14592E+06
 0.31369999E+02 -0.40910E+06
 0.31419998E+02 -0.30575E+06
 0.31470001E+02  0.48059E+06
 0.31520000E+02  0.46867E+06
 0.31570000E+02 -0.35106E+06
 0.31619999E+02 -0.78191E+06
 0.31669998E+02 -0.74423E+06
 0.31720001E+02  0.38012E+05
 0.31770000E+02  0.47876E+06
 0.31820000E+02 -0.66103E+05
 0.31869999E+02 -0.36649E+06
 0.31919998E+02  0.82519E+05
 0.31970001E+02  0.53773E+06
 0.32020000E+02  0.71641E+06
 0.32070000E+02  0.51182E+06
 0.32119999E+02 -0.11499E+05
 0.32169998E+02 -0.15532E+06
 0.32220001E+02  0.98376E+05
 0.32270000E+02  0.41773E+06
 0.32320000E+02  0.37002E+06
 0.32369999E+02  0.14552E+06
 0.32419998E+02  0.17474E+06
 0.32470001E+02  0.14734E+06
 0.32520000E+02 -0.38448E+05
 0.32570000E+02 -0.10280E+06
 0.32619999E+02  0.29217E+06
 0.32669998E+02  0.77700E+06
 0.32720001E+02  0.71576E+06
 0.32770000E+02  0.26314E+06
 0.32820000E+02  0.56864E+05
 0.32869999E+02  0.34600E+06
 0.32919998E+02  0.46432E+06
 0.32970001E+02  0.27663E+06
 0.33020000E+02  0.17501E+06
 0.33070000E+02 -0.22861E+06
 0.33119999E+02 -0.68550E+06
 0.33169998E+02 -0.73548E+06
 0.33220001E+02 -0.49934E+06
 0.33270000E+02 -0.31319E+06
 0.33320000E+02 -0.29079E+06
 0.33369999E+02 -0.10016E+06
 0.33419998E+02 -0.35664E+06
 0.33470001E+02 -0.69975E+06
 0.33520000E+02 -0.52828E+06
 0.33570000E+02 -0.45310E+06
 0.33619999E+02 -0.10832E+06
 0.33669998E+02  0.26931E+06
 0.33720001E+02  0.23224E+06
 0.33770000E+02  0.25460E+06
 0.33820000E+02  0.61464E+05
 0.33869999E+02 -0.21528E+06
 0.33919998E+02 -0.39172E+05
 0.33970001E+02  0.42425E+05
 0.34020000E+02 -0.12713E+05
 0.34070000E+02 -0.50904E+05
 0.34119999E+02 -0.47267E+06
 0.34169998E+02 -0.63230E+06
 0.34220001E+02 -0.35604E+06
 0.34270000E+02 -0.51893E+06
 0.34320000E+02 -0.72831E+06
 0.34369999E+02 -0.44054E+06
 0.34419998E+02 -0.21655E+06
 0.34470001E+02  0.33961E+05
 0.34520000E+02  0.47763E+06
 0.34570000E+02  0.44868E+06
 0.34619999E+02  0.75628E+05
 0.34669998E+02 -0.40720E+06
 0.34720001E+02 -0.70673E+06
 0.34770000E+02 -0.51782E+06
 0.34820000E+02 -0.30704E+06
 0.34869999E+02  0.15684E+06
 0.34919998E+02  0.36705E+06
 0.34970001E+02  0.74728E+05
 0.35020000E+02 -0.77478E+05
 0.35070000E+02 -0.31169E+06
 0.35119999E+02 -0.30897E+06
 0.35169998E+02 -0.44254E+06
 0.35220001E+02 -0.79836E+06
 0.35270000E+02 -0.66252E+06
 0.35320000E+02 -0.51037E+06
 0.35369999E+02 -0.50281E+06
 0.35419998E+02 -0.27510E+06
 0.35470001E+02  0.35828E+06
 0.35520000E+02  0.78241E+06
 0.35570000E+02  0.50870E+06
 0.35619999E+02 -0.16171E+06
 0.35669998E+02 -0.77628E+06
 0.35720001E+02 -0.77542E+06
 0.35770000E+02 -0.66710E+06
 0.35820000E+02 -0.61394E+06
 0.35869999E+02 -0.44058E+06
 0.35919998E+02 -0.41818E+06
 0.35970001E+02 -0.27521E+06
 0.36020000E+02 -0.64781E+05
 0.36070000E+02 -0.32709E+06
 0.36119999E+02 -0.67761E+06
 0.36169998E+02 -0.42924E+06
 0.36220001E+02 -0.35549E+06
 0.36270000E+02 -0.26098E+06
 0.36320000E+02  0.53817E+05
 0.36369999E+02 -0.43957E+05
 0.36419998E+02  0.11485E+05
 0.36470001E+02  0.16592E+06
 0.36520000E+02  0.20517E+06
 0.36570000E+02  0.13370E+06
 0.36619999E+02 -0.26701E+06
 0.36669998E+02 -0.59864E+06
 0.36720001E+02 -0.53958E+06
 0.36770000E+02 -0.41536E+06
 0.36820000E+02 -0.28483E+06
 0.36869999E+02 -0.30379E+06
 0.36919998E+02 -0.49534E+06
 0.36970001E+02 -0.33234E+06
 0.37020000E+02 -0.35402E+06
 0.37070000E+02 -0.43715E+06
 0.37119999E+02 -0.15462E+06
 0.37169998E+02 -0.40347E+06
 0.37220001E+02 -0.98479E+06
 0.37270000E+02 -0.89295E+06
 0.37320000E+02 -0.43083E+06
 0.37369999E+02 -0.54100E+06
 0.37419998E+02 -0.72652E+06
 0.37470001E+02 -0.48785E+06
 0.37520000E+02 -0.36760E+06
 0.37570000E+02 -0.51216E+06
 0.37619999E+02 -0.69905E+06
 0.37669998E+02 -0.46470E+06
 0.37720001E+02  0.23483E+05
 0.37770000E+02 -0.23325E+05
 0.37820000E+02 -0.61384E+06
 0.37869999E+02 -0.86954E+06
 0.37919998E+02 -0.71451E+06
 0.37970001E+02 -0.37752E+06
 0.38020000E+02  0.44253E+06
 0.38070000E+02  0.85437E+06
 0.38119999E+02  0.35673E+06
 0.38169998E+02 -0.37065E+06
 0.38220001E+02 -0.67651E+06
 0.38270000E+02 -0.19796E+06
 0.38320000E+02  0.28001E+06
 0.38369999E+02  0.42000E+06
 0.38419998E+02  0.21592E+06
 0.38470001E+02 -0.56003E+06
 0.38520000E+02 -0.78691E+06
 0.38570000E+02 -0.67710E+06
 0.38619999E+02 -0.87222E+06
 0.38669998E+02 -0.56115E+06
 0.38720001E+02 -0.10524E+06
 0.38770000E+02 -0.35665E+05
 0.38820000E+02 -0.42964E+06
 0.38869999E+02 -0.58058E+06
 0.38919998E+02 -0.11830E+04
 0.38970001E+02  0.50090E+06
 0.39020000E+02  0.61928E+06
 0.39070000E+02  0.23900E+06
 0.39119999E+02  0.33381E+06
 0.39169998E+02  0.94670E+06
 0.39220001E+02  0.51736E+06
 0.39270000E+02 -0.73202E+05
 0.39320000E+02  0.35731E+06
 0.39369999E+02  0.64506E+06
 0.39419998E+02  0.42269E+06
 0.39470001E+02  0.62060E+06
 0.39520000E+02  0.97751E+06
 0.39570000E+02  0.10561E+07
 0.39619999E+02  0.81909E+06
 0.39669998E+02  0.70561E+06
 0.39720001E+02  0.97519E+06
 0.39770000E+02  0.11344E+07
 0.39820000E+02  0.12927E+07
 0.39869999E+02  0.13441E+07
 0.39919998E+02  0.11603E+07
 0.39970001E+02  0.90799E+06
 0.40020000E+02  0.74328E+06
 0.40070000E+02  0.75877E+06
 0.40119999E+02  0.43963E+06
 0.40169998E+02  0.34036E+06
 0.40220001E+02  0.44197E+06
 0.40270000E+02 -0.31264E+06
 0.40320000E+02 -0.80663E+06
 0.40369999E+02 -0.33993E+06
 0.40419998E+02  0.25886E+06
 0.40470001E+02  0.58722E+06
 0.40520000E+02  0.37158E+06
 0.40570000E+02  0.12951E+06
 0.40619999E+02  0.38532E+06
 0.40669998E+02  0.25396E+06
 0.40720001E+02  0.11214E+06
 0.40770000E+02  0.78610E+06
 0.40820000E+02  0.13321E+07
 0.40869999E+02  0.78723E+06
 0.40919998E+02 -0.27247E+06
 0.40970001E+02  0.38790E+04
 0.41020000E+02  0.12484E+07
 0.41070000E+02  0.19450E+07
 0.41119999E+02  0.18423E+07
 0.41169998E+02  0.10751E+07
 0.41220001E+02  0.23679E+06
 0.41270000E+02 -0.34330E+06
 0.41320000E+02 -0.55860E+06
 0.41369999E+02 -0.89698E+05
 0.41419998E+02  0.71249E+06
 0.41470001E+02  0.12913E+07
 0.41520000E+02  0.16326E+07
 0.41570000E+02  0.13116E+07
 0.41619999E+02  0.80530E+06
 0.41669998E+02  0.76191E+06
 0.41720001E+02  0.51450E+06
 0.41770000E+02  0.15813E+06
 0.41820000E+02  0.17123E+05
 0.41869999E+02 -0.30218E+05
 0.41919998E+02  0.11315E+06
 0.41970001E+02  0.57176E+06
 0.42020000E+02  0.12012E+07
 0.42070000E+02  0.16136E+07
 0.42119999E+02  0.15973E+07
 0.42169998E+02  0.79035E+06
 0.42220001E+02 -0.20440E+06
 0.42270000E+02  0.63003E+05
 0.42320000E+02  0.11388E+07
 0.42369999E+02  0.15865E+07
 0.42419998E+02  0.10090E+07
 0.42470001E+02  0.27806E+06
 0.42520000E+02 -0.96632E+05
 0.42570000E+02 -0.28503E+06
 0.42619999E+02  0.57825E+06
 0.42669998E+02  0.18074E+07
 0.42720001E+02  0.16105E+07
 0.42770000E+02  0.45114E+06
 0.42820000E+02 -0.18844E+06
 0.42869999E+02 -0.68862E+05
 0.42919998E+02 -0.80467E+05
 0.42970001E+02  0.11702E+06
 0.43020000E+02  0.10752E+07
 0.43070000E+02  0.17267E+07
 0.43119999E+02  0.14533E+07
 0.43169998E+02  0.12636E+07
 0.43220001E+02  0.16821E+07
 0.43270000E+02  0.17644E+07
 0.43320000E+02  0.14053E+07
 0.43369999E+02  0.12463E+07
 0.43419998E+02  0.11794E+07
 0.43470001E+02  0.98436E+06
 0.43520000E+02  0.77658E+06
 0.43570000E+02  0.83606E+06
 0.43619999E+02  0.96396E+06
 0.43669998E+02  0.82391E+06
 0.43720001E+02  0.44375E+06
 0.43770000E+02  0.22732E+06
 0.43820000E+02  0.34787E+06
 0.43869999E+02 -0.11449E+06
 0.43919998E+02 -0.10942E+07
 0.43970001E+02 -0.15821E+07
 0.44020000E+02 -0.12199E+07
 0.44070000E+02 -0.28521E+06
 0.44119999E+02  0.17408E+06
 0.44169998E+02 -0.22594E+06
 0.44220001E+02 -0.10269E+07
 0.44270000E+02 -0.15896E+07
 0.44320000E+02 -0.15076E+07
 0.44369999E+02 -0.11592E+07
 0.44419998E+02 -0.92987E+06
 0.44470001E+02 -0.77877E+06
 0.44520000E+02 -0.51831E+06
 0.44570000E+02 -0.29974E+06
 0.44619999E+02 -0.20679E+06
 0.44669998E+02 -0.19229E+06
 0.44720001E+02 -0.49439E+06
 0.44770000E+02 -0.66903E+06
 0.44820000E+02 -0.37660E+06
 0.44869999E+02 -0.26022E+06
 0.44919998E+02 -0.37250E+06
 0.44970001E+02 -0.38908E+06
 0.45020000E+02 -0.46645E+06
 0.45070000E+02 -0.69170E+06
 0.45119999E+02 -0.11302E+07
 0.45169998E+02 -0.16837E+07
 0.45220001E+02 -0.18923E+07
 0.45270000E+02 -0.15706E+07
 0.45320000E+02 -0.12856E+07
 0.45369999E+02 -0.17615E+07
 0.45419998E+02 -0.24625E+07
 0.45470001E+02 -0.21270E+07
 0.45520000E+02 -0.11234E+07
 0.45570000E+02 -0.81051E+06
 0.45619999E+02 -0.12571E+07
 0.45669998E+02 -0.14518E+07
 0.45720001E+02 -0.10291E+07
 0.45770000E+02 -0.44989E+06
 0.45820000E+02 -0.11735E+06
 0.45869999E+02 -0.35093E+06
 0.45919998E+02 -0.75110E+06
 0.45970001E+02 -0.94914E+06
 0.46020000E+02 -0.15411E+07
 0.46070000E+02 -0.24800E+07
 0.46119999E+02 -0.26880E+07
 0.46169998E+02 -0.20519E+07
 0.46220001E+02 -0.14848E+07
 0.46270000E+02 -0.10464E+07
 0.46320000E+02 -0.74398E+06
 0.46369999E+02 -0.82122E+06
 0.46419998E+02 -0.10796E+07
 0.46470001E+02 -0.12220E+07
 0.46520000E+02 -0.10531E+07
 0.46570000E+02 -0.92698E+06
 0.46619999E+02 -0.86842E+06
 0.46669998E+02 -0.73768E+06
 0.46720001E+02 -0.98580E+06
 0.46770000E+02 -0.15037E+07
 0.46820000E+02 -0.15491E+07
 0.46869999E+02 -0.12999E+07
 0.46919998E+02 -0.10949E+07
 0.46970001E+02 -0.35368E+06
 0.47020000E+02  0.59431E+06
 0.47070000E+02  0.76247E+06
 0.47119999E+02  0.25149E+06
 0.47169998E+02 -0.20877E+06
 0.47220001E+02 -0.43514E+06
 0.47270000E+02 -0.63411E+06
 0.47320000E+02 -0.85410E+06
 0.47369999E+02 -0.10205E+07
 0.47419998E+02 -0.11598E+07
 0.47470001E+02 -0.11146E+07
 0.47520000E+02 -0.61127E+06
 0.47570000E+02 -0.64190E+04
 0.47619999E+02  0.46537E+06
 0.47669998E+02  0.83574E+06
 0.47720001E+02  0.96181E+06
 0.47770000E+02  0.83887E+06
 0.47820000E+02  0.59621E+06
 0.47869999E+02  0.40061E+06
 0.47919998E+02  0.18069E+06
 0.47970001E+02 -0.92162E+05
 0.48020000E+02 -0.13044E+06
 0.48070000E+02 -0.16969E+06
 0.48119999E+02 -0.46895E+06
 0.48169998E+02 -0.61575E+06
 0.48220001E+02 -0.54261E+06
 0.48270000E+02 -0.22518E+06
 0.48320000E+02  0.29910E+06
 0.48369999E+02  0.75813E+06
 0.48419998E+02  0.10456E+07
 0.48470001E+02  0.85918E+06
 0.48520000E+02  0.54576E+06
 0.48570000E+02  0.33797E+06
 0.48619999E+02 -0.14848E+06
 0.48669998E+02 -0.45518E+06
 0.48720001E+02 -0.13884E+06
 0.48770000E+02  0.40407E+06
 0.48820000E+02  0.84137E+06
 0.48869999E+02  0.12879E+07
 0.48919998E+02  0.16550E+07
 0.48970001E+02  0.18318E+07
 0.49020000E+02  0.20192E+07
 0.49070000E+02  0.18705E+07
 0.49119999E+02  0.11482E+07
 0.49169998E+02  0.56893E+06
 0.49220001E+02  0.60312E+06
 0.49270000E+02  0.10075E+07
 0.49320000E+02  0.12574E+07
 0.49369999E+02  0.12824E+07
 0.49419998E+02  0.12272E+07
 0.49470001E+02  0.81543E+06
 0.49520000E+02  0.40193E+06
 0.49570000E+02  0.36567E+06
 0.49619999E+02  0.29976E+06
 0.49669998E+02  0.13250E+06
 0.49720001E+02  0.70818E+05
 0.49770000E+02 -0.13372E+06
 0.49820000E+02 -0.58898E+06
 0.49869999E+02 -0.99209E+06
 0.49919998E+02 -0.12600E+07
 0.49970001E+02 -0.14032E+07
 0.50020000E+02 -0.14532E+07
 0.50070000E+02 -0.15695E+07
 0.50119999E+02 -0.15640E+07
 0.50169998E+02 -0.13247E+07
 0.50220001E+02 -0.10027E+07
 0.50270000E+02 -0.17278E+06
 0.50320000E+02  0.92890E+06
 0.50369999E+02  0.13483E+07
 0.50419998E+02  0.11245E+07
 0.50470001E+02  0.87357E+06
 0.50520000E+02  0.94914E+06
 0.50570000E+02  0.10092E+07
 0.50619999E+02  0.66463E+06
 0.50669998E+02  0.70192E+05
 0.50720001E+02 -0.59956E+06
 0.50770000E+02 -0.11706E+07
 0.50820000E+02 -0.14858E+07
 0.50869999E+02 -0.17890E+07
 0.50919998E+02 -0.21719E+07
 0.50970001E+02 -0.22683E+07
 0.51020000E+02 -0.19804E+07
 0.51070000E+02 -0.14855E+07
 0.51119999E+02 -0.13830E+07
 0.51169998E+02 -0.17467E+07
 0.51220001E+02 -0.17655E+07
 0.51270000E+02 -0.13984E+07
 0.51320000E+02 -0.10771E+07
 0.51369999E+02 -0.83525E+06
 0.51419998E+02 -0.65084E+06
 0.51470001E+02 -0.72533E+06
 0.51520000E+02 -0.78518E+06
 0.51570000E+02 -0.61248E+06
 0.51619999E+02 -0.66142E+06
 0.51669998E+02 -0.93446E+06
 0.51720001E+02 -0.96402E+06
 0.51770000E+02 -0.57902E+06
 0.51820000E+02 -0.10722E+06
 0.51869999E+02  0.37755E+06
 0.51919998E+02  0.81715E+06
 0.51970001E+02  0.76233E+06
 0.52020000E+02  0.43774E+06
 0.52070000E+02  0.38889E+06
 0.52119999E+02  0.61835E+06
 0.52169998E+02  0.96413E+06
 0.52220001E+02  0.13032E+07
 0.52270000E+02  0.14988E+07
 0.52320000E+02  0.15626E+07
 0.52369999E+02  0.15674E+07
 0.52419998E+02  0.15066E+07
 0.52470001E+02  0.12977E+07
 0.52520000E+02  0.10204E+07
 0.52570000E+02  0.83458E+06
 0.52619999E+02  0.64925E+06
 0.52669998E+02  0.43391E+06
 0.52720001E+02  0.30187E+06
 0.52770000E+02  0.36358E+06
 0.52820000E+02  0.50420E+06
 0.52869999E+02  0.45568E+06
 0.52919998E+02  0.19298E+06
 0.52970001E+02 -0.75882E+05
 0.53020000E+02 -0.15366E+06
 0.53070000E+02 -0.17616E+05
 0.53119999E+02  0.36708E+06
 0.53169998E+02  0.87768E+06
 0.53220001E+02  0.14095E+07
 0.53270000E+02  0.17781E+07
 0.53320000E+02  0.17722E+07
 0.53369999E+02  0.16391E+07
 0.53419998E+02  0.14277E+07
 0.53470001E+02  0.11380E+07
 0.53520000E+02  0.78063E+06
 0.53570000E+02  0.43225E+06
 0.53619999E+02  0.42086E+06
 0.53669998E+02  0.49954E+06
 0.53720001E+02  0.45215E+06
 0.53770000E+02  0.60434E+06
 0.53820000E+02  0.92258E+06
 0.53869999E+02  0.11561E+07
 0.53919998E+02  0.14061E+07
 0.53970001E+02  0.16004E+07
 0.54020000E+02  0.16195E+07
 0.54070000E+02  0.15919E+07
 0.54119999E+02  0.13245E+07
 0.54169998E+02  0.83803E+06
 0.54220001E+02  0.56371E+06
 0.54270000E+02  0.64243E+06
 0.54320000E+02  0.85460E+06
 0.54369999E+02  0.97262E+06
 0.54419998E+02  0.11751E+07
 0.54470001E+02  0.14256E+07
 0.54520000E+02  0.14316E+07
 0.54570000E+02  0.12721E+07
 0.54619999E+02  0.87339E+06
 0.54669998E+02  0.38298E+06
 0.54720001E+02  0.33440E+06
 0.54770000E+02  0.64008E+06
 0.54820000E+02  0.92695E+06
 0.54869999E+02  0.11955E+07
 0.54919998E+02  0.14829E+07
 0.54970001E+02  0.15673E+07
 0.55020000E+02  0.13263E+07
 0.55070000E+02  0.87348E+06
 0.55119999E+02  0.40307E+06
 0.55169998E+02  0.11124E+06
 0.55220001E+02  0.13932E+05
 0.55270000E+02  0.27408E+05
 0.55320000E+02  0.73821E+05
 0.55369999E+02  0.78524E+05
 0.55419998E+02 -0.18206E+05
 0.55470001E+02 -0.15593E+06
 0.55520000E+02 -0.24072E+06
 0.55570000E+02 -0.19472E+06
 0.55619999E+02  0.89130E+05
 0.55669998E+02  0.59111E+06
 0.55720001E+02  0.10942E+07
 0.55770000E+02  0.12806E+07
 0.55820000E+02  0.10988E+07
 0.55869999E+02  0.70367E+06
 0.55919998E+02  0.15757E+06
 0.55970001E+02 -0.34494E+06
 0.56020000E+02 -0.57229E+06
 0.56070000E+02 -0.68197E+06
 0.56119999E+02 -0.79425E+06
 0.56169998E+02 -0.72206E+06
 0.56220001E+02 -0.55618E+06
 0.56270000E+02 -0.43392E+06
 0.56320000E+02 -0.33324E+06
 0.56369999E+02 -0.42335E+06
 0.56419998E+02 -0.67123E+06
 0.56470001E+02 -0.80905E+06
 0.56520000E+02 -0.81792E+06
 0.56570000E+02 -0.83746E+06
 0.56619999E+02 -0.99088E+06
 0.56669998E+02 -0.13123E+07
 0.56720001E+02 -0.15429E+07
 0.56770000E+02 -0.15530E+07
 0.56820000E+02 -0.15323E+07
 0.56869999E+02 -0.14873E+07
 0.56919998E+02 -0.13809E+07
 0.56970001E+02 -0.12357E+07
 0.57020000E+02 -0.10448E+07
 0.57070000E+02 -0.90038E+06
 0.57119999E+02 -0.85240E+06
 0.57169998E+02 -0.89620E+06
 0.57220001E+02 -0.10984E+07
 0.57270000E+02 -0.13638E+07
 0.57320000E+02 -0.14775E+07
 0.57369999E+02 -0.13909E+07
 0.57419998E+02 -0.11482E+07
 0.57470001E+02 -0.86920E+06
 0.57520000E+02 -0.63105E+06
 0.57570000E+02 -0.44107E+06
 0.57619999E+02 -0.36646E+06
 0.57669998E+02 -0.39361E+06
 0.57720001E+02 -0.49556E+06
 0.57770000E+02 -0.63477E+06
 0.57820000E+02 -0.75176E+06
 0.57869999E+02 -0.84932E+06
 0.57919998E+02 -0.85648E+06
 0.57970001E+02 -0.72200E+06
 0.58020000E+02 -0.59563E+06
 0.58070000E+02 -0.47456E+06
 0.58119999E+02 -0.17602E+06
 0.58169998E+02  0.14131E+06
 0.58220001E+02  0.33392E+06
 0.58270000E+02  0.56117E+06
 0.58320000E+02  0.74330E+06
 0.58369999E+02  0.61745E+06
 0.58419998E+02  0.31852E+06
 0.58470001E+02  0.13994E+06
 0.58520000E+02  0.23244E+06
 0.58570000E+02  0.62603E+06
 0.58619999E+02  0.10303E+07
 0.58669998E+02  0.12545E+07
 0.58720001E+02  0.13324E+07
 0.58770000E+02  0.13157E+07
 0.58820000E+02  0.12703E+07
 0.58869999E+02  0.11101E+07
 0.58919998E+02  0.80024E+06
 0.58970001E+02  0.45646E+06
 0.59020000E+02  0.21552E+06
 0.59070000E+02 -0.62282E+05
 0.59119999E+02 -0.45345E+06
 0.59169998E+02 -0.70481E+06
 0.59220001E+02 -0.78928E+06
 0.59270000E+02 -0.68515E+06
 0.59320000E+02 -0.41748E+06
 0.59369999E+02 -0.19536E+06
 0.59419998E+02 -0.21939E+06
 0.59470001E+02 -0.52564E+06
 0.59520000E+02 -0.85963E+06
 0.59570000E+02 -0.11541E+07
 0.59619999E+02 -0.13729E+07
 0.59669998E+02 -0.14201E+07
 0.59720001E+02 -0.14556E+07
 0.59770000E+02 -0.15290E+07
 0.59820000E+02 -0.14852E+07
 0.59869999E+02 -0.13627E+07
 0.59919998E+02 -0.12394E+07
 0.59970001E+02 -0.98208E+06
 0.60020000E+02 -0.62670E+06
 0.60070000E+02 -0.33433E+06
 0.60119999E+02 -0.16264E+06
 0.60170002E+02 -0.11465E+06
 0.60219997E+02 -0.13778E+06
 0.60270000E+02 -0.19350E+06
 0.60320004E+02 -0.25281E+06
 0.60369999E+02 -0.35126E+06
 0.60420002E+02 -0.52508E+06
 0.60469997E+02 -0.74894E+06
 0.60520000E+02 -0.96177E+06
 0.60570004E+02 -0.10647E+07
 0.60619999E+02 -0.11230E+07
 0.60670002E+02 -0.11863E+07
 0.60719997E+02 -0.11896E+07
 0.60770000E+02 -0.11819E+07
 0.60820004E+02 -0.11238E+07
 0.60869999E+02 -0.92037E+06
 0.60920002E+02 -0.65550E+06
 0.60969997E+02 -0.45766E+06
 0.61020000E+02 -0.34379E+06
 0.61070004E+02 -0.22729E+06
 0.61119999E+02 -0.11003E+06
 0.61170002E+02 -0.14504E+06
 0.61219997E+02 -0.19642E+06
 0.61270000E+02  0.66000E+03
 0.61320004E+02  0.25132E+06
 0.61369999E+02  0.34539E+06
 0.61420002E+02  0.32755E+06
 0.61469997E+02  0.21503E+06
 0.61520000E+02  0.12745E+06
 0.61570004E+02  0.15981E+06
 0.61619999E+02  0.15058E+06
 0.61670002E+02 -0.16579E+05
 0.61719997E+02 -0.20442E+06
 0.61770000E+02 -0.26380E+06
 0.61820004E+02 -0.21990E+06
 0.61869999E+02 -0.14091E+06
 0.61920002E+02 -0.46441E+05
 0.61969997E+02  0.35335E+05
 0.62020000E+02  0.87039E+05
 0.62070004E+02  0.16684E+06
 0.62119999E+02  0.37260E+06
 0.62170002E+02  0.67226E+06
 0.62219997E+02  0.86174E+06
 0.62270000E+02  0.83753E+06
 0.62320004E+02  0.67172E+06
 0.62369999E+02  0.48936E+06
 0.62420002E+02  0.37107E+06
 0.62469997E+02  0.27795E+06
 0.62520000E+02  0.20889E+06
 0.62570004E+02  0.21683E+06
 0.62619999E+02  0.32331E+06
 0.62670002E+02  0.53118E+06
 0.62719997E+02  0.81403E+06
 0.62770000E+02  0.11728E+07
 0.62820004E+02  0.15700E+07
 0.62869999E+02  0.18911E+07
 0.62920002E+02  0.20695E+07
 0.62969997E+02  0.20399E+07
 0.63020000E+02  0.18521E+07
 0.63070004E+02  0.16825E+07
 0.63119999E+02  0.14948E+07
 0.63170002E+02  0.12020E+07
 0.63219997E+02  0.86554E+06
 0.63270000E+02  0.61294E+06
 0.63320004E+02  0.56660E+06
 0.63369999E+02  0.64936E+06
 0.63420002E+02  0.71060E+06
 0.63469997E+02  0.78313E+06
 0.63520000E+02  0.87820E+06
 0.63570004E+02  0.89456E+06
 0.63619999E+02  0.84027E+06
 0.63670002E+02  0.77535E+06
 0.63719997E+02  0.77472E+06
 0.63770000E+02  0.85686E+06
 0.63820004E+02  0.86034E+06
 0.63869999E+02  0.63175E+06
 0.63920002E+02  0.17698E+06
 0.63969997E+02 -0.32739E+06
 0.64020004E+02 -0.71795E+06
 0.64070007E+02 -0.98107E+06
 0.64120003E+02 -0.11382E+07
 0.64170006E+02 -0.12427E+07
 0.64220001E+02 -0.12656E+07
 0.64270004E+02 -0.10633E+07
 0.64320007E+02 -0.73675E+06
 0.64370003E+02 -0.53725E+06
 0.64420006E+02 -0.49558E+06
 0.64470001E+02 -0.53393E+06
 0.64520004E+02 -0.58820E+06
 0.64570007E+02 -0.51372E+06
 0.64620003E+02 -0.32052E+06
 0.64670006E+02 -0.16790E+06
 0.64720001E+02  0.99130E+04
 0.64770004E+02  0.29792E+06
 0.64820007E+02  0.61330E+06
 0.64870003E+02  0.79302E+06
 0.64920006E+02  0.81068E+06
 0.64970001E+02  0.79138E+06
 0.65020004E+02  0.70703E+06
 0.65070007E+02  0.57118E+06
 0.65120003E+02  0.44506E+06
 0.65170006E+02  0.29542E+06
 0.65220001E+02  0.11740E+06
 0.65270004E+02 -0.59256E+05
 0.65320007E+02 -0.22135E+06
 0.65370003E+02 -0.44916E+06
 0.65420006E+02 -0.75011E+06
 0.65470001E+02 -0.10217E+07
 0.65520004E+02 -0.11824E+07
 0.65570007E+02 -0.11784E+07
 0.65620003E+02 -0.10419E+07
 0.65670006E+02 -0.84513E+06
 0.65720001E+02 -0.63928E+06
 0.65770004E+02 -0.48491E+06
 0.65820007E+02 -0.40022E+06
 0.65870003E+02 -0.30199E+06
 0.65920006E+02 -0.17644E+06
 0.65970001E+02 -0.89540E+05
 0.66020004E+02  0.33383E+05
 0.66070007E+02  0.28482E+06
 0.66120003E+02  0.59698E+06
 0.66170006E+02  0.87368E+06
 0.66220001E+02  0.10750E+07
 0.66270004E+02  0.11882E+07
 0.66320007E+02  0.12657E+07
 0.66370003E+02  0.12854E+07
 0.66420006E+02  0.12024E+07
 0.66470001E+02  0.10871E+07
 0.66520004E+02  0.97809E+06
 0.66570007E+02  0.92143E+06
 0.66620003E+02  0.90091E+06
 0.66670006E+02  0.91146E+06
 0.66720001E+02  0.99652E+06
 0.66770004E+02  0.10810E+07
 0.66820007E+02  0.11695E+07
 0.66870003E+02  0.12891E+07
 0.66920006E+02  0.14037E+07
 0.66970001E+02  0.14944E+07
 0.67020004E+02  0.15082E+07
 0.67070007E+02  0.13622E+07
 0.67120003E+02  0.10355E+07
 0.67170006E+02  0.66816E+06
 0.67220001E+02  0.40790E+06
 0.67270004E+02  0.29198E+06
 0.67320007E+02  0.28497E+06
 0.67370003E+02  0.34084E+06
 0.67420006E+02  0.46751E+06
 0.67470001E+02  0.63583E+06
 0.67520004E+02  0.76780E+06
 0.67570007E+02  0.78542E+06
 0.67620003E+02  0.68168E+06
 0.67670006E+02  0.49310E+06
 0.67720001E+02  0.22736E+06
 0.67770004E+02 -0.38218E+05
 0.67820007E+02 -0.27467E+06
 0.67870003E+02 -0.52242E+06
 0.67920006E+02 -0.79954E+06
 0.67970001E+02 -0.11357E+07
 0.68020004E+02 -0.14796E+07
 0.68070007E+02 -0.17871E+07
 0.68120003E+02 -0.19667E+07
 0.68170006E+02 -0.18947E+07
 0.68220001E+02 -0.17363E+07
 0.68270004E+02 -0.16720E+07
 0.68320007E+02 -0.16601E+07
 0.68370003E+02 -0.16779E+07
 0.68420006E+02 -0.17381E+07
 0.68470001E+02 -0.17867E+07
 0.68520004E+02 -0.17345E+07
 0.68570007E+02 -0.15897E+07
 0.68620003E+02 -0.14224E+07
 0.68670006E+02 -0.11970E+07
 0.68720001E+02 -0.89575E+06
 0.68770004E+02 -0.62470E+06
 0.68820007E+02 -0.45354E+06
 0.68870003E+02 -0.38064E+06
 0.68920006E+02 -0.39649E+06
 0.68970001E+02 -0.42903E+06
 0.69020004E+02 -0.40774E+06
 0.69070007E+02 -0.32374E+06
 0.69120003E+02 -0.21906E+06
 0.69170006E+02 -0.17160E+06
 0.69220001E+02 -0.14300E+06
 0.69270004E+02 -0.90252E+05
 0.69320007E+02 -0.10323E+06
 0.69370003E+02 -0.19723E+06
 0.69420006E+02 -0.26685E+06
 0.69470001E+02 -0.26169E+06
 0.69520004E+02 -0.19908E+06
 0.69570007E+02 -0.93191E+05
 0.69620003E+02  0.23055E+05
 0.69670006E+02  0.10495E+06
 0.69720001E+02  0.14296E+06
 0.69770004E+02  0.14135E+06
 0.69820007E+02  0.16462E+06
 0.69870003E+02  0.27414E+06
 0.69920006E+02  0.40936E+06
 0.69970001E+02  0.52012E+06
 0.70020004E+02  0.59000E+06
 0.70070007E+02  0.61537E+06
 0.70120003E+02  0.56383E+06
 0.70170006E+02  0.38204E+06
 0.70220001E+02  0.19721E+06
 0.70270004E+02  0.15970E+06
 0.70320007E+02  0.21898E+06
 0.70370003E+02  0.32951E+06
 0.70420006E+02  0.43830E+06
 0.70470001E+02  0.44885E+06
 0.70520004E+02  0.37774E+06
 0.70570007E+02  0.23994E+06
 0.70620003E+02  0.78656E+05
 0.70670006E+02 -0.71212E+05
 0.70720001E+02 -0.18456E+06
 0.70770004E+02 -0.21854E+06
 0.70820007E+02 -0.24675E+06
 0.70870003E+02 -0.31264E+06
 0.70920006E+02 -0.38530E+06
 0.70970001E+02 -0.44987E+06
 0.71020004E+02 -0.58312E+06
 0.71070007E+02 -0.79764E+06
 0.71120003E+02 -0.10008E+07
 0.71170006E+02 -0.11163E+07
 0.71220001E+02 -0.10383E+07
 0.71270004E+02 -0.80920E+06
 0.71320007E+02 -0.55178E+06
 0.71370003E+02 -0.33657E+06
 0.71420006E+02 -0.20373E+06
 0.71470001E+02 -0.93187E+05
 0.71520004E+02 -0.18360E+04
 0.71570007E+02  0.34205E+05
 0.71620003E+02  0.57550E+05
 0.71670006E+02  0.49873E+05
 0.71720001E+02  0.70600E+04
 0.71770004E+02  0.54050E+04
 0.71820007E+02  0.46173E+05
 0.71870003E+02  0.93108E+05
 0.71920006E+02  0.14174E+06
 0.71970001E+02  0.17298E+06
 0.72020004E+02  0.19717E+06
 0.72070007E+02  0.27566E+06
 0.72120003E+02  0.40578E+06
 0.72170006E+02  0.51479E+06
 0.72220001E+02  0.54668E+06
 0.72270004E+02  0.48350E+06
 0.72320007E+02  0.33671E+06
 0.72370003E+02  0.12108E+06
 0.72420006E+02 -0.97828E+05
 0.72470001E+02 -0.22582E+06
 0.72520004E+02 -0.26657E+06
 0.72570007E+02 -0.27966E+06
 0.72620003E+02 -0.27635E+06
 0.72670006E+02 -0.24611E+06
 0.72720001E+02 -0.18192E+06
 0.72770004E+02 -0.40079E+05
 0.72820007E+02  0.19381E+06
 0.72870003E+02  0.43830E+06
 0.72920006E+02  0.61804E+06
 0.72970001E+02  0.74498E+06
 0.73020004E+02  0.82966E+06
 0.73070007E+02  0.85584E+06
 0.73120003E+02  0.89019E+06
 0.73170006E+02  0.10005E+07
 0.73220001E+02  0.11424E+07
 0.73270004E+02  0.12191E+07
 0.73320007E+02  0.11974E+07
 0.73370003E+02  0.11332E+07
 0.73420006E+02  0.10440E+07
 0.73470001E+02  0.90706E+06
 0.73520004E+02  0.70895E+06
 0.73570007E+02  0.47258E+06
 0.73620003E+02  0.28755E+06
 0.73670006E+02  0.19259E+06
 0.73720001E+02  0.11918E+06
 0.73770004E+02  0.11270E+05
 0.73820007E+02 -0.10490E+06
 0.73870003E+02 -0.20138E+06
 0.73920006E+02 -0.27860E+06
 0.73970001E+02 -0.35632E+06
 0.74020004E+02 -0.42134E+06
 0.74070007E+02 -0.39978E+06
 0.74120003E+02 -0.33501E+06
 0.74170006E+02 -0.32370E+06
 0.74220001E+02 -0.35164E+06
 0.74270004E+02 -0.40876E+06
 0.74320007E+02 -0.48503E+06
 0.74370003E+02 -0.53475E+06
 0.74420006E+02 -0.55291E+06
 0.74470001E+02 -0.52835E+06
 0.74520004E+02 -0.42644E+06
 0.74570007E+02 -0.28927E+06
 0.74620003E+02 -0.19850E+06
 0.74670006E+02 -0.18379E+06
 0.74720001E+02 -0.23821E+06
 0.74770004E+02 -0.33158E+06
 0.74820007E+02 -0.41817E+06
 0.74870003E+02 -0.47788E+06
 0.74920006E+02 -0.53617E+06
 0.74970001E+02 -0.60148E+06
 0.75020004E+02 -0.65467E+06
 0.75070007E+02 -0.64801E+06
 0.75120003E+02 -0.54561E+06
 0.75170006E+02 -0.39416E+06
 0.75220001E+02 -0.20825E+06
 0.75270004E+02  0.24960E+04
 0.75320007E+02  0.19459E+06
 0.75370003E+02  0.38823E+06
 0.75420006E+02  0.59771E+06
 0.75470001E+02  0.82321E+06
 0.75520004E+02  0.10070E+07
 0.75570007E+02  0.10603E+07
 0.75620003E+02  0.10180E+07
 0.75670006E+02  0.92309E+06
 0.75720001E+02  0.81231E+06
 0.75770004E+02  0.74400E+06
 0.75820007E+02  0.72367E+06
 0.75870003E+02  0.71636E+06
 0.75920006E+02  0.67183E+06
 0.75970001E+02  0.54874E+06
 0.76020004E+02  0.31736E+06
 0.76070007E+02  0.30921E+05
 0.76120003E+02 -0.22091E+06
 0.76170006E+02 -0.37741E+06
 0.76220001E+02 -0.41857E+06
 0.76270004E+02 -0.38559E+06
 0.76320007E+02 -0.31957E+06
 0.76370003E+02 -0.26791E+06
 0.76420006E+02 -0.23677E+06
 0.76470001E+02 -0.19947E+06
 0.76520004E+02 -0.14356E+06
 0.76570007E+02 -0.54424E+05
 0.76620003E+02  0.51692E+05
 0.76670006E+02  0.12171E+06
 0.76720001E+02  0.97477E+05
 0.76770004E+02 -0.24773E+05
 0.76820007E+02 -0.18725E+06
 0.76870003E+02 -0.33132E+06
 0.76920006E+02 -0.46765E+06
 0.76970001E+02 -0.60463E+06
 0.77020004E+02 -0.68755E+06
 0.77070007E+02 -0.68260E+06
 0.77120003E+02 -0.60824E+06
 0.77170006E+02 -0.52277E+06
 0.77220001E+02 -0.44252E+06
 0.77270004E+02 -0.36190E+06
 0.77320007E+02 -0.36748E+06
 0.77370003E+02 -0.49207E+06
 0.77420006E+02 -0.62653E+06
 0.77470001E+02 -0.70768E+06
 0.77520004E+02 -0.70452E+06
 0.77570007E+02 -0.58392E+06
 0.77620003E+02 -0.41501E+06
 0.77670006E+02 -0.26398E+06
 0.77720001E+02 -0.13928E+06
 0.77770004E+02 -0.50253E+05
 0.77820007E+02  0.15548E+05
 0.77870003E+02  0.76515E+05
 0.77920006E+02  0.15192E+06
 0.77970001E+02  0.24225E+06
 0.78020004E+02  0.29433E+06
 0.78070007E+02  0.27830E+06
 0.78120003E+02  0.18979E+06
 0.78170006E+02  0.35557E+05
 0.78220001E+02 -0.13410E+06
 0.78270004E+02 -0.26884E+06
 0.78320007E+02 -0.35211E+06
 0.78370003E+02 -0.40668E+06
 0.78420006E+02 -0.44758E+06
 0.78470001E+02 -0.47708E+06
 0.78520004E+02 -0.49157E+06
 0.78570007E+02 -0.47692E+06
 0.78620003E+02 -0.43474E+06
 0.78670006E+02 -0.36580E+06
 0.78720001E+02 -0.27154E+06
 0.78770004E+02 -0.13269E+06
 0.78820007E+02  0.65720E+05
 0.78870003E+02  0.29397E+06
 0.78920006E+02  0.49819E+06
 0.78970001E+02  0.61945E+06
 0.79020004E+02  0.64392E+06
 0.79070007E+02  0.59494E+06
 0.79120003E+02  0.48656E+06
 0.79170006E+02  0.32995E+06
 0.79220001E+02  0.17885E+06
 0.79270004E+02  0.83979E+05
 0.79320007E+02  0.45322E+05
 0.79370003E+02  0.73316E+05
 0.79420006E+02  0.14333E+06
 0.79470001E+02  0.19717E+06
 0.79520004E+02  0.23167E+06
 0.79570007E+02  0.26087E+06
 0.79620003E+02  0.26464E+06
 0.79670006E+02  0.23980E+06
 0.79720001E+02  0.20783E+06
 0.79770004E+02  0.16154E+06
 0.79820007E+02  0.10399E+06
 0.79870003E+02  0.58411E+05
 0.79920006E+02  0.25493E+05
 0.79970001E+02  0.94020E+04
 0.80020004E+02  0.35179E+05
 0.80070007E+02  0.81222E+05
 0.80120003E+02  0.11346E+06
 0.80170006E+02  0.13704E+06
 0.80220001E+02  0.15653E+06
 0.80270004E+02  0.17485E+06
 0.80320007E+02  0.18153E+06
 0.80370003E+02  0.15792E+06
 0.80420006E+02  0.12330E+06
 0.80470001E+02  0.12940E+06
 0.80520004E+02  0.16586E+06
 0.80570007E+02  0.19385E+06
 0.80620003E+02  0.19678E+06
 0.80670006E+02  0.16203E+06
 0.80720001E+02  0.11676E+06
 0.80770004E+02  0.79192E+05
 0.80820007E+02  0.49738E+05
 0.80870003E+02  0.42909E+05
 0.80920006E+02  0.81088E+05
 0.80970001E+02  0.18146E+06
 0.81020004E+02  0.33405E+06
 0.81070007E+02  0.48263E+06
 0.81120003E+02  0.56037E+06
 0.81170006E+02  0.56359E+06
 0.81220001E+02  0.52554E+06
 0.81270004E+02  0.48508E+06
 0.81320007E+02  0.46931E+06
 0.81370003E+02  0.44799E+06
 0.81420006E+02  0.37999E+06
 0.81470001E+02  0.27959E+06
 0.81520004E+02  0.18166E+06
 0.81570007E+02  0.12060E+06
 0.81620003E+02  0.93000E+05
 0.81670006E+02  0.68840E+05
 0.81720001E+02  0.61815E+05
 0.81770004E+02  0.89000E+05
 0.81820007E+02  0.14545E+06
 0.81870003E+02  0.21387E+06
 0.81920006E+02  0.28337E+06
 0.81970001E+02  0.31465E+06
 0.82020004E+02  0.28275E+06
 0.82070007E+02  0.22813E+06
 0.82120003E+02  0.17118E+06
 0.82170006E+02  0.11724E+06
 0.82220001E+02  0.65849E+05
 0.82270004E+02  0.50149E+05
 0.82320007E+02  0.90612E+05
 0.82370003E+02  0.12615E+06
 0.82420006E+02  0.13022E+06
 0.82470001E+02  0.12332E+06
 0.82520004E+02  0.12412E+06
 0.82570007E+02  0.14966E+06
 0.82620003E+02  0.16637E+06
 0.82670006E+02  0.11807E+06
 0.82720001E+02  0.23147E+05
 0.82770004E+02 -0.81592E+05
 0.82820007E+02 -0.20317E+06
 0.82870003E+02 -0.35513E+06
 0.82920006E+02 -0.53465E+06
 0.82970001E+02 -0.71566E+06
 0.83020004E+02 -0.84354E+06
 0.83070007E+02 -0.89759E+06
 0.83120003E+02 -0.90862E+06
 0.83170006E+02 -0.86749E+06
 0.83220001E+02 -0.78335E+06
 0.83270004E+02 -0.67915E+06
 0.83320007E+02 -0.54648E+06
 0.83370003E+02 -0.41713E+06
 0.83420006E+02 -0.31587E+06
 0.83470001E+02 -0.22743E+06
 0.83520004E+02 -0.14688E+06
 0.83570007E+02 -0.92170E+05
 0.83620003E+02 -0.62296E+05
 0.83670006E+02 -0.60705E+05
 0.83720001E+02 -0.94227E+05
 0.83770004E+02 -0.13300E+06
 0.83820007E+02 -0.15002E+06
 0.83870003E+02 -0.11746E+06
 0.83920006E+02 -0.44289E+05
 0.83970001E+02  0.15520E+05
 0.84020004E+02  0.52830E+05
 0.84070007E+02  0.82422E+05
 0.84120003E+02  0.95567E+05
 0.84170006E+02  0.84169E+05
 0.84220001E+02  0.47736E+05
 0.84270004E+02  0.19050E+05
 0.84320007E+02  0.52632E+05
 0.84370003E+02  0.13954E+06
 0.84420006E+02  0.23317E+06
 0.84470001E+02  0.31537E+06
 0.84520004E+02  0.36796E+06
 0.84570007E+02  0.36356E+06
 0.84620003E+02  0.29843E+06
 0.84670006E+02  0.19393E+06
 0.84720001E+02  0.72968E+05
 0.84770004E+02 -0.51484E+05
 0.84820007E+02 -0.16148E+06
 0.84870003E+02 -0.23788E+06
 0.84920006E+02 -0.29588E+06
 0.84970001E+02 -0.35030E+06
 0.85020004E+02 -0.38555E+06
 0.85070007E+02 -0.42802E+06
 0.85120003E+02 -0.50114E+06
 0.85170006E+02 -0.56449E+06
 0.85220001E+02 -0.59081E+06
 0.85270004E+02 -0.57569E+06
 0.85320007E+02 -0.51107E+06
 0.85370003E+02 -0.41306E+06
 0.85420006E+02 -0.32408E+06
 0.85470001E+02 -0.25054E+06
 0.85520004E+02 -0.18830E+06
 0.85570007E+02 -0.16067E+06
 0.85620003E+02 -0.16568E+06
 0.85670006E+02 -0.19822E+06
 0.85720001E+02 -0.26117E+06
 0.85770004E+02 -0.32638E+06
 0.85820007E+02 -0.34219E+06
 0.85870003E+02 -0.30529E+06
 0.85920006E+02 -0.26634E+06
 0.85970001E+02 -0.24178E+06
 0.86020004E+02 -0.22071E+06
 0.86070007E+02 -0.17015E+06
 0.86120003E+02 -0.58764E+05
 0.86170006E+02  0.80886E+05
 0.86220001E+02  0.20811E+06
 0.86270004E+02  0.31916E+06
 0.86320007E+02  0.43562E+06
 0.86370003E+02  0.57249E+06
 0.86420006E+02  0.68680E+06
 0.86470001E+02  0.73093E+06
 0.86520004E+02  0.71816E+06
 0.86570007E+02  0.67007E+06
 0.86620003E+02  0.59341E+06
 0.86670006E+02  0.50686E+06
 0.86720001E+02  0.42638E+06
 0.86770004E+02  0.34810E+06
 0.86820007E+02  0.26156E+06
 0.86870003E+02  0.16205E+06
 0.86920006E+02  0.71156E+05
 0.86970001E+02  0.27966E+05
 0.87020004E+02  0.59673E+05
 0.87070007E+02  0.14555E+06
 0.87120003E+02  0.23813E+06
 0.87170006E+02  0.33168E+06
 0.87220001E+02  0.42480E+06
 0.87270004E+02  0.51850E+06
 0.87320007E+02  0.60422E+06
 0.87370003E+02  0.66257E+06
 0.87420006E+02  0.69022E+06
 0.87470001E+02  0.66293E+06
 0.87520004E+02  0.59020E+06
 0.87570007E+02  0.51094E+06
 0.87620003E+02  0.44656E+06
 0.87670006E+02  0.39886E+06
 0.87720001E+02  0.33911E+06
 0.87770004E+02  0.25054E+06
 0.87820007E+02  0.15076E+06
 0.87870003E+02  0.53739E+05
 0.87920006E+02 -0.48014E+05
 0.87970001E+02 -0.15431E+06
 0.88020004E+02 -0.25105E+06
 0.88070007E+02 -0.31662E+06
 0.88120003E+02 -0.33668E+06
 0.88170006E+02 -0.34146E+06
 0.88220001E+02 -0.36084E+06
 0.88270004E+02 -0.39348E+06
 0.88320007E+02 -0.45627E+06
 0.88370003E+02 -0.53926E+06
 0.88420006E+02 -0.60174E+06
 0.88470001E+02 -0.61765E+06
 0.88520004E+02 -0.55768E+06
 0.88570007E+02 -0.44180E+06
 0.88620003E+02 -0.31733E+06
 0.88670006E+02 -0.20262E+06
 0.88720001E+02 -0.12208E+06
 0.88770004E+02 -0.86515E+05
 0.88820007E+02 -0.88508E+05
 0.88870003E+02 -0.11502E+06
 0.88920006E+02 -0.13607E+06
 0.88970001E+02 -0.13909E+06
 0.89020004E+02 -0.12579E+06
 0.89070007E+02 -0.90281E+05
 0.89120003E+02 -0.58348E+05
 0.89170006E+02 -0.69630E+05
 0.89220001E+02 -0.13648E+06
 0.89270004E+02 -0.24578E+06
 0.89320007E+02 -0.34523E+06
 0.89370003E+02 -0.39854E+06
 0.89420006E+02 -0.42820E+06
 0.89470001E+02 -0.45495E+06
 0.89520004E+02 -0.47555E+06
 0.89570007E+02 -0.48775E+06
 0.89620003E+02 -0.48572E+06
 0.89670006E+02 -0.47806E+06
 0.89720001E+02 -0.49170E+06
 0.89770004E+02 -0.53429E+06
 0.89820007E+02 -0.59594E+06
 0.89870003E+02 -0.65370E+06
 0.89920006E+02 -0.70073E+06
 0.89970001E+02 -0.73925E+06
 0.90020004E+02 -0.74362E+06
 0.90070007E+02 -0.70560E+06
 0.90120003E+02 -0.64125E+06
 0.90170006E+02 -0.56093E+06
 0.90220001E+02 -0.49122E+06
 0.90270004E+02 -0.44290E+06
 0.90320007E+02 -0.39465E+06
 0.90370003E+02 -0.35747E+06
 0.90420006E+02 -0.30969E+06
 0.90470001E+02 -0.20620E+06
 0.90520004E+02 -0.71443E+05
 0.90570007E+02  0.62491E+05
 0.90620003E+02  0.18596E+06
 0.90670006E+02  0.30647E+06
 0.90720001E+02  0.42299E+06
 0.90770004E+02  0.51704E+06
 0.90820007E+02  0.58534E+06
 0.90870003E+02  0.65418E+06
 0.90920006E+02  0.75346E+06
 0.90970001E+02  0.87517E+06
 0.91020004E+02  0.10124E+07
 0.91070007E+02  0.11425E+07
 0.91120003E+02  0.12353E+07
 0.91170006E+02  0.13001E+07
 0.91220001E+02  0.13253E+07
 0.91270004E+02  0.12962E+07
 0.91320007E+02  0.12586E+07
 0.91370003E+02  0.12489E+07
 0.91420006E+02  0.12487E+07
 0.91470001E+02  0.12446E+07
 0.91520004E+02  0.12273E+07
 0.91570007E+02  0.11866E+07
 0.91620003E+02  0.11246E+07
 0.91670006E+02  0.10258E+07
 0.91720001E+02  0.90128E+06
 0.91770004E+02  0.77664E+06
 0.91820007E+02  0.64207E+06
 0.91870003E+02  0.49973E+06
 0.91920006E+02  0.35802E+06
 0.91970001E+02  0.22048E+06
 0.92020004E+02  0.10144E+06
 0.92070007E+02  0.88920E+04
 0.92120003E+02 -0.60922E+05
 0.92170006E+02 -0.11315E+06
 0.92220001E+02 -0.15194E+06
 0.92270004E+02 -0.19477E+06
 0.92320007E+02 -0.25474E+06
 0.92370003E+02 -0.31709E+06
 0.92420006E+02 -0.35351E+06
 0.92470001E+02 -0.35056E+06
 0.92520004E+02 -0.34266E+06
 0.92570007E+02 -0.36829E+06
 0.92620003E+02 -0.43164E+06
 0.92670006E+02 -0.54897E+06
 0.92720001E+02 -0.70442E+06
 0.92770004E+02 -0.82769E+06
 0.92820007E+02 -0.87882E+06
 0.92870003E+02 -0.88358E+06
 0.92920006E+02 -0.89242E+06
 0.92970001E+02 -0.92034E+06
 0.93020004E+02 -0.95164E+06
 0.93070007E+02 -0.97176E+06
 0.93120003E+02 -0.97768E+06
 0.93170006E+02 -0.98368E+06
 0.93220001E+02 -0.10038E+07
 0.93270004E+02 -0.10293E+07
 0.93320007E+02 -0.10340E+07
 0.93370003E+02 -0.10001E+07
 0.93420006E+02 -0.92955E+06
 0.93470001E+02 -0.82334E+06
 0.93520004E+02 -0.70344E+06
 0.93570007E+02 -0.60413E+06
 0.93620003E+02 -0.52864E+06
 0.93670006E+02 -0.48265E+06
 0.93720001E+02 -0.45285E+06
 0.93770004E+02 -0.41002E+06
 0.93820007E+02 -0.35732E+06
 0.93870003E+02 -0.30596E+06
 0.93920006E+02 -0.28024E+06
 0.93970001E+02 -0.29630E+06
 0.94020004E+02 -0.31989E+06
 0.94070007E+02 -0.31721E+06
 0.94120003E+02 -0.31820E+06
 0.94170006E+02 -0.35063E+06
 0.94220001E+02 -0.38605E+06
 0.94270004E+02 -0.40074E+06
 0.94320007E+02 -0.37994E+06
 0.94370003E+02 -0.32669E+06
 0.94420006E+02 -0.26334E+06
 0.94470001E+02 -0.19512E+06
 0.94520004E+02 -0.12626E+06
 0.94570007E+02 -0.43180E+05
 0.94620003E+02  0.75500E+05
 0.94670006E+02  0.20703E+06
 0.94720001E+02  0.31772E+06
 0.94770004E+02  0.39425E+06
 0.94820007E+02  0.43424E+06
 0.94870003E+02  0.46734E+06
 0.94920006E+02  0.52130E+06
 0.94970001E+02  0.59785E+06
 0.95020004E+02  0.69543E+06
 0.95070007E+02  0.79403E+06
 0.95120003E+02  0.87702E+06
 0.95170006E+02  0.93278E+06
 0.95220001E+02  0.95626E+06
 0.95270004E+02  0.96878E+06
 0.95320007E+02  0.98802E+06
 0.95370003E+02  0.10194E+07
 0.95420006E+02  0.10543E+07
 0.95470001E+02  0.10696E+07
 0.95520004E+02  0.10511E+07
 0.95570007E+02  0.10123E+07
 0.95620003E+02  0.96228E+06
 0.95670006E+02  0.89274E+06
 0.95720001E+02  0.81761E+06
 0.95770004E+02  0.74599E+06
 0.95820007E+02  0.66203E+06
 0.95870003E+02  0.55439E+06
 0.95920006E+02  0.43380E+06
 0.95970001E+02  0.32760E+06
 0.96020004E+02  0.25972E+06
 0.96070007E+02  0.23525E+06
 0.96120003E+02  0.23159E+06
 0.96170006E+02  0.21870E+06
 0.96220001E+02  0.18044E+06
 0.96270004E+02  0.13566E+06
 0.96320007E+02  0.10243E+06
 0.96370003E+02  0.63433E+05
 0.96420006E+02  0.17218E+05
 0.96470001E+02 -0.28206E+05
 0.96520004E+02 -0.78722E+05
 0.96570007E+02 -0.13639E+06
 0.96620003E+02 -0.18384E+06
 0.96670006E+02 -0.19610E+06
 0.96720001E+02 -0.16483E+06
 0.96770004E+02 -0.10099E+06
 0.96820007E+02 -0.34379E+05
 0.96870003E+02  0.18756E+05
 0.96920006E+02  0.56734E+05
 0.96970001E+02  0.77676E+05
 0.97020004E+02  0.96414E+05
 0.97070007E+02  0.11561E+06
 0.97120003E+02  0.13758E+06
 0.97170006E+02  0.18330E+06
 0.97220001E+02  0.24017E+06
 0.97270004E+02  0.28431E+06
 0.97320007E+02  0.31793E+06
 0.97370003E+02  0.33941E+06
 0.97420006E+02  0.34533E+06
 0.97470001E+02  0.34466E+06
 0.97520004E+02  0.33806E+06
 0.97570007E+02  0.32410E+06
 0.97620003E+02  0.30496E+06
 0.97670006E+02  0.26855E+06
 0.97720001E+02  0.20084E+06
 0.97770004E+02  0.10648E+06
 0.97820007E+02  0.55980E+04
 0.97870003E+02 -0.93641E+05
 0.97920006E+02 -0.18034E+06
 0.97970001E+02 -0.23770E+06
 0.98020004E+02 -0.26659E+06
 0.98070007E+02 -0.27391E+06
 0.98120003E+02 -0.27915E+06
 0.98170006E+02 -0.29422E+06
 0.98220001E+02 -0.31151E+06
 0.98270004E+02 -0.32604E+06
 0.98320007E+02 -0.32642E+06
 0.98370003E+02 -0.30562E+06
 0.98420006E+02 -0.28853E+06
 0.98470001E+02 -0.30347E+06
 0.98520004E+02 -0.34288E+06
 0.98570007E+02 -0.39599E+06
 0.98620003E+02 -0.46304E+06
 0.98670006E+02 -0.52582E+06
 0.98720001E+02 -0.57519E+06
 0.98770004E+02 -0.62426E+06
 0.98820007E+02 -0.68179E+06
 0.98870003E+02 -0.74582E+06
 0.98920006E+02 -0.80872E+06
 0.98970001E+02 -0.86141E+06
 0.99020004E+02 -0.89777E+06
 0.99070007E+02 -0.93273E+06
 0.99120003E+02 -0.97087E+06
 0.99170006E+02 -0.98895E+06
 0.99220001E+02 -0.97379E+06
 0.99270004E+02 -0.92800E+06
 0.99320007E+02 -0.87270E+06
 0.99370003E+02 -0.82137E+06
 0.99420006E+02 -0.76709E+06
 0.99470001E+02 -0.70149E+06
 0.99520004E+02 -0.61108E+06
 0.99570007E+02 -0.50237E+06
 0.99620003E+02 -0.40077E+06
 0.99670006E+02 -0.31014E+06
 0.99720001E+02 -0.22716E+06
 0.99770004E+02 -0.15644E+06
 0.99820007E+02 -0.90577E+05
 0.99870003E+02 -0.26685E+05
 0.99920006E+02  0.37642E+05
 0.99970001E+02  0.11575E+06
 0.10002000E+03  0.20880E+06
 0.10007001E+03  0.30726E+06
 0.10012000E+03  0.40176E+06
 0.10017001E+03  0.48847E+06
 0.10022000E+03  0.55360E+06
 0.10027000E+03  0.58280E+06
 0.10032001E+03  0.58377E+06
 0.10037000E+03  0.56953E+06
 0.10042001E+03  0.54254E+06
 0.10047000E+03  0.49520E+06
 0.10052000E+03  0.42812E+06
 0.10057001E+03  0.35312E+06
 0.10062000E+03  0.28442E+06
 0.10067001E+03  0.23447E+06
 0.10072000E+03  0.19633E+06
 0.10077000E+03  0.15663E+06
 0.10082001E+03  0.13057E+06
 0.10087000E+03  0.12803E+06
 0.10092001E+03  0.13281E+06
 0.10097000E+03  0.13760E+06
 0.10102000E+03  0.13421E+06
 0.10107001E+03  0.11550E+06
 0.10112000E+03  0.87883E+05
 0.10117001E+03  0.54121E+05
 0.10122000E+03  0.30116E+05
 0.10127000E+03  0.36060E+05
 0.10132001E+03  0.61040E+05
 0.10137000E+03  0.93303E+05
 0.10142001E+03  0.12436E+06
 0.10147000E+03  0.15071E+06
 0.10152000E+03  0.19373E+06
 0.10157001E+03  0.26284E+06
 0.10162000E+03  0.35305E+06
 0.10167001E+03  0.45593E+06
 0.10172000E+03  0.56169E+06
 0.10177000E+03  0.66891E+06
 0.10182001E+03  0.76666E+06
 0.10187000E+03  0.82667E+06
 0.10192001E+03  0.84013E+06
 0.10197000E+03  0.82353E+06
 0.10202000E+03  0.78483E+06
 0.10207001E+03  0.73397E+06
 0.10212000E+03  0.68156E+06
 0.10217001E+03  0.62513E+06
 0.10222000E+03  0.56092E+06
 0.10227000E+03  0.48326E+06
 0.10232001E+03  0.38718E+06
 0.10237000E+03  0.28775E+06
 0.10242001E+03  0.21502E+06
 0.10247000E+03  0.18406E+06
 0.10252000E+03  0.17438E+06
 0.10257001E+03  0.15505E+06
 0.10262000E+03  0.11616E+06
 0.10267001E+03  0.62119E+05
 0.10272000E+03  0.14975E+05
 0.10277000E+03 -0.17940E+05
 0.10282001E+03 -0.48884E+05
 0.10287000E+03 -0.72639E+05
 0.10292001E+03 -0.89408E+05
 0.10297000E+03 -0.10135E+06
 0.10302000E+03 -0.10523E+06
 0.10307001E+03 -0.10727E+06
 0.10312000E+03 -0.11954E+06
 0.10317001E+03 -0.14814E+06
 0.10322000E+03 -0.18362E+06
 0.10327000E+03 -0.21704E+06
 0.10332001E+03 -0.24449E+06
 0.10337000E+03 -0.26773E+06
 0.10342001E+03 -0.29960E+06
 0.10347000E+03 -0.35536E+06
 0.10352000E+03 -0.43614E+06
 0.10357001E+03 -0.51816E+06
 0.10362000E+03 -0.57381E+06
 0.10367001E+03 -0.59243E+06
 0.10372000E+03 -0.57573E+06
 0.10377000E+03 -0.53116E+06
 0.10382001E+03 -0.46704E+06
 0.10387000E+03 -0.38654E+06
 0.10392001E+03 -0.29581E+06
 0.10397000E+03 -0.20761E+06
 0.10402000E+03 -0.12501E+06
 0.10407001E+03 -0.44353E+05
 0.10412000E+03  0.34538E+05
 0.10417001E+03  0.10249E+06
 0.10422000E+03  0.13481E+06
 0.10427000E+03  0.11617E+06
 0.10432001E+03  0.63147E+05
 0.10437000E+03  0.10819E+05
 0.10442001E+03 -0.22815E+05
 0.10447000E+03 -0.44752E+05
 0.10452000E+03 -0.67002E+05
 0.10457001E+03 -0.10272E+06
 0.10462000E+03 -0.15392E+06
 0.10467001E+03 -0.21028E+06
 0.10472000E+03 -0.26478E+06
 0.10477000E+03 -0.31213E+06
 0.10482001E+03 -0.34863E+06
 0.10487000E+03 -0.37140E+06
 0.10492001E+03 -0.38356E+06
 0.10497000E+03 -0.40447E+06
 0.10502000E+03 -0.45043E+06
 0.10507001E+03 -0.52384E+06
 0.10512000E+03 -0.61353E+06
 0.10517001E+03 -0.69777E+06
 0.10522000E+03 -0.76059E+06
 0.10527000E+03 -0.79167E+06
 0.10532001E+03 -0.79458E+06
 0.10537000E+03 -0.77964E+06
 0.10542001E+03 -0.74805E+06
 0.10547000E+03 -0.70605E+06
 0.10552000E+03 -0.66771E+06
 0.10557001E+03 -0.64128E+06
 0.10562000E+03 -0.61457E+06
 0.10567001E+03 -0.57091E+06
 0.10572000E+03 -0.51464E+06
 0.10577000E+03 -0.46480E+06
 0.10582001E+03 -0.43554E+06
 0.10587000E+03 -0.41601E+06
 0.10592001E+03 -0.38822E+06
 0.10597000E+03 -0.34848E+06
 0.10602000E+03 -0.29526E+06
 0.10607001E+03 -0.23192E+06
 0.10612000E+03 -0.16374E+06
 0.10617001E+03 -0.95918E+05
 0.10622000E+03 -0.32110E+05
 0.10627000E+03  0.40277E+05
 0.10632001E+03  0.12588E+06
 0.10637000E+03  0.21213E+06
 0.10642001E+03  0.30018E+06
 0.10647000E+03  0.39511E+06
 0.10652000E+03  0.48940E+06
 0.10657001E+03  0.57231E+06
 0.10662000E+03  0.63238E+06
 0.10667001E+03  0.66486E+06
 0.10672000E+03  0.67366E+06
 0.10677000E+03  0.65855E+06
 0.10682001E+03  0.62916E+06
 0.10687000E+03  0.60467E+06
 0.10692001E+03  0.58522E+06
 0.10697000E+03  0.56463E+06
 0.10702000E+03  0.53314E+06
 0.10707001E+03  0.48055E+06
 0.10712000E+03  0.41337E+06
 0.10717001E+03  0.34779E+06
 0.10722000E+03  0.29576E+06
 0.10727000E+03  0.24845E+06
 0.10732001E+03  0.19283E+06
 0.10737000E+03  0.13836E+06
 0.10742001E+03  0.10326E+06
 0.10747000E+03  0.88655E+05
 0.10752000E+03  0.85535E+05
 0.10757001E+03  0.86904E+05
 0.10762000E+03  0.82157E+05
 0.10767001E+03  0.67725E+05
 0.10772000E+03  0.49984E+05
 0.10777000E+03  0.37773E+05
 0.10782001E+03  0.43002E+05
 0.10787000E+03  0.67957E+05
 0.10792001E+03  0.98126E+05
 0.10797000E+03  0.11627E+06
 0.10802000E+03  0.11969E+06
 0.10807001E+03  0.11835E+06
 0.10812000E+03  0.11223E+06
 0.10817001E+03  0.92910E+05
 0.10822000E+03  0.70590E+05
 0.10827000E+03  0.67302E+05
 0.10832001E+03  0.86970E+05
 0.10837000E+03  0.11455E+06
 0.10842001E+03  0.13348E+06
 0.10847000E+03  0.13760E+06
 0.10852000E+03  0.13113E+06
 0.10857001E+03  0.11985E+06
 0.10862000E+03  0.10489E+06
 0.10867001E+03  0.88751E+05
 0.10872000E+03  0.73936E+05
 0.10877000E+03  0.44319E+05
 0.10882001E+03 -0.12663E+05
 0.10887000E+03 -0.74504E+05
 0.10892001E+03 -0.11165E+06
 0.10897000E+03 -0.11501E+06
 0.10902000E+03 -0.96411E+05
 0.10907001E+03 -0.73866E+05
 0.10912000E+03 -0.55004E+05
 0.10917001E+03 -0.43354E+05
 0.10922000E+03 -0.41086E+05
 0.10927000E+03 -0.46011E+05
 0.10932001E+03 -0.49765E+05
 0.10937000E+03 -0.44471E+05
 0.10942001E+03 -0.25942E+05
 0.10947000E+03  0.72720E+04
 0.10952000E+03  0.50618E+05
 0.10957001E+03  0.99306E+05
 0.10962000E+03  0.14329E+06
 0.10967001E+03  0.17228E+06
 0.10972000E+03  0.18549E+06
 0.10977000E+03  0.18503E+06
 0.10982001E+03  0.18116E+06
 0.10987000E+03  0.18967E+06
 0.10992001E+03  0.21596E+06
 0.10997000E+03  0.25371E+06
 0.11002000E+03  0.28386E+06
 0.11007001E+03  0.28783E+06
 0.11012000E+03  0.27180E+06
 0.11017001E+03  0.24901E+06
 0.11022000E+03  0.22224E+06
 0.11027000E+03  0.19649E+06
 0.11032001E+03  0.16935E+06
 0.11037000E+03  0.13854E+06
 0.11042001E+03  0.11624E+06
 0.11047000E+03  0.10218E+06
 0.11052000E+03  0.92774E+05
 0.11057001E+03  0.88457E+05
 0.11062000E+03  0.84068E+05
 0.11067001E+03  0.83557E+05
 0.11072000E+03  0.89786E+05
 0.11077000E+03  0.10283E+06
 0.11082001E+03  0.12208E+06
 0.11087000E+03  0.13899E+06
 0.11092001E+03  0.14952E+06
 0.11097000E+03  0.15341E+06
 0.11102000E+03  0.15667E+06
 0.11107001E+03  0.17119E+06
 0.11112000E+03  0.19436E+06
 0.11117001E+03  0.21158E+06
 0.11122000E+03  0.21083E+06
 0.11127000E+03  0.19138E+06
 0.11132001E+03  0.15882E+06
 0.11137000E+03  0.11375E+06
 0.11142001E+03  0.50534E+05
 0.11147000E+03 -0.23809E+05
 0.11152000E+03 -0.85251E+05
 0.11157001E+03 -0.13304E+06
 0.11162000E+03 -0.17871E+06
 0.11167001E+03 -0.21965E+06
 0.11172000E+03 -0.25382E+06
 0.11177000E+03 -0.27971E+06
 0.11182001E+03 -0.29676E+06
 0.11187000E+03 -0.30688E+06
 0.11192001E+03 -0.31351E+06
 0.11197000E+03 -0.31775E+06
 0.11202000E+03 -0.31476E+06
 0.11207001E+03 -0.29273E+06
 0.11212000E+03 -0.24567E+06
 0.11217001E+03 -0.18587E+06
 0.11222000E+03 -0.11872E+06
 0.11227000E+03 -0.41449E+05
 0.11232001E+03  0.35264E+05
 0.11237000E+03  0.98728E+05
 0.11242001E+03  0.14628E+06
 0.11247000E+03  0.17860E+06
 0.11252000E+03  0.20252E+06
 0.11257001E+03  0.22820E+06
 0.11262000E+03  0.25163E+06
 0.11267001E+03  0.26126E+06
 0.11272000E+03  0.25495E+06
 0.11277000E+03  0.24228E+06
 0.11282001E+03  0.23475E+06
 0.11287000E+03  0.23025E+06
 0.11292001E+03  0.21858E+06
 0.11297000E+03  0.19936E+06
 0.11302000E+03  0.17378E+06
 0.11307001E+03  0.14056E+06
 0.11312000E+03  0.10645E+06
 0.11317001E+03  0.79542E+05
 0.11322000E+03  0.59808E+05
 0.11327000E+03  0.46470E+05
 0.11332001E+03  0.41380E+05
 0.11337000E+03  0.43829E+05
 0.11342001E+03  0.53378E+05
 0.11347000E+03  0.64803E+05
 0.11352000E+03  0.65754E+05
 0.11357001E+03  0.48995E+05
 0.11362000E+03  0.24788E+05
 0.11367001E+03  0.64200E+04
 0.11372000E+03 -0.36080E+04
 0.11377000E+03 -0.10062E+05
 0.11382001E+03 -0.26249E+05
 0.11387000E+03 -0.57435E+05
 0.11392001E+03 -0.10196E+06
 0.11397000E+03 -0.15584E+06
 0.11402000E+03 -0.21042E+06
 0.11407001E+03 -0.26515E+06
 0.11412000E+03 -0.31664E+06
 0.11417001E+03 -0.35206E+06
 0.11422000E+03 -0.36930E+06
 0.11427000E+03 -0.38609E+06
 0.11432001E+03 -0.41470E+06
 0.11437000E+03 -0.44954E+06
 0.11442001E+03 -0.48457E+06
 0.11447000E+03 -0.51868E+06
 0.11452000E+03 -0.54846E+06
 0.11457001E+03 -0.57258E+06
 0.11462000E+03 -0.59555E+06
 0.11467001E+03 -0.61536E+06
 0.11472000E+03 -0.63103E+06
 0.11477000E+03 -0.64175E+06
 0.11482001E+03 -0.63583E+06
 0.11487000E+03 -0.60558E+06
 0.11492001E+03 -0.55333E+06
 0.11497000E+03 -0.47945E+06
 0.11502000E+03 -0.38015E+06
 0.11507001E+03 -0.25692E+06
 0.11512000E+03 -0.11683E+06
 0.11517001E+03  0.26214E+05
 0.11522000E+03  0.15657E+06
 0.11527000E+03  0.26554E+06
 0.11532001E+03  0.35348E+06
 0.11537000E+03  0.43089E+06
 0.11542001E+03  0.49702E+06
 0.11547000E+03  0.54623E+06
 0.11552000E+03  0.58526E+06
 0.11557001E+03  0.61898E+06
 0.11562000E+03  0.65167E+06
 0.11567001E+03  0.68067E+06
 0.11572000E+03  0.68960E+06
 0.11577000E+03  0.66461E+06
 0.11582001E+03  0.60767E+06
 0.11587000E+03  0.53339E+06
 0.11592001E+03  0.45836E+06
 0.11597000E+03  0.39259E+06
 0.11602000E+03  0.33514E+06
 0.11607001E+03  0.28340E+06
 0.11612000E+03  0.23659E+06
 0.11617001E+03  0.19818E+06
 0.11622000E+03  0.16603E+06
 0.11627000E+03  0.13088E+06
 0.11632001E+03  0.92414E+05
 0.11637000E+03  0.50293E+05
 0.11642001E+03  0.17900E+03
 0.11647000E+03 -0.57348E+05
 0.11652000E+03 -0.11238E+06
 0.11657001E+03 -0.15583E+06
 0.11662000E+03 -0.18327E+06
 0.11667001E+03 -0.19825E+06
 0.11672000E+03 -0.21276E+06
 0.11677000E+03 -0.22650E+06
 0.11682001E+03 -0.24043E+06
 0.11687000E+03 -0.25893E+06
 0.11692001E+03 -0.27188E+06
 0.11697000E+03 -0.27669E+06
 0.11702000E+03 -0.28142E+06
 0.11707001E+03 -0.28307E+06
 0.11712000E+03 -0.27481E+06
 0.11717001E+03 -0.25615E+06
 0.11722000E+03 -0.22461E+06
 0.11727000E+03 -0.18145E+06
 0.11732001E+03 -0.13745E+06
 0.11737000E+03 -0.10132E+06
 0.11742001E+03 -0.71926E+05
 0.11747000E+03 -0.41683E+05
 0.11752000E+03 -0.45900E+04
 0.11757001E+03  0.32888E+05
 0.11762000E+03  0.51493E+05
 0.11767001E+03  0.48988E+05
 0.11772000E+03  0.39671E+05
 0.11777000E+03  0.31605E+05
 0.11782001E+03  0.28463E+05
 0.11787000E+03  0.21566E+05
 0.11792001E+03 -0.14920E+04
 0.11797000E+03 -0.38652E+05
 0.11802000E+03 -0.85232E+05
 0.11807001E+03 -0.13630E+06
 0.11812000E+03 -0.18085E+06
 0.11817001E+03 -0.21805E+06
 0.11822000E+03 -0.25355E+06
 0.11827000E+03 -0.28445E+06
 0.11832001E+03 -0.30842E+06
 0.11837000E+03 -0.32470E+06
 0.11842001E+03 -0.33026E+06
 0.11847000E+03 -0.32355E+06
 0.11852000E+03 -0.30518E+06
 0.11857001E+03 -0.27790E+06
 0.11862000E+03 -0.24424E+06
 0.11867001E+03 -0.20728E+06
 0.11872000E+03 -0.17569E+06
 0.11877000E+03 -0.15988E+06
 0.11882001E+03 -0.16486E+06
 0.11887000E+03 -0.18578E+06
 0.11892001E+03 -0.20844E+06
 0.11897000E+03 -0.22121E+06
 0.11902000E+03 -0.22331E+06
 0.11907001E+03 -0.21904E+06
 0.11912000E+03 -0.21157E+06
 0.11917001E+03 -0.20432E+06
 0.11922000E+03 -0.20053E+06
 0.11927000E+03 -0.19641E+06
 0.11932001E+03 -0.18619E+06
 0.11937000E+03 -0.17445E+06
 0.11942001E+03 -0.16807E+06
 0.11947000E+03 -0.16602E+06
 0.11952000E+03 -0.16501E+06
 0.11957001E+03 -0.16176E+06
 0.11962000E+03 -0.15401E+06
 0.11967001E+03 -0.14148E+06
 0.11972000E+03 -0.12366E+06
 0.11977000E+03 -0.10237E+06
 0.11982001E+03 -0.81564E+05
 0.11987000E+03 -0.65387E+05
 0.11992001E+03 -0.53410E+05
 0.11997000E+03 -0.36517E+05
 0.12002000E+03 -0.95610E+04
 0.12007001E+03  0.27127E+05
 0.12012000E+03  0.74776E+05
 0.12017001E+03  0.12552E+06
 0.12022000E+03  0.16567E+06
 0.12027000E+03  0.19550E+06
 0.12032001E+03  0.22214E+06
 0.12037000E+03  0.24168E+06
 0.12042001E+03  0.25413E+06
 0.12047000E+03  0.26475E+06
 0.12052000E+03  0.27489E+06
 0.12057001E+03  0.28944E+06
 0.12062000E+03  0.30357E+06
 0.12067001E+03  0.30504E+06
 0.12072000E+03  0.29389E+06
 0.12077000E+03  0.27591E+06
 0.12082001E+03  0.25710E+06
 0.12087000E+03  0.25018E+06
 0.12092001E+03  0.26686E+06
 0.12097000E+03  0.30753E+06
 0.12102000E+03  0.36726E+06
 0.12107001E+03  0.43520E+06
 0.12112000E+03  0.49857E+06
 0.12117001E+03  0.55969E+06
 0.12122000E+03  0.62377E+06
 0.12127000E+03  0.68769E+06
 0.12132001E+03  0.74492E+06
 0.12137000E+03  0.78789E+06
 0.12142001E+03  0.82071E+06
 0.12147000E+03  0.85056E+06
 0.12152000E+03  0.87379E+06
 0.12157001E+03  0.88591E+06
 0.12162000E+03  0.88871E+06
 0.12167001E+03  0.88561E+06
 0.12172000E+03  0.87844E+06
 0.12177000E+03  0.86505E+06
 0.12182001E+03  0.83656E+06
 0.12187000E+03  0.78848E+06
 0.12192001E+03  0.72948E+06
 0.12197000E+03  0.66714E+06
 0.12202000E+03  0.59659E+06
 0.12207001E+03  0.51112E+06
 0.12212000E+03  0.40928E+06
 0.12217001E+03  0.30097E+06
 0.12222000E+03  0.20408E+06
 0.12227000E+03  0.11955E+06
 0.12232001E+03  0.37272E+05
 0.12237000E+03 -0.49413E+05
 0.12242001E+03 -0.14393E+06
 0.12247000E+03 -0.23881E+06
 0.12252000E+03 -0.32799E+06
 0.12257001E+03 -0.41400E+06
 0.12262000E+03 -0.49386E+06
 0.12267001E+03 -0.55574E+06
 0.12272000E+03 -0.59532E+06
 0.12277000E+03 -0.62007E+06
 0.12282001E+03 -0.63443E+06
 0.12287000E+03 -0.64453E+06
 0.12292001E+03 -0.65622E+06
 0.12297000E+03 -0.67159E+06
 0.12302000E+03 -0.69330E+06
 0.12307001E+03 -0.71852E+06
 0.12312000E+03 -0.74462E+06
 0.12317001E+03 -0.77012E+06
 0.12322000E+03 -0.79156E+06
 0.12327000E+03 -0.80788E+06
 0.12332001E+03 -0.82164E+06
 0.12337000E+03 -0.83350E+06
 0.12342001E+03 -0.83867E+06
 0.12347000E+03 -0.83648E+06
 0.12352000E+03 -0.83122E+06
 0.12357001E+03 -0.82459E+06
 0.12362000E+03 -0.81385E+06
 0.12367001E+03 -0.79504E+06
 0.12372000E+03 -0.76823E+06
 0.12377000E+03 -0.73466E+06
 0.12382001E+03 -0.69396E+06
 0.12387000E+03 -0.64458E+06
 0.12392001E+03 -0.58744E+06
 0.12397000E+03 -0.52870E+06
 0.12402000E+03 -0.47240E+06
 0.12407001E+03 -0.41374E+06
 0.12412000E+03 -0.34810E+06
 0.12417001E+03 -0.27833E+06
 0.12422001E+03 -0.20791E+06
 0.12427001E+03 -0.13748E+06
 0.12432000E+03 -0.66311E+05
 0.12437000E+03  0.11970E+04
 0.12442001E+03  0.58230E+05
 0.12447001E+03  0.10145E+06
 0.12452001E+03  0.13306E+06
 0.12457000E+03  0.16386E+06
 0.12462000E+03  0.20040E+06
 0.12467001E+03  0.23903E+06
 0.12472001E+03  0.27055E+06
 0.12477001E+03  0.28935E+06
 0.12482000E+03  0.30284E+06
 0.12487000E+03  0.31646E+06
 0.12492001E+03  0.32805E+06
 0.12497001E+03  0.33880E+06
 0.12502001E+03  0.34852E+06
 0.12507000E+03  0.35430E+06
 0.12512000E+03  0.35657E+06
 0.12517001E+03  0.35639E+06
 0.12522001E+03  0.35264E+06
 0.12527001E+03  0.34434E+06
 0.12532000E+03  0.33009E+06
 0.12537000E+03  0.30915E+06
 0.12542001E+03  0.28399E+06
 0.12547001E+03  0.25772E+06
 0.12552001E+03  0.23519E+06
 0.12557000E+03  0.21842E+06
 0.12562000E+03  0.20231E+06
 0.12567001E+03  0.17938E+06
 0.12572001E+03  0.14514E+06
 0.12577001E+03  0.10463E+06
 0.12582000E+03  0.64667E+05
 0.12587000E+03  0.26425E+05
 0.12592001E+03 -0.81000E+04
 0.12597001E+03 -0.34291E+05
 0.12602001E+03 -0.46148E+05
 0.12607000E+03 -0.43950E+05
 0.12612000E+03 -0.37516E+05
 0.12617001E+03 -0.32700E+05
 0.12622001E+03 -0.26211E+05
 0.12627001E+03 -0.11225E+05
 0.12632000E+03  0.13322E+05
 0.12637000E+03  0.38147E+05
 0.12642001E+03  0.53053E+05
 0.12647001E+03  0.55762E+05
 0.12652001E+03  0.53985E+05
 0.12657000E+03  0.55748E+05
 0.12662000E+03  0.61190E+05
 0.12667001E+03  0.68083E+05
 0.12672001E+03  0.77733E+05
 0.12677001E+03  0.92273E+05
 0.12682000E+03  0.10685E+06
 0.12687000E+03  0.11587E+06
 0.12692001E+03  0.11981E+06
 0.12697001E+03  0.11934E+06
 0.12702001E+03  0.11462E+06
 0.12707000E+03  0.11119E+06
 0.12712000E+03  0.11539E+06
 0.12717001E+03  0.12818E+06
 0.12722001E+03  0.14924E+06
 0.12727001E+03  0.17681E+06
 0.12732000E+03  0.21055E+06
 0.12737000E+03  0.25001E+06
 0.12742001E+03  0.29564E+06
 0.12747001E+03  0.34954E+06
 0.12752001E+03  0.40558E+06
 0.12757000E+03  0.45380E+06
 0.12762000E+03  0.48661E+06
 0.12767001E+03  0.49941E+06
 0.12772001E+03  0.49345E+06
 0.12777001E+03  0.47483E+06
 0.12782000E+03  0.44477E+06
 0.12787000E+03  0.40002E+06
 0.12792001E+03  0.34354E+06
 0.12797001E+03  0.28360E+06
 0.12802000E+03  0.22523E+06
 0.12806999E+03  0.16737E+06
 0.12812000E+03  0.10994E+06
 0.12817000E+03  0.54684E+05
 0.12822000E+03  0.24800E+03
 0.12827000E+03 -0.54495E+05
 0.12831999E+03 -0.10724E+06
 0.12837000E+03 -0.15460E+06
 0.12842000E+03 -0.19184E+06
 0.12847000E+03 -0.21572E+06
 0.12852000E+03 -0.22630E+06
 0.12856999E+03 -0.22418E+06
 0.12862000E+03 -0.21127E+06
 0.12867000E+03 -0.19062E+06
 0.12872000E+03 -0.16803E+06
 0.12877000E+03 -0.15076E+06
 0.12881999E+03 -0.14131E+06
 0.12887000E+03 -0.13745E+06
 0.12892000E+03 -0.13704E+06
 0.12897000E+03 -0.14138E+06
 0.12902000E+03 -0.15337E+06
 0.12906999E+03 -0.17127E+06
 0.12912000E+03 -0.19191E+06
 0.12917000E+03 -0.21618E+06
 0.12922000E+03 -0.24302E+06
 0.12927000E+03 -0.26651E+06
 0.12931999E+03 -0.27975E+06
 0.12937000E+03 -0.28350E+06
 0.12942000E+03 -0.28633E+06
 0.12947000E+03 -0.29194E+06
 0.12952000E+03 -0.30004E+06
 0.12956999E+03 -0.30980E+06
 0.12962000E+03 -0.31453E+06
 0.12967000E+03 -0.30862E+06
 0.12972000E+03 -0.29447E+06
 0.12977000E+03 -0.27730E+06
 0.12981999E+03 -0.25725E+06
 0.12987000E+03 -0.22930E+06
 0.12992000E+03 -0.19399E+06
 0.12997000E+03 -0.15925E+06
 0.13002000E+03 -0.12748E+06
 0.13006999E+03 -0.93261E+05
 0.13012000E+03 -0.54908E+05
 0.13017000E+03 -0.17127E+05
 0.13022000E+03  0.15871E+05
 0.13027000E+03  0.44925E+05
 0.13031999E+03  0.71799E+05
 0.13037000E+03  0.96497E+05
 0.13042000E+03  0.11801E+06
 0.13047000E+03  0.13482E+06
 0.13052000E+03  0.14751E+06
 0.13056999E+03  0.15804E+06
 0.13062000E+03  0.16786E+06
 0.13067000E+03  0.17342E+06
 0.13072000E+03  0.17264E+06
 0.13077000E+03  0.16782E+06
 0.13081999E+03  0.15867E+06
 0.13087000E+03  0.14464E+06
 0.13092000E+03  0.12699E+06
 0.13097000E+03  0.10785E+06
 0.13102000E+03  0.85647E+05
 0.13106999E+03  0.60118E+05
 0.13112000E+03  0.35795E+05
 0.13117000E+03  0.15741E+05
 0.13122000E+03 -0.73000E+02
 0.13127000E+03 -0.16316E+05
 0.13131999E+03 -0.35023E+05
 0.13137000E+03 -0.53371E+05
 0.13142000E+03 -0.67800E+05
 0.13147000E+03 -0.71541E+05
 0.13152000E+03 -0.61692E+05
 0.13156999E+03 -0.44607E+05
 0.13162000E+03 -0.24801E+05
 0.13167000E+03 -0.23080E+04
 0.13172000E+03  0.15560E+05
 0.13177000E+03  0.25517E+05
 0.13181999E+03  0.36999E+05
 0.13187000E+03  0.52284E+05
 0.13192000E+03  0.68757E+05
 0.13197000E+03  0.84789E+05
 0.13202000E+03  0.98361E+05
 0.13206999E+03  0.11108E+06
 0.13212000E+03  0.11982E+06
 0.13217000E+03  0.12078E+06
 0.13222000E+03  0.11244E+06
 0.13227000E+03  0.92255E+05
 0.13231999E+03  0.65005E+05
 0.13237000E+03  0.39105E+05
 0.13242000E+03  0.14445E+05
 0.13247000E+03 -0.10164E+05
 0.13252000E+03 -0.26186E+05
 0.13256999E+03 -0.26998E+05
 0.13262000E+03 -0.15478E+05
 0.13267000E+03  0.26000E+02
 0.13272000E+03  0.11229E+05
 0.13277000E+03  0.18811E+05
 0.13281999E+03  0.28627E+05
 0.13287000E+03  0.41187E+05
 0.13292000E+03  0.51938E+05
 0.13297000E+03  0.55281E+05
 0.13302000E+03  0.50417E+05
 0.13306999E+03  0.42938E+05
 0.13312000E+03  0.36012E+05
 0.13317000E+03  0.26809E+05
 0.13322000E+03  0.13628E+05
 0.13327000E+03 -0.53210E+04
 0.13331999E+03 -0.32139E+05
 0.13337000E+03 -0.60358E+05
 0.13342000E+03 -0.83628E+05
 0.13347000E+03 -0.99919E+05
 0.13352000E+03 -0.10503E+06
 0.13356999E+03 -0.10012E+06
 0.13362000E+03 -0.90439E+05
 0.13367000E+03 -0.76147E+05
 0.13372000E+03 -0.56039E+05
 0.13377000E+03 -0.29441E+05
 0.13381999E+03  0.93300E+03
 0.13387000E+03  0.29334E+05
 0.13392000E+03  0.50741E+05
 0.13397000E+03  0.62075E+05
 0.13402000E+03  0.68463E+05
 0.13406999E+03  0.75836E+05
 0.13412000E+03  0.85263E+05
 0.13417000E+03  0.93055E+05
 0.13422000E+03  0.92137E+05
 0.13427000E+03  0.77498E+05
 0.13431999E+03  0.47152E+05
 0.13437000E+03  0.48430E+04
 0.13442000E+03 -0.44359E+05
 0.13447000E+03 -0.95961E+05
 0.13452000E+03 -0.14535E+06
 0.13456999E+03 -0.19000E+06
 0.13462000E+03 -0.22760E+06
 0.13467000E+03 -0.25734E+06
 0.13472000E+03 -0.27985E+06
 0.13477000E+03 -0.29725E+06
 0.13481999E+03 -0.31328E+06
 0.13487000E+03 -0.32952E+06
 0.13492000E+03 -0.34842E+06
 0.13497000E+03 -0.37193E+06
 0.13502000E+03 -0.39448E+06
 0.13506999E+03 -0.41071E+06
 0.13512000E+03 -0.41871E+06
 0.13517000E+03 -0.41696E+06
 0.13522000E+03 -0.40688E+06
 0.13527000E+03 -0.38891E+06
 0.13531999E+03 -0.36207E+06
 0.13537000E+03 -0.32650E+06
 0.13542000E+03 -0.28552E+06
 0.13547000E+03 -0.24203E+06
 0.13552000E+03 -0.19467E+06
 0.13556999E+03 -0.14464E+06
 0.13562000E+03 -0.91564E+05
 0.13567000E+03 -0.32665E+05
 0.13572000E+03  0.27382E+05
 0.13577000E+03  0.82584E+05
 0.13581999E+03  0.13255E+06
 0.13587000E+03  0.17812E+06
 0.13592000E+03  0.22163E+06
 0.13597000E+03  0.26745E+06
 0.13602000E+03  0.31561E+06
 0.13606999E+03  0.35988E+06
 0.13612000E+03  0.39298E+06
 0.13617000E+03  0.41081E+06
 0.13622000E+03  0.41343E+06
 0.13627000E+03  0.40346E+06
 0.13631999E+03  0.38264E+06
 0.13637000E+03  0.35363E+06
 0.13642000E+03  0.32235E+06
 0.13647000E+03  0.29247E+06
 0.13652000E+03  0.26350E+06
 0.13656999E+03  0.23560E+06
 0.13662000E+03  0.20902E+06
 0.13667000E+03  0.18441E+06
 0.13672000E+03  0.16310E+06
 0.13677000E+03  0.14120E+06
 0.13681999E+03  0.11477E+06
 0.13687000E+03  0.84357E+05
 0.13692000E+03  0.51419E+05
 0.13697000E+03  0.17304E+05
 0.13702000E+03 -0.15889E+05
 0.13706999E+03 -0.44234E+05
 0.13712000E+03 -0.67136E+05
 0.13717000E+03 -0.86618E+05
 0.13722000E+03 -0.10426E+06
 0.13727000E+03 -0.12292E+06
 0.13731999E+03 -0.14466E+06
 0.13737000E+03 -0.16806E+06
 0.13742000E+03 -0.19099E+06
 0.13747000E+03 -0.21443E+06
 0.13752000E+03 -0.23935E+06
 0.13756999E+03 -0.26643E+06
 0.13762000E+03 -0.29264E+06
 0.13767000E+03 -0.30949E+06
 0.13772000E+03 -0.31352E+06
 0.13777000E+03 -0.30680E+06
 0.13781999E+03 -0.29325E+06
 0.13787000E+03 -0.27589E+06
 0.13792000E+03 -0.25215E+06
 0.13797000E+03 -0.22255E+06
 0.13802000E+03 -0.18796E+06
 0.13806999E+03 -0.14405E+06
 0.13812000E+03 -0.94544E+05
 0.13817000E+03 -0.43274E+05
 0.13822000E+03  0.11083E+05
 0.13827000E+03  0.63772E+05
 0.13831999E+03  0.11124E+06
 0.13837000E+03  0.14868E+06
 0.13842000E+03  0.16972E+06
 0.13847000E+03  0.18114E+06
 0.13852000E+03  0.19117E+06
 0.13856999E+03  0.20436E+06
 0.13862000E+03  0.22268E+06
 0.13867000E+03  0.23889E+06
 0.13872000E+03  0.25032E+06
 0.13877000E+03  0.25673E+06
 0.13881999E+03  0.25705E+06
 0.13887000E+03  0.25200E+06
 0.13892000E+03  0.23797E+06
 0.13897000E+03  0.21345E+06
 0.13902000E+03  0.18164E+06
 0.13906999E+03  0.14910E+06
 0.13912000E+03  0.12140E+06
 0.13917000E+03  0.98683E+05
 0.13922000E+03  0.77388E+05
 0.13927000E+03  0.55139E+05
 0.13931999E+03  0.33476E+05
 0.13937000E+03  0.13210E+05
 0.13942000E+03 -0.48140E+04
 0.13947000E+03 -0.17424E+05
 0.13952000E+03 -0.23552E+05
 0.13956999E+03 -0.24947E+05
 0.13962000E+03 -0.21816E+05
 0.13967000E+03 -0.17100E+05
 0.13972000E+03 -0.17275E+05
 0.13977000E+03 -0.22986E+05
 0.13981999E+03 -0.30191E+05
 0.13987000E+03 -0.36831E+05
 0.13992000E+03 -0.45384E+05
 0.13997000E+03 -0.56316E+05
 0.14002000E+03 -0.63224E+05
 0.14006999E+03 -0.63731E+05
 0.14012000E+03 -0.61442E+05
 0.14017000E+03 -0.58955E+05
 0.14022000E+03 -0.56040E+05
 0.14027000E+03 -0.48223E+05
 0.14031999E+03 -0.34261E+05
 0.14037000E+03 -0.19665E+05
 0.14042000E+03 -0.56880E+04
 0.14047000E+03  0.12758E+05
 0.14052000E+03  0.39532E+05
 0.14056999E+03  0.74155E+05
 0.14062000E+03  0.11204E+06
 0.14067000E+03  0.14539E+06
 0.14072000E+03  0.16883E+06
 0.14077000E+03  0.18530E+06
 0.14081999E+03  0.20052E+06
 0.14087000E+03  0.21758E+06
 0.14092000E+03  0.23934E+06
 0.14097000E+03  0.26485E+06
 0.14102000E+03  0.28980E+06
 0.14106999E+03  0.31185E+06
 0.14112000E+03  0.32812E+06
 0.14117000E+03  0.33721E+06
 0.14122000E+03  0.34271E+06
 0.14127000E+03  0.35150E+06
 0.14131999E+03  0.36751E+06
 0.14137000E+03  0.38614E+06
 0.14142000E+03  0.40175E+06
 0.14147000E+03  0.41283E+06
 0.14152000E+03  0.41957E+06
 0.14156999E+03  0.42257E+06
 0.14162000E+03  0.42147E+06
 0.14167000E+03  0.41827E+06
 0.14172000E+03  0.41739E+06
 0.14177000E+03  0.42144E+06
 0.14181999E+03  0.43286E+06
 0.14187000E+03  0.44663E+06
 0.14192000E+03  0.45203E+06
 0.14197000E+03  0.44790E+06
 0.14202000E+03  0.43570E+06
 0.14206999E+03  0.41468E+06
 0.14212000E+03  0.38403E+06
 0.14217000E+03  0.34479E+06
 0.14222000E+03  0.30470E+06
 0.14227000E+03  0.26858E+06
 0.14231999E+03  0.23547E+06
 0.14237000E+03  0.20223E+06
 0.14242000E+03  0.16428E+06
 0.14247000E+03  0.12204E+06
 0.14252000E+03  0.80505E+05
 0.14256999E+03  0.39259E+05
 0.14262000E+03 -0.34530E+04
 0.14267000E+03 -0.45952E+05
 0.14272000E+03 -0.88022E+05
 0.14277000E+03 -0.12820E+06
 0.14281999E+03 -0.16407E+06
 0.14287000E+03 -0.19464E+06
 0.14292000E+03 -0.21996E+06
 0.14297000E+03 -0.23921E+06
 0.14302000E+03 -0.25358E+06
 0.14306999E+03 -0.26655E+06
 0.14312000E+03 -0.27949E+06
 0.14317000E+03 -0.29424E+06
 0.14322000E+03 -0.31160E+06
 0.14327000E+03 -0.32933E+06
 0.14331999E+03 -0.34642E+06
 0.14337000E+03 -0.36697E+06
 0.14342000E+03 -0.39166E+06
 0.14347000E+03 -0.41582E+06
 0.14352000E+03 -0.43653E+06
 0.14356999E+03 -0.45277E+06
 0.14362000E+03 -0.46959E+06
 0.14367000E+03 -0.48825E+06
 0.14372000E+03 -0.50242E+06
 0.14377000E+03 -0.50816E+06
 0.14381999E+03 -0.50372E+06
 0.14387000E+03 -0.49277E+06
 0.14392000E+03 -0.47910E+06
 0.14397000E+03 -0.46399E+06
 0.14402000E+03 -0.45044E+06
 0.14406999E+03 -0.43879E+06
 0.14412000E+03 -0.42948E+06
 0.14417000E+03 -0.42381E+06
 0.14422000E+03 -0.42026E+06
 0.14427000E+03 -0.41534E+06
 0.14431999E+03 -0.40822E+06
 0.14437000E+03 -0.39989E+06
 0.14442000E+03 -0.38961E+06
 0.14447000E+03 -0.37802E+06
 0.14452000E+03 -0.36307E+06
 0.14456999E+03 -0.34320E+06
 0.14462000E+03 -0.32194E+06
 0.14467000E+03 -0.30056E+06
 0.14472000E+03 -0.27873E+06
 0.14477000E+03 -0.25555E+06
 0.14481999E+03 -0.23231E+06
 0.14487000E+03 -0.21337E+06
 0.14492000E+03 -0.20202E+06
 0.14497000E+03 -0.19670E+06
 0.14502000E+03 -0.19042E+06
 0.14506999E+03 -0.18041E+06
 0.14512000E+03 -0.17032E+06
 0.14517000E+03 -0.16649E+06
 0.14522000E+03 -0.17216E+06
 0.14527000E+03 -0.18387E+06
 0.14531999E+03 -0.19632E+06
 0.14537000E+03 -0.20658E+06
 0.14542000E+03 -0.21636E+06
 0.14547000E+03 -0.22708E+06
 0.14552000E+03 -0.23709E+06
 0.14556999E+03 -0.24489E+06
 0.14562000E+03 -0.24718E+06
 0.14567000E+03 -0.24024E+06
 0.14572000E+03 -0.22364E+06
 0.14577000E+03 -0.19748E+06
 0.14581999E+03 -0.16588E+06
 0.14587000E+03 -0.13660E+06
 0.14592000E+03 -0.11098E+06
 0.14597000E+03 -0.86783E+05
 0.14602000E+03 -0.61492E+05
 0.14606999E+03 -0.30966E+05
 0.14612000E+03  0.59360E+04
 0.14617000E+03  0.51263E+05
 0.14622000E+03  0.10762E+06
 0.14627000E+03  0.16959E+06
 0.14631999E+03  0.22910E+06
 0.14637000E+03  0.28242E+06
 0.14642000E+03  0.33001E+06
 0.14647000E+03  0.37562E+06
 0.14652000E+03  0.41962E+06
 0.14656999E+03  0.45905E+06
 0.14662000E+03  0.49139E+06
 0.14667000E+03  0.51331E+06
 0.14672000E+03  0.52492E+06
 0.14677000E+03  0.52582E+06
 0.14681999E+03  0.51462E+06
 0.14687000E+03  0.49552E+06
 0.14692000E+03  0.47569E+06
 0.14697000E+03  0.45677E+06
 0.14702000E+03  0.43172E+06
 0.14706999E+03  0.39635E+06
 0.14712000E+03  0.35289E+06
 0.14717000E+03  0.30694E+06
 0.14722000E+03  0.26334E+06
 0.14727000E+03  0.22218E+06
 0.14731999E+03  0.18365E+06
 0.14737000E+03  0.14930E+06
 0.14742000E+03  0.11894E+06
 0.14747000E+03  0.88204E+05
 0.14752000E+03  0.52699E+05
 0.14756999E+03  0.13963E+05
 0.14762000E+03 -0.22054E+05
 0.14767000E+03 -0.50430E+05
 0.14772000E+03 -0.69233E+05
 0.14777000E+03 -0.79860E+05
 0.14781999E+03 -0.85683E+05
 0.14787000E+03 -0.86024E+05
 0.14792000E+03 -0.78558E+05
 0.14797000E+03 -0.66337E+05
 0.14802000E+03 -0.53268E+05
 0.14806999E+03 -0.39996E+05
 0.14812000E+03 -0.24848E+05
 0.14817000E+03 -0.57040E+04
 0.14822000E+03  0.16778E+05
 0.14827000E+03  0.40614E+05
 0.14831999E+03  0.65855E+05
 0.14837000E+03  0.93724E+05
 0.14842000E+03  0.12233E+06
 0.14847000E+03  0.14776E+06
 0.14852000E+03  0.16652E+06
 0.14856999E+03  0.17764E+06
 0.14862000E+03  0.18229E+06
 0.14867000E+03  0.17923E+06
 0.14872000E+03  0.16546E+06
 0.14877000E+03  0.14076E+06
 0.14881999E+03  0.11029E+06
 0.14887000E+03  0.76681E+05
 0.14892000E+03  0.41292E+05
 0.14897000E+03  0.83210E+04
 0.14902000E+03 -0.21895E+05
 0.14906999E+03 -0.47910E+05
