-0.38800001E+01 -0.65705E+05
-0.38300002E+01 -0.61721E+05
-0.37800002E+01 -0.57817E+05
-0.37300000E+01 -0.54060E+05
-0.36800001E+01 -0.50698E+05
-0.36300001E+01 -0.47395E+05
-0.35800002E+01 -0.43411E+05
-0.35300002E+01 -0.37773E+05
-0.34800000E+01 -0.30112E+05
-0.34300001E+01 -0.20809E+05
-0.33800001E+01 -0.10803E+05
-0.33300002E+01 -0.78800E+03
-0.32800002E+01  0.88880E+04
-0.32300000E+01  0.17768E+05
-0.31800001E+01  0.25914E+05
-0.31300001E+01  0.33552E+05
-0.30800002E+01  0.40474E+05
-0.30300002E+01  0.46314E+05
-0.29800000E+01  0.50935E+05
-0.29300001E+01  0.54224E+05
-0.28800001E+01  0.56334E+05
-0.28299999E+01  0.57279E+05
-0.27800002E+01  0.57071E+05
-0.27300000E+01  0.56140E+05
-0.26800001E+01  0.54652E+05
-0.26300001E+01  0.52735E+05
-0.25799999E+01  0.50734E+05
-0.25300002E+01  0.48945E+05
-0.24800000E+01  0.47418E+05
-0.24300001E+01  0.46532E+05
-0.23800001E+01  0.46878E+05
-0.23299999E+01  0.48751E+05
-0.22800002E+01  0.51785E+05
-0.22300000E+01  0.55531E+05
-0.21800001E+01  0.60029E+05
-0.21300001E+01  0.64893E+05
-0.20799999E+01  0.69855E+05
-0.20300002E+01  0.74820E+05
-0.19800001E+01  0.79036E+05
-0.19300001E+01  0.81714E+05
-0.18800001E+01  0.82929E+05
-0.18300002E+01  0.83036E+05
-0.17800000E+01  0.81679E+05
-0.17300000E+01  0.78734E+05
-0.16800001E+01  0.74356E+05
-0.16300001E+01  0.68588E+05
-0.15800002E+01  0.61796E+05
-0.15300000E+01  0.54126E+05
-0.14800000E+01  0.45823E+05
-0.14300001E+01  0.37141E+05
-0.13800001E+01  0.28197E+05
-0.13300002E+01  0.19530E+05
-0.12800000E+01  0.11640E+05
-0.12300000E+01  0.51090E+04
-0.11800001E+01 -0.11900E+03
-0.11300001E+01 -0.43580E+04
-0.10800002E+01 -0.73900E+04
-0.10300000E+01 -0.92250E+04
-0.98000002E+00 -0.96170E+04
-0.93000007E+00 -0.86590E+04
-0.88000011E+00 -0.68310E+04
-0.83000016E+00 -0.42380E+04
-0.77999997E+00 -0.87200E+03
-0.73000002E+00  0.28010E+04
-0.68000007E+00  0.60540E+04
-0.63000011E+00  0.88300E+04
-0.58000016E+00  0.10826E+05
-0.52999997E+00  0.11563E+05
-0.48000002E+00  0.10652E+05
-0.43000007E+00  0.78260E+04
-0.38000011E+00  0.31590E+04
-0.33000016E+00 -0.33290E+04
-0.27999997E+00 -0.11316E+05
-0.23000002E+00 -0.20495E+05
-0.18000007E+00 -0.30448E+05
-0.13000011E+00 -0.40646E+05
-0.80000162E-01 -0.50873E+05
-0.29999971E-01 -0.61148E+05
 0.19999981E-01 -0.71085E+05
 0.69999933E-01 -0.80111E+05
 0.11999989E+00 -0.88078E+05
 0.17000008E+00 -0.94727E+05
 0.21999979E+00 -0.99937E+05
 0.26999998E+00 -0.10339E+06
 0.32000017E+00 -0.10471E+06
 0.36999989E+00 -0.10398E+06
 0.42000008E+00 -0.10149E+06
 0.46999979E+00 -0.97612E+05
 0.51999998E+00 -0.92445E+05
 0.57000017E+00 -0.86359E+05
 0.61999989E+00 -0.79883E+05
 0.67000008E+00 -0.73620E+05
 0.71999979E+00 -0.68301E+05
 0.76999998E+00 -0.64047E+05
 0.82000017E+00 -0.60296E+05
 0.86999989E+00 -0.56992E+05
 0.92000008E+00 -0.54240E+05
 0.96999979E+00 -0.51987E+05
 0.10200000E+01 -0.50481E+05
 0.10700002E+01 -0.48926E+05
 0.11199999E+01 -0.46563E+05
 0.11700001E+01 -0.42992E+05
 0.12199998E+01 -0.37926E+05
 0.12700000E+01 -0.32030E+05
 0.13200002E+01 -0.25507E+05
 0.13699999E+01 -0.18290E+05
 0.14200001E+01 -0.10021E+05
 0.14699998E+01 -0.29700E+03
 0.15200000E+01  0.10434E+05
 0.15700002E+01  0.21596E+05
 0.16199999E+01  0.32564E+05
 0.16700001E+01  0.42814E+05
 0.17199998E+01  0.52259E+05
 0.17700000E+01  0.60946E+05
 0.18200002E+01  0.68630E+05
 0.18699999E+01  0.75325E+05
 0.19200001E+01  0.81281E+05
 0.19699998E+01  0.86401E+05
 0.20200000E+01  0.90196E+05
 0.20700002E+01  0.92079E+05
 0.21199999E+01  0.91955E+05
 0.21700001E+01  0.89908E+05
 0.22199998E+01  0.86289E+05
 0.22700000E+01  0.81471E+05
 0.23200002E+01  0.75076E+05
 0.23699999E+01  0.66964E+05
 0.24200001E+01  0.57602E+05
 0.24699998E+01  0.47653E+05
 0.25200000E+01  0.37799E+05
 0.25700002E+01  0.28370E+05
 0.26199999E+01  0.19341E+05
 0.26700001E+01  0.10661E+05
 0.27199998E+01  0.29890E+04
 0.27700000E+01 -0.27170E+04
 0.28200002E+01 -0.61330E+04
 0.28699999E+01 -0.76470E+04
 0.29200001E+01 -0.76880E+04
 0.29699998E+01 -0.65170E+04
 0.30200000E+01 -0.43810E+04
 0.30700002E+01 -0.12070E+04
 0.31199999E+01  0.28890E+04
 0.31700001E+01  0.74370E+04
 0.32199998E+01  0.11981E+05
 0.32700000E+01  0.16001E+05
 0.33200002E+01  0.19042E+05
 0.33699999E+01  0.20921E+05
 0.34200001E+01  0.21371E+05
 0.34699998E+01  0.20252E+05
 0.35200000E+01  0.17979E+05
 0.35700002E+01  0.15101E+05
 0.36199999E+01  0.11977E+05
 0.36700001E+01  0.84480E+04
 0.37199998E+01  0.44200E+04
 0.37700000E+01  0.44500E+03
 0.38200002E+01 -0.28210E+04
 0.38699999E+01 -0.48730E+04
 0.39200001E+01 -0.54980E+04
 0.39699998E+01 -0.47110E+04
 0.40200000E+01 -0.31450E+04
 0.40700002E+01 -0.14210E+04
 0.41199999E+01  0.82800E+03
 0.41700001E+01  0.40190E+04
 0.42200003E+01  0.86350E+04
 0.42700005E+01  0.15079E+05
 0.43199997E+01  0.22794E+05
 0.43699999E+01  0.30692E+05
 0.44200001E+01  0.38073E+05
 0.44700003E+01  0.44695E+05
 0.45200005E+01  0.49963E+05
 0.45699997E+01  0.53405E+05
 0.46199999E+01  0.55127E+05
 0.46700001E+01  0.55228E+05
 0.47200003E+01  0.54209E+05
 0.47700005E+01  0.52774E+05
 0.48199997E+01  0.51260E+05
 0.48699999E+01  0.49472E+05
 0.49200001E+01  0.47144E+05
 0.49700003E+01  0.44473E+05
 0.50200005E+01  0.42062E+05
 0.50699997E+01  0.40442E+05
 0.51199999E+01  0.39406E+05
 0.51700001E+01  0.38894E+05
 0.52200003E+01  0.38902E+05
 0.52700005E+01  0.39617E+05
 0.53199997E+01  0.41162E+05
 0.53699999E+01  0.43300E+05
 0.54200001E+01  0.46129E+05
 0.54700003E+01  0.49345E+05
 0.55200005E+01  0.52772E+05
 0.55699997E+01  0.55881E+05
 0.56199999E+01  0.58365E+05
 0.56700001E+01  0.60516E+05
 0.57200003E+01  0.61953E+05
 0.57700005E+01  0.62351E+05
 0.58199997E+01  0.61664E+05
 0.58699999E+01  0.60270E+05
 0.59200001E+01  0.58363E+05
 0.59700003E+01  0.55625E+05
 0.60200005E+01  0.51962E+05
 0.60699997E+01  0.47157E+05
 0.61199999E+01  0.41068E+05
 0.61700001E+01  0.34141E+05
 0.62200003E+01  0.26973E+05
 0.62700005E+01  0.19754E+05
 0.63199997E+01  0.12211E+05
 0.63699999E+01  0.39810E+04
 0.64200001E+01 -0.50680E+04
 0.64700003E+01 -0.14614E+05
 0.65200005E+01 -0.24549E+05
 0.65699997E+01 -0.35155E+05
 0.66199999E+01 -0.45916E+05
 0.66700001E+01 -0.56093E+05
 0.67200003E+01 -0.65175E+05
 0.67700005E+01 -0.72811E+05
 0.68199997E+01 -0.79201E+05
 0.68699999E+01 -0.84595E+05
 0.69200001E+01 -0.89656E+05
 0.69700003E+01 -0.95067E+05
 0.70200005E+01 -0.10074E+06
 0.70699997E+01 -0.10608E+06
 0.71199999E+01 -0.11058E+06
 0.71700001E+01 -0.11393E+06
 0.72200003E+01 -0.11597E+06
 0.72700005E+01 -0.11697E+06
 0.73199997E+01 -0.11655E+06
 0.73699999E+01 -0.11439E+06
 0.74200001E+01 -0.11102E+06
 0.74700003E+01 -0.10688E+06
 0.75200005E+01 -0.10208E+06
 0.75699997E+01 -0.96859E+05
 0.76199999E+01 -0.91262E+05
 0.76700001E+01 -0.84978E+05
 0.77200003E+01 -0.78320E+05
 0.77700005E+01 -0.71741E+05
 0.78199997E+01 -0.64975E+05
 0.78699999E+01 -0.57438E+05
 0.79200001E+01 -0.48942E+05
 0.79700003E+01 -0.39593E+05
 0.80200005E+01 -0.29640E+05
 0.80699997E+01 -0.19645E+05
 0.81199999E+01 -0.99040E+04
 0.81700001E+01 -0.54300E+03
 0.82200003E+01  0.85680E+04
 0.82700005E+01  0.17159E+05
 0.83199997E+01  0.24619E+05
 0.83699999E+01  0.31046E+05
 0.84200001E+01  0.36708E+05
 0.84700003E+01  0.42011E+05
 0.85200005E+01  0.47357E+05
 0.85699997E+01  0.52861E+05
 0.86199999E+01  0.58379E+05
 0.86700001E+01  0.63283E+05
 0.87200003E+01  0.67113E+05
 0.87700005E+01  0.69802E+05
 0.88199997E+01  0.71192E+05
 0.88699999E+01  0.71425E+05
 0.89200001E+01  0.70415E+05
 0.89700003E+01  0.67862E+05
 0.90200005E+01  0.63872E+05
 0.90699997E+01  0.58751E+05
 0.91199999E+01  0.52421E+05
 0.91700001E+01  0.44665E+05
 0.92200003E+01  0.35805E+05
 0.92700005E+01  0.25591E+05
 0.93199997E+01  0.14470E+05
 0.93699999E+01  0.31240E+04
 0.94200001E+01 -0.83670E+04
 0.94700003E+01 -0.19509E+05
 0.95200005E+01 -0.29850E+05
 0.95699997E+01 -0.38710E+05
 0.96199999E+01 -0.46284E+05
 0.96700001E+01 -0.52910E+05
 0.97200003E+01 -0.58616E+05
 0.97700005E+01 -0.63557E+05
 0.98199997E+01 -0.66890E+05
 0.98699999E+01 -0.68308E+05
 0.99200001E+01 -0.68437E+05
 0.99700003E+01 -0.67146E+05
 0.10020000E+02 -0.64316E+05
 0.10070000E+02 -0.60020E+05
 0.10120000E+02 -0.54843E+05
 0.10170000E+02 -0.49526E+05
 0.10220000E+02 -0.44026E+05
 0.10270000E+02 -0.38773E+05
 0.10320000E+02 -0.33929E+05
 0.10370000E+02 -0.29381E+05
 0.10420000E+02 -0.24770E+05
 0.10470000E+02 -0.19856E+05
 0.10520000E+02 -0.15334E+05
 0.10570000E+02 -0.11632E+05
 0.10620000E+02 -0.84730E+04
 0.10670000E+02 -0.57570E+04
 0.10720000E+02 -0.37970E+04
 0.10770000E+02 -0.20120E+04
 0.10820000E+02  0.99000E+02
 0.10870000E+02  0.21430E+04
 0.10920000E+02  0.43350E+04
 0.10970000E+02  0.70850E+04
 0.11020000E+02  0.10182E+05
 0.11070000E+02  0.13829E+05
 0.11120000E+02  0.18463E+05
 0.11170000E+02  0.24402E+05
 0.11220000E+02  0.31207E+05
 0.11270000E+02  0.37931E+05
 0.11320000E+02  0.44716E+05
 0.11370000E+02  0.51455E+05
 0.11420000E+02  0.57799E+05
 0.11470000E+02  0.63977E+05
 0.11520000E+02  0.69473E+05
 0.11570000E+02  0.73981E+05
 0.11620000E+02  0.77749E+05
 0.11670000E+02  0.80849E+05
 0.11720000E+02  0.82962E+05
 0.11770000E+02  0.83437E+05
 0.11820000E+02  0.83159E+05
 0.11870000E+02  0.82151E+05
 0.11920000E+02  0.80071E+05
 0.11970000E+02  0.78133E+05
 0.12020000E+02  0.75837E+05
 0.12070000E+02  0.72692E+05
 0.12120000E+02  0.68976E+05
 0.12170001E+02  0.64420E+05
 0.12220000E+02  0.58482E+05
 0.12270000E+02  0.50852E+05
 0.12320001E+02  0.42263E+05
 0.12370000E+02  0.32701E+05
 0.12420001E+02  0.21830E+05
 0.12470000E+02  0.99080E+04
 0.12520000E+02 -0.33800E+04
 0.12570001E+02 -0.18258E+05
 0.12620000E+02 -0.34270E+05
 0.12670001E+02 -0.50496E+05
 0.12720000E+02 -0.66267E+05
 0.12770000E+02 -0.81511E+05
 0.12820001E+02 -0.96283E+05
 0.12870000E+02 -0.11084E+06
 0.12920001E+02 -0.12481E+06
 0.12970000E+02 -0.13714E+06
 0.13020000E+02 -0.14736E+06
 0.13070001E+02 -0.15547E+06
 0.13120000E+02 -0.16156E+06
 0.13170001E+02 -0.16509E+06
 0.13220000E+02 -0.16574E+06
 0.13270000E+02 -0.16413E+06
 0.13320001E+02 -0.16029E+06
 0.13370000E+02 -0.15396E+06
 0.13420001E+02 -0.14518E+06
 0.13470000E+02 -0.13428E+06
 0.13520000E+02 -0.12212E+06
 0.13570001E+02 -0.10960E+06
 0.13620000E+02 -0.96800E+05
 0.13670001E+02 -0.83638E+05
 0.13720000E+02 -0.71044E+05
 0.13770000E+02 -0.59437E+05
 0.13820001E+02 -0.48434E+05
 0.13870000E+02 -0.37998E+05
 0.13920001E+02 -0.28136E+05
 0.13970000E+02 -0.18909E+05
 0.14020000E+02 -0.10256E+05
 0.14070001E+02 -0.23560E+04
 0.14120000E+02  0.46810E+04
 0.14170001E+02  0.11395E+05
 0.14220000E+02  0.18232E+05
 0.14270000E+02  0.25219E+05
 0.14320001E+02  0.32035E+05
 0.14370000E+02  0.37854E+05
 0.14420001E+02  0.42463E+05
 0.14470000E+02  0.46313E+05
 0.14520000E+02  0.49640E+05
 0.14570001E+02  0.52571E+05
 0.14620000E+02  0.55022E+05
 0.14670001E+02  0.57245E+05
 0.14720000E+02  0.59094E+05
 0.14770000E+02  0.60282E+05
 0.14820001E+02  0.61159E+05
 0.14870000E+02  0.61833E+05
 0.14920001E+02  0.62212E+05
 0.14970000E+02  0.62484E+05
 0.15020000E+02  0.62729E+05
 0.15070001E+02  0.62699E+05
 0.15120000E+02  0.62503E+05
 0.15170001E+02  0.61941E+05
 0.15220000E+02  0.60776E+05
 0.15270000E+02  0.59670E+05
 0.15320001E+02  0.59034E+05
 0.15370000E+02  0.58506E+05
 0.15420001E+02  0.57854E+05
 0.15470000E+02  0.57175E+05
 0.15520000E+02  0.56219E+05
 0.15570001E+02  0.54710E+05
 0.15620000E+02  0.53131E+05
 0.15670001E+02  0.52243E+05
 0.15720000E+02  0.52123E+05
 0.15770000E+02  0.52610E+05
 0.15820001E+02  0.53280E+05
 0.15870000E+02  0.53306E+05
 0.15920001E+02  0.52426E+05
 0.15970000E+02  0.50209E+05
 0.16020000E+02  0.46830E+05
 0.16070000E+02  0.42811E+05
 0.16119999E+02  0.37930E+05
 0.16170002E+02  0.32367E+05
 0.16220001E+02  0.25680E+05
 0.16270000E+02  0.18083E+05
 0.16320000E+02  0.10749E+05
 0.16369999E+02  0.36080E+04
 0.16420002E+02 -0.36040E+04
 0.16470001E+02 -0.10653E+05
 0.16520000E+02 -0.17128E+05
 0.16570000E+02 -0.22913E+05
 0.16619999E+02 -0.28048E+05
 0.16670002E+02 -0.32544E+05
 0.16720001E+02 -0.36248E+05
 0.16770000E+02 -0.38773E+05
 0.16820000E+02 -0.39964E+05
 0.16869999E+02 -0.39804E+05
 0.16920002E+02 -0.38793E+05
 0.16970001E+02 -0.37335E+05
 0.17020000E+02 -0.35751E+05
 0.17070000E+02 -0.33978E+05
 0.17119999E+02 -0.31143E+05
 0.17170002E+02 -0.26855E+05
 0.17220001E+02 -0.21178E+05
 0.17270000E+02 -0.14730E+05
 0.17320000E+02 -0.82540E+04
 0.17369999E+02 -0.22530E+04
 0.17420002E+02  0.30000E+04
 0.17470001E+02  0.76700E+04
 0.17520000E+02  0.11871E+05
 0.17570000E+02  0.15516E+05
 0.17619999E+02  0.18572E+05
 0.17670002E+02  0.21137E+05
 0.17720001E+02  0.23051E+05
 0.17770000E+02  0.24404E+05
 0.17820000E+02  0.25677E+05
 0.17869999E+02  0.27118E+05
 0.17920002E+02  0.28425E+05
 0.17970001E+02  0.29359E+05
 0.18020000E+02  0.30078E+05
 0.18070000E+02  0.30680E+05
 0.18119999E+02  0.31237E+05
 0.18170002E+02  0.31637E+05
 0.18220001E+02  0.31657E+05
 0.18270000E+02  0.30819E+05
 0.18320000E+02  0.29196E+05
 0.18369999E+02  0.26961E+05
 0.18420002E+02  0.23717E+05
 0.18470001E+02  0.19707E+05
 0.18520000E+02  0.15260E+05
 0.18570000E+02  0.10608E+05
 0.18619999E+02  0.60060E+04
 0.18670002E+02  0.15110E+04
 0.18720001E+02 -0.27710E+04
 0.18770000E+02 -0.67900E+04
 0.18820000E+02 -0.10402E+05
 0.18869999E+02 -0.13167E+05
 0.18920002E+02 -0.14962E+05
 0.18970001E+02 -0.16246E+05
 0.19020000E+02 -0.17332E+05
 0.19070000E+02 -0.18529E+05
 0.19119999E+02 -0.20099E+05
 0.19170002E+02 -0.21667E+05
 0.19220001E+02 -0.22927E+05
 0.19270000E+02 -0.24266E+05
 0.19320000E+02 -0.26049E+05
 0.19369999E+02 -0.28055E+05
 0.19420002E+02 -0.29979E+05
 0.19470001E+02 -0.31967E+05
 0.19520000E+02 -0.34172E+05
 0.19570000E+02 -0.36368E+05
 0.19619999E+02 -0.38601E+05
 0.19670002E+02 -0.40955E+05
 0.19720001E+02 -0.43202E+05
 0.19770000E+02 -0.45303E+05
 0.19820000E+02 -0.47106E+05
 0.19869999E+02 -0.48127E+05
 0.19920002E+02 -0.47984E+05
 0.19970001E+02 -0.46670E+05
 0.20020000E+02 -0.44225E+05
 0.20070000E+02 -0.40489E+05
 0.20119999E+02 -0.35423E+05
 0.20170002E+02 -0.29158E+05
 0.20220001E+02 -0.21955E+05
 0.20270000E+02 -0.13912E+05
 0.20320000E+02 -0.50330E+04
 0.20369999E+02  0.44700E+04
 0.20420002E+02  0.14067E+05
 0.20470001E+02  0.23062E+05
 0.20520000E+02  0.31347E+05
 0.20570000E+02  0.38892E+05
 0.20619999E+02  0.45335E+05
 0.20670002E+02  0.50716E+05
 0.20720001E+02  0.55313E+05
 0.20770000E+02  0.58728E+05
 0.20820000E+02  0.60611E+05
 0.20869999E+02  0.61486E+05
 0.20920002E+02  0.61665E+05
 0.20970001E+02  0.61272E+05
 0.21020000E+02  0.60389E+05
 0.21070000E+02  0.59104E+05
 0.21119999E+02  0.57516E+05
 0.21170002E+02  0.55313E+05
 0.21220001E+02  0.52580E+05
 0.21270000E+02  0.49456E+05
 0.21320000E+02  0.45944E+05
 0.21369999E+02  0.42394E+05
 0.21420002E+02  0.38886E+05
 0.21470001E+02  0.35402E+05
 0.21520000E+02  0.32264E+05
 0.21570000E+02  0.29727E+05
 0.21619999E+02  0.27331E+05
 0.21670002E+02  0.24659E+05
 0.21720001E+02  0.22125E+05
 0.21770000E+02  0.19522E+05
 0.21820000E+02  0.16466E+05
 0.21869999E+02  0.13263E+05
 0.21920002E+02  0.99410E+04
 0.21970001E+02  0.67640E+04
 0.22020000E+02  0.42710E+04
 0.22070000E+02  0.27870E+04
 0.22119999E+02  0.22660E+04
 0.22170002E+02  0.26030E+04
 0.22220001E+02  0.36240E+04
 0.22270000E+02  0.50910E+04
 0.22320000E+02  0.72880E+04
 0.22369999E+02  0.99310E+04
 0.22420002E+02  0.12406E+05
 0.22470001E+02  0.14225E+05
 0.22520000E+02  0.15015E+05
 0.22570000E+02  0.15097E+05
 0.22619999E+02  0.14614E+05
 0.22670002E+02  0.13673E+05
 0.22720001E+02  0.12551E+05
 0.22770000E+02  0.11234E+05
 0.22820000E+02  0.96940E+04
 0.22869999E+02  0.78110E+04
 0.22920002E+02  0.54910E+04
 0.22970001E+02  0.27540E+04
 0.23020000E+02 -0.45700E+03
 0.23070000E+02 -0.42790E+04
 0.23119999E+02 -0.86800E+04
 0.23170002E+02 -0.13251E+05
 0.23220001E+02 -0.17842E+05
 0.23270000E+02 -0.22708E+05
 0.23320000E+02 -0.27514E+05
 0.23369999E+02 -0.31969E+05
 0.23420002E+02 -0.36272E+05
 0.23470001E+02 -0.40347E+05
 0.23520000E+02 -0.44437E+05
 0.23570000E+02 -0.48929E+05
 0.23619999E+02 -0.53610E+05
 0.23670002E+02 -0.57804E+05
 0.23720001E+02 -0.61190E+05
 0.23770000E+02 -0.63773E+05
 0.23820000E+02 -0.65671E+05
 0.23869999E+02 -0.67464E+05
 0.23920002E+02 -0.69397E+05
 0.23970001E+02 -0.71681E+05
 0.24020000E+02 -0.74223E+05
 0.24070000E+02 -0.76493E+05
 0.24119999E+02 -0.78556E+05
 0.24170002E+02 -0.80144E+05
 0.24220001E+02 -0.81159E+05
 0.24270000E+02 -0.81826E+05
 0.24320000E+02 -0.82168E+05
 0.24369999E+02 -0.82458E+05
 0.24420002E+02 -0.82738E+05
 0.24470001E+02 -0.83000E+05
 0.24520000E+02 -0.83092E+05
 0.24570000E+02 -0.83004E+05
 0.24619999E+02 -0.82233E+05
 0.24670002E+02 -0.79602E+05
 0.24720001E+02 -0.75062E+05
 0.24770000E+02 -0.69026E+05
 0.24820000E+02 -0.61322E+05
 0.24869999E+02 -0.52081E+05
 0.24920002E+02 -0.42131E+05
 0.24970001E+02 -0.31835E+05
 0.25020000E+02 -0.21294E+05
 0.25070000E+02 -0.10613E+05
 0.25119999E+02  0.13200E+03
 0.25170002E+02  0.10430E+05
 0.25220001E+02  0.19674E+05
 0.25270000E+02  0.27159E+05
 0.25320000E+02  0.32617E+05
 0.25369999E+02  0.36371E+05
 0.25420002E+02  0.38770E+05
 0.25470001E+02  0.40116E+05
 0.25520000E+02  0.40520E+05
 0.25570000E+02  0.39950E+05
 0.25619999E+02  0.38588E+05
 0.25670002E+02  0.36648E+05
 0.25720001E+02  0.34455E+05
 0.25770000E+02  0.31898E+05
 0.25820000E+02  0.28900E+05
 0.25869999E+02  0.25787E+05
 0.25920002E+02  0.23061E+05
 0.25970001E+02  0.21415E+05
 0.26020000E+02  0.20060E+05
 0.26070000E+02  0.18401E+05
 0.26119999E+02  0.16446E+05
 0.26170002E+02  0.14377E+05
 0.26220001E+02  0.12601E+05
 0.26270000E+02  0.10809E+05
 0.26320000E+02  0.92580E+04
 0.26369999E+02  0.80850E+04
 0.26420002E+02  0.74050E+04
 0.26470001E+02  0.72240E+04
 0.26520000E+02  0.71320E+04
 0.26570000E+02  0.70980E+04
 0.26619999E+02  0.74400E+04
 0.26670002E+02  0.88390E+04
 0.26720001E+02  0.11140E+05
 0.26770000E+02  0.14092E+05
 0.26820000E+02  0.17876E+05
 0.26869999E+02  0.22083E+05
 0.26920002E+02  0.26377E+05
 0.26970001E+02  0.30638E+05
 0.27020000E+02  0.34256E+05
 0.27070000E+02  0.36403E+05
 0.27119999E+02  0.37013E+05
 0.27170002E+02  0.36440E+05
 0.27220001E+02  0.34997E+05
 0.27270000E+02  0.33102E+05
 0.27320000E+02  0.31011E+05
 0.27369999E+02  0.28662E+05
 0.27420002E+02  0.26086E+05
 0.27470001E+02  0.23587E+05
 0.27520000E+02  0.21322E+05
 0.27570000E+02  0.18977E+05
 0.27619999E+02  0.16246E+05
 0.27670002E+02  0.13454E+05
 0.27720001E+02  0.10907E+05
 0.27770000E+02  0.89330E+04
 0.27820000E+02  0.77270E+04
 0.27869999E+02  0.66440E+04
 0.27920002E+02  0.53060E+04
 0.27970001E+02  0.35280E+04
 0.28020000E+02  0.10540E+04
 0.28070000E+02 -0.18540E+04
 0.28119999E+02 -0.51510E+04
 0.28169998E+02 -0.85240E+04
 0.28220001E+02 -0.11910E+05
 0.28270000E+02 -0.15603E+05
 0.28320000E+02 -0.19412E+05
 0.28369999E+02 -0.23272E+05
 0.28419998E+02 -0.26762E+05
 0.28470001E+02 -0.29732E+05
 0.28520000E+02 -0.32501E+05
 0.28570000E+02 -0.35014E+05
 0.28619999E+02 -0.36485E+05
 0.28669998E+02 -0.36079E+05
 0.28720001E+02 -0.33724E+05
 0.28770000E+02 -0.29722E+05
 0.28820000E+02 -0.24922E+05
 0.28869999E+02 -0.19854E+05
 0.28919998E+02 -0.14646E+05
 0.28970001E+02 -0.93540E+04
 0.29020000E+02 -0.36730E+04
 0.29070000E+02  0.20700E+04
 0.29119999E+02  0.72260E+04
 0.29169998E+02  0.11730E+05
 0.29220001E+02  0.15513E+05
 0.29270000E+02  0.18020E+05
 0.29320000E+02  0.18824E+05
 0.29369999E+02  0.17753E+05
 0.29419998E+02  0.15206E+05
 0.29470001E+02  0.11818E+05
 0.29520000E+02  0.80660E+04
 0.29570000E+02  0.44260E+04
 0.29619999E+02  0.57700E+03
 0.29669998E+02 -0.33730E+04
 0.29720001E+02 -0.71520E+04
 0.29770000E+02 -0.10800E+05
 0.29820000E+02 -0.13520E+05
 0.29869999E+02 -0.15183E+05
 0.29919998E+02 -0.16146E+05
 0.29970001E+02 -0.16299E+05
 0.30020000E+02 -0.15858E+05
 0.30070000E+02 -0.14916E+05
 0.30119999E+02 -0.13456E+05
 0.30169998E+02 -0.11685E+05
 0.30220001E+02 -0.97250E+04
 0.30270000E+02 -0.77980E+04
 0.30320000E+02 -0.57310E+04
 0.30369999E+02 -0.32610E+04
 0.30419998E+02 -0.61000E+03
 0.30470001E+02  0.19640E+04
 0.30520000E+02  0.45360E+04
 0.30570000E+02  0.71810E+04
 0.30619999E+02  0.10035E+05
 0.30669998E+02  0.13080E+05
 0.30720001E+02  0.15718E+05
 0.30770000E+02  0.17721E+05
 0.30820000E+02  0.19263E+05
 0.30869999E+02  0.20657E+05
 0.30919998E+02  0.21784E+05
 0.30970001E+02  0.22693E+05
 0.31020000E+02  0.23925E+05
 0.31070000E+02  0.25170E+05
 0.31119999E+02  0.25726E+05
 0.31169998E+02  0.25582E+05
 0.31220001E+02  0.24853E+05
 0.31270000E+02  0.23196E+05
 0.31320000E+02  0.20627E+05
 0.31369999E+02  0.17588E+05
 0.31419998E+02  0.14560E+05
 0.31470001E+02  0.11936E+05
 0.31520000E+02  0.99720E+04
 0.31570000E+02  0.87610E+04
 0.31619999E+02  0.80680E+04
 0.31669998E+02  0.73140E+04
 0.31720001E+02  0.63400E+04
 0.31770000E+02  0.54020E+04
 0.31820000E+02  0.42850E+04
 0.31869999E+02  0.32100E+04
 0.31919998E+02  0.22470E+04
 0.31970001E+02  0.97900E+03
 0.32020000E+02 -0.27800E+03
 0.32070000E+02 -0.90600E+03
 0.32119999E+02 -0.73000E+03
 0.32169998E+02 -0.13000E+02
 0.32220001E+02  0.10960E+04
 0.32270000E+02  0.17590E+04
 0.32320000E+02  0.21640E+04
 0.32369999E+02  0.31780E+04
 0.32419998E+02  0.38240E+04
 0.32470001E+02  0.40950E+04
 0.32520000E+02  0.41900E+04
 0.32570000E+02  0.37230E+04
 0.32619999E+02  0.30390E+04
 0.32669998E+02  0.20200E+04
 0.32720001E+02  0.81900E+03
 0.32770000E+02 -0.11600E+03
 0.32820000E+02 -0.73000E+03
 0.32869999E+02 -0.10950E+04
 0.32919998E+02 -0.12270E+04
 0.32970001E+02 -0.10370E+04
 0.33020000E+02 -0.38000E+03
 0.33070000E+02  0.52900E+03
 0.33119999E+02  0.12130E+04
 0.33169998E+02  0.24320E+04
 0.33220001E+02  0.41610E+04
 0.33270000E+02  0.55460E+04
 0.33320000E+02  0.68680E+04
 0.33369999E+02  0.78440E+04
 0.33419998E+02  0.92960E+04
 0.33470001E+02  0.10979E+05
 0.33520000E+02  0.11921E+05
 0.33570000E+02  0.13770E+05
 0.33619999E+02  0.15457E+05
 0.33669998E+02  0.16575E+05
 0.33720001E+02  0.18511E+05
 0.33770000E+02  0.20029E+05
 0.33820000E+02  0.20113E+05
 0.33869999E+02  0.19189E+05
 0.33919998E+02  0.18344E+05
 0.33970001E+02  0.16871E+05
 0.34020000E+02  0.14376E+05
 0.34070000E+02  0.12071E+05
 0.34119999E+02  0.96320E+04
 0.34169998E+02  0.64580E+04
 0.34220001E+02  0.19630E+04
 0.34270000E+02 -0.36700E+04
 0.34320000E+02 -0.84690E+04
 0.34369999E+02 -0.13146E+05
 0.34419998E+02 -0.18777E+05
 0.34470001E+02 -0.24424E+05
 0.34520000E+02 -0.28115E+05
 0.34570000E+02 -0.29078E+05
 0.34619999E+02 -0.31500E+05
 0.34669998E+02 -0.33799E+05
 0.34720001E+02 -0.34587E+05
 0.34770000E+02 -0.41412E+05
 0.34820000E+02 -0.51302E+05
 0.34869999E+02 -0.57239E+05
 0.34919998E+02 -0.62872E+05
 0.34970001E+02 -0.69396E+05
 0.35020000E+02 -0.73084E+05
 0.35070000E+02 -0.72638E+05
 0.35119999E+02 -0.70503E+05
 0.35169998E+02 -0.71623E+05
 0.35220001E+02 -0.73558E+05
 0.35270000E+02 -0.69675E+05
 0.35320000E+02 -0.66124E+05
 0.35369999E+02 -0.62677E+05
 0.35419998E+02 -0.52340E+05
 0.35470001E+02 -0.43069E+05
 0.35520000E+02 -0.36757E+05
 0.35570000E+02 -0.32484E+05
 0.35619999E+02 -0.33507E+05
 0.35669998E+02 -0.36118E+05
 0.35720001E+02 -0.39809E+05
 0.35770000E+02 -0.40567E+05
 0.35820000E+02 -0.37313E+05
 0.35869999E+02 -0.38546E+05
 0.35919998E+02 -0.42696E+05
 0.35970001E+02 -0.46758E+05
 0.36020000E+02 -0.47483E+05
 0.36070000E+02 -0.45716E+05
 0.36119999E+02 -0.48995E+05
 0.36169998E+02 -0.57092E+05
 0.36220001E+02 -0.67304E+05
 0.36270000E+02 -0.72213E+05
 0.36320000E+02 -0.69914E+05
 0.36369999E+02 -0.68636E+05
 0.36419998E+02 -0.67106E+05
 0.36470001E+02 -0.64388E+05
 0.36520000E+02 -0.66176E+05
 0.36570000E+02 -0.67835E+05
 0.36619999E+02 -0.71604E+05
 0.36669998E+02 -0.75624E+05
 0.36720001E+02 -0.70031E+05
 0.36770000E+02 -0.62190E+05
 0.36820000E+02 -0.50375E+05
 0.36869999E+02 -0.32128E+05
 0.36919998E+02 -0.16628E+05
 0.36970001E+02 -0.63570E+04
 0.37020000E+02 -0.47300E+03
 0.37070000E+02  0.25900E+03
 0.37119999E+02  0.51880E+04
 0.37169998E+02  0.17805E+05
 0.37220001E+02  0.28318E+05
 0.37270000E+02  0.35438E+05
 0.37320000E+02  0.38949E+05
 0.37369999E+02  0.43330E+05
 0.37419998E+02  0.47703E+05
 0.37470001E+02  0.48720E+05
 0.37520000E+02  0.52038E+05
 0.37570000E+02  0.49582E+05
 0.37619999E+02  0.35522E+05
 0.37669998E+02  0.25346E+05
 0.37720001E+02  0.22432E+05
 0.37770000E+02  0.23100E+05
 0.37820000E+02  0.26771E+05
 0.37869999E+02  0.24906E+05
 0.37919998E+02  0.25514E+05
 0.37970001E+02  0.31459E+05
 0.38020000E+02  0.37888E+05
 0.38070000E+02  0.42755E+05
 0.38119999E+02  0.39130E+05
 0.38169998E+02  0.37837E+05
 0.38220001E+02  0.46756E+05
 0.38270000E+02  0.52145E+05
 0.38320000E+02  0.46366E+05
 0.38369999E+02  0.42720E+05
 0.38419998E+02  0.44142E+05
 0.38470001E+02  0.42282E+05
 0.38520000E+02  0.45325E+05
 0.38570000E+02  0.55830E+05
 0.38619999E+02  0.59349E+05
 0.38669998E+02  0.60380E+05
 0.38720001E+02  0.74856E+05
 0.38770000E+02  0.94415E+05
 0.38820000E+02  0.10998E+06
 0.38869999E+02  0.11939E+06
 0.38919998E+02  0.11827E+06
 0.38970001E+02  0.10051E+06
 0.39020000E+02  0.75060E+05
 0.39070000E+02  0.49691E+05
 0.39119999E+02  0.20768E+05
 0.39169998E+02  0.18911E+05
 0.39220001E+02  0.43290E+05
 0.39270000E+02  0.45737E+05
 0.39320000E+02  0.47889E+05
 0.39369999E+02  0.76421E+05
 0.39419998E+02  0.93931E+05
 0.39470001E+02  0.10808E+06
 0.39520000E+02  0.11666E+06
 0.39570000E+02  0.10964E+06
 0.39619999E+02  0.11672E+06
 0.39669998E+02  0.12025E+06
 0.39720001E+02  0.10717E+06
 0.39770000E+02  0.65413E+05
 0.39820000E+02 -0.42900E+04
 0.39869999E+02 -0.48753E+05
 0.39919998E+02 -0.61433E+05
 0.39970001E+02 -0.72123E+05
 0.40020000E+02 -0.78339E+05
 0.40070000E+02 -0.71781E+05
 0.40119999E+02 -0.53274E+05
 0.40169998E+02 -0.23085E+05
 0.40220001E+02 -0.51170E+04
 0.40270000E+02 -0.39450E+04
 0.40320000E+02  0.25520E+04
 0.40369999E+02 -0.16010E+04
 0.40419998E+02 -0.19631E+05
 0.40470001E+02 -0.28377E+05
 0.40520000E+02 -0.32687E+05
 0.40570000E+02 -0.27658E+05
 0.40619999E+02 -0.63160E+04
 0.40669998E+02  0.12099E+05
 0.40720001E+02  0.32109E+05
 0.40770000E+02  0.61530E+05
 0.40820000E+02  0.77541E+05
 0.40869999E+02  0.70786E+05
 0.40919998E+02  0.43969E+05
 0.40970001E+02  0.56290E+04
 0.41020000E+02 -0.18359E+05
 0.41070000E+02 -0.32976E+05
 0.41119999E+02 -0.35920E+05
 0.41169998E+02 -0.40709E+05
 0.41220001E+02 -0.73224E+05
 0.41270000E+02 -0.75511E+05
 0.41320000E+02 -0.33510E+05
 0.41369999E+02  0.17711E+05
 0.41419998E+02  0.10121E+06
 0.41470001E+02  0.18872E+06
 0.41520000E+02  0.19324E+06
 0.41570000E+02  0.12845E+06
 0.41619999E+02  0.58607E+05
 0.41669998E+02  0.26447E+05
 0.41720001E+02  0.71834E+05
 0.41770000E+02  0.12932E+06
 0.41820000E+02  0.11284E+06
 0.41869999E+02  0.72402E+05
 0.41919998E+02  0.26491E+05
 0.41970001E+02 -0.36409E+05
 0.42020000E+02 -0.43318E+05
 0.42070000E+02 -0.13292E+05
 0.42119999E+02 -0.82250E+04
 0.42169998E+02 -0.36900E+03
 0.42220001E+02  0.12791E+05
 0.42270000E+02 -0.76920E+04
 0.42320000E+02 -0.25087E+05
 0.42369999E+02 -0.73910E+04
 0.42419998E+02 -0.10877E+05
 0.42470001E+02 -0.24963E+05
 0.42520000E+02  0.50000E+04
 0.42570000E+02  0.36970E+05
 0.42619999E+02  0.98020E+04
 0.42669998E+02 -0.81360E+05
 0.42720001E+02 -0.20528E+06
 0.42770000E+02 -0.28909E+06
 0.42820000E+02 -0.30378E+06
 0.42869999E+02 -0.27059E+06
 0.42919998E+02 -0.17460E+06
 0.42970001E+02 -0.63550E+05
 0.43020000E+02 -0.21879E+05
 0.43070000E+02 -0.19288E+05
 0.43119999E+02 -0.22580E+05
 0.43169998E+02 -0.36608E+05
 0.43220001E+02 -0.39280E+05
 0.43270000E+02 -0.29485E+05
 0.43320000E+02 -0.37922E+05
 0.43369999E+02 -0.83293E+05
 0.43419998E+02 -0.14700E+06
 0.43470001E+02 -0.24407E+06
 0.43520000E+02 -0.35385E+06
 0.43570000E+02 -0.39528E+06
 0.43619999E+02 -0.36810E+06
 0.43669998E+02 -0.32839E+06
 0.43720001E+02 -0.29369E+06
 0.43770000E+02 -0.23104E+06
 0.43820000E+02 -0.11954E+06
 0.43869999E+02  0.63100E+03
 0.43919998E+02  0.96011E+05
 0.43970001E+02  0.18070E+06
 0.44020000E+02  0.21003E+06
 0.44070000E+02  0.15611E+06
 0.44119999E+02  0.11117E+06
 0.44169998E+02  0.15233E+06
 0.44220001E+02  0.24148E+06
 0.44270000E+02  0.28062E+06
 0.44320000E+02  0.24818E+06
 0.44369999E+02  0.20060E+06
 0.44419998E+02  0.16536E+06
 0.44470001E+02  0.10871E+06
 0.44520000E+02  0.32396E+05
 0.44570000E+02 -0.11780E+04
 0.44619999E+02  0.45340E+04
 0.44669998E+02  0.34697E+05
 0.44720001E+02  0.83261E+05
 0.44770000E+02  0.73645E+05
 0.44820000E+02 -0.11698E+05
 0.44869999E+02 -0.91145E+05
 0.44919998E+02 -0.10943E+06
 0.44970001E+02 -0.50959E+05
 0.45020000E+02  0.52519E+05
 0.45070000E+02  0.17749E+06
 0.45119999E+02  0.34574E+06
 0.45169998E+02  0.44393E+06
 0.45220001E+02  0.37831E+06
 0.45270000E+02  0.22291E+06
 0.45320000E+02  0.38799E+05
 0.45369999E+02 -0.51652E+05
 0.45419998E+02  0.20572E+05
 0.45470001E+02  0.13140E+06
 0.45520000E+02  0.18748E+06
 0.45570000E+02  0.16638E+06
 0.45619999E+02  0.87649E+05
 0.45669998E+02  0.38650E+04
 0.45720001E+02 -0.52232E+05
 0.45770000E+02 -0.30991E+05
 0.45820000E+02  0.36555E+05
 0.45869999E+02  0.13784E+05
 0.45919998E+02 -0.13074E+06
 0.45970001E+02 -0.32705E+06
 0.46020000E+02 -0.50147E+06
 0.46070000E+02 -0.60054E+06
 0.46119999E+02 -0.59972E+06
 0.46169998E+02 -0.47606E+06
 0.46220001E+02 -0.27042E+06
 0.46270000E+02 -0.92888E+05
 0.46320000E+02  0.81310E+04
 0.46369999E+02  0.22890E+05
 0.46419998E+02 -0.65856E+05
 0.46470001E+02 -0.16318E+06
 0.46520000E+02 -0.18812E+06
 0.46570000E+02 -0.16361E+06
 0.46619999E+02 -0.75577E+05
 0.46669998E+02  0.61901E+05
 0.46720001E+02  0.21167E+06
 0.46770000E+02  0.36812E+06
 0.46820000E+02  0.49675E+06
 0.46869999E+02  0.57034E+06
 0.46919998E+02  0.60575E+06
 0.46970001E+02  0.67515E+06
 0.47020000E+02  0.82883E+06
 0.47070000E+02  0.99364E+06
 0.47119999E+02  0.10122E+07
 0.47169998E+02  0.83851E+06
 0.47220001E+02  0.59793E+06
 0.47270000E+02  0.40343E+06
 0.47320000E+02  0.28620E+06
 0.47369999E+02  0.21182E+06
 0.47419998E+02  0.14933E+06
 0.47470001E+02  0.67833E+05
 0.47520000E+02 -0.46080E+05
 0.47570000E+02 -0.14912E+06
 0.47619999E+02 -0.19381E+06
 0.47669998E+02 -0.16124E+06
 0.47720001E+02 -0.11450E+06
 0.47770000E+02 -0.13556E+06
 0.47820000E+02 -0.25518E+06
 0.47869999E+02 -0.40545E+06
 0.47919998E+02 -0.49199E+06
 0.47970001E+02 -0.48042E+06
 0.48020000E+02 -0.40817E+06
 0.48070000E+02 -0.36120E+06
 0.48119999E+02 -0.36158E+06
 0.48169998E+02 -0.40631E+06
 0.48220001E+02 -0.45003E+06
 0.48270000E+02 -0.44499E+06
 0.48320000E+02 -0.38747E+06
 0.48369999E+02 -0.21224E+06
 0.48419998E+02  0.10905E+06
 0.48470001E+02  0.48391E+06
 0.48520000E+02  0.77568E+06
 0.48570000E+02  0.92927E+06
 0.48619999E+02  0.99359E+06
 0.48669998E+02  0.10063E+07
 0.48720001E+02  0.99434E+06
 0.48770000E+02  0.94732E+06
 0.48820000E+02  0.78787E+06
 0.48869999E+02  0.52609E+06
 0.48919998E+02  0.26484E+06
 0.48970001E+02  0.35667E+05
 0.49020000E+02 -0.14980E+06
 0.49070000E+02 -0.25599E+06
 0.49119999E+02 -0.34374E+06
 0.49169998E+02 -0.46514E+06
 0.49220001E+02 -0.57005E+06
 0.49270000E+02 -0.59623E+06
 0.49320000E+02 -0.53330E+06
 0.49369999E+02 -0.45737E+06
 0.49419998E+02 -0.42735E+06
 0.49470001E+02 -0.40851E+06
 0.49520000E+02 -0.32383E+06
 0.49570000E+02 -0.14524E+06
 0.49619999E+02  0.66040E+05
 0.49669998E+02  0.23408E+06
 0.49720001E+02  0.28028E+06
 0.49770000E+02  0.19167E+06
 0.49820000E+02  0.85657E+05
 0.49869999E+02  0.48065E+05
 0.49919998E+02  0.72927E+05
 0.49970001E+02  0.13154E+06
 0.50020000E+02  0.16958E+06
 0.50070000E+02  0.16798E+06
 0.50119999E+02  0.15209E+06
 0.50169998E+02  0.13005E+06
 0.50220001E+02  0.90568E+05
 0.50270000E+02 -0.11913E+05
 0.50320000E+02 -0.17516E+06
 0.50369999E+02 -0.33383E+06
 0.50419998E+02 -0.44227E+06
 0.50470001E+02 -0.48018E+06
 0.50520000E+02 -0.45027E+06
 0.50570000E+02 -0.34896E+06
 0.50619999E+02 -0.19982E+06
 0.50669998E+02 -0.72984E+05
 0.50720001E+02 -0.46690E+04
 0.50770000E+02  0.31620E+05
 0.50820000E+02  0.45069E+05
 0.50869999E+02  0.20553E+05
 0.50919998E+02 -0.22771E+05
 0.50970001E+02 -0.84718E+05
 0.51020000E+02 -0.16298E+06
 0.51070000E+02 -0.23633E+06
 0.51119999E+02 -0.33151E+06
 0.51169998E+02 -0.44133E+06
 0.51220001E+02 -0.49904E+06
 0.51270000E+02 -0.49144E+06
 0.51320000E+02 -0.43941E+06
 0.51369999E+02 -0.36988E+06
 0.51419998E+02 -0.31789E+06
 0.51470001E+02 -0.26946E+06
 0.51520000E+02 -0.21300E+06
 0.51570000E+02 -0.17561E+06
 0.51619999E+02 -0.15600E+06
 0.51669998E+02 -0.12608E+06
 0.51720001E+02 -0.86477E+05
 0.51770000E+02 -0.51235E+05
 0.51820000E+02 -0.22334E+05
 0.51869999E+02 -0.17211E+05
 0.51919998E+02 -0.24888E+05
 0.51970001E+02 -0.43910E+04
 0.52020000E+02  0.32099E+05
 0.52070000E+02  0.60036E+05
 0.52119999E+02  0.83260E+05
 0.52169998E+02  0.94686E+05
 0.52220001E+02  0.80710E+05
 0.52270000E+02  0.55204E+05
 0.52320000E+02  0.49582E+05
 0.52369999E+02  0.79349E+05
 0.52419998E+02  0.14467E+06
 0.52470001E+02  0.23587E+06
 0.52520000E+02  0.32516E+06
 0.52570000E+02  0.35742E+06
 0.52619999E+02  0.30657E+06
 0.52669998E+02  0.18898E+06
 0.52720001E+02  0.53177E+05
 0.52770000E+02 -0.30232E+05
 0.52820000E+02 -0.43141E+05
 0.52869999E+02  0.61270E+04
 0.52919998E+02  0.76531E+05
 0.52970001E+02  0.12828E+06
 0.53020000E+02  0.16539E+06
 0.53070000E+02  0.17436E+06
 0.53119999E+02  0.14916E+06
 0.53169998E+02  0.88830E+05
 0.53220001E+02  0.73830E+04
 0.53270000E+02 -0.63042E+05
 0.53320000E+02 -0.95891E+05
 0.53369999E+02 -0.70691E+05
 0.53419998E+02  0.56230E+04
 0.53470001E+02  0.10082E+06
 0.53520000E+02  0.15908E+06
 0.53570000E+02  0.15383E+06
 0.53619999E+02  0.13065E+06
 0.53669998E+02  0.12003E+06
 0.53720001E+02  0.78704E+05
 0.53770000E+02 -0.20372E+05
 0.53820000E+02 -0.14740E+06
 0.53869999E+02 -0.24121E+06
 0.53919998E+02 -0.25461E+06
 0.53970001E+02 -0.21275E+06
 0.54020000E+02 -0.16164E+06
 0.54070000E+02 -0.12011E+06
 0.54119999E+02 -0.91165E+05
 0.54169998E+02 -0.78601E+05
 0.54220001E+02 -0.82088E+05
 0.54270000E+02 -0.85084E+05
 0.54320000E+02 -0.99896E+05
 0.54369999E+02 -0.14849E+06
 0.54419998E+02 -0.19693E+06
 0.54470001E+02 -0.21738E+06
 0.54520000E+02 -0.20553E+06
 0.54570000E+02 -0.17024E+06
 0.54619999E+02 -0.16729E+06
 0.54669998E+02 -0.19674E+06
 0.54720001E+02 -0.20645E+06
 0.54770000E+02 -0.19294E+06
 0.54820000E+02 -0.17423E+06
 0.54869999E+02 -0.17777E+06
 0.54919998E+02 -0.21966E+06
 0.54970001E+02 -0.28122E+06
 0.55020000E+02 -0.35789E+06
 0.55070000E+02 -0.41796E+06
 0.55119999E+02 -0.40313E+06
 0.55169998E+02 -0.33916E+06
 0.55220001E+02 -0.27250E+06
 0.55270000E+02 -0.21483E+06
 0.55320000E+02 -0.17813E+06
 0.55369999E+02 -0.15565E+06
 0.55419998E+02 -0.12455E+06
 0.55470001E+02 -0.89867E+05
 0.55520000E+02 -0.81075E+05
 0.55570000E+02 -0.91855E+05
 0.55619999E+02 -0.11550E+06
 0.55669998E+02 -0.14176E+06
 0.55720001E+02 -0.14271E+06
 0.55770000E+02 -0.14889E+06
 0.55820000E+02 -0.19113E+06
 0.55869999E+02 -0.23705E+06
 0.55919998E+02 -0.27744E+06
 0.55970001E+02 -0.33091E+06
 0.56020000E+02 -0.38522E+06
 0.56070000E+02 -0.41750E+06
 0.56119999E+02 -0.39801E+06
 0.56169998E+02 -0.34605E+06
 0.56220001E+02 -0.29415E+06
 0.56270000E+02 -0.23059E+06
 0.56320000E+02 -0.17145E+06
 0.56369999E+02 -0.12831E+06
 0.56419998E+02 -0.12104E+06
 0.56470001E+02 -0.17949E+06
 0.56520000E+02 -0.26162E+06
 0.56570000E+02 -0.30156E+06
 0.56619999E+02 -0.29414E+06
 0.56669998E+02 -0.26368E+06
 0.56720001E+02 -0.24082E+06
 0.56770000E+02 -0.24004E+06
 0.56820000E+02 -0.22952E+06
 0.56869999E+02 -0.20100E+06
 0.56919998E+02 -0.13352E+06
 0.56970001E+02 -0.19040E+05
 0.57020000E+02  0.85615E+05
 0.57070000E+02  0.18768E+06
 0.57119999E+02  0.31909E+06
 0.57169998E+02  0.45133E+06
 0.57220001E+02  0.56200E+06
 0.57270000E+02  0.63509E+06
 0.57320000E+02  0.65046E+06
 0.57369999E+02  0.60868E+06
 0.57419998E+02  0.52018E+06
 0.57470001E+02  0.41811E+06
 0.57520000E+02  0.34040E+06
 0.57570000E+02  0.30438E+06
 0.57619999E+02  0.32109E+06
 0.57669998E+02  0.36829E+06
 0.57720001E+02  0.38664E+06
 0.57770000E+02  0.36073E+06
 0.57820000E+02  0.30894E+06
 0.57869999E+02  0.23573E+06
 0.57919998E+02  0.15080E+06
 0.57970001E+02  0.48068E+05
 0.58020000E+02 -0.77841E+05
 0.58070000E+02 -0.20992E+06
 0.58119999E+02 -0.30448E+06
 0.58169998E+02 -0.32212E+06
 0.58220001E+02 -0.28237E+06
 0.58270000E+02 -0.21202E+06
 0.58320000E+02 -0.13840E+06
 0.58369999E+02 -0.88167E+05
 0.58419998E+02 -0.43763E+05
 0.58470001E+02  0.89880E+04
 0.58520000E+02  0.74807E+05
 0.58570000E+02  0.16427E+06
 0.58619999E+02  0.26206E+06
 0.58669998E+02  0.33595E+06
 0.58720001E+02  0.37061E+06
 0.58770000E+02  0.37224E+06
 0.58820000E+02  0.35491E+06
 0.58869999E+02  0.34505E+06
 0.58919998E+02  0.34047E+06
 0.58970001E+02  0.29930E+06
 0.59020000E+02  0.21412E+06
 0.59070000E+02  0.11489E+06
 0.59119999E+02  0.20011E+05
 0.59169998E+02 -0.73285E+05
 0.59220001E+02 -0.16697E+06
 0.59270000E+02 -0.25245E+06
 0.59320000E+02 -0.31248E+06
 0.59369999E+02 -0.33444E+06
 0.59419998E+02 -0.33230E+06
 0.59470001E+02 -0.30986E+06
 0.59520000E+02 -0.26024E+06
 0.59570000E+02 -0.19048E+06
 0.59619999E+02 -0.80459E+05
 0.59669998E+02  0.56191E+05
 0.59720001E+02  0.16907E+06
 0.59770000E+02  0.26023E+06
 0.59820000E+02  0.30865E+06
 0.59869999E+02  0.32749E+06
 0.59919998E+02  0.36986E+06
 0.59970001E+02  0.40242E+06
 0.60020000E+02  0.39489E+06
 0.60070000E+02  0.34280E+06
 0.60119999E+02  0.27814E+06
 0.60170002E+02  0.24656E+06
 0.60219997E+02  0.23348E+06
 0.60270000E+02  0.21416E+06
 0.60320004E+02  0.17538E+06
 0.60369999E+02  0.11058E+06
 0.60420002E+02  0.20633E+05
 0.60469997E+02 -0.69041E+05
 0.60520000E+02 -0.12738E+06
 0.60570004E+02 -0.13619E+06
 0.60619999E+02 -0.87659E+05
 0.60670002E+02  0.21810E+04
 0.60719997E+02  0.10330E+06
 0.60770000E+02  0.17796E+06
 0.60820004E+02  0.20925E+06
 0.60869999E+02  0.21968E+06
 0.60920002E+02  0.21954E+06
 0.60969997E+02  0.19228E+06
 0.61020000E+02  0.15124E+06
 0.61070004E+02  0.13112E+06
 0.61119999E+02  0.12994E+06
 0.61170002E+02  0.13159E+06
 0.61219997E+02  0.13341E+06
 0.61270000E+02  0.10930E+06
 0.61320004E+02  0.38549E+05
 0.61369999E+02 -0.56964E+05
 0.61420002E+02 -0.15251E+06
 0.61469997E+02 -0.24481E+06
 0.61520000E+02 -0.32260E+06
 0.61570004E+02 -0.35027E+06
 0.61619999E+02 -0.30721E+06
 0.61670002E+02 -0.20932E+06
 0.61719997E+02 -0.94442E+05
 0.61770000E+02  0.34240E+04
 0.61820004E+02  0.84092E+05
 0.61869999E+02  0.16611E+06
 0.61920002E+02  0.22126E+06
 0.61969997E+02  0.22838E+06
 0.62020000E+02  0.21788E+06
 0.62070004E+02  0.19217E+06
 0.62119999E+02  0.15715E+06
 0.62170002E+02  0.12385E+06
 0.62219997E+02  0.99685E+05
 0.62270000E+02  0.10067E+06
 0.62320004E+02  0.10783E+06
 0.62369999E+02  0.10159E+06
 0.62420002E+02  0.64987E+05
 0.62469997E+02  0.14226E+05
 0.62520000E+02 -0.11109E+05
 0.62570004E+02 -0.23611E+05
 0.62619999E+02 -0.45510E+05
 0.62670002E+02 -0.75879E+05
 0.62719997E+02 -0.10775E+06
 0.62770000E+02 -0.14168E+06
 0.62820004E+02 -0.15639E+06
 0.62869999E+02 -0.13007E+06
 0.62920002E+02 -0.85164E+05
 0.62969997E+02 -0.56630E+05
 0.63020000E+02 -0.55650E+05
 0.63070004E+02 -0.53155E+05
 0.63119999E+02 -0.39960E+05
 0.63170002E+02 -0.43547E+05
 0.63219997E+02 -0.71276E+05
 0.63270000E+02 -0.97935E+05
 0.63320004E+02 -0.11684E+06
 0.63369999E+02 -0.15586E+06
 0.63420002E+02 -0.22679E+06
 0.63469997E+02 -0.32076E+06
 0.63520000E+02 -0.39729E+06
 0.63570004E+02 -0.43043E+06
 0.63619999E+02 -0.44539E+06
 0.63670002E+02 -0.46133E+06
 0.63719997E+02 -0.49010E+06
 0.63770000E+02 -0.54136E+06
 0.63820004E+02 -0.59366E+06
 0.63869999E+02 -0.60674E+06
 0.63920002E+02 -0.56125E+06
 0.63969997E+02 -0.45006E+06
 0.64020004E+02 -0.30089E+06
 0.64070007E+02 -0.18521E+06
 0.64120003E+02 -0.12044E+06
 0.64170006E+02 -0.66184E+05
 0.64220001E+02  0.35520E+04
 0.64270004E+02  0.81232E+05
 0.64320007E+02  0.14321E+06
 0.64370003E+02  0.19195E+06
 0.64420006E+02  0.22440E+06
 0.64470001E+02  0.22207E+06
 0.64520004E+02  0.21101E+06
 0.64570007E+02  0.21196E+06
 0.64620003E+02  0.20613E+06
 0.64670006E+02  0.17796E+06
 0.64720001E+02  0.13884E+06
 0.64770004E+02  0.12118E+06
 0.64820007E+02  0.12226E+06
 0.64870003E+02  0.11088E+06
 0.64920006E+02  0.87872E+05
 0.64970001E+02  0.82267E+05
 0.65020004E+02  0.10943E+06
 0.65070007E+02  0.15470E+06
 0.65120003E+02  0.16421E+06
 0.65170006E+02  0.96826E+05
 0.65220001E+02 -0.11707E+05
 0.65270004E+02 -0.11581E+06
 0.65320007E+02 -0.20633E+06
 0.65370003E+02 -0.28832E+06
 0.65420006E+02 -0.34884E+06
 0.65470001E+02 -0.35262E+06
 0.65520004E+02 -0.30467E+06
 0.65570007E+02 -0.23108E+06
 0.65620003E+02 -0.12745E+06
 0.65670006E+02  0.88420E+04
 0.65720001E+02  0.16745E+06
 0.65770004E+02  0.31991E+06
 0.65820007E+02  0.44894E+06
 0.65870003E+02  0.56786E+06
 0.65920006E+02  0.65997E+06
 0.65970001E+02  0.68774E+06
 0.66020004E+02  0.65689E+06
 0.66070007E+02  0.60804E+06
 0.66120003E+02  0.57285E+06
 0.66170006E+02  0.58817E+06
 0.66220001E+02  0.64955E+06
 0.66270004E+02  0.71538E+06
 0.66320007E+02  0.76503E+06
 0.66370003E+02  0.79002E+06
 0.66420006E+02  0.80448E+06
 0.66470001E+02  0.79371E+06
 0.66520004E+02  0.73910E+06
 0.66570007E+02  0.63940E+06
 0.66620003E+02  0.49049E+06
 0.66670006E+02  0.32142E+06
 0.66720001E+02  0.15279E+06
 0.66770004E+02 -0.10416E+05
 0.66820007E+02 -0.17048E+06
 0.66870003E+02 -0.32962E+06
 0.66920006E+02 -0.45318E+06
 0.66970001E+02 -0.50005E+06
 0.67020004E+02 -0.48085E+06
 0.67070007E+02 -0.43033E+06
 0.67120003E+02 -0.33017E+06
 0.67170006E+02 -0.15103E+06
 0.67220001E+02  0.74666E+05
 0.67270004E+02  0.27856E+06
 0.67320007E+02  0.41099E+06
 0.67370003E+02  0.49067E+06
 0.67420006E+02  0.56739E+06
 0.67470001E+02  0.63452E+06
 0.67520004E+02  0.66932E+06
 0.67570007E+02  0.69103E+06
 0.67620003E+02  0.71042E+06
 0.67670006E+02  0.71151E+06
 0.67720001E+02  0.67855E+06
 0.67770004E+02  0.60913E+06
 0.67820007E+02  0.52517E+06
 0.67870003E+02  0.44305E+06
 0.67920006E+02  0.38359E+06
 0.67970001E+02  0.35011E+06
 0.68020004E+02  0.32309E+06
 0.68070007E+02  0.30553E+06
 0.68120003E+02  0.27146E+06
 0.68170006E+02  0.21679E+06
 0.68220001E+02  0.15720E+06
 0.68270004E+02  0.69712E+05
 0.68320007E+02 -0.49192E+05
 0.68370003E+02 -0.15498E+06
 0.68420006E+02 -0.18030E+06
 0.68470001E+02 -0.12309E+06
 0.68520004E+02 -0.40461E+05
 0.68570007E+02  0.72430E+04
 0.68620003E+02  0.18806E+05
 0.68670006E+02  0.49238E+05
 0.68720001E+02  0.94582E+05
 0.68770004E+02  0.12701E+06
 0.68820007E+02  0.13264E+06
 0.68870003E+02  0.93832E+05
 0.68920006E+02  0.37240E+04
 0.68970001E+02 -0.14040E+06
 0.69020004E+02 -0.31507E+06
 0.69070007E+02 -0.47159E+06
 0.69120003E+02 -0.57591E+06
 0.69170006E+02 -0.61928E+06
 0.69220001E+02 -0.60309E+06
 0.69270004E+02 -0.54974E+06
 0.69320007E+02 -0.49493E+06
 0.69370003E+02 -0.46753E+06
 0.69420006E+02 -0.46645E+06
 0.69470001E+02 -0.44498E+06
 0.69520004E+02 -0.38590E+06
 0.69570007E+02 -0.33087E+06
 0.69620003E+02 -0.32372E+06
 0.69670006E+02 -0.36838E+06
 0.69720001E+02 -0.43538E+06
 0.69770004E+02 -0.50224E+06
 0.69820007E+02 -0.55116E+06
 0.69870003E+02 -0.57147E+06
 0.69920006E+02 -0.57704E+06
 0.69970001E+02 -0.58774E+06
 0.70020004E+02 -0.60757E+06
 0.70070007E+02 -0.62974E+06
 0.70120003E+02 -0.63998E+06
 0.70170006E+02 -0.61322E+06
 0.70220001E+02 -0.55215E+06
 0.70270004E+02 -0.47055E+06
 0.70320007E+02 -0.36715E+06
 0.70370003E+02 -0.26762E+06
 0.70420006E+02 -0.19119E+06
 0.70470001E+02 -0.13784E+06
 0.70520004E+02 -0.11708E+06
 0.70570007E+02 -0.12347E+06
 0.70620003E+02 -0.15518E+06
 0.70670006E+02 -0.22575E+06
 0.70720001E+02 -0.34000E+06
 0.70770004E+02 -0.50365E+06
 0.70820007E+02 -0.70394E+06
 0.70870003E+02 -0.88150E+06
 0.70920006E+02 -0.98132E+06
 0.70970001E+02 -0.10006E+07
 0.71020004E+02 -0.95544E+06
 0.71070007E+02 -0.86713E+06
 0.71120003E+02 -0.75784E+06
 0.71170006E+02 -0.63006E+06
 0.71220001E+02 -0.50236E+06
 0.71270004E+02 -0.38481E+06
 0.71320007E+02 -0.24260E+06
 0.71370003E+02 -0.59353E+05
 0.71420006E+02  0.14021E+06
 0.71470001E+02  0.30925E+06
 0.71520004E+02  0.40605E+06
 0.71570007E+02  0.43702E+06
 0.71620003E+02  0.45436E+06
 0.71670006E+02  0.50844E+06
 0.71720001E+02  0.59535E+06
 0.71770004E+02  0.67654E+06
 0.71820007E+02  0.72021E+06
 0.71870003E+02  0.70958E+06
 0.71920006E+02  0.64611E+06
 0.71970001E+02  0.53479E+06
 0.72020004E+02  0.39286E+06
 0.72070007E+02  0.25042E+06
 0.72120003E+02  0.12613E+06
 0.72170006E+02  0.24192E+05
 0.72220001E+02 -0.52596E+05
 0.72270004E+02 -0.10988E+06
 0.72320007E+02 -0.17088E+06
 0.72370003E+02 -0.22995E+06
 0.72420006E+02 -0.26538E+06
 0.72470001E+02 -0.29713E+06
 0.72520004E+02 -0.32720E+06
 0.72570007E+02 -0.32428E+06
 0.72620003E+02 -0.30237E+06
 0.72670006E+02 -0.30822E+06
 0.72720001E+02 -0.36804E+06
 0.72770004E+02 -0.46414E+06
 0.72820007E+02 -0.55195E+06
 0.72870003E+02 -0.59227E+06
 0.72920006E+02 -0.57577E+06
 0.72970001E+02 -0.52458E+06
 0.73020004E+02 -0.45663E+06
 0.73070007E+02 -0.39867E+06
 0.73120003E+02 -0.37270E+06
 0.73170006E+02 -0.35429E+06
 0.73220001E+02 -0.30472E+06
 0.73270004E+02 -0.21662E+06
 0.73320007E+02 -0.12038E+06
 0.73370003E+02 -0.37162E+05
 0.73420006E+02  0.43000E+05
 0.73470001E+02  0.12464E+06
 0.73520004E+02  0.17770E+06
 0.73570007E+02  0.16332E+06
 0.73620003E+02  0.85472E+05
 0.73670006E+02 -0.10207E+05
 0.73720001E+02 -0.92472E+05
 0.73770004E+02 -0.18843E+06
 0.73820007E+02 -0.33834E+06
 0.73870003E+02 -0.52483E+06
 0.73920006E+02 -0.67646E+06
 0.73970001E+02 -0.72490E+06
 0.74020004E+02 -0.64903E+06
 0.74070007E+02 -0.47718E+06
 0.74120003E+02 -0.25414E+06
 0.74170006E+02 -0.14747E+05
 0.74220001E+02  0.21089E+06
 0.74270004E+02  0.40496E+06
 0.74320007E+02  0.57053E+06
 0.74370003E+02  0.71975E+06
 0.74420006E+02  0.84033E+06
 0.74470001E+02  0.90445E+06
 0.74520004E+02  0.90984E+06
 0.74570007E+02  0.86936E+06
 0.74620003E+02  0.79410E+06
 0.74670006E+02  0.69135E+06
 0.74720001E+02  0.57182E+06
 0.74770004E+02  0.45270E+06
 0.74820007E+02  0.34937E+06
 0.74870003E+02  0.26901E+06
 0.74920006E+02  0.21174E+06
 0.74970001E+02  0.19454E+06
 0.75020004E+02  0.25432E+06
 0.75070007E+02  0.39331E+06
 0.75120003E+02  0.57260E+06
 0.75170006E+02  0.75720E+06
 0.75220001E+02  0.92075E+06
 0.75270004E+02  0.10426E+07
 0.75320007E+02  0.11129E+07
 0.75370003E+02  0.11354E+07
 0.75420006E+02  0.11197E+07
 0.75470001E+02  0.10790E+07
 0.75520004E+02  0.10285E+07
 0.75570007E+02  0.97674E+06
 0.75620003E+02  0.91924E+06
 0.75670006E+02  0.83681E+06
 0.75720001E+02  0.73731E+06
 0.75770004E+02  0.66960E+06
 0.75820007E+02  0.67228E+06
 0.75870003E+02  0.73400E+06
 0.75920006E+02  0.80803E+06
 0.75970001E+02  0.85854E+06
 0.76020004E+02  0.86164E+06
 0.76070007E+02  0.80968E+06
 0.76120003E+02  0.72137E+06
 0.76170006E+02  0.60643E+06
 0.76220001E+02  0.47134E+06
 0.76270004E+02  0.33945E+06
 0.76320007E+02  0.23628E+06
 0.76370003E+02  0.16274E+06
 0.76420006E+02  0.11186E+06
 0.76470001E+02  0.93309E+05
 0.76520004E+02  0.96167E+05
 0.76570007E+02  0.97753E+05
 0.76620003E+02  0.79885E+05
 0.76670006E+02  0.44833E+05
 0.76720001E+02  0.31145E+05
 0.76770004E+02  0.41466E+05
 0.76820007E+02  0.22516E+05
 0.76870003E+02 -0.79455E+05
 0.76920006E+02 -0.26172E+06
 0.76970001E+02 -0.46971E+06
 0.77020004E+02 -0.66522E+06
 0.77070007E+02 -0.81628E+06
 0.77120003E+02 -0.87835E+06
 0.77170006E+02 -0.81754E+06
 0.77220001E+02 -0.63296E+06
 0.77270004E+02 -0.38532E+06
 0.77320007E+02 -0.15679E+06
 0.77370003E+02  0.10042E+05
 0.77420006E+02  0.12438E+06
 0.77470001E+02  0.22040E+06
 0.77520004E+02  0.32096E+06
 0.77570007E+02  0.42402E+06
 0.77620003E+02  0.50277E+06
 0.77670006E+02  0.52240E+06
 0.77720001E+02  0.45822E+06
 0.77770004E+02  0.30340E+06
 0.77820007E+02  0.57180E+05
 0.77870003E+02 -0.26343E+06
 0.77920006E+02 -0.59565E+06
 0.77970001E+02 -0.85791E+06
 0.78020004E+02 -0.10052E+07
 0.78070007E+02 -0.10515E+07
 0.78120003E+02 -0.10439E+07
 0.78170006E+02 -0.10130E+07
 0.78220001E+02 -0.96166E+06
 0.78270004E+02 -0.90269E+06
 0.78320007E+02 -0.85414E+06
 0.78370003E+02 -0.82708E+06
 0.78420006E+02 -0.82857E+06
 0.78470001E+02 -0.84884E+06
 0.78520004E+02 -0.87252E+06
 0.78570007E+02 -0.88875E+06
 0.78620003E+02 -0.87816E+06
 0.78670006E+02 -0.82452E+06
 0.78720001E+02 -0.73673E+06
 0.78770004E+02 -0.62761E+06
 0.78820007E+02 -0.50080E+06
 0.78870003E+02 -0.35724E+06
 0.78920006E+02 -0.19416E+06
 0.78970001E+02 -0.16377E+05
 0.79020004E+02  0.14859E+06
 0.79070007E+02  0.26510E+06
 0.79120003E+02  0.32518E+06
 0.79170006E+02  0.35221E+06
 0.79220001E+02  0.37412E+06
 0.79270004E+02  0.39489E+06
 0.79320007E+02  0.40688E+06
 0.79370003E+02  0.41996E+06
 0.79420006E+02  0.45107E+06
 0.79470001E+02  0.50246E+06
 0.79520004E+02  0.55520E+06
 0.79570007E+02  0.58477E+06
 0.79620003E+02  0.57784E+06
 0.79670006E+02  0.54130E+06
 0.79720001E+02  0.49928E+06
 0.79770004E+02  0.46493E+06
 0.79820007E+02  0.42144E+06
 0.79870003E+02  0.34954E+06
 0.79920006E+02  0.25016E+06
 0.79970001E+02  0.13888E+06
 0.80020004E+02  0.44674E+05
 0.80070007E+02 -0.11897E+05
 0.80120003E+02 -0.24557E+05
 0.80170006E+02  0.55090E+04
 0.80220001E+02  0.50769E+05
 0.80270004E+02  0.64144E+05
 0.80320007E+02  0.10438E+05
 0.80370003E+02 -0.11042E+06
 0.80420006E+02 -0.27003E+06
 0.80470001E+02 -0.44436E+06
 0.80520004E+02 -0.61508E+06
 0.80570007E+02 -0.74955E+06
 0.80620003E+02 -0.82018E+06
 0.80670006E+02 -0.83930E+06
 0.80720001E+02 -0.85114E+06
 0.80770004E+02 -0.88897E+06
 0.80820007E+02 -0.95887E+06
 0.80870003E+02 -0.10531E+07
 0.80920006E+02 -0.11541E+07
 0.80970001E+02 -0.12400E+07
 0.81020004E+02 -0.12899E+07
 0.81070007E+02 -0.12839E+07
 0.81120003E+02 -0.12194E+07
 0.81170006E+02 -0.11280E+07
 0.81220001E+02 -0.10548E+07
 0.81270004E+02 -0.10152E+07
 0.81320007E+02 -0.98137E+06
 0.81370003E+02 -0.90926E+06
 0.81420006E+02 -0.77125E+06
 0.81470001E+02 -0.57199E+06
 0.81520004E+02 -0.34450E+06
 0.81570007E+02 -0.13356E+06
 0.81620003E+02  0.22505E+05
 0.81670006E+02  0.10809E+06
 0.81720001E+02  0.14278E+06
 0.81770004E+02  0.16467E+06
 0.81820007E+02  0.20124E+06
 0.81870003E+02  0.25688E+06
 0.81920006E+02  0.31752E+06
 0.81970001E+02  0.36798E+06
 0.82020004E+02  0.39917E+06
 0.82070007E+02  0.39371E+06
 0.82120003E+02  0.33830E+06
 0.82170006E+02  0.24867E+06
 0.82220001E+02  0.15777E+06
 0.82270004E+02  0.10860E+06
 0.82320007E+02  0.12437E+06
 0.82370003E+02  0.17980E+06
 0.82420006E+02  0.24052E+06
 0.82470001E+02  0.29109E+06
 0.82520004E+02  0.32235E+06
 0.82570007E+02  0.32120E+06
 0.82620003E+02  0.28259E+06
 0.82670006E+02  0.23003E+06
 0.82720001E+02  0.20549E+06
 0.82770004E+02  0.24282E+06
 0.82820007E+02  0.35008E+06
 0.82870003E+02  0.50535E+06
 0.82920006E+02  0.66964E+06
 0.82970001E+02  0.81005E+06
 0.83020004E+02  0.91228E+06
 0.83070007E+02  0.96359E+06
 0.83120003E+02  0.94772E+06
 0.83170006E+02  0.87013E+06
 0.83220001E+02  0.75560E+06
 0.83270004E+02  0.62628E+06
 0.83320007E+02  0.48562E+06
 0.83370003E+02  0.31956E+06
 0.83420006E+02  0.13018E+06
 0.83470001E+02 -0.61483E+05
 0.83520004E+02 -0.23302E+06
 0.83570007E+02 -0.35874E+06
 0.83620003E+02 -0.42082E+06
 0.83670006E+02 -0.41510E+06
 0.83720001E+02 -0.35768E+06
 0.83770004E+02 -0.28463E+06
 0.83820007E+02 -0.22444E+06
 0.83870003E+02 -0.18448E+06
 0.83920006E+02 -0.15237E+06
 0.83970001E+02 -0.11188E+06
 0.84020004E+02 -0.52950E+05
 0.84070007E+02  0.41596E+05
 0.84120003E+02  0.18310E+06
 0.84170006E+02  0.35998E+06
 0.84220001E+02  0.54813E+06
 0.84270004E+02  0.71834E+06
 0.84320007E+02  0.84197E+06
 0.84370003E+02  0.90629E+06
 0.84420006E+02  0.91735E+06
 0.84470001E+02  0.89034E+06
 0.84520004E+02  0.84151E+06
 0.84570007E+02  0.78319E+06
 0.84620003E+02  0.72288E+06
 0.84670006E+02  0.65808E+06
 0.84720001E+02  0.57875E+06
 0.84770004E+02  0.47611E+06
 0.84820007E+02  0.35513E+06
 0.84870003E+02  0.23847E+06
 0.84920006E+02  0.14663E+06
 0.84970001E+02  0.93831E+05
 0.85020004E+02  0.84555E+05
 0.85070007E+02  0.94315E+05
 0.85120003E+02  0.82965E+05
 0.85170006E+02  0.29187E+05
 0.85220001E+02 -0.62840E+05
 0.85270004E+02 -0.17415E+06
 0.85320007E+02 -0.27599E+06
 0.85370003E+02 -0.34000E+06
 0.85420006E+02 -0.35155E+06
 0.85470001E+02 -0.30253E+06
 0.85520004E+02 -0.18099E+06
 0.85570007E+02  0.66390E+04
 0.85620003E+02  0.22098E+06
 0.85670006E+02  0.40875E+06
 0.85720001E+02  0.52858E+06
 0.85770004E+02  0.57329E+06
 0.85820007E+02  0.56909E+06
 0.85870003E+02  0.55281E+06
 0.85920006E+02  0.54459E+06
 0.85970001E+02  0.53934E+06
 0.86020004E+02  0.52563E+06
 0.86070007E+02  0.49068E+06
 0.86120003E+02  0.42104E+06
 0.86170006E+02  0.32074E+06
 0.86220001E+02  0.20968E+06
 0.86270004E+02  0.10477E+06
 0.86320007E+02  0.14519E+05
 0.86370003E+02 -0.57612E+05
 0.86420006E+02 -0.11332E+06
 0.86470001E+02 -0.16189E+06
 0.86520004E+02 -0.21648E+06
 0.86570007E+02 -0.28640E+06
 0.86620003E+02 -0.37384E+06
 0.86670006E+02 -0.47417E+06
 0.86720001E+02 -0.58304E+06
 0.86770004E+02 -0.70369E+06
 0.86820007E+02 -0.84358E+06
 0.86870003E+02 -0.10116E+07
 0.86920006E+02 -0.12093E+07
 0.86970001E+02 -0.14155E+07
 0.87020004E+02 -0.15852E+07
 0.87070007E+02 -0.16703E+07
 0.87120003E+02 -0.16404E+07
 0.87170006E+02 -0.14963E+07
 0.87220001E+02 -0.12739E+07
 0.87270004E+02 -0.10211E+07
 0.87320007E+02 -0.76996E+06
 0.87370003E+02 -0.53925E+06
 0.87420006E+02 -0.34752E+06
 0.87470001E+02 -0.20446E+06
 0.87520004E+02 -0.10664E+06
 0.87570007E+02 -0.49912E+05
 0.87620003E+02 -0.27251E+05
 0.87670006E+02 -0.30437E+05
 0.87720001E+02 -0.57949E+05
 0.87770004E+02 -0.10442E+06
 0.87820007E+02 -0.15065E+06
 0.87870003E+02 -0.18134E+06
 0.87920006E+02 -0.19437E+06
 0.87970001E+02 -0.19245E+06
 0.88020004E+02 -0.18003E+06
 0.88070007E+02 -0.15694E+06
 0.88120003E+02 -0.13082E+06
 0.88170006E+02 -0.12029E+06
 0.88220001E+02 -0.13156E+06
 0.88270004E+02 -0.15685E+06
 0.88320007E+02 -0.18355E+06
 0.88370003E+02 -0.19944E+06
 0.88420006E+02 -0.19928E+06
 0.88470001E+02 -0.18398E+06
 0.88520004E+02 -0.16560E+06
 0.88570007E+02 -0.16589E+06
 0.88620003E+02 -0.19212E+06
 0.88670006E+02 -0.22481E+06
 0.88720001E+02 -0.23491E+06
 0.88770004E+02 -0.20559E+06
 0.88820007E+02 -0.13108E+06
 0.88870003E+02 -0.11161E+05
 0.88920006E+02  0.14053E+06
 0.88970001E+02  0.29703E+06
 0.89020004E+02  0.43101E+06
 0.89070007E+02  0.52501E+06
 0.89120003E+02  0.57029E+06
 0.89170006E+02  0.56569E+06
 0.89220001E+02  0.52486E+06
 0.89270004E+02  0.47256E+06
 0.89320007E+02  0.42970E+06
 0.89370003E+02  0.40610E+06
 0.89420006E+02  0.40091E+06
 0.89470001E+02  0.40644E+06
 0.89520004E+02  0.41957E+06
 0.89570007E+02  0.44332E+06
 0.89620003E+02  0.47581E+06
 0.89670006E+02  0.51417E+06
 0.89720001E+02  0.55510E+06
 0.89770004E+02  0.59436E+06
 0.89820007E+02  0.63303E+06
 0.89870003E+02  0.66345E+06
 0.89920006E+02  0.67345E+06
 0.89970001E+02  0.67017E+06
 0.90020004E+02  0.66913E+06
 0.90070007E+02  0.67835E+06
 0.90120003E+02  0.69627E+06
 0.90170006E+02  0.70923E+06
 0.90220001E+02  0.70178E+06
 0.90270004E+02  0.66616E+06
 0.90320007E+02  0.60434E+06
 0.90370003E+02  0.52743E+06
 0.90420006E+02  0.44338E+06
 0.90470001E+02  0.35111E+06
 0.90520004E+02  0.24869E+06
 0.90570007E+02  0.14480E+06
 0.90620003E+02  0.60745E+05
 0.90670006E+02  0.15541E+05
 0.90720001E+02  0.14478E+05
 0.90770004E+02  0.52767E+05
 0.90820007E+02  0.12106E+06
 0.90870003E+02  0.20556E+06
 0.90920006E+02  0.29204E+06
 0.90970001E+02  0.36476E+06
 0.91020004E+02  0.40245E+06
 0.91070007E+02  0.38873E+06
 0.91120003E+02  0.31560E+06
 0.91170006E+02  0.18687E+06
 0.91220001E+02  0.22977E+05
 0.91270004E+02 -0.15331E+06
 0.91320007E+02 -0.32304E+06
 0.91370003E+02 -0.46350E+06
 0.91420006E+02 -0.55786E+06
 0.91470001E+02 -0.60760E+06
 0.91520004E+02 -0.62714E+06
 0.91570007E+02 -0.62850E+06
 0.91620003E+02 -0.61020E+06
 0.91670006E+02 -0.56408E+06
 0.91720001E+02 -0.48240E+06
 0.91770004E+02 -0.36142E+06
 0.91820007E+02 -0.21087E+06
 0.91870003E+02 -0.55488E+05
 0.91920006E+02  0.80072E+05
 0.91970001E+02  0.18166E+06
 0.92020004E+02  0.24153E+06
 0.92070007E+02  0.25983E+06
 0.92120003E+02  0.24414E+06
 0.92170006E+02  0.20112E+06
 0.92220001E+02  0.13967E+06
 0.92270004E+02  0.76629E+05
 0.92320007E+02  0.22872E+05
 0.92370003E+02 -0.20353E+05
 0.92420006E+02 -0.54805E+05
 0.92470001E+02 -0.95734E+05
 0.92520004E+02 -0.15792E+06
 0.92570007E+02 -0.23757E+06
 0.92620003E+02 -0.32740E+06
 0.92670006E+02 -0.42207E+06
 0.92720001E+02 -0.51606E+06
 0.92770004E+02 -0.60684E+06
 0.92820007E+02 -0.69288E+06
 0.92870003E+02 -0.76863E+06
 0.92920006E+02 -0.81944E+06
 0.92970001E+02 -0.83226E+06
 0.93020004E+02 -0.80749E+06
 0.93070007E+02 -0.75133E+06
 0.93120003E+02 -0.66835E+06
 0.93170006E+02 -0.56304E+06
 0.93220001E+02 -0.44723E+06
 0.93270004E+02 -0.33922E+06
 0.93320007E+02 -0.25252E+06
 0.93370003E+02 -0.19044E+06
 0.93420006E+02 -0.14309E+06
 0.93470001E+02 -0.10099E+06
 0.93520004E+02 -0.63622E+05
 0.93570007E+02 -0.28367E+05
 0.93620003E+02  0.35330E+04
 0.93670006E+02  0.27478E+05
 0.93720001E+02  0.42100E+05
 0.93770004E+02  0.44883E+05
 0.93820007E+02  0.38358E+05
 0.93870003E+02  0.34108E+05
 0.93920006E+02  0.42420E+05
 0.93970001E+02  0.63520E+05
 0.94020004E+02  0.97419E+05
 0.94070007E+02  0.14639E+06
 0.94120003E+02  0.20577E+06
 0.94170006E+02  0.27047E+06
 0.94220001E+02  0.33481E+06
 0.94270004E+02  0.39007E+06
 0.94320007E+02  0.42928E+06
 0.94370003E+02  0.45094E+06
 0.94420006E+02  0.46229E+06
 0.94470001E+02  0.47234E+06
 0.94520004E+02  0.48549E+06
 0.94570007E+02  0.49916E+06
 0.94620003E+02  0.50528E+06
 0.94670006E+02  0.49801E+06
 0.94720001E+02  0.47932E+06
 0.94770004E+02  0.45329E+06
 0.94820007E+02  0.42038E+06
 0.94870003E+02  0.38228E+06
 0.94920006E+02  0.34298E+06
 0.94970001E+02  0.30394E+06
 0.95020004E+02  0.25799E+06
 0.95070007E+02  0.19898E+06
 0.95120003E+02  0.13552E+06
 0.95170006E+02  0.82011E+05
 0.95220001E+02  0.48565E+05
 0.95270004E+02  0.36988E+05
 0.95320007E+02  0.39437E+05
 0.95370003E+02  0.48220E+05
 0.95420006E+02  0.60531E+05
 0.95470001E+02  0.72228E+05
 0.95520004E+02  0.75357E+05
 0.95570007E+02  0.63939E+05
 0.95620003E+02  0.37073E+05
 0.95670006E+02 -0.58060E+04
 0.95720001E+02 -0.66059E+05
 0.95770004E+02 -0.14635E+06
 0.95820007E+02 -0.25190E+06
 0.95870003E+02 -0.37956E+06
 0.95920006E+02 -0.51649E+06
 0.95970001E+02 -0.65116E+06
 0.96020004E+02 -0.77078E+06
 0.96070007E+02 -0.86356E+06
 0.96120003E+02 -0.92332E+06
 0.96170006E+02 -0.94554E+06
 0.96220001E+02 -0.93012E+06
 0.96270004E+02 -0.88382E+06
 0.96320007E+02 -0.81915E+06
 0.96370003E+02 -0.74998E+06
 0.96420006E+02 -0.68292E+06
 0.96470001E+02 -0.61329E+06
 0.96520004E+02 -0.52884E+06
 0.96570007E+02 -0.42226E+06
 0.96620003E+02 -0.29460E+06
 0.96670006E+02 -0.15154E+06
 0.96720001E+02 -0.44920E+04
 0.96770004E+02  0.13358E+06
 0.96820007E+02  0.25164E+06
 0.96870003E+02  0.34182E+06
 0.96920006E+02  0.39914E+06
 0.96970001E+02  0.41865E+06
 0.97020004E+02  0.39469E+06
 0.97070007E+02  0.32724E+06
 0.97120003E+02  0.22748E+06
 0.97170006E+02  0.10906E+06
 0.97220001E+02 -0.18938E+05
 0.97270004E+02 -0.14747E+06
 0.97320007E+02 -0.26773E+06
 0.97370003E+02 -0.37319E+06
 0.97420006E+02 -0.45626E+06
 0.97470001E+02 -0.51472E+06
 0.97520004E+02 -0.55200E+06
 0.97570007E+02 -0.56844E+06
 0.97620003E+02 -0.56028E+06
 0.97670006E+02 -0.52444E+06
 0.97720001E+02 -0.46375E+06
 0.97770004E+02 -0.38384E+06
 0.97820007E+02 -0.29189E+06
 0.97870003E+02 -0.19229E+06
 0.97920006E+02 -0.87986E+05
 0.97970001E+02  0.10645E+05
 0.98020004E+02  0.93254E+05
 0.98070007E+02  0.15971E+06
 0.98120003E+02  0.21844E+06
 0.98170006E+02  0.27408E+06
 0.98220001E+02  0.32708E+06
 0.98270004E+02  0.38208E+06
 0.98320007E+02  0.44139E+06
 0.98370003E+02  0.49935E+06
 0.98420006E+02  0.54756E+06
 0.98470001E+02  0.58250E+06
 0.98520004E+02  0.60356E+06
 0.98570007E+02  0.60806E+06
 0.98620003E+02  0.59276E+06
 0.98670006E+02  0.55446E+06
 0.98720001E+02  0.49150E+06
 0.98770004E+02  0.40657E+06
 0.98820007E+02  0.30895E+06
 0.98870003E+02  0.20780E+06
 0.98920006E+02  0.10915E+06
 0.98970001E+02  0.21916E+05
 0.99020004E+02 -0.46661E+05
 0.99070007E+02 -0.91089E+05
 0.99120003E+02 -0.10548E+06
 0.99170006E+02 -0.87206E+05
 0.99220001E+02 -0.38367E+05
 0.99270004E+02  0.34891E+05
 0.99320007E+02  0.12457E+06
 0.99370003E+02  0.22149E+06
 0.99420006E+02  0.31402E+06
 0.99470001E+02  0.38933E+06
 0.99520004E+02  0.44096E+06
 0.99570007E+02  0.46838E+06
 0.99620003E+02  0.47322E+06
 0.99670006E+02  0.46040E+06
 0.99720001E+02  0.43502E+06
 0.99770004E+02  0.40242E+06
 0.99820007E+02  0.36980E+06
 0.99870003E+02  0.34671E+06
 0.99920006E+02  0.33881E+06
 0.99970001E+02  0.33920E+06
 0.10002000E+03  0.33681E+06
 0.10007001E+03  0.32614E+06
 0.10012000E+03  0.30534E+06
 0.10017001E+03  0.27843E+06
 0.10022000E+03  0.25157E+06
 0.10027000E+03  0.22611E+06
 0.10032001E+03  0.20263E+06
 0.10037000E+03  0.17872E+06
 0.10042001E+03  0.14748E+06
 0.10047000E+03  0.10553E+06
 0.10052000E+03  0.57693E+05
 0.10057001E+03  0.15358E+05
 0.10062000E+03 -0.14009E+05
 0.10067001E+03 -0.34403E+05
 0.10072000E+03 -0.50816E+05
 0.10077000E+03 -0.62143E+05
 0.10082001E+03 -0.66902E+05
 0.10087000E+03 -0.63460E+05
 0.10092001E+03 -0.49110E+05
 0.10097000E+03 -0.22602E+05
 0.10102000E+03  0.10728E+05
 0.10107001E+03  0.40319E+05
 0.10112000E+03  0.59370E+05
 0.10117001E+03  0.65833E+05
 0.10122000E+03  0.63548E+05
 0.10127000E+03  0.61163E+05
 0.10132001E+03  0.67020E+05
 0.10137000E+03  0.83007E+05
 0.10142001E+03  0.97940E+05
 0.10147000E+03  0.98669E+05
 0.10152000E+03  0.85578E+05
 0.10157001E+03  0.70001E+05
 0.10162000E+03  0.60157E+05
 0.10167001E+03  0.56994E+05
 0.10172000E+03  0.62227E+05
 0.10177000E+03  0.79842E+05
 0.10182001E+03  0.11117E+06
 0.10187000E+03  0.15288E+06
 0.10192001E+03  0.20000E+06
 0.10197000E+03  0.25164E+06
 0.10202000E+03  0.31120E+06
 0.10207001E+03  0.37761E+06
 0.10212000E+03  0.44395E+06
 0.10217001E+03  0.50217E+06
 0.10222000E+03  0.54394E+06
 0.10227000E+03  0.56525E+06
 0.10232001E+03  0.57191E+06
 0.10237000E+03  0.57249E+06
 0.10242001E+03  0.56665E+06
 0.10247000E+03  0.54819E+06
 0.10252000E+03  0.50916E+06
 0.10257001E+03  0.44618E+06
 0.10262000E+03  0.36840E+06
 0.10267001E+03  0.28898E+06
 0.10272000E+03  0.21734E+06
 0.10277000E+03  0.16098E+06
 0.10282001E+03  0.12408E+06
 0.10287000E+03  0.10274E+06
 0.10292001E+03  0.88044E+05
 0.10297000E+03  0.70556E+05
 0.10302000E+03  0.40369E+05
 0.10307001E+03 -0.82550E+04
 0.10312000E+03 -0.76969E+05
 0.10317001E+03 -0.16624E+06
 0.10322000E+03 -0.27313E+06
 0.10327000E+03 -0.39384E+06
 0.10332001E+03 -0.52360E+06
 0.10337000E+03 -0.65358E+06
 0.10342001E+03 -0.77408E+06
 0.10347000E+03 -0.87501E+06
 0.10352000E+03 -0.94726E+06
 0.10357001E+03 -0.98645E+06
 0.10362000E+03 -0.99453E+06
 0.10367001E+03 -0.98093E+06
 0.10372000E+03 -0.95964E+06
 0.10377000E+03 -0.94497E+06
 0.10382001E+03 -0.94424E+06
 0.10387000E+03 -0.95396E+06
 0.10392001E+03 -0.96599E+06
 0.10397000E+03 -0.97468E+06
 0.10402000E+03 -0.97712E+06
 0.10407001E+03 -0.96972E+06
 0.10412000E+03 -0.95330E+06
 0.10417001E+03 -0.93250E+06
 0.10422000E+03 -0.90381E+06
 0.10427000E+03 -0.86015E+06
 0.10432001E+03 -0.80187E+06
 0.10437000E+03 -0.73343E+06
 0.10442001E+03 -0.66123E+06
 0.10447000E+03 -0.59021E+06
 0.10452000E+03 -0.52076E+06
 0.10457001E+03 -0.45093E+06
 0.10462000E+03 -0.37846E+06
 0.10467001E+03 -0.30468E+06
 0.10472000E+03 -0.23329E+06
 0.10477000E+03 -0.17075E+06
 0.10482001E+03 -0.12422E+06
 0.10487000E+03 -0.96242E+05
 0.10492001E+03 -0.86042E+05
 0.10497000E+03 -0.91456E+05
 0.10502000E+03 -0.11287E+06
 0.10507001E+03 -0.14735E+06
 0.10512000E+03 -0.18265E+06
 0.10517001E+03 -0.20623E+06
 0.10522000E+03 -0.20598E+06
 0.10527000E+03 -0.16846E+06
 0.10532001E+03 -0.88433E+05
 0.10537000E+03  0.29344E+05
 0.10542001E+03  0.17423E+06
 0.10547000E+03  0.33048E+06
 0.10552000E+03  0.48288E+06
 0.10557001E+03  0.62280E+06
 0.10562000E+03  0.74671E+06
 0.10567001E+03  0.85079E+06
 0.10572000E+03  0.93052E+06
 0.10577000E+03  0.98396E+06
 0.10582001E+03  0.10100E+07
 0.10587000E+03  0.10091E+07
 0.10592001E+03  0.98798E+06
 0.10597000E+03  0.95556E+06
 0.10602000E+03  0.91672E+06
 0.10607001E+03  0.87356E+06
 0.10612000E+03  0.82509E+06
 0.10617001E+03  0.76791E+06
 0.10622000E+03  0.70097E+06
 0.10627000E+03  0.62324E+06
 0.10632001E+03  0.53478E+06
 0.10637000E+03  0.44233E+06
 0.10642001E+03  0.35219E+06
 0.10647000E+03  0.26160E+06
 0.10652000E+03  0.16778E+06
 0.10657001E+03  0.73180E+05
 0.10662000E+03 -0.19326E+05
 0.10667001E+03 -0.10580E+06
 0.10672000E+03 -0.17978E+06
 0.10677000E+03 -0.23263E+06
 0.10682001E+03 -0.25668E+06
 0.10687000E+03 -0.24875E+06
 0.10692001E+03 -0.21289E+06
 0.10697000E+03 -0.15644E+06
 0.10702000E+03 -0.85855E+05
 0.10707001E+03 -0.80940E+04
 0.10712000E+03  0.72913E+05
 0.10717001E+03  0.15549E+06
 0.10722000E+03  0.23695E+06
 0.10727000E+03  0.31280E+06
 0.10732001E+03  0.37495E+06
 0.10737000E+03  0.41665E+06
 0.10742001E+03  0.43653E+06
 0.10747000E+03  0.43474E+06
 0.10752000E+03  0.41082E+06
 0.10757001E+03  0.36750E+06
 0.10762000E+03  0.31229E+06
 0.10767001E+03  0.25243E+06
 0.10772000E+03  0.19496E+06
 0.10777000E+03  0.14369E+06
 0.10782001E+03  0.10022E+06
 0.10787000E+03  0.72836E+05
 0.10792001E+03  0.70017E+05
 0.10797000E+03  0.96597E+05
 0.10802000E+03  0.15422E+06
 0.10807001E+03  0.23605E+06
 0.10812000E+03  0.32564E+06
 0.10817001E+03  0.40708E+06
 0.10822000E+03  0.47244E+06
 0.10827000E+03  0.51435E+06
 0.10832001E+03  0.52859E+06
 0.10837000E+03  0.51801E+06
 0.10842001E+03  0.48729E+06
 0.10847000E+03  0.44202E+06
 0.10852000E+03  0.38769E+06
 0.10857001E+03  0.32774E+06
 0.10862000E+03  0.26261E+06
 0.10867001E+03  0.19267E+06
 0.10872000E+03  0.12391E+06
 0.10877000E+03  0.65223E+05
 0.10882001E+03  0.22504E+05
 0.10887000E+03 -0.17180E+04
 0.10892001E+03 -0.86750E+04
 0.10897000E+03 -0.24200E+04
 0.10902000E+03  0.11823E+05
 0.10907001E+03  0.25912E+05
 0.10912000E+03  0.31346E+05
 0.10917001E+03  0.24775E+05
 0.10922000E+03  0.77430E+04
 0.10927000E+03 -0.18596E+05
 0.10932001E+03 -0.53225E+05
 0.10937000E+03 -0.91968E+05
 0.10942001E+03 -0.13286E+06
 0.10947000E+03 -0.17933E+06
 0.10952000E+03 -0.23430E+06
 0.10957001E+03 -0.29645E+06
 0.10962000E+03 -0.36034E+06
 0.10967001E+03 -0.41956E+06
 0.10972000E+03 -0.47048E+06
 0.10977000E+03 -0.51299E+06
 0.10982001E+03 -0.54871E+06
 0.10987000E+03 -0.57825E+06
 0.10992001E+03 -0.60086E+06
 0.10997000E+03 -0.61708E+06
 0.11002000E+03 -0.62943E+06
 0.11007001E+03 -0.63931E+06
 0.11012000E+03 -0.64799E+06
 0.11017001E+03 -0.65562E+06
 0.11022000E+03 -0.65837E+06
 0.11027000E+03 -0.65222E+06
 0.11032001E+03 -0.63634E+06
 0.11037000E+03 -0.61358E+06
 0.11042001E+03 -0.58509E+06
 0.11047000E+03 -0.54826E+06
 0.11052000E+03 -0.50368E+06
 0.11057001E+03 -0.45754E+06
 0.11062000E+03 -0.41956E+06
 0.11067001E+03 -0.39875E+06
 0.11072000E+03 -0.39553E+06
 0.11077000E+03 -0.40175E+06
 0.11082001E+03 -0.40671E+06
 0.11087000E+03 -0.40135E+06
 0.11092001E+03 -0.38241E+06
 0.11097000E+03 -0.35240E+06
 0.11102000E+03 -0.31650E+06
 0.11107001E+03 -0.27819E+06
 0.11112000E+03 -0.23751E+06
 0.11117001E+03 -0.19330E+06
 0.11122000E+03 -0.14302E+06
 0.11127000E+03 -0.84735E+05
 0.11132001E+03 -0.21325E+05
 0.11137000E+03  0.37083E+05
 0.11142001E+03  0.76768E+05
 0.11147000E+03  0.90342E+05
 0.11152000E+03  0.77466E+05
 0.11157001E+03  0.42318E+05
 0.11162000E+03 -0.51310E+04
 0.11167001E+03 -0.53616E+05
 0.11172000E+03 -0.94331E+05
 0.11177000E+03 -0.12258E+06
 0.11182001E+03 -0.13816E+06
 0.11187000E+03 -0.14205E+06
 0.11192001E+03 -0.13367E+06
 0.11197000E+03 -0.10897E+06
 0.11202000E+03 -0.64779E+05
 0.11207001E+03 -0.43060E+04
 0.11212000E+03  0.65430E+05
 0.11217001E+03  0.13712E+06
 0.11222000E+03  0.20550E+06
 0.11227000E+03  0.26834E+06
 0.11232001E+03  0.32522E+06
 0.11237000E+03  0.37694E+06
 0.11242001E+03  0.42350E+06
 0.11247000E+03  0.46196E+06
 0.11252000E+03  0.48606E+06
 0.11257001E+03  0.48930E+06
 0.11262000E+03  0.46788E+06
 0.11267001E+03  0.41932E+06
 0.11272000E+03  0.34584E+06
 0.11277000E+03  0.25613E+06
 0.11282001E+03  0.16208E+06
 0.11287000E+03  0.76753E+05
 0.11292001E+03  0.65970E+04
 0.11297000E+03 -0.51112E+05
 0.11302000E+03 -0.10118E+06
 0.11307001E+03 -0.14701E+06
 0.11312000E+03 -0.18912E+06
 0.11317001E+03 -0.22773E+06
 0.11322000E+03 -0.26188E+06
 0.11327000E+03 -0.28606E+06
 0.11332001E+03 -0.29497E+06
 0.11337000E+03 -0.28866E+06
 0.11342001E+03 -0.27007E+06
 0.11347000E+03 -0.24023E+06
 0.11352000E+03 -0.20328E+06
 0.11357001E+03 -0.16657E+06
 0.11362000E+03 -0.13402E+06
 0.11367001E+03 -0.10710E+06
 0.11372000E+03 -0.86297E+05
 0.11377000E+03 -0.74976E+05
 0.11382001E+03 -0.78020E+05
 0.11387000E+03 -0.94511E+05
 0.11392001E+03 -0.11554E+06
 0.11397000E+03 -0.12764E+06
 0.11402000E+03 -0.12210E+06
 0.11407001E+03 -0.97988E+05
 0.11412000E+03 -0.59707E+05
 0.11417001E+03 -0.13468E+05
 0.11422000E+03  0.37130E+05
 0.11427000E+03  0.88570E+05
 0.11432001E+03  0.13676E+06
 0.11437000E+03  0.18182E+06
 0.11442001E+03  0.22738E+06
 0.11447000E+03  0.27484E+06
 0.11452000E+03  0.32168E+06
 0.11457001E+03  0.36368E+06
 0.11462000E+03  0.39759E+06
 0.11467001E+03  0.42285E+06
 0.11472000E+03  0.44159E+06
 0.11477000E+03  0.45738E+06
 0.11482001E+03  0.47234E+06
 0.11487000E+03  0.48582E+06
 0.11492001E+03  0.49540E+06
 0.11497000E+03  0.49727E+06
 0.11502000E+03  0.48825E+06
 0.11507001E+03  0.46736E+06
 0.11512000E+03  0.43558E+06
 0.11517001E+03  0.39548E+06
 0.11522000E+03  0.35018E+06
 0.11527000E+03  0.30190E+06
 0.11532001E+03  0.25071E+06
 0.11537000E+03  0.19459E+06
 0.11542001E+03  0.13291E+06
 0.11547000E+03  0.68418E+05
 0.11552000E+03  0.47150E+04
 0.11557001E+03 -0.53003E+05
 0.11562000E+03 -0.97729E+05
 0.11567001E+03 -0.12492E+06
 0.11572000E+03 -0.13472E+06
 0.11577000E+03 -0.13070E+06
 0.11582001E+03 -0.11545E+06
 0.11587000E+03 -0.88902E+05
 0.11592001E+03 -0.49827E+05
 0.11597000E+03  0.17160E+04
 0.11602000E+03  0.62342E+05
 0.11607001E+03  0.12761E+06
 0.11612000E+03  0.19535E+06
 0.11617001E+03  0.26604E+06
 0.11622000E+03  0.33965E+06
 0.11627000E+03  0.41361E+06
 0.11632001E+03  0.48400E+06
 0.11637000E+03  0.54697E+06
 0.11642001E+03  0.59768E+06
 0.11647000E+03  0.63060E+06
 0.11652000E+03  0.64132E+06
 0.11657001E+03  0.62738E+06
 0.11662000E+03  0.58955E+06
 0.11667001E+03  0.53234E+06
 0.11672000E+03  0.46323E+06
 0.11677000E+03  0.38672E+06
 0.11682001E+03  0.30447E+06
 0.11687000E+03  0.22155E+06
 0.11692001E+03  0.14446E+06
 0.11697000E+03  0.78305E+05
 0.11702000E+03  0.26111E+05
 0.11707001E+03 -0.12467E+05
 0.11712000E+03 -0.42775E+05
 0.11717001E+03 -0.72414E+05
 0.11722000E+03 -0.10580E+06
 0.11727000E+03 -0.14336E+06
 0.11732001E+03 -0.18322E+06
 0.11737000E+03 -0.22271E+06
 0.11742001E+03 -0.26070E+06
 0.11747000E+03 -0.29750E+06
 0.11752000E+03 -0.33301E+06
 0.11757001E+03 -0.36807E+06
 0.11762000E+03 -0.40372E+06
 0.11767001E+03 -0.43767E+06
 0.11772000E+03 -0.46300E+06
 0.11777000E+03 -0.47433E+06
 0.11782001E+03 -0.47382E+06
 0.11787000E+03 -0.46979E+06
 0.11792001E+03 -0.47305E+06
 0.11797000E+03 -0.49022E+06
 0.11802000E+03 -0.52108E+06
 0.11807001E+03 -0.56262E+06
 0.11812000E+03 -0.61081E+06
 0.11817001E+03 -0.65885E+06
 0.11822000E+03 -0.69701E+06
 0.11827000E+03 -0.71608E+06
 0.11832001E+03 -0.71144E+06
 0.11837000E+03 -0.68440E+06
 0.11842001E+03 -0.64040E+06
 0.11847000E+03 -0.58688E+06
 0.11852000E+03 -0.53015E+06
 0.11857001E+03 -0.47557E+06
 0.11862000E+03 -0.42784E+06
 0.11867001E+03 -0.38779E+06
 0.11872000E+03 -0.35347E+06
 0.11877000E+03 -0.32063E+06
 0.11882001E+03 -0.28461E+06
 0.11887000E+03 -0.24335E+06
 0.11892001E+03 -0.19513E+06
 0.11897000E+03 -0.13769E+06
 0.11902000E+03 -0.70414E+05
 0.11907001E+03  0.49800E+04
 0.11912000E+03  0.85356E+05
 0.11917001E+03  0.16777E+06
 0.11922000E+03  0.24925E+06
 0.11927000E+03  0.32422E+06
 0.11932001E+03  0.38610E+06
 0.11937000E+03  0.42979E+06
 0.11942001E+03  0.45374E+06
 0.11947000E+03  0.46090E+06
 0.11952000E+03  0.45409E+06
 0.11957001E+03  0.43398E+06
 0.11962000E+03  0.40007E+06
 0.11967001E+03  0.35303E+06
 0.11972000E+03  0.29434E+06
 0.11977000E+03  0.22308E+06
 0.11982001E+03  0.13739E+06
 0.11987000E+03  0.36744E+05
 0.11992001E+03 -0.76925E+05
 0.11997000E+03 -0.19938E+06
 0.12002000E+03 -0.32571E+06
 0.12007001E+03 -0.45122E+06
 0.12012000E+03 -0.57090E+06
 0.12017001E+03 -0.67928E+06
 0.12022000E+03 -0.77142E+06
 0.12027000E+03 -0.84213E+06
 0.12032001E+03 -0.88782E+06
 0.12037000E+03 -0.90627E+06
 0.12042001E+03 -0.89518E+06
 0.12047000E+03 -0.85512E+06
 0.12052000E+03 -0.78996E+06
 0.12057001E+03 -0.70636E+06
 0.12062000E+03 -0.61241E+06
 0.12067001E+03 -0.51381E+06
 0.12072000E+03 -0.41272E+06
 0.12077000E+03 -0.31312E+06
 0.12082001E+03 -0.22318E+06
 0.12087000E+03 -0.15034E+06
 0.12092001E+03 -0.99477E+05
 0.12097000E+03 -0.70606E+05
 0.12102000E+03 -0.59227E+05
 0.12107001E+03 -0.59650E+05
 0.12112000E+03 -0.64625E+05
 0.12117001E+03 -0.66210E+05
 0.12122000E+03 -0.56153E+05
 0.12127000E+03 -0.29582E+05
 0.12132001E+03  0.11368E+05
 0.12137000E+03  0.58947E+05
 0.12142001E+03  0.10296E+06
 0.12147000E+03  0.13698E+06
 0.12152000E+03  0.15944E+06
 0.12157001E+03  0.17073E+06
 0.12162000E+03  0.17110E+06
 0.12167001E+03  0.16081E+06
 0.12172000E+03  0.14129E+06
 0.12177000E+03  0.11416E+06
 0.12182001E+03  0.83115E+05
 0.12187000E+03  0.52658E+05
 0.12192001E+03  0.26246E+05
 0.12197000E+03  0.77730E+04
 0.12202000E+03  0.11320E+04
 0.12207001E+03  0.74090E+04
 0.12212000E+03  0.24042E+05
 0.12217001E+03  0.48653E+05
 0.12222000E+03  0.78766E+05
 0.12227000E+03  0.11254E+06
 0.12232001E+03  0.14964E+06
 0.12237000E+03  0.18725E+06
 0.12242001E+03  0.22042E+06
 0.12247000E+03  0.24541E+06
 0.12252000E+03  0.26159E+06
 0.12257001E+03  0.26955E+06
 0.12262000E+03  0.26984E+06
 0.12267001E+03  0.26305E+06
 0.12272000E+03  0.24927E+06
 0.12277000E+03  0.23018E+06
 0.12282001E+03  0.21048E+06
 0.12287000E+03  0.19494E+06
 0.12292001E+03  0.18689E+06
 0.12297000E+03  0.18845E+06
 0.12302000E+03  0.19882E+06
 0.12307001E+03  0.21512E+06
 0.12312000E+03  0.23240E+06
 0.12317001E+03  0.24428E+06
 0.12322000E+03  0.24760E+06
 0.12327000E+03  0.24307E+06
 0.12332001E+03  0.23125E+06
 0.12337000E+03  0.21224E+06
 0.12342001E+03  0.18721E+06
 0.12347000E+03  0.15646E+06
 0.12352000E+03  0.12154E+06
 0.12357001E+03  0.87326E+05
 0.12362000E+03  0.59094E+05
 0.12367001E+03  0.39927E+05
 0.12372000E+03  0.30233E+05
 0.12377000E+03  0.29063E+05
 0.12382001E+03  0.34783E+05
 0.12387000E+03  0.46168E+05
 0.12392001E+03  0.63106E+05
 0.12397000E+03  0.83756E+05
 0.12402000E+03  0.10343E+06
 0.12407001E+03  0.11896E+06
 0.12412000E+03  0.12904E+06
 0.12417001E+03  0.13100E+06
 0.12422001E+03  0.12239E+06
 0.12427001E+03  0.10445E+06
 0.12432000E+03  0.83870E+05
 0.12437000E+03  0.67388E+05
 0.12442001E+03  0.57889E+05
 0.12447001E+03  0.58415E+05
 0.12452001E+03  0.70671E+05
 0.12457000E+03  0.92738E+05
 0.12462000E+03  0.12249E+06
 0.12467001E+03  0.15864E+06
 0.12472001E+03  0.20002E+06
 0.12477001E+03  0.24564E+06
 0.12482000E+03  0.29407E+06
 0.12487000E+03  0.34352E+06
 0.12492001E+03  0.39332E+06
 0.12497001E+03  0.44361E+06
 0.12502001E+03  0.49403E+06
 0.12507000E+03  0.54098E+06
 0.12512000E+03  0.57922E+06
 0.12517001E+03  0.60685E+06
 0.12522001E+03  0.62243E+06
 0.12527001E+03  0.62417E+06
 0.12532000E+03  0.61227E+06
 0.12537000E+03  0.58836E+06
 0.12542001E+03  0.55532E+06
 0.12547001E+03  0.51682E+06
 0.12552001E+03  0.47675E+06
 0.12557000E+03  0.43635E+06
 0.12562000E+03  0.39412E+06
 0.12567001E+03  0.34783E+06
 0.12572001E+03  0.29631E+06
 0.12577001E+03  0.24151E+06
 0.12582000E+03  0.18556E+06
 0.12587000E+03  0.12959E+06
 0.12592001E+03  0.75720E+05
 0.12597001E+03  0.25622E+05
 0.12602001E+03 -0.20245E+05
 0.12607000E+03 -0.60162E+05
 0.12612000E+03 -0.92728E+05
 0.12617001E+03 -0.11906E+06
 0.12622001E+03 -0.13874E+06
 0.12627001E+03 -0.14918E+06
 0.12632000E+03 -0.14671E+06
 0.12637000E+03 -0.12822E+06
 0.12642001E+03 -0.94345E+05
 0.12647001E+03 -0.48356E+05
 0.12652001E+03  0.60170E+04
 0.12657000E+03  0.64407E+05
 0.12662000E+03  0.12254E+06
 0.12667001E+03  0.17512E+06
 0.12672001E+03  0.21590E+06
 0.12677001E+03  0.24144E+06
 0.12682000E+03  0.24917E+06
 0.12687000E+03  0.23862E+06
 0.12692001E+03  0.21449E+06
 0.12697001E+03  0.18242E+06
 0.12702001E+03  0.14747E+06
 0.12707000E+03  0.11203E+06
 0.12712000E+03  0.74359E+05
 0.12717001E+03  0.32608E+05
 0.12722001E+03 -0.12226E+05
 0.12727001E+03 -0.57246E+05
 0.12732000E+03 -0.10026E+06
 0.12737000E+03 -0.14192E+06
 0.12742001E+03 -0.18361E+06
 0.12747001E+03 -0.22441E+06
 0.12752001E+03 -0.26258E+06
 0.12757000E+03 -0.29555E+06
 0.12762000E+03 -0.32099E+06
 0.12767001E+03 -0.33834E+06
 0.12772001E+03 -0.34772E+06
 0.12777001E+03 -0.34971E+06
 0.12782000E+03 -0.34339E+06
 0.12787000E+03 -0.32749E+06
 0.12792001E+03 -0.30386E+06
 0.12797001E+03 -0.27687E+06
 0.12802000E+03 -0.25047E+06
 0.12806999E+03 -0.22514E+06
 0.12812000E+03 -0.19853E+06
 0.12817000E+03 -0.16848E+06
 0.12822000E+03 -0.13340E+06
 0.12827000E+03 -0.92108E+05
 0.12831999E+03 -0.45368E+05
 0.12837000E+03  0.31600E+04
 0.12842000E+03  0.48345E+05
 0.12847000E+03  0.84988E+05
 0.12852000E+03  0.10870E+06
 0.12856999E+03  0.11762E+06
 0.12862000E+03  0.11173E+06
 0.12867000E+03  0.91732E+05
 0.12872000E+03  0.61812E+05
 0.12877000E+03  0.28510E+05
 0.12881999E+03 -0.30610E+04
 0.12887000E+03 -0.29984E+05
 0.12892000E+03 -0.51296E+05
 0.12897000E+03 -0.67697E+05
 0.12902000E+03 -0.81298E+05
 0.12906999E+03 -0.94498E+05
 0.12912000E+03 -0.10933E+06
 0.12917000E+03 -0.12662E+06
 0.12922000E+03 -0.14499E+06
 0.12927000E+03 -0.16257E+06
 0.12931999E+03 -0.17856E+06
 0.12937000E+03 -0.19240E+06
 0.12942000E+03 -0.20448E+06
 0.12947000E+03 -0.21706E+06
 0.12952000E+03 -0.23168E+06
 0.12956999E+03 -0.24809E+06
 0.12962000E+03 -0.26688E+06
 0.12967000E+03 -0.28892E+06
 0.12972000E+03 -0.31241E+06
 0.12977000E+03 -0.33552E+06
 0.12981999E+03 -0.35692E+06
 0.12987000E+03 -0.37360E+06
 0.12992000E+03 -0.38207E+06
 0.12997000E+03 -0.37919E+06
 0.13002000E+03 -0.36430E+06
 0.13006999E+03 -0.33890E+06
 0.13012000E+03 -0.30612E+06
 0.13017000E+03 -0.27091E+06
 0.13022000E+03 -0.23703E+06
 0.13027000E+03 -0.20749E+06
 0.13031999E+03 -0.18449E+06
 0.13037000E+03 -0.16990E+06
 0.13042000E+03 -0.16389E+06
 0.13047000E+03 -0.16196E+06
 0.13052000E+03 -0.15877E+06
 0.13056999E+03 -0.15021E+06
 0.13062000E+03 -0.13335E+06
 0.13067000E+03 -0.10828E+06
 0.13072000E+03 -0.77314E+05
 0.13077000E+03 -0.43309E+05
 0.13081999E+03 -0.94600E+04
 0.13087000E+03  0.22564E+05
 0.13092000E+03  0.53972E+05
 0.13097000E+03  0.86611E+05
 0.13102000E+03  0.12082E+06
 0.13106999E+03  0.15573E+06
 0.13112000E+03  0.18872E+06
 0.13117000E+03  0.21753E+06
 0.13122000E+03  0.24243E+06
 0.13127000E+03  0.26213E+06
 0.13131999E+03  0.27446E+06
 0.13137000E+03  0.27935E+06
 0.13142000E+03  0.27764E+06
 0.13147000E+03  0.27052E+06
 0.13152000E+03  0.25915E+06
 0.13156999E+03  0.24360E+06
 0.13162000E+03  0.22293E+06
 0.13167000E+03  0.19597E+06
 0.13172000E+03  0.16236E+06
 0.13177000E+03  0.12447E+06
 0.13181999E+03  0.85846E+05
 0.13187000E+03  0.50133E+05
 0.13192000E+03  0.19328E+05
 0.13197000E+03 -0.82220E+04
 0.13202000E+03 -0.33798E+05
 0.13206999E+03 -0.58053E+05
 0.13212000E+03 -0.81860E+05
 0.13217000E+03 -0.10491E+06
 0.13222000E+03 -0.12602E+06
 0.13227000E+03 -0.14274E+06
 0.13231999E+03 -0.15451E+06
 0.13237000E+03 -0.16340E+06
 0.13242000E+03 -0.17036E+06
 0.13247000E+03 -0.17547E+06
 0.13252000E+03 -0.17697E+06
 0.13256999E+03 -0.17248E+06
 0.13262000E+03 -0.16326E+06
 0.13267000E+03 -0.15272E+06
 0.13272000E+03 -0.14242E+06
 0.13277000E+03 -0.13142E+06
 0.13281999E+03 -0.11878E+06
 0.13287000E+03 -0.10331E+06
 0.13292000E+03 -0.84119E+05
 0.13297000E+03 -0.61905E+05
 0.13302000E+03 -0.37373E+05
 0.13306999E+03 -0.11249E+05
 0.13312000E+03  0.16214E+05
 0.13317000E+03  0.45814E+05
 0.13322000E+03  0.76377E+05
 0.13327000E+03  0.10671E+06
 0.13331999E+03  0.13644E+06
 0.13337000E+03  0.16338E+06
 0.13342000E+03  0.18619E+06
 0.13347000E+03  0.20446E+06
 0.13352000E+03  0.21751E+06
 0.13356999E+03  0.22516E+06
 0.13362000E+03  0.22812E+06
 0.13367000E+03  0.22848E+06
 0.13372000E+03  0.22736E+06
 0.13377000E+03  0.22532E+06
 0.13381999E+03  0.22278E+06
 0.13387000E+03  0.21904E+06
 0.13392000E+03  0.21265E+06
 0.13397000E+03  0.20089E+06
 0.13402000E+03  0.18279E+06
 0.13406999E+03  0.15970E+06
 0.13412000E+03  0.13169E+06
 0.13417000E+03  0.97970E+05
 0.13422000E+03  0.58085E+05
 0.13427000E+03  0.11721E+05
 0.13431999E+03 -0.39663E+05
 0.13437000E+03 -0.94102E+05
 0.13442000E+03 -0.15014E+06
 0.13447000E+03 -0.20463E+06
 0.13452000E+03 -0.25413E+06
 0.13456999E+03 -0.29565E+06
 0.13462000E+03 -0.32712E+06
 0.13467000E+03 -0.34857E+06
 0.13472000E+03 -0.36099E+06
 0.13477000E+03 -0.36653E+06
 0.13481999E+03 -0.36727E+06
 0.13487000E+03 -0.36510E+06
 0.13492000E+03 -0.36172E+06
 0.13497000E+03 -0.35863E+06
 0.13502000E+03 -0.35744E+06
 0.13506999E+03 -0.35772E+06
 0.13512000E+03 -0.35838E+06
 0.13517000E+03 -0.35854E+06
 0.13522000E+03 -0.35688E+06
 0.13527000E+03 -0.35243E+06
 0.13531999E+03 -0.34488E+06
 0.13537000E+03 -0.33399E+06
 0.13542000E+03 -0.31957E+06
 0.13547000E+03 -0.30215E+06
 0.13552000E+03 -0.28202E+06
 0.13556999E+03 -0.25824E+06
 0.13562000E+03 -0.22974E+06
 0.13567000E+03 -0.19568E+06
 0.13572000E+03 -0.15509E+06
 0.13577000E+03 -0.10892E+06
 0.13581999E+03 -0.59277E+05
 0.13587000E+03 -0.87720E+04
 0.13592000E+03  0.39519E+05
 0.13597000E+03  0.83593E+05
 0.13602000E+03  0.12119E+06
 0.13606999E+03  0.14990E+06
 0.13612000E+03  0.16881E+06
 0.13617000E+03  0.17932E+06
 0.13622000E+03  0.18556E+06
 0.13627000E+03  0.19248E+06
 0.13631999E+03  0.20540E+06
 0.13637000E+03  0.22891E+06
 0.13642000E+03  0.26329E+06
 0.13647000E+03  0.30597E+06
 0.13652000E+03  0.35382E+06
 0.13656999E+03  0.40364E+06
 0.13662000E+03  0.45314E+06
 0.13667000E+03  0.50151E+06
 0.13672000E+03  0.55038E+06
 0.13677000E+03  0.60089E+06
 0.13681999E+03  0.65079E+06
 0.13687000E+03  0.69497E+06
 0.13692000E+03  0.72814E+06
 0.13697000E+03  0.74711E+06
 0.13702000E+03  0.75038E+06
 0.13706999E+03  0.73772E+06
 0.13712000E+03  0.70915E+06
 0.13717000E+03  0.66505E+06
 0.13722000E+03  0.60705E+06
 0.13727000E+03  0.53906E+06
 0.13731999E+03  0.46690E+06
 0.13737000E+03  0.39622E+06
 0.13742000E+03  0.33221E+06
 0.13747000E+03  0.27760E+06
 0.13752000E+03  0.23221E+06
 0.13756999E+03  0.19516E+06
 0.13762000E+03  0.16688E+06
 0.13767000E+03  0.14810E+06
 0.13772000E+03  0.13750E+06
 0.13777000E+03  0.13294E+06
 0.13781999E+03  0.13218E+06
 0.13787000E+03  0.13265E+06
 0.13792000E+03  0.13174E+06
 0.13797000E+03  0.12730E+06
 0.13802000E+03  0.11791E+06
 0.13806999E+03  0.10286E+06
 0.13812000E+03  0.81713E+05
 0.13817000E+03  0.54661E+05
 0.13822000E+03  0.23061E+05
 0.13827000E+03 -0.12194E+05
 0.13831999E+03 -0.50556E+05
 0.13837000E+03 -0.90945E+05
 0.13842000E+03 -0.13222E+06
 0.13847000E+03 -0.17275E+06
 0.13852000E+03 -0.21105E+06
 0.13856999E+03 -0.24612E+06
 0.13862000E+03 -0.27738E+06
 0.13867000E+03 -0.30464E+06
 0.13872000E+03 -0.32758E+06
 0.13877000E+03 -0.34726E+06
 0.13881999E+03 -0.36471E+06
 0.13887000E+03 -0.37942E+06
 0.13892000E+03 -0.39054E+06
 0.13897000E+03 -0.39667E+06
 0.13902000E+03 -0.39783E+06
 0.13906999E+03 -0.39530E+06
 0.13912000E+03 -0.38970E+06
 0.13917000E+03 -0.38179E+06
 0.13922000E+03 -0.37262E+06
 0.13927000E+03 -0.36302E+06
 0.13931999E+03 -0.35318E+06
 0.13937000E+03 -0.34372E+06
 0.13942000E+03 -0.33579E+06
 0.13947000E+03 -0.32896E+06
 0.13952000E+03 -0.32014E+06
 0.13956999E+03 -0.30669E+06
 0.13962000E+03 -0.28939E+06
 0.13967000E+03 -0.27084E+06
 0.13972000E+03 -0.25416E+06
 0.13977000E+03 -0.24075E+06
 0.13981999E+03 -0.22935E+06
 0.13987000E+03 -0.22031E+06
 0.13992000E+03 -0.21601E+06
 0.13997000E+03 -0.21792E+06
 0.14002000E+03 -0.22618E+06
 0.14006999E+03 -0.24014E+06
 0.14012000E+03 -0.25786E+06
 0.14017000E+03 -0.27627E+06
 0.14022000E+03 -0.29294E+06
 0.14027000E+03 -0.30716E+06
 0.14031999E+03 -0.31914E+06
 0.14037000E+03 -0.32876E+06
 0.14042000E+03 -0.33645E+06
 0.14047000E+03 -0.34149E+06
 0.14052000E+03 -0.34147E+06
 0.14056999E+03 -0.33490E+06
 0.14062000E+03 -0.32034E+06
 0.14067000E+03 -0.29749E+06
 0.14072000E+03 -0.26800E+06
 0.14077000E+03 -0.23393E+06
 0.14081999E+03 -0.19722E+06
 0.14087000E+03 -0.16030E+06
 0.14092000E+03 -0.12683E+06
 0.14097000E+03 -0.10036E+06
 0.14102000E+03 -0.81572E+05
 0.14106999E+03 -0.68494E+05
 0.14112000E+03 -0.58649E+05
 0.14117000E+03 -0.50302E+05
 0.14122000E+03 -0.43473E+05
 0.14127000E+03 -0.38241E+05
 0.14131999E+03 -0.34017E+05
 0.14137000E+03 -0.29847E+05
 0.14142000E+03 -0.23327E+05
 0.14147000E+03 -0.13208E+05
 0.14152000E+03 -0.42000E+02
 0.14156999E+03  0.15307E+05
 0.14162000E+03  0.32079E+05
 0.14167000E+03  0.49611E+05
 0.14172000E+03  0.67262E+05
 0.14177000E+03  0.85228E+05
 0.14181999E+03  0.10377E+06
 0.14187000E+03  0.12318E+06
 0.14192000E+03  0.14397E+06
 0.14197000E+03  0.16630E+06
 0.14202000E+03  0.19055E+06
 0.14206999E+03  0.21668E+06
 0.14212000E+03  0.24492E+06
 0.14217000E+03  0.27786E+06
 0.14222000E+03  0.31783E+06
 0.14227000E+03  0.36444E+06
 0.14231999E+03  0.41495E+06
 0.14237000E+03  0.46387E+06
 0.14242000E+03  0.50488E+06
 0.14247000E+03  0.53320E+06
 0.14252000E+03  0.54654E+06
 0.14256999E+03  0.54530E+06
 0.14262000E+03  0.53048E+06
 0.14267000E+03  0.50320E+06
 0.14272000E+03  0.46646E+06
 0.14277000E+03  0.42311E+06
 0.14281999E+03  0.37380E+06
 0.14287000E+03  0.31861E+06
 0.14292000E+03  0.25914E+06
 0.14297000E+03  0.19868E+06
 0.14302000E+03  0.14140E+06
 0.14306999E+03  0.92734E+05
 0.14312000E+03  0.56809E+05
 0.14317000E+03  0.33514E+05
 0.14322000E+03  0.18723E+05
 0.14327000E+03  0.72270E+04
 0.14331999E+03 -0.47690E+04
 0.14337000E+03 -0.19051E+05
 0.14342000E+03 -0.35153E+05
 0.14347000E+03 -0.53241E+05
 0.14352000E+03 -0.74413E+05
 0.14356999E+03 -0.99243E+05
 0.14362000E+03 -0.12748E+06
 0.14367000E+03 -0.15744E+06
 0.14372000E+03 -0.18727E+06
 0.14377000E+03 -0.21496E+06
 0.14381999E+03 -0.23840E+06
 0.14387000E+03 -0.25525E+06
 0.14392000E+03 -0.26226E+06
 0.14397000E+03 -0.25706E+06
 0.14402000E+03 -0.23955E+06
 0.14406999E+03 -0.21086E+06
 0.14412000E+03 -0.17279E+06
 0.14417000E+03 -0.12884E+06
 0.14422000E+03 -0.83876E+05
 0.14427000E+03 -0.41708E+05
 0.14431999E+03 -0.40150E+04
 0.14437000E+03  0.26364E+05
 0.14442000E+03  0.45638E+05
 0.14447000E+03  0.52715E+05
 0.14452000E+03  0.49137E+05
 0.14456999E+03  0.37935E+05
 0.14462000E+03  0.21612E+05
 0.14467000E+03  0.23810E+04
 0.14472000E+03 -0.18401E+05
 0.14477000E+03 -0.39448E+05
 0.14481999E+03 -0.56997E+05
 0.14487000E+03 -0.68434E+05
 0.14492000E+03 -0.72293E+05
 0.14497000E+03 -0.68404E+05
 0.14502000E+03 -0.59512E+05
 0.14506999E+03 -0.47321E+05
 0.14512000E+03 -0.31562E+05
 0.14517000E+03 -0.12417E+05
 0.14522000E+03  0.99660E+04
 0.14527000E+03  0.35935E+05
 0.14531999E+03  0.64814E+05
 0.14537000E+03  0.95794E+05
 0.14542000E+03  0.12664E+06
 0.14547000E+03  0.15509E+06
 0.14552000E+03  0.18215E+06
 0.14556999E+03  0.20901E+06
 0.14562000E+03  0.23786E+06
 0.14567000E+03  0.27044E+06
 0.14572000E+03  0.30460E+06
 0.14577000E+03  0.33639E+06
 0.14581999E+03  0.36253E+06
 0.14587000E+03  0.38300E+06
 0.14592000E+03  0.39875E+06
 0.14597000E+03  0.40942E+06
 0.14602000E+03  0.41438E+06
 0.14606999E+03  0.41326E+06
 0.14612000E+03  0.40686E+06
 0.14617000E+03  0.39591E+06
 0.14622000E+03  0.38057E+06
 0.14627000E+03  0.36248E+06
 0.14631999E+03  0.34292E+06
 0.14637000E+03  0.32338E+06
 0.14642000E+03  0.30537E+06
 0.14647000E+03  0.28731E+06
 0.14652000E+03  0.26818E+06
 0.14656999E+03  0.24799E+06
 0.14662000E+03  0.22608E+06
 0.14667000E+03  0.20157E+06
 0.14672000E+03  0.17229E+06
 0.14677000E+03  0.13754E+06
 0.14681999E+03  0.98911E+05
 0.14687000E+03  0.58107E+05
 0.14692000E+03  0.17632E+05
 0.14697000E+03 -0.19623E+05
 0.14702000E+03 -0.51967E+05
 0.14706999E+03 -0.78465E+05
 0.14712000E+03 -0.99050E+05
 0.14717000E+03 -0.11415E+06
 0.14722000E+03 -0.12414E+06
 0.14727000E+03 -0.12929E+06
 0.14731999E+03 -0.13170E+06
 0.14737000E+03 -0.13504E+06
 0.14742000E+03 -0.14167E+06
 0.14747000E+03 -0.15291E+06
 0.14752000E+03 -0.16794E+06
 0.14756999E+03 -0.18622E+06
 0.14762000E+03 -0.20833E+06
 0.14767000E+03 -0.23431E+06
 0.14772000E+03 -0.26555E+06
 0.14777000E+03 -0.30179E+06
 0.14781999E+03 -0.34119E+06
 0.14787000E+03 -0.38239E+06
 0.14792000E+03 -0.42341E+06
 0.14797000E+03 -0.46261E+06
 0.14802000E+03 -0.49900E+06
 0.14806999E+03 -0.53061E+06
 0.14812000E+03 -0.55497E+06
 0.14817000E+03 -0.57127E+06
 0.14822000E+03 -0.57946E+06
 0.14827000E+03 -0.57948E+06
 0.14831999E+03 -0.57343E+06
 0.14837000E+03 -0.56361E+06
 0.14842000E+03 -0.55002E+06
 0.14847000E+03 -0.53196E+06
 0.14852000E+03 -0.50984E+06
 0.14856999E+03 -0.48543E+06
 0.14862000E+03 -0.46041E+06
 0.14867000E+03 -0.43504E+06
 0.14872000E+03 -0.40869E+06
 0.14877000E+03 -0.38111E+06
 0.14881999E+03 -0.35237E+06
 0.14887000E+03 -0.32311E+06
 0.14892000E+03 -0.29410E+06
 0.14897000E+03 -0.26472E+06
 0.14902000E+03 -0.23445E+06
 0.14906999E+03 -0.20352E+06
