-0.38800001E+01 -0.16927E+06
-0.38300002E+01 -0.16358E+06
-0.37800002E+01 -0.16026E+06
-0.37300000E+01 -0.15905E+06
-0.36800001E+01 -0.15914E+06
-0.36300001E+01 -0.16171E+06
-0.35800002E+01 -0.16770E+06
-0.35300002E+01 -0.17390E+06
-0.34800000E+01 -0.18082E+06
-0.34300001E+01 -0.18911E+06
-0.33800001E+01 -0.19642E+06
-0.33300002E+01 -0.20307E+06
-0.32800002E+01 -0.20633E+06
-0.32300000E+01 -0.20705E+06
-0.31800001E+01 -0.20851E+06
-0.31300001E+01 -0.20879E+06
-0.30800002E+01 -0.20735E+06
-0.30300002E+01 -0.20498E+06
-0.29800000E+01 -0.20410E+06
-0.29300001E+01 -0.20303E+06
-0.28800001E+01 -0.20050E+06
-0.28299999E+01 -0.19995E+06
-0.27800002E+01 -0.20173E+06
-0.27300000E+01 -0.20470E+06
-0.26800001E+01 -0.20650E+06
-0.26300001E+01 -0.20844E+06
-0.25799999E+01 -0.21140E+06
-0.25300002E+01 -0.21194E+06
-0.24800000E+01 -0.20959E+06
-0.24300001E+01 -0.20587E+06
-0.23800001E+01 -0.20125E+06
-0.23299999E+01 -0.19549E+06
-0.22800002E+01 -0.18945E+06
-0.22300000E+01 -0.18417E+06
-0.21800001E+01 -0.17971E+06
-0.21300001E+01 -0.17672E+06
-0.20799999E+01 -0.17560E+06
-0.20300002E+01 -0.17532E+06
-0.19800001E+01 -0.17610E+06
-0.19300001E+01 -0.17718E+06
-0.18800001E+01 -0.17854E+06
-0.18300002E+01 -0.18103E+06
-0.17800000E+01 -0.18392E+06
-0.17300000E+01 -0.18783E+06
-0.16800001E+01 -0.19197E+06
-0.16300001E+01 -0.19596E+06
-0.15800002E+01 -0.19849E+06
-0.15300000E+01 -0.20140E+06
-0.14800000E+01 -0.20519E+06
-0.14300001E+01 -0.20455E+06
-0.13800001E+01 -0.20348E+06
-0.13300002E+01 -0.20247E+06
-0.12800000E+01 -0.19913E+06
-0.12300000E+01 -0.19644E+06
-0.11800001E+01 -0.19583E+06
-0.11300001E+01 -0.19548E+06
-0.10800002E+01 -0.19356E+06
-0.10300000E+01 -0.19118E+06
-0.98000002E+00 -0.18456E+06
-0.93000007E+00 -0.18301E+06
-0.88000011E+00 -0.18419E+06
-0.83000016E+00 -0.17968E+06
-0.77999997E+00 -0.18135E+06
-0.73000002E+00 -0.18501E+06
-0.68000007E+00 -0.19025E+06
-0.63000011E+00 -0.19611E+06
-0.58000016E+00 -0.20176E+06
-0.52999997E+00 -0.21133E+06
-0.48000002E+00 -0.21862E+06
-0.43000007E+00 -0.22371E+06
-0.38000011E+00 -0.22372E+06
-0.33000016E+00 -0.22334E+06
-0.27999997E+00 -0.22458E+06
-0.23000002E+00 -0.22132E+06
-0.18000007E+00 -0.22041E+06
-0.13000011E+00 -0.22092E+06
-0.80000162E-01 -0.21559E+06
-0.29999971E-01 -0.20997E+06
 0.19999981E-01 -0.20696E+06
 0.69999933E-01 -0.20087E+06
 0.11999989E+00 -0.19203E+06
 0.17000008E+00 -0.18479E+06
 0.21999979E+00 -0.17839E+06
 0.26999998E+00 -0.17579E+06
 0.32000017E+00 -0.17577E+06
 0.36999989E+00 -0.17214E+06
 0.42000008E+00 -0.17035E+06
 0.46999979E+00 -0.16914E+06
 0.51999998E+00 -0.16849E+06
 0.57000017E+00 -0.17026E+06
 0.61999989E+00 -0.17210E+06
 0.67000008E+00 -0.17574E+06
 0.71999979E+00 -0.17839E+06
 0.76999998E+00 -0.18313E+06
 0.82000017E+00 -0.18905E+06
 0.86999989E+00 -0.19272E+06
 0.92000008E+00 -0.19726E+06
 0.96999979E+00 -0.20056E+06
 0.10200000E+01 -0.20398E+06
 0.10700002E+01 -0.20846E+06
 0.11199999E+01 -0.20996E+06
 0.11700001E+01 -0.21108E+06
 0.12199998E+01 -0.21294E+06
 0.12700000E+01 -0.21261E+06
 0.13200002E+01 -0.21273E+06
 0.13699999E+01 -0.21248E+06
 0.14200001E+01 -0.20993E+06
 0.14699998E+01 -0.20832E+06
 0.15200000E+01 -0.20690E+06
 0.15700002E+01 -0.20687E+06
 0.16199999E+01 -0.20542E+06
 0.16700001E+01 -0.20012E+06
 0.17199998E+01 -0.19702E+06
 0.17700000E+01 -0.19462E+06
 0.18200002E+01 -0.19192E+06
 0.18699999E+01 -0.18937E+06
 0.19200001E+01 -0.18718E+06
 0.19699998E+01 -0.18571E+06
 0.20200000E+01 -0.18335E+06
 0.20700002E+01 -0.17944E+06
 0.21199999E+01 -0.17575E+06
 0.21700001E+01 -0.17304E+06
 0.22199998E+01 -0.16804E+06
 0.22700000E+01 -0.16306E+06
 0.23200002E+01 -0.15727E+06
 0.23699999E+01 -0.15184E+06
 0.24200001E+01 -0.14767E+06
 0.24699998E+01 -0.14065E+06
 0.25200000E+01 -0.13558E+06
 0.25700002E+01 -0.13186E+06
 0.26199999E+01 -0.12861E+06
 0.26700001E+01 -0.12755E+06
 0.27199998E+01 -0.12643E+06
 0.27700000E+01 -0.12557E+06
 0.28200002E+01 -0.12498E+06
 0.28699999E+01 -0.12533E+06
 0.29200001E+01 -0.12781E+06
 0.29699998E+01 -0.12840E+06
 0.30200000E+01 -0.12689E+06
 0.30700002E+01 -0.13036E+06
 0.31199999E+01 -0.13205E+06
 0.31700001E+01 -0.14220E+06
 0.32199998E+01 -0.13380E+06
 0.32700000E+01 -0.14916E+06
 0.33200002E+01 -0.14460E+06
 0.33699999E+01 -0.14921E+06
 0.34200001E+01 -0.16252E+06
 0.34699998E+01 -0.14412E+06
 0.35200000E+01 -0.18437E+06
 0.35700002E+01 -0.13116E+06
 0.36199999E+01 -0.20181E+06
 0.36700001E+01 -0.13657E+06
 0.37199998E+01 -0.22336E+06
 0.37700000E+01 -0.20076E+06
 0.38200002E+01 -0.16989E+06
 0.38699999E+01 -0.26628E+06
 0.39200001E+01 -0.14489E+05
 0.39699998E+01 -0.32700E+03
 0.40200000E+01  0.36984E+07
 0.40700002E+01  0.89959E+07
 0.41199999E+01  0.72575E+07
 0.41700001E+01  0.19524E+06
 0.42200003E+01 -0.38880E+06
 0.42700005E+01  0.67861E+07
 0.43199997E+01  0.41230E+07
 0.43699999E+01 -0.32514E+07
 0.44200001E+01  0.97900E+06
 0.44700003E+01 -0.22891E+06
 0.45200005E+01 -0.56225E+07
 0.45699997E+01  0.18108E+06
 0.46199999E+01  0.21532E+07
 0.46700001E+01 -0.11988E+07
 0.47200003E+01  0.15052E+07
 0.47700005E+01  0.44310E+07
 0.48199997E+01  0.63647E+07
 0.48699999E+01  0.18373E+08
 0.49200001E+01  0.23217E+08
 0.49700003E+01  0.12000E+08
 0.50200005E+01  0.91135E+07
 0.50699997E+01  0.53151E+05
 0.51199999E+01 -0.47277E+07
 0.51700001E+01  0.89129E+07
 0.52200003E+01  0.58394E+07
 0.52700005E+01 -0.19013E+07
 0.53199997E+01  0.26190E+07
 0.53699999E+01  0.10852E+08
 0.54200001E+01  0.18684E+07
 0.54700003E+01 -0.11463E+08
 0.55200005E+01 -0.42879E+07
 0.55699997E+01 -0.11735E+07
 0.56199999E+01 -0.27878E+07
 0.56700001E+01 -0.15974E+07
 0.57200003E+01  0.11635E+08
 0.57700005E+01  0.32713E+07
 0.58199997E+01 -0.17382E+08
 0.58699999E+01 -0.33195E+07
 0.59200001E+01 -0.28055E+07
 0.59700003E+01  0.61487E+06
 0.60200005E+01  0.77896E+07
 0.60699997E+01  0.31418E+07
 0.61199999E+01  0.91474E+07
 0.61700001E+01 -0.82570E+06
 0.62200003E+01 -0.80640E+07
 0.62700005E+01 -0.11036E+08
 0.63199997E+01 -0.14420E+08
 0.63699999E+01 -0.41756E+07
 0.64200001E+01  0.65322E+07
 0.64700003E+01  0.64947E+07
 0.65200005E+01 -0.95948E+07
 0.65699997E+01 -0.71764E+07
 0.66199999E+01  0.43529E+06
 0.66700001E+01 -0.12915E+08
 0.67200003E+01 -0.18278E+07
 0.67700005E+01  0.63088E+07
 0.68199997E+01 -0.12249E+08
 0.68699999E+01 -0.94833E+07
 0.69200001E+01 -0.26204E+07
 0.69700003E+01 -0.74038E+07
 0.70200005E+01 -0.35576E+07
 0.70699997E+01  0.40860E+07
 0.71199999E+01  0.36159E+07
 0.71700001E+01  0.33305E+07
 0.72200003E+01  0.33398E+07
 0.72700005E+01 -0.12943E+08
 0.73199997E+01 -0.10483E+08
 0.73699999E+01  0.65613E+07
 0.74200001E+01  0.10736E+07
 0.74700003E+01  0.15923E+07
 0.75200005E+01  0.72788E+07
 0.75699997E+01 -0.52368E+07
 0.76199999E+01 -0.22817E+08
 0.76700001E+01 -0.24764E+08
 0.77200003E+01 -0.18670E+08
 0.77700005E+01 -0.17172E+08
 0.78199997E+01 -0.12261E+08
 0.78699999E+01 -0.12630E+08
 0.79200001E+01 -0.25159E+08
 0.79700003E+01 -0.27833E+08
 0.80200005E+01 -0.31394E+08
 0.80699997E+01 -0.33650E+08
 0.81199999E+01 -0.25330E+08
 0.81700001E+01 -0.32425E+08
 0.82200003E+01 -0.28435E+08
 0.82700005E+01 -0.15674E+08
 0.83199997E+01 -0.15867E+08
 0.83699999E+01 -0.11841E+08
 0.84200001E+01 -0.66396E+07
 0.84700003E+01 -0.47335E+07
 0.85200005E+01 -0.34412E+07
 0.85699997E+01 -0.78860E+07
 0.86199999E+01 -0.14013E+08
 0.86700001E+01 -0.83922E+07
 0.87200003E+01 -0.32385E+06
 0.87700005E+01 -0.27551E+07
 0.88199997E+01 -0.12194E+08
 0.88699999E+01 -0.16992E+08
 0.89200001E+01 -0.18050E+08
 0.89700003E+01 -0.18335E+08
 0.90200005E+01 -0.14888E+08
 0.90699997E+01 -0.13205E+08
 0.91199999E+01 -0.35649E+07
 0.91700001E+01  0.37593E+07
 0.92200003E+01  0.48572E+07
 0.92700005E+01  0.92619E+07
 0.93199997E+01 -0.80182E+07
 0.93699999E+01 -0.14228E+08
 0.94200001E+01 -0.64337E+06
 0.94700003E+01 -0.27417E+07
 0.95200005E+01 -0.79524E+07
 0.95699997E+01 -0.15600E+08
 0.96199999E+01 -0.19247E+08
 0.96700001E+01 -0.23581E+08
 0.97200003E+01 -0.28970E+08
 0.97700005E+01 -0.21749E+08
 0.98199997E+01 -0.14354E+08
 0.98699999E+01 -0.14681E+08
 0.99200001E+01 -0.19783E+08
 0.99700003E+01 -0.19337E+08
 0.10020000E+02 -0.19239E+08
 0.10070000E+02 -0.22327E+08
 0.10120000E+02 -0.23002E+08
 0.10170000E+02 -0.25511E+08
 0.10220000E+02 -0.23466E+08
 0.10270000E+02 -0.33034E+08
 0.10320000E+02 -0.31394E+08
 0.10370000E+02 -0.18995E+08
 0.10420000E+02 -0.34358E+08
 0.10470000E+02 -0.36462E+08
 0.10520000E+02 -0.35125E+08
 0.10570000E+02 -0.34209E+08
 0.10620000E+02 -0.27882E+08
 0.10670000E+02 -0.37703E+08
 0.10720000E+02 -0.38907E+08
 0.10770000E+02 -0.38274E+08
 0.10820000E+02 -0.39184E+08
 0.10870000E+02 -0.38237E+08
 0.10920000E+02 -0.39134E+08
 0.10970000E+02 -0.38393E+08
 0.11020000E+02 -0.38952E+08
 0.11070000E+02 -0.38598E+08
 0.11120000E+02 -0.38736E+08
 0.11170000E+02 -0.38810E+08
 0.11220000E+02 -0.38665E+08
 0.11270000E+02 -0.38796E+08
 0.11320000E+02 -0.38728E+08
 0.11370000E+02 -0.38821E+08
 0.11420000E+02 -0.38707E+08
 0.11470000E+02 -0.38842E+08
 0.11520000E+02 -0.38910E+08
 0.11570000E+02 -0.38885E+08
 0.11620000E+02 -0.38782E+08
 0.11670000E+02 -0.38773E+08
 0.11720000E+02 -0.38620E+08
 0.11770000E+02 -0.38695E+08
 0.11820000E+02 -0.38771E+08
 0.11870000E+02 -0.38670E+08
 0.11920000E+02 -0.38896E+08
 0.11970000E+02 -0.38552E+08
 0.12020000E+02 -0.39150E+08
 0.12070000E+02 -0.37942E+08
 0.12120000E+02 -0.36740E+08
 0.12170001E+02 -0.38773E+08
 0.12220000E+02 -0.38842E+08
 0.12270000E+02 -0.38631E+08
 0.12320001E+02 -0.38885E+08
 0.12370000E+02 -0.38681E+08
 0.12420001E+02 -0.38885E+08
 0.12470000E+02 -0.38584E+08
 0.12520000E+02 -0.38802E+08
 0.12570001E+02 -0.38736E+08
 0.12620000E+02 -0.38899E+08
 0.12670001E+02 -0.38956E+08
 0.12720000E+02 -0.38791E+08
 0.12770000E+02 -0.39101E+08
 0.12820001E+02 -0.35086E+08
 0.12870000E+02 -0.33967E+08
 0.12920001E+02 -0.38395E+08
 0.12970000E+02 -0.38906E+08
 0.13020000E+02 -0.38695E+08
 0.13070001E+02 -0.38953E+08
 0.13120000E+02 -0.38870E+08
 0.13170001E+02 -0.38978E+08
 0.13220000E+02 -0.38827E+08
 0.13270000E+02 -0.38853E+08
 0.13320001E+02 -0.38931E+08
 0.13370000E+02 -0.38831E+08
 0.13420001E+02 -0.36416E+08
 0.13470000E+02 -0.36466E+08
 0.13520000E+02 -0.38973E+08
 0.13570001E+02 -0.38868E+08
 0.13620000E+02 -0.38572E+08
 0.13670001E+02 -0.38951E+08
 0.13720000E+02 -0.38994E+08
 0.13770000E+02 -0.38994E+08
 0.13820001E+02 -0.38930E+08
 0.13870000E+02 -0.38823E+08
 0.13920001E+02 -0.39003E+08
 0.13970000E+02 -0.38938E+08
 0.14020000E+02 -0.39050E+08
 0.14070001E+02 -0.38694E+08
 0.14120000E+02 -0.38819E+08
 0.14170001E+02 -0.38746E+08
 0.14220000E+02 -0.38576E+08
 0.14270000E+02 -0.39315E+08
 0.14320001E+02 -0.36499E+08
 0.14370000E+02 -0.36895E+08
 0.14420001E+02 -0.39440E+08
 0.14470000E+02 -0.38556E+08
 0.14520000E+02 -0.38883E+08
 0.14570001E+02 -0.38849E+08
 0.14620000E+02 -0.38939E+08
 0.14670001E+02 -0.39044E+08
 0.14720000E+02 -0.38857E+08
 0.14770000E+02 -0.38934E+08
 0.14820001E+02 -0.38809E+08
 0.14870000E+02 -0.38996E+08
 0.14920001E+02 -0.38890E+08
 0.14970000E+02 -0.38841E+08
 0.15020000E+02 -0.38804E+08
 0.15070001E+02 -0.38845E+08
 0.15120000E+02 -0.38925E+08
 0.15170001E+02 -0.38930E+08
 0.15220000E+02 -0.38900E+08
 0.15270000E+02 -0.38908E+08
 0.15320001E+02 -0.38864E+08
 0.15370000E+02 -0.38912E+08
 0.15420001E+02 -0.38908E+08
 0.15470000E+02 -0.38559E+08
 0.15520000E+02 -0.38801E+08
 0.15570001E+02 -0.38965E+08
 0.15620000E+02 -0.38822E+08
 0.15670001E+02 -0.38826E+08
 0.15720000E+02 -0.38738E+08
 0.15770000E+02 -0.38786E+08
 0.15820001E+02 -0.38755E+08
 0.15870000E+02 -0.38781E+08
 0.15920001E+02 -0.38804E+08
 0.15970000E+02 -0.38935E+08
 0.16020000E+02 -0.38909E+08
 0.16070000E+02 -0.39111E+08
 0.16119999E+02 -0.37951E+08
 0.16170002E+02 -0.34768E+08
 0.16220001E+02 -0.33776E+08
 0.16270000E+02 -0.32504E+08
 0.16320000E+02 -0.32854E+08
 0.16369999E+02 -0.37247E+08
 0.16420002E+02 -0.38664E+08
 0.16470001E+02 -0.39171E+08
 0.16520000E+02 -0.38368E+08
 0.16570000E+02 -0.36274E+08
 0.16619999E+02 -0.38032E+08
 0.16670002E+02 -0.39162E+08
 0.16720001E+02 -0.38878E+08
 0.16770000E+02 -0.39025E+08
 0.16820000E+02 -0.38865E+08
 0.16869999E+02 -0.38997E+08
 0.16920002E+02 -0.38999E+08
 0.16970001E+02 -0.39024E+08
 0.17020000E+02 -0.38925E+08
 0.17070000E+02 -0.38925E+08
 0.17119999E+02 -0.38959E+08
 0.17170002E+02 -0.38982E+08
 0.17220001E+02 -0.38956E+08
 0.17270000E+02 -0.38903E+08
 0.17320000E+02 -0.38954E+08
 0.17369999E+02 -0.38830E+08
 0.17420002E+02 -0.39058E+08
 0.17470001E+02 -0.38805E+08
 0.17520000E+02 -0.39188E+08
 0.17570000E+02 -0.37756E+08
 0.17619999E+02 -0.34502E+08
 0.17670002E+02 -0.35257E+08
 0.17720001E+02 -0.37051E+08
 0.17770000E+02 -0.37956E+08
 0.17820000E+02 -0.38583E+08
 0.17869999E+02 -0.38740E+08
 0.17920002E+02 -0.39043E+08
 0.17970001E+02 -0.38909E+08
 0.18020000E+02 -0.38891E+08
 0.18070000E+02 -0.38901E+08
 0.18119999E+02 -0.38885E+08
 0.18170002E+02 -0.38872E+08
 0.18220001E+02 -0.39004E+08
 0.18270000E+02 -0.38575E+08
 0.18320000E+02 -0.35930E+08
 0.18369999E+02 -0.34191E+08
 0.18420002E+02 -0.37037E+08
 0.18470001E+02 -0.39129E+08
 0.18520000E+02 -0.39022E+08
 0.18570000E+02 -0.38606E+08
 0.18619999E+02 -0.35806E+08
 0.18670002E+02 -0.34007E+08
 0.18720001E+02 -0.32087E+08
 0.18770000E+02 -0.29076E+08
 0.18820000E+02 -0.29492E+08
 0.18869999E+02 -0.31022E+08
 0.18920002E+02 -0.31934E+08
 0.18970001E+02 -0.33209E+08
 0.19020000E+02 -0.34708E+08
 0.19070000E+02 -0.37144E+08
 0.19119999E+02 -0.36880E+08
 0.19170002E+02 -0.33977E+08
 0.19220001E+02 -0.34051E+08
 0.19270000E+02 -0.34610E+08
 0.19320000E+02 -0.33641E+08
 0.19369999E+02 -0.33817E+08
 0.19420002E+02 -0.35537E+08
 0.19470001E+02 -0.36644E+08
 0.19520000E+02 -0.37074E+08
 0.19570000E+02 -0.38365E+08
 0.19619999E+02 -0.39013E+08
 0.19670002E+02 -0.38954E+08
 0.19720001E+02 -0.38896E+08
 0.19770000E+02 -0.37985E+08
 0.19820000E+02 -0.36235E+08
 0.19869999E+02 -0.37068E+08
 0.19920002E+02 -0.39073E+08
 0.19970001E+02 -0.38980E+08
 0.20020000E+02 -0.39002E+08
 0.20070000E+02 -0.39060E+08
 0.20119999E+02 -0.38962E+08
 0.20170002E+02 -0.38973E+08
 0.20220001E+02 -0.38973E+08
 0.20270000E+02 -0.38969E+08
 0.20320000E+02 -0.38762E+08
 0.20369999E+02 -0.36155E+08
 0.20420002E+02 -0.33100E+08
 0.20470001E+02 -0.35469E+08
 0.20520000E+02 -0.38546E+08
 0.20570000E+02 -0.38909E+08
 0.20619999E+02 -0.38909E+08
 0.20670002E+02 -0.38881E+08
 0.20720001E+02 -0.39014E+08
 0.20770000E+02 -0.38970E+08
 0.20820000E+02 -0.39113E+08
 0.20869999E+02 -0.38869E+08
 0.20920002E+02 -0.39198E+08
 0.20970001E+02 -0.37598E+08
 0.21020000E+02 -0.33515E+08
 0.21070000E+02 -0.33086E+08
 0.21119999E+02 -0.35339E+08
 0.21170002E+02 -0.36193E+08
 0.21220001E+02 -0.33850E+08
 0.21270000E+02 -0.30271E+08
 0.21320000E+02 -0.27226E+08
 0.21369999E+02 -0.26741E+08
 0.21420002E+02 -0.29139E+08
 0.21470001E+02 -0.28281E+08
 0.21520000E+02 -0.27458E+08
 0.21570000E+02 -0.28626E+08
 0.21619999E+02 -0.27684E+08
 0.21670002E+02 -0.28439E+08
 0.21720001E+02 -0.31776E+08
 0.21770000E+02 -0.33450E+08
 0.21820000E+02 -0.33327E+08
 0.21869999E+02 -0.32914E+08
 0.21920002E+02 -0.31878E+08
 0.21970001E+02 -0.32408E+08
 0.22020000E+02 -0.32628E+08
 0.22070000E+02 -0.31544E+08
 0.22119999E+02 -0.33451E+08
 0.22170002E+02 -0.35497E+08
 0.22220001E+02 -0.35536E+08
 0.22270000E+02 -0.35657E+08
 0.22320000E+02 -0.36091E+08
 0.22369999E+02 -0.37040E+08
 0.22420002E+02 -0.38538E+08
 0.22470001E+02 -0.38987E+08
 0.22520000E+02 -0.38018E+08
 0.22570000E+02 -0.37385E+08
 0.22619999E+02 -0.36653E+08
 0.22670002E+02 -0.34960E+08
 0.22720001E+02 -0.33809E+08
 0.22770000E+02 -0.32060E+08
 0.22820000E+02 -0.29664E+08
 0.22869999E+02 -0.28468E+08
 0.22920002E+02 -0.27720E+08
 0.22970001E+02 -0.28336E+08
 0.23020000E+02 -0.28983E+08
 0.23070000E+02 -0.29704E+08
 0.23119999E+02 -0.29859E+08
 0.23170002E+02 -0.28517E+08
 0.23220001E+02 -0.29822E+08
 0.23270000E+02 -0.31960E+08
 0.23320000E+02 -0.33778E+08
 0.23369999E+02 -0.35505E+08
 0.23420002E+02 -0.35189E+08
 0.23470001E+02 -0.34104E+08
 0.23520000E+02 -0.32950E+08
 0.23570000E+02 -0.31514E+08
 0.23619999E+02 -0.30190E+08
 0.23670002E+02 -0.30645E+08
 0.23720001E+02 -0.32343E+08
 0.23770000E+02 -0.32372E+08
 0.23820000E+02 -0.32785E+08
 0.23869999E+02 -0.34370E+08
 0.23920002E+02 -0.33874E+08
 0.23970001E+02 -0.32946E+08
 0.24020000E+02 -0.33120E+08
 0.24070000E+02 -0.31867E+08
 0.24119999E+02 -0.29343E+08
 0.24170002E+02 -0.27913E+08
 0.24220001E+02 -0.27417E+08
 0.24270000E+02 -0.27198E+08
 0.24320000E+02 -0.27652E+08
 0.24369999E+02 -0.27570E+08
 0.24420002E+02 -0.26439E+08
 0.24470001E+02 -0.25929E+08
 0.24520000E+02 -0.26440E+08
 0.24570000E+02 -0.26635E+08
 0.24619999E+02 -0.25959E+08
 0.24670002E+02 -0.26578E+08
 0.24720001E+02 -0.27990E+08
 0.24770000E+02 -0.27485E+08
 0.24820000E+02 -0.27810E+08
 0.24869999E+02 -0.29628E+08
 0.24920002E+02 -0.30013E+08
 0.24970001E+02 -0.29761E+08
 0.25020000E+02 -0.30916E+08
 0.25070000E+02 -0.33284E+08
 0.25119999E+02 -0.34174E+08
 0.25170002E+02 -0.33989E+08
 0.25220001E+02 -0.33761E+08
 0.25270000E+02 -0.33018E+08
 0.25320000E+02 -0.32850E+08
 0.25369999E+02 -0.30936E+08
 0.25420002E+02 -0.29186E+08
 0.25470001E+02 -0.29262E+08
 0.25520000E+02 -0.27756E+08
 0.25570000E+02 -0.27036E+08
 0.25619999E+02 -0.26384E+08
 0.25670002E+02 -0.25794E+08
 0.25720001E+02 -0.26087E+08
 0.25770000E+02 -0.25103E+08
 0.25820000E+02 -0.26011E+08
 0.25869999E+02 -0.28432E+08
 0.25920002E+02 -0.29922E+08
 0.25970001E+02 -0.31162E+08
 0.26020000E+02 -0.32250E+08
 0.26070000E+02 -0.32189E+08
 0.26119999E+02 -0.31428E+08
 0.26170002E+02 -0.30747E+08
 0.26220001E+02 -0.29136E+08
 0.26270000E+02 -0.27943E+08
 0.26320000E+02 -0.27349E+08
 0.26369999E+02 -0.25810E+08
 0.26420002E+02 -0.23962E+08
 0.26470001E+02 -0.22721E+08
 0.26520000E+02 -0.21903E+08
 0.26570000E+02 -0.21573E+08
 0.26619999E+02 -0.22580E+08
 0.26670002E+02 -0.23358E+08
 0.26720001E+02 -0.23619E+08
 0.26770000E+02 -0.24752E+08
 0.26820000E+02 -0.26471E+08
 0.26869999E+02 -0.28821E+08
 0.26920002E+02 -0.28997E+08
 0.26970001E+02 -0.27792E+08
 0.27020000E+02 -0.28422E+08
 0.27070000E+02 -0.29738E+08
 0.27119999E+02 -0.31166E+08
 0.27170002E+02 -0.30743E+08
 0.27220001E+02 -0.29592E+08
 0.27270000E+02 -0.29614E+08
 0.27320000E+02 -0.28573E+08
 0.27369999E+02 -0.27086E+08
 0.27420002E+02 -0.26388E+08
 0.27470001E+02 -0.25843E+08
 0.27520000E+02 -0.25282E+08
 0.27570000E+02 -0.24346E+08
 0.27619999E+02 -0.23668E+08
 0.27670002E+02 -0.24134E+08
 0.27720001E+02 -0.24426E+08
 0.27770000E+02 -0.24791E+08
 0.27820000E+02 -0.25027E+08
 0.27869999E+02 -0.24706E+08
 0.27920002E+02 -0.24787E+08
 0.27970001E+02 -0.25098E+08
 0.28020000E+02 -0.25770E+08
 0.28070000E+02 -0.26443E+08
 0.28119999E+02 -0.26827E+08
 0.28169998E+02 -0.26530E+08
 0.28220001E+02 -0.26420E+08
 0.28270000E+02 -0.27157E+08
 0.28320000E+02 -0.27770E+08
 0.28369999E+02 -0.28482E+08
 0.28419998E+02 -0.28779E+08
 0.28470001E+02 -0.28515E+08
 0.28520000E+02 -0.29327E+08
 0.28570000E+02 -0.30411E+08
 0.28619999E+02 -0.30681E+08
 0.28669998E+02 -0.30949E+08
 0.28720001E+02 -0.30285E+08
 0.28770000E+02 -0.29025E+08
 0.28820000E+02 -0.28120E+08
 0.28869999E+02 -0.26844E+08
 0.28919998E+02 -0.25202E+08
 0.28970001E+02 -0.23559E+08
 0.29020000E+02 -0.22279E+08
 0.29070000E+02 -0.22245E+08
 0.29119999E+02 -0.22519E+08
 0.29169998E+02 -0.22267E+08
 0.29220001E+02 -0.22427E+08
 0.29270000E+02 -0.21568E+08
 0.29320000E+02 -0.20638E+08
 0.29369999E+02 -0.20783E+08
 0.29419998E+02 -0.20669E+08
 0.29470001E+02 -0.20668E+08
 0.29520000E+02 -0.21260E+08
 0.29570000E+02 -0.21807E+08
 0.29619999E+02 -0.21285E+08
 0.29669998E+02 -0.21608E+08
 0.29720001E+02 -0.22116E+08
 0.29770000E+02 -0.22314E+08
 0.29820000E+02 -0.23657E+08
 0.29869999E+02 -0.24313E+08
 0.29919998E+02 -0.24637E+08
 0.29970001E+02 -0.24740E+08
 0.30020000E+02 -0.25129E+08
 0.30070000E+02 -0.25433E+08
 0.30119999E+02 -0.24429E+08
 0.30169998E+02 -0.24383E+08
 0.30220001E+02 -0.24878E+08
 0.30270000E+02 -0.25394E+08
 0.30320000E+02 -0.25822E+08
 0.30369999E+02 -0.25614E+08
 0.30419998E+02 -0.25003E+08
 0.30470001E+02 -0.23419E+08
 0.30520000E+02 -0.22342E+08
 0.30570000E+02 -0.21770E+08
 0.30619999E+02 -0.21159E+08
 0.30669998E+02 -0.20859E+08
 0.30720001E+02 -0.20446E+08
 0.30770000E+02 -0.20075E+08
 0.30820000E+02 -0.20021E+08
 0.30869999E+02 -0.20525E+08
 0.30919998E+02 -0.20736E+08
 0.30970001E+02 -0.20771E+08
 0.31020000E+02 -0.20315E+08
 0.31070000E+02 -0.19371E+08
 0.31119999E+02 -0.19528E+08
 0.31169998E+02 -0.20063E+08
 0.31220001E+02 -0.20273E+08
 0.31270000E+02 -0.20121E+08
 0.31320000E+02 -0.19202E+08
 0.31369999E+02 -0.17975E+08
 0.31419998E+02 -0.17190E+08
 0.31470001E+02 -0.16638E+08
 0.31520000E+02 -0.15908E+08
 0.31570000E+02 -0.15324E+08
 0.31619999E+02 -0.15162E+08
 0.31669998E+02 -0.14975E+08
 0.31720001E+02 -0.14216E+08
 0.31770000E+02 -0.13930E+08
 0.31820000E+02 -0.14935E+08
 0.31869999E+02 -0.16932E+08
 0.31919998E+02 -0.18706E+08
 0.31970001E+02 -0.19333E+08
 0.32020000E+02 -0.20331E+08
 0.32070000E+02 -0.21116E+08
 0.32119999E+02 -0.20916E+08
 0.32169998E+02 -0.20493E+08
 0.32220001E+02 -0.19399E+08
 0.32270000E+02 -0.19269E+08
 0.32320000E+02 -0.19733E+08
 0.32369999E+02 -0.19597E+08
 0.32419998E+02 -0.20151E+08
 0.32470001E+02 -0.20563E+08
 0.32520000E+02 -0.20681E+08
 0.32570000E+02 -0.20968E+08
 0.32619999E+02 -0.21335E+08
 0.32669998E+02 -0.22112E+08
 0.32720001E+02 -0.22718E+08
 0.32770000E+02 -0.23167E+08
 0.32820000E+02 -0.23163E+08
 0.32869999E+02 -0.22680E+08
 0.32919998E+02 -0.22583E+08
 0.32970001E+02 -0.22335E+08
 0.33020000E+02 -0.21508E+08
 0.33070000E+02 -0.20517E+08
 0.33119999E+02 -0.19903E+08
 0.33169998E+02 -0.19767E+08
 0.33220001E+02 -0.19915E+08
 0.33270000E+02 -0.20487E+08
 0.33320000E+02 -0.20811E+08
 0.33369999E+02 -0.20474E+08
 0.33419998E+02 -0.20242E+08
 0.33470001E+02 -0.19653E+08
 0.33520000E+02 -0.18485E+08
 0.33570000E+02 -0.17844E+08
 0.33619999E+02 -0.17516E+08
 0.33669998E+02 -0.17064E+08
 0.33720001E+02 -0.16849E+08
 0.33770000E+02 -0.16818E+08
 0.33820000E+02 -0.16746E+08
 0.33869999E+02 -0.16740E+08
 0.33919998E+02 -0.16687E+08
 0.33970001E+02 -0.16701E+08
 0.34020000E+02 -0.16973E+08
 0.34070000E+02 -0.17124E+08
 0.34119999E+02 -0.16955E+08
 0.34169998E+02 -0.16672E+08
 0.34220001E+02 -0.16487E+08
 0.34270000E+02 -0.16500E+08
 0.34320000E+02 -0.16727E+08
 0.34369999E+02 -0.17003E+08
 0.34419998E+02 -0.17266E+08
 0.34470001E+02 -0.17468E+08
 0.34520000E+02 -0.17899E+08
 0.34570000E+02 -0.18155E+08
 0.34619999E+02 -0.18129E+08
 0.34669998E+02 -0.18350E+08
 0.34720001E+02 -0.18118E+08
 0.34770000E+02 -0.17416E+08
 0.34820000E+02 -0.16660E+08
 0.34869999E+02 -0.16094E+08
 0.34919998E+02 -0.15528E+08
 0.34970001E+02 -0.15002E+08
 0.35020000E+02 -0.14775E+08
 0.35070000E+02 -0.14517E+08
 0.35119999E+02 -0.14669E+08
 0.35169998E+02 -0.14990E+08
 0.35220001E+02 -0.15360E+08
 0.35270000E+02 -0.16416E+08
 0.35320000E+02 -0.17124E+08
 0.35369999E+02 -0.16947E+08
 0.35419998E+02 -0.17265E+08
 0.35470001E+02 -0.17603E+08
 0.35520000E+02 -0.17268E+08
 0.35570000E+02 -0.17100E+08
 0.35619999E+02 -0.16895E+08
 0.35669998E+02 -0.16600E+08
 0.35720001E+02 -0.16521E+08
 0.35770000E+02 -0.16924E+08
 0.35820000E+02 -0.17066E+08
 0.35869999E+02 -0.16446E+08
 0.35919998E+02 -0.15914E+08
 0.35970001E+02 -0.15683E+08
 0.36020000E+02 -0.15877E+08
 0.36070000E+02 -0.15614E+08
 0.36119999E+02 -0.15201E+08
 0.36169998E+02 -0.15309E+08
 0.36220001E+02 -0.15351E+08
 0.36270000E+02 -0.15774E+08
 0.36320000E+02 -0.16132E+08
 0.36369999E+02 -0.16338E+08
 0.36419998E+02 -0.16522E+08
 0.36470001E+02 -0.16577E+08
 0.36520000E+02 -0.16633E+08
 0.36570000E+02 -0.16501E+08
 0.36619999E+02 -0.16713E+08
 0.36669998E+02 -0.16999E+08
 0.36720001E+02 -0.17210E+08
 0.36770000E+02 -0.17645E+08
 0.36820000E+02 -0.17678E+08
 0.36869999E+02 -0.17274E+08
 0.36919998E+02 -0.17193E+08
 0.36970001E+02 -0.17326E+08
 0.37020000E+02 -0.17263E+08
 0.37070000E+02 -0.17191E+08
 0.37119999E+02 -0.16939E+08
 0.37169998E+02 -0.16593E+08
 0.37220001E+02 -0.16299E+08
 0.37270000E+02 -0.15526E+08
 0.37320000E+02 -0.14270E+08
 0.37369999E+02 -0.12802E+08
 0.37419998E+02 -0.11515E+08
 0.37470001E+02 -0.10939E+08
 0.37520000E+02 -0.10725E+08
 0.37570000E+02 -0.10862E+08
 0.37619999E+02 -0.11308E+08
 0.37669998E+02 -0.11689E+08
 0.37720001E+02 -0.11998E+08
 0.37770000E+02 -0.11854E+08
 0.37820000E+02 -0.11757E+08
 0.37869999E+02 -0.12037E+08
 0.37919998E+02 -0.12162E+08
 0.37970001E+02 -0.12233E+08
 0.38020000E+02 -0.12112E+08
 0.38070000E+02 -0.11819E+08
 0.38119999E+02 -0.11890E+08
 0.38169998E+02 -0.12532E+08
 0.38220001E+02 -0.13160E+08
 0.38270000E+02 -0.13326E+08
 0.38320000E+02 -0.13358E+08
 0.38369999E+02 -0.13124E+08
 0.38419998E+02 -0.12786E+08
 0.38470001E+02 -0.12748E+08
 0.38520000E+02 -0.12957E+08
 0.38570000E+02 -0.13131E+08
 0.38619999E+02 -0.13400E+08
 0.38669998E+02 -0.13631E+08
 0.38720001E+02 -0.13250E+08
 0.38770000E+02 -0.13160E+08
 0.38820000E+02 -0.13045E+08
 0.38869999E+02 -0.12607E+08
 0.38919998E+02 -0.12462E+08
 0.38970001E+02 -0.11806E+08
 0.39020000E+02 -0.11042E+08
 0.39070000E+02 -0.10635E+08
 0.39119999E+02 -0.10262E+08
 0.39169998E+02 -0.10206E+08
 0.39220001E+02 -0.10560E+08
 0.39270000E+02 -0.10733E+08
 0.39320000E+02 -0.10817E+08
 0.39369999E+02 -0.11234E+08
 0.39419998E+02 -0.11472E+08
 0.39470001E+02 -0.11736E+08
 0.39520000E+02 -0.12253E+08
 0.39570000E+02 -0.12517E+08
 0.39619999E+02 -0.12445E+08
 0.39669998E+02 -0.12441E+08
 0.39720001E+02 -0.12747E+08
 0.39770000E+02 -0.13037E+08
 0.39820000E+02 -0.13031E+08
 0.39869999E+02 -0.12884E+08
 0.39919998E+02 -0.12717E+08
 0.39970001E+02 -0.12691E+08
 0.40020000E+02 -0.12857E+08
 0.40070000E+02 -0.12906E+08
 0.40119999E+02 -0.12673E+08
 0.40169998E+02 -0.12609E+08
 0.40220001E+02 -0.12839E+08
 0.40270000E+02 -0.12675E+08
 0.40320000E+02 -0.12323E+08
 0.40369999E+02 -0.12172E+08
 0.40419998E+02 -0.11935E+08
 0.40470001E+02 -0.11775E+08
 0.40520000E+02 -0.11834E+08
 0.40570000E+02 -0.11686E+08
 0.40619999E+02 -0.11268E+08
 0.40669998E+02 -0.11252E+08
 0.40720001E+02 -0.11452E+08
 0.40770000E+02 -0.11041E+08
 0.40820000E+02 -0.10266E+08
 0.40869999E+02 -0.96755E+07
 0.40919998E+02 -0.94592E+07
 0.40970001E+02 -0.95247E+07
 0.41020000E+02 -0.96596E+07
 0.41070000E+02 -0.98420E+07
 0.41119999E+02 -0.10060E+08
 0.41169998E+02 -0.10135E+08
 0.41220001E+02 -0.99916E+07
 0.41270000E+02 -0.97978E+07
 0.41320000E+02 -0.95200E+07
 0.41369999E+02 -0.92133E+07
 0.41419998E+02 -0.87926E+07
 0.41470001E+02 -0.82178E+07
 0.41520000E+02 -0.76868E+07
 0.41570000E+02 -0.72722E+07
 0.41619999E+02 -0.71087E+07
 0.41669998E+02 -0.70785E+07
 0.41720001E+02 -0.71117E+07
 0.41770000E+02 -0.70310E+07
 0.41820000E+02 -0.67938E+07
 0.41869999E+02 -0.67944E+07
 0.41919998E+02 -0.73220E+07
 0.41970001E+02 -0.81642E+07
 0.42020000E+02 -0.87102E+07
 0.42070000E+02 -0.90833E+07
 0.42119999E+02 -0.94607E+07
 0.42169998E+02 -0.97997E+07
 0.42220001E+02 -0.10194E+08
 0.42270000E+02 -0.10442E+08
 0.42320000E+02 -0.10398E+08
 0.42369999E+02 -0.10158E+08
 0.42419998E+02 -0.99890E+07
 0.42470001E+02 -0.98755E+07
 0.42520000E+02 -0.97450E+07
 0.42570000E+02 -0.96859E+07
 0.42619999E+02 -0.97500E+07
 0.42669998E+02 -0.98854E+07
 0.42720001E+02 -0.10116E+08
 0.42770000E+02 -0.10592E+08
 0.42820000E+02 -0.10994E+08
 0.42869999E+02 -0.11031E+08
 0.42919998E+02 -0.10917E+08
 0.42970001E+02 -0.10656E+08
 0.43020000E+02 -0.98861E+07
 0.43070000E+02 -0.88872E+07
 0.43119999E+02 -0.82943E+07
 0.43169998E+02 -0.79400E+07
 0.43220001E+02 -0.76757E+07
 0.43270000E+02 -0.76735E+07
 0.43320000E+02 -0.77768E+07
 0.43369999E+02 -0.77899E+07
 0.43419998E+02 -0.77002E+07
 0.43470001E+02 -0.77984E+07
 0.43520000E+02 -0.80658E+07
 0.43570000E+02 -0.81967E+07
 0.43619999E+02 -0.81307E+07
 0.43669998E+02 -0.78752E+07
 0.43720001E+02 -0.77972E+07
 0.43770000E+02 -0.79347E+07
 0.43820000E+02 -0.78781E+07
 0.43869999E+02 -0.75991E+07
 0.43919998E+02 -0.73325E+07
 0.43970001E+02 -0.72088E+07
 0.44020000E+02 -0.69055E+07
 0.44070000E+02 -0.65629E+07
 0.44119999E+02 -0.66613E+07
 0.44169998E+02 -0.68471E+07
 0.44220001E+02 -0.71965E+07
 0.44270000E+02 -0.76915E+07
 0.44320000E+02 -0.75880E+07
 0.44369999E+02 -0.71216E+07
 0.44419998E+02 -0.68447E+07
 0.44470001E+02 -0.67456E+07
 0.44520000E+02 -0.65450E+07
 0.44570000E+02 -0.61189E+07
 0.44619999E+02 -0.56575E+07
 0.44669998E+02 -0.54404E+07
 0.44720001E+02 -0.56413E+07
 0.44770000E+02 -0.60779E+07
 0.44820000E+02 -0.65584E+07
 0.44869999E+02 -0.69990E+07
 0.44919998E+02 -0.72775E+07
 0.44970001E+02 -0.74416E+07
 0.45020000E+02 -0.74192E+07
 0.45070000E+02 -0.72664E+07
 0.45119999E+02 -0.71761E+07
 0.45169998E+02 -0.69360E+07
 0.45220001E+02 -0.66558E+07
 0.45270000E+02 -0.64373E+07
 0.45320000E+02 -0.63332E+07
 0.45369999E+02 -0.65369E+07
 0.45419998E+02 -0.66594E+07
 0.45470001E+02 -0.65218E+07
 0.45520000E+02 -0.64989E+07
 0.45570000E+02 -0.66534E+07
 0.45619999E+02 -0.68023E+07
 0.45669998E+02 -0.68926E+07
 0.45720001E+02 -0.70476E+07
 0.45770000E+02 -0.74518E+07
 0.45820000E+02 -0.77721E+07
 0.45869999E+02 -0.76646E+07
 0.45919998E+02 -0.73998E+07
 0.45970001E+02 -0.71255E+07
 0.46020000E+02 -0.68967E+07
 0.46070000E+02 -0.69483E+07
 0.46119999E+02 -0.69675E+07
 0.46169998E+02 -0.67899E+07
 0.46220001E+02 -0.67322E+07
 0.46270000E+02 -0.68431E+07
 0.46320000E+02 -0.70908E+07
 0.46369999E+02 -0.72960E+07
 0.46419998E+02 -0.73755E+07
 0.46470001E+02 -0.73371E+07
 0.46520000E+02 -0.72756E+07
 0.46570000E+02 -0.71722E+07
 0.46619999E+02 -0.68566E+07
 0.46669998E+02 -0.66368E+07
 0.46720001E+02 -0.64359E+07
 0.46770000E+02 -0.60600E+07
 0.46820000E+02 -0.57676E+07
 0.46869999E+02 -0.52772E+07
 0.46919998E+02 -0.46313E+07
 0.46970001E+02 -0.42311E+07
 0.47020000E+02 -0.38811E+07
 0.47070000E+02 -0.37138E+07
 0.47119999E+02 -0.37930E+07
 0.47169998E+02 -0.39719E+07
 0.47220001E+02 -0.40452E+07
 0.47270000E+02 -0.38048E+07
 0.47320000E+02 -0.36589E+07
 0.47369999E+02 -0.37106E+07
 0.47419998E+02 -0.37301E+07
 0.47470001E+02 -0.35381E+07
 0.47520000E+02 -0.32489E+07
 0.47570000E+02 -0.30436E+07
 0.47619999E+02 -0.28505E+07
 0.47669998E+02 -0.26511E+07
 0.47720001E+02 -0.24094E+07
 0.47770000E+02 -0.23481E+07
 0.47820000E+02 -0.25078E+07
 0.47869999E+02 -0.27524E+07
 0.47919998E+02 -0.29821E+07
 0.47970001E+02 -0.31237E+07
 0.48020000E+02 -0.33749E+07
 0.48070000E+02 -0.37973E+07
 0.48119999E+02 -0.41601E+07
 0.48169998E+02 -0.42345E+07
 0.48220001E+02 -0.43164E+07
 0.48270000E+02 -0.45426E+07
 0.48320000E+02 -0.45322E+07
 0.48369999E+02 -0.43973E+07
 0.48419998E+02 -0.43381E+07
 0.48470001E+02 -0.42493E+07
 0.48520000E+02 -0.41193E+07
 0.48570000E+02 -0.41249E+07
 0.48619999E+02 -0.42851E+07
 0.48669998E+02 -0.44266E+07
 0.48720001E+02 -0.47031E+07
 0.48770000E+02 -0.51303E+07
 0.48820000E+02 -0.57506E+07
 0.48869999E+02 -0.64732E+07
 0.48919998E+02 -0.68957E+07
 0.48970001E+02 -0.71828E+07
 0.49020000E+02 -0.73432E+07
 0.49070000E+02 -0.73388E+07
 0.49119999E+02 -0.71221E+07
 0.49169998E+02 -0.65514E+07
 0.49220001E+02 -0.60130E+07
 0.49270000E+02 -0.55155E+07
 0.49320000E+02 -0.50461E+07
 0.49369999E+02 -0.46431E+07
 0.49419998E+02 -0.40600E+07
 0.49470001E+02 -0.35280E+07
 0.49520000E+02 -0.31892E+07
 0.49570000E+02 -0.28083E+07
 0.49619999E+02 -0.23955E+07
 0.49669998E+02 -0.22921E+07
 0.49720001E+02 -0.24596E+07
 0.49770000E+02 -0.25447E+07
 0.49820000E+02 -0.26345E+07
 0.49869999E+02 -0.27914E+07
 0.49919998E+02 -0.29192E+07
 0.49970001E+02 -0.29430E+07
 0.50020000E+02 -0.28766E+07
 0.50070000E+02 -0.28613E+07
 0.50119999E+02 -0.27634E+07
 0.50169998E+02 -0.25702E+07
 0.50220001E+02 -0.23393E+07
 0.50270000E+02 -0.21370E+07
 0.50320000E+02 -0.20473E+07
 0.50369999E+02 -0.20392E+07
 0.50419998E+02 -0.20594E+07
 0.50470001E+02 -0.19639E+07
 0.50520000E+02 -0.18888E+07
 0.50570000E+02 -0.17817E+07
 0.50619999E+02 -0.17064E+07
 0.50669998E+02 -0.17766E+07
 0.50720001E+02 -0.18408E+07
 0.50770000E+02 -0.19660E+07
 0.50820000E+02 -0.20364E+07
 0.50869999E+02 -0.20810E+07
 0.50919998E+02 -0.22016E+07
 0.50970001E+02 -0.23091E+07
 0.51020000E+02 -0.22013E+07
 0.51070000E+02 -0.19086E+07
 0.51119999E+02 -0.16450E+07
 0.51169998E+02 -0.13282E+07
 0.51220001E+02 -0.10833E+07
 0.51270000E+02 -0.10354E+07
 0.51320000E+02 -0.11348E+07
 0.51369999E+02 -0.12664E+07
 0.51419998E+02 -0.13071E+07
 0.51470001E+02 -0.12494E+07
 0.51520000E+02 -0.12224E+07
 0.51570000E+02 -0.12814E+07
 0.51619999E+02 -0.10616E+07
 0.51669998E+02 -0.73408E+06
 0.51720001E+02 -0.64050E+06
 0.51770000E+02 -0.71650E+06
 0.51820000E+02 -0.10411E+07
 0.51869999E+02 -0.14190E+07
 0.51919998E+02 -0.15510E+07
 0.51970001E+02 -0.14349E+07
 0.52020000E+02 -0.14203E+07
 0.52070000E+02 -0.15816E+07
 0.52119999E+02 -0.17261E+07
 0.52169998E+02 -0.19982E+07
 0.52220001E+02 -0.22181E+07
 0.52270000E+02 -0.22295E+07
 0.52320000E+02 -0.21837E+07
 0.52369999E+02 -0.20948E+07
 0.52419998E+02 -0.20017E+07
 0.52470001E+02 -0.18528E+07
 0.52520000E+02 -0.15733E+07
 0.52570000E+02 -0.13207E+07
 0.52619999E+02 -0.12446E+07
 0.52669998E+02 -0.13482E+07
 0.52720001E+02 -0.15307E+07
 0.52770000E+02 -0.17061E+07
 0.52820000E+02 -0.20942E+07
 0.52869999E+02 -0.25053E+07
 0.52919998E+02 -0.25766E+07
 0.52970001E+02 -0.24887E+07
 0.53020000E+02 -0.22974E+07
 0.53070000E+02 -0.19747E+07
 0.53119999E+02 -0.16541E+07
 0.53169998E+02 -0.14423E+07
 0.53220001E+02 -0.12421E+07
 0.53270000E+02 -0.10520E+07
 0.53320000E+02 -0.84112E+06
 0.53369999E+02 -0.54034E+06
 0.53419998E+02 -0.33785E+06
 0.53470001E+02 -0.12953E+06
 0.53520000E+02  0.11411E+06
 0.53570000E+02  0.20042E+06
 0.53619999E+02  0.31447E+06
 0.53669998E+02  0.56648E+06
 0.53720001E+02  0.78523E+06
 0.53770000E+02  0.10009E+07
 0.53820000E+02  0.11710E+07
 0.53869999E+02  0.12224E+07
 0.53919998E+02  0.13208E+07
 0.53970001E+02  0.14127E+07
 0.54020000E+02  0.13513E+07
 0.54070000E+02  0.12342E+07
 0.54119999E+02  0.11450E+07
 0.54169998E+02  0.10618E+07
 0.54220001E+02  0.10281E+07
 0.54270000E+02  0.10816E+07
 0.54320000E+02  0.11903E+07
 0.54369999E+02  0.11944E+07
 0.54419998E+02  0.11212E+07
 0.54470001E+02  0.11130E+07
 0.54520000E+02  0.10460E+07
 0.54570000E+02  0.92907E+06
 0.54619999E+02  0.79527E+06
 0.54669998E+02  0.58664E+06
 0.54720001E+02  0.36293E+06
 0.54770000E+02  0.22933E+06
 0.54820000E+02  0.20924E+06
 0.54869999E+02  0.16410E+06
 0.54919998E+02  0.64071E+05
 0.54970001E+02 -0.53691E+05
 0.55020000E+02 -0.15872E+06
 0.55070000E+02 -0.23711E+06
 0.55119999E+02 -0.38483E+06
 0.55169998E+02 -0.47285E+06
 0.55220001E+02 -0.55272E+06
 0.55270000E+02 -0.73247E+06
 0.55320000E+02 -0.82857E+06
 0.55369999E+02 -0.85342E+06
 0.55419998E+02 -0.72050E+06
 0.55470001E+02 -0.41674E+06
 0.55520000E+02 -0.19997E+05
 0.55570000E+02  0.39355E+06
 0.55619999E+02  0.72370E+06
 0.55669998E+02  0.91961E+06
 0.55720001E+02  0.87311E+06
 0.55770000E+02  0.88434E+06
 0.55820000E+02  0.10743E+07
 0.55869999E+02  0.13154E+07
 0.55919998E+02  0.15718E+07
 0.55970001E+02  0.16929E+07
 0.56020000E+02  0.16629E+07
 0.56070000E+02  0.15653E+07
 0.56119999E+02  0.15301E+07
 0.56169998E+02  0.15636E+07
 0.56220001E+02  0.16313E+07
 0.56270000E+02  0.17816E+07
 0.56320000E+02  0.20486E+07
 0.56369999E+02  0.23408E+07
 0.56419998E+02  0.25947E+07
 0.56470001E+02  0.28046E+07
 0.56520000E+02  0.28820E+07
 0.56570000E+02  0.29532E+07
 0.56619999E+02  0.30022E+07
 0.56669998E+02  0.29344E+07
 0.56720001E+02  0.28085E+07
 0.56770000E+02  0.25792E+07
 0.56820000E+02  0.23778E+07
 0.56869999E+02  0.21980E+07
 0.56919998E+02  0.19433E+07
 0.56970001E+02  0.17651E+07
 0.57020000E+02  0.17128E+07
 0.57070000E+02  0.17174E+07
 0.57119999E+02  0.16542E+07
 0.57169998E+02  0.14797E+07
 0.57220001E+02  0.13465E+07
 0.57270000E+02  0.13411E+07
 0.57320000E+02  0.14314E+07
 0.57369999E+02  0.15029E+07
 0.57419998E+02  0.14367E+07
 0.57470001E+02  0.12789E+07
 0.57520000E+02  0.11160E+07
 0.57570000E+02  0.10513E+07
 0.57619999E+02  0.10091E+07
 0.57669998E+02  0.97270E+06
 0.57720001E+02  0.93610E+06
 0.57770000E+02  0.80600E+06
 0.57820000E+02  0.76638E+06
 0.57869999E+02  0.82290E+06
 0.57919998E+02  0.91131E+06
 0.57970001E+02  0.97893E+06
 0.58020000E+02  0.96274E+06
 0.58070000E+02  0.84702E+06
 0.58119999E+02  0.69884E+06
 0.58169998E+02  0.71676E+06
 0.58220001E+02  0.84280E+06
 0.58270000E+02  0.10051E+07
 0.58320000E+02  0.12344E+07
 0.58369999E+02  0.15474E+07
 0.58419998E+02  0.18903E+07
 0.58470001E+02  0.21612E+07
 0.58520000E+02  0.23737E+07
 0.58570000E+02  0.25165E+07
 0.58619999E+02  0.26465E+07
 0.58669998E+02  0.27792E+07
 0.58720001E+02  0.28520E+07
 0.58770000E+02  0.28930E+07
 0.58820000E+02  0.28773E+07
 0.58869999E+02  0.28586E+07
 0.58919998E+02  0.28577E+07
 0.58970001E+02  0.28918E+07
 0.59020000E+02  0.30225E+07
 0.59070000E+02  0.31074E+07
 0.59119999E+02  0.30611E+07
 0.59169998E+02  0.29023E+07
 0.59220001E+02  0.27316E+07
 0.59270000E+02  0.26833E+07
 0.59320000E+02  0.27025E+07
 0.59369999E+02  0.27144E+07
 0.59419998E+02  0.26978E+07
 0.59470001E+02  0.26432E+07
 0.59520000E+02  0.25602E+07
 0.59570000E+02  0.24325E+07
 0.59619999E+02  0.23186E+07
 0.59669998E+02  0.22165E+07
 0.59720001E+02  0.21131E+07
 0.59770000E+02  0.21591E+07
 0.59820000E+02  0.23290E+07
 0.59869999E+02  0.25073E+07
 0.59919998E+02  0.26278E+07
 0.59970001E+02  0.26728E+07
 0.60020000E+02  0.27082E+07
 0.60070000E+02  0.27906E+07
 0.60119999E+02  0.30086E+07
 0.60170002E+02  0.33026E+07
 0.60219997E+02  0.35784E+07
 0.60270000E+02  0.37794E+07
 0.60320004E+02  0.38997E+07
 0.60369999E+02  0.39937E+07
 0.60420002E+02  0.40590E+07
 0.60469997E+02  0.41863E+07
 0.60520000E+02  0.43339E+07
 0.60570004E+02  0.43526E+07
 0.60619999E+02  0.43245E+07
 0.60670002E+02  0.42904E+07
 0.60719997E+02  0.41376E+07
 0.60770000E+02  0.39318E+07
 0.60820004E+02  0.37497E+07
 0.60869999E+02  0.35747E+07
 0.60920002E+02  0.34812E+07
 0.60969997E+02  0.34912E+07
 0.61020000E+02  0.35295E+07
 0.61070004E+02  0.36368E+07
 0.61119999E+02  0.38355E+07
 0.61170002E+02  0.39929E+07
 0.61219997E+02  0.41392E+07
 0.61270000E+02  0.42870E+07
 0.61320004E+02  0.43933E+07
 0.61369999E+02  0.44666E+07
 0.61420002E+02  0.44026E+07
 0.61469997E+02  0.42187E+07
 0.61520000E+02  0.39983E+07
 0.61570004E+02  0.38129E+07
 0.61619999E+02  0.36814E+07
 0.61670002E+02  0.35456E+07
 0.61719997E+02  0.34161E+07
 0.61770000E+02  0.32830E+07
 0.61820004E+02  0.31661E+07
 0.61869999E+02  0.30829E+07
 0.61920002E+02  0.30038E+07
 0.61969997E+02  0.29312E+07
 0.62020000E+02  0.29769E+07
 0.62070004E+02  0.32292E+07
 0.62119999E+02  0.35500E+07
 0.62170002E+02  0.39018E+07
 0.62219997E+02  0.43285E+07
 0.62270000E+02  0.47242E+07
 0.62320004E+02  0.50306E+07
 0.62369999E+02  0.52664E+07
 0.62420002E+02  0.54906E+07
 0.62469997E+02  0.57118E+07
 0.62520000E+02  0.58227E+07
 0.62570004E+02  0.58682E+07
 0.62619999E+02  0.59071E+07
 0.62670002E+02  0.58848E+07
 0.62719997E+02  0.58788E+07
 0.62770000E+02  0.58510E+07
 0.62820004E+02  0.56917E+07
 0.62869999E+02  0.55020E+07
 0.62920002E+02  0.54006E+07
 0.62969997E+02  0.53601E+07
 0.63020000E+02  0.53064E+07
 0.63070004E+02  0.52219E+07
 0.63119999E+02  0.51233E+07
 0.63170002E+02  0.50099E+07
 0.63219997E+02  0.48657E+07
 0.63270000E+02  0.48025E+07
 0.63320004E+02  0.48041E+07
 0.63369999E+02  0.47305E+07
 0.63420002E+02  0.46486E+07
 0.63469997E+02  0.45590E+07
 0.63520000E+02  0.45146E+07
 0.63570004E+02  0.46330E+07
 0.63619999E+02  0.48292E+07
 0.63670002E+02  0.50702E+07
 0.63719997E+02  0.53310E+07
 0.63770000E+02  0.55554E+07
 0.63820004E+02  0.57228E+07
 0.63869999E+02  0.57763E+07
 0.63920002E+02  0.57570E+07
 0.63969997E+02  0.57517E+07
 0.64020004E+02  0.57896E+07
 0.64070007E+02  0.58278E+07
 0.64120003E+02  0.58324E+07
 0.64170006E+02  0.58818E+07
 0.64220001E+02  0.59784E+07
 0.64270004E+02  0.60535E+07
 0.64320007E+02  0.60987E+07
 0.64370003E+02  0.61549E+07
 0.64420006E+02  0.62040E+07
 0.64470001E+02  0.61809E+07
 0.64520004E+02  0.61226E+07
 0.64570007E+02  0.60451E+07
 0.64620003E+02  0.59401E+07
 0.64670006E+02  0.58342E+07
 0.64720001E+02  0.57792E+07
 0.64770004E+02  0.57570E+07
 0.64820007E+02  0.56774E+07
 0.64870003E+02  0.56003E+07
 0.64920006E+02  0.55069E+07
 0.64970001E+02  0.53617E+07
 0.65020004E+02  0.52933E+07
 0.65070007E+02  0.52654E+07
 0.65120003E+02  0.52079E+07
 0.65170006E+02  0.51438E+07
 0.65220001E+02  0.50082E+07
 0.65270004E+02  0.48117E+07
 0.65320007E+02  0.46221E+07
 0.65370003E+02  0.43904E+07
 0.65420006E+02  0.41498E+07
 0.65470001E+02  0.40346E+07
 0.65520004E+02  0.40675E+07
 0.65570007E+02  0.41762E+07
 0.65620003E+02  0.43066E+07
 0.65670006E+02  0.44530E+07
 0.65720001E+02  0.45848E+07
 0.65770004E+02  0.46750E+07
 0.65820007E+02  0.47226E+07
 0.65870003E+02  0.47446E+07
 0.65920006E+02  0.48211E+07
 0.65970001E+02  0.49697E+07
 0.66020004E+02  0.51663E+07
 0.66070007E+02  0.54348E+07
 0.66120003E+02  0.57999E+07
 0.66170006E+02  0.62365E+07
 0.66220001E+02  0.66252E+07
 0.66270004E+02  0.69399E+07
 0.66320007E+02  0.72500E+07
 0.66370003E+02  0.74743E+07
 0.66420006E+02  0.75807E+07
 0.66470001E+02  0.76380E+07
 0.66520004E+02  0.76211E+07
 0.66570007E+02  0.75544E+07
 0.66620003E+02  0.74822E+07
 0.66670006E+02  0.73633E+07
 0.66720001E+02  0.71713E+07
 0.66770004E+02  0.69832E+07
 0.66820007E+02  0.68244E+07
 0.66870003E+02  0.66519E+07
 0.66920006E+02  0.65304E+07
 0.66970001E+02  0.64096E+07
 0.67020004E+02  0.62483E+07
 0.67070007E+02  0.60943E+07
 0.67120003E+02  0.59058E+07
 0.67170006E+02  0.56974E+07
 0.67220001E+02  0.55057E+07
 0.67270004E+02  0.53562E+07
 0.67320007E+02  0.52430E+07
 0.67370003E+02  0.51962E+07
 0.67420006E+02  0.52058E+07
 0.67470001E+02  0.52206E+07
 0.67520004E+02  0.52652E+07
 0.67570007E+02  0.53015E+07
 0.67620003E+02  0.52999E+07
 0.67670006E+02  0.52527E+07
 0.67720001E+02  0.52070E+07
 0.67770004E+02  0.51825E+07
 0.67820007E+02  0.51840E+07
 0.67870003E+02  0.52305E+07
 0.67920006E+02  0.52656E+07
 0.67970001E+02  0.53169E+07
 0.68020004E+02  0.53842E+07
 0.68070007E+02  0.54501E+07
 0.68120003E+02  0.55408E+07
 0.68170006E+02  0.56589E+07
 0.68220001E+02  0.57952E+07
 0.68270004E+02  0.59364E+07
 0.68320007E+02  0.60935E+07
 0.68370003E+02  0.62376E+07
 0.68420006E+02  0.63542E+07
 0.68470001E+02  0.64659E+07
 0.68520004E+02  0.65725E+07
 0.68570007E+02  0.66665E+07
 0.68620003E+02  0.67671E+07
 0.68670006E+02  0.69017E+07
 0.68720001E+02  0.69930E+07
 0.68770004E+02  0.70123E+07
 0.68820007E+02  0.70677E+07
 0.68870003E+02  0.71732E+07
 0.68920006E+02  0.72810E+07
 0.68970001E+02  0.74178E+07
 0.69020004E+02  0.75694E+07
 0.69070007E+02  0.76560E+07
 0.69120003E+02  0.76990E+07
 0.69170006E+02  0.77471E+07
 0.69220001E+02  0.77629E+07
 0.69270004E+02  0.77306E+07
 0.69320007E+02  0.76624E+07
 0.69370003E+02  0.76015E+07
 0.69420006E+02  0.76219E+07
 0.69470001E+02  0.76855E+07
 0.69520004E+02  0.77148E+07
 0.69570007E+02  0.77307E+07
 0.69620003E+02  0.77512E+07
 0.69670006E+02  0.77727E+07
 0.69720001E+02  0.77816E+07
 0.69770004E+02  0.77766E+07
 0.69820007E+02  0.77805E+07
 0.69870003E+02  0.77599E+07
 0.69920006E+02  0.77050E+07
 0.69970001E+02  0.76270E+07
 0.70020004E+02  0.75329E+07
 0.70070007E+02  0.74871E+07
 0.70120003E+02  0.75092E+07
 0.70170006E+02  0.75608E+07
 0.70220001E+02  0.76326E+07
 0.70270004E+02  0.77135E+07
 0.70320007E+02  0.77846E+07
 0.70370003E+02  0.77948E+07
 0.70420006E+02  0.77151E+07
 0.70470001E+02  0.76420E+07
 0.70520004E+02  0.76222E+07
 0.70570007E+02  0.76179E+07
 0.70620003E+02  0.76213E+07
 0.70670006E+02  0.76343E+07
 0.70720001E+02  0.76721E+07
 0.70770004E+02  0.77166E+07
 0.70820007E+02  0.77542E+07
 0.70870003E+02  0.77850E+07
 0.70920006E+02  0.78117E+07
 0.70970001E+02  0.78624E+07
 0.71020004E+02  0.79114E+07
 0.71070007E+02  0.79465E+07
 0.71120003E+02  0.79773E+07
 0.71170006E+02  0.80048E+07
 0.71220001E+02  0.80717E+07
 0.71270004E+02  0.81556E+07
 0.71320007E+02  0.81916E+07
 0.71370003E+02  0.81912E+07
 0.71420006E+02  0.81862E+07
 0.71470001E+02  0.82004E+07
 0.71520004E+02  0.82752E+07
 0.71570007E+02  0.84053E+07
 0.71620003E+02  0.85175E+07
 0.71670006E+02  0.85823E+07
 0.71720001E+02  0.86464E+07
 0.71770004E+02  0.87310E+07
 0.71820007E+02  0.87827E+07
 0.71870003E+02  0.87778E+07
 0.71920006E+02  0.87376E+07
 0.71970001E+02  0.86395E+07
 0.72020004E+02  0.84899E+07
 0.72070007E+02  0.83649E+07
 0.72120003E+02  0.82942E+07
 0.72170006E+02  0.82232E+07
 0.72220001E+02  0.81375E+07
 0.72270004E+02  0.80739E+07
 0.72320007E+02  0.80883E+07
 0.72370003E+02  0.81870E+07
 0.72420006E+02  0.83158E+07
 0.72470001E+02  0.84622E+07
 0.72520004E+02  0.85877E+07
 0.72570007E+02  0.86769E+07
 0.72620003E+02  0.87501E+07
 0.72670006E+02  0.87932E+07
 0.72720001E+02  0.88057E+07
 0.72770004E+02  0.88213E+07
 0.72820007E+02  0.88415E+07
 0.72870003E+02  0.88253E+07
 0.72920006E+02  0.88226E+07
 0.72970001E+02  0.89005E+07
 0.73020004E+02  0.90153E+07
 0.73070007E+02  0.90890E+07
 0.73120003E+02  0.90837E+07
 0.73170006E+02  0.90322E+07
 0.73220001E+02  0.89912E+07
 0.73270004E+02  0.89666E+07
 0.73320007E+02  0.89534E+07
 0.73370003E+02  0.89264E+07
 0.73420006E+02  0.88557E+07
 0.73470001E+02  0.87880E+07
 0.73520004E+02  0.87878E+07
 0.73570007E+02  0.88327E+07
 0.73620003E+02  0.88663E+07
 0.73670006E+02  0.88494E+07
 0.73720001E+02  0.87367E+07
 0.73770004E+02  0.85621E+07
 0.73820007E+02  0.83833E+07
 0.73870003E+02  0.82260E+07
 0.73920006E+02  0.81213E+07
 0.73970001E+02  0.80722E+07
 0.74020004E+02  0.80928E+07
 0.74070007E+02  0.81413E+07
 0.74120003E+02  0.81460E+07
 0.74170006E+02  0.81171E+07
 0.74220001E+02  0.80854E+07
 0.74270004E+02  0.80702E+07
 0.74320007E+02  0.80517E+07
 0.74370003E+02  0.80083E+07
 0.74420006E+02  0.79553E+07
 0.74470001E+02  0.79208E+07
 0.74520004E+02  0.79140E+07
 0.74570007E+02  0.79548E+07
 0.74620003E+02  0.80377E+07
 0.74670006E+02  0.80975E+07
 0.74720001E+02  0.81420E+07
 0.74770004E+02  0.81376E+07
 0.74820007E+02  0.80804E+07
 0.74870003E+02  0.80742E+07
 0.74920006E+02  0.81324E+07
 0.74970001E+02  0.82327E+07
 0.75020004E+02  0.83319E+07
 0.75070007E+02  0.83947E+07
 0.75120003E+02  0.84468E+07
 0.75170006E+02  0.84970E+07
 0.75220001E+02  0.85311E+07
 0.75270004E+02  0.85664E+07
 0.75320007E+02  0.86027E+07
 0.75370003E+02  0.86054E+07
 0.75420006E+02  0.85654E+07
 0.75470001E+02  0.84913E+07
 0.75520004E+02  0.84365E+07
 0.75570007E+02  0.84307E+07
 0.75620003E+02  0.84593E+07
 0.75670006E+02  0.85443E+07
 0.75720001E+02  0.86594E+07
 0.75770004E+02  0.87288E+07
 0.75820007E+02  0.87347E+07
 0.75870003E+02  0.86877E+07
 0.75920006E+02  0.86337E+07
 0.75970001E+02  0.86478E+07
 0.76020004E+02  0.87140E+07
 0.76070007E+02  0.87910E+07
 0.76120003E+02  0.88874E+07
 0.76170006E+02  0.89919E+07
 0.76220001E+02  0.90899E+07
 0.76270004E+02  0.91712E+07
 0.76320007E+02  0.92406E+07
 0.76370003E+02  0.93098E+07
 0.76420006E+02  0.93766E+07
 0.76470001E+02  0.94497E+07
 0.76520004E+02  0.95373E+07
 0.76570007E+02  0.96637E+07
 0.76620003E+02  0.98078E+07
 0.76670006E+02  0.98924E+07
 0.76720001E+02  0.98727E+07
 0.76770004E+02  0.97760E+07
 0.76820007E+02  0.96899E+07
 0.76870003E+02  0.96617E+07
 0.76920006E+02  0.96435E+07
 0.76970001E+02  0.95809E+07
 0.77020004E+02  0.94888E+07
 0.77070007E+02  0.93893E+07
 0.77120003E+02  0.92785E+07
 0.77170006E+02  0.91553E+07
 0.77220001E+02  0.90211E+07
 0.77270004E+02  0.88981E+07
 0.77320007E+02  0.88079E+07
 0.77370003E+02  0.87767E+07
 0.77420006E+02  0.88271E+07
 0.77470001E+02  0.89411E+07
 0.77520004E+02  0.90843E+07
 0.77570007E+02  0.91942E+07
 0.77620003E+02  0.92493E+07
 0.77670006E+02  0.92764E+07
 0.77720001E+02  0.92549E+07
 0.77770004E+02  0.91885E+07
 0.77820007E+02  0.91197E+07
 0.77870003E+02  0.90586E+07
 0.77920006E+02  0.90377E+07
 0.77970001E+02  0.90880E+07
 0.78020004E+02  0.91601E+07
 0.78070007E+02  0.92152E+07
 0.78120003E+02  0.92643E+07
 0.78170006E+02  0.92850E+07
 0.78220001E+02  0.92588E+07
 0.78270004E+02  0.92094E+07
 0.78320007E+02  0.91483E+07
 0.78370003E+02  0.90809E+07
 0.78420006E+02  0.90502E+07
 0.78470001E+02  0.90574E+07
 0.78520004E+02  0.90473E+07
 0.78570007E+02  0.90115E+07
 0.78620003E+02  0.89761E+07
 0.78670006E+02  0.89294E+07
 0.78720001E+02  0.88525E+07
 0.78770004E+02  0.87850E+07
 0.78820007E+02  0.87510E+07
 0.78870003E+02  0.87647E+07
 0.78920006E+02  0.88219E+07
 0.78970001E+02  0.88907E+07
 0.79020004E+02  0.89642E+07
 0.79070007E+02  0.90297E+07
 0.79120003E+02  0.91270E+07
 0.79170006E+02  0.92966E+07
 0.79220001E+02  0.95017E+07
 0.79270004E+02  0.97038E+07
 0.79320007E+02  0.99137E+07
 0.79370003E+02  0.10120E+08
 0.79420006E+02  0.10276E+08
 0.79470001E+02  0.10422E+08
 0.79520004E+02  0.10590E+08
 0.79570007E+02  0.10721E+08
 0.79620003E+02  0.10805E+08
 0.79670006E+02  0.10849E+08
 0.79720001E+02  0.10837E+08
 0.79770004E+02  0.10796E+08
 0.79820007E+02  0.10780E+08
 0.79870003E+02  0.10810E+08
 0.79920006E+02  0.10850E+08
 0.79970001E+02  0.10875E+08
 0.80020004E+02  0.10847E+08
 0.80070007E+02  0.10767E+08
 0.80120003E+02  0.10711E+08
 0.80170006E+02  0.10691E+08
 0.80220001E+02  0.10708E+08
 0.80270004E+02  0.10742E+08
 0.80320007E+02  0.10751E+08
 0.80370003E+02  0.10721E+08
 0.80420006E+02  0.10644E+08
 0.80470001E+02  0.10541E+08
 0.80520004E+02  0.10447E+08
 0.80570007E+02  0.10373E+08
 0.80620003E+02  0.10306E+08
 0.80670006E+02  0.10246E+08
 0.80720001E+02  0.10156E+08
 0.80770004E+02  0.10017E+08
 0.80820007E+02  0.98882E+07
 0.80870003E+02  0.97638E+07
 0.80920006E+02  0.96595E+07
 0.80970001E+02  0.96245E+07
 0.81020004E+02  0.96342E+07
 0.81070007E+02  0.96783E+07
 0.81120003E+02  0.97623E+07
 0.81170006E+02  0.98421E+07
 0.81220001E+02  0.98875E+07
 0.81270004E+02  0.98779E+07
 0.81320007E+02  0.97981E+07
 0.81370003E+02  0.97232E+07
 0.81420006E+02  0.96945E+07
 0.81470001E+02  0.96889E+07
 0.81520004E+02  0.97174E+07
 0.81570007E+02  0.97812E+07
 0.81620003E+02  0.98785E+07
 0.81670006E+02  0.99945E+07
 0.81720001E+02  0.10107E+08
 0.81770004E+02  0.10197E+08
 0.81820007E+02  0.10257E+08
 0.81870003E+02  0.10343E+08
 0.81920006E+02  0.10487E+08
 0.81970001E+02  0.10642E+08
 0.82020004E+02  0.10788E+08
 0.82070007E+02  0.10924E+08
 0.82120003E+02  0.11014E+08
 0.82170006E+02  0.11068E+08
 0.82220001E+02  0.11118E+08
 0.82270004E+02  0.11138E+08
 0.82320007E+02  0.11120E+08
 0.82370003E+02  0.11072E+08
 0.82420006E+02  0.10977E+08
 0.82470001E+02  0.10857E+08
 0.82520004E+02  0.10764E+08
 0.82570007E+02  0.10699E+08
 0.82620003E+02  0.10639E+08
 0.82670006E+02  0.10603E+08
 0.82720001E+02  0.10597E+08
 0.82770004E+02  0.10630E+08
 0.82820007E+02  0.10664E+08
 0.82870003E+02  0.10661E+08
 0.82920006E+02  0.10679E+08
 0.82970001E+02  0.10712E+08
 0.83020004E+02  0.10726E+08
 0.83070007E+02  0.10723E+08
 0.83120003E+02  0.10701E+08
 0.83170006E+02  0.10681E+08
 0.83220001E+02  0.10687E+08
 0.83270004E+02  0.10726E+08
 0.83320007E+02  0.10802E+08
 0.83370003E+02  0.10917E+08
 0.83420006E+02  0.11052E+08
 0.83470001E+02  0.11162E+08
 0.83520004E+02  0.11220E+08
 0.83570007E+02  0.11250E+08
 0.83620003E+02  0.11296E+08
 0.83670006E+02  0.11335E+08
 0.83720001E+02  0.11328E+08
 0.83770004E+02  0.11306E+08
 0.83820007E+02  0.11285E+08
 0.83870003E+02  0.11258E+08
 0.83920006E+02  0.11249E+08
 0.83970001E+02  0.11231E+08
 0.84020004E+02  0.11155E+08
 0.84070007E+02  0.11014E+08
 0.84120003E+02  0.10829E+08
 0.84170006E+02  0.10630E+08
 0.84220001E+02  0.10439E+08
 0.84270004E+02  0.10245E+08
 0.84320007E+02  0.10069E+08
 0.84370003E+02  0.99420E+07
 0.84420006E+02  0.98539E+07
 0.84470001E+02  0.98149E+07
 0.84520004E+02  0.98265E+07
 0.84570007E+02  0.98615E+07
 0.84620003E+02  0.99106E+07
 0.84670006E+02  0.99606E+07
 0.84720001E+02  0.99994E+07
 0.84770004E+02  0.10021E+08
 0.84820007E+02  0.10025E+08
 0.84870003E+02  0.10015E+08
 0.84920006E+02  0.99762E+07
 0.84970001E+02  0.98973E+07
 0.85020004E+02  0.97856E+07
 0.85070007E+02  0.96762E+07
 0.85120003E+02  0.95926E+07
 0.85170006E+02  0.95525E+07
 0.85220001E+02  0.95709E+07
 0.85270004E+02  0.96123E+07
 0.85320007E+02  0.96585E+07
 0.85370003E+02  0.97230E+07
 0.85420006E+02  0.97863E+07
 0.85470001E+02  0.98365E+07
 0.85520004E+02  0.98784E+07
 0.85570007E+02  0.99136E+07
 0.85620003E+02  0.99415E+07
 0.85670006E+02  0.99667E+07
 0.85720001E+02  0.10005E+08
 0.85770004E+02  0.10077E+08
 0.85820007E+02  0.10181E+08
 0.85870003E+02  0.10281E+08
 0.85920006E+02  0.10380E+08
 0.85970001E+02  0.10484E+08
 0.86020004E+02  0.10563E+08
 0.86070007E+02  0.10608E+08
 0.86120003E+02  0.10613E+08
 0.86170006E+02  0.10612E+08
 0.86220001E+02  0.10644E+08
 0.86270004E+02  0.10719E+08
 0.86320007E+02  0.10824E+08
 0.86370003E+02  0.10947E+08
 0.86420006E+02  0.11081E+08
 0.86470001E+02  0.11168E+08
 0.86520004E+02  0.11184E+08
 0.86570007E+02  0.11178E+08
 0.86620003E+02  0.11179E+08
 0.86670006E+02  0.11182E+08
 0.86720001E+02  0.11196E+08
 0.86770004E+02  0.11231E+08
 0.86820007E+02  0.11290E+08
 0.86870003E+02  0.11373E+08
 0.86920006E+02  0.11448E+08
 0.86970001E+02  0.11498E+08
 0.87020004E+02  0.11520E+08
 0.87070007E+02  0.11517E+08
 0.87120003E+02  0.11499E+08
 0.87170006E+02  0.11473E+08
 0.87220001E+02  0.11429E+08
 0.87270004E+02  0.11360E+08
 0.87320007E+02  0.11287E+08
 0.87370003E+02  0.11242E+08
 0.87420006E+02  0.11221E+08
 0.87470001E+02  0.11205E+08
 0.87520004E+02  0.11208E+08
 0.87570007E+02  0.11227E+08
 0.87620003E+02  0.11249E+08
 0.87670006E+02  0.11265E+08
 0.87720001E+02  0.11275E+08
 0.87770004E+02  0.11266E+08
 0.87820007E+02  0.11221E+08
 0.87870003E+02  0.11163E+08
 0.87920006E+02  0.11128E+08
 0.87970001E+02  0.11140E+08
 0.88020004E+02  0.11176E+08
 0.88070007E+02  0.11214E+08
 0.88120003E+02  0.11238E+08
 0.88170006E+02  0.11243E+08
 0.88220001E+02  0.11244E+08
 0.88270004E+02  0.11226E+08
 0.88320007E+02  0.11205E+08
 0.88370003E+02  0.11178E+08
 0.88420006E+02  0.11119E+08
 0.88470001E+02  0.11025E+08
 0.88520004E+02  0.10881E+08
 0.88570007E+02  0.10720E+08
 0.88620003E+02  0.10576E+08
 0.88670006E+02  0.10458E+08
 0.88720001E+02  0.10352E+08
 0.88770004E+02  0.10258E+08
 0.88820007E+02  0.10220E+08
 0.88870003E+02  0.10242E+08
 0.88920006E+02  0.10279E+08
 0.88970001E+02  0.10321E+08
 0.89020004E+02  0.10386E+08
 0.89070007E+02  0.10466E+08
 0.89120003E+02  0.10565E+08
 0.89170006E+02  0.10675E+08
 0.89220001E+02  0.10783E+08
 0.89270004E+02  0.10872E+08
 0.89320007E+02  0.10942E+08
 0.89370003E+02  0.10997E+08
 0.89420006E+02  0.11028E+08
 0.89470001E+02  0.11062E+08
 0.89520004E+02  0.11104E+08
 0.89570007E+02  0.11175E+08
 0.89620003E+02  0.11302E+08
 0.89670006E+02  0.11469E+08
 0.89720001E+02  0.11629E+08
 0.89770004E+02  0.11745E+08
 0.89820007E+02  0.11814E+08
 0.89870003E+02  0.11845E+08
 0.89920006E+02  0.11866E+08
 0.89970001E+02  0.11880E+08
 0.90020004E+02  0.11883E+08
 0.90070007E+02  0.11871E+08
 0.90120003E+02  0.11841E+08
 0.90170006E+02  0.11805E+08
 0.90220001E+02  0.11769E+08
 0.90270004E+02  0.11757E+08
 0.90320007E+02  0.11756E+08
 0.90370003E+02  0.11745E+08
 0.90420006E+02  0.11727E+08
 0.90470001E+02  0.11682E+08
 0.90520004E+02  0.11614E+08
 0.90570007E+02  0.11542E+08
 0.90620003E+02  0.11470E+08
 0.90670006E+02  0.11410E+08
 0.90720001E+02  0.11353E+08
 0.90770004E+02  0.11294E+08
 0.90820007E+02  0.11235E+08
 0.90870003E+02  0.11163E+08
 0.90920006E+02  0.11072E+08
 0.90970001E+02  0.10964E+08
 0.91020004E+02  0.10855E+08
 0.91070007E+02  0.10763E+08
 0.91120003E+02  0.10685E+08
 0.91170006E+02  0.10638E+08
 0.91220001E+02  0.10616E+08
 0.91270004E+02  0.10583E+08
 0.91320007E+02  0.10559E+08
 0.91370003E+02  0.10585E+08
 0.91420006E+02  0.10633E+08
 0.91470001E+02  0.10669E+08
 0.91520004E+02  0.10703E+08
 0.91570007E+02  0.10740E+08
 0.91620003E+02  0.10782E+08
 0.91670006E+02  0.10846E+08
 0.91720001E+02  0.10941E+08
 0.91770004E+02  0.11056E+08
 0.91820007E+02  0.11183E+08
 0.91870003E+02  0.11310E+08
 0.91920006E+02  0.11414E+08
 0.91970001E+02  0.11493E+08
 0.92020004E+02  0.11537E+08
 0.92070007E+02  0.11548E+08
 0.92120003E+02  0.11550E+08
 0.92170006E+02  0.11554E+08
 0.92220001E+02  0.11552E+08
 0.92270004E+02  0.11547E+08
 0.92320007E+02  0.11557E+08
 0.92370003E+02  0.11572E+08
 0.92420006E+02  0.11594E+08
 0.92470001E+02  0.11623E+08
 0.92520004E+02  0.11638E+08
 0.92570007E+02  0.11643E+08
 0.92620003E+02  0.11648E+08
 0.92670006E+02  0.11670E+08
 0.92720001E+02  0.11710E+08
 0.92770004E+02  0.11752E+08
 0.92820007E+02  0.11792E+08
 0.92870003E+02  0.11822E+08
 0.92920006E+02  0.11830E+08
 0.92970001E+02  0.11823E+08
 0.93020004E+02  0.11812E+08
 0.93070007E+02  0.11794E+08
 0.93120003E+02  0.11772E+08
 0.93170006E+02  0.11743E+08
 0.93220001E+02  0.11706E+08
 0.93270004E+02  0.11662E+08
 0.93320007E+02  0.11600E+08
 0.93370003E+02  0.11527E+08
 0.93420006E+02  0.11460E+08
 0.93470001E+02  0.11429E+08
 0.93520004E+02  0.11445E+08
 0.93570007E+02  0.11500E+08
 0.93620003E+02  0.11578E+08
 0.93670006E+02  0.11641E+08
 0.93720001E+02  0.11704E+08
 0.93770004E+02  0.11763E+08
 0.93820007E+02  0.11778E+08
 0.93870003E+02  0.11786E+08
 0.93920006E+02  0.11804E+08
 0.93970001E+02  0.11832E+08
 0.94020004E+02  0.11875E+08
 0.94070007E+02  0.11900E+08
 0.94120003E+02  0.11875E+08
 0.94170006E+02  0.11815E+08
 0.94220001E+02  0.11759E+08
 0.94270004E+02  0.11701E+08
 0.94320007E+02  0.11637E+08
 0.94370003E+02  0.11567E+08
 0.94420006E+02  0.11478E+08
 0.94470001E+02  0.11382E+08
 0.94520004E+02  0.11289E+08
 0.94570007E+02  0.11219E+08
 0.94620003E+02  0.11152E+08
 0.94670006E+02  0.11086E+08
 0.94720001E+02  0.11048E+08
 0.94770004E+02  0.11026E+08
 0.94820007E+02  0.11021E+08
 0.94870003E+02  0.11029E+08
 0.94920006E+02  0.11046E+08
 0.94970001E+02  0.11063E+08
 0.95020004E+02  0.11069E+08
 0.95070007E+02  0.11060E+08
 0.95120003E+02  0.11021E+08
 0.95170006E+02  0.10959E+08
 0.95220001E+02  0.10878E+08
 0.95270004E+02  0.10794E+08
 0.95320007E+02  0.10736E+08
 0.95370003E+02  0.10714E+08
 0.95420006E+02  0.10737E+08
 0.95470001E+02  0.10769E+08
 0.95520004E+02  0.10791E+08
 0.95570007E+02  0.10796E+08
 0.95620003E+02  0.10790E+08
 0.95670006E+02  0.10773E+08
 0.95720001E+02  0.10735E+08
 0.95770004E+02  0.10707E+08
 0.95820007E+02  0.10686E+08
 0.95870003E+02  0.10664E+08
 0.95920006E+02  0.10637E+08
 0.95970001E+02  0.10588E+08
 0.96020004E+02  0.10542E+08
 0.96070007E+02  0.10511E+08
 0.96120003E+02  0.10493E+08
 0.96170006E+02  0.10530E+08
 0.96220001E+02  0.10572E+08
 0.96270004E+02  0.10574E+08
 0.96320007E+02  0.10585E+08
 0.96370003E+02  0.10599E+08
 0.96420006E+02  0.10632E+08
 0.96470001E+02  0.10694E+08
 0.96520004E+02  0.10773E+08
 0.96570007E+02  0.10853E+08
 0.96620003E+02  0.10937E+08
 0.96670006E+02  0.11010E+08
 0.96720001E+02  0.11034E+08
 0.96770004E+02  0.11057E+08
 0.96820007E+02  0.11067E+08
 0.96870003E+02  0.11092E+08
 0.96920006E+02  0.11160E+08
 0.96970001E+02  0.11254E+08
 0.97020004E+02  0.11361E+08
 0.97070007E+02  0.11461E+08
 0.97120003E+02  0.11574E+08
 0.97170006E+02  0.11677E+08
 0.97220001E+02  0.11744E+08
 0.97270004E+02  0.11793E+08
 0.97320007E+02  0.11845E+08
 0.97370003E+02  0.11917E+08
 0.97420006E+02  0.11982E+08
 0.97470001E+02  0.12040E+08
 0.97520004E+02  0.12095E+08
 0.97570007E+02  0.12114E+08
 0.97620003E+02  0.12105E+08
 0.97670006E+02  0.12080E+08
 0.97720001E+02  0.12035E+08
 0.97770004E+02  0.12026E+08
 0.97820007E+02  0.12046E+08
 0.97870003E+02  0.12037E+08
 0.97920006E+02  0.12021E+08
 0.97970001E+02  0.12000E+08
 0.98020004E+02  0.11974E+08
 0.98070007E+02  0.11978E+08
 0.98120003E+02  0.12001E+08
 0.98170006E+02  0.12025E+08
 0.98220001E+02  0.12049E+08
 0.98270004E+02  0.12070E+08
 0.98320007E+02  0.12073E+08
 0.98370003E+02  0.12070E+08
 0.98420006E+02  0.12059E+08
 0.98470001E+02  0.12034E+08
 0.98520004E+02  0.12009E+08
 0.98570007E+02  0.11969E+08
 0.98620003E+02  0.11925E+08
 0.98670006E+02  0.11875E+08
 0.98720001E+02  0.11824E+08
 0.98770004E+02  0.11769E+08
 0.98820007E+02  0.11698E+08
 0.98870003E+02  0.11618E+08
 0.98920006E+02  0.11527E+08
 0.98970001E+02  0.11453E+08
 0.99020004E+02  0.11412E+08
 0.99070007E+02  0.11413E+08
 0.99120003E+02  0.11450E+08
 0.99170006E+02  0.11503E+08
 0.99220001E+02  0.11566E+08
 0.99270004E+02  0.11631E+08
 0.99320007E+02  0.11667E+08
 0.99370003E+02  0.11666E+08
 0.99420006E+02  0.11640E+08
 0.99470001E+02  0.11604E+08
 0.99520004E+02  0.11595E+08
 0.99570007E+02  0.11603E+08
 0.99620003E+02  0.11607E+08
 0.99670006E+02  0.11620E+08
 0.99720001E+02  0.11646E+08
 0.99770004E+02  0.11688E+08
 0.99820007E+02  0.11743E+08
 0.99870003E+02  0.11800E+08
 0.99920006E+02  0.11848E+08
 0.99970001E+02  0.11874E+08
 0.10002000E+03  0.11882E+08
 0.10007001E+03  0.11883E+08
 0.10012000E+03  0.11873E+08
 0.10017001E+03  0.11853E+08
 0.10022000E+03  0.11833E+08
 0.10027000E+03  0.11798E+08
 0.10032001E+03  0.11737E+08
 0.10037000E+03  0.11651E+08
 0.10042001E+03  0.11549E+08
 0.10047000E+03  0.11447E+08
 0.10052000E+03  0.11357E+08
 0.10057001E+03  0.11288E+08
 0.10062000E+03  0.11236E+08
 0.10067001E+03  0.11180E+08
 0.10072000E+03  0.11125E+08
 0.10077000E+03  0.11083E+08
 0.10082001E+03  0.11057E+08
 0.10087000E+03  0.11059E+08
 0.10092001E+03  0.11068E+08
 0.10097000E+03  0.11079E+08
 0.10102000E+03  0.11097E+08
 0.10107001E+03  0.11116E+08
 0.10112000E+03  0.11143E+08
 0.10117001E+03  0.11180E+08
 0.10122000E+03  0.11225E+08
 0.10127000E+03  0.11280E+08
 0.10132001E+03  0.11346E+08
 0.10137000E+03  0.11398E+08
 0.10142001E+03  0.11438E+08
 0.10147000E+03  0.11467E+08
 0.10152000E+03  0.11479E+08
 0.10157001E+03  0.11484E+08
 0.10162000E+03  0.11492E+08
 0.10167001E+03  0.11527E+08
 0.10172000E+03  0.11587E+08
 0.10177000E+03  0.11659E+08
 0.10182001E+03  0.11747E+08
 0.10187000E+03  0.11827E+08
 0.10192001E+03  0.11896E+08
 0.10197000E+03  0.11966E+08
 0.10202000E+03  0.12013E+08
 0.10207001E+03  0.12014E+08
 0.10212000E+03  0.11978E+08
 0.10217001E+03  0.11932E+08
 0.10222000E+03  0.11890E+08
 0.10227000E+03  0.11867E+08
 0.10232001E+03  0.11864E+08
 0.10237000E+03  0.11874E+08
 0.10242001E+03  0.11882E+08
 0.10247000E+03  0.11876E+08
 0.10252000E+03  0.11855E+08
 0.10257001E+03  0.11818E+08
 0.10262000E+03  0.11769E+08
 0.10267001E+03  0.11698E+08
 0.10272000E+03  0.11614E+08
 0.10277000E+03  0.11527E+08
 0.10282001E+03  0.11439E+08
 0.10287000E+03  0.11369E+08
 0.10292001E+03  0.11313E+08
 0.10297000E+03  0.11278E+08
 0.10302000E+03  0.11259E+08
 0.10307001E+03  0.11237E+08
 0.10312000E+03  0.11215E+08
 0.10317001E+03  0.11206E+08
 0.10322000E+03  0.11195E+08
 0.10327000E+03  0.11158E+08
 0.10332001E+03  0.11116E+08
 0.10337000E+03  0.11066E+08
 0.10342001E+03  0.10998E+08
 0.10347000E+03  0.10935E+08
 0.10352000E+03  0.10874E+08
 0.10357001E+03  0.10828E+08
 0.10362000E+03  0.10801E+08
 0.10367001E+03  0.10777E+08
 0.10372000E+03  0.10764E+08
 0.10377000E+03  0.10771E+08
 0.10382001E+03  0.10797E+08
 0.10387000E+03  0.10836E+08
 0.10392001E+03  0.10881E+08
 0.10397000E+03  0.10916E+08
 0.10402000E+03  0.10933E+08
 0.10407001E+03  0.10922E+08
 0.10412000E+03  0.10902E+08
 0.10417001E+03  0.10888E+08
 0.10422000E+03  0.10880E+08
 0.10427000E+03  0.10907E+08
 0.10432001E+03  0.10966E+08
 0.10437000E+03  0.11045E+08
 0.10442001E+03  0.11137E+08
 0.10447000E+03  0.11228E+08
 0.10452000E+03  0.11318E+08
 0.10457001E+03  0.11404E+08
 0.10462000E+03  0.11482E+08
 0.10467001E+03  0.11552E+08
 0.10472000E+03  0.11602E+08
 0.10477000E+03  0.11614E+08
 0.10482001E+03  0.11596E+08
 0.10487000E+03  0.11568E+08
 0.10492001E+03  0.11537E+08
 0.10497000E+03  0.11497E+08
 0.10502000E+03  0.11451E+08
 0.10507001E+03  0.11403E+08
 0.10512000E+03  0.11355E+08
 0.10517001E+03  0.11324E+08
 0.10522000E+03  0.11309E+08
 0.10527000E+03  0.11293E+08
 0.10532001E+03  0.11263E+08
 0.10537000E+03  0.11222E+08
 0.10542001E+03  0.11176E+08
 0.10547000E+03  0.11132E+08
 0.10552000E+03  0.11096E+08
 0.10557001E+03  0.11059E+08
 0.10562000E+03  0.11027E+08
 0.10567001E+03  0.10996E+08
 0.10572000E+03  0.10949E+08
 0.10577000E+03  0.10892E+08
 0.10582001E+03  0.10838E+08
 0.10587000E+03  0.10799E+08
 0.10592001E+03  0.10783E+08
 0.10597000E+03  0.10792E+08
 0.10602000E+03  0.10817E+08
 0.10607001E+03  0.10844E+08
 0.10612000E+03  0.10873E+08
 0.10617001E+03  0.10907E+08
 0.10622000E+03  0.10945E+08
 0.10627000E+03  0.10981E+08
 0.10632001E+03  0.11013E+08
 0.10637000E+03  0.11047E+08
 0.10642001E+03  0.11088E+08
 0.10647000E+03  0.11138E+08
 0.10652000E+03  0.11198E+08
 0.10657001E+03  0.11262E+08
 0.10662000E+03  0.11323E+08
 0.10667001E+03  0.11386E+08
 0.10672000E+03  0.11451E+08
 0.10677000E+03  0.11517E+08
 0.10682001E+03  0.11583E+08
 0.10687000E+03  0.11627E+08
 0.10692001E+03  0.11640E+08
 0.10697000E+03  0.11640E+08
 0.10702000E+03  0.11642E+08
 0.10707001E+03  0.11649E+08
 0.10712000E+03  0.11664E+08
 0.10717001E+03  0.11677E+08
 0.10722000E+03  0.11683E+08
 0.10727000E+03  0.11679E+08
 0.10732001E+03  0.11663E+08
 0.10737000E+03  0.11658E+08
 0.10742001E+03  0.11672E+08
 0.10747000E+03  0.11702E+08
 0.10752000E+03  0.11747E+08
 0.10757001E+03  0.11791E+08
 0.10762000E+03  0.11832E+08
 0.10767001E+03  0.11881E+08
 0.10772000E+03  0.11922E+08
 0.10777000E+03  0.11938E+08
 0.10782001E+03  0.11914E+08
 0.10787000E+03  0.11866E+08
 0.10792001E+03  0.11809E+08
 0.10797000E+03  0.11743E+08
 0.10802000E+03  0.11678E+08
 0.10807001E+03  0.11606E+08
 0.10812000E+03  0.11530E+08
 0.10817001E+03  0.11449E+08
 0.10822000E+03  0.11361E+08
 0.10827000E+03  0.11278E+08
 0.10832001E+03  0.11209E+08
 0.10837000E+03  0.11149E+08
 0.10842001E+03  0.11088E+08
 0.10847000E+03  0.11036E+08
 0.10852000E+03  0.10991E+08
 0.10857001E+03  0.10947E+08
 0.10862000E+03  0.10911E+08
 0.10867001E+03  0.10883E+08
 0.10872000E+03  0.10869E+08
 0.10877000E+03  0.10865E+08
 0.10882001E+03  0.10860E+08
 0.10887000E+03  0.10852E+08
 0.10892001E+03  0.10840E+08
 0.10897000E+03  0.10832E+08
 0.10902000E+03  0.10841E+08
 0.10907001E+03  0.10867E+08
 0.10912000E+03  0.10900E+08
 0.10917001E+03  0.10940E+08
 0.10922000E+03  0.10974E+08
 0.10927000E+03  0.10996E+08
 0.10932001E+03  0.11021E+08
 0.10937000E+03  0.11051E+08
 0.10942001E+03  0.11078E+08
 0.10947000E+03  0.11100E+08
 0.10952000E+03  0.11115E+08
 0.10957001E+03  0.11113E+08
 0.10962000E+03  0.11091E+08
 0.10967001E+03  0.11059E+08
 0.10972000E+03  0.11034E+08
 0.10977000E+03  0.11026E+08
 0.10982001E+03  0.11025E+08
 0.10987000E+03  0.11027E+08
 0.10992001E+03  0.11038E+08
 0.10997000E+03  0.11053E+08
 0.11002000E+03  0.11072E+08
 0.11007001E+03  0.11083E+08
 0.11012000E+03  0.11077E+08
 0.11017001E+03  0.11063E+08
 0.11022000E+03  0.11038E+08
 0.11027000E+03  0.11008E+08
 0.11032001E+03  0.10977E+08
 0.11037000E+03  0.10950E+08
 0.11042001E+03  0.10927E+08
 0.11047000E+03  0.10908E+08
 0.11052000E+03  0.10899E+08
 0.11057001E+03  0.10899E+08
 0.11062000E+03  0.10904E+08
 0.11067001E+03  0.10924E+08
 0.11072000E+03  0.10966E+08
 0.11077000E+03  0.11013E+08
 0.11082001E+03  0.11049E+08
 0.11087000E+03  0.11070E+08
 0.11092001E+03  0.11072E+08
 0.11097000E+03  0.11065E+08
 0.11102000E+03  0.11059E+08
 0.11107001E+03  0.11062E+08
 0.11112000E+03  0.11082E+08
 0.11117001E+03  0.11121E+08
 0.11122000E+03  0.11171E+08
 0.11127000E+03  0.11221E+08
 0.11132001E+03  0.11258E+08
 0.11137000E+03  0.11276E+08
 0.11142001E+03  0.11283E+08
 0.11147000E+03  0.11287E+08
 0.11152000E+03  0.11291E+08
 0.11157001E+03  0.11304E+08
 0.11162000E+03  0.11337E+08
 0.11167001E+03  0.11374E+08
 0.11172000E+03  0.11387E+08
 0.11177000E+03  0.11384E+08
 0.11182001E+03  0.11360E+08
 0.11187000E+03  0.11311E+08
 0.11192001E+03  0.11255E+08
 0.11197000E+03  0.11198E+08
 0.11202000E+03  0.11137E+08
 0.11207001E+03  0.11068E+08
 0.11212000E+03  0.10991E+08
 0.11217001E+03  0.10912E+08
 0.11222000E+03  0.10828E+08
 0.11227000E+03  0.10741E+08
 0.11232001E+03  0.10670E+08
 0.11237000E+03  0.10622E+08
 0.11242001E+03  0.10594E+08
 0.11247000E+03  0.10582E+08
 0.11252000E+03  0.10579E+08
 0.11257001E+03  0.10578E+08
 0.11262000E+03  0.10576E+08
 0.11267001E+03  0.10576E+08
 0.11272000E+03  0.10579E+08
 0.11277000E+03  0.10592E+08
 0.11282001E+03  0.10621E+08
 0.11287000E+03  0.10661E+08
 0.11292001E+03  0.10703E+08
 0.11297000E+03  0.10738E+08
 0.11302000E+03  0.10761E+08
 0.11307001E+03  0.10783E+08
 0.11312000E+03  0.10811E+08
 0.11317001E+03  0.10837E+08
 0.11322000E+03  0.10863E+08
 0.11327000E+03  0.10895E+08
 0.11332001E+03  0.10929E+08
 0.11337000E+03  0.10965E+08
 0.11342001E+03  0.10990E+08
 0.11347000E+03  0.11002E+08
 0.11352000E+03  0.10999E+08
 0.11357001E+03  0.10981E+08
 0.11362000E+03  0.10953E+08
 0.11367001E+03  0.10920E+08
 0.11372000E+03  0.10890E+08
 0.11377000E+03  0.10862E+08
 0.11382001E+03  0.10833E+08
 0.11387000E+03  0.10791E+08
 0.11392001E+03  0.10739E+08
 0.11397000E+03  0.10678E+08
 0.11402000E+03  0.10609E+08
 0.11407001E+03  0.10554E+08
 0.11412000E+03  0.10508E+08
 0.11417001E+03  0.10482E+08
 0.11422000E+03  0.10485E+08
 0.11427000E+03  0.10497E+08
 0.11432001E+03  0.10501E+08
 0.11437000E+03  0.10504E+08
 0.11442001E+03  0.10499E+08
 0.11447000E+03  0.10482E+08
 0.11452000E+03  0.10493E+08
 0.11457001E+03  0.10507E+08
 0.11462000E+03  0.10531E+08
 0.11467001E+03  0.10570E+08
 0.11472000E+03  0.10598E+08
 0.11477000E+03  0.10629E+08
 0.11482001E+03  0.10652E+08
 0.11487000E+03  0.10669E+08
 0.11492001E+03  0.10674E+08
 0.11497000E+03  0.10677E+08
 0.11502000E+03  0.10675E+08
 0.11507001E+03  0.10661E+08
 0.11512000E+03  0.10650E+08
 0.11517001E+03  0.10625E+08
 0.11522000E+03  0.10597E+08
 0.11527000E+03  0.10572E+08
 0.11532001E+03  0.10561E+08
 0.11537000E+03  0.10564E+08
 0.11542001E+03  0.10570E+08
 0.11547000E+03  0.10577E+08
 0.11552000E+03  0.10579E+08
 0.11557001E+03  0.10591E+08
 0.11562000E+03  0.10601E+08
 0.11567001E+03  0.10596E+08
 0.11572000E+03  0.10586E+08
 0.11577000E+03  0.10572E+08
 0.11582001E+03  0.10551E+08
 0.11587000E+03  0.10536E+08
 0.11592001E+03  0.10533E+08
 0.11597000E+03  0.10543E+08
 0.11602000E+03  0.10579E+08
 0.11607001E+03  0.10625E+08
 0.11612000E+03  0.10678E+08
 0.11617001E+03  0.10743E+08
 0.11622000E+03  0.10811E+08
 0.11627000E+03  0.10884E+08
 0.11632001E+03  0.10956E+08
 0.11637000E+03  0.11024E+08
 0.11642001E+03  0.11077E+08
 0.11647000E+03  0.11113E+08
 0.11652000E+03  0.11141E+08
 0.11657001E+03  0.11153E+08
 0.11662000E+03  0.11156E+08
 0.11667001E+03  0.11157E+08
 0.11672000E+03  0.11153E+08
 0.11677000E+03  0.11137E+08
 0.11682001E+03  0.11114E+08
 0.11687000E+03  0.11078E+08
 0.11692001E+03  0.11022E+08
 0.11697000E+03  0.10959E+08
 0.11702000E+03  0.10902E+08
 0.11707001E+03  0.10849E+08
 0.11712000E+03  0.10787E+08
 0.11717001E+03  0.10712E+08
 0.11722000E+03  0.10632E+08
 0.11727000E+03  0.10559E+08
 0.11732001E+03  0.10492E+08
 0.11737000E+03  0.10414E+08
 0.11742001E+03  0.10328E+08
 0.11747000E+03  0.10246E+08
 0.11752000E+03  0.10176E+08
 0.11757001E+03  0.10120E+08
 0.11762000E+03  0.10074E+08
 0.11767001E+03  0.10035E+08
 0.11772000E+03  0.10005E+08
 0.11777000E+03  0.99898E+07
 0.11782001E+03  0.99902E+07
 0.11787000E+03  0.10008E+08
 0.11792001E+03  0.10038E+08
 0.11797000E+03  0.10077E+08
 0.11802000E+03  0.10114E+08
 0.11807001E+03  0.10137E+08
 0.11812000E+03  0.10153E+08
 0.11817001E+03  0.10173E+08
 0.11822000E+03  0.10201E+08
 0.11827000E+03  0.10237E+08
 0.11832001E+03  0.10281E+08
 0.11837000E+03  0.10333E+08
 0.11842001E+03  0.10387E+08
 0.11847000E+03  0.10445E+08
 0.11852000E+03  0.10500E+08
 0.11857001E+03  0.10545E+08
 0.11862000E+03  0.10582E+08
 0.11867001E+03  0.10612E+08
 0.11872000E+03  0.10637E+08
 0.11877000E+03  0.10663E+08
 0.11882001E+03  0.10696E+08
 0.11887000E+03  0.10730E+08
 0.11892001E+03  0.10763E+08
 0.11897000E+03  0.10790E+08
 0.11902000E+03  0.10802E+08
 0.11907001E+03  0.10798E+08
 0.11912000E+03  0.10786E+08
 0.11917001E+03  0.10767E+08
 0.11922000E+03  0.10745E+08
 0.11927000E+03  0.10713E+08
 0.11932001E+03  0.10675E+08
 0.11937000E+03  0.10640E+08
 0.11942001E+03  0.10600E+08
 0.11947000E+03  0.10550E+08
 0.11952000E+03  0.10493E+08
 0.11957001E+03  0.10442E+08
 0.11962000E+03  0.10395E+08
 0.11967001E+03  0.10339E+08
 0.11972000E+03  0.10277E+08
 0.11977000E+03  0.10218E+08
 0.11982001E+03  0.10163E+08
 0.11987000E+03  0.10106E+08
 0.11992001E+03  0.10051E+08
 0.11997000E+03  0.10005E+08
 0.12002000E+03  0.99683E+07
 0.12007001E+03  0.99465E+07
 0.12012000E+03  0.99300E+07
 0.12017001E+03  0.99093E+07
 0.12022000E+03  0.98844E+07
 0.12027000E+03  0.98547E+07
 0.12032001E+03  0.98228E+07
 0.12037000E+03  0.97886E+07
 0.12042001E+03  0.97516E+07
 0.12047000E+03  0.97120E+07
 0.12052000E+03  0.96727E+07
 0.12057001E+03  0.96377E+07
 0.12062000E+03  0.96120E+07
 0.12067001E+03  0.95953E+07
 0.12072000E+03  0.95840E+07
 0.12077000E+03  0.95779E+07
 0.12082001E+03  0.95702E+07
 0.12087000E+03  0.95610E+07
 0.12092001E+03  0.95567E+07
 0.12097000E+03  0.95665E+07
 0.12102000E+03  0.95927E+07
 0.12107001E+03  0.96229E+07
 0.12112000E+03  0.96554E+07
 0.12117001E+03  0.96874E+07
 0.12122000E+03  0.97235E+07
 0.12127000E+03  0.97738E+07
 0.12132001E+03  0.98293E+07
 0.12137000E+03  0.98868E+07
 0.12142001E+03  0.99423E+07
 0.12147000E+03  0.99894E+07
 0.12152000E+03  0.10028E+08
 0.12157001E+03  0.10058E+08
 0.12162000E+03  0.10087E+08
 0.12167001E+03  0.10116E+08
 0.12172000E+03  0.10145E+08
 0.12177000E+03  0.10179E+08
 0.12182001E+03  0.10211E+08
 0.12187000E+03  0.10233E+08
 0.12192001E+03  0.10248E+08
 0.12197000E+03  0.10264E+08
 0.12202000E+03  0.10278E+08
 0.12207001E+03  0.10284E+08
 0.12212000E+03  0.10282E+08
 0.12217001E+03  0.10271E+08
 0.12222000E+03  0.10251E+08
 0.12227000E+03  0.10227E+08
 0.12232001E+03  0.10204E+08
 0.12237000E+03  0.10185E+08
 0.12242001E+03  0.10179E+08
 0.12247000E+03  0.10185E+08
 0.12252000E+03  0.10191E+08
 0.12257001E+03  0.10190E+08
 0.12262000E+03  0.10186E+08
 0.12267001E+03  0.10187E+08
 0.12272000E+03  0.10204E+08
 0.12277000E+03  0.10229E+08
 0.12282001E+03  0.10246E+08
 0.12287000E+03  0.10250E+08
 0.12292001E+03  0.10245E+08
 0.12297000E+03  0.10246E+08
 0.12302000E+03  0.10257E+08
 0.12307001E+03  0.10271E+08
 0.12312000E+03  0.10283E+08
 0.12317001E+03  0.10291E+08
 0.12322000E+03  0.10290E+08
 0.12327000E+03  0.10277E+08
 0.12332001E+03  0.10262E+08
 0.12337000E+03  0.10253E+08
 0.12342001E+03  0.10246E+08
 0.12347000E+03  0.10234E+08
 0.12352000E+03  0.10218E+08
 0.12357001E+03  0.10197E+08
 0.12362000E+03  0.10168E+08
 0.12367001E+03  0.10127E+08
 0.12372000E+03  0.10077E+08
 0.12377000E+03  0.10026E+08
 0.12382001E+03  0.99749E+07
 0.12387000E+03  0.99281E+07
 0.12392001E+03  0.98846E+07
 0.12397000E+03  0.98348E+07
 0.12402000E+03  0.97717E+07
 0.12407001E+03  0.97043E+07
 0.12412000E+03  0.96386E+07
 0.12417001E+03  0.95737E+07
 0.12422001E+03  0.95134E+07
 0.12427001E+03  0.94610E+07
 0.12432000E+03  0.94207E+07
 0.12437000E+03  0.93947E+07
 0.12442001E+03  0.93801E+07
 0.12447001E+03  0.93733E+07
 0.12452001E+03  0.93793E+07
 0.12457000E+03  0.94031E+07
 0.12462000E+03  0.94416E+07
 0.12467001E+03  0.94877E+07
 0.12472001E+03  0.95338E+07
 0.12477001E+03  0.95728E+07
 0.12482000E+03  0.96016E+07
 0.12487000E+03  0.96260E+07
 0.12492001E+03  0.96472E+07
 0.12497001E+03  0.96667E+07
 0.12502001E+03  0.96881E+07
 0.12507000E+03  0.97108E+07
 0.12512000E+03  0.97345E+07
 0.12517001E+03  0.97569E+07
 0.12522001E+03  0.97772E+07
 0.12527001E+03  0.97924E+07
 0.12532000E+03  0.98001E+07
 0.12537000E+03  0.97978E+07
 0.12542001E+03  0.97852E+07
 0.12547001E+03  0.97678E+07
 0.12552001E+03  0.97516E+07
 0.12557000E+03  0.97400E+07
 0.12562000E+03  0.97306E+07
 0.12567001E+03  0.97207E+07
 0.12572001E+03  0.97101E+07
 0.12577001E+03  0.97003E+07
 0.12582000E+03  0.96872E+07
 0.12587000E+03  0.96647E+07
 0.12592001E+03  0.96360E+07
 0.12597001E+03  0.96065E+07
 0.12602001E+03  0.95803E+07
 0.12607000E+03  0.95596E+07
 0.12612000E+03  0.95399E+07
 0.12617001E+03  0.95160E+07
 0.12622001E+03  0.94822E+07
 0.12627001E+03  0.94368E+07
 0.12632000E+03  0.93912E+07
 0.12637000E+03  0.93544E+07
 0.12642001E+03  0.93264E+07
 0.12647001E+03  0.93092E+07
 0.12652001E+03  0.93050E+07
 0.12657000E+03  0.93063E+07
 0.12662000E+03  0.93086E+07
 0.12667001E+03  0.93141E+07
 0.12672001E+03  0.93249E+07
 0.12677001E+03  0.93453E+07
 0.12682000E+03  0.93693E+07
 0.12687000E+03  0.93926E+07
 0.12692001E+03  0.94156E+07
 0.12697001E+03  0.94398E+07
 0.12702001E+03  0.94718E+07
 0.12707000E+03  0.95089E+07
 0.12712000E+03  0.95406E+07
 0.12717001E+03  0.95609E+07
 0.12722001E+03  0.95747E+07
 0.12727001E+03  0.95874E+07
 0.12732000E+03  0.96032E+07
 0.12737000E+03  0.96256E+07
 0.12742001E+03  0.96504E+07
 0.12747001E+03  0.96756E+07
 0.12752001E+03  0.96976E+07
 0.12757000E+03  0.97081E+07
 0.12762000E+03  0.97038E+07
 0.12767001E+03  0.96824E+07
 0.12772001E+03  0.96504E+07
 0.12777001E+03  0.96238E+07
 0.12782000E+03  0.96042E+07
 0.12787000E+03  0.95855E+07
 0.12792001E+03  0.95663E+07
 0.12797001E+03  0.95458E+07
 0.12802000E+03  0.95210E+07
 0.12806999E+03  0.94876E+07
 0.12812000E+03  0.94483E+07
 0.12817000E+03  0.94093E+07
 0.12822000E+03  0.93742E+07
 0.12827000E+03  0.93379E+07
 0.12831999E+03  0.92998E+07
 0.12837000E+03  0.92649E+07
 0.12842000E+03  0.92356E+07
 0.12847000E+03  0.92172E+07
 0.12852000E+03  0.91995E+07
 0.12856999E+03  0.91754E+07
 0.12862000E+03  0.91487E+07
 0.12867000E+03  0.91166E+07
 0.12872000E+03  0.90831E+07
 0.12877000E+03  0.90537E+07
 0.12881999E+03  0.90280E+07
 0.12887000E+03  0.90010E+07
 0.12892000E+03  0.89669E+07
 0.12897000E+03  0.89266E+07
 0.12902000E+03  0.88921E+07
 0.12906999E+03  0.88659E+07
 0.12912000E+03  0.88434E+07
 0.12917000E+03  0.88285E+07
 0.12922000E+03  0.88185E+07
 0.12927000E+03  0.88108E+07
 0.12931999E+03  0.88085E+07
 0.12937000E+03  0.88129E+07
 0.12942000E+03  0.88212E+07
 0.12947000E+03  0.88271E+07
 0.12952000E+03  0.88322E+07
 0.12956999E+03  0.88423E+07
 0.12962000E+03  0.88534E+07
 0.12967000E+03  0.88673E+07
 0.12972000E+03  0.88915E+07
 0.12977000E+03  0.89232E+07
 0.12981999E+03  0.89626E+07
 0.12987000E+03  0.90088E+07
 0.12992000E+03  0.90577E+07
 0.12997000E+03  0.91077E+07
 0.13002000E+03  0.91523E+07
 0.13006999E+03  0.91889E+07
 0.13012000E+03  0.92204E+07
 0.13017000E+03  0.92508E+07
 0.13022000E+03  0.92817E+07
 0.13027000E+03  0.93079E+07
 0.13031999E+03  0.93280E+07
 0.13037000E+03  0.93437E+07
 0.13042000E+03  0.93541E+07
 0.13047000E+03  0.93557E+07
 0.13052000E+03  0.93502E+07
 0.13056999E+03  0.93414E+07
 0.13062000E+03  0.93272E+07
 0.13067000E+03  0.93081E+07
 0.13072000E+03  0.92839E+07
 0.13077000E+03  0.92549E+07
 0.13081999E+03  0.92243E+07
 0.13087000E+03  0.91912E+07
 0.13092000E+03  0.91516E+07
 0.13097000E+03  0.91043E+07
 0.13102000E+03  0.90583E+07
 0.13106999E+03  0.90175E+07
 0.13112000E+03  0.89786E+07
 0.13117000E+03  0.89488E+07
 0.13122000E+03  0.89345E+07
 0.13127000E+03  0.89342E+07
 0.13131999E+03  0.89429E+07
 0.13137000E+03  0.89564E+07
 0.13142000E+03  0.89689E+07
 0.13147000E+03  0.89740E+07
 0.13152000E+03  0.89706E+07
 0.13156999E+03  0.89631E+07
 0.13162000E+03  0.89595E+07
 0.13167000E+03  0.89618E+07
 0.13172000E+03  0.89642E+07
 0.13177000E+03  0.89617E+07
 0.13181999E+03  0.89526E+07
 0.13187000E+03  0.89400E+07
 0.13192000E+03  0.89278E+07
 0.13197000E+03  0.89115E+07
 0.13202000E+03  0.88925E+07
 0.13206999E+03  0.88793E+07
 0.13212000E+03  0.88684E+07
 0.13217000E+03  0.88573E+07
 0.13222000E+03  0.88501E+07
 0.13227000E+03  0.88483E+07
 0.13231999E+03  0.88538E+07
 0.13237000E+03  0.88618E+07
 0.13242000E+03  0.88669E+07
 0.13247000E+03  0.88704E+07
 0.13252000E+03  0.88738E+07
 0.13256999E+03  0.88782E+07
 0.13262000E+03  0.88814E+07
 0.13267000E+03  0.88834E+07
 0.13272000E+03  0.88837E+07
 0.13277000E+03  0.88762E+07
 0.13281999E+03  0.88612E+07
 0.13287000E+03  0.88417E+07
 0.13292000E+03  0.88211E+07
 0.13297000E+03  0.88067E+07
 0.13302000E+03  0.87993E+07
 0.13306999E+03  0.87948E+07
 0.13312000E+03  0.87946E+07
 0.13317000E+03  0.88030E+07
 0.13322000E+03  0.88203E+07
 0.13327000E+03  0.88444E+07
 0.13331999E+03  0.88658E+07
 0.13337000E+03  0.88796E+07
 0.13342000E+03  0.88895E+07
 0.13347000E+03  0.88949E+07
 0.13352000E+03  0.88957E+07
 0.13356999E+03  0.88861E+07
 0.13362000E+03  0.88640E+07
 0.13367000E+03  0.88346E+07
 0.13372000E+03  0.87990E+07
 0.13377000E+03  0.87576E+07
 0.13381999E+03  0.87121E+07
 0.13387000E+03  0.86679E+07
 0.13392000E+03  0.86284E+07
 0.13397000E+03  0.85960E+07
 0.13402000E+03  0.85675E+07
 0.13406999E+03  0.85398E+07
 0.13412000E+03  0.85141E+07
 0.13417000E+03  0.84846E+07
 0.13422000E+03  0.84511E+07
 0.13427000E+03  0.84136E+07
 0.13431999E+03  0.83762E+07
 0.13437000E+03  0.83482E+07
 0.13442000E+03  0.83318E+07
 0.13447000E+03  0.83256E+07
 0.13452000E+03  0.83247E+07
 0.13456999E+03  0.83255E+07
 0.13462000E+03  0.83235E+07
 0.13467000E+03  0.83174E+07
 0.13472000E+03  0.83075E+07
 0.13477000E+03  0.82914E+07
 0.13481999E+03  0.82713E+07
 0.13487000E+03  0.82504E+07
 0.13492000E+03  0.82265E+07
 0.13497000E+03  0.81948E+07
 0.13502000E+03  0.81550E+07
 0.13506999E+03  0.81123E+07
 0.13512000E+03  0.80739E+07
 0.13517000E+03  0.80477E+07
 0.13522000E+03  0.80353E+07
 0.13527000E+03  0.80311E+07
 0.13531999E+03  0.80296E+07
 0.13537000E+03  0.80315E+07
 0.13542000E+03  0.80356E+07
 0.13547000E+03  0.80367E+07
 0.13552000E+03  0.80357E+07
 0.13556999E+03  0.80372E+07
 0.13562000E+03  0.80386E+07
 0.13567000E+03  0.80386E+07
 0.13572000E+03  0.80379E+07
 0.13577000E+03  0.80368E+07
 0.13581999E+03  0.80382E+07
 0.13587000E+03  0.80424E+07
 0.13592000E+03  0.80485E+07
 0.13597000E+03  0.80537E+07
 0.13602000E+03  0.80574E+07
 0.13606999E+03  0.80585E+07
 0.13612000E+03  0.80551E+07
 0.13617000E+03  0.80532E+07
 0.13622000E+03  0.80541E+07
 0.13627000E+03  0.80570E+07
 0.13631999E+03  0.80687E+07
 0.13637000E+03  0.80902E+07
 0.13642000E+03  0.81223E+07
 0.13647000E+03  0.81681E+07
 0.13652000E+03  0.82249E+07
 0.13656999E+03  0.82883E+07
 0.13662000E+03  0.83541E+07
 0.13667000E+03  0.84204E+07
 0.13672000E+03  0.84857E+07
 0.13677000E+03  0.85496E+07
 0.13681999E+03  0.86063E+07
 0.13687000E+03  0.86522E+07
 0.13692000E+03  0.86989E+07
 0.13697000E+03  0.87496E+07
 0.13702000E+03  0.87968E+07
 0.13706999E+03  0.88374E+07
 0.13712000E+03  0.88741E+07
 0.13717000E+03  0.89024E+07
 0.13722000E+03  0.89138E+07
 0.13727000E+03  0.89146E+07
 0.13731999E+03  0.89074E+07
 0.13737000E+03  0.88864E+07
 0.13742000E+03  0.88544E+07
 0.13747000E+03  0.88187E+07
 0.13752000E+03  0.87787E+07
 0.13756999E+03  0.87337E+07
 0.13762000E+03  0.86864E+07
 0.13767000E+03  0.86345E+07
 0.13772000E+03  0.85782E+07
 0.13777000E+03  0.85202E+07
 0.13781999E+03  0.84604E+07
 0.13787000E+03  0.83948E+07
 0.13792000E+03  0.83214E+07
 0.13797000E+03  0.82442E+07
 0.13802000E+03  0.81677E+07
 0.13806999E+03  0.80959E+07
 0.13812000E+03  0.80300E+07
 0.13817000E+03  0.79706E+07
 0.13822000E+03  0.79154E+07
 0.13827000E+03  0.78612E+07
 0.13831999E+03  0.78097E+07
 0.13837000E+03  0.77636E+07
 0.13842000E+03  0.77246E+07
 0.13847000E+03  0.77006E+07
 0.13852000E+03  0.76950E+07
 0.13856999E+03  0.76972E+07
 0.13862000E+03  0.77027E+07
 0.13867000E+03  0.77089E+07
 0.13872000E+03  0.77136E+07
 0.13877000E+03  0.77192E+07
 0.13881999E+03  0.77273E+07
 0.13887000E+03  0.77389E+07
 0.13892000E+03  0.77552E+07
 0.13897000E+03  0.77735E+07
 0.13902000E+03  0.77903E+07
 0.13906999E+03  0.78111E+07
 0.13912000E+03  0.78332E+07
 0.13917000E+03  0.78540E+07
 0.13922000E+03  0.78761E+07
 0.13927000E+03  0.78956E+07
 0.13931999E+03  0.79150E+07
 0.13937000E+03  0.79362E+07
 0.13942000E+03  0.79527E+07
 0.13947000E+03  0.79665E+07
 0.13952000E+03  0.79783E+07
 0.13956999E+03  0.79790E+07
 0.13962000E+03  0.79780E+07
 0.13967000E+03  0.79826E+07
 0.13972000E+03  0.79865E+07
 0.13977000E+03  0.79913E+07
 0.13981999E+03  0.79924E+07
 0.13987000E+03  0.79861E+07
 0.13992000E+03  0.79753E+07
 0.13997000E+03  0.79554E+07
 0.14002000E+03  0.79293E+07
 0.14006999E+03  0.79050E+07
 0.14012000E+03  0.78835E+07
 0.14017000E+03  0.78707E+07
 0.14022000E+03  0.78683E+07
 0.14027000E+03  0.78688E+07
 0.14031999E+03  0.78705E+07
 0.14037000E+03  0.78731E+07
 0.14042000E+03  0.78782E+07
 0.14047000E+03  0.78867E+07
 0.14052000E+03  0.78954E+07
 0.14056999E+03  0.79047E+07
 0.14062000E+03  0.79114E+07
 0.14067000E+03  0.79107E+07
 0.14072000E+03  0.79039E+07
 0.14077000E+03  0.78911E+07
 0.14081999E+03  0.78692E+07
 0.14087000E+03  0.78395E+07
 0.14092000E+03  0.78029E+07
 0.14097000E+03  0.77643E+07
 0.14102000E+03  0.77325E+07
 0.14106999E+03  0.77064E+07
 0.14112000E+03  0.76813E+07
 0.14117000E+03  0.76580E+07
 0.14122000E+03  0.76407E+07
 0.14127000E+03  0.76282E+07
 0.14131999E+03  0.76184E+07
 0.14137000E+03  0.76149E+07
 0.14142000E+03  0.76183E+07
 0.14147000E+03  0.76289E+07
 0.14152000E+03  0.76420E+07
 0.14156999E+03  0.76539E+07
 0.14162000E+03  0.76706E+07
 0.14167000E+03  0.76886E+07
 0.14172000E+03  0.76968E+07
 0.14177000E+03  0.76957E+07
 0.14181999E+03  0.76901E+07
 0.14187000E+03  0.76815E+07
 0.14192000E+03  0.76673E+07
 0.14197000E+03  0.76509E+07
 0.14202000E+03  0.76360E+07
 0.14206999E+03  0.76253E+07
 0.14212000E+03  0.76211E+07
 0.14217000E+03  0.76200E+07
 0.14222000E+03  0.76258E+07
 0.14227000E+03  0.76431E+07
 0.14231999E+03  0.76710E+07
 0.14237000E+03  0.77049E+07
 0.14242000E+03  0.77419E+07
 0.14247000E+03  0.77736E+07
 0.14252000E+03  0.77933E+07
 0.14256999E+03  0.78048E+07
 0.14262000E+03  0.78049E+07
 0.14267000E+03  0.77967E+07
 0.14272000E+03  0.77846E+07
 0.14277000E+03  0.77665E+07
 0.14281999E+03  0.77434E+07
 0.14287000E+03  0.77138E+07
 0.14292000E+03  0.76796E+07
 0.14297000E+03  0.76446E+07
 0.14302000E+03  0.76073E+07
 0.14306999E+03  0.75690E+07
 0.14312000E+03  0.75348E+07
 0.14317000E+03  0.75070E+07
 0.14322000E+03  0.74813E+07
 0.14327000E+03  0.74572E+07
 0.14331999E+03  0.74322E+07
 0.14337000E+03  0.74022E+07
 0.14342000E+03  0.73724E+07
 0.14347000E+03  0.73465E+07
 0.14352000E+03  0.73264E+07
 0.14356999E+03  0.73067E+07
 0.14362000E+03  0.72853E+07
 0.14367000E+03  0.72697E+07
 0.14372000E+03  0.72552E+07
 0.14377000E+03  0.72417E+07
 0.14381999E+03  0.72360E+07
 0.14387000E+03  0.72377E+07
 0.14392000E+03  0.72435E+07
 0.14397000E+03  0.72504E+07
 0.14402000E+03  0.72572E+07
 0.14406999E+03  0.72631E+07
 0.14412000E+03  0.72675E+07
 0.14417000E+03  0.72692E+07
 0.14422000E+03  0.72690E+07
 0.14427000E+03  0.72686E+07
 0.14431999E+03  0.72722E+07
 0.14437000E+03  0.72813E+07
 0.14442000E+03  0.72900E+07
 0.14447000E+03  0.72947E+07
 0.14452000E+03  0.72971E+07
 0.14456999E+03  0.72959E+07
 0.14462000E+03  0.72873E+07
 0.14467000E+03  0.72747E+07
 0.14472000E+03  0.72646E+07
 0.14477000E+03  0.72561E+07
 0.14481999E+03  0.72449E+07
 0.14487000E+03  0.72286E+07
 0.14492000E+03  0.72059E+07
 0.14497000E+03  0.71795E+07
 0.14502000E+03  0.71516E+07
 0.14506999E+03  0.71223E+07
 0.14512000E+03  0.70930E+07
 0.14517000E+03  0.70608E+07
 0.14522000E+03  0.70239E+07
 0.14527000E+03  0.69845E+07
 0.14531999E+03  0.69442E+07
 0.14537000E+03  0.69039E+07
 0.14542000E+03  0.68641E+07
 0.14547000E+03  0.68260E+07
 0.14552000E+03  0.67903E+07
 0.14556999E+03  0.67572E+07
 0.14562000E+03  0.67299E+07
 0.14567000E+03  0.67106E+07
 0.14572000E+03  0.66966E+07
 0.14577000E+03  0.66824E+07
 0.14581999E+03  0.66699E+07
 0.14587000E+03  0.66648E+07
 0.14592000E+03  0.66645E+07
 0.14597000E+03  0.66693E+07
 0.14602000E+03  0.66831E+07
 0.14606999E+03  0.67035E+07
 0.14612000E+03  0.67264E+07
 0.14617000E+03  0.67481E+07
 0.14622000E+03  0.67666E+07
 0.14627000E+03  0.67792E+07
 0.14631999E+03  0.67855E+07
 0.14637000E+03  0.67901E+07
 0.14642000E+03  0.67916E+07
 0.14647000E+03  0.67923E+07
 0.14652000E+03  0.68039E+07
 0.14656999E+03  0.68294E+07
 0.14662000E+03  0.68605E+07
 0.14667000E+03  0.68900E+07
 0.14672000E+03  0.69146E+07
 0.14677000E+03  0.69334E+07
 0.14681999E+03  0.69480E+07
 0.14687000E+03  0.69595E+07
 0.14692000E+03  0.69704E+07
 0.14697000E+03  0.69805E+07
 0.14702000E+03  0.69895E+07
 0.14706999E+03  0.69984E+07
 0.14712000E+03  0.70057E+07
 0.14717000E+03  0.70077E+07
 0.14722000E+03  0.70007E+07
 0.14727000E+03  0.69886E+07
 0.14731999E+03  0.69757E+07
 0.14737000E+03  0.69576E+07
 0.14742000E+03  0.69320E+07
 0.14747000E+03  0.69070E+07
 0.14752000E+03  0.68838E+07
 0.14756999E+03  0.68585E+07
 0.14762000E+03  0.68319E+07
 0.14767000E+03  0.68050E+07
 0.14772000E+03  0.67778E+07
 0.14777000E+03  0.67495E+07
 0.14781999E+03  0.67207E+07
 0.14787000E+03  0.66906E+07
 0.14792000E+03  0.66612E+07
 0.14797000E+03  0.66354E+07
 0.14802000E+03  0.66115E+07
 0.14806999E+03  0.65932E+07
 0.14812000E+03  0.65833E+07
 0.14817000E+03  0.65810E+07
 0.14822000E+03  0.65820E+07
 0.14827000E+03  0.65821E+07
 0.14831999E+03  0.65823E+07
 0.14837000E+03  0.65824E+07
 0.14842000E+03  0.65814E+07
 0.14847000E+03  0.65794E+07
 0.14852000E+03  0.65721E+07
 0.14856999E+03  0.65616E+07
 0.14862000E+03  0.65492E+07
 0.14867000E+03  0.65354E+07
 0.14872000E+03  0.65301E+07
 0.14877000E+03  0.65306E+07
 0.14881999E+03  0.65354E+07
 0.14887000E+03  0.65480E+07
 0.14892000E+03  0.65680E+07
 0.14897000E+03  0.65845E+07
 0.14902000E+03  0.65927E+07
 0.14906999E+03  0.65894E+07
