-0.38800001E+01 -0.80380E+04
-0.38300002E+01 -0.67740E+04
-0.37800002E+01 -0.58610E+04
-0.37300000E+01 -0.50550E+04
-0.36800001E+01 -0.43350E+04
-0.36300001E+01 -0.32280E+04
-0.35800002E+01 -0.20570E+04
-0.35300002E+01 -0.34200E+03
-0.34800000E+01  0.18140E+04
-0.34300001E+01  0.34780E+04
-0.33800001E+01  0.48340E+04
-0.33300002E+01  0.63500E+04
-0.32800002E+01  0.72680E+04
-0.32300000E+01  0.72710E+04
-0.31800001E+01  0.73260E+04
-0.31300001E+01  0.76410E+04
-0.30800002E+01  0.78700E+04
-0.30300002E+01  0.85970E+04
-0.29800000E+01  0.96450E+04
-0.29300001E+01  0.10083E+05
-0.28800001E+01  0.10521E+05
-0.28299999E+01  0.10698E+05
-0.27800002E+01  0.96030E+04
-0.27300000E+01  0.80420E+04
-0.26800001E+01  0.69290E+04
-0.26300001E+01  0.57880E+04
-0.25799999E+01  0.48140E+04
-0.25300002E+01  0.46330E+04
-0.24800000E+01  0.45970E+04
-0.24300001E+01  0.48950E+04
-0.23800001E+01  0.57090E+04
-0.23299999E+01  0.63800E+04
-0.22800002E+01  0.71980E+04
-0.22300000E+01  0.84990E+04
-0.21800001E+01  0.98090E+04
-0.21300001E+01  0.11155E+05
-0.20799999E+01  0.12669E+05
-0.20300002E+01  0.13517E+05
-0.19800001E+01  0.13629E+05
-0.19300001E+01  0.13004E+05
-0.18800001E+01  0.11973E+05
-0.18300002E+01  0.11140E+05
-0.17800000E+01  0.99640E+04
-0.17300000E+01  0.87950E+04
-0.16800001E+01  0.74560E+04
-0.16300001E+01  0.55670E+04
-0.15800002E+01  0.34920E+04
-0.15300000E+01  0.14960E+04
-0.14800000E+01  0.72000E+02
-0.14300001E+01 -0.10470E+04
-0.13800001E+01 -0.17760E+04
-0.13300002E+01 -0.18750E+04
-0.12800000E+01 -0.17350E+04
-0.12300000E+01 -0.13700E+04
-0.11800001E+01 -0.67800E+03
-0.11300001E+01 -0.20300E+03
-0.10800002E+01  0.15700E+03
-0.10300000E+01  0.70500E+03
-0.98000002E+00  0.10910E+04
-0.93000007E+00  0.95100E+03
-0.88000011E+00  0.57100E+03
-0.83000016E+00  0.70000E+01
-0.77999997E+00 -0.84000E+03
-0.73000002E+00 -0.16040E+04
-0.68000007E+00 -0.31850E+04
-0.63000011E+00 -0.54990E+04
-0.58000016E+00 -0.74240E+04
-0.52999997E+00 -0.92540E+04
-0.48000002E+00 -0.11365E+05
-0.43000007E+00 -0.12618E+05
-0.38000011E+00 -0.13198E+05
-0.33000016E+00 -0.13313E+05
-0.27999997E+00 -0.12282E+05
-0.23000002E+00 -0.10635E+05
-0.18000007E+00 -0.89940E+04
-0.13000011E+00 -0.72670E+04
-0.80000162E-01 -0.49960E+04
-0.29999971E-01 -0.33350E+04
 0.19999981E-01 -0.17560E+04
 0.69999933E-01  0.42200E+03
 0.11999989E+00  0.22010E+04
 0.17000008E+00  0.35070E+04
 0.21999979E+00  0.46600E+04
 0.26999998E+00  0.59920E+04
 0.32000017E+00  0.61660E+04
 0.36999989E+00  0.65240E+04
 0.42000008E+00  0.73240E+04
 0.46999979E+00  0.67110E+04
 0.51999998E+00  0.65090E+04
 0.57000017E+00  0.63000E+04
 0.61999989E+00  0.55450E+04
 0.67000008E+00  0.41290E+04
 0.71999979E+00  0.26910E+04
 0.76999998E+00  0.12550E+04
 0.82000017E+00 -0.17690E+04
 0.86999989E+00 -0.43490E+04
 0.92000008E+00 -0.67870E+04
 0.96999979E+00 -0.10499E+05
 0.10200000E+01 -0.13695E+05
 0.10700002E+01 -0.16284E+05
 0.11199999E+01 -0.19659E+05
 0.11700001E+01 -0.23004E+05
 0.12199998E+01 -0.25081E+05
 0.12700000E+01 -0.26399E+05
 0.13200002E+01 -0.27447E+05
 0.13699999E+01 -0.26783E+05
 0.14200001E+01 -0.25243E+05
 0.14699998E+01 -0.23858E+05
 0.15200000E+01 -0.20938E+05
 0.15700002E+01 -0.17289E+05
 0.16199999E+01 -0.13784E+05
 0.16700001E+01 -0.10397E+05
 0.17199998E+01 -0.61300E+04
 0.17700000E+01 -0.18090E+04
 0.18200002E+01  0.10120E+04
 0.18699999E+01  0.36450E+04
 0.19200001E+01  0.55790E+04
 0.19699998E+01  0.68980E+04
 0.20200000E+01  0.80010E+04
 0.20700002E+01  0.96740E+04
 0.21199999E+01  0.11089E+05
 0.21700001E+01  0.11883E+05
 0.22199998E+01  0.14362E+05
 0.22700000E+01  0.16643E+05
 0.23200002E+01  0.18966E+05
 0.23699999E+01  0.21866E+05
 0.24200001E+01  0.24087E+05
 0.24699998E+01  0.25515E+05
 0.25200000E+01  0.26297E+05
 0.25700002E+01  0.27215E+05
 0.26199999E+01  0.26629E+05
 0.26700001E+01  0.25894E+05
 0.27199998E+01  0.25679E+05
 0.27700000E+01  0.24184E+05
 0.28200002E+01  0.23330E+05
 0.28699999E+01  0.22416E+05
 0.29200001E+01  0.21047E+05
 0.29699998E+01  0.19910E+05
 0.30200000E+01  0.18218E+05
 0.30700002E+01  0.16950E+05
 0.31199999E+01  0.14865E+05
 0.31700001E+01  0.12344E+05
 0.32199998E+01  0.10532E+05
 0.32700000E+01  0.82270E+04
 0.33200002E+01  0.61880E+04
 0.33699999E+01  0.46650E+04
 0.34200001E+01  0.29030E+04
 0.34699998E+01  0.97300E+03
 0.35200000E+01 -0.54400E+03
 0.35700002E+01 -0.25770E+04
 0.36199999E+01 -0.54890E+04
 0.36700001E+01 -0.83760E+04
 0.37199998E+01 -0.10857E+05
 0.37700000E+01 -0.13053E+05
 0.38200002E+01 -0.14567E+05
 0.38699999E+01 -0.15150E+05
 0.39200001E+01 -0.15891E+05
 0.39699998E+01 -0.15814E+05
 0.40200000E+01 -0.14997E+05
 0.40700002E+01 -0.14376E+05
 0.41199999E+01 -0.13979E+05
 0.41700001E+01 -0.13333E+05
 0.42200003E+01 -0.12207E+05
 0.42700005E+01 -0.11463E+05
 0.43199997E+01 -0.10225E+05
 0.43699999E+01 -0.91380E+04
 0.44200001E+01 -0.85320E+04
 0.44700003E+01 -0.75990E+04
 0.45200005E+01 -0.66110E+04
 0.45699997E+01 -0.59780E+04
 0.46199999E+01 -0.63850E+04
 0.46700001E+01 -0.66780E+04
 0.47200003E+01 -0.72270E+04
 0.47700005E+01 -0.79840E+04
 0.48199997E+01 -0.75510E+04
 0.48699999E+01 -0.78240E+04
 0.49200001E+01 -0.83440E+04
 0.49700003E+01 -0.80330E+04
 0.50200005E+01 -0.78410E+04
 0.50699997E+01 -0.70640E+04
 0.51199999E+01 -0.55870E+04
 0.51700001E+01 -0.36790E+04
 0.52200003E+01 -0.15830E+04
 0.52700005E+01  0.11090E+04
 0.53199997E+01  0.43930E+04
 0.53699999E+01  0.72370E+04
 0.54200001E+01  0.10015E+05
 0.54700003E+01  0.12388E+05
 0.55200005E+01  0.14008E+05
 0.55699997E+01  0.14891E+05
 0.56199999E+01  0.15507E+05
 0.56700001E+01  0.15565E+05
 0.57200003E+01  0.14770E+05
 0.57700005E+01  0.14605E+05
 0.58199997E+01  0.13902E+05
 0.58699999E+01  0.12782E+05
 0.59200001E+01  0.11965E+05
 0.59700003E+01  0.11043E+05
 0.60200005E+01  0.10319E+05
 0.60699997E+01  0.95150E+04
 0.61199999E+01  0.93310E+04
 0.61700001E+01  0.88160E+04
 0.62200003E+01  0.83720E+04
 0.62700005E+01  0.88030E+04
 0.63199997E+01  0.89320E+04
 0.63699999E+01  0.89810E+04
 0.64200001E+01  0.93010E+04
 0.64700003E+01  0.98520E+04
 0.65200005E+01  0.96970E+04
 0.65699997E+01  0.96090E+04
 0.66199999E+01  0.94160E+04
 0.66700001E+01  0.85520E+04
 0.67200003E+01  0.80260E+04
 0.67700005E+01  0.71960E+04
 0.68199997E+01  0.63700E+04
 0.68699999E+01  0.52280E+04
 0.69200001E+01  0.41950E+04
 0.69700003E+01  0.32210E+04
 0.70200005E+01  0.20770E+04
 0.70699997E+01  0.15420E+04
 0.71199999E+01  0.12640E+04
 0.71700001E+01  0.10250E+04
 0.72200003E+01  0.13250E+04
 0.72700005E+01  0.26360E+04
 0.73199997E+01  0.34280E+04
 0.73699999E+01  0.44910E+04
 0.74200001E+01  0.52770E+04
 0.74700003E+01  0.51120E+04
 0.75200005E+01  0.49350E+04
 0.75699997E+01  0.36760E+04
 0.76199999E+01  0.13650E+04
 0.76700001E+01 -0.18500E+04
 0.77200003E+01 -0.55460E+04
 0.77700005E+01 -0.87850E+04
 0.78199997E+01 -0.11872E+05
 0.78699999E+01 -0.15036E+05
 0.79200001E+01 -0.17413E+05
 0.79700003E+01 -0.19720E+05
 0.80200005E+01 -0.21079E+05
 0.80699997E+01 -0.21100E+05
 0.81199999E+01 -0.21071E+05
 0.81700001E+01 -0.20382E+05
 0.82200003E+01 -0.19268E+05
 0.82700005E+01 -0.17706E+05
 0.83199997E+01 -0.15068E+05
 0.83699999E+01 -0.11950E+05
 0.84200001E+01 -0.90790E+04
 0.84700003E+01 -0.64020E+04
 0.85200005E+01 -0.41130E+04
 0.85699997E+01 -0.23560E+04
 0.86199999E+01 -0.75500E+03
 0.86700001E+01 -0.21000E+02
 0.87200003E+01 -0.33200E+03
 0.87700005E+01  0.75000E+02
 0.88199997E+01 -0.13800E+03
 0.88699999E+01 -0.82300E+03
 0.89200001E+01 -0.76000E+03
 0.89700003E+01 -0.16090E+04
 0.90200005E+01 -0.21930E+04
 0.90699997E+01 -0.21020E+04
 0.91199999E+01 -0.17990E+04
 0.91700001E+01 -0.13770E+04
 0.92200003E+01 -0.47800E+03
 0.92700005E+01  0.91100E+03
 0.93199997E+01  0.19030E+04
 0.93699999E+01  0.35700E+04
 0.94200001E+01  0.52220E+04
 0.94700003E+01  0.55960E+04
 0.95200005E+01  0.53880E+04
 0.95699997E+01  0.51320E+04
 0.96199999E+01  0.46860E+04
 0.96700001E+01  0.38070E+04
 0.97200003E+01  0.36770E+04
 0.97700005E+01  0.35180E+04
 0.98199997E+01  0.24170E+04
 0.98699999E+01  0.24180E+04
 0.99200001E+01  0.24850E+04
 0.99700003E+01  0.16980E+04
 0.10020000E+02  0.12070E+04
 0.10070000E+02  0.10610E+04
 0.10120000E+02  0.71000E+02
 0.10170000E+02 -0.12120E+04
 0.10220000E+02 -0.17590E+04
 0.10270000E+02 -0.36680E+04
 0.10320000E+02 -0.59110E+04
 0.10370000E+02 -0.73590E+04
 0.10420000E+02 -0.96000E+04
 0.10470000E+02 -0.12242E+05
 0.10520000E+02 -0.14206E+05
 0.10570000E+02 -0.16242E+05
 0.10620000E+02 -0.18847E+05
 0.10670000E+02 -0.20484E+05
 0.10720000E+02 -0.21567E+05
 0.10770000E+02 -0.23223E+05
 0.10820000E+02 -0.24109E+05
 0.10870000E+02 -0.23962E+05
 0.10920000E+02 -0.24106E+05
 0.10970000E+02 -0.23668E+05
 0.11020000E+02 -0.21840E+05
 0.11070000E+02 -0.20030E+05
 0.11120000E+02 -0.18469E+05
 0.11170000E+02 -0.16265E+05
 0.11220000E+02 -0.14536E+05
 0.11270000E+02 -0.13529E+05
 0.11320000E+02 -0.11523E+05
 0.11370000E+02 -0.93450E+04
 0.11420000E+02 -0.77760E+04
 0.11470000E+02 -0.54250E+04
 0.11520000E+02 -0.26390E+04
 0.11570000E+02 -0.49600E+03
 0.11620000E+02  0.20220E+04
 0.11670000E+02  0.49170E+04
 0.11720000E+02  0.66300E+04
 0.11770000E+02  0.80460E+04
 0.11820000E+02  0.10246E+05
 0.11870000E+02  0.11892E+05
 0.11920000E+02  0.12926E+05
 0.11970000E+02  0.14653E+05
 0.12020000E+02  0.16366E+05
 0.12070000E+02  0.17927E+05
 0.12120000E+02  0.20335E+05
 0.12170001E+02  0.22825E+05
 0.12220000E+02  0.24314E+05
 0.12270000E+02  0.24917E+05
 0.12320001E+02  0.25923E+05
 0.12370000E+02  0.26087E+05
 0.12420001E+02  0.26243E+05
 0.12470000E+02  0.27760E+05
 0.12520000E+02  0.27886E+05
 0.12570001E+02  0.28443E+05
 0.12620000E+02  0.29390E+05
 0.12670001E+02  0.29166E+05
 0.12720000E+02  0.28317E+05
 0.12770000E+02  0.26856E+05
 0.12820001E+02  0.25419E+05
 0.12870000E+02  0.22948E+05
 0.12920001E+02  0.20839E+05
 0.12970000E+02  0.19125E+05
 0.13020000E+02  0.16393E+05
 0.13070001E+02  0.14365E+05
 0.13120000E+02  0.12707E+05
 0.13170001E+02  0.10621E+05
 0.13220000E+02  0.84580E+04
 0.13270000E+02  0.62600E+04
 0.13320001E+02  0.40960E+04
 0.13370000E+02  0.15560E+04
 0.13420001E+02 -0.29600E+03
 0.13470000E+02 -0.23740E+04
 0.13520000E+02 -0.46010E+04
 0.13570001E+02 -0.55450E+04
 0.13620000E+02 -0.68510E+04
 0.13670001E+02 -0.68790E+04
 0.13720000E+02 -0.67710E+04
 0.13770000E+02 -0.67620E+04
 0.13820001E+02 -0.55090E+04
 0.13870000E+02 -0.50490E+04
 0.13920001E+02 -0.37010E+04
 0.13970000E+02 -0.18840E+04
 0.14020000E+02  0.50000E+02
 0.14070001E+02  0.22730E+04
 0.14120000E+02  0.46850E+04
 0.14170001E+02  0.74050E+04
 0.14220000E+02  0.92650E+04
 0.14270000E+02  0.11543E+05
 0.14320001E+02  0.13377E+05
 0.14370000E+02  0.14371E+05
 0.14420001E+02  0.15123E+05
 0.14470000E+02  0.15350E+05
 0.14520000E+02  0.14791E+05
 0.14570001E+02  0.13147E+05
 0.14620000E+02  0.11718E+05
 0.14670001E+02  0.97770E+04
 0.14720000E+02  0.71060E+04
 0.14770000E+02  0.42290E+04
 0.14820001E+02  0.75200E+03
 0.14870000E+02 -0.26470E+04
 0.14920001E+02 -0.62980E+04
 0.14970000E+02 -0.98040E+04
 0.15020000E+02 -0.12351E+05
 0.15070001E+02 -0.14831E+05
 0.15120000E+02 -0.16827E+05
 0.15170001E+02 -0.17197E+05
 0.15220000E+02 -0.17214E+05
 0.15270000E+02 -0.17101E+05
 0.15320001E+02 -0.15674E+05
 0.15370000E+02 -0.14369E+05
 0.15420001E+02 -0.13615E+05
 0.15470000E+02 -0.11931E+05
 0.15520000E+02 -0.10210E+05
 0.15570001E+02 -0.89400E+04
 0.15620000E+02 -0.73510E+04
 0.15670001E+02 -0.57110E+04
 0.15720000E+02 -0.45420E+04
 0.15770000E+02 -0.38030E+04
 0.15820001E+02 -0.23910E+04
 0.15870000E+02 -0.14810E+04
 0.15920001E+02 -0.16750E+04
 0.15970000E+02 -0.13400E+04
 0.16020000E+02 -0.14820E+04
 0.16070000E+02 -0.20380E+04
 0.16119999E+02 -0.18690E+04
 0.16170002E+02 -0.15840E+04
 0.16220001E+02 -0.15480E+04
 0.16270000E+02 -0.14620E+04
 0.16320000E+02 -0.46300E+03
 0.16369999E+02  0.29700E+03
 0.16420002E+02  0.60700E+03
 0.16470001E+02  0.16350E+04
 0.16520000E+02  0.16600E+04
 0.16570000E+02  0.13030E+04
 0.16619999E+02  0.14780E+04
 0.16670002E+02  0.97800E+03
 0.16720001E+02  0.92000E+02
 0.16770000E+02 -0.74100E+03
 0.16820000E+02 -0.16430E+04
 0.16869999E+02 -0.31120E+04
 0.16920002E+02 -0.47970E+04
 0.16970001E+02 -0.65100E+04
 0.17020000E+02 -0.87710E+04
 0.17070000E+02 -0.10728E+05
 0.17119999E+02 -0.12003E+05
 0.17170002E+02 -0.13261E+05
 0.17220001E+02 -0.14287E+05
 0.17270000E+02 -0.14575E+05
 0.17320000E+02 -0.14731E+05
 0.17369999E+02 -0.15082E+05
 0.17420002E+02 -0.14475E+05
 0.17470001E+02 -0.13400E+05
 0.17520000E+02 -0.12000E+05
 0.17570000E+02 -0.94620E+04
 0.17619999E+02 -0.63020E+04
 0.17670002E+02 -0.28320E+04
 0.17720001E+02  0.72800E+03
 0.17770000E+02  0.46990E+04
 0.17820000E+02  0.81410E+04
 0.17869999E+02  0.11028E+05
 0.17920002E+02  0.13807E+05
 0.17970001E+02  0.15548E+05
 0.18020000E+02  0.16678E+05
 0.18070000E+02  0.17322E+05
 0.18119999E+02  0.17258E+05
 0.18170002E+02  0.16514E+05
 0.18220001E+02  0.15320E+05
 0.18270000E+02  0.13723E+05
 0.18320000E+02  0.12148E+05
 0.18369999E+02  0.10721E+05
 0.18420002E+02  0.96110E+04
 0.18470001E+02  0.91820E+04
 0.18520000E+02  0.89400E+04
 0.18570000E+02  0.88830E+04
 0.18619999E+02  0.87070E+04
 0.18670002E+02  0.81870E+04
 0.18720001E+02  0.77900E+04
 0.18770000E+02  0.79380E+04
 0.18820000E+02  0.80970E+04
 0.18869999E+02  0.81700E+04
 0.18920002E+02  0.83120E+04
 0.18970001E+02  0.82820E+04
 0.19020000E+02  0.84850E+04
 0.19070000E+02  0.86600E+04
 0.19119999E+02  0.90030E+04
 0.19170002E+02  0.92870E+04
 0.19220001E+02  0.93550E+04
 0.19270000E+02  0.99690E+04
 0.19320000E+02  0.10003E+05
 0.19369999E+02  0.98770E+04
 0.19420002E+02  0.10448E+05
 0.19470001E+02  0.10542E+05
 0.19520000E+02  0.10582E+05
 0.19570000E+02  0.10654E+05
 0.19619999E+02  0.99610E+04
 0.19670002E+02  0.87120E+04
 0.19720001E+02  0.74510E+04
 0.19770000E+02  0.62680E+04
 0.19820000E+02  0.51210E+04
 0.19869999E+02  0.45110E+04
 0.19920002E+02  0.39310E+04
 0.19970001E+02  0.32110E+04
 0.20020000E+02  0.24320E+04
 0.20070000E+02  0.13840E+04
 0.20119999E+02  0.15900E+03
 0.20170002E+02 -0.15240E+04
 0.20220001E+02 -0.30240E+04
 0.20270000E+02 -0.46110E+04
 0.20320000E+02 -0.58700E+04
 0.20369999E+02 -0.67940E+04
 0.20420002E+02 -0.84150E+04
 0.20470001E+02 -0.10520E+05
 0.20520000E+02 -0.13079E+05
 0.20570000E+02 -0.15872E+05
 0.20619999E+02 -0.19114E+05
 0.20670002E+02 -0.21533E+05
 0.20720001E+02 -0.23811E+05
 0.20770000E+02 -0.26251E+05
 0.20820000E+02 -0.27271E+05
 0.20869999E+02 -0.28042E+05
 0.20920002E+02 -0.28530E+05
 0.20970001E+02 -0.28475E+05
 0.21020000E+02 -0.27924E+05
 0.21070000E+02 -0.27404E+05
 0.21119999E+02 -0.26379E+05
 0.21170002E+02 -0.24944E+05
 0.21220001E+02 -0.24267E+05
 0.21270000E+02 -0.22969E+05
 0.21320000E+02 -0.21360E+05
 0.21369999E+02 -0.19819E+05
 0.21420002E+02 -0.17858E+05
 0.21470001E+02 -0.15485E+05
 0.21520000E+02 -0.13558E+05
 0.21570000E+02 -0.11887E+05
 0.21619999E+02 -0.97810E+04
 0.21670002E+02 -0.85740E+04
 0.21720001E+02 -0.74010E+04
 0.21770000E+02 -0.55520E+04
 0.21820000E+02 -0.42440E+04
 0.21869999E+02 -0.28520E+04
 0.21920002E+02 -0.87900E+03
 0.21970001E+02  0.51900E+03
 0.22020000E+02  0.23830E+04
 0.22070000E+02  0.48460E+04
 0.22119999E+02  0.79080E+04
 0.22170002E+02  0.11790E+05
 0.22220001E+02  0.16799E+05
 0.22270000E+02  0.23564E+05
 0.22320000E+02  0.28040E+05
 0.22369999E+02  0.30405E+05
 0.22420002E+02  0.30862E+05
 0.22470001E+02  0.28988E+05
 0.22520000E+02  0.25616E+05
 0.22570000E+02  0.25449E+05
 0.22619999E+02  0.29200E+05
 0.22670002E+02  0.28933E+05
 0.22720001E+02  0.31026E+05
 0.22770000E+02  0.33347E+05
 0.22820000E+02  0.30483E+05
 0.22869999E+02  0.30469E+05
 0.22920002E+02  0.35243E+05
 0.22970001E+02  0.39728E+05
 0.23020000E+02  0.52747E+05
 0.23070000E+02  0.69371E+05
 0.23119999E+02  0.76549E+05
 0.23170002E+02  0.87072E+05
 0.23220001E+02  0.87153E+05
 0.23270000E+02  0.80741E+05
 0.23320000E+02  0.86948E+05
 0.23369999E+02  0.92160E+05
 0.23420002E+02  0.90189E+05
 0.23470001E+02  0.88266E+05
 0.23520000E+02  0.61235E+05
 0.23570000E+02  0.21762E+05
 0.23619999E+02  0.21886E+05
 0.23670002E+02  0.24018E+05
 0.23720001E+02  0.44824E+05
 0.23770000E+02  0.93249E+05
 0.23820000E+02  0.79332E+05
 0.23869999E+02  0.41256E+05
 0.23920002E+02  0.59246E+05
 0.23970001E+02  0.78056E+05
 0.24020000E+02  0.59703E+05
 0.24070000E+02  0.42676E+05
 0.24119999E+02  0.37928E+05
 0.24170002E+02  0.41225E+05
 0.24220001E+02  0.43704E+05
 0.24270000E+02  0.51771E+05
 0.24320000E+02  0.21389E+05
 0.24369999E+02 -0.50300E+05
 0.24420002E+02 -0.67105E+05
 0.24470001E+02 -0.62978E+05
 0.24520000E+02 -0.11405E+06
 0.24570000E+02 -0.13913E+06
 0.24619999E+02 -0.99991E+05
 0.24670002E+02 -0.11506E+06
 0.24720001E+02 -0.17675E+06
 0.24770000E+02 -0.17141E+06
 0.24820000E+02 -0.16516E+06
 0.24869999E+02 -0.24640E+06
 0.24920002E+02 -0.28942E+06
 0.24970001E+02 -0.22883E+06
 0.25020000E+02 -0.12954E+06
 0.25070000E+02 -0.73088E+05
 0.25119999E+02 -0.17539E+05
 0.25170002E+02 -0.24584E+05
 0.25220001E+02 -0.12816E+06
 0.25270000E+02 -0.93489E+05
 0.25320000E+02 -0.57901E+05
 0.25369999E+02  0.27411E+05
 0.25420002E+02  0.15472E+06
 0.25470001E+02  0.57069E+05
 0.25520000E+02  0.81090E+04
 0.25570000E+02  0.57189E+05
 0.25619999E+02  0.39500E+04
 0.25670002E+02 -0.71665E+05
 0.25720001E+02 -0.74237E+05
 0.25770000E+02 -0.19138E+05
 0.25820000E+02  0.53670E+05
 0.25869999E+02  0.11030E+06
 0.25920002E+02  0.16469E+06
 0.25970001E+02  0.23282E+06
 0.26020000E+02  0.17080E+06
 0.26070000E+02  0.28032E+05
 0.26119999E+02  0.18794E+06
 0.26170002E+02  0.39187E+06
 0.26220001E+02  0.33642E+06
 0.26270000E+02  0.34270E+06
 0.26320000E+02  0.20894E+06
 0.26369999E+02  0.79270E+05
 0.26420002E+02  0.13554E+06
 0.26470001E+02  0.44146E+05
 0.26520000E+02 -0.39676E+05
 0.26570000E+02 -0.21613E+06
 0.26619999E+02 -0.29042E+06
 0.26670002E+02 -0.17639E+06
 0.26720001E+02 -0.21854E+06
 0.26770000E+02 -0.33869E+06
 0.26820000E+02 -0.50892E+06
 0.26869999E+02 -0.42382E+06
 0.26920002E+02 -0.22069E+06
 0.26970001E+02 -0.28783E+06
 0.27020000E+02 -0.28307E+06
 0.27070000E+02 -0.26041E+06
 0.27119999E+02 -0.30009E+06
 0.27170002E+02 -0.69464E+05
 0.27220001E+02  0.40008E+05
 0.27270000E+02 -0.28286E+05
 0.27320000E+02 -0.28506E+05
 0.27369999E+02 -0.19200E+06
 0.27420002E+02 -0.25740E+06
 0.27470001E+02 -0.10643E+06
 0.27520000E+02  0.92166E+05
 0.27570000E+02  0.13923E+06
 0.27619999E+02  0.11110E+06
 0.27670002E+02  0.53896E+05
 0.27720001E+02 -0.17255E+06
 0.27770000E+02 -0.99987E+05
 0.27820000E+02  0.38920E+04
 0.27869999E+02 -0.42528E+05
 0.27920002E+02  0.11833E+06
 0.27970001E+02  0.16887E+05
 0.28020000E+02 -0.15298E+06
 0.28070000E+02 -0.53643E+05
 0.28119999E+02 -0.17852E+06
 0.28169998E+02 -0.27171E+06
 0.28220001E+02 -0.10366E+06
 0.28270000E+02 -0.13293E+06
 0.28320000E+02 -0.12994E+06
 0.28369999E+02  0.11121E+06
 0.28419998E+02  0.29751E+05
 0.28470001E+02 -0.14648E+06
 0.28520000E+02 -0.14846E+06
 0.28570000E+02 -0.16102E+06
 0.28619999E+02  0.15278E+06
 0.28669998E+02  0.42686E+06
 0.28720001E+02  0.39984E+06
 0.28770000E+02  0.44939E+06
 0.28820000E+02  0.40744E+06
 0.28869999E+02  0.71442E+05
 0.28919998E+02 -0.71820E+04
 0.28970001E+02  0.14224E+05
 0.29020000E+02 -0.14978E+06
 0.29070000E+02  0.96435E+05
 0.29119999E+02  0.14740E+05
 0.29169998E+02 -0.25060E+06
 0.29220001E+02  0.78946E+05
 0.29270000E+02  0.13986E+06
 0.29320000E+02 -0.12177E+06
 0.29369999E+02 -0.17471E+06
 0.29419998E+02 -0.21380E+06
 0.29470001E+02 -0.41242E+06
 0.29520000E+02 -0.37990E+06
 0.29570000E+02 -0.15561E+06
 0.29619999E+02 -0.32570E+05
 0.29669998E+02  0.21820E+06
 0.29720001E+02  0.47828E+06
 0.29770000E+02  0.29009E+06
 0.29820000E+02  0.49860E+04
 0.29869999E+02  0.56506E+05
 0.29919998E+02 -0.10868E+06
 0.29970001E+02 -0.14917E+06
 0.30020000E+02  0.27574E+06
 0.30070000E+02  0.52239E+06
 0.30119999E+02  0.38151E+06
 0.30169998E+02  0.87423E+05
 0.30220001E+02 -0.44130E+04
 0.30270000E+02  0.85740E+04
 0.30320000E+02 -0.83876E+05
 0.30369999E+02 -0.27006E+06
 0.30419998E+02 -0.25925E+06
 0.30470001E+02 -0.18345E+06
 0.30520000E+02 -0.15756E+06
 0.30570000E+02  0.38874E+05
 0.30619999E+02  0.87533E+05
 0.30669998E+02 -0.32720E+04
 0.30720001E+02  0.69574E+05
 0.30770000E+02  0.15537E+06
 0.30820000E+02  0.20630E+06
 0.30869999E+02  0.42713E+06
 0.30919998E+02  0.44411E+06
 0.30970001E+02  0.33593E+06
 0.31020000E+02  0.21306E+06
 0.31070000E+02 -0.41876E+05
 0.31119999E+02 -0.86476E+05
 0.31169998E+02 -0.47752E+05
 0.31220001E+02  0.31408E+05
 0.31270000E+02  0.46593E+05
 0.31320000E+02 -0.15044E+05
 0.31369999E+02  0.12860E+06
 0.31419998E+02  0.19924E+06
 0.31470001E+02 -0.52970E+04
 0.31520000E+02 -0.10247E+06
 0.31570000E+02 -0.15579E+06
 0.31619999E+02 -0.12340E+06
 0.31669998E+02  0.38618E+05
 0.31720001E+02 -0.12342E+05
 0.31770000E+02  0.19874E+06
 0.31820000E+02  0.58694E+06
 0.31869999E+02  0.64842E+06
 0.31919998E+02  0.55644E+06
 0.31970001E+02  0.41379E+06
 0.32020000E+02  0.20865E+06
 0.32070000E+02  0.13325E+06
 0.32119999E+02  0.36154E+06
 0.32169998E+02  0.55083E+06
 0.32220001E+02  0.43417E+06
 0.32270000E+02  0.18270E+06
 0.32320000E+02 -0.97563E+05
 0.32369999E+02 -0.19591E+06
 0.32419998E+02  0.15889E+06
 0.32470001E+02  0.46033E+06
 0.32520000E+02  0.36112E+06
 0.32570000E+02  0.24027E+06
 0.32619999E+02  0.13433E+06
 0.32669998E+02  0.14532E+06
 0.32720001E+02  0.22531E+06
 0.32770000E+02  0.10160E+06
 0.32820000E+02 -0.19019E+06
 0.32869999E+02 -0.42202E+06
 0.32919998E+02 -0.16123E+06
 0.32970001E+02  0.37469E+06
 0.33020000E+02  0.64228E+06
 0.33070000E+02  0.41120E+06
 0.33119999E+02 -0.20610E+06
 0.33169998E+02 -0.35716E+06
 0.33220001E+02 -0.50776E+05
 0.33270000E+02  0.42293E+05
 0.33320000E+02  0.24436E+05
 0.33369999E+02 -0.34974E+05
 0.33419998E+02 -0.98990E+04
 0.33470001E+02  0.14185E+05
 0.33520000E+02  0.45967E+05
 0.33570000E+02  0.14548E+05
 0.33619999E+02 -0.28196E+06
 0.33669998E+02 -0.19428E+06
 0.33720001E+02 -0.55499E+05
 0.33770000E+02 -0.21366E+06
 0.33820000E+02 -0.23421E+06
 0.33869999E+02 -0.45772E+06
 0.33919998E+02 -0.56893E+06
 0.33970001E+02 -0.30549E+06
 0.34020000E+02 -0.10886E+06
 0.34070000E+02 -0.84854E+05
 0.34119999E+02 -0.18090E+06
 0.34169998E+02 -0.11159E+06
 0.34220001E+02 -0.16497E+06
 0.34270000E+02 -0.16805E+06
 0.34320000E+02  0.10613E+06
 0.34369999E+02  0.41301E+05
 0.34419998E+02  0.50995E+05
 0.34470001E+02  0.23577E+06
 0.34520000E+02  0.29889E+06
 0.34570000E+02  0.36949E+06
 0.34619999E+02  0.29244E+06
 0.34669998E+02  0.13803E+06
 0.34720001E+02  0.11517E+06
 0.34770000E+02  0.20440E+06
 0.34820000E+02  0.27914E+06
 0.34869999E+02  0.26894E+06
 0.34919998E+02  0.78163E+05
 0.34970001E+02 -0.16052E+06
 0.35020000E+02 -0.31558E+06
 0.35070000E+02 -0.28776E+06
 0.35119999E+02 -0.11638E+06
 0.35169998E+02 -0.10892E+06
 0.35220001E+02 -0.12048E+06
 0.35270000E+02 -0.82972E+05
 0.35320000E+02 -0.11992E+06
 0.35369999E+02 -0.16060E+06
 0.35419998E+02 -0.22028E+06
 0.35470001E+02 -0.28565E+06
 0.35520000E+02 -0.26166E+06
 0.35570000E+02 -0.12979E+06
 0.35619999E+02 -0.45200E+04
 0.35669998E+02 -0.51814E+05
 0.35720001E+02 -0.11921E+06
 0.35770000E+02 -0.59862E+05
 0.35820000E+02  0.73192E+05
 0.35869999E+02  0.13626E+06
 0.35919998E+02 -0.65402E+05
 0.35970001E+02 -0.26850E+06
 0.36020000E+02 -0.41189E+06
 0.36070000E+02 -0.49967E+06
 0.36119999E+02 -0.39233E+06
 0.36169998E+02 -0.21810E+06
 0.36220001E+02 -0.88649E+05
 0.36270000E+02 -0.75100E+05
 0.36320000E+02  0.51008E+05
 0.36369999E+02  0.90640E+05
 0.36419998E+02 -0.15063E+06
 0.36470001E+02 -0.20821E+06
 0.36520000E+02 -0.21222E+06
 0.36570000E+02 -0.31738E+06
 0.36619999E+02 -0.29451E+06
 0.36669998E+02 -0.27279E+06
 0.36720001E+02 -0.34288E+06
 0.36770000E+02 -0.30695E+06
 0.36820000E+02 -0.22627E+06
 0.36869999E+02 -0.28039E+06
 0.36919998E+02 -0.16915E+06
 0.36970001E+02  0.17390E+05
 0.37020000E+02  0.25221E+05
 0.37070000E+02  0.36807E+05
 0.37119999E+02  0.21653E+05
 0.37169998E+02  0.28570E+04
 0.37220001E+02  0.49890E+04
 0.37270000E+02  0.52537E+05
 0.37320000E+02  0.17295E+06
 0.37369999E+02  0.25043E+06
 0.37419998E+02  0.22138E+06
 0.37470001E+02  0.84942E+05
 0.37520000E+02 -0.18963E+05
 0.37570000E+02 -0.23450E+04
 0.37619999E+02 -0.52275E+05
 0.37669998E+02 -0.21663E+06
 0.37720001E+02 -0.16388E+06
 0.37770000E+02 -0.63574E+05
 0.37820000E+02 -0.99400E+05
 0.37869999E+02  0.28230E+05
 0.37919998E+02  0.10416E+06
 0.37970001E+02 -0.45019E+05
 0.38020000E+02 -0.10243E+06
 0.38070000E+02 -0.73815E+05
 0.38119999E+02 -0.95693E+05
 0.38169998E+02  0.38815E+05
 0.38220001E+02  0.10012E+06
 0.38270000E+02 -0.66835E+05
 0.38320000E+02 -0.80446E+05
 0.38369999E+02 -0.33358E+05
 0.38419998E+02 -0.25415E+05
 0.38470001E+02 -0.90960E+04
 0.38520000E+02  0.10419E+05
 0.38570000E+02  0.14004E+06
 0.38619999E+02  0.19301E+06
 0.38669998E+02  0.56542E+05
 0.38720001E+02 -0.89251E+05
 0.38770000E+02 -0.27043E+06
 0.38820000E+02 -0.32828E+06
 0.38869999E+02 -0.12290E+06
 0.38919998E+02  0.98716E+05
 0.38970001E+02  0.24493E+06
 0.39020000E+02  0.22532E+06
 0.39070000E+02  0.13413E+06
 0.39119999E+02  0.59141E+05
 0.39169998E+02 -0.48420E+05
 0.39220001E+02 -0.56721E+05
 0.39270000E+02 -0.69229E+05
 0.39320000E+02 -0.12667E+06
 0.39369999E+02  0.15661E+05
 0.39419998E+02  0.24867E+06
 0.39470001E+02  0.16049E+06
 0.39520000E+02 -0.63261E+05
 0.39570000E+02 -0.36517E+05
 0.39619999E+02 -0.28300E+04
 0.39669998E+02  0.84960E+04
 0.39720001E+02  0.10696E+06
 0.39770000E+02  0.86615E+05
 0.39820000E+02  0.17294E+06
 0.39869999E+02  0.33228E+06
 0.39919998E+02  0.29601E+06
 0.39970001E+02  0.22435E+06
 0.40020000E+02  0.15778E+06
 0.40070000E+02  0.78358E+05
 0.40119999E+02  0.75296E+05
 0.40169998E+02  0.16781E+06
 0.40220001E+02  0.13136E+06
 0.40270000E+02 -0.46188E+05
 0.40320000E+02 -0.79697E+05
 0.40369999E+02 -0.48970E+05
 0.40419998E+02 -0.18954E+06
 0.40470001E+02 -0.27167E+06
 0.40520000E+02 -0.14485E+06
 0.40570000E+02 -0.10929E+06
 0.40619999E+02 -0.10645E+06
 0.40669998E+02 -0.98228E+05
 0.40720001E+02 -0.26584E+06
 0.40770000E+02 -0.31044E+06
 0.40820000E+02 -0.14617E+06
 0.40869999E+02  0.30236E+05
 0.40919998E+02  0.26993E+06
 0.40970001E+02  0.42706E+06
 0.41020000E+02  0.18791E+06
 0.41070000E+02 -0.21243E+06
 0.41119999E+02 -0.27237E+06
 0.41169998E+02 -0.19698E+06
 0.41220001E+02 -0.19047E+06
 0.41270000E+02 -0.74965E+05
 0.41320000E+02 -0.11998E+05
 0.41369999E+02  0.11101E+05
 0.41419998E+02  0.21436E+06
 0.41470001E+02  0.33888E+06
 0.41520000E+02  0.12086E+06
 0.41570000E+02 -0.41302E+06
 0.41619999E+02 -0.98737E+06
 0.41669998E+02 -0.10111E+07
 0.41720001E+02 -0.52722E+06
 0.41770000E+02  0.16128E+05
 0.41820000E+02  0.57272E+06
 0.41869999E+02  0.65511E+06
 0.41919998E+02  0.25760E+06
 0.41970001E+02 -0.41935E+05
 0.42020000E+02 -0.40112E+06
 0.42070000E+02 -0.68175E+06
 0.42119999E+02 -0.70250E+06
 0.42169998E+02 -0.60213E+06
 0.42220001E+02 -0.34026E+06
 0.42270000E+02 -0.31467E+05
 0.42320000E+02  0.10797E+06
 0.42369999E+02  0.98047E+05
 0.42419998E+02  0.10095E+06
 0.42470001E+02 -0.33431E+05
 0.42520000E+02 -0.23325E+06
 0.42570000E+02 -0.16759E+06
 0.42619999E+02  0.78419E+05
 0.42669998E+02  0.34952E+06
 0.42720001E+02  0.51396E+06
 0.42770000E+02  0.29253E+06
 0.42820000E+02 -0.75343E+05
 0.42869999E+02 -0.13014E+06
 0.42919998E+02 -0.14315E+05
 0.42970001E+02  0.65869E+05
 0.43020000E+02  0.91046E+05
 0.43070000E+02  0.10381E+06
 0.43119999E+02  0.26953E+06
 0.43169998E+02  0.58002E+06
 0.43220001E+02  0.77281E+06
 0.43270000E+02  0.61266E+06
 0.43320000E+02  0.24618E+06
 0.43369999E+02  0.66818E+05
 0.43419998E+02  0.15940E+06
 0.43470001E+02  0.27368E+06
 0.43520000E+02  0.17958E+06
 0.43570000E+02  0.43850E+05
 0.43619999E+02  0.84816E+05
 0.43669998E+02  0.35842E+05
 0.43720001E+02 -0.20572E+06
 0.43770000E+02 -0.24916E+06
 0.43820000E+02  0.42676E+05
 0.43869999E+02  0.32528E+06
 0.43919998E+02  0.34438E+06
 0.43970001E+02  0.25880E+06
 0.44020000E+02  0.24249E+06
 0.44070000E+02  0.13106E+06
 0.44119999E+02 -0.11395E+06
 0.44169998E+02 -0.33627E+06
 0.44220001E+02 -0.48404E+06
 0.44270000E+02 -0.48451E+06
 0.44320000E+02 -0.36757E+06
 0.44369999E+02 -0.26939E+06
 0.44419998E+02 -0.27710E+06
 0.44470001E+02 -0.29286E+06
 0.44520000E+02 -0.17204E+06
 0.44570000E+02 -0.41477E+05
 0.44619999E+02 -0.14049E+06
 0.44669998E+02 -0.39008E+06
 0.44720001E+02 -0.45899E+06
 0.44770000E+02 -0.29346E+06
 0.44820000E+02  0.80600E+05
 0.44869999E+02  0.28164E+06
 0.44919998E+02 -0.97432E+05
 0.44970001E+02 -0.51757E+06
 0.45020000E+02 -0.48098E+06
 0.45070000E+02 -0.13713E+06
 0.45119999E+02  0.12658E+06
 0.45169998E+02  0.20386E+06
 0.45220001E+02  0.19477E+06
 0.45270000E+02  0.69381E+05
 0.45320000E+02  0.62727E+05
 0.45369999E+02  0.36790E+06
 0.45419998E+02  0.70852E+06
 0.45470001E+02  0.71051E+06
 0.45520000E+02  0.42362E+06
 0.45570000E+02  0.21127E+06
 0.45619999E+02  0.12476E+06
 0.45669998E+02  0.10890E+06
 0.45720001E+02  0.18685E+06
 0.45770000E+02  0.17247E+06
 0.45820000E+02  0.15548E+05
 0.45869999E+02 -0.12651E+06
 0.45919998E+02 -0.23096E+06
 0.45970001E+02 -0.30596E+06
 0.46020000E+02 -0.32871E+06
 0.46070000E+02 -0.37109E+06
 0.46119999E+02 -0.36942E+06
 0.46169998E+02 -0.24996E+06
 0.46220001E+02 -0.15587E+06
 0.46270000E+02 -0.25486E+06
 0.46320000E+02 -0.52916E+06
 0.46369999E+02 -0.67310E+06
 0.46419998E+02 -0.62106E+06
 0.46470001E+02 -0.48240E+06
 0.46520000E+02 -0.11967E+06
 0.46570000E+02  0.30620E+06
 0.46619999E+02  0.37557E+06
 0.46669998E+02  0.15823E+06
 0.46720001E+02 -0.50874E+05
 0.46770000E+02 -0.20828E+06
 0.46820000E+02 -0.21243E+06
 0.46869999E+02 -0.11159E+06
 0.46919998E+02 -0.20346E+06
 0.46970001E+02 -0.46914E+06
 0.47020000E+02 -0.62802E+06
 0.47070000E+02 -0.47872E+06
 0.47119999E+02 -0.97500E+05
 0.47169998E+02  0.20153E+06
 0.47220001E+02  0.28384E+06
 0.47270000E+02  0.24685E+06
 0.47320000E+02  0.74903E+05
 0.47369999E+02 -0.20685E+06
 0.47419998E+02 -0.34250E+06
 0.47470001E+02 -0.24422E+06
 0.47520000E+02 -0.64663E+05
 0.47570000E+02  0.15164E+06
 0.47619999E+02  0.38701E+06
 0.47669998E+02  0.51228E+06
 0.47720001E+02  0.54376E+06
 0.47770000E+02  0.50002E+06
 0.47820000E+02  0.40136E+06
 0.47869999E+02  0.36636E+06
 0.47919998E+02  0.23792E+06
 0.47970001E+02 -0.69987E+05
 0.48020000E+02 -0.39938E+06
 0.48070000E+02 -0.57398E+06
 0.48119999E+02 -0.55027E+06
 0.48169998E+02 -0.46445E+06
 0.48220001E+02 -0.32514E+06
 0.48270000E+02 -0.11491E+06
 0.48320000E+02  0.12252E+06
 0.48369999E+02  0.25076E+06
 0.48419998E+02  0.16490E+06
 0.48470001E+02  0.55466E+05
 0.48520000E+02  0.89262E+05
 0.48570000E+02  0.26986E+06
 0.48619999E+02  0.45915E+06
 0.48669998E+02  0.40974E+06
 0.48720001E+02  0.15681E+06
 0.48770000E+02 -0.12839E+06
 0.48820000E+02 -0.25699E+06
 0.48869999E+02 -0.12178E+06
 0.48919998E+02  0.88641E+05
 0.48970001E+02  0.19975E+06
 0.49020000E+02  0.13226E+06
 0.49070000E+02  0.22660E+04
 0.49119999E+02 -0.88119E+05
 0.49169998E+02 -0.20424E+06
 0.49220001E+02 -0.21028E+06
 0.49270000E+02 -0.22369E+05
 0.49320000E+02  0.17136E+06
 0.49369999E+02  0.27155E+06
 0.49419998E+02  0.29256E+06
 0.49470001E+02  0.17934E+06
 0.49520000E+02  0.23020E+05
 0.49570000E+02 -0.12940E+05
 0.49619999E+02  0.58690E+05
 0.49669998E+02  0.21581E+06
 0.49720001E+02  0.40392E+06
 0.49770000E+02  0.53460E+06
 0.49820000E+02  0.58616E+06
 0.49869999E+02  0.57705E+06
 0.49919998E+02  0.59180E+06
 0.49970001E+02  0.63977E+06
 0.50020000E+02  0.57242E+06
 0.50070000E+02  0.29065E+06
 0.50119999E+02 -0.49719E+05
 0.50169998E+02 -0.24266E+06
 0.50220001E+02 -0.28388E+06
 0.50270000E+02 -0.20714E+06
 0.50320000E+02 -0.39676E+05
 0.50369999E+02  0.10558E+06
 0.50419998E+02  0.19964E+06
 0.50470001E+02  0.26078E+06
 0.50520000E+02  0.22304E+06
 0.50570000E+02  0.15013E+06
 0.50619999E+02  0.19814E+06
 0.50669998E+02  0.34865E+06
 0.50720001E+02  0.46941E+06
 0.50770000E+02  0.48244E+06
 0.50820000E+02  0.35141E+06
 0.50869999E+02  0.19810E+06
 0.50919998E+02  0.16331E+06
 0.50970001E+02  0.20463E+06
 0.51020000E+02  0.39498E+06
 0.51070000E+02  0.69309E+06
 0.51119999E+02  0.81869E+06
 0.51169998E+02  0.78338E+06
 0.51220001E+02  0.79113E+06
 0.51270000E+02  0.87644E+06
 0.51320000E+02  0.96424E+06
 0.51369999E+02  0.97495E+06
 0.51419998E+02  0.85162E+06
 0.51470001E+02  0.61091E+06
 0.51520000E+02  0.36232E+06
 0.51570000E+02  0.21614E+06
 0.51619999E+02  0.17282E+06
 0.51669998E+02  0.10403E+06
 0.51720001E+02 -0.14679E+05
 0.51770000E+02 -0.16347E+06
 0.51820000E+02 -0.42893E+06
 0.51869999E+02 -0.68668E+06
 0.51919998E+02 -0.85859E+06
 0.51970001E+02 -0.99430E+06
 0.52020000E+02 -0.91660E+06
 0.52070000E+02 -0.61759E+06
 0.52119999E+02 -0.31453E+06
 0.52169998E+02 -0.60010E+05
 0.52220001E+02  0.14945E+06
 0.52270000E+02  0.29445E+06
 0.52320000E+02  0.35956E+06
 0.52369999E+02  0.32489E+06
 0.52419998E+02  0.26598E+06
 0.52470001E+02  0.22138E+06
 0.52520000E+02  0.15637E+06
 0.52570000E+02  0.16039E+06
 0.52619999E+02  0.29735E+06
 0.52669998E+02  0.51724E+06
 0.52720001E+02  0.82080E+06
 0.52770000E+02  0.10271E+07
 0.52820000E+02  0.89952E+06
 0.52869999E+02  0.61019E+06
 0.52919998E+02  0.34358E+06
 0.52970001E+02  0.49561E+05
 0.53020000E+02 -0.23282E+06
 0.53070000E+02 -0.39871E+06
 0.53119999E+02 -0.45075E+06
 0.53169998E+02 -0.43324E+06
 0.53220001E+02 -0.32294E+06
 0.53270000E+02 -0.13922E+06
 0.53320000E+02  0.22343E+05
 0.53369999E+02  0.13271E+06
 0.53419998E+02  0.20052E+06
 0.53470001E+02  0.14116E+06
 0.53520000E+02 -0.44891E+05
 0.53570000E+02 -0.16179E+06
 0.53619999E+02 -0.18485E+06
 0.53669998E+02 -0.21945E+06
 0.53720001E+02 -0.27972E+06
 0.53770000E+02 -0.34629E+06
 0.53820000E+02 -0.37769E+06
 0.53869999E+02 -0.42766E+06
 0.53919998E+02 -0.48067E+06
 0.53970001E+02 -0.49295E+06
 0.54020000E+02 -0.57249E+06
 0.54070000E+02 -0.71683E+06
 0.54119999E+02 -0.80867E+06
 0.54169998E+02 -0.81404E+06
 0.54220001E+02 -0.80910E+06
 0.54270000E+02 -0.81818E+06
 0.54320000E+02 -0.79098E+06
 0.54369999E+02 -0.68086E+06
 0.54419998E+02 -0.50986E+06
 0.54470001E+02 -0.39516E+06
 0.54520000E+02 -0.35648E+06
 0.54570000E+02 -0.33837E+06
 0.54619999E+02 -0.32306E+06
 0.54669998E+02 -0.31268E+06
 0.54720001E+02 -0.28213E+06
 0.54770000E+02 -0.20845E+06
 0.54820000E+02 -0.18293E+06
 0.54869999E+02 -0.21989E+06
 0.54919998E+02 -0.20332E+06
 0.54970001E+02 -0.11645E+06
 0.55020000E+02  0.68650E+04
 0.55070000E+02  0.11057E+06
 0.55119999E+02  0.13484E+06
 0.55169998E+02  0.14388E+06
 0.55220001E+02  0.17156E+06
 0.55270000E+02  0.17143E+06
 0.55320000E+02  0.20287E+06
 0.55369999E+02  0.26168E+06
 0.55419998E+02  0.20957E+06
 0.55470001E+02  0.74063E+05
 0.55520000E+02 -0.61274E+05
 0.55570000E+02 -0.22474E+06
 0.55619999E+02 -0.36409E+06
 0.55669998E+02 -0.41796E+06
 0.55720001E+02 -0.46084E+06
 0.55770000E+02 -0.54228E+06
 0.55820000E+02 -0.61266E+06
 0.55869999E+02 -0.61988E+06
 0.55919998E+02 -0.60301E+06
 0.55970001E+02 -0.62672E+06
 0.56020000E+02 -0.66695E+06
 0.56070000E+02 -0.70720E+06
 0.56119999E+02 -0.76430E+06
 0.56169998E+02 -0.79323E+06
 0.56220001E+02 -0.78051E+06
 0.56270000E+02 -0.79281E+06
 0.56320000E+02 -0.78865E+06
 0.56369999E+02 -0.67162E+06
 0.56419998E+02 -0.44448E+06
 0.56470001E+02 -0.19668E+06
 0.56520000E+02 -0.29173E+05
 0.56570000E+02  0.38070E+05
 0.56619999E+02 -0.20450E+04
 0.56669998E+02 -0.11015E+06
 0.56720001E+02 -0.23872E+06
 0.56770000E+02 -0.34121E+06
 0.56820000E+02 -0.31580E+06
 0.56869999E+02 -0.22573E+06
 0.56919998E+02 -0.17177E+06
 0.56970001E+02 -0.12361E+06
 0.57020000E+02 -0.83919E+05
 0.57070000E+02 -0.73853E+05
 0.57119999E+02 -0.77517E+05
 0.57169998E+02 -0.10849E+06
 0.57220001E+02 -0.13906E+06
 0.57270000E+02 -0.56533E+05
 0.57320000E+02  0.97199E+05
 0.57369999E+02  0.15488E+06
 0.57419998E+02  0.12450E+06
 0.57470001E+02  0.90406E+05
 0.57520000E+02  0.84183E+05
 0.57570000E+02  0.14869E+06
 0.57619999E+02  0.26813E+06
 0.57669998E+02  0.35489E+06
 0.57720001E+02  0.33294E+06
 0.57770000E+02  0.19783E+06
 0.57820000E+02  0.32310E+04
 0.57869999E+02 -0.15692E+06
 0.57919998E+02 -0.23038E+06
 0.57970001E+02 -0.29826E+06
 0.58020000E+02 -0.37424E+06
 0.58070000E+02 -0.41012E+06
 0.58119999E+02 -0.42742E+06
 0.58169998E+02 -0.39248E+06
 0.58220001E+02 -0.25849E+06
 0.58270000E+02 -0.83988E+05
 0.58320000E+02  0.33114E+05
 0.58369999E+02  0.12879E+06
 0.58419998E+02  0.27796E+06
 0.58470001E+02  0.42198E+06
 0.58520000E+02  0.51219E+06
 0.58570000E+02  0.56139E+06
 0.58619999E+02  0.58440E+06
 0.58669998E+02  0.63500E+06
 0.58720001E+02  0.72242E+06
 0.58770000E+02  0.75415E+06
 0.58820000E+02  0.72716E+06
 0.58869999E+02  0.71111E+06
 0.58919998E+02  0.69790E+06
 0.58970001E+02  0.69436E+06
 0.59020000E+02  0.69918E+06
 0.59070000E+02  0.68222E+06
 0.59119999E+02  0.64419E+06
 0.59169998E+02  0.56924E+06
 0.59220001E+02  0.48659E+06
 0.59270000E+02  0.45521E+06
 0.59320000E+02  0.45202E+06
 0.59369999E+02  0.38174E+06
 0.59419998E+02  0.22665E+06
 0.59470001E+02  0.11004E+06
 0.59520000E+02  0.81941E+05
 0.59570000E+02  0.10201E+06
 0.59619999E+02  0.15274E+06
 0.59669998E+02  0.18446E+06
 0.59720001E+02  0.15644E+06
 0.59770000E+02  0.88720E+05
 0.59820000E+02  0.23382E+05
 0.59869999E+02 -0.25816E+05
 0.59919998E+02 -0.40918E+05
 0.59970001E+02 -0.94690E+04
 0.60020000E+02  0.22317E+05
 0.60070000E+02  0.26936E+05
 0.60119999E+02  0.85570E+04
 0.60170002E+02  0.13170E+05
 0.60219997E+02  0.75502E+05
 0.60270000E+02  0.13683E+06
 0.60320004E+02  0.13346E+06
 0.60369999E+02  0.35430E+05
 0.60420002E+02 -0.10039E+06
 0.60469997E+02 -0.17262E+06
 0.60520000E+02 -0.20494E+06
 0.60570004E+02 -0.24066E+06
 0.60619999E+02 -0.25892E+06
 0.60670002E+02 -0.26857E+06
 0.60719997E+02 -0.29295E+06
 0.60770000E+02 -0.34187E+06
 0.60820004E+02 -0.39784E+06
 0.60869999E+02 -0.41129E+06
 0.60920002E+02 -0.36728E+06
 0.60969997E+02 -0.27974E+06
 0.61020000E+02 -0.15197E+06
 0.61070004E+02 -0.33544E+05
 0.61119999E+02  0.52250E+04
 0.61170002E+02 -0.32833E+05
 0.61219997E+02 -0.90376E+05
 0.61270000E+02 -0.12929E+06
 0.61320004E+02 -0.11185E+06
 0.61369999E+02 -0.28638E+05
 0.61420002E+02  0.54672E+05
 0.61469997E+02  0.10019E+06
 0.61520000E+02  0.12711E+06
 0.61570004E+02  0.12977E+06
 0.61619999E+02  0.10921E+06
 0.61670002E+02  0.10806E+06
 0.61719997E+02  0.12067E+06
 0.61770000E+02  0.11680E+06
 0.61820004E+02  0.82966E+05
 0.61869999E+02  0.90280E+04
 0.61920002E+02 -0.86647E+05
 0.61969997E+02 -0.15020E+06
 0.62020000E+02 -0.15102E+06
 0.62070004E+02 -0.10825E+06
 0.62119999E+02 -0.38616E+05
 0.62170002E+02  0.26305E+05
 0.62219997E+02  0.43959E+05
 0.62270000E+02  0.31420E+04
 0.62320004E+02 -0.55367E+05
 0.62369999E+02 -0.92674E+05
 0.62420002E+02 -0.12850E+06
 0.62469997E+02 -0.19470E+06
 0.62520000E+02 -0.31043E+06
 0.62570004E+02 -0.45330E+06
 0.62619999E+02 -0.53110E+06
 0.62670002E+02 -0.49901E+06
 0.62719997E+02 -0.40719E+06
 0.62770000E+02 -0.28684E+06
 0.62820004E+02 -0.13457E+06
 0.62869999E+02  0.22340E+05
 0.62920002E+02  0.14173E+06
 0.62969997E+02  0.21342E+06
 0.63020000E+02  0.26115E+06
 0.63070004E+02  0.31529E+06
 0.63119999E+02  0.39608E+06
 0.63170002E+02  0.50581E+06
 0.63219997E+02  0.59237E+06
 0.63270000E+02  0.62534E+06
 0.63320004E+02  0.62152E+06
 0.63369999E+02  0.58830E+06
 0.63420002E+02  0.53642E+06
 0.63469997E+02  0.47621E+06
 0.63520000E+02  0.43329E+06
 0.63570004E+02  0.40790E+06
 0.63619999E+02  0.38672E+06
 0.63670002E+02  0.38994E+06
 0.63719997E+02  0.40718E+06
 0.63770000E+02  0.40135E+06
 0.63820004E+02  0.37079E+06
 0.63869999E+02  0.31044E+06
 0.63920002E+02  0.20628E+06
 0.63969997E+02  0.96689E+05
 0.64020004E+02  0.16453E+05
 0.64070007E+02 -0.22915E+05
 0.64120003E+02 -0.17833E+05
 0.64170006E+02 -0.68090E+04
 0.64220001E+02 -0.15970E+04
 0.64270004E+02  0.19573E+05
 0.64320007E+02  0.35017E+05
 0.64370003E+02  0.19481E+05
 0.64420006E+02 -0.10405E+05
 0.64470001E+02 -0.51602E+05
 0.64520004E+02 -0.96360E+05
 0.64570007E+02 -0.10370E+06
 0.64620003E+02 -0.11055E+06
 0.64670006E+02 -0.16285E+06
 0.64720001E+02 -0.21935E+06
 0.64770004E+02 -0.26416E+06
 0.64820007E+02 -0.30652E+06
 0.64870003E+02 -0.35402E+06
 0.64920006E+02 -0.40682E+06
 0.64970001E+02 -0.42834E+06
 0.65020004E+02 -0.40375E+06
 0.65070007E+02 -0.35554E+06
 0.65120003E+02 -0.32762E+06
 0.65170006E+02 -0.32121E+06
 0.65220001E+02 -0.30000E+06
 0.65270004E+02 -0.28896E+06
 0.65320007E+02 -0.30067E+06
 0.65370003E+02 -0.31587E+06
 0.65420006E+02 -0.31778E+06
 0.65470001E+02 -0.29255E+06
 0.65520004E+02 -0.26028E+06
 0.65570007E+02 -0.21316E+06
 0.65620003E+02 -0.13374E+06
 0.65670006E+02 -0.49529E+05
 0.65720001E+02  0.32970E+04
 0.65770004E+02  0.29014E+05
 0.65820007E+02  0.59287E+05
 0.65870003E+02  0.96531E+05
 0.65920006E+02  0.14568E+06
 0.65970001E+02  0.18877E+06
 0.66020004E+02  0.17691E+06
 0.66070007E+02  0.11921E+06
 0.66120003E+02  0.45196E+05
 0.66170006E+02 -0.21867E+05
 0.66220001E+02 -0.49773E+05
 0.66270004E+02 -0.44514E+05
 0.66320007E+02 -0.26944E+05
 0.66370003E+02  0.29300E+04
 0.66420006E+02  0.18798E+05
 0.66470001E+02 -0.21272E+05
 0.66520004E+02 -0.10724E+06
 0.66570007E+02 -0.18691E+06
 0.66620003E+02 -0.22268E+06
 0.66670006E+02 -0.21274E+06
 0.66720001E+02 -0.16175E+06
 0.66770004E+02 -0.89449E+05
 0.66820007E+02 -0.34300E+05
 0.66870003E+02 -0.12266E+05
 0.66920006E+02 -0.90840E+04
 0.66970001E+02  0.16999E+05
 0.67020004E+02  0.83240E+05
 0.67070007E+02  0.17264E+06
 0.67120003E+02  0.27367E+06
 0.67170006E+02  0.36035E+06
 0.67220001E+02  0.40686E+06
 0.67270004E+02  0.41896E+06
 0.67320007E+02  0.41369E+06
 0.67370003E+02  0.40510E+06
 0.67420006E+02  0.40131E+06
 0.67470001E+02  0.38879E+06
 0.67520004E+02  0.36341E+06
 0.67570007E+02  0.33601E+06
 0.67620003E+02  0.28384E+06
 0.67670006E+02  0.19277E+06
 0.67720001E+02  0.88257E+05
 0.67770004E+02 -0.33004E+05
 0.67820007E+02 -0.17556E+06
 0.67870003E+02 -0.30349E+06
 0.67920006E+02 -0.39380E+06
 0.67970001E+02 -0.43187E+06
 0.68020004E+02 -0.41714E+06
 0.68070007E+02 -0.39266E+06
 0.68120003E+02 -0.38589E+06
 0.68170006E+02 -0.37290E+06
 0.68220001E+02 -0.33569E+06
 0.68270004E+02 -0.28938E+06
 0.68320007E+02 -0.23730E+06
 0.68370003E+02 -0.16035E+06
 0.68420006E+02 -0.55004E+05
 0.68470001E+02  0.55238E+05
 0.68520004E+02  0.14686E+06
 0.68570007E+02  0.21913E+06
 0.68620003E+02  0.28536E+06
 0.68670006E+02  0.36392E+06
 0.68720001E+02  0.44454E+06
 0.68770004E+02  0.48803E+06
 0.68820007E+02  0.48871E+06
 0.68870003E+02  0.45605E+06
 0.68920006E+02  0.38854E+06
 0.68970001E+02  0.29761E+06
 0.69020004E+02  0.20516E+06
 0.69070007E+02  0.12305E+06
 0.69120003E+02  0.55765E+05
 0.69170006E+02  0.19396E+05
 0.69220001E+02  0.61790E+04
 0.69270004E+02 -0.23726E+05
 0.69320007E+02 -0.77075E+05
 0.69370003E+02 -0.13324E+06
 0.69420006E+02 -0.17787E+06
 0.69470001E+02 -0.19054E+06
 0.69520004E+02 -0.16571E+06
 0.69570007E+02 -0.12819E+06
 0.69620003E+02 -0.11149E+06
 0.69670006E+02 -0.12212E+06
 0.69720001E+02 -0.12296E+06
 0.69770004E+02 -0.96754E+05
 0.69820007E+02 -0.83196E+05
 0.69870003E+02 -0.10332E+06
 0.69920006E+02 -0.13245E+06
 0.69970001E+02 -0.15564E+06
 0.70020004E+02 -0.17277E+06
 0.70070007E+02 -0.18213E+06
 0.70120003E+02 -0.19318E+06
 0.70170006E+02 -0.20962E+06
 0.70220001E+02 -0.21089E+06
 0.70270004E+02 -0.19906E+06
 0.70320007E+02 -0.19435E+06
 0.70370003E+02 -0.19988E+06
 0.70420006E+02 -0.22165E+06
 0.70470001E+02 -0.25001E+06
 0.70520004E+02 -0.25209E+06
 0.70570007E+02 -0.23160E+06
 0.70620003E+02 -0.23643E+06
 0.70670006E+02 -0.27768E+06
 0.70720001E+02 -0.31427E+06
 0.70770004E+02 -0.32138E+06
 0.70820007E+02 -0.28703E+06
 0.70870003E+02 -0.20085E+06
 0.70920006E+02 -0.88700E+05
 0.70970001E+02  0.14362E+05
 0.71020004E+02  0.96141E+05
 0.71070007E+02  0.15852E+06
 0.71120003E+02  0.21198E+06
 0.71170006E+02  0.25518E+06
 0.71220001E+02  0.27895E+06
 0.71270004E+02  0.29040E+06
 0.71320007E+02  0.30241E+06
 0.71370003E+02  0.32084E+06
 0.71420006E+02  0.33712E+06
 0.71470001E+02  0.34647E+06
 0.71520004E+02  0.36519E+06
 0.71570007E+02  0.38776E+06
 0.71620003E+02  0.38944E+06
 0.71670006E+02  0.37718E+06
 0.71720001E+02  0.36780E+06
 0.71770004E+02  0.36085E+06
 0.71820007E+02  0.35249E+06
 0.71870003E+02  0.34448E+06
 0.71920006E+02  0.33898E+06
 0.71970001E+02  0.32482E+06
 0.72020004E+02  0.30454E+06
 0.72070007E+02  0.29224E+06
 0.72120003E+02  0.28128E+06
 0.72170006E+02  0.26124E+06
 0.72220001E+02  0.22327E+06
 0.72270004E+02  0.17104E+06
 0.72320007E+02  0.10635E+06
 0.72370003E+02  0.17213E+05
 0.72420006E+02 -0.82114E+05
 0.72470001E+02 -0.16984E+06
 0.72520004E+02 -0.24306E+06
 0.72570007E+02 -0.30901E+06
 0.72620003E+02 -0.37958E+06
 0.72670006E+02 -0.45720E+06
 0.72720001E+02 -0.52348E+06
 0.72770004E+02 -0.55793E+06
 0.72820007E+02 -0.56802E+06
 0.72870003E+02 -0.57586E+06
 0.72920006E+02 -0.57698E+06
 0.72970001E+02 -0.55517E+06
 0.73020004E+02 -0.52418E+06
 0.73070007E+02 -0.49598E+06
 0.73120003E+02 -0.45548E+06
 0.73170006E+02 -0.39188E+06
 0.73220001E+02 -0.30610E+06
 0.73270004E+02 -0.20649E+06
 0.73320007E+02 -0.11990E+06
 0.73370003E+02 -0.62716E+05
 0.73420006E+02 -0.20528E+05
 0.73470001E+02  0.83630E+04
 0.73520004E+02  0.27590E+05
 0.73570007E+02  0.61007E+05
 0.73620003E+02  0.10613E+06
 0.73670006E+02  0.15531E+06
 0.73720001E+02  0.21178E+06
 0.73770004E+02  0.26779E+06
 0.73820007E+02  0.31338E+06
 0.73870003E+02  0.33463E+06
 0.73920006E+02  0.32134E+06
 0.73970001E+02  0.27855E+06
 0.74020004E+02  0.22613E+06
 0.74070007E+02  0.18298E+06
 0.74120003E+02  0.15337E+06
 0.74170006E+02  0.13066E+06
 0.74220001E+02  0.10308E+06
 0.74270004E+02  0.63573E+05
 0.74320007E+02  0.13354E+05
 0.74370003E+02 -0.37239E+05
 0.74420006E+02 -0.81563E+05
 0.74470001E+02 -0.12049E+06
 0.74520004E+02 -0.14720E+06
 0.74570007E+02 -0.15797E+06
 0.74620003E+02 -0.16369E+06
 0.74670006E+02 -0.16725E+06
 0.74720001E+02 -0.15484E+06
 0.74770004E+02 -0.11088E+06
 0.74820007E+02 -0.36955E+05
 0.74870003E+02  0.43195E+05
 0.74920006E+02  0.11882E+06
 0.74970001E+02  0.18762E+06
 0.75020004E+02  0.22827E+06
 0.75070007E+02  0.23868E+06
 0.75120003E+02  0.23929E+06
 0.75170006E+02  0.22950E+06
 0.75220001E+02  0.21261E+06
 0.75270004E+02  0.20103E+06
 0.75320007E+02  0.17976E+06
 0.75370003E+02  0.14433E+06
 0.75420006E+02  0.11219E+06
 0.75470001E+02  0.74358E+05
 0.75520004E+02  0.16640E+05
 0.75570007E+02 -0.45461E+05
 0.75620003E+02 -0.99923E+05
 0.75670006E+02 -0.14377E+06
 0.75720001E+02 -0.16559E+06
 0.75770004E+02 -0.17320E+06
 0.75820007E+02 -0.18444E+06
 0.75870003E+02 -0.19948E+06
 0.75920006E+02 -0.21152E+06
 0.75970001E+02 -0.21845E+06
 0.76020004E+02 -0.21961E+06
 0.76070007E+02 -0.20441E+06
 0.76120003E+02 -0.16573E+06
 0.76170006E+02 -0.10707E+06
 0.76220001E+02 -0.29994E+05
 0.76270004E+02  0.56258E+05
 0.76320007E+02  0.13071E+06
 0.76370003E+02  0.17910E+06
 0.76420006E+02  0.19172E+06
 0.76470001E+02  0.17252E+06
 0.76520004E+02  0.14276E+06
 0.76570007E+02  0.10923E+06
 0.76620003E+02  0.83911E+05
 0.76670006E+02  0.65899E+05
 0.76720001E+02  0.33034E+05
 0.76770004E+02 -0.61300E+03
 0.76820007E+02 -0.25241E+05
 0.76870003E+02 -0.58372E+05
 0.76920006E+02 -0.96427E+05
 0.76970001E+02 -0.12678E+06
 0.77020004E+02 -0.14991E+06
 0.77070007E+02 -0.15680E+06
 0.77120003E+02 -0.14045E+06
 0.77170006E+02 -0.11048E+06
 0.77220001E+02 -0.74156E+05
 0.77270004E+02 -0.47224E+05
 0.77320007E+02 -0.40584E+05
 0.77370003E+02 -0.39800E+05
 0.77420006E+02 -0.34370E+05
 0.77470001E+02 -0.29052E+05
 0.77520004E+02 -0.21520E+05
 0.77570007E+02 -0.47260E+04
 0.77620003E+02  0.18083E+05
 0.77670006E+02  0.44293E+05
 0.77720001E+02  0.73000E+05
 0.77770004E+02  0.11111E+06
 0.77820007E+02  0.15565E+06
 0.77870003E+02  0.18852E+06
 0.77920006E+02  0.21785E+06
 0.77970001E+02  0.24084E+06
 0.78020004E+02  0.24283E+06
 0.78070007E+02  0.23046E+06
 0.78120003E+02  0.20387E+06
 0.78170006E+02  0.16805E+06
 0.78220001E+02  0.13620E+06
 0.78270004E+02  0.11758E+06
 0.78320007E+02  0.11090E+06
 0.78370003E+02  0.10321E+06
 0.78420006E+02  0.95041E+05
 0.78470001E+02  0.95360E+05
 0.78520004E+02  0.10575E+06
 0.78570007E+02  0.12123E+06
 0.78620003E+02  0.12958E+06
 0.78670006E+02  0.12449E+06
 0.78720001E+02  0.11184E+06
 0.78770004E+02  0.95717E+05
 0.78820007E+02  0.85764E+05
 0.78870003E+02  0.94883E+05
 0.78920006E+02  0.12032E+06
 0.78970001E+02  0.15098E+06
 0.79020004E+02  0.18330E+06
 0.79070007E+02  0.21688E+06
 0.79120003E+02  0.23954E+06
 0.79170006E+02  0.24173E+06
 0.79220001E+02  0.21519E+06
 0.79270004E+02  0.15696E+06
 0.79320007E+02  0.89192E+05
 0.79370003E+02  0.28073E+05
 0.79420006E+02 -0.27265E+05
 0.79470001E+02 -0.82460E+05
 0.79520004E+02 -0.14386E+06
 0.79570007E+02 -0.20766E+06
 0.79620003E+02 -0.25795E+06
 0.79670006E+02 -0.28371E+06
 0.79720001E+02 -0.29406E+06
 0.79770004E+02 -0.29804E+06
 0.79820007E+02 -0.29699E+06
 0.79870003E+02 -0.29826E+06
 0.79920006E+02 -0.29779E+06
 0.79970001E+02 -0.28448E+06
 0.80020004E+02 -0.27790E+06
 0.80070007E+02 -0.29077E+06
 0.80120003E+02 -0.30354E+06
 0.80170006E+02 -0.31418E+06
 0.80220001E+02 -0.32844E+06
 0.80270004E+02 -0.34215E+06
 0.80320007E+02 -0.35501E+06
 0.80370003E+02 -0.35559E+06
 0.80420006E+02 -0.32932E+06
 0.80470001E+02 -0.28118E+06
 0.80520004E+02 -0.21572E+06
 0.80570007E+02 -0.13020E+06
 0.80620003E+02 -0.40773E+05
 0.80670006E+02  0.32205E+05
 0.80720001E+02  0.93986E+05
 0.80770004E+02  0.15696E+06
 0.80820007E+02  0.22706E+06
 0.80870003E+02  0.29928E+06
 0.80920006E+02  0.34665E+06
 0.80970001E+02  0.35908E+06
 0.81020004E+02  0.35184E+06
 0.81070007E+02  0.32652E+06
 0.81120003E+02  0.28576E+06
 0.81170006E+02  0.24256E+06
 0.81220001E+02  0.20259E+06
 0.81270004E+02  0.17371E+06
 0.81320007E+02  0.16614E+06
 0.81370003E+02  0.17210E+06
 0.81420006E+02  0.18124E+06
 0.81470001E+02  0.20218E+06
 0.81520004E+02  0.22776E+06
 0.81570007E+02  0.22785E+06
 0.81620003E+02  0.19334E+06
 0.81670006E+02  0.13786E+06
 0.81720001E+02  0.78481E+05
 0.81770004E+02  0.26582E+05
 0.81820007E+02 -0.23396E+05
 0.81870003E+02 -0.76019E+05
 0.81920006E+02 -0.12125E+06
 0.81970001E+02 -0.15799E+06
 0.82020004E+02 -0.18976E+06
 0.82070007E+02 -0.21194E+06
 0.82120003E+02 -0.22659E+06
 0.82170006E+02 -0.23709E+06
 0.82220001E+02 -0.24151E+06
 0.82270004E+02 -0.23844E+06
 0.82320007E+02 -0.22509E+06
 0.82370003E+02 -0.19780E+06
 0.82420006E+02 -0.15128E+06
 0.82470001E+02 -0.90912E+05
 0.82520004E+02 -0.31058E+05
 0.82570007E+02  0.22032E+05
 0.82620003E+02  0.70060E+05
 0.82670006E+02  0.12421E+06
 0.82720001E+02  0.18930E+06
 0.82770004E+02  0.25059E+06
 0.82820007E+02  0.29870E+06
 0.82870003E+02  0.33442E+06
 0.82920006E+02  0.35080E+06
 0.82970001E+02  0.34456E+06
 0.83020004E+02  0.31854E+06
 0.83070007E+02  0.27604E+06
 0.83120003E+02  0.22878E+06
 0.83170006E+02  0.18575E+06
 0.83220001E+02  0.13782E+06
 0.83270004E+02  0.79850E+05
 0.83320007E+02  0.25575E+05
 0.83370003E+02 -0.23751E+05
 0.83420006E+02 -0.70746E+05
 0.83470001E+02 -0.10864E+06
 0.83520004E+02 -0.13817E+06
 0.83570007E+02 -0.16021E+06
 0.83620003E+02 -0.17451E+06
 0.83670006E+02 -0.17914E+06
 0.83720001E+02 -0.17744E+06
 0.83770004E+02 -0.17355E+06
 0.83820007E+02 -0.16148E+06
 0.83870003E+02 -0.14242E+06
 0.83920006E+02 -0.11782E+06
 0.83970001E+02 -0.84136E+05
 0.84020004E+02 -0.51387E+05
 0.84070007E+02 -0.31415E+05
 0.84120003E+02 -0.18538E+05
 0.84170006E+02 -0.13226E+05
 0.84220001E+02 -0.23099E+05
 0.84270004E+02 -0.44963E+05
 0.84320007E+02 -0.82183E+05
 0.84370003E+02 -0.13278E+06
 0.84420006E+02 -0.18362E+06
 0.84470001E+02 -0.23014E+06
 0.84520004E+02 -0.26580E+06
 0.84570007E+02 -0.28214E+06
 0.84620003E+02 -0.28144E+06
 0.84670006E+02 -0.26888E+06
 0.84720001E+02 -0.24046E+06
 0.84770004E+02 -0.19458E+06
 0.84820007E+02 -0.14664E+06
 0.84870003E+02 -0.10634E+06
 0.84920006E+02 -0.73060E+05
 0.84970001E+02 -0.56682E+05
 0.85020004E+02 -0.56223E+05
 0.85070007E+02 -0.56892E+05
 0.85120003E+02 -0.59125E+05
 0.85170006E+02 -0.58924E+05
 0.85220001E+02 -0.40054E+05
 0.85270004E+02 -0.43310E+04
 0.85320007E+02  0.34527E+05
 0.85370003E+02  0.71160E+05
 0.85420006E+02  0.10610E+06
 0.85470001E+02  0.13469E+06
 0.85520004E+02  0.15950E+06
 0.85570007E+02  0.19111E+06
 0.85620003E+02  0.22962E+06
 0.85670006E+02  0.26660E+06
 0.85720001E+02  0.29593E+06
 0.85770004E+02  0.31585E+06
 0.85820007E+02  0.32128E+06
 0.85870003E+02  0.31365E+06
 0.85920006E+02  0.29278E+06
 0.85970001E+02  0.25612E+06
 0.86020004E+02  0.21989E+06
 0.86070007E+02  0.19301E+06
 0.86120003E+02  0.16871E+06
 0.86170006E+02  0.14557E+06
 0.86220001E+02  0.12145E+06
 0.86270004E+02  0.90835E+05
 0.86320007E+02  0.50644E+05
 0.86370003E+02  0.70160E+04
 0.86420006E+02 -0.33065E+05
 0.86470001E+02 -0.69393E+05
 0.86520004E+02 -0.92262E+05
 0.86570007E+02 -0.99223E+05
 0.86620003E+02 -0.10376E+06
 0.86670006E+02 -0.11060E+06
 0.86720001E+02 -0.12200E+06
 0.86770004E+02 -0.13702E+06
 0.86820007E+02 -0.14897E+06
 0.86870003E+02 -0.15344E+06
 0.86920006E+02 -0.14340E+06
 0.86970001E+02 -0.11640E+06
 0.87020004E+02 -0.79562E+05
 0.87070007E+02 -0.43319E+05
 0.87120003E+02 -0.87040E+04
 0.87170006E+02  0.28083E+05
 0.87220001E+02  0.62786E+05
 0.87270004E+02  0.83997E+05
 0.87320007E+02  0.80984E+05
 0.87370003E+02  0.51749E+05
 0.87420006E+02  0.24570E+04
 0.87470001E+02 -0.52063E+05
 0.87520004E+02 -0.10169E+06
 0.87570007E+02 -0.14355E+06
 0.87620003E+02 -0.17281E+06
 0.87670006E+02 -0.18326E+06
 0.87720001E+02 -0.17340E+06
 0.87770004E+02 -0.14766E+06
 0.87820007E+02 -0.10530E+06
 0.87870003E+02 -0.48789E+05
 0.87920006E+02  0.14838E+05
 0.87970001E+02  0.71231E+05
 0.88020004E+02  0.10375E+06
 0.88070007E+02  0.11786E+06
 0.88120003E+02  0.12250E+06
 0.88170006E+02  0.12398E+06
 0.88220001E+02  0.12710E+06
 0.88270004E+02  0.12556E+06
 0.88320007E+02  0.12044E+06
 0.88370003E+02  0.11098E+06
 0.88420006E+02  0.91401E+05
 0.88470001E+02  0.70144E+05
 0.88520004E+02  0.54598E+05
 0.88570007E+02  0.40336E+05
 0.88620003E+02  0.28488E+05
 0.88670006E+02  0.30639E+05
 0.88720001E+02  0.46642E+05
 0.88770004E+02  0.58679E+05
 0.88820007E+02  0.55750E+05
 0.88870003E+02  0.40910E+05
 0.88920006E+02  0.17506E+05
 0.88970001E+02 -0.71400E+04
 0.89020004E+02 -0.24945E+05
 0.89070007E+02 -0.38698E+05
 0.89120003E+02 -0.50930E+05
 0.89170006E+02 -0.60990E+05
 0.89220001E+02 -0.69616E+05
 0.89270004E+02 -0.75856E+05
 0.89320007E+02 -0.72917E+05
 0.89370003E+02 -0.57444E+05
 0.89420006E+02 -0.36464E+05
 0.89470001E+02 -0.14981E+05
 0.89520004E+02  0.72800E+04
 0.89570007E+02  0.36111E+05
 0.89620003E+02  0.71726E+05
 0.89670006E+02  0.10272E+06
 0.89720001E+02  0.11814E+06
 0.89770004E+02  0.11740E+06
 0.89820007E+02  0.10541E+06
 0.89870003E+02  0.76696E+05
 0.89920006E+02  0.32560E+05
 0.89970001E+02 -0.11290E+05
 0.90020004E+02 -0.39328E+05
 0.90070007E+02 -0.46818E+05
 0.90120003E+02 -0.43939E+05
 0.90170006E+02 -0.37664E+05
 0.90220001E+02 -0.32965E+05
 0.90270004E+02 -0.36114E+05
 0.90320007E+02 -0.49526E+05
 0.90370003E+02 -0.70284E+05
 0.90420006E+02 -0.79809E+05
 0.90470001E+02 -0.68413E+05
 0.90520004E+02 -0.43881E+05
 0.90570007E+02 -0.53210E+04
 0.90620003E+02  0.42658E+05
 0.90670006E+02  0.82270E+05
 0.90720001E+02  0.10454E+06
 0.90770004E+02  0.11310E+06
 0.90820007E+02  0.10849E+06
 0.90870003E+02  0.92454E+05
 0.90920006E+02  0.75967E+05
 0.90970001E+02  0.65345E+05
 0.91020004E+02  0.65052E+05
 0.91070007E+02  0.74823E+05
 0.91120003E+02  0.89336E+05
 0.91170006E+02  0.10446E+06
 0.91220001E+02  0.11375E+06
 0.91270004E+02  0.11839E+06
 0.91320007E+02  0.11662E+06
 0.91370003E+02  0.10556E+06
 0.91420006E+02  0.95656E+05
 0.91470001E+02  0.89991E+05
 0.91520004E+02  0.82830E+05
 0.91570007E+02  0.75141E+05
 0.91620003E+02  0.69830E+05
 0.91670006E+02  0.66243E+05
 0.91720001E+02  0.67389E+05
 0.91770004E+02  0.75646E+05
 0.91820007E+02  0.80950E+05
 0.91870003E+02  0.80015E+05
 0.91920006E+02  0.80732E+05
 0.91970001E+02  0.78096E+05
 0.92020004E+02  0.67760E+05
 0.92070007E+02  0.55506E+05
 0.92120003E+02  0.38169E+05
 0.92170006E+02  0.11876E+05
 0.92220001E+02 -0.19943E+05
 0.92270004E+02 -0.54253E+05
 0.92320007E+02 -0.85800E+05
 0.92370003E+02 -0.10942E+06
 0.92420006E+02 -0.12328E+06
 0.92470001E+02 -0.13535E+06
 0.92520004E+02 -0.15542E+06
 0.92570007E+02 -0.17993E+06
 0.92620003E+02 -0.20552E+06
 0.92670006E+02 -0.22391E+06
 0.92720001E+02 -0.22824E+06
 0.92770004E+02 -0.22246E+06
 0.92820007E+02 -0.20401E+06
 0.92870003E+02 -0.17881E+06
 0.92920006E+02 -0.16002E+06
 0.92970001E+02 -0.14860E+06
 0.93020004E+02 -0.13464E+06
 0.93070007E+02 -0.11131E+06
 0.93120003E+02 -0.85155E+05
 0.93170006E+02 -0.61493E+05
 0.93220001E+02 -0.38585E+05
 0.93270004E+02 -0.14894E+05
 0.93320007E+02  0.26140E+04
 0.93370003E+02  0.59410E+04
 0.93420006E+02  0.10300E+04
 0.93470001E+02 -0.23060E+04
 0.93520004E+02 -0.20070E+04
 0.93570007E+02 -0.28630E+04
 0.93620003E+02 -0.52480E+04
 0.93670006E+02 -0.79610E+04
 0.93720001E+02 -0.13001E+05
 0.93770004E+02 -0.19389E+05
 0.93820007E+02 -0.24520E+05
 0.93870003E+02 -0.26029E+05
 0.93920006E+02 -0.24392E+05
 0.93970001E+02 -0.19495E+05
 0.94020004E+02 -0.11236E+05
 0.94070007E+02  0.68000E+03
 0.94120003E+02  0.15505E+05
 0.94170006E+02  0.30582E+05
 0.94220001E+02  0.48282E+05
 0.94270004E+02  0.71615E+05
 0.94320007E+02  0.95538E+05
 0.94370003E+02  0.11706E+06
 0.94420006E+02  0.14004E+06
 0.94470001E+02  0.15823E+06
 0.94520004E+02  0.16704E+06
 0.94570007E+02  0.16947E+06
 0.94620003E+02  0.16425E+06
 0.94670006E+02  0.14981E+06
 0.94720001E+02  0.12604E+06
 0.94770004E+02  0.97170E+05
 0.94820007E+02  0.66682E+05
 0.94870003E+02  0.37666E+05
 0.94920006E+02  0.13227E+05
 0.94970001E+02 -0.59770E+04
 0.95020004E+02 -0.17666E+05
 0.95070007E+02 -0.24874E+05
 0.95120003E+02 -0.33932E+05
 0.95170006E+02 -0.46352E+05
 0.95220001E+02 -0.59957E+05
 0.95270004E+02 -0.73726E+05
 0.95320007E+02 -0.89861E+05
 0.95370003E+02 -0.10804E+06
 0.95420006E+02 -0.12420E+06
 0.95470001E+02 -0.13787E+06
 0.95520004E+02 -0.15245E+06
 0.95570007E+02 -0.16685E+06
 0.95620003E+02 -0.17927E+06
 0.95670006E+02 -0.18551E+06
 0.95720001E+02 -0.17489E+06
 0.95770004E+02 -0.14549E+06
 0.95820007E+02 -0.10675E+06
 0.95870003E+02 -0.73274E+05
 0.95920006E+02 -0.52065E+05
 0.95970001E+02 -0.32494E+05
 0.96020004E+02 -0.68530E+04
 0.96070007E+02  0.20727E+05
 0.96120003E+02  0.44346E+05
 0.96170006E+02  0.61276E+05
 0.96220001E+02  0.74231E+05
 0.96270004E+02  0.83483E+05
 0.96320007E+02  0.83387E+05
 0.96370003E+02  0.73544E+05
 0.96420006E+02  0.61835E+05
 0.96470001E+02  0.51939E+05
 0.96520004E+02  0.44413E+05
 0.96570007E+02  0.43731E+05
 0.96620003E+02  0.48690E+05
 0.96670006E+02  0.58990E+05
 0.96720001E+02  0.78753E+05
 0.96770004E+02  0.10239E+06
 0.96820007E+02  0.12558E+06
 0.96870003E+02  0.14626E+06
 0.96920006E+02  0.15662E+06
 0.96970001E+02  0.15796E+06
 0.97020004E+02  0.15637E+06
 0.97070007E+02  0.15449E+06
 0.97120003E+02  0.15159E+06
 0.97170006E+02  0.14063E+06
 0.97220001E+02  0.12092E+06
 0.97270004E+02  0.98139E+05
 0.97320007E+02  0.76133E+05
 0.97370003E+02  0.58195E+05
 0.97420006E+02  0.39926E+05
 0.97470001E+02  0.15052E+05
 0.97520004E+02 -0.15008E+05
 0.97570007E+02 -0.45575E+05
 0.97620003E+02 -0.70447E+05
 0.97670006E+02 -0.89451E+05
 0.97720001E+02 -0.10410E+06
 0.97770004E+02 -0.10675E+06
 0.97820007E+02 -0.96047E+05
 0.97870003E+02 -0.78701E+05
 0.97920006E+02 -0.60346E+05
 0.97970001E+02 -0.48614E+05
 0.98020004E+02 -0.46528E+05
 0.98070007E+02 -0.49717E+05
 0.98120003E+02 -0.55147E+05
 0.98170006E+02 -0.63175E+05
 0.98220001E+02 -0.69012E+05
 0.98270004E+02 -0.65336E+05
 0.98320007E+02 -0.52555E+05
 0.98370003E+02 -0.35352E+05
 0.98420006E+02 -0.17447E+05
 0.98470001E+02 -0.11770E+04
 0.98520004E+02  0.13357E+05
 0.98570007E+02  0.26792E+05
 0.98620003E+02  0.34627E+05
 0.98670006E+02  0.34755E+05
 0.98720001E+02  0.34133E+05
 0.98770004E+02  0.37218E+05
 0.98820007E+02  0.44725E+05
 0.98870003E+02  0.54391E+05
 0.98920006E+02  0.58600E+05
 0.98970001E+02  0.56086E+05
 0.99020004E+02  0.54537E+05
 0.99070007E+02  0.54755E+05
 0.99120003E+02  0.48271E+05
 0.99170006E+02  0.29397E+05
 0.99220001E+02 -0.16110E+04
 0.99270004E+02 -0.38630E+05
 0.99320007E+02 -0.70986E+05
 0.99370003E+02 -0.92457E+05
 0.99420006E+02 -0.10456E+06
 0.99470001E+02 -0.11049E+06
 0.99520004E+02 -0.11028E+06
 0.99570007E+02 -0.98405E+05
 0.99620003E+02 -0.76645E+05
 0.99670006E+02 -0.55446E+05
 0.99720001E+02 -0.34138E+05
 0.99770004E+02 -0.11191E+05
 0.99820007E+02  0.78010E+04
 0.99870003E+02  0.18273E+05
 0.99920006E+02  0.19735E+05
 0.99970001E+02  0.19661E+05
 0.10002000E+03  0.20947E+05
 0.10007001E+03  0.23119E+05
 0.10012000E+03  0.27412E+05
 0.10017001E+03  0.29736E+05
 0.10022000E+03  0.31933E+05
 0.10027000E+03  0.39954E+05
 0.10032001E+03  0.54288E+05
 0.10037000E+03  0.74516E+05
 0.10042001E+03  0.98384E+05
 0.10047000E+03  0.12231E+06
 0.10052000E+03  0.14597E+06
 0.10057001E+03  0.16810E+06
 0.10062000E+03  0.18270E+06
 0.10067001E+03  0.18733E+06
 0.10072000E+03  0.18670E+06
 0.10077000E+03  0.18340E+06
 0.10082001E+03  0.17399E+06
 0.10087000E+03  0.15880E+06
 0.10092001E+03  0.14169E+06
 0.10097000E+03  0.12659E+06
 0.10102000E+03  0.11941E+06
 0.10107001E+03  0.11811E+06
 0.10112000E+03  0.11787E+06
 0.10117001E+03  0.11463E+06
 0.10122000E+03  0.10253E+06
 0.10127000E+03  0.83012E+05
 0.10132001E+03  0.59277E+05
 0.10137000E+03  0.33650E+05
 0.10142001E+03  0.79760E+04
 0.10147000E+03 -0.16569E+05
 0.10152000E+03 -0.36361E+05
 0.10157001E+03 -0.46681E+05
 0.10162000E+03 -0.46718E+05
 0.10167001E+03 -0.41600E+05
 0.10172000E+03 -0.31914E+05
 0.10177000E+03 -0.15934E+05
 0.10182001E+03  0.12750E+04
 0.10187000E+03  0.15598E+05
 0.10192001E+03  0.28145E+05
 0.10197000E+03  0.38015E+05
 0.10202000E+03  0.44598E+05
 0.10207001E+03  0.48445E+05
 0.10212000E+03  0.46724E+05
 0.10217001E+03  0.38335E+05
 0.10222000E+03  0.25874E+05
 0.10227000E+03  0.10219E+05
 0.10232001E+03 -0.12273E+05
 0.10237000E+03 -0.41278E+05
 0.10242001E+03 -0.72795E+05
 0.10247000E+03 -0.10545E+06
 0.10252000E+03 -0.13564E+06
 0.10257001E+03 -0.16288E+06
 0.10262000E+03 -0.18555E+06
 0.10267001E+03 -0.19416E+06
 0.10272000E+03 -0.18983E+06
 0.10277000E+03 -0.17853E+06
 0.10282001E+03 -0.15984E+06
 0.10287000E+03 -0.13768E+06
 0.10292001E+03 -0.11568E+06
 0.10297000E+03 -0.95336E+05
 0.10302000E+03 -0.77701E+05
 0.10307001E+03 -0.61113E+05
 0.10312000E+03 -0.42934E+05
 0.10317001E+03 -0.23430E+05
 0.10322000E+03 -0.71340E+04
 0.10327000E+03  0.32660E+04
 0.10332001E+03  0.59980E+04
 0.10337000E+03  0.14450E+04
 0.10342001E+03 -0.59920E+04
 0.10347000E+03 -0.18277E+05
 0.10352000E+03 -0.38674E+05
 0.10357001E+03 -0.58940E+05
 0.10362000E+03 -0.75287E+05
 0.10367001E+03 -0.91723E+05
 0.10372000E+03 -0.10411E+06
 0.10377000E+03 -0.10967E+06
 0.10382001E+03 -0.11069E+06
 0.10387000E+03 -0.10726E+06
 0.10392001E+03 -0.10182E+06
 0.10397000E+03 -0.97374E+05
 0.10402000E+03 -0.88330E+05
 0.10407001E+03 -0.72526E+05
 0.10412000E+03 -0.57322E+05
 0.10417001E+03 -0.40430E+05
 0.10422000E+03 -0.19809E+05
 0.10427000E+03 -0.11920E+04
 0.10432001E+03  0.18162E+05
 0.10437000E+03  0.42314E+05
 0.10442001E+03  0.67818E+05
 0.10447000E+03  0.94030E+05
 0.10452000E+03  0.12100E+06
 0.10457001E+03  0.14382E+06
 0.10462000E+03  0.16450E+06
 0.10467001E+03  0.18865E+06
 0.10472000E+03  0.21544E+06
 0.10477000E+03  0.24049E+06
 0.10482001E+03  0.25973E+06
 0.10487000E+03  0.26934E+06
 0.10492001E+03  0.26536E+06
 0.10497000E+03  0.24951E+06
 0.10502000E+03  0.22648E+06
 0.10507001E+03  0.19832E+06
 0.10512000E+03  0.16721E+06
 0.10517001E+03  0.13542E+06
 0.10522000E+03  0.10267E+06
 0.10527000E+03  0.70067E+05
 0.10532001E+03  0.43032E+05
 0.10537000E+03  0.21198E+05
 0.10542001E+03  0.17200E+03
 0.10547000E+03 -0.19399E+05
 0.10552000E+03 -0.38493E+05
 0.10557001E+03 -0.55767E+05
 0.10562000E+03 -0.68233E+05
 0.10567001E+03 -0.79274E+05
 0.10572000E+03 -0.91077E+05
 0.10577000E+03 -0.10360E+06
 0.10582001E+03 -0.11620E+06
 0.10587000E+03 -0.12753E+06
 0.10592001E+03 -0.13833E+06
 0.10597000E+03 -0.14879E+06
 0.10602000E+03 -0.15867E+06
 0.10607001E+03 -0.16500E+06
 0.10612000E+03 -0.16087E+06
 0.10617001E+03 -0.14508E+06
 0.10622000E+03 -0.12495E+06
 0.10627000E+03 -0.10612E+06
 0.10632001E+03 -0.88775E+05
 0.10637000E+03 -0.73201E+05
 0.10642001E+03 -0.59111E+05
 0.10647000E+03 -0.45274E+05
 0.10652000E+03 -0.34334E+05
 0.10657001E+03 -0.30858E+05
 0.10662000E+03 -0.34909E+05
 0.10667001E+03 -0.44724E+05
 0.10672000E+03 -0.57790E+05
 0.10677000E+03 -0.69541E+05
 0.10682001E+03 -0.78990E+05
 0.10687000E+03 -0.86172E+05
 0.10692001E+03 -0.87868E+05
 0.10697000E+03 -0.81346E+05
 0.10702000E+03 -0.70035E+05
 0.10707001E+03 -0.59505E+05
 0.10712000E+03 -0.49696E+05
 0.10717001E+03 -0.44328E+05
 0.10722000E+03 -0.48414E+05
 0.10727000E+03 -0.57020E+05
 0.10732001E+03 -0.67023E+05
 0.10737000E+03 -0.75005E+05
 0.10742001E+03 -0.75671E+05
 0.10747000E+03 -0.73308E+05
 0.10752000E+03 -0.71039E+05
 0.10757001E+03 -0.65553E+05
 0.10762000E+03 -0.59442E+05
 0.10767001E+03 -0.55948E+05
 0.10772000E+03 -0.49486E+05
 0.10777000E+03 -0.37478E+05
 0.10782001E+03 -0.19517E+05
 0.10787000E+03  0.44330E+04
 0.10792001E+03  0.27898E+05
 0.10797000E+03  0.48971E+05
 0.10802000E+03  0.70654E+05
 0.10807001E+03  0.90092E+05
 0.10812000E+03  0.10444E+06
 0.10817001E+03  0.11481E+06
 0.10822000E+03  0.12005E+06
 0.10827000E+03  0.11829E+06
 0.10832001E+03  0.10730E+06
 0.10837000E+03  0.91540E+05
 0.10842001E+03  0.79343E+05
 0.10847000E+03  0.71295E+05
 0.10852000E+03  0.68830E+05
 0.10857001E+03  0.72782E+05
 0.10862000E+03  0.80289E+05
 0.10867001E+03  0.89529E+05
 0.10872000E+03  0.99548E+05
 0.10877000E+03  0.11066E+06
 0.10882001E+03  0.12183E+06
 0.10887000E+03  0.13144E+06
 0.10892001E+03  0.13429E+06
 0.10897000E+03  0.12790E+06
 0.10902000E+03  0.11934E+06
 0.10907001E+03  0.11199E+06
 0.10912000E+03  0.10304E+06
 0.10917001E+03  0.88714E+05
 0.10922000E+03  0.70093E+05
 0.10927000E+03  0.51709E+05
 0.10932001E+03  0.34412E+05
 0.10937000E+03  0.18991E+05
 0.10942001E+03  0.83810E+04
 0.10947000E+03  0.36290E+04
 0.10952000E+03 -0.10320E+04
 0.10957001E+03 -0.68570E+04
 0.10962000E+03 -0.10217E+05
 0.10967001E+03 -0.12575E+05
 0.10972000E+03 -0.11542E+05
 0.10977000E+03 -0.84460E+04
 0.10982001E+03 -0.57150E+04
 0.10987000E+03  0.10030E+04
 0.10992001E+03  0.86210E+04
 0.10997000E+03  0.12358E+05
 0.11002000E+03  0.13694E+05
 0.11007001E+03  0.17546E+05
 0.11012000E+03  0.27250E+05
 0.11017001E+03  0.43666E+05
 0.11022000E+03  0.66254E+05
 0.11027000E+03  0.90708E+05
 0.11032001E+03  0.11402E+06
 0.11037000E+03  0.13248E+06
 0.11042001E+03  0.14296E+06
 0.11047000E+03  0.14495E+06
 0.11052000E+03  0.13690E+06
 0.11057001E+03  0.12181E+06
 0.11062000E+03  0.10512E+06
 0.11067001E+03  0.90134E+05
 0.11072000E+03  0.75662E+05
 0.11077000E+03  0.56117E+05
 0.11082001E+03  0.33504E+05
 0.11087000E+03  0.13361E+05
 0.11092001E+03 -0.45410E+04
 0.11097000E+03 -0.19980E+05
 0.11102000E+03 -0.31000E+05
 0.11107001E+03 -0.36448E+05
 0.11112000E+03 -0.36787E+05
 0.11117001E+03 -0.35266E+05
 0.11122000E+03 -0.37242E+05
 0.11127000E+03 -0.45582E+05
 0.11132001E+03 -0.56655E+05
 0.11137000E+03 -0.66385E+05
 0.11142001E+03 -0.74801E+05
 0.11147000E+03 -0.81732E+05
 0.11152000E+03 -0.87387E+05
 0.11157001E+03 -0.91450E+05
 0.11162000E+03 -0.93288E+05
 0.11167001E+03 -0.95519E+05
 0.11172000E+03 -0.10156E+06
 0.11177000E+03 -0.11290E+06
 0.11182001E+03 -0.12806E+06
 0.11187000E+03 -0.14490E+06
 0.11192001E+03 -0.15911E+06
 0.11197000E+03 -0.16535E+06
 0.11202000E+03 -0.16187E+06
 0.11207001E+03 -0.15062E+06
 0.11212000E+03 -0.13654E+06
 0.11217001E+03 -0.12476E+06
 0.11222000E+03 -0.11804E+06
 0.11227000E+03 -0.11376E+06
 0.11232001E+03 -0.10862E+06
 0.11237000E+03 -0.10162E+06
 0.11242001E+03 -0.93161E+05
 0.11247000E+03 -0.84452E+05
 0.11252000E+03 -0.73221E+05
 0.11257001E+03 -0.60826E+05
 0.11262000E+03 -0.51810E+05
 0.11267001E+03 -0.48249E+05
 0.11272000E+03 -0.50795E+05
 0.11277000E+03 -0.53650E+05
 0.11282001E+03 -0.53202E+05
 0.11287000E+03 -0.49691E+05
 0.11292001E+03 -0.40622E+05
 0.11297000E+03 -0.27349E+05
 0.11302000E+03 -0.10573E+05
 0.11307001E+03  0.11481E+05
 0.11312000E+03  0.35860E+05
 0.11317001E+03  0.55358E+05
 0.11322000E+03  0.65359E+05
 0.11327000E+03  0.65568E+05
 0.11332001E+03  0.60415E+05
 0.11337000E+03  0.56279E+05
 0.11342001E+03  0.52790E+05
 0.11347000E+03  0.49795E+05
 0.11352000E+03  0.50666E+05
 0.11357001E+03  0.57353E+05
 0.11362000E+03  0.68756E+05
 0.11367001E+03  0.82672E+05
 0.11372000E+03  0.99204E+05
 0.11377000E+03  0.11497E+06
 0.11382001E+03  0.12718E+06
 0.11387000E+03  0.13806E+06
 0.11392001E+03  0.14832E+06
 0.11397000E+03  0.15476E+06
 0.11402000E+03  0.15598E+06
 0.11407001E+03  0.15303E+06
 0.11412000E+03  0.14414E+06
 0.11417001E+03  0.13204E+06
 0.11422000E+03  0.11967E+06
 0.11427000E+03  0.10508E+06
 0.11432001E+03  0.88135E+05
 0.11437000E+03  0.67909E+05
 0.11442001E+03  0.46733E+05
 0.11447000E+03  0.28459E+05
 0.11452000E+03  0.12776E+05
 0.11457001E+03 -0.23470E+04
 0.11462000E+03 -0.17773E+05
 0.11467001E+03 -0.30168E+05
 0.11472000E+03 -0.37666E+05
 0.11477000E+03 -0.40278E+05
 0.11482001E+03 -0.38132E+05
 0.11487000E+03 -0.33483E+05
 0.11492001E+03 -0.27444E+05
 0.11497000E+03 -0.20788E+05
 0.11502000E+03 -0.15765E+05
 0.11507001E+03 -0.14314E+05
 0.11512000E+03 -0.15596E+05
 0.11517001E+03 -0.15782E+05
 0.11522000E+03 -0.12648E+05
 0.11527000E+03 -0.92400E+04
 0.11532001E+03 -0.72320E+04
 0.11537000E+03 -0.51840E+04
 0.11542001E+03 -0.56250E+04
 0.11547000E+03 -0.11602E+05
 0.11552000E+03 -0.22334E+05
 0.11557001E+03 -0.32806E+05
 0.11562000E+03 -0.38063E+05
 0.11567001E+03 -0.36344E+05
 0.11572000E+03 -0.28003E+05
 0.11577000E+03 -0.18058E+05
 0.11582001E+03 -0.11784E+05
 0.11587000E+03 -0.13053E+05
 0.11592001E+03 -0.21695E+05
 0.11597000E+03 -0.29949E+05
 0.11602000E+03 -0.32314E+05
 0.11607001E+03 -0.29713E+05
 0.11612000E+03 -0.22893E+05
 0.11617001E+03 -0.13473E+05
 0.11622000E+03 -0.42380E+04
 0.11627000E+03  0.70710E+04
 0.11632001E+03  0.19230E+05
 0.11637000E+03  0.28982E+05
 0.11642001E+03  0.39426E+05
 0.11647000E+03  0.51726E+05
 0.11652000E+03  0.63432E+05
 0.11657001E+03  0.72104E+05
 0.11662000E+03  0.77360E+05
 0.11667001E+03  0.81195E+05
 0.11672000E+03  0.86644E+05
 0.11677000E+03  0.94273E+05
 0.11682001E+03  0.10062E+06
 0.11687000E+03  0.10243E+06
 0.11692001E+03  0.98648E+05
 0.11697000E+03  0.90742E+05
 0.11702000E+03  0.83631E+05
 0.11707001E+03  0.81615E+05
 0.11712000E+03  0.82855E+05
 0.11717001E+03  0.84763E+05
 0.11722000E+03  0.86857E+05
 0.11727000E+03  0.88112E+05
 0.11732001E+03  0.87923E+05
 0.11737000E+03  0.87531E+05
 0.11742001E+03  0.91705E+05
 0.11747000E+03  0.10102E+06
 0.11752000E+03  0.10989E+06
 0.11757001E+03  0.11586E+06
 0.11762000E+03  0.11636E+06
 0.11767001E+03  0.10788E+06
 0.11772000E+03  0.93729E+05
 0.11777000E+03  0.79956E+05
 0.11782001E+03  0.68307E+05
 0.11787000E+03  0.59357E+05
 0.11792001E+03  0.49852E+05
 0.11797000E+03  0.32604E+05
 0.11802000E+03  0.10243E+05
 0.11807001E+03 -0.11224E+05
 0.11812000E+03 -0.29873E+05
 0.11817001E+03 -0.42505E+05
 0.11822000E+03 -0.49933E+05
 0.11827000E+03 -0.55482E+05
 0.11832001E+03 -0.60196E+05
 0.11837000E+03 -0.65186E+05
 0.11842001E+03 -0.71618E+05
 0.11847000E+03 -0.79062E+05
 0.11852000E+03 -0.87485E+05
 0.11857001E+03 -0.95976E+05
 0.11862000E+03 -0.10347E+06
 0.11867001E+03 -0.11160E+06
 0.11872000E+03 -0.11911E+06
 0.11877000E+03 -0.12547E+06
 0.11882001E+03 -0.13183E+06
 0.11887000E+03 -0.13512E+06
 0.11892001E+03 -0.13276E+06
 0.11897000E+03 -0.12748E+06
 0.11902000E+03 -0.12264E+06
 0.11907001E+03 -0.11864E+06
 0.11912000E+03 -0.11598E+06
 0.11917001E+03 -0.11461E+06
 0.11922000E+03 -0.11680E+06
 0.11927000E+03 -0.12262E+06
 0.11932001E+03 -0.12648E+06
 0.11937000E+03 -0.12704E+06
 0.11942001E+03 -0.12713E+06
 0.11947000E+03 -0.12730E+06
 0.11952000E+03 -0.12670E+06
 0.11957001E+03 -0.12520E+06
 0.11962000E+03 -0.12376E+06
 0.11967001E+03 -0.12358E+06
 0.11972000E+03 -0.12175E+06
 0.11977000E+03 -0.11463E+06
 0.11982001E+03 -0.99136E+05
 0.11987000E+03 -0.75334E+05
 0.11992001E+03 -0.49020E+05
 0.11997000E+03 -0.22183E+05
 0.12002000E+03  0.60190E+04
 0.12007001E+03  0.33700E+05
 0.12012000E+03  0.58191E+05
 0.12017001E+03  0.78782E+05
 0.12022000E+03  0.92694E+05
 0.12027000E+03  0.98002E+05
 0.12032001E+03  0.99347E+05
 0.12037000E+03  0.98025E+05
 0.12042001E+03  0.93743E+05
 0.12047000E+03  0.89149E+05
 0.12052000E+03  0.82810E+05
 0.12057001E+03  0.72811E+05
 0.12062000E+03  0.58048E+05
 0.12067001E+03  0.38290E+05
 0.12072000E+03  0.15870E+05
 0.12077000E+03 -0.91850E+04
 0.12082001E+03 -0.33359E+05
 0.12087000E+03 -0.52606E+05
 0.12092001E+03 -0.68210E+05
 0.12097000E+03 -0.79337E+05
 0.12102000E+03 -0.86676E+05
 0.12107001E+03 -0.92712E+05
 0.12112000E+03 -0.99100E+05
 0.12117001E+03 -0.10828E+06
 0.12122000E+03 -0.11993E+06
 0.12127000E+03 -0.13184E+06
 0.12132001E+03 -0.13952E+06
 0.12137000E+03 -0.13867E+06
 0.12142001E+03 -0.12975E+06
 0.12147000E+03 -0.11360E+06
 0.12152000E+03 -0.91227E+05
 0.12157001E+03 -0.65758E+05
 0.12162000E+03 -0.38595E+05
 0.12167001E+03 -0.98250E+04
 0.12172000E+03  0.17494E+05
 0.12177000E+03  0.38694E+05
 0.12182001E+03  0.53752E+05
 0.12187000E+03  0.65331E+05
 0.12192001E+03  0.72152E+05
 0.12197000E+03  0.73886E+05
 0.12202000E+03  0.72718E+05
 0.12207001E+03  0.68805E+05
 0.12212000E+03  0.63662E+05
 0.12217001E+03  0.57862E+05
 0.12222000E+03  0.48618E+05
 0.12227000E+03  0.37326E+05
 0.12232001E+03  0.27286E+05
 0.12237000E+03  0.18739E+05
 0.12242001E+03  0.11166E+05
 0.12247000E+03  0.35860E+04
 0.12252000E+03 -0.37500E+04
 0.12257001E+03 -0.85810E+04
 0.12262000E+03 -0.93160E+04
 0.12267001E+03 -0.76990E+04
 0.12272000E+03 -0.49900E+04
 0.12277000E+03 -0.14600E+04
 0.12282001E+03  0.10000E+03
 0.12287000E+03 -0.17540E+04
 0.12292001E+03 -0.69900E+04
 0.12297000E+03 -0.14804E+05
 0.12302000E+03 -0.22391E+05
 0.12307001E+03 -0.25462E+05
 0.12312000E+03 -0.22034E+05
 0.12317001E+03 -0.13232E+05
 0.12322000E+03 -0.26200E+03
 0.12327000E+03  0.15044E+05
 0.12332001E+03  0.31617E+05
 0.12337000E+03  0.47590E+05
 0.12342001E+03  0.61395E+05
 0.12347000E+03  0.75398E+05
 0.12352000E+03  0.88814E+05
 0.12357001E+03  0.97770E+05
 0.12362000E+03  0.10210E+06
 0.12367001E+03  0.10315E+06
 0.12372000E+03  0.10345E+06
 0.12377000E+03  0.10326E+06
 0.12382001E+03  0.10111E+06
 0.12387000E+03  0.98975E+05
 0.12392001E+03  0.97088E+05
 0.12397000E+03  0.95296E+05
 0.12402000E+03  0.95006E+05
 0.12407001E+03  0.97117E+05
 0.12412000E+03  0.10206E+06
 0.12417001E+03  0.10874E+06
 0.12422001E+03  0.11386E+06
 0.12427001E+03  0.11485E+06
 0.12432000E+03  0.11356E+06
 0.12437000E+03  0.11088E+06
 0.12442001E+03  0.10521E+06
 0.12447001E+03  0.95646E+05
 0.12452001E+03  0.82359E+05
 0.12457000E+03  0.68196E+05
 0.12462000E+03  0.54580E+05
 0.12467001E+03  0.40763E+05
 0.12472001E+03  0.27909E+05
 0.12477001E+03  0.18177E+05
 0.12482000E+03  0.12497E+05
 0.12487000E+03  0.11340E+05
 0.12492001E+03  0.15300E+05
 0.12497001E+03  0.23595E+05
 0.12502001E+03  0.34631E+05
 0.12507000E+03  0.44080E+05
 0.12512000E+03  0.47696E+05
 0.12517001E+03  0.44022E+05
 0.12522001E+03  0.32722E+05
 0.12527001E+03  0.17586E+05
 0.12532000E+03  0.25320E+04
 0.12537000E+03 -0.80650E+04
 0.12542001E+03 -0.83180E+04
 0.12547001E+03  0.17510E+04
 0.12552001E+03  0.16203E+05
 0.12557000E+03  0.28945E+05
 0.12562000E+03  0.39210E+05
 0.12567001E+03  0.47467E+05
 0.12572001E+03  0.54924E+05
 0.12577001E+03  0.64987E+05
 0.12582000E+03  0.76069E+05
 0.12587000E+03  0.85429E+05
 0.12592001E+03  0.91821E+05
 0.12597001E+03  0.93360E+05
 0.12602001E+03  0.91075E+05
 0.12607000E+03  0.87243E+05
 0.12612000E+03  0.81342E+05
 0.12617001E+03  0.71764E+05
 0.12622001E+03  0.60313E+05
 0.12627001E+03  0.48661E+05
 0.12632000E+03  0.34955E+05
 0.12637000E+03  0.20212E+05
 0.12642001E+03  0.81350E+04
 0.12647001E+03 -0.78000E+03
 0.12652001E+03 -0.79610E+04
 0.12657000E+03 -0.13136E+05
 0.12662000E+03 -0.17332E+05
 0.12667001E+03 -0.21522E+05
 0.12672001E+03 -0.25177E+05
 0.12677001E+03 -0.31472E+05
 0.12682000E+03 -0.41402E+05
 0.12687000E+03 -0.52644E+05
 0.12692001E+03 -0.64676E+05
 0.12697001E+03 -0.75376E+05
 0.12702001E+03 -0.82076E+05
 0.12707000E+03 -0.85535E+05
 0.12712000E+03 -0.87359E+05
 0.12717001E+03 -0.87059E+05
 0.12722001E+03 -0.85448E+05
 0.12727001E+03 -0.85168E+05
 0.12732000E+03 -0.87480E+05
 0.12737000E+03 -0.91020E+05
 0.12742001E+03 -0.95057E+05
 0.12747001E+03 -0.99626E+05
 0.12752001E+03 -0.10184E+06
 0.12757000E+03 -0.10259E+06
 0.12762000E+03 -0.10365E+06
 0.12767001E+03 -0.10322E+06
 0.12772001E+03 -0.10154E+06
 0.12777001E+03 -0.98567E+05
 0.12782000E+03 -0.96276E+05
 0.12787000E+03 -0.98016E+05
 0.12792001E+03 -0.10200E+06
 0.12797001E+03 -0.10451E+06
 0.12802000E+03 -0.10706E+06
 0.12806999E+03 -0.11141E+06
 0.12812000E+03 -0.11494E+06
 0.12817000E+03 -0.11694E+06
 0.12822000E+03 -0.11677E+06
 0.12827000E+03 -0.11247E+06
 0.12831999E+03 -0.10464E+06
 0.12837000E+03 -0.94856E+05
 0.12842000E+03 -0.82644E+05
 0.12847000E+03 -0.69710E+05
 0.12852000E+03 -0.59779E+05
 0.12856999E+03 -0.54210E+05
 0.12862000E+03 -0.54239E+05
 0.12867000E+03 -0.58940E+05
 0.12872000E+03 -0.65104E+05
 0.12877000E+03 -0.70988E+05
 0.12881999E+03 -0.75465E+05
 0.12887000E+03 -0.76924E+05
 0.12892000E+03 -0.75040E+05
 0.12897000E+03 -0.69792E+05
 0.12902000E+03 -0.59454E+05
 0.12906999E+03 -0.43592E+05
 0.12912000E+03 -0.22696E+05
 0.12917000E+03  0.22190E+04
 0.12922000E+03  0.27512E+05
 0.12927000E+03  0.50851E+05
 0.12931999E+03  0.70471E+05
 0.12937000E+03  0.83824E+05
 0.12942000E+03  0.91428E+05
 0.12947000E+03  0.96108E+05
 0.12952000E+03  0.10060E+06
 0.12956999E+03  0.10448E+06
 0.12962000E+03  0.10736E+06
 0.12967000E+03  0.11053E+06
 0.12972000E+03  0.11383E+06
 0.12977000E+03  0.11778E+06
 0.12981999E+03  0.12464E+06
 0.12987000E+03  0.13320E+06
 0.12992000E+03  0.13744E+06
 0.12997000E+03  0.13709E+06
 0.13002000E+03  0.13457E+06
 0.13006999E+03  0.12828E+06
 0.13012000E+03  0.11759E+06
 0.13017000E+03  0.10112E+06
 0.13022000E+03  0.78723E+05
 0.13027000E+03  0.55572E+05
 0.13031999E+03  0.35488E+05
 0.13037000E+03  0.19109E+05
 0.13042000E+03  0.82460E+04
 0.13047000E+03  0.34270E+04
 0.13052000E+03  0.19510E+04
 0.13056999E+03  0.89700E+03
 0.13062000E+03 -0.14380E+04
 0.13067000E+03 -0.52180E+04
 0.13072000E+03 -0.11364E+05
 0.13077000E+03 -0.21487E+05
 0.13081999E+03 -0.31845E+05
 0.13087000E+03 -0.38568E+05
 0.13092000E+03 -0.43575E+05
 0.13097000E+03 -0.47433E+05
 0.13102000E+03 -0.47663E+05
 0.13106999E+03 -0.43677E+05
 0.13112000E+03 -0.35070E+05
 0.13117000E+03 -0.21079E+05
 0.13122000E+03 -0.59330E+04
 0.13127000E+03  0.52130E+04
 0.13131999E+03  0.12337E+05
 0.13137000E+03  0.17744E+05
 0.13142000E+03  0.24021E+05
 0.13147000E+03  0.33394E+05
 0.13152000E+03  0.44911E+05
 0.13156999E+03  0.53548E+05
 0.13162000E+03  0.56006E+05
 0.13167000E+03  0.53435E+05
 0.13172000E+03  0.47688E+05
 0.13177000E+03  0.41739E+05
 0.13181999E+03  0.38501E+05
 0.13187000E+03  0.36790E+05
 0.13192000E+03  0.35008E+05
 0.13197000E+03  0.33601E+05
 0.13202000E+03  0.31179E+05
 0.13206999E+03  0.26266E+05
 0.13212000E+03  0.19733E+05
 0.13217000E+03  0.12593E+05
 0.13222000E+03  0.57430E+04
 0.13227000E+03  0.11810E+04
 0.13231999E+03 -0.10570E+04
 0.13237000E+03 -0.37680E+04
 0.13242000E+03 -0.84750E+04
 0.13247000E+03 -0.13276E+05
 0.13252000E+03 -0.15351E+05
 0.13256999E+03 -0.14362E+05
 0.13262000E+03 -0.10040E+05
 0.13267000E+03 -0.44500E+04
 0.13272000E+03 -0.91000E+03
 0.13277000E+03  0.29720E+04
 0.13281999E+03  0.83990E+04
 0.13287000E+03  0.12964E+05
 0.13292000E+03  0.16357E+05
 0.13297000E+03  0.18367E+05
 0.13302000E+03  0.19660E+05
 0.13306999E+03  0.20905E+05
 0.13312000E+03  0.20720E+05
 0.13317000E+03  0.18452E+05
 0.13322000E+03  0.14251E+05
 0.13327000E+03  0.96140E+04
 0.13331999E+03  0.62700E+04
 0.13337000E+03  0.32380E+04
 0.13342000E+03 -0.64400E+03
 0.13347000E+03 -0.40280E+04
 0.13352000E+03 -0.75150E+04
 0.13356999E+03 -0.11560E+05
 0.13362000E+03 -0.12481E+05
 0.13367000E+03 -0.93940E+04
 0.13372000E+03 -0.53460E+04
 0.13377000E+03 -0.92500E+03
 0.13381999E+03  0.26370E+04
 0.13387000E+03  0.26050E+04
 0.13392000E+03  0.20950E+04
 0.13397000E+03  0.45020E+04
 0.13402000E+03  0.10071E+05
 0.13406999E+03  0.18646E+05
 0.13412000E+03  0.29128E+05
 0.13417000E+03  0.40486E+05
 0.13422000E+03  0.50551E+05
 0.13427000E+03  0.58356E+05
 0.13431999E+03  0.65065E+05
 0.13437000E+03  0.71997E+05
 0.13442000E+03  0.79979E+05
 0.13447000E+03  0.87997E+05
 0.13452000E+03  0.93071E+05
 0.13456999E+03  0.92568E+05
 0.13462000E+03  0.86603E+05
 0.13467000E+03  0.76068E+05
 0.13472000E+03  0.62697E+05
 0.13477000E+03  0.50111E+05
 0.13481999E+03  0.39629E+05
 0.13487000E+03  0.30612E+05
 0.13492000E+03  0.23586E+05
 0.13497000E+03  0.17561E+05
 0.13502000E+03  0.11940E+05
 0.13506999E+03  0.79590E+04
 0.13512000E+03  0.55810E+04
 0.13517000E+03  0.50540E+04
 0.13522000E+03  0.70440E+04
 0.13527000E+03  0.11429E+05
 0.13531999E+03  0.16593E+05
 0.13537000E+03  0.21544E+05
 0.13542000E+03  0.26705E+05
 0.13547000E+03  0.32393E+05
 0.13552000E+03  0.38498E+05
 0.13556999E+03  0.42866E+05
 0.13562000E+03  0.43863E+05
 0.13567000E+03  0.40743E+05
 0.13572000E+03  0.34664E+05
 0.13577000E+03  0.27813E+05
 0.13581999E+03  0.19347E+05
 0.13587000E+03  0.99600E+04
 0.13592000E+03  0.11750E+04
 0.13597000E+03 -0.90180E+04
 0.13602000E+03 -0.22041E+05
 0.13606999E+03 -0.36823E+05
 0.13612000E+03 -0.50726E+05
 0.13617000E+03 -0.61122E+05
 0.13622000E+03 -0.68586E+05
 0.13627000E+03 -0.73927E+05
 0.13631999E+03 -0.77832E+05
 0.13637000E+03 -0.81782E+05
 0.13642000E+03 -0.85998E+05
 0.13647000E+03 -0.89993E+05
 0.13652000E+03 -0.93929E+05
 0.13656999E+03 -0.96512E+05
 0.13662000E+03 -0.96293E+05
 0.13667000E+03 -0.96305E+05
 0.13672000E+03 -0.97101E+05
 0.13677000E+03 -0.97566E+05
 0.13681999E+03 -0.99865E+05
 0.13687000E+03 -0.10331E+06
 0.13692000E+03 -0.10389E+06
 0.13697000E+03 -0.10259E+06
 0.13702000E+03 -0.10207E+06
 0.13706999E+03 -0.10081E+06
 0.13712000E+03 -0.10050E+06
 0.13717000E+03 -0.10108E+06
 0.13722000E+03 -0.98732E+05
 0.13727000E+03 -0.93633E+05
 0.13731999E+03 -0.88484E+05
 0.13737000E+03 -0.83906E+05
 0.13742000E+03 -0.78162E+05
 0.13747000E+03 -0.71614E+05
 0.13752000E+03 -0.64782E+05
 0.13756999E+03 -0.57422E+05
 0.13762000E+03 -0.51591E+05
 0.13767000E+03 -0.48181E+05
 0.13772000E+03 -0.46849E+05
 0.13777000E+03 -0.46899E+05
 0.13781999E+03 -0.46250E+05
 0.13787000E+03 -0.44149E+05
 0.13792000E+03 -0.41427E+05
 0.13797000E+03 -0.38580E+05
 0.13802000E+03 -0.34020E+05
 0.13806999E+03 -0.28147E+05
 0.13812000E+03 -0.24441E+05
 0.13817000E+03 -0.24423E+05
 0.13822000E+03 -0.28120E+05
 0.13827000E+03 -0.31767E+05
 0.13831999E+03 -0.31535E+05
 0.13837000E+03 -0.28304E+05
 0.13842000E+03 -0.24107E+05
 0.13847000E+03 -0.22373E+05
 0.13852000E+03 -0.21963E+05
 0.13856999E+03 -0.19627E+05
 0.13862000E+03 -0.15250E+05
 0.13867000E+03 -0.89990E+04
 0.13872000E+03 -0.26190E+04
 0.13877000E+03  0.49070E+04
 0.13881999E+03  0.13863E+05
 0.13887000E+03  0.20761E+05
 0.13892000E+03  0.22567E+05
 0.13897000E+03  0.19095E+05
 0.13902000E+03  0.13255E+05
 0.13906999E+03  0.77870E+04
 0.13912000E+03  0.54340E+04
 0.13917000E+03  0.51140E+04
 0.13922000E+03  0.23840E+04
 0.13927000E+03 -0.37550E+04
 0.13931999E+03 -0.12067E+05
 0.13937000E+03 -0.20543E+05
 0.13942000E+03 -0.27439E+05
 0.13947000E+03 -0.34654E+05
 0.13952000E+03 -0.41528E+05
 0.13956999E+03 -0.43726E+05
 0.13962000E+03 -0.41276E+05
 0.13967000E+03 -0.36265E+05
 0.13972000E+03 -0.30451E+05
 0.13977000E+03 -0.24647E+05
 0.13981999E+03 -0.17469E+05
 0.13987000E+03 -0.92030E+04
 0.13992000E+03 -0.15860E+04
 0.13997000E+03  0.43930E+04
 0.14002000E+03  0.96220E+04
 0.14006999E+03  0.16985E+05
 0.14012000E+03  0.27497E+05
 0.14017000E+03  0.40387E+05
 0.14022000E+03  0.53526E+05
 0.14027000E+03  0.64320E+05
 0.14031999E+03  0.72527E+05
 0.14037000E+03  0.77886E+05
 0.14042000E+03  0.81399E+05
 0.14047000E+03  0.84842E+05
 0.14052000E+03  0.86535E+05
 0.14056999E+03  0.85503E+05
 0.14062000E+03  0.83987E+05
 0.14067000E+03  0.82286E+05
 0.14072000E+03  0.77966E+05
 0.14077000E+03  0.71772E+05
 0.14081999E+03  0.65302E+05
 0.14087000E+03  0.57740E+05
 0.14092000E+03  0.50632E+05
 0.14097000E+03  0.45277E+05
 0.14102000E+03  0.39738E+05
 0.14106999E+03  0.32820E+05
 0.14112000E+03  0.25669E+05
 0.14117000E+03  0.19141E+05
 0.14122000E+03  0.13377E+05
 0.14127000E+03  0.92600E+04
 0.14131999E+03  0.63380E+04
 0.14137000E+03  0.30220E+04
 0.14142000E+03  0.69700E+03
 0.14147000E+03  0.25570E+04
 0.14152000E+03  0.76050E+04
 0.14156999E+03  0.14508E+05
 0.14162000E+03  0.23284E+05
 0.14167000E+03  0.31562E+05
 0.14172000E+03  0.39399E+05
 0.14177000E+03  0.47415E+05
 0.14181999E+03  0.54196E+05
 0.14187000E+03  0.58792E+05
 0.14192000E+03  0.59156E+05
 0.14197000E+03  0.53784E+05
 0.14202000E+03  0.44317E+05
 0.14206999E+03  0.32883E+05
 0.14212000E+03  0.20731E+05
 0.14217000E+03  0.10135E+05
 0.14222000E+03  0.15650E+04
 0.14227000E+03 -0.61060E+04
 0.14231999E+03 -0.12245E+05
 0.14237000E+03 -0.17254E+05
 0.14242000E+03 -0.20886E+05
 0.14247000E+03 -0.20523E+05
 0.14252000E+03 -0.17541E+05
 0.14256999E+03 -0.14826E+05
 0.14262000E+03 -0.11221E+05
 0.14267000E+03 -0.70250E+04
 0.14272000E+03 -0.34620E+04
 0.14277000E+03  0.13820E+04
 0.14281999E+03  0.75390E+04
 0.14287000E+03  0.12733E+05
 0.14292000E+03  0.17835E+05
 0.14297000E+03  0.23913E+05
 0.14302000E+03  0.29253E+05
 0.14306999E+03  0.33985E+05
 0.14312000E+03  0.39208E+05
 0.14317000E+03  0.44780E+05
 0.14322000E+03  0.50551E+05
 0.14327000E+03  0.56376E+05
 0.14331999E+03  0.61104E+05
 0.14337000E+03  0.63529E+05
 0.14342000E+03  0.65485E+05
 0.14347000E+03  0.67082E+05
 0.14352000E+03  0.66247E+05
 0.14356999E+03  0.64009E+05
 0.14362000E+03  0.60678E+05
 0.14367000E+03  0.55150E+05
 0.14372000E+03  0.48382E+05
 0.14377000E+03  0.42563E+05
 0.14381999E+03  0.37603E+05
 0.14387000E+03  0.32195E+05
 0.14392000E+03  0.26183E+05
 0.14397000E+03  0.17588E+05
 0.14402000E+03  0.58670E+04
 0.14406999E+03 -0.55890E+04
 0.14412000E+03 -0.14442E+05
 0.14417000E+03 -0.20770E+05
 0.14422000E+03 -0.24592E+05
 0.14427000E+03 -0.27661E+05
 0.14431999E+03 -0.34050E+05
 0.14437000E+03 -0.42367E+05
 0.14442000E+03 -0.48761E+05
 0.14447000E+03 -0.54580E+05
 0.14452000E+03 -0.59686E+05
 0.14456999E+03 -0.61540E+05
 0.14462000E+03 -0.62099E+05
 0.14467000E+03 -0.62556E+05
 0.14472000E+03 -0.61086E+05
 0.14477000E+03 -0.58821E+05
 0.14481999E+03 -0.56931E+05
 0.14487000E+03 -0.52719E+05
 0.14492000E+03 -0.44878E+05
 0.14497000E+03 -0.36966E+05
 0.14502000E+03 -0.29724E+05
 0.14506999E+03 -0.21688E+05
 0.14512000E+03 -0.14491E+05
 0.14517000E+03 -0.79530E+04
 0.14522000E+03 -0.23520E+04
 0.14527000E+03  0.10100E+03
 0.14531999E+03  0.99500E+03
 0.14537000E+03  0.35350E+04
 0.14542000E+03  0.75640E+04
 0.14547000E+03  0.12439E+05
 0.14552000E+03  0.19275E+05
 0.14556999E+03  0.26838E+05
 0.14562000E+03  0.32625E+05
 0.14567000E+03  0.36084E+05
 0.14572000E+03  0.37297E+05
 0.14577000E+03  0.36462E+05
 0.14581999E+03  0.36221E+05
 0.14587000E+03  0.38916E+05
 0.14592000E+03  0.43147E+05
 0.14597000E+03  0.47129E+05
 0.14602000E+03  0.49975E+05
 0.14606999E+03  0.51432E+05
 0.14612000E+03  0.50593E+05
 0.14617000E+03  0.47322E+05
 0.14622000E+03  0.43062E+05
 0.14627000E+03  0.37816E+05
 0.14631999E+03  0.32660E+05
 0.14637000E+03  0.30885E+05
 0.14642000E+03  0.33368E+05
 0.14647000E+03  0.37690E+05
 0.14652000E+03  0.42039E+05
 0.14656999E+03  0.43533E+05
 0.14662000E+03  0.39995E+05
 0.14667000E+03  0.33832E+05
 0.14672000E+03  0.26281E+05
 0.14677000E+03  0.17973E+05
 0.14681999E+03  0.11503E+05
 0.14687000E+03  0.69130E+04
 0.14692000E+03  0.34550E+04
 0.14697000E+03  0.23570E+04
 0.14702000E+03  0.30920E+04
 0.14706999E+03  0.34600E+04
 0.14712000E+03  0.23810E+04
 0.14717000E+03  0.19200E+03
 0.14722000E+03 -0.23410E+04
 0.14727000E+03 -0.48510E+04
 0.14731999E+03 -0.62990E+04
 0.14737000E+03 -0.63770E+04
 0.14742000E+03 -0.55560E+04
 0.14747000E+03 -0.29530E+04
 0.14752000E+03  0.64700E+03
 0.14756999E+03  0.27150E+04
 0.14762000E+03  0.25810E+04
 0.14767000E+03  0.40100E+03
 0.14772000E+03 -0.41660E+04
 0.14777000E+03 -0.11321E+05
 0.14781999E+03 -0.20817E+05
 0.14787000E+03 -0.32173E+05
 0.14792000E+03 -0.43468E+05
 0.14797000E+03 -0.52093E+05
 0.14802000E+03 -0.58393E+05
 0.14806999E+03 -0.64083E+05
 0.14812000E+03 -0.69608E+05
 0.14817000E+03 -0.74728E+05
 0.14822000E+03 -0.78496E+05
 0.14827000E+03 -0.78760E+05
 0.14831999E+03 -0.74320E+05
 0.14837000E+03 -0.66753E+05
 0.14842000E+03 -0.58283E+05
 0.14847000E+03 -0.50936E+05
 0.14852000E+03 -0.46313E+05
 0.14856999E+03 -0.43394E+05
 0.14862000E+03 -0.40944E+05
 0.14867000E+03 -0.39202E+05
 0.14872000E+03 -0.36434E+05
 0.14877000E+03 -0.31400E+05
 0.14881999E+03 -0.25241E+05
 0.14887000E+03 -0.18787E+05
 0.14892000E+03 -0.11844E+05
 0.14897000E+03 -0.33600E+04
 0.14902000E+03  0.59110E+04
 0.14906999E+03  0.14794E+05
