-0.20000000E+01  0.11455E+05
-0.19500000E+01  0.13172E+05
-0.19000000E+01  0.14714E+05
-0.18500000E+01  0.16317E+05
-0.18000000E+01  0.17827E+05
-0.17500000E+01  0.19160E+05
-0.17000000E+01  0.20211E+05
-0.16500001E+01  0.20865E+05
-0.16000000E+01  0.21125E+05
-0.15500000E+01  0.20998E+05
-0.15000000E+01  0.20345E+05
-0.14500000E+01  0.19067E+05
-0.14000001E+01  0.17289E+05
-0.13500000E+01  0.15263E+05
-0.13000001E+01  0.13106E+05
-0.12500000E+01  0.10810E+05
-0.12000000E+01  0.84485E+04
-0.11500001E+01  0.61733E+04
-0.11000000E+01  0.42297E+04
-0.10500001E+01  0.28118E+04
-0.10000000E+01  0.18889E+04
-0.95000005E+00  0.12910E+04
-0.90000010E+00  0.91324E+03
-0.85000002E+00  0.71809E+03
-0.80000007E+00  0.60404E+03
-0.75000012E+00  0.40720E+03
-0.70000005E+00  0.11743E+03
-0.65000010E+00 -0.17695E+03
-0.60000014E+00 -0.39036E+03
-0.55000007E+00 -0.38207E+03
-0.50000012E+00 -0.15156E+03
-0.45000005E+00  0.95747E+02
-0.40000010E+00  0.95954E+02
-0.35000014E+00 -0.27855E+03
-0.30000007E+00 -0.82708E+03
-0.25000012E+00 -0.11879E+04
-0.20000005E+00 -0.11642E+04
-0.15000010E+00 -0.70764E+03
-0.10000014E+00  0.10474E+03
-0.50000072E-01  0.10262E+04
-0.11920929E-06  0.17834E+04
 0.49999952E-01  0.22257E+04
 0.99999905E-01  0.23735E+04
 0.14999986E+00  0.24515E+04
 0.19999981E+00  0.28109E+04
 0.24999976E+00  0.36838E+04
 0.29999995E+00  0.51318E+04
 0.34999990E+00  0.71095E+04
 0.39999986E+00  0.94439E+04
 0.44999981E+00  0.11656E+05
 0.49999976E+00  0.13182E+05
 0.54999995E+00  0.13912E+05
 0.59999990E+00  0.14133E+05
 0.64999986E+00  0.14104E+05
 0.69999981E+00  0.14026E+05
 0.74999976E+00  0.14040E+05
 0.79999971E+00  0.14074E+05
 0.84999990E+00  0.13931E+05
 0.89999986E+00  0.13393E+05
 0.94999981E+00  0.12362E+05
 0.99999976E+00  0.10820E+05
 0.10499997E+01  0.87656E+04
 0.10999999E+01  0.62587E+04
 0.11499999E+01  0.33629E+04
 0.11999998E+01  0.23597E+03
 0.12499998E+01 -0.28462E+04
 0.12999997E+01 -0.56960E+04
 0.13499999E+01 -0.81961E+04
 0.13999999E+01 -0.10059E+05
 0.14499998E+01 -0.11144E+05
 0.14999998E+01 -0.11727E+05
 0.15499997E+01 -0.12265E+05
 0.15999999E+01 -0.13023E+05
 0.16499999E+01 -0.13947E+05
 0.16999998E+01 -0.14876E+05
 0.17499998E+01 -0.15573E+05
 0.17999997E+01 -0.15903E+05
 0.18499997E+01 -0.15875E+05
 0.18999999E+01 -0.15423E+05
 0.19499998E+01 -0.14504E+05
 0.19999998E+01 -0.13197E+05
 0.20499997E+01 -0.11685E+05
 0.20999999E+01 -0.10091E+05
 0.21499996E+01 -0.84772E+04
 0.21999998E+01 -0.70334E+04
 0.22499995E+01 -0.59245E+04
 0.22999997E+01 -0.52681E+04
 0.23499999E+01 -0.51885E+04
 0.23999996E+01 -0.56896E+04
 0.24499998E+01 -0.65771E+04
 0.24999995E+01 -0.75174E+04
 0.25499997E+01 -0.83830E+04
 0.25999999E+01 -0.93186E+04
 0.26499996E+01 -0.10406E+05
 0.26999998E+01 -0.11492E+05
 0.27499995E+01 -0.12367E+05
 0.27999997E+01 -0.12889E+05
 0.28499999E+01 -0.12972E+05
 0.28999996E+01 -0.12583E+05
 0.29499998E+01 -0.11741E+05
 0.29999995E+01 -0.10511E+05
 0.30499997E+01 -0.90949E+04
 0.30999999E+01 -0.77603E+04
 0.31499996E+01 -0.66467E+04
 0.31999998E+01 -0.57986E+04
 0.32499995E+01 -0.52082E+04
 0.32999997E+01 -0.48479E+04
 0.33499999E+01 -0.45340E+04
 0.33999996E+01 -0.40381E+04
 0.34499998E+01 -0.32236E+04
 0.34999995E+01 -0.20809E+04
 0.35499997E+01 -0.74396E+03
 0.35999994E+01  0.63076E+03
 0.36499996E+01  0.19909E+04
 0.36999998E+01  0.33679E+04
 0.37499995E+01  0.47999E+04
 0.37999997E+01  0.62964E+04
 0.38499994E+01  0.77524E+04
 0.38999996E+01  0.90427E+04
 0.39499998E+01  0.10093E+05
 0.39999995E+01  0.10866E+05
 0.40499997E+01  0.11317E+05
 0.40999994E+01  0.11428E+05
 0.41499996E+01  0.11192E+05
 0.41999998E+01  0.10602E+05
 0.42499995E+01  0.97765E+04
 0.42999997E+01  0.89608E+04
 0.43499994E+01  0.83651E+04
 0.43999996E+01  0.80503E+04
 0.44499998E+01  0.80214E+04
 0.44999995E+01  0.83382E+04
 0.45499997E+01  0.89583E+04
 0.45999994E+01  0.96709E+04
 0.46499996E+01  0.10373E+05
 0.46999998E+01  0.11035E+05
 0.47499995E+01  0.11567E+05
 0.47999997E+01  0.11940E+05
 0.48499994E+01  0.12180E+05
 0.48999996E+01  0.12338E+05
 0.49499998E+01  0.12465E+05
 0.49999995E+01  0.12479E+05
 0.50499997E+01  0.12196E+05
 0.50999994E+01  0.11549E+05
 0.51499996E+01  0.10618E+05
 0.51999998E+01  0.95516E+04
 0.52499995E+01  0.85504E+04
 0.52999997E+01  0.77414E+04
 0.53499994E+01  0.70851E+04
 0.53999996E+01  0.63991E+04
 0.54499993E+01  0.54633E+04
 0.54999995E+01  0.41779E+04
 0.55499997E+01  0.25468E+04
 0.55999994E+01  0.56435E+03
 0.56499996E+01 -0.18176E+04
 0.56999993E+01 -0.45716E+04
 0.57499995E+01 -0.74037E+04
 0.57999997E+01 -0.98739E+04
 0.58499994E+01 -0.11785E+05
 0.58999996E+01 -0.13130E+05
 0.59499993E+01 -0.13916E+05
 0.59999995E+01 -0.14161E+05
 0.60499992E+01 -0.13842E+05
 0.60999994E+01 -0.12974E+05
 0.61499996E+01 -0.11645E+05
 0.61999998E+01 -0.98989E+04
 0.62499990E+01 -0.76899E+04
 0.62999992E+01 -0.50510E+04
 0.63499994E+01 -0.21682E+04
 0.63999996E+01  0.73138E+03
 0.64499998E+01  0.35001E+04
 0.64999990E+01  0.59541E+04
 0.65499992E+01  0.79584E+04
 0.65999994E+01  0.96405E+04
 0.66499996E+01  0.11289E+05
 0.66999998E+01  0.13067E+05
 0.67499990E+01  0.14907E+05
 0.67999992E+01  0.16661E+05
 0.68499994E+01  0.18206E+05
 0.68999996E+01  0.19425E+05
 0.69499998E+01  0.20195E+05
 0.69999990E+01  0.20406E+05
 0.70499992E+01  0.19948E+05
 0.70999994E+01  0.18826E+05
 0.71499996E+01  0.17187E+05
 0.71999998E+01  0.15194E+05
 0.72499990E+01  0.12930E+05
 0.72999992E+01  0.10470E+05
 0.73499994E+01  0.78877E+04
 0.73999996E+01  0.52969E+04
 0.74499998E+01  0.27927E+04
 0.74999990E+01  0.38254E+03
 0.75499992E+01 -0.18124E+04
 0.75999994E+01 -0.36551E+04
 0.76499996E+01 -0.50892E+04
 0.76999998E+01 -0.61805E+04
 0.77499990E+01 -0.70771E+04
 0.77999992E+01 -0.79467E+04
 0.78499994E+01 -0.88849E+04
 0.78999996E+01 -0.99205E+04
 0.79499998E+01 -0.11032E+05
 0.79999990E+01 -0.12136E+05
 0.80499992E+01 -0.13157E+05
 0.80999994E+01 -0.13958E+05
 0.81499996E+01 -0.14433E+05
 0.81999998E+01 -0.14522E+05
 0.82499990E+01 -0.14229E+05
 0.82999992E+01 -0.13667E+05
 0.83499994E+01 -0.13076E+05
 0.83999996E+01 -0.12561E+05
 0.84499998E+01 -0.11957E+05
 0.84999990E+01 -0.11054E+05
 0.85499992E+01 -0.96648E+04
 0.85999994E+01 -0.77319E+04
 0.86499996E+01 -0.53201E+04
 0.86999998E+01 -0.25008E+04
 0.87499990E+01  0.70954E+03
 0.87999992E+01  0.42095E+04
 0.88499994E+01  0.78279E+04
 0.88999996E+01  0.11369E+05
 0.89499998E+01  0.14546E+05
 0.89999990E+01  0.17100E+05
 0.90499992E+01  0.18930E+05
 0.90999994E+01  0.20040E+05
 0.91499996E+01  0.20562E+05
 0.91999989E+01  0.20757E+05
 0.92499990E+01  0.20847E+05
 0.92999992E+01  0.20959E+05
 0.93499994E+01  0.21100E+05
 0.93999996E+01  0.21110E+05
 0.94499989E+01  0.20813E+05
 0.94999990E+01  0.20141E+05
 0.95499992E+01  0.19006E+05
 0.95999994E+01  0.17336E+05
 0.96499996E+01  0.15199E+05
 0.96999989E+01  0.12835E+05
 0.97499990E+01  0.10432E+05
 0.97999992E+01  0.80761E+04
 0.98499994E+01  0.59022E+04
 0.98999996E+01  0.40042E+04
 0.99499989E+01  0.24245E+04
 0.99999990E+01  0.11078E+04
 0.10049999E+02 -0.91322E+02
 0.10099999E+02 -0.13442E+04
 0.10150000E+02 -0.27544E+04
 0.10199999E+02 -0.42266E+04
 0.10249999E+02 -0.55517E+04
 0.10299999E+02 -0.65637E+04
 0.10349999E+02 -0.70701E+04
 0.10400000E+02 -0.68641E+04
 0.10449999E+02 -0.59511E+04
 0.10499999E+02 -0.46401E+04
 0.10549999E+02 -0.33568E+04
 0.10599999E+02 -0.22987E+04
 0.10650000E+02 -0.14914E+04
 0.10699999E+02 -0.94242E+03
 0.10749999E+02 -0.57884E+03
 0.10799999E+02 -0.39838E+03
 0.10849999E+02 -0.42767E+03
 0.10900000E+02 -0.56700E+03
 0.10949999E+02 -0.63049E+03
 0.10999999E+02 -0.54138E+03
 0.11049999E+02 -0.44891E+03
 0.11099999E+02 -0.56743E+03
 0.11150000E+02 -0.10314E+04
 0.11199999E+02 -0.18200E+04
 0.11249999E+02 -0.27698E+04
 0.11299999E+02 -0.36201E+04
 0.11349999E+02 -0.42278E+04
 0.11400000E+02 -0.45850E+04
 0.11449999E+02 -0.46803E+04
 0.11499999E+02 -0.44804E+04
 0.11549999E+02 -0.39267E+04
 0.11599999E+02 -0.29697E+04
 0.11650000E+02 -0.15827E+04
 0.11699999E+02  0.19359E+03
 0.11749999E+02  0.21302E+04
 0.11799999E+02  0.39230E+04
 0.11849999E+02  0.56054E+04
 0.11900000E+02  0.72776E+04
 0.11949999E+02  0.88167E+04
 0.11999999E+02  0.10135E+05
 0.12049999E+02  0.11252E+05
 0.12099999E+02  0.12114E+05
 0.12150000E+02  0.12710E+05
 0.12199999E+02  0.13171E+05
 0.12249999E+02  0.13575E+05
 0.12299999E+02  0.13882E+05
 0.12349999E+02  0.14090E+05
 0.12400000E+02  0.14293E+05
 0.12449999E+02  0.14378E+05
 0.12499999E+02  0.14074E+05
 0.12549999E+02  0.13251E+05
 0.12599999E+02  0.11988E+05
 0.12649999E+02  0.10433E+05
 0.12699999E+02  0.87297E+04
 0.12749999E+02  0.70332E+04
 0.12799999E+02  0.54481E+04
 0.12849999E+02  0.40612E+04
 0.12899999E+02  0.29929E+04
 0.12949999E+02  0.23252E+04
 0.12999999E+02  0.20965E+04
 0.13049999E+02  0.22248E+04
 0.13099999E+02  0.24530E+04
 0.13149999E+02  0.25088E+04
 0.13199999E+02  0.22901E+04
 0.13249999E+02  0.19467E+04
 0.13299999E+02  0.15927E+04
 0.13349999E+02  0.12097E+04
 0.13399999E+02  0.82472E+03
 0.13449999E+02  0.44362E+03
 0.13499999E+02 -0.11702E+03
 0.13549999E+02 -0.93777E+03
 0.13599999E+02 -0.19432E+04
 0.13649999E+02 -0.31697E+04
 0.13699999E+02 -0.46463E+04
 0.13749999E+02 -0.62647E+04
 0.13799999E+02 -0.78428E+04
 0.13849999E+02 -0.92570E+04
 0.13899999E+02 -0.10369E+05
 0.13949999E+02 -0.11133E+05
 0.13999999E+02 -0.11565E+05
 0.14049999E+02 -0.11644E+05
 0.14099998E+02 -0.11430E+05
 0.14150000E+02 -0.11108E+05
 0.14199999E+02 -0.10848E+05
 0.14249998E+02 -0.10655E+05
 0.14299999E+02 -0.10351E+05
 0.14349998E+02 -0.97883E+04
 0.14400000E+02 -0.89969E+04
 0.14449999E+02 -0.80550E+04
 0.14499998E+02 -0.69815E+04
 0.14549999E+02 -0.57637E+04
 0.14599998E+02 -0.44699E+04
 0.14650000E+02 -0.32233E+04
 0.14699999E+02 -0.21685E+04
 0.14749998E+02 -0.13768E+04
 0.14799999E+02 -0.83394E+03
 0.14849998E+02 -0.47299E+03
 0.14900000E+02 -0.15569E+03
 0.14949999E+02  0.32937E+03
 0.14999998E+02  0.11468E+04
 0.15049999E+02  0.22590E+04
 0.15099998E+02  0.35391E+04
 0.15150000E+02  0.48132E+04
 0.15199999E+02  0.59378E+04
 0.15249998E+02  0.68326E+04
 0.15299999E+02  0.74637E+04
 0.15349998E+02  0.78375E+04
 0.15400000E+02  0.79767E+04
 0.15449999E+02  0.78471E+04
 0.15499998E+02  0.72958E+04
 0.15549999E+02  0.62435E+04
 0.15599998E+02  0.48072E+04
 0.15650000E+02  0.32364E+04
 0.15699999E+02  0.16866E+04
 0.15749998E+02  0.21400E+03
 0.15799999E+02 -0.11797E+04
 0.15849998E+02 -0.25210E+04
 0.15900000E+02 -0.38305E+04
 0.15949999E+02 -0.51569E+04
 0.15999998E+02 -0.64907E+04
 0.16049999E+02 -0.77843E+04
 0.16099998E+02 -0.89075E+04
 0.16150000E+02 -0.97699E+04
 0.16199999E+02 -0.10389E+05
 0.16249998E+02 -0.10822E+05
 0.16299999E+02 -0.11211E+05
 0.16349998E+02 -0.11627E+05
 0.16400000E+02 -0.11947E+05
 0.16449999E+02 -0.12022E+05
 0.16499998E+02 -0.11884E+05
 0.16549999E+02 -0.11620E+05
 0.16599998E+02 -0.11250E+05
 0.16650000E+02 -0.10623E+05
 0.16699999E+02 -0.98364E+04
 0.16749998E+02 -0.89793E+04
 0.16799999E+02 -0.81982E+04
 0.16849998E+02 -0.75450E+04
 0.16900000E+02 -0.70833E+04
 0.16949999E+02 -0.66525E+04
 0.16999998E+02 -0.61277E+04
 0.17049999E+02 -0.51202E+04
 0.17099998E+02 -0.34343E+04
 0.17150000E+02 -0.16575E+04
 0.17199999E+02  0.20809E+03
 0.17249998E+02  0.89855E+03
 0.17299999E+02 -0.54336E+04
 0.17349998E+02 -0.24721E+05
 0.17400000E+02 -0.56177E+05
 0.17449999E+02 -0.88499E+05
 0.17499998E+02 -0.10032E+06
 0.17549999E+02 -0.80535E+05
 0.17599998E+02 -0.37498E+05
 0.17650000E+02  0.24499E+04
 0.17699999E+02  0.21040E+05
 0.17749998E+02  0.21546E+05
 0.17799999E+02  0.31944E+03
 0.17849998E+02 -0.40314E+05
 0.17900000E+02 -0.84928E+05
 0.17949999E+02 -0.13194E+06
 0.17999998E+02 -0.19027E+06
 0.18049999E+02 -0.26384E+06
 0.18099998E+02 -0.35329E+06
 0.18150000E+02 -0.40521E+06
 0.18199999E+02 -0.36546E+06
 0.18249998E+02 -0.30244E+06
 0.18299999E+02 -0.22331E+06
 0.18349998E+02 -0.12428E+06
 0.18400000E+02 -0.96528E+05
 0.18449999E+02 -0.58971E+05
 0.18499998E+02  0.46920E+05
 0.18549999E+02  0.10009E+06
 0.18599998E+02  0.11043E+06
 0.18650000E+02  0.13922E+06
 0.18699999E+02  0.15765E+06
 0.18749998E+02  0.16651E+06
 0.18799999E+02  0.14885E+06
 0.18849998E+02  0.99977E+05
 0.18900000E+02  0.10192E+06
 0.18949999E+02  0.14732E+06
 0.18999998E+02  0.17987E+06
 0.19049999E+02  0.25229E+06
 0.19099998E+02  0.30038E+06
 0.19150000E+02  0.28696E+06
 0.19199999E+02  0.25529E+06
 0.19249998E+02  0.20638E+06
 0.19299999E+02  0.20878E+06
 0.19349998E+02  0.23766E+06
 0.19400000E+02  0.19375E+06
 0.19449999E+02  0.64257E+05
 0.19499998E+02 -0.12081E+06
 0.19549999E+02 -0.28753E+06
 0.19599998E+02 -0.32008E+06
 0.19650000E+02 -0.28306E+06
 0.19699999E+02 -0.24485E+06
 0.19749998E+02 -0.23526E+06
 0.19799999E+02 -0.26706E+06
 0.19849998E+02 -0.26428E+06
 0.19900000E+02 -0.21920E+06
 0.19949999E+02 -0.19689E+06
 0.19999998E+02 -0.22049E+06
 0.20049999E+02 -0.23604E+06
 0.20099998E+02 -0.26624E+06
 0.20150000E+02 -0.36277E+06
 0.20199999E+02 -0.46794E+06
 0.20249998E+02 -0.39950E+06
 0.20299999E+02 -0.22542E+06
 0.20349998E+02 -0.12753E+06
 0.20399998E+02  0.20904E+04
 0.20449999E+02  0.14656E+06
 0.20499998E+02  0.24353E+06
 0.20549999E+02  0.65530E+06
 0.20599998E+02  0.10831E+07
 0.20649998E+02  0.84203E+06
 0.20699999E+02  0.47538E+06
 0.20749998E+02  0.35934E+06
 0.20799999E+02  0.11040E+06
 0.20849998E+02 -0.39969E+06
 0.20899998E+02 -0.90250E+06
 0.20949999E+02 -0.65949E+06
 0.20999998E+02 -0.14844E+05
 0.21049999E+02  0.97336E+05
 0.21099998E+02  0.49758E+06
 0.21149998E+02  0.13239E+07
 0.21199999E+02  0.13824E+07
 0.21249998E+02  0.10872E+07
 0.21299999E+02  0.91869E+06
 0.21349998E+02  0.50507E+06
 0.21399998E+02 -0.56079E+05
 0.21449999E+02 -0.65438E+06
 0.21499998E+02 -0.74144E+06
 0.21549999E+02 -0.29843E+06
 0.21599998E+02 -0.27490E+06
 0.21649998E+02 -0.37179E+06
 0.21699999E+02 -0.12703E+06
 0.21749998E+02 -0.70629E+05
 0.21799999E+02 -0.17392E+06
 0.21849998E+02 -0.77137E+05
 0.21899998E+02  0.14642E+05
 0.21949999E+02  0.34311E+05
 0.21999998E+02  0.10579E+06
 0.22049999E+02  0.30959E+05
 0.22099998E+02 -0.16807E+06
 0.22149998E+02 -0.19625E+06
 0.22199999E+02 -0.18120E+06
 0.22249998E+02 -0.37670E+06
 0.22299999E+02 -0.52489E+06
 0.22349998E+02 -0.39523E+06
 0.22399998E+02 -0.79325E+05
 0.22449999E+02  0.17552E+06
 0.22499998E+02  0.29955E+06
 0.22549999E+02  0.46165E+06
 0.22599998E+02  0.73144E+06
 0.22649998E+02  0.75247E+06
 0.22699999E+02  0.41695E+06
 0.22749998E+02  0.16654E+06
 0.22799999E+02  0.59406E+05
 0.22849998E+02 -0.16741E+06
 0.22899998E+02 -0.23987E+06
 0.22949999E+02  0.70336E+05
 0.22999998E+02  0.25981E+06
 0.23049999E+02  0.25788E+06
 0.23099998E+02  0.16517E+06
 0.23149998E+02  0.79737E+05
 0.23199999E+02  0.63066E+05
 0.23249998E+02  0.11338E+05
 0.23299999E+02  0.82532E+05
 0.23349998E+02  0.19915E+06
 0.23399998E+02  0.24455E+06
 0.23449999E+02  0.21442E+06
 0.23499998E+02  0.77372E+05
 0.23549999E+02 -0.14910E+06
 0.23599998E+02 -0.33464E+06
 0.23649998E+02 -0.53986E+06
 0.23699999E+02 -0.73340E+06
 0.23749998E+02 -0.67261E+06
 0.23799999E+02 -0.48554E+06
 0.23849998E+02 -0.31183E+06
 0.23899998E+02 -0.26660E+06
 0.23949999E+02 -0.19760E+06
 0.23999998E+02 -0.86800E+05
 0.24049999E+02 -0.12112E+06
 0.24099998E+02 -0.15903E+06
 0.24149998E+02  0.12696E+05
 0.24199999E+02  0.14065E+06
 0.24249998E+02  0.72970E+05
 0.24299999E+02  0.11148E+06
 0.24349998E+02  0.89194E+05
 0.24399998E+02 -0.48770E+05
 0.24449999E+02 -0.68056E+05
 0.24499998E+02  0.25348E+05
 0.24549999E+02  0.90238E+05
 0.24599998E+02  0.24625E+06
 0.24649998E+02  0.41390E+06
 0.24699999E+02  0.49783E+06
 0.24749998E+02  0.62229E+06
 0.24799999E+02  0.75002E+06
 0.24849998E+02  0.92475E+06
 0.24899998E+02  0.10671E+07
 0.24949999E+02  0.10021E+07
 0.24999998E+02  0.80171E+06
 0.25049999E+02  0.51680E+06
 0.25099998E+02  0.13716E+06
 0.25149998E+02 -0.10190E+06
 0.25199999E+02 -0.14483E+06
 0.25249998E+02 -0.85197E+05
 0.25299999E+02  0.24822E+03
 0.25349998E+02  0.47692E+05
 0.25399998E+02 -0.11051E+05
 0.25449999E+02 -0.27107E+06
 0.25499998E+02 -0.59912E+06
 0.25549999E+02 -0.72263E+06
 0.25599998E+02 -0.68713E+06
 0.25649998E+02 -0.65364E+06
 0.25699999E+02 -0.56207E+06
 0.25749998E+02 -0.42681E+06
 0.25799999E+02 -0.30543E+06
 0.25849998E+02 -0.17380E+06
 0.25899998E+02  0.19340E+05
 0.25949999E+02  0.20981E+06
 0.25999998E+02  0.32716E+06
 0.26049999E+02  0.36496E+06
 0.26099998E+02  0.37679E+06
 0.26149998E+02  0.49746E+06
 0.26199999E+02  0.61292E+06
 0.26249998E+02  0.61843E+06
 0.26299999E+02  0.63914E+06
 0.26349998E+02  0.72400E+06
 0.26399998E+02  0.83230E+06
 0.26449999E+02  0.88834E+06
 0.26499998E+02  0.87962E+06
 0.26549999E+02  0.76019E+06
 0.26599998E+02  0.48317E+06
 0.26649998E+02  0.24314E+06
 0.26699999E+02  0.11075E+06
 0.26749998E+02 -0.89540E+05
 0.26799999E+02 -0.21444E+06
 0.26849998E+02 -0.63780E+05
 0.26899998E+02  0.16024E+06
 0.26949999E+02  0.31172E+06
 0.26999998E+02  0.36855E+06
 0.27049997E+02  0.26760E+06
 0.27099998E+02  0.16723E+06
 0.27149998E+02  0.89730E+05
 0.27199999E+02 -0.59933E+05
 0.27249998E+02 -0.51948E+05
 0.27299997E+02  0.22477E+05
 0.27349998E+02  0.36734E+05
 0.27399998E+02  0.18494E+06
 0.27449999E+02  0.36700E+06
 0.27499998E+02  0.45239E+06
 0.27549997E+02  0.54633E+06
 0.27599998E+02  0.61649E+06
 0.27649998E+02  0.55115E+06
 0.27699999E+02  0.37729E+06
 0.27749998E+02  0.25372E+06
 0.27799997E+02  0.28373E+06
 0.27849998E+02  0.36218E+06
 0.27899998E+02  0.53260E+06
 0.27949999E+02  0.66019E+06
 0.27999998E+02  0.46118E+06
 0.28049997E+02  0.11529E+06
 0.28099998E+02 -0.15927E+06
 0.28149998E+02 -0.49787E+06
 0.28199999E+02 -0.84560E+06
 0.28249998E+02 -0.94503E+06
 0.28299997E+02 -0.91122E+06
 0.28349998E+02 -0.80585E+06
 0.28399998E+02 -0.47010E+06
 0.28449999E+02 -0.72615E+05
 0.28499998E+02  0.76527E+05
 0.28549997E+02  0.51694E+05
 0.28599998E+02  0.12116E+06
 0.28649998E+02  0.25125E+06
 0.28699999E+02  0.30231E+06
 0.28749998E+02  0.36091E+06
 0.28799997E+02  0.30661E+06
 0.28849998E+02 -0.23827E+05
 0.28899998E+02 -0.36112E+06
 0.28949999E+02 -0.60824E+06
 0.28999998E+02 -0.80525E+06
 0.29049997E+02 -0.77251E+06
 0.29099998E+02 -0.62549E+06
 0.29149998E+02 -0.65008E+06
 0.29199999E+02 -0.80725E+06
 0.29249998E+02 -0.94125E+06
 0.29299997E+02 -0.82692E+06
 0.29349998E+02 -0.38398E+06
 0.29399998E+02  0.10736E+06
 0.29449999E+02  0.32039E+06
 0.29499998E+02  0.13574E+06
 0.29549997E+02 -0.25421E+06
 0.29599998E+02 -0.59185E+06
 0.29649998E+02 -0.85913E+06
 0.29699999E+02 -0.10646E+07
 0.29749998E+02 -0.11290E+07
 0.29799997E+02 -0.12652E+07
 0.29849998E+02 -0.14509E+07
 0.29899998E+02 -0.13824E+07
 0.29949999E+02 -0.98063E+06
 0.29999998E+02 -0.40685E+06
 0.30049999E+02  0.53995E+04
 0.30099998E+02  0.13204E+06
 0.30149998E+02  0.44460E+05
 0.30199997E+02 -0.15401E+06
 0.30249996E+02 -0.33880E+06
 0.30299999E+02 -0.42187E+06
 0.30349998E+02 -0.38861E+06
 0.30399998E+02 -0.22473E+06
 0.30449997E+02 -0.11315E+06
 0.30499996E+02 -0.84696E+05
 0.30549999E+02 -0.16957E+05
 0.30599998E+02 -0.16876E+05
 0.30649998E+02 -0.57691E+05
 0.30699997E+02  0.51297E+05
 0.30749996E+02  0.26630E+06
 0.30799999E+02  0.31765E+06
 0.30849998E+02  0.65203E+05
 0.30899998E+02 -0.36776E+06
 0.30949997E+02 -0.68011E+06
 0.30999996E+02 -0.83271E+06
 0.31049999E+02 -0.92898E+06
 0.31099998E+02 -0.87392E+06
 0.31149998E+02 -0.65143E+06
 0.31199997E+02 -0.34779E+06
 0.31249996E+02 -0.91255E+05
 0.31299999E+02  0.94715E+05
 0.31349998E+02  0.22883E+06
 0.31399998E+02  0.19041E+06
 0.31449997E+02  0.49272E+05
 0.31499996E+02 -0.19838E+06
 0.31549999E+02 -0.58918E+06
 0.31599998E+02 -0.89931E+06
 0.31649998E+02 -0.98357E+06
 0.31699997E+02 -0.95306E+06
 0.31749996E+02 -0.82981E+06
 0.31799999E+02 -0.52088E+06
 0.31849998E+02 -0.13111E+06
 0.31899998E+02  0.16206E+06
 0.31949997E+02  0.24420E+06
 0.31999996E+02  0.17424E+06
 0.32049999E+02 -0.74428E+04
 0.32099998E+02 -0.34822E+06
 0.32149998E+02 -0.71640E+06
 0.32199997E+02 -0.92557E+06
 0.32249996E+02 -0.10431E+07
 0.32299999E+02 -0.10022E+07
 0.32349998E+02 -0.66471E+06
 0.32399998E+02 -0.31902E+06
 0.32449997E+02 -0.15773E+06
 0.32499996E+02 -0.20498E+06
 0.32549999E+02 -0.30068E+06
 0.32599998E+02 -0.21871E+06
 0.32649998E+02 -0.40877E+05
 0.32699997E+02  0.13079E+06
 0.32749996E+02  0.25442E+06
 0.32799999E+02  0.18230E+06
 0.32849998E+02 -0.11745E+06
 0.32899998E+02 -0.48105E+06
 0.32949997E+02 -0.82342E+06
 0.32999996E+02 -0.10797E+07
 0.33049999E+02 -0.13089E+07
 0.33099998E+02 -0.14305E+07
 0.33149998E+02 -0.12103E+07
 0.33199997E+02 -0.76179E+06
 0.33249996E+02 -0.26087E+06
 0.33299999E+02  0.32346E+06
 0.33349998E+02  0.83801E+06
 0.33399998E+02  0.10379E+07
 0.33449997E+02  0.96305E+06
 0.33499996E+02  0.63060E+06
 0.33549999E+02  0.18872E+06
 0.33599998E+02 -0.77550E+05
 0.33649998E+02 -0.39356E+05
 0.33699997E+02  0.14821E+06
 0.33749996E+02  0.18702E+06
 0.33799999E+02  0.84637E+05
 0.33849998E+02 -0.97433E+04
 0.33899998E+02 -0.70882E+04
 0.33949997E+02  0.11225E+06
 0.33999996E+02  0.36122E+06
 0.34049999E+02  0.71217E+06
 0.34099998E+02  0.95921E+06
 0.34149998E+02  0.10756E+07
 0.34199997E+02  0.11162E+07
 0.34249996E+02  0.97333E+06
 0.34299999E+02  0.73899E+06
 0.34349998E+02  0.54321E+06
 0.34399998E+02  0.38517E+06
 0.34449997E+02  0.35856E+06
 0.34499996E+02  0.61127E+06
 0.34549999E+02  0.10652E+07
 0.34599998E+02  0.14602E+07
 0.34649998E+02  0.15933E+07
 0.34699997E+02  0.15189E+07
 0.34749996E+02  0.14456E+07
 0.34799999E+02  0.13475E+07
 0.34849998E+02  0.10701E+07
 0.34899998E+02  0.68703E+06
 0.34949997E+02  0.28379E+06
 0.34999996E+02 -0.19054E+06
 0.35049999E+02 -0.60912E+06
 0.35099998E+02 -0.82284E+06
 0.35149998E+02 -0.89156E+06
 0.35199997E+02 -0.83228E+06
 0.35249996E+02 -0.74364E+06
 0.35299999E+02 -0.73177E+06
 0.35349998E+02 -0.59950E+06
 0.35399998E+02 -0.29230E+06
 0.35449997E+02 -0.15347E+05
 0.35499996E+02  0.14538E+06
 0.35549999E+02  0.18745E+06
 0.35599998E+02  0.16202E+06
 0.35649998E+02  0.15687E+06
 0.35699997E+02  0.31190E+06
 0.35749996E+02  0.64553E+06
 0.35799999E+02  0.10065E+07
 0.35849998E+02  0.12500E+07
 0.35899998E+02  0.13411E+07
 0.35949997E+02  0.14211E+07
 0.35999996E+02  0.15287E+07
 0.36049999E+02  0.16160E+07
 0.36099998E+02  0.15464E+07
 0.36149998E+02  0.12263E+07
 0.36199997E+02  0.80745E+06
 0.36249996E+02  0.46529E+06
 0.36299999E+02  0.22561E+06
 0.36349998E+02  0.12858E+06
 0.36399998E+02  0.10719E+06
 0.36449997E+02  0.13631E+06
 0.36499996E+02  0.29637E+06
 0.36549999E+02  0.51170E+06
 0.36599998E+02  0.71977E+06
 0.36649998E+02  0.89939E+06
 0.36699997E+02  0.97498E+06
 0.36749996E+02  0.83208E+06
 0.36799999E+02  0.55292E+06
 0.36849998E+02  0.27963E+06
 0.36899998E+02  0.88146E+05
 0.36949997E+02 -0.20174E+05
 0.36999996E+02 -0.71118E+04
 0.37049999E+02  0.97271E+05
 0.37099998E+02  0.12149E+06
 0.37149998E+02  0.10159E+06
 0.37199997E+02  0.76154E+05
 0.37249996E+02  0.12870E+05
 0.37299999E+02 -0.34817E+05
 0.37349998E+02 -0.40781E+05
 0.37399998E+02 -0.84495E+05
 0.37449997E+02 -0.11793E+06
 0.37499996E+02  0.34582E+05
 0.37549999E+02  0.37130E+06
 0.37599998E+02  0.71352E+06
 0.37649998E+02  0.89776E+06
 0.37699997E+02  0.88289E+06
 0.37749996E+02  0.62605E+06
 0.37799999E+02  0.22842E+06
 0.37849998E+02 -0.79546E+05
 0.37899998E+02 -0.19172E+06
 0.37949997E+02 -0.75100E+05
 0.37999996E+02  0.30946E+06
 0.38049999E+02  0.87022E+06
 0.38099998E+02  0.13871E+07
 0.38149998E+02  0.17489E+07
 0.38199997E+02  0.19051E+07
 0.38249996E+02  0.18754E+07
 0.38299999E+02  0.17129E+07
 0.38349998E+02  0.14695E+07
 0.38399998E+02  0.12048E+07
 0.38449997E+02  0.90999E+06
 0.38499996E+02  0.55825E+06
 0.38549999E+02  0.21153E+06
 0.38599998E+02 -0.81539E+05
 0.38649998E+02 -0.34318E+06
 0.38699997E+02 -0.53760E+06
 0.38749996E+02 -0.69024E+06
 0.38799999E+02 -0.82855E+06
 0.38849998E+02 -0.88223E+06
 0.38899998E+02 -0.84850E+06
 0.38949997E+02 -0.79023E+06
 0.38999996E+02 -0.75381E+06
 0.39049999E+02 -0.77537E+06
 0.39099998E+02 -0.84926E+06
 0.39149998E+02 -0.93409E+06
 0.39199997E+02 -0.10424E+07
 0.39249996E+02 -0.11891E+07
 0.39299999E+02 -0.13459E+07
 0.39349998E+02 -0.14080E+07
 0.39399998E+02 -0.12594E+07
 0.39449997E+02 -0.93906E+06
 0.39499996E+02 -0.59313E+06
 0.39549999E+02 -0.33825E+06
 0.39599998E+02 -0.23360E+06
 0.39649998E+02 -0.33989E+06
 0.39699997E+02 -0.56765E+06
 0.39749996E+02 -0.72494E+06
 0.39799999E+02 -0.77239E+06
 0.39849998E+02 -0.70902E+06
 0.39899998E+02 -0.54168E+06
 0.39949997E+02 -0.33353E+06
 0.39999996E+02 -0.17453E+06
 0.40049999E+02 -0.15133E+06
 0.40099998E+02 -0.28222E+06
 0.40149998E+02 -0.53693E+06
 0.40199997E+02 -0.84535E+06
 0.40249996E+02 -0.10663E+07
 0.40299999E+02 -0.10965E+07
 0.40349998E+02 -0.10050E+07
 0.40399998E+02 -0.86739E+06
 0.40449997E+02 -0.76341E+06
 0.40499996E+02 -0.71515E+06
 0.40549999E+02 -0.66766E+06
 0.40599998E+02 -0.49744E+06
 0.40649998E+02 -0.15452E+06
 0.40699997E+02  0.16194E+06
 0.40749996E+02  0.30349E+06
 0.40799999E+02  0.31691E+06
 0.40849998E+02  0.33888E+06
 0.40899998E+02  0.39735E+06
 0.40949997E+02  0.50496E+06
 0.40999996E+02  0.59914E+06
 0.41049999E+02  0.52273E+06
 0.41099998E+02  0.28538E+06
 0.41149998E+02  0.45809E+05
 0.41199997E+02 -0.90882E+05
 0.41249996E+02 -0.13023E+06
 0.41299999E+02 -0.11758E+06
 0.41349998E+02 -0.72796E+05
 0.41399998E+02  0.56327E+04
 0.41449997E+02  0.10211E+06
 0.41499996E+02  0.18165E+06
 0.41549999E+02  0.20051E+06
 0.41599998E+02  0.10654E+06
 0.41649998E+02 -0.96206E+05
 0.41699997E+02 -0.29558E+06
 0.41749996E+02 -0.46697E+06
 0.41799999E+02 -0.64477E+06
 0.41849998E+02 -0.79513E+06
 0.41899998E+02 -0.87184E+06
 0.41949997E+02 -0.91047E+06
 0.41999996E+02 -0.94265E+06
 0.42049999E+02 -0.94929E+06
 0.42099998E+02 -0.93767E+06
 0.42149998E+02 -0.90022E+06
 0.42199997E+02 -0.82547E+06
 0.42249996E+02 -0.71418E+06
 0.42299999E+02 -0.58957E+06
 0.42349998E+02 -0.45398E+06
 0.42399998E+02 -0.29036E+06
 0.42449997E+02 -0.18067E+06
 0.42499996E+02 -0.22407E+06
 0.42549999E+02 -0.38276E+06
 0.42599998E+02 -0.56814E+06
 0.42649998E+02 -0.66812E+06
 0.42699997E+02 -0.61427E+06
 0.42749996E+02 -0.48657E+06
 0.42799995E+02 -0.37063E+06
 0.42849998E+02 -0.25911E+06
 0.42899998E+02 -0.13588E+06
 0.42949997E+02 -0.29173E+05
 0.42999996E+02  0.46623E+05
 0.43049995E+02  0.12980E+06
 0.43099998E+02  0.23381E+06
 0.43149998E+02  0.30869E+06
 0.43199997E+02  0.30590E+06
 0.43249996E+02  0.21726E+06
 0.43299995E+02  0.91142E+05
 0.43349998E+02 -0.23710E+05
 0.43399998E+02 -0.10079E+06
 0.43449997E+02 -0.95225E+05
 0.43499996E+02  0.14266E+05
 0.43549995E+02  0.21897E+06
 0.43599998E+02  0.46510E+06
 0.43649998E+02  0.64762E+06
 0.43699997E+02  0.69848E+06
 0.43749996E+02  0.61936E+06
 0.43799995E+02  0.46526E+06
 0.43849998E+02  0.32647E+06
 0.43899998E+02  0.27768E+06
 0.43949997E+02  0.32592E+06
 0.43999996E+02  0.40366E+06
 0.44049995E+02  0.42387E+06
 0.44099998E+02  0.34061E+06
 0.44149998E+02  0.16821E+06
 0.44199997E+02 -0.17504E+05
 0.44249996E+02 -0.15686E+06
 0.44299995E+02 -0.22480E+06
 0.44349998E+02 -0.24617E+06
 0.44399998E+02 -0.23623E+06
 0.44449997E+02 -0.20428E+06
 0.44499996E+02 -0.19805E+06
 0.44549995E+02 -0.25730E+06
 0.44599998E+02 -0.35575E+06
 0.44649998E+02 -0.47136E+06
 0.44699997E+02 -0.62076E+06
 0.44749996E+02 -0.77009E+06
 0.44799995E+02 -0.88006E+06
 0.44849998E+02 -0.93407E+06
 0.44899998E+02 -0.92680E+06
 0.44949997E+02 -0.83497E+06
 0.44999996E+02 -0.67203E+06
 0.45049995E+02 -0.45782E+06
 0.45099998E+02 -0.18506E+06
 0.45149998E+02  0.11826E+06
 0.45199997E+02  0.40359E+06
 0.45249996E+02  0.61594E+06
 0.45299995E+02  0.69039E+06
 0.45349998E+02  0.62733E+06
 0.45399998E+02  0.46197E+06
 0.45449997E+02  0.24134E+06
 0.45499996E+02  0.34670E+05
 0.45549995E+02 -0.11731E+06
 0.45599998E+02 -0.20472E+06
 0.45649998E+02 -0.21061E+06
 0.45699997E+02 -0.15671E+06
 0.45749996E+02 -0.74616E+05
 0.45799995E+02  0.52206E+05
 0.45849998E+02  0.21800E+06
 0.45899998E+02  0.39618E+06
 0.45949997E+02  0.53401E+06
 0.45999996E+02  0.59262E+06
 0.46049995E+02  0.56589E+06
 0.46099998E+02  0.45419E+06
 0.46149998E+02  0.26513E+06
 0.46199997E+02  0.60744E+05
 0.46249996E+02 -0.67970E+05
 0.46299995E+02 -0.97704E+05
 0.46349998E+02 -0.61087E+05
 0.46399998E+02 -0.16689E+05
 0.46449997E+02 -0.26844E+05
 0.46499996E+02 -0.11284E+06
 0.46549995E+02 -0.24935E+06
 0.46599998E+02 -0.40312E+06
 0.46649998E+02 -0.54985E+06
 0.46699997E+02 -0.65117E+06
 0.46749996E+02 -0.67615E+06
 0.46799995E+02 -0.61695E+06
 0.46849998E+02 -0.49353E+06
 0.46899998E+02 -0.31942E+06
 0.46949997E+02 -0.99765E+05
 0.46999996E+02  0.12156E+06
 0.47049995E+02  0.32411E+06
 0.47099998E+02  0.51101E+06
 0.47149998E+02  0.65702E+06
 0.47199997E+02  0.72942E+06
 0.47249996E+02  0.76920E+06
 0.47299995E+02  0.83312E+06
 0.47349998E+02  0.89168E+06
 0.47399998E+02  0.90650E+06
 0.47449997E+02  0.88474E+06
 0.47499996E+02  0.86313E+06
 0.47549995E+02  0.84300E+06
 0.47599998E+02  0.78874E+06
 0.47649998E+02  0.70332E+06
 0.47699997E+02  0.60877E+06
 0.47749996E+02  0.51491E+06
 0.47799995E+02  0.44797E+06
 0.47849998E+02  0.41934E+06
 0.47899998E+02  0.40120E+06
 0.47949997E+02  0.37903E+06
 0.47999996E+02  0.34519E+06
 0.48049995E+02  0.27280E+06
 0.48099998E+02  0.16728E+06
 0.48149998E+02  0.75189E+05
 0.48199997E+02  0.12665E+04
 0.48249996E+02 -0.79764E+05
 0.48299995E+02 -0.14880E+06
 0.48349998E+02 -0.20394E+06
 0.48399998E+02 -0.26479E+06
 0.48449997E+02 -0.30715E+06
 0.48499996E+02 -0.31359E+06
 0.48549995E+02 -0.30831E+06
 0.48599998E+02 -0.31092E+06
 0.48649998E+02 -0.30239E+06
 0.48699997E+02 -0.26743E+06
 0.48749996E+02 -0.22960E+06
 0.48799995E+02 -0.21122E+06
 0.48849998E+02 -0.21096E+06
 0.48899998E+02 -0.21661E+06
 0.48949997E+02 -0.23516E+06
 0.48999996E+02 -0.27034E+06
 0.49049995E+02 -0.29408E+06
 0.49099998E+02 -0.28082E+06
 0.49149998E+02 -0.23704E+06
 0.49199997E+02 -0.20404E+06
 0.49249996E+02 -0.21572E+06
 0.49299995E+02 -0.26202E+06
 0.49349998E+02 -0.32527E+06
 0.49399998E+02 -0.39492E+06
 0.49449997E+02 -0.42407E+06
 0.49499996E+02 -0.39833E+06
 0.49549995E+02 -0.31863E+06
 0.49599998E+02 -0.18918E+06
 0.49649998E+02 -0.40396E+05
 0.49699997E+02  0.10263E+06
 0.49749996E+02  0.23648E+06
 0.49799995E+02  0.37549E+06
 0.49849998E+02  0.51723E+06
 0.49899998E+02  0.64723E+06
 0.49949997E+02  0.72674E+06
 0.49999996E+02  0.73720E+06
 0.50049995E+02  0.68336E+06
 0.50099998E+02  0.58082E+06
 0.50149998E+02  0.46748E+06
 0.50199997E+02  0.37943E+06
 0.50249996E+02  0.33442E+06
 0.50299995E+02  0.35069E+06
 0.50349998E+02  0.41739E+06
 0.50399998E+02  0.46889E+06
 0.50449997E+02  0.47232E+06
 0.50499996E+02  0.45570E+06
 0.50549995E+02  0.45840E+06
 0.50599998E+02  0.50023E+06
 0.50649998E+02  0.55895E+06
 0.50699997E+02  0.58693E+06
 0.50749996E+02  0.53697E+06
 0.50799995E+02  0.40474E+06
 0.50849998E+02  0.24816E+06
 0.50899998E+02  0.11459E+06
 0.50949997E+02  0.24855E+05
 0.50999996E+02 -0.41821E+05
 0.51049995E+02 -0.12123E+06
 0.51099998E+02 -0.20642E+06
 0.51149998E+02 -0.26013E+06
 0.51199997E+02 -0.26928E+06
 0.51249996E+02 -0.27694E+06
 0.51299995E+02 -0.30923E+06
 0.51349998E+02 -0.35526E+06
 0.51399998E+02 -0.40284E+06
 0.51449997E+02 -0.42634E+06
 0.51499996E+02 -0.42545E+06
 0.51549995E+02 -0.41537E+06
 0.51599998E+02 -0.38229E+06
 0.51649998E+02 -0.33646E+06
 0.51699997E+02 -0.31042E+06
 0.51749996E+02 -0.32493E+06
 0.51799995E+02 -0.36137E+06
 0.51849998E+02 -0.39332E+06
 0.51899998E+02 -0.41057E+06
 0.51949997E+02 -0.39943E+06
 0.51999996E+02 -0.35658E+06
 0.52049995E+02 -0.29092E+06
 0.52099998E+02 -0.21812E+06
 0.52149998E+02 -0.13311E+06
 0.52199997E+02 -0.21437E+05
 0.52249996E+02  0.12200E+06
 0.52299995E+02  0.28142E+06
 0.52349998E+02  0.41835E+06
 0.52399998E+02  0.50248E+06
 0.52449997E+02  0.52090E+06
 0.52499996E+02  0.47629E+06
 0.52549995E+02  0.38762E+06
 0.52599998E+02  0.28643E+06
 0.52649998E+02  0.21559E+06
 0.52699997E+02  0.19694E+06
 0.52749996E+02  0.23175E+06
 0.52799995E+02  0.31106E+06
 0.52849998E+02  0.38850E+06
 0.52899998E+02  0.42097E+06
 0.52949997E+02  0.39604E+06
 0.52999996E+02  0.31686E+06
 0.53049995E+02  0.19132E+06
 0.53099998E+02  0.65362E+05
 0.53149998E+02 -0.17473E+05
 0.53199997E+02 -0.51925E+05
 0.53249996E+02 -0.42312E+05
 0.53299995E+02 -0.63944E+04
 0.53349998E+02  0.39852E+05
 0.53399998E+02  0.78210E+05
 0.53449997E+02  0.96072E+05
 0.53499996E+02  0.10336E+06
 0.53549995E+02  0.11965E+06
 0.53599998E+02  0.14460E+06
 0.53649998E+02  0.17025E+06
 0.53699997E+02  0.19233E+06
 0.53749996E+02  0.19808E+06
 0.53799995E+02  0.18381E+06
 0.53849998E+02  0.15348E+06
 0.53899998E+02  0.10833E+06
 0.53949997E+02  0.49982E+05
 0.53999996E+02 -0.17964E+05
 0.54049995E+02 -0.97934E+05
 0.54099998E+02 -0.18009E+06
 0.54149998E+02 -0.21318E+06
 0.54199997E+02 -0.16989E+06
 0.54249996E+02 -0.81613E+05
 0.54299995E+02  0.15149E+05
 0.54349998E+02  0.92682E+05
 0.54399998E+02  0.12616E+06
 0.54449997E+02  0.12248E+06
 0.54499996E+02  0.93417E+05
 0.54549995E+02  0.26636E+05
 0.54599998E+02 -0.78249E+05
 0.54649998E+02 -0.20765E+06
 0.54699997E+02 -0.34184E+06
 0.54749996E+02 -0.45839E+06
 0.54799995E+02 -0.54244E+06
 0.54849998E+02 -0.58092E+06
 0.54899998E+02 -0.56462E+06
 0.54949997E+02 -0.51043E+06
 0.54999996E+02 -0.45283E+06
 0.55049995E+02 -0.41143E+06
 0.55099998E+02 -0.38395E+06
 0.55149998E+02 -0.35198E+06
 0.55199997E+02 -0.29032E+06
 0.55249996E+02 -0.21264E+06
 0.55299995E+02 -0.15651E+06
 0.55349998E+02 -0.10768E+06
 0.55399998E+02 -0.50285E+05
 0.55449997E+02  0.65110E+04
 0.55499996E+02  0.70290E+05
 0.55549995E+02  0.14900E+06
 0.55599998E+02  0.22926E+06
 0.55649998E+02  0.30711E+06
 0.55699997E+02  0.38044E+06
 0.55749996E+02  0.42012E+06
 0.55799995E+02  0.39776E+06
 0.55849995E+02  0.31593E+06
 0.55899998E+02  0.20830E+06
 0.55949997E+02  0.86793E+05
 0.55999996E+02 -0.41828E+05
 0.56049995E+02 -0.14476E+06
 0.56099995E+02 -0.19375E+06
 0.56149998E+02 -0.19353E+06
 0.56199997E+02 -0.16130E+06
 0.56249996E+02 -0.10867E+06
 0.56299995E+02 -0.54370E+05
 0.56349995E+02 -0.10828E+05
 0.56399998E+02  0.13786E+05
 0.56449997E+02  0.17716E+05
 0.56499996E+02  0.51498E+04
 0.56549995E+02 -0.28840E+05
 0.56599995E+02 -0.90997E+05
 0.56649998E+02 -0.17114E+06
 0.56699997E+02 -0.24966E+06
 0.56749996E+02 -0.31536E+06
 0.56799995E+02 -0.35566E+06
 0.56849995E+02 -0.35495E+06
 0.56899998E+02 -0.33450E+06
 0.56949997E+02 -0.31602E+06
 0.56999996E+02 -0.29036E+06
 0.57049995E+02 -0.24636E+06
 0.57099995E+02 -0.17341E+06
 0.57149998E+02 -0.66472E+05
 0.57199997E+02  0.52468E+05
 0.57249996E+02  0.13827E+06
 0.57299995E+02  0.17214E+06
 0.57349995E+02  0.15996E+06
 0.57399998E+02  0.11500E+06
 0.57449997E+02  0.52829E+05
 0.57499996E+02 -0.12088E+05
 0.57549995E+02 -0.69350E+05
 0.57599995E+02 -0.10883E+06
 0.57649998E+02 -0.13118E+06
 0.57699997E+02 -0.13371E+06
 0.57749996E+02 -0.10874E+06
 0.57799995E+02 -0.66507E+05
 0.57849995E+02 -0.20327E+05
 0.57899998E+02  0.11008E+05
 0.57949997E+02  0.75966E+04
 0.57999996E+02 -0.24225E+05
 0.58049995E+02 -0.64489E+05
 0.58099995E+02 -0.11000E+06
 0.58149998E+02 -0.15309E+06
 0.58199997E+02 -0.18486E+06
 0.58249996E+02 -0.19630E+06
 0.58299995E+02 -0.17481E+06
 0.58349995E+02 -0.12291E+06
 0.58399998E+02 -0.40041E+05
 0.58449997E+02  0.83484E+05
 0.58499996E+02  0.23145E+06
 0.58549995E+02  0.36486E+06
 0.58599995E+02  0.45596E+06
 0.58649998E+02  0.49084E+06
 0.58699997E+02  0.47267E+06
 0.58749996E+02  0.42329E+06
 0.58799995E+02  0.35263E+06
 0.58849995E+02  0.26621E+06
 0.58899998E+02  0.18584E+06
 0.58949997E+02  0.13329E+06
 0.58999996E+02  0.11988E+06
 0.59049995E+02  0.14241E+06
 0.59099995E+02  0.18180E+06
 0.59149998E+02  0.20435E+06
 0.59199997E+02  0.19140E+06
 0.59249996E+02  0.15422E+06
 0.59299995E+02  0.11903E+06
 0.59349995E+02  0.10623E+06
 0.59399998E+02  0.11230E+06
 0.59449997E+02  0.12358E+06
 0.59499996E+02  0.13122E+06
 0.59549995E+02  0.13674E+06
 0.59599995E+02  0.12444E+06
 0.59649998E+02  0.89773E+05
 0.59699997E+02  0.67595E+05
 0.59749996E+02  0.83045E+05
 0.59799995E+02  0.13983E+06
 0.59849995E+02  0.22352E+06
 0.59899998E+02  0.31266E+06
 0.59949997E+02  0.38934E+06
 0.59999996E+02  0.42843E+06
 0.60049995E+02  0.41507E+06
 0.60099995E+02  0.35309E+06
 0.60149998E+02  0.25087E+06
 0.60199997E+02  0.13975E+06
 0.60249996E+02  0.51679E+05
 0.60299995E+02 -0.19616E+04
 0.60349995E+02 -0.32304E+05
 0.60399998E+02 -0.68749E+05
 0.60449997E+02 -0.11862E+06
 0.60499996E+02 -0.17879E+06
 0.60549995E+02 -0.24960E+06
 0.60599995E+02 -0.31663E+06
 0.60649998E+02 -0.35515E+06
 0.60699997E+02 -0.33512E+06
 0.60749996E+02 -0.25487E+06
 0.60799995E+02 -0.14667E+06
 0.60849995E+02 -0.57264E+05
 0.60899998E+02 -0.21352E+05
 0.60949997E+02 -0.37245E+05
 0.60999996E+02 -0.85820E+05
 0.61049995E+02 -0.15401E+06
 0.61099995E+02 -0.22349E+06
 0.61149998E+02 -0.27264E+06
 0.61199997E+02 -0.29747E+06
 0.61249996E+02 -0.29380E+06
 0.61299995E+02 -0.26323E+06
 0.61349995E+02 -0.21207E+06
 0.61399998E+02 -0.15203E+06
 0.61449997E+02 -0.97533E+05
 0.61499996E+02 -0.48718E+05
 0.61549995E+02 -0.15626E+04
 0.61599995E+02  0.42883E+05
 0.61649998E+02  0.85328E+05
 0.61699997E+02  0.12360E+06
 0.61749996E+02  0.13878E+06
 0.61799995E+02  0.11724E+06
 0.61849995E+02  0.61314E+05
 0.61899998E+02 -0.38360E+05
 0.61949997E+02 -0.17509E+06
 0.61999996E+02 -0.31104E+06
 0.62049995E+02 -0.40898E+06
 0.62099998E+02 -0.44077E+06
 0.62149994E+02 -0.40937E+06
 0.62199997E+02 -0.34493E+06
 0.62249992E+02 -0.26307E+06
 0.62299995E+02 -0.17114E+06
 0.62349998E+02 -0.81570E+05
 0.62399994E+02  0.50388E+04
 0.62449997E+02  0.90293E+05
 0.62499992E+02  0.15567E+06
 0.62549995E+02  0.18892E+06
 0.62599998E+02  0.19549E+06
 0.62649994E+02  0.18793E+06
 0.62699997E+02  0.19151E+06
 0.62749992E+02  0.22448E+06
 0.62799995E+02  0.27950E+06
 0.62849998E+02  0.32589E+06
 0.62899994E+02  0.34529E+06
 0.62949997E+02  0.33624E+06
 0.62999992E+02  0.29802E+06
 0.63049995E+02  0.23389E+06
 0.63099998E+02  0.15926E+06
 0.63149994E+02  0.86896E+05
 0.63199997E+02  0.20999E+05
 0.63249992E+02 -0.33955E+05
 0.63299995E+02 -0.80451E+05
 0.63349998E+02 -0.11234E+06
 0.63399994E+02 -0.11862E+06
 0.63449997E+02 -0.10729E+06
 0.63499992E+02 -0.97595E+05
 0.63549995E+02 -0.90876E+05
 0.63599998E+02 -0.84072E+05
 0.63649994E+02 -0.83368E+05
 0.63699997E+02 -0.82842E+05
 0.63749992E+02 -0.66509E+05
 0.63799995E+02 -0.38398E+05
 0.63849998E+02 -0.13630E+05
 0.63899994E+02  0.10375E+05
 0.63949997E+02  0.35704E+05
 0.63999992E+02  0.57555E+05
 0.64049995E+02  0.69999E+05
 0.64099998E+02  0.70290E+05
 0.64149994E+02  0.55590E+05
 0.64199997E+02  0.31505E+05
 0.64249992E+02  0.83143E+04
 0.64299995E+02 -0.77766E+04
 0.64349998E+02 -0.67284E+04
 0.64399994E+02  0.61982E+04
 0.64449997E+02  0.15203E+05
 0.64499992E+02  0.82438E+04
 0.64549995E+02 -0.17384E+05
 0.64599998E+02 -0.54217E+05
 0.64649994E+02 -0.93148E+05
 0.64699997E+02 -0.13548E+06
 0.64749992E+02 -0.18560E+06
 0.64799995E+02 -0.24443E+06
 0.64849998E+02 -0.30884E+06
 0.64899994E+02 -0.36767E+06
 0.64949997E+02 -0.41467E+06
 0.64999992E+02 -0.44005E+06
 0.65049995E+02 -0.43540E+06
 0.65099998E+02 -0.40525E+06
 0.65149994E+02 -0.34905E+06
 0.65199997E+02 -0.26335E+06
 0.65249992E+02 -0.14557E+06
 0.65299995E+02 -0.49959E+04
 0.65349998E+02  0.13313E+06
 0.65399994E+02  0.24448E+06
 0.65449997E+02  0.31566E+06
 0.65499992E+02  0.33645E+06
 0.65549995E+02  0.31143E+06
 0.65599998E+02  0.26142E+06
 0.65649994E+02  0.19629E+06
 0.65699997E+02  0.12741E+06
 0.65749992E+02  0.75147E+05
 0.65799995E+02  0.54407E+05
 0.65849998E+02  0.64534E+05
 0.65899994E+02  0.93190E+05
 0.65949997E+02  0.13011E+06
 0.65999992E+02  0.16828E+06
 0.66049995E+02  0.20528E+06
 0.66099998E+02  0.23317E+06
 0.66149994E+02  0.24336E+06
 0.66199997E+02  0.24762E+06
 0.66249992E+02  0.24972E+06
 0.66299995E+02  0.23995E+06
 0.66349998E+02  0.22506E+06
 0.66399994E+02  0.21133E+06
 0.66449997E+02  0.19160E+06
 0.66499992E+02  0.16563E+06
 0.66549995E+02  0.12789E+06
 0.66599998E+02  0.74496E+05
 0.66649994E+02  0.15325E+05
 0.66699997E+02 -0.40731E+05
 0.66749992E+02 -0.85977E+05
 0.66799995E+02 -0.11787E+06
 0.66849998E+02 -0.14237E+06
 0.66899994E+02 -0.16666E+06
 0.66949997E+02 -0.18774E+06
 0.66999992E+02 -0.20815E+06
 0.67049995E+02 -0.23223E+06
 0.67099998E+02 -0.25545E+06
 0.67149994E+02 -0.27051E+06
 0.67199997E+02 -0.27255E+06
 0.67249992E+02 -0.25899E+06
 0.67299995E+02 -0.22650E+06
 0.67349998E+02 -0.18119E+06
 0.67399994E+02 -0.12962E+06
 0.67449997E+02 -0.77098E+05
 0.67499992E+02 -0.35141E+05
 0.67549995E+02 -0.15315E+05
 0.67599998E+02 -0.22670E+05
 0.67649994E+02 -0.54069E+05
 0.67699997E+02 -0.93496E+05
 0.67749992E+02 -0.11861E+06
 0.67799995E+02 -0.11611E+06
 0.67849998E+02 -0.87529E+05
 0.67899994E+02 -0.46152E+05
 0.67949997E+02 -0.73532E+04
 0.67999992E+02  0.13827E+05
 0.68049995E+02  0.15121E+05
 0.68099998E+02  0.32937E+04
 0.68149994E+02 -0.18882E+05
 0.68199997E+02 -0.46422E+05
 0.68249992E+02 -0.68264E+05
 0.68299995E+02 -0.76560E+05
 0.68349998E+02 -0.75875E+05
 0.68399994E+02 -0.65986E+05
 0.68449997E+02 -0.46474E+05
 0.68499992E+02 -0.16989E+05
 0.68549995E+02  0.24311E+05
 0.68599998E+02  0.67234E+05
 0.68649994E+02  0.10663E+06
 0.68699997E+02  0.14443E+06
 0.68749992E+02  0.18110E+06
 0.68799995E+02  0.22592E+06
 0.68849998E+02  0.28209E+06
 0.68899994E+02  0.32572E+06
 0.68949997E+02  0.34340E+06
 0.68999992E+02  0.34901E+06
 0.69049995E+02  0.35356E+06
 0.69099998E+02  0.35488E+06
 0.69149994E+02  0.34083E+06
 0.69199997E+02  0.30479E+06
 0.69249992E+02  0.24667E+06
 0.69299995E+02  0.17057E+06
 0.69349998E+02  0.86607E+05
 0.69399994E+02  0.67311E+04
 0.69449997E+02 -0.52841E+05
 0.69499992E+02 -0.83828E+05
 0.69549995E+02 -0.88560E+05
 0.69599998E+02 -0.76917E+05
 0.69649994E+02 -0.62825E+05
 0.69699997E+02 -0.53616E+05
 0.69749992E+02 -0.50693E+05
 0.69799995E+02 -0.57389E+05
 0.69849998E+02 -0.75187E+05
 0.69899994E+02 -0.98755E+05
 0.69949997E+02 -0.12230E+06
 0.69999992E+02 -0.13607E+06
 0.70049995E+02 -0.13181E+06
 0.70099998E+02 -0.11648E+06
 0.70149994E+02 -0.96228E+05
 0.70199997E+02 -0.71224E+05
 0.70249992E+02 -0.45500E+05
 0.70299995E+02 -0.19980E+05
 0.70349998E+02 -0.15153E+04
 0.70399994E+02 -0.23608E+04
 0.70449997E+02 -0.14996E+05
 0.70499992E+02 -0.21690E+05
 0.70549995E+02 -0.24187E+05
 0.70599998E+02 -0.26945E+05
 0.70649994E+02 -0.25183E+05
 0.70699997E+02 -0.21065E+05
 0.70749992E+02 -0.22512E+05
 0.70799995E+02 -0.33341E+05
 0.70849998E+02 -0.57818E+05
 0.70899994E+02 -0.94534E+05
 0.70949997E+02 -0.13464E+06
 0.70999992E+02 -0.16727E+06
 0.71049995E+02 -0.18506E+06
 0.71099998E+02 -0.19219E+06
 0.71149994E+02 -0.19333E+06
 0.71199997E+02 -0.19111E+06
 0.71249992E+02 -0.18065E+06
 0.71299995E+02 -0.15872E+06
 0.71349998E+02 -0.12856E+06
 0.71399994E+02 -0.90704E+05
 0.71449997E+02 -0.39759E+05
 0.71499992E+02  0.23915E+05
 0.71549995E+02  0.88639E+05
 0.71599998E+02  0.14523E+06
 0.71649994E+02  0.18489E+06
 0.71699997E+02  0.20589E+06
 0.71749992E+02  0.21584E+06
 0.71799995E+02  0.22313E+06
 0.71849998E+02  0.22648E+06
 0.71899994E+02  0.21428E+06
 0.71949997E+02  0.17599E+06
 0.71999992E+02  0.11772E+06
 0.72049995E+02  0.55931E+05
 0.72099998E+02 -0.22205E+04
 0.72149994E+02 -0.53259E+05
 0.72199997E+02 -0.98526E+05
 0.72249992E+02 -0.13646E+06
 0.72299995E+02 -0.15936E+06
 0.72349998E+02 -0.16797E+06
 0.72399994E+02 -0.16157E+06
 0.72449997E+02 -0.13441E+06
 0.72499992E+02 -0.89372E+05
 0.72549995E+02 -0.37547E+05
 0.72599998E+02  0.97455E+04
 0.72649994E+02  0.40376E+05
 0.72699997E+02  0.45630E+05
 0.72749992E+02  0.35690E+05
 0.72799995E+02  0.27459E+05
 0.72849998E+02  0.26310E+05
 0.72899994E+02  0.31637E+05
 0.72949997E+02  0.40517E+05
 0.72999992E+02  0.43666E+05
 0.73049995E+02  0.39342E+05
 0.73099998E+02  0.33926E+05
 0.73149994E+02  0.29888E+05
 0.73199997E+02  0.33664E+05
 0.73249992E+02  0.47951E+05
 0.73299995E+02  0.74665E+05
 0.73349998E+02  0.11464E+06
 0.73399994E+02  0.16112E+06
 0.73449997E+02  0.20909E+06
 0.73499992E+02  0.25211E+06
 0.73549995E+02  0.27966E+06
 0.73599998E+02  0.28486E+06
 0.73649994E+02  0.26925E+06
 0.73699997E+02  0.23596E+06
 0.73749992E+02  0.19396E+06
 0.73799995E+02  0.15592E+06
 0.73849998E+02  0.13184E+06
 0.73899994E+02  0.13113E+06
 0.73949997E+02  0.15449E+06
 0.73999992E+02  0.19009E+06
 0.74049995E+02  0.21928E+06
 0.74099998E+02  0.23003E+06
 0.74149994E+02  0.22006E+06
 0.74199997E+02  0.18857E+06
 0.74249992E+02  0.13358E+06
 0.74299995E+02  0.59414E+05
 0.74349998E+02 -0.21146E+05
 0.74399994E+02 -0.87187E+05
 0.74449997E+02 -0.12275E+06
 0.74499992E+02 -0.12382E+06
 0.74549995E+02 -0.95695E+05
 0.74599998E+02 -0.55703E+05
 0.74649994E+02 -0.21750E+05
 0.74699997E+02 -0.55763E+04
 0.74749992E+02 -0.13448E+05
 0.74799995E+02 -0.45165E+05
 0.74849998E+02 -0.92611E+05
 0.74899994E+02 -0.14574E+06
 0.74949997E+02 -0.19164E+06
 0.74999992E+02 -0.21688E+06
 0.75049995E+02 -0.21182E+06
 0.75099998E+02 -0.17968E+06
 0.75149994E+02 -0.13851E+06
 0.75199997E+02 -0.10108E+06
 0.75249992E+02 -0.71937E+05
 0.75299995E+02 -0.52912E+05
 0.75349998E+02 -0.45479E+05
 0.75399994E+02 -0.47208E+05
 0.75449997E+02 -0.49229E+05
 0.75499992E+02 -0.43898E+05
 0.75549995E+02 -0.26116E+05
 0.75599998E+02  0.54404E+04
 0.75649994E+02  0.47333E+05
 0.75699997E+02  0.91672E+05
 0.75749992E+02  0.12736E+06
 0.75799995E+02  0.14780E+06
 0.75849998E+02  0.15159E+06
 0.75899994E+02  0.13583E+06
 0.75949997E+02  0.10494E+06
 0.75999992E+02  0.73016E+05
 0.76049995E+02  0.50463E+05
 0.76099998E+02  0.43723E+05
 0.76149994E+02  0.55088E+05
 0.76199997E+02  0.79418E+05
 0.76249992E+02  0.10558E+06
 0.76299995E+02  0.11903E+06
 0.76349998E+02  0.10906E+06
 0.76399994E+02  0.73802E+05
 0.76449997E+02  0.19641E+05
 0.76499992E+02 -0.44645E+05
 0.76549995E+02 -0.10921E+06
 0.76599998E+02 -0.16172E+06
 0.76649994E+02 -0.19304E+06
 0.76699997E+02 -0.20262E+06
 0.76749992E+02 -0.19793E+06
 0.76799995E+02 -0.18243E+06
 0.76849998E+02 -0.15151E+06
 0.76899994E+02 -0.10457E+06
 0.76949997E+02 -0.50066E+05
 0.76999992E+02  0.74921E+03
 0.77049995E+02  0.36655E+05
 0.77099998E+02  0.53488E+05
 0.77149994E+02  0.50112E+05
 0.77199997E+02  0.28088E+05
 0.77249992E+02 -0.29392E+04
 0.77299995E+02 -0.35948E+05
 0.77349998E+02 -0.69822E+05
 0.77399994E+02 -0.10078E+06
 0.77449997E+02 -0.12047E+06
 0.77499992E+02 -0.12753E+06
 0.77549995E+02 -0.12280E+06
 0.77599998E+02 -0.10848E+06
 0.77649994E+02 -0.92187E+05
 0.77699997E+02 -0.79315E+05
 0.77749992E+02 -0.68877E+05
 0.77799995E+02 -0.54594E+05
 0.77849998E+02 -0.37238E+05
 0.77899994E+02 -0.25164E+05
 0.77949997E+02 -0.24711E+05
 0.77999992E+02 -0.35181E+05
 0.78049995E+02 -0.48632E+05
 0.78099998E+02 -0.62467E+05
 0.78149994E+02 -0.79017E+05
 0.78199997E+02 -0.94466E+05
 0.78249992E+02 -0.10060E+06
 0.78299995E+02 -0.93039E+05
 0.78349998E+02 -0.71226E+05
 0.78399994E+02 -0.41355E+05
 0.78449997E+02 -0.16777E+05
 0.78499992E+02 -0.55554E+04
 0.78549995E+02 -0.69138E+04
 0.78599998E+02 -0.10162E+05
 0.78649994E+02 -0.66894E+04
 0.78699997E+02  0.15149E+04
 0.78749992E+02  0.12131E+05
 0.78799995E+02  0.23242E+05
 0.78849998E+02  0.33488E+05
 0.78899994E+02  0.46782E+05
 0.78949997E+02  0.61936E+05
 0.78999992E+02  0.71475E+05
 0.79049995E+02  0.75364E+05
 0.79099998E+02  0.78050E+05
 0.79149994E+02  0.86531E+05
 0.79199997E+02  0.10645E+06
 0.79249992E+02  0.13745E+06
 0.79299995E+02  0.17608E+06
 0.79349998E+02  0.21943E+06
 0.79399994E+02  0.26723E+06
 0.79449997E+02  0.31475E+06
 0.79499992E+02  0.35042E+06
 0.79549995E+02  0.36240E+06
 0.79599998E+02  0.34821E+06
 0.79649994E+02  0.31155E+06
 0.79699997E+02  0.25715E+06
 0.79749992E+02  0.19074E+06
 0.79799995E+02  0.12070E+06
 0.79849998E+02  0.56013E+05
 0.79899994E+02 -0.51164E+03
 0.79949997E+02 -0.51823E+05
 0.79999992E+02 -0.99337E+05
 0.80049995E+02 -0.14394E+06
 0.80099998E+02 -0.18668E+06
 0.80149994E+02 -0.22036E+06
 0.80199997E+02 -0.23928E+06
 0.80249992E+02 -0.24178E+06
 0.80299995E+02 -0.22688E+06
 0.80349998E+02 -0.20016E+06
 0.80399994E+02 -0.16596E+06
 0.80449997E+02 -0.12810E+06
 0.80499992E+02 -0.94661E+05
 0.80549995E+02 -0.69729E+05
 0.80599998E+02 -0.51326E+05
 0.80649994E+02 -0.39257E+05
 0.80699997E+02 -0.32384E+05
 0.80749992E+02 -0.25206E+05
 0.80799995E+02 -0.15184E+05
 0.80849998E+02 -0.22798E+04
 0.80899994E+02  0.12357E+05
 0.80949997E+02  0.26790E+05
 0.80999992E+02  0.36572E+05
 0.81049995E+02  0.38248E+05
 0.81099998E+02  0.30019E+05
 0.81149994E+02  0.16160E+05
 0.81199997E+02  0.37376E+04
 0.81249992E+02 -0.24600E+04
 0.81299995E+02 -0.81861E+03
 0.81349998E+02  0.13789E+04
 0.81399994E+02 -0.58893E+03
 0.81449997E+02 -0.41927E+04
 0.81499992E+02 -0.97628E+04
 0.81549995E+02 -0.19068E+05
 0.81599998E+02 -0.30217E+05
 0.81649994E+02 -0.43521E+05
 0.81699997E+02 -0.58575E+05
 0.81749992E+02 -0.69043E+05
 0.81799995E+02 -0.67115E+05
 0.81849998E+02 -0.45888E+05
 0.81899994E+02 -0.45122E+04
 0.81949997E+02  0.48969E+05
 0.81999992E+02  0.10364E+06
 0.82049995E+02  0.15177E+06
 0.82099998E+02  0.18901E+06
 0.82149994E+02  0.20903E+06
 0.82199997E+02  0.20572E+06
 0.82249992E+02  0.17761E+06
 0.82299995E+02  0.13267E+06
 0.82349998E+02  0.82308E+05
 0.82399994E+02  0.38735E+05
 0.82449997E+02  0.86559E+04
 0.82499992E+02 -0.11825E+05
 0.82549995E+02 -0.30752E+05
 0.82599998E+02 -0.58087E+05
 0.82649994E+02 -0.94060E+05
 0.82699997E+02 -0.12829E+06
 0.82749992E+02 -0.15187E+06
 0.82799995E+02 -0.16002E+06
 0.82849998E+02 -0.15171E+06
 0.82899994E+02 -0.13332E+06
 0.82949997E+02 -0.11237E+06
 0.82999992E+02 -0.91655E+05
 0.83049995E+02 -0.73010E+05
 0.83099998E+02 -0.55449E+05
 0.83149994E+02 -0.35489E+05
 0.83199997E+02 -0.14466E+05
 0.83249992E+02  0.26249E+04
 0.83299995E+02  0.14632E+05
 0.83349998E+02  0.21091E+05
 0.83399994E+02  0.18922E+05
 0.83449997E+02  0.86566E+04
 0.83499992E+02 -0.71420E+04
 0.83549995E+02 -0.26910E+05
 0.83599998E+02 -0.49354E+05
 0.83649994E+02 -0.74930E+05
 0.83699997E+02 -0.10463E+06
 0.83749992E+02 -0.13530E+06
 0.83799995E+02 -0.16377E+06
 0.83849998E+02 -0.18681E+06
 0.83899994E+02 -0.19425E+06
 0.83949997E+02 -0.17706E+06
 0.83999992E+02 -0.13723E+06
 0.84049995E+02 -0.84056E+05
 0.84099998E+02 -0.32099E+05
 0.84149994E+02  0.47209E+04
 0.84199997E+02  0.19887E+05
 0.84249992E+02  0.13177E+05
 0.84299995E+02 -0.72294E+04
 0.84349998E+02 -0.28487E+05
 0.84399994E+02 -0.43873E+05
 0.84449997E+02 -0.47802E+05
 0.84499992E+02 -0.35474E+05
 0.84549995E+02 -0.10156E+05
 0.84599998E+02  0.24225E+05
 0.84649994E+02  0.60953E+05
 0.84699997E+02  0.90390E+05
 0.84749992E+02  0.10497E+06
 0.84799995E+02  0.10422E+06
 0.84849998E+02  0.93656E+05
 0.84899994E+02  0.76634E+05
 0.84949997E+02  0.57138E+05
 0.84999992E+02  0.39022E+05
 0.85049995E+02  0.23157E+05
 0.85099998E+02  0.10045E+05
 0.85149994E+02 -0.59211E+03
 0.85199997E+02 -0.11109E+05
 0.85249992E+02 -0.22678E+05
 0.85299995E+02 -0.36223E+05
 0.85349998E+02 -0.53887E+05
 0.85399994E+02 -0.74007E+05
 0.85449997E+02 -0.93178E+05
 0.85499992E+02 -0.10991E+06
 0.85549995E+02 -0.12151E+06
 0.85599998E+02 -0.12313E+06
 0.85649994E+02 -0.11366E+06
 0.85699997E+02 -0.94463E+05
 0.85749992E+02 -0.68006E+05
 0.85799995E+02 -0.38412E+05
 0.85849998E+02 -0.13413E+05
 0.85899994E+02 -0.25957E+03
 0.85949997E+02 -0.10510E+04
 0.85999992E+02 -0.17004E+05
 0.86049995E+02 -0.45559E+05
 0.86099998E+02 -0.78340E+05
 0.86149994E+02 -0.10342E+06
 0.86199997E+02 -0.10975E+06
 0.86249992E+02 -0.91595E+05
 0.86299995E+02 -0.52485E+05
 0.86349998E+02 -0.32279E+04
 0.86399994E+02  0.44953E+05
 0.86449997E+02  0.85887E+05
 0.86499992E+02  0.11745E+06
 0.86549995E+02  0.14207E+06
 0.86599998E+02  0.16575E+06
 0.86649994E+02  0.19227E+06
 0.86699997E+02  0.22167E+06
 0.86749992E+02  0.25186E+06
 0.86799995E+02  0.27793E+06
 0.86849998E+02  0.29450E+06
 0.86899994E+02  0.29775E+06
 0.86949997E+02  0.28679E+06
 0.86999992E+02  0.26645E+06
 0.87049995E+02  0.24143E+06
 0.87099998E+02  0.21260E+06
 0.87149994E+02  0.17881E+06
 0.87199997E+02  0.14160E+06
 0.87249992E+02  0.10404E+06
 0.87299995E+02  0.68589E+05
 0.87349998E+02  0.39355E+05
 0.87399994E+02  0.17429E+05
 0.87449997E+02 -0.16553E+04
 0.87499992E+02 -0.21041E+05
 0.87549995E+02 -0.40341E+05
 0.87599991E+02 -0.60684E+05
 0.87649994E+02 -0.81235E+05
 0.87699997E+02 -0.95843E+05
 0.87749992E+02 -0.10116E+06
 0.87799995E+02 -0.99078E+05
 0.87849991E+02 -0.90922E+05
 0.87899994E+02 -0.79965E+05
 0.87949997E+02 -0.73815E+05
 0.87999992E+02 -0.76660E+05
 0.88049995E+02 -0.85266E+05
 0.88099991E+02 -0.90723E+05
 0.88149994E+02 -0.84222E+05
 0.88199997E+02 -0.61924E+05
 0.88249992E+02 -0.26393E+05
 0.88299995E+02  0.14107E+05
 0.88349991E+02  0.53030E+05
 0.88399994E+02  0.88777E+05
 0.88449997E+02  0.11917E+06
 0.88499992E+02  0.13919E+06
 0.88549995E+02  0.14796E+06
 0.88599991E+02  0.14909E+06
 0.88649994E+02  0.14506E+06
 0.88699997E+02  0.13778E+06
 0.88749992E+02  0.12954E+06
 0.88799995E+02  0.12176E+06
 0.88849991E+02  0.11573E+06
 0.88899994E+02  0.11251E+06
 0.88949997E+02  0.11295E+06
 0.88999992E+02  0.11934E+06
 0.89049995E+02  0.13153E+06
 0.89099991E+02  0.14727E+06
 0.89149994E+02  0.16306E+06
 0.89199997E+02  0.17578E+06
 0.89249992E+02  0.18513E+06
 0.89299995E+02  0.19362E+06
 0.89349991E+02  0.20260E+06
 0.89399994E+02  0.20531E+06
 0.89449997E+02  0.19469E+06
 0.89499992E+02  0.16828E+06
 0.89549995E+02  0.12765E+06
 0.89599991E+02  0.78075E+05
 0.89649994E+02  0.25804E+05
 0.89699997E+02 -0.24858E+05
 0.89749992E+02 -0.69924E+05
 0.89799995E+02 -0.10391E+06
 0.89849991E+02 -0.12436E+06
 0.89899994E+02 -0.13335E+06
 0.89949997E+02 -0.13613E+06
 0.89999992E+02 -0.13497E+06
 0.90049995E+02 -0.12952E+06
 0.90099991E+02 -0.12314E+06
 0.90149994E+02 -0.12027E+06
 0.90199997E+02 -0.12469E+06
 0.90249992E+02 -0.13945E+06
 0.90299995E+02 -0.16158E+06
 0.90349991E+02 -0.18496E+06
 0.90399994E+02 -0.20599E+06
 0.90449997E+02 -0.22238E+06
 0.90499992E+02 -0.23402E+06
 0.90549995E+02 -0.24586E+06
 0.90599991E+02 -0.26246E+06
 0.90649994E+02 -0.28322E+06
 0.90699997E+02 -0.30658E+06
 0.90749992E+02 -0.32817E+06
 0.90799995E+02 -0.34009E+06
 0.90849991E+02 -0.33860E+06
 0.90899994E+02 -0.32564E+06
 0.90949997E+02 -0.30309E+06
 0.90999992E+02 -0.27148E+06
 0.91049995E+02 -0.23488E+06
 0.91099991E+02 -0.20272E+06
 0.91149994E+02 -0.18345E+06
 0.91199997E+02 -0.17731E+06
 0.91249992E+02 -0.17807E+06
 0.91299995E+02 -0.17586E+06
 0.91349991E+02 -0.16247E+06
 0.91399994E+02 -0.13720E+06
 0.91449997E+02 -0.10458E+06
 0.91499992E+02 -0.70899E+05
 0.91549995E+02 -0.41898E+05
 0.91599991E+02 -0.16763E+05
 0.91649994E+02  0.96141E+04
 0.91699997E+02  0.37901E+05
 0.91749992E+02  0.66056E+05
 0.91799995E+02  0.92141E+05
 0.91849991E+02  0.11503E+06
 0.91899994E+02  0.13408E+06
 0.91949997E+02  0.15095E+06
 0.91999992E+02  0.16759E+06
 0.92049995E+02  0.18406E+06
 0.92099991E+02  0.19971E+06
 0.92149994E+02  0.21209E+06
 0.92199997E+02  0.21856E+06
 0.92249992E+02  0.21644E+06
 0.92299995E+02  0.20520E+06
 0.92349991E+02  0.18474E+06
 0.92399994E+02  0.15278E+06
 0.92449997E+02  0.11168E+06
 0.92499992E+02  0.69109E+05
 0.92549995E+02  0.33009E+05
 0.92599991E+02  0.53949E+04
 0.92649994E+02 -0.15034E+05
 0.92699997E+02 -0.30465E+05
 0.92749992E+02 -0.45397E+05
 0.92799995E+02 -0.59732E+05
 0.92849991E+02 -0.69439E+05
 0.92899994E+02 -0.71226E+05
 0.92949997E+02 -0.63668E+05
 0.92999992E+02 -0.47084E+05
 0.93049995E+02 -0.26242E+05
 0.93099991E+02 -0.57989E+04
 0.93149994E+02  0.12102E+05
 0.93199997E+02  0.24508E+05
 0.93249992E+02  0.29838E+05
 0.93299995E+02  0.30796E+05
 0.93349991E+02  0.31886E+05
 0.93399994E+02  0.36206E+05
 0.93449997E+02  0.45167E+05
 0.93499992E+02  0.56367E+05
 0.93549995E+02  0.66720E+05
 0.93599991E+02  0.74863E+05
 0.93649994E+02  0.82724E+05
 0.93699997E+02  0.94796E+05
 0.93749992E+02  0.11352E+06
 0.93799995E+02  0.13575E+06
 0.93849991E+02  0.15684E+06
 0.93899994E+02  0.17610E+06
 0.93949997E+02  0.19318E+06
 0.93999992E+02  0.20466E+06
 0.94049995E+02  0.20759E+06
 0.94099991E+02  0.20204E+06
 0.94149994E+02  0.18974E+06
 0.94199997E+02  0.17264E+06
 0.94249992E+02  0.15023E+06
 0.94299995E+02  0.12338E+06
 0.94349991E+02  0.97698E+05
 0.94399994E+02  0.77785E+05
 0.94449997E+02  0.63987E+05
 0.94499992E+02  0.55812E+05
 0.94549995E+02  0.51982E+05
 0.94599991E+02  0.50851E+05
 0.94649994E+02  0.53355E+05
 0.94699997E+02  0.62380E+05
 0.94749992E+02  0.79576E+05
 0.94799995E+02  0.10153E+06
 0.94849991E+02  0.12170E+06
 0.94899994E+02  0.13571E+06
 0.94949997E+02  0.14340E+06
 0.94999992E+02  0.14626E+06
 0.95049995E+02  0.14535E+06
 0.95099991E+02  0.14316E+06
 0.95149994E+02  0.14167E+06
 0.95199997E+02  0.13919E+06
 0.95249992E+02  0.13369E+06
 0.95299995E+02  0.12452E+06
 0.95349991E+02  0.11146E+06
 0.95399994E+02  0.95159E+05
 0.95449997E+02  0.77060E+05
 0.95499992E+02  0.61460E+05
 0.95549995E+02  0.50852E+05
 0.95599991E+02  0.42682E+05
 0.95649994E+02  0.34522E+05
 0.95699997E+02  0.24411E+05
 0.95749992E+02  0.96808E+04
 0.95799995E+02 -0.90845E+04
 0.95849991E+02 -0.25933E+05
 0.95899994E+02 -0.37770E+05
 0.95949997E+02 -0.47337E+05
 0.95999992E+02 -0.56554E+05
 0.96049995E+02 -0.64857E+05
 0.96099991E+02 -0.69690E+05
 0.96149994E+02 -0.68142E+05
 0.96199997E+02 -0.61560E+05
 0.96249992E+02 -0.52902E+05
 0.96299995E+02 -0.43797E+05
 0.96349991E+02 -0.35450E+05
 0.96399994E+02 -0.29368E+05
 0.96449997E+02 -0.29238E+05
 0.96499992E+02 -0.35370E+05
 0.96549995E+02 -0.40111E+05
 0.96599991E+02 -0.35813E+05
 0.96649994E+02 -0.23991E+05
 0.96699997E+02 -0.12155E+05
 0.96749992E+02 -0.62344E+04
 0.96799995E+02 -0.85966E+04
 0.96849991E+02 -0.18930E+05
 0.96899994E+02 -0.35014E+05
 0.96949997E+02 -0.51681E+05
 0.96999992E+02 -0.61992E+05
 0.97049995E+02 -0.61960E+05
 0.97099991E+02 -0.52439E+05
 0.97149994E+02 -0.36543E+05
 0.97199997E+02 -0.19463E+05
 0.97249992E+02 -0.53773E+04
 0.97299995E+02  0.50050E+04
 0.97349991E+02  0.93287E+04
 0.97399994E+02  0.55410E+04
 0.97449997E+02 -0.43414E+04
 0.97499992E+02 -0.18035E+05
 0.97549995E+02 -0.36893E+05
 0.97599991E+02 -0.62087E+05
 0.97649994E+02 -0.89094E+05
 0.97699997E+02 -0.11132E+06
 0.97749992E+02 -0.12515E+06
 0.97799995E+02 -0.13079E+06
 0.97849991E+02 -0.12948E+06
 0.97899994E+02 -0.12354E+06
 0.97949997E+02 -0.11752E+06
 0.97999992E+02 -0.11283E+06
