-0.19969940E+01 -0.21313E+04
-0.19469941E+01 -0.21418E+04
-0.18969940E+01 -0.21586E+04
-0.18469940E+01 -0.21566E+04
-0.17969940E+01 -0.21432E+04
-0.17469940E+01 -0.21135E+04
-0.16969941E+01 -0.20890E+04
-0.16469941E+01 -0.20645E+04
-0.15969940E+01 -0.20263E+04
-0.15469940E+01 -0.20098E+04
-0.14969940E+01 -0.20096E+04
-0.14469941E+01 -0.20111E+04
-0.13969941E+01 -0.20065E+04
-0.13469940E+01 -0.20314E+04
-0.12969941E+01 -0.20549E+04
-0.12469940E+01 -0.20743E+04
-0.11969941E+01 -0.21211E+04
-0.11469941E+01 -0.21534E+04
-0.10969940E+01 -0.21895E+04
-0.10469941E+01 -0.22116E+04
-0.99699408E+00 -0.22432E+04
-0.94699407E+00 -0.22207E+04
-0.89699411E+00 -0.21943E+04
-0.84699404E+00 -0.21638E+04
-0.79699409E+00 -0.21302E+04
-0.74699414E+00 -0.20870E+04
-0.69699407E+00 -0.20357E+04
-0.64699411E+00 -0.20278E+04
-0.59699416E+00 -0.20006E+04
-0.54699409E+00 -0.20206E+04
-0.49699414E+00 -0.20262E+04
-0.44699407E+00 -0.20643E+04
-0.39699411E+00 -0.20807E+04
-0.34699416E+00 -0.21073E+04
-0.29699409E+00 -0.21490E+04
-0.24699414E+00 -0.21575E+04
-0.19699407E+00 -0.22028E+04
-0.14699411E+00 -0.22152E+04
-0.96994162E-01 -0.22325E+04
-0.46994090E-01 -0.22249E+04
 0.30058622E-02 -0.21942E+04
 0.53005934E-01 -0.21606E+04
 0.10300589E+00 -0.21150E+04
 0.15300584E+00 -0.20596E+04
 0.20300579E+00 -0.20114E+04
 0.25300574E+00 -0.19730E+04
 0.30300593E+00 -0.19494E+04
 0.35300589E+00 -0.19157E+04
 0.40300584E+00 -0.19122E+04
 0.45300579E+00 -0.19070E+04
 0.50300574E+00 -0.19019E+04
 0.55300593E+00 -0.19245E+04
 0.60300589E+00 -0.19403E+04
 0.65300584E+00 -0.19675E+04
 0.70300579E+00 -0.19686E+04
 0.75300574E+00 -0.19942E+04
 0.80300570E+00 -0.20148E+04
 0.85300589E+00 -0.20431E+04
 0.90300584E+00 -0.20824E+04
 0.95300579E+00 -0.20902E+04
 0.10030057E+01 -0.21115E+04
 0.10530057E+01 -0.21121E+04
 0.11030059E+01 -0.21170E+04
 0.11530058E+01 -0.21305E+04
 0.12030058E+01 -0.21308E+04
 0.12530057E+01 -0.21400E+04
 0.13030057E+01 -0.21280E+04
 0.13530059E+01 -0.21278E+04
 0.14030058E+01 -0.21200E+04
 0.14530058E+01 -0.21212E+04
 0.15030057E+01 -0.21281E+04
 0.15530057E+01 -0.21212E+04
 0.16030059E+01 -0.21365E+04
 0.16530058E+01 -0.21513E+04
 0.17030058E+01 -0.21682E+04
 0.17530057E+01 -0.21826E+04
 0.18030057E+01 -0.21973E+04
 0.18530056E+01 -0.21924E+04
 0.19030058E+01 -0.21850E+04
 0.19530058E+01 -0.21647E+04
 0.20030057E+01 -0.21405E+04
 0.20530057E+01 -0.21066E+04
 0.21030059E+01 -0.20718E+04
 0.21530056E+01 -0.20258E+04
 0.22030058E+01 -0.19959E+04
 0.22530055E+01 -0.19784E+04
 0.23030057E+01 -0.19621E+04
 0.23530059E+01 -0.19907E+04
 0.24030056E+01 -0.20036E+04
 0.24530058E+01 -0.20144E+04
 0.25030055E+01 -0.20211E+04
 0.25530057E+01 -0.20413E+04
 0.26030059E+01 -0.20521E+04
 0.26530056E+01 -0.20641E+04
 0.27030058E+01 -0.20952E+04
 0.27530055E+01 -0.21117E+04
 0.28030057E+01 -0.21225E+04
 0.28530059E+01 -0.21347E+04
 0.29030056E+01 -0.21435E+04
 0.29530058E+01 -0.21487E+04
 0.30030055E+01 -0.21394E+04
 0.30530057E+01 -0.21309E+04
 0.31030059E+01 -0.21084E+04
 0.31530056E+01 -0.21059E+04
 0.32030058E+01 -0.21065E+04
 0.32530055E+01 -0.21027E+04
 0.33030057E+01 -0.21090E+04
 0.33530059E+01 -0.20957E+04
 0.34030056E+01 -0.20928E+04
 0.34530058E+01 -0.20656E+04
 0.35030055E+01 -0.20629E+04
 0.35530057E+01 -0.20502E+04
 0.36030054E+01 -0.20453E+04
 0.36530056E+01 -0.20489E+04
 0.37030058E+01 -0.20455E+04
 0.37530055E+01 -0.20503E+04
 0.38030057E+01 -0.20369E+04
 0.38530054E+01 -0.20235E+04
 0.39030056E+01 -0.20207E+04
 0.39530058E+01 -0.20210E+04
 0.40030055E+01 -0.20142E+04
 0.40530057E+01 -0.20253E+04
 0.41030054E+01 -0.20124E+04
 0.41530056E+01 -0.20053E+04
 0.42030058E+01 -0.19936E+04
 0.42530055E+01 -0.20000E+04
 0.43030057E+01 -0.19990E+04
 0.43530054E+01 -0.19765E+04
 0.44030056E+01 -0.19936E+04
 0.44530058E+01 -0.19945E+04
 0.45030055E+01 -0.20098E+04
 0.45530057E+01 -0.20227E+04
 0.46030054E+01 -0.20338E+04
 0.46530056E+01 -0.20714E+04
 0.47030058E+01 -0.20864E+04
 0.47530055E+01 -0.21071E+04
 0.48030057E+01 -0.21362E+04
 0.48530054E+01 -0.21553E+04
 0.49030056E+01 -0.21859E+04
 0.49530058E+01 -0.22149E+04
 0.50030055E+01 -0.22406E+04
 0.50530057E+01 -0.22590E+04
 0.51030054E+01 -0.22695E+04
 0.51530056E+01 -0.22781E+04
 0.52030058E+01 -0.22881E+04
 0.52530055E+01 -0.22990E+04
 0.53030057E+01 -0.22983E+04
 0.53530054E+01 -0.22908E+04
 0.54030056E+01 -0.22574E+04
 0.54530053E+01 -0.22326E+04
 0.55030055E+01 -0.22091E+04
 0.55530057E+01 -0.21564E+04
 0.56030054E+01 -0.21131E+04
 0.56530056E+01 -0.20687E+04
 0.57030053E+01 -0.20312E+04
 0.57530055E+01 -0.20113E+04
 0.58030057E+01 -0.19924E+04
 0.58530054E+01 -0.19778E+04
 0.59030056E+01 -0.19667E+04
 0.59530053E+01 -0.19417E+04
 0.60030055E+01 -0.19401E+04
 0.60530052E+01 -0.19231E+04
 0.61030054E+01 -0.19135E+04
 0.61530056E+01 -0.19191E+04
 0.62030058E+01 -0.19050E+04
 0.62530050E+01 -0.19248E+04
 0.63030052E+01 -0.19415E+04
 0.63530054E+01 -0.19590E+04
 0.64030056E+01 -0.19920E+04
 0.64530058E+01 -0.20158E+04
 0.65030050E+01 -0.20486E+04
 0.65530052E+01 -0.20760E+04
 0.66030054E+01 -0.20905E+04
 0.66530056E+01 -0.21232E+04
 0.67030058E+01 -0.21349E+04
 0.67530050E+01 -0.21390E+04
 0.68030052E+01 -0.21491E+04
 0.68530054E+01 -0.21517E+04
 0.69030056E+01 -0.21592E+04
 0.69530058E+01 -0.21502E+04
 0.70030050E+01 -0.21334E+04
 0.70530052E+01 -0.21082E+04
 0.71030054E+01 -0.20719E+04
 0.71530056E+01 -0.20381E+04
 0.72030058E+01 -0.20145E+04
 0.72530050E+01 -0.19933E+04
 0.73030052E+01 -0.19907E+04
 0.73530054E+01 -0.19862E+04
 0.74030056E+01 -0.19704E+04
 0.74530058E+01 -0.19924E+04
 0.75030050E+01 -0.20074E+04
 0.75530052E+01 -0.20201E+04
 0.76030054E+01 -0.20469E+04
 0.76530056E+01 -0.20746E+04
 0.77030058E+01 -0.21066E+04
 0.77530050E+01 -0.21386E+04
 0.78030052E+01 -0.21688E+04
 0.78530054E+01 -0.21893E+04
 0.79030056E+01 -0.21982E+04
 0.79530058E+01 -0.22120E+04
 0.80030050E+01 -0.22201E+04
 0.80530052E+01 -0.22305E+04
 0.81030054E+01 -0.22215E+04
 0.81530056E+01 -0.22130E+04
 0.82030058E+01 -0.22063E+04
 0.82530050E+01 -0.21861E+04
 0.83030052E+01 -0.21722E+04
 0.83530054E+01 -0.21507E+04
 0.84030056E+01 -0.21335E+04
 0.84530058E+01 -0.21249E+04
 0.85030050E+01 -0.21076E+04
 0.85530052E+01 -0.20862E+04
 0.86030054E+01 -0.20792E+04
 0.86530056E+01 -0.20711E+04
 0.87030058E+01 -0.20669E+04
 0.87530050E+01 -0.20627E+04
 0.88030052E+01 -0.20612E+04
 0.88530054E+01 -0.20531E+04
 0.89030056E+01 -0.20499E+04
 0.89530058E+01 -0.20388E+04
 0.90030050E+01 -0.20302E+04
 0.90530052E+01 -0.20291E+04
 0.91030054E+01 -0.20143E+04
 0.91530056E+01 -0.20210E+04
 0.92030048E+01 -0.20329E+04
 0.92530050E+01 -0.20382E+04
 0.93030052E+01 -0.20461E+04
 0.93530054E+01 -0.20580E+04
 0.94030056E+01 -0.20623E+04
 0.94530048E+01 -0.20669E+04
 0.95030050E+01 -0.20721E+04
 0.95530052E+01 -0.20878E+04
 0.96030054E+01 -0.21069E+04
 0.96530056E+01 -0.21219E+04
 0.97030048E+01 -0.21330E+04
 0.97530050E+01 -0.21222E+04
 0.98030052E+01 -0.21097E+04
 0.98530054E+01 -0.20897E+04
 0.99030056E+01 -0.20656E+04
 0.99530048E+01 -0.20437E+04
 0.10003005E+02 -0.20259E+04
 0.10053005E+02 -0.20062E+04
 0.10103005E+02 -0.19868E+04
 0.10153006E+02 -0.19720E+04
 0.10203005E+02 -0.19671E+04
 0.10253005E+02 -0.19654E+04
 0.10303005E+02 -0.19593E+04
 0.10353005E+02 -0.19830E+04
 0.10403006E+02 -0.20086E+04
 0.10453005E+02 -0.20319E+04
 0.10503005E+02 -0.20529E+04
 0.10553005E+02 -0.20662E+04
 0.10603005E+02 -0.20786E+04
 0.10653006E+02 -0.20979E+04
 0.10703005E+02 -0.21247E+04
 0.10753005E+02 -0.21409E+04
 0.10803005E+02 -0.21636E+04
 0.10853005E+02 -0.21665E+04
 0.10903006E+02 -0.21671E+04
 0.10953005E+02 -0.21479E+04
 0.11003005E+02 -0.21470E+04
 0.11053005E+02 -0.21296E+04
 0.11103005E+02 -0.21085E+04
 0.11153006E+02 -0.21013E+04
 0.11203005E+02 -0.20713E+04
 0.11253005E+02 -0.20504E+04
 0.11303005E+02 -0.20350E+04
 0.11353005E+02 -0.20203E+04
 0.11403006E+02 -0.20183E+04
 0.11453005E+02 -0.20247E+04
 0.11503005E+02 -0.20274E+04
 0.11553005E+02 -0.20587E+04
 0.11603005E+02 -0.20736E+04
 0.11653006E+02 -0.20992E+04
 0.11703005E+02 -0.21254E+04
 0.11753005E+02 -0.21486E+04
 0.11803005E+02 -0.21720E+04
 0.11853005E+02 -0.21962E+04
 0.11903006E+02 -0.22217E+04
 0.11953005E+02 -0.22295E+04
 0.12003005E+02 -0.22210E+04
 0.12053005E+02 -0.22121E+04
 0.12103005E+02 -0.21781E+04
 0.12153006E+02 -0.21608E+04
 0.12203005E+02 -0.21334E+04
 0.12253005E+02 -0.20968E+04
 0.12303005E+02 -0.20646E+04
 0.12353005E+02 -0.20100E+04
 0.12403006E+02 -0.19897E+04
 0.12453005E+02 -0.19542E+04
 0.12503005E+02 -0.19457E+04
 0.12553005E+02 -0.19509E+04
 0.12603005E+02 -0.19766E+04
 0.12653005E+02 -0.19815E+04
 0.12703005E+02 -0.20048E+04
 0.12753005E+02 -0.20478E+04
 0.12803005E+02 -0.20782E+04
 0.12853005E+02 -0.21199E+04
 0.12903005E+02 -0.21469E+04
 0.12953005E+02 -0.21769E+04
 0.13003005E+02 -0.21860E+04
 0.13053005E+02 -0.22007E+04
 0.13103005E+02 -0.21962E+04
 0.13153005E+02 -0.21949E+04
 0.13203005E+02 -0.21894E+04
 0.13253005E+02 -0.21762E+04
 0.13303005E+02 -0.21722E+04
 0.13353005E+02 -0.21510E+04
 0.13403005E+02 -0.21288E+04
 0.13453005E+02 -0.21016E+04
 0.13503005E+02 -0.20813E+04
 0.13553005E+02 -0.20439E+04
 0.13603005E+02 -0.20078E+04
 0.13653005E+02 -0.19817E+04
 0.13703005E+02 -0.19582E+04
 0.13753005E+02 -0.19471E+04
 0.13803005E+02 -0.19369E+04
 0.13853005E+02 -0.19392E+04
 0.13903005E+02 -0.19370E+04
 0.13953005E+02 -0.19497E+04
 0.14003005E+02 -0.19546E+04
 0.14053005E+02 -0.19639E+04
 0.14103004E+02 -0.19778E+04
 0.14153006E+02 -0.19958E+04
 0.14203005E+02 -0.20232E+04
 0.14253004E+02 -0.20469E+04
 0.14303005E+02 -0.20783E+04
 0.14353004E+02 -0.21070E+04
 0.14403006E+02 -0.21407E+04
 0.14453005E+02 -0.21611E+04
 0.14503004E+02 -0.21678E+04
 0.14553005E+02 -0.21722E+04
 0.14603004E+02 -0.21670E+04
 0.14653006E+02 -0.21647E+04
 0.14703005E+02 -0.21562E+04
 0.14753004E+02 -0.21485E+04
 0.14803005E+02 -0.21461E+04
 0.14853004E+02 -0.21444E+04
 0.14903006E+02 -0.21326E+04
 0.14953005E+02 -0.21225E+04
 0.15003004E+02 -0.21129E+04
 0.15053005E+02 -0.20892E+04
 0.15103004E+02 -0.20780E+04
 0.15153006E+02 -0.20702E+04
 0.15203005E+02 -0.20551E+04
 0.15253004E+02 -0.20401E+04
 0.15303005E+02 -0.20337E+04
 0.15353004E+02 -0.20247E+04
 0.15403006E+02 -0.20225E+04
 0.15453005E+02 -0.20256E+04
 0.15503004E+02 -0.20233E+04
 0.15553005E+02 -0.20270E+04
 0.15603004E+02 -0.20330E+04
 0.15653006E+02 -0.20455E+04
 0.15703005E+02 -0.20594E+04
 0.15753004E+02 -0.20620E+04
 0.15803005E+02 -0.20699E+04
 0.15853004E+02 -0.20705E+04
 0.15903006E+02 -0.20656E+04
 0.15953005E+02 -0.20627E+04
 0.16003004E+02 -0.20631E+04
 0.16053005E+02 -0.20675E+04
 0.16103004E+02 -0.20739E+04
 0.16153006E+02 -0.20957E+04
 0.16203005E+02 -0.21008E+04
 0.16253004E+02 -0.21075E+04
 0.16303005E+02 -0.21154E+04
 0.16353004E+02 -0.21144E+04
 0.16403006E+02 -0.21305E+04
 0.16453005E+02 -0.21495E+04
 0.16503004E+02 -0.21695E+04
 0.16553005E+02 -0.21807E+04
 0.16603004E+02 -0.21933E+04
 0.16653006E+02 -0.22023E+04
 0.16703005E+02 -0.22104E+04
 0.16753004E+02 -0.22168E+04
 0.16803005E+02 -0.22101E+04
 0.16853004E+02 -0.22106E+04
 0.16903006E+02 -0.22018E+04
 0.16953005E+02 -0.21884E+04
 0.17003004E+02 -0.21661E+04
 0.17053005E+02 -0.21366E+04
 0.17103004E+02 -0.21210E+04
 0.17153006E+02 -0.21048E+04
 0.17203005E+02 -0.20810E+04
 0.17253004E+02 -0.20515E+04
 0.17303005E+02 -0.20406E+04
 0.17353004E+02 -0.20272E+04
 0.17403006E+02 -0.20143E+04
 0.17453005E+02 -0.20090E+04
 0.17503004E+02 -0.19986E+04
 0.17553005E+02 -0.19966E+04
 0.17603004E+02 -0.19893E+04
 0.17653006E+02 -0.19855E+04
 0.17703005E+02 -0.19949E+04
 0.17753004E+02 -0.19959E+04
 0.17803005E+02 -0.20017E+04
 0.17853004E+02 -0.20111E+04
 0.17903006E+02 -0.20023E+04
 0.17953005E+02 -0.19999E+04
 0.18003004E+02 -0.20109E+04
 0.18053005E+02 -0.20210E+04
 0.18103004E+02 -0.20267E+04
 0.18153006E+02 -0.20291E+04
 0.18203005E+02 -0.20364E+04
 0.18253004E+02 -0.20282E+04
 0.18303005E+02 -0.20245E+04
 0.18353004E+02 -0.20293E+04
 0.18403006E+02 -0.20235E+04
 0.18453005E+02 -0.20296E+04
 0.18503004E+02 -0.20272E+04
 0.18553005E+02 -0.20273E+04
 0.18603004E+02 -0.20361E+04
 0.18653006E+02 -0.20398E+04
 0.18703005E+02 -0.20550E+04
 0.18753004E+02 -0.20731E+04
 0.18803005E+02 -0.20962E+04
 0.18853004E+02 -0.21134E+04
 0.18903006E+02 -0.21266E+04
 0.18953005E+02 -0.21388E+04
 0.19003004E+02 -0.21534E+04
 0.19053005E+02 -0.21585E+04
 0.19103004E+02 -0.21583E+04
 0.19153006E+02 -0.21551E+04
 0.19203005E+02 -0.21666E+04
 0.19253004E+02 -0.21656E+04
 0.19303005E+02 -0.21552E+04
 0.19353004E+02 -0.21620E+04
 0.19403006E+02 -0.21595E+04
 0.19453005E+02 -0.21591E+04
 0.19503004E+02 -0.21442E+04
 0.19553005E+02 -0.21369E+04
 0.19603004E+02 -0.21210E+04
 0.19653006E+02 -0.21000E+04
 0.19703005E+02 -0.20823E+04
 0.19753004E+02 -0.20718E+04
 0.19803005E+02 -0.20569E+04
 0.19853004E+02 -0.20489E+04
 0.19903006E+02 -0.20574E+04
 0.19953005E+02 -0.20595E+04
 0.20003004E+02 -0.20621E+04
 0.20053005E+02 -0.20645E+04
 0.20103004E+02 -0.20696E+04
 0.20153006E+02 -0.20672E+04
 0.20203005E+02 -0.20714E+04
 0.20253004E+02 -0.20793E+04
 0.20303005E+02 -0.20828E+04
 0.20353004E+02 -0.20933E+04
 0.20403004E+02 -0.21026E+04
 0.20453005E+02 -0.21137E+04
 0.20503004E+02 -0.21186E+04
 0.20553005E+02 -0.21179E+04
 0.20603004E+02 -0.21100E+04
 0.20653004E+02 -0.21136E+04
 0.20703005E+02 -0.21127E+04
 0.20753004E+02 -0.20997E+04
 0.20803005E+02 -0.20948E+04
 0.20853004E+02 -0.20775E+04
 0.20903004E+02 -0.20746E+04
 0.20953005E+02 -0.20763E+04
 0.21003004E+02 -0.20790E+04
 0.21053005E+02 -0.20874E+04
 0.21103004E+02 -0.20959E+04
 0.21153004E+02 -0.21061E+04
 0.21203005E+02 -0.21254E+04
 0.21253004E+02 -0.21370E+04
 0.21303005E+02 -0.21480E+04
 0.21353004E+02 -0.21507E+04
 0.21403004E+02 -0.21505E+04
 0.21453005E+02 -0.21491E+04
 0.21503004E+02 -0.21298E+04
 0.21553005E+02 -0.21228E+04
 0.21603004E+02 -0.20959E+04
 0.21653004E+02 -0.20769E+04
 0.21703005E+02 -0.20479E+04
 0.21753004E+02 -0.20292E+04
 0.21803005E+02 -0.20157E+04
 0.21853004E+02 -0.19955E+04
 0.21903004E+02 -0.19920E+04
 0.21953005E+02 -0.19816E+04
 0.22003004E+02 -0.19908E+04
 0.22053005E+02 -0.19900E+04
 0.22103004E+02 -0.20004E+04
 0.22153004E+02 -0.20183E+04
 0.22203005E+02 -0.20249E+04
 0.22253004E+02 -0.20441E+04
 0.22303005E+02 -0.20591E+04
 0.22353004E+02 -0.20666E+04
 0.22403004E+02 -0.20772E+04
 0.22453005E+02 -0.20750E+04
 0.22503004E+02 -0.20831E+04
 0.22553005E+02 -0.20891E+04
 0.22603004E+02 -0.20818E+04
 0.22653004E+02 -0.20777E+04
 0.22703005E+02 -0.20731E+04
 0.22753004E+02 -0.20673E+04
 0.22803005E+02 -0.20582E+04
 0.22853004E+02 -0.20562E+04
 0.22903004E+02 -0.20609E+04
 0.22953005E+02 -0.20602E+04
 0.23003004E+02 -0.20578E+04
 0.23053005E+02 -0.20684E+04
 0.23103004E+02 -0.20656E+04
 0.23153004E+02 -0.20714E+04
 0.23203005E+02 -0.20708E+04
 0.23253004E+02 -0.20840E+04
 0.23303005E+02 -0.20794E+04
 0.23353004E+02 -0.20831E+04
 0.23403004E+02 -0.20968E+04
 0.23453005E+02 -0.20895E+04
 0.23503004E+02 -0.20880E+04
 0.23553005E+02 -0.20926E+04
 0.23603004E+02 -0.21061E+04
 0.23653004E+02 -0.21195E+04
 0.23703005E+02 -0.21355E+04
 0.23753004E+02 -0.21170E+04
 0.23803005E+02 -0.21170E+04
 0.23853004E+02 -0.20573E+04
 0.23903004E+02 -0.20504E+04
 0.23953005E+02 -0.20236E+04
 0.24003004E+02 -0.21302E+04
 0.24053005E+02 -0.22777E+04
 0.24103004E+02 -0.25000E+04
 0.24153004E+02 -0.23881E+04
 0.24203005E+02 -0.20437E+04
 0.24253004E+02 -0.17517E+04
 0.24303005E+02 -0.20171E+04
 0.24353004E+02 -0.22459E+04
 0.24403004E+02 -0.20668E+04
 0.24453005E+02 -0.24368E+04
 0.24503004E+02 -0.25621E+04
 0.24553005E+02 -0.21996E+04
 0.24603004E+02 -0.18783E+04
 0.24653004E+02 -0.24038E+04
 0.24703005E+02 -0.28028E+04
 0.24753004E+02 -0.29811E+04
 0.24803005E+02 -0.13535E+04
 0.24853004E+02 -0.29993E+03
 0.24903004E+02 -0.86458E+03
 0.24953005E+02 -0.40324E+03
 0.25003004E+02 -0.14517E+04
 0.25053005E+02 -0.32235E+04
 0.25103004E+02 -0.23196E+04
 0.25153004E+02 -0.22140E+04
 0.25203005E+02 -0.23045E+04
 0.25253004E+02 -0.76127E+03
 0.25303005E+02 -0.19186E+04
 0.25353004E+02 -0.15831E+04
 0.25403004E+02 -0.37129E+04
 0.25453005E+02 -0.37446E+04
 0.25503004E+02 -0.16996E+04
 0.25553005E+02 -0.41324E+04
 0.25603004E+02 -0.11997E+04
 0.25653004E+02 -0.10511E+04
 0.25703005E+02 -0.80499E+03
 0.25753004E+02 -0.22429E+04
 0.25803005E+02 -0.14843E+04
 0.25853004E+02 -0.13438E+04
 0.25903004E+02 -0.33758E+04
 0.25953005E+02 -0.97745E+03
 0.26003004E+02 -0.47444E+04
 0.26053005E+02 -0.41886E+04
 0.26103004E+02 -0.53169E+04
 0.26153004E+02 -0.21940E+04
 0.26203005E+02  0.13535E+04
 0.26253004E+02 -0.47855E+03
 0.26303005E+02 -0.15825E+04
 0.26353004E+02 -0.28708E+04
 0.26403004E+02 -0.23494E+04
 0.26453005E+02 -0.32994E+04
 0.26503004E+02 -0.31941E+04
 0.26553005E+02  0.89604E+03
 0.26603004E+02 -0.30327E+04
 0.26653004E+02 -0.24017E+04
 0.26703005E+02 -0.96515E+03
 0.26753004E+02 -0.89653E+03
 0.26803005E+02  0.76871E+03
 0.26853004E+02 -0.37618E+04
 0.26903004E+02  0.26035E+04
 0.26953005E+02 -0.83666E+04
 0.27003004E+02 -0.39526E+04
 0.27053003E+02  0.12535E+04
 0.27103004E+02 -0.54400E+04
 0.27153004E+02 -0.17557E+03
 0.27203005E+02 -0.45346E+04
 0.27253004E+02  0.16492E+04
 0.27303003E+02 -0.29971E+04
 0.27353004E+02 -0.42780E+04
 0.27403004E+02 -0.39686E+04
 0.27453005E+02 -0.12208E+04
 0.27503004E+02  0.15218E+04
 0.27553003E+02 -0.88182E+03
 0.27603004E+02  0.85239E+03
 0.27653004E+02 -0.22364E+04
 0.27703005E+02 -0.22145E+04
 0.27753004E+02 -0.49455E+04
 0.27803003E+02  0.69001E+03
 0.27853004E+02 -0.47126E+04
 0.27903004E+02 -0.28145E+04
 0.27953005E+02 -0.28407E+04
 0.28003004E+02 -0.47619E+04
 0.28053003E+02 -0.90209E+03
 0.28103004E+02 -0.22282E+04
 0.28153004E+02 -0.32492E+04
 0.28203005E+02 -0.49387E+04
 0.28253004E+02  0.34415E+03
 0.28303003E+02 -0.83396E+03
 0.28353004E+02  0.76767E+02
 0.28403004E+02  0.80403E+03
 0.28453005E+02 -0.37439E+04
 0.28503004E+02 -0.38643E+04
 0.28553003E+02 -0.10974E+04
 0.28603004E+02 -0.39540E+04
 0.28653004E+02 -0.85082E+03
 0.28703005E+02  0.42809E+03
 0.28753004E+02 -0.88083E+03
 0.28803003E+02 -0.45980E+04
 0.28853004E+02 -0.60340E+04
 0.28903004E+02 -0.30928E+04
 0.28953005E+02 -0.23808E+04
 0.29003004E+02 -0.82620E+03
 0.29053003E+02 -0.32788E+04
 0.29103004E+02 -0.18241E+04
 0.29153004E+02 -0.22909E+03
 0.29203005E+02  0.35873E+03
 0.29253004E+02 -0.41594E+04
 0.29303003E+02 -0.37570E+03
 0.29353004E+02  0.84929E+03
 0.29403004E+02  0.10952E+04
 0.29453005E+02 -0.85209E+03
 0.29503004E+02 -0.53159E+04
 0.29553003E+02  0.12095E+04
 0.29603004E+02 -0.30233E+04
 0.29653004E+02 -0.75237E+04
 0.29703005E+02 -0.21151E+04
 0.29753004E+02 -0.17432E+04
 0.29803003E+02 -0.31594E+04
 0.29853004E+02  0.10848E+04
 0.29903004E+02 -0.49238E+04
 0.29953005E+02 -0.57267E+04
 0.30003004E+02 -0.32781E+04
 0.30053005E+02 -0.41262E+04
 0.30103004E+02 -0.30730E+04
 0.30153004E+02 -0.22188E+03
 0.30203003E+02  0.35501E+04
 0.30253002E+02 -0.26786E+04
 0.30303005E+02 -0.15302E+04
 0.30353004E+02 -0.25524E+04
 0.30403004E+02 -0.48510E+04
 0.30453003E+02 -0.33337E+04
 0.30503002E+02 -0.61699E+04
 0.30553005E+02 -0.18191E+04
 0.30603004E+02 -0.27841E+03
 0.30653004E+02  0.15927E+04
 0.30703003E+02  0.62987E+03
 0.30753002E+02 -0.92246E+03
 0.30803005E+02 -0.23501E+04
 0.30853004E+02 -0.28260E+04
 0.30903004E+02 -0.20683E+04
 0.30953003E+02 -0.62742E+04
 0.31003002E+02 -0.38461E+04
 0.31053005E+02 -0.13173E+03
 0.31103004E+02  0.18160E+04
 0.31153004E+02 -0.43410E+04
 0.31203003E+02 -0.32170E+04
 0.31253002E+02  0.15695E+04
 0.31303005E+02 -0.16481E+04
 0.31353004E+02  0.15188E+04
 0.31403004E+02 -0.19309E+04
 0.31453003E+02 -0.25440E+04
 0.31503002E+02 -0.16342E+04
 0.31553005E+02 -0.38355E+04
 0.31603004E+02 -0.31561E+04
 0.31653004E+02 -0.56192E+04
 0.31703003E+02 -0.15046E+04
 0.31753002E+02  0.15335E+03
 0.31803005E+02 -0.54781E+03
 0.31853004E+02  0.16789E+04
 0.31903004E+02 -0.29654E+04
 0.31953003E+02 -0.59176E+04
 0.32003002E+02 -0.21556E+04
 0.32053005E+02 -0.29087E+04
 0.32103004E+02 -0.35101E+04
 0.32153004E+02 -0.25747E+04
 0.32203003E+02 -0.42461E+04
 0.32253002E+02 -0.15623E+03
 0.32303005E+02  0.58777E+03
 0.32353004E+02 -0.36720E+04
 0.32403004E+02 -0.24197E+04
 0.32453003E+02 -0.39457E+04
 0.32503002E+02 -0.38714E+04
 0.32553005E+02 -0.35570E+03
 0.32603004E+02 -0.24368E+04
 0.32653004E+02 -0.57196E+03
 0.32703003E+02 -0.18217E+04
 0.32753002E+02 -0.30298E+04
 0.32803005E+02 -0.21153E+04
 0.32853004E+02  0.48652E+03
 0.32903004E+02  0.15899E+04
 0.32953003E+02 -0.37665E+04
 0.33003002E+02 -0.43228E+04
 0.33053005E+02 -0.34410E+04
 0.33103004E+02 -0.20054E+04
 0.33153004E+02 -0.30290E+03
 0.33203003E+02 -0.24353E+04
 0.33253002E+02 -0.36333E+04
 0.33303005E+02 -0.25168E+04
 0.33353004E+02 -0.40846E+04
 0.33403004E+02 -0.29928E+04
 0.33453003E+02  0.17004E+03
 0.33503002E+02 -0.16668E+03
 0.33553005E+02 -0.32968E+04
 0.33603004E+02 -0.26055E+04
 0.33653004E+02 -0.22340E+04
 0.33703003E+02 -0.23807E+04
 0.33753002E+02 -0.29999E+04
 0.33803005E+02 -0.30026E+04
 0.33853004E+02 -0.25563E+04
 0.33903004E+02 -0.39935E+04
 0.33953003E+02  0.95188E+03
 0.34003002E+02 -0.92444E+03
 0.34053005E+02 -0.21759E+04
 0.34103004E+02 -0.44694E+02
 0.34153004E+02 -0.51651E+03
 0.34203003E+02 -0.24085E+03
 0.34253002E+02 -0.30641E+04
 0.34303005E+02 -0.18359E+04
 0.34353004E+02 -0.12999E+03
 0.34403004E+02 -0.45303E+03
 0.34453003E+02 -0.40726E+04
 0.34503002E+02 -0.67564E+04
 0.34553005E+02 -0.47407E+04
 0.34603004E+02 -0.52082E+04
 0.34653004E+02 -0.42809E+04
 0.34703003E+02 -0.34632E+03
 0.34753002E+02  0.22001E+04
 0.34803005E+02  0.17940E+04
 0.34853004E+02  0.10844E+04
 0.34903004E+02  0.44401E+03
 0.34953003E+02 -0.21215E+04
 0.35003002E+02 -0.13437E+04
 0.35053005E+02 -0.28650E+04
 0.35103004E+02 -0.26285E+04
 0.35153004E+02 -0.30500E+04
 0.35203003E+02 -0.51298E+04
 0.35253002E+02 -0.42366E+04
 0.35303005E+02 -0.35706E+04
 0.35353004E+02 -0.11054E+04
 0.35403004E+02 -0.38046E+03
 0.35453003E+02 -0.10922E+04
 0.35503002E+02 -0.18775E+04
 0.35553005E+02 -0.24907E+04
 0.35603004E+02 -0.43740E+04
 0.35653004E+02 -0.40747E+04
 0.35703003E+02 -0.25788E+04
 0.35753002E+02 -0.26305E+04
 0.35803005E+02 -0.85115E+03
 0.35853004E+02 -0.68384E+03
 0.35903004E+02 -0.37727E+04
 0.35953003E+02 -0.35448E+04
 0.36003002E+02 -0.21537E+04
 0.36053005E+02 -0.20870E+03
 0.36103004E+02 -0.78749E+03
 0.36153004E+02 -0.10276E+04
 0.36203003E+02 -0.13843E+04
 0.36253002E+02 -0.26733E+04
 0.36303005E+02 -0.20238E+04
 0.36353004E+02 -0.14715E+04
 0.36403004E+02 -0.12465E+04
 0.36453003E+02 -0.35449E+04
 0.36503002E+02 -0.46458E+04
 0.36553005E+02 -0.40202E+04
 0.36603004E+02 -0.31620E+04
 0.36653004E+02 -0.33279E+04
 0.36703003E+02 -0.17643E+04
 0.36753002E+02 -0.23307E+03
 0.36803005E+02  0.17411E+04
 0.36853004E+02 -0.19124E+04
 0.36903004E+02 -0.47895E+04
 0.36953003E+02 -0.13594E+04
 0.37003002E+02 -0.36456E+04
 0.37053005E+02 -0.21520E+04
 0.37103004E+02 -0.13677E+04
 0.37153004E+02 -0.12315E+04
 0.37203003E+02  0.12828E+04
 0.37253002E+02 -0.11453E+04
 0.37303005E+02 -0.32746E+04
 0.37353004E+02 -0.19325E+04
 0.37403004E+02  0.75157E+03
 0.37453003E+02  0.28001E+03
 0.37503002E+02 -0.17776E+04
 0.37553005E+02 -0.35226E+04
 0.37603004E+02 -0.32162E+04
 0.37653004E+02 -0.35758E+04
 0.37703003E+02 -0.39170E+04
 0.37753002E+02  0.10487E+01
 0.37803005E+02 -0.13074E+04
 0.37853004E+02 -0.37402E+04
 0.37903004E+02 -0.36416E+04
 0.37953003E+02 -0.34357E+04
 0.38003002E+02 -0.37499E+04
 0.38053005E+02 -0.32481E+04
 0.38103004E+02 -0.23163E+03
 0.38153004E+02  0.45049E+03
 0.38203003E+02  0.17969E+03
 0.38253002E+02 -0.26729E+04
 0.38303005E+02 -0.23465E+04
 0.38353004E+02 -0.18627E+04
 0.38403004E+02 -0.10490E+04
 0.38453003E+02 -0.24733E+04
 0.38503002E+02 -0.40406E+04
 0.38553005E+02 -0.34951E+04
 0.38603004E+02 -0.38443E+04
 0.38653004E+02 -0.25269E+04
 0.38703003E+02 -0.26073E+04
 0.38753002E+02 -0.12676E+04
 0.38803005E+02 -0.60974E+03
 0.38853004E+02  0.28668E+03
 0.38903004E+02 -0.69160E+03
 0.38953003E+02 -0.31876E+04
 0.39003002E+02 -0.61684E+04
 0.39053005E+02 -0.39409E+04
 0.39103004E+02 -0.21165E+03
 0.39153004E+02  0.54380E+03
 0.39203003E+02 -0.10589E+04
 0.39253002E+02 -0.11670E+04
 0.39303005E+02 -0.12512E+04
 0.39353004E+02 -0.43398E+04
 0.39403004E+02 -0.33386E+04
 0.39453003E+02 -0.32357E+04
 0.39503002E+02 -0.12498E+04
 0.39553005E+02 -0.24585E+04
 0.39603004E+02 -0.34496E+04
 0.39653004E+02  0.11008E+04
 0.39703003E+02  0.44679E+03
 0.39753002E+02 -0.11996E+04
 0.39803005E+02 -0.29230E+04
 0.39853004E+02 -0.44269E+04
 0.39903004E+02 -0.44900E+04
 0.39953003E+02 -0.33460E+04
 0.40003002E+02 -0.18119E+04
 0.40053005E+02 -0.10954E+03
 0.40103004E+02 -0.14329E+04
 0.40153004E+02 -0.10993E+04
 0.40203003E+02  0.11548E+03
 0.40253002E+02 -0.22555E+04
 0.40303005E+02 -0.20449E+04
 0.40353004E+02 -0.39756E+04
 0.40403004E+02 -0.46094E+04
 0.40453003E+02 -0.31099E+04
 0.40503002E+02 -0.22604E+04
 0.40553005E+02 -0.21496E+04
 0.40603004E+02 -0.49868E+02
 0.40653004E+02 -0.29807E+04
 0.40703003E+02 -0.42666E+04
 0.40753002E+02 -0.49365E+04
 0.40803005E+02 -0.42003E+04
 0.40853004E+02  0.10784E+04
 0.40903004E+02 -0.18500E+04
 0.40953003E+02 -0.22190E+04
 0.41003002E+02 -0.44361E+03
 0.41053005E+02 -0.90258E+03
 0.41103004E+02 -0.36048E+04
 0.41153004E+02 -0.20598E+04
 0.41203003E+02 -0.27451E+03
 0.41253002E+02  0.16698E+04
 0.41303005E+02  0.13471E+04
 0.41353004E+02 -0.39296E+04
 0.41403004E+02 -0.43327E+04
 0.41453003E+02 -0.40743E+04
 0.41503002E+02 -0.21843E+04
 0.41553005E+02  0.25093E+03
 0.41603004E+02 -0.67865E+03
 0.41653004E+02 -0.55311E+04
 0.41703003E+02 -0.49279E+04
 0.41753002E+02 -0.31867E+04
 0.41803005E+02 -0.42697E+03
 0.41853004E+02  0.13847E+04
 0.41903004E+02 -0.42847E+04
 0.41953003E+02 -0.64888E+04
 0.42003002E+02 -0.49680E+04
 0.42053005E+02 -0.28142E+04
 0.42103004E+02 -0.71356E+03
 0.42153004E+02 -0.41279E+03
 0.42203003E+02 -0.12890E+04
 0.42253002E+02  0.16968E+04
 0.42303005E+02  0.83942E+03
 0.42353004E+02 -0.19917E+04
 0.42403004E+02 -0.23995E+04
 0.42453003E+02 -0.15523E+04
 0.42503002E+02 -0.15437E+04
 0.42553005E+02 -0.24582E+04
 0.42603004E+02 -0.10717E+04
 0.42653004E+02 -0.57529E+04
 0.42703003E+02 -0.63250E+04
 0.42753002E+02 -0.16002E+04
 0.42803001E+02 -0.17520E+03
 0.42853004E+02 -0.37623E+04
 0.42903004E+02 -0.53836E+04
 0.42953003E+02 -0.47009E+03
 0.43003002E+02 -0.32508E+03
 0.43053001E+02  0.99931E+03
 0.43103004E+02  0.16045E+04
 0.43153004E+02  0.29641E+04
 0.43203003E+02  0.92389E+03
 0.43253002E+02 -0.49830E+04
 0.43303001E+02 -0.27615E+04
 0.43353004E+02 -0.11812E+04
 0.43403004E+02 -0.16939E+04
 0.43453003E+02 -0.57600E+04
 0.43503002E+02 -0.70682E+04
 0.43553001E+02 -0.55727E+04
 0.43603004E+02 -0.44971E+04
 0.43653004E+02  0.21411E+04
 0.43703003E+02  0.28819E+04
 0.43753002E+02  0.26506E+03
 0.43803001E+02 -0.39122E+04
 0.43853004E+02 -0.22720E+04
 0.43903004E+02 -0.14949E+04
 0.43953003E+02 -0.72279E+04
 0.44003002E+02 -0.46475E+04
 0.44053001E+02 -0.25465E+04
 0.44103004E+02  0.34400E+04
 0.44153004E+02  0.20484E+03
 0.44203003E+02 -0.89873E+04
 0.44253002E+02 -0.50928E+04
 0.44303001E+02 -0.67835E+03
 0.44353004E+02 -0.15654E+04
 0.44403004E+02 -0.48125E+03
 0.44453003E+02  0.26676E+03
 0.44503002E+02 -0.10131E+04
 0.44553001E+02  0.11548E+04
 0.44603004E+02  0.69976E+04
 0.44653004E+02 -0.78570E+03
 0.44703003E+02 -0.84382E+04
 0.44753002E+02 -0.46686E+04
 0.44803001E+02 -0.61285E+04
 0.44853004E+02 -0.32774E+04
 0.44903004E+02 -0.12711E+04
 0.44953003E+02  0.33590E+04
 0.45003002E+02  0.10125E+04
 0.45053001E+02 -0.34331E+04
 0.45103004E+02 -0.85486E+04
 0.45153004E+02 -0.91592E+04
 0.45203003E+02  0.27135E+04
 0.45253002E+02  0.29425E+04
 0.45303001E+02  0.22409E+04
 0.45353004E+02  0.34796E+03
 0.45403004E+02 -0.38851E+04
 0.45453003E+02  0.11530E+03
 0.45503002E+02 -0.24179E+04
 0.45553001E+02 -0.75291E+04
 0.45603004E+02 -0.90902E+04
 0.45653004E+02 -0.37555E+04
 0.45703003E+02  0.35247E+04
 0.45753002E+02 -0.17501E+04
 0.45803001E+02 -0.15925E+04
 0.45853004E+02 -0.66711E+03
 0.45903004E+02 -0.30144E+04
 0.45953003E+02 -0.35893E+04
 0.46003002E+02 -0.68656E+04
 0.46053001E+02 -0.56431E+04
 0.46103004E+02  0.49546E+04
 0.46153004E+02  0.34842E+04
 0.46203003E+02 -0.12503E+03
 0.46253002E+02 -0.42038E+02
 0.46303001E+02 -0.31825E+04
 0.46353004E+02 -0.35703E+04
 0.46403004E+02 -0.60616E+04
 0.46453003E+02 -0.59595E+04
 0.46503002E+02 -0.82944E+04
 0.46553001E+02 -0.27456E+04
 0.46603004E+02  0.39583E+04
 0.46653004E+02  0.97285E+03
 0.46703003E+02 -0.24586E+04
 0.46753002E+02 -0.58427E+04
 0.46803001E+02 -0.47805E+04
 0.46853004E+02 -0.14239E+04
 0.46903004E+02 -0.17141E+04
 0.46953003E+02 -0.18708E+04
 0.47003002E+02 -0.19209E+04
 0.47053001E+02 -0.29453E+04
 0.47103004E+02 -0.55570E+04
 0.47153004E+02 -0.68582E+04
 0.47203003E+02 -0.28253E+04
 0.47253002E+02  0.36195E+04
 0.47303001E+02  0.36791E+02
 0.47353004E+02 -0.55975E+04
 0.47403004E+02 -0.45590E+04
 0.47453003E+02 -0.38447E+04
 0.47503002E+02  0.25692E+03
 0.47553001E+02  0.34365E+04
 0.47603004E+02  0.25518E+04
 0.47653004E+02  0.54157E+03
 0.47703003E+02 -0.11349E+04
 0.47753002E+02 -0.30658E+04
 0.47803001E+02 -0.57054E+04
 0.47853004E+02 -0.54165E+04
 0.47903004E+02 -0.20708E+04
 0.47953003E+02  0.31760E+04
 0.48003002E+02  0.31270E+04
 0.48053001E+02 -0.22179E+04
 0.48103004E+02 -0.98021E+04
 0.48153004E+02 -0.91265E+04
 0.48203003E+02  0.62891E+01
 0.48253002E+02  0.17280E+04
 0.48303001E+02  0.23501E+03
 0.48353004E+02 -0.11450E+04
 0.48403004E+02  0.34637E+04
 0.48453003E+02  0.41250E+04
 0.48503002E+02 -0.36285E+04
 0.48553001E+02 -0.62548E+04
 0.48603004E+02 -0.47527E+04
 0.48653004E+02 -0.44727E+04
 0.48703003E+02 -0.56754E+04
 0.48753002E+02 -0.73566E+04
 0.48803001E+02 -0.31595E+04
 0.48853004E+02  0.16537E+04
 0.48903004E+02  0.38498E+04
 0.48953003E+02  0.13997E+04
 0.49003002E+02 -0.26832E+04
 0.49053001E+02 -0.28700E+04
 0.49103004E+02 -0.19036E+04
 0.49153004E+02  0.12378E+04
 0.49203003E+02 -0.15900E+04
 0.49253002E+02 -0.67257E+04
 0.49303001E+02 -0.44321E+04
 0.49353004E+02  0.25442E+04
 0.49403004E+02 -0.27719E+03
 0.49453003E+02 -0.59990E+04
 0.49503002E+02 -0.74395E+04
 0.49553001E+02 -0.63134E+04
 0.49603004E+02 -0.32928E+04
 0.49653004E+02 -0.37647E+04
 0.49703003E+02 -0.84932E+03
 0.49753002E+02  0.37955E+04
 0.49803001E+02  0.73331E+04
 0.49853004E+02  0.82303E+04
 0.49903004E+02  0.38636E+04
 0.49953003E+02 -0.17481E+04
 0.50003002E+02 -0.46505E+04
 0.50053001E+02 -0.71964E+04
 0.50103004E+02 -0.10137E+05
 0.50153004E+02 -0.52396E+04
 0.50203003E+02 -0.35121E+04
 0.50253002E+02 -0.86001E+03
 0.50303001E+02  0.30189E+04
 0.50353004E+02 -0.21161E+04
 0.50403004E+02 -0.54194E+04
 0.50453003E+02 -0.53567E+04
 0.50503002E+02 -0.56428E+04
 0.50553001E+02 -0.52631E+04
 0.50603004E+02 -0.71929E+03
 0.50653004E+02  0.25323E+04
 0.50703003E+02  0.32447E+04
 0.50753002E+02 -0.13632E+04
 0.50803001E+02 -0.59118E+04
 0.50853004E+02 -0.87209E+04
 0.50903004E+02 -0.69473E+04
 0.50953003E+02 -0.17517E+04
 0.51003002E+02 -0.55339E+03
 0.51053001E+02  0.36830E+03
 0.51103004E+02 -0.49193E+04
 0.51153004E+02 -0.96125E+04
 0.51203003E+02 -0.67538E+04
 0.51253002E+02 -0.14447E+04
 0.51303001E+02  0.40495E+04
 0.51353004E+02  0.47738E+04
 0.51403004E+02  0.22459E+04
 0.51453003E+02 -0.75474E+02
 0.51503002E+02 -0.26375E+04
 0.51553001E+02 -0.57619E+04
 0.51603004E+02 -0.46943E+04
 0.51653004E+02 -0.15890E+04
 0.51703003E+02 -0.16591E+04
 0.51753002E+02  0.10308E+04
 0.51803001E+02  0.90818E+03
 0.51853004E+02 -0.17642E+03
 0.51903004E+02 -0.31677E+04
 0.51953003E+02 -0.72209E+04
 0.52003002E+02 -0.70632E+04
 0.52053001E+02 -0.31479E+04
 0.52103004E+02  0.26192E+04
 0.52153004E+02  0.11303E+04
 0.52203003E+02 -0.22434E+04
 0.52253002E+02 -0.20064E+04
 0.52303001E+02 -0.15759E+03
 0.52353004E+02  0.96398E+03
 0.52403004E+02 -0.18832E+04
 0.52453003E+02 -0.26752E+04
 0.52503002E+02 -0.47236E+04
 0.52553001E+02 -0.40440E+04
 0.52603004E+02 -0.27496E+04
 0.52653004E+02 -0.64497E+04
 0.52703003E+02 -0.76744E+04
 0.52753002E+02 -0.60276E+04
 0.52803001E+02 -0.19513E+04
 0.52853004E+02 -0.20202E+04
 0.52903004E+02 -0.19021E+04
 0.52953003E+02  0.29273E+04
 0.53003002E+02  0.61106E+04
 0.53053001E+02  0.42316E+04
 0.53103004E+02 -0.85745E+03
 0.53153004E+02 -0.55418E+04
 0.53203003E+02 -0.84561E+04
 0.53253002E+02 -0.78353E+04
 0.53303001E+02 -0.38192E+04
 0.53353004E+02 -0.22135E+04
 0.53403004E+02  0.97192E+03
 0.53453003E+02  0.47317E+04
 0.53503002E+02  0.28908E+04
 0.53553001E+02 -0.57692E+03
 0.53603004E+02 -0.70430E+03
 0.53653004E+02  0.14576E+04
 0.53703003E+02 -0.17959E+04
 0.53753002E+02 -0.67638E+04
 0.53803001E+02 -0.83560E+04
 0.53853004E+02 -0.58339E+04
 0.53903004E+02 -0.12907E+04
 0.53953003E+02  0.12446E+04
 0.54003002E+02  0.20242E+04
 0.54053001E+02  0.17149E+04
 0.54103004E+02 -0.63507E+03
 0.54153004E+02 -0.43422E+04
 0.54203003E+02 -0.70327E+04
 0.54253002E+02 -0.86882E+04
 0.54303001E+02 -0.62834E+04
 0.54353004E+02 -0.19654E+04
 0.54403004E+02 -0.14318E+04
 0.54453003E+02 -0.98764E+03
 0.54503002E+02  0.37670E+03
 0.54553001E+02 -0.42370E+03
 0.54603004E+02 -0.19131E+04
 0.54653004E+02 -0.29355E+04
 0.54703003E+02 -0.37850E+04
 0.54753002E+02 -0.13588E+04
 0.54803001E+02 -0.77441E+03
 0.54853004E+02 -0.34680E+04
 0.54903004E+02 -0.42458E+04
 0.54953003E+02 -0.29237E+04
 0.55003002E+02 -0.25788E+04
 0.55053001E+02 -0.33466E+04
 0.55103004E+02 -0.14078E+04
 0.55153004E+02 -0.20986E+04
 0.55203003E+02  0.65108E+03
 0.55253002E+02  0.39945E+04
 0.55303001E+02  0.35024E+04
 0.55353004E+02  0.32103E+04
 0.55403004E+02  0.28781E+03
 0.55453003E+02 -0.37478E+04
 0.55503002E+02 -0.71844E+04
 0.55553001E+02 -0.69079E+04
 0.55603004E+02 -0.64334E+04
 0.55653004E+02 -0.71341E+04
 0.55703003E+02 -0.38125E+04
 0.55753002E+02  0.15206E+04
 0.55803001E+02  0.36277E+04
 0.55853001E+02  0.29227E+04
 0.55903004E+02 -0.13615E+03
 0.55953003E+02 -0.37525E+04
 0.56003002E+02 -0.57563E+04
 0.56053001E+02 -0.77365E+04
 0.56103001E+02 -0.63767E+04
 0.56153004E+02 -0.11946E+04
 0.56203003E+02  0.23143E+04
 0.56253002E+02  0.50578E+03
 0.56303001E+02 -0.33021E+04
 0.56353001E+02 -0.27683E+04
 0.56403004E+02 -0.18993E+04
 0.56453003E+02 -0.29977E+04
 0.56503002E+02 -0.39415E+04
 0.56553001E+02 -0.47805E+04
 0.56603001E+02 -0.50251E+04
 0.56653004E+02 -0.30204E+04
 0.56703003E+02  0.96779E+03
 0.56753002E+02  0.18161E+04
 0.56803001E+02 -0.30018E+03
 0.56853001E+02 -0.23434E+04
 0.56903004E+02 -0.12885E+04
 0.56953003E+02 -0.28252E+04
 0.57003002E+02 -0.40249E+04
 0.57053001E+02 -0.73215E+03
 0.57103001E+02  0.34308E+02
 0.57153004E+02  0.66764E+02
 0.57203003E+02  0.77934E+03
 0.57253002E+02 -0.51278E+03
 0.57303001E+02 -0.30409E+04
 0.57353001E+02 -0.29536E+04
 0.57403004E+02 -0.33149E+04
 0.57453003E+02 -0.41409E+04
 0.57503002E+02 -0.32469E+04
 0.57553001E+02 -0.64282E+03
 0.57603001E+02 -0.70913E+02
 0.57653004E+02 -0.22675E+04
 0.57703003E+02 -0.50895E+04
 0.57753002E+02 -0.52065E+04
 0.57803001E+02 -0.33928E+04
 0.57853001E+02 -0.25551E+04
 0.57903004E+02 -0.15545E+04
 0.57953003E+02 -0.17045E+04
 0.58003002E+02 -0.10786E+04
 0.58053001E+02 -0.11790E+04
 0.58103001E+02 -0.12261E+04
 0.58153004E+02 -0.25884E+04
 0.58203003E+02 -0.20931E+04
 0.58253002E+02  0.15959E+04
 0.58303001E+02  0.10107E+04
 0.58353001E+02 -0.96870E+03
 0.58403004E+02 -0.23162E+04
 0.58453003E+02 -0.31373E+04
 0.58503002E+02 -0.14314E+04
 0.58553001E+02 -0.14740E+04
 0.58603001E+02 -0.30771E+04
 0.58653004E+02 -0.37373E+04
 0.58703003E+02 -0.28797E+04
 0.58753002E+02 -0.15734E+04
 0.58803001E+02 -0.24564E+04
 0.58853001E+02 -0.30442E+04
 0.58903004E+02 -0.23525E+04
 0.58953003E+02 -0.64008E+03
 0.59003002E+02  0.13728E+04
 0.59053001E+02  0.75227E+03
 0.59103001E+02 -0.21379E+04
 0.59153004E+02 -0.55767E+04
 0.59203003E+02 -0.67761E+04
 0.59253002E+02 -0.49821E+04
 0.59303001E+02 -0.23619E+04
 0.59353001E+02 -0.10182E+04
 0.59403004E+02 -0.55395E+03
 0.59453003E+02  0.16648E+04
 0.59503002E+02  0.24920E+04
 0.59553001E+02  0.11614E+04
 0.59603001E+02 -0.45425E+03
 0.59653004E+02 -0.12421E+04
 0.59703003E+02 -0.20171E+04
 0.59753002E+02 -0.35990E+04
 0.59803001E+02 -0.32681E+04
 0.59853001E+02 -0.27025E+04
 0.59903004E+02 -0.26345E+04
 0.59953003E+02 -0.26902E+04
 0.60003002E+02 -0.36802E+04
 0.60053001E+02 -0.39904E+04
 0.60103001E+02 -0.29753E+04
 0.60153004E+02 -0.11979E+04
 0.60203003E+02 -0.41267E+03
 0.60253002E+02 -0.92838E+03
 0.60303001E+02 -0.28939E+04
 0.60353001E+02 -0.49744E+04
 0.60403004E+02 -0.59210E+04
 0.60453003E+02 -0.30789E+04
 0.60503002E+02 -0.93137E+03
 0.60553001E+02 -0.59200E+03
 0.60603001E+02 -0.17120E+03
 0.60653004E+02 -0.12917E+04
 0.60703003E+02 -0.67641E+03
 0.60753002E+02 -0.25187E+04
 0.60803001E+02 -0.37650E+04
 0.60853001E+02 -0.27549E+04
 0.60903004E+02 -0.27686E+04
 0.60953003E+02 -0.20633E+04
 0.61003002E+02 -0.25980E+04
 0.61053001E+02 -0.45466E+04
 0.61103001E+02 -0.54138E+04
 0.61153004E+02 -0.42426E+04
 0.61203003E+02 -0.25735E+04
 0.61253002E+02 -0.15009E+04
 0.61303001E+02 -0.12405E+04
 0.61353001E+02 -0.22028E+04
 0.61403004E+02 -0.18680E+04
 0.61453003E+02 -0.18340E+04
 0.61503002E+02 -0.18746E+04
 0.61553001E+02 -0.24236E+04
 0.61603001E+02 -0.37801E+04
 0.61653004E+02 -0.37510E+04
 0.61703003E+02 -0.28488E+04
 0.61753002E+02 -0.12771E+04
 0.61803001E+02 -0.21707E+04
 0.61853001E+02 -0.22026E+04
 0.61903004E+02 -0.22082E+04
 0.61953003E+02 -0.13524E+04
 0.62003002E+02 -0.14151E+04
 0.62053001E+02 -0.23550E+04
 0.62103004E+02 -0.57626E+03
 0.62153000E+02 -0.85625E+03
 0.62203003E+02 -0.16078E+04
 0.62252998E+02 -0.21158E+04
 0.62303001E+02 -0.22952E+04
 0.62353004E+02 -0.22226E+04
 0.62403000E+02 -0.21132E+04
 0.62453003E+02 -0.17082E+04
 0.62502998E+02 -0.23250E+04
 0.62553001E+02 -0.31725E+04
 0.62603004E+02 -0.25571E+04
 0.62653000E+02 -0.22679E+04
 0.62703003E+02 -0.29044E+04
 0.62752998E+02 -0.26515E+04
 0.62803001E+02 -0.22355E+04
 0.62853004E+02 -0.24818E+04
 0.62903000E+02 -0.23507E+04
 0.62953003E+02 -0.92876E+03
 0.63002998E+02 -0.30269E+03
 0.63053001E+02 -0.81390E+03
 0.63103004E+02 -0.13619E+04
 0.63153000E+02 -0.11948E+04
 0.63203003E+02 -0.41382E+02
 0.63252998E+02  0.32174E+03
 0.63303001E+02 -0.47957E+03
 0.63353004E+02 -0.11373E+04
 0.63403000E+02 -0.20842E+04
 0.63453003E+02 -0.29080E+04
 0.63502998E+02 -0.31295E+04
 0.63553001E+02 -0.37520E+04
 0.63603004E+02 -0.39480E+04
 0.63653000E+02 -0.24022E+04
 0.63703003E+02 -0.64551E+03
 0.63752998E+02 -0.14609E+04
 0.63803001E+02 -0.17129E+04
 0.63853004E+02 -0.16656E+04
 0.63903000E+02 -0.13196E+04
 0.63953003E+02  0.16681E+02
 0.64002998E+02  0.98204E+03
 0.64053001E+02  0.36803E+03
 0.64103004E+02 -0.16163E+04
 0.64153000E+02 -0.26413E+04
 0.64203003E+02 -0.34434E+04
 0.64252998E+02 -0.40848E+04
 0.64303001E+02 -0.36112E+04
 0.64353004E+02 -0.26206E+04
 0.64403000E+02 -0.28063E+04
 0.64453003E+02 -0.29452E+04
 0.64502998E+02 -0.30661E+04
 0.64553001E+02 -0.27920E+04
 0.64603004E+02 -0.21914E+04
 0.64653000E+02 -0.21263E+04
 0.64703003E+02 -0.31788E+04
 0.64752998E+02 -0.34143E+04
 0.64803001E+02 -0.27528E+04
 0.64853004E+02 -0.31860E+04
 0.64903000E+02 -0.26175E+04
 0.64953003E+02 -0.14487E+04
 0.65002998E+02 -0.30312E+03
 0.65053001E+02 -0.46731E+03
 0.65103004E+02 -0.13969E+04
 0.65153000E+02 -0.27603E+04
 0.65203003E+02 -0.43014E+04
 0.65252998E+02 -0.37975E+04
 0.65303001E+02 -0.19821E+04
 0.65353004E+02 -0.84487E+03
 0.65403000E+02 -0.13724E+04
 0.65453003E+02 -0.20952E+04
 0.65502998E+02 -0.39609E+04
 0.65553001E+02 -0.51383E+04
 0.65603004E+02 -0.52725E+04
 0.65653000E+02 -0.54770E+04
 0.65703003E+02 -0.37931E+04
 0.65752998E+02 -0.13378E+04
 0.65803001E+02  0.36949E+03
 0.65853004E+02 -0.26168E+03
 0.65903000E+02 -0.11385E+04
 0.65953003E+02 -0.18533E+04
 0.66002998E+02 -0.32259E+04
 0.66053001E+02 -0.36990E+04
 0.66103004E+02 -0.31857E+04
 0.66153000E+02 -0.19702E+04
 0.66203003E+02 -0.87584E+03
 0.66252998E+02 -0.95953E+03
 0.66303001E+02 -0.25246E+04
 0.66353004E+02 -0.26861E+04
 0.66403000E+02 -0.14860E+04
 0.66453003E+02 -0.66535E+03
 0.66502998E+02 -0.53031E+03
 0.66553001E+02 -0.86177E+03
 0.66603004E+02 -0.23344E+04
 0.66653000E+02 -0.41579E+04
 0.66703003E+02 -0.33199E+04
 0.66752998E+02 -0.21724E+04
 0.66803001E+02 -0.18225E+04
 0.66853004E+02 -0.15978E+04
 0.66903000E+02 -0.11962E+04
 0.66953003E+02 -0.38883E+03
 0.67002998E+02  0.99365E+03
 0.67053001E+02  0.18080E+04
 0.67103004E+02  0.64132E+03
 0.67153000E+02 -0.27418E+03
 0.67203003E+02 -0.14722E+04
 0.67252998E+02 -0.30240E+04
 0.67303001E+02 -0.39559E+04
 0.67353004E+02 -0.44669E+04
 0.67403000E+02 -0.36055E+04
 0.67453003E+02 -0.20178E+04
 0.67502998E+02 -0.16469E+03
 0.67553001E+02  0.42427E+02
 0.67603004E+02 -0.15258E+04
 0.67653000E+02 -0.35283E+04
 0.67703003E+02 -0.40856E+04
 0.67752998E+02 -0.25896E+04
 0.67803001E+02 -0.12869E+04
 0.67853004E+02  0.54198E+03
 0.67903000E+02  0.11700E+04
 0.67953003E+02 -0.11925E+03
 0.68002998E+02 -0.15183E+04
 0.68053001E+02 -0.25630E+04
 0.68103004E+02 -0.35638E+04
 0.68153000E+02 -0.42191E+04
 0.68203003E+02 -0.35043E+04
 0.68252998E+02 -0.24452E+04
 0.68303001E+02 -0.11878E+04
 0.68353004E+02 -0.11560E+04
 0.68403000E+02 -0.18913E+04
 0.68453003E+02 -0.22635E+04
 0.68502998E+02 -0.23376E+04
 0.68553001E+02 -0.22077E+04
 0.68603004E+02 -0.25142E+04
 0.68653000E+02 -0.19036E+04
 0.68703003E+02 -0.21941E+04
 0.68752998E+02 -0.32947E+04
 0.68803001E+02 -0.39624E+04
 0.68853004E+02 -0.42167E+04
 0.68903000E+02 -0.35277E+04
 0.68953003E+02 -0.29321E+04
 0.69002998E+02 -0.28969E+04
 0.69053001E+02 -0.29694E+04
 0.69103004E+02 -0.23862E+04
 0.69153000E+02 -0.20738E+04
 0.69203003E+02 -0.27350E+04
 0.69252998E+02 -0.33842E+04
 0.69303001E+02 -0.35415E+04
 0.69353004E+02 -0.21657E+04
 0.69403000E+02 -0.61792E+03
 0.69453003E+02 -0.65629E+02
 0.69502998E+02 -0.19650E+03
 0.69553001E+02 -0.15497E+04
 0.69603004E+02 -0.32987E+04
 0.69653000E+02 -0.39016E+04
 0.69703003E+02 -0.33917E+04
 0.69752998E+02 -0.20636E+04
 0.69803001E+02 -0.87486E+03
 0.69853004E+02 -0.13642E+04
 0.69903000E+02 -0.21816E+04
 0.69953003E+02 -0.25614E+04
 0.70002998E+02 -0.24371E+04
 0.70053001E+02 -0.26527E+04
 0.70103004E+02 -0.23040E+04
 0.70153000E+02 -0.14851E+04
 0.70203003E+02 -0.11712E+04
 0.70252998E+02 -0.71843E+03
 0.70303001E+02 -0.91221E+03
 0.70353004E+02 -0.16784E+04
 0.70403000E+02 -0.21767E+04
 0.70453003E+02 -0.19274E+04
 0.70502998E+02 -0.12414E+04
 0.70553001E+02 -0.75108E+03
 0.70603004E+02 -0.72300E+03
 0.70653000E+02 -0.67714E+03
 0.70703003E+02 -0.77317E+03
 0.70752998E+02 -0.14783E+04
 0.70803001E+02 -0.21836E+04
 0.70853004E+02 -0.23003E+04
 0.70903000E+02 -0.18279E+04
 0.70953003E+02 -0.11918E+04
 0.71002998E+02 -0.46448E+03
 0.71053001E+02 -0.63562E+03
 0.71103004E+02 -0.13842E+04
 0.71153000E+02 -0.20148E+04
 0.71203003E+02 -0.24887E+04
 0.71252998E+02 -0.29604E+04
 0.71303001E+02 -0.39493E+04
 0.71353004E+02 -0.41726E+04
 0.71403000E+02 -0.33816E+04
 0.71453003E+02 -0.28605E+04
 0.71502998E+02 -0.22602E+04
 0.71553001E+02 -0.55478E+03
 0.71603004E+02  0.40739E+03
 0.71653000E+02  0.14684E+01
 0.71703003E+02 -0.15373E+04
 0.71752998E+02 -0.32255E+04
 0.71803001E+02 -0.40074E+04
 0.71853004E+02 -0.48163E+04
 0.71903000E+02 -0.53367E+04
 0.71953003E+02 -0.45727E+04
 0.72002998E+02 -0.33237E+04
 0.72053001E+02 -0.23892E+04
 0.72103004E+02 -0.19689E+04
 0.72153000E+02 -0.20819E+04
 0.72203003E+02 -0.19450E+04
 0.72252998E+02 -0.17294E+04
 0.72303001E+02 -0.15055E+04
 0.72353004E+02 -0.14087E+04
 0.72403000E+02 -0.97667E+03
 0.72453003E+02 -0.13390E+04
 0.72502998E+02 -0.24851E+04
 0.72553001E+02 -0.31285E+04
 0.72603004E+02 -0.35685E+04
 0.72653000E+02 -0.32497E+04
 0.72703003E+02 -0.27653E+04
 0.72752998E+02 -0.29859E+04
 0.72803001E+02 -0.27734E+04
 0.72853004E+02 -0.16457E+04
 0.72903000E+02 -0.14719E+04
 0.72953003E+02 -0.21469E+04
 0.73002998E+02 -0.19793E+04
 0.73053001E+02 -0.15043E+04
 0.73103004E+02 -0.15648E+04
 0.73153000E+02 -0.10657E+04
 0.73203003E+02 -0.54112E+03
 0.73252998E+02 -0.12279E+04
 0.73303001E+02 -0.19070E+04
 0.73353004E+02 -0.19680E+04
 0.73403000E+02 -0.20031E+04
 0.73453003E+02 -0.24772E+04
 0.73502998E+02 -0.25051E+04
 0.73553001E+02 -0.24504E+04
 0.73603004E+02 -0.28108E+04
 0.73653000E+02 -0.27499E+04
 0.73703003E+02 -0.23820E+04
 0.73752998E+02 -0.13397E+04
 0.73803001E+02 -0.11585E+03
 0.73853004E+02 -0.12341E+03
 0.73903000E+02 -0.92110E+03
 0.73953003E+02 -0.19602E+04
 0.74002998E+02 -0.30439E+04
 0.74053001E+02 -0.39970E+04
 0.74103004E+02 -0.40831E+04
 0.74153000E+02 -0.31530E+04
 0.74203003E+02 -0.24690E+04
 0.74252998E+02 -0.21091E+04
 0.74303001E+02 -0.15890E+04
 0.74353004E+02 -0.10834E+04
 0.74403000E+02 -0.17231E+04
 0.74453003E+02 -0.21547E+04
 0.74502998E+02 -0.20237E+04
 0.74553001E+02 -0.19010E+04
 0.74603004E+02 -0.14163E+04
 0.74653000E+02 -0.16578E+04
 0.74703003E+02 -0.25334E+04
 0.74752998E+02 -0.28814E+04
 0.74803001E+02 -0.27713E+04
 0.74853004E+02 -0.32845E+04
 0.74903000E+02 -0.37865E+04
 0.74953003E+02 -0.43021E+04
 0.75002998E+02 -0.35641E+04
 0.75053001E+02 -0.22426E+04
 0.75103004E+02 -0.18242E+04
 0.75153000E+02 -0.12396E+04
 0.75203003E+02 -0.95527E+03
 0.75252998E+02 -0.15302E+04
 0.75303001E+02 -0.26974E+04
 0.75353004E+02 -0.31268E+04
 0.75403000E+02 -0.32525E+04
 0.75453003E+02 -0.27601E+04
 0.75502998E+02 -0.14236E+04
 0.75553001E+02  0.21584E+03
 0.75603004E+02  0.12314E+04
 0.75653000E+02  0.52856E+03
 0.75703003E+02 -0.79383E+03
 0.75752998E+02 -0.20539E+04
 0.75803001E+02 -0.30847E+04
 0.75853004E+02 -0.29624E+04
 0.75903000E+02 -0.25836E+04
 0.75953003E+02 -0.25896E+04
 0.76002998E+02 -0.25620E+04
 0.76053001E+02 -0.26794E+04
 0.76103004E+02 -0.18972E+04
 0.76153000E+02 -0.79771E+03
 0.76203003E+02 -0.41315E+02
 0.76252998E+02  0.53245E+03
 0.76303001E+02  0.71122E+03
 0.76353004E+02 -0.13430E+03
 0.76403000E+02 -0.20446E+04
 0.76453003E+02 -0.38859E+04
 0.76502998E+02 -0.47947E+04
 0.76553001E+02 -0.49526E+04
 0.76603004E+02 -0.40593E+04
 0.76653000E+02 -0.23706E+04
 0.76703003E+02 -0.11317E+04
 0.76752998E+02 -0.43706E+03
 0.76803001E+02 -0.13394E+03
 0.76853004E+02  0.19749E+03
 0.76903000E+02 -0.16029E+02
 0.76953003E+02 -0.64724E+03
 0.77002998E+02 -0.10562E+04
 0.77053001E+02 -0.14235E+04
 0.77103004E+02 -0.19270E+04
 0.77153000E+02 -0.24320E+04
 0.77203003E+02 -0.26440E+04
 0.77252998E+02 -0.23020E+04
 0.77303001E+02 -0.13996E+04
 0.77353004E+02 -0.12067E+04
 0.77403000E+02 -0.21824E+04
 0.77453003E+02 -0.25670E+04
 0.77502998E+02 -0.24438E+04
 0.77553001E+02 -0.27327E+04
 0.77603004E+02 -0.23397E+04
 0.77653000E+02 -0.19544E+04
 0.77703003E+02 -0.16792E+04
 0.77752998E+02 -0.16558E+04
 0.77803001E+02 -0.22770E+04
 0.77853004E+02 -0.32404E+04
 0.77903000E+02 -0.41578E+04
 0.77953003E+02 -0.42310E+04
 0.78002998E+02 -0.37580E+04
 0.78053001E+02 -0.28098E+04
 0.78103004E+02 -0.21094E+04
 0.78153000E+02 -0.20007E+04
 0.78203003E+02 -0.23634E+04
 0.78252998E+02 -0.27534E+04
 0.78303001E+02 -0.33520E+04
 0.78353004E+02 -0.40193E+04
 0.78403000E+02 -0.39861E+04
 0.78453003E+02 -0.36623E+04
 0.78502998E+02 -0.33683E+04
 0.78553001E+02 -0.29267E+04
 0.78603004E+02 -0.29888E+04
 0.78653000E+02 -0.32742E+04
 0.78703003E+02 -0.29662E+04
 0.78752998E+02 -0.27851E+04
 0.78803001E+02 -0.26245E+04
 0.78853004E+02 -0.25498E+04
 0.78903000E+02 -0.23217E+04
 0.78953003E+02 -0.21004E+04
 0.79002998E+02 -0.19642E+04
 0.79053001E+02 -0.20038E+04
 0.79103004E+02 -0.21089E+04
 0.79153000E+02 -0.15953E+04
 0.79203003E+02 -0.12327E+04
 0.79252998E+02 -0.66645E+03
 0.79303001E+02 -0.12527E+03
 0.79353004E+02 -0.23473E+02
 0.79403000E+02 -0.42436E+03
 0.79453003E+02 -0.11433E+04
 0.79502998E+02 -0.14583E+04
 0.79553001E+02 -0.19633E+04
 0.79603004E+02 -0.22805E+04
 0.79653000E+02 -0.21586E+04
 0.79703003E+02 -0.18280E+04
 0.79752998E+02 -0.10927E+04
 0.79803001E+02 -0.96243E+03
 0.79853004E+02 -0.14425E+04
 0.79903000E+02 -0.20278E+04
 0.79953003E+02 -0.25132E+04
 0.80002998E+02 -0.28051E+04
 0.80053001E+02 -0.27947E+04
 0.80103004E+02 -0.22278E+04
 0.80153000E+02 -0.20555E+04
 0.80203003E+02 -0.19970E+04
 0.80252998E+02 -0.20637E+04
 0.80303001E+02 -0.23746E+04
 0.80353004E+02 -0.24762E+04
 0.80403000E+02 -0.21239E+04
 0.80453003E+02 -0.15459E+04
 0.80502998E+02 -0.11284E+04
 0.80553001E+02 -0.68204E+03
 0.80603004E+02 -0.11007E+04
 0.80653000E+02 -0.17929E+04
 0.80703003E+02 -0.20304E+04
 0.80752998E+02 -0.19474E+04
 0.80803001E+02 -0.17365E+04
 0.80853004E+02 -0.13488E+04
 0.80903000E+02 -0.11574E+04
 0.80953003E+02 -0.13037E+04
 0.81002998E+02 -0.13898E+04
 0.81053001E+02 -0.16210E+04
 0.81103004E+02 -0.13463E+04
 0.81153000E+02 -0.89092E+03
 0.81203003E+02 -0.64863E+03
 0.81252998E+02 -0.31221E+03
 0.81303001E+02 -0.34693E+03
 0.81353004E+02 -0.72448E+03
 0.81403000E+02 -0.11026E+04
 0.81453003E+02 -0.16612E+04
 0.81502998E+02 -0.21780E+04
 0.81553001E+02 -0.25363E+04
 0.81603004E+02 -0.29292E+04
 0.81653000E+02 -0.33959E+04
 0.81703003E+02 -0.38582E+04
 0.81752998E+02 -0.39447E+04
 0.81803001E+02 -0.35511E+04
 0.81853004E+02 -0.32471E+04
 0.81903000E+02 -0.34284E+04
 0.81953003E+02 -0.37712E+04
 0.82002998E+02 -0.40470E+04
 0.82053001E+02 -0.40989E+04
 0.82103004E+02 -0.40097E+04
 0.82153000E+02 -0.39902E+04
 0.82203003E+02 -0.39226E+04
 0.82252998E+02 -0.39461E+04
 0.82303001E+02 -0.38237E+04
 0.82353004E+02 -0.35844E+04
 0.82403000E+02 -0.33030E+04
 0.82453003E+02 -0.27818E+04
 0.82502998E+02 -0.21854E+04
 0.82553001E+02 -0.16279E+04
 0.82603004E+02 -0.79296E+03
 0.82653000E+02 -0.44371E+02
 0.82703003E+02  0.29588E+02
 0.82752998E+02 -0.58408E+03
 0.82803001E+02 -0.11610E+04
 0.82853004E+02 -0.11955E+04
 0.82903000E+02 -0.94185E+03
 0.82953003E+02 -0.63093E+03
 0.83002998E+02 -0.66623E+03
 0.83053001E+02 -0.84927E+03
 0.83103004E+02 -0.12335E+04
 0.83153000E+02 -0.15286E+04
 0.83203003E+02 -0.16261E+04
 0.83252998E+02 -0.21369E+04
 0.83303001E+02 -0.25678E+04
 0.83353004E+02 -0.25722E+04
 0.83403000E+02 -0.28623E+04
 0.83453003E+02 -0.33542E+04
 0.83502998E+02 -0.38911E+04
 0.83553001E+02 -0.41818E+04
 0.83603004E+02 -0.41208E+04
 0.83653000E+02 -0.40960E+04
 0.83703003E+02 -0.41705E+04
 0.83752998E+02 -0.46858E+04
 0.83803001E+02 -0.49868E+04
 0.83853004E+02 -0.50340E+04
 0.83903000E+02 -0.45165E+04
 0.83953003E+02 -0.31762E+04
 0.84002998E+02 -0.21396E+04
 0.84053001E+02 -0.14881E+04
 0.84103004E+02 -0.93458E+03
 0.84153000E+02 -0.42025E+03
 0.84203003E+02 -0.35303E+03
 0.84252998E+02 -0.60972E+03
 0.84303001E+02 -0.50770E+03
 0.84353004E+02  0.19563E+03
 0.84403000E+02  0.15651E+04
 0.84453003E+02  0.24398E+04
 0.84502998E+02  0.27750E+04
 0.84553001E+02  0.31870E+04
 0.84603004E+02  0.34292E+04
 0.84653000E+02  0.35662E+04
 0.84703003E+02  0.30834E+04
 0.84752998E+02  0.24592E+04
 0.84803001E+02  0.15324E+04
 0.84853004E+02  0.32158E+03
 0.84903000E+02 -0.71215E+03
 0.84953003E+02 -0.18484E+04
 0.85002998E+02 -0.27829E+04
 0.85053001E+02 -0.37345E+04
 0.85103004E+02 -0.47277E+04
 0.85153000E+02 -0.58218E+04
 0.85203003E+02 -0.64612E+04
 0.85252998E+02 -0.66733E+04
 0.85303001E+02 -0.66135E+04
 0.85353004E+02 -0.61304E+04
 0.85403000E+02 -0.59070E+04
 0.85453003E+02 -0.58593E+04
 0.85502998E+02 -0.62080E+04
 0.85553001E+02 -0.67444E+04
 0.85603004E+02 -0.69921E+04
 0.85653000E+02 -0.66878E+04
 0.85703003E+02 -0.55149E+04
 0.85752998E+02 -0.40526E+04
 0.85803001E+02 -0.28309E+04
 0.85853004E+02 -0.19279E+04
 0.85903000E+02 -0.11462E+04
 0.85953003E+02 -0.33053E+03
 0.86002998E+02  0.41949E+03
 0.86053001E+02  0.89784E+03
 0.86103004E+02  0.13424E+04
 0.86153000E+02  0.17966E+04
 0.86203003E+02  0.18271E+04
 0.86252998E+02  0.14962E+04
 0.86303001E+02  0.10313E+04
 0.86353004E+02  0.53443E+03
 0.86403000E+02  0.26114E+03
 0.86453003E+02  0.50319E+03
 0.86502998E+02  0.38030E+03
 0.86553001E+02 -0.57249E+03
 0.86603004E+02 -0.14562E+04
 0.86653000E+02 -0.21558E+04
 0.86703003E+02 -0.32837E+04
 0.86752998E+02 -0.43341E+04
 0.86803001E+02 -0.49314E+04
 0.86853004E+02 -0.53941E+04
 0.86903000E+02 -0.56433E+04
 0.86953003E+02 -0.55999E+04
 0.87002998E+02 -0.55169E+04
 0.87053001E+02 -0.55488E+04
 0.87103004E+02 -0.52115E+04
 0.87153000E+02 -0.48354E+04
 0.87203003E+02 -0.48149E+04
 0.87252998E+02 -0.47799E+04
 0.87303001E+02 -0.43650E+04
 0.87353004E+02 -0.35504E+04
 0.87403000E+02 -0.27956E+04
 0.87453003E+02 -0.22666E+04
 0.87502998E+02 -0.17465E+04
 0.87553001E+02 -0.11771E+04
 0.87602997E+02 -0.50306E+03
 0.87653000E+02  0.18263E+03
 0.87703003E+02  0.90441E+03
 0.87752998E+02  0.14312E+04
 0.87803001E+02  0.18902E+04
 0.87852997E+02  0.24506E+04
 0.87903000E+02  0.22327E+04
 0.87953003E+02  0.13130E+04
 0.88002998E+02  0.44886E+03
 0.88053001E+02  0.10164E+02
 0.88102997E+02 -0.34918E+03
 0.88153000E+02 -0.58195E+03
 0.88203003E+02 -0.60787E+03
 0.88252998E+02 -0.96784E+03
 0.88303001E+02 -0.15510E+04
 0.88352997E+02 -0.20929E+04
 0.88403000E+02 -0.25609E+04
 0.88453003E+02 -0.29387E+04
 0.88502998E+02 -0.32429E+04
 0.88553001E+02 -0.37596E+04
 0.88602997E+02 -0.38148E+04
 0.88653000E+02 -0.36197E+04
 0.88703003E+02 -0.38679E+04
 0.88752998E+02 -0.39757E+04
 0.88803001E+02 -0.35775E+04
 0.88852997E+02 -0.31685E+04
 0.88903000E+02 -0.31594E+04
 0.88953003E+02 -0.29196E+04
 0.89002998E+02 -0.26319E+04
 0.89053001E+02 -0.28692E+04
 0.89102997E+02 -0.32133E+04
 0.89153000E+02 -0.34007E+04
 0.89203003E+02 -0.32503E+04
 0.89252998E+02 -0.29190E+04
 0.89303001E+02 -0.27307E+04
 0.89352997E+02 -0.23675E+04
 0.89403000E+02 -0.19592E+04
 0.89453003E+02 -0.12677E+04
 0.89502998E+02 -0.58127E+03
 0.89553001E+02  0.52489E+02
 0.89602997E+02  0.46928E+03
 0.89653000E+02  0.27518E+03
 0.89703003E+02  0.76665E+02
 0.89752998E+02 -0.53588E+03
 0.89803001E+02 -0.14481E+04
 0.89852997E+02 -0.23639E+04
 0.89903000E+02 -0.31359E+04
 0.89953003E+02 -0.31988E+04
 0.90002998E+02 -0.28320E+04
 0.90053001E+02 -0.24366E+04
 0.90102997E+02 -0.23164E+04
 0.90153000E+02 -0.21436E+04
 0.90203003E+02 -0.17616E+04
 0.90252998E+02 -0.17389E+04
 0.90303001E+02 -0.18357E+04
 0.90352997E+02 -0.20644E+04
 0.90403000E+02 -0.26500E+04
 0.90453003E+02 -0.35927E+04
 0.90502998E+02 -0.44378E+04
 0.90553001E+02 -0.46100E+04
 0.90602997E+02 -0.42372E+04
 0.90653000E+02 -0.34806E+04
 0.90703003E+02 -0.26444E+04
 0.90752998E+02 -0.18997E+04
 0.90803001E+02 -0.12561E+04
 0.90852997E+02 -0.91231E+03
 0.90903000E+02 -0.57287E+03
 0.90953003E+02 -0.36053E+03
 0.91002998E+02 -0.48587E+03
 0.91053001E+02 -0.52040E+03
 0.91102997E+02 -0.34482E+03
 0.91153000E+02 -0.29162E+03
 0.91203003E+02 -0.49644E+03
 0.91252998E+02 -0.44878E+03
 0.91303001E+02 -0.57031E+03
 0.91352997E+02 -0.94817E+03
 0.91403000E+02 -0.14727E+04
 0.91453003E+02 -0.22474E+04
 0.91502998E+02 -0.28281E+04
 0.91553001E+02 -0.35223E+04
 0.91602997E+02 -0.39295E+04
 0.91653000E+02 -0.40964E+04
 0.91703003E+02 -0.43304E+04
 0.91752998E+02 -0.43119E+04
 0.91803001E+02 -0.42025E+04
 0.91852997E+02 -0.40774E+04
 0.91903000E+02 -0.41242E+04
 0.91953003E+02 -0.42097E+04
 0.92002998E+02 -0.39764E+04
 0.92053001E+02 -0.37955E+04
 0.92102997E+02 -0.34655E+04
 0.92153000E+02 -0.27660E+04
 0.92203003E+02 -0.23016E+04
 0.92252998E+02 -0.18719E+04
 0.92303001E+02 -0.13228E+04
 0.92352997E+02 -0.10015E+04
 0.92403000E+02 -0.85894E+03
 0.92453003E+02 -0.90969E+03
 0.92502998E+02 -0.12830E+04
 0.92553001E+02 -0.11635E+04
 0.92602997E+02 -0.60070E+03
 0.92653000E+02 -0.33234E+03
 0.92703003E+02 -0.36745E+03
 0.92752998E+02 -0.53676E+03
 0.92803001E+02 -0.83121E+03
 0.92852997E+02 -0.11283E+04
 0.92903000E+02 -0.12388E+04
 0.92953003E+02 -0.12618E+04
 0.93002998E+02 -0.14046E+04
 0.93053001E+02 -0.17745E+04
 0.93102997E+02 -0.18629E+04
 0.93153000E+02 -0.18461E+04
 0.93203003E+02 -0.20276E+04
 0.93252998E+02 -0.21704E+04
 0.93303001E+02 -0.22353E+04
 0.93352997E+02 -0.25439E+04
 0.93403000E+02 -0.28892E+04
 0.93453003E+02 -0.29530E+04
 0.93502998E+02 -0.32176E+04
 0.93553001E+02 -0.33961E+04
 0.93602997E+02 -0.31794E+04
 0.93653000E+02 -0.27238E+04
 0.93703003E+02 -0.23335E+04
 0.93752998E+02 -0.23711E+04
 0.93803001E+02 -0.20720E+04
 0.93852997E+02 -0.15469E+04
 0.93903000E+02 -0.14030E+04
 0.93953003E+02 -0.15048E+04
 0.94002998E+02 -0.15113E+04
 0.94053001E+02 -0.12819E+04
 0.94102997E+02 -0.12767E+04
 0.94153000E+02 -0.12013E+04
 0.94203003E+02 -0.89934E+03
 0.94252998E+02 -0.67172E+03
 0.94303001E+02 -0.76610E+03
 0.94352997E+02 -0.12377E+04
 0.94403000E+02 -0.19285E+04
 0.94453003E+02 -0.23918E+04
 0.94502998E+02 -0.26899E+04
 0.94553001E+02 -0.30387E+04
 0.94602997E+02 -0.31212E+04
 0.94653000E+02 -0.30981E+04
 0.94703003E+02 -0.31003E+04
 0.94752998E+02 -0.28887E+04
 0.94803001E+02 -0.27346E+04
 0.94852997E+02 -0.26681E+04
 0.94903000E+02 -0.24895E+04
 0.94953003E+02 -0.25170E+04
 0.95002998E+02 -0.24580E+04
 0.95053001E+02 -0.23442E+04
 0.95102997E+02 -0.23071E+04
 0.95153000E+02 -0.21780E+04
 0.95203003E+02 -0.20264E+04
 0.95252998E+02 -0.18199E+04
 0.95303001E+02 -0.18327E+04
 0.95352997E+02 -0.19966E+04
 0.95403000E+02 -0.22388E+04
 0.95453003E+02 -0.25571E+04
 0.95502998E+02 -0.27710E+04
 0.95553001E+02 -0.28016E+04
 0.95602997E+02 -0.25998E+04
 0.95653000E+02 -0.25095E+04
 0.95703003E+02 -0.23085E+04
 0.95752998E+02 -0.20451E+04
 0.95803001E+02 -0.20637E+04
 0.95852997E+02 -0.21287E+04
 0.95903000E+02 -0.22215E+04
 0.95953003E+02 -0.25056E+04
 0.96002998E+02 -0.26552E+04
 0.96053001E+02 -0.25298E+04
 0.96102997E+02 -0.25130E+04
 0.96153000E+02 -0.24985E+04
 0.96203003E+02 -0.25008E+04
 0.96252998E+02 -0.25246E+04
 0.96303001E+02 -0.24525E+04
 0.96352997E+02 -0.22133E+04
 0.96403000E+02 -0.17648E+04
 0.96453003E+02 -0.13799E+04
 0.96502998E+02 -0.13449E+04
 0.96553001E+02 -0.16185E+04
 0.96602997E+02 -0.17910E+04
 0.96653000E+02 -0.15532E+04
 0.96703003E+02 -0.98707E+03
 0.96752998E+02 -0.74827E+03
 0.96803001E+02 -0.65505E+03
 0.96852997E+02 -0.20966E+03
 0.96903000E+02 -0.12955E+03
 0.96953003E+02 -0.49231E+03
 0.97002998E+02 -0.81285E+03
 0.97053001E+02 -0.11918E+04
 0.97102997E+02 -0.17168E+04
 0.97153000E+02 -0.22530E+04
 0.97203003E+02 -0.26487E+04
 0.97252998E+02 -0.27853E+04
 0.97303001E+02 -0.25911E+04
 0.97352997E+02 -0.21879E+04
 0.97403000E+02 -0.19858E+04
 0.97453003E+02 -0.20263E+04
 0.97502998E+02 -0.21410E+04
 0.97553001E+02 -0.22210E+04
 0.97602997E+02 -0.23625E+04
 0.97653000E+02 -0.26880E+04
 0.97703003E+02 -0.30082E+04
 0.97752998E+02 -0.31835E+04
 0.97803001E+02 -0.30901E+04
 0.97852997E+02 -0.29402E+04
 0.97903000E+02 -0.27836E+04
 0.97953003E+02 -0.26047E+04
 0.98002998E+02 -0.24975E+04
