-0.20000000E+01 -0.21088E+05
-0.19500000E+01 -0.20624E+05
-0.19000000E+01 -0.19935E+05
-0.18500000E+01 -0.19089E+05
-0.18000000E+01 -0.18051E+05
-0.17500000E+01 -0.16794E+05
-0.17000000E+01 -0.15306E+05
-0.16500001E+01 -0.13626E+05
-0.16000000E+01 -0.11772E+05
-0.15500000E+01 -0.98013E+04
-0.15000000E+01 -0.78304E+04
-0.14500000E+01 -0.59329E+04
-0.14000001E+01 -0.41261E+04
-0.13500000E+01 -0.24847E+04
-0.13000001E+01 -0.10098E+04
-0.12500000E+01  0.41014E+03
-0.12000000E+01  0.18168E+04
-0.11500001E+01  0.32560E+04
-0.11000000E+01  0.47857E+04
-0.10500001E+01  0.64900E+04
-0.10000000E+01  0.83543E+04
-0.95000005E+00  0.10351E+05
-0.90000010E+00  0.12383E+05
-0.85000002E+00  0.14362E+05
-0.80000007E+00  0.16262E+05
-0.75000012E+00  0.18008E+05
-0.70000005E+00  0.19510E+05
-0.65000010E+00  0.20691E+05
-0.60000014E+00  0.21556E+05
-0.55000007E+00  0.22069E+05
-0.50000012E+00  0.22231E+05
-0.45000005E+00  0.22081E+05
-0.40000010E+00  0.21710E+05
-0.35000014E+00  0.21214E+05
-0.30000007E+00  0.20637E+05
-0.25000012E+00  0.20060E+05
-0.20000005E+00  0.19523E+05
-0.15000010E+00  0.19025E+05
-0.10000014E+00  0.18530E+05
-0.50000072E-01  0.17989E+05
-0.11920929E-06  0.17371E+05
 0.49999952E-01  0.16693E+05
 0.99999905E-01  0.16020E+05
 0.14999986E+00  0.15375E+05
 0.19999981E+00  0.14715E+05
 0.24999976E+00  0.14076E+05
 0.29999995E+00  0.13465E+05
 0.34999990E+00  0.12816E+05
 0.39999986E+00  0.12115E+05
 0.44999981E+00  0.11340E+05
 0.49999976E+00  0.10510E+05
 0.54999995E+00  0.95891E+04
 0.59999990E+00  0.85484E+04
 0.64999986E+00  0.73796E+04
 0.69999981E+00  0.60763E+04
 0.74999976E+00  0.46544E+04
 0.79999971E+00  0.32043E+04
 0.84999990E+00  0.18502E+04
 0.89999986E+00  0.58016E+03
 0.94999981E+00 -0.64785E+03
 0.99999976E+00 -0.18183E+04
 0.10499997E+01 -0.28957E+04
 0.10999999E+01 -0.38880E+04
 0.11499999E+01 -0.47684E+04
 0.11999998E+01 -0.54708E+04
 0.12499998E+01 -0.59500E+04
 0.12999997E+01 -0.61622E+04
 0.13499999E+01 -0.61006E+04
 0.13999999E+01 -0.57142E+04
 0.14499998E+01 -0.49973E+04
 0.14999998E+01 -0.40273E+04
 0.15499997E+01 -0.29295E+04
 0.15999999E+01 -0.18159E+04
 0.16499999E+01 -0.70309E+03
 0.16999998E+01  0.40613E+03
 0.17499998E+01  0.14375E+04
 0.17999997E+01  0.22883E+04
 0.18499997E+01  0.29195E+04
 0.18999999E+01  0.33788E+04
 0.19499998E+01  0.36477E+04
 0.19999998E+01  0.36132E+04
 0.20499997E+01  0.32719E+04
 0.20999999E+01  0.26566E+04
 0.21499996E+01  0.18114E+04
 0.21999998E+01  0.73776E+03
 0.22499995E+01 -0.52002E+03
 0.22999997E+01 -0.18473E+04
 0.23499999E+01 -0.31989E+04
 0.23999996E+01 -0.44767E+04
 0.24499998E+01 -0.55962E+04
 0.24999995E+01 -0.65538E+04
 0.25499997E+01 -0.74047E+04
 0.25999999E+01 -0.81905E+04
 0.26499996E+01 -0.88966E+04
 0.26999998E+01 -0.95357E+04
 0.27499995E+01 -0.10131E+05
 0.27999997E+01 -0.10663E+05
 0.28499999E+01 -0.11133E+05
 0.28999996E+01 -0.11563E+05
 0.29499998E+01 -0.11899E+05
 0.29999995E+01 -0.12106E+05
 0.30499997E+01 -0.12142E+05
 0.30999999E+01 -0.11967E+05
 0.31499996E+01 -0.11540E+05
 0.31999998E+01 -0.10779E+05
 0.32499995E+01 -0.96177E+04
 0.32999997E+01 -0.81282E+04
 0.33499999E+01 -0.64609E+04
 0.33999996E+01 -0.47260E+04
 0.34499998E+01 -0.30048E+04
 0.34999995E+01 -0.12701E+04
 0.35499997E+01  0.53792E+03
 0.35999994E+01  0.23610E+04
 0.36499996E+01  0.40208E+04
 0.36999998E+01  0.54131E+04
 0.37499995E+01  0.65288E+04
 0.37999997E+01  0.73421E+04
 0.38499994E+01  0.78281E+04
 0.38999996E+01  0.80390E+04
 0.39499998E+01  0.80198E+04
 0.39999995E+01  0.77609E+04
 0.40499997E+01  0.72266E+04
 0.40999994E+01  0.63965E+04
 0.41499996E+01  0.53069E+04
 0.41999998E+01  0.40135E+04
 0.42499995E+01  0.25587E+04
 0.42999997E+01  0.99501E+03
 0.43499994E+01 -0.58800E+03
 0.43999996E+01 -0.20984E+04
 0.44499998E+01 -0.35163E+04
 0.44999995E+01 -0.48793E+04
 0.45499997E+01 -0.62337E+04
 0.45999994E+01 -0.75792E+04
 0.46499996E+01 -0.88718E+04
 0.46999998E+01 -0.10098E+05
 0.47499995E+01 -0.11243E+05
 0.47999997E+01 -0.12282E+05
 0.48499994E+01 -0.13181E+05
 0.48999996E+01 -0.13876E+05
 0.49499998E+01 -0.14283E+05
 0.49999995E+01 -0.14427E+05
 0.50499997E+01 -0.14327E+05
 0.50999994E+01 -0.13953E+05
 0.51499996E+01 -0.13278E+05
 0.51999998E+01 -0.12304E+05
 0.52499995E+01 -0.11062E+05
 0.52999997E+01 -0.95745E+04
 0.53499994E+01 -0.79123E+04
 0.53999996E+01 -0.61019E+04
 0.54499993E+01 -0.41991E+04
 0.54999995E+01 -0.22352E+04
 0.55499997E+01 -0.25432E+03
 0.55999994E+01  0.16872E+04
 0.56499996E+01  0.36040E+04
 0.56999993E+01  0.55589E+04
 0.57499995E+01  0.75394E+04
 0.57999997E+01  0.95131E+04
 0.58499994E+01  0.11470E+05
 0.58999996E+01  0.13300E+05
 0.59499993E+01  0.14946E+05
 0.59999995E+01  0.16365E+05
 0.60499992E+01  0.17508E+05
 0.60999994E+01  0.18383E+05
 0.61499996E+01  0.19044E+05
 0.61999998E+01  0.19517E+05
 0.62499990E+01  0.19859E+05
 0.62999992E+01  0.20081E+05
 0.63499994E+01  0.20223E+05
 0.63999996E+01  0.20373E+05
 0.64499998E+01  0.20519E+05
 0.64999990E+01  0.20627E+05
 0.65499992E+01  0.20664E+05
 0.65999994E+01  0.20622E+05
 0.66499996E+01  0.20520E+05
 0.66999998E+01  0.20393E+05
 0.67499990E+01  0.20206E+05
 0.67999992E+01  0.19860E+05
 0.68499994E+01  0.19240E+05
 0.68999996E+01  0.18296E+05
 0.69499998E+01  0.16978E+05
 0.69999990E+01  0.15136E+05
 0.70499992E+01  0.12665E+05
 0.70999994E+01  0.95488E+04
 0.71499996E+01  0.58075E+04
 0.71999998E+01  0.14979E+04
 0.72499990E+01 -0.32758E+04
 0.72999992E+01 -0.83694E+04
 0.73499994E+01 -0.13662E+05
 0.73999996E+01 -0.18908E+05
 0.74499998E+01 -0.23840E+05
 0.74999990E+01 -0.28384E+05
 0.75499992E+01 -0.32397E+05
 0.75999994E+01 -0.35704E+05
 0.76499996E+01 -0.38229E+05
 0.76999998E+01 -0.39871E+05
 0.77499990E+01 -0.40522E+05
 0.77999992E+01 -0.40151E+05
 0.78499994E+01 -0.38844E+05
 0.78999996E+01 -0.36700E+05
 0.79499998E+01 -0.33817E+05
 0.79999990E+01 -0.30249E+05
 0.80499992E+01 -0.26130E+05
 0.80999994E+01 -0.21665E+05
 0.81499996E+01 -0.16960E+05
 0.81999998E+01 -0.12121E+05
 0.82499990E+01 -0.73868E+04
 0.82999992E+01 -0.29268E+04
 0.83499994E+01  0.11562E+04
 0.83999996E+01  0.47791E+04
 0.84499998E+01  0.79207E+04
 0.84999990E+01  0.10616E+05
 0.85499992E+01  0.12891E+05
 0.85999994E+01  0.14703E+05
 0.86499996E+01  0.16012E+05
 0.86999998E+01  0.16764E+05
 0.87499990E+01  0.16975E+05
 0.87999992E+01  0.16676E+05
 0.88499994E+01  0.15978E+05
 0.88999996E+01  0.14994E+05
 0.89499998E+01  0.13811E+05
 0.89999990E+01  0.12469E+05
 0.90499992E+01  0.11015E+05
 0.90999994E+01  0.95148E+04
 0.91499996E+01  0.80113E+04
 0.91999989E+01  0.65889E+04
 0.92499990E+01  0.52841E+04
 0.92999992E+01  0.41735E+04
 0.93499994E+01  0.32658E+04
 0.93999996E+01  0.25341E+04
 0.94499989E+01  0.19257E+04
 0.94999990E+01  0.14110E+04
 0.95499992E+01  0.10503E+04
 0.95999994E+01  0.88235E+03
 0.96499996E+01  0.90445E+03
 0.96999989E+01  0.10417E+04
 0.97499990E+01  0.12132E+04
 0.97999992E+01  0.13542E+04
 0.98499994E+01  0.14030E+04
 0.98999996E+01  0.12885E+04
 0.99499989E+01  0.99408E+03
 0.99999990E+01  0.51215E+03
 0.10049999E+02 -0.16749E+03
 0.10099999E+02 -0.98927E+03
 0.10150000E+02 -0.18102E+04
 0.10199999E+02 -0.24847E+04
 0.10249999E+02 -0.30527E+04
 0.10299999E+02 -0.35363E+04
 0.10349999E+02 -0.38661E+04
 0.10400000E+02 -0.40179E+04
 0.10449999E+02 -0.40262E+04
 0.10499999E+02 -0.38903E+04
 0.10549999E+02 -0.35561E+04
 0.10599999E+02 -0.30294E+04
 0.10650000E+02 -0.24258E+04
 0.10699999E+02 -0.19284E+04
 0.10749999E+02 -0.15704E+04
 0.10799999E+02 -0.13041E+04
 0.10849999E+02 -0.11740E+04
 0.10900000E+02 -0.11978E+04
 0.10949999E+02 -0.13541E+04
 0.10999999E+02 -0.16390E+04
 0.11049999E+02 -0.20399E+04
 0.11099999E+02 -0.25234E+04
 0.11150000E+02 -0.30469E+04
 0.11199999E+02 -0.36197E+04
 0.11249999E+02 -0.42848E+04
 0.11299999E+02 -0.50616E+04
 0.11349999E+02 -0.58760E+04
 0.11400000E+02 -0.66801E+04
 0.11449999E+02 -0.74364E+04
 0.11499999E+02 -0.81297E+04
 0.11549999E+02 -0.87793E+04
 0.11599999E+02 -0.93291E+04
 0.11650000E+02 -0.97943E+04
 0.11699999E+02 -0.10165E+05
 0.11749999E+02 -0.10399E+05
 0.11799999E+02 -0.10437E+05
 0.11849999E+02 -0.10208E+05
 0.11900000E+02 -0.96816E+04
 0.11949999E+02 -0.89122E+04
 0.11999999E+02 -0.79512E+04
 0.12049999E+02 -0.67868E+04
 0.12099999E+02 -0.55061E+04
 0.12150000E+02 -0.41998E+04
 0.12199999E+02 -0.28287E+04
 0.12249999E+02 -0.13092E+04
 0.12299999E+02  0.32863E+03
 0.12349999E+02  0.20029E+04
 0.12400000E+02  0.36827E+04
 0.12449999E+02  0.53542E+04
 0.12499999E+02  0.70014E+04
 0.12549999E+02  0.86153E+04
 0.12599999E+02  0.10252E+05
 0.12649999E+02  0.11916E+05
 0.12699999E+02  0.13493E+05
 0.12749999E+02  0.14851E+05
 0.12799999E+02  0.15927E+05
 0.12849999E+02  0.16780E+05
 0.12899999E+02  0.17413E+05
 0.12949999E+02  0.17790E+05
 0.12999999E+02  0.17907E+05
 0.13049999E+02  0.17721E+05
 0.13099999E+02  0.17242E+05
 0.13149999E+02  0.16525E+05
 0.13199999E+02  0.15647E+05
 0.13249999E+02  0.14687E+05
 0.13299999E+02  0.13671E+05
 0.13349999E+02  0.12630E+05
 0.13399999E+02  0.11569E+05
 0.13449999E+02  0.10533E+05
 0.13499999E+02  0.95294E+04
 0.13549999E+02  0.85622E+04
 0.13599999E+02  0.76434E+04
 0.13649999E+02  0.67994E+04
 0.13699999E+02  0.60983E+04
 0.13749999E+02  0.55225E+04
 0.13799999E+02  0.50435E+04
 0.13849999E+02  0.46368E+04
 0.13899999E+02  0.42815E+04
 0.13949999E+02  0.39517E+04
 0.13999999E+02  0.36458E+04
 0.14049999E+02  0.33310E+04
 0.14099998E+02  0.30369E+04
 0.14150000E+02  0.28633E+04
 0.14199999E+02  0.28997E+04
 0.14249998E+02  0.31665E+04
 0.14299999E+02  0.36899E+04
 0.14349998E+02  0.44792E+04
 0.14400000E+02  0.54439E+04
 0.14449999E+02  0.65446E+04
 0.14499998E+02  0.76829E+04
 0.14549999E+02  0.86820E+04
 0.14599998E+02  0.93438E+04
 0.14650000E+02  0.95711E+04
 0.14699999E+02  0.92753E+04
 0.14749998E+02  0.83764E+04
 0.14799999E+02  0.68592E+04
 0.14849998E+02  0.47571E+04
 0.14900000E+02  0.22054E+04
 0.14949999E+02 -0.71926E+03
 0.14999998E+02 -0.38606E+04
 0.15049999E+02 -0.69993E+04
 0.15099998E+02 -0.10021E+05
 0.15150000E+02 -0.12829E+05
 0.15199999E+02 -0.15322E+05
 0.15249998E+02 -0.17404E+05
 0.15299999E+02 -0.19040E+05
 0.15349998E+02 -0.20245E+05
 0.15400000E+02 -0.21028E+05
 0.15449999E+02 -0.21395E+05
 0.15499998E+02 -0.21394E+05
 0.15549999E+02 -0.21108E+05
 0.15599998E+02 -0.20581E+05
 0.15650000E+02 -0.19832E+05
 0.15699999E+02 -0.18898E+05
 0.15749998E+02 -0.17852E+05
 0.15799999E+02 -0.16690E+05
 0.15849998E+02 -0.15436E+05
 0.15900000E+02 -0.14173E+05
 0.15949999E+02 -0.12994E+05
 0.15999998E+02 -0.11988E+05
 0.16049999E+02 -0.11156E+05
 0.16099998E+02 -0.10449E+05
 0.16150000E+02 -0.97638E+04
 0.16199999E+02 -0.90162E+04
 0.16249998E+02 -0.81798E+04
 0.16299999E+02 -0.72019E+04
 0.16349998E+02 -0.60495E+04
 0.16400000E+02 -0.46959E+04
 0.16449999E+02 -0.31731E+04
 0.16499998E+02 -0.15259E+04
 0.16549999E+02  0.14702E+03
 0.16599998E+02  0.18158E+04
 0.16650000E+02  0.34819E+04
 0.16699999E+02  0.50153E+04
 0.16749998E+02  0.63335E+04
 0.16799999E+02  0.74361E+04
 0.16849998E+02  0.83327E+04
 0.16900000E+02  0.89697E+04
 0.16949999E+02  0.93785E+04
 0.16999998E+02  0.96312E+04
 0.17049999E+02  0.97523E+04
 0.17099998E+02  0.97017E+04
 0.17150000E+02  0.94626E+04
 0.17199999E+02  0.90190E+04
 0.17249998E+02  0.83825E+04
 0.17299999E+02  0.75650E+04
 0.17349998E+02  0.65177E+04
 0.17400000E+02  0.52113E+04
 0.17449999E+02  0.36756E+04
 0.17499998E+02  0.20012E+04
 0.17549999E+02  0.19102E+03
 0.17599998E+02 -0.17645E+04
 0.17650000E+02 -0.37995E+04
 0.17699999E+02 -0.58336E+04
 0.17749998E+02 -0.77578E+04
 0.17799999E+02 -0.94925E+04
 0.17849998E+02 -0.10960E+05
 0.17900000E+02 -0.12028E+05
 0.17949999E+02 -0.12631E+05
 0.17999998E+02 -0.12693E+05
 0.18049999E+02 -0.12172E+05
 0.18099998E+02 -0.11102E+05
 0.18150000E+02 -0.95942E+04
 0.18199999E+02 -0.78233E+04
 0.18249998E+02 -0.58599E+04
 0.18299999E+02 -0.37943E+04
 0.18349998E+02 -0.17572E+04
 0.18400000E+02  0.19024E+03
 0.18449999E+02  0.19992E+04
 0.18499998E+02  0.36248E+04
 0.18549999E+02  0.50497E+04
 0.18599998E+02  0.63066E+04
 0.18650000E+02  0.74085E+04
 0.18699999E+02  0.83009E+04
 0.18749998E+02  0.89076E+04
 0.18799999E+02  0.92776E+04
 0.18849998E+02  0.95290E+04
 0.18900000E+02  0.97390E+04
 0.18949999E+02  0.99184E+04
 0.18999998E+02  0.10087E+05
 0.19049999E+02  0.10332E+05
 0.19099998E+02  0.10687E+05
 0.19150000E+02  0.11183E+05
 0.19199999E+02  0.11829E+05
 0.19249998E+02  0.12569E+05
 0.19299999E+02  0.13340E+05
 0.19349998E+02  0.14093E+05
 0.19400000E+02  0.14781E+05
 0.19449999E+02  0.15366E+05
 0.19499998E+02  0.15879E+05
 0.19549999E+02  0.16347E+05
 0.19599998E+02  0.16785E+05
 0.19650000E+02  0.17167E+05
 0.19699999E+02  0.17438E+05
 0.19749998E+02  0.17586E+05
 0.19799999E+02  0.17632E+05
 0.19849998E+02  0.17610E+05
 0.19900000E+02  0.17427E+05
 0.19949999E+02  0.17001E+05
 0.19999998E+02  0.16375E+05
 0.20049999E+02  0.15631E+05
 0.20099998E+02  0.14789E+05
 0.20150000E+02  0.13809E+05
 0.20199999E+02  0.12680E+05
 0.20249998E+02  0.11468E+05
 0.20299999E+02  0.10237E+05
 0.20349998E+02  0.89850E+04
 0.20399998E+02  0.76981E+04
 0.20449999E+02  0.63212E+04
 0.20499998E+02  0.48225E+04
 0.20549999E+02  0.32405E+04
 0.20599998E+02  0.16711E+04
 0.20649998E+02  0.18299E+03
 0.20699999E+02 -0.12008E+04
 0.20749998E+02 -0.24890E+04
 0.20799999E+02 -0.36945E+04
 0.20849998E+02 -0.47781E+04
 0.20899998E+02 -0.56918E+04
 0.20949999E+02 -0.64267E+04
 0.20999998E+02 -0.69784E+04
 0.21049999E+02 -0.73403E+04
 0.21099998E+02 -0.75431E+04
 0.21149998E+02 -0.75880E+04
 0.21199999E+02 -0.74609E+04
 0.21249998E+02 -0.71690E+04
 0.21299999E+02 -0.67827E+04
 0.21349998E+02 -0.63754E+04
 0.21399998E+02 -0.59742E+04
 0.21449999E+02 -0.55647E+04
 0.21499998E+02 -0.51812E+04
 0.21549999E+02 -0.49477E+04
 0.21599998E+02 -0.48935E+04
 0.21649998E+02 -0.49851E+04
 0.21699999E+02 -0.52188E+04
 0.21749998E+02 -0.56005E+04
 0.21799999E+02 -0.61208E+04
 0.21849998E+02 -0.67356E+04
 0.21899998E+02 -0.74126E+04
 0.21949999E+02 -0.81643E+04
 0.21999998E+02 -0.89696E+04
 0.22049999E+02 -0.97879E+04
 0.22099998E+02 -0.10621E+05
 0.22149998E+02 -0.11471E+05
 0.22199999E+02 -0.12266E+05
 0.22249998E+02 -0.12930E+05
 0.22299999E+02 -0.13386E+05
 0.22349998E+02 -0.13583E+05
 0.22399998E+02 -0.13544E+05
 0.22449999E+02 -0.13309E+05
 0.22499998E+02 -0.12924E+05
 0.22549999E+02 -0.12395E+05
 0.22599998E+02 -0.11734E+05
 0.22649998E+02 -0.10957E+05
 0.22699999E+02 -0.99922E+04
 0.22749998E+02 -0.88278E+04
 0.22799999E+02 -0.75182E+04
 0.22849998E+02 -0.60527E+04
 0.22899998E+02 -0.44476E+04
 0.22949999E+02 -0.27374E+04
 0.22999998E+02 -0.98120E+03
 0.23049999E+02  0.74855E+03
 0.23099998E+02  0.24136E+04
 0.23149998E+02  0.39762E+04
 0.23199999E+02  0.53814E+04
 0.23249998E+02  0.65525E+04
 0.23299999E+02  0.74061E+04
 0.23349998E+02  0.79325E+04
 0.23399998E+02  0.81580E+04
 0.23449999E+02  0.80700E+04
 0.23499998E+02  0.76593E+04
 0.23549999E+02  0.69476E+04
 0.23599998E+02  0.59203E+04
 0.23649998E+02  0.45773E+04
 0.23699999E+02  0.29907E+04
 0.23749998E+02  0.12017E+04
 0.23799999E+02 -0.72755E+03
 0.23849998E+02 -0.26941E+04
 0.23899998E+02 -0.45439E+04
 0.23949999E+02 -0.61652E+04
 0.23999998E+02 -0.74989E+04
 0.24049999E+02 -0.84975E+04
 0.24099998E+02 -0.91538E+04
 0.24149998E+02 -0.95024E+04
 0.24199999E+02 -0.95860E+04
 0.24249998E+02 -0.93985E+04
 0.24299999E+02 -0.89667E+04
 0.24349998E+02 -0.83554E+04
 0.24399998E+02 -0.76232E+04
 0.24449999E+02 -0.68257E+04
 0.24499998E+02 -0.60204E+04
 0.24549999E+02 -0.52383E+04
 0.24599998E+02 -0.45524E+04
 0.24649998E+02 -0.40112E+04
 0.24699999E+02 -0.36055E+04
 0.24749998E+02 -0.32955E+04
 0.24799999E+02 -0.30670E+04
 0.24849998E+02 -0.29342E+04
 0.24899998E+02 -0.28453E+04
 0.24949999E+02 -0.28175E+04
 0.24999998E+02 -0.28928E+04
 0.25049999E+02 -0.30663E+04
 0.25099998E+02 -0.33422E+04
 0.25149998E+02 -0.37860E+04
 0.25199999E+02 -0.44293E+04
 0.25249998E+02 -0.52259E+04
 0.25299999E+02 -0.61433E+04
 0.25349998E+02 -0.71880E+04
 0.25399998E+02 -0.83293E+04
 0.25449999E+02 -0.94993E+04
 0.25499998E+02 -0.10662E+05
 0.25549999E+02 -0.11811E+05
 0.25599998E+02 -0.12925E+05
 0.25649998E+02 -0.13939E+05
 0.25699999E+02 -0.14784E+05
 0.25749998E+02 -0.15399E+05
 0.25799999E+02 -0.15755E+05
 0.25849998E+02 -0.15830E+05
 0.25899998E+02 -0.15641E+05
 0.25949999E+02 -0.15217E+05
 0.25999998E+02 -0.14617E+05
 0.26049999E+02 -0.13916E+05
 0.26099998E+02 -0.13181E+05
 0.26149998E+02 -0.12522E+05
 0.26199999E+02 -0.11964E+05
 0.26249998E+02 -0.11397E+05
 0.26299999E+02 -0.10685E+05
 0.26349998E+02 -0.99682E+04
 0.26399998E+02 -0.94868E+04
 0.26449999E+02 -0.91639E+04
 0.26499998E+02 -0.89399E+04
 0.26549999E+02 -0.88547E+04
 0.26599998E+02 -0.85522E+04
 0.26649998E+02 -0.75980E+04
 0.26699999E+02 -0.62920E+04
 0.26749998E+02 -0.58898E+04
 0.26799999E+02 -0.66900E+04
 0.26849998E+02 -0.84752E+04
 0.26899998E+02 -0.11849E+05
 0.26949999E+02 -0.16848E+05
 0.26999998E+02 -0.22395E+05
 0.27049997E+02 -0.26578E+05
 0.27099998E+02 -0.30549E+05
 0.27149998E+02 -0.34073E+05
 0.27199999E+02 -0.35688E+05
 0.27249998E+02 -0.36754E+05
 0.27299997E+02 -0.37832E+05
 0.27349998E+02 -0.34598E+05
 0.27399998E+02 -0.25735E+05
 0.27449999E+02 -0.14900E+05
 0.27499998E+02 -0.62788E+04
 0.27549997E+02 -0.27209E+03
 0.27599998E+02  0.77116E+04
 0.27649998E+02  0.19674E+05
 0.27699999E+02  0.32859E+05
 0.27749998E+02  0.43939E+05
 0.27799997E+02  0.60281E+05
 0.27849998E+02  0.80929E+05
 0.27899998E+02  0.10009E+06
 0.27949999E+02  0.11473E+06
 0.27999998E+02  0.12551E+06
 0.28049997E+02  0.13189E+06
 0.28099998E+02  0.12916E+06
 0.28149998E+02  0.12432E+06
 0.28199999E+02  0.11316E+06
 0.28249998E+02  0.85256E+05
 0.28299997E+02  0.49216E+05
 0.28349998E+02  0.25388E+05
 0.28399998E+02  0.19650E+05
 0.28449999E+02  0.15829E+05
 0.28499998E+02  0.14289E+05
 0.28549997E+02  0.17775E+05
 0.28599998E+02  0.21811E+05
 0.28649998E+02  0.22656E+05
 0.28699999E+02  0.38964E+04
 0.28749998E+02 -0.27270E+05
 0.28799997E+02 -0.54421E+05
 0.28849998E+02 -0.72667E+05
 0.28899998E+02 -0.88424E+05
 0.28949999E+02 -0.91718E+05
 0.28999998E+02 -0.77048E+05
 0.29049997E+02 -0.62013E+05
 0.29099998E+02 -0.27158E+05
 0.29149998E+02  0.24067E+05
 0.29199999E+02  0.58185E+05
 0.29249998E+02  0.78267E+05
 0.29299997E+02  0.98800E+05
 0.29349998E+02  0.95386E+05
 0.29399998E+02  0.49715E+05
 0.29449999E+02  0.86335E+04
 0.29499998E+02 -0.97163E+04
 0.29549997E+02 -0.11275E+05
 0.29599998E+02 -0.13916E+05
 0.29649998E+02 -0.51533E+04
 0.29699999E+02  0.27716E+05
 0.29749998E+02  0.60013E+05
 0.29799997E+02  0.11236E+06
 0.29849998E+02  0.16993E+06
 0.29899998E+02  0.18691E+06
 0.29949999E+02  0.14252E+06
 0.29999998E+02  0.83358E+05
 0.30049999E+02  0.35778E+05
 0.30099998E+02 -0.71990E+04
 0.30149998E+02 -0.58317E+05
 0.30199997E+02 -0.12239E+06
 0.30249996E+02 -0.17703E+06
 0.30299999E+02 -0.21710E+06
 0.30349998E+02 -0.22851E+06
 0.30399998E+02 -0.19206E+06
 0.30449997E+02 -0.11002E+06
 0.30499996E+02 -0.28426E+05
 0.30549999E+02  0.22359E+04
 0.30599998E+02  0.20613E+05
 0.30649998E+02  0.57491E+05
 0.30699997E+02  0.82320E+05
 0.30749996E+02  0.10271E+06
 0.30799999E+02  0.11393E+06
 0.30849998E+02  0.96168E+05
 0.30899998E+02  0.35942E+05
 0.30949997E+02 -0.49519E+05
 0.30999996E+02 -0.54800E+05
 0.31049999E+02  0.22887E+05
 0.31099998E+02  0.87959E+05
 0.31149998E+02  0.14365E+06
 0.31199997E+02  0.20087E+06
 0.31249996E+02  0.24394E+06
 0.31299999E+02  0.25263E+06
 0.31349998E+02  0.25875E+06
 0.31399998E+02  0.26056E+06
 0.31449997E+02  0.20290E+06
 0.31499996E+02  0.11647E+06
 0.31549999E+02  0.50385E+05
 0.31599998E+02 -0.44413E+03
 0.31649998E+02 -0.78490E+05
 0.31699997E+02 -0.16509E+06
 0.31749996E+02 -0.20938E+06
 0.31799999E+02 -0.23871E+06
 0.31849998E+02 -0.27077E+06
 0.31899998E+02 -0.27348E+06
 0.31949997E+02 -0.23328E+06
 0.31999996E+02 -0.17754E+06
 0.32049999E+02 -0.15543E+06
 0.32099998E+02 -0.13774E+06
 0.32149998E+02 -0.92201E+05
 0.32199997E+02 -0.84844E+05
 0.32249996E+02 -0.91645E+05
 0.32299999E+02 -0.80934E+05
 0.32349998E+02 -0.76746E+05
 0.32399998E+02 -0.92552E+05
 0.32449997E+02 -0.84406E+05
 0.32499996E+02 -0.62748E+04
 0.32549999E+02  0.77339E+05
 0.32599998E+02  0.12276E+06
 0.32649998E+02  0.12520E+06
 0.32699997E+02  0.99108E+05
 0.32749996E+02  0.47694E+05
 0.32799999E+02 -0.10976E+05
 0.32849998E+02 -0.56402E+05
 0.32899998E+02 -0.96822E+05
 0.32949997E+02 -0.12259E+06
 0.32999996E+02 -0.14505E+06
 0.33049999E+02 -0.19203E+06
 0.33099998E+02 -0.22169E+06
 0.33149998E+02 -0.19710E+06
 0.33199997E+02 -0.14873E+06
 0.33249996E+02 -0.14910E+06
 0.33299999E+02 -0.20926E+06
 0.33349998E+02 -0.24622E+06
 0.33399998E+02 -0.21263E+06
 0.33449997E+02 -0.15777E+06
 0.33499996E+02 -0.12333E+06
 0.33549999E+02 -0.98904E+05
 0.33599998E+02 -0.54886E+05
 0.33649998E+02  0.20434E+05
 0.33699997E+02  0.82803E+05
 0.33749996E+02  0.11716E+06
 0.33799999E+02  0.12457E+06
 0.33849998E+02  0.12931E+06
 0.33899998E+02  0.12860E+06
 0.33949997E+02  0.97794E+05
 0.33999996E+02  0.66566E+05
 0.34049999E+02  0.83609E+05
 0.34099998E+02  0.13148E+06
 0.34149998E+02  0.15556E+06
 0.34199997E+02  0.14430E+06
 0.34249996E+02  0.13604E+06
 0.34299999E+02  0.17132E+06
 0.34349998E+02  0.20739E+06
 0.34399998E+02  0.19706E+06
 0.34449997E+02  0.17154E+06
 0.34499996E+02  0.18790E+06
 0.34549999E+02  0.18757E+06
 0.34599998E+02  0.11930E+06
 0.34649998E+02  0.36231E+05
 0.34699997E+02 -0.64443E+04
 0.34749996E+02 -0.37229E+04
 0.34799999E+02 -0.31790E+05
 0.34849998E+02 -0.97093E+05
 0.34899998E+02 -0.12289E+06
 0.34949997E+02 -0.85272E+05
 0.34999996E+02 -0.47416E+05
 0.35049999E+02 -0.28373E+05
 0.35099998E+02 -0.61971E+04
 0.35149998E+02  0.73820E+04
 0.35199997E+02 -0.30046E+04
 0.35249996E+02 -0.17463E+05
 0.35299999E+02 -0.34804E+05
 0.35349998E+02 -0.61208E+05
 0.35399998E+02 -0.56809E+05
 0.35449997E+02 -0.52154E+05
 0.35499996E+02 -0.64875E+05
 0.35549999E+02 -0.60036E+05
 0.35599998E+02 -0.40106E+05
 0.35649998E+02 -0.52562E+05
 0.35699997E+02 -0.97646E+05
 0.35749996E+02 -0.13398E+06
 0.35799999E+02 -0.13635E+06
 0.35849998E+02 -0.11779E+06
 0.35899998E+02 -0.12175E+06
 0.35949997E+02 -0.14394E+06
 0.35999996E+02 -0.13777E+06
 0.36049999E+02 -0.11013E+06
 0.36099998E+02 -0.90929E+05
 0.36149998E+02 -0.62720E+05
 0.36199997E+02 -0.14527E+05
 0.36249996E+02  0.43393E+05
 0.36299999E+02  0.65973E+05
 0.36349998E+02  0.28978E+05
 0.36399998E+02 -0.87304E+04
 0.36449997E+02 -0.11336E+05
 0.36499996E+02 -0.97432E+04
 0.36549999E+02 -0.15145E+05
 0.36599998E+02 -0.89889E+04
 0.36649998E+02 -0.74033E+04
 0.36699997E+02 -0.19144E+05
 0.36749996E+02 -0.13722E+05
 0.36799999E+02  0.13545E+05
 0.36849998E+02  0.57264E+05
 0.36899998E+02  0.81633E+05
 0.36949997E+02  0.10007E+06
 0.36999996E+02  0.12857E+06
 0.37049999E+02  0.12308E+06
 0.37099998E+02  0.11036E+06
 0.37149998E+02  0.93188E+05
 0.37199997E+02  0.63819E+05
 0.37249996E+02  0.56714E+05
 0.37299999E+02  0.68062E+05
 0.37349998E+02  0.74720E+05
 0.37399998E+02  0.61576E+05
 0.37449997E+02  0.53813E+05
 0.37499996E+02  0.70147E+05
 0.37549999E+02  0.56105E+05
 0.37599998E+02  0.55236E+04
 0.37649998E+02 -0.20224E+05
 0.37699997E+02 -0.33629E+05
 0.37749996E+02 -0.79921E+05
 0.37799999E+02 -0.14164E+06
 0.37849998E+02 -0.17703E+06
 0.37899998E+02 -0.18887E+06
 0.37949997E+02 -0.18082E+06
 0.37999996E+02 -0.14984E+06
 0.38049999E+02 -0.11601E+06
 0.38099998E+02 -0.76152E+05
 0.38149998E+02 -0.37408E+05
 0.38199997E+02 -0.10541E+04
 0.38249996E+02  0.22411E+05
 0.38299999E+02  0.35961E+05
 0.38349998E+02  0.76297E+05
 0.38399998E+02  0.10982E+06
 0.38449997E+02  0.12923E+06
 0.38499996E+02  0.14136E+06
 0.38549999E+02  0.12634E+06
 0.38599998E+02  0.10232E+06
 0.38649998E+02  0.75036E+05
 0.38699997E+02  0.29176E+05
 0.38749996E+02 -0.10577E+05
 0.38799999E+02 -0.85364E+04
 0.38849998E+02  0.54521E+04
 0.38899998E+02  0.72462E+04
 0.38949997E+02 -0.53221E+04
 0.38999996E+02 -0.22874E+05
 0.39049999E+02 -0.25190E+05
 0.39099998E+02 -0.94663E+04
 0.39149998E+02  0.91456E+04
 0.39199997E+02  0.18077E+05
 0.39249996E+02  0.18280E+05
 0.39299999E+02  0.25671E+05
 0.39349998E+02  0.50674E+05
 0.39399998E+02  0.61485E+05
 0.39449997E+02  0.54769E+05
 0.39499996E+02  0.22680E+05
 0.39549999E+02 -0.29316E+05
 0.39599998E+02 -0.57658E+05
 0.39649998E+02 -0.52486E+05
 0.39699997E+02 -0.27241E+05
 0.39749996E+02  0.49358E+04
 0.39799999E+02  0.48519E+05
 0.39849998E+02  0.93232E+05
 0.39899998E+02  0.10971E+06
 0.39949997E+02  0.86267E+05
 0.39999996E+02  0.53356E+05
 0.40049999E+02  0.37451E+05
 0.40099998E+02  0.29782E+05
 0.40149998E+02  0.48813E+04
 0.40199997E+02 -0.27191E+05
 0.40249996E+02 -0.28219E+05
 0.40299999E+02 -0.79749E+04
 0.40349998E+02  0.18845E+05
 0.40399998E+02  0.55051E+05
 0.40449997E+02  0.77979E+05
 0.40499996E+02  0.62386E+05
 0.40549999E+02  0.30762E+05
 0.40599998E+02 -0.74929E+04
 0.40649998E+02 -0.69449E+05
 0.40699997E+02 -0.13528E+06
 0.40749996E+02 -0.18050E+06
 0.40799999E+02 -0.20935E+06
 0.40849998E+02 -0.22216E+06
 0.40899998E+02 -0.22183E+06
 0.40949997E+02 -0.21216E+06
 0.40999996E+02 -0.16942E+06
 0.41049999E+02 -0.95597E+05
 0.41099998E+02 -0.28167E+05
 0.41149998E+02  0.12289E+05
 0.41199997E+02  0.33637E+05
 0.41249996E+02  0.47463E+05
 0.41299999E+02  0.63396E+05
 0.41349998E+02  0.78785E+05
 0.41399998E+02  0.75689E+05
 0.41449997E+02  0.63075E+05
 0.41499996E+02  0.52666E+05
 0.41549999E+02  0.33127E+05
 0.41599998E+02  0.24024E+04
 0.41649998E+02 -0.18175E+05
 0.41699997E+02 -0.38451E+04
 0.41749996E+02  0.30630E+05
 0.41799999E+02  0.51989E+05
 0.41849998E+02  0.58640E+05
 0.41899998E+02  0.65770E+05
 0.41949997E+02  0.80569E+05
 0.41999996E+02  0.87855E+05
 0.42049999E+02  0.82267E+05
 0.42099998E+02  0.88486E+05
 0.42149998E+02  0.10635E+06
 0.42199997E+02  0.11310E+06
 0.42249996E+02  0.11114E+06
 0.42299999E+02  0.97632E+05
 0.42349998E+02  0.63952E+05
 0.42399998E+02  0.32089E+05
 0.42449997E+02 -0.13747E+04
 0.42499996E+02 -0.34870E+05
 0.42549999E+02 -0.67871E+05
 0.42599998E+02 -0.97636E+05
 0.42649998E+02 -0.10034E+06
 0.42699997E+02 -0.76228E+05
 0.42749996E+02 -0.48580E+05
 0.42799995E+02 -0.24495E+05
 0.42849998E+02  0.20622E+04
 0.42899998E+02  0.12257E+05
 0.42949997E+02  0.10335E+05
 0.42999996E+02  0.14593E+05
 0.43049995E+02  0.34741E+05
 0.43099998E+02  0.68560E+05
 0.43149998E+02  0.95822E+05
 0.43199997E+02  0.11046E+06
 0.43249996E+02  0.10666E+06
 0.43299995E+02  0.93048E+05
 0.43349998E+02  0.79976E+05
 0.43399998E+02  0.52445E+05
 0.43449997E+02  0.27529E+05
 0.43499996E+02  0.23639E+05
 0.43549995E+02  0.24424E+05
 0.43599998E+02  0.64958E+04
 0.43649998E+02 -0.20851E+05
 0.43699997E+02 -0.30391E+05
 0.43749996E+02 -0.25842E+05
 0.43799995E+02 -0.29651E+05
 0.43849998E+02 -0.36984E+05
 0.43899998E+02 -0.55559E+05
 0.43949997E+02 -0.83136E+05
 0.43999996E+02 -0.99385E+05
 0.44049995E+02 -0.10488E+06
 0.44099998E+02 -0.98216E+05
 0.44149998E+02 -0.85247E+05
 0.44199997E+02 -0.70520E+05
 0.44249996E+02 -0.72534E+05
 0.44299995E+02 -0.79633E+05
 0.44349998E+02 -0.76430E+05
 0.44399998E+02 -0.69918E+05
 0.44449997E+02 -0.56576E+05
 0.44499996E+02 -0.40881E+05
 0.44549995E+02 -0.27947E+05
 0.44599998E+02 -0.20399E+05
 0.44649998E+02 -0.20883E+05
 0.44699997E+02 -0.32860E+05
 0.44749996E+02 -0.33102E+05
 0.44799995E+02 -0.24018E+05
 0.44849998E+02 -0.24425E+05
 0.44899998E+02 -0.24299E+05
 0.44949997E+02 -0.25621E+05
 0.44999996E+02 -0.31339E+05
 0.45049995E+02 -0.38506E+05
 0.45099998E+02 -0.44340E+05
 0.45149998E+02 -0.54578E+05
 0.45199997E+02 -0.71915E+05
 0.45249996E+02 -0.85314E+05
 0.45299995E+02 -0.93702E+05
 0.45349998E+02 -0.10868E+06
 0.45399998E+02 -0.12116E+06
 0.45449997E+02 -0.11927E+06
 0.45499996E+02 -0.10295E+06
 0.45549995E+02 -0.71478E+05
 0.45599998E+02 -0.41641E+05
 0.45649998E+02 -0.15236E+05
 0.45699997E+02  0.24882E+05
 0.45749996E+02  0.70627E+05
 0.45799995E+02  0.10409E+06
 0.45849998E+02  0.12621E+06
 0.45899998E+02  0.15646E+06
 0.45949997E+02  0.18568E+06
 0.45999996E+02  0.19082E+06
 0.46049995E+02  0.17308E+06
 0.46099998E+02  0.15778E+06
 0.46149998E+02  0.16139E+06
 0.46199997E+02  0.16282E+06
 0.46249996E+02  0.14952E+06
 0.46299995E+02  0.12777E+06
 0.46349998E+02  0.98875E+05
 0.46399998E+02  0.49396E+05
 0.46449997E+02 -0.12949E+05
 0.46499996E+02 -0.74426E+05
 0.46549995E+02 -0.14648E+06
 0.46599998E+02 -0.22662E+06
 0.46649998E+02 -0.29191E+06
 0.46699997E+02 -0.32324E+06
 0.46749996E+02 -0.33361E+06
 0.46799995E+02 -0.33859E+06
 0.46849998E+02 -0.33564E+06
 0.46899998E+02 -0.31584E+06
 0.46949997E+02 -0.26923E+06
 0.46999996E+02 -0.19019E+06
 0.47049995E+02 -0.76811E+05
 0.47099998E+02  0.38064E+05
 0.47149998E+02  0.11893E+06
 0.47199997E+02  0.17999E+06
 0.47249996E+02  0.24157E+06
 0.47299995E+02  0.30299E+06
 0.47349998E+02  0.36702E+06
 0.47399998E+02  0.42968E+06
 0.47449997E+02  0.48199E+06
 0.47499996E+02  0.52892E+06
 0.47549995E+02  0.56446E+06
 0.47599998E+02  0.55998E+06
 0.47649998E+02  0.51364E+06
 0.47699997E+02  0.45125E+06
 0.47749996E+02  0.38944E+06
 0.47799995E+02  0.31610E+06
 0.47849998E+02  0.22418E+06
 0.47899998E+02  0.12099E+06
 0.47949997E+02 -0.13902E+05
 0.47999996E+02 -0.19038E+06
 0.48049995E+02 -0.38006E+06
 0.48099998E+02 -0.53791E+06
 0.48149998E+02 -0.63495E+06
 0.48199997E+02 -0.68291E+06
 0.48249996E+02 -0.70224E+06
 0.48299995E+02 -0.70173E+06
 0.48349998E+02 -0.69046E+06
 0.48399998E+02 -0.67008E+06
 0.48449997E+02 -0.63031E+06
 0.48499996E+02 -0.56773E+06
 0.48549995E+02 -0.48159E+06
 0.48599998E+02 -0.36834E+06
 0.48649998E+02 -0.23095E+06
 0.48699997E+02 -0.85799E+05
 0.48749996E+02  0.30013E+05
 0.48799995E+02  0.10325E+06
 0.48849998E+02  0.14612E+06
 0.48899998E+02  0.15287E+06
 0.48949997E+02  0.11145E+06
 0.48999996E+02  0.30519E+05
 0.49049995E+02 -0.68897E+05
 0.49099998E+02 -0.16254E+06
 0.49149998E+02 -0.22600E+06
 0.49199997E+02 -0.25051E+06
 0.49249996E+02 -0.23927E+06
 0.49299995E+02 -0.21137E+06
 0.49349998E+02 -0.19023E+06
 0.49399998E+02 -0.18766E+06
 0.49449997E+02 -0.20974E+06
 0.49499996E+02 -0.23395E+06
 0.49549995E+02 -0.23340E+06
 0.49599998E+02 -0.20986E+06
 0.49649998E+02 -0.16652E+06
 0.49699997E+02 -0.11036E+06
 0.49749996E+02 -0.56394E+05
 0.49799995E+02 -0.51022E+04
 0.49849998E+02  0.61740E+05
 0.49899998E+02  0.14202E+06
 0.49949997E+02  0.23828E+06
 0.49999996E+02  0.35224E+06
 0.50049995E+02  0.46519E+06
 0.50099998E+02  0.56483E+06
 0.50149998E+02  0.64307E+06
 0.50199997E+02  0.69732E+06
 0.50249996E+02  0.71854E+06
 0.50299995E+02  0.69756E+06
 0.50349998E+02  0.60343E+06
 0.50399998E+02  0.44370E+06
 0.50449997E+02  0.29379E+06
 0.50499996E+02  0.19572E+06
 0.50549995E+02  0.15494E+06
 0.50599998E+02  0.14840E+06
 0.50649998E+02  0.13658E+06
 0.50699997E+02  0.89821E+05
 0.50749996E+02 -0.12048E+05
 0.50799995E+02 -0.13561E+06
 0.50849998E+02 -0.21266E+06
 0.50899998E+02 -0.19904E+06
 0.50949997E+02 -0.11004E+06
 0.50999996E+02  0.60114E+04
 0.51049995E+02  0.10845E+06
 0.51099998E+02  0.17781E+06
 0.51149998E+02  0.21112E+06
 0.51199997E+02  0.22339E+06
 0.51249996E+02  0.24488E+06
 0.51299995E+02  0.28102E+06
 0.51349998E+02  0.34387E+06
 0.51399998E+02  0.43715E+06
 0.51449997E+02  0.54102E+06
 0.51499996E+02  0.64184E+06
 0.51549995E+02  0.71690E+06
 0.51599998E+02  0.76240E+06
 0.51649998E+02  0.79274E+06
 0.51699997E+02  0.81252E+06
 0.51749996E+02  0.81243E+06
 0.51799995E+02  0.77865E+06
 0.51849998E+02  0.70553E+06
 0.51899998E+02  0.59404E+06
 0.51949997E+02  0.46783E+06
 0.51999996E+02  0.37050E+06
 0.52049995E+02  0.30457E+06
 0.52099998E+02  0.23294E+06
 0.52149998E+02  0.15376E+06
 0.52199997E+02  0.81990E+05
 0.52249996E+02  0.26981E+05
 0.52299995E+02 -0.10837E+05
 0.52349998E+02 -0.34566E+05
 0.52399998E+02 -0.39759E+05
 0.52449997E+02 -0.31644E+05
 0.52499996E+02 -0.28820E+05
 0.52549995E+02 -0.40961E+05
 0.52599998E+02 -0.60413E+05
 0.52649998E+02 -0.92033E+05
 0.52699997E+02 -0.14318E+06
 0.52749996E+02 -0.20047E+06
 0.52799995E+02 -0.24176E+06
 0.52849998E+02 -0.25919E+06
 0.52899998E+02 -0.23499E+06
 0.52949997E+02 -0.16199E+06
 0.52999996E+02 -0.70994E+05
 0.53049995E+02  0.13079E+05
 0.53099998E+02  0.96235E+05
 0.53149998E+02  0.18107E+06
 0.53199997E+02  0.24112E+06
 0.53249996E+02  0.26028E+06
 0.53299995E+02  0.24881E+06
 0.53349998E+02  0.23368E+06
 0.53399998E+02  0.22134E+06
 0.53449997E+02  0.22230E+06
 0.53499996E+02  0.25131E+06
 0.53549995E+02  0.29219E+06
 0.53599998E+02  0.30232E+06
 0.53649998E+02  0.24907E+06
 0.53699997E+02  0.16182E+06
 0.53749996E+02  0.77634E+05
 0.53799995E+02  0.22015E+05
 0.53849998E+02 -0.32678E+04
 0.53899998E+02 -0.20874E+05
 0.53949997E+02 -0.43824E+05
 0.53999996E+02 -0.68283E+05
 0.54049995E+02 -0.86847E+05
 0.54099998E+02 -0.10219E+06
 0.54149998E+02 -0.13927E+06
 0.54199997E+02 -0.21657E+06
 0.54249996E+02 -0.29045E+06
 0.54299995E+02 -0.32712E+06
 0.54349998E+02 -0.33118E+06
 0.54399998E+02 -0.32212E+06
 0.54449997E+02 -0.30999E+06
 0.54499996E+02 -0.28174E+06
 0.54549995E+02 -0.22908E+06
 0.54599998E+02 -0.18699E+06
 0.54649998E+02 -0.19561E+06
 0.54699997E+02 -0.24677E+06
 0.54749996E+02 -0.31945E+06
 0.54799995E+02 -0.37557E+06
 0.54849998E+02 -0.37209E+06
 0.54899998E+02 -0.29433E+06
 0.54949997E+02 -0.15335E+06
 0.54999996E+02  0.27955E+05
 0.55049995E+02  0.21885E+06
 0.55099998E+02  0.39699E+06
 0.55149998E+02  0.53259E+06
 0.55199997E+02  0.60043E+06
 0.55249996E+02  0.60728E+06
 0.55299995E+02  0.55783E+06
 0.55349998E+02  0.45270E+06
 0.55399998E+02  0.32085E+06
 0.55449997E+02  0.20536E+06
 0.55499996E+02  0.13554E+06
 0.55549995E+02  0.13007E+06
 0.55599998E+02  0.19486E+06
 0.55649998E+02  0.30397E+06
 0.55699997E+02  0.41301E+06
 0.55749996E+02  0.48819E+06
 0.55799995E+02  0.50445E+06
 0.55849995E+02  0.45825E+06
 0.55899998E+02  0.35540E+06
 0.55949997E+02  0.22828E+06
 0.55999996E+02  0.13743E+06
 0.56049995E+02  0.10724E+06
 0.56099995E+02  0.12845E+06
 0.56149998E+02  0.17594E+06
 0.56199997E+02  0.21658E+06
 0.56249996E+02  0.21777E+06
 0.56299995E+02  0.16130E+06
 0.56349995E+02  0.67791E+05
 0.56399998E+02 -0.27080E+05
 0.56449997E+02 -0.10996E+06
 0.56499996E+02 -0.17455E+06
 0.56549995E+02 -0.22333E+06
 0.56599995E+02 -0.25776E+06
 0.56649998E+02 -0.27296E+06
 0.56699997E+02 -0.29046E+06
 0.56749996E+02 -0.33807E+06
 0.56799995E+02 -0.41116E+06
 0.56849995E+02 -0.47452E+06
 0.56899998E+02 -0.51494E+06
 0.56949997E+02 -0.54270E+06
 0.56999996E+02 -0.56001E+06
 0.57049995E+02 -0.56844E+06
 0.57099995E+02 -0.56572E+06
 0.57149998E+02 -0.53856E+06
 0.57199997E+02 -0.48325E+06
 0.57249996E+02 -0.40783E+06
 0.57299995E+02 -0.32573E+06
 0.57349995E+02 -0.24227E+06
 0.57399998E+02 -0.14730E+06
 0.57449997E+02 -0.52449E+05
 0.57499996E+02  0.16794E+05
 0.57549995E+02  0.45281E+05
 0.57599995E+02  0.31836E+05
 0.57649998E+02 -0.21918E+05
 0.57699997E+02 -0.10911E+06
 0.57749996E+02 -0.21652E+06
 0.57799995E+02 -0.32348E+06
 0.57849995E+02 -0.40725E+06
 0.57899998E+02 -0.47774E+06
 0.57949997E+02 -0.56044E+06
 0.57999996E+02 -0.66478E+06
 0.58049995E+02 -0.76699E+06
 0.58099995E+02 -0.84292E+06
 0.58149998E+02 -0.89564E+06
 0.58199997E+02 -0.93911E+06
 0.58249996E+02 -0.98863E+06
 0.58299995E+02 -0.10402E+07
 0.58349995E+02 -0.10798E+07
 0.58399998E+02 -0.11006E+07
 0.58449997E+02 -0.10943E+07
 0.58499996E+02 -0.10471E+07
 0.58549995E+02 -0.95568E+06
 0.58599995E+02 -0.83899E+06
 0.58649998E+02 -0.71662E+06
 0.58699997E+02 -0.60268E+06
 0.58749996E+02 -0.50623E+06
 0.58799995E+02 -0.42720E+06
 0.58849995E+02 -0.36491E+06
 0.58899998E+02 -0.31097E+06
 0.58949997E+02 -0.24886E+06
 0.58999996E+02 -0.17756E+06
 0.59049995E+02 -0.11099E+06
 0.59099995E+02 -0.54158E+05
 0.59149998E+02  0.40808E+04
 0.59199997E+02  0.55659E+05
 0.59249996E+02  0.71001E+05
 0.59299995E+02  0.31921E+05
 0.59349995E+02 -0.68447E+05
 0.59399998E+02 -0.21903E+06
 0.59449997E+02 -0.39006E+06
 0.59499996E+02 -0.54040E+06
 0.59549995E+02 -0.63988E+06
 0.59599995E+02 -0.69326E+06
 0.59649998E+02 -0.71727E+06
 0.59699997E+02 -0.72141E+06
 0.59749996E+02 -0.71178E+06
 0.59799995E+02 -0.69436E+06
 0.59849995E+02 -0.67772E+06
 0.59899998E+02 -0.66746E+06
 0.59949997E+02 -0.65453E+06
 0.59999996E+02 -0.63385E+06
 0.60049995E+02 -0.61257E+06
 0.60099995E+02 -0.59345E+06
 0.60149998E+02 -0.59088E+06
 0.60199997E+02 -0.61297E+06
 0.60249996E+02 -0.64506E+06
 0.60299995E+02 -0.66261E+06
 0.60349995E+02 -0.65093E+06
 0.60399998E+02 -0.61223E+06
 0.60449997E+02 -0.56116E+06
 0.60499996E+02 -0.51342E+06
 0.60549995E+02 -0.47359E+06
 0.60599995E+02 -0.43875E+06
 0.60649998E+02 -0.40321E+06
 0.60699997E+02 -0.36159E+06
 0.60749996E+02 -0.30647E+06
 0.60799995E+02 -0.23328E+06
 0.60849995E+02 -0.14576E+06
 0.60899998E+02 -0.56031E+05
 0.60949997E+02  0.29477E+05
 0.60999996E+02  0.10862E+06
 0.61049995E+02  0.18611E+06
 0.61099995E+02  0.27191E+06
 0.61149998E+02  0.36250E+06
 0.61199997E+02  0.44644E+06
 0.61249996E+02  0.51739E+06
 0.61299995E+02  0.58403E+06
 0.61349995E+02  0.65569E+06
 0.61399998E+02  0.72154E+06
 0.61449997E+02  0.76518E+06
 0.61499996E+02  0.77840E+06
 0.61549995E+02  0.77151E+06
 0.61599995E+02  0.75035E+06
 0.61649998E+02  0.70917E+06
 0.61699997E+02  0.65189E+06
 0.61749996E+02  0.58933E+06
 0.61799995E+02  0.53980E+06
 0.61849995E+02  0.51046E+06
 0.61899998E+02  0.48235E+06
 0.61949997E+02  0.44286E+06
 0.61999996E+02  0.40587E+06
 0.62049995E+02  0.37790E+06
 0.62099998E+02  0.35224E+06
 0.62149994E+02  0.32202E+06
 0.62199997E+02  0.28595E+06
 0.62249992E+02  0.25349E+06
 0.62299995E+02  0.21651E+06
 0.62349998E+02  0.16077E+06
 0.62399994E+02  0.99628E+05
 0.62449997E+02  0.56456E+05
 0.62499992E+02  0.41874E+05
 0.62549995E+02  0.52332E+05
 0.62599998E+02  0.77463E+05
 0.62649994E+02  0.10455E+06
 0.62699997E+02  0.13509E+06
 0.62749992E+02  0.18351E+06
 0.62799995E+02  0.25200E+06
 0.62849998E+02  0.33269E+06
 0.62899994E+02  0.41837E+06
 0.62949997E+02  0.49792E+06
 0.62999992E+02  0.55690E+06
 0.63049995E+02  0.58604E+06
 0.63099998E+02  0.58249E+06
 0.63149994E+02  0.55394E+06
 0.63199997E+02  0.51796E+06
 0.63249992E+02  0.48523E+06
 0.63299995E+02  0.45675E+06
 0.63349998E+02  0.42961E+06
 0.63399994E+02  0.40504E+06
 0.63449997E+02  0.39339E+06
 0.63499992E+02  0.38957E+06
 0.63549995E+02  0.38028E+06
 0.63599998E+02  0.36812E+06
 0.63649994E+02  0.35629E+06
 0.63699997E+02  0.33674E+06
 0.63749992E+02  0.30389E+06
 0.63799995E+02  0.25830E+06
 0.63849998E+02  0.21294E+06
 0.63899994E+02  0.18608E+06
 0.63949997E+02  0.18023E+06
 0.63999992E+02  0.18967E+06
 0.64049995E+02  0.19913E+06
 0.64099998E+02  0.19405E+06
 0.64149994E+02  0.18048E+06
 0.64199997E+02  0.17065E+06
 0.64249992E+02  0.16829E+06
 0.64299995E+02  0.17045E+06
 0.64349998E+02  0.16823E+06
 0.64399994E+02  0.15091E+06
 0.64449997E+02  0.12813E+06
 0.64499992E+02  0.11866E+06
 0.64549995E+02  0.12113E+06
 0.64599998E+02  0.13003E+06
 0.64649994E+02  0.14060E+06
 0.64699997E+02  0.14730E+06
 0.64749992E+02  0.14420E+06
 0.64799995E+02  0.13655E+06
 0.64849998E+02  0.14056E+06
 0.64899994E+02  0.15528E+06
 0.64949997E+02  0.17457E+06
 0.64999992E+02  0.20293E+06
 0.65049995E+02  0.24140E+06
 0.65099998E+02  0.28527E+06
 0.65149994E+02  0.33307E+06
 0.65199997E+02  0.38646E+06
 0.65249992E+02  0.44529E+06
 0.65299995E+02  0.50499E+06
 0.65349998E+02  0.55627E+06
 0.65399994E+02  0.58665E+06
 0.65449997E+02  0.58944E+06
 0.65499992E+02  0.56808E+06
 0.65549995E+02  0.53004E+06
 0.65599998E+02  0.47991E+06
 0.65649994E+02  0.41884E+06
 0.65699997E+02  0.35549E+06
 0.65749992E+02  0.30228E+06
 0.65799995E+02  0.25743E+06
 0.65849998E+02  0.21656E+06
 0.65899994E+02  0.19185E+06
 0.65949997E+02  0.19409E+06
 0.65999992E+02  0.22566E+06
 0.66049995E+02  0.27875E+06
 0.66099998E+02  0.34137E+06
 0.66149994E+02  0.41375E+06
 0.66199997E+02  0.49374E+06
 0.66249992E+02  0.57411E+06
 0.66299995E+02  0.65107E+06
 0.66349998E+02  0.72740E+06
 0.66399994E+02  0.80078E+06
 0.66449997E+02  0.86044E+06
 0.66499992E+02  0.89644E+06
 0.66549995E+02  0.90764E+06
 0.66599998E+02  0.88926E+06
 0.66649994E+02  0.83227E+06
 0.66699997E+02  0.74116E+06
 0.66749992E+02  0.63104E+06
 0.66799995E+02  0.51870E+06
 0.66849998E+02  0.41506E+06
 0.66899994E+02  0.32490E+06
 0.66949997E+02  0.24742E+06
 0.66999992E+02  0.18956E+06
 0.67049995E+02  0.15830E+06
 0.67099998E+02  0.14749E+06
 0.67149994E+02  0.14423E+06
 0.67199997E+02  0.13656E+06
 0.67249992E+02  0.11750E+06
 0.67299995E+02  0.88454E+05
 0.67349998E+02  0.57496E+05
 0.67399994E+02  0.26266E+05
 0.67449997E+02 -0.12000E+05
 0.67499992E+02 -0.67410E+05
 0.67549995E+02 -0.14232E+06
 0.67599998E+02 -0.22762E+06
 0.67649994E+02 -0.31280E+06
 0.67699997E+02 -0.39461E+06
 0.67749992E+02 -0.46816E+06
 0.67799995E+02 -0.52400E+06
 0.67849998E+02 -0.55801E+06
 0.67899994E+02 -0.57527E+06
 0.67949997E+02 -0.58353E+06
 0.67999992E+02 -0.59111E+06
 0.68049995E+02 -0.60930E+06
 0.68099998E+02 -0.63681E+06
 0.68149994E+02 -0.66627E+06
 0.68199997E+02 -0.69429E+06
 0.68249992E+02 -0.71976E+06
 0.68299995E+02 -0.73786E+06
 0.68349998E+02 -0.73885E+06
 0.68399994E+02 -0.71679E+06
 0.68449997E+02 -0.67838E+06
 0.68499992E+02 -0.63390E+06
 0.68549995E+02 -0.58337E+06
 0.68599998E+02 -0.53403E+06
 0.68649994E+02 -0.49754E+06
 0.68699997E+02 -0.47494E+06
 0.68749992E+02 -0.46586E+06
 0.68799995E+02 -0.47217E+06
 0.68849998E+02 -0.49049E+06
 0.68899994E+02 -0.51543E+06
 0.68949997E+02 -0.53950E+06
 0.68999992E+02 -0.55240E+06
 0.69049995E+02 -0.54800E+06
 0.69099998E+02 -0.52566E+06
 0.69149994E+02 -0.49136E+06
 0.69199997E+02 -0.45408E+06
 0.69249992E+02 -0.41624E+06
 0.69299995E+02 -0.36944E+06
 0.69349998E+02 -0.30978E+06
 0.69399994E+02 -0.24189E+06
 0.69449997E+02 -0.17082E+06
 0.69499992E+02 -0.10490E+06
 0.69549995E+02 -0.48906E+05
 0.69599998E+02  0.78541E+03
 0.69649994E+02  0.45892E+05
 0.69699997E+02  0.84170E+05
 0.69749992E+02  0.11906E+06
 0.69799995E+02  0.15784E+06
 0.69849998E+02  0.19928E+06
 0.69899994E+02  0.23369E+06
 0.69949997E+02  0.25821E+06
 0.69999992E+02  0.27585E+06
 0.70049995E+02  0.28669E+06
 0.70099998E+02  0.28796E+06
 0.70149994E+02  0.27363E+06
 0.70199997E+02  0.24304E+06
 0.70249992E+02  0.20921E+06
 0.70299995E+02  0.19011E+06
 0.70349998E+02  0.19177E+06
 0.70399994E+02  0.20745E+06
 0.70449997E+02  0.22665E+06
 0.70499992E+02  0.24457E+06
 0.70549995E+02  0.25909E+06
 0.70599998E+02  0.27140E+06
 0.70649994E+02  0.28193E+06
 0.70699997E+02  0.28501E+06
 0.70749992E+02  0.27744E+06
 0.70799995E+02  0.25716E+06
 0.70849998E+02  0.23129E+06
 0.70899994E+02  0.20824E+06
 0.70949997E+02  0.19188E+06
 0.70999992E+02  0.18143E+06
 0.71049995E+02  0.17187E+06
 0.71099998E+02  0.15784E+06
 0.71149994E+02  0.13497E+06
 0.71199997E+02  0.10063E+06
 0.71249992E+02  0.56095E+05
 0.71299995E+02  0.76871E+04
 0.71349998E+02 -0.37563E+05
 0.71399994E+02 -0.75350E+05
 0.71449997E+02 -0.10742E+06
 0.71499992E+02 -0.14045E+06
 0.71549995E+02 -0.18461E+06
 0.71599998E+02 -0.24258E+06
 0.71649994E+02 -0.31021E+06
 0.71699997E+02 -0.37818E+06
 0.71749992E+02 -0.43442E+06
 0.71799995E+02 -0.47271E+06
 0.71849998E+02 -0.49798E+06
 0.71899994E+02 -0.52170E+06
 0.71949997E+02 -0.54651E+06
 0.71999992E+02 -0.56582E+06
 0.72049995E+02 -0.56940E+06
 0.72099998E+02 -0.55030E+06
 0.72149994E+02 -0.51061E+06
 0.72199997E+02 -0.45561E+06
 0.72249992E+02 -0.39082E+06
 0.72299995E+02 -0.32668E+06
 0.72349998E+02 -0.27638E+06
 0.72399994E+02 -0.24396E+06
 0.72449997E+02 -0.22137E+06
 0.72499992E+02 -0.20002E+06
 0.72549995E+02 -0.17752E+06
 0.72599998E+02 -0.15277E+06
 0.72649994E+02 -0.12497E+06
 0.72699997E+02 -0.96629E+05
 0.72749992E+02 -0.65978E+05
 0.72799995E+02 -0.30350E+05
 0.72849998E+02  0.80455E+04
 0.72899994E+02  0.45432E+05
 0.72949997E+02  0.77679E+05
 0.72999992E+02  0.10068E+06
 0.73049995E+02  0.10926E+06
 0.73099998E+02  0.10427E+06
 0.73149994E+02  0.95116E+05
 0.73199997E+02  0.90967E+05
 0.73249992E+02  0.89127E+05
 0.73299995E+02  0.84320E+05
 0.73349998E+02  0.81454E+05
 0.73399994E+02  0.85482E+05
 0.73449997E+02  0.90823E+05
 0.73499992E+02  0.85743E+05
 0.73549995E+02  0.66436E+05
 0.73599998E+02  0.38473E+05
 0.73649994E+02  0.47509E+04
 0.73699997E+02 -0.30969E+05
 0.73749992E+02 -0.62428E+05
 0.73799995E+02 -0.90601E+05
 0.73849998E+02 -0.11900E+06
 0.73899994E+02 -0.15319E+06
 0.73949997E+02 -0.19411E+06
 0.73999992E+02 -0.23341E+06
 0.74049995E+02 -0.26388E+06
 0.74099998E+02 -0.28231E+06
 0.74149994E+02 -0.28709E+06
 0.74199997E+02 -0.27908E+06
 0.74249992E+02 -0.26186E+06
 0.74299995E+02 -0.23844E+06
 0.74349998E+02 -0.20816E+06
 0.74399994E+02 -0.17133E+06
 0.74449997E+02 -0.13115E+06
 0.74499992E+02 -0.86289E+05
 0.74549995E+02 -0.34297E+05
 0.74599998E+02  0.18053E+05
 0.74649994E+02  0.58941E+05
 0.74699997E+02  0.81401E+05
 0.74749992E+02  0.85483E+05
 0.74799995E+02  0.76618E+05
 0.74849998E+02  0.62761E+05
 0.74899994E+02  0.47021E+05
 0.74949997E+02  0.25766E+05
 0.74999992E+02 -0.21942E+04
 0.75049995E+02 -0.35696E+05
 0.75099998E+02 -0.73681E+05
 0.75149994E+02 -0.11062E+06
 0.75199997E+02 -0.13724E+06
 0.75249992E+02 -0.15251E+06
 0.75299995E+02 -0.16528E+06
 0.75349998E+02 -0.18182E+06
 0.75399994E+02 -0.20394E+06
 0.75449997E+02 -0.22872E+06
 0.75499992E+02 -0.25272E+06
 0.75549995E+02 -0.27621E+06
 0.75599998E+02 -0.29762E+06
 0.75649994E+02 -0.31259E+06
 0.75699997E+02 -0.32121E+06
 0.75749992E+02 -0.32576E+06
 0.75799995E+02 -0.32136E+06
 0.75849998E+02 -0.30011E+06
 0.75899994E+02 -0.26054E+06
 0.75949997E+02 -0.20980E+06
 0.75999992E+02 -0.15670E+06
 0.76049995E+02 -0.10833E+06
 0.76099998E+02 -0.67103E+05
 0.76149994E+02 -0.29254E+05
 0.76199997E+02  0.90967E+04
 0.76249992E+02  0.50477E+05
 0.76299995E+02  0.95785E+05
 0.76349998E+02  0.14397E+06
 0.76399994E+02  0.19019E+06
 0.76449997E+02  0.22818E+06
 0.76499992E+02  0.25655E+06
 0.76549995E+02  0.27958E+06
 0.76599998E+02  0.29886E+06
 0.76649994E+02  0.31230E+06
 0.76699997E+02  0.32142E+06
 0.76749992E+02  0.32991E+06
 0.76799995E+02  0.33948E+06
 0.76849998E+02  0.35181E+06
 0.76899994E+02  0.36996E+06
 0.76949997E+02  0.39642E+06
 0.76999992E+02  0.43233E+06
 0.77049995E+02  0.47654E+06
 0.77099998E+02  0.52225E+06
 0.77149994E+02  0.56010E+06
 0.77199997E+02  0.58505E+06
 0.77249992E+02  0.59349E+06
 0.77299995E+02  0.57930E+06
 0.77349998E+02  0.53839E+06
 0.77399994E+02  0.47353E+06
 0.77449997E+02  0.38907E+06
 0.77499992E+02  0.29119E+06
 0.77549995E+02  0.18632E+06
 0.77599998E+02  0.77687E+05
 0.77649994E+02 -0.28870E+05
 0.77699997E+02 -0.12317E+06
 0.77749992E+02 -0.19725E+06
 0.77799995E+02 -0.24945E+06
 0.77849998E+02 -0.28046E+06
 0.77899994E+02 -0.29075E+06
 0.77949997E+02 -0.28299E+06
 0.77999992E+02 -0.26136E+06
 0.78049995E+02 -0.22952E+06
 0.78099998E+02 -0.19137E+06
 0.78149994E+02 -0.15285E+06
 0.78199997E+02 -0.11904E+06
 0.78249992E+02 -0.94185E+05
 0.78299995E+02 -0.81378E+05
 0.78349998E+02 -0.78122E+05
 0.78399994E+02 -0.80642E+05
 0.78449997E+02 -0.86383E+05
 0.78499992E+02 -0.92602E+05
 0.78549995E+02 -0.98836E+05
 0.78599998E+02 -0.10647E+06
 0.78649994E+02 -0.11399E+06
 0.78699997E+02 -0.11666E+06
 0.78749992E+02 -0.10945E+06
 0.78799995E+02 -0.88731E+05
 0.78849998E+02 -0.57343E+05
 0.78899994E+02 -0.24386E+05
 0.78949997E+02  0.16292E+04
 0.78999992E+02  0.13618E+05
 0.79049995E+02  0.81293E+04
 0.79099998E+02 -0.12338E+05
 0.79149994E+02 -0.39692E+05
 0.79199997E+02 -0.62564E+05
 0.79249992E+02 -0.73043E+05
 0.79299995E+02 -0.71314E+05
 0.79349998E+02 -0.59805E+05
 0.79399994E+02 -0.38082E+05
 0.79449997E+02 -0.76641E+04
 0.79499992E+02  0.27877E+05
 0.79549995E+02  0.66179E+05
 0.79599998E+02  0.10477E+06
 0.79649994E+02  0.13878E+06
 0.79699997E+02  0.16341E+06
 0.79749992E+02  0.17730E+06
 0.79799995E+02  0.18521E+06
 0.79849998E+02  0.19203E+06
 0.79899994E+02  0.19511E+06
 0.79949997E+02  0.19305E+06
 0.79999992E+02  0.18864E+06
 0.80049995E+02  0.18356E+06
 0.80099998E+02  0.17715E+06
 0.80149994E+02  0.16989E+06
 0.80199997E+02  0.16500E+06
 0.80249992E+02  0.16248E+06
 0.80299995E+02  0.15678E+06
 0.80349998E+02  0.14235E+06
 0.80399994E+02  0.11948E+06
 0.80449997E+02  0.92282E+05
 0.80499992E+02  0.68123E+05
 0.80549995E+02  0.54815E+05
 0.80599998E+02  0.53147E+05
 0.80649994E+02  0.56898E+05
 0.80699997E+02  0.58525E+05
 0.80749992E+02  0.52679E+05
 0.80799995E+02  0.37873E+05
 0.80849998E+02  0.16074E+05
 0.80899994E+02 -0.67541E+04
 0.80949997E+02 -0.22876E+05
 0.80999992E+02 -0.28902E+05
 0.81049995E+02 -0.25472E+05
 0.81099998E+02 -0.16853E+05
 0.81149994E+02 -0.94141E+04
 0.81199997E+02 -0.73001E+04
 0.81249992E+02 -0.10256E+05
 0.81299995E+02 -0.15634E+05
 0.81349998E+02 -0.21072E+05
 0.81399994E+02 -0.27816E+05
 0.81449997E+02 -0.38439E+05
 0.81499992E+02 -0.52949E+05
 0.81549995E+02 -0.70577E+05
 0.81599998E+02 -0.91468E+05
 0.81649994E+02 -0.11526E+06
 0.81699997E+02 -0.14092E+06
 0.81749992E+02 -0.16527E+06
 0.81799995E+02 -0.17895E+06
 0.81849998E+02 -0.17513E+06
 0.81899994E+02 -0.15571E+06
 0.81949997E+02 -0.12788E+06
 0.81999992E+02 -0.96252E+05
 0.82049995E+02 -0.61585E+05
 0.82099998E+02 -0.25707E+05
 0.82149994E+02  0.78343E+04
 0.82199997E+02  0.37103E+05
 0.82249992E+02  0.63568E+05
 0.82299995E+02  0.87282E+05
 0.82349998E+02  0.10600E+06
 0.82399994E+02  0.11791E+06
 0.82449997E+02  0.12092E+06
 0.82499992E+02  0.11358E+06
 0.82549995E+02  0.10103E+06
 0.82599998E+02  0.93188E+05
 0.82649994E+02  0.96000E+05
 0.82699997E+02  0.10939E+06
 0.82749992E+02  0.13121E+06
 0.82799995E+02  0.15745E+06
 0.82849998E+02  0.18134E+06
 0.82899994E+02  0.19711E+06
 0.82949997E+02  0.20152E+06
 0.82999992E+02  0.19317E+06
 0.83049995E+02  0.17430E+06
 0.83099998E+02  0.14687E+06
 0.83149994E+02  0.11202E+06
 0.83199997E+02  0.72986E+05
 0.83249992E+02  0.34021E+05
 0.83299995E+02  0.55860E+03
 0.83349998E+02 -0.22885E+05
 0.83399994E+02 -0.34319E+05
 0.83449997E+02 -0.34274E+05
 0.83499992E+02 -0.23847E+05
 0.83549995E+02 -0.39955E+04
 0.83599998E+02  0.22768E+05
 0.83649994E+02  0.50955E+05
 0.83699997E+02  0.75155E+05
 0.83749992E+02  0.95457E+05
 0.83799995E+02  0.11584E+06
 0.83849998E+02  0.13536E+06
 0.83899994E+02  0.14801E+06
 0.83949997E+02  0.14860E+06
 0.83999992E+02  0.13411E+06
 0.84049995E+02  0.10592E+06
 0.84099998E+02  0.69267E+05
 0.84149994E+02  0.29347E+05
 0.84199997E+02 -0.10500E+05
 0.84249992E+02 -0.48048E+05
 0.84299995E+02 -0.82750E+05
 0.84349998E+02 -0.11448E+06
 0.84399994E+02 -0.14398E+06
 0.84449997E+02 -0.17120E+06
 0.84499992E+02 -0.19352E+06
 0.84549995E+02 -0.21036E+06
 0.84599998E+02 -0.22577E+06
 0.84649994E+02 -0.24441E+06
 0.84699997E+02 -0.26623E+06
 0.84749992E+02 -0.28681E+06
 0.84799995E+02 -0.30056E+06
 0.84849998E+02 -0.30269E+06
 0.84899994E+02 -0.28970E+06
 0.84949997E+02 -0.26092E+06
 0.84999992E+02 -0.21898E+06
 0.85049995E+02 -0.17000E+06
 0.85099998E+02 -0.12035E+06
 0.85149994E+02 -0.74190E+05
 0.85199997E+02 -0.34980E+05
 0.85249992E+02 -0.51434E+04
 0.85299995E+02  0.14842E+05
 0.85349998E+02  0.26250E+05
 0.85399994E+02  0.32259E+05
 0.85449997E+02  0.36975E+05
 0.85499992E+02  0.42202E+05
 0.85549995E+02  0.48504E+05
 0.85599998E+02  0.56554E+05
 0.85649994E+02  0.65687E+05
 0.85699997E+02  0.75063E+05
 0.85749992E+02  0.85947E+05
 0.85799995E+02  0.10144E+06
 0.85849998E+02  0.12292E+06
 0.85899994E+02  0.14902E+06
 0.85949997E+02  0.17750E+06
 0.85999992E+02  0.20677E+06
 0.86049995E+02  0.23400E+06
 0.86099998E+02  0.25592E+06
 0.86149994E+02  0.27142E+06
 0.86199997E+02  0.28092E+06
 0.86249992E+02  0.28521E+06
 0.86299995E+02  0.28486E+06
 0.86349998E+02  0.28306E+06
 0.86399994E+02  0.28274E+06
 0.86449997E+02  0.28694E+06
 0.86499992E+02  0.29694E+06
 0.86549995E+02  0.31038E+06
 0.86599998E+02  0.32277E+06
 0.86649994E+02  0.32948E+06
 0.86699997E+02  0.33015E+06
 0.86749992E+02  0.32633E+06
 0.86799995E+02  0.31738E+06
 0.86849998E+02  0.29909E+06
 0.86899994E+02  0.26681E+06
 0.86949997E+02  0.21896E+06
 0.86999992E+02  0.15861E+06
 0.87049995E+02  0.90453E+05
 0.87099998E+02  0.18170E+05
 0.87149994E+02 -0.56125E+05
 0.87199997E+02 -0.13017E+06
 0.87249992E+02 -0.19929E+06
 0.87299995E+02 -0.25996E+06
 0.87349998E+02 -0.31151E+06
 0.87399994E+02 -0.35328E+06
 0.87449997E+02 -0.38423E+06
 0.87499992E+02 -0.40462E+06
 0.87549995E+02 -0.41628E+06
 0.87599991E+02 -0.41990E+06
 0.87649994E+02 -0.41506E+06
 0.87699997E+02 -0.40198E+06
 0.87749992E+02 -0.38127E+06
 0.87799995E+02 -0.35402E+06
 0.87849991E+02 -0.32204E+06
 0.87899994E+02 -0.28901E+06
 0.87949997E+02 -0.25826E+06
 0.87999992E+02 -0.22962E+06
 0.88049995E+02 -0.20118E+06
 0.88099991E+02 -0.17219E+06
 0.88149994E+02 -0.14375E+06
 0.88199997E+02 -0.11986E+06
 0.88249992E+02 -0.10329E+06
 0.88299995E+02 -0.91630E+05
 0.88349991E+02 -0.81337E+05
 0.88399994E+02 -0.71758E+05
 0.88449997E+02 -0.64834E+05
 0.88499992E+02 -0.62893E+05
 0.88549995E+02 -0.67364E+05
 0.88599991E+02 -0.77915E+05
 0.88649994E+02 -0.93003E+05
 0.88699997E+02 -0.11198E+06
 0.88749992E+02 -0.13430E+06
 0.88799995E+02 -0.15665E+06
 0.88849991E+02 -0.17439E+06
 0.88899994E+02 -0.18423E+06
 0.88949997E+02 -0.18571E+06
 0.88999992E+02 -0.17902E+06
 0.89049995E+02 -0.16378E+06
 0.89099991E+02 -0.14068E+06
 0.89149994E+02 -0.10969E+06
 0.89199997E+02 -0.70485E+05
 0.89249992E+02 -0.25225E+05
 0.89299995E+02  0.23731E+05
 0.89349991E+02  0.73512E+05
 0.89399994E+02  0.11829E+06
 0.89449997E+02  0.15187E+06
 0.89499992E+02  0.17037E+06
 0.89549995E+02  0.17444E+06
 0.89599991E+02  0.16632E+06
 0.89649994E+02  0.14803E+06
 0.89699997E+02  0.12325E+06
 0.89749992E+02  0.96574E+05
 0.89799995E+02  0.70737E+05
 0.89849991E+02  0.45488E+05
 0.89899994E+02  0.19590E+05
 0.89949997E+02 -0.66021E+04
 0.89999992E+02 -0.29098E+05
 0.90049995E+02 -0.42592E+05
 0.90099991E+02 -0.47104E+05
 0.90149994E+02 -0.47535E+05
 0.90199997E+02 -0.48438E+05
 0.90249992E+02 -0.51327E+05
 0.90299995E+02 -0.55541E+05
 0.90349991E+02 -0.61689E+05
 0.90399994E+02 -0.71822E+05
 0.90449997E+02 -0.86244E+05
 0.90499992E+02 -0.10238E+06
 0.90549995E+02 -0.11702E+06
 0.90599991E+02 -0.12935E+06
 0.90649994E+02 -0.13995E+06
 0.90699997E+02 -0.14821E+06
 0.90749992E+02 -0.15302E+06
 0.90799995E+02 -0.15306E+06
 0.90849991E+02 -0.14831E+06
 0.90899994E+02 -0.14114E+06
 0.90949997E+02 -0.13326E+06
 0.90999992E+02 -0.12480E+06
 0.91049995E+02 -0.11524E+06
 0.91099991E+02 -0.10169E+06
 0.91149994E+02 -0.81612E+05
 0.91199997E+02 -0.56637E+05
 0.91249992E+02 -0.30609E+05
 0.91299995E+02 -0.53750E+04
 0.91349991E+02  0.17995E+05
 0.91399994E+02  0.36149E+05
 0.91449997E+02  0.46471E+05
 0.91499992E+02  0.50511E+05
 0.91549995E+02  0.50722E+05
 0.91599991E+02  0.47368E+05
 0.91649994E+02  0.40366E+05
 0.91699997E+02  0.31094E+05
 0.91749992E+02  0.22924E+05
 0.91799995E+02  0.19430E+05
 0.91849991E+02  0.22465E+05
 0.91899994E+02  0.32321E+05
 0.91949997E+02  0.48005E+05
 0.91999992E+02  0.66749E+05
 0.92049995E+02  0.86541E+05
 0.92099991E+02  0.10724E+06
 0.92149994E+02  0.12941E+06
 0.92199997E+02  0.15385E+06
 0.92249992E+02  0.17939E+06
 0.92299995E+02  0.20330E+06
 0.92349991E+02  0.22407E+06
 0.92399994E+02  0.24261E+06
 0.92449997E+02  0.25905E+06
 0.92499992E+02  0.27134E+06
 0.92549995E+02  0.27830E+06
 0.92599991E+02  0.28100E+06
 0.92649994E+02  0.28200E+06
 0.92699997E+02  0.28300E+06
 0.92749992E+02  0.28487E+06
 0.92799995E+02  0.28899E+06
 0.92849991E+02  0.29539E+06
 0.92899994E+02  0.30210E+06
 0.92949997E+02  0.30514E+06
 0.92999992E+02  0.30008E+06
 0.93049995E+02  0.28549E+06
 0.93099991E+02  0.26359E+06
 0.93149994E+02  0.23694E+06
 0.93199997E+02  0.20567E+06
 0.93249992E+02  0.16903E+06
 0.93299995E+02  0.12764E+06
 0.93349991E+02  0.82789E+05
 0.93399994E+02  0.36764E+05
 0.93449997E+02 -0.74575E+04
 0.93499992E+02 -0.46846E+05
 0.93549995E+02 -0.79053E+05
 0.93599991E+02 -0.10293E+06
 0.93649994E+02 -0.11756E+06
 0.93699997E+02 -0.12326E+06
 0.93749992E+02 -0.12238E+06
 0.93799995E+02 -0.11713E+06
 0.93849991E+02 -0.10733E+06
 0.93899994E+02 -0.93628E+05
 0.93949997E+02 -0.76761E+05
 0.93999992E+02 -0.55777E+05
 0.94049995E+02 -0.31571E+05
 0.94099991E+02 -0.61450E+04
 0.94149994E+02  0.19232E+05
 0.94199997E+02  0.42508E+05
 0.94249992E+02  0.60162E+05
 0.94299995E+02  0.69791E+05
 0.94349991E+02  0.70906E+05
 0.94399994E+02  0.64454E+05
 0.94449997E+02  0.52088E+05
 0.94499992E+02  0.34463E+05
 0.94549995E+02  0.11977E+05
 0.94599991E+02 -0.13597E+05
 0.94649994E+02 -0.40896E+05
 0.94699997E+02 -0.68768E+05
 0.94749992E+02 -0.93400E+05
 0.94799995E+02 -0.11118E+06
 0.94849991E+02 -0.12081E+06
 0.94899994E+02 -0.12381E+06
 0.94949997E+02 -0.12375E+06
 0.94999992E+02 -0.12268E+06
 0.95049995E+02 -0.12016E+06
 0.95099991E+02 -0.11559E+06
 0.95149994E+02 -0.10983E+06
 0.95199997E+02 -0.10420E+06
 0.95249992E+02 -0.10014E+06
 0.95299995E+02 -0.99211E+05
 0.95349991E+02 -0.10219E+06
 0.95399994E+02 -0.10873E+06
 0.95449997E+02 -0.11782E+06
 0.95499992E+02 -0.12707E+06
 0.95549995E+02 -0.13372E+06
 0.95599991E+02 -0.13646E+06
 0.95649994E+02 -0.13465E+06
 0.95699997E+02 -0.12705E+06
 0.95749992E+02 -0.11106E+06
 0.95799995E+02 -0.85142E+05
 0.95849991E+02 -0.52283E+05
 0.95899994E+02 -0.19171E+05
 0.95949997E+02  0.82506E+04
 0.95999992E+02  0.28338E+05
 0.96049995E+02  0.43293E+05
 0.96099991E+02  0.55478E+05
 0.96149994E+02  0.66088E+05
 0.96199997E+02  0.75379E+05
 0.96249992E+02  0.82802E+05
 0.96299995E+02  0.87800E+05
 0.96349991E+02  0.90075E+05
 0.96399994E+02  0.89848E+05
 0.96449997E+02  0.88070E+05
 0.96499992E+02  0.85431E+05
 0.96549995E+02  0.81800E+05
 0.96599991E+02  0.77848E+05
 0.96649994E+02  0.74635E+05
 0.96699997E+02  0.72618E+05
 0.96749992E+02  0.70090E+05
 0.96799995E+02  0.63948E+05
 0.96849991E+02  0.52732E+05
 0.96899994E+02  0.37618E+05
 0.96949997E+02  0.20399E+05
 0.96999992E+02  0.15686E+04
 0.97049995E+02 -0.18891E+05
 0.97099991E+02 -0.40781E+05
 0.97149994E+02 -0.61844E+05
 0.97199997E+02 -0.78669E+05
 0.97249992E+02 -0.89578E+05
 0.97299995E+02 -0.94391E+05
 0.97349991E+02 -0.94748E+05
 0.97399994E+02 -0.93227E+05
 0.97449997E+02 -0.90998E+05
 0.97499992E+02 -0.88232E+05
 0.97549995E+02 -0.84072E+05
 0.97599991E+02 -0.77404E+05
 0.97649994E+02 -0.67798E+05
 0.97699997E+02 -0.55407E+05
 0.97749992E+02 -0.40945E+05
 0.97799995E+02 -0.25626E+05
 0.97849991E+02 -0.11948E+05
 0.97899994E+02 -0.30510E+04
 0.97949997E+02 -0.11105E+04
 0.97999992E+02 -0.66180E+04
