-0.19800000E+01  0.23852E+05
-0.19300001E+01  0.24420E+05
-0.18800000E+01  0.24283E+05
-0.18300000E+01  0.24205E+05
-0.17800000E+01  0.24171E+05
-0.17300000E+01  0.23007E+05
-0.16800001E+01  0.21521E+05
-0.16300000E+01  0.19801E+05
-0.15800000E+01  0.17447E+05
-0.15300000E+01  0.14826E+05
-0.14800000E+01  0.12523E+05
-0.14300001E+01  0.99600E+04
-0.13800000E+01  0.58710E+04
-0.13299999E+01  0.39800E+03
-0.12800000E+01 -0.54570E+04
-0.12300000E+01 -0.11124E+05
-0.11800001E+01 -0.16666E+05
-0.11300000E+01 -0.21805E+05
-0.10799999E+01 -0.27238E+05
-0.10300000E+01 -0.32980E+05
-0.98000002E+00 -0.38085E+05
-0.92999995E+00 -0.41735E+05
-0.88000000E+00 -0.43159E+05
-0.83000004E+00 -0.42803E+05
-0.77999997E+00 -0.41478E+05
-0.73000002E+00 -0.39523E+05
-0.67999995E+00 -0.36133E+05
-0.63000000E+00 -0.31118E+05
-0.58000004E+00 -0.25451E+05
-0.52999997E+00 -0.19335E+05
-0.48000002E+00 -0.13378E+05
-0.42999995E+00 -0.78480E+04
-0.38000000E+00 -0.23480E+04
-0.33000004E+00  0.22650E+04
-0.27999997E+00  0.57750E+04
-0.23000002E+00  0.83870E+04
-0.17999995E+00  0.10358E+05
-0.13000000E+00  0.12937E+05
-0.80000043E-01  0.15712E+05
-0.29999971E-01  0.18350E+05
 0.19999981E-01  0.21477E+05
 0.69999933E-01  0.25012E+05
 0.12000012E+00  0.29109E+05
 0.17000008E+00  0.33170E+05
 0.22000003E+00  0.37646E+05
 0.26999998E+00  0.43694E+05
 0.31999993E+00  0.50077E+05
 0.37000012E+00  0.55778E+05
 0.42000008E+00  0.60933E+05
 0.47000003E+00  0.65344E+05
 0.51999998E+00  0.68671E+05
 0.56999993E+00  0.70964E+05
 0.62000012E+00  0.72693E+05
 0.67000008E+00  0.73320E+05
 0.72000003E+00  0.72007E+05
 0.76999998E+00  0.69149E+05
 0.81999993E+00  0.65295E+05
 0.87000012E+00  0.60397E+05
 0.92000008E+00  0.54923E+05
 0.97000003E+00  0.49488E+05
 0.10200000E+01  0.43939E+05
 0.10699999E+01  0.38269E+05
 0.11200001E+01  0.32871E+05
 0.11700001E+01  0.28115E+05
 0.12200000E+01  0.23765E+05
 0.12700000E+01  0.19750E+05
 0.13199999E+01  0.15964E+05
 0.13700001E+01  0.12341E+05
 0.14200001E+01  0.87070E+04
 0.14700000E+01  0.44260E+04
 0.15200000E+01 -0.28200E+03
 0.15699999E+01 -0.58430E+04
 0.16200001E+01 -0.12648E+05
 0.16700001E+01 -0.20421E+05
 0.17200000E+01 -0.28834E+05
 0.17700000E+01 -0.37302E+05
 0.18199999E+01 -0.45496E+05
 0.18700001E+01 -0.52708E+05
 0.19200001E+01 -0.58614E+05
 0.19700000E+01 -0.63125E+05
 0.20200000E+01 -0.66010E+05
 0.20700002E+01 -0.67693E+05
 0.21199999E+01 -0.68199E+05
 0.21700001E+01 -0.66954E+05
 0.22200003E+01 -0.64077E+05
 0.22700000E+01 -0.60756E+05
 0.23200002E+01 -0.57591E+05
 0.23699999E+01 -0.54157E+05
 0.24200001E+01 -0.51145E+05
 0.24700003E+01 -0.49162E+05
 0.25200000E+01 -0.47098E+05
 0.25700002E+01 -0.44087E+05
 0.26199999E+01 -0.40323E+05
 0.26700001E+01 -0.35718E+05
 0.27200003E+01 -0.30240E+05
 0.27700000E+01 -0.24104E+05
 0.28200002E+01 -0.17518E+05
 0.28699999E+01 -0.10273E+05
 0.29200001E+01 -0.18120E+04
 0.29700003E+01  0.68520E+04
 0.30200000E+01  0.15035E+05
 0.30700002E+01  0.23099E+05
 0.31199999E+01  0.30980E+05
 0.31700001E+01  0.38125E+05
 0.32200003E+01  0.43991E+05
 0.32700000E+01  0.48396E+05
 0.33200002E+01  0.51386E+05
 0.33699999E+01  0.53152E+05
 0.34200001E+01  0.53138E+05
 0.34700003E+01  0.51455E+05
 0.35200000E+01  0.48362E+05
 0.35700002E+01  0.43537E+05
 0.36199999E+01  0.37402E+05
 0.36700001E+01  0.30431E+05
 0.37200003E+01  0.22543E+05
 0.37700000E+01  0.13461E+05
 0.38200002E+01  0.35230E+04
 0.38699999E+01 -0.71870E+04
 0.39200001E+01 -0.18340E+05
 0.39700003E+01 -0.28527E+05
 0.40200000E+01 -0.37397E+05
 0.40700002E+01 -0.44762E+05
 0.41199999E+01 -0.49884E+05
 0.41700001E+01 -0.53365E+05
 0.42200003E+01 -0.55558E+05
 0.42700000E+01 -0.55971E+05
 0.43200002E+01 -0.54347E+05
 0.43699999E+01 -0.50552E+05
 0.44200001E+01 -0.44655E+05
 0.44700003E+01 -0.37258E+05
 0.45200000E+01 -0.29823E+05
 0.45700002E+01 -0.22833E+05
 0.46199999E+01 -0.16051E+05
 0.46700001E+01 -0.10154E+05
 0.47200003E+01 -0.56320E+04
 0.47700000E+01 -0.24830E+04
 0.48200002E+01 -0.13040E+04
 0.48699999E+01 -0.16600E+04
 0.49200001E+01 -0.20860E+04
 0.49700003E+01 -0.28940E+04
 0.50200000E+01 -0.50330E+04
 0.50700002E+01 -0.84530E+04
 0.51199999E+01 -0.12098E+05
 0.51700001E+01 -0.15963E+05
 0.52200003E+01 -0.19815E+05
 0.52700000E+01 -0.23185E+05
 0.53200002E+01 -0.27308E+05
 0.53699999E+01 -0.32224E+05
 0.54200001E+01 -0.37495E+05
 0.54700003E+01 -0.42534E+05
 0.55200000E+01 -0.46517E+05
 0.55700002E+01 -0.48800E+05
 0.56199999E+01 -0.49466E+05
 0.56700001E+01 -0.49178E+05
 0.57200003E+01 -0.47888E+05
 0.57700000E+01 -0.45500E+05
 0.58200002E+01 -0.42216E+05
 0.58699999E+01 -0.39037E+05
 0.59200001E+01 -0.35993E+05
 0.59700003E+01 -0.33459E+05
 0.60200000E+01 -0.31614E+05
 0.60700002E+01 -0.29569E+05
 0.61200004E+01 -0.27507E+05
 0.61700006E+01 -0.24991E+05
 0.62199998E+01 -0.22278E+05
 0.62700000E+01 -0.19712E+05
 0.63200002E+01 -0.16805E+05
 0.63700004E+01 -0.13618E+05
 0.64200006E+01 -0.10182E+05
 0.64699998E+01 -0.70530E+04
 0.65200000E+01 -0.43020E+04
 0.65700002E+01 -0.12730E+04
 0.66200004E+01  0.15730E+04
 0.66700006E+01  0.42280E+04
 0.67199998E+01  0.66950E+04
 0.67700000E+01  0.84330E+04
 0.68200002E+01  0.92200E+04
 0.68700004E+01  0.89450E+04
 0.69200006E+01  0.85370E+04
 0.69699998E+01  0.82140E+04
 0.70200000E+01  0.82150E+04
 0.70700002E+01  0.85380E+04
 0.71200004E+01  0.89830E+04
 0.71700006E+01  0.98750E+04
 0.72199998E+01  0.10061E+05
 0.72700000E+01  0.99120E+04
 0.73200002E+01  0.99670E+04
 0.73700004E+01  0.95650E+04
 0.74200006E+01  0.83480E+04
 0.74699998E+01  0.66110E+04
 0.75200000E+01  0.57190E+04
 0.75700002E+01  0.54230E+04
 0.76200004E+01  0.59410E+04
 0.76700006E+01  0.77200E+04
 0.77199998E+01  0.10555E+05
 0.77700000E+01  0.14381E+05
 0.78200002E+01  0.18087E+05
 0.78700004E+01  0.21270E+05
 0.79200006E+01  0.23428E+05
 0.79699998E+01  0.25073E+05
 0.80200005E+01  0.26521E+05
 0.80699997E+01  0.27518E+05
 0.81200008E+01  0.28983E+05
 0.81700001E+01  0.30614E+05
 0.82199993E+01  0.32313E+05
 0.82700005E+01  0.33584E+05
 0.83199997E+01  0.34304E+05
 0.83700008E+01  0.35100E+05
 0.84200001E+01  0.35052E+05
 0.84699993E+01  0.34332E+05
 0.85200005E+01  0.33193E+05
 0.85699997E+01  0.31314E+05
 0.86200008E+01  0.29045E+05
 0.86700001E+01  0.26119E+05
 0.87199993E+01  0.22604E+05
 0.87700005E+01  0.19145E+05
 0.88199997E+01  0.16237E+05
 0.88700008E+01  0.14181E+05
 0.89200001E+01  0.12843E+05
 0.89699993E+01  0.11481E+05
 0.90200005E+01  0.99890E+04
 0.90699997E+01  0.89180E+04
 0.91200008E+01  0.83190E+04
 0.91700001E+01  0.76780E+04
 0.92199993E+01  0.66450E+04
 0.92700005E+01  0.59580E+04
 0.93199997E+01  0.56230E+04
 0.93700008E+01  0.52640E+04
 0.94200001E+01  0.51810E+04
 0.94699993E+01  0.57490E+04
 0.95200005E+01  0.69690E+04
 0.95699997E+01  0.78820E+04
 0.96200008E+01  0.85800E+04
 0.96700001E+01  0.88480E+04
 0.97199993E+01  0.82290E+04
 0.97700005E+01  0.81880E+04
 0.98199997E+01  0.85520E+04
 0.98700008E+01  0.86320E+04
 0.99200001E+01  0.87730E+04
 0.99699993E+01  0.84250E+04
 0.10020000E+02  0.78920E+04
 0.10070000E+02  0.74150E+04
 0.10120001E+02  0.69050E+04
 0.10170000E+02  0.67250E+04
 0.10219999E+02  0.63600E+04
 0.10270000E+02  0.60490E+04
 0.10320000E+02  0.64160E+04
 0.10370001E+02  0.69300E+04
 0.10420000E+02  0.71590E+04
 0.10469999E+02  0.75620E+04
 0.10520000E+02  0.82740E+04
 0.10570000E+02  0.90230E+04
 0.10620001E+02  0.96610E+04
 0.10670000E+02  0.10112E+05
 0.10719999E+02  0.10186E+05
 0.10770000E+02  0.94690E+04
 0.10820000E+02  0.85120E+04
 0.10870001E+02  0.71070E+04
 0.10920000E+02  0.52170E+04
 0.10969999E+02  0.36070E+04
 0.11020000E+02  0.22300E+04
 0.11070000E+02  0.16080E+04
 0.11120001E+02  0.10930E+04
 0.11170000E+02  0.55700E+03
 0.11219999E+02  0.78000E+03
 0.11270000E+02  0.12040E+04
 0.11320000E+02  0.16770E+04
 0.11370001E+02  0.20080E+04
 0.11420000E+02  0.19720E+04
 0.11469999E+02  0.10560E+04
 0.11520000E+02 -0.60500E+03
 0.11570000E+02 -0.21920E+04
 0.11620001E+02 -0.34280E+04
 0.11670000E+02 -0.37000E+04
 0.11719999E+02 -0.48770E+04
 0.11770000E+02 -0.63310E+04
 0.11820000E+02 -0.78580E+04
 0.11870001E+02 -0.10830E+05
 0.11920000E+02 -0.11684E+05
 0.11969999E+02 -0.15255E+05
 0.12020000E+02 -0.14258E+05
 0.12070000E+02 -0.16439E+05
 0.12120001E+02 -0.13842E+05
 0.12170000E+02 -0.96890E+04
 0.12219999E+02 -0.10057E+05
 0.12270000E+02 -0.65960E+04
 0.12320000E+02 -0.19193E+05
 0.12370001E+02 -0.88710E+04
 0.12420000E+02 -0.11656E+06
 0.12469999E+02 -0.36673E+06
 0.12520000E+02 -0.61748E+06
 0.12570000E+02 -0.73176E+06
 0.12620001E+02 -0.54960E+06
 0.12670000E+02 -0.14178E+06
 0.12719999E+02  0.36518E+06
 0.12770000E+02  0.71498E+06
 0.12820000E+02  0.47238E+06
 0.12870001E+02 -0.31267E+06
 0.12920000E+02 -0.59257E+06
 0.12969999E+02 -0.24571E+06
 0.13020000E+02 -0.57636E+06
 0.13070000E+02 -0.11111E+07
 0.13120001E+02 -0.53902E+06
 0.13170000E+02 -0.15764E+06
 0.13219999E+02 -0.60852E+06
 0.13270000E+02 -0.19137E+07
 0.13320000E+02 -0.41956E+07
 0.13370001E+02 -0.36582E+07
 0.13420000E+02  0.79664E+06
 0.13469999E+02  0.30450E+07
 0.13520000E+02 -0.54590E+05
 0.13570000E+02 -0.19213E+07
 0.13620001E+02 -0.15180E+06
 0.13670000E+02  0.32501E+06
 0.13719999E+02  0.16920E+07
 0.13770000E+02  0.29184E+07
 0.13820000E+02  0.20479E+06
 0.13870001E+02 -0.12829E+07
 0.13920000E+02 -0.20125E+05
 0.13969999E+02  0.83771E+06
 0.14020000E+02 -0.31017E+06
 0.14070002E+02 -0.45790E+06
 0.14120001E+02  0.22218E+07
 0.14170000E+02  0.22820E+07
 0.14220001E+02 -0.74474E+05
 0.14270000E+02  0.62266E+06
 0.14320002E+02  0.27196E+07
 0.14370001E+02  0.77482E+06
 0.14420000E+02 -0.15099E+07
 0.14470001E+02 -0.35621E+06
 0.14520000E+02  0.89138E+06
 0.14570002E+02  0.80095E+06
 0.14620001E+02 -0.10052E+07
 0.14670000E+02 -0.15666E+07
 0.14720001E+02 -0.28366E+06
 0.14770000E+02 -0.29566E+06
 0.14820002E+02 -0.13125E+07
 0.14870001E+02 -0.96268E+06
 0.14920000E+02  0.82695E+06
 0.14970001E+02 -0.18792E+06
 0.15020000E+02 -0.14064E+07
 0.15070002E+02 -0.70006E+06
 0.15120001E+02 -0.40734E+06
 0.15170000E+02 -0.38904E+06
 0.15220001E+02 -0.11723E+07
 0.15270000E+02 -0.50766E+06
 0.15320002E+02  0.36496E+06
 0.15370001E+02  0.13338E+07
 0.15420000E+02  0.24575E+07
 0.15470001E+02  0.64088E+06
 0.15520000E+02 -0.46190E+06
 0.15570002E+02 -0.72220E+06
 0.15620001E+02 -0.88607E+06
 0.15670000E+02  0.23762E+06
 0.15720001E+02  0.77489E+06
 0.15770000E+02 -0.62523E+06
 0.15820002E+02 -0.17113E+07
 0.15870001E+02  0.69480E+04
 0.15920000E+02  0.11808E+07
 0.15970001E+02  0.21933E+07
 0.16020000E+02  0.21117E+07
 0.16070002E+02  0.57724E+06
 0.16120001E+02  0.36146E+06
 0.16170000E+02  0.74968E+06
 0.16220001E+02  0.28299E+07
 0.16270000E+02  0.32462E+07
 0.16320002E+02  0.66994E+06
 0.16370001E+02 -0.33066E+06
 0.16420000E+02  0.38058E+06
 0.16470001E+02  0.13275E+06
 0.16520000E+02  0.32469E+06
 0.16570002E+02  0.23876E+06
 0.16620001E+02 -0.13172E+07
 0.16670000E+02 -0.18222E+07
 0.16720001E+02 -0.21232E+07
 0.16770000E+02 -0.99938E+06
 0.16820002E+02  0.25917E+06
 0.16870001E+02 -0.65550E+04
 0.16920000E+02  0.42921E+05
 0.16970001E+02  0.73330E+05
 0.17020000E+02  0.11264E+07
 0.17070002E+02  0.99730E+06
 0.17120001E+02 -0.21628E+06
 0.17170000E+02  0.65004E+06
 0.17220001E+02 -0.66671E+05
 0.17270000E+02 -0.10625E+07
 0.17320002E+02  0.21394E+06
 0.17370001E+02  0.32341E+06
 0.17420000E+02  0.26792E+06
 0.17470001E+02  0.49019E+06
 0.17520000E+02  0.72432E+06
 0.17570002E+02  0.85983E+06
 0.17620001E+02  0.48615E+06
 0.17670000E+02  0.61520E+06
 0.17720001E+02  0.15489E+06
 0.17770000E+02  0.28557E+06
 0.17820002E+02  0.53768E+06
 0.17870001E+02 -0.48910E+06
 0.17920000E+02 -0.50645E+06
 0.17970001E+02 -0.60168E+06
 0.18020000E+02 -0.61153E+06
 0.18070002E+02 -0.16374E+06
 0.18120001E+02 -0.10862E+07
 0.18170000E+02 -0.86453E+06
 0.18220001E+02  0.46061E+06
 0.18270000E+02  0.13347E+07
 0.18320002E+02  0.78906E+06
 0.18370001E+02  0.28115E+06
 0.18420000E+02  0.16961E+07
 0.18470001E+02  0.11299E+07
 0.18520000E+02  0.36909E+06
 0.18570002E+02  0.15215E+07
 0.18620001E+02  0.22556E+07
 0.18670000E+02  0.21446E+07
 0.18720001E+02  0.11753E+07
 0.18770000E+02  0.70603E+06
 0.18820002E+02  0.51824E+06
 0.18870001E+02  0.97130E+04
 0.18920000E+02  0.10411E+06
 0.18970001E+02  0.69748E+06
 0.19020000E+02  0.14284E+06
 0.19070002E+02 -0.17957E+07
 0.19120001E+02 -0.19024E+07
 0.19170000E+02  0.26585E+05
 0.19220001E+02  0.68000E+06
 0.19270000E+02  0.86456E+06
 0.19320002E+02  0.13263E+07
 0.19370001E+02  0.88236E+06
 0.19420000E+02  0.77652E+06
 0.19470001E+02  0.83917E+06
 0.19520000E+02  0.17266E+07
 0.19570002E+02  0.28694E+07
 0.19620001E+02  0.18964E+07
 0.19670000E+02  0.14825E+07
 0.19720001E+02  0.19219E+07
 0.19770000E+02  0.16964E+07
 0.19820002E+02  0.12494E+07
 0.19870001E+02  0.23849E+06
 0.19920000E+02  0.33705E+06
 0.19970001E+02  0.11101E+05
 0.20020000E+02 -0.11425E+07
 0.20070002E+02 -0.10258E+07
 0.20120001E+02 -0.10989E+07
 0.20170000E+02  0.31092E+06
 0.20220001E+02  0.98900E+06
 0.20270000E+02  0.21433E+07
 0.20320002E+02  0.44321E+07
 0.20370001E+02  0.18105E+07
 0.20420000E+02 -0.72655E+06
 0.20470001E+02 -0.42163E+07
 0.20520000E+02 -0.72735E+07
 0.20570002E+02 -0.41054E+07
 0.20620001E+02 -0.31875E+07
 0.20670000E+02 -0.43284E+07
 0.20720001E+02 -0.41625E+07
 0.20770000E+02 -0.65964E+07
 0.20820002E+02 -0.90375E+07
 0.20870001E+02 -0.11205E+08
 0.20920000E+02 -0.99465E+07
 0.20970001E+02  0.66862E+06
 0.21020000E+02  0.81638E+07
 0.21070002E+02  0.89368E+07
 0.21120001E+02  0.51599E+07
 0.21170000E+02  0.93998E+06
 0.21220001E+02  0.27416E+07
 0.21270000E+02  0.11470E+07
 0.21320002E+02  0.37017E+07
 0.21370001E+02  0.90631E+07
 0.21420000E+02  0.10943E+08
 0.21470001E+02  0.75813E+07
 0.21520000E+02 -0.13310E+07
 0.21570002E+02 -0.10432E+07
 0.21620001E+02 -0.49237E+07
 0.21670000E+02 -0.11418E+08
 0.21720001E+02 -0.70532E+07
 0.21770000E+02 -0.73979E+07
 0.21820002E+02 -0.10568E+08
 0.21870001E+02 -0.10398E+08
 0.21920000E+02 -0.93421E+07
 0.21970001E+02 -0.70699E+07
 0.22020000E+02 -0.24383E+07
 0.22070002E+02  0.54788E+07
 0.22120001E+02  0.37138E+07
 0.22170000E+02 -0.10458E+07
 0.22220001E+02  0.84750E+06
 0.22270000E+02  0.15114E+07
 0.22320002E+02  0.17968E+07
 0.22370001E+02  0.86290E+06
 0.22420000E+02 -0.52386E+06
 0.22470001E+02 -0.19267E+07
 0.22520000E+02 -0.11007E+07
 0.22570002E+02 -0.99257E+06
 0.22620001E+02 -0.10121E+07
 0.22670000E+02  0.21409E+07
 0.22720001E+02  0.26596E+07
 0.22770000E+02 -0.54865E+06
 0.22820002E+02 -0.43384E+07
 0.22870001E+02 -0.53664E+07
 0.22920000E+02 -0.63685E+07
 0.22970001E+02 -0.67790E+07
 0.23020000E+02 -0.49192E+07
 0.23070002E+02  0.16725E+07
 0.23120001E+02  0.52282E+07
 0.23170000E+02  0.20032E+07
 0.23220001E+02  0.54962E+06
 0.23270000E+02 -0.25101E+07
 0.23320002E+02 -0.48608E+07
 0.23370001E+02 -0.48271E+07
 0.23420000E+02 -0.40282E+07
 0.23470001E+02 -0.27518E+07
 0.23520000E+02 -0.24795E+07
 0.23570002E+02 -0.14972E+07
 0.23620001E+02  0.30927E+06
 0.23670000E+02  0.15745E+07
 0.23720001E+02  0.23704E+07
 0.23770000E+02  0.32339E+07
 0.23820002E+02  0.35045E+07
 0.23870001E+02  0.40812E+07
 0.23920000E+02  0.24492E+07
 0.23970001E+02 -0.12948E+07
 0.24020000E+02 -0.31154E+07
 0.24070002E+02 -0.18124E+07
 0.24120001E+02 -0.32960E+06
 0.24170000E+02 -0.13910E+07
 0.24220001E+02 -0.88274E+06
 0.24270000E+02 -0.19346E+06
 0.24320002E+02 -0.70382E+06
 0.24370001E+02 -0.15188E+07
 0.24420000E+02 -0.29158E+07
 0.24470001E+02 -0.20376E+07
 0.24520000E+02 -0.16179E+07
 0.24570002E+02 -0.16408E+07
 0.24620001E+02 -0.17438E+06
 0.24670000E+02  0.54098E+06
 0.24720001E+02  0.20486E+07
 0.24770000E+02  0.50085E+07
 0.24820002E+02  0.66244E+07
 0.24870001E+02  0.67871E+07
 0.24920000E+02  0.71484E+07
 0.24970001E+02  0.61743E+07
 0.25020000E+02  0.24980E+07
 0.25070002E+02 -0.42647E+06
 0.25120001E+02 -0.16152E+07
 0.25170000E+02 -0.19878E+07
 0.25220001E+02 -0.13005E+07
 0.25270000E+02 -0.96985E+05
 0.25320002E+02  0.88311E+06
 0.25370001E+02  0.96334E+05
 0.25420000E+02  0.12604E+06
 0.25470001E+02  0.66251E+06
 0.25520000E+02 -0.27144E+06
 0.25570002E+02 -0.30176E+06
 0.25620001E+02 -0.80094E+05
 0.25670000E+02  0.17206E+06
 0.25720001E+02  0.17124E+07
 0.25770000E+02  0.30412E+07
 0.25820002E+02  0.23940E+07
 0.25870001E+02  0.22578E+07
 0.25920000E+02  0.26047E+07
 0.25970001E+02  0.23936E+07
 0.26020000E+02  0.25494E+07
 0.26070002E+02  0.17167E+07
 0.26120001E+02  0.18700E+07
 0.26170000E+02  0.24608E+07
 0.26220001E+02  0.27960E+07
 0.26270000E+02  0.49093E+07
 0.26320002E+02  0.61852E+07
 0.26370001E+02  0.53832E+07
 0.26420000E+02  0.46305E+07
 0.26470001E+02  0.47440E+07
 0.26520000E+02  0.37636E+07
 0.26570002E+02  0.18408E+07
 0.26620001E+02  0.40993E+06
 0.26670000E+02 -0.22454E+06
 0.26720001E+02  0.30278E+05
 0.26770000E+02 -0.45126E+06
 0.26820002E+02 -0.17633E+07
 0.26870001E+02 -0.17825E+07
 0.26920000E+02  0.44696E+06
 0.26970001E+02  0.16578E+07
 0.27020000E+02  0.11307E+07
 0.27070002E+02  0.68173E+05
 0.27120001E+02 -0.87222E+06
 0.27170000E+02  0.15558E+06
 0.27220001E+02  0.63014E+06
 0.27270000E+02  0.13459E+07
 0.27320002E+02  0.23195E+07
 0.27370001E+02  0.18559E+07
 0.27420000E+02  0.21283E+07
 0.27470001E+02  0.27201E+07
 0.27520000E+02  0.33392E+07
 0.27570002E+02  0.29550E+07
 0.27620001E+02  0.17646E+07
 0.27670000E+02  0.12157E+07
 0.27720001E+02  0.15490E+07
 0.27770000E+02  0.18583E+07
 0.27820002E+02  0.17264E+07
 0.27870001E+02  0.29224E+07
 0.27920000E+02  0.37060E+07
 0.27970001E+02  0.38170E+07
 0.28020000E+02  0.37606E+07
 0.28070002E+02  0.30895E+07
 0.28120001E+02  0.27594E+07
 0.28170000E+02  0.24917E+07
 0.28220001E+02  0.23073E+07
 0.28270000E+02  0.24343E+07
 0.28320002E+02  0.37344E+07
 0.28370001E+02  0.41368E+07
 0.28420000E+02  0.33799E+07
 0.28470001E+02  0.28661E+07
 0.28520000E+02  0.23598E+07
 0.28570002E+02  0.24482E+07
 0.28620001E+02  0.14313E+07
 0.28670000E+02  0.48271E+06
 0.28720001E+02 -0.19488E+06
 0.28770000E+02 -0.10993E+07
 0.28820002E+02 -0.14063E+07
 0.28870001E+02 -0.16281E+07
 0.28920000E+02 -0.18003E+07
 0.28970001E+02 -0.26728E+07
 0.29020000E+02 -0.31850E+07
 0.29070002E+02 -0.33665E+07
 0.29120001E+02 -0.30029E+07
 0.29170000E+02 -0.34005E+07
 0.29220001E+02 -0.43754E+07
 0.29270000E+02 -0.37342E+07
 0.29320002E+02 -0.34923E+07
 0.29370001E+02 -0.31243E+07
 0.29420000E+02 -0.30476E+07
 0.29470001E+02 -0.31320E+07
 0.29520000E+02 -0.25130E+07
 0.29570002E+02 -0.23261E+07
 0.29620001E+02 -0.21932E+07
 0.29670000E+02 -0.26204E+07
 0.29720001E+02 -0.22161E+07
 0.29770000E+02 -0.94811E+06
 0.29820002E+02 -0.46212E+06
 0.29870001E+02  0.87140E+05
 0.29920000E+02 -0.18739E+06
 0.29970001E+02 -0.11242E+07
 0.30020000E+02 -0.81275E+06
 0.30070000E+02 -0.38531E+06
 0.30120003E+02 -0.78486E+06
 0.30170002E+02 -0.11459E+07
 0.30220001E+02 -0.10978E+07
 0.30270000E+02 -0.68063E+06
 0.30320000E+02 -0.29144E+06
 0.30370003E+02  0.63170E+04
 0.30420002E+02  0.63124E+05
 0.30470001E+02 -0.21243E+06
 0.30520000E+02 -0.48282E+06
 0.30570000E+02 -0.46900E+06
 0.30620003E+02 -0.28664E+06
 0.30670002E+02 -0.80508E+06
 0.30720001E+02 -0.12590E+07
 0.30770000E+02 -0.11713E+07
 0.30820000E+02 -0.13675E+07
 0.30870003E+02 -0.16442E+07
 0.30920002E+02 -0.17450E+07
 0.30970001E+02 -0.16923E+07
 0.31020000E+02 -0.16623E+07
 0.31070000E+02 -0.13421E+07
 0.31120003E+02 -0.78959E+06
 0.31170002E+02 -0.45578E+06
 0.31220001E+02  0.23839E+05
 0.31270000E+02  0.67916E+06
 0.31320000E+02  0.11472E+07
 0.31370003E+02  0.11726E+07
 0.31420002E+02  0.11216E+07
 0.31470001E+02  0.10848E+07
 0.31520000E+02  0.44890E+06
 0.31570000E+02 -0.11370E+06
 0.31620003E+02 -0.37280E+06
 0.31670002E+02 -0.71222E+06
 0.31720001E+02 -0.11301E+07
 0.31770000E+02 -0.20278E+07
 0.31820000E+02 -0.30167E+07
 0.31870003E+02 -0.33909E+07
 0.31920002E+02 -0.35227E+07
 0.31970001E+02 -0.36248E+07
 0.32020000E+02 -0.32391E+07
 0.32070000E+02 -0.28657E+07
 0.32120003E+02 -0.27088E+07
 0.32170002E+02 -0.27121E+07
 0.32220001E+02 -0.28438E+07
 0.32270000E+02 -0.25629E+07
 0.32320000E+02 -0.25840E+07
 0.32370003E+02 -0.25395E+07
 0.32420002E+02 -0.17779E+07
 0.32470001E+02 -0.13887E+07
 0.32520000E+02 -0.11284E+07
 0.32570000E+02 -0.98184E+06
 0.32620003E+02 -0.86268E+06
 0.32670002E+02 -0.51912E+06
 0.32720001E+02 -0.53169E+06
 0.32770000E+02 -0.68412E+06
 0.32820000E+02 -0.11989E+07
 0.32870003E+02 -0.11620E+07
 0.32920002E+02 -0.93530E+06
 0.32970001E+02 -0.14027E+07
 0.33020000E+02 -0.10678E+07
 0.33070000E+02 -0.70245E+06
 0.33120003E+02 -0.38133E+06
 0.33170002E+02  0.56426E+06
 0.33220001E+02  0.10694E+07
 0.33270000E+02  0.16884E+07
 0.33320000E+02  0.23801E+07
 0.33370003E+02  0.26532E+07
 0.33420002E+02  0.33823E+07
 0.33470001E+02  0.44876E+07
 0.33520000E+02  0.52057E+07
 0.33570000E+02  0.52098E+07
 0.33620003E+02  0.44434E+07
 0.33670002E+02  0.35140E+07
 0.33720001E+02  0.30482E+07
 0.33770000E+02  0.24623E+07
 0.33820000E+02  0.20627E+07
 0.33870003E+02  0.21549E+07
 0.33920002E+02  0.18762E+07
 0.33970001E+02  0.13051E+07
 0.34020000E+02  0.38079E+06
 0.34070000E+02 -0.84115E+06
 0.34120003E+02 -0.14487E+07
 0.34170002E+02 -0.18572E+07
 0.34220001E+02 -0.29517E+07
 0.34270000E+02 -0.37640E+07
 0.34320000E+02 -0.42311E+07
 0.34370003E+02 -0.47894E+07
 0.34420002E+02 -0.50066E+07
 0.34470001E+02 -0.47987E+07
 0.34520000E+02 -0.40029E+07
 0.34570000E+02 -0.33996E+07
 0.34620003E+02 -0.31800E+07
 0.34670002E+02 -0.29971E+07
 0.34720001E+02 -0.28983E+07
 0.34770000E+02 -0.25092E+07
 0.34820000E+02 -0.19797E+07
 0.34870003E+02 -0.98093E+06
 0.34920002E+02  0.26427E+05
 0.34970001E+02  0.29529E+06
 0.35020000E+02  0.88582E+06
 0.35070000E+02  0.15471E+07
 0.35120003E+02  0.18437E+07
 0.35170002E+02  0.18247E+07
 0.35220001E+02  0.14713E+07
 0.35270000E+02  0.13534E+07
 0.35320000E+02  0.12841E+07
 0.35370003E+02  0.11402E+07
 0.35420002E+02  0.71701E+06
 0.35470001E+02  0.11971E+06
 0.35520000E+02 -0.29951E+06
 0.35570000E+02 -0.38263E+06
 0.35620003E+02 -0.28357E+06
 0.35670002E+02 -0.28340E+06
 0.35720001E+02  0.26165E+05
 0.35770000E+02  0.46332E+06
 0.35820000E+02  0.75015E+06
 0.35870003E+02  0.94644E+06
 0.35920002E+02  0.11469E+07
 0.35970001E+02  0.16098E+07
 0.36020000E+02  0.20952E+07
 0.36070000E+02  0.24174E+07
 0.36120003E+02  0.26618E+07
 0.36170002E+02  0.28196E+07
 0.36220001E+02  0.29348E+07
 0.36270000E+02  0.28760E+07
 0.36320000E+02  0.27136E+07
 0.36370003E+02  0.23158E+07
 0.36420002E+02  0.15133E+07
 0.36470001E+02  0.86903E+06
 0.36520000E+02  0.18495E+06
 0.36570000E+02 -0.40154E+06
 0.36620003E+02 -0.55380E+06
 0.36670002E+02 -0.76660E+06
 0.36720001E+02 -0.70920E+06
 0.36770000E+02 -0.78644E+06
 0.36820000E+02 -0.10264E+07
 0.36870003E+02 -0.84192E+06
 0.36920002E+02 -0.45824E+06
 0.36970001E+02  0.11463E+06
 0.37020000E+02  0.25792E+06
 0.37070000E+02 -0.13084E+05
 0.37120003E+02 -0.40317E+06
 0.37170002E+02 -0.63238E+06
 0.37220001E+02 -0.53094E+06
 0.37270000E+02 -0.60803E+06
 0.37320000E+02 -0.50424E+06
 0.37370003E+02 -0.47868E+06
 0.37420002E+02 -0.65754E+06
 0.37470001E+02 -0.76391E+06
 0.37520000E+02 -0.10264E+07
 0.37570000E+02 -0.11943E+07
 0.37620003E+02 -0.13015E+07
 0.37670002E+02 -0.13133E+07
 0.37720001E+02 -0.11307E+07
 0.37770000E+02 -0.10467E+07
 0.37820000E+02 -0.12351E+07
 0.37870003E+02 -0.13665E+07
 0.37920002E+02 -0.11673E+07
 0.37970001E+02 -0.81490E+06
 0.38020000E+02 -0.43227E+06
 0.38070000E+02  0.38586E+05
 0.38120003E+02  0.69026E+06
 0.38170002E+02  0.99132E+06
 0.38220001E+02  0.74060E+06
 0.38270000E+02  0.62745E+06
 0.38320000E+02  0.52607E+06
 0.38370003E+02  0.45109E+06
 0.38420002E+02  0.63398E+06
 0.38470001E+02  0.64862E+06
 0.38520000E+02  0.70239E+06
 0.38570000E+02  0.11591E+07
 0.38620003E+02  0.18224E+07
 0.38670002E+02  0.22113E+07
 0.38720001E+02  0.24985E+07
 0.38770000E+02  0.27069E+07
 0.38820000E+02  0.24185E+07
 0.38870003E+02  0.18219E+07
 0.38920002E+02  0.12701E+07
 0.38970001E+02  0.78134E+06
 0.39020000E+02  0.42508E+05
 0.39070000E+02 -0.54342E+06
 0.39120003E+02 -0.78534E+06
 0.39170002E+02 -0.93341E+06
 0.39220001E+02 -0.99450E+06
 0.39270000E+02 -0.11073E+07
 0.39320000E+02 -0.10538E+07
 0.39370003E+02 -0.10165E+07
 0.39420002E+02 -0.11117E+07
 0.39470001E+02 -0.93703E+06
 0.39520000E+02 -0.64104E+06
 0.39570000E+02 -0.35472E+06
 0.39620003E+02  0.85231E+05
 0.39670002E+02  0.72911E+06
 0.39720001E+02  0.11254E+07
 0.39770000E+02  0.12837E+07
 0.39820000E+02  0.14642E+07
 0.39870003E+02  0.13073E+07
 0.39920002E+02  0.12158E+07
 0.39970001E+02  0.11508E+07
 0.40020000E+02  0.95529E+06
 0.40070000E+02  0.11394E+07
 0.40120003E+02  0.12694E+07
 0.40170002E+02  0.11829E+07
 0.40220001E+02  0.10433E+07
 0.40270000E+02  0.66890E+06
 0.40320000E+02  0.27943E+06
 0.40370003E+02  0.39170E+05
 0.40420002E+02 -0.38023E+06
 0.40470001E+02 -0.94502E+06
 0.40520000E+02 -0.13474E+07
 0.40570000E+02 -0.16482E+07
 0.40620003E+02 -0.18413E+07
 0.40670002E+02 -0.20989E+07
 0.40720001E+02 -0.23587E+07
 0.40770000E+02 -0.24074E+07
 0.40820000E+02 -0.24761E+07
 0.40870003E+02 -0.24332E+07
 0.40920002E+02 -0.20564E+07
 0.40970001E+02 -0.15992E+07
 0.41020000E+02 -0.13762E+07
 0.41070000E+02 -0.12382E+07
 0.41120003E+02 -0.80034E+06
 0.41170002E+02 -0.33684E+06
 0.41220001E+02  0.46745E+05
 0.41270000E+02  0.63194E+06
 0.41320000E+02  0.11185E+07
 0.41370003E+02  0.13688E+07
 0.41420002E+02  0.16017E+07
 0.41470001E+02  0.20896E+07
 0.41520000E+02  0.25836E+07
 0.41570000E+02  0.27305E+07
 0.41620003E+02  0.27018E+07
 0.41670002E+02  0.27118E+07
 0.41720001E+02  0.26703E+07
 0.41770000E+02  0.22670E+07
 0.41820000E+02  0.17943E+07
 0.41870003E+02  0.13938E+07
 0.41920002E+02  0.10746E+07
 0.41970001E+02  0.91571E+06
 0.42020000E+02  0.59197E+06
 0.42070000E+02  0.36293E+06
 0.42120003E+02  0.42926E+06
 0.42170002E+02  0.39108E+06
 0.42220001E+02  0.26153E+06
 0.42270000E+02  0.10508E+06
 0.42320000E+02 -0.84937E+05
 0.42370003E+02 -0.45923E+05
 0.42420002E+02  0.59300E+03
 0.42470001E+02 -0.28097E+06
 0.42520000E+02 -0.53974E+06
 0.42570000E+02 -0.53107E+06
 0.42620003E+02 -0.62813E+06
 0.42670002E+02 -0.81243E+06
 0.42720001E+02 -0.81039E+06
 0.42770000E+02 -0.88933E+06
 0.42820000E+02 -0.11141E+07
 0.42870003E+02 -0.13642E+07
 0.42920002E+02 -0.15084E+07
 0.42970001E+02 -0.14423E+07
 0.43020000E+02 -0.13162E+07
 0.43070000E+02 -0.11865E+07
 0.43120003E+02 -0.11242E+07
 0.43170002E+02 -0.10811E+07
 0.43220001E+02 -0.11086E+07
 0.43270000E+02 -0.13299E+07
 0.43320000E+02 -0.16137E+07
 0.43370003E+02 -0.18705E+07
 0.43420002E+02 -0.19310E+07
 0.43470001E+02 -0.15778E+07
 0.43520000E+02 -0.90356E+06
 0.43570000E+02 -0.50670E+06
 0.43620003E+02 -0.51408E+06
 0.43670002E+02 -0.52103E+06
 0.43720001E+02 -0.36355E+06
 0.43770000E+02  0.48800E+05
 0.43820000E+02  0.44924E+06
 0.43870003E+02  0.58325E+06
 0.43920002E+02  0.70228E+06
 0.43970001E+02  0.10121E+07
 0.44020000E+02  0.12486E+07
 0.44070000E+02  0.13662E+07
 0.44120003E+02  0.15159E+07
 0.44170002E+02  0.16854E+07
 0.44220001E+02  0.18491E+07
 0.44270000E+02  0.17782E+07
 0.44320000E+02  0.16147E+07
 0.44370003E+02  0.13979E+07
 0.44420002E+02  0.93314E+06
 0.44470001E+02  0.45012E+06
 0.44520000E+02 -0.91950E+04
 0.44570000E+02 -0.39608E+06
 0.44620003E+02 -0.66005E+06
 0.44670002E+02 -0.81516E+06
 0.44720001E+02 -0.80301E+06
 0.44770000E+02 -0.78367E+06
 0.44820000E+02 -0.75472E+06
 0.44870003E+02 -0.70284E+06
 0.44920002E+02 -0.68680E+06
 0.44970001E+02 -0.64847E+06
 0.45020000E+02 -0.52166E+06
 0.45070000E+02 -0.40103E+06
 0.45120003E+02 -0.39244E+06
 0.45170002E+02 -0.28248E+06
 0.45220001E+02 -0.19216E+05
 0.45270000E+02  0.25851E+06
 0.45320000E+02  0.54031E+06
 0.45370003E+02  0.78843E+06
 0.45420002E+02  0.97662E+06
 0.45470001E+02  0.10186E+07
 0.45520000E+02  0.87219E+06
 0.45570000E+02  0.79253E+06
 0.45620003E+02  0.78864E+06
 0.45670002E+02  0.73731E+06
 0.45720001E+02  0.76370E+06
 0.45770000E+02  0.79416E+06
 0.45820000E+02  0.79136E+06
 0.45870003E+02  0.88121E+06
 0.45920002E+02  0.10001E+07
 0.45970001E+02  0.10099E+07
 0.46020000E+02  0.96766E+06
 0.46070000E+02  0.90953E+06
 0.46120003E+02  0.70153E+06
 0.46170002E+02  0.46947E+06
 0.46220001E+02  0.34826E+06
 0.46270000E+02  0.20070E+06
 0.46320000E+02 -0.10212E+06
 0.46370003E+02 -0.39814E+06
 0.46420002E+02 -0.42047E+06
 0.46470001E+02 -0.30279E+06
 0.46520000E+02 -0.25868E+06
 0.46570000E+02 -0.35650E+06
 0.46620003E+02 -0.43752E+06
 0.46670002E+02 -0.44226E+06
 0.46720001E+02 -0.63210E+06
 0.46770000E+02 -0.83310E+06
 0.46820000E+02 -0.92444E+06
 0.46870003E+02 -0.10681E+07
 0.46920002E+02 -0.12190E+07
 0.46970001E+02 -0.13854E+07
 0.47020000E+02 -0.14082E+07
 0.47070000E+02 -0.12615E+07
 0.47120003E+02 -0.11673E+07
 0.47170002E+02 -0.11614E+07
 0.47220001E+02 -0.12330E+07
 0.47270000E+02 -0.12564E+07
 0.47320000E+02 -0.12609E+07
 0.47370003E+02 -0.13925E+07
 0.47420002E+02 -0.15441E+07
 0.47470001E+02 -0.15260E+07
 0.47520000E+02 -0.12842E+07
 0.47570000E+02 -0.92288E+06
 0.47620003E+02 -0.58792E+06
 0.47670002E+02 -0.33016E+06
 0.47720001E+02 -0.79744E+05
 0.47770000E+02  0.12598E+06
 0.47820000E+02  0.47780E+06
 0.47870003E+02  0.10278E+07
 0.47920002E+02  0.13716E+07
 0.47970001E+02  0.16469E+07
 0.48020000E+02  0.19016E+07
 0.48070000E+02  0.19259E+07
 0.48120003E+02  0.19773E+07
 0.48170002E+02  0.21026E+07
 0.48220001E+02  0.21826E+07
 0.48270000E+02  0.22376E+07
 0.48320000E+02  0.22412E+07
 0.48370003E+02  0.21669E+07
 0.48420002E+02  0.19687E+07
 0.48470001E+02  0.16831E+07
 0.48520000E+02  0.14984E+07
 0.48570000E+02  0.14452E+07
 0.48620003E+02  0.13308E+07
 0.48670002E+02  0.11879E+07
 0.48720001E+02  0.10875E+07
 0.48770000E+02  0.91440E+06
 0.48820000E+02  0.68432E+06
 0.48870003E+02  0.45299E+06
 0.48920002E+02  0.25104E+06
 0.48970001E+02  0.62460E+04
 0.49020000E+02 -0.31319E+06
 0.49070000E+02 -0.57374E+06
 0.49120003E+02 -0.74838E+06
 0.49170002E+02 -0.89066E+06
 0.49220001E+02 -0.10640E+07
 0.49270000E+02 -0.12193E+07
 0.49320000E+02 -0.12509E+07
 0.49370003E+02 -0.12215E+07
 0.49420002E+02 -0.11615E+07
 0.49470001E+02 -0.99300E+06
 0.49520000E+02 -0.93864E+06
 0.49570000E+02 -0.10306E+07
 0.49620003E+02 -0.98063E+06
 0.49670002E+02 -0.92515E+06
 0.49720001E+02 -0.91482E+06
 0.49770000E+02 -0.88865E+06
 0.49820000E+02 -0.88332E+06
 0.49870003E+02 -0.81525E+06
 0.49920002E+02 -0.76150E+06
 0.49970001E+02 -0.68643E+06
 0.50020000E+02 -0.57751E+06
 0.50070000E+02 -0.59912E+06
 0.50120003E+02 -0.57730E+06
 0.50170002E+02 -0.42122E+06
 0.50220001E+02 -0.28019E+06
 0.50270000E+02 -0.13264E+06
 0.50320000E+02  0.23847E+05
 0.50370003E+02  0.13560E+06
 0.50420002E+02  0.18038E+06
 0.50470001E+02  0.24300E+06
 0.50520000E+02  0.37790E+06
 0.50570000E+02  0.40414E+06
 0.50620003E+02  0.29082E+06
 0.50670002E+02  0.21297E+06
 0.50720001E+02  0.10356E+06
 0.50770000E+02  0.63590E+04
 0.50820000E+02  0.98505E+05
 0.50870003E+02  0.20179E+06
 0.50920002E+02  0.27372E+06
 0.50970001E+02  0.33992E+06
 0.51020000E+02  0.33517E+06
 0.51070000E+02  0.37703E+06
 0.51120003E+02  0.42658E+06
 0.51170002E+02  0.48020E+06
 0.51220001E+02  0.51862E+06
 0.51270000E+02  0.48916E+06
 0.51320000E+02  0.49690E+06
 0.51370003E+02  0.43793E+06
 0.51420002E+02  0.40865E+06
 0.51470001E+02  0.37509E+06
 0.51520000E+02  0.11785E+06
 0.51570000E+02 -0.15696E+06
 0.51620003E+02 -0.37580E+06
 0.51670002E+02 -0.51008E+06
 0.51720001E+02 -0.55454E+06
 0.51770000E+02 -0.61114E+06
 0.51820000E+02 -0.60609E+06
 0.51870003E+02 -0.49589E+06
 0.51920002E+02 -0.38326E+06
 0.51970001E+02 -0.28063E+06
 0.52020000E+02 -0.10682E+06
 0.52070000E+02 -0.42944E+05
 0.52120003E+02 -0.83244E+05
 0.52170002E+02 -0.64658E+05
 0.52220001E+02 -0.12687E+06
 0.52270000E+02 -0.28554E+06
 0.52320000E+02 -0.41986E+06
 0.52370003E+02 -0.46194E+06
 0.52420002E+02 -0.47568E+06
 0.52470001E+02 -0.54161E+06
 0.52520000E+02 -0.57353E+06
 0.52570000E+02 -0.48188E+06
 0.52620003E+02 -0.37911E+06
 0.52670002E+02 -0.38856E+06
 0.52720001E+02 -0.34992E+06
 0.52770000E+02 -0.30286E+06
 0.52820000E+02 -0.27860E+06
 0.52870003E+02 -0.15765E+06
 0.52920002E+02 -0.36188E+05
 0.52970001E+02  0.11192E+06
 0.53020000E+02  0.32741E+06
 0.53070000E+02  0.57788E+06
 0.53120003E+02  0.73456E+06
 0.53170002E+02  0.85056E+06
 0.53220001E+02  0.10139E+07
 0.53270000E+02  0.10375E+07
 0.53320000E+02  0.10134E+07
 0.53370003E+02  0.96097E+06
 0.53420002E+02  0.82490E+06
 0.53470001E+02  0.68154E+06
 0.53520000E+02  0.59514E+06
 0.53570000E+02  0.55897E+06
 0.53620003E+02  0.39829E+06
 0.53670002E+02  0.24185E+06
 0.53720001E+02  0.18536E+06
 0.53770000E+02  0.19163E+06
 0.53820000E+02  0.20414E+06
 0.53870003E+02  0.37387E+05
 0.53920002E+02 -0.19115E+06
 0.53970001E+02 -0.40732E+06
 0.54020000E+02 -0.61529E+06
 0.54070000E+02 -0.72743E+06
 0.54120003E+02 -0.78555E+06
 0.54170002E+02 -0.75654E+06
 0.54220001E+02 -0.65398E+06
 0.54270000E+02 -0.60909E+06
 0.54320000E+02 -0.58214E+06
 0.54370003E+02 -0.48476E+06
 0.54420002E+02 -0.32516E+06
 0.54470001E+02 -0.18126E+06
 0.54520000E+02 -0.29906E+05
 0.54570000E+02  0.18212E+06
 0.54620003E+02  0.31003E+06
 0.54670002E+02  0.32101E+06
 0.54720001E+02  0.30841E+06
 0.54770000E+02  0.27440E+06
 0.54820000E+02  0.22436E+06
 0.54870003E+02  0.16268E+06
 0.54920002E+02  0.85074E+05
 0.54970001E+02  0.30080E+05
 0.55020000E+02 -0.68260E+05
 0.55070000E+02 -0.24786E+06
 0.55120003E+02 -0.41665E+06
 0.55170002E+02 -0.49164E+06
 0.55220001E+02 -0.43433E+06
 0.55270000E+02 -0.38951E+06
 0.55320000E+02 -0.38138E+06
 0.55370003E+02 -0.24840E+06
 0.55420002E+02 -0.62447E+05
 0.55470001E+02  0.26371E+05
 0.55520000E+02  0.17964E+05
 0.55570000E+02 -0.80271E+05
 0.55620003E+02 -0.26325E+06
 0.55670002E+02 -0.51810E+06
 0.55720001E+02 -0.75102E+06
 0.55770000E+02 -0.78501E+06
 0.55820000E+02 -0.65214E+06
 0.55870003E+02 -0.41464E+06
 0.55920002E+02 -0.12483E+06
 0.55970001E+02  0.70006E+05
 0.56020000E+02  0.18842E+06
 0.56070000E+02  0.29020E+06
 0.56120003E+02  0.37808E+06
 0.56170002E+02  0.46932E+06
 0.56220001E+02  0.51736E+06
 0.56270000E+02  0.57568E+06
 0.56320000E+02  0.69097E+06
 0.56370003E+02  0.74618E+06
 0.56420002E+02  0.74131E+06
 0.56470001E+02  0.67207E+06
 0.56520000E+02  0.51296E+06
 0.56570000E+02  0.32351E+06
 0.56620003E+02  0.15679E+06
 0.56670002E+02  0.46618E+05
 0.56720001E+02 -0.55120E+04
 0.56770000E+02 -0.16341E+05
 0.56820000E+02 -0.24218E+05
 0.56870003E+02 -0.10479E+05
 0.56920002E+02  0.62881E+05
 0.56970001E+02  0.14460E+06
 0.57020000E+02  0.19135E+06
 0.57070000E+02  0.35367E+06
 0.57120003E+02  0.63062E+06
 0.57170002E+02  0.83358E+06
 0.57220001E+02  0.92976E+06
 0.57270000E+02  0.91360E+06
 0.57320000E+02  0.85581E+06
 0.57370003E+02  0.82614E+06
 0.57420002E+02  0.77996E+06
 0.57470001E+02  0.66274E+06
 0.57520000E+02  0.48078E+06
 0.57570000E+02  0.27752E+06
 0.57620003E+02  0.33866E+05
 0.57670002E+02 -0.21797E+06
 0.57720001E+02 -0.39415E+06
 0.57770000E+02 -0.50518E+06
 0.57820000E+02 -0.53799E+06
 0.57870003E+02 -0.50727E+06
 0.57920002E+02 -0.43931E+06
 0.57970001E+02 -0.28991E+06
 0.58020000E+02 -0.12573E+06
 0.58070000E+02  0.23159E+05
 0.58120003E+02  0.11413E+06
 0.58170002E+02  0.12832E+06
 0.58220001E+02  0.12912E+06
 0.58270000E+02  0.11218E+06
 0.58320000E+02  0.12518E+06
 0.58370003E+02  0.15446E+06
 0.58420002E+02  0.13513E+06
 0.58470001E+02  0.89431E+05
 0.58520000E+02  0.56896E+05
 0.58570000E+02  0.91160E+04
 0.58620003E+02 -0.14979E+05
 0.58670002E+02  0.32683E+05
 0.58720001E+02  0.52623E+05
 0.58770000E+02  0.45443E+05
 0.58820000E+02  0.43807E+05
 0.58870003E+02  0.21380E+05
 0.58920002E+02 -0.24955E+05
 0.58970001E+02 -0.13769E+06
 0.59020000E+02 -0.30158E+06
 0.59070000E+02 -0.47496E+06
 0.59120003E+02 -0.62020E+06
 0.59170002E+02 -0.72252E+06
 0.59220001E+02 -0.83768E+06
 0.59270000E+02 -0.92172E+06
 0.59320000E+02 -0.92047E+06
 0.59370003E+02 -0.86922E+06
 0.59420002E+02 -0.78932E+06
 0.59470001E+02 -0.71121E+06
 0.59520000E+02 -0.66220E+06
 0.59570000E+02 -0.64600E+06
 0.59620003E+02 -0.65957E+06
 0.59670002E+02 -0.68703E+06
 0.59720001E+02 -0.74288E+06
 0.59770000E+02 -0.79604E+06
 0.59820000E+02 -0.74372E+06
 0.59870003E+02 -0.61085E+06
 0.59920002E+02 -0.45642E+06
 0.59970001E+02 -0.30548E+06
 0.60020000E+02 -0.21051E+06
 0.60070000E+02 -0.10507E+06
 0.60120003E+02  0.62382E+05
 0.60170002E+02  0.24415E+06
 0.60220001E+02  0.38363E+06
 0.60270000E+02  0.45694E+06
 0.60320000E+02  0.52020E+06
 0.60370003E+02  0.57031E+06
 0.60420002E+02  0.60673E+06
 0.60470001E+02  0.65696E+06
 0.60520000E+02  0.69664E+06
 0.60570000E+02  0.77481E+06
 0.60620003E+02  0.87875E+06
 0.60670002E+02  0.98997E+06
 0.60720001E+02  0.11391E+07
 0.60770000E+02  0.12249E+07
 0.60820000E+02  0.12110E+07
 0.60870003E+02  0.11540E+07
 0.60920002E+02  0.10628E+07
 0.60970001E+02  0.88140E+06
 0.61020000E+02  0.58255E+06
 0.61070000E+02  0.26517E+06
 0.61120003E+02 -0.67181E+05
 0.61170002E+02 -0.43032E+06
 0.61220001E+02 -0.71449E+06
 0.61270000E+02 -0.88002E+06
 0.61320000E+02 -0.91618E+06
 0.61370003E+02 -0.86908E+06
 0.61420002E+02 -0.77020E+06
 0.61470001E+02 -0.59915E+06
 0.61520000E+02 -0.41731E+06
 0.61570000E+02 -0.25798E+06
 0.61620003E+02 -0.13499E+06
 0.61670002E+02 -0.43892E+05
 0.61720001E+02  0.24795E+05
 0.61770000E+02  0.43556E+05
 0.61820000E+02  0.29806E+05
 0.61870003E+02  0.16285E+05
 0.61920002E+02 -0.30569E+05
 0.61970001E+02 -0.12721E+06
 0.62020000E+02 -0.22796E+06
 0.62070004E+02 -0.28294E+06
 0.62119999E+02 -0.33762E+06
 0.62170002E+02 -0.43822E+06
 0.62220005E+02 -0.53892E+06
 0.62270000E+02 -0.61983E+06
 0.62320004E+02 -0.61260E+06
 0.62369999E+02 -0.50210E+06
 0.62420002E+02 -0.34519E+06
 0.62470005E+02 -0.16051E+06
 0.62520000E+02 -0.19540E+04
 0.62570004E+02  0.77036E+05
 0.62619999E+02  0.63155E+05
 0.62670002E+02 -0.19290E+05
 0.62720005E+02 -0.99117E+05
 0.62770000E+02 -0.13507E+06
 0.62820004E+02 -0.20156E+06
 0.62869999E+02 -0.31793E+06
 0.62920002E+02 -0.42528E+06
 0.62970005E+02 -0.49805E+06
 0.63020000E+02 -0.53735E+06
 0.63070004E+02 -0.56373E+06
 0.63119999E+02 -0.53512E+06
 0.63170002E+02 -0.44316E+06
 0.63220005E+02 -0.32623E+06
 0.63270000E+02 -0.18560E+06
 0.63320004E+02 -0.80316E+05
 0.63369999E+02 -0.71072E+05
 0.63420002E+02 -0.83839E+05
 0.63470005E+02 -0.43978E+05
 0.63520000E+02 -0.16006E+05
 0.63570004E+02 -0.33009E+05
 0.63619999E+02 -0.60772E+05
 0.63670002E+02 -0.61857E+05
 0.63720005E+02 -0.19618E+05
 0.63770000E+02  0.27235E+05
 0.63820004E+02  0.63567E+05
 0.63869999E+02  0.10205E+06
 0.63920002E+02  0.15211E+06
 0.63970005E+02  0.19536E+06
 0.64019997E+02  0.23507E+06
 0.64070000E+02  0.30494E+06
 0.64119995E+02  0.38363E+06
 0.64169998E+02  0.47507E+06
 0.64220001E+02  0.54869E+06
 0.64269997E+02  0.53738E+06
 0.64320000E+02  0.48364E+06
 0.64369995E+02  0.43098E+06
 0.64419998E+02  0.42678E+06
 0.64470001E+02  0.44162E+06
 0.64519997E+02  0.39454E+06
 0.64570000E+02  0.31743E+06
 0.64619995E+02  0.24320E+06
 0.64669998E+02  0.19813E+06
 0.64720001E+02  0.15599E+06
 0.64769997E+02  0.68809E+05
 0.64820000E+02 -0.47378E+05
 0.64869995E+02 -0.13156E+06
 0.64919998E+02 -0.17736E+06
 0.64970001E+02 -0.22743E+06
 0.65019997E+02 -0.26304E+06
 0.65070000E+02 -0.24707E+06
 0.65119995E+02 -0.14290E+06
 0.65169998E+02 -0.59910E+04
 0.65220001E+02  0.98425E+05
 0.65269997E+02  0.17289E+06
 0.65320000E+02  0.20633E+06
 0.65369995E+02  0.20668E+06
 0.65419998E+02  0.21982E+06
 0.65470001E+02  0.26500E+06
 0.65519997E+02  0.32316E+06
 0.65570000E+02  0.40294E+06
 0.65619995E+02  0.46021E+06
 0.65669998E+02  0.50977E+06
 0.65720001E+02  0.62443E+06
 0.65769997E+02  0.73267E+06
 0.65820000E+02  0.76605E+06
 0.65869995E+02  0.74069E+06
 0.65919998E+02  0.69215E+06
 0.65970001E+02  0.64625E+06
 0.66019997E+02  0.60064E+06
 0.66070000E+02  0.53486E+06
 0.66119995E+02  0.42865E+06
 0.66169998E+02  0.31664E+06
 0.66220001E+02  0.25580E+06
 0.66269997E+02  0.24650E+06
 0.66320000E+02  0.27171E+06
 0.66369995E+02  0.29499E+06
 0.66419998E+02  0.25949E+06
 0.66470001E+02  0.16744E+06
 0.66519997E+02  0.30621E+05
 0.66570000E+02 -0.12173E+06
 0.66619995E+02 -0.24276E+06
 0.66669998E+02 -0.36017E+06
 0.66720001E+02 -0.47147E+06
 0.66769997E+02 -0.55645E+06
 0.66820000E+02 -0.61587E+06
 0.66869995E+02 -0.61385E+06
 0.66919998E+02 -0.56023E+06
 0.66970001E+02 -0.48291E+06
 0.67019997E+02 -0.37635E+06
 0.67070000E+02 -0.25108E+06
 0.67119995E+02 -0.13802E+06
 0.67169998E+02 -0.29724E+05
 0.67220001E+02  0.84637E+05
 0.67269997E+02  0.17618E+06
 0.67320000E+02  0.22301E+06
 0.67369995E+02  0.19446E+06
 0.67419998E+02  0.14003E+06
 0.67470001E+02  0.12305E+06
 0.67519997E+02  0.94629E+05
 0.67570000E+02  0.48609E+05
 0.67619995E+02 -0.48318E+05
 0.67669998E+02 -0.23076E+06
 0.67720001E+02 -0.38984E+06
 0.67769997E+02 -0.47526E+06
 0.67820000E+02 -0.51821E+06
 0.67869995E+02 -0.54172E+06
 0.67919998E+02 -0.56802E+06
 0.67970001E+02 -0.57342E+06
 0.68019997E+02 -0.53796E+06
 0.68070000E+02 -0.44679E+06
 0.68119995E+02 -0.30796E+06
 0.68169998E+02 -0.16458E+06
 0.68220001E+02 -0.30980E+05
 0.68269997E+02  0.70515E+05
 0.68320000E+02  0.12481E+06
 0.68369995E+02  0.14533E+06
 0.68419998E+02  0.15191E+06
 0.68470001E+02  0.15713E+06
 0.68519997E+02  0.19502E+06
 0.68570000E+02  0.25465E+06
 0.68619995E+02  0.27342E+06
 0.68669998E+02  0.23964E+06
 0.68720001E+02  0.16175E+06
 0.68769997E+02  0.98611E+05
 0.68820000E+02  0.74373E+05
 0.68869995E+02  0.33867E+05
 0.68919998E+02 -0.48981E+05
 0.68970001E+02 -0.14586E+06
 0.69019997E+02 -0.20700E+06
 0.69070000E+02 -0.24804E+06
 0.69119995E+02 -0.28288E+06
 0.69169998E+02 -0.29943E+06
 0.69220001E+02 -0.32000E+06
 0.69269997E+02 -0.34372E+06
 0.69320000E+02 -0.35095E+06
 0.69369995E+02 -0.29756E+06
 0.69419998E+02 -0.18239E+06
 0.69470001E+02 -0.79159E+05
 0.69519997E+02  0.65870E+04
 0.69570000E+02  0.11243E+06
 0.69619995E+02  0.23427E+06
 0.69669998E+02  0.37500E+06
 0.69720001E+02  0.54849E+06
 0.69769997E+02  0.71975E+06
 0.69820000E+02  0.84716E+06
 0.69869995E+02  0.89993E+06
 0.69919998E+02  0.88054E+06
 0.69970001E+02  0.82349E+06
 0.70019997E+02  0.73222E+06
 0.70070000E+02  0.62459E+06
 0.70119995E+02  0.55998E+06
 0.70169998E+02  0.57289E+06
 0.70220001E+02  0.61133E+06
 0.70269997E+02  0.63962E+06
 0.70320000E+02  0.65020E+06
 0.70369995E+02  0.60110E+06
 0.70419998E+02  0.50290E+06
 0.70470001E+02  0.39463E+06
 0.70519997E+02  0.27578E+06
 0.70570000E+02  0.16785E+06
 0.70619995E+02  0.92067E+05
 0.70669998E+02  0.36260E+04
 0.70720001E+02 -0.10294E+06
 0.70769997E+02 -0.19262E+06
 0.70820000E+02 -0.27622E+06
 0.70869995E+02 -0.37291E+06
 0.70919998E+02 -0.48256E+06
 0.70970001E+02 -0.58129E+06
 0.71019997E+02 -0.66329E+06
 0.71070000E+02 -0.76227E+06
 0.71119995E+02 -0.85512E+06
 0.71169998E+02 -0.90618E+06
 0.71220001E+02 -0.93122E+06
 0.71269997E+02 -0.94637E+06
 0.71320000E+02 -0.96599E+06
 0.71369995E+02 -0.98111E+06
 0.71419998E+02 -0.97302E+06
 0.71470001E+02 -0.90983E+06
 0.71519997E+02 -0.80715E+06
 0.71570000E+02 -0.69588E+06
 0.71619995E+02 -0.56047E+06
 0.71669998E+02 -0.45496E+06
 0.71720001E+02 -0.40182E+06
 0.71769997E+02 -0.35156E+06
 0.71820000E+02 -0.29766E+06
 0.71869995E+02 -0.22359E+06
 0.71919998E+02 -0.97383E+05
 0.71970001E+02  0.38951E+05
 0.72019997E+02  0.15960E+06
 0.72070000E+02  0.29392E+06
 0.72119995E+02  0.41806E+06
 0.72169998E+02  0.51537E+06
 0.72220001E+02  0.59091E+06
 0.72269997E+02  0.64334E+06
 0.72320000E+02  0.67873E+06
 0.72369995E+02  0.68325E+06
 0.72419998E+02  0.66600E+06
 0.72470001E+02  0.63328E+06
 0.72519997E+02  0.55884E+06
 0.72570000E+02  0.44770E+06
 0.72619995E+02  0.33072E+06
 0.72669998E+02  0.21297E+06
 0.72720001E+02  0.97924E+05
 0.72769997E+02  0.77710E+04
 0.72820000E+02 -0.74183E+05
 0.72869995E+02 -0.17029E+06
 0.72919998E+02 -0.26348E+06
 0.72970001E+02 -0.32957E+06
 0.73019997E+02 -0.37154E+06
 0.73070000E+02 -0.42297E+06
 0.73119995E+02 -0.46562E+06
 0.73169998E+02 -0.45946E+06
 0.73220001E+02 -0.45155E+06
 0.73269997E+02 -0.47783E+06
 0.73320000E+02 -0.50687E+06
 0.73369995E+02 -0.53361E+06
 0.73419998E+02 -0.54880E+06
 0.73470001E+02 -0.53517E+06
 0.73519997E+02 -0.50848E+06
 0.73570000E+02 -0.46292E+06
 0.73619995E+02 -0.40321E+06
 0.73669998E+02 -0.34924E+06
 0.73720001E+02 -0.28884E+06
 0.73769997E+02 -0.21862E+06
 0.73820000E+02 -0.14406E+06
 0.73869995E+02 -0.85852E+05
 0.73919998E+02 -0.29903E+05
 0.73970001E+02  0.52217E+05
 0.74019997E+02  0.10376E+06
 0.74070000E+02  0.10764E+06
 0.74119995E+02  0.10145E+06
 0.74169998E+02  0.96566E+05
 0.74220001E+02  0.10618E+06
 0.74269997E+02  0.12656E+06
 0.74320000E+02  0.14723E+06
 0.74369995E+02  0.16875E+06
 0.74419998E+02  0.19176E+06
 0.74470001E+02  0.20774E+06
 0.74519997E+02  0.19297E+06
 0.74570000E+02  0.14467E+06
 0.74619995E+02  0.82499E+05
 0.74669998E+02  0.25868E+05
 0.74720001E+02  0.22030E+04
 0.74769997E+02 -0.22200E+04
 0.74820000E+02 -0.21455E+05
 0.74869995E+02 -0.43070E+05
 0.74919998E+02 -0.79537E+05
 0.74970001E+02 -0.14849E+06
 0.75019997E+02 -0.22382E+06
 0.75070000E+02 -0.28397E+06
 0.75119995E+02 -0.31407E+06
 0.75169998E+02 -0.30814E+06
 0.75220001E+02 -0.26331E+06
 0.75269997E+02 -0.19108E+06
 0.75320000E+02 -0.12146E+06
 0.75369995E+02 -0.66908E+05
 0.75419998E+02 -0.12086E+05
 0.75470001E+02  0.45862E+05
 0.75519997E+02  0.99062E+05
 0.75570000E+02  0.16631E+06
 0.75619995E+02  0.25256E+06
 0.75669998E+02  0.34054E+06
 0.75720001E+02  0.41807E+06
 0.75769997E+02  0.49062E+06
 0.75820000E+02  0.55924E+06
 0.75869995E+02  0.60267E+06
 0.75919998E+02  0.61771E+06
 0.75970001E+02  0.62795E+06
 0.76019997E+02  0.63921E+06
 0.76070000E+02  0.63434E+06
 0.76119995E+02  0.61183E+06
 0.76169998E+02  0.56193E+06
 0.76220001E+02  0.48488E+06
 0.76269997E+02  0.40406E+06
 0.76320000E+02  0.33041E+06
 0.76369995E+02  0.27598E+06
 0.76419998E+02  0.23921E+06
 0.76470001E+02  0.20136E+06
 0.76519997E+02  0.15222E+06
 0.76570000E+02  0.96628E+05
 0.76619995E+02  0.41464E+05
 0.76669998E+02  0.75110E+04
 0.76720001E+02  0.16230E+04
 0.76769997E+02  0.37330E+04
 0.76820000E+02  0.58720E+04
 0.76869995E+02 -0.19390E+04
 0.76919998E+02 -0.18047E+05
 0.76970001E+02 -0.40907E+05
 0.77019997E+02 -0.62059E+05
 0.77070000E+02 -0.48637E+05
 0.77119995E+02  0.23500E+03
 0.77169998E+02  0.65446E+05
 0.77220001E+02  0.13377E+06
 0.77269997E+02  0.19414E+06
 0.77320000E+02  0.23884E+06
 0.77369995E+02  0.26288E+06
 0.77419998E+02  0.29089E+06
 0.77470001E+02  0.34628E+06
 0.77519997E+02  0.39018E+06
 0.77570000E+02  0.38368E+06
 0.77619995E+02  0.35245E+06
 0.77669998E+02  0.31793E+06
 0.77720001E+02  0.29073E+06
 0.77769997E+02  0.28323E+06
 0.77820000E+02  0.25664E+06
 0.77869995E+02  0.19032E+06
 0.77919998E+02  0.12382E+06
 0.77970001E+02  0.78153E+05
 0.78019997E+02  0.33513E+05
 0.78070000E+02 -0.33464E+05
 0.78119995E+02 -0.11521E+06
 0.78169998E+02 -0.18356E+06
 0.78220001E+02 -0.24120E+06
 0.78269997E+02 -0.28665E+06
 0.78320000E+02 -0.28837E+06
 0.78369995E+02 -0.27212E+06
 0.78419998E+02 -0.26442E+06
 0.78470001E+02 -0.23340E+06
 0.78519997E+02 -0.18158E+06
 0.78570000E+02 -0.14126E+06
 0.78619995E+02 -0.12937E+06
 0.78669998E+02 -0.13348E+06
 0.78720001E+02 -0.13253E+06
 0.78769997E+02 -0.13313E+06
 0.78820000E+02 -0.13696E+06
 0.78869995E+02 -0.12477E+06
 0.78919998E+02 -0.93072E+05
 0.78970001E+02 -0.61112E+05
 0.79019997E+02 -0.18721E+05
 0.79070000E+02  0.53151E+05
 0.79119995E+02  0.12630E+06
 0.79169998E+02  0.18922E+06
 0.79220001E+02  0.26321E+06
 0.79269997E+02  0.33680E+06
 0.79320000E+02  0.37199E+06
 0.79369995E+02  0.35911E+06
 0.79419998E+02  0.34175E+06
 0.79470001E+02  0.34705E+06
 0.79519997E+02  0.34348E+06
 0.79570000E+02  0.31368E+06
 0.79619995E+02  0.27399E+06
 0.79669998E+02  0.24276E+06
 0.79720001E+02  0.21293E+06
 0.79769997E+02  0.14653E+06
 0.79820000E+02  0.32649E+05
 0.79869995E+02 -0.10493E+06
 0.79919998E+02 -0.23690E+06
 0.79970001E+02 -0.35607E+06
 0.80019997E+02 -0.46866E+06
 0.80070000E+02 -0.56082E+06
 0.80119995E+02 -0.63235E+06
 0.80169998E+02 -0.70150E+06
 0.80220001E+02 -0.76691E+06
 0.80269997E+02 -0.81032E+06
 0.80320000E+02 -0.83281E+06
 0.80369995E+02 -0.84608E+06
 0.80419998E+02 -0.85325E+06
 0.80470001E+02 -0.85477E+06
 0.80519997E+02 -0.84892E+06
 0.80570000E+02 -0.83588E+06
 0.80619995E+02 -0.81048E+06
 0.80669998E+02 -0.75824E+06
 0.80720001E+02 -0.66659E+06
 0.80769997E+02 -0.55683E+06
 0.80820000E+02 -0.46686E+06
 0.80869995E+02 -0.40726E+06
 0.80919998E+02 -0.35927E+06
 0.80970001E+02 -0.29456E+06
 0.81019997E+02 -0.21760E+06
 0.81070000E+02 -0.15721E+06
 0.81119995E+02 -0.11234E+06
 0.81169998E+02 -0.61258E+05
 0.81220001E+02  0.11110E+04
 0.81269997E+02  0.75945E+05
 0.81320000E+02  0.17206E+06
 0.81369995E+02  0.27768E+06
 0.81419998E+02  0.35289E+06
 0.81470001E+02  0.38904E+06
 0.81519997E+02  0.41718E+06
 0.81570000E+02  0.42874E+06
 0.81619995E+02  0.39364E+06
 0.81669998E+02  0.33389E+06
 0.81720001E+02  0.28076E+06
 0.81769997E+02  0.22060E+06
 0.81820000E+02  0.14807E+06
 0.81869995E+02  0.88136E+05
 0.81919998E+02  0.48778E+05
 0.81970001E+02  0.31536E+05
 0.82019997E+02  0.48869E+05
 0.82070000E+02  0.94833E+05
 0.82119995E+02  0.15244E+06
 0.82169998E+02  0.20273E+06
 0.82220001E+02  0.23957E+06
 0.82269997E+02  0.26600E+06
 0.82320000E+02  0.25876E+06
 0.82369995E+02  0.22912E+06
 0.82419998E+02  0.20072E+06
 0.82470001E+02  0.16713E+06
 0.82519997E+02  0.14511E+06
 0.82570000E+02  0.14642E+06
 0.82619995E+02  0.16474E+06
 0.82669998E+02  0.18296E+06
 0.82720001E+02  0.19649E+06
 0.82769997E+02  0.22345E+06
 0.82820000E+02  0.25300E+06
 0.82869995E+02  0.26138E+06
 0.82919998E+02  0.23730E+06
 0.82970001E+02  0.19134E+06
 0.83019997E+02  0.14135E+06
 0.83070000E+02  0.89570E+05
 0.83119995E+02  0.53138E+05
 0.83169998E+02  0.31137E+05
 0.83220001E+02  0.23801E+05
 0.83269997E+02  0.45720E+05
 0.83320000E+02  0.61976E+05
 0.83369995E+02  0.53067E+05
 0.83419998E+02  0.37867E+05
 0.83470001E+02  0.28995E+05
 0.83519997E+02  0.16470E+05
 0.83570000E+02 -0.56930E+04
 0.83619995E+02 -0.19905E+05
 0.83669998E+02 -0.22037E+05
 0.83720001E+02 -0.10553E+05
 0.83769997E+02  0.94200E+03
 0.83820000E+02  0.80760E+04
 0.83869995E+02  0.27541E+05
 0.83919998E+02  0.55009E+05
 0.83970001E+02  0.88381E+05
 0.84019997E+02  0.11307E+06
 0.84070000E+02  0.11337E+06
 0.84119995E+02  0.93755E+05
 0.84169998E+02  0.42052E+05
 0.84220001E+02 -0.35208E+05
 0.84269997E+02 -0.10680E+06
 0.84320000E+02 -0.15411E+06
 0.84369995E+02 -0.16517E+06
 0.84419998E+02 -0.14136E+06
 0.84470001E+02 -0.82329E+05
 0.84519997E+02  0.27380E+04
 0.84570000E+02  0.88751E+05
 0.84619995E+02  0.15189E+06
 0.84669998E+02  0.18011E+06
 0.84720001E+02  0.19019E+06
 0.84769997E+02  0.18525E+06
 0.84820000E+02  0.16342E+06
 0.84869995E+02  0.13442E+06
 0.84919998E+02  0.95382E+05
 0.84970001E+02  0.54551E+05
 0.85019997E+02  0.37157E+05
 0.85070000E+02  0.52405E+05
 0.85119995E+02  0.81034E+05
 0.85169998E+02  0.10132E+06
 0.85220001E+02  0.10985E+06
 0.85269997E+02  0.10949E+06
 0.85320000E+02  0.76699E+05
 0.85369995E+02  0.12603E+05
 0.85419998E+02 -0.33955E+05
 0.85470001E+02 -0.54406E+05
 0.85519997E+02 -0.59889E+05
 0.85570000E+02 -0.42139E+05
 0.85619995E+02 -0.18000E+03
 0.85669998E+02  0.62233E+05
 0.85720001E+02  0.14590E+06
 0.85769997E+02  0.24817E+06
 0.85820000E+02  0.35435E+06
 0.85869995E+02  0.44634E+06
 0.85919998E+02  0.50722E+06
 0.85970001E+02  0.53757E+06
 0.86019997E+02  0.53937E+06
 0.86070000E+02  0.51713E+06
 0.86119995E+02  0.49239E+06
 0.86169998E+02  0.47918E+06
 0.86220001E+02  0.46990E+06
 0.86269997E+02  0.43285E+06
 0.86320000E+02  0.36583E+06
 0.86369995E+02  0.29449E+06
 0.86419998E+02  0.23189E+06
 0.86470001E+02  0.17744E+06
 0.86519997E+02  0.13561E+06
 0.86570000E+02  0.12791E+06
 0.86619995E+02  0.13934E+06
 0.86669998E+02  0.14522E+06
 0.86720001E+02  0.14660E+06
 0.86769997E+02  0.13784E+06
 0.86820000E+02  0.11038E+06
 0.86869995E+02  0.65950E+05
 0.86919998E+02  0.29216E+05
 0.86970001E+02  0.31350E+04
 0.87019997E+02 -0.24649E+05
 0.87070000E+02 -0.42138E+05
 0.87119995E+02 -0.45340E+05
 0.87169998E+02 -0.29432E+05
 0.87220001E+02  0.15800E+03
 0.87269997E+02  0.30866E+05
 0.87320000E+02  0.55417E+05
 0.87369995E+02  0.62441E+05
 0.87419998E+02  0.51219E+05
 0.87470001E+02  0.19352E+05
 0.87519997E+02 -0.20759E+05
 0.87570000E+02 -0.59486E+05
 0.87619995E+02 -0.10899E+06
 0.87669998E+02 -0.16558E+06
 0.87720001E+02 -0.20926E+06
 0.87769997E+02 -0.22509E+06
 0.87820000E+02 -0.22007E+06
 0.87869995E+02 -0.20225E+06
 0.87919998E+02 -0.18093E+06
 0.87970001E+02 -0.17798E+06
 0.88019997E+02 -0.19662E+06
 0.88070000E+02 -0.22152E+06
 0.88119995E+02 -0.23081E+06
 0.88169998E+02 -0.22574E+06
 0.88220001E+02 -0.22132E+06
 0.88269997E+02 -0.20709E+06
 0.88320000E+02 -0.18974E+06
 0.88369995E+02 -0.18773E+06
 0.88419998E+02 -0.19875E+06
 0.88470001E+02 -0.21587E+06
 0.88519997E+02 -0.24479E+06
 0.88570000E+02 -0.29294E+06
 0.88619995E+02 -0.33874E+06
 0.88669998E+02 -0.36452E+06
 0.88720001E+02 -0.37640E+06
 0.88769997E+02 -0.39674E+06
 0.88820000E+02 -0.43713E+06
 0.88869995E+02 -0.47881E+06
 0.88919998E+02 -0.51922E+06
 0.88970001E+02 -0.55000E+06
 0.89019997E+02 -0.54845E+06
 0.89070000E+02 -0.52003E+06
 0.89119995E+02 -0.48450E+06
 0.89169998E+02 -0.45073E+06
 0.89220001E+02 -0.41510E+06
 0.89269997E+02 -0.37386E+06
 0.89320000E+02 -0.32510E+06
 0.89369995E+02 -0.28235E+06
 0.89419998E+02 -0.26279E+06
 0.89470001E+02 -0.25775E+06
 0.89519997E+02 -0.25752E+06
 0.89570000E+02 -0.26275E+06
 0.89619995E+02 -0.26308E+06
 0.89669998E+02 -0.25143E+06
 0.89720001E+02 -0.24296E+06
 0.89769997E+02 -0.24615E+06
 0.89820000E+02 -0.24503E+06
 0.89869995E+02 -0.24061E+06
 0.89919998E+02 -0.24464E+06
 0.89970001E+02 -0.24294E+06
 0.90019997E+02 -0.22742E+06
 0.90070000E+02 -0.20659E+06
 0.90119995E+02 -0.18553E+06
 0.90169998E+02 -0.17089E+06
 0.90220001E+02 -0.18338E+06
 0.90269997E+02 -0.22880E+06
 0.90320000E+02 -0.28302E+06
 0.90369995E+02 -0.34067E+06
 0.90419998E+02 -0.40492E+06
 0.90470001E+02 -0.46239E+06
 0.90519997E+02 -0.50765E+06
 0.90570000E+02 -0.54639E+06
 0.90619995E+02 -0.56979E+06
 0.90669998E+02 -0.56080E+06
 0.90720001E+02 -0.53392E+06
 0.90769997E+02 -0.50882E+06
 0.90820000E+02 -0.48148E+06
 0.90869995E+02 -0.44399E+06
 0.90919998E+02 -0.40218E+06
 0.90970001E+02 -0.36871E+06
 0.91019997E+02 -0.33687E+06
 0.91070000E+02 -0.30222E+06
 0.91119995E+02 -0.26823E+06
 0.91169998E+02 -0.23796E+06
 0.91220001E+02 -0.21318E+06
 0.91269997E+02 -0.18093E+06
 0.91320000E+02 -0.13337E+06
 0.91369995E+02 -0.72298E+05
 0.91419998E+02  0.29210E+04
 0.91470001E+02  0.96098E+05
 0.91519997E+02  0.19287E+06
 0.91570000E+02  0.26642E+06
 0.91619995E+02  0.31177E+06
 0.91669998E+02  0.33434E+06
 0.91720001E+02  0.34132E+06
 0.91769997E+02  0.34860E+06
 0.91820000E+02  0.36357E+06
 0.91869995E+02  0.38016E+06
 0.91919998E+02  0.39860E+06
 0.91970001E+02  0.42178E+06
 0.92019997E+02  0.45058E+06
 0.92070000E+02  0.49433E+06
 0.92119995E+02  0.55189E+06
 0.92169998E+02  0.60260E+06
 0.92220001E+02  0.64120E+06
 0.92269997E+02  0.68274E+06
 0.92320000E+02  0.73905E+06
 0.92369995E+02  0.79281E+06
 0.92419998E+02  0.82089E+06
 0.92470001E+02  0.83741E+06
 0.92519997E+02  0.84581E+06
 0.92570000E+02  0.83951E+06
 0.92619995E+02  0.83389E+06
 0.92669998E+02  0.82534E+06
 0.92720001E+02  0.80638E+06
 0.92769997E+02  0.78989E+06
 0.92820000E+02  0.76784E+06
 0.92869995E+02  0.72865E+06
 0.92919998E+02  0.68169E+06
 0.92970001E+02  0.62585E+06
 0.93019997E+02  0.55399E+06
 0.93070000E+02  0.46908E+06
 0.93119995E+02  0.37516E+06
 0.93169998E+02  0.27117E+06
 0.93220001E+02  0.17042E+06
 0.93269997E+02  0.78411E+05
 0.93320000E+02 -0.25720E+04
 0.93369995E+02 -0.53979E+05
 0.93419998E+02 -0.85791E+05
 0.93470001E+02 -0.10646E+06
 0.93519997E+02 -0.11428E+06
 0.93570000E+02 -0.11372E+06
 0.93619995E+02 -0.11096E+06
 0.93669998E+02 -0.11238E+06
 0.93720001E+02 -0.10821E+06
 0.93769997E+02 -0.10023E+06
 0.93820000E+02 -0.93189E+05
 0.93869995E+02 -0.82048E+05
 0.93919998E+02 -0.64650E+05
 0.93970001E+02 -0.34813E+05
 0.94019997E+02  0.65000E+04
 0.94070000E+02  0.51085E+05
 0.94119995E+02  0.10087E+06
 0.94169998E+02  0.15074E+06
 0.94220001E+02  0.19318E+06
 0.94269997E+02  0.22847E+06
 0.94320000E+02  0.25085E+06
 0.94369995E+02  0.26973E+06
 0.94419998E+02  0.29854E+06
 0.94470001E+02  0.33145E+06
 0.94519997E+02  0.35090E+06
 0.94570000E+02  0.34734E+06
 0.94619995E+02  0.33163E+06
 0.94669998E+02  0.31311E+06
 0.94720001E+02  0.29514E+06
 0.94769997E+02  0.27448E+06
 0.94820000E+02  0.24218E+06
 0.94869995E+02  0.20176E+06
 0.94919998E+02  0.16325E+06
 0.94970001E+02  0.12868E+06
 0.95019997E+02  0.87050E+05
 0.95070000E+02  0.31227E+05
 0.95119995E+02 -0.27940E+05
 0.95169998E+02 -0.82918E+05
 0.95220001E+02 -0.14028E+06
 0.95269997E+02 -0.20210E+06
 0.95320000E+02 -0.25730E+06
 0.95369995E+02 -0.29242E+06
 0.95419998E+02 -0.30870E+06
 0.95470001E+02 -0.32083E+06
 0.95519997E+02 -0.33461E+06
 0.95570000E+02 -0.34582E+06
 0.95619995E+02 -0.34999E+06
 0.95669998E+02 -0.35752E+06
 0.95720001E+02 -0.37710E+06
 0.95769997E+02 -0.40072E+06
 0.95820000E+02 -0.43030E+06
 0.95869995E+02 -0.47290E+06
 0.95919998E+02 -0.52271E+06
 0.95970001E+02 -0.55162E+06
 0.96019997E+02 -0.54234E+06
 0.96070000E+02 -0.50838E+06
 0.96119995E+02 -0.45878E+06
 0.96169998E+02 -0.40409E+06
 0.96220001E+02 -0.36607E+06
 0.96269997E+02 -0.34789E+06
 0.96320000E+02 -0.33180E+06
 0.96369995E+02 -0.31897E+06
 0.96419998E+02 -0.31940E+06
 0.96470001E+02 -0.32036E+06
 0.96519997E+02 -0.31525E+06
 0.96570000E+02 -0.30993E+06
 0.96619995E+02 -0.30345E+06
 0.96669998E+02 -0.29629E+06
 0.96720001E+02 -0.29163E+06
 0.96769997E+02 -0.28088E+06
 0.96820000E+02 -0.25124E+06
 0.96869995E+02 -0.20468E+06
 0.96919998E+02 -0.14542E+06
 0.96970001E+02 -0.77334E+05
 0.97019997E+02 -0.11348E+05
 0.97070000E+02  0.43743E+05
 0.97119995E+02  0.89173E+05
 0.97169998E+02  0.13582E+06
 0.97220001E+02  0.18479E+06
 0.97269997E+02  0.23216E+06
 0.97320000E+02  0.27934E+06
 0.97369995E+02  0.32333E+06
 0.97419998E+02  0.36208E+06
 0.97470001E+02  0.39590E+06
 0.97519997E+02  0.41725E+06
 0.97570000E+02  0.42101E+06
 0.97619995E+02  0.42301E+06
 0.97669998E+02  0.42124E+06
 0.97720001E+02  0.40906E+06
 0.97769997E+02  0.40212E+06
 0.97820000E+02  0.39407E+06
 0.97869995E+02  0.37605E+06
 0.97919998E+02  0.34263E+06
 0.97970001E+02  0.29152E+06
 0.98019997E+02  0.23313E+06
