-0.20000000E+01 -0.19070E+05
-0.19500000E+01 -0.18983E+05
-0.19000000E+01 -0.19073E+05
-0.18500000E+01 -0.19098E+05
-0.18000000E+01 -0.19109E+05
-0.17500000E+01 -0.19112E+05
-0.17000000E+01 -0.19097E+05
-0.16500001E+01 -0.19090E+05
-0.16000000E+01 -0.19075E+05
-0.15500000E+01 -0.19067E+05
-0.15000000E+01 -0.19074E+05
-0.14500000E+01 -0.19070E+05
-0.14000001E+01 -0.19077E+05
-0.13500000E+01 -0.19080E+05
-0.13000001E+01 -0.19076E+05
-0.12500000E+01 -0.19079E+05
-0.12000000E+01 -0.19097E+05
-0.11500001E+01 -0.19112E+05
-0.11000000E+01 -0.19110E+05
-0.10500001E+01 -0.19085E+05
-0.10000000E+01 -0.19059E+05
-0.95000005E+00 -0.19041E+05
-0.90000010E+00 -0.19042E+05
-0.85000002E+00 -0.19033E+05
-0.80000007E+00 -0.19015E+05
-0.75000012E+00 -0.19013E+05
-0.70000005E+00 -0.19026E+05
-0.65000010E+00 -0.19045E+05
-0.60000014E+00 -0.19038E+05
-0.55000007E+00 -0.19032E+05
-0.50000012E+00 -0.19025E+05
-0.45000005E+00 -0.19025E+05
-0.40000010E+00 -0.19030E+05
-0.35000014E+00 -0.19029E+05
-0.30000007E+00 -0.19011E+05
-0.25000012E+00 -0.19007E+05
-0.20000005E+00 -0.19020E+05
-0.15000010E+00 -0.19048E+05
-0.10000014E+00 -0.19091E+05
-0.50000072E-01 -0.19108E+05
-0.11920929E-06 -0.19116E+05
 0.49999952E-01 -0.19120E+05
 0.99999905E-01 -0.19098E+05
 0.14999986E+00 -0.19080E+05
 0.19999981E+00 -0.19073E+05
 0.24999976E+00 -0.19076E+05
 0.29999995E+00 -0.19085E+05
 0.34999990E+00 -0.19094E+05
 0.39999986E+00 -0.19096E+05
 0.44999981E+00 -0.19097E+05
 0.49999976E+00 -0.19107E+05
 0.54999995E+00 -0.19103E+05
 0.59999990E+00 -0.19102E+05
 0.64999986E+00 -0.19079E+05
 0.69999981E+00 -0.19047E+05
 0.74999976E+00 -0.19017E+05
 0.79999971E+00 -0.19000E+05
 0.84999990E+00 -0.19011E+05
 0.89999986E+00 -0.19037E+05
 0.94999981E+00 -0.19048E+05
 0.99999976E+00 -0.19058E+05
 0.10499997E+01 -0.19054E+05
 0.10999999E+01 -0.19067E+05
 0.11499999E+01 -0.19088E+05
 0.11999998E+01 -0.19097E+05
 0.12499998E+01 -0.19104E+05
 0.12999997E+01 -0.19093E+05
 0.13499999E+01 -0.19084E+05
 0.13999999E+01 -0.19063E+05
 0.14499998E+01 -0.19069E+05
 0.14999998E+01 -0.19072E+05
 0.15499997E+01 -0.19098E+05
 0.15999999E+01 -0.19131E+05
 0.16499999E+01 -0.19159E+05
 0.16999998E+01 -0.19166E+05
 0.17499998E+01 -0.19166E+05
 0.17999997E+01 -0.19147E+05
 0.18499997E+01 -0.19129E+05
 0.18999999E+01 -0.19110E+05
 0.19499998E+01 -0.19081E+05
 0.19999998E+01 -0.19057E+05
 0.20499997E+01 -0.19016E+05
 0.20999999E+01 -0.19023E+05
 0.21499996E+01 -0.19043E+05
 0.21999998E+01 -0.19061E+05
 0.22499995E+01 -0.19061E+05
 0.22999997E+01 -0.19056E+05
 0.23499999E+01 -0.19045E+05
 0.23999996E+01 -0.19024E+05
 0.24499998E+01 -0.19006E+05
 0.24999995E+01 -0.18997E+05
 0.25499997E+01 -0.18995E+05
 0.25999999E+01 -0.19011E+05
 0.26499996E+01 -0.19025E+05
 0.26999998E+01 -0.19039E+05
 0.27499995E+01 -0.19056E+05
 0.27999997E+01 -0.19048E+05
 0.28499999E+01 -0.19047E+05
 0.28999996E+01 -0.19065E+05
 0.29499998E+01 -0.19098E+05
 0.29999995E+01 -0.19113E+05
 0.30499997E+01 -0.19109E+05
 0.30999999E+01 -0.19103E+05
 0.31499996E+01 -0.19100E+05
 0.31999998E+01 -0.19106E+05
 0.32499995E+01 -0.19123E+05
 0.32999997E+01 -0.19130E+05
 0.33499999E+01 -0.19118E+05
 0.33999996E+01 -0.19097E+05
 0.34499998E+01 -0.19095E+05
 0.34999995E+01 -0.19080E+05
 0.35499997E+01 -0.19059E+05
 0.35999994E+01 -0.19036E+05
 0.36499996E+01 -0.19036E+05
 0.36999998E+01 -0.19045E+05
 0.37499995E+01 -0.19046E+05
 0.37999997E+01 -0.19052E+05
 0.38499994E+01 -0.19067E+05
 0.38999996E+01 -0.19092E+05
 0.39499998E+01 -0.19088E+05
 0.39999995E+01 -0.19080E+05
 0.40499997E+01 -0.19042E+05
 0.40999994E+01 -0.19024E+05
 0.41499996E+01 -0.19014E+05
 0.41999998E+01 -0.19020E+05
 0.42499995E+01 -0.19021E+05
 0.42999997E+01 -0.19023E+05
 0.43499994E+01 -0.19032E+05
 0.43999996E+01 -0.19039E+05
 0.44499998E+01 -0.19042E+05
 0.44999995E+01 -0.19043E+05
 0.45499997E+01 -0.19064E+05
 0.45999994E+01 -0.19082E+05
 0.46499996E+01 -0.19105E+05
 0.46999998E+01 -0.19101E+05
 0.47499995E+01 -0.19098E+05
 0.47999997E+01 -0.19081E+05
 0.48499994E+01 -0.19079E+05
 0.48999996E+01 -0.19090E+05
 0.49499998E+01 -0.19112E+05
 0.49999995E+01 -0.19120E+05
 0.50499997E+01 -0.19115E+05
 0.50999994E+01 -0.19102E+05
 0.51499996E+01 -0.19086E+05
 0.51999998E+01 -0.19077E+05
 0.52499995E+01 -0.19075E+05
 0.52999997E+01 -0.19083E+05
 0.53499994E+01 -0.19088E+05
 0.53999996E+01 -0.19081E+05
 0.54499993E+01 -0.19070E+05
 0.54999995E+01 -0.19070E+05
 0.55499997E+01 -0.19049E+05
 0.55999994E+01 -0.19030E+05
 0.56499996E+01 -0.19020E+05
 0.56999993E+01 -0.19020E+05
 0.57499995E+01 -0.19010E+05
 0.57999997E+01 -0.19018E+05
 0.58499994E+01 -0.19027E+05
 0.58999996E+01 -0.19041E+05
 0.59499993E+01 -0.19059E+05
 0.59999995E+01 -0.19063E+05
 0.60499992E+01 -0.19069E+05
 0.60999994E+01 -0.19076E+05
 0.61499996E+01 -0.19083E+05
 0.61999998E+01 -0.19084E+05
 0.62499990E+01 -0.19081E+05
 0.62999992E+01 -0.19077E+05
 0.63499994E+01 -0.19092E+05
 0.63999996E+01 -0.19099E+05
 0.64499998E+01 -0.19107E+05
 0.64999990E+01 -0.19110E+05
 0.65499992E+01 -0.19108E+05
 0.65999994E+01 -0.19103E+05
 0.66499996E+01 -0.19106E+05
 0.66999998E+01 -0.19102E+05
 0.67499990E+01 -0.19100E+05
 0.67999992E+01 -0.19097E+05
 0.68499994E+01 -0.19072E+05
 0.68999996E+01 -0.19052E+05
 0.69499998E+01 -0.19043E+05
 0.69999990E+01 -0.19058E+05
 0.70499992E+01 -0.19067E+05
 0.70999994E+01 -0.19089E+05
 0.71499996E+01 -0.19108E+05
 0.71999998E+01 -0.19111E+05
 0.72499990E+01 -0.19104E+05
 0.72999992E+01 -0.19101E+05
 0.73499994E+01 -0.19092E+05
 0.73999996E+01 -0.19073E+05
 0.74499998E+01 -0.19053E+05
 0.74999990E+01 -0.19034E+05
 0.75499992E+01 -0.19031E+05
 0.75999994E+01 -0.19018E+05
 0.76499996E+01 -0.19029E+05
 0.76999998E+01 -0.19025E+05
 0.77499990E+01 -0.19025E+05
 0.77999992E+01 -0.19015E+05
 0.78499994E+01 -0.19010E+05
 0.78999996E+01 -0.19018E+05
 0.79499998E+01 -0.19025E+05
 0.79999990E+01 -0.19044E+05
 0.80499992E+01 -0.19054E+05
 0.80999994E+01 -0.19071E+05
 0.81499996E+01 -0.19098E+05
 0.81999998E+01 -0.19125E+05
 0.82499990E+01 -0.19115E+05
 0.82999992E+01 -0.19109E+05
 0.83499994E+01 -0.19087E+05
 0.83999996E+01 -0.19083E+05
 0.84499998E+01 -0.19082E+05
 0.84999990E+01 -0.19078E+05
 0.85499992E+01 -0.19092E+05
 0.85999994E+01 -0.19092E+05
 0.86499996E+01 -0.19098E+05
 0.86999998E+01 -0.19089E+05
 0.87499990E+01 -0.19069E+05
 0.87999992E+01 -0.19055E+05
 0.88499994E+01 -0.19055E+05
 0.88999996E+01 -0.19043E+05
 0.89499998E+01 -0.19044E+05
 0.89999990E+01 -0.19042E+05
 0.90499992E+01 -0.19027E+05
 0.90999994E+01 -0.19036E+05
 0.91499996E+01 -0.19036E+05
 0.91999989E+01 -0.19042E+05
 0.92499990E+01 -0.19050E+05
 0.92999992E+01 -0.19051E+05
 0.93499994E+01 -0.19060E+05
 0.93999996E+01 -0.19062E+05
 0.94499989E+01 -0.19072E+05
 0.94999990E+01 -0.19086E+05
 0.95499992E+01 -0.19085E+05
 0.95999994E+01 -0.19076E+05
 0.96499996E+01 -0.19078E+05
 0.96999989E+01 -0.19071E+05
 0.97499990E+01 -0.19055E+05
 0.97999992E+01 -0.19031E+05
 0.98499994E+01 -0.19019E+05
 0.98999996E+01 -0.19015E+05
 0.99499989E+01 -0.19011E+05
 0.99999990E+01 -0.19034E+05
 0.10049999E+02 -0.19054E+05
 0.10099999E+02 -0.19074E+05
 0.10150000E+02 -0.19070E+05
 0.10199999E+02 -0.19077E+05
 0.10249999E+02 -0.19089E+05
 0.10299999E+02 -0.19090E+05
 0.10349999E+02 -0.19106E+05
 0.10400000E+02 -0.19108E+05
 0.10449999E+02 -0.19099E+05
 0.10499999E+02 -0.19091E+05
 0.10549999E+02 -0.19084E+05
 0.10599999E+02 -0.19085E+05
 0.10650000E+02 -0.19079E+05
 0.10699999E+02 -0.19065E+05
 0.10749999E+02 -0.19078E+05
 0.10799999E+02 -0.19080E+05
 0.10849999E+02 -0.19082E+05
 0.10900000E+02 -0.19084E+05
 0.10949999E+02 -0.19078E+05
 0.10999999E+02 -0.19086E+05
 0.11049999E+02 -0.19094E+05
 0.11099999E+02 -0.19121E+05
 0.11150000E+02 -0.19131E+05
 0.11199999E+02 -0.19132E+05
 0.11249999E+02 -0.19125E+05
 0.11299999E+02 -0.19113E+05
 0.11349999E+02 -0.19113E+05
 0.11400000E+02 -0.19098E+05
 0.11449999E+02 -0.19094E+05
 0.11499999E+02 -0.19104E+05
 0.11549999E+02 -0.19105E+05
 0.11599999E+02 -0.19099E+05
 0.11650000E+02 -0.19088E+05
 0.11699999E+02 -0.19062E+05
 0.11749999E+02 -0.19046E+05
 0.11799999E+02 -0.19039E+05
 0.11849999E+02 -0.19042E+05
 0.11900000E+02 -0.19053E+05
 0.11949999E+02 -0.19060E+05
 0.11999999E+02 -0.19066E+05
 0.12049999E+02 -0.19064E+05
 0.12099999E+02 -0.19061E+05
 0.12150000E+02 -0.19031E+05
 0.12199999E+02 -0.19031E+05
 0.12249999E+02 -0.19032E+05
 0.12299999E+02 -0.19015E+05
 0.12349999E+02 -0.18998E+05
 0.12400000E+02 -0.18987E+05
 0.12449999E+02 -0.18996E+05
 0.12499999E+02 -0.19003E+05
 0.12549999E+02 -0.19010E+05
 0.12599999E+02 -0.19007E+05
 0.12649999E+02 -0.19006E+05
 0.12699999E+02 -0.19024E+05
 0.12749999E+02 -0.19059E+05
 0.12799999E+02 -0.19086E+05
 0.12849999E+02 -0.19107E+05
 0.12899999E+02 -0.19104E+05
 0.12949999E+02 -0.19117E+05
 0.12999999E+02 -0.19110E+05
 0.13049999E+02 -0.19101E+05
 0.13099999E+02 -0.19109E+05
 0.13149999E+02 -0.19103E+05
 0.13199999E+02 -0.19096E+05
 0.13249999E+02 -0.19096E+05
 0.13299999E+02 -0.19099E+05
 0.13349999E+02 -0.19091E+05
 0.13399999E+02 -0.19087E+05
 0.13449999E+02 -0.19070E+05
 0.13499999E+02 -0.19050E+05
 0.13549999E+02 -0.19045E+05
 0.13599999E+02 -0.19040E+05
 0.13649999E+02 -0.19043E+05
 0.13699999E+02 -0.19046E+05
 0.13749999E+02 -0.19033E+05
 0.13799999E+02 -0.19027E+05
 0.13849999E+02 -0.19036E+05
 0.13899999E+02 -0.19039E+05
 0.13949999E+02 -0.19041E+05
 0.13999999E+02 -0.19040E+05
 0.14049999E+02 -0.19039E+05
 0.14099998E+02 -0.19053E+05
 0.14150000E+02 -0.19060E+05
 0.14199999E+02 -0.19070E+05
 0.14249998E+02 -0.19072E+05
 0.14299999E+02 -0.19074E+05
 0.14349998E+02 -0.19085E+05
 0.14400000E+02 -0.19112E+05
 0.14449999E+02 -0.19114E+05
 0.14499998E+02 -0.19107E+05
 0.14549999E+02 -0.19097E+05
 0.14599998E+02 -0.19087E+05
 0.14650000E+02 -0.19074E+05
 0.14699999E+02 -0.19086E+05
 0.14749998E+02 -0.19109E+05
 0.14799999E+02 -0.19119E+05
 0.14849998E+02 -0.19138E+05
 0.14900000E+02 -0.19132E+05
 0.14949999E+02 -0.19125E+05
 0.14999998E+02 -0.19103E+05
 0.15049999E+02 -0.19089E+05
 0.15099998E+02 -0.19074E+05
 0.15150000E+02 -0.19071E+05
 0.15199999E+02 -0.19069E+05
 0.15249998E+02 -0.19071E+05
 0.15299999E+02 -0.19071E+05
 0.15349998E+02 -0.19062E+05
 0.15400000E+02 -0.19046E+05
 0.15449999E+02 -0.19030E+05
 0.15499998E+02 -0.19028E+05
 0.15549999E+02 -0.19035E+05
 0.15599998E+02 -0.19040E+05
 0.15650000E+02 -0.19035E+05
 0.15699999E+02 -0.19021E+05
 0.15749998E+02 -0.19026E+05
 0.15799999E+02 -0.19052E+05
 0.15849998E+02 -0.19075E+05
 0.15900000E+02 -0.19100E+05
 0.15949999E+02 -0.19100E+05
 0.15999998E+02 -0.19086E+05
 0.16049999E+02 -0.19080E+05
 0.16099998E+02 -0.19062E+05
 0.16150000E+02 -0.19045E+05
 0.16199999E+02 -0.19039E+05
 0.16249998E+02 -0.19030E+05
 0.16299999E+02 -0.19028E+05
 0.16349998E+02 -0.19031E+05
 0.16400000E+02 -0.19040E+05
 0.16449999E+02 -0.19044E+05
 0.16499998E+02 -0.19054E+05
 0.16549999E+02 -0.19052E+05
 0.16599998E+02 -0.19052E+05
 0.16650000E+02 -0.19058E+05
 0.16699999E+02 -0.19060E+05
 0.16749998E+02 -0.19066E+05
 0.16799999E+02 -0.19068E+05
 0.16849998E+02 -0.19076E+05
 0.16900000E+02 -0.19063E+05
 0.16949999E+02 -0.19047E+05
 0.16999998E+02 -0.19052E+05
 0.17049999E+02 -0.19068E+05
 0.17099998E+02 -0.19095E+05
 0.17150000E+02 -0.19113E+05
 0.17199999E+02 -0.19111E+05
 0.17249998E+02 -0.19110E+05
 0.17299999E+02 -0.19101E+05
 0.17349998E+02 -0.19089E+05
 0.17400000E+02 -0.19079E+05
 0.17449999E+02 -0.19070E+05
 0.17499998E+02 -0.19062E+05
 0.17549999E+02 -0.19055E+05
 0.17599998E+02 -0.19042E+05
 0.17650000E+02 -0.19027E+05
 0.17699999E+02 -0.19030E+05
 0.17749998E+02 -0.19029E+05
 0.17799999E+02 -0.19040E+05
 0.17849998E+02 -0.19045E+05
 0.17900000E+02 -0.19054E+05
 0.17949999E+02 -0.19064E+05
 0.17999998E+02 -0.19069E+05
 0.18049999E+02 -0.19078E+05
 0.18099998E+02 -0.19086E+05
 0.18150000E+02 -0.19094E+05
 0.18199999E+02 -0.19090E+05
 0.18249998E+02 -0.19093E+05
 0.18299999E+02 -0.19075E+05
 0.18349998E+02 -0.19062E+05
 0.18400000E+02 -0.19062E+05
 0.18449999E+02 -0.19073E+05
 0.18499998E+02 -0.19091E+05
 0.18549999E+02 -0.19101E+05
 0.18599998E+02 -0.19089E+05
 0.18650000E+02 -0.19071E+05
 0.18699999E+02 -0.19057E+05
 0.18749998E+02 -0.19050E+05
 0.18799999E+02 -0.19043E+05
 0.18849998E+02 -0.19043E+05
 0.18900000E+02 -0.19047E+05
 0.18949999E+02 -0.19046E+05
 0.18999998E+02 -0.19068E+05
 0.19049999E+02 -0.19081E+05
 0.19099998E+02 -0.19095E+05
 0.19150000E+02 -0.19084E+05
 0.19199999E+02 -0.19060E+05
 0.19249998E+02 -0.19040E+05
 0.19299999E+02 -0.19046E+05
 0.19349998E+02 -0.19085E+05
 0.19400000E+02 -0.19106E+05
 0.19449999E+02 -0.19103E+05
 0.19499998E+02 -0.19074E+05
 0.19549999E+02 -0.19064E+05
 0.19599998E+02 -0.19073E+05
 0.19650000E+02 -0.19085E+05
 0.19699999E+02 -0.19113E+05
 0.19749998E+02 -0.19110E+05
 0.19799999E+02 -0.19066E+05
 0.19849998E+02 -0.19005E+05
 0.19900000E+02 -0.18990E+05
 0.19949999E+02 -0.19056E+05
 0.19999998E+02 -0.19193E+05
 0.20049999E+02 -0.19385E+05
 0.20099998E+02 -0.19874E+05
 0.20150000E+02 -0.20647E+05
 0.20199999E+02 -0.21159E+05
 0.20249998E+02 -0.20693E+05
 0.20299999E+02 -0.18728E+05
 0.20349998E+02 -0.15945E+05
 0.20399998E+02 -0.15677E+05
 0.20449999E+02 -0.18428E+05
 0.20499998E+02 -0.20809E+05
 0.20549999E+02 -0.22381E+05
 0.20599998E+02 -0.20605E+05
 0.20649998E+02 -0.17729E+05
 0.20699999E+02 -0.18252E+05
 0.20749998E+02 -0.19943E+05
 0.20799999E+02 -0.25060E+05
 0.20849998E+02 -0.30577E+05
 0.20899998E+02 -0.28681E+05
 0.20949999E+02 -0.18804E+05
 0.20999998E+02 -0.86451E+04
 0.21049999E+02 -0.75517E+04
 0.21099998E+02 -0.13630E+05
 0.21149998E+02 -0.12222E+05
 0.21199999E+02 -0.18595E+05
 0.21249998E+02 -0.23814E+05
 0.21299999E+02 -0.56968E+04
 0.21349998E+02  0.59839E+04
 0.21399998E+02 -0.11641E+05
 0.21449999E+02 -0.29876E+05
 0.21499998E+02 -0.32942E+05
 0.21549999E+02 -0.29518E+05
 0.21599998E+02 -0.23561E+05
 0.21649998E+02 -0.17024E+05
 0.21699999E+02 -0.40364E+04
 0.21749998E+02 -0.20148E+05
 0.21799999E+02 -0.30162E+05
 0.21849998E+02 -0.32272E+05
 0.21899998E+02 -0.23002E+05
 0.21949999E+02 -0.14538E+05
 0.21999998E+02 -0.16513E+05
 0.22049999E+02 -0.13176E+05
 0.22099998E+02 -0.24947E+05
 0.22149998E+02 -0.25449E+05
 0.22199999E+02 -0.29692E+05
 0.22249998E+02 -0.18550E+05
 0.22299999E+02 -0.95775E+04
 0.22349998E+02 -0.13112E+05
 0.22399998E+02 -0.15261E+05
 0.22449999E+02 -0.28611E+05
 0.22499998E+02 -0.28187E+05
 0.22549999E+02 -0.10593E+05
 0.22599998E+02 -0.63835E+04
 0.22649998E+02 -0.15735E+05
 0.22699999E+02 -0.28815E+05
 0.22749998E+02 -0.23247E+05
 0.22799999E+02 -0.24735E+05
 0.22849998E+02 -0.30328E+05
 0.22899998E+02 -0.14381E+05
 0.22949999E+02 -0.10458E+05
 0.22999998E+02 -0.93970E+04
 0.23049999E+02 -0.96463E+04
 0.23099998E+02 -0.14450E+05
 0.23149998E+02 -0.25135E+05
 0.23199999E+02 -0.28884E+05
 0.23249998E+02 -0.20379E+05
 0.23299999E+02 -0.94003E+04
 0.23349998E+02 -0.16173E+05
 0.23399998E+02 -0.13680E+05
 0.23449999E+02 -0.77450E+04
 0.23499998E+02 -0.33472E+05
 0.23549999E+02 -0.36601E+05
 0.23599998E+02 -0.12769E+05
 0.23649998E+02 -0.13380E+05
 0.23699999E+02 -0.30017E+05
 0.23749998E+02 -0.23212E+05
 0.23799999E+02 -0.17117E+05
 0.23849998E+02 -0.14151E+05
 0.23899998E+02 -0.20473E+05
 0.23949999E+02 -0.17970E+05
 0.23999998E+02 -0.60981E+04
 0.24049999E+02 -0.23590E+05
 0.24099998E+02 -0.22395E+05
 0.24149998E+02 -0.11744E+05
 0.24199999E+02 -0.18113E+05
 0.24249998E+02 -0.25283E+05
 0.24299999E+02 -0.13451E+05
 0.24349998E+02 -0.10050E+05
 0.24399998E+02 -0.31030E+05
 0.24449999E+02 -0.35942E+05
 0.24499998E+02 -0.20461E+05
 0.24549999E+02 -0.16139E+05
 0.24599998E+02 -0.15604E+05
 0.24649998E+02 -0.11971E+05
 0.24699999E+02 -0.23630E+05
 0.24749998E+02 -0.25446E+05
 0.24799999E+02 -0.25048E+05
 0.24849998E+02 -0.18728E+05
 0.24899998E+02 -0.13855E+05
 0.24949999E+02 -0.15856E+05
 0.24999998E+02 -0.15754E+05
 0.25049999E+02 -0.17384E+05
 0.25099998E+02 -0.13932E+05
 0.25149998E+02 -0.16489E+05
 0.25199999E+02 -0.22991E+05
 0.25249998E+02 -0.28271E+05
 0.25299999E+02 -0.11046E+05
 0.25349998E+02 -0.39243E+04
 0.25399998E+02 -0.26773E+05
 0.25449999E+02 -0.29033E+05
 0.25499998E+02 -0.23101E+05
 0.25549999E+02 -0.25215E+05
 0.25599998E+02 -0.22888E+05
 0.25649998E+02 -0.21498E+05
 0.25699999E+02 -0.19925E+05
 0.25749998E+02 -0.13419E+05
 0.25799999E+02 -0.16185E+05
 0.25849998E+02 -0.21221E+05
 0.25899998E+02 -0.12672E+05
 0.25949999E+02 -0.15897E+05
 0.25999998E+02 -0.22148E+05
 0.26049999E+02 -0.27736E+05
 0.26099998E+02 -0.26114E+05
 0.26149998E+02 -0.19011E+04
 0.26199999E+02  0.89317E+03
 0.26249998E+02 -0.20792E+05
 0.26299999E+02 -0.26904E+05
 0.26349998E+02 -0.18313E+05
 0.26399998E+02 -0.21959E+05
 0.26449999E+02 -0.27655E+05
 0.26499998E+02 -0.22994E+05
 0.26549999E+02 -0.13596E+05
 0.26599998E+02 -0.11972E+05
 0.26649998E+02 -0.19329E+05
 0.26699999E+02 -0.20286E+05
 0.26749998E+02 -0.20922E+05
 0.26799999E+02 -0.18399E+05
 0.26849998E+02 -0.22482E+05
 0.26899998E+02 -0.22626E+05
 0.26949999E+02 -0.15547E+05
 0.26999998E+02 -0.14677E+05
 0.27049997E+02 -0.20303E+05
 0.27099998E+02 -0.22755E+05
 0.27149998E+02 -0.16658E+05
 0.27199999E+02 -0.19374E+05
 0.27249998E+02 -0.24510E+05
 0.27299997E+02 -0.24804E+05
 0.27349998E+02 -0.11392E+05
 0.27399998E+02 -0.84619E+04
 0.27449999E+02 -0.13831E+05
 0.27499998E+02 -0.19093E+05
 0.27549997E+02 -0.24560E+05
 0.27599998E+02 -0.19524E+05
 0.27649998E+02 -0.21736E+05
 0.27699999E+02 -0.22504E+05
 0.27749998E+02 -0.23916E+05
 0.27799997E+02 -0.15490E+05
 0.27849998E+02 -0.76246E+04
 0.27899998E+02 -0.16558E+05
 0.27949999E+02 -0.21050E+05
 0.27999998E+02 -0.22185E+05
 0.28049997E+02 -0.22363E+05
 0.28099998E+02 -0.19484E+05
 0.28149998E+02 -0.20231E+05
 0.28199999E+02 -0.21919E+05
 0.28249998E+02 -0.13611E+05
 0.28299997E+02 -0.17361E+05
 0.28349998E+02 -0.29891E+05
 0.28399998E+02 -0.19393E+05
 0.28449999E+02 -0.73756E+04
 0.28499998E+02 -0.12422E+05
 0.28549997E+02 -0.22843E+05
 0.28599998E+02 -0.29736E+05
 0.28649998E+02 -0.17939E+05
 0.28699999E+02 -0.15787E+05
 0.28749998E+02 -0.20769E+05
 0.28799997E+02 -0.17772E+05
 0.28849998E+02 -0.22247E+05
 0.28899998E+02 -0.20794E+05
 0.28949999E+02 -0.16580E+05
 0.28999998E+02 -0.16805E+05
 0.29049997E+02 -0.19535E+05
 0.29099998E+02 -0.14722E+05
 0.29149998E+02 -0.15468E+05
 0.29199999E+02 -0.21429E+05
 0.29249998E+02 -0.23012E+05
 0.29299997E+02 -0.24027E+05
 0.29349998E+02 -0.15254E+05
 0.29399998E+02 -0.12034E+05
 0.29449999E+02 -0.27789E+05
 0.29499998E+02 -0.29117E+05
 0.29549997E+02 -0.11191E+05
 0.29599998E+02 -0.10879E+05
 0.29649998E+02 -0.16035E+05
 0.29699999E+02 -0.21131E+05
 0.29749998E+02 -0.27133E+05
 0.29799997E+02 -0.24528E+05
 0.29849998E+02 -0.20385E+05
 0.29899998E+02 -0.16030E+05
 0.29949999E+02 -0.15730E+05
 0.29999998E+02 -0.18464E+05
 0.30049999E+02 -0.18168E+05
 0.30099998E+02 -0.20366E+05
 0.30149998E+02 -0.25629E+05
 0.30199997E+02 -0.23128E+05
 0.30249996E+02 -0.19201E+05
 0.30299999E+02 -0.20264E+05
 0.30349998E+02 -0.20805E+05
 0.30399998E+02 -0.16235E+05
 0.30449997E+02 -0.15251E+05
 0.30499996E+02 -0.24211E+05
 0.30549999E+02 -0.23416E+05
 0.30599998E+02 -0.81415E+04
 0.30649998E+02 -0.82920E+04
 0.30699997E+02 -0.20596E+05
 0.30749996E+02 -0.22678E+05
 0.30799999E+02 -0.21209E+05
 0.30849998E+02 -0.22650E+05
 0.30899998E+02 -0.18336E+05
 0.30949997E+02 -0.14438E+05
 0.30999996E+02 -0.19404E+05
 0.31049999E+02 -0.22398E+05
 0.31099998E+02 -0.20550E+05
 0.31149998E+02 -0.17750E+05
 0.31199997E+02 -0.16838E+05
 0.31249996E+02 -0.20914E+05
 0.31299999E+02 -0.22042E+05
 0.31349998E+02 -0.19414E+05
 0.31399998E+02 -0.21052E+05
 0.31449997E+02 -0.18199E+05
 0.31499996E+02 -0.16686E+05
 0.31549999E+02 -0.23431E+05
 0.31599998E+02 -0.24165E+05
 0.31649998E+02 -0.16086E+05
 0.31699997E+02 -0.17660E+05
 0.31749996E+02 -0.19733E+05
 0.31799999E+02 -0.15277E+05
 0.31849998E+02 -0.17905E+05
 0.31899998E+02 -0.21398E+05
 0.31949997E+02 -0.21577E+05
 0.31999996E+02 -0.19246E+05
 0.32049999E+02 -0.16348E+05
 0.32099998E+02 -0.12775E+05
 0.32149998E+02 -0.20718E+05
 0.32199997E+02 -0.25664E+05
 0.32249996E+02 -0.20596E+05
 0.32299999E+02 -0.16798E+05
 0.32349998E+02 -0.13108E+05
 0.32399998E+02 -0.16979E+05
 0.32449997E+02 -0.18181E+05
 0.32499996E+02 -0.19062E+05
 0.32549999E+02 -0.21131E+05
 0.32599998E+02 -0.23188E+05
 0.32649998E+02 -0.18130E+05
 0.32699997E+02 -0.18206E+05
 0.32749996E+02 -0.24796E+05
 0.32799999E+02 -0.20583E+05
 0.32849998E+02 -0.17406E+05
 0.32899998E+02 -0.12326E+05
 0.32949997E+02 -0.16873E+05
 0.32999996E+02 -0.22335E+05
 0.33049999E+02 -0.19980E+05
 0.33099998E+02 -0.16896E+05
 0.33149998E+02 -0.16557E+05
 0.33199997E+02 -0.22035E+05
 0.33249996E+02 -0.24604E+05
 0.33299999E+02 -0.23135E+05
 0.33349998E+02 -0.18934E+05
 0.33399998E+02 -0.19598E+05
 0.33449997E+02 -0.17100E+05
 0.33499996E+02 -0.15030E+05
 0.33549999E+02 -0.16115E+05
 0.33599998E+02 -0.14474E+05
 0.33649998E+02 -0.15507E+05
 0.33699997E+02 -0.17665E+05
 0.33749996E+02 -0.15654E+05
 0.33799999E+02 -0.13972E+05
 0.33849998E+02 -0.21122E+05
 0.33899998E+02 -0.22158E+05
 0.33949997E+02 -0.21415E+05
 0.33999996E+02 -0.25541E+05
 0.34049999E+02 -0.18271E+05
 0.34099998E+02 -0.14368E+05
 0.34149998E+02 -0.16467E+05
 0.34199997E+02 -0.21174E+05
 0.34249996E+02 -0.29356E+05
 0.34299999E+02 -0.26477E+05
 0.34349998E+02 -0.16431E+05
 0.34399998E+02 -0.11608E+05
 0.34449997E+02 -0.16131E+05
 0.34499996E+02 -0.20099E+05
 0.34549999E+02 -0.21013E+05
 0.34599998E+02 -0.24948E+05
 0.34649998E+02 -0.29963E+05
 0.34699997E+02 -0.23713E+05
 0.34749996E+02 -0.12114E+05
 0.34799999E+02 -0.55627E+04
 0.34849998E+02 -0.10162E+05
 0.34899998E+02 -0.17312E+05
 0.34949997E+02 -0.24251E+05
 0.34999996E+02 -0.27363E+05
 0.35049999E+02 -0.15024E+05
 0.35099998E+02 -0.12471E+05
 0.35149998E+02 -0.18034E+05
 0.35199997E+02 -0.19479E+05
 0.35249996E+02 -0.15452E+05
 0.35299999E+02 -0.15145E+05
 0.35349998E+02 -0.17986E+05
 0.35399998E+02 -0.20965E+05
 0.35449997E+02 -0.25461E+05
 0.35499996E+02 -0.22796E+05
 0.35549999E+02 -0.21488E+05
 0.35599998E+02 -0.22618E+05
 0.35649998E+02 -0.21833E+05
 0.35699997E+02 -0.15281E+05
 0.35749996E+02 -0.83583E+04
 0.35799999E+02 -0.12663E+05
 0.35849998E+02 -0.26905E+05
 0.35899998E+02 -0.34159E+05
 0.35949997E+02 -0.26185E+05
 0.35999996E+02 -0.83445E+04
 0.36049999E+02 -0.17398E+04
 0.36099998E+02 -0.12085E+05
 0.36149998E+02 -0.19883E+05
 0.36199997E+02 -0.27389E+05
 0.36249996E+02 -0.32300E+05
 0.36299999E+02 -0.26992E+05
 0.36349998E+02 -0.15645E+05
 0.36399998E+02 -0.16692E+05
 0.36449997E+02 -0.27057E+05
 0.36499996E+02 -0.31684E+05
 0.36549999E+02 -0.31772E+05
 0.36599998E+02 -0.23084E+05
 0.36649998E+02 -0.85200E+04
 0.36699997E+02  0.16351E+04
 0.36749996E+02 -0.20595E+04
 0.36799999E+02 -0.16171E+05
 0.36849998E+02 -0.22463E+05
 0.36899998E+02 -0.26591E+05
 0.36949997E+02 -0.30567E+05
 0.36999996E+02 -0.24664E+05
 0.37049999E+02 -0.15700E+05
 0.37099998E+02 -0.81587E+04
 0.37149998E+02 -0.11201E+05
 0.37199997E+02 -0.15560E+05
 0.37249996E+02 -0.19336E+05
 0.37299999E+02 -0.23743E+05
 0.37349998E+02 -0.25678E+05
 0.37399998E+02 -0.25404E+05
 0.37449997E+02 -0.23156E+05
 0.37499996E+02 -0.19804E+05
 0.37549999E+02 -0.19876E+05
 0.37599998E+02 -0.20268E+05
 0.37649998E+02 -0.14945E+05
 0.37699997E+02 -0.16716E+05
 0.37749996E+02 -0.21469E+05
 0.37799999E+02 -0.22042E+05
 0.37849998E+02 -0.14770E+05
 0.37899998E+02 -0.82173E+04
 0.37949997E+02  0.31622E+03
 0.37999996E+02 -0.29703E+04
 0.38049999E+02 -0.16903E+05
 0.38099998E+02 -0.14436E+05
 0.38149998E+02 -0.65643E+04
 0.38199997E+02 -0.11453E+05
 0.38249996E+02 -0.26815E+05
 0.38299999E+02 -0.34642E+05
 0.38349998E+02 -0.35176E+05
 0.38399998E+02 -0.27629E+05
 0.38449997E+02 -0.22802E+05
 0.38499996E+02 -0.23530E+05
 0.38549999E+02 -0.17120E+05
 0.38599998E+02 -0.15159E+05
 0.38649998E+02 -0.24047E+05
 0.38699997E+02 -0.28497E+05
 0.38749996E+02 -0.22393E+05
 0.38799999E+02 -0.15753E+05
 0.38849998E+02 -0.14050E+05
 0.38899998E+02 -0.14745E+05
 0.38949997E+02 -0.15688E+05
 0.38999996E+02 -0.15653E+05
 0.39049999E+02 -0.16302E+05
 0.39099998E+02 -0.16691E+05
 0.39149998E+02 -0.19475E+05
 0.39199997E+02 -0.27166E+05
 0.39249996E+02 -0.28588E+05
 0.39299999E+02 -0.22403E+05
 0.39349998E+02 -0.14735E+05
 0.39399998E+02 -0.15879E+05
 0.39449997E+02 -0.20454E+05
 0.39499996E+02 -0.20170E+05
 0.39549999E+02 -0.15705E+05
 0.39599998E+02 -0.15250E+05
 0.39649998E+02 -0.21163E+05
 0.39699997E+02 -0.27127E+05
 0.39749996E+02 -0.28550E+05
 0.39799999E+02 -0.19728E+05
 0.39849998E+02 -0.12533E+05
 0.39899998E+02 -0.11805E+05
 0.39949997E+02 -0.16632E+05
 0.39999996E+02 -0.21784E+05
 0.40049999E+02 -0.19425E+05
 0.40099998E+02 -0.19188E+05
 0.40149998E+02 -0.25428E+05
 0.40199997E+02 -0.24628E+05
 0.40249996E+02 -0.17687E+05
 0.40299999E+02 -0.15100E+05
 0.40349998E+02 -0.15919E+05
 0.40399998E+02 -0.13173E+05
 0.40449997E+02 -0.10733E+05
 0.40499996E+02 -0.11601E+05
 0.40549999E+02 -0.10838E+05
 0.40599998E+02 -0.12406E+05
 0.40649998E+02 -0.20529E+05
 0.40699997E+02 -0.28267E+05
 0.40749996E+02 -0.28917E+05
 0.40799999E+02 -0.29360E+05
 0.40849998E+02 -0.26831E+05
 0.40899998E+02 -0.16438E+05
 0.40949997E+02 -0.10582E+05
 0.40999996E+02 -0.17500E+05
 0.41049999E+02 -0.24739E+05
 0.41099998E+02 -0.22508E+05
 0.41149998E+02 -0.15250E+05
 0.41199997E+02 -0.85475E+04
 0.41249996E+02 -0.12338E+05
 0.41299999E+02 -0.21214E+05
 0.41349998E+02 -0.25613E+05
 0.41399998E+02 -0.25313E+05
 0.41449997E+02 -0.24312E+05
 0.41499996E+02 -0.26338E+05
 0.41549999E+02 -0.27615E+05
 0.41599998E+02 -0.28060E+05
 0.41649998E+02 -0.24313E+05
 0.41699997E+02 -0.13092E+05
 0.41749996E+02 -0.31247E+04
 0.41799999E+02 -0.52040E+04
 0.41849998E+02 -0.14710E+05
 0.41899998E+02 -0.23529E+05
 0.41949997E+02 -0.27289E+05
 0.41999996E+02 -0.26645E+05
 0.42049999E+02 -0.19108E+05
 0.42099998E+02 -0.12787E+05
 0.42149998E+02 -0.11396E+05
 0.42199997E+02 -0.14428E+05
 0.42249996E+02 -0.19308E+05
 0.42299999E+02 -0.18414E+05
 0.42349998E+02 -0.20433E+05
 0.42399998E+02 -0.24399E+05
 0.42449997E+02 -0.22636E+05
 0.42499996E+02 -0.15322E+05
 0.42549999E+02 -0.14812E+05
 0.42599998E+02 -0.19718E+05
 0.42649998E+02 -0.20087E+05
 0.42699997E+02 -0.16455E+05
 0.42749996E+02 -0.14940E+05
 0.42799995E+02 -0.22406E+05
 0.42849998E+02 -0.31093E+05
 0.42899998E+02 -0.28865E+05
 0.42949997E+02 -0.18038E+05
 0.42999996E+02 -0.11757E+05
 0.43049995E+02 -0.14286E+05
 0.43099998E+02 -0.15496E+05
 0.43149998E+02 -0.13798E+05
 0.43199997E+02 -0.13400E+05
 0.43249996E+02 -0.16691E+05
 0.43299995E+02 -0.24269E+05
 0.43349998E+02 -0.31656E+05
 0.43399998E+02 -0.32334E+05
 0.43449997E+02 -0.26279E+05
 0.43499996E+02 -0.21383E+05
 0.43549995E+02 -0.19180E+05
 0.43599998E+02 -0.20264E+05
 0.43649998E+02 -0.22114E+05
 0.43699997E+02 -0.23710E+05
 0.43749996E+02 -0.25502E+05
 0.43799995E+02 -0.21903E+05
 0.43849998E+02 -0.11177E+05
 0.43899998E+02 -0.23039E+04
 0.43949997E+02 -0.39808E+04
 0.43999996E+02 -0.12562E+05
 0.44049995E+02 -0.18809E+05
 0.44099998E+02 -0.20710E+05
 0.44149998E+02 -0.18895E+05
 0.44199997E+02 -0.20090E+05
 0.44249996E+02 -0.26728E+05
 0.44299995E+02 -0.28594E+05
 0.44349998E+02 -0.23752E+05
 0.44399998E+02 -0.16268E+05
 0.44449997E+02 -0.11995E+05
 0.44499996E+02 -0.12208E+05
 0.44549995E+02 -0.16105E+05
 0.44599998E+02 -0.19238E+05
 0.44649998E+02 -0.18180E+05
 0.44699997E+02 -0.16990E+05
 0.44749996E+02 -0.17906E+05
 0.44799995E+02 -0.17241E+05
 0.44849998E+02 -0.18172E+05
 0.44899998E+02 -0.21618E+05
 0.44949997E+02 -0.23079E+05
 0.44999996E+02 -0.22074E+05
 0.45049995E+02 -0.20566E+05
 0.45099998E+02 -0.22656E+05
 0.45149998E+02 -0.25745E+05
 0.45199997E+02 -0.23389E+05
 0.45249996E+02 -0.14878E+05
 0.45299995E+02 -0.94693E+04
 0.45349998E+02 -0.99469E+04
 0.45399998E+02 -0.14447E+05
 0.45449997E+02 -0.18653E+05
 0.45499996E+02 -0.20247E+05
 0.45549995E+02 -0.19018E+05
 0.45599998E+02 -0.16135E+05
 0.45649998E+02 -0.12994E+05
 0.45699997E+02 -0.13226E+05
 0.45749996E+02 -0.21605E+05
 0.45799995E+02 -0.31345E+05
 0.45849998E+02 -0.32124E+05
 0.45899998E+02 -0.25164E+05
 0.45949997E+02 -0.18674E+05
 0.45999996E+02 -0.14496E+05
 0.46049995E+02 -0.14802E+05
 0.46099998E+02 -0.17842E+05
 0.46149998E+02 -0.18548E+05
 0.46199997E+02 -0.14594E+05
 0.46249996E+02 -0.12167E+05
 0.46299995E+02 -0.19923E+05
 0.46349998E+02 -0.32044E+05
 0.46399998E+02 -0.33828E+05
 0.46449997E+02 -0.25642E+05
 0.46499996E+02 -0.18199E+05
 0.46549995E+02 -0.16566E+05
 0.46599998E+02 -0.17768E+05
 0.46649998E+02 -0.16509E+05
 0.46699997E+02 -0.13859E+05
 0.46749996E+02 -0.14578E+05
 0.46799995E+02 -0.20070E+05
 0.46849998E+02 -0.23995E+05
 0.46899998E+02 -0.18256E+05
 0.46949997E+02 -0.99198E+04
 0.46999996E+02 -0.95946E+04
 0.47049995E+02 -0.14585E+05
 0.47099998E+02 -0.18338E+05
 0.47149998E+02 -0.19707E+05
 0.47199997E+02 -0.19376E+05
 0.47249996E+02 -0.15523E+05
 0.47299995E+02 -0.11777E+05
 0.47349998E+02 -0.15118E+05
 0.47399998E+02 -0.24624E+05
 0.47449997E+02 -0.29063E+05
 0.47499996E+02 -0.24834E+05
 0.47549995E+02 -0.19073E+05
 0.47599998E+02 -0.16408E+05
 0.47649998E+02 -0.16167E+05
 0.47699997E+02 -0.19700E+05
 0.47749996E+02 -0.22614E+05
 0.47799995E+02 -0.22414E+05
 0.47849998E+02 -0.20974E+05
 0.47899998E+02 -0.19294E+05
 0.47949997E+02 -0.20288E+05
 0.47999996E+02 -0.21131E+05
 0.48049995E+02 -0.20360E+05
 0.48099998E+02 -0.21506E+05
 0.48149998E+02 -0.23983E+05
 0.48199997E+02 -0.22730E+05
 0.48249996E+02 -0.17812E+05
 0.48299995E+02 -0.12447E+05
 0.48349998E+02 -0.10477E+05
 0.48399998E+02 -0.14395E+05
 0.48449997E+02 -0.19126E+05
 0.48499996E+02 -0.18522E+05
 0.48549995E+02 -0.18533E+05
 0.48599998E+02 -0.22025E+05
 0.48649998E+02 -0.23371E+05
 0.48699997E+02 -0.21062E+05
 0.48749996E+02 -0.16947E+05
 0.48799995E+02 -0.16352E+05
 0.48849998E+02 -0.19444E+05
 0.48899998E+02 -0.24031E+05
 0.48949997E+02 -0.22077E+05
 0.48999996E+02 -0.11822E+05
 0.49049995E+02 -0.78774E+04
 0.49099998E+02 -0.12930E+05
 0.49149998E+02 -0.18829E+05
 0.49199997E+02 -0.18820E+05
 0.49249996E+02 -0.15965E+05
 0.49299995E+02 -0.17592E+05
 0.49349998E+02 -0.22745E+05
 0.49399998E+02 -0.26354E+05
 0.49449997E+02 -0.25229E+05
 0.49499996E+02 -0.20840E+05
 0.49549995E+02 -0.16740E+05
 0.49599998E+02 -0.17019E+05
 0.49649998E+02 -0.19875E+05
 0.49699997E+02 -0.20260E+05
 0.49749996E+02 -0.20784E+05
 0.49799995E+02 -0.20149E+05
 0.49849998E+02 -0.14548E+05
 0.49899998E+02 -0.10970E+05
 0.49949997E+02 -0.13955E+05
 0.49999996E+02 -0.21075E+05
 0.50049995E+02 -0.29080E+05
 0.50099998E+02 -0.31767E+05
 0.50149998E+02 -0.29096E+05
 0.50199997E+02 -0.21450E+05
 0.50249996E+02 -0.14983E+05
 0.50299995E+02 -0.16026E+05
 0.50349998E+02 -0.17982E+05
 0.50399998E+02 -0.18563E+05
 0.50449997E+02 -0.19919E+05
 0.50499996E+02 -0.21654E+05
 0.50549995E+02 -0.21492E+05
 0.50599998E+02 -0.20511E+05
 0.50649998E+02 -0.18443E+05
 0.50699997E+02 -0.16310E+05
 0.50749996E+02 -0.15777E+05
 0.50799995E+02 -0.16233E+05
 0.50849998E+02 -0.18887E+05
 0.50899998E+02 -0.20234E+05
 0.50949997E+02 -0.19161E+05
 0.50999996E+02 -0.19476E+05
 0.51049995E+02 -0.19042E+05
 0.51099998E+02 -0.17720E+05
 0.51149998E+02 -0.16282E+05
 0.51199997E+02 -0.17312E+05
 0.51249996E+02 -0.21199E+05
 0.51299995E+02 -0.22477E+05
 0.51349998E+02 -0.19230E+05
 0.51399998E+02 -0.16920E+05
 0.51449997E+02 -0.18260E+05
 0.51499996E+02 -0.18393E+05
 0.51549995E+02 -0.15943E+05
 0.51599998E+02 -0.12904E+05
 0.51649998E+02 -0.13578E+05
 0.51699997E+02 -0.19176E+05
 0.51749996E+02 -0.23151E+05
 0.51799995E+02 -0.23232E+05
 0.51849998E+02 -0.22829E+05
 0.51899998E+02 -0.18542E+05
 0.51949997E+02 -0.14052E+05
 0.51999996E+02 -0.13868E+05
 0.52049995E+02 -0.15912E+05
 0.52099998E+02 -0.17826E+05
 0.52149998E+02 -0.18244E+05
 0.52199997E+02 -0.19587E+05
 0.52249996E+02 -0.21569E+05
 0.52299995E+02 -0.23352E+05
 0.52349998E+02 -0.22497E+05
 0.52399998E+02 -0.19734E+05
 0.52449997E+02 -0.19010E+05
 0.52499996E+02 -0.21091E+05
 0.52549995E+02 -0.22073E+05
 0.52599998E+02 -0.19240E+05
 0.52649998E+02 -0.17410E+05
 0.52699997E+02 -0.18405E+05
 0.52749996E+02 -0.20177E+05
 0.52799995E+02 -0.19615E+05
 0.52849998E+02 -0.16767E+05
 0.52899998E+02 -0.15999E+05
 0.52949997E+02 -0.17981E+05
 0.52999996E+02 -0.20719E+05
 0.53049995E+02 -0.22371E+05
 0.53099998E+02 -0.22545E+05
 0.53149998E+02 -0.21670E+05
 0.53199997E+02 -0.20661E+05
 0.53249996E+02 -0.19174E+05
 0.53299995E+02 -0.17165E+05
 0.53349998E+02 -0.15922E+05
 0.53399998E+02 -0.16866E+05
 0.53449997E+02 -0.17580E+05
 0.53499996E+02 -0.16066E+05
 0.53549995E+02 -0.15946E+05
 0.53599998E+02 -0.19373E+05
 0.53649998E+02 -0.23077E+05
 0.53699997E+02 -0.23492E+05
 0.53749996E+02 -0.22084E+05
 0.53799995E+02 -0.19845E+05
 0.53849998E+02 -0.18274E+05
 0.53899998E+02 -0.17828E+05
 0.53949997E+02 -0.19091E+05
 0.53999996E+02 -0.22908E+05
 0.54049995E+02 -0.25163E+05
 0.54099998E+02 -0.21639E+05
 0.54149998E+02 -0.12910E+05
 0.54199997E+02 -0.82865E+04
 0.54249996E+02 -0.10301E+05
 0.54299995E+02 -0.15358E+05
 0.54349998E+02 -0.20778E+05
 0.54399998E+02 -0.22692E+05
 0.54449997E+02 -0.22069E+05
 0.54499996E+02 -0.18901E+05
 0.54549995E+02 -0.15726E+05
 0.54599998E+02 -0.16881E+05
 0.54649998E+02 -0.19680E+05
 0.54699997E+02 -0.21554E+05
 0.54749996E+02 -0.23287E+05
 0.54799995E+02 -0.24443E+05
 0.54849998E+02 -0.22530E+05
 0.54899998E+02 -0.18202E+05
 0.54949997E+02 -0.15363E+05
 0.54999996E+02 -0.15477E+05
 0.55049995E+02 -0.19429E+05
 0.55099998E+02 -0.23401E+05
 0.55149998E+02 -0.24301E+05
 0.55199997E+02 -0.24083E+05
 0.55249996E+02 -0.22956E+05
 0.55299995E+02 -0.20537E+05
 0.55349998E+02 -0.18277E+05
 0.55399998E+02 -0.17982E+05
 0.55449997E+02 -0.18407E+05
 0.55499996E+02 -0.17469E+05
 0.55549995E+02 -0.16030E+05
 0.55599998E+02 -0.16089E+05
 0.55649998E+02 -0.16773E+05
 0.55699997E+02 -0.17252E+05
 0.55749996E+02 -0.18504E+05
 0.55799995E+02 -0.20495E+05
 0.55849995E+02 -0.20665E+05
 0.55899998E+02 -0.17510E+05
 0.55949997E+02 -0.15951E+05
 0.55999996E+02 -0.17376E+05
 0.56049995E+02 -0.17767E+05
 0.56099995E+02 -0.18477E+05
 0.56149998E+02 -0.19120E+05
 0.56199997E+02 -0.18320E+05
 0.56249996E+02 -0.18588E+05
 0.56299995E+02 -0.20453E+05
 0.56349995E+02 -0.23072E+05
 0.56399998E+02 -0.22162E+05
 0.56449997E+02 -0.18599E+05
 0.56499996E+02 -0.16335E+05
 0.56549995E+02 -0.16542E+05
 0.56599995E+02 -0.18209E+05
 0.56649998E+02 -0.19729E+05
 0.56699997E+02 -0.20344E+05
 0.56749996E+02 -0.19537E+05
 0.56799995E+02 -0.18727E+05
 0.56849995E+02 -0.17608E+05
 0.56899998E+02 -0.18702E+05
 0.56949997E+02 -0.21522E+05
 0.56999996E+02 -0.23120E+05
 0.57049995E+02 -0.20455E+05
 0.57099995E+02 -0.15476E+05
 0.57149998E+02 -0.13170E+05
 0.57199997E+02 -0.15217E+05
 0.57249996E+02 -0.18536E+05
 0.57299995E+02 -0.19434E+05
 0.57349995E+02 -0.20751E+05
 0.57399998E+02 -0.22973E+05
 0.57449997E+02 -0.24300E+05
 0.57499996E+02 -0.23604E+05
 0.57549995E+02 -0.20884E+05
 0.57599995E+02 -0.17008E+05
 0.57649998E+02 -0.15186E+05
 0.57699997E+02 -0.16481E+05
 0.57749996E+02 -0.18376E+05
 0.57799995E+02 -0.19066E+05
 0.57849995E+02 -0.17745E+05
 0.57899998E+02 -0.17321E+05
 0.57949997E+02 -0.19424E+05
 0.57999996E+02 -0.22244E+05
 0.58049995E+02 -0.23869E+05
 0.58099995E+02 -0.22577E+05
 0.58149998E+02 -0.19600E+05
 0.58199997E+02 -0.16616E+05
 0.58249996E+02 -0.14988E+05
 0.58299995E+02 -0.14934E+05
 0.58349995E+02 -0.16463E+05
 0.58399998E+02 -0.19311E+05
 0.58449997E+02 -0.20714E+05
 0.58499996E+02 -0.20359E+05
 0.58549995E+02 -0.19131E+05
 0.58599995E+02 -0.18220E+05
 0.58649998E+02 -0.19032E+05
 0.58699997E+02 -0.20231E+05
 0.58749996E+02 -0.20580E+05
 0.58799995E+02 -0.20833E+05
 0.58849995E+02 -0.21648E+05
 0.58899998E+02 -0.20503E+05
 0.58949997E+02 -0.17423E+05
 0.58999996E+02 -0.17231E+05
 0.59049995E+02 -0.19376E+05
 0.59099995E+02 -0.19868E+05
 0.59149998E+02 -0.19902E+05
 0.59199997E+02 -0.20458E+05
 0.59249996E+02 -0.19419E+05
 0.59299995E+02 -0.17049E+05
 0.59349995E+02 -0.15120E+05
 0.59399998E+02 -0.14922E+05
 0.59449997E+02 -0.17113E+05
 0.59499996E+02 -0.18614E+05
 0.59549995E+02 -0.19763E+05
 0.59599995E+02 -0.22422E+05
 0.59649998E+02 -0.23506E+05
 0.59699997E+02 -0.22929E+05
 0.59749996E+02 -0.21086E+05
 0.59799995E+02 -0.19392E+05
 0.59849995E+02 -0.19122E+05
 0.59899998E+02 -0.19064E+05
 0.59949997E+02 -0.18003E+05
 0.59999996E+02 -0.17160E+05
 0.60049995E+02 -0.17014E+05
 0.60099995E+02 -0.15778E+05
 0.60149998E+02 -0.14708E+05
 0.60199997E+02 -0.14241E+05
 0.60249996E+02 -0.15665E+05
 0.60299995E+02 -0.18815E+05
 0.60349995E+02 -0.20411E+05
 0.60399998E+02 -0.20773E+05
 0.60449997E+02 -0.21916E+05
 0.60499996E+02 -0.22468E+05
 0.60549995E+02 -0.20714E+05
 0.60599995E+02 -0.18589E+05
 0.60649998E+02 -0.18101E+05
 0.60699997E+02 -0.19620E+05
 0.60749996E+02 -0.21446E+05
 0.60799995E+02 -0.21246E+05
 0.60849995E+02 -0.20425E+05
 0.60899998E+02 -0.19431E+05
 0.60949997E+02 -0.18004E+05
 0.60999996E+02 -0.16692E+05
 0.61049995E+02 -0.15482E+05
 0.61099995E+02 -0.16766E+05
 0.61149998E+02 -0.19650E+05
 0.61199997E+02 -0.21505E+05
 0.61249996E+02 -0.22989E+05
 0.61299995E+02 -0.23156E+05
 0.61349995E+02 -0.21391E+05
 0.61399998E+02 -0.18945E+05
 0.61449997E+02 -0.16953E+05
 0.61499996E+02 -0.16307E+05
 0.61549995E+02 -0.17349E+05
 0.61599995E+02 -0.19173E+05
 0.61649998E+02 -0.19214E+05
 0.61699997E+02 -0.17578E+05
 0.61749996E+02 -0.16461E+05
 0.61799995E+02 -0.16846E+05
 0.61849995E+02 -0.18426E+05
 0.61899998E+02 -0.20240E+05
 0.61949997E+02 -0.20112E+05
 0.61999996E+02 -0.18399E+05
 0.62049995E+02 -0.17579E+05
 0.62099998E+02 -0.18114E+05
 0.62149994E+02 -0.19301E+05
 0.62199997E+02 -0.21641E+05
 0.62249992E+02 -0.23416E+05
 0.62299995E+02 -0.22852E+05
 0.62349998E+02 -0.21197E+05
 0.62399994E+02 -0.19401E+05
 0.62449997E+02 -0.18352E+05
 0.62499992E+02 -0.18016E+05
 0.62549995E+02 -0.17866E+05
 0.62599998E+02 -0.17251E+05
 0.62649994E+02 -0.16623E+05
 0.62699997E+02 -0.15323E+05
 0.62749992E+02 -0.14976E+05
 0.62799995E+02 -0.17182E+05
 0.62849998E+02 -0.19014E+05
 0.62899994E+02 -0.19527E+05
 0.62949997E+02 -0.19211E+05
 0.62999992E+02 -0.19202E+05
 0.63049995E+02 -0.19465E+05
 0.63099998E+02 -0.19680E+05
 0.63149994E+02 -0.20629E+05
 0.63199997E+02 -0.21482E+05
 0.63249992E+02 -0.20896E+05
 0.63299995E+02 -0.19341E+05
 0.63349998E+02 -0.19391E+05
 0.63399994E+02 -0.20907E+05
 0.63449997E+02 -0.21572E+05
 0.63499992E+02 -0.21922E+05
 0.63549995E+02 -0.22352E+05
 0.63599998E+02 -0.22264E+05
 0.63649994E+02 -0.21184E+05
 0.63699997E+02 -0.19588E+05
 0.63749992E+02 -0.18936E+05
 0.63799995E+02 -0.17623E+05
 0.63849998E+02 -0.15662E+05
 0.63899994E+02 -0.15366E+05
 0.63949997E+02 -0.16191E+05
 0.63999992E+02 -0.16856E+05
 0.64049995E+02 -0.17285E+05
 0.64099998E+02 -0.17856E+05
 0.64149994E+02 -0.18776E+05
 0.64199997E+02 -0.19352E+05
 0.64249992E+02 -0.18426E+05
 0.64299995E+02 -0.17279E+05
 0.64349998E+02 -0.17490E+05
 0.64399994E+02 -0.18248E+05
 0.64449997E+02 -0.19259E+05
 0.64499992E+02 -0.19909E+05
 0.64549995E+02 -0.20110E+05
 0.64599998E+02 -0.19368E+05
 0.64649994E+02 -0.17745E+05
 0.64699997E+02 -0.17082E+05
 0.64749992E+02 -0.19100E+05
 0.64799995E+02 -0.22282E+05
 0.64849998E+02 -0.22737E+05
 0.64899994E+02 -0.21653E+05
 0.64949997E+02 -0.20791E+05
 0.64999992E+02 -0.19925E+05
 0.65049995E+02 -0.18091E+05
 0.65099998E+02 -0.16710E+05
 0.65149994E+02 -0.16758E+05
 0.65199997E+02 -0.17397E+05
 0.65249992E+02 -0.18821E+05
 0.65299995E+02 -0.20245E+05
 0.65349998E+02 -0.20598E+05
 0.65399994E+02 -0.20206E+05
 0.65449997E+02 -0.20005E+05
 0.65499992E+02 -0.20097E+05
 0.65549995E+02 -0.20502E+05
 0.65599998E+02 -0.20546E+05
 0.65649994E+02 -0.19780E+05
 0.65699997E+02 -0.18425E+05
 0.65749992E+02 -0.16860E+05
 0.65799995E+02 -0.15343E+05
 0.65849998E+02 -0.15173E+05
 0.65899994E+02 -0.16675E+05
 0.65949997E+02 -0.18813E+05
 0.65999992E+02 -0.20542E+05
 0.66049995E+02 -0.21014E+05
 0.66099998E+02 -0.19950E+05
 0.66149994E+02 -0.18704E+05
 0.66199997E+02 -0.18871E+05
 0.66249992E+02 -0.19423E+05
 0.66299995E+02 -0.19746E+05
 0.66349998E+02 -0.19465E+05
 0.66399994E+02 -0.18600E+05
 0.66449997E+02 -0.18600E+05
 0.66499992E+02 -0.19572E+05
 0.66549995E+02 -0.19868E+05
 0.66599998E+02 -0.18832E+05
 0.66649994E+02 -0.18468E+05
 0.66699997E+02 -0.19833E+05
 0.66749992E+02 -0.22286E+05
 0.66799995E+02 -0.23961E+05
 0.66849998E+02 -0.23902E+05
 0.66899994E+02 -0.22242E+05
 0.66949997E+02 -0.19715E+05
 0.66999992E+02 -0.18207E+05
 0.67049995E+02 -0.17612E+05
 0.67099998E+02 -0.16852E+05
 0.67149994E+02 -0.15974E+05
 0.67199997E+02 -0.16202E+05
 0.67249992E+02 -0.17704E+05
 0.67299995E+02 -0.19228E+05
 0.67349998E+02 -0.19899E+05
 0.67399994E+02 -0.18663E+05
 0.67449997E+02 -0.17207E+05
 0.67499992E+02 -0.17734E+05
 0.67549995E+02 -0.19021E+05
 0.67599998E+02 -0.18829E+05
 0.67649994E+02 -0.17081E+05
 0.67699997E+02 -0.15978E+05
 0.67749992E+02 -0.16464E+05
 0.67799995E+02 -0.18400E+05
 0.67849998E+02 -0.20109E+05
 0.67899994E+02 -0.20132E+05
 0.67949997E+02 -0.18565E+05
 0.67999992E+02 -0.17216E+05
 0.68049995E+02 -0.18251E+05
 0.68099998E+02 -0.20315E+05
 0.68149994E+02 -0.20921E+05
 0.68199997E+02 -0.20180E+05
 0.68249992E+02 -0.19777E+05
 0.68299995E+02 -0.19774E+05
 0.68349998E+02 -0.19031E+05
 0.68399994E+02 -0.18222E+05
 0.68449997E+02 -0.18608E+05
 0.68499992E+02 -0.19491E+05
 0.68549995E+02 -0.20719E+05
 0.68599998E+02 -0.21948E+05
 0.68649994E+02 -0.22384E+05
 0.68699997E+02 -0.21988E+05
 0.68749992E+02 -0.20854E+05
 0.68799995E+02 -0.20071E+05
 0.68849998E+02 -0.19914E+05
 0.68899994E+02 -0.19342E+05
 0.68949997E+02 -0.18301E+05
 0.68999992E+02 -0.17579E+05
 0.69049995E+02 -0.17601E+05
 0.69099998E+02 -0.17594E+05
 0.69149994E+02 -0.17253E+05
 0.69199997E+02 -0.17739E+05
 0.69249992E+02 -0.18664E+05
 0.69299995E+02 -0.19297E+05
 0.69349998E+02 -0.19247E+05
 0.69399994E+02 -0.18639E+05
 0.69449997E+02 -0.18218E+05
 0.69499992E+02 -0.18713E+05
 0.69549995E+02 -0.19862E+05
 0.69599998E+02 -0.20779E+05
 0.69649994E+02 -0.20791E+05
 0.69699997E+02 -0.19298E+05
 0.69749992E+02 -0.17505E+05
 0.69799995E+02 -0.17143E+05
 0.69849998E+02 -0.18219E+05
 0.69899994E+02 -0.18897E+05
 0.69949997E+02 -0.18445E+05
 0.69999992E+02 -0.17790E+05
 0.70049995E+02 -0.17706E+05
 0.70099998E+02 -0.18416E+05
 0.70149994E+02 -0.19309E+05
 0.70199997E+02 -0.19113E+05
 0.70249992E+02 -0.18527E+05
 0.70299995E+02 -0.18649E+05
 0.70349998E+02 -0.18703E+05
 0.70399994E+02 -0.18286E+05
 0.70449997E+02 -0.17599E+05
 0.70499992E+02 -0.17568E+05
 0.70549995E+02 -0.19073E+05
 0.70599998E+02 -0.21319E+05
 0.70649994E+02 -0.22150E+05
 0.70699997E+02 -0.20779E+05
 0.70749992E+02 -0.19213E+05
 0.70799995E+02 -0.18280E+05
 0.70849998E+02 -0.17844E+05
 0.70899994E+02 -0.17243E+05
 0.70949997E+02 -0.16623E+05
 0.70999992E+02 -0.17317E+05
 0.71049995E+02 -0.18387E+05
 0.71099998E+02 -0.19264E+05
 0.71149994E+02 -0.19772E+05
 0.71199997E+02 -0.19821E+05
 0.71249992E+02 -0.19855E+05
 0.71299995E+02 -0.19722E+05
 0.71349998E+02 -0.19944E+05
 0.71399994E+02 -0.20892E+05
 0.71449997E+02 -0.21534E+05
 0.71499992E+02 -0.21310E+05
 0.71549995E+02 -0.20612E+05
 0.71599998E+02 -0.19773E+05
 0.71649994E+02 -0.19370E+05
 0.71699997E+02 -0.19671E+05
 0.71749992E+02 -0.19446E+05
 0.71799995E+02 -0.18894E+05
 0.71849998E+02 -0.18687E+05
 0.71899994E+02 -0.18513E+05
 0.71949997E+02 -0.18822E+05
 0.71999992E+02 -0.19271E+05
 0.72049995E+02 -0.19575E+05
 0.72099998E+02 -0.19594E+05
 0.72149994E+02 -0.19429E+05
 0.72199997E+02 -0.19863E+05
 0.72249992E+02 -0.20235E+05
 0.72299995E+02 -0.19929E+05
 0.72349998E+02 -0.19576E+05
 0.72399994E+02 -0.18712E+05
 0.72449997E+02 -0.17683E+05
 0.72499992E+02 -0.17475E+05
 0.72549995E+02 -0.17583E+05
 0.72599998E+02 -0.17742E+05
 0.72649994E+02 -0.17975E+05
 0.72699997E+02 -0.17760E+05
 0.72749992E+02 -0.17613E+05
 0.72799995E+02 -0.18161E+05
 0.72849998E+02 -0.18497E+05
 0.72899994E+02 -0.18752E+05
 0.72949997E+02 -0.18928E+05
 0.72999992E+02 -0.18617E+05
 0.73049995E+02 -0.18620E+05
 0.73099998E+02 -0.19231E+05
 0.73149994E+02 -0.19574E+05
 0.73199997E+02 -0.19787E+05
 0.73249992E+02 -0.19637E+05
 0.73299995E+02 -0.19186E+05
 0.73349998E+02 -0.18677E+05
 0.73399994E+02 -0.17486E+05
 0.73449997E+02 -0.16647E+05
 0.73499992E+02 -0.16820E+05
 0.73549995E+02 -0.17978E+05
 0.73599998E+02 -0.19818E+05
 0.73649994E+02 -0.21357E+05
 0.73699997E+02 -0.21568E+05
 0.73749992E+02 -0.21045E+05
 0.73799995E+02 -0.21096E+05
 0.73849998E+02 -0.21833E+05
 0.73899994E+02 -0.22107E+05
 0.73949997E+02 -0.21126E+05
 0.73999992E+02 -0.19866E+05
 0.74049995E+02 -0.19229E+05
 0.74099998E+02 -0.19232E+05
 0.74149994E+02 -0.18837E+05
 0.74199997E+02 -0.17938E+05
 0.74249992E+02 -0.18177E+05
 0.74299995E+02 -0.19371E+05
 0.74349998E+02 -0.19678E+05
 0.74399994E+02 -0.19241E+05
 0.74449997E+02 -0.19168E+05
 0.74499992E+02 -0.19309E+05
 0.74549995E+02 -0.19224E+05
 0.74599998E+02 -0.19052E+05
 0.74649994E+02 -0.18639E+05
 0.74699997E+02 -0.18414E+05
 0.74749992E+02 -0.18529E+05
 0.74799995E+02 -0.18292E+05
 0.74849998E+02 -0.17931E+05
 0.74899994E+02 -0.17889E+05
 0.74949997E+02 -0.18417E+05
 0.74999992E+02 -0.18639E+05
 0.75049995E+02 -0.18293E+05
 0.75099998E+02 -0.18154E+05
 0.75149994E+02 -0.18467E+05
 0.75199997E+02 -0.18765E+05
 0.75249992E+02 -0.19193E+05
 0.75299995E+02 -0.19404E+05
 0.75349998E+02 -0.18802E+05
 0.75399994E+02 -0.17690E+05
 0.75449997E+02 -0.16557E+05
 0.75499992E+02 -0.16554E+05
 0.75549995E+02 -0.17547E+05
 0.75599998E+02 -0.18563E+05
 0.75649994E+02 -0.18886E+05
 0.75699997E+02 -0.19349E+05
 0.75749992E+02 -0.20121E+05
 0.75799995E+02 -0.20504E+05
 0.75849998E+02 -0.20777E+05
 0.75899994E+02 -0.20399E+05
 0.75949997E+02 -0.20032E+05
 0.75999992E+02 -0.20265E+05
 0.76049995E+02 -0.20346E+05
 0.76099998E+02 -0.19845E+05
 0.76149994E+02 -0.19126E+05
 0.76199997E+02 -0.18903E+05
 0.76249992E+02 -0.19245E+05
 0.76299995E+02 -0.19584E+05
 0.76349998E+02 -0.19410E+05
 0.76399994E+02 -0.19282E+05
 0.76449997E+02 -0.19497E+05
 0.76499992E+02 -0.19713E+05
 0.76549995E+02 -0.19421E+05
 0.76599998E+02 -0.19091E+05
 0.76649994E+02 -0.19441E+05
 0.76699997E+02 -0.19920E+05
 0.76749992E+02 -0.19726E+05
 0.76799995E+02 -0.18923E+05
 0.76849998E+02 -0.18342E+05
 0.76899994E+02 -0.18055E+05
 0.76949997E+02 -0.18240E+05
 0.76999992E+02 -0.18684E+05
 0.77049995E+02 -0.18789E+05
 0.77099998E+02 -0.18495E+05
 0.77149994E+02 -0.18020E+05
 0.77199997E+02 -0.18049E+05
 0.77249992E+02 -0.18466E+05
 0.77299995E+02 -0.18992E+05
 0.77349998E+02 -0.19967E+05
 0.77399994E+02 -0.20748E+05
 0.77449997E+02 -0.20338E+05
 0.77499992E+02 -0.19901E+05
 0.77549995E+02 -0.19708E+05
 0.77599998E+02 -0.18943E+05
 0.77649994E+02 -0.17999E+05
 0.77699997E+02 -0.17361E+05
 0.77749992E+02 -0.17478E+05
 0.77799995E+02 -0.17739E+05
 0.77849998E+02 -0.17740E+05
 0.77899994E+02 -0.17558E+05
 0.77949997E+02 -0.17538E+05
 0.77999992E+02 -0.17724E+05
 0.78049995E+02 -0.18169E+05
 0.78099998E+02 -0.19166E+05
 0.78149994E+02 -0.19891E+05
 0.78199997E+02 -0.20150E+05
 0.78249992E+02 -0.20387E+05
 0.78299995E+02 -0.20578E+05
 0.78349998E+02 -0.20509E+05
 0.78399994E+02 -0.20002E+05
 0.78449997E+02 -0.19869E+05
 0.78499992E+02 -0.20685E+05
 0.78549995E+02 -0.21533E+05
 0.78599998E+02 -0.21412E+05
 0.78649994E+02 -0.20074E+05
 0.78699997E+02 -0.19165E+05
 0.78749992E+02 -0.18969E+05
 0.78799995E+02 -0.18609E+05
 0.78849998E+02 -0.18153E+05
 0.78899994E+02 -0.18134E+05
 0.78949997E+02 -0.18636E+05
 0.78999992E+02 -0.18675E+05
 0.79049995E+02 -0.18498E+05
 0.79099998E+02 -0.18199E+05
 0.79149994E+02 -0.17898E+05
 0.79199997E+02 -0.17719E+05
 0.79249992E+02 -0.17819E+05
 0.79299995E+02 -0.18007E+05
 0.79349998E+02 -0.18186E+05
 0.79399994E+02 -0.19329E+05
 0.79449997E+02 -0.20582E+05
 0.79499992E+02 -0.20708E+05
 0.79549995E+02 -0.20131E+05
 0.79599998E+02 -0.19521E+05
 0.79649994E+02 -0.18886E+05
 0.79699997E+02 -0.18216E+05
 0.79749992E+02 -0.17720E+05
 0.79799995E+02 -0.17653E+05
 0.79849998E+02 -0.17545E+05
 0.79899994E+02 -0.17281E+05
 0.79949997E+02 -0.17495E+05
 0.79999992E+02 -0.18409E+05
 0.80049995E+02 -0.19613E+05
 0.80099998E+02 -0.20330E+05
 0.80149994E+02 -0.20625E+05
 0.80199997E+02 -0.20015E+05
 0.80249992E+02 -0.19096E+05
 0.80299995E+02 -0.18770E+05
 0.80349998E+02 -0.18988E+05
 0.80399994E+02 -0.19746E+05
 0.80449997E+02 -0.20314E+05
 0.80499992E+02 -0.20360E+05
 0.80549995E+02 -0.20404E+05
 0.80599998E+02 -0.20889E+05
 0.80649994E+02 -0.21063E+05
 0.80699997E+02 -0.20518E+05
 0.80749992E+02 -0.19859E+05
 0.80799995E+02 -0.19687E+05
 0.80849998E+02 -0.19592E+05
 0.80899994E+02 -0.18932E+05
 0.80949997E+02 -0.17795E+05
 0.80999992E+02 -0.16860E+05
 0.81049995E+02 -0.16763E+05
 0.81099998E+02 -0.17110E+05
 0.81149994E+02 -0.17616E+05
 0.81199997E+02 -0.18086E+05
 0.81249992E+02 -0.18600E+05
 0.81299995E+02 -0.19256E+05
 0.81349998E+02 -0.19841E+05
 0.81399994E+02 -0.20179E+05
 0.81449997E+02 -0.19907E+05
 0.81499992E+02 -0.19512E+05
 0.81549995E+02 -0.19575E+05
 0.81599998E+02 -0.19575E+05
 0.81649994E+02 -0.18773E+05
 0.81699997E+02 -0.17580E+05
 0.81749992E+02 -0.16624E+05
 0.81799995E+02 -0.16235E+05
 0.81849998E+02 -0.16543E+05
 0.81899994E+02 -0.17636E+05
 0.81949997E+02 -0.19114E+05
 0.81999992E+02 -0.20253E+05
 0.82049995E+02 -0.21200E+05
 0.82099998E+02 -0.21699E+05
 0.82149994E+02 -0.21509E+05
 0.82199997E+02 -0.21074E+05
 0.82249992E+02 -0.20757E+05
 0.82299995E+02 -0.20633E+05
 0.82349998E+02 -0.19920E+05
 0.82399994E+02 -0.18826E+05
 0.82449997E+02 -0.18372E+05
 0.82499992E+02 -0.18491E+05
 0.82549995E+02 -0.18841E+05
 0.82599998E+02 -0.18922E+05
 0.82649994E+02 -0.18477E+05
 0.82699997E+02 -0.18038E+05
 0.82749992E+02 -0.18347E+05
 0.82799995E+02 -0.18997E+05
 0.82849998E+02 -0.19429E+05
 0.82899994E+02 -0.19658E+05
 0.82949997E+02 -0.19632E+05
 0.82999992E+02 -0.19544E+05
 0.83049995E+02 -0.19673E+05
 0.83099998E+02 -0.19560E+05
 0.83149994E+02 -0.18471E+05
 0.83199997E+02 -0.17165E+05
 0.83249992E+02 -0.17055E+05
 0.83299995E+02 -0.17530E+05
 0.83349998E+02 -0.17712E+05
 0.83399994E+02 -0.17767E+05
 0.83449997E+02 -0.18179E+05
 0.83499992E+02 -0.19078E+05
 0.83549995E+02 -0.19949E+05
 0.83599998E+02 -0.20387E+05
 0.83649994E+02 -0.20447E+05
 0.83699997E+02 -0.20484E+05
 0.83749992E+02 -0.20144E+05
 0.83799995E+02 -0.19389E+05
 0.83849998E+02 -0.18715E+05
 0.83899994E+02 -0.18549E+05
 0.83949997E+02 -0.18738E+05
 0.83999992E+02 -0.18878E+05
 0.84049995E+02 -0.18963E+05
 0.84099998E+02 -0.19034E+05
 0.84149994E+02 -0.18963E+05
 0.84199997E+02 -0.18851E+05
 0.84249992E+02 -0.19106E+05
 0.84299995E+02 -0.19614E+05
 0.84349998E+02 -0.19971E+05
 0.84399994E+02 -0.20225E+05
 0.84449997E+02 -0.20179E+05
 0.84499992E+02 -0.19653E+05
 0.84549995E+02 -0.18836E+05
 0.84599998E+02 -0.18174E+05
 0.84649994E+02 -0.18184E+05
 0.84699997E+02 -0.18766E+05
 0.84749992E+02 -0.19180E+05
 0.84799995E+02 -0.19144E+05
 0.84849998E+02 -0.19289E+05
 0.84899994E+02 -0.19750E+05
 0.84949997E+02 -0.19798E+05
 0.84999992E+02 -0.19209E+05
 0.85049995E+02 -0.18652E+05
 0.85099998E+02 -0.18530E+05
 0.85149994E+02 -0.18702E+05
 0.85199997E+02 -0.19083E+05
 0.85249992E+02 -0.19195E+05
 0.85299995E+02 -0.18556E+05
 0.85349998E+02 -0.17814E+05
 0.85399994E+02 -0.17694E+05
 0.85449997E+02 -0.18344E+05
 0.85499992E+02 -0.19205E+05
 0.85549995E+02 -0.19456E+05
 0.85599998E+02 -0.19178E+05
 0.85649994E+02 -0.19016E+05
 0.85699997E+02 -0.19058E+05
 0.85749992E+02 -0.19209E+05
 0.85799995E+02 -0.19235E+05
 0.85849998E+02 -0.19220E+05
 0.85899994E+02 -0.19613E+05
 0.85949997E+02 -0.19947E+05
 0.85999992E+02 -0.19718E+05
 0.86049995E+02 -0.19085E+05
 0.86099998E+02 -0.18550E+05
 0.86149994E+02 -0.18669E+05
 0.86199997E+02 -0.19270E+05
 0.86249992E+02 -0.19562E+05
 0.86299995E+02 -0.18997E+05
 0.86349998E+02 -0.18211E+05
 0.86399994E+02 -0.18192E+05
 0.86449997E+02 -0.18580E+05
 0.86499992E+02 -0.18953E+05
 0.86549995E+02 -0.19331E+05
 0.86599998E+02 -0.19777E+05
 0.86649994E+02 -0.20322E+05
 0.86699997E+02 -0.20348E+05
 0.86749992E+02 -0.19987E+05
 0.86799995E+02 -0.19527E+05
 0.86849998E+02 -0.19038E+05
 0.86899994E+02 -0.18711E+05
 0.86949997E+02 -0.18414E+05
 0.86999992E+02 -0.17919E+05
 0.87049995E+02 -0.17778E+05
 0.87099998E+02 -0.18124E+05
 0.87149994E+02 -0.18281E+05
 0.87199997E+02 -0.18711E+05
 0.87249992E+02 -0.19546E+05
 0.87299995E+02 -0.20178E+05
 0.87349998E+02 -0.20204E+05
 0.87399994E+02 -0.19707E+05
 0.87449997E+02 -0.19234E+05
 0.87499992E+02 -0.18913E+05
 0.87549995E+02 -0.18678E+05
 0.87599991E+02 -0.18821E+05
 0.87649994E+02 -0.18926E+05
 0.87699997E+02 -0.18763E+05
 0.87749992E+02 -0.18590E+05
 0.87799995E+02 -0.18250E+05
 0.87849991E+02 -0.17950E+05
 0.87899994E+02 -0.18052E+05
 0.87949997E+02 -0.18525E+05
 0.87999992E+02 -0.19112E+05
 0.88049995E+02 -0.19875E+05
 0.88099991E+02 -0.20307E+05
 0.88149994E+02 -0.19998E+05
 0.88199997E+02 -0.19312E+05
 0.88249992E+02 -0.18896E+05
 0.88299995E+02 -0.18798E+05
 0.88349991E+02 -0.18643E+05
 0.88399994E+02 -0.18486E+05
 0.88449997E+02 -0.18453E+05
 0.88499992E+02 -0.18726E+05
 0.88549995E+02 -0.19380E+05
 0.88599991E+02 -0.19987E+05
 0.88649994E+02 -0.19838E+05
 0.88699997E+02 -0.19547E+05
 0.88749992E+02 -0.19648E+05
 0.88799995E+02 -0.19706E+05
 0.88849991E+02 -0.19719E+05
 0.88899994E+02 -0.19666E+05
 0.88949997E+02 -0.19401E+05
 0.88999992E+02 -0.18920E+05
 0.89049995E+02 -0.18308E+05
 0.89099991E+02 -0.17970E+05
 0.89149994E+02 -0.18215E+05
 0.89199997E+02 -0.18880E+05
 0.89249992E+02 -0.19504E+05
 0.89299995E+02 -0.19690E+05
 0.89349991E+02 -0.19509E+05
 0.89399994E+02 -0.19266E+05
 0.89449997E+02 -0.19300E+05
 0.89499992E+02 -0.19729E+05
 0.89549995E+02 -0.20097E+05
 0.89599991E+02 -0.20195E+05
 0.89649994E+02 -0.20005E+05
 0.89699997E+02 -0.19596E+05
 0.89749992E+02 -0.18928E+05
 0.89799995E+02 -0.18177E+05
 0.89849991E+02 -0.17715E+05
 0.89899994E+02 -0.17358E+05
 0.89949997E+02 -0.17167E+05
 0.89999992E+02 -0.17170E+05
 0.90049995E+02 -0.17685E+05
 0.90099991E+02 -0.18634E+05
 0.90149994E+02 -0.19482E+05
 0.90199997E+02 -0.20010E+05
 0.90249992E+02 -0.20217E+05
 0.90299995E+02 -0.20297E+05
 0.90349991E+02 -0.20080E+05
 0.90399994E+02 -0.19473E+05
 0.90449997E+02 -0.18849E+05
 0.90499992E+02 -0.18646E+05
 0.90549995E+02 -0.18828E+05
 0.90599991E+02 -0.19107E+05
 0.90649994E+02 -0.19116E+05
 0.90699997E+02 -0.19068E+05
 0.90749992E+02 -0.19170E+05
 0.90799995E+02 -0.19274E+05
 0.90849991E+02 -0.19520E+05
 0.90899994E+02 -0.19934E+05
 0.90949997E+02 -0.20221E+05
 0.90999992E+02 -0.20000E+05
 0.91049995E+02 -0.19127E+05
 0.91099991E+02 -0.18236E+05
 0.91149994E+02 -0.17855E+05
 0.91199997E+02 -0.17853E+05
 0.91249992E+02 -0.18184E+05
 0.91299995E+02 -0.18582E+05
 0.91349991E+02 -0.18913E+05
 0.91399994E+02 -0.19189E+05
 0.91449997E+02 -0.19245E+05
 0.91499992E+02 -0.18886E+05
 0.91549995E+02 -0.18566E+05
 0.91599991E+02 -0.18519E+05
 0.91649994E+02 -0.18613E+05
 0.91699997E+02 -0.18625E+05
 0.91749992E+02 -0.18552E+05
 0.91799995E+02 -0.18697E+05
 0.91849991E+02 -0.19008E+05
 0.91899994E+02 -0.19303E+05
 0.91949997E+02 -0.19353E+05
 0.91999992E+02 -0.19466E+05
 0.92049995E+02 -0.19840E+05
 0.92099991E+02 -0.20081E+05
 0.92149994E+02 -0.19747E+05
 0.92199997E+02 -0.19016E+05
 0.92249992E+02 -0.18412E+05
 0.92299995E+02 -0.18312E+05
 0.92349991E+02 -0.18623E+05
 0.92399994E+02 -0.19194E+05
 0.92449997E+02 -0.19761E+05
 0.92499992E+02 -0.19991E+05
 0.92549995E+02 -0.19947E+05
 0.92599991E+02 -0.19664E+05
 0.92649994E+02 -0.19491E+05
 0.92699997E+02 -0.19557E+05
 0.92749992E+02 -0.19475E+05
 0.92799995E+02 -0.19342E+05
 0.92849991E+02 -0.19388E+05
 0.92899994E+02 -0.19269E+05
 0.92949997E+02 -0.18742E+05
 0.92999992E+02 -0.18178E+05
 0.93049995E+02 -0.17942E+05
 0.93099991E+02 -0.18215E+05
 0.93149994E+02 -0.18968E+05
 0.93199997E+02 -0.19515E+05
 0.93249992E+02 -0.19472E+05
 0.93299995E+02 -0.19247E+05
 0.93349991E+02 -0.19248E+05
 0.93399994E+02 -0.19224E+05
 0.93449997E+02 -0.18741E+05
 0.93499992E+02 -0.18088E+05
 0.93549995E+02 -0.17786E+05
 0.93599991E+02 -0.17956E+05
 0.93649994E+02 -0.18187E+05
 0.93699997E+02 -0.18412E+05
 0.93749992E+02 -0.18774E+05
 0.93799995E+02 -0.19075E+05
 0.93849991E+02 -0.19250E+05
 0.93899994E+02 -0.19301E+05
 0.93949997E+02 -0.19521E+05
 0.93999992E+02 -0.20028E+05
 0.94049995E+02 -0.20451E+05
 0.94099991E+02 -0.20559E+05
 0.94149994E+02 -0.20222E+05
 0.94199997E+02 -0.19624E+05
 0.94249992E+02 -0.18919E+05
 0.94299995E+02 -0.18351E+05
 0.94349991E+02 -0.18446E+05
 0.94399994E+02 -0.18923E+05
 0.94449997E+02 -0.19109E+05
 0.94499992E+02 -0.18895E+05
 0.94549995E+02 -0.18630E+05
 0.94599991E+02 -0.18453E+05
 0.94649994E+02 -0.18349E+05
 0.94699997E+02 -0.18601E+05
 0.94749992E+02 -0.19061E+05
 0.94799995E+02 -0.19354E+05
 0.94849991E+02 -0.19453E+05
 0.94899994E+02 -0.19544E+05
 0.94949997E+02 -0.19539E+05
 0.94999992E+02 -0.19157E+05
 0.95049995E+02 -0.18615E+05
 0.95099991E+02 -0.18243E+05
 0.95149994E+02 -0.18313E+05
 0.95199997E+02 -0.18962E+05
 0.95249992E+02 -0.19752E+05
 0.95299995E+02 -0.20303E+05
 0.95349991E+02 -0.20605E+05
 0.95399994E+02 -0.20524E+05
 0.95449997E+02 -0.19947E+05
 0.95499992E+02 -0.19215E+05
 0.95549995E+02 -0.18795E+05
 0.95599991E+02 -0.18745E+05
 0.95649994E+02 -0.18978E+05
 0.95699997E+02 -0.19222E+05
 0.95749992E+02 -0.19071E+05
 0.95799995E+02 -0.18555E+05
 0.95849991E+02 -0.18316E+05
 0.95899994E+02 -0.18482E+05
 0.95949997E+02 -0.18608E+05
 0.95999992E+02 -0.18439E+05
 0.96049995E+02 -0.18152E+05
 0.96099991E+02 -0.18097E+05
 0.96149994E+02 -0.18312E+05
 0.96199997E+02 -0.18783E+05
 0.96249992E+02 -0.19346E+05
 0.96299995E+02 -0.19955E+05
 0.96349991E+02 -0.20403E+05
 0.96399994E+02 -0.20445E+05
 0.96449997E+02 -0.20092E+05
 0.96499992E+02 -0.19537E+05
 0.96549995E+02 -0.19093E+05
 0.96599991E+02 -0.18651E+05
 0.96649994E+02 -0.18266E+05
 0.96699997E+02 -0.18226E+05
 0.96749992E+02 -0.18482E+05
 0.96799995E+02 -0.18865E+05
 0.96849991E+02 -0.19091E+05
 0.96899994E+02 -0.19113E+05
 0.96949997E+02 -0.18975E+05
 0.96999992E+02 -0.18770E+05
 0.97049995E+02 -0.18856E+05
 0.97099991E+02 -0.19139E+05
 0.97149994E+02 -0.19399E+05
 0.97199997E+02 -0.19517E+05
 0.97249992E+02 -0.19470E+05
 0.97299995E+02 -0.19362E+05
 0.97349991E+02 -0.19252E+05
 0.97399994E+02 -0.19249E+05
 0.97449997E+02 -0.19132E+05
 0.97499992E+02 -0.18864E+05
 0.97549995E+02 -0.18575E+05
 0.97599991E+02 -0.18410E+05
 0.97649994E+02 -0.18470E+05
 0.97699997E+02 -0.18510E+05
 0.97749992E+02 -0.18576E+05
 0.97799995E+02 -0.18554E+05
 0.97849991E+02 -0.18531E+05
 0.97899994E+02 -0.18839E+05
 0.97949997E+02 -0.19335E+05
 0.97999992E+02 -0.19618E+05
