-0.20000000E+01  0.75871E+04
-0.19500000E+01  0.75497E+04
-0.19000000E+01  0.75774E+04
-0.18500000E+01  0.75751E+04
-0.18000000E+01  0.75733E+04
-0.17500000E+01  0.75730E+04
-0.17000000E+01  0.75702E+04
-0.16500001E+01  0.75688E+04
-0.16000000E+01  0.75791E+04
-0.15500000E+01  0.75844E+04
-0.15000000E+01  0.75809E+04
-0.14500000E+01  0.75802E+04
-0.14000001E+01  0.75810E+04
-0.13500000E+01  0.75795E+04
-0.13000001E+01  0.75814E+04
-0.12500000E+01  0.75807E+04
-0.12000000E+01  0.75844E+04
-0.11500001E+01  0.75861E+04
-0.11000000E+01  0.75921E+04
-0.10500001E+01  0.75921E+04
-0.10000000E+01  0.75933E+04
-0.95000005E+00  0.75971E+04
-0.90000010E+00  0.75975E+04
-0.85000002E+00  0.75987E+04
-0.80000007E+00  0.75938E+04
-0.75000012E+00  0.75907E+04
-0.70000005E+00  0.75909E+04
-0.65000010E+00  0.75920E+04
-0.60000014E+00  0.75879E+04
-0.55000007E+00  0.75882E+04
-0.50000012E+00  0.75877E+04
-0.45000005E+00  0.75829E+04
-0.40000010E+00  0.75718E+04
-0.35000014E+00  0.75718E+04
-0.30000007E+00  0.75723E+04
-0.25000012E+00  0.75717E+04
-0.20000005E+00  0.75716E+04
-0.15000010E+00  0.75668E+04
-0.10000014E+00  0.75697E+04
-0.50000072E-01  0.75670E+04
-0.11920929E-06  0.75660E+04
 0.49999952E-01  0.75666E+04
 0.99999905E-01  0.75731E+04
 0.14999986E+00  0.75775E+04
 0.19999981E+00  0.75771E+04
 0.24999976E+00  0.75762E+04
 0.29999995E+00  0.75719E+04
 0.34999990E+00  0.75732E+04
 0.39999986E+00  0.75717E+04
 0.44999981E+00  0.75699E+04
 0.49999976E+00  0.75670E+04
 0.54999995E+00  0.75687E+04
 0.59999990E+00  0.75739E+04
 0.64999986E+00  0.75729E+04
 0.69999981E+00  0.75712E+04
 0.74999976E+00  0.75705E+04
 0.79999971E+00  0.75705E+04
 0.84999990E+00  0.75680E+04
 0.89999986E+00  0.75619E+04
 0.94999981E+00  0.75575E+04
 0.99999976E+00  0.75559E+04
 0.10499997E+01  0.75558E+04
 0.10999999E+01  0.75517E+04
 0.11499999E+01  0.75506E+04
 0.11999998E+01  0.75506E+04
 0.12499998E+01  0.75491E+04
 0.12999997E+01  0.75495E+04
 0.13499999E+01  0.75490E+04
 0.13999999E+01  0.75511E+04
 0.14499998E+01  0.75580E+04
 0.14999998E+01  0.75669E+04
 0.15499997E+01  0.75684E+04
 0.15999999E+01  0.75734E+04
 0.16499999E+01  0.75847E+04
 0.16999998E+01  0.75936E+04
 0.17499998E+01  0.75949E+04
 0.17999997E+01  0.75955E+04
 0.18499997E+01  0.75998E+04
 0.18999999E+01  0.75969E+04
 0.19499998E+01  0.75907E+04
 0.19999998E+01  0.75918E+04
 0.20499997E+01  0.75915E+04
 0.20999999E+01  0.75882E+04
 0.21499996E+01  0.75822E+04
 0.21999998E+01  0.75724E+04
 0.22499995E+01  0.75667E+04
 0.22999997E+01  0.75681E+04
 0.23499999E+01  0.75730E+04
 0.23999996E+01  0.75751E+04
 0.24499998E+01  0.75802E+04
 0.24999995E+01  0.75826E+04
 0.25499997E+01  0.75805E+04
 0.25999999E+01  0.75810E+04
 0.26499996E+01  0.75805E+04
 0.26999998E+01  0.75799E+04
 0.27499995E+01  0.75843E+04
 0.27999997E+01  0.75873E+04
 0.28499999E+01  0.75856E+04
 0.28999996E+01  0.75853E+04
 0.29499998E+01  0.75903E+04
 0.29999995E+01  0.75924E+04
 0.30499997E+01  0.75904E+04
 0.30999999E+01  0.75919E+04
 0.31499996E+01  0.75891E+04
 0.31999998E+01  0.75893E+04
 0.32499995E+01  0.75861E+04
 0.32999997E+01  0.75829E+04
 0.33499999E+01  0.75821E+04
 0.33999996E+01  0.75797E+04
 0.34499998E+01  0.75786E+04
 0.34999995E+01  0.75753E+04
 0.35499997E+01  0.75754E+04
 0.35999994E+01  0.75768E+04
 0.36499996E+01  0.75726E+04
 0.36999998E+01  0.75669E+04
 0.37499995E+01  0.75634E+04
 0.37999997E+01  0.75656E+04
 0.38499994E+01  0.75678E+04
 0.38999996E+01  0.75652E+04
 0.39499998E+01  0.75655E+04
 0.39999995E+01  0.75669E+04
 0.40499997E+01  0.75706E+04
 0.40999994E+01  0.75668E+04
 0.41499996E+01  0.75638E+04
 0.41999998E+01  0.75627E+04
 0.42499995E+01  0.75651E+04
 0.42999997E+01  0.75681E+04
 0.43499994E+01  0.75677E+04
 0.43999996E+01  0.75704E+04
 0.44499998E+01  0.75776E+04
 0.44999995E+01  0.75778E+04
 0.45499997E+01  0.75762E+04
 0.45999994E+01  0.75810E+04
 0.46499996E+01  0.75871E+04
 0.46999998E+01  0.75943E+04
 0.47499995E+01  0.75961E+04
 0.47999997E+01  0.75971E+04
 0.48499994E+01  0.75987E+04
 0.48999996E+01  0.76006E+04
 0.49499998E+01  0.75918E+04
 0.49999995E+01  0.75849E+04
 0.50499997E+01  0.75826E+04
 0.50999994E+01  0.75843E+04
 0.51499996E+01  0.75787E+04
 0.51999998E+01  0.75759E+04
 0.52499995E+01  0.75742E+04
 0.52999997E+01  0.75709E+04
 0.53499994E+01  0.75674E+04
 0.53999996E+01  0.75578E+04
 0.54499993E+01  0.75588E+04
 0.54999995E+01  0.75589E+04
 0.55499997E+01  0.75607E+04
 0.55999994E+01  0.75591E+04
 0.56499996E+01  0.75549E+04
 0.56999993E+01  0.75565E+04
 0.57499995E+01  0.75541E+04
 0.57999997E+01  0.75473E+04
 0.58499994E+01  0.75493E+04
 0.58999996E+01  0.75483E+04
 0.59499993E+01  0.75503E+04
 0.59999995E+01  0.75525E+04
 0.60499992E+01  0.75539E+04
 0.60999994E+01  0.75582E+04
 0.61499996E+01  0.75611E+04
 0.61999998E+01  0.75637E+04
 0.62499990E+01  0.75594E+04
 0.62999992E+01  0.75611E+04
 0.63499994E+01  0.75673E+04
 0.63999996E+01  0.75695E+04
 0.64499998E+01  0.75669E+04
 0.64999990E+01  0.75653E+04
 0.65499992E+01  0.75696E+04
 0.65999994E+01  0.75746E+04
 0.66499996E+01  0.75707E+04
 0.66999998E+01  0.75699E+04
 0.67499990E+01  0.75709E+04
 0.67999992E+01  0.75748E+04
 0.68499994E+01  0.75744E+04
 0.68999996E+01  0.75740E+04
 0.69499998E+01  0.75800E+04
 0.69999990E+01  0.75840E+04
 0.70499992E+01  0.75889E+04
 0.70999994E+01  0.75839E+04
 0.71499996E+01  0.75831E+04
 0.71999998E+01  0.75857E+04
 0.72499990E+01  0.75891E+04
 0.72999992E+01  0.75908E+04
 0.73499994E+01  0.75855E+04
 0.73999996E+01  0.75832E+04
 0.74499998E+01  0.75865E+04
 0.74999990E+01  0.75838E+04
 0.75499992E+01  0.75822E+04
 0.75999994E+01  0.75856E+04
 0.76499996E+01  0.75870E+04
 0.76999998E+01  0.75888E+04
 0.77499990E+01  0.75866E+04
 0.77999992E+01  0.75868E+04
 0.78499994E+01  0.75867E+04
 0.78999996E+01  0.75855E+04
 0.79499998E+01  0.75812E+04
 0.79999990E+01  0.75752E+04
 0.80499992E+01  0.75768E+04
 0.80999994E+01  0.75782E+04
 0.81499996E+01  0.75749E+04
 0.81999998E+01  0.75748E+04
 0.82499990E+01  0.75779E+04
 0.82999992E+01  0.75830E+04
 0.83499994E+01  0.75859E+04
 0.83999996E+01  0.75877E+04
 0.84499998E+01  0.75879E+04
 0.84999990E+01  0.75896E+04
 0.85499992E+01  0.75896E+04
 0.85999994E+01  0.75868E+04
 0.86499996E+01  0.75872E+04
 0.86999998E+01  0.75881E+04
 0.87499990E+01  0.75890E+04
 0.87999992E+01  0.75855E+04
 0.88499994E+01  0.75823E+04
 0.88999996E+01  0.75783E+04
 0.89499998E+01  0.75809E+04
 0.89999990E+01  0.75802E+04
 0.90499992E+01  0.75772E+04
 0.90999994E+01  0.75806E+04
 0.91499996E+01  0.75830E+04
 0.91999989E+01  0.75806E+04
 0.92499990E+01  0.75761E+04
 0.92999992E+01  0.75705E+04
 0.93499994E+01  0.75666E+04
 0.93999996E+01  0.75667E+04
 0.94499989E+01  0.75635E+04
 0.94999990E+01  0.75597E+04
 0.95499992E+01  0.75577E+04
 0.95999994E+01  0.75592E+04
 0.96499996E+01  0.75556E+04
 0.96999989E+01  0.75565E+04
 0.97499990E+01  0.75584E+04
 0.97999992E+01  0.75597E+04
 0.98499994E+01  0.75579E+04
 0.98999996E+01  0.75593E+04
 0.99499989E+01  0.75643E+04
 0.99999990E+01  0.75662E+04
 0.10049999E+02  0.75663E+04
 0.10099999E+02  0.75679E+04
 0.10150000E+02  0.75760E+04
 0.10199999E+02  0.75800E+04
 0.10249999E+02  0.75792E+04
 0.10299999E+02  0.75740E+04
 0.10349999E+02  0.75753E+04
 0.10400000E+02  0.75807E+04
 0.10449999E+02  0.75854E+04
 0.10499999E+02  0.75846E+04
 0.10549999E+02  0.75821E+04
 0.10599999E+02  0.75795E+04
 0.10650000E+02  0.75752E+04
 0.10699999E+02  0.75744E+04
 0.10749999E+02  0.75696E+04
 0.10799999E+02  0.75703E+04
 0.10849999E+02  0.75765E+04
 0.10900000E+02  0.75770E+04
 0.10949999E+02  0.75772E+04
 0.10999999E+02  0.75835E+04
 0.11049999E+02  0.75877E+04
 0.11099999E+02  0.75869E+04
 0.11150000E+02  0.75841E+04
 0.11199999E+02  0.75818E+04
 0.11249999E+02  0.75853E+04
 0.11299999E+02  0.75804E+04
 0.11349999E+02  0.75737E+04
 0.11400000E+02  0.75758E+04
 0.11449999E+02  0.75760E+04
 0.11499999E+02  0.75730E+04
 0.11549999E+02  0.75671E+04
 0.11599999E+02  0.75621E+04
 0.11650000E+02  0.75663E+04
 0.11699999E+02  0.75719E+04
 0.11749999E+02  0.75699E+04
 0.11799999E+02  0.75647E+04
 0.11849999E+02  0.75645E+04
 0.11900000E+02  0.75658E+04
 0.11949999E+02  0.75628E+04
 0.11999999E+02  0.75603E+04
 0.12049999E+02  0.75606E+04
 0.12099999E+02  0.75646E+04
 0.12150000E+02  0.75666E+04
 0.12199999E+02  0.75654E+04
 0.12249999E+02  0.75666E+04
 0.12299999E+02  0.75682E+04
 0.12349999E+02  0.75667E+04
 0.12400000E+02  0.75627E+04
 0.12449999E+02  0.75636E+04
 0.12499999E+02  0.75666E+04
 0.12549999E+02  0.75681E+04
 0.12599999E+02  0.75696E+04
 0.12649999E+02  0.75710E+04
 0.12699999E+02  0.75706E+04
 0.12749999E+02  0.75760E+04
 0.12799999E+02  0.75777E+04
 0.12849999E+02  0.75717E+04
 0.12899999E+02  0.75688E+04
 0.12949999E+02  0.75709E+04
 0.12999999E+02  0.75704E+04
 0.13049999E+02  0.75703E+04
 0.13099999E+02  0.75735E+04
 0.13149999E+02  0.75750E+04
 0.13199999E+02  0.75790E+04
 0.13249999E+02  0.75764E+04
 0.13299999E+02  0.75806E+04
 0.13349999E+02  0.75877E+04
 0.13399999E+02  0.75891E+04
 0.13449999E+02  0.75900E+04
 0.13499999E+02  0.75875E+04
 0.13549999E+02  0.75901E+04
 0.13599999E+02  0.75944E+04
 0.13649999E+02  0.75932E+04
 0.13699999E+02  0.75938E+04
 0.13749999E+02  0.75942E+04
 0.13799999E+02  0.75926E+04
 0.13849999E+02  0.75952E+04
 0.13899999E+02  0.75945E+04
 0.13949999E+02  0.75926E+04
 0.13999999E+02  0.75955E+04
 0.14049999E+02  0.75929E+04
 0.14099998E+02  0.75916E+04
 0.14150000E+02  0.75884E+04
 0.14199999E+02  0.75842E+04
 0.14249998E+02  0.75824E+04
 0.14299999E+02  0.75753E+04
 0.14349998E+02  0.75732E+04
 0.14400000E+02  0.75715E+04
 0.14449999E+02  0.75730E+04
 0.14499998E+02  0.75721E+04
 0.14549999E+02  0.75704E+04
 0.14599998E+02  0.75746E+04
 0.14650000E+02  0.75790E+04
 0.14699999E+02  0.75788E+04
 0.14749998E+02  0.75757E+04
 0.14799999E+02  0.75779E+04
 0.14849998E+02  0.75809E+04
 0.14900000E+02  0.75794E+04
 0.14949999E+02  0.75711E+04
 0.14999998E+02  0.75698E+04
 0.15049999E+02  0.75698E+04
 0.15099998E+02  0.75698E+04
 0.15150000E+02  0.75702E+04
 0.15199999E+02  0.75651E+04
 0.15249998E+02  0.75637E+04
 0.15299999E+02  0.75588E+04
 0.15349998E+02  0.75534E+04
 0.15400000E+02  0.75508E+04
 0.15449999E+02  0.75554E+04
 0.15499998E+02  0.75591E+04
 0.15549999E+02  0.75579E+04
 0.15599998E+02  0.75604E+04
 0.15650000E+02  0.75624E+04
 0.15699999E+02  0.75691E+04
 0.15749998E+02  0.75735E+04
 0.15799999E+02  0.75710E+04
 0.15849998E+02  0.75740E+04
 0.15900000E+02  0.75816E+04
 0.15949999E+02  0.75871E+04
 0.15999998E+02  0.75875E+04
 0.16049999E+02  0.75879E+04
 0.16099998E+02  0.75924E+04
 0.16150000E+02  0.75945E+04
 0.16199999E+02  0.75901E+04
 0.16249998E+02  0.75858E+04
 0.16299999E+02  0.75834E+04
 0.16349998E+02  0.75784E+04
 0.16400000E+02  0.75750E+04
 0.16449999E+02  0.75722E+04
 0.16499998E+02  0.75730E+04
 0.16549999E+02  0.75746E+04
 0.16599998E+02  0.75727E+04
 0.16650000E+02  0.75726E+04
 0.16699999E+02  0.75708E+04
 0.16749998E+02  0.75729E+04
 0.16799999E+02  0.75789E+04
 0.16849998E+02  0.75775E+04
 0.16900000E+02  0.75775E+04
 0.16949999E+02  0.75824E+04
 0.16999998E+02  0.75847E+04
 0.17049999E+02  0.75820E+04
 0.17099998E+02  0.75757E+04
 0.17150000E+02  0.75745E+04
 0.17199999E+02  0.75758E+04
 0.17249998E+02  0.75698E+04
 0.17299999E+02  0.75696E+04
 0.17349998E+02  0.75685E+04
 0.17400000E+02  0.75676E+04
 0.17449999E+02  0.75729E+04
 0.17499998E+02  0.75708E+04
 0.17549999E+02  0.75668E+04
 0.17599998E+02  0.75698E+04
 0.17650000E+02  0.75700E+04
 0.17699999E+02  0.75642E+04
 0.17749998E+02  0.75636E+04
 0.17799999E+02  0.75637E+04
 0.17849998E+02  0.75669E+04
 0.17900000E+02  0.75672E+04
 0.17949999E+02  0.75665E+04
 0.17999998E+02  0.75725E+04
 0.18049999E+02  0.75760E+04
 0.18099998E+02  0.75789E+04
 0.18150000E+02  0.75818E+04
 0.18199999E+02  0.75855E+04
 0.18249998E+02  0.75899E+04
 0.18299999E+02  0.75931E+04
 0.18349998E+02  0.75891E+04
 0.18400000E+02  0.75870E+04
 0.18449999E+02  0.75889E+04
 0.18499998E+02  0.75858E+04
 0.18549999E+02  0.75651E+04
 0.18599998E+02  0.75545E+04
 0.18650000E+02  0.75546E+04
 0.18699999E+02  0.75557E+04
 0.18749998E+02  0.75529E+04
 0.18799999E+02  0.75788E+04
 0.18849998E+02  0.75674E+04
 0.18900000E+02  0.75384E+04
 0.18949999E+02  0.75315E+04
 0.18999998E+02  0.74929E+04
 0.19049999E+02  0.75518E+04
 0.19099998E+02  0.76487E+04
 0.19150000E+02  0.77634E+04
 0.19199999E+02  0.75937E+04
 0.19249998E+02  0.75898E+04
 0.19299999E+02  0.80003E+04
 0.19349998E+02  0.80438E+04
 0.19400000E+02  0.77878E+04
 0.19449999E+02  0.73539E+04
 0.19499998E+02  0.68477E+04
 0.19549999E+02  0.70718E+04
 0.19599998E+02  0.75721E+04
 0.19650000E+02  0.71631E+04
 0.19699999E+02  0.71480E+04
 0.19749998E+02  0.77611E+04
 0.19799999E+02  0.82885E+04
 0.19849998E+02  0.94543E+04
 0.19900000E+02  0.96095E+04
 0.19949999E+02  0.86734E+04
 0.19999998E+02  0.84889E+04
 0.20049999E+02  0.71331E+04
 0.20099998E+02  0.56296E+04
 0.20150000E+02  0.45035E+04
 0.20199999E+02  0.52908E+04
 0.20249998E+02  0.68877E+04
 0.20299999E+02  0.71683E+04
 0.20349998E+02  0.72436E+04
 0.20399998E+02  0.70852E+04
 0.20449999E+02  0.84369E+04
 0.20499998E+02  0.85196E+04
 0.20549999E+02  0.81778E+04
 0.20599998E+02  0.10134E+05
 0.20649998E+02  0.92628E+04
 0.20699999E+02  0.88440E+04
 0.20749998E+02  0.79500E+04
 0.20799999E+02  0.44462E+04
 0.20849998E+02  0.50630E+04
 0.20899998E+02  0.41966E+04
 0.20949999E+02  0.79033E+04
 0.20999998E+02  0.10448E+05
 0.21049999E+02  0.98913E+04
 0.21099998E+02  0.62104E+04
 0.21149998E+02  0.63070E+04
 0.21199999E+02  0.10507E+05
 0.21249998E+02  0.72376E+04
 0.21299999E+02  0.10786E+05
 0.21349998E+02  0.10466E+05
 0.21399998E+02  0.79908E+04
 0.21449999E+02  0.52872E+04
 0.21499998E+02  0.54505E+04
 0.21549999E+02  0.70345E+04
 0.21599998E+02  0.63307E+04
 0.21649998E+02  0.79195E+04
 0.21699999E+02  0.41239E+04
 0.21749998E+02  0.29786E+04
 0.21799999E+02  0.56132E+04
 0.21849998E+02  0.78095E+04
 0.21899998E+02  0.10157E+05
 0.21949999E+02  0.89594E+04
 0.21999998E+02  0.10184E+05
 0.22049999E+02  0.11017E+05
 0.22099998E+02  0.82698E+04
 0.22149998E+02  0.98100E+04
 0.22199999E+02  0.93457E+04
 0.22249998E+02  0.64365E+04
 0.22299999E+02  0.42265E+04
 0.22349998E+02  0.64299E+04
 0.22399998E+02  0.75074E+04
 0.22449999E+02  0.50346E+04
 0.22499998E+02  0.61080E+04
 0.22549999E+02  0.77575E+04
 0.22599998E+02  0.80708E+04
 0.22649998E+02  0.75913E+04
 0.22699999E+02  0.75839E+04
 0.22749998E+02  0.11323E+05
 0.22799999E+02  0.10401E+05
 0.22849998E+02  0.85086E+04
 0.22899998E+02  0.73138E+04
 0.22949999E+02  0.29459E+04
 0.22999998E+02  0.69594E+04
 0.23049999E+02  0.59621E+04
 0.23099998E+02  0.88856E+04
 0.23149998E+02  0.80652E+04
 0.23199999E+02  0.59252E+04
 0.23249998E+02  0.85921E+04
 0.23299999E+02  0.73718E+04
 0.23349998E+02  0.84226E+04
 0.23399998E+02  0.46905E+04
 0.23449999E+02  0.10858E+05
 0.23499998E+02  0.10891E+05
 0.23549999E+02  0.99460E+04
 0.23599998E+02  0.56749E+04
 0.23649998E+02  0.23806E+04
 0.23699999E+02  0.58067E+04
 0.23749998E+02  0.69652E+04
 0.23799999E+02  0.12446E+05
 0.23849998E+02  0.75147E+04
 0.23899998E+02  0.40845E+04
 0.23949999E+02  0.49918E+04
 0.23999998E+02  0.63473E+04
 0.24049999E+02  0.11398E+05
 0.24099998E+02  0.97679E+04
 0.24149998E+02  0.72175E+04
 0.24199999E+02  0.87873E+04
 0.24249998E+02  0.71577E+04
 0.24299999E+02  0.53410E+04
 0.24349998E+02  0.69686E+04
 0.24399998E+02  0.89011E+04
 0.24449999E+02  0.74016E+04
 0.24499998E+02  0.67674E+04
 0.24549999E+02  0.57165E+04
 0.24599998E+02  0.59485E+04
 0.24649998E+02  0.81885E+04
 0.24699999E+02  0.10044E+05
 0.24749998E+02  0.98768E+04
 0.24799999E+02  0.88246E+04
 0.24849998E+02  0.98570E+04
 0.24899998E+02  0.64762E+04
 0.24949999E+02  0.53327E+04
 0.24999998E+02  0.90980E+04
 0.25049999E+02  0.63378E+04
 0.25099998E+02  0.75549E+04
 0.25149998E+02  0.88219E+04
 0.25199999E+02  0.74388E+04
 0.25249998E+02  0.71275E+04
 0.25299999E+02  0.69923E+04
 0.25349998E+02  0.85926E+04
 0.25399998E+02  0.93849E+04
 0.25449999E+02  0.75596E+04
 0.25499998E+02  0.58161E+04
 0.25549999E+02  0.80810E+04
 0.25599998E+02  0.44275E+04
 0.25649998E+02  0.10577E+05
 0.25699999E+02  0.10408E+05
 0.25749998E+02  0.62138E+04
 0.25799999E+02  0.70222E+04
 0.25849998E+02  0.57690E+04
 0.25899998E+02  0.65143E+04
 0.25949999E+02  0.48636E+04
 0.25999998E+02  0.78715E+04
 0.26049999E+02  0.82826E+04
 0.26099998E+02  0.87076E+04
 0.26149998E+02  0.75069E+04
 0.26199999E+02  0.96367E+04
 0.26249998E+02  0.81784E+04
 0.26299999E+02  0.88786E+04
 0.26349998E+02  0.89510E+04
 0.26399998E+02  0.69112E+04
 0.26449999E+02  0.86667E+04
 0.26499998E+02  0.43035E+04
 0.26549999E+02  0.10340E+05
 0.26599998E+02  0.77170E+04
 0.26649998E+02  0.27209E+04
 0.26699999E+02  0.56064E+04
 0.26749998E+02  0.49045E+04
 0.26799999E+02  0.96367E+04
 0.26849998E+02  0.86077E+04
 0.26899998E+02  0.88970E+04
 0.26949999E+02  0.10308E+05
 0.26999998E+02  0.83401E+04
 0.27049997E+02  0.71343E+04
 0.27099998E+02  0.63713E+04
 0.27149998E+02  0.61617E+04
 0.27199999E+02  0.57879E+04
 0.27249998E+02  0.10423E+05
 0.27299997E+02  0.78491E+04
 0.27349998E+02  0.41568E+04
 0.27399998E+02  0.68434E+04
 0.27449999E+02  0.97949E+04
 0.27499998E+02  0.89241E+04
 0.27549997E+02  0.66146E+04
 0.27599998E+02  0.65171E+04
 0.27649998E+02  0.75816E+04
 0.27699999E+02  0.66341E+04
 0.27749998E+02  0.80149E+04
 0.27799997E+02  0.92067E+04
 0.27849998E+02  0.96043E+04
 0.27899998E+02  0.10514E+05
 0.27949999E+02  0.55252E+04
 0.27999998E+02  0.63836E+04
 0.28049997E+02  0.63449E+04
 0.28099998E+02  0.54344E+04
 0.28149998E+02  0.65432E+04
 0.28199999E+02  0.76643E+04
 0.28249998E+02  0.88554E+04
 0.28299997E+02  0.73878E+04
 0.28349998E+02  0.61739E+04
 0.28399998E+02  0.78160E+04
 0.28449999E+02  0.91171E+04
 0.28499998E+02  0.77848E+04
 0.28549997E+02  0.82132E+04
 0.28599998E+02  0.87460E+04
 0.28649998E+02  0.91731E+04
 0.28699999E+02  0.61093E+04
 0.28749998E+02  0.68572E+04
 0.28799997E+02  0.67441E+04
 0.28849998E+02  0.62517E+04
 0.28899998E+02  0.94110E+04
 0.28949999E+02  0.87052E+04
 0.28999998E+02  0.92141E+04
 0.29049997E+02  0.65893E+04
 0.29099998E+02  0.69623E+04
 0.29149998E+02  0.83829E+04
 0.29199999E+02  0.71308E+04
 0.29249998E+02  0.63120E+04
 0.29299997E+02  0.69194E+04
 0.29349998E+02  0.93321E+04
 0.29399998E+02  0.83104E+04
 0.29449999E+02  0.62989E+04
 0.29499998E+02  0.51256E+04
 0.29549997E+02  0.67191E+04
 0.29599998E+02  0.68945E+04
 0.29649998E+02  0.86080E+04
 0.29699999E+02  0.93761E+04
 0.29749998E+02  0.65449E+04
 0.29799997E+02  0.88307E+04
 0.29849998E+02  0.79230E+04
 0.29899998E+02  0.73105E+04
 0.29949999E+02  0.78765E+04
 0.29999998E+02  0.71637E+04
 0.30049999E+02  0.84182E+04
 0.30099998E+02  0.80427E+04
 0.30149998E+02  0.67294E+04
 0.30199997E+02  0.56985E+04
 0.30249996E+02  0.71162E+04
 0.30299999E+02  0.83887E+04
 0.30349998E+02  0.95107E+04
 0.30399998E+02  0.86620E+04
 0.30449997E+02  0.73687E+04
 0.30499996E+02  0.62914E+04
 0.30549999E+02  0.61385E+04
 0.30599998E+02  0.76373E+04
 0.30649998E+02  0.78803E+04
 0.30699997E+02  0.83525E+04
 0.30749996E+02  0.79016E+04
 0.30799999E+02  0.90894E+04
 0.30849998E+02  0.83998E+04
 0.30899998E+02  0.62757E+04
 0.30949997E+02  0.76411E+04
 0.30999996E+02  0.66018E+04
 0.31049999E+02  0.92559E+04
 0.31099998E+02  0.97636E+04
 0.31149998E+02  0.59314E+04
 0.31199997E+02  0.42581E+04
 0.31249996E+02  0.32959E+04
 0.31299999E+02  0.74792E+04
 0.31349998E+02  0.10228E+05
 0.31399998E+02  0.10075E+05
 0.31449997E+02  0.91349E+04
 0.31499996E+02  0.75838E+04
 0.31549999E+02  0.62168E+04
 0.31599998E+02  0.99865E+04
 0.31649998E+02  0.87560E+04
 0.31699997E+02  0.57621E+04
 0.31749996E+02  0.74214E+04
 0.31799999E+02  0.52293E+04
 0.31849998E+02  0.57646E+04
 0.31899998E+02  0.62320E+04
 0.31949997E+02  0.76342E+04
 0.31999996E+02  0.92187E+04
 0.32049999E+02  0.69798E+04
 0.32099998E+02  0.81880E+04
 0.32149998E+02  0.10013E+05
 0.32199997E+02  0.97189E+04
 0.32249996E+02  0.95377E+04
 0.32299999E+02  0.78564E+04
 0.32349998E+02  0.67601E+04
 0.32399998E+02  0.43796E+04
 0.32449997E+02  0.81897E+04
 0.32499996E+02  0.73187E+04
 0.32549999E+02  0.45364E+04
 0.32599998E+02  0.64749E+04
 0.32649998E+02  0.53028E+04
 0.32699997E+02  0.91816E+04
 0.32749996E+02  0.10634E+05
 0.32799999E+02  0.88852E+04
 0.32849998E+02  0.66492E+04
 0.32899998E+02  0.79284E+04
 0.32949997E+02  0.72526E+04
 0.32999996E+02  0.76317E+04
 0.33049999E+02  0.82551E+04
 0.33099998E+02  0.34204E+04
 0.33149998E+02  0.43976E+04
 0.33199997E+02  0.92844E+04
 0.33249996E+02  0.10375E+05
 0.33299999E+02  0.50586E+04
 0.33349998E+02  0.66271E+04
 0.33399998E+02  0.73372E+04
 0.33449997E+02  0.39339E+04
 0.33499996E+02  0.52139E+04
 0.33549999E+02  0.50912E+04
 0.33599998E+02  0.12039E+05
 0.33649998E+02  0.12370E+05
 0.33699997E+02  0.64397E+04
 0.33749996E+02  0.11798E+05
 0.33799999E+02  0.15391E+05
 0.33849998E+02  0.94792E+04
 0.33899998E+02  0.57822E+04
 0.33949997E+02  0.87499E+04
 0.33999996E+02  0.99866E+04
 0.34049999E+02  0.83504E+04
 0.34099998E+02  0.51465E+04
 0.34149998E+02  0.36139E+04
 0.34199997E+02  0.74651E+04
 0.34249996E+02  0.11014E+05
 0.34299999E+02  0.63051E+04
 0.34349998E+02  0.81704E+04
 0.34399998E+02  0.88947E+04
 0.34449997E+02  0.28067E+04
 0.34499996E+02  0.95624E+03
 0.34549999E+02  0.28101E+04
 0.34599998E+02  0.66014E+04
 0.34649998E+02  0.89101E+04
 0.34699997E+02  0.70537E+04
 0.34749996E+02  0.71573E+04
 0.34799999E+02  0.15505E+05
 0.34849998E+02  0.16252E+05
 0.34899998E+02  0.14358E+05
 0.34949997E+02  0.76502E+04
 0.34999996E+02  0.11060E+04
 0.35049999E+02  0.59329E+04
 0.35099998E+02  0.76759E+04
 0.35149998E+02  0.52684E+04
 0.35199997E+02  0.79323E+04
 0.35249996E+02  0.10888E+05
 0.35299999E+02  0.92522E+04
 0.35349998E+02  0.98325E+03
 0.35399998E+02 -0.31484E+03
 0.35449997E+02  0.46124E+04
 0.35499996E+02  0.96963E+04
 0.35549999E+02  0.15630E+05
 0.35599998E+02  0.92083E+04
 0.35649998E+02  0.91629E+04
 0.35699997E+02  0.71376E+04
 0.35749996E+02  0.42267E+04
 0.35799999E+02  0.68184E+04
 0.35849998E+02  0.85114E+04
 0.35899998E+02  0.10777E+05
 0.35949997E+02  0.10356E+05
 0.35999996E+02  0.10396E+05
 0.36049999E+02  0.44758E+04
 0.36099998E+02  0.61218E+04
 0.36149998E+02  0.96497E+04
 0.36199997E+02  0.74988E+04
 0.36249996E+02  0.29268E+04
 0.36299999E+02  0.73756E+04
 0.36349998E+02  0.10453E+05
 0.36399998E+02  0.33630E+04
 0.36449997E+02  0.66585E+04
 0.36499996E+02  0.86109E+04
 0.36549999E+02  0.93355E+04
 0.36599998E+02  0.51480E+04
 0.36649998E+02  0.74552E+03
 0.36699997E+02  0.67307E+04
 0.36749996E+02  0.14341E+05
 0.36799999E+02  0.13049E+05
 0.36849998E+02  0.75875E+04
 0.36899998E+02  0.84542E+04
 0.36949997E+02  0.90188E+04
 0.36999996E+02  0.13537E+05
 0.37049999E+02  0.11562E+05
 0.37099998E+02  0.59233E+04
 0.37149998E+02  0.84206E+04
 0.37199997E+02  0.49412E+04
 0.37249996E+02  0.34180E+04
 0.37299999E+02  0.10872E+05
 0.37349998E+02  0.11477E+05
 0.37399998E+02  0.37228E+04
 0.37449997E+02  0.30269E+04
 0.37499996E+02  0.40528E+04
 0.37549999E+02  0.17872E+04
 0.37599998E+02  0.48140E+04
 0.37649998E+02  0.84617E+04
 0.37699997E+02  0.91925E+04
 0.37749996E+02  0.81822E+04
 0.37799999E+02  0.80886E+04
 0.37849998E+02  0.10692E+05
 0.37899998E+02  0.11131E+05
 0.37949997E+02  0.96854E+04
 0.37999996E+02  0.96152E+04
 0.38049999E+02  0.82378E+04
 0.38099998E+02  0.58192E+04
 0.38149998E+02  0.38178E+04
 0.38199997E+02  0.77955E+04
 0.38249996E+02  0.10481E+05
 0.38299999E+02  0.65105E+04
 0.38349998E+02  0.37968E+04
 0.38399998E+02  0.21067E+04
 0.38449997E+02  0.57868E+04
 0.38499996E+02  0.87114E+04
 0.38549999E+02  0.56669E+04
 0.38599998E+02  0.54821E+04
 0.38649998E+02  0.78629E+04
 0.38699997E+02  0.10526E+05
 0.38749996E+02  0.10583E+05
 0.38799999E+02  0.10552E+05
 0.38849998E+02  0.93610E+04
 0.38899998E+02  0.66756E+04
 0.38949997E+02  0.29296E+04
 0.38999996E+02  0.14722E+04
 0.39049999E+02  0.76312E+04
 0.39099998E+02  0.93680E+04
 0.39149998E+02  0.69196E+04
 0.39199997E+02  0.60099E+04
 0.39249996E+02  0.74462E+04
 0.39299999E+02  0.80183E+04
 0.39349998E+02  0.53984E+04
 0.39399998E+02  0.49178E+04
 0.39449997E+02  0.72338E+04
 0.39499996E+02  0.71411E+04
 0.39549999E+02  0.86905E+04
 0.39599998E+02  0.92152E+04
 0.39649998E+02  0.51617E+04
 0.39699997E+02  0.45699E+04
 0.39749996E+02  0.10563E+05
 0.39799999E+02  0.94477E+04
 0.39849998E+02  0.41478E+04
 0.39899998E+02  0.10162E+05
 0.39949997E+02  0.13286E+05
 0.39999996E+02  0.10133E+05
 0.40049999E+02  0.72036E+04
 0.40099998E+02  0.66798E+04
 0.40149998E+02  0.75353E+04
 0.40199997E+02  0.44042E+04
 0.40249996E+02  0.47251E+04
 0.40299999E+02  0.83565E+04
 0.40349998E+02  0.89216E+04
 0.40399998E+02  0.10035E+05
 0.40449997E+02  0.10539E+05
 0.40499996E+02  0.86685E+04
 0.40549999E+02  0.70577E+04
 0.40599998E+02  0.33635E+04
 0.40649998E+02  0.37578E+04
 0.40699997E+02  0.76199E+04
 0.40749996E+02  0.63464E+04
 0.40799999E+02  0.51322E+04
 0.40849998E+02  0.73083E+04
 0.40899998E+02  0.90335E+04
 0.40949997E+02  0.80709E+04
 0.40999996E+02  0.91245E+04
 0.41049999E+02  0.92673E+04
 0.41099998E+02  0.84351E+04
 0.41149998E+02  0.71044E+04
 0.41199997E+02  0.64577E+04
 0.41249996E+02  0.79472E+04
 0.41299999E+02  0.87956E+04
 0.41349998E+02  0.86521E+04
 0.41399998E+02  0.63156E+04
 0.41449997E+02  0.53783E+04
 0.41499996E+02  0.70510E+04
 0.41549999E+02  0.89887E+04
 0.41599998E+02  0.88596E+04
 0.41649998E+02  0.70938E+04
 0.41699997E+02  0.80285E+04
 0.41749996E+02  0.10021E+05
 0.41799999E+02  0.10473E+05
 0.41849998E+02  0.84701E+04
 0.41899998E+02  0.69916E+04
 0.41949997E+02  0.76771E+04
 0.41999996E+02  0.47640E+04
 0.42049999E+02  0.50874E+04
 0.42099998E+02  0.81620E+04
 0.42149998E+02  0.77882E+04
 0.42199997E+02  0.79397E+04
 0.42249996E+02  0.72528E+04
 0.42299999E+02  0.54641E+04
 0.42349998E+02  0.54847E+04
 0.42399998E+02  0.72507E+04
 0.42449997E+02  0.82185E+04
 0.42499996E+02  0.97401E+04
 0.42549999E+02  0.10813E+05
 0.42599998E+02  0.11045E+05
 0.42649998E+02  0.11009E+05
 0.42699997E+02  0.89146E+04
 0.42749996E+02  0.83627E+04
 0.42799995E+02  0.92009E+04
 0.42849998E+02  0.88456E+04
 0.42899998E+02  0.76912E+04
 0.42949997E+02  0.73923E+04
 0.42999996E+02  0.69815E+04
 0.43049995E+02  0.81395E+04
 0.43099998E+02  0.83428E+04
 0.43149998E+02  0.85011E+04
 0.43199997E+02  0.11144E+05
 0.43249996E+02  0.86902E+04
 0.43299995E+02  0.50882E+04
 0.43349998E+02  0.54895E+04
 0.43399998E+02  0.64500E+04
 0.43449997E+02  0.77950E+04
 0.43499996E+02  0.82297E+04
 0.43549995E+02  0.62787E+04
 0.43599998E+02  0.42981E+04
 0.43649998E+02  0.45305E+04
 0.43699997E+02  0.57780E+04
 0.43749996E+02  0.75117E+04
 0.43799995E+02  0.76794E+04
 0.43849998E+02  0.85163E+04
 0.43899998E+02  0.86074E+04
 0.43949997E+02  0.73166E+04
 0.43999996E+02  0.85229E+04
 0.44049995E+02  0.89694E+04
 0.44099998E+02  0.88046E+04
 0.44149998E+02  0.77880E+04
 0.44199997E+02  0.72655E+04
 0.44249996E+02  0.61612E+04
 0.44299995E+02  0.45120E+04
 0.44349998E+02  0.55760E+04
 0.44399998E+02  0.76863E+04
 0.44449997E+02  0.78528E+04
 0.44499996E+02  0.71253E+04
 0.44549995E+02  0.84343E+04
 0.44599998E+02  0.83422E+04
 0.44649998E+02  0.67958E+04
 0.44699997E+02  0.62963E+04
 0.44749996E+02  0.56015E+04
 0.44799995E+02  0.59945E+04
 0.44849998E+02  0.80943E+04
 0.44899998E+02  0.87723E+04
 0.44949997E+02  0.73789E+04
 0.44999996E+02  0.71632E+04
 0.45049995E+02  0.63906E+04
 0.45099998E+02  0.64026E+04
 0.45149998E+02  0.72170E+04
 0.45199997E+02  0.61458E+04
 0.45249996E+02  0.58183E+04
 0.45299995E+02  0.67137E+04
 0.45349998E+02  0.93569E+04
 0.45399998E+02  0.96126E+04
 0.45449997E+02  0.78211E+04
 0.45499996E+02  0.94855E+04
 0.45549995E+02  0.86233E+04
 0.45599998E+02  0.85776E+04
 0.45649998E+02  0.91426E+04
 0.45699997E+02  0.77399E+04
 0.45749996E+02  0.94788E+04
 0.45799995E+02  0.87000E+04
 0.45849998E+02  0.66542E+04
 0.45899998E+02  0.64938E+04
 0.45949997E+02  0.66046E+04
 0.45999996E+02  0.69183E+04
 0.46049995E+02  0.75995E+04
 0.46099998E+02  0.72971E+04
 0.46149998E+02  0.69462E+04
 0.46199997E+02  0.86830E+04
 0.46249996E+02  0.96871E+04
 0.46299995E+02  0.93384E+04
 0.46349998E+02  0.78517E+04
 0.46399998E+02  0.74610E+04
 0.46449997E+02  0.83080E+04
 0.46499996E+02  0.61254E+04
 0.46549995E+02  0.61533E+04
 0.46599998E+02  0.75054E+04
 0.46649998E+02  0.76942E+04
 0.46699997E+02  0.75434E+04
 0.46749996E+02  0.64067E+04
 0.46799995E+02  0.76592E+04
 0.46849998E+02  0.83064E+04
 0.46899998E+02  0.72722E+04
 0.46949997E+02  0.74536E+04
 0.46999996E+02  0.85835E+04
 0.47049995E+02  0.90573E+04
 0.47099998E+02  0.91652E+04
 0.47149998E+02  0.87818E+04
 0.47199997E+02  0.78483E+04
 0.47249996E+02  0.81846E+04
 0.47299995E+02  0.75658E+04
 0.47349998E+02  0.68203E+04
 0.47399998E+02  0.69215E+04
 0.47449997E+02  0.65042E+04
 0.47499996E+02  0.54472E+04
 0.47549995E+02  0.40811E+04
 0.47599998E+02  0.52471E+04
 0.47649998E+02  0.69233E+04
 0.47699997E+02  0.72231E+04
 0.47749996E+02  0.78666E+04
 0.47799995E+02  0.87028E+04
 0.47849998E+02  0.78854E+04
 0.47899998E+02  0.77179E+04
 0.47949997E+02  0.90527E+04
 0.47999996E+02  0.90508E+04
 0.48049995E+02  0.83083E+04
 0.48099998E+02  0.80904E+04
 0.48149998E+02  0.77339E+04
 0.48199997E+02  0.75380E+04
 0.48249996E+02  0.81416E+04
 0.48299995E+02  0.87208E+04
 0.48349998E+02  0.96233E+04
 0.48399998E+02  0.88985E+04
 0.48449997E+02  0.76414E+04
 0.48499996E+02  0.79952E+04
 0.48549995E+02  0.83675E+04
 0.48599998E+02  0.86992E+04
 0.48649998E+02  0.74218E+04
 0.48699997E+02  0.68743E+04
 0.48749996E+02  0.78052E+04
 0.48799995E+02  0.86367E+04
 0.48849998E+02  0.83750E+04
 0.48899998E+02  0.76093E+04
 0.48949997E+02  0.76361E+04
 0.48999996E+02  0.68067E+04
 0.49049995E+02  0.68565E+04
 0.49099998E+02  0.73810E+04
 0.49149998E+02  0.78533E+04
 0.49199997E+02  0.74005E+04
 0.49249996E+02  0.65081E+04
 0.49299995E+02  0.68641E+04
 0.49349998E+02  0.70810E+04
 0.49399998E+02  0.75916E+04
 0.49449997E+02  0.79253E+04
 0.49499996E+02  0.81251E+04
 0.49549995E+02  0.74362E+04
 0.49599998E+02  0.57620E+04
 0.49649998E+02  0.58658E+04
 0.49699997E+02  0.67666E+04
 0.49749996E+02  0.74727E+04
 0.49799995E+02  0.78142E+04
 0.49849998E+02  0.91577E+04
 0.49899998E+02  0.93265E+04
 0.49949997E+02  0.70204E+04
 0.49999996E+02  0.59015E+04
 0.50049995E+02  0.57843E+04
 0.50099998E+02  0.59502E+04
 0.50149998E+02  0.59736E+04
 0.50199997E+02  0.68522E+04
 0.50249996E+02  0.70732E+04
 0.50299995E+02  0.62988E+04
 0.50349998E+02  0.61975E+04
 0.50399998E+02  0.64945E+04
 0.50449997E+02  0.66894E+04
 0.50499996E+02  0.77909E+04
 0.50549995E+02  0.92857E+04
 0.50599998E+02  0.84760E+04
 0.50649998E+02  0.84254E+04
 0.50699997E+02  0.82375E+04
 0.50749996E+02  0.77238E+04
 0.50799995E+02  0.77224E+04
 0.50849998E+02  0.79941E+04
 0.50899998E+02  0.85488E+04
 0.50949997E+02  0.79330E+04
 0.50999996E+02  0.76504E+04
 0.51049995E+02  0.72213E+04
 0.51099998E+02  0.71563E+04
 0.51149998E+02  0.71123E+04
 0.51199997E+02  0.68293E+04
 0.51249996E+02  0.70016E+04
 0.51299995E+02  0.78395E+04
 0.51349998E+02  0.85011E+04
 0.51399998E+02  0.87273E+04
 0.51449997E+02  0.88965E+04
 0.51499996E+02  0.85717E+04
 0.51549995E+02  0.83404E+04
 0.51599998E+02  0.74924E+04
 0.51649998E+02  0.62250E+04
 0.51699997E+02  0.56668E+04
 0.51749996E+02  0.55331E+04
 0.51799995E+02  0.63528E+04
 0.51849998E+02  0.71183E+04
 0.51899998E+02  0.75609E+04
 0.51949997E+02  0.77845E+04
 0.51999996E+02  0.78552E+04
 0.52049995E+02  0.85264E+04
 0.52099998E+02  0.84839E+04
 0.52149998E+02  0.83555E+04
 0.52199997E+02  0.86548E+04
 0.52249996E+02  0.82758E+04
 0.52299995E+02  0.78841E+04
 0.52349998E+02  0.84162E+04
 0.52399998E+02  0.92950E+04
 0.52449997E+02  0.93300E+04
 0.52499996E+02  0.82458E+04
 0.52549995E+02  0.77290E+04
 0.52599998E+02  0.76368E+04
 0.52649998E+02  0.78532E+04
 0.52699997E+02  0.75385E+04
 0.52749996E+02  0.79737E+04
 0.52799995E+02  0.81769E+04
 0.52849998E+02  0.76126E+04
 0.52899998E+02  0.75894E+04
 0.52949997E+02  0.71755E+04
 0.52999996E+02  0.70940E+04
 0.53049995E+02  0.71532E+04
 0.53099998E+02  0.73312E+04
 0.53149998E+02  0.71573E+04
 0.53199997E+02  0.70174E+04
 0.53249996E+02  0.73069E+04
 0.53299995E+02  0.84826E+04
 0.53349998E+02  0.84984E+04
 0.53399998E+02  0.75979E+04
 0.53449997E+02  0.68986E+04
 0.53499996E+02  0.65160E+04
 0.53549995E+02  0.60687E+04
 0.53599998E+02  0.53506E+04
 0.53649998E+02  0.54366E+04
 0.53699997E+02  0.60378E+04
 0.53749996E+02  0.67361E+04
 0.53799995E+02  0.73287E+04
 0.53849998E+02  0.78287E+04
 0.53899998E+02  0.75396E+04
 0.53949997E+02  0.71914E+04
 0.53999996E+02  0.75249E+04
 0.54049995E+02  0.85495E+04
 0.54099998E+02  0.90042E+04
 0.54149998E+02  0.87851E+04
 0.54199997E+02  0.81814E+04
 0.54249996E+02  0.74908E+04
 0.54299995E+02  0.76195E+04
 0.54349998E+02  0.76106E+04
 0.54399998E+02  0.72571E+04
 0.54449997E+02  0.69891E+04
 0.54499996E+02  0.70290E+04
 0.54549995E+02  0.72171E+04
 0.54599998E+02  0.74789E+04
 0.54649998E+02  0.76994E+04
 0.54699997E+02  0.79752E+04
 0.54749996E+02  0.81238E+04
 0.54799995E+02  0.83015E+04
 0.54849998E+02  0.79175E+04
 0.54899998E+02  0.72725E+04
 0.54949997E+02  0.77849E+04
 0.54999996E+02  0.70519E+04
 0.55049995E+02  0.74758E+04
 0.55099998E+02  0.78420E+04
 0.55149998E+02  0.70469E+04
 0.55199997E+02  0.74471E+04
 0.55249996E+02  0.75730E+04
 0.55299995E+02  0.77934E+04
 0.55349998E+02  0.74561E+04
 0.55399998E+02  0.74378E+04
 0.55449997E+02  0.75535E+04
 0.55499996E+02  0.74168E+04
 0.55549995E+02  0.77532E+04
 0.55599998E+02  0.86160E+04
 0.55649998E+02  0.87667E+04
 0.55699997E+02  0.80877E+04
 0.55749996E+02  0.82084E+04
 0.55799995E+02  0.86207E+04
 0.55849995E+02  0.84655E+04
 0.55899998E+02  0.75327E+04
 0.55949997E+02  0.73686E+04
 0.55999996E+02  0.67978E+04
 0.56049995E+02  0.64562E+04
 0.56099995E+02  0.72532E+04
 0.56149998E+02  0.76407E+04
 0.56199997E+02  0.80702E+04
 0.56249996E+02  0.78357E+04
 0.56299995E+02  0.79925E+04
 0.56349995E+02  0.74904E+04
 0.56399998E+02  0.68757E+04
 0.56449997E+02  0.71383E+04
 0.56499996E+02  0.71500E+04
 0.56549995E+02  0.73484E+04
 0.56599995E+02  0.71176E+04
 0.56649998E+02  0.71103E+04
 0.56699997E+02  0.77543E+04
 0.56749996E+02  0.79314E+04
 0.56799995E+02  0.81416E+04
 0.56849995E+02  0.83465E+04
 0.56899998E+02  0.80504E+04
 0.56949997E+02  0.79767E+04
 0.56999996E+02  0.74739E+04
 0.57049995E+02  0.74552E+04
 0.57099995E+02  0.76837E+04
 0.57149998E+02  0.72153E+04
 0.57199997E+02  0.68459E+04
 0.57249996E+02  0.66242E+04
 0.57299995E+02  0.68909E+04
 0.57349995E+02  0.74137E+04
 0.57399998E+02  0.74589E+04
 0.57449997E+02  0.76221E+04
 0.57499996E+02  0.77712E+04
 0.57549995E+02  0.78221E+04
 0.57599995E+02  0.77548E+04
 0.57649998E+02  0.76166E+04
 0.57699997E+02  0.78342E+04
 0.57749996E+02  0.77266E+04
 0.57799995E+02  0.75281E+04
 0.57849995E+02  0.74034E+04
 0.57899998E+02  0.75297E+04
 0.57949997E+02  0.73010E+04
 0.57999996E+02  0.68544E+04
 0.58049995E+02  0.70479E+04
 0.58099995E+02  0.72835E+04
 0.58149998E+02  0.73506E+04
 0.58199997E+02  0.76634E+04
 0.58249996E+02  0.77384E+04
 0.58299995E+02  0.79217E+04
 0.58349995E+02  0.82202E+04
 0.58399998E+02  0.85200E+04
 0.58449997E+02  0.85033E+04
 0.58499996E+02  0.78973E+04
 0.58549995E+02  0.72802E+04
 0.58599995E+02  0.63187E+04
 0.58649998E+02  0.62657E+04
 0.58699997E+02  0.66077E+04
 0.58749996E+02  0.70172E+04
 0.58799995E+02  0.75308E+04
 0.58849995E+02  0.74179E+04
 0.58899998E+02  0.73294E+04
 0.58949997E+02  0.76815E+04
 0.58999996E+02  0.81083E+04
 0.59049995E+02  0.79726E+04
 0.59099995E+02  0.77109E+04
 0.59149998E+02  0.71533E+04
 0.59199997E+02  0.71615E+04
 0.59249996E+02  0.80012E+04
 0.59299995E+02  0.83515E+04
 0.59349995E+02  0.87109E+04
 0.59399998E+02  0.84264E+04
 0.59449997E+02  0.77864E+04
 0.59499996E+02  0.73357E+04
 0.59549995E+02  0.73523E+04
 0.59599995E+02  0.78111E+04
 0.59649998E+02  0.79012E+04
 0.59699997E+02  0.78083E+04
 0.59749996E+02  0.78037E+04
 0.59799995E+02  0.78417E+04
 0.59849995E+02  0.77357E+04
 0.59899998E+02  0.78577E+04
 0.59949997E+02  0.79606E+04
 0.59999996E+02  0.81248E+04
 0.60049995E+02  0.82291E+04
 0.60099995E+02  0.80995E+04
 0.60149998E+02  0.78311E+04
 0.60199997E+02  0.79382E+04
 0.60249996E+02  0.80764E+04
 0.60299995E+02  0.79608E+04
 0.60349995E+02  0.77250E+04
 0.60399998E+02  0.73200E+04
 0.60449997E+02  0.70415E+04
 0.60499996E+02  0.69689E+04
 0.60549995E+02  0.68959E+04
 0.60599995E+02  0.68243E+04
 0.60649998E+02  0.67780E+04
 0.60699997E+02  0.67065E+04
 0.60749996E+02  0.67495E+04
 0.60799995E+02  0.68417E+04
 0.60849995E+02  0.72699E+04
 0.60899998E+02  0.76409E+04
 0.60949997E+02  0.78697E+04
 0.60999996E+02  0.79548E+04
 0.61049995E+02  0.76310E+04
 0.61099995E+02  0.72051E+04
 0.61149998E+02  0.68002E+04
 0.61199997E+02  0.65792E+04
 0.61249996E+02  0.68580E+04
 0.61299995E+02  0.69285E+04
 0.61349995E+02  0.69342E+04
 0.61399998E+02  0.73782E+04
 0.61449997E+02  0.78764E+04
 0.61499996E+02  0.81749E+04
 0.61549995E+02  0.78746E+04
 0.61599995E+02  0.76282E+04
 0.61649998E+02  0.75163E+04
 0.61699997E+02  0.75758E+04
 0.61749996E+02  0.79163E+04
 0.61799995E+02  0.80005E+04
 0.61849995E+02  0.77266E+04
 0.61899998E+02  0.73288E+04
 0.61949997E+02  0.72566E+04
 0.61999996E+02  0.75406E+04
 0.62049995E+02  0.76330E+04
 0.62099998E+02  0.73918E+04
 0.62149994E+02  0.74385E+04
 0.62199997E+02  0.77279E+04
 0.62249992E+02  0.76784E+04
 0.62299995E+02  0.78248E+04
 0.62349998E+02  0.82179E+04
 0.62399994E+02  0.83800E+04
 0.62449997E+02  0.84232E+04
 0.62499992E+02  0.83768E+04
 0.62549995E+02  0.79399E+04
 0.62599998E+02  0.70522E+04
 0.62649994E+02  0.67490E+04
 0.62699997E+02  0.68792E+04
 0.62749992E+02  0.69259E+04
 0.62799995E+02  0.69942E+04
 0.62849998E+02  0.69888E+04
 0.62899994E+02  0.72054E+04
 0.62949997E+02  0.74251E+04
 0.62999992E+02  0.74150E+04
 0.63049995E+02  0.76580E+04
 0.63099998E+02  0.80950E+04
 0.63149994E+02  0.84338E+04
 0.63199997E+02  0.86815E+04
 0.63249992E+02  0.88279E+04
 0.63299995E+02  0.89309E+04
 0.63349998E+02  0.86200E+04
 0.63399994E+02  0.79125E+04
 0.63449997E+02  0.77939E+04
 0.63499992E+02  0.79054E+04
 0.63549995E+02  0.81329E+04
 0.63599998E+02  0.84798E+04
 0.63649994E+02  0.86859E+04
 0.63699997E+02  0.86650E+04
 0.63749992E+02  0.81242E+04
 0.63799995E+02  0.73454E+04
 0.63849998E+02  0.70531E+04
 0.63899994E+02  0.72350E+04
 0.63949997E+02  0.71121E+04
 0.63999992E+02  0.73827E+04
 0.64049995E+02  0.75499E+04
 0.64099998E+02  0.73677E+04
 0.64149994E+02  0.72133E+04
 0.64199997E+02  0.69110E+04
 0.64249992E+02  0.65936E+04
 0.64299995E+02  0.67397E+04
 0.64349998E+02  0.71440E+04
 0.64399994E+02  0.69419E+04
 0.64449997E+02  0.69586E+04
 0.64499992E+02  0.70261E+04
 0.64549995E+02  0.67767E+04
 0.64599998E+02  0.66204E+04
 0.64649994E+02  0.68714E+04
 0.64699997E+02  0.70737E+04
 0.64749992E+02  0.71410E+04
 0.64799995E+02  0.74437E+04
 0.64849998E+02  0.78405E+04
 0.64899994E+02  0.80921E+04
 0.64949997E+02  0.80940E+04
 0.64999992E+02  0.83353E+04
 0.65049995E+02  0.84265E+04
 0.65099998E+02  0.81193E+04
 0.65149994E+02  0.75357E+04
 0.65199997E+02  0.70263E+04
 0.65249992E+02  0.67668E+04
 0.65299995E+02  0.68268E+04
 0.65349998E+02  0.68385E+04
 0.65399994E+02  0.66445E+04
 0.65449997E+02  0.68297E+04
 0.65499992E+02  0.71439E+04
 0.65549995E+02  0.74806E+04
 0.65599998E+02  0.77828E+04
 0.65649994E+02  0.79571E+04
 0.65699997E+02  0.79056E+04
 0.65749992E+02  0.78471E+04
 0.65799995E+02  0.76847E+04
 0.65849998E+02  0.75577E+04
 0.65899994E+02  0.76704E+04
 0.65949997E+02  0.75465E+04
 0.65999992E+02  0.75435E+04
 0.66049995E+02  0.77816E+04
 0.66099998E+02  0.81679E+04
 0.66149994E+02  0.82059E+04
 0.66199997E+02  0.79687E+04
 0.66249992E+02  0.76770E+04
 0.66299995E+02  0.75826E+04
 0.66349998E+02  0.77564E+04
 0.66399994E+02  0.80017E+04
 0.66449997E+02  0.81763E+04
 0.66499992E+02  0.81652E+04
 0.66549995E+02  0.83795E+04
 0.66599998E+02  0.83554E+04
 0.66649994E+02  0.80006E+04
 0.66699997E+02  0.78331E+04
 0.66749992E+02  0.79320E+04
 0.66799995E+02  0.79281E+04
 0.66849998E+02  0.79038E+04
 0.66899994E+02  0.78090E+04
 0.66949997E+02  0.76014E+04
 0.66999992E+02  0.74077E+04
 0.67049995E+02  0.73212E+04
 0.67099998E+02  0.71320E+04
 0.67149994E+02  0.69640E+04
 0.67199997E+02  0.72248E+04
 0.67249992E+02  0.74417E+04
 0.67299995E+02  0.75821E+04
 0.67349998E+02  0.75541E+04
 0.67399994E+02  0.74239E+04
 0.67449997E+02  0.74193E+04
 0.67499992E+02  0.73788E+04
 0.67549995E+02  0.74955E+04
 0.67599998E+02  0.74463E+04
 0.67649994E+02  0.73884E+04
 0.67699997E+02  0.77305E+04
 0.67749992E+02  0.80503E+04
 0.67799995E+02  0.78190E+04
 0.67849998E+02  0.72667E+04
 0.67899994E+02  0.70205E+04
 0.67949997E+02  0.72153E+04
 0.67999992E+02  0.75379E+04
 0.68049995E+02  0.75730E+04
 0.68099998E+02  0.76446E+04
 0.68149994E+02  0.77433E+04
 0.68199997E+02  0.76563E+04
 0.68249992E+02  0.76600E+04
 0.68299995E+02  0.77357E+04
 0.68349998E+02  0.77695E+04
 0.68399994E+02  0.78282E+04
 0.68449997E+02  0.75918E+04
 0.68499992E+02  0.73280E+04
 0.68549995E+02  0.72789E+04
 0.68599998E+02  0.72508E+04
 0.68649994E+02  0.73790E+04
 0.68699997E+02  0.74675E+04
 0.68749992E+02  0.75042E+04
 0.68799995E+02  0.71677E+04
 0.68849998E+02  0.68816E+04
 0.68899994E+02  0.69358E+04
 0.68949997E+02  0.72080E+04
 0.68999992E+02  0.76307E+04
 0.69049995E+02  0.78605E+04
 0.69099998E+02  0.78857E+04
 0.69149994E+02  0.76750E+04
 0.69199997E+02  0.74077E+04
 0.69249992E+02  0.71513E+04
 0.69299995E+02  0.73272E+04
 0.69349998E+02  0.74882E+04
 0.69399994E+02  0.75263E+04
 0.69449997E+02  0.75240E+04
 0.69499992E+02  0.74890E+04
 0.69549995E+02  0.76466E+04
 0.69599998E+02  0.76467E+04
 0.69649994E+02  0.77829E+04
 0.69699997E+02  0.78663E+04
 0.69749992E+02  0.77935E+04
 0.69799995E+02  0.76776E+04
 0.69849998E+02  0.74998E+04
 0.69899994E+02  0.74852E+04
 0.69949997E+02  0.74819E+04
 0.69999992E+02  0.74839E+04
 0.70049995E+02  0.75485E+04
 0.70099998E+02  0.73740E+04
 0.70149994E+02  0.74122E+04
 0.70199997E+02  0.76389E+04
 0.70249992E+02  0.75449E+04
 0.70299995E+02  0.77162E+04
 0.70349998E+02  0.77922E+04
 0.70399994E+02  0.76649E+04
 0.70449997E+02  0.79252E+04
 0.70499992E+02  0.82681E+04
 0.70549995E+02  0.82535E+04
 0.70599998E+02  0.80987E+04
 0.70649994E+02  0.80207E+04
 0.70699997E+02  0.79542E+04
 0.70749992E+02  0.77786E+04
 0.70799995E+02  0.74379E+04
 0.70849998E+02  0.74068E+04
 0.70899994E+02  0.75064E+04
 0.70949997E+02  0.74159E+04
 0.70999992E+02  0.72167E+04
 0.71049995E+02  0.72399E+04
 0.71099998E+02  0.76159E+04
 0.71149994E+02  0.78566E+04
 0.71199997E+02  0.77175E+04
 0.71249992E+02  0.75062E+04
 0.71299995E+02  0.74214E+04
 0.71349998E+02  0.74277E+04
 0.71399994E+02  0.72822E+04
 0.71449997E+02  0.71482E+04
 0.71499992E+02  0.71202E+04
 0.71549995E+02  0.70542E+04
 0.71599998E+02  0.71701E+04
 0.71649994E+02  0.72636E+04
 0.71699997E+02  0.72986E+04
 0.71749992E+02  0.72277E+04
 0.71799995E+02  0.71984E+04
 0.71849998E+02  0.75219E+04
 0.71899994E+02  0.79253E+04
 0.71949997E+02  0.78794E+04
 0.71999992E+02  0.76830E+04
 0.72049995E+02  0.75028E+04
 0.72099998E+02  0.73427E+04
 0.72149994E+02  0.74170E+04
 0.72199997E+02  0.74591E+04
 0.72249992E+02  0.75590E+04
 0.72299995E+02  0.77444E+04
 0.72349998E+02  0.78299E+04
 0.72399994E+02  0.78571E+04
 0.72449997E+02  0.77463E+04
 0.72499992E+02  0.77165E+04
 0.72549995E+02  0.79274E+04
 0.72599998E+02  0.80055E+04
 0.72649994E+02  0.78902E+04
 0.72699997E+02  0.76675E+04
 0.72749992E+02  0.76388E+04
 0.72799995E+02  0.76573E+04
 0.72849998E+02  0.77655E+04
 0.72899994E+02  0.78158E+04
 0.72949997E+02  0.78537E+04
 0.72999992E+02  0.79153E+04
 0.73049995E+02  0.78965E+04
 0.73099998E+02  0.79137E+04
 0.73149994E+02  0.77723E+04
 0.73199997E+02  0.78493E+04
 0.73249992E+02  0.79104E+04
 0.73299995E+02  0.77727E+04
 0.73349998E+02  0.75701E+04
 0.73399994E+02  0.75701E+04
 0.73449997E+02  0.76455E+04
 0.73499992E+02  0.76075E+04
 0.73549995E+02  0.74112E+04
 0.73599998E+02  0.72167E+04
 0.73649994E+02  0.72422E+04
 0.73699997E+02  0.74027E+04
 0.73749992E+02  0.76256E+04
 0.73799995E+02  0.76341E+04
 0.73849998E+02  0.77325E+04
 0.73899994E+02  0.79499E+04
 0.73949997E+02  0.81519E+04
 0.73999992E+02  0.83469E+04
 0.74049995E+02  0.82572E+04
 0.74099998E+02  0.77835E+04
 0.74149994E+02  0.72631E+04
 0.74199997E+02  0.70270E+04
 0.74249992E+02  0.69212E+04
 0.74299995E+02  0.68984E+04
 0.74349998E+02  0.70489E+04
 0.74399994E+02  0.72565E+04
 0.74449997E+02  0.74005E+04
 0.74499992E+02  0.73393E+04
 0.74549995E+02  0.71830E+04
 0.74599998E+02  0.72297E+04
 0.74649994E+02  0.73157E+04
 0.74699997E+02  0.74064E+04
 0.74749992E+02  0.74997E+04
 0.74799995E+02  0.74854E+04
 0.74849998E+02  0.73945E+04
 0.74899994E+02  0.71458E+04
 0.74949997E+02  0.70429E+04
 0.74999992E+02  0.70744E+04
 0.75049995E+02  0.71909E+04
 0.75099998E+02  0.74303E+04
 0.75149994E+02  0.77155E+04
 0.75199997E+02  0.78261E+04
 0.75249992E+02  0.78288E+04
 0.75299995E+02  0.78561E+04
 0.75349998E+02  0.77118E+04
 0.75399994E+02  0.77352E+04
 0.75449997E+02  0.79541E+04
 0.75499992E+02  0.79391E+04
 0.75549995E+02  0.75830E+04
 0.75599998E+02  0.73577E+04
 0.75649994E+02  0.72147E+04
 0.75699997E+02  0.71670E+04
 0.75749992E+02  0.73902E+04
 0.75799995E+02  0.76167E+04
 0.75849998E+02  0.76962E+04
 0.75899994E+02  0.75351E+04
 0.75949997E+02  0.75723E+04
 0.75999992E+02  0.77686E+04
 0.76049995E+02  0.78728E+04
 0.76099998E+02  0.78712E+04
 0.76149994E+02  0.78893E+04
 0.76199997E+02  0.79373E+04
 0.76249992E+02  0.78998E+04
 0.76299995E+02  0.78635E+04
 0.76349998E+02  0.77984E+04
 0.76399994E+02  0.77042E+04
 0.76449997E+02  0.76438E+04
 0.76499992E+02  0.76469E+04
 0.76549995E+02  0.76289E+04
 0.76599998E+02  0.75833E+04
 0.76649994E+02  0.74247E+04
 0.76699997E+02  0.74064E+04
 0.76749992E+02  0.74956E+04
 0.76799995E+02  0.75483E+04
 0.76849998E+02  0.74799E+04
 0.76899994E+02  0.74578E+04
 0.76949997E+02  0.74806E+04
 0.76999992E+02  0.74981E+04
 0.77049995E+02  0.76226E+04
 0.77099998E+02  0.77341E+04
 0.77149994E+02  0.78257E+04
 0.77199997E+02  0.77817E+04
 0.77249992E+02  0.78058E+04
 0.77299995E+02  0.78108E+04
 0.77349998E+02  0.76440E+04
 0.77399994E+02  0.75205E+04
 0.77449997E+02  0.74914E+04
 0.77499992E+02  0.75634E+04
 0.77549995E+02  0.75209E+04
 0.77599998E+02  0.74916E+04
 0.77649994E+02  0.75622E+04
 0.77699997E+02  0.76164E+04
 0.77749992E+02  0.77125E+04
 0.77799995E+02  0.76305E+04
 0.77849998E+02  0.75260E+04
 0.77899994E+02  0.74594E+04
 0.77949997E+02  0.74390E+04
 0.77999992E+02  0.74751E+04
 0.78049995E+02  0.74817E+04
 0.78099998E+02  0.73679E+04
 0.78149994E+02  0.73490E+04
 0.78199997E+02  0.73358E+04
 0.78249992E+02  0.72574E+04
 0.78299995E+02  0.72014E+04
 0.78349998E+02  0.71934E+04
 0.78399994E+02  0.73438E+04
 0.78449997E+02  0.74530E+04
 0.78499992E+02  0.76324E+04
 0.78549995E+02  0.76082E+04
 0.78599998E+02  0.75571E+04
 0.78649994E+02  0.75081E+04
 0.78699997E+02  0.74738E+04
 0.78749992E+02  0.75348E+04
 0.78799995E+02  0.74130E+04
 0.78849998E+02  0.74006E+04
 0.78899994E+02  0.75219E+04
 0.78949997E+02  0.76151E+04
 0.78999992E+02  0.75973E+04
 0.79049995E+02  0.76002E+04
 0.79099998E+02  0.75942E+04
 0.79149994E+02  0.75079E+04
 0.79199997E+02  0.74560E+04
 0.79249992E+02  0.76979E+04
 0.79299995E+02  0.79047E+04
 0.79349998E+02  0.80297E+04
 0.79399994E+02  0.81570E+04
 0.79449997E+02  0.80914E+04
 0.79499992E+02  0.79699E+04
 0.79549995E+02  0.77335E+04
 0.79599998E+02  0.75769E+04
 0.79649994E+02  0.73324E+04
 0.79699997E+02  0.71205E+04
 0.79749992E+02  0.72519E+04
 0.79799995E+02  0.74096E+04
 0.79849998E+02  0.75253E+04
 0.79899994E+02  0.76326E+04
 0.79949997E+02  0.76008E+04
 0.79999992E+02  0.76009E+04
 0.80049995E+02  0.76902E+04
 0.80099998E+02  0.77067E+04
 0.80149994E+02  0.76293E+04
 0.80199997E+02  0.76609E+04
 0.80249992E+02  0.76685E+04
 0.80299995E+02  0.75529E+04
 0.80349998E+02  0.74802E+04
 0.80399994E+02  0.73824E+04
 0.80449997E+02  0.74406E+04
 0.80499992E+02  0.76360E+04
 0.80549995E+02  0.78693E+04
 0.80599998E+02  0.79721E+04
 0.80649994E+02  0.77880E+04
 0.80699997E+02  0.76021E+04
 0.80749992E+02  0.74429E+04
 0.80799995E+02  0.73395E+04
 0.80849998E+02  0.72083E+04
 0.80899994E+02  0.71378E+04
 0.80949997E+02  0.72767E+04
 0.80999992E+02  0.72448E+04
 0.81049995E+02  0.72129E+04
 0.81099998E+02  0.72918E+04
 0.81149994E+02  0.73617E+04
 0.81199997E+02  0.73946E+04
 0.81249992E+02  0.74441E+04
 0.81299995E+02  0.76350E+04
 0.81349998E+02  0.77853E+04
 0.81399994E+02  0.78731E+04
 0.81449997E+02  0.78758E+04
 0.81499992E+02  0.78819E+04
 0.81549995E+02  0.79258E+04
 0.81599998E+02  0.79741E+04
 0.81649994E+02  0.80602E+04
 0.81699997E+02  0.80126E+04
 0.81749992E+02  0.79509E+04
 0.81799995E+02  0.79171E+04
 0.81849998E+02  0.77122E+04
 0.81899994E+02  0.74707E+04
 0.81949997E+02  0.73029E+04
 0.81999992E+02  0.72633E+04
 0.82049995E+02  0.72746E+04
 0.82099998E+02  0.74690E+04
 0.82149994E+02  0.76679E+04
 0.82199997E+02  0.75827E+04
 0.82249992E+02  0.75663E+04
 0.82299995E+02  0.76115E+04
 0.82349998E+02  0.76183E+04
 0.82399994E+02  0.75603E+04
 0.82449997E+02  0.74749E+04
 0.82499992E+02  0.73794E+04
 0.82549995E+02  0.74630E+04
 0.82599998E+02  0.77184E+04
 0.82649994E+02  0.78612E+04
 0.82699997E+02  0.76818E+04
 0.82749992E+02  0.73784E+04
 0.82799995E+02  0.73519E+04
 0.82849998E+02  0.72734E+04
 0.82899994E+02  0.73101E+04
 0.82949997E+02  0.74877E+04
 0.82999992E+02  0.75205E+04
 0.83049995E+02  0.75843E+04
 0.83099998E+02  0.75811E+04
 0.83149994E+02  0.75927E+04
 0.83199997E+02  0.76752E+04
 0.83249992E+02  0.77042E+04
 0.83299995E+02  0.77049E+04
 0.83349998E+02  0.77871E+04
 0.83399994E+02  0.77546E+04
 0.83449997E+02  0.76025E+04
 0.83499992E+02  0.76218E+04
 0.83549995E+02  0.76541E+04
 0.83599998E+02  0.76304E+04
 0.83649994E+02  0.75996E+04
 0.83699997E+02  0.76045E+04
 0.83749992E+02  0.76636E+04
 0.83799995E+02  0.77090E+04
 0.83849998E+02  0.77283E+04
 0.83899994E+02  0.77280E+04
 0.83949997E+02  0.77326E+04
 0.83999992E+02  0.77427E+04
 0.84049995E+02  0.77596E+04
 0.84099998E+02  0.77288E+04
 0.84149994E+02  0.76194E+04
 0.84199997E+02  0.75066E+04
 0.84249992E+02  0.75146E+04
 0.84299995E+02  0.76109E+04
 0.84349998E+02  0.76625E+04
 0.84399994E+02  0.76460E+04
 0.84449997E+02  0.77817E+04
 0.84499992E+02  0.79453E+04
 0.84549995E+02  0.79548E+04
 0.84599998E+02  0.79369E+04
 0.84649994E+02  0.77655E+04
 0.84699997E+02  0.75427E+04
 0.84749992E+02  0.74174E+04
 0.84799995E+02  0.73300E+04
 0.84849998E+02  0.72780E+04
 0.84899994E+02  0.74370E+04
 0.84949997E+02  0.76589E+04
 0.84999992E+02  0.76406E+04
 0.85049995E+02  0.75996E+04
 0.85099998E+02  0.76211E+04
 0.85149994E+02  0.76125E+04
 0.85199997E+02  0.76373E+04
 0.85249992E+02  0.76299E+04
 0.85299995E+02  0.75443E+04
 0.85349998E+02  0.74677E+04
 0.85399994E+02  0.73908E+04
 0.85449997E+02  0.73638E+04
 0.85499992E+02  0.73537E+04
 0.85549995E+02  0.74386E+04
 0.85599998E+02  0.75363E+04
 0.85649994E+02  0.74954E+04
 0.85699997E+02  0.74306E+04
 0.85749992E+02  0.73465E+04
 0.85799995E+02  0.73122E+04
 0.85849998E+02  0.73824E+04
 0.85899994E+02  0.74918E+04
 0.85949997E+02  0.75482E+04
 0.85999992E+02  0.76283E+04
 0.86049995E+02  0.76079E+04
 0.86099998E+02  0.74987E+04
 0.86149994E+02  0.73997E+04
 0.86199997E+02  0.73982E+04
 0.86249992E+02  0.73965E+04
 0.86299995E+02  0.73932E+04
 0.86349998E+02  0.74405E+04
 0.86399994E+02  0.74427E+04
 0.86449997E+02  0.74598E+04
 0.86499992E+02  0.74976E+04
 0.86549995E+02  0.75507E+04
 0.86599998E+02  0.74966E+04
 0.86649994E+02  0.74188E+04
 0.86699997E+02  0.73249E+04
 0.86749992E+02  0.73388E+04
 0.86799995E+02  0.73506E+04
 0.86849998E+02  0.73719E+04
 0.86899994E+02  0.75128E+04
 0.86949997E+02  0.76388E+04
 0.86999992E+02  0.77398E+04
 0.87049995E+02  0.76743E+04
 0.87099998E+02  0.76916E+04
 0.87149994E+02  0.78973E+04
 0.87199997E+02  0.80007E+04
 0.87249992E+02  0.79308E+04
 0.87299995E+02  0.78870E+04
 0.87349998E+02  0.78798E+04
 0.87399994E+02  0.77444E+04
 0.87449997E+02  0.75145E+04
 0.87499992E+02  0.73351E+04
 0.87549995E+02  0.72636E+04
 0.87599991E+02  0.72044E+04
 0.87649994E+02  0.71880E+04
 0.87699997E+02  0.72589E+04
 0.87749992E+02  0.74246E+04
 0.87799995E+02  0.74736E+04
 0.87849991E+02  0.74271E+04
 0.87899994E+02  0.74493E+04
 0.87949997E+02  0.75243E+04
 0.87999992E+02  0.76728E+04
 0.88049995E+02  0.77560E+04
 0.88099991E+02  0.77174E+04
 0.88149994E+02  0.76081E+04
 0.88199997E+02  0.76258E+04
 0.88249992E+02  0.76847E+04
 0.88299995E+02  0.76801E+04
 0.88349991E+02  0.76835E+04
 0.88399994E+02  0.76968E+04
 0.88449997E+02  0.76772E+04
 0.88499992E+02  0.75850E+04
 0.88549995E+02  0.75214E+04
 0.88599991E+02  0.74853E+04
 0.88649994E+02  0.74951E+04
 0.88699997E+02  0.75100E+04
 0.88749992E+02  0.75441E+04
 0.88799995E+02  0.76216E+04
 0.88849991E+02  0.76745E+04
 0.88899994E+02  0.77199E+04
 0.88949997E+02  0.77769E+04
 0.88999992E+02  0.77784E+04
 0.89049995E+02  0.77538E+04
 0.89099991E+02  0.77513E+04
 0.89149994E+02  0.76938E+04
 0.89199997E+02  0.77015E+04
 0.89249992E+02  0.77196E+04
 0.89299995E+02  0.76763E+04
 0.89349991E+02  0.76248E+04
 0.89399994E+02  0.76320E+04
 0.89449997E+02  0.77233E+04
 0.89499992E+02  0.77437E+04
 0.89549995E+02  0.76930E+04
 0.89599991E+02  0.75099E+04
 0.89649994E+02  0.74606E+04
 0.89699997E+02  0.75688E+04
 0.89749992E+02  0.75762E+04
 0.89799995E+02  0.76287E+04
 0.89849991E+02  0.76536E+04
 0.89899994E+02  0.76124E+04
 0.89949997E+02  0.75828E+04
 0.89999992E+02  0.74796E+04
 0.90049995E+02  0.74241E+04
 0.90099991E+02  0.74016E+04
 0.90149994E+02  0.73038E+04
 0.90199997E+02  0.72617E+04
 0.90249992E+02  0.72672E+04
 0.90299995E+02  0.72903E+04
 0.90349991E+02  0.73516E+04
 0.90399994E+02  0.74575E+04
 0.90449997E+02  0.75486E+04
 0.90499992E+02  0.76344E+04
 0.90549995E+02  0.77020E+04
 0.90599991E+02  0.77282E+04
 0.90649994E+02  0.77341E+04
 0.90699997E+02  0.77249E+04
 0.90749992E+02  0.76811E+04
 0.90799995E+02  0.76709E+04
 0.90849991E+02  0.77662E+04
 0.90899994E+02  0.78811E+04
 0.90949997E+02  0.79577E+04
 0.90999992E+02  0.79860E+04
 0.91049995E+02  0.79303E+04
 0.91099991E+02  0.77429E+04
 0.91149994E+02  0.75947E+04
 0.91199997E+02  0.75550E+04
 0.91249992E+02  0.75226E+04
 0.91299995E+02  0.74774E+04
 0.91349991E+02  0.74770E+04
 0.91399994E+02  0.74995E+04
 0.91449997E+02  0.75520E+04
 0.91499992E+02  0.76130E+04
 0.91549995E+02  0.76358E+04
 0.91599991E+02  0.75381E+04
 0.91649994E+02  0.73313E+04
 0.91699997E+02  0.72969E+04
 0.91749992E+02  0.74293E+04
 0.91799995E+02  0.75696E+04
 0.91849991E+02  0.76147E+04
 0.91899994E+02  0.75727E+04
 0.91949997E+02  0.74751E+04
 0.91999992E+02  0.74632E+04
 0.92049995E+02  0.75153E+04
 0.92099991E+02  0.75602E+04
 0.92149994E+02  0.76376E+04
 0.92199997E+02  0.76321E+04
 0.92249992E+02  0.75511E+04
 0.92299995E+02  0.74705E+04
 0.92349991E+02  0.74005E+04
 0.92399994E+02  0.73208E+04
 0.92449997E+02  0.73699E+04
 0.92499992E+02  0.75240E+04
 0.92549995E+02  0.76391E+04
 0.92599991E+02  0.76780E+04
 0.92649994E+02  0.76864E+04
 0.92699997E+02  0.77190E+04
 0.92749992E+02  0.77241E+04
 0.92799995E+02  0.77084E+04
 0.92849991E+02  0.77129E+04
 0.92899994E+02  0.78235E+04
 0.92949997E+02  0.79109E+04
 0.92999992E+02  0.79367E+04
 0.93049995E+02  0.79340E+04
 0.93099991E+02  0.78647E+04
 0.93149994E+02  0.77086E+04
 0.93199997E+02  0.74627E+04
 0.93249992E+02  0.72983E+04
 0.93299995E+02  0.72080E+04
 0.93349991E+02  0.72437E+04
 0.93399994E+02  0.73020E+04
 0.93449997E+02  0.73275E+04
 0.93499992E+02  0.73439E+04
 0.93549995E+02  0.73658E+04
 0.93599991E+02  0.75019E+04
 0.93649994E+02  0.75571E+04
 0.93699997E+02  0.76293E+04
 0.93749992E+02  0.77642E+04
 0.93799995E+02  0.77814E+04
 0.93849991E+02  0.77798E+04
 0.93899994E+02  0.77932E+04
 0.93949997E+02  0.77704E+04
 0.93999992E+02  0.76865E+04
 0.94049995E+02  0.75901E+04
 0.94099991E+02  0.75370E+04
 0.94149994E+02  0.74844E+04
 0.94199997E+02  0.74776E+04
 0.94249992E+02  0.75216E+04
 0.94299995E+02  0.75898E+04
 0.94349991E+02  0.76313E+04
 0.94399994E+02  0.76087E+04
 0.94449997E+02  0.75803E+04
 0.94499992E+02  0.75560E+04
 0.94549995E+02  0.75730E+04
 0.94599991E+02  0.76110E+04
 0.94649994E+02  0.76520E+04
 0.94699997E+02  0.76896E+04
 0.94749992E+02  0.77511E+04
 0.94799995E+02  0.77533E+04
 0.94849991E+02  0.76460E+04
 0.94899994E+02  0.75231E+04
 0.94949997E+02  0.74696E+04
 0.94999992E+02  0.74349E+04
 0.95049995E+02  0.73390E+04
 0.95099991E+02  0.72898E+04
 0.95149994E+02  0.72504E+04
 0.95199997E+02  0.72017E+04
 0.95249992E+02  0.71314E+04
 0.95299995E+02  0.70335E+04
 0.95349991E+02  0.70093E+04
 0.95399994E+02  0.71420E+04
 0.95449997E+02  0.73348E+04
 0.95499992E+02  0.74846E+04
 0.95549995E+02  0.76477E+04
 0.95599991E+02  0.77214E+04
 0.95649994E+02  0.77099E+04
 0.95699997E+02  0.76971E+04
 0.95749992E+02  0.77154E+04
 0.95799995E+02  0.77313E+04
 0.95849991E+02  0.77178E+04
 0.95899994E+02  0.77583E+04
 0.95949997E+02  0.77521E+04
 0.95999992E+02  0.76877E+04
 0.96049995E+02  0.76009E+04
 0.96099991E+02  0.74691E+04
 0.96149994E+02  0.73704E+04
 0.96199997E+02  0.74073E+04
 0.96249992E+02  0.74805E+04
 0.96299995E+02  0.75439E+04
 0.96349991E+02  0.76228E+04
 0.96399994E+02  0.76553E+04
 0.96449997E+02  0.76724E+04
 0.96499992E+02  0.76852E+04
 0.96549995E+02  0.77019E+04
 0.96599991E+02  0.76774E+04
 0.96649994E+02  0.76431E+04
 0.96699997E+02  0.76259E+04
 0.96749992E+02  0.76470E+04
 0.96799995E+02  0.76471E+04
 0.96849991E+02  0.76515E+04
 0.96899994E+02  0.77003E+04
 0.96949997E+02  0.77995E+04
 0.96999992E+02  0.79113E+04
 0.97049995E+02  0.79411E+04
 0.97099991E+02  0.79346E+04
 0.97149994E+02  0.78409E+04
 0.97199997E+02  0.77651E+04
 0.97249992E+02  0.77079E+04
 0.97299995E+02  0.76581E+04
 0.97349991E+02  0.76465E+04
 0.97399994E+02  0.76199E+04
 0.97449997E+02  0.75025E+04
 0.97499992E+02  0.73704E+04
 0.97549995E+02  0.73875E+04
 0.97599991E+02  0.74307E+04
 0.97649994E+02  0.74112E+04
 0.97699997E+02  0.73709E+04
 0.97749992E+02  0.73773E+04
 0.97799995E+02  0.74293E+04
 0.97849991E+02  0.74394E+04
 0.97899994E+02  0.73496E+04
 0.97949997E+02  0.72868E+04
 0.97999992E+02  0.72907E+04
