-0.20000000E+01  0.25852E+04
-0.19500000E+01  0.25213E+04
-0.19000000E+01  0.25047E+04
-0.18500000E+01  0.24738E+04
-0.18000000E+01  0.24414E+04
-0.17500000E+01  0.24557E+04
-0.17000000E+01  0.24090E+04
-0.16500001E+01  0.23859E+04
-0.16000000E+01  0.24079E+04
-0.15500000E+01  0.23847E+04
-0.15000000E+01  0.24013E+04
-0.14500000E+01  0.23979E+04
-0.14000001E+01  0.24193E+04
-0.13500000E+01  0.24574E+04
-0.13000001E+01  0.24264E+04
-0.12500000E+01  0.24459E+04
-0.12000000E+01  0.24777E+04
-0.11500001E+01  0.25039E+04
-0.11000000E+01  0.25103E+04
-0.10500001E+01  0.24712E+04
-0.10000000E+01  0.24224E+04
-0.95000005E+00  0.24512E+04
-0.90000010E+00  0.24662E+04
-0.85000002E+00  0.24843E+04
-0.80000007E+00  0.25047E+04
-0.75000012E+00  0.24606E+04
-0.70000005E+00  0.24410E+04
-0.65000010E+00  0.24332E+04
-0.60000014E+00  0.24569E+04
-0.55000007E+00  0.25099E+04
-0.50000012E+00  0.24790E+04
-0.45000005E+00  0.24425E+04
-0.40000010E+00  0.24524E+04
-0.35000014E+00  0.24860E+04
-0.30000007E+00  0.25024E+04
-0.25000012E+00  0.24621E+04
-0.20000005E+00  0.24757E+04
-0.15000010E+00  0.24756E+04
-0.10000014E+00  0.24998E+04
-0.50000072E-01  0.25787E+04
-0.11920929E-06  0.25980E+04
 0.49999952E-01  0.25876E+04
 0.99999905E-01  0.25989E+04
 0.14999986E+00  0.26203E+04
 0.19999981E+00  0.25754E+04
 0.24999976E+00  0.25688E+04
 0.29999995E+00  0.25725E+04
 0.34999990E+00  0.25654E+04
 0.39999986E+00  0.25776E+04
 0.44999981E+00  0.25666E+04
 0.49999976E+00  0.25893E+04
 0.54999995E+00  0.26024E+04
 0.59999990E+00  0.26282E+04
 0.64999986E+00  0.26354E+04
 0.69999981E+00  0.26643E+04
 0.74999976E+00  0.26562E+04
 0.79999971E+00  0.26092E+04
 0.84999990E+00  0.25838E+04
 0.89999986E+00  0.25266E+04
 0.94999981E+00  0.24906E+04
 0.99999976E+00  0.24850E+04
 0.10499997E+01  0.24630E+04
 0.10999999E+01  0.24242E+04
 0.11499999E+01  0.24301E+04
 0.11999998E+01  0.24540E+04
 0.12499998E+01  0.24693E+04
 0.12999997E+01  0.24475E+04
 0.13499999E+01  0.24176E+04
 0.13999999E+01  0.23958E+04
 0.14499998E+01  0.24074E+04
 0.14999998E+01  0.24517E+04
 0.15499997E+01  0.24811E+04
 0.15999999E+01  0.25011E+04
 0.16499999E+01  0.24286E+04
 0.16999998E+01  0.23969E+04
 0.17499998E+01  0.24280E+04
 0.17999997E+01  0.24777E+04
 0.18499997E+01  0.24858E+04
 0.18999999E+01  0.24466E+04
 0.19499998E+01  0.24151E+04
 0.19999998E+01  0.23733E+04
 0.20499997E+01  0.24134E+04
 0.20999999E+01  0.24243E+04
 0.21499996E+01  0.24370E+04
 0.21999998E+01  0.24616E+04
 0.22499995E+01  0.24622E+04
 0.22999997E+01  0.24856E+04
 0.23499999E+01  0.25433E+04
 0.23999996E+01  0.25774E+04
 0.24499998E+01  0.26155E+04
 0.24999995E+01  0.26174E+04
 0.25499997E+01  0.26403E+04
 0.25999999E+01  0.26489E+04
 0.26499996E+01  0.26026E+04
 0.26999998E+01  0.26252E+04
 0.27499995E+01  0.26340E+04
 0.27999997E+01  0.26314E+04
 0.28499999E+01  0.26021E+04
 0.28999996E+01  0.25893E+04
 0.29499998E+01  0.25792E+04
 0.29999995E+01  0.25403E+04
 0.30499997E+01  0.25059E+04
 0.30999999E+01  0.24591E+04
 0.31499996E+01  0.24608E+04
 0.31999998E+01  0.25036E+04
 0.32499995E+01  0.25329E+04
 0.32999997E+01  0.25414E+04
 0.33499999E+01  0.25324E+04
 0.33999996E+01  0.25584E+04
 0.34499998E+01  0.25808E+04
 0.34999995E+01  0.26170E+04
 0.35499997E+01  0.26080E+04
 0.35999994E+01  0.25848E+04
 0.36499996E+01  0.25328E+04
 0.36999998E+01  0.24914E+04
 0.37499995E+01  0.24575E+04
 0.37999997E+01  0.24544E+04
 0.38499994E+01  0.24480E+04
 0.38999996E+01  0.24115E+04
 0.39499998E+01  0.24051E+04
 0.39999995E+01  0.24048E+04
 0.40499997E+01  0.24506E+04
 0.40999994E+01  0.24035E+04
 0.41499996E+01  0.23768E+04
 0.41999998E+01  0.23742E+04
 0.42499995E+01  0.23925E+04
 0.42999997E+01  0.24051E+04
 0.43499994E+01  0.24152E+04
 0.43999996E+01  0.24345E+04
 0.44499998E+01  0.24408E+04
 0.44999995E+01  0.24948E+04
 0.45499997E+01  0.24962E+04
 0.45999994E+01  0.24549E+04
 0.46499996E+01  0.24562E+04
 0.46999998E+01  0.25024E+04
 0.47499995E+01  0.25297E+04
 0.47999997E+01  0.25696E+04
 0.48499994E+01  0.25732E+04
 0.48999996E+01  0.25448E+04
 0.49499998E+01  0.25397E+04
 0.49999995E+01  0.25614E+04
 0.50499997E+01  0.25481E+04
 0.50999994E+01  0.25401E+04
 0.51499996E+01  0.25293E+04
 0.51999998E+01  0.24849E+04
 0.52499995E+01  0.24962E+04
 0.52999997E+01  0.24994E+04
 0.53499994E+01  0.24748E+04
 0.53999996E+01  0.25126E+04
 0.54499993E+01  0.25389E+04
 0.54999995E+01  0.24802E+04
 0.55499997E+01  0.25211E+04
 0.55999994E+01  0.25422E+04
 0.56499996E+01  0.25068E+04
 0.56999993E+01  0.25129E+04
 0.57499995E+01  0.25216E+04
 0.57999997E+01  0.25252E+04
 0.58499994E+01  0.25398E+04
 0.58999996E+01  0.25267E+04
 0.59499993E+01  0.25121E+04
 0.59999995E+01  0.24916E+04
 0.60499992E+01  0.24707E+04
 0.60999994E+01  0.24823E+04
 0.61499996E+01  0.24511E+04
 0.61999998E+01  0.24291E+04
 0.62499990E+01  0.24212E+04
 0.62999992E+01  0.24423E+04
 0.63499994E+01  0.24484E+04
 0.63999996E+01  0.24011E+04
 0.64499998E+01  0.24196E+04
 0.64999990E+01  0.25118E+04
 0.65499992E+01  0.25328E+04
 0.65999994E+01  0.25480E+04
 0.66499996E+01  0.25677E+04
 0.66999998E+01  0.25583E+04
 0.67499990E+01  0.26014E+04
 0.67999992E+01  0.26551E+04
 0.68499994E+01  0.26614E+04
 0.68999996E+01  0.26332E+04
 0.69499998E+01  0.26002E+04
 0.69999990E+01  0.25679E+04
 0.70499992E+01  0.25701E+04
 0.70999994E+01  0.25924E+04
 0.71499996E+01  0.25596E+04
 0.71999998E+01  0.25419E+04
 0.72499990E+01  0.25454E+04
 0.72999992E+01  0.25224E+04
 0.73499994E+01  0.25208E+04
 0.73999996E+01  0.25098E+04
 0.74499998E+01  0.24973E+04
 0.74999990E+01  0.25045E+04
 0.75499992E+01  0.25225E+04
 0.75999994E+01  0.25324E+04
 0.76499996E+01  0.25513E+04
 0.76999998E+01  0.25228E+04
 0.77499990E+01  0.25178E+04
 0.77999992E+01  0.25226E+04
 0.78499994E+01  0.24944E+04
 0.78999996E+01  0.25060E+04
 0.79499998E+01  0.25136E+04
 0.79999990E+01  0.25008E+04
 0.80499992E+01  0.24754E+04
 0.80999994E+01  0.25041E+04
 0.81499996E+01  0.24902E+04
 0.81999998E+01  0.24731E+04
 0.82499990E+01  0.24909E+04
 0.82999992E+01  0.24468E+04
 0.83499994E+01  0.24397E+04
 0.83999996E+01  0.24672E+04
 0.84499998E+01  0.24571E+04
 0.84999990E+01  0.24484E+04
 0.85499992E+01  0.24380E+04
 0.85999994E+01  0.24396E+04
 0.86499996E+01  0.24494E+04
 0.86999998E+01  0.24305E+04
 0.87499990E+01  0.24004E+04
 0.87999992E+01  0.24056E+04
 0.88499994E+01  0.24361E+04
 0.88999996E+01  0.24327E+04
 0.89499998E+01  0.24527E+04
 0.89999990E+01  0.24652E+04
 0.90499992E+01  0.24717E+04
 0.90999994E+01  0.25282E+04
 0.91499996E+01  0.25406E+04
 0.91999989E+01  0.25207E+04
 0.92499990E+01  0.24937E+04
 0.92999992E+01  0.24635E+04
 0.93499994E+01  0.24956E+04
 0.93999996E+01  0.24990E+04
 0.94499989E+01  0.25235E+04
 0.94999990E+01  0.24905E+04
 0.95499992E+01  0.24600E+04
 0.95999994E+01  0.24931E+04
 0.96499996E+01  0.24941E+04
 0.96999989E+01  0.24964E+04
 0.97499990E+01  0.24929E+04
 0.97999992E+01  0.24831E+04
 0.98499994E+01  0.24880E+04
 0.98999996E+01  0.25014E+04
 0.99499989E+01  0.25421E+04
 0.99999990E+01  0.25678E+04
 0.10049999E+02  0.25318E+04
 0.10099999E+02  0.25635E+04
 0.10150000E+02  0.25804E+04
 0.10199999E+02  0.26234E+04
 0.10249999E+02  0.26570E+04
 0.10299999E+02  0.26224E+04
 0.10349999E+02  0.26111E+04
 0.10400000E+02  0.26271E+04
 0.10449999E+02  0.26432E+04
 0.10499999E+02  0.26347E+04
 0.10549999E+02  0.26272E+04
 0.10599999E+02  0.25972E+04
 0.10650000E+02  0.25771E+04
 0.10699999E+02  0.25594E+04
 0.10749999E+02  0.25317E+04
 0.10799999E+02  0.25213E+04
 0.10849999E+02  0.24771E+04
 0.10900000E+02  0.24460E+04
 0.10949999E+02  0.24151E+04
 0.10999999E+02  0.24239E+04
 0.11049999E+02  0.24122E+04
 0.11099999E+02  0.23876E+04
 0.11150000E+02  0.24035E+04
 0.11199999E+02  0.24081E+04
 0.11249999E+02  0.24342E+04
 0.11299999E+02  0.24562E+04
 0.11349999E+02  0.24521E+04
 0.11400000E+02  0.24708E+04
 0.11449999E+02  0.24816E+04
 0.11499999E+02  0.24754E+04
 0.11549999E+02  0.24712E+04
 0.11599999E+02  0.24601E+04
 0.11650000E+02  0.24570E+04
 0.11699999E+02  0.24201E+04
 0.11749999E+02  0.24602E+04
 0.11799999E+02  0.24809E+04
 0.11849999E+02  0.24200E+04
 0.11900000E+02  0.24756E+04
 0.11949999E+02  0.25110E+04
 0.11999999E+02  0.24997E+04
 0.12049999E+02  0.24973E+04
 0.12099999E+02  0.24968E+04
 0.12150000E+02  0.25458E+04
 0.12199999E+02  0.25847E+04
 0.12249999E+02  0.26119E+04
 0.12299999E+02  0.25870E+04
 0.12349999E+02  0.25476E+04
 0.12400000E+02  0.25565E+04
 0.12449999E+02  0.25545E+04
 0.12499999E+02  0.25182E+04
 0.12549999E+02  0.25475E+04
 0.12599999E+02  0.25473E+04
 0.12649999E+02  0.25230E+04
 0.12699999E+02  0.25152E+04
 0.12749999E+02  0.25135E+04
 0.12799999E+02  0.25362E+04
 0.12849999E+02  0.25324E+04
 0.12899999E+02  0.25474E+04
 0.12949999E+02  0.25522E+04
 0.12999999E+02  0.25285E+04
 0.13049999E+02  0.25381E+04
 0.13099999E+02  0.25176E+04
 0.13149999E+02  0.24776E+04
 0.13199999E+02  0.25015E+04
 0.13249999E+02  0.25109E+04
 0.13299999E+02  0.24782E+04
 0.13349999E+02  0.24875E+04
 0.13399999E+02  0.24798E+04
 0.13449999E+02  0.24343E+04
 0.13499999E+02  0.24365E+04
 0.13549999E+02  0.24098E+04
 0.13599999E+02  0.24017E+04
 0.13649999E+02  0.24099E+04
 0.13699999E+02  0.24295E+04
 0.13749999E+02  0.24341E+04
 0.13799999E+02  0.24755E+04
 0.13849999E+02  0.25058E+04
 0.13899999E+02  0.24995E+04
 0.13949999E+02  0.25336E+04
 0.13999999E+02  0.25226E+04
 0.14049999E+02  0.25345E+04
 0.14099998E+02  0.25081E+04
 0.14150000E+02  0.24993E+04
 0.14199999E+02  0.25215E+04
 0.14249998E+02  0.25698E+04
 0.14299999E+02  0.25587E+04
 0.14349998E+02  0.25259E+04
 0.14400000E+02  0.25403E+04
 0.14449999E+02  0.25232E+04
 0.14499998E+02  0.25384E+04
 0.14549999E+02  0.25283E+04
 0.14599998E+02  0.25127E+04
 0.14650000E+02  0.24853E+04
 0.14699999E+02  0.24705E+04
 0.14749998E+02  0.25003E+04
 0.14799999E+02  0.24953E+04
 0.14849998E+02  0.25122E+04
 0.14900000E+02  0.25289E+04
 0.14949999E+02  0.24964E+04
 0.14999998E+02  0.25467E+04
 0.15049999E+02  0.25509E+04
 0.15099998E+02  0.25381E+04
 0.15150000E+02  0.25644E+04
 0.15199999E+02  0.25490E+04
 0.15249998E+02  0.25586E+04
 0.15299999E+02  0.26028E+04
 0.15349998E+02  0.25719E+04
 0.15400000E+02  0.25005E+04
 0.15449999E+02  0.25416E+04
 0.15499998E+02  0.25042E+04
 0.15549999E+02  0.24780E+04
 0.15599998E+02  0.24612E+04
 0.15650000E+02  0.24226E+04
 0.15699999E+02  0.24512E+04
 0.15749998E+02  0.24571E+04
 0.15799999E+02  0.25154E+04
 0.15849998E+02  0.24734E+04
 0.15900000E+02  0.24920E+04
 0.15949999E+02  0.24900E+04
 0.15999998E+02  0.25050E+04
 0.16049999E+02  0.25612E+04
 0.16099998E+02  0.25201E+04
 0.16150000E+02  0.25338E+04
 0.16199999E+02  0.25249E+04
 0.16249998E+02  0.24878E+04
 0.16299999E+02  0.24868E+04
 0.16349998E+02  0.25440E+04
 0.16400000E+02  0.25321E+04
 0.16449999E+02  0.25239E+04
 0.16499998E+02  0.25468E+04
 0.16549999E+02  0.25469E+04
 0.16599998E+02  0.25423E+04
 0.16650000E+02  0.25531E+04
 0.16699999E+02  0.25279E+04
 0.16749998E+02  0.25352E+04
 0.16799999E+02  0.25473E+04
 0.16849998E+02  0.25575E+04
 0.16900000E+02  0.25375E+04
 0.16949999E+02  0.24857E+04
 0.16999998E+02  0.24729E+04
 0.17049999E+02  0.24538E+04
 0.17099998E+02  0.24698E+04
 0.17150000E+02  0.24677E+04
 0.17199999E+02  0.24454E+04
 0.17249998E+02  0.24245E+04
 0.17299999E+02  0.24396E+04
 0.17349998E+02  0.24132E+04
 0.17400000E+02  0.24178E+04
 0.17449999E+02  0.24551E+04
 0.17499998E+02  0.24284E+04
 0.17549999E+02  0.24757E+04
 0.17599998E+02  0.25115E+04
 0.17650000E+02  0.24714E+04
 0.17699999E+02  0.25010E+04
 0.17749998E+02  0.25553E+04
 0.17799999E+02  0.25244E+04
 0.17849998E+02  0.25329E+04
 0.17900000E+02  0.25782E+04
 0.17949999E+02  0.25435E+04
 0.17999998E+02  0.25132E+04
 0.18049999E+02  0.25657E+04
 0.18099998E+02  0.25732E+04
 0.18150000E+02  0.24863E+04
 0.18199999E+02  0.24964E+04
 0.18249998E+02  0.25136E+04
 0.18299999E+02  0.24758E+04
 0.18349998E+02  0.24707E+04
 0.18400000E+02  0.25009E+04
 0.18449999E+02  0.24535E+04
 0.18499998E+02  0.24050E+04
 0.18549999E+02  0.25082E+04
 0.18599998E+02  0.24835E+04
 0.18650000E+02  0.24492E+04
 0.18699999E+02  0.24914E+04
 0.18749998E+02  0.25093E+04
 0.18799999E+02  0.25107E+04
 0.18849998E+02  0.24970E+04
 0.18900000E+02  0.25718E+04
 0.18949999E+02  0.25746E+04
 0.18999998E+02  0.25113E+04
 0.19049999E+02  0.25511E+04
 0.19099998E+02  0.26012E+04
 0.19150000E+02  0.25653E+04
 0.19199999E+02  0.24968E+04
 0.19249998E+02  0.25200E+04
 0.19299999E+02  0.25537E+04
 0.19349998E+02  0.25079E+04
 0.19400000E+02  0.24837E+04
 0.19449999E+02  0.25040E+04
 0.19499998E+02  0.24622E+04
 0.19549999E+02  0.24328E+04
 0.19599998E+02  0.24844E+04
 0.19650000E+02  0.24921E+04
 0.19699999E+02  0.24695E+04
 0.19749998E+02  0.24567E+04
 0.19799999E+02  0.25065E+04
 0.19849998E+02  0.25270E+04
 0.19900000E+02  0.24951E+04
 0.19949999E+02  0.25077E+04
 0.19999998E+02  0.25231E+04
 0.20049999E+02  0.25109E+04
 0.20099998E+02  0.25461E+04
 0.20150000E+02  0.25842E+04
 0.20199999E+02  0.25485E+04
 0.20249998E+02  0.25178E+04
 0.20299999E+02  0.25273E+04
 0.20349998E+02  0.25483E+04
 0.20399998E+02  0.25171E+04
 0.20449999E+02  0.25362E+04
 0.20499998E+02  0.25398E+04
 0.20549999E+02  0.25107E+04
 0.20599998E+02  0.24954E+04
 0.20649998E+02  0.25199E+04
 0.20699999E+02  0.25653E+04
 0.20749998E+02  0.25088E+04
 0.20799999E+02  0.24796E+04
 0.20849998E+02  0.24827E+04
 0.20899998E+02  0.24973E+04
 0.20949999E+02  0.24620E+04
 0.20999998E+02  0.24488E+04
 0.21049999E+02  0.25025E+04
 0.21099998E+02  0.24422E+04
 0.21149998E+02  0.24407E+04
 0.21199999E+02  0.25015E+04
 0.21249998E+02  0.24966E+04
 0.21299999E+02  0.25125E+04
 0.21349998E+02  0.24865E+04
 0.21399998E+02  0.24826E+04
 0.21449999E+02  0.25033E+04
 0.21499998E+02  0.24623E+04
 0.21549999E+02  0.24526E+04
 0.21599998E+02  0.24701E+04
 0.21649998E+02  0.24715E+04
 0.21699999E+02  0.24938E+04
 0.21749998E+02  0.25122E+04
 0.21799999E+02  0.24962E+04
 0.21849998E+02  0.24841E+04
 0.21899998E+02  0.25537E+04
 0.21949999E+02  0.25652E+04
 0.21999998E+02  0.25315E+04
 0.22049999E+02  0.25529E+04
 0.22099998E+02  0.25084E+04
 0.22149998E+02  0.24671E+04
 0.22199999E+02  0.23794E+04
 0.22249998E+02  0.23173E+04
 0.22299999E+02  0.23552E+04
 0.22349998E+02  0.23467E+04
 0.22399998E+02  0.22036E+04
 0.22449999E+02  0.21785E+04
 0.22499998E+02  0.20471E+04
 0.22549999E+02  0.19925E+04
 0.22599998E+02  0.18773E+04
 0.22649998E+02  0.23578E+04
 0.22699999E+02  0.39782E+04
 0.22749998E+02  0.54203E+04
 0.22799999E+02  0.40654E+04
 0.22849998E+02 -0.95009E+01
 0.22899998E+02 -0.30897E+04
 0.22949999E+02 -0.21755E+04
 0.22999998E+02  0.21363E+04
 0.23049999E+02  0.42705E+04
 0.23099998E+02  0.23977E+04
 0.23149998E+02  0.16246E+04
 0.23199999E+02  0.30211E+04
 0.23249998E+02  0.53761E+04
 0.23299999E+02  0.87504E+03
 0.23349998E+02 -0.12875E+04
 0.23399998E+02  0.10190E+05
 0.23449999E+02  0.16559E+05
 0.23499998E+02  0.13784E+05
 0.23549999E+02 -0.21111E+04
 0.23599998E+02 -0.13963E+05
 0.23649998E+02 -0.30305E+04
 0.23699999E+02  0.56524E+04
 0.23749998E+02  0.63436E+04
 0.23799999E+02  0.89201E+04
 0.23849998E+02  0.66916E+04
 0.23899998E+02 -0.54115E+04
 0.23949999E+02 -0.14754E+04
 0.23999998E+02  0.50679E+04
 0.24049999E+02  0.52835E+04
 0.24099998E+02  0.67545E+04
 0.24149998E+02  0.15410E+04
 0.24199999E+02  0.21967E+04
 0.24249998E+02  0.33049E+04
 0.24299999E+02 -0.12550E+04
 0.24349998E+02 -0.51738E+04
 0.24399998E+02  0.43135E+04
 0.24449999E+02  0.78461E+04
 0.24499998E+02  0.55170E+04
 0.24549999E+02  0.15856E+04
 0.24599998E+02  0.97880E+03
 0.24649998E+02 -0.37805E+04
 0.24699999E+02 -0.71219E+04
 0.24749998E+02  0.35948E+04
 0.24799999E+02  0.57651E+04
 0.24849998E+02  0.26108E+04
 0.24899998E+02 -0.10819E+04
 0.24949999E+02 -0.46507E+03
 0.24999998E+02  0.53714E+04
 0.25049999E+02  0.11735E+05
 0.25099998E+02  0.57025E+04
 0.25149998E+02 -0.80322E+04
 0.25199999E+02 -0.50253E+04
 0.25249998E+02  0.39843E+04
 0.25299999E+02  0.97225E+04
 0.25349998E+02  0.90846E+04
 0.25399998E+02  0.56837E+04
 0.25449999E+02  0.78518E+04
 0.25499998E+02  0.22042E+04
 0.25549999E+02 -0.85629E+04
 0.25599998E+02 -0.56472E+03
 0.25649998E+02  0.61735E+04
 0.25699999E+02 -0.75581E+03
 0.25749998E+02  0.72701E+04
 0.25799999E+02  0.37085E+04
 0.25849998E+02 -0.29204E+04
 0.25899998E+02  0.93222E+03
 0.25949999E+02 -0.20631E+04
 0.25999998E+02  0.35351E+04
 0.26049999E+02  0.60801E+04
 0.26099998E+02  0.42384E+04
 0.26149998E+02  0.10093E+05
 0.26199999E+02  0.74561E+04
 0.26249998E+02  0.30093E+04
 0.26299999E+02  0.39436E+04
 0.26349998E+02 -0.18950E+04
 0.26399998E+02  0.26152E+04
 0.26449999E+02  0.10626E+05
 0.26499998E+02 -0.44451E+04
 0.26549999E+02 -0.49989E+03
 0.26599998E+02  0.35914E+04
 0.26649998E+02 -0.68095E+04
 0.26699999E+02 -0.31112E+04
 0.26749998E+02  0.27431E+04
 0.26799999E+02  0.55893E+04
 0.26849998E+02  0.67242E+04
 0.26899998E+02  0.22882E+04
 0.26949999E+02  0.14624E+04
 0.26999998E+02  0.11407E+05
 0.27049997E+02  0.10271E+05
 0.27099998E+02  0.28893E+04
 0.27149998E+02 -0.49196E+04
 0.27199999E+02 -0.31255E+04
 0.27249998E+02  0.58427E+04
 0.27299997E+02  0.17841E+04
 0.27349998E+02  0.97110E+03
 0.27399998E+02  0.81017E+04
 0.27449999E+02  0.41299E+04
 0.27499998E+02  0.33310E+03
 0.27549997E+02  0.12396E+03
 0.27599998E+02 -0.22597E+04
 0.27649998E+02 -0.25321E+04
 0.27699999E+02 -0.36204E+04
 0.27749998E+02 -0.15527E+04
 0.27799997E+02  0.92259E+04
 0.27849998E+02  0.31183E+04
 0.27899998E+02 -0.43417E+04
 0.27949999E+02  0.16255E+04
 0.27999998E+02  0.35406E+04
 0.28049997E+02  0.81534E+04
 0.28099998E+02  0.31245E+04
 0.28149998E+02  0.20601E+04
 0.28199999E+02 -0.12335E+04
 0.28249998E+02  0.21751E+04
 0.28299997E+02  0.50975E+04
 0.28349998E+02  0.30879E+04
 0.28399998E+02  0.64027E+04
 0.28449999E+02  0.37372E+04
 0.28499998E+02  0.77477E+04
 0.28549997E+02  0.49262E+04
 0.28599998E+02  0.48362E+04
 0.28649998E+02  0.74537E+04
 0.28699999E+02  0.71713E+04
 0.28749998E+02  0.88195E+03
 0.28799997E+02  0.34614E+04
 0.28849998E+02  0.65720E+04
 0.28899998E+02  0.45041E+04
 0.28949999E+02  0.39486E+04
 0.28999998E+02 -0.19037E+04
 0.29049997E+02 -0.52395E+03
 0.29099998E+02 -0.24619E+04
 0.29149998E+02 -0.18301E+04
 0.29199999E+02 -0.21844E+04
 0.29249998E+02  0.16920E+03
 0.29299997E+02 -0.13166E+04
 0.29349998E+02 -0.32992E+04
 0.29399998E+02  0.91238E+03
 0.29449999E+02 -0.72987E+03
 0.29499998E+02  0.19503E+04
 0.29549997E+02  0.47946E+04
 0.29599998E+02  0.37058E+04
 0.29649998E+02  0.15946E+04
 0.29699999E+02  0.16539E+03
 0.29749998E+02 -0.63676E+03
 0.29799997E+02  0.81048E+04
 0.29849998E+02  0.10555E+05
 0.29899998E+02  0.35840E+04
 0.29949999E+02  0.11660E+04
 0.29999998E+02  0.75654E+04
 0.30049999E+02  0.11515E+05
 0.30099998E+02  0.70804E+04
 0.30149998E+02  0.42712E+04
 0.30199997E+02  0.34953E+04
 0.30249996E+02  0.84450E+04
 0.30299999E+02  0.74686E+04
 0.30349998E+02  0.11566E+04
 0.30399998E+02  0.13352E+04
 0.30449997E+02  0.48244E+04
 0.30499996E+02  0.34424E+04
 0.30549999E+02  0.41497E+04
 0.30599998E+02  0.41860E+04
 0.30649998E+02  0.38981E+04
 0.30699997E+02  0.33246E+04
 0.30749996E+02 -0.52664E+04
 0.30799999E+02 -0.10906E+05
 0.30849998E+02 -0.98329E+04
 0.30899998E+02 -0.58566E+04
 0.30949997E+02 -0.15919E+04
 0.30999996E+02  0.16723E+04
 0.31049999E+02  0.27496E+04
 0.31099998E+02  0.47617E+04
 0.31149998E+02  0.88049E+04
 0.31199997E+02  0.26263E+04
 0.31249996E+02 -0.12302E+04
 0.31299999E+02  0.56526E+04
 0.31349998E+02  0.42791E+04
 0.31399998E+02 -0.31102E+03
 0.31449997E+02 -0.10549E+04
 0.31499996E+02  0.42852E+04
 0.31549999E+02  0.70477E+04
 0.31599998E+02  0.26214E+04
 0.31649998E+02  0.18280E+04
 0.31699997E+02  0.39197E+04
 0.31749996E+02  0.64019E+04
 0.31799999E+02  0.51900E+04
 0.31849998E+02  0.39670E+04
 0.31899998E+02  0.13302E+04
 0.31949997E+02  0.19651E+03
 0.31999996E+02 -0.13985E+04
 0.32049999E+02 -0.25949E+03
 0.32099998E+02  0.40108E+04
 0.32149998E+02  0.42702E+04
 0.32199997E+02  0.87220E+04
 0.32249996E+02  0.34566E+04
 0.32299999E+02 -0.20664E+04
 0.32349998E+02 -0.14639E+04
 0.32399998E+02 -0.25669E+03
 0.32449997E+02  0.50691E+04
 0.32499996E+02  0.70984E+04
 0.32549999E+02  0.62069E+04
 0.32599998E+02  0.36477E+04
 0.32649998E+02  0.33365E+04
 0.32699997E+02  0.18832E+04
 0.32749996E+02  0.10608E+04
 0.32799999E+02  0.20910E+04
 0.32849998E+02  0.23818E+04
 0.32899998E+02 -0.10982E+04
 0.32949997E+02  0.52015E+03
 0.32999996E+02  0.65248E+04
 0.33049999E+02  0.36870E+04
 0.33099998E+02  0.71027E+03
 0.33149998E+02  0.46612E+04
 0.33199997E+02  0.57646E+04
 0.33249996E+02  0.23879E+04
 0.33299999E+02  0.34257E+04
 0.33349998E+02  0.27131E+04
 0.33399998E+02  0.47242E+03
 0.33449997E+02 -0.18289E+04
 0.33499996E+02 -0.55144E+04
 0.33549999E+02  0.38257E+03
 0.33599998E+02  0.45508E+04
 0.33649998E+02  0.12014E+04
 0.33699997E+02  0.40526E+04
 0.33749996E+02  0.30039E+04
 0.33799999E+02  0.17297E+04
 0.33849998E+02  0.26962E+04
 0.33899998E+02  0.19069E+04
 0.33949997E+02  0.30638E+04
 0.33999996E+02  0.23072E+04
 0.34049999E+02  0.13785E+04
 0.34099998E+02  0.38125E+04
 0.34149998E+02  0.61813E+04
 0.34199997E+02  0.25164E+04
 0.34249996E+02 -0.15728E+04
 0.34299999E+02 -0.31900E+04
 0.34349998E+02 -0.26583E+04
 0.34399998E+02 -0.88291E+03
 0.34449997E+02  0.10864E+04
 0.34499996E+02  0.30020E+04
 0.34549999E+02  0.46845E+04
 0.34599998E+02  0.68158E+04
 0.34649998E+02  0.40236E+04
 0.34699997E+02  0.80074E+04
 0.34749996E+02  0.86367E+04
 0.34799999E+02  0.34016E+04
 0.34849998E+02  0.18749E+04
 0.34899998E+02 -0.23452E+03
 0.34949997E+02 -0.27587E+02
 0.34999996E+02 -0.17763E+04
 0.35049999E+02  0.57557E+03
 0.35099998E+02  0.67884E+04
 0.35149998E+02  0.92981E+04
 0.35199997E+02  0.38400E+04
 0.35249996E+02  0.62302E+03
 0.35299999E+02  0.28486E+04
 0.35349998E+02  0.13412E+04
 0.35399998E+02 -0.27803E+04
 0.35449997E+02  0.69753E+03
 0.35499996E+02  0.50353E+04
 0.35549999E+02  0.60008E+04
 0.35599998E+02  0.68424E+04
 0.35649998E+02  0.36832E+04
 0.35699997E+02  0.39761E+04
 0.35749996E+02  0.63238E+04
 0.35799999E+02  0.20203E+04
 0.35849998E+02 -0.26673E+03
 0.35899998E+02  0.54031E+04
 0.35949997E+02  0.11038E+04
 0.35999996E+02 -0.42401E+04
 0.36049999E+02 -0.22287E+03
 0.36099998E+02  0.28800E+04
 0.36149998E+02  0.71130E+04
 0.36199997E+02  0.60637E+04
 0.36249996E+02  0.90665E+03
 0.36299999E+02  0.25179E+04
 0.36349998E+02 -0.26651E+03
 0.36399998E+02 -0.14571E+04
 0.36449997E+02  0.62222E+04
 0.36499996E+02  0.41030E+04
 0.36549999E+02  0.92377E+03
 0.36599998E+02  0.27351E+04
 0.36649998E+02  0.57101E+04
 0.36699997E+02  0.52661E+04
 0.36749996E+02  0.23674E+04
 0.36799999E+02 -0.23600E+03
 0.36849998E+02 -0.21499E+04
 0.36899998E+02  0.33426E+03
 0.36949997E+02  0.14936E+04
 0.36999996E+02  0.22149E+04
 0.37049999E+02  0.39352E+04
 0.37099998E+02  0.83063E+04
 0.37149998E+02  0.80717E+04
 0.37199997E+02  0.52168E+04
 0.37249996E+02  0.26982E+04
 0.37299999E+02 -0.56776E+03
 0.37349998E+02  0.16766E+03
 0.37399998E+02  0.17476E+03
 0.37449997E+02 -0.19240E+04
 0.37499996E+02 -0.20390E+04
 0.37549999E+02  0.17429E+04
 0.37599998E+02  0.78232E+04
 0.37649998E+02  0.88312E+04
 0.37699997E+02  0.27872E+04
 0.37749996E+02 -0.55242E+02
 0.37799999E+02 -0.45056E+03
 0.37849998E+02 -0.17621E+04
 0.37899998E+02 -0.22377E+04
 0.37949997E+02 -0.20005E+03
 0.37999996E+02  0.39842E+04
 0.38049999E+02  0.52375E+04
 0.38099998E+02  0.62796E+04
 0.38149998E+02  0.71416E+04
 0.38199997E+02  0.34287E+04
 0.38249996E+02  0.18430E+04
 0.38299999E+02  0.18995E+04
 0.38349998E+02  0.27561E+04
 0.38399998E+02  0.25940E+03
 0.38449997E+02 -0.33832E+04
 0.38499996E+02  0.11276E+04
 0.38549999E+02  0.41719E+04
 0.38599998E+02  0.38810E+04
 0.38649998E+02  0.39815E+04
 0.38699997E+02  0.64889E+04
 0.38749996E+02  0.36183E+04
 0.38799999E+02  0.65478E+03
 0.38849998E+02  0.19638E+04
 0.38899998E+02  0.25174E+04
 0.38949997E+02  0.41005E+04
 0.38999996E+02  0.61133E+04
 0.39049999E+02  0.64849E+04
 0.39099998E+02  0.35851E+04
 0.39149998E+02  0.35668E+04
 0.39199997E+02  0.21906E+04
 0.39249996E+02 -0.26258E+04
 0.39299999E+02 -0.11776E+04
 0.39349998E+02  0.92546E+02
 0.39399998E+02 -0.30272E+04
 0.39449997E+02 -0.11386E+04
 0.39499996E+02 -0.24008E+04
 0.39549999E+02  0.76497E+03
 0.39599998E+02  0.73095E+04
 0.39649998E+02  0.10913E+05
 0.39699997E+02  0.12992E+05
 0.39749996E+02  0.91880E+04
 0.39799999E+02  0.60905E+04
 0.39849998E+02  0.36304E+04
 0.39899998E+02  0.49221E+03
 0.39949997E+02 -0.36626E+04
 0.39999996E+02 -0.51987E+04
 0.40049999E+02 -0.88784E+04
 0.40099998E+02 -0.54336E+04
 0.40149998E+02 -0.21113E+04
 0.40199997E+02 -0.42212E+04
 0.40249996E+02  0.21753E+04
 0.40299999E+02  0.97582E+04
 0.40349998E+02  0.89628E+04
 0.40399998E+02  0.45599E+04
 0.40449997E+02  0.72073E+04
 0.40499996E+02  0.63179E+04
 0.40549999E+02  0.10473E+04
 0.40599998E+02  0.36122E+04
 0.40649998E+02  0.12535E+05
 0.40699997E+02  0.65995E+04
 0.40749996E+02  0.48838E+02
 0.40799999E+02  0.13215E+04
 0.40849998E+02 -0.14995E+04
 0.40899998E+02 -0.41223E+04
 0.40949997E+02 -0.52703E+04
 0.40999996E+02  0.71611E+03
 0.41049999E+02  0.41700E+04
 0.41099998E+02  0.92736E+04
 0.41149998E+02  0.91497E+04
 0.41199997E+02 -0.17070E+04
 0.41249996E+02 -0.20267E+04
 0.41299999E+02  0.83044E+04
 0.41349998E+02  0.11643E+05
 0.41399998E+02  0.27795E+04
 0.41449997E+02  0.30317E+04
 0.41499996E+02  0.98451E+04
 0.41549999E+02  0.67425E+04
 0.41599998E+02 -0.17182E+04
 0.41649998E+02 -0.81312E+04
 0.41699997E+02 -0.24690E+04
 0.41749996E+02  0.61604E+04
 0.41799999E+02  0.38622E+04
 0.41849998E+02 -0.22913E+04
 0.41899998E+02 -0.43005E+03
 0.41949997E+02  0.76191E+04
 0.41999996E+02  0.10660E+05
 0.42049999E+02  0.52916E+04
 0.42099998E+02  0.24393E+04
 0.42149998E+02  0.94352E+03
 0.42199997E+02 -0.45224E+04
 0.42249996E+02 -0.41797E+04
 0.42299999E+02  0.42897E+04
 0.42349998E+02  0.12436E+05
 0.42399998E+02  0.91558E+04
 0.42449997E+02  0.55597E+03
 0.42499996E+02 -0.43618E+04
 0.42549999E+02 -0.10542E+05
 0.42599998E+02 -0.90433E+04
 0.42649998E+02  0.52610E+04
 0.42699997E+02  0.92986E+04
 0.42749996E+02  0.60595E+04
 0.42799995E+02  0.64008E+04
 0.42849998E+02  0.35825E+04
 0.42899998E+02  0.16772E+04
 0.42949997E+02  0.51396E+04
 0.42999996E+02  0.13916E+05
 0.43049995E+02  0.82432E+04
 0.43099998E+02 -0.79472E+04
 0.43149998E+02 -0.49796E+04
 0.43199997E+02  0.44115E+04
 0.43249996E+02  0.48097E+03
 0.43299995E+02 -0.59444E+03
 0.43349998E+02  0.10500E+05
 0.43399998E+02  0.12320E+05
 0.43449997E+02  0.41391E+04
 0.43499996E+02  0.30080E+04
 0.43549995E+02  0.27845E+04
 0.43599998E+02 -0.51726E+03
 0.43649998E+02  0.31254E+04
 0.43699997E+02  0.63527E+04
 0.43749996E+02  0.45209E+04
 0.43799995E+02 -0.34786E+04
 0.43849998E+02 -0.10574E+05
 0.43899998E+02 -0.34471E+04
 0.43949997E+02  0.13622E+04
 0.43999996E+02  0.20705E+04
 0.44049995E+02  0.59661E+04
 0.44099998E+02  0.72437E+04
 0.44149998E+02  0.41725E+04
 0.44199997E+02 -0.77176E+03
 0.44249996E+02 -0.33715E+03
 0.44299995E+02  0.15015E+04
 0.44349998E+02  0.11922E+03
 0.44399998E+02 -0.72123E+03
 0.44449997E+02  0.31064E+04
 0.44499996E+02  0.57296E+04
 0.44549995E+02  0.28199E+04
 0.44599998E+02  0.27493E+04
 0.44649998E+02  0.23817E+04
 0.44699997E+02  0.13589E+04
 0.44749996E+02  0.11600E+04
 0.44799995E+02  0.10470E+04
 0.44849998E+02  0.26193E+04
 0.44899998E+02  0.40078E+04
 0.44949997E+02  0.43722E+04
 0.44999996E+02  0.24372E+04
 0.45049995E+02  0.27461E+04
 0.45099998E+02  0.40650E+04
 0.45149998E+02  0.26445E+04
 0.45199997E+02  0.16262E+04
 0.45249996E+02  0.21718E+04
 0.45299995E+02  0.39725E+04
 0.45349998E+02  0.45655E+04
 0.45399998E+02  0.46917E+04
 0.45449997E+02  0.28414E+04
 0.45499996E+02  0.22305E+04
 0.45549995E+02  0.73307E+04
 0.45599998E+02  0.11207E+05
 0.45649998E+02  0.74378E+04
 0.45699997E+02  0.10417E+04
 0.45749996E+02 -0.13813E+04
 0.45799995E+02  0.81206E+03
 0.45849998E+02  0.47126E+04
 0.45899998E+02  0.32701E+04
 0.45949997E+02 -0.18360E+04
 0.45999996E+02 -0.52530E+04
 0.46049995E+02 -0.37086E+04
 0.46099998E+02 -0.26189E+04
 0.46149998E+02 -0.27485E+04
 0.46199997E+02 -0.31076E+04
 0.46249996E+02 -0.24695E+04
 0.46299995E+02  0.33115E+04
 0.46349998E+02  0.93006E+04
 0.46399998E+02  0.12051E+05
 0.46449997E+02  0.11849E+05
 0.46499996E+02  0.12223E+05
 0.46549995E+02  0.10731E+05
 0.46599998E+02  0.70219E+04
 0.46649998E+02  0.21554E+04
 0.46699997E+02  0.61790E+02
 0.46749996E+02  0.40516E+04
 0.46799995E+02  0.58229E+04
 0.46849998E+02  0.28630E+04
 0.46899998E+02 -0.25375E+02
 0.46949997E+02 -0.10760E+04
 0.46999996E+02 -0.13146E+04
 0.47049995E+02 -0.34831E+03
 0.47099998E+02 -0.22547E+04
 0.47149998E+02 -0.70574E+04
 0.47199997E+02 -0.75091E+04
 0.47249996E+02 -0.72706E+04
 0.47299995E+02 -0.67465E+04
 0.47349998E+02 -0.11491E+04
 0.47399998E+02  0.48993E+04
 0.47449997E+02  0.96713E+04
 0.47499996E+02  0.12494E+05
 0.47549995E+02  0.12085E+05
 0.47599998E+02  0.74325E+04
 0.47649998E+02  0.20544E+04
 0.47699997E+02  0.85357E+03
 0.47749996E+02 -0.75922E+03
 0.47799995E+02 -0.24156E+04
 0.47849998E+02 -0.34909E+03
 0.47899998E+02  0.37643E+04
 0.47949997E+02  0.69654E+04
 0.47999996E+02  0.10072E+05
 0.48049995E+02  0.92356E+04
 0.48099998E+02  0.34334E+04
 0.48149998E+02 -0.22660E+04
 0.48199997E+02 -0.52139E+04
 0.48249996E+02 -0.65651E+04
 0.48299995E+02 -0.61248E+04
 0.48349998E+02 -0.25043E+04
 0.48399998E+02  0.52654E+02
 0.48449997E+02  0.18347E+04
 0.48499996E+02  0.48755E+04
 0.48549995E+02  0.72978E+04
 0.48599998E+02  0.68920E+04
 0.48649998E+02  0.55627E+04
 0.48699997E+02  0.57380E+04
 0.48749996E+02  0.61675E+04
 0.48799995E+02  0.73233E+04
 0.48849998E+02  0.94614E+04
 0.48899998E+02  0.71886E+04
 0.48949997E+02  0.33135E+04
 0.48999996E+02  0.26349E+04
 0.49049995E+02  0.17173E+04
 0.49099998E+02  0.23140E+03
 0.49149998E+02 -0.16348E+04
 0.49199997E+02 -0.29029E+04
 0.49249996E+02 -0.32724E+04
 0.49299995E+02 -0.24709E+04
 0.49349998E+02 -0.43733E+03
 0.49399998E+02  0.10086E+04
 0.49449997E+02  0.15241E+04
 0.49499996E+02  0.85780E+03
 0.49549995E+02  0.22057E+04
 0.49599998E+02  0.63012E+04
 0.49649998E+02  0.96004E+04
 0.49699997E+02  0.11891E+05
 0.49749996E+02  0.13789E+05
 0.49799995E+02  0.12564E+05
 0.49849998E+02  0.73216E+04
 0.49899998E+02 -0.17865E+04
 0.49949997E+02 -0.10117E+05
 0.49999996E+02 -0.13852E+05
 0.50049995E+02 -0.15326E+05
 0.50099998E+02 -0.14821E+05
 0.50149998E+02 -0.94068E+04
 0.50199997E+02  0.63774E+03
 0.50249996E+02  0.12103E+05
 0.50299995E+02  0.18542E+05
 0.50349998E+02  0.17541E+05
 0.50399998E+02  0.14653E+05
 0.50449997E+02  0.88980E+04
 0.50499996E+02  0.33615E+04
 0.50549995E+02  0.18678E+04
 0.50599998E+02  0.29563E+04
 0.50649998E+02  0.23154E+04
 0.50699997E+02  0.21826E+04
 0.50749996E+02  0.16503E+04
 0.50799995E+02  0.18935E+04
 0.50849998E+02  0.51199E+04
 0.50899998E+02  0.11060E+04
 0.50949997E+02 -0.44136E+04
 0.50999996E+02 -0.68930E+04
 0.51049995E+02 -0.80300E+04
 0.51099998E+02 -0.59699E+04
 0.51149998E+02 -0.98889E+03
 0.51199997E+02  0.53939E+04
 0.51249996E+02  0.85241E+04
 0.51299995E+02  0.97810E+04
 0.51349998E+02  0.10847E+05
 0.51399998E+02  0.10524E+05
 0.51449997E+02  0.75173E+04
 0.51499996E+02  0.16751E+04
 0.51549995E+02 -0.24782E+04
 0.51599998E+02 -0.30223E+04
 0.51649998E+02 -0.12730E+04
 0.51699997E+02  0.29411E+03
 0.51749996E+02  0.35377E+03
 0.51799995E+02  0.15982E+04
 0.51849998E+02  0.46903E+04
 0.51899998E+02  0.65532E+04
 0.51949997E+02  0.80168E+04
 0.51999996E+02  0.77183E+04
 0.52049995E+02  0.54765E+04
 0.52099998E+02  0.50184E+04
 0.52149998E+02  0.53354E+04
 0.52199997E+02  0.61782E+04
 0.52249996E+02  0.70262E+04
 0.52299995E+02  0.52771E+04
 0.52349998E+02  0.89883E+02
 0.52399998E+02 -0.54290E+04
 0.52449997E+02 -0.90068E+04
 0.52499996E+02 -0.66151E+04
 0.52549995E+02 -0.10448E+04
 0.52599998E+02  0.22796E+04
 0.52649998E+02  0.57635E+04
 0.52699997E+02  0.88253E+04
 0.52749996E+02  0.84096E+04
 0.52799995E+02  0.57813E+04
 0.52849998E+02  0.56945E+04
 0.52899998E+02  0.74371E+04
 0.52949997E+02  0.76950E+04
 0.52999996E+02  0.55413E+04
 0.53049995E+02  0.22122E+04
 0.53099998E+02 -0.54351E+02
 0.53149998E+02 -0.26165E+03
 0.53199997E+02 -0.11460E+04
 0.53249996E+02 -0.24455E+04
 0.53299995E+02 -0.34372E+04
 0.53349998E+02 -0.40692E+04
 0.53399998E+02 -0.24327E+04
 0.53449997E+02 -0.30452E+03
 0.53499996E+02  0.20549E+04
 0.53549995E+02  0.47709E+04
 0.53599998E+02  0.60846E+04
 0.53649998E+02  0.60679E+04
 0.53699997E+02  0.45500E+04
 0.53749996E+02  0.11402E+04
 0.53799995E+02 -0.18415E+04
 0.53849998E+02 -0.14919E+04
 0.53899998E+02  0.15330E+04
 0.53949997E+02  0.52779E+04
 0.53999996E+02  0.72833E+04
 0.54049995E+02  0.42088E+04
 0.54099998E+02  0.25597E+04
 0.54149998E+02  0.20110E+04
 0.54199997E+02  0.36240E+03
 0.54249996E+02  0.11946E+04
 0.54299995E+02  0.30071E+04
 0.54349998E+02  0.74737E+04
 0.54399998E+02  0.12840E+05
 0.54449997E+02  0.14748E+05
 0.54499996E+02  0.10647E+05
 0.54549995E+02  0.50043E+04
 0.54599998E+02  0.10229E+04
 0.54649998E+02 -0.93639E+03
 0.54699997E+02 -0.12276E+04
 0.54749996E+02 -0.21059E+04
 0.54799995E+02 -0.17294E+04
 0.54849998E+02 -0.22272E+04
 0.54899998E+02 -0.34003E+04
 0.54949997E+02 -0.11443E+04
 0.54999996E+02  0.41145E+04
 0.55049995E+02  0.85785E+04
 0.55099998E+02  0.91902E+04
 0.55149998E+02  0.74638E+04
 0.55199997E+02  0.46784E+04
 0.55249996E+02  0.26632E+04
 0.55299995E+02  0.20671E+04
 0.55349998E+02 -0.29747E+03
 0.55399998E+02 -0.36277E+04
 0.55449997E+02 -0.40605E+04
 0.55499996E+02 -0.20834E+04
 0.55549995E+02 -0.19898E+04
 0.55599998E+02 -0.42788E+04
 0.55649998E+02 -0.53023E+04
 0.55699997E+02 -0.44775E+04
 0.55749996E+02 -0.24569E+04
 0.55799995E+02  0.50214E+03
 0.55849995E+02  0.39401E+04
 0.55899998E+02  0.88909E+04
 0.55949997E+02  0.13094E+05
 0.55999996E+02  0.13643E+05
 0.56049995E+02  0.10153E+05
 0.56099995E+02  0.45493E+04
 0.56149998E+02  0.14235E+04
 0.56199997E+02  0.19158E+04
 0.56249996E+02  0.25416E+04
 0.56299995E+02  0.17115E+04
 0.56349995E+02  0.48372E+03
 0.56399998E+02 -0.85566E+03
 0.56449997E+02 -0.15192E+04
 0.56499996E+02  0.27351E+03
 0.56549995E+02  0.23159E+04
 0.56599995E+02  0.31145E+04
 0.56649998E+02  0.58088E+04
 0.56699997E+02  0.91461E+04
 0.56749996E+02  0.10903E+05
 0.56799995E+02  0.10639E+05
 0.56849995E+02  0.82538E+04
 0.56899998E+02  0.49337E+04
 0.56949997E+02  0.12092E+04
 0.56999996E+02 -0.26111E+04
 0.57049995E+02 -0.60125E+04
 0.57099995E+02 -0.64212E+04
 0.57149998E+02 -0.51257E+04
 0.57199997E+02 -0.41329E+04
 0.57249996E+02 -0.27190E+04
 0.57299995E+02 -0.58497E+03
 0.57349995E+02  0.21773E+04
 0.57399998E+02  0.49135E+04
 0.57449997E+02  0.64646E+04
 0.57499996E+02  0.56950E+04
 0.57549995E+02  0.42885E+04
 0.57599995E+02  0.34665E+04
 0.57649998E+02  0.45121E+04
 0.57699997E+02  0.79874E+04
 0.57749996E+02  0.92005E+04
 0.57799995E+02  0.73208E+04
 0.57849995E+02  0.43597E+04
 0.57899998E+02  0.45170E+03
 0.57949997E+02 -0.14053E+04
 0.57999996E+02 -0.50217E+03
 0.58049995E+02  0.10840E+04
 0.58099995E+02  0.17240E+04
 0.58149998E+02  0.13701E+04
 0.58199997E+02  0.11834E+04
 0.58249996E+02  0.27588E+04
 0.58299995E+02  0.55688E+04
 0.58349995E+02  0.71085E+04
 0.58399998E+02  0.71484E+04
 0.58449997E+02  0.52591E+04
 0.58499996E+02  0.16736E+04
 0.58549995E+02 -0.15426E+04
 0.58599995E+02 -0.32916E+04
 0.58649998E+02 -0.37896E+04
 0.58699997E+02 -0.36997E+04
 0.58749996E+02 -0.27241E+04
 0.58799995E+02 -0.64761E+03
 0.58849995E+02  0.14023E+04
 0.58899998E+02  0.18309E+04
 0.58949997E+02  0.20285E+04
 0.58999996E+02  0.27750E+04
 0.59049995E+02  0.38682E+04
 0.59099995E+02  0.46654E+04
 0.59149998E+02  0.64390E+04
 0.59199997E+02  0.84853E+04
 0.59249996E+02  0.92881E+04
 0.59299995E+02  0.93562E+04
 0.59349995E+02  0.75303E+04
 0.59399998E+02  0.48411E+04
 0.59449997E+02  0.15260E+04
 0.59499996E+02 -0.19464E+04
 0.59549995E+02 -0.27291E+04
 0.59599995E+02 -0.12917E+04
 0.59649998E+02  0.13282E+03
 0.59699997E+02  0.12050E+04
 0.59749996E+02  0.20762E+04
 0.59799995E+02  0.37430E+04
 0.59849995E+02  0.54508E+04
 0.59899998E+02  0.68426E+04
 0.59949997E+02  0.76890E+04
 0.59999996E+02  0.67673E+04
 0.60049995E+02  0.39194E+04
 0.60099995E+02  0.85331E+03
 0.60149998E+02 -0.81710E+03
 0.60199997E+02 -0.16707E+04
 0.60249996E+02 -0.17881E+04
 0.60299995E+02 -0.93825E+03
 0.60349995E+02 -0.95012E+02
 0.60399998E+02  0.98526E+03
 0.60449997E+02  0.19191E+04
 0.60499996E+02  0.27312E+04
 0.60549995E+02  0.30411E+04
 0.60599995E+02  0.33846E+04
 0.60649998E+02  0.40201E+04
 0.60699997E+02  0.28138E+04
 0.60749996E+02  0.84954E+03
 0.60799995E+02 -0.11725E+04
 0.60849995E+02 -0.18228E+04
 0.60899998E+02 -0.76585E+03
 0.60949997E+02  0.15830E+04
 0.60999996E+02  0.34462E+04
 0.61049995E+02  0.33970E+04
 0.61099995E+02  0.32761E+04
 0.61149998E+02  0.25880E+04
 0.61199997E+02  0.17792E+04
 0.61249996E+02  0.69777E+03
 0.61299995E+02  0.75152E+02
 0.61349995E+02  0.16226E+04
 0.61399998E+02  0.43780E+04
 0.61449997E+02  0.61432E+04
 0.61499996E+02  0.63053E+04
 0.61549995E+02  0.50229E+04
 0.61599995E+02  0.26580E+04
 0.61649998E+02  0.13079E+04
 0.61699997E+02  0.79622E+03
 0.61749996E+02  0.16919E+04
 0.61799995E+02  0.28438E+04
 0.61849995E+02  0.34714E+04
 0.61899998E+02  0.44137E+04
 0.61949997E+02  0.48228E+04
 0.61999996E+02  0.39083E+04
 0.62049995E+02  0.15007E+04
 0.62099998E+02  0.43035E+03
 0.62149994E+02  0.54632E+03
 0.62199997E+02  0.98756E+03
 0.62249992E+02  0.25235E+04
 0.62299995E+02  0.50002E+04
 0.62349998E+02  0.65884E+04
 0.62399994E+02  0.63173E+04
 0.62449997E+02  0.57412E+04
 0.62499992E+02  0.52516E+04
 0.62549995E+02  0.40141E+04
 0.62599998E+02  0.19983E+04
 0.62649994E+02  0.88423E+03
 0.62699997E+02 -0.18563E+03
 0.62749992E+02 -0.75165E+03
 0.62799995E+02 -0.40334E+03
 0.62849998E+02  0.10008E+04
 0.62899994E+02  0.29642E+04
 0.62949997E+02  0.42821E+04
 0.62999992E+02  0.51992E+04
 0.63049995E+02  0.39249E+04
 0.63099998E+02  0.23698E+04
 0.63149994E+02  0.22690E+04
 0.63199997E+02  0.27937E+04
 0.63249992E+02  0.30261E+04
 0.63299995E+02  0.32180E+04
 0.63349998E+02  0.31403E+04
 0.63399994E+02  0.36558E+04
 0.63449997E+02  0.47347E+04
 0.63499992E+02  0.49230E+04
 0.63549995E+02  0.43400E+04
 0.63599998E+02  0.18117E+04
 0.63649994E+02 -0.18415E+04
 0.63699997E+02 -0.46089E+04
 0.63749992E+02 -0.52750E+04
 0.63799995E+02 -0.39398E+04
 0.63849998E+02 -0.12304E+04
 0.63899994E+02  0.13368E+04
 0.63949997E+02  0.39001E+04
 0.63999992E+02  0.62082E+04
 0.64049995E+02  0.77474E+04
 0.64099998E+02  0.88294E+04
 0.64149994E+02  0.88726E+04
 0.64199997E+02  0.71790E+04
 0.64249992E+02  0.44637E+04
 0.64299995E+02  0.25325E+04
 0.64349998E+02  0.12571E+04
 0.64399994E+02  0.64362E+03
 0.64449997E+02  0.13843E+04
 0.64499992E+02  0.20847E+04
 0.64549995E+02  0.71409E+03
 0.64599998E+02 -0.18421E+04
 0.64649994E+02 -0.35368E+04
 0.64699997E+02 -0.30060E+04
 0.64749992E+02 -0.41803E+02
 0.64799995E+02  0.36302E+04
 0.64849998E+02  0.52295E+04
 0.64899994E+02  0.54968E+04
 0.64949997E+02  0.47686E+04
 0.64999992E+02  0.27830E+04
 0.65049995E+02  0.10865E+04
 0.65099998E+02  0.53671E+03
 0.65149994E+02  0.78371E+03
 0.65199997E+02  0.90828E+03
 0.65249992E+02  0.80605E+03
 0.65299995E+02  0.26344E+03
 0.65349998E+02  0.20069E+03
 0.65399994E+02  0.17251E+04
 0.65449997E+02  0.35403E+04
 0.65499992E+02  0.48765E+04
 0.65549995E+02  0.59276E+04
 0.65599998E+02  0.60983E+04
 0.65649994E+02  0.60042E+04
 0.65699997E+02  0.58831E+04
 0.65749992E+02  0.57256E+04
 0.65799995E+02  0.58517E+04
 0.65849998E+02  0.51129E+04
 0.65899994E+02  0.42893E+04
 0.65949997E+02  0.41330E+04
 0.65999992E+02  0.35699E+04
 0.66049995E+02  0.27575E+04
 0.66099998E+02  0.19120E+04
 0.66149994E+02  0.23751E+04
 0.66199997E+02  0.30180E+04
 0.66249992E+02  0.26180E+04
 0.66299995E+02  0.14470E+04
 0.66349998E+02  0.93484E+03
 0.66399994E+02  0.22360E+04
 0.66449997E+02  0.29591E+04
 0.66499992E+02  0.23774E+04
 0.66549995E+02  0.14436E+04
 0.66599998E+02 -0.46625E+02
 0.66649994E+02 -0.19672E+04
 0.66699997E+02 -0.27478E+04
 0.66749992E+02 -0.24730E+04
 0.66799995E+02 -0.14509E+04
 0.66849998E+02  0.40223E+03
 0.66899994E+02  0.28799E+04
 0.66949997E+02  0.50392E+04
 0.66999992E+02  0.58426E+04
 0.67049995E+02  0.48282E+04
 0.67099998E+02  0.29868E+04
 0.67149994E+02  0.23646E+04
 0.67199997E+02  0.26961E+04
 0.67249992E+02  0.26171E+04
 0.67299995E+02  0.31614E+04
 0.67349998E+02  0.47868E+04
 0.67399994E+02  0.58524E+04
 0.67449997E+02  0.63948E+04
 0.67499992E+02  0.55740E+04
 0.67549995E+02  0.36676E+04
 0.67599998E+02  0.17473E+04
 0.67649994E+02 -0.86238E+03
 0.67699997E+02 -0.21342E+04
 0.67749992E+02 -0.11371E+04
 0.67799995E+02  0.47726E+03
 0.67849998E+02  0.22565E+04
 0.67899994E+02  0.33463E+04
 0.67949997E+02  0.31424E+04
 0.67999992E+02  0.26090E+04
 0.68049995E+02  0.27094E+04
 0.68099998E+02  0.32977E+04
 0.68149994E+02  0.34035E+04
 0.68199997E+02  0.26652E+04
 0.68249992E+02  0.14336E+04
 0.68299995E+02  0.43742E+03
 0.68349998E+02  0.15199E+03
 0.68399994E+02  0.73975E+03
 0.68449997E+02  0.24632E+04
 0.68499992E+02  0.39775E+04
 0.68549995E+02  0.44540E+04
 0.68599998E+02  0.44172E+04
 0.68649994E+02  0.40911E+04
 0.68699997E+02  0.34263E+04
 0.68749992E+02  0.28103E+04
 0.68799995E+02  0.19563E+04
 0.68849998E+02  0.12346E+04
 0.68899994E+02  0.11253E+04
 0.68949997E+02  0.11465E+04
 0.68999992E+02  0.23874E+04
 0.69049995E+02  0.42419E+04
 0.69099998E+02  0.48461E+04
 0.69149994E+02  0.39450E+04
 0.69199997E+02  0.24377E+04
 0.69249992E+02  0.12079E+04
 0.69299995E+02  0.44747E+03
 0.69349998E+02  0.11676E+04
 0.69399994E+02  0.30517E+04
 0.69449997E+02  0.43823E+04
 0.69499992E+02  0.52058E+04
 0.69549995E+02  0.53812E+04
 0.69599998E+02  0.48118E+04
 0.69649994E+02  0.36225E+04
 0.69699997E+02  0.23227E+04
 0.69749992E+02  0.14749E+04
 0.69799995E+02  0.15516E+04
 0.69849998E+02  0.17721E+04
 0.69899994E+02  0.19391E+04
 0.69949997E+02  0.26759E+04
 0.69999992E+02  0.34952E+04
 0.70049995E+02  0.44563E+04
 0.70099998E+02  0.49204E+04
 0.70149994E+02  0.47632E+04
 0.70199997E+02  0.34859E+04
 0.70249992E+02  0.15499E+04
 0.70299995E+02 -0.28972E+03
 0.70349998E+02 -0.92426E+03
 0.70399994E+02  0.36810E+03
 0.70449997E+02  0.20031E+04
 0.70499992E+02  0.28052E+04
 0.70549995E+02  0.21621E+04
 0.70599998E+02  0.44881E+03
 0.70649994E+02 -0.12065E+04
 0.70699997E+02 -0.22018E+04
 0.70749992E+02 -0.29438E+04
 0.70799995E+02 -0.28972E+04
 0.70849998E+02 -0.21276E+04
 0.70899994E+02 -0.12189E+04
 0.70949997E+02  0.83450E+01
 0.70999992E+02  0.16368E+04
 0.71049995E+02  0.35614E+04
 0.71099998E+02  0.56124E+04
 0.71149994E+02  0.73241E+04
 0.71199997E+02  0.84448E+04
 0.71249992E+02  0.90228E+04
 0.71299995E+02  0.86360E+04
 0.71349998E+02  0.71272E+04
 0.71399994E+02  0.47440E+04
 0.71449997E+02  0.30691E+04
 0.71499992E+02  0.23877E+04
 0.71549995E+02  0.22146E+04
 0.71599998E+02  0.23276E+04
 0.71649994E+02  0.27222E+04
 0.71699997E+02  0.28853E+04
 0.71749992E+02  0.26270E+04
 0.71799995E+02  0.27755E+04
 0.71849998E+02  0.26572E+04
 0.71899994E+02  0.19212E+04
 0.71949997E+02  0.60877E+03
 0.71999992E+02 -0.19713E+02
 0.72049995E+02  0.35373E+03
 0.72099998E+02  0.17458E+04
 0.72149994E+02  0.37218E+04
 0.72199997E+02  0.53980E+04
 0.72249992E+02  0.63103E+04
 0.72299995E+02  0.57562E+04
 0.72349998E+02  0.48123E+04
 0.72399994E+02  0.36039E+04
 0.72449997E+02  0.14383E+04
 0.72499992E+02 -0.67421E+03
 0.72549995E+02 -0.11263E+04
 0.72599998E+02 -0.95004E+03
 0.72649994E+02 -0.10113E+04
 0.72699997E+02 -0.48584E+03
 0.72749992E+02  0.93219E+03
 0.72799995E+02  0.22091E+04
 0.72849998E+02  0.24717E+04
 0.72899994E+02  0.27781E+04
 0.72949997E+02  0.32623E+04
 0.72999992E+02  0.32089E+04
 0.73049995E+02  0.26298E+04
 0.73099998E+02  0.23261E+04
 0.73149994E+02  0.27231E+04
 0.73199997E+02  0.31997E+04
 0.73249992E+02  0.33376E+04
 0.73299995E+02  0.31795E+04
 0.73349998E+02  0.26649E+04
 0.73399994E+02  0.18578E+04
 0.73449997E+02  0.12758E+04
 0.73499992E+02  0.14221E+04
 0.73549995E+02  0.29718E+04
 0.73599998E+02  0.47986E+04
 0.73649994E+02  0.54706E+04
 0.73699997E+02  0.47869E+04
 0.73749992E+02  0.30608E+04
 0.73799995E+02  0.14906E+04
 0.73849998E+02  0.40056E+03
 0.73899994E+02  0.47951E+03
 0.73949997E+02  0.12419E+04
 0.73999992E+02  0.17399E+04
 0.74049995E+02  0.21437E+04
 0.74099998E+02  0.21347E+04
 0.74149994E+02  0.20065E+04
 0.74199997E+02  0.20825E+04
 0.74249992E+02  0.19086E+04
 0.74299995E+02  0.15353E+04
 0.74349998E+02  0.18165E+04
 0.74399994E+02  0.30808E+04
 0.74449997E+02  0.48351E+04
 0.74499992E+02  0.56913E+04
 0.74549995E+02  0.52511E+04
 0.74599998E+02  0.47115E+04
 0.74649994E+02  0.44745E+04
 0.74699997E+02  0.45106E+04
 0.74749992E+02  0.44378E+04
 0.74799995E+02  0.36866E+04
 0.74849998E+02  0.29687E+04
 0.74899994E+02  0.22263E+04
 0.74949997E+02  0.95930E+03
 0.74999992E+02 -0.11367E+02
 0.75049995E+02 -0.17893E+03
 0.75099998E+02  0.25683E+03
 0.75149994E+02  0.13750E+04
 0.75199997E+02  0.29049E+04
 0.75249992E+02  0.42140E+04
 0.75299995E+02  0.49980E+04
 0.75349998E+02  0.54876E+04
 0.75399994E+02  0.53206E+04
 0.75449997E+02  0.38382E+04
 0.75499992E+02  0.23703E+04
 0.75549995E+02  0.17383E+04
 0.75599998E+02  0.10507E+04
 0.75649994E+02  0.23211E+03
 0.75699997E+02 -0.34873E+03
 0.75749992E+02 -0.48290E+03
 0.75799995E+02 -0.81018E+02
 0.75849998E+02  0.52848E+03
 0.75899994E+02  0.10386E+04
 0.75949997E+02  0.14167E+04
 0.75999992E+02  0.20441E+04
 0.76049995E+02  0.32538E+04
 0.76099998E+02  0.42601E+04
 0.76149994E+02  0.45731E+04
 0.76199997E+02  0.46089E+04
 0.76249992E+02  0.42642E+04
 0.76299995E+02  0.34439E+04
 0.76349998E+02  0.27229E+04
 0.76399994E+02  0.22908E+04
 0.76449997E+02  0.18382E+04
 0.76499992E+02  0.12216E+04
 0.76549995E+02  0.29811E+03
 0.76599998E+02 -0.47133E+03
 0.76649994E+02 -0.63954E+03
 0.76699997E+02 -0.48214E+02
 0.76749992E+02  0.12376E+04
 0.76799995E+02  0.27438E+04
 0.76849998E+02  0.40018E+04
 0.76899994E+02  0.46855E+04
 0.76949997E+02  0.43715E+04
 0.76999992E+02  0.36451E+04
 0.77049995E+02  0.30415E+04
 0.77099998E+02  0.27511E+04
 0.77149994E+02  0.28577E+04
 0.77199997E+02  0.30538E+04
 0.77249992E+02  0.35054E+04
 0.77299995E+02  0.34587E+04
 0.77349998E+02  0.29263E+04
 0.77399994E+02  0.23549E+04
 0.77449997E+02  0.15937E+04
 0.77499992E+02  0.86291E+03
 0.77549995E+02  0.54664E+03
 0.77599998E+02  0.74716E+03
 0.77649994E+02  0.14417E+04
 0.77699997E+02  0.24912E+04
 0.77749992E+02  0.34014E+04
 0.77799995E+02  0.38694E+04
 0.77849998E+02  0.38859E+04
 0.77899994E+02  0.38935E+04
 0.77949997E+02  0.39964E+04
 0.77999992E+02  0.39611E+04
 0.78049995E+02  0.37817E+04
 0.78099998E+02  0.37244E+04
 0.78149994E+02  0.38566E+04
 0.78199997E+02  0.38350E+04
 0.78249992E+02  0.36932E+04
 0.78299995E+02  0.32719E+04
 0.78349998E+02  0.26674E+04
 0.78399994E+02  0.22696E+04
 0.78449997E+02  0.19876E+04
 0.78499992E+02  0.16692E+04
 0.78549995E+02  0.14310E+04
 0.78599998E+02  0.12179E+04
 0.78649994E+02  0.11270E+04
 0.78699997E+02  0.11088E+04
 0.78749992E+02  0.88290E+03
 0.78799995E+02  0.10486E+04
 0.78849998E+02  0.15134E+04
 0.78899994E+02  0.18714E+04
 0.78949997E+02  0.22396E+04
 0.78999992E+02  0.27519E+04
 0.79049995E+02  0.31007E+04
 0.79099998E+02  0.30211E+04
 0.79149994E+02  0.24967E+04
 0.79199997E+02  0.17228E+04
 0.79249992E+02  0.13189E+04
 0.79299995E+02  0.11661E+04
 0.79349998E+02  0.13329E+04
 0.79399994E+02  0.21308E+04
 0.79449997E+02  0.29062E+04
 0.79499992E+02  0.34806E+04
 0.79549995E+02  0.38618E+04
 0.79599998E+02  0.36752E+04
 0.79649994E+02  0.31368E+04
 0.79699997E+02  0.21626E+04
 0.79749992E+02  0.13612E+04
 0.79799995E+02  0.11782E+04
 0.79849998E+02  0.16967E+04
 0.79899994E+02  0.26995E+04
 0.79949997E+02  0.35482E+04
 0.79999992E+02  0.39773E+04
 0.80049995E+02  0.34207E+04
 0.80099998E+02  0.25986E+04
 0.80149994E+02  0.24199E+04
 0.80199997E+02  0.30679E+04
 0.80249992E+02  0.42485E+04
 0.80299995E+02  0.54613E+04
 0.80349998E+02  0.60477E+04
 0.80399994E+02  0.53173E+04
 0.80449997E+02  0.39288E+04
 0.80499992E+02  0.23812E+04
 0.80549995E+02  0.77331E+03
 0.80599998E+02 -0.51525E+03
 0.80649994E+02 -0.93244E+03
 0.80699997E+02 -0.22658E+03
 0.80749992E+02  0.69575E+03
 0.80799995E+02  0.17509E+04
 0.80849998E+02  0.28691E+04
 0.80899994E+02  0.33908E+04
 0.80949997E+02  0.36455E+04
 0.80999992E+02  0.37364E+04
 0.81049995E+02  0.31654E+04
 0.81099998E+02  0.25203E+04
 0.81149994E+02  0.25249E+04
 0.81199997E+02  0.30835E+04
 0.81249992E+02  0.36269E+04
 0.81299995E+02  0.35519E+04
 0.81349998E+02  0.28407E+04
 0.81399994E+02  0.19956E+04
 0.81449997E+02  0.14509E+04
 0.81499992E+02  0.10488E+04
 0.81549995E+02  0.80681E+03
 0.81599998E+02  0.89366E+03
 0.81649994E+02  0.11603E+04
 0.81699997E+02  0.12628E+04
 0.81749992E+02  0.15006E+04
 0.81799995E+02  0.17081E+04
 0.81849998E+02  0.19344E+04
 0.81899994E+02  0.25031E+04
 0.81949997E+02  0.31445E+04
 0.81999992E+02  0.37995E+04
 0.82049995E+02  0.41262E+04
 0.82099998E+02  0.40916E+04
 0.82149994E+02  0.39978E+04
 0.82199997E+02  0.37617E+04
 0.82249992E+02  0.30890E+04
 0.82299995E+02  0.19854E+04
 0.82349998E+02  0.10060E+04
 0.82399994E+02  0.65116E+03
 0.82449997E+02  0.84072E+03
 0.82499992E+02  0.13977E+04
 0.82549995E+02  0.20192E+04
 0.82599998E+02  0.24605E+04
 0.82649994E+02  0.28810E+04
 0.82699997E+02  0.34458E+04
 0.82749992E+02  0.39847E+04
 0.82799995E+02  0.44154E+04
 0.82849998E+02  0.48469E+04
 0.82899994E+02  0.50434E+04
 0.82949997E+02  0.47793E+04
 0.82999992E+02  0.40874E+04
 0.83049995E+02  0.31634E+04
 0.83099998E+02  0.23176E+04
 0.83149994E+02  0.14775E+04
 0.83199997E+02  0.64275E+03
 0.83249992E+02  0.13765E+03
 0.83299995E+02  0.29188E+03
 0.83349998E+02  0.95946E+03
 0.83399994E+02  0.15385E+04
 0.83449997E+02  0.22540E+04
 0.83499992E+02  0.30295E+04
 0.83549995E+02  0.35384E+04
 0.83599998E+02  0.36939E+04
 0.83649994E+02  0.33237E+04
 0.83699997E+02  0.25488E+04
 0.83749992E+02  0.18895E+04
 0.83799995E+02  0.14051E+04
 0.83849998E+02  0.97767E+03
 0.83899994E+02  0.10340E+04
 0.83949997E+02  0.14396E+04
 0.83999992E+02  0.17465E+04
 0.84049995E+02  0.16556E+04
 0.84099998E+02  0.14437E+04
 0.84149994E+02  0.15725E+04
 0.84199997E+02  0.22366E+04
 0.84249992E+02  0.30712E+04
 0.84299995E+02  0.39346E+04
 0.84349998E+02  0.48488E+04
 0.84399994E+02  0.54692E+04
 0.84449997E+02  0.56666E+04
 0.84499992E+02  0.53593E+04
 0.84549995E+02  0.45755E+04
 0.84599998E+02  0.35569E+04
 0.84649994E+02  0.26091E+04
 0.84699997E+02  0.21171E+04
 0.84749992E+02  0.17823E+04
 0.84799995E+02  0.14150E+04
 0.84849998E+02  0.12224E+04
 0.84899994E+02  0.97425E+03
 0.84949997E+02  0.79057E+03
 0.84999992E+02  0.91186E+03
 0.85049995E+02  0.14176E+04
 0.85099998E+02  0.20847E+04
 0.85149994E+02  0.27336E+04
 0.85199997E+02  0.33294E+04
 0.85249992E+02  0.37817E+04
 0.85299995E+02  0.38292E+04
 0.85349998E+02  0.33182E+04
 0.85399994E+02  0.25264E+04
 0.85449997E+02  0.16445E+04
 0.85499992E+02  0.85789E+03
 0.85549995E+02  0.52242E+03
 0.85599998E+02  0.60996E+03
 0.85649994E+02  0.84594E+03
 0.85699997E+02  0.10370E+04
 0.85749992E+02  0.12945E+04
 0.85799995E+02  0.19479E+04
 0.85849998E+02  0.30028E+04
 0.85899994E+02  0.38335E+04
 0.85949997E+02  0.41855E+04
 0.85999992E+02  0.43452E+04
 0.86049995E+02  0.43633E+04
 0.86099998E+02  0.42553E+04
 0.86149994E+02  0.39863E+04
 0.86199997E+02  0.39847E+04
 0.86249992E+02  0.40287E+04
 0.86299995E+02  0.37620E+04
 0.86349998E+02  0.30935E+04
 0.86399994E+02  0.18916E+04
 0.86449997E+02  0.11272E+04
 0.86499992E+02  0.94543E+03
 0.86549995E+02  0.83385E+03
 0.86599998E+02  0.78356E+03
 0.86649994E+02  0.78511E+03
 0.86699997E+02  0.10193E+04
 0.86749992E+02  0.15432E+04
 0.86799995E+02  0.19977E+04
 0.86849998E+02  0.22987E+04
 0.86899994E+02  0.26197E+04
 0.86949997E+02  0.28219E+04
 0.86999992E+02  0.29658E+04
 0.87049995E+02  0.30332E+04
 0.87099998E+02  0.29877E+04
 0.87149994E+02  0.30559E+04
 0.87199997E+02  0.31628E+04
 0.87249992E+02  0.32263E+04
 0.87299995E+02  0.33342E+04
 0.87349998E+02  0.33884E+04
 0.87399994E+02  0.32002E+04
 0.87449997E+02  0.28460E+04
 0.87499992E+02  0.22908E+04
 0.87549995E+02  0.13830E+04
 0.87599991E+02  0.66278E+03
 0.87649994E+02  0.50364E+03
 0.87699997E+02  0.56162E+03
 0.87749992E+02  0.95803E+03
 0.87799995E+02  0.15207E+04
 0.87849991E+02  0.20455E+04
 0.87899994E+02  0.25310E+04
 0.87949997E+02  0.29249E+04
 0.87999992E+02  0.35767E+04
 0.88049995E+02  0.43951E+04
 0.88099991E+02  0.50487E+04
 0.88149994E+02  0.54175E+04
 0.88199997E+02  0.54410E+04
 0.88249992E+02  0.48269E+04
 0.88299995E+02  0.37054E+04
 0.88349991E+02  0.26422E+04
 0.88399994E+02  0.17841E+04
 0.88449997E+02  0.12494E+04
 0.88499992E+02  0.10247E+04
 0.88549995E+02  0.10216E+04
 0.88599991E+02  0.11968E+04
 0.88649994E+02  0.12974E+04
 0.88699997E+02  0.13384E+04
 0.88749992E+02  0.16782E+04
 0.88799995E+02  0.25017E+04
 0.88849991E+02  0.32621E+04
 0.88899994E+02  0.37254E+04
 0.88949997E+02  0.37890E+04
 0.88999992E+02  0.36097E+04
 0.89049995E+02  0.31125E+04
 0.89099991E+02  0.22838E+04
 0.89149994E+02  0.19615E+04
 0.89199997E+02  0.20350E+04
 0.89249992E+02  0.21370E+04
 0.89299995E+02  0.20300E+04
 0.89349991E+02  0.19925E+04
 0.89399994E+02  0.20828E+04
 0.89449997E+02  0.20220E+04
 0.89499992E+02  0.19543E+04
 0.89549995E+02  0.19192E+04
 0.89599991E+02  0.20329E+04
 0.89649994E+02  0.21828E+04
 0.89699997E+02  0.21895E+04
 0.89749992E+02  0.21633E+04
 0.89799995E+02  0.20704E+04
 0.89849991E+02  0.18787E+04
 0.89899994E+02  0.19005E+04
 0.89949997E+02  0.21365E+04
 0.89999992E+02  0.23922E+04
 0.90049995E+02  0.26918E+04
 0.90099991E+02  0.28795E+04
 0.90149994E+02  0.29510E+04
 0.90199997E+02  0.33472E+04
 0.90249992E+02  0.39033E+04
 0.90299995E+02  0.40765E+04
 0.90349991E+02  0.38301E+04
 0.90399994E+02  0.33307E+04
 0.90449997E+02  0.30099E+04
 0.90499992E+02  0.26759E+04
 0.90549995E+02  0.20923E+04
 0.90599991E+02  0.17218E+04
 0.90649994E+02  0.15364E+04
 0.90699997E+02  0.15469E+04
 0.90749992E+02  0.14781E+04
 0.90799995E+02  0.12234E+04
 0.90849991E+02  0.10558E+04
 0.90899994E+02  0.12892E+04
 0.90949997E+02  0.20146E+04
 0.90999992E+02  0.29383E+04
 0.91049995E+02  0.36713E+04
 0.91099991E+02  0.40922E+04
 0.91149994E+02  0.42174E+04
 0.91199997E+02  0.38805E+04
 0.91249992E+02  0.34341E+04
 0.91299995E+02  0.32739E+04
 0.91349991E+02  0.33623E+04
 0.91399994E+02  0.34596E+04
 0.91449997E+02  0.36241E+04
 0.91499992E+02  0.36278E+04
 0.91549995E+02  0.33925E+04
 0.91599991E+02  0.28815E+04
 0.91649994E+02  0.22007E+04
 0.91699997E+02  0.17437E+04
 0.91749992E+02  0.15150E+04
 0.91799995E+02  0.14360E+04
 0.91849991E+02  0.16245E+04
 0.91899994E+02  0.18783E+04
 0.91949997E+02  0.18824E+04
 0.91999992E+02  0.18964E+04
 0.92049995E+02  0.19869E+04
 0.92099991E+02  0.19946E+04
 0.92149994E+02  0.16408E+04
 0.92199997E+02  0.11737E+04
 0.92249992E+02  0.10203E+04
 0.92299995E+02  0.13180E+04
 0.92349991E+02  0.17429E+04
 0.92399994E+02  0.19229E+04
 0.92449997E+02  0.21598E+04
 0.92499992E+02  0.24447E+04
 0.92549995E+02  0.26782E+04
 0.92599991E+02  0.29070E+04
 0.92649994E+02  0.30269E+04
 0.92699997E+02  0.31420E+04
 0.92749992E+02  0.32565E+04
 0.92799995E+02  0.33710E+04
 0.92849991E+02  0.33528E+04
 0.92899994E+02  0.28417E+04
 0.92949997E+02  0.21197E+04
 0.92999992E+02  0.17791E+04
 0.93049995E+02  0.18089E+04
 0.93099991E+02  0.19848E+04
 0.93149994E+02  0.23006E+04
 0.93199997E+02  0.27071E+04
 0.93249992E+02  0.31542E+04
 0.93299995E+02  0.35611E+04
 0.93349991E+02  0.37591E+04
 0.93399994E+02  0.36900E+04
 0.93449997E+02  0.35583E+04
 0.93499992E+02  0.33529E+04
 0.93549995E+02  0.31030E+04
 0.93599991E+02  0.28830E+04
 0.93649994E+02  0.27871E+04
 0.93699997E+02  0.27392E+04
 0.93749992E+02  0.26777E+04
 0.93799995E+02  0.27635E+04
 0.93849991E+02  0.27349E+04
 0.93899994E+02  0.26568E+04
 0.93949997E+02  0.24541E+04
 0.93999992E+02  0.21089E+04
 0.94049995E+02  0.19104E+04
 0.94099991E+02  0.18810E+04
 0.94149994E+02  0.18256E+04
 0.94199997E+02  0.17848E+04
 0.94249992E+02  0.19968E+04
 0.94299995E+02  0.22951E+04
 0.94349991E+02  0.24359E+04
 0.94399994E+02  0.24216E+04
 0.94449997E+02  0.22846E+04
 0.94499992E+02  0.22088E+04
 0.94549995E+02  0.24146E+04
 0.94599991E+02  0.27636E+04
 0.94649994E+02  0.29720E+04
 0.94699997E+02  0.29469E+04
 0.94749992E+02  0.27347E+04
 0.94799995E+02  0.23203E+04
 0.94849991E+02  0.18418E+04
 0.94899994E+02  0.13682E+04
 0.94949997E+02  0.10950E+04
 0.94999992E+02  0.98718E+03
 0.95049995E+02  0.11286E+04
 0.95099991E+02  0.15191E+04
 0.95149994E+02  0.17584E+04
 0.95199997E+02  0.18113E+04
 0.95249992E+02  0.19724E+04
 0.95299995E+02  0.24752E+04
 0.95349991E+02  0.30708E+04
 0.95399994E+02  0.34253E+04
 0.95449997E+02  0.35364E+04
 0.95499992E+02  0.34384E+04
 0.95549995E+02  0.33148E+04
 0.95599991E+02  0.33528E+04
 0.95649994E+02  0.34201E+04
 0.95699997E+02  0.34836E+04
 0.95749992E+02  0.35169E+04
 0.95799995E+02  0.35292E+04
 0.95849991E+02  0.34651E+04
 0.95899994E+02  0.33390E+04
 0.95949997E+02  0.30662E+04
 0.95999992E+02  0.28796E+04
 0.96049995E+02  0.29610E+04
 0.96099991E+02  0.29398E+04
 0.96149994E+02  0.27359E+04
 0.96199997E+02  0.24165E+04
 0.96249992E+02  0.21949E+04
 0.96299995E+02  0.22976E+04
 0.96349991E+02  0.24836E+04
 0.96399994E+02  0.25786E+04
 0.96449997E+02  0.27472E+04
 0.96499992E+02  0.28993E+04
 0.96549995E+02  0.28982E+04
 0.96599991E+02  0.26359E+04
 0.96649994E+02  0.22219E+04
 0.96699997E+02  0.18295E+04
 0.96749992E+02  0.14722E+04
 0.96799995E+02  0.13757E+04
 0.96849991E+02  0.13340E+04
 0.96899994E+02  0.12782E+04
 0.96949997E+02  0.14601E+04
 0.96999992E+02  0.17227E+04
 0.97049995E+02  0.18567E+04
 0.97099991E+02  0.19082E+04
 0.97149994E+02  0.21491E+04
 0.97199997E+02  0.24867E+04
 0.97249992E+02  0.25979E+04
 0.97299995E+02  0.24307E+04
 0.97349991E+02  0.22515E+04
 0.97399994E+02  0.23082E+04
 0.97449997E+02  0.24470E+04
 0.97499992E+02  0.25644E+04
 0.97549995E+02  0.28180E+04
 0.97599991E+02  0.32690E+04
 0.97649994E+02  0.37497E+04
 0.97699997E+02  0.39814E+04
 0.97749992E+02  0.40206E+04
 0.97799995E+02  0.38799E+04
 0.97849991E+02  0.34396E+04
 0.97899994E+02  0.28738E+04
 0.97949997E+02  0.22745E+04
 0.97999992E+02  0.17906E+04
