-0.20000000E+01  0.41294E+04
-0.19500000E+01  0.41274E+04
-0.19000000E+01  0.40904E+04
-0.18500000E+01  0.41313E+04
-0.18000000E+01  0.40787E+04
-0.17500000E+01  0.41678E+04
-0.17000000E+01  0.41869E+04
-0.16500001E+01  0.41576E+04
-0.16000000E+01  0.41277E+04
-0.15500000E+01  0.41490E+04
-0.15000000E+01  0.42207E+04
-0.14500000E+01  0.41223E+04
-0.14000001E+01  0.42457E+04
-0.13500000E+01  0.41376E+04
-0.13000001E+01  0.41266E+04
-0.12500000E+01  0.42173E+04
-0.12000000E+01  0.41334E+04
-0.11500001E+01  0.41359E+04
-0.11000000E+01  0.41511E+04
-0.10500001E+01  0.42670E+04
-0.10000000E+01  0.41763E+04
-0.95000005E+00  0.40702E+04
-0.90000010E+00  0.41861E+04
-0.85000002E+00  0.42104E+04
-0.80000007E+00  0.41467E+04
-0.75000012E+00  0.41998E+04
-0.70000005E+00  0.42199E+04
-0.65000010E+00  0.42137E+04
-0.60000014E+00  0.41279E+04
-0.55000007E+00  0.40791E+04
-0.50000012E+00  0.42926E+04
-0.45000005E+00  0.41813E+04
-0.40000010E+00  0.40733E+04
-0.35000014E+00  0.42546E+04
-0.30000007E+00  0.41280E+04
-0.25000012E+00  0.41415E+04
-0.20000005E+00  0.41165E+04
-0.15000010E+00  0.41413E+04
-0.10000014E+00  0.41891E+04
-0.50000072E-01  0.41359E+04
-0.11920929E-06  0.41865E+04
 0.49999952E-01  0.41503E+04
 0.99999905E-01  0.41176E+04
 0.14999986E+00  0.41183E+04
 0.19999981E+00  0.41950E+04
 0.24999976E+00  0.41128E+04
 0.29999995E+00  0.41436E+04
 0.34999990E+00  0.42132E+04
 0.39999986E+00  0.41246E+04
 0.44999981E+00  0.41692E+04
 0.49999976E+00  0.42193E+04
 0.54999995E+00  0.42016E+04
 0.59999990E+00  0.41983E+04
 0.64999986E+00  0.41271E+04
 0.69999981E+00  0.41265E+04
 0.74999976E+00  0.42081E+04
 0.79999971E+00  0.41309E+04
 0.84999990E+00  0.41556E+04
 0.89999986E+00  0.41690E+04
 0.94999981E+00  0.42272E+04
 0.99999976E+00  0.41753E+04
 0.10499997E+01  0.41415E+04
 0.10999999E+01  0.41723E+04
 0.11499999E+01  0.39971E+04
 0.11999998E+01  0.42588E+04
 0.12499998E+01  0.42064E+04
 0.12999997E+01  0.41094E+04
 0.13499999E+01  0.42302E+04
 0.13999999E+01  0.41207E+04
 0.14499998E+01  0.41282E+04
 0.14999998E+01  0.40818E+04
 0.15499997E+01  0.41691E+04
 0.15999999E+01  0.41675E+04
 0.16499999E+01  0.41178E+04
 0.16999998E+01  0.42236E+04
 0.17499998E+01  0.41430E+04
 0.17999997E+01  0.41446E+04
 0.18499997E+01  0.42208E+04
 0.18999999E+01  0.41308E+04
 0.19499998E+01  0.42118E+04
 0.19999998E+01  0.42144E+04
 0.20499997E+01  0.41007E+04
 0.20999999E+01  0.41424E+04
 0.21499996E+01  0.42219E+04
 0.21999998E+01  0.42205E+04
 0.22499995E+01  0.40897E+04
 0.22999997E+01  0.41037E+04
 0.23499999E+01  0.41606E+04
 0.23999996E+01  0.41545E+04
 0.24499998E+01  0.42067E+04
 0.24999995E+01  0.41414E+04
 0.25499997E+01  0.41149E+04
 0.25999999E+01  0.41526E+04
 0.26499996E+01  0.41247E+04
 0.26999998E+01  0.42133E+04
 0.27499995E+01  0.41344E+04
 0.27999997E+01  0.41706E+04
 0.28499999E+01  0.40390E+04
 0.28999996E+01  0.41607E+04
 0.29499998E+01  0.42399E+04
 0.29999995E+01  0.41187E+04
 0.30499997E+01  0.42248E+04
 0.30999999E+01  0.41653E+04
 0.31499996E+01  0.41857E+04
 0.31999998E+01  0.41964E+04
 0.32499995E+01  0.43457E+04
 0.32999997E+01  0.40869E+04
 0.33499999E+01  0.42243E+04
 0.33999996E+01  0.42321E+04
 0.34499998E+01  0.41630E+04
 0.34999995E+01  0.41817E+04
 0.35499997E+01  0.40888E+04
 0.35999994E+01  0.41774E+04
 0.36499996E+01  0.41857E+04
 0.36999998E+01  0.41551E+04
 0.37499995E+01  0.40776E+04
 0.37999997E+01  0.41420E+04
 0.38499994E+01  0.40997E+04
 0.38999996E+01  0.41726E+04
 0.39499998E+01  0.40993E+04
 0.39999995E+01  0.40281E+04
 0.40499997E+01  0.42100E+04
 0.40999994E+01  0.42305E+04
 0.41499996E+01  0.41207E+04
 0.41999998E+01  0.41482E+04
 0.42499995E+01  0.41275E+04
 0.42999997E+01  0.41689E+04
 0.43499994E+01  0.42493E+04
 0.43999996E+01  0.41417E+04
 0.44499998E+01  0.41608E+04
 0.44999995E+01  0.41542E+04
 0.45499997E+01  0.41533E+04
 0.45999994E+01  0.42478E+04
 0.46499996E+01  0.41725E+04
 0.46999998E+01  0.41506E+04
 0.47499995E+01  0.41800E+04
 0.47999997E+01  0.42312E+04
 0.48499994E+01  0.41469E+04
 0.48999996E+01  0.41316E+04
 0.49499998E+01  0.42458E+04
 0.49999995E+01  0.41086E+04
 0.50499997E+01  0.41707E+04
 0.50999994E+01  0.41803E+04
 0.51499996E+01  0.41063E+04
 0.51999998E+01  0.41397E+04
 0.52499995E+01  0.41550E+04
 0.52999997E+01  0.42277E+04
 0.53499994E+01  0.41146E+04
 0.53999996E+01  0.42176E+04
 0.54499993E+01  0.42409E+04
 0.54999995E+01  0.41098E+04
 0.55499997E+01  0.41964E+04
 0.55999994E+01  0.42183E+04
 0.56499996E+01  0.41372E+04
 0.56999993E+01  0.41073E+04
 0.57499995E+01  0.40781E+04
 0.57999997E+01  0.42076E+04
 0.58499994E+01  0.41275E+04
 0.58999996E+01  0.40690E+04
 0.59499993E+01  0.41578E+04
 0.59999995E+01  0.41281E+04
 0.60499992E+01  0.41804E+04
 0.60999994E+01  0.41310E+04
 0.61499996E+01  0.41708E+04
 0.61999998E+01  0.41743E+04
 0.62499990E+01  0.41776E+04
 0.62999992E+01  0.41717E+04
 0.63499994E+01  0.41770E+04
 0.63999996E+01  0.41973E+04
 0.64499998E+01  0.41900E+04
 0.64999990E+01  0.41714E+04
 0.65499992E+01  0.41760E+04
 0.65999994E+01  0.41800E+04
 0.66499996E+01  0.41760E+04
 0.66999998E+01  0.42202E+04
 0.67499990E+01  0.41888E+04
 0.67999992E+01  0.41348E+04
 0.68499994E+01  0.41272E+04
 0.68999996E+01  0.41698E+04
 0.69499998E+01  0.41749E+04
 0.69999990E+01  0.41428E+04
 0.70499992E+01  0.41654E+04
 0.70999994E+01  0.41600E+04
 0.71499996E+01  0.41540E+04
 0.71999998E+01  0.41688E+04
 0.72499990E+01  0.41116E+04
 0.72999992E+01  0.41784E+04
 0.73499994E+01  0.41675E+04
 0.73999996E+01  0.41422E+04
 0.74499998E+01  0.41350E+04
 0.74999990E+01  0.41212E+04
 0.75499992E+01  0.41742E+04
 0.75999994E+01  0.41749E+04
 0.76499996E+01  0.41516E+04
 0.76999998E+01  0.40805E+04
 0.77499990E+01  0.41175E+04
 0.77999992E+01  0.41909E+04
 0.78499994E+01  0.41874E+04
 0.78999996E+01  0.41579E+04
 0.79499998E+01  0.41040E+04
 0.79999990E+01  0.40945E+04
 0.80499992E+01  0.42180E+04
 0.80999994E+01  0.42637E+04
 0.81499996E+01  0.41968E+04
 0.81999998E+01  0.41375E+04
 0.82499990E+01  0.41398E+04
 0.82999992E+01  0.42080E+04
 0.83499994E+01  0.41676E+04
 0.83999996E+01  0.41094E+04
 0.84499998E+01  0.42704E+04
 0.84999990E+01  0.42708E+04
 0.85499992E+01  0.39936E+04
 0.85999994E+01  0.40693E+04
 0.86499996E+01  0.42151E+04
 0.86999998E+01  0.42054E+04
 0.87499990E+01  0.42419E+04
 0.87999992E+01  0.41966E+04
 0.88499994E+01  0.41357E+04
 0.88999996E+01  0.40644E+04
 0.89499998E+01  0.42336E+04
 0.89999990E+01  0.42925E+04
 0.90499992E+01  0.40809E+04
 0.90999994E+01  0.42098E+04
 0.91499996E+01  0.42470E+04
 0.91999989E+01  0.41318E+04
 0.92499990E+01  0.41331E+04
 0.92999992E+01  0.41849E+04
 0.93499994E+01  0.41481E+04
 0.93999996E+01  0.41277E+04
 0.94499989E+01  0.42396E+04
 0.94999990E+01  0.40752E+04
 0.95499992E+01  0.40825E+04
 0.95999994E+01  0.42520E+04
 0.96499996E+01  0.41071E+04
 0.96999989E+01  0.41521E+04
 0.97499990E+01  0.42560E+04
 0.97999992E+01  0.41941E+04
 0.98499994E+01  0.39210E+04
 0.98999996E+01  0.42073E+04
 0.99499989E+01  0.43432E+04
 0.99999990E+01  0.39328E+04
 0.10049999E+02  0.41785E+04
 0.10099999E+02  0.42361E+04
 0.10150000E+02  0.41428E+04
 0.10199999E+02  0.40348E+04
 0.10249999E+02  0.41834E+04
 0.10299999E+02  0.44856E+04
 0.10349999E+02  0.38688E+04
 0.10400000E+02  0.40591E+04
 0.10449999E+02  0.44840E+04
 0.10499999E+02  0.40037E+04
 0.10549999E+02  0.40864E+04
 0.10599999E+02  0.42592E+04
 0.10650000E+02  0.40910E+04
 0.10699999E+02  0.41227E+04
 0.10749999E+02  0.43792E+04
 0.10799999E+02  0.40535E+04
 0.10849999E+02  0.40797E+04
 0.10900000E+02  0.42584E+04
 0.10949999E+02  0.41025E+04
 0.10999999E+02  0.41901E+04
 0.11049999E+02  0.42571E+04
 0.11099999E+02  0.42305E+04
 0.11150000E+02  0.41548E+04
 0.11199999E+02  0.41043E+04
 0.11249999E+02  0.41936E+04
 0.11299999E+02  0.42651E+04
 0.11349999E+02  0.41190E+04
 0.11400000E+02  0.42431E+04
 0.11449999E+02  0.41738E+04
 0.11499999E+02  0.41347E+04
 0.11549999E+02  0.42355E+04
 0.11599999E+02  0.41161E+04
 0.11650000E+02  0.40520E+04
 0.11699999E+02  0.41760E+04
 0.11749999E+02  0.41562E+04
 0.11799999E+02  0.40830E+04
 0.11849999E+02  0.42180E+04
 0.11900000E+02  0.41413E+04
 0.11949999E+02  0.41471E+04
 0.11999999E+02  0.41526E+04
 0.12049999E+02  0.41044E+04
 0.12099999E+02  0.41185E+04
 0.12150000E+02  0.41774E+04
 0.12199999E+02  0.41689E+04
 0.12249999E+02  0.41439E+04
 0.12299999E+02  0.41426E+04
 0.12349999E+02  0.41163E+04
 0.12400000E+02  0.41736E+04
 0.12449999E+02  0.41257E+04
 0.12499999E+02  0.42218E+04
 0.12549999E+02  0.41754E+04
 0.12599999E+02  0.41947E+04
 0.12649999E+02  0.41921E+04
 0.12699999E+02  0.41518E+04
 0.12749999E+02  0.41959E+04
 0.12799999E+02  0.41423E+04
 0.12849999E+02  0.42407E+04
 0.12899999E+02  0.41501E+04
 0.12949999E+02  0.41256E+04
 0.12999999E+02  0.42424E+04
 0.13049999E+02  0.41512E+04
 0.13099999E+02  0.40969E+04
 0.13149999E+02  0.41889E+04
 0.13199999E+02  0.41588E+04
 0.13249999E+02  0.41578E+04
 0.13299999E+02  0.41938E+04
 0.13349999E+02  0.41428E+04
 0.13399999E+02  0.41998E+04
 0.13449999E+02  0.40690E+04
 0.13499999E+02  0.41446E+04
 0.13549999E+02  0.42119E+04
 0.13599999E+02  0.40833E+04
 0.13649999E+02  0.41958E+04
 0.13699999E+02  0.41105E+04
 0.13749999E+02  0.40797E+04
 0.13799999E+02  0.42281E+04
 0.13849999E+02  0.41280E+04
 0.13899999E+02  0.41144E+04
 0.13949999E+02  0.42287E+04
 0.13999999E+02  0.41325E+04
 0.14049999E+02  0.41455E+04
 0.14099998E+02  0.42014E+04
 0.14150000E+02  0.42012E+04
 0.14199999E+02  0.41473E+04
 0.14249998E+02  0.42193E+04
 0.14299999E+02  0.41468E+04
 0.14349998E+02  0.41468E+04
 0.14400000E+02  0.41901E+04
 0.14449999E+02  0.41109E+04
 0.14499998E+02  0.41801E+04
 0.14549999E+02  0.41902E+04
 0.14599998E+02  0.41892E+04
 0.14650000E+02  0.41485E+04
 0.14699999E+02  0.42262E+04
 0.14749998E+02  0.41775E+04
 0.14799999E+02  0.41393E+04
 0.14849998E+02  0.42088E+04
 0.14900000E+02  0.41982E+04
 0.14949999E+02  0.41918E+04
 0.14999998E+02  0.41606E+04
 0.15049999E+02  0.41654E+04
 0.15099998E+02  0.42040E+04
 0.15150000E+02  0.41553E+04
 0.15199999E+02  0.41596E+04
 0.15249998E+02  0.41364E+04
 0.15299999E+02  0.40935E+04
 0.15349998E+02  0.42333E+04
 0.15400000E+02  0.41156E+04
 0.15449999E+02  0.41039E+04
 0.15499998E+02  0.41994E+04
 0.15549999E+02  0.41111E+04
 0.15599998E+02  0.41727E+04
 0.15650000E+02  0.41564E+04
 0.15699999E+02  0.41563E+04
 0.15749998E+02  0.42080E+04
 0.15799999E+02  0.41360E+04
 0.15849998E+02  0.41846E+04
 0.15900000E+02  0.41399E+04
 0.15949999E+02  0.41765E+04
 0.15999998E+02  0.41809E+04
 0.16049999E+02  0.41429E+04
 0.16099998E+02  0.41925E+04
 0.16150000E+02  0.41014E+04
 0.16199999E+02  0.41678E+04
 0.16249998E+02  0.41637E+04
 0.16299999E+02  0.41524E+04
 0.16349998E+02  0.41219E+04
 0.16400000E+02  0.41197E+04
 0.16449999E+02  0.41835E+04
 0.16499998E+02  0.41393E+04
 0.16549999E+02  0.41603E+04
 0.16599998E+02  0.41818E+04
 0.16650000E+02  0.41309E+04
 0.16699999E+02  0.41469E+04
 0.16749998E+02  0.41501E+04
 0.16799999E+02  0.41227E+04
 0.16849998E+02  0.41629E+04
 0.16900000E+02  0.42009E+04
 0.16949999E+02  0.42075E+04
 0.16999998E+02  0.41613E+04
 0.17049999E+02  0.42011E+04
 0.17099998E+02  0.41803E+04
 0.17150000E+02  0.42024E+04
 0.17199999E+02  0.42001E+04
 0.17249998E+02  0.41579E+04
 0.17299999E+02  0.41957E+04
 0.17349998E+02  0.41679E+04
 0.17400000E+02  0.41938E+04
 0.17449999E+02  0.41215E+04
 0.17499998E+02  0.41702E+04
 0.17549999E+02  0.41833E+04
 0.17599998E+02  0.40950E+04
 0.17650000E+02  0.41895E+04
 0.17699999E+02  0.41599E+04
 0.17749998E+02  0.41049E+04
 0.17799999E+02  0.41288E+04
 0.17849998E+02  0.42028E+04
 0.17900000E+02  0.41820E+04
 0.17949999E+02  0.41100E+04
 0.17999998E+02  0.41267E+04
 0.18049999E+02  0.41867E+04
 0.18099998E+02  0.40976E+04
 0.18150000E+02  0.41199E+04
 0.18199999E+02  0.42144E+04
 0.18249998E+02  0.41526E+04
 0.18299999E+02  0.41787E+04
 0.18349998E+02  0.41062E+04
 0.18400000E+02  0.42023E+04
 0.18449999E+02  0.41505E+04
 0.18499998E+02  0.42003E+04
 0.18549999E+02  0.42157E+04
 0.18599998E+02  0.41748E+04
 0.18650000E+02  0.41904E+04
 0.18699999E+02  0.41134E+04
 0.18749998E+02  0.41907E+04
 0.18799999E+02  0.41264E+04
 0.18849998E+02  0.41909E+04
 0.18900000E+02  0.41721E+04
 0.18949999E+02  0.41655E+04
 0.18999998E+02  0.41560E+04
 0.19049999E+02  0.41705E+04
 0.19099998E+02  0.41721E+04
 0.19150000E+02  0.41412E+04
 0.19199999E+02  0.41652E+04
 0.19249998E+02  0.41705E+04
 0.19299999E+02  0.41641E+04
 0.19349998E+02  0.41532E+04
 0.19400000E+02  0.42295E+04
 0.19449999E+02  0.41681E+04
 0.19499998E+02  0.41426E+04
 0.19549999E+02  0.41741E+04
 0.19599998E+02  0.42010E+04
 0.19650000E+02  0.41837E+04
 0.19699999E+02  0.42040E+04
 0.19749998E+02  0.41162E+04
 0.19799999E+02  0.41177E+04
 0.19849998E+02  0.41780E+04
 0.19900000E+02  0.41613E+04
 0.19949999E+02  0.42039E+04
 0.19999998E+02  0.41425E+04
 0.20049999E+02  0.41490E+04
 0.20099998E+02  0.41567E+04
 0.20150000E+02  0.41837E+04
 0.20199999E+02  0.42178E+04
 0.20249998E+02  0.42439E+04
 0.20299999E+02  0.41781E+04
 0.20349998E+02  0.41947E+04
 0.20399998E+02  0.41733E+04
 0.20449999E+02  0.40611E+04
 0.20499998E+02  0.41889E+04
 0.20549999E+02  0.41731E+04
 0.20599998E+02  0.41879E+04
 0.20649998E+02  0.41125E+04
 0.20699999E+02  0.41060E+04
 0.20749998E+02  0.41704E+04
 0.20799999E+02  0.41406E+04
 0.20849998E+02  0.41505E+04
 0.20899998E+02  0.41834E+04
 0.20949999E+02  0.43822E+04
 0.20999998E+02  0.42276E+04
 0.21049999E+02  0.40558E+04
 0.21099998E+02  0.40719E+04
 0.21149998E+02  0.42202E+04
 0.21199999E+02  0.42272E+04
 0.21249998E+02  0.40324E+04
 0.21299999E+02  0.39857E+04
 0.21349998E+02  0.39528E+04
 0.21399998E+02  0.40368E+04
 0.21449999E+02  0.42886E+04
 0.21499998E+02  0.43610E+04
 0.21549999E+02  0.38465E+04
 0.21599998E+02  0.37433E+04
 0.21649998E+02  0.40918E+04
 0.21699999E+02  0.42206E+04
 0.21749998E+02  0.42381E+04
 0.21799999E+02  0.44297E+04
 0.21849998E+02  0.39629E+04
 0.21899998E+02  0.38925E+04
 0.21949999E+02  0.43308E+04
 0.21999998E+02  0.43920E+04
 0.22049999E+02  0.42985E+04
 0.22099998E+02  0.41420E+04
 0.22149998E+02  0.42737E+04
 0.22199999E+02  0.42170E+04
 0.22249998E+02  0.43348E+04
 0.22299999E+02  0.44211E+04
 0.22349998E+02  0.43997E+04
 0.22399998E+02  0.40999E+04
 0.22449999E+02  0.40586E+04
 0.22499998E+02  0.39671E+04
 0.22549999E+02  0.41917E+04
 0.22599998E+02  0.41922E+04
 0.22649998E+02  0.45947E+04
 0.22699999E+02  0.41132E+04
 0.22749998E+02  0.35911E+04
 0.22799999E+02  0.37195E+04
 0.22849998E+02  0.41324E+04
 0.22899998E+02  0.44642E+04
 0.22949999E+02  0.44203E+04
 0.22999998E+02  0.44558E+04
 0.23049999E+02  0.43016E+04
 0.23099998E+02  0.44339E+04
 0.23149998E+02  0.34246E+04
 0.23199999E+02  0.41329E+04
 0.23249998E+02  0.42090E+04
 0.23299999E+02  0.38235E+04
 0.23349998E+02  0.42794E+04
 0.23399998E+02  0.42235E+04
 0.23449999E+02  0.40489E+04
 0.23499998E+02  0.39550E+04
 0.23549999E+02  0.38361E+04
 0.23599998E+02  0.40279E+04
 0.23649998E+02  0.42077E+04
 0.23699999E+02  0.41849E+04
 0.23749998E+02  0.44130E+04
 0.23799999E+02  0.52429E+04
 0.23849998E+02  0.43542E+04
 0.23899998E+02  0.35459E+04
 0.23949999E+02  0.33806E+04
 0.23999998E+02  0.32396E+04
 0.24049999E+02  0.47467E+04
 0.24099998E+02  0.45837E+04
 0.24149998E+02  0.49407E+04
 0.24199999E+02  0.41410E+04
 0.24249998E+02  0.37624E+04
 0.24299999E+02  0.43853E+04
 0.24349998E+02  0.43273E+04
 0.24399998E+02  0.40012E+04
 0.24449999E+02  0.47656E+04
 0.24499998E+02  0.42712E+04
 0.24549999E+02  0.39012E+04
 0.24599998E+02  0.45845E+04
 0.24649998E+02  0.33774E+04
 0.24699999E+02  0.36580E+04
 0.24749998E+02  0.34656E+04
 0.24799999E+02  0.43591E+04
 0.24849998E+02  0.43611E+04
 0.24899998E+02  0.36042E+04
 0.24949999E+02  0.37627E+04
 0.24999998E+02  0.38226E+04
 0.25049999E+02  0.45444E+04
 0.25099998E+02  0.42575E+04
 0.25149998E+02  0.36635E+04
 0.25199999E+02  0.43905E+04
 0.25249998E+02  0.45800E+04
 0.25299999E+02  0.48524E+04
 0.25349998E+02  0.49975E+04
 0.25399998E+02  0.45148E+04
 0.25449999E+02  0.41199E+04
 0.25499998E+02  0.45440E+04
 0.25549999E+02  0.44085E+04
 0.25599998E+02  0.35386E+04
 0.25649998E+02  0.39941E+04
 0.25699999E+02  0.33605E+04
 0.25749998E+02  0.40403E+04
 0.25799999E+02  0.43218E+04
 0.25849998E+02  0.46031E+04
 0.25899998E+02  0.51968E+04
 0.25949999E+02  0.46631E+04
 0.25999998E+02  0.40583E+04
 0.26049999E+02  0.39592E+04
 0.26099998E+02  0.36018E+04
 0.26149998E+02  0.36050E+04
 0.26199999E+02  0.44423E+04
 0.26249998E+02  0.45935E+04
 0.26299999E+02  0.45048E+04
 0.26349998E+02  0.43569E+04
 0.26399998E+02  0.32610E+04
 0.26449999E+02  0.34370E+04
 0.26499998E+02  0.38964E+04
 0.26549999E+02  0.43259E+04
 0.26599998E+02  0.53872E+04
 0.26649998E+02  0.49118E+04
 0.26699999E+02  0.41038E+04
 0.26749998E+02  0.32570E+04
 0.26799999E+02  0.32134E+04
 0.26849998E+02  0.32748E+04
 0.26899998E+02  0.46518E+04
 0.26949999E+02  0.48279E+04
 0.26999998E+02  0.30668E+04
 0.27049997E+02  0.35471E+04
 0.27099998E+02  0.45570E+04
 0.27149998E+02  0.30498E+04
 0.27199999E+02  0.32783E+04
 0.27249998E+02  0.44565E+04
 0.27299997E+02  0.56859E+04
 0.27349998E+02  0.54699E+04
 0.27399998E+02  0.56740E+04
 0.27449999E+02  0.55439E+04
 0.27499998E+02  0.40578E+04
 0.27549997E+02  0.36832E+04
 0.27599998E+02  0.45110E+04
 0.27649998E+02  0.44599E+04
 0.27699999E+02  0.29976E+04
 0.27749998E+02  0.45371E+04
 0.27799997E+02  0.46056E+04
 0.27849998E+02  0.28682E+04
 0.27899998E+02  0.28273E+04
 0.27949999E+02  0.36596E+04
 0.27999998E+02  0.34953E+04
 0.28049997E+02  0.39869E+04
 0.28099998E+02  0.60556E+04
 0.28149998E+02  0.50895E+04
 0.28199999E+02  0.38945E+04
 0.28249998E+02  0.42613E+04
 0.28299997E+02  0.29658E+04
 0.28349998E+02  0.40058E+04
 0.28399998E+02  0.45068E+04
 0.28449999E+02  0.33025E+04
 0.28499998E+02  0.44813E+04
 0.28549997E+02  0.60515E+04
 0.28599998E+02  0.53485E+04
 0.28649998E+02  0.32467E+04
 0.28699999E+02  0.19220E+04
 0.28749998E+02  0.35348E+04
 0.28799997E+02  0.61749E+04
 0.28849998E+02  0.53504E+04
 0.28899998E+02  0.39047E+04
 0.28949999E+02  0.27104E+04
 0.28999998E+02  0.27468E+04
 0.29049997E+02  0.42972E+04
 0.29099998E+02  0.46098E+04
 0.29149998E+02  0.44071E+04
 0.29199999E+02  0.36245E+04
 0.29249998E+02  0.50647E+04
 0.29299997E+02  0.59427E+04
 0.29349998E+02  0.40243E+04
 0.29399998E+02  0.42064E+04
 0.29449999E+02  0.41038E+04
 0.29499998E+02  0.34592E+04
 0.29549997E+02  0.44732E+04
 0.29599998E+02  0.49778E+04
 0.29649998E+02  0.47115E+04
 0.29699999E+02  0.37521E+04
 0.29749998E+02  0.39259E+04
 0.29799997E+02  0.32246E+04
 0.29849998E+02  0.35026E+04
 0.29899998E+02  0.45075E+04
 0.29949999E+02  0.32989E+04
 0.29999998E+02  0.39248E+04
 0.30049999E+02  0.51671E+04
 0.30099998E+02  0.39551E+04
 0.30149998E+02  0.31594E+04
 0.30199997E+02  0.30664E+04
 0.30249996E+02  0.50287E+04
 0.30299999E+02  0.49685E+04
 0.30349998E+02  0.45100E+04
 0.30399998E+02  0.41816E+04
 0.30449997E+02  0.29807E+04
 0.30499996E+02  0.39951E+04
 0.30549999E+02  0.39158E+04
 0.30599998E+02  0.46370E+04
 0.30649998E+02  0.40244E+04
 0.30699997E+02  0.37406E+04
 0.30749996E+02  0.45079E+04
 0.30799999E+02  0.38774E+04
 0.30849998E+02  0.40211E+04
 0.30899998E+02  0.55228E+04
 0.30949997E+02  0.44621E+04
 0.30999996E+02  0.46022E+04
 0.31049999E+02  0.47254E+04
 0.31099998E+02  0.46177E+04
 0.31149998E+02  0.45349E+04
 0.31199997E+02  0.39580E+04
 0.31249996E+02  0.35948E+04
 0.31299999E+02  0.40827E+04
 0.31349998E+02  0.47862E+04
 0.31399998E+02  0.34503E+04
 0.31449997E+02  0.38645E+04
 0.31499996E+02  0.23029E+04
 0.31549999E+02  0.29082E+04
 0.31599998E+02  0.50453E+04
 0.31649998E+02  0.39079E+04
 0.31699997E+02  0.28697E+04
 0.31749996E+02  0.49948E+04
 0.31799999E+02  0.53471E+04
 0.31849998E+02  0.37189E+04
 0.31899998E+02  0.45052E+04
 0.31949997E+02  0.39475E+04
 0.31999996E+02  0.34428E+04
 0.32049999E+02  0.52388E+04
 0.32099998E+02  0.43782E+04
 0.32149998E+02  0.35508E+04
 0.32199997E+02  0.43996E+04
 0.32249996E+02  0.47367E+04
 0.32299999E+02  0.47504E+04
 0.32349998E+02  0.34621E+04
 0.32399998E+02  0.46878E+04
 0.32449997E+02  0.46945E+04
 0.32499996E+02  0.44668E+04
 0.32549999E+02  0.36276E+04
 0.32599998E+02  0.32119E+04
 0.32649998E+02  0.38773E+04
 0.32699997E+02  0.34049E+04
 0.32749996E+02  0.44470E+04
 0.32799999E+02  0.45714E+04
 0.32849998E+02  0.52049E+04
 0.32899998E+02  0.49975E+04
 0.32949997E+02  0.44763E+04
 0.32999996E+02  0.32849E+04
 0.33049999E+02  0.30495E+04
 0.33099998E+02  0.46889E+04
 0.33149998E+02  0.40219E+04
 0.33199997E+02  0.37956E+04
 0.33249996E+02  0.40509E+04
 0.33299999E+02  0.40484E+04
 0.33349998E+02  0.38253E+04
 0.33399998E+02  0.36403E+04
 0.33449997E+02  0.41174E+04
 0.33499996E+02  0.32026E+04
 0.33549999E+02  0.41862E+04
 0.33599998E+02  0.53735E+04
 0.33649998E+02  0.63486E+04
 0.33699997E+02  0.60915E+04
 0.33749996E+02  0.44197E+04
 0.33799999E+02  0.31204E+04
 0.33849998E+02  0.13918E+04
 0.33899998E+02  0.32144E+04
 0.33949997E+02  0.50473E+04
 0.33999996E+02  0.52712E+04
 0.34049999E+02  0.41539E+04
 0.34099998E+02  0.42163E+04
 0.34149998E+02  0.37843E+04
 0.34199997E+02  0.30690E+04
 0.34249996E+02  0.47884E+04
 0.34299999E+02  0.56072E+04
 0.34349998E+02  0.47101E+04
 0.34399998E+02  0.40087E+04
 0.34449997E+02  0.44253E+04
 0.34499996E+02  0.37388E+04
 0.34549999E+02  0.37046E+04
 0.34599998E+02  0.43830E+04
 0.34649998E+02  0.32290E+04
 0.34699997E+02  0.30309E+04
 0.34749996E+02  0.38661E+04
 0.34799999E+02  0.38422E+04
 0.34849998E+02  0.35157E+04
 0.34899998E+02  0.51696E+04
 0.34949997E+02  0.55348E+04
 0.34999996E+02  0.42629E+04
 0.35049999E+02  0.41894E+04
 0.35099998E+02  0.38138E+04
 0.35149998E+02  0.36806E+04
 0.35199997E+02  0.38483E+04
 0.35249996E+02  0.58612E+04
 0.35299999E+02  0.62038E+04
 0.35349998E+02  0.45274E+04
 0.35399998E+02  0.32578E+04
 0.35449997E+02  0.27558E+04
 0.35499996E+02  0.36312E+04
 0.35549999E+02  0.46799E+04
 0.35599998E+02  0.46592E+04
 0.35649998E+02  0.50669E+04
 0.35699997E+02  0.35322E+04
 0.35749996E+02  0.42376E+04
 0.35799999E+02  0.48193E+04
 0.35849998E+02  0.31777E+04
 0.35899998E+02  0.41349E+04
 0.35949997E+02  0.32670E+04
 0.35999996E+02  0.31167E+04
 0.36049999E+02  0.54307E+04
 0.36099998E+02  0.64325E+04
 0.36149998E+02  0.43077E+04
 0.36199997E+02  0.40087E+04
 0.36249996E+02  0.29033E+04
 0.36299999E+02  0.23052E+04
 0.36349998E+02  0.41850E+04
 0.36399998E+02  0.42594E+04
 0.36449997E+02  0.37612E+04
 0.36499996E+02  0.47691E+04
 0.36549999E+02  0.56269E+04
 0.36599998E+02  0.41056E+04
 0.36649998E+02  0.27461E+04
 0.36699997E+02  0.38992E+04
 0.36749996E+02  0.37332E+04
 0.36799999E+02  0.27003E+04
 0.36849998E+02  0.48506E+04
 0.36899998E+02  0.50666E+04
 0.36949997E+02  0.49365E+04
 0.36999996E+02  0.55738E+04
 0.37049999E+02  0.48719E+04
 0.37099998E+02  0.26928E+04
 0.37149998E+02  0.26085E+04
 0.37199997E+02  0.36938E+04
 0.37249996E+02  0.46254E+04
 0.37299999E+02  0.47884E+04
 0.37349998E+02  0.45875E+04
 0.37399998E+02  0.40311E+04
 0.37449997E+02  0.35710E+04
 0.37499996E+02  0.36327E+04
 0.37549999E+02  0.38624E+04
 0.37599998E+02  0.40822E+04
 0.37649998E+02  0.54831E+04
 0.37699997E+02  0.63575E+04
 0.37749996E+02  0.29505E+04
 0.37799999E+02  0.17753E+04
 0.37849998E+02  0.21864E+04
 0.37899998E+02  0.31923E+04
 0.37949997E+02  0.44054E+04
 0.37999996E+02  0.63484E+04
 0.38049999E+02  0.54310E+04
 0.38099998E+02  0.34790E+04
 0.38149998E+02  0.34169E+04
 0.38199997E+02  0.44185E+04
 0.38249996E+02  0.55642E+04
 0.38299999E+02  0.59540E+04
 0.38349998E+02  0.45956E+04
 0.38399998E+02  0.35478E+04
 0.38449997E+02  0.40180E+04
 0.38499996E+02  0.36989E+04
 0.38549999E+02  0.34786E+04
 0.38599998E+02  0.31873E+04
 0.38649998E+02  0.37164E+04
 0.38699997E+02  0.48134E+04
 0.38749996E+02  0.45989E+04
 0.38799999E+02  0.38942E+04
 0.38849998E+02  0.52924E+04
 0.38899998E+02  0.48979E+04
 0.38949997E+02  0.50585E+04
 0.38999996E+02  0.47545E+04
 0.39049999E+02  0.37560E+04
 0.39099998E+02  0.53383E+04
 0.39149998E+02  0.45994E+04
 0.39199997E+02  0.30397E+04
 0.39249996E+02  0.45855E+04
 0.39299999E+02  0.41193E+04
 0.39349998E+02  0.23025E+04
 0.39399998E+02  0.22135E+04
 0.39449997E+02  0.36223E+04
 0.39499996E+02  0.42832E+04
 0.39549999E+02  0.37199E+04
 0.39599998E+02  0.37854E+04
 0.39649998E+02  0.48270E+04
 0.39699997E+02  0.50743E+04
 0.39749996E+02  0.38161E+04
 0.39799999E+02  0.42238E+04
 0.39849998E+02  0.36923E+04
 0.39899998E+02  0.37568E+04
 0.39949997E+02  0.54548E+04
 0.39999996E+02  0.26803E+04
 0.40049999E+02  0.17994E+04
 0.40099998E+02  0.56430E+04
 0.40149998E+02  0.56402E+04
 0.40199997E+02  0.42043E+04
 0.40249996E+02  0.37607E+04
 0.40299999E+02  0.37450E+04
 0.40349998E+02  0.38485E+04
 0.40399998E+02  0.49600E+04
 0.40449997E+02  0.46618E+04
 0.40499996E+02  0.42304E+04
 0.40549999E+02  0.42967E+04
 0.40599998E+02  0.29364E+04
 0.40649998E+02  0.38914E+04
 0.40699997E+02  0.42987E+04
 0.40749996E+02  0.28749E+04
 0.40799999E+02  0.29899E+04
 0.40849998E+02  0.57385E+04
 0.40899998E+02  0.64072E+04
 0.40949997E+02  0.42403E+04
 0.40999996E+02  0.42799E+04
 0.41049999E+02  0.51270E+04
 0.41099998E+02  0.43326E+04
 0.41149998E+02  0.44321E+04
 0.41199997E+02  0.59525E+04
 0.41249996E+02  0.56833E+04
 0.41299999E+02  0.40185E+04
 0.41349998E+02  0.31193E+04
 0.41399998E+02  0.33459E+04
 0.41449997E+02  0.42884E+04
 0.41499996E+02  0.40674E+04
 0.41549999E+02  0.31620E+04
 0.41599998E+02  0.26455E+04
 0.41649998E+02  0.38167E+04
 0.41699997E+02  0.53220E+04
 0.41749996E+02  0.62721E+04
 0.41799999E+02  0.63536E+04
 0.41849998E+02  0.46628E+04
 0.41899998E+02  0.38372E+04
 0.41949997E+02  0.29737E+04
 0.41999996E+02  0.28546E+04
 0.42049999E+02  0.46203E+04
 0.42099998E+02  0.45613E+04
 0.42149998E+02  0.23248E+04
 0.42199997E+02  0.16266E+04
 0.42249996E+02  0.10991E+04
 0.42299999E+02  0.28565E+04
 0.42349998E+02  0.54208E+04
 0.42399998E+02  0.44288E+04
 0.42449997E+02  0.38601E+04
 0.42499996E+02  0.45909E+04
 0.42549999E+02  0.62037E+04
 0.42599998E+02  0.63688E+04
 0.42649998E+02  0.48025E+04
 0.42699997E+02  0.42654E+04
 0.42749996E+02  0.40449E+04
 0.42799995E+02  0.31288E+04
 0.42849998E+02  0.37995E+04
 0.42899998E+02  0.37872E+04
 0.42949997E+02  0.32084E+04
 0.42999996E+02  0.49073E+04
 0.43049995E+02  0.52359E+04
 0.43099998E+02  0.35067E+04
 0.43149998E+02  0.23362E+04
 0.43199997E+02  0.36409E+04
 0.43249996E+02  0.65536E+04
 0.43299995E+02  0.72105E+04
 0.43349998E+02  0.60321E+04
 0.43399998E+02  0.42789E+04
 0.43449997E+02  0.26694E+04
 0.43499996E+02  0.24080E+04
 0.43549995E+02  0.25642E+04
 0.43599998E+02  0.37750E+04
 0.43649998E+02  0.47004E+04
 0.43699997E+02  0.49633E+04
 0.43749996E+02  0.35609E+04
 0.43799995E+02  0.34224E+04
 0.43849998E+02  0.47305E+04
 0.43899998E+02  0.41670E+04
 0.43949997E+02  0.52911E+04
 0.43999996E+02  0.63110E+04
 0.44049995E+02  0.61589E+04
 0.44099998E+02  0.61030E+04
 0.44149998E+02  0.45670E+04
 0.44199997E+02  0.29184E+04
 0.44249996E+02  0.23928E+04
 0.44299995E+02  0.37690E+04
 0.44349998E+02  0.43065E+04
 0.44399998E+02  0.41785E+04
 0.44449997E+02  0.44753E+04
 0.44499996E+02  0.43678E+04
 0.44549995E+02  0.38835E+04
 0.44599998E+02  0.24282E+04
 0.44649998E+02  0.21734E+04
 0.44699997E+02  0.17777E+04
 0.44749996E+02  0.22262E+04
 0.44799995E+02  0.46309E+04
 0.44849998E+02  0.63742E+04
 0.44899998E+02  0.59700E+04
 0.44949997E+02  0.50727E+04
 0.44999996E+02  0.46960E+04
 0.45049995E+02  0.44149E+04
 0.45099998E+02  0.40399E+04
 0.45149998E+02  0.43347E+04
 0.45199997E+02  0.42366E+04
 0.45249996E+02  0.44133E+04
 0.45299995E+02  0.47895E+04
 0.45349998E+02  0.48284E+04
 0.45399998E+02  0.45907E+04
 0.45449997E+02  0.23453E+04
 0.45499996E+02  0.26143E+04
 0.45549995E+02  0.36525E+04
 0.45599998E+02  0.27999E+04
 0.45649998E+02  0.27088E+04
 0.45699997E+02  0.31208E+04
 0.45749996E+02  0.35680E+04
 0.45799995E+02  0.44004E+04
 0.45849998E+02  0.36044E+04
 0.45899998E+02  0.38594E+04
 0.45949997E+02  0.54850E+04
 0.45999996E+02  0.65450E+04
 0.46049995E+02  0.57699E+04
 0.46099998E+02  0.53967E+04
 0.46149998E+02  0.59694E+04
 0.46199997E+02  0.45332E+04
 0.46249996E+02  0.41653E+04
 0.46299995E+02  0.32946E+04
 0.46349998E+02  0.17842E+04
 0.46399998E+02  0.19773E+04
 0.46449997E+02  0.35233E+04
 0.46499996E+02  0.41534E+04
 0.46549995E+02  0.42162E+04
 0.46599998E+02  0.44875E+04
 0.46649998E+02  0.45509E+04
 0.46699997E+02  0.50206E+04
 0.46749996E+02  0.55648E+04
 0.46799995E+02  0.52862E+04
 0.46849998E+02  0.47630E+04
 0.46899998E+02  0.50852E+04
 0.46949997E+02  0.57488E+04
 0.46999996E+02  0.52119E+04
 0.47049995E+02  0.33917E+04
 0.47099998E+02  0.21885E+04
 0.47149998E+02  0.14100E+04
 0.47199997E+02  0.11614E+04
 0.47249996E+02  0.18413E+04
 0.47299995E+02  0.31705E+04
 0.47349998E+02  0.41564E+04
 0.47399998E+02  0.45626E+04
 0.47449997E+02  0.54863E+04
 0.47499996E+02  0.59331E+04
 0.47549995E+02  0.57879E+04
 0.47599998E+02  0.56169E+04
 0.47649998E+02  0.56300E+04
 0.47699997E+02  0.54997E+04
 0.47749996E+02  0.48092E+04
 0.47799995E+02  0.35776E+04
 0.47849998E+02  0.21760E+04
 0.47899998E+02  0.19293E+04
 0.47949997E+02  0.22922E+04
 0.47999996E+02  0.28745E+04
 0.48049995E+02  0.31598E+04
 0.48099998E+02  0.31198E+04
 0.48149998E+02  0.40438E+04
 0.48199997E+02  0.41975E+04
 0.48249996E+02  0.49098E+04
 0.48299995E+02  0.64884E+04
 0.48349998E+02  0.64797E+04
 0.48399998E+02  0.58424E+04
 0.48449997E+02  0.51655E+04
 0.48499996E+02  0.45758E+04
 0.48549995E+02  0.37620E+04
 0.48599998E+02  0.36640E+04
 0.48649998E+02  0.38300E+04
 0.48699997E+02  0.34677E+04
 0.48749996E+02  0.30329E+04
 0.48799995E+02  0.29511E+04
 0.48849998E+02  0.39666E+04
 0.48899998E+02  0.46644E+04
 0.48949997E+02  0.43820E+04
 0.48999996E+02  0.32577E+04
 0.49049995E+02  0.23454E+04
 0.49099998E+02  0.26687E+04
 0.49149998E+02  0.39208E+04
 0.49199997E+02  0.50228E+04
 0.49249996E+02  0.45881E+04
 0.49299995E+02  0.41662E+04
 0.49349998E+02  0.32236E+04
 0.49399998E+02  0.36810E+04
 0.49449997E+02  0.54061E+04
 0.49499996E+02  0.51539E+04
 0.49549995E+02  0.46744E+04
 0.49599998E+02  0.40560E+04
 0.49649998E+02  0.38518E+04
 0.49699997E+02  0.37342E+04
 0.49749996E+02  0.32875E+04
 0.49799995E+02  0.31055E+04
 0.49849998E+02  0.36562E+04
 0.49899998E+02  0.47044E+04
 0.49949997E+02  0.50280E+04
 0.49999996E+02  0.51539E+04
 0.50049995E+02  0.53836E+04
 0.50099998E+02  0.55162E+04
 0.50149998E+02  0.43070E+04
 0.50199997E+02  0.33592E+04
 0.50249996E+02  0.42165E+04
 0.50299995E+02  0.43248E+04
 0.50349998E+02  0.34914E+04
 0.50399998E+02  0.32958E+04
 0.50449997E+02  0.34752E+04
 0.50499996E+02  0.36930E+04
 0.50549995E+02  0.38863E+04
 0.50599998E+02  0.39311E+04
 0.50649998E+02  0.43919E+04
 0.50699997E+02  0.51529E+04
 0.50749996E+02  0.51107E+04
 0.50799995E+02  0.44842E+04
 0.50849998E+02  0.42369E+04
 0.50899998E+02  0.44466E+04
 0.50949997E+02  0.50765E+04
 0.50999996E+02  0.47837E+04
 0.51049995E+02  0.47051E+04
 0.51099998E+02  0.46874E+04
 0.51149998E+02  0.41933E+04
 0.51199997E+02  0.40473E+04
 0.51249996E+02  0.41117E+04
 0.51299995E+02  0.44264E+04
 0.51349998E+02  0.41657E+04
 0.51399998E+02  0.37349E+04
 0.51449997E+02  0.38546E+04
 0.51499996E+02  0.45834E+04
 0.51549995E+02  0.46303E+04
 0.51599998E+02  0.42465E+04
 0.51649998E+02  0.42022E+04
 0.51699997E+02  0.44543E+04
 0.51749996E+02  0.49625E+04
 0.51799995E+02  0.44558E+04
 0.51849998E+02  0.43335E+04
 0.51899998E+02  0.50372E+04
 0.51949997E+02  0.46237E+04
 0.51999996E+02  0.40575E+04
 0.52049995E+02  0.38846E+04
 0.52099998E+02  0.33096E+04
 0.52149998E+02  0.30385E+04
 0.52199997E+02  0.36364E+04
 0.52249996E+02  0.41889E+04
 0.52299995E+02  0.44574E+04
 0.52349998E+02  0.40750E+04
 0.52399998E+02  0.33958E+04
 0.52449997E+02  0.30279E+04
 0.52499996E+02  0.30852E+04
 0.52549995E+02  0.39119E+04
 0.52599998E+02  0.52317E+04
 0.52649998E+02  0.56258E+04
 0.52699997E+02  0.45960E+04
 0.52749996E+02  0.37847E+04
 0.52799995E+02  0.36434E+04
 0.52849998E+02  0.45608E+04
 0.52899998E+02  0.48524E+04
 0.52949997E+02  0.41587E+04
 0.52999996E+02  0.40839E+04
 0.53049995E+02  0.42901E+04
 0.53099998E+02  0.43757E+04
 0.53149998E+02  0.33375E+04
 0.53199997E+02  0.29081E+04
 0.53249996E+02  0.32289E+04
 0.53299995E+02  0.33462E+04
 0.53349998E+02  0.33305E+04
 0.53399998E+02  0.35743E+04
 0.53449997E+02  0.47543E+04
 0.53499996E+02  0.49235E+04
 0.53549995E+02  0.44637E+04
 0.53599998E+02  0.46551E+04
 0.53649998E+02  0.44583E+04
 0.53699997E+02  0.40155E+04
 0.53749996E+02  0.36634E+04
 0.53799995E+02  0.32461E+04
 0.53849998E+02  0.33275E+04
 0.53899998E+02  0.37635E+04
 0.53949997E+02  0.49488E+04
 0.53999996E+02  0.61315E+04
 0.54049995E+02  0.63068E+04
 0.54099998E+02  0.59909E+04
 0.54149998E+02  0.54116E+04
 0.54199997E+02  0.46893E+04
 0.54249996E+02  0.42469E+04
 0.54299995E+02  0.30852E+04
 0.54349998E+02  0.19534E+04
 0.54399998E+02  0.19922E+04
 0.54449997E+02  0.26146E+04
 0.54499996E+02  0.33647E+04
 0.54549995E+02  0.36694E+04
 0.54599998E+02  0.36801E+04
 0.54649998E+02  0.41506E+04
 0.54699997E+02  0.52290E+04
 0.54749996E+02  0.58593E+04
 0.54799995E+02  0.55944E+04
 0.54849998E+02  0.45678E+04
 0.54899998E+02  0.43510E+04
 0.54949997E+02  0.46380E+04
 0.54999996E+02  0.51134E+04
 0.55049995E+02  0.52691E+04
 0.55099998E+02  0.48697E+04
 0.55149998E+02  0.41652E+04
 0.55199997E+02  0.35336E+04
 0.55249996E+02  0.34099E+04
 0.55299995E+02  0.33443E+04
 0.55349998E+02  0.32224E+04
 0.55399998E+02  0.28602E+04
 0.55449997E+02  0.26605E+04
 0.55499996E+02  0.26624E+04
 0.55549995E+02  0.33723E+04
 0.55599998E+02  0.40110E+04
 0.55649998E+02  0.48514E+04
 0.55699997E+02  0.50349E+04
 0.55749996E+02  0.49620E+04
 0.55799995E+02  0.54448E+04
 0.55849995E+02  0.56510E+04
 0.55899998E+02  0.57296E+04
 0.55949997E+02  0.49579E+04
 0.55999996E+02  0.36840E+04
 0.56049995E+02  0.27530E+04
 0.56099995E+02  0.24629E+04
 0.56149998E+02  0.24072E+04
 0.56199997E+02  0.25583E+04
 0.56249996E+02  0.34878E+04
 0.56299995E+02  0.46320E+04
 0.56349995E+02  0.49806E+04
 0.56399998E+02  0.47659E+04
 0.56449997E+02  0.44659E+04
 0.56499996E+02  0.46728E+04
 0.56549995E+02  0.49534E+04
 0.56599995E+02  0.50377E+04
 0.56649998E+02  0.50350E+04
 0.56699997E+02  0.48412E+04
 0.56749996E+02  0.47754E+04
 0.56799995E+02  0.50444E+04
 0.56849995E+02  0.49113E+04
 0.56899998E+02  0.40921E+04
 0.56949997E+02  0.35437E+04
 0.56999996E+02  0.35911E+04
 0.57049995E+02  0.34506E+04
 0.57099995E+02  0.34864E+04
 0.57149998E+02  0.39681E+04
 0.57199997E+02  0.38168E+04
 0.57249996E+02  0.39493E+04
 0.57299995E+02  0.39200E+04
 0.57349995E+02  0.39272E+04
 0.57399998E+02  0.42230E+04
 0.57449997E+02  0.40829E+04
 0.57499996E+02  0.36785E+04
 0.57549995E+02  0.34337E+04
 0.57599995E+02  0.35744E+04
 0.57649998E+02  0.37762E+04
 0.57699997E+02  0.40571E+04
 0.57749996E+02  0.48803E+04
 0.57799995E+02  0.50905E+04
 0.57849995E+02  0.46512E+04
 0.57899998E+02  0.44149E+04
 0.57949997E+02  0.40388E+04
 0.57999996E+02  0.43507E+04
 0.58049995E+02  0.44735E+04
 0.58099995E+02  0.44086E+04
 0.58149998E+02  0.42300E+04
 0.58199997E+02  0.43568E+04
 0.58249996E+02  0.44238E+04
 0.58299995E+02  0.46963E+04
 0.58349995E+02  0.47234E+04
 0.58399998E+02  0.43698E+04
 0.58449997E+02  0.44074E+04
 0.58499996E+02  0.39896E+04
 0.58549995E+02  0.37730E+04
 0.58599995E+02  0.33873E+04
 0.58649998E+02  0.31892E+04
 0.58699997E+02  0.31978E+04
 0.58749996E+02  0.38181E+04
 0.58799995E+02  0.42656E+04
 0.58849995E+02  0.41728E+04
 0.58899998E+02  0.41143E+04
 0.58949997E+02  0.43773E+04
 0.58999996E+02  0.44642E+04
 0.59049995E+02  0.42821E+04
 0.59099995E+02  0.41454E+04
 0.59149998E+02  0.38296E+04
 0.59199997E+02  0.43265E+04
 0.59249996E+02  0.48028E+04
 0.59299995E+02  0.48742E+04
 0.59349995E+02  0.43752E+04
 0.59399998E+02  0.37789E+04
 0.59449997E+02  0.36524E+04
 0.59499996E+02  0.36929E+04
 0.59549995E+02  0.37249E+04
 0.59599995E+02  0.36795E+04
 0.59649998E+02  0.38025E+04
 0.59699997E+02  0.41470E+04
 0.59749996E+02  0.45214E+04
 0.59799995E+02  0.47516E+04
 0.59849995E+02  0.47226E+04
 0.59899998E+02  0.48899E+04
 0.59949997E+02  0.50514E+04
 0.59999996E+02  0.47289E+04
 0.60049995E+02  0.38211E+04
 0.60099995E+02  0.32690E+04
 0.60149998E+02  0.35526E+04
 0.60199997E+02  0.39586E+04
 0.60249996E+02  0.42663E+04
 0.60299995E+02  0.42662E+04
 0.60349995E+02  0.42186E+04
 0.60399998E+02  0.40430E+04
 0.60449997E+02  0.39870E+04
 0.60499996E+02  0.36927E+04
 0.60549995E+02  0.35856E+04
 0.60599995E+02  0.37299E+04
 0.60649998E+02  0.37262E+04
 0.60699997E+02  0.36071E+04
 0.60749996E+02  0.33639E+04
 0.60799995E+02  0.37461E+04
 0.60849995E+02  0.41731E+04
 0.60899998E+02  0.47732E+04
 0.60949997E+02  0.55129E+04
 0.60999996E+02  0.54927E+04
 0.61049995E+02  0.50150E+04
 0.61099995E+02  0.46688E+04
 0.61149998E+02  0.46761E+04
 0.61199997E+02  0.49023E+04
 0.61249996E+02  0.49715E+04
 0.61299995E+02  0.45585E+04
 0.61349995E+02  0.37937E+04
 0.61399998E+02  0.34012E+04
 0.61449997E+02  0.33148E+04
 0.61499996E+02  0.33846E+04
 0.61549995E+02  0.28623E+04
 0.61599995E+02  0.28840E+04
 0.61649998E+02  0.37556E+04
 0.61699997E+02  0.39376E+04
 0.61749996E+02  0.38730E+04
 0.61799995E+02  0.42695E+04
 0.61849995E+02  0.47685E+04
 0.61899998E+02  0.48700E+04
 0.61949997E+02  0.51877E+04
 0.61999996E+02  0.46938E+04
 0.62049995E+02  0.42596E+04
 0.62099998E+02  0.40380E+04
 0.62149994E+02  0.41128E+04
 0.62199997E+02  0.39133E+04
 0.62249992E+02  0.34932E+04
 0.62299995E+02  0.39147E+04
 0.62349998E+02  0.39627E+04
 0.62399994E+02  0.38822E+04
 0.62449997E+02  0.36341E+04
 0.62499992E+02  0.38231E+04
 0.62549995E+02  0.42878E+04
 0.62599998E+02  0.48737E+04
 0.62649994E+02  0.50125E+04
 0.62699997E+02  0.46416E+04
 0.62749992E+02  0.40700E+04
 0.62799995E+02  0.36230E+04
 0.62849998E+02  0.36898E+04
 0.62899994E+02  0.36402E+04
 0.62949997E+02  0.41071E+04
 0.62999992E+02  0.45352E+04
 0.63049995E+02  0.47448E+04
 0.63099998E+02  0.49323E+04
 0.63149994E+02  0.46233E+04
 0.63199997E+02  0.47134E+04
 0.63249992E+02  0.46376E+04
 0.63299995E+02  0.43692E+04
 0.63349998E+02  0.42796E+04
 0.63399994E+02  0.36569E+04
 0.63449997E+02  0.33168E+04
 0.63499992E+02  0.30091E+04
 0.63549995E+02  0.34396E+04
 0.63599998E+02  0.39468E+04
 0.63649994E+02  0.41495E+04
 0.63699997E+02  0.44598E+04
 0.63749992E+02  0.45200E+04
 0.63799995E+02  0.50878E+04
 0.63849998E+02  0.50477E+04
 0.63899994E+02  0.48381E+04
 0.63949997E+02  0.46684E+04
 0.63999992E+02  0.44835E+04
 0.64049995E+02  0.46553E+04
 0.64099998E+02  0.43980E+04
 0.64149994E+02  0.39228E+04
 0.64199997E+02  0.31082E+04
 0.64249992E+02  0.29456E+04
 0.64299995E+02  0.31035E+04
 0.64349998E+02  0.31416E+04
 0.64399994E+02  0.36068E+04
 0.64449997E+02  0.39959E+04
 0.64499992E+02  0.45585E+04
 0.64549995E+02  0.47041E+04
 0.64599998E+02  0.51522E+04
 0.64649994E+02  0.51735E+04
 0.64699997E+02  0.48584E+04
 0.64749992E+02  0.47540E+04
 0.64799995E+02  0.42385E+04
 0.64849998E+02  0.39029E+04
 0.64899994E+02  0.37252E+04
 0.64949997E+02  0.36847E+04
 0.64999992E+02  0.37755E+04
 0.65049995E+02  0.38683E+04
 0.65099998E+02  0.40457E+04
 0.65149994E+02  0.42905E+04
 0.65199997E+02  0.44098E+04
 0.65249992E+02  0.46535E+04
 0.65299995E+02  0.46117E+04
 0.65349998E+02  0.45145E+04
 0.65399994E+02  0.46652E+04
 0.65449997E+02  0.46768E+04
 0.65499992E+02  0.45129E+04
 0.65549995E+02  0.41519E+04
 0.65599998E+02  0.38394E+04
 0.65649994E+02  0.34601E+04
 0.65699997E+02  0.33924E+04
 0.65749992E+02  0.36712E+04
 0.65799995E+02  0.38414E+04
 0.65849998E+02  0.40247E+04
 0.65899994E+02  0.40394E+04
 0.65949997E+02  0.38095E+04
 0.65999992E+02  0.38533E+04
 0.66049995E+02  0.40272E+04
 0.66099998E+02  0.42188E+04
 0.66149994E+02  0.44709E+04
 0.66199997E+02  0.43881E+04
 0.66249992E+02  0.41431E+04
 0.66299995E+02  0.36644E+04
 0.66349998E+02  0.32536E+04
 0.66399994E+02  0.32310E+04
 0.66449997E+02  0.34647E+04
 0.66499992E+02  0.39088E+04
 0.66549995E+02  0.43530E+04
 0.66599998E+02  0.46577E+04
 0.66649994E+02  0.46044E+04
 0.66699997E+02  0.45898E+04
 0.66749992E+02  0.47428E+04
 0.66799995E+02  0.46219E+04
 0.66849998E+02  0.46113E+04
 0.66899994E+02  0.45670E+04
 0.66949997E+02  0.43694E+04
 0.66999992E+02  0.39864E+04
 0.67049995E+02  0.40203E+04
 0.67099998E+02  0.42432E+04
 0.67149994E+02  0.40997E+04
 0.67199997E+02  0.40766E+04
 0.67249992E+02  0.43094E+04
 0.67299995E+02  0.44123E+04
 0.67349998E+02  0.43519E+04
 0.67399994E+02  0.44256E+04
 0.67449997E+02  0.43659E+04
 0.67499992E+02  0.42678E+04
 0.67549995E+02  0.41819E+04
 0.67599998E+02  0.37599E+04
 0.67649994E+02  0.36849E+04
 0.67699997E+02  0.36380E+04
 0.67749992E+02  0.33663E+04
 0.67799995E+02  0.34404E+04
 0.67849998E+02  0.37442E+04
 0.67899994E+02  0.43582E+04
 0.67949997E+02  0.46477E+04
 0.67999992E+02  0.48577E+04
 0.68049995E+02  0.47362E+04
 0.68099998E+02  0.46326E+04
 0.68149994E+02  0.44814E+04
 0.68199997E+02  0.44296E+04
 0.68249992E+02  0.43359E+04
 0.68299995E+02  0.42768E+04
 0.68349998E+02  0.42262E+04
 0.68399994E+02  0.38758E+04
 0.68449997E+02  0.37439E+04
 0.68499992E+02  0.37450E+04
 0.68549995E+02  0.39855E+04
 0.68599998E+02  0.38532E+04
 0.68649994E+02  0.38778E+04
 0.68699997E+02  0.40042E+04
 0.68749992E+02  0.42145E+04
 0.68799995E+02  0.44389E+04
 0.68849998E+02  0.45198E+04
 0.68899994E+02  0.48000E+04
 0.68949997E+02  0.48320E+04
 0.68999992E+02  0.44639E+04
 0.69049995E+02  0.41944E+04
 0.69099998E+02  0.37460E+04
 0.69149994E+02  0.35368E+04
 0.69199997E+02  0.36415E+04
 0.69249992E+02  0.37641E+04
 0.69299995E+02  0.41141E+04
 0.69349998E+02  0.42745E+04
 0.69399994E+02  0.42432E+04
 0.69449997E+02  0.42785E+04
 0.69499992E+02  0.43423E+04
 0.69549995E+02  0.45765E+04
 0.69599998E+02  0.46274E+04
 0.69649994E+02  0.43514E+04
 0.69699997E+02  0.42091E+04
 0.69749992E+02  0.38664E+04
 0.69799995E+02  0.35984E+04
 0.69849998E+02  0.35163E+04
 0.69899994E+02  0.34178E+04
 0.69949997E+02  0.36103E+04
 0.69999992E+02  0.41048E+04
 0.70049995E+02  0.43367E+04
 0.70099998E+02  0.42908E+04
 0.70149994E+02  0.42025E+04
 0.70199997E+02  0.42949E+04
 0.70249992E+02  0.44159E+04
 0.70299995E+02  0.43213E+04
 0.70349998E+02  0.43149E+04
 0.70399994E+02  0.43548E+04
 0.70449997E+02  0.42422E+04
 0.70499992E+02  0.42146E+04
 0.70549995E+02  0.43675E+04
 0.70599998E+02  0.44433E+04
 0.70649994E+02  0.46738E+04
 0.70699997E+02  0.47890E+04
 0.70749992E+02  0.46656E+04
 0.70799995E+02  0.45224E+04
 0.70849998E+02  0.43129E+04
 0.70899994E+02  0.41681E+04
 0.70949997E+02  0.40529E+04
 0.70999992E+02  0.39599E+04
 0.71049995E+02  0.38492E+04
 0.71099998E+02  0.38118E+04
 0.71149994E+02  0.37411E+04
 0.71199997E+02  0.37803E+04
 0.71249992E+02  0.39854E+04
 0.71299995E+02  0.42700E+04
 0.71349998E+02  0.46187E+04
 0.71399994E+02  0.45493E+04
 0.71449997E+02  0.44014E+04
 0.71499992E+02  0.44109E+04
 0.71549995E+02  0.45211E+04
 0.71599998E+02  0.44931E+04
 0.71649994E+02  0.43861E+04
 0.71699997E+02  0.42224E+04
 0.71749992E+02  0.40284E+04
 0.71799995E+02  0.38551E+04
 0.71849998E+02  0.36597E+04
 0.71899994E+02  0.33514E+04
 0.71949997E+02  0.30480E+04
 0.71999992E+02  0.31738E+04
 0.72049995E+02  0.33323E+04
 0.72099998E+02  0.36766E+04
 0.72149994E+02  0.38227E+04
 0.72199997E+02  0.38655E+04
 0.72249992E+02  0.42376E+04
 0.72299995E+02  0.43025E+04
 0.72349998E+02  0.43476E+04
 0.72399994E+02  0.45615E+04
 0.72449997E+02  0.47770E+04
 0.72499992E+02  0.51843E+04
 0.72549995E+02  0.51380E+04
 0.72599998E+02  0.45766E+04
 0.72649994E+02  0.43117E+04
 0.72699997E+02  0.42004E+04
 0.72749992E+02  0.39072E+04
 0.72799995E+02  0.38857E+04
 0.72849998E+02  0.40103E+04
 0.72899994E+02  0.37995E+04
 0.72949997E+02  0.41293E+04
 0.72999992E+02  0.43330E+04
 0.73049995E+02  0.41252E+04
 0.73099998E+02  0.42815E+04
 0.73149994E+02  0.43817E+04
 0.73199997E+02  0.44119E+04
 0.73249992E+02  0.44639E+04
 0.73299995E+02  0.42220E+04
 0.73349998E+02  0.40682E+04
 0.73399994E+02  0.43132E+04
 0.73449997E+02  0.41069E+04
 0.73499992E+02  0.39819E+04
 0.73549995E+02  0.39055E+04
 0.73599998E+02  0.39812E+04
 0.73649994E+02  0.42688E+04
 0.73699997E+02  0.42546E+04
 0.73749992E+02  0.42375E+04
 0.73799995E+02  0.42164E+04
 0.73849998E+02  0.41851E+04
 0.73899994E+02  0.40643E+04
 0.73949997E+02  0.41942E+04
 0.73999992E+02  0.43071E+04
 0.74049995E+02  0.42754E+04
 0.74099998E+02  0.41504E+04
 0.74149994E+02  0.41227E+04
 0.74199997E+02  0.41222E+04
 0.74249992E+02  0.39930E+04
 0.74299995E+02  0.39606E+04
 0.74349998E+02  0.38990E+04
 0.74399994E+02  0.37723E+04
 0.74449997E+02  0.37766E+04
 0.74499992E+02  0.38323E+04
 0.74549995E+02  0.36955E+04
 0.74599998E+02  0.37601E+04
 0.74649994E+02  0.40574E+04
 0.74699997E+02  0.42272E+04
 0.74749992E+02  0.42986E+04
 0.74799995E+02  0.43414E+04
 0.74849998E+02  0.42163E+04
 0.74899994E+02  0.41973E+04
 0.74949997E+02  0.41846E+04
 0.74999992E+02  0.40995E+04
 0.75049995E+02  0.42160E+04
 0.75099998E+02  0.45088E+04
 0.75149994E+02  0.48490E+04
 0.75199997E+02  0.50347E+04
 0.75249992E+02  0.51546E+04
 0.75299995E+02  0.49849E+04
 0.75349998E+02  0.48229E+04
 0.75399994E+02  0.47335E+04
 0.75449997E+02  0.42384E+04
 0.75499992E+02  0.38966E+04
 0.75549995E+02  0.36080E+04
 0.75599998E+02  0.35230E+04
 0.75649994E+02  0.35144E+04
 0.75699997E+02  0.36049E+04
 0.75749992E+02  0.38202E+04
 0.75799995E+02  0.39479E+04
 0.75849998E+02  0.42420E+04
 0.75899994E+02  0.43418E+04
 0.75949997E+02  0.46131E+04
 0.75999992E+02  0.46934E+04
 0.76049995E+02  0.44186E+04
 0.76099998E+02  0.42408E+04
 0.76149994E+02  0.42210E+04
 0.76199997E+02  0.42876E+04
 0.76249992E+02  0.43276E+04
 0.76299995E+02  0.44889E+04
 0.76349998E+02  0.43612E+04
 0.76399994E+02  0.42501E+04
 0.76449997E+02  0.41765E+04
 0.76499992E+02  0.40185E+04
 0.76549995E+02  0.39616E+04
 0.76599998E+02  0.38754E+04
 0.76649994E+02  0.35973E+04
 0.76699997E+02  0.32471E+04
 0.76749992E+02  0.31728E+04
 0.76799995E+02  0.30434E+04
 0.76849998E+02  0.31942E+04
 0.76899994E+02  0.34095E+04
 0.76949997E+02  0.36544E+04
 0.76999992E+02  0.39015E+04
 0.77049995E+02  0.40693E+04
 0.77099998E+02  0.42118E+04
 0.77149994E+02  0.43737E+04
 0.77199997E+02  0.45936E+04
 0.77249992E+02  0.46659E+04
 0.77299995E+02  0.47613E+04
 0.77349998E+02  0.47040E+04
 0.77399994E+02  0.45213E+04
 0.77449997E+02  0.43401E+04
 0.77499992E+02  0.43295E+04
 0.77549995E+02  0.43311E+04
 0.77599998E+02  0.43102E+04
 0.77649994E+02  0.42366E+04
 0.77699997E+02  0.39831E+04
 0.77749992E+02  0.40954E+04
 0.77799995E+02  0.45122E+04
 0.77849998E+02  0.45226E+04
 0.77899994E+02  0.45822E+04
 0.77949997E+02  0.48136E+04
 0.77999992E+02  0.48697E+04
 0.78049995E+02  0.48741E+04
 0.78099998E+02  0.47674E+04
 0.78149994E+02  0.43979E+04
 0.78199997E+02  0.40549E+04
 0.78249992E+02  0.39109E+04
 0.78299995E+02  0.37896E+04
 0.78349998E+02  0.37886E+04
 0.78399994E+02  0.36745E+04
 0.78449997E+02  0.34992E+04
 0.78499992E+02  0.36891E+04
 0.78549995E+02  0.37724E+04
 0.78599998E+02  0.35132E+04
 0.78649994E+02  0.35814E+04
 0.78699997E+02  0.39400E+04
 0.78749992E+02  0.42301E+04
 0.78799995E+02  0.43041E+04
 0.78849998E+02  0.44252E+04
 0.78899994E+02  0.43436E+04
 0.78949997E+02  0.43273E+04
 0.78999992E+02  0.42428E+04
 0.79049995E+02  0.40997E+04
 0.79099998E+02  0.43061E+04
 0.79149994E+02  0.41830E+04
 0.79199997E+02  0.41247E+04
 0.79249992E+02  0.43559E+04
 0.79299995E+02  0.42862E+04
 0.79349998E+02  0.42113E+04
 0.79399994E+02  0.43952E+04
 0.79449997E+02  0.43776E+04
 0.79499992E+02  0.44091E+04
 0.79549995E+02  0.44889E+04
 0.79599998E+02  0.45484E+04
 0.79649994E+02  0.46375E+04
 0.79699997E+02  0.43317E+04
 0.79749992E+02  0.40965E+04
 0.79799995E+02  0.38996E+04
 0.79849998E+02  0.35610E+04
 0.79899994E+02  0.36480E+04
 0.79949997E+02  0.37905E+04
 0.79999992E+02  0.37216E+04
 0.80049995E+02  0.37783E+04
 0.80099998E+02  0.43008E+04
 0.80149994E+02  0.46454E+04
 0.80199997E+02  0.45954E+04
 0.80249992E+02  0.43234E+04
 0.80299995E+02  0.45367E+04
 0.80349998E+02  0.44208E+04
 0.80399994E+02  0.41867E+04
 0.80449997E+02  0.41089E+04
 0.80499992E+02  0.34559E+04
 0.80549995E+02  0.38672E+04
 0.80599998E+02  0.39379E+04
 0.80649994E+02  0.35490E+04
 0.80699997E+02  0.40934E+04
 0.80749992E+02  0.45761E+04
 0.80799995E+02  0.45659E+04
 0.80849998E+02  0.48093E+04
 0.80899994E+02  0.47875E+04
 0.80949997E+02  0.45599E+04
 0.80999992E+02  0.44487E+04
 0.81049995E+02  0.39235E+04
 0.81099998E+02  0.40316E+04
 0.81149994E+02  0.38376E+04
 0.81199997E+02  0.37050E+04
 0.81249992E+02  0.38681E+04
 0.81299995E+02  0.36177E+04
 0.81349998E+02  0.36249E+04
 0.81399994E+02  0.39438E+04
 0.81449997E+02  0.41923E+04
 0.81499992E+02  0.38717E+04
 0.81549995E+02  0.40269E+04
 0.81599998E+02  0.43819E+04
 0.81649994E+02  0.44134E+04
 0.81699997E+02  0.42907E+04
 0.81749992E+02  0.40523E+04
 0.81799995E+02  0.40972E+04
 0.81849998E+02  0.46918E+04
 0.81899994E+02  0.43275E+04
 0.81949997E+02  0.38418E+04
 0.81999992E+02  0.40680E+04
 0.82049995E+02  0.39927E+04
 0.82099998E+02  0.42521E+04
 0.82149994E+02  0.42384E+04
 0.82199997E+02  0.40456E+04
 0.82249992E+02  0.42018E+04
 0.82299995E+02  0.44692E+04
 0.82349998E+02  0.43931E+04
 0.82399994E+02  0.43247E+04
 0.82449997E+02  0.44596E+04
 0.82499992E+02  0.45937E+04
 0.82549995E+02  0.43374E+04
 0.82599998E+02  0.41553E+04
 0.82649994E+02  0.41557E+04
 0.82699997E+02  0.44611E+04
 0.82749992E+02  0.43371E+04
 0.82799995E+02  0.38507E+04
 0.82849998E+02  0.41003E+04
 0.82899994E+02  0.41929E+04
 0.82949997E+02  0.39229E+04
 0.82999992E+02  0.36921E+04
 0.83049995E+02  0.41319E+04
 0.83099998E+02  0.38089E+04
 0.83149994E+02  0.36825E+04
 0.83199997E+02  0.38683E+04
 0.83249992E+02  0.35372E+04
 0.83299995E+02  0.35700E+04
 0.83349998E+02  0.37558E+04
 0.83399994E+02  0.40350E+04
 0.83449997E+02  0.43617E+04
 0.83499992E+02  0.45852E+04
 0.83549995E+02  0.46971E+04
 0.83599998E+02  0.49292E+04
 0.83649994E+02  0.48341E+04
 0.83699997E+02  0.49953E+04
 0.83749992E+02  0.47648E+04
 0.83799995E+02  0.44442E+04
 0.83849998E+02  0.43728E+04
 0.83899994E+02  0.38231E+04
 0.83949997E+02  0.35844E+04
 0.83999992E+02  0.36391E+04
 0.84049995E+02  0.36135E+04
 0.84099998E+02  0.34711E+04
 0.84149994E+02  0.36850E+04
 0.84199997E+02  0.37931E+04
 0.84249992E+02  0.39737E+04
 0.84299995E+02  0.43112E+04
 0.84349998E+02  0.44184E+04
 0.84399994E+02  0.45766E+04
 0.84449997E+02  0.44789E+04
 0.84499992E+02  0.45311E+04
 0.84549995E+02  0.42876E+04
 0.84599998E+02  0.43349E+04
 0.84649994E+02  0.46084E+04
 0.84699997E+02  0.43699E+04
 0.84749992E+02  0.43173E+04
 0.84799995E+02  0.41007E+04
 0.84849998E+02  0.40730E+04
 0.84899994E+02  0.40381E+04
 0.84949997E+02  0.39020E+04
 0.84999992E+02  0.39358E+04
 0.85049995E+02  0.39260E+04
 0.85099998E+02  0.38529E+04
 0.85149994E+02  0.39511E+04
 0.85199997E+02  0.41711E+04
 0.85249992E+02  0.41860E+04
 0.85299995E+02  0.42677E+04
 0.85349998E+02  0.44375E+04
 0.85399994E+02  0.43346E+04
 0.85449997E+02  0.42737E+04
 0.85499992E+02  0.45613E+04
 0.85549995E+02  0.44533E+04
 0.85599998E+02  0.43786E+04
 0.85649994E+02  0.44056E+04
 0.85699997E+02  0.42884E+04
 0.85749992E+02  0.41905E+04
 0.85799995E+02  0.40771E+04
 0.85849998E+02  0.40738E+04
 0.85899994E+02  0.39676E+04
 0.85949997E+02  0.38918E+04
 0.85999992E+02  0.38862E+04
 0.86049995E+02  0.41332E+04
 0.86099998E+02  0.43375E+04
 0.86149994E+02  0.43912E+04
 0.86199997E+02  0.43248E+04
 0.86249992E+02  0.43203E+04
 0.86299995E+02  0.43967E+04
 0.86349998E+02  0.41920E+04
 0.86399994E+02  0.40564E+04
 0.86449997E+02  0.38298E+04
 0.86499992E+02  0.34069E+04
 0.86549995E+02  0.34895E+04
 0.86599998E+02  0.38953E+04
 0.86649994E+02  0.36314E+04
 0.86699997E+02  0.35109E+04
 0.86749992E+02  0.39661E+04
 0.86799995E+02  0.43249E+04
 0.86849998E+02  0.44785E+04
 0.86899994E+02  0.45554E+04
 0.86949997E+02  0.46315E+04
 0.86999992E+02  0.45401E+04
 0.87049995E+02  0.44305E+04
 0.87099998E+02  0.42422E+04
 0.87149994E+02  0.41771E+04
 0.87199997E+02  0.41319E+04
 0.87249992E+02  0.41595E+04
 0.87299995E+02  0.42382E+04
 0.87349998E+02  0.42508E+04
 0.87399994E+02  0.42848E+04
 0.87449997E+02  0.41990E+04
 0.87499992E+02  0.43702E+04
 0.87549995E+02  0.43400E+04
 0.87599991E+02  0.43479E+04
 0.87649994E+02  0.41840E+04
 0.87699997E+02  0.40171E+04
 0.87749992E+02  0.40071E+04
 0.87799995E+02  0.38246E+04
 0.87849991E+02  0.38586E+04
 0.87899994E+02  0.38035E+04
 0.87949997E+02  0.39641E+04
 0.87999992E+02  0.41012E+04
 0.88049995E+02  0.42454E+04
 0.88099991E+02  0.43628E+04
 0.88149994E+02  0.45214E+04
 0.88199997E+02  0.46775E+04
 0.88249992E+02  0.46275E+04
 0.88299995E+02  0.47907E+04
 0.88349991E+02  0.46906E+04
 0.88399994E+02  0.44130E+04
 0.88449997E+02  0.42180E+04
 0.88499992E+02  0.39959E+04
 0.88549995E+02  0.38817E+04
 0.88599991E+02  0.36598E+04
 0.88649994E+02  0.36915E+04
 0.88699997E+02  0.37796E+04
 0.88749992E+02  0.38749E+04
 0.88799995E+02  0.39215E+04
 0.88849991E+02  0.38963E+04
 0.88899994E+02  0.38481E+04
 0.88949997E+02  0.38099E+04
 0.88999992E+02  0.39656E+04
 0.89049995E+02  0.40764E+04
 0.89099991E+02  0.42625E+04
 0.89149994E+02  0.43505E+04
 0.89199997E+02  0.43423E+04
 0.89249992E+02  0.43257E+04
 0.89299995E+02  0.43007E+04
 0.89349991E+02  0.42516E+04
 0.89399994E+02  0.42677E+04
 0.89449997E+02  0.41478E+04
 0.89499992E+02  0.42837E+04
 0.89549995E+02  0.42197E+04
 0.89599991E+02  0.42057E+04
 0.89649994E+02  0.41727E+04
 0.89699997E+02  0.40775E+04
 0.89749992E+02  0.41728E+04
 0.89799995E+02  0.39593E+04
 0.89849991E+02  0.38738E+04
 0.89899994E+02  0.37678E+04
 0.89949997E+02  0.39646E+04
 0.89999992E+02  0.40283E+04
 0.90049995E+02  0.39258E+04
 0.90099991E+02  0.41627E+04
 0.90149994E+02  0.43581E+04
 0.90199997E+02  0.43347E+04
 0.90249992E+02  0.43735E+04
 0.90299995E+02  0.44991E+04
 0.90349991E+02  0.44211E+04
 0.90399994E+02  0.43961E+04
 0.90449997E+02  0.43684E+04
 0.90499992E+02  0.41600E+04
 0.90549995E+02  0.41288E+04
 0.90599991E+02  0.41490E+04
 0.90649994E+02  0.41824E+04
 0.90699997E+02  0.39756E+04
 0.90749992E+02  0.38559E+04
 0.90799995E+02  0.40597E+04
 0.90849991E+02  0.41203E+04
 0.90899994E+02  0.42407E+04
 0.90949997E+02  0.42933E+04
 0.90999992E+02  0.45200E+04
 0.91049995E+02  0.44612E+04
 0.91099991E+02  0.44458E+04
 0.91149994E+02  0.45038E+04
 0.91199997E+02  0.43058E+04
 0.91249992E+02  0.43631E+04
 0.91299995E+02  0.40911E+04
 0.91349991E+02  0.39920E+04
 0.91399994E+02  0.40481E+04
 0.91449997E+02  0.39905E+04
 0.91499992E+02  0.39412E+04
 0.91549995E+02  0.39664E+04
 0.91599991E+02  0.40341E+04
 0.91649994E+02  0.39150E+04
 0.91699997E+02  0.39392E+04
 0.91749992E+02  0.40508E+04
 0.91799995E+02  0.42112E+04
 0.91849991E+02  0.42089E+04
 0.91899994E+02  0.41388E+04
 0.91949997E+02  0.41445E+04
 0.91999992E+02  0.43383E+04
 0.92049995E+02  0.43373E+04
 0.92099991E+02  0.41479E+04
 0.92149994E+02  0.39984E+04
 0.92199997E+02  0.38710E+04
 0.92249992E+02  0.40595E+04
 0.92299995E+02  0.40624E+04
 0.92349991E+02  0.38673E+04
 0.92399994E+02  0.40372E+04
 0.92449997E+02  0.41251E+04
 0.92499992E+02  0.40883E+04
 0.92549995E+02  0.41597E+04
 0.92599991E+02  0.43691E+04
 0.92649994E+02  0.45583E+04
 0.92699997E+02  0.46306E+04
 0.92749992E+02  0.46921E+04
 0.92799995E+02  0.46873E+04
 0.92849991E+02  0.46913E+04
 0.92899994E+02  0.47291E+04
 0.92949997E+02  0.46672E+04
 0.92999992E+02  0.44515E+04
 0.93049995E+02  0.42871E+04
 0.93099991E+02  0.41019E+04
 0.93149994E+02  0.41879E+04
 0.93199997E+02  0.41056E+04
 0.93249992E+02  0.39243E+04
 0.93299995E+02  0.37996E+04
 0.93349991E+02  0.37858E+04
 0.93399994E+02  0.37094E+04
 0.93449997E+02  0.37953E+04
 0.93499992E+02  0.39164E+04
 0.93549995E+02  0.37292E+04
 0.93599991E+02  0.37605E+04
 0.93649994E+02  0.39069E+04
 0.93699997E+02  0.40359E+04
 0.93749992E+02  0.39243E+04
 0.93799995E+02  0.41301E+04
 0.93849991E+02  0.42946E+04
 0.93899994E+02  0.43194E+04
 0.93949997E+02  0.43371E+04
 0.93999992E+02  0.41991E+04
 0.94049995E+02  0.41617E+04
 0.94099991E+02  0.43372E+04
 0.94149994E+02  0.43060E+04
 0.94199997E+02  0.39568E+04
 0.94249992E+02  0.41126E+04
 0.94299995E+02  0.41562E+04
 0.94349991E+02  0.39638E+04
 0.94399994E+02  0.41265E+04
 0.94449997E+02  0.42448E+04
 0.94499992E+02  0.41337E+04
 0.94549995E+02  0.42052E+04
 0.94599991E+02  0.43833E+04
 0.94649994E+02  0.45520E+04
 0.94699997E+02  0.45686E+04
 0.94749992E+02  0.44710E+04
 0.94799995E+02  0.43553E+04
 0.94849991E+02  0.40688E+04
 0.94899994E+02  0.40817E+04
 0.94949997E+02  0.38449E+04
 0.94999992E+02  0.36417E+04
 0.95049995E+02  0.37483E+04
 0.95099991E+02  0.36890E+04
 0.95149994E+02  0.38644E+04
 0.95199997E+02  0.39732E+04
 0.95249992E+02  0.41763E+04
 0.95299995E+02  0.41846E+04
 0.95349991E+02  0.44437E+04
 0.95399994E+02  0.48179E+04
 0.95449997E+02  0.46895E+04
 0.95499992E+02  0.48776E+04
 0.95549995E+02  0.49281E+04
 0.95599991E+02  0.45990E+04
 0.95649994E+02  0.45407E+04
 0.95699997E+02  0.42508E+04
 0.95749992E+02  0.39199E+04
 0.95799995E+02  0.40526E+04
 0.95849991E+02  0.37331E+04
 0.95899994E+02  0.36496E+04
 0.95949997E+02  0.36705E+04
 0.95999992E+02  0.35599E+04
 0.96049995E+02  0.38372E+04
 0.96099991E+02  0.37907E+04
 0.96149994E+02  0.37603E+04
 0.96199997E+02  0.39561E+04
 0.96249992E+02  0.40150E+04
 0.96299995E+02  0.39590E+04
 0.96349991E+02  0.40880E+04
 0.96399994E+02  0.42759E+04
 0.96449997E+02  0.41472E+04
 0.96499992E+02  0.41647E+04
 0.96549995E+02  0.43552E+04
 0.96599991E+02  0.42346E+04
 0.96649994E+02  0.42487E+04
 0.96699997E+02  0.43362E+04
 0.96749992E+02  0.43085E+04
 0.96799995E+02  0.42690E+04
 0.96849991E+02  0.43442E+04
 0.96899994E+02  0.43548E+04
 0.96949997E+02  0.42535E+04
 0.96999992E+02  0.44417E+04
 0.97049995E+02  0.43474E+04
 0.97099991E+02  0.43330E+04
 0.97149994E+02  0.42958E+04
 0.97199997E+02  0.42166E+04
 0.97249992E+02  0.44522E+04
 0.97299995E+02  0.43266E+04
 0.97349991E+02  0.41862E+04
 0.97399994E+02  0.44126E+04
 0.97449997E+02  0.42525E+04
 0.97499992E+02  0.42487E+04
 0.97549995E+02  0.43985E+04
 0.97599991E+02  0.41497E+04
 0.97649994E+02  0.41053E+04
 0.97699997E+02  0.38341E+04
 0.97749992E+02  0.35963E+04
 0.97799995E+02  0.36537E+04
 0.97849991E+02  0.36589E+04
 0.97899994E+02  0.36835E+04
 0.97949997E+02  0.38429E+04
 0.97999992E+02  0.40711E+04
