-0.20000000E+01  0.58991E+04
-0.19500000E+01  0.46843E+04
-0.19000000E+01  0.35385E+04
-0.18500000E+01  0.24354E+04
-0.18000000E+01  0.13252E+04
-0.17500000E+01  0.17735E+03
-0.17000000E+01 -0.10006E+04
-0.16500001E+01 -0.21609E+04
-0.16000000E+01 -0.33387E+04
-0.15500000E+01 -0.44921E+04
-0.15000000E+01 -0.55223E+04
-0.14500000E+01 -0.63669E+04
-0.14000001E+01 -0.70165E+04
-0.13500000E+01 -0.74609E+04
-0.13000001E+01 -0.77252E+04
-0.12500000E+01 -0.79144E+04
-0.12000000E+01 -0.80176E+04
-0.11500001E+01 -0.80504E+04
-0.11000000E+01 -0.81154E+04
-0.10500001E+01 -0.82132E+04
-0.10000000E+01 -0.82912E+04
-0.95000005E+00 -0.83089E+04
-0.90000010E+00 -0.83100E+04
-0.85000002E+00 -0.83324E+04
-0.80000007E+00 -0.83402E+04
-0.75000012E+00 -0.82886E+04
-0.70000005E+00 -0.81136E+04
-0.65000010E+00 -0.77929E+04
-0.60000014E+00 -0.72952E+04
-0.55000007E+00 -0.66471E+04
-0.50000012E+00 -0.58903E+04
-0.45000005E+00 -0.50090E+04
-0.40000010E+00 -0.40011E+04
-0.35000014E+00 -0.29018E+04
-0.30000007E+00 -0.17790E+04
-0.25000012E+00 -0.61509E+03
-0.20000005E+00  0.57305E+03
-0.15000010E+00  0.17592E+04
-0.10000014E+00  0.29875E+04
-0.50000072E-01  0.43009E+04
-0.11920929E-06  0.56950E+04
 0.49999952E-01  0.71173E+04
 0.99999905E-01  0.85106E+04
 0.14999986E+00  0.97639E+04
 0.19999981E+00  0.10848E+05
 0.24999976E+00  0.11793E+05
 0.29999995E+00  0.12591E+05
 0.34999990E+00  0.13189E+05
 0.39999986E+00  0.13532E+05
 0.44999981E+00  0.13667E+05
 0.49999976E+00  0.13623E+05
 0.54999995E+00  0.13405E+05
 0.59999990E+00  0.13088E+05
 0.64999986E+00  0.12677E+05
 0.69999981E+00  0.12167E+05
 0.74999976E+00  0.11664E+05
 0.79999971E+00  0.11302E+05
 0.84999990E+00  0.11032E+05
 0.89999986E+00  0.10747E+05
 0.94999981E+00  0.10473E+05
 0.99999976E+00  0.10181E+05
 0.10499997E+01  0.97571E+04
 0.10999999E+01  0.91182E+04
 0.11499999E+01  0.82860E+04
 0.11999998E+01  0.72772E+04
 0.12499998E+01  0.61220E+04
 0.12999997E+01  0.47709E+04
 0.13499999E+01  0.32217E+04
 0.13999999E+01  0.15696E+04
 0.14499998E+01 -0.17246E+03
 0.14999998E+01 -0.19643E+04
 0.15499997E+01 -0.38098E+04
 0.15999999E+01 -0.56476E+04
 0.16499999E+01 -0.74101E+04
 0.16999998E+01 -0.90603E+04
 0.17499998E+01 -0.10551E+05
 0.17999997E+01 -0.11879E+05
 0.18499997E+01 -0.13013E+05
 0.18999999E+01 -0.13934E+05
 0.19499998E+01 -0.14553E+05
 0.19999998E+01 -0.14832E+05
 0.20499997E+01 -0.14874E+05
 0.20999999E+01 -0.14793E+05
 0.21499996E+01 -0.14588E+05
 0.21999998E+01 -0.14271E+05
 0.22499995E+01 -0.13893E+05
 0.22999997E+01 -0.13431E+05
 0.23499999E+01 -0.12866E+05
 0.23999996E+01 -0.12216E+05
 0.24499998E+01 -0.11510E+05
 0.24999995E+01 -0.10793E+05
 0.25499997E+01 -0.10133E+05
 0.25999999E+01 -0.95429E+04
 0.26499996E+01 -0.90610E+04
 0.26999998E+01 -0.87781E+04
 0.27499995E+01 -0.86616E+04
 0.27999997E+01 -0.85997E+04
 0.28499999E+01 -0.86220E+04
 0.28999996E+01 -0.87836E+04
 0.29499998E+01 -0.90387E+04
 0.29999995E+01 -0.92878E+04
 0.30499997E+01 -0.95207E+04
 0.30999999E+01 -0.97345E+04
 0.31499996E+01 -0.98587E+04
 0.31999998E+01 -0.99264E+04
 0.32499995E+01 -0.10014E+05
 0.32999997E+01 -0.10092E+05
 0.33499999E+01 -0.10107E+05
 0.33999996E+01 -0.10057E+05
 0.34499998E+01 -0.99500E+04
 0.34999995E+01 -0.98221E+04
 0.35499997E+01 -0.97039E+04
 0.35999994E+01 -0.95121E+04
 0.36499996E+01 -0.91209E+04
 0.36999998E+01 -0.85512E+04
 0.37499995E+01 -0.78636E+04
 0.37999997E+01 -0.70650E+04
 0.38499994E+01 -0.60968E+04
 0.38999996E+01 -0.50088E+04
 0.39499998E+01 -0.39814E+04
 0.39999995E+01 -0.30483E+04
 0.40499997E+01 -0.21522E+04
 0.40999994E+01 -0.13319E+04
 0.41499996E+01 -0.63833E+03
 0.41999998E+01 -0.46203E+02
 0.42499995E+01  0.45308E+03
 0.42999997E+01  0.91515E+03
 0.43499994E+01  0.14089E+04
 0.43999996E+01  0.19271E+04
 0.44499998E+01  0.24274E+04
 0.44999995E+01  0.28731E+04
 0.45499997E+01  0.31881E+04
 0.45999994E+01  0.33804E+04
 0.46499996E+01  0.34714E+04
 0.46999998E+01  0.35585E+04
 0.47499995E+01  0.37894E+04
 0.47999997E+01  0.41378E+04
 0.48499994E+01  0.46311E+04
 0.48999996E+01  0.53156E+04
 0.49499998E+01  0.61922E+04
 0.49999995E+01  0.71612E+04
 0.50499997E+01  0.81980E+04
 0.50999994E+01  0.93058E+04
 0.51499996E+01  0.10473E+05
 0.51999998E+01  0.11686E+05
 0.52499995E+01  0.12911E+05
 0.52999997E+01  0.14134E+05
 0.53499994E+01  0.15304E+05
 0.53999996E+01  0.16351E+05
 0.54499993E+01  0.17150E+05
 0.54999995E+01  0.17759E+05
 0.55499997E+01  0.18178E+05
 0.55999994E+01  0.18347E+05
 0.56499996E+01  0.18248E+05
 0.56999993E+01  0.17958E+05
 0.57499995E+01  0.17583E+05
 0.57999997E+01  0.17093E+05
 0.58499994E+01  0.16515E+05
 0.58999996E+01  0.15874E+05
 0.59499993E+01  0.15187E+05
 0.59999995E+01  0.14433E+05
 0.60499992E+01  0.13697E+05
 0.60999994E+01  0.12977E+05
 0.61499996E+01  0.12234E+05
 0.61999998E+01  0.11479E+05
 0.62499990E+01  0.10631E+05
 0.62999992E+01  0.96758E+04
 0.63499994E+01  0.86104E+04
 0.63999996E+01  0.75396E+04
 0.64499998E+01  0.63714E+04
 0.64999990E+01  0.50621E+04
 0.65499992E+01  0.36413E+04
 0.65999994E+01  0.21153E+04
 0.66499996E+01  0.51054E+03
 0.66999998E+01 -0.11651E+04
 0.67499990E+01 -0.27818E+04
 0.67999992E+01 -0.43911E+04
 0.68499994E+01 -0.59596E+04
 0.68999996E+01 -0.74450E+04
 0.69499998E+01 -0.87690E+04
 0.69999990E+01 -0.99343E+04
 0.70499992E+01 -0.10961E+05
 0.70999994E+01 -0.11803E+05
 0.71499996E+01 -0.12495E+05
 0.71999998E+01 -0.12954E+05
 0.72499990E+01 -0.13191E+05
 0.72999992E+01 -0.13231E+05
 0.73499994E+01 -0.13142E+05
 0.73999996E+01 -0.12981E+05
 0.74499998E+01 -0.12719E+05
 0.74999990E+01 -0.12414E+05
 0.75499992E+01 -0.12148E+05
 0.75999994E+01 -0.11913E+05
 0.76499996E+01 -0.11672E+05
 0.76999998E+01 -0.11462E+05
 0.77499990E+01 -0.11350E+05
 0.77999992E+01 -0.11366E+05
 0.78499994E+01 -0.11429E+05
 0.78999996E+01 -0.11565E+05
 0.79499998E+01 -0.11802E+05
 0.79999990E+01 -0.12057E+05
 0.80499992E+01 -0.12237E+05
 0.80999994E+01 -0.12250E+05
 0.81499996E+01 -0.12078E+05
 0.81999998E+01 -0.11681E+05
 0.82499990E+01 -0.11140E+05
 0.82999992E+01 -0.10423E+05
 0.83499994E+01 -0.95044E+04
 0.83999996E+01 -0.84229E+04
 0.84499998E+01 -0.72867E+04
 0.84999990E+01 -0.61449E+04
 0.85499992E+01 -0.49470E+04
 0.85999994E+01 -0.37802E+04
 0.86499996E+01 -0.27058E+04
 0.86999998E+01 -0.17032E+04
 0.87499990E+01 -0.76737E+03
 0.87999992E+01  0.49369E+02
 0.88499994E+01  0.74824E+03
 0.88999996E+01  0.13491E+04
 0.89499998E+01  0.18790E+04
 0.89999990E+01  0.23598E+04
 0.90499992E+01  0.27527E+04
 0.90999994E+01  0.30929E+04
 0.91499996E+01  0.33679E+04
 0.91999989E+01  0.36140E+04
 0.92499990E+01  0.38355E+04
 0.92999992E+01  0.40304E+04
 0.93499994E+01  0.42714E+04
 0.93999996E+01  0.44774E+04
 0.94499989E+01  0.46731E+04
 0.94999990E+01  0.48337E+04
 0.95499992E+01  0.49933E+04
 0.95999994E+01  0.51541E+04
 0.96499996E+01  0.53427E+04
 0.96999989E+01  0.56397E+04
 0.97499990E+01  0.60324E+04
 0.97999992E+01  0.64943E+04
 0.98499994E+01  0.70140E+04
 0.98999996E+01  0.76076E+04
 0.99499989E+01  0.82535E+04
 0.99999990E+01  0.89860E+04
 0.10049999E+02  0.97834E+04
 0.10099999E+02  0.10546E+05
 0.10150000E+02  0.11229E+05
 0.10199999E+02  0.11827E+05
 0.10249999E+02  0.12304E+05
 0.10299999E+02  0.12600E+05
 0.10349999E+02  0.12710E+05
 0.10400000E+02  0.12682E+05
 0.10449999E+02  0.12518E+05
 0.10499999E+02  0.12203E+05
 0.10549999E+02  0.11747E+05
 0.10599999E+02  0.11115E+05
 0.10650000E+02  0.10297E+05
 0.10699999E+02  0.93382E+04
 0.10749999E+02  0.82727E+04
 0.10799999E+02  0.71300E+04
 0.10849999E+02  0.59631E+04
 0.10900000E+02  0.48278E+04
 0.10949999E+02  0.37256E+04
 0.10999999E+02  0.26802E+04
 0.11049999E+02  0.17058E+04
 0.11099999E+02  0.85898E+03
 0.11150000E+02  0.15417E+03
 0.11199999E+02 -0.42491E+03
 0.11249999E+02 -0.86952E+03
 0.11299999E+02 -0.12696E+04
 0.11349999E+02 -0.16519E+04
 0.11400000E+02 -0.19779E+04
 0.11449999E+02 -0.22758E+04
 0.11499999E+02 -0.25843E+04
 0.11549999E+02 -0.28364E+04
 0.11599999E+02 -0.29413E+04
 0.11650000E+02 -0.29093E+04
 0.11699999E+02 -0.27678E+04
 0.11749999E+02 -0.25353E+04
 0.11799999E+02 -0.22473E+04
 0.11849999E+02 -0.18923E+04
 0.11900000E+02 -0.14709E+04
 0.11949999E+02 -0.98598E+03
 0.11999999E+02 -0.41348E+03
 0.12049999E+02  0.24694E+03
 0.12099999E+02  0.98462E+03
 0.12150000E+02  0.17850E+04
 0.12199999E+02  0.26174E+04
 0.12249999E+02  0.34021E+04
 0.12299999E+02  0.40994E+04
 0.12349999E+02  0.47048E+04
 0.12400000E+02  0.52129E+04
 0.12449999E+02  0.55482E+04
 0.12499999E+02  0.56943E+04
 0.12549999E+02  0.56802E+04
 0.12599999E+02  0.54788E+04
 0.12649999E+02  0.50881E+04
 0.12699999E+02  0.45273E+04
 0.12749999E+02  0.38327E+04
 0.12799999E+02  0.30179E+04
 0.12849999E+02  0.21292E+04
 0.12899999E+02  0.12341E+04
 0.12949999E+02  0.33164E+03
 0.12999999E+02 -0.63584E+03
 0.13049999E+02 -0.16017E+04
 0.13099999E+02 -0.24960E+04
 0.13149999E+02 -0.32718E+04
 0.13199999E+02 -0.38744E+04
 0.13249999E+02 -0.43195E+04
 0.13299999E+02 -0.46447E+04
 0.13349999E+02 -0.48725E+04
 0.13399999E+02 -0.49713E+04
 0.13449999E+02 -0.49421E+04
 0.13499999E+02 -0.48193E+04
 0.13549999E+02 -0.46492E+04
 0.13599999E+02 -0.44402E+04
 0.13649999E+02 -0.41599E+04
 0.13699999E+02 -0.38148E+04
 0.13749999E+02 -0.33879E+04
 0.13799999E+02 -0.28340E+04
 0.13849999E+02 -0.21415E+04
 0.13899999E+02 -0.12934E+04
 0.13949999E+02 -0.28479E+03
 0.13999999E+02  0.86191E+03
 0.14049999E+02  0.20601E+04
 0.14099998E+02  0.32771E+04
 0.14150000E+02  0.44353E+04
 0.14199999E+02  0.54205E+04
 0.14249998E+02  0.62413E+04
 0.14299999E+02  0.69221E+04
 0.14349998E+02  0.74795E+04
 0.14400000E+02  0.78976E+04
 0.14449999E+02  0.81489E+04
 0.14499998E+02  0.82853E+04
 0.14549999E+02  0.83211E+04
 0.14599998E+02  0.81575E+04
 0.14650000E+02  0.78020E+04
 0.14699999E+02  0.72626E+04
 0.14749998E+02  0.65051E+04
 0.14799999E+02  0.55372E+04
 0.14849998E+02  0.45123E+04
 0.14900000E+02  0.34731E+04
 0.14949999E+02  0.23951E+04
 0.14999998E+02  0.13948E+04
 0.15049999E+02  0.46405E+03
 0.15099998E+02 -0.36724E+03
 0.15150000E+02 -0.11010E+04
 0.15199999E+02 -0.17503E+04
 0.15249998E+02 -0.23254E+04
 0.15299999E+02 -0.28521E+04
 0.15349998E+02 -0.33233E+04
 0.15400000E+02 -0.37439E+04
 0.15449999E+02 -0.41031E+04
 0.15499998E+02 -0.44044E+04
 0.15549999E+02 -0.46272E+04
 0.15599998E+02 -0.47092E+04
 0.15650000E+02 -0.46026E+04
 0.15699999E+02 -0.43577E+04
 0.15749998E+02 -0.40010E+04
 0.15799999E+02 -0.35000E+04
 0.15849998E+02 -0.29285E+04
 0.15900000E+02 -0.23440E+04
 0.15949999E+02 -0.16633E+04
 0.15999998E+02 -0.87653E+03
 0.16049999E+02 -0.33011E+01
 0.16099998E+02  0.93905E+03
 0.16150000E+02  0.18990E+04
 0.16199999E+02  0.28722E+04
 0.16249998E+02  0.38167E+04
 0.16299999E+02  0.46206E+04
 0.16349998E+02  0.52567E+04
 0.16400000E+02  0.57047E+04
 0.16449999E+02  0.59583E+04
 0.16499998E+02  0.60619E+04
 0.16549999E+02  0.60248E+04
 0.16599998E+02  0.58266E+04
 0.16650000E+02  0.54696E+04
 0.16699999E+02  0.49526E+04
 0.16749998E+02  0.42274E+04
 0.16799999E+02  0.33205E+04
 0.16849998E+02  0.22931E+04
 0.16900000E+02  0.11608E+04
 0.16949999E+02 -0.53497E+02
 0.16999998E+02 -0.12808E+04
 0.17049999E+02 -0.25119E+04
 0.17099998E+02 -0.37258E+04
 0.17150000E+02 -0.48679E+04
 0.17199999E+02 -0.59293E+04
 0.17249998E+02 -0.68752E+04
 0.17299999E+02 -0.76438E+04
 0.17349998E+02 -0.81912E+04
 0.17400000E+02 -0.85400E+04
 0.17449999E+02 -0.87053E+04
 0.17499998E+02 -0.86923E+04
 0.17549999E+02 -0.85603E+04
 0.17599998E+02 -0.83781E+04
 0.17650000E+02 -0.81770E+04
 0.17699999E+02 -0.79809E+04
 0.17749998E+02 -0.78271E+04
 0.17799999E+02 -0.77381E+04
 0.17849998E+02 -0.77536E+04
 0.17900000E+02 -0.78574E+04
 0.17949999E+02 -0.80562E+04
 0.17999998E+02 -0.84151E+04
 0.18049999E+02 -0.89099E+04
 0.18099998E+02 -0.94960E+04
 0.18150000E+02 -0.10136E+05
 0.18199999E+02 -0.10762E+05
 0.18249998E+02 -0.11284E+05
 0.18299999E+02 -0.11676E+05
 0.18349998E+02 -0.11930E+05
 0.18400000E+02 -0.12056E+05
 0.18449999E+02 -0.12071E+05
 0.18499998E+02 -0.11978E+05
 0.18549999E+02 -0.11784E+05
 0.18599998E+02 -0.11487E+05
 0.18650000E+02 -0.11082E+05
 0.18699999E+02 -0.10547E+05
 0.18749998E+02 -0.99147E+04
 0.18799999E+02 -0.91925E+04
 0.18849998E+02 -0.83616E+04
 0.18900000E+02 -0.74220E+04
 0.18949999E+02 -0.64327E+04
 0.18999998E+02 -0.54765E+04
 0.19049999E+02 -0.45601E+04
 0.19099998E+02 -0.37106E+04
 0.19150000E+02 -0.30139E+04
 0.19199999E+02 -0.25174E+04
 0.19249998E+02 -0.21784E+04
 0.19299999E+02 -0.19631E+04
 0.19349998E+02 -0.18379E+04
 0.19400000E+02 -0.17855E+04
 0.19449999E+02 -0.18025E+04
 0.19499998E+02 -0.19034E+04
 0.19549999E+02 -0.20588E+04
 0.19599998E+02 -0.21945E+04
 0.19650000E+02 -0.23094E+04
 0.19699999E+02 -0.23900E+04
 0.19749998E+02 -0.24706E+04
 0.19799999E+02 -0.25472E+04
 0.19849998E+02 -0.26304E+04
 0.19900000E+02 -0.27141E+04
 0.19949999E+02 -0.28172E+04
 0.19999998E+02 -0.29299E+04
 0.20049999E+02 -0.30334E+04
 0.20099998E+02 -0.31828E+04
 0.20150000E+02 -0.33328E+04
 0.20199999E+02 -0.34722E+04
 0.20249998E+02 -0.35686E+04
 0.20299999E+02 -0.36139E+04
 0.20349998E+02 -0.35912E+04
 0.20399998E+02 -0.35064E+04
 0.20449999E+02 -0.33440E+04
 0.20499998E+02 -0.30595E+04
 0.20549999E+02 -0.26583E+04
 0.20599998E+02 -0.21301E+04
 0.20649998E+02 -0.14831E+04
 0.20699999E+02 -0.68269E+03
 0.20749998E+02  0.28467E+03
 0.20799999E+02  0.14176E+04
 0.20849998E+02  0.26305E+04
 0.20899998E+02  0.38646E+04
 0.20949999E+02  0.51482E+04
 0.20999998E+02  0.64480E+04
 0.21049999E+02  0.77533E+04
 0.21099998E+02  0.89919E+04
 0.21149998E+02  0.10139E+05
 0.21199999E+02  0.11129E+05
 0.21249998E+02  0.11874E+05
 0.21299999E+02  0.12398E+05
 0.21349998E+02  0.12683E+05
 0.21399998E+02  0.12706E+05
 0.21449999E+02  0.12422E+05
 0.21499998E+02  0.11912E+05
 0.21549999E+02  0.11216E+05
 0.21599998E+02  0.10321E+05
 0.21649998E+02  0.92739E+04
 0.21699999E+02  0.81621E+04
 0.21749998E+02  0.70216E+04
 0.21799999E+02  0.58291E+04
 0.21849998E+02  0.45964E+04
 0.21899998E+02  0.33315E+04
 0.21949999E+02  0.20198E+04
 0.21999998E+02  0.69961E+03
 0.22049999E+02 -0.60102E+03
 0.22099998E+02 -0.18202E+04
 0.22149998E+02 -0.29089E+04
 0.22199999E+02 -0.38886E+04
 0.22249998E+02 -0.47097E+04
 0.22299999E+02 -0.53927E+04
 0.22349998E+02 -0.59746E+04
 0.22399998E+02 -0.64728E+04
 0.22449999E+02 -0.69151E+04
 0.22499998E+02 -0.72299E+04
 0.22549999E+02 -0.74562E+04
 0.22599998E+02 -0.76410E+04
 0.22649998E+02 -0.76996E+04
 0.22699999E+02 -0.75655E+04
 0.22749998E+02 -0.72946E+04
 0.22799999E+02 -0.69075E+04
 0.22849998E+02 -0.63473E+04
 0.22899998E+02 -0.56757E+04
 0.22949999E+02 -0.49748E+04
 0.22999998E+02 -0.42874E+04
 0.23049999E+02 -0.36570E+04
 0.23099998E+02 -0.31162E+04
 0.23149998E+02 -0.25288E+04
 0.23199999E+02 -0.18508E+04
 0.23249998E+02 -0.10681E+04
 0.23299999E+02 -0.16429E+03
 0.23349998E+02  0.84424E+03
 0.23399998E+02  0.19142E+04
 0.23449999E+02  0.29718E+04
 0.23499998E+02  0.40634E+04
 0.23549999E+02  0.51552E+04
 0.23599998E+02  0.61631E+04
 0.23649998E+02  0.71026E+04
 0.23699999E+02  0.79790E+04
 0.23749998E+02  0.87079E+04
 0.23799999E+02  0.92345E+04
 0.23849998E+02  0.95570E+04
 0.23899998E+02  0.96917E+04
 0.23949999E+02  0.96298E+04
 0.23999998E+02  0.93145E+04
 0.24049999E+02  0.87454E+04
 0.24099998E+02  0.79964E+04
 0.24149998E+02  0.70961E+04
 0.24199999E+02  0.60540E+04
 0.24249998E+02  0.48690E+04
 0.24299999E+02  0.35970E+04
 0.24349998E+02  0.22776E+04
 0.24399998E+02  0.95436E+03
 0.24449999E+02 -0.33788E+03
 0.24499998E+02 -0.15504E+04
 0.24549999E+02 -0.25844E+04
 0.24599998E+02 -0.34095E+04
 0.24649998E+02 -0.39996E+04
 0.24699999E+02 -0.43628E+04
 0.24749998E+02 -0.44956E+04
 0.24799999E+02 -0.43661E+04
 0.24849998E+02 -0.39908E+04
 0.24899998E+02 -0.34098E+04
 0.24949999E+02 -0.26495E+04
 0.24999998E+02 -0.17210E+04
 0.25049999E+02 -0.62915E+03
 0.25099998E+02  0.58145E+03
 0.25149998E+02  0.18448E+04
 0.25199999E+02  0.31606E+04
 0.25249998E+02  0.44935E+04
 0.25299999E+02  0.57368E+04
 0.25349998E+02  0.69219E+04
 0.25399998E+02  0.80033E+04
 0.25449999E+02  0.89469E+04
 0.25499998E+02  0.97981E+04
 0.25549999E+02  0.10538E+05
 0.25599998E+02  0.11191E+05
 0.25649998E+02  0.11781E+05
 0.25699999E+02  0.12340E+05
 0.25749998E+02  0.12821E+05
 0.25799999E+02  0.13190E+05
 0.25849998E+02  0.13444E+05
 0.25899998E+02  0.13551E+05
 0.25949999E+02  0.13493E+05
 0.25999998E+02  0.13244E+05
 0.26049999E+02  0.12805E+05
 0.26099998E+02  0.12181E+05
 0.26149998E+02  0.11374E+05
 0.26199999E+02  0.10445E+05
 0.26249998E+02  0.94201E+04
 0.26299999E+02  0.82965E+04
 0.26349998E+02  0.71116E+04
 0.26399998E+02  0.58966E+04
 0.26449999E+02  0.46614E+04
 0.26499998E+02  0.34541E+04
 0.26549999E+02  0.23217E+04
 0.26599998E+02  0.13027E+04
 0.26649998E+02  0.36632E+03
 0.26699999E+02 -0.51389E+03
 0.26749998E+02 -0.13098E+04
 0.26799999E+02 -0.20313E+04
 0.26849998E+02 -0.26520E+04
 0.26899998E+02 -0.31758E+04
 0.26949999E+02 -0.36653E+04
 0.26999998E+02 -0.41229E+04
 0.27049997E+02 -0.45057E+04
 0.27099998E+02 -0.48338E+04
 0.27149998E+02 -0.50837E+04
 0.27199999E+02 -0.52414E+04
 0.27249998E+02 -0.52711E+04
 0.27299997E+02 -0.51018E+04
 0.27349998E+02 -0.47478E+04
 0.27399998E+02 -0.42727E+04
 0.27449999E+02 -0.37078E+04
 0.27499998E+02 -0.30774E+04
 0.27549997E+02 -0.24656E+04
 0.27599998E+02 -0.18450E+04
 0.27649998E+02 -0.11724E+04
 0.27699999E+02 -0.50266E+03
 0.27749998E+02  0.11687E+03
 0.27799997E+02  0.69422E+03
 0.27849998E+02  0.12327E+04
 0.27899998E+02  0.16877E+04
 0.27949999E+02  0.20415E+04
 0.27999998E+02  0.23028E+04
 0.28049997E+02  0.24365E+04
 0.28099998E+02  0.24083E+04
 0.28149998E+02  0.22293E+04
 0.28199999E+02  0.19520E+04
 0.28249998E+02  0.15759E+04
 0.28299997E+02  0.10463E+04
 0.28349998E+02  0.35997E+03
 0.28399998E+02 -0.40611E+03
 0.28449999E+02 -0.12292E+04
 0.28499998E+02 -0.21539E+04
 0.28549997E+02 -0.32254E+04
 0.28599998E+02 -0.44274E+04
 0.28649998E+02 -0.56725E+04
 0.28699999E+02 -0.69321E+04
 0.28749998E+02 -0.81281E+04
 0.28799997E+02 -0.92738E+04
 0.28849998E+02 -0.10383E+05
 0.28899998E+02 -0.11398E+05
 0.28949999E+02 -0.12393E+05
 0.28999998E+02 -0.13363E+05
 0.29049997E+02 -0.14194E+05
 0.29099998E+02 -0.14855E+05
 0.29149998E+02 -0.15312E+05
 0.29199999E+02 -0.15516E+05
 0.29249998E+02 -0.15528E+05
 0.29299997E+02 -0.15303E+05
 0.29349998E+02 -0.14844E+05
 0.29399998E+02 -0.14332E+05
 0.29449999E+02 -0.13715E+05
 0.29499998E+02 -0.12998E+05
 0.29549997E+02 -0.12274E+05
 0.29599998E+02 -0.11508E+05
 0.29649998E+02 -0.10699E+05
 0.29699999E+02 -0.98848E+04
 0.29749998E+02 -0.91129E+04
 0.29799997E+02 -0.83808E+04
 0.29849998E+02 -0.78514E+04
 0.29899998E+02 -0.74652E+04
 0.29949999E+02 -0.71313E+04
 0.29999998E+02 -0.69068E+04
 0.30049999E+02 -0.66475E+04
 0.30099998E+02 -0.61724E+04
 0.30149998E+02 -0.55835E+04
 0.30199997E+02 -0.49162E+04
 0.30249996E+02 -0.41386E+04
 0.30299999E+02 -0.33727E+04
 0.30349998E+02 -0.25800E+04
 0.30399998E+02 -0.18400E+04
 0.30449997E+02 -0.11148E+04
 0.30499996E+02 -0.47029E+03
 0.30549999E+02  0.93008E+02
 0.30599998E+02  0.67404E+03
 0.30649998E+02  0.11008E+04
 0.30699997E+02  0.15112E+04
 0.30749996E+02  0.18772E+04
 0.30799999E+02  0.19454E+04
 0.30849998E+02  0.19447E+04
 0.30899998E+02  0.17289E+04
 0.30949997E+02  0.11074E+04
 0.30999996E+02  0.40171E+03
 0.31049999E+02 -0.20199E+03
 0.31099998E+02 -0.10268E+04
 0.31149998E+02 -0.18421E+04
 0.31199997E+02 -0.23657E+04
 0.31249996E+02 -0.30306E+04
 0.31299999E+02 -0.36293E+04
 0.31349998E+02 -0.39074E+04
 0.31399998E+02 -0.40317E+04
 0.31449997E+02 -0.41269E+04
 0.31499996E+02 -0.39909E+04
 0.31549999E+02 -0.39267E+04
 0.31599998E+02 -0.40374E+04
 0.31649998E+02 -0.40645E+04
 0.31699997E+02 -0.39634E+04
 0.31749996E+02 -0.38249E+04
 0.31799999E+02 -0.36211E+04
 0.31849998E+02 -0.29983E+04
 0.31899998E+02 -0.24844E+04
 0.31949997E+02 -0.22487E+04
 0.31999996E+02 -0.20814E+04
 0.32049999E+02 -0.23987E+04
 0.32099998E+02 -0.29339E+04
 0.32149998E+02 -0.26272E+04
 0.32199997E+02 -0.24395E+04
 0.32249996E+02 -0.28023E+04
 0.32299999E+02 -0.25933E+04
 0.32349998E+02 -0.25703E+04
 0.32399998E+02 -0.28054E+04
 0.32449997E+02 -0.30686E+04
 0.32499996E+02 -0.35039E+04
 0.32549999E+02 -0.38174E+04
 0.32599998E+02 -0.37376E+04
 0.32649998E+02 -0.35010E+04
 0.32699997E+02 -0.33766E+04
 0.32749996E+02 -0.30160E+04
 0.32799999E+02 -0.25168E+04
 0.32849998E+02 -0.15047E+04
 0.32899998E+02  0.37488E+03
 0.32949997E+02  0.18233E+04
 0.32999996E+02  0.22579E+04
 0.33049999E+02  0.29066E+04
 0.33099998E+02  0.39322E+04
 0.33149998E+02  0.42361E+04
 0.33199997E+02  0.43274E+04
 0.33249996E+02  0.50902E+04
 0.33299999E+02  0.53168E+04
 0.33349998E+02  0.63413E+04
 0.33399998E+02  0.68730E+04
 0.33449997E+02  0.61449E+04
 0.33499996E+02  0.58103E+04
 0.33549999E+02  0.62964E+04
 0.33599998E+02  0.71556E+04
 0.33649998E+02  0.72233E+04
 0.33699997E+02  0.75739E+04
 0.33749996E+02  0.74800E+04
 0.33799999E+02  0.76199E+04
 0.33849998E+02  0.73146E+04
 0.33899998E+02  0.68640E+04
 0.33949997E+02  0.50874E+04
 0.33999996E+02  0.29550E+04
 0.34049999E+02  0.31282E+04
 0.34099998E+02  0.37844E+04
 0.34149998E+02  0.38644E+04
 0.34199997E+02  0.38802E+04
 0.34249996E+02  0.48568E+04
 0.34299999E+02  0.66480E+04
 0.34349998E+02  0.74218E+04
 0.34399998E+02  0.53733E+04
 0.34449997E+02  0.37517E+04
 0.34499996E+02  0.17835E+04
 0.34549999E+02  0.56174E+03
 0.34599998E+02  0.64670E+03
 0.34649998E+02  0.18624E+04
 0.34699997E+02  0.31307E+04
 0.34749996E+02  0.40504E+04
 0.34799999E+02  0.92495E+04
 0.34849998E+02  0.12714E+05
 0.34899998E+02  0.15357E+05
 0.34949997E+02  0.16272E+05
 0.34999996E+02  0.15019E+05
 0.35049999E+02  0.18750E+05
 0.35099998E+02  0.18863E+05
 0.35149998E+02  0.16166E+05
 0.35199997E+02  0.18452E+05
 0.35249996E+02  0.21405E+05
 0.35299999E+02  0.19408E+05
 0.35349998E+02  0.15854E+05
 0.35399998E+02  0.14117E+05
 0.35449997E+02  0.11891E+05
 0.35499996E+02  0.13199E+05
 0.35549999E+02  0.13524E+05
 0.35599998E+02  0.12416E+05
 0.35649998E+02  0.14165E+05
 0.35699997E+02  0.80495E+04
 0.35749996E+02  0.17486E+04
 0.35799999E+02 -0.61007E+04
 0.35849998E+02 -0.13152E+05
 0.35899998E+02 -0.11583E+05
 0.35949997E+02 -0.11997E+05
 0.35999996E+02 -0.93302E+04
 0.36049999E+02 -0.41676E+04
 0.36099998E+02 -0.26999E+04
 0.36149998E+02 -0.54627E+04
 0.36199997E+02 -0.25849E+04
 0.36249996E+02  0.78502E+04
 0.36299999E+02  0.15642E+05
 0.36349998E+02  0.20790E+05
 0.36399998E+02  0.22594E+05
 0.36449997E+02  0.17077E+05
 0.36499996E+02  0.85975E+04
 0.36549999E+02  0.33108E+04
 0.36599998E+02  0.11665E+04
 0.36649998E+02 -0.14687E+03
 0.36699997E+02 -0.10551E+04
 0.36749996E+02  0.70651E+04
 0.36799999E+02  0.15508E+05
 0.36849998E+02  0.20396E+05
 0.36899998E+02  0.26768E+05
 0.36949997E+02  0.26629E+05
 0.36999996E+02  0.23744E+05
 0.37049999E+02  0.23135E+05
 0.37099998E+02  0.21415E+05
 0.37149998E+02  0.11300E+05
 0.37199997E+02  0.26488E+04
 0.37249996E+02 -0.28290E+04
 0.37299999E+02 -0.42035E+04
 0.37349998E+02 -0.54985E+04
 0.37399998E+02  0.17485E+04
 0.37449997E+02  0.11231E+05
 0.37499996E+02  0.11600E+05
 0.37549999E+02  0.11491E+05
 0.37599998E+02  0.53503E+04
 0.37649998E+02 -0.26690E+04
 0.37699997E+02 -0.15068E+05
 0.37749996E+02 -0.15144E+05
 0.37799999E+02 -0.79399E+04
 0.37849998E+02 -0.15363E+04
 0.37899998E+02  0.14708E+04
 0.37949997E+02 -0.32095E+04
 0.37999996E+02 -0.15147E+05
 0.38049999E+02 -0.23206E+05
 0.38099998E+02 -0.23751E+05
 0.38149998E+02 -0.28939E+05
 0.38199997E+02 -0.15560E+05
 0.38249996E+02  0.37603E+04
 0.38299999E+02  0.12602E+05
 0.38349998E+02  0.18617E+05
 0.38399998E+02  0.16056E+05
 0.38449997E+02  0.35901E+04
 0.38499996E+02 -0.12758E+05
 0.38549999E+02 -0.25419E+05
 0.38599998E+02 -0.28950E+05
 0.38649998E+02 -0.33047E+05
 0.38699997E+02 -0.41551E+05
 0.38749996E+02 -0.43350E+05
 0.38799999E+02 -0.42842E+05
 0.38849998E+02 -0.31139E+05
 0.38899998E+02 -0.53614E+04
 0.38949997E+02  0.85905E+04
 0.38999996E+02  0.80638E+04
 0.39049999E+02  0.74611E+04
 0.39099998E+02  0.97093E+03
 0.39149998E+02 -0.69313E+04
 0.39199997E+02 -0.60707E+04
 0.39249996E+02 -0.40886E+04
 0.39299999E+02 -0.17862E+04
 0.39349998E+02 -0.10250E+05
 0.39399998E+02 -0.26012E+05
 0.39449997E+02 -0.39189E+05
 0.39499996E+02 -0.53248E+05
 0.39549999E+02 -0.57071E+05
 0.39599998E+02 -0.56509E+05
 0.39649998E+02 -0.46138E+05
 0.39699997E+02 -0.30118E+05
 0.39749996E+02 -0.20945E+05
 0.39799999E+02 -0.19291E+05
 0.39849998E+02 -0.32667E+05
 0.39899998E+02 -0.34363E+05
 0.39949997E+02 -0.24347E+05
 0.39999996E+02 -0.33265E+05
 0.40049999E+02 -0.46744E+05
 0.40099998E+02 -0.50074E+05
 0.40149998E+02 -0.62169E+05
 0.40199997E+02 -0.70084E+05
 0.40249996E+02 -0.47012E+05
 0.40299999E+02 -0.21322E+05
 0.40349998E+02 -0.66891E+04
 0.40399998E+02  0.14190E+05
 0.40449997E+02  0.88397E+04
 0.40499996E+02 -0.14647E+05
 0.40549999E+02 -0.30147E+05
 0.40599998E+02 -0.44809E+05
 0.40649998E+02 -0.52483E+05
 0.40699997E+02 -0.40718E+05
 0.40749996E+02 -0.16671E+05
 0.40799999E+02  0.32606E+04
 0.40849998E+02  0.32120E+05
 0.40899998E+02  0.52031E+05
 0.40949997E+02  0.67592E+05
 0.40999996E+02  0.79628E+05
 0.41049999E+02  0.82355E+05
 0.41099998E+02  0.89876E+05
 0.41149998E+02  0.89016E+05
 0.41199997E+02  0.80269E+05
 0.41249996E+02  0.75397E+05
 0.41299999E+02  0.65881E+05
 0.41349998E+02  0.58641E+05
 0.41399998E+02  0.71500E+05
 0.41449997E+02  0.89224E+05
 0.41499996E+02  0.95448E+05
 0.41549999E+02  0.94660E+05
 0.41599998E+02  0.90365E+05
 0.41649998E+02  0.93269E+05
 0.41699997E+02  0.10356E+06
 0.41749996E+02  0.98426E+05
 0.41799999E+02  0.80868E+05
 0.41849998E+02  0.57099E+05
 0.41899998E+02  0.24503E+05
 0.41949997E+02 -0.58289E+04
 0.41999996E+02 -0.27375E+05
 0.42049999E+02 -0.47819E+05
 0.42099998E+02 -0.58027E+05
 0.42149998E+02 -0.63668E+05
 0.42199997E+02 -0.72644E+05
 0.42249996E+02 -0.75462E+05
 0.42299999E+02 -0.66251E+05
 0.42349998E+02 -0.45620E+05
 0.42399998E+02 -0.21102E+05
 0.42449997E+02  0.30480E+04
 0.42499996E+02  0.18307E+05
 0.42549999E+02  0.15580E+05
 0.42599998E+02  0.39989E+04
 0.42649998E+02 -0.10070E+05
 0.42699997E+02 -0.26045E+05
 0.42749996E+02 -0.25365E+05
 0.42799995E+02 -0.15581E+05
 0.42849998E+02 -0.59514E+04
 0.42899998E+02  0.13385E+05
 0.42949997E+02  0.34118E+05
 0.42999996E+02  0.44702E+05
 0.43049995E+02  0.41973E+05
 0.43099998E+02  0.33162E+05
 0.43149998E+02  0.36486E+05
 0.43199997E+02  0.47801E+05
 0.43249996E+02  0.52900E+05
 0.43299995E+02  0.58293E+05
 0.43349998E+02  0.60742E+05
 0.43399998E+02  0.62354E+05
 0.43449997E+02  0.61421E+05
 0.43499996E+02  0.47474E+05
 0.43549995E+02  0.29618E+05
 0.43599998E+02  0.52309E+04
 0.43649998E+02 -0.11728E+05
 0.43699997E+02 -0.19423E+05
 0.43749996E+02 -0.27462E+05
 0.43799995E+02 -0.17884E+05
 0.43849998E+02 -0.43556E+04
 0.43899998E+02  0.81867E+03
 0.43949997E+02 -0.21302E+03
 0.43999996E+02  0.41358E+04
 0.44049995E+02  0.99313E+04
 0.44099998E+02  0.20217E+03
 0.44149998E+02 -0.14220E+05
 0.44199997E+02 -0.19254E+05
 0.44249996E+02 -0.20659E+05
 0.44299995E+02 -0.22743E+05
 0.44349998E+02 -0.23793E+05
 0.44399998E+02 -0.27515E+05
 0.44449997E+02 -0.29075E+05
 0.44499996E+02 -0.32042E+05
 0.44549995E+02 -0.28563E+05
 0.44599998E+02 -0.15167E+05
 0.44649998E+02  0.74460E+04
 0.44699997E+02  0.24840E+05
 0.44749996E+02  0.31459E+05
 0.44799995E+02  0.37036E+05
 0.44849998E+02  0.34058E+05
 0.44899998E+02  0.26791E+05
 0.44949997E+02  0.22018E+05
 0.44999996E+02  0.21002E+05
 0.45049995E+02  0.10627E+05
 0.45099998E+02 -0.53970E+04
 0.45149998E+02 -0.78679E+04
 0.45199997E+02 -0.10511E+05
 0.45249996E+02 -0.28532E+05
 0.45299995E+02 -0.43511E+05
 0.45349998E+02 -0.66824E+05
 0.45399998E+02 -0.96570E+05
 0.45449997E+02 -0.11232E+06
 0.45499996E+02 -0.11352E+06
 0.45549995E+02 -0.98887E+05
 0.45599998E+02 -0.72124E+05
 0.45649998E+02 -0.41253E+05
 0.45699997E+02 -0.25004E+05
 0.45749996E+02 -0.19993E+05
 0.45799995E+02 -0.14993E+05
 0.45849998E+02 -0.58894E+04
 0.45899998E+02  0.51865E+04
 0.45949997E+02  0.16134E+05
 0.45999996E+02  0.29096E+05
 0.46049995E+02  0.43533E+05
 0.46099998E+02  0.53533E+05
 0.46149998E+02  0.52212E+05
 0.46199997E+02  0.43989E+05
 0.46249996E+02  0.41202E+05
 0.46299995E+02  0.45298E+05
 0.46349998E+02  0.42979E+05
 0.46399998E+02  0.34425E+05
 0.46449997E+02  0.38695E+05
 0.46499996E+02  0.55442E+05
 0.46549995E+02  0.61736E+05
 0.46599998E+02  0.55099E+05
 0.46649998E+02  0.38328E+05
 0.46699997E+02  0.11570E+05
 0.46749996E+02 -0.16660E+05
 0.46799995E+02 -0.39610E+05
 0.46849998E+02 -0.45066E+05
 0.46899998E+02 -0.35589E+05
 0.46949997E+02 -0.17039E+05
 0.46999996E+02  0.82403E+04
 0.47049995E+02  0.26022E+05
 0.47099998E+02  0.35361E+05
 0.47149998E+02  0.34178E+05
 0.47199997E+02  0.35513E+05
 0.47249996E+02  0.47436E+05
 0.47299995E+02  0.52897E+05
 0.47349998E+02  0.48946E+05
 0.47399998E+02  0.44595E+05
 0.47449997E+02  0.41466E+05
 0.47499996E+02  0.31546E+05
 0.47549995E+02  0.31690E+05
 0.47599998E+02  0.38111E+05
 0.47649998E+02  0.29321E+05
 0.47699997E+02  0.18667E+05
 0.47749996E+02  0.10801E+05
 0.47799995E+02 -0.91619E+03
 0.47849998E+02 -0.93342E+04
 0.47899998E+02 -0.13464E+05
 0.47949997E+02 -0.20605E+05
 0.47999996E+02 -0.32346E+05
 0.48049995E+02 -0.50764E+05
 0.48099998E+02 -0.77077E+05
 0.48149998E+02 -0.97821E+05
 0.48199997E+02 -0.10573E+06
 0.48249996E+02 -0.10809E+06
 0.48299995E+02 -0.10093E+06
 0.48349998E+02 -0.78360E+05
 0.48399998E+02 -0.47725E+05
 0.48449997E+02 -0.18174E+05
 0.48499996E+02  0.39836E+04
 0.48549995E+02  0.23025E+05
 0.48599998E+02  0.45496E+05
 0.48649998E+02  0.65150E+05
 0.48699997E+02  0.76844E+05
 0.48749996E+02  0.76719E+05
 0.48799995E+02  0.59128E+05
 0.48849998E+02  0.32635E+05
 0.48899998E+02  0.10468E+05
 0.48949997E+02 -0.15136E+05
 0.48999996E+02 -0.41588E+05
 0.49049995E+02 -0.51080E+05
 0.49099998E+02 -0.45978E+05
 0.49149998E+02 -0.35909E+05
 0.49199997E+02 -0.28237E+05
 0.49249996E+02 -0.27044E+05
 0.49299995E+02 -0.35214E+05
 0.49349998E+02 -0.43574E+05
 0.49399998E+02 -0.40763E+05
 0.49449997E+02 -0.39550E+05
 0.49499996E+02 -0.47513E+05
 0.49549995E+02 -0.57672E+05
 0.49599998E+02 -0.59033E+05
 0.49649998E+02 -0.55151E+05
 0.49699997E+02 -0.50298E+05
 0.49749996E+02 -0.41897E+05
 0.49799995E+02 -0.29609E+05
 0.49849998E+02 -0.18303E+05
 0.49899998E+02 -0.14828E+05
 0.49949997E+02 -0.15642E+05
 0.49999996E+02 -0.21523E+05
 0.50049995E+02 -0.24571E+05
 0.50099998E+02 -0.24347E+05
 0.50149998E+02 -0.29957E+05
 0.50199997E+02 -0.41284E+05
 0.50249996E+02 -0.50254E+05
 0.50299995E+02 -0.45832E+05
 0.50349998E+02 -0.31755E+05
 0.50399998E+02 -0.19435E+05
 0.50449997E+02 -0.14973E+05
 0.50499996E+02 -0.14075E+05
 0.50549995E+02 -0.14350E+05
 0.50599998E+02 -0.18551E+05
 0.50649998E+02 -0.22543E+05
 0.50699997E+02 -0.31986E+05
 0.50749996E+02 -0.46301E+05
 0.50799995E+02 -0.49180E+05
 0.50849998E+02 -0.42115E+05
 0.50899998E+02 -0.31409E+05
 0.50949997E+02 -0.18242E+05
 0.50999996E+02 -0.76819E+04
 0.51049995E+02 -0.49616E+04
 0.51099998E+02 -0.99255E+04
 0.51149998E+02 -0.14362E+05
 0.51199997E+02 -0.81008E+04
 0.51249996E+02  0.89340E+03
 0.51299995E+02  0.40199E+04
 0.51349998E+02  0.80842E+04
 0.51399998E+02  0.10206E+05
 0.51449997E+02 -0.32431E+03
 0.51499996E+02 -0.19188E+05
 0.51549995E+02 -0.28793E+05
 0.51599998E+02 -0.32262E+05
 0.51649998E+02 -0.32185E+05
 0.51699997E+02 -0.26405E+05
 0.51749996E+02 -0.21992E+05
 0.51799995E+02 -0.13034E+05
 0.51849998E+02 -0.35939E+03
 0.51899998E+02  0.14069E+05
 0.51949997E+02  0.22641E+05
 0.51999996E+02  0.26979E+05
 0.52049995E+02  0.29288E+05
 0.52099998E+02  0.18410E+05
 0.52149998E+02  0.60630E+04
 0.52199997E+02  0.75754E+03
 0.52249996E+02 -0.21913E+04
 0.52299995E+02  0.12801E+04
 0.52349998E+02  0.71542E+04
 0.52399998E+02  0.82793E+04
 0.52449997E+02  0.95422E+04
 0.52499996E+02  0.91369E+04
 0.52549995E+02  0.10444E+05
 0.52599998E+02  0.14345E+05
 0.52649998E+02  0.17402E+05
 0.52699997E+02  0.12861E+05
 0.52749996E+02  0.17028E+04
 0.52799995E+02 -0.45601E+04
 0.52849998E+02 -0.89362E+04
 0.52899998E+02 -0.13946E+05
 0.52949997E+02 -0.19987E+05
 0.52999996E+02 -0.28046E+05
 0.53049995E+02 -0.32397E+05
 0.53099998E+02 -0.31992E+05
 0.53149998E+02 -0.32551E+05
 0.53199997E+02 -0.31140E+05
 0.53249996E+02 -0.24752E+05
 0.53299995E+02 -0.16555E+05
 0.53349998E+02 -0.15459E+05
 0.53399998E+02 -0.22536E+05
 0.53449997E+02 -0.24229E+05
 0.53499996E+02 -0.17281E+05
 0.53549995E+02 -0.60240E+04
 0.53599998E+02  0.10765E+05
 0.53649998E+02  0.31520E+05
 0.53699997E+02  0.47897E+05
 0.53749996E+02  0.60900E+05
 0.53799995E+02  0.76258E+05
 0.53849998E+02  0.85871E+05
 0.53899998E+02  0.89842E+05
 0.53949997E+02  0.91393E+05
 0.53999996E+02  0.85851E+05
 0.54049995E+02  0.75124E+05
 0.54099998E+02  0.62477E+05
 0.54149998E+02  0.49050E+05
 0.54199997E+02  0.35949E+05
 0.54249996E+02  0.27550E+05
 0.54299995E+02  0.17125E+05
 0.54349998E+02  0.40746E+04
 0.54399998E+02 -0.10229E+05
 0.54449997E+02 -0.26584E+05
 0.54499996E+02 -0.34705E+05
 0.54549995E+02 -0.33920E+05
 0.54599998E+02 -0.28786E+05
 0.54649998E+02 -0.19301E+05
 0.54699997E+02 -0.11438E+05
 0.54749996E+02 -0.16255E+05
 0.54799995E+02 -0.28430E+05
 0.54849998E+02 -0.39910E+05
 0.54899998E+02 -0.49328E+05
 0.54949997E+02 -0.55494E+05
 0.54999996E+02 -0.56783E+05
 0.55049995E+02 -0.49617E+05
 0.55099998E+02 -0.40065E+05
 0.55149998E+02 -0.31058E+05
 0.55199997E+02 -0.19120E+05
 0.55249996E+02 -0.75146E+04
 0.55299995E+02 -0.18074E+04
 0.55349998E+02 -0.84893E+04
 0.55399998E+02 -0.14416E+05
 0.55449997E+02 -0.14394E+05
 0.55499996E+02 -0.19277E+05
 0.55549995E+02 -0.23975E+05
 0.55599998E+02 -0.23485E+05
 0.55649998E+02 -0.15003E+05
 0.55699997E+02 -0.28358E+04
 0.55749996E+02  0.53948E+04
 0.55799995E+02  0.97200E+04
 0.55849995E+02  0.10348E+05
 0.55899998E+02  0.76376E+04
 0.55949997E+02  0.61159E+04
 0.55999996E+02  0.16438E+04
 0.56049995E+02 -0.76050E+04
 0.56099995E+02 -0.12927E+05
 0.56149998E+02 -0.22881E+05
 0.56199997E+02 -0.37287E+05
 0.56249996E+02 -0.40402E+05
 0.56299995E+02 -0.40863E+05
 0.56349995E+02 -0.47502E+05
 0.56399998E+02 -0.56019E+05
 0.56449997E+02 -0.60819E+05
 0.56499996E+02 -0.58323E+05
 0.56549995E+02 -0.51502E+05
 0.56599995E+02 -0.37784E+05
 0.56649998E+02 -0.20410E+05
 0.56699997E+02 -0.89852E+04
 0.56749996E+02  0.31026E+04
 0.56799995E+02  0.16027E+05
 0.56849995E+02  0.23260E+05
 0.56899998E+02  0.25019E+05
 0.56949997E+02  0.23820E+05
 0.56999996E+02  0.14644E+05
 0.57049995E+02 -0.42610E+04
 0.57099995E+02 -0.19351E+05
 0.57149998E+02 -0.26012E+05
 0.57199997E+02 -0.27012E+05
 0.57249996E+02 -0.26918E+05
 0.57299995E+02 -0.26961E+05
 0.57349995E+02 -0.22255E+05
 0.57399998E+02 -0.11253E+05
 0.57449997E+02 -0.61769E+04
 0.57499996E+02 -0.69734E+04
 0.57549995E+02 -0.83542E+04
 0.57599995E+02 -0.19586E+05
 0.57649998E+02 -0.39624E+05
 0.57699997E+02 -0.63155E+05
 0.57749996E+02 -0.79617E+05
 0.57799995E+02 -0.80886E+05
 0.57849995E+02 -0.75742E+05
 0.57899998E+02 -0.68124E+05
 0.57949997E+02 -0.52766E+05
 0.57999996E+02 -0.39240E+05
 0.58049995E+02 -0.32900E+05
 0.58099995E+02 -0.25801E+05
 0.58149998E+02 -0.16965E+05
 0.58199997E+02 -0.50176E+04
 0.58249996E+02  0.52748E+04
 0.58299995E+02  0.10982E+05
 0.58349995E+02  0.16404E+05
 0.58399998E+02  0.17427E+05
 0.58449997E+02  0.13572E+05
 0.58499996E+02  0.14127E+05
 0.58549995E+02  0.17148E+05
 0.58599995E+02  0.12833E+05
 0.58649998E+02  0.35274E+04
 0.58699997E+02 -0.32578E+04
 0.58749996E+02 -0.74385E+04
 0.58799995E+02 -0.12631E+05
 0.58849995E+02 -0.14446E+05
 0.58899998E+02 -0.56245E+04
 0.58949997E+02  0.33222E+04
 0.58999996E+02  0.52569E+04
 0.59049995E+02  0.32705E+04
 0.59099995E+02 -0.18336E+03
 0.59149998E+02 -0.59729E+04
 0.59199997E+02 -0.16601E+05
 0.59249996E+02 -0.21651E+05
 0.59299995E+02 -0.20193E+05
 0.59349995E+02 -0.13844E+05
 0.59399998E+02 -0.42279E+04
 0.59449997E+02  0.76927E+04
 0.59499996E+02  0.23431E+05
 0.59549995E+02  0.32023E+05
 0.59599995E+02  0.35854E+05
 0.59649998E+02  0.39604E+05
 0.59699997E+02  0.41038E+05
 0.59749996E+02  0.34967E+05
 0.59799995E+02  0.19837E+05
 0.59849995E+02  0.10549E+05
 0.59899998E+02  0.14041E+05
 0.59949997E+02  0.19073E+05
 0.59999996E+02  0.18473E+05
 0.60049995E+02  0.20358E+05
 0.60099995E+02  0.30904E+05
 0.60149998E+02  0.42795E+05
 0.60199997E+02  0.55002E+05
 0.60249996E+02  0.66982E+05
 0.60299995E+02  0.74649E+05
 0.60349995E+02  0.86844E+05
 0.60399998E+02  0.98334E+05
 0.60449997E+02  0.97909E+05
 0.60499996E+02  0.90895E+05
 0.60549995E+02  0.83087E+05
 0.60599995E+02  0.76967E+05
 0.60649998E+02  0.73890E+05
 0.60699997E+02  0.71315E+05
 0.60749996E+02  0.68730E+05
 0.60799995E+02  0.68859E+05
 0.60849995E+02  0.73015E+05
 0.60899998E+02  0.85119E+05
 0.60949997E+02  0.10428E+06
 0.60999996E+02  0.12187E+06
 0.61049995E+02  0.13624E+06
 0.61099995E+02  0.14609E+06
 0.61149998E+02  0.15068E+06
 0.61199997E+02  0.15241E+06
 0.61249996E+02  0.15329E+06
 0.61299995E+02  0.15460E+06
 0.61349995E+02  0.15246E+06
 0.61399998E+02  0.14707E+06
 0.61449997E+02  0.13710E+06
 0.61499996E+02  0.12417E+06
 0.61549995E+02  0.11529E+06
 0.61599995E+02  0.11017E+06
 0.61649998E+02  0.95204E+05
 0.61699997E+02  0.73955E+05
 0.61749996E+02  0.64919E+05
 0.61799995E+02  0.64390E+05
 0.61849995E+02  0.58853E+05
 0.61899998E+02  0.44647E+05
 0.61949997E+02  0.26786E+05
 0.61999996E+02  0.68646E+04
 0.62049995E+02 -0.75303E+04
 0.62099998E+02 -0.15772E+05
 0.62149994E+02 -0.24138E+05
 0.62199997E+02 -0.29106E+05
 0.62249992E+02 -0.31224E+05
 0.62299995E+02 -0.34559E+05
 0.62349998E+02 -0.40027E+05
 0.62399994E+02 -0.52966E+05
 0.62449997E+02 -0.69623E+05
 0.62499992E+02 -0.78624E+05
 0.62549995E+02 -0.73232E+05
 0.62599998E+02 -0.56960E+05
 0.62649994E+02 -0.38482E+05
 0.62699997E+02 -0.13162E+05
 0.62749992E+02  0.20355E+05
 0.62799995E+02  0.50039E+05
 0.62849998E+02  0.68700E+05
 0.62899994E+02  0.74033E+05
 0.62949997E+02  0.71868E+05
 0.62999992E+02  0.69683E+05
 0.63049995E+02  0.63357E+05
 0.63099998E+02  0.57756E+05
 0.63149994E+02  0.53609E+05
 0.63199997E+02  0.48350E+05
 0.63249992E+02  0.44590E+05
 0.63299995E+02  0.44258E+05
 0.63349998E+02  0.39790E+05
 0.63399994E+02  0.23952E+05
 0.63449997E+02  0.82991E+04
 0.63499992E+02 -0.16678E+04
 0.63549995E+02 -0.39819E+04
 0.63599998E+02  0.40973E+04
 0.63649994E+02  0.12492E+05
 0.63699997E+02  0.11124E+05
 0.63749992E+02  0.17328E+04
 0.63799995E+02 -0.11101E+05
 0.63849998E+02 -0.18951E+05
 0.63899994E+02 -0.16464E+05
 0.63949997E+02 -0.91301E+04
 0.63999992E+02  0.19696E+04
 0.64049995E+02  0.15204E+05
 0.64099998E+02  0.27281E+05
 0.64149994E+02  0.39689E+05
 0.64199997E+02  0.51891E+05
 0.64249992E+02  0.67096E+05
 0.64299995E+02  0.84163E+05
 0.64349998E+02  0.93943E+05
 0.64399994E+02  0.98118E+05
 0.64449997E+02  0.98508E+05
 0.64499992E+02  0.89628E+05
 0.64549995E+02  0.75949E+05
 0.64599998E+02  0.64641E+05
 0.64649994E+02  0.53189E+05
 0.64699997E+02  0.42881E+05
 0.64749992E+02  0.39471E+05
 0.64799995E+02  0.44706E+05
 0.64849998E+02  0.58187E+05
 0.64899994E+02  0.78884E+05
 0.64949997E+02  0.99693E+05
 0.64999992E+02  0.10646E+06
 0.65049995E+02  0.95302E+05
 0.65099998E+02  0.74106E+05
 0.65149994E+02  0.47797E+05
 0.65199997E+02  0.19576E+05
 0.65249992E+02 -0.89745E+04
 0.65299995E+02 -0.43173E+05
 0.65349998E+02 -0.82951E+05
 0.65399994E+02 -0.12008E+06
 0.65449997E+02 -0.14675E+06
 0.65499992E+02 -0.15919E+06
 0.65549995E+02 -0.15986E+06
 0.65599998E+02 -0.15590E+06
 0.65649994E+02 -0.15072E+06
 0.65699997E+02 -0.13776E+06
 0.65749992E+02 -0.11514E+06
 0.65799995E+02 -0.92516E+05
 0.65849998E+02 -0.78774E+05
 0.65899994E+02 -0.75919E+05
 0.65949997E+02 -0.78807E+05
 0.65999992E+02 -0.82429E+05
 0.66049995E+02 -0.82255E+05
 0.66099998E+02 -0.73502E+05
 0.66149994E+02 -0.53193E+05
 0.66199997E+02 -0.26702E+05
 0.66249992E+02 -0.74855E+04
 0.66299995E+02  0.22928E+04
 0.66349998E+02  0.63203E+04
 0.66399994E+02  0.55820E+04
 0.66449997E+02  0.95475E+04
 0.66499992E+02  0.23801E+05
 0.66549995E+02  0.47811E+05
 0.66599998E+02  0.78937E+05
 0.66649994E+02  0.11202E+06
 0.66699997E+02  0.13960E+06
 0.66749992E+02  0.14869E+06
 0.66799995E+02  0.14020E+06
 0.66849998E+02  0.11937E+06
 0.66899994E+02  0.86280E+05
 0.66949997E+02  0.42215E+05
 0.66999992E+02 -0.73962E+04
 0.67049995E+02 -0.54257E+05
 0.67099998E+02 -0.86481E+05
 0.67149994E+02 -0.10005E+06
 0.67199997E+02 -0.10499E+06
 0.67249992E+02 -0.10944E+06
 0.67299995E+02 -0.11621E+06
 0.67349998E+02 -0.12802E+06
 0.67399994E+02 -0.14367E+06
 0.67449997E+02 -0.15950E+06
 0.67499992E+02 -0.17254E+06
 0.67549995E+02 -0.17553E+06
 0.67599998E+02 -0.16732E+06
 0.67649994E+02 -0.15421E+06
 0.67699997E+02 -0.13833E+06
 0.67749992E+02 -0.11392E+06
 0.67799995E+02 -0.82787E+05
 0.67849998E+02 -0.54470E+05
 0.67899994E+02 -0.33738E+05
 0.67949997E+02 -0.13899E+05
 0.67999992E+02  0.66418E+04
 0.68049995E+02  0.20396E+05
 0.68099998E+02  0.28554E+05
 0.68149994E+02  0.35028E+05
 0.68199997E+02  0.34974E+05
 0.68249992E+02  0.26204E+05
 0.68299995E+02  0.11009E+05
 0.68349998E+02 -0.94705E+04
 0.68399994E+02 -0.30493E+05
 0.68449997E+02 -0.47783E+05
 0.68499992E+02 -0.65064E+05
 0.68549995E+02 -0.88429E+05
 0.68599998E+02 -0.11243E+06
 0.68649994E+02 -0.13206E+06
 0.68699997E+02 -0.14405E+06
 0.68749992E+02 -0.14468E+06
 0.68799995E+02 -0.13132E+06
 0.68849998E+02 -0.10376E+06
 0.68899994E+02 -0.65397E+05
 0.68949997E+02 -0.20052E+05
 0.68999992E+02  0.25501E+05
 0.69049995E+02  0.69321E+05
 0.69099998E+02  0.11310E+06
 0.69149994E+02  0.14604E+06
 0.69199997E+02  0.15500E+06
 0.69249992E+02  0.14228E+06
 0.69299995E+02  0.12106E+06
 0.69349998E+02  0.98210E+05
 0.69399994E+02  0.69003E+05
 0.69449997E+02  0.30749E+05
 0.69499992E+02 -0.11256E+05
 0.69549995E+02 -0.45837E+05
 0.69599998E+02 -0.72285E+05
 0.69649994E+02 -0.98873E+05
 0.69699997E+02 -0.12747E+06
 0.69749992E+02 -0.15069E+06
 0.69799995E+02 -0.16041E+06
 0.69849998E+02 -0.15977E+06
 0.69899994E+02 -0.15639E+06
 0.69949997E+02 -0.15059E+06
 0.69999992E+02 -0.13784E+06
 0.70049995E+02 -0.11757E+06
 0.70099998E+02 -0.94484E+05
 0.70149994E+02 -0.76495E+05
 0.70199997E+02 -0.70927E+05
 0.70249992E+02 -0.79505E+05
 0.70299995E+02 -0.97274E+05
 0.70349998E+02 -0.11811E+06
 0.70399994E+02 -0.13539E+06
 0.70449997E+02 -0.14038E+06
 0.70499992E+02 -0.12426E+06
 0.70549995E+02 -0.87418E+05
 0.70599998E+02 -0.39368E+05
 0.70649994E+02  0.88447E+04
 0.70699997E+02  0.48588E+05
 0.70749992E+02  0.72892E+05
 0.70799995E+02  0.74637E+05
 0.70849998E+02  0.58080E+05
 0.70899994E+02  0.33682E+05
 0.70949997E+02  0.66220E+04
 0.70999992E+02 -0.21229E+05
 0.71049995E+02 -0.45041E+05
 0.71099998E+02 -0.59642E+05
 0.71149994E+02 -0.66203E+05
 0.71199997E+02 -0.67658E+05
 0.71249992E+02 -0.66303E+05
 0.71299995E+02 -0.63393E+05
 0.71349998E+02 -0.57961E+05
 0.71399994E+02 -0.50883E+05
 0.71449997E+02 -0.45937E+05
 0.71499992E+02 -0.48993E+05
 0.71549995E+02 -0.60918E+05
 0.71599998E+02 -0.78209E+05
 0.71649994E+02 -0.10388E+06
 0.71699997E+02 -0.14165E+06
 0.71749992E+02 -0.19112E+06
 0.71799995E+02 -0.24509E+06
 0.71849998E+02 -0.29334E+06
 0.71899994E+02 -0.32609E+06
 0.71949997E+02 -0.34001E+06
 0.71999992E+02 -0.33630E+06
 0.72049995E+02 -0.31647E+06
 0.72099998E+02 -0.28470E+06
 0.72149994E+02 -0.24363E+06
 0.72199997E+02 -0.19347E+06
 0.72249992E+02 -0.13092E+06
 0.72299995E+02 -0.58648E+05
 0.72349998E+02  0.93736E+04
 0.72399994E+02  0.64064E+05
 0.72449997E+02  0.10591E+06
 0.72499992E+02  0.13604E+06
 0.72549995E+02  0.15725E+06
 0.72599998E+02  0.16806E+06
 0.72649994E+02  0.16565E+06
 0.72699997E+02  0.15217E+06
 0.72749992E+02  0.13551E+06
 0.72799995E+02  0.12337E+06
 0.72849998E+02  0.11658E+06
 0.72899994E+02  0.11784E+06
 0.72949997E+02  0.12914E+06
 0.72999992E+02  0.14546E+06
 0.73049995E+02  0.16034E+06
 0.73099998E+02  0.17056E+06
 0.73149994E+02  0.17280E+06
 0.73199997E+02  0.16775E+06
 0.73249992E+02  0.16128E+06
 0.73299995E+02  0.15554E+06
 0.73349998E+02  0.15056E+06
 0.73399994E+02  0.14380E+06
 0.73449997E+02  0.13690E+06
 0.73499992E+02  0.13535E+06
 0.73549995E+02  0.13449E+06
 0.73599998E+02  0.12775E+06
 0.73649994E+02  0.11561E+06
 0.73699997E+02  0.10123E+06
 0.73749992E+02  0.85371E+05
 0.73799995E+02  0.67137E+05
 0.73849998E+02  0.48325E+05
 0.73899994E+02  0.33214E+05
 0.73949997E+02  0.26885E+05
 0.73999992E+02  0.31761E+05
 0.74049995E+02  0.45248E+05
 0.74099998E+02  0.61106E+05
 0.74149994E+02  0.76529E+05
 0.74199997E+02  0.92701E+05
 0.74249992E+02  0.10960E+06
 0.74299995E+02  0.12728E+06
 0.74349998E+02  0.14487E+06
 0.74399994E+02  0.16010E+06
 0.74449997E+02  0.16965E+06
 0.74499992E+02  0.17655E+06
 0.74549995E+02  0.18769E+06
 0.74599998E+02  0.20259E+06
 0.74649994E+02  0.21958E+06
 0.74699997E+02  0.23849E+06
 0.74749992E+02  0.25836E+06
 0.74799995E+02  0.27814E+06
 0.74849998E+02  0.29637E+06
 0.74899994E+02  0.31121E+06
 0.74949997E+02  0.32168E+06
 0.74999992E+02  0.32466E+06
 0.75049995E+02  0.31564E+06
 0.75099998E+02  0.29292E+06
 0.75149994E+02  0.25801E+06
 0.75199997E+02  0.21611E+06
 0.75249992E+02  0.16993E+06
 0.75299995E+02  0.11987E+06
 0.75349998E+02  0.65170E+05
 0.75399994E+02  0.10479E+05
 0.75449997E+02 -0.37717E+05
 0.75499992E+02 -0.77364E+05
 0.75549995E+02 -0.10779E+06
 0.75599998E+02 -0.13160E+06
 0.75649994E+02 -0.15108E+06
 0.75699997E+02 -0.16862E+06
 0.75749992E+02 -0.18494E+06
 0.75799995E+02 -0.19880E+06
 0.75849998E+02 -0.21033E+06
 0.75899994E+02 -0.22047E+06
 0.75949997E+02 -0.22714E+06
 0.75999992E+02 -0.22829E+06
 0.76049995E+02 -0.22115E+06
 0.76099998E+02 -0.20459E+06
 0.76149994E+02 -0.18064E+06
 0.76199997E+02 -0.15265E+06
 0.76249992E+02 -0.12446E+06
 0.76299995E+02 -0.98777E+05
 0.76349998E+02 -0.76845E+05
 0.76399994E+02 -0.55242E+05
 0.76449997E+02 -0.32230E+05
 0.76499992E+02 -0.70441E+04
 0.76549995E+02  0.20155E+05
 0.76599998E+02  0.44365E+05
 0.76649994E+02  0.58587E+05
 0.76699997E+02  0.58477E+05
 0.76749992E+02  0.43043E+05
 0.76799995E+02  0.13418E+05
 0.76849998E+02 -0.25023E+05
 0.76899994E+02 -0.63742E+05
 0.76949997E+02 -0.94737E+05
 0.76999992E+02 -0.11704E+06
 0.77049995E+02 -0.13201E+06
 0.77099998E+02 -0.14197E+06
 0.77149994E+02 -0.15068E+06
 0.77199997E+02 -0.15825E+06
 0.77249992E+02 -0.16472E+06
 0.77299995E+02 -0.16977E+06
 0.77349998E+02 -0.17286E+06
 0.77399994E+02 -0.17418E+06
 0.77449997E+02 -0.17363E+06
 0.77499992E+02 -0.17056E+06
 0.77549995E+02 -0.16358E+06
 0.77599998E+02 -0.15398E+06
 0.77649994E+02 -0.14588E+06
 0.77699997E+02 -0.14197E+06
 0.77749992E+02 -0.13942E+06
 0.77799995E+02 -0.13180E+06
 0.77849998E+02 -0.11591E+06
 0.77899994E+02 -0.91694E+05
 0.77949997E+02 -0.60718E+05
 0.77999992E+02 -0.27392E+05
 0.78049995E+02  0.42648E+04
 0.78099998E+02  0.32264E+05
 0.78149994E+02  0.53914E+05
 0.78199997E+02  0.67359E+05
 0.78249992E+02  0.75057E+05
 0.78299995E+02  0.81667E+05
 0.78349998E+02  0.89264E+05
 0.78399994E+02  0.98392E+05
 0.78449997E+02  0.11082E+06
 0.78499992E+02  0.12649E+06
 0.78549995E+02  0.14336E+06
 0.78599998E+02  0.15791E+06
 0.78649994E+02  0.16532E+06
 0.78699997E+02  0.16026E+06
 0.78749992E+02  0.14129E+06
 0.78799995E+02  0.11266E+06
 0.78849998E+02  0.77904E+05
 0.78899994E+02  0.40022E+05
 0.78949997E+02  0.19039E+04
 0.78999992E+02 -0.33178E+05
 0.79049995E+02 -0.61576E+05
 0.79099998E+02 -0.81134E+05
 0.79149994E+02 -0.92691E+05
 0.79199997E+02 -0.97599E+05
 0.79249992E+02 -0.95074E+05
 0.79299995E+02 -0.82548E+05
 0.79349998E+02 -0.59200E+05
 0.79399994E+02 -0.26452E+05
 0.79449997E+02  0.13568E+05
 0.79499992E+02  0.57329E+05
 0.79549995E+02  0.10116E+06
 0.79599998E+02  0.14017E+06
 0.79649994E+02  0.17437E+06
 0.79699997E+02  0.20687E+06
 0.79749992E+02  0.23910E+06
 0.79799995E+02  0.27117E+06
 0.79849998E+02  0.30064E+06
 0.79899994E+02  0.32393E+06
 0.79949997E+02  0.33850E+06
 0.79999992E+02  0.34516E+06
 0.80049995E+02  0.34343E+06
 0.80099998E+02  0.33130E+06
 0.80149994E+02  0.30913E+06
 0.80199997E+02  0.27965E+06
 0.80249992E+02  0.24656E+06
 0.80299995E+02  0.21219E+06
 0.80349998E+02  0.17733E+06
 0.80399994E+02  0.14196E+06
 0.80449997E+02  0.10560E+06
 0.80499992E+02  0.66715E+05
 0.80549995E+02  0.25653E+05
 0.80599998E+02 -0.15475E+05
 0.80649994E+02 -0.53048E+05
 0.80699997E+02 -0.83924E+05
 0.80749992E+02 -0.10755E+06
 0.80799995E+02 -0.12276E+06
 0.80849998E+02 -0.12877E+06
 0.80899994E+02 -0.12727E+06
 0.80949997E+02 -0.12187E+06
 0.80999992E+02 -0.11537E+06
 0.81049995E+02 -0.10712E+06
 0.81099998E+02 -0.95808E+05
 0.81149994E+02 -0.82512E+05
 0.81199997E+02 -0.67700E+05
 0.81249992E+02 -0.51839E+05
 0.81299995E+02 -0.35389E+05
 0.81349998E+02 -0.20814E+05
 0.81399994E+02 -0.12423E+05
 0.81449997E+02 -0.12674E+05
 0.81499992E+02 -0.23097E+05
 0.81549995E+02 -0.41454E+05
 0.81599998E+02 -0.64259E+05
 0.81649994E+02 -0.89587E+05
 0.81699997E+02 -0.11524E+06
 0.81749992E+02 -0.13838E+06
 0.81799995E+02 -0.15612E+06
 0.81849998E+02 -0.16767E+06
 0.81899994E+02 -0.17380E+06
 0.81949997E+02 -0.17547E+06
 0.81999992E+02 -0.17260E+06
 0.82049995E+02 -0.16548E+06
 0.82099998E+02 -0.15373E+06
 0.82149994E+02 -0.13645E+06
 0.82199997E+02 -0.11650E+06
 0.82249992E+02 -0.98388E+05
 0.82299995E+02 -0.85260E+05
 0.82349998E+02 -0.77625E+05
 0.82399994E+02 -0.73077E+05
 0.82449997E+02 -0.70512E+05
 0.82499992E+02 -0.70265E+05
 0.82549995E+02 -0.72303E+05
 0.82599998E+02 -0.75419E+05
 0.82649994E+02 -0.78917E+05
 0.82699997E+02 -0.82741E+05
 0.82749992E+02 -0.85464E+05
 0.82799995E+02 -0.86135E+05
 0.82849998E+02 -0.85468E+05
 0.82899994E+02 -0.86285E+05
 0.82949997E+02 -0.90792E+05
 0.82999992E+02 -0.98374E+05
 0.83049995E+02 -0.10610E+06
 0.83099998E+02 -0.11204E+06
 0.83149994E+02 -0.11476E+06
 0.83199997E+02 -0.11265E+06
 0.83249992E+02 -0.10585E+06
 0.83299995E+02 -0.94405E+05
 0.83349998E+02 -0.80315E+05
 0.83399994E+02 -0.66993E+05
 0.83449997E+02 -0.56437E+05
 0.83499992E+02 -0.50106E+05
 0.83549995E+02 -0.48642E+05
 0.83599998E+02 -0.52446E+05
 0.83649994E+02 -0.61511E+05
 0.83699997E+02 -0.73468E+05
 0.83749992E+02 -0.85098E+05
 0.83799995E+02 -0.95486E+05
 0.83849998E+02 -0.10458E+06
 0.83899994E+02 -0.11258E+06
 0.83949997E+02 -0.11896E+06
 0.83999992E+02 -0.12244E+06
 0.84049995E+02 -0.12213E+06
 0.84099998E+02 -0.11681E+06
 0.84149994E+02 -0.10632E+06
 0.84199997E+02 -0.92478E+05
 0.84249992E+02 -0.77872E+05
 0.84299995E+02 -0.65149E+05
 0.84349998E+02 -0.55933E+05
 0.84399994E+02 -0.50546E+05
 0.84449997E+02 -0.49272E+05
 0.84499992E+02 -0.49857E+05
 0.84549995E+02 -0.49771E+05
 0.84599998E+02 -0.47701E+05
 0.84649994E+02 -0.41987E+05
 0.84699997E+02 -0.31891E+05
 0.84749992E+02 -0.17911E+05
 0.84799995E+02 -0.12546E+04
 0.84849998E+02  0.17270E+05
 0.84899994E+02  0.36496E+05
 0.84949997E+02  0.56788E+05
 0.84999992E+02  0.77200E+05
 0.85049995E+02  0.96063E+05
 0.85099998E+02  0.11297E+06
 0.85149994E+02  0.12690E+06
 0.85199997E+02  0.13677E+06
 0.85249992E+02  0.14146E+06
 0.85299995E+02  0.14028E+06
 0.85349998E+02  0.13364E+06
 0.85399994E+02  0.12360E+06
 0.85449997E+02  0.11098E+06
 0.85499992E+02  0.96061E+05
 0.85549995E+02  0.79203E+05
 0.85599998E+02  0.61245E+05
 0.85649994E+02  0.44486E+05
 0.85699997E+02  0.31772E+05
 0.85749992E+02  0.25504E+05
 0.85799995E+02  0.25496E+05
 0.85849998E+02  0.31143E+05
 0.85899994E+02  0.41981E+05
 0.85949997E+02  0.55595E+05
 0.85999992E+02  0.69256E+05
 0.86049995E+02  0.80750E+05
 0.86099998E+02  0.88257E+05
 0.86149994E+02  0.90946E+05
 0.86199997E+02  0.89594E+05
 0.86249992E+02  0.84884E+05
 0.86299995E+02  0.77594E+05
 0.86349998E+02  0.69593E+05
 0.86399994E+02  0.62361E+05
 0.86449997E+02  0.56835E+05
 0.86499992E+02  0.53624E+05
 0.86549995E+02  0.54994E+05
 0.86599998E+02  0.61915E+05
 0.86649994E+02  0.71524E+05
 0.86699997E+02  0.81759E+05
 0.86749992E+02  0.92459E+05
 0.86799995E+02  0.10459E+06
 0.86849998E+02  0.11831E+06
 0.86899994E+02  0.13091E+06
 0.86949997E+02  0.14038E+06
 0.86999992E+02  0.14633E+06
 0.87049995E+02  0.14918E+06
 0.87099998E+02  0.14772E+06
 0.87149994E+02  0.13943E+06
 0.87199997E+02  0.12446E+06
 0.87249992E+02  0.10349E+06
 0.87299995E+02  0.77671E+05
 0.87349998E+02  0.50039E+05
 0.87399994E+02  0.24271E+05
 0.87449997E+02  0.27008E+04
 0.87499992E+02 -0.13647E+05
 0.87549995E+02 -0.25380E+05
 0.87599991E+02 -0.33746E+05
 0.87649994E+02 -0.40244E+05
 0.87699997E+02 -0.46050E+05
 0.87749992E+02 -0.50168E+05
 0.87799995E+02 -0.52225E+05
 0.87849991E+02 -0.52429E+05
 0.87899994E+02 -0.50432E+05
 0.87949997E+02 -0.45578E+05
 0.87999992E+02 -0.37841E+05
 0.88049995E+02 -0.28685E+05
 0.88099991E+02 -0.18683E+05
 0.88149994E+02 -0.83851E+04
 0.88199997E+02  0.11940E+04
 0.88249992E+02  0.10700E+05
 0.88299995E+02  0.21801E+05
 0.88349991E+02  0.35264E+05
 0.88399994E+02  0.50007E+05
 0.88449997E+02  0.64831E+05
 0.88499992E+02  0.80706E+05
 0.88549995E+02  0.98027E+05
 0.88599991E+02  0.11598E+06
 0.88649994E+02  0.13397E+06
 0.88699997E+02  0.15073E+06
 0.88749992E+02  0.16484E+06
 0.88799995E+02  0.17555E+06
 0.88849991E+02  0.18335E+06
 0.88899994E+02  0.18861E+06
 0.88949997E+02  0.19062E+06
 0.88999992E+02  0.18922E+06
 0.89049995E+02  0.18542E+06
 0.89099991E+02  0.17911E+06
 0.89149994E+02  0.16891E+06
 0.89199997E+02  0.15440E+06
 0.89249992E+02  0.13570E+06
 0.89299995E+02  0.11278E+06
 0.89349991E+02  0.87851E+05
 0.89399994E+02  0.64131E+05
 0.89449997E+02  0.43484E+05
 0.89499992E+02  0.27418E+05
 0.89549995E+02  0.16844E+05
 0.89599991E+02  0.11302E+05
 0.89649994E+02  0.91727E+04
 0.89699997E+02  0.92822E+04
 0.89749992E+02  0.95187E+04
 0.89799995E+02  0.75568E+04
 0.89849991E+02  0.30612E+04
 0.89899994E+02 -0.34948E+04
 0.89949997E+02 -0.13049E+05
 0.89999992E+02 -0.27096E+05
 0.90049995E+02 -0.45715E+05
 0.90099991E+02 -0.68995E+05
 0.90149994E+02 -0.95401E+05
 0.90199997E+02 -0.12113E+06
 0.90249992E+02 -0.14303E+06
 0.90299995E+02 -0.15940E+06
 0.90349991E+02 -0.16955E+06
 0.90399994E+02 -0.17305E+06
 0.90449997E+02 -0.17044E+06
 0.90499992E+02 -0.16374E+06
 0.90549995E+02 -0.15449E+06
 0.90599991E+02 -0.14372E+06
 0.90649994E+02 -0.13327E+06
 0.90699997E+02 -0.12517E+06
 0.90749992E+02 -0.11913E+06
 0.90799995E+02 -0.11320E+06
 0.90849991E+02 -0.10613E+06
 0.90899994E+02 -0.98330E+05
 0.90949997E+02 -0.89831E+05
 0.90999992E+02 -0.79704E+05
 0.91049995E+02 -0.68603E+05
 0.91099991E+02 -0.58866E+05
 0.91149994E+02 -0.51586E+05
 0.91199997E+02 -0.47125E+05
 0.91249992E+02 -0.45983E+05
 0.91299995E+02 -0.47143E+05
 0.91349991E+02 -0.49886E+05
 0.91399994E+02 -0.53274E+05
 0.91449997E+02 -0.55876E+05
 0.91499992E+02 -0.57526E+05
 0.91549995E+02 -0.57863E+05
 0.91599991E+02 -0.56034E+05
 0.91649994E+02 -0.51354E+05
 0.91699997E+02 -0.43784E+05
 0.91749992E+02 -0.33749E+05
 0.91799995E+02 -0.21336E+05
 0.91849991E+02 -0.64916E+04
 0.91899994E+02  0.10421E+05
 0.91949997E+02  0.29076E+05
 0.91999992E+02  0.49079E+05
 0.92049995E+02  0.69330E+05
 0.92099991E+02  0.88260E+05
 0.92149994E+02  0.10423E+06
 0.92199997E+02  0.11720E+06
 0.92249992E+02  0.12701E+06
 0.92299995E+02  0.13305E+06
 0.92349991E+02  0.13471E+06
 0.92399994E+02  0.13269E+06
 0.92449997E+02  0.12827E+06
 0.92499992E+02  0.11965E+06
 0.92549995E+02  0.10564E+06
 0.92599991E+02  0.85661E+05
 0.92649994E+02  0.59795E+05
 0.92699997E+02  0.29389E+05
 0.92749992E+02 -0.43119E+04
 0.92799995E+02 -0.39274E+05
 0.92849991E+02 -0.74311E+05
 0.92899994E+02 -0.10831E+06
 0.92949997E+02 -0.13874E+06
 0.92999992E+02 -0.16276E+06
 0.93049995E+02 -0.17860E+06
 0.93099991E+02 -0.18633E+06
 0.93149994E+02 -0.18658E+06
 0.93199997E+02 -0.17930E+06
 0.93249992E+02 -0.16508E+06
 0.93299995E+02 -0.14488E+06
 0.93349991E+02 -0.11975E+06
 0.93399994E+02 -0.92298E+05
 0.93449997E+02 -0.65248E+05
 0.93499992E+02 -0.40578E+05
 0.93549995E+02 -0.20307E+05
 0.93599991E+02 -0.57771E+04
 0.93649994E+02  0.26971E+04
 0.93699997E+02  0.55316E+04
 0.93749992E+02  0.33839E+04
 0.93799995E+02 -0.11679E+04
 0.93849991E+02 -0.59970E+04
 0.93899994E+02 -0.10641E+05
 0.93949997E+02 -0.14979E+05
 0.93999992E+02 -0.19917E+05
 0.94049995E+02 -0.25433E+05
 0.94099991E+02 -0.31235E+05
 0.94149994E+02 -0.37489E+05
 0.94199997E+02 -0.44569E+05
 0.94249992E+02 -0.52414E+05
 0.94299995E+02 -0.60324E+05
 0.94349991E+02 -0.67619E+05
 0.94399994E+02 -0.73737E+05
 0.94449997E+02 -0.78710E+05
 0.94499992E+02 -0.82826E+05
 0.94549995E+02 -0.85783E+05
 0.94599991E+02 -0.86654E+05
 0.94649994E+02 -0.85320E+05
 0.94699997E+02 -0.82900E+05
 0.94749992E+02 -0.79858E+05
 0.94799995E+02 -0.75857E+05
 0.94849991E+02 -0.70842E+05
 0.94899994E+02 -0.64982E+05
 0.94949997E+02 -0.58157E+05
 0.94999992E+02 -0.50881E+05
 0.95049995E+02 -0.43656E+05
 0.95099991E+02 -0.36241E+05
 0.95149994E+02 -0.28757E+05
 0.95199997E+02 -0.21210E+05
 0.95249992E+02 -0.14144E+05
 0.95299995E+02 -0.85877E+04
 0.95349991E+02 -0.51514E+04
 0.95399994E+02 -0.31871E+04
 0.95449997E+02 -0.11370E+04
 0.95499992E+02  0.22388E+04
 0.95549995E+02  0.78469E+04
 0.95599991E+02  0.15240E+05
 0.95649994E+02  0.23512E+05
 0.95699997E+02  0.32433E+05
 0.95749992E+02  0.41669E+05
 0.95799995E+02  0.49401E+05
 0.95849991E+02  0.53413E+05
 0.95899994E+02  0.52684E+05
 0.95949997E+02  0.47429E+05
 0.95999992E+02  0.39125E+05
 0.96049995E+02  0.28883E+05
 0.96099991E+02  0.18574E+05
 0.96149994E+02  0.90673E+04
 0.96199997E+02 -0.45142E+02
 0.96249992E+02 -0.87822E+04
 0.96299995E+02 -0.16484E+05
 0.96349991E+02 -0.21397E+05
 0.96399994E+02 -0.22759E+05
 0.96449997E+02 -0.21597E+05
 0.96499992E+02 -0.19541E+05
 0.96549995E+02 -0.17839E+05
 0.96599991E+02 -0.17420E+05
 0.96649994E+02 -0.18059E+05
 0.96699997E+02 -0.18772E+05
 0.96749992E+02 -0.19174E+05
 0.96799995E+02 -0.19052E+05
 0.96849991E+02 -0.17693E+05
 0.96899994E+02 -0.14839E+05
 0.96949997E+02 -0.11799E+05
 0.96999992E+02 -0.99943E+04
 0.97049995E+02 -0.90903E+04
 0.97099991E+02 -0.92571E+04
 0.97149994E+02 -0.11394E+05
 0.97199997E+02 -0.15473E+05
 0.97249992E+02 -0.20580E+05
 0.97299995E+02 -0.25764E+05
 0.97349991E+02 -0.31053E+05
 0.97399994E+02 -0.36183E+05
 0.97449997E+02 -0.40057E+05
 0.97499992E+02 -0.41048E+05
 0.97549995E+02 -0.38796E+05
 0.97599991E+02 -0.34757E+05
 0.97649994E+02 -0.29332E+05
 0.97699997E+02 -0.21153E+05
 0.97749992E+02 -0.86001E+04
 0.97799995E+02  0.84845E+04
 0.97849991E+02  0.29321E+05
 0.97899994E+02  0.52530E+05
 0.97949997E+02  0.76005E+05
 0.97999992E+02  0.96994E+05
