-0.19969940E+01 -0.42343E+04
-0.19469941E+01 -0.42048E+04
-0.18969940E+01 -0.42202E+04
-0.18469940E+01 -0.42159E+04
-0.17969940E+01 -0.42210E+04
-0.17469940E+01 -0.42293E+04
-0.16969941E+01 -0.42338E+04
-0.16469941E+01 -0.42462E+04
-0.15969940E+01 -0.42508E+04
-0.15469940E+01 -0.42462E+04
-0.14969940E+01 -0.42468E+04
-0.14469941E+01 -0.42432E+04
-0.13969941E+01 -0.42350E+04
-0.13469940E+01 -0.42420E+04
-0.12969941E+01 -0.42431E+04
-0.12469940E+01 -0.42449E+04
-0.11969941E+01 -0.42487E+04
-0.11469941E+01 -0.42464E+04
-0.10969940E+01 -0.42443E+04
-0.10469941E+01 -0.42422E+04
-0.99699408E+00 -0.42416E+04
-0.94699407E+00 -0.42391E+04
-0.89699411E+00 -0.42376E+04
-0.84699404E+00 -0.42295E+04
-0.79699409E+00 -0.42247E+04
-0.74699414E+00 -0.42155E+04
-0.69699407E+00 -0.42205E+04
-0.64699411E+00 -0.42276E+04
-0.59699416E+00 -0.42255E+04
-0.54699409E+00 -0.42290E+04
-0.49699414E+00 -0.42212E+04
-0.44699407E+00 -0.42226E+04
-0.39699411E+00 -0.42211E+04
-0.34699416E+00 -0.42149E+04
-0.29699409E+00 -0.42142E+04
-0.24699414E+00 -0.42202E+04
-0.19699407E+00 -0.42301E+04
-0.14699411E+00 -0.42356E+04
-0.96994162E-01 -0.42461E+04
-0.46994090E-01 -0.42491E+04
 0.30058622E-02 -0.42456E+04
 0.53005934E-01 -0.42384E+04
 0.10300589E+00 -0.42313E+04
 0.15300584E+00 -0.42278E+04
 0.20300579E+00 -0.42256E+04
 0.25300574E+00 -0.42280E+04
 0.30300593E+00 -0.42234E+04
 0.35300589E+00 -0.42137E+04
 0.40300584E+00 -0.42143E+04
 0.45300579E+00 -0.42163E+04
 0.50300574E+00 -0.42097E+04
 0.55300593E+00 -0.42034E+04
 0.60300589E+00 -0.41981E+04
 0.65300584E+00 -0.41968E+04
 0.70300579E+00 -0.42030E+04
 0.75300574E+00 -0.42096E+04
 0.80300570E+00 -0.42076E+04
 0.85300589E+00 -0.42086E+04
 0.90300584E+00 -0.42190E+04
 0.95300579E+00 -0.42261E+04
 0.10030057E+01 -0.42374E+04
 0.10530057E+01 -0.42506E+04
 0.11030059E+01 -0.42567E+04
 0.11530058E+01 -0.42649E+04
 0.12030058E+01 -0.42689E+04
 0.12530057E+01 -0.42651E+04
 0.13030057E+01 -0.42656E+04
 0.13530059E+01 -0.42634E+04
 0.14030058E+01 -0.42502E+04
 0.14530058E+01 -0.42450E+04
 0.15030057E+01 -0.42489E+04
 0.15530057E+01 -0.42455E+04
 0.16030059E+01 -0.42430E+04
 0.16530058E+01 -0.42401E+04
 0.17030058E+01 -0.42384E+04
 0.17530057E+01 -0.42341E+04
 0.18030057E+01 -0.42315E+04
 0.18530056E+01 -0.42313E+04
 0.19030058E+01 -0.42267E+04
 0.19530058E+01 -0.42228E+04
 0.20030057E+01 -0.42168E+04
 0.20530057E+01 -0.42123E+04
 0.21030059E+01 -0.42123E+04
 0.21530056E+01 -0.42163E+04
 0.22030058E+01 -0.42132E+04
 0.22530055E+01 -0.42203E+04
 0.23030057E+01 -0.42187E+04
 0.23530059E+01 -0.42104E+04
 0.24030056E+01 -0.42071E+04
 0.24530058E+01 -0.42014E+04
 0.25030055E+01 -0.42043E+04
 0.25530057E+01 -0.42101E+04
 0.26030059E+01 -0.42213E+04
 0.26530056E+01 -0.42257E+04
 0.27030058E+01 -0.42286E+04
 0.27530055E+01 -0.42325E+04
 0.28030057E+01 -0.42303E+04
 0.28530059E+01 -0.42278E+04
 0.29030056E+01 -0.42285E+04
 0.29530058E+01 -0.42296E+04
 0.30030055E+01 -0.42293E+04
 0.30530057E+01 -0.42273E+04
 0.31030059E+01 -0.42278E+04
 0.31530056E+01 -0.42313E+04
 0.32030058E+01 -0.42373E+04
 0.32530055E+01 -0.42411E+04
 0.33030057E+01 -0.42429E+04
 0.33530059E+01 -0.42425E+04
 0.34030056E+01 -0.42321E+04
 0.34530058E+01 -0.42285E+04
 0.35030055E+01 -0.42270E+04
 0.35530057E+01 -0.42282E+04
 0.36030054E+01 -0.42336E+04
 0.36530056E+01 -0.42414E+04
 0.37030058E+01 -0.42459E+04
 0.37530055E+01 -0.42408E+04
 0.38030057E+01 -0.42447E+04
 0.38530054E+01 -0.42482E+04
 0.39030056E+01 -0.42485E+04
 0.39530058E+01 -0.42467E+04
 0.40030055E+01 -0.42457E+04
 0.40530057E+01 -0.42385E+04
 0.41030054E+01 -0.42360E+04
 0.41530056E+01 -0.42370E+04
 0.42030058E+01 -0.42364E+04
 0.42530055E+01 -0.42383E+04
 0.43030057E+01 -0.42369E+04
 0.43530054E+01 -0.42366E+04
 0.44030056E+01 -0.42266E+04
 0.44530058E+01 -0.42209E+04
 0.45030055E+01 -0.42217E+04
 0.45530057E+01 -0.42192E+04
 0.46030054E+01 -0.42204E+04
 0.46530056E+01 -0.42215E+04
 0.47030058E+01 -0.42192E+04
 0.47530055E+01 -0.42163E+04
 0.48030057E+01 -0.42158E+04
 0.48530054E+01 -0.42212E+04
 0.49030056E+01 -0.42258E+04
 0.49530058E+01 -0.42224E+04
 0.50030055E+01 -0.42168E+04
 0.50530057E+01 -0.42200E+04
 0.51030054E+01 -0.42201E+04
 0.51530056E+01 -0.42204E+04
 0.52030058E+01 -0.42244E+04
 0.52530055E+01 -0.42229E+04
 0.53030057E+01 -0.42231E+04
 0.53530054E+01 -0.42185E+04
 0.54030056E+01 -0.42163E+04
 0.54530053E+01 -0.42180E+04
 0.55030055E+01 -0.42232E+04
 0.55530057E+01 -0.42281E+04
 0.56030054E+01 -0.42246E+04
 0.56530056E+01 -0.42177E+04
 0.57030053E+01 -0.42165E+04
 0.57530055E+01 -0.42140E+04
 0.58030057E+01 -0.42083E+04
 0.58530054E+01 -0.42144E+04
 0.59030056E+01 -0.42156E+04
 0.59530053E+01 -0.42195E+04
 0.60030055E+01 -0.42262E+04
 0.60530052E+01 -0.42278E+04
 0.61030054E+01 -0.42376E+04
 0.61530056E+01 -0.42417E+04
 0.62030058E+01 -0.42432E+04
 0.62530050E+01 -0.42439E+04
 0.63030052E+01 -0.42416E+04
 0.63530054E+01 -0.42445E+04
 0.64030056E+01 -0.42385E+04
 0.64530058E+01 -0.42293E+04
 0.65030050E+01 -0.42244E+04
 0.65530052E+01 -0.42248E+04
 0.66030054E+01 -0.42372E+04
 0.66530056E+01 -0.42399E+04
 0.67030058E+01 -0.42360E+04
 0.67530050E+01 -0.42302E+04
 0.68030052E+01 -0.42275E+04
 0.68530054E+01 -0.42254E+04
 0.69030056E+01 -0.42256E+04
 0.69530058E+01 -0.42260E+04
 0.70030050E+01 -0.42220E+04
 0.70530052E+01 -0.42273E+04
 0.71030054E+01 -0.42272E+04
 0.71530056E+01 -0.42278E+04
 0.72030058E+01 -0.42309E+04
 0.72530050E+01 -0.42363E+04
 0.73030052E+01 -0.42329E+04
 0.73530054E+01 -0.42279E+04
 0.74030056E+01 -0.42335E+04
 0.74530058E+01 -0.42357E+04
 0.75030050E+01 -0.42425E+04
 0.75530052E+01 -0.42509E+04
 0.76030054E+01 -0.42522E+04
 0.76530056E+01 -0.42547E+04
 0.77030058E+01 -0.42512E+04
 0.77530050E+01 -0.42505E+04
 0.78030052E+01 -0.42477E+04
 0.78530054E+01 -0.42513E+04
 0.79030056E+01 -0.42520E+04
 0.79530058E+01 -0.42453E+04
 0.80030050E+01 -0.42436E+04
 0.80530052E+01 -0.42357E+04
 0.81030054E+01 -0.42330E+04
 0.81530056E+01 -0.42330E+04
 0.82030058E+01 -0.42300E+04
 0.82530050E+01 -0.42214E+04
 0.83030052E+01 -0.42213E+04
 0.83530054E+01 -0.42144E+04
 0.84030056E+01 -0.42109E+04
 0.84530058E+01 -0.42107E+04
 0.85030050E+01 -0.42124E+04
 0.85530052E+01 -0.42140E+04
 0.86030054E+01 -0.42173E+04
 0.86530056E+01 -0.42220E+04
 0.87030058E+01 -0.42204E+04
 0.87530050E+01 -0.42246E+04
 0.88030052E+01 -0.42209E+04
 0.88530054E+01 -0.42277E+04
 0.89030056E+01 -0.42292E+04
 0.89530058E+01 -0.42327E+04
 0.90030050E+01 -0.42321E+04
 0.90530052E+01 -0.42326E+04
 0.91030054E+01 -0.42340E+04
 0.91530056E+01 -0.42265E+04
 0.92030048E+01 -0.42169E+04
 0.92530050E+01 -0.42225E+04
 0.93030052E+01 -0.42179E+04
 0.93530054E+01 -0.42163E+04
 0.94030056E+01 -0.42030E+04
 0.94530048E+01 -0.42288E+04
 0.95030050E+01 -0.42068E+04
 0.95530052E+01 -0.42414E+04
 0.96030054E+01 -0.42102E+04
 0.96530056E+01 -0.41713E+04
 0.97030048E+01 -0.42181E+04
 0.97530050E+01 -0.42455E+04
 0.98030052E+01 -0.42395E+04
 0.98530054E+01 -0.42332E+04
 0.99030056E+01 -0.42352E+04
 0.99530048E+01 -0.42847E+04
 0.10003005E+02 -0.42463E+04
 0.10053005E+02 -0.41680E+04
 0.10103005E+02 -0.45711E+04
 0.10153006E+02 -0.59794E+04
 0.10203005E+02 -0.69562E+04
 0.10253005E+02 -0.56517E+04
 0.10303005E+02 -0.30862E+04
 0.10353005E+02 -0.33580E+04
 0.10403006E+02 -0.22213E+04
 0.10453005E+02 -0.18898E+04
 0.10503005E+02 -0.16572E+04
 0.10553005E+02 -0.50143E+04
 0.10603005E+02 -0.62006E+04
 0.10653006E+02 -0.11235E+05
 0.10703005E+02 -0.87518E+04
 0.10753005E+02  0.35699E+04
 0.10803005E+02 -0.24184E+04
 0.10853005E+02 -0.59288E+04
 0.10903006E+02 -0.73225E+04
 0.10953005E+02 -0.44349E+04
 0.11003005E+02 -0.10122E+05
 0.11053005E+02 -0.15918E+05
 0.11103005E+02 -0.14692E+05
 0.11153006E+02  0.10676E+05
 0.11203005E+02  0.24571E+05
 0.11253005E+02  0.10188E+05
 0.11303005E+02 -0.41508E+05
 0.11353005E+02 -0.23388E+05
 0.11403006E+02  0.38604E+05
 0.11453005E+02 -0.51272E+04
 0.11503005E+02 -0.11240E+04
 0.11553005E+02 -0.11860E+04
 0.11603005E+02  0.80661E+04
 0.11653006E+02  0.15876E+04
 0.11703005E+02 -0.40147E+05
 0.11753005E+02 -0.45210E+04
 0.11803005E+02  0.25448E+05
 0.11853005E+02 -0.72122E+04
 0.11903006E+02 -0.19012E+05
 0.11953005E+02 -0.76998E+04
 0.12003005E+02 -0.92088E+04
 0.12053005E+02 -0.43453E+04
 0.12103005E+02 -0.16343E+05
 0.12153006E+02  0.41250E+03
 0.12203005E+02 -0.34866E+04
 0.12253005E+02  0.17600E+04
 0.12303005E+02 -0.10917E+05
 0.12353005E+02 -0.14090E+05
 0.12403006E+02  0.26760E+04
 0.12453005E+02 -0.42415E+04
 0.12503005E+02  0.24602E+04
 0.12553005E+02  0.51079E+04
 0.12603005E+02 -0.19383E+05
 0.12653005E+02 -0.10809E+04
 0.12703005E+02  0.91544E+04
 0.12753005E+02 -0.67653E+04
 0.12803005E+02  0.76134E+04
 0.12853005E+02 -0.31719E+05
 0.12903005E+02  0.43331E+04
 0.12953005E+02  0.27078E+03
 0.13003005E+02 -0.43807E+04
 0.13053005E+02  0.43748E+04
 0.13103005E+02 -0.77921E+04
 0.13153005E+02  0.88821E+04
 0.13203005E+02 -0.24496E+05
 0.13253005E+02 -0.62633E+04
 0.13303005E+02 -0.12464E+04
 0.13353005E+02 -0.23108E+04
 0.13403005E+02 -0.18792E+05
 0.13453005E+02 -0.18457E+05
 0.13503005E+02  0.51565E+03
 0.13553005E+02  0.16666E+05
 0.13603005E+02 -0.13128E+04
 0.13653005E+02 -0.13964E+05
 0.13703005E+02  0.32752E+03
 0.13753005E+02 -0.39064E+04
 0.13803005E+02  0.67685E+04
 0.13853005E+02 -0.41737E+04
 0.13903005E+02 -0.16048E+05
 0.13953005E+02 -0.20580E+04
 0.14003005E+02  0.15495E+05
 0.14053005E+02  0.15326E+04
 0.14103004E+02 -0.77578E+04
 0.14153006E+02 -0.19793E+05
 0.14203005E+02  0.13957E+04
 0.14253004E+02 -0.28656E+04
 0.14303005E+02 -0.27341E+04
 0.14353004E+02 -0.10988E+05
 0.14403006E+02 -0.12216E+05
 0.14453005E+02 -0.60063E+04
 0.14503004E+02 -0.72547E+04
 0.14553005E+02  0.19418E+04
 0.14603004E+02 -0.20285E+05
 0.14653006E+02  0.27626E+04
 0.14703005E+02  0.82927E+04
 0.14753004E+02 -0.13204E+05
 0.14803005E+02 -0.10487E+05
 0.14853004E+02 -0.56400E+04
 0.14903006E+02  0.55125E+04
 0.14953005E+02 -0.56585E+04
 0.15003004E+02 -0.13478E+05
 0.15053005E+02  0.75380E+04
 0.15103004E+02 -0.31672E+04
 0.15153006E+02 -0.64681E+04
 0.15203005E+02 -0.11503E+05
 0.15253004E+02 -0.26839E+04
 0.15303005E+02  0.14877E+05
 0.15353004E+02 -0.27174E+04
 0.15403006E+02 -0.17794E+05
 0.15453005E+02  0.25465E+04
 0.15503004E+02 -0.81495E+04
 0.15553005E+02  0.16248E+04
 0.15603004E+02 -0.22317E+04
 0.15653006E+02 -0.20489E+05
 0.15703005E+02  0.78405E+04
 0.15753004E+02 -0.90917E+03
 0.15803005E+02 -0.80518E+04
 0.15853004E+02 -0.13598E+05
 0.15903006E+02 -0.14508E+05
 0.15953005E+02 -0.24372E+04
 0.16003004E+02  0.84280E+04
 0.16053005E+02 -0.70909E+04
 0.16103004E+02 -0.60639E+04
 0.16153006E+02 -0.42338E+04
 0.16203005E+02 -0.25320E+04
 0.16253004E+02 -0.89636E+04
 0.16303005E+02 -0.51494E+03
 0.16353004E+02 -0.43582E+04
 0.16403006E+02 -0.77966E+04
 0.16453005E+02  0.64700E+04
 0.16503004E+02 -0.11771E+04
 0.16553005E+02 -0.88079E+03
 0.16603004E+02 -0.18632E+05
 0.16653006E+02 -0.70070E+04
 0.16703005E+02  0.10928E+04
 0.16753004E+02  0.60293E+04
 0.16803005E+02 -0.72742E+04
 0.16853004E+02 -0.14210E+05
 0.16903006E+02 -0.55108E+04
 0.16953005E+02 -0.37588E+04
 0.17003004E+02  0.10563E+05
 0.17053005E+02  0.33089E+04
 0.17103004E+02 -0.17070E+04
 0.17153006E+02 -0.80217E+04
 0.17203005E+02  0.43023E+04
 0.17253004E+02 -0.33175E+04
 0.17303005E+02 -0.21002E+05
 0.17353004E+02 -0.17704E+05
 0.17403006E+02  0.91331E+04
 0.17453005E+02  0.30069E+05
 0.17503004E+02  0.56186E+03
 0.17553005E+02 -0.49407E+05
 0.17603004E+02 -0.48412E+05
 0.17653006E+02  0.18882E+05
 0.17703005E+02  0.40652E+05
 0.17753004E+02  0.41318E+05
 0.17803005E+02 -0.13380E+05
 0.17853004E+02 -0.42047E+05
 0.17903006E+02 -0.30459E+05
 0.17953005E+02 -0.39824E+05
 0.18003004E+02 -0.17997E+05
 0.18053005E+02 -0.12658E+04
 0.18103004E+02  0.13410E+05
 0.18153006E+02  0.57623E+04
 0.18203005E+02 -0.16255E+05
 0.18253004E+02 -0.29327E+05
 0.18303005E+02 -0.72188E+04
 0.18353004E+02  0.17472E+05
 0.18403006E+02  0.97316E+04
 0.18453005E+02 -0.88169E+04
 0.18503004E+02  0.36968E+03
 0.18553005E+02  0.14672E+05
 0.18603004E+02  0.13197E+05
 0.18653006E+02 -0.24582E+04
 0.18703005E+02 -0.16891E+04
 0.18753004E+02  0.11234E+05
 0.18803005E+02  0.13490E+05
 0.18853004E+02 -0.12937E+05
 0.18903006E+02 -0.16182E+05
 0.18953005E+02 -0.91235E+04
 0.19003004E+02 -0.20718E+05
 0.19053005E+02 -0.23368E+05
 0.19103004E+02 -0.22681E+05
 0.19153006E+02  0.25309E+05
 0.19203005E+02  0.88595E+04
 0.19253004E+02  0.31411E+04
 0.19303005E+02  0.70356E+04
 0.19353004E+02  0.41445E+04
 0.19403006E+02  0.19016E+05
 0.19453005E+02 -0.12022E+05
 0.19503004E+02  0.52442E+04
 0.19553005E+02 -0.52555E+04
 0.19603004E+02 -0.16064E+05
 0.19653006E+02 -0.25999E+05
 0.19703005E+02 -0.34930E+05
 0.19753004E+02 -0.18335E+05
 0.19803005E+02 -0.16886E+05
 0.19853004E+02  0.33818E+03
 0.19903006E+02 -0.26991E+04
 0.19953005E+02 -0.86525E+04
 0.20003004E+02 -0.25397E+05
 0.20053005E+02 -0.12872E+05
 0.20103004E+02 -0.72563E+04
 0.20153006E+02 -0.11758E+05
 0.20203005E+02  0.17567E+04
 0.20253004E+02  0.18113E+04
 0.20303005E+02  0.12155E+05
 0.20353004E+02 -0.34542E+02
 0.20403004E+02 -0.95251E+03
 0.20453005E+02  0.89125E+04
 0.20503004E+02  0.24276E+04
 0.20553005E+02  0.13962E+05
 0.20603004E+02  0.85105E+04
 0.20653004E+02 -0.62448E+04
 0.20703005E+02 -0.30939E+04
 0.20753004E+02  0.65158E+03
 0.20803005E+02  0.76399E+04
 0.20853004E+02  0.82482E+04
 0.20903004E+02  0.11193E+04
 0.20953005E+02 -0.25085E+04
 0.21003004E+02 -0.15511E+05
 0.21053005E+02 -0.19375E+05
 0.21103004E+02 -0.17320E+05
 0.21153004E+02 -0.93658E+04
 0.21203005E+02  0.42876E+04
 0.21253004E+02  0.42922E+04
 0.21303005E+02  0.11387E+05
 0.21353004E+02 -0.55364E+04
 0.21403004E+02 -0.17154E+05
 0.21453005E+02 -0.14720E+05
 0.21503004E+02 -0.11920E+05
 0.21553005E+02 -0.56922E+04
 0.21603004E+02 -0.73360E+04
 0.21653004E+02 -0.28799E+04
 0.21703005E+02 -0.59584E+04
 0.21753004E+02 -0.99401E+04
 0.21803005E+02 -0.13103E+05
 0.21853004E+02 -0.39418E+04
 0.21903004E+02 -0.47329E+04
 0.21953005E+02 -0.42150E+04
 0.22003004E+02  0.56128E+04
 0.22053005E+02  0.54378E+03
 0.22103004E+02  0.75075E+04
 0.22153004E+02 -0.88191E+03
 0.22203005E+02 -0.34191E+03
 0.22253004E+02 -0.10551E+05
 0.22303005E+02 -0.13630E+05
 0.22353004E+02 -0.12269E+05
 0.22403004E+02 -0.11733E+05
 0.22453005E+02 -0.42130E+03
 0.22503004E+02  0.43284E+04
 0.22553005E+02  0.78966E+04
 0.22603004E+02 -0.33027E+04
 0.22653004E+02 -0.56153E+04
 0.22703005E+02 -0.12865E+05
 0.22753004E+02 -0.19611E+05
 0.22803005E+02 -0.21738E+05
 0.22853004E+02 -0.10754E+05
 0.22903004E+02 -0.22861E+04
 0.22953005E+02  0.64254E+04
 0.23003004E+02  0.50336E+04
 0.23053005E+02  0.67306E+04
 0.23103004E+02  0.54387E+04
 0.23153004E+02 -0.42594E+04
 0.23203005E+02  0.64689E+03
 0.23253004E+02  0.61499E+04
 0.23303005E+02 -0.32441E+04
 0.23353004E+02 -0.13196E+05
 0.23403004E+02 -0.10563E+05
 0.23453005E+02 -0.11798E+05
 0.23503004E+02  0.23590E+04
 0.23553005E+02  0.84504E+04
 0.23603004E+02 -0.20982E+04
 0.23653004E+02 -0.10313E+05
 0.23703005E+02 -0.17933E+05
 0.23753004E+02 -0.15081E+05
 0.23803005E+02 -0.74435E+04
 0.23853004E+02 -0.42493E+04
 0.23903004E+02 -0.48285E+04
 0.23953005E+02 -0.45057E+04
 0.24003004E+02 -0.30043E+04
 0.24053005E+02 -0.59623E+03
 0.24103004E+02 -0.23805E+03
 0.24153004E+02 -0.43555E+04
 0.24203005E+02 -0.34842E+04
 0.24253004E+02 -0.21208E+04
 0.24303005E+02 -0.64297E+04
 0.24353004E+02 -0.89196E+04
 0.24403004E+02 -0.11344E+05
 0.24453005E+02 -0.44604E+04
 0.24503004E+02 -0.10118E+04
 0.24553005E+02  0.15556E+04
 0.24603004E+02 -0.14198E+04
 0.24653004E+02 -0.69885E+04
 0.24703005E+02 -0.15594E+04
 0.24753004E+02 -0.11731E+05
 0.24803005E+02 -0.12982E+05
 0.24853004E+02  0.99276E+02
 0.24903004E+02  0.13535E+04
 0.24953005E+02 -0.44731E+04
 0.25003004E+02 -0.64240E+04
 0.25053005E+02 -0.90345E+04
 0.25103004E+02  0.80666E+03
 0.25153004E+02 -0.69063E+03
 0.25203005E+02 -0.10776E+04
 0.25253004E+02  0.48061E+04
 0.25303005E+02 -0.38099E+04
 0.25353004E+02 -0.11937E+05
 0.25403004E+02 -0.15721E+05
 0.25453005E+02 -0.11832E+05
 0.25503004E+02 -0.64748E+04
 0.25553005E+02 -0.75733E+03
 0.25603004E+02 -0.53924E+04
 0.25653004E+02 -0.34361E+04
 0.25703005E+02 -0.27824E+04
 0.25753004E+02 -0.50028E+04
 0.25803005E+02 -0.20395E+04
 0.25853004E+02 -0.29894E+04
 0.25903004E+02  0.37585E+04
 0.25953005E+02  0.84177E+04
 0.26003004E+02  0.28679E+04
 0.26053005E+02 -0.71569E+04
 0.26103004E+02 -0.68423E+04
 0.26153004E+02 -0.10807E+05
 0.26203005E+02 -0.10865E+05
 0.26253004E+02 -0.30109E+04
 0.26303005E+02 -0.35585E+04
 0.26353004E+02 -0.20758E+04
 0.26403004E+02 -0.75597E+04
 0.26453005E+02 -0.78840E+04
 0.26503004E+02 -0.13034E+04
 0.26553005E+02  0.10783E+03
 0.26603004E+02  0.14581E+04
 0.26653004E+02 -0.64597E+03
 0.26703005E+02 -0.48899E+04
 0.26753004E+02 -0.35544E+04
 0.26803005E+02 -0.58945E+04
 0.26853004E+02 -0.36350E+04
 0.26903004E+02 -0.51861E+04
 0.26953005E+02 -0.66131E+04
 0.27003004E+02 -0.45389E+03
 0.27053003E+02 -0.27352E+04
 0.27103004E+02 -0.24431E+04
 0.27153004E+02 -0.21488E+04
 0.27203005E+02  0.34211E+02
 0.27253004E+02 -0.20360E+04
 0.27303003E+02 -0.60851E+04
 0.27353004E+02 -0.91325E+04
 0.27403004E+02 -0.11276E+05
 0.27453005E+02 -0.56079E+04
 0.27503004E+02 -0.32501E+04
 0.27553003E+02 -0.30172E+04
 0.27603004E+02 -0.31915E+04
 0.27653004E+02 -0.62201E+04
 0.27703005E+02 -0.74880E+04
 0.27753004E+02 -0.41928E+04
 0.27803003E+02  0.18348E+04
 0.27853004E+02  0.32147E+03
 0.27903004E+02 -0.72409E+04
 0.27953005E+02 -0.99489E+04
 0.28003004E+02 -0.76659E+04
 0.28053003E+02 -0.35108E+04
 0.28103004E+02 -0.23420E+04
 0.28153004E+02 -0.42285E+04
 0.28203005E+02 -0.71775E+04
 0.28253004E+02 -0.10876E+05
 0.28303003E+02 -0.10229E+05
 0.28353004E+02 -0.14605E+05
 0.28403004E+02 -0.11383E+05
 0.28453005E+02 -0.10370E+04
 0.28503004E+02  0.33305E+03
 0.28553003E+02  0.20609E+04
 0.28603004E+02 -0.26133E+04
 0.28653004E+02  0.23757E+04
 0.28703005E+02  0.10685E+04
 0.28753004E+02 -0.53277E+04
 0.28803003E+02  0.14082E+04
 0.28853004E+02  0.12468E+04
 0.28903004E+02 -0.21481E+04
 0.28953005E+02 -0.76803E+04
 0.29003004E+02 -0.60380E+04
 0.29053003E+02 -0.19844E+04
 0.29103004E+02 -0.15000E+04
 0.29153004E+02 -0.45642E+04
 0.29203005E+02 -0.16360E+04
 0.29253004E+02 -0.41483E+04
 0.29303003E+02 -0.16031E+04
 0.29353004E+02 -0.12954E+04
 0.29403004E+02 -0.95568E+04
 0.29453005E+02 -0.90114E+04
 0.29503004E+02 -0.10571E+05
 0.29553003E+02 -0.46105E+04
 0.29603004E+02 -0.54817E+04
 0.29653004E+02 -0.55181E+04
 0.29703005E+02 -0.31811E+04
 0.29753004E+02 -0.37066E+04
 0.29803003E+02 -0.68438E+04
 0.29853004E+02 -0.10585E+05
 0.29903004E+02 -0.54198E+04
 0.29953005E+02 -0.18605E+04
 0.30003004E+02 -0.43351E+04
 0.30053005E+02 -0.20132E+04
 0.30103004E+02 -0.55797E+03
 0.30153004E+02 -0.10510E+04
 0.30203003E+02 -0.16429E+04
 0.30253002E+02 -0.59504E+04
 0.30303005E+02 -0.69267E+04
 0.30353004E+02 -0.77659E+04
 0.30403004E+02 -0.50695E+04
 0.30453003E+02 -0.20035E+04
 0.30503002E+02 -0.97671E+03
 0.30553005E+02 -0.40012E+04
 0.30603004E+02 -0.26555E+04
 0.30653004E+02 -0.29621E+04
 0.30703003E+02 -0.59459E+04
 0.30753002E+02 -0.18352E+04
 0.30803005E+02 -0.11238E+04
 0.30853004E+02 -0.24612E+04
 0.30903004E+02 -0.51923E+04
 0.30953003E+02 -0.52453E+04
 0.31003002E+02 -0.61680E+04
 0.31053005E+02 -0.46182E+04
 0.31103004E+02 -0.47540E+04
 0.31153004E+02 -0.63318E+04
 0.31203003E+02 -0.34753E+04
 0.31253002E+02 -0.37657E+04
 0.31303005E+02 -0.36477E+04
 0.31353004E+02 -0.19512E+04
 0.31403004E+02 -0.12095E+04
 0.31453003E+02 -0.17183E+04
 0.31503002E+02 -0.22559E+04
 0.31553005E+02 -0.58002E+04
 0.31603004E+02 -0.64679E+04
 0.31653004E+02 -0.31078E+04
 0.31703003E+02 -0.66268E+04
 0.31753002E+02 -0.91067E+04
 0.31803005E+02 -0.97704E+04
 0.31853004E+02 -0.10143E+05
 0.31903004E+02 -0.65807E+04
 0.31953003E+02 -0.22533E+04
 0.32003002E+02  0.21763E+03
 0.32053005E+02 -0.11056E+04
 0.32103004E+02 -0.48974E+04
 0.32153004E+02 -0.70480E+04
 0.32203003E+02 -0.72903E+04
 0.32253002E+02 -0.74977E+04
 0.32303005E+02 -0.47086E+04
 0.32353004E+02 -0.49654E+02
 0.32403004E+02 -0.82733E+03
 0.32453003E+02 -0.20147E+04
 0.32503002E+02 -0.32744E+04
 0.32553005E+02 -0.50566E+04
 0.32603004E+02 -0.55163E+04
 0.32653004E+02 -0.56441E+04
 0.32703003E+02 -0.36420E+04
 0.32753002E+02 -0.28237E+04
 0.32803005E+02 -0.19097E+04
 0.32853004E+02 -0.30490E+04
 0.32903004E+02 -0.22788E+04
 0.32953003E+02 -0.25630E+04
 0.33003002E+02 -0.16200E+04
 0.33053005E+02 -0.34309E+04
 0.33103004E+02 -0.39770E+04
 0.33153004E+02 -0.19344E+04
 0.33203003E+02 -0.88659E+03
 0.33253002E+02 -0.17734E+04
 0.33303005E+02 -0.57635E+04
 0.33353004E+02 -0.62930E+04
 0.33403004E+02 -0.79941E+04
 0.33453003E+02 -0.47374E+04
 0.33503002E+02 -0.42631E+04
 0.33553005E+02 -0.58013E+04
 0.33603004E+02 -0.78570E+04
 0.33653004E+02 -0.51740E+04
 0.33703003E+02 -0.17846E+04
 0.33753002E+02 -0.20179E+04
 0.33803005E+02 -0.24935E+04
 0.33853004E+02 -0.53425E+04
 0.33903004E+02 -0.51465E+04
 0.33953003E+02 -0.61070E+04
 0.34003002E+02 -0.74668E+04
 0.34053005E+02 -0.61795E+04
 0.34103004E+02 -0.37607E+04
 0.34153004E+02 -0.38438E+04
 0.34203003E+02 -0.32504E+04
 0.34253002E+02 -0.29075E+04
 0.34303005E+02 -0.55110E+04
 0.34353004E+02 -0.66403E+04
 0.34403004E+02 -0.48284E+04
 0.34453003E+02 -0.13421E+04
 0.34503002E+02  0.20171E+04
 0.34553005E+02 -0.56327E+03
 0.34603004E+02 -0.41636E+04
 0.34653004E+02 -0.85325E+04
 0.34703003E+02 -0.96873E+04
 0.34753002E+02 -0.59229E+04
 0.34803005E+02 -0.46980E+04
 0.34853004E+02 -0.49360E+04
 0.34903004E+02 -0.31825E+04
 0.34953003E+02 -0.17440E+04
 0.35003002E+02 -0.22606E+04
 0.35053005E+02 -0.29050E+04
 0.35103004E+02 -0.49574E+04
 0.35153004E+02 -0.56246E+04
 0.35203003E+02 -0.68873E+04
 0.35253002E+02 -0.53590E+04
 0.35303005E+02 -0.38967E+04
 0.35353004E+02 -0.46126E+04
 0.35403004E+02 -0.56095E+04
 0.35453003E+02 -0.68061E+04
 0.35503002E+02 -0.57403E+04
 0.35553005E+02 -0.46682E+04
 0.35603004E+02 -0.39684E+04
 0.35653004E+02 -0.41673E+04
 0.35703003E+02 -0.36921E+04
 0.35753002E+02 -0.38256E+04
 0.35803005E+02 -0.45702E+04
 0.35853004E+02 -0.54579E+04
 0.35903004E+02 -0.71851E+04
 0.35953003E+02 -0.56481E+04
 0.36003002E+02 -0.24472E+04
 0.36053005E+02 -0.14948E+04
 0.36103004E+02  0.49241E+03
 0.36153004E+02  0.17995E+04
 0.36203003E+02  0.21440E+01
 0.36253002E+02 -0.27176E+04
 0.36303005E+02 -0.74883E+04
 0.36353004E+02 -0.78498E+04
 0.36403004E+02 -0.42088E+04
 0.36453003E+02 -0.43649E+04
 0.36503002E+02 -0.24779E+04
 0.36553005E+02 -0.74353E+03
 0.36603004E+02 -0.30018E+04
 0.36653004E+02 -0.26450E+04
 0.36703003E+02 -0.24723E+04
 0.36753002E+02 -0.28558E+04
 0.36803005E+02 -0.26677E+04
 0.36853004E+02 -0.47697E+04
 0.36903004E+02 -0.64639E+04
 0.36953003E+02 -0.63348E+04
 0.37003002E+02 -0.60175E+04
 0.37053005E+02 -0.48050E+04
 0.37103004E+02 -0.49794E+04
 0.37153004E+02 -0.65211E+04
 0.37203003E+02 -0.66635E+04
 0.37253002E+02 -0.68261E+04
 0.37303005E+02 -0.43030E+04
 0.37353004E+02 -0.48451E+04
 0.37403004E+02 -0.70140E+04
 0.37453003E+02 -0.61718E+04
 0.37503002E+02 -0.55679E+04
 0.37553005E+02 -0.41410E+04
 0.37603004E+02 -0.42430E+04
 0.37653004E+02 -0.34944E+04
 0.37703003E+02 -0.29677E+04
 0.37753002E+02 -0.43533E+04
 0.37803005E+02 -0.42594E+04
 0.37853004E+02 -0.36056E+04
 0.37903004E+02 -0.26086E+04
 0.37953003E+02 -0.83288E+03
 0.38003002E+02 -0.27207E+04
 0.38053005E+02 -0.23955E+04
 0.38103004E+02 -0.31084E+04
 0.38153004E+02 -0.52341E+04
 0.38203003E+02 -0.41952E+04
 0.38253002E+02 -0.48643E+04
 0.38303005E+02 -0.52001E+04
 0.38353004E+02 -0.58000E+04
 0.38403004E+02 -0.56340E+04
 0.38453003E+02 -0.35724E+04
 0.38503002E+02 -0.30638E+04
 0.38553005E+02 -0.42273E+04
 0.38603004E+02 -0.44924E+04
 0.38653004E+02 -0.51086E+04
 0.38703003E+02 -0.36474E+04
 0.38753002E+02 -0.29842E+04
 0.38803005E+02 -0.28391E+04
 0.38853004E+02 -0.26674E+04
 0.38903004E+02 -0.24232E+04
 0.38953003E+02 -0.31750E+04
 0.39003002E+02 -0.44501E+04
 0.39053005E+02 -0.41026E+04
 0.39103004E+02 -0.54471E+04
 0.39153004E+02 -0.54074E+04
 0.39203003E+02 -0.51536E+04
 0.39253002E+02 -0.46331E+04
 0.39303005E+02 -0.45236E+04
 0.39353004E+02 -0.53370E+04
 0.39403004E+02 -0.48778E+04
 0.39453003E+02 -0.48924E+04
 0.39503002E+02 -0.50431E+04
 0.39553005E+02 -0.55385E+04
 0.39603004E+02 -0.66966E+04
 0.39653004E+02 -0.53708E+04
 0.39703003E+02 -0.33921E+04
 0.39753002E+02 -0.30637E+04
 0.39803005E+02 -0.41972E+04
 0.39853004E+02 -0.50438E+04
 0.39903004E+02 -0.37346E+04
 0.39953003E+02 -0.36895E+04
 0.40003002E+02 -0.35817E+04
 0.40053005E+02 -0.42118E+04
 0.40103004E+02 -0.46014E+04
 0.40153004E+02 -0.41148E+04
 0.40203003E+02 -0.29275E+04
 0.40253002E+02 -0.28544E+04
 0.40303005E+02 -0.29477E+04
 0.40353004E+02 -0.37804E+04
 0.40403004E+02 -0.54606E+04
 0.40453003E+02 -0.35179E+04
 0.40503002E+02 -0.31815E+04
 0.40553005E+02 -0.35196E+04
 0.40603004E+02 -0.30757E+04
 0.40653004E+02 -0.30334E+04
 0.40703003E+02 -0.39352E+04
 0.40753002E+02 -0.38585E+04
 0.40803005E+02 -0.36707E+04
 0.40853004E+02 -0.34175E+04
 0.40903004E+02 -0.47979E+04
 0.40953003E+02 -0.54034E+04
 0.41003002E+02 -0.50597E+04
 0.41053005E+02 -0.49842E+04
 0.41103004E+02 -0.65189E+04
 0.41153004E+02 -0.70790E+04
 0.41203003E+02 -0.51515E+04
 0.41253002E+02 -0.42666E+04
 0.41303005E+02 -0.41182E+04
 0.41353004E+02 -0.60455E+04
 0.41403004E+02 -0.67895E+04
 0.41453003E+02 -0.56484E+04
 0.41503002E+02 -0.39932E+04
 0.41553005E+02 -0.41681E+04
 0.41603004E+02 -0.27971E+04
 0.41653004E+02 -0.27978E+04
 0.41703003E+02 -0.29572E+04
 0.41753002E+02 -0.25460E+04
 0.41803005E+02 -0.38608E+04
 0.41853004E+02 -0.32644E+04
 0.41903004E+02 -0.35410E+04
 0.41953003E+02 -0.37911E+04
 0.42003002E+02 -0.38495E+04
 0.42053005E+02 -0.38983E+04
 0.42103004E+02 -0.39436E+04
 0.42153004E+02 -0.33705E+04
 0.42203003E+02 -0.19990E+04
 0.42253002E+02 -0.28905E+04
 0.42303005E+02 -0.44894E+04
 0.42353004E+02 -0.51319E+04
 0.42403004E+02 -0.53468E+04
 0.42453003E+02 -0.64010E+04
 0.42503002E+02 -0.68454E+04
 0.42553005E+02 -0.64221E+04
 0.42603004E+02 -0.64458E+04
 0.42653004E+02 -0.51487E+04
 0.42703003E+02 -0.51919E+04
 0.42753002E+02 -0.49546E+04
 0.42803001E+02 -0.35410E+04
 0.42853004E+02 -0.25845E+04
 0.42903004E+02 -0.13540E+04
 0.42953003E+02 -0.24903E+04
 0.43003002E+02 -0.31875E+04
 0.43053001E+02 -0.23255E+04
 0.43103004E+02 -0.20317E+04
 0.43153004E+02 -0.19541E+04
 0.43203003E+02 -0.21313E+04
 0.43253002E+02 -0.39383E+04
 0.43303001E+02 -0.46139E+04
 0.43353004E+02 -0.35054E+04
 0.43403004E+02 -0.33480E+04
 0.43453003E+02 -0.31511E+04
 0.43503002E+02 -0.45219E+04
 0.43553001E+02 -0.58016E+04
 0.43603004E+02 -0.64079E+04
 0.43653004E+02 -0.64612E+04
 0.43703003E+02 -0.58599E+04
 0.43753002E+02 -0.68750E+04
 0.43803001E+02 -0.62813E+04
 0.43853004E+02 -0.53594E+04
 0.43903004E+02 -0.52288E+04
 0.43953003E+02 -0.49645E+04
 0.44003002E+02 -0.45957E+04
 0.44053001E+02 -0.37363E+04
 0.44103004E+02 -0.25165E+04
 0.44153004E+02 -0.17678E+04
 0.44203003E+02 -0.20629E+04
 0.44253002E+02 -0.25560E+04
 0.44303001E+02 -0.24286E+04
 0.44353004E+02 -0.33865E+04
 0.44403004E+02 -0.39730E+04
 0.44453003E+02 -0.35517E+04
 0.44503002E+02 -0.46439E+04
 0.44553001E+02 -0.55221E+04
 0.44603004E+02 -0.60809E+04
 0.44653004E+02 -0.57242E+04
 0.44703003E+02 -0.46580E+04
 0.44753002E+02 -0.38134E+04
 0.44803001E+02 -0.47550E+04
 0.44853004E+02 -0.50783E+04
 0.44903004E+02 -0.46372E+04
 0.44953003E+02 -0.48460E+04
 0.45003002E+02 -0.41812E+04
 0.45053001E+02 -0.34556E+04
 0.45103004E+02 -0.37974E+04
 0.45153004E+02 -0.51051E+04
 0.45203003E+02 -0.57863E+04
 0.45253002E+02 -0.53367E+04
 0.45303001E+02 -0.34285E+04
 0.45353004E+02 -0.28409E+04
 0.45403004E+02 -0.33526E+04
 0.45453003E+02 -0.33416E+04
 0.45503002E+02 -0.30349E+04
 0.45553001E+02 -0.28275E+04
 0.45603004E+02 -0.36987E+04
 0.45653004E+02 -0.48609E+04
 0.45703003E+02 -0.50056E+04
 0.45753002E+02 -0.44966E+04
 0.45803001E+02 -0.38763E+04
 0.45853004E+02 -0.37766E+04
 0.45903004E+02 -0.53252E+04
 0.45953003E+02 -0.62321E+04
 0.46003002E+02 -0.69690E+04
 0.46053001E+02 -0.74367E+04
 0.46103004E+02 -0.57941E+04
 0.46153004E+02 -0.35202E+04
 0.46203003E+02 -0.21169E+04
 0.46253002E+02 -0.13350E+04
 0.46303001E+02 -0.18332E+04
 0.46353004E+02 -0.31268E+04
 0.46403004E+02 -0.34973E+04
 0.46453003E+02 -0.39285E+04
 0.46503002E+02 -0.47108E+04
 0.46553001E+02 -0.54476E+04
 0.46603004E+02 -0.51976E+04
 0.46653004E+02 -0.57364E+04
 0.46703003E+02 -0.68967E+04
 0.46753002E+02 -0.66055E+04
 0.46803001E+02 -0.62974E+04
 0.46853004E+02 -0.50601E+04
 0.46903004E+02 -0.34388E+04
 0.46953003E+02 -0.17477E+04
 0.47003002E+02 -0.94131E+03
 0.47053001E+02 -0.17183E+04
 0.47103004E+02 -0.24073E+04
 0.47153004E+02 -0.35322E+04
 0.47203003E+02 -0.41849E+04
 0.47253002E+02 -0.43514E+04
 0.47303001E+02 -0.45920E+04
 0.47353004E+02 -0.41634E+04
 0.47403004E+02 -0.39564E+04
 0.47453003E+02 -0.36983E+04
 0.47503002E+02 -0.31331E+04
 0.47553001E+02 -0.36313E+04
 0.47603004E+02 -0.51525E+04
 0.47653004E+02 -0.55910E+04
 0.47703003E+02 -0.54781E+04
 0.47753002E+02 -0.50757E+04
 0.47803001E+02 -0.26189E+04
 0.47853004E+02 -0.16815E+04
 0.47903004E+02 -0.27247E+04
 0.47953003E+02 -0.40309E+04
 0.48003002E+02 -0.49491E+04
 0.48053001E+02 -0.54017E+04
 0.48103004E+02 -0.53575E+04
 0.48153004E+02 -0.53853E+04
 0.48203003E+02 -0.60914E+04
 0.48253002E+02 -0.58532E+04
 0.48303001E+02 -0.55587E+04
 0.48353004E+02 -0.53228E+04
 0.48403004E+02 -0.50116E+04
 0.48453003E+02 -0.45362E+04
 0.48503002E+02 -0.36579E+04
 0.48553001E+02 -0.35864E+04
 0.48603004E+02 -0.39061E+04
 0.48653004E+02 -0.33056E+04
 0.48703003E+02 -0.28756E+04
 0.48753002E+02 -0.26592E+04
 0.48803001E+02 -0.32792E+04
 0.48853004E+02 -0.40030E+04
 0.48903004E+02 -0.36949E+04
 0.48953003E+02 -0.34976E+04
 0.49003002E+02 -0.31446E+04
 0.49053001E+02 -0.28965E+04
 0.49103004E+02 -0.34243E+04
 0.49153004E+02 -0.43785E+04
 0.49203003E+02 -0.43793E+04
 0.49253002E+02 -0.41403E+04
 0.49303001E+02 -0.43538E+04
 0.49353004E+02 -0.44753E+04
 0.49403004E+02 -0.47292E+04
 0.49453003E+02 -0.40886E+04
 0.49503002E+02 -0.36182E+04
 0.49553001E+02 -0.41539E+04
 0.49603004E+02 -0.40787E+04
 0.49653004E+02 -0.49546E+04
 0.49703003E+02 -0.61208E+04
 0.49753002E+02 -0.59594E+04
 0.49803001E+02 -0.55862E+04
 0.49853004E+02 -0.55213E+04
 0.49903004E+02 -0.49469E+04
 0.49953003E+02 -0.46651E+04
 0.50003002E+02 -0.47457E+04
 0.50053001E+02 -0.52182E+04
 0.50103004E+02 -0.57563E+04
 0.50153004E+02 -0.54439E+04
 0.50203003E+02 -0.50593E+04
 0.50253002E+02 -0.44191E+04
 0.50303001E+02 -0.42369E+04
 0.50353004E+02 -0.37748E+04
 0.50403004E+02 -0.26848E+04
 0.50453003E+02 -0.19953E+04
 0.50503002E+02 -0.17569E+04
 0.50553001E+02 -0.20915E+04
 0.50603004E+02 -0.28086E+04
 0.50653004E+02 -0.26883E+04
 0.50703003E+02 -0.22968E+04
 0.50753002E+02 -0.25345E+04
 0.50803001E+02 -0.33583E+04
 0.50853004E+02 -0.42175E+04
 0.50903004E+02 -0.46045E+04
 0.50953003E+02 -0.50362E+04
 0.51003002E+02 -0.51380E+04
 0.51053001E+02 -0.52925E+04
 0.51103004E+02 -0.60663E+04
 0.51153004E+02 -0.64563E+04
 0.51203003E+02 -0.60653E+04
 0.51253002E+02 -0.53059E+04
 0.51303001E+02 -0.47172E+04
 0.51353004E+02 -0.44649E+04
 0.51403004E+02 -0.41854E+04
 0.51453003E+02 -0.35740E+04
 0.51503002E+02 -0.33064E+04
 0.51553001E+02 -0.39607E+04
 0.51603004E+02 -0.51959E+04
 0.51653004E+02 -0.55568E+04
 0.51703003E+02 -0.51468E+04
 0.51753002E+02 -0.41884E+04
 0.51803001E+02 -0.35457E+04
 0.51853004E+02 -0.35407E+04
 0.51903004E+02 -0.32798E+04
 0.51953003E+02 -0.28964E+04
 0.52003002E+02 -0.29255E+04
 0.52053001E+02 -0.37339E+04
 0.52103004E+02 -0.39205E+04
 0.52153004E+02 -0.40095E+04
 0.52203003E+02 -0.39681E+04
 0.52253002E+02 -0.36640E+04
 0.52303001E+02 -0.31023E+04
 0.52353004E+02 -0.32013E+04
 0.52403004E+02 -0.35155E+04
 0.52453003E+02 -0.38940E+04
 0.52503002E+02 -0.43078E+04
 0.52553001E+02 -0.39992E+04
 0.52603004E+02 -0.42708E+04
 0.52653004E+02 -0.41499E+04
 0.52703003E+02 -0.45751E+04
 0.52753002E+02 -0.51418E+04
 0.52803001E+02 -0.47496E+04
 0.52853004E+02 -0.48087E+04
 0.52903004E+02 -0.52350E+04
 0.52953003E+02 -0.54395E+04
 0.53003002E+02 -0.52666E+04
 0.53053001E+02 -0.53299E+04
 0.53103004E+02 -0.55303E+04
 0.53153004E+02 -0.53329E+04
 0.53203003E+02 -0.52624E+04
 0.53253002E+02 -0.48990E+04
 0.53303001E+02 -0.42493E+04
 0.53353004E+02 -0.38451E+04
 0.53403004E+02 -0.32958E+04
 0.53453003E+02 -0.29533E+04
 0.53503002E+02 -0.28743E+04
 0.53553001E+02 -0.28846E+04
 0.53603004E+02 -0.33959E+04
 0.53653004E+02 -0.38571E+04
 0.53703003E+02 -0.39465E+04
 0.53753002E+02 -0.41718E+04
 0.53803001E+02 -0.38208E+04
 0.53853004E+02 -0.35044E+04
 0.53903004E+02 -0.32160E+04
 0.53953003E+02 -0.29629E+04
 0.54003002E+02 -0.34963E+04
 0.54053001E+02 -0.41825E+04
 0.54103004E+02 -0.44484E+04
 0.54153004E+02 -0.42623E+04
 0.54203003E+02 -0.38603E+04
 0.54253002E+02 -0.38329E+04
 0.54303001E+02 -0.48044E+04
 0.54353004E+02 -0.57922E+04
 0.54403004E+02 -0.63088E+04
 0.54453003E+02 -0.59623E+04
 0.54503002E+02 -0.52946E+04
 0.54553001E+02 -0.54683E+04
 0.54603004E+02 -0.58163E+04
 0.54653004E+02 -0.54570E+04
 0.54703003E+02 -0.53513E+04
 0.54753002E+02 -0.50987E+04
 0.54803001E+02 -0.47724E+04
 0.54853004E+02 -0.44486E+04
 0.54903004E+02 -0.37913E+04
 0.54953003E+02 -0.35713E+04
 0.55003002E+02 -0.30800E+04
 0.55053001E+02 -0.33048E+04
 0.55103004E+02 -0.33845E+04
 0.55153004E+02 -0.29127E+04
 0.55203003E+02 -0.25735E+04
 0.55253002E+02 -0.21747E+04
 0.55303001E+02 -0.23258E+04
 0.55353004E+02 -0.27564E+04
 0.55403004E+02 -0.35993E+04
 0.55453003E+02 -0.42951E+04
 0.55503002E+02 -0.46298E+04
 0.55553001E+02 -0.49279E+04
 0.55603004E+02 -0.53917E+04
 0.55653004E+02 -0.53680E+04
 0.55703003E+02 -0.49133E+04
 0.55753002E+02 -0.51256E+04
 0.55803001E+02 -0.51331E+04
 0.55853001E+02 -0.48359E+04
 0.55903004E+02 -0.48180E+04
 0.55953003E+02 -0.44983E+04
 0.56003002E+02 -0.42090E+04
 0.56053001E+02 -0.42056E+04
 0.56103001E+02 -0.42134E+04
 0.56153004E+02 -0.40124E+04
 0.56203003E+02 -0.40211E+04
 0.56253002E+02 -0.42158E+04
 0.56303001E+02 -0.43353E+04
 0.56353001E+02 -0.44523E+04
 0.56403004E+02 -0.39951E+04
 0.56453003E+02 -0.34437E+04
 0.56503002E+02 -0.30806E+04
 0.56553001E+02 -0.32027E+04
 0.56603001E+02 -0.35429E+04
 0.56653004E+02 -0.38801E+04
 0.56703003E+02 -0.44003E+04
 0.56753002E+02 -0.43979E+04
 0.56803001E+02 -0.47932E+04
 0.56853001E+02 -0.48147E+04
 0.56903004E+02 -0.40373E+04
 0.56953003E+02 -0.40677E+04
 0.57003002E+02 -0.42239E+04
 0.57053001E+02 -0.40747E+04
 0.57103001E+02 -0.41099E+04
 0.57153004E+02 -0.41939E+04
 0.57203003E+02 -0.43148E+04
 0.57253002E+02 -0.44585E+04
 0.57303001E+02 -0.46072E+04
 0.57353001E+02 -0.47003E+04
 0.57403004E+02 -0.44330E+04
 0.57453003E+02 -0.43385E+04
 0.57503002E+02 -0.43068E+04
 0.57553001E+02 -0.43245E+04
 0.57603001E+02 -0.44779E+04
 0.57653004E+02 -0.43961E+04
 0.57703003E+02 -0.41954E+04
 0.57753002E+02 -0.42125E+04
 0.57803001E+02 -0.43302E+04
 0.57853001E+02 -0.45337E+04
 0.57903004E+02 -0.46815E+04
 0.57953003E+02 -0.44763E+04
 0.58003002E+02 -0.44096E+04
 0.58053001E+02 -0.47203E+04
 0.58103001E+02 -0.44154E+04
 0.58153004E+02 -0.35501E+04
 0.58203003E+02 -0.31316E+04
 0.58253002E+02 -0.31325E+04
 0.58303001E+02 -0.33933E+04
 0.58353001E+02 -0.37362E+04
 0.58403004E+02 -0.40320E+04
 0.58453003E+02 -0.38880E+04
 0.58503002E+02 -0.40132E+04
 0.58553001E+02 -0.43325E+04
 0.58603001E+02 -0.47955E+04
 0.58653004E+02 -0.50661E+04
 0.58703003E+02 -0.47616E+04
 0.58753002E+02 -0.45324E+04
 0.58803001E+02 -0.45767E+04
 0.58853001E+02 -0.45422E+04
 0.58903004E+02 -0.41193E+04
 0.58953003E+02 -0.38027E+04
 0.59003002E+02 -0.37093E+04
 0.59053001E+02 -0.35545E+04
 0.59103001E+02 -0.33264E+04
 0.59153004E+02 -0.34476E+04
 0.59203003E+02 -0.33984E+04
 0.59253002E+02 -0.39290E+04
 0.59303001E+02 -0.46797E+04
 0.59353001E+02 -0.48661E+04
 0.59403004E+02 -0.52967E+04
 0.59453003E+02 -0.50723E+04
 0.59503002E+02 -0.44208E+04
 0.59553001E+02 -0.42916E+04
 0.59603001E+02 -0.43006E+04
 0.59653004E+02 -0.42939E+04
 0.59703003E+02 -0.41117E+04
 0.59753002E+02 -0.40624E+04
 0.59803001E+02 -0.43756E+04
 0.59853001E+02 -0.44818E+04
 0.59903004E+02 -0.45499E+04
 0.59953003E+02 -0.46229E+04
 0.60003002E+02 -0.43740E+04
 0.60053001E+02 -0.45065E+04
 0.60103001E+02 -0.44972E+04
 0.60153004E+02 -0.42399E+04
 0.60203003E+02 -0.41288E+04
 0.60253002E+02 -0.37822E+04
 0.60303001E+02 -0.33493E+04
 0.60353001E+02 -0.29066E+04
 0.60403004E+02 -0.28919E+04
 0.60453003E+02 -0.30023E+04
 0.60503002E+02 -0.32208E+04
 0.60553001E+02 -0.37282E+04
 0.60603001E+02 -0.42262E+04
 0.60653004E+02 -0.47508E+04
 0.60703003E+02 -0.49799E+04
 0.60753002E+02 -0.47223E+04
 0.60803001E+02 -0.46447E+04
 0.60853001E+02 -0.45062E+04
 0.60903004E+02 -0.48355E+04
 0.60953003E+02 -0.53305E+04
 0.61003002E+02 -0.51001E+04
 0.61053001E+02 -0.46092E+04
 0.61103001E+02 -0.41791E+04
 0.61153004E+02 -0.41926E+04
 0.61203003E+02 -0.39337E+04
 0.61253002E+02 -0.38327E+04
 0.61303001E+02 -0.41586E+04
 0.61353001E+02 -0.43212E+04
 0.61403004E+02 -0.42765E+04
 0.61453003E+02 -0.40563E+04
 0.61503002E+02 -0.38371E+04
 0.61553001E+02 -0.39680E+04
 0.61603001E+02 -0.41081E+04
 0.61653004E+02 -0.44227E+04
 0.61703003E+02 -0.48447E+04
 0.61753002E+02 -0.51296E+04
 0.61803001E+02 -0.51164E+04
 0.61853001E+02 -0.47926E+04
 0.61903004E+02 -0.46256E+04
 0.61953003E+02 -0.39768E+04
 0.62003002E+02 -0.35996E+04
 0.62053001E+02 -0.36406E+04
 0.62103004E+02 -0.39980E+04
 0.62153000E+02 -0.43148E+04
 0.62203003E+02 -0.44168E+04
 0.62252998E+02 -0.43996E+04
 0.62303001E+02 -0.43297E+04
 0.62353004E+02 -0.44590E+04
 0.62403000E+02 -0.46062E+04
 0.62453003E+02 -0.45310E+04
 0.62502998E+02 -0.41160E+04
 0.62553001E+02 -0.39749E+04
 0.62603004E+02 -0.38757E+04
 0.62653000E+02 -0.36311E+04
 0.62703003E+02 -0.35184E+04
 0.62752998E+02 -0.37723E+04
 0.62803001E+02 -0.40456E+04
 0.62853004E+02 -0.41144E+04
 0.62903000E+02 -0.39657E+04
 0.62953003E+02 -0.39425E+04
 0.63002998E+02 -0.40925E+04
 0.63053001E+02 -0.38830E+04
 0.63103004E+02 -0.38168E+04
 0.63153000E+02 -0.42491E+04
 0.63203003E+02 -0.49166E+04
 0.63252998E+02 -0.53576E+04
 0.63303001E+02 -0.51353E+04
 0.63353004E+02 -0.47636E+04
 0.63403000E+02 -0.41512E+04
 0.63453003E+02 -0.39112E+04
 0.63502998E+02 -0.39999E+04
 0.63553001E+02 -0.38730E+04
 0.63603004E+02 -0.39933E+04
 0.63653000E+02 -0.45634E+04
 0.63703003E+02 -0.47809E+04
 0.63752998E+02 -0.45066E+04
 0.63803001E+02 -0.42195E+04
 0.63853004E+02 -0.36199E+04
 0.63903000E+02 -0.36797E+04
 0.63953003E+02 -0.39906E+04
 0.64002998E+02 -0.43205E+04
 0.64053001E+02 -0.46716E+04
 0.64103004E+02 -0.46736E+04
 0.64153000E+02 -0.45625E+04
 0.64203003E+02 -0.43439E+04
 0.64252998E+02 -0.42226E+04
 0.64303001E+02 -0.40468E+04
 0.64353004E+02 -0.38773E+04
 0.64403000E+02 -0.37289E+04
 0.64453003E+02 -0.33803E+04
 0.64502998E+02 -0.32904E+04
 0.64553001E+02 -0.34853E+04
 0.64603004E+02 -0.35545E+04
 0.64653000E+02 -0.34538E+04
 0.64703003E+02 -0.32419E+04
 0.64752998E+02 -0.33216E+04
 0.64803001E+02 -0.35928E+04
 0.64853004E+02 -0.37806E+04
 0.64903000E+02 -0.40261E+04
 0.64953003E+02 -0.41927E+04
 0.65002998E+02 -0.43382E+04
 0.65053001E+02 -0.44362E+04
 0.65103004E+02 -0.44386E+04
 0.65153000E+02 -0.45891E+04
 0.65203003E+02 -0.49152E+04
 0.65252998E+02 -0.51481E+04
 0.65303001E+02 -0.51954E+04
 0.65353004E+02 -0.52166E+04
 0.65403000E+02 -0.53726E+04
 0.65453003E+02 -0.53528E+04
 0.65502998E+02 -0.51906E+04
 0.65553001E+02 -0.51922E+04
 0.65603004E+02 -0.48801E+04
 0.65653000E+02 -0.47397E+04
 0.65703003E+02 -0.46851E+04
 0.65752998E+02 -0.47269E+04
 0.65803001E+02 -0.47325E+04
 0.65853004E+02 -0.44563E+04
 0.65903000E+02 -0.42202E+04
 0.65953003E+02 -0.38746E+04
 0.66002998E+02 -0.40279E+04
 0.66053001E+02 -0.43575E+04
 0.66103004E+02 -0.41624E+04
 0.66153000E+02 -0.36873E+04
 0.66203003E+02 -0.32141E+04
 0.66252998E+02 -0.30119E+04
 0.66303001E+02 -0.32668E+04
 0.66353004E+02 -0.35035E+04
 0.66403000E+02 -0.37770E+04
 0.66453003E+02 -0.36679E+04
 0.66502998E+02 -0.32657E+04
 0.66553001E+02 -0.32477E+04
 0.66603004E+02 -0.33586E+04
 0.66653000E+02 -0.35845E+04
 0.66703003E+02 -0.39716E+04
 0.66752998E+02 -0.43014E+04
 0.66803001E+02 -0.44996E+04
 0.66853004E+02 -0.47731E+04
 0.66903000E+02 -0.49832E+04
 0.66953003E+02 -0.49185E+04
 0.67002998E+02 -0.47418E+04
 0.67053001E+02 -0.47238E+04
 0.67103004E+02 -0.44749E+04
 0.67153000E+02 -0.41317E+04
 0.67203003E+02 -0.38720E+04
 0.67252998E+02 -0.37052E+04
 0.67303001E+02 -0.40220E+04
 0.67353004E+02 -0.44281E+04
 0.67403000E+02 -0.45520E+04
 0.67453003E+02 -0.44984E+04
 0.67502998E+02 -0.44470E+04
 0.67553001E+02 -0.45191E+04
 0.67603004E+02 -0.47572E+04
 0.67653000E+02 -0.49515E+04
 0.67703003E+02 -0.51817E+04
 0.67752998E+02 -0.52977E+04
 0.67803001E+02 -0.49135E+04
 0.67853004E+02 -0.44616E+04
 0.67903000E+02 -0.40710E+04
 0.67953003E+02 -0.40809E+04
 0.68002998E+02 -0.41621E+04
 0.68053001E+02 -0.42324E+04
 0.68103004E+02 -0.43092E+04
 0.68153000E+02 -0.41481E+04
 0.68203003E+02 -0.39122E+04
 0.68252998E+02 -0.36770E+04
 0.68303001E+02 -0.38760E+04
 0.68353004E+02 -0.41500E+04
 0.68403000E+02 -0.43961E+04
 0.68453003E+02 -0.43807E+04
 0.68502998E+02 -0.42713E+04
 0.68553001E+02 -0.44095E+04
 0.68603004E+02 -0.44996E+04
 0.68653000E+02 -0.44486E+04
 0.68703003E+02 -0.41345E+04
 0.68752998E+02 -0.40700E+04
 0.68803001E+02 -0.41482E+04
 0.68853004E+02 -0.41430E+04
 0.68903000E+02 -0.42843E+04
 0.68953003E+02 -0.40271E+04
 0.69002998E+02 -0.36294E+04
 0.69053001E+02 -0.36007E+04
 0.69103004E+02 -0.36132E+04
 0.69153000E+02 -0.37319E+04
 0.69203003E+02 -0.39677E+04
 0.69252998E+02 -0.39861E+04
 0.69303001E+02 -0.38809E+04
 0.69353004E+02 -0.38583E+04
 0.69403000E+02 -0.39631E+04
 0.69453003E+02 -0.39625E+04
 0.69502998E+02 -0.38191E+04
 0.69553001E+02 -0.36449E+04
 0.69603004E+02 -0.38498E+04
 0.69653000E+02 -0.42054E+04
 0.69703003E+02 -0.43826E+04
 0.69752998E+02 -0.44934E+04
 0.69803001E+02 -0.45363E+04
 0.69853004E+02 -0.47472E+04
 0.69903000E+02 -0.47766E+04
 0.69953003E+02 -0.47351E+04
 0.70002998E+02 -0.45749E+04
 0.70053001E+02 -0.43996E+04
 0.70103004E+02 -0.44217E+04
 0.70153000E+02 -0.44210E+04
 0.70203003E+02 -0.44529E+04
 0.70252998E+02 -0.44760E+04
 0.70303001E+02 -0.44990E+04
 0.70353004E+02 -0.45449E+04
 0.70403000E+02 -0.45673E+04
 0.70453003E+02 -0.45533E+04
 0.70502998E+02 -0.45519E+04
 0.70553001E+02 -0.44152E+04
 0.70603004E+02 -0.40719E+04
 0.70653000E+02 -0.38535E+04
 0.70703003E+02 -0.39593E+04
 0.70752998E+02 -0.40620E+04
 0.70803001E+02 -0.40457E+04
 0.70853004E+02 -0.39898E+04
 0.70903000E+02 -0.37563E+04
 0.70953003E+02 -0.35219E+04
 0.71002998E+02 -0.33938E+04
 0.71053001E+02 -0.34038E+04
 0.71103004E+02 -0.36228E+04
 0.71153000E+02 -0.39782E+04
 0.71203003E+02 -0.40551E+04
 0.71252998E+02 -0.40375E+04
 0.71303001E+02 -0.39713E+04
 0.71353004E+02 -0.39483E+04
 0.71403000E+02 -0.42771E+04
 0.71453003E+02 -0.46404E+04
 0.71502998E+02 -0.49327E+04
 0.71553001E+02 -0.49787E+04
 0.71603004E+02 -0.48573E+04
 0.71653000E+02 -0.46896E+04
 0.71703003E+02 -0.44082E+04
 0.71752998E+02 -0.43516E+04
 0.71803001E+02 -0.44993E+04
 0.71853004E+02 -0.45824E+04
 0.71903000E+02 -0.45658E+04
 0.71953003E+02 -0.44968E+04
 0.72002998E+02 -0.44219E+04
 0.72053001E+02 -0.43933E+04
 0.72103004E+02 -0.46148E+04
 0.72153000E+02 -0.45830E+04
 0.72203003E+02 -0.44927E+04
 0.72252998E+02 -0.46485E+04
 0.72303001E+02 -0.45748E+04
 0.72353004E+02 -0.43424E+04
 0.72403000E+02 -0.38634E+04
 0.72453003E+02 -0.34280E+04
 0.72502998E+02 -0.33768E+04
 0.72553001E+02 -0.36613E+04
 0.72603004E+02 -0.42324E+04
 0.72653000E+02 -0.46228E+04
 0.72703003E+02 -0.47747E+04
 0.72752998E+02 -0.46175E+04
 0.72803001E+02 -0.43215E+04
 0.72853004E+02 -0.41224E+04
 0.72903000E+02 -0.39519E+04
 0.72953003E+02 -0.38253E+04
 0.73002998E+02 -0.39071E+04
 0.73053001E+02 -0.40244E+04
 0.73103004E+02 -0.39318E+04
 0.73153000E+02 -0.39329E+04
 0.73203003E+02 -0.40264E+04
 0.73252998E+02 -0.40916E+04
 0.73303001E+02 -0.40743E+04
 0.73353004E+02 -0.39658E+04
 0.73403000E+02 -0.38049E+04
 0.73453003E+02 -0.37086E+04
 0.73502998E+02 -0.38084E+04
 0.73553001E+02 -0.39940E+04
 0.73603004E+02 -0.40702E+04
 0.73653000E+02 -0.40333E+04
 0.73703003E+02 -0.39341E+04
 0.73752998E+02 -0.38892E+04
 0.73803001E+02 -0.39230E+04
 0.73853004E+02 -0.40921E+04
 0.73903000E+02 -0.43426E+04
 0.73953003E+02 -0.45194E+04
 0.74002998E+02 -0.46244E+04
 0.74053001E+02 -0.47834E+04
 0.74103004E+02 -0.48308E+04
 0.74153000E+02 -0.47099E+04
 0.74203003E+02 -0.46260E+04
 0.74252998E+02 -0.45083E+04
 0.74303001E+02 -0.44380E+04
 0.74353004E+02 -0.42976E+04
 0.74403000E+02 -0.42963E+04
 0.74453003E+02 -0.44843E+04
 0.74502998E+02 -0.46607E+04
 0.74553001E+02 -0.48024E+04
 0.74603004E+02 -0.45708E+04
 0.74653000E+02 -0.42833E+04
 0.74703003E+02 -0.42348E+04
 0.74752998E+02 -0.41514E+04
 0.74803001E+02 -0.40006E+04
 0.74853004E+02 -0.38597E+04
 0.74903000E+02 -0.37388E+04
 0.74953003E+02 -0.37997E+04
 0.75002998E+02 -0.39585E+04
 0.75053001E+02 -0.39988E+04
 0.75103004E+02 -0.38755E+04
 0.75153000E+02 -0.37456E+04
 0.75203003E+02 -0.38196E+04
 0.75252998E+02 -0.40499E+04
 0.75303001E+02 -0.41244E+04
 0.75353004E+02 -0.40365E+04
 0.75403000E+02 -0.40362E+04
 0.75453003E+02 -0.40535E+04
 0.75502998E+02 -0.41354E+04
 0.75553001E+02 -0.43081E+04
 0.75603004E+02 -0.44502E+04
 0.75653000E+02 -0.44726E+04
 0.75703003E+02 -0.46089E+04
 0.75752998E+02 -0.46193E+04
 0.75803001E+02 -0.44651E+04
 0.75853004E+02 -0.43815E+04
 0.75903000E+02 -0.44360E+04
 0.75953003E+02 -0.45030E+04
 0.76002998E+02 -0.45725E+04
 0.76053001E+02 -0.47153E+04
 0.76103004E+02 -0.47636E+04
 0.76153000E+02 -0.47847E+04
 0.76203003E+02 -0.45257E+04
 0.76252998E+02 -0.43337E+04
 0.76303001E+02 -0.42505E+04
 0.76353004E+02 -0.41233E+04
 0.76403000E+02 -0.39216E+04
 0.76453003E+02 -0.36688E+04
 0.76502998E+02 -0.36449E+04
 0.76553001E+02 -0.38297E+04
 0.76603004E+02 -0.41851E+04
 0.76653000E+02 -0.44719E+04
 0.76703003E+02 -0.46595E+04
 0.76752998E+02 -0.47972E+04
 0.76803001E+02 -0.47288E+04
 0.76853004E+02 -0.45171E+04
 0.76903000E+02 -0.43365E+04
 0.76953003E+02 -0.43081E+04
 0.77002998E+02 -0.43358E+04
 0.77053001E+02 -0.43304E+04
 0.77103004E+02 -0.43577E+04
 0.77153000E+02 -0.43569E+04
 0.77203003E+02 -0.43554E+04
 0.77252998E+02 -0.43065E+04
 0.77303001E+02 -0.42770E+04
 0.77353004E+02 -0.42333E+04
 0.77403000E+02 -0.40316E+04
 0.77453003E+02 -0.38204E+04
 0.77502998E+02 -0.36688E+04
 0.77553001E+02 -0.36952E+04
 0.77603004E+02 -0.38505E+04
 0.77653000E+02 -0.40770E+04
 0.77703003E+02 -0.42644E+04
 0.77752998E+02 -0.42921E+04
 0.77803001E+02 -0.41622E+04
 0.77853004E+02 -0.40248E+04
 0.77903000E+02 -0.40581E+04
 0.77953003E+02 -0.40717E+04
 0.78002998E+02 -0.41109E+04
 0.78053001E+02 -0.40173E+04
 0.78103004E+02 -0.38252E+04
 0.78153000E+02 -0.37189E+04
 0.78203003E+02 -0.37405E+04
 0.78252998E+02 -0.37885E+04
 0.78303001E+02 -0.38158E+04
 0.78353004E+02 -0.39911E+04
 0.78403000E+02 -0.41295E+04
 0.78453003E+02 -0.41778E+04
 0.78502998E+02 -0.40953E+04
 0.78553001E+02 -0.39520E+04
 0.78603004E+02 -0.38706E+04
 0.78653000E+02 -0.39116E+04
 0.78703003E+02 -0.41788E+04
 0.78752998E+02 -0.44996E+04
 0.78803001E+02 -0.46630E+04
 0.78853004E+02 -0.45897E+04
 0.78903000E+02 -0.44288E+04
 0.78953003E+02 -0.43487E+04
 0.79002998E+02 -0.43696E+04
 0.79053001E+02 -0.43800E+04
 0.79103004E+02 -0.44740E+04
 0.79153000E+02 -0.45760E+04
 0.79203003E+02 -0.46165E+04
 0.79252998E+02 -0.47755E+04
 0.79303001E+02 -0.49018E+04
 0.79353004E+02 -0.48291E+04
 0.79403000E+02 -0.46502E+04
 0.79453003E+02 -0.45902E+04
 0.79502998E+02 -0.45534E+04
 0.79553001E+02 -0.45354E+04
 0.79603004E+02 -0.45471E+04
 0.79653000E+02 -0.44028E+04
 0.79703003E+02 -0.41901E+04
 0.79752998E+02 -0.39344E+04
 0.79803001E+02 -0.36158E+04
 0.79853004E+02 -0.36159E+04
 0.79903000E+02 -0.37926E+04
 0.79953003E+02 -0.40217E+04
 0.80002998E+02 -0.41597E+04
 0.80053001E+02 -0.40477E+04
 0.80103004E+02 -0.40375E+04
 0.80153000E+02 -0.40369E+04
 0.80203003E+02 -0.41037E+04
 0.80252998E+02 -0.41347E+04
 0.80303001E+02 -0.41440E+04
 0.80353004E+02 -0.41960E+04
 0.80403000E+02 -0.42150E+04
 0.80453003E+02 -0.41952E+04
 0.80502998E+02 -0.41430E+04
 0.80553001E+02 -0.41779E+04
 0.80603004E+02 -0.43016E+04
 0.80653000E+02 -0.44690E+04
 0.80703003E+02 -0.44857E+04
 0.80752998E+02 -0.44559E+04
 0.80803001E+02 -0.44033E+04
 0.80853004E+02 -0.42501E+04
 0.80903000E+02 -0.41198E+04
 0.80953003E+02 -0.40359E+04
 0.81002998E+02 -0.40230E+04
 0.81053001E+02 -0.39869E+04
 0.81103004E+02 -0.38958E+04
 0.81153000E+02 -0.38181E+04
 0.81203003E+02 -0.37561E+04
 0.81252998E+02 -0.39609E+04
 0.81303001E+02 -0.42069E+04
 0.81353004E+02 -0.42433E+04
 0.81403000E+02 -0.42231E+04
 0.81453003E+02 -0.40323E+04
 0.81502998E+02 -0.39233E+04
 0.81553001E+02 -0.39884E+04
 0.81603004E+02 -0.41646E+04
 0.81653000E+02 -0.43505E+04
 0.81703003E+02 -0.44234E+04
 0.81752998E+02 -0.45263E+04
 0.81803001E+02 -0.45630E+04
 0.81853004E+02 -0.46071E+04
 0.81903000E+02 -0.46421E+04
 0.81953003E+02 -0.46133E+04
 0.82002998E+02 -0.45935E+04
 0.82053001E+02 -0.45724E+04
 0.82103004E+02 -0.44997E+04
 0.82153000E+02 -0.43431E+04
 0.82203003E+02 -0.41997E+04
 0.82252998E+02 -0.42458E+04
 0.82303001E+02 -0.44460E+04
 0.82353004E+02 -0.46517E+04
 0.82403000E+02 -0.47545E+04
 0.82453003E+02 -0.47379E+04
 0.82502998E+02 -0.47111E+04
 0.82553001E+02 -0.46926E+04
 0.82603004E+02 -0.44991E+04
 0.82653000E+02 -0.42805E+04
 0.82703003E+02 -0.41929E+04
 0.82752998E+02 -0.40585E+04
 0.82803001E+02 -0.39162E+04
 0.82853004E+02 -0.37089E+04
 0.82903000E+02 -0.36497E+04
 0.82953003E+02 -0.38143E+04
 0.83002998E+02 -0.39447E+04
 0.83053001E+02 -0.40637E+04
 0.83103004E+02 -0.41590E+04
 0.83153000E+02 -0.41869E+04
 0.83203003E+02 -0.42343E+04
 0.83252998E+02 -0.42856E+04
 0.83303001E+02 -0.43091E+04
 0.83353004E+02 -0.43388E+04
 0.83403000E+02 -0.42678E+04
 0.83453003E+02 -0.41495E+04
 0.83502998E+02 -0.40926E+04
 0.83553001E+02 -0.40672E+04
 0.83603004E+02 -0.40039E+04
 0.83653000E+02 -0.39143E+04
 0.83703003E+02 -0.39283E+04
 0.83752998E+02 -0.40110E+04
 0.83803001E+02 -0.41660E+04
 0.83853004E+02 -0.42273E+04
 0.83903000E+02 -0.41541E+04
 0.83953003E+02 -0.40657E+04
 0.84002998E+02 -0.39037E+04
 0.84053001E+02 -0.37706E+04
 0.84103004E+02 -0.38279E+04
 0.84153000E+02 -0.39230E+04
 0.84203003E+02 -0.40589E+04
 0.84252998E+02 -0.42050E+04
 0.84303001E+02 -0.43528E+04
 0.84353004E+02 -0.45262E+04
 0.84403000E+02 -0.45649E+04
 0.84453003E+02 -0.46070E+04
 0.84502998E+02 -0.45699E+04
 0.84553001E+02 -0.44509E+04
 0.84603004E+02 -0.42122E+04
 0.84653000E+02 -0.40437E+04
 0.84703003E+02 -0.40709E+04
 0.84752998E+02 -0.41409E+04
 0.84803001E+02 -0.41982E+04
 0.84853004E+02 -0.41423E+04
 0.84903000E+02 -0.40850E+04
 0.84953003E+02 -0.39762E+04
 0.85002998E+02 -0.39250E+04
 0.85053001E+02 -0.40232E+04
 0.85103004E+02 -0.41298E+04
 0.85153000E+02 -0.42481E+04
 0.85203003E+02 -0.43260E+04
 0.85252998E+02 -0.43811E+04
 0.85303001E+02 -0.44127E+04
 0.85353004E+02 -0.44082E+04
 0.85403000E+02 -0.44603E+04
 0.85453003E+02 -0.44930E+04
 0.85502998E+02 -0.45560E+04
 0.85553001E+02 -0.45038E+04
 0.85603004E+02 -0.43590E+04
 0.85653000E+02 -0.43563E+04
 0.85703003E+02 -0.43876E+04
 0.85752998E+02 -0.44029E+04
 0.85803001E+02 -0.42911E+04
 0.85853004E+02 -0.40579E+04
 0.85903000E+02 -0.37961E+04
 0.85953003E+02 -0.36182E+04
 0.86002998E+02 -0.36412E+04
 0.86053001E+02 -0.38127E+04
 0.86103004E+02 -0.40460E+04
 0.86153000E+02 -0.42661E+04
 0.86203003E+02 -0.43549E+04
 0.86252998E+02 -0.43002E+04
 0.86303001E+02 -0.42484E+04
 0.86353004E+02 -0.42452E+04
 0.86403000E+02 -0.42149E+04
 0.86453003E+02 -0.41604E+04
 0.86502998E+02 -0.41569E+04
 0.86553001E+02 -0.42041E+04
 0.86603004E+02 -0.42039E+04
 0.86653000E+02 -0.43411E+04
 0.86703003E+02 -0.46252E+04
 0.86752998E+02 -0.47539E+04
 0.86803001E+02 -0.47752E+04
 0.86853004E+02 -0.46842E+04
 0.86903000E+02 -0.45225E+04
 0.86953003E+02 -0.44087E+04
 0.87002998E+02 -0.43063E+04
 0.87053001E+02 -0.41520E+04
 0.87103004E+02 -0.40574E+04
 0.87153000E+02 -0.40558E+04
 0.87203003E+02 -0.40523E+04
 0.87252998E+02 -0.41161E+04
 0.87303001E+02 -0.41990E+04
 0.87353004E+02 -0.42880E+04
 0.87403000E+02 -0.44755E+04
 0.87453003E+02 -0.45712E+04
 0.87502998E+02 -0.45808E+04
 0.87553001E+02 -0.45842E+04
 0.87602997E+02 -0.45465E+04
 0.87653000E+02 -0.45314E+04
 0.87703003E+02 -0.44159E+04
 0.87752998E+02 -0.42904E+04
 0.87803001E+02 -0.41221E+04
 0.87852997E+02 -0.39913E+04
 0.87903000E+02 -0.39161E+04
 0.87953003E+02 -0.38748E+04
 0.88002998E+02 -0.39945E+04
 0.88053001E+02 -0.40949E+04
 0.88102997E+02 -0.41681E+04
 0.88153000E+02 -0.42013E+04
 0.88203003E+02 -0.41723E+04
 0.88252998E+02 -0.41932E+04
 0.88303001E+02 -0.41596E+04
 0.88352997E+02 -0.40954E+04
 0.88403000E+02 -0.41118E+04
 0.88453003E+02 -0.40822E+04
 0.88502998E+02 -0.40451E+04
 0.88553001E+02 -0.40152E+04
 0.88602997E+02 -0.40839E+04
 0.88653000E+02 -0.41917E+04
 0.88703003E+02 -0.42127E+04
 0.88752998E+02 -0.41034E+04
 0.88803001E+02 -0.40157E+04
 0.88852997E+02 -0.41002E+04
 0.88903000E+02 -0.41249E+04
 0.88953003E+02 -0.40638E+04
 0.89002998E+02 -0.40281E+04
 0.89053001E+02 -0.40722E+04
 0.89102997E+02 -0.40467E+04
 0.89153000E+02 -0.40036E+04
 0.89203003E+02 -0.39635E+04
 0.89252998E+02 -0.37883E+04
 0.89303001E+02 -0.36790E+04
 0.89352997E+02 -0.36697E+04
 0.89403000E+02 -0.37344E+04
 0.89453003E+02 -0.39050E+04
 0.89502998E+02 -0.41621E+04
 0.89553001E+02 -0.43991E+04
 0.89602997E+02 -0.45097E+04
 0.89653000E+02 -0.44100E+04
 0.89703003E+02 -0.42339E+04
 0.89752998E+02 -0.42122E+04
 0.89803001E+02 -0.42853E+04
 0.89852997E+02 -0.44732E+04
 0.89903000E+02 -0.46186E+04
 0.89953003E+02 -0.46705E+04
 0.90002998E+02 -0.46786E+04
 0.90053001E+02 -0.46051E+04
 0.90102997E+02 -0.44728E+04
 0.90153000E+02 -0.43965E+04
 0.90203003E+02 -0.44040E+04
 0.90252998E+02 -0.44885E+04
 0.90303001E+02 -0.46672E+04
 0.90352997E+02 -0.47401E+04
 0.90403000E+02 -0.46880E+04
 0.90453003E+02 -0.45257E+04
 0.90502998E+02 -0.44163E+04
 0.90553001E+02 -0.43706E+04
 0.90602997E+02 -0.42731E+04
 0.90653000E+02 -0.41863E+04
 0.90703003E+02 -0.40379E+04
 0.90752998E+02 -0.39072E+04
 0.90803001E+02 -0.38762E+04
 0.90852997E+02 -0.39160E+04
 0.90903000E+02 -0.39381E+04
 0.90953003E+02 -0.39368E+04
 0.91002998E+02 -0.39654E+04
 0.91053001E+02 -0.40550E+04
 0.91102997E+02 -0.42190E+04
 0.91153000E+02 -0.43886E+04
 0.91203003E+02 -0.45428E+04
 0.91252998E+02 -0.46080E+04
 0.91303001E+02 -0.45560E+04
 0.91352997E+02 -0.44541E+04
 0.91403000E+02 -0.43414E+04
 0.91453003E+02 -0.42536E+04
 0.91502998E+02 -0.41891E+04
 0.91553001E+02 -0.41603E+04
 0.91602997E+02 -0.42042E+04
 0.91653000E+02 -0.42463E+04
 0.91703003E+02 -0.43098E+04
 0.91752998E+02 -0.43342E+04
 0.91803001E+02 -0.43793E+04
 0.91852997E+02 -0.43627E+04
 0.91903000E+02 -0.42706E+04
 0.91953003E+02 -0.42225E+04
 0.92002998E+02 -0.41562E+04
 0.92053001E+02 -0.41612E+04
 0.92102997E+02 -0.41259E+04
 0.92153000E+02 -0.41065E+04
 0.92203003E+02 -0.41081E+04
 0.92252998E+02 -0.41028E+04
 0.92303001E+02 -0.41598E+04
 0.92352997E+02 -0.41545E+04
 0.92403000E+02 -0.41396E+04
 0.92453003E+02 -0.41796E+04
 0.92502998E+02 -0.41251E+04
 0.92553001E+02 -0.40578E+04
 0.92602997E+02 -0.40194E+04
 0.92653000E+02 -0.40387E+04
 0.92703003E+02 -0.40573E+04
 0.92752998E+02 -0.40112E+04
 0.92803001E+02 -0.40316E+04
 0.92852997E+02 -0.41008E+04
 0.92903000E+02 -0.42139E+04
 0.92953003E+02 -0.43140E+04
 0.93002998E+02 -0.43434E+04
 0.93053001E+02 -0.43155E+04
 0.93102997E+02 -0.42314E+04
 0.93153000E+02 -0.41320E+04
 0.93203003E+02 -0.40390E+04
 0.93252998E+02 -0.40340E+04
 0.93303001E+02 -0.40836E+04
 0.93352997E+02 -0.40880E+04
 0.93403000E+02 -0.41137E+04
 0.93453003E+02 -0.41603E+04
 0.93502998E+02 -0.42540E+04
 0.93553001E+02 -0.43571E+04
 0.93602997E+02 -0.44143E+04
 0.93653000E+02 -0.44944E+04
 0.93703003E+02 -0.45485E+04
 0.93752998E+02 -0.45850E+04
 0.93803001E+02 -0.46130E+04
 0.93852997E+02 -0.45517E+04
 0.93903000E+02 -0.44540E+04
 0.93953003E+02 -0.43242E+04
 0.94002998E+02 -0.41556E+04
 0.94053001E+02 -0.40769E+04
 0.94102997E+02 -0.41712E+04
 0.94153000E+02 -0.42616E+04
 0.94203003E+02 -0.43498E+04
 0.94252998E+02 -0.43811E+04
 0.94303001E+02 -0.43686E+04
 0.94352997E+02 -0.42682E+04
 0.94403000E+02 -0.40527E+04
 0.94453003E+02 -0.39619E+04
 0.94502998E+02 -0.39906E+04
 0.94553001E+02 -0.40545E+04
 0.94602997E+02 -0.40932E+04
 0.94653000E+02 -0.41389E+04
 0.94703003E+02 -0.41978E+04
 0.94752998E+02 -0.42595E+04
 0.94803001E+02 -0.42449E+04
 0.94852997E+02 -0.42154E+04
 0.94903000E+02 -0.42388E+04
 0.94953003E+02 -0.42798E+04
 0.95002998E+02 -0.43436E+04
 0.95053001E+02 -0.43180E+04
 0.95102997E+02 -0.41841E+04
 0.95153000E+02 -0.40540E+04
 0.95203003E+02 -0.40406E+04
 0.95252998E+02 -0.41042E+04
 0.95303001E+02 -0.41265E+04
 0.95352997E+02 -0.41393E+04
 0.95403000E+02 -0.41572E+04
 0.95453003E+02 -0.41800E+04
 0.95502998E+02 -0.42060E+04
 0.95553001E+02 -0.42443E+04
 0.95602997E+02 -0.42841E+04
 0.95653000E+02 -0.42911E+04
 0.95703003E+02 -0.42733E+04
 0.95752998E+02 -0.42998E+04
 0.95803001E+02 -0.43436E+04
 0.95852997E+02 -0.43315E+04
 0.95903000E+02 -0.43443E+04
 0.95953003E+02 -0.43865E+04
 0.96002998E+02 -0.44593E+04
 0.96053001E+02 -0.44878E+04
 0.96102997E+02 -0.44571E+04
 0.96153000E+02 -0.43758E+04
 0.96203003E+02 -0.42383E+04
 0.96252998E+02 -0.41603E+04
 0.96303001E+02 -0.42114E+04
 0.96352997E+02 -0.43364E+04
 0.96403000E+02 -0.43640E+04
 0.96453003E+02 -0.42628E+04
 0.96502998E+02 -0.40958E+04
 0.96553001E+02 -0.39803E+04
 0.96602997E+02 -0.40342E+04
 0.96653000E+02 -0.41688E+04
 0.96703003E+02 -0.42328E+04
 0.96752998E+02 -0.41875E+04
 0.96803001E+02 -0.41076E+04
 0.96852997E+02 -0.39896E+04
 0.96903000E+02 -0.38868E+04
 0.96953003E+02 -0.38708E+04
 0.97002998E+02 -0.38817E+04
 0.97053001E+02 -0.38856E+04
 0.97102997E+02 -0.38503E+04
 0.97153000E+02 -0.38407E+04
 0.97203003E+02 -0.38055E+04
 0.97252998E+02 -0.37694E+04
 0.97303001E+02 -0.38303E+04
 0.97352997E+02 -0.39429E+04
 0.97403000E+02 -0.40750E+04
 0.97453003E+02 -0.41998E+04
 0.97502998E+02 -0.42599E+04
 0.97553001E+02 -0.42832E+04
 0.97602997E+02 -0.43760E+04
 0.97653000E+02 -0.44542E+04
 0.97703003E+02 -0.44442E+04
 0.97752998E+02 -0.44118E+04
 0.97803001E+02 -0.43274E+04
 0.97852997E+02 -0.42841E+04
 0.97903000E+02 -0.42813E+04
 0.97953003E+02 -0.43499E+04
 0.98002998E+02 -0.44842E+04
