-0.20000000E+01 -0.57697E+04
-0.19500000E+01 -0.74492E+04
-0.19000000E+01 -0.88002E+04
-0.18500000E+01 -0.99939E+04
-0.18000000E+01 -0.11008E+05
-0.17500000E+01 -0.11932E+05
-0.17000000E+01 -0.12798E+05
-0.16500001E+01 -0.13573E+05
-0.16000000E+01 -0.14224E+05
-0.15500000E+01 -0.14695E+05
-0.15000000E+01 -0.14877E+05
-0.14500000E+01 -0.14757E+05
-0.14000001E+01 -0.14378E+05
-0.13500000E+01 -0.13745E+05
-0.13000001E+01 -0.12907E+05
-0.12500000E+01 -0.11863E+05
-0.12000000E+01 -0.10699E+05
-0.11500001E+01 -0.95772E+04
-0.11000000E+01 -0.84762E+04
-0.10500001E+01 -0.72069E+04
-0.10000000E+01 -0.55815E+04
-0.95000005E+00 -0.35988E+04
-0.90000010E+00 -0.13775E+04
-0.85000002E+00  0.91198E+03
-0.80000007E+00  0.31877E+04
-0.75000012E+00  0.54426E+04
-0.70000005E+00  0.76828E+04
-0.65000010E+00  0.98693E+04
-0.60000014E+00  0.11873E+05
-0.55000007E+00  0.13502E+05
-0.50000012E+00  0.14656E+05
-0.45000005E+00  0.15354E+05
-0.40000010E+00  0.15614E+05
-0.35000014E+00  0.15459E+05
-0.30000007E+00  0.14763E+05
-0.25000012E+00  0.13489E+05
-0.20000005E+00  0.11731E+05
-0.15000010E+00  0.97053E+04
-0.10000014E+00  0.75510E+04
-0.50000072E-01  0.53956E+04
-0.11920929E-06  0.32217E+04
 0.49999952E-01  0.10402E+04
 0.99999905E-01 -0.10259E+04
 0.14999986E+00 -0.28686E+04
 0.19999981E+00 -0.43651E+04
 0.24999976E+00 -0.55044E+04
 0.29999995E+00 -0.62537E+04
 0.34999990E+00 -0.66817E+04
 0.39999986E+00 -0.68838E+04
 0.44999981E+00 -0.69971E+04
 0.49999976E+00 -0.70504E+04
 0.54999995E+00 -0.70392E+04
 0.59999990E+00 -0.69243E+04
 0.64999986E+00 -0.67282E+04
 0.69999981E+00 -0.65691E+04
 0.74999976E+00 -0.64644E+04
 0.79999971E+00 -0.63910E+04
 0.84999990E+00 -0.63730E+04
 0.89999986E+00 -0.64988E+04
 0.94999981E+00 -0.67750E+04
 0.99999976E+00 -0.71416E+04
 0.10499997E+01 -0.75391E+04
 0.10999999E+01 -0.78732E+04
 0.11499999E+01 -0.81246E+04
 0.11999998E+01 -0.82406E+04
 0.12499998E+01 -0.82019E+04
 0.12999997E+01 -0.80286E+04
 0.13499999E+01 -0.77000E+04
 0.13999999E+01 -0.72307E+04
 0.14499998E+01 -0.66384E+04
 0.14999998E+01 -0.59913E+04
 0.15499997E+01 -0.52452E+04
 0.15999999E+01 -0.43501E+04
 0.16499999E+01 -0.33373E+04
 0.16999998E+01 -0.21825E+04
 0.17499998E+01 -0.81748E+03
 0.17999997E+01  0.76088E+03
 0.18499997E+01  0.23986E+04
 0.18999999E+01  0.39603E+04
 0.19499998E+01  0.54297E+04
 0.19999998E+01  0.67271E+04
 0.20499997E+01  0.77830E+04
 0.20999999E+01  0.86549E+04
 0.21499996E+01  0.93478E+04
 0.21999998E+01  0.99105E+04
 0.22499995E+01  0.10411E+05
 0.22999997E+01  0.10793E+05
 0.23499999E+01  0.11061E+05
 0.23999996E+01  0.11244E+05
 0.24499998E+01  0.11385E+05
 0.24999995E+01  0.11532E+05
 0.25499997E+01  0.11693E+05
 0.25999999E+01  0.11864E+05
 0.26499996E+01  0.12081E+05
 0.26999998E+01  0.12353E+05
 0.27499995E+01  0.12548E+05
 0.27999997E+01  0.12596E+05
 0.28499999E+01  0.12444E+05
 0.28999996E+01  0.12052E+05
 0.29499998E+01  0.11440E+05
 0.29999995E+01  0.10665E+05
 0.30499997E+01  0.97710E+04
 0.30999999E+01  0.87033E+04
 0.31499996E+01  0.74743E+04
 0.31999998E+01  0.60913E+04
 0.32499995E+01  0.46466E+04
 0.32999997E+01  0.32079E+04
 0.33499999E+01  0.18375E+04
 0.33999996E+01  0.50217E+03
 0.34499998E+01 -0.85142E+03
 0.34999995E+01 -0.22495E+04
 0.35499997E+01 -0.37346E+04
 0.35999994E+01 -0.51890E+04
 0.36499996E+01 -0.66611E+04
 0.36999998E+01 -0.81351E+04
 0.37499995E+01 -0.95232E+04
 0.37999997E+01 -0.10741E+05
 0.38499994E+01 -0.11724E+05
 0.38999996E+01 -0.12449E+05
 0.39499998E+01 -0.12959E+05
 0.39999995E+01 -0.13379E+05
 0.40499997E+01 -0.13566E+05
 0.40999994E+01 -0.13391E+05
 0.41499996E+01 -0.12810E+05
 0.41999998E+01 -0.11833E+05
 0.42499995E+01 -0.10464E+05
 0.42999997E+01 -0.86974E+04
 0.43499994E+01 -0.67034E+04
 0.43999996E+01 -0.46382E+04
 0.44499998E+01 -0.26631E+04
 0.44999995E+01 -0.86960E+03
 0.45499997E+01  0.67335E+03
 0.45999994E+01  0.18948E+04
 0.46499996E+01  0.28491E+04
 0.46999998E+01  0.34823E+04
 0.47499995E+01  0.37134E+04
 0.47999997E+01  0.34592E+04
 0.48499994E+01  0.27332E+04
 0.48999996E+01  0.16877E+04
 0.49499998E+01  0.42636E+03
 0.49999995E+01 -0.96508E+03
 0.50499997E+01 -0.23948E+04
 0.50999994E+01 -0.37552E+04
 0.51499996E+01 -0.50089E+04
 0.51999998E+01 -0.61318E+04
 0.52499995E+01 -0.71007E+04
 0.52999997E+01 -0.78942E+04
 0.53499994E+01 -0.84675E+04
 0.53999996E+01 -0.88227E+04
 0.54499993E+01 -0.90191E+04
 0.54999995E+01 -0.90137E+04
 0.55499997E+01 -0.87964E+04
 0.55999994E+01 -0.84684E+04
 0.56499996E+01 -0.80625E+04
 0.56999993E+01 -0.75703E+04
 0.57499995E+01 -0.70102E+04
 0.57999997E+01 -0.63767E+04
 0.58499994E+01 -0.56593E+04
 0.58999996E+01 -0.47979E+04
 0.59499993E+01 -0.38980E+04
 0.59999995E+01 -0.31826E+04
 0.60499992E+01 -0.27324E+04
 0.60999994E+01 -0.25206E+04
 0.61499996E+01 -0.24289E+04
 0.61999998E+01 -0.24051E+04
 0.62499990E+01 -0.24383E+04
 0.62999992E+01 -0.26241E+04
 0.63499994E+01 -0.30091E+04
 0.63999996E+01 -0.35248E+04
 0.64499998E+01 -0.39661E+04
 0.64999990E+01 -0.40720E+04
 0.65499992E+01 -0.37467E+04
 0.65999994E+01 -0.30980E+04
 0.66499996E+01 -0.23241E+04
 0.66999998E+01 -0.14882E+04
 0.67499990E+01 -0.59631E+03
 0.67999992E+01  0.27693E+03
 0.68499994E+01  0.10374E+04
 0.68999996E+01  0.17164E+04
 0.69499998E+01  0.22939E+04
 0.69999990E+01  0.26575E+04
 0.70499992E+01  0.27477E+04
 0.70999994E+01  0.26169E+04
 0.71499996E+01  0.23651E+04
 0.71999998E+01  0.20126E+04
 0.72499990E+01  0.16360E+04
 0.72999992E+01  0.13475E+04
 0.73499994E+01  0.11306E+04
 0.73999996E+01  0.96313E+03
 0.74499998E+01  0.82549E+03
 0.74999990E+01  0.77282E+03
 0.75499992E+01  0.79010E+03
 0.75999994E+01  0.83385E+03
 0.76499996E+01  0.97196E+03
 0.76999998E+01  0.10921E+04
 0.77499990E+01  0.10962E+04
 0.77999992E+01  0.92266E+03
 0.78499994E+01  0.66723E+03
 0.78999996E+01  0.47709E+03
 0.79499998E+01  0.40461E+03
 0.79999990E+01  0.36034E+03
 0.80499992E+01  0.21925E+03
 0.80999994E+01  0.71563E+02
 0.81499996E+01 -0.81523E+02
 0.81999998E+01 -0.25091E+03
 0.82499990E+01 -0.33901E+03
 0.82999992E+01 -0.25486E+03
 0.83499994E+01  0.11533E+02
 0.83999996E+01  0.37081E+03
 0.84499998E+01  0.63184E+03
 0.84999990E+01  0.76254E+03
 0.85499992E+01  0.76253E+03
 0.85999994E+01  0.62154E+03
 0.86499996E+01  0.34319E+03
 0.86999998E+01 -0.58009E+02
 0.87499990E+01 -0.41119E+03
 0.87999992E+01 -0.64710E+03
 0.88499994E+01 -0.80212E+03
 0.88999996E+01 -0.93163E+03
 0.89499998E+01 -0.11080E+04
 0.89999990E+01 -0.13266E+04
 0.90499992E+01 -0.15203E+04
 0.90999994E+01 -0.16190E+04
 0.91499996E+01 -0.16255E+04
 0.91999989E+01 -0.15697E+04
 0.92499990E+01 -0.15077E+04
 0.92999992E+01 -0.15197E+04
 0.93499994E+01 -0.15623E+04
 0.93999996E+01 -0.15809E+04
 0.94499989E+01 -0.14841E+04
 0.94999990E+01 -0.13649E+04
 0.95499992E+01 -0.13468E+04
 0.95999994E+01 -0.14650E+04
 0.96499996E+01 -0.17162E+04
 0.96999989E+01 -0.21275E+04
 0.97499990E+01 -0.27159E+04
 0.97999992E+01 -0.34268E+04
 0.98499994E+01 -0.42355E+04
 0.98999996E+01 -0.50169E+04
 0.99499989E+01 -0.57570E+04
 0.99999990E+01 -0.64064E+04
 0.10049999E+02 -0.69351E+04
 0.10099999E+02 -0.72893E+04
 0.10150000E+02 -0.74461E+04
 0.10199999E+02 -0.73285E+04
 0.10249999E+02 -0.68814E+04
 0.10299999E+02 -0.62575E+04
 0.10349999E+02 -0.55899E+04
 0.10400000E+02 -0.49965E+04
 0.10449999E+02 -0.43624E+04
 0.10499999E+02 -0.36927E+04
 0.10549999E+02 -0.30152E+04
 0.10599999E+02 -0.23079E+04
 0.10650000E+02 -0.15272E+04
 0.10699999E+02 -0.58705E+03
 0.10749999E+02  0.32431E+03
 0.10799999E+02  0.11559E+04
 0.10849999E+02  0.18706E+04
 0.10900000E+02  0.24245E+04
 0.10949999E+02  0.29554E+04
 0.10999999E+02  0.34906E+04
 0.11049999E+02  0.40594E+04
 0.11099999E+02  0.45931E+04
 0.11150000E+02  0.49892E+04
 0.11199999E+02  0.53352E+04
 0.11249999E+02  0.56953E+04
 0.11299999E+02  0.60092E+04
 0.11349999E+02  0.61939E+04
 0.11400000E+02  0.62708E+04
 0.11449999E+02  0.63624E+04
 0.11499999E+02  0.65146E+04
 0.11549999E+02  0.67026E+04
 0.11599999E+02  0.69492E+04
 0.11650000E+02  0.71944E+04
 0.11699999E+02  0.74034E+04
 0.11749999E+02  0.75299E+04
 0.11799999E+02  0.75963E+04
 0.11849999E+02  0.76426E+04
 0.11900000E+02  0.76145E+04
 0.11949999E+02  0.74705E+04
 0.11999999E+02  0.72173E+04
 0.12049999E+02  0.69600E+04
 0.12099999E+02  0.66297E+04
 0.12150000E+02  0.61763E+04
 0.12199999E+02  0.56281E+04
 0.12249999E+02  0.50179E+04
 0.12299999E+02  0.43357E+04
 0.12349999E+02  0.36049E+04
 0.12400000E+02  0.30259E+04
 0.12449999E+02  0.26737E+04
 0.12499999E+02  0.25388E+04
 0.12549999E+02  0.26101E+04
 0.12599999E+02  0.28690E+04
 0.12649999E+02  0.32917E+04
 0.12699999E+02  0.38485E+04
 0.12749999E+02  0.45434E+04
 0.12799999E+02  0.53337E+04
 0.12849999E+02  0.60995E+04
 0.12899999E+02  0.67777E+04
 0.12949999E+02  0.73257E+04
 0.12999999E+02  0.76940E+04
 0.13049999E+02  0.79602E+04
 0.13099999E+02  0.81155E+04
 0.13149999E+02  0.81555E+04
 0.13199999E+02  0.80915E+04
 0.13249999E+02  0.79068E+04
 0.13299999E+02  0.75898E+04
 0.13349999E+02  0.70461E+04
 0.13399999E+02  0.64004E+04
 0.13449999E+02  0.57255E+04
 0.13499999E+02  0.49761E+04
 0.13549999E+02  0.40689E+04
 0.13599999E+02  0.29995E+04
 0.13649999E+02  0.18077E+04
 0.13699999E+02  0.55930E+03
 0.13749999E+02 -0.61863E+03
 0.13799999E+02 -0.16106E+04
 0.13849999E+02 -0.22943E+04
 0.13899999E+02 -0.27689E+04
 0.13949999E+02 -0.30366E+04
 0.13999999E+02 -0.31276E+04
 0.14049999E+02 -0.30773E+04
 0.14099998E+02 -0.29084E+04
 0.14150000E+02 -0.26379E+04
 0.14199999E+02 -0.23820E+04
 0.14249998E+02 -0.21225E+04
 0.14299999E+02 -0.18048E+04
 0.14349998E+02 -0.14889E+04
 0.14400000E+02 -0.11793E+04
 0.14449999E+02 -0.10509E+04
 0.14499998E+02 -0.11474E+04
 0.14549999E+02 -0.14935E+04
 0.14599998E+02 -0.19502E+04
 0.14650000E+02 -0.24115E+04
 0.14699999E+02 -0.28197E+04
 0.14749998E+02 -0.31868E+04
 0.14799999E+02 -0.35110E+04
 0.14849998E+02 -0.37256E+04
 0.14900000E+02 -0.38606E+04
 0.14949999E+02 -0.39147E+04
 0.14999998E+02 -0.39815E+04
 0.15049999E+02 -0.41048E+04
 0.15099998E+02 -0.43482E+04
 0.15150000E+02 -0.46737E+04
 0.15199999E+02 -0.50744E+04
 0.15249998E+02 -0.55641E+04
 0.15299999E+02 -0.61175E+04
 0.15349998E+02 -0.67566E+04
 0.15400000E+02 -0.74717E+04
 0.15449999E+02 -0.83488E+04
 0.15499998E+02 -0.93190E+04
 0.15549999E+02 -0.10300E+05
 0.15599998E+02 -0.11260E+05
 0.15650000E+02 -0.12132E+05
 0.15699999E+02 -0.12934E+05
 0.15749998E+02 -0.13648E+05
 0.15799999E+02 -0.14303E+05
 0.15849998E+02 -0.14933E+05
 0.15900000E+02 -0.15409E+05
 0.15949999E+02 -0.15594E+05
 0.15999998E+02 -0.15447E+05
 0.16049999E+02 -0.15006E+05
 0.16099998E+02 -0.14379E+05
 0.16150000E+02 -0.13721E+05
 0.16199999E+02 -0.13125E+05
 0.16249998E+02 -0.12620E+05
 0.16299999E+02 -0.12135E+05
 0.16349998E+02 -0.11566E+05
 0.16400000E+02 -0.10913E+05
 0.16449999E+02 -0.10158E+05
 0.16499998E+02 -0.93705E+04
 0.16549999E+02 -0.84895E+04
 0.16599998E+02 -0.75116E+04
 0.16650000E+02 -0.65347E+04
 0.16699999E+02 -0.54953E+04
 0.16749998E+02 -0.43931E+04
 0.16799999E+02 -0.32531E+04
 0.16849998E+02 -0.21701E+04
 0.16900000E+02 -0.11683E+04
 0.16949999E+02 -0.25388E+03
 0.16999998E+02  0.44035E+03
 0.17049999E+02  0.84227E+03
 0.17099998E+02  0.93721E+03
 0.17150000E+02  0.86506E+03
 0.17199999E+02  0.85881E+03
 0.17249998E+02  0.91325E+03
 0.17299999E+02  0.92205E+03
 0.17349998E+02  0.96707E+03
 0.17400000E+02  0.11029E+04
 0.17449999E+02  0.14962E+04
 0.17499998E+02  0.21339E+04
 0.17549999E+02  0.29391E+04
 0.17599998E+02  0.39867E+04
 0.17650000E+02  0.51931E+04
 0.17699999E+02  0.64028E+04
 0.17749998E+02  0.74542E+04
 0.17799999E+02  0.83357E+04
 0.17849998E+02  0.90590E+04
 0.17900000E+02  0.96448E+04
 0.17949999E+02  0.10079E+05
 0.17999998E+02  0.10392E+05
 0.18049999E+02  0.10622E+05
 0.18099998E+02  0.10612E+05
 0.18150000E+02  0.10263E+05
 0.18199999E+02  0.95696E+04
 0.18249998E+02  0.86250E+04
 0.18299999E+02  0.76264E+04
 0.18349998E+02  0.65548E+04
 0.18400000E+02  0.54746E+04
 0.18449999E+02  0.45073E+04
 0.18499998E+02  0.37002E+04
 0.18549999E+02  0.30665E+04
 0.18599998E+02  0.25050E+04
 0.18650000E+02  0.19302E+04
 0.18699999E+02  0.12951E+04
 0.18749998E+02  0.66500E+03
 0.18799999E+02  0.74061E+02
 0.18849998E+02 -0.44570E+03
 0.18900000E+02 -0.83105E+03
 0.18949999E+02 -0.11145E+04
 0.18999998E+02 -0.13934E+04
 0.19049999E+02 -0.17162E+04
 0.19099998E+02 -0.20117E+04
 0.19150000E+02 -0.22718E+04
 0.19199999E+02 -0.25736E+04
 0.19249998E+02 -0.29913E+04
 0.19299999E+02 -0.35466E+04
 0.19349998E+02 -0.41171E+04
 0.19400000E+02 -0.46144E+04
 0.19449999E+02 -0.49966E+04
 0.19499998E+02 -0.53480E+04
 0.19549999E+02 -0.57293E+04
 0.19599998E+02 -0.62330E+04
 0.19650000E+02 -0.68844E+04
 0.19699999E+02 -0.75772E+04
 0.19749998E+02 -0.82838E+04
 0.19799999E+02 -0.88836E+04
 0.19849998E+02 -0.93684E+04
 0.19900000E+02 -0.97243E+04
 0.19949999E+02 -0.99233E+04
 0.19999998E+02 -0.99070E+04
 0.20049999E+02 -0.96639E+04
 0.20099998E+02 -0.92263E+04
 0.20150000E+02 -0.85523E+04
 0.20199999E+02 -0.76260E+04
 0.20249998E+02 -0.64790E+04
 0.20299999E+02 -0.52001E+04
 0.20349998E+02 -0.38850E+04
 0.20399998E+02 -0.25883E+04
 0.20449999E+02 -0.12803E+04
 0.20499998E+02 -0.42989E+02
 0.20549999E+02  0.11407E+04
 0.20599998E+02  0.22466E+04
 0.20649998E+02  0.32047E+04
 0.20699999E+02  0.41288E+04
 0.20749998E+02  0.50107E+04
 0.20799999E+02  0.58609E+04
 0.20849998E+02  0.67473E+04
 0.20899998E+02  0.75819E+04
 0.20949999E+02  0.83545E+04
 0.20999998E+02  0.89541E+04
 0.21049999E+02  0.94091E+04
 0.21099998E+02  0.98162E+04
 0.21149998E+02  0.10067E+05
 0.21199999E+02  0.10217E+05
 0.21249998E+02  0.10206E+05
 0.21299999E+02  0.99829E+04
 0.21349998E+02  0.96826E+04
 0.21399998E+02  0.93882E+04
 0.21449999E+02  0.90073E+04
 0.21499998E+02  0.84662E+04
 0.21549999E+02  0.78326E+04
 0.21599998E+02  0.71211E+04
 0.21649998E+02  0.63434E+04
 0.21699999E+02  0.55727E+04
 0.21749998E+02  0.48577E+04
 0.21799999E+02  0.42075E+04
 0.21849998E+02  0.36309E+04
 0.21899998E+02  0.30979E+04
 0.21949999E+02  0.26066E+04
 0.21999998E+02  0.21460E+04
 0.22049999E+02  0.15721E+04
 0.22099998E+02  0.73270E+03
 0.22149998E+02 -0.41981E+03
 0.22199999E+02 -0.17516E+04
 0.22249998E+02 -0.30505E+04
 0.22299999E+02 -0.41949E+04
 0.22349998E+02 -0.51789E+04
 0.22399998E+02 -0.59954E+04
 0.22449999E+02 -0.66538E+04
 0.22499998E+02 -0.71998E+04
 0.22549999E+02 -0.75821E+04
 0.22599998E+02 -0.77365E+04
 0.22649998E+02 -0.76843E+04
 0.22699999E+02 -0.75390E+04
 0.22749998E+02 -0.73893E+04
 0.22799999E+02 -0.71986E+04
 0.22849998E+02 -0.69158E+04
 0.22899998E+02 -0.65326E+04
 0.22949999E+02 -0.61114E+04
 0.22999998E+02 -0.56658E+04
 0.23049999E+02 -0.51516E+04
 0.23099998E+02 -0.45273E+04
 0.23149998E+02 -0.38072E+04
 0.23199999E+02 -0.30337E+04
 0.23249998E+02 -0.22759E+04
 0.23299999E+02 -0.15520E+04
 0.23349998E+02 -0.86645E+03
 0.23399998E+02 -0.13914E+03
 0.23449999E+02  0.66964E+03
 0.23499998E+02  0.14809E+04
 0.23549999E+02  0.22483E+04
 0.23599998E+02  0.28525E+04
 0.23649998E+02  0.33792E+04
 0.23699999E+02  0.39108E+04
 0.23749998E+02  0.44753E+04
 0.23799999E+02  0.50270E+04
 0.23849998E+02  0.54583E+04
 0.23899998E+02  0.57797E+04
 0.23949999E+02  0.59509E+04
 0.23999998E+02  0.59889E+04
 0.24049999E+02  0.59562E+04
 0.24099998E+02  0.58769E+04
 0.24149998E+02  0.57667E+04
 0.24199999E+02  0.56194E+04
 0.24249998E+02  0.54412E+04
 0.24299999E+02  0.51221E+04
 0.24349998E+02  0.45758E+04
 0.24399998E+02  0.38541E+04
 0.24449999E+02  0.30754E+04
 0.24499998E+02  0.23026E+04
 0.24549999E+02  0.15336E+04
 0.24599998E+02  0.83146E+03
 0.24649998E+02  0.23259E+03
 0.24699999E+02 -0.26164E+03
 0.24749998E+02 -0.79596E+03
 0.24799999E+02 -0.14731E+04
 0.24849998E+02 -0.22883E+04
 0.24899998E+02 -0.31123E+04
 0.24949999E+02 -0.37713E+04
 0.24999998E+02 -0.42940E+04
 0.25049999E+02 -0.47318E+04
 0.25099998E+02 -0.51268E+04
 0.25149998E+02 -0.54745E+04
 0.25199999E+02 -0.58025E+04
 0.25249998E+02 -0.60613E+04
 0.25299999E+02 -0.63012E+04
 0.25349998E+02 -0.64687E+04
 0.25399998E+02 -0.64538E+04
 0.25449999E+02 -0.63200E+04
 0.25499998E+02 -0.59168E+04
 0.25549999E+02 -0.53513E+04
 0.25599998E+02 -0.46593E+04
 0.25649998E+02 -0.39920E+04
 0.25699999E+02 -0.35327E+04
 0.25749998E+02 -0.31902E+04
 0.25799999E+02 -0.28435E+04
 0.25849998E+02 -0.26075E+04
 0.25899998E+02 -0.26183E+04
 0.25949999E+02 -0.29427E+04
 0.25999998E+02 -0.33867E+04
 0.26049999E+02 -0.42694E+04
 0.26099998E+02 -0.58108E+04
 0.26149998E+02 -0.77366E+04
 0.26199999E+02 -0.98440E+04
 0.26249998E+02 -0.11465E+05
 0.26299999E+02 -0.12891E+05
 0.26349998E+02 -0.14155E+05
 0.26399998E+02 -0.15141E+05
 0.26449999E+02 -0.16597E+05
 0.26499998E+02 -0.19085E+05
 0.26549999E+02 -0.21733E+05
 0.26599998E+02 -0.23321E+05
 0.26649998E+02 -0.22404E+05
 0.26699999E+02 -0.19785E+05
 0.26749998E+02 -0.17451E+05
 0.26799999E+02 -0.18491E+05
 0.26849998E+02 -0.22717E+05
 0.26899998E+02 -0.25049E+05
 0.26949999E+02 -0.23611E+05
 0.26999998E+02 -0.20894E+05
 0.27049997E+02 -0.18065E+05
 0.27099998E+02 -0.12871E+05
 0.27149998E+02 -0.64854E+04
 0.27199999E+02 -0.10971E+04
 0.27249998E+02  0.65992E+03
 0.27299997E+02  0.23895E+04
 0.27349998E+02  0.89792E+04
 0.27399998E+02  0.16580E+05
 0.27449999E+02  0.15809E+05
 0.27499998E+02  0.42773E+04
 0.27549997E+02 -0.89422E+04
 0.27599998E+02 -0.15060E+05
 0.27649998E+02 -0.11173E+05
 0.27699999E+02 -0.12332E+04
 0.27749998E+02  0.57360E+04
 0.27799997E+02  0.87812E+04
 0.27849998E+02  0.11570E+05
 0.27899998E+02  0.17771E+05
 0.27949999E+02  0.28786E+05
 0.27999998E+02  0.37462E+05
 0.28049997E+02  0.38753E+05
 0.28099998E+02  0.37055E+05
 0.28149998E+02  0.32491E+05
 0.28199999E+02  0.23297E+05
 0.28249998E+02  0.14620E+05
 0.28299997E+02  0.12498E+05
 0.28349998E+02  0.18857E+05
 0.28399998E+02  0.29692E+05
 0.28449999E+02  0.37345E+05
 0.28499998E+02  0.30845E+05
 0.28549997E+02  0.27232E+05
 0.28599998E+02  0.44899E+05
 0.28649998E+02  0.64258E+05
 0.28699999E+02  0.54280E+05
 0.28749998E+02  0.20327E+05
 0.28799997E+02 -0.10404E+05
 0.28849998E+02 -0.24087E+05
 0.28899998E+02 -0.19871E+05
 0.28949999E+02 -0.35858E+04
 0.28999998E+02  0.47461E+04
 0.29049997E+02  0.41905E+04
 0.29099998E+02  0.78537E+04
 0.29149998E+02 -0.45243E+03
 0.29199999E+02 -0.43353E+04
 0.29249998E+02  0.17138E+05
 0.29299997E+02  0.34191E+05
 0.29349998E+02  0.24955E+05
 0.29399998E+02  0.28495E+04
 0.29449999E+02 -0.16696E+05
 0.29499998E+02 -0.18718E+05
 0.29549997E+02 -0.73506E+04
 0.29599998E+02  0.69120E+04
 0.29649998E+02  0.24558E+05
 0.29699999E+02  0.37601E+05
 0.29749998E+02  0.50154E+05
 0.29799997E+02  0.67947E+05
 0.29849998E+02  0.68925E+05
 0.29899998E+02  0.51447E+05
 0.29949999E+02  0.38690E+05
 0.29999998E+02  0.29137E+05
 0.30049999E+02  0.11231E+05
 0.30099998E+02 -0.13306E+05
 0.30149998E+02 -0.18029E+05
 0.30199997E+02 -0.58726E+04
 0.30249996E+02  0.68451E+04
 0.30299999E+02  0.10855E+04
 0.30349998E+02 -0.56795E+04
 0.30399998E+02  0.23404E+05
 0.30449997E+02  0.37962E+05
 0.30499996E+02  0.29135E+05
 0.30549999E+02  0.15830E+05
 0.30599998E+02 -0.18793E+05
 0.30649998E+02 -0.55996E+05
 0.30699997E+02 -0.70605E+05
 0.30749996E+02 -0.68451E+05
 0.30799999E+02 -0.59641E+05
 0.30849998E+02 -0.27732E+05
 0.30899998E+02  0.11483E+05
 0.30949997E+02  0.26531E+05
 0.30999996E+02  0.16415E+05
 0.31049999E+02  0.39427E+04
 0.31099998E+02 -0.10240E+05
 0.31149998E+02 -0.31026E+05
 0.31199997E+02 -0.40017E+05
 0.31249996E+02 -0.22792E+05
 0.31299999E+02  0.18892E+04
 0.31349998E+02  0.17862E+03
 0.31399998E+02 -0.31406E+05
 0.31449997E+02 -0.65028E+05
 0.31499996E+02 -0.70198E+05
 0.31549999E+02 -0.71522E+05
 0.31599998E+02 -0.95004E+05
 0.31649998E+02 -0.10131E+06
 0.31699997E+02 -0.51626E+05
 0.31749996E+02  0.29539E+05
 0.31799999E+02  0.88437E+05
 0.31849998E+02  0.70200E+05
 0.31899998E+02  0.16683E+05
 0.31949997E+02 -0.20403E+05
 0.31999996E+02 -0.39197E+05
 0.32049999E+02 -0.35702E+05
 0.32099998E+02 -0.38039E+05
 0.32149998E+02 -0.54031E+05
 0.32199997E+02 -0.68885E+05
 0.32249996E+02 -0.58270E+05
 0.32299999E+02 -0.21005E+05
 0.32349998E+02  0.80631E+04
 0.32399998E+02  0.23538E+05
 0.32449997E+02  0.25019E+05
 0.32499996E+02 -0.80580E+03
 0.32549999E+02 -0.49172E+05
 0.32599998E+02 -0.91832E+05
 0.32649998E+02 -0.85476E+05
 0.32699997E+02 -0.42416E+05
 0.32749996E+02 -0.57906E+04
 0.32799999E+02  0.11219E+05
 0.32849998E+02 -0.16810E+05
 0.32899998E+02 -0.54698E+05
 0.32949997E+02 -0.63074E+05
 0.32999996E+02 -0.54309E+05
 0.33049999E+02 -0.32698E+05
 0.33099998E+02  0.50800E+04
 0.33149998E+02  0.18286E+05
 0.33199997E+02 -0.52406E+04
 0.33249996E+02 -0.22419E+05
 0.33299999E+02 -0.18726E+05
 0.33349998E+02  0.15230E+05
 0.33399998E+02  0.50137E+05
 0.33449997E+02  0.56290E+05
 0.33499996E+02  0.34407E+05
 0.33549999E+02  0.14915E+05
 0.33599998E+02  0.10512E+05
 0.33649998E+02  0.26259E+05
 0.33699997E+02  0.23228E+05
 0.33749996E+02 -0.17203E+04
 0.33799999E+02 -0.20869E+05
 0.33849998E+02 -0.39963E+05
 0.33899998E+02 -0.65420E+05
 0.33949997E+02 -0.97268E+05
 0.33999996E+02 -0.75878E+05
 0.34049999E+02 -0.11705E+05
 0.34099998E+02  0.50291E+05
 0.34149998E+02  0.96822E+05
 0.34199997E+02  0.11568E+06
 0.34249996E+02  0.13139E+06
 0.34299999E+02  0.12150E+06
 0.34349998E+02  0.86371E+05
 0.34399998E+02  0.61096E+05
 0.34449997E+02  0.46104E+05
 0.34499996E+02  0.57278E+05
 0.34549999E+02  0.85840E+05
 0.34599998E+02  0.10744E+06
 0.34649998E+02  0.11266E+06
 0.34699997E+02  0.83874E+05
 0.34749996E+02 -0.60898E+04
 0.34799999E+02 -0.11177E+06
 0.34849998E+02 -0.18910E+06
 0.34899998E+02 -0.19224E+06
 0.34949997E+02 -0.10865E+06
 0.34999996E+02 -0.13517E+05
 0.35049999E+02  0.47989E+05
 0.35099998E+02  0.65356E+05
 0.35149998E+02  0.43803E+05
 0.35199997E+02  0.24371E+05
 0.35249996E+02  0.11505E+05
 0.35299999E+02 -0.22359E+05
 0.35349998E+02 -0.51840E+05
 0.35399998E+02 -0.63936E+05
 0.35449997E+02 -0.65398E+05
 0.35499996E+02 -0.47674E+05
 0.35549999E+02 -0.51374E+04
 0.35599998E+02  0.34907E+05
 0.35649998E+02  0.50670E+05
 0.35699997E+02  0.31362E+05
 0.35749996E+02 -0.11211E+05
 0.35799999E+02 -0.40797E+05
 0.35849998E+02 -0.32564E+05
 0.35899998E+02 -0.16242E+05
 0.35949997E+02 -0.14362E+05
 0.35999996E+02  0.22176E+05
 0.36049999E+02  0.81264E+05
 0.36099998E+02  0.10179E+06
 0.36149998E+02  0.77058E+05
 0.36199997E+02  0.32458E+05
 0.36249996E+02 -0.75045E+04
 0.36299999E+02 -0.38182E+05
 0.36349998E+02 -0.73382E+05
 0.36399998E+02 -0.86787E+05
 0.36449997E+02 -0.75027E+05
 0.36499996E+02 -0.53117E+05
 0.36549999E+02 -0.18075E+05
 0.36599998E+02  0.41693E+04
 0.36649998E+02  0.57875E+04
 0.36699997E+02 -0.87446E+04
 0.36749996E+02 -0.27653E+05
 0.36799999E+02 -0.46449E+05
 0.36849998E+02 -0.75554E+05
 0.36899998E+02 -0.11312E+06
 0.36949997E+02 -0.13353E+06
 0.36999996E+02 -0.13186E+06
 0.37049999E+02 -0.11788E+06
 0.37099998E+02 -0.84595E+05
 0.37149998E+02 -0.46840E+05
 0.37199997E+02 -0.14172E+05
 0.37249996E+02  0.25500E+05
 0.37299999E+02  0.56120E+05
 0.37349998E+02  0.82718E+05
 0.37399998E+02  0.12346E+06
 0.37449997E+02  0.13446E+06
 0.37499996E+02  0.95360E+05
 0.37549999E+02  0.63567E+05
 0.37599998E+02  0.53517E+05
 0.37649998E+02  0.16772E+05
 0.37699997E+02 -0.20065E+05
 0.37749996E+02 -0.86109E+04
 0.37799999E+02  0.45414E+05
 0.37849998E+02  0.89559E+05
 0.37899998E+02  0.92121E+05
 0.37949997E+02  0.65453E+05
 0.37999996E+02  0.33531E+05
 0.38049999E+02  0.70734E+04
 0.38099998E+02 -0.11156E+05
 0.38149998E+02 -0.15658E+05
 0.38199997E+02 -0.14661E+05
 0.38249996E+02 -0.11544E+05
 0.38299999E+02 -0.28103E+05
 0.38349998E+02 -0.62420E+05
 0.38399998E+02 -0.72080E+05
 0.38449997E+02 -0.52250E+05
 0.38499996E+02 -0.12864E+05
 0.38549999E+02  0.28685E+05
 0.38599998E+02  0.57264E+05
 0.38649998E+02  0.79018E+05
 0.38699997E+02  0.89453E+05
 0.38749996E+02  0.10070E+06
 0.38799999E+02  0.94167E+05
 0.38849998E+02  0.65255E+05
 0.38899998E+02  0.34984E+05
 0.38949997E+02  0.14885E+05
 0.38999996E+02  0.11485E+05
 0.39049999E+02  0.29596E+05
 0.39099998E+02  0.25570E+05
 0.39149998E+02 -0.26485E+05
 0.39199997E+02 -0.70888E+05
 0.39249996E+02 -0.86144E+05
 0.39299999E+02 -0.67558E+05
 0.39349998E+02 -0.28178E+05
 0.39399998E+02  0.36216E+03
 0.39449997E+02 -0.60496E+04
 0.39499996E+02 -0.35702E+05
 0.39549999E+02 -0.51091E+05
 0.39599998E+02 -0.28651E+05
 0.39649998E+02  0.14362E+05
 0.39699997E+02  0.28739E+05
 0.39749996E+02  0.32446E+04
 0.39799999E+02 -0.35248E+05
 0.39849998E+02 -0.57193E+05
 0.39899998E+02 -0.61180E+05
 0.39949997E+02 -0.58777E+05
 0.39999996E+02 -0.46285E+05
 0.40049999E+02 -0.41300E+05
 0.40099998E+02 -0.53243E+05
 0.40149998E+02 -0.63093E+05
 0.40199997E+02 -0.59325E+05
 0.40249996E+02 -0.44161E+05
 0.40299999E+02 -0.54238E+05
 0.40349998E+02 -0.79964E+05
 0.40399998E+02 -0.80884E+05
 0.40449997E+02 -0.67525E+05
 0.40499996E+02 -0.46831E+05
 0.40549999E+02 -0.32819E+04
 0.40599998E+02  0.56200E+05
 0.40649998E+02  0.10166E+06
 0.40699997E+02  0.12050E+06
 0.40749996E+02  0.10824E+06
 0.40799999E+02  0.76806E+05
 0.40849998E+02  0.48369E+05
 0.40899998E+02  0.25450E+05
 0.40949997E+02 -0.48757E+03
 0.40999996E+02 -0.17062E+05
 0.41049999E+02 -0.32273E+05
 0.41099998E+02 -0.52279E+05
 0.41149998E+02 -0.51699E+05
 0.41199997E+02 -0.31350E+05
 0.41249996E+02 -0.90081E+04
 0.41299999E+02  0.19042E+05
 0.41349998E+02  0.30559E+05
 0.41399998E+02  0.14227E+05
 0.41449997E+02  0.11042E+04
 0.41499996E+02  0.97825E+04
 0.41549999E+02  0.25884E+05
 0.41599998E+02  0.33135E+05
 0.41649998E+02  0.25649E+05
 0.41699997E+02 -0.50540E+04
 0.41749996E+02 -0.29728E+05
 0.41799999E+02 -0.29258E+05
 0.41849998E+02 -0.31370E+05
 0.41899998E+02 -0.43758E+05
 0.41949997E+02 -0.49288E+05
 0.41999996E+02 -0.44216E+05
 0.42049999E+02 -0.28620E+05
 0.42099998E+02 -0.90079E+04
 0.42149998E+02  0.12527E+05
 0.42199997E+02  0.19338E+05
 0.42249996E+02  0.85802E+04
 0.42299999E+02 -0.24024E+04
 0.42349998E+02 -0.34007E+04
 0.42399998E+02  0.71569E+04
 0.42449997E+02  0.30752E+05
 0.42499996E+02  0.45720E+05
 0.42549999E+02  0.48777E+05
 0.42599998E+02  0.39387E+05
 0.42649998E+02  0.12597E+05
 0.42699997E+02 -0.71326E+04
 0.42749996E+02 -0.35139E+05
 0.42799995E+02 -0.85548E+05
 0.42849998E+02 -0.13091E+06
 0.42899998E+02 -0.14132E+06
 0.42949997E+02 -0.11000E+06
 0.42999996E+02 -0.48315E+05
 0.43049995E+02  0.48473E+04
 0.43099998E+02  0.17736E+05
 0.43149998E+02  0.99403E+03
 0.43199997E+02 -0.17191E+03
 0.43249996E+02  0.81110E+04
 0.43299995E+02  0.37860E+04
 0.43349998E+02 -0.34953E+04
 0.43399998E+02 -0.12979E+05
 0.43449997E+02 -0.13894E+05
 0.43499996E+02  0.21172E+04
 0.43549995E+02  0.33761E+05
 0.43599998E+02  0.65025E+05
 0.43649998E+02  0.84014E+05
 0.43699997E+02  0.88229E+05
 0.43749996E+02  0.71925E+05
 0.43799995E+02  0.51940E+05
 0.43849998E+02  0.39603E+05
 0.43899998E+02  0.40303E+05
 0.43949997E+02  0.59306E+05
 0.43999996E+02  0.74124E+05
 0.44049995E+02  0.63024E+05
 0.44099998E+02  0.25710E+05
 0.44149998E+02 -0.11183E+04
 0.44199997E+02 -0.80857E+04
 0.44249996E+02 -0.24720E+05
 0.44299995E+02 -0.44719E+05
 0.44349998E+02 -0.43792E+05
 0.44399998E+02 -0.23196E+05
 0.44449997E+02 -0.41759E+03
 0.44499996E+02  0.10770E+05
 0.44549995E+02  0.84890E+04
 0.44599998E+02 -0.44422E+04
 0.44649998E+02 -0.29663E+05
 0.44699997E+02 -0.55454E+05
 0.44749996E+02 -0.58111E+05
 0.44799995E+02 -0.36461E+05
 0.44849998E+02 -0.19675E+05
 0.44899998E+02 -0.32519E+05
 0.44949997E+02 -0.69875E+05
 0.44999996E+02 -0.96634E+05
 0.45049995E+02 -0.85200E+05
 0.45099998E+02 -0.61239E+05
 0.45149998E+02 -0.45571E+05
 0.45199997E+02 -0.15944E+05
 0.45249996E+02  0.16655E+05
 0.45299995E+02  0.31323E+05
 0.45349998E+02  0.28629E+05
 0.45399998E+02  0.24041E+05
 0.45449997E+02  0.40175E+05
 0.45499996E+02  0.55138E+05
 0.45549995E+02  0.60383E+05
 0.45599998E+02  0.65967E+05
 0.45649998E+02  0.82311E+05
 0.45699997E+02  0.11141E+06
 0.45749996E+02  0.12586E+06
 0.45799995E+02  0.11683E+06
 0.45849998E+02  0.90217E+05
 0.45899998E+02  0.66557E+05
 0.45949997E+02  0.66672E+05
 0.45999996E+02  0.66314E+05
 0.46049995E+02  0.36320E+05
 0.46099998E+02 -0.48707E+04
 0.46149998E+02 -0.24486E+05
 0.46199997E+02 -0.16285E+05
 0.46249996E+02  0.34730E+04
 0.46299995E+02  0.14564E+05
 0.46349998E+02  0.63697E+04
 0.46399998E+02 -0.20296E+05
 0.46449997E+02 -0.54138E+05
 0.46499996E+02 -0.75113E+05
 0.46549995E+02 -0.92671E+05
 0.46599998E+02 -0.10472E+06
 0.46649998E+02 -0.10308E+06
 0.46699997E+02 -0.95480E+05
 0.46749996E+02 -0.83357E+05
 0.46799995E+02 -0.79429E+05
 0.46849998E+02 -0.74705E+05
 0.46899998E+02 -0.44044E+05
 0.46949997E+02  0.18040E+05
 0.46999996E+02  0.81388E+05
 0.47049995E+02  0.10150E+06
 0.47099998E+02  0.91667E+05
 0.47149998E+02  0.94423E+05
 0.47199997E+02  0.86380E+05
 0.47249996E+02  0.37592E+05
 0.47299995E+02 -0.30980E+05
 0.47349998E+02 -0.71100E+05
 0.47399998E+02 -0.50630E+05
 0.47449997E+02 -0.10647E+04
 0.47499996E+02  0.33567E+05
 0.47549995E+02  0.31979E+05
 0.47599998E+02  0.65901E+04
 0.47649998E+02  0.14993E+05
 0.47699997E+02  0.68838E+05
 0.47749996E+02  0.11688E+06
 0.47799995E+02  0.10245E+06
 0.47849998E+02  0.10279E+05
 0.47899998E+02 -0.10185E+06
 0.47949997E+02 -0.16669E+06
 0.47999996E+02 -0.17690E+06
 0.48049995E+02 -0.17128E+06
 0.48099998E+02 -0.17372E+06
 0.48149998E+02 -0.16919E+06
 0.48199997E+02 -0.12968E+06
 0.48249996E+02 -0.72452E+05
 0.48299995E+02 -0.52976E+05
 0.48349998E+02 -0.84361E+05
 0.48399998E+02 -0.12071E+06
 0.48449997E+02 -0.12652E+06
 0.48499996E+02 -0.10208E+06
 0.48549995E+02 -0.56850E+05
 0.48599998E+02 -0.16814E+05
 0.48649998E+02  0.17174E+05
 0.48699997E+02  0.29161E+05
 0.48749996E+02 -0.23354E+05
 0.48799995E+02 -0.12074E+06
 0.48849998E+02 -0.23749E+06
 0.48899998E+02 -0.37015E+06
 0.48949997E+02 -0.49689E+06
 0.48999996E+02 -0.56798E+06
 0.49049995E+02 -0.55469E+06
 0.49099998E+02 -0.47810E+06
 0.49149998E+02 -0.39935E+06
 0.49199997E+02 -0.35579E+06
 0.49249996E+02 -0.35002E+06
 0.49299995E+02 -0.37550E+06
 0.49349998E+02 -0.41178E+06
 0.49399998E+02 -0.44358E+06
 0.49449997E+02 -0.40884E+06
 0.49499996E+02 -0.25100E+06
 0.49549995E+02 -0.35011E+05
 0.49599998E+02  0.12236E+06
 0.49649998E+02  0.17664E+06
 0.49699997E+02  0.16022E+06
 0.49749996E+02  0.10828E+06
 0.49799995E+02  0.60747E+05
 0.49849998E+02  0.54928E+05
 0.49899998E+02  0.80291E+05
 0.49949997E+02  0.11599E+06
 0.49999996E+02  0.16154E+06
 0.50049995E+02  0.21261E+06
 0.50099998E+02  0.25097E+06
 0.50149998E+02  0.29568E+06
 0.50199997E+02  0.33269E+06
 0.50249996E+02  0.32098E+06
 0.50299995E+02  0.25681E+06
 0.50349998E+02  0.16586E+06
 0.50399998E+02  0.90003E+05
 0.50449997E+02  0.43661E+05
 0.50499996E+02  0.51686E+05
 0.50549995E+02  0.14237E+06
 0.50599998E+02  0.28529E+06
 0.50649998E+02  0.41183E+06
 0.50699997E+02  0.46035E+06
 0.50749996E+02  0.41325E+06
 0.50799995E+02  0.31375E+06
 0.50849998E+02  0.20598E+06
 0.50899998E+02  0.11089E+06
 0.50949997E+02  0.78390E+05
 0.50999996E+02  0.13173E+06
 0.51049995E+02  0.22056E+06
 0.51099998E+02  0.27410E+06
 0.51149998E+02  0.26028E+06
 0.51199997E+02  0.21411E+06
 0.51249996E+02  0.21241E+06
 0.51299995E+02  0.29028E+06
 0.51349998E+02  0.38733E+06
 0.51399998E+02  0.41978E+06
 0.51449997E+02  0.35702E+06
 0.51499996E+02  0.25962E+06
 0.51549995E+02  0.21630E+06
 0.51599998E+02  0.26378E+06
 0.51649998E+02  0.37797E+06
 0.51699997E+02  0.48995E+06
 0.51749996E+02  0.55681E+06
 0.51799995E+02  0.54863E+06
 0.51849998E+02  0.46213E+06
 0.51899998E+02  0.35130E+06
 0.51949997E+02  0.25521E+06
 0.51999996E+02  0.18126E+06
 0.52049995E+02  0.15350E+06
 0.52099998E+02  0.19130E+06
 0.52149998E+02  0.28050E+06
 0.52199997E+02  0.37884E+06
 0.52249996E+02  0.44672E+06
 0.52299995E+02  0.47338E+06
 0.52349998E+02  0.44216E+06
 0.52399998E+02  0.34955E+06
 0.52449997E+02  0.19777E+06
 0.52499996E+02  0.35257E+05
 0.52549995E+02 -0.37292E+05
 0.52599998E+02  0.12611E+05
 0.52649998E+02  0.13353E+06
 0.52699997E+02  0.24362E+06
 0.52749996E+02  0.28239E+06
 0.52799995E+02  0.22706E+06
 0.52849998E+02  0.10543E+06
 0.52899998E+02 -0.18204E+05
 0.52949997E+02 -0.10664E+06
 0.52999996E+02 -0.14538E+06
 0.53049995E+02 -0.13826E+06
 0.53099998E+02 -0.80088E+05
 0.53149998E+02  0.20365E+05
 0.53199997E+02  0.15002E+06
 0.53249996E+02  0.29809E+06
 0.53299995E+02  0.40615E+06
 0.53349998E+02  0.41849E+06
 0.53399998E+02  0.34791E+06
 0.53449997E+02  0.25720E+06
 0.53499996E+02  0.20839E+06
 0.53549995E+02  0.23405E+06
 0.53599998E+02  0.28825E+06
 0.53649998E+02  0.32654E+06
 0.53699997E+02  0.32037E+06
 0.53749996E+02  0.26420E+06
 0.53799995E+02  0.22584E+06
 0.53849998E+02  0.22696E+06
 0.53899998E+02  0.25618E+06
 0.53949997E+02  0.29971E+06
 0.53999996E+02  0.30291E+06
 0.54049995E+02  0.25158E+06
 0.54099998E+02  0.19025E+06
 0.54149998E+02  0.15987E+06
 0.54199997E+02  0.15891E+06
 0.54249996E+02  0.16198E+06
 0.54299995E+02  0.13664E+06
 0.54349998E+02  0.65216E+05
 0.54399998E+02 -0.45015E+05
 0.54449997E+02 -0.15910E+06
 0.54499996E+02 -0.22135E+06
 0.54549995E+02 -0.23072E+06
 0.54599998E+02 -0.20245E+06
 0.54649998E+02 -0.16496E+06
 0.54699997E+02 -0.14684E+06
 0.54749996E+02 -0.14059E+06
 0.54799995E+02 -0.15477E+06
 0.54849998E+02 -0.17856E+06
 0.54899998E+02 -0.18092E+06
 0.54949997E+02 -0.16072E+06
 0.54999996E+02 -0.10756E+06
 0.55049995E+02 -0.15546E+05
 0.55099998E+02  0.60978E+05
 0.55149998E+02  0.82536E+05
 0.55199997E+02  0.56143E+05
 0.55249996E+02  0.81127E+04
 0.55299995E+02 -0.37475E+05
 0.55349998E+02 -0.90646E+05
 0.55399998E+02 -0.17179E+06
 0.55449997E+02 -0.24675E+06
 0.55499996E+02 -0.25832E+06
 0.55549995E+02 -0.23588E+06
 0.55599998E+02 -0.25479E+06
 0.55649998E+02 -0.33429E+06
 0.55699997E+02 -0.43424E+06
 0.55749996E+02 -0.47715E+06
 0.55799995E+02 -0.42815E+06
 0.55849995E+02 -0.31860E+06
 0.55899998E+02 -0.20387E+06
 0.55949997E+02 -0.13390E+06
 0.55999996E+02 -0.13082E+06
 0.56049995E+02 -0.18909E+06
 0.56099995E+02 -0.26432E+06
 0.56149998E+02 -0.31394E+06
 0.56199997E+02 -0.33929E+06
 0.56249996E+02 -0.36789E+06
 0.56299995E+02 -0.39750E+06
 0.56349995E+02 -0.41661E+06
 0.56399998E+02 -0.41526E+06
 0.56449997E+02 -0.36545E+06
 0.56499996E+02 -0.28296E+06
 0.56549995E+02 -0.22996E+06
 0.56599995E+02 -0.24007E+06
 0.56649998E+02 -0.27672E+06
 0.56699997E+02 -0.29870E+06
 0.56749996E+02 -0.30195E+06
 0.56799995E+02 -0.30200E+06
 0.56849995E+02 -0.29696E+06
 0.56899998E+02 -0.26107E+06
 0.56949997E+02 -0.20750E+06
 0.56999996E+02 -0.17590E+06
 0.57049995E+02 -0.21084E+06
 0.57099995E+02 -0.29832E+06
 0.57149998E+02 -0.38924E+06
 0.57199997E+02 -0.46101E+06
 0.57249996E+02 -0.51477E+06
 0.57299995E+02 -0.55232E+06
 0.57349995E+02 -0.57371E+06
 0.57399998E+02 -0.58655E+06
 0.57449997E+02 -0.59780E+06
 0.57499996E+02 -0.62367E+06
 0.57549995E+02 -0.65626E+06
 0.57599995E+02 -0.67856E+06
 0.57649998E+02 -0.67923E+06
 0.57699997E+02 -0.64857E+06
 0.57749996E+02 -0.58189E+06
 0.57799995E+02 -0.50176E+06
 0.57849995E+02 -0.42947E+06
 0.57899998E+02 -0.38930E+06
 0.57949997E+02 -0.39355E+06
 0.57999996E+02 -0.42177E+06
 0.58049995E+02 -0.45461E+06
 0.58099995E+02 -0.46729E+06
 0.58149998E+02 -0.44246E+06
 0.58199997E+02 -0.37893E+06
 0.58249996E+02 -0.30041E+06
 0.58299995E+02 -0.23944E+06
 0.58349995E+02 -0.22272E+06
 0.58399998E+02 -0.26919E+06
 0.58449997E+02 -0.34461E+06
 0.58499996E+02 -0.39735E+06
 0.58549995E+02 -0.41548E+06
 0.58599995E+02 -0.38773E+06
 0.58649998E+02 -0.32222E+06
 0.58699997E+02 -0.23922E+06
 0.58749996E+02 -0.14567E+06
 0.58799995E+02 -0.56553E+05
 0.58849995E+02  0.52096E+04
 0.58899998E+02  0.24133E+05
 0.58949997E+02  0.11221E+05
 0.58999996E+02 -0.18730E+05
 0.59049995E+02 -0.43657E+05
 0.59099995E+02 -0.51494E+05
 0.59149998E+02 -0.52366E+05
 0.59199997E+02 -0.62288E+05
 0.59249996E+02 -0.89688E+05
 0.59299995E+02 -0.11509E+06
 0.59349995E+02 -0.10708E+06
 0.59399998E+02 -0.51538E+05
 0.59449997E+02  0.22675E+05
 0.59499996E+02  0.82620E+05
 0.59549995E+02  0.12403E+06
 0.59599995E+02  0.15320E+06
 0.59649998E+02  0.17597E+06
 0.59699997E+02  0.19073E+06
 0.59749996E+02  0.19572E+06
 0.59799995E+02  0.20295E+06
 0.59849995E+02  0.21754E+06
 0.59899998E+02  0.21962E+06
 0.59949997E+02  0.19542E+06
 0.59999996E+02  0.16164E+06
 0.60049995E+02  0.14517E+06
 0.60099995E+02  0.16153E+06
 0.60149998E+02  0.19258E+06
 0.60199997E+02  0.21731E+06
 0.60249996E+02  0.23498E+06
 0.60299995E+02  0.25717E+06
 0.60349995E+02  0.29649E+06
 0.60399998E+02  0.35376E+06
 0.60449997E+02  0.41759E+06
 0.60499996E+02  0.45457E+06
 0.60549995E+02  0.44278E+06
 0.60599995E+02  0.38411E+06
 0.60649998E+02  0.29730E+06
 0.60699997E+02  0.20446E+06
 0.60749996E+02  0.11030E+06
 0.60799995E+02  0.27651E+05
 0.60849995E+02 -0.21653E+05
 0.60899998E+02 -0.38493E+05
 0.60949997E+02 -0.37898E+05
 0.60999996E+02 -0.33528E+05
 0.61049995E+02 -0.28303E+05
 0.61099995E+02 -0.24123E+05
 0.61149998E+02 -0.17792E+05
 0.61199997E+02 -0.20637E+04
 0.61249996E+02  0.25969E+05
 0.61299995E+02  0.73881E+05
 0.61349995E+02  0.15145E+06
 0.61399998E+02  0.25049E+06
 0.61449997E+02  0.33919E+06
 0.61499996E+02  0.38487E+06
 0.61549995E+02  0.37222E+06
 0.61599995E+02  0.31386E+06
 0.61649998E+02  0.23622E+06
 0.61699997E+02  0.15754E+06
 0.61749996E+02  0.87713E+05
 0.61799995E+02  0.31704E+05
 0.61849995E+02 -0.28866E+04
 0.61899998E+02 -0.41906E+04
 0.61949997E+02  0.33253E+05
 0.61999996E+02  0.97316E+05
 0.62049995E+02  0.16611E+06
 0.62099998E+02  0.21610E+06
 0.62149994E+02  0.23008E+06
 0.62199997E+02  0.21806E+06
 0.62249992E+02  0.19547E+06
 0.62299995E+02  0.16563E+06
 0.62349998E+02  0.13054E+06
 0.62399994E+02  0.94522E+05
 0.62449997E+02  0.57039E+05
 0.62499992E+02  0.31389E+05
 0.62549995E+02  0.29898E+05
 0.62599998E+02  0.48840E+05
 0.62649994E+02  0.73695E+05
 0.62699997E+02  0.90583E+05
 0.62749992E+02  0.10602E+06
 0.62799995E+02  0.12756E+06
 0.62849998E+02  0.14690E+06
 0.62899994E+02  0.15490E+06
 0.62949997E+02  0.15367E+06
 0.62999992E+02  0.14527E+06
 0.63049995E+02  0.14111E+06
 0.63099998E+02  0.15186E+06
 0.63149994E+02  0.18821E+06
 0.63199997E+02  0.24848E+06
 0.63249992E+02  0.31086E+06
 0.63299995E+02  0.36261E+06
 0.63349998E+02  0.39438E+06
 0.63399994E+02  0.39965E+06
 0.63449997E+02  0.38638E+06
 0.63499992E+02  0.36292E+06
 0.63549995E+02  0.31966E+06
 0.63599998E+02  0.25302E+06
 0.63649994E+02  0.19164E+06
 0.63699997E+02  0.16088E+06
 0.63749992E+02  0.15371E+06
 0.63799995E+02  0.15169E+06
 0.63849998E+02  0.14056E+06
 0.63899994E+02  0.12246E+06
 0.63949997E+02  0.10308E+06
 0.63999992E+02  0.84822E+05
 0.64049995E+02  0.67168E+05
 0.64099998E+02  0.40260E+05
 0.64149994E+02 -0.11606E+05
 0.64199997E+02 -0.79059E+05
 0.64249992E+02 -0.13703E+06
 0.64299995E+02 -0.17878E+06
 0.64349998E+02 -0.20931E+06
 0.64399994E+02 -0.24053E+06
 0.64449997E+02 -0.27272E+06
 0.64499992E+02 -0.30255E+06
 0.64549995E+02 -0.31900E+06
 0.64599998E+02 -0.31063E+06
 0.64649994E+02 -0.28488E+06
 0.64699997E+02 -0.25516E+06
 0.64749992E+02 -0.22559E+06
 0.64799995E+02 -0.19944E+06
 0.64849998E+02 -0.18200E+06
 0.64899994E+02 -0.17497E+06
 0.64949997E+02 -0.17188E+06
 0.64999992E+02 -0.15503E+06
 0.65049995E+02 -0.11615E+06
 0.65099998E+02 -0.63218E+05
 0.65149994E+02 -0.15244E+05
 0.65199997E+02  0.14627E+05
 0.65249992E+02  0.22211E+05
 0.65299995E+02  0.85441E+04
 0.65349998E+02 -0.24104E+05
 0.65399994E+02 -0.77462E+05
 0.65449997E+02 -0.13996E+06
 0.65499992E+02 -0.18705E+06
 0.65549995E+02 -0.20913E+06
 0.65599998E+02 -0.21333E+06
 0.65649994E+02 -0.20635E+06
 0.65699997E+02 -0.18799E+06
 0.65749992E+02 -0.15922E+06
 0.65799995E+02 -0.11996E+06
 0.65849998E+02 -0.71582E+05
 0.65899994E+02 -0.29292E+05
 0.65949997E+02 -0.12233E+04
 0.65999992E+02  0.21342E+05
 0.66049995E+02  0.43061E+05
 0.66099998E+02  0.66294E+05
 0.66149994E+02  0.88932E+05
 0.66199997E+02  0.10327E+06
 0.66249992E+02  0.10443E+06
 0.66299995E+02  0.92243E+05
 0.66349998E+02  0.81492E+05
 0.66399994E+02  0.79401E+05
 0.66449997E+02  0.86071E+05
 0.66499992E+02  0.10435E+06
 0.66549995E+02  0.13121E+06
 0.66599998E+02  0.15686E+06
 0.66649994E+02  0.16944E+06
 0.66699997E+02  0.16831E+06
 0.66749992E+02  0.16214E+06
 0.66799995E+02  0.16198E+06
 0.66849998E+02  0.17082E+06
 0.66899994E+02  0.17911E+06
 0.66949997E+02  0.18327E+06
 0.66999992E+02  0.19507E+06
 0.67049995E+02  0.22035E+06
 0.67099998E+02  0.24531E+06
 0.67149994E+02  0.25212E+06
 0.67199997E+02  0.23241E+06
 0.67249992E+02  0.19203E+06
 0.67299995E+02  0.15575E+06
 0.67349998E+02  0.14347E+06
 0.67399994E+02  0.15524E+06
 0.67449997E+02  0.17664E+06
 0.67499992E+02  0.19261E+06
 0.67549995E+02  0.19568E+06
 0.67599998E+02  0.17947E+06
 0.67649994E+02  0.14461E+06
 0.67699997E+02  0.10520E+06
 0.67749992E+02  0.88548E+05
 0.67799995E+02  0.10185E+06
 0.67849998E+02  0.13375E+06
 0.67899994E+02  0.17704E+06
 0.67949997E+02  0.22191E+06
 0.67999992E+02  0.25382E+06
 0.68049995E+02  0.25975E+06
 0.68099998E+02  0.23695E+06
 0.68149994E+02  0.19462E+06
 0.68199997E+02  0.14880E+06
 0.68249992E+02  0.11286E+06
 0.68299995E+02  0.99054E+05
 0.68349998E+02  0.10842E+06
 0.68399994E+02  0.13243E+06
 0.68449997E+02  0.16614E+06
 0.68499992E+02  0.20572E+06
 0.68549995E+02  0.23914E+06
 0.68599998E+02  0.25945E+06
 0.68649994E+02  0.26838E+06
 0.68699997E+02  0.26805E+06
 0.68749992E+02  0.26500E+06
 0.68799995E+02  0.25416E+06
 0.68849998E+02  0.23505E+06
 0.68899994E+02  0.21815E+06
 0.68949997E+02  0.20482E+06
 0.68999992E+02  0.18736E+06
 0.69049995E+02  0.15518E+06
 0.69099998E+02  0.10709E+06
 0.69149994E+02  0.51492E+05
 0.69199997E+02 -0.23504E+03
 0.69249992E+02 -0.41649E+05
 0.69299995E+02 -0.74551E+05
 0.69349998E+02 -0.10344E+06
 0.69399994E+02 -0.13122E+06
 0.69449997E+02 -0.15818E+06
 0.69499992E+02 -0.18113E+06
 0.69549995E+02 -0.19612E+06
 0.69599998E+02 -0.20387E+06
 0.69649994E+02 -0.20400E+06
 0.69699997E+02 -0.19633E+06
 0.69749992E+02 -0.18523E+06
 0.69799995E+02 -0.17961E+06
 0.69849998E+02 -0.18303E+06
 0.69899994E+02 -0.19095E+06
 0.69949997E+02 -0.19763E+06
 0.69999992E+02 -0.20116E+06
 0.70049995E+02 -0.20286E+06
 0.70099998E+02 -0.20065E+06
 0.70149994E+02 -0.19603E+06
 0.70199997E+02 -0.18754E+06
 0.70249992E+02 -0.17673E+06
 0.70299995E+02 -0.16740E+06
 0.70349998E+02 -0.15906E+06
 0.70399994E+02 -0.15739E+06
 0.70449997E+02 -0.16676E+06
 0.70499992E+02 -0.18065E+06
 0.70549995E+02 -0.18646E+06
 0.70599998E+02 -0.17992E+06
 0.70649994E+02 -0.17081E+06
 0.70699997E+02 -0.16225E+06
 0.70749992E+02 -0.14773E+06
 0.70799995E+02 -0.12973E+06
 0.70849998E+02 -0.11898E+06
 0.70899994E+02 -0.11865E+06
 0.70949997E+02 -0.12158E+06
 0.70999992E+02 -0.12150E+06
 0.71049995E+02 -0.11307E+06
 0.71099998E+02 -0.10161E+06
 0.71149994E+02 -0.94326E+05
 0.71199997E+02 -0.87324E+05
 0.71249992E+02 -0.73148E+05
 0.71299995E+02 -0.45471E+05
 0.71349998E+02 -0.67033E+04
 0.71399994E+02  0.29011E+05
 0.71449997E+02  0.47513E+05
 0.71499992E+02  0.50433E+05
 0.71549995E+02  0.48039E+05
 0.71599998E+02  0.45118E+05
 0.71649994E+02  0.44992E+05
 0.71699997E+02  0.50463E+05
 0.71749992E+02  0.65903E+05
 0.71799995E+02  0.93972E+05
 0.71849998E+02  0.13082E+06
 0.71899994E+02  0.17165E+06
 0.71949997E+02  0.20918E+06
 0.71999992E+02  0.23839E+06
 0.72049995E+02  0.25908E+06
 0.72099998E+02  0.27193E+06
 0.72149994E+02  0.27574E+06
 0.72199997E+02  0.26492E+06
 0.72249992E+02  0.22909E+06
 0.72299995E+02  0.16569E+06
 0.72349998E+02  0.90122E+05
 0.72399994E+02  0.23673E+05
 0.72449997E+02 -0.23167E+05
 0.72499992E+02 -0.52112E+05
 0.72549995E+02 -0.71177E+05
 0.72599998E+02 -0.89446E+05
 0.72649994E+02 -0.10689E+06
 0.72699997E+02 -0.12051E+06
 0.72749992E+02 -0.13339E+06
 0.72799995E+02 -0.15014E+06
 0.72849998E+02 -0.16740E+06
 0.72899994E+02 -0.17712E+06
 0.72949997E+02 -0.18045E+06
 0.72999992E+02 -0.18538E+06
 0.73049995E+02 -0.19238E+06
 0.73099998E+02 -0.19854E+06
 0.73149994E+02 -0.20878E+06
 0.73199997E+02 -0.22251E+06
 0.73249992E+02 -0.23412E+06
 0.73299995E+02 -0.24522E+06
 0.73349998E+02 -0.25858E+06
 0.73399994E+02 -0.27360E+06
 0.73449997E+02 -0.28769E+06
 0.73499992E+02 -0.29922E+06
 0.73549995E+02 -0.30922E+06
 0.73599998E+02 -0.32591E+06
 0.73649994E+02 -0.35466E+06
 0.73699997E+02 -0.38841E+06
 0.73749992E+02 -0.41361E+06
 0.73799995E+02 -0.42137E+06
 0.73849998E+02 -0.41409E+06
 0.73899994E+02 -0.39668E+06
 0.73949997E+02 -0.37338E+06
 0.73999992E+02 -0.34474E+06
 0.74049995E+02 -0.30978E+06
 0.74099998E+02 -0.27271E+06
 0.74149994E+02 -0.23422E+06
 0.74199997E+02 -0.18804E+06
 0.74249992E+02 -0.13247E+06
 0.74299995E+02 -0.72472E+05
 0.74349998E+02 -0.14333E+05
 0.74399994E+02  0.41427E+05
 0.74449997E+02  0.96083E+05
 0.74499992E+02  0.14196E+06
 0.74549995E+02  0.16783E+06
 0.74599998E+02  0.16844E+06
 0.74649994E+02  0.15225E+06
 0.74699997E+02  0.13457E+06
 0.74749992E+02  0.12450E+06
 0.74799995E+02  0.12265E+06
 0.74849998E+02  0.12427E+06
 0.74899994E+02  0.12689E+06
 0.74949997E+02  0.12865E+06
 0.74999992E+02  0.12947E+06
 0.75049995E+02  0.12959E+06
 0.75099998E+02  0.12890E+06
 0.75149994E+02  0.12649E+06
 0.75199997E+02  0.12296E+06
 0.75249992E+02  0.12731E+06
 0.75299995E+02  0.14127E+06
 0.75349998E+02  0.15551E+06
 0.75399994E+02  0.16031E+06
 0.75449997E+02  0.15135E+06
 0.75499992E+02  0.13539E+06
 0.75549995E+02  0.12430E+06
 0.75599998E+02  0.12287E+06
 0.75649994E+02  0.12684E+06
 0.75699997E+02  0.12580E+06
 0.75749992E+02  0.11250E+06
 0.75799995E+02  0.88698E+05
 0.75849998E+02  0.60806E+05
 0.75899994E+02  0.35632E+05
 0.75949997E+02  0.19689E+05
 0.75999992E+02  0.16213E+05
 0.76049995E+02  0.26131E+05
 0.76099998E+02  0.47143E+05
 0.76149994E+02  0.69468E+05
 0.76199997E+02  0.84000E+05
 0.76249992E+02  0.88130E+05
 0.76299995E+02  0.85320E+05
 0.76349998E+02  0.83615E+05
 0.76399994E+02  0.87119E+05
 0.76449997E+02  0.91443E+05
 0.76499992E+02  0.88906E+05
 0.76549995E+02  0.73511E+05
 0.76599998E+02  0.48254E+05
 0.76649994E+02  0.24474E+05
 0.76699997E+02  0.11212E+05
 0.76749992E+02  0.10794E+05
 0.76799995E+02  0.19325E+05
 0.76849998E+02  0.28640E+05
 0.76899994E+02  0.32668E+05
 0.76949997E+02  0.28902E+05
 0.76999992E+02  0.16728E+05
 0.77049995E+02 -0.26173E+04
 0.77099998E+02 -0.23633E+05
 0.77149994E+02 -0.39645E+05
 0.77199997E+02 -0.45769E+05
 0.77249992E+02 -0.41201E+05
 0.77299995E+02 -0.28768E+05
 0.77349998E+02 -0.10762E+05
 0.77399994E+02  0.10453E+05
 0.77449997E+02  0.29197E+05
 0.77499992E+02  0.40488E+05
 0.77549995E+02  0.46830E+05
 0.77599998E+02  0.50525E+05
 0.77649994E+02  0.48887E+05
 0.77699997E+02  0.40765E+05
 0.77749992E+02  0.31963E+05
 0.77799995E+02  0.27575E+05
 0.77849998E+02  0.28210E+05
 0.77899994E+02  0.33627E+05
 0.77949997E+02  0.42887E+05
 0.77999992E+02  0.53056E+05
 0.78049995E+02  0.58569E+05
 0.78099998E+02  0.57062E+05
 0.78149994E+02  0.49314E+05
 0.78199997E+02  0.31486E+05
 0.78249992E+02  0.16253E+04
 0.78299995E+02 -0.34965E+05
 0.78349998E+02 -0.73671E+05
 0.78399994E+02 -0.11159E+06
 0.78449997E+02 -0.14413E+06
 0.78499992E+02 -0.16637E+06
 0.78549995E+02 -0.17539E+06
 0.78599998E+02 -0.17167E+06
 0.78649994E+02 -0.16018E+06
 0.78699997E+02 -0.14843E+06
 0.78749992E+02 -0.14078E+06
 0.78799995E+02 -0.13741E+06
 0.78849998E+02 -0.13683E+06
 0.78899994E+02 -0.13637E+06
 0.78949997E+02 -0.13640E+06
 0.78999992E+02 -0.13935E+06
 0.79049995E+02 -0.14496E+06
 0.79099998E+02 -0.15197E+06
 0.79149994E+02 -0.15741E+06
 0.79199997E+02 -0.15554E+06
 0.79249992E+02 -0.14243E+06
 0.79299995E+02 -0.12052E+06
 0.79349998E+02 -0.94940E+05
 0.79399994E+02 -0.67302E+05
 0.79449997E+02 -0.39807E+05
 0.79499992E+02 -0.16958E+05
 0.79549995E+02 -0.29450E+04
 0.79599998E+02  0.12592E+04
 0.79649994E+02 -0.28996E+04
 0.79699997E+02 -0.11606E+05
 0.79749992E+02 -0.20567E+05
 0.79799995E+02 -0.25975E+05
 0.79849998E+02 -0.25469E+05
 0.79899994E+02 -0.18730E+05
 0.79949997E+02 -0.54560E+04
 0.79999992E+02  0.13349E+05
 0.80049995E+02  0.36208E+05
 0.80099998E+02  0.61217E+05
 0.80149994E+02  0.86124E+05
 0.80199997E+02  0.10870E+06
 0.80249992E+02  0.12949E+06
 0.80299995E+02  0.14890E+06
 0.80349998E+02  0.16606E+06
 0.80399994E+02  0.17511E+06
 0.80449997E+02  0.16984E+06
 0.80499992E+02  0.15069E+06
 0.80549995E+02  0.12235E+06
 0.80599998E+02  0.93328E+05
 0.80649994E+02  0.70744E+05
 0.80699997E+02  0.56395E+05
 0.80749992E+02  0.47144E+05
 0.80799995E+02  0.40399E+05
 0.80849998E+02  0.35874E+05
 0.80899994E+02  0.32890E+05
 0.80949997E+02  0.32524E+05
 0.80999992E+02  0.34632E+05
 0.81049995E+02  0.38790E+05
 0.81099998E+02  0.48109E+05
 0.81149994E+02  0.63286E+05
 0.81199997E+02  0.81376E+05
 0.81249992E+02  0.96186E+05
 0.81299995E+02  0.10412E+06
 0.81349998E+02  0.10985E+06
 0.81399994E+02  0.11783E+06
 0.81449997E+02  0.12710E+06
 0.81499992E+02  0.13539E+06
 0.81549995E+02  0.14325E+06
 0.81599998E+02  0.14960E+06
 0.81649994E+02  0.14930E+06
 0.81699997E+02  0.14136E+06
 0.81749992E+02  0.13031E+06
 0.81799995E+02  0.11878E+06
 0.81849998E+02  0.10479E+06
 0.81899994E+02  0.87130E+05
 0.81949997E+02  0.66400E+05
 0.81999992E+02  0.45699E+05
 0.82049995E+02  0.28428E+05
 0.82099998E+02  0.12895E+05
 0.82149994E+02 -0.53684E+04
 0.82199997E+02 -0.26336E+05
 0.82249992E+02 -0.44595E+05
 0.82299995E+02 -0.55512E+05
 0.82349998E+02 -0.57333E+05
 0.82399994E+02 -0.51973E+05
 0.82449997E+02 -0.42599E+05
 0.82499992E+02 -0.31973E+05
 0.82549995E+02 -0.20686E+05
 0.82599998E+02 -0.93153E+04
 0.82649994E+02  0.23740E+03
 0.82699997E+02  0.71607E+04
 0.82749992E+02  0.87108E+04
 0.82799995E+02  0.33275E+04
 0.82849998E+02 -0.49918E+04
 0.82899994E+02 -0.10227E+05
 0.82949997E+02 -0.10348E+05
 0.82999992E+02 -0.58381E+04
 0.83049995E+02  0.10674E+04
 0.83099998E+02  0.68299E+04
 0.83149994E+02  0.87065E+04
 0.83199997E+02  0.61770E+04
 0.83249992E+02  0.18239E+04
 0.83299995E+02 -0.15887E+04
 0.83349998E+02 -0.14702E+04
 0.83399994E+02  0.22923E+04
 0.83449997E+02  0.76859E+04
 0.83499992E+02  0.12641E+05
 0.83549995E+02  0.15647E+05
 0.83599998E+02  0.14801E+05
 0.83649994E+02  0.93573E+04
 0.83699997E+02  0.10513E+04
 0.83749992E+02 -0.75797E+04
 0.83799995E+02 -0.16296E+05
 0.83849998E+02 -0.28732E+05
 0.83899994E+02 -0.48175E+05
 0.83949997E+02 -0.75346E+05
 0.83999992E+02 -0.10484E+06
 0.84049995E+02 -0.13108E+06
 0.84099998E+02 -0.15510E+06
 0.84149994E+02 -0.17792E+06
 0.84199997E+02 -0.19556E+06
 0.84249992E+02 -0.20426E+06
 0.84299995E+02 -0.20274E+06
 0.84349998E+02 -0.19150E+06
 0.84399994E+02 -0.17533E+06
 0.84449997E+02 -0.15924E+06
 0.84499992E+02 -0.14660E+06
 0.84549995E+02 -0.13806E+06
 0.84599998E+02 -0.13148E+06
 0.84649994E+02 -0.12380E+06
 0.84699997E+02 -0.11129E+06
 0.84749992E+02 -0.93334E+05
 0.84799995E+02 -0.73075E+05
 0.84849998E+02 -0.52036E+05
 0.84899994E+02 -0.30101E+05
 0.84949997E+02 -0.97885E+04
 0.84999992E+02  0.57331E+04
 0.85049995E+02  0.17045E+05
 0.85099998E+02  0.28614E+05
 0.85149994E+02  0.44349E+05
 0.85199997E+02  0.64289E+05
 0.85249992E+02  0.85902E+05
 0.85299995E+02  0.10668E+06
 0.85349998E+02  0.12473E+06
 0.85399994E+02  0.13711E+06
 0.85449997E+02  0.14098E+06
 0.85499992E+02  0.13554E+06
 0.85549995E+02  0.12363E+06
 0.85599998E+02  0.10992E+06
 0.85649994E+02  0.95068E+05
 0.85699997E+02  0.75529E+05
 0.85749992E+02  0.50262E+05
 0.85799995E+02  0.24663E+05
 0.85849998E+02  0.64930E+04
 0.85899994E+02  0.31874E+03
 0.85949997E+02  0.33824E+04
 0.85999992E+02  0.10483E+05
 0.86049995E+02  0.19322E+05
 0.86099998E+02  0.28976E+05
 0.86149994E+02  0.39373E+05
 0.86199997E+02  0.48688E+05
 0.86249992E+02  0.53556E+05
 0.86299995E+02  0.51586E+05
 0.86349998E+02  0.42617E+05
 0.86399994E+02  0.29158E+05
 0.86449997E+02  0.15355E+05
 0.86499992E+02  0.49621E+04
 0.86549995E+02 -0.50700E+03
 0.86599998E+02 -0.17715E+04
 0.86649994E+02  0.22091E+04
 0.86699997E+02  0.13066E+05
 0.86749992E+02  0.29937E+05
 0.86799995E+02  0.50381E+05
 0.86849998E+02  0.70725E+05
 0.86899994E+02  0.88466E+05
 0.86949997E+02  0.10203E+06
 0.86999992E+02  0.10961E+06
 0.87049995E+02  0.10968E+06
 0.87099998E+02  0.10185E+06
 0.87149994E+02  0.88822E+05
 0.87199997E+02  0.76187E+05
 0.87249992E+02  0.67909E+05
 0.87299995E+02  0.63924E+05
 0.87349998E+02  0.62677E+05
 0.87399994E+02  0.62636E+05
 0.87449997E+02  0.62096E+05
 0.87499992E+02  0.59157E+05
 0.87549995E+02  0.53170E+05
 0.87599991E+02  0.46071E+05
 0.87649994E+02  0.39649E+05
 0.87699997E+02  0.36672E+05
 0.87749992E+02  0.41109E+05
 0.87799995E+02  0.53503E+05
 0.87849991E+02  0.68807E+05
 0.87899994E+02  0.78612E+05
 0.87949997E+02  0.76510E+05
 0.87999992E+02  0.62756E+05
 0.88049995E+02  0.41487E+05
 0.88099991E+02  0.17724E+05
 0.88149994E+02 -0.44693E+04
 0.88199997E+02 -0.24848E+05
 0.88249992E+02 -0.43398E+05
 0.88299995E+02 -0.58509E+05
 0.88349991E+02 -0.67677E+05
 0.88399994E+02 -0.69379E+05
 0.88449997E+02 -0.63516E+05
 0.88499992E+02 -0.51571E+05
 0.88549995E+02 -0.36910E+05
 0.88599991E+02 -0.22890E+05
 0.88649994E+02 -0.12243E+05
 0.88699997E+02 -0.52949E+04
 0.88749992E+02 -0.47118E+03
 0.88799995E+02  0.33342E+04
 0.88849991E+02  0.75056E+04
 0.88899994E+02  0.11781E+05
 0.88949997E+02  0.13326E+05
 0.88999992E+02  0.10684E+05
 0.89049995E+02  0.48468E+04
 0.89099991E+02 -0.33136E+04
 0.89149994E+02 -0.14884E+05
 0.89199997E+02 -0.30579E+05
 0.89249992E+02 -0.48651E+05
 0.89299995E+02 -0.66565E+05
 0.89349991E+02 -0.82500E+05
 0.89399994E+02 -0.95191E+05
 0.89449997E+02 -0.10323E+06
 0.89499992E+02 -0.10815E+06
 0.89549995E+02 -0.11247E+06
 0.89599991E+02 -0.11601E+06
 0.89649994E+02 -0.11707E+06
 0.89699997E+02 -0.11310E+06
 0.89749992E+02 -0.10362E+06
 0.89799995E+02 -0.91627E+05
 0.89849991E+02 -0.81851E+05
 0.89899994E+02 -0.78404E+05
 0.89949997E+02 -0.81564E+05
 0.89999992E+02 -0.87584E+05
 0.90049995E+02 -0.93414E+05
 0.90099991E+02 -0.97980E+05
 0.90149994E+02 -0.10102E+06
 0.90199997E+02 -0.99777E+05
 0.90249992E+02 -0.90603E+05
 0.90299995E+02 -0.72563E+05
 0.90349991E+02 -0.48944E+05
 0.90399994E+02 -0.26917E+05
 0.90449997E+02 -0.12007E+05
 0.90499992E+02 -0.59999E+04
 0.90549995E+02 -0.80178E+04
 0.90599991E+02 -0.15253E+05
 0.90649994E+02 -0.24054E+05
 0.90699997E+02 -0.32648E+05
 0.90749992E+02 -0.41731E+05
 0.90799995E+02 -0.51304E+05
 0.90849991E+02 -0.60039E+05
 0.90899994E+02 -0.66684E+05
 0.90949997E+02 -0.70083E+05
 0.90999992E+02 -0.69069E+05
 0.91049995E+02 -0.62255E+05
 0.91099991E+02 -0.50673E+05
 0.91149994E+02 -0.38046E+05
 0.91199997E+02 -0.28684E+05
 0.91249992E+02 -0.25748E+05
 0.91299995E+02 -0.29435E+05
 0.91349991E+02 -0.37779E+05
 0.91399994E+02 -0.47766E+05
 0.91449997E+02 -0.56279E+05
 0.91499992E+02 -0.61623E+05
 0.91549995E+02 -0.63260E+05
 0.91599991E+02 -0.61260E+05
 0.91649994E+02 -0.55356E+05
 0.91699997E+02 -0.46035E+05
 0.91749992E+02 -0.32865E+05
 0.91799995E+02 -0.14754E+05
 0.91849991E+02  0.58392E+04
 0.91899994E+02  0.24244E+05
 0.91949997E+02  0.35337E+05
 0.91999992E+02  0.36418E+05
 0.92049995E+02  0.29627E+05
 0.92099991E+02  0.18579E+05
 0.92149994E+02  0.51042E+04
 0.92199997E+02 -0.92221E+04
 0.92249992E+02 -0.24229E+05
 0.92299995E+02 -0.40125E+05
 0.92349991E+02 -0.55699E+05
 0.92399994E+02 -0.68703E+05
 0.92449997E+02 -0.75879E+05
 0.92499992E+02 -0.76003E+05
 0.92549995E+02 -0.70795E+05
 0.92599991E+02 -0.61799E+05
 0.92649994E+02 -0.49986E+05
 0.92699997E+02 -0.37030E+05
 0.92749992E+02 -0.24530E+05
 0.92799995E+02 -0.11570E+05
 0.92849991E+02  0.44009E+04
 0.92899994E+02  0.24355E+05
 0.92949997E+02  0.46878E+05
 0.92999992E+02  0.68418E+05
 0.93049995E+02  0.85689E+05
 0.93099991E+02  0.97049E+05
 0.93149994E+02  0.10291E+06
 0.93199997E+02  0.10400E+06
 0.93249992E+02  0.10046E+06
 0.93299995E+02  0.93378E+05
 0.93349991E+02  0.83730E+05
 0.93399994E+02  0.72086E+05
 0.93449997E+02  0.59651E+05
 0.93499992E+02  0.48351E+05
 0.93549995E+02  0.40046E+05
 0.93599991E+02  0.36576E+05
 0.93649994E+02  0.39330E+05
 0.93699997E+02  0.47490E+05
 0.93749992E+02  0.58815E+05
 0.93799995E+02  0.71098E+05
 0.93849991E+02  0.82920E+05
 0.93899994E+02  0.93632E+05
 0.93949997E+02  0.10345E+06
 0.93999992E+02  0.11276E+06
 0.94049995E+02  0.12064E+06
 0.94099991E+02  0.12619E+06
 0.94149994E+02  0.12857E+06
 0.94199997E+02  0.12665E+06
 0.94249992E+02  0.11999E+06
 0.94299995E+02  0.10968E+06
 0.94349991E+02  0.97358E+05
 0.94399994E+02  0.83479E+05
 0.94449997E+02  0.67691E+05
 0.94499992E+02  0.49526E+05
 0.94549995E+02  0.29799E+05
 0.94599991E+02  0.10914E+05
 0.94649994E+02 -0.46552E+04
 0.94699997E+02 -0.15295E+05
 0.94749992E+02 -0.19826E+05
 0.94799995E+02 -0.19028E+05
 0.94849991E+02 -0.14382E+05
 0.94899994E+02 -0.64245E+04
 0.94949997E+02  0.41946E+04
 0.94999992E+02  0.17008E+05
 0.95049995E+02  0.29866E+05
 0.95099991E+02  0.39121E+05
 0.95149994E+02  0.42441E+05
 0.95199997E+02  0.41133E+05
 0.95249992E+02  0.38375E+05
 0.95299995E+02  0.35279E+05
 0.95349991E+02  0.30258E+05
 0.95399994E+02  0.20166E+05
 0.95449997E+02  0.39573E+04
 0.95499992E+02 -0.15698E+05
 0.95549995E+02 -0.36045E+05
 0.95599991E+02 -0.55836E+05
 0.95649994E+02 -0.72416E+05
 0.95699997E+02 -0.82881E+05
 0.95749992E+02 -0.87339E+05
 0.95799995E+02 -0.87259E+05
 0.95849991E+02 -0.84537E+05
 0.95899994E+02 -0.81341E+05
 0.95949997E+02 -0.78620E+05
 0.95999992E+02 -0.76326E+05
 0.96049995E+02 -0.73768E+05
 0.96099991E+02 -0.70900E+05
 0.96149994E+02 -0.67567E+05
 0.96199997E+02 -0.62574E+05
 0.96249992E+02 -0.55345E+05
 0.96299995E+02 -0.45602E+05
 0.96349991E+02 -0.34470E+05
 0.96399994E+02 -0.23302E+05
 0.96449997E+02 -0.11475E+05
 0.96499992E+02  0.19125E+04
 0.96549995E+02  0.16447E+05
 0.96599991E+02  0.30735E+05
 0.96649994E+02  0.43374E+05
 0.96699997E+02  0.54685E+05
 0.96749992E+02  0.66851E+05
 0.96799995E+02  0.79633E+05
 0.96849991E+02  0.90974E+05
 0.96899994E+02  0.99977E+05
 0.96949997E+02  0.10579E+06
 0.96999992E+02  0.10785E+06
 0.97049995E+02  0.10692E+06
 0.97099991E+02  0.10374E+06
 0.97149994E+02  0.99432E+05
 0.97199997E+02  0.95837E+05
 0.97249992E+02  0.93565E+05
 0.97299995E+02  0.91848E+05
 0.97349991E+02  0.89270E+05
 0.97399994E+02  0.85777E+05
 0.97449997E+02  0.82661E+05
 0.97499992E+02  0.81434E+05
 0.97549995E+02  0.81867E+05
 0.97599991E+02  0.81928E+05
 0.97649994E+02  0.81356E+05
 0.97699997E+02  0.80877E+05
 0.97749992E+02  0.80365E+05
 0.97799995E+02  0.79496E+05
 0.97849991E+02  0.78478E+05
 0.97899994E+02  0.77962E+05
 0.97949997E+02  0.77609E+05
 0.97999992E+02  0.75601E+05
