-0.19800000E+01  0.82727E+05
-0.19300001E+01  0.84905E+05
-0.18800000E+01  0.86112E+05
-0.18300000E+01  0.87140E+05
-0.17800000E+01  0.88361E+05
-0.17300000E+01  0.89186E+05
-0.16800001E+01  0.89261E+05
-0.16300000E+01  0.88263E+05
-0.15800000E+01  0.86016E+05
-0.15300000E+01  0.82447E+05
-0.14800000E+01  0.77361E+05
-0.14300001E+01  0.71417E+05
-0.13800000E+01  0.65425E+05
-0.13299999E+01  0.59295E+05
-0.12800000E+01  0.52523E+05
-0.12300000E+01  0.45225E+05
-0.11800001E+01  0.38366E+05
-0.11300000E+01  0.32539E+05
-0.10799999E+01  0.27477E+05
-0.10300000E+01  0.22916E+05
-0.98000002E+00  0.19087E+05
-0.92999995E+00  0.16187E+05
-0.88000000E+00  0.13932E+05
-0.83000004E+00  0.12026E+05
-0.77999997E+00  0.10389E+05
-0.73000002E+00  0.90270E+04
-0.67999995E+00  0.77770E+04
-0.63000000E+00  0.63250E+04
-0.58000004E+00  0.48310E+04
-0.52999997E+00  0.35410E+04
-0.48000002E+00  0.24540E+04
-0.42999995E+00  0.17670E+04
-0.38000000E+00  0.16950E+04
-0.33000004E+00  0.18910E+04
-0.27999997E+00  0.14590E+04
-0.23000002E+00 -0.33500E+03
-0.17999995E+00 -0.35800E+04
-0.13000000E+00 -0.79030E+04
-0.80000043E-01 -0.12624E+05
-0.29999971E-01 -0.16954E+05
 0.19999981E-01 -0.20274E+05
 0.69999933E-01 -0.22154E+05
 0.12000012E+00 -0.22601E+05
 0.17000008E+00 -0.22010E+05
 0.22000003E+00 -0.20561E+05
 0.26999998E+00 -0.17919E+05
 0.31999993E+00 -0.14074E+05
 0.37000012E+00 -0.95850E+04
 0.42000008E+00 -0.48470E+04
 0.47000003E+00 -0.39000E+03
 0.51999998E+00  0.33810E+04
 0.56999993E+00  0.65020E+04
 0.62000012E+00  0.92310E+04
 0.67000008E+00  0.11843E+05
 0.72000003E+00  0.14423E+05
 0.76999998E+00  0.16860E+05
 0.81999993E+00  0.18820E+05
 0.87000012E+00  0.20140E+05
 0.92000008E+00  0.20693E+05
 0.97000003E+00  0.20542E+05
 0.10200000E+01  0.19593E+05
 0.10699999E+01  0.17203E+05
 0.11200001E+01  0.13227E+05
 0.11700001E+01  0.83630E+04
 0.12200000E+01  0.34880E+04
 0.12700000E+01 -0.12030E+04
 0.13199999E+01 -0.58320E+04
 0.13700001E+01 -0.10429E+05
 0.14200001E+01 -0.15168E+05
 0.14700000E+01 -0.20329E+05
 0.15200000E+01 -0.26241E+05
 0.15699999E+01 -0.32563E+05
 0.16200001E+01 -0.38490E+05
 0.16700001E+01 -0.43877E+05
 0.17200000E+01 -0.48914E+05
 0.17700000E+01 -0.53297E+05
 0.18199999E+01 -0.56877E+05
 0.18700001E+01 -0.59624E+05
 0.19200001E+01 -0.61023E+05
 0.19700000E+01 -0.61402E+05
 0.20200000E+01 -0.61508E+05
 0.20700002E+01 -0.61409E+05
 0.21199999E+01 -0.61232E+05
 0.21700001E+01 -0.60779E+05
 0.22200003E+01 -0.60114E+05
 0.22700000E+01 -0.59666E+05
 0.23200002E+01 -0.58881E+05
 0.23699999E+01 -0.57269E+05
 0.24200001E+01 -0.55067E+05
 0.24700003E+01 -0.52127E+05
 0.25200000E+01 -0.48003E+05
 0.25700002E+01 -0.42778E+05
 0.26199999E+01 -0.36837E+05
 0.26700001E+01 -0.30634E+05
 0.27200003E+01 -0.24242E+05
 0.27700000E+01 -0.17664E+05
 0.28200002E+01 -0.11423E+05
 0.28699999E+01 -0.57000E+04
 0.29200001E+01 -0.44900E+03
 0.29700003E+01  0.44000E+04
 0.30200000E+01  0.91560E+04
 0.30700002E+01  0.14214E+05
 0.31199999E+01  0.19311E+05
 0.31700001E+01  0.23686E+05
 0.32200003E+01  0.27209E+05
 0.32700000E+01  0.30058E+05
 0.33200002E+01  0.32362E+05
 0.33699999E+01  0.34475E+05
 0.34200001E+01  0.36777E+05
 0.34700003E+01  0.39167E+05
 0.35200000E+01  0.41200E+05
 0.35700002E+01  0.42398E+05
 0.36199999E+01  0.42561E+05
 0.36700001E+01  0.41931E+05
 0.37200003E+01  0.40636E+05
 0.37700000E+01  0.38573E+05
 0.38200002E+01  0.35846E+05
 0.38699999E+01  0.32893E+05
 0.39200001E+01  0.30028E+05
 0.39700003E+01  0.27259E+05
 0.40200000E+01  0.24771E+05
 0.40700002E+01  0.23215E+05
 0.41199999E+01  0.23142E+05
 0.41700001E+01  0.24240E+05
 0.42200003E+01  0.25637E+05
 0.42700000E+01  0.26653E+05
 0.43200002E+01  0.26729E+05
 0.43699999E+01  0.25813E+05
 0.44200001E+01  0.24470E+05
 0.44700003E+01  0.23079E+05
 0.45200000E+01  0.22093E+05
 0.45700002E+01  0.21856E+05
 0.46199999E+01  0.22431E+05
 0.46700001E+01  0.23948E+05
 0.47200003E+01  0.25789E+05
 0.47700000E+01  0.26797E+05
 0.48200002E+01  0.26389E+05
 0.48699999E+01  0.24718E+05
 0.49200001E+01  0.22255E+05
 0.49700003E+01  0.19447E+05
 0.50200000E+01  0.16441E+05
 0.50700002E+01  0.12974E+05
 0.51199999E+01  0.87330E+04
 0.51700001E+01  0.38610E+04
 0.52200003E+01 -0.13760E+04
 0.52700000E+01 -0.69650E+04
 0.53200002E+01 -0.12551E+05
 0.53699999E+01 -0.17737E+05
 0.54200001E+01 -0.22526E+05
 0.54700003E+01 -0.26951E+05
 0.55200000E+01 -0.31312E+05
 0.55700002E+01 -0.35880E+05
 0.56199999E+01 -0.40653E+05
 0.56700001E+01 -0.45631E+05
 0.57200003E+01 -0.50607E+05
 0.57700000E+01 -0.55385E+05
 0.58200002E+01 -0.59730E+05
 0.58699999E+01 -0.63356E+05
 0.59200001E+01 -0.66208E+05
 0.59700003E+01 -0.68494E+05
 0.60200000E+01 -0.70613E+05
 0.60700002E+01 -0.72806E+05
 0.61200004E+01 -0.75071E+05
 0.61700006E+01 -0.77077E+05
 0.62199998E+01 -0.78300E+05
 0.62700000E+01 -0.78061E+05
 0.63200002E+01 -0.75897E+05
 0.63700004E+01 -0.71750E+05
 0.64200006E+01 -0.65578E+05
 0.64699998E+01 -0.57965E+05
 0.65200000E+01 -0.49554E+05
 0.65700002E+01 -0.40532E+05
 0.66200004E+01 -0.31296E+05
 0.66700006E+01 -0.22164E+05
 0.67199998E+01 -0.13298E+05
 0.67700000E+01 -0.51200E+04
 0.68200002E+01  0.21300E+04
 0.68700004E+01  0.85110E+04
 0.69200006E+01  0.13819E+05
 0.69699998E+01  0.18204E+05
 0.70200000E+01  0.21853E+05
 0.70700002E+01  0.24405E+05
 0.71200004E+01  0.26053E+05
 0.71700006E+01  0.27282E+05
 0.72199998E+01  0.27886E+05
 0.72700000E+01  0.27517E+05
 0.73200002E+01  0.26510E+05
 0.73700004E+01  0.25420E+05
 0.74200006E+01  0.24115E+05
 0.74699998E+01  0.22257E+05
 0.75200000E+01  0.20282E+05
 0.75700002E+01  0.18494E+05
 0.76200004E+01  0.16759E+05
 0.76700006E+01  0.15390E+05
 0.77199998E+01  0.14561E+05
 0.77700000E+01  0.14248E+05
 0.78200002E+01  0.14675E+05
 0.78700004E+01  0.15865E+05
 0.79200006E+01  0.17539E+05
 0.79699998E+01  0.19296E+05
 0.80200005E+01  0.20817E+05
 0.80699997E+01  0.22041E+05
 0.81200008E+01  0.22945E+05
 0.81700001E+01  0.23619E+05
 0.82199993E+01  0.24257E+05
 0.82700005E+01  0.24909E+05
 0.83199997E+01  0.25650E+05
 0.83700008E+01  0.26262E+05
 0.84200001E+01  0.26329E+05
 0.84699993E+01  0.25745E+05
 0.85200005E+01  0.24521E+05
 0.85699997E+01  0.22830E+05
 0.86200008E+01  0.20919E+05
 0.86700001E+01  0.18812E+05
 0.87199993E+01  0.16584E+05
 0.87700005E+01  0.14176E+05
 0.88199997E+01  0.11550E+05
 0.88700008E+01  0.88880E+04
 0.89200001E+01  0.63120E+04
 0.89699993E+01  0.39730E+04
 0.90200005E+01  0.16450E+04
 0.90699997E+01 -0.82800E+03
 0.91200008E+01 -0.30070E+04
 0.91700001E+01 -0.43420E+04
 0.92199993E+01 -0.45410E+04
 0.92700005E+01 -0.38170E+04
 0.93199997E+01 -0.25230E+04
 0.93700008E+01 -0.86600E+03
 0.94200001E+01  0.13420E+04
 0.94699993E+01  0.45020E+04
 0.95200005E+01  0.87010E+04
 0.95699997E+01  0.13904E+05
 0.96200008E+01  0.20058E+05
 0.96700001E+01  0.26954E+05
 0.97199993E+01  0.34181E+05
 0.97700005E+01  0.41226E+05
 0.98199997E+01  0.47488E+05
 0.98700008E+01  0.52377E+05
 0.99200001E+01  0.55648E+05
 0.99699993E+01  0.57246E+05
 0.10020000E+02  0.57190E+05
 0.10070000E+02  0.55615E+05
 0.10120001E+02  0.52696E+05
 0.10170000E+02  0.48788E+05
 0.10219999E+02  0.44022E+05
 0.10270000E+02  0.38244E+05
 0.10320000E+02  0.31582E+05
 0.10370001E+02  0.24369E+05
 0.10420000E+02  0.16838E+05
 0.10469999E+02  0.91360E+04
 0.10520000E+02  0.16700E+04
 0.10570000E+02 -0.52920E+04
 0.10620001E+02 -0.11840E+05
 0.10670000E+02 -0.18046E+05
 0.10719999E+02 -0.23971E+05
 0.10770000E+02 -0.29438E+05
 0.10820000E+02 -0.34238E+05
 0.10870001E+02 -0.38273E+05
 0.10920000E+02 -0.41195E+05
 0.10969999E+02 -0.42653E+05
 0.11020000E+02 -0.42467E+05
 0.11070000E+02 -0.40591E+05
 0.11120001E+02 -0.37329E+05
 0.11170000E+02 -0.33190E+05
 0.11219999E+02 -0.28623E+05
 0.11270000E+02 -0.24162E+05
 0.11320000E+02 -0.20459E+05
 0.11370001E+02 -0.17715E+05
 0.11420000E+02 -0.15252E+05
 0.11469999E+02 -0.12727E+05
 0.11520000E+02 -0.10509E+05
 0.11570000E+02 -0.85950E+04
 0.11620001E+02 -0.70840E+04
 0.11670000E+02 -0.64080E+04
 0.11719999E+02 -0.67860E+04
 0.11770000E+02 -0.80170E+04
 0.11820000E+02 -0.97410E+04
 0.11870001E+02 -0.11674E+05
 0.11920000E+02 -0.13341E+05
 0.11969999E+02 -0.14773E+05
 0.12020000E+02 -0.16589E+05
 0.12070000E+02 -0.19390E+05
 0.12120001E+02 -0.23317E+05
 0.12170000E+02 -0.27730E+05
 0.12219999E+02 -0.31743E+05
 0.12270000E+02 -0.34677E+05
 0.12320000E+02 -0.36233E+05
 0.12370001E+02 -0.36340E+05
 0.12420000E+02 -0.35248E+05
 0.12469999E+02 -0.33434E+05
 0.12520000E+02 -0.31197E+05
 0.12570000E+02 -0.28819E+05
 0.12620001E+02 -0.26481E+05
 0.12670000E+02 -0.24269E+05
 0.12719999E+02 -0.22285E+05
 0.12770000E+02 -0.20754E+05
 0.12820000E+02 -0.19841E+05
 0.12870001E+02 -0.19093E+05
 0.12920000E+02 -0.17827E+05
 0.12969999E+02 -0.15899E+05
 0.13020000E+02 -0.13473E+05
 0.13070000E+02 -0.10514E+05
 0.13120001E+02 -0.72560E+04
 0.13170000E+02 -0.41380E+04
 0.13219999E+02 -0.11910E+04
 0.13270000E+02  0.14790E+04
 0.13320000E+02  0.34020E+04
 0.13370001E+02  0.45210E+04
 0.13420000E+02  0.54430E+04
 0.13469999E+02  0.68200E+04
 0.13520000E+02  0.89240E+04
 0.13570000E+02  0.11631E+05
 0.13620001E+02  0.14805E+05
 0.13670000E+02  0.18302E+05
 0.13719999E+02  0.21967E+05
 0.13770000E+02  0.25694E+05
 0.13820000E+02  0.29088E+05
 0.13870001E+02  0.31506E+05
 0.13920000E+02  0.32596E+05
 0.13969999E+02  0.32637E+05
 0.14020000E+02  0.32144E+05
 0.14070002E+02  0.31520E+05
 0.14120001E+02  0.30890E+05
 0.14170000E+02  0.30134E+05
 0.14220001E+02  0.29405E+05
 0.14270000E+02  0.28907E+05
 0.14320002E+02  0.28607E+05
 0.14370001E+02  0.28683E+05
 0.14420000E+02  0.29415E+05
 0.14470001E+02  0.30780E+05
 0.14520000E+02  0.32452E+05
 0.14570002E+02  0.34029E+05
 0.14620001E+02  0.35222E+05
 0.14670000E+02  0.36315E+05
 0.14720001E+02  0.37976E+05
 0.14770000E+02  0.40250E+05
 0.14820002E+02  0.42694E+05
 0.14870001E+02  0.44918E+05
 0.14920000E+02  0.46580E+05
 0.14970001E+02  0.47086E+05
 0.15020000E+02  0.46198E+05
 0.15070002E+02  0.44283E+05
 0.15120001E+02  0.41577E+05
 0.15170000E+02  0.38525E+05
 0.15220001E+02  0.35742E+05
 0.15270000E+02  0.33411E+05
 0.15320002E+02  0.31149E+05
 0.15370001E+02  0.28457E+05
 0.15420000E+02  0.25157E+05
 0.15470001E+02  0.21241E+05
 0.15520000E+02  0.16860E+05
 0.15570002E+02  0.12434E+05
 0.15620001E+02  0.80910E+04
 0.15670000E+02  0.35410E+04
 0.15720001E+02 -0.11820E+04
 0.15770000E+02 -0.60090E+04
 0.15820002E+02 -0.10962E+05
 0.15870001E+02 -0.15919E+05
 0.15920000E+02 -0.20702E+05
 0.15970001E+02 -0.25066E+05
 0.16020000E+02 -0.29200E+05
 0.16070002E+02 -0.33586E+05
 0.16120001E+02 -0.38395E+05
 0.16170000E+02 -0.43444E+05
 0.16220001E+02 -0.48671E+05
 0.16270000E+02 -0.54244E+05
 0.16320002E+02 -0.59945E+05
 0.16370001E+02 -0.65343E+05
 0.16420000E+02 -0.70386E+05
 0.16470001E+02 -0.75308E+05
 0.16520000E+02 -0.80272E+05
 0.16570002E+02 -0.85372E+05
 0.16620001E+02 -0.90373E+05
 0.16670000E+02 -0.94627E+05
 0.16720001E+02 -0.97424E+05
 0.16770000E+02 -0.98353E+05
 0.16820002E+02 -0.97837E+05
 0.16870001E+02 -0.96193E+05
 0.16920000E+02 -0.93203E+05
 0.16970001E+02 -0.89002E+05
 0.17020000E+02 -0.83685E+05
 0.17070002E+02 -0.77397E+05
 0.17120001E+02 -0.70364E+05
 0.17170000E+02 -0.62409E+05
 0.17220001E+02 -0.53669E+05
 0.17270000E+02 -0.44746E+05
 0.17320002E+02 -0.36102E+05
 0.17370001E+02 -0.27955E+05
 0.17420000E+02 -0.20593E+05
 0.17470001E+02 -0.13275E+05
 0.17520000E+02 -0.40000E+04
 0.17570002E+02  0.97110E+04
 0.17620001E+02  0.29181E+05
 0.17670000E+02  0.53850E+05
 0.17720001E+02  0.81575E+05
 0.17770000E+02  0.10361E+06
 0.17820002E+02  0.11199E+06
 0.17870001E+02  0.10827E+06
 0.17920000E+02  0.97327E+05
 0.17970001E+02  0.88353E+05
 0.18020000E+02  0.94565E+05
 0.18070002E+02  0.11354E+06
 0.18120001E+02  0.12957E+06
 0.18170000E+02  0.14081E+06
 0.18220001E+02  0.14477E+06
 0.18270000E+02  0.13648E+06
 0.18320002E+02  0.12306E+06
 0.18370001E+02  0.11604E+06
 0.18420000E+02  0.12011E+06
 0.18470001E+02  0.13417E+06
 0.18520000E+02  0.17213E+06
 0.18570002E+02  0.22208E+06
 0.18620001E+02  0.25586E+06
 0.18670000E+02  0.25645E+06
 0.18720001E+02  0.25855E+06
 0.18770000E+02  0.29718E+06
 0.18820002E+02  0.30072E+06
 0.18870001E+02  0.25415E+06
 0.18920000E+02  0.16554E+06
 0.18970001E+02  0.38757E+05
 0.19020000E+02 -0.99211E+05
 0.19070002E+02 -0.21143E+06
 0.19120001E+02 -0.24262E+06
 0.19170000E+02 -0.30465E+06
 0.19220001E+02 -0.47848E+06
 0.19270000E+02 -0.68799E+06
 0.19320002E+02 -0.85086E+06
 0.19370001E+02 -0.95061E+06
 0.19420000E+02 -0.94440E+06
 0.19470001E+02 -0.79482E+06
 0.19520000E+02 -0.66382E+06
 0.19570002E+02 -0.62918E+06
 0.19620001E+02 -0.61289E+06
 0.19670000E+02 -0.43218E+06
 0.19720001E+02 -0.51872E+05
 0.19770000E+02  0.23085E+06
 0.19820002E+02  0.37435E+06
 0.19870001E+02  0.52320E+06
 0.19920000E+02  0.66776E+06
 0.19970001E+02  0.85244E+06
 0.20020000E+02  0.10091E+07
 0.20070002E+02  0.92744E+06
 0.20120001E+02  0.78568E+06
 0.20170000E+02  0.67822E+06
 0.20220001E+02  0.63417E+06
 0.20270000E+02  0.70662E+06
 0.20320002E+02  0.48665E+06
 0.20370001E+02  0.22343E+06
 0.20420000E+02  0.20090E+06
 0.20470001E+02  0.37627E+05
 0.20520000E+02 -0.12111E+06
 0.20570002E+02 -0.19507E+06
 0.20620001E+02 -0.31897E+06
 0.20670000E+02 -0.27558E+06
 0.20720001E+02 -0.26458E+06
 0.20770000E+02 -0.46954E+06
 0.20820002E+02 -0.64801E+06
 0.20870001E+02 -0.78473E+06
 0.20920000E+02 -0.81195E+06
 0.20970001E+02 -0.93292E+06
 0.21020000E+02 -0.11594E+07
 0.21070002E+02 -0.10033E+07
 0.21120001E+02 -0.71403E+06
 0.21170000E+02 -0.44086E+06
 0.21220001E+02 -0.93855E+05
 0.21270000E+02  0.57189E+05
 0.21320002E+02  0.21554E+06
 0.21370001E+02  0.64084E+06
 0.21420000E+02  0.91756E+06
 0.21470001E+02  0.79675E+06
 0.21520000E+02  0.67050E+06
 0.21570002E+02  0.62644E+06
 0.21620001E+02  0.58333E+06
 0.21670000E+02  0.62208E+06
 0.21720001E+02  0.60492E+06
 0.21770000E+02  0.32775E+06
 0.21820002E+02 -0.10620E+06
 0.21870001E+02 -0.16918E+06
 0.21920000E+02 -0.33010E+04
 0.21970001E+02 -0.25194E+06
 0.22020000E+02 -0.65577E+06
 0.22070002E+02 -0.76222E+06
 0.22120001E+02 -0.59412E+06
 0.22170000E+02 -0.38714E+06
 0.22220001E+02 -0.26017E+06
 0.22270000E+02 -0.15910E+06
 0.22320002E+02 -0.15442E+06
 0.22370001E+02 -0.95667E+05
 0.22420000E+02  0.17871E+06
 0.22470001E+02  0.31336E+06
 0.22520000E+02  0.21879E+06
 0.22570002E+02  0.33899E+05
 0.22620001E+02 -0.44414E+06
 0.22670000E+02 -0.89640E+06
 0.22720001E+02 -0.86437E+06
 0.22770000E+02 -0.38690E+06
 0.22820002E+02  0.57373E+05
 0.22870001E+02  0.33300E+06
 0.22920000E+02  0.84095E+06
 0.22970001E+02  0.11264E+07
 0.23020000E+02  0.82100E+06
 0.23070002E+02  0.41506E+06
 0.23120001E+02  0.80341E+05
 0.23170000E+02 -0.41259E+06
 0.23220001E+02 -0.75709E+06
 0.23270000E+02 -0.56040E+06
 0.23320002E+02 -0.21944E+06
 0.23370001E+02 -0.80263E+05
 0.23420000E+02 -0.10944E+06
 0.23470001E+02 -0.49769E+05
 0.23520000E+02  0.19561E+05
 0.23570002E+02 -0.41566E+06
 0.23620001E+02 -0.87888E+06
 0.23670000E+02 -0.76580E+06
 0.23720001E+02 -0.14722E+06
 0.23770000E+02  0.36600E+06
 0.23820002E+02  0.36359E+06
 0.23870001E+02  0.43737E+06
 0.23920000E+02  0.58588E+06
 0.23970001E+02  0.51625E+06
 0.24020000E+02  0.32163E+06
 0.24070002E+02  0.14058E+06
 0.24120001E+02  0.15749E+06
 0.24170000E+02  0.19954E+05
 0.24220001E+02 -0.35832E+06
 0.24270000E+02 -0.57860E+06
 0.24320002E+02 -0.46022E+06
 0.24370001E+02  0.93593E+05
 0.24420000E+02  0.45138E+06
 0.24470001E+02  0.39638E+06
 0.24520000E+02  0.48178E+06
 0.24570002E+02  0.84075E+06
 0.24620001E+02  0.97345E+06
 0.24670000E+02  0.72412E+06
 0.24720001E+02  0.65484E+06
 0.24770000E+02  0.29259E+06
 0.24820002E+02 -0.22350E+06
 0.24870001E+02 -0.49372E+06
 0.24920000E+02 -0.53341E+06
 0.24970001E+02 -0.29953E+06
 0.25020000E+02 -0.31632E+06
 0.25070002E+02 -0.75573E+05
 0.25120001E+02  0.99939E+05
 0.25170000E+02 -0.36143E+06
 0.25220001E+02 -0.62335E+06
 0.25270000E+02 -0.48850E+06
 0.25320002E+02 -0.18847E+06
 0.25370001E+02 -0.24761E+05
 0.25420000E+02  0.10741E+06
 0.25470001E+02  0.40685E+06
 0.25520000E+02  0.61714E+06
 0.25570002E+02  0.89437E+06
 0.25620001E+02  0.12828E+07
 0.25670000E+02  0.12347E+07
 0.25720001E+02  0.80017E+06
 0.25770000E+02  0.51349E+06
 0.25820002E+02  0.24298E+06
 0.25870001E+02  0.13166E+06
 0.25920000E+02  0.34806E+06
 0.25970001E+02  0.60910E+06
 0.26020000E+02  0.77778E+06
 0.26070002E+02  0.85937E+06
 0.26120001E+02  0.70969E+06
 0.26170000E+02  0.26746E+06
 0.26220001E+02 -0.77722E+05
 0.26270000E+02 -0.46509E+06
 0.26320002E+02 -0.83199E+06
 0.26370001E+02 -0.68391E+06
 0.26420000E+02 -0.21519E+06
 0.26470001E+02  0.13971E+06
 0.26520000E+02  0.33693E+06
 0.26570002E+02  0.53229E+06
 0.26620001E+02  0.72509E+06
 0.26670000E+02  0.89733E+06
 0.26720001E+02  0.11174E+07
 0.26770000E+02  0.13697E+07
 0.26820002E+02  0.13300E+07
 0.26870001E+02  0.99416E+06
 0.26920000E+02  0.77738E+06
 0.26970001E+02  0.55214E+06
 0.27020000E+02  0.27918E+06
 0.27070002E+02  0.14571E+06
 0.27120001E+02 -0.10103E+06
 0.27170000E+02 -0.21268E+06
 0.27220001E+02  0.46718E+05
 0.27270000E+02  0.45846E+06
 0.27320002E+02  0.78521E+06
 0.27370001E+02  0.61964E+06
 0.27420000E+02  0.78357E+05
 0.27470001E+02 -0.20762E+06
 0.27520000E+02  0.55900E+05
 0.27570002E+02  0.43568E+06
 0.27620001E+02  0.45759E+06
 0.27670000E+02  0.25567E+06
 0.27720001E+02  0.25566E+06
 0.27770000E+02  0.14179E+06
 0.27820002E+02 -0.22256E+06
 0.27870001E+02 -0.31414E+06
 0.27920000E+02 -0.20550E+06
 0.27970001E+02  0.68930E+04
 0.28020000E+02 -0.13014E+06
 0.28070002E+02 -0.63240E+06
 0.28120001E+02 -0.90808E+06
 0.28170000E+02 -0.87734E+06
 0.28220001E+02 -0.52005E+06
 0.28270000E+02 -0.10353E+06
 0.28320002E+02  0.10529E+05
 0.28370001E+02 -0.19624E+06
 0.28420000E+02 -0.23840E+06
 0.28470001E+02 -0.11843E+06
 0.28520000E+02  0.57594E+05
 0.28570002E+02  0.36659E+06
 0.28620001E+02  0.56998E+06
 0.28670000E+02  0.85244E+06
 0.28720001E+02  0.84120E+06
 0.28770000E+02  0.32822E+06
 0.28820002E+02 -0.12358E+06
 0.28870001E+02 -0.55489E+06
 0.28920000E+02 -0.97500E+06
 0.28970001E+02 -0.10462E+07
 0.29020000E+02 -0.77122E+06
 0.29070002E+02 -0.42312E+06
 0.29120001E+02 -0.18889E+06
 0.29170000E+02 -0.12789E+06
 0.29220001E+02 -0.28087E+06
 0.29270000E+02 -0.62359E+06
 0.29320002E+02 -0.99404E+06
 0.29370001E+02 -0.10257E+07
 0.29420000E+02 -0.84293E+06
 0.29470001E+02 -0.69972E+06
 0.29520000E+02 -0.48378E+06
 0.29570002E+02 -0.29791E+06
 0.29620001E+02 -0.13532E+06
 0.29670000E+02 -0.94086E+05
 0.29720001E+02 -0.39291E+06
 0.29770000E+02 -0.10753E+07
 0.29820002E+02 -0.19399E+07
 0.29870001E+02 -0.25769E+07
 0.29920000E+02 -0.27788E+07
 0.29970001E+02 -0.26374E+07
 0.30020000E+02 -0.21828E+07
 0.30070000E+02 -0.12256E+07
 0.30120003E+02 -0.12720E+06
 0.30170002E+02  0.88072E+06
 0.30220001E+02  0.18190E+07
 0.30270000E+02  0.23140E+07
 0.30320000E+02  0.26660E+07
 0.30370003E+02  0.29456E+07
 0.30420002E+02  0.24088E+07
 0.30470001E+02  0.10356E+07
 0.30520000E+02 -0.58068E+06
 0.30570000E+02 -0.20891E+07
 0.30620003E+02 -0.33394E+07
 0.30670002E+02 -0.40669E+07
 0.30720001E+02 -0.38025E+07
 0.30770000E+02 -0.25139E+07
 0.30820000E+02 -0.80292E+06
 0.30870003E+02  0.63086E+06
 0.30920002E+02  0.14387E+07
 0.30970001E+02  0.19327E+07
 0.31020000E+02  0.23682E+07
 0.31070000E+02  0.24340E+07
 0.31120003E+02  0.17369E+07
 0.31170002E+02  0.50817E+06
 0.31220001E+02 -0.91336E+06
 0.31270000E+02 -0.23533E+07
 0.31320000E+02 -0.31121E+07
 0.31370003E+02 -0.29301E+07
 0.31420002E+02 -0.22430E+07
 0.31470001E+02 -0.10596E+07
 0.31520000E+02 -0.12616E+05
 0.31570000E+02  0.21179E+06
 0.31620003E+02  0.50331E+06
 0.31670002E+02  0.47708E+06
 0.31720001E+02 -0.48278E+06
 0.31770000E+02 -0.12926E+07
 0.31820000E+02 -0.16133E+07
 0.31870003E+02 -0.14551E+07
 0.31920002E+02 -0.72852E+06
 0.31970001E+02  0.33534E+06
 0.32020000E+02  0.95379E+06
 0.32070000E+02  0.64205E+06
 0.32120003E+02  0.33616E+06
 0.32170002E+02  0.64214E+06
 0.32220001E+02  0.13001E+07
 0.32270000E+02  0.16562E+07
 0.32320000E+02  0.12222E+07
 0.32370003E+02  0.25235E+06
 0.32420002E+02 -0.77086E+06
 0.32470001E+02 -0.92382E+06
 0.32520000E+02 -0.95498E+05
 0.32570000E+02  0.79572E+06
 0.32620003E+02  0.16102E+07
 0.32670002E+02  0.20496E+07
 0.32720001E+02  0.18292E+07
 0.32770000E+02  0.13580E+07
 0.32820000E+02  0.27803E+06
 0.32870003E+02 -0.65552E+06
 0.32920002E+02 -0.50016E+06
 0.32970001E+02 -0.28672E+06
 0.33020000E+02 -0.20580E+06
 0.33070000E+02  0.50585E+05
 0.33120003E+02  0.58592E+06
 0.33170002E+02  0.89388E+06
 0.33220001E+02  0.67246E+06
 0.33270000E+02  0.52904E+06
 0.33320000E+02  0.15176E+06
 0.33370003E+02 -0.28903E+06
 0.33420002E+02 -0.28658E+06
 0.33470001E+02  0.12435E+06
 0.33520000E+02  0.32180E+05
 0.33570000E+02 -0.11477E+07
 0.33620003E+02 -0.20843E+07
 0.33670002E+02 -0.21083E+07
 0.33720001E+02 -0.22308E+07
 0.33770000E+02 -0.24495E+07
 0.33820000E+02 -0.19879E+07
 0.33870003E+02 -0.19272E+07
 0.33920002E+02 -0.23156E+07
 0.33970001E+02 -0.24499E+07
 0.34020000E+02 -0.25205E+07
 0.34070000E+02 -0.18607E+07
 0.34120003E+02 -0.88000E+06
 0.34170002E+02 -0.43375E+05
 0.34220001E+02  0.68427E+06
 0.34270000E+02  0.96761E+06
 0.34320000E+02  0.74373E+06
 0.34370003E+02 -0.15935E+06
 0.34420002E+02 -0.11029E+07
 0.34470001E+02 -0.17510E+07
 0.34520000E+02 -0.21022E+07
 0.34570000E+02 -0.19548E+07
 0.34620003E+02 -0.18483E+07
 0.34670002E+02 -0.17007E+07
 0.34720001E+02 -0.16192E+07
 0.34770000E+02 -0.16296E+07
 0.34820000E+02 -0.10179E+07
 0.34870003E+02 -0.44207E+06
 0.34920002E+02 -0.15961E+06
 0.34970001E+02  0.46308E+06
 0.35020000E+02  0.10406E+07
 0.35070000E+02  0.16125E+07
 0.35120003E+02  0.25544E+07
 0.35170002E+02  0.28917E+07
 0.35220001E+02  0.23987E+07
 0.35270000E+02  0.18563E+07
 0.35320000E+02  0.10832E+07
 0.35370003E+02  0.17580E+06
 0.35420002E+02 -0.62159E+06
 0.35470001E+02 -0.12511E+07
 0.35520000E+02 -0.16263E+07
 0.35570000E+02 -0.18468E+07
 0.35620003E+02 -0.16967E+07
 0.35670002E+02 -0.12907E+07
 0.35720001E+02 -0.69864E+06
 0.35770000E+02  0.79189E+05
 0.35820000E+02  0.47722E+06
 0.35870003E+02  0.58070E+06
 0.35920002E+02  0.90960E+06
 0.35970001E+02  0.13560E+07
 0.36020000E+02  0.18969E+07
 0.36070000E+02  0.21523E+07
 0.36120003E+02  0.16039E+07
 0.36170002E+02  0.81122E+06
 0.36220001E+02  0.18594E+06
 0.36270000E+02 -0.18153E+06
 0.36320000E+02 -0.32902E+06
 0.36370003E+02 -0.59067E+06
 0.36420002E+02 -0.64045E+06
 0.36470001E+02 -0.53918E+06
 0.36520000E+02 -0.61186E+06
 0.36570000E+02 -0.45387E+05
 0.36620003E+02  0.83510E+06
 0.36670002E+02  0.84022E+06
 0.36720001E+02  0.39018E+06
 0.36770000E+02 -0.17114E+06
 0.36820000E+02 -0.69598E+06
 0.36870003E+02 -0.64964E+06
 0.36920002E+02 -0.36452E+06
 0.36970001E+02 -0.27145E+06
 0.37020000E+02 -0.30782E+06
 0.37070000E+02 -0.24225E+06
 0.37120003E+02  0.95750E+04
 0.37170002E+02  0.39026E+06
 0.37220001E+02  0.89005E+06
 0.37270000E+02  0.12314E+07
 0.37320000E+02  0.11118E+07
 0.37370003E+02  0.63531E+06
 0.37420002E+02  0.39421E+06
 0.37470001E+02  0.64208E+06
 0.37520000E+02  0.10975E+07
 0.37570000E+02  0.15168E+07
 0.37620003E+02  0.14751E+07
 0.37670002E+02  0.97962E+06
 0.37720001E+02  0.63880E+06
 0.37770000E+02  0.81399E+06
 0.37820000E+02  0.13378E+07
 0.37870003E+02  0.18664E+07
 0.37920002E+02  0.22585E+07
 0.37970001E+02  0.22906E+07
 0.38020000E+02  0.20223E+07
 0.38070000E+02  0.18116E+07
 0.38120003E+02  0.14184E+07
 0.38170002E+02  0.64383E+06
 0.38220001E+02 -0.13963E+06
 0.38270000E+02 -0.63686E+06
 0.38320000E+02 -0.66447E+06
 0.38370003E+02 -0.27791E+06
 0.38420002E+02 -0.89065E+05
 0.38470001E+02 -0.35032E+06
 0.38520000E+02 -0.60645E+06
 0.38570000E+02 -0.82109E+06
 0.38620003E+02 -0.93383E+06
 0.38670002E+02 -0.49268E+06
 0.38720001E+02  0.30272E+06
 0.38770000E+02  0.85804E+06
 0.38820000E+02  0.10244E+07
 0.38870003E+02  0.11363E+07
 0.38920002E+02  0.12963E+07
 0.38970001E+02  0.13972E+07
 0.39020000E+02  0.16401E+07
 0.39070000E+02  0.21321E+07
 0.39120003E+02  0.26208E+07
 0.39170002E+02  0.28723E+07
 0.39220001E+02  0.30577E+07
 0.39270000E+02  0.34205E+07
 0.39320000E+02  0.38600E+07
 0.39370003E+02  0.40713E+07
 0.39420002E+02  0.39906E+07
 0.39470001E+02  0.36924E+07
 0.39520000E+02  0.31816E+07
 0.39570000E+02  0.24928E+07
 0.39620003E+02  0.15911E+07
 0.39670002E+02  0.77414E+06
 0.39720001E+02 -0.15440E+05
 0.39770000E+02 -0.96851E+06
 0.39820000E+02 -0.16619E+07
 0.39870003E+02 -0.19282E+07
 0.39920002E+02 -0.18312E+07
 0.39970001E+02 -0.15157E+07
 0.40020000E+02 -0.75982E+06
 0.40070000E+02  0.33464E+06
 0.40120003E+02  0.13051E+07
 0.40170002E+02  0.22603E+07
 0.40220001E+02  0.28201E+07
 0.40270000E+02  0.28085E+07
 0.40320000E+02  0.26604E+07
 0.40370003E+02  0.23728E+07
 0.40420002E+02  0.18612E+07
 0.40470001E+02  0.14096E+07
 0.40520000E+02  0.12404E+07
 0.40570000E+02  0.11000E+07
 0.40620003E+02  0.83313E+06
 0.40670002E+02  0.79334E+06
 0.40720001E+02  0.12316E+07
 0.40770000E+02  0.17764E+07
 0.40820000E+02  0.18067E+07
 0.40870003E+02  0.11298E+07
 0.40920002E+02  0.33650E+06
 0.40970001E+02 -0.22255E+05
 0.41020000E+02  0.14427E+05
 0.41070000E+02  0.22855E+06
 0.41120003E+02  0.18268E+06
 0.41170002E+02 -0.10123E+06
 0.41220001E+02 -0.49393E+06
 0.41270000E+02 -0.11146E+07
 0.41320000E+02 -0.15519E+07
 0.41370003E+02 -0.17711E+07
 0.41420002E+02 -0.19687E+07
 0.41470001E+02 -0.18562E+07
 0.41520000E+02 -0.14364E+07
 0.41570000E+02 -0.86679E+06
 0.41620003E+02 -0.25415E+06
 0.41670002E+02  0.76855E+05
 0.41720001E+02  0.10341E+06
 0.41770000E+02 -0.48808E+05
 0.41820000E+02 -0.16854E+06
 0.41870003E+02  0.17530E+06
 0.41920002E+02  0.65298E+06
 0.41970001E+02  0.74263E+06
 0.42020000E+02  0.48225E+06
 0.42070000E+02  0.20696E+06
 0.42120003E+02  0.16652E+06
 0.42170002E+02 -0.32674E+05
 0.42220001E+02 -0.44788E+06
 0.42270000E+02 -0.97234E+06
 0.42320000E+02 -0.16663E+07
 0.42370003E+02 -0.20615E+07
 0.42420002E+02 -0.18417E+07
 0.42470001E+02 -0.10351E+07
 0.42520000E+02 -0.13571E+06
 0.42570000E+02  0.18456E+06
 0.42620003E+02 -0.15089E+06
 0.42670002E+02 -0.77144E+06
 0.42720001E+02 -0.12428E+07
 0.42770000E+02 -0.13466E+07
 0.42820000E+02 -0.11690E+07
 0.42870003E+02 -0.98003E+06
 0.42920002E+02 -0.10249E+07
 0.42970001E+02 -0.12421E+07
 0.43020000E+02 -0.12467E+07
 0.43070000E+02 -0.11362E+07
 0.43120003E+02 -0.13381E+07
 0.43170002E+02 -0.17863E+07
 0.43220001E+02 -0.22429E+07
 0.43270000E+02 -0.26518E+07
 0.43320000E+02 -0.27734E+07
 0.43370003E+02 -0.23910E+07
 0.43420002E+02 -0.19925E+07
 0.43470001E+02 -0.19289E+07
 0.43520000E+02 -0.20760E+07
 0.43570000E+02 -0.22091E+07
 0.43620003E+02 -0.21003E+07
 0.43670002E+02 -0.19271E+07
 0.43720001E+02 -0.17400E+07
 0.43770000E+02 -0.16220E+07
 0.43820000E+02 -0.18634E+07
 0.43870003E+02 -0.23152E+07
 0.43920002E+02 -0.26368E+07
 0.43970001E+02 -0.28912E+07
 0.44020000E+02 -0.32801E+07
 0.44070000E+02 -0.34598E+07
 0.44120003E+02 -0.32683E+07
 0.44170002E+02 -0.29961E+07
 0.44220001E+02 -0.26584E+07
 0.44270000E+02 -0.23287E+07
 0.44320000E+02 -0.22204E+07
 0.44370003E+02 -0.21724E+07
 0.44420002E+02 -0.19386E+07
 0.44470001E+02 -0.15043E+07
 0.44520000E+02 -0.10596E+07
 0.44570000E+02 -0.88926E+06
 0.44620003E+02 -0.92205E+06
 0.44670002E+02 -0.89230E+06
 0.44720001E+02 -0.70842E+06
 0.44770000E+02 -0.42542E+06
 0.44820000E+02 -0.21450E+06
 0.44870003E+02 -0.22051E+06
 0.44920002E+02 -0.42543E+06
 0.44970001E+02 -0.62734E+06
 0.45020000E+02 -0.66512E+06
 0.45070000E+02 -0.60565E+06
 0.45120003E+02 -0.48551E+06
 0.45170002E+02 -0.23897E+06
 0.45220001E+02 -0.22426E+05
 0.45270000E+02 -0.30879E+05
 0.45320000E+02 -0.79853E+05
 0.45370003E+02  0.35755E+05
 0.45420002E+02  0.23513E+06
 0.45470001E+02  0.59775E+06
 0.45520000E+02  0.11132E+07
 0.45570000E+02  0.14209E+07
 0.45620003E+02  0.15638E+07
 0.45670002E+02  0.17609E+07
 0.45720001E+02  0.19479E+07
 0.45770000E+02  0.21262E+07
 0.45820000E+02  0.23175E+07
 0.45870003E+02  0.24506E+07
 0.45920002E+02  0.23747E+07
 0.45970001E+02  0.21200E+07
 0.46020000E+02  0.18514E+07
 0.46070000E+02  0.15981E+07
 0.46120003E+02  0.14440E+07
 0.46170002E+02  0.12991E+07
 0.46220001E+02  0.11202E+07
 0.46270000E+02  0.11200E+07
 0.46320000E+02  0.12504E+07
 0.46370003E+02  0.13748E+07
 0.46420002E+02  0.13970E+07
 0.46470001E+02  0.12736E+07
 0.46520000E+02  0.12716E+07
 0.46570000E+02  0.14728E+07
 0.46620003E+02  0.16088E+07
 0.46670002E+02  0.16653E+07
 0.46720001E+02  0.17236E+07
 0.46770000E+02  0.17716E+07
 0.46820000E+02  0.17752E+07
 0.46870003E+02  0.16234E+07
 0.46920002E+02  0.12803E+07
 0.46970001E+02  0.77370E+06
 0.47020000E+02  0.27476E+06
 0.47070000E+02 -0.81618E+05
 0.47120003E+02 -0.27009E+06
 0.47170002E+02 -0.27398E+06
 0.47220001E+02 -0.36372E+06
 0.47270000E+02 -0.76111E+06
 0.47320000E+02 -0.12702E+07
 0.47370003E+02 -0.15758E+07
 0.47420002E+02 -0.15871E+07
 0.47470001E+02 -0.14643E+07
 0.47520000E+02 -0.13776E+07
 0.47570000E+02 -0.13462E+07
 0.47620003E+02 -0.12264E+07
 0.47670002E+02 -0.97488E+06
 0.47720001E+02 -0.76936E+06
 0.47770000E+02 -0.74342E+06
 0.47820000E+02 -0.89754E+06
 0.47870003E+02 -0.12055E+07
 0.47920002E+02 -0.15367E+07
 0.47970001E+02 -0.16969E+07
 0.48020000E+02 -0.16954E+07
 0.48070000E+02 -0.15948E+07
 0.48120003E+02 -0.14525E+07
 0.48170002E+02 -0.13141E+07
 0.48220001E+02 -0.11268E+07
 0.48270000E+02 -0.89390E+06
 0.48320000E+02 -0.54569E+06
 0.48370003E+02 -0.10802E+06
 0.48420002E+02  0.20334E+06
 0.48470001E+02  0.41992E+06
 0.48520000E+02  0.59702E+06
 0.48570000E+02  0.62617E+06
 0.48620003E+02  0.59896E+06
 0.48670002E+02  0.68031E+06
 0.48720001E+02  0.84048E+06
 0.48770000E+02  0.85158E+06
 0.48820000E+02  0.66325E+06
 0.48870003E+02  0.55814E+06
 0.48920002E+02  0.61721E+06
 0.48970001E+02  0.68882E+06
 0.49020000E+02  0.65659E+06
 0.49070000E+02  0.60424E+06
 0.49120003E+02  0.67470E+06
 0.49170002E+02  0.79980E+06
 0.49220001E+02  0.92708E+06
 0.49270000E+02  0.10699E+07
 0.49320000E+02  0.11791E+07
 0.49370003E+02  0.11940E+07
 0.49420002E+02  0.11119E+07
 0.49470001E+02  0.94992E+06
 0.49520000E+02  0.74059E+06
 0.49570000E+02  0.51671E+06
 0.49620003E+02  0.32338E+06
 0.49670002E+02  0.15222E+06
 0.49720001E+02  0.67442E+05
 0.49770000E+02  0.23318E+06
 0.49820000E+02  0.44466E+06
 0.49870003E+02  0.51849E+06
 0.49920002E+02  0.45962E+06
 0.49970001E+02  0.24775E+06
 0.50020000E+02  0.51542E+05
 0.50070000E+02 -0.10180E+06
 0.50120003E+02 -0.22151E+06
 0.50170002E+02 -0.20347E+06
 0.50220001E+02 -0.12606E+06
 0.50270000E+02 -0.32419E+05
 0.50320000E+02  0.65513E+05
 0.50370003E+02  0.42155E+05
 0.50420002E+02 -0.70446E+05
 0.50470001E+02 -0.21790E+06
 0.50520000E+02 -0.39662E+06
 0.50570000E+02 -0.52556E+06
 0.50620003E+02 -0.62733E+06
 0.50670002E+02 -0.70767E+06
 0.50720001E+02 -0.69683E+06
 0.50770000E+02 -0.46614E+06
 0.50820000E+02  0.70006E+05
 0.50870003E+02  0.74848E+06
 0.50920002E+02  0.13873E+07
 0.50970001E+02  0.18794E+07
 0.51020000E+02  0.21892E+07
 0.51070000E+02  0.23797E+07
 0.51120003E+02  0.24088E+07
 0.51170002E+02  0.22787E+07
 0.51220001E+02  0.21298E+07
 0.51270000E+02  0.19528E+07
 0.51320000E+02  0.17160E+07
 0.51370003E+02  0.15052E+07
 0.51420002E+02  0.13047E+07
 0.51470001E+02  0.10439E+07
 0.51520000E+02  0.80039E+06
 0.51570000E+02  0.57528E+06
 0.51620003E+02  0.23910E+06
 0.51670002E+02 -0.15325E+06
 0.51720001E+02 -0.50819E+06
 0.51770000E+02 -0.84424E+06
 0.51820000E+02 -0.11336E+07
 0.51870003E+02 -0.13228E+07
 0.51920002E+02 -0.14130E+07
 0.51970001E+02 -0.14282E+07
 0.52020000E+02 -0.14295E+07
 0.52070000E+02 -0.15102E+07
 0.52120003E+02 -0.16514E+07
 0.52170002E+02 -0.17882E+07
 0.52220001E+02 -0.19166E+07
 0.52270000E+02 -0.19553E+07
 0.52320000E+02 -0.18738E+07
 0.52370003E+02 -0.18277E+07
 0.52420002E+02 -0.18998E+07
 0.52470001E+02 -0.20492E+07
 0.52520000E+02 -0.22473E+07
 0.52570000E+02 -0.24029E+07
 0.52620003E+02 -0.23782E+07
 0.52670002E+02 -0.22234E+07
 0.52720001E+02 -0.20900E+07
 0.52770000E+02 -0.19122E+07
 0.52820000E+02 -0.15823E+07
 0.52870003E+02 -0.11641E+07
 0.52920002E+02 -0.74536E+06
 0.52970001E+02 -0.37574E+06
 0.53020000E+02 -0.33928E+05
 0.53070000E+02  0.31234E+06
 0.53120003E+02  0.61272E+06
 0.53170002E+02  0.87245E+06
 0.53220001E+02  0.10887E+07
 0.53270000E+02  0.11549E+07
 0.53320000E+02  0.10946E+07
 0.53370003E+02  0.10605E+07
 0.53420002E+02  0.11205E+07
 0.53470001E+02  0.12388E+07
 0.53520000E+02  0.13183E+07
 0.53570000E+02  0.12924E+07
 0.53620003E+02  0.12340E+07
 0.53670002E+02  0.11589E+07
 0.53720001E+02  0.10132E+07
 0.53770000E+02  0.85746E+06
 0.53820000E+02  0.73058E+06
 0.53870003E+02  0.68141E+06
 0.53920002E+02  0.69080E+06
 0.53970001E+02  0.72692E+06
 0.54020000E+02  0.83525E+06
 0.54070000E+02  0.95833E+06
 0.54120003E+02  0.11709E+07
 0.54170002E+02  0.14675E+07
 0.54220001E+02  0.16877E+07
 0.54270000E+02  0.18398E+07
 0.54320000E+02  0.18996E+07
 0.54370003E+02  0.18285E+07
 0.54420002E+02  0.16298E+07
 0.54470001E+02  0.13244E+07
 0.54520000E+02  0.98539E+06
 0.54570000E+02  0.69520E+06
 0.54620003E+02  0.48788E+06
 0.54670002E+02  0.32171E+06
 0.54720001E+02  0.15022E+06
 0.54770000E+02 -0.72855E+05
 0.54820000E+02 -0.32089E+06
 0.54870003E+02 -0.52961E+06
 0.54920002E+02 -0.67421E+06
 0.54970001E+02 -0.75092E+06
 0.55020000E+02 -0.80207E+06
 0.55070000E+02 -0.86875E+06
 0.55120003E+02 -0.97920E+06
 0.55170002E+02 -0.11868E+07
 0.55220001E+02 -0.14365E+07
 0.55270000E+02 -0.15539E+07
 0.55320000E+02 -0.15017E+07
 0.55370003E+02 -0.13845E+07
 0.55420002E+02 -0.13088E+07
 0.55470001E+02 -0.12863E+07
 0.55520000E+02 -0.12888E+07
 0.55570000E+02 -0.12298E+07
 0.55620003E+02 -0.99579E+06
 0.55670002E+02 -0.64800E+06
 0.55720001E+02 -0.23266E+06
 0.55770000E+02  0.14311E+06
 0.55820000E+02  0.37172E+06
 0.55870003E+02  0.54672E+06
 0.55920002E+02  0.59828E+06
 0.55970001E+02  0.49569E+06
 0.56020000E+02  0.37241E+06
 0.56070000E+02  0.20676E+06
 0.56120003E+02  0.16744E+05
 0.56170002E+02 -0.82338E+05
 0.56220001E+02 -0.19439E+05
 0.56270000E+02  0.17016E+06
 0.56320000E+02  0.36589E+06
 0.56370003E+02  0.58015E+06
 0.56420002E+02  0.82108E+06
 0.56470001E+02  0.97485E+06
 0.56520000E+02  0.10517E+07
 0.56570000E+02  0.11080E+07
 0.56620003E+02  0.11147E+07
 0.56670002E+02  0.10528E+07
 0.56720001E+02  0.91237E+06
 0.56770000E+02  0.66186E+06
 0.56820000E+02  0.31182E+06
 0.56870003E+02 -0.83854E+05
 0.56920002E+02 -0.46602E+06
 0.56970001E+02 -0.77395E+06
 0.57020000E+02 -0.99497E+06
 0.57070000E+02 -0.11402E+07
 0.57120003E+02 -0.12119E+07
 0.57170002E+02 -0.11937E+07
 0.57220001E+02 -0.10796E+07
 0.57270000E+02 -0.94619E+06
 0.57320000E+02 -0.87977E+06
 0.57370003E+02 -0.85601E+06
 0.57420002E+02 -0.79667E+06
 0.57470001E+02 -0.63998E+06
 0.57520000E+02 -0.37505E+06
 0.57570000E+02 -0.81774E+05
 0.57620003E+02  0.18755E+06
 0.57670002E+02  0.41457E+06
 0.57720001E+02  0.61255E+06
 0.57770000E+02  0.78120E+06
 0.57820000E+02  0.86970E+06
 0.57870003E+02  0.92594E+06
 0.57920002E+02  0.95873E+06
 0.57970001E+02  0.89301E+06
 0.58020000E+02  0.75297E+06
 0.58070000E+02  0.62555E+06
 0.58120003E+02  0.54596E+06
 0.58170002E+02  0.51175E+06
 0.58220001E+02  0.52754E+06
 0.58270000E+02  0.58319E+06
 0.58320000E+02  0.61765E+06
 0.58370003E+02  0.57293E+06
 0.58420002E+02  0.44986E+06
 0.58470001E+02  0.26276E+06
 0.58520000E+02  0.47637E+05
 0.58570000E+02 -0.15708E+06
 0.58620003E+02 -0.32808E+06
 0.58670002E+02 -0.45566E+06
 0.58720001E+02 -0.55677E+06
 0.58770000E+02 -0.68097E+06
 0.58820000E+02 -0.85581E+06
 0.58870003E+02 -0.10093E+07
 0.58920002E+02 -0.11319E+07
 0.58970001E+02 -0.12430E+07
 0.59020000E+02 -0.12882E+07
 0.59070000E+02 -0.12974E+07
 0.59120003E+02 -0.12908E+07
 0.59170002E+02 -0.12453E+07
 0.59220001E+02 -0.11428E+07
 0.59270000E+02 -0.93539E+06
 0.59320000E+02 -0.64798E+06
 0.59370003E+02 -0.28930E+06
 0.59420002E+02  0.11330E+06
 0.59470001E+02  0.45709E+06
 0.59520000E+02  0.75280E+06
 0.59570000E+02  0.10102E+07
 0.59620003E+02  0.11962E+07
 0.59670002E+02  0.12993E+07
 0.59720001E+02  0.13026E+07
 0.59770000E+02  0.12487E+07
 0.59820000E+02  0.11654E+07
 0.59870003E+02  0.10149E+07
 0.59920002E+02  0.78153E+06
 0.59970001E+02  0.53074E+06
 0.60020000E+02  0.32420E+06
 0.60070000E+02  0.18989E+06
 0.60120003E+02  0.16131E+06
 0.60170002E+02  0.21598E+06
 0.60220001E+02  0.29964E+06
 0.60270000E+02  0.38556E+06
 0.60320000E+02  0.49083E+06
 0.60370003E+02  0.55991E+06
 0.60420002E+02  0.52990E+06
 0.60470001E+02  0.44623E+06
 0.60520000E+02  0.33632E+06
 0.60570000E+02  0.25142E+06
 0.60620003E+02  0.23398E+06
 0.60670002E+02  0.25063E+06
 0.60720001E+02  0.28181E+06
 0.60770000E+02  0.32346E+06
 0.60820000E+02  0.34020E+06
 0.60870003E+02  0.29740E+06
 0.60920002E+02  0.23150E+06
 0.60970001E+02  0.15911E+06
 0.61020000E+02  0.66847E+05
 0.61070000E+02 -0.16369E+05
 0.61120003E+02 -0.10990E+06
 0.61170002E+02 -0.19117E+06
 0.61220001E+02 -0.19508E+06
 0.61270000E+02 -0.14494E+06
 0.61320000E+02 -0.48389E+05
 0.61370003E+02  0.77587E+05
 0.61420002E+02  0.17858E+06
 0.61470001E+02  0.23292E+06
 0.61520000E+02  0.23539E+06
 0.61570000E+02  0.18621E+06
 0.61620003E+02  0.10335E+06
 0.61670002E+02  0.11877E+05
 0.61720001E+02 -0.11581E+06
 0.61770000E+02 -0.25350E+06
 0.61820000E+02 -0.32998E+06
 0.61870003E+02 -0.35487E+06
 0.61920002E+02 -0.29867E+06
 0.61970001E+02 -0.16187E+06
 0.62020000E+02 -0.10458E+05
 0.62070004E+02  0.10850E+06
 0.62119999E+02  0.12269E+06
 0.62170002E+02  0.34135E+05
 0.62220005E+02 -0.70040E+05
 0.62270000E+02 -0.12864E+06
 0.62320004E+02 -0.18352E+06
 0.62369999E+02 -0.32552E+06
 0.62420002E+02 -0.54064E+06
 0.62470005E+02 -0.74823E+06
 0.62520000E+02 -0.87008E+06
 0.62570004E+02 -0.85353E+06
 0.62619999E+02 -0.72217E+06
 0.62670002E+02 -0.53293E+06
 0.62720005E+02 -0.36378E+06
 0.62770000E+02 -0.28685E+06
 0.62820004E+02 -0.25526E+06
 0.62869999E+02 -0.20053E+06
 0.62920002E+02 -0.13052E+06
 0.62970005E+02 -0.63408E+05
 0.63020000E+02 -0.38906E+05
 0.63070004E+02 -0.80059E+05
 0.63119999E+02 -0.10533E+06
 0.63170002E+02 -0.91552E+05
 0.63220005E+02 -0.12533E+06
 0.63270000E+02 -0.17304E+06
 0.63320004E+02 -0.21782E+06
 0.63369999E+02 -0.28587E+06
 0.63420002E+02 -0.33646E+06
 0.63470005E+02 -0.40774E+06
 0.63520000E+02 -0.50973E+06
 0.63570004E+02 -0.60719E+06
 0.63619999E+02 -0.69479E+06
 0.63670002E+02 -0.76149E+06
 0.63720005E+02 -0.77929E+06
 0.63770000E+02 -0.72883E+06
 0.63820004E+02 -0.66200E+06
 0.63869999E+02 -0.63907E+06
 0.63920002E+02 -0.64263E+06
 0.63970005E+02 -0.60798E+06
 0.64019997E+02 -0.54279E+06
 0.64070000E+02 -0.45118E+06
 0.64119995E+02 -0.31371E+06
 0.64169998E+02 -0.18728E+06
 0.64220001E+02 -0.69252E+05
 0.64269997E+02  0.73872E+05
 0.64320000E+02  0.20351E+06
 0.64369995E+02  0.26457E+06
 0.64419998E+02  0.23182E+06
 0.64470001E+02  0.17303E+06
 0.64519997E+02  0.17948E+06
 0.64570000E+02  0.22021E+06
 0.64619995E+02  0.21711E+06
 0.64669998E+02  0.17375E+06
 0.64720001E+02  0.14067E+06
 0.64769997E+02  0.15618E+06
 0.64820000E+02  0.21871E+06
 0.64869995E+02  0.28627E+06
 0.64919998E+02  0.33844E+06
 0.64970001E+02  0.38081E+06
 0.65019997E+02  0.39820E+06
 0.65070000E+02  0.35661E+06
 0.65119995E+02  0.24671E+06
 0.65169998E+02  0.13364E+06
 0.65220001E+02  0.71746E+05
 0.65269997E+02  0.53784E+05
 0.65320000E+02  0.71455E+05
 0.65369995E+02  0.12433E+06
 0.65419998E+02  0.20982E+06
 0.65470001E+02  0.29148E+06
 0.65519997E+02  0.34080E+06
 0.65570000E+02  0.35358E+06
 0.65619995E+02  0.32835E+06
 0.65669998E+02  0.28082E+06
 0.65720001E+02  0.20039E+06
 0.65769997E+02  0.89649E+05
 0.65820000E+02 -0.29258E+05
 0.65869995E+02 -0.15288E+06
 0.65919998E+02 -0.25537E+06
 0.65970001E+02 -0.31249E+06
 0.66019997E+02 -0.33517E+06
 0.66070000E+02 -0.33818E+06
 0.66119995E+02 -0.32836E+06
 0.66169998E+02 -0.31558E+06
 0.66220001E+02 -0.29002E+06
 0.66269997E+02 -0.26406E+06
 0.66320000E+02 -0.24229E+06
 0.66369995E+02 -0.17336E+06
 0.66419998E+02 -0.59875E+05
 0.66470001E+02  0.78750E+05
 0.66519997E+02  0.26038E+06
 0.66570000E+02  0.44331E+06
 0.66619995E+02  0.57777E+06
 0.66669998E+02  0.69561E+06
 0.66720001E+02  0.79615E+06
 0.66769997E+02  0.84717E+06
 0.66820000E+02  0.85305E+06
 0.66869995E+02  0.80675E+06
 0.66919998E+02  0.74394E+06
 0.66970001E+02  0.70452E+06
 0.67019997E+02  0.66601E+06
 0.67070000E+02  0.60452E+06
 0.67119995E+02  0.51870E+06
 0.67169998E+02  0.42021E+06
 0.67220001E+02  0.29626E+06
 0.67269997E+02  0.13968E+06
 0.67320000E+02 -0.10311E+05
 0.67369995E+02 -0.12344E+06
 0.67419998E+02 -0.18902E+06
 0.67470001E+02 -0.20233E+06
 0.67519997E+02 -0.20223E+06
 0.67570000E+02 -0.22725E+06
 0.67619995E+02 -0.26728E+06
 0.67669998E+02 -0.31047E+06
 0.67720001E+02 -0.32352E+06
 0.67769997E+02 -0.27049E+06
 0.67820000E+02 -0.16732E+06
 0.67869995E+02 -0.45712E+05
 0.67919998E+02  0.16702E+05
 0.67970001E+02 -0.37701E+05
 0.68019997E+02 -0.13750E+06
 0.68070000E+02 -0.22035E+06
 0.68119995E+02 -0.28344E+06
 0.68169998E+02 -0.32187E+06
 0.68220001E+02 -0.34114E+06
 0.68269997E+02 -0.33714E+06
 0.68320000E+02 -0.29905E+06
 0.68369995E+02 -0.23740E+06
 0.68419998E+02 -0.17798E+06
 0.68470001E+02 -0.12776E+06
 0.68519997E+02 -0.77275E+05
 0.68570000E+02 -0.20486E+05
 0.68619995E+02  0.31408E+05
 0.68669998E+02  0.63119E+05
 0.68720001E+02  0.90631E+05
 0.68769997E+02  0.12598E+06
 0.68820000E+02  0.17155E+06
 0.68869995E+02  0.24497E+06
 0.68919998E+02  0.32647E+06
 0.68970001E+02  0.39110E+06
 0.69019997E+02  0.45665E+06
 0.69070000E+02  0.50447E+06
 0.69119995E+02  0.52792E+06
 0.69169998E+02  0.55549E+06
 0.69220001E+02  0.58370E+06
 0.69269997E+02  0.61473E+06
 0.69320000E+02  0.64395E+06
 0.69369995E+02  0.65066E+06
 0.69419998E+02  0.60014E+06
 0.69470001E+02  0.48008E+06
 0.69519997E+02  0.33362E+06
 0.69570000E+02  0.19469E+06
 0.69619995E+02  0.84173E+05
 0.69669998E+02  0.18008E+05
 0.69720001E+02  0.27760E+04
 0.69769997E+02  0.11653E+05
 0.69820000E+02 -0.48510E+04
 0.69869995E+02 -0.35270E+05
 0.69919998E+02 -0.47642E+05
 0.69970001E+02 -0.54487E+05
 0.70019997E+02 -0.48034E+05
 0.70070000E+02 -0.20026E+05
 0.70119995E+02 -0.27130E+04
 0.70169998E+02 -0.15400E+04
 0.70220001E+02 -0.18823E+05
 0.70269997E+02 -0.55109E+05
 0.70320000E+02 -0.92162E+05
 0.70369995E+02 -0.12021E+06
 0.70419998E+02 -0.13654E+06
 0.70470001E+02 -0.15414E+06
 0.70519997E+02 -0.18031E+06
 0.70570000E+02 -0.21570E+06
 0.70619995E+02 -0.26433E+06
 0.70669998E+02 -0.33614E+06
 0.70720001E+02 -0.42974E+06
 0.70769997E+02 -0.53243E+06
 0.70820000E+02 -0.62823E+06
 0.70869995E+02 -0.69090E+06
 0.70919998E+02 -0.71906E+06
 0.70970001E+02 -0.73063E+06
 0.71019997E+02 -0.74680E+06
 0.71070000E+02 -0.78082E+06
 0.71119995E+02 -0.82617E+06
 0.71169998E+02 -0.86114E+06
 0.71220001E+02 -0.86196E+06
 0.71269997E+02 -0.81249E+06
 0.71320000E+02 -0.72161E+06
 0.71369995E+02 -0.63260E+06
 0.71419998E+02 -0.56170E+06
 0.71470001E+02 -0.49488E+06
 0.71519997E+02 -0.43573E+06
 0.71570000E+02 -0.40146E+06
 0.71619995E+02 -0.38059E+06
 0.71669998E+02 -0.35559E+06
 0.71720001E+02 -0.33002E+06
 0.71769997E+02 -0.28344E+06
 0.71820000E+02 -0.21604E+06
 0.71869995E+02 -0.15253E+06
 0.71919998E+02 -0.89464E+05
 0.71970001E+02 -0.21717E+05
 0.72019997E+02  0.43767E+05
 0.72070000E+02  0.87540E+05
 0.72119995E+02  0.10068E+06
 0.72169998E+02  0.11092E+06
 0.72220001E+02  0.13385E+06
 0.72269997E+02  0.17199E+06
 0.72320000E+02  0.22221E+06
 0.72369995E+02  0.24758E+06
 0.72419998E+02  0.24648E+06
 0.72470001E+02  0.25140E+06
 0.72519997E+02  0.27192E+06
 0.72570000E+02  0.29772E+06
 0.72619995E+02  0.30802E+06
 0.72669998E+02  0.31995E+06
 0.72720001E+02  0.34063E+06
 0.72769997E+02  0.33370E+06
 0.72820000E+02  0.28751E+06
 0.72869995E+02  0.19916E+06
 0.72919998E+02  0.10103E+06
 0.72970001E+02  0.35326E+05
 0.73019997E+02  0.24050E+04
 0.73070000E+02  0.40000E+01
 0.73119995E+02  0.36010E+04
 0.73169998E+02  0.17730E+04
 0.73220001E+02 -0.65330E+04
 0.73269997E+02 -0.42471E+05
 0.73320000E+02 -0.11080E+06
 0.73369995E+02 -0.20284E+06
 0.73419998E+02 -0.29559E+06
 0.73470001E+02 -0.36587E+06
 0.73519997E+02 -0.40342E+06
 0.73570000E+02 -0.41876E+06
 0.73619995E+02 -0.42271E+06
 0.73669998E+02 -0.39899E+06
 0.73720001E+02 -0.34326E+06
 0.73769997E+02 -0.26496E+06
 0.73820000E+02 -0.16929E+06
 0.73869995E+02 -0.74451E+05
 0.73919998E+02  0.15481E+05
 0.73970001E+02  0.11751E+06
 0.74019997E+02  0.20888E+06
 0.74070000E+02  0.26233E+06
 0.74119995E+02  0.28720E+06
 0.74169998E+02  0.28461E+06
 0.74220001E+02  0.26735E+06
 0.74269997E+02  0.25388E+06
 0.74320000E+02  0.25608E+06
 0.74369995E+02  0.28252E+06
 0.74419998E+02  0.30778E+06
 0.74470001E+02  0.31479E+06
 0.74519997E+02  0.30274E+06
 0.74570000E+02  0.27536E+06
 0.74619995E+02  0.25339E+06
 0.74669998E+02  0.24883E+06
 0.74720001E+02  0.24978E+06
 0.74769997E+02  0.23966E+06
 0.74820000E+02  0.22322E+06
 0.74869995E+02  0.21040E+06
 0.74919998E+02  0.20447E+06
 0.74970001E+02  0.19812E+06
 0.75019997E+02  0.18370E+06
 0.75070000E+02  0.16272E+06
 0.75119995E+02  0.13480E+06
 0.75169998E+02  0.11667E+06
 0.75220001E+02  0.12012E+06
 0.75269997E+02  0.13443E+06
 0.75320000E+02  0.15345E+06
 0.75369995E+02  0.17108E+06
 0.75419998E+02  0.18608E+06
 0.75470001E+02  0.19474E+06
 0.75519997E+02  0.19278E+06
 0.75570000E+02  0.19123E+06
 0.75619995E+02  0.18449E+06
 0.75669998E+02  0.17369E+06
 0.75720001E+02  0.18743E+06
 0.75769997E+02  0.22050E+06
 0.75820000E+02  0.23913E+06
 0.75869995E+02  0.24605E+06
 0.75919998E+02  0.25818E+06
 0.75970001E+02  0.28218E+06
 0.76019997E+02  0.32958E+06
 0.76070000E+02  0.38744E+06
 0.76119995E+02  0.44418E+06
 0.76169998E+02  0.49222E+06
 0.76220001E+02  0.50519E+06
 0.76269997E+02  0.48107E+06
 0.76320000E+02  0.43341E+06
 0.76369995E+02  0.37141E+06
 0.76419998E+02  0.29547E+06
 0.76470001E+02  0.22210E+06
 0.76519997E+02  0.17804E+06
 0.76570000E+02  0.15605E+06
 0.76619995E+02  0.14881E+06
 0.76669998E+02  0.14984E+06
 0.76720001E+02  0.15167E+06
 0.76769997E+02  0.14931E+06
 0.76820000E+02  0.12484E+06
 0.76869995E+02  0.75420E+05
 0.76919998E+02  0.68150E+04
 0.76970001E+02 -0.74868E+05
 0.77019997E+02 -0.16348E+06
 0.77070000E+02 -0.25903E+06
 0.77119995E+02 -0.35579E+06
 0.77169998E+02 -0.44038E+06
 0.77220001E+02 -0.50847E+06
 0.77269997E+02 -0.56232E+06
 0.77320000E+02 -0.59463E+06
 0.77369995E+02 -0.61179E+06
 0.77419998E+02 -0.61766E+06
 0.77470001E+02 -0.59040E+06
 0.77519997E+02 -0.52998E+06
 0.77570000E+02 -0.45977E+06
 0.77619995E+02 -0.39429E+06
 0.77669998E+02 -0.34667E+06
 0.77720001E+02 -0.31596E+06
 0.77769997E+02 -0.29213E+06
 0.77820000E+02 -0.27307E+06
 0.77869995E+02 -0.25653E+06
 0.77919998E+02 -0.26087E+06
 0.77970001E+02 -0.29406E+06
 0.78019997E+02 -0.32559E+06
 0.78070000E+02 -0.33356E+06
 0.78119995E+02 -0.32077E+06
 0.78169998E+02 -0.30196E+06
 0.78220001E+02 -0.29191E+06
 0.78269997E+02 -0.28952E+06
 0.78320000E+02 -0.28080E+06
 0.78369995E+02 -0.24603E+06
 0.78419998E+02 -0.17431E+06
 0.78470001E+02 -0.85768E+05
 0.78519997E+02 -0.15792E+05
 0.78570000E+02  0.16140E+05
 0.78619995E+02  0.21535E+05
 0.78669998E+02  0.15904E+05
 0.78720001E+02  0.65430E+04
 0.78769997E+02 -0.31830E+04
 0.78820000E+02 -0.28298E+05
 0.78869995E+02 -0.61754E+05
 0.78919998E+02 -0.76075E+05
 0.78970001E+02 -0.60171E+05
 0.79019997E+02 -0.16155E+05
 0.79070000E+02  0.32850E+05
 0.79119995E+02  0.63580E+05
 0.79169998E+02  0.87920E+05
 0.79220001E+02  0.13071E+06
 0.79269997E+02  0.19376E+06
 0.79320000E+02  0.26099E+06
 0.79369995E+02  0.31827E+06
 0.79419998E+02  0.36727E+06
 0.79470001E+02  0.41412E+06
 0.79519997E+02  0.46259E+06
 0.79570000E+02  0.50770E+06
 0.79619995E+02  0.54330E+06
 0.79669998E+02  0.59047E+06
 0.79720001E+02  0.66842E+06
 0.79769997E+02  0.76304E+06
 0.79820000E+02  0.85162E+06
 0.79869995E+02  0.92699E+06
 0.79919998E+02  0.98952E+06
 0.79970001E+02  0.10187E+07
 0.80019997E+02  0.98455E+06
 0.80070000E+02  0.89872E+06
 0.80119995E+02  0.77750E+06
 0.80169998E+02  0.62683E+06
 0.80220001E+02  0.47748E+06
 0.80269997E+02  0.35020E+06
 0.80320000E+02  0.25820E+06
 0.80369995E+02  0.19471E+06
 0.80419998E+02  0.13385E+06
 0.80470001E+02  0.65900E+05
 0.80519997E+02 -0.18369E+05
 0.80570000E+02 -0.10532E+06
 0.80619995E+02 -0.18799E+06
 0.80669998E+02 -0.28863E+06
 0.80720001E+02 -0.40140E+06
 0.80769997E+02 -0.49943E+06
 0.80820000E+02 -0.57144E+06
 0.80869995E+02 -0.61613E+06
 0.80919998E+02 -0.62839E+06
 0.80970001E+02 -0.61634E+06
 0.81019997E+02 -0.58886E+06
 0.81070000E+02 -0.57118E+06
 0.81119995E+02 -0.58628E+06
 0.81169998E+02 -0.60918E+06
 0.81220001E+02 -0.63046E+06
 0.81269997E+02 -0.65082E+06
 0.81320000E+02 -0.65120E+06
 0.81369995E+02 -0.61728E+06
 0.81419998E+02 -0.55733E+06
 0.81470001E+02 -0.49133E+06
 0.81519997E+02 -0.40795E+06
 0.81570000E+02 -0.29534E+06
 0.81619995E+02 -0.17046E+06
 0.81669998E+02 -0.51594E+05
 0.81720001E+02  0.39539E+05
 0.81769997E+02  0.81287E+05
 0.81820000E+02  0.68871E+05
 0.81869995E+02  0.11459E+05
 0.81919998E+02 -0.51638E+05
 0.81970001E+02 -0.86725E+05
 0.82019997E+02 -0.98813E+05
 0.82070000E+02 -0.81719E+05
 0.82119995E+02 -0.46773E+05
 0.82169998E+02 -0.26280E+05
 0.82220001E+02 -0.23734E+05
 0.82269997E+02 -0.33461E+05
 0.82320000E+02 -0.31093E+05
 0.82369995E+02  0.66000E+03
 0.82419998E+02  0.29105E+05
 0.82470001E+02  0.27757E+05
 0.82519997E+02  0.22080E+04
 0.82570000E+02 -0.42836E+05
 0.82619995E+02 -0.96217E+05
 0.82669998E+02 -0.13094E+06
 0.82720001E+02 -0.13638E+06
 0.82769997E+02 -0.13167E+06
 0.82820000E+02 -0.13311E+06
 0.82869995E+02 -0.14175E+06
 0.82919998E+02 -0.16422E+06
 0.82970001E+02 -0.19328E+06
 0.83019997E+02 -0.20590E+06
 0.83070000E+02 -0.19977E+06
 0.83119995E+02 -0.17900E+06
 0.83169998E+02 -0.16173E+06
 0.83220001E+02 -0.18197E+06
 0.83269997E+02 -0.23060E+06
 0.83320000E+02 -0.27762E+06
 0.83369995E+02 -0.31150E+06
 0.83419998E+02 -0.32493E+06
 0.83470001E+02 -0.32800E+06
 0.83519997E+02 -0.33131E+06
 0.83570000E+02 -0.32517E+06
 0.83619995E+02 -0.30191E+06
 0.83669998E+02 -0.26990E+06
 0.83720001E+02 -0.23683E+06
 0.83769997E+02 -0.20131E+06
 0.83820000E+02 -0.17260E+06
 0.83869995E+02 -0.15154E+06
 0.83919998E+02 -0.13325E+06
 0.83970001E+02 -0.12539E+06
 0.84019997E+02 -0.12513E+06
 0.84070000E+02 -0.12506E+06
 0.84119995E+02 -0.12470E+06
 0.84169998E+02 -0.12597E+06
 0.84220001E+02 -0.13175E+06
 0.84269997E+02 -0.14797E+06
 0.84320000E+02 -0.17921E+06
 0.84369995E+02 -0.22394E+06
 0.84419998E+02 -0.28008E+06
 0.84470001E+02 -0.33830E+06
 0.84519997E+02 -0.38762E+06
 0.84570000E+02 -0.42313E+06
 0.84619995E+02 -0.43105E+06
 0.84669998E+02 -0.40091E+06
 0.84720001E+02 -0.34483E+06
 0.84769997E+02 -0.28097E+06
 0.84820000E+02 -0.21861E+06
 0.84869995E+02 -0.16760E+06
 0.84919998E+02 -0.14006E+06
 0.84970001E+02 -0.12636E+06
 0.85019997E+02 -0.10938E+06
 0.85070000E+02 -0.88122E+05
 0.85119995E+02 -0.57025E+05
 0.85169998E+02 -0.10683E+05
 0.85220001E+02  0.44378E+05
 0.85269997E+02  0.95336E+05
 0.85320000E+02  0.12965E+06
 0.85369995E+02  0.14240E+06
 0.85419998E+02  0.13390E+06
 0.85470001E+02  0.11108E+06
 0.85519997E+02  0.86075E+05
 0.85570000E+02  0.67978E+05
 0.85619995E+02  0.53942E+05
 0.85669998E+02  0.43694E+05
 0.85720001E+02  0.45642E+05
 0.85769997E+02  0.60039E+05
 0.85820000E+02  0.84657E+05
 0.85869995E+02  0.11982E+06
 0.85919998E+02  0.16357E+06
 0.85970001E+02  0.21233E+06
 0.86019997E+02  0.26037E+06
 0.86070000E+02  0.30757E+06
 0.86119995E+02  0.35918E+06
 0.86169998E+02  0.40465E+06
 0.86220001E+02  0.44011E+06
 0.86269997E+02  0.47782E+06
 0.86320000E+02  0.51855E+06
 0.86369995E+02  0.55386E+06
 0.86419998E+02  0.57889E+06
 0.86470001E+02  0.60274E+06
 0.86519997E+02  0.63071E+06
 0.86570000E+02  0.66026E+06
 0.86619995E+02  0.68635E+06
 0.86669998E+02  0.71042E+06
 0.86720001E+02  0.74283E+06
 0.86769997E+02  0.77415E+06
 0.86820000E+02  0.79918E+06
 0.86869995E+02  0.82635E+06
 0.86919998E+02  0.85102E+06
 0.86970001E+02  0.87476E+06
 0.87019997E+02  0.90886E+06
 0.87070000E+02  0.94486E+06
 0.87119995E+02  0.96118E+06
 0.87169998E+02  0.94014E+06
 0.87220001E+02  0.87952E+06
 0.87269997E+02  0.78744E+06
 0.87320000E+02  0.66828E+06
 0.87369995E+02  0.54485E+06
 0.87419998E+02  0.43963E+06
 0.87470001E+02  0.35724E+06
 0.87519997E+02  0.30453E+06
 0.87570000E+02  0.28217E+06
 0.87619995E+02  0.28032E+06
 0.87669998E+02  0.28068E+06
 0.87720001E+02  0.27146E+06
 0.87769997E+02  0.25157E+06
 0.87820000E+02  0.21628E+06
 0.87869995E+02  0.16671E+06
 0.87919998E+02  0.11014E+06
 0.87970001E+02  0.46685E+05
 0.88019997E+02 -0.26448E+05
 0.88070000E+02 -0.10440E+06
 0.88119995E+02 -0.17952E+06
 0.88169998E+02 -0.24556E+06
 0.88220001E+02 -0.30544E+06
 0.88269997E+02 -0.35934E+06
 0.88320000E+02 -0.39729E+06
 0.88369995E+02 -0.42238E+06
 0.88419998E+02 -0.42444E+06
 0.88470001E+02 -0.38857E+06
 0.88519997E+02 -0.33140E+06
 0.88570000E+02 -0.27706E+06
 0.88619995E+02 -0.24114E+06
 0.88669998E+02 -0.21938E+06
 0.88720001E+02 -0.20290E+06
 0.88769997E+02 -0.19881E+06
 0.88820000E+02 -0.20950E+06
 0.88869995E+02 -0.22734E+06
 0.88919998E+02 -0.24467E+06
 0.88970001E+02 -0.25454E+06
 0.89019997E+02 -0.24944E+06
 0.89070000E+02 -0.23087E+06
 0.89119995E+02 -0.20968E+06
 0.89169998E+02 -0.18332E+06
 0.89220001E+02 -0.14795E+06
 0.89269997E+02 -0.11769E+06
 0.89320000E+02 -0.96512E+05
 0.89369995E+02 -0.77644E+05
 0.89419998E+02 -0.66360E+05
 0.89470001E+02 -0.68022E+05
 0.89519997E+02 -0.76332E+05
 0.89570000E+02 -0.87247E+05
 0.89619995E+02 -0.97256E+05
 0.89669998E+02 -0.10290E+06
 0.89720001E+02 -0.12352E+06
 0.89769997E+02 -0.17104E+06
 0.89820000E+02 -0.23410E+06
 0.89869995E+02 -0.30471E+06
 0.89919998E+02 -0.37359E+06
 0.89970001E+02 -0.43665E+06
 0.90019997E+02 -0.48684E+06
 0.90070000E+02 -0.50741E+06
 0.90119995E+02 -0.49903E+06
 0.90169998E+02 -0.47675E+06
 0.90220001E+02 -0.45046E+06
 0.90269997E+02 -0.42526E+06
 0.90320000E+02 -0.40715E+06
 0.90369995E+02 -0.39776E+06
 0.90419998E+02 -0.38079E+06
 0.90470001E+02 -0.33825E+06
 0.90519997E+02 -0.27619E+06
 0.90570000E+02 -0.20732E+06
 0.90619995E+02 -0.14340E+06
 0.90669998E+02 -0.91419E+05
 0.90720001E+02 -0.47320E+05
 0.90769997E+02 -0.13889E+05
 0.90820000E+02  0.16610E+04
 0.90869995E+02 -0.27200E+04
 0.90919998E+02 -0.24027E+05
 0.90970001E+02 -0.57252E+05
 0.91019997E+02 -0.85319E+05
 0.91070000E+02 -0.84948E+05
 0.91119995E+02 -0.57799E+05
 0.91169998E+02 -0.12718E+05
 0.91220001E+02  0.38240E+05
 0.91269997E+02  0.71762E+05
 0.91320000E+02  0.86561E+05
 0.91369995E+02  0.89934E+05
 0.91419998E+02  0.83926E+05
 0.91470001E+02  0.75067E+05
 0.91519997E+02  0.58656E+05
 0.91570000E+02  0.25808E+05
 0.91619995E+02 -0.24097E+05
 0.91669998E+02 -0.88475E+05
 0.91720001E+02 -0.15343E+06
 0.91769997E+02 -0.20726E+06
 0.91820000E+02 -0.25527E+06
 0.91869995E+02 -0.29523E+06
 0.91919998E+02 -0.31772E+06
 0.91970001E+02 -0.31589E+06
 0.92019997E+02 -0.28756E+06
 0.92070000E+02 -0.23731E+06
 0.92119995E+02 -0.16554E+06
 0.92169998E+02 -0.75045E+05
 0.92220001E+02  0.19310E+05
 0.92269997E+02  0.10468E+06
 0.92320000E+02  0.17686E+06
 0.92369995E+02  0.22666E+06
 0.92419998E+02  0.24231E+06
 0.92470001E+02  0.22285E+06
 0.92519997E+02  0.18325E+06
 0.92570000E+02  0.13759E+06
 0.92619995E+02  0.87870E+05
 0.92669998E+02  0.31791E+05
 0.92720001E+02 -0.32524E+05
 0.92769997E+02 -0.96940E+05
 0.92820000E+02 -0.14805E+06
 0.92869995E+02 -0.18215E+06
 0.92919998E+02 -0.20165E+06
 0.92970001E+02 -0.20556E+06
 0.93019997E+02 -0.19505E+06
 0.93070000E+02 -0.17314E+06
 0.93119995E+02 -0.14490E+06
 0.93169998E+02 -0.11208E+06
 0.93220001E+02 -0.67437E+05
 0.93269997E+02 -0.13880E+05
 0.93320000E+02  0.40048E+05
 0.93369995E+02  0.90151E+05
 0.93419998E+02  0.13470E+06
 0.93470001E+02  0.16834E+06
 0.93519997E+02  0.17929E+06
 0.93570000E+02  0.16697E+06
 0.93619995E+02  0.14203E+06
 0.93669998E+02  0.12378E+06
 0.93720001E+02  0.12415E+06
 0.93769997E+02  0.12761E+06
 0.93820000E+02  0.12556E+06
 0.93869995E+02  0.12319E+06
 0.93919998E+02  0.12155E+06
 0.93970001E+02  0.12443E+06
 0.94019997E+02  0.13020E+06
 0.94070000E+02  0.13704E+06
 0.94119995E+02  0.14902E+06
 0.94169998E+02  0.16539E+06
 0.94220001E+02  0.18182E+06
 0.94269997E+02  0.19930E+06
 0.94320000E+02  0.22345E+06
 0.94369995E+02  0.24512E+06
 0.94419998E+02  0.24419E+06
 0.94470001E+02  0.21511E+06
 0.94519997E+02  0.16374E+06
 0.94570000E+02  0.95843E+05
 0.94619995E+02  0.17991E+05
 0.94669998E+02 -0.56581E+05
 0.94720001E+02 -0.11743E+06
 0.94769997E+02 -0.16568E+06
 0.94820000E+02 -0.20188E+06
 0.94869995E+02 -0.22902E+06
 0.94919998E+02 -0.25346E+06
 0.94970001E+02 -0.26764E+06
 0.95019997E+02 -0.25586E+06
 0.95070000E+02 -0.22058E+06
 0.95119995E+02 -0.17114E+06
 0.95169998E+02 -0.12009E+06
 0.95220001E+02 -0.86642E+05
 0.95269997E+02 -0.72604E+05
 0.95320000E+02 -0.75124E+05
 0.95369995E+02 -0.86218E+05
 0.95419998E+02 -0.94222E+05
 0.95470001E+02 -0.92159E+05
 0.95519997E+02 -0.67566E+05
 0.95570000E+02 -0.24513E+05
 0.95619995E+02  0.19882E+05
 0.95669998E+02  0.55293E+05
 0.95720001E+02  0.76003E+05
 0.95769997E+02  0.84150E+05
 0.95820000E+02  0.96434E+05
 0.95869995E+02  0.12399E+06
 0.95919998E+02  0.15643E+06
 0.95970001E+02  0.18980E+06
 0.96019997E+02  0.22324E+06
 0.96070000E+02  0.24786E+06
 0.96119995E+02  0.26130E+06
 0.96169998E+02  0.26121E+06
 0.96220001E+02  0.24282E+06
 0.96269997E+02  0.20513E+06
 0.96320000E+02  0.15815E+06
 0.96369995E+02  0.11947E+06
 0.96419998E+02  0.10211E+06
 0.96470001E+02  0.11130E+06
 0.96519997E+02  0.14661E+06
 0.96570000E+02  0.19976E+06
 0.96619995E+02  0.25212E+06
 0.96669998E+02  0.29392E+06
 0.96720001E+02  0.32737E+06
 0.96769997E+02  0.35241E+06
 0.96820000E+02  0.37028E+06
 0.96869995E+02  0.38757E+06
 0.96919998E+02  0.41250E+06
 0.96970001E+02  0.44685E+06
 0.97019997E+02  0.48124E+06
 0.97070000E+02  0.50235E+06
 0.97119995E+02  0.50324E+06
 0.97169998E+02  0.48615E+06
 0.97220001E+02  0.45252E+06
 0.97269997E+02  0.40027E+06
 0.97320000E+02  0.33660E+06
 0.97369995E+02  0.27752E+06
 0.97419998E+02  0.22782E+06
 0.97470001E+02  0.18219E+06
 0.97519997E+02  0.13964E+06
 0.97570000E+02  0.97599E+05
 0.97619995E+02  0.50283E+05
 0.97669998E+02 -0.66330E+04
 0.97720001E+02 -0.74723E+05
 0.97769997E+02 -0.15287E+06
 0.97820000E+02 -0.22928E+06
 0.97869995E+02 -0.28699E+06
 0.97919998E+02 -0.32018E+06
 0.97970001E+02 -0.33315E+06
 0.98019997E+02 -0.33558E+06
