-0.20000000E+01 -0.20891E+05
-0.19500000E+01 -0.20956E+05
-0.19000000E+01 -0.20742E+05
-0.18500000E+01 -0.20187E+05
-0.18000000E+01 -0.19384E+05
-0.17500000E+01 -0.18417E+05
-0.17000000E+01 -0.17364E+05
-0.16500001E+01 -0.16254E+05
-0.16000000E+01 -0.15082E+05
-0.15500000E+01 -0.13827E+05
-0.15000000E+01 -0.12548E+05
-0.14500000E+01 -0.11380E+05
-0.14000001E+01 -0.10371E+05
-0.13500000E+01 -0.94926E+04
-0.13000001E+01 -0.85865E+04
-0.12500000E+01 -0.75682E+04
-0.12000000E+01 -0.64599E+04
-0.11500001E+01 -0.53721E+04
-0.11000000E+01 -0.44515E+04
-0.10500001E+01 -0.38006E+04
-0.10000000E+01 -0.34284E+04
-0.95000005E+00 -0.30607E+04
-0.90000010E+00 -0.23723E+04
-0.85000002E+00 -0.12543E+04
-0.80000007E+00  0.19048E+03
-0.75000012E+00  0.17599E+04
-0.70000005E+00  0.32590E+04
-0.65000010E+00  0.46276E+04
-0.60000014E+00  0.58391E+04
-0.55000007E+00  0.69402E+04
-0.50000012E+00  0.80830E+04
-0.45000005E+00  0.93701E+04
-0.40000010E+00  0.10839E+05
-0.35000014E+00  0.12386E+05
-0.30000007E+00  0.13862E+05
-0.25000012E+00  0.15281E+05
-0.20000005E+00  0.16741E+05
-0.15000010E+00  0.18234E+05
-0.10000014E+00  0.19685E+05
-0.50000072E-01  0.21034E+05
-0.11920929E-06  0.22148E+05
 0.49999952E-01  0.22881E+05
 0.99999905E-01  0.23280E+05
 0.14999986E+00  0.23511E+05
 0.19999981E+00  0.23580E+05
 0.24999976E+00  0.23304E+05
 0.29999995E+00  0.22629E+05
 0.34999990E+00  0.21625E+05
 0.39999986E+00  0.20409E+05
 0.44999981E+00  0.19088E+05
 0.49999976E+00  0.17714E+05
 0.54999995E+00  0.16342E+05
 0.59999990E+00  0.14969E+05
 0.64999986E+00  0.13670E+05
 0.69999981E+00  0.12569E+05
 0.74999976E+00  0.11721E+05
 0.79999971E+00  0.11034E+05
 0.84999990E+00  0.10360E+05
 0.89999986E+00  0.96049E+04
 0.94999981E+00  0.88537E+04
 0.99999976E+00  0.82458E+04
 0.10499997E+01  0.77496E+04
 0.10999999E+01  0.72669E+04
 0.11499999E+01  0.67186E+04
 0.11999998E+01  0.59068E+04
 0.12499998E+01  0.45901E+04
 0.12999997E+01  0.28829E+04
 0.13499999E+01  0.10038E+04
 0.13999999E+01 -0.90908E+03
 0.14499998E+01 -0.28653E+04
 0.14999998E+01 -0.49502E+04
 0.15499997E+01 -0.71676E+04
 0.15999999E+01 -0.93341E+04
 0.16499999E+01 -0.11201E+05
 0.16999998E+01 -0.12606E+05
 0.17499998E+01 -0.13526E+05
 0.17999997E+01 -0.14079E+05
 0.18499997E+01 -0.14295E+05
 0.18999999E+01 -0.14092E+05
 0.19499998E+01 -0.13468E+05
 0.19999998E+01 -0.12602E+05
 0.20499997E+01 -0.11571E+05
 0.20999999E+01 -0.10377E+05
 0.21499996E+01 -0.90414E+04
 0.21999998E+01 -0.74815E+04
 0.22499995E+01 -0.56054E+04
 0.22999997E+01 -0.35883E+04
 0.23499999E+01 -0.16478E+04
 0.23999996E+01  0.16109E+03
 0.24499998E+01  0.18222E+04
 0.24999995E+01  0.32967E+04
 0.25499997E+01  0.45160E+04
 0.25999999E+01  0.54980E+04
 0.26499996E+01  0.63316E+04
 0.26999998E+01  0.71942E+04
 0.27499995E+01  0.81701E+04
 0.27999997E+01  0.91369E+04
 0.28499999E+01  0.99437E+04
 0.28999996E+01  0.10560E+05
 0.29499998E+01  0.11059E+05
 0.29999995E+01  0.11506E+05
 0.30499997E+01  0.12073E+05
 0.30999999E+01  0.12836E+05
 0.31499996E+01  0.13685E+05
 0.31999998E+01  0.14583E+05
 0.32499995E+01  0.15474E+05
 0.32999997E+01  0.16298E+05
 0.33499999E+01  0.17102E+05
 0.33999996E+01  0.17905E+05
 0.34499998E+01  0.18677E+05
 0.34999995E+01  0.19389E+05
 0.35499997E+01  0.19905E+05
 0.35999994E+01  0.20021E+05
 0.36499996E+01  0.19577E+05
 0.36999998E+01  0.18465E+05
 0.37499995E+01  0.16663E+05
 0.37999997E+01  0.14403E+05
 0.38499994E+01  0.11986E+05
 0.38999996E+01  0.95467E+04
 0.39499998E+01  0.70787E+04
 0.39999995E+01  0.44963E+04
 0.40499997E+01  0.18221E+04
 0.40999994E+01 -0.83471E+03
 0.41499996E+01 -0.33685E+04
 0.41999998E+01 -0.56741E+04
 0.42499995E+01 -0.77497E+04
 0.42999997E+01 -0.96427E+04
 0.43499994E+01 -0.11398E+05
 0.43999996E+01 -0.13133E+05
 0.44499998E+01 -0.14855E+05
 0.44999995E+01 -0.16434E+05
 0.45499997E+01 -0.17817E+05
 0.45999994E+01 -0.19081E+05
 0.46499996E+01 -0.20223E+05
 0.46999998E+01 -0.21094E+05
 0.47499995E+01 -0.21558E+05
 0.47999997E+01 -0.21400E+05
 0.48499994E+01 -0.20470E+05
 0.48999996E+01 -0.18818E+05
 0.49499998E+01 -0.16559E+05
 0.49999995E+01 -0.13873E+05
 0.50499997E+01 -0.10949E+05
 0.50999994E+01 -0.79116E+04
 0.51499996E+01 -0.48607E+04
 0.51999998E+01 -0.19322E+04
 0.52499995E+01  0.72148E+03
 0.52999997E+01  0.30305E+04
 0.53499994E+01  0.50171E+04
 0.53999996E+01  0.67164E+04
 0.54499993E+01  0.81348E+04
 0.54999995E+01  0.92291E+04
 0.55499997E+01  0.99266E+04
 0.55999994E+01  0.10185E+05
 0.56499996E+01  0.10070E+05
 0.56999993E+01  0.96641E+04
 0.57499995E+01  0.90370E+04
 0.57999997E+01  0.83004E+04
 0.58499994E+01  0.75295E+04
 0.58999996E+01  0.67401E+04
 0.59499993E+01  0.59281E+04
 0.59999995E+01  0.51982E+04
 0.60499992E+01  0.45942E+04
 0.60999994E+01  0.40141E+04
 0.61499996E+01  0.34232E+04
 0.61999998E+01  0.28654E+04
 0.62499990E+01  0.23526E+04
 0.62999992E+01  0.18491E+04
 0.63499994E+01  0.14045E+04
 0.63999996E+01  0.11071E+04
 0.64499998E+01  0.10342E+04
 0.64999990E+01  0.12107E+04
 0.65499992E+01  0.15573E+04
 0.65999994E+01  0.19593E+04
 0.66499996E+01  0.23370E+04
 0.66999998E+01  0.26122E+04
 0.67499990E+01  0.27209E+04
 0.67999992E+01  0.26395E+04
 0.68499994E+01  0.23608E+04
 0.68999996E+01  0.19599E+04
 0.69499998E+01  0.14549E+04
 0.69999990E+01  0.90454E+03
 0.70499992E+01  0.43685E+03
 0.70999994E+01  0.18169E+03
 0.71499996E+01  0.18726E+03
 0.71999998E+01  0.37093E+03
 0.72499990E+01  0.68414E+03
 0.72999992E+01  0.10311E+04
 0.73499994E+01  0.12845E+04
 0.73999996E+01  0.12371E+04
 0.74499998E+01  0.86915E+03
 0.74999990E+01  0.42161E+03
 0.75499992E+01  0.12519E+03
 0.75999994E+01  0.38113E+02
 0.76499996E+01  0.59631E+02
 0.76999998E+01  0.11472E+03
 0.77499990E+01  0.12420E+03
 0.77999992E+01  0.32725E+02
 0.78499994E+01 -0.19751E+03
 0.78999996E+01 -0.51876E+03
 0.79499998E+01 -0.94683E+03
 0.79999990E+01 -0.14904E+04
 0.80499992E+01 -0.20836E+04
 0.80999994E+01 -0.26643E+04
 0.81499996E+01 -0.31577E+04
 0.81999998E+01 -0.34580E+04
 0.82499990E+01 -0.34703E+04
 0.82999992E+01 -0.32669E+04
 0.83499994E+01 -0.28619E+04
 0.83999996E+01 -0.22982E+04
 0.84499998E+01 -0.16447E+04
 0.84999990E+01 -0.93391E+03
 0.85499992E+01 -0.12284E+03
 0.85999994E+01  0.81894E+03
 0.86499996E+01  0.18136E+04
 0.86999998E+01  0.29136E+04
 0.87499990E+01  0.41519E+04
 0.87999992E+01  0.54382E+04
 0.88499994E+01  0.67369E+04
 0.88999996E+01  0.80825E+04
 0.89499998E+01  0.93964E+04
 0.89999990E+01  0.10548E+05
 0.90499992E+01  0.11463E+05
 0.90999994E+01  0.12122E+05
 0.91499996E+01  0.12481E+05
 0.91999989E+01  0.12478E+05
 0.92499990E+01  0.12137E+05
 0.92999992E+01  0.11476E+05
 0.93499994E+01  0.10556E+05
 0.93999996E+01  0.94930E+04
 0.94499989E+01  0.82780E+04
 0.94999990E+01  0.69159E+04
 0.95499992E+01  0.54537E+04
 0.95999994E+01  0.39291E+04
 0.96499996E+01  0.23364E+04
 0.96999989E+01  0.71521E+03
 0.97499990E+01 -0.78746E+03
 0.97999992E+01 -0.20787E+04
 0.98499994E+01 -0.31780E+04
 0.98999996E+01 -0.41606E+04
 0.99499989E+01 -0.51449E+04
 0.99999990E+01 -0.61674E+04
 0.10049999E+02 -0.69840E+04
 0.10099999E+02 -0.74471E+04
 0.10150000E+02 -0.76729E+04
 0.10199999E+02 -0.78544E+04
 0.10249999E+02 -0.81369E+04
 0.10299999E+02 -0.85445E+04
 0.10349999E+02 -0.90601E+04
 0.10400000E+02 -0.96379E+04
 0.10449999E+02 -0.10099E+05
 0.10499999E+02 -0.10295E+05
 0.10549999E+02 -0.10254E+05
 0.10599999E+02 -0.10112E+05
 0.10650000E+02 -0.99718E+04
 0.10699999E+02 -0.98179E+04
 0.10749999E+02 -0.96273E+04
 0.10799999E+02 -0.93252E+04
 0.10849999E+02 -0.88860E+04
 0.10900000E+02 -0.83274E+04
 0.10949999E+02 -0.75377E+04
 0.10999999E+02 -0.64228E+04
 0.11049999E+02 -0.49874E+04
 0.11099999E+02 -0.32329E+04
 0.11150000E+02 -0.10806E+04
 0.11199999E+02  0.14589E+04
 0.11249999E+02  0.42067E+04
 0.11299999E+02  0.69556E+04
 0.11349999E+02  0.95718E+04
 0.11400000E+02  0.11965E+05
 0.11449999E+02  0.14055E+05
 0.11499999E+02  0.15870E+05
 0.11549999E+02  0.17526E+05
 0.11599999E+02  0.19060E+05
 0.11650000E+02  0.20437E+05
 0.11699999E+02  0.21639E+05
 0.11749999E+02  0.22591E+05
 0.11799999E+02  0.23280E+05
 0.11849999E+02  0.23787E+05
 0.11900000E+02  0.24125E+05
 0.11949999E+02  0.24299E+05
 0.11999999E+02  0.24290E+05
 0.12049999E+02  0.24012E+05
 0.12099999E+02  0.23439E+05
 0.12150000E+02  0.22623E+05
 0.12199999E+02  0.21572E+05
 0.12249999E+02  0.20192E+05
 0.12299999E+02  0.18334E+05
 0.12349999E+02  0.15991E+05
 0.12400000E+02  0.13393E+05
 0.12449999E+02  0.10841E+05
 0.12499999E+02  0.84816E+04
 0.12549999E+02  0.63029E+04
 0.12599999E+02  0.42951E+04
 0.12649999E+02  0.24469E+04
 0.12699999E+02  0.64127E+03
 0.12749999E+02 -0.12126E+04
 0.12799999E+02 -0.29632E+04
 0.12849999E+02 -0.44166E+04
 0.12899999E+02 -0.55703E+04
 0.12949999E+02 -0.65085E+04
 0.12999999E+02 -0.72299E+04
 0.13049999E+02 -0.77375E+04
 0.13099999E+02 -0.81019E+04
 0.13149999E+02 -0.83329E+04
 0.13199999E+02 -0.85296E+04
 0.13249999E+02 -0.87998E+04
 0.13299999E+02 -0.91598E+04
 0.13349999E+02 -0.96148E+04
 0.13399999E+02 -0.10150E+05
 0.13449999E+02 -0.10686E+05
 0.13499999E+02 -0.11097E+05
 0.13549999E+02 -0.11419E+05
 0.13599999E+02 -0.11696E+05
 0.13649999E+02 -0.11918E+05
 0.13699999E+02 -0.12066E+05
 0.13749999E+02 -0.12095E+05
 0.13799999E+02 -0.11999E+05
 0.13849999E+02 -0.11836E+05
 0.13899999E+02 -0.11598E+05
 0.13949999E+02 -0.11233E+05
 0.13999999E+02 -0.10768E+05
 0.14049999E+02 -0.10231E+05
 0.14099998E+02 -0.95955E+04
 0.14150000E+02 -0.88232E+04
 0.14199999E+02 -0.79481E+04
 0.14249998E+02 -0.70100E+04
 0.14299999E+02 -0.60927E+04
 0.14349998E+02 -0.52597E+04
 0.14400000E+02 -0.44739E+04
 0.14449999E+02 -0.37234E+04
 0.14499998E+02 -0.30021E+04
 0.14549999E+02 -0.23320E+04
 0.14599998E+02 -0.17668E+04
 0.14650000E+02 -0.12560E+04
 0.14699999E+02 -0.71738E+03
 0.14749998E+02 -0.98708E+02
 0.14799999E+02  0.70605E+03
 0.14849998E+02  0.18488E+04
 0.14900000E+02  0.32699E+04
 0.14949999E+02  0.47258E+04
 0.14999998E+02  0.60469E+04
 0.15049999E+02  0.71228E+04
 0.15099998E+02  0.80414E+04
 0.15150000E+02  0.88791E+04
 0.15199999E+02  0.96031E+04
 0.15249998E+02  0.10134E+05
 0.15299999E+02  0.10414E+05
 0.15349998E+02  0.10509E+05
 0.15400000E+02  0.10407E+05
 0.15449999E+02  0.10171E+05
 0.15499998E+02  0.98161E+04
 0.15549999E+02  0.93997E+04
 0.15599998E+02  0.89945E+04
 0.15650000E+02  0.85881E+04
 0.15699999E+02  0.81644E+04
 0.15749998E+02  0.76712E+04
 0.15799999E+02  0.71723E+04
 0.15849998E+02  0.66987E+04
 0.15900000E+02  0.63523E+04
 0.15949999E+02  0.62240E+04
 0.15999998E+02  0.63577E+04
 0.16049999E+02  0.67329E+04
 0.16099998E+02  0.71825E+04
 0.16150000E+02  0.75398E+04
 0.16199999E+02  0.77200E+04
 0.16249998E+02  0.77263E+04
 0.16299999E+02  0.75941E+04
 0.16349998E+02  0.72891E+04
 0.16400000E+02  0.67926E+04
 0.16449999E+02  0.61230E+04
 0.16499998E+02  0.52594E+04
 0.16549999E+02  0.43296E+04
 0.16599998E+02  0.34857E+04
 0.16650000E+02  0.28032E+04
 0.16699999E+02  0.22177E+04
 0.16749998E+02  0.16240E+04
 0.16799999E+02  0.99343E+03
 0.16849998E+02  0.27787E+03
 0.16900000E+02 -0.62335E+03
 0.16949999E+02 -0.17295E+04
 0.16999998E+02 -0.28796E+04
 0.17049999E+02 -0.38774E+04
 0.17099998E+02 -0.45970E+04
 0.17150000E+02 -0.50468E+04
 0.17199999E+02 -0.53713E+04
 0.17249998E+02 -0.56048E+04
 0.17299999E+02 -0.56653E+04
 0.17349998E+02 -0.55583E+04
 0.17400000E+02 -0.52737E+04
 0.17449999E+02 -0.48362E+04
 0.17499998E+02 -0.43666E+04
 0.17549999E+02 -0.39260E+04
 0.17599998E+02 -0.34426E+04
 0.17650000E+02 -0.28367E+04
 0.17699999E+02 -0.20950E+04
 0.17749998E+02 -0.12969E+04
 0.17799999E+02 -0.40733E+03
 0.17849998E+02  0.84818E+03
 0.17900000E+02  0.32236E+04
 0.17949999E+02  0.73884E+04
 0.17999998E+02  0.13808E+05
 0.18049999E+02  0.21827E+05
 0.18099998E+02  0.28814E+05
 0.18150000E+02  0.32180E+05
 0.18199999E+02  0.31912E+05
 0.18249998E+02  0.29248E+05
 0.18299999E+02  0.26814E+05
 0.18349998E+02  0.27420E+05
 0.18400000E+02  0.27420E+05
 0.18449999E+02  0.22663E+05
 0.18499998E+02  0.13714E+05
 0.18549999E+02  0.19036E+04
 0.18599998E+02 -0.11389E+05
 0.18650000E+02 -0.14723E+05
 0.18699999E+02 -0.20338E+04
 0.18749998E+02  0.22696E+05
 0.18799999E+02  0.53380E+05
 0.18849998E+02  0.80907E+05
 0.18900000E+02  0.92120E+05
 0.18949999E+02  0.86436E+05
 0.18999998E+02  0.75081E+05
 0.19049999E+02  0.70525E+05
 0.19099998E+02  0.81270E+05
 0.19150000E+02  0.82994E+05
 0.19199999E+02  0.62301E+05
 0.19249998E+02  0.14917E+05
 0.19299999E+02 -0.65945E+05
 0.19349998E+02 -0.14930E+06
 0.19400000E+02 -0.20428E+06
 0.19449999E+02 -0.23952E+06
 0.19499998E+02 -0.25982E+06
 0.19549999E+02 -0.26370E+06
 0.19599998E+02 -0.26683E+06
 0.19650000E+02 -0.27211E+06
 0.19699999E+02 -0.25164E+06
 0.19749998E+02 -0.18899E+06
 0.19799999E+02 -0.11198E+06
 0.19849998E+02 -0.37725E+05
 0.19900000E+02  0.41667E+05
 0.19949999E+02  0.10055E+06
 0.19999998E+02  0.12507E+06
 0.20049999E+02  0.14306E+06
 0.20099998E+02  0.15895E+06
 0.20150000E+02  0.16476E+06
 0.20199999E+02  0.18811E+06
 0.20249998E+02  0.19694E+06
 0.20299999E+02  0.16912E+06
 0.20349998E+02  0.14199E+06
 0.20399998E+02  0.83274E+05
 0.20449999E+02  0.66082E+05
 0.20499998E+02  0.77636E+05
 0.20549999E+02  0.61236E+05
 0.20599998E+02  0.55932E+05
 0.20649998E+02  0.66689E+05
 0.20699999E+02  0.11034E+06
 0.20749998E+02  0.10289E+06
 0.20799999E+02  0.54585E+05
 0.20849998E+02 -0.19138E+05
 0.20899998E+02 -0.89582E+05
 0.20949999E+02 -0.15932E+06
 0.20999998E+02 -0.22239E+06
 0.21049999E+02 -0.26519E+06
 0.21099998E+02 -0.28721E+06
 0.21149998E+02 -0.26861E+06
 0.21199999E+02 -0.26016E+06
 0.21249998E+02 -0.17641E+06
 0.21299999E+02 -0.10018E+06
 0.21349998E+02 -0.22339E+05
 0.21399998E+02  0.87825E+05
 0.21449999E+02  0.13021E+06
 0.21499998E+02  0.14151E+06
 0.21549999E+02  0.17518E+06
 0.21599998E+02  0.19844E+06
 0.21649998E+02  0.16892E+06
 0.21699999E+02  0.13567E+06
 0.21749998E+02  0.75543E+05
 0.21799999E+02 -0.59978E+04
 0.21849998E+02 -0.42906E+05
 0.21899998E+02 -0.66679E+05
 0.21949999E+02 -0.11008E+06
 0.21999998E+02 -0.11830E+06
 0.22049999E+02 -0.67570E+05
 0.22099998E+02 -0.81364E+05
 0.22149998E+02 -0.13982E+06
 0.22199999E+02 -0.13307E+06
 0.22249998E+02 -0.36624E+05
 0.22299999E+02  0.96962E+05
 0.22349998E+02  0.11900E+06
 0.22399998E+02  0.53340E+05
 0.22449999E+02 -0.80975E+04
 0.22499998E+02 -0.12671E+05
 0.22549999E+02 -0.48291E+05
 0.22599998E+02 -0.55688E+05
 0.22649998E+02 -0.44874E+05
 0.22699999E+02 -0.10812E+06
 0.22749998E+02 -0.15940E+06
 0.22799999E+02 -0.13162E+06
 0.22849998E+02 -0.11540E+05
 0.22899998E+02  0.68937E+05
 0.22949999E+02  0.13549E+06
 0.22999998E+02  0.16728E+06
 0.23049999E+02  0.15661E+06
 0.23099998E+02  0.14978E+06
 0.23149998E+02  0.15731E+06
 0.23199999E+02  0.99087E+05
 0.23249998E+02  0.20113E+05
 0.23299999E+02  0.12758E+05
 0.23349998E+02 -0.13339E+05
 0.23399998E+02 -0.35063E+05
 0.23449999E+02 -0.71490E+05
 0.23499998E+02 -0.16333E+06
 0.23549999E+02 -0.25161E+06
 0.23599998E+02 -0.29025E+06
 0.23649998E+02 -0.38581E+06
 0.23699999E+02 -0.45646E+06
 0.23749998E+02 -0.43507E+06
 0.23799999E+02 -0.27388E+06
 0.23849998E+02 -0.81290E+05
 0.23899998E+02  0.10325E+06
 0.23949999E+02  0.25778E+06
 0.23999998E+02  0.33888E+06
 0.24049999E+02  0.40249E+06
 0.24099998E+02  0.31087E+06
 0.24149998E+02  0.12804E+06
 0.24199999E+02 -0.83389E+05
 0.24249998E+02 -0.11252E+06
 0.24299999E+02 -0.76168E+04
 0.24349998E+02  0.34611E+05
 0.24399998E+02  0.90706E+05
 0.24449999E+02  0.20946E+06
 0.24499998E+02  0.31565E+06
 0.24549999E+02  0.33808E+06
 0.24599998E+02  0.32365E+06
 0.24649998E+02  0.17574E+06
 0.24699999E+02 -0.79057E+05
 0.24749998E+02 -0.12219E+06
 0.24799999E+02 -0.32338E+05
 0.24849998E+02 -0.16759E+05
 0.24899998E+02 -0.71794E+05
 0.24949999E+02 -0.79947E+05
 0.24999998E+02 -0.66406E+05
 0.25049999E+02 -0.17693E+06
 0.25099998E+02 -0.11829E+06
 0.25149998E+02  0.26070E+05
 0.25199999E+02  0.62322E+05
 0.25249998E+02  0.89879E+05
 0.25299999E+02  0.81918E+05
 0.25349998E+02  0.27550E+05
 0.25399998E+02 -0.10688E+05
 0.25449999E+02  0.23985E+04
 0.25499998E+02  0.60547E+04
 0.25549999E+02 -0.96398E+05
 0.25599998E+02 -0.12577E+06
 0.25649998E+02 -0.48876E+05
 0.25699999E+02 -0.11254E+06
 0.25749998E+02 -0.12450E+06
 0.25799999E+02 -0.49035E+05
 0.25849998E+02  0.26981E+05
 0.25899998E+02  0.99191E+05
 0.25949999E+02  0.22209E+06
 0.25999998E+02  0.28552E+06
 0.26049999E+02  0.24297E+06
 0.26099998E+02  0.25189E+06
 0.26149998E+02  0.20867E+06
 0.26199999E+02  0.20687E+06
 0.26249998E+02  0.26347E+06
 0.26299999E+02  0.31441E+06
 0.26349998E+02  0.30288E+06
 0.26399998E+02  0.27782E+06
 0.26449999E+02  0.24203E+06
 0.26499998E+02  0.14437E+06
 0.26549999E+02  0.13487E+06
 0.26599998E+02  0.14551E+06
 0.26649998E+02  0.11606E+06
 0.26699999E+02  0.12230E+06
 0.26749998E+02  0.14359E+06
 0.26799999E+02  0.16319E+06
 0.26849998E+02  0.22156E+06
 0.26899998E+02  0.20014E+06
 0.26949999E+02  0.90746E+05
 0.26999998E+02  0.22963E+05
 0.27049997E+02  0.24542E+05
 0.27099998E+02  0.33617E+05
 0.27149998E+02  0.11204E+06
 0.27199999E+02  0.17310E+06
 0.27249998E+02  0.22835E+06
 0.27299997E+02  0.27358E+06
 0.27349998E+02  0.22272E+06
 0.27399998E+02  0.20701E+06
 0.27449999E+02  0.18243E+06
 0.27499998E+02  0.13137E+06
 0.27549997E+02 -0.14400E+05
 0.27599998E+02 -0.10946E+06
 0.27649998E+02 -0.12055E+06
 0.27699999E+02 -0.43881E+05
 0.27749998E+02  0.11516E+06
 0.27799997E+02  0.27443E+06
 0.27849998E+02  0.41193E+06
 0.27899998E+02  0.41328E+06
 0.27949999E+02  0.30849E+06
 0.27999998E+02  0.14155E+06
 0.28049997E+02 -0.11602E+05
 0.28099998E+02 -0.19368E+06
 0.28149998E+02 -0.38962E+06
 0.28199999E+02 -0.54802E+06
 0.28249998E+02 -0.66596E+06
 0.28299997E+02 -0.66223E+06
 0.28349998E+02 -0.46725E+06
 0.28399998E+02 -0.17927E+06
 0.28449999E+02  0.17709E+05
 0.28499998E+02  0.14381E+06
 0.28549997E+02  0.23608E+06
 0.28599998E+02  0.29247E+06
 0.28649998E+02  0.33580E+06
 0.28699999E+02  0.34212E+06
 0.28749998E+02  0.26128E+06
 0.28799997E+02  0.22997E+06
 0.28849998E+02  0.24659E+06
 0.28899998E+02  0.19631E+06
 0.28949999E+02  0.17292E+06
 0.28999998E+02  0.19662E+06
 0.29049997E+02  0.19415E+06
 0.29099998E+02  0.51777E+05
 0.29149998E+02 -0.10813E+06
 0.29199999E+02 -0.22864E+06
 0.29249998E+02 -0.31516E+06
 0.29299997E+02 -0.34738E+06
 0.29349998E+02 -0.34102E+06
 0.29399998E+02 -0.28126E+06
 0.29449999E+02 -0.17160E+06
 0.29499998E+02 -0.19034E+05
 0.29549997E+02  0.49110E+05
 0.29599998E+02  0.29524E+05
 0.29649998E+02 -0.12049E+06
 0.29699999E+02 -0.36274E+06
 0.29749998E+02 -0.52879E+06
 0.29799997E+02 -0.60562E+06
 0.29849998E+02 -0.55608E+06
 0.29899998E+02 -0.32839E+06
 0.29949999E+02 -0.11339E+06
 0.29999998E+02 -0.34081E+05
 0.30049999E+02 -0.55307E+05
 0.30099998E+02 -0.13904E+06
 0.30149998E+02 -0.24203E+06
 0.30199997E+02 -0.24100E+06
 0.30249996E+02 -0.10833E+06
 0.30299999E+02  0.65991E+05
 0.30349998E+02  0.22890E+06
 0.30399998E+02  0.32098E+06
 0.30449997E+02  0.37050E+06
 0.30499996E+02  0.40793E+06
 0.30549999E+02  0.43356E+06
 0.30599998E+02  0.43059E+06
 0.30649998E+02  0.44596E+06
 0.30699997E+02  0.42901E+06
 0.30749996E+02  0.28062E+06
 0.30799999E+02 -0.20595E+05
 0.30849998E+02 -0.41930E+06
 0.30899998E+02 -0.80792E+06
 0.30949997E+02 -0.99470E+06
 0.30999996E+02 -0.89594E+06
 0.31049999E+02 -0.65633E+06
 0.31099998E+02 -0.27730E+06
 0.31149998E+02  0.69922E+05
 0.31199997E+02  0.31630E+06
 0.31249996E+02  0.34314E+06
 0.31299999E+02  0.83483E+05
 0.31349998E+02 -0.12631E+06
 0.31399998E+02 -0.32302E+06
 0.31449997E+02 -0.50523E+06
 0.31499996E+02 -0.68202E+06
 0.31549999E+02 -0.60924E+06
 0.31599998E+02 -0.55529E+06
 0.31649998E+02 -0.69458E+06
 0.31699997E+02 -0.68765E+06
 0.31749996E+02 -0.70799E+06
 0.31799999E+02 -0.67438E+06
 0.31849998E+02 -0.58747E+06
 0.31899998E+02 -0.30198E+06
 0.31949997E+02  0.70497E+05
 0.31999996E+02  0.31726E+06
 0.32049999E+02  0.59216E+06
 0.32099998E+02  0.69513E+06
 0.32149998E+02  0.56133E+06
 0.32199997E+02  0.40951E+06
 0.32249996E+02  0.93397E+05
 0.32299999E+02 -0.10246E+06
 0.32349998E+02 -0.33827E+05
 0.32399998E+02  0.30610E+05
 0.32449997E+02 -0.10004E+05
 0.32499996E+02  0.44505E+04
 0.32549999E+02  0.10965E+06
 0.32599998E+02  0.26944E+06
 0.32649998E+02  0.54731E+06
 0.32699997E+02  0.77158E+06
 0.32749996E+02  0.75764E+06
 0.32799999E+02  0.46444E+06
 0.32849998E+02  0.31123E+06
 0.32899998E+02  0.23413E+06
 0.32949997E+02  0.21125E+06
 0.32999996E+02  0.13915E+06
 0.33049999E+02 -0.11621E+06
 0.33099998E+02 -0.38396E+06
 0.33149998E+02 -0.45692E+06
 0.33199997E+02 -0.21016E+06
 0.33249996E+02  0.62028E+05
 0.33299999E+02  0.40247E+05
 0.33349998E+02 -0.60003E+05
 0.33399998E+02 -0.29886E+05
 0.33449997E+02  0.21048E+05
 0.33499996E+02  0.17159E+06
 0.33549999E+02  0.48934E+05
 0.33599998E+02 -0.27003E+06
 0.33649998E+02 -0.48337E+06
 0.33699997E+02 -0.64308E+06
 0.33749996E+02 -0.85391E+06
 0.33799999E+02 -0.95868E+06
 0.33849998E+02 -0.63914E+06
 0.33899998E+02 -0.23278E+06
 0.33949997E+02 -0.32801E+05
 0.33999996E+02  0.13124E+06
 0.34049999E+02  0.10326E+06
 0.34099998E+02 -0.14862E+06
 0.34149998E+02 -0.39385E+06
 0.34199997E+02 -0.55052E+06
 0.34249996E+02 -0.56749E+06
 0.34299999E+02 -0.61740E+06
 0.34349998E+02 -0.61014E+06
 0.34399998E+02 -0.65225E+06
 0.34449997E+02 -0.68422E+06
 0.34499996E+02 -0.63993E+06
 0.34549999E+02 -0.55781E+06
 0.34599998E+02 -0.33717E+06
 0.34649998E+02 -0.19002E+05
 0.34699997E+02  0.25096E+06
 0.34749996E+02  0.34939E+06
 0.34799999E+02  0.38664E+06
 0.34849998E+02  0.41147E+06
 0.34899998E+02  0.39180E+06
 0.34949997E+02  0.19910E+06
 0.34999996E+02  0.20481E+05
 0.35049999E+02 -0.49569E+04
 0.35099998E+02 -0.57994E+05
 0.35149998E+02 -0.11064E+06
 0.35199997E+02 -0.65516E+05
 0.35249996E+02  0.23355E+05
 0.35299999E+02  0.10539E+06
 0.35349998E+02  0.90037E+05
 0.35399998E+02 -0.34608E+05
 0.35449997E+02 -0.18693E+06
 0.35499996E+02 -0.26375E+06
 0.35549999E+02 -0.26602E+06
 0.35599998E+02 -0.12110E+06
 0.35649998E+02  0.22260E+06
 0.35699997E+02  0.52467E+06
 0.35749996E+02  0.64821E+06
 0.35799999E+02  0.54315E+06
 0.35849998E+02  0.34206E+06
 0.35899998E+02  0.30245E+06
 0.35949997E+02  0.41438E+06
 0.35999996E+02  0.62401E+06
 0.36049999E+02  0.80958E+06
 0.36099998E+02  0.65009E+06
 0.36149998E+02  0.24293E+06
 0.36199997E+02 -0.64763E+05
 0.36249996E+02 -0.20051E+06
 0.36299999E+02 -0.31345E+06
 0.36349998E+02 -0.37879E+06
 0.36399998E+02 -0.37663E+06
 0.36449997E+02 -0.50822E+06
 0.36499996E+02 -0.71268E+06
 0.36549999E+02 -0.89697E+06
 0.36599998E+02 -0.93729E+06
 0.36649998E+02 -0.81607E+06
 0.36699997E+02 -0.67448E+06
 0.36749996E+02 -0.64120E+06
 0.36799999E+02 -0.69051E+06
 0.36849998E+02 -0.66258E+06
 0.36899998E+02 -0.54861E+06
 0.36949997E+02 -0.29029E+06
 0.36999996E+02 -0.38775E+05
 0.37049999E+02  0.15676E+06
 0.37099998E+02  0.29264E+06
 0.37149998E+02  0.31244E+06
 0.37199997E+02  0.36042E+06
 0.37249996E+02  0.39217E+06
 0.37299999E+02  0.37682E+06
 0.37349998E+02  0.38492E+06
 0.37399998E+02  0.44013E+06
 0.37449997E+02  0.52996E+06
 0.37499996E+02  0.56715E+06
 0.37549999E+02  0.50992E+06
 0.37599998E+02  0.39199E+06
 0.37649998E+02  0.34584E+06
 0.37699997E+02  0.48296E+06
 0.37749996E+02  0.68242E+06
 0.37799999E+02  0.67366E+06
 0.37849998E+02  0.41514E+06
 0.37899998E+02  0.10713E+06
 0.37949997E+02 -0.11833E+06
 0.37999996E+02 -0.10117E+06
 0.38049999E+02  0.49691E+05
 0.38099998E+02  0.17579E+06
 0.38149998E+02  0.22511E+06
 0.38199997E+02  0.18024E+06
 0.38249996E+02  0.88339E+05
 0.38299999E+02 -0.26226E+05
 0.38349998E+02 -0.93800E+05
 0.38399998E+02 -0.81307E+05
 0.38449997E+02  0.22539E+05
 0.38499996E+02  0.23412E+06
 0.38549999E+02  0.55041E+06
 0.38599998E+02  0.86107E+06
 0.38649998E+02  0.10916E+07
 0.38699997E+02  0.12064E+07
 0.38749996E+02  0.12243E+07
 0.38799999E+02  0.11447E+07
 0.38849998E+02  0.99026E+06
 0.38899998E+02  0.82606E+06
 0.38949997E+02  0.59226E+06
 0.38999996E+02  0.34195E+06
 0.39049999E+02  0.11692E+06
 0.39099998E+02 -0.70645E+05
 0.39149998E+02 -0.18726E+06
 0.39199997E+02 -0.29957E+06
 0.39249996E+02 -0.36550E+06
 0.39299999E+02 -0.28524E+06
 0.39349998E+02 -0.59690E+05
 0.39399998E+02  0.17478E+06
 0.39449997E+02  0.26154E+06
 0.39499996E+02  0.22536E+06
 0.39549999E+02  0.16805E+06
 0.39599998E+02  0.96468E+05
 0.39649998E+02  0.48442E+05
 0.39699997E+02  0.59693E+05
 0.39749996E+02  0.10310E+06
 0.39799999E+02  0.14461E+06
 0.39849998E+02  0.14040E+06
 0.39899998E+02  0.58128E+05
 0.39949997E+02 -0.54103E+05
 0.39999996E+02 -0.92336E+05
 0.40049999E+02 -0.17506E+05
 0.40099998E+02  0.98718E+05
 0.40149998E+02  0.23272E+06
 0.40199997E+02  0.40156E+06
 0.40249996E+02  0.49221E+06
 0.40299999E+02  0.47893E+06
 0.40349998E+02  0.44757E+06
 0.40399998E+02  0.46946E+06
 0.40449997E+02  0.49130E+06
 0.40499996E+02  0.46928E+06
 0.40549999E+02  0.41255E+06
 0.40599998E+02  0.32115E+06
 0.40649998E+02  0.30646E+06
 0.40699997E+02  0.38915E+06
 0.40749996E+02  0.42735E+06
 0.40799999E+02  0.40770E+06
 0.40849998E+02  0.39456E+06
 0.40899998E+02  0.39230E+06
 0.40949997E+02  0.42333E+06
 0.40999996E+02  0.46581E+06
 0.41049999E+02  0.42845E+06
 0.41099998E+02  0.25244E+06
 0.41149998E+02  0.39486E+05
 0.41199997E+02 -0.12449E+06
 0.41249996E+02 -0.19996E+06
 0.41299999E+02 -0.14022E+06
 0.41349998E+02 -0.17377E+05
 0.41399998E+02  0.13149E+06
 0.41449997E+02  0.21821E+06
 0.41499996E+02  0.24908E+06
 0.41549999E+02  0.33083E+06
 0.41599998E+02  0.41621E+06
 0.41649998E+02  0.46340E+06
 0.41699997E+02  0.46556E+06
 0.41749996E+02  0.43490E+06
 0.41799999E+02  0.40419E+06
 0.41849998E+02  0.41563E+06
 0.41899998E+02  0.49721E+06
 0.41949997E+02  0.60620E+06
 0.41999996E+02  0.63408E+06
 0.42049999E+02  0.48042E+06
 0.42099998E+02  0.19742E+06
 0.42149998E+02 -0.79033E+05
 0.42199997E+02 -0.30889E+06
 0.42249996E+02 -0.44486E+06
 0.42299999E+02 -0.52707E+06
 0.42349998E+02 -0.53651E+06
 0.42399998E+02 -0.51602E+06
 0.42449997E+02 -0.55570E+06
 0.42499996E+02 -0.60850E+06
 0.42549999E+02 -0.68558E+06
 0.42599998E+02 -0.72137E+06
 0.42649998E+02 -0.72497E+06
 0.42699997E+02 -0.69023E+06
 0.42749996E+02 -0.62441E+06
 0.42799995E+02 -0.56791E+06
 0.42849998E+02 -0.48037E+06
 0.42899998E+02 -0.41710E+06
 0.42949997E+02 -0.43358E+06
 0.42999996E+02 -0.50007E+06
 0.43049995E+02 -0.59723E+06
 0.43099998E+02 -0.73677E+06
 0.43149998E+02 -0.85962E+06
 0.43199997E+02 -0.92220E+06
 0.43249996E+02 -0.90916E+06
 0.43299995E+02 -0.85352E+06
 0.43349998E+02 -0.75191E+06
 0.43399998E+02 -0.55211E+06
 0.43449997E+02 -0.31206E+06
 0.43499996E+02 -0.14510E+06
 0.43549995E+02 -0.15310E+06
 0.43599998E+02 -0.28528E+06
 0.43649998E+02 -0.40694E+06
 0.43699997E+02 -0.47247E+06
 0.43749996E+02 -0.48653E+06
 0.43799995E+02 -0.44339E+06
 0.43849998E+02 -0.35272E+06
 0.43899998E+02 -0.29638E+06
 0.43949997E+02 -0.34043E+06
 0.43999996E+02 -0.40969E+06
 0.44049995E+02 -0.51322E+06
 0.44099998E+02 -0.59547E+06
 0.44149998E+02 -0.59064E+06
 0.44199997E+02 -0.51328E+06
 0.44249996E+02 -0.32803E+06
 0.44299995E+02 -0.11309E+06
 0.44349998E+02  0.47771E+05
 0.44399998E+02  0.14784E+06
 0.44449997E+02  0.14475E+06
 0.44499996E+02  0.11890E+05
 0.44549995E+02 -0.18260E+06
 0.44599998E+02 -0.34338E+06
 0.44649998E+02 -0.41717E+06
 0.44699997E+02 -0.42521E+06
 0.44749996E+02 -0.41188E+06
 0.44799995E+02 -0.43929E+06
 0.44849998E+02 -0.49710E+06
 0.44899998E+02 -0.57499E+06
 0.44949997E+02 -0.68712E+06
 0.44999996E+02 -0.78268E+06
 0.45049995E+02 -0.79481E+06
 0.45099998E+02 -0.73861E+06
 0.45149998E+02 -0.66676E+06
 0.45199997E+02 -0.62180E+06
 0.45249996E+02 -0.61741E+06
 0.45299995E+02 -0.61730E+06
 0.45349998E+02 -0.58585E+06
 0.45399998E+02 -0.51303E+06
 0.45449997E+02 -0.37357E+06
 0.45499996E+02 -0.15876E+06
 0.45549995E+02  0.71456E+05
 0.45599998E+02  0.23311E+06
 0.45649998E+02  0.30290E+06
 0.45699997E+02  0.29974E+06
 0.45749996E+02  0.24445E+06
 0.45799995E+02  0.21420E+06
 0.45849998E+02  0.20738E+06
 0.45899998E+02  0.25297E+06
 0.45949997E+02  0.35372E+06
 0.45999996E+02  0.42369E+06
 0.46049995E+02  0.46447E+06
 0.46099998E+02  0.48862E+06
 0.46149998E+02  0.50452E+06
 0.46199997E+02  0.48088E+06
 0.46249996E+02  0.47470E+06
 0.46299995E+02  0.53107E+06
 0.46349998E+02  0.58755E+06
 0.46399998E+02  0.62216E+06
 0.46449997E+02  0.62936E+06
 0.46499996E+02  0.63571E+06
 0.46549995E+02  0.63888E+06
 0.46599998E+02  0.62792E+06
 0.46649998E+02  0.61684E+06
 0.46699997E+02  0.58104E+06
 0.46749996E+02  0.47994E+06
 0.46799995E+02  0.32172E+06
 0.46849998E+02  0.15097E+06
 0.46899998E+02  0.53256E+05
 0.46949997E+02  0.33874E+05
 0.46999996E+02  0.42114E+05
 0.47049995E+02  0.21192E+05
 0.47099998E+02 -0.31204E+05
 0.47149998E+02 -0.57188E+05
 0.47199997E+02 -0.52783E+05
 0.47249996E+02 -0.40988E+05
 0.47299995E+02 -0.42711E+05
 0.47349998E+02 -0.39739E+05
 0.47399998E+02 -0.40331E+05
 0.47449997E+02 -0.31851E+05
 0.47499996E+02 -0.40064E+05
 0.47549995E+02 -0.78630E+05
 0.47599998E+02 -0.11257E+06
 0.47649998E+02 -0.12657E+06
 0.47699997E+02 -0.91369E+05
 0.47749996E+02 -0.23553E+05
 0.47799995E+02  0.64146E+05
 0.47849998E+02  0.12752E+06
 0.47899998E+02  0.13380E+06
 0.47949997E+02  0.10145E+06
 0.47999996E+02  0.19734E+05
 0.48049995E+02 -0.33616E+05
 0.48099998E+02 -0.46518E+05
 0.48149998E+02 -0.27262E+05
 0.48199997E+02 -0.15245E+05
 0.48249996E+02 -0.65240E+05
 0.48299995E+02 -0.14657E+06
 0.48349998E+02 -0.23232E+06
 0.48399998E+02 -0.29337E+06
 0.48449997E+02 -0.33930E+06
 0.48499996E+02 -0.36320E+06
 0.48549995E+02 -0.38355E+06
 0.48599998E+02 -0.39741E+06
 0.48649998E+02 -0.38580E+06
 0.48699997E+02 -0.33021E+06
 0.48749996E+02 -0.26551E+06
 0.48799995E+02 -0.19876E+06
 0.48849998E+02 -0.10594E+06
 0.48899998E+02 -0.20357E+05
 0.48949997E+02  0.40658E+05
 0.48999996E+02  0.72450E+05
 0.49049995E+02  0.65611E+05
 0.49099998E+02  0.14936E+05
 0.49149998E+02 -0.14109E+05
 0.49199997E+02  0.23549E+05
 0.49249996E+02  0.11016E+06
 0.49299995E+02  0.21575E+06
 0.49349998E+02  0.30003E+06
 0.49399998E+02  0.33606E+06
 0.49449997E+02  0.33935E+06
 0.49499996E+02  0.35448E+06
 0.49549995E+02  0.40313E+06
 0.49599998E+02  0.46591E+06
 0.49649998E+02  0.51730E+06
 0.49699997E+02  0.53740E+06
 0.49749996E+02  0.50981E+06
 0.49799995E+02  0.44507E+06
 0.49849998E+02  0.36520E+06
 0.49899998E+02  0.29075E+06
 0.49949997E+02  0.21475E+06
 0.49999996E+02  0.13383E+06
 0.50049995E+02  0.29733E+05
 0.50099998E+02 -0.77933E+05
 0.50149998E+02 -0.14333E+06
 0.50199997E+02 -0.18457E+06
 0.50249996E+02 -0.20312E+06
 0.50299995E+02 -0.19373E+06
 0.50349998E+02 -0.14487E+06
 0.50399998E+02 -0.99372E+05
 0.50449997E+02 -0.98669E+05
 0.50499996E+02 -0.10448E+06
 0.50549995E+02 -0.91346E+05
 0.50599998E+02 -0.58288E+05
 0.50649998E+02 -0.28138E+05
 0.50699997E+02  0.76948E+04
 0.50749996E+02  0.38820E+05
 0.50799995E+02  0.21552E+05
 0.50849998E+02 -0.19739E+05
 0.50899998E+02 -0.33623E+05
 0.50949997E+02 -0.10855E+05
 0.50999996E+02  0.11631E+05
 0.51049995E+02  0.95686E+04
 0.51099998E+02  0.23032E+04
 0.51149998E+02  0.53172E+04
 0.51199997E+02  0.42982E+04
 0.51249996E+02 -0.78089E+04
 0.51299995E+02 -0.27041E+05
 0.51349998E+02 -0.31104E+05
 0.51399998E+02 -0.15720E+04
 0.51449997E+02  0.52119E+05
 0.51499996E+02  0.86251E+05
 0.51549995E+02  0.63359E+05
 0.51599998E+02  0.31126E+05
 0.51649998E+02  0.36681E+05
 0.51699997E+02  0.63684E+05
 0.51749996E+02  0.96691E+05
 0.51799995E+02  0.12295E+06
 0.51849998E+02  0.12420E+06
 0.51899998E+02  0.89068E+05
 0.51949997E+02  0.62173E+05
 0.51999996E+02  0.54545E+05
 0.52049995E+02  0.39300E+05
 0.52099998E+02  0.13045E+05
 0.52149998E+02 -0.19438E+05
 0.52199997E+02 -0.32945E+05
 0.52249996E+02 -0.32126E+05
 0.52299995E+02 -0.23714E+05
 0.52349998E+02 -0.73351E+04
 0.52399998E+02  0.29364E+05
 0.52449997E+02  0.84953E+05
 0.52499996E+02  0.12732E+06
 0.52549995E+02  0.12438E+06
 0.52599998E+02  0.70958E+05
 0.52649998E+02  0.40420E+04
 0.52699997E+02 -0.27945E+05
 0.52749996E+02 -0.18754E+05
 0.52799995E+02 -0.12713E+05
 0.52849998E+02 -0.83278E+04
 0.52899998E+02  0.28670E+04
 0.52949997E+02 -0.20438E+05
 0.52999996E+02 -0.83824E+05
 0.53049995E+02 -0.16626E+06
 0.53099998E+02 -0.23748E+06
 0.53149998E+02 -0.27762E+06
 0.53199997E+02 -0.29946E+06
 0.53249996E+02 -0.32901E+06
 0.53299995E+02 -0.34632E+06
 0.53349998E+02 -0.33640E+06
 0.53399998E+02 -0.29288E+06
 0.53449997E+02 -0.22480E+06
 0.53499996E+02 -0.15329E+06
 0.53549995E+02 -0.70054E+05
 0.53599998E+02 -0.13799E+05
 0.53649998E+02 -0.82807E+04
 0.53699997E+02 -0.28809E+05
 0.53749996E+02 -0.37228E+05
 0.53799995E+02 -0.25653E+05
 0.53849998E+02  0.59688E+04
 0.53899998E+02  0.57902E+05
 0.53949997E+02  0.11479E+06
 0.53999996E+02  0.18509E+06
 0.54049995E+02  0.28355E+06
 0.54099998E+02  0.40123E+06
 0.54149998E+02  0.50963E+06
 0.54199997E+02  0.57093E+06
 0.54249996E+02  0.59323E+06
 0.54299995E+02  0.59349E+06
 0.54349998E+02  0.56132E+06
 0.54399998E+02  0.49911E+06
 0.54449997E+02  0.39525E+06
 0.54499996E+02  0.26721E+06
 0.54549995E+02  0.14667E+06
 0.54599998E+02  0.47726E+05
 0.54649998E+02 -0.10734E+05
 0.54699997E+02 -0.33522E+05
 0.54749996E+02 -0.24106E+05
 0.54799995E+02  0.32488E+04
 0.54849998E+02  0.19006E+05
 0.54899998E+02  0.53339E+05
 0.54949997E+02  0.93099E+05
 0.54999996E+02  0.12298E+06
 0.55049995E+02  0.13914E+06
 0.55099998E+02  0.13360E+06
 0.55149998E+02  0.12629E+06
 0.55199997E+02  0.12127E+06
 0.55249996E+02  0.14205E+06
 0.55299995E+02  0.16929E+06
 0.55349998E+02  0.16469E+06
 0.55399998E+02  0.12170E+06
 0.55449997E+02  0.54046E+05
 0.55499996E+02 -0.49785E+04
 0.55549995E+02 -0.27592E+05
 0.55599998E+02 -0.26837E+05
 0.55649998E+02 -0.16891E+05
 0.55699997E+02  0.14471E+04
 0.55749996E+02  0.19439E+05
 0.55799995E+02  0.27430E+05
 0.55849995E+02  0.18568E+05
 0.55899998E+02  0.26344E+05
 0.55949997E+02  0.44778E+05
 0.55999996E+02  0.33604E+05
 0.56049995E+02 -0.21574E+05
 0.56099995E+02 -0.11990E+06
 0.56149998E+02 -0.21106E+06
 0.56199997E+02 -0.25604E+06
 0.56249996E+02 -0.25596E+06
 0.56299995E+02 -0.21879E+06
 0.56349995E+02 -0.16969E+06
 0.56399998E+02 -0.13508E+06
 0.56449997E+02 -0.12191E+06
 0.56499996E+02 -0.12589E+06
 0.56549995E+02 -0.12958E+06
 0.56599995E+02 -0.11541E+06
 0.56649998E+02 -0.79561E+05
 0.56699997E+02 -0.41448E+05
 0.56749996E+02 -0.95939E+04
 0.56799995E+02  0.60840E+04
 0.56849995E+02 -0.38248E+04
 0.56899998E+02 -0.31695E+05
 0.56949997E+02 -0.56936E+05
 0.56999996E+02 -0.68027E+05
 0.57049995E+02 -0.88007E+05
 0.57099995E+02 -0.10609E+06
 0.57149998E+02 -0.12216E+06
 0.57199997E+02 -0.13094E+06
 0.57249996E+02 -0.11352E+06
 0.57299995E+02 -0.80490E+05
 0.57349995E+02 -0.38455E+05
 0.57399998E+02  0.27491E+04
 0.57449997E+02  0.44678E+05
 0.57499996E+02  0.77024E+05
 0.57549995E+02  0.80849E+05
 0.57599995E+02  0.75172E+05
 0.57649998E+02  0.67937E+05
 0.57699997E+02  0.59951E+05
 0.57749996E+02  0.45124E+05
 0.57799995E+02  0.10799E+05
 0.57849995E+02 -0.35179E+05
 0.57899998E+02 -0.93078E+05
 0.57949997E+02 -0.14340E+06
 0.57999996E+02 -0.17449E+06
 0.58049995E+02 -0.18498E+06
 0.58099995E+02 -0.18804E+06
 0.58149998E+02 -0.19574E+06
 0.58199997E+02 -0.19444E+06
 0.58249996E+02 -0.17895E+06
 0.58299995E+02 -0.16659E+06
 0.58349995E+02 -0.16740E+06
 0.58399998E+02 -0.17394E+06
 0.58449997E+02 -0.18251E+06
 0.58499996E+02 -0.18740E+06
 0.58549995E+02 -0.18854E+06
 0.58599995E+02 -0.16747E+06
 0.58649998E+02 -0.11488E+06
 0.58699997E+02 -0.41187E+05
 0.58749996E+02  0.46984E+05
 0.58799995E+02  0.14268E+06
 0.58849995E+02  0.22428E+06
 0.58899998E+02  0.27763E+06
 0.58949997E+02  0.30895E+06
 0.58999996E+02  0.32574E+06
 0.59049995E+02  0.34032E+06
 0.59099995E+02  0.34251E+06
 0.59149998E+02  0.32403E+06
 0.59199997E+02  0.27979E+06
 0.59249996E+02  0.21765E+06
 0.59299995E+02  0.16055E+06
 0.59349995E+02  0.12508E+06
 0.59399998E+02  0.10643E+06
 0.59449997E+02  0.72947E+05
 0.59499996E+02  0.12077E+05
 0.59549995E+02 -0.55420E+05
 0.59599995E+02 -0.89847E+05
 0.59649998E+02 -0.93646E+05
 0.59699997E+02 -0.82628E+05
 0.59749996E+02 -0.71987E+05
 0.59799995E+02 -0.83768E+05
 0.59849995E+02 -0.10459E+06
 0.59899998E+02 -0.10240E+06
 0.59949997E+02 -0.69813E+05
 0.59999996E+02 -0.26865E+05
 0.60049995E+02  0.23296E+05
 0.60099995E+02  0.75688E+05
 0.60149998E+02  0.11159E+06
 0.60199997E+02  0.12784E+06
 0.60249996E+02  0.14050E+06
 0.60299995E+02  0.15148E+06
 0.60349995E+02  0.15082E+06
 0.60399998E+02  0.12737E+06
 0.60449997E+02  0.71578E+05
 0.60499996E+02 -0.16782E+04
 0.60549995E+02 -0.77426E+05
 0.60599995E+02 -0.15142E+06
 0.60649998E+02 -0.20441E+06
 0.60699997E+02 -0.22361E+06
 0.60749996E+02 -0.20953E+06
 0.60799995E+02 -0.17458E+06
 0.60849995E+02 -0.14295E+06
 0.60899998E+02 -0.12099E+06
 0.60949997E+02 -0.11302E+06
 0.60999996E+02 -0.10724E+06
 0.61049995E+02 -0.91424E+05
 0.61099995E+02 -0.75641E+05
 0.61149998E+02 -0.68560E+05
 0.61199997E+02 -0.57915E+05
 0.61249996E+02 -0.43298E+05
 0.61299995E+02 -0.39856E+05
 0.61349995E+02 -0.40060E+05
 0.61399998E+02 -0.41215E+05
 0.61449997E+02 -0.51483E+05
 0.61499996E+02 -0.64326E+05
 0.61549995E+02 -0.64483E+05
 0.61599995E+02 -0.54283E+05
 0.61649998E+02 -0.45064E+05
 0.61699997E+02 -0.40910E+05
 0.61749996E+02 -0.32296E+05
 0.61799995E+02 -0.25455E+05
 0.61849995E+02 -0.59736E+04
 0.61899998E+02  0.42696E+05
 0.61949997E+02  0.10903E+06
 0.61999996E+02  0.18698E+06
 0.62049995E+02  0.26065E+06
 0.62099998E+02  0.32594E+06
 0.62149994E+02  0.36681E+06
 0.62199997E+02  0.37336E+06
 0.62249992E+02  0.35145E+06
 0.62299995E+02  0.31862E+06
 0.62349998E+02  0.28305E+06
 0.62399994E+02  0.23470E+06
 0.62449997E+02  0.17654E+06
 0.62499992E+02  0.11136E+06
 0.62549995E+02  0.60484E+05
 0.62599998E+02  0.27789E+05
 0.62649994E+02  0.87647E+04
 0.62699997E+02  0.11768E+04
 0.62749992E+02 -0.95103E+04
 0.62799995E+02 -0.35719E+05
 0.62849998E+02 -0.76800E+05
 0.62899994E+02 -0.11384E+06
 0.62949997E+02 -0.13718E+06
 0.62999992E+02 -0.14508E+06
 0.63049995E+02 -0.13729E+06
 0.63099998E+02 -0.10961E+06
 0.63149994E+02 -0.69831E+05
 0.63199997E+02 -0.29569E+05
 0.63249992E+02  0.28425E+04
 0.63299995E+02  0.14264E+05
 0.63349998E+02  0.56591E+04
 0.63399994E+02 -0.14128E+05
 0.63449997E+02 -0.42025E+05
 0.63499992E+02 -0.74917E+05
 0.63549995E+02 -0.98197E+05
 0.63599998E+02 -0.10414E+06
 0.63649994E+02 -0.10815E+06
 0.63699997E+02 -0.12757E+06
 0.63749992E+02 -0.15672E+06
 0.63799995E+02 -0.19811E+06
 0.63849998E+02 -0.24639E+06
 0.63899994E+02 -0.27953E+06
 0.63949997E+02 -0.29029E+06
 0.63999992E+02 -0.28913E+06
 0.64049995E+02 -0.28113E+06
 0.64099998E+02 -0.26089E+06
 0.64149994E+02 -0.23637E+06
 0.64199997E+02 -0.19642E+06
 0.64249992E+02 -0.14320E+06
 0.64299995E+02 -0.10335E+06
 0.64349998E+02 -0.91720E+05
 0.64399994E+02 -0.98997E+05
 0.64449997E+02 -0.10103E+06
 0.64499992E+02 -0.10073E+06
 0.64549995E+02 -0.98315E+05
 0.64599998E+02 -0.86930E+05
 0.64649994E+02 -0.73968E+05
 0.64699997E+02 -0.54988E+05
 0.64749992E+02 -0.24676E+05
 0.64799995E+02  0.77143E+04
 0.64849998E+02  0.32639E+05
 0.64899994E+02  0.43111E+05
 0.64949997E+02  0.39700E+05
 0.64999992E+02  0.26943E+05
 0.65049995E+02  0.11173E+05
 0.65099998E+02  0.65193E+04
 0.65149994E+02  0.16059E+05
 0.65199997E+02  0.35466E+05
 0.65249992E+02  0.60514E+05
 0.65299995E+02  0.86978E+05
 0.65349998E+02  0.10279E+06
 0.65399994E+02  0.10442E+06
 0.65449997E+02  0.10357E+06
 0.65499992E+02  0.10553E+06
 0.65549995E+02  0.10302E+06
 0.65599998E+02  0.82959E+05
 0.65649994E+02  0.55850E+05
 0.65699997E+02  0.39581E+05
 0.65749992E+02  0.42014E+05
 0.65799995E+02  0.62694E+05
 0.65849998E+02  0.94661E+05
 0.65899994E+02  0.13532E+06
 0.65949997E+02  0.17967E+06
 0.65999992E+02  0.21311E+06
 0.66049995E+02  0.23050E+06
 0.66099998E+02  0.23239E+06
 0.66149994E+02  0.22838E+06
 0.66199997E+02  0.22020E+06
 0.66249992E+02  0.19991E+06
 0.66299995E+02  0.16549E+06
 0.66349998E+02  0.11915E+06
 0.66399994E+02  0.72036E+05
 0.66449997E+02  0.20957E+05
 0.66499992E+02 -0.32769E+05
 0.66549995E+02 -0.82539E+05
 0.66599998E+02 -0.11995E+06
 0.66649994E+02 -0.14332E+06
 0.66699997E+02 -0.14585E+06
 0.66749992E+02 -0.12481E+06
 0.66799995E+02 -0.92365E+05
 0.66849998E+02 -0.55510E+05
 0.66899994E+02 -0.24354E+05
 0.66949997E+02  0.10217E+04
 0.66999992E+02  0.28182E+05
 0.67049995E+02  0.61051E+05
 0.67099998E+02  0.95414E+05
 0.67149994E+02  0.12723E+06
 0.67199997E+02  0.15268E+06
 0.67249992E+02  0.16900E+06
 0.67299995E+02  0.17117E+06
 0.67349998E+02  0.15363E+06
 0.67399994E+02  0.12520E+06
 0.67449997E+02  0.95483E+05
 0.67499992E+02  0.71709E+05
 0.67549995E+02  0.53471E+05
 0.67599998E+02  0.45676E+05
 0.67649994E+02  0.52471E+05
 0.67699997E+02  0.60584E+05
 0.67749992E+02  0.64449E+05
 0.67799995E+02  0.63127E+05
 0.67849998E+02  0.55265E+05
 0.67899994E+02  0.40754E+05
 0.67949997E+02  0.28073E+05
 0.67999992E+02  0.19110E+05
 0.68049995E+02  0.19035E+04
 0.68099998E+02 -0.31439E+05
 0.68149994E+02 -0.72382E+05
 0.68199997E+02 -0.97919E+05
 0.68249992E+02 -0.10131E+06
 0.68299995E+02 -0.88727E+05
 0.68349998E+02 -0.62669E+05
 0.68399994E+02 -0.29161E+05
 0.68449997E+02  0.19477E+04
 0.68499992E+02  0.24144E+05
 0.68549995E+02  0.36256E+05
 0.68599998E+02  0.42525E+05
 0.68649994E+02  0.52494E+05
 0.68699997E+02  0.62971E+05
 0.68749992E+02  0.72388E+05
 0.68799995E+02  0.91107E+05
 0.68849998E+02  0.12125E+06
 0.68899994E+02  0.14982E+06
 0.68949997E+02  0.16429E+06
 0.68999992E+02  0.16154E+06
 0.69049995E+02  0.14500E+06
 0.69099998E+02  0.11960E+06
 0.69149994E+02  0.92483E+05
 0.69199997E+02  0.79810E+05
 0.69249992E+02  0.87387E+05
 0.69299995E+02  0.10697E+06
 0.69349998E+02  0.12415E+06
 0.69399994E+02  0.13395E+06
 0.69449997E+02  0.13152E+06
 0.69499992E+02  0.11650E+06
 0.69549995E+02  0.97030E+05
 0.69599998E+02  0.72435E+05
 0.69649994E+02  0.38566E+05
 0.69699997E+02 -0.70646E+04
 0.69749992E+02 -0.63535E+05
 0.69799995E+02 -0.11983E+06
 0.69849998E+02 -0.16004E+06
 0.69899994E+02 -0.17864E+06
 0.69949997E+02 -0.17677E+06
 0.69999992E+02 -0.16176E+06
 0.70049995E+02 -0.14806E+06
 0.70099998E+02 -0.14792E+06
 0.70149994E+02 -0.15651E+06
 0.70199997E+02 -0.16722E+06
 0.70249992E+02 -0.17792E+06
 0.70299995E+02 -0.18293E+06
 0.70349998E+02 -0.17304E+06
 0.70399994E+02 -0.14734E+06
 0.70449997E+02 -0.11695E+06
 0.70499992E+02 -0.86687E+05
 0.70549995E+02 -0.65671E+05
 0.70599998E+02 -0.60194E+05
 0.70649994E+02 -0.61472E+05
 0.70699997E+02 -0.59521E+05
 0.70749992E+02 -0.54895E+05
 0.70799995E+02 -0.48453E+05
 0.70849998E+02 -0.32420E+05
 0.70899994E+02 -0.80273E+04
 0.70949997E+02  0.14607E+05
 0.70999992E+02  0.22801E+05
 0.71049995E+02  0.11239E+05
 0.71099998E+02 -0.97207E+04
 0.71149994E+02 -0.31683E+05
 0.71199997E+02 -0.52947E+05
 0.71249992E+02 -0.69871E+05
 0.71299995E+02 -0.78364E+05
 0.71349998E+02 -0.79121E+05
 0.71399994E+02 -0.78393E+05
 0.71449997E+02 -0.75595E+05
 0.71499992E+02 -0.67364E+05
 0.71549995E+02 -0.58247E+05
 0.71599998E+02 -0.45507E+05
 0.71649994E+02 -0.24352E+05
 0.71699997E+02  0.74475E+04
 0.71749992E+02  0.45235E+05
 0.71799995E+02  0.77722E+05
 0.71849998E+02  0.99123E+05
 0.71899994E+02  0.10559E+06
 0.71949997E+02  0.99764E+05
 0.71999992E+02  0.84777E+05
 0.72049995E+02  0.61062E+05
 0.72099998E+02  0.30623E+05
 0.72149994E+02 -0.66574E+03
 0.72199997E+02 -0.24440E+05
 0.72249992E+02 -0.35034E+05
 0.72299995E+02 -0.33900E+05
 0.72349998E+02 -0.28786E+05
 0.72399994E+02 -0.23627E+05
 0.72449997E+02 -0.16094E+05
 0.72499992E+02 -0.87829E+04
 0.72549995E+02 -0.97406E+04
 0.72599998E+02 -0.21610E+05
 0.72649994E+02 -0.43132E+05
 0.72699997E+02 -0.65337E+05
 0.72749992E+02 -0.77678E+05
 0.72799995E+02 -0.77725E+05
 0.72849998E+02 -0.74906E+05
 0.72899994E+02 -0.80076E+05
 0.72949997E+02 -0.94658E+05
 0.72999992E+02 -0.11529E+06
 0.73049995E+02 -0.13598E+06
 0.73099998E+02 -0.15108E+06
 0.73149994E+02 -0.15641E+06
 0.73199997E+02 -0.15591E+06
 0.73249992E+02 -0.15575E+06
 0.73299995E+02 -0.15778E+06
 0.73349998E+02 -0.15855E+06
 0.73399994E+02 -0.15131E+06
 0.73449997E+02 -0.12792E+06
 0.73499992E+02 -0.89431E+05
 0.73549995E+02 -0.42653E+05
 0.73599998E+02  0.29794E+04
 0.73649994E+02  0.36284E+05
 0.73699997E+02  0.52701E+05
 0.73749992E+02  0.56947E+05
 0.73799995E+02  0.58641E+05
 0.73849998E+02  0.57596E+05
 0.73899994E+02  0.57369E+05
 0.73949997E+02  0.61947E+05
 0.73999992E+02  0.74810E+05
 0.74049995E+02  0.94159E+05
 0.74099998E+02  0.11352E+06
 0.74149994E+02  0.12810E+06
 0.74199997E+02  0.13167E+06
 0.74249992E+02  0.12761E+06
 0.74299995E+02  0.12563E+06
 0.74349998E+02  0.12569E+06
 0.74399994E+02  0.12335E+06
 0.74449997E+02  0.11982E+06
 0.74499992E+02  0.11361E+06
 0.74549995E+02  0.10048E+06
 0.74599998E+02  0.76257E+05
 0.74649994E+02  0.44242E+05
 0.74699997E+02  0.71277E+04
 0.74749992E+02 -0.32121E+05
 0.74799995E+02 -0.65957E+05
 0.74849998E+02 -0.86743E+05
 0.74899994E+02 -0.92090E+05
 0.74949997E+02 -0.85602E+05
 0.74999992E+02 -0.71034E+05
 0.75049995E+02 -0.54945E+05
 0.75099998E+02 -0.39325E+05
 0.75149994E+02 -0.25620E+05
 0.75199997E+02 -0.20727E+05
 0.75249992E+02 -0.23357E+05
 0.75299995E+02 -0.23976E+05
 0.75349998E+02 -0.16423E+05
 0.75399994E+02 -0.43070E+03
 0.75449997E+02  0.24547E+05
 0.75499992E+02  0.54650E+05
 0.75549995E+02  0.83826E+05
 0.75599998E+02  0.11049E+06
 0.75649994E+02  0.13070E+06
 0.75699997E+02  0.14212E+06
 0.75749992E+02  0.14307E+06
 0.75799995E+02  0.13322E+06
 0.75849998E+02  0.11758E+06
 0.75899994E+02  0.10227E+06
 0.75949997E+02  0.93234E+05
 0.75999992E+02  0.91606E+05
 0.76049995E+02  0.90671E+05
 0.76099998E+02  0.84247E+05
 0.76149994E+02  0.68159E+05
 0.76199997E+02  0.47129E+05
 0.76249992E+02  0.33161E+05
 0.76299995E+02  0.26519E+05
 0.76349998E+02  0.20586E+05
 0.76399994E+02  0.11702E+05
 0.76449997E+02  0.13911E+04
 0.76499992E+02 -0.11312E+05
 0.76549995E+02 -0.23324E+05
 0.76599998E+02 -0.28508E+05
 0.76649994E+02 -0.29961E+05
 0.76699997E+02 -0.27897E+05
 0.76749992E+02 -0.25363E+05
 0.76799995E+02 -0.25147E+05
 0.76849998E+02 -0.28030E+05
 0.76899994E+02 -0.37838E+05
 0.76949997E+02 -0.52625E+05
 0.76999992E+02 -0.68469E+05
 0.77049995E+02 -0.81590E+05
 0.77099998E+02 -0.88315E+05
 0.77149994E+02 -0.82555E+05
 0.77199997E+02 -0.66107E+05
 0.77249992E+02 -0.49002E+05
 0.77299995E+02 -0.35408E+05
 0.77349998E+02 -0.22987E+05
 0.77399994E+02 -0.49820E+04
 0.77449997E+02  0.19273E+05
 0.77499992E+02  0.48666E+05
 0.77549995E+02  0.82320E+05
 0.77599998E+02  0.11038E+06
 0.77649994E+02  0.12047E+06
 0.77699997E+02  0.11433E+06
 0.77749992E+02  0.10214E+06
 0.77799995E+02  0.89091E+05
 0.77849998E+02  0.78568E+05
 0.77899994E+02  0.73294E+05
 0.77949997E+02  0.69304E+05
 0.77999992E+02  0.62572E+05
 0.78049995E+02  0.57571E+05
 0.78099998E+02  0.53192E+05
 0.78149994E+02  0.45041E+05
 0.78199997E+02  0.34455E+05
 0.78249992E+02  0.29546E+05
 0.78299995E+02  0.34769E+05
 0.78349998E+02  0.42929E+05
 0.78399994E+02  0.48846E+05
 0.78449997E+02  0.49402E+05
 0.78499992E+02  0.46685E+05
 0.78549995E+02  0.47637E+05
 0.78599998E+02  0.53949E+05
 0.78649994E+02  0.61291E+05
 0.78699997E+02  0.66059E+05
 0.78749992E+02  0.67912E+05
 0.78799995E+02  0.64631E+05
 0.78849998E+02  0.54873E+05
 0.78899994E+02  0.39778E+05
 0.78949997E+02  0.24108E+05
 0.78999992E+02  0.78418E+04
 0.79049995E+02 -0.11023E+05
 0.79099998E+02 -0.33087E+05
 0.79149994E+02 -0.56476E+05
 0.79199997E+02 -0.74052E+05
 0.79249992E+02 -0.83229E+05
 0.79299995E+02 -0.86345E+05
 0.79349998E+02 -0.84238E+05
 0.79399994E+02 -0.77423E+05
 0.79449997E+02 -0.70708E+05
 0.79499992E+02 -0.69161E+05
 0.79549995E+02 -0.71005E+05
 0.79599998E+02 -0.70833E+05
 0.79649994E+02 -0.67303E+05
 0.79699997E+02 -0.61685E+05
 0.79749992E+02 -0.57136E+05
 0.79799995E+02 -0.54169E+05
 0.79849998E+02 -0.51208E+05
 0.79899994E+02 -0.46325E+05
 0.79949997E+02 -0.37937E+05
 0.79999992E+02 -0.25684E+05
 0.80049995E+02 -0.80925E+04
 0.80099998E+02  0.12418E+05
 0.80149994E+02  0.28219E+05
 0.80199997E+02  0.34149E+05
 0.80249992E+02  0.30730E+05
 0.80299995E+02  0.18040E+05
 0.80349998E+02 -0.24614E+03
 0.80399994E+02 -0.12506E+05
 0.80449997E+02 -0.13220E+05
 0.80499992E+02 -0.58060E+04
 0.80549995E+02  0.59866E+04
 0.80599998E+02  0.23909E+05
 0.80649994E+02  0.49296E+05
 0.80699997E+02  0.77283E+05
 0.80749992E+02  0.10357E+06
 0.80799995E+02  0.12490E+06
 0.80849998E+02  0.13787E+06
 0.80899994E+02  0.13901E+06
 0.80949997E+02  0.12751E+06
 0.80999992E+02  0.10513E+06
 0.81049995E+02  0.77447E+05
 0.81099998E+02  0.48320E+05
 0.81149994E+02  0.20068E+05
 0.81199997E+02 -0.14534E+04
 0.81249992E+02 -0.12315E+05
 0.81299995E+02 -0.12768E+05
 0.81349998E+02 -0.67601E+04
 0.81399994E+02  0.95485E+03
 0.81449997E+02  0.64389E+04
 0.81499992E+02  0.70108E+04
 0.81549995E+02  0.34474E+04
 0.81599998E+02 -0.36831E+04
 0.81649994E+02 -0.14966E+05
 0.81699997E+02 -0.23115E+05
 0.81749992E+02 -0.23127E+05
 0.81799995E+02 -0.18277E+05
 0.81849998E+02 -0.17321E+05
 0.81899994E+02 -0.24729E+05
 0.81949997E+02 -0.35509E+05
 0.81999992E+02 -0.45807E+05
 0.82049995E+02 -0.53302E+05
 0.82099998E+02 -0.59451E+05
 0.82149994E+02 -0.65159E+05
 0.82199997E+02 -0.75457E+05
 0.82249992E+02 -0.96276E+05
 0.82299995E+02 -0.12328E+06
 0.82349998E+02 -0.14604E+06
 0.82399994E+02 -0.16149E+06
 0.82449997E+02 -0.17354E+06
 0.82499992E+02 -0.18254E+06
 0.82549995E+02 -0.18451E+06
 0.82599998E+02 -0.17622E+06
 0.82649994E+02 -0.16276E+06
 0.82699997E+02 -0.14659E+06
 0.82749992E+02 -0.12867E+06
 0.82799995E+02 -0.11032E+06
 0.82849998E+02 -0.89849E+05
 0.82899994E+02 -0.62987E+05
 0.82949997E+02 -0.28707E+05
 0.82999992E+02  0.97859E+04
 0.83049995E+02  0.50570E+05
 0.83099998E+02  0.90361E+05
 0.83149994E+02  0.12367E+06
 0.83199997E+02  0.14706E+06
 0.83249992E+02  0.16377E+06
 0.83299995E+02  0.17646E+06
 0.83349998E+02  0.18696E+06
 0.83399994E+02  0.19633E+06
 0.83449997E+02  0.20556E+06
 0.83499992E+02  0.21152E+06
 0.83549995E+02  0.20918E+06
 0.83599998E+02  0.19923E+06
 0.83649994E+02  0.18570E+06
 0.83699997E+02  0.17194E+06
 0.83749992E+02  0.15763E+06
 0.83799995E+02  0.14190E+06
 0.83849998E+02  0.12376E+06
 0.83899994E+02  0.10100E+06
 0.83949997E+02  0.70755E+05
 0.83999992E+02  0.33321E+05
 0.84049995E+02 -0.70864E+04
 0.84099998E+02 -0.44854E+05
 0.84149994E+02 -0.78423E+05
 0.84199997E+02 -0.10735E+06
 0.84249992E+02 -0.12696E+06
 0.84299995E+02 -0.13405E+06
 0.84349998E+02 -0.12803E+06
 0.84399994E+02 -0.11041E+06
 0.84449997E+02 -0.84528E+05
 0.84499992E+02 -0.56004E+05
 0.84549995E+02 -0.32280E+05
 0.84599998E+02 -0.21187E+05
 0.84649994E+02 -0.22787E+05
 0.84699997E+02 -0.34283E+05
 0.84749992E+02 -0.55738E+05
 0.84799995E+02 -0.85216E+05
 0.84849998E+02 -0.11965E+06
 0.84899994E+02 -0.15306E+06
 0.84949997E+02 -0.17861E+06
 0.84999992E+02 -0.19178E+06
 0.85049995E+02 -0.19590E+06
 0.85099998E+02 -0.19476E+06
 0.85149994E+02 -0.19294E+06
 0.85199997E+02 -0.19348E+06
 0.85249992E+02 -0.19282E+06
 0.85299995E+02 -0.18869E+06
 0.85349998E+02 -0.18103E+06
 0.85399994E+02 -0.17404E+06
 0.85449997E+02 -0.17286E+06
 0.85499992E+02 -0.17657E+06
 0.85549995E+02 -0.17920E+06
 0.85599998E+02 -0.17706E+06
 0.85649994E+02 -0.17006E+06
 0.85699997E+02 -0.15841E+06
 0.85749992E+02 -0.14373E+06
 0.85799995E+02 -0.13000E+06
 0.85849998E+02 -0.11866E+06
 0.85899994E+02 -0.10493E+06
 0.85949997E+02 -0.83930E+05
 0.85999992E+02 -0.53426E+05
 0.86049995E+02 -0.16308E+05
 0.86099998E+02  0.18734E+05
 0.86149994E+02  0.42724E+05
 0.86199997E+02  0.51376E+05
 0.86249992E+02  0.45220E+05
 0.86299995E+02  0.30906E+05
 0.86349998E+02  0.20662E+05
 0.86399994E+02  0.20675E+05
 0.86449997E+02  0.32251E+05
 0.86499992E+02  0.49074E+05
 0.86549995E+02  0.62614E+05
 0.86599998E+02  0.70419E+05
 0.86649994E+02  0.75052E+05
 0.86699997E+02  0.80771E+05
 0.86749992E+02  0.88721E+05
 0.86799995E+02  0.10079E+06
 0.86849998E+02  0.11448E+06
 0.86899994E+02  0.12602E+06
 0.86949997E+02  0.13571E+06
 0.86999992E+02  0.14267E+06
 0.87049995E+02  0.15016E+06
 0.87099998E+02  0.16175E+06
 0.87149994E+02  0.17735E+06
 0.87199997E+02  0.19416E+06
 0.87249992E+02  0.20692E+06
 0.87299995E+02  0.21605E+06
 0.87349998E+02  0.22304E+06
 0.87399994E+02  0.22798E+06
 0.87449997E+02  0.23175E+06
 0.87499992E+02  0.23380E+06
 0.87549995E+02  0.23312E+06
 0.87599991E+02  0.22723E+06
 0.87649994E+02  0.21326E+06
 0.87699997E+02  0.19197E+06
 0.87749992E+02  0.16544E+06
 0.87799995E+02  0.13330E+06
 0.87849991E+02  0.96298E+05
 0.87899994E+02  0.58547E+05
 0.87949997E+02  0.24876E+05
 0.87999992E+02 -0.16986E+04
 0.88049995E+02 -0.19921E+05
 0.88099991E+02 -0.31375E+05
 0.88149994E+02 -0.40879E+05
 0.88199997E+02 -0.51316E+05
 0.88249992E+02 -0.62119E+05
 0.88299995E+02 -0.69231E+05
 0.88349991E+02 -0.69587E+05
 0.88399994E+02 -0.63153E+05
 0.88449997E+02 -0.53970E+05
 0.88499992E+02 -0.44822E+05
 0.88549995E+02 -0.34355E+05
 0.88599991E+02 -0.21629E+05
 0.88649994E+02 -0.70271E+04
 0.88699997E+02  0.71502E+04
 0.88749992E+02  0.21308E+05
 0.88799995E+02  0.36620E+05
 0.88849991E+02  0.53298E+05
 0.88899994E+02  0.70339E+05
 0.88949997E+02  0.84950E+05
 0.88999992E+02  0.94611E+05
 0.89049995E+02  0.97826E+05
 0.89099991E+02  0.91336E+05
 0.89149994E+02  0.74828E+05
 0.89199997E+02  0.57370E+05
 0.89249992E+02  0.46074E+05
 0.89299995E+02  0.42315E+05
 0.89349991E+02  0.44824E+05
 0.89399994E+02  0.50583E+05
 0.89449997E+02  0.53841E+05
 0.89499992E+02  0.49606E+05
 0.89549995E+02  0.40267E+05
 0.89599991E+02  0.31363E+05
 0.89649994E+02  0.25107E+05
 0.89699997E+02  0.20769E+05
 0.89749992E+02  0.19732E+05
 0.89799995E+02  0.21440E+05
 0.89849991E+02  0.23053E+05
 0.89899994E+02  0.21008E+05
 0.89949997E+02  0.14432E+05
 0.89999992E+02  0.42769E+04
 0.90049995E+02 -0.86936E+04
 0.90099991E+02 -0.19913E+05
 0.90149994E+02 -0.27419E+05
 0.90199997E+02 -0.30960E+05
 0.90249992E+02 -0.30496E+05
 0.90299995E+02 -0.28717E+05
 0.90349991E+02 -0.26330E+05
 0.90399994E+02 -0.21079E+05
 0.90449997E+02 -0.11357E+05
 0.90499992E+02 -0.20727E+03
 0.90549995E+02  0.97029E+04
 0.90599991E+02  0.18611E+05
 0.90649994E+02  0.27606E+05
 0.90699997E+02  0.37497E+05
 0.90749992E+02  0.48280E+05
 0.90799995E+02  0.57007E+05
 0.90849991E+02  0.60582E+05
 0.90899994E+02  0.58807E+05
 0.90949997E+02  0.52687E+05
 0.90999992E+02  0.44717E+05
 0.91049995E+02  0.33647E+05
 0.91099991E+02  0.19395E+05
 0.91149994E+02  0.49073E+04
 0.91199997E+02 -0.67527E+04
 0.91249992E+02 -0.12599E+05
 0.91299995E+02 -0.11851E+05
 0.91349991E+02 -0.70207E+04
 0.91399994E+02 -0.94486E+03
 0.91449997E+02  0.22940E+04
 0.91499992E+02  0.12051E+04
 0.91549995E+02  0.17153E+04
 0.91599991E+02  0.87842E+04
 0.91649994E+02  0.21720E+05
 0.91699997E+02  0.37166E+05
 0.91749992E+02  0.52209E+05
 0.91799995E+02  0.62773E+05
 0.91849991E+02  0.66736E+05
 0.91899994E+02  0.65239E+05
 0.91949997E+02  0.58617E+05
 0.91999992E+02  0.47460E+05
 0.92049995E+02  0.34717E+05
 0.92099991E+02  0.24914E+05
 0.92149994E+02  0.19710E+05
 0.92199997E+02  0.17826E+05
 0.92249992E+02  0.16705E+05
 0.92299995E+02  0.13615E+05
 0.92349991E+02  0.65151E+04
 0.92399994E+02 -0.78392E+04
 0.92449997E+02 -0.31536E+05
 0.92499992E+02 -0.62662E+05
 0.92549995E+02 -0.95347E+05
 0.92599991E+02 -0.12517E+06
 0.92649994E+02 -0.15018E+06
 0.92699997E+02 -0.16827E+06
 0.92749992E+02 -0.17941E+06
 0.92799995E+02 -0.18747E+06
 0.92849991E+02 -0.19557E+06
 0.92899994E+02 -0.20300E+06
 0.92949997E+02 -0.20888E+06
 0.92999992E+02 -0.21294E+06
 0.93049995E+02 -0.21593E+06
 0.93099991E+02 -0.21992E+06
 0.93149994E+02 -0.22615E+06
 0.93199997E+02 -0.23201E+06
 0.93249992E+02 -0.23224E+06
 0.93299995E+02 -0.22334E+06
 0.93349991E+02 -0.20611E+06
 0.93399994E+02 -0.18456E+06
 0.93449997E+02 -0.16100E+06
 0.93499992E+02 -0.13657E+06
 0.93549995E+02 -0.11305E+06
 0.93599991E+02 -0.92637E+05
 0.93649994E+02 -0.77050E+05
 0.93699997E+02 -0.65028E+05
 0.93749992E+02 -0.54715E+05
 0.93799995E+02 -0.44771E+05
 0.93849991E+02 -0.35785E+05
 0.93899994E+02 -0.28466E+05
 0.93949997E+02 -0.21829E+05
 0.93999992E+02 -0.15475E+05
 0.94049995E+02 -0.74850E+04
 0.94099991E+02  0.41608E+04
 0.94149994E+02  0.19329E+05
 0.94199997E+02  0.33218E+05
 0.94249992E+02  0.42267E+05
 0.94299995E+02  0.48360E+05
 0.94349991E+02  0.54719E+05
 0.94399994E+02  0.61921E+05
 0.94449997E+02  0.68245E+05
 0.94499992E+02  0.72428E+05
 0.94549995E+02  0.71383E+05
 0.94599991E+02  0.65077E+05
 0.94649994E+02  0.57782E+05
 0.94699997E+02  0.53528E+05
 0.94749992E+02  0.55681E+05
 0.94799995E+02  0.65500E+05
 0.94849991E+02  0.79690E+05
 0.94899994E+02  0.92800E+05
 0.94949997E+02  0.10073E+06
 0.94999992E+02  0.10217E+06
 0.95049995E+02  0.10004E+06
 0.95099991E+02  0.99304E+05
 0.95149994E+02  0.10094E+06
 0.95199997E+02  0.10144E+06
 0.95249992E+02  0.98398E+05
 0.95299995E+02  0.92973E+05
 0.95349991E+02  0.88051E+05
 0.95399994E+02  0.84541E+05
 0.95449997E+02  0.80571E+05
 0.95499992E+02  0.73590E+05
 0.95549995E+02  0.63733E+05
 0.95599991E+02  0.51833E+05
 0.95649994E+02  0.38147E+05
 0.95699997E+02  0.21409E+05
 0.95749992E+02 -0.11902E+03
 0.95799995E+02 -0.26522E+05
 0.95849991E+02 -0.54415E+05
 0.95899994E+02 -0.76800E+05
 0.95949997E+02 -0.91969E+05
 0.95999992E+02 -0.10056E+06
 0.96049995E+02 -0.10373E+06
 0.96099991E+02 -0.10228E+06
 0.96149994E+02 -0.96134E+05
 0.96199997E+02 -0.85911E+05
 0.96249992E+02 -0.74003E+05
 0.96299995E+02 -0.64763E+05
 0.96349991E+02 -0.57274E+05
 0.96399994E+02 -0.48641E+05
 0.96449997E+02 -0.37446E+05
 0.96499992E+02 -0.23033E+05
 0.96549995E+02 -0.66221E+04
 0.96599991E+02  0.95657E+04
 0.96649994E+02  0.24017E+05
 0.96699997E+02  0.36189E+05
 0.96749992E+02  0.46473E+05
 0.96799995E+02  0.56842E+05
 0.96849991E+02  0.68139E+05
 0.96899994E+02  0.79118E+05
 0.96949997E+02  0.89276E+05
 0.96999992E+02  0.98920E+05
 0.97049995E+02  0.10783E+06
 0.97099991E+02  0.11551E+06
 0.97149994E+02  0.12464E+06
 0.97199997E+02  0.13849E+06
 0.97249992E+02  0.15509E+06
 0.97299995E+02  0.17023E+06
 0.97349991E+02  0.18146E+06
 0.97399994E+02  0.18972E+06
 0.97449997E+02  0.19630E+06
 0.97499992E+02  0.19951E+06
 0.97549995E+02  0.19645E+06
 0.97599991E+02  0.18594E+06
 0.97649994E+02  0.17182E+06
 0.97699997E+02  0.15916E+06
 0.97749992E+02  0.14793E+06
 0.97799995E+02  0.13589E+06
 0.97849991E+02  0.12152E+06
 0.97899994E+02  0.10372E+06
 0.97949997E+02  0.81710E+05
 0.97999992E+02  0.56153E+05
