-0.20000000E+01 -0.16510E+04
-0.19500000E+01 -0.64000E+03
-0.19000000E+01  0.35393E+03
-0.18500000E+01  0.17820E+04
-0.18000000E+01  0.37119E+04
-0.17500000E+01  0.60300E+04
-0.17000000E+01  0.86987E+04
-0.16500001E+01  0.11536E+05
-0.16000000E+01  0.14386E+05
-0.15500000E+01  0.17217E+05
-0.15000000E+01  0.20036E+05
-0.14500000E+01  0.22575E+05
-0.14000001E+01  0.24502E+05
-0.13500000E+01  0.25657E+05
-0.13000001E+01  0.26051E+05
-0.12500000E+01  0.25792E+05
-0.12000000E+01  0.25114E+05
-0.11500001E+01  0.24288E+05
-0.11000000E+01  0.23367E+05
-0.10500001E+01  0.22313E+05
-0.10000000E+01  0.20977E+05
-0.95000005E+00  0.19395E+05
-0.90000010E+00  0.17803E+05
-0.85000002E+00  0.16358E+05
-0.80000007E+00  0.15044E+05
-0.75000012E+00  0.13770E+05
-0.70000005E+00  0.12560E+05
-0.65000010E+00  0.11526E+05
-0.60000014E+00  0.10604E+05
-0.55000007E+00  0.97445E+04
-0.50000012E+00  0.90044E+04
-0.45000005E+00  0.85128E+04
-0.40000010E+00  0.82715E+04
-0.35000014E+00  0.80596E+04
-0.30000007E+00  0.75355E+04
-0.25000012E+00  0.63416E+04
-0.20000005E+00  0.45234E+04
-0.15000010E+00  0.23071E+04
-0.10000014E+00 -0.44901E+02
-0.50000072E-01 -0.24530E+04
-0.11920929E-06 -0.49562E+04
 0.49999952E-01 -0.74273E+04
 0.99999905E-01 -0.96798E+04
 0.14999986E+00 -0.11377E+05
 0.19999981E+00 -0.12303E+05
 0.24999976E+00 -0.12433E+05
 0.29999995E+00 -0.11849E+05
 0.34999990E+00 -0.10909E+05
 0.39999986E+00 -0.99695E+04
 0.44999981E+00 -0.92358E+04
 0.49999976E+00 -0.88168E+04
 0.54999995E+00 -0.86642E+04
 0.59999990E+00 -0.86231E+04
 0.64999986E+00 -0.85816E+04
 0.69999981E+00 -0.84879E+04
 0.74999976E+00 -0.82845E+04
 0.79999971E+00 -0.79353E+04
 0.84999990E+00 -0.74308E+04
 0.89999986E+00 -0.68563E+04
 0.94999981E+00 -0.62731E+04
 0.99999976E+00 -0.56440E+04
 0.10499997E+01 -0.48907E+04
 0.10999999E+01 -0.40121E+04
 0.11499999E+01 -0.30887E+04
 0.11999998E+01 -0.22594E+04
 0.12499998E+01 -0.17371E+04
 0.12999997E+01 -0.16247E+04
 0.13499999E+01 -0.18513E+04
 0.13999999E+01 -0.23538E+04
 0.14499998E+01 -0.30502E+04
 0.14999998E+01 -0.37679E+04
 0.15499997E+01 -0.44347E+04
 0.15999999E+01 -0.49718E+04
 0.16499999E+01 -0.52634E+04
 0.16999998E+01 -0.52822E+04
 0.17499998E+01 -0.50998E+04
 0.17999997E+01 -0.48362E+04
 0.18499997E+01 -0.46100E+04
 0.18999999E+01 -0.44316E+04
 0.19499998E+01 -0.42398E+04
 0.19999998E+01 -0.37920E+04
 0.20499997E+01 -0.28533E+04
 0.20999999E+01 -0.14494E+04
 0.21499996E+01  0.32746E+03
 0.21999998E+01  0.22552E+04
 0.22499995E+01  0.40443E+04
 0.22999997E+01  0.55113E+04
 0.23499999E+01  0.65583E+04
 0.23999996E+01  0.72212E+04
 0.24499998E+01  0.76077E+04
 0.24999995E+01  0.78005E+04
 0.25499997E+01  0.79257E+04
 0.25999999E+01  0.81391E+04
 0.26499996E+01  0.85871E+04
 0.26999998E+01  0.93503E+04
 0.27499995E+01  0.10287E+05
 0.27999997E+01  0.11069E+05
 0.28499999E+01  0.11385E+05
 0.28999996E+01  0.11096E+05
 0.29499998E+01  0.10284E+05
 0.29999995E+01  0.90462E+04
 0.30499997E+01  0.76047E+04
 0.30999999E+01  0.60027E+04
 0.31499996E+01  0.40310E+04
 0.31999998E+01  0.17938E+04
 0.32499995E+01 -0.47795E+03
 0.32999997E+01 -0.24875E+04
 0.33499999E+01 -0.40581E+04
 0.33999996E+01 -0.52593E+04
 0.34499998E+01 -0.62071E+04
 0.34999995E+01 -0.69271E+04
 0.35499997E+01 -0.73294E+04
 0.35999994E+01 -0.75586E+04
 0.36499996E+01 -0.77347E+04
 0.36999998E+01 -0.77550E+04
 0.37499995E+01 -0.75773E+04
 0.37999997E+01 -0.73520E+04
 0.38499994E+01 -0.73467E+04
 0.38999996E+01 -0.77138E+04
 0.39499998E+01 -0.84177E+04
 0.39999995E+01 -0.92674E+04
 0.40499997E+01 -0.10152E+05
 0.40999994E+01 -0.11070E+05
 0.41499996E+01 -0.11992E+05
 0.41999998E+01 -0.12797E+05
 0.42499995E+01 -0.13328E+05
 0.42999997E+01 -0.13589E+05
 0.43499994E+01 -0.13660E+05
 0.43999996E+01 -0.13612E+05
 0.44499998E+01 -0.13371E+05
 0.44999995E+01 -0.12816E+05
 0.45499997E+01 -0.11867E+05
 0.45999994E+01 -0.10461E+05
 0.46499996E+01 -0.86091E+04
 0.46999998E+01 -0.63927E+04
 0.47499995E+01 -0.39972E+04
 0.47999997E+01 -0.16085E+04
 0.48499994E+01  0.69775E+03
 0.48999996E+01  0.29807E+04
 0.49499998E+01  0.52604E+04
 0.49999995E+01  0.74189E+04
 0.50499997E+01  0.93326E+04
 0.50999994E+01  0.10913E+05
 0.51499996E+01  0.12181E+05
 0.51999998E+01  0.13066E+05
 0.52499995E+01  0.13422E+05
 0.52999997E+01  0.13177E+05
 0.53499994E+01  0.12151E+05
 0.53999996E+01  0.10254E+05
 0.54499993E+01  0.75093E+04
 0.54999995E+01  0.40867E+04
 0.55499997E+01  0.28871E+03
 0.55999994E+01 -0.35103E+04
 0.56499996E+01 -0.69297E+04
 0.56999993E+01 -0.97220E+04
 0.57499995E+01 -0.11715E+05
 0.57999997E+01 -0.12817E+05
 0.58499994E+01 -0.12881E+05
 0.58999996E+01 -0.11827E+05
 0.59499993E+01 -0.98454E+04
 0.59999995E+01 -0.73641E+04
 0.60499992E+01 -0.47646E+04
 0.60999994E+01 -0.22872E+04
 0.61499996E+01 -0.98665E+02
 0.61999998E+01  0.17550E+04
 0.62499990E+01  0.33074E+04
 0.62999992E+01  0.45812E+04
 0.63499994E+01  0.55178E+04
 0.63999996E+01  0.60751E+04
 0.64499998E+01  0.63343E+04
 0.64999990E+01  0.63459E+04
 0.65499992E+01  0.61981E+04
 0.65999994E+01  0.61358E+04
 0.66499996E+01  0.62140E+04
 0.66999998E+01  0.63976E+04
 0.67499990E+01  0.65455E+04
 0.67999992E+01  0.63961E+04
 0.68499994E+01  0.57629E+04
 0.68999996E+01  0.45913E+04
 0.69499998E+01  0.29953E+04
 0.69999990E+01  0.11278E+04
 0.70499992E+01 -0.74249E+03
 0.70999994E+01 -0.23696E+04
 0.71499996E+01 -0.37355E+04
 0.71999998E+01 -0.49951E+04
 0.72499990E+01 -0.61704E+04
 0.72999992E+01 -0.71119E+04
 0.73499994E+01 -0.77366E+04
 0.73999996E+01 -0.80280E+04
 0.74499998E+01 -0.79322E+04
 0.74999990E+01 -0.72758E+04
 0.75499992E+01 -0.59664E+04
 0.75999994E+01 -0.40579E+04
 0.76499996E+01 -0.17945E+04
 0.76999998E+01  0.43090E+03
 0.77499990E+01  0.22773E+04
 0.77999992E+01  0.38071E+04
 0.78499994E+01  0.52403E+04
 0.78999996E+01  0.65948E+04
 0.79499998E+01  0.78598E+04
 0.79999990E+01  0.90845E+04
 0.80499992E+01  0.10336E+05
 0.80999994E+01  0.11491E+05
 0.81499996E+01  0.12429E+05
 0.81999998E+01  0.13076E+05
 0.82499990E+01  0.13386E+05
 0.82999992E+01  0.13362E+05
 0.83499994E+01  0.13069E+05
 0.83999996E+01  0.12636E+05
 0.84499998E+01  0.12117E+05
 0.84999990E+01  0.11520E+05
 0.85499992E+01  0.10782E+05
 0.85999994E+01  0.99045E+04
 0.86499996E+01  0.89113E+04
 0.86999998E+01  0.77274E+04
 0.87499990E+01  0.63070E+04
 0.87999992E+01  0.46275E+04
 0.88499994E+01  0.28572E+04
 0.88999996E+01  0.11773E+04
 0.89499998E+01 -0.38429E+03
 0.89999990E+01 -0.18346E+04
 0.90499992E+01 -0.32057E+04
 0.90999994E+01 -0.46315E+04
 0.91499996E+01 -0.60822E+04
 0.91999989E+01 -0.74324E+04
 0.92499990E+01 -0.86821E+04
 0.92999992E+01 -0.97018E+04
 0.93499994E+01 -0.10447E+05
 0.93999996E+01 -0.10960E+05
 0.94499989E+01 -0.11290E+05
 0.94999990E+01 -0.11512E+05
 0.95499992E+01 -0.11697E+05
 0.95999994E+01 -0.11796E+05
 0.96499996E+01 -0.11630E+05
 0.96999989E+01 -0.11134E+05
 0.97499990E+01 -0.10350E+05
 0.97999992E+01 -0.95613E+04
 0.98499994E+01 -0.89991E+04
 0.98999996E+01 -0.86670E+04
 0.99499989E+01 -0.84555E+04
 0.99999990E+01 -0.81591E+04
 0.10049999E+02 -0.75931E+04
 0.10099999E+02 -0.66253E+04
 0.10150000E+02 -0.52930E+04
 0.10199999E+02 -0.37189E+04
 0.10249999E+02 -0.20523E+04
 0.10299999E+02 -0.35093E+03
 0.10349999E+02  0.14327E+04
 0.10400000E+02  0.32682E+04
 0.10449999E+02  0.50541E+04
 0.10499999E+02  0.66529E+04
 0.10549999E+02  0.80456E+04
 0.10599999E+02  0.92768E+04
 0.10650000E+02  0.10362E+05
 0.10699999E+02  0.11326E+05
 0.10749999E+02  0.12160E+05
 0.10799999E+02  0.12837E+05
 0.10849999E+02  0.13339E+05
 0.10900000E+02  0.13631E+05
 0.10949999E+02  0.13624E+05
 0.10999999E+02  0.13274E+05
 0.11049999E+02  0.12690E+05
 0.11099999E+02  0.11946E+05
 0.11150000E+02  0.10995E+05
 0.11199999E+02  0.97500E+04
 0.11249999E+02  0.82369E+04
 0.11299999E+02  0.66648E+04
 0.11349999E+02  0.50766E+04
 0.11400000E+02  0.34562E+04
 0.11449999E+02  0.18487E+04
 0.11499999E+02  0.31048E+03
 0.11549999E+02 -0.10592E+04
 0.11599999E+02 -0.21746E+04
 0.11650000E+02 -0.30436E+04
 0.11699999E+02 -0.38372E+04
 0.11749999E+02 -0.46952E+04
 0.11799999E+02 -0.56246E+04
 0.11849999E+02 -0.65094E+04
 0.11900000E+02 -0.71010E+04
 0.11949999E+02 -0.71139E+04
 0.11999999E+02 -0.64335E+04
 0.12049999E+02 -0.52000E+04
 0.12099999E+02 -0.37272E+04
 0.12150000E+02 -0.24050E+04
 0.12199999E+02 -0.15546E+04
 0.12249999E+02 -0.11788E+04
 0.12299999E+02 -0.11615E+04
 0.12349999E+02 -0.14421E+04
 0.12400000E+02 -0.18638E+04
 0.12449999E+02 -0.23131E+04
 0.12499999E+02 -0.28370E+04
 0.12549999E+02 -0.35216E+04
 0.12599999E+02 -0.42964E+04
 0.12649999E+02 -0.49071E+04
 0.12699999E+02 -0.52562E+04
 0.12749999E+02 -0.54150E+04
 0.12799999E+02 -0.53232E+04
 0.12849999E+02 -0.49481E+04
 0.12899999E+02 -0.42816E+04
 0.12949999E+02 -0.32995E+04
 0.12999999E+02 -0.20892E+04
 0.13049999E+02 -0.78707E+03
 0.13099999E+02  0.52885E+03
 0.13149999E+02  0.17783E+04
 0.13199999E+02  0.28809E+04
 0.13249999E+02  0.37909E+04
 0.13299999E+02  0.44106E+04
 0.13349999E+02  0.45891E+04
 0.13399999E+02  0.42607E+04
 0.13449999E+02  0.35351E+04
 0.13499999E+02  0.25775E+04
 0.13549999E+02  0.15504E+04
 0.13599999E+02  0.51875E+03
 0.13649999E+02 -0.60253E+03
 0.13699999E+02 -0.18046E+04
 0.13749999E+02 -0.29675E+04
 0.13799999E+02 -0.39361E+04
 0.13849999E+02 -0.46420E+04
 0.13899999E+02 -0.52054E+04
 0.13949999E+02 -0.57834E+04
 0.13999999E+02 -0.63860E+04
 0.14049999E+02 -0.68974E+04
 0.14099998E+02 -0.72248E+04
 0.14150000E+02 -0.73571E+04
 0.14199999E+02 -0.73533E+04
 0.14249998E+02 -0.71679E+04
 0.14299999E+02 -0.66716E+04
 0.14349998E+02 -0.58405E+04
 0.14400000E+02 -0.48472E+04
 0.14449999E+02 -0.38033E+04
 0.14499998E+02 -0.26346E+04
 0.14549999E+02 -0.13399E+04
 0.14599998E+02 -0.57737E+02
 0.14650000E+02  0.10459E+04
 0.14699999E+02  0.18671E+04
 0.14749998E+02  0.24022E+04
 0.14799999E+02  0.26868E+04
 0.14849998E+02  0.28358E+04
 0.14900000E+02  0.30075E+04
 0.14949999E+02  0.32445E+04
 0.14999998E+02  0.34284E+04
 0.15049999E+02  0.34350E+04
 0.15099998E+02  0.32691E+04
 0.15150000E+02  0.30317E+04
 0.15199999E+02  0.28359E+04
 0.15249998E+02  0.26681E+04
 0.15299999E+02  0.25542E+04
 0.15349998E+02  0.25468E+04
 0.15400000E+02  0.27298E+04
 0.15449999E+02  0.30639E+04
 0.15499998E+02  0.33246E+04
 0.15549999E+02  0.33596E+04
 0.15599998E+02  0.31917E+04
 0.15650000E+02  0.30204E+04
 0.15699999E+02  0.30748E+04
 0.15749998E+02  0.34713E+04
 0.15799999E+02  0.40748E+04
 0.15849998E+02  0.47416E+04
 0.15900000E+02  0.53045E+04
 0.15949999E+02  0.56929E+04
 0.15999998E+02  0.59550E+04
 0.16049999E+02  0.60687E+04
 0.16099998E+02  0.58454E+04
 0.16150000E+02  0.52045E+04
 0.16199999E+02  0.43065E+04
 0.16249998E+02  0.32600E+04
 0.16299999E+02  0.21826E+04
 0.16349998E+02  0.11065E+04
 0.16400000E+02 -0.33188E+01
 0.16449999E+02 -0.10572E+04
 0.16499998E+02 -0.19134E+04
 0.16549999E+02 -0.24691E+04
 0.16599998E+02 -0.25892E+04
 0.16650000E+02 -0.22609E+04
 0.16699999E+02 -0.15690E+04
 0.16749998E+02 -0.63876E+03
 0.16799999E+02  0.37329E+03
 0.16849998E+02  0.12368E+04
 0.16900000E+02  0.18033E+04
 0.16949999E+02  0.20625E+04
 0.16999998E+02  0.20945E+04
 0.17049999E+02  0.21018E+04
 0.17099998E+02  0.22109E+04
 0.17150000E+02  0.23289E+04
 0.17199999E+02  0.22690E+04
 0.17249998E+02  0.19155E+04
 0.17299999E+02  0.12434E+04
 0.17349998E+02  0.24690E+03
 0.17400000E+02 -0.10939E+04
 0.17449999E+02 -0.27494E+04
 0.17499998E+02 -0.45498E+04
 0.17549999E+02 -0.62845E+04
 0.17599998E+02 -0.78396E+04
 0.17650000E+02 -0.91726E+04
 0.17699999E+02 -0.10434E+05
 0.17749998E+02 -0.11710E+05
 0.17799999E+02 -0.12871E+05
 0.17849998E+02 -0.13825E+05
 0.17900000E+02 -0.14625E+05
 0.17949999E+02 -0.15330E+05
 0.17999998E+02 -0.15957E+05
 0.18049999E+02 -0.16460E+05
 0.18099998E+02 -0.16823E+05
 0.18150000E+02 -0.17012E+05
 0.18199999E+02 -0.16890E+05
 0.18249998E+02 -0.16364E+05
 0.18299999E+02 -0.15520E+05
 0.18349998E+02 -0.14573E+05
 0.18400000E+02 -0.13594E+05
 0.18449999E+02 -0.12431E+05
 0.18499998E+02 -0.11083E+05
 0.18549999E+02 -0.95894E+04
 0.18599998E+02 -0.79539E+04
 0.18650000E+02 -0.63222E+04
 0.18699999E+02 -0.47844E+04
 0.18749998E+02 -0.33397E+04
 0.18799999E+02 -0.19366E+04
 0.18849998E+02 -0.59448E+03
 0.18900000E+02  0.66807E+03
 0.18949999E+02  0.17899E+04
 0.18999998E+02  0.27030E+04
 0.19049999E+02  0.33595E+04
 0.19099998E+02  0.36758E+04
 0.19150000E+02  0.37059E+04
 0.19199999E+02  0.36070E+04
 0.19249998E+02  0.35253E+04
 0.19299999E+02  0.35348E+04
 0.19349998E+02  0.36484E+04
 0.19400000E+02  0.39197E+04
 0.19449999E+02  0.43381E+04
 0.19499998E+02  0.49716E+04
 0.19549999E+02  0.58773E+04
 0.19599998E+02  0.69457E+04
 0.19650000E+02  0.79667E+04
 0.19699999E+02  0.86987E+04
 0.19749998E+02  0.90203E+04
 0.19799999E+02  0.89217E+04
 0.19849998E+02  0.84810E+04
 0.19900000E+02  0.76636E+04
 0.19949999E+02  0.64163E+04
 0.19999998E+02  0.48343E+04
 0.20049999E+02  0.30979E+04
 0.20099998E+02  0.13856E+04
 0.20150000E+02 -0.27166E+03
 0.20199999E+02 -0.18656E+04
 0.20249998E+02 -0.33749E+04
 0.20299999E+02 -0.47774E+04
 0.20349998E+02 -0.59138E+04
 0.20399998E+02 -0.66676E+04
 0.20449999E+02 -0.70124E+04
 0.20499998E+02 -0.70736E+04
 0.20549999E+02 -0.69326E+04
 0.20599998E+02 -0.66537E+04
 0.20649998E+02 -0.63433E+04
 0.20699999E+02 -0.60737E+04
 0.20749998E+02 -0.58383E+04
 0.20799999E+02 -0.54786E+04
 0.20849998E+02 -0.49046E+04
 0.20899998E+02 -0.40476E+04
 0.20949999E+02 -0.28926E+04
 0.20999998E+02 -0.15434E+04
 0.21049999E+02 -0.12473E+03
 0.21099998E+02  0.13265E+04
 0.21149998E+02  0.27923E+04
 0.21199999E+02  0.42180E+04
 0.21249998E+02  0.54181E+04
 0.21299999E+02  0.62288E+04
 0.21349998E+02  0.66032E+04
 0.21399998E+02  0.65954E+04
 0.21449999E+02  0.63504E+04
 0.21499998E+02  0.60724E+04
 0.21549999E+02  0.59141E+04
 0.21599998E+02  0.58778E+04
 0.21649998E+02  0.59695E+04
 0.21699999E+02  0.61504E+04
 0.21749998E+02  0.63421E+04
 0.21799999E+02  0.64680E+04
 0.21849998E+02  0.65139E+04
 0.21899998E+02  0.64763E+04
 0.21949999E+02  0.63844E+04
 0.21999998E+02  0.62469E+04
 0.22049999E+02  0.60268E+04
 0.22099998E+02  0.58058E+04
 0.22149998E+02  0.56428E+04
 0.22199999E+02  0.56004E+04
 0.22249998E+02  0.57571E+04
 0.22299999E+02  0.60416E+04
 0.22349998E+02  0.63321E+04
 0.22399998E+02  0.64905E+04
 0.22449999E+02  0.64323E+04
 0.22499998E+02  0.61939E+04
 0.22549999E+02  0.57481E+04
 0.22599998E+02  0.50850E+04
 0.22649998E+02  0.42258E+04
 0.22699999E+02  0.32030E+04
 0.22749998E+02  0.20986E+04
 0.22799999E+02  0.10173E+04
 0.22849998E+02  0.15329E+02
 0.22899998E+02 -0.81729E+03
 0.22949999E+02 -0.13197E+04
 0.22999998E+02 -0.13390E+04
 0.23049999E+02 -0.82343E+03
 0.23099998E+02  0.20666E+03
 0.23149998E+02  0.15563E+04
 0.23199999E+02  0.30034E+04
 0.23249998E+02  0.42794E+04
 0.23299999E+02  0.52586E+04
 0.23349998E+02  0.59605E+04
 0.23399998E+02  0.65469E+04
 0.23449999E+02  0.70095E+04
 0.23499998E+02  0.72756E+04
 0.23549999E+02  0.72997E+04
 0.23599998E+02  0.71370E+04
 0.23649998E+02  0.70411E+04
 0.23699999E+02  0.72086E+04
 0.23749998E+02  0.83924E+04
 0.23799999E+02  0.10407E+05
 0.23849998E+02  0.12304E+05
 0.23899998E+02  0.12788E+05
 0.23949999E+02  0.11061E+05
 0.23999998E+02  0.80391E+04
 0.24049999E+02  0.66621E+04
 0.24099998E+02  0.74579E+04
 0.24149998E+02  0.72481E+04
 0.24199999E+02  0.57559E+04
 0.24249998E+02  0.42446E+04
 0.24299999E+02  0.45784E+04
 0.24349998E+02  0.86867E+04
 0.24399998E+02  0.12691E+05
 0.24449999E+02  0.15271E+05
 0.24499998E+02  0.18589E+05
 0.24549999E+02  0.27699E+05
 0.24599998E+02  0.37119E+05
 0.24649998E+02  0.41343E+05
 0.24699999E+02  0.37204E+05
 0.24749998E+02  0.32360E+05
 0.24799999E+02  0.36386E+05
 0.24849998E+02  0.49548E+05
 0.24899998E+02  0.60171E+05
 0.24949999E+02  0.48411E+05
 0.24999998E+02  0.34621E+05
 0.25049999E+02  0.32165E+05
 0.25099998E+02  0.29896E+05
 0.25149998E+02  0.28779E+05
 0.25199999E+02  0.36768E+05
 0.25249998E+02  0.34542E+05
 0.25299999E+02  0.31181E+05
 0.25349998E+02  0.40143E+05
 0.25399998E+02  0.44487E+05
 0.25449999E+02  0.44418E+05
 0.25499998E+02  0.48707E+05
 0.25549999E+02  0.64682E+05
 0.25599998E+02  0.62940E+05
 0.25649998E+02  0.41836E+05
 0.25699999E+02  0.27801E+05
 0.25749998E+02  0.15414E+05
 0.25799999E+02  0.58128E+04
 0.25849998E+02  0.15730E+05
 0.25899998E+02  0.24966E+05
 0.25949999E+02  0.12445E+05
 0.25999998E+02 -0.10618E+05
 0.26049999E+02 -0.36550E+05
 0.26099998E+02 -0.40285E+05
 0.26149998E+02 -0.16471E+05
 0.26199999E+02  0.65497E+04
 0.26249998E+02 -0.11991E+05
 0.26299999E+02 -0.68172E+05
 0.26349998E+02 -0.13895E+06
 0.26399998E+02 -0.20402E+06
 0.26449999E+02 -0.20915E+06
 0.26499998E+02 -0.19456E+06
 0.26549999E+02 -0.23054E+06
 0.26599998E+02 -0.28665E+06
 0.26649998E+02 -0.30470E+06
 0.26699999E+02 -0.28464E+06
 0.26749998E+02 -0.24284E+06
 0.26799999E+02 -0.19619E+06
 0.26849998E+02 -0.16273E+06
 0.26899998E+02 -0.11468E+06
 0.26949999E+02 -0.52560E+04
 0.26999998E+02  0.13201E+06
 0.27049997E+02  0.20459E+06
 0.27099998E+02  0.19979E+06
 0.27149998E+02  0.23720E+06
 0.27199999E+02  0.34007E+06
 0.27249998E+02  0.38889E+06
 0.27299997E+02  0.36763E+06
 0.27349998E+02  0.28708E+06
 0.27399998E+02  0.17570E+06
 0.27449999E+02  0.58178E+05
 0.27499998E+02 -0.44761E+05
 0.27549997E+02 -0.94534E+05
 0.27599998E+02 -0.12144E+06
 0.27649998E+02 -0.17575E+06
 0.27699999E+02 -0.21797E+06
 0.27749998E+02 -0.16985E+06
 0.27799997E+02 -0.97951E+05
 0.27849998E+02  0.41296E+03
 0.27899998E+02  0.98784E+05
 0.27949999E+02  0.88386E+05
 0.27999998E+02  0.52755E+05
 0.28049997E+02  0.28291E+05
 0.28099998E+02 -0.24704E+05
 0.28149998E+02 -0.51930E+05
 0.28199999E+02  0.55296E+05
 0.28249998E+02  0.18790E+06
 0.28299997E+02  0.10256E+06
 0.28349998E+02 -0.45307E+05
 0.28399998E+02 -0.40955E+05
 0.28449999E+02 -0.31965E+05
 0.28499998E+02  0.44192E+04
 0.28549997E+02  0.67692E+05
 0.28599998E+02  0.51932E+05
 0.28649998E+02  0.35977E+03
 0.28699999E+02 -0.23935E+05
 0.28749998E+02 -0.10018E+05
 0.28799997E+02 -0.80760E+05
 0.28849998E+02 -0.91924E+05
 0.28899998E+02 -0.66232E+05
 0.28949999E+02 -0.12863E+06
 0.28999998E+02 -0.22862E+06
 0.29049997E+02 -0.33628E+06
 0.29099998E+02 -0.40937E+06
 0.29149998E+02 -0.37900E+06
 0.29199999E+02 -0.24725E+06
 0.29249998E+02 -0.14499E+06
 0.29299997E+02 -0.15968E+06
 0.29349998E+02 -0.26136E+06
 0.29399998E+02 -0.31879E+06
 0.29449999E+02 -0.32201E+06
 0.29499998E+02 -0.25576E+06
 0.29549997E+02 -0.10325E+06
 0.29599998E+02  0.65051E+05
 0.29649998E+02  0.14445E+06
 0.29699999E+02  0.17209E+06
 0.29749998E+02  0.21847E+06
 0.29799997E+02  0.18020E+06
 0.29849998E+02  0.10258E+06
 0.29899998E+02  0.41891E+05
 0.29949999E+02 -0.97180E+05
 0.29999998E+02 -0.23167E+06
 0.30049999E+02 -0.23151E+06
 0.30099998E+02 -0.72882E+05
 0.30149998E+02  0.14401E+06
 0.30199997E+02  0.35323E+06
 0.30249996E+02  0.44195E+06
 0.30299999E+02  0.34112E+06
 0.30349998E+02  0.23246E+06
 0.30399998E+02  0.16580E+06
 0.30449997E+02  0.31624E+05
 0.30499996E+02 -0.13245E+06
 0.30549999E+02 -0.23194E+06
 0.30599998E+02 -0.18816E+06
 0.30649998E+02 -0.22718E+05
 0.30699997E+02  0.11206E+06
 0.30749996E+02  0.83027E+05
 0.30799999E+02 -0.10165E+06
 0.30849998E+02 -0.27303E+06
 0.30899998E+02 -0.31296E+06
 0.30949997E+02 -0.27853E+06
 0.30999996E+02 -0.16426E+06
 0.31049999E+02  0.41439E+05
 0.31099998E+02  0.19402E+06
 0.31149998E+02  0.25384E+06
 0.31199997E+02  0.24509E+06
 0.31249996E+02  0.24379E+06
 0.31299999E+02  0.20935E+06
 0.31349998E+02  0.11562E+06
 0.31399998E+02 -0.69220E+05
 0.31449997E+02 -0.23066E+06
 0.31499996E+02 -0.29425E+06
 0.31549999E+02 -0.31156E+06
 0.31599998E+02 -0.24101E+06
 0.31649998E+02 -0.23354E+06
 0.31699997E+02 -0.33700E+06
 0.31749996E+02 -0.42050E+06
 0.31799999E+02 -0.45806E+06
 0.31849998E+02 -0.43818E+06
 0.31899998E+02 -0.29417E+06
 0.31949997E+02 -0.60695E+05
 0.31999996E+02  0.20565E+06
 0.32049999E+02  0.48122E+06
 0.32099998E+02  0.67406E+06
 0.32149998E+02  0.65973E+06
 0.32199997E+02  0.54208E+06
 0.32249996E+02  0.44078E+06
 0.32299999E+02  0.37554E+06
 0.32349998E+02  0.30565E+06
 0.32399998E+02  0.23496E+06
 0.32449997E+02  0.19367E+06
 0.32499996E+02  0.14823E+06
 0.32549999E+02  0.99423E+05
 0.32599998E+02  0.26344E+05
 0.32649998E+02 -0.12028E+06
 0.32699997E+02 -0.34073E+06
 0.32749996E+02 -0.46051E+06
 0.32799999E+02 -0.45283E+06
 0.32849998E+02 -0.44872E+06
 0.32899998E+02 -0.36012E+06
 0.32949997E+02 -0.19638E+06
 0.32999996E+02 -0.14127E+06
 0.33049999E+02 -0.11910E+06
 0.33099998E+02 -0.72725E+05
 0.33149998E+02 -0.84689E+05
 0.33199997E+02 -0.74637E+05
 0.33249996E+02 -0.24919E+05
 0.33299999E+02  0.19552E+05
 0.33349998E+02  0.13438E+06
 0.33399998E+02  0.29696E+06
 0.33449997E+02  0.33506E+06
 0.33499996E+02  0.32838E+06
 0.33549999E+02  0.37237E+06
 0.33599998E+02  0.42886E+06
 0.33649998E+02  0.52997E+06
 0.33699997E+02  0.57237E+06
 0.33749996E+02  0.49653E+06
 0.33799999E+02  0.43599E+06
 0.33849998E+02  0.48192E+06
 0.33899998E+02  0.49924E+06
 0.33949997E+02  0.44275E+06
 0.33999996E+02  0.35265E+06
 0.34049999E+02  0.15602E+06
 0.34099998E+02  0.90554E+04
 0.34149998E+02  0.31269E+05
 0.34199997E+02  0.63171E+05
 0.34249996E+02  0.42595E+05
 0.34299999E+02 -0.47838E+05
 0.34349998E+02 -0.21357E+06
 0.34399998E+02 -0.26953E+06
 0.34449997E+02 -0.14280E+06
 0.34499996E+02  0.20330E+04
 0.34549999E+02  0.10450E+06
 0.34599998E+02  0.16853E+06
 0.34649998E+02  0.13632E+06
 0.34699997E+02  0.94422E+05
 0.34749996E+02  0.93554E+05
 0.34799999E+02  0.60916E+05
 0.34849998E+02  0.15066E+05
 0.34899998E+02  0.33802E+05
 0.34949997E+02  0.13169E+06
 0.34999996E+02  0.20858E+06
 0.35049999E+02  0.22719E+06
 0.35099998E+02  0.20803E+06
 0.35149998E+02  0.14950E+06
 0.35199997E+02  0.13812E+06
 0.35249996E+02  0.18637E+06
 0.35299999E+02  0.20458E+06
 0.35349998E+02  0.13408E+06
 0.35399998E+02 -0.13916E+05
 0.35449997E+02 -0.11191E+06
 0.35499996E+02 -0.12674E+06
 0.35549999E+02 -0.13005E+06
 0.35599998E+02 -0.12815E+06
 0.35649998E+02 -0.15861E+06
 0.35699997E+02 -0.21421E+06
 0.35749996E+02 -0.24487E+06
 0.35799999E+02 -0.26184E+06
 0.35849998E+02 -0.24969E+06
 0.35899998E+02 -0.17487E+06
 0.35949997E+02 -0.59598E+05
 0.35999996E+02  0.78955E+05
 0.36049999E+02  0.24364E+06
 0.36099998E+02  0.39278E+06
 0.36149998E+02  0.44592E+06
 0.36199997E+02  0.41568E+06
 0.36249996E+02  0.41897E+06
 0.36299999E+02  0.41923E+06
 0.36349998E+02  0.35362E+06
 0.36399998E+02  0.29396E+06
 0.36449997E+02  0.22993E+06
 0.36499996E+02  0.13593E+06
 0.36549999E+02  0.55519E+05
 0.36599998E+02 -0.36827E+05
 0.36649998E+02 -0.13850E+06
 0.36699997E+02 -0.18601E+06
 0.36749996E+02 -0.17898E+06
 0.36799999E+02 -0.15672E+06
 0.36849998E+02 -0.15307E+06
 0.36899998E+02 -0.16559E+06
 0.36949997E+02 -0.19849E+06
 0.36999996E+02 -0.23003E+06
 0.37049999E+02 -0.19544E+06
 0.37099998E+02 -0.13804E+06
 0.37149998E+02 -0.77722E+05
 0.37199997E+02  0.32703E+04
 0.37249996E+02  0.29047E+05
 0.37299999E+02  0.17550E+05
 0.37349998E+02  0.36387E+05
 0.37399998E+02  0.70356E+05
 0.37449997E+02  0.11819E+06
 0.37499996E+02  0.15199E+06
 0.37549999E+02  0.14134E+06
 0.37599998E+02  0.83972E+05
 0.37649998E+02 -0.23269E+05
 0.37699997E+02 -0.13420E+06
 0.37749996E+02 -0.18679E+06
 0.37799999E+02 -0.17343E+06
 0.37849998E+02 -0.13993E+06
 0.37899998E+02 -0.89327E+05
 0.37949997E+02 -0.67197E+05
 0.37999996E+02 -0.15478E+06
 0.38049999E+02 -0.21752E+06
 0.38099998E+02 -0.19903E+06
 0.38149998E+02 -0.18033E+06
 0.38199997E+02 -0.16307E+06
 0.38249996E+02 -0.13102E+06
 0.38299999E+02 -0.11187E+06
 0.38349998E+02 -0.14082E+06
 0.38399998E+02 -0.15229E+06
 0.38449997E+02 -0.16549E+06
 0.38499996E+02 -0.18269E+06
 0.38549999E+02 -0.14400E+06
 0.38599998E+02 -0.78525E+05
 0.38649998E+02 -0.57485E+05
 0.38699997E+02 -0.56561E+05
 0.38749996E+02 -0.51769E+05
 0.38799999E+02 -0.77273E+05
 0.38849998E+02 -0.10618E+06
 0.38899998E+02 -0.11305E+06
 0.38949997E+02 -0.12046E+06
 0.38999996E+02 -0.11751E+06
 0.39049999E+02 -0.94222E+05
 0.39099998E+02 -0.88290E+05
 0.39149998E+02 -0.85165E+05
 0.39199997E+02 -0.83331E+05
 0.39249996E+02 -0.67342E+05
 0.39299999E+02 -0.60696E+05
 0.39349998E+02 -0.66207E+05
 0.39399998E+02 -0.42760E+05
 0.39449997E+02  0.22496E+05
 0.39499996E+02  0.10374E+06
 0.39549999E+02  0.15002E+06
 0.39599998E+02  0.15675E+06
 0.39649998E+02  0.12686E+06
 0.39699997E+02  0.45970E+05
 0.39749996E+02 -0.59019E+05
 0.39799999E+02 -0.14574E+06
 0.39849998E+02 -0.24628E+06
 0.39899998E+02 -0.30086E+06
 0.39949997E+02 -0.28934E+06
 0.39999996E+02 -0.27335E+06
 0.40049999E+02 -0.21213E+06
 0.40099998E+02 -0.12950E+06
 0.40149998E+02 -0.10547E+06
 0.40199997E+02 -0.12768E+06
 0.40249996E+02 -0.17496E+06
 0.40299999E+02 -0.26024E+06
 0.40349998E+02 -0.27557E+06
 0.40399998E+02 -0.20956E+06
 0.40449997E+02 -0.13508E+06
 0.40499996E+02 -0.25140E+05
 0.40549999E+02  0.77752E+05
 0.40599998E+02  0.11388E+06
 0.40649998E+02  0.95426E+05
 0.40699997E+02  0.33541E+05
 0.40749996E+02 -0.29431E+05
 0.40799999E+02 -0.47377E+05
 0.40849998E+02 -0.43601E+05
 0.40899998E+02 -0.35858E+05
 0.40949997E+02 -0.54294E+05
 0.40999996E+02 -0.77427E+05
 0.41049999E+02 -0.96977E+05
 0.41099998E+02 -0.92019E+05
 0.41149998E+02 -0.39856E+05
 0.41199997E+02 -0.20455E+05
 0.41249996E+02 -0.22617E+05
 0.41299999E+02 -0.26541E+04
 0.41349998E+02  0.22944E+05
 0.41399998E+02  0.20769E+05
 0.41449997E+02  0.84510E+04
 0.41499996E+02  0.33687E+05
 0.41549999E+02  0.77420E+05
 0.41599998E+02  0.11515E+06
 0.41649998E+02  0.13853E+06
 0.41699997E+02  0.13438E+06
 0.41749996E+02  0.10205E+06
 0.41799999E+02  0.54315E+05
 0.41849998E+02 -0.11074E+05
 0.41899998E+02 -0.73213E+05
 0.41949997E+02 -0.11645E+06
 0.41999996E+02 -0.14938E+06
 0.42049999E+02 -0.16067E+06
 0.42099998E+02 -0.13779E+06
 0.42149998E+02 -0.81151E+05
 0.42199997E+02 -0.33195E+04
 0.42249996E+02  0.55110E+05
 0.42299999E+02  0.92715E+05
 0.42349998E+02  0.12535E+06
 0.42399998E+02  0.15062E+06
 0.42449997E+02  0.15503E+06
 0.42499996E+02  0.13814E+06
 0.42549999E+02  0.12438E+06
 0.42599998E+02  0.11243E+06
 0.42649998E+02  0.75530E+05
 0.42699997E+02  0.54798E+04
 0.42749996E+02 -0.51398E+05
 0.42799995E+02 -0.71077E+05
 0.42849998E+02 -0.50420E+05
 0.42899998E+02 -0.33536E+05
 0.42949997E+02 -0.44356E+05
 0.42999996E+02 -0.35523E+05
 0.43049995E+02 -0.19884E+05
 0.43099998E+02 -0.52276E+05
 0.43149998E+02 -0.81461E+05
 0.43199997E+02 -0.75157E+05
 0.43249996E+02 -0.67732E+05
 0.43299995E+02 -0.42535E+05
 0.43349998E+02 -0.21448E+05
 0.43399998E+02 -0.31791E+05
 0.43449997E+02 -0.23204E+05
 0.43499996E+02  0.42694E+05
 0.43549995E+02  0.86432E+05
 0.43599998E+02  0.92528E+05
 0.43649998E+02  0.13006E+06
 0.43699997E+02  0.18559E+06
 0.43749996E+02  0.23066E+06
 0.43799995E+02  0.26053E+06
 0.43849998E+02  0.22079E+06
 0.43899998E+02  0.80032E+05
 0.43949997E+02 -0.86588E+05
 0.43999996E+02 -0.21303E+06
 0.44049995E+02 -0.25653E+06
 0.44099998E+02 -0.21463E+06
 0.44149998E+02 -0.13272E+06
 0.44199997E+02 -0.89229E+05
 0.44249996E+02 -0.12410E+06
 0.44299995E+02 -0.17458E+06
 0.44349998E+02 -0.20209E+06
 0.44399998E+02 -0.17316E+06
 0.44449997E+02 -0.61037E+05
 0.44499996E+02  0.86829E+05
 0.44549995E+02  0.19272E+06
 0.44599998E+02  0.21060E+06
 0.44649998E+02  0.17765E+06
 0.44699997E+02  0.11263E+06
 0.44749996E+02 -0.14782E+05
 0.44799995E+02 -0.19687E+06
 0.44849998E+02 -0.37654E+06
 0.44899998E+02 -0.50810E+06
 0.44949997E+02 -0.53635E+06
 0.44999996E+02 -0.42407E+06
 0.45049995E+02 -0.27557E+06
 0.45099998E+02 -0.17484E+06
 0.45149998E+02 -0.10498E+06
 0.45199997E+02 -0.10001E+06
 0.45249996E+02 -0.16154E+06
 0.45299995E+02 -0.18480E+06
 0.45349998E+02 -0.12674E+06
 0.45399998E+02  0.24764E+05
 0.45449997E+02  0.26369E+06
 0.45499996E+02  0.44193E+06
 0.45549995E+02  0.52626E+06
 0.45599998E+02  0.60368E+06
 0.45649998E+02  0.64430E+06
 0.45699997E+02  0.51100E+06
 0.45749996E+02  0.17858E+06
 0.45799995E+02 -0.15134E+06
 0.45849998E+02 -0.30748E+06
 0.45899998E+02 -0.32789E+06
 0.45949997E+02 -0.22686E+06
 0.45999996E+02 -0.35925E+05
 0.46049995E+02  0.13075E+06
 0.46099998E+02  0.26050E+06
 0.46149998E+02  0.28555E+06
 0.46199997E+02  0.18324E+06
 0.46249996E+02  0.29964E+05
 0.46299995E+02 -0.88800E+05
 0.46349998E+02 -0.15860E+06
 0.46399998E+02 -0.20991E+06
 0.46449997E+02 -0.25281E+06
 0.46499996E+02 -0.25005E+06
 0.46549995E+02 -0.20354E+06
 0.46599998E+02 -0.20114E+06
 0.46649998E+02 -0.25307E+06
 0.46699997E+02 -0.28447E+06
 0.46749996E+02 -0.26509E+06
 0.46799995E+02 -0.25281E+06
 0.46849998E+02 -0.20141E+06
 0.46899998E+02 -0.84552E+05
 0.46949997E+02 -0.14110E+05
 0.46999996E+02 -0.75847E+05
 0.47049995E+02 -0.16670E+06
 0.47099998E+02 -0.14047E+06
 0.47149998E+02  0.42358E+04
 0.47199997E+02  0.12954E+06
 0.47249996E+02  0.14908E+06
 0.47299995E+02  0.93503E+05
 0.47349998E+02  0.19719E+05
 0.47399998E+02  0.28176E+05
 0.47449997E+02  0.82500E+05
 0.47499996E+02  0.61410E+05
 0.47549995E+02 -0.15264E+04
 0.47599998E+02  0.36375E+05
 0.47649998E+02  0.17594E+06
 0.47699997E+02  0.30876E+06
 0.47749996E+02  0.37984E+06
 0.47799995E+02  0.40298E+06
 0.47849998E+02  0.41816E+06
 0.47899998E+02  0.41759E+06
 0.47949997E+02  0.32310E+06
 0.47999996E+02  0.13201E+06
 0.48049995E+02 -0.97053E+05
 0.48099998E+02 -0.23889E+06
 0.48149998E+02 -0.25510E+06
 0.48199997E+02 -0.26578E+06
 0.48249996E+02 -0.30895E+06
 0.48299995E+02 -0.33322E+06
 0.48349998E+02 -0.27201E+06
 0.48399998E+02 -0.13296E+06
 0.48449997E+02  0.99905E+04
 0.48499996E+02  0.98121E+05
 0.48549995E+02  0.16374E+06
 0.48599998E+02  0.17592E+06
 0.48649998E+02  0.99731E+05
 0.48699997E+02 -0.38066E+05
 0.48749996E+02 -0.19204E+06
 0.48799995E+02 -0.24240E+06
 0.48849998E+02 -0.14978E+06
 0.48899998E+02  0.14859E+04
 0.48949997E+02  0.15542E+06
 0.48999996E+02  0.29212E+06
 0.49049995E+02  0.29631E+06
 0.49099998E+02  0.12938E+06
 0.49149998E+02 -0.10009E+06
 0.49199997E+02 -0.28443E+06
 0.49249996E+02 -0.38332E+06
 0.49299995E+02 -0.39757E+06
 0.49349998E+02 -0.35171E+06
 0.49399998E+02 -0.26462E+06
 0.49449997E+02 -0.11740E+06
 0.49499996E+02  0.42112E+05
 0.49549995E+02  0.12427E+06
 0.49599998E+02  0.12376E+06
 0.49649998E+02  0.14813E+06
 0.49699997E+02  0.18105E+06
 0.49749996E+02  0.17761E+06
 0.49799995E+02  0.16953E+06
 0.49849998E+02  0.10697E+06
 0.49899998E+02  0.45156E+05
 0.49949997E+02  0.74501E+05
 0.49999996E+02  0.12129E+06
 0.50049995E+02  0.11965E+06
 0.50099998E+02  0.93684E+05
 0.50149998E+02  0.72548E+05
 0.50199997E+02  0.24647E+05
 0.50249996E+02 -0.25609E+05
 0.50299995E+02 -0.38854E+05
 0.50349998E+02 -0.68575E+05
 0.50399998E+02 -0.12114E+06
 0.50449997E+02 -0.12488E+06
 0.50499996E+02 -0.27551E+05
 0.50549995E+02  0.13096E+06
 0.50599998E+02  0.27714E+06
 0.50649998E+02  0.33466E+06
 0.50699997E+02  0.25090E+06
 0.50749996E+02  0.93382E+05
 0.50799995E+02 -0.31185E+04
 0.50849998E+02 -0.10216E+05
 0.50899998E+02  0.23934E+05
 0.50949997E+02  0.41222E+05
 0.50999996E+02  0.37724E+05
 0.51049995E+02  0.20497E+05
 0.51099998E+02  0.43166E+04
 0.51149998E+02 -0.40232E+05
 0.51199997E+02 -0.13946E+06
 0.51249996E+02 -0.21582E+06
 0.51299995E+02 -0.22012E+06
 0.51349998E+02 -0.13796E+06
 0.51399998E+02  0.14803E+05
 0.51449997E+02  0.14878E+06
 0.51499996E+02  0.12330E+06
 0.51549995E+02 -0.13124E+05
 0.51599998E+02 -0.12737E+06
 0.51649998E+02 -0.18071E+06
 0.51699997E+02 -0.17115E+06
 0.51749996E+02 -0.11079E+06
 0.51799995E+02 -0.31580E+05
 0.51849998E+02  0.54407E+04
 0.51899998E+02 -0.17678E+05
 0.51949997E+02 -0.79163E+05
 0.51999996E+02 -0.14124E+06
 0.52049995E+02 -0.18445E+06
 0.52099998E+02 -0.23035E+06
 0.52149998E+02 -0.24349E+06
 0.52199997E+02 -0.16492E+06
 0.52249996E+02 -0.23799E+05
 0.52299995E+02  0.13042E+06
 0.52349998E+02  0.26416E+06
 0.52399998E+02  0.34498E+06
 0.52449997E+02  0.36512E+06
 0.52499996E+02  0.33840E+06
 0.52549995E+02  0.27640E+06
 0.52599998E+02  0.19169E+06
 0.52649998E+02  0.11013E+06
 0.52699997E+02  0.76010E+05
 0.52749996E+02  0.87133E+05
 0.52799995E+02  0.80940E+05
 0.52849998E+02  0.60917E+05
 0.52899998E+02  0.41363E+05
 0.52949997E+02  0.59281E+04
 0.52999996E+02 -0.16710E+05
 0.53049995E+02  0.25641E+05
 0.53099998E+02  0.15193E+06
 0.53149998E+02  0.29559E+06
 0.53199997E+02  0.35962E+06
 0.53249996E+02  0.34849E+06
 0.53299995E+02  0.33205E+06
 0.53349998E+02  0.33126E+06
 0.53399998E+02  0.35420E+06
 0.53449997E+02  0.39374E+06
 0.53499996E+02  0.41921E+06
 0.53549995E+02  0.40050E+06
 0.53599998E+02  0.34842E+06
 0.53649998E+02  0.29074E+06
 0.53699997E+02  0.24095E+06
 0.53749996E+02  0.19360E+06
 0.53799995E+02  0.14433E+06
 0.53849998E+02  0.13028E+06
 0.53899998E+02  0.14844E+06
 0.53949997E+02  0.14174E+06
 0.53999996E+02  0.11699E+06
 0.54049995E+02  0.86984E+05
 0.54099998E+02  0.33404E+05
 0.54149998E+02 -0.40181E+04
 0.54199997E+02  0.11285E+05
 0.54249996E+02  0.69617E+05
 0.54299995E+02  0.13248E+06
 0.54349998E+02  0.15466E+06
 0.54399998E+02  0.13903E+06
 0.54449997E+02  0.11702E+06
 0.54499996E+02  0.99455E+05
 0.54549995E+02  0.96797E+05
 0.54599998E+02  0.86359E+05
 0.54649998E+02  0.54807E+05
 0.54699997E+02  0.13289E+05
 0.54749996E+02 -0.11976E+05
 0.54799995E+02 -0.74614E+04
 0.54849998E+02  0.22417E+05
 0.54899998E+02  0.71561E+05
 0.54949997E+02  0.10958E+06
 0.54999996E+02  0.13569E+06
 0.55049995E+02  0.17496E+06
 0.55099998E+02  0.23395E+06
 0.55149998E+02  0.29867E+06
 0.55199997E+02  0.35127E+06
 0.55249996E+02  0.37990E+06
 0.55299995E+02  0.37389E+06
 0.55349998E+02  0.34142E+06
 0.55399998E+02  0.30317E+06
 0.55449997E+02  0.27362E+06
 0.55499996E+02  0.23574E+06
 0.55549995E+02  0.19624E+06
 0.55599998E+02  0.16492E+06
 0.55649998E+02  0.10742E+06
 0.55699997E+02  0.23373E+05
 0.55749996E+02 -0.67067E+05
 0.55799995E+02 -0.13039E+06
 0.55849995E+02 -0.17326E+06
 0.55899998E+02 -0.20329E+06
 0.55949997E+02 -0.21451E+06
 0.55999996E+02 -0.19358E+06
 0.56049995E+02 -0.13094E+06
 0.56099995E+02 -0.67187E+05
 0.56149998E+02 -0.25776E+05
 0.56199997E+02 -0.57183E+04
 0.56249996E+02  0.10033E+05
 0.56299995E+02  0.40551E+04
 0.56349995E+02 -0.45780E+05
 0.56399998E+02 -0.96866E+05
 0.56449997E+02 -0.13498E+06
 0.56499996E+02 -0.16766E+06
 0.56549995E+02 -0.18255E+06
 0.56599995E+02 -0.17907E+06
 0.56649998E+02 -0.19225E+06
 0.56699997E+02 -0.22599E+06
 0.56749996E+02 -0.23700E+06
 0.56799995E+02 -0.23120E+06
 0.56849995E+02 -0.21158E+06
 0.56899998E+02 -0.18078E+06
 0.56949997E+02 -0.14446E+06
 0.56999996E+02 -0.97278E+05
 0.57049995E+02 -0.45320E+05
 0.57099995E+02  0.20841E+05
 0.57149998E+02  0.10423E+06
 0.57199997E+02  0.18550E+06
 0.57249996E+02  0.23915E+06
 0.57299995E+02  0.26033E+06
 0.57349995E+02  0.25250E+06
 0.57399998E+02  0.20820E+06
 0.57449997E+02  0.14082E+06
 0.57499996E+02  0.82895E+05
 0.57549995E+02  0.61227E+05
 0.57599995E+02  0.83785E+05
 0.57649998E+02  0.11486E+06
 0.57699997E+02  0.12269E+06
 0.57749996E+02  0.10771E+06
 0.57799995E+02  0.80831E+05
 0.57849995E+02  0.51134E+05
 0.57899998E+02  0.22391E+05
 0.57949997E+02  0.96581E+04
 0.57999996E+02  0.96752E+03
 0.58049995E+02 -0.39410E+05
 0.58099995E+02 -0.96613E+05
 0.58149998E+02 -0.15483E+06
 0.58199997E+02 -0.21089E+06
 0.58249996E+02 -0.22665E+06
 0.58299995E+02 -0.18432E+06
 0.58349995E+02 -0.13345E+06
 0.58399998E+02 -0.11963E+06
 0.58449997E+02 -0.13172E+06
 0.58499996E+02 -0.16774E+06
 0.58549995E+02 -0.23157E+06
 0.58599995E+02 -0.32491E+06
 0.58649998E+02 -0.44326E+06
 0.58699997E+02 -0.56470E+06
 0.58749996E+02 -0.66447E+06
 0.58799995E+02 -0.70768E+06
 0.58849995E+02 -0.69416E+06
 0.58899998E+02 -0.64147E+06
 0.58949997E+02 -0.54562E+06
 0.58999996E+02 -0.40857E+06
 0.59049995E+02 -0.25596E+06
 0.59099995E+02 -0.13620E+06
 0.59149998E+02 -0.82258E+05
 0.59199997E+02 -0.10400E+06
 0.59249996E+02 -0.15981E+06
 0.59299995E+02 -0.20411E+06
 0.59349995E+02 -0.22604E+06
 0.59399998E+02 -0.23278E+06
 0.59449997E+02 -0.23589E+06
 0.59499996E+02 -0.22961E+06
 0.59549995E+02 -0.20065E+06
 0.59599995E+02 -0.14291E+06
 0.59649998E+02 -0.86525E+05
 0.59699997E+02 -0.64990E+05
 0.59749996E+02 -0.98071E+05
 0.59799995E+02 -0.18062E+06
 0.59849995E+02 -0.26953E+06
 0.59899998E+02 -0.31681E+06
 0.59949997E+02 -0.32169E+06
 0.59999996E+02 -0.31002E+06
 0.60049995E+02 -0.29564E+06
 0.60099995E+02 -0.28375E+06
 0.60149998E+02 -0.27875E+06
 0.60199997E+02 -0.29047E+06
 0.60249996E+02 -0.32354E+06
 0.60299995E+02 -0.36067E+06
 0.60349995E+02 -0.38142E+06
 0.60399998E+02 -0.37450E+06
 0.60449997E+02 -0.34526E+06
 0.60499996E+02 -0.30227E+06
 0.60549995E+02 -0.24460E+06
 0.60599995E+02 -0.15934E+06
 0.60649998E+02 -0.44353E+05
 0.60699997E+02  0.63971E+05
 0.60749996E+02  0.15201E+06
 0.60799995E+02  0.21679E+06
 0.60849995E+02  0.23658E+06
 0.60899998E+02  0.19644E+06
 0.60949997E+02  0.11355E+06
 0.60999996E+02  0.31673E+05
 0.61049995E+02 -0.27727E+05
 0.61099995E+02 -0.59655E+05
 0.61149998E+02 -0.51871E+05
 0.61199997E+02 -0.97623E+04
 0.61249996E+02  0.42083E+05
 0.61299995E+02  0.78733E+05
 0.61349995E+02  0.90858E+05
 0.61399998E+02  0.93073E+05
 0.61449997E+02  0.88586E+05
 0.61499996E+02  0.77626E+05
 0.61549995E+02  0.67205E+05
 0.61599995E+02  0.45537E+05
 0.61649998E+02  0.24868E+04
 0.61699997E+02 -0.48111E+05
 0.61749996E+02 -0.79982E+05
 0.61799995E+02 -0.83314E+05
 0.61849995E+02 -0.77391E+05
 0.61899998E+02 -0.75626E+05
 0.61949997E+02 -0.79597E+05
 0.61999996E+02 -0.94921E+05
 0.62049995E+02 -0.11040E+06
 0.62099998E+02 -0.11027E+06
 0.62149994E+02 -0.88762E+05
 0.62199997E+02 -0.50037E+05
 0.62249992E+02  0.11545E+05
 0.62299995E+02  0.90604E+05
 0.62349998E+02  0.16217E+06
 0.62399994E+02  0.20039E+06
 0.62449997E+02  0.19825E+06
 0.62499992E+02  0.18575E+06
 0.62549995E+02  0.18371E+06
 0.62599998E+02  0.18293E+06
 0.62649994E+02  0.17436E+06
 0.62699997E+02  0.16859E+06
 0.62749992E+02  0.17201E+06
 0.62799995E+02  0.18293E+06
 0.62849998E+02  0.20580E+06
 0.62899994E+02  0.23252E+06
 0.62949997E+02  0.24770E+06
 0.62999992E+02  0.23963E+06
 0.63049995E+02  0.21450E+06
 0.63099998E+02  0.17889E+06
 0.63149994E+02  0.13010E+06
 0.63199997E+02  0.86787E+05
 0.63249992E+02  0.59482E+05
 0.63299995E+02  0.48440E+05
 0.63349998E+02  0.52086E+05
 0.63399994E+02  0.70958E+05
 0.63449997E+02  0.10663E+06
 0.63499992E+02  0.14893E+06
 0.63549995E+02  0.16866E+06
 0.63599998E+02  0.15936E+06
 0.63649994E+02  0.14661E+06
 0.63699997E+02  0.14012E+06
 0.63749992E+02  0.13864E+06
 0.63799995E+02  0.13621E+06
 0.63849998E+02  0.13325E+06
 0.63899994E+02  0.12836E+06
 0.63949997E+02  0.12346E+06
 0.63999992E+02  0.12282E+06
 0.64049995E+02  0.11894E+06
 0.64099998E+02  0.10591E+06
 0.64149994E+02  0.92454E+05
 0.64199997E+02  0.85249E+05
 0.64249992E+02  0.84337E+05
 0.64299995E+02  0.90473E+05
 0.64349998E+02  0.93927E+05
 0.64399994E+02  0.89318E+05
 0.64449997E+02  0.76693E+05
 0.64499992E+02  0.62693E+05
 0.64549995E+02  0.49190E+05
 0.64599998E+02  0.33881E+05
 0.64649994E+02  0.60053E+04
 0.64699997E+02 -0.33098E+05
 0.64749992E+02 -0.55715E+05
 0.64799995E+02 -0.56442E+05
 0.64849998E+02 -0.55223E+05
 0.64899994E+02 -0.60237E+05
 0.64949997E+02 -0.65586E+05
 0.64999992E+02 -0.77677E+05
 0.65049995E+02 -0.10321E+06
 0.65099998E+02 -0.14452E+06
 0.65149994E+02 -0.18988E+06
 0.65199997E+02 -0.21867E+06
 0.65249992E+02 -0.22127E+06
 0.65299995E+02 -0.20426E+06
 0.65349998E+02 -0.18569E+06
 0.65399994E+02 -0.17967E+06
 0.65449997E+02 -0.18928E+06
 0.65499992E+02 -0.19675E+06
 0.65549995E+02 -0.18037E+06
 0.65599998E+02 -0.14105E+06
 0.65649994E+02 -0.87182E+05
 0.65699997E+02 -0.21012E+05
 0.65749992E+02  0.50221E+05
 0.65799995E+02  0.11217E+06
 0.65849998E+02  0.16035E+06
 0.65899994E+02  0.20203E+06
 0.65949997E+02  0.23656E+06
 0.65999992E+02  0.25885E+06
 0.66049995E+02  0.26065E+06
 0.66099998E+02  0.22991E+06
 0.66149994E+02  0.16463E+06
 0.66199997E+02  0.78065E+05
 0.66249992E+02 -0.96016E+04
 0.66299995E+02 -0.84319E+05
 0.66349998E+02 -0.13650E+06
 0.66399994E+02 -0.16204E+06
 0.66449997E+02 -0.16748E+06
 0.66499992E+02 -0.16053E+06
 0.66549995E+02 -0.14175E+06
 0.66599998E+02 -0.11930E+06
 0.66649994E+02 -0.10328E+06
 0.66699997E+02 -0.93269E+05
 0.66749992E+02 -0.86012E+05
 0.66799995E+02 -0.78324E+05
 0.66849998E+02 -0.71277E+05
 0.66899994E+02 -0.67899E+05
 0.66949997E+02 -0.63608E+05
 0.66999992E+02 -0.51940E+05
 0.67049995E+02 -0.32872E+05
 0.67099998E+02 -0.33097E+04
 0.67149994E+02  0.37490E+05
 0.67199997E+02  0.96476E+05
 0.67249992E+02  0.17175E+06
 0.67299995E+02  0.24137E+06
 0.67349998E+02  0.29076E+06
 0.67399994E+02  0.31978E+06
 0.67449997E+02  0.32986E+06
 0.67499992E+02  0.32203E+06
 0.67549995E+02  0.30298E+06
 0.67599998E+02  0.27303E+06
 0.67649994E+02  0.23025E+06
 0.67699997E+02  0.17713E+06
 0.67749992E+02  0.12592E+06
 0.67799995E+02  0.91956E+05
 0.67849998E+02  0.87507E+05
 0.67899994E+02  0.11719E+06
 0.67949997E+02  0.17760E+06
 0.67999992E+02  0.26007E+06
 0.68049995E+02  0.34256E+06
 0.68099998E+02  0.39884E+06
 0.68149994E+02  0.41949E+06
 0.68199997E+02  0.41606E+06
 0.68249992E+02  0.39921E+06
 0.68299995E+02  0.37508E+06
 0.68349998E+02  0.34383E+06
 0.68399994E+02  0.30520E+06
 0.68449997E+02  0.26095E+06
 0.68499992E+02  0.21206E+06
 0.68549995E+02  0.16041E+06
 0.68599998E+02  0.10946E+06
 0.68649994E+02  0.65468E+05
 0.68699997E+02  0.29649E+05
 0.68749992E+02  0.33049E+04
 0.68799995E+02 -0.18787E+05
 0.68849998E+02 -0.45297E+05
 0.68899994E+02 -0.76050E+05
 0.68949997E+02 -0.10246E+06
 0.68999992E+02 -0.12377E+06
 0.69049995E+02 -0.14345E+06
 0.69099998E+02 -0.15768E+06
 0.69149994E+02 -0.16765E+06
 0.69199997E+02 -0.17880E+06
 0.69249992E+02 -0.19388E+06
 0.69299995E+02 -0.20948E+06
 0.69349998E+02 -0.22504E+06
 0.69399994E+02 -0.24002E+06
 0.69449997E+02 -0.25651E+06
 0.69499992E+02 -0.27981E+06
 0.69549995E+02 -0.30965E+06
 0.69599998E+02 -0.33259E+06
 0.69649994E+02 -0.33174E+06
 0.69699997E+02 -0.30604E+06
 0.69749992E+02 -0.26066E+06
 0.69799995E+02 -0.20931E+06
 0.69849998E+02 -0.16165E+06
 0.69899994E+02 -0.11654E+06
 0.69949997E+02 -0.68664E+05
 0.69999992E+02 -0.15500E+05
 0.70049995E+02  0.40633E+05
 0.70099998E+02  0.94203E+05
 0.70149994E+02  0.14363E+06
 0.70199997E+02  0.19244E+06
 0.70249992E+02  0.23318E+06
 0.70299995E+02  0.25594E+06
 0.70349998E+02  0.25201E+06
 0.70399994E+02  0.21587E+06
 0.70449997E+02  0.15088E+06
 0.70499992E+02  0.74224E+05
 0.70549995E+02  0.47892E+04
 0.70599998E+02 -0.48733E+05
 0.70649994E+02 -0.86651E+05
 0.70699997E+02 -0.11041E+06
 0.70749992E+02 -0.12190E+06
 0.70799995E+02 -0.12376E+06
 0.70849998E+02 -0.11391E+06
 0.70899994E+02 -0.88340E+05
 0.70949997E+02 -0.43596E+05
 0.70999992E+02  0.60920E+04
 0.71049995E+02  0.35507E+05
 0.71099998E+02  0.38638E+05
 0.71149994E+02  0.31596E+05
 0.71199997E+02  0.22439E+05
 0.71249992E+02  0.11660E+05
 0.71299995E+02  0.46645E+04
 0.71349998E+02 -0.14028E+04
 0.71399994E+02 -0.96575E+04
 0.71449997E+02 -0.20171E+05
 0.71499992E+02 -0.32201E+05
 0.71549995E+02 -0.39146E+05
 0.71599998E+02 -0.34008E+05
 0.71649994E+02 -0.15146E+05
 0.71699997E+02  0.14915E+05
 0.71749992E+02  0.46367E+05
 0.71799995E+02  0.66903E+05
 0.71849998E+02  0.74964E+05
 0.71899994E+02  0.82692E+05
 0.71949997E+02  0.10242E+06
 0.71999992E+02  0.13101E+06
 0.72049995E+02  0.15718E+06
 0.72099998E+02  0.17059E+06
 0.72149994E+02  0.16533E+06
 0.72199997E+02  0.14846E+06
 0.72249992E+02  0.13199E+06
 0.72299995E+02  0.11489E+06
 0.72349998E+02  0.91885E+05
 0.72399994E+02  0.64234E+05
 0.72449997E+02  0.43082E+05
 0.72499992E+02  0.31105E+05
 0.72549995E+02  0.17840E+05
 0.72599998E+02 -0.28034E+04
 0.72649994E+02 -0.30498E+05
 0.72699997E+02 -0.59389E+05
 0.72749992E+02 -0.82741E+05
 0.72799995E+02 -0.97593E+05
 0.72849998E+02 -0.10431E+06
 0.72899994E+02 -0.98600E+05
 0.72949997E+02 -0.78515E+05
 0.72999992E+02 -0.44849E+05
 0.73049995E+02  0.30372E+04
 0.73099998E+02  0.57341E+05
 0.73149994E+02  0.10202E+06
 0.73199997E+02  0.12589E+06
 0.73249992E+02  0.12346E+06
 0.73299995E+02  0.95675E+05
 0.73349998E+02  0.49191E+05
 0.73399994E+02 -0.73099E+04
 0.73449997E+02 -0.62060E+05
 0.73499992E+02 -0.10630E+06
 0.73549995E+02 -0.13937E+06
 0.73599998E+02 -0.16652E+06
 0.73649994E+02 -0.19079E+06
 0.73699997E+02 -0.20587E+06
 0.73749992E+02 -0.20435E+06
 0.73799995E+02 -0.19367E+06
 0.73849998E+02 -0.18569E+06
 0.73899994E+02 -0.18583E+06
 0.73949997E+02 -0.19232E+06
 0.73999992E+02 -0.19826E+06
 0.74049995E+02 -0.19734E+06
 0.74099998E+02 -0.18617E+06
 0.74149994E+02 -0.17142E+06
 0.74199997E+02 -0.16195E+06
 0.74249992E+02 -0.16003E+06
 0.74299995E+02 -0.16015E+06
 0.74349998E+02 -0.15404E+06
 0.74399994E+02 -0.14273E+06
 0.74449997E+02 -0.13128E+06
 0.74499992E+02 -0.12588E+06
 0.74549995E+02 -0.13116E+06
 0.74599998E+02 -0.14375E+06
 0.74649994E+02 -0.15701E+06
 0.74699997E+02 -0.16960E+06
 0.74749992E+02 -0.18138E+06
 0.74799995E+02 -0.19005E+06
 0.74849998E+02 -0.19368E+06
 0.74899994E+02 -0.18954E+06
 0.74949997E+02 -0.17660E+06
 0.74999992E+02 -0.15256E+06
 0.75049995E+02 -0.11809E+06
 0.75099998E+02 -0.76092E+05
 0.75149994E+02 -0.27744E+05
 0.75199997E+02  0.23438E+05
 0.75249992E+02  0.69945E+05
 0.75299995E+02  0.10151E+06
 0.75349998E+02  0.11311E+06
 0.75399994E+02  0.11127E+06
 0.75449997E+02  0.10583E+06
 0.75499992E+02  0.10351E+06
 0.75549995E+02  0.10592E+06
 0.75599998E+02  0.10603E+06
 0.75649994E+02  0.10072E+06
 0.75699997E+02  0.94285E+05
 0.75749992E+02  0.87641E+05
 0.75799995E+02  0.77902E+05
 0.75849998E+02  0.65653E+05
 0.75899994E+02  0.55694E+05
 0.75949997E+02  0.54614E+05
 0.75999992E+02  0.64907E+05
 0.76049995E+02  0.88305E+05
 0.76099998E+02  0.12248E+06
 0.76149994E+02  0.15685E+06
 0.76199997E+02  0.17976E+06
 0.76249992E+02  0.18488E+06
 0.76299995E+02  0.17310E+06
 0.76349998E+02  0.14812E+06
 0.76399994E+02  0.11721E+06
 0.76449997E+02  0.81806E+05
 0.76499992E+02  0.40670E+05
 0.76549995E+02 -0.57337E+04
 0.76599998E+02 -0.50002E+05
 0.76649994E+02 -0.80336E+05
 0.76699997E+02 -0.88486E+05
 0.76749992E+02 -0.72530E+05
 0.76799995E+02 -0.42144E+05
 0.76849998E+02 -0.50399E+04
 0.76899994E+02  0.32921E+05
 0.76949997E+02  0.67014E+05
 0.76999992E+02  0.96514E+05
 0.77049995E+02  0.12025E+06
 0.77099998E+02  0.13344E+06
 0.77149994E+02  0.12953E+06
 0.77199997E+02  0.10656E+06
 0.77249992E+02  0.69615E+05
 0.77299995E+02  0.29211E+05
 0.77349998E+02 -0.48220E+04
 0.77399994E+02 -0.26221E+05
 0.77449997E+02 -0.36355E+05
 0.77499992E+02 -0.40826E+05
 0.77549995E+02 -0.43450E+05
 0.77599998E+02 -0.44823E+05
 0.77649994E+02 -0.44522E+05
 0.77699997E+02 -0.44480E+05
 0.77749992E+02 -0.48339E+05
 0.77799995E+02 -0.57855E+05
 0.77849998E+02 -0.68774E+05
 0.77899994E+02 -0.76910E+05
 0.77949997E+02 -0.80778E+05
 0.77999992E+02 -0.76437E+05
 0.78049995E+02 -0.65158E+05
 0.78099998E+02 -0.53940E+05
 0.78149994E+02 -0.48822E+05
 0.78199997E+02 -0.54136E+05
 0.78249992E+02 -0.65423E+05
 0.78299995E+02 -0.74314E+05
 0.78349998E+02 -0.78627E+05
 0.78399994E+02 -0.80194E+05
 0.78449997E+02 -0.80787E+05
 0.78499992E+02 -0.78216E+05
 0.78549995E+02 -0.68772E+05
 0.78599998E+02 -0.51448E+05
 0.78649994E+02 -0.27842E+05
 0.78699997E+02 -0.56432E+03
 0.78749992E+02  0.26574E+05
 0.78799995E+02  0.43140E+05
 0.78849998E+02  0.45183E+05
 0.78899994E+02  0.41128E+05
 0.78949997E+02  0.35948E+05
 0.78999992E+02  0.31073E+05
 0.79049995E+02  0.30166E+05
 0.79099998E+02  0.36524E+05
 0.79149994E+02  0.51420E+05
 0.79199997E+02  0.72635E+05
 0.79249992E+02  0.92484E+05
 0.79299995E+02  0.10476E+06
 0.79349998E+02  0.10586E+06
 0.79399994E+02  0.92151E+05
 0.79449997E+02  0.66379E+05
 0.79499992E+02  0.35131E+05
 0.79549995E+02  0.35539E+04
 0.79599998E+02 -0.24336E+05
 0.79649994E+02 -0.44713E+05
 0.79699997E+02 -0.55611E+05
 0.79749992E+02 -0.58964E+05
 0.79799995E+02 -0.56596E+05
 0.79849998E+02 -0.48428E+05
 0.79899994E+02 -0.36970E+05
 0.79949997E+02 -0.28681E+05
 0.79999992E+02 -0.25634E+05
 0.80049995E+02 -0.22600E+05
 0.80099998E+02 -0.12378E+05
 0.80149994E+02  0.85322E+04
 0.80199997E+02  0.36467E+05
 0.80249992E+02  0.59977E+05
 0.80299995E+02  0.69749E+05
 0.80349998E+02  0.67289E+05
 0.80399994E+02  0.60015E+05
 0.80449997E+02  0.54395E+05
 0.80499992E+02  0.51468E+05
 0.80549995E+02  0.48852E+05
 0.80599998E+02  0.45360E+05
 0.80649994E+02  0.42929E+05
 0.80699997E+02  0.40886E+05
 0.80749992E+02  0.35839E+05
 0.80799995E+02  0.27688E+05
 0.80849998E+02  0.17467E+05
 0.80899994E+02  0.76270E+04
 0.80949997E+02  0.40535E+04
 0.80999992E+02  0.11562E+05
 0.81049995E+02  0.28993E+05
 0.81099998E+02  0.50893E+05
 0.81149994E+02  0.66761E+05
 0.81199997E+02  0.68961E+05
 0.81249992E+02  0.59865E+05
 0.81299995E+02  0.45706E+05
 0.81349998E+02  0.29506E+05
 0.81399994E+02  0.14204E+05
 0.81449997E+02  0.44836E+04
 0.81499992E+02  0.88019E+02
 0.81549995E+02 -0.28091E+04
 0.81599998E+02 -0.80450E+04
 0.81649994E+02 -0.14452E+05
 0.81699997E+02 -0.14761E+05
 0.81749992E+02 -0.73568E+04
 0.81799995E+02 -0.30843E+03
 0.81849998E+02 -0.13236E+04
 0.81899994E+02 -0.12422E+05
 0.81949997E+02 -0.31819E+05
 0.81999992E+02 -0.55207E+05
 0.82049995E+02 -0.79472E+05
 0.82099998E+02 -0.10336E+06
 0.82149994E+02 -0.12322E+06
 0.82199997E+02 -0.13456E+06
 0.82249992E+02 -0.13284E+06
 0.82299995E+02 -0.11845E+06
 0.82349998E+02 -0.94952E+05
 0.82399994E+02 -0.64610E+05
 0.82449997E+02 -0.33703E+05
 0.82499992E+02 -0.88729E+04
 0.82549995E+02  0.10173E+05
 0.82599998E+02  0.23782E+05
 0.82649994E+02  0.26909E+05
 0.82699997E+02  0.16893E+05
 0.82749992E+02 -0.17441E+04
 0.82799995E+02 -0.24478E+05
 0.82849998E+02 -0.48302E+05
 0.82899994E+02 -0.67612E+05
 0.82949997E+02 -0.78395E+05
 0.82999992E+02 -0.77294E+05
 0.83049995E+02 -0.61582E+05
 0.83099998E+02 -0.34307E+05
 0.83149994E+02  0.11957E+04
 0.83199997E+02  0.44216E+05
 0.83249992E+02  0.91629E+05
 0.83299995E+02  0.13838E+06
 0.83349998E+02  0.17941E+06
 0.83399994E+02  0.20716E+06
 0.83449997E+02  0.21329E+06
 0.83499992E+02  0.19541E+06
 0.83549995E+02  0.16049E+06
 0.83599998E+02  0.12153E+06
 0.83649994E+02  0.89279E+05
 0.83699997E+02  0.70098E+05
 0.83749992E+02  0.65734E+05
 0.83799995E+02  0.71926E+05
 0.83849998E+02  0.78760E+05
 0.83899994E+02  0.79507E+05
 0.83949997E+02  0.73188E+05
 0.83999992E+02  0.59708E+05
 0.84049995E+02  0.40072E+05
 0.84099998E+02  0.16708E+05
 0.84149994E+02 -0.68456E+04
 0.84199997E+02 -0.27497E+05
 0.84249992E+02 -0.40987E+05
 0.84299995E+02 -0.46516E+05
 0.84349998E+02 -0.45627E+05
 0.84399994E+02 -0.40020E+05
 0.84449997E+02 -0.32435E+05
 0.84499992E+02 -0.25929E+05
 0.84549995E+02 -0.21048E+05
 0.84599998E+02 -0.16138E+05
 0.84649994E+02 -0.10119E+05
 0.84699997E+02 -0.40512E+04
 0.84749992E+02 -0.27366E+04
 0.84799995E+02 -0.83022E+04
 0.84849998E+02 -0.17930E+05
 0.84899994E+02 -0.28751E+05
 0.84949997E+02 -0.38706E+05
 0.84999992E+02 -0.46621E+05
 0.85049995E+02 -0.53047E+05
 0.85099998E+02 -0.55447E+05
 0.85149994E+02 -0.52432E+05
 0.85199997E+02 -0.45157E+05
 0.85249992E+02 -0.34538E+05
 0.85299995E+02 -0.20430E+05
 0.85349998E+02 -0.11424E+04
 0.85399994E+02  0.22153E+05
 0.85449997E+02  0.44442E+05
 0.85499992E+02  0.62426E+05
 0.85549995E+02  0.74698E+05
 0.85599998E+02  0.80027E+05
 0.85649994E+02  0.79176E+05
 0.85699997E+02  0.72194E+05
 0.85749992E+02  0.60787E+05
 0.85799995E+02  0.48131E+05
 0.85849998E+02  0.33239E+05
 0.85899994E+02  0.12789E+05
 0.85949997E+02 -0.11009E+05
 0.85999992E+02 -0.32415E+05
 0.86049995E+02 -0.47847E+05
 0.86099998E+02 -0.56355E+05
 0.86149994E+02 -0.57895E+05
 0.86199997E+02 -0.52187E+05
 0.86249992E+02 -0.40359E+05
 0.86299995E+02 -0.26554E+05
 0.86349998E+02 -0.18996E+05
 0.86399994E+02 -0.20938E+05
 0.86449997E+02 -0.30301E+05
 0.86499992E+02 -0.44343E+05
 0.86549995E+02 -0.54276E+05
 0.86599998E+02 -0.54207E+05
 0.86649994E+02 -0.47472E+05
 0.86699997E+02 -0.38839E+05
 0.86749992E+02 -0.29990E+05
 0.86799995E+02 -0.20583E+05
 0.86849998E+02 -0.13481E+05
 0.86899994E+02 -0.13491E+05
 0.86949997E+02 -0.20738E+05
 0.86999992E+02 -0.30897E+05
 0.87049995E+02 -0.42602E+05
 0.87099998E+02 -0.55856E+05
 0.87149994E+02 -0.65967E+05
 0.87199997E+02 -0.71046E+05
 0.87249992E+02 -0.75026E+05
 0.87299995E+02 -0.82070E+05
 0.87349998E+02 -0.92057E+05
 0.87399994E+02 -0.10305E+06
 0.87449997E+02 -0.11409E+06
 0.87499992E+02 -0.12160E+06
 0.87549995E+02 -0.12054E+06
 0.87599991E+02 -0.10917E+06
 0.87649994E+02 -0.89225E+05
 0.87699997E+02 -0.62482E+05
 0.87749992E+02 -0.30733E+05
 0.87799995E+02  0.21083E+04
 0.87849991E+02  0.29470E+05
 0.87899994E+02  0.48118E+05
 0.87949997E+02  0.60444E+05
 0.87999992E+02  0.69380E+05
 0.88049995E+02  0.75697E+05
 0.88099991E+02  0.80529E+05
 0.88149994E+02  0.85029E+05
 0.88199997E+02  0.88238E+05
 0.88249992E+02  0.92208E+05
 0.88299995E+02  0.10087E+06
 0.88349991E+02  0.11476E+06
 0.88399994E+02  0.13084E+06
 0.88449997E+02  0.14192E+06
 0.88499992E+02  0.13972E+06
 0.88549995E+02  0.12363E+06
 0.88599991E+02  0.98127E+05
 0.88649994E+02  0.68612E+05
 0.88699997E+02  0.39678E+05
 0.88749992E+02  0.13223E+05
 0.88799995E+02 -0.92445E+04
 0.88849991E+02 -0.28086E+05
 0.88899994E+02 -0.42014E+05
 0.88949997E+02 -0.50453E+05
 0.88999992E+02 -0.54766E+05
 0.89049995E+02 -0.55923E+05
 0.89099991E+02 -0.55233E+05
 0.89149994E+02 -0.54018E+05
 0.89199997E+02 -0.54240E+05
 0.89249992E+02 -0.57962E+05
 0.89299995E+02 -0.66841E+05
 0.89349991E+02 -0.76565E+05
 0.89399994E+02 -0.81275E+05
 0.89449997E+02 -0.78657E+05
 0.89499992E+02 -0.71158E+05
 0.89549995E+02 -0.65103E+05
 0.89599991E+02 -0.64070E+05
 0.89649994E+02 -0.66409E+05
 0.89699997E+02 -0.65847E+05
 0.89749992E+02 -0.55756E+05
 0.89799995E+02 -0.35005E+05
 0.89849991E+02 -0.80667E+04
 0.89899994E+02  0.19212E+05
 0.89949997E+02  0.43399E+05
 0.89999992E+02  0.65591E+05
 0.90049995E+02  0.87377E+05
 0.90099991E+02  0.10901E+06
 0.90149994E+02  0.12745E+06
 0.90199997E+02  0.13754E+06
 0.90249992E+02  0.13448E+06
 0.90299995E+02  0.11673E+06
 0.90349991E+02  0.89346E+05
 0.90399994E+02  0.61658E+05
 0.90449997E+02  0.38986E+05
 0.90499992E+02  0.21975E+05
 0.90549995E+02  0.10902E+05
 0.90599991E+02  0.35620E+04
 0.90649994E+02 -0.41080E+04
 0.90699997E+02 -0.16478E+05
 0.90749992E+02 -0.33176E+05
 0.90799995E+02 -0.52731E+05
 0.90849991E+02 -0.72806E+05
 0.90899994E+02 -0.87899E+05
 0.90949997E+02 -0.95725E+05
 0.90999992E+02 -0.98835E+05
 0.91049995E+02 -0.99636E+05
 0.91099991E+02 -0.96044E+05
 0.91149994E+02 -0.86552E+05
 0.91199997E+02 -0.71315E+05
 0.91249992E+02 -0.50696E+05
 0.91299995E+02 -0.26474E+05
 0.91349991E+02 -0.26507E+04
 0.91399994E+02  0.16940E+05
 0.91449997E+02  0.31559E+05
 0.91499992E+02  0.41211E+05
 0.91549995E+02  0.48104E+05
 0.91599991E+02  0.52620E+05
 0.91649994E+02  0.52843E+05
 0.91699997E+02  0.49611E+05
 0.91749992E+02  0.45380E+05
 0.91799995E+02  0.44708E+05
 0.91849991E+02  0.50115E+05
 0.91899994E+02  0.61403E+05
 0.91949997E+02  0.75092E+05
 0.91999992E+02  0.84399E+05
 0.92049995E+02  0.86432E+05
 0.92099991E+02  0.81802E+05
 0.92149994E+02  0.71677E+05
 0.92199997E+02  0.58431E+05
 0.92249992E+02  0.43676E+05
 0.92299995E+02  0.29238E+05
 0.92349991E+02  0.15692E+05
 0.92399994E+02  0.11619E+04
 0.92449997E+02 -0.15054E+05
 0.92499992E+02 -0.32430E+05
 0.92549995E+02 -0.51018E+05
 0.92599991E+02 -0.72109E+05
 0.92649994E+02 -0.94936E+05
 0.92699997E+02 -0.11653E+06
 0.92749992E+02 -0.13454E+06
 0.92799995E+02 -0.14778E+06
 0.92849991E+02 -0.15590E+06
 0.92899994E+02 -0.15747E+06
 0.92949997E+02 -0.15050E+06
 0.92999992E+02 -0.13654E+06
 0.93049995E+02 -0.11701E+06
 0.93099991E+02 -0.90264E+05
 0.93149994E+02 -0.57582E+05
 0.93199997E+02 -0.25263E+05
 0.93249992E+02 -0.21017E+04
 0.93299995E+02  0.72067E+04
 0.93349991E+02  0.66234E+04
 0.93399994E+02  0.34675E+04
 0.93449997E+02  0.23834E+04
 0.93499992E+02  0.44275E+04
 0.93549995E+02  0.88630E+04
 0.93599991E+02  0.13540E+05
 0.93649994E+02  0.15168E+05
 0.93699997E+02  0.12538E+05
 0.93749992E+02  0.72111E+04
 0.93799995E+02  0.20712E+04
 0.93849991E+02 -0.42450E+03
 0.93899994E+02 -0.42395E+03
 0.93949997E+02  0.26695E+04
 0.93999992E+02  0.10956E+05
 0.94049995E+02  0.23299E+05
 0.94099991E+02  0.36220E+05
 0.94149994E+02  0.47475E+05
 0.94199997E+02  0.56386E+05
 0.94249992E+02  0.62990E+05
 0.94299995E+02  0.68991E+05
 0.94349991E+02  0.76584E+05
 0.94399994E+02  0.85743E+05
 0.94449997E+02  0.94212E+05
 0.94499992E+02  0.97213E+05
 0.94549995E+02  0.89271E+05
 0.94599991E+02  0.69673E+05
 0.94649994E+02  0.43521E+05
 0.94699997E+02  0.18376E+05
 0.94749992E+02 -0.14382E+04
 0.94799995E+02 -0.16143E+05
 0.94849991E+02 -0.27444E+05
 0.94899994E+02 -0.38098E+05
 0.94949997E+02 -0.50122E+05
 0.94999992E+02 -0.63688E+05
 0.95049995E+02 -0.78254E+05
 0.95099991E+02 -0.92401E+05
 0.95149994E+02 -0.10434E+06
 0.95199997E+02 -0.11263E+06
 0.95249992E+02 -0.11734E+06
 0.95299995E+02 -0.11947E+06
 0.95349991E+02 -0.11790E+06
 0.95399994E+02 -0.11069E+06
 0.95449997E+02 -0.94666E+05
 0.95499992E+02 -0.67713E+05
 0.95549995E+02 -0.33765E+05
 0.95599991E+02 -0.16312E+04
 0.95649994E+02  0.21355E+05
 0.95699997E+02  0.33019E+05
 0.95749992E+02  0.36460E+05
 0.95799995E+02  0.36240E+05
 0.95849991E+02  0.34746E+05
 0.95899994E+02  0.35490E+05
 0.95949997E+02  0.43589E+05
 0.95999992E+02  0.61923E+05
 0.96049995E+02  0.87934E+05
 0.96099991E+02  0.11466E+06
 0.96149994E+02  0.13554E+06
 0.96199997E+02  0.14814E+06
 0.96249992E+02  0.15405E+06
 0.96299995E+02  0.15596E+06
 0.96349991E+02  0.15412E+06
 0.96399994E+02  0.14728E+06
 0.96449997E+02  0.13498E+06
 0.96499992E+02  0.11817E+06
 0.96549995E+02  0.98307E+05
 0.96599991E+02  0.76975E+05
 0.96649994E+02  0.56569E+05
 0.96699997E+02  0.38450E+05
 0.96749992E+02  0.22519E+05
 0.96799995E+02  0.86696E+04
 0.96849991E+02 -0.23653E+04
 0.96899994E+02 -0.11738E+05
 0.96949997E+02 -0.19164E+05
 0.96999992E+02 -0.22104E+05
 0.97049995E+02 -0.17579E+05
 0.97099991E+02 -0.39873E+04
 0.97149994E+02  0.16470E+05
 0.97199997E+02  0.39839E+05
 0.97249992E+02  0.60162E+05
 0.97299995E+02  0.72814E+05
 0.97349991E+02  0.76267E+05
 0.97399994E+02  0.72458E+05
 0.97449997E+02  0.65141E+05
 0.97499992E+02  0.56260E+05
 0.97549995E+02  0.45864E+05
 0.97599991E+02  0.32816E+05
 0.97649994E+02  0.14692E+05
 0.97699997E+02 -0.81510E+04
 0.97749992E+02 -0.32025E+05
 0.97799995E+02 -0.55379E+05
 0.97849991E+02 -0.76013E+05
 0.97899994E+02 -0.89191E+05
 0.97949997E+02 -0.91014E+05
 0.97999992E+02 -0.81664E+05
