-0.20000000E+01  0.69572E+00
-0.19500000E+01  0.32948E+00
-0.19000000E+01 -0.22680E+01
-0.18500000E+01 -0.30384E+01
-0.18000000E+01  0.59495E+01
-0.17500000E+01  0.93534E+01
-0.17000000E+01  0.97763E+01
-0.16500001E+01  0.15128E+02
-0.16000000E+01  0.14685E+02
-0.15500000E+01  0.12056E+02
-0.15000000E+01  0.35470E+01
-0.14500000E+01  0.22834E+01
-0.14000001E+01  0.22145E+01
-0.13500000E+01 -0.10343E+00
-0.13000001E+01  0.49041E+00
-0.12500000E+01 -0.40050E+01
-0.12000000E+01  0.58996E+01
-0.11500001E+01  0.92805E+01
-0.11000000E+01  0.38349E+01
-0.10500001E+01  0.64576E+01
-0.10000000E+01  0.48200E+01
-0.95000005E+00  0.84777E+01
-0.90000010E+00  0.85926E+01
-0.85000002E+00  0.21324E+01
-0.80000007E+00  0.13994E+02
-0.75000012E+00  0.13729E+02
-0.70000005E+00  0.15458E+02
-0.65000010E+00  0.16496E+02
-0.60000014E+00  0.11670E+02
-0.55000007E+00  0.15865E+02
-0.50000012E+00  0.16809E+02
-0.45000005E+00  0.13762E+02
-0.40000010E+00  0.84889E+01
-0.35000014E+00  0.92125E+01
-0.30000007E+00  0.91159E+01
-0.25000012E+00  0.10014E+02
-0.20000005E+00  0.10150E+02
-0.15000010E+00  0.10022E+02
-0.10000014E+00  0.43961E+01
-0.50000072E-01  0.28383E+01
-0.11920929E-06 -0.24622E+01
 0.49999952E-01  0.19579E+01
 0.99999905E-01  0.65053E+00
 0.14999986E+00 -0.97351E+00
 0.19999981E+00  0.11950E+02
 0.24999976E+00  0.95384E+01
 0.29999995E+00  0.16647E+02
 0.34999990E+00  0.16091E+02
 0.39999986E+00  0.11886E+02
 0.44999981E+00  0.40899E+01
 0.49999976E+00  0.58963E+01
 0.54999995E+00  0.14567E+02
 0.59999990E+00  0.57344E+01
 0.64999986E+00  0.16557E+01
 0.69999981E+00  0.32022E+01
 0.74999976E+00  0.84207E+01
 0.79999971E+00  0.89958E+01
 0.84999990E+00  0.12633E+02
 0.89999986E+00  0.12285E+02
 0.94999981E+00  0.11081E+02
 0.99999976E+00  0.69978E+01
 0.10499997E+01  0.29707E+01
 0.10999999E+01  0.49861E+01
 0.11499999E+01  0.56180E+01
 0.11999998E+01  0.12807E+02
 0.12499998E+01  0.87724E+01
 0.12999997E+01  0.10051E+02
 0.13499999E+01  0.10172E+02
 0.13999999E+01  0.42969E+01
 0.14499998E+01  0.12642E+02
 0.14999998E+01  0.12299E+02
 0.15499997E+01  0.45423E+01
 0.15999999E+01  0.28725E+01
 0.16499999E+01  0.44622E+01
 0.16999998E+01  0.39642E+01
 0.17499998E+01  0.36028E+01
 0.17999997E+01  0.65710E+01
 0.18499997E+01  0.39649E+01
 0.18999999E+01 -0.47559E+01
 0.19499998E+01 -0.21609E+01
 0.19999998E+01 -0.42378E+00
 0.20499997E+01 -0.38306E+00
 0.20999999E+01  0.15376E+01
 0.21499996E+01  0.18537E+01
 0.21999998E+01  0.10154E+02
 0.22499995E+01  0.60485E+01
 0.22999997E+01  0.37630E+01
 0.23499999E+01  0.60116E+01
 0.23999996E+01  0.68479E+01
 0.24499998E+01  0.95855E+01
 0.24999995E+01  0.54969E+01
 0.25499997E+01  0.35894E+01
 0.25999999E+01 -0.34085E-01
 0.26499996E+01  0.38993E+01
 0.26999998E+01  0.71104E+01
 0.27499995E+01  0.45269E+01
 0.27999997E+01  0.65406E+01
 0.28499999E+01  0.51823E+01
 0.28999996E+01 -0.54047E+00
 0.29499998E+01  0.17166E+01
 0.29999995E+01  0.75566E+01
 0.30499997E+01  0.31234E+01
 0.30999999E+01  0.25531E+00
 0.31499996E+01  0.40137E+01
 0.31999998E+01  0.10820E+02
 0.32499995E+01  0.13110E+02
 0.32999997E+01  0.92855E+01
 0.33499999E+01  0.49588E+01
 0.33999996E+01  0.14255E+01
 0.34499998E+01 -0.82071E+00
 0.34999995E+01  0.95346E+01
 0.35499997E+01  0.86949E+01
 0.35999994E+01  0.32519E+01
 0.36499996E+01  0.74281E+01
 0.36999998E+01  0.19717E+01
 0.37499995E+01  0.33456E+00
 0.37999997E+01  0.13985E+01
 0.38499994E+01  0.67778E+01
 0.38999996E+01  0.82812E+01
 0.39499998E+01 -0.23337E+01
 0.39999995E+01  0.31434E-01
 0.40499997E+01 -0.51424E+00
 0.40999994E+01 -0.86515E+00
 0.41499996E+01  0.62882E+01
 0.41999998E+01  0.82324E+01
 0.42499995E+01  0.11469E+02
 0.42999997E+01  0.11332E+02
 0.43499994E+01  0.82585E+01
 0.43999996E+01  0.10195E+02
 0.44499998E+01  0.15172E+02
 0.44999995E+01  0.16234E+02
 0.45499997E+01  0.81075E+01
 0.45999994E+01  0.40336E+01
 0.46499996E+01  0.57803E+01
 0.46999998E+01  0.46525E+01
 0.47499995E+01  0.67767E+01
 0.47999997E+01  0.25627E+01
 0.48499994E+01  0.51187E+01
 0.48999996E+01  0.62592E+01
 0.49499998E+01  0.73972E+01
 0.49999995E+01  0.11715E+02
 0.50499997E+01  0.14834E+02
 0.50999994E+01  0.13777E+02
 0.51499996E+01  0.99241E+01
 0.51999998E+01  0.15233E+02
 0.52499995E+01  0.18614E+02
 0.52999997E+01  0.21283E+02
 0.53499994E+01  0.27016E+02
 0.53999996E+01  0.25714E+02
 0.54499993E+01  0.18788E+02
 0.54999995E+01  0.14106E+02
 0.55499997E+01  0.96438E+01
 0.55999994E+01  0.13522E+02
 0.56499996E+01  0.97181E+01
 0.56999993E+01  0.34853E+01
 0.57499995E+01  0.48626E+01
 0.57999997E+01  0.65223E+01
 0.58499994E+01  0.12703E+02
 0.58999996E+01  0.10029E+02
 0.59499993E+01  0.12684E+02
 0.59999995E+01  0.13151E+02
 0.60499992E+01  0.10897E+02
 0.60999994E+01  0.11881E+02
 0.61499996E+01  0.14236E+02
 0.61999998E+01  0.16399E+02
 0.62499990E+01  0.15337E+02
 0.62999992E+01  0.16473E+02
 0.63499994E+01  0.11777E+02
 0.63999996E+01  0.12533E+02
 0.64499998E+01  0.12520E+02
 0.64999990E+01  0.81139E+01
 0.65499992E+01  0.85304E+01
 0.65999994E+01  0.69122E+01
 0.66499996E+01  0.43814E+01
 0.66999998E+01  0.73543E+01
 0.67499990E+01  0.47550E+01
 0.67999992E+01  0.89925E+00
 0.68499994E+01  0.48521E+01
 0.68999996E+01  0.17037E+01
 0.69499998E+01  0.83355E+01
 0.69999990E+01  0.47324E-01
 0.70499992E+01  0.10104E+02
 0.70999994E+01  0.88088E+01
 0.71499996E+01  0.18515E+02
 0.71999998E+01  0.98243E+01
 0.72499990E+01  0.25956E+02
 0.72999992E+01  0.83190E+01
 0.73499994E+01  0.13341E+02
 0.73999996E+01 -0.18322E+01
 0.74499998E+01  0.42754E+01
 0.74999990E+01 -0.70940E+02
 0.75499992E+01 -0.28960E+03
 0.75999994E+01 -0.38710E+03
 0.76499996E+01 -0.44572E+03
 0.76999998E+01 -0.23526E+03
 0.77499990E+01 -0.24468E+03
 0.77999992E+01 -0.14436E+03
 0.78499994E+01 -0.20395E+03
 0.78999996E+01 -0.41866E+03
 0.79499998E+01 -0.42099E+03
 0.79999990E+01 -0.31145E+03
 0.80499992E+01 -0.34791E+03
 0.80999994E+01 -0.40888E+03
 0.81499996E+01 -0.17374E+03
 0.81999998E+01 -0.91687E+02
 0.82499990E+01 -0.93986E+02
 0.82999992E+01 -0.38202E+03
 0.83499994E+01 -0.42911E+03
 0.83999996E+01 -0.56236E+03
 0.84499998E+01  0.27936E+03
 0.84999990E+01  0.13856E+04
 0.85499992E+01  0.12285E+04
 0.85999994E+01 -0.83862E+02
 0.86499996E+01 -0.38971E+03
 0.86999998E+01 -0.28081E+03
 0.87499990E+01 -0.39321E+03
 0.87999992E+01 -0.37520E+03
 0.88499994E+01  0.10985E+01
 0.88999996E+01  0.12729E+04
 0.89499998E+01  0.13199E+04
 0.89999990E+01  0.79113E+03
 0.90499992E+01 -0.29017E+03
 0.90999994E+01 -0.47481E+03
 0.91499996E+01 -0.13680E+03
 0.91999989E+01 -0.25381E+03
 0.92499990E+01 -0.30807E+03
 0.92999992E+01 -0.35458E+03
 0.93499994E+01 -0.29147E+03
 0.93999996E+01  0.13842E+03
 0.94499989E+01 -0.37983E+02
 0.94999990E+01 -0.61380E+03
 0.95499992E+01 -0.33598E+03
 0.95999994E+01 -0.22061E+03
 0.96499996E+01  0.18176E+02
 0.96999989E+01 -0.38844E+03
 0.97499990E+01  0.14342E+03
 0.97999992E+01  0.13335E+04
 0.98499994E+01  0.29687E+03
 0.98999996E+01 -0.41005E+03
 0.99499989E+01 -0.42986E+03
 0.99999990E+01 -0.56469E+03
 0.10049999E+02 -0.35810E+03
 0.10099999E+02 -0.39539E+03
 0.10150000E+02 -0.50961E+03
 0.10199999E+02 -0.35554E+03
 0.10249999E+02 -0.23265E+03
 0.10299999E+02 -0.42439E+03
 0.10349999E+02 -0.48453E+03
 0.10400000E+02 -0.39829E+03
 0.10449999E+02 -0.49534E+03
 0.10499999E+02 -0.31388E+03
 0.10549999E+02 -0.27427E+03
 0.10599999E+02 -0.25950E+03
 0.10650000E+02 -0.29294E+03
 0.10699999E+02 -0.44163E+03
 0.10749999E+02 -0.42963E+03
 0.10799999E+02 -0.17230E+03
 0.10849999E+02  0.73669E+03
 0.10900000E+02  0.32725E+03
 0.10949999E+02 -0.48019E+03
 0.10999999E+02 -0.36415E+03
 0.11049999E+02 -0.21991E+03
 0.11099999E+02 -0.12748E+03
 0.11150000E+02 -0.44240E+03
 0.11199999E+02 -0.33861E+03
 0.11249999E+02 -0.35087E+03
 0.11299999E+02 -0.31600E+03
 0.11349999E+02 -0.70398E+02
 0.11400000E+02 -0.33662E+02
 0.11449999E+02 -0.67093E+02
 0.11499999E+02 -0.18766E+03
 0.11549999E+02 -0.57315E+03
 0.11599999E+02 -0.56698E+03
 0.11650000E+02 -0.46688E+03
 0.11699999E+02 -0.42269E+03
 0.11749999E+02 -0.39799E+03
 0.11799999E+02 -0.40782E+03
 0.11849999E+02  0.78679E+03
 0.11900000E+02  0.55152E+03
 0.11949999E+02  0.42884E+03
 0.11999999E+02  0.61137E+03
 0.12049999E+02 -0.65937E+03
 0.12099999E+02 -0.71638E+03
 0.12150000E+02 -0.23391E+03
 0.12199999E+02 -0.42943E+03
 0.12249999E+02 -0.32390E+03
 0.12299999E+02 -0.51790E+03
 0.12349999E+02 -0.68266E+03
 0.12400000E+02 -0.81937E+03
 0.12449999E+02 -0.25855E+02
 0.12499999E+02  0.67065E+03
 0.12549999E+02  0.39525E+03
 0.12599999E+02  0.99102E+02
 0.12649999E+02 -0.54632E+03
 0.12699999E+02  0.10078E+03
 0.12749999E+02 -0.91053E+03
 0.12799999E+02 -0.14280E+04
 0.12849999E+02 -0.11442E+04
 0.12899999E+02 -0.17412E+04
 0.12949999E+02 -0.11958E+04
 0.12999999E+02 -0.83135E+03
 0.13049999E+02 -0.77928E+03
 0.13099999E+02 -0.64467E+03
 0.13149999E+02 -0.44650E+03
 0.13199999E+02 -0.33839E+03
 0.13249999E+02  0.76402E+03
 0.13299999E+02 -0.15078E+03
 0.13349999E+02 -0.10277E+04
 0.13399999E+02 -0.65755E+03
 0.13449999E+02 -0.97991E+03
 0.13499999E+02 -0.12468E+04
 0.13549999E+02 -0.12030E+04
 0.13599999E+02 -0.68110E+03
 0.13649999E+02 -0.11536E+03
 0.13699999E+02  0.77377E+03
 0.13749999E+02  0.31797E+02
 0.13799999E+02  0.47729E+03
 0.13849999E+02  0.11852E+03
 0.13899999E+02 -0.75900E+03
 0.13949999E+02  0.42718E+03
 0.13999999E+02  0.46376E+03
 0.14049999E+02  0.50937E+03
 0.14099998E+02  0.36656E+03
 0.14150000E+02 -0.62380E+03
 0.14199999E+02 -0.10578E+04
 0.14249998E+02  0.51719E+02
 0.14299999E+02  0.74860E+03
 0.14349998E+02  0.33864E+03
 0.14400000E+02  0.69383E+03
 0.14449999E+02  0.44249E+03
 0.14499998E+02 -0.71492E+03
 0.14549999E+02 -0.91386E+03
 0.14599998E+02 -0.10327E+04
 0.14650000E+02 -0.70695E+03
 0.14699999E+02 -0.26180E+03
 0.14749998E+02 -0.29219E+03
 0.14799999E+02 -0.51834E+03
 0.14849998E+02 -0.73373E+03
 0.14900000E+02 -0.80758E+03
 0.14949999E+02 -0.82186E+03
 0.14999998E+02 -0.83753E+03
 0.15049999E+02 -0.82464E+03
 0.15099998E+02 -0.91732E+03
 0.15150000E+02 -0.60459E+03
 0.15199999E+02  0.59613E+03
 0.15249998E+02  0.61622E+03
 0.15299999E+02 -0.44911E+03
 0.15349998E+02 -0.82455E+03
 0.15400000E+02 -0.48771E+03
 0.15449999E+02 -0.55721E+03
 0.15499998E+02 -0.48870E+03
 0.15549999E+02 -0.20197E+03
 0.15599998E+02 -0.14373E+03
 0.15650000E+02 -0.15338E+03
 0.15699999E+02 -0.65572E+02
 0.15749998E+02 -0.82764E+02
 0.15799999E+02 -0.17244E+03
 0.15849998E+02 -0.36579E+03
 0.15900000E+02 -0.61901E+03
 0.15949999E+02 -0.74215E+03
 0.15999998E+02 -0.79677E+03
 0.16049999E+02 -0.68200E+03
 0.16099998E+02 -0.60614E+03
 0.16150000E+02  0.27921E+03
 0.16199999E+02  0.77561E+03
 0.16249998E+02  0.77594E+03
 0.16299999E+02  0.87228E+03
 0.16349998E+02  0.19958E+03
 0.16400000E+02  0.28883E+03
 0.16449999E+02  0.41265E+03
 0.16499998E+02  0.32188E+03
 0.16549999E+02  0.57399E+03
 0.16599998E+02  0.11383E+03
 0.16650000E+02  0.50680E+03
 0.16699999E+02 -0.15724E+03
 0.16749998E+02 -0.11276E+04
 0.16799999E+02 -0.86066E+03
 0.16849998E+02 -0.10076E+04
 0.16900000E+02 -0.83883E+03
 0.16949999E+02 -0.79732E+03
 0.16999998E+02 -0.62034E+03
 0.17049999E+02 -0.71763E+03
 0.17099998E+02 -0.65231E+03
 0.17150000E+02 -0.63318E+03
 0.17199999E+02 -0.42814E+03
 0.17249998E+02 -0.49934E+03
 0.17299999E+02 -0.32725E+03
 0.17349998E+02 -0.45008E+03
 0.17400000E+02 -0.56056E+03
 0.17449999E+02  0.71308E+03
 0.17499998E+02  0.11078E+04
 0.17549999E+02  0.52358E+03
 0.17599998E+02 -0.79972E+03
 0.17650000E+02 -0.90753E+03
 0.17699999E+02 -0.77980E+03
 0.17749998E+02 -0.87435E+03
 0.17799999E+02 -0.66607E+03
 0.17849998E+02 -0.84310E+03
 0.17900000E+02 -0.44720E+03
 0.17949999E+02 -0.39894E+03
 0.17999998E+02 -0.47048E+03
 0.18049999E+02  0.55571E+03
 0.18099998E+02  0.10797E+04
 0.18150000E+02  0.41853E+03
 0.18199999E+02  0.69029E+03
 0.18249998E+02  0.12632E+04
 0.18299999E+02  0.97193E+03
 0.18349998E+02  0.10185E+04
 0.18400000E+02  0.10745E+04
 0.18449999E+02  0.63876E+03
 0.18499998E+02 -0.63253E+02
 0.18549999E+02 -0.59231E+03
 0.18599998E+02 -0.57572E+03
 0.18650000E+02 -0.48095E+03
 0.18699999E+02 -0.54075E+03
 0.18749998E+02 -0.53267E+03
 0.18799999E+02 -0.48483E+03
 0.18849998E+02 -0.64528E+03
 0.18900000E+02 -0.72536E+03
 0.18949999E+02 -0.69627E+03
 0.18999998E+02 -0.63225E+03
 0.19049999E+02 -0.64949E+03
 0.19099998E+02 -0.68921E+03
 0.19150000E+02 -0.67257E+03
 0.19199999E+02 -0.62054E+03
 0.19249998E+02 -0.44587E+03
 0.19299999E+02 -0.50113E+03
 0.19349998E+02 -0.16064E+03
 0.19400000E+02 -0.13532E+03
 0.19449999E+02  0.19317E+01
 0.19499998E+02 -0.31615E+03
 0.19549999E+02  0.82466E+02
 0.19599998E+02  0.12190E+04
 0.19650000E+02  0.48231E+03
 0.19699999E+02  0.61267E+03
 0.19749998E+02  0.63755E+03
 0.19799999E+02  0.83911E+03
 0.19849998E+02  0.58533E+03
 0.19900000E+02 -0.76709E+03
 0.19949999E+02 -0.34175E+03
 0.19999998E+02 -0.44564E+03
 0.20049999E+02 -0.78599E+02
 0.20099998E+02  0.12130E+04
 0.20150000E+02  0.82645E+03
 0.20199999E+02  0.62667E+03
 0.20249998E+02  0.89974E+03
 0.20299999E+02 -0.93920E+02
 0.20349998E+02 -0.58041E+03
 0.20399998E+02 -0.30032E+03
 0.20449999E+02 -0.35810E+03
 0.20499998E+02 -0.30506E+03
 0.20549999E+02 -0.38972E+03
 0.20599998E+02 -0.32071E+03
 0.20649998E+02 -0.32135E+03
 0.20699999E+02 -0.37293E+03
 0.20749998E+02 -0.32686E+03
 0.20799999E+02 -0.38692E+03
 0.20849998E+02 -0.30184E+03
 0.20899998E+02 -0.33588E+03
 0.20949999E+02 -0.14989E+03
 0.20999998E+02 -0.17696E+03
 0.21049999E+02 -0.39039E+03
 0.21099998E+02  0.10111E+04
 0.21149998E+02  0.82629E+03
 0.21199999E+02 -0.47000E+03
 0.21249998E+02 -0.27482E+03
 0.21299999E+02 -0.32921E+03
 0.21349998E+02 -0.30249E+03
 0.21399998E+02 -0.30928E+03
 0.21449999E+02 -0.23372E+03
 0.21499998E+02 -0.24148E+03
 0.21549999E+02 -0.13205E+03
 0.21599998E+02 -0.36032E+03
 0.21649998E+02 -0.51344E+03
 0.21699999E+02  0.66814E+03
 0.21749998E+02  0.13756E+04
 0.21799999E+02  0.64265E+03
 0.21849998E+02 -0.47322E+03
 0.21899998E+02 -0.42264E+03
 0.21949999E+02 -0.38237E+03
 0.21999998E+02 -0.30910E+03
 0.22049999E+02 -0.28631E+03
 0.22099998E+02 -0.30336E+03
 0.22149998E+02 -0.26528E+03
 0.22199999E+02 -0.17735E+03
 0.22249998E+02 -0.72642E+02
 0.22299999E+02 -0.38358E+03
 0.22349998E+02  0.90958E+03
 0.22399998E+02  0.12058E+04
 0.22449999E+02  0.55211E+03
 0.22499998E+02  0.78254E+03
 0.22549999E+02  0.67033E+03
 0.22599998E+02  0.96050E+03
 0.22649998E+02  0.35674E+03
 0.22699999E+02 -0.64588E+03
 0.22749998E+02 -0.48799E+03
 0.22799999E+02 -0.37631E+03
 0.22849998E+02 -0.36971E+03
 0.22899998E+02 -0.39921E+03
 0.22949999E+02 -0.40959E+03
 0.22999998E+02 -0.34309E+03
 0.23049999E+02 -0.32299E+03
 0.23099998E+02 -0.30393E+03
 0.23149998E+02 -0.32725E+03
 0.23199999E+02 -0.21128E+03
 0.23249998E+02 -0.12458E+03
 0.23299999E+02 -0.16025E+03
 0.23349998E+02 -0.27664E+03
 0.23399998E+02 -0.41178E+03
 0.23449999E+02 -0.34225E+03
 0.23499998E+02 -0.45821E+03
 0.23549999E+02  0.45014E+03
 0.23599998E+02  0.14660E+04
 0.23649998E+02  0.94294E+03
 0.23699999E+02  0.10897E+04
 0.23749998E+02  0.81959E+03
 0.23799999E+02 -0.38682E+03
 0.23849998E+02 -0.37212E+03
 0.23899998E+02 -0.27126E+03
 0.23949999E+02 -0.38138E+03
 0.23999998E+02 -0.33749E+03
 0.24049999E+02 -0.38723E+03
 0.24099998E+02 -0.35389E+03
 0.24149998E+02 -0.37871E+03
 0.24199999E+02 -0.38398E+03
 0.24249998E+02 -0.37642E+03
 0.24299999E+02 -0.33475E+03
 0.24349998E+02 -0.43663E+03
 0.24399998E+02 -0.25825E+03
 0.24449999E+02 -0.32088E+03
 0.24499998E+02 -0.20212E+03
 0.24549999E+02 -0.16943E+03
 0.24599998E+02 -0.22761E+03
 0.24649998E+02 -0.27531E+03
 0.24699999E+02 -0.30657E+03
 0.24749998E+02 -0.16973E+03
 0.24799999E+02 -0.50579E+03
 0.24849998E+02  0.53700E+03
 0.24899998E+02  0.14391E+04
 0.24949999E+02  0.84071E+03
 0.24999998E+02 -0.28199E+03
 0.25049999E+02 -0.55035E+03
 0.25099998E+02 -0.29254E+03
 0.25149998E+02 -0.34493E+03
 0.25199999E+02 -0.18491E+03
 0.25249998E+02 -0.18304E+03
 0.25299999E+02 -0.24360E+03
 0.25349998E+02 -0.20123E+03
 0.25399998E+02 -0.24874E+03
 0.25449999E+02 -0.30304E+03
 0.25499998E+02 -0.27805E+03
 0.25549999E+02 -0.37628E+03
 0.25599998E+02 -0.22988E+03
 0.25649998E+02 -0.11595E+03
 0.25699999E+02 -0.22344E+03
 0.25749998E+02 -0.28411E+03
 0.25799999E+02 -0.42635E+03
 0.25849998E+02 -0.43235E+03
 0.25899998E+02 -0.46881E+03
 0.25949999E+02 -0.47539E+03
 0.25999998E+02 -0.39146E+03
 0.26049999E+02 -0.36630E+03
 0.26099998E+02 -0.24804E+03
 0.26149998E+02 -0.26246E+03
 0.26199999E+02 -0.35413E+03
 0.26249998E+02 -0.32055E+03
 0.26299999E+02 -0.29389E+03
 0.26349998E+02 -0.37695E+03
 0.26399998E+02 -0.43930E+03
 0.26449999E+02 -0.40622E+03
 0.26499998E+02 -0.37932E+03
 0.26549999E+02 -0.33321E+03
 0.26599998E+02 -0.28062E+03
 0.26649998E+02 -0.17733E+03
 0.26699999E+02  0.14668E+02
 0.26749998E+02 -0.19997E+03
 0.26799999E+02 -0.35037E+03
 0.26849998E+02 -0.39472E+03
 0.26899998E+02 -0.28491E+03
 0.26949999E+02 -0.14725E+03
 0.26999998E+02 -0.28855E+03
 0.27049997E+02 -0.16825E+03
 0.27099998E+02 -0.24546E+03
 0.27149998E+02 -0.47871E+03
 0.27199999E+02 -0.16699E+03
 0.27249998E+02  0.11754E+03
 0.27299997E+02 -0.27768E+03
 0.27349998E+02 -0.42073E+03
 0.27399998E+02 -0.33338E+03
 0.27449999E+02 -0.30826E+03
 0.27499998E+02 -0.30102E+03
 0.27549997E+02 -0.26091E+03
 0.27599998E+02 -0.24052E+03
 0.27649998E+02 -0.36341E+03
 0.27699999E+02 -0.40478E+03
 0.27749998E+02 -0.41460E+03
 0.27799997E+02 -0.44548E+03
 0.27849998E+02 -0.53584E+03
 0.27899998E+02 -0.47191E+03
 0.27949999E+02 -0.50823E+03
 0.27999998E+02 -0.58001E+03
 0.28049997E+02 -0.56682E+03
 0.28099998E+02 -0.49737E+03
 0.28149998E+02 -0.49876E+03
 0.28199999E+02 -0.48709E+03
 0.28249998E+02 -0.42420E+03
 0.28299997E+02 -0.37929E+03
 0.28349998E+02 -0.44726E+03
 0.28399998E+02 -0.42361E+03
 0.28449999E+02 -0.38985E+03
 0.28499998E+02 -0.13450E+03
 0.28549997E+02 -0.37734E+03
 0.28599998E+02  0.36076E+02
 0.28649998E+02  0.14125E+04
 0.28699999E+02  0.10603E+04
 0.28749998E+02  0.12252E+04
 0.28799997E+02  0.83722E+03
 0.28849998E+02 -0.31932E+03
 0.28899998E+02 -0.44700E+03
 0.28949999E+02 -0.40900E+03
 0.28999998E+02  0.40361E+03
 0.29049997E+02  0.12992E+04
 0.29099998E+02  0.11070E+04
 0.29149998E+02 -0.18457E+03
 0.29199999E+02 -0.55452E+03
 0.29249998E+02 -0.39039E+03
 0.29299997E+02 -0.49232E+03
 0.29349998E+02 -0.49428E+03
 0.29399998E+02 -0.54436E+03
 0.29449999E+02 -0.47164E+03
 0.29499998E+02 -0.46610E+03
 0.29549997E+02 -0.44844E+03
 0.29599998E+02 -0.49262E+03
 0.29649998E+02 -0.46853E+03
 0.29699999E+02 -0.51839E+03
 0.29749998E+02 -0.45142E+03
 0.29799997E+02 -0.39259E+03
 0.29849998E+02 -0.35535E+03
 0.29899998E+02 -0.23733E+03
 0.29949999E+02 -0.26765E+03
 0.29999998E+02 -0.19972E+03
 0.30049999E+02 -0.14936E+03
 0.30099998E+02 -0.19730E+03
 0.30149998E+02 -0.16986E+03
 0.30199997E+02 -0.65215E+02
 0.30249996E+02 -0.11742E+03
 0.30299999E+02 -0.10929E+03
 0.30349998E+02  0.32923E+02
 0.30399998E+02 -0.16484E+02
 0.30449997E+02 -0.69628E+02
 0.30499996E+02 -0.17199E+03
 0.30549999E+02 -0.38475E+03
 0.30599998E+02 -0.32904E+03
 0.30649998E+02 -0.27734E+03
 0.30699997E+02 -0.35724E+03
 0.30749996E+02 -0.37531E+03
 0.30799999E+02 -0.38067E+03
 0.30849998E+02 -0.35842E+03
 0.30899998E+02 -0.34112E+03
 0.30949997E+02 -0.23807E+03
 0.30999996E+02 -0.25736E+03
 0.31049999E+02 -0.35486E+03
 0.31099998E+02 -0.39393E+03
 0.31149998E+02 -0.38623E+03
 0.31199997E+02 -0.36044E+03
 0.31249996E+02 -0.39040E+03
 0.31299999E+02 -0.34922E+03
 0.31349998E+02 -0.23756E+03
 0.31399998E+02 -0.24534E+03
 0.31449997E+02 -0.16473E+03
 0.31499996E+02 -0.30842E+02
 0.31549999E+02 -0.27786E+03
 0.31599998E+02 -0.27596E+03
 0.31649998E+02  0.21291E+03
 0.31699997E+02  0.58352E+03
 0.31749996E+02  0.93327E+02
 0.31799999E+02 -0.38773E+03
 0.31849998E+02 -0.27405E+03
 0.31899998E+02 -0.12712E+03
 0.31949997E+02 -0.12689E+02
 0.31999996E+02  0.26755E+00
 0.32049999E+02  0.33710E+02
 0.32099998E+02  0.45985E+02
 0.32149998E+02  0.74110E+02
 0.32199997E+02  0.78731E+02
 0.32249996E+02  0.71513E+02
 0.32299999E+02  0.64447E+02
 0.32349998E+02  0.65698E+02
 0.32399998E+02  0.41022E+02
 0.32449997E+02 -0.68423E+02
 0.32499996E+02 -0.25205E+03
 0.32549999E+02 -0.33666E+03
 0.32599998E+02 -0.35081E+03
 0.32649998E+02 -0.28605E+03
 0.32699997E+02 -0.21824E+03
 0.32749996E+02 -0.20521E+03
 0.32799999E+02 -0.23212E+03
 0.32849998E+02 -0.26829E+03
 0.32899998E+02 -0.35198E+03
 0.32949997E+02 -0.41266E+03
 0.32999996E+02 -0.41591E+03
 0.33049999E+02 -0.44794E+03
 0.33099998E+02 -0.38025E+03
 0.33149998E+02 -0.36417E+03
 0.33199997E+02 -0.34476E+03
 0.33249996E+02 -0.30228E+03
 0.33299999E+02 -0.23313E+03
 0.33349998E+02 -0.22226E+03
 0.33399998E+02 -0.12149E+03
 0.33449997E+02 -0.11855E+03
 0.33499996E+02 -0.36360E+03
 0.33549999E+02  0.70759E+02
 0.33599998E+02  0.96518E+03
 0.33649998E+02  0.14905E+04
 0.33699997E+02  0.80302E+03
 0.33749996E+02 -0.20906E+03
 0.33799999E+02 -0.22615E+03
 0.33849998E+02 -0.16547E+03
 0.33899998E+02 -0.16154E+03
 0.33949997E+02 -0.22757E+03
 0.33999996E+02 -0.25284E+03
 0.34049999E+02 -0.23298E+03
 0.34099998E+02 -0.30509E+03
 0.34149998E+02 -0.29236E+03
 0.34199997E+02 -0.25172E+03
 0.34249996E+02 -0.21052E+03
 0.34299999E+02 -0.22170E+03
 0.34349998E+02 -0.16971E+03
 0.34399998E+02 -0.16719E+03
 0.34449997E+02 -0.19341E+03
 0.34499996E+02 -0.20667E+03
 0.34549999E+02 -0.15339E+03
 0.34599998E+02 -0.17387E+03
 0.34649998E+02 -0.15633E+03
 0.34699997E+02 -0.11636E+03
 0.34749996E+02 -0.17141E+03
 0.34799999E+02 -0.65002E+02
 0.34849998E+02 -0.16838E+03
 0.34899998E+02 -0.29056E+03
 0.34949997E+02 -0.29849E+03
 0.34999996E+02 -0.33663E+03
 0.35049999E+02 -0.32354E+03
 0.35099998E+02 -0.10787E+03
 0.35149998E+02 -0.49421E+02
 0.35199997E+02 -0.14926E+03
 0.35249996E+02 -0.17515E+03
 0.35299999E+02 -0.28165E+03
 0.35349998E+02 -0.28487E+03
 0.35399998E+02 -0.30830E+03
 0.35449997E+02 -0.30471E+03
 0.35499996E+02 -0.31668E+03
 0.35549999E+02 -0.29267E+03
 0.35599998E+02 -0.19256E+03
 0.35649998E+02 -0.16313E+03
 0.35699997E+02 -0.18359E+03
 0.35749996E+02 -0.11889E+03
 0.35799999E+02 -0.14335E+03
 0.35849998E+02 -0.13128E+03
 0.35899998E+02 -0.95402E+02
 0.35949997E+02 -0.99789E+01
 0.35999996E+02  0.13715E+02
 0.36049999E+02 -0.12341E+02
 0.36099998E+02  0.33483E+02
 0.36149998E+02 -0.60448E+02
 0.36199997E+02 -0.18444E+03
 0.36249996E+02 -0.29207E+03
 0.36299999E+02 -0.32312E+03
 0.36349998E+02 -0.40272E+03
 0.36399998E+02 -0.22741E+03
 0.36449997E+02  0.22623E+03
 0.36499996E+02  0.51095E+03
 0.36549999E+02  0.17299E+03
 0.36599998E+02 -0.32589E+03
 0.36649998E+02 -0.31594E+03
 0.36699997E+02 -0.13673E+03
 0.36749996E+02  0.16492E+02
 0.36799999E+02 -0.16715E+03
 0.36849998E+02 -0.32543E+03
 0.36899998E+02 -0.37583E+03
 0.36949997E+02 -0.29966E+03
 0.36999996E+02 -0.14265E+03
 0.37049999E+02 -0.16644E+03
 0.37099998E+02 -0.15752E+03
 0.37149998E+02 -0.12123E+03
 0.37199997E+02 -0.88745E+02
 0.37249996E+02 -0.73608E+02
 0.37299999E+02 -0.11036E+03
 0.37349998E+02 -0.22704E+03
 0.37399998E+02 -0.22243E+03
 0.37449997E+02 -0.24349E+03
 0.37499996E+02 -0.27866E+03
 0.37549999E+02 -0.27506E+03
 0.37599998E+02 -0.29604E+03
 0.37649998E+02 -0.29726E+03
 0.37699997E+02 -0.26439E+03
 0.37749996E+02 -0.26618E+03
 0.37799999E+02 -0.17593E+03
 0.37849998E+02 -0.19664E+03
 0.37899998E+02 -0.23602E+03
 0.37949997E+02 -0.96828E+02
 0.37999996E+02 -0.14007E+03
 0.38049999E+02 -0.16090E+03
 0.38099998E+02 -0.21273E+03
 0.38149998E+02 -0.38316E+02
 0.38199997E+02  0.72557E+02
 0.38249996E+02 -0.18644E+03
 0.38299999E+02 -0.31608E+03
 0.38349998E+02 -0.28040E+03
 0.38399998E+02 -0.23620E+03
 0.38449997E+02 -0.31169E+03
 0.38499996E+02 -0.33722E+03
 0.38549999E+02 -0.31455E+03
 0.38599998E+02 -0.20623E+03
 0.38649998E+02 -0.20836E+03
 0.38699997E+02 -0.34544E+03
 0.38749996E+02 -0.33277E+03
 0.38799999E+02 -0.12044E+03
 0.38849998E+02 -0.60115E+02
 0.38899998E+02 -0.33161E+03
 0.38949997E+02 -0.25349E+03
 0.38999996E+02 -0.21083E+03
 0.39049999E+02 -0.24120E+03
 0.39099998E+02 -0.20263E+03
 0.39149998E+02 -0.29225E+03
 0.39199997E+02 -0.26502E+03
 0.39249996E+02 -0.29346E+03
 0.39299999E+02 -0.28269E+03
 0.39349998E+02 -0.25536E+03
 0.39399998E+02 -0.25603E+03
 0.39449997E+02 -0.30724E+03
 0.39499996E+02 -0.31013E+03
 0.39549999E+02 -0.33773E+03
 0.39599998E+02 -0.32764E+03
 0.39649998E+02 -0.26473E+03
 0.39699997E+02 -0.25180E+03
 0.39749996E+02 -0.19445E+03
 0.39799999E+02 -0.18455E+03
 0.39849998E+02 -0.15845E+03
 0.39899998E+02 -0.15797E+03
 0.39949997E+02 -0.92545E+02
 0.39999996E+02 -0.95635E+02
 0.40049999E+02 -0.48081E+02
 0.40099998E+02 -0.91762E+02
 0.40149998E+02 -0.61300E+02
 0.40199997E+02 -0.36620E+02
 0.40249996E+02 -0.31318E+03
 0.40299999E+02 -0.26969E+03
 0.40349998E+02  0.24056E+02
 0.40399998E+02  0.14846E+03
 0.40449997E+02 -0.10293E+03
 0.40499996E+02 -0.34589E+03
 0.40549999E+02 -0.15179E+03
 0.40599998E+02 -0.10408E+03
 0.40649998E+02 -0.18110E+03
 0.40699997E+02  0.31408E+02
 0.40749996E+02  0.56260E+02
 0.40799999E+02  0.79483E+02
 0.40849998E+02  0.92860E+02
 0.40899998E+02  0.83654E+02
 0.40949997E+02  0.99746E+02
 0.40999996E+02  0.87916E+02
 0.41049999E+02  0.10136E+03
 0.41099998E+02  0.90772E+02
 0.41149998E+02  0.95035E+02
 0.41199997E+02  0.89185E+02
 0.41249996E+02  0.97286E+02
 0.41299999E+02  0.97044E+02
 0.41349998E+02  0.10075E+03
 0.41399998E+02  0.93763E+02
 0.41449997E+02  0.10373E+03
 0.41499996E+02  0.10582E+03
 0.41549999E+02  0.10727E+03
 0.41599998E+02  0.10630E+03
 0.41649998E+02  0.99582E+02
 0.41699997E+02  0.10538E+03
 0.41749996E+02  0.10613E+03
 0.41799999E+02  0.11009E+03
 0.41849998E+02  0.10729E+03
 0.41899998E+02  0.82639E+02
 0.41949997E+02  0.14543E+02
 0.41999996E+02 -0.14099E+03
 0.42049999E+02 -0.25301E+03
 0.42099998E+02 -0.23985E+03
 0.42149998E+02 -0.15985E+03
 0.42199997E+02 -0.10343E+03
 0.42249996E+02 -0.13234E+03
 0.42299999E+02 -0.16300E+03
 0.42349998E+02 -0.13836E+03
 0.42399998E+02 -0.16741E+03
 0.42449997E+02 -0.31942E+03
 0.42499996E+02 -0.41922E+03
 0.42549999E+02 -0.42499E+03
 0.42599998E+02 -0.43621E+03
 0.42649998E+02 -0.31149E+03
 0.42699997E+02 -0.27421E+03
 0.42749996E+02 -0.25577E+03
 0.42799995E+02 -0.26234E+03
 0.42849998E+02 -0.20342E+03
 0.42899998E+02 -0.16139E+03
 0.42949997E+02 -0.17015E+03
 0.42999996E+02 -0.12031E+03
 0.43049995E+02 -0.14598E+03
 0.43099998E+02 -0.77315E+02
 0.43149998E+02 -0.19255E+03
 0.43199997E+02 -0.20590E+02
 0.43249996E+02  0.10118E+03
 0.43299995E+02  0.69059E+02
 0.43349998E+02  0.10607E+03
 0.43399998E+02  0.86630E+02
 0.43449997E+02  0.11403E+03
 0.43499996E+02  0.96469E+02
 0.43549995E+02  0.10484E+03
 0.43599998E+02  0.95019E+02
 0.43649998E+02  0.10371E+03
 0.43699997E+02  0.92970E+02
 0.43749996E+02  0.97962E+02
 0.43799995E+02  0.89602E+02
 0.43849998E+02  0.10206E+03
 0.43899998E+02  0.41503E+02
 0.43949997E+02 -0.15294E+03
 0.43999996E+02 -0.30925E+03
 0.44049995E+02 -0.32499E+03
 0.44099998E+02 -0.34719E+03
 0.44149998E+02 -0.17205E+03
 0.44199997E+02 -0.16231E+03
 0.44249996E+02 -0.14717E+03
 0.44299995E+02  0.32885E+02
 0.44349998E+02  0.42338E+02
 0.44399998E+02  0.87978E+01
 0.44449997E+02 -0.16530E+03
 0.44499996E+02 -0.26060E+03
 0.44549995E+02 -0.30062E+03
 0.44599998E+02 -0.13889E+03
 0.44649998E+02 -0.12184E+03
 0.44699997E+02 -0.67414E+02
 0.44749996E+02 -0.77976E+02
 0.44799995E+02 -0.15707E+03
 0.44849998E+02 -0.64455E+02
 0.44899998E+02 -0.12755E+03
 0.44949997E+02 -0.10797E+03
 0.44999996E+02 -0.12735E+03
 0.45049995E+02 -0.62504E+02
 0.45099998E+02  0.46300E+02
 0.45149998E+02  0.79857E+02
 0.45199997E+02  0.82003E+02
 0.45249996E+02  0.85717E+02
 0.45299995E+02  0.86881E+02
 0.45349998E+02  0.91317E+02
 0.45399998E+02  0.10134E+03
 0.45449997E+02  0.10527E+03
 0.45499996E+02  0.10817E+03
 0.45549995E+02  0.89285E+02
 0.45599998E+02  0.77162E+02
 0.45649998E+02  0.71236E+02
 0.45699997E+02  0.59945E+02
 0.45749996E+02  0.68140E+02
 0.45799995E+02  0.74145E+02
 0.45849998E+02  0.79017E+02
 0.45899998E+02  0.41375E+02
 0.45949997E+02 -0.15160E+03
 0.45999996E+02 -0.33054E+03
 0.46049995E+02 -0.31719E+03
 0.46099998E+02 -0.25574E+03
 0.46149998E+02 -0.29689E+03
 0.46199997E+02 -0.36761E+03
 0.46249996E+02 -0.31363E+03
 0.46299995E+02 -0.93563E+02
 0.46349998E+02  0.58575E+02
 0.46399998E+02 -0.90671E+01
 0.46449997E+02 -0.17207E+03
 0.46499996E+02 -0.25285E+03
 0.46549995E+02 -0.23677E+03
 0.46599998E+02 -0.46999E+02
 0.46649998E+02  0.25122E+02
 0.46699997E+02  0.21551E+02
 0.46749996E+02  0.79626E+02
 0.46799995E+02  0.69620E+02
 0.46849998E+02  0.95575E+02
 0.46899998E+02  0.74824E+02
 0.46949997E+02  0.71004E+02
 0.46999996E+02  0.60242E+02
 0.47049995E+02  0.56225E+02
 0.47099998E+02  0.51675E+02
 0.47149998E+02  0.44448E+02
 0.47199997E+02  0.39181E+02
 0.47249996E+02  0.30741E+02
 0.47299995E+02  0.34197E+02
 0.47349998E+02  0.38038E+02
 0.47399998E+02  0.58596E+02
 0.47449997E+02  0.76062E+02
 0.47499996E+02  0.87010E+02
 0.47549995E+02  0.86731E+02
 0.47599998E+02  0.87545E+02
 0.47649998E+02  0.88936E+02
 0.47699997E+02  0.91045E+02
 0.47749996E+02  0.86466E+02
 0.47799995E+02  0.83487E+02
 0.47849998E+02  0.79672E+02
 0.47899998E+02  0.74339E+02
 0.47949997E+02  0.71611E+02
 0.47999996E+02  0.74530E+02
 0.48049995E+02  0.65622E+02
 0.48099998E+02  0.73180E+02
 0.48149998E+02  0.74553E+02
 0.48199997E+02  0.42188E+02
 0.48249996E+02 -0.14238E+03
 0.48299995E+02 -0.32178E+03
 0.48349998E+02 -0.28137E+03
 0.48399998E+02 -0.12785E+03
 0.48449997E+02 -0.16404E+03
 0.48499996E+02 -0.35506E+03
 0.48549995E+02 -0.23674E+03
 0.48599998E+02 -0.10128E+03
 0.48649998E+02 -0.19440E+02
 0.48699997E+02  0.12640E+02
 0.48749996E+02 -0.10138E+02
 0.48799995E+02  0.27932E+02
 0.48849998E+02  0.30073E+02
 0.48899998E+02  0.34804E+02
 0.48949997E+02  0.31282E+02
 0.48999996E+02  0.33660E+02
 0.49049995E+02  0.41476E+02
 0.49099998E+02  0.42225E+02
 0.49149998E+02  0.45308E+02
 0.49199997E+02  0.58623E+02
 0.49249996E+02  0.69273E+02
 0.49299995E+02  0.72639E+02
 0.49349998E+02  0.64501E+02
 0.49399998E+02  0.71925E+02
 0.49449997E+02 -0.12966E+02
 0.49499996E+02 -0.20506E+03
 0.49549995E+02 -0.30810E+03
 0.49599998E+02 -0.34784E+03
 0.49649998E+02 -0.33897E+03
 0.49699997E+02 -0.11864E+03
 0.49749996E+02 -0.12969E+03
 0.49799995E+02 -0.14233E+03
 0.49849998E+02 -0.11717E+03
 0.49899998E+02 -0.15259E+03
 0.49949997E+02 -0.61830E+02
 0.49999996E+02 -0.78758E+02
 0.50049995E+02  0.29040E+02
 0.50099998E+02  0.66934E+02
 0.50149998E+02  0.64388E+01
 0.50199997E+02  0.36488E+02
 0.50249996E+02  0.73840E+02
 0.50299995E+02  0.66247E+02
 0.50349998E+02  0.74540E+02
 0.50399998E+02  0.78008E+02
 0.50449997E+02  0.74101E+02
 0.50499996E+02  0.80621E+02
 0.50549995E+02  0.71485E+02
 0.50599998E+02  0.77838E+02
 0.50649998E+02  0.78672E+02
 0.50699997E+02  0.82938E+02
 0.50749996E+02  0.85894E+02
 0.50799995E+02  0.91550E+02
 0.50849998E+02  0.89708E+02
 0.50899998E+02  0.90206E+02
 0.50949997E+02  0.87004E+02
 0.50999996E+02  0.79538E+02
 0.51049995E+02  0.76740E+02
 0.51099998E+02  0.77248E+02
 0.51149998E+02  0.84510E+02
 0.51199997E+02  0.83156E+02
 0.51249996E+02  0.80143E+02
 0.51299995E+02  0.83027E+02
 0.51349998E+02  0.89378E+02
 0.51399998E+02  0.90573E+02
 0.51449997E+02  0.93950E+02
 0.51499996E+02  0.97348E+02
 0.51549995E+02  0.90505E+02
 0.51599998E+02  0.77472E+02
 0.51649998E+02  0.72066E+02
 0.51699997E+02  0.75044E+02
 0.51749996E+02  0.70384E+02
 0.51799995E+02  0.70003E+02
 0.51849998E+02  0.72400E+02
 0.51899998E+02  0.75441E+02
 0.51949997E+02  0.70327E+02
 0.51999996E+02  0.65545E+02
 0.52049995E+02  0.64999E+02
 0.52099998E+02  0.65984E+02
 0.52149998E+02  0.70211E+02
 0.52199997E+02  0.72256E+02
 0.52249996E+02  0.73208E+02
 0.52299995E+02  0.80432E+02
 0.52349998E+02  0.91499E+02
 0.52399998E+02  0.87083E+02
 0.52449997E+02  0.79203E+02
 0.52499996E+02  0.77562E+02
 0.52549995E+02  0.61457E+02
 0.52599998E+02  0.54462E+02
 0.52649998E+02  0.61624E+02
 0.52699997E+02  0.52382E+02
 0.52749996E+02  0.59572E+02
 0.52799995E+02  0.64367E+02
 0.52849998E+02  0.75647E+02
 0.52899998E+02 -0.52909E+02
 0.52949997E+02 -0.23249E+03
 0.52999996E+02 -0.33216E+03
 0.53049995E+02 -0.34944E+03
 0.53099998E+02 -0.37066E+03
 0.53149998E+02 -0.29294E+03
 0.53199997E+02 -0.88904E+02
 0.53249996E+02 -0.21897E+02
 0.53299995E+02  0.61132E+02
 0.53349998E+02  0.11681E+02
 0.53399998E+02 -0.70893E+02
 0.53449997E+02 -0.10493E+03
 0.53499996E+02 -0.16648E+03
 0.53549995E+02 -0.19360E+03
 0.53599998E+02 -0.17861E+03
 0.53649998E+02 -0.49689E+02
 0.53699997E+02  0.47840E+02
 0.53749996E+02  0.80441E+02
 0.53799995E+02  0.87483E+02
 0.53849998E+02  0.75153E+02
 0.53899998E+02  0.75265E+02
 0.53949997E+02  0.72593E+02
 0.53999996E+02  0.75325E+02
 0.54049995E+02  0.73067E+02
 0.54099998E+02  0.71269E+02
 0.54149998E+02  0.69526E+02
 0.54199997E+02  0.73722E+02
 0.54249996E+02  0.74052E+02
 0.54299995E+02  0.78343E+02
 0.54349998E+02  0.86583E+02
 0.54399998E+02  0.81961E+02
 0.54449997E+02  0.28359E+02
 0.54499996E+02 -0.10839E+03
 0.54549995E+02 -0.24157E+03
 0.54599998E+02 -0.31440E+03
 0.54649998E+02 -0.34007E+03
 0.54699997E+02 -0.36413E+03
 0.54749996E+02 -0.34622E+03
 0.54799995E+02 -0.33098E+03
 0.54849998E+02 -0.97387E+02
 0.54899998E+02 -0.67847E+01
 0.54949997E+02 -0.19523E+03
 0.54999996E+02 -0.27900E+03
 0.55049995E+02 -0.23216E+03
 0.55099998E+02 -0.80826E+02
 0.55149998E+02 -0.52546E+02
 0.55199997E+02 -0.80760E+02
 0.55249996E+02 -0.14662E+02
 0.55299995E+02  0.77123E+02
 0.55349998E+02  0.74738E+02
 0.55399998E+02  0.72700E+02
 0.55449997E+02  0.74606E+02
 0.55499996E+02  0.80118E+02
 0.55549995E+02  0.71485E+02
 0.55599998E+02  0.64941E+02
 0.55649998E+02  0.77918E+02
 0.55699997E+02  0.85430E+02
 0.55749996E+02  0.92822E+02
 0.55799995E+02  0.92158E+02
 0.55849995E+02  0.95691E+02
 0.55899998E+02  0.94117E+02
 0.55949997E+02  0.93541E+02
 0.55999996E+02  0.89040E+02
 0.56049995E+02  0.81495E+02
 0.56099995E+02  0.82099E+02
 0.56149998E+02  0.75946E+02
 0.56199997E+02  0.88758E+02
 0.56249996E+02  0.60832E+02
 0.56299995E+02 -0.96875E+02
 0.56349995E+02 -0.27445E+03
 0.56399998E+02 -0.32638E+03
 0.56449997E+02 -0.32991E+03
 0.56499996E+02 -0.31403E+03
 0.56549995E+02 -0.37070E+03
 0.56599995E+02 -0.26242E+03
 0.56649998E+02 -0.92954E+02
 0.56699997E+02 -0.18633E+03
 0.56749996E+02 -0.20881E+03
 0.56799995E+02 -0.20695E+03
 0.56849995E+02 -0.17821E+03
 0.56899998E+02 -0.74877E+02
 0.56949997E+02 -0.70575E+01
 0.56999996E+02 -0.26217E+02
 0.57049995E+02 -0.20450E+02
 0.57099995E+02  0.14304E+01
 0.57149998E+02  0.58594E+01
 0.57199997E+02  0.20227E+02
 0.57249996E+02  0.20661E+02
 0.57299995E+02  0.25161E+02
 0.57349995E+02  0.31072E+02
 0.57399998E+02  0.28118E+02
 0.57449997E+02  0.27056E+02
 0.57499996E+02  0.34583E+02
 0.57549995E+02  0.32420E+02
 0.57599995E+02  0.45028E+02
 0.57649998E+02  0.54347E+02
 0.57699997E+02  0.61244E+02
 0.57749996E+02  0.69436E+02
 0.57799995E+02  0.75476E+02
 0.57849995E+02  0.80483E+02
 0.57899998E+02  0.73949E+02
 0.57949997E+02  0.78834E+02
 0.57999996E+02  0.77183E+02
 0.58049995E+02  0.45791E+02
 0.58099995E+02 -0.75423E+02
 0.58149998E+02 -0.22905E+03
 0.58199997E+02 -0.29687E+03
 0.58249996E+02 -0.32597E+03
 0.58299995E+02 -0.32475E+03
 0.58349995E+02 -0.28421E+03
 0.58399998E+02 -0.77261E+02
 0.58449997E+02  0.52129E+02
 0.58499996E+02  0.65368E+01
 0.58549995E+02 -0.38440E+02
 0.58599995E+02 -0.13418E+03
 0.58649998E+02 -0.22225E+03
 0.58699997E+02 -0.27091E+03
 0.58749996E+02 -0.27880E+03
 0.58799995E+02 -0.28330E+03
 0.58849995E+02 -0.20515E+03
 0.58899998E+02 -0.44738E+02
 0.58949997E+02  0.44038E+02
 0.58999996E+02 -0.75638E+02
 0.59049995E+02 -0.22312E+03
 0.59099995E+02 -0.28842E+03
 0.59149998E+02 -0.26921E+03
 0.59199997E+02 -0.84372E+02
 0.59249996E+02 -0.16120E+03
 0.59299995E+02 -0.18256E+03
 0.59349995E+02 -0.67672E+02
 0.59399998E+02 -0.88816E+02
 0.59449997E+02  0.58299E+01
 0.59499996E+02  0.70605E+02
 0.59549995E+02  0.72207E+02
 0.59599995E+02  0.66477E+02
 0.59649998E+02  0.70814E+02
 0.59699997E+02  0.75179E+02
 0.59749996E+02  0.70395E+02
 0.59799995E+02  0.70625E+02
 0.59849995E+02  0.73018E+02
 0.59899998E+02  0.63496E+02
 0.59949997E+02  0.54944E+02
 0.59999996E+02 -0.35658E+02
 0.60049995E+02 -0.13708E+03
 0.60099995E+02 -0.19213E+03
 0.60149998E+02 -0.93794E+02
 0.60199997E+02  0.34955E+02
 0.60249996E+02  0.19346E+02
 0.60299995E+02  0.67060E+02
 0.60349995E+02  0.73879E+02
 0.60399998E+02  0.84513E+02
 0.60449997E+02  0.99528E+02
 0.60499996E+02  0.91776E+02
 0.60549995E+02  0.86832E+02
 0.60599995E+02  0.78121E+02
 0.60649998E+02  0.79527E+02
 0.60699997E+02  0.63821E+02
 0.60749996E+02  0.67243E+02
 0.60799995E+02  0.68513E+02
 0.60849995E+02  0.70321E+02
 0.60899998E+02  0.73840E+02
 0.60949997E+02  0.72036E+02
 0.60999996E+02  0.73111E+02
 0.61049995E+02  0.72258E+02
 0.61099995E+02  0.74723E+02
 0.61149998E+02  0.80122E+02
 0.61199997E+02  0.78986E+02
 0.61249996E+02  0.85459E+02
 0.61299995E+02  0.85585E+02
 0.61349995E+02  0.95560E+02
 0.61399998E+02  0.10287E+03
 0.61449997E+02  0.11274E+03
 0.61499996E+02  0.11393E+03
 0.61549995E+02  0.10763E+03
 0.61599995E+02  0.11227E+03
 0.61649998E+02  0.95473E+02
 0.61699997E+02  0.85627E+02
 0.61749996E+02  0.79544E+02
 0.61799995E+02  0.66292E+02
 0.61849995E+02  0.57750E+02
 0.61899998E+02  0.43206E+02
 0.61949997E+02  0.35463E+02
 0.61999996E+02  0.30610E+02
 0.62049995E+02  0.25127E+02
 0.62099998E+02  0.23718E+02
 0.62149994E+02  0.26154E+02
 0.62199997E+02  0.33593E+02
 0.62249992E+02  0.38814E+02
 0.62299995E+02  0.45680E+02
 0.62349998E+02  0.50887E+02
 0.62399994E+02  0.31074E+02
 0.62449997E+02 -0.32979E+02
 0.62499992E+02 -0.14991E+03
 0.62549995E+02 -0.26125E+03
 0.62599998E+02 -0.27825E+03
 0.62649994E+02 -0.24780E+03
 0.62699997E+02 -0.79962E+02
 0.62749992E+02  0.28707E+02
 0.62799995E+02 -0.84381E+02
 0.62849998E+02 -0.17289E+03
 0.62899994E+02 -0.15811E+03
 0.62949997E+02 -0.13042E+02
 0.62999992E+02  0.34852E+02
 0.63049995E+02 -0.39060E+02
 0.63099998E+02  0.71614E+01
 0.63149994E+02  0.77509E+02
 0.63199997E+02  0.64089E+02
 0.63249992E+02  0.82661E+02
 0.63299995E+02  0.10066E+03
 0.63349998E+02  0.10116E+03
 0.63399994E+02  0.96844E+02
 0.63449997E+02  0.90893E+02
 0.63499992E+02  0.91606E+02
 0.63549995E+02  0.86251E+02
 0.63599998E+02  0.87942E+02
 0.63649994E+02  0.80599E+02
 0.63699997E+02  0.80452E+02
 0.63749992E+02  0.74024E+02
 0.63799995E+02  0.73154E+02
 0.63849998E+02  0.81121E+02
 0.63899994E+02  0.92974E+02
 0.63949997E+02  0.90891E+02
 0.63999992E+02  0.87277E+02
 0.64049995E+02  0.86162E+02
 0.64099998E+02  0.84548E+02
 0.64149994E+02  0.85659E+02
 0.64199997E+02  0.85824E+02
 0.64249992E+02  0.84444E+02
 0.64299995E+02  0.81499E+02
 0.64349998E+02  0.82733E+02
 0.64399994E+02  0.78472E+02
 0.64449997E+02  0.83917E+02
 0.64499992E+02  0.90922E+02
 0.64549995E+02  0.85320E+02
 0.64599998E+02  0.87693E+02
 0.64649994E+02  0.94780E+02
 0.64699997E+02  0.93587E+02
 0.64749992E+02  0.89369E+02
 0.64799995E+02  0.86073E+02
 0.64849998E+02  0.82255E+02
 0.64899994E+02  0.76643E+02
 0.64949997E+02  0.74263E+02
 0.64999992E+02  0.76099E+02
 0.65049995E+02  0.36374E+02
 0.65099998E+02 -0.63321E+02
 0.65149994E+02 -0.19698E+03
 0.65199997E+02 -0.25882E+03
 0.65249992E+02 -0.26444E+03
 0.65299995E+02 -0.22282E+03
 0.65349998E+02 -0.93879E+02
 0.65399994E+02  0.39687E+02
 0.65449997E+02  0.72421E+02
 0.65499992E+02  0.22412E+02
 0.65549995E+02  0.51711E+02
 0.65599998E+02  0.90668E+02
 0.65649994E+02  0.85299E+02
 0.65699997E+02  0.89619E+02
 0.65749992E+02  0.89029E+02
 0.65799995E+02  0.81913E+02
 0.65849998E+02  0.86706E+02
 0.65899994E+02  0.85314E+02
 0.65949997E+02  0.84661E+02
 0.65999992E+02  0.88202E+02
 0.66049995E+02  0.75559E+02
 0.66099998E+02  0.76391E+02
 0.66149994E+02  0.78931E+02
 0.66199997E+02  0.78599E+02
 0.66249992E+02  0.79769E+02
 0.66299995E+02  0.72537E+02
 0.66349998E+02  0.58725E+02
 0.66399994E+02 -0.24077E+02
 0.66449997E+02 -0.18441E+03
 0.66499992E+02 -0.31200E+03
 0.66549995E+02 -0.33650E+03
 0.66599998E+02 -0.34864E+03
 0.66649994E+02 -0.24161E+03
 0.66699997E+02 -0.42408E+02
 0.66749992E+02 -0.11386E+03
 0.66799995E+02 -0.14283E+03
 0.66849998E+02 -0.39155E+02
 0.66899994E+02 -0.14597E+02
 0.66949997E+02  0.10061E+02
 0.66999992E+02  0.24026E+02
 0.67049995E+02  0.32950E+02
 0.67099998E+02  0.32687E+02
 0.67149994E+02  0.53767E+02
 0.67199997E+02  0.57711E+02
 0.67249992E+02  0.66988E+02
 0.67299995E+02  0.70764E+02
 0.67349998E+02  0.77799E+02
 0.67399994E+02  0.85647E+02
 0.67449997E+02  0.80118E+02
 0.67499992E+02  0.78398E+02
 0.67549995E+02  0.69257E+02
 0.67599998E+02  0.75147E+02
 0.67649994E+02  0.71884E+02
 0.67699997E+02  0.72459E+02
 0.67749992E+02  0.72837E+02
 0.67799995E+02  0.69564E+02
 0.67849998E+02  0.59383E+02
 0.67899994E+02  0.55198E+02
 0.67949997E+02  0.59502E+02
 0.67999992E+02  0.56237E+02
 0.68049995E+02  0.56269E+02
 0.68099998E+02  0.54570E+02
 0.68149994E+02  0.67525E+02
 0.68199997E+02  0.80606E+02
 0.68249992E+02  0.78045E+02
 0.68299995E+02  0.76381E+02
 0.68349998E+02  0.81091E+02
 0.68399994E+02  0.82310E+02
 0.68449997E+02  0.83574E+02
 0.68499992E+02  0.78172E+02
 0.68549995E+02  0.80236E+02
 0.68599998E+02  0.81366E+02
 0.68649994E+02  0.90709E+02
 0.68699997E+02  0.86759E+02
 0.68749992E+02  0.69364E+02
 0.68799995E+02 -0.62960E+00
 0.68849998E+02 -0.10238E+03
 0.68899994E+02 -0.17121E+03
 0.68949997E+02 -0.12961E+03
 0.68999992E+02  0.21452E+02
 0.69049995E+02 -0.78779E+01
 0.69099998E+02 -0.87969E+02
 0.69149994E+02 -0.58226E+02
 0.69199997E+02  0.23926E+02
 0.69249992E+02  0.44148E+02
 0.69299995E+02  0.47657E+02
 0.69349998E+02  0.62072E+02
 0.69399994E+02  0.55088E+02
 0.69449997E+02  0.68053E+02
 0.69499992E+02  0.60304E+02
 0.69549995E+02  0.52833E+02
 0.69599998E+02  0.56686E+02
 0.69649994E+02  0.48676E+02
 0.69699997E+02  0.53128E+01
 0.69749992E+02 -0.55722E+02
 0.69799995E+02 -0.23852E+02
 0.69849998E+02  0.55362E+02
 0.69899994E+02  0.37446E+02
 0.69949997E+02  0.68016E+02
 0.69999992E+02  0.82572E+02
 0.70049995E+02  0.68666E+02
 0.70099998E+02  0.72001E+02
 0.70149994E+02  0.70501E+02
 0.70199997E+02  0.75610E+02
 0.70249992E+02  0.74477E+02
 0.70299995E+02  0.79350E+02
 0.70349998E+02  0.69571E+02
 0.70399994E+02  0.72619E+02
 0.70449997E+02  0.70092E+02
 0.70499992E+02  0.33462E+02
 0.70549995E+02 -0.84488E+01
 0.70599998E+02  0.25707E+01
 0.70649994E+02  0.55831E+02
 0.70699997E+02  0.57481E+02
 0.70749992E+02  0.56194E+02
 0.70799995E+02  0.75278E+02
 0.70849998E+02  0.78626E+02
 0.70899994E+02  0.86012E+02
 0.70949997E+02  0.81952E+02
 0.70999992E+02  0.90915E+02
 0.71049995E+02  0.97065E+02
 0.71099998E+02  0.92643E+02
 0.71149994E+02  0.90536E+02
 0.71199997E+02  0.92788E+02
 0.71249992E+02  0.95629E+02
 0.71299995E+02  0.91146E+02
 0.71349998E+02  0.84936E+02
 0.71399994E+02  0.86578E+02
 0.71449997E+02  0.95327E+02
 0.71499992E+02  0.84349E+02
 0.71549995E+02  0.71082E+02
 0.71599998E+02  0.67784E+02
 0.71649994E+02  0.61839E+02
 0.71699997E+02  0.59277E+02
 0.71749992E+02  0.62073E+02
 0.71799995E+02  0.64201E+02
 0.71849998E+02  0.66703E+02
 0.71899994E+02  0.65470E+02
 0.71949997E+02  0.62186E+02
 0.71999992E+02  0.67742E+02
 0.72049995E+02  0.65293E+02
 0.72099998E+02  0.67309E+02
 0.72149994E+02  0.66035E+02
 0.72199997E+02  0.65550E+02
 0.72249992E+02  0.69442E+02
 0.72299995E+02  0.71201E+02
 0.72349998E+02  0.61368E+02
 0.72399994E+02  0.37637E+02
 0.72449997E+02 -0.94732E+01
 0.72499992E+02 -0.61905E+02
 0.72549995E+02 -0.89098E+02
 0.72599998E+02 -0.50719E+02
 0.72649994E+02  0.43621E+02
 0.72699997E+02  0.38810E+02
 0.72749992E+02  0.36000E+02
 0.72799995E+02  0.73877E+02
 0.72849998E+02  0.75549E+02
 0.72899994E+02  0.79968E+02
 0.72949997E+02  0.79984E+02
 0.72999992E+02  0.86147E+02
 0.73049995E+02  0.86389E+02
 0.73099998E+02  0.81507E+02
 0.73149994E+02  0.89968E+02
 0.73199997E+02  0.90517E+02
 0.73249992E+02  0.88611E+02
 0.73299995E+02  0.84046E+02
 0.73349998E+02  0.81618E+02
 0.73399994E+02  0.71608E+02
 0.73449997E+02  0.69934E+02
 0.73499992E+02  0.73413E+02
 0.73549995E+02  0.64049E+02
 0.73599998E+02  0.64064E+02
 0.73649994E+02  0.52027E+02
 0.73699997E+02  0.49579E+02
 0.73749992E+02  0.47796E+02
 0.73799995E+02  0.56761E+02
 0.73849998E+02  0.63438E+02
 0.73899994E+02  0.61618E+02
 0.73949997E+02  0.66558E+02
 0.73999992E+02  0.65399E+02
 0.74049995E+02  0.62199E+02
 0.74099998E+02  0.59808E+02
 0.74149994E+02  0.67480E+02
 0.74199997E+02  0.74892E+02
 0.74249992E+02  0.74255E+02
 0.74299995E+02  0.69828E+02
 0.74349998E+02  0.71611E+02
 0.74399994E+02  0.74669E+02
 0.74449997E+02  0.81965E+02
 0.74499992E+02  0.82055E+02
 0.74549995E+02  0.82021E+02
 0.74599998E+02  0.83019E+02
 0.74649994E+02  0.75118E+02
 0.74699997E+02  0.79778E+02
 0.74749992E+02  0.76848E+02
 0.74799995E+02  0.79638E+02
 0.74849998E+02  0.80993E+02
 0.74899994E+02  0.75265E+02
 0.74949997E+02  0.75241E+02
 0.74999992E+02  0.76605E+02
 0.75049995E+02  0.71541E+02
 0.75099998E+02  0.71619E+02
 0.75149994E+02  0.82772E+02
 0.75199997E+02  0.85476E+02
 0.75249992E+02  0.86888E+02
 0.75299995E+02  0.82017E+02
 0.75349998E+02  0.81859E+02
 0.75399994E+02  0.86715E+02
 0.75449997E+02  0.85392E+02
 0.75499992E+02  0.77414E+02
 0.75549995E+02  0.69401E+02
 0.75599998E+02  0.67236E+02
 0.75649994E+02  0.69518E+02
 0.75699997E+02  0.62467E+02
 0.75749992E+02  0.57489E+02
 0.75799995E+02  0.66605E+02
 0.75849998E+02  0.61029E+02
 0.75899994E+02  0.60720E+02
 0.75949997E+02  0.64079E+02
 0.75999992E+02  0.63590E+02
 0.76049995E+02  0.64162E+02
 0.76099998E+02  0.62135E+02
 0.76149994E+02  0.69431E+02
 0.76199997E+02  0.64151E+02
 0.76249992E+02  0.59267E+02
 0.76299995E+02  0.55446E+02
 0.76349998E+02  0.50188E+02
 0.76399994E+02  0.56190E+02
 0.76449997E+02  0.57029E+02
 0.76499992E+02  0.64097E+02
 0.76549995E+02  0.62700E+02
 0.76599998E+02  0.66229E+02
 0.76649994E+02  0.75805E+02
 0.76699997E+02  0.76521E+02
 0.76749992E+02  0.79397E+02
 0.76799995E+02  0.72985E+02
 0.76849998E+02  0.76812E+02
 0.76899994E+02  0.70774E+02
 0.76949997E+02  0.67313E+02
 0.76999992E+02  0.71892E+02
 0.77049995E+02  0.69377E+02
 0.77099998E+02  0.74354E+02
 0.77149994E+02  0.74549E+02
 0.77199997E+02  0.68388E+02
 0.77249992E+02  0.72435E+02
 0.77299995E+02  0.69305E+02
 0.77349998E+02  0.73435E+02
 0.77399994E+02  0.77328E+02
 0.77449997E+02  0.78266E+02
 0.77499992E+02  0.72230E+02
 0.77549995E+02  0.65110E+02
 0.77599998E+02  0.37805E+02
 0.77649994E+02 -0.49398E+02
 0.77699997E+02 -0.10974E+03
 0.77749992E+02 -0.10747E+03
 0.77799995E+02  0.75649E+01
 0.77849998E+02  0.32901E+02
 0.77899994E+02 -0.10469E+02
 0.77949997E+02  0.45005E+02
 0.77999992E+02  0.65833E+02
 0.78049995E+02  0.72287E+02
 0.78099998E+02  0.68169E+02
 0.78149994E+02  0.67342E+02
 0.78199997E+02  0.74355E+02
 0.78249992E+02  0.72900E+02
 0.78299995E+02  0.73068E+02
 0.78349998E+02  0.67050E+02
 0.78399994E+02  0.71322E+02
 0.78449997E+02  0.72521E+02
 0.78499992E+02  0.67045E+02
 0.78549995E+02  0.58177E+02
 0.78599998E+02  0.59136E+02
 0.78649994E+02  0.65766E+02
 0.78699997E+02  0.67169E+02
 0.78749992E+02  0.74461E+02
 0.78799995E+02  0.73484E+02
 0.78849998E+02  0.59269E+02
 0.78899994E+02  0.23160E+02
 0.78949997E+02 -0.26259E+02
 0.78999992E+02 -0.48195E+02
 0.79049995E+02  0.18706E+02
 0.79099998E+02  0.43243E+02
 0.79149994E+02  0.43473E+02
 0.79199997E+02  0.65876E+02
 0.79249992E+02  0.65331E+02
 0.79299995E+02  0.70534E+02
 0.79349998E+02  0.73718E+02
 0.79399994E+02  0.80295E+02
 0.79449997E+02  0.83329E+02
 0.79499992E+02  0.86207E+02
 0.79549995E+02  0.73924E+02
 0.79599998E+02  0.73719E+02
 0.79649994E+02  0.70011E+02
 0.79699997E+02  0.70811E+02
 0.79749992E+02  0.69079E+02
 0.79799995E+02  0.72485E+02
 0.79849998E+02  0.77879E+02
 0.79899994E+02  0.81312E+02
 0.79949997E+02  0.76991E+02
 0.79999992E+02  0.79802E+02
 0.80049995E+02  0.79807E+02
 0.80099998E+02  0.76980E+02
 0.80149994E+02  0.85415E+02
 0.80199997E+02  0.78186E+02
 0.80249992E+02  0.84493E+02
 0.80299995E+02  0.76804E+02
 0.80349998E+02  0.75759E+02
 0.80399994E+02  0.77018E+02
 0.80449997E+02  0.43766E+02
 0.80499992E+02 -0.51531E+01
 0.80549995E+02 -0.33689E+02
 0.80599998E+02 -0.14911E+02
 0.80649994E+02  0.33222E+02
 0.80699997E+02  0.76059E+02
 0.80749992E+02  0.83126E+02
 0.80799995E+02  0.75312E+02
 0.80849998E+02  0.81994E+02
 0.80899994E+02  0.79376E+02
 0.80949997E+02  0.74354E+02
 0.80999992E+02  0.82908E+02
 0.81049995E+02  0.79751E+02
 0.81099998E+02  0.77484E+02
 0.81149994E+02  0.76426E+02
 0.81199997E+02  0.76466E+02
 0.81249992E+02  0.77912E+02
 0.81299995E+02  0.77835E+02
 0.81349998E+02  0.79453E+02
 0.81399994E+02  0.77353E+02
 0.81449997E+02  0.71290E+02
 0.81499992E+02  0.68580E+02
 0.81549995E+02  0.68229E+02
 0.81599998E+02  0.65702E+02
 0.81649994E+02  0.65190E+02
 0.81699997E+02  0.67000E+02
 0.81749992E+02  0.71767E+02
 0.81799995E+02  0.74806E+02
 0.81849998E+02  0.70580E+02
 0.81899994E+02  0.71684E+02
 0.81949997E+02  0.78831E+02
 0.81999992E+02  0.80297E+02
 0.82049995E+02  0.79535E+02
 0.82099998E+02  0.75515E+02
 0.82149994E+02  0.79663E+02
 0.82199997E+02  0.81622E+02
 0.82249992E+02  0.84156E+02
 0.82299995E+02  0.87488E+02
 0.82349998E+02  0.87974E+02
 0.82399994E+02  0.88275E+02
 0.82449997E+02  0.75556E+02
 0.82499992E+02  0.76824E+02
 0.82549995E+02  0.75114E+02
 0.82599998E+02  0.70882E+02
 0.82649994E+02  0.73178E+02
 0.82699997E+02  0.70993E+02
 0.82749992E+02  0.70022E+02
 0.82799995E+02  0.62015E+02
 0.82849998E+02  0.66797E+02
 0.82899994E+02  0.71809E+02
 0.82949997E+02  0.70923E+02
 0.82999992E+02  0.69147E+02
 0.83049995E+02  0.68237E+02
 0.83099998E+02  0.72636E+02
 0.83149994E+02  0.77431E+02
 0.83199997E+02  0.80268E+02
 0.83249992E+02  0.79744E+02
 0.83299995E+02  0.81343E+02
 0.83349998E+02  0.73224E+02
 0.83399994E+02  0.72854E+02
 0.83449997E+02  0.80020E+02
 0.83499992E+02  0.81569E+02
 0.83549995E+02  0.76236E+02
 0.83599998E+02  0.77017E+02
 0.83649994E+02  0.75012E+02
 0.83699997E+02  0.67383E+02
 0.83749992E+02  0.67784E+02
 0.83799995E+02  0.67742E+02
 0.83849998E+02  0.65934E+02
 0.83899994E+02  0.65556E+02
 0.83949997E+02  0.65603E+02
 0.83999992E+02  0.58254E+02
 0.84049995E+02  0.59828E+02
 0.84099998E+02  0.61930E+02
 0.84149994E+02  0.59474E+02
 0.84199997E+02  0.59434E+02
 0.84249992E+02  0.63225E+02
 0.84299995E+02  0.64268E+02
 0.84349998E+02  0.66143E+02
 0.84399994E+02  0.64471E+02
 0.84449997E+02  0.64838E+02
 0.84499992E+02  0.64226E+02
 0.84549995E+02  0.56204E+02
 0.84599998E+02  0.61105E+02
 0.84649994E+02  0.59735E+02
 0.84699997E+02  0.66131E+02
 0.84749992E+02  0.67046E+02
 0.84799995E+02  0.65161E+02
 0.84849998E+02  0.69407E+02
 0.84899994E+02  0.66462E+02
 0.84949997E+02  0.67441E+02
 0.84999992E+02  0.62684E+02
 0.85049995E+02  0.64340E+02
 0.85099998E+02  0.74121E+02
 0.85149994E+02  0.79271E+02
 0.85199997E+02  0.83670E+02
 0.85249992E+02  0.88696E+02
 0.85299995E+02  0.83162E+02
 0.85349998E+02  0.85348E+02
 0.85399994E+02  0.77090E+02
 0.85449997E+02  0.71706E+02
 0.85499992E+02  0.83666E+02
 0.85549995E+02  0.74360E+02
 0.85599998E+02  0.72562E+02
 0.85649994E+02  0.73338E+02
 0.85699997E+02  0.75991E+02
 0.85749992E+02  0.79939E+02
 0.85799995E+02  0.74348E+02
 0.85849998E+02  0.71705E+02
 0.85899994E+02  0.72970E+02
 0.85949997E+02  0.75384E+02
 0.85999992E+02  0.72540E+02
 0.86049995E+02  0.74151E+02
 0.86099998E+02  0.71259E+02
 0.86149994E+02  0.75811E+02
 0.86199997E+02  0.78657E+02
 0.86249992E+02  0.72915E+02
 0.86299995E+02  0.75880E+02
 0.86349998E+02  0.80068E+02
 0.86399994E+02  0.79276E+02
 0.86449997E+02  0.82392E+02
 0.86499992E+02  0.80431E+02
 0.86549995E+02  0.76708E+02
 0.86599998E+02  0.79024E+02
 0.86649994E+02  0.74982E+02
 0.86699997E+02  0.76893E+02
 0.86749992E+02  0.76880E+02
 0.86799995E+02  0.80036E+02
 0.86849998E+02  0.75760E+02
 0.86899994E+02  0.75413E+02
 0.86949997E+02  0.77910E+02
 0.86999992E+02  0.69367E+02
 0.87049995E+02  0.69618E+02
 0.87099998E+02  0.71951E+02
 0.87149994E+02  0.72228E+02
 0.87199997E+02  0.70324E+02
 0.87249992E+02  0.70524E+02
 0.87299995E+02  0.69938E+02
 0.87349998E+02  0.76895E+02
 0.87399994E+02  0.71169E+02
 0.87449997E+02  0.72203E+02
 0.87499992E+02  0.77400E+02
 0.87549995E+02  0.70222E+02
 0.87599991E+02  0.69873E+02
 0.87649994E+02  0.66517E+02
 0.87699997E+02  0.68219E+02
 0.87749992E+02  0.71615E+02
 0.87799995E+02  0.67790E+02
 0.87849991E+02  0.70593E+02
 0.87899994E+02  0.76839E+02
 0.87949997E+02  0.64361E+02
 0.87999992E+02  0.61047E+02
 0.88049995E+02  0.63835E+02
 0.88099991E+02  0.59821E+02
 0.88149994E+02  0.69114E+02
 0.88199997E+02  0.70080E+02
 0.88249992E+02  0.76146E+02
 0.88299995E+02  0.75111E+02
 0.88349991E+02  0.69991E+02
 0.88399994E+02  0.72751E+02
 0.88449997E+02  0.57998E+02
 0.88499992E+02  0.58171E+02
 0.88549995E+02  0.58962E+02
 0.88599991E+02  0.58680E+02
 0.88649994E+02  0.61947E+02
 0.88699997E+02  0.63958E+02
 0.88749992E+02  0.63698E+02
 0.88799995E+02  0.63329E+02
 0.88849991E+02  0.62476E+02
 0.88899994E+02  0.64788E+02
 0.88949997E+02  0.66812E+02
 0.88999992E+02  0.65194E+02
 0.89049995E+02  0.67826E+02
 0.89099991E+02  0.61313E+02
 0.89149994E+02  0.63669E+02
 0.89199997E+02  0.65935E+02
 0.89249992E+02  0.68872E+02
 0.89299995E+02  0.70465E+02
 0.89349991E+02  0.59390E+02
 0.89399994E+02  0.67966E+02
 0.89449997E+02  0.77394E+02
 0.89499992E+02  0.70775E+02
 0.89549995E+02  0.64578E+02
 0.89599991E+02  0.63548E+02
 0.89649994E+02  0.68427E+02
 0.89699997E+02  0.70764E+02
 0.89749992E+02  0.74616E+02
 0.89799995E+02  0.75678E+02
 0.89849991E+02  0.68347E+02
 0.89899994E+02  0.66779E+02
 0.89949997E+02  0.69255E+02
 0.89999992E+02  0.63870E+02
 0.90049995E+02  0.59833E+02
 0.90099991E+02  0.63805E+02
 0.90149994E+02  0.71070E+02
 0.90199997E+02  0.71528E+02
 0.90249992E+02  0.69542E+02
 0.90299995E+02  0.65567E+02
 0.90349991E+02  0.71653E+02
 0.90399994E+02  0.75063E+02
 0.90449997E+02  0.71696E+02
 0.90499992E+02  0.72001E+02
 0.90549995E+02  0.67343E+02
 0.90599991E+02  0.69135E+02
 0.90649994E+02  0.69160E+02
 0.90699997E+02  0.69660E+02
 0.90749992E+02  0.68942E+02
 0.90799995E+02  0.61393E+02
 0.90849991E+02  0.65006E+02
 0.90899994E+02  0.66134E+02
 0.90949997E+02  0.65504E+02
 0.90999992E+02  0.65284E+02
 0.91049995E+02  0.54138E+02
 0.91099991E+02  0.54321E+02
 0.91149994E+02  0.55256E+02
 0.91199997E+02  0.58815E+02
 0.91249992E+02  0.61999E+02
 0.91299995E+02  0.54987E+02
 0.91349991E+02  0.59036E+02
 0.91399994E+02  0.67309E+02
 0.91449997E+02  0.68985E+02
 0.91499992E+02  0.62808E+02
 0.91549995E+02  0.56039E+02
 0.91599991E+02  0.56097E+02
 0.91649994E+02  0.58929E+02
 0.91699997E+02  0.64100E+02
 0.91749992E+02  0.65157E+02
 0.91799995E+02  0.66360E+02
 0.91849991E+02  0.66205E+02
 0.91899994E+02  0.64484E+02
 0.91949997E+02  0.72834E+02
 0.91999992E+02  0.69550E+02
 0.92049995E+02  0.61843E+02
 0.92099991E+02  0.64582E+02
 0.92149994E+02  0.71521E+02
 0.92199997E+02  0.69518E+02
 0.92249992E+02  0.57378E+02
 0.92299995E+02  0.64946E+02
 0.92349991E+02  0.67829E+02
 0.92399994E+02  0.67830E+02
 0.92449997E+02  0.66701E+02
 0.92499992E+02  0.63477E+02
 0.92549995E+02  0.59442E+02
 0.92599991E+02  0.59263E+02
 0.92649994E+02  0.68271E+02
 0.92699997E+02  0.62716E+02
 0.92749992E+02  0.66396E+02
 0.92799995E+02  0.64475E+02
 0.92849991E+02  0.61463E+02
 0.92899994E+02  0.61770E+02
 0.92949997E+02  0.61429E+02
 0.92999992E+02  0.63234E+02
 0.93049995E+02  0.62760E+02
 0.93099991E+02  0.59915E+02
 0.93149994E+02  0.63475E+02
 0.93199997E+02  0.66144E+02
 0.93249992E+02  0.66060E+02
 0.93299995E+02  0.67991E+02
 0.93349991E+02  0.68927E+02
 0.93399994E+02  0.76381E+02
 0.93449997E+02  0.65038E+02
 0.93499992E+02  0.62004E+02
 0.93549995E+02  0.58405E+02
 0.93599991E+02  0.58437E+02
 0.93649994E+02  0.62667E+02
 0.93699997E+02  0.57031E+02
 0.93749992E+02  0.63327E+02
 0.93799995E+02  0.65229E+02
 0.93849991E+02  0.61867E+02
 0.93899994E+02  0.53517E+02
 0.93949997E+02  0.50625E+02
 0.93999992E+02  0.53928E+02
 0.94049995E+02  0.57804E+02
 0.94099991E+02  0.61397E+02
 0.94149994E+02  0.61152E+02
 0.94199997E+02  0.58224E+02
 0.94249992E+02  0.62507E+02
 0.94299995E+02  0.70942E+02
 0.94349991E+02  0.66352E+02
 0.94399994E+02  0.71440E+02
 0.94449997E+02  0.73578E+02
 0.94499992E+02  0.70254E+02
 0.94549995E+02  0.64920E+02
 0.94599991E+02  0.68598E+02
 0.94649994E+02  0.70292E+02
 0.94699997E+02  0.53317E+02
 0.94749992E+02  0.60604E+02
 0.94799995E+02  0.61405E+02
 0.94849991E+02  0.60817E+02
 0.94899994E+02  0.61193E+02
 0.94949997E+02  0.63703E+02
 0.94999992E+02  0.66951E+02
 0.95049995E+02  0.59690E+02
 0.95099991E+02  0.59108E+02
 0.95149994E+02  0.60730E+02
 0.95199997E+02  0.65346E+02
 0.95249992E+02  0.66731E+02
 0.95299995E+02  0.68813E+02
 0.95349991E+02  0.70930E+02
 0.95399994E+02  0.61254E+02
 0.95449997E+02  0.63270E+02
 0.95499992E+02  0.70350E+02
 0.95549995E+02  0.67636E+02
 0.95599991E+02  0.67756E+02
 0.95649994E+02  0.66039E+02
 0.95699997E+02  0.72488E+02
 0.95749992E+02  0.70972E+02
 0.95799995E+02  0.66742E+02
 0.95849991E+02  0.67097E+02
 0.95899994E+02  0.68355E+02
 0.95949997E+02  0.63324E+02
 0.95999992E+02  0.56766E+02
 0.96049995E+02  0.43146E+02
 0.96099991E+02  0.46686E+02
 0.96149994E+02  0.56406E+02
 0.96199997E+02  0.57274E+02
 0.96249992E+02  0.62710E+02
 0.96299995E+02  0.55345E+02
 0.96349991E+02  0.62042E+02
 0.96399994E+02  0.61440E+02
 0.96449997E+02  0.62813E+02
 0.96499992E+02  0.67497E+02
 0.96549995E+02  0.59893E+02
 0.96599991E+02  0.63550E+02
 0.96649994E+02  0.63213E+02
 0.96699997E+02  0.58497E+02
 0.96749992E+02  0.65305E+02
 0.96799995E+02  0.64802E+02
 0.96849991E+02  0.58816E+02
 0.96899994E+02  0.72026E+02
 0.96949997E+02  0.77506E+02
 0.96999992E+02  0.72372E+02
 0.97049995E+02  0.72449E+02
 0.97099991E+02  0.65377E+02
 0.97149994E+02  0.62286E+02
 0.97199997E+02  0.69004E+02
 0.97249992E+02  0.65928E+02
 0.97299995E+02  0.58798E+02
 0.97349991E+02  0.57851E+02
 0.97399994E+02  0.54327E+02
 0.97449997E+02  0.57746E+02
 0.97499992E+02  0.54178E+02
 0.97549995E+02  0.52812E+02
 0.97599991E+02  0.53305E+02
 0.97649994E+02  0.50624E+02
 0.97699997E+02  0.59820E+02
 0.97749992E+02  0.59793E+02
 0.97799995E+02  0.54975E+02
 0.97849991E+02  0.58764E+02
 0.97899994E+02  0.58813E+02
 0.97949997E+02  0.50983E+02
 0.97999992E+02  0.55575E+02
