-0.20000000E+01  0.78490E+04
-0.19500000E+01  0.84650E+04
-0.19000000E+01  0.87440E+04
-0.18500000E+01  0.84700E+04
-0.18000000E+01  0.78800E+04
-0.17500000E+01  0.72860E+04
-0.17000000E+01  0.64890E+04
-0.16500000E+01  0.53360E+04
-0.16000000E+01  0.38230E+04
-0.15500000E+01  0.16910E+04
-0.15000000E+01 -0.10050E+04
-0.14500000E+01 -0.37750E+04
-0.14000000E+01 -0.64120E+04
-0.13499999E+01 -0.88580E+04
-0.13000000E+01 -0.10962E+05
-0.12500000E+01 -0.12684E+05
-0.12000000E+01 -0.14029E+05
-0.11500000E+01 -0.15035E+05
-0.10999999E+01 -0.15759E+05
-0.10500000E+01 -0.16093E+05
-0.10000000E+01 -0.15985E+05
-0.94999993E+00 -0.15612E+05
-0.89999998E+00 -0.15016E+05
-0.85000002E+00 -0.14170E+05
-0.79999995E+00 -0.13122E+05
-0.75000000E+00 -0.11692E+05
-0.69999993E+00 -0.96070E+04
-0.64999998E+00 -0.68200E+04
-0.60000002E+00 -0.37230E+04
-0.54999995E+00 -0.90700E+03
-0.50000000E+00  0.13290E+04
-0.44999993E+00  0.27940E+04
-0.39999998E+00  0.33880E+04
-0.35000002E+00  0.32990E+04
-0.29999995E+00  0.28770E+04
-0.25000000E+00  0.25560E+04
-0.19999993E+00  0.25740E+04
-0.14999998E+00  0.27860E+04
-0.10000002E+00  0.29310E+04
-0.49999952E-01  0.28510E+04
 0.00000000E+00  0.24740E+04
 0.49999952E-01  0.17640E+04
 0.10000014E+00  0.75300E+03
 0.15000010E+00 -0.43900E+03
 0.20000005E+00 -0.16260E+04
 0.25000000E+00 -0.25410E+04
 0.29999995E+00 -0.30170E+04
 0.35000014E+00 -0.32030E+04
 0.40000010E+00 -0.33340E+04
 0.45000005E+00 -0.34160E+04
 0.50000000E+00 -0.34770E+04
 0.54999995E+00 -0.35960E+04
 0.60000014E+00 -0.34660E+04
 0.65000010E+00 -0.28840E+04
 0.70000005E+00 -0.22420E+04
 0.75000000E+00 -0.19430E+04
 0.79999995E+00 -0.18370E+04
 0.85000014E+00 -0.14660E+04
 0.90000010E+00 -0.76000E+03
 0.95000005E+00 -0.86000E+02
 0.10000000E+01  0.48500E+03
 0.10500000E+01  0.14020E+04
 0.11000001E+01  0.30230E+04
 0.11500001E+01  0.51720E+04
 0.12000000E+01  0.73810E+04
 0.12500000E+01  0.93800E+04
 0.13000000E+01  0.10977E+05
 0.13500001E+01  0.11934E+05
 0.14000001E+01  0.12470E+05
 0.14500000E+01  0.12939E+05
 0.15000000E+01  0.13215E+05
 0.15500000E+01  0.13122E+05
 0.16000001E+01  0.12834E+05
 0.16500001E+01  0.12552E+05
 0.17000000E+01  0.12336E+05
 0.17500000E+01  0.12280E+05
 0.18000000E+01  0.12140E+05
 0.18500001E+01  0.11257E+05
 0.19000001E+01  0.94820E+04
 0.19500000E+01  0.73900E+04
 0.20000000E+01  0.53220E+04
 0.20500002E+01  0.32790E+04
 0.20999999E+01  0.15660E+04
 0.21500001E+01  0.36800E+03
 0.22000003E+01 -0.66600E+03
 0.22500000E+01 -0.18040E+04
 0.23000002E+01 -0.29500E+04
 0.23499999E+01 -0.39810E+04
 0.24000001E+01 -0.49210E+04
 0.24500003E+01 -0.57400E+04
 0.25000000E+01 -0.62460E+04
 0.25500002E+01 -0.64400E+04
 0.25999999E+01 -0.64980E+04
 0.26500001E+01 -0.65360E+04
 0.27000003E+01 -0.66560E+04
 0.27500000E+01 -0.68440E+04
 0.28000002E+01 -0.69020E+04
 0.28499999E+01 -0.66350E+04
 0.29000001E+01 -0.60870E+04
 0.29500003E+01 -0.55590E+04
 0.30000000E+01 -0.52520E+04
 0.30500002E+01 -0.50950E+04
 0.30999999E+01 -0.49620E+04
 0.31500001E+01 -0.48240E+04
 0.32000003E+01 -0.45720E+04
 0.32500000E+01 -0.39200E+04
 0.33000002E+01 -0.27930E+04
 0.33499999E+01 -0.16490E+04
 0.34000001E+01 -0.11070E+04
 0.34500003E+01 -0.12640E+04
 0.35000000E+01 -0.19010E+04
 0.35500002E+01 -0.27820E+04
 0.35999999E+01 -0.34420E+04
 0.36500001E+01 -0.37480E+04
 0.37000003E+01 -0.41230E+04
 0.37500000E+01 -0.47960E+04
 0.38000002E+01 -0.56890E+04
 0.38499999E+01 -0.65990E+04
 0.39000001E+01 -0.73070E+04
 0.39500003E+01 -0.76970E+04
 0.40000000E+01 -0.75290E+04
 0.40500002E+01 -0.65960E+04
 0.40999999E+01 -0.48470E+04
 0.41500001E+01 -0.23510E+04
 0.42000003E+01  0.40200E+03
 0.42500000E+01  0.27510E+04
 0.43000002E+01  0.44540E+04
 0.43499999E+01  0.55730E+04
 0.44000001E+01  0.61110E+04
 0.44500003E+01  0.60420E+04
 0.45000000E+01  0.53800E+04
 0.45500002E+01  0.43540E+04
 0.45999999E+01  0.34880E+04
 0.46500001E+01  0.29140E+04
 0.47000003E+01  0.22100E+04
 0.47500000E+01  0.13190E+04
 0.48000002E+01  0.65600E+03
 0.48499999E+01  0.41300E+03
 0.49000001E+01  0.47000E+03
 0.49500003E+01  0.63200E+03
 0.50000000E+01  0.65100E+03
 0.50500002E+01  0.39100E+03
 0.50999999E+01  0.22500E+03
 0.51500001E+01  0.71100E+03
 0.52000003E+01  0.17780E+04
 0.52500000E+01  0.29920E+04
 0.53000002E+01  0.40840E+04
 0.53499999E+01  0.49630E+04
 0.54000001E+01  0.56310E+04
 0.54500003E+01  0.60600E+04
 0.55000000E+01  0.64810E+04
 0.55500002E+01  0.70910E+04
 0.55999999E+01  0.76290E+04
 0.56500001E+01  0.78870E+04
 0.57000003E+01  0.77240E+04
 0.57500000E+01  0.70520E+04
 0.58000002E+01  0.60910E+04
 0.58499999E+01  0.49760E+04
 0.59000001E+01  0.35010E+04
 0.59500003E+01  0.17030E+04
 0.60000000E+01  0.17200E+03
 0.60500002E+01 -0.79100E+03
 0.61000004E+01 -0.13470E+04
 0.61500006E+01 -0.15230E+04
 0.61999998E+01 -0.14870E+04
 0.62500000E+01 -0.15230E+04
 0.63000002E+01 -0.16410E+04
 0.63500004E+01 -0.17350E+04
 0.64000006E+01 -0.17910E+04
 0.64499998E+01 -0.20950E+04
 0.65000000E+01 -0.29230E+04
 0.65500002E+01 -0.40530E+04
 0.66000004E+01 -0.51860E+04
 0.66500006E+01 -0.63620E+04
 0.66999998E+01 -0.76240E+04
 0.67500000E+01 -0.86900E+04
 0.68000002E+01 -0.91240E+04
 0.68500004E+01 -0.88450E+04
 0.69000006E+01 -0.82100E+04
 0.69499998E+01 -0.75480E+04
 0.70000000E+01 -0.70930E+04
 0.70500002E+01 -0.70900E+04
 0.71000004E+01 -0.75190E+04
 0.71500006E+01 -0.80690E+04
 0.71999998E+01 -0.85790E+04
 0.72500000E+01 -0.91120E+04
 0.73000002E+01 -0.95460E+04
 0.73500004E+01 -0.94550E+04
 0.74000006E+01 -0.87060E+04
 0.74499998E+01 -0.76090E+04
 0.75000000E+01 -0.63080E+04
 0.75500002E+01 -0.48100E+04
 0.76000004E+01 -0.32940E+04
 0.76500006E+01 -0.19350E+04
 0.76999998E+01 -0.82700E+03
 0.77500000E+01  0.57000E+02
 0.78000002E+01  0.67500E+03
 0.78500004E+01  0.81800E+03
 0.79000006E+01  0.87200E+03
 0.79499998E+01  0.15350E+04
 0.80000000E+01  0.26880E+04
 0.80500002E+01  0.38160E+04
 0.81000004E+01  0.48480E+04
 0.81500006E+01  0.59770E+04
 0.81999998E+01  0.71170E+04
 0.82500000E+01  0.80600E+04
 0.83000002E+01  0.87990E+04
 0.83500004E+01  0.92730E+04
 0.84000006E+01  0.92960E+04
 0.84499998E+01  0.88390E+04
 0.85000000E+01  0.80500E+04
 0.85500002E+01  0.69050E+04
 0.86000004E+01  0.53930E+04
 0.86500006E+01  0.38120E+04
 0.86999998E+01  0.25840E+04
 0.87500000E+01  0.19210E+04
 0.88000002E+01  0.15520E+04
 0.88500004E+01  0.12600E+04
 0.89000006E+01  0.11500E+04
 0.89499998E+01  0.12810E+04
 0.90000000E+01  0.18330E+04
 0.90500002E+01  0.29470E+04
 0.91000004E+01  0.42980E+04
 0.91500006E+01  0.55060E+04
 0.91999998E+01  0.66070E+04
 0.92500000E+01  0.75560E+04
 0.93000002E+01  0.81180E+04
 0.93500004E+01  0.82850E+04
 0.94000006E+01  0.81340E+04
 0.94499998E+01  0.78970E+04
 0.95000000E+01  0.78550E+04
 0.95500002E+01  0.80300E+04
 0.96000004E+01  0.83040E+04
 0.96500006E+01  0.85520E+04
 0.96999998E+01  0.86820E+04
 0.97500000E+01  0.85740E+04
 0.98000002E+01  0.83810E+04
 0.98500004E+01  0.85730E+04
 0.99000006E+01  0.92340E+04
 0.99499998E+01  0.99160E+04
 0.10000000E+02  0.10286E+05
 0.10050000E+02  0.10434E+05
 0.10100000E+02  0.10625E+05
 0.10150001E+02  0.11002E+05
 0.10200000E+02  0.11470E+05
 0.10250000E+02  0.11814E+05
 0.10300000E+02  0.11916E+05
 0.10350000E+02  0.11936E+05
 0.10400001E+02  0.12085E+05
 0.10450000E+02  0.12161E+05
 0.10500000E+02  0.11758E+05
 0.10550000E+02  0.10776E+05
 0.10600000E+02  0.95000E+04
 0.10650001E+02  0.82310E+04
 0.10700000E+02  0.68420E+04
 0.10750000E+02  0.49990E+04
 0.10800000E+02  0.27080E+04
 0.10850000E+02  0.32800E+03
 0.10900001E+02 -0.17750E+04
 0.10950000E+02 -0.33810E+04
 0.11000000E+02 -0.44870E+04
 0.11050000E+02 -0.52880E+04
 0.11100000E+02 -0.60030E+04
 0.11150001E+02 -0.67410E+04
 0.11200000E+02 -0.74170E+04
 0.11250000E+02 -0.79050E+04
 0.11300000E+02 -0.81750E+04
 0.11350000E+02 -0.83320E+04
 0.11400001E+02 -0.84060E+04
 0.11450000E+02 -0.83860E+04
 0.11500000E+02 -0.85010E+04
 0.11550000E+02 -0.88580E+04
 0.11600000E+02 -0.94740E+04
 0.11650001E+02 -0.10493E+05
 0.11700000E+02 -0.11968E+05
 0.11750000E+02 -0.13808E+05
 0.11800000E+02 -0.15705E+05
 0.11850000E+02 -0.17242E+05
 0.11900001E+02 -0.18274E+05
 0.11950000E+02 -0.18797E+05
 0.12000000E+02 -0.18673E+05
 0.12050000E+02 -0.17834E+05
 0.12100000E+02 -0.16306E+05
 0.12150001E+02 -0.14371E+05
 0.12200000E+02 -0.12512E+05
 0.12250000E+02 -0.10881E+05
 0.12300000E+02 -0.92270E+04
 0.12350000E+02 -0.73980E+04
 0.12400001E+02 -0.56700E+04
 0.12450000E+02 -0.43600E+04
 0.12500000E+02 -0.33970E+04
 0.12550000E+02 -0.24020E+04
 0.12600000E+02 -0.11620E+04
 0.12650001E+02  0.32000E+03
 0.12700000E+02  0.18050E+04
 0.12750000E+02  0.28240E+04
 0.12800000E+02  0.32940E+04
 0.12850000E+02  0.34020E+04
 0.12900001E+02  0.32780E+04
 0.12950000E+02  0.30270E+04
 0.13000000E+02  0.26680E+04
 0.13050000E+02  0.22500E+04
 0.13100000E+02  0.17440E+04
 0.13150001E+02  0.11850E+04
 0.13200000E+02  0.83700E+03
 0.13250000E+02  0.66300E+03
 0.13300000E+02  0.39100E+03
 0.13350000E+02 -0.43000E+02
 0.13400001E+02 -0.60200E+03
 0.13450000E+02 -0.11790E+04
 0.13500000E+02 -0.16200E+04
 0.13550000E+02 -0.18060E+04
 0.13600000E+02 -0.17000E+04
 0.13650001E+02 -0.12910E+04
 0.13700000E+02 -0.46700E+03
 0.13750000E+02  0.91700E+03
 0.13800000E+02  0.28560E+04
 0.13850000E+02  0.49770E+04
 0.13900001E+02  0.67200E+04
 0.13950000E+02  0.79140E+04
 0.14000000E+02  0.86780E+04
 0.14050001E+02  0.90400E+04
 0.14100000E+02  0.90380E+04
 0.14150000E+02  0.86630E+04
 0.14200001E+02  0.80200E+04
 0.14250000E+02  0.74930E+04
 0.14300001E+02  0.72420E+04
 0.14350000E+02  0.70350E+04
 0.14400000E+02  0.66150E+04
 0.14450001E+02  0.60120E+04
 0.14500000E+02  0.54830E+04
 0.14550001E+02  0.51860E+04
 0.14600000E+02  0.50180E+04
 0.14650000E+02  0.45900E+04
 0.14700001E+02  0.35200E+04
 0.14750000E+02  0.19480E+04
 0.14800001E+02  0.12800E+03
 0.14850000E+02 -0.20110E+04
 0.14900000E+02 -0.42310E+04
 0.14950001E+02 -0.62600E+04
 0.15000000E+02 -0.78870E+04
 0.15050001E+02 -0.89680E+04
 0.15100000E+02 -0.99110E+04
 0.15150000E+02 -0.10667E+05
 0.15200001E+02 -0.11598E+05
 0.15250000E+02 -0.12849E+05
 0.15300001E+02 -0.15042E+05
 0.15350000E+02 -0.18220E+05
 0.15400000E+02 -0.27390E+05
 0.15450001E+02 -0.66958E+05
 0.15500000E+02 -0.14612E+06
 0.15550001E+02 -0.24011E+06
 0.15600000E+02 -0.30505E+06
 0.15650000E+02 -0.28007E+06
 0.15700001E+02 -0.16353E+06
 0.15750000E+02 -0.37647E+05
 0.15800001E+02  0.46078E+05
 0.15850000E+02  0.11360E+06
 0.15900000E+02  0.15068E+06
 0.15950001E+02  0.92633E+05
 0.16000000E+02 -0.40938E+05
 0.16050001E+02 -0.17718E+06
 0.16100000E+02 -0.29957E+06
 0.16150000E+02 -0.46887E+06
 0.16200001E+02 -0.79318E+06
 0.16250000E+02 -0.12167E+07
 0.16300001E+02 -0.12754E+07
 0.16350000E+02 -0.72188E+06
 0.16400000E+02 -0.13603E+06
 0.16450001E+02 -0.29683E+05
 0.16500000E+02 -0.72261E+05
 0.16550001E+02  0.19529E+06
 0.16600000E+02  0.58849E+06
 0.16650000E+02  0.79398E+06
 0.16700001E+02  0.84268E+06
 0.16750000E+02  0.63826E+06
 0.16800001E+02  0.27272E+06
 0.16850000E+02  0.25763E+06
 0.16900000E+02  0.42758E+06
 0.16950001E+02  0.35317E+06
 0.17000000E+02  0.24952E+06
 0.17050001E+02  0.16260E+06
 0.17100000E+02 -0.10152E+05
 0.17150000E+02  0.16433E+06
 0.17200001E+02  0.72787E+06
 0.17250000E+02  0.62496E+06
 0.17300001E+02 -0.20224E+06
 0.17350000E+02 -0.47222E+06
 0.17400000E+02 -0.78338E+05
 0.17450001E+02  0.20558E+06
 0.17500000E+02  0.18452E+05
 0.17550001E+02 -0.34937E+06
 0.17600000E+02 -0.28569E+06
 0.17650000E+02  0.55370E+04
 0.17700001E+02  0.57480E+05
 0.17750000E+02 -0.15345E+05
 0.17800001E+02 -0.72022E+05
 0.17850000E+02  0.24105E+05
 0.17900000E+02 -0.92430E+04
 0.17950001E+02 -0.41638E+06
 0.18000000E+02 -0.56686E+06
 0.18050001E+02 -0.43720E+06
 0.18100000E+02 -0.48867E+06
 0.18150000E+02 -0.49732E+06
 0.18200001E+02 -0.20593E+06
 0.18250000E+02  0.35823E+05
 0.18300001E+02  0.29399E+05
 0.18350000E+02  0.17650E+06
 0.18400000E+02  0.32887E+06
 0.18450001E+02  0.26347E+06
 0.18500000E+02  0.15574E+06
 0.18550001E+02 -0.35813E+05
 0.18600000E+02 -0.17089E+06
 0.18650000E+02 -0.30494E+05
 0.18700001E+02  0.24649E+06
 0.18750000E+02  0.26705E+06
 0.18800001E+02  0.14370E+06
 0.18850000E+02  0.13510E+06
 0.18900000E+02 -0.54837E+05
 0.18950001E+02 -0.22310E+06
 0.19000000E+02  0.38640E+05
 0.19050001E+02  0.35297E+06
 0.19100000E+02  0.42307E+06
 0.19150000E+02  0.40148E+06
 0.19200001E+02  0.36063E+06
 0.19250000E+02  0.34087E+06
 0.19300001E+02  0.28301E+06
 0.19350000E+02  0.16062E+06
 0.19400000E+02  0.37157E+06
 0.19450001E+02  0.73566E+06
 0.19500000E+02  0.50276E+06
 0.19550001E+02  0.22845E+05
 0.19600000E+02  0.85029E+05
 0.19650000E+02  0.41489E+06
 0.19700001E+02  0.31835E+06
 0.19750000E+02  0.19949E+06
 0.19800001E+02  0.37849E+06
 0.19850000E+02  0.30859E+06
 0.19900000E+02  0.90518E+05
 0.19950001E+02 -0.20939E+06
 0.20000000E+02 -0.48633E+06
 0.20050001E+02 -0.55446E+06
 0.20100000E+02 -0.48923E+06
 0.20150000E+02 -0.23742E+06
 0.20200001E+02 -0.24096E+06
 0.20250000E+02 -0.38212E+06
 0.20300001E+02 -0.26003E+06
 0.20350000E+02 -0.36428E+06
 0.20400000E+02 -0.66378E+06
 0.20450001E+02 -0.61202E+06
 0.20500000E+02 -0.32786E+06
 0.20550001E+02 -0.37981E+05
 0.20600000E+02  0.32834E+05
 0.20650000E+02  0.57676E+05
 0.20700001E+02  0.32644E+06
 0.20750000E+02  0.17605E+06
 0.20800001E+02 -0.18965E+06
 0.20850000E+02 -0.54547E+05
 0.20900000E+02  0.16510E+06
 0.20950001E+02  0.18027E+06
 0.21000000E+02  0.20428E+06
 0.21050001E+02  0.12469E+06
 0.21100000E+02 -0.53815E+05
 0.21150000E+02  0.51577E+05
 0.21200001E+02  0.20350E+06
 0.21250000E+02  0.16263E+06
 0.21300001E+02  0.10157E+06
 0.21350000E+02  0.18144E+06
 0.21400000E+02  0.47805E+06
 0.21450001E+02  0.43011E+06
 0.21500000E+02  0.55543E+05
 0.21550001E+02 -0.66118E+05
 0.21600000E+02 -0.13151E+06
 0.21650000E+02 -0.31148E+06
 0.21700001E+02 -0.45768E+06
 0.21750000E+02 -0.26911E+06
 0.21800001E+02  0.17190E+06
 0.21850000E+02  0.21827E+06
 0.21900000E+02  0.76899E+05
 0.21950001E+02  0.12441E+06
 0.22000000E+02  0.53009E+05
 0.22050001E+02 -0.58568E+05
 0.22100000E+02 -0.11845E+06
 0.22150000E+02 -0.15768E+06
 0.22200001E+02 -0.25863E+06
 0.22250000E+02 -0.44773E+06
 0.22300001E+02 -0.23976E+06
 0.22350000E+02  0.81500E+04
 0.22400000E+02 -0.65281E+05
 0.22450001E+02  0.47589E+05
 0.22500000E+02  0.23748E+06
 0.22550001E+02  0.39695E+06
 0.22600000E+02  0.65478E+06
 0.22650000E+02  0.78778E+06
 0.22700001E+02  0.68194E+06
 0.22750000E+02  0.50228E+06
 0.22800001E+02  0.48293E+06
 0.22850000E+02  0.67517E+06
 0.22900000E+02  0.82702E+06
 0.22950001E+02  0.66325E+06
 0.23000000E+02  0.41753E+06
 0.23050001E+02  0.39981E+06
 0.23100000E+02  0.43413E+06
 0.23150000E+02  0.31518E+06
 0.23200001E+02  0.15679E+06
 0.23250000E+02  0.14592E+06
 0.23300001E+02  0.44243E+05
 0.23350000E+02 -0.11592E+06
 0.23400000E+02 -0.13230E+06
 0.23450001E+02 -0.27231E+06
 0.23500000E+02 -0.47652E+05
 0.23550001E+02  0.67634E+06
 0.23600000E+02  0.10266E+07
 0.23650000E+02  0.77320E+06
 0.23700001E+02  0.25861E+06
 0.23750000E+02 -0.44779E+05
 0.23800001E+02 -0.77312E+05
 0.23850000E+02 -0.46042E+05
 0.23900000E+02  0.63005E+05
 0.23950001E+02  0.97175E+05
 0.24000000E+02 -0.98953E+05
 0.24050001E+02 -0.23056E+06
 0.24100000E+02 -0.81904E+05
 0.24150000E+02 -0.14601E+05
 0.24200001E+02 -0.17520E+06
 0.24250000E+02 -0.18393E+06
 0.24300001E+02  0.94114E+05
 0.24350000E+02  0.32980E+06
 0.24400000E+02  0.33436E+06
 0.24450001E+02  0.32337E+06
 0.24500000E+02  0.44469E+06
 0.24550001E+02  0.46102E+06
 0.24600000E+02  0.31281E+06
 0.24650000E+02  0.22020E+06
 0.24700001E+02  0.91030E+05
 0.24750000E+02 -0.56818E+05
 0.24800001E+02 -0.31711E+05
 0.24850000E+02 -0.19312E+05
 0.24900000E+02 -0.14036E+06
 0.24950001E+02 -0.24516E+06
 0.25000000E+02 -0.22781E+06
 0.25050001E+02 -0.66234E+05
 0.25100000E+02  0.97978E+05
 0.25150000E+02  0.11139E+06
 0.25200001E+02 -0.12708E+06
 0.25250000E+02 -0.54410E+06
 0.25300001E+02 -0.65219E+06
 0.25350000E+02 -0.39058E+06
 0.25400000E+02 -0.29769E+06
 0.25450001E+02 -0.46571E+06
 0.25500000E+02 -0.71277E+06
 0.25550001E+02 -0.93143E+06
 0.25600000E+02 -0.84450E+06
 0.25650000E+02 -0.44054E+06
 0.25700001E+02  0.79810E+04
 0.25750000E+02  0.41612E+06
 0.25800001E+02  0.45021E+06
 0.25850000E+02 -0.19442E+06
 0.25900000E+02 -0.63877E+06
 0.25950001E+02 -0.27148E+06
 0.26000000E+02  0.47350E+05
 0.26050001E+02 -0.25549E+06
 0.26100000E+02 -0.90104E+06
 0.26150000E+02 -0.10956E+07
 0.26200001E+02 -0.60130E+06
 0.26250000E+02 -0.36734E+06
 0.26300001E+02 -0.64428E+06
 0.26350000E+02 -0.72830E+06
 0.26400000E+02 -0.40730E+06
 0.26450001E+02 -0.10304E+06
 0.26500000E+02 -0.14766E+06
 0.26550001E+02 -0.56903E+06
 0.26600000E+02 -0.86033E+06
 0.26650000E+02 -0.74970E+06
 0.26700001E+02 -0.88798E+06
 0.26750000E+02 -0.11380E+07
 0.26800001E+02 -0.68101E+06
 0.26850000E+02  0.36903E+06
 0.26900000E+02  0.12131E+07
 0.26950001E+02  0.11587E+07
 0.27000000E+02  0.18572E+06
 0.27050001E+02 -0.88641E+06
 0.27100000E+02 -0.11972E+07
 0.27150000E+02 -0.78661E+06
 0.27200001E+02 -0.67491E+06
 0.27250000E+02 -0.97902E+06
 0.27300001E+02 -0.70116E+06
 0.27350000E+02 -0.23982E+06
 0.27400000E+02 -0.53632E+05
 0.27450001E+02 -0.36901E+05
 0.27500000E+02 -0.53082E+06
 0.27550001E+02 -0.88662E+06
 0.27600000E+02 -0.81184E+06
 0.27650000E+02 -0.87671E+06
 0.27700001E+02 -0.43688E+06
 0.27750000E+02  0.87186E+06
 0.27800001E+02  0.14069E+07
 0.27850000E+02  0.55560E+06
 0.27900000E+02 -0.24595E+06
 0.27950001E+02 -0.28231E+06
 0.28000000E+02  0.36955E+06
 0.28050001E+02  0.81996E+06
 0.28100000E+02  0.33873E+06
 0.28150000E+02 -0.39138E+06
 0.28200001E+02 -0.10261E+07
 0.28250000E+02 -0.10306E+07
 0.28300001E+02 -0.16578E+06
 0.28350000E+02 -0.65895E+05
 0.28400000E+02 -0.10960E+07
 0.28450001E+02 -0.14419E+07
 0.28500000E+02 -0.72054E+06
 0.28550001E+02 -0.87838E+05
 0.28600000E+02  0.17609E+06
 0.28650000E+02  0.31423E+06
 0.28700001E+02  0.37992E+06
 0.28750000E+02  0.65189E+06
 0.28800001E+02  0.97184E+06
 0.28850000E+02  0.91763E+06
 0.28900000E+02  0.84715E+06
 0.28950001E+02  0.74680E+06
 0.29000000E+02  0.12822E+06
 0.29050001E+02 -0.67730E+06
 0.29100000E+02 -0.12417E+07
 0.29150000E+02 -0.14918E+07
 0.29200001E+02 -0.14268E+07
 0.29250000E+02 -0.12279E+07
 0.29300001E+02 -0.84011E+06
 0.29350000E+02 -0.11836E+06
 0.29400000E+02  0.47466E+06
 0.29450001E+02  0.67601E+06
 0.29500000E+02  0.62811E+06
 0.29550001E+02  0.26446E+06
 0.29600000E+02 -0.55138E+05
 0.29650000E+02 -0.29071E+05
 0.29700001E+02 -0.79000E+03
 0.29750000E+02 -0.18909E+06
 0.29800001E+02 -0.32130E+06
 0.29850000E+02 -0.26040E+06
 0.29900000E+02 -0.32053E+06
 0.29950001E+02 -0.32124E+06
 0.30000000E+02  0.10105E+06
 0.30049999E+02  0.70807E+06
 0.30100002E+02  0.96080E+06
 0.30150002E+02  0.68814E+06
 0.30200001E+02  0.67157E+06
 0.30250000E+02  0.12160E+07
 0.30299999E+02  0.15466E+07
 0.30350002E+02  0.13793E+07
 0.30400002E+02  0.10655E+07
 0.30450001E+02  0.89526E+06
 0.30500000E+02  0.78222E+06
 0.30549999E+02  0.63456E+06
 0.30600002E+02  0.63939E+06
 0.30650002E+02  0.68778E+06
 0.30700001E+02  0.45983E+06
 0.30750000E+02  0.16053E+06
 0.30799999E+02  0.21615E+06
 0.30850002E+02  0.27811E+06
 0.30900002E+02  0.15230E+06
 0.30950001E+02  0.32205E+06
 0.31000000E+02  0.75568E+06
 0.31049999E+02  0.11431E+07
 0.31100002E+02  0.11485E+07
 0.31150002E+02  0.54854E+06
 0.31200001E+02 -0.11478E+06
 0.31250000E+02 -0.20459E+06
 0.31299999E+02  0.27982E+05
 0.31350002E+02 -0.66062E+05
 0.31400002E+02 -0.32454E+06
 0.31450001E+02 -0.38257E+06
 0.31500000E+02 -0.52164E+06
 0.31549999E+02 -0.54656E+06
 0.31600002E+02 -0.27791E+06
 0.31650002E+02  0.10926E+06
 0.31700001E+02  0.76049E+06
 0.31750000E+02  0.10539E+07
 0.31799999E+02  0.74372E+06
 0.31850002E+02  0.52819E+06
 0.31900002E+02  0.39416E+06
 0.31950001E+02  0.31359E+06
 0.32000000E+02  0.35691E+06
 0.32049999E+02  0.16668E+06
 0.32100002E+02 -0.69485E+05
 0.32150002E+02  0.19056E+06
 0.32200001E+02  0.79027E+06
 0.32250000E+02  0.91888E+06
 0.32299999E+02  0.29430E+06
 0.32350002E+02 -0.20644E+06
 0.32400002E+02 -0.46611E+05
 0.32450001E+02  0.60787E+06
 0.32500000E+02  0.14340E+07
 0.32549999E+02  0.16171E+07
 0.32600002E+02  0.12185E+07
 0.32650002E+02  0.92153E+06
 0.32700001E+02  0.52204E+06
 0.32750000E+02  0.95428E+05
 0.32799999E+02 -0.98597E+05
 0.32850002E+02 -0.30874E+06
 0.32900002E+02 -0.50623E+06
 0.32950001E+02 -0.53552E+06
 0.33000000E+02 -0.33089E+06
 0.33049999E+02 -0.51120E+04
 0.33100002E+02  0.10967E+06
 0.33150002E+02  0.13589E+06
 0.33200001E+02  0.39142E+06
 0.33250000E+02  0.67483E+06
 0.33299999E+02  0.74102E+06
 0.33350002E+02  0.63810E+06
 0.33400002E+02  0.32711E+06
 0.33450001E+02 -0.40507E+05
 0.33500000E+02 -0.15838E+06
 0.33549999E+02 -0.15921E+06
 0.33600002E+02 -0.17421E+06
 0.33650002E+02 -0.12079E+06
 0.33700001E+02 -0.71823E+05
 0.33750000E+02 -0.22285E+06
 0.33799999E+02 -0.60520E+06
 0.33850002E+02 -0.78724E+06
 0.33900002E+02 -0.63674E+06
 0.33950001E+02 -0.44731E+06
 0.34000000E+02 -0.22973E+06
 0.34049999E+02 -0.88633E+05
 0.34100002E+02  0.47811E+05
 0.34150002E+02  0.31791E+06
 0.34200001E+02  0.43206E+06
 0.34250000E+02  0.26510E+06
 0.34299999E+02 -0.78196E+05
 0.34350002E+02 -0.26867E+06
 0.34400002E+02 -0.46969E+05
 0.34450001E+02  0.34050E+06
 0.34500000E+02  0.57649E+06
 0.34549999E+02  0.47545E+06
 0.34600002E+02 -0.57590E+04
 0.34650002E+02 -0.52091E+06
 0.34700001E+02 -0.53079E+06
 0.34750000E+02 -0.73271E+05
 0.34799999E+02  0.23179E+06
 0.34850002E+02  0.25811E+06
 0.34900002E+02  0.37517E+06
 0.34950001E+02  0.53215E+06
 0.35000000E+02  0.49751E+06
 0.35049999E+02  0.36555E+06
 0.35100002E+02  0.35975E+06
 0.35150002E+02  0.29404E+06
 0.35200001E+02 -0.21057E+06
 0.35250000E+02 -0.74017E+06
 0.35299999E+02 -0.87070E+06
 0.35350002E+02 -0.95749E+06
 0.35400002E+02 -0.10513E+07
 0.35450001E+02 -0.82618E+06
 0.35500000E+02 -0.35931E+06
 0.35549999E+02  0.52850E+05
 0.35600002E+02  0.26354E+06
 0.35650002E+02  0.24099E+06
 0.35700001E+02  0.10063E+06
 0.35750000E+02  0.42090E+04
 0.35799999E+02 -0.78382E+05
 0.35850002E+02 -0.31417E+06
 0.35900002E+02 -0.72192E+06
 0.35950001E+02 -0.10363E+07
 0.36000000E+02 -0.97870E+06
 0.36049999E+02 -0.63234E+06
 0.36100002E+02 -0.45631E+06
 0.36150002E+02 -0.68805E+06
 0.36200001E+02 -0.10560E+07
 0.36250000E+02 -0.11311E+07
 0.36299999E+02 -0.83357E+06
 0.36350002E+02 -0.46969E+06
 0.36400002E+02 -0.92221E+05
 0.36450001E+02  0.20944E+06
 0.36500000E+02  0.20766E+06
 0.36549999E+02  0.13737E+06
 0.36600002E+02  0.19222E+06
 0.36650002E+02  0.25855E+06
 0.36700001E+02  0.14796E+06
 0.36750000E+02 -0.18938E+06
 0.36799999E+02 -0.45838E+06
 0.36850002E+02 -0.55794E+06
 0.36900002E+02 -0.64114E+06
 0.36950001E+02 -0.66400E+06
 0.37000000E+02 -0.67893E+06
 0.37049999E+02 -0.84563E+06
 0.37100002E+02 -0.89897E+06
 0.37150002E+02 -0.56582E+06
 0.37200001E+02 -0.17799E+06
 0.37250000E+02 -0.23203E+05
 0.37299999E+02  0.25744E+05
 0.37350002E+02 -0.22529E+05
 0.37400002E+02 -0.23287E+06
 0.37450001E+02 -0.43650E+06
 0.37500000E+02 -0.44517E+06
 0.37549999E+02 -0.32348E+06
 0.37600002E+02 -0.16353E+06
 0.37650002E+02  0.71838E+05
 0.37700001E+02  0.25163E+06
 0.37750000E+02  0.23253E+06
 0.37799999E+02  0.13036E+06
 0.37850002E+02  0.13324E+06
 0.37900002E+02  0.26006E+06
 0.37950001E+02  0.38337E+06
 0.38000000E+02  0.47016E+06
 0.38049999E+02  0.53033E+06
 0.38100002E+02  0.50617E+06
 0.38150002E+02  0.25381E+06
 0.38200001E+02 -0.20463E+06
 0.38250000E+02 -0.53458E+06
 0.38299999E+02 -0.64514E+06
 0.38350002E+02 -0.62662E+06
 0.38400002E+02 -0.45559E+06
 0.38450001E+02 -0.21639E+06
 0.38500000E+02 -0.50723E+05
 0.38549999E+02 -0.22224E+05
 0.38600002E+02 -0.83859E+05
 0.38650002E+02 -0.15637E+06
 0.38700001E+02 -0.24946E+06
 0.38750000E+02 -0.41444E+06
 0.38799999E+02 -0.53359E+06
 0.38850002E+02 -0.51739E+06
 0.38900002E+02 -0.47224E+06
 0.38950001E+02 -0.31416E+06
 0.39000000E+02  0.58323E+05
 0.39049999E+02  0.44836E+06
 0.39100002E+02  0.66891E+06
 0.39150002E+02  0.63904E+06
 0.39200001E+02  0.35402E+06
 0.39250000E+02  0.30555E+05
 0.39299999E+02 -0.12823E+06
 0.39350002E+02  0.87640E+04
 0.39400002E+02  0.41234E+06
 0.39450001E+02  0.72200E+06
 0.39500000E+02  0.78465E+06
 0.39549999E+02  0.62082E+06
 0.39600002E+02  0.23926E+06
 0.39650002E+02 -0.16095E+06
 0.39700001E+02 -0.46015E+06
 0.39750000E+02 -0.65305E+06
 0.39799999E+02 -0.77695E+06
 0.39850002E+02 -0.83477E+06
 0.39900002E+02 -0.79648E+06
 0.39950001E+02 -0.76416E+06
 0.40000000E+02 -0.74114E+06
 0.40049999E+02 -0.66520E+06
 0.40100002E+02 -0.52672E+06
 0.40150002E+02 -0.31943E+06
 0.40200001E+02 -0.10251E+06
 0.40250000E+02  0.10139E+06
 0.40299999E+02  0.26291E+06
 0.40350002E+02  0.34024E+06
 0.40400002E+02  0.24909E+06
 0.40450001E+02 -0.60705E+05
 0.40500000E+02 -0.32959E+06
 0.40549999E+02 -0.35544E+06
 0.40600002E+02 -0.21455E+06
 0.40650002E+02 -0.10396E+06
 0.40700001E+02 -0.95361E+05
 0.40750000E+02  0.47336E+05
 0.40799999E+02  0.33732E+06
 0.40850002E+02  0.54801E+06
 0.40900002E+02  0.61676E+06
 0.40950001E+02  0.54987E+06
 0.41000000E+02  0.46728E+06
 0.41049999E+02  0.46262E+06
 0.41100002E+02  0.43199E+06
 0.41150002E+02  0.42722E+06
 0.41200001E+02  0.57572E+06
 0.41250000E+02  0.71922E+06
 0.41299999E+02  0.65717E+06
 0.41350002E+02  0.36668E+06
 0.41400002E+02 -0.25476E+05
 0.41450001E+02 -0.33210E+06
 0.41500000E+02 -0.45561E+06
 0.41549999E+02 -0.43822E+06
 0.41600002E+02 -0.42122E+06
 0.41650002E+02 -0.43816E+06
 0.41700001E+02 -0.41662E+06
 0.41750000E+02 -0.38137E+06
 0.41799999E+02 -0.30684E+06
 0.41850002E+02 -0.16001E+06
 0.41900002E+02 -0.10053E+06
 0.41950001E+02 -0.16891E+06
 0.42000000E+02 -0.25086E+06
 0.42049999E+02 -0.29172E+06
 0.42100002E+02 -0.22961E+06
 0.42150002E+02 -0.76910E+05
 0.42200001E+02  0.10353E+06
 0.42250000E+02  0.33185E+06
 0.42299999E+02  0.60377E+06
 0.42350002E+02  0.74576E+06
 0.42400002E+02  0.62761E+06
 0.42450001E+02  0.38372E+06
 0.42500000E+02  0.11763E+06
 0.42549999E+02 -0.15226E+06
 0.42600002E+02 -0.28117E+06
 0.42650002E+02 -0.17261E+06
 0.42700001E+02  0.28873E+05
 0.42750000E+02  0.19064E+06
 0.42799999E+02  0.31425E+06
 0.42850002E+02  0.31128E+06
 0.42900002E+02  0.21549E+06
 0.42950001E+02  0.18926E+06
 0.43000000E+02  0.27527E+06
 0.43049999E+02  0.46679E+06
 0.43100002E+02  0.63379E+06
 0.43150002E+02  0.66966E+06
 0.43200001E+02  0.60056E+06
 0.43250000E+02  0.43772E+06
 0.43299999E+02  0.24553E+06
 0.43350002E+02  0.15246E+06
 0.43400002E+02  0.18948E+06
 0.43450001E+02  0.24267E+06
 0.43500000E+02  0.26308E+06
 0.43549999E+02  0.32030E+06
 0.43600002E+02  0.42691E+06
 0.43650002E+02  0.44722E+06
 0.43700001E+02  0.29134E+06
 0.43750000E+02  0.95183E+05
 0.43799999E+02 -0.40062E+05
 0.43850002E+02 -0.11325E+06
 0.43900002E+02 -0.17138E+06
 0.43950001E+02 -0.27472E+06
 0.44000000E+02 -0.32898E+06
 0.44049999E+02 -0.31994E+06
 0.44100002E+02 -0.32330E+06
 0.44150002E+02 -0.35553E+06
 0.44200001E+02 -0.48697E+06
 0.44250000E+02 -0.64813E+06
 0.44299999E+02 -0.65454E+06
 0.44350002E+02 -0.47624E+06
 0.44400002E+02 -0.24680E+06
 0.44450001E+02 -0.10003E+06
 0.44500000E+02  0.21772E+05
 0.44549999E+02  0.19206E+06
 0.44600002E+02  0.37414E+06
 0.44650002E+02  0.58875E+06
 0.44700001E+02  0.79726E+06
 0.44750000E+02  0.85663E+06
 0.44799999E+02  0.70789E+06
 0.44850002E+02  0.37292E+06
 0.44900002E+02 -0.13690E+05
 0.44950001E+02 -0.25294E+06
 0.45000000E+02 -0.32294E+06
 0.45049999E+02 -0.32419E+06
 0.45100002E+02 -0.26220E+06
 0.45150002E+02 -0.10380E+06
 0.45200001E+02  0.40558E+05
 0.45250000E+02  0.10255E+06
 0.45299999E+02  0.16058E+06
 0.45350002E+02  0.18303E+06
 0.45400002E+02  0.16951E+06
 0.45450001E+02  0.17472E+06
 0.45500000E+02  0.95929E+05
 0.45549999E+02 -0.81244E+05
 0.45600002E+02 -0.19298E+06
 0.45650002E+02 -0.16245E+06
 0.45700001E+02 -0.91373E+05
 0.45750000E+02 -0.89754E+05
 0.45799999E+02 -0.14452E+06
 0.45850002E+02 -0.18682E+06
 0.45900002E+02 -0.20107E+06
 0.45950001E+02 -0.21490E+06
 0.46000000E+02 -0.20986E+06
 0.46049999E+02 -0.20613E+06
 0.46100002E+02 -0.25482E+06
 0.46150002E+02 -0.29280E+06
 0.46200001E+02 -0.29445E+06
 0.46250000E+02 -0.26495E+06
 0.46299999E+02 -0.12255E+06
 0.46350002E+02  0.90211E+05
 0.46400002E+02  0.27852E+06
 0.46450001E+02  0.43252E+06
 0.46500000E+02  0.49565E+06
 0.46549999E+02  0.46715E+06
 0.46600002E+02  0.45249E+06
 0.46650002E+02  0.49664E+06
 0.46700001E+02  0.52634E+06
 0.46750000E+02  0.46905E+06
 0.46799999E+02  0.35419E+06
 0.46850002E+02  0.23650E+06
 0.46900002E+02  0.98911E+05
 0.46950001E+02 -0.78399E+05
 0.47000000E+02 -0.22433E+06
 0.47049999E+02 -0.33481E+06
 0.47100002E+02 -0.45934E+06
 0.47150002E+02 -0.53048E+06
 0.47200001E+02 -0.51130E+06
 0.47250000E+02 -0.49550E+06
 0.47299999E+02 -0.52189E+06
 0.47350002E+02 -0.49961E+06
 0.47400002E+02 -0.36508E+06
 0.47450001E+02 -0.19352E+06
 0.47500000E+02 -0.11737E+06
 0.47549999E+02 -0.75410E+05
 0.47600002E+02  0.41320E+04
 0.47650002E+02  0.48021E+05
 0.47700001E+02  0.12150E+06
 0.47750000E+02  0.22418E+06
 0.47799999E+02  0.27395E+06
 0.47850002E+02  0.32674E+06
 0.47900002E+02  0.35301E+06
 0.47950001E+02  0.29893E+06
 0.48000000E+02  0.20636E+06
 0.48049999E+02  0.78455E+05
 0.48100002E+02 -0.26145E+05
 0.48150002E+02 -0.49815E+05
 0.48200001E+02 -0.61985E+05
 0.48250000E+02 -0.92318E+05
 0.48299999E+02 -0.14605E+06
 0.48350002E+02 -0.16557E+06
 0.48400002E+02 -0.83966E+05
 0.48450001E+02  0.19380E+05
 0.48500000E+02  0.11407E+06
 0.48549999E+02  0.15726E+06
 0.48600002E+02  0.10644E+06
 0.48650002E+02  0.53217E+05
 0.48700001E+02  0.35966E+05
 0.48750000E+02  0.72708E+05
 0.48799999E+02  0.16456E+06
 0.48850002E+02  0.23758E+06
 0.48900002E+02  0.29042E+06
 0.48950001E+02  0.34330E+06
 0.49000000E+02  0.34015E+06
 0.49049999E+02  0.25167E+06
 0.49100002E+02  0.12957E+06
 0.49150002E+02  0.52559E+05
 0.49200001E+02  0.35659E+05
 0.49250000E+02  0.35252E+05
 0.49299999E+02  0.60153E+05
 0.49350002E+02  0.98971E+05
 0.49400002E+02  0.14592E+06
 0.49450001E+02  0.23730E+06
 0.49500000E+02  0.28516E+06
 0.49549999E+02  0.23074E+06
 0.49600002E+02  0.15054E+06
 0.49650002E+02  0.11300E+06
 0.49700001E+02  0.12367E+06
 0.49750000E+02  0.13152E+06
 0.49799999E+02  0.92853E+05
 0.49850002E+02  0.34777E+05
 0.49900002E+02  0.22194E+05
 0.49950001E+02  0.27141E+05
 0.50000000E+02  0.78940E+04
 0.50049999E+02 -0.29008E+05
 0.50100002E+02 -0.12396E+06
 0.50150002E+02 -0.26298E+06
 0.50200001E+02 -0.35407E+06
 0.50250000E+02 -0.33276E+06
 0.50299999E+02 -0.22652E+06
 0.50350002E+02 -0.11684E+06
 0.50400002E+02 -0.33389E+05
 0.50450001E+02  0.12155E+05
 0.50500000E+02  0.39678E+05
 0.50549999E+02  0.10917E+06
 0.50600002E+02  0.20442E+06
 0.50650002E+02  0.26329E+06
 0.50700001E+02  0.25026E+06
 0.50750000E+02  0.17277E+06
 0.50799999E+02  0.82914E+05
 0.50850002E+02 -0.35830E+04
 0.50900002E+02 -0.10753E+06
 0.50950001E+02 -0.18759E+06
 0.51000000E+02 -0.18528E+06
 0.51049999E+02 -0.15624E+06
 0.51100002E+02 -0.15991E+06
 0.51150002E+02 -0.13958E+06
 0.51200001E+02 -0.98857E+05
 0.51250000E+02 -0.88867E+05
 0.51299999E+02 -0.65481E+05
 0.51350002E+02 -0.15546E+05
 0.51400002E+02  0.19800E+03
 0.51450001E+02 -0.63733E+05
 0.51500000E+02 -0.18988E+06
 0.51549999E+02 -0.31975E+06
 0.51600002E+02 -0.43717E+06
 0.51650002E+02 -0.54687E+06
 0.51700001E+02 -0.61141E+06
 0.51750000E+02 -0.57740E+06
 0.51799999E+02 -0.48211E+06
 0.51850002E+02 -0.39986E+06
 0.51900002E+02 -0.32866E+06
 0.51950001E+02 -0.25335E+06
 0.52000000E+02 -0.17493E+06
 0.52049999E+02 -0.86487E+05
 0.52100002E+02  0.42848E+05
 0.52150002E+02  0.20566E+06
 0.52200001E+02  0.31887E+06
 0.52250000E+02  0.35136E+06
 0.52299999E+02  0.34745E+06
 0.52350002E+02  0.31099E+06
 0.52400002E+02  0.24922E+06
 0.52450001E+02  0.21058E+06
 0.52500000E+02  0.20538E+06
 0.52549999E+02  0.23257E+06
 0.52600002E+02  0.26544E+06
 0.52650002E+02  0.25596E+06
 0.52700001E+02  0.17967E+06
 0.52750000E+02  0.30310E+05
 0.52799999E+02 -0.15140E+06
 0.52850002E+02 -0.28925E+06
 0.52900002E+02 -0.31742E+06
 0.52950001E+02 -0.27580E+06
 0.53000000E+02 -0.26517E+06
 0.53049999E+02 -0.27750E+06
 0.53100002E+02 -0.25855E+06
 0.53150002E+02 -0.21930E+06
 0.53200001E+02 -0.16751E+06
 0.53250000E+02 -0.59922E+05
 0.53299999E+02  0.90148E+05
 0.53350002E+02  0.18552E+06
 0.53400002E+02  0.22847E+06
 0.53450001E+02  0.28705E+06
 0.53500000E+02  0.30967E+06
 0.53549999E+02  0.22494E+06
 0.53600002E+02  0.81204E+05
 0.53650002E+02 -0.25171E+05
 0.53700001E+02 -0.96306E+05
 0.53750000E+02 -0.15411E+06
 0.53799999E+02 -0.13184E+06
 0.53850002E+02 -0.41319E+05
 0.53900002E+02  0.29250E+04
 0.53950001E+02  0.52530E+04
 0.54000000E+02  0.48292E+05
 0.54049999E+02  0.90564E+05
 0.54100002E+02  0.10937E+06
 0.54150002E+02  0.15180E+06
 0.54200001E+02  0.14912E+06
 0.54250000E+02  0.56552E+05
 0.54299999E+02 -0.32925E+05
 0.54350002E+02 -0.45430E+05
 0.54400002E+02  0.57360E+04
 0.54450001E+02  0.59159E+05
 0.54500000E+02  0.89097E+05
 0.54549999E+02  0.12570E+06
 0.54600002E+02  0.16579E+06
 0.54650002E+02  0.19927E+06
 0.54700001E+02  0.23870E+06
 0.54750000E+02  0.26324E+06
 0.54799999E+02  0.27224E+06
 0.54850002E+02  0.27946E+06
 0.54900002E+02  0.25640E+06
 0.54950001E+02  0.20394E+06
 0.55000000E+02  0.14370E+06
 0.55049999E+02  0.82970E+05
 0.55100002E+02  0.65326E+05
 0.55150002E+02  0.89540E+05
 0.55200001E+02  0.67306E+05
 0.55250000E+02 -0.22785E+05
 0.55299999E+02 -0.12072E+06
 0.55350002E+02 -0.18990E+06
 0.55400002E+02 -0.21100E+06
 0.55450001E+02 -0.18040E+06
 0.55500000E+02 -0.11623E+06
 0.55549999E+02 -0.24972E+05
 0.55600002E+02  0.74826E+05
 0.55650002E+02  0.13346E+06
 0.55700001E+02  0.14122E+06
 0.55750000E+02  0.14853E+06
 0.55799999E+02  0.15799E+06
 0.55850002E+02  0.12142E+06
 0.55900002E+02  0.46279E+05
 0.55950001E+02 -0.16743E+05
 0.56000000E+02 -0.43015E+05
 0.56049999E+02 -0.38468E+05
 0.56100002E+02 -0.18025E+05
 0.56150002E+02  0.27300E+04
 0.56200001E+02  0.27090E+04
 0.56250000E+02 -0.47104E+05
 0.56299999E+02 -0.13020E+06
 0.56350002E+02 -0.17490E+06
 0.56400002E+02 -0.15804E+06
 0.56450001E+02 -0.10723E+06
 0.56500000E+02 -0.20735E+05
 0.56549999E+02  0.73471E+05
 0.56600002E+02  0.10184E+06
 0.56650002E+02  0.69528E+05
 0.56700001E+02  0.47510E+05
 0.56750000E+02  0.69530E+05
 0.56799999E+02  0.11429E+06
 0.56850002E+02  0.16020E+06
 0.56900002E+02  0.20989E+06
 0.56950001E+02  0.23048E+06
 0.57000000E+02  0.17572E+06
 0.57049999E+02  0.43760E+05
 0.57100002E+02 -0.12430E+06
 0.57150002E+02 -0.26415E+06
 0.57200001E+02 -0.35764E+06
 0.57250000E+02 -0.43277E+06
 0.57299999E+02 -0.48971E+06
 0.57350002E+02 -0.50217E+06
 0.57400002E+02 -0.45744E+06
 0.57450001E+02 -0.37059E+06
 0.57500000E+02 -0.28214E+06
 0.57549999E+02 -0.21136E+06
 0.57600002E+02 -0.14659E+06
 0.57650002E+02 -0.99577E+05
 0.57700001E+02 -0.84045E+05
 0.57750000E+02 -0.10430E+06
 0.57799999E+02 -0.14974E+06
 0.57850002E+02 -0.17826E+06
 0.57900002E+02 -0.18624E+06
 0.57950001E+02 -0.19212E+06
 0.58000000E+02 -0.18941E+06
 0.58049999E+02 -0.17974E+06
 0.58100002E+02 -0.14674E+06
 0.58150002E+02 -0.77118E+05
 0.58200001E+02 -0.17159E+05
 0.58250000E+02  0.10177E+05
 0.58299999E+02  0.45491E+05
 0.58350002E+02  0.97265E+05
 0.58400002E+02  0.12427E+06
 0.58450001E+02  0.10316E+06
 0.58500000E+02  0.54611E+05
 0.58549999E+02  0.21916E+05
 0.58600002E+02  0.11689E+05
 0.58650002E+02  0.31734E+05
 0.58700001E+02  0.13189E+06
 0.58750000E+02  0.26977E+06
 0.58799999E+02  0.33983E+06
 0.58850002E+02  0.32193E+06
 0.58900002E+02  0.25675E+06
 0.58950001E+02  0.17445E+06
 0.59000000E+02  0.73288E+05
 0.59049999E+02 -0.28997E+05
 0.59100002E+02 -0.82586E+05
 0.59150002E+02 -0.62165E+05
 0.59200001E+02 -0.72780E+04
 0.59250000E+02  0.12605E+05
 0.59299999E+02  0.53200E+04
 0.59350002E+02  0.29356E+05
 0.59400002E+02  0.86483E+05
 0.59450001E+02  0.13875E+06
 0.59500000E+02  0.16409E+06
 0.59549999E+02  0.16452E+06
 0.59600002E+02  0.15327E+06
 0.59650002E+02  0.12718E+06
 0.59700001E+02  0.89580E+05
 0.59750000E+02  0.46286E+05
 0.59799999E+02 -0.21333E+05
 0.59850002E+02 -0.91031E+05
 0.59900002E+02 -0.12640E+06
 0.59950001E+02 -0.11700E+06
 0.60000000E+02 -0.51930E+05
 0.60049999E+02  0.43474E+05
 0.60100002E+02  0.11895E+06
 0.60150002E+02  0.14582E+06
 0.60200001E+02  0.14163E+06
 0.60250000E+02  0.14537E+06
 0.60299999E+02  0.16501E+06
 0.60350002E+02  0.18632E+06
 0.60400002E+02  0.18581E+06
 0.60450001E+02  0.14550E+06
 0.60500000E+02  0.66204E+05
 0.60549999E+02 -0.33646E+05
 0.60600002E+02 -0.11699E+06
 0.60650002E+02 -0.15958E+06
 0.60700001E+02 -0.15540E+06
 0.60750000E+02 -0.10464E+06
 0.60799999E+02 -0.35321E+05
 0.60850002E+02  0.29278E+05
 0.60900002E+02  0.95748E+05
 0.60950001E+02  0.15514E+06
 0.61000000E+02  0.18228E+06
 0.61049999E+02  0.17494E+06
 0.61100002E+02  0.15849E+06
 0.61150002E+02  0.14932E+06
 0.61200001E+02  0.13890E+06
 0.61250000E+02  0.11485E+06
 0.61299999E+02  0.67310E+05
 0.61350002E+02 -0.17550E+04
 0.61400002E+02 -0.59462E+05
 0.61450001E+02 -0.74191E+05
 0.61500000E+02 -0.65920E+05
 0.61549999E+02 -0.83103E+05
 0.61600002E+02 -0.13064E+06
 0.61650002E+02 -0.15480E+06
 0.61700001E+02 -0.13151E+06
 0.61750000E+02 -0.91369E+05
 0.61799999E+02 -0.58582E+05
 0.61850002E+02 -0.37403E+05
 0.61900002E+02 -0.84840E+04
 0.61950001E+02  0.45533E+05
 0.62000000E+02  0.11339E+06
 0.62050003E+02  0.16756E+06
 0.62099998E+02  0.20054E+06
 0.62150002E+02  0.22086E+06
 0.62200005E+02  0.20282E+06
 0.62250000E+02  0.13567E+06
 0.62300003E+02  0.43584E+05
 0.62349998E+02 -0.56513E+05
 0.62400002E+02 -0.15412E+06
 0.62450005E+02 -0.24455E+06
 0.62500000E+02 -0.30412E+06
 0.62550003E+02 -0.31080E+06
 0.62599998E+02 -0.27705E+06
 0.62650002E+02 -0.22472E+06
 0.62700005E+02 -0.17235E+06
 0.62750000E+02 -0.12606E+06
 0.62800003E+02 -0.78791E+05
 0.62849998E+02 -0.28192E+05
 0.62900002E+02  0.14296E+05
 0.62950005E+02  0.42958E+05
 0.63000000E+02  0.66115E+05
 0.63050003E+02  0.78205E+05
 0.63099998E+02  0.68504E+05
 0.63150002E+02  0.53384E+05
 0.63200005E+02  0.47473E+05
 0.63250000E+02  0.36509E+05
 0.63300003E+02  0.14860E+05
 0.63349998E+02 -0.16514E+05
 0.63400002E+02 -0.72420E+05
 0.63450005E+02 -0.14388E+06
 0.63500000E+02 -0.19362E+06
 0.63550003E+02 -0.19659E+06
 0.63599998E+02 -0.15901E+06
 0.63650002E+02 -0.10252E+06
 0.63700005E+02 -0.50890E+05
 0.63750000E+02 -0.19377E+05
 0.63800003E+02  0.21794E+05
 0.63849998E+02  0.99504E+05
 0.63900002E+02  0.18912E+06
 0.63950005E+02  0.25030E+06
 0.64000000E+02  0.26346E+06
 0.64050003E+02  0.24317E+06
 0.64099998E+02  0.20365E+06
 0.64150002E+02  0.14687E+06
 0.64200005E+02  0.74789E+05
 0.64250000E+02 -0.37010E+04
 0.64300003E+02 -0.68203E+05
 0.64349998E+02 -0.97089E+05
 0.64400002E+02 -0.85620E+05
 0.64450005E+02 -0.69969E+05
 0.64500000E+02 -0.77334E+05
 0.64550003E+02 -0.76763E+05
 0.64599998E+02 -0.57134E+05
 0.64650002E+02 -0.54632E+05
 0.64700005E+02 -0.56651E+05
 0.64750000E+02 -0.27133E+05
 0.64800003E+02  0.10371E+05
 0.64849998E+02  0.24109E+05
 0.64900002E+02  0.12491E+05
 0.64950005E+02 -0.23972E+05
 0.65000000E+02 -0.83158E+05
 0.65050003E+02 -0.14854E+06
 0.65099998E+02 -0.19399E+06
 0.65150002E+02 -0.20873E+06
 0.65200005E+02 -0.21049E+06
 0.65250000E+02 -0.20319E+06
 0.65300003E+02 -0.17746E+06
 0.65349998E+02 -0.15015E+06
 0.65400002E+02 -0.13838E+06
 0.65450005E+02 -0.13644E+06
 0.65500000E+02 -0.12156E+06
 0.65550003E+02 -0.93791E+05
 0.65599998E+02 -0.76312E+05
 0.65650002E+02 -0.61051E+05
 0.65700005E+02 -0.38035E+05
 0.65750000E+02 -0.14635E+05
 0.65800003E+02  0.47040E+04
 0.65849998E+02  0.70600E+03
 0.65900002E+02 -0.38191E+05
 0.65950005E+02 -0.94296E+05
 0.66000000E+02 -0.14171E+06
 0.66050003E+02 -0.15776E+06
 0.66099998E+02 -0.14204E+06
 0.66150002E+02 -0.98958E+05
 0.66200005E+02 -0.36436E+05
 0.66250000E+02  0.10658E+05
 0.66300003E+02  0.34057E+05
 0.66349998E+02  0.48170E+05
 0.66400002E+02  0.52246E+05
 0.66450005E+02  0.56841E+05
 0.66500000E+02  0.81976E+05
 0.66550003E+02  0.12025E+06
 0.66599998E+02  0.14750E+06
 0.66650002E+02  0.16092E+06
 0.66700005E+02  0.15241E+06
 0.66750000E+02  0.11854E+06
 0.66800003E+02  0.78141E+05
 0.66849998E+02  0.38949E+05
 0.66900002E+02  0.59940E+04
 0.66950005E+02 -0.25851E+05
 0.67000000E+02 -0.63161E+05
 0.67050003E+02 -0.10310E+06
 0.67099998E+02 -0.14796E+06
 0.67150002E+02 -0.18335E+06
 0.67200005E+02 -0.17824E+06
 0.67250000E+02 -0.12333E+06
 0.67300003E+02 -0.60955E+05
 0.67349998E+02 -0.35069E+05
 0.67400002E+02 -0.35644E+05
 0.67450005E+02 -0.36893E+05
 0.67500000E+02 -0.21466E+05
 0.67550003E+02  0.20001E+05
 0.67599998E+02  0.79634E+05
 0.67650002E+02  0.14444E+06
 0.67700005E+02  0.19759E+06
 0.67750000E+02  0.22373E+06
 0.67800003E+02  0.22345E+06
 0.67849998E+02  0.19516E+06
 0.67900002E+02  0.14310E+06
 0.67950005E+02  0.94540E+05
 0.68000000E+02  0.60135E+05
 0.68050003E+02  0.34463E+05
 0.68099998E+02  0.30894E+05
 0.68150002E+02  0.51137E+05
 0.68200005E+02  0.70946E+05
 0.68250000E+02  0.77443E+05
 0.68300003E+02  0.67767E+05
 0.68349998E+02  0.43267E+05
 0.68400002E+02  0.18576E+05
 0.68450005E+02  0.19830E+04
 0.68500000E+02 -0.68210E+04
 0.68550003E+02 -0.15318E+05
 0.68599998E+02 -0.39226E+05
 0.68650002E+02 -0.78819E+05
 0.68700005E+02 -0.11560E+06
 0.68750000E+02 -0.13294E+06
 0.68800003E+02 -0.13885E+06
 0.68849998E+02 -0.14686E+06
 0.68900002E+02 -0.15043E+06
 0.68950005E+02 -0.14838E+06
 0.69000000E+02 -0.14848E+06
 0.69050003E+02 -0.14598E+06
 0.69099998E+02 -0.12748E+06
 0.69150002E+02 -0.94382E+05
 0.69200005E+02 -0.55725E+05
 0.69250000E+02 -0.11300E+05
 0.69300003E+02  0.35747E+05
 0.69349998E+02  0.91543E+05
 0.69400002E+02  0.15843E+06
 0.69450005E+02  0.20884E+06
 0.69500000E+02  0.22928E+06
 0.69550003E+02  0.22891E+06
 0.69599998E+02  0.20513E+06
 0.69650002E+02  0.16750E+06
 0.69700005E+02  0.14801E+06
 0.69750000E+02  0.15936E+06
 0.69800003E+02  0.19049E+06
 0.69849998E+02  0.22726E+06
 0.69900002E+02  0.25125E+06
 0.69950005E+02  0.25369E+06
 0.70000000E+02  0.24081E+06
 0.70050003E+02  0.20576E+06
 0.70099998E+02  0.14278E+06
 0.70150002E+02  0.72403E+05
 0.70200005E+02  0.12966E+05
 0.70250000E+02 -0.34734E+05
 0.70300003E+02 -0.60560E+05
 0.70349998E+02 -0.58335E+05
 0.70400002E+02 -0.51562E+05
 0.70450005E+02 -0.57610E+05
 0.70500000E+02 -0.70978E+05
 0.70550003E+02 -0.70509E+05
 0.70599998E+02 -0.44610E+05
 0.70650002E+02 -0.15601E+05
 0.70700005E+02  0.27700E+04
 0.70750000E+02  0.14544E+05
 0.70800003E+02  0.21063E+05
 0.70849998E+02  0.31356E+05
 0.70900002E+02  0.48303E+05
 0.70950005E+02  0.52057E+05
 0.71000000E+02  0.32207E+05
 0.71050003E+02  0.30640E+04
 0.71099998E+02 -0.20872E+05
 0.71150002E+02 -0.21876E+05
 0.71200005E+02  0.71820E+04
 0.71250000E+02  0.50535E+05
 0.71300003E+02  0.95839E+05
 0.71349998E+02  0.12976E+06
 0.71400002E+02  0.14479E+06
 0.71450005E+02  0.15765E+06
 0.71500000E+02  0.18150E+06
 0.71550003E+02  0.20538E+06
 0.71599998E+02  0.20977E+06
 0.71650002E+02  0.19415E+06
 0.71700005E+02  0.17163E+06
 0.71750000E+02  0.14409E+06
 0.71800003E+02  0.10836E+06
 0.71849998E+02  0.59996E+05
 0.71900002E+02 -0.19330E+04
 0.71950005E+02 -0.66124E+05
 0.72000000E+02 -0.12036E+06
 0.72050003E+02 -0.15999E+06
 0.72099998E+02 -0.18668E+06
 0.72150002E+02 -0.19658E+06
 0.72200005E+02 -0.17999E+06
 0.72250000E+02 -0.14154E+06
 0.72300003E+02 -0.10439E+06
 0.72349998E+02 -0.89421E+05
 0.72400002E+02 -0.93168E+05
 0.72450005E+02 -0.10047E+06
 0.72500000E+02 -0.11022E+06
 0.72550003E+02 -0.13019E+06
 0.72599998E+02 -0.16304E+06
 0.72650002E+02 -0.20340E+06
 0.72700005E+02 -0.23989E+06
 0.72750000E+02 -0.26127E+06
 0.72800003E+02 -0.25806E+06
 0.72849998E+02 -0.22666E+06
 0.72900002E+02 -0.17845E+06
 0.72950005E+02 -0.12463E+06
 0.73000000E+02 -0.68316E+05
 0.73050003E+02 -0.10721E+05
 0.73099998E+02  0.51120E+05
 0.73150002E+02  0.10623E+06
 0.73200005E+02  0.13681E+06
 0.73250000E+02  0.14678E+06
 0.73300003E+02  0.14844E+06
 0.73349998E+02  0.14784E+06
 0.73400002E+02  0.14566E+06
 0.73450005E+02  0.14218E+06
 0.73500000E+02  0.14174E+06
 0.73550003E+02  0.13539E+06
 0.73599998E+02  0.10887E+06
 0.73650002E+02  0.75507E+05
 0.73700005E+02  0.54882E+05
 0.73750000E+02  0.39037E+05
 0.73800003E+02  0.93720E+04
 0.73849998E+02 -0.37230E+05
 0.73900002E+02 -0.83840E+05
 0.73950005E+02 -0.11340E+06
 0.74000000E+02 -0.12253E+06
 0.74050003E+02 -0.11329E+06
 0.74099998E+02 -0.98863E+05
 0.74150002E+02 -0.91191E+05
 0.74200005E+02 -0.86764E+05
 0.74250000E+02 -0.84458E+05
 0.74300003E+02 -0.80376E+05
 0.74349998E+02 -0.65359E+05
 0.74400002E+02 -0.43853E+05
 0.74450005E+02 -0.32399E+05
 0.74500000E+02 -0.36728E+05
 0.74550003E+02 -0.44689E+05
 0.74599998E+02 -0.46255E+05
 0.74650002E+02 -0.38854E+05
 0.74700005E+02 -0.25961E+05
 0.74750000E+02 -0.73700E+04
 0.74800003E+02  0.24770E+05
 0.74849998E+02  0.55251E+05
 0.74900002E+02  0.60544E+05
 0.74950005E+02  0.47368E+05
 0.75000000E+02  0.32876E+05
 0.75050003E+02  0.22367E+05
 0.75099998E+02  0.17199E+05
 0.75150002E+02  0.15277E+05
 0.75200005E+02  0.12139E+05
 0.75250000E+02  0.10055E+05
 0.75300003E+02  0.16017E+05
 0.75349998E+02  0.34606E+05
 0.75400002E+02  0.59841E+05
 0.75450005E+02  0.79833E+05
 0.75500000E+02  0.88990E+05
 0.75550003E+02  0.86834E+05
 0.75599998E+02  0.77745E+05
 0.75650002E+02  0.70000E+05
 0.75700005E+02  0.64595E+05
 0.75750000E+02  0.56787E+05
 0.75800003E+02  0.51895E+05
 0.75849998E+02  0.56777E+05
 0.75900002E+02  0.66280E+05
 0.75950005E+02  0.73977E+05
 0.76000000E+02  0.75630E+05
 0.76050003E+02  0.64073E+05
 0.76099998E+02  0.37406E+05
 0.76150002E+02  0.33960E+04
 0.76200005E+02 -0.27816E+05
 0.76250000E+02 -0.44565E+05
 0.76300003E+02 -0.40173E+05
 0.76349998E+02 -0.12449E+05
 0.76400002E+02  0.36946E+05
 0.76450005E+02  0.88388E+05
 0.76500000E+02  0.12628E+06
 0.76550003E+02  0.14997E+06
 0.76599998E+02  0.15684E+06
 0.76650002E+02  0.15147E+06
 0.76700005E+02  0.13457E+06
 0.76750000E+02  0.10281E+06
 0.76800003E+02  0.72046E+05
 0.76849998E+02  0.48370E+05
 0.76900002E+02  0.17521E+05
 0.76950005E+02 -0.21501E+05
 0.77000000E+02 -0.52671E+05
 0.77050003E+02 -0.64797E+05
 0.77099998E+02 -0.69833E+05
 0.77150002E+02 -0.85039E+05
 0.77200005E+02 -0.10658E+06
 0.77250000E+02 -0.12248E+06
 0.77300003E+02 -0.13180E+06
 0.77349998E+02 -0.13465E+06
 0.77400002E+02 -0.12490E+06
 0.77450005E+02 -0.11245E+06
 0.77500000E+02 -0.11188E+06
 0.77550003E+02 -0.11310E+06
 0.77599998E+02 -0.10934E+06
 0.77650002E+02 -0.10747E+06
 0.77700005E+02 -0.10320E+06
 0.77750000E+02 -0.97064E+05
 0.77800003E+02 -0.97640E+05
 0.77849998E+02 -0.10451E+06
 0.77900002E+02 -0.12264E+06
 0.77950005E+02 -0.14760E+06
 0.78000000E+02 -0.15238E+06
 0.78050003E+02 -0.12976E+06
 0.78099998E+02 -0.98244E+05
 0.78150002E+02 -0.72505E+05
 0.78200005E+02 -0.52856E+05
 0.78250000E+02 -0.25058E+05
 0.78300003E+02  0.22851E+05
 0.78349998E+02  0.82683E+05
 0.78400002E+02  0.12796E+06
 0.78450005E+02  0.15143E+06
 0.78500000E+02  0.17296E+06
 0.78550003E+02  0.19276E+06
 0.78599998E+02  0.20648E+06
 0.78650002E+02  0.22249E+06
 0.78700005E+02  0.23432E+06
 0.78750000E+02  0.23720E+06
 0.78800003E+02  0.23236E+06
 0.78849998E+02  0.20967E+06
 0.78900002E+02  0.16387E+06
 0.78950005E+02  0.10466E+06
 0.79000000E+02  0.48947E+05
 0.79050003E+02  0.88630E+04
 0.79099998E+02 -0.17725E+05
 0.79150002E+02 -0.41224E+05
 0.79200005E+02 -0.67696E+05
 0.79250000E+02 -0.87123E+05
 0.79300003E+02 -0.86555E+05
 0.79349998E+02 -0.73414E+05
 0.79400002E+02 -0.61558E+05
 0.79450005E+02 -0.56498E+05
 0.79500000E+02 -0.59765E+05
 0.79550003E+02 -0.72337E+05
 0.79599998E+02 -0.95362E+05
 0.79650002E+02 -0.12288E+06
 0.79700005E+02 -0.14667E+06
 0.79750000E+02 -0.16709E+06
 0.79800003E+02 -0.19114E+06
 0.79849998E+02 -0.22218E+06
 0.79900002E+02 -0.25181E+06
 0.79950005E+02 -0.26581E+06
 0.80000000E+02 -0.25260E+06
 0.80050003E+02 -0.22086E+06
 0.80099998E+02 -0.19404E+06
 0.80150002E+02 -0.17896E+06
 0.80200005E+02 -0.17204E+06
 0.80250000E+02 -0.16142E+06
 0.80300003E+02 -0.13060E+06
 0.80349998E+02 -0.93503E+05
 0.80400002E+02 -0.71615E+05
 0.80450005E+02 -0.57346E+05
 0.80500000E+02 -0.36715E+05
 0.80550003E+02 -0.10171E+05
 0.80599998E+02  0.99740E+04
 0.80650002E+02  0.21076E+05
 0.80700005E+02  0.31480E+05
 0.80750000E+02  0.41940E+05
 0.80800003E+02  0.50698E+05
 0.80849998E+02  0.54035E+05
 0.80900002E+02  0.50388E+05
 0.80950005E+02  0.44340E+05
 0.81000000E+02  0.41078E+05
 0.81050003E+02  0.52480E+05
 0.81099998E+02  0.87738E+05
 0.81150002E+02  0.13314E+06
 0.81200005E+02  0.16613E+06
 0.81250000E+02  0.18135E+06
 0.81300003E+02  0.18004E+06
 0.81349998E+02  0.15993E+06
 0.81400002E+02  0.12466E+06
 0.81450005E+02  0.80341E+05
 0.81500000E+02  0.30904E+05
 0.81550003E+02 -0.18274E+05
 0.81599998E+02 -0.60533E+05
 0.81650002E+02 -0.89690E+05
 0.81700005E+02 -0.10615E+06
 0.81750000E+02 -0.11987E+06
 0.81800003E+02 -0.12684E+06
 0.81849998E+02 -0.11156E+06
 0.81900002E+02 -0.80051E+05
 0.81950005E+02 -0.47648E+05
 0.82000000E+02 -0.15356E+05
 0.82050003E+02  0.23159E+05
 0.82099998E+02  0.64867E+05
 0.82150002E+02  0.94814E+05
 0.82200005E+02  0.10268E+06
 0.82250000E+02  0.93610E+05
 0.82300003E+02  0.82283E+05
 0.82349998E+02  0.75337E+05
 0.82400002E+02  0.65937E+05
 0.82450005E+02  0.50201E+05
 0.82500000E+02  0.38499E+05
 0.82550003E+02  0.40569E+05
 0.82599998E+02  0.47963E+05
 0.82650002E+02  0.50825E+05
 0.82700005E+02  0.51834E+05
 0.82750000E+02  0.52553E+05
 0.82800003E+02  0.49971E+05
 0.82849998E+02  0.39910E+05
 0.82900002E+02  0.21013E+05
 0.82950005E+02 -0.22210E+04
 0.83000000E+02 -0.26305E+05
 0.83050003E+02 -0.45042E+05
 0.83099998E+02 -0.49301E+05
 0.83150002E+02 -0.41383E+05
 0.83200005E+02 -0.31867E+05
 0.83250000E+02 -0.20523E+05
 0.83300003E+02  0.19470E+04
 0.83349998E+02  0.36328E+05
 0.83400002E+02  0.82108E+05
 0.83450005E+02  0.13927E+06
 0.83500000E+02  0.18906E+06
 0.83550003E+02  0.21074E+06
 0.83599998E+02  0.20504E+06
 0.83650002E+02  0.18529E+06
 0.83700005E+02  0.16462E+06
 0.83750000E+02  0.14436E+06
 0.83800003E+02  0.12304E+06
 0.83849998E+02  0.10739E+06
 0.83900002E+02  0.99162E+05
 0.83950005E+02  0.94496E+05
 0.84000000E+02  0.91434E+05
 0.84050003E+02  0.87342E+05
 0.84099998E+02  0.77797E+05
 0.84150002E+02  0.67757E+05
 0.84200005E+02  0.72275E+05
 0.84250000E+02  0.93579E+05
 0.84300003E+02  0.11944E+06
 0.84349998E+02  0.14005E+06
 0.84400002E+02  0.14651E+06
 0.84450005E+02  0.13455E+06
 0.84500000E+02  0.11296E+06
 0.84550003E+02  0.82869E+05
 0.84599998E+02  0.37403E+05
 0.84650002E+02 -0.17441E+05
 0.84700005E+02 -0.70267E+05
 0.84750000E+02 -0.10972E+06
 0.84800003E+02 -0.13462E+06
 0.84849998E+02 -0.15784E+06
 0.84900002E+02 -0.18265E+06
 0.84950005E+02 -0.19989E+06
 0.85000000E+02 -0.20369E+06
 0.85050003E+02 -0.19398E+06
 0.85099998E+02 -0.16992E+06
 0.85150002E+02 -0.13485E+06
 0.85200005E+02 -0.98779E+05
 0.85250000E+02 -0.71239E+05
 0.85300003E+02 -0.57974E+05
 0.85349998E+02 -0.56714E+05
 0.85400002E+02 -0.64650E+05
 0.85450005E+02 -0.82464E+05
 0.85500000E+02 -0.10424E+06
 0.85550003E+02 -0.11979E+06
 0.85599998E+02 -0.12297E+06
 0.85650002E+02 -0.11065E+06
 0.85700005E+02 -0.82092E+05
 0.85750000E+02 -0.42444E+05
 0.85800003E+02 -0.23420E+04
 0.85849998E+02  0.27750E+05
 0.85900002E+02  0.42771E+05
 0.85950005E+02  0.44036E+05
 0.86000000E+02  0.37418E+05
 0.86050003E+02  0.23400E+05
 0.86099998E+02 -0.96400E+03
 0.86150002E+02 -0.29317E+05
 0.86200005E+02 -0.51729E+05
 0.86250000E+02 -0.62935E+05
 0.86300003E+02 -0.62183E+05
 0.86349998E+02 -0.50880E+05
 0.86400002E+02 -0.35370E+05
 0.86450005E+02 -0.22702E+05
 0.86500000E+02 -0.13136E+05
 0.86550003E+02 -0.10592E+05
 0.86599998E+02 -0.17375E+05
 0.86650002E+02 -0.21602E+05
 0.86700005E+02 -0.15335E+05
 0.86750000E+02 -0.75060E+04
 0.86800003E+02 -0.87420E+04
 0.86849998E+02 -0.19966E+05
 0.86900002E+02 -0.34094E+05
 0.86950005E+02 -0.45004E+05
 0.87000000E+02 -0.54678E+05
 0.87050003E+02 -0.60758E+05
 0.87099998E+02 -0.52887E+05
 0.87150002E+02 -0.31403E+05
 0.87200005E+02 -0.10349E+05
 0.87250000E+02 -0.12320E+04
 0.87300003E+02 -0.33740E+04
 0.87349998E+02 -0.72830E+04
 0.87400002E+02 -0.54020E+04
 0.87450005E+02 -0.31500E+04
 0.87500000E+02 -0.10661E+05
 0.87550003E+02 -0.24995E+05
 0.87599998E+02 -0.39192E+05
 0.87650002E+02 -0.56506E+05
 0.87700005E+02 -0.82249E+05
 0.87750000E+02 -0.11345E+06
 0.87800003E+02 -0.14063E+06
 0.87849998E+02 -0.15973E+06
 0.87900002E+02 -0.16993E+06
 0.87950005E+02 -0.16413E+06
 0.88000000E+02 -0.13854E+06
 0.88050003E+02 -0.94705E+05
 0.88099998E+02 -0.40247E+05
 0.88150002E+02  0.11233E+05
 0.88200005E+02  0.57980E+05
 0.88250000E+02  0.10095E+06
 0.88300003E+02  0.12759E+06
 0.88349998E+02  0.12650E+06
 0.88400002E+02  0.10247E+06
 0.88450005E+02  0.73705E+05
 0.88500000E+02  0.51189E+05
 0.88550003E+02  0.29729E+05
 0.88599998E+02  0.64130E+04
 0.88650002E+02 -0.12153E+05
 0.88700005E+02 -0.24220E+05
 0.88750000E+02 -0.37051E+05
 0.88800003E+02 -0.51812E+05
 0.88849998E+02 -0.59679E+05
 0.88900002E+02 -0.57652E+05
 0.88950005E+02 -0.51101E+05
 0.89000000E+02 -0.40568E+05
 0.89050003E+02 -0.22174E+05
 0.89099998E+02  0.12320E+04
 0.89150002E+02  0.25741E+05
 0.89200005E+02  0.55138E+05
 0.89250000E+02  0.85683E+05
 0.89300003E+02  0.10139E+06
 0.89349998E+02  0.94194E+05
 0.89400002E+02  0.71302E+05
 0.89450005E+02  0.48533E+05
 0.89500000E+02  0.36250E+05
 0.89550003E+02  0.30297E+05
 0.89599998E+02  0.25299E+05
 0.89650002E+02  0.20595E+05
 0.89700005E+02  0.16920E+05
 0.89750000E+02  0.15174E+05
 0.89800003E+02  0.14171E+05
 0.89849998E+02  0.13867E+05
 0.89900002E+02  0.13953E+05
 0.89950005E+02  0.15398E+05
 0.90000000E+02  0.18491E+05
 0.90050003E+02  0.21440E+05
 0.90099998E+02  0.28755E+05
 0.90150002E+02  0.42462E+05
 0.90200005E+02  0.55061E+05
 0.90250000E+02  0.60704E+05
 0.90300003E+02  0.62069E+05
 0.90349998E+02  0.65938E+05
 0.90400002E+02  0.76450E+05
 0.90450005E+02  0.94406E+05
 0.90500000E+02  0.11738E+06
 0.90550003E+02  0.13580E+06
 0.90599998E+02  0.14195E+06
 0.90650002E+02  0.14178E+06
 0.90700005E+02  0.14208E+06
 0.90750000E+02  0.13802E+06
 0.90800003E+02  0.12088E+06
 0.90849998E+02  0.91041E+05
 0.90900002E+02  0.56658E+05
 0.90950005E+02  0.24072E+05
 0.91000000E+02 -0.33500E+04
 0.91050003E+02 -0.26234E+05
 0.91099998E+02 -0.47311E+05
 0.91150002E+02 -0.65810E+05
 0.91200005E+02 -0.74611E+05
 0.91250000E+02 -0.68201E+05
 0.91300003E+02 -0.53074E+05
 0.91349998E+02 -0.37982E+05
 0.91400002E+02 -0.26931E+05
 0.91450005E+02 -0.19207E+05
 0.91500000E+02 -0.67470E+04
 0.91550003E+02  0.16372E+05
 0.91599998E+02  0.49135E+05
 0.91650002E+02  0.83836E+05
 0.91700005E+02  0.10573E+06
 0.91750000E+02  0.10849E+06
 0.91800003E+02  0.98902E+05
 0.91849998E+02  0.79622E+05
 0.91900002E+02  0.50605E+05
 0.91950005E+02  0.21271E+05
 0.92000000E+02  0.21000E+03
 0.92050003E+02 -0.12401E+05
 0.92099998E+02 -0.16400E+05
 0.92150002E+02 -0.11183E+05
 0.92200005E+02 -0.14080E+04
 0.92250000E+02  0.52940E+04
 0.92300003E+02  0.72500E+04
 0.92349998E+02  0.92000E+04
 0.92400002E+02  0.13000E+05
 0.92450005E+02  0.18155E+05
 0.92500000E+02  0.22710E+05
 0.92550003E+02  0.19546E+05
 0.92599998E+02  0.67710E+04
 0.92650002E+02 -0.72080E+04
 0.92700005E+02 -0.14024E+05
 0.92750000E+02 -0.11789E+05
 0.92800003E+02 -0.20370E+04
 0.92849998E+02  0.14002E+05
 0.92900002E+02  0.31751E+05
 0.92950005E+02  0.44316E+05
 0.93000000E+02  0.48406E+05
 0.93050003E+02  0.47319E+05
 0.93099998E+02  0.49015E+05
 0.93150002E+02  0.55972E+05
 0.93200005E+02  0.60287E+05
 0.93250000E+02  0.52738E+05
 0.93300003E+02  0.33159E+05
 0.93349998E+02  0.87680E+04
 0.93400002E+02 -0.13112E+05
 0.93450005E+02 -0.29587E+05
 0.93500000E+02 -0.43022E+05
 0.93550003E+02 -0.52494E+05
 0.93599998E+02 -0.53676E+05
 0.93650002E+02 -0.50368E+05
 0.93700005E+02 -0.46993E+05
 0.93750000E+02 -0.40701E+05
 0.93800003E+02 -0.28632E+05
 0.93849998E+02 -0.10055E+05
 0.93900002E+02  0.11263E+05
 0.93950005E+02  0.25950E+05
 0.94000000E+02  0.26212E+05
 0.94050003E+02  0.14117E+05
 0.94099998E+02 -0.34510E+04
 0.94150002E+02 -0.23011E+05
 0.94200005E+02 -0.39989E+05
 0.94250000E+02 -0.49693E+05
 0.94300003E+02 -0.52676E+05
 0.94349998E+02 -0.54765E+05
 0.94400002E+02 -0.59667E+05
 0.94450005E+02 -0.61437E+05
 0.94500000E+02 -0.53526E+05
 0.94550003E+02 -0.38840E+05
 0.94599998E+02 -0.27534E+05
 0.94650002E+02 -0.25989E+05
 0.94700005E+02 -0.27843E+05
 0.94750000E+02 -0.27740E+05
 0.94800003E+02 -0.29706E+05
 0.94849998E+02 -0.32531E+05
 0.94900002E+02 -0.32162E+05
 0.94950005E+02 -0.26869E+05
 0.95000000E+02 -0.14232E+05
 0.95050003E+02  0.23500E+04
 0.95099998E+02  0.18855E+05
 0.95150002E+02  0.31755E+05
 0.95200005E+02  0.33965E+05
 0.95250000E+02  0.26980E+05
 0.95300003E+02  0.22820E+05
 0.95349998E+02  0.29960E+05
 0.95400002E+02  0.42921E+05
 0.95450005E+02  0.48686E+05
 0.95500000E+02  0.40568E+05
 0.95550003E+02  0.23100E+05
 0.95599998E+02  0.59900E+04
 0.95650002E+02 -0.75030E+04
 0.95700005E+02 -0.20427E+05
 0.95750000E+02 -0.33191E+05
 0.95800003E+02 -0.43389E+05
 0.95849998E+02 -0.48114E+05
 0.95900002E+02 -0.43960E+05
 0.95950005E+02 -0.31759E+05
 0.96000000E+02 -0.15080E+05
 0.96050003E+02  0.23420E+04
 0.96099998E+02  0.13104E+05
 0.96150002E+02  0.13603E+05
 0.96200005E+02  0.70370E+04
 0.96250000E+02 -0.18730E+04
 0.96300003E+02 -0.84450E+04
 0.96349998E+02 -0.13023E+05
 0.96400002E+02 -0.16258E+05
 0.96450005E+02 -0.13420E+05
 0.96500000E+02 -0.54610E+04
 0.96550003E+02  0.12790E+04
 0.96599998E+02  0.54860E+04
 0.96650002E+02  0.68840E+04
 0.96700005E+02  0.44550E+04
 0.96750000E+02 -0.33720E+04
 0.96800003E+02 -0.20187E+05
 0.96849998E+02 -0.41947E+05
 0.96900002E+02 -0.57809E+05
 0.96950005E+02 -0.64485E+05
 0.97000000E+02 -0.68692E+05
 0.97050003E+02 -0.76182E+05
 0.97099998E+02 -0.82762E+05
 0.97150002E+02 -0.80238E+05
 0.97200005E+02 -0.69840E+05
 0.97250000E+02 -0.62656E+05
 0.97300003E+02 -0.64793E+05
 0.97349998E+02 -0.68823E+05
 0.97400002E+02 -0.63653E+05
 0.97450005E+02 -0.48471E+05
 0.97500000E+02 -0.33204E+05
 0.97550003E+02 -0.26622E+05
 0.97599998E+02 -0.28020E+05
 0.97650002E+02 -0.29221E+05
 0.97700005E+02 -0.22847E+05
 0.97750000E+02 -0.10651E+05
 0.97800003E+02  0.75000E+03
 0.97849998E+02  0.11238E+05
 0.97900002E+02  0.23671E+05
 0.97950005E+02  0.33713E+05
 0.98000000E+02  0.31394E+05
