-0.20000000E+01 -0.14236E+05
-0.19500000E+01 -0.16740E+05
-0.19000000E+01 -0.18547E+05
-0.18500000E+01 -0.19752E+05
-0.18000000E+01 -0.20531E+05
-0.17500000E+01 -0.20935E+05
-0.17000000E+01 -0.20945E+05
-0.16500001E+01 -0.20927E+05
-0.16000000E+01 -0.20500E+05
-0.15500000E+01 -0.19824E+05
-0.15000000E+01 -0.19161E+05
-0.14500000E+01 -0.18497E+05
-0.14000001E+01 -0.18161E+05
-0.13500000E+01 -0.17592E+05
-0.13000001E+01 -0.17064E+05
-0.12500000E+01 -0.15809E+05
-0.12000000E+01 -0.13743E+05
-0.11500001E+01 -0.11644E+05
-0.11000000E+01 -0.94309E+04
-0.10500001E+01 -0.72256E+04
-0.10000000E+01 -0.50293E+04
-0.95000005E+00 -0.27704E+04
-0.90000010E+00 -0.38402E+03
-0.85000002E+00  0.22598E+04
-0.80000007E+00  0.43925E+04
-0.75000012E+00  0.59096E+04
-0.70000005E+00  0.70187E+04
-0.65000010E+00  0.79526E+04
-0.60000014E+00  0.92133E+04
-0.55000007E+00  0.10697E+05
-0.50000012E+00  0.12613E+05
-0.45000005E+00  0.14487E+05
-0.40000010E+00  0.15924E+05
-0.35000014E+00  0.17430E+05
-0.30000007E+00  0.19087E+05
-0.25000012E+00  0.20757E+05
-0.20000005E+00  0.22651E+05
-0.15000010E+00  0.24653E+05
-0.10000014E+00  0.27209E+05
-0.50000072E-01  0.29919E+05
-0.11920929E-06  0.32538E+05
 0.49999952E-01  0.35191E+05
 0.99999905E-01  0.37381E+05
 0.14999986E+00  0.39128E+05
 0.19999981E+00  0.39972E+05
 0.24999976E+00  0.39253E+05
 0.29999995E+00  0.37347E+05
 0.34999990E+00  0.34813E+05
 0.39999986E+00  0.31815E+05
 0.44999981E+00  0.27949E+05
 0.49999976E+00  0.23781E+05
 0.54999995E+00  0.20017E+05
 0.59999990E+00  0.15963E+05
 0.64999986E+00  0.11676E+05
 0.69999981E+00  0.76133E+04
 0.74999976E+00  0.37837E+04
 0.79999971E+00 -0.13848E+03
 0.84999990E+00 -0.39703E+04
 0.89999986E+00 -0.77744E+04
 0.94999981E+00 -0.12033E+05
 0.99999976E+00 -0.15782E+05
 0.10499997E+01 -0.18938E+05
 0.10999999E+01 -0.22378E+05
 0.11499999E+01 -0.25860E+05
 0.11999998E+01 -0.29010E+05
 0.12499998E+01 -0.31390E+05
 0.12999997E+01 -0.32788E+05
 0.13499999E+01 -0.33431E+05
 0.13999999E+01 -0.33613E+05
 0.14499998E+01 -0.33507E+05
 0.14999998E+01 -0.33092E+05
 0.15499997E+01 -0.31973E+05
 0.15999999E+01 -0.30106E+05
 0.16499999E+01 -0.27881E+05
 0.16999998E+01 -0.25552E+05
 0.17499998E+01 -0.23247E+05
 0.17999997E+01 -0.20298E+05
 0.18499997E+01 -0.16297E+05
 0.18999999E+01 -0.12221E+05
 0.19499998E+01 -0.80029E+04
 0.19999998E+01 -0.35304E+04
 0.20499997E+01  0.48131E+03
 0.20999999E+01  0.47778E+04
 0.21499996E+01  0.86142E+04
 0.21999998E+01  0.10935E+05
 0.22499995E+01  0.12364E+05
 0.22999997E+01  0.13225E+05
 0.23499999E+01  0.13858E+05
 0.23999996E+01  0.13883E+05
 0.24499998E+01  0.12996E+05
 0.24999995E+01  0.11452E+05
 0.25499997E+01  0.98722E+04
 0.25999999E+01  0.87262E+04
 0.26499996E+01  0.80498E+04
 0.26999998E+01  0.78281E+04
 0.27499995E+01  0.71883E+04
 0.27999997E+01  0.57030E+04
 0.28499999E+01  0.44253E+04
 0.28999996E+01  0.35410E+04
 0.29499998E+01  0.24147E+04
 0.29999995E+01  0.10705E+04
 0.30499997E+01 -0.19156E+03
 0.30999999E+01 -0.14057E+04
 0.31499996E+01 -0.29760E+04
 0.31999998E+01 -0.45987E+04
 0.32499995E+01 -0.65994E+04
 0.32999997E+01 -0.91454E+04
 0.33499999E+01 -0.10803E+05
 0.33999996E+01 -0.11355E+05
 0.34499998E+01 -0.11283E+05
 0.34999995E+01 -0.10761E+05
 0.35499997E+01 -0.10265E+05
 0.35999994E+01 -0.95586E+04
 0.36499996E+01 -0.86128E+04
 0.36999998E+01 -0.73894E+04
 0.37499995E+01 -0.60184E+04
 0.37999997E+01 -0.51473E+04
 0.38499994E+01 -0.49182E+04
 0.38999996E+01 -0.50413E+04
 0.39499998E+01 -0.54729E+04
 0.39999995E+01 -0.59800E+04
 0.40499997E+01 -0.64050E+04
 0.40999994E+01 -0.67978E+04
 0.41499996E+01 -0.67121E+04
 0.41999998E+01 -0.62364E+04
 0.42499995E+01 -0.57572E+04
 0.42999997E+01 -0.58919E+04
 0.43499994E+01 -0.65545E+04
 0.43999996E+01 -0.73272E+04
 0.44499998E+01 -0.81443E+04
 0.44999995E+01 -0.83860E+04
 0.45499997E+01 -0.80222E+04
 0.45999994E+01 -0.74420E+04
 0.46499996E+01 -0.62873E+04
 0.46999998E+01 -0.48298E+04
 0.47499995E+01 -0.34205E+04
 0.47999997E+01 -0.16509E+04
 0.48499994E+01 -0.48211E+02
 0.48999996E+01  0.12297E+04
 0.49499998E+01  0.32915E+04
 0.49999995E+01  0.54447E+04
 0.50499997E+01  0.74302E+04
 0.50999994E+01  0.98874E+04
 0.51499996E+01  0.12769E+05
 0.51999998E+01  0.15879E+05
 0.52499995E+01  0.18252E+05
 0.52999997E+01  0.20631E+05
 0.53499994E+01  0.23215E+05
 0.53999996E+01  0.25897E+05
 0.54499993E+01  0.28787E+05
 0.54999995E+01  0.31202E+05
 0.55499997E+01  0.33797E+05
 0.55999994E+01  0.36321E+05
 0.56499996E+01  0.38306E+05
 0.56999993E+01  0.39743E+05
 0.57499995E+01  0.40033E+05
 0.57999997E+01  0.39507E+05
 0.58499994E+01  0.38359E+05
 0.58999996E+01  0.36588E+05
 0.59499993E+01  0.34085E+05
 0.59999995E+01  0.31158E+05
 0.60499992E+01  0.27654E+05
 0.60999994E+01  0.23505E+05
 0.61499996E+01  0.19246E+05
 0.61999998E+01  0.14954E+05
 0.62499990E+01  0.10834E+05
 0.62999992E+01  0.68870E+04
 0.63499994E+01  0.29480E+04
 0.63999996E+01 -0.11269E+04
 0.64499998E+01 -0.48107E+04
 0.64999990E+01 -0.83600E+04
 0.65499992E+01 -0.11868E+05
 0.65999994E+01 -0.15292E+05
 0.66499996E+01 -0.17941E+05
 0.66999998E+01 -0.19653E+05
 0.67499990E+01 -0.20814E+05
 0.67999992E+01 -0.20841E+05
 0.68499994E+01 -0.20244E+05
 0.68999996E+01 -0.19151E+05
 0.69499998E+01 -0.17173E+05
 0.69999990E+01 -0.14637E+05
 0.70499992E+01 -0.12026E+05
 0.70999994E+01 -0.97660E+04
 0.71499996E+01 -0.81811E+04
 0.71999998E+01 -0.66129E+04
 0.72499990E+01 -0.47645E+04
 0.72999992E+01 -0.27305E+04
 0.73499994E+01 -0.94920E+03
 0.73999996E+01  0.17462E+02
 0.74499998E+01  0.75797E+03
 0.74999990E+01  0.12528E+04
 0.75499992E+01  0.12439E+04
 0.75999994E+01  0.55908E+03
 0.76499996E+01 -0.69310E+03
 0.76999998E+01 -0.19538E+04
 0.77499990E+01 -0.32821E+04
 0.77999992E+01 -0.46846E+04
 0.78499994E+01 -0.61076E+04
 0.78999996E+01 -0.69501E+04
 0.79499998E+01 -0.74798E+04
 0.79999990E+01 -0.81379E+04
 0.80499992E+01 -0.82754E+04
 0.80999994E+01 -0.77186E+04
 0.81499996E+01 -0.68971E+04
 0.81999998E+01 -0.60877E+04
 0.82499990E+01 -0.48865E+04
 0.82999992E+01 -0.39559E+04
 0.83499994E+01 -0.29875E+04
 0.83999996E+01 -0.13654E+04
 0.84499998E+01  0.83752E+02
 0.84999990E+01  0.11241E+04
 0.85499992E+01  0.17280E+04
 0.85999994E+01  0.22297E+04
 0.86499996E+01  0.24255E+04
 0.86999998E+01  0.23014E+04
 0.87499990E+01  0.10732E+04
 0.87999992E+01 -0.13506E+04
 0.88499994E+01 -0.39285E+04
 0.88999996E+01 -0.65777E+04
 0.89499998E+01 -0.89978E+04
 0.89999990E+01 -0.11430E+05
 0.90499992E+01 -0.13000E+05
 0.90999994E+01 -0.13816E+05
 0.91499996E+01 -0.14677E+05
 0.91999989E+01 -0.14982E+05
 0.92499990E+01 -0.14410E+05
 0.92999992E+01 -0.13551E+05
 0.93499994E+01 -0.12284E+05
 0.93999996E+01 -0.10400E+05
 0.94499989E+01 -0.81593E+04
 0.94999990E+01 -0.53279E+04
 0.95499992E+01 -0.22102E+04
 0.95999994E+01  0.59486E+03
 0.96499996E+01  0.28556E+04
 0.96999989E+01  0.48375E+04
 0.97499990E+01  0.68559E+04
 0.97999992E+01  0.80153E+04
 0.98499994E+01  0.84355E+04
 0.98999996E+01  0.88896E+04
 0.99499989E+01  0.81391E+04
 0.99999990E+01  0.72824E+04
 0.10049999E+02  0.62612E+04
 0.10099999E+02  0.48817E+04
 0.10150000E+02  0.38002E+04
 0.10199999E+02  0.27547E+04
 0.10249999E+02  0.16265E+04
 0.10299999E+02  0.17330E+03
 0.10349999E+02 -0.64190E+03
 0.10400000E+02 -0.10502E+04
 0.10449999E+02 -0.14174E+04
 0.10499999E+02 -0.18782E+04
 0.10549999E+02 -0.15231E+04
 0.10599999E+02 -0.13725E+04
 0.10650000E+02 -0.10541E+04
 0.10699999E+02 -0.75081E+03
 0.10749999E+02 -0.55077E+03
 0.10799999E+02  0.17028E+03
 0.10849999E+02 -0.45982E+03
 0.10900000E+02  0.37411E+04
 0.10949999E+02  0.19296E+05
 0.10999999E+02  0.50103E+05
 0.11049999E+02  0.81763E+05
 0.11099999E+02  0.99849E+05
 0.11150000E+02  0.81285E+05
 0.11199999E+02  0.45110E+05
 0.11249999E+02 -0.65172E+04
 0.11299999E+02 -0.64013E+05
 0.11349999E+02 -0.12026E+06
 0.11400000E+02 -0.16443E+06
 0.11449999E+02 -0.15236E+06
 0.11499999E+02 -0.68290E+05
 0.11549999E+02  0.75274E+05
 0.11599999E+02  0.16536E+06
 0.11650000E+02  0.20731E+06
 0.11699999E+02  0.17460E+06
 0.11749999E+02  0.14089E+06
 0.11799999E+02  0.14648E+06
 0.11849999E+02  0.21245E+06
 0.11900000E+02  0.28549E+06
 0.11949999E+02  0.26433E+06
 0.11999999E+02  0.22419E+06
 0.12049999E+02  0.11414E+06
 0.12099999E+02  0.92579E+05
 0.12150000E+02  0.73563E+05
 0.12199999E+02 -0.14054E+06
 0.12249999E+02 -0.32608E+06
 0.12299999E+02 -0.26907E+06
 0.12349999E+02 -0.17457E+06
 0.12400000E+02 -0.20031E+06
 0.12449999E+02 -0.17261E+06
 0.12499999E+02 -0.36681E+06
 0.12549999E+02 -0.45274E+06
 0.12599999E+02  0.10141E+06
 0.12649999E+02  0.46850E+06
 0.12699999E+02  0.38381E+06
 0.12749999E+02  0.30735E+06
 0.12799999E+02  0.53363E+05
 0.12849999E+02 -0.30349E+06
 0.12899999E+02 -0.23025E+06
 0.12949999E+02  0.34699E+05
 0.12999999E+02  0.20814E+05
 0.13049999E+02 -0.19553E+06
 0.13099999E+02 -0.41119E+06
 0.13149999E+02 -0.46875E+06
 0.13199999E+02 -0.23911E+06
 0.13249999E+02  0.89390E+05
 0.13299999E+02  0.19636E+06
 0.13349999E+02  0.29125E+06
 0.13399999E+02  0.34736E+06
 0.13449999E+02  0.17219E+06
 0.13499999E+02  0.95911E+05
 0.13549999E+02 -0.14686E+05
 0.13599999E+02 -0.20299E+06
 0.13649999E+02 -0.24117E+06
 0.13699999E+02 -0.25676E+06
 0.13749999E+02 -0.15920E+06
 0.13799999E+02  0.30630E+05
 0.13849999E+02  0.26666E+06
 0.13899999E+02  0.22393E+06
 0.13949999E+02  0.92600E+05
 0.13999999E+02  0.15400E+06
 0.14049999E+02  0.23792E+06
 0.14099998E+02  0.57686E+06
 0.14150000E+02  0.48138E+06
 0.14199999E+02  0.54220E+05
 0.14249998E+02 -0.13225E+06
 0.14299999E+02 -0.13323E+06
 0.14349998E+02  0.79613E+05
 0.14400000E+02  0.21946E+06
 0.14449999E+02  0.21495E+06
 0.14499998E+02  0.77460E+05
 0.14549999E+02  0.22784E+06
 0.14599998E+02  0.33340E+06
 0.14650000E+02  0.23418E+06
 0.14699999E+02  0.22350E+06
 0.14749998E+02 -0.20667E+05
 0.14799999E+02 -0.17585E+06
 0.14849998E+02  0.31492E+05
 0.14900000E+02  0.18883E+06
 0.14949999E+02  0.10466E+06
 0.14999998E+02 -0.15318E+06
 0.15049999E+02 -0.22589E+06
 0.15099998E+02 -0.18284E+06
 0.15150000E+02 -0.30848E+05
 0.15199999E+02  0.37258E+06
 0.15249998E+02  0.20840E+06
 0.15299999E+02 -0.30570E+06
 0.15349998E+02 -0.48233E+06
 0.15400000E+02 -0.54652E+06
 0.15449999E+02 -0.49227E+06
 0.15499998E+02 -0.40165E+06
 0.15549999E+02 -0.48929E+06
 0.15599998E+02 -0.51786E+06
 0.15650000E+02 -0.41263E+06
 0.15699999E+02 -0.20390E+06
 0.15749998E+02 -0.73807E+05
 0.15799999E+02 -0.92984E+05
 0.15849998E+02 -0.12587E+06
 0.15900000E+02 -0.14446E+06
 0.15949999E+02 -0.12228E+06
 0.15999998E+02  0.11404E+06
 0.16049999E+02  0.18039E+06
 0.16099998E+02  0.17518E+06
 0.16150000E+02  0.20156E+06
 0.16199999E+02  0.16760E+06
 0.16249998E+02  0.45539E+06
 0.16299999E+02  0.68463E+06
 0.16349998E+02  0.60589E+06
 0.16400000E+02  0.13094E+06
 0.16449999E+02  0.19579E+06
 0.16499998E+02  0.24784E+06
 0.16549999E+02 -0.94640E+05
 0.16599998E+02 -0.82501E+05
 0.16650000E+02 -0.75300E+05
 0.16699999E+02  0.94491E+05
 0.16749998E+02  0.22141E+06
 0.16799999E+02  0.40396E+06
 0.16849998E+02  0.32646E+06
 0.16900000E+02  0.30203E+06
 0.16949999E+02  0.41728E+06
 0.16999998E+02  0.37285E+06
 0.17049999E+02  0.23146E+06
 0.17099998E+02 -0.39568E+05
 0.17150000E+02 -0.33325E+06
 0.17199999E+02 -0.61755E+06
 0.17249998E+02 -0.33230E+06
 0.17299999E+02 -0.17580E+06
 0.17349998E+02 -0.14740E+06
 0.17400000E+02  0.96308E+05
 0.17449999E+02  0.24590E+06
 0.17499998E+02  0.42254E+06
 0.17549999E+02  0.44006E+06
 0.17599998E+02  0.32098E+06
 0.17650000E+02  0.33946E+06
 0.17699999E+02  0.15632E+06
 0.17749998E+02 -0.75352E+05
 0.17799999E+02 -0.43149E+05
 0.17849998E+02  0.58846E+05
 0.17900000E+02  0.16458E+06
 0.17949999E+02  0.69184E+05
 0.17999998E+02 -0.19798E+06
 0.18049999E+02 -0.29220E+06
 0.18099998E+02 -0.27113E+06
 0.18150000E+02 -0.36958E+06
 0.18199999E+02 -0.23261E+06
 0.18249998E+02 -0.67582E+05
 0.18299999E+02  0.14189E+06
 0.18349998E+02  0.43896E+06
 0.18400000E+02  0.62441E+06
 0.18449999E+02  0.86403E+06
 0.18499998E+02  0.76663E+06
 0.18549999E+02  0.42559E+06
 0.18599998E+02  0.27559E+06
 0.18650000E+02  0.76954E+05
 0.18699999E+02 -0.20183E+06
 0.18749998E+02 -0.30016E+06
 0.18799999E+02 -0.39491E+06
 0.18849998E+02 -0.26279E+06
 0.18900000E+02 -0.39901E+06
 0.18949999E+02 -0.10740E+07
 0.18999998E+02 -0.17631E+07
 0.19049999E+02 -0.26742E+07
 0.19099998E+02 -0.32479E+07
 0.19150000E+02 -0.32570E+07
 0.19199999E+02 -0.25147E+07
 0.19249998E+02 -0.95390E+06
 0.19299999E+02  0.34903E+06
 0.19349998E+02  0.12323E+07
 0.19400000E+02  0.16603E+07
 0.19449999E+02  0.12354E+07
 0.19499998E+02  0.72889E+06
 0.19549999E+02  0.44007E+06
 0.19599998E+02  0.25791E+06
 0.19650000E+02  0.49088E+06
 0.19699999E+02  0.41264E+06
 0.19749998E+02  0.47912E+06
 0.19799999E+02  0.11285E+07
 0.19849998E+02  0.57183E+06
 0.19900000E+02 -0.14233E+06
 0.19949999E+02 -0.98502E+05
 0.19999998E+02 -0.90816E+06
 0.20049999E+02 -0.20597E+07
 0.20099998E+02 -0.15380E+07
 0.20150000E+02 -0.78508E+06
 0.20199999E+02  0.17274E+04
 0.20249998E+02  0.11190E+07
 0.20299999E+02  0.10961E+07
 0.20349998E+02  0.40064E+06
 0.20399998E+02 -0.43397E+06
 0.20449999E+02 -0.86772E+06
 0.20499998E+02 -0.17882E+07
 0.20549999E+02 -0.18067E+07
 0.20599998E+02 -0.12207E+07
 0.20649998E+02 -0.95093E+06
 0.20699999E+02 -0.36214E+06
 0.20749998E+02 -0.60011E+05
 0.20799999E+02  0.61607E+06
 0.20849998E+02  0.12352E+07
 0.20899998E+02  0.13066E+07
 0.20949999E+02  0.64002E+06
 0.20999998E+02 -0.60298E+06
 0.21049999E+02 -0.14985E+07
 0.21099998E+02 -0.21520E+07
 0.21149998E+02 -0.22430E+07
 0.21199999E+02 -0.15112E+07
 0.21249998E+02 -0.63967E+06
 0.21299999E+02  0.23074E+06
 0.21349998E+02  0.52171E+06
 0.21399998E+02  0.51519E+06
 0.21449999E+02  0.18968E+06
 0.21499998E+02 -0.19537E+06
 0.21549999E+02 -0.36191E+06
 0.21599998E+02 -0.79761E+06
 0.21649998E+02 -0.82628E+06
 0.21699999E+02 -0.85855E+06
 0.21749998E+02 -0.87400E+06
 0.21799999E+02 -0.45014E+06
 0.21849998E+02 -0.80184E+06
 0.21899998E+02 -0.14991E+07
 0.21949999E+02 -0.12503E+07
 0.21999998E+02 -0.94915E+06
 0.22049999E+02 -0.32861E+06
 0.22099998E+02  0.69533E+06
 0.22149998E+02  0.11647E+07
 0.22199999E+02  0.11047E+07
 0.22249998E+02  0.11468E+07
 0.22299999E+02  0.65296E+06
 0.22349998E+02  0.12084E+06
 0.22399998E+02  0.78553E+06
 0.22449999E+02  0.14237E+07
 0.22499998E+02  0.14894E+07
 0.22549999E+02  0.10276E+07
 0.22599998E+02  0.40054E+06
 0.22649998E+02 -0.34911E+06
 0.22699999E+02 -0.84447E+06
 0.22749998E+02 -0.56726E+06
 0.22799999E+02 -0.15896E+06
 0.22849998E+02 -0.30825E+06
 0.22899998E+02 -0.60483E+06
 0.22949999E+02 -0.57638E+06
 0.22999998E+02 -0.75758E+06
 0.23049999E+02 -0.91332E+06
 0.23099998E+02 -0.67413E+06
 0.23149998E+02  0.78183E+05
 0.23199999E+02  0.83044E+06
 0.23249998E+02  0.86945E+06
 0.23299999E+02  0.29742E+06
 0.23349998E+02 -0.40172E+05
 0.23399998E+02 -0.64795E+05
 0.23449999E+02 -0.39287E+06
 0.23499998E+02 -0.47767E+06
 0.23549999E+02 -0.50904E+06
 0.23599998E+02 -0.73767E+06
 0.23649998E+02 -0.71262E+06
 0.23699999E+02 -0.31932E+06
 0.23749998E+02  0.15618E+06
 0.23799999E+02  0.45148E+06
 0.23849998E+02  0.31520E+06
 0.23899998E+02  0.25005E+06
 0.23949999E+02  0.37401E+06
 0.23999998E+02  0.17660E+06
 0.24049999E+02  0.36074E+06
 0.24099998E+02  0.90510E+06
 0.24149998E+02  0.96050E+06
 0.24199999E+02  0.64563E+06
 0.24249998E+02  0.34708E+06
 0.24299999E+02  0.30917E+06
 0.24349998E+02  0.70383E+06
 0.24399998E+02  0.11482E+07
 0.24449999E+02  0.14298E+07
 0.24499998E+02  0.12305E+07
 0.24549999E+02  0.88058E+06
 0.24599998E+02  0.64822E+06
 0.24649998E+02  0.82640E+06
 0.24699999E+02  0.13997E+07
 0.24749998E+02  0.14730E+07
 0.24799999E+02  0.12674E+07
 0.24849998E+02  0.99792E+06
 0.24899998E+02  0.63914E+06
 0.24949999E+02  0.48302E+06
 0.24999998E+02  0.61194E+06
 0.25049999E+02  0.64810E+06
 0.25099998E+02  0.62087E+06
 0.25149998E+02  0.35395E+06
 0.25199999E+02 -0.14750E+06
 0.25249998E+02 -0.44958E+06
 0.25299999E+02 -0.39524E+06
 0.25349998E+02 -0.21502E+06
 0.25399998E+02  0.66899E+05
 0.25449999E+02  0.37556E+06
 0.25499998E+02  0.38824E+06
 0.25549999E+02  0.51134E+06
 0.25599998E+02  0.27718E+06
 0.25649998E+02  0.11460E+06
 0.25699999E+02  0.29816E+06
 0.25749998E+02  0.51072E+06
 0.25799999E+02  0.93405E+06
 0.25849998E+02  0.12730E+07
 0.25899998E+02  0.15139E+07
 0.25949999E+02  0.10660E+07
 0.25999998E+02  0.24599E+06
 0.26049999E+02 -0.29189E+06
 0.26099998E+02 -0.61843E+06
 0.26149998E+02 -0.49445E+06
 0.26199999E+02 -0.10067E+06
 0.26249998E+02 -0.18900E+06
 0.26299999E+02 -0.56570E+06
 0.26349998E+02 -0.78320E+06
 0.26399998E+02 -0.61265E+06
 0.26449999E+02  0.71377E+05
 0.26499998E+02  0.67025E+06
 0.26549999E+02  0.99058E+06
 0.26599998E+02  0.10518E+07
 0.26649998E+02  0.93233E+06
 0.26699999E+02  0.48932E+06
 0.26749998E+02  0.10299E+06
 0.26799999E+02 -0.73067E+05
 0.26849998E+02 -0.76397E+05
 0.26899998E+02 -0.10008E+06
 0.26949999E+02 -0.13656E+06
 0.26999998E+02 -0.15936E+06
 0.27049997E+02 -0.36904E+06
 0.27099998E+02 -0.44581E+06
 0.27149998E+02 -0.63105E+06
 0.27199999E+02 -0.71594E+06
 0.27249998E+02 -0.69633E+06
 0.27299997E+02 -0.67610E+06
 0.27349998E+02 -0.42009E+06
 0.27399998E+02 -0.96653E+05
 0.27449999E+02  0.23729E+06
 0.27499998E+02  0.66582E+06
 0.27549997E+02  0.11411E+07
 0.27599998E+02  0.14585E+07
 0.27649998E+02  0.13694E+07
 0.27699999E+02  0.12653E+07
 0.27749998E+02  0.12507E+07
 0.27799997E+02  0.10694E+07
 0.27849998E+02  0.81825E+06
 0.27899998E+02  0.38657E+06
 0.27949999E+02 -0.86940E+05
 0.27999998E+02 -0.32705E+06
 0.28049997E+02 -0.22656E+06
 0.28099998E+02  0.67706E+05
 0.28149998E+02  0.23432E+06
 0.28199999E+02  0.27077E+06
 0.28249998E+02  0.21969E+06
 0.28299997E+02  0.16005E+06
 0.28349998E+02  0.24193E+06
 0.28399998E+02  0.30491E+06
 0.28449999E+02  0.19405E+06
 0.28499998E+02 -0.76205E+05
 0.28549997E+02 -0.42463E+06
 0.28599998E+02 -0.63721E+06
 0.28649998E+02 -0.80143E+06
 0.28699999E+02 -0.94415E+06
 0.28749998E+02 -0.10678E+07
 0.28799997E+02 -0.10890E+07
 0.28849998E+02 -0.87816E+06
 0.28899998E+02 -0.74519E+06
 0.28949999E+02 -0.61182E+06
 0.28999998E+02 -0.47294E+06
 0.29049997E+02 -0.46980E+06
 0.29099998E+02 -0.56046E+06
 0.29149998E+02 -0.67632E+06
 0.29199999E+02 -0.73401E+06
 0.29249998E+02 -0.81863E+06
 0.29299997E+02 -0.92800E+06
 0.29349998E+02 -0.85299E+06
 0.29399998E+02 -0.82811E+06
 0.29449999E+02 -0.85705E+06
 0.29499998E+02 -0.77421E+06
 0.29549997E+02 -0.82282E+06
 0.29599998E+02 -0.89119E+06
 0.29649998E+02 -0.10186E+07
 0.29699999E+02 -0.10552E+07
 0.29749998E+02 -0.10650E+07
 0.29799997E+02 -0.11079E+07
 0.29849998E+02 -0.92889E+06
 0.29899998E+02 -0.69231E+06
 0.29949999E+02 -0.57469E+06
 0.29999998E+02 -0.54146E+06
 0.30049999E+02 -0.42896E+06
 0.30099998E+02 -0.17100E+06
 0.30149998E+02  0.90805E+05
 0.30199997E+02  0.41572E+06
 0.30249996E+02  0.77480E+06
 0.30299999E+02  0.98565E+06
 0.30349998E+02  0.11091E+07
 0.30399998E+02  0.11120E+07
 0.30449997E+02  0.10966E+07
 0.30499996E+02  0.95255E+06
 0.30549999E+02  0.55596E+06
 0.30599998E+02  0.16836E+06
 0.30649998E+02 -0.31213E+05
 0.30699997E+02 -0.54335E+05
 0.30749996E+02  0.34622E+05
 0.30799999E+02  0.11578E+06
 0.30849998E+02  0.13721E+06
 0.30899998E+02 -0.12549E+05
 0.30949997E+02 -0.35027E+06
 0.30999996E+02 -0.50761E+06
 0.31049999E+02 -0.46945E+06
 0.31099998E+02 -0.41214E+06
 0.31149998E+02 -0.30746E+06
 0.31199997E+02 -0.21744E+06
 0.31249996E+02 -0.27857E+06
 0.31299999E+02 -0.46178E+06
 0.31349998E+02 -0.56711E+06
 0.31399998E+02 -0.69911E+06
 0.31449997E+02 -0.92406E+06
 0.31499996E+02 -0.10037E+07
 0.31549999E+02 -0.98209E+06
 0.31599998E+02 -0.84319E+06
 0.31649998E+02 -0.53515E+06
 0.31699997E+02 -0.27083E+06
 0.31749996E+02 -0.65329E+05
 0.31799999E+02  0.16016E+05
 0.31849998E+02 -0.48004E+05
 0.31899998E+02 -0.88377E+05
 0.31949997E+02 -0.20644E+05
 0.31999996E+02  0.79926E+05
 0.32049999E+02  0.10928E+06
 0.32099998E+02  0.15144E+06
 0.32149998E+02  0.29104E+06
 0.32199997E+02  0.41731E+06
 0.32249996E+02  0.46302E+06
 0.32299999E+02  0.43367E+06
 0.32349998E+02  0.32433E+06
 0.32399998E+02  0.25021E+06
 0.32449997E+02  0.13133E+06
 0.32499996E+02 -0.13183E+05
 0.32549999E+02 -0.13403E+06
 0.32599998E+02 -0.17010E+06
 0.32649998E+02 -0.12505E+06
 0.32699997E+02 -0.22470E+06
 0.32749996E+02 -0.33175E+06
 0.32799999E+02 -0.28717E+06
 0.32849998E+02 -0.17461E+06
 0.32899998E+02  0.21867E+05
 0.32949997E+02  0.27896E+06
 0.32999996E+02  0.39754E+06
 0.33049999E+02  0.41764E+06
 0.33099998E+02  0.49385E+06
 0.33149998E+02  0.60078E+06
 0.33199997E+02  0.69653E+06
 0.33249996E+02  0.60671E+06
 0.33299999E+02  0.34034E+06
 0.33349998E+02  0.94198E+05
 0.33399998E+02 -0.75339E+05
 0.33449997E+02 -0.89636E+05
 0.33499996E+02  0.50089E+05
 0.33549999E+02  0.11767E+06
 0.33599998E+02  0.10003E+06
 0.33649998E+02  0.22446E+05
 0.33699997E+02 -0.14902E+06
 0.33749996E+02 -0.27681E+06
 0.33799999E+02 -0.26662E+06
 0.33849998E+02 -0.12169E+06
 0.33899998E+02 -0.84097E+05
 0.33949997E+02 -0.12495E+06
 0.33999996E+02 -0.48016E+05
 0.34049999E+02  0.37585E+05
 0.34099998E+02  0.35867E+05
 0.34149998E+02  0.55439E+05
 0.34199997E+02  0.82714E+05
 0.34249996E+02 -0.28995E+05
 0.34299999E+02 -0.30518E+06
 0.34349998E+02 -0.56735E+06
 0.34399998E+02 -0.55432E+06
 0.34449997E+02 -0.40108E+06
 0.34499996E+02 -0.29757E+06
 0.34549999E+02 -0.26122E+06
 0.34599998E+02 -0.36759E+06
 0.34649998E+02 -0.51334E+06
 0.34699997E+02 -0.48767E+06
 0.34749996E+02 -0.32385E+06
 0.34799999E+02 -0.77242E+05
 0.34849998E+02  0.11072E+06
 0.34899998E+02  0.15828E+06
 0.34949997E+02  0.18690E+06
 0.34999996E+02  0.24358E+06
 0.35049999E+02  0.24081E+06
 0.35099998E+02  0.22358E+06
 0.35149998E+02  0.23648E+06
 0.35199997E+02  0.10722E+06
 0.35249996E+02  0.33017E+05
 0.35299999E+02  0.84137E+05
 0.35349998E+02  0.22547E+06
 0.35399998E+02  0.34259E+06
 0.35449997E+02  0.28498E+06
 0.35499996E+02  0.15915E+06
 0.35549999E+02 -0.14453E+05
 0.35599998E+02 -0.11447E+06
 0.35649998E+02 -0.18259E+06
 0.35699997E+02 -0.31510E+06
 0.35749996E+02 -0.39366E+06
 0.35799999E+02 -0.32837E+06
 0.35849998E+02 -0.21375E+06
 0.35899998E+02 -0.55462E+05
 0.35949997E+02  0.10779E+06
 0.35999996E+02  0.13958E+06
 0.36049999E+02  0.84517E+05
 0.36099998E+02 -0.12864E+05
 0.36149998E+02 -0.42797E+05
 0.36199997E+02  0.49396E+05
 0.36249996E+02  0.16626E+06
 0.36299999E+02  0.20014E+06
 0.36349998E+02  0.13594E+06
 0.36399998E+02  0.18381E+04
 0.36449997E+02 -0.53206E+05
 0.36499996E+02 -0.74963E+05
 0.36549999E+02 -0.16681E+06
 0.36599998E+02 -0.23619E+06
 0.36649998E+02 -0.31918E+06
 0.36699997E+02 -0.34490E+06
 0.36749996E+02 -0.23633E+06
 0.36799999E+02 -0.61594E+05
 0.36849998E+02  0.16539E+06
 0.36899998E+02  0.43170E+06
 0.36949997E+02  0.57475E+06
 0.36999996E+02  0.56257E+06
 0.37049999E+02  0.43831E+06
 0.37099998E+02  0.31471E+06
 0.37149998E+02  0.23826E+06
 0.37199997E+02  0.14645E+06
 0.37249996E+02  0.23860E+05
 0.37299999E+02 -0.13730E+06
 0.37349998E+02 -0.20071E+06
 0.37399998E+02 -0.18472E+06
 0.37449997E+02 -0.98387E+05
 0.37499996E+02  0.82438E+05
 0.37549999E+02  0.24067E+06
 0.37599998E+02  0.35548E+06
 0.37649998E+02  0.46861E+06
 0.37699997E+02  0.55349E+06
 0.37749996E+02  0.54655E+06
 0.37799999E+02  0.50264E+06
 0.37849998E+02  0.42355E+06
 0.37899998E+02  0.23618E+06
 0.37949997E+02  0.81629E+05
 0.37999996E+02 -0.55248E+05
 0.38049999E+02 -0.17126E+06
 0.38099998E+02 -0.11574E+06
 0.38149998E+02  0.17331E+05
 0.38199997E+02  0.19617E+06
 0.38249996E+02  0.32053E+06
 0.38299999E+02  0.28015E+06
 0.38349998E+02  0.18114E+06
 0.38399998E+02  0.69345E+05
 0.38449997E+02 -0.71149E+05
 0.38499996E+02 -0.17318E+06
 0.38549999E+02 -0.19671E+06
 0.38599998E+02 -0.15563E+06
 0.38649998E+02 -0.35960E+05
 0.38699997E+02  0.50865E+05
 0.38749996E+02  0.71900E+05
 0.38799999E+02  0.19738E+05
 0.38849998E+02 -0.89977E+05
 0.38899998E+02 -0.11652E+06
 0.38949997E+02 -0.82850E+05
 0.38999996E+02 -0.80809E+05
 0.39049999E+02 -0.72874E+05
 0.39099998E+02 -0.97724E+05
 0.39149998E+02 -0.13769E+06
 0.39199997E+02 -0.13151E+06
 0.39249996E+02 -0.10377E+06
 0.39299999E+02 -0.24027E+05
 0.39349998E+02  0.58562E+05
 0.39399998E+02  0.18295E+06
 0.39449997E+02  0.34222E+06
 0.39499996E+02  0.44440E+06
 0.39549999E+02  0.49429E+06
 0.39599998E+02  0.46302E+06
 0.39649998E+02  0.34264E+06
 0.39699997E+02  0.22541E+06
 0.39749996E+02  0.15811E+06
 0.39799999E+02  0.89352E+05
 0.39849998E+02  0.58760E+05
 0.39899998E+02  0.15575E+05
 0.39949997E+02 -0.10396E+06
 0.39999996E+02 -0.21169E+06
 0.40049999E+02 -0.28199E+06
 0.40099998E+02 -0.35762E+06
 0.40149998E+02 -0.41931E+06
 0.40199997E+02 -0.41863E+06
 0.40249996E+02 -0.45732E+06
 0.40299999E+02 -0.52726E+06
 0.40349998E+02 -0.55073E+06
 0.40399998E+02 -0.54007E+06
 0.40449997E+02 -0.49597E+06
 0.40499996E+02 -0.45762E+06
 0.40549999E+02 -0.46163E+06
 0.40599998E+02 -0.47192E+06
 0.40649998E+02 -0.47539E+06
 0.40699997E+02 -0.43248E+06
 0.40749996E+02 -0.32713E+06
 0.40799999E+02 -0.27074E+06
 0.40849998E+02 -0.30485E+06
 0.40899998E+02 -0.37786E+06
 0.40949997E+02 -0.42280E+06
 0.40999996E+02 -0.38461E+06
 0.41049999E+02 -0.27146E+06
 0.41099998E+02 -0.17256E+06
 0.41149998E+02 -0.16459E+06
 0.41199997E+02 -0.22113E+06
 0.41249996E+02 -0.25490E+06
 0.41299999E+02 -0.25290E+06
 0.41349998E+02 -0.21995E+06
 0.41399998E+02 -0.10895E+06
 0.41449997E+02  0.31764E+05
 0.41499996E+02  0.96225E+05
 0.41549999E+02  0.12861E+06
 0.41599998E+02  0.14609E+06
 0.41649998E+02  0.96284E+05
 0.41699997E+02  0.25606E+05
 0.41749996E+02  0.23053E+04
 0.41799999E+02  0.20339E+05
 0.41849998E+02 -0.86697E+04
 0.41899998E+02 -0.10594E+06
 0.41949997E+02 -0.19492E+06
 0.41999996E+02 -0.26313E+06
 0.42049999E+02 -0.28326E+06
 0.42099998E+02 -0.26689E+06
 0.42149998E+02 -0.27249E+06
 0.42199997E+02 -0.29067E+06
 0.42249996E+02 -0.25663E+06
 0.42299999E+02 -0.14705E+06
 0.42349998E+02  0.18205E+05
 0.42399998E+02  0.20613E+06
 0.42449997E+02  0.39074E+06
 0.42499996E+02  0.58408E+06
 0.42549999E+02  0.73591E+06
 0.42599998E+02  0.81501E+06
 0.42649998E+02  0.77814E+06
 0.42699997E+02  0.67096E+06
 0.42749996E+02  0.54106E+06
 0.42799995E+02  0.41385E+06
 0.42849998E+02  0.36517E+06
 0.42899998E+02  0.34171E+06
 0.42949997E+02  0.29200E+06
 0.42999996E+02  0.26333E+06
 0.43049995E+02  0.24098E+06
 0.43099998E+02  0.19795E+06
 0.43149998E+02  0.14517E+06
 0.43199997E+02  0.75274E+05
 0.43249996E+02  0.32203E+05
 0.43299995E+02  0.23726E+05
 0.43349998E+02  0.18488E+05
 0.43399998E+02  0.39061E+05
 0.43449997E+02  0.78366E+05
 0.43499996E+02  0.93019E+05
 0.43549995E+02  0.80361E+05
 0.43599998E+02  0.94824E+05
 0.43649998E+02  0.14741E+06
 0.43699997E+02  0.23817E+06
 0.43749996E+02  0.32353E+06
 0.43799995E+02  0.32135E+06
 0.43849998E+02  0.27984E+06
 0.43899998E+02  0.24538E+06
 0.43949997E+02  0.24954E+06
 0.43999996E+02  0.28196E+06
 0.44049995E+02  0.34474E+06
 0.44099998E+02  0.41148E+06
 0.44149998E+02  0.40208E+06
 0.44199997E+02  0.39223E+06
 0.44249996E+02  0.37382E+06
 0.44299995E+02  0.28983E+06
 0.44349998E+02  0.16246E+06
 0.44399998E+02  0.38989E+05
 0.44449997E+02 -0.79218E+05
 0.44499996E+02 -0.22674E+06
 0.44549995E+02 -0.36255E+06
 0.44599998E+02 -0.44892E+06
 0.44649998E+02 -0.47266E+06
 0.44699997E+02 -0.47155E+06
 0.44749996E+02 -0.44390E+06
 0.44799995E+02 -0.38924E+06
 0.44849998E+02 -0.33155E+06
 0.44899998E+02 -0.27279E+06
 0.44949997E+02 -0.18188E+06
 0.44999996E+02 -0.90577E+05
 0.45049995E+02 -0.84916E+05
 0.45099998E+02 -0.16690E+06
 0.45149998E+02 -0.27452E+06
 0.45199997E+02 -0.31381E+06
 0.45249996E+02 -0.28439E+06
 0.45299995E+02 -0.20775E+06
 0.45349998E+02 -0.11199E+06
 0.45399998E+02 -0.57770E+05
 0.45449997E+02 -0.27191E+05
 0.45499996E+02  0.20399E+05
 0.45549995E+02  0.40922E+05
 0.45599998E+02  0.27539E+05
 0.45649998E+02  0.69369E+05
 0.45699997E+02  0.16295E+06
 0.45749996E+02  0.25494E+06
 0.45799995E+02  0.32917E+06
 0.45849998E+02  0.35750E+06
 0.45899998E+02  0.33622E+06
 0.45949997E+02  0.31976E+06
 0.45999996E+02  0.32349E+06
 0.46049995E+02  0.32240E+06
 0.46099998E+02  0.30290E+06
 0.46149998E+02  0.23810E+06
 0.46199997E+02  0.13342E+06
 0.46249996E+02  0.28286E+05
 0.46299995E+02 -0.58112E+05
 0.46349998E+02 -0.14403E+06
 0.46399998E+02 -0.25116E+06
 0.46449997E+02 -0.33703E+06
 0.46499996E+02 -0.35520E+06
 0.46549995E+02 -0.28244E+06
 0.46599998E+02 -0.15586E+06
 0.46649998E+02 -0.41026E+05
 0.46699997E+02  0.46086E+05
 0.46749996E+02  0.74545E+05
 0.46799995E+02  0.58394E+05
 0.46849998E+02  0.16169E+05
 0.46899998E+02 -0.66503E+04
 0.46949997E+02  0.56122E+03
 0.46999996E+02 -0.22272E+05
 0.47049995E+02 -0.43740E+05
 0.47099998E+02 -0.43118E+05
 0.47149998E+02 -0.37112E+05
 0.47199997E+02 -0.14938E+05
 0.47249996E+02 -0.84110E+04
 0.47299995E+02 -0.46397E+05
 0.47349998E+02 -0.11930E+06
 0.47399998E+02 -0.19978E+06
 0.47449997E+02 -0.22299E+06
 0.47499996E+02 -0.20031E+06
 0.47549995E+02 -0.16787E+06
 0.47599998E+02 -0.13255E+06
 0.47649998E+02 -0.11529E+06
 0.47699997E+02 -0.10997E+06
 0.47749996E+02 -0.59055E+05
 0.47799995E+02  0.32584E+05
 0.47849998E+02  0.11946E+06
 0.47899998E+02  0.19934E+06
 0.47949997E+02  0.22115E+06
 0.47999996E+02  0.19025E+06
 0.48049995E+02  0.14011E+06
 0.48099998E+02  0.95138E+05
 0.48149998E+02  0.79018E+05
 0.48199997E+02  0.71724E+05
 0.48249996E+02  0.59698E+05
 0.48299995E+02  0.69351E+05
 0.48349998E+02  0.12045E+06
 0.48399998E+02  0.18299E+06
 0.48449997E+02  0.21987E+06
 0.48499996E+02  0.20444E+06
 0.48549995E+02  0.14805E+06
 0.48599998E+02  0.84914E+05
 0.48649998E+02  0.40713E+05
 0.48699997E+02  0.38964E+05
 0.48749996E+02  0.90542E+05
 0.48799995E+02  0.16285E+06
 0.48849998E+02  0.23515E+06
 0.48899998E+02  0.30542E+06
 0.48949997E+02  0.36298E+06
 0.48999996E+02  0.38167E+06
 0.49049995E+02  0.35413E+06
 0.49099998E+02  0.29099E+06
 0.49149998E+02  0.21605E+06
 0.49199997E+02  0.12525E+06
 0.49249996E+02  0.28163E+05
 0.49299995E+02 -0.37919E+05
 0.49349998E+02 -0.75947E+05
 0.49399998E+02 -0.75217E+05
 0.49449997E+02 -0.75696E+05
 0.49499996E+02 -0.10417E+06
 0.49549995E+02 -0.16269E+06
 0.49599998E+02 -0.24132E+06
 0.49649998E+02 -0.29304E+06
 0.49699997E+02 -0.27607E+06
 0.49749996E+02 -0.18053E+06
 0.49799995E+02 -0.53984E+05
 0.49849998E+02  0.33400E+05
 0.49899998E+02  0.56599E+05
 0.49949997E+02  0.52688E+05
 0.49999996E+02  0.51902E+05
 0.50049995E+02  0.72099E+05
 0.50099998E+02  0.79202E+05
 0.50149998E+02  0.21331E+05
 0.50199997E+02 -0.91014E+05
 0.50249996E+02 -0.20987E+06
 0.50299995E+02 -0.28963E+06
 0.50349998E+02 -0.31200E+06
 0.50399998E+02 -0.30539E+06
 0.50449997E+02 -0.31258E+06
 0.50499996E+02 -0.34900E+06
 0.50549995E+02 -0.36919E+06
 0.50599998E+02 -0.32756E+06
 0.50649998E+02 -0.25950E+06
 0.50699997E+02 -0.17549E+06
 0.50749996E+02 -0.87004E+05
 0.50799995E+02 -0.73594E+04
 0.50849998E+02  0.78285E+05
 0.50899998E+02  0.15251E+06
 0.50949997E+02  0.19368E+06
 0.50999996E+02  0.19333E+06
 0.51049995E+02  0.15149E+06
 0.51099998E+02  0.10554E+06
 0.51149998E+02  0.67972E+05
 0.51199997E+02  0.55005E+05
 0.51249996E+02  0.76274E+05
 0.51299995E+02  0.88694E+05
 0.51349998E+02  0.74952E+05
 0.51399998E+02  0.36813E+05
 0.51449997E+02 -0.12921E+05
 0.51499996E+02 -0.71121E+05
 0.51549995E+02 -0.13208E+06
 0.51599998E+02 -0.18081E+06
 0.51649998E+02 -0.21427E+06
 0.51699997E+02 -0.22503E+06
 0.51749996E+02 -0.21093E+06
 0.51799995E+02 -0.20010E+06
 0.51849998E+02 -0.17864E+06
 0.51899998E+02 -0.14149E+06
 0.51949997E+02 -0.14128E+06
 0.51999996E+02 -0.16807E+06
 0.52049995E+02 -0.18717E+06
 0.52099998E+02 -0.20301E+06
 0.52149998E+02 -0.22975E+06
 0.52199997E+02 -0.24916E+06
 0.52249996E+02 -0.23901E+06
 0.52299995E+02 -0.22669E+06
 0.52349998E+02 -0.21929E+06
 0.52399998E+02 -0.20491E+06
 0.52449997E+02 -0.16958E+06
 0.52499996E+02 -0.85527E+05
 0.52549995E+02  0.35019E+05
 0.52599998E+02  0.16669E+06
 0.52649998E+02  0.28905E+06
 0.52699997E+02  0.37326E+06
 0.52749996E+02  0.42197E+06
 0.52799995E+02  0.45194E+06
 0.52849998E+02  0.46512E+06
 0.52899998E+02  0.47393E+06
 0.52949997E+02  0.48174E+06
 0.52999996E+02  0.48490E+06
 0.53049995E+02  0.45516E+06
 0.53099998E+02  0.40196E+06
 0.53149998E+02  0.35581E+06
 0.53199997E+02  0.31693E+06
 0.53249996E+02  0.32051E+06
 0.53299995E+02  0.36702E+06
 0.53349998E+02  0.41084E+06
 0.53399998E+02  0.42304E+06
 0.53449997E+02  0.40475E+06
 0.53499996E+02  0.34026E+06
 0.53549995E+02  0.25785E+06
 0.53599998E+02  0.16303E+06
 0.53649998E+02  0.38773E+05
 0.53699997E+02 -0.78080E+05
 0.53749996E+02 -0.19332E+06
 0.53799995E+02 -0.28566E+06
 0.53849998E+02 -0.34038E+06
 0.53899998E+02 -0.36115E+06
 0.53949997E+02 -0.33523E+06
 0.53999996E+02 -0.26455E+06
 0.54049995E+02 -0.17455E+06
 0.54099998E+02 -0.10945E+06
 0.54149998E+02 -0.68114E+05
 0.54199997E+02 -0.50565E+05
 0.54249996E+02 -0.55245E+05
 0.54299995E+02 -0.77304E+05
 0.54349998E+02 -0.98148E+05
 0.54399998E+02 -0.10565E+06
 0.54449997E+02 -0.10712E+06
 0.54499996E+02 -0.88266E+05
 0.54549995E+02 -0.58392E+05
 0.54599998E+02 -0.24369E+05
 0.54649998E+02  0.16631E+05
 0.54699997E+02  0.65408E+05
 0.54749996E+02  0.11611E+06
 0.54799995E+02  0.15116E+06
 0.54849998E+02  0.17105E+06
 0.54899998E+02  0.18318E+06
 0.54949997E+02  0.18237E+06
 0.54999996E+02  0.18348E+06
 0.55049995E+02  0.17165E+06
 0.55099998E+02  0.13310E+06
 0.55149998E+02  0.75148E+05
 0.55199997E+02  0.11376E+05
 0.55249996E+02 -0.48169E+05
 0.55299995E+02 -0.97314E+05
 0.55349998E+02 -0.12532E+06
 0.55399998E+02 -0.13485E+06
 0.55449997E+02 -0.13566E+06
 0.55499996E+02 -0.13706E+06
 0.55549995E+02 -0.12828E+06
 0.55599998E+02 -0.10045E+06
 0.55649998E+02 -0.49539E+05
 0.55699997E+02  0.31606E+04
 0.55749996E+02  0.40914E+05
 0.55799995E+02  0.47262E+05
 0.55849995E+02  0.24718E+05
 0.55899998E+02 -0.22267E+05
 0.55949997E+02 -0.72158E+05
 0.55999996E+02 -0.10954E+06
 0.56049995E+02 -0.14421E+06
 0.56099995E+02 -0.16162E+06
 0.56149998E+02 -0.16762E+06
 0.56199997E+02 -0.17501E+06
 0.56249996E+02 -0.20418E+06
 0.56299995E+02 -0.23646E+06
 0.56349995E+02 -0.24772E+06
 0.56399998E+02 -0.24072E+06
 0.56449997E+02 -0.22719E+06
 0.56499996E+02 -0.21612E+06
 0.56549995E+02 -0.20329E+06
 0.56599995E+02 -0.17997E+06
 0.56649998E+02 -0.15464E+06
 0.56699997E+02 -0.14730E+06
 0.56749996E+02 -0.15062E+06
 0.56799995E+02 -0.17015E+06
 0.56849995E+02 -0.20342E+06
 0.56899998E+02 -0.24074E+06
 0.56949997E+02 -0.25812E+06
 0.56999996E+02 -0.23472E+06
 0.57049995E+02 -0.19075E+06
 0.57099995E+02 -0.14588E+06
 0.57149998E+02 -0.11250E+06
 0.57199997E+02 -0.97315E+05
 0.57249996E+02 -0.90573E+05
 0.57299995E+02 -0.69513E+05
 0.57349995E+02 -0.18544E+05
 0.57399998E+02  0.59148E+05
 0.57449997E+02  0.14066E+06
 0.57499996E+02  0.20545E+06
 0.57549995E+02  0.22927E+06
 0.57599995E+02  0.20800E+06
 0.57649998E+02  0.16503E+06
 0.57699997E+02  0.11068E+06
 0.57749996E+02  0.61194E+05
 0.57799995E+02  0.22609E+05
 0.57849995E+02 -0.84547E+04
 0.57899998E+02 -0.25261E+05
 0.57949997E+02 -0.38841E+05
 0.57999996E+02 -0.40914E+05
 0.58049995E+02 -0.53591E+04
 0.58099995E+02  0.59801E+05
 0.58149998E+02  0.13133E+06
 0.58199997E+02  0.19288E+06
 0.58249996E+02  0.22819E+06
 0.58299995E+02  0.23416E+06
 0.58349995E+02  0.22058E+06
 0.58399998E+02  0.19024E+06
 0.58449997E+02  0.15624E+06
 0.58499996E+02  0.12153E+06
 0.58549995E+02  0.10024E+06
 0.58599995E+02  0.10551E+06
 0.58649998E+02  0.12737E+06
 0.58699997E+02  0.15911E+06
 0.58749996E+02  0.19507E+06
 0.58799995E+02  0.24364E+06
 0.58849995E+02  0.29085E+06
 0.58899998E+02  0.32008E+06
 0.58949997E+02  0.33486E+06
 0.58999996E+02  0.33073E+06
 0.59049995E+02  0.30030E+06
 0.59099995E+02  0.25887E+06
 0.59149998E+02  0.22192E+06
 0.59199997E+02  0.18340E+06
 0.59249996E+02  0.14119E+06
 0.59299995E+02  0.92588E+05
 0.59349995E+02  0.25652E+05
 0.59399998E+02 -0.61033E+05
 0.59449997E+02 -0.15240E+06
 0.59499996E+02 -0.21585E+06
 0.59549995E+02 -0.24174E+06
 0.59599995E+02 -0.24233E+06
 0.59649998E+02 -0.22856E+06
 0.59699997E+02 -0.21142E+06
 0.59749996E+02 -0.18142E+06
 0.59799995E+02 -0.15017E+06
 0.59849995E+02 -0.14696E+06
 0.59899998E+02 -0.16705E+06
 0.59949997E+02 -0.19710E+06
 0.59999996E+02 -0.21924E+06
 0.60049995E+02 -0.19798E+06
 0.60099995E+02 -0.13297E+06
 0.60149998E+02 -0.42797E+05
 0.60199997E+02  0.55186E+05
 0.60249996E+02  0.14600E+06
 0.60299995E+02  0.21363E+06
 0.60349995E+02  0.25045E+06
 0.60399998E+02  0.26943E+06
 0.60449997E+02  0.26183E+06
 0.60499996E+02  0.23259E+06
 0.60549995E+02  0.20104E+06
 0.60599995E+02  0.16119E+06
 0.60649998E+02  0.12204E+06
 0.60699997E+02  0.93133E+05
 0.60749996E+02  0.93822E+05
 0.60799995E+02  0.13089E+06
 0.60849995E+02  0.18309E+06
 0.60899998E+02  0.24045E+06
 0.60949997E+02  0.28425E+06
 0.60999996E+02  0.29974E+06
 0.61049995E+02  0.27371E+06
 0.61099995E+02  0.21493E+06
 0.61149998E+02  0.14741E+06
 0.61199997E+02  0.85305E+05
 0.61249996E+02  0.24438E+05
 0.61299995E+02 -0.44389E+05
 0.61349995E+02 -0.12479E+06
 0.61399998E+02 -0.21477E+06
 0.61449997E+02 -0.29199E+06
 0.61499996E+02 -0.32630E+06
 0.61549995E+02 -0.31279E+06
 0.61599995E+02 -0.25253E+06
 0.61649998E+02 -0.15345E+06
 0.61699997E+02 -0.38502E+05
 0.61749996E+02  0.73291E+05
 0.61799995E+02  0.15982E+06
 0.61849995E+02  0.22801E+06
 0.61899998E+02  0.28064E+06
 0.61949997E+02  0.31619E+06
 0.61999996E+02  0.33406E+06
 0.62049995E+02  0.33125E+06
 0.62099998E+02  0.32460E+06
 0.62149994E+02  0.31707E+06
 0.62199997E+02  0.28935E+06
 0.62249992E+02  0.23737E+06
 0.62299995E+02  0.18640E+06
 0.62349998E+02  0.14904E+06
 0.62399994E+02  0.10837E+06
 0.62449997E+02  0.47464E+05
 0.62499992E+02 -0.16531E+05
 0.62549995E+02 -0.67223E+05
 0.62599998E+02 -0.98766E+05
 0.62649994E+02 -0.99538E+05
 0.62699997E+02 -0.76269E+05
 0.62749992E+02 -0.45079E+05
 0.62799995E+02 -0.23465E+05
 0.62849998E+02 -0.20653E+05
 0.62899994E+02 -0.34082E+05
 0.62949997E+02 -0.64112E+05
 0.62999992E+02 -0.10854E+06
 0.63049995E+02 -0.16516E+06
 0.63099998E+02 -0.21748E+06
 0.63149994E+02 -0.25336E+06
 0.63199997E+02 -0.28062E+06
 0.63249992E+02 -0.29112E+06
 0.63299995E+02 -0.28537E+06
 0.63349998E+02 -0.26045E+06
 0.63399994E+02 -0.21104E+06
 0.63449997E+02 -0.14516E+06
 0.63499992E+02 -0.85654E+05
 0.63549995E+02 -0.53250E+05
 0.63599998E+02 -0.41326E+05
 0.63649994E+02 -0.47998E+05
 0.63699997E+02 -0.70126E+05
 0.63749992E+02 -0.10000E+06
 0.63799995E+02 -0.13305E+06
 0.63849998E+02 -0.16092E+06
 0.63899994E+02 -0.17313E+06
 0.63949997E+02 -0.15953E+06
 0.63999992E+02 -0.12510E+06
 0.64049995E+02 -0.75652E+05
 0.64099998E+02 -0.19346E+05
 0.64149994E+02  0.32671E+05
 0.64199997E+02  0.73511E+05
 0.64249992E+02  0.10994E+06
 0.64299995E+02  0.15383E+06
 0.64349998E+02  0.19963E+06
 0.64399994E+02  0.24257E+06
 0.64449997E+02  0.28104E+06
 0.64499992E+02  0.31197E+06
 0.64549995E+02  0.32663E+06
 0.64599998E+02  0.32365E+06
 0.64649994E+02  0.29908E+06
 0.64699997E+02  0.26294E+06
 0.64749992E+02  0.24301E+06
 0.64799995E+02  0.23640E+06
 0.64849998E+02  0.22040E+06
 0.64899994E+02  0.19726E+06
 0.64949997E+02  0.17483E+06
 0.64999992E+02  0.15630E+06
 0.65049995E+02  0.13937E+06
 0.65099998E+02  0.11426E+06
 0.65149994E+02  0.94618E+05
 0.65199997E+02  0.85107E+05
 0.65249992E+02  0.76214E+05
 0.65299995E+02  0.59842E+05
 0.65349998E+02  0.36425E+05
 0.65399994E+02  0.15772E+05
 0.65449997E+02  0.94777E+04
 0.65499992E+02  0.35961E+05
 0.65549995E+02  0.87065E+05
 0.65599998E+02  0.13775E+06
 0.65649994E+02  0.17301E+06
 0.65699997E+02  0.17561E+06
 0.65749992E+02  0.14847E+06
 0.65799995E+02  0.11930E+06
 0.65849998E+02  0.98130E+05
 0.65899994E+02  0.79266E+05
 0.65949997E+02  0.54218E+05
 0.65999992E+02  0.14811E+05
 0.66049995E+02 -0.25799E+05
 0.66099998E+02 -0.68690E+05
 0.66149994E+02 -0.12656E+06
 0.66199997E+02 -0.18339E+06
 0.66249992E+02 -0.21625E+06
 0.66299995E+02 -0.22401E+06
 0.66349998E+02 -0.21016E+06
 0.66399994E+02 -0.17532E+06
 0.66449997E+02 -0.13598E+06
 0.66499992E+02 -0.10114E+06
 0.66549995E+02 -0.70421E+05
 0.66599998E+02 -0.42459E+05
 0.66649994E+02 -0.21861E+05
 0.66699997E+02 -0.13713E+05
 0.66749992E+02 -0.20440E+05
 0.66799995E+02 -0.42150E+05
 0.66849998E+02 -0.75098E+05
 0.66899994E+02 -0.11199E+06
 0.66949997E+02 -0.14328E+06
 0.66999992E+02 -0.16770E+06
 0.67049995E+02 -0.18727E+06
 0.67099998E+02 -0.20891E+06
 0.67149994E+02 -0.23102E+06
 0.67199997E+02 -0.25161E+06
 0.67249992E+02 -0.27183E+06
 0.67299995E+02 -0.28515E+06
 0.67349998E+02 -0.28996E+06
 0.67399994E+02 -0.28177E+06
 0.67449997E+02 -0.24871E+06
 0.67499992E+02 -0.19370E+06
 0.67549995E+02 -0.14330E+06
 0.67599998E+02 -0.11544E+06
 0.67649994E+02 -0.10047E+06
 0.67699997E+02 -0.88574E+05
 0.67749992E+02 -0.80495E+05
 0.67799995E+02 -0.79635E+05
 0.67849998E+02 -0.86631E+05
 0.67899994E+02 -0.10147E+06
 0.67949997E+02 -0.10252E+06
 0.67999992E+02 -0.86531E+05
 0.68049995E+02 -0.74632E+05
 0.68099998E+02 -0.68056E+05
 0.68149994E+02 -0.72425E+05
 0.68199997E+02 -0.82196E+05
 0.68249992E+02 -0.93141E+05
 0.68299995E+02 -0.10325E+06
 0.68349998E+02 -0.10241E+06
 0.68399994E+02 -0.85430E+05
 0.68449997E+02 -0.58880E+05
 0.68499992E+02 -0.31921E+05
 0.68549995E+02 -0.18762E+04
 0.68599998E+02  0.21876E+05
 0.68649994E+02  0.32521E+05
 0.68699997E+02  0.35379E+05
 0.68749992E+02  0.36742E+05
 0.68799995E+02  0.41309E+05
 0.68849998E+02  0.51679E+05
 0.68899994E+02  0.65887E+05
 0.68949997E+02  0.75417E+05
 0.68999992E+02  0.74013E+05
 0.69049995E+02  0.56904E+05
 0.69099998E+02  0.34949E+05
 0.69149994E+02  0.10064E+05
 0.69199997E+02 -0.17324E+05
 0.69249992E+02 -0.28799E+05
 0.69299995E+02 -0.24832E+05
 0.69349998E+02 -0.13606E+05
 0.69399994E+02  0.14755E+04
 0.69449997E+02  0.14730E+05
 0.69499992E+02  0.22513E+05
 0.69549995E+02  0.28616E+05
 0.69599998E+02  0.41290E+05
 0.69649994E+02  0.62090E+05
 0.69699997E+02  0.83851E+05
 0.69749992E+02  0.10308E+06
 0.69799995E+02  0.12092E+06
 0.69849998E+02  0.13888E+06
 0.69899994E+02  0.15441E+06
 0.69949997E+02  0.16770E+06
 0.69999992E+02  0.17869E+06
 0.70049995E+02  0.18745E+06
 0.70099998E+02  0.19547E+06
 0.70149994E+02  0.20183E+06
 0.70199997E+02  0.20795E+06
 0.70249992E+02  0.21549E+06
 0.70299995E+02  0.22392E+06
 0.70349998E+02  0.23524E+06
 0.70399994E+02  0.25579E+06
 0.70449997E+02  0.28622E+06
 0.70499992E+02  0.32125E+06
 0.70549995E+02  0.34926E+06
 0.70599998E+02  0.36288E+06
 0.70649994E+02  0.36348E+06
 0.70699997E+02  0.35462E+06
 0.70749992E+02  0.34336E+06
 0.70799995E+02  0.33194E+06
 0.70849998E+02  0.32089E+06
 0.70899994E+02  0.30775E+06
 0.70949997E+02  0.27804E+06
 0.70999992E+02  0.23169E+06
 0.71049995E+02  0.17841E+06
 0.71099998E+02  0.12002E+06
 0.71149994E+02  0.63762E+05
 0.71199997E+02  0.16624E+05
 0.71249992E+02 -0.29007E+05
 0.71299995E+02 -0.76418E+05
 0.71349998E+02 -0.11907E+06
 0.71399994E+02 -0.15305E+06
 0.71449997E+02 -0.17717E+06
 0.71499992E+02 -0.19010E+06
 0.71549995E+02 -0.19511E+06
 0.71599998E+02 -0.19137E+06
 0.71649994E+02 -0.17760E+06
 0.71699997E+02 -0.15576E+06
 0.71749992E+02 -0.12572E+06
 0.71799995E+02 -0.93711E+05
 0.71849998E+02 -0.64984E+05
 0.71899994E+02 -0.48634E+05
 0.71949997E+02 -0.43820E+05
 0.71999992E+02 -0.48355E+05
 0.72049995E+02 -0.58086E+05
 0.72099998E+02 -0.65915E+05
 0.72149994E+02 -0.73295E+05
 0.72199997E+02 -0.80215E+05
 0.72249992E+02 -0.78850E+05
 0.72299995E+02 -0.66258E+05
 0.72349998E+02 -0.52078E+05
 0.72399994E+02 -0.31387E+05
 0.72449997E+02 -0.53696E+04
 0.72499992E+02  0.18839E+05
 0.72549995E+02  0.46526E+05
 0.72599998E+02  0.81736E+05
 0.72649994E+02  0.11973E+06
 0.72699997E+02  0.14269E+06
 0.72749992E+02  0.14001E+06
 0.72799995E+02  0.11307E+06
 0.72849998E+02  0.71452E+05
 0.72899994E+02  0.25384E+05
 0.72949997E+02 -0.20799E+05
 0.72999992E+02 -0.61750E+05
 0.73049995E+02 -0.97174E+05
 0.73099998E+02 -0.12465E+06
 0.73149994E+02 -0.14119E+06
 0.73199997E+02 -0.14349E+06
 0.73249992E+02 -0.12952E+06
 0.73299995E+02 -0.10415E+06
 0.73349998E+02 -0.72394E+05
 0.73399994E+02 -0.38572E+05
 0.73449997E+02 -0.53940E+04
 0.73499992E+02  0.28971E+05
 0.73549995E+02  0.66364E+05
 0.73599998E+02  0.95634E+05
 0.73649994E+02  0.11265E+06
 0.73699997E+02  0.11805E+06
 0.73749992E+02  0.10448E+06
 0.73799995E+02  0.83012E+05
 0.73849998E+02  0.61262E+05
 0.73899994E+02  0.38562E+05
 0.73949997E+02  0.19228E+05
 0.73999992E+02  0.10109E+03
 0.74049995E+02 -0.11440E+05
 0.74099998E+02 -0.74169E+04
 0.74149994E+02  0.85576E+04
 0.74199997E+02  0.32232E+05
 0.74249992E+02  0.55618E+05
 0.74299995E+02  0.75776E+05
 0.74349998E+02  0.92661E+05
 0.74399994E+02  0.10924E+06
 0.74449997E+02  0.12083E+06
 0.74499992E+02  0.12334E+06
 0.74549995E+02  0.11999E+06
 0.74599998E+02  0.10931E+06
 0.74649994E+02  0.97805E+05
 0.74699997E+02  0.94131E+05
 0.74749992E+02  0.96215E+05
 0.74799995E+02  0.94467E+05
 0.74849998E+02  0.90255E+05
 0.74899994E+02  0.84689E+05
 0.74949997E+02  0.77944E+05
 0.74999992E+02  0.60163E+05
 0.75049995E+02  0.26950E+05
 0.75099998E+02 -0.91870E+04
 0.75149994E+02 -0.50123E+05
 0.75199997E+02 -0.90457E+05
 0.75249992E+02 -0.12116E+06
 0.75299995E+02 -0.13870E+06
 0.75349998E+02 -0.14619E+06
 0.75399994E+02 -0.14810E+06
 0.75449997E+02 -0.14437E+06
 0.75499992E+02 -0.13538E+06
 0.75549995E+02 -0.12445E+06
 0.75599998E+02 -0.12325E+06
 0.75649994E+02 -0.12996E+06
 0.75699997E+02 -0.14257E+06
 0.75749992E+02 -0.16721E+06
 0.75799995E+02 -0.20053E+06
 0.75849998E+02 -0.23532E+06
 0.75899994E+02 -0.26373E+06
 0.75949997E+02 -0.27652E+06
 0.75999992E+02 -0.27728E+06
 0.76049995E+02 -0.27780E+06
 0.76099998E+02 -0.27904E+06
 0.76149994E+02 -0.27112E+06
 0.76199997E+02 -0.25239E+06
 0.76249992E+02 -0.23219E+06
 0.76299995E+02 -0.21384E+06
 0.76349998E+02 -0.19241E+06
 0.76399994E+02 -0.15931E+06
 0.76449997E+02 -0.11820E+06
 0.76499992E+02 -0.70750E+05
 0.76549995E+02 -0.14617E+05
 0.76599998E+02  0.41851E+05
 0.76649994E+02  0.90538E+05
 0.76699997E+02  0.12339E+06
 0.76749992E+02  0.14170E+06
 0.76799995E+02  0.15031E+06
 0.76849998E+02  0.14676E+06
 0.76899994E+02  0.13395E+06
 0.76949997E+02  0.11539E+06
 0.76999992E+02  0.90328E+05
 0.77049995E+02  0.65341E+05
 0.77099998E+02  0.51797E+05
 0.77149994E+02  0.47200E+05
 0.77199997E+02  0.51497E+05
 0.77249992E+02  0.68933E+05
 0.77299995E+02  0.95098E+05
 0.77349998E+02  0.13242E+06
 0.77399994E+02  0.17168E+06
 0.77449997E+02  0.20095E+06
 0.77499992E+02  0.22410E+06
 0.77549995E+02  0.24127E+06
 0.77599998E+02  0.24990E+06
 0.77649994E+02  0.25317E+06
 0.77699997E+02  0.25408E+06
 0.77749992E+02  0.25471E+06
 0.77799995E+02  0.25455E+06
 0.77849998E+02  0.24592E+06
 0.77899994E+02  0.22548E+06
 0.77949997E+02  0.19285E+06
 0.77999992E+02  0.15147E+06
 0.78049995E+02  0.11215E+06
 0.78099998E+02  0.80197E+05
 0.78149994E+02  0.56357E+05
 0.78199997E+02  0.36790E+05
 0.78249992E+02  0.15585E+05
 0.78299995E+02 -0.13620E+05
 0.78349998E+02 -0.49081E+05
 0.78399994E+02 -0.81535E+05
 0.78449997E+02 -0.11046E+06
 0.78499992E+02 -0.13593E+06
 0.78549995E+02 -0.15643E+06
 0.78599998E+02 -0.16823E+06
 0.78649994E+02 -0.17153E+06
 0.78699997E+02 -0.16675E+06
 0.78749992E+02 -0.15555E+06
 0.78799995E+02 -0.14282E+06
 0.78849998E+02 -0.13301E+06
 0.78899994E+02 -0.13037E+06
 0.78949997E+02 -0.12943E+06
 0.78999992E+02 -0.12212E+06
 0.79049995E+02 -0.10457E+06
 0.79099998E+02 -0.82039E+05
 0.79149994E+02 -0.55255E+05
 0.79199997E+02 -0.23022E+05
 0.79249992E+02  0.10683E+05
 0.79299995E+02  0.45877E+05
 0.79349998E+02  0.76439E+05
 0.79399994E+02  0.97546E+05
 0.79449997E+02  0.10242E+06
 0.79499992E+02  0.90346E+05
 0.79549995E+02  0.71696E+05
 0.79599998E+02  0.49782E+05
 0.79649994E+02  0.31126E+05
 0.79699997E+02  0.22891E+05
 0.79749992E+02  0.24165E+05
 0.79799995E+02  0.30020E+05
 0.79849998E+02  0.34111E+05
 0.79899994E+02  0.32058E+05
 0.79949997E+02  0.28831E+05
 0.79999992E+02  0.27702E+05
 0.80049995E+02  0.22312E+05
 0.80099998E+02  0.77925E+04
 0.80149994E+02 -0.92972E+04
 0.80199997E+02 -0.19957E+05
 0.80249992E+02 -0.22345E+05
 0.80299995E+02 -0.15066E+05
 0.80349998E+02 -0.11031E+04
 0.80399994E+02  0.12949E+05
 0.80449997E+02  0.25432E+05
 0.80499992E+02  0.34826E+05
 0.80549995E+02  0.34010E+05
 0.80599998E+02  0.19274E+05
 0.80649994E+02 -0.43017E+04
 0.80699997E+02 -0.29204E+05
 0.80749992E+02 -0.53178E+05
 0.80799995E+02 -0.74449E+05
 0.80849998E+02 -0.93630E+05
 0.80899994E+02 -0.11213E+06
 0.80949997E+02 -0.12587E+06
 0.80999992E+02 -0.12889E+06
 0.81049995E+02 -0.11982E+06
 0.81099998E+02 -0.10498E+06
 0.81149994E+02 -0.84783E+05
 0.81199997E+02 -0.58010E+05
 0.81249992E+02 -0.26823E+05
 0.81299995E+02  0.45763E+04
 0.81349998E+02  0.33628E+05
 0.81399994E+02  0.68988E+05
 0.81449997E+02  0.11072E+06
 0.81499992E+02  0.15139E+06
 0.81549995E+02  0.18629E+06
 0.81599998E+02  0.21469E+06
 0.81649994E+02  0.23648E+06
 0.81699997E+02  0.25021E+06
 0.81749992E+02  0.25916E+06
 0.81799995E+02  0.25892E+06
 0.81849998E+02  0.24802E+06
 0.81899994E+02  0.22869E+06
 0.81949997E+02  0.20454E+06
 0.81999992E+02  0.18223E+06
 0.82049995E+02  0.16903E+06
 0.82099998E+02  0.16936E+06
 0.82149994E+02  0.17181E+06
 0.82199997E+02  0.16718E+06
 0.82249992E+02  0.15604E+06
 0.82299995E+02  0.14320E+06
 0.82349998E+02  0.12940E+06
 0.82399994E+02  0.11410E+06
 0.82449997E+02  0.10314E+06
 0.82499992E+02  0.10284E+06
 0.82549995E+02  0.11535E+06
 0.82599998E+02  0.13481E+06
 0.82649994E+02  0.15581E+06
 0.82699997E+02  0.17307E+06
 0.82749992E+02  0.18223E+06
 0.82799995E+02  0.18513E+06
 0.82849998E+02  0.18221E+06
 0.82899994E+02  0.16712E+06
 0.82949997E+02  0.14089E+06
 0.82999992E+02  0.10775E+06
 0.83049995E+02  0.70769E+05
 0.83099998E+02  0.40453E+05
 0.83149994E+02  0.16212E+05
 0.83199997E+02 -0.80841E+04
 0.83249992E+02 -0.30122E+05
 0.83299995E+02 -0.47268E+05
 0.83349998E+02 -0.58420E+05
 0.83399994E+02 -0.64517E+05
 0.83449997E+02 -0.66995E+05
 0.83499992E+02 -0.69732E+05
 0.83549995E+02 -0.77313E+05
 0.83599998E+02 -0.89984E+05
 0.83649994E+02 -0.11067E+06
 0.83699997E+02 -0.13721E+06
 0.83749992E+02 -0.16580E+06
 0.83799995E+02 -0.19709E+06
 0.83849998E+02 -0.23105E+06
 0.83899994E+02 -0.26493E+06
 0.83949997E+02 -0.29766E+06
 0.83999992E+02 -0.32823E+06
 0.84049995E+02 -0.35036E+06
 0.84099998E+02 -0.36365E+06
 0.84149994E+02 -0.37050E+06
 0.84199997E+02 -0.37190E+06
 0.84249992E+02 -0.36457E+06
 0.84299995E+02 -0.34833E+06
 0.84349998E+02 -0.32828E+06
 0.84399994E+02 -0.30272E+06
 0.84449997E+02 -0.27102E+06
 0.84499992E+02 -0.23825E+06
 0.84549995E+02 -0.20792E+06
 0.84599998E+02 -0.17819E+06
 0.84649994E+02 -0.14588E+06
 0.84699997E+02 -0.11245E+06
 0.84749992E+02 -0.79891E+05
 0.84799995E+02 -0.50354E+05
 0.84849998E+02 -0.19590E+05
 0.84899994E+02  0.17484E+05
 0.84949997E+02  0.59559E+05
 0.84999992E+02  0.10269E+06
 0.85049995E+02  0.14270E+06
 0.85099998E+02  0.17950E+06
 0.85149994E+02  0.21472E+06
 0.85199997E+02  0.24816E+06
 0.85249992E+02  0.27612E+06
 0.85299995E+02  0.29387E+06
 0.85349998E+02  0.30123E+06
 0.85399994E+02  0.30317E+06
 0.85449997E+02  0.29932E+06
 0.85499992E+02  0.29153E+06
 0.85549995E+02  0.27881E+06
 0.85599998E+02  0.25928E+06
 0.85649994E+02  0.24283E+06
 0.85699997E+02  0.23203E+06
 0.85749992E+02  0.22392E+06
 0.85799995E+02  0.22069E+06
 0.85849998E+02  0.21849E+06
 0.85899994E+02  0.21084E+06
 0.85949997E+02  0.19194E+06
 0.85999992E+02  0.16168E+06
 0.86049995E+02  0.12854E+06
 0.86099998E+02  0.99637E+05
 0.86149994E+02  0.77514E+05
 0.86199997E+02  0.56753E+05
 0.86249992E+02  0.34279E+05
 0.86299995E+02  0.96626E+04
 0.86349998E+02 -0.12846E+05
 0.86399994E+02 -0.31136E+05
 0.86449997E+02 -0.52144E+05
 0.86499992E+02 -0.78379E+05
 0.86549995E+02 -0.11068E+06
 0.86599998E+02 -0.14516E+06
 0.86649994E+02 -0.17368E+06
 0.86699997E+02 -0.19008E+06
 0.86749992E+02 -0.19121E+06
 0.86799995E+02 -0.17714E+06
 0.86849998E+02 -0.15483E+06
 0.86899994E+02 -0.13684E+06
 0.86949997E+02 -0.12617E+06
 0.86999992E+02 -0.11899E+06
 0.87049995E+02 -0.10930E+06
 0.87099998E+02 -0.94068E+05
 0.87149994E+02 -0.78945E+05
 0.87199997E+02 -0.64312E+05
 0.87249992E+02 -0.44588E+05
 0.87299995E+02 -0.18345E+05
 0.87349998E+02  0.11042E+05
 0.87399994E+02  0.39847E+05
 0.87449997E+02  0.61788E+05
 0.87499992E+02  0.73453E+05
 0.87549995E+02  0.72238E+05
 0.87599991E+02  0.54475E+05
 0.87649994E+02  0.25764E+05
 0.87699997E+02 -0.57869E+04
 0.87749992E+02 -0.32732E+05
 0.87799995E+02 -0.50712E+05
 0.87849991E+02 -0.60829E+05
 0.87899994E+02 -0.66714E+05
 0.87949997E+02 -0.70713E+05
 0.87999992E+02 -0.75054E+05
 0.88049995E+02 -0.79768E+05
 0.88099991E+02 -0.82486E+05
 0.88149994E+02 -0.78404E+05
 0.88199997E+02 -0.64709E+05
 0.88249992E+02 -0.47373E+05
 0.88299995E+02 -0.31064E+05
 0.88349991E+02 -0.17195E+05
 0.88399994E+02 -0.74659E+04
 0.88449997E+02 -0.40632E+04
 0.88499992E+02 -0.59649E+04
 0.88549995E+02 -0.86551E+04
 0.88599991E+02 -0.10449E+05
 0.88649994E+02 -0.10269E+05
 0.88699997E+02 -0.10604E+05
 0.88749992E+02 -0.14709E+05
 0.88799995E+02 -0.20059E+05
 0.88849991E+02 -0.20766E+05
 0.88899994E+02 -0.12334E+05
 0.88949997E+02  0.45161E+04
 0.88999992E+02  0.27993E+05
 0.89049995E+02  0.56144E+05
 0.89099991E+02  0.84808E+05
 0.89149994E+02  0.11043E+06
 0.89199997E+02  0.13223E+06
 0.89249992E+02  0.15175E+06
 0.89299995E+02  0.16938E+06
 0.89349991E+02  0.18226E+06
 0.89399994E+02  0.18688E+06
 0.89449997E+02  0.18253E+06
 0.89499992E+02  0.17242E+06
 0.89549995E+02  0.16064E+06
 0.89599991E+02  0.14731E+06
 0.89649994E+02  0.12630E+06
 0.89699997E+02  0.97321E+05
 0.89749992E+02  0.64911E+05
 0.89799995E+02  0.30328E+05
 0.89849991E+02 -0.36127E+04
 0.89899994E+02 -0.34971E+05
 0.89949997E+02 -0.62267E+05
 0.89999992E+02 -0.80184E+05
 0.90049995E+02 -0.83702E+05
 0.90099991E+02 -0.73870E+05
 0.90149994E+02 -0.54188E+05
 0.90199997E+02 -0.29376E+05
 0.90249992E+02 -0.27957E+04
 0.90299995E+02  0.25996E+05
 0.90349991E+02  0.54644E+05
 0.90399994E+02  0.80760E+05
 0.90449997E+02  0.10148E+06
 0.90499992E+02  0.11388E+06
 0.90549995E+02  0.11773E+06
 0.90599991E+02  0.11546E+06
 0.90649994E+02  0.11350E+06
 0.90699997E+02  0.11365E+06
 0.90749992E+02  0.11426E+06
 0.90799995E+02  0.11388E+06
 0.90849991E+02  0.11446E+06
 0.90899994E+02  0.11835E+06
 0.90949997E+02  0.12452E+06
 0.90999992E+02  0.12780E+06
 0.91049995E+02  0.12331E+06
 0.91099991E+02  0.11097E+06
 0.91149994E+02  0.90927E+05
 0.91199997E+02  0.68139E+05
 0.91249992E+02  0.43388E+05
 0.91299995E+02  0.15249E+05
 0.91349991E+02 -0.11338E+05
 0.91399994E+02 -0.27948E+05
 0.91449997E+02 -0.31124E+05
 0.91499992E+02 -0.23778E+05
 0.91549995E+02 -0.87732E+04
 0.91599991E+02  0.13413E+05
 0.91649994E+02  0.40626E+05
 0.91699997E+02  0.66749E+05
 0.91749992E+02  0.87355E+05
 0.91799995E+02  0.10007E+06
 0.91849991E+02  0.10889E+06
 0.91899994E+02  0.11878E+06
 0.91949997E+02  0.12778E+06
 0.91999992E+02  0.13342E+06
 0.92049995E+02  0.13690E+06
 0.92099991E+02  0.13365E+06
 0.92149994E+02  0.12392E+06
 0.92199997E+02  0.11241E+06
 0.92249992E+02  0.99044E+05
 0.92299995E+02  0.83731E+05
 0.92349991E+02  0.62388E+05
 0.92399994E+02  0.34253E+05
 0.92449997E+02 -0.10065E+04
 0.92499992E+02 -0.39384E+05
 0.92549995E+02 -0.76762E+05
 0.92599991E+02 -0.11600E+06
 0.92649994E+02 -0.15396E+06
 0.92699997E+02 -0.18539E+06
 0.92749992E+02 -0.20824E+06
 0.92799995E+02 -0.22382E+06
 0.92849991E+02 -0.23372E+06
 0.92899994E+02 -0.23920E+06
 0.92949997E+02 -0.24143E+06
 0.92999992E+02 -0.24141E+06
 0.93049995E+02 -0.23821E+06
 0.93099991E+02 -0.22835E+06
 0.93149994E+02 -0.21299E+06
 0.93199997E+02 -0.19255E+06
 0.93249992E+02 -0.16617E+06
 0.93299995E+02 -0.13975E+06
 0.93349991E+02 -0.11827E+06
 0.93399994E+02 -0.10128E+06
 0.93449997E+02 -0.88927E+05
 0.93499992E+02 -0.82564E+05
 0.93549995E+02 -0.79985E+05
 0.93599991E+02 -0.77311E+05
 0.93649994E+02 -0.72396E+05
 0.93699997E+02 -0.59883E+05
 0.93749992E+02 -0.38320E+05
 0.93799995E+02 -0.11773E+05
 0.93849991E+02  0.16245E+05
 0.93899994E+02  0.42238E+05
 0.93949997E+02  0.64367E+05
 0.93999992E+02  0.83379E+05
 0.94049995E+02  0.99957E+05
 0.94099991E+02  0.11042E+06
 0.94149994E+02  0.11130E+06
 0.94199997E+02  0.10427E+06
 0.94249992E+02  0.93913E+05
 0.94299995E+02  0.84943E+05
 0.94349991E+02  0.77981E+05
 0.94399994E+02  0.72876E+05
 0.94449997E+02  0.69506E+05
 0.94499992E+02  0.64402E+05
 0.94549995E+02  0.60689E+05
 0.94599991E+02  0.60136E+05
 0.94649994E+02  0.58055E+05
 0.94699997E+02  0.51361E+05
 0.94749992E+02  0.36453E+05
 0.94799995E+02  0.13453E+05
 0.94849991E+02 -0.12551E+05
 0.94899994E+02 -0.36942E+05
 0.94949997E+02 -0.60960E+05
 0.94999992E+02 -0.84010E+05
 0.95049995E+02 -0.10388E+06
 0.95099991E+02 -0.12249E+06
 0.95149994E+02 -0.13696E+06
 0.95199997E+02 -0.14635E+06
 0.95249992E+02 -0.15114E+06
 0.95299995E+02 -0.14881E+06
 0.95349991E+02 -0.14099E+06
 0.95399994E+02 -0.13033E+06
 0.95449997E+02 -0.11823E+06
 0.95499992E+02 -0.10357E+06
 0.95549995E+02 -0.85404E+05
 0.95599991E+02 -0.69544E+05
 0.95649994E+02 -0.61284E+05
 0.95699997E+02 -0.57532E+05
 0.95749992E+02 -0.57120E+05
 0.95799995E+02 -0.59421E+05
 0.95849991E+02 -0.61552E+05
 0.95899994E+02 -0.61893E+05
 0.95949997E+02 -0.58965E+05
 0.95999992E+02 -0.49873E+05
 0.96049995E+02 -0.34338E+05
 0.96099991E+02 -0.19993E+05
 0.96149994E+02 -0.10550E+05
 0.96199997E+02 -0.43311E+04
 0.96249992E+02  0.50543E+04
 0.96299995E+02  0.23766E+05
 0.96349991E+02  0.53993E+05
 0.96399994E+02  0.91142E+05
 0.96449997E+02  0.12424E+06
 0.96499992E+02  0.14887E+06
 0.96549995E+02  0.16226E+06
 0.96599991E+02  0.16163E+06
 0.96649994E+02  0.15025E+06
 0.96699997E+02  0.13114E+06
 0.96749992E+02  0.10634E+06
 0.96799995E+02  0.79076E+05
 0.96849991E+02  0.54299E+05
 0.96899994E+02  0.35743E+05
 0.96949997E+02  0.24246E+05
 0.96999992E+02  0.21938E+05
 0.97049995E+02  0.25709E+05
 0.97099991E+02  0.29756E+05
 0.97149994E+02  0.32513E+05
 0.97199997E+02  0.33705E+05
 0.97249992E+02  0.30719E+05
 0.97299995E+02  0.24715E+05
 0.97349991E+02  0.18565E+05
 0.97399994E+02  0.12673E+05
 0.97449997E+02  0.10059E+05
 0.97499992E+02  0.10345E+05
 0.97549995E+02  0.95803E+04
 0.97599991E+02  0.47289E+04
 0.97649994E+02 -0.42490E+04
 0.97699997E+02 -0.15680E+05
 0.97749992E+02 -0.27534E+05
 0.97799995E+02 -0.38792E+05
 0.97849991E+02 -0.49356E+05
 0.97899994E+02 -0.57339E+05
 0.97949997E+02 -0.60447E+05
 0.97999992E+02 -0.53140E+05
