-0.19969940E+01 -0.75905E+04
-0.19469941E+01 -0.75247E+04
-0.18969940E+01 -0.75562E+04
-0.18469940E+01 -0.75686E+04
-0.17969940E+01 -0.75896E+04
-0.17469940E+01 -0.76009E+04
-0.16969941E+01 -0.75754E+04
-0.16469941E+01 -0.75467E+04
-0.15969940E+01 -0.75393E+04
-0.15469940E+01 -0.75537E+04
-0.14969940E+01 -0.75789E+04
-0.14469941E+01 -0.75921E+04
-0.13969941E+01 -0.75704E+04
-0.13469940E+01 -0.75421E+04
-0.12969941E+01 -0.75200E+04
-0.12469940E+01 -0.75303E+04
-0.11969941E+01 -0.75668E+04
-0.11469941E+01 -0.75818E+04
-0.10969940E+01 -0.75676E+04
-0.10469941E+01 -0.75444E+04
-0.99699408E+00 -0.75528E+04
-0.94699407E+00 -0.75714E+04
-0.89699411E+00 -0.75938E+04
-0.84699404E+00 -0.75791E+04
-0.79699409E+00 -0.75508E+04
-0.74699414E+00 -0.75502E+04
-0.69699407E+00 -0.75613E+04
-0.64699411E+00 -0.75954E+04
-0.59699416E+00 -0.76219E+04
-0.54699409E+00 -0.75982E+04
-0.49699414E+00 -0.75778E+04
-0.44699407E+00 -0.75806E+04
-0.39699411E+00 -0.75895E+04
-0.34699416E+00 -0.76243E+04
-0.29699409E+00 -0.76211E+04
-0.24699414E+00 -0.75832E+04
-0.19699407E+00 -0.75768E+04
-0.14699411E+00 -0.75727E+04
-0.96994162E-01 -0.75869E+04
-0.46994090E-01 -0.76139E+04
 0.30058622E-02 -0.76093E+04
 0.53005934E-01 -0.75950E+04
 0.10300589E+00 -0.75853E+04
 0.15300584E+00 -0.75854E+04
 0.20300579E+00 -0.76062E+04
 0.25300574E+00 -0.76225E+04
 0.30300593E+00 -0.76050E+04
 0.35300589E+00 -0.75829E+04
 0.40300584E+00 -0.75768E+04
 0.45300579E+00 -0.75927E+04
 0.50300574E+00 -0.76240E+04
 0.55300593E+00 -0.76360E+04
 0.60300589E+00 -0.76089E+04
 0.65300584E+00 -0.75916E+04
 0.70300579E+00 -0.75862E+04
 0.75300574E+00 -0.76018E+04
 0.80300570E+00 -0.76296E+04
 0.85300589E+00 -0.76256E+04
 0.90300584E+00 -0.75959E+04
 0.95300579E+00 -0.75766E+04
 0.10030057E+01 -0.75839E+04
 0.10530057E+01 -0.75891E+04
 0.11030059E+01 -0.76044E+04
 0.11530058E+01 -0.75825E+04
 0.12030058E+01 -0.75495E+04
 0.12530057E+01 -0.75584E+04
 0.13030057E+01 -0.75723E+04
 0.13530059E+01 -0.76000E+04
 0.14030058E+01 -0.76102E+04
 0.14530058E+01 -0.75853E+04
 0.15030057E+01 -0.75605E+04
 0.15530057E+01 -0.75541E+04
 0.16030059E+01 -0.75708E+04
 0.16530058E+01 -0.75931E+04
 0.17030058E+01 -0.75901E+04
 0.17530057E+01 -0.75568E+04
 0.18030057E+01 -0.75347E+04
 0.18530056E+01 -0.75424E+04
 0.19030058E+01 -0.75659E+04
 0.19530058E+01 -0.75832E+04
 0.20030057E+01 -0.75737E+04
 0.20530057E+01 -0.75290E+04
 0.21030059E+01 -0.75220E+04
 0.21530056E+01 -0.75335E+04
 0.22030058E+01 -0.75541E+04
 0.22530055E+01 -0.75663E+04
 0.23030057E+01 -0.75273E+04
 0.23530059E+01 -0.75068E+04
 0.24030056E+01 -0.75055E+04
 0.24530058E+01 -0.75484E+04
 0.25030055E+01 -0.75825E+04
 0.25530057E+01 -0.75825E+04
 0.26030059E+01 -0.75585E+04
 0.26530056E+01 -0.75351E+04
 0.27030058E+01 -0.75449E+04
 0.27530055E+01 -0.75646E+04
 0.28030057E+01 -0.75985E+04
 0.28530059E+01 -0.75843E+04
 0.29030056E+01 -0.75518E+04
 0.29530058E+01 -0.75516E+04
 0.30030055E+01 -0.75493E+04
 0.30530057E+01 -0.75820E+04
 0.31030059E+01 -0.76030E+04
 0.31530056E+01 -0.75832E+04
 0.32030058E+01 -0.75656E+04
 0.32530055E+01 -0.75606E+04
 0.33030057E+01 -0.75872E+04
 0.33530059E+01 -0.76082E+04
 0.34030056E+01 -0.76158E+04
 0.34530058E+01 -0.75790E+04
 0.35030055E+01 -0.75452E+04
 0.35530057E+01 -0.75517E+04
 0.36030054E+01 -0.75771E+04
 0.36530056E+01 -0.76174E+04
 0.37030058E+01 -0.76094E+04
 0.37530055E+01 -0.75826E+04
 0.38030057E+01 -0.75679E+04
 0.38530054E+01 -0.75823E+04
 0.39030056E+01 -0.76104E+04
 0.39530058E+01 -0.76227E+04
 0.40030055E+01 -0.76050E+04
 0.40530057E+01 -0.75787E+04
 0.41030054E+01 -0.75785E+04
 0.41530056E+01 -0.75877E+04
 0.42030058E+01 -0.76160E+04
 0.42530055E+01 -0.76238E+04
 0.43030057E+01 -0.75998E+04
 0.43530054E+01 -0.75764E+04
 0.44030056E+01 -0.75777E+04
 0.44530058E+01 -0.75990E+04
 0.45030055E+01 -0.76110E+04
 0.45530057E+01 -0.75928E+04
 0.46030054E+01 -0.75663E+04
 0.46530056E+01 -0.75478E+04
 0.47030058E+01 -0.75427E+04
 0.47530055E+01 -0.75626E+04
 0.48030057E+01 -0.75705E+04
 0.48530054E+01 -0.75649E+04
 0.49030056E+01 -0.75474E+04
 0.49530058E+01 -0.75404E+04
 0.50030055E+01 -0.75573E+04
 0.50530057E+01 -0.75892E+04
 0.51030054E+01 -0.75934E+04
 0.51530056E+01 -0.75615E+04
 0.52030058E+01 -0.75568E+04
 0.52530055E+01 -0.75617E+04
 0.53030057E+01 -0.75842E+04
 0.53530054E+01 -0.76125E+04
 0.54030056E+01 -0.75867E+04
 0.54530053E+01 -0.75683E+04
 0.55030055E+01 -0.75608E+04
 0.55530057E+01 -0.75802E+04
 0.56030054E+01 -0.76083E+04
 0.56530056E+01 -0.76026E+04
 0.57030053E+01 -0.75699E+04
 0.57530055E+01 -0.75486E+04
 0.58030057E+01 -0.75560E+04
 0.58530054E+01 -0.75538E+04
 0.59030056E+01 -0.75666E+04
 0.59530053E+01 -0.75506E+04
 0.60030055E+01 -0.75245E+04
 0.60530052E+01 -0.75255E+04
 0.61030054E+01 -0.75395E+04
 0.61530056E+01 -0.75689E+04
 0.62030058E+01 -0.75860E+04
 0.62530050E+01 -0.75669E+04
 0.63030052E+01 -0.75498E+04
 0.63530054E+01 -0.75468E+04
 0.64030056E+01 -0.75555E+04
 0.64530058E+01 -0.75904E+04
 0.65030050E+01 -0.75949E+04
 0.65530052E+01 -0.75618E+04
 0.66030054E+01 -0.75451E+04
 0.66530056E+01 -0.75440E+04
 0.67030058E+01 -0.75678E+04
 0.67530050E+01 -0.75907E+04
 0.68030052E+01 -0.75749E+04
 0.68530054E+01 -0.75484E+04
 0.69030056E+01 -0.75422E+04
 0.69530058E+01 -0.75567E+04
 0.70030050E+01 -0.75841E+04
 0.70530052E+01 -0.75824E+04
 0.71030054E+01 -0.75558E+04
 0.71530056E+01 -0.75348E+04
 0.72030058E+01 -0.75264E+04
 0.72530050E+01 -0.75652E+04
 0.73030052E+01 -0.75999E+04
 0.73530054E+01 -0.75937E+04
 0.74030056E+01 -0.75611E+04
 0.74530058E+01 -0.75552E+04
 0.75030050E+01 -0.75746E+04
 0.75530052E+01 -0.75961E+04
 0.76030054E+01 -0.76216E+04
 0.76530056E+01 -0.75981E+04
 0.77030058E+01 -0.75724E+04
 0.77530050E+01 -0.75718E+04
 0.78030052E+01 -0.75854E+04
 0.78530054E+01 -0.76188E+04
 0.79030056E+01 -0.76219E+04
 0.79530058E+01 -0.75949E+04
 0.80030050E+01 -0.75726E+04
 0.80530052E+01 -0.75764E+04
 0.81030054E+01 -0.76002E+04
 0.81530056E+01 -0.76175E+04
 0.82030058E+01 -0.76066E+04
 0.82530050E+01 -0.75603E+04
 0.83030052E+01 -0.75447E+04
 0.83530054E+01 -0.75544E+04
 0.84030056E+01 -0.75837E+04
 0.84530058E+01 -0.76091E+04
 0.85030050E+01 -0.75936E+04
 0.85530052E+01 -0.75768E+04
 0.86030054E+01 -0.75735E+04
 0.86530056E+01 -0.75933E+04
 0.87030058E+01 -0.76056E+04
 0.87530050E+01 -0.75867E+04
 0.88030052E+01 -0.75544E+04
 0.88530054E+01 -0.75461E+04
 0.89030056E+01 -0.75494E+04
 0.89530058E+01 -0.75695E+04
 0.90030050E+01 -0.75900E+04
 0.90530052E+01 -0.75656E+04
 0.91030054E+01 -0.75393E+04
 0.91530056E+01 -0.75359E+04
 0.92030048E+01 -0.75540E+04
 0.92530050E+01 -0.75862E+04
 0.93030052E+01 -0.75879E+04
 0.93530054E+01 -0.75572E+04
 0.94030056E+01 -0.75412E+04
 0.94530048E+01 -0.75410E+04
 0.95030050E+01 -0.75488E+04
 0.95530052E+01 -0.75772E+04
 0.96030054E+01 -0.75671E+04
 0.96530056E+01 -0.75496E+04
 0.97030048E+01 -0.75588E+04
 0.97530050E+01 -0.75691E+04
 0.98030052E+01 -0.75974E+04
 0.98530054E+01 -0.76013E+04
 0.99030056E+01 -0.75825E+04
 0.99530048E+01 -0.75628E+04
 0.10003005E+02 -0.75662E+04
 0.10053005E+02 -0.75882E+04
 0.10103005E+02 -0.76109E+04
 0.10153006E+02 -0.75999E+04
 0.10203005E+02 -0.75658E+04
 0.10253005E+02 -0.75641E+04
 0.10303005E+02 -0.75811E+04
 0.10353005E+02 -0.76115E+04
 0.10403006E+02 -0.76198E+04
 0.10453005E+02 -0.75945E+04
 0.10503005E+02 -0.75792E+04
 0.10553005E+02 -0.75785E+04
 0.10603005E+02 -0.75955E+04
 0.10653006E+02 -0.76096E+04
 0.10703005E+02 -0.75952E+04
 0.10753005E+02 -0.75588E+04
 0.10803005E+02 -0.75495E+04
 0.10853005E+02 -0.75756E+04
 0.10903006E+02 -0.76041E+04
 0.10953005E+02 -0.76173E+04
 0.11003005E+02 -0.75952E+04
 0.11053005E+02 -0.75687E+04
 0.11103005E+02 -0.75654E+04
 0.11153006E+02 -0.75783E+04
 0.11203005E+02 -0.76059E+04
 0.11253005E+02 -0.76081E+04
 0.11303005E+02 -0.75754E+04
 0.11353005E+02 -0.75644E+04
 0.11403006E+02 -0.75707E+04
 0.11453005E+02 -0.75898E+04
 0.11503005E+02 -0.76134E+04
 0.11553005E+02 -0.75908E+04
 0.11603005E+02 -0.75544E+04
 0.11653006E+02 -0.75479E+04
 0.11703005E+02 -0.75646E+04
 0.11753005E+02 -0.75889E+04
 0.11803005E+02 -0.75887E+04
 0.11853005E+02 -0.75443E+04
 0.11903006E+02 -0.75180E+04
 0.11953005E+02 -0.75318E+04
 0.12003005E+02 -0.75488E+04
 0.12053005E+02 -0.75920E+04
 0.12103005E+02 -0.75839E+04
 0.12153006E+02 -0.75550E+04
 0.12203005E+02 -0.75494E+04
 0.12253005E+02 -0.75636E+04
 0.12303005E+02 -0.76015E+04
 0.12353005E+02 -0.76052E+04
 0.12403006E+02 -0.75815E+04
 0.12453005E+02 -0.75527E+04
 0.12503005E+02 -0.75605E+04
 0.12553005E+02 -0.75867E+04
 0.12603005E+02 -0.76056E+04
 0.12653005E+02 -0.75941E+04
 0.12703005E+02 -0.75662E+04
 0.12753005E+02 -0.75481E+04
 0.12803005E+02 -0.75537E+04
 0.12853005E+02 -0.75823E+04
 0.12903005E+02 -0.75908E+04
 0.12953005E+02 -0.75656E+04
 0.13003005E+02 -0.75407E+04
 0.13053005E+02 -0.75281E+04
 0.13103005E+02 -0.75294E+04
 0.13153005E+02 -0.75600E+04
 0.13203005E+02 -0.75520E+04
 0.13253005E+02 -0.75402E+04
 0.13303005E+02 -0.75411E+04
 0.13353005E+02 -0.75406E+04
 0.13403005E+02 -0.75684E+04
 0.13453005E+02 -0.75845E+04
 0.13503005E+02 -0.75643E+04
 0.13553005E+02 -0.75368E+04
 0.13603005E+02 -0.75405E+04
 0.13653005E+02 -0.75509E+04
 0.13703005E+02 -0.75785E+04
 0.13753005E+02 -0.75777E+04
 0.13803005E+02 -0.75451E+04
 0.13853005E+02 -0.75435E+04
 0.13903005E+02 -0.75462E+04
 0.13953005E+02 -0.75701E+04
 0.14003005E+02 -0.75897E+04
 0.14053005E+02 -0.75752E+04
 0.14103004E+02 -0.75525E+04
 0.14153006E+02 -0.75454E+04
 0.14203005E+02 -0.75605E+04
 0.14253004E+02 -0.75860E+04
 0.14303005E+02 -0.75817E+04
 0.14353004E+02 -0.75527E+04
 0.14403006E+02 -0.75403E+04
 0.14453005E+02 -0.75597E+04
 0.14503004E+02 -0.75948E+04
 0.14553005E+02 -0.76140E+04
 0.14603004E+02 -0.76049E+04
 0.14653006E+02 -0.75671E+04
 0.14703005E+02 -0.75588E+04
 0.14753004E+02 -0.75650E+04
 0.14803005E+02 -0.75890E+04
 0.14853004E+02 -0.75944E+04
 0.14903006E+02 -0.75636E+04
 0.14953005E+02 -0.75403E+04
 0.15003004E+02 -0.75365E+04
 0.15053005E+02 -0.75466E+04
 0.15103004E+02 -0.75675E+04
 0.15153006E+02 -0.75617E+04
 0.15203005E+02 -0.75311E+04
 0.15253004E+02 -0.75299E+04
 0.15303005E+02 -0.75435E+04
 0.15353004E+02 -0.75718E+04
 0.15403006E+02 -0.75896E+04
 0.15453005E+02 -0.75582E+04
 0.15503004E+02 -0.75246E+04
 0.15553005E+02 -0.75284E+04
 0.15603004E+02 -0.75411E+04
 0.15653006E+02 -0.75854E+04
 0.15703005E+02 -0.75894E+04
 0.15753004E+02 -0.75640E+04
 0.15803005E+02 -0.75469E+04
 0.15853004E+02 -0.75524E+04
 0.15903006E+02 -0.75769E+04
 0.15953005E+02 -0.75933E+04
 0.16003004E+02 -0.75822E+04
 0.16053005E+02 -0.75497E+04
 0.16103004E+02 -0.75482E+04
 0.16153006E+02 -0.75559E+04
 0.16203005E+02 -0.75839E+04
 0.16253004E+02 -0.75969E+04
 0.16303005E+02 -0.75726E+04
 0.16353004E+02 -0.75465E+04
 0.16403006E+02 -0.75588E+04
 0.16453005E+02 -0.75795E+04
 0.16503004E+02 -0.76084E+04
 0.16553005E+02 -0.76062E+04
 0.16603004E+02 -0.75736E+04
 0.16653006E+02 -0.75543E+04
 0.16703005E+02 -0.75437E+04
 0.16753004E+02 -0.75668E+04
 0.16803005E+02 -0.75900E+04
 0.16853004E+02 -0.75834E+04
 0.16903006E+02 -0.75575E+04
 0.16953005E+02 -0.75581E+04
 0.17003004E+02 -0.75759E+04
 0.17053005E+02 -0.76055E+04
 0.17103004E+02 -0.76044E+04
 0.17153006E+02 -0.75770E+04
 0.17203005E+02 -0.75596E+04
 0.17253004E+02 -0.75624E+04
 0.17303005E+02 -0.75859E+04
 0.17353004E+02 -0.76063E+04
 0.17403006E+02 -0.75902E+04
 0.17453005E+02 -0.75500E+04
 0.17503004E+02 -0.75477E+04
 0.17553005E+02 -0.75583E+04
 0.17603004E+02 -0.75820E+04
 0.17653006E+02 -0.75831E+04
 0.17703005E+02 -0.75605E+04
 0.17753004E+02 -0.75315E+04
 0.17803005E+02 -0.75307E+04
 0.17853004E+02 -0.75391E+04
 0.17903006E+02 -0.75481E+04
 0.17953005E+02 -0.75535E+04
 0.18003004E+02 -0.75210E+04
 0.18053005E+02 -0.75306E+04
 0.18103004E+02 -0.75499E+04
 0.18153006E+02 -0.75702E+04
 0.18203005E+02 -0.75941E+04
 0.18253004E+02 -0.75802E+04
 0.18303005E+02 -0.75453E+04
 0.18353004E+02 -0.75450E+04
 0.18403006E+02 -0.75520E+04
 0.18453005E+02 -0.75741E+04
 0.18503004E+02 -0.75896E+04
 0.18553005E+02 -0.75594E+04
 0.18603004E+02 -0.75431E+04
 0.18653006E+02 -0.75386E+04
 0.18703005E+02 -0.75548E+04
 0.18753004E+02 -0.75840E+04
 0.18803005E+02 -0.75852E+04
 0.18853004E+02 -0.75527E+04
 0.18903006E+02 -0.75360E+04
 0.18953005E+02 -0.75407E+04
 0.19003004E+02 -0.75747E+04
 0.19053005E+02 -0.75844E+04
 0.19103004E+02 -0.75572E+04
 0.19153006E+02 -0.75341E+04
 0.19203005E+02 -0.75314E+04
 0.19253004E+02 -0.75636E+04
 0.19303005E+02 -0.75969E+04
 0.19353004E+02 -0.76100E+04
 0.19403006E+02 -0.75775E+04
 0.19453005E+02 -0.75537E+04
 0.19503004E+02 -0.75628E+04
 0.19553005E+02 -0.75775E+04
 0.19603004E+02 -0.76112E+04
 0.19653006E+02 -0.76150E+04
 0.19703005E+02 -0.75824E+04
 0.19753004E+02 -0.75692E+04
 0.19803005E+02 -0.75688E+04
 0.19853004E+02 -0.75921E+04
 0.19903006E+02 -0.76072E+04
 0.19953005E+02 -0.75982E+04
 0.20003004E+02 -0.75606E+04
 0.20053005E+02 -0.75456E+04
 0.20103004E+02 -0.75620E+04
 0.20153006E+02 -0.75797E+04
 0.20203005E+02 -0.76047E+04
 0.20253004E+02 -0.75658E+04
 0.20303005E+02 -0.75312E+04
 0.20353004E+02 -0.75329E+04
 0.20403004E+02 -0.75407E+04
 0.20453005E+02 -0.75854E+04
 0.20503004E+02 -0.76018E+04
 0.20553005E+02 -0.75606E+04
 0.20603004E+02 -0.75347E+04
 0.20653004E+02 -0.75409E+04
 0.20703005E+02 -0.75509E+04
 0.20753004E+02 -0.75726E+04
 0.20803005E+02 -0.75681E+04
 0.20853004E+02 -0.75362E+04
 0.20903004E+02 -0.75195E+04
 0.20953005E+02 -0.75178E+04
 0.21003004E+02 -0.75439E+04
 0.21053005E+02 -0.75613E+04
 0.21103004E+02 -0.75443E+04
 0.21153004E+02 -0.75157E+04
 0.21203005E+02 -0.75103E+04
 0.21253004E+02 -0.75206E+04
 0.21303005E+02 -0.75528E+04
 0.21353004E+02 -0.75741E+04
 0.21403004E+02 -0.75502E+04
 0.21453005E+02 -0.75199E+04
 0.21503004E+02 -0.75095E+04
 0.21553005E+02 -0.75222E+04
 0.21603004E+02 -0.75562E+04
 0.21653004E+02 -0.75826E+04
 0.21703005E+02 -0.75570E+04
 0.21753004E+02 -0.75438E+04
 0.21803005E+02 -0.75462E+04
 0.21853004E+02 -0.75681E+04
 0.21903004E+02 -0.75993E+04
 0.21953005E+02 -0.75970E+04
 0.22003004E+02 -0.75741E+04
 0.22053005E+02 -0.75602E+04
 0.22103004E+02 -0.75711E+04
 0.22153004E+02 -0.75914E+04
 0.22203005E+02 -0.76209E+04
 0.22253004E+02 -0.76123E+04
 0.22303005E+02 -0.75847E+04
 0.22353004E+02 -0.75714E+04
 0.22403004E+02 -0.75795E+04
 0.22453005E+02 -0.76069E+04
 0.22503004E+02 -0.76400E+04
 0.22553005E+02 -0.76230E+04
 0.22603004E+02 -0.75901E+04
 0.22653004E+02 -0.75723E+04
 0.22703005E+02 -0.75628E+04
 0.22753004E+02 -0.75907E+04
 0.22803005E+02 -0.75982E+04
 0.22853004E+02 -0.75909E+04
 0.22903004E+02 -0.75693E+04
 0.22953005E+02 -0.75621E+04
 0.23003004E+02 -0.75779E+04
 0.23053005E+02 -0.75987E+04
 0.23103004E+02 -0.76073E+04
 0.23153004E+02 -0.75743E+04
 0.23203005E+02 -0.75546E+04
 0.23253004E+02 -0.75464E+04
 0.23303005E+02 -0.75656E+04
 0.23353004E+02 -0.75951E+04
 0.23403004E+02 -0.75766E+04
 0.23453005E+02 -0.75557E+04
 0.23503004E+02 -0.75355E+04
 0.23553005E+02 -0.75341E+04
 0.23603004E+02 -0.75560E+04
 0.23653004E+02 -0.75760E+04
 0.23703005E+02 -0.75741E+04
 0.23753004E+02 -0.75421E+04
 0.23803005E+02 -0.75283E+04
 0.23853004E+02 -0.75229E+04
 0.23903004E+02 -0.75327E+04
 0.23953005E+02 -0.75520E+04
 0.24003004E+02 -0.75354E+04
 0.24053005E+02 -0.75283E+04
 0.24103004E+02 -0.75339E+04
 0.24153004E+02 -0.75375E+04
 0.24203005E+02 -0.75582E+04
 0.24253004E+02 -0.75825E+04
 0.24303005E+02 -0.75575E+04
 0.24353004E+02 -0.75299E+04
 0.24403004E+02 -0.75393E+04
 0.24453005E+02 -0.75520E+04
 0.24503004E+02 -0.75843E+04
 0.24553005E+02 -0.75960E+04
 0.24603004E+02 -0.75643E+04
 0.24653004E+02 -0.75369E+04
 0.24703005E+02 -0.75319E+04
 0.24753004E+02 -0.75431E+04
 0.24803005E+02 -0.75724E+04
 0.24853004E+02 -0.75812E+04
 0.24903004E+02 -0.75526E+04
 0.24953005E+02 -0.75320E+04
 0.25003004E+02 -0.75571E+04
 0.25053005E+02 -0.75534E+04
 0.25103004E+02 -0.75593E+04
 0.25153004E+02 -0.75724E+04
 0.25203005E+02 -0.75371E+04
 0.25253004E+02 -0.75426E+04
 0.25303005E+02 -0.75616E+04
 0.25353004E+02 -0.75740E+04
 0.25403004E+02 -0.76012E+04
 0.25453005E+02 -0.76038E+04
 0.25503004E+02 -0.75767E+04
 0.25553005E+02 -0.75632E+04
 0.25603004E+02 -0.75657E+04
 0.25653004E+02 -0.75832E+04
 0.25703005E+02 -0.76022E+04
 0.25753004E+02 -0.75947E+04
 0.25803005E+02 -0.75593E+04
 0.25853004E+02 -0.75465E+04
 0.25903004E+02 -0.75505E+04
 0.25953005E+02 -0.75674E+04
 0.26003004E+02 -0.75922E+04
 0.26053005E+02 -0.75769E+04
 0.26103004E+02 -0.75480E+04
 0.26153004E+02 -0.75338E+04
 0.26203005E+02 -0.75429E+04
 0.26253004E+02 -0.75514E+04
 0.26303005E+02 -0.75627E+04
 0.26353004E+02 -0.75476E+04
 0.26403004E+02 -0.75212E+04
 0.26453005E+02 -0.75246E+04
 0.26503004E+02 -0.75312E+04
 0.26553005E+02 -0.75472E+04
 0.26603004E+02 -0.75653E+04
 0.26653004E+02 -0.75503E+04
 0.26703005E+02 -0.75262E+04
 0.26753004E+02 -0.75210E+04
 0.26803005E+02 -0.75264E+04
 0.26853004E+02 -0.75447E+04
 0.26903004E+02 -0.75570E+04
 0.26953005E+02 -0.75574E+04
 0.27003004E+02 -0.75330E+04
 0.27053003E+02 -0.75107E+04
 0.27103004E+02 -0.75383E+04
 0.27153004E+02 -0.75641E+04
 0.27203005E+02 -0.75768E+04
 0.27253004E+02 -0.75711E+04
 0.27303003E+02 -0.75526E+04
 0.27353004E+02 -0.75445E+04
 0.27403004E+02 -0.75647E+04
 0.27453005E+02 -0.75570E+04
 0.27503004E+02 -0.75657E+04
 0.27553003E+02 -0.75518E+04
 0.27603004E+02 -0.75178E+04
 0.27653004E+02 -0.75548E+04
 0.27703005E+02 -0.75800E+04
 0.27753004E+02 -0.76113E+04
 0.27803003E+02 -0.76207E+04
 0.27853004E+02 -0.76215E+04
 0.27903004E+02 -0.75924E+04
 0.27953005E+02 -0.75829E+04
 0.28003004E+02 -0.75903E+04
 0.28053003E+02 -0.76050E+04
 0.28103004E+02 -0.76193E+04
 0.28153004E+02 -0.76048E+04
 0.28203005E+02 -0.75711E+04
 0.28253004E+02 -0.75553E+04
 0.28303003E+02 -0.75804E+04
 0.28353004E+02 -0.75955E+04
 0.28403004E+02 -0.76294E+04
 0.28453005E+02 -0.76028E+04
 0.28503004E+02 -0.75400E+04
 0.28553003E+02 -0.75467E+04
 0.28603004E+02 -0.75515E+04
 0.28653004E+02 -0.75902E+04
 0.28703005E+02 -0.75890E+04
 0.28753004E+02 -0.75192E+04
 0.28803003E+02 -0.75319E+04
 0.28853004E+02 -0.75344E+04
 0.28903004E+02 -0.75235E+04
 0.28953005E+02 -0.75874E+04
 0.29003004E+02 -0.76208E+04
 0.29053003E+02 -0.75968E+04
 0.29103004E+02 -0.75694E+04
 0.29153004E+02 -0.75359E+04
 0.29203005E+02 -0.75505E+04
 0.29253004E+02 -0.75827E+04
 0.29303003E+02 -0.76166E+04
 0.29353004E+02 -0.76093E+04
 0.29403004E+02 -0.75746E+04
 0.29453005E+02 -0.75519E+04
 0.29503004E+02 -0.75292E+04
 0.29553003E+02 -0.75690E+04
 0.29603004E+02 -0.76015E+04
 0.29653004E+02 -0.75733E+04
 0.29703005E+02 -0.75834E+04
 0.29753004E+02 -0.75598E+04
 0.29803003E+02 -0.75645E+04
 0.29853004E+02 -0.75483E+04
 0.29903004E+02 -0.75579E+04
 0.29953005E+02 -0.76112E+04
 0.30003004E+02 -0.75406E+04
 0.30053005E+02 -0.75103E+04
 0.30103004E+02 -0.75575E+04
 0.30153004E+02 -0.75258E+04
 0.30203003E+02 -0.76048E+04
 0.30253002E+02 -0.76551E+04
 0.30303005E+02 -0.75521E+04
 0.30353004E+02 -0.75878E+04
 0.30403004E+02 -0.74970E+04
 0.30453003E+02 -0.75506E+04
 0.30503002E+02 -0.76227E+04
 0.30553005E+02 -0.75983E+04
 0.30603004E+02 -0.75806E+04
 0.30653004E+02 -0.75193E+04
 0.30703003E+02 -0.75763E+04
 0.30753002E+02 -0.75906E+04
 0.30803005E+02 -0.75381E+04
 0.30853004E+02 -0.75841E+04
 0.30903004E+02 -0.76301E+04
 0.30953003E+02 -0.75541E+04
 0.31003002E+02 -0.75180E+04
 0.31053005E+02 -0.74812E+04
 0.31103004E+02 -0.75400E+04
 0.31153004E+02 -0.75869E+04
 0.31203003E+02 -0.75282E+04
 0.31253002E+02 -0.75989E+04
 0.31303005E+02 -0.76109E+04
 0.31353004E+02 -0.75818E+04
 0.31403004E+02 -0.74785E+04
 0.31453003E+02 -0.75943E+04
 0.31503002E+02 -0.76228E+04
 0.31553005E+02 -0.74622E+04
 0.31603004E+02 -0.76247E+04
 0.31653004E+02 -0.75322E+04
 0.31703003E+02 -0.75032E+04
 0.31753002E+02 -0.74924E+04
 0.31803005E+02 -0.75771E+04
 0.31853004E+02 -0.75403E+04
 0.31903004E+02 -0.75206E+04
 0.31953003E+02 -0.77275E+04
 0.32003002E+02 -0.76300E+04
 0.32053005E+02 -0.76133E+04
 0.32103004E+02 -0.76627E+04
 0.32153004E+02 -0.75361E+04
 0.32203003E+02 -0.75947E+04
 0.32253002E+02 -0.76269E+04
 0.32303005E+02 -0.76176E+04
 0.32353004E+02 -0.74602E+04
 0.32403004E+02 -0.74531E+04
 0.32453003E+02 -0.76438E+04
 0.32503002E+02 -0.74859E+04
 0.32553005E+02 -0.75511E+04
 0.32603004E+02 -0.74694E+04
 0.32653004E+02 -0.77850E+04
 0.32703003E+02 -0.76525E+04
 0.32753002E+02 -0.78424E+04
 0.32803005E+02 -0.72170E+04
 0.32853004E+02 -0.71452E+04
 0.32903004E+02 -0.79427E+04
 0.32953003E+02 -0.73156E+04
 0.33003002E+02 -0.80187E+04
 0.33053005E+02 -0.72536E+04
 0.33103004E+02 -0.76679E+04
 0.33153004E+02 -0.81637E+04
 0.33203003E+02 -0.72544E+04
 0.33253002E+02 -0.79408E+04
 0.33303005E+02 -0.75774E+04
 0.33353004E+02 -0.71549E+04
 0.33403004E+02 -0.77315E+04
 0.33453003E+02 -0.77264E+04
 0.33503002E+02 -0.71866E+04
 0.33553005E+02 -0.77121E+04
 0.33603004E+02 -0.72574E+04
 0.33653004E+02 -0.74585E+04
 0.33703003E+02 -0.77675E+04
 0.33753002E+02 -0.73500E+04
 0.33803005E+02 -0.72782E+04
 0.33853004E+02 -0.74125E+04
 0.33903004E+02 -0.79936E+04
 0.33953003E+02 -0.73880E+04
 0.34003002E+02 -0.74137E+04
 0.34053005E+02 -0.75814E+04
 0.34103004E+02 -0.78131E+04
 0.34153004E+02 -0.75966E+04
 0.34203003E+02 -0.79584E+04
 0.34253002E+02 -0.77306E+04
 0.34303005E+02 -0.76046E+04
 0.34353004E+02 -0.78731E+04
 0.34403004E+02 -0.73602E+04
 0.34453003E+02 -0.76677E+04
 0.34503002E+02 -0.75952E+04
 0.34553005E+02 -0.78857E+04
 0.34603004E+02 -0.74022E+04
 0.34653004E+02 -0.79351E+04
 0.34703003E+02 -0.74060E+04
 0.34753002E+02 -0.70268E+04
 0.34803005E+02 -0.79316E+04
 0.34853004E+02 -0.74802E+04
 0.34903004E+02 -0.79252E+04
 0.34953003E+02 -0.72078E+04
 0.35003002E+02 -0.75833E+04
 0.35053005E+02 -0.78566E+04
 0.35103004E+02 -0.72963E+04
 0.35153004E+02 -0.78965E+04
 0.35203003E+02 -0.78034E+04
 0.35253002E+02 -0.71675E+04
 0.35303005E+02 -0.72774E+04
 0.35353004E+02 -0.73656E+04
 0.35403004E+02 -0.68542E+04
 0.35453003E+02 -0.78235E+04
 0.35503002E+02 -0.71329E+04
 0.35553005E+02 -0.80892E+04
 0.35603004E+02 -0.81727E+04
 0.35653004E+02 -0.73949E+04
 0.35703003E+02 -0.84489E+04
 0.35753002E+02 -0.72676E+04
 0.35803005E+02 -0.73908E+04
 0.35853004E+02 -0.74848E+04
 0.35903004E+02 -0.74576E+04
 0.35953003E+02 -0.77495E+04
 0.36003002E+02 -0.72886E+04
 0.36053005E+02 -0.78941E+04
 0.36103004E+02 -0.80616E+04
 0.36153004E+02 -0.74624E+04
 0.36203003E+02 -0.74701E+04
 0.36253002E+02 -0.79296E+04
 0.36303005E+02 -0.76270E+04
 0.36353004E+02 -0.76472E+04
 0.36403004E+02 -0.77003E+04
 0.36453003E+02 -0.72331E+04
 0.36503002E+02 -0.80857E+04
 0.36553005E+02 -0.70471E+04
 0.36603004E+02 -0.66629E+04
 0.36653004E+02 -0.74244E+04
 0.36703003E+02 -0.72076E+04
 0.36753002E+02 -0.74929E+04
 0.36803005E+02 -0.75388E+04
 0.36853004E+02 -0.71708E+04
 0.36903004E+02 -0.75647E+04
 0.36953003E+02 -0.70494E+04
 0.37003002E+02 -0.74527E+04
 0.37053005E+02 -0.81800E+04
 0.37103004E+02 -0.72922E+04
 0.37153004E+02 -0.83175E+04
 0.37203003E+02 -0.70060E+04
 0.37253002E+02 -0.75076E+04
 0.37303005E+02 -0.84182E+04
 0.37353004E+02 -0.77362E+04
 0.37403004E+02 -0.85670E+04
 0.37453003E+02 -0.75086E+04
 0.37503002E+02 -0.72056E+04
 0.37553005E+02 -0.78852E+04
 0.37603004E+02 -0.82547E+04
 0.37653004E+02 -0.78131E+04
 0.37703003E+02 -0.74529E+04
 0.37753002E+02 -0.65999E+04
 0.37803005E+02 -0.68178E+04
 0.37853004E+02 -0.73702E+04
 0.37903004E+02 -0.72601E+04
 0.37953003E+02 -0.74684E+04
 0.38003002E+02 -0.67432E+04
 0.38053005E+02 -0.79617E+04
 0.38103004E+02 -0.76836E+04
 0.38153004E+02 -0.78041E+04
 0.38203003E+02 -0.76061E+04
 0.38253002E+02 -0.76019E+04
 0.38303005E+02 -0.79735E+04
 0.38353004E+02 -0.67181E+04
 0.38403004E+02 -0.83540E+04
 0.38453003E+02 -0.77463E+04
 0.38503002E+02 -0.74814E+04
 0.38553005E+02 -0.74679E+04
 0.38603004E+02 -0.69079E+04
 0.38653004E+02 -0.74094E+04
 0.38703003E+02 -0.72134E+04
 0.38753002E+02 -0.77526E+04
 0.38803005E+02 -0.86427E+04
 0.38853004E+02 -0.80435E+04
 0.38903004E+02 -0.83508E+04
 0.38953003E+02 -0.83476E+04
 0.39003002E+02 -0.72766E+04
 0.39053005E+02 -0.75588E+04
 0.39103004E+02 -0.67396E+04
 0.39153004E+02 -0.72966E+04
 0.39203003E+02 -0.76979E+04
 0.39253002E+02 -0.74942E+04
 0.39303005E+02 -0.76236E+04
 0.39353004E+02 -0.78414E+04
 0.39403004E+02 -0.72546E+04
 0.39453003E+02 -0.64881E+04
 0.39503002E+02 -0.75735E+04
 0.39553005E+02 -0.75511E+04
 0.39603004E+02 -0.77088E+04
 0.39653004E+02 -0.77641E+04
 0.39703003E+02 -0.77396E+04
 0.39753002E+02 -0.73941E+04
 0.39803005E+02 -0.69286E+04
 0.39853004E+02 -0.72463E+04
 0.39903004E+02 -0.67626E+04
 0.39953003E+02 -0.77508E+04
 0.40003002E+02 -0.81953E+04
 0.40053005E+02 -0.78068E+04
 0.40103004E+02 -0.85500E+04
 0.40153004E+02 -0.75910E+04
 0.40203003E+02 -0.75735E+04
 0.40253002E+02 -0.74538E+04
 0.40303005E+02 -0.75694E+04
 0.40353004E+02 -0.82262E+04
 0.40403004E+02 -0.79673E+04
 0.40453003E+02 -0.85566E+04
 0.40503002E+02 -0.78639E+04
 0.40553005E+02 -0.73938E+04
 0.40603004E+02 -0.71232E+04
 0.40653004E+02 -0.68617E+04
 0.40703003E+02 -0.66658E+04
 0.40753002E+02 -0.66903E+04
 0.40803005E+02 -0.70574E+04
 0.40853004E+02 -0.78110E+04
 0.40903004E+02 -0.81071E+04
 0.40953003E+02 -0.79602E+04
 0.41003002E+02 -0.81434E+04
 0.41053005E+02 -0.80257E+04
 0.41103004E+02 -0.80073E+04
 0.41153004E+02 -0.74050E+04
 0.41203003E+02 -0.72614E+04
 0.41253002E+02 -0.70981E+04
 0.41303005E+02 -0.67100E+04
 0.41353004E+02 -0.74091E+04
 0.41403004E+02 -0.75448E+04
 0.41453003E+02 -0.75347E+04
 0.41503002E+02 -0.79689E+04
 0.41553005E+02 -0.76093E+04
 0.41603004E+02 -0.78051E+04
 0.41653004E+02 -0.81158E+04
 0.41703003E+02 -0.69338E+04
 0.41753002E+02 -0.71333E+04
 0.41803005E+02 -0.76844E+04
 0.41853004E+02 -0.78152E+04
 0.41903004E+02 -0.81856E+04
 0.41953003E+02 -0.74240E+04
 0.42003002E+02 -0.79718E+04
 0.42053005E+02 -0.78537E+04
 0.42103004E+02 -0.70813E+04
 0.42153004E+02 -0.69418E+04
 0.42203003E+02 -0.67318E+04
 0.42253002E+02 -0.79622E+04
 0.42303005E+02 -0.76909E+04
 0.42353004E+02 -0.74235E+04
 0.42403004E+02 -0.77852E+04
 0.42453003E+02 -0.73657E+04
 0.42503002E+02 -0.74948E+04
 0.42553005E+02 -0.72891E+04
 0.42603004E+02 -0.65548E+04
 0.42653004E+02 -0.74782E+04
 0.42703003E+02 -0.75207E+04
 0.42753002E+02 -0.70410E+04
 0.42803001E+02 -0.75917E+04
 0.42853004E+02 -0.72717E+04
 0.42903004E+02 -0.86704E+04
 0.42953003E+02 -0.77230E+04
 0.43003002E+02 -0.72108E+04
 0.43053001E+02 -0.81879E+04
 0.43103004E+02 -0.81057E+04
 0.43153004E+02 -0.81570E+04
 0.43203003E+02 -0.76695E+04
 0.43253002E+02 -0.79043E+04
 0.43303001E+02 -0.72800E+04
 0.43353004E+02 -0.70519E+04
 0.43403004E+02 -0.72793E+04
 0.43453003E+02 -0.74627E+04
 0.43503002E+02 -0.77966E+04
 0.43553001E+02 -0.74297E+04
 0.43603004E+02 -0.75986E+04
 0.43653004E+02 -0.80179E+04
 0.43703003E+02 -0.74582E+04
 0.43753002E+02 -0.73284E+04
 0.43803001E+02 -0.77181E+04
 0.43853004E+02 -0.77354E+04
 0.43903004E+02 -0.77578E+04
 0.43953003E+02 -0.69967E+04
 0.44003002E+02 -0.70019E+04
 0.44053001E+02 -0.71194E+04
 0.44103004E+02 -0.72239E+04
 0.44153004E+02 -0.77861E+04
 0.44203003E+02 -0.77659E+04
 0.44253002E+02 -0.74186E+04
 0.44303001E+02 -0.77306E+04
 0.44353004E+02 -0.77731E+04
 0.44403004E+02 -0.77273E+04
 0.44453003E+02 -0.81795E+04
 0.44503002E+02 -0.73795E+04
 0.44553001E+02 -0.75336E+04
 0.44603004E+02 -0.77093E+04
 0.44653004E+02 -0.71939E+04
 0.44703003E+02 -0.74725E+04
 0.44753002E+02 -0.76004E+04
 0.44803001E+02 -0.76330E+04
 0.44853004E+02 -0.82759E+04
 0.44903004E+02 -0.76383E+04
 0.44953003E+02 -0.73728E+04
 0.45003002E+02 -0.71433E+04
 0.45053001E+02 -0.69872E+04
 0.45103004E+02 -0.76961E+04
 0.45153004E+02 -0.71649E+04
 0.45203003E+02 -0.72069E+04
 0.45253002E+02 -0.81186E+04
 0.45303001E+02 -0.81031E+04
 0.45353004E+02 -0.77890E+04
 0.45403004E+02 -0.77266E+04
 0.45453003E+02 -0.69626E+04
 0.45503002E+02 -0.76952E+04
 0.45553001E+02 -0.76946E+04
 0.45603004E+02 -0.73529E+04
 0.45653004E+02 -0.75137E+04
 0.45703003E+02 -0.71482E+04
 0.45753002E+02 -0.73886E+04
 0.45803001E+02 -0.74124E+04
 0.45853004E+02 -0.78269E+04
 0.45903004E+02 -0.80183E+04
 0.45953003E+02 -0.74360E+04
 0.46003002E+02 -0.74278E+04
 0.46053001E+02 -0.76624E+04
 0.46103004E+02 -0.76798E+04
 0.46153004E+02 -0.80139E+04
 0.46203003E+02 -0.76482E+04
 0.46253002E+02 -0.66831E+04
 0.46303001E+02 -0.70017E+04
 0.46353004E+02 -0.75764E+04
 0.46403004E+02 -0.76463E+04
 0.46453003E+02 -0.75614E+04
 0.46503002E+02 -0.72026E+04
 0.46553001E+02 -0.66902E+04
 0.46603004E+02 -0.71269E+04
 0.46653004E+02 -0.80725E+04
 0.46703003E+02 -0.78247E+04
 0.46753002E+02 -0.80819E+04
 0.46803001E+02 -0.78532E+04
 0.46853004E+02 -0.76848E+04
 0.46903004E+02 -0.80914E+04
 0.46953003E+02 -0.76589E+04
 0.47003002E+02 -0.76504E+04
 0.47053001E+02 -0.78162E+04
 0.47103004E+02 -0.74239E+04
 0.47153004E+02 -0.75620E+04
 0.47203003E+02 -0.73806E+04
 0.47253002E+02 -0.75657E+04
 0.47303001E+02 -0.76559E+04
 0.47353004E+02 -0.73940E+04
 0.47403004E+02 -0.74226E+04
 0.47453003E+02 -0.72921E+04
 0.47503002E+02 -0.76885E+04
 0.47553001E+02 -0.76222E+04
 0.47603004E+02 -0.78243E+04
 0.47653004E+02 -0.79807E+04
 0.47703003E+02 -0.78676E+04
 0.47753002E+02 -0.77645E+04
 0.47803001E+02 -0.71651E+04
 0.47853004E+02 -0.75007E+04
 0.47903004E+02 -0.76259E+04
 0.47953003E+02 -0.70389E+04
 0.48003002E+02 -0.72212E+04
 0.48053001E+02 -0.73311E+04
 0.48103004E+02 -0.72242E+04
 0.48153004E+02 -0.71829E+04
 0.48203003E+02 -0.74378E+04
 0.48253002E+02 -0.78340E+04
 0.48303001E+02 -0.78126E+04
 0.48353004E+02 -0.75668E+04
 0.48403004E+02 -0.74887E+04
 0.48453003E+02 -0.76839E+04
 0.48503002E+02 -0.78522E+04
 0.48553001E+02 -0.73890E+04
 0.48603004E+02 -0.73732E+04
 0.48653004E+02 -0.76126E+04
 0.48703003E+02 -0.74712E+04
 0.48753002E+02 -0.73090E+04
 0.48803001E+02 -0.77541E+04
 0.48853004E+02 -0.75050E+04
 0.48903004E+02 -0.75149E+04
 0.48953003E+02 -0.80149E+04
 0.49003002E+02 -0.77943E+04
 0.49053001E+02 -0.80142E+04
 0.49103004E+02 -0.79029E+04
 0.49153004E+02 -0.78675E+04
 0.49203003E+02 -0.78478E+04
 0.49253002E+02 -0.79609E+04
 0.49303001E+02 -0.74556E+04
 0.49353004E+02 -0.71075E+04
 0.49403004E+02 -0.73774E+04
 0.49453003E+02 -0.73073E+04
 0.49503002E+02 -0.77079E+04
 0.49553001E+02 -0.73569E+04
 0.49603004E+02 -0.69329E+04
 0.49653004E+02 -0.73142E+04
 0.49703003E+02 -0.75465E+04
 0.49753002E+02 -0.79103E+04
 0.49803001E+02 -0.78449E+04
 0.49853004E+02 -0.80374E+04
 0.49903004E+02 -0.78614E+04
 0.49953003E+02 -0.73387E+04
 0.50003002E+02 -0.73238E+04
 0.50053001E+02 -0.72642E+04
 0.50103004E+02 -0.75201E+04
 0.50153004E+02 -0.76370E+04
 0.50203003E+02 -0.72432E+04
 0.50253002E+02 -0.74715E+04
 0.50303001E+02 -0.83226E+04
 0.50353004E+02 -0.77286E+04
 0.50403004E+02 -0.74268E+04
 0.50453003E+02 -0.72806E+04
 0.50503002E+02 -0.70756E+04
 0.50553001E+02 -0.78858E+04
 0.50603004E+02 -0.78521E+04
 0.50653004E+02 -0.77059E+04
 0.50703003E+02 -0.77398E+04
 0.50753002E+02 -0.71729E+04
 0.50803001E+02 -0.72912E+04
 0.50853004E+02 -0.74442E+04
 0.50903004E+02 -0.73800E+04
 0.50953003E+02 -0.75390E+04
 0.51003002E+02 -0.75781E+04
 0.51053001E+02 -0.76263E+04
 0.51103004E+02 -0.73988E+04
 0.51153004E+02 -0.74648E+04
 0.51203003E+02 -0.76110E+04
 0.51253002E+02 -0.77521E+04
 0.51303001E+02 -0.77128E+04
 0.51353004E+02 -0.76306E+04
 0.51403004E+02 -0.72253E+04
 0.51453003E+02 -0.73630E+04
 0.51503002E+02 -0.77645E+04
 0.51553001E+02 -0.75950E+04
 0.51603004E+02 -0.78383E+04
 0.51653004E+02 -0.74504E+04
 0.51703003E+02 -0.74116E+04
 0.51753002E+02 -0.78243E+04
 0.51803001E+02 -0.73694E+04
 0.51853004E+02 -0.74476E+04
 0.51903004E+02 -0.78384E+04
 0.51953003E+02 -0.76635E+04
 0.52003002E+02 -0.76093E+04
 0.52053001E+02 -0.74019E+04
 0.52103004E+02 -0.71567E+04
 0.52153004E+02 -0.73031E+04
 0.52203003E+02 -0.74227E+04
 0.52253002E+02 -0.75031E+04
 0.52303001E+02 -0.76165E+04
 0.52353004E+02 -0.75453E+04
 0.52403004E+02 -0.74505E+04
 0.52453003E+02 -0.76828E+04
 0.52503002E+02 -0.77163E+04
 0.52553001E+02 -0.77862E+04
 0.52603004E+02 -0.77924E+04
 0.52653004E+02 -0.75756E+04
 0.52703003E+02 -0.78313E+04
 0.52753002E+02 -0.76865E+04
 0.52803001E+02 -0.73018E+04
 0.52853004E+02 -0.78251E+04
 0.52903004E+02 -0.76545E+04
 0.52953003E+02 -0.74154E+04
 0.53003002E+02 -0.73351E+04
 0.53053001E+02 -0.72457E+04
 0.53103004E+02 -0.78548E+04
 0.53153004E+02 -0.76903E+04
 0.53203003E+02 -0.77481E+04
 0.53253002E+02 -0.74560E+04
 0.53303001E+02 -0.74570E+04
 0.53353004E+02 -0.78168E+04
 0.53403004E+02 -0.75538E+04
 0.53453003E+02 -0.75547E+04
 0.53503002E+02 -0.71679E+04
 0.53553001E+02 -0.73038E+04
 0.53603004E+02 -0.73827E+04
 0.53653004E+02 -0.73919E+04
 0.53703003E+02 -0.76876E+04
 0.53753002E+02 -0.76087E+04
 0.53803001E+02 -0.77163E+04
 0.53853004E+02 -0.78248E+04
 0.53903004E+02 -0.79153E+04
 0.53953003E+02 -0.77152E+04
 0.54003002E+02 -0.75754E+04
 0.54053001E+02 -0.76328E+04
 0.54103004E+02 -0.73534E+04
 0.54153004E+02 -0.74353E+04
 0.54203003E+02 -0.75684E+04
 0.54253002E+02 -0.76354E+04
 0.54303001E+02 -0.70884E+04
 0.54353004E+02 -0.68871E+04
 0.54403004E+02 -0.75072E+04
 0.54453003E+02 -0.73546E+04
 0.54503002E+02 -0.76872E+04
 0.54553001E+02 -0.76116E+04
 0.54603004E+02 -0.73392E+04
 0.54653004E+02 -0.77331E+04
 0.54703003E+02 -0.75396E+04
 0.54753002E+02 -0.78152E+04
 0.54803001E+02 -0.76467E+04
 0.54853004E+02 -0.75596E+04
 0.54903004E+02 -0.76671E+04
 0.54953003E+02 -0.74502E+04
 0.55003002E+02 -0.76746E+04
 0.55053001E+02 -0.73689E+04
 0.55103004E+02 -0.78288E+04
 0.55153004E+02 -0.73869E+04
 0.55203003E+02 -0.72861E+04
 0.55253002E+02 -0.74205E+04
 0.55303001E+02 -0.67788E+04
 0.55353004E+02 -0.72507E+04
 0.55403004E+02 -0.75826E+04
 0.55453003E+02 -0.79426E+04
 0.55503002E+02 -0.80234E+04
 0.55553001E+02 -0.78009E+04
 0.55603004E+02 -0.77541E+04
 0.55653004E+02 -0.76538E+04
 0.55703003E+02 -0.74870E+04
 0.55753002E+02 -0.74847E+04
 0.55803001E+02 -0.75891E+04
 0.55853001E+02 -0.75348E+04
 0.55903004E+02 -0.75575E+04
 0.55953003E+02 -0.75573E+04
 0.56003002E+02 -0.74326E+04
 0.56053001E+02 -0.72732E+04
 0.56103001E+02 -0.73454E+04
 0.56153004E+02 -0.72340E+04
 0.56203003E+02 -0.74951E+04
 0.56253002E+02 -0.75769E+04
 0.56303001E+02 -0.74392E+04
 0.56353001E+02 -0.75716E+04
 0.56403004E+02 -0.70875E+04
 0.56453003E+02 -0.72928E+04
 0.56503002E+02 -0.75561E+04
 0.56553001E+02 -0.73946E+04
 0.56603001E+02 -0.73528E+04
 0.56653004E+02 -0.78645E+04
 0.56703003E+02 -0.77967E+04
 0.56753002E+02 -0.77901E+04
 0.56803001E+02 -0.78660E+04
 0.56853001E+02 -0.74899E+04
 0.56903004E+02 -0.76172E+04
 0.56953003E+02 -0.76860E+04
 0.57003002E+02 -0.76587E+04
 0.57053001E+02 -0.76311E+04
 0.57103001E+02 -0.73344E+04
 0.57153004E+02 -0.74097E+04
 0.57203003E+02 -0.75924E+04
 0.57253002E+02 -0.73816E+04
 0.57303001E+02 -0.76727E+04
 0.57353001E+02 -0.78561E+04
 0.57403004E+02 -0.80449E+04
 0.57453003E+02 -0.76897E+04
 0.57503002E+02 -0.75469E+04
 0.57553001E+02 -0.73892E+04
 0.57603001E+02 -0.71565E+04
 0.57653004E+02 -0.74952E+04
 0.57703003E+02 -0.76630E+04
 0.57753002E+02 -0.81284E+04
 0.57803001E+02 -0.83691E+04
 0.57853001E+02 -0.84892E+04
 0.57903004E+02 -0.80833E+04
 0.57953003E+02 -0.75525E+04
 0.58003002E+02 -0.76178E+04
 0.58053001E+02 -0.75656E+04
 0.58103001E+02 -0.75698E+04
 0.58153004E+02 -0.76520E+04
 0.58203003E+02 -0.77733E+04
 0.58253002E+02 -0.78424E+04
 0.58303001E+02 -0.76384E+04
 0.58353001E+02 -0.74456E+04
 0.58403004E+02 -0.72273E+04
 0.58453003E+02 -0.72296E+04
 0.58503002E+02 -0.73779E+04
 0.58553001E+02 -0.73125E+04
 0.58603001E+02 -0.72049E+04
 0.58653004E+02 -0.70067E+04
 0.58703003E+02 -0.69969E+04
 0.58753002E+02 -0.71745E+04
 0.58803001E+02 -0.71054E+04
 0.58853001E+02 -0.72836E+04
 0.58903004E+02 -0.72706E+04
 0.58953003E+02 -0.67491E+04
 0.59003002E+02 -0.69496E+04
 0.59053001E+02 -0.73554E+04
 0.59103001E+02 -0.80911E+04
 0.59153004E+02 -0.85971E+04
 0.59203003E+02 -0.82452E+04
 0.59253002E+02 -0.79927E+04
 0.59303001E+02 -0.78790E+04
 0.59353001E+02 -0.80585E+04
 0.59403004E+02 -0.84033E+04
 0.59453003E+02 -0.82815E+04
 0.59503002E+02 -0.79810E+04
 0.59553001E+02 -0.78989E+04
 0.59603001E+02 -0.74657E+04
 0.59653004E+02 -0.73259E+04
 0.59703003E+02 -0.76100E+04
 0.59753002E+02 -0.78497E+04
 0.59803001E+02 -0.78303E+04
 0.59853001E+02 -0.81351E+04
 0.59903004E+02 -0.79709E+04
 0.59953003E+02 -0.75443E+04
 0.60003002E+02 -0.75342E+04
 0.60053001E+02 -0.68967E+04
 0.60103001E+02 -0.67965E+04
 0.60153004E+02 -0.69502E+04
 0.60203003E+02 -0.67513E+04
 0.60253002E+02 -0.70936E+04
 0.60303001E+02 -0.73140E+04
 0.60353001E+02 -0.71705E+04
 0.60403004E+02 -0.72996E+04
 0.60453003E+02 -0.74861E+04
 0.60503002E+02 -0.77097E+04
 0.60553001E+02 -0.74207E+04
 0.60603001E+02 -0.71561E+04
 0.60653004E+02 -0.70208E+04
 0.60703003E+02 -0.68576E+04
 0.60753002E+02 -0.69328E+04
 0.60803001E+02 -0.70218E+04
 0.60853001E+02 -0.72035E+04
 0.60903004E+02 -0.77507E+04
 0.60953003E+02 -0.82789E+04
 0.61003002E+02 -0.84824E+04
 0.61053001E+02 -0.86496E+04
 0.61103001E+02 -0.80860E+04
 0.61153004E+02 -0.72484E+04
 0.61203003E+02 -0.69996E+04
 0.61253002E+02 -0.72523E+04
 0.61303001E+02 -0.76082E+04
 0.61353001E+02 -0.80632E+04
 0.61403004E+02 -0.83707E+04
 0.61453003E+02 -0.80553E+04
 0.61503002E+02 -0.76805E+04
 0.61553001E+02 -0.73965E+04
 0.61603001E+02 -0.77103E+04
 0.61653004E+02 -0.80605E+04
 0.61703003E+02 -0.79985E+04
 0.61753002E+02 -0.83209E+04
 0.61803001E+02 -0.79644E+04
 0.61853001E+02 -0.76254E+04
 0.61903004E+02 -0.74291E+04
 0.61953003E+02 -0.70905E+04
 0.62003002E+02 -0.71837E+04
 0.62053001E+02 -0.73127E+04
 0.62103004E+02 -0.77570E+04
 0.62153000E+02 -0.81500E+04
 0.62203003E+02 -0.77603E+04
 0.62252998E+02 -0.71972E+04
 0.62303001E+02 -0.69592E+04
 0.62353004E+02 -0.70184E+04
 0.62403000E+02 -0.71430E+04
 0.62453003E+02 -0.72015E+04
 0.62502998E+02 -0.75285E+04
 0.62553001E+02 -0.75633E+04
 0.62603004E+02 -0.77074E+04
 0.62653000E+02 -0.77134E+04
 0.62703003E+02 -0.75825E+04
 0.62752998E+02 -0.79108E+04
 0.62803001E+02 -0.78189E+04
 0.62853004E+02 -0.76073E+04
 0.62903000E+02 -0.77152E+04
 0.62953003E+02 -0.79532E+04
 0.63002998E+02 -0.82071E+04
 0.63053001E+02 -0.83330E+04
 0.63103004E+02 -0.83985E+04
 0.63153000E+02 -0.81093E+04
 0.63203003E+02 -0.78471E+04
 0.63252998E+02 -0.77209E+04
 0.63303001E+02 -0.75143E+04
 0.63353004E+02 -0.75919E+04
 0.63403000E+02 -0.80823E+04
 0.63453003E+02 -0.85492E+04
 0.63502998E+02 -0.82307E+04
 0.63553001E+02 -0.75206E+04
 0.63603004E+02 -0.62758E+04
 0.63653000E+02 -0.54400E+04
 0.63703003E+02 -0.55258E+04
 0.63752998E+02 -0.58481E+04
 0.63803001E+02 -0.66954E+04
 0.63853004E+02 -0.73192E+04
 0.63903000E+02 -0.74946E+04
 0.63953003E+02 -0.76401E+04
 0.64002998E+02 -0.76289E+04
 0.64053001E+02 -0.76101E+04
 0.64103004E+02 -0.75186E+04
 0.64153000E+02 -0.73545E+04
 0.64203003E+02 -0.75334E+04
 0.64252998E+02 -0.76206E+04
 0.64303001E+02 -0.78783E+04
 0.64353004E+02 -0.80745E+04
 0.64403000E+02 -0.78413E+04
 0.64453003E+02 -0.77065E+04
 0.64502998E+02 -0.77021E+04
 0.64553001E+02 -0.75927E+04
 0.64603004E+02 -0.75604E+04
 0.64653000E+02 -0.76012E+04
 0.64703003E+02 -0.78608E+04
 0.64752998E+02 -0.81992E+04
 0.64803001E+02 -0.82939E+04
 0.64853004E+02 -0.84039E+04
 0.64903000E+02 -0.83659E+04
 0.64953003E+02 -0.78719E+04
 0.65002998E+02 -0.75992E+04
 0.65053001E+02 -0.76208E+04
 0.65103004E+02 -0.76924E+04
 0.65153000E+02 -0.78273E+04
 0.65203003E+02 -0.79408E+04
 0.65252998E+02 -0.80528E+04
 0.65303001E+02 -0.77516E+04
 0.65353004E+02 -0.77054E+04
 0.65403000E+02 -0.74758E+04
 0.65453003E+02 -0.72623E+04
 0.65502998E+02 -0.72391E+04
 0.65553001E+02 -0.70914E+04
 0.65603004E+02 -0.72825E+04
 0.65653000E+02 -0.74934E+04
 0.65703003E+02 -0.75985E+04
 0.65752998E+02 -0.76456E+04
 0.65803001E+02 -0.77492E+04
 0.65853004E+02 -0.76620E+04
 0.65903000E+02 -0.75487E+04
 0.65953003E+02 -0.76543E+04
 0.66002998E+02 -0.76130E+04
 0.66053001E+02 -0.74533E+04
 0.66103004E+02 -0.75088E+04
 0.66153000E+02 -0.75348E+04
 0.66203003E+02 -0.72458E+04
 0.66252998E+02 -0.70843E+04
 0.66303001E+02 -0.69384E+04
 0.66353004E+02 -0.69965E+04
 0.66403000E+02 -0.70293E+04
 0.66453003E+02 -0.69563E+04
 0.66502998E+02 -0.71055E+04
 0.66553001E+02 -0.75443E+04
 0.66603004E+02 -0.80896E+04
 0.66653000E+02 -0.85051E+04
 0.66703003E+02 -0.84000E+04
 0.66752998E+02 -0.78947E+04
 0.66803001E+02 -0.77115E+04
 0.66853004E+02 -0.75501E+04
 0.66903000E+02 -0.75156E+04
 0.66953003E+02 -0.72694E+04
 0.67002998E+02 -0.72824E+04
 0.67053001E+02 -0.74873E+04
 0.67103004E+02 -0.75441E+04
 0.67153000E+02 -0.80048E+04
 0.67203003E+02 -0.81451E+04
 0.67252998E+02 -0.80695E+04
 0.67303001E+02 -0.77487E+04
 0.67353004E+02 -0.71519E+04
 0.67403000E+02 -0.67477E+04
 0.67453003E+02 -0.64955E+04
 0.67502998E+02 -0.64116E+04
 0.67553001E+02 -0.65175E+04
 0.67603004E+02 -0.69902E+04
 0.67653000E+02 -0.76183E+04
 0.67703003E+02 -0.81427E+04
 0.67752998E+02 -0.84553E+04
 0.67803001E+02 -0.83579E+04
 0.67853004E+02 -0.77846E+04
 0.67903000E+02 -0.73111E+04
 0.67953003E+02 -0.70986E+04
 0.68002998E+02 -0.70974E+04
 0.68053001E+02 -0.72062E+04
 0.68103004E+02 -0.72937E+04
 0.68153000E+02 -0.72981E+04
 0.68203003E+02 -0.73998E+04
 0.68252998E+02 -0.74523E+04
 0.68303001E+02 -0.74486E+04
 0.68353004E+02 -0.76032E+04
 0.68403000E+02 -0.77670E+04
 0.68453003E+02 -0.80047E+04
 0.68502998E+02 -0.79776E+04
 0.68553001E+02 -0.79901E+04
 0.68603004E+02 -0.79810E+04
 0.68653000E+02 -0.77130E+04
 0.68703003E+02 -0.75971E+04
 0.68752998E+02 -0.76460E+04
 0.68803001E+02 -0.75882E+04
 0.68853004E+02 -0.75931E+04
 0.68903000E+02 -0.74555E+04
 0.68953003E+02 -0.72090E+04
 0.69002998E+02 -0.72269E+04
 0.69053001E+02 -0.73029E+04
 0.69103004E+02 -0.74682E+04
 0.69153000E+02 -0.77764E+04
 0.69203003E+02 -0.80739E+04
 0.69252998E+02 -0.83050E+04
 0.69303001E+02 -0.81904E+04
 0.69353004E+02 -0.77201E+04
 0.69403000E+02 -0.71718E+04
 0.69453003E+02 -0.69121E+04
 0.69502998E+02 -0.69705E+04
 0.69553001E+02 -0.70954E+04
 0.69603004E+02 -0.74819E+04
 0.69653000E+02 -0.76480E+04
 0.69703003E+02 -0.76086E+04
 0.69752998E+02 -0.75234E+04
 0.69803001E+02 -0.75468E+04
 0.69853004E+02 -0.78377E+04
 0.69903000E+02 -0.80171E+04
 0.69953003E+02 -0.81075E+04
 0.70002998E+02 -0.79013E+04
 0.70053001E+02 -0.75146E+04
 0.70103004E+02 -0.72007E+04
 0.70153000E+02 -0.69533E+04
 0.70203003E+02 -0.68926E+04
 0.70252998E+02 -0.70001E+04
 0.70303001E+02 -0.73137E+04
 0.70353004E+02 -0.75694E+04
 0.70403000E+02 -0.76151E+04
 0.70453003E+02 -0.78320E+04
 0.70502998E+02 -0.81329E+04
 0.70553001E+02 -0.85770E+04
 0.70603004E+02 -0.88034E+04
 0.70653000E+02 -0.86889E+04
 0.70703003E+02 -0.83559E+04
 0.70752998E+02 -0.78144E+04
 0.70803001E+02 -0.75802E+04
 0.70853004E+02 -0.75333E+04
 0.70903000E+02 -0.74170E+04
 0.70953003E+02 -0.72007E+04
 0.71002998E+02 -0.71537E+04
 0.71053001E+02 -0.72512E+04
 0.71103004E+02 -0.74065E+04
 0.71153000E+02 -0.77197E+04
 0.71203003E+02 -0.78907E+04
 0.71252998E+02 -0.79330E+04
 0.71303001E+02 -0.79451E+04
 0.71353004E+02 -0.78341E+04
 0.71403000E+02 -0.76884E+04
 0.71453003E+02 -0.75138E+04
 0.71502998E+02 -0.71952E+04
 0.71553001E+02 -0.67989E+04
 0.71603004E+02 -0.66740E+04
 0.71653000E+02 -0.68555E+04
 0.71703003E+02 -0.71650E+04
 0.71752998E+02 -0.74384E+04
 0.71803001E+02 -0.76790E+04
 0.71853004E+02 -0.78372E+04
 0.71903000E+02 -0.79097E+04
 0.71953003E+02 -0.77677E+04
 0.72002998E+02 -0.75946E+04
 0.72053001E+02 -0.74983E+04
 0.72103004E+02 -0.72976E+04
 0.72153000E+02 -0.72732E+04
 0.72203003E+02 -0.71886E+04
 0.72252998E+02 -0.72260E+04
 0.72303001E+02 -0.72674E+04
 0.72353004E+02 -0.72036E+04
 0.72403000E+02 -0.71760E+04
 0.72453003E+02 -0.71860E+04
 0.72502998E+02 -0.75156E+04
 0.72553001E+02 -0.76714E+04
 0.72603004E+02 -0.78615E+04
 0.72653000E+02 -0.80570E+04
 0.72703003E+02 -0.79573E+04
 0.72752998E+02 -0.79862E+04
 0.72803001E+02 -0.79733E+04
 0.72853004E+02 -0.79495E+04
 0.72903000E+02 -0.79324E+04
 0.72953003E+02 -0.77936E+04
 0.73002998E+02 -0.76128E+04
 0.73053001E+02 -0.73205E+04
 0.73103004E+02 -0.71634E+04
 0.73153000E+02 -0.70873E+04
 0.73203003E+02 -0.70538E+04
 0.73252998E+02 -0.71909E+04
 0.73303001E+02 -0.72163E+04
 0.73353004E+02 -0.73530E+04
 0.73403000E+02 -0.75329E+04
 0.73453003E+02 -0.77402E+04
 0.73502998E+02 -0.80325E+04
 0.73553001E+02 -0.81790E+04
 0.73603004E+02 -0.82044E+04
 0.73653000E+02 -0.80719E+04
 0.73703003E+02 -0.77825E+04
 0.73752998E+02 -0.76125E+04
 0.73803001E+02 -0.74895E+04
 0.73853004E+02 -0.73051E+04
 0.73903000E+02 -0.72149E+04
 0.73953003E+02 -0.72238E+04
 0.74002998E+02 -0.74122E+04
 0.74053001E+02 -0.74533E+04
 0.74103004E+02 -0.73516E+04
 0.74153000E+02 -0.72252E+04
 0.74203003E+02 -0.71291E+04
 0.74252998E+02 -0.71422E+04
 0.74303001E+02 -0.71681E+04
 0.74353004E+02 -0.72232E+04
 0.74403000E+02 -0.73592E+04
 0.74453003E+02 -0.75364E+04
 0.74502998E+02 -0.76476E+04
 0.74553001E+02 -0.77237E+04
 0.74603004E+02 -0.76611E+04
 0.74653000E+02 -0.75461E+04
 0.74703003E+02 -0.74670E+04
 0.74752998E+02 -0.74444E+04
 0.74803001E+02 -0.75610E+04
 0.74853004E+02 -0.76688E+04
 0.74903000E+02 -0.77622E+04
 0.74953003E+02 -0.79092E+04
 0.75002998E+02 -0.79159E+04
 0.75053001E+02 -0.78851E+04
 0.75103004E+02 -0.78470E+04
 0.75153000E+02 -0.77155E+04
 0.75203003E+02 -0.76732E+04
 0.75252998E+02 -0.76200E+04
 0.75303001E+02 -0.75088E+04
 0.75353004E+02 -0.75142E+04
 0.75403000E+02 -0.75474E+04
 0.75453003E+02 -0.75285E+04
 0.75502998E+02 -0.76552E+04
 0.75553001E+02 -0.77342E+04
 0.75603004E+02 -0.77184E+04
 0.75653000E+02 -0.77205E+04
 0.75703003E+02 -0.77382E+04
 0.75752998E+02 -0.78278E+04
 0.75803001E+02 -0.78502E+04
 0.75853004E+02 -0.77937E+04
 0.75903000E+02 -0.76214E+04
 0.75953003E+02 -0.75783E+04
 0.76002998E+02 -0.76121E+04
 0.76053001E+02 -0.75477E+04
 0.76103004E+02 -0.76048E+04
 0.76153000E+02 -0.76580E+04
 0.76203003E+02 -0.77950E+04
 0.76252998E+02 -0.79202E+04
 0.76303001E+02 -0.79624E+04
 0.76353004E+02 -0.79834E+04
 0.76403000E+02 -0.78226E+04
 0.76453003E+02 -0.75743E+04
 0.76502998E+02 -0.74247E+04
 0.76553001E+02 -0.73350E+04
 0.76603004E+02 -0.73913E+04
 0.76653000E+02 -0.75659E+04
 0.76703003E+02 -0.76552E+04
 0.76752998E+02 -0.77113E+04
 0.76803001E+02 -0.76973E+04
 0.76853004E+02 -0.75992E+04
 0.76903000E+02 -0.75314E+04
 0.76953003E+02 -0.75153E+04
 0.77002998E+02 -0.75126E+04
 0.77053001E+02 -0.75491E+04
 0.77103004E+02 -0.75443E+04
 0.77153000E+02 -0.75341E+04
 0.77203003E+02 -0.75715E+04
 0.77252998E+02 -0.75903E+04
 0.77303001E+02 -0.75489E+04
 0.77353004E+02 -0.75464E+04
 0.77403000E+02 -0.75704E+04
 0.77453003E+02 -0.75492E+04
 0.77502998E+02 -0.75469E+04
 0.77553001E+02 -0.75925E+04
 0.77603004E+02 -0.76314E+04
 0.77653000E+02 -0.76609E+04
 0.77703003E+02 -0.76830E+04
 0.77752998E+02 -0.76583E+04
 0.77803001E+02 -0.75927E+04
 0.77853004E+02 -0.75181E+04
 0.77903000E+02 -0.74790E+04
 0.77953003E+02 -0.74010E+04
 0.78002998E+02 -0.73712E+04
 0.78053001E+02 -0.72982E+04
 0.78103004E+02 -0.71476E+04
 0.78153000E+02 -0.71051E+04
 0.78203003E+02 -0.70734E+04
 0.78252998E+02 -0.70443E+04
 0.78303001E+02 -0.70774E+04
 0.78353004E+02 -0.70306E+04
 0.78403000E+02 -0.70322E+04
 0.78453003E+02 -0.71735E+04
 0.78502998E+02 -0.72361E+04
 0.78553001E+02 -0.73434E+04
 0.78603004E+02 -0.74204E+04
 0.78653000E+02 -0.74352E+04
 0.78703003E+02 -0.75075E+04
 0.78752998E+02 -0.75910E+04
 0.78803001E+02 -0.76051E+04
 0.78853004E+02 -0.75450E+04
 0.78903000E+02 -0.74430E+04
 0.78953003E+02 -0.73937E+04
 0.79002998E+02 -0.74183E+04
 0.79053001E+02 -0.75074E+04
 0.79103004E+02 -0.76735E+04
 0.79153000E+02 -0.78242E+04
 0.79203003E+02 -0.80040E+04
 0.79252998E+02 -0.81438E+04
 0.79303001E+02 -0.81673E+04
 0.79353004E+02 -0.80770E+04
 0.79403000E+02 -0.80334E+04
 0.79453003E+02 -0.79159E+04
 0.79502998E+02 -0.77387E+04
 0.79553001E+02 -0.76863E+04
 0.79603004E+02 -0.76710E+04
 0.79653000E+02 -0.77163E+04
 0.79703003E+02 -0.77771E+04
 0.79752998E+02 -0.77539E+04
 0.79803001E+02 -0.77741E+04
 0.79853004E+02 -0.77821E+04
 0.79903000E+02 -0.76590E+04
 0.79953003E+02 -0.75675E+04
 0.80002998E+02 -0.74935E+04
 0.80053001E+02 -0.73849E+04
 0.80103004E+02 -0.73624E+04
 0.80153000E+02 -0.74408E+04
 0.80203003E+02 -0.74332E+04
 0.80252998E+02 -0.74185E+04
 0.80303001E+02 -0.74330E+04
 0.80353004E+02 -0.73964E+04
 0.80403000E+02 -0.74365E+04
 0.80453003E+02 -0.75163E+04
 0.80502998E+02 -0.75594E+04
 0.80553001E+02 -0.75326E+04
 0.80603004E+02 -0.75032E+04
 0.80653000E+02 -0.74631E+04
 0.80703003E+02 -0.74055E+04
 0.80752998E+02 -0.73951E+04
 0.80803001E+02 -0.73401E+04
 0.80853004E+02 -0.72549E+04
 0.80903000E+02 -0.71524E+04
 0.80953003E+02 -0.70882E+04
 0.81002998E+02 -0.71361E+04
 0.81053001E+02 -0.72724E+04
 0.81103004E+02 -0.74563E+04
 0.81153000E+02 -0.76010E+04
 0.81203003E+02 -0.76991E+04
 0.81252998E+02 -0.77465E+04
 0.81303001E+02 -0.77800E+04
 0.81353004E+02 -0.78668E+04
 0.81403000E+02 -0.78801E+04
 0.81453003E+02 -0.78493E+04
 0.81502998E+02 -0.77745E+04
 0.81553001E+02 -0.76667E+04
 0.81603004E+02 -0.75838E+04
 0.81653000E+02 -0.75610E+04
 0.81703003E+02 -0.75472E+04
 0.81752998E+02 -0.74909E+04
 0.81803001E+02 -0.75093E+04
 0.81853004E+02 -0.75489E+04
 0.81903000E+02 -0.75914E+04
 0.81953003E+02 -0.76849E+04
 0.82002998E+02 -0.77704E+04
 0.82053001E+02 -0.78580E+04
 0.82103004E+02 -0.78272E+04
 0.82153000E+02 -0.77716E+04
 0.82203003E+02 -0.77791E+04
 0.82252998E+02 -0.77322E+04
 0.82303001E+02 -0.76436E+04
 0.82353004E+02 -0.75216E+04
 0.82403000E+02 -0.74403E+04
 0.82453003E+02 -0.73684E+04
 0.82502998E+02 -0.74246E+04
 0.82553001E+02 -0.75097E+04
 0.82603004E+02 -0.76277E+04
 0.82653000E+02 -0.77329E+04
 0.82703003E+02 -0.77572E+04
 0.82752998E+02 -0.77527E+04
 0.82803001E+02 -0.77691E+04
 0.82853004E+02 -0.77961E+04
 0.82903000E+02 -0.76937E+04
 0.82953003E+02 -0.76697E+04
 0.83002998E+02 -0.76154E+04
 0.83053001E+02 -0.74861E+04
 0.83103004E+02 -0.73686E+04
 0.83153000E+02 -0.72685E+04
 0.83203003E+02 -0.72518E+04
 0.83252998E+02 -0.73084E+04
 0.83303001E+02 -0.74003E+04
 0.83353004E+02 -0.74667E+04
 0.83403000E+02 -0.75680E+04
 0.83453003E+02 -0.76279E+04
 0.83502998E+02 -0.76697E+04
 0.83553001E+02 -0.77579E+04
 0.83603004E+02 -0.77375E+04
 0.83653000E+02 -0.76909E+04
 0.83703003E+02 -0.76591E+04
 0.83752998E+02 -0.76337E+04
 0.83803001E+02 -0.76090E+04
 0.83853004E+02 -0.75830E+04
 0.83903000E+02 -0.76332E+04
 0.83953003E+02 -0.76762E+04
 0.84002998E+02 -0.77806E+04
 0.84053001E+02 -0.78749E+04
 0.84103004E+02 -0.79758E+04
 0.84153000E+02 -0.80061E+04
 0.84203003E+02 -0.78777E+04
 0.84252998E+02 -0.77309E+04
 0.84303001E+02 -0.75766E+04
 0.84353004E+02 -0.74738E+04
 0.84403000E+02 -0.74787E+04
 0.84453003E+02 -0.75086E+04
 0.84502998E+02 -0.75061E+04
 0.84553001E+02 -0.74777E+04
 0.84603004E+02 -0.73868E+04
 0.84653000E+02 -0.72815E+04
 0.84703003E+02 -0.71592E+04
 0.84752998E+02 -0.70779E+04
 0.84803001E+02 -0.70973E+04
 0.84853004E+02 -0.70720E+04
 0.84903000E+02 -0.71029E+04
 0.84953003E+02 -0.72426E+04
 0.85002998E+02 -0.73569E+04
 0.85053001E+02 -0.75411E+04
 0.85103004E+02 -0.75979E+04
 0.85153000E+02 -0.76187E+04
 0.85203003E+02 -0.76232E+04
 0.85252998E+02 -0.76059E+04
 0.85303001E+02 -0.76284E+04
 0.85353004E+02 -0.76423E+04
 0.85403000E+02 -0.76449E+04
 0.85453003E+02 -0.76596E+04
 0.85502998E+02 -0.76689E+04
 0.85553001E+02 -0.76222E+04
 0.85603004E+02 -0.75824E+04
 0.85653000E+02 -0.75294E+04
 0.85703003E+02 -0.75888E+04
 0.85752998E+02 -0.75986E+04
 0.85803001E+02 -0.75853E+04
 0.85853004E+02 -0.75666E+04
 0.85903000E+02 -0.75154E+04
 0.85953003E+02 -0.74987E+04
 0.86002998E+02 -0.75099E+04
 0.86053001E+02 -0.75455E+04
 0.86103004E+02 -0.75286E+04
 0.86153000E+02 -0.75270E+04
 0.86203003E+02 -0.75513E+04
 0.86252998E+02 -0.75366E+04
 0.86303001E+02 -0.75498E+04
 0.86353004E+02 -0.76506E+04
 0.86403000E+02 -0.76442E+04
 0.86453003E+02 -0.76735E+04
 0.86502998E+02 -0.76752E+04
 0.86553001E+02 -0.76465E+04
 0.86603004E+02 -0.76686E+04
 0.86653000E+02 -0.76286E+04
 0.86703003E+02 -0.75970E+04
 0.86752998E+02 -0.75234E+04
 0.86803001E+02 -0.75393E+04
 0.86853004E+02 -0.76100E+04
 0.86903000E+02 -0.77151E+04
 0.86953003E+02 -0.77281E+04
 0.87002998E+02 -0.77154E+04
 0.87053001E+02 -0.77606E+04
 0.87103004E+02 -0.77448E+04
 0.87153000E+02 -0.77632E+04
 0.87203003E+02 -0.78106E+04
 0.87252998E+02 -0.78538E+04
 0.87303001E+02 -0.78478E+04
 0.87353004E+02 -0.77924E+04
 0.87403000E+02 -0.77225E+04
 0.87453003E+02 -0.76292E+04
 0.87502998E+02 -0.75902E+04
 0.87553001E+02 -0.75806E+04
 0.87602997E+02 -0.75511E+04
 0.87653000E+02 -0.75617E+04
 0.87703003E+02 -0.75732E+04
 0.87752998E+02 -0.75551E+04
 0.87803001E+02 -0.75183E+04
 0.87852997E+02 -0.75425E+04
 0.87903000E+02 -0.75251E+04
 0.87953003E+02 -0.74786E+04
 0.88002998E+02 -0.74858E+04
 0.88053001E+02 -0.75002E+04
 0.88102997E+02 -0.75118E+04
 0.88153000E+02 -0.74650E+04
 0.88203003E+02 -0.74521E+04
 0.88252998E+02 -0.74417E+04
 0.88303001E+02 -0.74240E+04
 0.88352997E+02 -0.74938E+04
 0.88403000E+02 -0.75610E+04
 0.88453003E+02 -0.76175E+04
 0.88502998E+02 -0.76619E+04
 0.88553001E+02 -0.77235E+04
 0.88602997E+02 -0.77665E+04
 0.88653000E+02 -0.77130E+04
 0.88703003E+02 -0.76711E+04
 0.88752998E+02 -0.76063E+04
 0.88803001E+02 -0.75169E+04
 0.88852997E+02 -0.74408E+04
 0.88903000E+02 -0.73677E+04
 0.88953003E+02 -0.73250E+04
 0.89002998E+02 -0.73521E+04
 0.89053001E+02 -0.74292E+04
 0.89102997E+02 -0.74651E+04
 0.89153000E+02 -0.74559E+04
 0.89203003E+02 -0.75019E+04
 0.89252998E+02 -0.75367E+04
 0.89303001E+02 -0.75422E+04
 0.89352997E+02 -0.76011E+04
 0.89403000E+02 -0.75599E+04
 0.89453003E+02 -0.75091E+04
 0.89502998E+02 -0.74832E+04
 0.89553001E+02 -0.74667E+04
 0.89602997E+02 -0.75120E+04
 0.89653000E+02 -0.75713E+04
 0.89703003E+02 -0.76432E+04
 0.89752998E+02 -0.76581E+04
 0.89803001E+02 -0.76840E+04
 0.89852997E+02 -0.77810E+04
 0.89903000E+02 -0.78104E+04
 0.89953003E+02 -0.78798E+04
 0.90002998E+02 -0.79986E+04
 0.90053001E+02 -0.80333E+04
 0.90102997E+02 -0.80882E+04
 0.90153000E+02 -0.81261E+04
 0.90203003E+02 -0.80928E+04
 0.90252998E+02 -0.80420E+04
 0.90303001E+02 -0.79645E+04
 0.90352997E+02 -0.78536E+04
 0.90403000E+02 -0.77160E+04
 0.90453003E+02 -0.75810E+04
 0.90502998E+02 -0.74897E+04
 0.90553001E+02 -0.74301E+04
 0.90602997E+02 -0.74437E+04
 0.90653000E+02 -0.74502E+04
 0.90703003E+02 -0.74426E+04
 0.90752998E+02 -0.74782E+04
 0.90803001E+02 -0.75561E+04
 0.90852997E+02 -0.76148E+04
 0.90903000E+02 -0.76283E+04
 0.90953003E+02 -0.75668E+04
 0.91002998E+02 -0.74664E+04
 0.91053001E+02 -0.74091E+04
 0.91102997E+02 -0.73301E+04
 0.91153000E+02 -0.72876E+04
 0.91203003E+02 -0.72261E+04
 0.91252998E+02 -0.71233E+04
 0.91303001E+02 -0.70672E+04
 0.91352997E+02 -0.70502E+04
 0.91403000E+02 -0.70047E+04
 0.91453003E+02 -0.70524E+04
 0.91502998E+02 -0.71553E+04
 0.91553001E+02 -0.71774E+04
 0.91602997E+02 -0.72291E+04
 0.91653000E+02 -0.73404E+04
 0.91703003E+02 -0.74217E+04
 0.91752998E+02 -0.74739E+04
 0.91803001E+02 -0.75222E+04
 0.91852997E+02 -0.75609E+04
 0.91903000E+02 -0.76580E+04
 0.91953003E+02 -0.77337E+04
 0.92002998E+02 -0.77847E+04
 0.92053001E+02 -0.78392E+04
 0.92102997E+02 -0.78062E+04
 0.92153000E+02 -0.77557E+04
 0.92203003E+02 -0.77795E+04
 0.92252998E+02 -0.77633E+04
 0.92303001E+02 -0.78067E+04
 0.92352997E+02 -0.78443E+04
 0.92403000E+02 -0.78073E+04
 0.92453003E+02 -0.77728E+04
 0.92502998E+02 -0.76731E+04
 0.92553001E+02 -0.76096E+04
 0.92602997E+02 -0.76212E+04
 0.92653000E+02 -0.76155E+04
 0.92703003E+02 -0.75871E+04
 0.92752998E+02 -0.75925E+04
 0.92803001E+02 -0.75307E+04
 0.92852997E+02 -0.74559E+04
 0.92903000E+02 -0.74734E+04
 0.92953003E+02 -0.74746E+04
 0.93002998E+02 -0.74737E+04
 0.93053001E+02 -0.75318E+04
 0.93102997E+02 -0.75421E+04
 0.93153000E+02 -0.75734E+04
 0.93203003E+02 -0.76200E+04
 0.93252998E+02 -0.76338E+04
 0.93303001E+02 -0.77050E+04
 0.93352997E+02 -0.77144E+04
 0.93403000E+02 -0.76544E+04
 0.93453003E+02 -0.76209E+04
 0.93502998E+02 -0.75916E+04
 0.93553001E+02 -0.75908E+04
 0.93602997E+02 -0.76304E+04
 0.93653000E+02 -0.76335E+04
 0.93703003E+02 -0.75487E+04
 0.93752998E+02 -0.75032E+04
 0.93803001E+02 -0.74843E+04
 0.93852997E+02 -0.74398E+04
 0.93903000E+02 -0.74523E+04
 0.93953003E+02 -0.74390E+04
 0.94002998E+02 -0.73874E+04
 0.94053001E+02 -0.73762E+04
 0.94102997E+02 -0.73947E+04
 0.94153000E+02 -0.74087E+04
 0.94203003E+02 -0.74441E+04
 0.94252998E+02 -0.74659E+04
 0.94303001E+02 -0.74615E+04
 0.94352997E+02 -0.75002E+04
 0.94403000E+02 -0.75556E+04
 0.94453003E+02 -0.76198E+04
 0.94502998E+02 -0.77150E+04
 0.94553001E+02 -0.77933E+04
 0.94602997E+02 -0.78219E+04
 0.94653000E+02 -0.78291E+04
 0.94703003E+02 -0.78277E+04
 0.94752998E+02 -0.78114E+04
 0.94803001E+02 -0.78168E+04
 0.94852997E+02 -0.78292E+04
 0.94903000E+02 -0.77970E+04
 0.94953003E+02 -0.77963E+04
 0.95002998E+02 -0.77958E+04
 0.95053001E+02 -0.77796E+04
 0.95102997E+02 -0.77598E+04
 0.95153000E+02 -0.77038E+04
 0.95203003E+02 -0.76213E+04
 0.95252998E+02 -0.75244E+04
 0.95303001E+02 -0.75158E+04
 0.95352997E+02 -0.75243E+04
 0.95403000E+02 -0.75022E+04
 0.95453003E+02 -0.74992E+04
 0.95502998E+02 -0.74607E+04
 0.95553001E+02 -0.73835E+04
 0.95602997E+02 -0.73904E+04
 0.95653000E+02 -0.73797E+04
 0.95703003E+02 -0.73602E+04
 0.95752998E+02 -0.73797E+04
 0.95803001E+02 -0.73450E+04
 0.95852997E+02 -0.73222E+04
 0.95903000E+02 -0.73231E+04
 0.95953003E+02 -0.73697E+04
 0.96002998E+02 -0.74336E+04
 0.96053001E+02 -0.75371E+04
 0.96102997E+02 -0.76108E+04
 0.96153000E+02 -0.76345E+04
 0.96203003E+02 -0.76695E+04
 0.96252998E+02 -0.77078E+04
 0.96303001E+02 -0.77158E+04
 0.96352997E+02 -0.76862E+04
 0.96403000E+02 -0.76356E+04
 0.96453003E+02 -0.75638E+04
 0.96502998E+02 -0.75509E+04
 0.96553001E+02 -0.75823E+04
 0.96602997E+02 -0.76070E+04
 0.96653000E+02 -0.76238E+04
 0.96703003E+02 -0.76572E+04
 0.96752998E+02 -0.76560E+04
 0.96803001E+02 -0.76369E+04
 0.96852997E+02 -0.76386E+04
 0.96903000E+02 -0.76396E+04
 0.96953003E+02 -0.76413E+04
 0.97002998E+02 -0.76172E+04
 0.97053001E+02 -0.75637E+04
 0.97102997E+02 -0.75247E+04
 0.97153000E+02 -0.74960E+04
 0.97203003E+02 -0.74834E+04
 0.97252998E+02 -0.75116E+04
 0.97303001E+02 -0.74845E+04
 0.97352997E+02 -0.74557E+04
 0.97403000E+02 -0.74633E+04
 0.97453003E+02 -0.74793E+04
 0.97502998E+02 -0.75469E+04
 0.97553001E+02 -0.75985E+04
 0.97602997E+02 -0.76254E+04
 0.97653000E+02 -0.76581E+04
 0.97703003E+02 -0.76776E+04
 0.97752998E+02 -0.77176E+04
 0.97803001E+02 -0.77418E+04
 0.97852997E+02 -0.77265E+04
 0.97903000E+02 -0.76980E+04
 0.97953003E+02 -0.76815E+04
 0.98002998E+02 -0.76806E+04
