-0.19969940E+01 -0.23193E+04
-0.19469941E+01 -0.23108E+04
-0.18969940E+01 -0.23267E+04
-0.18469940E+01 -0.23236E+04
-0.17969940E+01 -0.23295E+04
-0.17469940E+01 -0.23265E+04
-0.16969941E+01 -0.23419E+04
-0.16469941E+01 -0.23681E+04
-0.15969940E+01 -0.23539E+04
-0.15469940E+01 -0.23621E+04
-0.14969940E+01 -0.23804E+04
-0.14469941E+01 -0.23747E+04
-0.13969941E+01 -0.23846E+04
-0.13469940E+01 -0.23894E+04
-0.12969941E+01 -0.23628E+04
-0.12469940E+01 -0.23771E+04
-0.11969941E+01 -0.23704E+04
-0.11469941E+01 -0.23559E+04
-0.10969940E+01 -0.23840E+04
-0.10469941E+01 -0.23829E+04
-0.99699408E+00 -0.23756E+04
-0.94699407E+00 -0.23592E+04
-0.89699411E+00 -0.23305E+04
-0.84699404E+00 -0.23237E+04
-0.79699409E+00 -0.23221E+04
-0.74699414E+00 -0.23320E+04
-0.69699407E+00 -0.23378E+04
-0.64699411E+00 -0.23231E+04
-0.59699416E+00 -0.23128E+04
-0.54699409E+00 -0.22920E+04
-0.49699414E+00 -0.22790E+04
-0.44699407E+00 -0.22943E+04
-0.39699411E+00 -0.23058E+04
-0.34699416E+00 -0.23222E+04
-0.29699409E+00 -0.23321E+04
-0.24699414E+00 -0.23157E+04
-0.19699407E+00 -0.23006E+04
-0.14699411E+00 -0.23129E+04
-0.96994162E-01 -0.23349E+04
-0.46994090E-01 -0.23413E+04
 0.30058622E-02 -0.23524E+04
 0.53005934E-01 -0.23571E+04
 0.10300589E+00 -0.23651E+04
 0.15300584E+00 -0.23661E+04
 0.20300579E+00 -0.23610E+04
 0.25300574E+00 -0.23858E+04
 0.30300593E+00 -0.23810E+04
 0.35300589E+00 -0.23768E+04
 0.40300584E+00 -0.23716E+04
 0.45300579E+00 -0.23423E+04
 0.50300574E+00 -0.23181E+04
 0.55300593E+00 -0.23167E+04
 0.60300589E+00 -0.23155E+04
 0.65300584E+00 -0.23168E+04
 0.70300579E+00 -0.23295E+04
 0.75300574E+00 -0.23179E+04
 0.80300570E+00 -0.23188E+04
 0.85300589E+00 -0.23312E+04
 0.90300584E+00 -0.23208E+04
 0.95300579E+00 -0.23039E+04
 0.10030057E+01 -0.23147E+04
 0.10530057E+01 -0.23225E+04
 0.11030059E+01 -0.23334E+04
 0.11530058E+01 -0.23533E+04
 0.12030058E+01 -0.23602E+04
 0.12530057E+01 -0.23448E+04
 0.13030057E+01 -0.23581E+04
 0.13530059E+01 -0.23734E+04
 0.14030058E+01 -0.23528E+04
 0.14530058E+01 -0.23520E+04
 0.15030057E+01 -0.23706E+04
 0.15530057E+01 -0.23653E+04
 0.16030059E+01 -0.23591E+04
 0.16530058E+01 -0.23530E+04
 0.17030058E+01 -0.23574E+04
 0.17530057E+01 -0.23617E+04
 0.18030057E+01 -0.23702E+04
 0.18530056E+01 -0.23852E+04
 0.19030058E+01 -0.23901E+04
 0.19530058E+01 -0.23988E+04
 0.20030057E+01 -0.23793E+04
 0.20530057E+01 -0.24051E+04
 0.21030059E+01 -0.23894E+04
 0.21530056E+01 -0.23949E+04
 0.22030058E+01 -0.23886E+04
 0.22530055E+01 -0.23954E+04
 0.23030057E+01 -0.23947E+04
 0.23530059E+01 -0.23798E+04
 0.24030056E+01 -0.23906E+04
 0.24530058E+01 -0.23588E+04
 0.25030055E+01 -0.23817E+04
 0.25530057E+01 -0.23712E+04
 0.26030059E+01 -0.23738E+04
 0.26530056E+01 -0.23437E+04
 0.27030058E+01 -0.23353E+04
 0.27530055E+01 -0.23303E+04
 0.28030057E+01 -0.23394E+04
 0.28530059E+01 -0.23393E+04
 0.29030056E+01 -0.23268E+04
 0.29530058E+01 -0.23518E+04
 0.30030055E+01 -0.23245E+04
 0.30530057E+01 -0.23231E+04
 0.31030059E+01 -0.23114E+04
 0.31530056E+01 -0.23050E+04
 0.32030058E+01 -0.22798E+04
 0.32530055E+01 -0.23345E+04
 0.33030057E+01 -0.23224E+04
 0.33530059E+01 -0.22862E+04
 0.34030056E+01 -0.23480E+04
 0.34530058E+01 -0.23152E+04
 0.35030055E+01 -0.23290E+04
 0.35530057E+01 -0.23718E+04
 0.36030054E+01 -0.22969E+04
 0.36530056E+01 -0.23171E+04
 0.37030058E+01 -0.23662E+04
 0.37530055E+01 -0.22755E+04
 0.38030057E+01 -0.23414E+04
 0.38530054E+01 -0.23282E+04
 0.39030056E+01 -0.23136E+04
 0.39530058E+01 -0.23542E+04
 0.40030055E+01 -0.23611E+04
 0.40530057E+01 -0.22958E+04
 0.41030054E+01 -0.23371E+04
 0.41530056E+01 -0.23682E+04
 0.42030058E+01 -0.22926E+04
 0.42530055E+01 -0.23405E+04
 0.43030057E+01 -0.23161E+04
 0.43530054E+01 -0.23685E+04
 0.44030056E+01 -0.23314E+04
 0.44530058E+01 -0.23559E+04
 0.45030055E+01 -0.23339E+04
 0.45530057E+01 -0.23372E+04
 0.46030054E+01 -0.23793E+04
 0.46530056E+01 -0.23401E+04
 0.47030058E+01 -0.23872E+04
 0.47530055E+01 -0.23846E+04
 0.48030057E+01 -0.23651E+04
 0.48530054E+01 -0.23802E+04
 0.49030056E+01 -0.23542E+04
 0.49530058E+01 -0.23746E+04
 0.50030055E+01 -0.23673E+04
 0.50530057E+01 -0.23473E+04
 0.51030054E+01 -0.23739E+04
 0.51530056E+01 -0.23535E+04
 0.52030058E+01 -0.23886E+04
 0.52530055E+01 -0.23209E+04
 0.53030057E+01 -0.23711E+04
 0.53530054E+01 -0.23607E+04
 0.54030056E+01 -0.23586E+04
 0.54530053E+01 -0.23279E+04
 0.55030055E+01 -0.23570E+04
 0.55530057E+01 -0.23628E+04
 0.56030054E+01 -0.23389E+04
 0.56530056E+01 -0.23710E+04
 0.57030053E+01 -0.23520E+04
 0.57530055E+01 -0.23719E+04
 0.58030057E+01 -0.23274E+04
 0.58530054E+01 -0.23744E+04
 0.59030056E+01 -0.23381E+04
 0.59530053E+01 -0.23604E+04
 0.60030055E+01 -0.23721E+04
 0.60530052E+01 -0.23754E+04
 0.61030054E+01 -0.23725E+04
 0.61530056E+01 -0.23507E+04
 0.62030058E+01 -0.23400E+04
 0.62530050E+01 -0.23647E+04
 0.63030052E+01 -0.23582E+04
 0.63530054E+01 -0.23580E+04
 0.64030056E+01 -0.23814E+04
 0.64530058E+01 -0.23733E+04
 0.65030050E+01 -0.23763E+04
 0.65530052E+01 -0.23650E+04
 0.66030054E+01 -0.23586E+04
 0.66530056E+01 -0.23438E+04
 0.67030058E+01 -0.23614E+04
 0.67530050E+01 -0.23674E+04
 0.68030052E+01 -0.23657E+04
 0.68530054E+01 -0.23592E+04
 0.69030056E+01 -0.23595E+04
 0.69530058E+01 -0.23482E+04
 0.70030050E+01 -0.23368E+04
 0.70530052E+01 -0.23561E+04
 0.71030054E+01 -0.23705E+04
 0.71530056E+01 -0.23393E+04
 0.72030058E+01 -0.23298E+04
 0.72530050E+01 -0.23507E+04
 0.73030052E+01 -0.23360E+04
 0.73530054E+01 -0.23215E+04
 0.74030056E+01 -0.23320E+04
 0.74530058E+01 -0.23452E+04
 0.75030050E+01 -0.23218E+04
 0.75530052E+01 -0.23122E+04
 0.76030054E+01 -0.23220E+04
 0.76530056E+01 -0.23073E+04
 0.77030058E+01 -0.22878E+04
 0.77530050E+01 -0.22961E+04
 0.78030052E+01 -0.23075E+04
 0.78530054E+01 -0.23040E+04
 0.79030056E+01 -0.23164E+04
 0.79530058E+01 -0.22960E+04
 0.80030050E+01 -0.22998E+04
 0.80530052E+01 -0.22790E+04
 0.81030054E+01 -0.22888E+04
 0.81530056E+01 -0.23118E+04
 0.82030058E+01 -0.23056E+04
 0.82530050E+01 -0.23184E+04
 0.83030052E+01 -0.23064E+04
 0.83530054E+01 -0.23071E+04
 0.84030056E+01 -0.23155E+04
 0.84530058E+01 -0.23286E+04
 0.85030050E+01 -0.23276E+04
 0.85530052E+01 -0.23358E+04
 0.86030054E+01 -0.23642E+04
 0.86530056E+01 -0.23478E+04
 0.87030058E+01 -0.23637E+04
 0.87530050E+01 -0.23735E+04
 0.88030052E+01 -0.23608E+04
 0.88530054E+01 -0.23882E+04
 0.89030056E+01 -0.23875E+04
 0.89530058E+01 -0.24046E+04
 0.90030050E+01 -0.23963E+04
 0.90530052E+01 -0.23811E+04
 0.91030054E+01 -0.23824E+04
 0.91530056E+01 -0.23949E+04
 0.92030048E+01 -0.23952E+04
 0.92530050E+01 -0.23646E+04
 0.93030052E+01 -0.23813E+04
 0.93530054E+01 -0.23672E+04
 0.94030056E+01 -0.23626E+04
 0.94530048E+01 -0.23671E+04
 0.95030050E+01 -0.23351E+04
 0.95530052E+01 -0.23407E+04
 0.96030054E+01 -0.23268E+04
 0.96530056E+01 -0.23502E+04
 0.97030048E+01 -0.23609E+04
 0.97530050E+01 -0.23239E+04
 0.98030052E+01 -0.23403E+04
 0.98530054E+01 -0.23509E+04
 0.99030056E+01 -0.23416E+04
 0.99530048E+01 -0.23542E+04
 0.10003005E+02 -0.23541E+04
 0.10053005E+02 -0.23565E+04
 0.10103005E+02 -0.23885E+04
 0.10153006E+02 -0.23791E+04
 0.10203005E+02 -0.23732E+04
 0.10253005E+02 -0.23591E+04
 0.10303005E+02 -0.23346E+04
 0.10353005E+02 -0.23646E+04
 0.10403006E+02 -0.23760E+04
 0.10453005E+02 -0.23785E+04
 0.10503005E+02 -0.24072E+04
 0.10553005E+02 -0.23898E+04
 0.10603005E+02 -0.23674E+04
 0.10653006E+02 -0.23641E+04
 0.10703005E+02 -0.23327E+04
 0.10753005E+02 -0.23277E+04
 0.10803005E+02 -0.23531E+04
 0.10853005E+02 -0.23451E+04
 0.10903006E+02 -0.23295E+04
 0.10953005E+02 -0.23211E+04
 0.11003005E+02 -0.23161E+04
 0.11053005E+02 -0.23350E+04
 0.11103005E+02 -0.23233E+04
 0.11153006E+02 -0.23275E+04
 0.11203005E+02 -0.23209E+04
 0.11253005E+02 -0.23163E+04
 0.11303005E+02 -0.23387E+04
 0.11353005E+02 -0.23302E+04
 0.11403006E+02 -0.23344E+04
 0.11453005E+02 -0.23617E+04
 0.11503005E+02 -0.23550E+04
 0.11553005E+02 -0.23623E+04
 0.11603005E+02 -0.23586E+04
 0.11653006E+02 -0.23233E+04
 0.11703005E+02 -0.23422E+04
 0.11753005E+02 -0.23464E+04
 0.11803005E+02 -0.23452E+04
 0.11853005E+02 -0.23612E+04
 0.11903006E+02 -0.23332E+04
 0.11953005E+02 -0.23380E+04
 0.12003005E+02 -0.23594E+04
 0.12053005E+02 -0.23278E+04
 0.12103005E+02 -0.23410E+04
 0.12153006E+02 -0.23265E+04
 0.12203005E+02 -0.23381E+04
 0.12253005E+02 -0.23322E+04
 0.12303005E+02 -0.23373E+04
 0.12353005E+02 -0.23536E+04
 0.12403006E+02 -0.23078E+04
 0.12453005E+02 -0.23203E+04
 0.12503005E+02 -0.23271E+04
 0.12553005E+02 -0.23263E+04
 0.12603005E+02 -0.23456E+04
 0.12653005E+02 -0.23460E+04
 0.12703005E+02 -0.23410E+04
 0.12753005E+02 -0.23640E+04
 0.12803005E+02 -0.23256E+04
 0.12853005E+02 -0.23549E+04
 0.12903005E+02 -0.23630E+04
 0.12953005E+02 -0.23348E+04
 0.13003005E+02 -0.23367E+04
 0.13053005E+02 -0.23378E+04
 0.13103005E+02 -0.23550E+04
 0.13153005E+02 -0.23542E+04
 0.13203005E+02 -0.23706E+04
 0.13253005E+02 -0.23437E+04
 0.13303005E+02 -0.23336E+04
 0.13353005E+02 -0.23700E+04
 0.13403005E+02 -0.23726E+04
 0.13453005E+02 -0.23637E+04
 0.13503005E+02 -0.23690E+04
 0.13553005E+02 -0.23516E+04
 0.13603005E+02 -0.23847E+04
 0.13653005E+02 -0.23583E+04
 0.13703005E+02 -0.23584E+04
 0.13753005E+02 -0.23773E+04
 0.13803005E+02 -0.23615E+04
 0.13853005E+02 -0.23784E+04
 0.13903005E+02 -0.23657E+04
 0.13953005E+02 -0.23644E+04
 0.14003005E+02 -0.23544E+04
 0.14053005E+02 -0.23499E+04
 0.14103004E+02 -0.23465E+04
 0.14153006E+02 -0.23507E+04
 0.14203005E+02 -0.23529E+04
 0.14253004E+02 -0.23486E+04
 0.14303005E+02 -0.23430E+04
 0.14353004E+02 -0.23539E+04
 0.14403006E+02 -0.23599E+04
 0.14453005E+02 -0.23759E+04
 0.14503004E+02 -0.23677E+04
 0.14553005E+02 -0.23652E+04
 0.14603004E+02 -0.23818E+04
 0.14653006E+02 -0.23403E+04
 0.14703005E+02 -0.23396E+04
 0.14753004E+02 -0.23359E+04
 0.14803005E+02 -0.23336E+04
 0.14853004E+02 -0.23374E+04
 0.14903006E+02 -0.23067E+04
 0.14953005E+02 -0.23230E+04
 0.15003004E+02 -0.23040E+04
 0.15053005E+02 -0.22947E+04
 0.15103004E+02 -0.22913E+04
 0.15153006E+02 -0.22715E+04
 0.15203005E+02 -0.22866E+04
 0.15253004E+02 -0.22811E+04
 0.15303005E+02 -0.22957E+04
 0.15353004E+02 -0.22717E+04
 0.15403006E+02 -0.22830E+04
 0.15453005E+02 -0.22876E+04
 0.15503004E+02 -0.22756E+04
 0.15553005E+02 -0.22602E+04
 0.15603004E+02 -0.22846E+04
 0.15653006E+02 -0.22844E+04
 0.15703005E+02 -0.22890E+04
 0.15753004E+02 -0.23242E+04
 0.15803005E+02 -0.23175E+04
 0.15853004E+02 -0.23628E+04
 0.15903006E+02 -0.23690E+04
 0.15953005E+02 -0.23672E+04
 0.16003004E+02 -0.23643E+04
 0.16053005E+02 -0.23663E+04
 0.16103004E+02 -0.23835E+04
 0.16153006E+02 -0.23890E+04
 0.16203005E+02 -0.23932E+04
 0.16253004E+02 -0.24067E+04
 0.16303005E+02 -0.24115E+04
 0.16353004E+02 -0.24131E+04
 0.16403006E+02 -0.23900E+04
 0.16453005E+02 -0.23887E+04
 0.16503004E+02 -0.23929E+04
 0.16553005E+02 -0.24012E+04
 0.16603004E+02 -0.24204E+04
 0.16653006E+02 -0.23857E+04
 0.16703005E+02 -0.24465E+04
 0.16753004E+02 -0.23449E+04
 0.16803005E+02 -0.24468E+04
 0.16853004E+02 -0.23481E+04
 0.16903006E+02 -0.24223E+04
 0.16953005E+02 -0.23682E+04
 0.17003004E+02 -0.23642E+04
 0.17053005E+02 -0.25416E+04
 0.17103004E+02 -0.22757E+04
 0.17153006E+02 -0.26728E+04
 0.17203005E+02 -0.23002E+04
 0.17253004E+02 -0.23567E+04
 0.17303005E+02 -0.24552E+04
 0.17353004E+02 -0.22628E+04
 0.17403006E+02 -0.24672E+04
 0.17453005E+02 -0.24579E+04
 0.17503004E+02 -0.22800E+04
 0.17553005E+02 -0.25436E+04
 0.17603004E+02 -0.21896E+04
 0.17653006E+02 -0.23933E+04
 0.17703005E+02 -0.23960E+04
 0.17753004E+02 -0.22903E+04
 0.17803005E+02 -0.22952E+04
 0.17853004E+02 -0.25569E+04
 0.17903006E+02 -0.21442E+04
 0.17953005E+02 -0.18868E+04
 0.18003004E+02 -0.25668E+04
 0.18053005E+02 -0.22164E+04
 0.18103004E+02 -0.30460E+04
 0.18153006E+02 -0.19880E+04
 0.18203005E+02 -0.25723E+04
 0.18253004E+02 -0.22255E+04
 0.18303005E+02 -0.19522E+04
 0.18353004E+02 -0.18199E+04
 0.18403006E+02 -0.29465E+04
 0.18453005E+02 -0.24501E+04
 0.18503004E+02 -0.22362E+04
 0.18553005E+02 -0.34920E+04
 0.18603004E+02 -0.17300E+04
 0.18653006E+02 -0.16508E+04
 0.18703005E+02 -0.19774E+04
 0.18753004E+02 -0.19988E+04
 0.18803005E+02 -0.31046E+04
 0.18853004E+02 -0.24875E+04
 0.18903006E+02 -0.10261E+04
 0.18953005E+02 -0.32089E+04
 0.19003004E+02 -0.24949E+04
 0.19053005E+02 -0.12633E+04
 0.19103004E+02 -0.24353E+04
 0.19153006E+02 -0.32796E+04
 0.19203005E+02 -0.18178E+04
 0.19253004E+02 -0.27368E+04
 0.19303005E+02 -0.15854E+04
 0.19353004E+02 -0.14825E+04
 0.19403006E+02 -0.33251E+04
 0.19453005E+02 -0.18632E+04
 0.19503004E+02 -0.32049E+04
 0.19553005E+02 -0.35520E+04
 0.19603004E+02 -0.12731E+04
 0.19653006E+02 -0.12101E+04
 0.19703005E+02 -0.29490E+04
 0.19753004E+02 -0.22500E+04
 0.19803005E+02 -0.19429E+04
 0.19853004E+02 -0.26050E+04
 0.19903006E+02 -0.24040E+04
 0.19953005E+02 -0.29938E+04
 0.20003004E+02 -0.24708E+04
 0.20053005E+02 -0.84249E+03
 0.20103004E+02 -0.34605E+04
 0.20153006E+02 -0.24866E+04
 0.20203005E+02 -0.23935E+04
 0.20253004E+02 -0.22761E+04
 0.20303005E+02 -0.21735E+04
 0.20353004E+02 -0.26782E+04
 0.20403004E+02 -0.18739E+04
 0.20453005E+02 -0.40149E+04
 0.20503004E+02 -0.21743E+04
 0.20553005E+02 -0.26163E+04
 0.20603004E+02 -0.10190E+04
 0.20653004E+02 -0.20654E+04
 0.20703005E+02 -0.38967E+04
 0.20753004E+02 -0.95372E+03
 0.20803005E+02 -0.32737E+04
 0.20853004E+02 -0.39183E+04
 0.20903004E+02 -0.19603E+04
 0.20953005E+02 -0.17890E+04
 0.21003004E+02 -0.17905E+04
 0.21053005E+02 -0.13171E+04
 0.21103004E+02 -0.90360E+03
 0.21153004E+02 -0.31814E+04
 0.21203005E+02 -0.34174E+04
 0.21253004E+02 -0.13970E+04
 0.21303005E+02 -0.88430E+03
 0.21353004E+02 -0.14233E+04
 0.21403004E+02 -0.41755E+04
 0.21453005E+02 -0.17464E+04
 0.21503004E+02 -0.84122E+03
 0.21553005E+02 -0.25246E+04
 0.21603004E+02 -0.27225E+04
 0.21653004E+02 -0.26890E+04
 0.21703005E+02 -0.38039E+04
 0.21753004E+02 -0.23302E+04
 0.21803005E+02 -0.26998E+04
 0.21853004E+02 -0.39232E+04
 0.21903004E+02 -0.14180E+04
 0.21953005E+02 -0.96034E+03
 0.22003004E+02 -0.91449E+03
 0.22053005E+02 -0.33765E+04
 0.22103004E+02 -0.34620E+04
 0.22153004E+02 -0.41123E+04
 0.22203005E+02 -0.25786E+04
 0.22253004E+02 -0.50745E+04
 0.22303005E+02 -0.21661E+04
 0.22353004E+02 -0.52418E+03
 0.22403004E+02 -0.12181E+04
 0.22453005E+02 -0.76059E+03
 0.22503004E+02 -0.12695E+04
 0.22553005E+02 -0.17506E+04
 0.22603004E+02 -0.31334E+04
 0.22653004E+02  0.62045E+01
 0.22703005E+02 -0.35870E+04
 0.22753004E+02 -0.74682E+04
 0.22803005E+02 -0.59594E+04
 0.22853004E+02  0.57041E+03
 0.22903004E+02  0.74495E+03
 0.22953005E+02 -0.40951E+04
 0.23003004E+02 -0.14319E+04
 0.23053005E+02 -0.18204E+04
 0.23103004E+02 -0.58449E+03
 0.23153004E+02  0.19810E+04
 0.23203005E+02 -0.56198E+04
 0.23253004E+02 -0.45891E+04
 0.23303005E+02 -0.34583E+04
 0.23353004E+02 -0.35787E+04
 0.23403004E+02 -0.24478E+04
 0.23453005E+02 -0.14227E+04
 0.23503004E+02 -0.13398E+04
 0.23553005E+02 -0.41022E+04
 0.23603004E+02 -0.12821E+04
 0.23653004E+02 -0.14116E+04
 0.23703005E+02 -0.44404E+04
 0.23753004E+02 -0.32903E+04
 0.23803005E+02 -0.88019E+03
 0.23853004E+02 -0.36308E+04
 0.23903004E+02 -0.52619E+04
 0.23953005E+02 -0.23859E+04
 0.24003004E+02  0.21557E+03
 0.24053005E+02 -0.15243E+04
 0.24103004E+02  0.35612E+04
 0.24153004E+02 -0.64240E+03
 0.24203005E+02 -0.45952E+04
 0.24253004E+02 -0.50824E+04
 0.24303005E+02 -0.65057E+04
 0.24353004E+02 -0.38009E+04
 0.24403004E+02 -0.15437E+04
 0.24453005E+02 -0.26612E+03
 0.24503004E+02 -0.45611E+04
 0.24553005E+02  0.19809E+04
 0.24603004E+02  0.25637E+03
 0.24653004E+02 -0.49750E+04
 0.24703005E+02 -0.37006E+04
 0.24753004E+02 -0.36173E+04
 0.24803005E+02 -0.33900E+04
 0.24853004E+02 -0.76153E+03
 0.24903004E+02 -0.17043E+04
 0.24953005E+02 -0.18690E+04
 0.25003004E+02 -0.23888E+04
 0.25053005E+02 -0.31432E+04
 0.25103004E+02 -0.31426E+02
 0.25153004E+02  0.14072E+04
 0.25203005E+02 -0.11359E+04
 0.25253004E+02 -0.42130E+04
 0.25303005E+02 -0.55341E+03
 0.25353004E+02 -0.53562E+04
 0.25403004E+02 -0.78147E+04
 0.25453005E+02 -0.39970E+04
 0.25503004E+02 -0.33578E+04
 0.25553005E+02  0.18959E+04
 0.25603004E+02  0.22971E+03
 0.25653004E+02 -0.36788E+04
 0.25703005E+02  0.25126E+03
 0.25753004E+02  0.19926E+04
 0.25803005E+02 -0.23315E+04
 0.25853004E+02 -0.38652E+04
 0.25903004E+02 -0.49376E+04
 0.25953005E+02 -0.53114E+04
 0.26003004E+02 -0.39082E+04
 0.26053005E+02 -0.26384E+04
 0.26103004E+02  0.72526E+03
 0.26153004E+02 -0.10911E+03
 0.26203005E+02 -0.47006E+02
 0.26253004E+02  0.74275E+03
 0.26303005E+02 -0.65563E+04
 0.26353004E+02 -0.79032E+04
 0.26403004E+02  0.79002E+03
 0.26453005E+02 -0.13834E+04
 0.26503004E+02 -0.13284E+04
 0.26553005E+02 -0.16213E+04
 0.26603004E+02 -0.68862E+04
 0.26653004E+02 -0.28534E+04
 0.26703005E+02 -0.11479E+04
 0.26753004E+02 -0.51649E+03
 0.26803005E+02 -0.48978E+03
 0.26853004E+02 -0.55025E+04
 0.26903004E+02 -0.35774E+04
 0.26953005E+02 -0.24422E+04
 0.27003004E+02 -0.14022E+04
 0.27053003E+02 -0.20762E+04
 0.27103004E+02 -0.38318E+04
 0.27153004E+02 -0.18138E+04
 0.27203005E+02 -0.34467E+04
 0.27253004E+02 -0.16912E+04
 0.27303003E+02 -0.55400E+03
 0.27353004E+02 -0.16618E+04
 0.27403004E+02 -0.26854E+04
 0.27453005E+02 -0.48741E+04
 0.27503004E+02 -0.22368E+04
 0.27553003E+02  0.99148E+03
 0.27603004E+02 -0.22480E+04
 0.27653004E+02 -0.35847E+04
 0.27703005E+02 -0.20795E+04
 0.27753004E+02 -0.26988E+04
 0.27803003E+02 -0.55764E+03
 0.27853004E+02 -0.56448E+04
 0.27903004E+02 -0.25757E+04
 0.27953005E+02  0.20423E+04
 0.28003004E+02 -0.32704E+04
 0.28053003E+02 -0.63635E+03
 0.28103004E+02 -0.12053E+04
 0.28153004E+02 -0.19163E+04
 0.28203005E+02 -0.57471E+04
 0.28253004E+02 -0.48564E+04
 0.28303003E+02 -0.15969E+04
 0.28353004E+02 -0.46250E+04
 0.28403004E+02 -0.30169E+04
 0.28453005E+02  0.47969E+03
 0.28503004E+02 -0.56115E+04
 0.28553003E+02 -0.22323E+04
 0.28603004E+02  0.16241E+04
 0.28653004E+02 -0.29605E+04
 0.28703005E+02 -0.12491E+04
 0.28753004E+02 -0.32149E+04
 0.28803003E+02 -0.10170E+04
 0.28853004E+02 -0.26528E+04
 0.28903004E+02 -0.35102E+04
 0.28953005E+02 -0.27541E+04
 0.29003004E+02 -0.11204E+04
 0.29053003E+02 -0.45332E+03
 0.29103004E+02 -0.22789E+04
 0.29153004E+02 -0.28166E+04
 0.29203005E+02 -0.39895E+04
 0.29253004E+02 -0.47688E+04
 0.29303003E+02 -0.34565E+04
 0.29353004E+02 -0.94096E+03
 0.29403004E+02 -0.26518E+04
 0.29453005E+02 -0.28269E+04
 0.29503004E+02 -0.30830E+04
 0.29553003E+02 -0.14013E+04
 0.29603004E+02 -0.27785E+04
 0.29653004E+02 -0.39985E+04
 0.29703005E+02 -0.24597E+04
 0.29753004E+02 -0.23494E+04
 0.29803003E+02 -0.17721E+04
 0.29853004E+02 -0.38810E+04
 0.29903004E+02 -0.46865E+04
 0.29953005E+02 -0.26084E+04
 0.30003004E+02  0.95067E+03
 0.30053005E+02  0.55045E+03
 0.30103004E+02 -0.24642E+02
 0.30153004E+02 -0.23904E+04
 0.30203003E+02 -0.52102E+04
 0.30253002E+02 -0.31570E+04
 0.30303005E+02 -0.22514E+04
 0.30353004E+02 -0.25421E+04
 0.30403004E+02 -0.35489E+04
 0.30453003E+02 -0.30512E+04
 0.30503002E+02 -0.56955E+03
 0.30553005E+02  0.26555E+04
 0.30603004E+02 -0.16635E+04
 0.30653004E+02 -0.49200E+04
 0.30703003E+02 -0.51356E+04
 0.30753002E+02 -0.50433E+04
 0.30803005E+02  0.22632E+03
 0.30853004E+02  0.10949E+03
 0.30903004E+02 -0.23879E+04
 0.30953003E+02 -0.20973E+04
 0.31003002E+02 -0.35618E+04
 0.31053005E+02 -0.45190E+04
 0.31103004E+02 -0.46252E+04
 0.31153004E+02 -0.15598E+04
 0.31203003E+02  0.23702E+04
 0.31253002E+02 -0.38260E+04
 0.31303005E+02 -0.52612E+04
 0.31353004E+02  0.33613E+03
 0.31403004E+02 -0.81451E+03
 0.31453003E+02 -0.53017E+04
 0.31503002E+02 -0.51230E+04
 0.31553005E+02 -0.24335E+04
 0.31603004E+02 -0.22568E+04
 0.31653004E+02 -0.30009E+04
 0.31703003E+02 -0.77639E+03
 0.31753002E+02  0.17536E+04
 0.31803005E+02 -0.20400E+04
 0.31853004E+02 -0.29410E+04
 0.31903004E+02 -0.26975E+04
 0.31953003E+02 -0.26670E+04
 0.32003002E+02 -0.26102E+04
 0.32053005E+02 -0.20546E+04
 0.32103004E+02 -0.59698E+03
 0.32153004E+02 -0.30753E+04
 0.32203003E+02 -0.17972E+04
 0.32253002E+02 -0.26481E+04
 0.32303005E+02 -0.16516E+04
 0.32353004E+02 -0.36743E+03
 0.32403004E+02 -0.49972E+04
 0.32453003E+02 -0.28897E+04
 0.32503002E+02 -0.20877E+04
 0.32553005E+02 -0.34165E+04
 0.32603004E+02 -0.32650E+04
 0.32653004E+02 -0.55681E+04
 0.32703003E+02 -0.25201E+04
 0.32753002E+02  0.12997E+03
 0.32803005E+02 -0.12418E+04
 0.32853004E+02 -0.31052E+04
 0.32903004E+02 -0.61371E+04
 0.32953003E+02 -0.30002E+04
 0.33003002E+02  0.30571E+03
 0.33053005E+02 -0.60782E+03
 0.33103004E+02 -0.48719E+04
 0.33153004E+02 -0.25499E+04
 0.33203003E+02  0.62394E+03
 0.33253002E+02 -0.39773E+04
 0.33303005E+02 -0.39442E+04
 0.33353004E+02 -0.42781E+04
 0.33403004E+02 -0.23685E+03
 0.33453003E+02 -0.14148E+04
 0.33503002E+02 -0.24054E+04
 0.33553005E+02  0.12642E+04
 0.33603004E+02 -0.15560E+04
 0.33653004E+02 -0.29760E+04
 0.33703003E+02 -0.46690E+04
 0.33753002E+02 -0.38866E+04
 0.33803005E+02 -0.14137E+04
 0.33853004E+02 -0.23716E+04
 0.33903004E+02 -0.27373E+04
 0.33953003E+02  0.25063E+04
 0.34003002E+02 -0.16918E+04
 0.34053005E+02 -0.82042E+04
 0.34103004E+02 -0.12359E+04
 0.34153004E+02 -0.21916E+04
 0.34203003E+02 -0.47523E+04
 0.34253002E+02  0.10901E+04
 0.34303005E+02 -0.28535E+03
 0.34353004E+02 -0.20297E+04
 0.34403004E+02 -0.47238E+04
 0.34453003E+02 -0.46720E+04
 0.34503002E+02 -0.29395E+04
 0.34553005E+02 -0.29340E+04
 0.34603004E+02 -0.85230E+03
 0.34653004E+02 -0.14543E+04
 0.34703003E+02  0.28433E+04
 0.34753002E+02  0.12719E+04
 0.34803005E+02 -0.19325E+04
 0.34853004E+02 -0.45132E+04
 0.34903004E+02 -0.66411E+04
 0.34953003E+02 -0.44208E+04
 0.35003002E+02  0.68539E+03
 0.35053005E+02  0.32753E+04
 0.35103004E+02 -0.73570E+04
 0.35153004E+02 -0.71538E+04
 0.35203003E+02 -0.15464E+04
 0.35253002E+02 -0.35944E+04
 0.35303005E+02 -0.18859E+04
 0.35353004E+02 -0.24433E+04
 0.35403004E+02 -0.43188E+04
 0.35453003E+02  0.37651E+04
 0.35503002E+02  0.39029E+04
 0.35553005E+02 -0.58662E+04
 0.35603004E+02 -0.75772E+04
 0.35653004E+02 -0.54412E+04
 0.35703003E+02 -0.55349E+04
 0.35753002E+02 -0.67959E+03
 0.35803005E+02  0.63142E+04
 0.35853004E+02  0.16343E+04
 0.35903004E+02 -0.31658E+04
 0.35953003E+02 -0.58194E+03
 0.36003002E+02 -0.17569E+04
 0.36053005E+02 -0.42426E+04
 0.36103004E+02 -0.49660E+04
 0.36153004E+02 -0.51990E+04
 0.36203003E+02  0.31162E+04
 0.36253002E+02  0.75919E+04
 0.36303005E+02 -0.57288E+04
 0.36353004E+02 -0.15402E+05
 0.36403004E+02 -0.52643E+04
 0.36453003E+02  0.68312E+04
 0.36503002E+02  0.21695E+04
 0.36553005E+02 -0.68816E+04
 0.36603004E+02  0.98598E+03
 0.36653004E+02  0.48770E+04
 0.36703003E+02 -0.57922E+04
 0.36753002E+02 -0.77153E+04
 0.36803005E+02 -0.20233E+04
 0.36853004E+02 -0.30073E+04
 0.36903004E+02 -0.11019E+04
 0.36953003E+02  0.41306E+04
 0.37003002E+02 -0.31568E+03
 0.37053005E+02 -0.71089E+04
 0.37103004E+02 -0.79893E+04
 0.37153004E+02 -0.40713E+04
 0.37203003E+02 -0.64331E+03
 0.37253002E+02 -0.27386E+04
 0.37303005E+02  0.46854E+03
 0.37353004E+02  0.17384E+04
 0.37403004E+02 -0.37882E+04
 0.37453003E+02 -0.87464E+04
 0.37503002E+02 -0.13308E+05
 0.37553005E+02 -0.89495E+04
 0.37603004E+02  0.50450E+04
 0.37653004E+02  0.10824E+05
 0.37703003E+02  0.87204E+03
 0.37753002E+02 -0.10489E+04
 0.37803005E+02 -0.46897E+04
 0.37853004E+02 -0.52564E+04
 0.37903004E+02 -0.56792E+03
 0.37953003E+02 -0.56795E+04
 0.38003002E+02 -0.18222E+04
 0.38053005E+02 -0.12543E+04
 0.38103004E+02  0.12906E+03
 0.38153004E+02 -0.40217E+04
 0.38203003E+02 -0.12000E+05
 0.38253002E+02 -0.51738E+04
 0.38303005E+02  0.12786E+04
 0.38353004E+02  0.22322E+04
 0.38403004E+02 -0.40542E+04
 0.38453003E+02 -0.13139E+04
 0.38503002E+02  0.19972E+04
 0.38553005E+02 -0.51532E+04
 0.38603004E+02 -0.83140E+04
 0.38653004E+02 -0.54824E+04
 0.38703003E+02  0.16622E+04
 0.38753002E+02  0.32494E+04
 0.38803005E+02 -0.40454E+04
 0.38853004E+02 -0.78766E+04
 0.38903004E+02 -0.65646E+04
 0.38953003E+02 -0.54143E+04
 0.39003002E+02 -0.22670E+04
 0.39053005E+02 -0.42030E+04
 0.39103004E+02 -0.14471E+04
 0.39153004E+02  0.44849E+04
 0.39203003E+02  0.24784E+04
 0.39253002E+02 -0.65806E+03
 0.39303005E+02 -0.17253E+04
 0.39353004E+02 -0.64232E+04
 0.39403004E+02 -0.88599E+04
 0.39453003E+02 -0.24377E+04
 0.39503002E+02 -0.50403E+04
 0.39553005E+02 -0.70427E+04
 0.39603004E+02  0.77833E+03
 0.39653004E+02  0.29716E+04
 0.39703003E+02 -0.13774E+04
 0.39753002E+02 -0.22131E+04
 0.39803005E+02 -0.75408E+04
 0.39853004E+02 -0.52557E+04
 0.39903004E+02  0.20596E+04
 0.39953003E+02 -0.85195E+03
 0.40003002E+02 -0.31484E+04
 0.40053005E+02 -0.14950E+04
 0.40103004E+02  0.25318E+03
 0.40153004E+02 -0.23760E+04
 0.40203003E+02 -0.22047E+04
 0.40253002E+02 -0.13945E+04
 0.40303005E+02 -0.28900E+04
 0.40353004E+02 -0.41676E+04
 0.40403004E+02 -0.12344E+04
 0.40453003E+02  0.47388E+03
 0.40503002E+02 -0.49590E+04
 0.40553005E+02 -0.91000E+04
 0.40603004E+02 -0.63508E+04
 0.40653004E+02  0.44992E+04
 0.40703003E+02  0.57556E+04
 0.40753002E+02 -0.40509E+04
 0.40803005E+02 -0.56971E+04
 0.40853004E+02 -0.46840E+04
 0.40903004E+02 -0.27236E+04
 0.40953003E+02  0.31509E+04
 0.41003002E+02  0.16788E+04
 0.41053005E+02 -0.20166E+04
 0.41103004E+02  0.83769E+03
 0.41153004E+02 -0.28126E+04
 0.41203003E+02 -0.57701E+04
 0.41253002E+02 -0.54416E+04
 0.41303005E+02 -0.71433E+04
 0.41353004E+02 -0.19045E+04
 0.41403004E+02  0.16553E+04
 0.41453003E+02  0.26341E+04
 0.41503002E+02  0.63715E+04
 0.41553005E+02 -0.65643E+03
 0.41603004E+02 -0.47787E+04
 0.41653004E+02 -0.50997E+04
 0.41703003E+02 -0.11898E+05
 0.41753002E+02 -0.85998E+04
 0.41803005E+02 -0.60347E+04
 0.41853004E+02 -0.22236E+04
 0.41903004E+02  0.25525E+04
 0.41953003E+02 -0.31166E+04
 0.42003002E+02 -0.69514E+04
 0.42053005E+02 -0.67164E+03
 0.42103004E+02 -0.16473E+04
 0.42153004E+02 -0.35136E+04
 0.42203003E+02  0.23183E+04
 0.42253002E+02 -0.17660E+04
 0.42303005E+02 -0.44593E+04
 0.42353004E+02 -0.22141E+04
 0.42403004E+02 -0.55455E+04
 0.42453003E+02 -0.55359E+04
 0.42503002E+02  0.11992E+04
 0.42553005E+02  0.26578E+03
 0.42603004E+02 -0.27706E+04
 0.42653004E+02 -0.13521E+04
 0.42703003E+02 -0.15153E+04
 0.42753002E+02 -0.15046E+04
 0.42803001E+02 -0.29279E+04
 0.42853004E+02 -0.37101E+04
 0.42903004E+02 -0.10068E+04
 0.42953003E+02  0.20808E+04
 0.43003002E+02  0.20616E+04
 0.43053001E+02  0.86495E+03
 0.43103004E+02 -0.25792E+04
 0.43153004E+02 -0.55280E+04
 0.43203003E+02 -0.22544E+04
 0.43253002E+02 -0.86788E+03
 0.43303001E+02 -0.20073E+04
 0.43353004E+02 -0.69824E+03
 0.43403004E+02  0.17144E+04
 0.43453003E+02 -0.77502E+02
 0.43503002E+02 -0.37605E+04
 0.43553001E+02 -0.56023E+04
 0.43603004E+02 -0.64200E+04
 0.43653004E+02 -0.50025E+04
 0.43703003E+02  0.12597E+04
 0.43753002E+02  0.36236E+04
 0.43803001E+02 -0.22432E+04
 0.43853004E+02 -0.61629E+04
 0.43903004E+02 -0.87234E+04
 0.43953003E+02 -0.50811E+04
 0.44003002E+02  0.27080E+03
 0.44053001E+02  0.13668E+04
 0.44103004E+02  0.20631E+04
 0.44153004E+02 -0.57112E+03
 0.44203003E+02 -0.55140E+04
 0.44253002E+02 -0.28546E+04
 0.44303001E+02 -0.11235E+04
 0.44353004E+02 -0.31974E+04
 0.44403004E+02 -0.25529E+04
 0.44453003E+02 -0.25594E+04
 0.44503002E+02 -0.40263E+04
 0.44553001E+02 -0.75100E+04
 0.44603004E+02 -0.32581E+04
 0.44653004E+02 -0.29653E+04
 0.44703003E+02 -0.45351E+04
 0.44753002E+02 -0.24741E+04
 0.44803001E+02 -0.52680E+04
 0.44853004E+02 -0.39512E+04
 0.44903004E+02 -0.14196E+04
 0.44953003E+02 -0.34082E+04
 0.45003002E+02 -0.52627E+04
 0.45053001E+02 -0.18072E+04
 0.45103004E+02 -0.36539E+03
 0.45153004E+02 -0.23228E+04
 0.45203003E+02 -0.24043E+04
 0.45253002E+02 -0.34908E+04
 0.45303001E+02 -0.28040E+04
 0.45353004E+02 -0.27324E+04
 0.45403004E+02 -0.23510E+04
 0.45453003E+02 -0.21196E+04
 0.45503002E+02  0.71514E+03
 0.45553001E+02  0.48216E+03
 0.45603004E+02 -0.27761E+04
 0.45653004E+02 -0.21796E+04
 0.45703003E+02 -0.57558E+04
 0.45753002E+02 -0.27228E+04
 0.45803001E+02  0.27813E+03
 0.45853004E+02 -0.23128E+04
 0.45903004E+02 -0.24036E+04
 0.45953003E+02 -0.10650E+04
 0.46003002E+02 -0.22416E+04
 0.46053001E+02 -0.23739E+04
 0.46103004E+02  0.11062E+04
 0.46153004E+02  0.21900E+04
 0.46203003E+02  0.20829E+03
 0.46253002E+02 -0.20471E+04
 0.46303001E+02 -0.18027E+04
 0.46353004E+02 -0.23335E+04
 0.46403004E+02 -0.30340E+04
 0.46453003E+02 -0.15430E+04
 0.46503002E+02  0.24744E+04
 0.46553001E+02  0.27992E+04
 0.46603004E+02 -0.19925E+04
 0.46653004E+02 -0.49032E+04
 0.46703003E+02 -0.39613E+04
 0.46753002E+02 -0.43376E+04
 0.46803001E+02 -0.57396E+04
 0.46853004E+02 -0.33606E+04
 0.46903004E+02 -0.14899E+04
 0.46953003E+02 -0.16888E+04
 0.47003002E+02 -0.30300E+04
 0.47053001E+02 -0.21517E+04
 0.47103004E+02 -0.69633E+03
 0.47153004E+02 -0.16178E+04
 0.47203003E+02 -0.43770E+04
 0.47253002E+02 -0.44819E+04
 0.47303001E+02 -0.18052E+04
 0.47353004E+02 -0.40837E+04
 0.47403004E+02 -0.47137E+04
 0.47453003E+02 -0.38401E+04
 0.47503002E+02 -0.36235E+04
 0.47553001E+02 -0.65634E+03
 0.47603004E+02  0.23705E+03
 0.47653004E+02  0.97080E+02
 0.47703003E+02 -0.41388E+04
 0.47753002E+02 -0.73140E+04
 0.47803001E+02 -0.18574E+04
 0.47853004E+02 -0.27359E+02
 0.47903004E+02 -0.29923E+04
 0.47953003E+02 -0.27755E+04
 0.48003002E+02 -0.24107E+04
 0.48053001E+02 -0.38489E+04
 0.48103004E+02 -0.28514E+04
 0.48153004E+02 -0.26045E+04
 0.48203003E+02 -0.87645E+03
 0.48253002E+02 -0.29009E+03
 0.48303001E+02 -0.30354E+04
 0.48353004E+02 -0.30159E+04
 0.48403004E+02 -0.31403E+04
 0.48453003E+02 -0.14005E+04
 0.48503002E+02 -0.24661E+04
 0.48553001E+02 -0.20695E+04
 0.48603004E+02  0.65798E+03
 0.48653004E+02 -0.83540E+03
 0.48703003E+02  0.54636E+03
 0.48753002E+02 -0.45215E+03
 0.48803001E+02 -0.27438E+04
 0.48853004E+02 -0.37947E+04
 0.48903004E+02 -0.45741E+04
 0.48953003E+02 -0.32954E+04
 0.49003002E+02 -0.30983E+04
 0.49053001E+02 -0.19529E+04
 0.49103004E+02 -0.97711E+02
 0.49153004E+02 -0.24481E+04
 0.49203003E+02 -0.35265E+04
 0.49253002E+02 -0.61062E+03
 0.49303001E+02 -0.16693E+04
 0.49353004E+02 -0.35027E+04
 0.49403004E+02 -0.48929E+04
 0.49453003E+02 -0.51698E+04
 0.49503002E+02 -0.26995E+04
 0.49553001E+02 -0.29947E+04
 0.49603004E+02 -0.39159E+04
 0.49653004E+02 -0.28132E+04
 0.49703003E+02 -0.28768E+04
 0.49753002E+02 -0.36284E+04
 0.49803001E+02 -0.50795E+04
 0.49853004E+02 -0.25847E+04
 0.49903004E+02  0.63244E+03
 0.49953003E+02 -0.17411E+04
 0.50003002E+02 -0.53182E+04
 0.50053001E+02 -0.45666E+04
 0.50103004E+02 -0.38022E+04
 0.50153004E+02 -0.42519E+04
 0.50203003E+02 -0.44834E+04
 0.50253002E+02 -0.56188E+04
 0.50303001E+02 -0.30517E+04
 0.50353004E+02 -0.13562E+04
 0.50403004E+02 -0.76505E+03
 0.50453003E+02 -0.14375E+04
 0.50503002E+02 -0.17230E+04
 0.50553001E+02 -0.20707E+04
 0.50603004E+02 -0.15026E+04
 0.50653004E+02  0.29274E+03
 0.50703003E+02 -0.75492E+03
 0.50753002E+02 -0.98254E+03
 0.50803001E+02  0.86153E+03
 0.50853004E+02  0.96235E+03
 0.50903004E+02 -0.14574E+04
 0.50953003E+02 -0.25489E+04
 0.51003002E+02 -0.33281E+04
 0.51053001E+02 -0.34555E+04
 0.51103004E+02 -0.39161E+04
 0.51153004E+02 -0.33473E+04
 0.51203003E+02 -0.27227E+04
 0.51253002E+02 -0.28867E+04
 0.51303001E+02 -0.25938E+04
 0.51353004E+02 -0.18544E+04
 0.51403004E+02 -0.62738E+03
 0.51453003E+02 -0.18371E+04
 0.51503002E+02 -0.25412E+04
 0.51553001E+02 -0.17726E+04
 0.51603004E+02 -0.11615E+04
 0.51653004E+02 -0.25366E+04
 0.51703003E+02 -0.34434E+04
 0.51753002E+02 -0.21424E+04
 0.51803001E+02 -0.29409E+04
 0.51853004E+02 -0.24277E+04
 0.51903004E+02 -0.17628E+04
 0.51953003E+02 -0.26438E+04
 0.52003002E+02 -0.33176E+04
 0.52053001E+02 -0.36949E+04
 0.52103004E+02 -0.41282E+04
 0.52153004E+02 -0.43286E+04
 0.52203003E+02 -0.24909E+04
 0.52253002E+02 -0.16412E+04
 0.52303001E+02 -0.12272E+04
 0.52353004E+02 -0.19861E+04
 0.52403004E+02 -0.30977E+04
 0.52453003E+02 -0.29365E+04
 0.52503002E+02 -0.23178E+04
 0.52553001E+02 -0.28918E+04
 0.52603004E+02 -0.42244E+04
 0.52653004E+02 -0.38382E+04
 0.52703003E+02 -0.35098E+04
 0.52753002E+02 -0.22962E+04
 0.52803001E+02 -0.80426E+03
 0.52853004E+02 -0.23953E+04
 0.52903004E+02 -0.23773E+04
 0.52953003E+02 -0.10792E+04
 0.53003002E+02 -0.33534E+03
 0.53053001E+02  0.58925E+02
 0.53103004E+02 -0.11058E+04
 0.53153004E+02 -0.47194E+03
 0.53203003E+02 -0.49505E+03
 0.53253002E+02 -0.16631E+04
 0.53303001E+02 -0.87368E+03
 0.53353004E+02 -0.90883E+03
 0.53403004E+02 -0.21217E+04
 0.53453003E+02 -0.96977E+03
 0.53503002E+02 -0.36180E+02
 0.53553001E+02 -0.51582E+03
 0.53603004E+02 -0.92997E+03
 0.53653004E+02 -0.11982E+04
 0.53703003E+02 -0.27206E+04
 0.53753002E+02 -0.36677E+04
 0.53803001E+02 -0.35262E+04
 0.53853004E+02 -0.31919E+04
 0.53903004E+02 -0.31539E+04
 0.53953003E+02 -0.31006E+04
 0.54003002E+02 -0.28456E+04
 0.54053001E+02 -0.38069E+04
 0.54103004E+02 -0.43388E+04
 0.54153004E+02 -0.44098E+04
 0.54203003E+02 -0.33467E+04
 0.54253002E+02 -0.23141E+04
 0.54303001E+02 -0.30563E+04
 0.54353004E+02 -0.32286E+04
 0.54403004E+02 -0.19949E+04
 0.54453003E+02 -0.23772E+04
 0.54503002E+02 -0.28197E+04
 0.54553001E+02 -0.24143E+04
 0.54603004E+02 -0.20303E+04
 0.54653004E+02 -0.19426E+04
 0.54703003E+02 -0.30169E+04
 0.54753002E+02 -0.30201E+04
 0.54803001E+02 -0.30125E+04
 0.54853004E+02 -0.26616E+04
 0.54903004E+02 -0.16603E+04
 0.54953003E+02 -0.12512E+04
 0.55003002E+02 -0.17287E+04
 0.55053001E+02 -0.38937E+04
 0.55103004E+02 -0.39042E+04
 0.55153004E+02 -0.35765E+04
 0.55203003E+02 -0.42861E+04
 0.55253002E+02 -0.36805E+04
 0.55303001E+02 -0.26830E+04
 0.55353004E+02 -0.17775E+04
 0.55403004E+02 -0.11913E+04
 0.55453003E+02 -0.94468E+03
 0.55503002E+02 -0.85204E+03
 0.55553001E+02 -0.46989E+03
 0.55603004E+02 -0.35353E+03
 0.55653004E+02 -0.99454E+03
 0.55703003E+02 -0.60405E+03
 0.55753002E+02 -0.83323E+03
 0.55803001E+02 -0.23151E+04
 0.55853001E+02 -0.21540E+04
 0.55903004E+02 -0.19565E+04
 0.55953003E+02 -0.24319E+04
 0.56003002E+02 -0.29450E+04
 0.56053001E+02 -0.31835E+04
 0.56103001E+02 -0.24316E+04
 0.56153004E+02 -0.19982E+04
 0.56203003E+02 -0.17148E+04
 0.56253002E+02 -0.31592E+04
 0.56303001E+02 -0.35903E+04
 0.56353001E+02 -0.15621E+04
 0.56403004E+02 -0.17373E+04
 0.56453003E+02 -0.25010E+04
 0.56503002E+02 -0.15230E+04
 0.56553001E+02 -0.61811E+03
 0.56603001E+02 -0.12597E+04
 0.56653004E+02 -0.22857E+04
 0.56703003E+02 -0.22948E+04
 0.56753002E+02 -0.30354E+04
 0.56803001E+02 -0.37773E+04
 0.56853001E+02 -0.30778E+04
 0.56903004E+02 -0.19561E+04
 0.56953003E+02 -0.44879E+03
 0.57003002E+02 -0.12962E+04
 0.57053001E+02 -0.19422E+04
 0.57103001E+02 -0.24909E+04
 0.57153004E+02 -0.36367E+04
 0.57203003E+02 -0.36602E+04
 0.57253002E+02 -0.27429E+04
 0.57303001E+02 -0.21159E+04
 0.57353001E+02 -0.25149E+04
 0.57403004E+02 -0.24496E+04
 0.57453003E+02 -0.32423E+04
 0.57503002E+02 -0.41661E+04
 0.57553001E+02 -0.36968E+04
 0.57603001E+02 -0.37298E+04
 0.57653004E+02 -0.47179E+04
 0.57703003E+02 -0.31470E+04
 0.57753002E+02 -0.16946E+04
 0.57803001E+02 -0.24716E+04
 0.57853001E+02 -0.30142E+04
 0.57903004E+02 -0.42213E+04
 0.57953003E+02 -0.48460E+04
 0.58003002E+02 -0.45673E+04
 0.58053001E+02 -0.40931E+04
 0.58103001E+02 -0.29180E+04
 0.58153004E+02 -0.29575E+04
 0.58203003E+02 -0.41576E+04
 0.58253002E+02 -0.35854E+04
 0.58303001E+02 -0.23704E+04
 0.58353001E+02 -0.24013E+04
 0.58403004E+02 -0.18708E+04
 0.58453003E+02 -0.77690E+03
 0.58503002E+02 -0.20364E+03
 0.58553001E+02 -0.15249E+03
 0.58603001E+02 -0.22531E+02
 0.58653004E+02  0.36319E+03
 0.58703003E+02 -0.16609E+03
 0.58753002E+02 -0.11024E+04
 0.58803001E+02 -0.57163E+03
 0.58853001E+02 -0.50815E+03
 0.58903004E+02 -0.12775E+04
 0.58953003E+02 -0.13741E+04
 0.59003002E+02 -0.20998E+04
 0.59053001E+02 -0.24416E+04
 0.59103001E+02 -0.25157E+04
 0.59153004E+02 -0.30183E+04
 0.59203003E+02 -0.25787E+04
 0.59253002E+02 -0.23961E+04
 0.59303001E+02 -0.25996E+04
 0.59353001E+02 -0.22220E+04
 0.59403004E+02 -0.20672E+04
 0.59453003E+02 -0.27725E+04
 0.59503002E+02 -0.28941E+04
 0.59553001E+02 -0.22606E+04
 0.59603001E+02 -0.17898E+04
 0.59653004E+02 -0.12727E+04
 0.59703003E+02 -0.16263E+04
 0.59753002E+02 -0.13680E+04
 0.59803001E+02 -0.14823E+04
 0.59853001E+02 -0.18781E+04
 0.59903004E+02 -0.13545E+04
 0.59953003E+02 -0.18343E+04
 0.60003002E+02 -0.17028E+04
 0.60053001E+02 -0.87904E+03
 0.60103001E+02 -0.14542E+04
 0.60153004E+02 -0.28473E+04
 0.60203003E+02 -0.33505E+04
 0.60253002E+02 -0.27970E+04
 0.60303001E+02 -0.25857E+04
 0.60353001E+02 -0.32291E+04
 0.60403004E+02 -0.34403E+04
 0.60453003E+02 -0.47878E+04
 0.60503002E+02 -0.55960E+04
 0.60553001E+02 -0.42982E+04
 0.60603001E+02 -0.44289E+04
 0.60653004E+02 -0.40211E+04
 0.60703003E+02 -0.15638E+04
 0.60753002E+02 -0.95026E+03
 0.60803001E+02 -0.15650E+04
 0.60853001E+02 -0.98115E+03
 0.60903004E+02 -0.15704E+04
 0.60953003E+02 -0.25477E+04
 0.61003002E+02 -0.32516E+04
 0.61053001E+02 -0.36456E+04
 0.61103001E+02 -0.36669E+04
 0.61153004E+02 -0.43896E+04
 0.61203003E+02 -0.41366E+04
 0.61253002E+02 -0.34496E+04
 0.61303001E+02 -0.33236E+04
 0.61353001E+02 -0.32919E+04
 0.61403004E+02 -0.28552E+04
 0.61453003E+02 -0.24846E+04
 0.61503002E+02 -0.18525E+04
 0.61553001E+02 -0.14492E+04
 0.61603001E+02 -0.16580E+04
 0.61653004E+02 -0.18534E+04
 0.61703003E+02 -0.20269E+04
 0.61753002E+02 -0.20030E+04
 0.61803001E+02 -0.20581E+04
 0.61853001E+02 -0.16682E+04
 0.61903004E+02 -0.19770E+04
 0.61953003E+02 -0.19147E+04
 0.62003002E+02 -0.19238E+04
 0.62053001E+02 -0.23582E+04
 0.62103004E+02 -0.21649E+04
 0.62153000E+02 -0.27901E+04
 0.62203003E+02 -0.27700E+04
 0.62252998E+02 -0.17992E+04
 0.62303001E+02 -0.20935E+04
 0.62353004E+02 -0.19522E+04
 0.62403000E+02 -0.76827E+03
 0.62453003E+02 -0.13378E+04
 0.62502998E+02 -0.17041E+04
 0.62553001E+02 -0.18590E+04
 0.62603004E+02 -0.24289E+04
 0.62653000E+02 -0.28482E+04
 0.62703003E+02 -0.31785E+04
 0.62752998E+02 -0.26334E+04
 0.62803001E+02 -0.25260E+04
 0.62853004E+02 -0.16916E+04
 0.62903000E+02 -0.10415E+04
 0.62953003E+02 -0.14764E+04
 0.63002998E+02 -0.15166E+04
 0.63053001E+02 -0.16045E+04
 0.63103004E+02 -0.21639E+04
 0.63153000E+02 -0.32904E+04
 0.63203003E+02 -0.28905E+04
 0.63252998E+02 -0.23402E+04
 0.63303001E+02 -0.27836E+04
 0.63353004E+02 -0.24592E+04
 0.63403000E+02 -0.27122E+04
 0.63453003E+02 -0.25258E+04
 0.63502998E+02 -0.23248E+04
 0.63553001E+02 -0.34058E+04
 0.63603004E+02 -0.27708E+04
 0.63653000E+02 -0.23666E+04
 0.63703003E+02 -0.30540E+04
 0.63752998E+02 -0.29723E+04
 0.63803001E+02 -0.34045E+04
 0.63853004E+02 -0.31451E+04
 0.63903000E+02 -0.29861E+04
 0.63953003E+02 -0.27326E+04
 0.64002998E+02 -0.21533E+04
 0.64053001E+02 -0.20918E+04
 0.64103004E+02 -0.17274E+04
 0.64153000E+02 -0.18320E+04
 0.64203003E+02 -0.19714E+04
 0.64252998E+02 -0.29053E+04
 0.64303001E+02 -0.33693E+04
 0.64353004E+02 -0.32470E+04
 0.64403000E+02 -0.34227E+04
 0.64453003E+02 -0.30012E+04
 0.64502998E+02 -0.21504E+04
 0.64553001E+02 -0.12942E+04
 0.64603004E+02 -0.11588E+04
 0.64653000E+02 -0.76782E+03
 0.64703003E+02 -0.68325E+02
 0.64752998E+02 -0.67414E+03
 0.64803001E+02 -0.20820E+04
 0.64853004E+02 -0.29267E+04
 0.64903000E+02 -0.27354E+04
 0.64953003E+02 -0.21172E+04
 0.65002998E+02 -0.16951E+04
 0.65053001E+02 -0.15783E+04
 0.65103004E+02 -0.17595E+04
 0.65153000E+02 -0.13567E+04
 0.65203003E+02 -0.69810E+03
 0.65252998E+02 -0.43234E+03
 0.65303001E+02 -0.12028E+04
 0.65353004E+02 -0.18288E+04
 0.65403000E+02 -0.19553E+04
 0.65453003E+02 -0.18096E+04
 0.65502998E+02 -0.19913E+04
 0.65553001E+02 -0.20226E+04
 0.65603004E+02 -0.22035E+04
 0.65653000E+02 -0.32249E+04
 0.65703003E+02 -0.35712E+04
 0.65752998E+02 -0.37035E+04
 0.65803001E+02 -0.32459E+04
 0.65853004E+02 -0.26706E+04
 0.65903000E+02 -0.25385E+04
 0.65953003E+02 -0.27576E+04
 0.66002998E+02 -0.33082E+04
 0.66053001E+02 -0.35479E+04
 0.66103004E+02 -0.31947E+04
 0.66153000E+02 -0.30122E+04
 0.66203003E+02 -0.30383E+04
 0.66252998E+02 -0.30981E+04
 0.66303001E+02 -0.31070E+04
 0.66353004E+02 -0.31803E+04
 0.66403000E+02 -0.36017E+04
 0.66453003E+02 -0.33825E+04
 0.66502998E+02 -0.29355E+04
 0.66553001E+02 -0.25879E+04
 0.66603004E+02 -0.19750E+04
 0.66653000E+02 -0.20050E+04
 0.66703003E+02 -0.22367E+04
 0.66752998E+02 -0.21436E+04
 0.66803001E+02 -0.22297E+04
 0.66853004E+02 -0.25233E+04
 0.66903000E+02 -0.23017E+04
 0.66953003E+02 -0.17698E+04
 0.67002998E+02 -0.20612E+04
 0.67053001E+02 -0.25212E+04
 0.67103004E+02 -0.27358E+04
 0.67153000E+02 -0.28407E+04
 0.67203003E+02 -0.26958E+04
 0.67252998E+02 -0.28837E+04
 0.67303001E+02 -0.26498E+04
 0.67353004E+02 -0.18489E+04
 0.67403000E+02 -0.13673E+04
 0.67453003E+02 -0.18766E+04
 0.67502998E+02 -0.16039E+04
 0.67553001E+02 -0.12451E+04
 0.67603004E+02 -0.17985E+04
 0.67653000E+02 -0.18359E+04
 0.67703003E+02 -0.24377E+04
 0.67752998E+02 -0.25613E+04
 0.67803001E+02 -0.24147E+04
 0.67853004E+02 -0.25399E+04
 0.67903000E+02 -0.26069E+04
 0.67953003E+02 -0.19793E+04
 0.68002998E+02 -0.12725E+04
 0.68053001E+02 -0.12897E+04
 0.68103004E+02 -0.15319E+04
 0.68153000E+02 -0.17439E+04
 0.68203003E+02 -0.20314E+04
 0.68252998E+02 -0.25099E+04
 0.68303001E+02 -0.21337E+04
 0.68353004E+02 -0.19531E+04
 0.68403000E+02 -0.21242E+04
 0.68453003E+02 -0.22518E+04
 0.68502998E+02 -0.25613E+04
 0.68553001E+02 -0.24141E+04
 0.68603004E+02 -0.25579E+04
 0.68653000E+02 -0.30067E+04
 0.68703003E+02 -0.30392E+04
 0.68752998E+02 -0.28833E+04
 0.68803001E+02 -0.25910E+04
 0.68853004E+02 -0.24485E+04
 0.68903000E+02 -0.22731E+04
 0.68953003E+02 -0.22629E+04
 0.69002998E+02 -0.27099E+04
 0.69053001E+02 -0.23801E+04
 0.69103004E+02 -0.21576E+04
 0.69153000E+02 -0.24928E+04
 0.69203003E+02 -0.25817E+04
 0.69252998E+02 -0.27938E+04
 0.69303001E+02 -0.27041E+04
 0.69353004E+02 -0.28058E+04
 0.69403000E+02 -0.28651E+04
 0.69453003E+02 -0.26727E+04
 0.69502998E+02 -0.27692E+04
 0.69553001E+02 -0.23571E+04
 0.69603004E+02 -0.22518E+04
 0.69653000E+02 -0.22044E+04
 0.69703003E+02 -0.19365E+04
 0.69752998E+02 -0.19906E+04
 0.69803001E+02 -0.20489E+04
 0.69853004E+02 -0.22159E+04
 0.69903000E+02 -0.21316E+04
 0.69953003E+02 -0.19476E+04
 0.70002998E+02 -0.15748E+04
 0.70053001E+02 -0.17797E+04
 0.70103004E+02 -0.21487E+04
 0.70153000E+02 -0.24478E+04
 0.70203003E+02 -0.28350E+04
 0.70252998E+02 -0.27404E+04
 0.70303001E+02 -0.27745E+04
 0.70353004E+02 -0.31423E+04
 0.70403000E+02 -0.32363E+04
 0.70453003E+02 -0.30494E+04
 0.70502998E+02 -0.27547E+04
 0.70553001E+02 -0.25132E+04
 0.70603004E+02 -0.26274E+04
 0.70653000E+02 -0.29586E+04
 0.70703003E+02 -0.32024E+04
 0.70752998E+02 -0.31038E+04
 0.70803001E+02 -0.30026E+04
 0.70853004E+02 -0.29757E+04
 0.70903000E+02 -0.29459E+04
 0.70953003E+02 -0.27425E+04
 0.71002998E+02 -0.25884E+04
 0.71053001E+02 -0.22614E+04
 0.71103004E+02 -0.21781E+04
 0.71153000E+02 -0.23837E+04
 0.71203003E+02 -0.24856E+04
 0.71252998E+02 -0.23816E+04
 0.71303001E+02 -0.22765E+04
 0.71353004E+02 -0.21269E+04
 0.71403000E+02 -0.16303E+04
 0.71453003E+02 -0.19804E+04
 0.71502998E+02 -0.21390E+04
 0.71553001E+02 -0.18838E+04
 0.71603004E+02 -0.17443E+04
 0.71653000E+02 -0.13916E+04
 0.71703003E+02 -0.14572E+04
 0.71752998E+02 -0.15129E+04
 0.71803001E+02 -0.15185E+04
 0.71853004E+02 -0.12445E+04
 0.71903000E+02 -0.12143E+04
 0.71953003E+02 -0.16445E+04
 0.72002998E+02 -0.17213E+04
 0.72053001E+02 -0.19096E+04
 0.72103004E+02 -0.19975E+04
 0.72153000E+02 -0.18889E+04
 0.72203003E+02 -0.20264E+04
 0.72252998E+02 -0.22756E+04
 0.72303001E+02 -0.21436E+04
 0.72353004E+02 -0.20342E+04
 0.72403000E+02 -0.18581E+04
 0.72453003E+02 -0.16732E+04
 0.72502998E+02 -0.16993E+04
 0.72553001E+02 -0.14693E+04
 0.72603004E+02 -0.13508E+04
 0.72653000E+02 -0.19490E+04
 0.72703003E+02 -0.26257E+04
 0.72752998E+02 -0.26745E+04
 0.72803001E+02 -0.30382E+04
 0.72853004E+02 -0.34034E+04
 0.72903000E+02 -0.34703E+04
 0.72953003E+02 -0.34588E+04
 0.73002998E+02 -0.34296E+04
 0.73053001E+02 -0.32381E+04
 0.73103004E+02 -0.25587E+04
 0.73153000E+02 -0.22635E+04
 0.73203003E+02 -0.24532E+04
 0.73252998E+02 -0.24339E+04
 0.73303001E+02 -0.24849E+04
 0.73353004E+02 -0.26877E+04
 0.73403000E+02 -0.28396E+04
 0.73453003E+02 -0.27169E+04
 0.73502998E+02 -0.23896E+04
 0.73553001E+02 -0.26604E+04
 0.73603004E+02 -0.30317E+04
 0.73653000E+02 -0.28634E+04
 0.73703003E+02 -0.26673E+04
 0.73752998E+02 -0.26961E+04
 0.73803001E+02 -0.30550E+04
 0.73853004E+02 -0.27939E+04
 0.73903000E+02 -0.22862E+04
 0.73953003E+02 -0.22408E+04
 0.74002998E+02 -0.21686E+04
 0.74053001E+02 -0.23815E+04
 0.74103004E+02 -0.24838E+04
 0.74153000E+02 -0.24119E+04
 0.74203003E+02 -0.24019E+04
 0.74252998E+02 -0.22811E+04
 0.74303001E+02 -0.24100E+04
 0.74353004E+02 -0.26885E+04
 0.74403000E+02 -0.25732E+04
 0.74453003E+02 -0.26350E+04
 0.74502998E+02 -0.24987E+04
 0.74553001E+02 -0.22128E+04
 0.74603004E+02 -0.20950E+04
 0.74653000E+02 -0.17555E+04
 0.74703003E+02 -0.16029E+04
 0.74752998E+02 -0.16045E+04
 0.74803001E+02 -0.12222E+04
 0.74853004E+02 -0.11819E+04
 0.74903000E+02 -0.16851E+04
 0.74953003E+02 -0.21903E+04
 0.75002998E+02 -0.29719E+04
 0.75053001E+02 -0.30812E+04
 0.75103004E+02 -0.29439E+04
 0.75153000E+02 -0.29926E+04
 0.75203003E+02 -0.27921E+04
 0.75252998E+02 -0.28482E+04
 0.75303001E+02 -0.28904E+04
 0.75353004E+02 -0.27958E+04
 0.75403000E+02 -0.26807E+04
 0.75453003E+02 -0.24301E+04
 0.75502998E+02 -0.22659E+04
 0.75553001E+02 -0.22421E+04
 0.75603004E+02 -0.22213E+04
 0.75653000E+02 -0.20919E+04
 0.75703003E+02 -0.21995E+04
 0.75752998E+02 -0.25239E+04
 0.75803001E+02 -0.23717E+04
 0.75853004E+02 -0.21706E+04
 0.75903000E+02 -0.20393E+04
 0.75953003E+02 -0.20650E+04
 0.76002998E+02 -0.24616E+04
 0.76053001E+02 -0.26173E+04
 0.76103004E+02 -0.25144E+04
 0.76153000E+02 -0.22240E+04
 0.76203003E+02 -0.20111E+04
 0.76252998E+02 -0.17782E+04
 0.76303001E+02 -0.14479E+04
 0.76353004E+02 -0.15029E+04
 0.76403000E+02 -0.19429E+04
 0.76453003E+02 -0.18809E+04
 0.76502998E+02 -0.15457E+04
 0.76553001E+02 -0.15476E+04
 0.76603004E+02 -0.16244E+04
 0.76653000E+02 -0.18389E+04
 0.76703003E+02 -0.19797E+04
 0.76752998E+02 -0.20059E+04
 0.76803001E+02 -0.22949E+04
 0.76853004E+02 -0.27789E+04
 0.76903000E+02 -0.30349E+04
 0.76953003E+02 -0.33902E+04
 0.77002998E+02 -0.32289E+04
 0.77053001E+02 -0.29728E+04
 0.77103004E+02 -0.32626E+04
 0.77153000E+02 -0.33130E+04
 0.77203003E+02 -0.33954E+04
 0.77252998E+02 -0.35622E+04
 0.77303001E+02 -0.33501E+04
 0.77353004E+02 -0.28623E+04
 0.77403000E+02 -0.26807E+04
 0.77453003E+02 -0.25868E+04
 0.77502998E+02 -0.19801E+04
 0.77553001E+02 -0.16137E+04
 0.77603004E+02 -0.17768E+04
 0.77653000E+02 -0.17691E+04
 0.77703003E+02 -0.18686E+04
 0.77752998E+02 -0.19009E+04
 0.77803001E+02 -0.18633E+04
 0.77853004E+02 -0.19391E+04
 0.77903000E+02 -0.18003E+04
 0.77953003E+02 -0.18126E+04
 0.78002998E+02 -0.18766E+04
 0.78053001E+02 -0.17950E+04
 0.78103004E+02 -0.19358E+04
 0.78153000E+02 -0.23053E+04
 0.78203003E+02 -0.26765E+04
 0.78252998E+02 -0.28977E+04
 0.78303001E+02 -0.30884E+04
 0.78353004E+02 -0.31539E+04
 0.78403000E+02 -0.31856E+04
 0.78453003E+02 -0.27965E+04
 0.78502998E+02 -0.23643E+04
 0.78553001E+02 -0.21907E+04
 0.78603004E+02 -0.18746E+04
 0.78653000E+02 -0.17389E+04
 0.78703003E+02 -0.18383E+04
 0.78752998E+02 -0.21841E+04
 0.78803001E+02 -0.24161E+04
 0.78853004E+02 -0.24878E+04
 0.78903000E+02 -0.23885E+04
 0.78953003E+02 -0.22718E+04
 0.79002998E+02 -0.22888E+04
 0.79053001E+02 -0.23615E+04
 0.79103004E+02 -0.24288E+04
 0.79153000E+02 -0.25268E+04
 0.79203003E+02 -0.25459E+04
 0.79252998E+02 -0.25399E+04
 0.79303001E+02 -0.24414E+04
 0.79353004E+02 -0.24188E+04
 0.79403000E+02 -0.27067E+04
 0.79453003E+02 -0.24939E+04
 0.79502998E+02 -0.25766E+04
 0.79553001E+02 -0.25787E+04
 0.79603004E+02 -0.21716E+04
 0.79653000E+02 -0.20989E+04
 0.79703003E+02 -0.19903E+04
 0.79752998E+02 -0.19930E+04
 0.79803001E+02 -0.20657E+04
 0.79853004E+02 -0.23143E+04
 0.79903000E+02 -0.24233E+04
 0.79953003E+02 -0.25298E+04
 0.80002998E+02 -0.26813E+04
 0.80053001E+02 -0.27815E+04
 0.80103004E+02 -0.27133E+04
 0.80153000E+02 -0.23625E+04
 0.80203003E+02 -0.21551E+04
 0.80252998E+02 -0.18065E+04
 0.80303001E+02 -0.18888E+04
 0.80353004E+02 -0.20117E+04
 0.80403000E+02 -0.20505E+04
 0.80453003E+02 -0.24289E+04
 0.80502998E+02 -0.26588E+04
 0.80553001E+02 -0.27084E+04
 0.80603004E+02 -0.24160E+04
 0.80653000E+02 -0.22870E+04
 0.80703003E+02 -0.24076E+04
 0.80752998E+02 -0.24222E+04
 0.80803001E+02 -0.25311E+04
 0.80853004E+02 -0.25316E+04
 0.80903000E+02 -0.23283E+04
 0.80953003E+02 -0.20479E+04
 0.81002998E+02 -0.16690E+04
 0.81053001E+02 -0.14787E+04
 0.81103004E+02 -0.14092E+04
 0.81153000E+02 -0.11854E+04
 0.81203003E+02 -0.12589E+04
 0.81252998E+02 -0.15198E+04
 0.81303001E+02 -0.13999E+04
 0.81353004E+02 -0.15412E+04
 0.81403000E+02 -0.20252E+04
 0.81453003E+02 -0.21476E+04
 0.81502998E+02 -0.23186E+04
 0.81553001E+02 -0.26789E+04
 0.81603004E+02 -0.29751E+04
 0.81653000E+02 -0.31429E+04
 0.81703003E+02 -0.31494E+04
 0.81752998E+02 -0.31960E+04
 0.81803001E+02 -0.32030E+04
 0.81853004E+02 -0.32602E+04
 0.81903000E+02 -0.32346E+04
 0.81953003E+02 -0.31550E+04
 0.82002998E+02 -0.31035E+04
 0.82053001E+02 -0.29322E+04
 0.82103004E+02 -0.27993E+04
 0.82153000E+02 -0.24820E+04
 0.82203003E+02 -0.21885E+04
 0.82252998E+02 -0.21857E+04
 0.82303001E+02 -0.22032E+04
 0.82353004E+02 -0.23587E+04
 0.82403000E+02 -0.25664E+04
 0.82453003E+02 -0.27804E+04
 0.82502998E+02 -0.29815E+04
 0.82553001E+02 -0.28491E+04
 0.82603004E+02 -0.26933E+04
 0.82653000E+02 -0.25367E+04
 0.82703003E+02 -0.23221E+04
 0.82752998E+02 -0.22492E+04
 0.82803001E+02 -0.21126E+04
 0.82853004E+02 -0.21756E+04
 0.82903000E+02 -0.21540E+04
 0.82953003E+02 -0.21178E+04
 0.83002998E+02 -0.21433E+04
 0.83053001E+02 -0.19730E+04
 0.83103004E+02 -0.20192E+04
 0.83153000E+02 -0.20578E+04
 0.83203003E+02 -0.20412E+04
 0.83252998E+02 -0.20380E+04
 0.83303001E+02 -0.21982E+04
 0.83353004E+02 -0.23939E+04
 0.83403000E+02 -0.24002E+04
 0.83453003E+02 -0.24263E+04
 0.83502998E+02 -0.24086E+04
 0.83553001E+02 -0.24883E+04
 0.83603004E+02 -0.24501E+04
 0.83653000E+02 -0.25453E+04
 0.83703003E+02 -0.26493E+04
 0.83752998E+02 -0.24471E+04
 0.83803001E+02 -0.22628E+04
 0.83853004E+02 -0.22347E+04
 0.83903000E+02 -0.21882E+04
 0.83953003E+02 -0.21477E+04
 0.84002998E+02 -0.23784E+04
 0.84053001E+02 -0.25165E+04
 0.84103004E+02 -0.24012E+04
 0.84153000E+02 -0.22758E+04
 0.84203003E+02 -0.22798E+04
 0.84252998E+02 -0.22856E+04
 0.84303001E+02 -0.20968E+04
 0.84353004E+02 -0.20852E+04
 0.84403000E+02 -0.21539E+04
 0.84453003E+02 -0.20074E+04
 0.84502998E+02 -0.20662E+04
 0.84553001E+02 -0.21773E+04
 0.84603004E+02 -0.22896E+04
 0.84653000E+02 -0.24157E+04
 0.84703003E+02 -0.23837E+04
 0.84752998E+02 -0.20819E+04
 0.84803001E+02 -0.20243E+04
 0.84853004E+02 -0.21150E+04
 0.84903000E+02 -0.20758E+04
 0.84953003E+02 -0.22671E+04
 0.85002998E+02 -0.25293E+04
 0.85053001E+02 -0.25742E+04
 0.85103004E+02 -0.26433E+04
 0.85153000E+02 -0.26708E+04
 0.85203003E+02 -0.25777E+04
 0.85252998E+02 -0.23647E+04
 0.85303001E+02 -0.22275E+04
 0.85353004E+02 -0.23889E+04
 0.85403000E+02 -0.22978E+04
 0.85453003E+02 -0.22507E+04
 0.85502998E+02 -0.22909E+04
 0.85553001E+02 -0.22931E+04
 0.85603004E+02 -0.24397E+04
 0.85653000E+02 -0.25209E+04
 0.85703003E+02 -0.24696E+04
 0.85752998E+02 -0.26392E+04
 0.85803001E+02 -0.26284E+04
 0.85853004E+02 -0.26926E+04
 0.85903000E+02 -0.30596E+04
 0.85953003E+02 -0.28435E+04
 0.86002998E+02 -0.26248E+04
 0.86053001E+02 -0.25782E+04
 0.86103004E+02 -0.22534E+04
 0.86153000E+02 -0.21171E+04
 0.86203003E+02 -0.20368E+04
 0.86252998E+02 -0.19663E+04
 0.86303001E+02 -0.22660E+04
 0.86353004E+02 -0.23529E+04
 0.86403000E+02 -0.21756E+04
 0.86453003E+02 -0.21183E+04
 0.86502998E+02 -0.19897E+04
 0.86553001E+02 -0.19571E+04
 0.86603004E+02 -0.19615E+04
 0.86653000E+02 -0.21717E+04
 0.86703003E+02 -0.25094E+04
 0.86752998E+02 -0.27028E+04
 0.86803001E+02 -0.27453E+04
 0.86853004E+02 -0.27981E+04
 0.86903000E+02 -0.27997E+04
 0.86953003E+02 -0.26997E+04
 0.87002998E+02 -0.27620E+04
 0.87053001E+02 -0.27847E+04
 0.87103004E+02 -0.27439E+04
 0.87153000E+02 -0.27042E+04
 0.87203003E+02 -0.26910E+04
 0.87252998E+02 -0.24138E+04
 0.87303001E+02 -0.21285E+04
 0.87353004E+02 -0.18286E+04
 0.87403000E+02 -0.16787E+04
 0.87453003E+02 -0.17580E+04
 0.87502998E+02 -0.16447E+04
 0.87553001E+02 -0.15216E+04
 0.87602997E+02 -0.16419E+04
 0.87653000E+02 -0.17623E+04
 0.87703003E+02 -0.18738E+04
 0.87752998E+02 -0.20160E+04
 0.87803001E+02 -0.19751E+04
 0.87852997E+02 -0.22270E+04
 0.87903000E+02 -0.24453E+04
 0.87953003E+02 -0.24344E+04
 0.88002998E+02 -0.26860E+04
 0.88053001E+02 -0.28907E+04
 0.88102997E+02 -0.27551E+04
 0.88153000E+02 -0.26373E+04
 0.88203003E+02 -0.25812E+04
 0.88252998E+02 -0.26007E+04
 0.88303001E+02 -0.25071E+04
 0.88352997E+02 -0.24307E+04
 0.88403000E+02 -0.24643E+04
 0.88453003E+02 -0.23113E+04
 0.88502998E+02 -0.22331E+04
 0.88553001E+02 -0.21973E+04
 0.88602997E+02 -0.19939E+04
 0.88653000E+02 -0.18559E+04
 0.88703003E+02 -0.18181E+04
 0.88752998E+02 -0.19005E+04
 0.88803001E+02 -0.21286E+04
 0.88852997E+02 -0.23080E+04
 0.88903000E+02 -0.25381E+04
 0.88953003E+02 -0.24446E+04
 0.89002998E+02 -0.22705E+04
 0.89053001E+02 -0.23093E+04
 0.89102997E+02 -0.22403E+04
 0.89153000E+02 -0.20713E+04
 0.89203003E+02 -0.22516E+04
 0.89252998E+02 -0.24430E+04
 0.89303001E+02 -0.25885E+04
 0.89352997E+02 -0.27070E+04
 0.89403000E+02 -0.27918E+04
 0.89453003E+02 -0.29397E+04
 0.89502998E+02 -0.30242E+04
 0.89553001E+02 -0.31742E+04
 0.89602997E+02 -0.30689E+04
 0.89653000E+02 -0.27871E+04
 0.89703003E+02 -0.25740E+04
 0.89752998E+02 -0.24141E+04
 0.89803001E+02 -0.23734E+04
 0.89852997E+02 -0.26521E+04
 0.89903000E+02 -0.27152E+04
 0.89953003E+02 -0.27143E+04
 0.90002998E+02 -0.26919E+04
 0.90053001E+02 -0.24025E+04
 0.90102997E+02 -0.22358E+04
 0.90153000E+02 -0.20590E+04
 0.90203003E+02 -0.19568E+04
 0.90252998E+02 -0.20366E+04
 0.90303001E+02 -0.21625E+04
 0.90352997E+02 -0.23041E+04
 0.90403000E+02 -0.23473E+04
 0.90453003E+02 -0.22780E+04
 0.90502998E+02 -0.22371E+04
 0.90553001E+02 -0.22582E+04
 0.90602997E+02 -0.21852E+04
 0.90653000E+02 -0.21110E+04
 0.90703003E+02 -0.19031E+04
 0.90752998E+02 -0.17599E+04
 0.90803001E+02 -0.19129E+04
 0.90852997E+02 -0.19942E+04
 0.90903000E+02 -0.20253E+04
 0.90953003E+02 -0.21438E+04
 0.91002998E+02 -0.20873E+04
 0.91053001E+02 -0.19695E+04
 0.91102997E+02 -0.18945E+04
 0.91153000E+02 -0.19239E+04
 0.91203003E+02 -0.20265E+04
 0.91252998E+02 -0.19335E+04
 0.91303001E+02 -0.19196E+04
 0.91352997E+02 -0.20019E+04
 0.91403000E+02 -0.23036E+04
 0.91453003E+02 -0.24967E+04
 0.91502998E+02 -0.24420E+04
 0.91553001E+02 -0.25621E+04
 0.91602997E+02 -0.25985E+04
 0.91653000E+02 -0.24385E+04
 0.91703003E+02 -0.24888E+04
 0.91752998E+02 -0.25839E+04
 0.91803001E+02 -0.26852E+04
 0.91852997E+02 -0.28002E+04
 0.91903000E+02 -0.27088E+04
 0.91953003E+02 -0.28060E+04
 0.92002998E+02 -0.27969E+04
 0.92053001E+02 -0.26740E+04
 0.92102997E+02 -0.25559E+04
 0.92153000E+02 -0.24937E+04
 0.92203003E+02 -0.24180E+04
 0.92252998E+02 -0.23710E+04
 0.92303001E+02 -0.23947E+04
 0.92352997E+02 -0.22751E+04
 0.92403000E+02 -0.21522E+04
 0.92453003E+02 -0.19267E+04
 0.92502998E+02 -0.18478E+04
 0.92553001E+02 -0.17552E+04
 0.92602997E+02 -0.17602E+04
 0.92653000E+02 -0.19516E+04
 0.92703003E+02 -0.21894E+04
 0.92752998E+02 -0.23511E+04
 0.92803001E+02 -0.25516E+04
 0.92852997E+02 -0.28602E+04
 0.92903000E+02 -0.29713E+04
 0.92953003E+02 -0.30285E+04
 0.93002998E+02 -0.30042E+04
 0.93053001E+02 -0.31701E+04
 0.93102997E+02 -0.33117E+04
 0.93153000E+02 -0.32270E+04
 0.93203003E+02 -0.32172E+04
 0.93252998E+02 -0.30444E+04
 0.93303001E+02 -0.29165E+04
 0.93352997E+02 -0.29173E+04
 0.93403000E+02 -0.27786E+04
 0.93453003E+02 -0.26888E+04
 0.93502998E+02 -0.25272E+04
 0.93553001E+02 -0.22605E+04
 0.93602997E+02 -0.21045E+04
 0.93653000E+02 -0.20860E+04
 0.93703003E+02 -0.21841E+04
 0.93752998E+02 -0.22593E+04
 0.93803001E+02 -0.22389E+04
 0.93852997E+02 -0.21194E+04
 0.93903000E+02 -0.20675E+04
 0.93953003E+02 -0.18958E+04
 0.94002998E+02 -0.18127E+04
 0.94053001E+02 -0.18045E+04
 0.94102997E+02 -0.17018E+04
 0.94153000E+02 -0.18336E+04
 0.94203003E+02 -0.20680E+04
 0.94252998E+02 -0.20734E+04
 0.94303001E+02 -0.19787E+04
 0.94352997E+02 -0.20299E+04
 0.94403000E+02 -0.20586E+04
 0.94453003E+02 -0.21268E+04
 0.94502998E+02 -0.21663E+04
 0.94553001E+02 -0.22620E+04
 0.94602997E+02 -0.23881E+04
 0.94653000E+02 -0.25379E+04
 0.94703003E+02 -0.25552E+04
 0.94752998E+02 -0.25268E+04
 0.94803001E+02 -0.25499E+04
 0.94852997E+02 -0.23796E+04
 0.94903000E+02 -0.22134E+04
 0.94953003E+02 -0.21576E+04
 0.95002998E+02 -0.21439E+04
 0.95053001E+02 -0.20308E+04
 0.95102997E+02 -0.20843E+04
 0.95153000E+02 -0.21640E+04
 0.95203003E+02 -0.21725E+04
 0.95252998E+02 -0.22836E+04
 0.95303001E+02 -0.22690E+04
 0.95352997E+02 -0.22692E+04
 0.95403000E+02 -0.21276E+04
 0.95453003E+02 -0.20340E+04
 0.95502998E+02 -0.19869E+04
 0.95553001E+02 -0.17749E+04
 0.95602997E+02 -0.18011E+04
 0.95653000E+02 -0.18203E+04
 0.95703003E+02 -0.19811E+04
 0.95752998E+02 -0.22210E+04
 0.95803001E+02 -0.22485E+04
 0.95852997E+02 -0.23475E+04
 0.95903000E+02 -0.23999E+04
 0.95953003E+02 -0.24343E+04
 0.96002998E+02 -0.24836E+04
 0.96053001E+02 -0.25306E+04
 0.96102997E+02 -0.25451E+04
 0.96153000E+02 -0.24337E+04
 0.96203003E+02 -0.23152E+04
 0.96252998E+02 -0.23180E+04
 0.96303001E+02 -0.23295E+04
 0.96352997E+02 -0.23424E+04
 0.96403000E+02 -0.23781E+04
 0.96453003E+02 -0.24673E+04
 0.96502998E+02 -0.24321E+04
 0.96553001E+02 -0.23451E+04
 0.96602997E+02 -0.25023E+04
 0.96653000E+02 -0.24784E+04
 0.96703003E+02 -0.25190E+04
 0.96752998E+02 -0.25116E+04
 0.96803001E+02 -0.24763E+04
 0.96852997E+02 -0.26956E+04
 0.96903000E+02 -0.27304E+04
 0.96953003E+02 -0.26419E+04
 0.97002998E+02 -0.27220E+04
 0.97053001E+02 -0.28351E+04
 0.97102997E+02 -0.29029E+04
 0.97153000E+02 -0.30120E+04
 0.97203003E+02 -0.28874E+04
 0.97252998E+02 -0.27875E+04
 0.97303001E+02 -0.29471E+04
 0.97352997E+02 -0.31292E+04
 0.97403000E+02 -0.30993E+04
 0.97453003E+02 -0.30040E+04
 0.97502998E+02 -0.29049E+04
 0.97553001E+02 -0.27082E+04
 0.97602997E+02 -0.27031E+04
 0.97653000E+02 -0.26155E+04
 0.97703003E+02 -0.24192E+04
 0.97752998E+02 -0.23762E+04
 0.97803001E+02 -0.22679E+04
 0.97852997E+02 -0.22266E+04
 0.97903000E+02 -0.21095E+04
 0.97953003E+02 -0.21117E+04
 0.98002998E+02 -0.21362E+04
