-0.19800000E+01 -0.28494E+05
-0.19300001E+01 -0.26309E+05
-0.18800000E+01 -0.23297E+05
-0.18300000E+01 -0.20090E+05
-0.17800000E+01 -0.17050E+05
-0.17300000E+01 -0.13922E+05
-0.16800001E+01 -0.10802E+05
-0.16300000E+01 -0.73740E+04
-0.15800000E+01 -0.32260E+04
-0.15300000E+01  0.12550E+04
-0.14800000E+01  0.47440E+04
-0.14300001E+01  0.65100E+04
-0.13800000E+01  0.72490E+04
-0.13299999E+01  0.73110E+04
-0.12800000E+01  0.61090E+04
-0.12300000E+01  0.32690E+04
-0.11800001E+01 -0.10070E+04
-0.11300000E+01 -0.67290E+04
-0.10799999E+01 -0.14143E+05
-0.10300000E+01 -0.22585E+05
-0.98000002E+00 -0.31330E+05
-0.92999995E+00 -0.40682E+05
-0.88000000E+00 -0.51120E+05
-0.83000004E+00 -0.62067E+05
-0.77999997E+00 -0.72040E+05
-0.73000002E+00 -0.80801E+05
-0.67999995E+00 -0.88736E+05
-0.63000000E+00 -0.95400E+05
-0.58000004E+00 -0.99412E+05
-0.52999997E+00 -0.99435E+05
-0.48000002E+00 -0.94798E+05
-0.42999995E+00 -0.85295E+05
-0.38000000E+00 -0.71681E+05
-0.33000004E+00 -0.55039E+05
-0.27999997E+00 -0.37261E+05
-0.23000002E+00 -0.19464E+05
-0.17999995E+00 -0.16460E+04
-0.13000000E+00  0.15668E+05
-0.80000043E-01  0.32327E+05
-0.29999971E-01  0.47730E+05
 0.19999981E-01  0.61173E+05
 0.69999933E-01  0.72618E+05
 0.12000012E+00  0.82716E+05
 0.17000008E+00  0.92659E+05
 0.22000003E+00  0.10231E+06
 0.26999998E+00  0.11069E+06
 0.31999993E+00  0.11729E+06
 0.37000012E+00  0.12179E+06
 0.42000008E+00  0.12425E+06
 0.47000003E+00  0.12463E+06
 0.51999998E+00  0.12253E+06
 0.56999993E+00  0.11780E+06
 0.62000012E+00  0.11064E+06
 0.67000008E+00  0.10201E+06
 0.72000003E+00  0.93132E+05
 0.76999998E+00  0.83499E+05
 0.81999993E+00  0.72094E+05
 0.87000012E+00  0.59386E+05
 0.92000008E+00  0.46425E+05
 0.97000003E+00  0.33561E+05
 0.10200000E+01  0.21141E+05
 0.10699999E+01  0.10420E+05
 0.11200001E+01  0.19250E+04
 0.11700001E+01 -0.50440E+04
 0.12200000E+01 -0.11060E+05
 0.12700000E+01 -0.15718E+05
 0.13199999E+01 -0.18856E+05
 0.13700001E+01 -0.21124E+05
 0.14200001E+01 -0.22679E+05
 0.14700000E+01 -0.23860E+05
 0.15200000E+01 -0.25772E+05
 0.15699999E+01 -0.29928E+05
 0.16200001E+01 -0.36251E+05
 0.16700001E+01 -0.42931E+05
 0.17200000E+01 -0.49020E+05
 0.17700000E+01 -0.54444E+05
 0.18199999E+01 -0.59181E+05
 0.18700001E+01 -0.63066E+05
 0.19200001E+01 -0.66181E+05
 0.19700000E+01 -0.68280E+05
 0.20200000E+01 -0.68926E+05
 0.20700002E+01 -0.68502E+05
 0.21199999E+01 -0.67448E+05
 0.21700001E+01 -0.65871E+05
 0.22200003E+01 -0.63688E+05
 0.22700000E+01 -0.60277E+05
 0.23200002E+01 -0.54685E+05
 0.23699999E+01 -0.47529E+05
 0.24200001E+01 -0.39972E+05
 0.24700003E+01 -0.32493E+05
 0.25200000E+01 -0.25599E+05
 0.25700002E+01 -0.19525E+05
 0.26199999E+01 -0.14968E+05
 0.26700001E+01 -0.12082E+05
 0.27200003E+01 -0.10259E+05
 0.27700000E+01 -0.89820E+04
 0.28200002E+01 -0.78380E+04
 0.28699999E+01 -0.69530E+04
 0.29200001E+01 -0.64900E+04
 0.29700003E+01 -0.63930E+04
 0.30200000E+01 -0.60980E+04
 0.30700002E+01 -0.49410E+04
 0.31199999E+01 -0.30110E+04
 0.31700001E+01 -0.13470E+04
 0.32200003E+01 -0.38900E+03
 0.32700000E+01  0.70000E+03
 0.33200002E+01  0.19060E+04
 0.33699999E+01  0.26540E+04
 0.34200001E+01  0.29290E+04
 0.34700003E+01  0.34550E+04
 0.35200000E+01  0.44070E+04
 0.35700002E+01  0.49490E+04
 0.36199999E+01  0.58540E+04
 0.36700001E+01  0.81190E+04
 0.37200003E+01  0.10675E+05
 0.37700000E+01  0.12514E+05
 0.38200002E+01  0.14588E+05
 0.38699999E+01  0.18015E+05
 0.39200001E+01  0.22060E+05
 0.39700003E+01  0.25693E+05
 0.40200000E+01  0.28412E+05
 0.40700002E+01  0.29563E+05
 0.41199999E+01  0.28762E+05
 0.41700001E+01  0.26358E+05
 0.42200003E+01  0.23144E+05
 0.42700000E+01  0.19332E+05
 0.43200002E+01  0.14756E+05
 0.43699999E+01  0.99800E+04
 0.44200001E+01  0.57880E+04
 0.44700003E+01  0.24950E+04
 0.45200000E+01  0.80000E+02
 0.45700002E+01 -0.19190E+04
 0.46199999E+01 -0.41500E+04
 0.46700001E+01 -0.69180E+04
 0.47200003E+01 -0.98370E+04
 0.47700000E+01 -0.11996E+05
 0.48200002E+01 -0.13143E+05
 0.48699999E+01 -0.13538E+05
 0.49200001E+01 -0.13307E+05
 0.49700003E+01 -0.12953E+05
 0.50200000E+01 -0.12716E+05
 0.50700002E+01 -0.11634E+05
 0.51199999E+01 -0.80240E+04
 0.51700001E+01 -0.15490E+04
 0.52200003E+01  0.63000E+04
 0.52700000E+01  0.14416E+05
 0.53200002E+01  0.22993E+05
 0.53699999E+01  0.32807E+05
 0.54200001E+01  0.43386E+05
 0.54700003E+01  0.53341E+05
 0.55200000E+01  0.62160E+05
 0.55700002E+01  0.69762E+05
 0.56199999E+01  0.75153E+05
 0.56700001E+01  0.76765E+05
 0.57200003E+01  0.74920E+05
 0.57700000E+01  0.70798E+05
 0.58200002E+01  0.64710E+05
 0.58699999E+01  0.57350E+05
 0.59200001E+01  0.50200E+05
 0.59700003E+01  0.44435E+05
 0.60200000E+01  0.39756E+05
 0.60700002E+01  0.35307E+05
 0.61200004E+01  0.30911E+05
 0.61700006E+01  0.26897E+05
 0.62199998E+01  0.23429E+05
 0.62700000E+01  0.20276E+05
 0.63200002E+01  0.17357E+05
 0.63700004E+01  0.14782E+05
 0.64200006E+01  0.12032E+05
 0.64699998E+01  0.83120E+04
 0.65200000E+01  0.38350E+04
 0.65700002E+01 -0.60500E+03
 0.66200004E+01 -0.45180E+04
 0.66700006E+01 -0.81970E+04
 0.67199998E+01 -0.12457E+05
 0.67700000E+01 -0.17678E+05
 0.68200002E+01 -0.23704E+05
 0.68700004E+01 -0.29548E+05
 0.69200006E+01 -0.34360E+05
 0.69699998E+01 -0.38516E+05
 0.70200000E+01 -0.42661E+05
 0.70700002E+01 -0.46890E+05
 0.71200004E+01 -0.50727E+05
 0.71700006E+01 -0.54189E+05
 0.72199998E+01 -0.56900E+05
 0.72700000E+01 -0.57719E+05
 0.73200002E+01 -0.56573E+05
 0.73700004E+01 -0.54352E+05
 0.74200006E+01 -0.51983E+05
 0.74699998E+01 -0.49477E+05
 0.75200000E+01 -0.47184E+05
 0.75700002E+01 -0.45695E+05
 0.76200004E+01 -0.44510E+05
 0.76700006E+01 -0.43185E+05
 0.77199998E+01 -0.41584E+05
 0.77700000E+01 -0.39937E+05
 0.78200002E+01 -0.38312E+05
 0.78700004E+01 -0.36514E+05
 0.79200006E+01 -0.34408E+05
 0.79699998E+01 -0.31550E+05
 0.80200005E+01 -0.28272E+05
 0.80699997E+01 -0.25772E+05
 0.81200008E+01 -0.24602E+05
 0.81700001E+01 -0.24189E+05
 0.82199993E+01 -0.24241E+05
 0.82700005E+01 -0.25167E+05
 0.83199997E+01 -0.26938E+05
 0.83700008E+01 -0.29323E+05
 0.84200001E+01 -0.31444E+05
 0.84699993E+01 -0.32387E+05
 0.85200005E+01 -0.32886E+05
 0.85699997E+01 -0.33831E+05
 0.86200008E+01 -0.34645E+05
 0.86700001E+01 -0.34400E+05
 0.87199993E+01 -0.33485E+05
 0.87700005E+01 -0.32716E+05
 0.88199997E+01 -0.31315E+05
 0.88700008E+01 -0.28094E+05
 0.89200001E+01 -0.23498E+05
 0.89699993E+01 -0.18708E+05
 0.90200005E+01 -0.14221E+05
 0.90699997E+01 -0.94250E+04
 0.91200008E+01 -0.38490E+04
 0.91700001E+01  0.23010E+04
 0.92199993E+01  0.89710E+04
 0.92700005E+01  0.15635E+05
 0.93199997E+01  0.21437E+05
 0.93700008E+01  0.25836E+05
 0.94200001E+01  0.29012E+05
 0.94699993E+01  0.31297E+05
 0.95200005E+01  0.32669E+05
 0.95699997E+01  0.33369E+05
 0.96200008E+01  0.33211E+05
 0.96700001E+01  0.32546E+05
 0.97199993E+01  0.32298E+05
 0.97700005E+01  0.32542E+05
 0.98199997E+01  0.33708E+05
 0.98700008E+01  0.36027E+05
 0.99200001E+01  0.38661E+05
 0.99699993E+01  0.41038E+05
 0.10020000E+02  0.43249E+05
 0.10070000E+02  0.45009E+05
 0.10120001E+02  0.45994E+05
 0.10170000E+02  0.46428E+05
 0.10219999E+02  0.46190E+05
 0.10270000E+02  0.44851E+05
 0.10320000E+02  0.41951E+05
 0.10370001E+02  0.37571E+05
 0.10420000E+02  0.32020E+05
 0.10469999E+02  0.25230E+05
 0.10520000E+02  0.17604E+05
 0.10570000E+02  0.97840E+04
 0.10620001E+02  0.25650E+04
 0.10670000E+02 -0.33760E+04
 0.10719999E+02 -0.80680E+04
 0.10770000E+02 -0.11437E+05
 0.10820000E+02 -0.13526E+05
 0.10870001E+02 -0.14465E+05
 0.10920000E+02 -0.14217E+05
 0.10969999E+02 -0.13037E+05
 0.11020000E+02 -0.11081E+05
 0.11070000E+02 -0.86330E+04
 0.11120001E+02 -0.58440E+04
 0.11170000E+02 -0.29640E+04
 0.11219999E+02 -0.70800E+03
 0.11270000E+02  0.81800E+03
 0.11320000E+02  0.16200E+04
 0.11370001E+02  0.14290E+04
 0.11420000E+02  0.37700E+03
 0.11469999E+02 -0.96700E+03
 0.11520000E+02 -0.21680E+04
 0.11570000E+02 -0.33530E+04
 0.11620001E+02 -0.42050E+04
 0.11670000E+02 -0.36370E+04
 0.11719999E+02 -0.12850E+04
 0.11770000E+02  0.26120E+04
 0.11820000E+02  0.79800E+04
 0.11870001E+02  0.14156E+05
 0.11920000E+02  0.20135E+05
 0.11969999E+02  0.25280E+05
 0.12020000E+02  0.29281E+05
 0.12070000E+02  0.32002E+05
 0.12120001E+02  0.33205E+05
 0.12170000E+02  0.33005E+05
 0.12219999E+02  0.31951E+05
 0.12270000E+02  0.30258E+05
 0.12320000E+02  0.28119E+05
 0.12370001E+02  0.25748E+05
 0.12420000E+02  0.22839E+05
 0.12469999E+02  0.18999E+05
 0.12520000E+02  0.14413E+05
 0.12570000E+02  0.96350E+04
 0.12620001E+02  0.49530E+04
 0.12670000E+02  0.41200E+03
 0.12719999E+02 -0.41370E+04
 0.12770000E+02 -0.86470E+04
 0.12820000E+02 -0.12720E+05
 0.12870001E+02 -0.15881E+05
 0.12920000E+02 -0.17645E+05
 0.12969999E+02 -0.18353E+05
 0.13020000E+02 -0.18632E+05
 0.13070000E+02 -0.18492E+05
 0.13120001E+02 -0.17108E+05
 0.13170000E+02 -0.13661E+05
 0.13219999E+02 -0.86970E+04
 0.13270000E+02 -0.27430E+04
 0.13320000E+02  0.37410E+04
 0.13370001E+02  0.10036E+05
 0.13420000E+02  0.16080E+05
 0.13469999E+02  0.21970E+05
 0.13520000E+02  0.27559E+05
 0.13570000E+02  0.32008E+05
 0.13620001E+02  0.34934E+05
 0.13670000E+02  0.36729E+05
 0.13719999E+02  0.37301E+05
 0.13770000E+02  0.36550E+05
 0.13820000E+02  0.34516E+05
 0.13870001E+02  0.31007E+05
 0.13920000E+02  0.25284E+05
 0.13969999E+02  0.17424E+05
 0.14020000E+02  0.89100E+04
 0.14070002E+02  0.41000E+03
 0.14120001E+02 -0.75240E+04
 0.14170000E+02 -0.13967E+05
 0.14220001E+02 -0.19113E+05
 0.14270000E+02 -0.23154E+05
 0.14320002E+02 -0.25654E+05
 0.14370001E+02 -0.25657E+05
 0.14420000E+02 -0.22631E+05
 0.14470001E+02 -0.17120E+05
 0.14520000E+02 -0.95880E+04
 0.14570002E+02 -0.14250E+04
 0.14620001E+02  0.54230E+04
 0.14670000E+02  0.99480E+04
 0.14720001E+02  0.12635E+05
 0.14770000E+02  0.14580E+05
 0.14820002E+02  0.15693E+05
 0.14870001E+02  0.15571E+05
 0.14920000E+02  0.13850E+05
 0.14970001E+02  0.10854E+05
 0.15020000E+02  0.75750E+04
 0.15070002E+02  0.45270E+04
 0.15120001E+02  0.21380E+04
 0.15170000E+02  0.84200E+03
 0.15220001E+02  0.11800E+04
 0.15270000E+02  0.31750E+04
 0.15320002E+02  0.62580E+04
 0.15370001E+02  0.10100E+05
 0.15420000E+02  0.14152E+05
 0.15470001E+02  0.17117E+05
 0.15520000E+02  0.18108E+05
 0.15570002E+02  0.17879E+05
 0.15620001E+02  0.17640E+05
 0.15670000E+02  0.17498E+05
 0.15720001E+02  0.16779E+05
 0.15770000E+02  0.15081E+05
 0.15820002E+02  0.12092E+05
 0.15870001E+02  0.78070E+04
 0.15920000E+02  0.31630E+04
 0.15970001E+02 -0.10440E+04
 0.16020000E+02 -0.40750E+04
 0.16070002E+02 -0.54210E+04
 0.16120001E+02 -0.60410E+04
 0.16170000E+02 -0.71820E+04
 0.16220001E+02 -0.92010E+04
 0.16270000E+02 -0.11504E+05
 0.16320002E+02 -0.13709E+05
 0.16370001E+02 -0.16306E+05
 0.16420000E+02 -0.19140E+05
 0.16470001E+02 -0.21840E+05
 0.16520000E+02 -0.24782E+05
 0.16570002E+02 -0.28587E+05
 0.16620001E+02 -0.32864E+05
 0.16670000E+02 -0.36499E+05
 0.16720001E+02 -0.39479E+05
 0.16770000E+02 -0.42086E+05
 0.16820002E+02 -0.44113E+05
 0.16870001E+02 -0.45067E+05
 0.16920000E+02 -0.44677E+05
 0.16970001E+02 -0.42829E+05
 0.17020000E+02 -0.39337E+05
 0.17070002E+02 -0.34911E+05
 0.17120001E+02 -0.30405E+05
 0.17170000E+02 -0.26160E+05
 0.17220001E+02 -0.22589E+05
 0.17270000E+02 -0.20587E+05
 0.17320002E+02 -0.20492E+05
 0.17370001E+02 -0.21166E+05
 0.17420000E+02 -0.21529E+05
 0.17470001E+02 -0.21106E+05
 0.17520000E+02 -0.20166E+05
 0.17570002E+02 -0.19027E+05
 0.17620001E+02 -0.17351E+05
 0.17670000E+02 -0.15266E+05
 0.17720001E+02 -0.12980E+05
 0.17770000E+02 -0.10738E+05
 0.17820002E+02 -0.91970E+04
 0.17870001E+02 -0.89600E+04
 0.17920000E+02 -0.97630E+04
 0.17970001E+02 -0.10727E+05
 0.18020000E+02 -0.11235E+05
 0.18070002E+02 -0.11145E+05
 0.18120001E+02 -0.11327E+05
 0.18170000E+02 -0.12264E+05
 0.18220001E+02 -0.13539E+05
 0.18270000E+02 -0.14595E+05
 0.18320002E+02 -0.15250E+05
 0.18370001E+02 -0.16036E+05
 0.18420000E+02 -0.16905E+05
 0.18470001E+02 -0.17728E+05
 0.18520000E+02 -0.18590E+05
 0.18570002E+02 -0.19197E+05
 0.18620001E+02 -0.18752E+05
 0.18670000E+02 -0.16697E+05
 0.18720001E+02 -0.14032E+05
 0.18770000E+02 -0.11523E+05
 0.18820002E+02 -0.86610E+04
 0.18870001E+02 -0.47020E+04
 0.18920000E+02  0.61500E+03
 0.18970001E+02  0.71890E+04
 0.19020000E+02  0.15094E+05
 0.19070002E+02  0.23718E+05
 0.19120001E+02  0.31589E+05
 0.19170000E+02  0.37567E+05
 0.19220001E+02  0.41363E+05
 0.19270000E+02  0.43131E+05
 0.19320002E+02  0.43061E+05
 0.19370001E+02  0.41400E+05
 0.19420000E+02  0.38287E+05
 0.19470001E+02  0.33589E+05
 0.19520000E+02  0.27981E+05
 0.19570002E+02  0.22834E+05
 0.19620001E+02  0.18745E+05
 0.19670000E+02  0.15742E+05
 0.19720001E+02  0.13670E+05
 0.19770000E+02  0.12472E+05
 0.19820002E+02  0.12375E+05
 0.19870001E+02  0.13448E+05
 0.19920000E+02  0.15644E+05
 0.19970001E+02  0.18647E+05
 0.20020000E+02  0.21817E+05
 0.20070002E+02  0.24430E+05
 0.20120001E+02  0.26013E+05
 0.20170000E+02  0.26960E+05
 0.20220001E+02  0.27376E+05
 0.20270000E+02  0.26809E+05
 0.20320002E+02  0.25515E+05
 0.20370001E+02  0.23595E+05
 0.20420000E+02  0.20592E+05
 0.20470001E+02  0.16477E+05
 0.20520000E+02  0.11995E+05
 0.20570002E+02  0.76270E+04
 0.20620001E+02  0.34180E+04
 0.20670000E+02  0.88000E+02
 0.20720001E+02 -0.17940E+04
 0.20770000E+02 -0.21590E+04
 0.20820002E+02 -0.11330E+04
 0.20870001E+02  0.85400E+03
 0.20920000E+02  0.35010E+04
 0.20970001E+02  0.71010E+04
 0.21020000E+02  0.12154E+05
 0.21070002E+02  0.18029E+05
 0.21120001E+02  0.24006E+05
 0.21170000E+02  0.29881E+05
 0.21220001E+02  0.35335E+05
 0.21270000E+02  0.40113E+05
 0.21320002E+02  0.43604E+05
 0.21370001E+02  0.45177E+05
 0.21420000E+02  0.44347E+05
 0.21470001E+02  0.41614E+05
 0.21520000E+02  0.38085E+05
 0.21570002E+02  0.34140E+05
 0.21620001E+02  0.30195E+05
 0.21670000E+02  0.26383E+05
 0.21720001E+02  0.22058E+05
 0.21770000E+02  0.16307E+05
 0.21820002E+02  0.93610E+04
 0.21870001E+02  0.23110E+04
 0.21920000E+02 -0.43060E+04
 0.21970001E+02 -0.10137E+05
 0.22020000E+02 -0.15261E+05
 0.22070002E+02 -0.20225E+05
 0.22120001E+02 -0.24974E+05
 0.22170000E+02 -0.28521E+05
 0.22220001E+02 -0.30610E+05
 0.22270000E+02 -0.31956E+05
 0.22320002E+02 -0.32559E+05
 0.22370001E+02 -0.32316E+05
 0.22420000E+02 -0.31718E+05
 0.22470001E+02 -0.31046E+05
 0.22520000E+02 -0.30125E+05
 0.22570002E+02 -0.28675E+05
 0.22620001E+02 -0.27300E+05
 0.22670000E+02 -0.27161E+05
 0.22720001E+02 -0.28198E+05
 0.22770000E+02 -0.29609E+05
 0.22820002E+02 -0.30899E+05
 0.22870001E+02 -0.32169E+05
 0.22920000E+02 -0.34025E+05
 0.22970001E+02 -0.36823E+05
 0.23020000E+02 -0.39860E+05
 0.23070002E+02 -0.42033E+05
 0.23120001E+02 -0.43662E+05
 0.23170000E+02 -0.45479E+05
 0.23220001E+02 -0.47581E+05
 0.23270000E+02 -0.49589E+05
 0.23320002E+02 -0.50984E+05
 0.23370001E+02 -0.52073E+05
 0.23420000E+02 -0.52708E+05
 0.23470001E+02 -0.52868E+05
 0.23520000E+02 -0.52279E+05
 0.23570002E+02 -0.49938E+05
 0.23620001E+02 -0.45080E+05
 0.23670000E+02 -0.37355E+05
 0.23720001E+02 -0.29643E+05
 0.23770000E+02 -0.24124E+05
 0.23820002E+02 -0.20256E+05
 0.23870001E+02 -0.14085E+05
 0.23920000E+02 -0.33610E+04
 0.23970001E+02  0.94410E+04
 0.24020000E+02  0.21419E+05
 0.24070002E+02  0.25111E+05
 0.24120001E+02  0.21686E+05
 0.24170000E+02  0.18641E+05
 0.24220001E+02  0.19976E+05
 0.24270000E+02  0.24729E+05
 0.24320002E+02  0.38236E+05
 0.24370001E+02  0.63829E+05
 0.24420000E+02  0.87564E+05
 0.24470001E+02  0.11790E+06
 0.24520000E+02  0.15493E+06
 0.24570002E+02  0.18172E+06
 0.24620001E+02  0.19187E+06
 0.24670000E+02  0.21512E+06
 0.24720001E+02  0.27663E+06
 0.24770000E+02  0.31798E+06
 0.24820002E+02  0.31131E+06
 0.24870001E+02  0.30460E+06
 0.24920000E+02  0.29764E+06
 0.24970001E+02  0.23796E+06
 0.25020000E+02  0.20909E+06
 0.25070002E+02  0.27150E+06
 0.25120001E+02  0.28262E+06
 0.25170000E+02  0.17812E+06
 0.25220001E+02  0.77997E+05
 0.25270000E+02  0.10651E+06
 0.25320002E+02  0.18302E+06
 0.25370001E+02  0.20806E+06
 0.25420000E+02  0.24589E+06
 0.25470001E+02  0.28834E+06
 0.25520000E+02  0.27218E+06
 0.25570002E+02  0.25284E+06
 0.25620001E+02  0.31952E+06
 0.25670000E+02  0.38038E+06
 0.25720001E+02  0.27609E+06
 0.25770000E+02  0.69425E+05
 0.25820002E+02 -0.87020E+05
 0.25870001E+02 -0.12823E+06
 0.25920000E+02 -0.13646E+06
 0.25970001E+02 -0.19362E+06
 0.26020000E+02 -0.27199E+06
 0.26070002E+02 -0.42733E+06
 0.26120001E+02 -0.60692E+06
 0.26170000E+02 -0.66102E+06
 0.26220001E+02 -0.60632E+06
 0.26270000E+02 -0.57190E+06
 0.26320002E+02 -0.62482E+06
 0.26370001E+02 -0.58730E+06
 0.26420000E+02 -0.36450E+06
 0.26470001E+02 -0.25864E+06
 0.26520000E+02 -0.33275E+06
 0.26570002E+02 -0.22648E+06
 0.26620001E+02  0.67553E+05
 0.26670000E+02  0.20541E+06
 0.26720001E+02  0.14477E+06
 0.26770000E+02  0.15611E+06
 0.26820002E+02  0.13946E+06
 0.26870001E+02 -0.52052E+05
 0.26920000E+02 -0.62113E+05
 0.26970001E+02  0.98068E+05
 0.27020000E+02 -0.92496E+05
 0.27070002E+02 -0.53342E+06
 0.27120001E+02 -0.48032E+06
 0.27170000E+02 -0.44110E+04
 0.27220001E+02  0.20563E+06
 0.27270000E+02  0.95456E+05
 0.27320002E+02 -0.14922E+06
 0.27370001E+02 -0.36582E+06
 0.27420000E+02 -0.40911E+06
 0.27470001E+02 -0.13611E+06
 0.27520000E+02  0.34067E+06
 0.27570002E+02  0.49244E+06
 0.27620001E+02  0.44030E+06
 0.27670000E+02  0.39765E+06
 0.27720001E+02  0.27687E+06
 0.27770000E+02  0.30292E+06
 0.27820002E+02  0.41935E+06
 0.27870001E+02  0.42486E+06
 0.27920000E+02  0.31202E+06
 0.27970001E+02  0.18790E+06
 0.28020000E+02  0.10897E+06
 0.28070002E+02 -0.12053E+05
 0.28120001E+02 -0.10326E+06
 0.28170000E+02 -0.14640E+06
 0.28220001E+02 -0.11956E+06
 0.28270000E+02  0.13926E+06
 0.28320002E+02  0.38244E+06
 0.28370001E+02  0.30730E+06
 0.28420000E+02  0.14627E+05
 0.28470001E+02 -0.29411E+06
 0.28520000E+02 -0.58184E+06
 0.28570002E+02 -0.86779E+06
 0.28620001E+02 -0.93262E+06
 0.28670000E+02 -0.76920E+06
 0.28720001E+02 -0.79840E+06
 0.28770000E+02 -0.99032E+06
 0.28820002E+02 -0.95125E+06
 0.28870001E+02 -0.77344E+06
 0.28920000E+02 -0.59855E+06
 0.28970001E+02 -0.54024E+06
 0.29020000E+02 -0.35556E+06
 0.29070002E+02  0.11325E+06
 0.29120001E+02  0.23564E+06
 0.29170000E+02  0.15224E+06
 0.29220001E+02  0.28237E+06
 0.29270000E+02  0.60303E+06
 0.29320002E+02  0.82991E+06
 0.29370001E+02  0.52190E+06
 0.29420000E+02  0.33122E+05
 0.29470001E+02 -0.29026E+06
 0.29520000E+02 -0.71911E+06
 0.29570002E+02 -0.10176E+07
 0.29620001E+02 -0.96480E+06
 0.29670000E+02 -0.12324E+07
 0.29720001E+02 -0.18183E+07
 0.29770000E+02 -0.20800E+07
 0.29820002E+02 -0.16060E+07
 0.29870001E+02 -0.69083E+06
 0.29920000E+02 -0.14626E+06
 0.29970001E+02  0.31838E+06
 0.30020000E+02  0.66875E+06
 0.30070000E+02  0.79933E+06
 0.30120003E+02  0.12472E+07
 0.30170002E+02  0.17244E+07
 0.30220001E+02  0.17386E+07
 0.30270000E+02  0.11776E+07
 0.30320000E+02  0.60328E+06
 0.30370003E+02  0.21761E+06
 0.30420002E+02 -0.72243E+05
 0.30470001E+02 -0.35430E+06
 0.30520000E+02 -0.72202E+06
 0.30570000E+02 -0.10510E+07
 0.30620003E+02 -0.12982E+07
 0.30670002E+02 -0.86619E+06
 0.30720001E+02 -0.42402E+06
 0.30770000E+02 -0.41888E+06
 0.30820000E+02 -0.23306E+06
 0.30870003E+02  0.25442E+05
 0.30920002E+02  0.62383E+06
 0.30970001E+02  0.11757E+07
 0.31020000E+02  0.13634E+07
 0.31070000E+02  0.15392E+07
 0.31120003E+02  0.12753E+07
 0.31170002E+02  0.41848E+06
 0.31220001E+02 -0.49427E+05
 0.31270000E+02  0.38694E+06
 0.31320000E+02  0.74121E+06
 0.31370003E+02  0.20226E+06
 0.31420002E+02 -0.64803E+06
 0.31470001E+02 -0.68536E+06
 0.31520000E+02 -0.12006E+06
 0.31570000E+02  0.15370E+06
 0.31620003E+02  0.19715E+06
 0.31670002E+02  0.25078E+06
 0.31720001E+02  0.59180E+06
 0.31770000E+02  0.97169E+06
 0.31820000E+02  0.57480E+06
 0.31870003E+02 -0.48363E+06
 0.31920002E+02 -0.11768E+07
 0.31970001E+02 -0.55807E+06
 0.32020000E+02  0.32272E+05
 0.32070000E+02 -0.38565E+06
 0.32120003E+02 -0.77725E+06
 0.32170002E+02 -0.11161E+07
 0.32220001E+02 -0.10890E+07
 0.32270000E+02 -0.76728E+06
 0.32320000E+02 -0.16521E+06
 0.32370003E+02  0.71722E+06
 0.32420002E+02  0.68197E+06
 0.32470001E+02  0.61237E+05
 0.32520000E+02  0.40757E+05
 0.32570000E+02  0.70362E+06
 0.32620003E+02  0.10198E+07
 0.32670002E+02  0.72542E+06
 0.32720001E+02  0.38008E+06
 0.32770000E+02  0.78602E+05
 0.32820000E+02 -0.25573E+06
 0.32870003E+02 -0.53931E+06
 0.32920002E+02 -0.30006E+06
 0.32970001E+02  0.25255E+06
 0.33020000E+02  0.28610E+06
 0.33070000E+02  0.55108E+05
 0.33120003E+02  0.42609E+06
 0.33170002E+02  0.10581E+07
 0.33220001E+02  0.13577E+07
 0.33270000E+02  0.13317E+07
 0.33320000E+02  0.13284E+07
 0.33370003E+02  0.17082E+07
 0.33420002E+02  0.19411E+07
 0.33470001E+02  0.15252E+07
 0.33520000E+02  0.67523E+06
 0.33570000E+02  0.12042E+06
 0.33620003E+02  0.31123E+05
 0.33670002E+02  0.19185E+05
 0.33720001E+02  0.12590E+06
 0.33770000E+02  0.25083E+06
 0.33820000E+02  0.38646E+06
 0.33870003E+02  0.50524E+06
 0.33920002E+02  0.78870E+06
 0.33970001E+02  0.12814E+07
 0.34020000E+02  0.15897E+07
 0.34070000E+02  0.16301E+07
 0.34120003E+02  0.15016E+07
 0.34170002E+02  0.16987E+07
 0.34220001E+02  0.18451E+07
 0.34270000E+02  0.14077E+07
 0.34320000E+02  0.88154E+06
 0.34370003E+02  0.39138E+06
 0.34420002E+02 -0.16875E+06
 0.34470001E+02 -0.85588E+06
 0.34520000E+02 -0.12822E+07
 0.34570000E+02 -0.11333E+07
 0.34620003E+02 -0.10681E+07
 0.34670002E+02 -0.11777E+07
 0.34720001E+02 -0.10482E+07
 0.34770000E+02 -0.87531E+06
 0.34820000E+02 -0.98658E+06
 0.34870003E+02 -0.11632E+07
 0.34920002E+02 -0.76419E+06
 0.34970001E+02 -0.28205E+06
 0.35020000E+02 -0.38864E+06
 0.35070000E+02 -0.71174E+06
 0.35120003E+02 -0.80347E+06
 0.35170002E+02 -0.42889E+06
 0.35220001E+02 -0.27616E+05
 0.35270000E+02  0.15421E+06
 0.35320000E+02  0.19209E+06
 0.35370003E+02  0.19221E+06
 0.35420002E+02  0.45770E+06
 0.35470001E+02  0.77993E+06
 0.35520000E+02  0.10258E+07
 0.35570000E+02  0.11196E+07
 0.35620003E+02  0.94803E+06
 0.35670002E+02  0.71451E+06
 0.35720001E+02  0.35952E+06
 0.35770000E+02 -0.11192E+06
 0.35820000E+02 -0.37711E+06
 0.35870003E+02 -0.53589E+06
 0.35920002E+02 -0.54049E+06
 0.35970001E+02 -0.38624E+06
 0.36020000E+02 -0.44166E+06
 0.36070000E+02 -0.46968E+06
 0.36120003E+02 -0.30594E+06
 0.36170002E+02  0.64346E+05
 0.36220001E+02  0.51304E+06
 0.36270000E+02  0.50346E+06
 0.36320000E+02  0.22900E+06
 0.36370003E+02  0.20895E+06
 0.36420002E+02  0.57742E+06
 0.36470001E+02  0.91876E+06
 0.36520000E+02  0.36632E+06
 0.36570000E+02 -0.71358E+06
 0.36620003E+02 -0.11867E+07
 0.36670002E+02 -0.89925E+06
 0.36720001E+02 -0.36973E+06
 0.36770000E+02 -0.48987E+05
 0.36820000E+02  0.18267E+06
 0.36870003E+02  0.11719E+06
 0.36920002E+02 -0.44615E+06
 0.36970001E+02 -0.63815E+06
 0.37020000E+02 -0.33523E+06
 0.37070000E+02 -0.27491E+06
 0.37120003E+02 -0.61377E+06
 0.37170002E+02 -0.84283E+06
 0.37220001E+02 -0.70060E+06
 0.37270000E+02 -0.56693E+06
 0.37320000E+02 -0.54402E+06
 0.37370003E+02 -0.55442E+06
 0.37420002E+02 -0.72614E+06
 0.37470001E+02 -0.90636E+06
 0.37520000E+02 -0.66308E+06
 0.37570000E+02 -0.49413E+06
 0.37620003E+02 -0.80900E+06
 0.37670002E+02 -0.69426E+06
 0.37720001E+02 -0.40000E+04
 0.37770000E+02  0.42685E+06
 0.37820000E+02  0.43220E+06
 0.37870003E+02  0.31081E+06
 0.37920002E+02 -0.30923E+05
 0.37970001E+02 -0.35318E+06
 0.38020000E+02 -0.27316E+06
 0.38070000E+02 -0.37144E+05
 0.38120003E+02 -0.77318E+05
 0.38170002E+02 -0.72220E+06
 0.38220001E+02 -0.12518E+07
 0.38270000E+02 -0.13385E+07
 0.38320000E+02 -0.14032E+07
 0.38370003E+02 -0.10294E+07
 0.38420002E+02 -0.46274E+06
 0.38470001E+02 -0.12190E+06
 0.38520000E+02  0.77761E+05
 0.38570000E+02  0.58757E+05
 0.38620003E+02  0.13000E+06
 0.38670002E+02  0.32395E+06
 0.38720001E+02  0.43804E+06
 0.38770000E+02  0.51343E+06
 0.38820000E+02  0.47875E+06
 0.38870003E+02  0.36354E+06
 0.38920002E+02  0.26685E+06
 0.38970001E+02  0.27235E+06
 0.39020000E+02  0.26032E+06
 0.39070000E+02 -0.40960E+04
 0.39120003E+02 -0.31058E+06
 0.39170002E+02 -0.36580E+06
 0.39220001E+02 -0.44525E+06
 0.39270000E+02 -0.81451E+06
 0.39320000E+02 -0.94046E+06
 0.39370003E+02 -0.58598E+06
 0.39420002E+02 -0.10658E+06
 0.39470001E+02  0.28589E+05
 0.39520000E+02 -0.42681E+06
 0.39570000E+02 -0.67694E+06
 0.39620003E+02 -0.47668E+06
 0.39670002E+02 -0.28130E+06
 0.39720001E+02 -0.40966E+05
 0.39770000E+02  0.15804E+06
 0.39820000E+02  0.21614E+06
 0.39870003E+02  0.60865E+05
 0.39920002E+02 -0.57305E+05
 0.39970001E+02  0.17928E+06
 0.40020000E+02  0.38693E+06
 0.40070000E+02  0.30363E+06
 0.40120003E+02  0.13366E+06
 0.40170002E+02  0.14732E+06
 0.40220001E+02  0.29806E+06
 0.40270000E+02  0.37730E+06
 0.40320000E+02  0.28536E+06
 0.40370003E+02  0.16880E+06
 0.40420002E+02  0.19341E+06
 0.40470001E+02  0.83063E+05
 0.40520000E+02 -0.84086E+05
 0.40570000E+02 -0.54240E+04
 0.40620003E+02  0.35901E+06
 0.40670002E+02  0.61494E+06
 0.40720001E+02  0.49820E+06
 0.40770000E+02  0.44179E+06
 0.40820000E+02  0.19056E+06
 0.40870003E+02 -0.48855E+06
 0.40920002E+02 -0.10240E+07
 0.40970001E+02 -0.10799E+07
 0.41020000E+02 -0.76665E+06
 0.41070000E+02 -0.51632E+06
 0.41120003E+02 -0.49815E+06
 0.41170002E+02 -0.55748E+06
 0.41220001E+02 -0.47780E+06
 0.41270000E+02 -0.18274E+06
 0.41320000E+02  0.14524E+06
 0.41370003E+02  0.45371E+06
 0.41420002E+02  0.58152E+06
 0.41470001E+02  0.55773E+06
 0.41520000E+02  0.65841E+06
 0.41570000E+02  0.80175E+06
 0.41620003E+02  0.74370E+06
 0.41670002E+02  0.39700E+06
 0.41720001E+02  0.38301E+05
 0.41770000E+02 -0.23050E+06
 0.41820000E+02 -0.42190E+06
 0.41870003E+02 -0.30667E+06
 0.41920002E+02 -0.42654E+05
 0.41970001E+02  0.55007E+05
 0.42020000E+02  0.93090E+05
 0.42070000E+02  0.34688E+06
 0.42120003E+02  0.82953E+06
 0.42170002E+02  0.11733E+07
 0.42220001E+02  0.10688E+07
 0.42270000E+02  0.69483E+06
 0.42320000E+02  0.37126E+06
 0.42370003E+02  0.30131E+05
 0.42420002E+02 -0.55545E+06
 0.42470001E+02 -0.10412E+07
 0.42520000E+02 -0.12280E+07
 0.42570000E+02 -0.12952E+07
 0.42620003E+02 -0.10660E+07
 0.42670002E+02 -0.75885E+06
 0.42720001E+02 -0.70810E+06
 0.42770000E+02 -0.79300E+06
 0.42820000E+02 -0.65396E+06
 0.42870003E+02 -0.21206E+06
 0.42920002E+02  0.55674E+05
 0.42970001E+02  0.64693E+05
 0.43020000E+02 -0.51298E+05
 0.43070000E+02 -0.91686E+05
 0.43120003E+02  0.11730E+06
 0.43170002E+02  0.41409E+06
 0.43220001E+02  0.57933E+06
 0.43270000E+02  0.44086E+06
 0.43320000E+02  0.43952E+06
 0.43370003E+02  0.66582E+06
 0.43420002E+02  0.57115E+06
 0.43470001E+02  0.27298E+06
 0.43520000E+02  0.18087E+06
 0.43570000E+02  0.23102E+06
 0.43620003E+02 -0.12555E+06
 0.43670002E+02 -0.76050E+06
 0.43720001E+02 -0.97547E+06
 0.43770000E+02 -0.90312E+06
 0.43820000E+02 -0.97574E+06
 0.43870003E+02 -0.11939E+07
 0.43920002E+02 -0.12312E+07
 0.43970001E+02 -0.95776E+06
 0.44020000E+02 -0.39282E+06
 0.44070000E+02  0.56562E+06
 0.44120003E+02  0.15351E+07
 0.44170002E+02  0.17731E+07
 0.44220001E+02  0.10903E+07
 0.44270000E+02 -0.56232E+05
 0.44320000E+02 -0.12290E+07
 0.44370003E+02 -0.19597E+07
 0.44420002E+02 -0.20992E+07
 0.44470001E+02 -0.19027E+07
 0.44520000E+02 -0.15917E+07
 0.44570000E+02 -0.12469E+07
 0.44620003E+02 -0.58603E+06
 0.44670002E+02  0.32214E+06
 0.44720001E+02  0.11825E+07
 0.44770000E+02  0.17539E+07
 0.44820000E+02  0.18961E+07
 0.44870003E+02  0.17010E+07
 0.44920002E+02  0.12167E+07
 0.44970001E+02  0.85758E+06
 0.45020000E+02  0.92398E+06
 0.45070000E+02  0.12815E+07
 0.45120003E+02  0.15306E+07
 0.45170002E+02  0.13560E+07
 0.45220001E+02  0.10374E+07
 0.45270000E+02  0.72574E+06
 0.45320000E+02  0.41411E+06
 0.45370003E+02  0.14229E+06
 0.45420002E+02 -0.18692E+06
 0.45470001E+02 -0.31528E+06
 0.45520000E+02 -0.13515E+06
 0.45570000E+02 -0.21879E+05
 0.45620003E+02 -0.87153E+05
 0.45670002E+02 -0.23842E+06
 0.45720001E+02 -0.49387E+06
 0.45770000E+02 -0.95394E+06
 0.45820000E+02 -0.14518E+07
 0.45870003E+02 -0.15694E+07
 0.45920002E+02 -0.13086E+07
 0.45970001E+02 -0.96288E+06
 0.46020000E+02 -0.47548E+06
 0.46070000E+02  0.25665E+06
 0.46120003E+02  0.10620E+07
 0.46170002E+02  0.16305E+07
 0.46220001E+02  0.15536E+07
 0.46270000E+02  0.83788E+06
 0.46320000E+02 -0.13725E+06
 0.46370003E+02 -0.92690E+06
 0.46420002E+02 -0.10741E+07
 0.46470001E+02 -0.79177E+06
 0.46520000E+02 -0.69848E+06
 0.46570000E+02 -0.75330E+06
 0.46620003E+02 -0.58435E+06
 0.46670002E+02 -0.31700E+06
 0.46720001E+02 -0.34735E+06
 0.46770000E+02 -0.43446E+06
 0.46820000E+02 -0.38239E+05
 0.46870003E+02  0.80772E+06
 0.46920002E+02  0.17435E+07
 0.46970001E+02  0.21945E+07
 0.47020000E+02  0.18390E+07
 0.47070000E+02  0.76180E+06
 0.47120003E+02 -0.49251E+06
 0.47170002E+02 -0.10184E+07
 0.47220001E+02 -0.72959E+06
 0.47270000E+02 -0.35856E+06
 0.47320000E+02 -0.38102E+06
 0.47370003E+02 -0.36568E+06
 0.47420002E+02  0.67954E+05
 0.47470001E+02  0.57220E+06
 0.47520000E+02  0.71548E+06
 0.47570000E+02  0.42106E+06
 0.47620003E+02 -0.15052E+06
 0.47670002E+02 -0.84512E+06
 0.47720001E+02 -0.13596E+07
 0.47770000E+02 -0.15934E+07
 0.47820000E+02 -0.14410E+07
 0.47870003E+02 -0.76112E+06
 0.47920002E+02  0.10902E+06
 0.47970001E+02  0.68754E+06
 0.48020000E+02  0.64466E+06
 0.48070000E+02  0.19548E+06
 0.48120003E+02  0.83109E+05
 0.48170002E+02  0.34900E+06
 0.48220001E+02  0.13448E+06
 0.48270000E+02 -0.60173E+06
 0.48320000E+02 -0.12348E+07
 0.48370003E+02 -0.14774E+07
 0.48420002E+02 -0.12456E+07
 0.48470001E+02 -0.86592E+06
 0.48520000E+02 -0.69679E+06
 0.48570000E+02 -0.76021E+06
 0.48620003E+02 -0.72872E+06
 0.48670002E+02 -0.31943E+06
 0.48720001E+02  0.16605E+06
 0.48770000E+02  0.33348E+06
 0.48820000E+02  0.28563E+06
 0.48870003E+02  0.27184E+06
 0.48920002E+02  0.23283E+06
 0.48970001E+02  0.25290E+06
 0.49020000E+02  0.36077E+06
 0.49070000E+02  0.27711E+06
 0.49120003E+02  0.15223E+06
 0.49170002E+02  0.29008E+06
 0.49220001E+02  0.61975E+06
 0.49270000E+02  0.96830E+06
 0.49320000E+02  0.11729E+07
 0.49370003E+02  0.11407E+07
 0.49420002E+02  0.91333E+06
 0.49470001E+02  0.48725E+06
 0.49520000E+02 -0.10860E+06
 0.49570000E+02 -0.66093E+06
 0.49620003E+02 -0.90079E+06
 0.49670002E+02 -0.78479E+06
 0.49720001E+02 -0.66194E+06
 0.49770000E+02 -0.83172E+06
 0.49820000E+02 -0.11926E+07
 0.49870003E+02 -0.13075E+07
 0.49920002E+02 -0.10922E+07
 0.49970001E+02 -0.10212E+07
 0.50020000E+02 -0.11538E+07
 0.50070000E+02 -0.10928E+07
 0.50120003E+02 -0.51330E+06
 0.50170002E+02  0.21173E+06
 0.50220001E+02  0.27057E+06
 0.50270000E+02 -0.21101E+06
 0.50320000E+02 -0.49708E+06
 0.50370003E+02 -0.42267E+06
 0.50420002E+02 -0.36775E+06
 0.50470001E+02 -0.70129E+06
 0.50520000E+02 -0.13840E+07
 0.50570000E+02 -0.18690E+07
 0.50620003E+02 -0.15699E+07
 0.50670002E+02 -0.45627E+06
 0.50720001E+02  0.91374E+06
 0.50770000E+02  0.19436E+07
 0.50820000E+02  0.23635E+07
 0.50870003E+02  0.22007E+07
 0.50920002E+02  0.17343E+07
 0.50970001E+02  0.13482E+07
 0.51020000E+02  0.11847E+07
 0.51070000E+02  0.10237E+07
 0.51120003E+02  0.68535E+06
 0.51170002E+02  0.27598E+06
 0.51220001E+02  0.30700E+03
 0.51270000E+02 -0.11701E+06
 0.51320000E+02 -0.20719E+06
 0.51370003E+02 -0.30472E+06
 0.51420002E+02 -0.18686E+06
 0.51470001E+02  0.17900E+06
 0.51520000E+02  0.61089E+06
 0.51570000E+02  0.11105E+07
 0.51620003E+02  0.13886E+07
 0.51670002E+02  0.11974E+07
 0.51720001E+02  0.84248E+06
 0.51770000E+02  0.61132E+06
 0.51820000E+02  0.49568E+06
 0.51870003E+02  0.49756E+06
 0.51920002E+02  0.63086E+06
 0.51970001E+02  0.79177E+06
 0.52020000E+02  0.79416E+06
 0.52070000E+02  0.50186E+06
 0.52120003E+02  0.22912E+06
 0.52170002E+02  0.22572E+06
 0.52220001E+02  0.20757E+06
 0.52270000E+02 -0.84108E+05
 0.52320000E+02 -0.54140E+06
 0.52370003E+02 -0.80802E+06
 0.52420002E+02 -0.72177E+06
 0.52470001E+02 -0.37911E+06
 0.52520000E+02 -0.57680E+05
 0.52570000E+02 -0.75447E+05
 0.52620003E+02 -0.31226E+06
 0.52670002E+02 -0.39003E+06
 0.52720001E+02 -0.65959E+05
 0.52770000E+02  0.56268E+06
 0.52820000E+02  0.11592E+07
 0.52870003E+02  0.15724E+07
 0.52920002E+02  0.17897E+07
 0.52970001E+02  0.18283E+07
 0.53020000E+02  0.16884E+07
 0.53070000E+02  0.14181E+07
 0.53120003E+02  0.11044E+07
 0.53170002E+02  0.74410E+06
 0.53220001E+02  0.49648E+06
 0.53270000E+02  0.51823E+06
 0.53320000E+02  0.82448E+06
 0.53370003E+02  0.13051E+07
 0.53420002E+02  0.17018E+07
 0.53470001E+02  0.19574E+07
 0.53520000E+02  0.20204E+07
 0.53570000E+02  0.18534E+07
 0.53620003E+02  0.16847E+07
 0.53670002E+02  0.15941E+07
 0.53720001E+02  0.14510E+07
 0.53770000E+02  0.12940E+07
 0.53820000E+02  0.13404E+07
 0.53870003E+02  0.17393E+07
 0.53920002E+02  0.24017E+07
 0.53970001E+02  0.29433E+07
 0.54020000E+02  0.30650E+07
 0.54070000E+02  0.27626E+07
 0.54120003E+02  0.22263E+07
 0.54170002E+02  0.16134E+07
 0.54220001E+02  0.85211E+06
 0.54270000E+02  0.60478E+05
 0.54320000E+02 -0.58485E+06
 0.54370003E+02 -0.10080E+07
 0.54420002E+02 -0.10650E+07
 0.54470001E+02 -0.80794E+06
 0.54520000E+02 -0.50368E+06
 0.54570000E+02 -0.26529E+06
 0.54620003E+02  0.16075E+06
 0.54670002E+02  0.69876E+06
 0.54720001E+02  0.82654E+06
 0.54770000E+02  0.46616E+06
 0.54820000E+02 -0.12298E+05
 0.54870003E+02 -0.30626E+06
 0.54920002E+02 -0.50420E+06
 0.54970001E+02 -0.80845E+06
 0.55020000E+02 -0.10548E+07
 0.55070000E+02 -0.10411E+07
 0.55120003E+02 -0.77790E+06
 0.55170002E+02 -0.39047E+06
 0.55220001E+02 -0.95216E+05
 0.55270000E+02 -0.76701E+05
 0.55320000E+02 -0.32208E+06
 0.55370003E+02 -0.59048E+06
 0.55420002E+02 -0.61913E+06
 0.55470001E+02 -0.33541E+06
 0.55520000E+02  0.44408E+05
 0.55570000E+02  0.24002E+06
 0.55620003E+02  0.26230E+06
 0.55670002E+02  0.28244E+06
 0.55720001E+02  0.35868E+06
 0.55770000E+02  0.44866E+06
 0.55820000E+02  0.41505E+06
 0.55870003E+02  0.14839E+06
 0.55920002E+02 -0.21018E+06
 0.55970001E+02 -0.41381E+06
 0.56020000E+02 -0.37064E+06
 0.56070000E+02 -0.18186E+06
 0.56120003E+02 -0.38428E+05
 0.56170002E+02  0.10233E+05
 0.56220001E+02  0.40569E+05
 0.56270000E+02  0.49760E+05
 0.56320000E+02  0.33007E+05
 0.56370003E+02 -0.50997E+05
 0.56420002E+02 -0.29937E+06
 0.56470001E+02 -0.70832E+06
 0.56520000E+02 -0.11173E+07
 0.56570000E+02 -0.13733E+07
 0.56620003E+02 -0.14996E+07
 0.56670002E+02 -0.15407E+07
 0.56720001E+02 -0.15314E+07
 0.56770000E+02 -0.14867E+07
 0.56820000E+02 -0.13660E+07
 0.56870003E+02 -0.11347E+07
 0.56920002E+02 -0.76725E+06
 0.56970001E+02 -0.26716E+06
 0.57020000E+02  0.27480E+06
 0.57070000E+02  0.58345E+06
 0.57120003E+02  0.48480E+06
 0.57170002E+02  0.10833E+06
 0.57220001E+02 -0.30256E+06
 0.57270000E+02 -0.54704E+06
 0.57320000E+02 -0.60826E+06
 0.57370003E+02 -0.58352E+06
 0.57420002E+02 -0.56513E+06
 0.57470001E+02 -0.64013E+06
 0.57520000E+02 -0.97325E+06
 0.57570000E+02 -0.15797E+07
 0.57620003E+02 -0.20683E+07
 0.57670002E+02 -0.20777E+07
 0.57720001E+02 -0.17098E+07
 0.57770000E+02 -0.13917E+07
 0.57820000E+02 -0.13245E+07
 0.57870003E+02 -0.12881E+07
 0.57920002E+02 -0.11079E+07
 0.57970001E+02 -0.92731E+06
 0.58020000E+02 -0.96940E+06
 0.58070000E+02 -0.12316E+07
 0.58120003E+02 -0.14979E+07
 0.58170002E+02 -0.16063E+07
 0.58220001E+02 -0.16140E+07
 0.58270000E+02 -0.16536E+07
 0.58320000E+02 -0.17405E+07
 0.58370003E+02 -0.17699E+07
 0.58420002E+02 -0.16458E+07
 0.58470001E+02 -0.13736E+07
 0.58520000E+02 -0.10472E+07
 0.58570000E+02 -0.84552E+06
 0.58620003E+02 -0.84876E+06
 0.58670002E+02 -0.97546E+06
 0.58720001E+02 -0.11007E+07
 0.58770000E+02 -0.11237E+07
 0.58820000E+02 -0.10711E+07
 0.58870003E+02 -0.10170E+07
 0.58920002E+02 -0.97175E+06
 0.58970001E+02 -0.87895E+06
 0.59020000E+02 -0.73468E+06
 0.59070000E+02 -0.64317E+06
 0.59120003E+02 -0.67517E+06
 0.59170002E+02 -0.78802E+06
 0.59220001E+02 -0.83821E+06
 0.59270000E+02 -0.75121E+06
 0.59320000E+02 -0.65439E+06
 0.59370003E+02 -0.62452E+06
 0.59420002E+02 -0.59546E+06
 0.59470001E+02 -0.52325E+06
 0.59520000E+02 -0.30707E+06
 0.59570000E+02  0.32278E+05
 0.59620003E+02  0.25987E+06
 0.59670002E+02  0.24614E+06
 0.59720001E+02  0.53406E+05
 0.59770000E+02 -0.17474E+06
 0.59820000E+02 -0.34700E+06
 0.59870003E+02 -0.40286E+06
 0.59920002E+02 -0.34533E+06
 0.59970001E+02 -0.27742E+06
 0.60020000E+02 -0.29804E+06
 0.60070000E+02 -0.41180E+06
 0.60120003E+02 -0.52818E+06
 0.60170002E+02 -0.63179E+06
 0.60220001E+02 -0.70836E+06
 0.60270000E+02 -0.72777E+06
 0.60320000E+02 -0.68152E+06
 0.60370003E+02 -0.57099E+06
 0.60420002E+02 -0.43521E+06
 0.60470001E+02 -0.21748E+06
 0.60520000E+02  0.94744E+05
 0.60570000E+02  0.46404E+06
 0.60620003E+02  0.86949E+06
 0.60670002E+02  0.12488E+07
 0.60720001E+02  0.15235E+07
 0.60770000E+02  0.15885E+07
 0.60820000E+02  0.14145E+07
 0.60870003E+02  0.10681E+07
 0.60920002E+02  0.65632E+06
 0.60970001E+02  0.21673E+06
 0.61020000E+02 -0.21094E+06
 0.61070000E+02 -0.50452E+06
 0.61120003E+02 -0.62445E+06
 0.61170002E+02 -0.61162E+06
 0.61220001E+02 -0.52972E+06
 0.61270000E+02 -0.41898E+06
 0.61320000E+02 -0.21780E+06
 0.61370003E+02  0.17275E+06
 0.61420002E+02  0.73994E+06
 0.61470001E+02  0.13915E+07
 0.61520000E+02  0.20122E+07
 0.61570000E+02  0.24648E+07
 0.61620003E+02  0.26413E+07
 0.61670002E+02  0.25330E+07
 0.61720001E+02  0.22712E+07
 0.61770000E+02  0.20330E+07
 0.61820000E+02  0.18541E+07
 0.61870003E+02  0.16103E+07
 0.61920002E+02  0.13294E+07
 0.61970001E+02  0.11489E+07
 0.62020000E+02  0.10767E+07
 0.62070004E+02  0.10407E+07
 0.62119999E+02  0.91644E+06
 0.62170002E+02  0.66554E+06
 0.62220005E+02  0.35697E+06
 0.62270000E+02  0.32722E+05
 0.62320004E+02 -0.29469E+06
 0.62369999E+02 -0.57314E+06
 0.62420002E+02 -0.71450E+06
 0.62470005E+02 -0.64707E+06
 0.62520000E+02 -0.32030E+06
 0.62570004E+02  0.18676E+06
 0.62619999E+02  0.68892E+06
 0.62670002E+02  0.11055E+07
 0.62720005E+02  0.14431E+07
 0.62770000E+02  0.16594E+07
 0.62820004E+02  0.16979E+07
 0.62869999E+02  0.15239E+07
 0.62920002E+02  0.11577E+07
 0.62970005E+02  0.73822E+06
 0.63020000E+02  0.40404E+06
 0.63070004E+02  0.18020E+06
 0.63119999E+02  0.18435E+05
 0.63170002E+02 -0.12836E+06
 0.63220005E+02 -0.23372E+06
 0.63270000E+02 -0.21794E+06
 0.63320004E+02 -0.91068E+05
 0.63369999E+02  0.71668E+05
 0.63420002E+02  0.17903E+06
 0.63470005E+02  0.10419E+06
 0.63520000E+02 -0.13927E+06
 0.63570004E+02 -0.47222E+06
 0.63619999E+02 -0.85588E+06
 0.63670002E+02 -0.11776E+07
 0.63720005E+02 -0.13473E+07
 0.63770000E+02 -0.13737E+07
 0.63820004E+02 -0.13203E+07
 0.63869999E+02 -0.12308E+07
 0.63920002E+02 -0.10950E+07
 0.63970005E+02 -0.91056E+06
 0.64019997E+02 -0.66586E+06
 0.64070000E+02 -0.30684E+06
 0.64119995E+02  0.13776E+06
 0.64169998E+02  0.55279E+06
 0.64220001E+02  0.88540E+06
 0.64269997E+02  0.11286E+07
 0.64320000E+02  0.12639E+07
 0.64369995E+02  0.12659E+07
 0.64419998E+02  0.11705E+07
 0.64470001E+02  0.10669E+07
 0.64519997E+02  0.99421E+06
 0.64570000E+02  0.89777E+06
 0.64619995E+02  0.72012E+06
 0.64669998E+02  0.48128E+06
 0.64720001E+02  0.20139E+06
 0.64769997E+02 -0.79500E+05
 0.64820000E+02 -0.35281E+06
 0.64869995E+02 -0.66916E+06
 0.64919998E+02 -0.10265E+07
 0.64970001E+02 -0.13756E+07
 0.65019997E+02 -0.16100E+07
 0.65070000E+02 -0.16613E+07
 0.65119995E+02 -0.15550E+07
 0.65169998E+02 -0.13605E+07
 0.65220001E+02 -0.11668E+07
 0.65269997E+02 -0.98520E+06
 0.65320000E+02 -0.79476E+06
 0.65369995E+02 -0.58139E+06
 0.65419998E+02 -0.33317E+06
 0.65470001E+02 -0.75120E+05
 0.65519997E+02  0.19475E+06
 0.65570000E+02  0.51054E+06
 0.65619995E+02  0.89696E+06
 0.65669998E+02  0.12869E+07
 0.65720001E+02  0.15630E+07
 0.65769997E+02  0.16873E+07
 0.65820000E+02  0.16778E+07
 0.65869995E+02  0.15825E+07
 0.65919998E+02  0.14345E+07
 0.65970001E+02  0.12569E+07
 0.66019997E+02  0.10562E+07
 0.66070000E+02  0.84488E+06
 0.66119995E+02  0.70705E+06
 0.66169998E+02  0.66572E+06
 0.66220001E+02  0.64661E+06
 0.66269997E+02  0.59786E+06
 0.66320000E+02  0.52637E+06
 0.66369995E+02  0.45179E+06
 0.66419998E+02  0.36993E+06
 0.66470001E+02  0.25605E+06
 0.66519997E+02  0.12342E+06
 0.66570000E+02  0.17138E+05
 0.66619995E+02 -0.32149E+05
 0.66669998E+02 -0.90370E+04
 0.66720001E+02  0.54869E+05
 0.66769997E+02  0.12270E+06
 0.66820000E+02  0.16434E+06
 0.66869995E+02  0.12823E+06
 0.66919998E+02 -0.34220E+04
 0.66970001E+02 -0.16212E+06
 0.67019997E+02 -0.26771E+06
 0.67070000E+02 -0.32982E+06
 0.67119995E+02 -0.37850E+06
 0.67169998E+02 -0.40809E+06
 0.67220001E+02 -0.43256E+06
 0.67269997E+02 -0.44972E+06
 0.67320000E+02 -0.43296E+06
 0.67369995E+02 -0.38368E+06
 0.67419998E+02 -0.30374E+06
 0.67470001E+02 -0.20981E+06
 0.67519997E+02 -0.83000E+05
 0.67570000E+02  0.12356E+06
 0.67619995E+02  0.38155E+06
 0.67669998E+02  0.61468E+06
 0.67720001E+02  0.77316E+06
 0.67769997E+02  0.88374E+06
 0.67820000E+02  0.10005E+07
 0.67869995E+02  0.11262E+07
 0.67919998E+02  0.11721E+07
 0.67970001E+02  0.10479E+07
 0.68019997E+02  0.77811E+06
 0.68070000E+02  0.42882E+06
 0.68119995E+02  0.27728E+05
 0.68169998E+02 -0.42117E+06
 0.68220001E+02 -0.90422E+06
 0.68269997E+02 -0.13625E+07
 0.68320000E+02 -0.17149E+07
 0.68369995E+02 -0.19594E+07
 0.68419998E+02 -0.21459E+07
 0.68470001E+02 -0.22954E+07
 0.68519997E+02 -0.23976E+07
 0.68570000E+02 -0.24232E+07
 0.68619995E+02 -0.23924E+07
 0.68669998E+02 -0.23225E+07
 0.68720001E+02 -0.21986E+07
 0.68769997E+02 -0.20449E+07
 0.68820000E+02 -0.18757E+07
 0.68869995E+02 -0.16737E+07
 0.68919998E+02 -0.14234E+07
 0.68970001E+02 -0.11472E+07
 0.69019997E+02 -0.84622E+06
 0.69070000E+02 -0.45547E+06
 0.69119995E+02  0.23622E+05
 0.69169998E+02  0.50336E+06
 0.69220001E+02  0.93033E+06
 0.69269997E+02  0.13110E+07
 0.69320000E+02  0.16454E+07
 0.69369995E+02  0.18569E+07
 0.69419998E+02  0.18408E+07
 0.69470001E+02  0.16093E+07
 0.69519997E+02  0.12974E+07
 0.69570000E+02  0.10175E+07
 0.69619995E+02  0.77814E+06
 0.69669998E+02  0.55317E+06
 0.69720001E+02  0.36673E+06
 0.69769997E+02  0.26770E+06
 0.69820000E+02  0.24706E+06
 0.69869995E+02  0.27119E+06
 0.69919998E+02  0.34339E+06
 0.69970001E+02  0.45904E+06
 0.70019997E+02  0.58432E+06
 0.70070000E+02  0.68295E+06
 0.70119995E+02  0.68900E+06
 0.70169998E+02  0.52418E+06
 0.70220001E+02  0.25311E+06
 0.70269997E+02  0.34170E+05
 0.70320000E+02 -0.68440E+05
 0.70369995E+02 -0.10307E+06
 0.70419998E+02 -0.14145E+06
 0.70470001E+02 -0.16662E+06
 0.70519997E+02 -0.12894E+06
 0.70570000E+02 -0.57240E+04
 0.70619995E+02  0.20444E+06
 0.70669998E+02  0.44528E+06
 0.70720001E+02  0.63435E+06
 0.70769997E+02  0.70929E+06
 0.70820000E+02  0.66541E+06
 0.70869995E+02  0.54658E+06
 0.70919998E+02  0.40853E+06
 0.70970001E+02  0.28024E+06
 0.71019997E+02  0.12418E+06
 0.71070000E+02 -0.81593E+05
 0.71119995E+02 -0.28608E+06
 0.71169998E+02 -0.43488E+06
 0.71220001E+02 -0.47791E+06
 0.71269997E+02 -0.39626E+06
 0.71320000E+02 -0.24282E+06
 0.71369995E+02 -0.91123E+05
 0.71419998E+02  0.13580E+05
 0.71470001E+02  0.86557E+05
 0.71519997E+02  0.15459E+06
 0.71570000E+02  0.20264E+06
 0.71619995E+02  0.21195E+06
 0.71669998E+02  0.18449E+06
 0.71720001E+02  0.11865E+06
 0.71769997E+02  0.35151E+05
 0.71820000E+02  0.70660E+04
 0.71869995E+02  0.75413E+05
 0.71919998E+02  0.17869E+06
 0.71970001E+02  0.22193E+06
 0.72019997E+02  0.19583E+06
 0.72070000E+02  0.14224E+06
 0.72119995E+02  0.78552E+05
 0.72169998E+02  0.89300E+04
 0.72220001E+02 -0.68502E+05
 0.72269997E+02 -0.16341E+06
 0.72320000E+02 -0.29172E+06
 0.72369995E+02 -0.42497E+06
 0.72419998E+02 -0.50940E+06
 0.72470001E+02 -0.51229E+06
 0.72519997E+02 -0.43699E+06
 0.72570000E+02 -0.33781E+06
 0.72619995E+02 -0.22713E+06
 0.72669998E+02 -0.10462E+06
 0.72720001E+02 -0.45340E+04
 0.72769997E+02  0.73521E+05
 0.72820000E+02  0.14392E+06
 0.72869995E+02  0.21313E+06
 0.72919998E+02  0.26734E+06
 0.72970001E+02  0.28040E+06
 0.73019997E+02  0.25145E+06
 0.73070000E+02  0.23608E+06
 0.73119995E+02  0.28786E+06
 0.73169998E+02  0.37192E+06
 0.73220001E+02  0.42378E+06
 0.73269997E+02  0.39172E+06
 0.73320000E+02  0.26137E+06
 0.73369995E+02  0.67527E+05
 0.73419998E+02 -0.16212E+06
 0.73470001E+02 -0.41620E+06
 0.73519997E+02 -0.68324E+06
 0.73570000E+02 -0.91613E+06
 0.73619995E+02 -0.10306E+07
 0.73669998E+02 -0.98858E+06
 0.73720001E+02 -0.84382E+06
 0.73769997E+02 -0.69014E+06
 0.73820000E+02 -0.57741E+06
 0.73869995E+02 -0.51889E+06
 0.73919998E+02 -0.51292E+06
 0.73970001E+02 -0.54344E+06
 0.74019997E+02 -0.59653E+06
 0.74070000E+02 -0.63688E+06
 0.74119995E+02 -0.62794E+06
 0.74169998E+02 -0.54764E+06
 0.74220001E+02 -0.40340E+06
 0.74269997E+02 -0.22779E+06
 0.74320000E+02 -0.40535E+05
 0.74369995E+02  0.13031E+06
 0.74419998E+02  0.27320E+06
 0.74470001E+02  0.39652E+06
 0.74519997E+02  0.50805E+06
 0.74570000E+02  0.60365E+06
 0.74619995E+02  0.64011E+06
 0.74669998E+02  0.58059E+06
 0.74720001E+02  0.44212E+06
 0.74769997E+02  0.29710E+06
 0.74820000E+02  0.21089E+06
 0.74869995E+02  0.19736E+06
 0.74919998E+02  0.23849E+06
 0.74970001E+02  0.31452E+06
 0.75019997E+02  0.41611E+06
 0.75070000E+02  0.51641E+06
 0.75119995E+02  0.59721E+06
 0.75169998E+02  0.66796E+06
 0.75220001E+02  0.72483E+06
 0.75269997E+02  0.71470E+06
 0.75320000E+02  0.59633E+06
 0.75369995E+02  0.41129E+06
 0.75419998E+02  0.23052E+06
 0.75470001E+02  0.92659E+05
 0.75519997E+02 -0.12776E+05
 0.75570000E+02 -0.88841E+05
 0.75619995E+02 -0.12977E+06
 0.75669998E+02 -0.14945E+06
 0.75720001E+02 -0.13451E+06
 0.75769997E+02 -0.64618E+05
 0.75820000E+02  0.58383E+05
 0.75869995E+02  0.19049E+06
 0.75919998E+02  0.28929E+06
 0.75970001E+02  0.35253E+06
 0.76019997E+02  0.37076E+06
 0.76070000E+02  0.34976E+06
 0.76119995E+02  0.29337E+06
 0.76169998E+02  0.19194E+06
 0.76220001E+02  0.45891E+05
 0.76269997E+02 -0.13897E+06
 0.76320000E+02 -0.34836E+06
 0.76369995E+02 -0.58318E+06
 0.76419998E+02 -0.84174E+06
 0.76470001E+02 -0.10964E+07
 0.76519997E+02 -0.12876E+07
 0.76570000E+02 -0.13706E+07
 0.76619995E+02 -0.13602E+07
 0.76669998E+02 -0.12870E+07
 0.76720001E+02 -0.11787E+07
 0.76769997E+02 -0.10471E+07
 0.76820000E+02 -0.90817E+06
 0.76869995E+02 -0.78183E+06
 0.76919998E+02 -0.65269E+06
 0.76970001E+02 -0.52172E+06
 0.77019997E+02 -0.42016E+06
 0.77070000E+02 -0.34857E+06
 0.77119995E+02 -0.27491E+06
 0.77169998E+02 -0.20617E+06
 0.77220001E+02 -0.18623E+06
 0.77269997E+02 -0.21262E+06
 0.77320000E+02 -0.24014E+06
 0.77369995E+02 -0.22830E+06
 0.77419998E+02 -0.16433E+06
 0.77470001E+02 -0.58894E+05
 0.77519997E+02  0.82703E+05
 0.77570000E+02  0.24646E+06
 0.77619995E+02  0.41090E+06
 0.77669998E+02  0.57581E+06
 0.77720001E+02  0.73178E+06
 0.77769997E+02  0.84722E+06
 0.77820000E+02  0.91438E+06
 0.77869995E+02  0.95797E+06
 0.77919998E+02  0.99786E+06
 0.77970001E+02  0.10378E+07
 0.78019997E+02  0.10703E+07
 0.78070000E+02  0.10886E+07
 0.78119995E+02  0.10939E+07
 0.78169998E+02  0.10906E+07
 0.78220001E+02  0.10913E+07
 0.78269997E+02  0.10918E+07
 0.78320000E+02  0.10683E+07
 0.78369995E+02  0.10152E+07
 0.78419998E+02  0.93009E+06
 0.78470001E+02  0.79734E+06
 0.78519997E+02  0.63039E+06
 0.78570000E+02  0.45978E+06
 0.78619995E+02  0.28322E+06
 0.78669998E+02  0.76003E+05
 0.78720001E+02 -0.16973E+06
 0.78769997E+02 -0.42216E+06
 0.78820000E+02 -0.64613E+06
 0.78869995E+02 -0.82740E+06
 0.78919998E+02 -0.96250E+06
 0.78970001E+02 -0.10632E+07
 0.79019997E+02 -0.11306E+07
 0.79070000E+02 -0.11375E+07
 0.79119995E+02 -0.10518E+07
 0.79169998E+02 -0.88498E+06
 0.79220001E+02 -0.69478E+06
 0.79269997E+02 -0.52619E+06
 0.79320000E+02 -0.37609E+06
 0.79369995E+02 -0.23310E+06
 0.79419998E+02 -0.11162E+06
 0.79470001E+02 -0.15920E+05
 0.79519997E+02  0.53891E+05
 0.79570000E+02  0.90958E+05
 0.79619995E+02  0.91069E+05
 0.79669998E+02  0.57414E+05
 0.79720001E+02  0.10845E+05
 0.79769997E+02 -0.38172E+05
 0.79820000E+02 -0.84972E+05
 0.79869995E+02 -0.10105E+06
 0.79919998E+02 -0.69438E+05
 0.79970001E+02 -0.29911E+05
 0.80019997E+02 -0.31523E+05
 0.80070000E+02 -0.68097E+05
 0.80119995E+02 -0.10659E+06
 0.80169998E+02 -0.15012E+06
 0.80220001E+02 -0.21901E+06
 0.80269997E+02 -0.29792E+06
 0.80320000E+02 -0.36572E+06
 0.80369995E+02 -0.42482E+06
 0.80419998E+02 -0.46675E+06
 0.80470001E+02 -0.45716E+06
 0.80519997E+02 -0.37734E+06
 0.80570000E+02 -0.24595E+06
 0.80619995E+02 -0.10244E+06
 0.80669998E+02  0.27812E+05
 0.80720001E+02  0.16165E+06
 0.80769997E+02  0.30144E+06
 0.80820000E+02  0.40751E+06
 0.80869995E+02  0.45800E+06
 0.80919998E+02  0.46636E+06
 0.80970001E+02  0.43812E+06
 0.81019997E+02  0.35873E+06
 0.81070000E+02  0.24423E+06
 0.81119995E+02  0.12794E+06
 0.81169998E+02  0.25226E+05
 0.81220001E+02 -0.49175E+05
 0.81269997E+02 -0.83442E+05
 0.81320000E+02 -0.87902E+05
 0.81369995E+02 -0.94592E+05
 0.81419998E+02 -0.10918E+06
 0.81470001E+02 -0.10562E+06
 0.81519997E+02 -0.70761E+05
 0.81570000E+02 -0.10091E+05
 0.81619995E+02  0.72266E+05
 0.81669998E+02  0.17039E+06
 0.81720001E+02  0.26556E+06
 0.81769997E+02  0.33866E+06
 0.81820000E+02  0.36743E+06
 0.81869995E+02  0.34291E+06
 0.81919998E+02  0.27638E+06
 0.81970001E+02  0.18015E+06
 0.82019997E+02  0.60532E+05
 0.82070000E+02 -0.71520E+05
 0.82119995E+02 -0.17633E+06
 0.82169998E+02 -0.20735E+06
 0.82220001E+02 -0.14352E+06
 0.82269997E+02 -0.90440E+04
 0.82320000E+02  0.15013E+06
 0.82369995E+02  0.32106E+06
 0.82419998E+02  0.49996E+06
 0.82470001E+02  0.65364E+06
 0.82519997E+02  0.75149E+06
 0.82570000E+02  0.79225E+06
 0.82619995E+02  0.78984E+06
 0.82669998E+02  0.75594E+06
 0.82720001E+02  0.68480E+06
 0.82769997E+02  0.56914E+06
 0.82820000E+02  0.41261E+06
 0.82869995E+02  0.23055E+06
 0.82919998E+02  0.70780E+05
 0.82970001E+02 -0.18613E+05
 0.83019997E+02 -0.35085E+05
 0.83070000E+02 -0.21978E+05
 0.83119995E+02 -0.31857E+05
 0.83169998E+02 -0.82331E+05
 0.83220001E+02 -0.15343E+06
 0.83269997E+02 -0.20994E+06
 0.83320000E+02 -0.24325E+06
 0.83369995E+02 -0.27363E+06
 0.83419998E+02 -0.30273E+06
 0.83470001E+02 -0.31472E+06
 0.83519997E+02 -0.31227E+06
 0.83570000E+02 -0.30078E+06
 0.83619995E+02 -0.27531E+06
 0.83669998E+02 -0.25178E+06
 0.83720001E+02 -0.24651E+06
 0.83769997E+02 -0.25087E+06
 0.83820000E+02 -0.24515E+06
 0.83869995E+02 -0.21823E+06
 0.83919998E+02 -0.17060E+06
 0.83970001E+02 -0.98230E+05
 0.84019997E+02 -0.14651E+05
 0.84070000E+02  0.51830E+05
 0.84119995E+02  0.85932E+05
 0.84169998E+02  0.83149E+05
 0.84220001E+02  0.48102E+05
 0.84269997E+02  0.38500E+03
 0.84320000E+02 -0.37854E+05
 0.84369995E+02 -0.75423E+05
 0.84419998E+02 -0.12006E+06
 0.84470001E+02 -0.14738E+06
 0.84519997E+02 -0.13704E+06
 0.84570000E+02 -0.91708E+05
 0.84619995E+02 -0.22763E+05
 0.84669998E+02  0.64389E+05
 0.84720001E+02  0.14894E+06
 0.84769997E+02  0.19173E+06
 0.84820000E+02  0.17469E+06
 0.84869995E+02  0.12876E+06
 0.84919998E+02  0.86053E+05
 0.84970001E+02  0.31196E+05
 0.85019997E+02 -0.38734E+05
 0.85070000E+02 -0.97664E+05
 0.85119995E+02 -0.12857E+06
 0.85169998E+02 -0.13224E+06
 0.85220001E+02 -0.11164E+06
 0.85269997E+02 -0.57235E+05
 0.85320000E+02  0.14759E+05
 0.85369995E+02  0.83501E+05
 0.85419998E+02  0.15912E+06
 0.85470001E+02  0.24574E+06
 0.85519997E+02  0.32448E+06
 0.85570000E+02  0.37344E+06
 0.85619995E+02  0.39306E+06
 0.85669998E+02  0.38336E+06
 0.85720001E+02  0.33448E+06
 0.85769997E+02  0.24795E+06
 0.85820000E+02  0.12697E+06
 0.85869995E+02 -0.12760E+05
 0.85919998E+02 -0.13479E+06
 0.85970001E+02 -0.20759E+06
 0.86019997E+02 -0.22373E+06
 0.86070000E+02 -0.19158E+06
 0.86119995E+02 -0.12331E+06
 0.86169998E+02 -0.34255E+05
 0.86220001E+02  0.56274E+05
 0.86269997E+02  0.12621E+06
 0.86320000E+02  0.15931E+06
 0.86369995E+02  0.15196E+06
 0.86419998E+02  0.12078E+06
 0.86470001E+02  0.83157E+05
 0.86519997E+02  0.43520E+05
 0.86570000E+02  0.93870E+04
 0.86619995E+02 -0.17149E+05
 0.86669998E+02 -0.43338E+05
 0.86720001E+02 -0.80601E+05
 0.86769997E+02 -0.12509E+06
 0.86820000E+02 -0.15603E+06
 0.86869995E+02 -0.18609E+06
 0.86919998E+02 -0.25309E+06
 0.86970001E+02 -0.36769E+06
 0.87019997E+02 -0.49913E+06
 0.87070000E+02 -0.59734E+06
 0.87119995E+02 -0.64283E+06
 0.87169998E+02 -0.66085E+06
 0.87220001E+02 -0.68756E+06
 0.87269997E+02 -0.72854E+06
 0.87320000E+02 -0.76120E+06
 0.87369995E+02 -0.76885E+06
 0.87419998E+02 -0.74223E+06
 0.87470001E+02 -0.68858E+06
 0.87519997E+02 -0.61831E+06
 0.87570000E+02 -0.52624E+06
 0.87619995E+02 -0.40162E+06
 0.87669998E+02 -0.23556E+06
 0.87720001E+02 -0.38788E+05
 0.87769997E+02  0.17049E+06
 0.87820000E+02  0.36537E+06
 0.87869995E+02  0.51441E+06
 0.87919998E+02  0.59351E+06
 0.87970001E+02  0.58505E+06
 0.88019997E+02  0.50617E+06
 0.88070000E+02  0.38302E+06
 0.88119995E+02  0.23127E+06
 0.88169998E+02  0.71406E+05
 0.88220001E+02 -0.69984E+05
 0.88269997E+02 -0.16010E+06
 0.88320000E+02 -0.18171E+06
 0.88369995E+02 -0.13534E+06
 0.88419998E+02 -0.52487E+05
 0.88470001E+02  0.30998E+05
 0.88519997E+02  0.11456E+06
 0.88570000E+02  0.18911E+06
 0.88619995E+02  0.23611E+06
 0.88669998E+02  0.25672E+06
 0.88720001E+02  0.26818E+06
 0.88769997E+02  0.26075E+06
 0.88820000E+02  0.18841E+06
 0.88869995E+02  0.45373E+05
 0.88919998E+02 -0.12371E+06
 0.88970001E+02 -0.28446E+06
 0.89019997E+02 -0.42798E+06
 0.89070000E+02 -0.54504E+06
 0.89119995E+02 -0.62263E+06
 0.89169998E+02 -0.65066E+06
 0.89220001E+02 -0.62821E+06
 0.89269997E+02 -0.56084E+06
 0.89320000E+02 -0.44924E+06
 0.89369995E+02 -0.30150E+06
 0.89419998E+02 -0.13973E+06
 0.89470001E+02  0.12366E+05
 0.89519997E+02  0.14499E+06
 0.89570000E+02  0.25215E+06
 0.89619995E+02  0.32920E+06
 0.89669998E+02  0.37671E+06
 0.89720001E+02  0.38912E+06
 0.89769997E+02  0.36686E+06
 0.89820000E+02  0.31414E+06
 0.89869995E+02  0.23776E+06
 0.89919998E+02  0.15862E+06
 0.89970001E+02  0.96681E+05
 0.90019997E+02  0.62029E+05
 0.90070000E+02  0.55627E+05
 0.90119995E+02  0.67236E+05
 0.90169998E+02  0.84331E+05
 0.90220001E+02  0.99765E+05
 0.90269997E+02  0.11394E+06
 0.90320000E+02  0.13124E+06
 0.90369995E+02  0.14748E+06
 0.90419998E+02  0.16310E+06
 0.90470001E+02  0.18912E+06
 0.90519997E+02  0.22220E+06
 0.90570000E+02  0.24439E+06
 0.90619995E+02  0.24455E+06
 0.90669998E+02  0.22880E+06
 0.90720001E+02  0.20994E+06
 0.90769997E+02  0.19742E+06
 0.90820000E+02  0.19391E+06
 0.90869995E+02  0.20113E+06
 0.90919998E+02  0.22448E+06
 0.90970001E+02  0.26666E+06
 0.91019997E+02  0.32880E+06
 0.91070000E+02  0.39813E+06
 0.91119995E+02  0.45712E+06
 0.91169998E+02  0.49800E+06
 0.91220001E+02  0.52002E+06
 0.91269997E+02  0.53056E+06
 0.91320000E+02  0.53109E+06
 0.91369995E+02  0.52627E+06
 0.91419998E+02  0.51383E+06
 0.91470001E+02  0.47526E+06
 0.91519997E+02  0.40632E+06
 0.91570000E+02  0.31930E+06
 0.91619995E+02  0.23753E+06
 0.91669998E+02  0.17596E+06
 0.91720001E+02  0.13250E+06
 0.91769997E+02  0.10562E+06
 0.91820000E+02  0.91202E+05
 0.91869995E+02  0.82974E+05
 0.91919998E+02  0.71912E+05
 0.91970001E+02  0.45576E+05
 0.92019997E+02  0.35270E+04
 0.92070000E+02 -0.39717E+05
 0.92119995E+02 -0.74957E+05
 0.92169998E+02 -0.10754E+06
 0.92220001E+02 -0.14298E+06
 0.92269997E+02 -0.18242E+06
 0.92320000E+02 -0.22157E+06
 0.92369995E+02 -0.24435E+06
 0.92419998E+02 -0.23693E+06
 0.92470001E+02 -0.20185E+06
 0.92519997E+02 -0.15442E+06
 0.92570000E+02 -0.11674E+06
 0.92619995E+02 -0.98804E+05
 0.92669998E+02 -0.88691E+05
 0.92720001E+02 -0.75713E+05
 0.92769997E+02 -0.66114E+05
 0.92820000E+02 -0.73844E+05
 0.92869995E+02 -0.11100E+06
 0.92919998E+02 -0.17488E+06
 0.92970001E+02 -0.24562E+06
 0.93019997E+02 -0.30191E+06
 0.93070000E+02 -0.33640E+06
 0.93119995E+02 -0.36202E+06
 0.93169998E+02 -0.38617E+06
 0.93220001E+02 -0.40406E+06
 0.93269997E+02 -0.41412E+06
 0.93320000E+02 -0.40843E+06
 0.93369995E+02 -0.37594E+06
 0.93419998E+02 -0.31768E+06
 0.93470001E+02 -0.24781E+06
 0.93519997E+02 -0.16979E+06
 0.93570000E+02 -0.83117E+05
 0.93619995E+02 -0.84220E+04
 0.93669998E+02  0.47296E+05
 0.93720001E+02  0.10272E+06
 0.93769997E+02  0.16510E+06
 0.93820000E+02  0.21432E+06
 0.93869995E+02  0.23517E+06
 0.93919998E+02  0.25008E+06
 0.93970001E+02  0.28624E+06
 0.94019997E+02  0.33458E+06
 0.94070000E+02  0.36226E+06
 0.94119995E+02  0.35384E+06
 0.94169998E+02  0.31960E+06
 0.94220001E+02  0.27303E+06
 0.94269997E+02  0.21797E+06
 0.94320000E+02  0.15374E+06
 0.94369995E+02  0.87134E+05
 0.94419998E+02  0.30857E+05
 0.94470001E+02  0.42450E+04
 0.94519997E+02  0.16818E+05
 0.94570000E+02  0.45188E+05
 0.94619995E+02  0.58467E+05
 0.94669998E+02  0.54428E+05
 0.94720001E+02  0.46533E+05
 0.94769997E+02  0.41730E+05
 0.94820000E+02  0.45568E+05
 0.94869995E+02  0.56779E+05
 0.94919998E+02  0.60500E+05
 0.94970001E+02  0.42871E+05
 0.95019997E+02  0.14878E+05
 0.95070000E+02 -0.73960E+04
 0.95119995E+02 -0.30540E+05
 0.95169998E+02 -0.59796E+05
 0.95220001E+02 -0.93920E+05
 0.95269997E+02 -0.13132E+06
 0.95320000E+02 -0.16174E+06
 0.95369995E+02 -0.17675E+06
 0.95419998E+02 -0.19129E+06
 0.95470001E+02 -0.22163E+06
 0.95519997E+02 -0.24995E+06
 0.95570000E+02 -0.26490E+06
 0.95619995E+02 -0.28672E+06
 0.95669998E+02 -0.32378E+06
 0.95720001E+02 -0.36996E+06
 0.95769997E+02 -0.42033E+06
 0.95820000E+02 -0.45977E+06
 0.95869995E+02 -0.47802E+06
 0.95919998E+02 -0.48024E+06
 0.95970001E+02 -0.47703E+06
 0.96019997E+02 -0.47782E+06
 0.96070000E+02 -0.48314E+06
 0.96119995E+02 -0.49011E+06
 0.96169998E+02 -0.48922E+06
 0.96220001E+02 -0.46834E+06
 0.96269997E+02 -0.42988E+06
 0.96320000E+02 -0.38019E+06
 0.96369995E+02 -0.32183E+06
 0.96419998E+02 -0.25237E+06
 0.96470001E+02 -0.16595E+06
 0.96519997E+02 -0.71971E+05
 0.96570000E+02  0.11926E+05
 0.96619995E+02  0.82576E+05
 0.96669998E+02  0.14352E+06
 0.96720001E+02  0.19133E+06
 0.96769997E+02  0.23213E+06
 0.96820000E+02  0.29600E+06
 0.96869995E+02  0.39269E+06
 0.96919998E+02  0.48784E+06
 0.96970001E+02  0.54589E+06
 0.97019997E+02  0.55515E+06
 0.97070000E+02  0.52857E+06
 0.97119995E+02  0.48940E+06
 0.97169998E+02  0.45920E+06
 0.97220001E+02  0.45060E+06
 0.97269997E+02  0.46230E+06
 0.97320000E+02  0.48548E+06
 0.97369995E+02  0.49705E+06
 0.97419998E+02  0.47778E+06
 0.97470001E+02  0.43638E+06
 0.97519997E+02  0.39317E+06
 0.97570000E+02  0.35105E+06
 0.97619995E+02  0.29100E+06
 0.97669998E+02  0.19352E+06
 0.97720001E+02  0.57294E+05
 0.97769997E+02 -0.91768E+05
 0.97820000E+02 -0.22097E+06
 0.97869995E+02 -0.32372E+06
 0.97919998E+02 -0.41631E+06
 0.97970001E+02 -0.49893E+06
 0.98019997E+02 -0.54769E+06
