-0.19800000E+01  0.21173E+05
-0.19300001E+01  0.86410E+04
-0.18800000E+01 -0.38490E+04
-0.18300000E+01 -0.16117E+05
-0.17800000E+01 -0.26432E+05
-0.17300000E+01 -0.33119E+05
-0.16800001E+01 -0.35512E+05
-0.16300000E+01 -0.33077E+05
-0.15800000E+01 -0.24410E+05
-0.15300000E+01 -0.10605E+05
-0.14800000E+01  0.42660E+04
-0.14300001E+01  0.17725E+05
-0.13800000E+01  0.28406E+05
-0.13299999E+01  0.36532E+05
-0.12800000E+01  0.42786E+05
-0.12300000E+01  0.45750E+05
-0.11800001E+01  0.44937E+05
-0.11300000E+01  0.41354E+05
-0.10799999E+01  0.34473E+05
-0.10300000E+01  0.24529E+05
-0.98000002E+00  0.12971E+05
-0.92999995E+00  0.52000E+02
-0.88000000E+00 -0.13144E+05
-0.83000004E+00 -0.26442E+05
-0.77999997E+00 -0.38973E+05
-0.73000002E+00 -0.47310E+05
-0.67999995E+00 -0.50072E+05
-0.63000000E+00 -0.47485E+05
-0.58000004E+00 -0.39990E+05
-0.52999997E+00 -0.28979E+05
-0.48000002E+00 -0.17086E+05
-0.42999995E+00 -0.71370E+04
-0.38000000E+00 -0.81800E+03
-0.33000004E+00  0.97100E+03
-0.27999997E+00 -0.24350E+04
-0.23000002E+00 -0.10768E+05
-0.17999995E+00 -0.22485E+05
-0.13000000E+00 -0.36265E+05
-0.80000043E-01 -0.51096E+05
-0.29999971E-01 -0.66021E+05
 0.19999981E-01 -0.80330E+05
 0.69999933E-01 -0.92636E+05
 0.12000012E+00 -0.10276E+06
 0.17000008E+00 -0.11217E+06
 0.22000003E+00 -0.12055E+06
 0.26999998E+00 -0.12721E+06
 0.31999993E+00 -0.13158E+06
 0.37000012E+00 -0.13225E+06
 0.42000008E+00 -0.12834E+06
 0.47000003E+00 -0.11940E+06
 0.51999998E+00 -0.10565E+06
 0.56999993E+00 -0.86809E+05
 0.62000012E+00 -0.61868E+05
 0.67000008E+00 -0.31242E+05
 0.72000003E+00  0.41030E+04
 0.76999998E+00  0.41907E+05
 0.81999993E+00  0.79549E+05
 0.87000012E+00  0.11613E+06
 0.92000008E+00  0.15029E+06
 0.97000003E+00  0.18011E+06
 0.10200000E+01  0.20379E+06
 0.10699999E+01  0.22015E+06
 0.11200001E+01  0.22938E+06
 0.11700001E+01  0.23252E+06
 0.12200000E+01  0.22979E+06
 0.12700000E+01  0.22089E+06
 0.13199999E+01  0.20722E+06
 0.13700001E+01  0.19062E+06
 0.14200001E+01  0.17207E+06
 0.14700000E+01  0.15181E+06
 0.15200000E+01  0.12984E+06
 0.15699999E+01  0.10576E+06
 0.16200001E+01  0.79336E+05
 0.16700001E+01  0.51438E+05
 0.17200000E+01  0.22804E+05
 0.17700000E+01 -0.69580E+04
 0.18199999E+01 -0.37808E+05
 0.18700001E+01 -0.67919E+05
 0.19200001E+01 -0.95824E+05
 0.19700000E+01 -0.12048E+06
 0.20200000E+01 -0.14087E+06
 0.20700002E+01 -0.15685E+06
 0.21199999E+01 -0.16832E+06
 0.21700001E+01 -0.17543E+06
 0.22200003E+01 -0.17891E+06
 0.22700000E+01 -0.17903E+06
 0.23200002E+01 -0.17563E+06
 0.23699999E+01 -0.16919E+06
 0.24200001E+01 -0.16089E+06
 0.24700003E+01 -0.15081E+06
 0.25200000E+01 -0.13880E+06
 0.25700002E+01 -0.12618E+06
 0.26199999E+01 -0.11268E+06
 0.26700001E+01 -0.97991E+05
 0.27200003E+01 -0.84052E+05
 0.27700000E+01 -0.72548E+05
 0.28200002E+01 -0.64178E+05
 0.28699999E+01 -0.56934E+05
 0.29200001E+01 -0.49057E+05
 0.29700003E+01 -0.40818E+05
 0.30200000E+01 -0.31917E+05
 0.30700002E+01 -0.22145E+05
 0.31199999E+01 -0.10596E+05
 0.31700001E+01  0.27850E+04
 0.32200003E+01  0.16781E+05
 0.32700000E+01  0.30964E+05
 0.33200002E+01  0.44650E+05
 0.33699999E+01  0.56823E+05
 0.34200001E+01  0.67017E+05
 0.34700003E+01  0.76121E+05
 0.35200000E+01  0.86436E+05
 0.35700002E+01  0.98257E+05
 0.36199999E+01  0.10938E+06
 0.36700001E+01  0.11905E+06
 0.37200003E+01  0.12706E+06
 0.37700000E+01  0.13281E+06
 0.38200002E+01  0.13518E+06
 0.38699999E+01  0.13332E+06
 0.39200001E+01  0.12799E+06
 0.39700003E+01  0.11876E+06
 0.40200000E+01  0.10558E+06
 0.40700002E+01  0.89384E+05
 0.41199999E+01  0.70988E+05
 0.41700001E+01  0.51889E+05
 0.42200003E+01  0.32551E+05
 0.42700000E+01  0.13069E+05
 0.43200002E+01 -0.64540E+04
 0.43699999E+01 -0.25969E+05
 0.44200001E+01 -0.44268E+05
 0.44700003E+01 -0.60646E+05
 0.45200000E+01 -0.74448E+05
 0.45700002E+01 -0.83517E+05
 0.46199999E+01 -0.86310E+05
 0.46700001E+01 -0.83826E+05
 0.47200003E+01 -0.77107E+05
 0.47700000E+01 -0.67773E+05
 0.48200002E+01 -0.58317E+05
 0.48699999E+01 -0.48161E+05
 0.49200001E+01 -0.34693E+05
 0.49700003E+01 -0.16884E+05
 0.50200000E+01  0.35750E+04
 0.50700002E+01  0.23741E+05
 0.51199999E+01  0.41142E+05
 0.51700001E+01  0.54432E+05
 0.52200003E+01  0.62790E+05
 0.52700000E+01  0.66920E+05
 0.53200002E+01  0.67941E+05
 0.53699999E+01  0.65028E+05
 0.54200001E+01  0.58832E+05
 0.54700003E+01  0.52254E+05
 0.55200000E+01  0.46824E+05
 0.55700002E+01  0.41482E+05
 0.56199999E+01  0.35457E+05
 0.56700001E+01  0.28154E+05
 0.57200003E+01  0.18773E+05
 0.57700000E+01  0.82870E+04
 0.58200002E+01 -0.19570E+04
 0.58699999E+01 -0.10659E+05
 0.59200001E+01 -0.17997E+05
 0.59700003E+01 -0.24829E+05
 0.60200000E+01 -0.31070E+05
 0.60700002E+01 -0.37184E+05
 0.61200004E+01 -0.43726E+05
 0.61700006E+01 -0.51457E+05
 0.62199998E+01 -0.60480E+05
 0.62700000E+01 -0.70078E+05
 0.63200002E+01 -0.79482E+05
 0.63700004E+01 -0.87563E+05
 0.64200006E+01 -0.93754E+05
 0.64699998E+01 -0.97891E+05
 0.65200000E+01 -0.98971E+05
 0.65700002E+01 -0.95664E+05
 0.66200004E+01 -0.88056E+05
 0.66700006E+01 -0.76591E+05
 0.67199998E+01 -0.61087E+05
 0.67700000E+01 -0.41631E+05
 0.68200002E+01 -0.19286E+05
 0.68700004E+01  0.37440E+04
 0.69200006E+01  0.25280E+05
 0.69699998E+01  0.44513E+05
 0.70200000E+01  0.61917E+05
 0.70700002E+01  0.77338E+05
 0.71200004E+01  0.90091E+05
 0.71700006E+01  0.99772E+05
 0.72199998E+01  0.10601E+06
 0.72700000E+01  0.10853E+06
 0.73200002E+01  0.10769E+06
 0.73700004E+01  0.10468E+06
 0.74200006E+01  0.10090E+06
 0.74699998E+01  0.97228E+05
 0.75200000E+01  0.92836E+05
 0.75700002E+01  0.86561E+05
 0.76200004E+01  0.78529E+05
 0.76700006E+01  0.70079E+05
 0.77199998E+01  0.62809E+05
 0.77700000E+01  0.56186E+05
 0.78200002E+01  0.48772E+05
 0.78700004E+01  0.39634E+05
 0.79200006E+01  0.28570E+05
 0.79699998E+01  0.17222E+05
 0.80200005E+01  0.67950E+04
 0.80699997E+01 -0.33590E+04
 0.81200008E+01 -0.14344E+05
 0.81700001E+01 -0.26226E+05
 0.82199993E+01 -0.37970E+05
 0.82700005E+01 -0.48760E+05
 0.83199997E+01 -0.58657E+05
 0.83700008E+01 -0.68292E+05
 0.84200001E+01 -0.77812E+05
 0.84699993E+01 -0.86725E+05
 0.85200005E+01 -0.94050E+05
 0.85699997E+01 -0.98377E+05
 0.86200008E+01 -0.99221E+05
 0.86700001E+01 -0.98187E+05
 0.87199993E+01 -0.96316E+05
 0.87700005E+01 -0.92465E+05
 0.88199997E+01 -0.85924E+05
 0.88700008E+01 -0.76197E+05
 0.89200001E+01 -0.63876E+05
 0.89699993E+01 -0.51401E+05
 0.90200005E+01 -0.39600E+05
 0.90699997E+01 -0.27752E+05
 0.91200008E+01 -0.15034E+05
 0.91700001E+01 -0.12150E+04
 0.92199993E+01  0.12927E+05
 0.92700005E+01  0.26458E+05
 0.93199997E+01  0.39250E+05
 0.93700008E+01  0.51151E+05
 0.94200001E+01  0.61264E+05
 0.94699993E+01  0.68268E+05
 0.95200005E+01  0.70681E+05
 0.95699997E+01  0.68740E+05
 0.96200008E+01  0.63427E+05
 0.96700001E+01  0.55184E+05
 0.97199993E+01  0.44371E+05
 0.97700005E+01  0.31237E+05
 0.98199997E+01  0.16087E+05
 0.98700008E+01 -0.27500E+03
 0.99200001E+01 -0.16050E+05
 0.99699993E+01 -0.28952E+05
 0.10020000E+02 -0.37251E+05
 0.10070000E+02 -0.41398E+05
 0.10120001E+02 -0.41780E+05
 0.10170000E+02 -0.38583E+05
 0.10219999E+02 -0.33151E+05
 0.10270000E+02 -0.25707E+05
 0.10320000E+02 -0.16687E+05
 0.10370001E+02 -0.63920E+04
 0.10420000E+02  0.47980E+04
 0.10469999E+02  0.14889E+05
 0.10520000E+02  0.22594E+05
 0.10570000E+02  0.26221E+05
 0.10620001E+02  0.24172E+05
 0.10670000E+02  0.16940E+05
 0.10719999E+02  0.60830E+04
 0.10770000E+02 -0.55860E+04
 0.10820000E+02 -0.16798E+05
 0.10870001E+02 -0.27869E+05
 0.10920000E+02 -0.38014E+05
 0.10969999E+02 -0.46806E+05
 0.11020000E+02 -0.53417E+05
 0.11070000E+02 -0.55839E+05
 0.11120001E+02 -0.52632E+05
 0.11170000E+02 -0.43624E+05
 0.11219999E+02 -0.30763E+05
 0.11270000E+02 -0.17214E+05
 0.11320000E+02 -0.53810E+04
 0.11370001E+02  0.35860E+04
 0.11420000E+02  0.10728E+05
 0.11469999E+02  0.17546E+05
 0.11520000E+02  0.23743E+05
 0.11570000E+02  0.28617E+05
 0.11620001E+02  0.31468E+05
 0.11670000E+02  0.30787E+05
 0.11719999E+02  0.25590E+05
 0.11770000E+02  0.16584E+05
 0.11820000E+02  0.50030E+04
 0.11870001E+02 -0.75480E+04
 0.11920000E+02 -0.19511E+05
 0.11969999E+02 -0.30612E+05
 0.12020000E+02 -0.40094E+05
 0.12070000E+02 -0.46799E+05
 0.12120001E+02 -0.50397E+05
 0.12170000E+02 -0.50758E+05
 0.12219999E+02 -0.47991E+05
 0.12270000E+02 -0.42999E+05
 0.12320000E+02 -0.36822E+05
 0.12370001E+02 -0.29679E+05
 0.12420000E+02 -0.22135E+05
 0.12469999E+02 -0.14591E+05
 0.12520000E+02 -0.69020E+04
 0.12570000E+02  0.88300E+03
 0.12620001E+02  0.92580E+04
 0.12670000E+02  0.18915E+05
 0.12719999E+02  0.29080E+05
 0.12770000E+02  0.38361E+05
 0.12820000E+02  0.46038E+05
 0.12870001E+02  0.52043E+05
 0.12920000E+02  0.57477E+05
 0.12969999E+02  0.63308E+05
 0.13020000E+02  0.69356E+05
 0.13070000E+02  0.74559E+05
 0.13120001E+02  0.78144E+05
 0.13170000E+02  0.80465E+05
 0.13219999E+02  0.81817E+05
 0.13270000E+02  0.81813E+05
 0.13320000E+02  0.79924E+05
 0.13370001E+02  0.75378E+05
 0.13420000E+02  0.68375E+05
 0.13469999E+02  0.59936E+05
 0.13520000E+02  0.49308E+05
 0.13570000E+02  0.36153E+05
 0.13620001E+02  0.22450E+05
 0.13670000E+02  0.10262E+05
 0.13719999E+02  0.73000E+02
 0.13770000E+02 -0.87330E+04
 0.13820000E+02 -0.16279E+05
 0.13870001E+02 -0.23040E+05
 0.13920000E+02 -0.29634E+05
 0.13969999E+02 -0.35275E+05
 0.14020000E+02 -0.39440E+05
 0.14070002E+02 -0.41997E+05
 0.14120001E+02 -0.43034E+05
 0.14170000E+02 -0.42979E+05
 0.14220001E+02 -0.42347E+05
 0.14270000E+02 -0.42610E+05
 0.14320002E+02 -0.44334E+05
 0.14370001E+02 -0.46731E+05
 0.14420000E+02 -0.49090E+05
 0.14470001E+02 -0.50944E+05
 0.14520000E+02 -0.52607E+05
 0.14570002E+02 -0.54820E+05
 0.14620001E+02 -0.57209E+05
 0.14670000E+02 -0.58404E+05
 0.14720001E+02 -0.57674E+05
 0.14770000E+02 -0.55190E+05
 0.14820002E+02 -0.50518E+05
 0.14870001E+02 -0.43114E+05
 0.14920000E+02 -0.33042E+05
 0.14970001E+02 -0.20105E+05
 0.15020000E+02 -0.50710E+04
 0.15070002E+02  0.10885E+05
 0.15120001E+02  0.27353E+05
 0.15170000E+02  0.43841E+05
 0.15220001E+02  0.59319E+05
 0.15270000E+02  0.72062E+05
 0.15320002E+02  0.80408E+05
 0.15370001E+02  0.83675E+05
 0.15420000E+02  0.81729E+05
 0.15470001E+02  0.74254E+05
 0.15520000E+02  0.61439E+05
 0.15570002E+02  0.44815E+05
 0.15620001E+02  0.26268E+05
 0.15670000E+02  0.68740E+04
 0.15720001E+02 -0.13181E+05
 0.15770000E+02 -0.34243E+05
 0.15820002E+02 -0.55682E+05
 0.15870001E+02 -0.76381E+05
 0.15920000E+02 -0.94394E+05
 0.15970001E+02 -0.10669E+06
 0.16020000E+02 -0.11139E+06
 0.16070002E+02 -0.10827E+06
 0.16120001E+02 -0.98841E+05
 0.16170000E+02 -0.84608E+05
 0.16220001E+02 -0.66923E+05
 0.16270000E+02 -0.46581E+05
 0.16320002E+02 -0.23874E+05
 0.16370001E+02  0.22600E+03
 0.16420000E+02  0.25694E+05
 0.16470001E+02  0.50867E+05
 0.16520000E+02  0.73015E+05
 0.16570002E+02  0.91447E+05
 0.16620001E+02  0.10532E+06
 0.16670000E+02  0.11326E+06
 0.16720001E+02  0.11372E+06
 0.16770000E+02  0.10580E+06
 0.16820002E+02  0.91832E+05
 0.16870001E+02  0.74274E+05
 0.16920000E+02  0.54394E+05
 0.16970001E+02  0.33606E+05
 0.17020000E+02  0.12852E+05
 0.17070002E+02 -0.74480E+04
 0.17120001E+02 -0.26419E+05
 0.17170000E+02 -0.42282E+05
 0.17220001E+02 -0.54486E+05
 0.17270000E+02 -0.62976E+05
 0.17320002E+02 -0.66785E+05
 0.17370001E+02 -0.64729E+05
 0.17420000E+02 -0.57829E+05
 0.17470001E+02 -0.48060E+05
 0.17520000E+02 -0.35718E+05
 0.17570002E+02 -0.22329E+05
 0.17620001E+02 -0.10320E+05
 0.17670000E+02 -0.11560E+04
 0.17720001E+02  0.53730E+04
 0.17770000E+02  0.93290E+04
 0.17820002E+02  0.95850E+04
 0.17870001E+02  0.63330E+04
 0.17920000E+02  0.58800E+03
 0.17970001E+02 -0.66990E+04
 0.18020000E+02 -0.14507E+05
 0.18070002E+02 -0.21456E+05
 0.18120001E+02 -0.27194E+05
 0.18170000E+02 -0.31120E+05
 0.18220001E+02 -0.31850E+05
 0.18270000E+02 -0.29175E+05
 0.18320002E+02 -0.22112E+05
 0.18370001E+02 -0.11500E+05
 0.18420000E+02  0.86800E+03
 0.18470001E+02  0.14526E+05
 0.18520000E+02  0.27296E+05
 0.18570002E+02  0.38496E+05
 0.18620001E+02  0.48448E+05
 0.18670000E+02  0.55830E+05
 0.18720001E+02  0.60625E+05
 0.18770000E+02  0.63714E+05
 0.18820002E+02  0.65531E+05
 0.18870001E+02  0.65339E+05
 0.18920000E+02  0.62857E+05
 0.18970001E+02  0.59616E+05
 0.19020000E+02  0.55791E+05
 0.19070002E+02  0.50971E+05
 0.19120001E+02  0.44826E+05
 0.19170000E+02  0.37175E+05
 0.19220001E+02  0.28960E+05
 0.19270000E+02  0.20963E+05
 0.19320002E+02  0.14670E+05
 0.19370001E+02  0.10933E+05
 0.19420000E+02  0.94130E+04
 0.19470001E+02  0.10074E+05
 0.19520000E+02  0.12874E+05
 0.19570002E+02  0.17465E+05
 0.19620001E+02  0.21961E+05
 0.19670000E+02  0.25164E+05
 0.19720001E+02  0.27521E+05
 0.19770000E+02  0.29051E+05
 0.19820002E+02  0.29829E+05
 0.19870001E+02  0.29856E+05
 0.19920000E+02  0.29301E+05
 0.19970001E+02  0.28528E+05
 0.20020000E+02  0.27642E+05
 0.20070002E+02  0.26388E+05
 0.20120001E+02  0.24921E+05
 0.20170000E+02  0.23848E+05
 0.20220001E+02  0.23131E+05
 0.20270000E+02  0.22776E+05
 0.20320002E+02  0.22028E+05
 0.20370001E+02  0.19425E+05
 0.20420000E+02  0.15195E+05
 0.20470001E+02  0.10146E+05
 0.20520000E+02  0.34520E+04
 0.20570002E+02 -0.52830E+04
 0.20620001E+02 -0.15325E+05
 0.20670000E+02 -0.25932E+05
 0.20720001E+02 -0.36254E+05
 0.20770000E+02 -0.46049E+05
 0.20820002E+02 -0.55263E+05
 0.20870001E+02 -0.63511E+05
 0.20920000E+02 -0.71198E+05
 0.20970001E+02 -0.79073E+05
 0.21020000E+02 -0.86393E+05
 0.21070002E+02 -0.91044E+05
 0.21120001E+02 -0.91273E+05
 0.21170000E+02 -0.87391E+05
 0.21220001E+02 -0.80906E+05
 0.21270000E+02 -0.73469E+05
 0.21320002E+02 -0.66424E+05
 0.21370001E+02 -0.60555E+05
 0.21420000E+02 -0.56763E+05
 0.21470001E+02 -0.54817E+05
 0.21520000E+02 -0.53806E+05
 0.21570002E+02 -0.52968E+05
 0.21620001E+02 -0.52560E+05
 0.21670000E+02 -0.53260E+05
 0.21720001E+02 -0.53879E+05
 0.21770000E+02 -0.53561E+05
 0.21820002E+02 -0.52466E+05
 0.21870001E+02 -0.50582E+05
 0.21920000E+02 -0.47649E+05
 0.21970001E+02 -0.43680E+05
 0.22020000E+02 -0.38716E+05
 0.22070002E+02 -0.32056E+05
 0.22120001E+02 -0.23178E+05
 0.22170000E+02 -0.12982E+05
 0.22220001E+02 -0.34430E+04
 0.22270000E+02  0.40200E+04
 0.22320002E+02  0.86630E+04
 0.22370001E+02  0.10324E+05
 0.22420000E+02  0.95300E+04
 0.22470001E+02  0.67430E+04
 0.22520000E+02  0.23940E+04
 0.22570002E+02 -0.15350E+04
 0.22620001E+02 -0.25020E+04
 0.22670000E+02 -0.10000E+03
 0.22720001E+02  0.40240E+04
 0.22770000E+02  0.85740E+04
 0.22820002E+02  0.13734E+05
 0.22870001E+02  0.20062E+05
 0.22920000E+02  0.28149E+05
 0.22970001E+02  0.37423E+05
 0.23020000E+02  0.46695E+05
 0.23070002E+02  0.55006E+05
 0.23120001E+02  0.60771E+05
 0.23170000E+02  0.63405E+05
 0.23220001E+02  0.63882E+05
 0.23270000E+02  0.62897E+05
 0.23320002E+02  0.59919E+05
 0.23370001E+02  0.54262E+05
 0.23420000E+02  0.45637E+05
 0.23470001E+02  0.34708E+05
 0.23520000E+02  0.23395E+05
 0.23570002E+02  0.12455E+05
 0.23620001E+02  0.17630E+04
 0.23670000E+02 -0.76350E+04
 0.23720001E+02 -0.14609E+05
 0.23770000E+02 -0.18606E+05
 0.23820002E+02 -0.19083E+05
 0.23870001E+02 -0.16248E+05
 0.23920000E+02 -0.11187E+05
 0.23970001E+02 -0.43210E+04
 0.24020000E+02  0.48710E+04
 0.24070002E+02  0.16335E+05
 0.24120001E+02  0.29760E+05
 0.24170000E+02  0.44785E+05
 0.24220001E+02  0.59777E+05
 0.24270000E+02  0.72429E+05
 0.24320002E+02  0.81374E+05
 0.24370001E+02  0.86211E+05
 0.24420000E+02  0.86310E+05
 0.24470001E+02  0.82094E+05
 0.24520000E+02  0.74604E+05
 0.24570002E+02  0.63454E+05
 0.24620001E+02  0.48584E+05
 0.24670000E+02  0.30707E+05
 0.24720001E+02  0.10163E+05
 0.24770000E+02 -0.11907E+05
 0.24820002E+02 -0.33415E+05
 0.24870001E+02 -0.52367E+05
 0.24920000E+02 -0.67755E+05
 0.24970001E+02 -0.78597E+05
 0.25020000E+02 -0.83800E+05
 0.25070002E+02 -0.84347E+05
 0.25120001E+02 -0.80360E+05
 0.25170000E+02 -0.71925E+05
 0.25220001E+02 -0.60217E+05
 0.25270000E+02 -0.45589E+05
 0.25320002E+02 -0.28073E+05
 0.25370001E+02 -0.72930E+04
 0.25420000E+02  0.14866E+05
 0.25470001E+02  0.36845E+05
 0.25520000E+02  0.57209E+05
 0.25570002E+02  0.73522E+05
 0.25620001E+02  0.85017E+05
 0.25670000E+02  0.90122E+05
 0.25720001E+02  0.87916E+05
 0.25770000E+02  0.79166E+05
 0.25820002E+02  0.64976E+05
 0.25870001E+02  0.46844E+05
 0.25920000E+02  0.25410E+05
 0.25970001E+02  0.47200E+03
 0.26020000E+02 -0.26279E+05
 0.26070002E+02 -0.51468E+05
 0.26120001E+02 -0.72798E+05
 0.26170000E+02 -0.87958E+05
 0.26220001E+02 -0.95409E+05
 0.26270000E+02 -0.95301E+05
 0.26320002E+02 -0.88244E+05
 0.26370001E+02 -0.75985E+05
 0.26420000E+02 -0.59529E+05
 0.26470001E+02 -0.39273E+05
 0.26520000E+02 -0.17119E+05
 0.26570002E+02  0.43970E+04
 0.26620001E+02  0.23361E+05
 0.26670000E+02  0.38038E+05
 0.26720001E+02  0.46829E+05
 0.26770000E+02  0.49829E+05
 0.26820002E+02  0.48259E+05
 0.26870001E+02  0.43509E+05
 0.26920000E+02  0.36125E+05
 0.26970001E+02  0.26447E+05
 0.27020000E+02  0.15774E+05
 0.27070002E+02  0.58700E+04
 0.27120001E+02 -0.20890E+04
 0.27170000E+02 -0.87940E+04
 0.27220001E+02 -0.14528E+05
 0.27270000E+02 -0.18892E+05
 0.27320002E+02 -0.21211E+05
 0.27370001E+02 -0.19940E+05
 0.27420000E+02 -0.14626E+05
 0.27470001E+02 -0.60220E+04
 0.27520000E+02  0.44620E+04
 0.27570002E+02  0.14762E+05
 0.27620001E+02  0.22971E+05
 0.27670000E+02  0.27982E+05
 0.27720001E+02  0.28988E+05
 0.27770000E+02  0.25669E+05
 0.27820002E+02  0.18077E+05
 0.27870001E+02  0.69350E+04
 0.27920000E+02 -0.60570E+04
 0.27970001E+02 -0.19983E+05
 0.28020000E+02 -0.34491E+05
 0.28070002E+02 -0.49679E+05
 0.28120001E+02 -0.64775E+05
 0.28170000E+02 -0.77286E+05
 0.28220001E+02 -0.86332E+05
 0.28270000E+02 -0.91793E+05
 0.28320002E+02 -0.93843E+05
 0.28370001E+02 -0.93039E+05
 0.28420000E+02 -0.88460E+05
 0.28470001E+02 -0.80066E+05
 0.28520000E+02 -0.68713E+05
 0.28570002E+02 -0.55314E+05
 0.28620001E+02 -0.40807E+05
 0.28670000E+02 -0.25079E+05
 0.28720001E+02 -0.83960E+04
 0.28770000E+02  0.85500E+04
 0.28820002E+02  0.25211E+05
 0.28870001E+02  0.40076E+05
 0.28920000E+02  0.51967E+05
 0.28970001E+02  0.60807E+05
 0.29020000E+02  0.66332E+05
 0.29070002E+02  0.69015E+05
 0.29120001E+02  0.69150E+05
 0.29170000E+02  0.67011E+05
 0.29220001E+02  0.63575E+05
 0.29270000E+02  0.59026E+05
 0.29320002E+02  0.53288E+05
 0.29370001E+02  0.45515E+05
 0.29420000E+02  0.35448E+05
 0.29470001E+02  0.23918E+05
 0.29520000E+02  0.10790E+05
 0.29570002E+02 -0.39190E+04
 0.29620001E+02 -0.18760E+05
 0.29670000E+02 -0.32418E+05
 0.29720001E+02 -0.44831E+05
 0.29770000E+02 -0.55605E+05
 0.29820002E+02 -0.64101E+05
 0.29870001E+02 -0.69628E+05
 0.29920000E+02 -0.70808E+05
 0.29970001E+02 -0.68203E+05
 0.30020000E+02 -0.63768E+05
 0.30070000E+02 -0.58135E+05
 0.30120003E+02 -0.51595E+05
 0.30170002E+02 -0.44118E+05
 0.30220001E+02 -0.35264E+05
 0.30270000E+02 -0.25157E+05
 0.30320000E+02 -0.15136E+05
 0.30370003E+02 -0.57280E+04
 0.30420002E+02  0.28640E+04
 0.30470001E+02  0.99340E+04
 0.30520000E+02  0.16685E+05
 0.30570000E+02  0.23756E+05
 0.30620003E+02  0.31613E+05
 0.30670002E+02  0.40140E+05
 0.30720001E+02  0.47764E+05
 0.30770000E+02  0.54368E+05
 0.30820000E+02  0.60601E+05
 0.30870003E+02  0.66993E+05
 0.30920002E+02  0.72547E+05
 0.30970001E+02  0.77112E+05
 0.31020000E+02  0.82027E+05
 0.31070000E+02  0.85824E+05
 0.31120003E+02  0.88042E+05
 0.31170002E+02  0.89006E+05
 0.31220001E+02  0.87349E+05
 0.31270000E+02  0.83893E+05
 0.31320000E+02  0.78679E+05
 0.31370003E+02  0.71213E+05
 0.31420002E+02  0.62202E+05
 0.31470001E+02  0.51405E+05
 0.31520000E+02  0.39780E+05
 0.31570000E+02  0.29910E+05
 0.31620003E+02  0.23425E+05
 0.31670002E+02  0.14593E+05
 0.31720001E+02 -0.79030E+04
 0.31770000E+02 -0.46491E+05
 0.31820000E+02 -0.96271E+05
 0.31870003E+02 -0.13620E+06
 0.31920002E+02 -0.12123E+06
 0.31970001E+02 -0.30659E+05
 0.32020000E+02  0.63774E+05
 0.32070000E+02  0.49539E+05
 0.32120003E+02 -0.44066E+05
 0.32170002E+02 -0.11620E+06
 0.32220001E+02 -0.10509E+06
 0.32270000E+02 -0.59666E+05
 0.32320000E+02 -0.64919E+05
 0.32370003E+02 -0.17962E+06
 0.32420002E+02 -0.42949E+06
 0.32470001E+02 -0.57065E+06
 0.32520000E+02 -0.52370E+06
 0.32570000E+02 -0.26106E+06
 0.32620003E+02  0.75146E+05
 0.32670002E+02  0.16782E+06
 0.32720001E+02  0.16521E+06
 0.32770000E+02  0.24651E+05
 0.32820000E+02 -0.11385E+06
 0.32870003E+02 -0.45979E+05
 0.32920002E+02 -0.41797E+05
 0.32970001E+02 -0.66596E+05
 0.33020000E+02 -0.94496E+05
 0.33070000E+02 -0.20815E+06
 0.33120003E+02 -0.38232E+06
 0.33170002E+02 -0.50774E+06
 0.33220001E+02 -0.36127E+06
 0.33270000E+02 -0.26204E+05
 0.33320000E+02  0.31709E+06
 0.33370003E+02  0.54022E+06
 0.33420002E+02  0.65206E+06
 0.33470001E+02  0.68817E+06
 0.33520000E+02  0.66624E+06
 0.33570000E+02  0.71689E+06
 0.33620003E+02  0.72912E+06
 0.33670002E+02  0.51977E+06
 0.33720001E+02  0.11336E+06
 0.33770000E+02 -0.16913E+06
 0.33820000E+02 -0.26518E+06
 0.33870003E+02 -0.21681E+06
 0.33920002E+02 -0.42260E+04
 0.33970001E+02  0.42308E+05
 0.34020000E+02 -0.87446E+05
 0.34070000E+02 -0.60481E+05
 0.34120003E+02  0.23181E+05
 0.34170002E+02  0.46760E+04
 0.34220001E+02 -0.15248E+06
 0.34270000E+02 -0.30923E+06
 0.34320000E+02 -0.28404E+06
 0.34370003E+02 -0.28065E+06
 0.34420002E+02  0.93939E+05
 0.34470001E+02  0.29807E+06
 0.34520000E+02 -0.13480E+05
 0.34570000E+02 -0.13356E+06
 0.34620003E+02 -0.43753E+06
 0.34670002E+02 -0.52185E+06
 0.34720001E+02 -0.35740E+06
 0.34770000E+02 -0.26536E+06
 0.34820000E+02 -0.48156E+05
 0.34870003E+02 -0.96167E+05
 0.34920002E+02 -0.14057E+06
 0.34970001E+02 -0.89910E+05
 0.35020000E+02 -0.52074E+05
 0.35070000E+02  0.18002E+06
 0.35120003E+02  0.18896E+06
 0.35170002E+02 -0.55465E+05
 0.35220001E+02 -0.17866E+05
 0.35270000E+02  0.40522E+05
 0.35320000E+02  0.37042E+05
 0.35370003E+02  0.26410E+06
 0.35420002E+02  0.18367E+06
 0.35470001E+02 -0.42990E+04
 0.35520000E+02  0.80781E+05
 0.35570000E+02  0.22348E+06
 0.35620003E+02  0.34063E+06
 0.35670002E+02  0.12398E+06
 0.35720001E+02 -0.89372E+05
 0.35770000E+02 -0.23634E+06
 0.35820000E+02 -0.42003E+06
 0.35870003E+02 -0.45638E+06
 0.35920002E+02 -0.42107E+06
 0.35970001E+02 -0.17034E+06
 0.36020000E+02 -0.69107E+05
 0.36070000E+02 -0.23763E+06
 0.36120003E+02 -0.34969E+06
 0.36170002E+02 -0.18157E+06
 0.36220001E+02  0.30624E+06
 0.36270000E+02  0.40956E+06
 0.36320000E+02  0.11742E+06
 0.36370003E+02 -0.10892E+06
 0.36420002E+02 -0.22454E+06
 0.36470001E+02  0.20841E+06
 0.36520000E+02  0.82493E+06
 0.36570000E+02  0.11005E+07
 0.36620003E+02  0.10658E+07
 0.36670002E+02  0.73875E+06
 0.36720001E+02  0.70725E+06
 0.36770000E+02  0.87230E+06
 0.36820000E+02  0.97873E+06
 0.36870003E+02  0.95209E+06
 0.36920002E+02  0.63588E+06
 0.36970001E+02  0.25828E+06
 0.37020000E+02 -0.48830E+06
 0.37070000E+02 -0.10815E+07
 0.37120003E+02 -0.11262E+07
 0.37170002E+02 -0.15143E+07
 0.37220001E+02 -0.20033E+07
 0.37270000E+02 -0.19713E+07
 0.37320000E+02 -0.16843E+07
 0.37370003E+02 -0.13372E+07
 0.37420002E+02 -0.67012E+06
 0.37470001E+02  0.49523E+05
 0.37520000E+02  0.43528E+06
 0.37570000E+02  0.81199E+06
 0.37620003E+02  0.12768E+07
 0.37670002E+02  0.16695E+07
 0.37720001E+02  0.17639E+07
 0.37770000E+02  0.16496E+07
 0.37820000E+02  0.13166E+07
 0.37870003E+02  0.76406E+06
 0.37920002E+02  0.36690E+06
 0.37970001E+02  0.10175E+06
 0.38020000E+02 -0.21080E+06
 0.38070000E+02 -0.80241E+06
 0.38120003E+02 -0.11147E+07
 0.38170002E+02 -0.79643E+06
 0.38220001E+02 -0.36742E+06
 0.38270000E+02 -0.72223E+05
 0.38320000E+02  0.10868E+06
 0.38370003E+02  0.26576E+06
 0.38420002E+02  0.98937E+05
 0.38470001E+02 -0.25781E+06
 0.38520000E+02 -0.55141E+06
 0.38570000E+02 -0.69279E+06
 0.38620003E+02 -0.38708E+06
 0.38670002E+02 -0.42282E+05
 0.38720001E+02  0.26117E+05
 0.38770000E+02  0.81598E+05
 0.38820000E+02 -0.25890E+06
 0.38870003E+02 -0.10437E+07
 0.38920002E+02 -0.12469E+07
 0.38970001E+02 -0.75490E+06
 0.39020000E+02 -0.46887E+06
 0.39070000E+02 -0.54870E+06
 0.39120003E+02 -0.14177E+06
 0.39170002E+02  0.38689E+06
 0.39220001E+02  0.43043E+06
 0.39270000E+02  0.73509E+06
 0.39320000E+02  0.95523E+06
 0.39370003E+02  0.64871E+06
 0.39420002E+02  0.15080E+06
 0.39470001E+02 -0.25284E+06
 0.39520000E+02 -0.25050E+06
 0.39570000E+02 -0.25288E+06
 0.39620003E+02 -0.24376E+06
 0.39670002E+02 -0.61138E+05
 0.39720001E+02 -0.17335E+05
 0.39770000E+02  0.61556E+05
 0.39820000E+02  0.40283E+06
 0.39870003E+02  0.92367E+06
 0.39920002E+02  0.10894E+07
 0.39970001E+02  0.90198E+06
 0.40020000E+02  0.62747E+06
 0.40070000E+02  0.38268E+06
 0.40120003E+02  0.34636E+06
 0.40170002E+02  0.41516E+06
 0.40220001E+02  0.69222E+06
 0.40270000E+02  0.80334E+06
 0.40320000E+02  0.70488E+06
 0.40370003E+02  0.68961E+06
 0.40420002E+02  0.68076E+06
 0.40470001E+02  0.67006E+06
 0.40520000E+02  0.46037E+06
 0.40570000E+02  0.20559E+06
 0.40620003E+02 -0.18092E+06
 0.40670002E+02 -0.67366E+06
 0.40720001E+02 -0.67717E+06
 0.40770000E+02 -0.31329E+06
 0.40820000E+02 -0.18551E+05
 0.40870003E+02 -0.63168E+05
 0.40920002E+02 -0.28612E+06
 0.40970001E+02 -0.34044E+06
 0.41020000E+02 -0.53944E+06
 0.41070000E+02 -0.73321E+06
 0.41120003E+02 -0.71229E+06
 0.41170002E+02 -0.92106E+06
 0.41220001E+02 -0.11389E+07
 0.41270000E+02 -0.11281E+07
 0.41320000E+02 -0.96362E+06
 0.41370003E+02 -0.69665E+06
 0.41420002E+02 -0.48292E+06
 0.41470001E+02 -0.24602E+06
 0.41520000E+02 -0.19066E+06
 0.41570000E+02 -0.19557E+06
 0.41620003E+02  0.86838E+05
 0.41670002E+02  0.26533E+06
 0.41720001E+02  0.24996E+06
 0.41770000E+02  0.40139E+06
 0.41820000E+02  0.72524E+06
 0.41870003E+02  0.74443E+06
 0.41920002E+02  0.52468E+06
 0.41970001E+02  0.65416E+06
 0.42020000E+02  0.87053E+06
 0.42070000E+02  0.82542E+06
 0.42120003E+02  0.66572E+06
 0.42170002E+02  0.48630E+06
 0.42220001E+02  0.17918E+06
 0.42270000E+02 -0.26226E+06
 0.42320000E+02 -0.40337E+06
 0.42370003E+02 -0.21314E+06
 0.42420002E+02 -0.12016E+06
 0.42470001E+02 -0.18915E+06
 0.42520000E+02 -0.63962E+05
 0.42570000E+02  0.21627E+06
 0.42620003E+02  0.28498E+06
 0.42670002E+02  0.34031E+06
 0.42720001E+02  0.41776E+06
 0.42770000E+02  0.36720E+06
 0.42820000E+02  0.28529E+06
 0.42870003E+02  0.12946E+06
 0.42920002E+02 -0.99399E+05
 0.42970001E+02 -0.23828E+06
 0.43020000E+02 -0.33033E+06
 0.43070000E+02 -0.44291E+06
 0.43120003E+02 -0.36876E+06
 0.43170002E+02 -0.17688E+06
 0.43220001E+02 -0.57450E+04
 0.43270000E+02  0.15693E+06
 0.43320000E+02  0.23674E+06
 0.43370003E+02  0.17276E+06
 0.43420002E+02  0.41429E+05
 0.43470001E+02 -0.67970E+05
 0.43520000E+02 -0.13532E+06
 0.43570000E+02 -0.50955E+05
 0.43620003E+02 -0.66142E+05
 0.43670002E+02 -0.21688E+06
 0.43720001E+02 -0.25297E+06
 0.43770000E+02 -0.26478E+06
 0.43820000E+02 -0.12758E+06
 0.43870003E+02  0.10091E+06
 0.43920002E+02  0.17845E+06
 0.43970001E+02  0.16424E+06
 0.44020000E+02  0.88509E+05
 0.44070000E+02 -0.85210E+05
 0.44120003E+02 -0.34027E+06
 0.44170002E+02 -0.52233E+06
 0.44220001E+02 -0.58346E+06
 0.44270000E+02 -0.71182E+06
 0.44320000E+02 -0.85713E+06
 0.44370003E+02 -0.88078E+06
 0.44420002E+02 -0.86872E+06
 0.44470001E+02 -0.81063E+06
 0.44520000E+02 -0.50546E+06
 0.44570000E+02 -0.10175E+06
 0.44620003E+02  0.41569E+05
 0.44670002E+02  0.93128E+05
 0.44720001E+02  0.29714E+06
 0.44770000E+02  0.59399E+06
 0.44820000E+02  0.82349E+06
 0.44870003E+02  0.82263E+06
 0.44920002E+02  0.67877E+06
 0.44970001E+02  0.57066E+06
 0.45020000E+02  0.44556E+06
 0.45070000E+02  0.21476E+06
 0.45120003E+02 -0.23096E+05
 0.45170002E+02 -0.13477E+06
 0.45220001E+02 -0.13110E+06
 0.45270000E+02 -0.17485E+06
 0.45320000E+02 -0.23805E+06
 0.45370003E+02 -0.79777E+05
 0.45420002E+02  0.32205E+06
 0.45470001E+02  0.77902E+06
 0.45520000E+02  0.89013E+06
 0.45570000E+02  0.54405E+06
 0.45620003E+02  0.24411E+06
 0.45670002E+02  0.30493E+06
 0.45720001E+02  0.61878E+06
 0.45770000E+02  0.73777E+06
 0.45820000E+02  0.37234E+06
 0.45870003E+02 -0.14836E+06
 0.45920002E+02 -0.43472E+06
 0.45970001E+02 -0.39290E+06
 0.46020000E+02 -0.31639E+06
 0.46070000E+02 -0.44106E+06
 0.46120003E+02 -0.59073E+06
 0.46170002E+02 -0.49916E+06
 0.46220001E+02 -0.19158E+06
 0.46270000E+02  0.47008E+05
 0.46320000E+02  0.20836E+06
 0.46370003E+02  0.33305E+06
 0.46420002E+02  0.30954E+06
 0.46470001E+02  0.18343E+06
 0.46520000E+02  0.30982E+05
 0.46570000E+02 -0.14992E+06
 0.46620003E+02 -0.43306E+06
 0.46670002E+02 -0.68626E+06
 0.46720001E+02 -0.55460E+06
 0.46770000E+02 -0.28776E+06
 0.46820000E+02 -0.27546E+06
 0.46870003E+02 -0.32078E+06
 0.46920002E+02 -0.29357E+06
 0.46970001E+02 -0.18940E+06
 0.47020000E+02 -0.71177E+05
 0.47070000E+02 -0.23883E+05
 0.47120003E+02  0.58620E+05
 0.47170002E+02  0.12479E+06
 0.47220001E+02  0.17684E+06
 0.47270000E+02  0.28812E+06
 0.47320000E+02  0.35944E+06
 0.47370003E+02  0.34964E+06
 0.47420002E+02  0.20070E+06
 0.47470001E+02  0.13016E+06
 0.47520000E+02  0.85542E+05
 0.47570000E+02 -0.15791E+06
 0.47620003E+02 -0.23483E+06
 0.47670002E+02 -0.98070E+05
 0.47720001E+02  0.45304E+05
 0.47770000E+02 -0.45213E+05
 0.47820000E+02 -0.36006E+06
 0.47870003E+02 -0.39921E+06
 0.47920002E+02 -0.17090E+06
 0.47970001E+02  0.17173E+05
 0.48020000E+02  0.14092E+06
 0.48070000E+02  0.19663E+06
 0.48120003E+02  0.21046E+06
 0.48170002E+02  0.33494E+06
 0.48220001E+02  0.63970E+06
 0.48270000E+02  0.89126E+06
 0.48320000E+02  0.88923E+06
 0.48370003E+02  0.81954E+06
 0.48420002E+02  0.66375E+06
 0.48470001E+02  0.32295E+06
 0.48520000E+02  0.95318E+05
 0.48570000E+02  0.92483E+05
 0.48620003E+02  0.39997E+05
 0.48670002E+02 -0.14451E+06
 0.48720001E+02 -0.20937E+06
 0.48770000E+02 -0.17630E+06
 0.48820000E+02 -0.14686E+06
 0.48870003E+02 -0.71437E+05
 0.48920002E+02  0.62340E+04
 0.48970001E+02  0.78278E+05
 0.49020000E+02  0.68411E+05
 0.49070000E+02 -0.28410E+05
 0.49120003E+02 -0.19398E+06
 0.49170002E+02 -0.37754E+06
 0.49220001E+02 -0.43724E+06
 0.49270000E+02 -0.44537E+06
 0.49320000E+02 -0.43539E+06
 0.49370003E+02 -0.40906E+06
 0.49420002E+02 -0.37526E+06
 0.49470001E+02 -0.23805E+06
 0.49520000E+02 -0.48874E+05
 0.49570000E+02  0.19323E+05
 0.49620003E+02 -0.26658E+05
 0.49670002E+02  0.17588E+05
 0.49720001E+02  0.14377E+06
 0.49770000E+02  0.14517E+06
 0.49820000E+02 -0.44410E+05
 0.49870003E+02 -0.38763E+06
 0.49920002E+02 -0.59536E+06
 0.49970001E+02 -0.53358E+06
 0.50020000E+02 -0.45568E+06
 0.50070000E+02 -0.37645E+06
 0.50120003E+02 -0.24301E+06
 0.50170002E+02 -0.82263E+05
 0.50220001E+02  0.27757E+05
 0.50270000E+02  0.16496E+06
 0.50320000E+02  0.35789E+06
 0.50370003E+02  0.34595E+06
 0.50420002E+02  0.12498E+06
 0.50470001E+02 -0.35886E+05
 0.50520000E+02  0.10091E+06
 0.50570000E+02  0.22761E+06
 0.50620003E+02  0.13798E+06
 0.50670002E+02  0.77745E+05
 0.50720001E+02  0.11116E+06
 0.50770000E+02  0.18718E+06
 0.50820000E+02  0.19942E+06
 0.50870003E+02  0.19591E+06
 0.50920002E+02  0.20865E+06
 0.50970001E+02  0.25789E+06
 0.51020000E+02  0.41771E+06
 0.51070000E+02  0.55312E+06
 0.51120003E+02  0.41024E+06
 0.51170002E+02 -0.59323E+05
 0.51220001E+02 -0.42525E+06
 0.51270000E+02 -0.41063E+06
 0.51320000E+02 -0.20433E+06
 0.51370003E+02 -0.14327E+05
 0.51420002E+02 -0.79555E+05
 0.51470001E+02 -0.40104E+06
 0.51520000E+02 -0.58385E+06
 0.51570000E+02 -0.45575E+06
 0.51620003E+02 -0.17000E+06
 0.51670002E+02  0.93824E+05
 0.51720001E+02  0.10176E+06
 0.51770000E+02 -0.13604E+06
 0.51820000E+02 -0.30959E+06
 0.51870003E+02 -0.49010E+06
 0.51920002E+02 -0.74439E+06
 0.51970001E+02 -0.81714E+06
 0.52020000E+02 -0.68872E+06
 0.52070000E+02 -0.41408E+06
 0.52120003E+02 -0.41980E+04
 0.52170002E+02  0.41595E+06
 0.52220001E+02  0.57140E+06
 0.52270000E+02  0.46121E+06
 0.52320000E+02  0.41243E+06
 0.52370003E+02  0.53036E+06
 0.52420002E+02  0.59384E+06
 0.52470001E+02  0.38914E+06
 0.52520000E+02  0.15832E+06
 0.52570000E+02  0.51820E+05
 0.52620003E+02 -0.72864E+05
 0.52670002E+02 -0.54160E+05
 0.52720001E+02  0.36766E+05
 0.52770000E+02 -0.44859E+05
 0.52820000E+02 -0.97304E+05
 0.52870003E+02  0.33777E+05
 0.52920002E+02  0.17618E+06
 0.52970001E+02  0.16039E+06
 0.53020000E+02  0.19627E+06
 0.53070000E+02  0.32512E+06
 0.53120003E+02  0.27285E+06
 0.53170002E+02  0.11928E+06
 0.53220001E+02 -0.10224E+06
 0.53270000E+02 -0.36831E+06
 0.53320000E+02 -0.53613E+06
 0.53370003E+02 -0.52980E+06
 0.53420002E+02 -0.36494E+06
 0.53470001E+02 -0.20686E+06
 0.53520000E+02 -0.10327E+06
 0.53570000E+02 -0.13233E+06
 0.53620003E+02 -0.15383E+06
 0.53670002E+02  0.71694E+05
 0.53720001E+02  0.33475E+06
 0.53770000E+02  0.39502E+06
 0.53820000E+02  0.29563E+06
 0.53870003E+02  0.15446E+06
 0.53920002E+02  0.31361E+05
 0.53970001E+02 -0.41604E+05
 0.54020000E+02 -0.13868E+06
 0.54070000E+02 -0.32800E+06
 0.54120003E+02 -0.57095E+06
 0.54170002E+02 -0.66934E+06
 0.54220001E+02 -0.62631E+06
 0.54270000E+02 -0.61744E+06
 0.54320000E+02 -0.48592E+06
 0.54370003E+02 -0.22831E+06
 0.54420002E+02 -0.17978E+06
 0.54470001E+02 -0.37101E+06
 0.54520000E+02 -0.35486E+06
 0.54570000E+02 -0.17644E+06
 0.54620003E+02 -0.24310E+06
 0.54670002E+02 -0.35375E+06
 0.54720001E+02 -0.22338E+06
 0.54770000E+02 -0.79120E+04
 0.54820000E+02  0.54324E+05
 0.54870003E+02 -0.26178E+05
 0.54920002E+02 -0.99142E+05
 0.54970001E+02 -0.76750E+05
 0.55020000E+02  0.36745E+05
 0.55070000E+02  0.96941E+05
 0.55120003E+02 -0.19602E+06
 0.55170002E+02 -0.67942E+06
 0.55220001E+02 -0.10985E+07
 0.55270000E+02 -0.13966E+07
 0.55320000E+02 -0.13317E+07
 0.55370003E+02 -0.97618E+06
 0.55420002E+02 -0.46898E+06
 0.55470001E+02 -0.11999E+06
 0.55520000E+02 -0.17818E+05
 0.55570000E+02  0.15896E+06
 0.55620003E+02  0.37984E+06
 0.55670002E+02  0.63376E+06
 0.55720001E+02  0.71982E+06
 0.55770000E+02  0.55083E+06
 0.55820000E+02  0.34772E+06
 0.55870003E+02  0.55832E+05
 0.55920002E+02 -0.27380E+06
 0.55970001E+02 -0.48480E+06
 0.56020000E+02 -0.31894E+06
 0.56070000E+02  0.19698E+06
 0.56120003E+02  0.50856E+06
 0.56170002E+02  0.34206E+06
 0.56220001E+02 -0.20616E+06
 0.56270000E+02 -0.51986E+06
 0.56320000E+02 -0.27130E+05
 0.56370003E+02  0.86292E+06
 0.56420002E+02  0.14543E+07
 0.56470001E+02  0.15295E+07
 0.56520000E+02  0.12226E+07
 0.56570000E+02  0.52730E+06
 0.56620003E+02 -0.46354E+06
 0.56670002E+02 -0.13768E+07
 0.56720001E+02 -0.17706E+07
 0.56770000E+02 -0.13847E+07
 0.56820000E+02 -0.74096E+06
 0.56870003E+02 -0.10041E+06
 0.56920002E+02  0.48372E+06
 0.56970001E+02  0.44058E+06
 0.57020000E+02  0.19392E+06
 0.57070000E+02  0.28950E+06
 0.57120003E+02  0.35756E+06
 0.57170002E+02 -0.26475E+05
 0.57220001E+02 -0.48624E+06
 0.57270000E+02 -0.17843E+06
 0.57320000E+02  0.34755E+06
 0.57370003E+02  0.33636E+06
 0.57420002E+02  0.30228E+06
 0.57470001E+02  0.94840E+06
 0.57520000E+02  0.16185E+07
 0.57570000E+02  0.13266E+07
 0.57620003E+02  0.96252E+06
 0.57670002E+02  0.10420E+07
 0.57720001E+02  0.65141E+06
 0.57770000E+02 -0.45518E+06
 0.57820000E+02 -0.13300E+07
 0.57870003E+02 -0.98257E+06
 0.57920002E+02  0.19459E+06
 0.57970001E+02  0.98259E+06
 0.58020000E+02  0.78839E+06
 0.58070000E+02  0.13254E+05
 0.58120003E+02 -0.39376E+06
 0.58170002E+02 -0.32129E+06
 0.58220001E+02 -0.38863E+06
 0.58270000E+02 -0.27019E+06
 0.58320000E+02 -0.13596E+06
 0.58370003E+02 -0.78020E+06
 0.58420002E+02 -0.16583E+07
 0.58470001E+02 -0.21089E+07
 0.58520000E+02 -0.17495E+07
 0.58570000E+02 -0.82190E+06
 0.58620003E+02 -0.51660E+06
 0.58670002E+02 -0.27459E+06
 0.58720001E+02  0.73498E+06
 0.58770000E+02  0.13728E+07
 0.58820000E+02  0.83798E+06
 0.58870003E+02 -0.47085E+06
 0.58920002E+02 -0.11927E+07
 0.58970001E+02 -0.72085E+06
 0.59020000E+02  0.24003E+06
 0.59070000E+02  0.94682E+06
 0.59120003E+02  0.10465E+07
 0.59170002E+02  0.91230E+06
 0.59220001E+02  0.58715E+06
 0.59270000E+02 -0.23083E+06
 0.59320000E+02 -0.11671E+07
 0.59370003E+02 -0.14115E+07
 0.59420002E+02 -0.91536E+06
 0.59470001E+02 -0.24493E+06
 0.59520000E+02  0.53190E+04
 0.59570000E+02 -0.22600E+06
 0.59620003E+02 -0.87541E+05
 0.59670002E+02  0.58556E+06
 0.59720001E+02  0.85052E+06
 0.59770000E+02  0.42428E+06
 0.59820000E+02  0.12031E+06
 0.59870003E+02  0.66258E+05
 0.59920002E+02 -0.22906E+06
 0.59970001E+02 -0.41594E+06
 0.60020000E+02 -0.18405E+05
 0.60070000E+02  0.57149E+06
 0.60120003E+02  0.77949E+06
 0.60170002E+02  0.31038E+06
 0.60220001E+02 -0.55614E+05
 0.60270000E+02  0.39006E+06
 0.60320000E+02  0.87134E+06
 0.60370003E+02  0.13244E+07
 0.60420002E+02  0.19894E+07
 0.60470001E+02  0.25316E+07
 0.60520000E+02  0.25051E+07
 0.60570000E+02  0.19567E+07
 0.60620003E+02  0.15945E+07
 0.60670002E+02  0.16050E+07
 0.60720001E+02  0.17904E+07
 0.60770000E+02  0.14955E+07
 0.60820000E+02  0.84479E+06
 0.60870003E+02  0.34030E+06
 0.60920002E+02 -0.32892E+06
 0.60970001E+02 -0.70077E+06
 0.61020000E+02 -0.67380E+06
 0.61070000E+02 -0.56611E+06
 0.61120003E+02 -0.17304E+06
 0.61170002E+02 -0.61069E+05
 0.61220001E+02 -0.68790E+06
 0.61270000E+02 -0.13714E+07
 0.61320000E+02 -0.14925E+07
 0.61370003E+02 -0.12628E+07
 0.61420002E+02 -0.65322E+06
 0.61470001E+02  0.11143E+06
 0.61520000E+02  0.96067E+05
 0.61570000E+02 -0.23941E+06
 0.61620003E+02 -0.11078E+06
 0.61670002E+02  0.16286E+06
 0.61720001E+02  0.47663E+06
 0.61770000E+02  0.84457E+06
 0.61820000E+02  0.88442E+06
 0.61870003E+02  0.23501E+06
 0.61920002E+02 -0.89486E+06
 0.61970001E+02 -0.18378E+07
 0.62020000E+02 -0.20788E+07
 0.62070004E+02 -0.15756E+07
 0.62119999E+02 -0.38948E+06
 0.62170002E+02  0.11509E+07
 0.62220005E+02  0.19784E+07
 0.62270000E+02  0.15073E+07
 0.62320004E+02  0.42014E+06
 0.62369999E+02 -0.11310E+06
 0.62420002E+02  0.43278E+05
 0.62470005E+02  0.27698E+06
 0.62520000E+02  0.64753E+06
 0.62570004E+02  0.11344E+07
 0.62619999E+02  0.13753E+07
 0.62670002E+02  0.12215E+07
 0.62720005E+02  0.85274E+06
 0.62770000E+02  0.77499E+06
 0.62820004E+02  0.93663E+06
 0.62869999E+02  0.78581E+06
 0.62920002E+02  0.44844E+06
 0.62970005E+02  0.29437E+06
 0.63020000E+02  0.23087E+06
 0.63070004E+02 -0.26877E+05
 0.63119999E+02 -0.47647E+06
 0.63170002E+02 -0.79052E+06
 0.63220005E+02 -0.10622E+07
 0.63270000E+02 -0.15817E+07
 0.63320004E+02 -0.18778E+07
 0.63369999E+02 -0.14682E+07
 0.63420002E+02 -0.10731E+07
 0.63470005E+02 -0.13079E+07
 0.63520000E+02 -0.18015E+07
 0.63570004E+02 -0.21664E+07
 0.63619999E+02 -0.21453E+07
 0.63670002E+02 -0.18050E+07
 0.63720005E+02 -0.12326E+07
 0.63770000E+02 -0.40621E+06
 0.63820004E+02  0.21240E+06
 0.63869999E+02  0.46719E+06
 0.63920002E+02  0.42665E+06
 0.63970005E+02  0.46493E+05
 0.64019997E+02 -0.42042E+06
 0.64070000E+02 -0.64852E+06
 0.64119995E+02 -0.42324E+06
 0.64169998E+02 -0.23121E+05
 0.64220001E+02  0.19668E+06
 0.64269997E+02  0.41109E+06
 0.64320000E+02  0.88628E+06
 0.64369995E+02  0.14375E+07
 0.64419998E+02  0.16580E+07
 0.64470001E+02  0.15611E+07
 0.64519997E+02  0.12702E+07
 0.64570000E+02  0.88899E+06
 0.64619995E+02  0.73670E+06
 0.64669998E+02  0.79490E+06
 0.64720001E+02  0.81575E+06
 0.64769997E+02  0.80460E+06
 0.64820000E+02  0.71012E+06
 0.64869995E+02  0.55328E+06
 0.64919998E+02  0.43352E+06
 0.64970001E+02  0.39311E+06
 0.65019997E+02  0.49649E+06
 0.65070000E+02  0.35126E+06
 0.65119995E+02 -0.60532E+05
 0.65169998E+02 -0.14538E+06
 0.65220001E+02  0.36347E+05
 0.65269997E+02  0.95748E+05
 0.65320000E+02 -0.11557E+06
 0.65369995E+02 -0.31716E+06
 0.65419998E+02 -0.30155E+05
 0.65470001E+02  0.71013E+06
 0.65519997E+02  0.14435E+07
 0.65570000E+02  0.16136E+07
 0.65619995E+02  0.10781E+07
 0.65669998E+02  0.51891E+06
 0.65720001E+02  0.56839E+06
 0.65769997E+02  0.10500E+07
 0.65820000E+02  0.14200E+07
 0.65869995E+02  0.12167E+07
 0.65919998E+02  0.50806E+06
 0.65970001E+02 -0.90558E+05
 0.66019997E+02 -0.37335E+06
 0.66070000E+02 -0.62259E+06
 0.66119995E+02 -0.72384E+06
 0.66169998E+02 -0.52998E+06
 0.66220001E+02 -0.30840E+06
 0.66269997E+02 -0.16732E+06
 0.66320000E+02 -0.14516E+06
 0.66369995E+02 -0.46448E+06
 0.66419998E+02 -0.99770E+06
 0.66470001E+02 -0.13261E+07
 0.66519997E+02 -0.12650E+07
 0.66570000E+02 -0.78746E+06
 0.66619995E+02 -0.20295E+06
 0.66669998E+02  0.28053E+06
 0.66720001E+02  0.92912E+06
 0.66769997E+02  0.13273E+07
 0.66820000E+02  0.61318E+06
 0.66869995E+02 -0.97072E+06
 0.66919998E+02 -0.23290E+07
 0.66970001E+02 -0.28776E+07
 0.67019997E+02 -0.27032E+07
 0.67070000E+02 -0.20670E+07
 0.67119995E+02 -0.12806E+07
 0.67169998E+02 -0.56758E+06
 0.67220001E+02 -0.99126E+05
 0.67269997E+02  0.22144E+06
 0.67320000E+02  0.68175E+06
 0.67369995E+02  0.91885E+06
 0.67419998E+02  0.63531E+06
 0.67470001E+02  0.15463E+06
 0.67519997E+02 -0.31867E+06
 0.67570000E+02 -0.45998E+06
 0.67619995E+02 -0.17094E+06
 0.67669998E+02  0.23207E+06
 0.67720001E+02  0.52080E+06
 0.67769997E+02  0.63312E+06
 0.67820000E+02  0.75549E+06
 0.67869995E+02  0.83467E+06
 0.67919998E+02  0.77972E+06
 0.67970001E+02  0.71824E+06
 0.68019997E+02  0.68629E+06
 0.68070000E+02  0.78800E+06
 0.68119995E+02  0.11702E+07
 0.68169998E+02  0.18587E+07
 0.68220001E+02  0.24072E+07
 0.68269997E+02  0.23429E+07
 0.68320000E+02  0.18137E+07
 0.68369995E+02  0.96427E+06
 0.68419998E+02  0.10396E+05
 0.68470001E+02 -0.56157E+06
 0.68519997E+02 -0.56325E+06
 0.68570000E+02 -0.28519E+05
 0.68619995E+02  0.81943E+06
 0.68669998E+02  0.16187E+07
 0.68720001E+02  0.20809E+07
 0.68769997E+02  0.20274E+07
 0.68820000E+02  0.14810E+07
 0.68869995E+02  0.54855E+06
 0.68919998E+02 -0.47268E+06
 0.68970001E+02 -0.13341E+07
 0.69019997E+02 -0.19722E+07
 0.69070000E+02 -0.22056E+07
 0.69119995E+02 -0.20858E+07
 0.69169998E+02 -0.17385E+07
 0.69220001E+02 -0.12632E+07
 0.69269997E+02 -0.10122E+07
 0.69320000E+02 -0.11187E+07
 0.69369995E+02 -0.13919E+07
 0.69419998E+02 -0.15785E+07
 0.69470001E+02 -0.16339E+07
 0.69519997E+02 -0.16305E+07
 0.69570000E+02 -0.13954E+07
 0.69619995E+02 -0.76555E+06
 0.69669998E+02  0.22537E+06
 0.69720001E+02  0.12059E+07
 0.69769997E+02  0.17194E+07
 0.69820000E+02  0.15914E+07
 0.69869995E+02  0.94768E+06
 0.69919998E+02  0.22142E+06
 0.69970001E+02 -0.31760E+06
 0.70019997E+02 -0.63299E+06
 0.70070000E+02 -0.80750E+06
 0.70119995E+02 -0.93622E+06
 0.70169998E+02 -0.97090E+06
 0.70220001E+02 -0.93184E+06
 0.70269997E+02 -0.70575E+06
 0.70320000E+02 -0.46648E+05
 0.70369995E+02  0.65053E+06
 0.70419998E+02  0.78099E+06
 0.70470001E+02  0.54298E+06
 0.70519997E+02  0.20961E+06
 0.70570000E+02 -0.19622E+06
 0.70619995E+02 -0.48496E+06
 0.70669998E+02 -0.60741E+06
 0.70720001E+02 -0.62470E+06
 0.70769997E+02 -0.64781E+06
 0.70820000E+02 -0.86507E+06
 0.70869995E+02 -0.12530E+07
 0.70919998E+02 -0.16583E+07
 0.70970001E+02 -0.17176E+07
 0.71019997E+02 -0.11293E+07
 0.71070000E+02 -0.27240E+06
 0.71119995E+02  0.40834E+06
 0.71169998E+02  0.85277E+06
 0.71220001E+02  0.11410E+07
 0.71269997E+02  0.12794E+07
 0.71320000E+02  0.12185E+07
 0.71369995E+02  0.10695E+07
 0.71419998E+02  0.81988E+06
 0.71470001E+02  0.48776E+06
 0.71519997E+02  0.16879E+06
 0.71570000E+02 -0.13388E+06
 0.71619995E+02 -0.13972E+06
 0.71669998E+02  0.14427E+06
 0.71720001E+02  0.28501E+06
 0.71769997E+02  0.11582E+06
 0.71820000E+02 -0.26452E+06
 0.71869995E+02 -0.67875E+06
 0.71919998E+02 -0.10512E+07
 0.71970001E+02 -0.12842E+07
 0.72019997E+02 -0.12952E+07
 0.72070000E+02 -0.11389E+07
 0.72119995E+02 -0.81454E+06
 0.72169998E+02 -0.40736E+06
 0.72220001E+02  0.18842E+05
 0.72269997E+02  0.29668E+06
 0.72320000E+02  0.11201E+06
 0.72369995E+02 -0.40703E+06
 0.72419998E+02 -0.91386E+06
 0.72470001E+02 -0.11354E+07
 0.72519997E+02 -0.96840E+06
 0.72570000E+02 -0.63758E+06
 0.72619995E+02 -0.37463E+06
 0.72669998E+02 -0.70410E+05
 0.72720001E+02  0.34547E+06
 0.72769997E+02  0.50715E+06
 0.72820000E+02  0.34777E+06
 0.72869995E+02  0.10881E+06
 0.72919998E+02 -0.10283E+06
 0.72970001E+02 -0.25187E+06
 0.73019997E+02 -0.40201E+06
 0.73070000E+02 -0.57590E+06
 0.73119995E+02 -0.87671E+06
 0.73169998E+02 -0.12774E+07
 0.73220001E+02 -0.15493E+07
 0.73269997E+02 -0.16432E+07
 0.73320000E+02 -0.15555E+07
 0.73369995E+02 -0.13200E+07
 0.73419998E+02 -0.11510E+07
 0.73470001E+02 -0.11266E+07
 0.73519997E+02 -0.11233E+07
 0.73570000E+02 -0.95251E+06
 0.73619995E+02 -0.65511E+06
 0.73669998E+02 -0.45235E+06
 0.73720001E+02 -0.12062E+06
 0.73769997E+02  0.48626E+06
 0.73820000E+02  0.11119E+07
 0.73869995E+02  0.14636E+07
 0.73919998E+02  0.14602E+07
 0.73970001E+02  0.12866E+07
 0.74019997E+02  0.84704E+06
 0.74070000E+02  0.77900E+04
 0.74119995E+02 -0.88309E+06
 0.74169998E+02 -0.13340E+07
 0.74220001E+02 -0.12099E+07
 0.74269997E+02 -0.78474E+06
 0.74320000E+02 -0.51424E+06
 0.74369995E+02 -0.52791E+06
 0.74419998E+02 -0.61085E+06
 0.74470001E+02 -0.71178E+06
 0.74519997E+02 -0.84431E+06
 0.74570000E+02 -0.96757E+06
 0.74619995E+02 -0.89868E+06
 0.74669998E+02 -0.60886E+06
 0.74720001E+02 -0.32564E+06
 0.74769997E+02 -0.51753E+05
 0.74820000E+02  0.29363E+06
 0.74869995E+02  0.68966E+06
 0.74919998E+02  0.99786E+06
 0.74970001E+02  0.10293E+07
 0.75019997E+02  0.71910E+06
 0.75070000E+02  0.23745E+06
 0.75119995E+02 -0.12754E+06
 0.75169998E+02 -0.30699E+06
 0.75220001E+02 -0.30986E+06
 0.75269997E+02 -0.14339E+05
 0.75320000E+02  0.40119E+06
 0.75369995E+02  0.50616E+06
 0.75419998E+02  0.24566E+06
 0.75470001E+02 -0.12661E+06
 0.75519997E+02 -0.39781E+06
 0.75570000E+02 -0.64336E+06
 0.75619995E+02 -0.98980E+06
 0.75669998E+02 -0.12790E+07
 0.75720001E+02 -0.13269E+07
 0.75769997E+02 -0.10146E+07
 0.75820000E+02 -0.37996E+06
 0.75869995E+02  0.38113E+06
 0.75919998E+02  0.10581E+07
 0.75970001E+02  0.13955E+07
 0.76019997E+02  0.12508E+07
 0.76070000E+02  0.82478E+06
 0.76119995E+02  0.43895E+06
 0.76169998E+02  0.13375E+06
 0.76220001E+02 -0.16851E+06
 0.76269997E+02 -0.42406E+06
 0.76320000E+02 -0.44018E+06
 0.76369995E+02 -0.12528E+06
 0.76419998E+02  0.32783E+06
 0.76470001E+02  0.67724E+06
 0.76519997E+02  0.70552E+06
 0.76570000E+02  0.39798E+06
 0.76619995E+02 -0.72108E+05
 0.76669998E+02 -0.50887E+06
 0.76720001E+02 -0.74963E+06
 0.76769997E+02 -0.81717E+06
 0.76820000E+02 -0.70517E+06
 0.76869995E+02 -0.36452E+06
 0.76919998E+02  0.78742E+05
 0.76970001E+02  0.48744E+06
 0.77019997E+02  0.79408E+06
 0.77070000E+02  0.86355E+06
 0.77119995E+02  0.64856E+06
 0.77169998E+02  0.28702E+06
 0.77220001E+02 -0.15304E+06
 0.77269997E+02 -0.57620E+06
 0.77320000E+02 -0.75439E+06
 0.77369995E+02 -0.52952E+06
 0.77419998E+02  0.92923E+05
 0.77470001E+02  0.95215E+06
 0.77519997E+02  0.17665E+07
 0.77570000E+02  0.21916E+07
 0.77619995E+02  0.20188E+07
 0.77669998E+02  0.13564E+07
 0.77720001E+02  0.58324E+06
 0.77769997E+02 -0.13187E+05
 0.77820000E+02 -0.34699E+06
 0.77869995E+02 -0.52242E+06
 0.77919998E+02 -0.73522E+06
 0.77970001E+02 -0.91920E+06
 0.78019997E+02 -0.10391E+07
 0.78070000E+02 -0.11157E+07
 0.78119995E+02 -0.10593E+07
 0.78169998E+02 -0.86953E+06
 0.78220001E+02 -0.53378E+06
 0.78269997E+02 -0.82994E+05
 0.78320000E+02  0.41865E+06
 0.78369995E+02  0.94266E+06
 0.78419998E+02  0.13704E+07
 0.78470001E+02  0.16130E+07
 0.78519997E+02  0.16778E+07
 0.78570000E+02  0.15542E+07
 0.78619995E+02  0.13672E+07
 0.78669998E+02  0.12998E+07
 0.78720001E+02  0.12244E+07
 0.78769997E+02  0.10404E+07
 0.78820000E+02  0.84958E+06
 0.78869995E+02  0.64412E+06
 0.78919998E+02  0.38261E+06
 0.78970001E+02  0.14501E+06
 0.79019997E+02  0.98440E+05
 0.79070000E+02  0.22613E+06
 0.79119995E+02  0.44597E+06
 0.79169998E+02  0.76102E+06
 0.79220001E+02  0.10943E+07
 0.79269997E+02  0.13932E+07
 0.79320000E+02  0.15426E+07
 0.79369995E+02  0.15397E+07
 0.79419998E+02  0.15391E+07
 0.79470001E+02  0.13983E+07
 0.79519997E+02  0.99651E+06
 0.79570000E+02  0.49023E+06
 0.79619995E+02  0.48470E+05
 0.79669998E+02 -0.28592E+06
 0.79720001E+02 -0.65438E+06
 0.79769997E+02 -0.10909E+07
 0.79820000E+02 -0.14522E+07
 0.79869995E+02 -0.15633E+07
 0.79919998E+02 -0.13034E+07
 0.79970001E+02 -0.69773E+06
 0.80019997E+02  0.92919E+05
 0.80070000E+02  0.79429E+06
 0.80119995E+02  0.12168E+07
 0.80169998E+02  0.13666E+07
 0.80220001E+02  0.14648E+07
 0.80269997E+02  0.16019E+07
 0.80320000E+02  0.17088E+07
 0.80369995E+02  0.18110E+07
 0.80419998E+02  0.18036E+07
 0.80470001E+02  0.16383E+07
 0.80519997E+02  0.13473E+07
 0.80570000E+02  0.10237E+07
 0.80619995E+02  0.86975E+06
 0.80669998E+02  0.92971E+06
 0.80720001E+02  0.11262E+07
 0.80769997E+02  0.12452E+07
 0.80820000E+02  0.11956E+07
 0.80869995E+02  0.10955E+07
 0.80919998E+02  0.91266E+06
 0.80970001E+02  0.53632E+06
 0.81019997E+02 -0.17936E+05
 0.81070000E+02 -0.58172E+06
 0.81119995E+02 -0.99271E+06
 0.81169998E+02 -0.10582E+07
 0.81220001E+02 -0.63396E+06
 0.81269997E+02  0.12885E+06
 0.81320000E+02  0.92701E+06
 0.81369995E+02  0.14121E+07
 0.81419998E+02  0.14314E+07
 0.81470001E+02  0.11118E+07
 0.81519997E+02  0.57198E+06
 0.81570000E+02 -0.13025E+05
 0.81619995E+02 -0.45394E+06
 0.81669998E+02 -0.73942E+06
 0.81720001E+02 -0.84338E+06
 0.81769997E+02 -0.65504E+06
 0.81820000E+02 -0.24614E+06
 0.81869995E+02  0.17137E+06
 0.81919998E+02  0.43886E+06
 0.81970001E+02  0.45744E+06
 0.82019997E+02  0.26088E+06
 0.82070000E+02 -0.83406E+05
 0.82119995E+02 -0.45660E+06
 0.82169998E+02 -0.55064E+06
 0.82220001E+02 -0.24342E+06
 0.82269997E+02  0.24123E+06
 0.82320000E+02  0.69465E+06
 0.82369995E+02  0.94527E+06
 0.82419998E+02  0.84409E+06
 0.82470001E+02  0.47301E+06
 0.82519997E+02  0.10752E+05
 0.82570000E+02 -0.38936E+06
 0.82619995E+02 -0.54385E+06
 0.82669998E+02 -0.38228E+06
 0.82720001E+02 -0.51252E+05
 0.82769997E+02  0.22846E+06
 0.82820000E+02  0.34915E+06
 0.82869995E+02  0.34520E+06
 0.82919998E+02  0.27232E+06
 0.82970001E+02  0.18336E+06
 0.83019997E+02  0.94088E+05
 0.83070000E+02 -0.32005E+05
 0.83119995E+02 -0.20254E+06
 0.83169998E+02 -0.44505E+06
 0.83220001E+02 -0.75002E+06
 0.83269997E+02 -0.10852E+07
 0.83320000E+02 -0.14084E+07
 0.83369995E+02 -0.16174E+07
 0.83419998E+02 -0.17138E+07
 0.83470001E+02 -0.17094E+07
 0.83519997E+02 -0.15597E+07
 0.83570000E+02 -0.12437E+07
 0.83619995E+02 -0.83453E+06
 0.83669998E+02 -0.54069E+06
 0.83720001E+02 -0.41681E+06
 0.83769997E+02 -0.40236E+06
 0.83820000E+02 -0.47878E+06
 0.83869995E+02 -0.53855E+06
 0.83919998E+02 -0.49963E+06
 0.83970001E+02 -0.42548E+06
 0.84019997E+02 -0.44822E+06
 0.84070000E+02 -0.57264E+06
 0.84119995E+02 -0.63907E+06
 0.84169998E+02 -0.53824E+06
 0.84220001E+02 -0.30588E+06
 0.84269997E+02 -0.79028E+05
 0.84320000E+02  0.71401E+05
 0.84369995E+02  0.15597E+06
 0.84419998E+02  0.17810E+06
 0.84470001E+02  0.17522E+06
 0.84519997E+02  0.17048E+06
 0.84570000E+02  0.10074E+06
 0.84619995E+02 -0.10899E+06
 0.84669998E+02 -0.41466E+06
 0.84720001E+02 -0.71451E+06
 0.84769997E+02 -0.90180E+06
 0.84820000E+02 -0.95084E+06
 0.84869995E+02 -0.94948E+06
 0.84919998E+02 -0.97599E+06
 0.84970001E+02 -0.10733E+07
 0.85019997E+02 -0.11880E+07
 0.85070000E+02 -0.12503E+07
 0.85119995E+02 -0.12079E+07
 0.85169998E+02 -0.10770E+07
 0.85220001E+02 -0.91186E+06
 0.85269997E+02 -0.72223E+06
 0.85320000E+02 -0.60970E+06
 0.85369995E+02 -0.62704E+06
 0.85419998E+02 -0.79804E+06
 0.85470001E+02 -0.10459E+07
 0.85519997E+02 -0.11136E+07
 0.85570000E+02 -0.89036E+06
 0.85619995E+02 -0.46973E+06
 0.85669998E+02 -0.66843E+05
 0.85720001E+02  0.11906E+06
 0.85769997E+02  0.47955E+05
 0.85820000E+02 -0.15260E+06
 0.85869995E+02 -0.32535E+06
 0.85919998E+02 -0.38400E+06
 0.85970001E+02 -0.28990E+06
 0.86019997E+02 -0.96450E+05
 0.86070000E+02  0.64101E+05
 0.86119995E+02  0.12406E+06
 0.86169998E+02  0.11983E+06
 0.86220001E+02  0.61465E+05
 0.86269997E+02 -0.59471E+05
 0.86320000E+02 -0.22807E+06
 0.86369995E+02 -0.37059E+06
 0.86419998E+02 -0.39916E+06
 0.86470001E+02 -0.28691E+06
 0.86519997E+02 -0.20588E+05
 0.86570000E+02  0.26425E+06
 0.86619995E+02  0.36079E+06
 0.86669998E+02  0.22920E+06
 0.86720001E+02 -0.43906E+05
 0.86769997E+02 -0.33997E+06
 0.86820000E+02 -0.58908E+06
 0.86869995E+02 -0.75918E+06
 0.86919998E+02 -0.79742E+06
 0.86970001E+02 -0.68961E+06
 0.87019997E+02 -0.48194E+06
 0.87070000E+02 -0.24323E+06
 0.87119995E+02 -0.70347E+05
 0.87169998E+02 -0.24730E+04
 0.87220001E+02  0.51460E+04
 0.87269997E+02 -0.41778E+05
 0.87320000E+02 -0.18362E+06
 0.87369995E+02 -0.42400E+06
 0.87419998E+02 -0.70145E+06
 0.87470001E+02 -0.95922E+06
 0.87519997E+02 -0.11428E+07
 0.87570000E+02 -0.11767E+07
 0.87619995E+02 -0.10732E+07
 0.87669998E+02 -0.88984E+06
 0.87720001E+02 -0.66338E+06
 0.87769997E+02 -0.38499E+06
 0.87820000E+02 -0.57815E+05
 0.87869995E+02  0.25309E+06
 0.87919998E+02  0.56400E+06
 0.87970001E+02  0.89306E+06
 0.88019997E+02  0.12224E+07
 0.88070000E+02  0.15567E+07
 0.88119995E+02  0.18798E+07
 0.88169998E+02  0.21784E+07
 0.88220001E+02  0.23740E+07
 0.88269997E+02  0.23294E+07
 0.88320000E+02  0.19871E+07
 0.88369995E+02  0.13913E+07
 0.88419998E+02  0.64259E+06
 0.88470001E+02 -0.10119E+06
 0.88519997E+02 -0.64070E+06
 0.88570000E+02 -0.84505E+06
 0.88619995E+02 -0.75974E+06
 0.88669998E+02 -0.50924E+06
 0.88720001E+02 -0.21579E+06
 0.88769997E+02 -0.95350E+04
 0.88820000E+02  0.84076E+05
 0.88869995E+02  0.81507E+05
 0.88919998E+02 -0.45480E+04
 0.88970001E+02 -0.76557E+05
 0.89019997E+02 -0.58706E+05
 0.89070000E+02  0.50872E+05
 0.89119995E+02  0.23205E+06
 0.89169998E+02  0.40662E+06
 0.89220001E+02  0.44700E+06
 0.89269997E+02  0.34666E+06
 0.89320000E+02  0.21610E+06
 0.89369995E+02  0.14750E+06
 0.89419998E+02  0.19876E+06
 0.89470001E+02  0.33283E+06
 0.89519997E+02  0.49594E+06
 0.89570000E+02  0.66094E+06
 0.89619995E+02  0.75476E+06
 0.89669998E+02  0.74789E+06
 0.89720001E+02  0.67731E+06
 0.89769997E+02  0.62135E+06
 0.89820000E+02  0.63333E+06
 0.89869995E+02  0.70000E+06
 0.89919998E+02  0.82083E+06
 0.89970001E+02  0.98212E+06
 0.90019997E+02  0.11741E+07
 0.90070000E+02  0.13867E+07
 0.90119995E+02  0.15461E+07
 0.90169998E+02  0.16200E+07
 0.90220001E+02  0.15901E+07
 0.90269997E+02  0.14004E+07
 0.90320000E+02  0.10881E+07
 0.90369995E+02  0.75367E+06
 0.90419998E+02  0.44986E+06
 0.90470001E+02  0.19203E+06
 0.90519997E+02 -0.14665E+05
 0.90570000E+02 -0.15729E+06
 0.90619995E+02 -0.22091E+06
 0.90669998E+02 -0.25914E+06
 0.90720001E+02 -0.33022E+06
 0.90769997E+02 -0.41460E+06
 0.90820000E+02 -0.49470E+06
 0.90869995E+02 -0.49252E+06
 0.90919998E+02 -0.34012E+06
 0.90970001E+02 -0.12291E+06
 0.91019997E+02  0.99290E+05
 0.91070000E+02  0.26876E+06
 0.91119995E+02  0.30976E+06
 0.91169998E+02  0.25804E+06
 0.91220001E+02  0.11800E+06
 0.91269997E+02 -0.95724E+05
 0.91320000E+02 -0.27255E+06
 0.91369995E+02 -0.36717E+06
 0.91419998E+02 -0.38917E+06
 0.91470001E+02 -0.35586E+06
 0.91519997E+02 -0.27610E+06
 0.91570000E+02 -0.12070E+06
 0.91619995E+02  0.11270E+06
 0.91669998E+02  0.36430E+06
 0.91720001E+02  0.52716E+06
 0.91769997E+02  0.55471E+06
 0.91820000E+02  0.47234E+06
 0.91869995E+02  0.34336E+06
 0.91919998E+02  0.25838E+06
 0.91970001E+02  0.20695E+06
 0.92019997E+02  0.14777E+06
 0.92070000E+02  0.10578E+06
 0.92119995E+02  0.10750E+06
 0.92169998E+02  0.88891E+05
 0.92220001E+02 -0.33338E+05
 0.92269997E+02 -0.22113E+06
 0.92320000E+02 -0.40556E+06
 0.92369995E+02 -0.53708E+06
 0.92419998E+02 -0.63438E+06
 0.92470001E+02 -0.75550E+06
 0.92519997E+02 -0.87812E+06
 0.92570000E+02 -0.99030E+06
 0.92619995E+02 -0.11040E+07
 0.92669998E+02 -0.12025E+07
 0.92720001E+02 -0.12788E+07
 0.92769997E+02 -0.13020E+07
 0.92820000E+02 -0.12383E+07
 0.92869995E+02 -0.11306E+07
 0.92919998E+02 -0.10134E+07
 0.92970001E+02 -0.85709E+06
 0.93019997E+02 -0.67619E+06
 0.93070000E+02 -0.55887E+06
 0.93119995E+02 -0.54118E+06
 0.93169998E+02 -0.56937E+06
 0.93220001E+02 -0.55229E+06
 0.93269997E+02 -0.39904E+06
 0.93320000E+02 -0.10396E+06
 0.93369995E+02  0.24824E+06
 0.93419998E+02  0.56526E+06
 0.93470001E+02  0.80264E+06
 0.93519997E+02  0.94003E+06
 0.93570000E+02  0.95235E+06
 0.93619995E+02  0.83949E+06
 0.93669998E+02  0.66797E+06
 0.93720001E+02  0.52034E+06
 0.93769997E+02  0.39035E+06
 0.93820000E+02  0.21345E+06
 0.93869995E+02 -0.39178E+05
 0.93919998E+02 -0.34560E+06
 0.93970001E+02 -0.65960E+06
 0.94019997E+02 -0.90721E+06
 0.94070000E+02 -0.10614E+07
 0.94119995E+02 -0.11461E+07
 0.94169998E+02 -0.11486E+07
 0.94220001E+02 -0.10920E+07
 0.94269997E+02 -0.10444E+07
 0.94320000E+02 -0.10028E+07
 0.94369995E+02 -0.91598E+06
 0.94419998E+02 -0.73855E+06
 0.94470001E+02 -0.45915E+06
 0.94519997E+02 -0.15515E+06
 0.94570000E+02  0.85039E+05
 0.94619995E+02  0.20434E+06
 0.94669998E+02  0.15107E+06
 0.94720001E+02 -0.63642E+05
 0.94769997E+02 -0.34629E+06
 0.94820000E+02 -0.60664E+06
 0.94869995E+02 -0.78239E+06
 0.94919998E+02 -0.78489E+06
 0.94970001E+02 -0.62516E+06
 0.95019997E+02 -0.42931E+06
 0.95070000E+02 -0.26506E+06
 0.95119995E+02 -0.13289E+06
 0.95169998E+02  0.25429E+05
 0.95220001E+02  0.27226E+06
 0.95269997E+02  0.61358E+06
 0.95320000E+02  0.10376E+07
 0.95369995E+02  0.14811E+07
 0.95419998E+02  0.18292E+07
 0.95470001E+02  0.19859E+07
 0.95519997E+02  0.19135E+07
 0.95570000E+02  0.16317E+07
 0.95619995E+02  0.12106E+07
 0.95669998E+02  0.73642E+06
 0.95720001E+02  0.27730E+06
 0.95769997E+02 -0.70408E+05
 0.95820000E+02 -0.22991E+06
 0.95869995E+02 -0.24731E+06
 0.95919998E+02 -0.21599E+06
 0.95970001E+02 -0.22643E+06
 0.96019997E+02 -0.31033E+06
 0.96070000E+02 -0.35266E+06
 0.96119995E+02 -0.26616E+06
 0.96169998E+02 -0.70440E+05
 0.96220001E+02  0.19006E+06
 0.96269997E+02  0.44520E+06
 0.96320000E+02  0.63788E+06
 0.96369995E+02  0.72916E+06
 0.96419998E+02  0.70541E+06
 0.96470001E+02  0.60573E+06
 0.96519997E+02  0.50065E+06
 0.96570000E+02  0.44971E+06
 0.96619995E+02  0.44992E+06
 0.96669998E+02  0.48213E+06
 0.96720001E+02  0.55622E+06
 0.96769997E+02  0.63914E+06
 0.96820000E+02  0.68773E+06
 0.96869995E+02  0.70782E+06
 0.96919998E+02  0.69939E+06
 0.96970001E+02  0.67186E+06
 0.97019997E+02  0.64091E+06
 0.97070000E+02  0.58757E+06
 0.97119995E+02  0.50293E+06
 0.97169998E+02  0.40479E+06
 0.97220001E+02  0.30488E+06
 0.97269997E+02  0.19843E+06
 0.97320000E+02  0.68514E+05
 0.97369995E+02 -0.70139E+05
 0.97419998E+02 -0.16680E+06
 0.97470001E+02 -0.22093E+06
 0.97519997E+02 -0.24938E+06
 0.97570000E+02 -0.22349E+06
 0.97619995E+02 -0.14311E+06
 0.97669998E+02 -0.88301E+05
 0.97720001E+02 -0.10704E+06
 0.97769997E+02 -0.16467E+06
 0.97820000E+02 -0.23147E+06
 0.97869995E+02 -0.23993E+06
 0.97919998E+02 -0.12568E+06
 0.97970001E+02  0.54646E+05
 0.98019997E+02  0.17932E+06
