-0.20000000E+01  0.33631E+04
-0.19500000E+01  0.33428E+04
-0.19000000E+01  0.33549E+04
-0.18500000E+01  0.33505E+04
-0.18000000E+01  0.33444E+04
-0.17500000E+01  0.33355E+04
-0.17000000E+01  0.33195E+04
-0.16500001E+01  0.33037E+04
-0.16000000E+01  0.32905E+04
-0.15500000E+01  0.32807E+04
-0.15000000E+01  0.32743E+04
-0.14500000E+01  0.32652E+04
-0.14000001E+01  0.32559E+04
-0.13500000E+01  0.32510E+04
-0.13000001E+01  0.32503E+04
-0.12500000E+01  0.32505E+04
-0.12000000E+01  0.32571E+04
-0.11500001E+01  0.32688E+04
-0.11000000E+01  0.32848E+04
-0.10500001E+01  0.32986E+04
-0.10000000E+01  0.33058E+04
-0.95000005E+00  0.33110E+04
-0.90000010E+00  0.33151E+04
-0.85000002E+00  0.33175E+04
-0.80000007E+00  0.33204E+04
-0.75000012E+00  0.33294E+04
-0.70000005E+00  0.33333E+04
-0.65000010E+00  0.33316E+04
-0.60000014E+00  0.33242E+04
-0.55000007E+00  0.33122E+04
-0.50000012E+00  0.32982E+04
-0.45000005E+00  0.32836E+04
-0.40000010E+00  0.32762E+04
-0.35000014E+00  0.32714E+04
-0.30000007E+00  0.32719E+04
-0.25000012E+00  0.32686E+04
-0.20000005E+00  0.32621E+04
-0.15000010E+00  0.32587E+04
-0.10000014E+00  0.32588E+04
-0.50000072E-01  0.32669E+04
-0.11920929E-06  0.32787E+04
 0.49999952E-01  0.32942E+04
 0.99999905E-01  0.32998E+04
 0.14999986E+00  0.33079E+04
 0.19999981E+00  0.33174E+04
 0.24999976E+00  0.33206E+04
 0.29999995E+00  0.33199E+04
 0.34999990E+00  0.33184E+04
 0.39999986E+00  0.33203E+04
 0.44999981E+00  0.33172E+04
 0.49999976E+00  0.33201E+04
 0.54999995E+00  0.33170E+04
 0.59999990E+00  0.33104E+04
 0.64999986E+00  0.33042E+04
 0.69999981E+00  0.32928E+04
 0.74999976E+00  0.32810E+04
 0.79999971E+00  0.32757E+04
 0.84999990E+00  0.32762E+04
 0.89999986E+00  0.32809E+04
 0.94999981E+00  0.32932E+04
 0.99999976E+00  0.33015E+04
 0.10499997E+01  0.33103E+04
 0.10999999E+01  0.33184E+04
 0.11499999E+01  0.33287E+04
 0.11999998E+01  0.33379E+04
 0.12499998E+01  0.33407E+04
 0.12999997E+01  0.33379E+04
 0.13499999E+01  0.33312E+04
 0.13999999E+01  0.33212E+04
 0.14499998E+01  0.33064E+04
 0.14999998E+01  0.32955E+04
 0.15499997E+01  0.32870E+04
 0.15999999E+01  0.32834E+04
 0.16499999E+01  0.32864E+04
 0.16999998E+01  0.32841E+04
 0.17499998E+01  0.32795E+04
 0.17999997E+01  0.32820E+04
 0.18499997E+01  0.32794E+04
 0.18999999E+01  0.32767E+04
 0.19499998E+01  0.32816E+04
 0.19999998E+01  0.32883E+04
 0.20499997E+01  0.33010E+04
 0.20999999E+01  0.33098E+04
 0.21499996E+01  0.33144E+04
 0.21999998E+01  0.33188E+04
 0.22499995E+01  0.33200E+04
 0.22999997E+01  0.33220E+04
 0.23499999E+01  0.33210E+04
 0.23999996E+01  0.33173E+04
 0.24499998E+01  0.33074E+04
 0.24999995E+01  0.32931E+04
 0.25499997E+01  0.32790E+04
 0.25999999E+01  0.32693E+04
 0.26499996E+01  0.32625E+04
 0.26999998E+01  0.32616E+04
 0.27499995E+01  0.32642E+04
 0.27999997E+01  0.32679E+04
 0.28499999E+01  0.32692E+04
 0.28999996E+01  0.32706E+04
 0.29499998E+01  0.32818E+04
 0.29999995E+01  0.32907E+04
 0.30499997E+01  0.33013E+04
 0.30999999E+01  0.33108E+04
 0.31499996E+01  0.33161E+04
 0.31999998E+01  0.33228E+04
 0.32499995E+01  0.33267E+04
 0.32999997E+01  0.33294E+04
 0.33499999E+01  0.33246E+04
 0.33999996E+01  0.33170E+04
 0.34499998E+01  0.33139E+04
 0.34999995E+01  0.33090E+04
 0.35499997E+01  0.33060E+04
 0.35999994E+01  0.33084E+04
 0.36499996E+01  0.33114E+04
 0.36999998E+01  0.33100E+04
 0.37499995E+01  0.33049E+04
 0.37999997E+01  0.32997E+04
 0.38499994E+01  0.32996E+04
 0.38999996E+01  0.33018E+04
 0.39499998E+01  0.33013E+04
 0.39999995E+01  0.33087E+04
 0.40499997E+01  0.33122E+04
 0.40999994E+01  0.33127E+04
 0.41499996E+01  0.33140E+04
 0.41999998E+01  0.33123E+04
 0.42499995E+01  0.33143E+04
 0.42999997E+01  0.33158E+04
 0.43499994E+01  0.33210E+04
 0.43999996E+01  0.33245E+04
 0.44499998E+01  0.33237E+04
 0.44999995E+01  0.33196E+04
 0.45499997E+01  0.33137E+04
 0.45999994E+01  0.33056E+04
 0.46499996E+01  0.33005E+04
 0.46999998E+01  0.32988E+04
 0.47499995E+01  0.32964E+04
 0.47999997E+01  0.32988E+04
 0.48499994E+01  0.33017E+04
 0.48999996E+01  0.33085E+04
 0.49499998E+01  0.33149E+04
 0.49999995E+01  0.33177E+04
 0.50499997E+01  0.33165E+04
 0.50999994E+01  0.33060E+04
 0.51499996E+01  0.33012E+04
 0.51999998E+01  0.33010E+04
 0.52499995E+01  0.33058E+04
 0.52999997E+01  0.33092E+04
 0.53499994E+01  0.33093E+04
 0.53999996E+01  0.33134E+04
 0.54499993E+01  0.33142E+04
 0.54999995E+01  0.33153E+04
 0.55499997E+01  0.33139E+04
 0.55999994E+01  0.33159E+04
 0.56499996E+01  0.33148E+04
 0.56999993E+01  0.33072E+04
 0.57499995E+01  0.32984E+04
 0.57999997E+01  0.32931E+04
 0.58499994E+01  0.32868E+04
 0.58999996E+01  0.32749E+04
 0.59499993E+01  0.32690E+04
 0.59999995E+01  0.32624E+04
 0.60499992E+01  0.32517E+04
 0.60999994E+01  0.32435E+04
 0.61499996E+01  0.32440E+04
 0.61999998E+01  0.32501E+04
 0.62499990E+01  0.32587E+04
 0.62999992E+01  0.32699E+04
 0.63499994E+01  0.32813E+04
 0.63999996E+01  0.32907E+04
 0.64499998E+01  0.32997E+04
 0.64999990E+01  0.33069E+04
 0.65499992E+01  0.33101E+04
 0.65999994E+01  0.33130E+04
 0.66499996E+01  0.33131E+04
 0.66999998E+01  0.33146E+04
 0.67499990E+01  0.33154E+04
 0.67999992E+01  0.33176E+04
 0.68499994E+01  0.33190E+04
 0.68999996E+01  0.33128E+04
 0.69499998E+01  0.33108E+04
 0.69999990E+01  0.33085E+04
 0.70499992E+01  0.33066E+04
 0.70999994E+01  0.33080E+04
 0.71499996E+01  0.33134E+04
 0.71999998E+01  0.33174E+04
 0.72499990E+01  0.33164E+04
 0.72999992E+01  0.33127E+04
 0.73499994E+01  0.33088E+04
 0.73999996E+01  0.33068E+04
 0.74499998E+01  0.33092E+04
 0.74999990E+01  0.33123E+04
 0.75499992E+01  0.33079E+04
 0.75999994E+01  0.33044E+04
 0.76499996E+01  0.32994E+04
 0.76999998E+01  0.33009E+04
 0.77499990E+01  0.33079E+04
 0.77999992E+01  0.33133E+04
 0.78499994E+01  0.33199E+04
 0.78999996E+01  0.33319E+04
 0.79499998E+01  0.33447E+04
 0.79999990E+01  0.33526E+04
 0.80499992E+01  0.33544E+04
 0.80999994E+01  0.33523E+04
 0.81499996E+01  0.33395E+04
 0.81999998E+01  0.33285E+04
 0.82499990E+01  0.33259E+04
 0.82999992E+01  0.33209E+04
 0.83499994E+01  0.33216E+04
 0.83999996E+01  0.33162E+04
 0.84499998E+01  0.33076E+04
 0.84999990E+01  0.32954E+04
 0.85499992E+01  0.32781E+04
 0.85999994E+01  0.32662E+04
 0.86499996E+01  0.32571E+04
 0.86999998E+01  0.32462E+04
 0.87499990E+01  0.32376E+04
 0.87999992E+01  0.32331E+04
 0.88499994E+01  0.32334E+04
 0.88999996E+01  0.32336E+04
 0.89499998E+01  0.32392E+04
 0.89999990E+01  0.32475E+04
 0.90499992E+01  0.32563E+04
 0.90999994E+01  0.32665E+04
 0.91499996E+01  0.32766E+04
 0.91999989E+01  0.32920E+04
 0.92499990E+01  0.33039E+04
 0.92999992E+01  0.33091E+04
 0.93499994E+01  0.33095E+04
 0.93999996E+01  0.33085E+04
 0.94499989E+01  0.33010E+04
 0.94999990E+01  0.32966E+04
 0.95499992E+01  0.32924E+04
 0.95999994E+01  0.32929E+04
 0.96499996E+01  0.32942E+04
 0.96999989E+01  0.32971E+04
 0.97499990E+01  0.33028E+04
 0.97999992E+01  0.33089E+04
 0.98499994E+01  0.33141E+04
 0.98999996E+01  0.33154E+04
 0.99499989E+01  0.33205E+04
 0.99999990E+01  0.33238E+04
 0.10049999E+02  0.33313E+04
 0.10099999E+02  0.33399E+04
 0.10150000E+02  0.33470E+04
 0.10199999E+02  0.33442E+04
 0.10249999E+02  0.33389E+04
 0.10299999E+02  0.33325E+04
 0.10349999E+02  0.33234E+04
 0.10400000E+02  0.33125E+04
 0.10449999E+02  0.33028E+04
 0.10499999E+02  0.32968E+04
 0.10549999E+02  0.32896E+04
 0.10599999E+02  0.32837E+04
 0.10650000E+02  0.32814E+04
 0.10699999E+02  0.32878E+04
 0.10749999E+02  0.32939E+04
 0.10799999E+02  0.33009E+04
 0.10849999E+02  0.32998E+04
 0.10900000E+02  0.33039E+04
 0.10949999E+02  0.33032E+04
 0.10999999E+02  0.32987E+04
 0.11049999E+02  0.33016E+04
 0.11099999E+02  0.33044E+04
 0.11150000E+02  0.33101E+04
 0.11199999E+02  0.33099E+04
 0.11249999E+02  0.33115E+04
 0.11299999E+02  0.33106E+04
 0.11349999E+02  0.33113E+04
 0.11400000E+02  0.33062E+04
 0.11449999E+02  0.32975E+04
 0.11499999E+02  0.32886E+04
 0.11549999E+02  0.32811E+04
 0.11599999E+02  0.32804E+04
 0.11650000E+02  0.32789E+04
 0.11699999E+02  0.32830E+04
 0.11749999E+02  0.32892E+04
 0.11799999E+02  0.32939E+04
 0.11849999E+02  0.32987E+04
 0.11900000E+02  0.32989E+04
 0.11949999E+02  0.33020E+04
 0.11999999E+02  0.33089E+04
 0.12049999E+02  0.33143E+04
 0.12099999E+02  0.33260E+04
 0.12150000E+02  0.33369E+04
 0.12199999E+02  0.33477E+04
 0.12249999E+02  0.33491E+04
 0.12299999E+02  0.33503E+04
 0.12349999E+02  0.33462E+04
 0.12400000E+02  0.33357E+04
 0.12449999E+02  0.33269E+04
 0.12499999E+02  0.33160E+04
 0.12549999E+02  0.33099E+04
 0.12599999E+02  0.33022E+04
 0.12649999E+02  0.33011E+04
 0.12699999E+02  0.32977E+04
 0.12749999E+02  0.32956E+04
 0.12799999E+02  0.32932E+04
 0.12849999E+02  0.32929E+04
 0.12899999E+02  0.32955E+04
 0.12949999E+02  0.32968E+04
 0.12999999E+02  0.32939E+04
 0.13049999E+02  0.32890E+04
 0.13099999E+02  0.32910E+04
 0.13149999E+02  0.32910E+04
 0.13199999E+02  0.32927E+04
 0.13249999E+02  0.32917E+04
 0.13299999E+02  0.32931E+04
 0.13349999E+02  0.32900E+04
 0.13399999E+02  0.32914E+04
 0.13449999E+02  0.32944E+04
 0.13499999E+02  0.32928E+04
 0.13549999E+02  0.32934E+04
 0.13599999E+02  0.32867E+04
 0.13649999E+02  0.32861E+04
 0.13699999E+02  0.32877E+04
 0.13749999E+02  0.32897E+04
 0.13799999E+02  0.32933E+04
 0.13849999E+02  0.32973E+04
 0.13899999E+02  0.33011E+04
 0.13949999E+02  0.33038E+04
 0.13999999E+02  0.33015E+04
 0.14049999E+02  0.32998E+04
 0.14099998E+02  0.32988E+04
 0.14150000E+02  0.32962E+04
 0.14199999E+02  0.32958E+04
 0.14249998E+02  0.32956E+04
 0.14299999E+02  0.32943E+04
 0.14349998E+02  0.32889E+04
 0.14400000E+02  0.32874E+04
 0.14449999E+02  0.32894E+04
 0.14499998E+02  0.32926E+04
 0.14549999E+02  0.32953E+04
 0.14599998E+02  0.32976E+04
 0.14650000E+02  0.32984E+04
 0.14699999E+02  0.33002E+04
 0.14749998E+02  0.33021E+04
 0.14799999E+02  0.32981E+04
 0.14849998E+02  0.32936E+04
 0.14900000E+02  0.32903E+04
 0.14949999E+02  0.32869E+04
 0.14999998E+02  0.32893E+04
 0.15049999E+02  0.32911E+04
 0.15099998E+02  0.32965E+04
 0.15150000E+02  0.33017E+04
 0.15199999E+02  0.33069E+04
 0.15249998E+02  0.33152E+04
 0.15299999E+02  0.33169E+04
 0.15349998E+02  0.33213E+04
 0.15400000E+02  0.33245E+04
 0.15449999E+02  0.33220E+04
 0.15499998E+02  0.33167E+04
 0.15549999E+02  0.33134E+04
 0.15599998E+02  0.33086E+04
 0.15650000E+02  0.33052E+04
 0.15699999E+02  0.33054E+04
 0.15749998E+02  0.33097E+04
 0.15799999E+02  0.33091E+04
 0.15849998E+02  0.33083E+04
 0.15900000E+02  0.33131E+04
 0.15949999E+02  0.33182E+04
 0.15999998E+02  0.33248E+04
 0.16049999E+02  0.33283E+04
 0.16099998E+02  0.33310E+04
 0.16150000E+02  0.33309E+04
 0.16199999E+02  0.33292E+04
 0.16249998E+02  0.33201E+04
 0.16299999E+02  0.33121E+04
 0.16349998E+02  0.33009E+04
 0.16400000E+02  0.32908E+04
 0.16449999E+02  0.32868E+04
 0.16499998E+02  0.32819E+04
 0.16549999E+02  0.32806E+04
 0.16599998E+02  0.32823E+04
 0.16650000E+02  0.32870E+04
 0.16699999E+02  0.32888E+04
 0.16749998E+02  0.32968E+04
 0.16799999E+02  0.33042E+04
 0.16849998E+02  0.33048E+04
 0.16900000E+02  0.33034E+04
 0.16949999E+02  0.33032E+04
 0.16999998E+02  0.33054E+04
 0.17049999E+02  0.33047E+04
 0.17099998E+02  0.33024E+04
 0.17150000E+02  0.33017E+04
 0.17199999E+02  0.32970E+04
 0.17249998E+02  0.32952E+04
 0.17299999E+02  0.32969E+04
 0.17349998E+02  0.32962E+04
 0.17400000E+02  0.32964E+04
 0.17449999E+02  0.32941E+04
 0.17499998E+02  0.32963E+04
 0.17549999E+02  0.32961E+04
 0.17599998E+02  0.32953E+04
 0.17650000E+02  0.32969E+04
 0.17699999E+02  0.32957E+04
 0.17749998E+02  0.32950E+04
 0.17799999E+02  0.32933E+04
 0.17849998E+02  0.32918E+04
 0.17900000E+02  0.32901E+04
 0.17949999E+02  0.32860E+04
 0.17999998E+02  0.32842E+04
 0.18049999E+02  0.32849E+04
 0.18099998E+02  0.32843E+04
 0.18150000E+02  0.32857E+04
 0.18199999E+02  0.32841E+04
 0.18249998E+02  0.32871E+04
 0.18299999E+02  0.32922E+04
 0.18349998E+02  0.32967E+04
 0.18400000E+02  0.33052E+04
 0.18449999E+02  0.33103E+04
 0.18499998E+02  0.33121E+04
 0.18549999E+02  0.33107E+04
 0.18599998E+02  0.33170E+04
 0.18650000E+02  0.33234E+04
 0.18699999E+02  0.33280E+04
 0.18749998E+02  0.33290E+04
 0.18799999E+02  0.33305E+04
 0.18849998E+02  0.33302E+04
 0.18900000E+02  0.33282E+04
 0.18949999E+02  0.33265E+04
 0.18999998E+02  0.33232E+04
 0.19049999E+02  0.33202E+04
 0.19099998E+02  0.33145E+04
 0.19150000E+02  0.33143E+04
 0.19199999E+02  0.33084E+04
 0.19249998E+02  0.32999E+04
 0.19299999E+02  0.32887E+04
 0.19349998E+02  0.32808E+04
 0.19400000E+02  0.32754E+04
 0.19449999E+02  0.32698E+04
 0.19499998E+02  0.32691E+04
 0.19549999E+02  0.32628E+04
 0.19599998E+02  0.32624E+04
 0.19650000E+02  0.32645E+04
 0.19699999E+02  0.32652E+04
 0.19749998E+02  0.32698E+04
 0.19799999E+02  0.32745E+04
 0.19849998E+02  0.32776E+04
 0.19900000E+02  0.32870E+04
 0.19949999E+02  0.32974E+04
 0.19999998E+02  0.33034E+04
 0.20049999E+02  0.33043E+04
 0.20099998E+02  0.33006E+04
 0.20150000E+02  0.32995E+04
 0.20199999E+02  0.32993E+04
 0.20249998E+02  0.33024E+04
 0.20299999E+02  0.32992E+04
 0.20349998E+02  0.32938E+04
 0.20399998E+02  0.32868E+04
 0.20449999E+02  0.32806E+04
 0.20499998E+02  0.32768E+04
 0.20549999E+02  0.32784E+04
 0.20599998E+02  0.32805E+04
 0.20649998E+02  0.32816E+04
 0.20699999E+02  0.32858E+04
 0.20749998E+02  0.32854E+04
 0.20799999E+02  0.32879E+04
 0.20849998E+02  0.32888E+04
 0.20899998E+02  0.32905E+04
 0.20949999E+02  0.32953E+04
 0.20999998E+02  0.32985E+04
 0.21049999E+02  0.33042E+04
 0.21099998E+02  0.33099E+04
 0.21149998E+02  0.33143E+04
 0.21199999E+02  0.33200E+04
 0.21249998E+02  0.33248E+04
 0.21299999E+02  0.33317E+04
 0.21349998E+02  0.33373E+04
 0.21399998E+02  0.33425E+04
 0.21449999E+02  0.33468E+04
 0.21499998E+02  0.33467E+04
 0.21549999E+02  0.33433E+04
 0.21599998E+02  0.33381E+04
 0.21649998E+02  0.33280E+04
 0.21699999E+02  0.33154E+04
 0.21749998E+02  0.33056E+04
 0.21799999E+02  0.33002E+04
 0.21849998E+02  0.32952E+04
 0.21899998E+02  0.32889E+04
 0.21949999E+02  0.32892E+04
 0.21999998E+02  0.32928E+04
 0.22049999E+02  0.32947E+04
 0.22099998E+02  0.32949E+04
 0.22149998E+02  0.32961E+04
 0.22199999E+02  0.32936E+04
 0.22249998E+02  0.32891E+04
 0.22299999E+02  0.32834E+04
 0.22349998E+02  0.32787E+04
 0.22399998E+02  0.32724E+04
 0.22449999E+02  0.32678E+04
 0.22499998E+02  0.32698E+04
 0.22549999E+02  0.32800E+04
 0.22599998E+02  0.32683E+04
 0.22649998E+02  0.32354E+04
 0.22699999E+02  0.32227E+04
 0.22749998E+02  0.33061E+04
 0.22799999E+02  0.34003E+04
 0.22849998E+02  0.34402E+04
 0.22899998E+02  0.34064E+04
 0.22949999E+02  0.32175E+04
 0.22999998E+02  0.30159E+04
 0.23049999E+02  0.29726E+04
 0.23099998E+02  0.31490E+04
 0.23149998E+02  0.34649E+04
 0.23199999E+02  0.35521E+04
 0.23249998E+02  0.34743E+04
 0.23299999E+02  0.34419E+04
 0.23349998E+02  0.32060E+04
 0.23399998E+02  0.31180E+04
 0.23449999E+02  0.34037E+04
 0.23499998E+02  0.37226E+04
 0.23549999E+02  0.39124E+04
 0.23599998E+02  0.35814E+04
 0.23649998E+02  0.31204E+04
 0.23699999E+02  0.28342E+04
 0.23749998E+02  0.23941E+04
 0.23799999E+02  0.27351E+04
 0.23849998E+02  0.37810E+04
 0.23899998E+02  0.44407E+04
 0.23949999E+02  0.44230E+04
 0.23999998E+02  0.36254E+04
 0.24049999E+02  0.29965E+04
 0.24099998E+02  0.23934E+04
 0.24149998E+02  0.22477E+04
 0.24199999E+02  0.33793E+04
 0.24249998E+02  0.40346E+04
 0.24299999E+02  0.38104E+04
 0.24349998E+02  0.29612E+04
 0.24399998E+02  0.23845E+04
 0.24449999E+02  0.27426E+04
 0.24499998E+02  0.21944E+04
 0.24549999E+02  0.27517E+04
 0.24599998E+02  0.41398E+04
 0.24649998E+02  0.37311E+04
 0.24699999E+02  0.38580E+04
 0.24749998E+02  0.38839E+04
 0.24799999E+02  0.34511E+04
 0.24849998E+02  0.25964E+04
 0.24899998E+02  0.33087E+04
 0.24949999E+02  0.32785E+04
 0.24999998E+02  0.28703E+04
 0.25049999E+02  0.40589E+04
 0.25099998E+02  0.34906E+04
 0.25149998E+02  0.29635E+04
 0.25199999E+02  0.32469E+04
 0.25249998E+02  0.41228E+04
 0.25299999E+02  0.40177E+04
 0.25349998E+02  0.35507E+04
 0.25399998E+02  0.28864E+04
 0.25449999E+02  0.40772E+04
 0.25499998E+02  0.50978E+04
 0.25549999E+02  0.27373E+04
 0.25599998E+02  0.29096E+04
 0.25649998E+02  0.34141E+04
 0.25699999E+02  0.20763E+04
 0.25749998E+02  0.16776E+04
 0.25799999E+02  0.19703E+04
 0.25849998E+02  0.24907E+04
 0.25899998E+02  0.29345E+04
 0.25949999E+02  0.31286E+04
 0.25999998E+02  0.45315E+04
 0.26049999E+02  0.49715E+04
 0.26099998E+02  0.15654E+04
 0.26149998E+02  0.18122E+04
 0.26199999E+02  0.32367E+04
 0.26249998E+02  0.23005E+04
 0.26299999E+02  0.43852E+04
 0.26349998E+02  0.51807E+04
 0.26399998E+02  0.39474E+04
 0.26449999E+02  0.51690E+04
 0.26499998E+02  0.36845E+04
 0.26549999E+02  0.19421E+04
 0.26599998E+02  0.40426E+04
 0.26649998E+02  0.29395E+04
 0.26699999E+02  0.29344E+04
 0.26749998E+02  0.42097E+04
 0.26799999E+02  0.42838E+04
 0.26849998E+02  0.19357E+04
 0.26899998E+02  0.22433E+04
 0.26949999E+02  0.55281E+04
 0.26999998E+02  0.34216E+04
 0.27049997E+02  0.36262E+04
 0.27099998E+02  0.29720E+04
 0.27149998E+02  0.13074E+04
 0.27199999E+02  0.25598E+04
 0.27249998E+02  0.40091E+04
 0.27299997E+02  0.42762E+04
 0.27349998E+02  0.44667E+04
 0.27399998E+02  0.36440E+04
 0.27449999E+02  0.19580E+04
 0.27499998E+02  0.15241E+04
 0.27549997E+02  0.13380E+04
 0.27599998E+02  0.21005E+04
 0.27649998E+02  0.25101E+04
 0.27699999E+02  0.27777E+04
 0.27749998E+02  0.35874E+04
 0.27799997E+02  0.45654E+04
 0.27849998E+02  0.47113E+04
 0.27899998E+02  0.49471E+04
 0.27949999E+02  0.39661E+04
 0.27999998E+02  0.40305E+04
 0.28049997E+02  0.35764E+04
 0.28099998E+02  0.22274E+04
 0.28149998E+02  0.27970E+04
 0.28199999E+02  0.31403E+04
 0.28249998E+02  0.24901E+04
 0.28299997E+02  0.40198E+04
 0.28349998E+02  0.56081E+04
 0.28399998E+02  0.41036E+04
 0.28449999E+02  0.17565E+04
 0.28499998E+02  0.16267E+04
 0.28549997E+02  0.20630E+04
 0.28599998E+02  0.24040E+04
 0.28649998E+02  0.41381E+04
 0.28699999E+02  0.46895E+04
 0.28749998E+02  0.32965E+04
 0.28799997E+02  0.29267E+04
 0.28849998E+02  0.36135E+04
 0.28899998E+02  0.19916E+04
 0.28949999E+02 -0.54393E+03
 0.28999998E+02  0.47323E+03
 0.29049997E+02  0.44608E+04
 0.29099998E+02  0.40028E+04
 0.29149998E+02  0.43487E+04
 0.29199999E+02  0.48612E+04
 0.29249998E+02  0.48963E+04
 0.29299997E+02  0.35831E+04
 0.29349998E+02  0.32513E+04
 0.29399998E+02  0.50237E+04
 0.29449999E+02  0.54715E+04
 0.29499998E+02  0.66040E+04
 0.29549997E+02  0.43910E+04
 0.29599998E+02  0.41629E+04
 0.29649998E+02  0.39408E+04
 0.29699999E+02  0.61747E+03
 0.29749998E+02  0.19527E+04
 0.29799997E+02  0.37775E+04
 0.29849998E+02  0.11054E+04
 0.29899998E+02  0.13001E+04
 0.29949999E+02  0.31657E+04
 0.29999998E+02  0.37539E+04
 0.30049999E+02  0.34147E+04
 0.30099998E+02  0.31250E+04
 0.30149998E+02  0.25411E+04
 0.30199997E+02  0.17094E+04
 0.30249996E+02  0.23291E+04
 0.30299999E+02  0.26734E+04
 0.30349998E+02  0.38767E+04
 0.30399998E+02  0.46709E+04
 0.30449997E+02  0.46295E+04
 0.30499996E+02  0.35851E+04
 0.30549999E+02  0.20817E+04
 0.30599998E+02  0.18009E+04
 0.30649998E+02  0.19101E+04
 0.30699997E+02  0.32790E+04
 0.30749996E+02  0.43970E+04
 0.30799999E+02  0.48973E+04
 0.30849998E+02  0.48964E+04
 0.30899998E+02  0.52532E+04
 0.30949997E+02  0.41298E+04
 0.30999996E+02  0.29025E+04
 0.31049999E+02  0.44283E+04
 0.31099998E+02  0.31723E+04
 0.31149998E+02  0.26513E+04
 0.31199997E+02  0.44178E+04
 0.31249996E+02  0.36048E+04
 0.31299999E+02  0.18275E+03
 0.31349998E+02  0.15109E+04
 0.31399998E+02  0.41970E+04
 0.31449997E+02  0.30890E+04
 0.31499996E+02  0.37269E+04
 0.31549999E+02  0.38099E+04
 0.31599998E+02  0.29245E+04
 0.31649998E+02  0.27713E+04
 0.31699997E+02  0.23226E+04
 0.31749996E+02  0.25785E+04
 0.31799999E+02  0.33469E+04
 0.31849998E+02  0.36336E+04
 0.31899998E+02  0.35669E+04
 0.31949997E+02  0.42073E+04
 0.31999996E+02  0.27255E+04
 0.32049999E+02  0.21203E+04
 0.32099998E+02  0.40287E+04
 0.32149998E+02  0.44188E+04
 0.32199997E+02  0.40635E+04
 0.32249996E+02  0.21861E+04
 0.32299999E+02  0.28583E+04
 0.32349998E+02  0.26184E+04
 0.32399998E+02  0.17732E+04
 0.32449997E+02  0.38550E+04
 0.32499996E+02  0.43597E+04
 0.32549999E+02  0.41325E+04
 0.32599998E+02  0.41618E+04
 0.32649998E+02  0.40189E+04
 0.32699997E+02  0.38488E+04
 0.32749996E+02  0.27912E+04
 0.32799999E+02  0.30547E+04
 0.32849998E+02  0.37919E+04
 0.32899998E+02  0.35129E+04
 0.32949997E+02  0.47285E+04
 0.32999996E+02  0.38803E+04
 0.33049999E+02  0.23677E+04
 0.33099998E+02  0.19279E+04
 0.33149998E+02  0.23046E+04
 0.33199997E+02  0.32031E+04
 0.33249996E+02  0.25613E+04
 0.33299999E+02  0.19566E+04
 0.33349998E+02  0.32141E+04
 0.33399998E+02  0.43479E+04
 0.33449997E+02  0.31571E+04
 0.33499996E+02  0.32909E+04
 0.33549999E+02  0.38836E+04
 0.33599998E+02  0.28203E+04
 0.33649998E+02  0.32977E+04
 0.33699997E+02  0.43264E+04
 0.33749996E+02  0.35705E+04
 0.33799999E+02  0.22229E+04
 0.33849998E+02  0.26251E+04
 0.33899998E+02  0.28053E+04
 0.33949997E+02  0.33273E+04
 0.33999996E+02  0.47976E+04
 0.34049999E+02  0.46889E+04
 0.34099998E+02  0.51508E+04
 0.34149998E+02  0.32914E+04
 0.34199997E+02  0.16086E+04
 0.34249996E+02  0.28248E+04
 0.34299999E+02  0.32526E+04
 0.34349998E+02  0.22643E+04
 0.34399998E+02  0.12231E+04
 0.34449997E+02  0.32873E+04
 0.34499996E+02  0.38161E+04
 0.34549999E+02  0.29198E+04
 0.34599998E+02  0.30872E+04
 0.34649998E+02  0.40016E+04
 0.34699997E+02  0.43921E+04
 0.34749996E+02  0.39037E+04
 0.34799999E+02  0.58035E+04
 0.34849998E+02  0.52143E+04
 0.34899998E+02  0.28108E+04
 0.34949997E+02  0.16524E+04
 0.34999996E+02  0.15144E+04
 0.35049999E+02  0.18675E+04
 0.35099998E+02  0.25076E+04
 0.35149998E+02  0.27140E+04
 0.35199997E+02  0.30983E+04
 0.35249996E+02  0.31451E+04
 0.35299999E+02  0.17509E+04
 0.35349998E+02  0.30805E+04
 0.35399998E+02  0.46402E+04
 0.35449997E+02  0.56017E+04
 0.35499996E+02  0.65564E+04
 0.35549999E+02  0.60216E+04
 0.35599998E+02  0.44693E+04
 0.35649998E+02  0.29951E+04
 0.35699997E+02  0.17304E+04
 0.35749996E+02  0.14538E+04
 0.35799999E+02  0.19938E+04
 0.35849998E+02  0.27807E+04
 0.35899998E+02  0.28633E+04
 0.35949997E+02  0.27444E+04
 0.35999996E+02  0.31469E+04
 0.36049999E+02  0.40098E+04
 0.36099998E+02  0.50602E+04
 0.36149998E+02  0.48815E+04
 0.36199997E+02  0.39436E+04
 0.36249996E+02  0.31930E+04
 0.36299999E+02  0.25805E+04
 0.36349998E+02  0.10566E+04
 0.36399998E+02  0.68161E+03
 0.36449997E+02  0.10015E+04
 0.36499996E+02  0.18653E+04
 0.36549999E+02  0.26130E+04
 0.36599998E+02  0.37442E+04
 0.36649998E+02  0.51773E+04
 0.36699997E+02  0.49051E+04
 0.36749996E+02  0.40618E+04
 0.36799999E+02  0.34119E+04
 0.36849998E+02  0.43323E+04
 0.36899998E+02  0.48629E+04
 0.36949997E+02  0.41722E+04
 0.36999996E+02  0.42034E+04
 0.37049999E+02  0.34375E+04
 0.37099998E+02  0.21598E+04
 0.37149998E+02  0.91393E+03
 0.37199997E+02  0.12704E+04
 0.37249996E+02  0.25910E+04
 0.37299999E+02  0.25552E+04
 0.37349998E+02  0.35781E+04
 0.37399998E+02  0.48617E+04
 0.37449997E+02  0.57379E+04
 0.37499996E+02  0.50336E+04
 0.37549999E+02  0.44066E+04
 0.37599998E+02  0.42235E+04
 0.37649998E+02  0.28993E+04
 0.37699997E+02  0.26193E+04
 0.37749996E+02  0.17952E+04
 0.37799999E+02  0.11992E+04
 0.37849998E+02  0.18889E+04
 0.37899998E+02  0.32557E+04
 0.37949997E+02  0.32453E+04
 0.37999996E+02  0.22284E+04
 0.38049999E+02  0.23558E+04
 0.38099998E+02  0.29446E+04
 0.38149998E+02  0.37864E+04
 0.38199997E+02  0.38170E+04
 0.38249996E+02  0.39737E+04
 0.38299999E+02  0.42924E+04
 0.38349998E+02  0.39656E+04
 0.38399998E+02  0.38344E+04
 0.38449997E+02  0.36198E+04
 0.38499996E+02  0.23448E+04
 0.38549999E+02  0.35585E+04
 0.38599998E+02  0.46096E+04
 0.38649998E+02  0.37603E+04
 0.38699997E+02  0.48468E+04
 0.38749996E+02  0.52797E+04
 0.38799999E+02  0.54171E+04
 0.38849998E+02  0.40074E+04
 0.38899998E+02  0.23980E+04
 0.38949997E+02  0.14976E+04
 0.38999996E+02  0.12631E+04
 0.39049999E+02  0.12510E+04
 0.39099998E+02  0.11629E+04
 0.39149998E+02  0.22391E+04
 0.39199997E+02  0.23432E+04
 0.39249996E+02  0.21232E+04
 0.39299999E+02  0.29579E+04
 0.39349998E+02  0.59114E+04
 0.39399998E+02  0.57629E+04
 0.39449997E+02  0.35059E+04
 0.39499996E+02  0.27365E+04
 0.39549999E+02  0.12645E+04
 0.39599998E+02  0.23761E+04
 0.39649998E+02  0.26667E+04
 0.39699997E+02  0.19288E+04
 0.39749996E+02  0.33809E+04
 0.39799999E+02  0.55308E+04
 0.39849998E+02  0.45695E+04
 0.39899998E+02  0.24132E+04
 0.39949997E+02  0.31875E+04
 0.39999996E+02  0.32292E+04
 0.40049999E+02  0.27848E+04
 0.40099998E+02  0.19553E+04
 0.40149998E+02  0.24267E+04
 0.40199997E+02  0.16869E+04
 0.40249996E+02  0.30333E+03
 0.40299999E+02  0.24538E+04
 0.40349998E+02  0.47841E+04
 0.40399998E+02  0.48609E+04
 0.40449997E+02  0.53908E+04
 0.40499996E+02  0.68754E+04
 0.40549999E+02  0.51263E+04
 0.40599998E+02  0.38104E+04
 0.40649998E+02  0.34378E+04
 0.40699997E+02  0.35915E+04
 0.40749996E+02  0.46921E+04
 0.40799999E+02  0.40574E+04
 0.40849998E+02  0.36493E+04
 0.40899998E+02  0.40565E+04
 0.40949997E+02  0.49951E+04
 0.40999996E+02  0.33649E+04
 0.41049999E+02  0.18655E+04
 0.41099998E+02  0.23727E+04
 0.41149998E+02  0.67189E+03
 0.41199997E+02  0.30358E+04
 0.41249996E+02  0.70722E+04
 0.41299999E+02  0.59266E+04
 0.41349998E+02  0.35607E+04
 0.41399998E+02  0.22094E+04
 0.41449997E+02  0.89960E+03
 0.41499996E+02 -0.66717E+03
 0.41549999E+02 -0.84016E+02
 0.41599998E+02  0.20486E+04
 0.41649998E+02  0.26180E+04
 0.41699997E+02  0.24661E+04
 0.41749996E+02  0.33929E+04
 0.41799999E+02  0.28475E+04
 0.41849998E+02  0.13876E+04
 0.41899998E+02  0.19324E+04
 0.41949997E+02  0.47653E+04
 0.41999996E+02  0.67259E+04
 0.42049999E+02  0.46931E+04
 0.42099998E+02  0.55156E+04
 0.42149998E+02  0.77566E+04
 0.42199997E+02  0.54035E+04
 0.42249996E+02  0.41658E+04
 0.42299999E+02  0.35673E+04
 0.42349998E+02  0.33877E+04
 0.42399998E+02  0.60952E+04
 0.42449997E+02  0.70371E+04
 0.42499996E+02  0.39201E+04
 0.42549999E+02  0.28735E+04
 0.42599998E+02  0.61984E+04
 0.42649998E+02  0.61505E+04
 0.42699997E+02  0.85968E+03
 0.42749996E+02 -0.20978E+04
 0.42799995E+02 -0.17066E+04
 0.42849998E+02 -0.16418E+03
 0.42899998E+02  0.26371E+04
 0.42949997E+02  0.35644E+04
 0.42999996E+02  0.34652E+04
 0.43049995E+02  0.51017E+04
 0.43099998E+02  0.54333E+04
 0.43149998E+02  0.14776E+04
 0.43199997E+02 -0.12139E+04
 0.43249996E+02 -0.20172E+04
 0.43299995E+02  0.43694E+02
 0.43349998E+02  0.28919E+04
 0.43399998E+02  0.52450E+04
 0.43449997E+02  0.75355E+04
 0.43499996E+02  0.62296E+04
 0.43549995E+02  0.57498E+04
 0.43599998E+02  0.41101E+04
 0.43649998E+02  0.44462E+04
 0.43699997E+02  0.59710E+04
 0.43749996E+02  0.32316E+04
 0.43799995E+02  0.26533E+04
 0.43849998E+02  0.50665E+04
 0.43899998E+02  0.60828E+04
 0.43949997E+02  0.47531E+04
 0.43999996E+02  0.37629E+04
 0.44049995E+02  0.19091E+04
 0.44099998E+02 -0.43056E+03
 0.44149998E+02 -0.12586E+03
 0.44199997E+02  0.13512E+04
 0.44249996E+02  0.22175E+04
 0.44299995E+02  0.26726E+04
 0.44349998E+02  0.43774E+04
 0.44399998E+02  0.41531E+04
 0.44449997E+02  0.36391E+04
 0.44499996E+02  0.33133E+04
 0.44549995E+02  0.22253E+03
 0.44599998E+02 -0.24286E+04
 0.44649998E+02 -0.32568E+02
 0.44699997E+02  0.43819E+04
 0.44749996E+02  0.48017E+04
 0.44799995E+02  0.53781E+04
 0.44849998E+02  0.75232E+04
 0.44899998E+02  0.77565E+04
 0.44949997E+02  0.62768E+04
 0.44999996E+02  0.34469E+04
 0.45049995E+02  0.16849E+04
 0.45099998E+02  0.19153E+04
 0.45149998E+02  0.28455E+04
 0.45199997E+02  0.55153E+04
 0.45249996E+02  0.70389E+04
 0.45299995E+02  0.61978E+04
 0.45349998E+02  0.57725E+04
 0.45399998E+02  0.65975E+04
 0.45449997E+02  0.58594E+04
 0.45499996E+02  0.36102E+04
 0.45549995E+02  0.15246E+04
 0.45599998E+02 -0.88799E+03
 0.45649998E+02 -0.21299E+04
 0.45699997E+02 -0.34238E+04
 0.45749996E+02 -0.57891E+04
 0.45799995E+02 -0.41446E+04
 0.45849998E+02 -0.45079E+03
 0.45899998E+02  0.24135E+04
 0.45949997E+02  0.68496E+04
 0.45999996E+02  0.99072E+04
 0.46049995E+02  0.82745E+04
 0.46099998E+02  0.31149E+04
 0.46149998E+02 -0.16915E+03
 0.46199997E+02  0.81067E+03
 0.46249996E+02  0.33323E+04
 0.46299995E+02  0.57576E+04
 0.46349998E+02  0.66279E+04
 0.46399998E+02  0.56125E+04
 0.46449997E+02  0.35242E+04
 0.46499996E+02  0.27787E+04
 0.46549995E+02  0.53630E+04
 0.46599998E+02  0.87079E+04
 0.46649998E+02  0.82297E+04
 0.46699997E+02  0.46160E+04
 0.46749996E+02  0.33253E+03
 0.46799995E+02 -0.16469E+04
 0.46849998E+02  0.18636E+03
 0.46899998E+02  0.14976E+04
 0.46949997E+02  0.15528E+04
 0.46999996E+02  0.16651E+04
 0.47049995E+02  0.30191E+04
 0.47099998E+02  0.40812E+04
 0.47149998E+02  0.25283E+04
 0.47199997E+02  0.10020E+04
 0.47249996E+02  0.29344E+04
 0.47299995E+02  0.57437E+04
 0.47349998E+02  0.44769E+04
 0.47399998E+02  0.34014E+04
 0.47449997E+02  0.38152E+04
 0.47499996E+02  0.25703E+04
 0.47549995E+02  0.19642E+04
 0.47599998E+02  0.23823E+04
 0.47649998E+02  0.40572E+04
 0.47699997E+02  0.58424E+04
 0.47749996E+02  0.75855E+04
 0.47799995E+02  0.81554E+04
 0.47849998E+02  0.71273E+04
 0.47899998E+02  0.51159E+04
 0.47949997E+02  0.20707E+04
 0.47999996E+02 -0.53209E+03
 0.48049995E+02 -0.17026E+04
 0.48099998E+02 -0.75659E+03
 0.48149998E+02  0.88894E+03
 0.48199997E+02  0.16073E+04
 0.48249996E+02  0.95705E+03
 0.48299995E+02  0.19575E+04
 0.48349998E+02  0.44686E+04
 0.48399998E+02  0.64673E+04
 0.48449997E+02  0.69483E+04
 0.48499996E+02  0.43413E+04
 0.48549995E+02  0.18652E+04
 0.48599998E+02  0.13674E+04
 0.48649998E+02  0.67527E+03
 0.48699997E+02  0.51023E+03
 0.48749996E+02  0.15962E+04
 0.48799995E+02  0.31850E+04
 0.48849998E+02  0.29570E+04
 0.48899998E+02  0.91153E+03
 0.48949997E+02  0.82436E+03
 0.48999996E+02  0.14755E+04
 0.49049995E+02  0.18674E+04
 0.49099998E+02  0.24261E+04
 0.49149998E+02  0.37800E+04
 0.49199997E+02  0.52703E+04
 0.49249996E+02  0.52696E+04
 0.49299995E+02  0.52888E+04
 0.49349998E+02  0.44272E+04
 0.49399998E+02  0.50593E+04
 0.49449997E+02  0.69455E+04
 0.49499996E+02  0.79209E+04
 0.49549995E+02  0.77265E+04
 0.49599998E+02  0.70356E+04
 0.49649998E+02  0.63483E+04
 0.49699997E+02  0.44197E+04
 0.49749996E+02  0.18655E+04
 0.49799995E+02 -0.15360E+04
 0.49849998E+02 -0.35160E+04
 0.49899998E+02 -0.40002E+04
 0.49949997E+02 -0.18129E+04
 0.49999996E+02  0.20571E+04
 0.50049995E+02  0.42942E+04
 0.50099998E+02  0.42202E+04
 0.50149998E+02  0.27110E+04
 0.50199997E+02  0.11695E+04
 0.50249996E+02  0.47111E+03
 0.50299995E+02  0.20817E+04
 0.50349998E+02  0.49177E+04
 0.50399998E+02  0.66256E+04
 0.50449997E+02  0.63868E+04
 0.50499996E+02  0.63568E+04
 0.50549995E+02  0.73576E+04
 0.50599998E+02  0.76669E+04
 0.50649998E+02  0.64129E+04
 0.50699997E+02  0.53151E+04
 0.50749996E+02  0.47651E+04
 0.50799995E+02  0.42439E+04
 0.50849998E+02  0.40246E+04
 0.50899998E+02  0.40730E+04
 0.50949997E+02  0.40264E+04
 0.50999996E+02  0.42112E+04
 0.51049995E+02  0.40360E+04
 0.51099998E+02  0.25263E+04
 0.51149998E+02  0.10699E+04
 0.51199997E+02  0.79239E+03
 0.51249996E+02  0.72967E+03
 0.51299995E+02  0.89061E+03
 0.51349998E+02  0.13810E+04
 0.51399998E+02  0.19437E+04
 0.51449997E+02  0.33500E+04
 0.51499996E+02  0.47977E+04
 0.51549995E+02  0.52824E+04
 0.51599998E+02  0.44905E+04
 0.51649998E+02  0.44189E+04
 0.51699997E+02  0.45680E+04
 0.51749996E+02  0.43824E+04
 0.51799995E+02  0.42323E+04
 0.51849998E+02  0.39789E+04
 0.51899998E+02  0.38692E+04
 0.51949997E+02  0.39228E+04
 0.51999996E+02  0.47669E+04
 0.52049995E+02  0.52967E+04
 0.52099998E+02  0.50074E+04
 0.52149998E+02  0.40471E+04
 0.52199997E+02  0.30077E+04
 0.52249996E+02  0.23033E+04
 0.52299995E+02  0.22055E+04
 0.52349998E+02  0.31355E+04
 0.52399998E+02  0.43174E+04
 0.52449997E+02  0.47583E+04
 0.52499996E+02  0.35007E+04
 0.52549995E+02  0.15438E+04
 0.52599998E+02  0.12238E+03
 0.52649998E+02 -0.35297E+03
 0.52699997E+02  0.38482E+03
 0.52749996E+02  0.78882E+03
 0.52799995E+02  0.15130E+04
 0.52849998E+02  0.29064E+04
 0.52899998E+02  0.44932E+04
 0.52949997E+02  0.60254E+04
 0.52999996E+02  0.61263E+04
 0.53049995E+02  0.46758E+04
 0.53099998E+02  0.38865E+04
 0.53149998E+02  0.45590E+04
 0.53199997E+02  0.54032E+04
 0.53249996E+02  0.55269E+04
 0.53299995E+02  0.45146E+04
 0.53349998E+02  0.29847E+04
 0.53399998E+02  0.14474E+04
 0.53449997E+02  0.67619E+03
 0.53499996E+02  0.15437E+04
 0.53549995E+02  0.30711E+04
 0.53599998E+02  0.34079E+04
 0.53649998E+02  0.33793E+04
 0.53699997E+02  0.38897E+04
 0.53749996E+02  0.44672E+04
 0.53799995E+02  0.43603E+04
 0.53849998E+02  0.31463E+04
 0.53899998E+02  0.17439E+04
 0.53949997E+02  0.12761E+04
 0.53999996E+02  0.15443E+04
 0.54049995E+02  0.18800E+04
 0.54099998E+02  0.23190E+04
 0.54149998E+02  0.34923E+04
 0.54199997E+02  0.53743E+04
 0.54249996E+02  0.62106E+04
 0.54299995E+02  0.51393E+04
 0.54349998E+02  0.29022E+04
 0.54399998E+02  0.68034E+03
 0.54449997E+02 -0.47113E+03
 0.54499996E+02  0.17583E+03
 0.54549995E+02  0.18301E+04
 0.54599998E+02  0.36566E+04
 0.54649998E+02  0.49210E+04
 0.54699997E+02  0.45095E+04
 0.54749996E+02  0.32064E+04
 0.54799995E+02  0.29256E+04
 0.54849998E+02  0.28855E+04
 0.54899998E+02  0.27393E+04
 0.54949997E+02  0.27448E+04
 0.54999996E+02  0.23937E+04
 0.55049995E+02  0.22318E+04
 0.55099998E+02  0.33078E+04
 0.55149998E+02  0.47418E+04
 0.55199997E+02  0.41245E+04
 0.55249996E+02  0.36063E+04
 0.55299995E+02  0.41873E+04
 0.55349998E+02  0.37632E+04
 0.55399998E+02  0.30680E+04
 0.55449997E+02  0.25728E+04
 0.55499996E+02  0.16276E+04
 0.55549995E+02  0.11911E+04
 0.55599998E+02  0.16121E+04
 0.55649998E+02  0.27513E+04
 0.55699997E+02  0.35619E+04
 0.55749996E+02  0.35997E+04
 0.55799995E+02  0.42147E+04
 0.55849995E+02  0.48876E+04
 0.55899998E+02  0.50608E+04
 0.55949997E+02  0.45965E+04
 0.55999996E+02  0.33111E+04
 0.56049995E+02  0.27958E+04
 0.56099995E+02  0.34358E+04
 0.56149998E+02  0.45871E+04
 0.56199997E+02  0.48848E+04
 0.56249996E+02  0.41865E+04
 0.56299995E+02  0.30394E+04
 0.56349995E+02  0.16051E+04
 0.56399998E+02  0.12745E+04
 0.56449997E+02  0.23347E+04
 0.56499996E+02  0.34476E+04
 0.56549995E+02  0.43590E+04
 0.56599995E+02  0.52747E+04
 0.56649998E+02  0.50587E+04
 0.56699997E+02  0.40989E+04
 0.56749996E+02  0.34516E+04
 0.56799995E+02  0.32496E+04
 0.56849995E+02  0.28261E+04
 0.56899998E+02  0.27787E+04
 0.56949997E+02  0.36658E+04
 0.56999996E+02  0.43190E+04
 0.57049995E+02  0.38720E+04
 0.57099995E+02  0.39757E+04
 0.57149998E+02  0.44885E+04
 0.57199997E+02  0.41134E+04
 0.57249996E+02  0.35802E+04
 0.57299995E+02  0.29167E+04
 0.57349995E+02  0.25574E+04
 0.57399998E+02  0.25396E+04
 0.57449997E+02  0.27283E+04
 0.57499996E+02  0.31136E+04
 0.57549995E+02  0.26206E+04
 0.57599995E+02  0.13260E+04
 0.57649998E+02  0.10391E+04
 0.57699997E+02  0.18942E+04
 0.57749996E+02  0.22483E+04
 0.57799995E+02  0.29070E+04
 0.57849995E+02  0.47542E+04
 0.57899998E+02  0.57249E+04
 0.57949997E+02  0.55981E+04
 0.57999996E+02  0.44501E+04
 0.58049995E+02  0.26142E+04
 0.58099995E+02  0.16299E+04
 0.58149998E+02  0.18541E+04
 0.58199997E+02  0.27260E+04
 0.58249996E+02  0.36984E+04
 0.58299995E+02  0.48903E+04
 0.58349995E+02  0.54723E+04
 0.58399998E+02  0.51789E+04
 0.58449997E+02  0.45522E+04
 0.58499996E+02  0.44127E+04
 0.58549995E+02  0.42133E+04
 0.58599995E+02  0.38426E+04
 0.58649998E+02  0.36302E+04
 0.58699997E+02  0.27288E+04
 0.58749996E+02  0.15395E+04
 0.58799995E+02  0.93404E+03
 0.58849995E+02  0.11626E+04
 0.58899998E+02  0.15016E+04
 0.58949997E+02  0.20252E+04
 0.58999996E+02  0.20601E+04
 0.59049995E+02  0.21955E+04
 0.59099995E+02  0.28578E+04
 0.59149998E+02  0.30765E+04
 0.59199997E+02  0.26059E+04
 0.59249996E+02  0.22243E+04
 0.59299995E+02  0.27843E+04
 0.59349995E+02  0.33840E+04
 0.59399998E+02  0.35163E+04
 0.59449997E+02  0.33960E+04
 0.59499996E+02  0.34544E+04
 0.59549995E+02  0.35179E+04
 0.59599995E+02  0.34339E+04
 0.59649998E+02  0.32159E+04
 0.59699997E+02  0.35157E+04
 0.59749996E+02  0.45226E+04
 0.59799995E+02  0.52049E+04
 0.59849995E+02  0.51473E+04
 0.59899998E+02  0.48762E+04
 0.59949997E+02  0.47292E+04
 0.59999996E+02  0.41664E+04
 0.60049995E+02  0.33683E+04
 0.60099995E+02  0.27623E+04
 0.60149998E+02  0.25574E+04
 0.60199997E+02  0.23677E+04
 0.60249996E+02  0.23609E+04
 0.60299995E+02  0.26850E+04
 0.60349995E+02  0.26508E+04
 0.60399998E+02  0.27951E+04
 0.60449997E+02  0.31957E+04
 0.60499996E+02  0.35900E+04
 0.60549995E+02  0.37679E+04
 0.60599995E+02  0.39381E+04
 0.60649998E+02  0.43057E+04
 0.60699997E+02  0.47264E+04
 0.60749996E+02  0.48738E+04
 0.60799995E+02  0.44541E+04
 0.60849995E+02  0.35128E+04
 0.60899998E+02  0.26268E+04
 0.60949997E+02  0.27779E+04
 0.60999996E+02  0.32610E+04
 0.61049995E+02  0.36680E+04
 0.61099995E+02  0.37117E+04
 0.61149998E+02  0.33957E+04
 0.61199997E+02  0.31917E+04
 0.61249996E+02  0.28143E+04
 0.61299995E+02  0.24846E+04
 0.61349995E+02  0.19505E+04
 0.61399998E+02  0.12610E+04
 0.61449997E+02  0.96968E+03
 0.61499996E+02  0.10690E+04
 0.61549995E+02  0.13918E+04
 0.61599995E+02  0.18179E+04
 0.61649998E+02  0.20606E+04
 0.61699997E+02  0.26061E+04
 0.61749996E+02  0.36253E+04
 0.61799995E+02  0.44798E+04
 0.61849995E+02  0.50750E+04
 0.61899998E+02  0.53392E+04
 0.61949997E+02  0.51025E+04
 0.61999996E+02  0.48234E+04
 0.62049995E+02  0.44587E+04
 0.62099998E+02  0.42383E+04
 0.62149994E+02  0.47436E+04
 0.62199997E+02  0.51837E+04
 0.62249992E+02  0.51605E+04
 0.62299995E+02  0.41250E+04
 0.62349998E+02  0.26222E+04
 0.62399994E+02  0.19138E+04
 0.62449997E+02  0.16101E+04
 0.62499992E+02  0.13984E+04
 0.62549995E+02  0.14423E+04
 0.62599998E+02  0.19987E+04
 0.62649994E+02  0.27164E+04
 0.62699997E+02  0.30955E+04
 0.62749992E+02  0.30784E+04
 0.62799995E+02  0.30437E+04
 0.62849998E+02  0.28774E+04
 0.62899994E+02  0.23589E+04
 0.62949997E+02  0.18984E+04
 0.62999992E+02  0.17336E+04
 0.63049995E+02  0.21241E+04
 0.63099998E+02  0.29611E+04
 0.63149994E+02  0.39264E+04
 0.63199997E+02  0.45366E+04
 0.63249992E+02  0.47112E+04
 0.63299995E+02  0.48191E+04
 0.63349998E+02  0.45705E+04
 0.63399994E+02  0.43017E+04
 0.63449997E+02  0.42018E+04
 0.63499992E+02  0.38564E+04
 0.63549995E+02  0.37116E+04
 0.63599998E+02  0.36857E+04
 0.63649994E+02  0.33493E+04
 0.63699997E+02  0.31210E+04
 0.63749992E+02  0.32192E+04
 0.63799995E+02  0.30806E+04
 0.63849998E+02  0.27253E+04
 0.63899994E+02  0.23424E+04
 0.63949997E+02  0.20943E+04
 0.63999992E+02  0.18448E+04
 0.64049995E+02  0.18766E+04
 0.64099998E+02  0.29039E+04
 0.64149994E+02  0.39889E+04
 0.64199997E+02  0.42224E+04
 0.64249992E+02  0.39089E+04
 0.64299995E+02  0.36059E+04
 0.64349998E+02  0.33861E+04
 0.64399994E+02  0.31621E+04
 0.64449997E+02  0.31685E+04
 0.64499992E+02  0.33055E+04
 0.64549995E+02  0.33610E+04
 0.64599998E+02  0.36885E+04
 0.64649994E+02  0.41798E+04
 0.64699997E+02  0.45737E+04
 0.64749992E+02  0.49520E+04
 0.64799995E+02  0.45778E+04
 0.64849998E+02  0.39295E+04
 0.64899994E+02  0.37248E+04
 0.64949997E+02  0.37718E+04
 0.64999992E+02  0.44557E+04
 0.65049995E+02  0.55379E+04
 0.65099998E+02  0.58738E+04
 0.65149994E+02  0.53408E+04
 0.65199997E+02  0.42738E+04
 0.65249992E+02  0.30851E+04
 0.65299995E+02  0.21261E+04
 0.65349998E+02  0.12803E+04
 0.65399994E+02  0.12618E+04
 0.65449997E+02  0.16972E+04
 0.65499992E+02  0.20163E+04
 0.65549995E+02  0.19304E+04
 0.65599998E+02  0.16423E+04
 0.65649994E+02  0.18468E+04
 0.65699997E+02  0.23312E+04
 0.65749992E+02  0.26312E+04
 0.65799995E+02  0.26262E+04
 0.65849998E+02  0.26568E+04
 0.65899994E+02  0.27659E+04
 0.65949997E+02  0.31177E+04
 0.65999992E+02  0.36115E+04
 0.66049995E+02  0.35834E+04
 0.66099998E+02  0.32311E+04
 0.66149994E+02  0.34627E+04
 0.66199997E+02  0.42503E+04
 0.66249992E+02  0.51526E+04
 0.66299995E+02  0.53749E+04
 0.66349998E+02  0.45806E+04
 0.66399994E+02  0.35374E+04
 0.66449997E+02  0.29369E+04
 0.66499992E+02  0.25593E+04
 0.66549995E+02  0.19742E+04
 0.66599998E+02  0.16476E+04
 0.66649994E+02  0.17529E+04
 0.66699997E+02  0.19473E+04
 0.66749992E+02  0.24665E+04
 0.66799995E+02  0.32420E+04
 0.66849998E+02  0.37910E+04
 0.66899994E+02  0.37973E+04
 0.66949997E+02  0.32012E+04
 0.66999992E+02  0.27712E+04
 0.67049995E+02  0.30362E+04
 0.67099998E+02  0.34413E+04
 0.67149994E+02  0.37726E+04
 0.67199997E+02  0.43346E+04
 0.67249992E+02  0.47814E+04
 0.67299995E+02  0.47777E+04
 0.67349998E+02  0.42611E+04
 0.67399994E+02  0.39378E+04
 0.67449997E+02  0.40442E+04
 0.67499992E+02  0.42299E+04
 0.67549995E+02  0.39224E+04
 0.67599998E+02  0.34703E+04
 0.67649994E+02  0.33113E+04
 0.67699997E+02  0.31989E+04
 0.67749992E+02  0.32467E+04
 0.67799995E+02  0.29880E+04
 0.67849998E+02  0.28014E+04
 0.67899994E+02  0.26191E+04
 0.67949997E+02  0.23850E+04
 0.67999992E+02  0.23627E+04
 0.68049995E+02  0.28321E+04
 0.68099998E+02  0.35422E+04
 0.68149994E+02  0.36372E+04
 0.68199997E+02  0.32827E+04
 0.68249992E+02  0.26854E+04
 0.68299995E+02  0.22157E+04
 0.68349998E+02  0.21470E+04
 0.68399994E+02  0.24243E+04
 0.68449997E+02  0.26673E+04
 0.68499992E+02  0.26305E+04
 0.68549995E+02  0.27557E+04
 0.68599998E+02  0.32677E+04
 0.68649994E+02  0.38830E+04
 0.68699997E+02  0.42307E+04
 0.68749992E+02  0.42413E+04
 0.68799995E+02  0.41046E+04
 0.68849998E+02  0.36486E+04
 0.68899994E+02  0.29612E+04
 0.68949997E+02  0.23815E+04
 0.68999992E+02  0.22393E+04
 0.69049995E+02  0.25776E+04
 0.69099998E+02  0.31520E+04
 0.69149994E+02  0.36680E+04
 0.69199997E+02  0.39587E+04
 0.69249992E+02  0.41906E+04
 0.69299995E+02  0.42112E+04
 0.69349998E+02  0.39030E+04
 0.69399994E+02  0.37839E+04
 0.69449997E+02  0.39434E+04
 0.69499992E+02  0.41282E+04
 0.69549995E+02  0.39533E+04
 0.69599998E+02  0.34165E+04
 0.69649994E+02  0.31012E+04
 0.69699997E+02  0.29582E+04
 0.69749992E+02  0.30108E+04
 0.69799995E+02  0.28815E+04
 0.69849998E+02  0.27104E+04
 0.69899994E+02  0.27377E+04
 0.69949997E+02  0.29881E+04
 0.69999992E+02  0.31210E+04
 0.70049995E+02  0.26330E+04
 0.70099998E+02  0.24196E+04
 0.70149994E+02  0.27012E+04
 0.70199997E+02  0.29860E+04
 0.70249992E+02  0.34043E+04
 0.70299995E+02  0.39766E+04
 0.70349998E+02  0.41500E+04
 0.70399994E+02  0.40007E+04
 0.70449997E+02  0.37918E+04
 0.70499992E+02  0.37603E+04
 0.70549995E+02  0.36631E+04
 0.70599998E+02  0.34555E+04
 0.70649994E+02  0.35977E+04
 0.70699997E+02  0.37059E+04
 0.70749992E+02  0.37292E+04
 0.70799995E+02  0.37657E+04
 0.70849998E+02  0.37913E+04
 0.70899994E+02  0.34764E+04
 0.70949997E+02  0.26936E+04
 0.70999992E+02  0.19943E+04
 0.71049995E+02  0.16064E+04
 0.71099998E+02  0.15122E+04
 0.71149994E+02  0.17367E+04
 0.71199997E+02  0.21521E+04
 0.71249992E+02  0.28315E+04
 0.71299995E+02  0.35757E+04
 0.71349998E+02  0.41373E+04
 0.71399994E+02  0.46257E+04
 0.71449997E+02  0.47826E+04
 0.71499992E+02  0.44931E+04
 0.71549995E+02  0.40279E+04
 0.71599998E+02  0.35247E+04
 0.71649994E+02  0.30392E+04
 0.71699997E+02  0.26974E+04
 0.71749992E+02  0.25981E+04
 0.71799995E+02  0.27786E+04
 0.71849998E+02  0.29992E+04
 0.71899994E+02  0.31921E+04
 0.71949997E+02  0.31864E+04
 0.71999992E+02  0.29120E+04
 0.72049995E+02  0.27354E+04
 0.72099998E+02  0.26614E+04
 0.72149994E+02  0.27227E+04
 0.72199997E+02  0.31457E+04
 0.72249992E+02  0.38211E+04
 0.72299995E+02  0.42209E+04
 0.72349998E+02  0.40916E+04
 0.72399994E+02  0.38063E+04
 0.72449997E+02  0.37003E+04
 0.72499992E+02  0.37910E+04
 0.72549995E+02  0.40056E+04
 0.72599998E+02  0.40582E+04
 0.72649994E+02  0.39422E+04
 0.72699997E+02  0.38029E+04
 0.72749992E+02  0.34444E+04
 0.72799995E+02  0.31655E+04
 0.72849998E+02  0.29695E+04
 0.72899994E+02  0.25488E+04
 0.72949997E+02  0.23043E+04
 0.72999992E+02  0.23870E+04
 0.73049995E+02  0.28086E+04
 0.73099998E+02  0.34357E+04
 0.73149994E+02  0.40038E+04
 0.73199997E+02  0.43549E+04
 0.73249992E+02  0.46134E+04
 0.73299995E+02  0.47111E+04
 0.73349998E+02  0.41125E+04
 0.73399994E+02  0.35071E+04
 0.73449997E+02  0.29860E+04
 0.73499992E+02  0.25072E+04
 0.73549995E+02  0.24912E+04
 0.73599998E+02  0.22069E+04
 0.73649994E+02  0.17101E+04
 0.73699997E+02  0.16639E+04
 0.73749992E+02  0.22554E+04
 0.73799995E+02  0.31836E+04
 0.73849998E+02  0.38672E+04
 0.73899994E+02  0.40502E+04
 0.73949997E+02  0.38471E+04
 0.73999992E+02  0.36031E+04
 0.74049995E+02  0.35695E+04
 0.74099998E+02  0.37054E+04
 0.74149994E+02  0.38815E+04
 0.74199997E+02  0.38755E+04
 0.74249992E+02  0.38228E+04
 0.74299995E+02  0.39272E+04
 0.74349998E+02  0.38962E+04
 0.74399994E+02  0.36034E+04
 0.74449997E+02  0.32383E+04
 0.74499992E+02  0.27849E+04
 0.74549995E+02  0.24212E+04
 0.74599998E+02  0.24184E+04
 0.74649994E+02  0.26427E+04
 0.74699997E+02  0.28219E+04
 0.74749992E+02  0.28828E+04
 0.74799995E+02  0.29180E+04
 0.74849998E+02  0.29409E+04
 0.74899994E+02  0.31157E+04
 0.74949997E+02  0.33683E+04
 0.74999992E+02  0.34560E+04
 0.75049995E+02  0.34954E+04
 0.75099998E+02  0.36961E+04
 0.75149994E+02  0.39707E+04
 0.75199997E+02  0.41623E+04
 0.75249992E+02  0.41694E+04
 0.75299995E+02  0.39828E+04
 0.75349998E+02  0.35593E+04
 0.75399994E+02  0.30947E+04
 0.75449997E+02  0.30586E+04
 0.75499992E+02  0.34717E+04
 0.75549995E+02  0.38493E+04
 0.75599998E+02  0.37851E+04
 0.75649994E+02  0.33314E+04
 0.75699997E+02  0.28335E+04
 0.75749992E+02  0.25178E+04
 0.75799995E+02  0.24437E+04
 0.75849998E+02  0.25744E+04
 0.75899994E+02  0.27239E+04
 0.75949997E+02  0.29410E+04
 0.75999992E+02  0.32685E+04
 0.76049995E+02  0.35404E+04
 0.76099998E+02  0.36756E+04
 0.76149994E+02  0.36108E+04
 0.76199997E+02  0.32862E+04
 0.76249992E+02  0.30465E+04
 0.76299995E+02  0.31128E+04
 0.76349998E+02  0.32584E+04
 0.76399994E+02  0.34279E+04
 0.76449997E+02  0.36255E+04
 0.76499992E+02  0.36118E+04
 0.76549995E+02  0.34373E+04
 0.76599998E+02  0.33248E+04
 0.76649994E+02  0.31227E+04
 0.76699997E+02  0.29572E+04
 0.76749992E+02  0.30082E+04
 0.76799995E+02  0.32178E+04
 0.76849998E+02  0.35079E+04
 0.76899994E+02  0.35846E+04
 0.76949997E+02  0.34371E+04
 0.76999992E+02  0.33541E+04
 0.77049995E+02  0.33280E+04
 0.77099998E+02  0.32570E+04
 0.77149994E+02  0.31447E+04
 0.77199997E+02  0.30416E+04
 0.77249992E+02  0.29776E+04
 0.77299995E+02  0.29639E+04
 0.77349998E+02  0.28184E+04
 0.77399994E+02  0.27612E+04
 0.77449997E+02  0.28971E+04
 0.77499992E+02  0.29551E+04
 0.77549995E+02  0.30670E+04
 0.77599998E+02  0.31221E+04
 0.77649994E+02  0.32221E+04
 0.77699997E+02  0.33805E+04
 0.77749992E+02  0.35373E+04
 0.77799995E+02  0.36010E+04
 0.77849998E+02  0.34372E+04
 0.77899994E+02  0.33205E+04
 0.77949997E+02  0.33134E+04
 0.77999992E+02  0.34285E+04
 0.78049995E+02  0.35663E+04
 0.78099998E+02  0.34481E+04
 0.78149994E+02  0.30408E+04
 0.78199997E+02  0.25993E+04
 0.78249992E+02  0.24493E+04
 0.78299995E+02  0.25564E+04
 0.78349998E+02  0.26317E+04
 0.78399994E+02  0.28683E+04
 0.78449997E+02  0.33489E+04
 0.78499992E+02  0.38929E+04
 0.78549995E+02  0.41741E+04
 0.78599998E+02  0.41413E+04
 0.78649994E+02  0.41181E+04
 0.78699997E+02  0.41722E+04
 0.78749992E+02  0.41042E+04
 0.78799995E+02  0.37259E+04
 0.78849998E+02  0.34256E+04
 0.78899994E+02  0.34429E+04
 0.78949997E+02  0.36648E+04
 0.78999992E+02  0.37164E+04
 0.79049995E+02  0.34391E+04
 0.79099998E+02  0.30532E+04
 0.79149994E+02  0.28397E+04
 0.79199997E+02  0.28428E+04
 0.79249992E+02  0.27673E+04
 0.79299995E+02  0.25759E+04
 0.79349998E+02  0.25346E+04
 0.79399994E+02  0.26740E+04
 0.79449997E+02  0.29375E+04
 0.79499992E+02  0.33862E+04
 0.79549995E+02  0.36743E+04
 0.79599998E+02  0.36331E+04
 0.79649994E+02  0.35557E+04
 0.79699997E+02  0.36014E+04
 0.79749992E+02  0.37427E+04
 0.79799995E+02  0.39399E+04
 0.79849998E+02  0.41258E+04
 0.79899994E+02  0.40480E+04
 0.79949997E+02  0.36901E+04
 0.79999992E+02  0.33168E+04
 0.80049995E+02  0.30823E+04
 0.80099998E+02  0.30439E+04
 0.80149994E+02  0.31746E+04
 0.80199997E+02  0.33894E+04
 0.80249992E+02  0.34801E+04
 0.80299995E+02  0.35252E+04
 0.80349998E+02  0.36028E+04
 0.80399994E+02  0.36048E+04
 0.80449997E+02  0.35053E+04
 0.80499992E+02  0.33532E+04
 0.80549995E+02  0.32409E+04
 0.80599998E+02  0.31652E+04
 0.80649994E+02  0.29466E+04
 0.80699997E+02  0.27410E+04
 0.80749992E+02  0.27174E+04
 0.80799995E+02  0.28099E+04
 0.80849998E+02  0.29730E+04
 0.80899994E+02  0.31007E+04
 0.80949997E+02  0.32727E+04
 0.80999992E+02  0.32193E+04
 0.81049995E+02  0.29765E+04
 0.81099998E+02  0.27460E+04
 0.81149994E+02  0.26954E+04
 0.81199997E+02  0.27802E+04
 0.81249992E+02  0.29579E+04
 0.81299995E+02  0.31797E+04
 0.81349998E+02  0.31708E+04
 0.81399994E+02  0.32990E+04
 0.81449997E+02  0.35592E+04
 0.81499992E+02  0.35610E+04
 0.81549995E+02  0.34710E+04
 0.81599998E+02  0.35362E+04
 0.81649994E+02  0.36247E+04
 0.81699997E+02  0.36189E+04
 0.81749992E+02  0.34271E+04
 0.81799995E+02  0.31532E+04
 0.81849998E+02  0.28971E+04
 0.81899994E+02  0.27545E+04
 0.81949997E+02  0.27797E+04
 0.81999992E+02  0.29483E+04
 0.82049995E+02  0.31678E+04
 0.82099998E+02  0.32791E+04
 0.82149994E+02  0.34488E+04
 0.82199997E+02  0.34765E+04
 0.82249992E+02  0.33245E+04
 0.82299995E+02  0.31906E+04
 0.82349998E+02  0.30439E+04
 0.82399994E+02  0.32185E+04
 0.82449997E+02  0.37282E+04
 0.82499992E+02  0.41349E+04
 0.82549995E+02  0.41425E+04
 0.82599998E+02  0.37127E+04
 0.82649994E+02  0.32434E+04
 0.82699997E+02  0.30483E+04
 0.82749992E+02  0.30122E+04
 0.82799995E+02  0.29843E+04
 0.82849998E+02  0.30548E+04
 0.82899994E+02  0.32824E+04
 0.82949997E+02  0.34672E+04
 0.82999992E+02  0.34371E+04
 0.83049995E+02  0.33281E+04
 0.83099998E+02  0.34039E+04
 0.83149994E+02  0.35125E+04
 0.83199997E+02  0.35087E+04
 0.83249992E+02  0.35534E+04
 0.83299995E+02  0.37278E+04
 0.83349998E+02  0.40153E+04
 0.83399994E+02  0.42338E+04
 0.83449997E+02  0.42285E+04
 0.83499992E+02  0.40710E+04
 0.83549995E+02  0.38032E+04
 0.83599998E+02  0.35021E+04
 0.83649994E+02  0.33363E+04
 0.83699997E+02  0.33058E+04
 0.83749992E+02  0.33671E+04
 0.83799995E+02  0.33645E+04
 0.83849998E+02  0.31754E+04
 0.83899994E+02  0.29615E+04
 0.83949997E+02  0.27649E+04
 0.83999992E+02  0.25594E+04
 0.84049995E+02  0.23281E+04
 0.84099998E+02  0.22256E+04
 0.84149994E+02  0.24074E+04
 0.84199997E+02  0.27727E+04
 0.84249992E+02  0.32292E+04
 0.84299995E+02  0.36092E+04
 0.84349998E+02  0.36756E+04
 0.84399994E+02  0.34409E+04
 0.84449997E+02  0.32348E+04
 0.84499992E+02  0.32432E+04
 0.84549995E+02  0.32893E+04
 0.84599998E+02  0.30694E+04
 0.84649994E+02  0.27343E+04
 0.84699997E+02  0.27291E+04
 0.84749992E+02  0.30173E+04
 0.84799995E+02  0.33327E+04
 0.84849998E+02  0.35794E+04
 0.84899994E+02  0.37354E+04
 0.84949997E+02  0.37794E+04
 0.84999992E+02  0.36616E+04
 0.85049995E+02  0.34671E+04
 0.85099998E+02  0.32993E+04
 0.85149994E+02  0.30698E+04
 0.85199997E+02  0.28546E+04
 0.85249992E+02  0.27896E+04
 0.85299995E+02  0.28947E+04
 0.85349998E+02  0.30784E+04
 0.85399994E+02  0.32030E+04
 0.85449997E+02  0.33566E+04
 0.85499992E+02  0.35950E+04
 0.85549995E+02  0.38050E+04
 0.85599998E+02  0.39412E+04
 0.85649994E+02  0.39071E+04
 0.85699997E+02  0.37345E+04
 0.85749992E+02  0.35633E+04
 0.85799995E+02  0.33518E+04
 0.85849998E+02  0.32082E+04
 0.85899994E+02  0.31609E+04
 0.85949997E+02  0.29866E+04
 0.85999992E+02  0.26315E+04
 0.86049995E+02  0.24724E+04
 0.86099998E+02  0.26845E+04
 0.86149994E+02  0.29029E+04
 0.86199997E+02  0.29540E+04
 0.86249992E+02  0.29782E+04
 0.86299995E+02  0.30933E+04
 0.86349998E+02  0.33463E+04
 0.86399994E+02  0.36126E+04
 0.86449997E+02  0.38421E+04
 0.86499992E+02  0.41669E+04
 0.86549995E+02  0.43875E+04
 0.86599998E+02  0.43837E+04
 0.86649994E+02  0.42685E+04
 0.86699997E+02  0.40189E+04
 0.86749992E+02  0.36262E+04
 0.86799995E+02  0.32041E+04
 0.86849998E+02  0.29448E+04
 0.86899994E+02  0.27568E+04
 0.86949997E+02  0.26831E+04
 0.86999992E+02  0.27473E+04
 0.87049995E+02  0.27950E+04
 0.87099998E+02  0.28946E+04
 0.87149994E+02  0.30840E+04
 0.87199997E+02  0.32698E+04
 0.87249992E+02  0.33296E+04
 0.87299995E+02  0.33601E+04
 0.87349998E+02  0.34077E+04
 0.87399994E+02  0.33689E+04
 0.87449997E+02  0.32479E+04
 0.87499992E+02  0.31904E+04
 0.87549995E+02  0.32137E+04
 0.87599991E+02  0.32658E+04
 0.87649994E+02  0.32698E+04
 0.87699997E+02  0.31439E+04
 0.87749992E+02  0.29766E+04
 0.87799995E+02  0.29069E+04
 0.87849991E+02  0.30114E+04
 0.87899994E+02  0.31978E+04
 0.87949997E+02  0.32720E+04
 0.87999992E+02  0.32434E+04
 0.88049995E+02  0.32522E+04
 0.88099991E+02  0.32812E+04
 0.88149994E+02  0.32220E+04
 0.88199997E+02  0.30966E+04
 0.88249992E+02  0.30963E+04
 0.88299995E+02  0.32212E+04
 0.88349991E+02  0.33479E+04
 0.88399994E+02  0.34249E+04
 0.88449997E+02  0.34046E+04
 0.88499992E+02  0.32813E+04
 0.88549995E+02  0.31556E+04
 0.88599991E+02  0.31267E+04
 0.88649994E+02  0.31070E+04
 0.88699997E+02  0.31633E+04
 0.88749992E+02  0.33464E+04
 0.88799995E+02  0.35296E+04
 0.88849991E+02  0.36719E+04
 0.88899994E+02  0.37568E+04
 0.88949997E+02  0.37926E+04
 0.88999992E+02  0.37505E+04
 0.89049995E+02  0.36864E+04
 0.89099991E+02  0.35617E+04
 0.89149994E+02  0.33574E+04
 0.89199997E+02  0.30935E+04
 0.89249992E+02  0.28773E+04
 0.89299995E+02  0.29121E+04
 0.89349991E+02  0.30519E+04
 0.89399994E+02  0.30464E+04
 0.89449997E+02  0.29699E+04
 0.89499992E+02  0.30070E+04
 0.89549995E+02  0.32045E+04
 0.89599991E+02  0.34413E+04
 0.89649994E+02  0.36483E+04
 0.89699997E+02  0.38901E+04
 0.89749992E+02  0.39650E+04
 0.89799995E+02  0.37910E+04
 0.89849991E+02  0.35246E+04
 0.89899994E+02  0.33030E+04
 0.89949997E+02  0.31214E+04
 0.89999992E+02  0.30334E+04
 0.90049995E+02  0.31271E+04
 0.90099991E+02  0.31708E+04
 0.90149994E+02  0.29929E+04
 0.90199997E+02  0.27003E+04
 0.90249992E+02  0.26113E+04
 0.90299995E+02  0.29224E+04
 0.90349991E+02  0.34301E+04
 0.90399994E+02  0.38950E+04
 0.90449997E+02  0.42160E+04
 0.90499992E+02  0.43550E+04
 0.90549995E+02  0.42945E+04
 0.90599991E+02  0.40235E+04
 0.90649994E+02  0.37132E+04
 0.90699997E+02  0.34035E+04
 0.90749992E+02  0.30801E+04
 0.90799995E+02  0.28980E+04
 0.90849991E+02  0.27795E+04
 0.90899994E+02  0.25703E+04
 0.90949997E+02  0.23447E+04
 0.90999992E+02  0.22298E+04
 0.91049995E+02  0.22700E+04
 0.91099991E+02  0.24025E+04
 0.91149994E+02  0.25226E+04
 0.91199997E+02  0.26428E+04
 0.91249992E+02  0.27615E+04
 0.91299995E+02  0.28493E+04
 0.91349991E+02  0.29113E+04
 0.91399994E+02  0.31121E+04
 0.91449997E+02  0.34672E+04
 0.91499992E+02  0.37541E+04
 0.91549995E+02  0.39139E+04
 0.91599991E+02  0.39419E+04
 0.91649994E+02  0.38657E+04
 0.91699997E+02  0.37922E+04
 0.91749992E+02  0.37820E+04
 0.91799995E+02  0.38299E+04
 0.91849991E+02  0.39071E+04
 0.91899994E+02  0.39072E+04
 0.91949997E+02  0.38411E+04
 0.91999992E+02  0.37616E+04
 0.92049995E+02  0.36441E+04
 0.92099991E+02  0.33760E+04
 0.92149994E+02  0.29924E+04
 0.92199997E+02  0.28087E+04
 0.92249992E+02  0.29818E+04
 0.92299995E+02  0.33766E+04
 0.92349991E+02  0.36782E+04
 0.92399994E+02  0.37397E+04
 0.92449997E+02  0.36430E+04
 0.92499992E+02  0.34638E+04
 0.92549995E+02  0.32683E+04
 0.92599991E+02  0.30850E+04
 0.92649994E+02  0.28952E+04
 0.92699997E+02  0.27818E+04
 0.92749992E+02  0.28487E+04
 0.92799995E+02  0.30741E+04
 0.92849991E+02  0.33624E+04
 0.92899994E+02  0.35911E+04
 0.92949997E+02  0.38005E+04
 0.92999992E+02  0.39471E+04
 0.93049995E+02  0.39337E+04
 0.93099991E+02  0.38493E+04
 0.93149994E+02  0.37345E+04
 0.93199997E+02  0.35445E+04
 0.93249992E+02  0.32771E+04
 0.93299995E+02  0.30366E+04
 0.93349991E+02  0.29520E+04
 0.93399994E+02  0.30536E+04
 0.93449997E+02  0.31258E+04
 0.93499992E+02  0.30380E+04
 0.93549995E+02  0.28553E+04
 0.93599991E+02  0.27155E+04
 0.93649994E+02  0.27168E+04
 0.93699997E+02  0.27800E+04
 0.93749992E+02  0.29036E+04
 0.93799995E+02  0.30296E+04
 0.93849991E+02  0.31200E+04
 0.93899994E+02  0.32665E+04
 0.93949997E+02  0.34302E+04
 0.93999992E+02  0.35635E+04
 0.94049995E+02  0.36419E+04
 0.94099991E+02  0.36874E+04
 0.94149994E+02  0.36756E+04
 0.94199997E+02  0.35599E+04
 0.94249992E+02  0.34006E+04
 0.94299995E+02  0.32694E+04
 0.94349991E+02  0.32054E+04
 0.94399994E+02  0.32667E+04
 0.94449997E+02  0.34075E+04
 0.94499992E+02  0.34692E+04
 0.94549995E+02  0.34459E+04
 0.94599991E+02  0.34175E+04
 0.94649994E+02  0.34194E+04
 0.94699997E+02  0.33305E+04
 0.94749992E+02  0.31804E+04
 0.94799995E+02  0.31699E+04
 0.94849991E+02  0.32432E+04
 0.94899994E+02  0.32760E+04
 0.94949997E+02  0.33099E+04
 0.94999992E+02  0.34447E+04
 0.95049995E+02  0.35827E+04
 0.95099991E+02  0.35806E+04
 0.95149994E+02  0.34407E+04
 0.95199997E+02  0.31668E+04
 0.95249992E+02  0.29057E+04
 0.95299995E+02  0.27605E+04
 0.95349991E+02  0.27253E+04
 0.95399994E+02  0.28328E+04
 0.95449997E+02  0.30813E+04
 0.95499992E+02  0.33991E+04
 0.95549995E+02  0.36739E+04
 0.95599991E+02  0.38611E+04
 0.95649994E+02  0.39440E+04
 0.95699997E+02  0.38306E+04
 0.95749992E+02  0.36077E+04
 0.95799995E+02  0.34571E+04
 0.95849991E+02  0.34204E+04
 0.95899994E+02  0.35367E+04
 0.95949997E+02  0.36380E+04
 0.95999992E+02  0.35023E+04
 0.96049995E+02  0.31452E+04
 0.96099991E+02  0.27493E+04
 0.96149994E+02  0.24331E+04
 0.96199997E+02  0.22796E+04
 0.96249992E+02  0.23075E+04
 0.96299995E+02  0.24793E+04
 0.96349991E+02  0.26751E+04
 0.96399994E+02  0.27346E+04
 0.96449997E+02  0.27636E+04
 0.96499992E+02  0.29103E+04
 0.96549995E+02  0.31515E+04
 0.96599991E+02  0.33407E+04
 0.96649994E+02  0.34560E+04
 0.96699997E+02  0.35402E+04
 0.96749992E+02  0.36086E+04
 0.96799995E+02  0.36787E+04
 0.96849991E+02  0.37462E+04
 0.96899994E+02  0.38043E+04
 0.96949997E+02  0.37441E+04
 0.96999992E+02  0.35859E+04
 0.97049995E+02  0.34265E+04
 0.97099991E+02  0.33271E+04
 0.97149994E+02  0.33010E+04
 0.97199997E+02  0.32133E+04
 0.97249992E+02  0.31048E+04
 0.97299995E+02  0.30252E+04
 0.97349991E+02  0.30021E+04
 0.97399994E+02  0.30833E+04
 0.97449997E+02  0.31832E+04
 0.97499992E+02  0.32591E+04
 0.97549995E+02  0.32683E+04
 0.97599991E+02  0.32551E+04
 0.97649994E+02  0.32494E+04
 0.97699997E+02  0.32003E+04
 0.97749992E+02  0.31852E+04
 0.97799995E+02  0.32883E+04
 0.97849991E+02  0.34320E+04
 0.97899994E+02  0.35689E+04
 0.97949997E+02  0.36830E+04
 0.97999992E+02  0.37777E+04
