-0.19969940E+01 -0.43428E+04
-0.19469941E+01 -0.43191E+04
-0.18969940E+01 -0.43370E+04
-0.18469940E+01 -0.43363E+04
-0.17969940E+01 -0.43352E+04
-0.17469940E+01 -0.43309E+04
-0.16969941E+01 -0.43332E+04
-0.16469941E+01 -0.43348E+04
-0.15969940E+01 -0.43355E+04
-0.15469940E+01 -0.43375E+04
-0.14969940E+01 -0.43356E+04
-0.14469941E+01 -0.43308E+04
-0.13969941E+01 -0.43260E+04
-0.13469940E+01 -0.43239E+04
-0.12969941E+01 -0.43241E+04
-0.12469940E+01 -0.43234E+04
-0.11969941E+01 -0.43253E+04
-0.11469941E+01 -0.43249E+04
-0.10969940E+01 -0.43245E+04
-0.10469941E+01 -0.43263E+04
-0.99699408E+00 -0.43262E+04
-0.94699407E+00 -0.43267E+04
-0.89699411E+00 -0.43213E+04
-0.84699404E+00 -0.43225E+04
-0.79699409E+00 -0.43202E+04
-0.74699414E+00 -0.43205E+04
-0.69699407E+00 -0.43220E+04
-0.64699411E+00 -0.43172E+04
-0.59699416E+00 -0.43144E+04
-0.54699409E+00 -0.43117E+04
-0.49699414E+00 -0.43097E+04
-0.44699407E+00 -0.43085E+04
-0.39699411E+00 -0.43072E+04
-0.34699416E+00 -0.43084E+04
-0.29699409E+00 -0.43101E+04
-0.24699414E+00 -0.43093E+04
-0.19699407E+00 -0.43104E+04
-0.14699411E+00 -0.43092E+04
-0.96994162E-01 -0.43072E+04
-0.46994090E-01 -0.43070E+04
 0.30058622E-02 -0.43056E+04
 0.53005934E-01 -0.43038E+04
 0.10300589E+00 -0.43047E+04
 0.15300584E+00 -0.43043E+04
 0.20300579E+00 -0.43070E+04
 0.25300574E+00 -0.43125E+04
 0.30300593E+00 -0.43147E+04
 0.35300589E+00 -0.43132E+04
 0.40300584E+00 -0.43149E+04
 0.45300579E+00 -0.43181E+04
 0.50300574E+00 -0.43208E+04
 0.55300593E+00 -0.43222E+04
 0.60300589E+00 -0.43247E+04
 0.65300584E+00 -0.43239E+04
 0.70300579E+00 -0.43238E+04
 0.75300574E+00 -0.43250E+04
 0.80300570E+00 -0.43249E+04
 0.85300589E+00 -0.43218E+04
 0.90300584E+00 -0.43186E+04
 0.95300579E+00 -0.43254E+04
 0.10030057E+01 -0.43244E+04
 0.10530057E+01 -0.43300E+04
 0.11030059E+01 -0.43332E+04
 0.11530058E+01 -0.43364E+04
 0.12030058E+01 -0.43405E+04
 0.12530057E+01 -0.43413E+04
 0.13030057E+01 -0.43430E+04
 0.13530059E+01 -0.43409E+04
 0.14030058E+01 -0.43440E+04
 0.14530058E+01 -0.43438E+04
 0.15030057E+01 -0.43433E+04
 0.15530057E+01 -0.43403E+04
 0.16030059E+01 -0.43430E+04
 0.16530058E+01 -0.43409E+04
 0.17030058E+01 -0.43357E+04
 0.17530057E+01 -0.43363E+04
 0.18030057E+01 -0.43339E+04
 0.18530056E+01 -0.43320E+04
 0.19030058E+01 -0.43291E+04
 0.19530058E+01 -0.43301E+04
 0.20030057E+01 -0.43264E+04
 0.20530057E+01 -0.43231E+04
 0.21030059E+01 -0.43203E+04
 0.21530056E+01 -0.43213E+04
 0.22030058E+01 -0.43222E+04
 0.22530055E+01 -0.43198E+04
 0.23030057E+01 -0.43220E+04
 0.23530059E+01 -0.43167E+04
 0.24030056E+01 -0.43155E+04
 0.24530058E+01 -0.43163E+04
 0.25030055E+01 -0.43159E+04
 0.25530057E+01 -0.43195E+04
 0.26030059E+01 -0.43204E+04
 0.26530056E+01 -0.43181E+04
 0.27030058E+01 -0.43169E+04
 0.27530055E+01 -0.43200E+04
 0.28030057E+01 -0.43240E+04
 0.28530059E+01 -0.43225E+04
 0.29030056E+01 -0.43219E+04
 0.29530058E+01 -0.43233E+04
 0.30030055E+01 -0.43244E+04
 0.30530057E+01 -0.43248E+04
 0.31030059E+01 -0.43278E+04
 0.31530056E+01 -0.43253E+04
 0.32030058E+01 -0.43221E+04
 0.32530055E+01 -0.43216E+04
 0.33030057E+01 -0.43221E+04
 0.33530059E+01 -0.43239E+04
 0.34030056E+01 -0.43224E+04
 0.34530058E+01 -0.43212E+04
 0.35030055E+01 -0.43192E+04
 0.35530057E+01 -0.43189E+04
 0.36030054E+01 -0.43171E+04
 0.36530056E+01 -0.43152E+04
 0.37030058E+01 -0.43093E+04
 0.37530055E+01 -0.43084E+04
 0.38030057E+01 -0.43084E+04
 0.38530054E+01 -0.43042E+04
 0.39030056E+01 -0.43035E+04
 0.39530058E+01 -0.43028E+04
 0.40030055E+01 -0.43070E+04
 0.40530057E+01 -0.43112E+04
 0.41030054E+01 -0.43114E+04
 0.41530056E+01 -0.43148E+04
 0.42030058E+01 -0.43138E+04
 0.42530055E+01 -0.43143E+04
 0.43030057E+01 -0.43164E+04
 0.43530054E+01 -0.43160E+04
 0.44030056E+01 -0.43151E+04
 0.44530058E+01 -0.43136E+04
 0.45030055E+01 -0.43163E+04
 0.45530057E+01 -0.43188E+04
 0.46030054E+01 -0.43211E+04
 0.46530056E+01 -0.43231E+04
 0.47030058E+01 -0.43228E+04
 0.47530055E+01 -0.43204E+04
 0.48030057E+01 -0.43166E+04
 0.48530054E+01 -0.43144E+04
 0.49030056E+01 -0.43138E+04
 0.49530058E+01 -0.43107E+04
 0.50030055E+01 -0.43089E+04
 0.50530057E+01 -0.43055E+04
 0.51030054E+01 -0.43062E+04
 0.51530056E+01 -0.43057E+04
 0.52030058E+01 -0.43039E+04
 0.52530055E+01 -0.43058E+04
 0.53030057E+01 -0.43060E+04
 0.53530054E+01 -0.43066E+04
 0.54030056E+01 -0.43046E+04
 0.54530053E+01 -0.43087E+04
 0.55030055E+01 -0.43112E+04
 0.55530057E+01 -0.43173E+04
 0.56030054E+01 -0.43221E+04
 0.56530056E+01 -0.43219E+04
 0.57030053E+01 -0.43251E+04
 0.57530055E+01 -0.43233E+04
 0.58030057E+01 -0.43261E+04
 0.58530054E+01 -0.43259E+04
 0.59030056E+01 -0.43296E+04
 0.59530053E+01 -0.43316E+04
 0.60030055E+01 -0.43295E+04
 0.60530052E+01 -0.43317E+04
 0.61030054E+01 -0.43329E+04
 0.61530056E+01 -0.43362E+04
 0.62030058E+01 -0.43342E+04
 0.62530050E+01 -0.43344E+04
 0.63030052E+01 -0.43351E+04
 0.63530054E+01 -0.43370E+04
 0.64030056E+01 -0.43363E+04
 0.64530058E+01 -0.43345E+04
 0.65030050E+01 -0.43377E+04
 0.65530052E+01 -0.43377E+04
 0.66030054E+01 -0.43408E+04
 0.66530056E+01 -0.43431E+04
 0.67030058E+01 -0.43454E+04
 0.67530050E+01 -0.43453E+04
 0.68030052E+01 -0.43433E+04
 0.68530054E+01 -0.43413E+04
 0.69030056E+01 -0.43403E+04
 0.69530058E+01 -0.43380E+04
 0.70030050E+01 -0.43348E+04
 0.70530052E+01 -0.43364E+04
 0.71030054E+01 -0.43337E+04
 0.71530056E+01 -0.43311E+04
 0.72030058E+01 -0.43303E+04
 0.72530050E+01 -0.43294E+04
 0.73030052E+01 -0.43264E+04
 0.73530054E+01 -0.43241E+04
 0.74030056E+01 -0.43258E+04
 0.74530058E+01 -0.43277E+04
 0.75030050E+01 -0.43264E+04
 0.75530052E+01 -0.43266E+04
 0.76030054E+01 -0.43263E+04
 0.76530056E+01 -0.43256E+04
 0.77030058E+01 -0.43266E+04
 0.77530050E+01 -0.43250E+04
 0.78030052E+01 -0.43275E+04
 0.78530054E+01 -0.43305E+04
 0.79030056E+01 -0.43280E+04
 0.79530058E+01 -0.43274E+04
 0.80030050E+01 -0.43269E+04
 0.80530052E+01 -0.43278E+04
 0.81030054E+01 -0.43241E+04
 0.81530056E+01 -0.43171E+04
 0.82030058E+01 -0.43126E+04
 0.82530050E+01 -0.43101E+04
 0.83030052E+01 -0.43097E+04
 0.83530054E+01 -0.43083E+04
 0.84030056E+01 -0.43064E+04
 0.84530058E+01 -0.43030E+04
 0.85030050E+01 -0.43042E+04
 0.85530052E+01 -0.43033E+04
 0.86030054E+01 -0.43068E+04
 0.86530056E+01 -0.43102E+04
 0.87030058E+01 -0.43124E+04
 0.87530050E+01 -0.43138E+04
 0.88030052E+01 -0.43136E+04
 0.88530054E+01 -0.43166E+04
 0.89030056E+01 -0.43163E+04
 0.89530058E+01 -0.43186E+04
 0.90030050E+01 -0.43159E+04
 0.90530052E+01 -0.43168E+04
 0.91030054E+01 -0.43210E+04
 0.91530056E+01 -0.43187E+04
 0.92030048E+01 -0.43176E+04
 0.92530050E+01 -0.43201E+04
 0.93030052E+01 -0.43190E+04
 0.93530054E+01 -0.43183E+04
 0.94030056E+01 -0.43185E+04
 0.94530048E+01 -0.43159E+04
 0.95030050E+01 -0.43170E+04
 0.95530052E+01 -0.43191E+04
 0.96030054E+01 -0.43197E+04
 0.96530056E+01 -0.43172E+04
 0.97030048E+01 -0.43185E+04
 0.97530050E+01 -0.43185E+04
 0.98030052E+01 -0.43164E+04
 0.98530054E+01 -0.43150E+04
 0.99030056E+01 -0.43134E+04
 0.99530048E+01 -0.43138E+04
 0.10003005E+02 -0.43111E+04
 0.10053005E+02 -0.43100E+04
 0.10103005E+02 -0.43089E+04
 0.10153006E+02 -0.43120E+04
 0.10203005E+02 -0.43160E+04
 0.10253005E+02 -0.43199E+04
 0.10303005E+02 -0.43226E+04
 0.10353005E+02 -0.43234E+04
 0.10403006E+02 -0.43286E+04
 0.10453005E+02 -0.43281E+04
 0.10503005E+02 -0.43289E+04
 0.10553005E+02 -0.43300E+04
 0.10603005E+02 -0.43301E+04
 0.10653006E+02 -0.43334E+04
 0.10703005E+02 -0.43345E+04
 0.10753005E+02 -0.43335E+04
 0.10803005E+02 -0.43351E+04
 0.10853005E+02 -0.43353E+04
 0.10903006E+02 -0.43320E+04
 0.10953005E+02 -0.43325E+04
 0.11003005E+02 -0.43323E+04
 0.11053005E+02 -0.43332E+04
 0.11103005E+02 -0.43320E+04
 0.11153006E+02 -0.43291E+04
 0.11203005E+02 -0.43271E+04
 0.11253005E+02 -0.43277E+04
 0.11303005E+02 -0.43269E+04
 0.11353005E+02 -0.43277E+04
 0.11403006E+02 -0.43288E+04
 0.11453005E+02 -0.43257E+04
 0.11503005E+02 -0.43252E+04
 0.11553005E+02 -0.43242E+04
 0.11603005E+02 -0.43211E+04
 0.11653006E+02 -0.43197E+04
 0.11703005E+02 -0.43172E+04
 0.11753005E+02 -0.43163E+04
 0.11803005E+02 -0.43153E+04
 0.11853005E+02 -0.43140E+04
 0.11903006E+02 -0.43145E+04
 0.11953005E+02 -0.43131E+04
 0.12003005E+02 -0.43122E+04
 0.12053005E+02 -0.43110E+04
 0.12103005E+02 -0.43107E+04
 0.12153006E+02 -0.43069E+04
 0.12203005E+02 -0.43091E+04
 0.12253005E+02 -0.43120E+04
 0.12303005E+02 -0.43128E+04
 0.12353005E+02 -0.43174E+04
 0.12403006E+02 -0.43189E+04
 0.12453005E+02 -0.43186E+04
 0.12503005E+02 -0.43221E+04
 0.12553005E+02 -0.43270E+04
 0.12603005E+02 -0.43266E+04
 0.12653005E+02 -0.43290E+04
 0.12703005E+02 -0.43350E+04
 0.12753005E+02 -0.43334E+04
 0.12803005E+02 -0.43336E+04
 0.12853005E+02 -0.43344E+04
 0.12903005E+02 -0.43367E+04
 0.12953005E+02 -0.43380E+04
 0.13003005E+02 -0.43325E+04
 0.13053005E+02 -0.43336E+04
 0.13103005E+02 -0.43353E+04
 0.13153005E+02 -0.43335E+04
 0.13203005E+02 -0.43321E+04
 0.13253005E+02 -0.43307E+04
 0.13303005E+02 -0.43294E+04
 0.13353005E+02 -0.43271E+04
 0.13403005E+02 -0.43280E+04
 0.13453005E+02 -0.43281E+04
 0.13503005E+02 -0.43243E+04
 0.13553005E+02 -0.43205E+04
 0.13603005E+02 -0.43199E+04
 0.13653005E+02 -0.43203E+04
 0.13703005E+02 -0.43177E+04
 0.13753005E+02 -0.43171E+04
 0.13803005E+02 -0.43181E+04
 0.13853005E+02 -0.43148E+04
 0.13903005E+02 -0.43100E+04
 0.13953005E+02 -0.43085E+04
 0.14003005E+02 -0.43064E+04
 0.14053005E+02 -0.43056E+04
 0.14103004E+02 -0.43068E+04
 0.14153006E+02 -0.43076E+04
 0.14203005E+02 -0.43107E+04
 0.14253004E+02 -0.43154E+04
 0.14303005E+02 -0.43175E+04
 0.14353004E+02 -0.43168E+04
 0.14403006E+02 -0.43169E+04
 0.14453005E+02 -0.43202E+04
 0.14503004E+02 -0.43225E+04
 0.14553005E+02 -0.43198E+04
 0.14603004E+02 -0.43237E+04
 0.14653006E+02 -0.43290E+04
 0.14703005E+02 -0.43316E+04
 0.14753004E+02 -0.43338E+04
 0.14803005E+02 -0.43352E+04
 0.14853004E+02 -0.43396E+04
 0.14903006E+02 -0.43369E+04
 0.14953005E+02 -0.43382E+04
 0.15003004E+02 -0.43397E+04
 0.15053005E+02 -0.43375E+04
 0.15103004E+02 -0.43381E+04
 0.15153006E+02 -0.43355E+04
 0.15203005E+02 -0.43339E+04
 0.15253004E+02 -0.43340E+04
 0.15303005E+02 -0.43332E+04
 0.15353004E+02 -0.43325E+04
 0.15403006E+02 -0.43334E+04
 0.15453005E+02 -0.43327E+04
 0.15503004E+02 -0.43318E+04
 0.15553005E+02 -0.43297E+04
 0.15603004E+02 -0.43299E+04
 0.15653006E+02 -0.43263E+04
 0.15703005E+02 -0.43215E+04
 0.15753004E+02 -0.43196E+04
 0.15803005E+02 -0.43168E+04
 0.15853004E+02 -0.43161E+04
 0.15903006E+02 -0.43177E+04
 0.15953005E+02 -0.43188E+04
 0.16003004E+02 -0.43171E+04
 0.16053005E+02 -0.43151E+04
 0.16103004E+02 -0.43115E+04
 0.16153006E+02 -0.43110E+04
 0.16203005E+02 -0.43137E+04
 0.16253004E+02 -0.43148E+04
 0.16303005E+02 -0.43163E+04
 0.16353004E+02 -0.43197E+04
 0.16403006E+02 -0.43235E+04
 0.16453005E+02 -0.43258E+04
 0.16503004E+02 -0.43278E+04
 0.16553005E+02 -0.43296E+04
 0.16603004E+02 -0.43325E+04
 0.16653006E+02 -0.43336E+04
 0.16703005E+02 -0.43346E+04
 0.16753004E+02 -0.43370E+04
 0.16803005E+02 -0.43378E+04
 0.16853004E+02 -0.43404E+04
 0.16903006E+02 -0.43419E+04
 0.16953005E+02 -0.43425E+04
 0.17003004E+02 -0.43414E+04
 0.17053005E+02 -0.43402E+04
 0.17103004E+02 -0.43398E+04
 0.17153006E+02 -0.43401E+04
 0.17203005E+02 -0.43380E+04
 0.17253004E+02 -0.43388E+04
 0.17303005E+02 -0.43371E+04
 0.17353004E+02 -0.43321E+04
 0.17403006E+02 -0.43304E+04
 0.17453005E+02 -0.43280E+04
 0.17503004E+02 -0.43272E+04
 0.17553005E+02 -0.43234E+04
 0.17603004E+02 -0.43235E+04
 0.17653006E+02 -0.43265E+04
 0.17703005E+02 -0.43274E+04
 0.17753004E+02 -0.43272E+04
 0.17803005E+02 -0.43288E+04
 0.17853004E+02 -0.43299E+04
 0.17903006E+02 -0.43303E+04
 0.17953005E+02 -0.43337E+04
 0.18003004E+02 -0.43338E+04
 0.18053005E+02 -0.43386E+04
 0.18103004E+02 -0.43399E+04
 0.18153006E+02 -0.43390E+04
 0.18203005E+02 -0.43392E+04
 0.18253004E+02 -0.43362E+04
 0.18303005E+02 -0.43349E+04
 0.18353004E+02 -0.43340E+04
 0.18403006E+02 -0.43321E+04
 0.18453005E+02 -0.43287E+04
 0.18503004E+02 -0.43291E+04
 0.18553005E+02 -0.43267E+04
 0.18603004E+02 -0.43241E+04
 0.18653006E+02 -0.43223E+04
 0.18703005E+02 -0.43211E+04
 0.18753004E+02 -0.43191E+04
 0.18803005E+02 -0.43182E+04
 0.18853004E+02 -0.43170E+04
 0.18903006E+02 -0.43159E+04
 0.18953005E+02 -0.43142E+04
 0.19003004E+02 -0.43133E+04
 0.19053005E+02 -0.43158E+04
 0.19103004E+02 -0.43147E+04
 0.19153006E+02 -0.43160E+04
 0.19203005E+02 -0.43195E+04
 0.19253004E+02 -0.43235E+04
 0.19303005E+02 -0.43236E+04
 0.19353004E+02 -0.43250E+04
 0.19403006E+02 -0.43283E+04
 0.19453005E+02 -0.43286E+04
 0.19503004E+02 -0.43290E+04
 0.19553005E+02 -0.43298E+04
 0.19603004E+02 -0.43291E+04
 0.19653006E+02 -0.43264E+04
 0.19703005E+02 -0.43269E+04
 0.19753004E+02 -0.43269E+04
 0.19803005E+02 -0.43270E+04
 0.19853004E+02 -0.43278E+04
 0.19903006E+02 -0.43291E+04
 0.19953005E+02 -0.43310E+04
 0.20003004E+02 -0.43317E+04
 0.20053005E+02 -0.43328E+04
 0.20103004E+02 -0.43333E+04
 0.20153006E+02 -0.43336E+04
 0.20203005E+02 -0.43317E+04
 0.20253004E+02 -0.43316E+04
 0.20303005E+02 -0.43293E+04
 0.20353004E+02 -0.43276E+04
 0.20403004E+02 -0.43294E+04
 0.20453005E+02 -0.43281E+04
 0.20503004E+02 -0.43260E+04
 0.20553005E+02 -0.43245E+04
 0.20603004E+02 -0.43208E+04
 0.20653004E+02 -0.43181E+04
 0.20703005E+02 -0.43190E+04
 0.20753004E+02 -0.43160E+04
 0.20803005E+02 -0.43136E+04
 0.20853004E+02 -0.43138E+04
 0.20903004E+02 -0.43118E+04
 0.20953005E+02 -0.43110E+04
 0.21003004E+02 -0.43107E+04
 0.21053005E+02 -0.43125E+04
 0.21103004E+02 -0.43131E+04
 0.21153004E+02 -0.43148E+04
 0.21203005E+02 -0.43164E+04
 0.21253004E+02 -0.43184E+04
 0.21303005E+02 -0.43257E+04
 0.21353004E+02 -0.43251E+04
 0.21403004E+02 -0.43277E+04
 0.21453005E+02 -0.43336E+04
 0.21503004E+02 -0.43365E+04
 0.21553005E+02 -0.43401E+04
 0.21603004E+02 -0.43393E+04
 0.21653004E+02 -0.43399E+04
 0.21703005E+02 -0.43421E+04
 0.21753004E+02 -0.43426E+04
 0.21803005E+02 -0.43412E+04
 0.21853004E+02 -0.43428E+04
 0.21903004E+02 -0.43437E+04
 0.21953005E+02 -0.43444E+04
 0.22003004E+02 -0.43428E+04
 0.22053005E+02 -0.43423E+04
 0.22103004E+02 -0.43418E+04
 0.22153004E+02 -0.43404E+04
 0.22203005E+02 -0.43404E+04
 0.22253004E+02 -0.43365E+04
 0.22303005E+02 -0.43365E+04
 0.22353004E+02 -0.43340E+04
 0.22403004E+02 -0.43314E+04
 0.22453005E+02 -0.43303E+04
 0.22503004E+02 -0.43321E+04
 0.22553005E+02 -0.43281E+04
 0.22603004E+02 -0.43285E+04
 0.22653004E+02 -0.43283E+04
 0.22703005E+02 -0.43251E+04
 0.22753004E+02 -0.43233E+04
 0.22803005E+02 -0.43204E+04
 0.22853004E+02 -0.43212E+04
 0.22903004E+02 -0.43189E+04
 0.22953005E+02 -0.43182E+04
 0.23003004E+02 -0.43181E+04
 0.23053005E+02 -0.43196E+04
 0.23103004E+02 -0.43201E+04
 0.23153004E+02 -0.43218E+04
 0.23203005E+02 -0.43205E+04
 0.23253004E+02 -0.43183E+04
 0.23303005E+02 -0.43157E+04
 0.23353004E+02 -0.43155E+04
 0.23403004E+02 -0.43143E+04
 0.23453005E+02 -0.43145E+04
 0.23503004E+02 -0.43142E+04
 0.23553005E+02 -0.43130E+04
 0.23603004E+02 -0.43136E+04
 0.23653004E+02 -0.43156E+04
 0.23703005E+02 -0.43160E+04
 0.23753004E+02 -0.43160E+04
 0.23803005E+02 -0.43192E+04
 0.23853004E+02 -0.43243E+04
 0.23903004E+02 -0.43260E+04
 0.23953005E+02 -0.43284E+04
 0.24003004E+02 -0.43289E+04
 0.24053005E+02 -0.43287E+04
 0.24103004E+02 -0.43323E+04
 0.24153004E+02 -0.43358E+04
 0.24203005E+02 -0.43399E+04
 0.24253004E+02 -0.43404E+04
 0.24303005E+02 -0.43417E+04
 0.24353004E+02 -0.43413E+04
 0.24403004E+02 -0.43415E+04
 0.24453005E+02 -0.43408E+04
 0.24503004E+02 -0.43404E+04
 0.24553005E+02 -0.43385E+04
 0.24603004E+02 -0.43364E+04
 0.24653004E+02 -0.43362E+04
 0.24703005E+02 -0.43319E+04
 0.24753004E+02 -0.43280E+04
 0.24803005E+02 -0.43254E+04
 0.24853004E+02 -0.43208E+04
 0.24903004E+02 -0.43182E+04
 0.24953005E+02 -0.43167E+04
 0.25003004E+02 -0.43144E+04
 0.25053005E+02 -0.43142E+04
 0.25103004E+02 -0.43135E+04
 0.25153004E+02 -0.43115E+04
 0.25203005E+02 -0.43104E+04
 0.25253004E+02 -0.43099E+04
 0.25303005E+02 -0.43112E+04
 0.25353004E+02 -0.43143E+04
 0.25403004E+02 -0.43160E+04
 0.25453005E+02 -0.43161E+04
 0.25503004E+02 -0.43169E+04
 0.25553005E+02 -0.43199E+04
 0.25603004E+02 -0.43200E+04
 0.25653004E+02 -0.43189E+04
 0.25703005E+02 -0.43168E+04
 0.25753004E+02 -0.43164E+04
 0.25803005E+02 -0.43200E+04
 0.25853004E+02 -0.43213E+04
 0.25903004E+02 -0.43238E+04
 0.25953005E+02 -0.43300E+04
 0.26003004E+02 -0.43314E+04
 0.26053005E+02 -0.43338E+04
 0.26103004E+02 -0.43377E+04
 0.26153004E+02 -0.43382E+04
 0.26203005E+02 -0.43414E+04
 0.26253004E+02 -0.43401E+04
 0.26303005E+02 -0.43407E+04
 0.26353004E+02 -0.43402E+04
 0.26403004E+02 -0.43407E+04
 0.26453005E+02 -0.43387E+04
 0.26503004E+02 -0.43398E+04
 0.26553005E+02 -0.43400E+04
 0.26603004E+02 -0.43384E+04
 0.26653004E+02 -0.43413E+04
 0.26703005E+02 -0.43394E+04
 0.26753004E+02 -0.43378E+04
 0.26803005E+02 -0.43341E+04
 0.26853004E+02 -0.43356E+04
 0.26903004E+02 -0.43364E+04
 0.26953005E+02 -0.43334E+04
 0.27003004E+02 -0.43327E+04
 0.27053003E+02 -0.43316E+04
 0.27103004E+02 -0.43352E+04
 0.27153004E+02 -0.43331E+04
 0.27203005E+02 -0.43294E+04
 0.27253004E+02 -0.43277E+04
 0.27303003E+02 -0.43253E+04
 0.27353004E+02 -0.43209E+04
 0.27403004E+02 -0.43162E+04
 0.27453005E+02 -0.43180E+04
 0.27503004E+02 -0.43176E+04
 0.27553003E+02 -0.43171E+04
 0.27603004E+02 -0.43200E+04
 0.27653004E+02 -0.43216E+04
 0.27703005E+02 -0.43206E+04
 0.27753004E+02 -0.43224E+04
 0.27803003E+02 -0.43217E+04
 0.27853004E+02 -0.43235E+04
 0.27903004E+02 -0.43240E+04
 0.27953005E+02 -0.43254E+04
 0.28003004E+02 -0.43274E+04
 0.28053003E+02 -0.43266E+04
 0.28103004E+02 -0.43268E+04
 0.28153004E+02 -0.43285E+04
 0.28203005E+02 -0.43339E+04
 0.28253004E+02 -0.43343E+04
 0.28303003E+02 -0.43341E+04
 0.28353004E+02 -0.43350E+04
 0.28403004E+02 -0.43364E+04
 0.28453005E+02 -0.43385E+04
 0.28503004E+02 -0.43395E+04
 0.28553003E+02 -0.43420E+04
 0.28603004E+02 -0.43443E+04
 0.28653004E+02 -0.43464E+04
 0.28703005E+02 -0.43446E+04
 0.28753004E+02 -0.43445E+04
 0.28803003E+02 -0.43421E+04
 0.28853004E+02 -0.43395E+04
 0.28903004E+02 -0.43414E+04
 0.28953005E+02 -0.43398E+04
 0.29003004E+02 -0.43387E+04
 0.29053003E+02 -0.43383E+04
 0.29103004E+02 -0.43387E+04
 0.29153004E+02 -0.43322E+04
 0.29203005E+02 -0.43270E+04
 0.29253004E+02 -0.43241E+04
 0.29303003E+02 -0.43246E+04
 0.29353004E+02 -0.43220E+04
 0.29403004E+02 -0.43190E+04
 0.29453005E+02 -0.43239E+04
 0.29503004E+02 -0.43215E+04
 0.29553003E+02 -0.43195E+04
 0.29603004E+02 -0.43175E+04
 0.29653004E+02 -0.43201E+04
 0.29703005E+02 -0.43160E+04
 0.29753004E+02 -0.43147E+04
 0.29803003E+02 -0.43167E+04
 0.29853004E+02 -0.43171E+04
 0.29903004E+02 -0.43251E+04
 0.29953005E+02 -0.43272E+04
 0.30003004E+02 -0.43247E+04
 0.30053005E+02 -0.43236E+04
 0.30103004E+02 -0.43269E+04
 0.30153004E+02 -0.43186E+04
 0.30203003E+02 -0.43172E+04
 0.30253002E+02 -0.43194E+04
 0.30303005E+02 -0.43197E+04
 0.30353004E+02 -0.43190E+04
 0.30403004E+02 -0.43184E+04
 0.30453003E+02 -0.43202E+04
 0.30503002E+02 -0.43150E+04
 0.30553005E+02 -0.43238E+04
 0.30603004E+02 -0.43263E+04
 0.30653004E+02 -0.43168E+04
 0.30703003E+02 -0.43196E+04
 0.30753002E+02 -0.43195E+04
 0.30803005E+02 -0.43235E+04
 0.30853004E+02 -0.43324E+04
 0.30903004E+02 -0.43287E+04
 0.30953003E+02 -0.43298E+04
 0.31003002E+02 -0.43364E+04
 0.31053005E+02 -0.43403E+04
 0.31103004E+02 -0.43263E+04
 0.31153004E+02 -0.43301E+04
 0.31203003E+02 -0.43396E+04
 0.31253002E+02 -0.43303E+04
 0.31303005E+02 -0.43290E+04
 0.31353004E+02 -0.43357E+04
 0.31403004E+02 -0.43246E+04
 0.31453003E+02 -0.43166E+04
 0.31503002E+02 -0.43333E+04
 0.31553005E+02 -0.43253E+04
 0.31603004E+02 -0.43309E+04
 0.31653004E+02 -0.43312E+04
 0.31703003E+02 -0.43305E+04
 0.31753002E+02 -0.43190E+04
 0.31803005E+02 -0.43249E+04
 0.31853004E+02 -0.43356E+04
 0.31903004E+02 -0.43027E+04
 0.31953003E+02 -0.43168E+04
 0.32003002E+02 -0.43421E+04
 0.32053005E+02 -0.43315E+04
 0.32103004E+02 -0.43236E+04
 0.32153004E+02 -0.43516E+04
 0.32203003E+02 -0.43168E+04
 0.32253002E+02 -0.43063E+04
 0.32303005E+02 -0.43413E+04
 0.32353004E+02 -0.43316E+04
 0.32403004E+02 -0.43244E+04
 0.32453003E+02 -0.43361E+04
 0.32503002E+02 -0.43516E+04
 0.32553005E+02 -0.43211E+04
 0.32603004E+02 -0.43283E+04
 0.32653004E+02 -0.43255E+04
 0.32703003E+02 -0.43207E+04
 0.32753002E+02 -0.43344E+04
 0.32803005E+02 -0.43171E+04
 0.32853004E+02 -0.43089E+04
 0.32903004E+02 -0.43069E+04
 0.32953003E+02 -0.42870E+04
 0.33003002E+02 -0.43059E+04
 0.33053005E+02 -0.43493E+04
 0.33103004E+02 -0.43199E+04
 0.33153004E+02 -0.43015E+04
 0.33203003E+02 -0.43268E+04
 0.33253002E+02 -0.43483E+04
 0.33303005E+02 -0.42915E+04
 0.33353004E+02 -0.43231E+04
 0.33403004E+02 -0.43467E+04
 0.33453003E+02 -0.43070E+04
 0.33503002E+02 -0.43315E+04
 0.33553005E+02 -0.43602E+04
 0.33603004E+02 -0.42937E+04
 0.33653004E+02 -0.42776E+04
 0.33703003E+02 -0.43748E+04
 0.33753002E+02 -0.43242E+04
 0.33803005E+02 -0.43102E+04
 0.33853004E+02 -0.43249E+04
 0.33903004E+02 -0.43631E+04
 0.33953003E+02 -0.43475E+04
 0.34003002E+02 -0.43328E+04
 0.34053005E+02 -0.43754E+04
 0.34103004E+02 -0.42957E+04
 0.34153004E+02 -0.42616E+04
 0.34203003E+02 -0.43229E+04
 0.34253002E+02 -0.43373E+04
 0.34303005E+02 -0.42851E+04
 0.34353004E+02 -0.42958E+04
 0.34403004E+02 -0.43887E+04
 0.34453003E+02 -0.43665E+04
 0.34503002E+02 -0.43161E+04
 0.34553005E+02 -0.43974E+04
 0.34603004E+02 -0.43558E+04
 0.34653004E+02 -0.42732E+04
 0.34703003E+02 -0.42091E+04
 0.34753002E+02 -0.43198E+04
 0.34803005E+02 -0.43350E+04
 0.34853004E+02 -0.41362E+04
 0.34903004E+02 -0.42116E+04
 0.34953003E+02 -0.43521E+04
 0.35003002E+02 -0.44280E+04
 0.35053005E+02 -0.44105E+04
 0.35103004E+02 -0.42026E+04
 0.35153004E+02 -0.42490E+04
 0.35203003E+02 -0.44874E+04
 0.35253002E+02 -0.43270E+04
 0.35303005E+02 -0.41639E+04
 0.35353004E+02 -0.44227E+04
 0.35403004E+02 -0.44588E+04
 0.35453003E+02 -0.42088E+04
 0.35503002E+02 -0.43226E+04
 0.35553005E+02 -0.43251E+04
 0.35603004E+02 -0.42911E+04
 0.35653004E+02 -0.43375E+04
 0.35703003E+02 -0.44366E+04
 0.35753002E+02 -0.45532E+04
 0.35803005E+02 -0.44322E+04
 0.35853004E+02 -0.44175E+04
 0.35903004E+02 -0.43435E+04
 0.35953003E+02 -0.41977E+04
 0.36003002E+02 -0.41820E+04
 0.36053005E+02 -0.42721E+04
 0.36103004E+02 -0.41368E+04
 0.36153004E+02 -0.42889E+04
 0.36203003E+02 -0.46232E+04
 0.36253002E+02 -0.42787E+04
 0.36303005E+02 -0.38149E+04
 0.36353004E+02 -0.42931E+04
 0.36403004E+02 -0.45542E+04
 0.36453003E+02 -0.43483E+04
 0.36503002E+02 -0.44506E+04
 0.36553005E+02 -0.45815E+04
 0.36603004E+02 -0.43261E+04
 0.36653004E+02 -0.41842E+04
 0.36703003E+02 -0.41960E+04
 0.36753002E+02 -0.42762E+04
 0.36803005E+02 -0.42426E+04
 0.36853004E+02 -0.41399E+04
 0.36903004E+02 -0.43297E+04
 0.36953003E+02 -0.42898E+04
 0.37003002E+02 -0.43996E+04
 0.37053005E+02 -0.43465E+04
 0.37103004E+02 -0.44768E+04
 0.37153004E+02 -0.44118E+04
 0.37203003E+02 -0.45209E+04
 0.37253002E+02 -0.45412E+04
 0.37303005E+02 -0.41454E+04
 0.37353004E+02 -0.40855E+04
 0.37403004E+02 -0.45410E+04
 0.37453003E+02 -0.40114E+04
 0.37503002E+02 -0.39685E+04
 0.37553005E+02 -0.46861E+04
 0.37603004E+02 -0.47126E+04
 0.37653004E+02 -0.42232E+04
 0.37703003E+02 -0.43222E+04
 0.37753002E+02 -0.48432E+04
 0.37803005E+02 -0.38619E+04
 0.37853004E+02 -0.39109E+04
 0.37903004E+02 -0.43677E+04
 0.37953003E+02 -0.46179E+04
 0.38003002E+02 -0.42764E+04
 0.38053005E+02 -0.44326E+04
 0.38103004E+02 -0.45275E+04
 0.38153004E+02 -0.43964E+04
 0.38203003E+02 -0.43997E+04
 0.38253002E+02 -0.37106E+04
 0.38303005E+02 -0.37581E+04
 0.38353004E+02 -0.45641E+04
 0.38403004E+02 -0.47898E+04
 0.38453003E+02 -0.41209E+04
 0.38503002E+02 -0.44937E+04
 0.38553005E+02 -0.49958E+04
 0.38603004E+02 -0.45382E+04
 0.38653004E+02 -0.38411E+04
 0.38703003E+02 -0.42222E+04
 0.38753002E+02 -0.47939E+04
 0.38803005E+02 -0.42201E+04
 0.38853004E+02 -0.38440E+04
 0.38903004E+02 -0.42133E+04
 0.38953003E+02 -0.36743E+04
 0.39003002E+02 -0.40707E+04
 0.39053005E+02 -0.49188E+04
 0.39103004E+02 -0.47587E+04
 0.39153004E+02 -0.43919E+04
 0.39203003E+02 -0.43876E+04
 0.39253002E+02 -0.42728E+04
 0.39303005E+02 -0.39700E+04
 0.39353004E+02 -0.44321E+04
 0.39403004E+02 -0.46916E+04
 0.39453003E+02 -0.48585E+04
 0.39503002E+02 -0.42775E+04
 0.39553005E+02 -0.40666E+04
 0.39603004E+02 -0.42258E+04
 0.39653004E+02 -0.41691E+04
 0.39703003E+02 -0.38278E+04
 0.39753002E+02 -0.44307E+04
 0.39803005E+02 -0.47597E+04
 0.39853004E+02 -0.42130E+04
 0.39903004E+02 -0.48504E+04
 0.39953003E+02 -0.41918E+04
 0.40003002E+02 -0.37683E+04
 0.40053005E+02 -0.48494E+04
 0.40103004E+02 -0.51664E+04
 0.40153004E+02 -0.38943E+04
 0.40203003E+02 -0.38165E+04
 0.40253002E+02 -0.46103E+04
 0.40303005E+02 -0.36429E+04
 0.40353004E+02 -0.33108E+04
 0.40403004E+02 -0.44371E+04
 0.40453003E+02 -0.46397E+04
 0.40503002E+02 -0.46856E+04
 0.40553005E+02 -0.51517E+04
 0.40603004E+02 -0.47090E+04
 0.40653004E+02 -0.41015E+04
 0.40703003E+02 -0.42041E+04
 0.40753002E+02 -0.38342E+04
 0.40803005E+02 -0.36796E+04
 0.40853004E+02 -0.40762E+04
 0.40903004E+02 -0.38846E+04
 0.40953003E+02 -0.42972E+04
 0.41003002E+02 -0.42543E+04
 0.41053005E+02 -0.41956E+04
 0.41103004E+02 -0.38345E+04
 0.41153004E+02 -0.47214E+04
 0.41203003E+02 -0.48239E+04
 0.41253002E+02 -0.44081E+04
 0.41303005E+02 -0.42374E+04
 0.41353004E+02 -0.39785E+04
 0.41403004E+02 -0.45045E+04
 0.41453003E+02 -0.37955E+04
 0.41503002E+02 -0.39963E+04
 0.41553005E+02 -0.45845E+04
 0.41603004E+02 -0.46701E+04
 0.41653004E+02 -0.44579E+04
 0.41703003E+02 -0.44587E+04
 0.41753002E+02 -0.39347E+04
 0.41803005E+02 -0.42973E+04
 0.41853004E+02 -0.54323E+04
 0.41903004E+02 -0.48009E+04
 0.41953003E+02 -0.47473E+04
 0.42003002E+02 -0.49802E+04
 0.42053005E+02 -0.38826E+04
 0.42103004E+02 -0.38954E+04
 0.42153004E+02 -0.45049E+04
 0.42203003E+02 -0.44585E+04
 0.42253002E+02 -0.44868E+04
 0.42303005E+02 -0.42896E+04
 0.42353004E+02 -0.38219E+04
 0.42403004E+02 -0.40691E+04
 0.42453003E+02 -0.39515E+04
 0.42503002E+02 -0.36538E+04
 0.42553005E+02 -0.42738E+04
 0.42603004E+02 -0.50979E+04
 0.42653004E+02 -0.46136E+04
 0.42703003E+02 -0.45928E+04
 0.42753002E+02 -0.47617E+04
 0.42803001E+02 -0.40993E+04
 0.42853004E+02 -0.36738E+04
 0.42903004E+02 -0.40598E+04
 0.42953003E+02 -0.45503E+04
 0.43003002E+02 -0.39878E+04
 0.43053001E+02 -0.42277E+04
 0.43103004E+02 -0.44523E+04
 0.43153004E+02 -0.41675E+04
 0.43203003E+02 -0.37858E+04
 0.43253002E+02 -0.44395E+04
 0.43303001E+02 -0.46290E+04
 0.43353004E+02 -0.40941E+04
 0.43403004E+02 -0.42624E+04
 0.43453003E+02 -0.44643E+04
 0.43503002E+02 -0.46524E+04
 0.43553001E+02 -0.45621E+04
 0.43603004E+02 -0.47186E+04
 0.43653004E+02 -0.48607E+04
 0.43703003E+02 -0.43920E+04
 0.43753002E+02 -0.41795E+04
 0.43803001E+02 -0.40691E+04
 0.43853004E+02 -0.39866E+04
 0.43903004E+02 -0.38124E+04
 0.43953003E+02 -0.44401E+04
 0.44003002E+02 -0.49868E+04
 0.44053001E+02 -0.41462E+04
 0.44103004E+02 -0.37791E+04
 0.44153004E+02 -0.46896E+04
 0.44203003E+02 -0.49231E+04
 0.44253002E+02 -0.41341E+04
 0.44303001E+02 -0.43083E+04
 0.44353004E+02 -0.44396E+04
 0.44403004E+02 -0.44645E+04
 0.44453003E+02 -0.41594E+04
 0.44503002E+02 -0.40951E+04
 0.44553001E+02 -0.43578E+04
 0.44603004E+02 -0.44501E+04
 0.44653004E+02 -0.42797E+04
 0.44703003E+02 -0.34081E+04
 0.44753002E+02 -0.39489E+04
 0.44803001E+02 -0.48745E+04
 0.44853004E+02 -0.43465E+04
 0.44903004E+02 -0.43223E+04
 0.44953003E+02 -0.51811E+04
 0.45003002E+02 -0.45035E+04
 0.45053001E+02 -0.37345E+04
 0.45103004E+02 -0.42865E+04
 0.45153004E+02 -0.46515E+04
 0.45203003E+02 -0.45071E+04
 0.45253002E+02 -0.42430E+04
 0.45303001E+02 -0.48454E+04
 0.45353004E+02 -0.47274E+04
 0.45403004E+02 -0.46398E+04
 0.45453003E+02 -0.45472E+04
 0.45503002E+02 -0.39078E+04
 0.45553001E+02 -0.38333E+04
 0.45603004E+02 -0.37528E+04
 0.45653004E+02 -0.38794E+04
 0.45703003E+02 -0.40864E+04
 0.45753002E+02 -0.46107E+04
 0.45803001E+02 -0.46263E+04
 0.45853004E+02 -0.42867E+04
 0.45903004E+02 -0.43351E+04
 0.45953003E+02 -0.41815E+04
 0.46003002E+02 -0.39176E+04
 0.46053001E+02 -0.41356E+04
 0.46103004E+02 -0.43644E+04
 0.46153004E+02 -0.41417E+04
 0.46203003E+02 -0.42778E+04
 0.46253002E+02 -0.47298E+04
 0.46303001E+02 -0.43375E+04
 0.46353004E+02 -0.40454E+04
 0.46403004E+02 -0.42203E+04
 0.46453003E+02 -0.46618E+04
 0.46503002E+02 -0.42859E+04
 0.46553001E+02 -0.37466E+04
 0.46603004E+02 -0.45502E+04
 0.46653004E+02 -0.47585E+04
 0.46703003E+02 -0.48787E+04
 0.46753002E+02 -0.48448E+04
 0.46803001E+02 -0.46027E+04
 0.46853004E+02 -0.43856E+04
 0.46903004E+02 -0.38896E+04
 0.46953003E+02 -0.38454E+04
 0.47003002E+02 -0.38280E+04
 0.47053001E+02 -0.39773E+04
 0.47103004E+02 -0.42995E+04
 0.47153004E+02 -0.43178E+04
 0.47203003E+02 -0.46736E+04
 0.47253002E+02 -0.44366E+04
 0.47303001E+02 -0.39208E+04
 0.47353004E+02 -0.43377E+04
 0.47403004E+02 -0.47252E+04
 0.47453003E+02 -0.43059E+04
 0.47503002E+02 -0.41294E+04
 0.47553001E+02 -0.45782E+04
 0.47603004E+02 -0.42413E+04
 0.47653004E+02 -0.39114E+04
 0.47703003E+02 -0.47249E+04
 0.47753002E+02 -0.48871E+04
 0.47803001E+02 -0.42174E+04
 0.47853004E+02 -0.43487E+04
 0.47903004E+02 -0.46654E+04
 0.47953003E+02 -0.44069E+04
 0.48003002E+02 -0.43245E+04
 0.48053001E+02 -0.47342E+04
 0.48103004E+02 -0.46623E+04
 0.48153004E+02 -0.46920E+04
 0.48203003E+02 -0.44574E+04
 0.48253002E+02 -0.39936E+04
 0.48303001E+02 -0.37146E+04
 0.48353004E+02 -0.38517E+04
 0.48403004E+02 -0.39859E+04
 0.48453003E+02 -0.37282E+04
 0.48503002E+02 -0.43213E+04
 0.48553001E+02 -0.46274E+04
 0.48603004E+02 -0.41795E+04
 0.48653004E+02 -0.38325E+04
 0.48703003E+02 -0.41789E+04
 0.48753002E+02 -0.44935E+04
 0.48803001E+02 -0.43121E+04
 0.48853004E+02 -0.46980E+04
 0.48903004E+02 -0.50722E+04
 0.48953003E+02 -0.46850E+04
 0.49003002E+02 -0.43416E+04
 0.49053001E+02 -0.45467E+04
 0.49103004E+02 -0.43331E+04
 0.49153004E+02 -0.39461E+04
 0.49203003E+02 -0.41971E+04
 0.49253002E+02 -0.43101E+04
 0.49303001E+02 -0.42964E+04
 0.49353004E+02 -0.44657E+04
 0.49403004E+02 -0.46217E+04
 0.49453003E+02 -0.42410E+04
 0.49503002E+02 -0.41186E+04
 0.49553001E+02 -0.46368E+04
 0.49603004E+02 -0.46830E+04
 0.49653004E+02 -0.42435E+04
 0.49703003E+02 -0.40046E+04
 0.49753002E+02 -0.41223E+04
 0.49803001E+02 -0.40649E+04
 0.49853004E+02 -0.40988E+04
 0.49903004E+02 -0.42705E+04
 0.49953003E+02 -0.43732E+04
 0.50003002E+02 -0.44694E+04
 0.50053001E+02 -0.45221E+04
 0.50103004E+02 -0.44313E+04
 0.50153004E+02 -0.44132E+04
 0.50203003E+02 -0.45069E+04
 0.50253002E+02 -0.43178E+04
 0.50303001E+02 -0.43447E+04
 0.50353004E+02 -0.42122E+04
 0.50403004E+02 -0.38649E+04
 0.50453003E+02 -0.41491E+04
 0.50503002E+02 -0.46071E+04
 0.50553001E+02 -0.44135E+04
 0.50603004E+02 -0.40607E+04
 0.50653004E+02 -0.46360E+04
 0.50703003E+02 -0.45915E+04
 0.50753002E+02 -0.40783E+04
 0.50803001E+02 -0.43921E+04
 0.50853004E+02 -0.43882E+04
 0.50903004E+02 -0.39753E+04
 0.50953003E+02 -0.40332E+04
 0.51003002E+02 -0.43210E+04
 0.51053001E+02 -0.43493E+04
 0.51103004E+02 -0.44284E+04
 0.51153004E+02 -0.44705E+04
 0.51203003E+02 -0.44686E+04
 0.51253002E+02 -0.40508E+04
 0.51303001E+02 -0.40636E+04
 0.51353004E+02 -0.45503E+04
 0.51403004E+02 -0.44866E+04
 0.51453003E+02 -0.43442E+04
 0.51503002E+02 -0.45841E+04
 0.51553001E+02 -0.46202E+04
 0.51603004E+02 -0.39902E+04
 0.51653004E+02 -0.38487E+04
 0.51703003E+02 -0.43753E+04
 0.51753002E+02 -0.45541E+04
 0.51803001E+02 -0.41857E+04
 0.51853004E+02 -0.41828E+04
 0.51903004E+02 -0.42928E+04
 0.51953003E+02 -0.40116E+04
 0.52003002E+02 -0.41816E+04
 0.52053001E+02 -0.46803E+04
 0.52103004E+02 -0.45666E+04
 0.52153004E+02 -0.43958E+04
 0.52203003E+02 -0.46120E+04
 0.52253002E+02 -0.41892E+04
 0.52303001E+02 -0.39953E+04
 0.52353004E+02 -0.40904E+04
 0.52403004E+02 -0.42188E+04
 0.52453003E+02 -0.44715E+04
 0.52503002E+02 -0.44342E+04
 0.52553001E+02 -0.43154E+04
 0.52603004E+02 -0.41746E+04
 0.52653004E+02 -0.41140E+04
 0.52703003E+02 -0.40970E+04
 0.52753002E+02 -0.46608E+04
 0.52803001E+02 -0.48987E+04
 0.52853004E+02 -0.46008E+04
 0.52903004E+02 -0.44090E+04
 0.52953003E+02 -0.43762E+04
 0.53003002E+02 -0.44122E+04
 0.53053001E+02 -0.44053E+04
 0.53103004E+02 -0.41655E+04
 0.53153004E+02 -0.41086E+04
 0.53203003E+02 -0.42544E+04
 0.53253002E+02 -0.41231E+04
 0.53303001E+02 -0.42925E+04
 0.53353004E+02 -0.42609E+04
 0.53403004E+02 -0.43968E+04
 0.53453003E+02 -0.46625E+04
 0.53503002E+02 -0.41664E+04
 0.53553001E+02 -0.38818E+04
 0.53603004E+02 -0.40889E+04
 0.53653004E+02 -0.40118E+04
 0.53703003E+02 -0.39496E+04
 0.53753002E+02 -0.41792E+04
 0.53803001E+02 -0.45172E+04
 0.53853004E+02 -0.42575E+04
 0.53903004E+02 -0.41999E+04
 0.53953003E+02 -0.43249E+04
 0.54003002E+02 -0.43578E+04
 0.54053001E+02 -0.45854E+04
 0.54103004E+02 -0.45235E+04
 0.54153004E+02 -0.44855E+04
 0.54203003E+02 -0.43188E+04
 0.54253002E+02 -0.45584E+04
 0.54303001E+02 -0.44704E+04
 0.54353004E+02 -0.45237E+04
 0.54403004E+02 -0.47025E+04
 0.54453003E+02 -0.45699E+04
 0.54503002E+02 -0.45222E+04
 0.54553001E+02 -0.41898E+04
 0.54603004E+02 -0.40828E+04
 0.54653004E+02 -0.40450E+04
 0.54703003E+02 -0.42647E+04
 0.54753002E+02 -0.42013E+04
 0.54803001E+02 -0.44746E+04
 0.54853004E+02 -0.46123E+04
 0.54903004E+02 -0.43764E+04
 0.54953003E+02 -0.44714E+04
 0.55003002E+02 -0.43907E+04
 0.55053001E+02 -0.43184E+04
 0.55103004E+02 -0.39453E+04
 0.55153004E+02 -0.41194E+04
 0.55203003E+02 -0.42156E+04
 0.55253002E+02 -0.43603E+04
 0.55303001E+02 -0.43351E+04
 0.55353004E+02 -0.42184E+04
 0.55403004E+02 -0.46837E+04
 0.55453003E+02 -0.45546E+04
 0.55503002E+02 -0.42847E+04
 0.55553001E+02 -0.42619E+04
 0.55603004E+02 -0.44583E+04
 0.55653004E+02 -0.42084E+04
 0.55703003E+02 -0.38799E+04
 0.55753002E+02 -0.42487E+04
 0.55803001E+02 -0.42483E+04
 0.55853001E+02 -0.40513E+04
 0.55903004E+02 -0.42152E+04
 0.55953003E+02 -0.46020E+04
 0.56003002E+02 -0.45382E+04
 0.56053001E+02 -0.45627E+04
 0.56103001E+02 -0.46761E+04
 0.56153004E+02 -0.42098E+04
 0.56203003E+02 -0.42249E+04
 0.56253002E+02 -0.45665E+04
 0.56303001E+02 -0.46081E+04
 0.56353001E+02 -0.43755E+04
 0.56403004E+02 -0.45725E+04
 0.56453003E+02 -0.43642E+04
 0.56503002E+02 -0.38651E+04
 0.56553001E+02 -0.39636E+04
 0.56603001E+02 -0.42786E+04
 0.56653004E+02 -0.41234E+04
 0.56703003E+02 -0.40107E+04
 0.56753002E+02 -0.42973E+04
 0.56803001E+02 -0.41632E+04
 0.56853001E+02 -0.40518E+04
 0.56903004E+02 -0.42153E+04
 0.56953003E+02 -0.46760E+04
 0.57003002E+02 -0.46643E+04
 0.57053001E+02 -0.45650E+04
 0.57103001E+02 -0.47603E+04
 0.57153004E+02 -0.45298E+04
 0.57203003E+02 -0.41133E+04
 0.57253002E+02 -0.40667E+04
 0.57303001E+02 -0.42268E+04
 0.57353001E+02 -0.43662E+04
 0.57403004E+02 -0.42566E+04
 0.57453003E+02 -0.39401E+04
 0.57503002E+02 -0.41286E+04
 0.57553001E+02 -0.46217E+04
 0.57603001E+02 -0.46724E+04
 0.57653004E+02 -0.45943E+04
 0.57703003E+02 -0.47654E+04
 0.57753002E+02 -0.46931E+04
 0.57803001E+02 -0.43671E+04
 0.57853001E+02 -0.39982E+04
 0.57903004E+02 -0.40045E+04
 0.57953003E+02 -0.42184E+04
 0.58003002E+02 -0.40269E+04
 0.58053001E+02 -0.41688E+04
 0.58103001E+02 -0.44157E+04
 0.58153004E+02 -0.42539E+04
 0.58203003E+02 -0.41205E+04
 0.58253002E+02 -0.41713E+04
 0.58303001E+02 -0.43669E+04
 0.58353001E+02 -0.43683E+04
 0.58403004E+02 -0.43180E+04
 0.58453003E+02 -0.44892E+04
 0.58503002E+02 -0.44998E+04
 0.58553001E+02 -0.41292E+04
 0.58603001E+02 -0.39029E+04
 0.58653004E+02 -0.43351E+04
 0.58703003E+02 -0.46780E+04
 0.58753002E+02 -0.44735E+04
 0.58803001E+02 -0.42892E+04
 0.58853001E+02 -0.44009E+04
 0.58903004E+02 -0.44936E+04
 0.58953003E+02 -0.42672E+04
 0.59003002E+02 -0.41860E+04
 0.59053001E+02 -0.43695E+04
 0.59103001E+02 -0.45424E+04
 0.59153004E+02 -0.43245E+04
 0.59203003E+02 -0.41419E+04
 0.59253002E+02 -0.41081E+04
 0.59303001E+02 -0.42110E+04
 0.59353001E+02 -0.41031E+04
 0.59403004E+02 -0.42406E+04
 0.59453003E+02 -0.44036E+04
 0.59503002E+02 -0.41633E+04
 0.59553001E+02 -0.42601E+04
 0.59603001E+02 -0.42829E+04
 0.59653004E+02 -0.44660E+04
 0.59703003E+02 -0.46574E+04
 0.59753002E+02 -0.44930E+04
 0.59803001E+02 -0.43977E+04
 0.59853001E+02 -0.44180E+04
 0.59903004E+02 -0.43902E+04
 0.59953003E+02 -0.41617E+04
 0.60003002E+02 -0.39512E+04
 0.60053001E+02 -0.41720E+04
 0.60103001E+02 -0.43842E+04
 0.60153004E+02 -0.42638E+04
 0.60203003E+02 -0.41552E+04
 0.60253002E+02 -0.42323E+04
 0.60303001E+02 -0.39227E+04
 0.60353001E+02 -0.40379E+04
 0.60403004E+02 -0.44990E+04
 0.60453003E+02 -0.43744E+04
 0.60503002E+02 -0.44784E+04
 0.60553001E+02 -0.44375E+04
 0.60603001E+02 -0.44097E+04
 0.60653004E+02 -0.43660E+04
 0.60703003E+02 -0.43016E+04
 0.60753002E+02 -0.43011E+04
 0.60803001E+02 -0.41578E+04
 0.60853001E+02 -0.43367E+04
 0.60903004E+02 -0.42290E+04
 0.60953003E+02 -0.40909E+04
 0.61003002E+02 -0.42041E+04
 0.61053001E+02 -0.41296E+04
 0.61103001E+02 -0.40259E+04
 0.61153004E+02 -0.42336E+04
 0.61203003E+02 -0.42806E+04
 0.61253002E+02 -0.43976E+04
 0.61303001E+02 -0.44767E+04
 0.61353001E+02 -0.43396E+04
 0.61403004E+02 -0.43841E+04
 0.61453003E+02 -0.40437E+04
 0.61503002E+02 -0.40923E+04
 0.61553001E+02 -0.44190E+04
 0.61603001E+02 -0.44726E+04
 0.61653004E+02 -0.44900E+04
 0.61703003E+02 -0.45400E+04
 0.61753002E+02 -0.46840E+04
 0.61803001E+02 -0.46028E+04
 0.61853001E+02 -0.44390E+04
 0.61903004E+02 -0.44150E+04
 0.61953003E+02 -0.44840E+04
 0.62003002E+02 -0.45035E+04
 0.62053001E+02 -0.43353E+04
 0.62103004E+02 -0.44245E+04
 0.62153000E+02 -0.46482E+04
 0.62203003E+02 -0.44972E+04
 0.62252998E+02 -0.44698E+04
 0.62303001E+02 -0.45283E+04
 0.62353004E+02 -0.44297E+04
 0.62403000E+02 -0.42987E+04
 0.62453003E+02 -0.44124E+04
 0.62502998E+02 -0.45932E+04
 0.62553001E+02 -0.45157E+04
 0.62603004E+02 -0.42311E+04
 0.62653000E+02 -0.40011E+04
 0.62703003E+02 -0.37073E+04
 0.62752998E+02 -0.37030E+04
 0.62803001E+02 -0.38863E+04
 0.62853004E+02 -0.40545E+04
 0.62903000E+02 -0.43433E+04
 0.62953003E+02 -0.43921E+04
 0.63002998E+02 -0.44311E+04
 0.63053001E+02 -0.44746E+04
 0.63103004E+02 -0.45111E+04
 0.63153000E+02 -0.44444E+04
 0.63203003E+02 -0.43272E+04
 0.63252998E+02 -0.42961E+04
 0.63303001E+02 -0.43896E+04
 0.63353004E+02 -0.43064E+04
 0.63403000E+02 -0.41734E+04
 0.63453003E+02 -0.42157E+04
 0.63502998E+02 -0.42607E+04
 0.63553001E+02 -0.43494E+04
 0.63603004E+02 -0.43273E+04
 0.63653000E+02 -0.43814E+04
 0.63703003E+02 -0.43839E+04
 0.63752998E+02 -0.44755E+04
 0.63803001E+02 -0.46014E+04
 0.63853004E+02 -0.44375E+04
 0.63903000E+02 -0.45439E+04
 0.63953003E+02 -0.45045E+04
 0.64002998E+02 -0.42353E+04
 0.64053001E+02 -0.42168E+04
 0.64103004E+02 -0.42291E+04
 0.64153000E+02 -0.39067E+04
 0.64203003E+02 -0.40264E+04
 0.64252998E+02 -0.43577E+04
 0.64303001E+02 -0.42515E+04
 0.64353004E+02 -0.41634E+04
 0.64403000E+02 -0.40713E+04
 0.64453003E+02 -0.40474E+04
 0.64502998E+02 -0.42008E+04
 0.64553001E+02 -0.44863E+04
 0.64603004E+02 -0.43791E+04
 0.64653000E+02 -0.43943E+04
 0.64703003E+02 -0.47056E+04
 0.64752998E+02 -0.47924E+04
 0.64803001E+02 -0.44678E+04
 0.64853004E+02 -0.41661E+04
 0.64903000E+02 -0.40527E+04
 0.64953003E+02 -0.37555E+04
 0.65002998E+02 -0.35374E+04
 0.65053001E+02 -0.38652E+04
 0.65103004E+02 -0.45863E+04
 0.65153000E+02 -0.48480E+04
 0.65203003E+02 -0.50424E+04
 0.65252998E+02 -0.50834E+04
 0.65303001E+02 -0.48078E+04
 0.65353004E+02 -0.47260E+04
 0.65403000E+02 -0.49514E+04
 0.65453003E+02 -0.49255E+04
 0.65502998E+02 -0.47870E+04
 0.65553001E+02 -0.46103E+04
 0.65603004E+02 -0.41897E+04
 0.65653000E+02 -0.39867E+04
 0.65703003E+02 -0.38939E+04
 0.65752998E+02 -0.41598E+04
 0.65803001E+02 -0.42355E+04
 0.65853004E+02 -0.41018E+04
 0.65903000E+02 -0.42801E+04
 0.65953003E+02 -0.43920E+04
 0.66002998E+02 -0.42349E+04
 0.66053001E+02 -0.41000E+04
 0.66103004E+02 -0.41013E+04
 0.66153000E+02 -0.42685E+04
 0.66203003E+02 -0.42008E+04
 0.66252998E+02 -0.39672E+04
 0.66303001E+02 -0.43012E+04
 0.66353004E+02 -0.44041E+04
 0.66403000E+02 -0.40703E+04
 0.66453003E+02 -0.40726E+04
 0.66502998E+02 -0.41001E+04
 0.66553001E+02 -0.38949E+04
 0.66603004E+02 -0.38825E+04
 0.66653000E+02 -0.39981E+04
 0.66703003E+02 -0.38432E+04
 0.66752998E+02 -0.37269E+04
 0.66803001E+02 -0.41206E+04
 0.66853004E+02 -0.46557E+04
 0.66903000E+02 -0.51666E+04
 0.66953003E+02 -0.52687E+04
 0.67002998E+02 -0.51540E+04
 0.67053001E+02 -0.49612E+04
 0.67103004E+02 -0.48174E+04
 0.67153000E+02 -0.47057E+04
 0.67203003E+02 -0.43048E+04
 0.67252998E+02 -0.42498E+04
 0.67303001E+02 -0.42398E+04
 0.67353004E+02 -0.42861E+04
 0.67403000E+02 -0.44560E+04
 0.67453003E+02 -0.45945E+04
 0.67502998E+02 -0.47343E+04
 0.67553001E+02 -0.46198E+04
 0.67603004E+02 -0.44662E+04
 0.67653000E+02 -0.43173E+04
 0.67703003E+02 -0.41318E+04
 0.67752998E+02 -0.39554E+04
 0.67803001E+02 -0.37162E+04
 0.67853004E+02 -0.36564E+04
 0.67903000E+02 -0.39811E+04
 0.67953003E+02 -0.42505E+04
 0.68002998E+02 -0.41961E+04
 0.68053001E+02 -0.41053E+04
 0.68103004E+02 -0.41032E+04
 0.68153000E+02 -0.40978E+04
 0.68203003E+02 -0.41763E+04
 0.68252998E+02 -0.44211E+04
 0.68303001E+02 -0.46344E+04
 0.68353004E+02 -0.46221E+04
 0.68403000E+02 -0.46673E+04
 0.68453003E+02 -0.47943E+04
 0.68502998E+02 -0.46209E+04
 0.68553001E+02 -0.44522E+04
 0.68603004E+02 -0.44310E+04
 0.68653000E+02 -0.44526E+04
 0.68703003E+02 -0.43659E+04
 0.68752998E+02 -0.43099E+04
 0.68803001E+02 -0.42533E+04
 0.68853004E+02 -0.41372E+04
 0.68903000E+02 -0.38763E+04
 0.68953003E+02 -0.35603E+04
 0.69002998E+02 -0.35164E+04
 0.69053001E+02 -0.36860E+04
 0.69103004E+02 -0.39622E+04
 0.69153000E+02 -0.41815E+04
 0.69203003E+02 -0.44431E+04
 0.69252998E+02 -0.46012E+04
 0.69303001E+02 -0.45754E+04
 0.69353004E+02 -0.46547E+04
 0.69403000E+02 -0.46653E+04
 0.69453003E+02 -0.46694E+04
 0.69502998E+02 -0.47818E+04
 0.69553001E+02 -0.47738E+04
 0.69603004E+02 -0.47366E+04
 0.69653000E+02 -0.45882E+04
 0.69703003E+02 -0.44563E+04
 0.69752998E+02 -0.44899E+04
 0.69803001E+02 -0.44806E+04
 0.69853004E+02 -0.43797E+04
 0.69903000E+02 -0.43329E+04
 0.69953003E+02 -0.41949E+04
 0.70002998E+02 -0.39819E+04
 0.70053001E+02 -0.38129E+04
 0.70103004E+02 -0.39621E+04
 0.70153000E+02 -0.43524E+04
 0.70203003E+02 -0.44323E+04
 0.70252998E+02 -0.46107E+04
 0.70303001E+02 -0.48187E+04
 0.70353004E+02 -0.46925E+04
 0.70403000E+02 -0.43440E+04
 0.70453003E+02 -0.42129E+04
 0.70502998E+02 -0.41006E+04
 0.70553001E+02 -0.38966E+04
 0.70603004E+02 -0.38239E+04
 0.70653000E+02 -0.37790E+04
 0.70703003E+02 -0.38995E+04
 0.70752998E+02 -0.41932E+04
 0.70803001E+02 -0.43934E+04
 0.70853004E+02 -0.45017E+04
 0.70903000E+02 -0.47346E+04
 0.70953003E+02 -0.46188E+04
 0.71002998E+02 -0.45121E+04
 0.71053001E+02 -0.44655E+04
 0.71103004E+02 -0.43576E+04
 0.71153000E+02 -0.43318E+04
 0.71203003E+02 -0.43318E+04
 0.71252998E+02 -0.44556E+04
 0.71303001E+02 -0.43654E+04
 0.71353004E+02 -0.42508E+04
 0.71403000E+02 -0.41578E+04
 0.71453003E+02 -0.41345E+04
 0.71502998E+02 -0.42390E+04
 0.71553001E+02 -0.44528E+04
 0.71603004E+02 -0.46725E+04
 0.71653000E+02 -0.48464E+04
 0.71703003E+02 -0.50109E+04
 0.71752998E+02 -0.49628E+04
 0.71803001E+02 -0.49006E+04
 0.71853004E+02 -0.47058E+04
 0.71903000E+02 -0.46565E+04
 0.71953003E+02 -0.45154E+04
 0.72002998E+02 -0.42710E+04
 0.72053001E+02 -0.39744E+04
 0.72103004E+02 -0.37518E+04
 0.72153000E+02 -0.37875E+04
 0.72203003E+02 -0.36993E+04
 0.72252998E+02 -0.36329E+04
 0.72303001E+02 -0.35873E+04
 0.72353004E+02 -0.37094E+04
 0.72403000E+02 -0.38525E+04
 0.72453003E+02 -0.39706E+04
 0.72502998E+02 -0.41332E+04
 0.72553001E+02 -0.42284E+04
 0.72603004E+02 -0.42682E+04
 0.72653000E+02 -0.43050E+04
 0.72703003E+02 -0.43355E+04
 0.72752998E+02 -0.42881E+04
 0.72803001E+02 -0.41723E+04
 0.72853004E+02 -0.41238E+04
 0.72903000E+02 -0.41486E+04
 0.72953003E+02 -0.42658E+04
 0.73002998E+02 -0.43780E+04
 0.73053001E+02 -0.43736E+04
 0.73103004E+02 -0.44112E+04
 0.73153000E+02 -0.43456E+04
 0.73203003E+02 -0.42527E+04
 0.73252998E+02 -0.42664E+04
 0.73303001E+02 -0.42290E+04
 0.73353004E+02 -0.41598E+04
 0.73403000E+02 -0.41509E+04
 0.73453003E+02 -0.42741E+04
 0.73502998E+02 -0.44850E+04
 0.73553001E+02 -0.45451E+04
 0.73603004E+02 -0.45527E+04
 0.73653000E+02 -0.46327E+04
 0.73703003E+02 -0.46640E+04
 0.73752998E+02 -0.46259E+04
 0.73803001E+02 -0.45232E+04
 0.73853004E+02 -0.44338E+04
 0.73903000E+02 -0.43727E+04
 0.73953003E+02 -0.43511E+04
 0.74002998E+02 -0.43628E+04
 0.74053001E+02 -0.43141E+04
 0.74103004E+02 -0.42505E+04
 0.74153000E+02 -0.42452E+04
 0.74203003E+02 -0.41862E+04
 0.74252998E+02 -0.39809E+04
 0.74303001E+02 -0.38322E+04
 0.74353004E+02 -0.39377E+04
 0.74403000E+02 -0.40551E+04
 0.74453003E+02 -0.41456E+04
 0.74502998E+02 -0.41726E+04
 0.74553001E+02 -0.42173E+04
 0.74603004E+02 -0.42296E+04
 0.74653000E+02 -0.41598E+04
 0.74703003E+02 -0.41765E+04
 0.74752998E+02 -0.40854E+04
 0.74803001E+02 -0.39611E+04
 0.74853004E+02 -0.39423E+04
 0.74903000E+02 -0.39886E+04
 0.74953003E+02 -0.40790E+04
 0.75002998E+02 -0.42833E+04
 0.75053001E+02 -0.45342E+04
 0.75103004E+02 -0.47101E+04
 0.75153000E+02 -0.48337E+04
 0.75203003E+02 -0.49829E+04
 0.75252998E+02 -0.49433E+04
 0.75303001E+02 -0.49486E+04
 0.75353004E+02 -0.50567E+04
 0.75403000E+02 -0.50886E+04
 0.75453003E+02 -0.50081E+04
 0.75502998E+02 -0.47826E+04
 0.75553001E+02 -0.45340E+04
 0.75603004E+02 -0.43507E+04
 0.75653000E+02 -0.43489E+04
 0.75703003E+02 -0.43034E+04
 0.75752998E+02 -0.44494E+04
 0.75803001E+02 -0.46878E+04
 0.75853004E+02 -0.47957E+04
 0.75903000E+02 -0.48132E+04
 0.75953003E+02 -0.46447E+04
 0.76002998E+02 -0.44354E+04
 0.76053001E+02 -0.41701E+04
 0.76103004E+02 -0.39364E+04
 0.76153000E+02 -0.38099E+04
 0.76203003E+02 -0.37292E+04
 0.76252998E+02 -0.37825E+04
 0.76303001E+02 -0.39313E+04
 0.76353004E+02 -0.40925E+04
 0.76403000E+02 -0.41128E+04
 0.76453003E+02 -0.40275E+04
 0.76502998E+02 -0.40810E+04
 0.76553001E+02 -0.41160E+04
 0.76603004E+02 -0.40668E+04
 0.76653000E+02 -0.41773E+04
 0.76703003E+02 -0.43417E+04
 0.76752998E+02 -0.44423E+04
 0.76803001E+02 -0.45983E+04
 0.76853004E+02 -0.47728E+04
 0.76903000E+02 -0.47950E+04
 0.76953003E+02 -0.46737E+04
 0.77002998E+02 -0.46282E+04
 0.77053001E+02 -0.45705E+04
 0.77103004E+02 -0.44789E+04
 0.77153000E+02 -0.44483E+04
 0.77203003E+02 -0.44344E+04
 0.77252998E+02 -0.44640E+04
 0.77303001E+02 -0.45041E+04
 0.77353004E+02 -0.44343E+04
 0.77403000E+02 -0.43054E+04
 0.77453003E+02 -0.42222E+04
 0.77502998E+02 -0.41890E+04
 0.77553001E+02 -0.42975E+04
 0.77603004E+02 -0.43671E+04
 0.77653000E+02 -0.43937E+04
 0.77703003E+02 -0.43231E+04
 0.77752998E+02 -0.41965E+04
 0.77803001E+02 -0.41200E+04
 0.77853004E+02 -0.39985E+04
 0.77903000E+02 -0.39982E+04
 0.77953003E+02 -0.39979E+04
 0.78002998E+02 -0.39808E+04
 0.78053001E+02 -0.39938E+04
 0.78103004E+02 -0.40184E+04
 0.78153000E+02 -0.40873E+04
 0.78203003E+02 -0.41832E+04
 0.78252998E+02 -0.43167E+04
 0.78303001E+02 -0.42497E+04
 0.78353004E+02 -0.41221E+04
 0.78403000E+02 -0.41096E+04
 0.78453003E+02 -0.40986E+04
 0.78502998E+02 -0.40615E+04
 0.78553001E+02 -0.40357E+04
 0.78603004E+02 -0.40878E+04
 0.78653000E+02 -0.42214E+04
 0.78703003E+02 -0.43821E+04
 0.78752998E+02 -0.45034E+04
 0.78803001E+02 -0.46747E+04
 0.78853004E+02 -0.47711E+04
 0.78903000E+02 -0.48069E+04
 0.78953003E+02 -0.48475E+04
 0.79002998E+02 -0.48117E+04
 0.79053001E+02 -0.46868E+04
 0.79103004E+02 -0.45996E+04
 0.79153000E+02 -0.45403E+04
 0.79203003E+02 -0.44582E+04
 0.79252998E+02 -0.43026E+04
 0.79303001E+02 -0.41672E+04
 0.79353004E+02 -0.40163E+04
 0.79403000E+02 -0.38597E+04
 0.79453003E+02 -0.38623E+04
 0.79502998E+02 -0.38966E+04
 0.79553001E+02 -0.39223E+04
 0.79603004E+02 -0.39117E+04
 0.79653000E+02 -0.39219E+04
 0.79703003E+02 -0.39260E+04
 0.79752998E+02 -0.38986E+04
 0.79803001E+02 -0.38902E+04
 0.79853004E+02 -0.38885E+04
 0.79903000E+02 -0.38897E+04
 0.79953003E+02 -0.39261E+04
 0.80002998E+02 -0.40321E+04
 0.80053001E+02 -0.42820E+04
 0.80103004E+02 -0.45043E+04
 0.80153000E+02 -0.46268E+04
 0.80203003E+02 -0.47204E+04
 0.80252998E+02 -0.48342E+04
 0.80303001E+02 -0.48853E+04
 0.80353004E+02 -0.48329E+04
 0.80403000E+02 -0.48403E+04
 0.80453003E+02 -0.47919E+04
 0.80502998E+02 -0.47432E+04
 0.80553001E+02 -0.47534E+04
 0.80603004E+02 -0.47245E+04
 0.80653000E+02 -0.46751E+04
 0.80703003E+02 -0.45859E+04
 0.80752998E+02 -0.45730E+04
 0.80803001E+02 -0.45178E+04
 0.80853004E+02 -0.43839E+04
 0.80903000E+02 -0.43158E+04
 0.80953003E+02 -0.42862E+04
 0.81002998E+02 -0.42885E+04
 0.81053001E+02 -0.43107E+04
 0.81103004E+02 -0.43616E+04
 0.81153000E+02 -0.43631E+04
 0.81203003E+02 -0.42715E+04
 0.81252998E+02 -0.42001E+04
 0.81303001E+02 -0.41763E+04
 0.81353004E+02 -0.41237E+04
 0.81403000E+02 -0.41566E+04
 0.81453003E+02 -0.43341E+04
 0.81502998E+02 -0.44352E+04
 0.81553001E+02 -0.44842E+04
 0.81603004E+02 -0.45520E+04
 0.81653000E+02 -0.45590E+04
 0.81703003E+02 -0.45476E+04
 0.81752998E+02 -0.44976E+04
 0.81803001E+02 -0.44330E+04
 0.81853004E+02 -0.43945E+04
 0.81903000E+02 -0.43397E+04
 0.81953003E+02 -0.43159E+04
 0.82002998E+02 -0.42595E+04
 0.82053001E+02 -0.41972E+04
 0.82103004E+02 -0.41972E+04
 0.82153000E+02 -0.42099E+04
 0.82203003E+02 -0.41946E+04
 0.82252998E+02 -0.41849E+04
 0.82303001E+02 -0.42389E+04
 0.82353004E+02 -0.42598E+04
 0.82403000E+02 -0.43284E+04
 0.82453003E+02 -0.43811E+04
 0.82502998E+02 -0.43728E+04
 0.82553001E+02 -0.43679E+04
 0.82603004E+02 -0.43456E+04
 0.82653000E+02 -0.43328E+04
 0.82703003E+02 -0.43624E+04
 0.82752998E+02 -0.43113E+04
 0.82803001E+02 -0.42939E+04
 0.82853004E+02 -0.42969E+04
 0.82903000E+02 -0.42946E+04
 0.82953003E+02 -0.44164E+04
 0.83002998E+02 -0.44994E+04
 0.83053001E+02 -0.45317E+04
 0.83103004E+02 -0.44625E+04
 0.83153000E+02 -0.44306E+04
 0.83203003E+02 -0.43731E+04
 0.83252998E+02 -0.42388E+04
 0.83303001E+02 -0.41827E+04
 0.83353004E+02 -0.41457E+04
 0.83403000E+02 -0.40798E+04
 0.83453003E+02 -0.40372E+04
 0.83502998E+02 -0.40857E+04
 0.83553001E+02 -0.41913E+04
 0.83603004E+02 -0.42866E+04
 0.83653000E+02 -0.43592E+04
 0.83703003E+02 -0.44455E+04
 0.83752998E+02 -0.44909E+04
 0.83803001E+02 -0.44490E+04
 0.83853004E+02 -0.44291E+04
 0.83903000E+02 -0.44141E+04
 0.83953003E+02 -0.44006E+04
 0.84002998E+02 -0.44304E+04
 0.84053001E+02 -0.44197E+04
 0.84103004E+02 -0.44093E+04
 0.84153000E+02 -0.43476E+04
 0.84203003E+02 -0.42369E+04
 0.84252998E+02 -0.41560E+04
 0.84303001E+02 -0.41431E+04
 0.84353004E+02 -0.41756E+04
 0.84403000E+02 -0.42251E+04
 0.84453003E+02 -0.43081E+04
 0.84502998E+02 -0.43408E+04
 0.84553001E+02 -0.43500E+04
 0.84603004E+02 -0.43974E+04
 0.84653000E+02 -0.43373E+04
 0.84703003E+02 -0.42321E+04
 0.84752998E+02 -0.41292E+04
 0.84803001E+02 -0.40205E+04
 0.84853004E+02 -0.40438E+04
 0.84903000E+02 -0.40832E+04
 0.84953003E+02 -0.41503E+04
 0.85002998E+02 -0.41450E+04
 0.85053001E+02 -0.41130E+04
 0.85103004E+02 -0.41663E+04
 0.85153000E+02 -0.41527E+04
 0.85203003E+02 -0.41518E+04
 0.85252998E+02 -0.42335E+04
 0.85303001E+02 -0.43298E+04
 0.85353004E+02 -0.43371E+04
 0.85403000E+02 -0.43569E+04
 0.85453003E+02 -0.44312E+04
 0.85502998E+02 -0.44598E+04
 0.85553001E+02 -0.44883E+04
 0.85603004E+02 -0.45675E+04
 0.85653000E+02 -0.46317E+04
 0.85703003E+02 -0.45481E+04
 0.85752998E+02 -0.43798E+04
 0.85803001E+02 -0.41887E+04
 0.85853004E+02 -0.40554E+04
 0.85903000E+02 -0.40276E+04
 0.85953003E+02 -0.40284E+04
 0.86002998E+02 -0.40988E+04
 0.86053001E+02 -0.42021E+04
 0.86103004E+02 -0.42832E+04
 0.86153000E+02 -0.43613E+04
 0.86203003E+02 -0.44542E+04
 0.86252998E+02 -0.44963E+04
 0.86303001E+02 -0.45676E+04
 0.86353004E+02 -0.46206E+04
 0.86403000E+02 -0.45303E+04
 0.86453003E+02 -0.44360E+04
 0.86502998E+02 -0.43821E+04
 0.86553001E+02 -0.42727E+04
 0.86603004E+02 -0.41664E+04
 0.86653000E+02 -0.41639E+04
 0.86703003E+02 -0.41753E+04
 0.86752998E+02 -0.41376E+04
 0.86803001E+02 -0.41144E+04
 0.86853004E+02 -0.41326E+04
 0.86903000E+02 -0.41286E+04
 0.86953003E+02 -0.41827E+04
 0.87002998E+02 -0.42997E+04
 0.87053001E+02 -0.43632E+04
 0.87103004E+02 -0.43681E+04
 0.87153000E+02 -0.43763E+04
 0.87203003E+02 -0.44414E+04
 0.87252998E+02 -0.45238E+04
 0.87303001E+02 -0.45759E+04
 0.87353004E+02 -0.46512E+04
 0.87403000E+02 -0.46877E+04
 0.87453003E+02 -0.46432E+04
 0.87502998E+02 -0.45419E+04
 0.87553001E+02 -0.44429E+04
 0.87602997E+02 -0.43683E+04
 0.87653000E+02 -0.42592E+04
 0.87703003E+02 -0.42429E+04
 0.87752998E+02 -0.43330E+04
 0.87803001E+02 -0.43660E+04
 0.87852997E+02 -0.43230E+04
 0.87903000E+02 -0.43303E+04
 0.87953003E+02 -0.43156E+04
 0.88002998E+02 -0.42426E+04
 0.88053001E+02 -0.42620E+04
 0.88102997E+02 -0.43074E+04
 0.88153000E+02 -0.43045E+04
 0.88203003E+02 -0.42772E+04
 0.88252998E+02 -0.42616E+04
 0.88303001E+02 -0.42572E+04
 0.88352997E+02 -0.41727E+04
 0.88403000E+02 -0.40788E+04
 0.88453003E+02 -0.40775E+04
 0.88502998E+02 -0.41011E+04
 0.88553001E+02 -0.40804E+04
 0.88602997E+02 -0.40744E+04
 0.88653000E+02 -0.41152E+04
 0.88703003E+02 -0.41378E+04
 0.88752998E+02 -0.41311E+04
 0.88803001E+02 -0.41593E+04
 0.88852997E+02 -0.42187E+04
 0.88903000E+02 -0.42693E+04
 0.88953003E+02 -0.42785E+04
 0.89002998E+02 -0.43069E+04
 0.89053001E+02 -0.43772E+04
 0.89102997E+02 -0.44203E+04
 0.89153000E+02 -0.44376E+04
 0.89203003E+02 -0.44709E+04
 0.89252998E+02 -0.45207E+04
 0.89303001E+02 -0.45712E+04
 0.89352997E+02 -0.46046E+04
 0.89403000E+02 -0.45898E+04
 0.89453003E+02 -0.45794E+04
 0.89502998E+02 -0.45377E+04
 0.89553001E+02 -0.44701E+04
 0.89602997E+02 -0.44207E+04
 0.89653000E+02 -0.43869E+04
 0.89703003E+02 -0.43783E+04
 0.89752998E+02 -0.43628E+04
 0.89803001E+02 -0.43629E+04
 0.89852997E+02 -0.44018E+04
 0.89903000E+02 -0.44744E+04
 0.89953003E+02 -0.44890E+04
 0.90002998E+02 -0.45261E+04
 0.90053001E+02 -0.46295E+04
 0.90102997E+02 -0.46686E+04
 0.90153000E+02 -0.46694E+04
 0.90203003E+02 -0.46656E+04
 0.90252998E+02 -0.45867E+04
 0.90303001E+02 -0.44570E+04
 0.90352997E+02 -0.43723E+04
 0.90403000E+02 -0.42824E+04
 0.90453003E+02 -0.41822E+04
 0.90502998E+02 -0.41257E+04
 0.90553001E+02 -0.41182E+04
 0.90602997E+02 -0.41612E+04
 0.90653000E+02 -0.42010E+04
 0.90703003E+02 -0.42019E+04
 0.90752998E+02 -0.42177E+04
 0.90803001E+02 -0.42525E+04
 0.90852997E+02 -0.42430E+04
 0.90903000E+02 -0.42183E+04
 0.90953003E+02 -0.42243E+04
 0.91002998E+02 -0.42323E+04
 0.91053001E+02 -0.42410E+04
 0.91102997E+02 -0.42185E+04
 0.91153000E+02 -0.42197E+04
 0.91203003E+02 -0.42648E+04
 0.91252998E+02 -0.43582E+04
 0.91303001E+02 -0.44322E+04
 0.91352997E+02 -0.44517E+04
 0.91403000E+02 -0.44849E+04
 0.91453003E+02 -0.44544E+04
 0.91502998E+02 -0.43702E+04
 0.91553001E+02 -0.42930E+04
 0.91602997E+02 -0.42284E+04
 0.91653000E+02 -0.41784E+04
 0.91703003E+02 -0.41288E+04
 0.91752998E+02 -0.41284E+04
 0.91803001E+02 -0.41479E+04
 0.91852997E+02 -0.41614E+04
 0.91903000E+02 -0.41498E+04
 0.91953003E+02 -0.40825E+04
 0.92002998E+02 -0.40439E+04
 0.92053001E+02 -0.40329E+04
 0.92102997E+02 -0.40444E+04
 0.92153000E+02 -0.40800E+04
 0.92203003E+02 -0.41923E+04
 0.92252998E+02 -0.42825E+04
 0.92303001E+02 -0.43221E+04
 0.92352997E+02 -0.43630E+04
 0.92403000E+02 -0.44176E+04
 0.92453003E+02 -0.44856E+04
 0.92502998E+02 -0.44904E+04
 0.92553001E+02 -0.45263E+04
 0.92602997E+02 -0.45590E+04
 0.92653000E+02 -0.46206E+04
 0.92703003E+02 -0.46927E+04
 0.92752998E+02 -0.47378E+04
 0.92803001E+02 -0.47899E+04
 0.92852997E+02 -0.47735E+04
 0.92903000E+02 -0.47343E+04
 0.92953003E+02 -0.46744E+04
 0.93002998E+02 -0.45636E+04
 0.93053001E+02 -0.44255E+04
 0.93102997E+02 -0.43355E+04
 0.93153000E+02 -0.42676E+04
 0.93203003E+02 -0.41898E+04
 0.93252998E+02 -0.41401E+04
 0.93303001E+02 -0.40919E+04
 0.93352997E+02 -0.40355E+04
 0.93403000E+02 -0.39692E+04
 0.93453003E+02 -0.39392E+04
 0.93502998E+02 -0.39869E+04
 0.93553001E+02 -0.40629E+04
 0.93602997E+02 -0.41356E+04
 0.93653000E+02 -0.42553E+04
 0.93703003E+02 -0.43606E+04
 0.93752998E+02 -0.44008E+04
 0.93803001E+02 -0.44352E+04
 0.93852997E+02 -0.44330E+04
 0.93903000E+02 -0.44076E+04
 0.93953003E+02 -0.43989E+04
 0.94002998E+02 -0.43889E+04
 0.94053001E+02 -0.43674E+04
 0.94102997E+02 -0.43722E+04
 0.94153000E+02 -0.43997E+04
 0.94203003E+02 -0.44301E+04
 0.94252998E+02 -0.44533E+04
 0.94303001E+02 -0.44678E+04
 0.94352997E+02 -0.44613E+04
 0.94403000E+02 -0.44174E+04
 0.94453003E+02 -0.43651E+04
 0.94502998E+02 -0.43344E+04
 0.94553001E+02 -0.43186E+04
 0.94602997E+02 -0.43065E+04
 0.94653000E+02 -0.43326E+04
 0.94703003E+02 -0.43457E+04
 0.94752998E+02 -0.43243E+04
 0.94803001E+02 -0.42926E+04
 0.94852997E+02 -0.42731E+04
 0.94903000E+02 -0.42259E+04
 0.94953003E+02 -0.41901E+04
 0.95002998E+02 -0.41970E+04
 0.95053001E+02 -0.42184E+04
 0.95102997E+02 -0.42478E+04
 0.95153000E+02 -0.42567E+04
 0.95203003E+02 -0.42516E+04
 0.95252998E+02 -0.42768E+04
 0.95303001E+02 -0.43080E+04
 0.95352997E+02 -0.42897E+04
 0.95403000E+02 -0.42819E+04
 0.95453003E+02 -0.42686E+04
 0.95502998E+02 -0.42621E+04
 0.95553001E+02 -0.42488E+04
 0.95602997E+02 -0.42004E+04
 0.95653000E+02 -0.41923E+04
 0.95703003E+02 -0.42035E+04
 0.95752998E+02 -0.42017E+04
 0.95803001E+02 -0.42426E+04
 0.95852997E+02 -0.43099E+04
 0.95903000E+02 -0.43865E+04
 0.95953003E+02 -0.44525E+04
 0.96002998E+02 -0.44489E+04
 0.96053001E+02 -0.44251E+04
 0.96102997E+02 -0.44346E+04
 0.96153000E+02 -0.44219E+04
 0.96203003E+02 -0.44184E+04
 0.96252998E+02 -0.44527E+04
 0.96303001E+02 -0.44642E+04
 0.96352997E+02 -0.44419E+04
 0.96403000E+02 -0.43730E+04
 0.96453003E+02 -0.42843E+04
 0.96502998E+02 -0.42396E+04
 0.96553001E+02 -0.42846E+04
 0.96602997E+02 -0.43446E+04
 0.96653000E+02 -0.43578E+04
 0.96703003E+02 -0.43692E+04
 0.96752998E+02 -0.43493E+04
 0.96803001E+02 -0.43362E+04
 0.96852997E+02 -0.43156E+04
 0.96903000E+02 -0.42888E+04
 0.96953003E+02 -0.42499E+04
 0.97002998E+02 -0.42561E+04
 0.97053001E+02 -0.43237E+04
 0.97102997E+02 -0.43517E+04
 0.97153000E+02 -0.43666E+04
 0.97203003E+02 -0.43726E+04
 0.97252998E+02 -0.44180E+04
 0.97303001E+02 -0.44058E+04
 0.97352997E+02 -0.43880E+04
 0.97403000E+02 -0.43849E+04
 0.97453003E+02 -0.43412E+04
 0.97502998E+02 -0.43104E+04
 0.97553001E+02 -0.42797E+04
 0.97602997E+02 -0.42783E+04
 0.97653000E+02 -0.42580E+04
 0.97703003E+02 -0.42379E+04
 0.97752998E+02 -0.42081E+04
 0.97803001E+02 -0.41448E+04
 0.97852997E+02 -0.40714E+04
 0.97903000E+02 -0.40188E+04
 0.97953003E+02 -0.40476E+04
 0.98002998E+02 -0.41045E+04
