-0.20000000E+01  0.51940E+04
-0.19500000E+01  0.51916E+04
-0.19000000E+01  0.52115E+04
-0.18500000E+01  0.51970E+04
-0.18000000E+01  0.51846E+04
-0.17500000E+01  0.51965E+04
-0.17000000E+01  0.51625E+04
-0.16500001E+01  0.51518E+04
-0.16000000E+01  0.51893E+04
-0.15500000E+01  0.52173E+04
-0.15000000E+01  0.52269E+04
-0.14500000E+01  0.51810E+04
-0.14000001E+01  0.51617E+04
-0.13500000E+01  0.51514E+04
-0.13000001E+01  0.51463E+04
-0.12500000E+01  0.51667E+04
-0.12000000E+01  0.51213E+04
-0.11500001E+01  0.50857E+04
-0.11000000E+01  0.50747E+04
-0.10500001E+01  0.50616E+04
-0.10000000E+01  0.50635E+04
-0.95000005E+00  0.50501E+04
-0.90000010E+00  0.50423E+04
-0.85000002E+00  0.50545E+04
-0.80000007E+00  0.50483E+04
-0.75000012E+00  0.50511E+04
-0.70000005E+00  0.50686E+04
-0.65000010E+00  0.50747E+04
-0.60000014E+00  0.50687E+04
-0.55000007E+00  0.50312E+04
-0.50000012E+00  0.50578E+04
-0.45000005E+00  0.50741E+04
-0.40000010E+00  0.50800E+04
-0.35000014E+00  0.50901E+04
-0.30000007E+00  0.50720E+04
-0.25000012E+00  0.50866E+04
-0.20000005E+00  0.50996E+04
-0.15000010E+00  0.51463E+04
-0.10000014E+00  0.51683E+04
-0.50000072E-01  0.51529E+04
-0.11920929E-06  0.51517E+04
 0.49999952E-01  0.52097E+04
 0.99999905E-01  0.52377E+04
 0.14999986E+00  0.52069E+04
 0.19999981E+00  0.51927E+04
 0.24999976E+00  0.52202E+04
 0.29999995E+00  0.52733E+04
 0.34999990E+00  0.52713E+04
 0.39999986E+00  0.52536E+04
 0.44999981E+00  0.52330E+04
 0.49999976E+00  0.52433E+04
 0.54999995E+00  0.52185E+04
 0.59999990E+00  0.51968E+04
 0.64999986E+00  0.52263E+04
 0.69999981E+00  0.52276E+04
 0.74999976E+00  0.51702E+04
 0.79999971E+00  0.51300E+04
 0.84999990E+00  0.51245E+04
 0.89999986E+00  0.50774E+04
 0.94999981E+00  0.50717E+04
 0.99999976E+00  0.50989E+04
 0.10499997E+01  0.51154E+04
 0.10999999E+01  0.50898E+04
 0.11499999E+01  0.50519E+04
 0.11999998E+01  0.50799E+04
 0.12499998E+01  0.50868E+04
 0.12999997E+01  0.50658E+04
 0.13499999E+01  0.50857E+04
 0.13999999E+01  0.50832E+04
 0.14499998E+01  0.50830E+04
 0.14999998E+01  0.50987E+04
 0.15499997E+01  0.50995E+04
 0.15999999E+01  0.51181E+04
 0.16499999E+01  0.51350E+04
 0.16999998E+01  0.51259E+04
 0.17499998E+01  0.51462E+04
 0.17999997E+01  0.51714E+04
 0.18499997E+01  0.51881E+04
 0.18999999E+01  0.52004E+04
 0.19499998E+01  0.51747E+04
 0.19999998E+01  0.51634E+04
 0.20499997E+01  0.51601E+04
 0.20999999E+01  0.51810E+04
 0.21499996E+01  0.52025E+04
 0.21999998E+01  0.51822E+04
 0.22499995E+01  0.51481E+04
 0.22999997E+01  0.51185E+04
 0.23499999E+01  0.51073E+04
 0.23999996E+01  0.50750E+04
 0.24499998E+01  0.50245E+04
 0.24999995E+01  0.50581E+04
 0.25499997E+01  0.50941E+04
 0.25999999E+01  0.50753E+04
 0.26499996E+01  0.50900E+04
 0.26999998E+01  0.50818E+04
 0.27499995E+01  0.50726E+04
 0.27999997E+01  0.50949E+04
 0.28499999E+01  0.51320E+04
 0.28999996E+01  0.51394E+04
 0.29499998E+01  0.51078E+04
 0.29999995E+01  0.50977E+04
 0.30499997E+01  0.51405E+04
 0.30999999E+01  0.51455E+04
 0.31499996E+01  0.51156E+04
 0.31999998E+01  0.51308E+04
 0.32499995E+01  0.51619E+04
 0.32999997E+01  0.51792E+04
 0.33499999E+01  0.51583E+04
 0.33999996E+01  0.51760E+04
 0.34499998E+01  0.51799E+04
 0.34999995E+01  0.51578E+04
 0.35499997E+01  0.51540E+04
 0.35999994E+01  0.51411E+04
 0.36499996E+01  0.51339E+04
 0.36999998E+01  0.51444E+04
 0.37499995E+01  0.51684E+04
 0.37999997E+01  0.51524E+04
 0.38499994E+01  0.51380E+04
 0.38999996E+01  0.51155E+04
 0.39499998E+01  0.50942E+04
 0.39999995E+01  0.51176E+04
 0.40499997E+01  0.51121E+04
 0.40999994E+01  0.51154E+04
 0.41499996E+01  0.51102E+04
 0.41999998E+01  0.51016E+04
 0.42499995E+01  0.50856E+04
 0.42999997E+01  0.50925E+04
 0.43499994E+01  0.51404E+04
 0.43999996E+01  0.51447E+04
 0.44499998E+01  0.51228E+04
 0.44999995E+01  0.51140E+04
 0.45499997E+01  0.51138E+04
 0.45999994E+01  0.51175E+04
 0.46499996E+01  0.51212E+04
 0.46999998E+01  0.50938E+04
 0.47499995E+01  0.51095E+04
 0.47999997E+01  0.51656E+04
 0.48499994E+01  0.52043E+04
 0.48999996E+01  0.52259E+04
 0.49499998E+01  0.52118E+04
 0.49999995E+01  0.51915E+04
 0.50499997E+01  0.51773E+04
 0.50999994E+01  0.51612E+04
 0.51499996E+01  0.51518E+04
 0.51999998E+01  0.51502E+04
 0.52499995E+01  0.51538E+04
 0.52999997E+01  0.51759E+04
 0.53499994E+01  0.51679E+04
 0.53999996E+01  0.51384E+04
 0.54499993E+01  0.51610E+04
 0.54999995E+01  0.51727E+04
 0.55499997E+01  0.51782E+04
 0.55999994E+01  0.51643E+04
 0.56499996E+01  0.51593E+04
 0.56999993E+01  0.51747E+04
 0.57499995E+01  0.51559E+04
 0.57999997E+01  0.51760E+04
 0.58499994E+01  0.51671E+04
 0.58999996E+01  0.51349E+04
 0.59499993E+01  0.51139E+04
 0.59999995E+01  0.51005E+04
 0.60499992E+01  0.51161E+04
 0.60999994E+01  0.51023E+04
 0.61499996E+01  0.50797E+04
 0.61999998E+01  0.50567E+04
 0.62499990E+01  0.50676E+04
 0.62999992E+01  0.50983E+04
 0.63499994E+01  0.51059E+04
 0.63999996E+01  0.51157E+04
 0.64499998E+01  0.51025E+04
 0.64999990E+01  0.50958E+04
 0.65499992E+01  0.51270E+04
 0.65999994E+01  0.51592E+04
 0.66499996E+01  0.51462E+04
 0.66999998E+01  0.51400E+04
 0.67499990E+01  0.51547E+04
 0.67999992E+01  0.51638E+04
 0.68499994E+01  0.51619E+04
 0.68999996E+01  0.51529E+04
 0.69499998E+01  0.51401E+04
 0.69999990E+01  0.50897E+04
 0.70499992E+01  0.50660E+04
 0.70999994E+01  0.50688E+04
 0.71499996E+01  0.50835E+04
 0.71999998E+01  0.50970E+04
 0.72499990E+01  0.50762E+04
 0.72999992E+01  0.50803E+04
 0.73499994E+01  0.50794E+04
 0.73999996E+01  0.50781E+04
 0.74499998E+01  0.51096E+04
 0.74999990E+01  0.51288E+04
 0.75499992E+01  0.51403E+04
 0.75999994E+01  0.51137E+04
 0.76499996E+01  0.51289E+04
 0.76999998E+01  0.51829E+04
 0.77499990E+01  0.52055E+04
 0.77999992E+01  0.52165E+04
 0.78499994E+01  0.51726E+04
 0.78999996E+01  0.51408E+04
 0.79499998E+01  0.51422E+04
 0.79999990E+01  0.51742E+04
 0.80499992E+01  0.52076E+04
 0.80999994E+01  0.51679E+04
 0.81499996E+01  0.51798E+04
 0.81999998E+01  0.52023E+04
 0.82499990E+01  0.51924E+04
 0.82999992E+01  0.51897E+04
 0.83499994E+01  0.51644E+04
 0.83999996E+01  0.51416E+04
 0.84499998E+01  0.51370E+04
 0.84999990E+01  0.51408E+04
 0.85499992E+01  0.51372E+04
 0.85999994E+01  0.51226E+04
 0.86499996E+01  0.51147E+04
 0.86999998E+01  0.51045E+04
 0.87499990E+01  0.50749E+04
 0.87999992E+01  0.50776E+04
 0.88499994E+01  0.50887E+04
 0.88999996E+01  0.50998E+04
 0.89499998E+01  0.50971E+04
 0.89999990E+01  0.50607E+04
 0.90499992E+01  0.50724E+04
 0.90999994E+01  0.51055E+04
 0.91499996E+01  0.51116E+04
 0.91999989E+01  0.51156E+04
 0.92499990E+01  0.51063E+04
 0.92999992E+01  0.50878E+04
 0.93499994E+01  0.50776E+04
 0.93999996E+01  0.51020E+04
 0.94499989E+01  0.51156E+04
 0.94999990E+01  0.51099E+04
 0.95499992E+01  0.51078E+04
 0.95999994E+01  0.51374E+04
 0.96499996E+01  0.51376E+04
 0.96999989E+01  0.51364E+04
 0.97499990E+01  0.51702E+04
 0.97999992E+01  0.51861E+04
 0.98499994E+01  0.51899E+04
 0.98999996E+01  0.51669E+04
 0.99499989E+01  0.51728E+04
 0.99999990E+01  0.51766E+04
 0.10049999E+02  0.51770E+04
 0.10099999E+02  0.51813E+04
 0.10150000E+02  0.51889E+04
 0.10199999E+02  0.51870E+04
 0.10249999E+02  0.51909E+04
 0.10299999E+02  0.52103E+04
 0.10349999E+02  0.51720E+04
 0.10400000E+02  0.51372E+04
 0.10449999E+02  0.51447E+04
 0.10499999E+02  0.51293E+04
 0.10549999E+02  0.51156E+04
 0.10599999E+02  0.51187E+04
 0.10650000E+02  0.51147E+04
 0.10699999E+02  0.51188E+04
 0.10749999E+02  0.51033E+04
 0.10799999E+02  0.50837E+04
 0.10849999E+02  0.50891E+04
 0.10900000E+02  0.50787E+04
 0.10949999E+02  0.50657E+04
 0.10999999E+02  0.50601E+04
 0.11049999E+02  0.50789E+04
 0.11099999E+02  0.50833E+04
 0.11150000E+02  0.50632E+04
 0.11199999E+02  0.50935E+04
 0.11249999E+02  0.51017E+04
 0.11299999E+02  0.50914E+04
 0.11349999E+02  0.51027E+04
 0.11400000E+02  0.51375E+04
 0.11449999E+02  0.51768E+04
 0.11499999E+02  0.51813E+04
 0.11549999E+02  0.51885E+04
 0.11599999E+02  0.51934E+04
 0.11650000E+02  0.51760E+04
 0.11699999E+02  0.51404E+04
 0.11749999E+02  0.51487E+04
 0.11799999E+02  0.51820E+04
 0.11849999E+02  0.51992E+04
 0.11900000E+02  0.52300E+04
 0.11949999E+02  0.52073E+04
 0.11999999E+02  0.51953E+04
 0.12049999E+02  0.51854E+04
 0.12099999E+02  0.51699E+04
 0.12150000E+02  0.51725E+04
 0.12199999E+02  0.51692E+04
 0.12249999E+02  0.51673E+04
 0.12299999E+02  0.51494E+04
 0.12349999E+02  0.51399E+04
 0.12400000E+02  0.51063E+04
 0.12449999E+02  0.50801E+04
 0.12499999E+02  0.50870E+04
 0.12549999E+02  0.50945E+04
 0.12599999E+02  0.50841E+04
 0.12649999E+02  0.50721E+04
 0.12699999E+02  0.50690E+04
 0.12749999E+02  0.50887E+04
 0.12799999E+02  0.50989E+04
 0.12849999E+02  0.50901E+04
 0.12899999E+02  0.50974E+04
 0.12949999E+02  0.50942E+04
 0.12999999E+02  0.51039E+04
 0.13049999E+02  0.51174E+04
 0.13099999E+02  0.51274E+04
 0.13149999E+02  0.51376E+04
 0.13199999E+02  0.51201E+04
 0.13249999E+02  0.51281E+04
 0.13299999E+02  0.51762E+04
 0.13349999E+02  0.51851E+04
 0.13399999E+02  0.51587E+04
 0.13449999E+02  0.51349E+04
 0.13499999E+02  0.51322E+04
 0.13549999E+02  0.51409E+04
 0.13599999E+02  0.51343E+04
 0.13649999E+02  0.51547E+04
 0.13699999E+02  0.51698E+04
 0.13749999E+02  0.51449E+04
 0.13799999E+02  0.50946E+04
 0.13849999E+02  0.50725E+04
 0.13899999E+02  0.50843E+04
 0.13949999E+02  0.50890E+04
 0.13999999E+02  0.51004E+04
 0.14049999E+02  0.51206E+04
 0.14099998E+02  0.51346E+04
 0.14150000E+02  0.51506E+04
 0.14199999E+02  0.51625E+04
 0.14249998E+02  0.51538E+04
 0.14299999E+02  0.51423E+04
 0.14349998E+02  0.51126E+04
 0.14400000E+02  0.51211E+04
 0.14449999E+02  0.51362E+04
 0.14499998E+02  0.51462E+04
 0.14549999E+02  0.51243E+04
 0.14599998E+02  0.51154E+04
 0.14650000E+02  0.51388E+04
 0.14699999E+02  0.50973E+04
 0.14749998E+02  0.51171E+04
 0.14799999E+02  0.51522E+04
 0.14849998E+02  0.51420E+04
 0.14900000E+02  0.51211E+04
 0.14949999E+02  0.50960E+04
 0.14999998E+02  0.50899E+04
 0.15049999E+02  0.50826E+04
 0.15099998E+02  0.50696E+04
 0.15150000E+02  0.50877E+04
 0.15199999E+02  0.51088E+04
 0.15249998E+02  0.51064E+04
 0.15299999E+02  0.51020E+04
 0.15349998E+02  0.51152E+04
 0.15400000E+02  0.51200E+04
 0.15449999E+02  0.50884E+04
 0.15499998E+02  0.51277E+04
 0.15549999E+02  0.51844E+04
 0.15599998E+02  0.52035E+04
 0.15650000E+02  0.52172E+04
 0.15699999E+02  0.52174E+04
 0.15749998E+02  0.52203E+04
 0.15799999E+02  0.51861E+04
 0.15849998E+02  0.51653E+04
 0.15900000E+02  0.51896E+04
 0.15949999E+02  0.51789E+04
 0.15999998E+02  0.51622E+04
 0.16049999E+02  0.51544E+04
 0.16099998E+02  0.51363E+04
 0.16150000E+02  0.51150E+04
 0.16199999E+02  0.51069E+04
 0.16249998E+02  0.51231E+04
 0.16299999E+02  0.51352E+04
 0.16349998E+02  0.51326E+04
 0.16400000E+02  0.51286E+04
 0.16449999E+02  0.51255E+04
 0.16499998E+02  0.51143E+04
 0.16549999E+02  0.50867E+04
 0.16599998E+02  0.50781E+04
 0.16650000E+02  0.50958E+04
 0.16699999E+02  0.51029E+04
 0.16749998E+02  0.51065E+04
 0.16799999E+02  0.51175E+04
 0.16849998E+02  0.51320E+04
 0.16900000E+02  0.51236E+04
 0.16949999E+02  0.50997E+04
 0.16999998E+02  0.51274E+04
 0.17049999E+02  0.51656E+04
 0.17099998E+02  0.51408E+04
 0.17150000E+02  0.51232E+04
 0.17199999E+02  0.51025E+04
 0.17249998E+02  0.50982E+04
 0.17299999E+02  0.51002E+04
 0.17349998E+02  0.50718E+04
 0.17400000E+02  0.50847E+04
 0.17449999E+02  0.50948E+04
 0.17499998E+02  0.51028E+04
 0.17549999E+02  0.51123E+04
 0.17599998E+02  0.51097E+04
 0.17650000E+02  0.51244E+04
 0.17699999E+02  0.51422E+04
 0.17749998E+02  0.51593E+04
 0.17799999E+02  0.51495E+04
 0.17849998E+02  0.51466E+04
 0.17900000E+02  0.51519E+04
 0.17949999E+02  0.51603E+04
 0.17999998E+02  0.51970E+04
 0.18049999E+02  0.52077E+04
 0.18099998E+02  0.51990E+04
 0.18150000E+02  0.51960E+04
 0.18199999E+02  0.51791E+04
 0.18249998E+02  0.51593E+04
 0.18299999E+02  0.51412E+04
 0.18349998E+02  0.51459E+04
 0.18400000E+02  0.51534E+04
 0.18449999E+02  0.51619E+04
 0.18499998E+02  0.51814E+04
 0.18549999E+02  0.51581E+04
 0.18599998E+02  0.51397E+04
 0.18650000E+02  0.51380E+04
 0.18699999E+02  0.51336E+04
 0.18749998E+02  0.51326E+04
 0.18799999E+02  0.51284E+04
 0.18849998E+02  0.51305E+04
 0.18900000E+02  0.51435E+04
 0.18949999E+02  0.51242E+04
 0.18999998E+02  0.51077E+04
 0.19049999E+02  0.50946E+04
 0.19099998E+02  0.50845E+04
 0.19150000E+02  0.50820E+04
 0.19199999E+02  0.50926E+04
 0.19249998E+02  0.51393E+04
 0.19299999E+02  0.51388E+04
 0.19349998E+02  0.51194E+04
 0.19400000E+02  0.51042E+04
 0.19449999E+02  0.51246E+04
 0.19499998E+02  0.51284E+04
 0.19549999E+02  0.51127E+04
 0.19599998E+02  0.51180E+04
 0.19650000E+02  0.51192E+04
 0.19699999E+02  0.51204E+04
 0.19749998E+02  0.51179E+04
 0.19799999E+02  0.51241E+04
 0.19849998E+02  0.51250E+04
 0.19900000E+02  0.51056E+04
 0.19949999E+02  0.50729E+04
 0.19999998E+02  0.50912E+04
 0.20049999E+02  0.51193E+04
 0.20099998E+02  0.51490E+04
 0.20150000E+02  0.51681E+04
 0.20199999E+02  0.51685E+04
 0.20249998E+02  0.51772E+04
 0.20299999E+02  0.51349E+04
 0.20349998E+02  0.51416E+04
 0.20399998E+02  0.51837E+04
 0.20449999E+02  0.51720E+04
 0.20499998E+02  0.51439E+04
 0.20549999E+02  0.51096E+04
 0.20599998E+02  0.50870E+04
 0.20649998E+02  0.51185E+04
 0.20699999E+02  0.51377E+04
 0.20749998E+02  0.51278E+04
 0.20799999E+02  0.51341E+04
 0.20849998E+02  0.50935E+04
 0.20899998E+02  0.52216E+04
 0.20949999E+02  0.49611E+04
 0.20999998E+02  0.50017E+04
 0.21049999E+02  0.50965E+04
 0.21099998E+02  0.49868E+04
 0.21149998E+02  0.51370E+04
 0.21199999E+02  0.50190E+04
 0.21249998E+02  0.50199E+04
 0.21299999E+02  0.49942E+04
 0.21349998E+02  0.50167E+04
 0.21399998E+02  0.50764E+04
 0.21449999E+02  0.51639E+04
 0.21499998E+02  0.50290E+04
 0.21549999E+02  0.51413E+04
 0.21599998E+02  0.54358E+04
 0.21649998E+02  0.53065E+04
 0.21699999E+02  0.50822E+04
 0.21749998E+02  0.52166E+04
 0.21799999E+02  0.53654E+04
 0.21849998E+02  0.53338E+04
 0.21899998E+02  0.52115E+04
 0.21949999E+02  0.50849E+04
 0.21999998E+02  0.50740E+04
 0.22049999E+02  0.50732E+04
 0.22099998E+02  0.51173E+04
 0.22149998E+02  0.50911E+04
 0.22199999E+02  0.53445E+04
 0.22249998E+02  0.50291E+04
 0.22299999E+02  0.50592E+04
 0.22349998E+02  0.51825E+04
 0.22399998E+02  0.50020E+04
 0.22449999E+02  0.51971E+04
 0.22499998E+02  0.50808E+04
 0.22549999E+02  0.52390E+04
 0.22599998E+02  0.52745E+04
 0.22649998E+02  0.51964E+04
 0.22699999E+02  0.51611E+04
 0.22749998E+02  0.52026E+04
 0.22799999E+02  0.50761E+04
 0.22849998E+02  0.51415E+04
 0.22899998E+02  0.51151E+04
 0.22949999E+02  0.50848E+04
 0.22999998E+02  0.50334E+04
 0.23049999E+02  0.53036E+04
 0.23099998E+02  0.51300E+04
 0.23149998E+02  0.51402E+04
 0.23199999E+02  0.52760E+04
 0.23249998E+02  0.48729E+04
 0.23299999E+02  0.53681E+04
 0.23349998E+02  0.52452E+04
 0.23399998E+02  0.50311E+04
 0.23449999E+02  0.51417E+04
 0.23499998E+02  0.52405E+04
 0.23549999E+02  0.48830E+04
 0.23599998E+02  0.50574E+04
 0.23649998E+02  0.53449E+04
 0.23699999E+02  0.49555E+04
 0.23749998E+02  0.49012E+04
 0.23799999E+02  0.46938E+04
 0.23849998E+02  0.53525E+04
 0.23899998E+02  0.51945E+04
 0.23949999E+02  0.50643E+04
 0.23999998E+02  0.52418E+04
 0.24049999E+02  0.49364E+04
 0.24099998E+02  0.54400E+04
 0.24149998E+02  0.52931E+04
 0.24199999E+02  0.55689E+04
 0.24249998E+02  0.52804E+04
 0.24299999E+02  0.47864E+04
 0.24349998E+02  0.51160E+04
 0.24399998E+02  0.53888E+04
 0.24449999E+02  0.46562E+04
 0.24499998E+02  0.47364E+04
 0.24549999E+02  0.51515E+04
 0.24599998E+02  0.50482E+04
 0.24649998E+02  0.52718E+04
 0.24699999E+02  0.51902E+04
 0.24749998E+02  0.57250E+04
 0.24799999E+02  0.50153E+04
 0.24849998E+02  0.51668E+04
 0.24899998E+02  0.54766E+04
 0.24949999E+02  0.55227E+04
 0.24999998E+02  0.52084E+04
 0.25049999E+02  0.45293E+04
 0.25099998E+02  0.49415E+04
 0.25149998E+02  0.53776E+04
 0.25199999E+02  0.59061E+04
 0.25249998E+02  0.50367E+04
 0.25299999E+02  0.46887E+04
 0.25349998E+02  0.49672E+04
 0.25399998E+02  0.58577E+04
 0.25449999E+02  0.52761E+04
 0.25499998E+02  0.40758E+04
 0.25549999E+02  0.45716E+04
 0.25599998E+02  0.53644E+04
 0.25649998E+02  0.51498E+04
 0.25699999E+02  0.45925E+04
 0.25749998E+02  0.47481E+04
 0.25799999E+02  0.49462E+04
 0.25849998E+02  0.53319E+04
 0.25899998E+02  0.50725E+04
 0.25949999E+02  0.50325E+04
 0.25999998E+02  0.53529E+04
 0.26049999E+02  0.56470E+04
 0.26099998E+02  0.56526E+04
 0.26149998E+02  0.55347E+04
 0.26199999E+02  0.51031E+04
 0.26249998E+02  0.51610E+04
 0.26299999E+02  0.52768E+04
 0.26349998E+02  0.46993E+04
 0.26399998E+02  0.46728E+04
 0.26449999E+02  0.54083E+04
 0.26499998E+02  0.53526E+04
 0.26549999E+02  0.53979E+04
 0.26599998E+02  0.48795E+04
 0.26649998E+02  0.47056E+04
 0.26699999E+02  0.56288E+04
 0.26749998E+02  0.51212E+04
 0.26799999E+02  0.48720E+04
 0.26849998E+02  0.49711E+04
 0.26899998E+02  0.53530E+04
 0.26949999E+02  0.50767E+04
 0.26999998E+02  0.45606E+04
 0.27049997E+02  0.47028E+04
 0.27099998E+02  0.53789E+04
 0.27149998E+02  0.53104E+04
 0.27199999E+02  0.50310E+04
 0.27249998E+02  0.47840E+04
 0.27299997E+02  0.49094E+04
 0.27349998E+02  0.55976E+04
 0.27399998E+02  0.56671E+04
 0.27449999E+02  0.53815E+04
 0.27499998E+02  0.48530E+04
 0.27549997E+02  0.58564E+04
 0.27599998E+02  0.53961E+04
 0.27649998E+02  0.41530E+04
 0.27699999E+02  0.47233E+04
 0.27749998E+02  0.48052E+04
 0.27799997E+02  0.46618E+04
 0.27849998E+02  0.51694E+04
 0.27899998E+02  0.54103E+04
 0.27949999E+02  0.54626E+04
 0.27999998E+02  0.51858E+04
 0.28049997E+02  0.50987E+04
 0.28099998E+02  0.52873E+04
 0.28149998E+02  0.52327E+04
 0.28199999E+02  0.46994E+04
 0.28249998E+02  0.50800E+04
 0.28299997E+02  0.55403E+04
 0.28349998E+02  0.49594E+04
 0.28399998E+02  0.57960E+04
 0.28449999E+02  0.57643E+04
 0.28499998E+02  0.47837E+04
 0.28549997E+02  0.46735E+04
 0.28599998E+02  0.45214E+04
 0.28649998E+02  0.51976E+04
 0.28699999E+02  0.59293E+04
 0.28749998E+02  0.50609E+04
 0.28799997E+02  0.49223E+04
 0.28849998E+02  0.48197E+04
 0.28899998E+02  0.47327E+04
 0.28949999E+02  0.52568E+04
 0.28999998E+02  0.50692E+04
 0.29049997E+02  0.49658E+04
 0.29099998E+02  0.50300E+04
 0.29149998E+02  0.60500E+04
 0.29199999E+02  0.54321E+04
 0.29249998E+02  0.44798E+04
 0.29299997E+02  0.54064E+04
 0.29349998E+02  0.56828E+04
 0.29399998E+02  0.55019E+04
 0.29449999E+02  0.49197E+04
 0.29499998E+02  0.48366E+04
 0.29549997E+02  0.52999E+04
 0.29599998E+02  0.53202E+04
 0.29649998E+02  0.57184E+04
 0.29699999E+02  0.55319E+04
 0.29749998E+02  0.47541E+04
 0.29799997E+02  0.50844E+04
 0.29849998E+02  0.51579E+04
 0.29899998E+02  0.42976E+04
 0.29949999E+02  0.50824E+04
 0.29999998E+02  0.55795E+04
 0.30049999E+02  0.48716E+04
 0.30099998E+02  0.50297E+04
 0.30149998E+02  0.50110E+04
 0.30199997E+02  0.52397E+04
 0.30249996E+02  0.48829E+04
 0.30299999E+02  0.51929E+04
 0.30349998E+02  0.58375E+04
 0.30399998E+02  0.50163E+04
 0.30449997E+02  0.48499E+04
 0.30499996E+02  0.46910E+04
 0.30549999E+02  0.53469E+04
 0.30599998E+02  0.50856E+04
 0.30649998E+02  0.45410E+04
 0.30699997E+02  0.49421E+04
 0.30749996E+02  0.50398E+04
 0.30799999E+02  0.53499E+04
 0.30849998E+02  0.54210E+04
 0.30899998E+02  0.60567E+04
 0.30949997E+02  0.51540E+04
 0.30999996E+02  0.47426E+04
 0.31049999E+02  0.50462E+04
 0.31099998E+02  0.46067E+04
 0.31149998E+02  0.49402E+04
 0.31199997E+02  0.55573E+04
 0.31249996E+02  0.50086E+04
 0.31299999E+02  0.41595E+04
 0.31349998E+02  0.42998E+04
 0.31399998E+02  0.53879E+04
 0.31449997E+02  0.57977E+04
 0.31499996E+02  0.54101E+04
 0.31549999E+02  0.59468E+04
 0.31599998E+02  0.57065E+04
 0.31649998E+02  0.59342E+04
 0.31699997E+02  0.52958E+04
 0.31749996E+02  0.44713E+04
 0.31799999E+02  0.47804E+04
 0.31849998E+02  0.47759E+04
 0.31899998E+02  0.48628E+04
 0.31949997E+02  0.50173E+04
 0.31999996E+02  0.45670E+04
 0.32049999E+02  0.45940E+04
 0.32099998E+02  0.48354E+04
 0.32149998E+02  0.55779E+04
 0.32199997E+02  0.59042E+04
 0.32249996E+02  0.51537E+04
 0.32299999E+02  0.50751E+04
 0.32349998E+02  0.48285E+04
 0.32399998E+02  0.50954E+04
 0.32449997E+02  0.49881E+04
 0.32499996E+02  0.56179E+04
 0.32549999E+02  0.63544E+04
 0.32599998E+02  0.54755E+04
 0.32649998E+02  0.46583E+04
 0.32699997E+02  0.49761E+04
 0.32749996E+02  0.44135E+04
 0.32799999E+02  0.44025E+04
 0.32849998E+02  0.51759E+04
 0.32899998E+02  0.54838E+04
 0.32949997E+02  0.55844E+04
 0.32999996E+02  0.50978E+04
 0.33049999E+02  0.46569E+04
 0.33099998E+02  0.49508E+04
 0.33149998E+02  0.53513E+04
 0.33199997E+02  0.52349E+04
 0.33249996E+02  0.52386E+04
 0.33299999E+02  0.51045E+04
 0.33349998E+02  0.44147E+04
 0.33399998E+02  0.41572E+04
 0.33449997E+02  0.50936E+04
 0.33499996E+02  0.52853E+04
 0.33549999E+02  0.49646E+04
 0.33599998E+02  0.48656E+04
 0.33649998E+02  0.50573E+04
 0.33699997E+02  0.51959E+04
 0.33749996E+02  0.64941E+04
 0.33799999E+02  0.63934E+04
 0.33849998E+02  0.54218E+04
 0.33899998E+02  0.53421E+04
 0.33949997E+02  0.49714E+04
 0.33999996E+02  0.56333E+04
 0.34049999E+02  0.45161E+04
 0.34099998E+02  0.40257E+04
 0.34149998E+02  0.51403E+04
 0.34199997E+02  0.54433E+04
 0.34249996E+02  0.61152E+04
 0.34299999E+02  0.51404E+04
 0.34349998E+02  0.50393E+04
 0.34399998E+02  0.54954E+04
 0.34449997E+02  0.50985E+04
 0.34499996E+02  0.54830E+04
 0.34549999E+02  0.52496E+04
 0.34599998E+02  0.47785E+04
 0.34649998E+02  0.47746E+04
 0.34699997E+02  0.49758E+04
 0.34749996E+02  0.50661E+04
 0.34799999E+02  0.47473E+04
 0.34849998E+02  0.49610E+04
 0.34899998E+02  0.55299E+04
 0.34949997E+02  0.52784E+04
 0.34999996E+02  0.50012E+04
 0.35049999E+02  0.51157E+04
 0.35099998E+02  0.52331E+04
 0.35149998E+02  0.48822E+04
 0.35199997E+02  0.42911E+04
 0.35249996E+02  0.47225E+04
 0.35299999E+02  0.48488E+04
 0.35349998E+02  0.50857E+04
 0.35399998E+02  0.54814E+04
 0.35449997E+02  0.52131E+04
 0.35499996E+02  0.48375E+04
 0.35549999E+02  0.50558E+04
 0.35599998E+02  0.56279E+04
 0.35649998E+02  0.47161E+04
 0.35699997E+02  0.50265E+04
 0.35749996E+02  0.55433E+04
 0.35799999E+02  0.58243E+04
 0.35849998E+02  0.53822E+04
 0.35899998E+02  0.55941E+04
 0.35949997E+02  0.56373E+04
 0.35999996E+02  0.46903E+04
 0.36049999E+02  0.52387E+04
 0.36099998E+02  0.46303E+04
 0.36149998E+02  0.44824E+04
 0.36199997E+02  0.51093E+04
 0.36249996E+02  0.50319E+04
 0.36299999E+02  0.48821E+04
 0.36349998E+02  0.44654E+04
 0.36399998E+02  0.39171E+04
 0.36449997E+02  0.44279E+04
 0.36499996E+02  0.60034E+04
 0.36549999E+02  0.55373E+04
 0.36599998E+02  0.49395E+04
 0.36649998E+02  0.54209E+04
 0.36699997E+02  0.56697E+04
 0.36749996E+02  0.59277E+04
 0.36799999E+02  0.58223E+04
 0.36849998E+02  0.55705E+04
 0.36899998E+02  0.51329E+04
 0.36949997E+02  0.51211E+04
 0.36999996E+02  0.50102E+04
 0.37049999E+02  0.46555E+04
 0.37099998E+02  0.44228E+04
 0.37149998E+02  0.47188E+04
 0.37199997E+02  0.47169E+04
 0.37249996E+02  0.43166E+04
 0.37299999E+02  0.40795E+04
 0.37349998E+02  0.46961E+04
 0.37399998E+02  0.53318E+04
 0.37449997E+02  0.55232E+04
 0.37499996E+02  0.51578E+04
 0.37549999E+02  0.58506E+04
 0.37599998E+02  0.62706E+04
 0.37649998E+02  0.53032E+04
 0.37699997E+02  0.56311E+04
 0.37749996E+02  0.50733E+04
 0.37799999E+02  0.48347E+04
 0.37849998E+02  0.48423E+04
 0.37899998E+02  0.45793E+04
 0.37949997E+02  0.44062E+04
 0.37999996E+02  0.47272E+04
 0.38049999E+02  0.49891E+04
 0.38099998E+02  0.50633E+04
 0.38149998E+02  0.49486E+04
 0.38199997E+02  0.55903E+04
 0.38249996E+02  0.57916E+04
 0.38299999E+02  0.44840E+04
 0.38349998E+02  0.49243E+04
 0.38399998E+02  0.56165E+04
 0.38449997E+02  0.54962E+04
 0.38499996E+02  0.47802E+04
 0.38549999E+02  0.52871E+04
 0.38599998E+02  0.55329E+04
 0.38649998E+02  0.54683E+04
 0.38699997E+02  0.49607E+04
 0.38749996E+02  0.52251E+04
 0.38799999E+02  0.54044E+04
 0.38849998E+02  0.52387E+04
 0.38899998E+02  0.53438E+04
 0.38949997E+02  0.39898E+04
 0.38999996E+02  0.47442E+04
 0.39049999E+02  0.53910E+04
 0.39099998E+02  0.49123E+04
 0.39149998E+02  0.48722E+04
 0.39199997E+02  0.51071E+04
 0.39249996E+02  0.59648E+04
 0.39299999E+02  0.58694E+04
 0.39349998E+02  0.45367E+04
 0.39399998E+02  0.42187E+04
 0.39449997E+02  0.51338E+04
 0.39499996E+02  0.54639E+04
 0.39549999E+02  0.48546E+04
 0.39599998E+02  0.50424E+04
 0.39649998E+02  0.57148E+04
 0.39699997E+02  0.57082E+04
 0.39749996E+02  0.56850E+04
 0.39799999E+02  0.49599E+04
 0.39849998E+02  0.47005E+04
 0.39899998E+02  0.54629E+04
 0.39949997E+02  0.60170E+04
 0.39999996E+02  0.56186E+04
 0.40049999E+02  0.53016E+04
 0.40099998E+02  0.52189E+04
 0.40149998E+02  0.53451E+04
 0.40199997E+02  0.57458E+04
 0.40249996E+02  0.47435E+04
 0.40299999E+02  0.42487E+04
 0.40349998E+02  0.50118E+04
 0.40399998E+02  0.59132E+04
 0.40449997E+02  0.60517E+04
 0.40499996E+02  0.56438E+04
 0.40549999E+02  0.52913E+04
 0.40599998E+02  0.49581E+04
 0.40649998E+02  0.49138E+04
 0.40699997E+02  0.49623E+04
 0.40749996E+02  0.48431E+04
 0.40799999E+02  0.54244E+04
 0.40849998E+02  0.53497E+04
 0.40899998E+02  0.50001E+04
 0.40949997E+02  0.55486E+04
 0.40999996E+02  0.43114E+04
 0.41049999E+02  0.45812E+04
 0.41099998E+02  0.58401E+04
 0.41149998E+02  0.51698E+04
 0.41199997E+02  0.48096E+04
 0.41249996E+02  0.46355E+04
 0.41299999E+02  0.45327E+04
 0.41349998E+02  0.43447E+04
 0.41399998E+02  0.45473E+04
 0.41449997E+02  0.60199E+04
 0.41499996E+02  0.60914E+04
 0.41549999E+02  0.54007E+04
 0.41599998E+02  0.60309E+04
 0.41649998E+02  0.60699E+04
 0.41699997E+02  0.55441E+04
 0.41749996E+02  0.50348E+04
 0.41799999E+02  0.49058E+04
 0.41849998E+02  0.53423E+04
 0.41899998E+02  0.55750E+04
 0.41949997E+02  0.58482E+04
 0.41999996E+02  0.51211E+04
 0.42049999E+02  0.36653E+04
 0.42099998E+02  0.38647E+04
 0.42149998E+02  0.44004E+04
 0.42199997E+02  0.50849E+04
 0.42249996E+02  0.55737E+04
 0.42299999E+02  0.58153E+04
 0.42349998E+02  0.64258E+04
 0.42399998E+02  0.50677E+04
 0.42449997E+02  0.46933E+04
 0.42499996E+02  0.49013E+04
 0.42549999E+02  0.41260E+04
 0.42599998E+02  0.43138E+04
 0.42649998E+02  0.44941E+04
 0.42699997E+02  0.46029E+04
 0.42749996E+02  0.54984E+04
 0.42799995E+02  0.61300E+04
 0.42849998E+02  0.51811E+04
 0.42899998E+02  0.46339E+04
 0.42949997E+02  0.55796E+04
 0.42999996E+02  0.78755E+04
 0.43049995E+02  0.77117E+04
 0.43099998E+02  0.53060E+04
 0.43149998E+02  0.37864E+04
 0.43199997E+02  0.42579E+04
 0.43249996E+02  0.59911E+04
 0.43299995E+02  0.53715E+04
 0.43349998E+02  0.42436E+04
 0.43399998E+02  0.33565E+04
 0.43449997E+02  0.32713E+04
 0.43499996E+02  0.44460E+04
 0.43549995E+02  0.50752E+04
 0.43599998E+02  0.60693E+04
 0.43649998E+02  0.63132E+04
 0.43699997E+02  0.53496E+04
 0.43749996E+02  0.48508E+04
 0.43799995E+02  0.52534E+04
 0.43849998E+02  0.43252E+04
 0.43899998E+02  0.46404E+04
 0.43949997E+02  0.62945E+04
 0.43999996E+02  0.55109E+04
 0.44049995E+02  0.50809E+04
 0.44099998E+02  0.57166E+04
 0.44149998E+02  0.59836E+04
 0.44199997E+02  0.56910E+04
 0.44249996E+02  0.48549E+04
 0.44299995E+02  0.43105E+04
 0.44349998E+02  0.40767E+04
 0.44399998E+02  0.36775E+04
 0.44449997E+02  0.43128E+04
 0.44499996E+02  0.50003E+04
 0.44549995E+02  0.53634E+04
 0.44599998E+02  0.56522E+04
 0.44649998E+02  0.57571E+04
 0.44699997E+02  0.55136E+04
 0.44749996E+02  0.43069E+04
 0.44799995E+02  0.31786E+04
 0.44849998E+02  0.24546E+04
 0.44899998E+02  0.42412E+04
 0.44949997E+02  0.63538E+04
 0.44999996E+02  0.66856E+04
 0.45049995E+02  0.61442E+04
 0.45099998E+02  0.55740E+04
 0.45149998E+02  0.55657E+04
 0.45199997E+02  0.53420E+04
 0.45249996E+02  0.46817E+04
 0.45299995E+02  0.45599E+04
 0.45349998E+02  0.56003E+04
 0.45399998E+02  0.58293E+04
 0.45449997E+02  0.60214E+04
 0.45499996E+02  0.47658E+04
 0.45549995E+02  0.44362E+04
 0.45599998E+02  0.47047E+04
 0.45649998E+02  0.47613E+04
 0.45699997E+02  0.50591E+04
 0.45749996E+02  0.52826E+04
 0.45799995E+02  0.67081E+04
 0.45849998E+02  0.57352E+04
 0.45899998E+02  0.33616E+04
 0.45949997E+02  0.25018E+04
 0.45999996E+02  0.41074E+04
 0.46049995E+02  0.59575E+04
 0.46099998E+02  0.58433E+04
 0.46149998E+02  0.43948E+04
 0.46199997E+02  0.47695E+04
 0.46249996E+02  0.57728E+04
 0.46299995E+02  0.53876E+04
 0.46349998E+02  0.62203E+04
 0.46399998E+02  0.62275E+04
 0.46449997E+02  0.57578E+04
 0.46499996E+02  0.59169E+04
 0.46549995E+02  0.47857E+04
 0.46599998E+02  0.47317E+04
 0.46649998E+02  0.62315E+04
 0.46699997E+02  0.58675E+04
 0.46749996E+02  0.53355E+04
 0.46799995E+02  0.54049E+04
 0.46849998E+02  0.46069E+04
 0.46899998E+02  0.44414E+04
 0.46949997E+02  0.46870E+04
 0.46999996E+02  0.51343E+04
 0.47049995E+02  0.46949E+04
 0.47099998E+02  0.46544E+04
 0.47149998E+02  0.46972E+04
 0.47199997E+02  0.47055E+04
 0.47249996E+02  0.51653E+04
 0.47299995E+02  0.36712E+04
 0.47349998E+02  0.25799E+04
 0.47399998E+02  0.41784E+04
 0.47449997E+02  0.62807E+04
 0.47499996E+02  0.68431E+04
 0.47549995E+02  0.53020E+04
 0.47599998E+02  0.44173E+04
 0.47649998E+02  0.52060E+04
 0.47699997E+02  0.52291E+04
 0.47749996E+02  0.59638E+04
 0.47799995E+02  0.61542E+04
 0.47849998E+02  0.54577E+04
 0.47899998E+02  0.53538E+04
 0.47949997E+02  0.55008E+04
 0.47999996E+02  0.63203E+04
 0.48049995E+02  0.65171E+04
 0.48099998E+02  0.61005E+04
 0.48149998E+02  0.57472E+04
 0.48199997E+02  0.50472E+04
 0.48249996E+02  0.37893E+04
 0.48299995E+02  0.41766E+04
 0.48349998E+02  0.56685E+04
 0.48399998E+02  0.57146E+04
 0.48449997E+02  0.54223E+04
 0.48499996E+02  0.43676E+04
 0.48549995E+02  0.42653E+04
 0.48599998E+02  0.47308E+04
 0.48649998E+02  0.45939E+04
 0.48699997E+02  0.49796E+04
 0.48749996E+02  0.51102E+04
 0.48799995E+02  0.61572E+04
 0.48849998E+02  0.74304E+04
 0.48899998E+02  0.64836E+04
 0.48949997E+02  0.41662E+04
 0.48999996E+02  0.31255E+04
 0.49049995E+02  0.37412E+04
 0.49099998E+02  0.43289E+04
 0.49149998E+02  0.44509E+04
 0.49199997E+02  0.50068E+04
 0.49249996E+02  0.58670E+04
 0.49299995E+02  0.63622E+04
 0.49349998E+02  0.60458E+04
 0.49399998E+02  0.60882E+04
 0.49449997E+02  0.66657E+04
 0.49499996E+02  0.57116E+04
 0.49549995E+02  0.42045E+04
 0.49599998E+02  0.34095E+04
 0.49649998E+02  0.34449E+04
 0.49699997E+02  0.47064E+04
 0.49749996E+02  0.58451E+04
 0.49799995E+02  0.55998E+04
 0.49849998E+02  0.51206E+04
 0.49899998E+02  0.50041E+04
 0.49949997E+02  0.49336E+04
 0.49999996E+02  0.45971E+04
 0.50049995E+02  0.42634E+04
 0.50099998E+02  0.37287E+04
 0.50149998E+02  0.33959E+04
 0.50199997E+02  0.38868E+04
 0.50249996E+02  0.51766E+04
 0.50299995E+02  0.60235E+04
 0.50349998E+02  0.61605E+04
 0.50399998E+02  0.58563E+04
 0.50449997E+02  0.50239E+04
 0.50499996E+02  0.55737E+04
 0.50549995E+02  0.57444E+04
 0.50599998E+02  0.58316E+04
 0.50649998E+02  0.51629E+04
 0.50699997E+02  0.42950E+04
 0.50749996E+02  0.40568E+04
 0.50799995E+02  0.46106E+04
 0.50849998E+02  0.57710E+04
 0.50899998E+02  0.58303E+04
 0.50949997E+02  0.56731E+04
 0.50999996E+02  0.51376E+04
 0.51049995E+02  0.54100E+04
 0.51099998E+02  0.57944E+04
 0.51149998E+02  0.57878E+04
 0.51199997E+02  0.51286E+04
 0.51249996E+02  0.40473E+04
 0.51299995E+02  0.35569E+04
 0.51349998E+02  0.42548E+04
 0.51399998E+02  0.50275E+04
 0.51449997E+02  0.49452E+04
 0.51499996E+02  0.54391E+04
 0.51549995E+02  0.63926E+04
 0.51599998E+02  0.65948E+04
 0.51649998E+02  0.58556E+04
 0.51699997E+02  0.53259E+04
 0.51749996E+02  0.52248E+04
 0.51799995E+02  0.52780E+04
 0.51849998E+02  0.51909E+04
 0.51899998E+02  0.52601E+04
 0.51949997E+02  0.50558E+04
 0.51999996E+02  0.48799E+04
 0.52049995E+02  0.47170E+04
 0.52099998E+02  0.41898E+04
 0.52149998E+02  0.45208E+04
 0.52199997E+02  0.49488E+04
 0.52249996E+02  0.52747E+04
 0.52299995E+02  0.57578E+04
 0.52349998E+02  0.59928E+04
 0.52399998E+02  0.57469E+04
 0.52449997E+02  0.51905E+04
 0.52499996E+02  0.50189E+04
 0.52549995E+02  0.52037E+04
 0.52599998E+02  0.58072E+04
 0.52649998E+02  0.64749E+04
 0.52699997E+02  0.62960E+04
 0.52749996E+02  0.60226E+04
 0.52799995E+02  0.54532E+04
 0.52849998E+02  0.48707E+04
 0.52899998E+02  0.37487E+04
 0.52949997E+02  0.23751E+04
 0.52999996E+02  0.33157E+04
 0.53049995E+02  0.47020E+04
 0.53099998E+02  0.47372E+04
 0.53149998E+02  0.44601E+04
 0.53199997E+02  0.47286E+04
 0.53249996E+02  0.53930E+04
 0.53299995E+02  0.53122E+04
 0.53349998E+02  0.44849E+04
 0.53399998E+02  0.44254E+04
 0.53449997E+02  0.52839E+04
 0.53499996E+02  0.58404E+04
 0.53549995E+02  0.59023E+04
 0.53599998E+02  0.65381E+04
 0.53649998E+02  0.66022E+04
 0.53699997E+02  0.55815E+04
 0.53749996E+02  0.44936E+04
 0.53799995E+02  0.42395E+04
 0.53849998E+02  0.38674E+04
 0.53899998E+02  0.33401E+04
 0.53949997E+02  0.45155E+04
 0.53999996E+02  0.58043E+04
 0.54049995E+02  0.63112E+04
 0.54099998E+02  0.60361E+04
 0.54149998E+02  0.54672E+04
 0.54199997E+02  0.48261E+04
 0.54249996E+02  0.44558E+04
 0.54299995E+02  0.46483E+04
 0.54349998E+02  0.46899E+04
 0.54399998E+02  0.49463E+04
 0.54449997E+02  0.59217E+04
 0.54499996E+02  0.63203E+04
 0.54549995E+02  0.62807E+04
 0.54599998E+02  0.64365E+04
 0.54649998E+02  0.58790E+04
 0.54699997E+02  0.54637E+04
 0.54749996E+02  0.38478E+04
 0.54799995E+02  0.27239E+04
 0.54849998E+02  0.34031E+04
 0.54899998E+02  0.42319E+04
 0.54949997E+02  0.50472E+04
 0.54999996E+02  0.52285E+04
 0.55049995E+02  0.61484E+04
 0.55099998E+02  0.69326E+04
 0.55149998E+02  0.69790E+04
 0.55199997E+02  0.65328E+04
 0.55249996E+02  0.51919E+04
 0.55299995E+02  0.39026E+04
 0.55349998E+02  0.35810E+04
 0.55399998E+02  0.44965E+04
 0.55449997E+02  0.58695E+04
 0.55499996E+02  0.63233E+04
 0.55549995E+02  0.63326E+04
 0.55599998E+02  0.60952E+04
 0.55649998E+02  0.52504E+04
 0.55699997E+02  0.54608E+04
 0.55749996E+02  0.59559E+04
 0.55799995E+02  0.60068E+04
 0.55849995E+02  0.58139E+04
 0.55899998E+02  0.51828E+04
 0.55949997E+02  0.47895E+04
 0.55999996E+02  0.43082E+04
 0.56049995E+02  0.38200E+04
 0.56099995E+02  0.39852E+04
 0.56149998E+02  0.41825E+04
 0.56199997E+02  0.45945E+04
 0.56249996E+02  0.49940E+04
 0.56299995E+02  0.52961E+04
 0.56349995E+02  0.54986E+04
 0.56399998E+02  0.57870E+04
 0.56449997E+02  0.60379E+04
 0.56499996E+02  0.60210E+04
 0.56549995E+02  0.56275E+04
 0.56599995E+02  0.48574E+04
 0.56649998E+02  0.50176E+04
 0.56699997E+02  0.58423E+04
 0.56749996E+02  0.63941E+04
 0.56799995E+02  0.58628E+04
 0.56849995E+02  0.53852E+04
 0.56899998E+02  0.51739E+04
 0.56949997E+02  0.41616E+04
 0.56999996E+02  0.33802E+04
 0.57049995E+02  0.31748E+04
 0.57099995E+02  0.40052E+04
 0.57149998E+02  0.52612E+04
 0.57199997E+02  0.63171E+04
 0.57249996E+02  0.70066E+04
 0.57299995E+02  0.65975E+04
 0.57349995E+02  0.60224E+04
 0.57399998E+02  0.47620E+04
 0.57449997E+02  0.36673E+04
 0.57499996E+02  0.31454E+04
 0.57549995E+02  0.34578E+04
 0.57599995E+02  0.42682E+04
 0.57649998E+02  0.49947E+04
 0.57699997E+02  0.57580E+04
 0.57749996E+02  0.54806E+04
 0.57799995E+02  0.55688E+04
 0.57849995E+02  0.59626E+04
 0.57899998E+02  0.63672E+04
 0.57949997E+02  0.65798E+04
 0.57999996E+02  0.62088E+04
 0.58049995E+02  0.51887E+04
 0.58099995E+02  0.39005E+04
 0.58149998E+02  0.34027E+04
 0.58199997E+02  0.37650E+04
 0.58249996E+02  0.41922E+04
 0.58299995E+02  0.43049E+04
 0.58349995E+02  0.49649E+04
 0.58399998E+02  0.52791E+04
 0.58449997E+02  0.50678E+04
 0.58499996E+02  0.49436E+04
 0.58549995E+02  0.47314E+04
 0.58599995E+02  0.49303E+04
 0.58649998E+02  0.54135E+04
 0.58699997E+02  0.57497E+04
 0.58749996E+02  0.58033E+04
 0.58799995E+02  0.55295E+04
 0.58849995E+02  0.53223E+04
 0.58899998E+02  0.55451E+04
 0.58949997E+02  0.58774E+04
 0.58999996E+02  0.58040E+04
 0.59049995E+02  0.56116E+04
 0.59099995E+02  0.52773E+04
 0.59149998E+02  0.48187E+04
 0.59199997E+02  0.42370E+04
 0.59249996E+02  0.34977E+04
 0.59299995E+02  0.32388E+04
 0.59349995E+02  0.37701E+04
 0.59399998E+02  0.46177E+04
 0.59449997E+02  0.53301E+04
 0.59499996E+02  0.55802E+04
 0.59549995E+02  0.50636E+04
 0.59599995E+02  0.44349E+04
 0.59649998E+02  0.42146E+04
 0.59699997E+02  0.50058E+04
 0.59749996E+02  0.60691E+04
 0.59799995E+02  0.64605E+04
 0.59849995E+02  0.63438E+04
 0.59899998E+02  0.56075E+04
 0.59949997E+02  0.49459E+04
 0.59999996E+02  0.47058E+04
 0.60049995E+02  0.52006E+04
 0.60099995E+02  0.61989E+04
 0.60149998E+02  0.62541E+04
 0.60199997E+02  0.56752E+04
 0.60249996E+02  0.52785E+04
 0.60299995E+02  0.48462E+04
 0.60349995E+02  0.46058E+04
 0.60399998E+02  0.47227E+04
 0.60449997E+02  0.50968E+04
 0.60499996E+02  0.53623E+04
 0.60549995E+02  0.53248E+04
 0.60599995E+02  0.48291E+04
 0.60649998E+02  0.43813E+04
 0.60699997E+02  0.40084E+04
 0.60749996E+02  0.39786E+04
 0.60799995E+02  0.46578E+04
 0.60849995E+02  0.47618E+04
 0.60899998E+02  0.47530E+04
 0.60949997E+02  0.49194E+04
 0.60999996E+02  0.51160E+04
 0.61049995E+02  0.51098E+04
 0.61099995E+02  0.52127E+04
 0.61149998E+02  0.50680E+04
 0.61199997E+02  0.48828E+04
 0.61249996E+02  0.54271E+04
 0.61299995E+02  0.57383E+04
 0.61349995E+02  0.58747E+04
 0.61399998E+02  0.61263E+04
 0.61449997E+02  0.63123E+04
 0.61499996E+02  0.62546E+04
 0.61549995E+02  0.60841E+04
 0.61599995E+02  0.60134E+04
 0.61649998E+02  0.59071E+04
 0.61699997E+02  0.53104E+04
 0.61749996E+02  0.46072E+04
 0.61799995E+02  0.42828E+04
 0.61849995E+02  0.39639E+04
 0.61899998E+02  0.35447E+04
 0.61949997E+02  0.30209E+04
 0.61999996E+02  0.27842E+04
 0.62049995E+02  0.32073E+04
 0.62099998E+02  0.37540E+04
 0.62149994E+02  0.45140E+04
 0.62199997E+02  0.51698E+04
 0.62249992E+02  0.53562E+04
 0.62299995E+02  0.55308E+04
 0.62349998E+02  0.56705E+04
 0.62399994E+02  0.56967E+04
 0.62449997E+02  0.59346E+04
 0.62499992E+02  0.61252E+04
 0.62549995E+02  0.59461E+04
 0.62599998E+02  0.56618E+04
 0.62649994E+02  0.54439E+04
 0.62699997E+02  0.55991E+04
 0.62749992E+02  0.55945E+04
 0.62799995E+02  0.50712E+04
 0.62849998E+02  0.48956E+04
 0.62899994E+02  0.47609E+04
 0.62949997E+02  0.47960E+04
 0.62999992E+02  0.53981E+04
 0.63049995E+02  0.58923E+04
 0.63099998E+02  0.60130E+04
 0.63149994E+02  0.58418E+04
 0.63199997E+02  0.58068E+04
 0.63249992E+02  0.57834E+04
 0.63299995E+02  0.55565E+04
 0.63349998E+02  0.54567E+04
 0.63399994E+02  0.54235E+04
 0.63449997E+02  0.54538E+04
 0.63499992E+02  0.56218E+04
 0.63549995E+02  0.54418E+04
 0.63599998E+02  0.50327E+04
 0.63649994E+02  0.50561E+04
 0.63699997E+02  0.53835E+04
 0.63749992E+02  0.53799E+04
 0.63799995E+02  0.52460E+04
 0.63849998E+02  0.52581E+04
 0.63899994E+02  0.53538E+04
 0.63949997E+02  0.52611E+04
 0.63999992E+02  0.52171E+04
 0.64049995E+02  0.55702E+04
 0.64099998E+02  0.59058E+04
 0.64149994E+02  0.57864E+04
 0.64199997E+02  0.54146E+04
 0.64249992E+02  0.51456E+04
 0.64299995E+02  0.48746E+04
 0.64349998E+02  0.46354E+04
 0.64399994E+02  0.48759E+04
 0.64449997E+02  0.55129E+04
 0.64499992E+02  0.58681E+04
 0.64549995E+02  0.55722E+04
 0.64599998E+02  0.49980E+04
 0.64649994E+02  0.45922E+04
 0.64699997E+02  0.40407E+04
 0.64749992E+02  0.39371E+04
 0.64799995E+02  0.42302E+04
 0.64849998E+02  0.45467E+04
 0.64899994E+02  0.51527E+04
 0.64949997E+02  0.51471E+04
 0.64999992E+02  0.47614E+04
 0.65049995E+02  0.47610E+04
 0.65099998E+02  0.49149E+04
 0.65149994E+02  0.50516E+04
 0.65199997E+02  0.52429E+04
 0.65249992E+02  0.59784E+04
 0.65299995E+02  0.61209E+04
 0.65349998E+02  0.54769E+04
 0.65399994E+02  0.48249E+04
 0.65449997E+02  0.42680E+04
 0.65499992E+02  0.40468E+04
 0.65549995E+02  0.37955E+04
 0.65599998E+02  0.39723E+04
 0.65649994E+02  0.41826E+04
 0.65699997E+02  0.42791E+04
 0.65749992E+02  0.46269E+04
 0.65799995E+02  0.49800E+04
 0.65849998E+02  0.50124E+04
 0.65899994E+02  0.47527E+04
 0.65949997E+02  0.49534E+04
 0.65999992E+02  0.51856E+04
 0.66049995E+02  0.54666E+04
 0.66099998E+02  0.60695E+04
 0.66149994E+02  0.63051E+04
 0.66199997E+02  0.60960E+04
 0.66249992E+02  0.58709E+04
 0.66299995E+02  0.56438E+04
 0.66349998E+02  0.55152E+04
 0.66399994E+02  0.55435E+04
 0.66449997E+02  0.57814E+04
 0.66499992E+02  0.59235E+04
 0.66549995E+02  0.57863E+04
 0.66599998E+02  0.55602E+04
 0.66649994E+02  0.50858E+04
 0.66699997E+02  0.49787E+04
 0.66749992E+02  0.50153E+04
 0.66799995E+02  0.49383E+04
 0.66849998E+02  0.49702E+04
 0.66899994E+02  0.48394E+04
 0.66949997E+02  0.49195E+04
 0.66999992E+02  0.51667E+04
 0.67049995E+02  0.54084E+04
 0.67099998E+02  0.51952E+04
 0.67149994E+02  0.50243E+04
 0.67199997E+02  0.51088E+04
 0.67249992E+02  0.52455E+04
 0.67299995E+02  0.56372E+04
 0.67349998E+02  0.56885E+04
 0.67399994E+02  0.55403E+04
 0.67449997E+02  0.57505E+04
 0.67499992E+02  0.58519E+04
 0.67549995E+02  0.52171E+04
 0.67599998E+02  0.48621E+04
 0.67649994E+02  0.46828E+04
 0.67699997E+02  0.44604E+04
 0.67749992E+02  0.39931E+04
 0.67799995E+02  0.37151E+04
 0.67849998E+02  0.39808E+04
 0.67899994E+02  0.42151E+04
 0.67949997E+02  0.49258E+04
 0.67999992E+02  0.56154E+04
 0.68049995E+02  0.60247E+04
 0.68099998E+02  0.61043E+04
 0.68149994E+02  0.58982E+04
 0.68199997E+02  0.54882E+04
 0.68249992E+02  0.53276E+04
 0.68299995E+02  0.54385E+04
 0.68349998E+02  0.53705E+04
 0.68399994E+02  0.53130E+04
 0.68449997E+02  0.50146E+04
 0.68499992E+02  0.45401E+04
 0.68549995E+02  0.43473E+04
 0.68599998E+02  0.45590E+04
 0.68649994E+02  0.46791E+04
 0.68699997E+02  0.47166E+04
 0.68749992E+02  0.46382E+04
 0.68799995E+02  0.47580E+04
 0.68849998E+02  0.48655E+04
 0.68899994E+02  0.47742E+04
 0.68949997E+02  0.46498E+04
 0.68999992E+02  0.44379E+04
 0.69049995E+02  0.47473E+04
 0.69099998E+02  0.51373E+04
 0.69149994E+02  0.54205E+04
 0.69199997E+02  0.55397E+04
 0.69249992E+02  0.54405E+04
 0.69299995E+02  0.49784E+04
 0.69349998E+02  0.45937E+04
 0.69399994E+02  0.44524E+04
 0.69449997E+02  0.43746E+04
 0.69499992E+02  0.44239E+04
 0.69549995E+02  0.46307E+04
 0.69599998E+02  0.51573E+04
 0.69649994E+02  0.54724E+04
 0.69699997E+02  0.57565E+04
 0.69749992E+02  0.63417E+04
 0.69799995E+02  0.65666E+04
 0.69849998E+02  0.64422E+04
 0.69899994E+02  0.60815E+04
 0.69949997E+02  0.52178E+04
 0.69999992E+02  0.47328E+04
 0.70049995E+02  0.44176E+04
 0.70099998E+02  0.41663E+04
 0.70149994E+02  0.42792E+04
 0.70199997E+02  0.45163E+04
 0.70249992E+02  0.49548E+04
 0.70299995E+02  0.51850E+04
 0.70349998E+02  0.51608E+04
 0.70399994E+02  0.51756E+04
 0.70449997E+02  0.54178E+04
 0.70499992E+02  0.54080E+04
 0.70549995E+02  0.53447E+04
 0.70599998E+02  0.55329E+04
 0.70649994E+02  0.52589E+04
 0.70699997E+02  0.49082E+04
 0.70749992E+02  0.48987E+04
 0.70799995E+02  0.49424E+04
 0.70849998E+02  0.48185E+04
 0.70899994E+02  0.47770E+04
 0.70949997E+02  0.49908E+04
 0.70999992E+02  0.51979E+04
 0.71049995E+02  0.51742E+04
 0.71099998E+02  0.53662E+04
 0.71149994E+02  0.56020E+04
 0.71199997E+02  0.55404E+04
 0.71249992E+02  0.56208E+04
 0.71299995E+02  0.58754E+04
 0.71349998E+02  0.58289E+04
 0.71399994E+02  0.54778E+04
 0.71449997E+02  0.55251E+04
 0.71499992E+02  0.57333E+04
 0.71549995E+02  0.57164E+04
 0.71599998E+02  0.55268E+04
 0.71649994E+02  0.52701E+04
 0.71699997E+02  0.49513E+04
 0.71749992E+02  0.47319E+04
 0.71799995E+02  0.48975E+04
 0.71849998E+02  0.49349E+04
 0.71899994E+02  0.50582E+04
 0.71949997E+02  0.52265E+04
 0.71999992E+02  0.52449E+04
 0.72049995E+02  0.51054E+04
 0.72099998E+02  0.48564E+04
 0.72149994E+02  0.47246E+04
 0.72199997E+02  0.45061E+04
 0.72249992E+02  0.45660E+04
 0.72299995E+02  0.49634E+04
 0.72349998E+02  0.53718E+04
 0.72399994E+02  0.56603E+04
 0.72449997E+02  0.57516E+04
 0.72499992E+02  0.56507E+04
 0.72549995E+02  0.56065E+04
 0.72599998E+02  0.53626E+04
 0.72649994E+02  0.52084E+04
 0.72699997E+02  0.51971E+04
 0.72749992E+02  0.49758E+04
 0.72799995E+02  0.49818E+04
 0.72849998E+02  0.49234E+04
 0.72899994E+02  0.47299E+04
 0.72949997E+02  0.46469E+04
 0.72999992E+02  0.44284E+04
 0.73049995E+02  0.46137E+04
 0.73099998E+02  0.51764E+04
 0.73149994E+02  0.56118E+04
 0.73199997E+02  0.56693E+04
 0.73249992E+02  0.53680E+04
 0.73299995E+02  0.50318E+04
 0.73349998E+02  0.47723E+04
 0.73399994E+02  0.48709E+04
 0.73449997E+02  0.51514E+04
 0.73499992E+02  0.50923E+04
 0.73549995E+02  0.47351E+04
 0.73599998E+02  0.47182E+04
 0.73649994E+02  0.48229E+04
 0.73699997E+02  0.45741E+04
 0.73749992E+02  0.43434E+04
 0.73799995E+02  0.44045E+04
 0.73849998E+02  0.45318E+04
 0.73899994E+02  0.49915E+04
 0.73949997E+02  0.52452E+04
 0.73999992E+02  0.52164E+04
 0.74049995E+02  0.54333E+04
 0.74099998E+02  0.52086E+04
 0.74149994E+02  0.52855E+04
 0.74199997E+02  0.54839E+04
 0.74249992E+02  0.57074E+04
 0.74299995E+02  0.61118E+04
 0.74349998E+02  0.59521E+04
 0.74399994E+02  0.57865E+04
 0.74449997E+02  0.56810E+04
 0.74499992E+02  0.56957E+04
 0.74549995E+02  0.55639E+04
 0.74599998E+02  0.53646E+04
 0.74649994E+02  0.48509E+04
 0.74699997E+02  0.42237E+04
 0.74749992E+02  0.37675E+04
 0.74799995E+02  0.32042E+04
 0.74849998E+02  0.33326E+04
 0.74899994E+02  0.39378E+04
 0.74949997E+02  0.46398E+04
 0.74999992E+02  0.50004E+04
 0.75049995E+02  0.52411E+04
 0.75099998E+02  0.57821E+04
 0.75149994E+02  0.61538E+04
 0.75199997E+02  0.63412E+04
 0.75249992E+02  0.62195E+04
 0.75299995E+02  0.60000E+04
 0.75349998E+02  0.62407E+04
 0.75399994E+02  0.62050E+04
 0.75449997E+02  0.57724E+04
 0.75499992E+02  0.52840E+04
 0.75549995E+02  0.47243E+04
 0.75599998E+02  0.46501E+04
 0.75649994E+02  0.48889E+04
 0.75699997E+02  0.50345E+04
 0.75749992E+02  0.52091E+04
 0.75799995E+02  0.54142E+04
 0.75849998E+02  0.56627E+04
 0.75899994E+02  0.57123E+04
 0.75949997E+02  0.55498E+04
 0.75999992E+02  0.56998E+04
 0.76049995E+02  0.57332E+04
 0.76099998E+02  0.56449E+04
 0.76149994E+02  0.56571E+04
 0.76199997E+02  0.57045E+04
 0.76249992E+02  0.55354E+04
 0.76299995E+02  0.53032E+04
 0.76349998E+02  0.52270E+04
 0.76399994E+02  0.47767E+04
 0.76449997E+02  0.43129E+04
 0.76499992E+02  0.43102E+04
 0.76549995E+02  0.43548E+04
 0.76599998E+02  0.39999E+04
 0.76649994E+02  0.38219E+04
 0.76699997E+02  0.40324E+04
 0.76749992E+02  0.43130E+04
 0.76799995E+02  0.46427E+04
 0.76849998E+02  0.51549E+04
 0.76899994E+02  0.55692E+04
 0.76949997E+02  0.56531E+04
 0.76999992E+02  0.55744E+04
 0.77049995E+02  0.55549E+04
 0.77099998E+02  0.53906E+04
 0.77149994E+02  0.55280E+04
 0.77199997E+02  0.56900E+04
 0.77249992E+02  0.54936E+04
 0.77299995E+02  0.57538E+04
 0.77349998E+02  0.58472E+04
 0.77399994E+02  0.55146E+04
 0.77449997E+02  0.51452E+04
 0.77499992E+02  0.47882E+04
 0.77549995E+02  0.46851E+04
 0.77599998E+02  0.45040E+04
 0.77649994E+02  0.40873E+04
 0.77699997E+02  0.38077E+04
 0.77749992E+02  0.38851E+04
 0.77799995E+02  0.41778E+04
 0.77849998E+02  0.41851E+04
 0.77899994E+02  0.42779E+04
 0.77949997E+02  0.47932E+04
 0.77999992E+02  0.56395E+04
 0.78049995E+02  0.61396E+04
 0.78099998E+02  0.61611E+04
 0.78149994E+02  0.61260E+04
 0.78199997E+02  0.60299E+04
 0.78249992E+02  0.59099E+04
 0.78299995E+02  0.53656E+04
 0.78349998E+02  0.49430E+04
 0.78399994E+02  0.47677E+04
 0.78449997E+02  0.46405E+04
 0.78499992E+02  0.45506E+04
 0.78549995E+02  0.45355E+04
 0.78599998E+02  0.45232E+04
 0.78649994E+02  0.44365E+04
 0.78699997E+02  0.46738E+04
 0.78749992E+02  0.48961E+04
 0.78799995E+02  0.48714E+04
 0.78849998E+02  0.47052E+04
 0.78899994E+02  0.45436E+04
 0.78949997E+02  0.40908E+04
 0.78999992E+02  0.40659E+04
 0.79049995E+02  0.44026E+04
 0.79099998E+02  0.46921E+04
 0.79149994E+02  0.52757E+04
 0.79199997E+02  0.56500E+04
 0.79249992E+02  0.56896E+04
 0.79299995E+02  0.58428E+04
 0.79349998E+02  0.62589E+04
 0.79399994E+02  0.62789E+04
 0.79449997E+02  0.62754E+04
 0.79499992E+02  0.61188E+04
 0.79549995E+02  0.55907E+04
 0.79599998E+02  0.56687E+04
 0.79649994E+02  0.57238E+04
 0.79699997E+02  0.55310E+04
 0.79749992E+02  0.55917E+04
 0.79799995E+02  0.55474E+04
 0.79849998E+02  0.55052E+04
 0.79899994E+02  0.52703E+04
 0.79949997E+02  0.52926E+04
 0.79999992E+02  0.56825E+04
 0.80049995E+02  0.53949E+04
 0.80099998E+02  0.46936E+04
 0.80149994E+02  0.43609E+04
 0.80199997E+02  0.43534E+04
 0.80249992E+02  0.40908E+04
 0.80299995E+02  0.41869E+04
 0.80349998E+02  0.47122E+04
 0.80399994E+02  0.48093E+04
 0.80449997E+02  0.48423E+04
 0.80499992E+02  0.52299E+04
 0.80549995E+02  0.55979E+04
 0.80599998E+02  0.54104E+04
 0.80649994E+02  0.52507E+04
 0.80699997E+02  0.53818E+04
 0.80749992E+02  0.54757E+04
 0.80799995E+02  0.56635E+04
 0.80849998E+02  0.59156E+04
 0.80899994E+02  0.57374E+04
 0.80949997E+02  0.50965E+04
 0.80999992E+02  0.50441E+04
 0.81049995E+02  0.51031E+04
 0.81099998E+02  0.47003E+04
 0.81149994E+02  0.46266E+04
 0.81199997E+02  0.49452E+04
 0.81249992E+02  0.50962E+04
 0.81299995E+02  0.49480E+04
 0.81349998E+02  0.50473E+04
 0.81399994E+02  0.49773E+04
 0.81449997E+02  0.47413E+04
 0.81499992E+02  0.44694E+04
 0.81549995E+02  0.43275E+04
 0.81599998E+02  0.45617E+04
 0.81649994E+02  0.46286E+04
 0.81699997E+02  0.48766E+04
 0.81749992E+02  0.52261E+04
 0.81799995E+02  0.50116E+04
 0.81849998E+02  0.48379E+04
 0.81899994E+02  0.50774E+04
 0.81949997E+02  0.53526E+04
 0.81999992E+02  0.54874E+04
 0.82049995E+02  0.52941E+04
 0.82099998E+02  0.50466E+04
 0.82149994E+02  0.50981E+04
 0.82199997E+02  0.52875E+04
 0.82249992E+02  0.52631E+04
 0.82299995E+02  0.54063E+04
 0.82349998E+02  0.55903E+04
 0.82399994E+02  0.56847E+04
 0.82449997E+02  0.59016E+04
 0.82499992E+02  0.60905E+04
 0.82549995E+02  0.61990E+04
 0.82599998E+02  0.56823E+04
 0.82649994E+02  0.52668E+04
 0.82699997E+02  0.54061E+04
 0.82749992E+02  0.55238E+04
 0.82799995E+02  0.51385E+04
 0.82849998E+02  0.43899E+04
 0.82899994E+02  0.44077E+04
 0.82949997E+02  0.45948E+04
 0.82999992E+02  0.46190E+04
 0.83049995E+02  0.50405E+04
 0.83099998E+02  0.48506E+04
 0.83149994E+02  0.46482E+04
 0.83199997E+02  0.50580E+04
 0.83249992E+02  0.51388E+04
 0.83299995E+02  0.51820E+04
 0.83349998E+02  0.53015E+04
 0.83399994E+02  0.53549E+04
 0.83449997E+02  0.53164E+04
 0.83499992E+02  0.49718E+04
 0.83549995E+02  0.49017E+04
 0.83599998E+02  0.54323E+04
 0.83649994E+02  0.54377E+04
 0.83699997E+02  0.48809E+04
 0.83749992E+02  0.47328E+04
 0.83799995E+02  0.49450E+04
 0.83849998E+02  0.48368E+04
 0.83899994E+02  0.49253E+04
 0.83949997E+02  0.57486E+04
 0.83999992E+02  0.59744E+04
 0.84049995E+02  0.55790E+04
 0.84099998E+02  0.54536E+04
 0.84149994E+02  0.54135E+04
 0.84199997E+02  0.53223E+04
 0.84249992E+02  0.51126E+04
 0.84299995E+02  0.47678E+04
 0.84349998E+02  0.46176E+04
 0.84399994E+02  0.44173E+04
 0.84449997E+02  0.47494E+04
 0.84499992E+02  0.52692E+04
 0.84549995E+02  0.50966E+04
 0.84599998E+02  0.49160E+04
 0.84649994E+02  0.50932E+04
 0.84699997E+02  0.54552E+04
 0.84749992E+02  0.56820E+04
 0.84799995E+02  0.58372E+04
 0.84849998E+02  0.57488E+04
 0.84899994E+02  0.57683E+04
 0.84949997E+02  0.56824E+04
 0.84999992E+02  0.53374E+04
 0.85049995E+02  0.52462E+04
 0.85099998E+02  0.50584E+04
 0.85149994E+02  0.51454E+04
 0.85199997E+02  0.52795E+04
 0.85249992E+02  0.47622E+04
 0.85299995E+02  0.44732E+04
 0.85349998E+02  0.49186E+04
 0.85399994E+02  0.51525E+04
 0.85449997E+02  0.51183E+04
 0.85499992E+02  0.48893E+04
 0.85549995E+02  0.45462E+04
 0.85599998E+02  0.47305E+04
 0.85649994E+02  0.47503E+04
 0.85699997E+02  0.45624E+04
 0.85749992E+02  0.44911E+04
 0.85799995E+02  0.44253E+04
 0.85849998E+02  0.44879E+04
 0.85899994E+02  0.47970E+04
 0.85949997E+02  0.52809E+04
 0.85999992E+02  0.54463E+04
 0.86049995E+02  0.53752E+04
 0.86099998E+02  0.53580E+04
 0.86149994E+02  0.53607E+04
 0.86199997E+02  0.52881E+04
 0.86249992E+02  0.54916E+04
 0.86299995E+02  0.56556E+04
 0.86349998E+02  0.52721E+04
 0.86399994E+02  0.50124E+04
 0.86449997E+02  0.50527E+04
 0.86499992E+02  0.51766E+04
 0.86549995E+02  0.53099E+04
 0.86599998E+02  0.51634E+04
 0.86649994E+02  0.49845E+04
 0.86699997E+02  0.48846E+04
 0.86749992E+02  0.50595E+04
 0.86799995E+02  0.53191E+04
 0.86849998E+02  0.50954E+04
 0.86899994E+02  0.49660E+04
 0.86949997E+02  0.50132E+04
 0.86999992E+02  0.51194E+04
 0.87049995E+02  0.52882E+04
 0.87099998E+02  0.49255E+04
 0.87149994E+02  0.47194E+04
 0.87199997E+02  0.49157E+04
 0.87249992E+02  0.48654E+04
 0.87299995E+02  0.50059E+04
 0.87349998E+02  0.53470E+04
 0.87399994E+02  0.56343E+04
 0.87449997E+02  0.55975E+04
 0.87499992E+02  0.53013E+04
 0.87549995E+02  0.51662E+04
 0.87599991E+02  0.51864E+04
 0.87649994E+02  0.49223E+04
 0.87699997E+02  0.44997E+04
 0.87749992E+02  0.44296E+04
 0.87799995E+02  0.45843E+04
 0.87849991E+02  0.47980E+04
 0.87899994E+02  0.48647E+04
 0.87949997E+02  0.49513E+04
 0.87999992E+02  0.51983E+04
 0.88049995E+02  0.52434E+04
 0.88099991E+02  0.53495E+04
 0.88149994E+02  0.56412E+04
 0.88199997E+02  0.55158E+04
 0.88249992E+02  0.52534E+04
 0.88299995E+02  0.51570E+04
 0.88349991E+02  0.49998E+04
 0.88399994E+02  0.51421E+04
 0.88449997E+02  0.51497E+04
 0.88499992E+02  0.50573E+04
 0.88549995E+02  0.51663E+04
 0.88599991E+02  0.52667E+04
 0.88649994E+02  0.52901E+04
 0.88699997E+02  0.50936E+04
 0.88749992E+02  0.53632E+04
 0.88799995E+02  0.55447E+04
 0.88849991E+02  0.52259E+04
 0.88899994E+02  0.52581E+04
 0.88949997E+02  0.56151E+04
 0.88999992E+02  0.58458E+04
 0.89049995E+02  0.57033E+04
 0.89099991E+02  0.54091E+04
 0.89149994E+02  0.54467E+04
 0.89199997E+02  0.55724E+04
 0.89249992E+02  0.53597E+04
 0.89299995E+02  0.53240E+04
 0.89349991E+02  0.53038E+04
 0.89399994E+02  0.52293E+04
 0.89449997E+02  0.50962E+04
 0.89499992E+02  0.47708E+04
 0.89549995E+02  0.47943E+04
 0.89599991E+02  0.49160E+04
 0.89649994E+02  0.49294E+04
 0.89699997E+02  0.49226E+04
 0.89749992E+02  0.51253E+04
 0.89799995E+02  0.53694E+04
 0.89849991E+02  0.54787E+04
 0.89899994E+02  0.53853E+04
 0.89949997E+02  0.53075E+04
 0.89999992E+02  0.53130E+04
 0.90049995E+02  0.50750E+04
 0.90099991E+02  0.47514E+04
 0.90149994E+02  0.44872E+04
 0.90199997E+02  0.44632E+04
 0.90249992E+02  0.45351E+04
 0.90299995E+02  0.45605E+04
 0.90349991E+02  0.46328E+04
 0.90399994E+02  0.44581E+04
 0.90449997E+02  0.42844E+04
 0.90499992E+02  0.46342E+04
 0.90549995E+02  0.50541E+04
 0.90599991E+02  0.54078E+04
 0.90649994E+02  0.54565E+04
 0.90699997E+02  0.53189E+04
 0.90749992E+02  0.52937E+04
 0.90799995E+02  0.52697E+04
 0.90849991E+02  0.52792E+04
 0.90899994E+02  0.53318E+04
 0.90949997E+02  0.52300E+04
 0.90999992E+02  0.50200E+04
 0.91049995E+02  0.48172E+04
 0.91099991E+02  0.48036E+04
 0.91149994E+02  0.48353E+04
 0.91199997E+02  0.45777E+04
 0.91249992E+02  0.45158E+04
 0.91299995E+02  0.45758E+04
 0.91349991E+02  0.48351E+04
 0.91399994E+02  0.51005E+04
 0.91449997E+02  0.50982E+04
 0.91499992E+02  0.51802E+04
 0.91549995E+02  0.52534E+04
 0.91599991E+02  0.54840E+04
 0.91649994E+02  0.55912E+04
 0.91699997E+02  0.55045E+04
 0.91749992E+02  0.56812E+04
 0.91799995E+02  0.57448E+04
 0.91849991E+02  0.57093E+04
 0.91899994E+02  0.56836E+04
 0.91949997E+02  0.56520E+04
 0.91999992E+02  0.58109E+04
 0.92049995E+02  0.59059E+04
 0.92099991E+02  0.57498E+04
 0.92149994E+02  0.54211E+04
 0.92199997E+02  0.52446E+04
 0.92249992E+02  0.51962E+04
 0.92299995E+02  0.51110E+04
 0.92349991E+02  0.48648E+04
 0.92399994E+02  0.47034E+04
 0.92449997E+02  0.47149E+04
 0.92499992E+02  0.47981E+04
 0.92549995E+02  0.49804E+04
 0.92599991E+02  0.50292E+04
 0.92649994E+02  0.51324E+04
 0.92699997E+02  0.51623E+04
 0.92749992E+02  0.52193E+04
 0.92799995E+02  0.53050E+04
 0.92849991E+02  0.53321E+04
 0.92899994E+02  0.53432E+04
 0.92949997E+02  0.53973E+04
 0.92999992E+02  0.54066E+04
 0.93049995E+02  0.51445E+04
 0.93099991E+02  0.51857E+04
 0.93149994E+02  0.53157E+04
 0.93199997E+02  0.53434E+04
 0.93249992E+02  0.54937E+04
 0.93299995E+02  0.53678E+04
 0.93349991E+02  0.51209E+04
 0.93399994E+02  0.48702E+04
 0.93449997E+02  0.47067E+04
 0.93499992E+02  0.46398E+04
 0.93549995E+02  0.45795E+04
 0.93599991E+02  0.46241E+04
 0.93649994E+02  0.47163E+04
 0.93699997E+02  0.46728E+04
 0.93749992E+02  0.46024E+04
 0.93799995E+02  0.47231E+04
 0.93849991E+02  0.49238E+04
 0.93899994E+02  0.50813E+04
 0.93949997E+02  0.52737E+04
 0.93999992E+02  0.53821E+04
 0.94049995E+02  0.54300E+04
 0.94099991E+02  0.53368E+04
 0.94149994E+02  0.52551E+04
 0.94199997E+02  0.50980E+04
 0.94249992E+02  0.49999E+04
 0.94299995E+02  0.51994E+04
 0.94349991E+02  0.51589E+04
 0.94399994E+02  0.50290E+04
 0.94449997E+02  0.48037E+04
 0.94499992E+02  0.46779E+04
 0.94549995E+02  0.46187E+04
 0.94599991E+02  0.46551E+04
 0.94649994E+02  0.48348E+04
 0.94699997E+02  0.48442E+04
 0.94749992E+02  0.50481E+04
 0.94799995E+02  0.53394E+04
 0.94849991E+02  0.53461E+04
 0.94899994E+02  0.53402E+04
 0.94949997E+02  0.52696E+04
 0.94999992E+02  0.51933E+04
 0.95049995E+02  0.51603E+04
 0.95099991E+02  0.51633E+04
 0.95149994E+02  0.51296E+04
 0.95199997E+02  0.50637E+04
 0.95249992E+02  0.51412E+04
 0.95299995E+02  0.52188E+04
 0.95349991E+02  0.53011E+04
 0.95399994E+02  0.54491E+04
 0.95449997E+02  0.56093E+04
 0.95499992E+02  0.56985E+04
 0.95549995E+02  0.57432E+04
 0.95599991E+02  0.57298E+04
 0.95649994E+02  0.57717E+04
 0.95699997E+02  0.57508E+04
 0.95749992E+02  0.55788E+04
 0.95799995E+02  0.53563E+04
 0.95849991E+02  0.51837E+04
 0.95899994E+02  0.51776E+04
 0.95949997E+02  0.51573E+04
 0.95999992E+02  0.49386E+04
 0.96049995E+02  0.48504E+04
 0.96099991E+02  0.48245E+04
 0.96149994E+02  0.47409E+04
 0.96199997E+02  0.48328E+04
 0.96249992E+02  0.49173E+04
 0.96299995E+02  0.50538E+04
 0.96349991E+02  0.51112E+04
 0.96399994E+02  0.50435E+04
 0.96449997E+02  0.51669E+04
 0.96499992E+02  0.52395E+04
 0.96549995E+02  0.51831E+04
 0.96599991E+02  0.49455E+04
 0.96649994E+02  0.46318E+04
 0.96699997E+02  0.46100E+04
 0.96749992E+02  0.46626E+04
 0.96799995E+02  0.47393E+04
 0.96849991E+02  0.49793E+04
 0.96899994E+02  0.52149E+04
 0.96949997E+02  0.52875E+04
 0.96999992E+02  0.54153E+04
 0.97049995E+02  0.55364E+04
 0.97099991E+02  0.55084E+04
 0.97149994E+02  0.54626E+04
 0.97199997E+02  0.54825E+04
 0.97249992E+02  0.54686E+04
 0.97299995E+02  0.53965E+04
 0.97349991E+02  0.54194E+04
 0.97399994E+02  0.53143E+04
 0.97449997E+02  0.50766E+04
 0.97499992E+02  0.49635E+04
 0.97549995E+02  0.49000E+04
 0.97599991E+02  0.47901E+04
 0.97649994E+02  0.47928E+04
 0.97699997E+02  0.48418E+04
 0.97749992E+02  0.48462E+04
 0.97799995E+02  0.48515E+04
 0.97849991E+02  0.47321E+04
 0.97899994E+02  0.47752E+04
 0.97949997E+02  0.48872E+04
 0.97999992E+02  0.49037E+04
