-0.20000000E+01  0.94794E+04
-0.19500000E+01  0.99736E+04
-0.19000000E+01  0.10300E+05
-0.18500000E+01  0.10487E+05
-0.18000000E+01  0.10671E+05
-0.17500000E+01  0.11021E+05
-0.17000000E+01  0.11714E+05
-0.16500001E+01  0.12792E+05
-0.16000000E+01  0.14249E+05
-0.15500000E+01  0.16015E+05
-0.15000000E+01  0.17910E+05
-0.14500000E+01  0.19885E+05
-0.14000001E+01  0.21857E+05
-0.13500000E+01  0.23839E+05
-0.13000001E+01  0.25828E+05
-0.12500000E+01  0.27821E+05
-0.12000000E+01  0.29801E+05
-0.11500001E+01  0.31657E+05
-0.11000000E+01  0.33401E+05
-0.10500001E+01  0.34914E+05
-0.10000000E+01  0.36164E+05
-0.95000005E+00  0.37284E+05
-0.90000010E+00  0.38334E+05
-0.85000002E+00  0.39306E+05
-0.80000007E+00  0.40265E+05
-0.75000012E+00  0.41218E+05
-0.70000005E+00  0.42140E+05
-0.65000010E+00  0.42950E+05
-0.60000014E+00  0.43615E+05
-0.55000007E+00  0.44180E+05
-0.50000012E+00  0.44649E+05
-0.45000005E+00  0.45017E+05
-0.40000010E+00  0.45201E+05
-0.35000014E+00  0.45145E+05
-0.30000007E+00  0.44828E+05
-0.25000012E+00  0.44204E+05
-0.20000005E+00  0.43159E+05
-0.15000010E+00  0.41723E+05
-0.10000014E+00  0.40031E+05
-0.50000072E-01  0.38149E+05
-0.11920929E-06  0.36128E+05
 0.49999952E-01  0.34082E+05
 0.99999905E-01  0.32115E+05
 0.14999986E+00  0.30280E+05
 0.19999981E+00  0.28539E+05
 0.24999976E+00  0.26821E+05
 0.29999995E+00  0.25113E+05
 0.34999990E+00  0.23451E+05
 0.39999986E+00  0.21797E+05
 0.44999981E+00  0.20080E+05
 0.49999976E+00  0.18276E+05
 0.54999995E+00  0.16413E+05
 0.59999990E+00  0.14531E+05
 0.64999986E+00  0.12586E+05
 0.69999981E+00  0.10582E+05
 0.74999976E+00  0.85421E+04
 0.79999971E+00  0.64794E+04
 0.84999990E+00  0.44394E+04
 0.89999986E+00  0.24266E+04
 0.94999981E+00  0.46303E+03
 0.99999976E+00 -0.14388E+04
 0.10499997E+01 -0.32545E+04
 0.10999999E+01 -0.48844E+04
 0.11499999E+01 -0.62608E+04
 0.11999998E+01 -0.73592E+04
 0.12499998E+01 -0.81514E+04
 0.12999997E+01 -0.86744E+04
 0.13499999E+01 -0.89468E+04
 0.13999999E+01 -0.89750E+04
 0.14499998E+01 -0.88074E+04
 0.14999998E+01 -0.84482E+04
 0.15499997E+01 -0.78366E+04
 0.15999999E+01 -0.69300E+04
 0.16499999E+01 -0.57865E+04
 0.16999998E+01 -0.44563E+04
 0.17499998E+01 -0.29114E+04
 0.17999997E+01 -0.11603E+04
 0.18499997E+01  0.66714E+03
 0.18999999E+01  0.25361E+04
 0.19499998E+01  0.44130E+04
 0.19999998E+01  0.63017E+04
 0.20499997E+01  0.82611E+04
 0.20999999E+01  0.10360E+05
 0.21499996E+01  0.12601E+05
 0.21999998E+01  0.14931E+05
 0.22499995E+01  0.17363E+05
 0.22999997E+01  0.19783E+05
 0.23499999E+01  0.22097E+05
 0.23999996E+01  0.24262E+05
 0.24499998E+01  0.26297E+05
 0.24999995E+01  0.28212E+05
 0.25499997E+01  0.29992E+05
 0.25999999E+01  0.31631E+05
 0.26499996E+01  0.33114E+05
 0.26999998E+01  0.34491E+05
 0.27499995E+01  0.35693E+05
 0.27999997E+01  0.36651E+05
 0.28499999E+01  0.37411E+05
 0.28999996E+01  0.37967E+05
 0.29499998E+01  0.38349E+05
 0.29999995E+01  0.38623E+05
 0.30499997E+01  0.38824E+05
 0.30999999E+01  0.38867E+05
 0.31499996E+01  0.38696E+05
 0.31999998E+01  0.38303E+05
 0.32499995E+01  0.37612E+05
 0.32999997E+01  0.36674E+05
 0.33499999E+01  0.35527E+05
 0.33999996E+01  0.34169E+05
 0.34499998E+01  0.32648E+05
 0.34999995E+01  0.31025E+05
 0.35499997E+01  0.29346E+05
 0.35999994E+01  0.27628E+05
 0.36499996E+01  0.25903E+05
 0.36999998E+01  0.24155E+05
 0.37499995E+01  0.22364E+05
 0.37999997E+01  0.20508E+05
 0.38499994E+01  0.18537E+05
 0.38999996E+01  0.16435E+05
 0.39499998E+01  0.14216E+05
 0.39999995E+01  0.11969E+05
 0.40499997E+01  0.97373E+04
 0.40999994E+01  0.75374E+04
 0.41499996E+01  0.55120E+04
 0.41999998E+01  0.37264E+04
 0.42499995E+01  0.21881E+04
 0.42999997E+01  0.89366E+03
 0.43499994E+01 -0.11864E+03
 0.43999996E+01 -0.77948E+03
 0.44499998E+01 -0.11608E+04
 0.44999995E+01 -0.12957E+04
 0.45499997E+01 -0.12069E+04
 0.45999994E+01 -0.93512E+03
 0.46499996E+01 -0.48774E+03
 0.46999998E+01  0.16088E+03
 0.47499995E+01  0.10454E+04
 0.47999997E+01  0.20855E+04
 0.48499994E+01  0.32294E+04
 0.48999996E+01  0.44260E+04
 0.49499998E+01  0.55516E+04
 0.49999995E+01  0.66360E+04
 0.50499997E+01  0.76724E+04
 0.50999994E+01  0.85952E+04
 0.51499996E+01  0.93274E+04
 0.51999998E+01  0.98124E+04
 0.52499995E+01  0.10039E+05
 0.52999997E+01  0.10006E+05
 0.53499994E+01  0.98994E+04
 0.53999996E+01  0.96686E+04
 0.54499993E+01  0.92996E+04
 0.54999995E+01  0.89179E+04
 0.55499997E+01  0.84893E+04
 0.55999994E+01  0.81704E+04
 0.56499996E+01  0.80031E+04
 0.56999993E+01  0.79908E+04
 0.57499995E+01  0.81808E+04
 0.57999997E+01  0.85478E+04
 0.58499994E+01  0.91248E+04
 0.58999996E+01  0.99096E+04
 0.59499993E+01  0.10810E+05
 0.59999995E+01  0.11790E+05
 0.60499992E+01  0.12859E+05
 0.60999994E+01  0.13968E+05
 0.61499996E+01  0.15022E+05
 0.61999998E+01  0.15941E+05
 0.62499990E+01  0.16694E+05
 0.62999992E+01  0.17272E+05
 0.63499994E+01  0.17752E+05
 0.63999996E+01  0.18181E+05
 0.64499998E+01  0.18611E+05
 0.64999990E+01  0.19082E+05
 0.65499992E+01  0.19615E+05
 0.65999994E+01  0.20259E+05
 0.66499996E+01  0.21017E+05
 0.66999998E+01  0.21871E+05
 0.67499990E+01  0.22757E+05
 0.67999992E+01  0.23596E+05
 0.68499994E+01  0.24338E+05
 0.68999996E+01  0.25036E+05
 0.69499998E+01  0.25704E+05
 0.69999990E+01  0.26300E+05
 0.70499992E+01  0.26801E+05
 0.70999994E+01  0.27239E+05
 0.71499996E+01  0.27668E+05
 0.71999998E+01  0.28073E+05
 0.72499990E+01  0.28425E+05
 0.72999992E+01  0.28702E+05
 0.73499994E+01  0.28873E+05
 0.73999996E+01  0.28905E+05
 0.74499998E+01  0.28684E+05
 0.74999990E+01  0.28190E+05
 0.75499992E+01  0.27500E+05
 0.75999994E+01  0.26563E+05
 0.76499996E+01  0.25356E+05
 0.76999998E+01  0.23926E+05
 0.77499990E+01  0.22388E+05
 0.77999992E+01  0.20761E+05
 0.78499994E+01  0.19084E+05
 0.78999996E+01  0.17342E+05
 0.79499998E+01  0.15547E+05
 0.79999990E+01  0.13768E+05
 0.80499992E+01  0.12017E+05
 0.80999994E+01  0.10304E+05
 0.81499996E+01  0.87317E+04
 0.81999998E+01  0.74316E+04
 0.82499990E+01  0.63992E+04
 0.82999992E+01  0.55879E+04
 0.83499994E+01  0.49653E+04
 0.83999996E+01  0.44643E+04
 0.84499998E+01  0.40232E+04
 0.84999990E+01  0.36536E+04
 0.85499992E+01  0.33366E+04
 0.85999994E+01  0.31129E+04
 0.86499996E+01  0.30909E+04
 0.86999998E+01  0.33422E+04
 0.87499990E+01  0.39177E+04
 0.87999992E+01  0.47868E+04
 0.88499994E+01  0.59071E+04
 0.88999996E+01  0.72743E+04
 0.89499998E+01  0.88546E+04
 0.89999990E+01  0.10621E+05
 0.90499992E+01  0.12473E+05
 0.90999994E+01  0.14413E+05
 0.91499996E+01  0.16482E+05
 0.91999989E+01  0.18580E+05
 0.92499990E+01  0.20614E+05
 0.92999992E+01  0.22641E+05
 0.93499994E+01  0.24658E+05
 0.93999996E+01  0.26576E+05
 0.94499989E+01  0.28317E+05
 0.94999990E+01  0.29867E+05
 0.95499992E+01  0.31206E+05
 0.95999994E+01  0.32270E+05
 0.96499996E+01  0.33041E+05
 0.96999989E+01  0.33602E+05
 0.97499990E+01  0.34034E+05
 0.97999992E+01  0.34344E+05
 0.98499994E+01  0.34577E+05
 0.98999996E+01  0.34695E+05
 0.99499989E+01  0.34796E+05
 0.99999990E+01  0.34839E+05
 0.10049999E+02  0.34783E+05
 0.10099999E+02  0.34726E+05
 0.10150000E+02  0.34674E+05
 0.10199999E+02  0.34549E+05
 0.10249999E+02  0.34255E+05
 0.10299999E+02  0.33726E+05
 0.10349999E+02  0.32990E+05
 0.10400000E+02  0.32100E+05
 0.10449999E+02  0.31060E+05
 0.10499999E+02  0.29942E+05
 0.10549999E+02  0.28732E+05
 0.10599999E+02  0.27412E+05
 0.10650000E+02  0.25943E+05
 0.10699999E+02  0.24378E+05
 0.10749999E+02  0.22846E+05
 0.10799999E+02  0.21402E+05
 0.10849999E+02  0.19997E+05
 0.10900000E+02  0.18585E+05
 0.10949999E+02  0.17209E+05
 0.10999999E+02  0.15938E+05
 0.11049999E+02  0.14806E+05
 0.11099999E+02  0.13812E+05
 0.11150000E+02  0.12973E+05
 0.11199999E+02  0.12299E+05
 0.11249999E+02  0.11774E+05
 0.11299999E+02  0.11340E+05
 0.11349999E+02  0.10963E+05
 0.11400000E+02  0.10634E+05
 0.11449999E+02  0.10311E+05
 0.11499999E+02  0.10002E+05
 0.11549999E+02  0.98910E+04
 0.11599999E+02  0.10042E+05
 0.11650000E+02  0.10356E+05
 0.11699999E+02  0.10818E+05
 0.11749999E+02  0.11364E+05
 0.11799999E+02  0.11965E+05
 0.11849999E+02  0.12586E+05
 0.11900000E+02  0.13161E+05
 0.11949999E+02  0.13683E+05
 0.11999999E+02  0.14146E+05
 0.12049999E+02  0.14527E+05
 0.12099999E+02  0.14753E+05
 0.12150000E+02  0.14849E+05
 0.12199999E+02  0.14867E+05
 0.12249999E+02  0.14774E+05
 0.12299999E+02  0.14551E+05
 0.12349999E+02  0.14288E+05
 0.12400000E+02  0.14066E+05
 0.12449999E+02  0.13818E+05
 0.12499999E+02  0.13557E+05
 0.12549999E+02  0.13337E+05
 0.12599999E+02  0.13104E+05
 0.12649999E+02  0.12896E+05
 0.12699999E+02  0.12743E+05
 0.12749999E+02  0.12630E+05
 0.12799999E+02  0.12598E+05
 0.12849999E+02  0.12668E+05
 0.12899999E+02  0.12824E+05
 0.12949999E+02  0.13053E+05
 0.12999999E+02  0.13404E+05
 0.13049999E+02  0.13922E+05
 0.13099999E+02  0.14583E+05
 0.13149999E+02  0.15302E+05
 0.13199999E+02  0.16004E+05
 0.13249999E+02  0.16710E+05
 0.13299999E+02  0.17491E+05
 0.13349999E+02  0.18313E+05
 0.13399999E+02  0.19183E+05
 0.13449999E+02  0.20140E+05
 0.13499999E+02  0.21145E+05
 0.13549999E+02  0.22169E+05
 0.13599999E+02  0.23152E+05
 0.13649999E+02  0.24096E+05
 0.13699999E+02  0.24957E+05
 0.13749999E+02  0.25612E+05
 0.13799999E+02  0.26021E+05
 0.13849999E+02  0.26177E+05
 0.13899999E+02  0.26094E+05
 0.13949999E+02  0.25867E+05
 0.13999999E+02  0.25511E+05
 0.14049999E+02  0.24941E+05
 0.14099998E+02  0.24156E+05
 0.14150000E+02  0.23171E+05
 0.14199999E+02  0.21954E+05
 0.14249998E+02  0.20514E+05
 0.14299999E+02  0.19006E+05
 0.14349998E+02  0.17425E+05
 0.14400000E+02  0.15723E+05
 0.14449999E+02  0.13978E+05
 0.14499998E+02  0.12137E+05
 0.14549999E+02  0.10226E+05
 0.14599998E+02  0.84768E+04
 0.14650000E+02  0.70116E+04
 0.14699999E+02  0.58021E+04
 0.14749998E+02  0.49400E+04
 0.14799999E+02  0.44096E+04
 0.14849998E+02  0.41115E+04
 0.14900000E+02  0.40886E+04
 0.14949999E+02  0.43493E+04
 0.14999998E+02  0.48607E+04
 0.15049999E+02  0.57034E+04
 0.15099998E+02  0.68914E+04
 0.15150000E+02  0.82941E+04
 0.15199999E+02  0.98842E+04
 0.15249998E+02  0.11654E+05
 0.15299999E+02  0.13535E+05
 0.15349998E+02  0.15442E+05
 0.15400000E+02  0.17337E+05
 0.15449999E+02  0.19077E+05
 0.15499998E+02  0.20620E+05
 0.15549999E+02  0.22029E+05
 0.15599998E+02  0.23243E+05
 0.15650000E+02  0.24289E+05
 0.15699999E+02  0.25233E+05
 0.15749998E+02  0.26097E+05
 0.15799999E+02  0.26866E+05
 0.15849998E+02  0.27587E+05
 0.15900000E+02  0.28220E+05
 0.15949999E+02  0.28647E+05
 0.15999998E+02  0.28906E+05
 0.16049999E+02  0.29044E+05
 0.16099998E+02  0.29112E+05
 0.16150000E+02  0.29149E+05
 0.16199999E+02  0.29215E+05
 0.16249998E+02  0.29269E+05
 0.16299999E+02  0.29228E+05
 0.16349998E+02  0.29048E+05
 0.16400000E+02  0.28577E+05
 0.16449999E+02  0.27821E+05
 0.16499998E+02  0.26868E+05
 0.16549999E+02  0.25693E+05
 0.16599998E+02  0.24274E+05
 0.16650000E+02  0.22771E+05
 0.16699999E+02  0.21264E+05
 0.16749998E+02  0.19662E+05
 0.16799999E+02  0.18061E+05
 0.16849998E+02  0.16572E+05
 0.16900000E+02  0.15128E+05
 0.16949999E+02  0.13647E+05
 0.16999998E+02  0.12150E+05
 0.17049999E+02  0.10771E+05
 0.17099998E+02  0.95052E+04
 0.17150000E+02  0.82542E+04
 0.17199999E+02  0.71246E+04
 0.17249998E+02  0.61530E+04
 0.17299999E+02  0.53644E+04
 0.17349998E+02  0.48352E+04
 0.17400000E+02  0.45769E+04
 0.17449999E+02  0.45292E+04
 0.17499998E+02  0.46118E+04
 0.17549999E+02  0.48892E+04
 0.17599998E+02  0.53727E+04
 0.17650000E+02  0.59667E+04
 0.17699999E+02  0.66600E+04
 0.17749998E+02  0.74908E+04
 0.17799999E+02  0.84650E+04
 0.17849998E+02  0.95385E+04
 0.17900000E+02  0.10580E+05
 0.17949999E+02  0.11600E+05
 0.17999998E+02  0.12560E+05
 0.18049999E+02  0.13261E+05
 0.18099998E+02  0.13827E+05
 0.18150000E+02  0.14399E+05
 0.18199999E+02  0.14901E+05
 0.18249998E+02  0.15367E+05
 0.18299999E+02  0.15838E+05
 0.18349998E+02  0.16365E+05
 0.18400000E+02  0.16998E+05
 0.18449999E+02  0.17716E+05
 0.18499998E+02  0.18546E+05
 0.18549999E+02  0.19529E+05
 0.18599998E+02  0.20657E+05
 0.18650000E+02  0.21896E+05
 0.18699999E+02  0.23144E+05
 0.18749998E+02  0.24326E+05
 0.18799999E+02  0.25514E+05
 0.18849998E+02  0.26687E+05
 0.18900000E+02  0.27769E+05
 0.18949999E+02  0.28775E+05
 0.18999998E+02  0.29624E+05
 0.19049999E+02  0.30182E+05
 0.19099998E+02  0.30465E+05
 0.19150000E+02  0.30457E+05
 0.19199999E+02  0.30156E+05
 0.19249998E+02  0.29654E+05
 0.19299999E+02  0.29030E+05
 0.19349998E+02  0.28330E+05
 0.19400000E+02  0.27540E+05
 0.19449999E+02  0.26654E+05
 0.19499998E+02  0.25584E+05
 0.19549999E+02  0.24263E+05
 0.19599998E+02  0.22710E+05
 0.19650000E+02  0.20954E+05
 0.19699999E+02  0.19039E+05
 0.19749998E+02  0.17046E+05
 0.19799999E+02  0.15129E+05
 0.19849998E+02  0.13372E+05
 0.19900000E+02  0.11743E+05
 0.19949999E+02  0.10231E+05
 0.19999998E+02  0.88851E+04
 0.20049999E+02  0.77043E+04
 0.20099998E+02  0.66299E+04
 0.20150000E+02  0.57068E+04
 0.20199999E+02  0.49205E+04
 0.20249998E+02  0.42515E+04
 0.20299999E+02  0.37243E+04
 0.20349998E+02  0.33357E+04
 0.20399998E+02  0.31345E+04
 0.20449999E+02  0.30880E+04
 0.20499998E+02  0.31983E+04
 0.20549999E+02  0.34755E+04
 0.20599998E+02  0.39016E+04
 0.20649998E+02  0.45259E+04
 0.20699999E+02  0.53484E+04
 0.20749998E+02  0.63600E+04
 0.20799999E+02  0.75810E+04
 0.20849998E+02  0.89923E+04
 0.20899998E+02  0.10578E+05
 0.20949999E+02  0.12304E+05
 0.20999998E+02  0.14135E+05
 0.21049999E+02  0.16090E+05
 0.21099998E+02  0.18192E+05
 0.21149998E+02  0.20444E+05
 0.21199999E+02  0.22797E+05
 0.21249998E+02  0.25163E+05
 0.21299999E+02  0.27474E+05
 0.21349998E+02  0.29679E+05
 0.21399998E+02  0.31738E+05
 0.21449999E+02  0.33614E+05
 0.21499998E+02  0.35255E+05
 0.21549999E+02  0.36625E+05
 0.21599998E+02  0.37681E+05
 0.21649998E+02  0.38419E+05
 0.21699999E+02  0.38851E+05
 0.21749998E+02  0.39066E+05
 0.21799999E+02  0.39100E+05
 0.21849998E+02  0.38901E+05
 0.21899998E+02  0.38430E+05
 0.21949999E+02  0.37691E+05
 0.21999998E+02  0.36731E+05
 0.22049999E+02  0.35519E+05
 0.22099998E+02  0.34121E+05
 0.22149998E+02  0.32585E+05
 0.22199999E+02  0.30898E+05
 0.22249998E+02  0.29069E+05
 0.22299999E+02  0.27104E+05
 0.22349998E+02  0.25070E+05
 0.22399998E+02  0.22990E+05
 0.22449999E+02  0.20902E+05
 0.22499998E+02  0.18806E+05
 0.22549999E+02  0.16719E+05
 0.22599998E+02  0.14655E+05
 0.22649998E+02  0.12715E+05
 0.22699999E+02  0.10944E+05
 0.22749998E+02  0.92985E+04
 0.22799999E+02  0.78462E+04
 0.22849998E+02  0.66042E+04
 0.22899998E+02  0.54892E+04
 0.22949999E+02  0.44715E+04
 0.22999998E+02  0.35899E+04
 0.23049999E+02  0.28054E+04
 0.23099998E+02  0.21300E+04
 0.23149998E+02  0.16063E+04
 0.23199999E+02  0.11963E+04
 0.23249998E+02  0.77142E+03
 0.23299999E+02  0.39732E+03
 0.23349998E+02  0.14420E+03
 0.23399998E+02 -0.29634E+02
 0.23449999E+02 -0.10506E+03
 0.23499998E+02 -0.89232E+02
 0.23549999E+02  0.50863E+02
 0.23599998E+02  0.36482E+03
 0.23649998E+02  0.84222E+03
 0.23699999E+02  0.14513E+04
 0.23749998E+02  0.22184E+04
 0.23799999E+02  0.31614E+04
 0.23849998E+02  0.43298E+04
 0.23899998E+02  0.57332E+04
 0.23949999E+02  0.72564E+04
 0.23999998E+02  0.87835E+04
 0.24049999E+02  0.10315E+05
 0.24099998E+02  0.11839E+05
 0.24149998E+02  0.13335E+05
 0.24199999E+02  0.14828E+05
 0.24249998E+02  0.16338E+05
 0.24299999E+02  0.17860E+05
 0.24349998E+02  0.19327E+05
 0.24399998E+02  0.20693E+05
 0.24449999E+02  0.22011E+05
 0.24499998E+02  0.23279E+05
 0.24549999E+02  0.24454E+05
 0.24599998E+02  0.25511E+05
 0.24649998E+02  0.26418E+05
 0.24699999E+02  0.27157E+05
 0.24749998E+02  0.27730E+05
 0.24799999E+02  0.28108E+05
 0.24849998E+02  0.28208E+05
 0.24899998E+02  0.28047E+05
 0.24949999E+02  0.27614E+05
 0.24999998E+02  0.26907E+05
 0.25049999E+02  0.25977E+05
 0.25099998E+02  0.24860E+05
 0.25149998E+02  0.23578E+05
 0.25199999E+02  0.22222E+05
 0.25249998E+02  0.20858E+05
 0.25299999E+02  0.19440E+05
 0.25349998E+02  0.17895E+05
 0.25399998E+02  0.16208E+05
 0.25449999E+02  0.14381E+05
 0.25499998E+02  0.12449E+05
 0.25549999E+02  0.10541E+05
 0.25599998E+02  0.87729E+04
 0.25649998E+02  0.72758E+04
 0.25699999E+02  0.60420E+04
 0.25749998E+02  0.50296E+04
 0.25799999E+02  0.41636E+04
 0.25849998E+02  0.34122E+04
 0.25899998E+02  0.28217E+04
 0.25949999E+02  0.23469E+04
 0.25999998E+02  0.20442E+04
 0.26049999E+02  0.19414E+04
 0.26099998E+02  0.20893E+04
 0.26149998E+02  0.24830E+04
 0.26199999E+02  0.30403E+04
 0.26249998E+02  0.37842E+04
 0.26299999E+02  0.45908E+04
 0.26349998E+02  0.54467E+04
 0.26399998E+02  0.63824E+04
 0.26449999E+02  0.75865E+04
 0.26499998E+02  0.91503E+04
 0.26549999E+02  0.10967E+05
 0.26599998E+02  0.13057E+05
 0.26649998E+02  0.15172E+05
 0.26699999E+02  0.17133E+05
 0.26749998E+02  0.19021E+05
 0.26799999E+02  0.20805E+05
 0.26849998E+02  0.22705E+05
 0.26899998E+02  0.24615E+05
 0.26949999E+02  0.26375E+05
 0.26999998E+02  0.28450E+05
 0.27049997E+02  0.30480E+05
 0.27099998E+02  0.31991E+05
 0.27149998E+02  0.33495E+05
 0.27199999E+02  0.35019E+05
 0.27249998E+02  0.36215E+05
 0.27299997E+02  0.37268E+05
 0.27349998E+02  0.37908E+05
 0.27399998E+02  0.38308E+05
 0.27449999E+02  0.38835E+05
 0.27499998E+02  0.39433E+05
 0.27549997E+02  0.40188E+05
 0.27599998E+02  0.40998E+05
 0.27649998E+02  0.41051E+05
 0.27699999E+02  0.40112E+05
 0.27749998E+02  0.38580E+05
 0.27799997E+02  0.36222E+05
 0.27849998E+02  0.33244E+05
 0.27899998E+02  0.30224E+05
 0.27949999E+02  0.27600E+05
 0.27999998E+02  0.25061E+05
 0.28049997E+02  0.22557E+05
 0.28099998E+02  0.19925E+05
 0.28149998E+02  0.17454E+05
 0.28199999E+02  0.15267E+05
 0.28249998E+02  0.13005E+05
 0.28299997E+02  0.10734E+05
 0.28349998E+02  0.82057E+04
 0.28399998E+02  0.57161E+04
 0.28449999E+02  0.37848E+04
 0.28499998E+02  0.27548E+04
 0.28549997E+02  0.25571E+04
 0.28599998E+02  0.23103E+04
 0.28649998E+02  0.17894E+04
 0.28699999E+02  0.18043E+04
 0.28749998E+02  0.18983E+04
 0.28799997E+02  0.18232E+04
 0.28849998E+02  0.24226E+04
 0.28899998E+02  0.33773E+04
 0.28949999E+02  0.35529E+04
 0.28999998E+02  0.31817E+04
 0.29049997E+02  0.23258E+04
 0.29099998E+02  0.11909E+04
 0.29149998E+02  0.67225E+03
 0.29199999E+02  0.91034E+03
 0.29249998E+02  0.11726E+04
 0.29299997E+02  0.95562E+03
 0.29349998E+02  0.55270E+03
 0.29399998E+02 -0.11793E+03
 0.29449999E+02 -0.12155E+03
 0.29499998E+02  0.83471E+03
 0.29549997E+02  0.21164E+04
 0.29599998E+02  0.39226E+04
 0.29649998E+02  0.52680E+04
 0.29699999E+02  0.58846E+04
 0.29749998E+02  0.58918E+04
 0.29799997E+02  0.58592E+04
 0.29849998E+02  0.67040E+04
 0.29899998E+02  0.69936E+04
 0.29949999E+02  0.70171E+04
 0.29999998E+02  0.76220E+04
 0.30049999E+02  0.84484E+04
 0.30099998E+02  0.98896E+04
 0.30149998E+02  0.11486E+05
 0.30199997E+02  0.11763E+05
 0.30249996E+02  0.11669E+05
 0.30299999E+02  0.10985E+05
 0.30349998E+02  0.10287E+05
 0.30399998E+02  0.10536E+05
 0.30449997E+02  0.10663E+05
 0.30499996E+02  0.11460E+05
 0.30549999E+02  0.12482E+05
 0.30599998E+02  0.13475E+05
 0.30649998E+02  0.13782E+05
 0.30699997E+02  0.13078E+05
 0.30749996E+02  0.13347E+05
 0.30799999E+02  0.14613E+05
 0.30849998E+02  0.15855E+05
 0.30899998E+02  0.16091E+05
 0.30949997E+02  0.16107E+05
 0.30999996E+02  0.17743E+05
 0.31049999E+02  0.20503E+05
 0.31099998E+02  0.23514E+05
 0.31149998E+02  0.25913E+05
 0.31199997E+02  0.27373E+05
 0.31249996E+02  0.27031E+05
 0.31299999E+02  0.24918E+05
 0.31349998E+02  0.24622E+05
 0.31399998E+02  0.26018E+05
 0.31449997E+02  0.26778E+05
 0.31499996E+02  0.30158E+05
 0.31549999E+02  0.32047E+05
 0.31599998E+02  0.32034E+05
 0.31649998E+02  0.33354E+05
 0.31699997E+02  0.36127E+05
 0.31749996E+02  0.39998E+05
 0.31799999E+02  0.43752E+05
 0.31849998E+02  0.47587E+05
 0.31899998E+02  0.47268E+05
 0.31949997E+02  0.42971E+05
 0.31999996E+02  0.37318E+05
 0.32049999E+02  0.32156E+05
 0.32099998E+02  0.27291E+05
 0.32149998E+02  0.23361E+05
 0.32199997E+02  0.22393E+05
 0.32249996E+02  0.19425E+05
 0.32299999E+02  0.15484E+05
 0.32349998E+02  0.17978E+05
 0.32399998E+02  0.19596E+05
 0.32449997E+02  0.20989E+05
 0.32499996E+02  0.24520E+05
 0.32549999E+02  0.28217E+05
 0.32599998E+02  0.28333E+05
 0.32649998E+02  0.25587E+05
 0.32699997E+02  0.18747E+05
 0.32749996E+02  0.13292E+05
 0.32799999E+02  0.22546E+05
 0.32849998E+02  0.25924E+05
 0.32899998E+02  0.33248E+05
 0.32949997E+02  0.37515E+05
 0.32999996E+02  0.34564E+05
 0.33049999E+02  0.35643E+05
 0.33099998E+02  0.24365E+05
 0.33149998E+02  0.14422E+05
 0.33199997E+02  0.30530E+04
 0.33249996E+02 -0.65657E+04
 0.33299999E+02 -0.36495E+04
 0.33349998E+02  0.20467E+04
 0.33399998E+02  0.86126E+03
 0.33449997E+02  0.41307E+04
 0.33499996E+02  0.13783E+05
 0.33549999E+02  0.19219E+05
 0.33599998E+02  0.27026E+05
 0.33649998E+02  0.32823E+05
 0.33699997E+02  0.36849E+05
 0.33749996E+02  0.44929E+05
 0.33799999E+02  0.57320E+05
 0.33849998E+02  0.63857E+05
 0.33899998E+02  0.64125E+05
 0.33949997E+02  0.69381E+05
 0.33999996E+02  0.75300E+05
 0.34049999E+02  0.73795E+05
 0.34099998E+02  0.71492E+05
 0.34149998E+02  0.59815E+05
 0.34199997E+02  0.40351E+05
 0.34249996E+02  0.31075E+05
 0.34299999E+02  0.23322E+05
 0.34349998E+02  0.13580E+05
 0.34399998E+02  0.55608E+04
 0.34449997E+02  0.59875E+04
 0.34499996E+02  0.64634E+04
 0.34549999E+02  0.49930E+04
 0.34599998E+02 -0.49423E+04
 0.34649998E+02 -0.16815E+05
 0.34699997E+02 -0.13187E+05
 0.34749996E+02 -0.11606E+05
 0.34799999E+02 -0.83782E+04
 0.34849998E+02 -0.81698E+04
 0.34899998E+02 -0.80238E+04
 0.34949997E+02 -0.10946E+05
 0.34999996E+02 -0.19915E+05
 0.35049999E+02 -0.23470E+05
 0.35099998E+02 -0.28821E+05
 0.35149998E+02 -0.32710E+05
 0.35199997E+02 -0.29570E+05
 0.35249996E+02 -0.15718E+05
 0.35299999E+02 -0.55041E+04
 0.35349998E+02  0.12580E+05
 0.35399998E+02  0.34537E+05
 0.35449997E+02  0.56463E+05
 0.35499996E+02  0.72718E+05
 0.35549999E+02  0.66589E+05
 0.35599998E+02  0.51186E+05
 0.35649998E+02  0.21516E+05
 0.35699997E+02 -0.20914E+04
 0.35749996E+02 -0.93952E+04
 0.35799999E+02 -0.12573E+05
 0.35849998E+02 -0.85026E+04
 0.35899998E+02 -0.26567E+04
 0.35949997E+02  0.62587E+04
 0.35999996E+02  0.68154E+04
 0.36049999E+02 -0.90583E+04
 0.36099998E+02 -0.25753E+05
 0.36149998E+02 -0.36206E+05
 0.36199997E+02 -0.39956E+05
 0.36249996E+02 -0.46528E+05
 0.36299999E+02 -0.52097E+05
 0.36349998E+02 -0.69142E+05
 0.36399998E+02 -0.82622E+05
 0.36449997E+02 -0.77993E+05
 0.36499996E+02 -0.74060E+05
 0.36549999E+02 -0.56326E+05
 0.36599998E+02 -0.33251E+05
 0.36649998E+02 -0.31790E+04
 0.36699997E+02  0.32767E+05
 0.36749996E+02  0.57706E+05
 0.36799999E+02  0.71003E+05
 0.36849998E+02  0.82151E+05
 0.36899998E+02  0.10192E+06
 0.36949997E+02  0.12052E+06
 0.36999996E+02  0.12845E+06
 0.37049999E+02  0.13194E+06
 0.37099998E+02  0.11934E+06
 0.37149998E+02  0.10115E+06
 0.37199997E+02  0.10158E+06
 0.37249996E+02  0.96221E+05
 0.37299999E+02  0.78646E+05
 0.37349998E+02  0.43674E+05
 0.37399998E+02  0.85018E+04
 0.37449997E+02 -0.15061E+05
 0.37499996E+02 -0.29887E+05
 0.37549999E+02 -0.43586E+05
 0.37599998E+02 -0.69012E+05
 0.37649998E+02 -0.87719E+05
 0.37699997E+02 -0.84900E+05
 0.37749996E+02 -0.55850E+05
 0.37799999E+02 -0.17666E+05
 0.37849998E+02  0.22610E+05
 0.37899998E+02  0.55269E+05
 0.37949997E+02  0.93548E+05
 0.37999996E+02  0.11628E+06
 0.38049999E+02  0.11018E+06
 0.38099998E+02  0.10060E+06
 0.38149998E+02  0.93058E+05
 0.38199997E+02  0.94051E+05
 0.38249996E+02  0.81057E+05
 0.38299999E+02  0.79236E+05
 0.38349998E+02  0.75319E+05
 0.38399998E+02  0.60486E+05
 0.38449997E+02  0.59889E+05
 0.38499996E+02  0.62205E+05
 0.38549999E+02  0.71768E+05
 0.38599998E+02  0.85956E+05
 0.38649998E+02  0.11263E+06
 0.38699997E+02  0.13270E+06
 0.38749996E+02  0.12041E+06
 0.38799999E+02  0.94802E+05
 0.38849998E+02  0.51586E+05
 0.38899998E+02 -0.16134E+05
 0.38949997E+02 -0.69376E+05
 0.38999996E+02 -0.91638E+05
 0.39049999E+02 -0.95750E+05
 0.39099998E+02 -0.79295E+05
 0.39149998E+02 -0.50085E+05
 0.39199997E+02 -0.26977E+05
 0.39249996E+02 -0.15730E+05
 0.39299999E+02 -0.15541E+05
 0.39349998E+02 -0.10442E+05
 0.39399998E+02  0.14122E+05
 0.39449997E+02  0.40851E+05
 0.39499996E+02  0.59305E+05
 0.39549999E+02  0.79239E+05
 0.39599998E+02  0.82515E+05
 0.39649998E+02  0.62396E+05
 0.39699997E+02  0.47393E+05
 0.39749996E+02  0.54488E+05
 0.39799999E+02  0.77174E+05
 0.39849998E+02  0.11276E+06
 0.39899998E+02  0.14181E+06
 0.39949997E+02  0.14695E+06
 0.39999996E+02  0.13384E+06
 0.40049999E+02  0.95786E+05
 0.40099998E+02  0.57378E+05
 0.40149998E+02  0.26355E+05
 0.40199997E+02  0.43626E+04
 0.40249996E+02  0.34614E+04
 0.40299999E+02  0.28485E+04
 0.40349998E+02 -0.10020E+05
 0.40399998E+02 -0.45382E+05
 0.40449997E+02 -0.90688E+05
 0.40499996E+02 -0.12864E+06
 0.40549999E+02 -0.13839E+06
 0.40599998E+02 -0.11575E+06
 0.40649998E+02 -0.75390E+05
 0.40699997E+02 -0.13746E+05
 0.40749996E+02  0.47899E+05
 0.40799999E+02  0.85636E+05
 0.40849998E+02  0.96066E+05
 0.40899998E+02  0.84062E+05
 0.40949997E+02  0.45994E+05
 0.40999996E+02 -0.20087E+04
 0.41049999E+02 -0.40074E+05
 0.41099998E+02 -0.72106E+05
 0.41149998E+02 -0.90351E+05
 0.41199997E+02 -0.91014E+05
 0.41249996E+02 -0.60769E+05
 0.41299999E+02 -0.44709E+04
 0.41349998E+02  0.39804E+05
 0.41399998E+02  0.57110E+05
 0.41449997E+02  0.54351E+05
 0.41499996E+02  0.40768E+05
 0.41549999E+02  0.26931E+05
 0.41599998E+02  0.10814E+05
 0.41649998E+02  0.14868E+04
 0.41699997E+02  0.12260E+05
 0.41749996E+02  0.26053E+05
 0.41799999E+02  0.30315E+05
 0.41849998E+02  0.20744E+05
 0.41899998E+02 -0.17129E+04
 0.41949997E+02 -0.35545E+05
 0.41999996E+02 -0.62084E+05
 0.42049999E+02 -0.68197E+05
 0.42099998E+02 -0.58043E+05
 0.42149998E+02 -0.24205E+05
 0.42199997E+02  0.36785E+04
 0.42249996E+02  0.14308E+05
 0.42299999E+02  0.19224E+05
 0.42349998E+02  0.14731E+05
 0.42399998E+02  0.13855E+05
 0.42449997E+02  0.14506E+05
 0.42499996E+02  0.13226E+05
 0.42549999E+02  0.37207E+05
 0.42599998E+02  0.83843E+05
 0.42649998E+02  0.12158E+06
 0.42699997E+02  0.15175E+06
 0.42749996E+02  0.17154E+06
 0.42799995E+02  0.18024E+06
 0.42849998E+02  0.17537E+06
 0.42899998E+02  0.15831E+06
 0.42949997E+02  0.13835E+06
 0.42999996E+02  0.11556E+06
 0.43049995E+02  0.83909E+05
 0.43099998E+02  0.38060E+05
 0.43149998E+02  0.10782E+04
 0.43199997E+02 -0.29923E+05
 0.43249996E+02 -0.47126E+05
 0.43299995E+02 -0.44343E+05
 0.43349998E+02 -0.34763E+05
 0.43399998E+02 -0.20719E+05
 0.43449997E+02 -0.10371E+05
 0.43499996E+02  0.16388E+04
 0.43549995E+02  0.32128E+04
 0.43599998E+02 -0.11644E+05
 0.43649998E+02 -0.25751E+05
 0.43699997E+02 -0.27099E+05
 0.43749996E+02 -0.31028E+05
 0.43799995E+02 -0.43209E+05
 0.43849998E+02 -0.46040E+05
 0.43899998E+02 -0.41115E+05
 0.43949997E+02 -0.30477E+05
 0.43999996E+02 -0.85841E+04
 0.44049995E+02  0.25525E+05
 0.44099998E+02  0.58729E+05
 0.44149998E+02  0.75328E+05
 0.44199997E+02  0.75620E+05
 0.44249996E+02  0.65253E+05
 0.44299995E+02  0.50429E+05
 0.44349998E+02  0.35802E+05
 0.44399998E+02  0.12976E+05
 0.44449997E+02 -0.64570E+04
 0.44499996E+02 -0.13737E+05
 0.44549995E+02 -0.25002E+05
 0.44599998E+02 -0.31609E+05
 0.44649998E+02 -0.21046E+05
 0.44699997E+02 -0.89870E+04
 0.44749996E+02 -0.53279E+04
 0.44799995E+02 -0.17371E+05
 0.44849998E+02 -0.41855E+05
 0.44899998E+02 -0.60456E+05
 0.44949997E+02 -0.62747E+05
 0.44999996E+02 -0.47795E+05
 0.45049995E+02 -0.27143E+05
 0.45099998E+02  0.45053E+04
 0.45149998E+02  0.46079E+05
 0.45199997E+02  0.69551E+05
 0.45249996E+02  0.58445E+05
 0.45299995E+02  0.33340E+05
 0.45349998E+02  0.77042E+04
 0.45399998E+02 -0.22392E+04
 0.45449997E+02 -0.76734E+03
 0.45499996E+02 -0.45873E+04
 0.45549995E+02  0.51337E+04
 0.45599998E+02  0.16314E+05
 0.45649998E+02  0.14248E+05
 0.45699997E+02  0.75383E+04
 0.45749996E+02  0.82365E+04
 0.45799995E+02  0.11310E+05
 0.45849998E+02  0.64888E+04
 0.45899998E+02  0.29214E+04
 0.45949997E+02 -0.47826E+04
 0.45999996E+02 -0.10910E+05
 0.46049995E+02 -0.40242E+04
 0.46099998E+02 -0.22783E+04
 0.46149998E+02 -0.13443E+05
 0.46199997E+02 -0.22707E+05
 0.46249996E+02 -0.19653E+05
 0.46299995E+02 -0.35594E+04
 0.46349998E+02  0.22553E+05
 0.46399998E+02  0.53122E+05
 0.46449997E+02  0.71131E+05
 0.46499996E+02  0.84516E+05
 0.46549995E+02  0.11025E+06
 0.46599998E+02  0.13014E+06
 0.46649998E+02  0.13970E+06
 0.46699997E+02  0.13148E+06
 0.46749996E+02  0.10591E+06
 0.46799995E+02  0.76115E+05
 0.46849998E+02  0.44376E+05
 0.46899998E+02  0.17088E+05
 0.46949997E+02 -0.16450E+04
 0.46999996E+02 -0.25064E+05
 0.47049995E+02 -0.52044E+05
 0.47099998E+02 -0.67695E+05
 0.47149998E+02 -0.71399E+05
 0.47199997E+02 -0.62079E+05
 0.47249996E+02 -0.49498E+05
 0.47299995E+02 -0.38168E+05
 0.47349998E+02 -0.23580E+05
 0.47399998E+02 -0.45732E+04
 0.47449997E+02  0.64344E+04
 0.47499996E+02  0.77520E+04
 0.47549995E+02  0.45726E+04
 0.47599998E+02 -0.85094E+04
 0.47649998E+02 -0.22223E+05
 0.47699997E+02 -0.35563E+05
 0.47749996E+02 -0.45447E+05
 0.47799995E+02 -0.51101E+05
 0.47849998E+02 -0.59682E+05
 0.47899998E+02 -0.55910E+05
 0.47949997E+02 -0.40306E+05
 0.47999996E+02 -0.15778E+05
 0.48049995E+02  0.12669E+05
 0.48099998E+02  0.37931E+05
 0.48149998E+02  0.60170E+05
 0.48199997E+02  0.76555E+05
 0.48249996E+02  0.86103E+05
 0.48299995E+02  0.80038E+05
 0.48349998E+02  0.73582E+05
 0.48399998E+02  0.68186E+05
 0.48449997E+02  0.53008E+05
 0.48499996E+02  0.44380E+05
 0.48549995E+02  0.44901E+05
 0.48599998E+02  0.46619E+05
 0.48649998E+02  0.54393E+05
 0.48699997E+02  0.68096E+05
 0.48749996E+02  0.70628E+05
 0.48799995E+02  0.71094E+05
 0.48849998E+02  0.80960E+05
 0.48899998E+02  0.82781E+05
 0.48949997E+02  0.73979E+05
 0.48999996E+02  0.53888E+05
 0.49049995E+02  0.21711E+05
 0.49099998E+02 -0.15193E+05
 0.49149998E+02 -0.52193E+05
 0.49199997E+02 -0.86722E+05
 0.49249996E+02 -0.10879E+06
 0.49299995E+02 -0.11240E+06
 0.49349998E+02 -0.10492E+06
 0.49399998E+02 -0.91767E+05
 0.49449997E+02 -0.76460E+05
 0.49499996E+02 -0.60365E+05
 0.49549995E+02 -0.36850E+05
 0.49599998E+02 -0.75111E+04
 0.49649998E+02  0.12169E+05
 0.49699997E+02  0.13925E+05
 0.49749996E+02  0.37051E+04
 0.49799995E+02 -0.11817E+05
 0.49849998E+02 -0.29892E+05
 0.49899998E+02 -0.41803E+05
 0.49949997E+02 -0.48234E+05
 0.49999996E+02 -0.48646E+05
 0.50049995E+02 -0.42004E+05
 0.50099998E+02 -0.36620E+05
 0.50149998E+02 -0.26211E+05
 0.50199997E+02 -0.10235E+05
 0.50249996E+02 -0.98534E+04
 0.50299995E+02 -0.30295E+05
 0.50349998E+02 -0.49517E+05
 0.50399998E+02 -0.54919E+05
 0.50449997E+02 -0.48160E+05
 0.50499996E+02 -0.36679E+05
 0.50549995E+02 -0.30216E+05
 0.50599998E+02 -0.30993E+05
 0.50649998E+02 -0.44388E+05
 0.50699997E+02 -0.59036E+05
 0.50749996E+02 -0.64434E+05
 0.50799995E+02 -0.58492E+05
 0.50849998E+02 -0.38727E+05
 0.50899998E+02 -0.17743E+05
 0.50949997E+02 -0.36646E+04
 0.50999996E+02  0.69526E+04
 0.51049995E+02  0.15108E+05
 0.51099998E+02  0.21114E+05
 0.51149998E+02  0.31820E+05
 0.51199997E+02  0.40073E+05
 0.51249996E+02  0.32468E+05
 0.51299995E+02  0.10904E+05
 0.51349998E+02 -0.46764E+04
 0.51399998E+02 -0.85261E+04
 0.51449997E+02 -0.83505E+04
 0.51499996E+02 -0.35391E+04
 0.51549995E+02 -0.50582E+04
 0.51599998E+02 -0.13571E+05
 0.51649998E+02 -0.21871E+05
 0.51699997E+02 -0.34231E+05
 0.51749996E+02 -0.38821E+05
 0.51799995E+02 -0.32985E+05
 0.51849998E+02 -0.28180E+05
 0.51899998E+02 -0.24915E+05
 0.51949997E+02 -0.22625E+05
 0.51999996E+02 -0.20256E+05
 0.52049995E+02 -0.97859E+04
 0.52099998E+02  0.10365E+05
 0.52149998E+02  0.32130E+05
 0.52199997E+02  0.50884E+05
 0.52249996E+02  0.63537E+05
 0.52299995E+02  0.67479E+05
 0.52349998E+02  0.62827E+05
 0.52399998E+02  0.53411E+05
 0.52449997E+02  0.45124E+05
 0.52499996E+02  0.38483E+05
 0.52549995E+02  0.28691E+05
 0.52599998E+02  0.14976E+05
 0.52649998E+02  0.90495E+03
 0.52699997E+02 -0.15667E+05
 0.52749996E+02 -0.24685E+05
 0.52799995E+02 -0.26264E+05
 0.52849998E+02 -0.27967E+05
 0.52899998E+02 -0.26796E+05
 0.52949997E+02 -0.27768E+05
 0.52999996E+02 -0.22752E+05
 0.53049995E+02 -0.13216E+05
 0.53099998E+02 -0.17343E+04
 0.53149998E+02  0.53522E+04
 0.53199997E+02 -0.21562E+04
 0.53249996E+02 -0.15963E+05
 0.53299995E+02 -0.28183E+05
 0.53349998E+02 -0.34189E+05
 0.53399998E+02 -0.34477E+05
 0.53449997E+02 -0.19655E+05
 0.53499996E+02  0.19428E+04
 0.53549995E+02  0.17220E+05
 0.53599998E+02  0.28125E+05
 0.53649998E+02  0.35465E+05
 0.53699997E+02  0.38107E+05
 0.53749996E+02  0.32008E+05
 0.53799995E+02  0.21829E+05
 0.53849998E+02  0.84988E+03
 0.53899998E+02 -0.21254E+05
 0.53949997E+02 -0.37422E+05
 0.53999996E+02 -0.53422E+05
 0.54049995E+02 -0.54288E+05
 0.54099998E+02 -0.45081E+05
 0.54149998E+02 -0.36744E+05
 0.54199997E+02 -0.32087E+05
 0.54249996E+02 -0.24622E+05
 0.54299995E+02  0.31005E+03
 0.54349998E+02  0.28696E+05
 0.54399998E+02  0.50299E+05
 0.54449997E+02  0.62062E+05
 0.54499996E+02  0.63422E+05
 0.54549995E+02  0.65919E+05
 0.54599998E+02  0.65039E+05
 0.54649998E+02  0.60582E+05
 0.54699997E+02  0.53930E+05
 0.54749996E+02  0.52307E+05
 0.54799995E+02  0.51179E+05
 0.54849998E+02  0.42677E+05
 0.54899998E+02  0.31598E+05
 0.54949997E+02  0.15159E+05
 0.54999996E+02  0.10099E+05
 0.55049995E+02  0.16171E+05
 0.55099998E+02  0.30449E+05
 0.55149998E+02  0.45376E+05
 0.55199997E+02  0.50328E+05
 0.55249996E+02  0.60785E+05
 0.55299995E+02  0.85782E+05
 0.55349998E+02  0.11156E+06
 0.55399998E+02  0.12283E+06
 0.55449997E+02  0.11593E+06
 0.55499996E+02  0.94397E+05
 0.55549995E+02  0.66847E+05
 0.55599998E+02  0.37477E+05
 0.55649998E+02  0.21673E+05
 0.55699997E+02  0.27541E+05
 0.55749996E+02  0.40987E+05
 0.55799995E+02  0.47508E+05
 0.55849995E+02  0.50744E+05
 0.55899998E+02  0.57131E+05
 0.55949997E+02  0.64585E+05
 0.55999996E+02  0.77928E+05
 0.56049995E+02  0.10346E+06
 0.56099995E+02  0.13810E+06
 0.56149998E+02  0.16553E+06
 0.56199997E+02  0.17097E+06
 0.56249996E+02  0.16263E+06
 0.56299995E+02  0.15985E+06
 0.56349995E+02  0.17197E+06
 0.56399998E+02  0.19489E+06
 0.56449997E+02  0.21793E+06
 0.56499996E+02  0.23710E+06
 0.56549995E+02  0.25521E+06
 0.56599995E+02  0.25651E+06
 0.56649998E+02  0.23870E+06
 0.56699997E+02  0.21346E+06
 0.56749996E+02  0.18434E+06
 0.56799995E+02  0.16154E+06
 0.56849995E+02  0.14948E+06
 0.56899998E+02  0.14680E+06
 0.56949997E+02  0.15522E+06
 0.56999996E+02  0.17177E+06
 0.57049995E+02  0.18434E+06
 0.57099995E+02  0.18906E+06
 0.57149998E+02  0.19322E+06
 0.57199997E+02  0.20160E+06
 0.57249996E+02  0.19892E+06
 0.57299995E+02  0.17354E+06
 0.57349995E+02  0.13886E+06
 0.57399998E+02  0.10912E+06
 0.57449997E+02  0.92503E+05
 0.57499996E+02  0.94133E+05
 0.57549995E+02  0.10379E+06
 0.57599995E+02  0.11892E+06
 0.57649998E+02  0.14545E+06
 0.57699997E+02  0.16187E+06
 0.57749996E+02  0.13774E+06
 0.57799995E+02  0.72992E+05
 0.57849995E+02  0.20751E+04
 0.57899998E+02 -0.46063E+05
 0.57949997E+02 -0.76959E+05
 0.57999996E+02 -0.11336E+06
 0.58049995E+02 -0.14810E+06
 0.58099995E+02 -0.16264E+06
 0.58149998E+02 -0.16121E+06
 0.58199997E+02 -0.16091E+06
 0.58249996E+02 -0.17659E+06
 0.58299995E+02 -0.19245E+06
 0.58349995E+02 -0.18794E+06
 0.58399998E+02 -0.16097E+06
 0.58449997E+02 -0.12910E+06
 0.58499996E+02 -0.11215E+06
 0.58549995E+02 -0.10031E+06
 0.58599995E+02 -0.63049E+05
 0.58649998E+02 -0.71195E+02
 0.58699997E+02  0.56926E+05
 0.58749996E+02  0.94664E+05
 0.58799995E+02  0.12564E+06
 0.58849995E+02  0.16509E+06
 0.58899998E+02  0.21139E+06
 0.58949997E+02  0.26191E+06
 0.58999996E+02  0.30673E+06
 0.59049995E+02  0.32765E+06
 0.59099995E+02  0.30452E+06
 0.59149998E+02  0.23228E+06
 0.59199997E+02  0.13960E+06
 0.59249996E+02  0.62286E+05
 0.59299995E+02  0.10618E+05
 0.59349995E+02 -0.27669E+05
 0.59399998E+02 -0.57011E+05
 0.59449997E+02 -0.78257E+05
 0.59499996E+02 -0.10241E+06
 0.59549995E+02 -0.13022E+06
 0.59599995E+02 -0.15261E+06
 0.59649998E+02 -0.15972E+06
 0.59699997E+02 -0.15209E+06
 0.59749996E+02 -0.15120E+06
 0.59799995E+02 -0.16982E+06
 0.59849995E+02 -0.19953E+06
 0.59899998E+02 -0.22933E+06
 0.59949997E+02 -0.25389E+06
 0.59999996E+02 -0.25430E+06
 0.60049995E+02 -0.22712E+06
 0.60099995E+02 -0.19145E+06
 0.60149998E+02 -0.15073E+06
 0.60199997E+02 -0.11436E+06
 0.60249996E+02 -0.83820E+05
 0.60299995E+02 -0.46917E+05
 0.60349995E+02 -0.62468E+04
 0.60399998E+02  0.43364E+05
 0.60449997E+02  0.99866E+05
 0.60499996E+02  0.14721E+06
 0.60549995E+02  0.18147E+06
 0.60599995E+02  0.21818E+06
 0.60649998E+02  0.26377E+06
 0.60699997E+02  0.30921E+06
 0.60749996E+02  0.34814E+06
 0.60799995E+02  0.37913E+06
 0.60849995E+02  0.40616E+06
 0.60899998E+02  0.40995E+06
 0.60949997E+02  0.36745E+06
 0.60999996E+02  0.28430E+06
 0.61049995E+02  0.18929E+06
 0.61099995E+02  0.10902E+06
 0.61149998E+02  0.58405E+05
 0.61199997E+02  0.48495E+05
 0.61249996E+02  0.75907E+05
 0.61299995E+02  0.11399E+06
 0.61349995E+02  0.12098E+06
 0.61399998E+02  0.88895E+05
 0.61449997E+02  0.49139E+05
 0.61499996E+02  0.19215E+05
 0.61549995E+02 -0.78666E+04
 0.61599995E+02 -0.38818E+05
 0.61649998E+02 -0.60561E+05
 0.61699997E+02 -0.72840E+05
 0.61749996E+02 -0.90453E+05
 0.61799995E+02 -0.11243E+06
 0.61849995E+02 -0.12520E+06
 0.61899998E+02 -0.11223E+06
 0.61949997E+02 -0.76308E+05
 0.61999996E+02 -0.34731E+05
 0.62049995E+02 -0.83453E+04
 0.62099998E+02 -0.10997E+05
 0.62149994E+02 -0.39997E+05
 0.62199997E+02 -0.79649E+05
 0.62249992E+02 -0.10210E+06
 0.62299995E+02 -0.88024E+05
 0.62349998E+02 -0.41553E+05
 0.62399994E+02  0.18872E+05
 0.62449997E+02  0.71931E+05
 0.62499992E+02  0.96730E+05
 0.62549995E+02  0.85916E+05
 0.62599998E+02  0.58349E+05
 0.62649994E+02  0.31479E+05
 0.62699997E+02  0.14100E+05
 0.62749992E+02  0.16465E+05
 0.62799995E+02  0.28948E+05
 0.62849998E+02  0.28411E+05
 0.62899994E+02  0.55796E+04
 0.62949997E+02 -0.38735E+05
 0.62999992E+02 -0.99590E+05
 0.63049995E+02 -0.16133E+06
 0.63099998E+02 -0.20844E+06
 0.63149994E+02 -0.24108E+06
 0.63199997E+02 -0.26692E+06
 0.63249992E+02 -0.29154E+06
 0.63299995E+02 -0.31818E+06
 0.63349998E+02 -0.34300E+06
 0.63399994E+02 -0.36738E+06
 0.63449997E+02 -0.38874E+06
 0.63499992E+02 -0.39775E+06
 0.63549995E+02 -0.37571E+06
 0.63599998E+02 -0.30234E+06
 0.63649994E+02 -0.18846E+06
 0.63699997E+02 -0.52058E+05
 0.63749992E+02  0.89308E+05
 0.63799995E+02  0.20777E+06
 0.63849998E+02  0.28345E+06
 0.63899994E+02  0.31043E+06
 0.63949997E+02  0.29950E+06
 0.63999992E+02  0.26760E+06
 0.64049995E+02  0.22793E+06
 0.64099998E+02  0.20260E+06
 0.64149994E+02  0.20179E+06
 0.64199997E+02  0.21686E+06
 0.64249992E+02  0.23021E+06
 0.64299995E+02  0.22439E+06
 0.64349998E+02  0.19679E+06
 0.64399994E+02  0.16502E+06
 0.64449997E+02  0.15228E+06
 0.64499992E+02  0.15923E+06
 0.64549995E+02  0.16734E+06
 0.64599998E+02  0.16468E+06
 0.64649994E+02  0.15111E+06
 0.64699997E+02  0.13174E+06
 0.64749992E+02  0.10016E+06
 0.64799995E+02  0.44268E+05
 0.64849998E+02 -0.30577E+05
 0.64899994E+02 -0.10400E+06
 0.64949997E+02 -0.15847E+06
 0.64999992E+02 -0.18610E+06
 0.65049995E+02 -0.18334E+06
 0.65099998E+02 -0.16657E+06
 0.65149994E+02 -0.15514E+06
 0.65199997E+02 -0.16823E+06
 0.65249992E+02 -0.20406E+06
 0.65299995E+02 -0.23409E+06
 0.65349998E+02 -0.24041E+06
 0.65399994E+02 -0.22814E+06
 0.65449997E+02 -0.21115E+06
 0.65499992E+02 -0.19186E+06
 0.65549995E+02 -0.17313E+06
 0.65599998E+02 -0.15539E+06
 0.65649994E+02 -0.14184E+06
 0.65699997E+02 -0.13537E+06
 0.65749992E+02 -0.14117E+06
 0.65799995E+02 -0.16178E+06
 0.65849998E+02 -0.17945E+06
 0.65899994E+02 -0.18533E+06
 0.65949997E+02 -0.18004E+06
 0.65999992E+02 -0.16529E+06
 0.66049995E+02 -0.14753E+06
 0.66099998E+02 -0.13393E+06
 0.66149994E+02 -0.12749E+06
 0.66199997E+02 -0.12434E+06
 0.66249992E+02 -0.11336E+06
 0.66299995E+02 -0.79716E+05
 0.66349998E+02 -0.22571E+05
 0.66399994E+02  0.42642E+05
 0.66449997E+02  0.92314E+05
 0.66499992E+02  0.11248E+06
 0.66549995E+02  0.10343E+06
 0.66599998E+02  0.67834E+05
 0.66649994E+02  0.15019E+05
 0.66699997E+02 -0.40273E+05
 0.66749992E+02 -0.87236E+05
 0.66799995E+02 -0.11745E+06
 0.66849998E+02 -0.13046E+06
 0.66899994E+02 -0.12761E+06
 0.66949997E+02 -0.10752E+06
 0.66999992E+02 -0.78771E+05
 0.67049995E+02 -0.54284E+05
 0.67099998E+02 -0.44265E+05
 0.67149994E+02 -0.52520E+05
 0.67199997E+02 -0.77775E+05
 0.67249992E+02 -0.11376E+06
 0.67299995E+02 -0.13886E+06
 0.67349998E+02 -0.13193E+06
 0.67399994E+02 -0.88026E+05
 0.67449997E+02 -0.16881E+05
 0.67499992E+02  0.65751E+05
 0.67549995E+02  0.14488E+06
 0.67599998E+02  0.19834E+06
 0.67649994E+02  0.20994E+06
 0.67699997E+02  0.18278E+06
 0.67749992E+02  0.13638E+06
 0.67799995E+02  0.96216E+05
 0.67849998E+02  0.77667E+05
 0.67899994E+02  0.81306E+05
 0.67949997E+02  0.10342E+06
 0.67999992E+02  0.13612E+06
 0.68049995E+02  0.16651E+06
 0.68099998E+02  0.19242E+06
 0.68149994E+02  0.21371E+06
 0.68199997E+02  0.22784E+06
 0.68249992E+02  0.23571E+06
 0.68299995E+02  0.23865E+06
 0.68349998E+02  0.23240E+06
 0.68399994E+02  0.21322E+06
 0.68449997E+02  0.18775E+06
 0.68499992E+02  0.16149E+06
 0.68549995E+02  0.13473E+06
 0.68599998E+02  0.10724E+06
 0.68649994E+02  0.80605E+05
 0.68699997E+02  0.54861E+05
 0.68749992E+02  0.33434E+05
 0.68799995E+02  0.23428E+05
 0.68849998E+02  0.30463E+05
 0.68899994E+02  0.52778E+05
 0.68949997E+02  0.84207E+05
 0.68999992E+02  0.11666E+06
 0.69049995E+02  0.14324E+06
 0.69099998E+02  0.16061E+06
 0.69149994E+02  0.16324E+06
 0.69199997E+02  0.14859E+06
 0.69249992E+02  0.11995E+06
 0.69299995E+02  0.88034E+05
 0.69349998E+02  0.68730E+05
 0.69399994E+02  0.70802E+05
 0.69449997E+02  0.87778E+05
 0.69499992E+02  0.11444E+06
 0.69549995E+02  0.14403E+06
 0.69599998E+02  0.16494E+06
 0.69649994E+02  0.17182E+06
 0.69699997E+02  0.16972E+06
 0.69749992E+02  0.16625E+06
 0.69799995E+02  0.16155E+06
 0.69849998E+02  0.15190E+06
 0.69899994E+02  0.13276E+06
 0.69949997E+02  0.10594E+06
 0.69999992E+02  0.78544E+05
 0.70049995E+02  0.61948E+05
 0.70099998E+02  0.64782E+05
 0.70149994E+02  0.87950E+05
 0.70199997E+02  0.12605E+06
 0.70249992E+02  0.16543E+06
 0.70299995E+02  0.19414E+06
 0.70349998E+02  0.20977E+06
 0.70399994E+02  0.20771E+06
 0.70449997E+02  0.18303E+06
 0.70499992E+02  0.13715E+06
 0.70549995E+02  0.73688E+05
 0.70599998E+02  0.21733E+04
 0.70649994E+02 -0.65919E+05
 0.70699997E+02 -0.12064E+06
 0.70749992E+02 -0.15509E+06
 0.70799995E+02 -0.16942E+06
 0.70849998E+02 -0.16767E+06
 0.70899994E+02 -0.15444E+06
 0.70949997E+02 -0.13563E+06
 0.70999992E+02 -0.11363E+06
 0.71049995E+02 -0.90019E+05
 0.71099998E+02 -0.73247E+05
 0.71149994E+02 -0.73828E+05
 0.71199997E+02 -0.94461E+05
 0.71249992E+02 -0.12950E+06
 0.71299995E+02 -0.17070E+06
 0.71349998E+02 -0.20668E+06
 0.71399994E+02 -0.22644E+06
 0.71449997E+02 -0.22378E+06
 0.71499992E+02 -0.19438E+06
 0.71549995E+02 -0.14405E+06
 0.71599998E+02 -0.88576E+05
 0.71649994E+02 -0.39343E+05
 0.71699997E+02 -0.23163E+04
 0.71749992E+02  0.21212E+05
 0.71799995E+02  0.30634E+05
 0.71849998E+02  0.26072E+05
 0.71899994E+02  0.11578E+05
 0.71949997E+02 -0.57418E+04
 0.71999992E+02 -0.18891E+05
 0.72049995E+02 -0.21982E+05
 0.72099998E+02 -0.10468E+05
 0.72149994E+02  0.13626E+05
 0.72199997E+02  0.44735E+05
 0.72249992E+02  0.78251E+05
 0.72299995E+02  0.11186E+06
 0.72349998E+02  0.14425E+06
 0.72399994E+02  0.17418E+06
 0.72449997E+02  0.19853E+06
 0.72499992E+02  0.21271E+06
 0.72549995E+02  0.21384E+06
 0.72599998E+02  0.19968E+06
 0.72649994E+02  0.17084E+06
 0.72699997E+02  0.13136E+06
 0.72749992E+02  0.89362E+05
 0.72799995E+02  0.52227E+05
 0.72849998E+02  0.18824E+05
 0.72899994E+02 -0.11328E+05
 0.72949997E+02 -0.35664E+05
 0.72999992E+02 -0.48875E+05
 0.73049995E+02 -0.44146E+05
 0.73099998E+02 -0.21257E+05
 0.73149994E+02  0.15616E+05
 0.73199997E+02  0.58847E+05
 0.73249992E+02  0.96186E+05
 0.73299995E+02  0.11603E+06
 0.73349998E+02  0.11578E+06
 0.73399994E+02  0.10077E+06
 0.73449997E+02  0.76607E+05
 0.73499992E+02  0.44987E+05
 0.73549995E+02  0.71617E+04
 0.73599998E+02 -0.32606E+05
 0.73649994E+02 -0.63824E+05
 0.73699997E+02 -0.78176E+05
 0.73749992E+02 -0.73196E+05
 0.73799995E+02 -0.50602E+05
 0.73849998E+02 -0.18147E+05
 0.73899994E+02  0.14266E+05
 0.73949997E+02  0.37445E+05
 0.73999992E+02  0.52465E+05
 0.74049995E+02  0.64859E+05
 0.74099998E+02  0.77934E+05
 0.74149994E+02  0.98015E+05
 0.74199997E+02  0.12635E+06
 0.74249992E+02  0.15785E+06
 0.74299995E+02  0.18646E+06
 0.74349998E+02  0.20594E+06
 0.74399994E+02  0.21635E+06
 0.74449997E+02  0.21903E+06
 0.74499992E+02  0.21329E+06
 0.74549995E+02  0.20082E+06
 0.74599998E+02  0.18712E+06
 0.74649994E+02  0.17915E+06
 0.74699997E+02  0.18099E+06
 0.74749992E+02  0.18990E+06
 0.74799995E+02  0.20123E+06
 0.74849998E+02  0.21013E+06
 0.74899994E+02  0.20657E+06
 0.74949997E+02  0.18637E+06
 0.74999992E+02  0.15443E+06
 0.75049995E+02  0.11801E+06
 0.75099998E+02  0.82020E+05
 0.75149994E+02  0.49790E+05
 0.75199997E+02  0.24125E+05
 0.75249992E+02  0.63262E+04
 0.75299995E+02 -0.43373E+04
 0.75349998E+02 -0.11052E+05
 0.75399994E+02 -0.13691E+05
 0.75449997E+02 -0.10861E+05
 0.75499992E+02 -0.44350E+04
 0.75549995E+02  0.16919E+04
 0.75599998E+02  0.50982E+04
 0.75649994E+02  0.64674E+04
 0.75699997E+02  0.80760E+04
 0.75749992E+02  0.88295E+04
 0.75799995E+02  0.39380E+04
 0.75849998E+02 -0.59557E+04
 0.75899994E+02 -0.16569E+05
 0.75949997E+02 -0.25334E+05
 0.75999992E+02 -0.33637E+05
 0.76049995E+02 -0.44648E+05
 0.76099998E+02 -0.59424E+05
 0.76149994E+02 -0.80836E+05
 0.76199997E+02 -0.10918E+06
 0.76249992E+02 -0.14291E+06
 0.76299995E+02 -0.17965E+06
 0.76349998E+02 -0.21068E+06
 0.76399994E+02 -0.23058E+06
 0.76449997E+02 -0.23837E+06
 0.76499992E+02 -0.23368E+06
 0.76549995E+02 -0.21948E+06
 0.76599998E+02 -0.20253E+06
 0.76649994E+02 -0.18963E+06
 0.76699997E+02 -0.18619E+06
 0.76749992E+02 -0.19335E+06
 0.76799995E+02 -0.20663E+06
 0.76849998E+02 -0.22325E+06
 0.76899994E+02 -0.23918E+06
 0.76949997E+02 -0.24911E+06
 0.76999992E+02 -0.24982E+06
 0.77049995E+02 -0.24277E+06
 0.77099998E+02 -0.23202E+06
 0.77149994E+02 -0.22000E+06
 0.77199997E+02 -0.20827E+06
 0.77249992E+02 -0.19665E+06
 0.77299995E+02 -0.18491E+06
 0.77349998E+02 -0.17393E+06
 0.77399994E+02 -0.16563E+06
 0.77449997E+02 -0.16054E+06
 0.77499992E+02 -0.15950E+06
 0.77549995E+02 -0.16449E+06
 0.77599998E+02 -0.17509E+06
 0.77649994E+02 -0.18784E+06
 0.77699997E+02 -0.19864E+06
 0.77749992E+02 -0.20567E+06
 0.77799995E+02 -0.20709E+06
 0.77849998E+02 -0.20096E+06
 0.77899994E+02 -0.18794E+06
 0.77949997E+02 -0.17192E+06
 0.77999992E+02 -0.15620E+06
 0.78049995E+02 -0.13991E+06
 0.78099998E+02 -0.11925E+06
 0.78149994E+02 -0.90318E+05
 0.78199997E+02 -0.54003E+05
 0.78249992E+02 -0.14323E+05
 0.78299995E+02  0.27308E+05
 0.78349998E+02  0.71026E+05
 0.78399994E+02  0.11409E+06
 0.78449997E+02  0.15373E+06
 0.78499992E+02  0.18727E+06
 0.78549995E+02  0.21268E+06
 0.78599998E+02  0.23135E+06
 0.78649994E+02  0.24359E+06
 0.78699997E+02  0.24993E+06
 0.78749992E+02  0.25260E+06
 0.78799995E+02  0.25494E+06
 0.78849998E+02  0.26156E+06
 0.78899994E+02  0.27499E+06
 0.78949997E+02  0.29252E+06
 0.78999992E+02  0.30669E+06
 0.79049995E+02  0.31094E+06
 0.79099998E+02  0.30351E+06
 0.79149994E+02  0.28378E+06
 0.79199997E+02  0.25197E+06
 0.79249992E+02  0.21146E+06
 0.79299995E+02  0.16691E+06
 0.79349998E+02  0.12255E+06
 0.79399994E+02  0.82736E+05
 0.79449997E+02  0.48508E+05
 0.79499992E+02  0.19429E+05
 0.79549995E+02 -0.43937E+04
 0.79599998E+02 -0.24927E+05
 0.79649994E+02 -0.43850E+05
 0.79699997E+02 -0.62159E+05
 0.79749992E+02 -0.79465E+05
 0.79799995E+02 -0.94831E+05
 0.79849998E+02 -0.10383E+06
 0.79899994E+02 -0.10438E+06
 0.79949997E+02 -0.98401E+05
 0.79999992E+02 -0.87640E+05
 0.80049995E+02 -0.76397E+05
 0.80099998E+02 -0.68192E+05
 0.80149994E+02 -0.64269E+05
 0.80199997E+02 -0.62607E+05
 0.80249992E+02 -0.60816E+05
 0.80299995E+02 -0.56550E+05
 0.80349998E+02 -0.48295E+05
 0.80399994E+02 -0.38030E+05
 0.80449997E+02 -0.27778E+05
 0.80499992E+02 -0.17444E+05
 0.80549995E+02 -0.74497E+04
 0.80599998E+02  0.16228E+04
 0.80649994E+02  0.12135E+05
 0.80699997E+02  0.26395E+05
 0.80749992E+02  0.45364E+05
 0.80799995E+02  0.68235E+05
 0.80849998E+02  0.94249E+05
 0.80899994E+02  0.12216E+06
 0.80949997E+02  0.14965E+06
 0.80999992E+02  0.17580E+06
 0.81049995E+02  0.19845E+06
 0.81099998E+02  0.21369E+06
 0.81149994E+02  0.21857E+06
 0.81199997E+02  0.21344E+06
 0.81249992E+02  0.20142E+06
 0.81299995E+02  0.18527E+06
 0.81349998E+02  0.16702E+06
 0.81399994E+02  0.14713E+06
 0.81449997E+02  0.12659E+06
 0.81499992E+02  0.10786E+06
 0.81549995E+02  0.92625E+05
 0.81599998E+02  0.81181E+05
 0.81649994E+02  0.73678E+05
 0.81699997E+02  0.71872E+05
 0.81749992E+02  0.76058E+05
 0.81799995E+02  0.83587E+05
 0.81849998E+02  0.90932E+05
 0.81899994E+02  0.94949E+05
 0.81949997E+02  0.94025E+05
 0.81999992E+02  0.88071E+05
 0.82049995E+02  0.76560E+05
 0.82099998E+02  0.60475E+05
 0.82149994E+02  0.42256E+05
 0.82199997E+02  0.24310E+05
 0.82249992E+02  0.87343E+04
 0.82299995E+02 -0.14371E+04
 0.82349998E+02 -0.30322E+04
 0.82399994E+02  0.47302E+04
 0.82449997E+02  0.20312E+05
 0.82499992E+02  0.39117E+05
 0.82549995E+02  0.55295E+05
 0.82599998E+02  0.65401E+05
 0.82649994E+02  0.68016E+05
 0.82699997E+02  0.63022E+05
 0.82749992E+02  0.51298E+05
 0.82799995E+02  0.34198E+05
 0.82849998E+02  0.16286E+05
 0.82899994E+02  0.72446E+03
 0.82949997E+02 -0.11850E+05
 0.82999992E+02 -0.20083E+05
 0.83049995E+02 -0.22430E+05
 0.83099998E+02 -0.16266E+05
 0.83149994E+02 -0.15831E+04
 0.83199997E+02  0.17432E+05
 0.83249992E+02  0.35986E+05
 0.83299995E+02  0.51448E+05
 0.83349998E+02  0.61824E+05
 0.83399994E+02  0.64768E+05
 0.83449997E+02  0.60828E+05
 0.83499992E+02  0.52186E+05
 0.83549995E+02  0.41225E+05
 0.83599998E+02  0.31228E+05
 0.83649994E+02  0.23739E+05
 0.83699997E+02  0.18984E+05
 0.83749992E+02  0.17306E+05
 0.83799995E+02  0.19083E+05
 0.83849998E+02  0.22313E+05
 0.83899994E+02  0.22835E+05
 0.83949997E+02  0.16810E+05
 0.83999992E+02  0.27288E+04
 0.84049995E+02 -0.18859E+05
 0.84099998E+02 -0.46632E+05
 0.84149994E+02 -0.76169E+05
 0.84199997E+02 -0.10330E+06
 0.84249992E+02 -0.12529E+06
 0.84299995E+02 -0.13854E+06
 0.84349998E+02 -0.14177E+06
 0.84399994E+02 -0.13566E+06
 0.84449997E+02 -0.12179E+06
 0.84499992E+02 -0.10494E+06
 0.84549995E+02 -0.89673E+05
 0.84599998E+02 -0.75273E+05
 0.84649994E+02 -0.57900E+05
 0.84699997E+02 -0.35427E+05
 0.84749992E+02 -0.84898E+04
 0.84799995E+02  0.20838E+05
 0.84849998E+02  0.50619E+05
 0.84899994E+02  0.78248E+05
 0.84949997E+02  0.10258E+06
 0.84999992E+02  0.12242E+06
 0.85049995E+02  0.13663E+06
 0.85099998E+02  0.14598E+06
 0.85149994E+02  0.15044E+06
 0.85199997E+02  0.15087E+06
 0.85249992E+02  0.14984E+06
 0.85299995E+02  0.14976E+06
 0.85349998E+02  0.15095E+06
 0.85399994E+02  0.15179E+06
 0.85449997E+02  0.14995E+06
 0.85499992E+02  0.14596E+06
 0.85549995E+02  0.14157E+06
 0.85599998E+02  0.13721E+06
 0.85649994E+02  0.13281E+06
 0.85699997E+02  0.12776E+06
 0.85749992E+02  0.12213E+06
 0.85799995E+02  0.11664E+06
 0.85849998E+02  0.11137E+06
 0.85899994E+02  0.10663E+06
 0.85949997E+02  0.10464E+06
 0.85999992E+02  0.10616E+06
 0.86049995E+02  0.11051E+06
 0.86099998E+02  0.11665E+06
 0.86149994E+02  0.12282E+06
 0.86199997E+02  0.12739E+06
 0.86249992E+02  0.12985E+06
 0.86299995E+02  0.13042E+06
 0.86349998E+02  0.12956E+06
 0.86399994E+02  0.12779E+06
 0.86449997E+02  0.12476E+06
 0.86499992E+02  0.12147E+06
 0.86549995E+02  0.11841E+06
 0.86599998E+02  0.11500E+06
 0.86649994E+02  0.11109E+06
 0.86699997E+02  0.10690E+06
 0.86749992E+02  0.10152E+06
 0.86799995E+02  0.93743E+05
 0.86849998E+02  0.83555E+05
 0.86899994E+02  0.72198E+05
 0.86949997E+02  0.61129E+05
 0.86999992E+02  0.50398E+05
 0.87049995E+02  0.39079E+05
 0.87099998E+02  0.26894E+05
 0.87149994E+02  0.16591E+05
 0.87199997E+02  0.86517E+04
 0.87249992E+02 -0.14738E+04
 0.87299995E+02 -0.16759E+05
 0.87349998E+02 -0.36241E+05
 0.87399994E+02 -0.57224E+05
 0.87449997E+02 -0.75826E+05
 0.87499992E+02 -0.88600E+05
 0.87549995E+02 -0.94569E+05
 0.87599991E+02 -0.95764E+05
 0.87649994E+02 -0.94865E+05
 0.87699997E+02 -0.92704E+05
 0.87749992E+02 -0.89861E+05
 0.87799995E+02 -0.87049E+05
 0.87849991E+02 -0.84078E+05
 0.87899994E+02 -0.80604E+05
 0.87949997E+02 -0.75834E+05
 0.87999992E+02 -0.70142E+05
 0.88049995E+02 -0.64629E+05
 0.88099991E+02 -0.58770E+05
 0.88149994E+02 -0.51910E+05
 0.88199997E+02 -0.43556E+05
 0.88249992E+02 -0.33536E+05
 0.88299995E+02 -0.23171E+05
 0.88349991E+02 -0.14544E+05
 0.88399994E+02 -0.89646E+04
 0.88449997E+02 -0.74566E+04
 0.88499992E+02 -0.10395E+05
 0.88549995E+02 -0.16940E+05
 0.88599991E+02 -0.25395E+05
 0.88649994E+02 -0.33883E+05
 0.88699997E+02 -0.39534E+05
 0.88749992E+02 -0.40080E+05
 0.88799995E+02 -0.35517E+05
 0.88849991E+02 -0.25876E+05
 0.88899994E+02 -0.11358E+05
 0.88949997E+02  0.72244E+04
 0.88999992E+02  0.27283E+05
 0.89049995E+02  0.44876E+05
 0.89099991E+02  0.57944E+05
 0.89149994E+02  0.65982E+05
 0.89199997E+02  0.69274E+05
 0.89249992E+02  0.69393E+05
 0.89299995E+02  0.67884E+05
 0.89349991E+02  0.67132E+05
 0.89399994E+02  0.69196E+05
 0.89449997E+02  0.74628E+05
 0.89499992E+02  0.83595E+05
 0.89549995E+02  0.93901E+05
 0.89599991E+02  0.10252E+06
 0.89649994E+02  0.10684E+06
 0.89699997E+02  0.10510E+06
 0.89749992E+02  0.97431E+05
 0.89799995E+02  0.84222E+05
 0.89849991E+02  0.66367E+05
 0.89899994E+02  0.44378E+05
 0.89949997E+02  0.16897E+05
 0.89999992E+02 -0.16279E+05
 0.90049995E+02 -0.54374E+05
 0.90099991E+02 -0.95713E+05
 0.90149994E+02 -0.13781E+06
 0.90199997E+02 -0.17839E+06
 0.90249992E+02 -0.21552E+06
 0.90299995E+02 -0.24855E+06
 0.90349991E+02 -0.27585E+06
 0.90399994E+02 -0.29509E+06
 0.90449997E+02 -0.30224E+06
 0.90499992E+02 -0.29935E+06
 0.90549995E+02 -0.29060E+06
 0.90599991E+02 -0.27762E+06
 0.90649994E+02 -0.26360E+06
 0.90699997E+02 -0.25068E+06
 0.90749992E+02 -0.24108E+06
 0.90799995E+02 -0.23647E+06
 0.90849991E+02 -0.23582E+06
 0.90899994E+02 -0.23586E+06
 0.90949997E+02 -0.23338E+06
 0.90999992E+02 -0.22596E+06
 0.91049995E+02 -0.21396E+06
 0.91099991E+02 -0.19719E+06
 0.91149994E+02 -0.17450E+06
 0.91199997E+02 -0.14537E+06
 0.91249992E+02 -0.11101E+06
 0.91299995E+02 -0.72955E+05
 0.91349991E+02 -0.32324E+05
 0.91399994E+02  0.88901E+04
 0.91449997E+02  0.49326E+05
 0.91499992E+02  0.88659E+05
 0.91549995E+02  0.12582E+06
 0.91599991E+02  0.15928E+06
 0.91649994E+02  0.18768E+06
 0.91699997E+02  0.21046E+06
 0.91749992E+02  0.22885E+06
 0.91799995E+02  0.24217E+06
 0.91849991E+02  0.24874E+06
 0.91899994E+02  0.24684E+06
 0.91949997E+02  0.23655E+06
 0.91999992E+02  0.22085E+06
 0.92049995E+02  0.20346E+06
 0.92099991E+02  0.18595E+06
 0.92149994E+02  0.16738E+06
 0.92199997E+02  0.14802E+06
 0.92249992E+02  0.12814E+06
 0.92299995E+02  0.10793E+06
 0.92349991E+02  0.87776E+05
 0.92399994E+02  0.68492E+05
 0.92449997E+02  0.51831E+05
 0.92499992E+02  0.39669E+05
 0.92549995E+02  0.32326E+05
 0.92599991E+02  0.28178E+05
 0.92649994E+02  0.25439E+05
 0.92699997E+02  0.23021E+05
 0.92749992E+02  0.20524E+05
 0.92799995E+02  0.18325E+05
 0.92849991E+02  0.17430E+05
 0.92899994E+02  0.18977E+05
 0.92949997E+02  0.23792E+05
 0.92999992E+02  0.29592E+05
 0.93049995E+02  0.33101E+05
 0.93099991E+02  0.33095E+05
 0.93149994E+02  0.30474E+05
 0.93199997E+02  0.27420E+05
 0.93249992E+02  0.24980E+05
 0.93299995E+02  0.23169E+05
 0.93349991E+02  0.21365E+05
 0.93399994E+02  0.19353E+05
 0.93449997E+02  0.17670E+05
 0.93499992E+02  0.17074E+05
 0.93549995E+02  0.17644E+05
 0.93599991E+02  0.18591E+05
 0.93649994E+02  0.19540E+05
 0.93699997E+02  0.20620E+05
 0.93749992E+02  0.23396E+05
 0.93799995E+02  0.29446E+05
 0.93849991E+02  0.38119E+05
 0.93899994E+02  0.47797E+05
 0.93949997E+02  0.57582E+05
 0.93999992E+02  0.67786E+05
 0.94049995E+02  0.78920E+05
 0.94099991E+02  0.91537E+05
 0.94149994E+02  0.10553E+06
 0.94199997E+02  0.12046E+06
 0.94249992E+02  0.13596E+06
 0.94299995E+02  0.15056E+06
 0.94349991E+02  0.16283E+06
 0.94399994E+02  0.17058E+06
 0.94449997E+02  0.17178E+06
 0.94499992E+02  0.16509E+06
 0.94549995E+02  0.15004E+06
 0.94599991E+02  0.12794E+06
 0.94649994E+02  0.10069E+06
 0.94699997E+02  0.70992E+05
 0.94749992E+02  0.41015E+05
 0.94799995E+02  0.11205E+05
 0.94849991E+02 -0.18412E+05
 0.94899994E+02 -0.47501E+05
 0.94949997E+02 -0.75544E+05
 0.94999992E+02 -0.10124E+06
 0.95049995E+02 -0.12353E+06
 0.95099991E+02 -0.14148E+06
 0.95149994E+02 -0.15414E+06
 0.95199997E+02 -0.16146E+06
 0.95249992E+02 -0.16318E+06
 0.95299995E+02 -0.15982E+06
 0.95349991E+02 -0.15226E+06
 0.95399994E+02 -0.14024E+06
 0.95449997E+02 -0.12411E+06
 0.95499992E+02 -0.10429E+06
 0.95549995E+02 -0.81706E+05
 0.95599991E+02 -0.56978E+05
 0.95649994E+02 -0.31052E+05
 0.95699997E+02 -0.54555E+04
 0.95749992E+02  0.19830E+05
 0.95799995E+02  0.44822E+05
 0.95849991E+02  0.69358E+05
 0.95899994E+02  0.92177E+05
 0.95949997E+02  0.11146E+06
 0.95999992E+02  0.12590E+06
 0.96049995E+02  0.13400E+06
 0.96099991E+02  0.13487E+06
 0.96149994E+02  0.12926E+06
 0.96199997E+02  0.11971E+06
 0.96249992E+02  0.10858E+06
 0.96299995E+02  0.98112E+05
 0.96349991E+02  0.90262E+05
 0.96399994E+02  0.85855E+05
 0.96449997E+02  0.84333E+05
 0.96499992E+02  0.84211E+05
 0.96549995E+02  0.83999E+05
 0.96599991E+02  0.82696E+05
 0.96649994E+02  0.79677E+05
 0.96699997E+02  0.74071E+05
 0.96749992E+02  0.66021E+05
 0.96799995E+02  0.56412E+05
 0.96849991E+02  0.46840E+05
 0.96899994E+02  0.38651E+05
 0.96949997E+02  0.32056E+05
 0.96999992E+02  0.27474E+05
 0.97049995E+02  0.24897E+05
 0.97099991E+02  0.25069E+05
 0.97149994E+02  0.28943E+05
 0.97199997E+02  0.35629E+05
 0.97249992E+02  0.44492E+05
 0.97299995E+02  0.54488E+05
 0.97349991E+02  0.64186E+05
 0.97399994E+02  0.72432E+05
 0.97449997E+02  0.78828E+05
 0.97499992E+02  0.82987E+05
 0.97549995E+02  0.83413E+05
 0.97599991E+02  0.79390E+05
 0.97649994E+02  0.71728E+05
 0.97699997E+02  0.61907E+05
 0.97749992E+02  0.51363E+05
 0.97799995E+02  0.40895E+05
 0.97849991E+02  0.30198E+05
 0.97899994E+02  0.19281E+05
 0.97949997E+02  0.84585E+04
 0.97999992E+02 -0.28002E+04
