-0.20000000E+01 -0.64766E+02
-0.19500000E+01 -0.64725E+02
-0.19000000E+01 -0.62655E+02
-0.18500000E+01 -0.64340E+02
-0.18000000E+01 -0.64023E+02
-0.17500000E+01 -0.64347E+02
-0.17000000E+01 -0.64281E+02
-0.16500001E+01 -0.63640E+02
-0.16000000E+01 -0.63931E+02
-0.15500000E+01 -0.63775E+02
-0.15000000E+01 -0.65696E+02
-0.14500000E+01 -0.64564E+02
-0.14000001E+01 -0.64355E+02
-0.13500000E+01 -0.63319E+02
-0.13000001E+01 -0.63494E+02
-0.12500000E+01 -0.64624E+02
-0.12000000E+01 -0.64361E+02
-0.11500001E+01 -0.65315E+02
-0.11000000E+01 -0.63655E+02
-0.10500001E+01 -0.63556E+02
-0.10000000E+01 -0.64107E+02
-0.95000005E+00 -0.64811E+02
-0.90000010E+00 -0.64479E+02
-0.85000002E+00 -0.63027E+02
-0.80000007E+00 -0.62787E+02
-0.75000012E+00 -0.62934E+02
-0.70000005E+00 -0.63230E+02
-0.65000010E+00 -0.65478E+02
-0.60000014E+00 -0.64324E+02
-0.55000007E+00 -0.65238E+02
-0.50000012E+00 -0.65269E+02
-0.45000005E+00 -0.65078E+02
-0.40000010E+00 -0.66016E+02
-0.35000014E+00 -0.64615E+02
-0.30000007E+00 -0.65570E+02
-0.25000012E+00 -0.64969E+02
-0.20000005E+00 -0.64896E+02
-0.15000010E+00 -0.64072E+02
-0.10000014E+00 -0.65071E+02
-0.50000072E-01 -0.64505E+02
-0.11920929E-06 -0.63731E+02
 0.49999952E-01 -0.64057E+02
 0.99999905E-01 -0.64576E+02
 0.14999986E+00 -0.64387E+02
 0.19999981E+00 -0.64741E+02
 0.24999976E+00 -0.64350E+02
 0.29999995E+00 -0.63395E+02
 0.34999990E+00 -0.63727E+02
 0.39999986E+00 -0.62958E+02
 0.44999981E+00 -0.63345E+02
 0.49999976E+00 -0.63541E+02
 0.54999995E+00 -0.63673E+02
 0.59999990E+00 -0.63298E+02
 0.64999986E+00 -0.64025E+02
 0.69999981E+00 -0.63907E+02
 0.74999976E+00 -0.64044E+02
 0.79999971E+00 -0.63834E+02
 0.84999990E+00 -0.63407E+02
 0.89999986E+00 -0.64127E+02
 0.94999981E+00 -0.64046E+02
 0.99999976E+00 -0.64249E+02
 0.10499997E+01 -0.62465E+02
 0.10999999E+01 -0.62981E+02
 0.11499999E+01 -0.63298E+02
 0.11999998E+01 -0.65258E+02
 0.12499998E+01 -0.65429E+02
 0.12999997E+01 -0.63907E+02
 0.13499999E+01 -0.64911E+02
 0.13999999E+01 -0.64085E+02
 0.14499998E+01 -0.64293E+02
 0.14999998E+01 -0.64755E+02
 0.15499997E+01 -0.65299E+02
 0.15999999E+01 -0.64093E+02
 0.16499999E+01 -0.63963E+02
 0.16999998E+01 -0.64220E+02
 0.17499998E+01 -0.64463E+02
 0.17999997E+01 -0.64988E+02
 0.18499997E+01 -0.64582E+02
 0.18999999E+01 -0.64192E+02
 0.19499998E+01 -0.63665E+02
 0.19999998E+01 -0.63513E+02
 0.20499997E+01 -0.64396E+02
 0.20999999E+01 -0.64645E+02
 0.21499996E+01 -0.64715E+02
 0.21999998E+01 -0.64335E+02
 0.22499995E+01 -0.64926E+02
 0.22999997E+01 -0.65445E+02
 0.23499999E+01 -0.64897E+02
 0.23999996E+01 -0.63746E+02
 0.24499998E+01 -0.63699E+02
 0.24999995E+01 -0.65375E+02
 0.25499997E+01 -0.64152E+02
 0.25999999E+01 -0.64931E+02
 0.26499996E+01 -0.64215E+02
 0.26999998E+01 -0.63626E+02
 0.27499995E+01 -0.63735E+02
 0.27999997E+01 -0.63145E+02
 0.28499999E+01 -0.63925E+02
 0.28999996E+01 -0.63418E+02
 0.29499998E+01 -0.63511E+02
 0.29999995E+01 -0.63977E+02
 0.30499997E+01 -0.64013E+02
 0.30999999E+01 -0.63898E+02
 0.31499996E+01 -0.63303E+02
 0.31999998E+01 -0.63666E+02
 0.32499995E+01 -0.64349E+02
 0.32999997E+01 -0.64291E+02
 0.33499999E+01 -0.63786E+02
 0.33999996E+01 -0.64310E+02
 0.34499998E+01 -0.65445E+02
 0.34999995E+01 -0.64509E+02
 0.35499997E+01 -0.63914E+02
 0.35999994E+01 -0.63892E+02
 0.36499996E+01 -0.64244E+02
 0.36999998E+01 -0.64590E+02
 0.37499995E+01 -0.64521E+02
 0.37999997E+01 -0.64025E+02
 0.38499994E+01 -0.64745E+02
 0.38999996E+01 -0.64260E+02
 0.39499998E+01 -0.64871E+02
 0.39999995E+01 -0.65026E+02
 0.40499997E+01 -0.64145E+02
 0.40999994E+01 -0.64517E+02
 0.41499996E+01 -0.64281E+02
 0.41999998E+01 -0.63865E+02
 0.42499995E+01 -0.63875E+02
 0.42999997E+01 -0.64123E+02
 0.43499994E+01 -0.65202E+02
 0.43999996E+01 -0.63911E+02
 0.44499998E+01 -0.64133E+02
 0.44999995E+01 -0.65202E+02
 0.45499997E+01 -0.63902E+02
 0.45999994E+01 -0.64353E+02
 0.46499996E+01 -0.63846E+02
 0.46999998E+01 -0.64561E+02
 0.47499995E+01 -0.63999E+02
 0.47999997E+01 -0.63588E+02
 0.48499994E+01 -0.65122E+02
 0.48999996E+01 -0.64815E+02
 0.49499998E+01 -0.64241E+02
 0.49999995E+01 -0.64480E+02
 0.50499997E+01 -0.63911E+02
 0.50999994E+01 -0.63851E+02
 0.51499996E+01 -0.63925E+02
 0.51999998E+01 -0.64325E+02
 0.52499995E+01 -0.64658E+02
 0.52999997E+01 -0.65057E+02
 0.53499994E+01 -0.64170E+02
 0.53999996E+01 -0.64525E+02
 0.54499993E+01 -0.64525E+02
 0.54999995E+01 -0.64999E+02
 0.55499997E+01 -0.65287E+02
 0.55999994E+01 -0.64126E+02
 0.56499996E+01 -0.64168E+02
 0.56999993E+01 -0.62692E+02
 0.57499995E+01 -0.64679E+02
 0.57999997E+01 -0.64543E+02
 0.58499994E+01 -0.63654E+02
 0.58999996E+01 -0.63978E+02
 0.59499993E+01 -0.63221E+02
 0.59999995E+01 -0.64462E+02
 0.60499992E+01 -0.65023E+02
 0.60999994E+01 -0.64063E+02
 0.61499996E+01 -0.65573E+02
 0.61999998E+01 -0.63921E+02
 0.62499990E+01 -0.64320E+02
 0.62999992E+01 -0.65434E+02
 0.63499994E+01 -0.63878E+02
 0.63999996E+01 -0.64689E+02
 0.64499998E+01 -0.64722E+02
 0.64999990E+01 -0.66099E+02
 0.65499992E+01 -0.64612E+02
 0.65999994E+01 -0.64909E+02
 0.66499996E+01 -0.64585E+02
 0.66999998E+01 -0.64180E+02
 0.67499990E+01 -0.64465E+02
 0.67999992E+01 -0.64052E+02
 0.68499994E+01 -0.64949E+02
 0.68999996E+01 -0.63805E+02
 0.69499998E+01 -0.64571E+02
 0.69999990E+01 -0.65001E+02
 0.70499992E+01 -0.64176E+02
 0.70999994E+01 -0.63934E+02
 0.71499996E+01 -0.64346E+02
 0.71999998E+01 -0.63658E+02
 0.72499990E+01 -0.63358E+02
 0.72999992E+01 -0.64467E+02
 0.73499994E+01 -0.64511E+02
 0.73999996E+01 -0.64068E+02
 0.74499998E+01 -0.63700E+02
 0.74999990E+01 -0.63315E+02
 0.75499992E+01 -0.63302E+02
 0.75999994E+01 -0.64780E+02
 0.76499996E+01 -0.64746E+02
 0.76999998E+01 -0.65001E+02
 0.77499990E+01 -0.64379E+02
 0.77999992E+01 -0.64416E+02
 0.78499994E+01 -0.66122E+02
 0.78999996E+01 -0.63800E+02
 0.79499998E+01 -0.63395E+02
 0.79999990E+01 -0.64844E+02
 0.80499992E+01 -0.64034E+02
 0.80999994E+01 -0.63668E+02
 0.81499996E+01 -0.64100E+02
 0.81999998E+01 -0.64260E+02
 0.82499990E+01 -0.65193E+02
 0.82999992E+01 -0.64618E+02
 0.83499994E+01 -0.64888E+02
 0.83999996E+01 -0.64681E+02
 0.84499998E+01 -0.65277E+02
 0.84999990E+01 -0.65841E+02
 0.85499992E+01 -0.63913E+02
 0.85999994E+01 -0.64245E+02
 0.86499996E+01 -0.64284E+02
 0.86999998E+01 -0.63995E+02
 0.87499990E+01 -0.64515E+02
 0.87999992E+01 -0.65166E+02
 0.88499994E+01 -0.65369E+02
 0.88999996E+01 -0.65535E+02
 0.89499998E+01 -0.64709E+02
 0.89999990E+01 -0.64983E+02
 0.90499992E+01 -0.64414E+02
 0.90999994E+01 -0.63420E+02
 0.91499996E+01 -0.65454E+02
 0.91999989E+01 -0.64240E+02
 0.92499990E+01 -0.64005E+02
 0.92999992E+01 -0.65439E+02
 0.93499994E+01 -0.64372E+02
 0.93999996E+01 -0.64096E+02
 0.94499989E+01 -0.65208E+02
 0.94999990E+01 -0.65349E+02
 0.95499992E+01 -0.64000E+02
 0.95999994E+01 -0.63320E+02
 0.96499996E+01 -0.62975E+02
 0.96999989E+01 -0.63810E+02
 0.97499990E+01 -0.63166E+02
 0.97999992E+01 -0.63559E+02
 0.98499994E+01 -0.63765E+02
 0.98999996E+01 -0.64054E+02
 0.99499989E+01 -0.63068E+02
 0.99999990E+01 -0.63720E+02
 0.10049999E+02 -0.64465E+02
 0.10099999E+02 -0.64027E+02
 0.10150000E+02 -0.63930E+02
 0.10199999E+02 -0.63732E+02
 0.10249999E+02 -0.64439E+02
 0.10299999E+02 -0.64478E+02
 0.10349999E+02 -0.64688E+02
 0.10400000E+02 -0.64353E+02
 0.10449999E+02 -0.65486E+02
 0.10499999E+02 -0.64778E+02
 0.10549999E+02 -0.63741E+02
 0.10599999E+02 -0.64343E+02
 0.10650000E+02 -0.64590E+02
 0.10699999E+02 -0.63003E+02
 0.10749999E+02 -0.64987E+02
 0.10799999E+02 -0.63485E+02
 0.10849999E+02 -0.64468E+02
 0.10900000E+02 -0.65337E+02
 0.10949999E+02 -0.64166E+02
 0.10999999E+02 -0.64545E+02
 0.11049999E+02 -0.63644E+02
 0.11099999E+02 -0.65249E+02
 0.11150000E+02 -0.64468E+02
 0.11199999E+02 -0.64440E+02
 0.11249999E+02 -0.63598E+02
 0.11299999E+02 -0.63258E+02
 0.11349999E+02 -0.63869E+02
 0.11400000E+02 -0.63349E+02
 0.11449999E+02 -0.64364E+02
 0.11499999E+02 -0.64646E+02
 0.11549999E+02 -0.63781E+02
 0.11599999E+02 -0.64130E+02
 0.11650000E+02 -0.63713E+02
 0.11699999E+02 -0.64841E+02
 0.11749999E+02 -0.65106E+02
 0.11799999E+02 -0.64405E+02
 0.11849999E+02 -0.66117E+02
 0.11900000E+02 -0.64778E+02
 0.11949999E+02 -0.63930E+02
 0.11999999E+02 -0.65458E+02
 0.12049999E+02 -0.64109E+02
 0.12099999E+02 -0.64948E+02
 0.12150000E+02 -0.63835E+02
 0.12199999E+02 -0.63153E+02
 0.12249999E+02 -0.63837E+02
 0.12299999E+02 -0.65182E+02
 0.12349999E+02 -0.64926E+02
 0.12400000E+02 -0.63959E+02
 0.12449999E+02 -0.63947E+02
 0.12499999E+02 -0.63206E+02
 0.12549999E+02 -0.63723E+02
 0.12599999E+02 -0.63374E+02
 0.12649999E+02 -0.64138E+02
 0.12699999E+02 -0.64083E+02
 0.12749999E+02 -0.64670E+02
 0.12799999E+02 -0.62849E+02
 0.12849999E+02 -0.63403E+02
 0.12899999E+02 -0.63749E+02
 0.12949999E+02 -0.64491E+02
 0.12999999E+02 -0.64042E+02
 0.13049999E+02 -0.62418E+02
 0.13099999E+02 -0.64330E+02
 0.13149999E+02 -0.64082E+02
 0.13199999E+02 -0.63913E+02
 0.13249999E+02 -0.63756E+02
 0.13299999E+02 -0.63155E+02
 0.13349999E+02 -0.64166E+02
 0.13399999E+02 -0.64394E+02
 0.13449999E+02 -0.62763E+02
 0.13499999E+02 -0.63524E+02
 0.13549999E+02 -0.63817E+02
 0.13599999E+02 -0.64541E+02
 0.13649999E+02 -0.63667E+02
 0.13699999E+02 -0.61800E+02
 0.13749999E+02 -0.61793E+02
 0.13799999E+02 -0.63159E+02
 0.13849999E+02 -0.63227E+02
 0.13899999E+02 -0.61959E+02
 0.13949999E+02 -0.62874E+02
 0.13999999E+02 -0.63497E+02
 0.14049999E+02 -0.63997E+02
 0.14099998E+02 -0.63612E+02
 0.14150000E+02 -0.63111E+02
 0.14199999E+02 -0.63049E+02
 0.14249998E+02 -0.62597E+02
 0.14299999E+02 -0.64230E+02
 0.14349998E+02 -0.65196E+02
 0.14400000E+02 -0.64698E+02
 0.14449999E+02 -0.64983E+02
 0.14499998E+02 -0.64328E+02
 0.14549999E+02 -0.63653E+02
 0.14599998E+02 -0.63633E+02
 0.14650000E+02 -0.64031E+02
 0.14699999E+02 -0.63619E+02
 0.14749998E+02 -0.63846E+02
 0.14799999E+02 -0.64053E+02
 0.14849998E+02 -0.65004E+02
 0.14900000E+02 -0.64335E+02
 0.14949999E+02 -0.63277E+02
 0.14999998E+02 -0.64541E+02
 0.15049999E+02 -0.63052E+02
 0.15099998E+02 -0.64160E+02
 0.15150000E+02 -0.63205E+02
 0.15199999E+02 -0.63242E+02
 0.15249998E+02 -0.65474E+02
 0.15299999E+02 -0.64349E+02
 0.15349998E+02 -0.63819E+02
 0.15400000E+02 -0.63299E+02
 0.15449999E+02 -0.64055E+02
 0.15499998E+02 -0.63927E+02
 0.15549999E+02 -0.63784E+02
 0.15599998E+02 -0.63035E+02
 0.15650000E+02 -0.62884E+02
 0.15699999E+02 -0.63553E+02
 0.15749998E+02 -0.61586E+02
 0.15799999E+02 -0.63679E+02
 0.15849998E+02 -0.63527E+02
 0.15900000E+02 -0.62775E+02
 0.15949999E+02 -0.64058E+02
 0.15999998E+02 -0.63731E+02
 0.16049999E+02 -0.64395E+02
 0.16099998E+02 -0.62231E+02
 0.16150000E+02 -0.65427E+02
 0.16199999E+02 -0.63956E+02
 0.16249998E+02 -0.63794E+02
 0.16299999E+02 -0.63605E+02
 0.16349998E+02 -0.64220E+02
 0.16400000E+02 -0.64611E+02
 0.16449999E+02 -0.62820E+02
 0.16499998E+02 -0.65123E+02
 0.16549999E+02 -0.65129E+02
 0.16599998E+02 -0.65399E+02
 0.16650000E+02 -0.62645E+02
 0.16699999E+02 -0.64976E+02
 0.16749998E+02 -0.63660E+02
 0.16799999E+02 -0.64519E+02
 0.16849998E+02 -0.61795E+02
 0.16900000E+02 -0.65020E+02
 0.16949999E+02 -0.63310E+02
 0.16999998E+02 -0.63671E+02
 0.17049999E+02 -0.63697E+02
 0.17099998E+02 -0.62896E+02
 0.17150000E+02 -0.63681E+02
 0.17199999E+02 -0.62984E+02
 0.17249998E+02 -0.64048E+02
 0.17299999E+02 -0.64639E+02
 0.17349998E+02 -0.62704E+02
 0.17400000E+02 -0.61508E+02
 0.17449999E+02 -0.64350E+02
 0.17499998E+02 -0.62306E+02
 0.17549999E+02 -0.65773E+02
 0.17599998E+02 -0.62566E+02
 0.17650000E+02 -0.65595E+02
 0.17699999E+02 -0.61971E+02
 0.17749998E+02 -0.65149E+02
 0.17799999E+02 -0.61949E+02
 0.17849998E+02 -0.65719E+02
 0.17900000E+02 -0.64566E+02
 0.17949999E+02 -0.62448E+02
 0.17999998E+02 -0.64992E+02
 0.18049999E+02 -0.62340E+02
 0.18099998E+02 -0.65439E+02
 0.18150000E+02 -0.63422E+02
 0.18199999E+02 -0.65252E+02
 0.18249998E+02 -0.64436E+02
 0.18299999E+02 -0.65036E+02
 0.18349998E+02 -0.64333E+02
 0.18400000E+02 -0.63843E+02
 0.18449999E+02 -0.65027E+02
 0.18499998E+02 -0.63892E+02
 0.18549999E+02 -0.65817E+02
 0.18599998E+02 -0.62578E+02
 0.18650000E+02 -0.64275E+02
 0.18699999E+02 -0.64168E+02
 0.18749998E+02 -0.63601E+02
 0.18799999E+02 -0.62552E+02
 0.18849998E+02 -0.63948E+02
 0.18900000E+02 -0.64428E+02
 0.18949999E+02 -0.64692E+02
 0.18999998E+02 -0.65988E+02
 0.19049999E+02 -0.61902E+02
 0.19099998E+02 -0.66425E+02
 0.19150000E+02 -0.61183E+02
 0.19199999E+02 -0.66118E+02
 0.19249998E+02 -0.64262E+02
 0.19299999E+02 -0.66140E+02
 0.19349998E+02 -0.64802E+02
 0.19400000E+02 -0.67532E+02
 0.19449999E+02 -0.62725E+02
 0.19499998E+02 -0.66512E+02
 0.19549999E+02 -0.63472E+02
 0.19599998E+02 -0.64335E+02
 0.19650000E+02 -0.65059E+02
 0.19699999E+02 -0.63659E+02
 0.19749998E+02 -0.65387E+02
 0.19799999E+02 -0.62198E+02
 0.19849998E+02 -0.67106E+02
 0.19900000E+02 -0.61808E+02
 0.19949999E+02 -0.67379E+02
 0.19999998E+02 -0.61150E+02
 0.20049999E+02 -0.66300E+02
 0.20099998E+02 -0.63140E+02
 0.20150000E+02 -0.66024E+02
 0.20199999E+02 -0.63457E+02
 0.20249998E+02 -0.64841E+02
 0.20299999E+02 -0.63625E+02
 0.20349998E+02 -0.64137E+02
 0.20399998E+02 -0.64434E+02
 0.20449999E+02 -0.65758E+02
 0.20499998E+02 -0.64509E+02
 0.20549999E+02 -0.64022E+02
 0.20599998E+02 -0.66046E+02
 0.20649998E+02 -0.64050E+02
 0.20699999E+02 -0.66352E+02
 0.20749998E+02 -0.63212E+02
 0.20799999E+02 -0.66171E+02
 0.20849998E+02 -0.62441E+02
 0.20899998E+02 -0.65989E+02
 0.20949999E+02 -0.63163E+02
 0.20999998E+02 -0.65123E+02
 0.21049999E+02 -0.61641E+02
 0.21099998E+02 -0.66117E+02
 0.21149998E+02 -0.64181E+02
 0.21199999E+02 -0.65452E+02
 0.21249998E+02 -0.65194E+02
 0.21299999E+02 -0.65492E+02
 0.21349998E+02 -0.65602E+02
 0.21399998E+02 -0.62891E+02
 0.21449999E+02 -0.66066E+02
 0.21499998E+02 -0.62668E+02
 0.21549999E+02 -0.66106E+02
 0.21599998E+02 -0.64578E+02
 0.21649998E+02 -0.64305E+02
 0.21699999E+02 -0.63920E+02
 0.21749998E+02 -0.65627E+02
 0.21799999E+02 -0.62936E+02
 0.21849998E+02 -0.67042E+02
 0.21899998E+02 -0.64910E+02
 0.21949999E+02 -0.65982E+02
 0.21999998E+02 -0.64312E+02
 0.22049999E+02 -0.65245E+02
 0.22099998E+02 -0.65090E+02
 0.22149998E+02 -0.63403E+02
 0.22199999E+02 -0.65380E+02
 0.22249998E+02 -0.63799E+02
 0.22299999E+02 -0.65041E+02
 0.22349998E+02 -0.64491E+02
 0.22399998E+02 -0.64678E+02
 0.22449999E+02 -0.65437E+02
 0.22499998E+02 -0.64546E+02
 0.22549999E+02 -0.65243E+02
 0.22599998E+02 -0.64222E+02
 0.22649998E+02 -0.64391E+02
 0.22699999E+02 -0.64865E+02
 0.22749998E+02 -0.64082E+02
 0.22799999E+02 -0.65757E+02
 0.22849998E+02 -0.62773E+02
 0.22899998E+02 -0.65954E+02
 0.22949999E+02 -0.63507E+02
 0.22999998E+02 -0.67102E+02
 0.23049999E+02 -0.62353E+02
 0.23099998E+02 -0.65077E+02
 0.23149998E+02 -0.62774E+02
 0.23199999E+02 -0.65647E+02
 0.23249998E+02 -0.63391E+02
 0.23299999E+02 -0.64747E+02
 0.23349998E+02 -0.65310E+02
 0.23399998E+02 -0.63513E+02
 0.23449999E+02 -0.65422E+02
 0.23499998E+02 -0.63707E+02
 0.23549999E+02 -0.64558E+02
 0.23599998E+02 -0.62523E+02
 0.23649998E+02 -0.64263E+02
 0.23699999E+02 -0.63503E+02
 0.23749998E+02 -0.66036E+02
 0.23799999E+02 -0.62507E+02
 0.23849998E+02 -0.66864E+02
 0.23899998E+02 -0.61810E+02
 0.23949999E+02 -0.65865E+02
 0.23999998E+02 -0.61761E+02
 0.24049999E+02 -0.64098E+02
 0.24099998E+02 -0.62895E+02
 0.24149998E+02 -0.66179E+02
 0.24199999E+02 -0.63451E+02
 0.24249998E+02 -0.63021E+02
 0.24299999E+02 -0.65736E+02
 0.24349998E+02 -0.62172E+02
 0.24399998E+02 -0.64439E+02
 0.24449999E+02 -0.62476E+02
 0.24499998E+02 -0.65989E+02
 0.24549999E+02 -0.62721E+02
 0.24599998E+02 -0.64144E+02
 0.24649998E+02 -0.65047E+02
 0.24699999E+02 -0.65744E+02
 0.24749998E+02 -0.63218E+02
 0.24799999E+02 -0.65511E+02
 0.24849998E+02 -0.63080E+02
 0.24899998E+02 -0.64601E+02
 0.24949999E+02 -0.63535E+02
 0.24999998E+02 -0.65069E+02
 0.25049999E+02 -0.62492E+02
 0.25099998E+02 -0.64306E+02
 0.25149998E+02 -0.64062E+02
 0.25199999E+02 -0.64244E+02
 0.25249998E+02 -0.64711E+02
 0.25299999E+02 -0.61951E+02
 0.25349998E+02 -0.65372E+02
 0.25399998E+02 -0.63129E+02
 0.25449999E+02 -0.66097E+02
 0.25499998E+02 -0.63101E+02
 0.25549999E+02 -0.65102E+02
 0.25599998E+02 -0.63111E+02
 0.25649998E+02 -0.65597E+02
 0.25699999E+02 -0.64590E+02
 0.25749998E+02 -0.64142E+02
 0.25799999E+02 -0.64634E+02
 0.25849998E+02 -0.64005E+02
 0.25899998E+02 -0.63064E+02
 0.25949999E+02 -0.64311E+02
 0.25999998E+02 -0.64257E+02
 0.26049999E+02 -0.62277E+02
 0.26099998E+02 -0.66104E+02
 0.26149998E+02 -0.61580E+02
 0.26199999E+02 -0.65821E+02
 0.26249998E+02 -0.61186E+02
 0.26299999E+02 -0.67000E+02
 0.26349998E+02 -0.63860E+02
 0.26399998E+02 -0.64511E+02
 0.26449999E+02 -0.63455E+02
 0.26499998E+02 -0.65429E+02
 0.26549999E+02 -0.63587E+02
 0.26599998E+02 -0.63398E+02
 0.26649998E+02 -0.64211E+02
 0.26699999E+02 -0.62934E+02
 0.26749998E+02 -0.64313E+02
 0.26799999E+02 -0.64357E+02
 0.26849998E+02 -0.67274E+02
 0.26899998E+02 -0.65189E+02
 0.26949999E+02 -0.66847E+02
 0.26999998E+02 -0.61795E+02
 0.27049997E+02 -0.66983E+02
 0.27099998E+02 -0.60438E+02
 0.27149998E+02 -0.67746E+02
 0.27199999E+02 -0.62322E+02
 0.27249998E+02 -0.65494E+02
 0.27299997E+02 -0.61500E+02
 0.27349998E+02 -0.67107E+02
 0.27399998E+02 -0.63073E+02
 0.27449999E+02 -0.65659E+02
 0.27499998E+02 -0.65728E+02
 0.27549997E+02 -0.61734E+02
 0.27599998E+02 -0.65249E+02
 0.27649998E+02 -0.66879E+02
 0.27699999E+02 -0.67089E+02
 0.27749998E+02 -0.65266E+02
 0.27799997E+02 -0.64413E+02
 0.27849998E+02 -0.58449E+02
 0.27899998E+02 -0.64768E+02
 0.27949999E+02 -0.62283E+02
 0.27999998E+02 -0.69083E+02
 0.28049997E+02 -0.58459E+02
 0.28099998E+02 -0.66725E+02
 0.28149998E+02 -0.60179E+02
 0.28199999E+02 -0.68630E+02
 0.28249998E+02 -0.61578E+02
 0.28299997E+02 -0.67297E+02
 0.28349998E+02 -0.59729E+02
 0.28399998E+02 -0.66667E+02
 0.28449999E+02 -0.64902E+02
 0.28499998E+02 -0.64332E+02
 0.28549997E+02 -0.67738E+02
 0.28599998E+02 -0.60857E+02
 0.28649998E+02 -0.66072E+02
 0.28699999E+02 -0.59867E+02
 0.28749998E+02 -0.68088E+02
 0.28799997E+02 -0.61235E+02
 0.28849998E+02 -0.68948E+02
 0.28899998E+02 -0.59216E+02
 0.28949999E+02 -0.68423E+02
 0.28999998E+02 -0.61219E+02
 0.29049997E+02 -0.66020E+02
 0.29099998E+02 -0.60856E+02
 0.29149998E+02 -0.69760E+02
 0.29199999E+02 -0.60977E+02
 0.29249998E+02 -0.64988E+02
 0.29299997E+02 -0.61188E+02
 0.29349998E+02 -0.63205E+02
 0.29399998E+02 -0.66526E+02
 0.29449999E+02 -0.61904E+02
 0.29499998E+02 -0.67307E+02
 0.29549997E+02 -0.62000E+02
 0.29599998E+02 -0.67741E+02
 0.29649998E+02 -0.58788E+02
 0.29699999E+02 -0.70139E+02
 0.29749998E+02 -0.59008E+02
 0.29799997E+02 -0.67194E+02
 0.29849998E+02 -0.60486E+02
 0.29899998E+02 -0.65755E+02
 0.29949999E+02 -0.61385E+02
 0.29999998E+02 -0.67588E+02
 0.30049999E+02 -0.61224E+02
 0.30099998E+02 -0.66062E+02
 0.30149998E+02 -0.62588E+02
 0.30199997E+02 -0.66701E+02
 0.30249996E+02 -0.65026E+02
 0.30299999E+02 -0.64328E+02
 0.30349998E+02 -0.64602E+02
 0.30399998E+02 -0.61356E+02
 0.30449997E+02 -0.66532E+02
 0.30499996E+02 -0.60172E+02
 0.30549999E+02 -0.67538E+02
 0.30599998E+02 -0.58481E+02
 0.30649998E+02 -0.69914E+02
 0.30699997E+02 -0.58592E+02
 0.30749996E+02 -0.70506E+02
 0.30799999E+02 -0.58524E+02
 0.30849998E+02 -0.68809E+02
 0.30899998E+02 -0.59596E+02
 0.30949997E+02 -0.67238E+02
 0.30999996E+02 -0.60526E+02
 0.31049999E+02 -0.67261E+02
 0.31099998E+02 -0.62572E+02
 0.31149998E+02 -0.64168E+02
 0.31199997E+02 -0.64643E+02
 0.31249996E+02 -0.62209E+02
 0.31299999E+02 -0.68972E+02
 0.31349998E+02 -0.60630E+02
 0.31399998E+02 -0.68342E+02
 0.31449997E+02 -0.60479E+02
 0.31499996E+02 -0.68808E+02
 0.31549999E+02 -0.59931E+02
 0.31599998E+02 -0.68385E+02
 0.31649998E+02 -0.59792E+02
 0.31699997E+02 -0.69499E+02
 0.31749996E+02 -0.58376E+02
 0.31799999E+02 -0.68271E+02
 0.31849998E+02 -0.59941E+02
 0.31899998E+02 -0.68053E+02
 0.31949997E+02 -0.60971E+02
 0.31999996E+02 -0.67399E+02
 0.32049999E+02 -0.62507E+02
 0.32099998E+02 -0.64347E+02
 0.32149998E+02 -0.63856E+02
 0.32199997E+02 -0.62882E+02
 0.32249996E+02 -0.64910E+02
 0.32299999E+02 -0.62592E+02
 0.32349998E+02 -0.68842E+02
 0.32399998E+02 -0.61456E+02
 0.32449997E+02 -0.68780E+02
 0.32499996E+02 -0.58767E+02
 0.32549999E+02 -0.70608E+02
 0.32599998E+02 -0.59136E+02
 0.32649998E+02 -0.69911E+02
 0.32699997E+02 -0.59235E+02
 0.32749996E+02 -0.68014E+02
 0.32799999E+02 -0.62035E+02
 0.32849998E+02 -0.67201E+02
 0.32899998E+02 -0.61157E+02
 0.32949997E+02 -0.65581E+02
 0.32999996E+02 -0.63258E+02
 0.33049999E+02 -0.65001E+02
 0.33099998E+02 -0.64102E+02
 0.33149998E+02 -0.62648E+02
 0.33199997E+02 -0.64697E+02
 0.33249996E+02 -0.61947E+02
 0.33299999E+02 -0.67623E+02
 0.33349998E+02 -0.61211E+02
 0.33399998E+02 -0.67456E+02
 0.33449997E+02 -0.60568E+02
 0.33499996E+02 -0.69938E+02
 0.33549999E+02 -0.59349E+02
 0.33599998E+02 -0.67757E+02
 0.33649998E+02 -0.61293E+02
 0.33699997E+02 -0.67960E+02
 0.33749996E+02 -0.60693E+02
 0.33799999E+02 -0.67700E+02
 0.33849998E+02 -0.62135E+02
 0.33899998E+02 -0.64871E+02
 0.33949997E+02 -0.63864E+02
 0.33999996E+02 -0.64883E+02
 0.34049999E+02 -0.64022E+02
 0.34099998E+02 -0.62560E+02
 0.34149998E+02 -0.66942E+02
 0.34199997E+02 -0.61814E+02
 0.34249996E+02 -0.66622E+02
 0.34299999E+02 -0.62210E+02
 0.34349998E+02 -0.67877E+02
 0.34399998E+02 -0.61003E+02
 0.34449997E+02 -0.68326E+02
 0.34499996E+02 -0.61372E+02
 0.34549999E+02 -0.67835E+02
 0.34599998E+02 -0.61268E+02
 0.34649998E+02 -0.67294E+02
 0.34699997E+02 -0.60644E+02
 0.34749996E+02 -0.67425E+02
 0.34799999E+02 -0.61621E+02
 0.34849998E+02 -0.65942E+02
 0.34899998E+02 -0.63420E+02
 0.34949997E+02 -0.63654E+02
 0.34999996E+02 -0.64876E+02
 0.35049999E+02 -0.62280E+02
 0.35099998E+02 -0.65592E+02
 0.35149998E+02 -0.60472E+02
 0.35199997E+02 -0.68028E+02
 0.35249996E+02 -0.59891E+02
 0.35299999E+02 -0.68036E+02
 0.35349998E+02 -0.60232E+02
 0.35399998E+02 -0.67577E+02
 0.35449997E+02 -0.59759E+02
 0.35499996E+02 -0.65493E+02
 0.35549999E+02 -0.61589E+02
 0.35599998E+02 -0.67054E+02
 0.35649998E+02 -0.62402E+02
 0.35699997E+02 -0.66078E+02
 0.35749996E+02 -0.63890E+02
 0.35799999E+02 -0.65810E+02
 0.35849998E+02 -0.65212E+02
 0.35899998E+02 -0.62937E+02
 0.35949997E+02 -0.65093E+02
 0.35999996E+02 -0.63543E+02
 0.36049999E+02 -0.66279E+02
 0.36099998E+02 -0.61340E+02
 0.36149998E+02 -0.68057E+02
 0.36199997E+02 -0.61569E+02
 0.36249996E+02 -0.67352E+02
 0.36299999E+02 -0.60775E+02
 0.36349998E+02 -0.68046E+02
 0.36399998E+02 -0.61415E+02
 0.36449997E+02 -0.67902E+02
 0.36499996E+02 -0.62745E+02
 0.36549999E+02 -0.65942E+02
 0.36599998E+02 -0.62598E+02
 0.36649998E+02 -0.65224E+02
 0.36699997E+02 -0.64185E+02
 0.36749996E+02 -0.65874E+02
 0.36799999E+02 -0.64230E+02
 0.36849998E+02 -0.62660E+02
 0.36899998E+02 -0.65117E+02
 0.36949997E+02 -0.61867E+02
 0.36999996E+02 -0.67615E+02
 0.37049999E+02 -0.62533E+02
 0.37099998E+02 -0.67675E+02
 0.37149998E+02 -0.60480E+02
 0.37199997E+02 -0.66020E+02
 0.37249996E+02 -0.61809E+02
 0.37299999E+02 -0.67193E+02
 0.37349998E+02 -0.61570E+02
 0.37399998E+02 -0.67432E+02
 0.37449997E+02 -0.61214E+02
 0.37499996E+02 -0.65565E+02
 0.37549999E+02 -0.63517E+02
 0.37599998E+02 -0.63179E+02
 0.37649998E+02 -0.63441E+02
 0.37699997E+02 -0.63389E+02
 0.37749996E+02 -0.64968E+02
 0.37799999E+02 -0.62370E+02
 0.37849998E+02 -0.65547E+02
 0.37899998E+02 -0.62758E+02
 0.37949997E+02 -0.66048E+02
 0.37999996E+02 -0.61517E+02
 0.38049999E+02 -0.65456E+02
 0.38099998E+02 -0.62747E+02
 0.38149998E+02 -0.66717E+02
 0.38199997E+02 -0.60549E+02
 0.38249996E+02 -0.66281E+02
 0.38299999E+02 -0.61115E+02
 0.38349998E+02 -0.65580E+02
 0.38399998E+02 -0.62659E+02
 0.38449997E+02 -0.66364E+02
 0.38499996E+02 -0.64009E+02
 0.38549999E+02 -0.63652E+02
 0.38599998E+02 -0.63248E+02
 0.38649998E+02 -0.63482E+02
 0.38699997E+02 -0.63241E+02
 0.38749996E+02 -0.61997E+02
 0.38799999E+02 -0.64813E+02
 0.38849998E+02 -0.62237E+02
 0.38899998E+02 -0.65974E+02
 0.38949997E+02 -0.62157E+02
 0.38999996E+02 -0.66074E+02
 0.39049999E+02 -0.60541E+02
 0.39099998E+02 -0.65833E+02
 0.39149998E+02 -0.60595E+02
 0.39199997E+02 -0.66166E+02
 0.39249996E+02 -0.59569E+02
 0.39299999E+02 -0.64193E+02
 0.39349998E+02 -0.62162E+02
 0.39399998E+02 -0.63983E+02
 0.39449997E+02 -0.62613E+02
 0.39499996E+02 -0.63547E+02
 0.39549999E+02 -0.62777E+02
 0.39599998E+02 -0.63786E+02
 0.39649998E+02 -0.64720E+02
 0.39699997E+02 -0.61472E+02
 0.39749996E+02 -0.64457E+02
 0.39799999E+02 -0.61315E+02
 0.39849998E+02 -0.65802E+02
 0.39899998E+02 -0.60888E+02
 0.39949997E+02 -0.66262E+02
 0.39999996E+02 -0.60271E+02
 0.40049999E+02 -0.64490E+02
 0.40099998E+02 -0.61595E+02
 0.40149998E+02 -0.66400E+02
 0.40199997E+02 -0.62114E+02
 0.40249996E+02 -0.64960E+02
 0.40299999E+02 -0.61766E+02
 0.40349998E+02 -0.63180E+02
 0.40399998E+02 -0.62159E+02
 0.40449997E+02 -0.63314E+02
 0.40499996E+02 -0.63774E+02
 0.40549999E+02 -0.62437E+02
 0.40599998E+02 -0.63515E+02
 0.40649998E+02 -0.63034E+02
 0.40699997E+02 -0.63738E+02
 0.40749996E+02 -0.61979E+02
 0.40799999E+02 -0.65668E+02
 0.40849998E+02 -0.60705E+02
 0.40899998E+02 -0.66216E+02
 0.40949997E+02 -0.60483E+02
 0.40999996E+02 -0.64581E+02
 0.41049999E+02 -0.62088E+02
 0.41099998E+02 -0.65450E+02
 0.41149998E+02 -0.60405E+02
 0.41199997E+02 -0.64639E+02
 0.41249996E+02 -0.62872E+02
 0.41299999E+02 -0.64565E+02
 0.41349998E+02 -0.63319E+02
 0.41399998E+02 -0.62483E+02
 0.41449997E+02 -0.63089E+02
 0.41499996E+02 -0.63131E+02
 0.41549999E+02 -0.65051E+02
 0.41599998E+02 -0.61508E+02
 0.41649998E+02 -0.64507E+02
 0.41699997E+02 -0.63896E+02
 0.41749996E+02 -0.64853E+02
 0.41799999E+02 -0.61844E+02
 0.41849998E+02 -0.64129E+02
 0.41899998E+02 -0.61071E+02
 0.41949997E+02 -0.65173E+02
 0.41999996E+02 -0.61619E+02
 0.42049999E+02 -0.66012E+02
 0.42099998E+02 -0.61155E+02
 0.42149998E+02 -0.64112E+02
 0.42199997E+02 -0.62992E+02
 0.42249996E+02 -0.63736E+02
 0.42299999E+02 -0.63108E+02
 0.42349998E+02 -0.63302E+02
 0.42399998E+02 -0.63788E+02
 0.42449997E+02 -0.63670E+02
 0.42499996E+02 -0.64266E+02
 0.42549999E+02 -0.62635E+02
 0.42599998E+02 -0.65309E+02
 0.42649998E+02 -0.62987E+02
 0.42699997E+02 -0.64773E+02
 0.42749996E+02 -0.62889E+02
 0.42799995E+02 -0.65893E+02
 0.42849998E+02 -0.62515E+02
 0.42899998E+02 -0.65114E+02
 0.42949997E+02 -0.62109E+02
 0.42999996E+02 -0.65149E+02
 0.43049995E+02 -0.60839E+02
 0.43099998E+02 -0.64472E+02
 0.43149998E+02 -0.63084E+02
 0.43199997E+02 -0.64500E+02
 0.43249996E+02 -0.62366E+02
 0.43299995E+02 -0.63337E+02
 0.43349998E+02 -0.63994E+02
 0.43399998E+02 -0.62335E+02
 0.43449997E+02 -0.65101E+02
 0.43499996E+02 -0.63242E+02
 0.43549995E+02 -0.63336E+02
 0.43599998E+02 -0.61869E+02
 0.43649998E+02 -0.64035E+02
 0.43699997E+02 -0.60991E+02
 0.43749996E+02 -0.64302E+02
 0.43799995E+02 -0.61754E+02
 0.43849998E+02 -0.66066E+02
 0.43899998E+02 -0.62109E+02
 0.43949997E+02 -0.65024E+02
 0.43999996E+02 -0.63607E+02
 0.44049995E+02 -0.65103E+02
 0.44099998E+02 -0.61350E+02
 0.44149998E+02 -0.64252E+02
 0.44199997E+02 -0.61547E+02
 0.44249996E+02 -0.61695E+02
 0.44299995E+02 -0.63311E+02
 0.44349998E+02 -0.62810E+02
 0.44399998E+02 -0.64013E+02
 0.44449997E+02 -0.61873E+02
 0.44499996E+02 -0.64935E+02
 0.44549995E+02 -0.62333E+02
 0.44599998E+02 -0.64009E+02
 0.44649998E+02 -0.61861E+02
 0.44699997E+02 -0.65838E+02
 0.44749996E+02 -0.61888E+02
 0.44799995E+02 -0.66153E+02
 0.44849998E+02 -0.63570E+02
 0.44899998E+02 -0.66189E+02
 0.44949997E+02 -0.63110E+02
 0.44999996E+02 -0.65065E+02
 0.45049995E+02 -0.63829E+02
 0.45099998E+02 -0.64931E+02
 0.45149998E+02 -0.65021E+02
 0.45199997E+02 -0.63255E+02
 0.45249996E+02 -0.63330E+02
 0.45299995E+02 -0.63986E+02
 0.45349998E+02 -0.64275E+02
 0.45399998E+02 -0.62224E+02
 0.45449997E+02 -0.64461E+02
 0.45499996E+02 -0.63627E+02
 0.45549995E+02 -0.65934E+02
 0.45599998E+02 -0.61950E+02
 0.45649998E+02 -0.66439E+02
 0.45699997E+02 -0.62795E+02
 0.45749996E+02 -0.65737E+02
 0.45799995E+02 -0.63886E+02
 0.45849998E+02 -0.65694E+02
 0.45899998E+02 -0.62558E+02
 0.45949997E+02 -0.65459E+02
 0.45999996E+02 -0.64045E+02
 0.46049995E+02 -0.63458E+02
 0.46099998E+02 -0.63305E+02
 0.46149998E+02 -0.62837E+02
 0.46199997E+02 -0.63609E+02
 0.46249996E+02 -0.62515E+02
 0.46299995E+02 -0.63961E+02
 0.46349998E+02 -0.62615E+02
 0.46399998E+02 -0.65248E+02
 0.46449997E+02 -0.62355E+02
 0.46499996E+02 -0.66004E+02
 0.46549995E+02 -0.64408E+02
 0.46599998E+02 -0.65777E+02
 0.46649998E+02 -0.63336E+02
 0.46699997E+02 -0.63994E+02
 0.46749996E+02 -0.61807E+02
 0.46799995E+02 -0.64947E+02
 0.46849998E+02 -0.62750E+02
 0.46899998E+02 -0.64402E+02
 0.46949997E+02 -0.64683E+02
 0.46999996E+02 -0.64419E+02
 0.47049995E+02 -0.63947E+02
 0.47099998E+02 -0.64431E+02
 0.47149998E+02 -0.63933E+02
 0.47199997E+02 -0.62002E+02
 0.47249996E+02 -0.63815E+02
 0.47299995E+02 -0.63623E+02
 0.47349998E+02 -0.64023E+02
 0.47399998E+02 -0.62205E+02
 0.47449997E+02 -0.64457E+02
 0.47499996E+02 -0.61274E+02
 0.47549995E+02 -0.64367E+02
 0.47599998E+02 -0.61148E+02
 0.47649998E+02 -0.64449E+02
 0.47699997E+02 -0.62858E+02
 0.47749996E+02 -0.63759E+02
 0.47799995E+02 -0.64067E+02
 0.47849998E+02 -0.63635E+02
 0.47899998E+02 -0.63505E+02
 0.47949997E+02 -0.65014E+02
 0.47999996E+02 -0.63856E+02
 0.48049995E+02 -0.62914E+02
 0.48099998E+02 -0.64679E+02
 0.48149998E+02 -0.62974E+02
 0.48199997E+02 -0.63698E+02
 0.48249996E+02 -0.63004E+02
 0.48299995E+02 -0.64255E+02
 0.48349998E+02 -0.63019E+02
 0.48399998E+02 -0.64860E+02
 0.48449997E+02 -0.63468E+02
 0.48499996E+02 -0.64773E+02
 0.48549995E+02 -0.63234E+02
 0.48599998E+02 -0.65057E+02
 0.48649998E+02 -0.62312E+02
 0.48699997E+02 -0.63680E+02
 0.48749996E+02 -0.63010E+02
 0.48799995E+02 -0.63053E+02
 0.48849998E+02 -0.63394E+02
 0.48899998E+02 -0.63701E+02
 0.48949997E+02 -0.64321E+02
 0.48999996E+02 -0.61854E+02
 0.49049995E+02 -0.63267E+02
 0.49099998E+02 -0.62245E+02
 0.49149998E+02 -0.63051E+02
 0.49199997E+02 -0.63321E+02
 0.49249996E+02 -0.64054E+02
 0.49299995E+02 -0.63793E+02
 0.49349998E+02 -0.64308E+02
 0.49399998E+02 -0.62750E+02
 0.49449997E+02 -0.64270E+02
 0.49499996E+02 -0.63215E+02
 0.49549995E+02 -0.64381E+02
 0.49599998E+02 -0.63483E+02
 0.49649998E+02 -0.63904E+02
 0.49699997E+02 -0.63138E+02
 0.49749996E+02 -0.62797E+02
 0.49799995E+02 -0.62261E+02
 0.49849998E+02 -0.62985E+02
 0.49899998E+02 -0.63058E+02
 0.49949997E+02 -0.63825E+02
 0.49999996E+02 -0.64049E+02
 0.50049995E+02 -0.62293E+02
 0.50099998E+02 -0.63609E+02
 0.50149998E+02 -0.63065E+02
 0.50199997E+02 -0.64581E+02
 0.50249996E+02 -0.62134E+02
 0.50299995E+02 -0.63166E+02
 0.50349998E+02 -0.63414E+02
 0.50399998E+02 -0.64218E+02
 0.50449997E+02 -0.63223E+02
 0.50499996E+02 -0.63355E+02
 0.50549995E+02 -0.62168E+02
 0.50599998E+02 -0.63586E+02
 0.50649998E+02 -0.62331E+02
 0.50699997E+02 -0.63851E+02
 0.50749996E+02 -0.63742E+02
 0.50799995E+02 -0.63169E+02
 0.50849998E+02 -0.63156E+02
 0.50899998E+02 -0.62799E+02
 0.50949997E+02 -0.63402E+02
 0.50999996E+02 -0.63255E+02
 0.51049995E+02 -0.64843E+02
 0.51099998E+02 -0.63289E+02
 0.51149998E+02 -0.64033E+02
 0.51199997E+02 -0.61376E+02
 0.51249996E+02 -0.64038E+02
 0.51299995E+02 -0.62384E+02
 0.51349998E+02 -0.63797E+02
 0.51399998E+02 -0.61937E+02
 0.51449997E+02 -0.63611E+02
 0.51499996E+02 -0.63360E+02
 0.51549995E+02 -0.62933E+02
 0.51599998E+02 -0.63815E+02
 0.51649998E+02 -0.61890E+02
 0.51699997E+02 -0.63617E+02
 0.51749996E+02 -0.63152E+02
 0.51799995E+02 -0.62578E+02
 0.51849998E+02 -0.63937E+02
 0.51899998E+02 -0.63932E+02
 0.51949997E+02 -0.63219E+02
 0.51999996E+02 -0.63429E+02
 0.52049995E+02 -0.61018E+02
 0.52099998E+02 -0.63185E+02
 0.52149998E+02 -0.62893E+02
 0.52199997E+02 -0.64073E+02
 0.52249996E+02 -0.63528E+02
 0.52299995E+02 -0.65635E+02
 0.52349998E+02 -0.63088E+02
 0.52399998E+02 -0.64510E+02
 0.52449997E+02 -0.63191E+02
 0.52499996E+02 -0.62529E+02
 0.52549995E+02 -0.63851E+02
 0.52599998E+02 -0.63878E+02
 0.52649998E+02 -0.63564E+02
 0.52699997E+02 -0.63148E+02
 0.52749996E+02 -0.62124E+02
 0.52799995E+02 -0.62518E+02
 0.52849998E+02 -0.63190E+02
 0.52899998E+02 -0.62645E+02
 0.52949997E+02 -0.64942E+02
 0.52999996E+02 -0.62225E+02
 0.53049995E+02 -0.64122E+02
 0.53099998E+02 -0.62534E+02
 0.53149998E+02 -0.64102E+02
 0.53199997E+02 -0.62101E+02
 0.53249996E+02 -0.63404E+02
 0.53299995E+02 -0.63554E+02
 0.53349998E+02 -0.62886E+02
 0.53399998E+02 -0.63136E+02
 0.53449997E+02 -0.64249E+02
 0.53499996E+02 -0.63096E+02
 0.53549995E+02 -0.63957E+02
 0.53599998E+02 -0.64930E+02
 0.53649998E+02 -0.64902E+02
 0.53699997E+02 -0.64239E+02
 0.53749996E+02 -0.61572E+02
 0.53799995E+02 -0.63567E+02
 0.53849998E+02 -0.62508E+02
 0.53899998E+02 -0.64809E+02
 0.53949997E+02 -0.64753E+02
 0.53999996E+02 -0.65030E+02
 0.54049995E+02 -0.63824E+02
 0.54099998E+02 -0.63673E+02
 0.54149998E+02 -0.62680E+02
 0.54199997E+02 -0.64523E+02
 0.54249996E+02 -0.63366E+02
 0.54299995E+02 -0.63734E+02
 0.54349998E+02 -0.63919E+02
 0.54399998E+02 -0.64263E+02
 0.54449997E+02 -0.64339E+02
 0.54499996E+02 -0.62803E+02
 0.54549995E+02 -0.63390E+02
 0.54599998E+02 -0.63849E+02
 0.54649998E+02 -0.62676E+02
 0.54699997E+02 -0.63404E+02
 0.54749996E+02 -0.64545E+02
 0.54799995E+02 -0.64192E+02
 0.54849998E+02 -0.65024E+02
 0.54899998E+02 -0.63899E+02
 0.54949997E+02 -0.64346E+02
 0.54999996E+02 -0.63614E+02
 0.55049995E+02 -0.65271E+02
 0.55099998E+02 -0.64381E+02
 0.55149998E+02 -0.66027E+02
 0.55199997E+02 -0.62542E+02
 0.55249996E+02 -0.64268E+02
 0.55299995E+02 -0.64230E+02
 0.55349998E+02 -0.62863E+02
 0.55399998E+02 -0.63928E+02
 0.55449997E+02 -0.62840E+02
 0.55499996E+02 -0.63945E+02
 0.55549995E+02 -0.63962E+02
 0.55599998E+02 -0.64146E+02
 0.55649998E+02 -0.62976E+02
 0.55699997E+02 -0.63794E+02
 0.55749996E+02 -0.63589E+02
 0.55799995E+02 -0.63052E+02
 0.55849995E+02 -0.63378E+02
 0.55899998E+02 -0.63915E+02
 0.55949997E+02 -0.63220E+02
 0.55999996E+02 -0.63329E+02
 0.56049995E+02 -0.62978E+02
 0.56099995E+02 -0.63956E+02
 0.56149998E+02 -0.62481E+02
 0.56199997E+02 -0.62140E+02
 0.56249996E+02 -0.64752E+02
 0.56299995E+02 -0.65931E+02
 0.56349995E+02 -0.64152E+02
 0.56399998E+02 -0.66196E+02
 0.56449997E+02 -0.65436E+02
 0.56499996E+02 -0.64234E+02
 0.56549995E+02 -0.64750E+02
 0.56599995E+02 -0.64230E+02
 0.56649998E+02 -0.63804E+02
 0.56699997E+02 -0.63153E+02
 0.56749996E+02 -0.64873E+02
 0.56799995E+02 -0.64176E+02
 0.56849995E+02 -0.63717E+02
 0.56899998E+02 -0.63376E+02
 0.56949997E+02 -0.65074E+02
 0.56999996E+02 -0.63642E+02
 0.57049995E+02 -0.62597E+02
 0.57099995E+02 -0.61047E+02
 0.57149998E+02 -0.63382E+02
 0.57199997E+02 -0.63308E+02
 0.57249996E+02 -0.63115E+02
 0.57299995E+02 -0.64505E+02
 0.57349995E+02 -0.62391E+02
 0.57399998E+02 -0.64331E+02
 0.57449997E+02 -0.64964E+02
 0.57499996E+02 -0.63287E+02
 0.57549995E+02 -0.62318E+02
 0.57599995E+02 -0.64577E+02
 0.57649998E+02 -0.63843E+02
 0.57699997E+02 -0.62401E+02
 0.57749996E+02 -0.63866E+02
 0.57799995E+02 -0.63457E+02
 0.57849995E+02 -0.64082E+02
 0.57899998E+02 -0.62828E+02
 0.57949997E+02 -0.63392E+02
 0.57999996E+02 -0.63968E+02
 0.58049995E+02 -0.61377E+02
 0.58099995E+02 -0.63920E+02
 0.58149998E+02 -0.62490E+02
 0.58199997E+02 -0.63687E+02
 0.58249996E+02 -0.63480E+02
 0.58299995E+02 -0.63413E+02
 0.58349995E+02 -0.64085E+02
 0.58399998E+02 -0.62550E+02
 0.58449997E+02 -0.64031E+02
 0.58499996E+02 -0.63867E+02
 0.58549995E+02 -0.62997E+02
 0.58599995E+02 -0.64655E+02
 0.58649998E+02 -0.64089E+02
 0.58699997E+02 -0.62672E+02
 0.58749996E+02 -0.63306E+02
 0.58799995E+02 -0.62621E+02
 0.58849995E+02 -0.65142E+02
 0.58899998E+02 -0.64444E+02
 0.58949997E+02 -0.63983E+02
 0.58999996E+02 -0.62615E+02
 0.59049995E+02 -0.64182E+02
 0.59099995E+02 -0.64060E+02
 0.59149998E+02 -0.64712E+02
 0.59199997E+02 -0.63999E+02
 0.59249996E+02 -0.64369E+02
 0.59299995E+02 -0.64910E+02
 0.59349995E+02 -0.62094E+02
 0.59399998E+02 -0.64156E+02
 0.59449997E+02 -0.63219E+02
 0.59499996E+02 -0.63770E+02
 0.59549995E+02 -0.63714E+02
 0.59599995E+02 -0.63886E+02
 0.59649998E+02 -0.63031E+02
 0.59699997E+02 -0.64190E+02
 0.59749996E+02 -0.64495E+02
 0.59799995E+02 -0.64618E+02
 0.59849995E+02 -0.65578E+02
 0.59899998E+02 -0.65580E+02
 0.59949997E+02 -0.64133E+02
 0.59999996E+02 -0.64978E+02
 0.60049995E+02 -0.63132E+02
 0.60099995E+02 -0.63496E+02
 0.60149998E+02 -0.64644E+02
 0.60199997E+02 -0.61999E+02
 0.60249996E+02 -0.64002E+02
 0.60299995E+02 -0.64189E+02
 0.60349995E+02 -0.63327E+02
 0.60399998E+02 -0.63107E+02
 0.60449997E+02 -0.64430E+02
 0.60499996E+02 -0.63606E+02
 0.60549995E+02 -0.63902E+02
 0.60599995E+02 -0.64670E+02
 0.60649998E+02 -0.63207E+02
 0.60699997E+02 -0.62994E+02
 0.60749996E+02 -0.65103E+02
 0.60799995E+02 -0.63471E+02
 0.60849995E+02 -0.65761E+02
 0.60899998E+02 -0.64893E+02
 0.60949997E+02 -0.63525E+02
 0.60999996E+02 -0.64661E+02
 0.61049995E+02 -0.64490E+02
 0.61099995E+02 -0.63826E+02
 0.61149998E+02 -0.62901E+02
 0.61199997E+02 -0.64134E+02
 0.61249996E+02 -0.63663E+02
 0.61299995E+02 -0.63030E+02
 0.61349995E+02 -0.63616E+02
 0.61399998E+02 -0.64297E+02
 0.61449997E+02 -0.62438E+02
 0.61499996E+02 -0.63439E+02
 0.61549995E+02 -0.63152E+02
 0.61599995E+02 -0.64135E+02
 0.61649998E+02 -0.63077E+02
 0.61699997E+02 -0.63721E+02
 0.61749996E+02 -0.62679E+02
 0.61799995E+02 -0.63474E+02
 0.61849995E+02 -0.63856E+02
 0.61899998E+02 -0.63314E+02
 0.61949997E+02 -0.63094E+02
 0.61999996E+02 -0.62918E+02
 0.62049995E+02 -0.64776E+02
 0.62099998E+02 -0.64015E+02
 0.62149994E+02 -0.63630E+02
 0.62199997E+02 -0.62690E+02
 0.62249992E+02 -0.64259E+02
 0.62299995E+02 -0.64439E+02
 0.62349998E+02 -0.63178E+02
 0.62399994E+02 -0.62982E+02
 0.62449997E+02 -0.63214E+02
 0.62499992E+02 -0.62159E+02
 0.62549995E+02 -0.62312E+02
 0.62599998E+02 -0.64030E+02
 0.62649994E+02 -0.64540E+02
 0.62699997E+02 -0.62456E+02
 0.62749992E+02 -0.63906E+02
 0.62799995E+02 -0.63261E+02
 0.62849998E+02 -0.64036E+02
 0.62899994E+02 -0.64085E+02
 0.62949997E+02 -0.63226E+02
 0.62999992E+02 -0.63349E+02
 0.63049995E+02 -0.63555E+02
 0.63099998E+02 -0.63417E+02
 0.63149994E+02 -0.63311E+02
 0.63199997E+02 -0.63420E+02
 0.63249992E+02 -0.63852E+02
 0.63299995E+02 -0.64558E+02
 0.63349998E+02 -0.63889E+02
 0.63399994E+02 -0.64054E+02
 0.63449997E+02 -0.63420E+02
 0.63499992E+02 -0.63787E+02
 0.63549995E+02 -0.63226E+02
 0.63599998E+02 -0.65049E+02
 0.63649994E+02 -0.63168E+02
 0.63699997E+02 -0.64307E+02
 0.63749992E+02 -0.62954E+02
 0.63799995E+02 -0.63722E+02
 0.63849998E+02 -0.63375E+02
 0.63899994E+02 -0.62455E+02
 0.63949997E+02 -0.64578E+02
 0.63999992E+02 -0.63224E+02
 0.64049995E+02 -0.63819E+02
 0.64099998E+02 -0.64033E+02
 0.64149994E+02 -0.63118E+02
 0.64199997E+02 -0.64153E+02
 0.64249992E+02 -0.63772E+02
 0.64299995E+02 -0.62146E+02
 0.64349998E+02 -0.64312E+02
 0.64399994E+02 -0.63463E+02
 0.64449997E+02 -0.63914E+02
 0.64499992E+02 -0.63572E+02
 0.64549995E+02 -0.64429E+02
 0.64599998E+02 -0.63529E+02
 0.64649994E+02 -0.63133E+02
 0.64699997E+02 -0.62847E+02
 0.64749992E+02 -0.62983E+02
 0.64799995E+02 -0.64341E+02
 0.64849998E+02 -0.64068E+02
 0.64899994E+02 -0.64312E+02
 0.64949997E+02 -0.64603E+02
 0.64999992E+02 -0.64083E+02
 0.65049995E+02 -0.63215E+02
 0.65099998E+02 -0.63425E+02
 0.65149994E+02 -0.63241E+02
 0.65199997E+02 -0.63201E+02
 0.65249992E+02 -0.63292E+02
 0.65299995E+02 -0.63813E+02
 0.65349998E+02 -0.63151E+02
 0.65399994E+02 -0.63193E+02
 0.65449997E+02 -0.62809E+02
 0.65499992E+02 -0.63244E+02
 0.65549995E+02 -0.64521E+02
 0.65599998E+02 -0.63762E+02
 0.65649994E+02 -0.63351E+02
 0.65699997E+02 -0.64401E+02
 0.65749992E+02 -0.62981E+02
 0.65799995E+02 -0.62828E+02
 0.65849998E+02 -0.63686E+02
 0.65899994E+02 -0.63914E+02
 0.65949997E+02 -0.63155E+02
 0.65999992E+02 -0.62954E+02
 0.66049995E+02 -0.64295E+02
 0.66099998E+02 -0.63554E+02
 0.66149994E+02 -0.62550E+02
 0.66199997E+02 -0.62474E+02
 0.66249992E+02 -0.63369E+02
 0.66299995E+02 -0.62562E+02
 0.66349998E+02 -0.62707E+02
 0.66399994E+02 -0.62663E+02
 0.66449997E+02 -0.62749E+02
 0.66499992E+02 -0.63478E+02
 0.66549995E+02 -0.62778E+02
 0.66599998E+02 -0.63584E+02
 0.66649994E+02 -0.64159E+02
 0.66699997E+02 -0.63974E+02
 0.66749992E+02 -0.63496E+02
 0.66799995E+02 -0.63064E+02
 0.66849998E+02 -0.62903E+02
 0.66899994E+02 -0.64216E+02
 0.66949997E+02 -0.63948E+02
 0.66999992E+02 -0.62340E+02
 0.67049995E+02 -0.63373E+02
 0.67099998E+02 -0.63553E+02
 0.67149994E+02 -0.63311E+02
 0.67199997E+02 -0.63004E+02
 0.67249992E+02 -0.63650E+02
 0.67299995E+02 -0.64579E+02
 0.67349998E+02 -0.62672E+02
 0.67399994E+02 -0.63567E+02
 0.67449997E+02 -0.64081E+02
 0.67499992E+02 -0.63566E+02
 0.67549995E+02 -0.62575E+02
 0.67599998E+02 -0.62619E+02
 0.67649994E+02 -0.63437E+02
 0.67699997E+02 -0.62496E+02
 0.67749992E+02 -0.63588E+02
 0.67799995E+02 -0.63582E+02
 0.67849998E+02 -0.63476E+02
 0.67899994E+02 -0.62759E+02
 0.67949997E+02 -0.64230E+02
 0.67999992E+02 -0.64546E+02
 0.68049995E+02 -0.63183E+02
 0.68099998E+02 -0.62982E+02
 0.68149994E+02 -0.62736E+02
 0.68199997E+02 -0.62282E+02
 0.68249992E+02 -0.63553E+02
 0.68299995E+02 -0.63486E+02
 0.68349998E+02 -0.63018E+02
 0.68399994E+02 -0.64446E+02
 0.68449997E+02 -0.64167E+02
 0.68499992E+02 -0.62048E+02
 0.68549995E+02 -0.63411E+02
 0.68599998E+02 -0.64130E+02
 0.68649994E+02 -0.61998E+02
 0.68699997E+02 -0.63040E+02
 0.68749992E+02 -0.62974E+02
 0.68799995E+02 -0.63336E+02
 0.68849998E+02 -0.62754E+02
 0.68899994E+02 -0.63278E+02
 0.68949997E+02 -0.62301E+02
 0.68999992E+02 -0.62999E+02
 0.69049995E+02 -0.62744E+02
 0.69099998E+02 -0.61983E+02
 0.69149994E+02 -0.64138E+02
 0.69199997E+02 -0.62945E+02
 0.69249992E+02 -0.62778E+02
 0.69299995E+02 -0.63984E+02
 0.69349998E+02 -0.62756E+02
 0.69399994E+02 -0.63181E+02
 0.69449997E+02 -0.63390E+02
 0.69499992E+02 -0.62643E+02
 0.69549995E+02 -0.63024E+02
 0.69599998E+02 -0.62484E+02
 0.69649994E+02 -0.61472E+02
 0.69699997E+02 -0.62899E+02
 0.69749992E+02 -0.63623E+02
 0.69799995E+02 -0.62608E+02
 0.69849998E+02 -0.65512E+02
 0.69899994E+02 -0.63521E+02
 0.69949997E+02 -0.63405E+02
 0.69999992E+02 -0.64217E+02
 0.70049995E+02 -0.63788E+02
 0.70099998E+02 -0.62399E+02
 0.70149994E+02 -0.63939E+02
 0.70199997E+02 -0.63519E+02
 0.70249992E+02 -0.61991E+02
 0.70299995E+02 -0.63713E+02
 0.70349998E+02 -0.63891E+02
 0.70399994E+02 -0.64863E+02
 0.70449997E+02 -0.64054E+02
 0.70499992E+02 -0.64016E+02
 0.70549995E+02 -0.63601E+02
 0.70599998E+02 -0.62546E+02
 0.70649994E+02 -0.62055E+02
 0.70699997E+02 -0.62763E+02
 0.70749992E+02 -0.63311E+02
 0.70799995E+02 -0.64160E+02
 0.70849998E+02 -0.63834E+02
 0.70899994E+02 -0.64321E+02
 0.70949997E+02 -0.62807E+02
 0.70999992E+02 -0.63119E+02
 0.71049995E+02 -0.62708E+02
 0.71099998E+02 -0.64000E+02
 0.71149994E+02 -0.63179E+02
 0.71199997E+02 -0.62078E+02
 0.71249992E+02 -0.63258E+02
 0.71299995E+02 -0.62953E+02
 0.71349998E+02 -0.63012E+02
 0.71399994E+02 -0.63855E+02
 0.71449997E+02 -0.65256E+02
 0.71499992E+02 -0.64052E+02
 0.71549995E+02 -0.63953E+02
 0.71599998E+02 -0.63044E+02
 0.71649994E+02 -0.63180E+02
 0.71699997E+02 -0.63485E+02
 0.71749992E+02 -0.64301E+02
 0.71799995E+02 -0.64387E+02
 0.71849998E+02 -0.64640E+02
 0.71899994E+02 -0.63923E+02
 0.71949997E+02 -0.63295E+02
 0.71999992E+02 -0.64273E+02
 0.72049995E+02 -0.62635E+02
 0.72099998E+02 -0.62994E+02
 0.72149994E+02 -0.64400E+02
 0.72199997E+02 -0.63445E+02
 0.72249992E+02 -0.62896E+02
 0.72299995E+02 -0.62596E+02
 0.72349998E+02 -0.63982E+02
 0.72399994E+02 -0.63532E+02
 0.72449997E+02 -0.64819E+02
 0.72499992E+02 -0.63726E+02
 0.72549995E+02 -0.63627E+02
 0.72599998E+02 -0.62792E+02
 0.72649994E+02 -0.61785E+02
 0.72699997E+02 -0.64051E+02
 0.72749992E+02 -0.62893E+02
 0.72799995E+02 -0.63023E+02
 0.72849998E+02 -0.63551E+02
 0.72899994E+02 -0.64205E+02
 0.72949997E+02 -0.63587E+02
 0.72999992E+02 -0.63776E+02
 0.73049995E+02 -0.62553E+02
 0.73099998E+02 -0.62817E+02
 0.73149994E+02 -0.63837E+02
 0.73199997E+02 -0.64491E+02
 0.73249992E+02 -0.63639E+02
 0.73299995E+02 -0.64255E+02
 0.73349998E+02 -0.65399E+02
 0.73399994E+02 -0.64349E+02
 0.73449997E+02 -0.64400E+02
 0.73499992E+02 -0.64354E+02
 0.73549995E+02 -0.63049E+02
 0.73599998E+02 -0.64708E+02
 0.73649994E+02 -0.64392E+02
 0.73699997E+02 -0.63417E+02
 0.73749992E+02 -0.63863E+02
 0.73799995E+02 -0.64148E+02
 0.73849998E+02 -0.65662E+02
 0.73899994E+02 -0.64150E+02
 0.73949997E+02 -0.64820E+02
 0.73999992E+02 -0.63098E+02
 0.74049995E+02 -0.62947E+02
 0.74099998E+02 -0.63561E+02
 0.74149994E+02 -0.63039E+02
 0.74199997E+02 -0.63323E+02
 0.74249992E+02 -0.63938E+02
 0.74299995E+02 -0.65024E+02
 0.74349998E+02 -0.64840E+02
 0.74399994E+02 -0.64897E+02
 0.74449997E+02 -0.63791E+02
 0.74499992E+02 -0.63502E+02
 0.74549995E+02 -0.64729E+02
 0.74599998E+02 -0.64284E+02
 0.74649994E+02 -0.63567E+02
 0.74699997E+02 -0.63493E+02
 0.74749992E+02 -0.63939E+02
 0.74799995E+02 -0.64321E+02
 0.74849998E+02 -0.63474E+02
 0.74899994E+02 -0.64744E+02
 0.74949997E+02 -0.63695E+02
 0.74999992E+02 -0.63975E+02
 0.75049995E+02 -0.64636E+02
 0.75099998E+02 -0.64620E+02
 0.75149994E+02 -0.65198E+02
 0.75199997E+02 -0.63818E+02
 0.75249992E+02 -0.64009E+02
 0.75299995E+02 -0.64310E+02
 0.75349998E+02 -0.64253E+02
 0.75399994E+02 -0.63143E+02
 0.75449997E+02 -0.63153E+02
 0.75499992E+02 -0.65366E+02
 0.75549995E+02 -0.63299E+02
 0.75599998E+02 -0.62185E+02
 0.75649994E+02 -0.63622E+02
 0.75699997E+02 -0.62891E+02
 0.75749992E+02 -0.64247E+02
 0.75799995E+02 -0.64182E+02
 0.75849998E+02 -0.64105E+02
 0.75899994E+02 -0.66034E+02
 0.75949997E+02 -0.64982E+02
 0.75999992E+02 -0.64567E+02
 0.76049995E+02 -0.65101E+02
 0.76099998E+02 -0.65027E+02
 0.76149994E+02 -0.65564E+02
 0.76199997E+02 -0.64362E+02
 0.76249992E+02 -0.63772E+02
 0.76299995E+02 -0.64433E+02
 0.76349998E+02 -0.66187E+02
 0.76399994E+02 -0.64434E+02
 0.76449997E+02 -0.64561E+02
 0.76499992E+02 -0.64913E+02
 0.76549995E+02 -0.63820E+02
 0.76599998E+02 -0.65373E+02
 0.76649994E+02 -0.64915E+02
 0.76699997E+02 -0.63790E+02
 0.76749992E+02 -0.63228E+02
 0.76799995E+02 -0.64820E+02
 0.76849998E+02 -0.63813E+02
 0.76899994E+02 -0.64968E+02
 0.76949997E+02 -0.64206E+02
 0.76999992E+02 -0.64222E+02
 0.77049995E+02 -0.66040E+02
 0.77099998E+02 -0.64026E+02
 0.77149994E+02 -0.64388E+02
 0.77199997E+02 -0.64073E+02
 0.77249992E+02 -0.65330E+02
 0.77299995E+02 -0.64264E+02
 0.77349998E+02 -0.64561E+02
 0.77399994E+02 -0.64456E+02
 0.77449997E+02 -0.63728E+02
 0.77499992E+02 -0.64133E+02
 0.77549995E+02 -0.64573E+02
 0.77599998E+02 -0.64547E+02
 0.77649994E+02 -0.63923E+02
 0.77699997E+02 -0.65324E+02
 0.77749992E+02 -0.63964E+02
 0.77799995E+02 -0.63613E+02
 0.77849998E+02 -0.62775E+02
 0.77899994E+02 -0.64843E+02
 0.77949997E+02 -0.64018E+02
 0.77999992E+02 -0.63417E+02
 0.78049995E+02 -0.64390E+02
 0.78099998E+02 -0.63353E+02
 0.78149994E+02 -0.64521E+02
 0.78199997E+02 -0.64326E+02
 0.78249992E+02 -0.64670E+02
 0.78299995E+02 -0.63825E+02
 0.78349998E+02 -0.62819E+02
 0.78399994E+02 -0.64442E+02
 0.78449997E+02 -0.63947E+02
 0.78499992E+02 -0.63577E+02
 0.78549995E+02 -0.64564E+02
 0.78599998E+02 -0.62973E+02
 0.78649994E+02 -0.64061E+02
 0.78699997E+02 -0.64714E+02
 0.78749992E+02 -0.63834E+02
 0.78799995E+02 -0.64269E+02
 0.78849998E+02 -0.64335E+02
 0.78899994E+02 -0.64227E+02
 0.78949997E+02 -0.64267E+02
 0.78999992E+02 -0.63091E+02
 0.79049995E+02 -0.64489E+02
 0.79099998E+02 -0.63291E+02
 0.79149994E+02 -0.62885E+02
 0.79199997E+02 -0.62209E+02
 0.79249992E+02 -0.62906E+02
 0.79299995E+02 -0.65136E+02
 0.79349998E+02 -0.63564E+02
 0.79399994E+02 -0.63757E+02
 0.79449997E+02 -0.63031E+02
 0.79499992E+02 -0.63601E+02
 0.79549995E+02 -0.63708E+02
 0.79599998E+02 -0.62977E+02
 0.79649994E+02 -0.63475E+02
 0.79699997E+02 -0.63880E+02
 0.79749992E+02 -0.63151E+02
 0.79799995E+02 -0.63727E+02
 0.79849998E+02 -0.63730E+02
 0.79899994E+02 -0.63486E+02
 0.79949997E+02 -0.62216E+02
 0.79999992E+02 -0.63575E+02
 0.80049995E+02 -0.63182E+02
 0.80099998E+02 -0.61847E+02
 0.80149994E+02 -0.62973E+02
 0.80199997E+02 -0.63870E+02
 0.80249992E+02 -0.64034E+02
 0.80299995E+02 -0.63827E+02
 0.80349998E+02 -0.62950E+02
 0.80399994E+02 -0.62822E+02
 0.80449997E+02 -0.64657E+02
 0.80499992E+02 -0.63505E+02
 0.80549995E+02 -0.62533E+02
 0.80599998E+02 -0.61736E+02
 0.80649994E+02 -0.63872E+02
 0.80699997E+02 -0.63981E+02
 0.80749992E+02 -0.62912E+02
 0.80799995E+02 -0.64517E+02
 0.80849998E+02 -0.63680E+02
 0.80899994E+02 -0.63181E+02
 0.80949997E+02 -0.63486E+02
 0.80999992E+02 -0.62421E+02
 0.81049995E+02 -0.62075E+02
 0.81099998E+02 -0.62801E+02
 0.81149994E+02 -0.64191E+02
 0.81199997E+02 -0.63309E+02
 0.81249992E+02 -0.63041E+02
 0.81299995E+02 -0.64502E+02
 0.81349998E+02 -0.64324E+02
 0.81399994E+02 -0.64230E+02
 0.81449997E+02 -0.63661E+02
 0.81499992E+02 -0.64413E+02
 0.81549995E+02 -0.63724E+02
 0.81599998E+02 -0.63938E+02
 0.81649994E+02 -0.64414E+02
 0.81699997E+02 -0.62269E+02
 0.81749992E+02 -0.63174E+02
 0.81799995E+02 -0.63918E+02
 0.81849998E+02 -0.62976E+02
 0.81899994E+02 -0.64061E+02
 0.81949997E+02 -0.63810E+02
 0.81999992E+02 -0.63302E+02
 0.82049995E+02 -0.64523E+02
 0.82099998E+02 -0.63428E+02
 0.82149994E+02 -0.63172E+02
 0.82199997E+02 -0.64721E+02
 0.82249992E+02 -0.64539E+02
 0.82299995E+02 -0.62999E+02
 0.82349998E+02 -0.64597E+02
 0.82399994E+02 -0.64822E+02
 0.82449997E+02 -0.64412E+02
 0.82499992E+02 -0.63489E+02
 0.82549995E+02 -0.62675E+02
 0.82599998E+02 -0.64206E+02
 0.82649994E+02 -0.63742E+02
 0.82699997E+02 -0.64870E+02
 0.82749992E+02 -0.63920E+02
 0.82799995E+02 -0.63513E+02
 0.82849998E+02 -0.65502E+02
 0.82899994E+02 -0.64226E+02
 0.82949997E+02 -0.64784E+02
 0.82999992E+02 -0.64175E+02
 0.83049995E+02 -0.64409E+02
 0.83099998E+02 -0.65028E+02
 0.83149994E+02 -0.63982E+02
 0.83199997E+02 -0.64590E+02
 0.83249992E+02 -0.64101E+02
 0.83299995E+02 -0.64738E+02
 0.83349998E+02 -0.63404E+02
 0.83399994E+02 -0.63995E+02
 0.83449997E+02 -0.64474E+02
 0.83499992E+02 -0.62719E+02
 0.83549995E+02 -0.64102E+02
 0.83599998E+02 -0.64190E+02
 0.83649994E+02 -0.64809E+02
 0.83699997E+02 -0.64459E+02
 0.83749992E+02 -0.64127E+02
 0.83799995E+02 -0.64489E+02
 0.83849998E+02 -0.63396E+02
 0.83899994E+02 -0.64061E+02
 0.83949997E+02 -0.64513E+02
 0.83999992E+02 -0.63174E+02
 0.84049995E+02 -0.63673E+02
 0.84099998E+02 -0.64114E+02
 0.84149994E+02 -0.63616E+02
 0.84199997E+02 -0.64217E+02
 0.84249992E+02 -0.62051E+02
 0.84299995E+02 -0.63061E+02
 0.84349998E+02 -0.64176E+02
 0.84399994E+02 -0.63840E+02
 0.84449997E+02 -0.63966E+02
 0.84499992E+02 -0.63998E+02
 0.84549995E+02 -0.64179E+02
 0.84599998E+02 -0.63102E+02
 0.84649994E+02 -0.63635E+02
 0.84699997E+02 -0.63921E+02
 0.84749992E+02 -0.62725E+02
 0.84799995E+02 -0.63398E+02
 0.84849998E+02 -0.63272E+02
 0.84899994E+02 -0.64889E+02
 0.84949997E+02 -0.64584E+02
 0.84999992E+02 -0.62542E+02
 0.85049995E+02 -0.63472E+02
 0.85099998E+02 -0.63133E+02
 0.85149994E+02 -0.64473E+02
 0.85199997E+02 -0.63829E+02
 0.85249992E+02 -0.63531E+02
 0.85299995E+02 -0.64358E+02
 0.85349998E+02 -0.63801E+02
 0.85399994E+02 -0.64348E+02
 0.85449997E+02 -0.64859E+02
 0.85499992E+02 -0.64852E+02
 0.85549995E+02 -0.64166E+02
 0.85599998E+02 -0.63470E+02
 0.85649994E+02 -0.62951E+02
 0.85699997E+02 -0.63224E+02
 0.85749992E+02 -0.64449E+02
 0.85799995E+02 -0.63824E+02
 0.85849998E+02 -0.63483E+02
 0.85899994E+02 -0.63753E+02
 0.85949997E+02 -0.65755E+02
 0.85999992E+02 -0.64869E+02
 0.86049995E+02 -0.63525E+02
 0.86099998E+02 -0.62670E+02
 0.86149994E+02 -0.63465E+02
 0.86199997E+02 -0.64264E+02
 0.86249992E+02 -0.63754E+02
 0.86299995E+02 -0.64220E+02
 0.86349998E+02 -0.63488E+02
 0.86399994E+02 -0.63754E+02
 0.86449997E+02 -0.62151E+02
 0.86499992E+02 -0.63437E+02
 0.86549995E+02 -0.62377E+02
 0.86599998E+02 -0.64369E+02
 0.86649994E+02 -0.64545E+02
 0.86699997E+02 -0.62859E+02
 0.86749992E+02 -0.63414E+02
 0.86799995E+02 -0.63526E+02
 0.86849998E+02 -0.64255E+02
 0.86899994E+02 -0.62550E+02
 0.86949997E+02 -0.63208E+02
 0.86999992E+02 -0.64224E+02
 0.87049995E+02 -0.64808E+02
 0.87099998E+02 -0.64623E+02
 0.87149994E+02 -0.63121E+02
 0.87199997E+02 -0.63848E+02
 0.87249992E+02 -0.63685E+02
 0.87299995E+02 -0.62551E+02
 0.87349998E+02 -0.65148E+02
 0.87399994E+02 -0.63999E+02
 0.87449997E+02 -0.64064E+02
 0.87499992E+02 -0.64178E+02
 0.87549995E+02 -0.64025E+02
 0.87599991E+02 -0.64243E+02
 0.87649994E+02 -0.63181E+02
 0.87699997E+02 -0.64538E+02
 0.87749992E+02 -0.62840E+02
 0.87799995E+02 -0.62780E+02
 0.87849991E+02 -0.64682E+02
 0.87899994E+02 -0.63730E+02
 0.87949997E+02 -0.63443E+02
 0.87999992E+02 -0.62932E+02
 0.88049995E+02 -0.64407E+02
 0.88099991E+02 -0.64650E+02
 0.88149994E+02 -0.63975E+02
 0.88199997E+02 -0.64576E+02
 0.88249992E+02 -0.62960E+02
 0.88299995E+02 -0.62954E+02
 0.88349991E+02 -0.63314E+02
 0.88399994E+02 -0.63623E+02
 0.88449997E+02 -0.64358E+02
 0.88499992E+02 -0.64417E+02
 0.88549995E+02 -0.65056E+02
 0.88599991E+02 -0.65442E+02
 0.88649994E+02 -0.63954E+02
 0.88699997E+02 -0.64701E+02
 0.88749992E+02 -0.65576E+02
 0.88799995E+02 -0.63340E+02
 0.88849991E+02 -0.63841E+02
 0.88899994E+02 -0.64993E+02
 0.88949997E+02 -0.66106E+02
 0.88999992E+02 -0.64520E+02
 0.89049995E+02 -0.63843E+02
 0.89099991E+02 -0.64460E+02
 0.89149994E+02 -0.63460E+02
 0.89199997E+02 -0.63891E+02
 0.89249992E+02 -0.63435E+02
 0.89299995E+02 -0.64875E+02
 0.89349991E+02 -0.63949E+02
 0.89399994E+02 -0.64187E+02
 0.89449997E+02 -0.63640E+02
 0.89499992E+02 -0.63454E+02
 0.89549995E+02 -0.64430E+02
 0.89599991E+02 -0.63157E+02
 0.89649994E+02 -0.63398E+02
 0.89699997E+02 -0.64626E+02
 0.89749992E+02 -0.63849E+02
 0.89799995E+02 -0.63793E+02
 0.89849991E+02 -0.62793E+02
 0.89899994E+02 -0.62029E+02
 0.89949997E+02 -0.63747E+02
 0.89999992E+02 -0.62592E+02
 0.90049995E+02 -0.62489E+02
 0.90099991E+02 -0.63115E+02
 0.90149994E+02 -0.63693E+02
 0.90199997E+02 -0.64107E+02
 0.90249992E+02 -0.64853E+02
 0.90299995E+02 -0.64712E+02
 0.90349991E+02 -0.64971E+02
 0.90399994E+02 -0.64213E+02
 0.90449997E+02 -0.63493E+02
 0.90499992E+02 -0.63448E+02
 0.90549995E+02 -0.64514E+02
 0.90599991E+02 -0.65553E+02
 0.90649994E+02 -0.63865E+02
 0.90699997E+02 -0.64210E+02
 0.90749992E+02 -0.64013E+02
 0.90799995E+02 -0.64496E+02
 0.90849991E+02 -0.64485E+02
 0.90899994E+02 -0.61824E+02
 0.90949997E+02 -0.63549E+02
 0.90999992E+02 -0.64921E+02
 0.91049995E+02 -0.62470E+02
 0.91099991E+02 -0.62893E+02
 0.91149994E+02 -0.64235E+02
 0.91199997E+02 -0.63107E+02
 0.91249992E+02 -0.62952E+02
 0.91299995E+02 -0.63447E+02
 0.91349991E+02 -0.62735E+02
 0.91399994E+02 -0.63834E+02
 0.91449997E+02 -0.64106E+02
 0.91499992E+02 -0.63607E+02
 0.91549995E+02 -0.64179E+02
 0.91599991E+02 -0.63762E+02
 0.91649994E+02 -0.64530E+02
 0.91699997E+02 -0.64006E+02
 0.91749992E+02 -0.63178E+02
 0.91799995E+02 -0.64608E+02
 0.91849991E+02 -0.64587E+02
 0.91899994E+02 -0.63691E+02
 0.91949997E+02 -0.63662E+02
 0.91999992E+02 -0.64217E+02
 0.92049995E+02 -0.64193E+02
 0.92099991E+02 -0.63841E+02
 0.92149994E+02 -0.65030E+02
 0.92199997E+02 -0.64415E+02
 0.92249992E+02 -0.63810E+02
 0.92299995E+02 -0.64204E+02
 0.92349991E+02 -0.65104E+02
 0.92399994E+02 -0.65300E+02
 0.92449997E+02 -0.62893E+02
 0.92499992E+02 -0.64119E+02
 0.92549995E+02 -0.63531E+02
 0.92599991E+02 -0.62718E+02
 0.92649994E+02 -0.64330E+02
 0.92699997E+02 -0.65574E+02
 0.92749992E+02 -0.65559E+02
 0.92799995E+02 -0.64507E+02
 0.92849991E+02 -0.65358E+02
 0.92899994E+02 -0.64771E+02
 0.92949997E+02 -0.64327E+02
 0.92999992E+02 -0.63911E+02
 0.93049995E+02 -0.63775E+02
 0.93099991E+02 -0.64597E+02
 0.93149994E+02 -0.64588E+02
 0.93199997E+02 -0.64247E+02
 0.93249992E+02 -0.64024E+02
 0.93299995E+02 -0.65096E+02
 0.93349991E+02 -0.65295E+02
 0.93399994E+02 -0.64480E+02
 0.93449997E+02 -0.64210E+02
 0.93499992E+02 -0.64716E+02
 0.93549995E+02 -0.64004E+02
 0.93599991E+02 -0.63046E+02
 0.93649994E+02 -0.64202E+02
 0.93699997E+02 -0.63683E+02
 0.93749992E+02 -0.62655E+02
 0.93799995E+02 -0.64243E+02
 0.93849991E+02 -0.64705E+02
 0.93899994E+02 -0.64847E+02
 0.93949997E+02 -0.64966E+02
 0.93999992E+02 -0.64907E+02
 0.94049995E+02 -0.64725E+02
 0.94099991E+02 -0.64059E+02
 0.94149994E+02 -0.64323E+02
 0.94199997E+02 -0.64656E+02
 0.94249992E+02 -0.65040E+02
 0.94299995E+02 -0.64656E+02
 0.94349991E+02 -0.64073E+02
 0.94399994E+02 -0.63422E+02
 0.94449997E+02 -0.64979E+02
 0.94499992E+02 -0.64140E+02
 0.94549995E+02 -0.63288E+02
 0.94599991E+02 -0.64668E+02
 0.94649994E+02 -0.64386E+02
 0.94699997E+02 -0.65458E+02
 0.94749992E+02 -0.64773E+02
 0.94799995E+02 -0.63307E+02
 0.94849991E+02 -0.64485E+02
 0.94899994E+02 -0.65798E+02
 0.94949997E+02 -0.64282E+02
 0.94999992E+02 -0.63292E+02
 0.95049995E+02 -0.65083E+02
 0.95099991E+02 -0.65249E+02
 0.95149994E+02 -0.63690E+02
 0.95199997E+02 -0.63886E+02
 0.95249992E+02 -0.64244E+02
 0.95299995E+02 -0.64502E+02
 0.95349991E+02 -0.63199E+02
 0.95399994E+02 -0.62823E+02
 0.95449997E+02 -0.63951E+02
 0.95499992E+02 -0.63097E+02
 0.95549995E+02 -0.64539E+02
 0.95599991E+02 -0.64913E+02
 0.95649994E+02 -0.65279E+02
 0.95699997E+02 -0.64178E+02
 0.95749992E+02 -0.62806E+02
 0.95799995E+02 -0.63727E+02
 0.95849991E+02 -0.63159E+02
 0.95899994E+02 -0.64157E+02
 0.95949997E+02 -0.63444E+02
 0.95999992E+02 -0.63302E+02
 0.96049995E+02 -0.63268E+02
 0.96099991E+02 -0.64434E+02
 0.96149994E+02 -0.64568E+02
 0.96199997E+02 -0.63582E+02
 0.96249992E+02 -0.63922E+02
 0.96299995E+02 -0.64185E+02
 0.96349991E+02 -0.63879E+02
 0.96399994E+02 -0.63789E+02
 0.96449997E+02 -0.64468E+02
 0.96499992E+02 -0.64146E+02
 0.96549995E+02 -0.63374E+02
 0.96599991E+02 -0.64291E+02
 0.96649994E+02 -0.64205E+02
 0.96699997E+02 -0.63604E+02
 0.96749992E+02 -0.64336E+02
 0.96799995E+02 -0.64450E+02
 0.96849991E+02 -0.64149E+02
 0.96899994E+02 -0.63182E+02
 0.96949997E+02 -0.64551E+02
 0.96999992E+02 -0.64747E+02
 0.97049995E+02 -0.63491E+02
 0.97099991E+02 -0.63709E+02
 0.97149994E+02 -0.64914E+02
 0.97199997E+02 -0.63457E+02
 0.97249992E+02 -0.64070E+02
 0.97299995E+02 -0.63347E+02
 0.97349991E+02 -0.63796E+02
 0.97399994E+02 -0.63935E+02
 0.97449997E+02 -0.63642E+02
 0.97499992E+02 -0.64222E+02
 0.97549995E+02 -0.62559E+02
 0.97599991E+02 -0.62774E+02
 0.97649994E+02 -0.62646E+02
 0.97699997E+02 -0.63883E+02
 0.97749992E+02 -0.62135E+02
 0.97799995E+02 -0.62402E+02
 0.97849991E+02 -0.63650E+02
 0.97899994E+02 -0.62522E+02
 0.97949997E+02 -0.63130E+02
 0.97999992E+02 -0.62681E+02
