-0.19969940E+01 -0.16830E+05
-0.19469941E+01 -0.16724E+05
-0.18969940E+01 -0.16773E+05
-0.18469940E+01 -0.16778E+05
-0.17969940E+01 -0.16773E+05
-0.17469940E+01 -0.16766E+05
-0.16969941E+01 -0.16781E+05
-0.16469941E+01 -0.16769E+05
-0.15969940E+01 -0.16763E+05
-0.15469940E+01 -0.16774E+05
-0.14969940E+01 -0.16778E+05
-0.14469941E+01 -0.16762E+05
-0.13969941E+01 -0.16749E+05
-0.13469940E+01 -0.16778E+05
-0.12969941E+01 -0.16784E+05
-0.12469940E+01 -0.16763E+05
-0.11969941E+01 -0.16749E+05
-0.11469941E+01 -0.16739E+05
-0.10969940E+01 -0.16759E+05
-0.10469941E+01 -0.16763E+05
-0.99699408E+00 -0.16749E+05
-0.94699407E+00 -0.16743E+05
-0.89699411E+00 -0.16727E+05
-0.84699404E+00 -0.16762E+05
-0.79699409E+00 -0.16763E+05
-0.74699414E+00 -0.16750E+05
-0.69699407E+00 -0.16780E+05
-0.64699411E+00 -0.16777E+05
-0.59699416E+00 -0.16762E+05
-0.54699409E+00 -0.16762E+05
-0.49699414E+00 -0.16736E+05
-0.44699407E+00 -0.16747E+05
-0.39699411E+00 -0.16771E+05
-0.34699416E+00 -0.16765E+05
-0.29699409E+00 -0.16761E+05
-0.24699414E+00 -0.16741E+05
-0.19699407E+00 -0.16752E+05
-0.14699411E+00 -0.16767E+05
-0.96994162E-01 -0.16756E+05
-0.46994090E-01 -0.16721E+05
 0.30058622E-02 -0.16743E+05
 0.53005934E-01 -0.16761E+05
 0.10300589E+00 -0.16744E+05
 0.15300584E+00 -0.16765E+05
 0.20300579E+00 -0.16773E+05
 0.25300574E+00 -0.16770E+05
 0.30300593E+00 -0.16808E+05
 0.35300589E+00 -0.16826E+05
 0.40300584E+00 -0.16794E+05
 0.45300579E+00 -0.16786E+05
 0.50300574E+00 -0.16810E+05
 0.55300593E+00 -0.16830E+05
 0.60300589E+00 -0.16803E+05
 0.65300584E+00 -0.16809E+05
 0.70300579E+00 -0.16826E+05
 0.75300574E+00 -0.16802E+05
 0.80300570E+00 -0.16810E+05
 0.85300589E+00 -0.16818E+05
 0.90300584E+00 -0.16812E+05
 0.95300579E+00 -0.16802E+05
 0.10030057E+01 -0.16817E+05
 0.10530057E+01 -0.16817E+05
 0.11030059E+01 -0.16794E+05
 0.11530058E+01 -0.16798E+05
 0.12030058E+01 -0.16817E+05
 0.12530057E+01 -0.16807E+05
 0.13030057E+01 -0.16770E+05
 0.13530059E+01 -0.16774E+05
 0.14030058E+01 -0.16781E+05
 0.14530058E+01 -0.16791E+05
 0.15030057E+01 -0.16768E+05
 0.15530057E+01 -0.16753E+05
 0.16030059E+01 -0.16745E+05
 0.16530058E+01 -0.16755E+05
 0.17030058E+01 -0.16773E+05
 0.17530057E+01 -0.16759E+05
 0.18030057E+01 -0.16753E+05
 0.18530056E+01 -0.16734E+05
 0.19030058E+01 -0.16728E+05
 0.19530058E+01 -0.16744E+05
 0.20030057E+01 -0.16738E+05
 0.20530057E+01 -0.16718E+05
 0.21030059E+01 -0.16725E+05
 0.21530056E+01 -0.16747E+05
 0.22030058E+01 -0.16766E+05
 0.22530055E+01 -0.16778E+05
 0.23030057E+01 -0.16768E+05
 0.23530059E+01 -0.16757E+05
 0.24030056E+01 -0.16763E+05
 0.24530058E+01 -0.16778E+05
 0.25030055E+01 -0.16819E+05
 0.25530057E+01 -0.16800E+05
 0.26030059E+01 -0.16779E+05
 0.26530056E+01 -0.16765E+05
 0.27030058E+01 -0.16762E+05
 0.27530055E+01 -0.16770E+05
 0.28030057E+01 -0.16795E+05
 0.28530059E+01 -0.16812E+05
 0.29030056E+01 -0.16762E+05
 0.29530058E+01 -0.16755E+05
 0.30030055E+01 -0.16805E+05
 0.30530057E+01 -0.16812E+05
 0.31030059E+01 -0.16773E+05
 0.31530056E+01 -0.16769E+05
 0.32030058E+01 -0.16787E+05
 0.32530055E+01 -0.16797E+05
 0.33030057E+01 -0.16799E+05
 0.33530059E+01 -0.16795E+05
 0.34030056E+01 -0.16763E+05
 0.34530058E+01 -0.16750E+05
 0.35030055E+01 -0.16764E+05
 0.35530057E+01 -0.16792E+05
 0.36030054E+01 -0.16787E+05
 0.36530056E+01 -0.16756E+05
 0.37030058E+01 -0.16751E+05
 0.37530055E+01 -0.16765E+05
 0.38030057E+01 -0.16761E+05
 0.38530054E+01 -0.16780E+05
 0.39030056E+01 -0.16791E+05
 0.39530058E+01 -0.16769E+05
 0.40030055E+01 -0.16765E+05
 0.40530057E+01 -0.16783E+05
 0.41030054E+01 -0.16782E+05
 0.41530056E+01 -0.16763E+05
 0.42030058E+01 -0.16750E+05
 0.42530055E+01 -0.16752E+05
 0.43030057E+01 -0.16787E+05
 0.43530054E+01 -0.16789E+05
 0.44030056E+01 -0.16782E+05
 0.44530058E+01 -0.16781E+05
 0.45030055E+01 -0.16772E+05
 0.45530057E+01 -0.16769E+05
 0.46030054E+01 -0.16760E+05
 0.46530056E+01 -0.16771E+05
 0.47030058E+01 -0.16757E+05
 0.47530055E+01 -0.16732E+05
 0.48030057E+01 -0.16775E+05
 0.48530054E+01 -0.16777E+05
 0.49030056E+01 -0.16754E+05
 0.49530058E+01 -0.16745E+05
 0.50030055E+01 -0.16741E+05
 0.50530057E+01 -0.16752E+05
 0.51030054E+01 -0.16753E+05
 0.51530056E+01 -0.16746E+05
 0.52030058E+01 -0.16736E+05
 0.52530055E+01 -0.16754E+05
 0.53030057E+01 -0.16763E+05
 0.53530054E+01 -0.16767E+05
 0.54030056E+01 -0.16733E+05
 0.54530053E+01 -0.16723E+05
 0.55030055E+01 -0.16777E+05
 0.55530057E+01 -0.16753E+05
 0.56030054E+01 -0.16728E+05
 0.56530056E+01 -0.16750E+05
 0.57030053E+01 -0.16767E+05
 0.57530055E+01 -0.16779E+05
 0.58030057E+01 -0.16779E+05
 0.58530054E+01 -0.16787E+05
 0.59030056E+01 -0.16786E+05
 0.59530053E+01 -0.16795E+05
 0.60030055E+01 -0.16804E+05
 0.60530052E+01 -0.16794E+05
 0.61030054E+01 -0.16802E+05
 0.61530056E+01 -0.16824E+05
 0.62030058E+01 -0.16817E+05
 0.62530050E+01 -0.16800E+05
 0.63030052E+01 -0.16810E+05
 0.63530054E+01 -0.16814E+05
 0.64030056E+01 -0.16815E+05
 0.64530058E+01 -0.16807E+05
 0.65030050E+01 -0.16810E+05
 0.65530052E+01 -0.16798E+05
 0.66030054E+01 -0.16803E+05
 0.66530056E+01 -0.16805E+05
 0.67030058E+01 -0.16774E+05
 0.67530050E+01 -0.16766E+05
 0.68030052E+01 -0.16773E+05
 0.68530054E+01 -0.16771E+05
 0.69030056E+01 -0.16755E+05
 0.69530058E+01 -0.16755E+05
 0.70030050E+01 -0.16753E+05
 0.70530052E+01 -0.16739E+05
 0.71030054E+01 -0.16733E+05
 0.71530056E+01 -0.16784E+05
 0.72030058E+01 -0.16781E+05
 0.72530050E+01 -0.16739E+05
 0.73030052E+01 -0.16748E+05
 0.73530054E+01 -0.16763E+05
 0.74030056E+01 -0.16793E+05
 0.74530058E+01 -0.16767E+05
 0.75030050E+01 -0.16763E+05
 0.75530052E+01 -0.16768E+05
 0.76030054E+01 -0.16785E+05
 0.76530056E+01 -0.16804E+05
 0.77030058E+01 -0.16778E+05
 0.77530050E+01 -0.16787E+05
 0.78030052E+01 -0.16776E+05
 0.78530054E+01 -0.16798E+05
 0.79030056E+01 -0.16793E+05
 0.79530058E+01 -0.16772E+05
 0.80030050E+01 -0.16779E+05
 0.80530052E+01 -0.16788E+05
 0.81030054E+01 -0.16765E+05
 0.81530056E+01 -0.16751E+05
 0.82030058E+01 -0.16773E+05
 0.82530050E+01 -0.16789E+05
 0.83030052E+01 -0.16755E+05
 0.83530054E+01 -0.16737E+05
 0.84030056E+01 -0.16765E+05
 0.84530058E+01 -0.16760E+05
 0.85030050E+01 -0.16760E+05
 0.85530052E+01 -0.16767E+05
 0.86030054E+01 -0.16803E+05
 0.86530056E+01 -0.16779E+05
 0.87030058E+01 -0.16762E+05
 0.87530050E+01 -0.16802E+05
 0.88030052E+01 -0.16822E+05
 0.88530054E+01 -0.16809E+05
 0.89030056E+01 -0.16786E+05
 0.89530058E+01 -0.16787E+05
 0.90030050E+01 -0.16796E+05
 0.90530052E+01 -0.16801E+05
 0.91030054E+01 -0.16782E+05
 0.91530056E+01 -0.16757E+05
 0.92030048E+01 -0.16786E+05
 0.92530050E+01 -0.16777E+05
 0.93030052E+01 -0.16753E+05
 0.93530054E+01 -0.16760E+05
 0.94030056E+01 -0.16761E+05
 0.94530048E+01 -0.16766E+05
 0.95030050E+01 -0.16732E+05
 0.95530052E+01 -0.16740E+05
 0.96030054E+01 -0.16763E+05
 0.96530056E+01 -0.16768E+05
 0.97030048E+01 -0.16756E+05
 0.97530050E+01 -0.16775E+05
 0.98030052E+01 -0.16763E+05
 0.98530054E+01 -0.16761E+05
 0.99030056E+01 -0.16785E+05
 0.99530048E+01 -0.16763E+05
 0.10003005E+02 -0.16783E+05
 0.10053005E+02 -0.16789E+05
 0.10103005E+02 -0.16789E+05
 0.10153006E+02 -0.16788E+05
 0.10203005E+02 -0.16783E+05
 0.10253005E+02 -0.16792E+05
 0.10303005E+02 -0.16790E+05
 0.10353005E+02 -0.16769E+05
 0.10403006E+02 -0.16775E+05
 0.10453005E+02 -0.16771E+05
 0.10503005E+02 -0.16766E+05
 0.10553005E+02 -0.16779E+05
 0.10603005E+02 -0.16758E+05
 0.10653006E+02 -0.16773E+05
 0.10703005E+02 -0.16792E+05
 0.10753005E+02 -0.16787E+05
 0.10803005E+02 -0.16752E+05
 0.10853005E+02 -0.16800E+05
 0.10903006E+02 -0.16752E+05
 0.10953005E+02 -0.16669E+05
 0.11003005E+02 -0.16267E+05
 0.11053005E+02 -0.16333E+05
 0.11103005E+02 -0.16524E+05
 0.11153006E+02 -0.17174E+05
 0.11203005E+02 -0.17428E+05
 0.11253005E+02 -0.17280E+05
 0.11303005E+02 -0.17203E+05
 0.11353005E+02 -0.17397E+05
 0.11403006E+02 -0.17663E+05
 0.11453005E+02 -0.16711E+05
 0.11503005E+02 -0.15890E+05
 0.11553005E+02 -0.14217E+05
 0.11603005E+02 -0.15518E+05
 0.11653006E+02 -0.16733E+05
 0.11703005E+02 -0.17884E+05
 0.11753005E+02 -0.16565E+05
 0.11803005E+02 -0.16290E+05
 0.11853005E+02 -0.15953E+05
 0.11903006E+02 -0.15741E+05
 0.11953005E+02 -0.17786E+05
 0.12003005E+02 -0.18775E+05
 0.12053005E+02 -0.18861E+05
 0.12103005E+02 -0.15904E+05
 0.12153006E+02 -0.15026E+05
 0.12203005E+02 -0.17437E+05
 0.12253005E+02 -0.22811E+05
 0.12303005E+02 -0.17674E+05
 0.12353005E+02 -0.95012E+04
 0.12403006E+02 -0.17181E+05
 0.12453005E+02 -0.23228E+05
 0.12503005E+02 -0.16890E+05
 0.12553005E+02 -0.16467E+05
 0.12603005E+02 -0.13392E+05
 0.12653005E+02 -0.33200E+04
 0.12703005E+02 -0.14031E+05
 0.12753005E+02 -0.32471E+05
 0.12803005E+02 -0.19903E+05
 0.12853005E+02 -0.10349E+05
 0.12903005E+02 -0.20414E+05
 0.12953005E+02 -0.18694E+05
 0.13003005E+02 -0.11075E+05
 0.13053005E+02 -0.18133E+05
 0.13103005E+02 -0.28546E+05
 0.13153005E+02 -0.17728E+05
 0.13203005E+02 -0.23642E+04
 0.13253005E+02 -0.90593E+04
 0.13303005E+02 -0.22911E+05
 0.13353005E+02 -0.18255E+05
 0.13403005E+02 -0.14254E+05
 0.13453005E+02 -0.23282E+05
 0.13503005E+02 -0.19689E+05
 0.13553005E+02 -0.93947E+04
 0.13603005E+02 -0.16539E+05
 0.13653005E+02 -0.24609E+05
 0.13703005E+02 -0.16130E+05
 0.13753005E+02 -0.10133E+05
 0.13803005E+02 -0.20828E+05
 0.13853005E+02 -0.16325E+05
 0.13903005E+02 -0.92283E+04
 0.13953005E+02 -0.20862E+05
 0.14003005E+02 -0.22321E+05
 0.14053005E+02 -0.14319E+05
 0.14103004E+02 -0.35838E+04
 0.14153006E+02 -0.15231E+05
 0.14203005E+02 -0.31229E+05
 0.14253004E+02 -0.25853E+05
 0.14303005E+02 -0.12340E+05
 0.14353004E+02 -0.68434E+04
 0.14403006E+02 -0.18989E+05
 0.14453005E+02 -0.16477E+05
 0.14503004E+02 -0.19961E+05
 0.14553005E+02 -0.17052E+05
 0.14603004E+02 -0.11700E+05
 0.14653006E+02 -0.14352E+05
 0.14703005E+02 -0.19358E+05
 0.14753004E+02 -0.22084E+05
 0.14803005E+02 -0.19257E+05
 0.14853004E+02 -0.16319E+05
 0.14903006E+02 -0.94684E+04
 0.14953005E+02 -0.17262E+05
 0.15003004E+02 -0.27249E+05
 0.15053005E+02 -0.14641E+05
 0.15103004E+02 -0.79904E+04
 0.15153006E+02 -0.20106E+05
 0.15203005E+02 -0.17023E+05
 0.15253004E+02 -0.11228E+05
 0.15303005E+02 -0.22785E+05
 0.15353004E+02 -0.33543E+05
 0.15403006E+02 -0.10042E+05
 0.15453005E+02 -0.93004E+03
 0.15503004E+02 -0.21189E+05
 0.15553005E+02 -0.27487E+05
 0.15603004E+02 -0.15980E+05
 0.15653006E+02 -0.13479E+05
 0.15703005E+02 -0.12691E+05
 0.15753004E+02 -0.13108E+05
 0.15803005E+02 -0.19685E+05
 0.15853004E+02 -0.22275E+05
 0.15903006E+02 -0.12676E+05
 0.15953005E+02 -0.13424E+05
 0.16003004E+02 -0.14797E+05
 0.16053005E+02 -0.15620E+05
 0.16103004E+02 -0.24914E+05
 0.16153006E+02 -0.14769E+05
 0.16203005E+02 -0.86267E+04
 0.16253004E+02 -0.15462E+05
 0.16303005E+02 -0.22124E+05
 0.16353004E+02 -0.11813E+05
 0.16403006E+02 -0.22425E+05
 0.16453005E+02 -0.21005E+05
 0.16503004E+02 -0.10728E+05
 0.16553005E+02 -0.17109E+05
 0.16603004E+02 -0.29952E+05
 0.16653006E+02 -0.17250E+05
 0.16703005E+02  0.52718E+04
 0.16753004E+02 -0.20163E+05
 0.16803005E+02 -0.25106E+05
 0.16853004E+02 -0.20626E+05
 0.16903006E+02 -0.95617E+04
 0.16953005E+02 -0.10691E+05
 0.17003004E+02 -0.21117E+05
 0.17053005E+02 -0.17912E+05
 0.17103004E+02 -0.20672E+05
 0.17153006E+02 -0.23998E+05
 0.17203005E+02 -0.23567E+05
 0.17253004E+02 -0.49015E+04
 0.17303005E+02 -0.50124E+04
 0.17353004E+02 -0.23519E+05
 0.17403006E+02 -0.29708E+05
 0.17453005E+02 -0.95390E+04
 0.17503004E+02 -0.69079E+04
 0.17553005E+02 -0.17237E+05
 0.17603004E+02 -0.22415E+05
 0.17653006E+02 -0.14903E+05
 0.17703005E+02 -0.12580E+05
 0.17753004E+02 -0.25646E+05
 0.17803005E+02 -0.20148E+05
 0.17853004E+02 -0.70184E+04
 0.17903006E+02 -0.16000E+05
 0.17953005E+02 -0.29034E+05
 0.18003004E+02 -0.15693E+05
 0.18053005E+02 -0.14461E+05
 0.18103004E+02 -0.96077E+04
 0.18153006E+02 -0.24521E+05
 0.18203005E+02 -0.22798E+05
 0.18253004E+02 -0.51774E+04
 0.18303005E+02 -0.99366E+04
 0.18353004E+02 -0.15730E+05
 0.18403006E+02 -0.18927E+05
 0.18453005E+02 -0.14352E+05
 0.18503004E+02 -0.19917E+05
 0.18553005E+02 -0.24293E+05
 0.18603004E+02 -0.23173E+05
 0.18653006E+02 -0.81197E+04
 0.18703005E+02 -0.17036E+05
 0.18753004E+02 -0.27910E+05
 0.18803005E+02 -0.11656E+05
 0.18853004E+02 -0.38681E+04
 0.18903006E+02 -0.17125E+05
 0.18953005E+02 -0.38579E+05
 0.19003004E+02 -0.32833E+05
 0.19053005E+02 -0.17855E+05
 0.19103004E+02 -0.23338E+05
 0.19153006E+02 -0.18158E+05
 0.19203005E+02  0.44382E+04
 0.19253004E+02  0.11999E+05
 0.19303005E+02  0.10472E+05
 0.19353004E+02 -0.17596E+05
 0.19403006E+02 -0.40455E+05
 0.19453005E+02 -0.29512E+05
 0.19503004E+02 -0.39999E+05
 0.19553005E+02 -0.35324E+05
 0.19603004E+02  0.12915E+05
 0.19653006E+02  0.60619E+04
 0.19703005E+02 -0.71159E+04
 0.19753004E+02 -0.82080E+03
 0.19803005E+02 -0.20183E+05
 0.19853004E+02 -0.31711E+05
 0.19903006E+02 -0.42423E+05
 0.19953005E+02 -0.48674E+05
 0.20003004E+02 -0.29678E+04
 0.20053005E+02 -0.26646E+04
 0.20103004E+02 -0.36746E+05
 0.20153006E+02  0.14506E+05
 0.20203005E+02  0.27521E+05
 0.20253004E+02 -0.34069E+05
 0.20303005E+02 -0.43105E+05
 0.20353004E+02 -0.19549E+05
 0.20403004E+02 -0.46787E+05
 0.20453005E+02 -0.22046E+05
 0.20503004E+02  0.62024E+04
 0.20553005E+02 -0.27533E+05
 0.20603004E+02 -0.79384E+04
 0.20653004E+02  0.23090E+05
 0.20703005E+02 -0.21510E+05
 0.20753004E+02 -0.31530E+05
 0.20803005E+02  0.30737E+04
 0.20853004E+02 -0.28679E+05
 0.20903004E+02 -0.41907E+05
 0.20953005E+02 -0.98254E+04
 0.21003004E+02 -0.21981E+05
 0.21053005E+02 -0.43140E+05
 0.21103004E+02 -0.74278E+02
 0.21153004E+02 -0.42290E+04
 0.21203005E+02 -0.18803E+05
 0.21253004E+02 -0.88523E+04
 0.21303005E+02 -0.25372E+04
 0.21353004E+02 -0.74295E+04
 0.21403004E+02 -0.40609E+05
 0.21453005E+02 -0.10610E+05
 0.21503004E+02 -0.22908E+05
 0.21553005E+02 -0.29025E+05
 0.21603004E+02 -0.17773E+05
 0.21653004E+02 -0.25404E+05
 0.21703005E+02  0.22530E+04
 0.21753004E+02 -0.68562E+03
 0.21803005E+02 -0.19244E+05
 0.21853004E+02 -0.31826E+05
 0.21903004E+02 -0.21498E+05
 0.21953005E+02 -0.26829E+05
 0.22003004E+02 -0.30802E+05
 0.22053005E+02  0.21846E+05
 0.22103004E+02  0.40177E+04
 0.22153004E+02 -0.28091E+05
 0.22203005E+02 -0.14715E+05
 0.22253004E+02 -0.23772E+05
 0.22303005E+02 -0.16654E+05
 0.22353004E+02 -0.34561E+05
 0.22403004E+02 -0.19386E+05
 0.22453005E+02  0.15519E+05
 0.22503004E+02  0.55556E+04
 0.22553005E+02 -0.37270E+05
 0.22603004E+02 -0.47023E+05
 0.22653004E+02 -0.17235E+05
 0.22703005E+02 -0.29877E+05
 0.22753004E+02 -0.37317E+04
 0.22803005E+02 -0.11941E+04
 0.22853004E+02 -0.30922E+05
 0.22903004E+02 -0.19842E+05
 0.22953005E+02 -0.77916E+04
 0.23003004E+02 -0.14056E+05
 0.23053005E+02 -0.20551E+05
 0.23103004E+02 -0.13725E+05
 0.23153004E+02 -0.18888E+05
 0.23203005E+02 -0.16409E+05
 0.23253004E+02 -0.81196E+04
 0.23303005E+02 -0.15122E+05
 0.23353004E+02 -0.31650E+05
 0.23403004E+02 -0.29805E+05
 0.23453005E+02 -0.10029E+02
 0.23503004E+02 -0.45956E+04
 0.23553005E+02 -0.30636E+05
 0.23603004E+02 -0.23471E+05
 0.23653004E+02 -0.98710E+04
 0.23703005E+02 -0.52249E+04
 0.23753004E+02 -0.17208E+05
 0.23803005E+02 -0.15952E+05
 0.23853004E+02 -0.24376E+05
 0.23903004E+02 -0.34882E+05
 0.23953005E+02 -0.79918E+04
 0.24003004E+02 -0.15764E+03
 0.24053005E+02 -0.13038E+05
 0.24103004E+02 -0.13243E+05
 0.24153004E+02 -0.11779E+05
 0.24203005E+02 -0.30059E+05
 0.24253004E+02 -0.31353E+05
 0.24303005E+02 -0.19257E+05
 0.24353004E+02 -0.94735E+03
 0.24403004E+02 -0.22496E+04
 0.24453005E+02 -0.18616E+05
 0.24503004E+02 -0.20109E+05
 0.24553005E+02 -0.26723E+05
 0.24603004E+02 -0.22996E+05
 0.24653004E+02 -0.11415E+05
 0.24703005E+02 -0.47998E+03
 0.24753004E+02 -0.99708E+04
 0.24803005E+02 -0.25125E+05
 0.24853004E+02 -0.42253E+05
 0.24903004E+02 -0.21096E+05
 0.24953005E+02  0.49278E+04
 0.25003004E+02 -0.15507E+05
 0.25053005E+02 -0.19843E+05
 0.25103004E+02 -0.18526E+05
 0.25153004E+02 -0.23771E+05
 0.25203005E+02 -0.25512E+05
 0.25253004E+02 -0.18373E+05
 0.25303005E+02 -0.85549E+04
 0.25353004E+02 -0.33981E+04
 0.25403004E+02 -0.21326E+05
 0.25453005E+02 -0.25099E+05
 0.25503004E+02 -0.14443E+05
 0.25553005E+02 -0.11449E+05
 0.25603004E+02 -0.19718E+05
 0.25653004E+02 -0.29540E+05
 0.25703005E+02 -0.71678E+04
 0.25753004E+02 -0.97074E+04
 0.25803005E+02 -0.14221E+05
 0.25853004E+02 -0.37313E+04
 0.25903004E+02 -0.13036E+05
 0.25953005E+02 -0.25597E+05
 0.26003004E+02 -0.33458E+05
 0.26053005E+02 -0.36236E+05
 0.26103004E+02 -0.18297E+05
 0.26153004E+02 -0.22200E+04
 0.26203005E+02 -0.83625E+04
 0.26253004E+02 -0.15652E+05
 0.26303005E+02 -0.20198E+05
 0.26353004E+02 -0.21424E+05
 0.26403004E+02 -0.20110E+05
 0.26453005E+02 -0.99621E+04
 0.26503004E+02 -0.96677E+04
 0.26553005E+02 -0.90745E+04
 0.26603004E+02 -0.14233E+05
 0.26653004E+02 -0.28115E+05
 0.26703005E+02 -0.21404E+05
 0.26753004E+02 -0.12869E+05
 0.26803005E+02 -0.21530E+05
 0.26853004E+02 -0.22746E+05
 0.26903004E+02 -0.11336E+05
 0.26953005E+02 -0.19018E+05
 0.27003004E+02 -0.13467E+05
 0.27053003E+02 -0.16608E+05
 0.27103004E+02 -0.19968E+05
 0.27153004E+02 -0.19634E+05
 0.27203005E+02 -0.22264E+05
 0.27253004E+02 -0.13150E+05
 0.27303003E+02 -0.16412E+05
 0.27353004E+02 -0.14220E+05
 0.27403004E+02 -0.11492E+05
 0.27453005E+02 -0.90264E+04
 0.27503004E+02 -0.10390E+05
 0.27553003E+02 -0.19495E+05
 0.27603004E+02 -0.15016E+05
 0.27653004E+02 -0.13186E+05
 0.27703005E+02 -0.28079E+05
 0.27753004E+02 -0.16323E+05
 0.27803003E+02 -0.61578E+04
 0.27853004E+02 -0.25334E+05
 0.27903004E+02 -0.27033E+05
 0.27953005E+02 -0.20134E+05
 0.28003004E+02 -0.18624E+05
 0.28053003E+02 -0.11821E+05
 0.28103004E+02 -0.11146E+05
 0.28153004E+02 -0.12036E+05
 0.28203005E+02 -0.17346E+05
 0.28253004E+02 -0.25649E+05
 0.28303003E+02 -0.19160E+05
 0.28353004E+02 -0.12766E+05
 0.28403004E+02 -0.14275E+05
 0.28453005E+02 -0.15663E+05
 0.28503004E+02 -0.16534E+05
 0.28553003E+02 -0.20642E+05
 0.28603004E+02 -0.28759E+05
 0.28653004E+02 -0.16463E+05
 0.28703005E+02 -0.15322E+05
 0.28753004E+02 -0.23940E+05
 0.28803003E+02 -0.14386E+05
 0.28853004E+02 -0.87060E+04
 0.28903004E+02 -0.91351E+04
 0.28953005E+02 -0.14336E+05
 0.29003004E+02 -0.17340E+05
 0.29053003E+02 -0.23918E+05
 0.29103004E+02 -0.26499E+05
 0.29153004E+02 -0.15233E+05
 0.29203005E+02 -0.14198E+05
 0.29253004E+02 -0.15868E+05
 0.29303003E+02 -0.16247E+05
 0.29353004E+02 -0.14215E+05
 0.29403004E+02 -0.10296E+05
 0.29453005E+02 -0.21448E+05
 0.29503004E+02 -0.23746E+05
 0.29553003E+02 -0.15470E+05
 0.29603004E+02 -0.14490E+05
 0.29653004E+02 -0.20973E+05
 0.29703005E+02 -0.18259E+05
 0.29753004E+02 -0.10286E+05
 0.29803003E+02 -0.17154E+05
 0.29853004E+02 -0.21183E+05
 0.29903004E+02 -0.12348E+05
 0.29953005E+02 -0.11547E+05
 0.30003004E+02 -0.18826E+05
 0.30053005E+02 -0.21596E+05
 0.30103004E+02 -0.13966E+05
 0.30153004E+02 -0.62408E+04
 0.30203003E+02 -0.13656E+05
 0.30253002E+02 -0.17975E+05
 0.30303005E+02 -0.11454E+05
 0.30353004E+02 -0.14629E+05
 0.30403004E+02 -0.18028E+05
 0.30453003E+02 -0.19377E+05
 0.30503002E+02 -0.22641E+05
 0.30553005E+02 -0.17834E+05
 0.30603004E+02 -0.22468E+05
 0.30653004E+02 -0.22234E+05
 0.30703003E+02 -0.77280E+04
 0.30753002E+02 -0.12322E+05
 0.30803005E+02 -0.20165E+05
 0.30853004E+02 -0.18004E+05
 0.30903004E+02 -0.20235E+05
 0.30953003E+02 -0.22186E+05
 0.31003002E+02 -0.19473E+05
 0.31053005E+02 -0.10602E+05
 0.31103004E+02 -0.80607E+04
 0.31153004E+02 -0.18150E+05
 0.31203003E+02 -0.20561E+05
 0.31253002E+02 -0.17530E+05
 0.31303005E+02 -0.19692E+05
 0.31353004E+02 -0.24072E+05
 0.31403004E+02 -0.19680E+05
 0.31453003E+02 -0.12790E+05
 0.31503002E+02 -0.16280E+05
 0.31553005E+02 -0.15670E+05
 0.31603004E+02 -0.15494E+05
 0.31653004E+02 -0.10975E+05
 0.31703003E+02 -0.94244E+04
 0.31753002E+02 -0.17411E+05
 0.31803005E+02 -0.22153E+05
 0.31853004E+02 -0.19530E+05
 0.31903004E+02 -0.18128E+05
 0.31953003E+02 -0.16208E+05
 0.32003002E+02 -0.11203E+05
 0.32053005E+02 -0.14265E+05
 0.32103004E+02 -0.19166E+05
 0.32153004E+02 -0.16239E+05
 0.32203003E+02 -0.12336E+05
 0.32253002E+02 -0.17312E+05
 0.32303005E+02 -0.18125E+05
 0.32353004E+02 -0.20057E+05
 0.32403004E+02 -0.18313E+05
 0.32453003E+02 -0.14344E+05
 0.32503002E+02 -0.18824E+05
 0.32553005E+02 -0.20744E+05
 0.32603004E+02 -0.14842E+05
 0.32653004E+02 -0.14484E+05
 0.32703003E+02 -0.19748E+05
 0.32753002E+02 -0.17148E+05
 0.32803005E+02 -0.14014E+05
 0.32853004E+02 -0.16843E+05
 0.32903004E+02 -0.20764E+05
 0.32953003E+02 -0.14298E+05
 0.33003002E+02 -0.10435E+05
 0.33053005E+02 -0.15276E+05
 0.33103004E+02 -0.20264E+05
 0.33153004E+02 -0.13324E+05
 0.33203003E+02 -0.10692E+05
 0.33253002E+02 -0.21573E+05
 0.33303005E+02 -0.24276E+05
 0.33353004E+02 -0.22916E+05
 0.33403004E+02 -0.14130E+05
 0.33453003E+02 -0.13830E+05
 0.33503002E+02 -0.16110E+05
 0.33553005E+02 -0.11026E+05
 0.33603004E+02 -0.18659E+05
 0.33653004E+02 -0.22754E+05
 0.33703003E+02 -0.17187E+05
 0.33753002E+02 -0.16461E+05
 0.33803005E+02 -0.18908E+05
 0.33853004E+02 -0.12961E+05
 0.33903004E+02 -0.12213E+05
 0.33953003E+02 -0.21907E+05
 0.34003002E+02 -0.20563E+05
 0.34053005E+02 -0.13600E+05
 0.34103004E+02 -0.13938E+05
 0.34153004E+02 -0.17812E+05
 0.34203003E+02 -0.17674E+05
 0.34253002E+02 -0.14978E+05
 0.34303005E+02 -0.17764E+05
 0.34353004E+02 -0.21789E+05
 0.34403004E+02 -0.19138E+05
 0.34453003E+02 -0.12194E+05
 0.34503002E+02 -0.16034E+05
 0.34553005E+02 -0.20763E+05
 0.34603004E+02 -0.17827E+05
 0.34653004E+02 -0.16086E+05
 0.34703003E+02 -0.13462E+05
 0.34753002E+02 -0.12279E+05
 0.34803005E+02 -0.15148E+05
 0.34853004E+02 -0.17568E+05
 0.34903004E+02 -0.18113E+05
 0.34953003E+02 -0.19364E+05
 0.35003002E+02 -0.15832E+05
 0.35053005E+02 -0.13561E+05
 0.35103004E+02 -0.17450E+05
 0.35153004E+02 -0.18783E+05
 0.35203003E+02 -0.16303E+05
 0.35253002E+02 -0.15132E+05
 0.35303005E+02 -0.15859E+05
 0.35353004E+02 -0.16272E+05
 0.35403004E+02 -0.16324E+05
 0.35453003E+02 -0.17356E+05
 0.35503002E+02 -0.19776E+05
 0.35553005E+02 -0.21081E+05
 0.35603004E+02 -0.16680E+05
 0.35653004E+02 -0.13121E+05
 0.35703003E+02 -0.16174E+05
 0.35753002E+02 -0.19264E+05
 0.35803005E+02 -0.19019E+05
 0.35853004E+02 -0.14500E+05
 0.35903004E+02 -0.13662E+05
 0.35953003E+02 -0.15965E+05
 0.36003002E+02 -0.16772E+05
 0.36053005E+02 -0.19316E+05
 0.36103004E+02 -0.19500E+05
 0.36153004E+02 -0.16491E+05
 0.36203003E+02 -0.12761E+05
 0.36253002E+02 -0.11196E+05
 0.36303005E+02 -0.15397E+05
 0.36353004E+02 -0.22862E+05
 0.36403004E+02 -0.21835E+05
 0.36453003E+02 -0.15425E+05
 0.36503002E+02 -0.12956E+05
 0.36553005E+02 -0.18461E+05
 0.36603004E+02 -0.24076E+05
 0.36653004E+02 -0.17355E+05
 0.36703003E+02 -0.12108E+05
 0.36753002E+02 -0.14716E+05
 0.36803005E+02 -0.14564E+05
 0.36853004E+02 -0.11609E+05
 0.36903004E+02 -0.12065E+05
 0.36953003E+02 -0.17130E+05
 0.37003002E+02 -0.22431E+05
 0.37053005E+02 -0.22976E+05
 0.37103004E+02 -0.16895E+05
 0.37153004E+02 -0.15771E+05
 0.37203003E+02 -0.17177E+05
 0.37253002E+02 -0.15759E+05
 0.37303005E+02 -0.18092E+05
 0.37353004E+02 -0.17889E+05
 0.37403004E+02 -0.14635E+05
 0.37453003E+02 -0.14536E+05
 0.37503002E+02 -0.14665E+05
 0.37553005E+02 -0.17448E+05
 0.37603004E+02 -0.19902E+05
 0.37653004E+02 -0.14182E+05
 0.37703003E+02 -0.13621E+05
 0.37753002E+02 -0.16871E+05
 0.37803005E+02 -0.19420E+05
 0.37853004E+02 -0.17033E+05
 0.37903004E+02 -0.17330E+05
 0.37953003E+02 -0.20395E+05
 0.38003002E+02 -0.17710E+05
 0.38053005E+02 -0.16284E+05
 0.38103004E+02 -0.15676E+05
 0.38153004E+02 -0.16473E+05
 0.38203003E+02 -0.14655E+05
 0.38253002E+02 -0.15094E+05
 0.38303005E+02 -0.17140E+05
 0.38353004E+02 -0.17460E+05
 0.38403004E+02 -0.18398E+05
 0.38453003E+02 -0.20120E+05
 0.38503002E+02 -0.18945E+05
 0.38553005E+02 -0.14512E+05
 0.38603004E+02 -0.14917E+05
 0.38653004E+02 -0.17175E+05
 0.38703003E+02 -0.15789E+05
 0.38753002E+02 -0.15711E+05
 0.38803005E+02 -0.17187E+05
 0.38853004E+02 -0.17347E+05
 0.38903004E+02 -0.17402E+05
 0.38953003E+02 -0.17323E+05
 0.39003002E+02 -0.16893E+05
 0.39053005E+02 -0.16318E+05
 0.39103004E+02 -0.17992E+05
 0.39153004E+02 -0.17411E+05
 0.39203003E+02 -0.14965E+05
 0.39253002E+02 -0.15463E+05
 0.39303005E+02 -0.15221E+05
 0.39353004E+02 -0.17634E+05
 0.39403004E+02 -0.16858E+05
 0.39453003E+02 -0.16410E+05
 0.39503002E+02 -0.14671E+05
 0.39553005E+02 -0.14812E+05
 0.39603004E+02 -0.19917E+05
 0.39653004E+02 -0.17315E+05
 0.39703003E+02 -0.17311E+05
 0.39753002E+02 -0.16250E+05
 0.39803005E+02 -0.16095E+05
 0.39853004E+02 -0.19483E+05
 0.39903004E+02 -0.17757E+05
 0.39953003E+02 -0.15884E+05
 0.40003002E+02 -0.18277E+05
 0.40053005E+02 -0.21052E+05
 0.40103004E+02 -0.17630E+05
 0.40153004E+02 -0.14537E+05
 0.40203003E+02 -0.14667E+05
 0.40253002E+02 -0.17658E+05
 0.40303005E+02 -0.17287E+05
 0.40353004E+02 -0.15600E+05
 0.40403004E+02 -0.16596E+05
 0.40453003E+02 -0.17841E+05
 0.40503002E+02 -0.18984E+05
 0.40553005E+02 -0.16983E+05
 0.40603004E+02 -0.17399E+05
 0.40653004E+02 -0.15829E+05
 0.40703003E+02 -0.15558E+05
 0.40753002E+02 -0.15248E+05
 0.40803005E+02 -0.14959E+05
 0.40853004E+02 -0.18502E+05
 0.40903004E+02 -0.19230E+05
 0.40953003E+02 -0.16810E+05
 0.41003002E+02 -0.14413E+05
 0.41053005E+02 -0.14524E+05
 0.41103004E+02 -0.16186E+05
 0.41153004E+02 -0.18675E+05
 0.41203003E+02 -0.18018E+05
 0.41253002E+02 -0.16713E+05
 0.41303005E+02 -0.15885E+05
 0.41353004E+02 -0.16072E+05
 0.41403004E+02 -0.17746E+05
 0.41453003E+02 -0.15402E+05
 0.41503002E+02 -0.13551E+05
 0.41553005E+02 -0.15301E+05
 0.41603004E+02 -0.17672E+05
 0.41653004E+02 -0.18264E+05
 0.41703003E+02 -0.19550E+05
 0.41753002E+02 -0.17973E+05
 0.41803005E+02 -0.15101E+05
 0.41853004E+02 -0.15596E+05
 0.41903004E+02 -0.17889E+05
 0.41953003E+02 -0.17952E+05
 0.42003002E+02 -0.16300E+05
 0.42053005E+02 -0.16232E+05
 0.42103004E+02 -0.18662E+05
 0.42153004E+02 -0.18331E+05
 0.42203003E+02 -0.15196E+05
 0.42253002E+02 -0.17032E+05
 0.42303005E+02 -0.15447E+05
 0.42353004E+02 -0.12554E+05
 0.42403004E+02 -0.13884E+05
 0.42453003E+02 -0.16210E+05
 0.42503002E+02 -0.16767E+05
 0.42553005E+02 -0.16037E+05
 0.42603004E+02 -0.14494E+05
 0.42653004E+02 -0.17009E+05
 0.42703003E+02 -0.20671E+05
 0.42753002E+02 -0.18208E+05
 0.42803001E+02 -0.16820E+05
 0.42853004E+02 -0.17646E+05
 0.42903004E+02 -0.16637E+05
 0.42953003E+02 -0.16040E+05
 0.43003002E+02 -0.17510E+05
 0.43053001E+02 -0.16544E+05
 0.43103004E+02 -0.15025E+05
 0.43153004E+02 -0.16636E+05
 0.43203003E+02 -0.20146E+05
 0.43253002E+02 -0.19969E+05
 0.43303001E+02 -0.16068E+05
 0.43353004E+02 -0.15668E+05
 0.43403004E+02 -0.17181E+05
 0.43453003E+02 -0.16572E+05
 0.43503002E+02 -0.14705E+05
 0.43553001E+02 -0.15734E+05
 0.43603004E+02 -0.18248E+05
 0.43653004E+02 -0.16754E+05
 0.43703003E+02 -0.15129E+05
 0.43753002E+02 -0.16180E+05
 0.43803001E+02 -0.17255E+05
 0.43853004E+02 -0.17809E+05
 0.43903004E+02 -0.17223E+05
 0.43953003E+02 -0.16038E+05
 0.44003002E+02 -0.16128E+05
 0.44053001E+02 -0.16194E+05
 0.44103004E+02 -0.15232E+05
 0.44153004E+02 -0.15424E+05
 0.44203003E+02 -0.17760E+05
 0.44253002E+02 -0.19345E+05
 0.44303001E+02 -0.18846E+05
 0.44353004E+02 -0.18172E+05
 0.44403004E+02 -0.17423E+05
 0.44453003E+02 -0.17677E+05
 0.44503002E+02 -0.17407E+05
 0.44553001E+02 -0.16539E+05
 0.44603004E+02 -0.17231E+05
 0.44653004E+02 -0.17643E+05
 0.44703003E+02 -0.17182E+05
 0.44753002E+02 -0.15734E+05
 0.44803001E+02 -0.16665E+05
 0.44853004E+02 -0.16677E+05
 0.44903004E+02 -0.15232E+05
 0.44953003E+02 -0.15691E+05
 0.45003002E+02 -0.15058E+05
 0.45053001E+02 -0.16418E+05
 0.45103004E+02 -0.18800E+05
 0.45153004E+02 -0.19918E+05
 0.45203003E+02 -0.18318E+05
 0.45253002E+02 -0.15521E+05
 0.45303001E+02 -0.14880E+05
 0.45353004E+02 -0.14312E+05
 0.45403004E+02 -0.16294E+05
 0.45453003E+02 -0.18232E+05
 0.45503002E+02 -0.16699E+05
 0.45553001E+02 -0.16089E+05
 0.45603004E+02 -0.16697E+05
 0.45653004E+02 -0.17185E+05
 0.45703003E+02 -0.14341E+05
 0.45753002E+02 -0.13849E+05
 0.45803001E+02 -0.16759E+05
 0.45853004E+02 -0.18715E+05
 0.45903004E+02 -0.17833E+05
 0.45953003E+02 -0.16858E+05
 0.46003002E+02 -0.17778E+05
 0.46053001E+02 -0.16003E+05
 0.46103004E+02 -0.14967E+05
 0.46153004E+02 -0.16358E+05
 0.46203003E+02 -0.19059E+05
 0.46253002E+02 -0.18946E+05
 0.46303001E+02 -0.17650E+05
 0.46353004E+02 -0.16813E+05
 0.46403004E+02 -0.17272E+05
 0.46453003E+02 -0.18431E+05
 0.46503002E+02 -0.17689E+05
 0.46553001E+02 -0.16742E+05
 0.46603004E+02 -0.14222E+05
 0.46653004E+02 -0.13195E+05
 0.46703003E+02 -0.15314E+05
 0.46753002E+02 -0.18720E+05
 0.46803001E+02 -0.18785E+05
 0.46853004E+02 -0.16307E+05
 0.46903004E+02 -0.16814E+05
 0.46953003E+02 -0.17174E+05
 0.47003002E+02 -0.15834E+05
 0.47053001E+02 -0.16902E+05
 0.47103004E+02 -0.18571E+05
 0.47153004E+02 -0.17037E+05
 0.47203003E+02 -0.15427E+05
 0.47253002E+02 -0.15593E+05
 0.47303001E+02 -0.17843E+05
 0.47353004E+02 -0.18347E+05
 0.47403004E+02 -0.16505E+05
 0.47453003E+02 -0.16805E+05
 0.47503002E+02 -0.16528E+05
 0.47553001E+02 -0.15249E+05
 0.47603004E+02 -0.16968E+05
 0.47653004E+02 -0.17966E+05
 0.47703003E+02 -0.16945E+05
 0.47753002E+02 -0.16019E+05
 0.47803001E+02 -0.14735E+05
 0.47853004E+02 -0.15791E+05
 0.47903004E+02 -0.16786E+05
 0.47953003E+02 -0.16759E+05
 0.48003002E+02 -0.16881E+05
 0.48053001E+02 -0.17924E+05
 0.48103004E+02 -0.17998E+05
 0.48153004E+02 -0.16048E+05
 0.48203003E+02 -0.16294E+05
 0.48253002E+02 -0.17946E+05
 0.48303001E+02 -0.16885E+05
 0.48353004E+02 -0.13989E+05
 0.48403004E+02 -0.15188E+05
 0.48453003E+02 -0.17386E+05
 0.48503002E+02 -0.18820E+05
 0.48553001E+02 -0.18033E+05
 0.48603004E+02 -0.16747E+05
 0.48653004E+02 -0.16456E+05
 0.48703003E+02 -0.15953E+05
 0.48753002E+02 -0.17024E+05
 0.48803001E+02 -0.15962E+05
 0.48853004E+02 -0.15569E+05
 0.48903004E+02 -0.16153E+05
 0.48953003E+02 -0.15576E+05
 0.49003002E+02 -0.17085E+05
 0.49053001E+02 -0.18410E+05
 0.49103004E+02 -0.17262E+05
 0.49153004E+02 -0.17519E+05
 0.49203003E+02 -0.18635E+05
 0.49253002E+02 -0.17748E+05
 0.49303001E+02 -0.16236E+05
 0.49353004E+02 -0.16799E+05
 0.49403004E+02 -0.16723E+05
 0.49453003E+02 -0.16138E+05
 0.49503002E+02 -0.16157E+05
 0.49553001E+02 -0.17243E+05
 0.49603004E+02 -0.19222E+05
 0.49653004E+02 -0.18031E+05
 0.49703003E+02 -0.16356E+05
 0.49753002E+02 -0.15588E+05
 0.49803001E+02 -0.14891E+05
 0.49853004E+02 -0.15296E+05
 0.49903004E+02 -0.17100E+05
 0.49953003E+02 -0.17592E+05
 0.50003002E+02 -0.16201E+05
 0.50053001E+02 -0.15936E+05
 0.50103004E+02 -0.16467E+05
 0.50153004E+02 -0.17573E+05
 0.50203003E+02 -0.19085E+05
 0.50253002E+02 -0.19401E+05
 0.50303001E+02 -0.17602E+05
 0.50353004E+02 -0.15577E+05
 0.50403004E+02 -0.15066E+05
 0.50453003E+02 -0.16491E+05
 0.50503002E+02 -0.18393E+05
 0.50553001E+02 -0.18487E+05
 0.50603004E+02 -0.16690E+05
 0.50653004E+02 -0.14493E+05
 0.50703003E+02 -0.14790E+05
 0.50753002E+02 -0.16505E+05
 0.50803001E+02 -0.17033E+05
 0.50853004E+02 -0.16341E+05
 0.50903004E+02 -0.15917E+05
 0.50953003E+02 -0.15972E+05
 0.51003002E+02 -0.16957E+05
 0.51053001E+02 -0.18020E+05
 0.51103004E+02 -0.16950E+05
 0.51153004E+02 -0.15690E+05
 0.51203003E+02 -0.16325E+05
 0.51253002E+02 -0.17726E+05
 0.51303001E+02 -0.16620E+05
 0.51353004E+02 -0.16361E+05
 0.51403004E+02 -0.18314E+05
 0.51453003E+02 -0.17475E+05
 0.51503002E+02 -0.16892E+05
 0.51553001E+02 -0.17152E+05
 0.51603004E+02 -0.17343E+05
 0.51653004E+02 -0.17141E+05
 0.51703003E+02 -0.16291E+05
 0.51753002E+02 -0.16819E+05
 0.51803001E+02 -0.17006E+05
 0.51853004E+02 -0.16603E+05
 0.51903004E+02 -0.16077E+05
 0.51953003E+02 -0.16176E+05
 0.52003002E+02 -0.16941E+05
 0.52053001E+02 -0.17579E+05
 0.52103004E+02 -0.16402E+05
 0.52153004E+02 -0.16250E+05
 0.52203003E+02 -0.18013E+05
 0.52253002E+02 -0.17298E+05
 0.52303001E+02 -0.16503E+05
 0.52353004E+02 -0.16552E+05
 0.52403004E+02 -0.16151E+05
 0.52453003E+02 -0.16641E+05
 0.52503002E+02 -0.16237E+05
 0.52553001E+02 -0.14931E+05
 0.52603004E+02 -0.15340E+05
 0.52653004E+02 -0.15944E+05
 0.52703003E+02 -0.15496E+05
 0.52753002E+02 -0.16626E+05
 0.52803001E+02 -0.17792E+05
 0.52853004E+02 -0.16762E+05
 0.52903004E+02 -0.16387E+05
 0.52953003E+02 -0.17201E+05
 0.53003002E+02 -0.16205E+05
 0.53053001E+02 -0.16005E+05
 0.53103004E+02 -0.17854E+05
 0.53153004E+02 -0.18204E+05
 0.53203003E+02 -0.17575E+05
 0.53253002E+02 -0.16153E+05
 0.53303001E+02 -0.15949E+05
 0.53353004E+02 -0.16378E+05
 0.53403004E+02 -0.16532E+05
 0.53453003E+02 -0.16234E+05
 0.53503002E+02 -0.16975E+05
 0.53553001E+02 -0.18437E+05
 0.53603004E+02 -0.18071E+05
 0.53653004E+02 -0.18620E+05
 0.53703003E+02 -0.18314E+05
 0.53753002E+02 -0.17703E+05
 0.53803001E+02 -0.17825E+05
 0.53853004E+02 -0.16668E+05
 0.53903004E+02 -0.16025E+05
 0.53953003E+02 -0.16483E+05
 0.54003002E+02 -0.16173E+05
 0.54053001E+02 -0.15055E+05
 0.54103004E+02 -0.15943E+05
 0.54153004E+02 -0.17116E+05
 0.54203003E+02 -0.17422E+05
 0.54253002E+02 -0.17117E+05
 0.54303001E+02 -0.16947E+05
 0.54353004E+02 -0.16918E+05
 0.54403004E+02 -0.16039E+05
 0.54453003E+02 -0.15876E+05
 0.54503002E+02 -0.16298E+05
 0.54553001E+02 -0.16554E+05
 0.54603004E+02 -0.16278E+05
 0.54653004E+02 -0.17353E+05
 0.54703003E+02 -0.17348E+05
 0.54753002E+02 -0.15790E+05
 0.54803001E+02 -0.16220E+05
 0.54853004E+02 -0.17084E+05
 0.54903004E+02 -0.16278E+05
 0.54953003E+02 -0.15821E+05
 0.55003002E+02 -0.17053E+05
 0.55053001E+02 -0.17625E+05
 0.55103004E+02 -0.16925E+05
 0.55153004E+02 -0.17576E+05
 0.55203003E+02 -0.17825E+05
 0.55253002E+02 -0.16482E+05
 0.55303001E+02 -0.16818E+05
 0.55353004E+02 -0.17867E+05
 0.55403004E+02 -0.17448E+05
 0.55453003E+02 -0.16694E+05
 0.55503002E+02 -0.16752E+05
 0.55553001E+02 -0.16439E+05
 0.55603004E+02 -0.16145E+05
 0.55653004E+02 -0.15668E+05
 0.55703003E+02 -0.15991E+05
 0.55753002E+02 -0.16741E+05
 0.55803001E+02 -0.16992E+05
 0.55853001E+02 -0.17856E+05
 0.55903004E+02 -0.17815E+05
 0.55953003E+02 -0.17184E+05
 0.56003002E+02 -0.16468E+05
 0.56053001E+02 -0.16599E+05
 0.56103001E+02 -0.16783E+05
 0.56153004E+02 -0.17162E+05
 0.56203003E+02 -0.16909E+05
 0.56253002E+02 -0.16598E+05
 0.56303001E+02 -0.17437E+05
 0.56353001E+02 -0.17175E+05
 0.56403004E+02 -0.16292E+05
 0.56453003E+02 -0.16399E+05
 0.56503002E+02 -0.17239E+05
 0.56553001E+02 -0.16919E+05
 0.56603001E+02 -0.16405E+05
 0.56653004E+02 -0.15835E+05
 0.56703003E+02 -0.16308E+05
 0.56753002E+02 -0.17124E+05
 0.56803001E+02 -0.17265E+05
 0.56853001E+02 -0.17208E+05
 0.56903004E+02 -0.17272E+05
 0.56953003E+02 -0.17601E+05
 0.57003002E+02 -0.16584E+05
 0.57053001E+02 -0.15829E+05
 0.57103001E+02 -0.15926E+05
 0.57153004E+02 -0.16116E+05
 0.57203003E+02 -0.16662E+05
 0.57253002E+02 -0.16868E+05
 0.57303001E+02 -0.16861E+05
 0.57353001E+02 -0.16671E+05
 0.57403004E+02 -0.15368E+05
 0.57453003E+02 -0.15331E+05
 0.57503002E+02 -0.16146E+05
 0.57553001E+02 -0.16494E+05
 0.57603001E+02 -0.17624E+05
 0.57653004E+02 -0.18388E+05
 0.57703003E+02 -0.17250E+05
 0.57753002E+02 -0.16506E+05
 0.57803001E+02 -0.17389E+05
 0.57853001E+02 -0.17336E+05
 0.57903004E+02 -0.16517E+05
 0.57953003E+02 -0.16293E+05
 0.58003002E+02 -0.17076E+05
 0.58053001E+02 -0.16676E+05
 0.58103001E+02 -0.15664E+05
 0.58153004E+02 -0.15622E+05
 0.58203003E+02 -0.16279E+05
 0.58253002E+02 -0.16624E+05
 0.58303001E+02 -0.16525E+05
 0.58353001E+02 -0.17214E+05
 0.58403004E+02 -0.17706E+05
 0.58453003E+02 -0.17719E+05
 0.58503002E+02 -0.17115E+05
 0.58553001E+02 -0.16854E+05
 0.58603001E+02 -0.17021E+05
 0.58653004E+02 -0.16095E+05
 0.58703003E+02 -0.15941E+05
 0.58753002E+02 -0.16530E+05
 0.58803001E+02 -0.16195E+05
 0.58853001E+02 -0.15821E+05
 0.58903004E+02 -0.16300E+05
 0.58953003E+02 -0.17376E+05
 0.59003002E+02 -0.17340E+05
 0.59053001E+02 -0.16755E+05
 0.59103001E+02 -0.17457E+05
 0.59153004E+02 -0.17442E+05
 0.59203003E+02 -0.16572E+05
 0.59253002E+02 -0.16819E+05
 0.59303001E+02 -0.17390E+05
 0.59353001E+02 -0.17729E+05
 0.59403004E+02 -0.17452E+05
 0.59453003E+02 -0.17610E+05
 0.59503002E+02 -0.17695E+05
 0.59553001E+02 -0.16806E+05
 0.59603001E+02 -0.16317E+05
 0.59653004E+02 -0.16421E+05
 0.59703003E+02 -0.16670E+05
 0.59753002E+02 -0.16455E+05
 0.59803001E+02 -0.16047E+05
 0.59853001E+02 -0.16658E+05
 0.59903004E+02 -0.17760E+05
 0.59953003E+02 -0.17622E+05
 0.60003002E+02 -0.16799E+05
 0.60053001E+02 -0.16037E+05
 0.60103001E+02 -0.15500E+05
 0.60153004E+02 -0.15488E+05
 0.60203003E+02 -0.15830E+05
 0.60253002E+02 -0.16201E+05
 0.60303001E+02 -0.16560E+05
 0.60353001E+02 -0.17136E+05
 0.60403004E+02 -0.17148E+05
 0.60453003E+02 -0.16735E+05
 0.60503002E+02 -0.17117E+05
 0.60553001E+02 -0.17559E+05
 0.60603001E+02 -0.17127E+05
 0.60653004E+02 -0.16404E+05
 0.60703003E+02 -0.16619E+05
 0.60753002E+02 -0.16692E+05
 0.60803001E+02 -0.16106E+05
 0.60853001E+02 -0.15991E+05
 0.60903004E+02 -0.16184E+05
 0.60953003E+02 -0.16711E+05
 0.61003002E+02 -0.17198E+05
 0.61053001E+02 -0.17122E+05
 0.61103001E+02 -0.17145E+05
 0.61153004E+02 -0.17433E+05
 0.61203003E+02 -0.17245E+05
 0.61253002E+02 -0.17230E+05
 0.61303001E+02 -0.17284E+05
 0.61353001E+02 -0.17847E+05
 0.61403004E+02 -0.18011E+05
 0.61453003E+02 -0.17557E+05
 0.61503002E+02 -0.16996E+05
 0.61553001E+02 -0.16199E+05
 0.61603001E+02 -0.15751E+05
 0.61653004E+02 -0.15183E+05
 0.61703003E+02 -0.15446E+05
 0.61753002E+02 -0.15957E+05
 0.61803001E+02 -0.16583E+05
 0.61853001E+02 -0.17034E+05
 0.61903004E+02 -0.16672E+05
 0.61953003E+02 -0.16238E+05
 0.62003002E+02 -0.16580E+05
 0.62053001E+02 -0.16875E+05
 0.62103004E+02 -0.16432E+05
 0.62153000E+02 -0.16228E+05
 0.62203003E+02 -0.16673E+05
 0.62252998E+02 -0.17631E+05
 0.62303001E+02 -0.17853E+05
 0.62353004E+02 -0.17421E+05
 0.62403000E+02 -0.16713E+05
 0.62453003E+02 -0.17141E+05
 0.62502998E+02 -0.18321E+05
 0.62553001E+02 -0.17602E+05
 0.62603004E+02 -0.16357E+05
 0.62653000E+02 -0.16438E+05
 0.62703003E+02 -0.16389E+05
 0.62752998E+02 -0.16095E+05
 0.62803001E+02 -0.16410E+05
 0.62853004E+02 -0.16577E+05
 0.62903000E+02 -0.16681E+05
 0.62953003E+02 -0.17324E+05
 0.63002998E+02 -0.17994E+05
 0.63053001E+02 -0.17891E+05
 0.63103004E+02 -0.17375E+05
 0.63153000E+02 -0.16868E+05
 0.63203003E+02 -0.16426E+05
 0.63252998E+02 -0.16511E+05
 0.63303001E+02 -0.16765E+05
 0.63353004E+02 -0.16146E+05
 0.63403000E+02 -0.15915E+05
 0.63453003E+02 -0.16354E+05
 0.63502998E+02 -0.16857E+05
 0.63553001E+02 -0.16957E+05
 0.63603004E+02 -0.16739E+05
 0.63653000E+02 -0.16980E+05
 0.63703003E+02 -0.16864E+05
 0.63752998E+02 -0.17014E+05
 0.63803001E+02 -0.17069E+05
 0.63853004E+02 -0.16640E+05
 0.63903000E+02 -0.16814E+05
 0.63953003E+02 -0.16672E+05
 0.64002998E+02 -0.16341E+05
 0.64053001E+02 -0.16625E+05
 0.64103004E+02 -0.16550E+05
 0.64153000E+02 -0.15992E+05
 0.64203003E+02 -0.16164E+05
 0.64252998E+02 -0.16678E+05
 0.64303001E+02 -0.16118E+05
 0.64353004E+02 -0.15760E+05
 0.64403000E+02 -0.16499E+05
 0.64453003E+02 -0.16931E+05
 0.64502998E+02 -0.16754E+05
 0.64553001E+02 -0.16781E+05
 0.64603004E+02 -0.17040E+05
 0.64653000E+02 -0.17140E+05
 0.64703003E+02 -0.17103E+05
 0.64752998E+02 -0.17138E+05
 0.64803001E+02 -0.16351E+05
 0.64853004E+02 -0.16047E+05
 0.64903000E+02 -0.17016E+05
 0.64953003E+02 -0.17538E+05
 0.65002998E+02 -0.17069E+05
 0.65053001E+02 -0.16540E+05
 0.65103004E+02 -0.17138E+05
 0.65153000E+02 -0.17436E+05
 0.65203003E+02 -0.16776E+05
 0.65252998E+02 -0.16599E+05
 0.65303001E+02 -0.16941E+05
 0.65353004E+02 -0.17139E+05
 0.65403000E+02 -0.17287E+05
 0.65453003E+02 -0.16805E+05
 0.65502998E+02 -0.16200E+05
 0.65553001E+02 -0.16022E+05
 0.65603004E+02 -0.15813E+05
 0.65653000E+02 -0.16276E+05
 0.65703003E+02 -0.17129E+05
 0.65752998E+02 -0.17504E+05
 0.65803001E+02 -0.17343E+05
 0.65853004E+02 -0.16652E+05
 0.65903000E+02 -0.16657E+05
 0.65953003E+02 -0.17015E+05
 0.66002998E+02 -0.17182E+05
 0.66053001E+02 -0.17262E+05
 0.66103004E+02 -0.17133E+05
 0.66153000E+02 -0.17336E+05
 0.66203003E+02 -0.17629E+05
 0.66252998E+02 -0.17257E+05
 0.66303001E+02 -0.16063E+05
 0.66353004E+02 -0.16022E+05
 0.66403000E+02 -0.16458E+05
 0.66453003E+02 -0.16508E+05
 0.66502998E+02 -0.16800E+05
 0.66553001E+02 -0.16712E+05
 0.66603004E+02 -0.16596E+05
 0.66653000E+02 -0.16403E+05
 0.66703003E+02 -0.16475E+05
 0.66752998E+02 -0.17151E+05
 0.66803001E+02 -0.17533E+05
 0.66853004E+02 -0.17222E+05
 0.66903000E+02 -0.16810E+05
 0.66953003E+02 -0.16893E+05
 0.67002998E+02 -0.17022E+05
 0.67053001E+02 -0.16755E+05
 0.67103004E+02 -0.16990E+05
 0.67153000E+02 -0.17305E+05
 0.67203003E+02 -0.17154E+05
 0.67252998E+02 -0.16901E+05
 0.67303001E+02 -0.16790E+05
 0.67353004E+02 -0.16992E+05
 0.67403000E+02 -0.16820E+05
 0.67453003E+02 -0.15998E+05
 0.67502998E+02 -0.15552E+05
 0.67553001E+02 -0.15986E+05
 0.67603004E+02 -0.17010E+05
 0.67653000E+02 -0.17327E+05
 0.67703003E+02 -0.16691E+05
 0.67752998E+02 -0.16450E+05
 0.67803001E+02 -0.16717E+05
 0.67853004E+02 -0.17021E+05
 0.67903000E+02 -0.17081E+05
 0.67953003E+02 -0.16783E+05
 0.68002998E+02 -0.16293E+05
 0.68053001E+02 -0.16400E+05
 0.68103004E+02 -0.16846E+05
 0.68153000E+02 -0.17110E+05
 0.68203003E+02 -0.17026E+05
 0.68252998E+02 -0.16870E+05
 0.68303001E+02 -0.16777E+05
 0.68353004E+02 -0.16773E+05
 0.68403000E+02 -0.16388E+05
 0.68453003E+02 -0.16199E+05
 0.68502998E+02 -0.16447E+05
 0.68553001E+02 -0.16579E+05
 0.68603004E+02 -0.16741E+05
 0.68653000E+02 -0.16665E+05
 0.68703003E+02 -0.17057E+05
 0.68752998E+02 -0.17298E+05
 0.68803001E+02 -0.16710E+05
 0.68853004E+02 -0.16443E+05
 0.68903000E+02 -0.16714E+05
 0.68953003E+02 -0.16671E+05
 0.69002998E+02 -0.16578E+05
 0.69053001E+02 -0.16890E+05
 0.69103004E+02 -0.17048E+05
 0.69153000E+02 -0.16827E+05
 0.69203003E+02 -0.16851E+05
 0.69252998E+02 -0.17091E+05
 0.69303001E+02 -0.16781E+05
 0.69353004E+02 -0.16597E+05
 0.69403000E+02 -0.16794E+05
 0.69453003E+02 -0.16680E+05
 0.69502998E+02 -0.16618E+05
 0.69553001E+02 -0.16747E+05
 0.69603004E+02 -0.16753E+05
 0.69653000E+02 -0.16535E+05
 0.69703003E+02 -0.16327E+05
 0.69752998E+02 -0.16467E+05
 0.69803001E+02 -0.16712E+05
 0.69853004E+02 -0.16460E+05
 0.69903000E+02 -0.16520E+05
 0.69953003E+02 -0.16738E+05
 0.70002998E+02 -0.16634E+05
 0.70053001E+02 -0.16761E+05
 0.70103004E+02 -0.16854E+05
 0.70153000E+02 -0.16692E+05
 0.70203003E+02 -0.16687E+05
 0.70252998E+02 -0.16849E+05
 0.70303001E+02 -0.16733E+05
 0.70353004E+02 -0.16634E+05
 0.70403000E+02 -0.16696E+05
 0.70453003E+02 -0.16515E+05
 0.70502998E+02 -0.16499E+05
 0.70553001E+02 -0.16476E+05
 0.70603004E+02 -0.16438E+05
 0.70653000E+02 -0.16744E+05
 0.70703003E+02 -0.16927E+05
 0.70752998E+02 -0.16905E+05
 0.70803001E+02 -0.16569E+05
 0.70853004E+02 -0.16495E+05
 0.70903000E+02 -0.16860E+05
 0.70953003E+02 -0.17318E+05
 0.71002998E+02 -0.17743E+05
 0.71053001E+02 -0.17673E+05
 0.71103004E+02 -0.17356E+05
 0.71153000E+02 -0.17263E+05
 0.71203003E+02 -0.16974E+05
 0.71252998E+02 -0.17008E+05
 0.71303001E+02 -0.17112E+05
 0.71353004E+02 -0.17072E+05
 0.71403000E+02 -0.16967E+05
 0.71453003E+02 -0.16693E+05
 0.71502998E+02 -0.16815E+05
 0.71553001E+02 -0.17029E+05
 0.71603004E+02 -0.16924E+05
 0.71653000E+02 -0.16524E+05
 0.71703003E+02 -0.16536E+05
 0.71752998E+02 -0.16559E+05
 0.71803001E+02 -0.16286E+05
 0.71853004E+02 -0.16575E+05
 0.71903000E+02 -0.17151E+05
 0.71953003E+02 -0.16845E+05
 0.72002998E+02 -0.16429E+05
 0.72053001E+02 -0.16816E+05
 0.72103004E+02 -0.17101E+05
 0.72153000E+02 -0.16913E+05
 0.72203003E+02 -0.16797E+05
 0.72252998E+02 -0.16882E+05
 0.72303001E+02 -0.16679E+05
 0.72353004E+02 -0.16331E+05
 0.72403000E+02 -0.16409E+05
 0.72453003E+02 -0.16687E+05
 0.72502998E+02 -0.16568E+05
 0.72553001E+02 -0.16458E+05
 0.72603004E+02 -0.16498E+05
 0.72653000E+02 -0.16369E+05
 0.72703003E+02 -0.16365E+05
 0.72752998E+02 -0.16809E+05
 0.72803001E+02 -0.17405E+05
 0.72853004E+02 -0.17606E+05
 0.72903000E+02 -0.17278E+05
 0.72953003E+02 -0.17047E+05
 0.73002998E+02 -0.17215E+05
 0.73053001E+02 -0.17010E+05
 0.73103004E+02 -0.16865E+05
 0.73153000E+02 -0.16948E+05
 0.73203003E+02 -0.16716E+05
 0.73252998E+02 -0.16235E+05
 0.73303001E+02 -0.16094E+05
 0.73353004E+02 -0.16457E+05
 0.73403000E+02 -0.16603E+05
 0.73453003E+02 -0.16658E+05
 0.73502998E+02 -0.16687E+05
 0.73553001E+02 -0.16534E+05
 0.73603004E+02 -0.16382E+05
 0.73653000E+02 -0.16467E+05
 0.73703003E+02 -0.16797E+05
 0.73752998E+02 -0.16994E+05
 0.73803001E+02 -0.16976E+05
 0.73853004E+02 -0.17052E+05
 0.73903000E+02 -0.16948E+05
 0.73953003E+02 -0.17005E+05
 0.74002998E+02 -0.17102E+05
 0.74053001E+02 -0.16877E+05
 0.74103004E+02 -0.16498E+05
 0.74153000E+02 -0.16140E+05
 0.74203003E+02 -0.16279E+05
 0.74252998E+02 -0.16780E+05
 0.74303001E+02 -0.17131E+05
 0.74353004E+02 -0.16886E+05
 0.74403000E+02 -0.16445E+05
 0.74453003E+02 -0.16354E+05
 0.74502998E+02 -0.16696E+05
 0.74553001E+02 -0.16995E+05
 0.74603004E+02 -0.17056E+05
 0.74653000E+02 -0.17027E+05
 0.74703003E+02 -0.16989E+05
 0.74752998E+02 -0.16635E+05
 0.74803001E+02 -0.16475E+05
 0.74853004E+02 -0.16809E+05
 0.74903000E+02 -0.16921E+05
 0.74953003E+02 -0.16564E+05
 0.75002998E+02 -0.16641E+05
 0.75053001E+02 -0.17305E+05
 0.75103004E+02 -0.17490E+05
 0.75153000E+02 -0.17119E+05
 0.75203003E+02 -0.17122E+05
 0.75252998E+02 -0.17479E+05
 0.75303001E+02 -0.17060E+05
 0.75353004E+02 -0.16493E+05
 0.75403000E+02 -0.16539E+05
 0.75453003E+02 -0.16826E+05
 0.75502998E+02 -0.16575E+05
 0.75553001E+02 -0.16346E+05
 0.75603004E+02 -0.16596E+05
 0.75653000E+02 -0.16957E+05
 0.75703003E+02 -0.17035E+05
 0.75752998E+02 -0.17127E+05
 0.75803001E+02 -0.17559E+05
 0.75853004E+02 -0.17309E+05
 0.75903000E+02 -0.16695E+05
 0.75953003E+02 -0.16411E+05
 0.76002998E+02 -0.16483E+05
 0.76053001E+02 -0.16727E+05
 0.76103004E+02 -0.17006E+05
 0.76153000E+02 -0.17061E+05
 0.76203003E+02 -0.16784E+05
 0.76252998E+02 -0.16649E+05
 0.76303001E+02 -0.16590E+05
 0.76353004E+02 -0.16473E+05
 0.76403000E+02 -0.16157E+05
 0.76453003E+02 -0.16080E+05
 0.76502998E+02 -0.16307E+05
 0.76553001E+02 -0.16500E+05
 0.76603004E+02 -0.16571E+05
 0.76653000E+02 -0.16291E+05
 0.76703003E+02 -0.16272E+05
 0.76752998E+02 -0.16472E+05
 0.76803001E+02 -0.16573E+05
 0.76853004E+02 -0.16866E+05
 0.76903000E+02 -0.17179E+05
 0.76953003E+02 -0.17293E+05
 0.77002998E+02 -0.17036E+05
 0.77053001E+02 -0.16819E+05
 0.77103004E+02 -0.16768E+05
 0.77153000E+02 -0.16647E+05
 0.77203003E+02 -0.16676E+05
 0.77252998E+02 -0.16759E+05
 0.77303001E+02 -0.16687E+05
 0.77353004E+02 -0.16391E+05
 0.77403000E+02 -0.16258E+05
 0.77453003E+02 -0.16403E+05
 0.77502998E+02 -0.16566E+05
 0.77553001E+02 -0.16471E+05
 0.77603004E+02 -0.16517E+05
 0.77653000E+02 -0.16951E+05
 0.77703003E+02 -0.16937E+05
 0.77752998E+02 -0.16819E+05
 0.77803001E+02 -0.16923E+05
 0.77853004E+02 -0.16928E+05
 0.77903000E+02 -0.17053E+05
 0.77953003E+02 -0.17160E+05
 0.78002998E+02 -0.17203E+05
 0.78053001E+02 -0.17138E+05
 0.78103004E+02 -0.17034E+05
 0.78153000E+02 -0.16991E+05
 0.78203003E+02 -0.16859E+05
 0.78252998E+02 -0.16682E+05
 0.78303001E+02 -0.16956E+05
 0.78353004E+02 -0.17420E+05
 0.78403000E+02 -0.17284E+05
 0.78453003E+02 -0.16775E+05
 0.78502998E+02 -0.16783E+05
 0.78553001E+02 -0.17200E+05
 0.78603004E+02 -0.16995E+05
 0.78653000E+02 -0.16589E+05
 0.78703003E+02 -0.16498E+05
 0.78752998E+02 -0.16663E+05
 0.78803001E+02 -0.16725E+05
 0.78853004E+02 -0.16717E+05
 0.78903000E+02 -0.16884E+05
 0.78953003E+02 -0.16840E+05
 0.79002998E+02 -0.16772E+05
 0.79053001E+02 -0.16539E+05
 0.79103004E+02 -0.16305E+05
 0.79153000E+02 -0.16393E+05
 0.79203003E+02 -0.16598E+05
 0.79252998E+02 -0.16556E+05
 0.79303001E+02 -0.16411E+05
 0.79353004E+02 -0.16451E+05
 0.79403000E+02 -0.16449E+05
 0.79453003E+02 -0.16493E+05
 0.79502998E+02 -0.16929E+05
 0.79553001E+02 -0.17429E+05
 0.79603004E+02 -0.17309E+05
 0.79653000E+02 -0.16962E+05
 0.79703003E+02 -0.16826E+05
 0.79752998E+02 -0.16610E+05
 0.79803001E+02 -0.16319E+05
 0.79853004E+02 -0.16558E+05
 0.79903000E+02 -0.17039E+05
 0.79953003E+02 -0.17070E+05
 0.80002998E+02 -0.16842E+05
 0.80053001E+02 -0.16837E+05
 0.80103004E+02 -0.16995E+05
 0.80153000E+02 -0.16947E+05
 0.80203003E+02 -0.16728E+05
 0.80252998E+02 -0.16589E+05
 0.80303001E+02 -0.16585E+05
 0.80353004E+02 -0.16628E+05
 0.80403000E+02 -0.16519E+05
 0.80453003E+02 -0.16563E+05
 0.80502998E+02 -0.16904E+05
 0.80553001E+02 -0.17093E+05
 0.80603004E+02 -0.17044E+05
 0.80653000E+02 -0.17009E+05
 0.80703003E+02 -0.17084E+05
 0.80752998E+02 -0.16843E+05
 0.80803001E+02 -0.16678E+05
 0.80853004E+02 -0.16872E+05
 0.80903000E+02 -0.17067E+05
 0.80953003E+02 -0.17121E+05
 0.81002998E+02 -0.16849E+05
 0.81053001E+02 -0.16633E+05
 0.81103004E+02 -0.16645E+05
 0.81153000E+02 -0.16655E+05
 0.81203003E+02 -0.16509E+05
 0.81252998E+02 -0.16250E+05
 0.81303001E+02 -0.16299E+05
 0.81353004E+02 -0.16548E+05
 0.81403000E+02 -0.16616E+05
 0.81453003E+02 -0.16301E+05
 0.81502998E+02 -0.16161E+05
 0.81553001E+02 -0.16487E+05
 0.81603004E+02 -0.16712E+05
 0.81653000E+02 -0.16684E+05
 0.81703003E+02 -0.16560E+05
 0.81752998E+02 -0.16645E+05
 0.81803001E+02 -0.16812E+05
 0.81853004E+02 -0.16963E+05
 0.81903000E+02 -0.17071E+05
 0.81953003E+02 -0.17063E+05
 0.82002998E+02 -0.17034E+05
 0.82053001E+02 -0.17008E+05
 0.82103004E+02 -0.16797E+05
 0.82153000E+02 -0.16526E+05
 0.82203003E+02 -0.16513E+05
 0.82252998E+02 -0.16641E+05
 0.82303001E+02 -0.16797E+05
 0.82353004E+02 -0.16870E+05
 0.82403000E+02 -0.17054E+05
 0.82453003E+02 -0.17188E+05
 0.82502998E+02 -0.16917E+05
 0.82553001E+02 -0.16537E+05
 0.82603004E+02 -0.16391E+05
 0.82653000E+02 -0.16468E+05
 0.82703003E+02 -0.16457E+05
 0.82752998E+02 -0.16668E+05
 0.82803001E+02 -0.17032E+05
 0.82853004E+02 -0.17001E+05
 0.82903000E+02 -0.16853E+05
 0.82953003E+02 -0.17158E+05
 0.83002998E+02 -0.17292E+05
 0.83053001E+02 -0.16994E+05
 0.83103004E+02 -0.17003E+05
 0.83153000E+02 -0.16946E+05
 0.83203003E+02 -0.16822E+05
 0.83252998E+02 -0.16898E+05
 0.83303001E+02 -0.16931E+05
 0.83353004E+02 -0.16913E+05
 0.83403000E+02 -0.16899E+05
 0.83453003E+02 -0.16860E+05
 0.83502998E+02 -0.16803E+05
 0.83553001E+02 -0.16854E+05
 0.83603004E+02 -0.16959E+05
 0.83653000E+02 -0.16864E+05
 0.83703003E+02 -0.16785E+05
 0.83752998E+02 -0.16885E+05
 0.83803001E+02 -0.17086E+05
 0.83853004E+02 -0.17273E+05
 0.83903000E+02 -0.17306E+05
 0.83953003E+02 -0.17120E+05
 0.84002998E+02 -0.17038E+05
 0.84053001E+02 -0.17025E+05
 0.84103004E+02 -0.16741E+05
 0.84153000E+02 -0.16482E+05
 0.84203003E+02 -0.16620E+05
 0.84252998E+02 -0.16795E+05
 0.84303001E+02 -0.16643E+05
 0.84353004E+02 -0.16521E+05
 0.84403000E+02 -0.16468E+05
 0.84453003E+02 -0.16478E+05
 0.84502998E+02 -0.16613E+05
 0.84553001E+02 -0.16719E+05
 0.84603004E+02 -0.16726E+05
 0.84653000E+02 -0.16535E+05
 0.84703003E+02 -0.16257E+05
 0.84752998E+02 -0.16298E+05
 0.84803001E+02 -0.16529E+05
 0.84853004E+02 -0.16584E+05
 0.84903000E+02 -0.16457E+05
 0.84953003E+02 -0.16312E+05
 0.85002998E+02 -0.16372E+05
 0.85053001E+02 -0.16500E+05
 0.85103004E+02 -0.16437E+05
 0.85153000E+02 -0.16344E+05
 0.85203003E+02 -0.16275E+05
 0.85252998E+02 -0.16384E+05
 0.85303001E+02 -0.16616E+05
 0.85353004E+02 -0.16796E+05
 0.85403000E+02 -0.17011E+05
 0.85453003E+02 -0.17131E+05
 0.85502998E+02 -0.17051E+05
 0.85553001E+02 -0.16820E+05
 0.85603004E+02 -0.16765E+05
 0.85653000E+02 -0.16862E+05
 0.85703003E+02 -0.16689E+05
 0.85752998E+02 -0.16662E+05
 0.85803001E+02 -0.16893E+05
 0.85853004E+02 -0.16914E+05
 0.85903000E+02 -0.16821E+05
 0.85953003E+02 -0.16930E+05
 0.86002998E+02 -0.17304E+05
 0.86053001E+02 -0.17358E+05
 0.86103004E+02 -0.16890E+05
 0.86153000E+02 -0.16647E+05
 0.86203003E+02 -0.16988E+05
 0.86252998E+02 -0.17142E+05
 0.86303001E+02 -0.17019E+05
 0.86353004E+02 -0.16890E+05
 0.86403000E+02 -0.16794E+05
 0.86453003E+02 -0.16870E+05
 0.86502998E+02 -0.17004E+05
 0.86553001E+02 -0.17217E+05
 0.86603004E+02 -0.17310E+05
 0.86653000E+02 -0.17134E+05
 0.86703003E+02 -0.16799E+05
 0.86752998E+02 -0.16530E+05
 0.86803001E+02 -0.16394E+05
 0.86853004E+02 -0.16453E+05
 0.86903000E+02 -0.16671E+05
 0.86953003E+02 -0.16817E+05
 0.87002998E+02 -0.16831E+05
 0.87053001E+02 -0.16805E+05
 0.87103004E+02 -0.16650E+05
 0.87153000E+02 -0.16563E+05
 0.87203003E+02 -0.16589E+05
 0.87252998E+02 -0.16508E+05
 0.87303001E+02 -0.16422E+05
 0.87353004E+02 -0.16428E+05
 0.87403000E+02 -0.16475E+05
 0.87453003E+02 -0.16564E+05
 0.87502998E+02 -0.16672E+05
 0.87553001E+02 -0.16830E+05
 0.87602997E+02 -0.17100E+05
 0.87653000E+02 -0.17261E+05
 0.87703003E+02 -0.17078E+05
 0.87752998E+02 -0.16774E+05
 0.87803001E+02 -0.16764E+05
 0.87852997E+02 -0.16831E+05
 0.87903000E+02 -0.16850E+05
 0.87953003E+02 -0.16906E+05
 0.88002998E+02 -0.16948E+05
 0.88053001E+02 -0.16901E+05
 0.88102997E+02 -0.16772E+05
 0.88153000E+02 -0.16636E+05
 0.88203003E+02 -0.16432E+05
 0.88252998E+02 -0.16386E+05
 0.88303001E+02 -0.16659E+05
 0.88352997E+02 -0.16883E+05
 0.88403000E+02 -0.16755E+05
 0.88453003E+02 -0.16601E+05
 0.88502998E+02 -0.16753E+05
 0.88553001E+02 -0.16882E+05
 0.88602997E+02 -0.16846E+05
 0.88653000E+02 -0.16799E+05
 0.88703003E+02 -0.16810E+05
 0.88752998E+02 -0.16926E+05
 0.88803001E+02 -0.16971E+05
 0.88852997E+02 -0.16793E+05
 0.88903000E+02 -0.16534E+05
 0.88953003E+02 -0.16408E+05
 0.89002998E+02 -0.16486E+05
 0.89053001E+02 -0.16528E+05
 0.89102997E+02 -0.16428E+05
 0.89153000E+02 -0.16519E+05
 0.89203003E+02 -0.16674E+05
 0.89252998E+02 -0.16637E+05
 0.89303001E+02 -0.16496E+05
 0.89352997E+02 -0.16574E+05
 0.89403000E+02 -0.16836E+05
 0.89453003E+02 -0.17015E+05
 0.89502998E+02 -0.17101E+05
 0.89553001E+02 -0.16921E+05
 0.89602997E+02 -0.16801E+05
 0.89653000E+02 -0.16969E+05
 0.89703003E+02 -0.17154E+05
 0.89752998E+02 -0.17111E+05
 0.89803001E+02 -0.16930E+05
 0.89852997E+02 -0.16982E+05
 0.89903000E+02 -0.16922E+05
 0.89953003E+02 -0.16868E+05
 0.90002998E+02 -0.16949E+05
 0.90053001E+02 -0.16858E+05
 0.90102997E+02 -0.16648E+05
 0.90153000E+02 -0.16508E+05
 0.90203003E+02 -0.16718E+05
 0.90252998E+02 -0.16769E+05
 0.90303001E+02 -0.16446E+05
 0.90352997E+02 -0.16284E+05
 0.90403000E+02 -0.16439E+05
 0.90453003E+02 -0.16523E+05
 0.90502998E+02 -0.16573E+05
 0.90553001E+02 -0.16806E+05
 0.90602997E+02 -0.16985E+05
 0.90653000E+02 -0.16907E+05
 0.90703003E+02 -0.16758E+05
 0.90752998E+02 -0.16703E+05
 0.90803001E+02 -0.16736E+05
 0.90852997E+02 -0.16816E+05
 0.90903000E+02 -0.16730E+05
 0.90953003E+02 -0.16596E+05
 0.91002998E+02 -0.16592E+05
 0.91053001E+02 -0.16868E+05
 0.91102997E+02 -0.17077E+05
 0.91153000E+02 -0.17065E+05
 0.91203003E+02 -0.17001E+05
 0.91252998E+02 -0.16967E+05
 0.91303001E+02 -0.17036E+05
 0.91352997E+02 -0.17043E+05
 0.91403000E+02 -0.16901E+05
 0.91453003E+02 -0.16712E+05
 0.91502998E+02 -0.16614E+05
 0.91553001E+02 -0.16541E+05
 0.91602997E+02 -0.16503E+05
 0.91653000E+02 -0.16485E+05
 0.91703003E+02 -0.16545E+05
 0.91752998E+02 -0.16726E+05
 0.91803001E+02 -0.16890E+05
 0.91852997E+02 -0.16839E+05
 0.91903000E+02 -0.16697E+05
 0.91953003E+02 -0.16537E+05
 0.92002998E+02 -0.16560E+05
 0.92053001E+02 -0.16722E+05
 0.92102997E+02 -0.16865E+05
 0.92153000E+02 -0.16990E+05
 0.92203003E+02 -0.16887E+05
 0.92252998E+02 -0.16891E+05
 0.92303001E+02 -0.16927E+05
 0.92352997E+02 -0.16971E+05
 0.92403000E+02 -0.17024E+05
 0.92453003E+02 -0.17016E+05
 0.92502998E+02 -0.17128E+05
 0.92553001E+02 -0.17118E+05
 0.92602997E+02 -0.17103E+05
 0.92653000E+02 -0.17225E+05
 0.92703003E+02 -0.17209E+05
 0.92752998E+02 -0.16869E+05
 0.92803001E+02 -0.16637E+05
 0.92852997E+02 -0.16794E+05
 0.92903000E+02 -0.16964E+05
 0.92953003E+02 -0.16834E+05
 0.93002998E+02 -0.16663E+05
 0.93053001E+02 -0.16826E+05
 0.93102997E+02 -0.16799E+05
 0.93153000E+02 -0.16460E+05
 0.93203003E+02 -0.16392E+05
 0.93252998E+02 -0.16488E+05
 0.93303001E+02 -0.16529E+05
 0.93352997E+02 -0.16699E+05
 0.93403000E+02 -0.16814E+05
 0.93453003E+02 -0.16734E+05
 0.93502998E+02 -0.16687E+05
 0.93553001E+02 -0.16751E+05
 0.93602997E+02 -0.16774E+05
 0.93653000E+02 -0.16768E+05
 0.93703003E+02 -0.16630E+05
 0.93752998E+02 -0.16447E+05
 0.93803001E+02 -0.16436E+05
 0.93852997E+02 -0.16476E+05
 0.93903000E+02 -0.16497E+05
 0.93953003E+02 -0.16528E+05
 0.94002998E+02 -0.16622E+05
 0.94053001E+02 -0.16720E+05
 0.94102997E+02 -0.16689E+05
 0.94153000E+02 -0.16750E+05
 0.94203003E+02 -0.17068E+05
 0.94252998E+02 -0.17087E+05
 0.94303001E+02 -0.16824E+05
 0.94352997E+02 -0.16723E+05
 0.94403000E+02 -0.16845E+05
 0.94453003E+02 -0.16806E+05
 0.94502998E+02 -0.16650E+05
 0.94553001E+02 -0.16740E+05
 0.94602997E+02 -0.16791E+05
 0.94653000E+02 -0.16700E+05
 0.94703003E+02 -0.16814E+05
 0.94752998E+02 -0.17083E+05
 0.94803001E+02 -0.17157E+05
 0.94852997E+02 -0.17114E+05
 0.94903000E+02 -0.17003E+05
 0.94953003E+02 -0.16926E+05
 0.95002998E+02 -0.16878E+05
 0.95053001E+02 -0.16896E+05
 0.95102997E+02 -0.16998E+05
 0.95153000E+02 -0.16910E+05
 0.95203003E+02 -0.16787E+05
 0.95252998E+02 -0.16839E+05
 0.95303001E+02 -0.16912E+05
 0.95352997E+02 -0.16746E+05
 0.95403000E+02 -0.16534E+05
 0.95453003E+02 -0.16505E+05
 0.95502998E+02 -0.16591E+05
 0.95553001E+02 -0.16582E+05
 0.95602997E+02 -0.16610E+05
 0.95653000E+02 -0.16862E+05
 0.95703003E+02 -0.17000E+05
 0.95752998E+02 -0.16821E+05
 0.95803001E+02 -0.16679E+05
 0.95852997E+02 -0.16771E+05
 0.95903000E+02 -0.16728E+05
 0.95953003E+02 -0.16609E+05
 0.96002998E+02 -0.16603E+05
 0.96053001E+02 -0.16621E+05
 0.96102997E+02 -0.16643E+05
 0.96153000E+02 -0.16733E+05
 0.96203003E+02 -0.16908E+05
 0.96252998E+02 -0.16864E+05
 0.96303001E+02 -0.16511E+05
 0.96352997E+02 -0.16222E+05
 0.96403000E+02 -0.16219E+05
 0.96453003E+02 -0.16397E+05
 0.96502998E+02 -0.16625E+05
 0.96553001E+02 -0.16793E+05
 0.96602997E+02 -0.16926E+05
 0.96653000E+02 -0.17053E+05
 0.96703003E+02 -0.17072E+05
 0.96752998E+02 -0.17058E+05
 0.96803001E+02 -0.16993E+05
 0.96852997E+02 -0.16884E+05
 0.96903000E+02 -0.16807E+05
 0.96953003E+02 -0.16836E+05
 0.97002998E+02 -0.16886E+05
 0.97053001E+02 -0.16801E+05
 0.97102997E+02 -0.16688E+05
 0.97153000E+02 -0.16701E+05
 0.97203003E+02 -0.16811E+05
 0.97252998E+02 -0.16787E+05
 0.97303001E+02 -0.16777E+05
 0.97352997E+02 -0.16816E+05
 0.97403000E+02 -0.16853E+05
 0.97453003E+02 -0.16820E+05
 0.97502998E+02 -0.16693E+05
 0.97553001E+02 -0.16683E+05
 0.97602997E+02 -0.16794E+05
 0.97653000E+02 -0.16912E+05
 0.97703003E+02 -0.16878E+05
 0.97752998E+02 -0.16802E+05
 0.97803001E+02 -0.16809E+05
 0.97852997E+02 -0.16888E+05
 0.97903000E+02 -0.16912E+05
 0.97953003E+02 -0.16879E+05
 0.98002998E+02 -0.16712E+05
