-0.20000000E+01 -0.65217E+05
-0.19500000E+01 -0.64777E+05
-0.19000000E+01 -0.64973E+05
-0.18500000E+01 -0.64901E+05
-0.18000000E+01 -0.64824E+05
-0.17500000E+01 -0.64760E+05
-0.17000000E+01 -0.64680E+05
-0.16500001E+01 -0.64617E+05
-0.16000000E+01 -0.64545E+05
-0.15500000E+01 -0.64472E+05
-0.15000000E+01 -0.64406E+05
-0.14500000E+01 -0.64336E+05
-0.14000001E+01 -0.64266E+05
-0.13500000E+01 -0.64189E+05
-0.13000001E+01 -0.64116E+05
-0.12500000E+01 -0.64034E+05
-0.12000000E+01 -0.63958E+05
-0.11500001E+01 -0.63868E+05
-0.11000000E+01 -0.63777E+05
-0.10500001E+01 -0.63680E+05
-0.10000000E+01 -0.63588E+05
-0.95000005E+00 -0.63500E+05
-0.90000010E+00 -0.63400E+05
-0.85000002E+00 -0.63282E+05
-0.80000007E+00 -0.63156E+05
-0.75000012E+00 -0.63055E+05
-0.70000005E+00 -0.62962E+05
-0.65000010E+00 -0.62873E+05
-0.60000014E+00 -0.62780E+05
-0.55000007E+00 -0.62700E+05
-0.50000012E+00 -0.62616E+05
-0.45000005E+00 -0.62537E+05
-0.40000010E+00 -0.62466E+05
-0.35000014E+00 -0.62395E+05
-0.30000007E+00 -0.62335E+05
-0.25000012E+00 -0.62277E+05
-0.20000005E+00 -0.62230E+05
-0.15000010E+00 -0.62171E+05
-0.10000014E+00 -0.62118E+05
-0.50000072E-01 -0.62060E+05
-0.11920929E-06 -0.62003E+05
 0.49999952E-01 -0.61937E+05
 0.99999905E-01 -0.61870E+05
 0.14999986E+00 -0.61804E+05
 0.19999981E+00 -0.61729E+05
 0.24999976E+00 -0.61655E+05
 0.29999995E+00 -0.61571E+05
 0.34999990E+00 -0.61499E+05
 0.39999986E+00 -0.61411E+05
 0.44999981E+00 -0.61324E+05
 0.49999976E+00 -0.61228E+05
 0.54999995E+00 -0.61140E+05
 0.59999990E+00 -0.61052E+05
 0.64999986E+00 -0.60961E+05
 0.69999981E+00 -0.60875E+05
 0.74999976E+00 -0.60783E+05
 0.79999971E+00 -0.60698E+05
 0.84999990E+00 -0.60601E+05
 0.89999986E+00 -0.60516E+05
 0.94999981E+00 -0.60422E+05
 0.99999976E+00 -0.60328E+05
 0.10499997E+01 -0.60235E+05
 0.10999999E+01 -0.60145E+05
 0.11499999E+01 -0.60059E+05
 0.11999998E+01 -0.59967E+05
 0.12499998E+01 -0.59882E+05
 0.12999997E+01 -0.59793E+05
 0.13499999E+01 -0.59710E+05
 0.13999999E+01 -0.59619E+05
 0.14499998E+01 -0.59528E+05
 0.14999998E+01 -0.59436E+05
 0.15499997E+01 -0.59345E+05
 0.15999999E+01 -0.59258E+05
 0.16499999E+01 -0.59169E+05
 0.16999998E+01 -0.59085E+05
 0.17499998E+01 -0.59001E+05
 0.17999997E+01 -0.58916E+05
 0.18499997E+01 -0.58830E+05
 0.18999999E+01 -0.58752E+05
 0.19499998E+01 -0.58672E+05
 0.19999998E+01 -0.58597E+05
 0.20499997E+01 -0.58519E+05
 0.20999999E+01 -0.58442E+05
 0.21499996E+01 -0.58362E+05
 0.21999998E+01 -0.58279E+05
 0.22499995E+01 -0.58195E+05
 0.22999997E+01 -0.58105E+05
 0.23499999E+01 -0.58019E+05
 0.23999996E+01 -0.57925E+05
 0.24499998E+01 -0.57838E+05
 0.24999995E+01 -0.57746E+05
 0.25499997E+01 -0.57656E+05
 0.25999999E+01 -0.57559E+05
 0.26499996E+01 -0.57462E+05
 0.26999998E+01 -0.57371E+05
 0.27499995E+01 -0.57268E+05
 0.27999997E+01 -0.57168E+05
 0.28499999E+01 -0.57064E+05
 0.28999996E+01 -0.56960E+05
 0.29499998E+01 -0.56859E+05
 0.29999995E+01 -0.56756E+05
 0.30499997E+01 -0.56653E+05
 0.30999999E+01 -0.56554E+05
 0.31499996E+01 -0.56455E+05
 0.31999998E+01 -0.56357E+05
 0.32499995E+01 -0.56258E+05
 0.32999997E+01 -0.56157E+05
 0.33499999E+01 -0.56066E+05
 0.33999996E+01 -0.55974E+05
 0.34499998E+01 -0.55881E+05
 0.34999995E+01 -0.55791E+05
 0.35499997E+01 -0.55708E+05
 0.35999994E+01 -0.55631E+05
 0.36499996E+01 -0.55562E+05
 0.36999998E+01 -0.55495E+05
 0.37499995E+01 -0.55431E+05
 0.37999997E+01 -0.55369E+05
 0.38499994E+01 -0.55307E+05
 0.38999996E+01 -0.55252E+05
 0.39499998E+01 -0.55193E+05
 0.39999995E+01 -0.55129E+05
 0.40499997E+01 -0.55058E+05
 0.40999994E+01 -0.54984E+05
 0.41499996E+01 -0.54905E+05
 0.41999998E+01 -0.54824E+05
 0.42499995E+01 -0.54741E+05
 0.42999997E+01 -0.54656E+05
 0.43499994E+01 -0.54572E+05
 0.43999996E+01 -0.54484E+05
 0.44499998E+01 -0.54402E+05
 0.44999995E+01 -0.54313E+05
 0.45499997E+01 -0.54230E+05
 0.45999994E+01 -0.54143E+05
 0.46499996E+01 -0.54059E+05
 0.46999998E+01 -0.53976E+05
 0.47499995E+01 -0.53885E+05
 0.47999997E+01 -0.53801E+05
 0.48499994E+01 -0.53706E+05
 0.48999996E+01 -0.53617E+05
 0.49499998E+01 -0.53520E+05
 0.49999995E+01 -0.53421E+05
 0.50499997E+01 -0.53327E+05
 0.50999994E+01 -0.53228E+05
 0.51499996E+01 -0.53128E+05
 0.51999998E+01 -0.53024E+05
 0.52499995E+01 -0.52916E+05
 0.52999997E+01 -0.52805E+05
 0.53499994E+01 -0.52697E+05
 0.53999996E+01 -0.52583E+05
 0.54499993E+01 -0.52476E+05
 0.54999995E+01 -0.52366E+05
 0.55499997E+01 -0.52258E+05
 0.55999994E+01 -0.52153E+05
 0.56499996E+01 -0.52049E+05
 0.56999993E+01 -0.51952E+05
 0.57499995E+01 -0.51858E+05
 0.57999997E+01 -0.51773E+05
 0.58499994E+01 -0.51689E+05
 0.58999996E+01 -0.51611E+05
 0.59499993E+01 -0.51528E+05
 0.59999995E+01 -0.51452E+05
 0.60499992E+01 -0.51377E+05
 0.60999994E+01 -0.51299E+05
 0.61499996E+01 -0.51225E+05
 0.61999998E+01 -0.51147E+05
 0.62499990E+01 -0.51073E+05
 0.62999992E+01 -0.50991E+05
 0.63499994E+01 -0.50913E+05
 0.63999996E+01 -0.50835E+05
 0.64499998E+01 -0.50759E+05
 0.64999990E+01 -0.50685E+05
 0.65499992E+01 -0.50607E+05
 0.65999994E+01 -0.50532E+05
 0.66499996E+01 -0.50449E+05
 0.66999998E+01 -0.50369E+05
 0.67499990E+01 -0.50294E+05
 0.67999992E+01 -0.50213E+05
 0.68499994E+01 -0.50129E+05
 0.68999996E+01 -0.50055E+05
 0.69499998E+01 -0.49975E+05
 0.69999990E+01 -0.49897E+05
 0.70499992E+01 -0.49818E+05
 0.70999994E+01 -0.49741E+05
 0.71499996E+01 -0.49667E+05
 0.71999998E+01 -0.49589E+05
 0.72499990E+01 -0.49512E+05
 0.72999992E+01 -0.49427E+05
 0.73499994E+01 -0.49348E+05
 0.73999996E+01 -0.49268E+05
 0.74499998E+01 -0.49185E+05
 0.74999990E+01 -0.49081E+05
 0.75499992E+01 -0.48968E+05
 0.75999994E+01 -0.48866E+05
 0.76499996E+01 -0.48758E+05
 0.76999998E+01 -0.48658E+05
 0.77499990E+01 -0.48550E+05
 0.77999992E+01 -0.48445E+05
 0.78499994E+01 -0.48335E+05
 0.78999996E+01 -0.48227E+05
 0.79499998E+01 -0.48125E+05
 0.79999990E+01 -0.48024E+05
 0.80499992E+01 -0.47926E+05
 0.80999994E+01 -0.47829E+05
 0.81499996E+01 -0.47747E+05
 0.81999998E+01 -0.47669E+05
 0.82499990E+01 -0.47596E+05
 0.82999992E+01 -0.47525E+05
 0.83499994E+01 -0.47449E+05
 0.83999996E+01 -0.47372E+05
 0.84499998E+01 -0.47301E+05
 0.84999990E+01 -0.47223E+05
 0.85499992E+01 -0.47146E+05
 0.85999994E+01 -0.47074E+05
 0.86499996E+01 -0.46995E+05
 0.86999998E+01 -0.46920E+05
 0.87499990E+01 -0.46837E+05
 0.87999992E+01 -0.46747E+05
 0.88499994E+01 -0.46661E+05
 0.88999996E+01 -0.46580E+05
 0.89499998E+01 -0.46492E+05
 0.89999990E+01 -0.46399E+05
 0.90499992E+01 -0.46309E+05
 0.90999994E+01 -0.46212E+05
 0.91499996E+01 -0.46119E+05
 0.91999989E+01 -0.46023E+05
 0.92499990E+01 -0.45931E+05
 0.92999992E+01 -0.45837E+05
 0.93499994E+01 -0.45743E+05
 0.93999996E+01 -0.45650E+05
 0.94499989E+01 -0.45550E+05
 0.94999990E+01 -0.45456E+05
 0.95499992E+01 -0.45355E+05
 0.95999994E+01 -0.45260E+05
 0.96499996E+01 -0.45157E+05
 0.96999989E+01 -0.45055E+05
 0.97499990E+01 -0.44955E+05
 0.97999992E+01 -0.44857E+05
 0.98499994E+01 -0.44760E+05
 0.98999996E+01 -0.44664E+05
 0.99499989E+01 -0.44567E+05
 0.99999990E+01 -0.44463E+05
 0.10049999E+02 -0.44365E+05
 0.10099999E+02 -0.44264E+05
 0.10150000E+02 -0.44175E+05
 0.10199999E+02 -0.44081E+05
 0.10249999E+02 -0.43998E+05
 0.10299999E+02 -0.43911E+05
 0.10349999E+02 -0.43819E+05
 0.10400000E+02 -0.43728E+05
 0.10449999E+02 -0.43634E+05
 0.10499999E+02 -0.43546E+05
 0.10549999E+02 -0.43446E+05
 0.10599999E+02 -0.43360E+05
 0.10650000E+02 -0.43264E+05
 0.10699999E+02 -0.43177E+05
 0.10749999E+02 -0.43090E+05
 0.10799999E+02 -0.43005E+05
 0.10849999E+02 -0.42919E+05
 0.10900000E+02 -0.42829E+05
 0.10949999E+02 -0.42754E+05
 0.10999999E+02 -0.42667E+05
 0.11049999E+02 -0.42598E+05
 0.11099999E+02 -0.42516E+05
 0.11150000E+02 -0.42444E+05
 0.11199999E+02 -0.42367E+05
 0.11249999E+02 -0.42293E+05
 0.11299999E+02 -0.42226E+05
 0.11349999E+02 -0.42154E+05
 0.11400000E+02 -0.42086E+05
 0.11449999E+02 -0.42009E+05
 0.11499999E+02 -0.41944E+05
 0.11549999E+02 -0.41864E+05
 0.11599999E+02 -0.41792E+05
 0.11650000E+02 -0.41718E+05
 0.11699999E+02 -0.41652E+05
 0.11749999E+02 -0.41580E+05
 0.11799999E+02 -0.41507E+05
 0.11849999E+02 -0.41431E+05
 0.11900000E+02 -0.41348E+05
 0.11949999E+02 -0.41270E+05
 0.11999999E+02 -0.41182E+05
 0.12049999E+02 -0.41106E+05
 0.12099999E+02 -0.41023E+05
 0.12150000E+02 -0.40947E+05
 0.12199999E+02 -0.40865E+05
 0.12249999E+02 -0.40785E+05
 0.12299999E+02 -0.40693E+05
 0.12349999E+02 -0.40606E+05
 0.12400000E+02 -0.40520E+05
 0.12449999E+02 -0.40433E+05
 0.12499999E+02 -0.40345E+05
 0.12549999E+02 -0.40245E+05
 0.12599999E+02 -0.40151E+05
 0.12649999E+02 -0.40040E+05
 0.12699999E+02 -0.39933E+05
 0.12749999E+02 -0.39814E+05
 0.12799999E+02 -0.39697E+05
 0.12849999E+02 -0.39573E+05
 0.12899999E+02 -0.39448E+05
 0.12949999E+02 -0.39325E+05
 0.12999999E+02 -0.39204E+05
 0.13049999E+02 -0.39094E+05
 0.13099999E+02 -0.38982E+05
 0.13149999E+02 -0.38880E+05
 0.13199999E+02 -0.38774E+05
 0.13249999E+02 -0.38675E+05
 0.13299999E+02 -0.38572E+05
 0.13349999E+02 -0.38478E+05
 0.13399999E+02 -0.38389E+05
 0.13449999E+02 -0.38302E+05
 0.13499999E+02 -0.38219E+05
 0.13549999E+02 -0.38132E+05
 0.13599999E+02 -0.38055E+05
 0.13649999E+02 -0.37974E+05
 0.13699999E+02 -0.37894E+05
 0.13749999E+02 -0.37810E+05
 0.13799999E+02 -0.37729E+05
 0.13849999E+02 -0.37643E+05
 0.13899999E+02 -0.37553E+05
 0.13949999E+02 -0.37464E+05
 0.13999999E+02 -0.37373E+05
 0.14049999E+02 -0.37276E+05
 0.14099998E+02 -0.37181E+05
 0.14150000E+02 -0.37088E+05
 0.14199999E+02 -0.36995E+05
 0.14249998E+02 -0.36907E+05
 0.14299999E+02 -0.36814E+05
 0.14349998E+02 -0.36725E+05
 0.14400000E+02 -0.36627E+05
 0.14449999E+02 -0.36539E+05
 0.14499998E+02 -0.36452E+05
 0.14549999E+02 -0.36370E+05
 0.14599998E+02 -0.36286E+05
 0.14650000E+02 -0.36197E+05
 0.14699999E+02 -0.36114E+05
 0.14749998E+02 -0.36027E+05
 0.14799999E+02 -0.35951E+05
 0.14849998E+02 -0.35861E+05
 0.14900000E+02 -0.35766E+05
 0.14949999E+02 -0.35668E+05
 0.14999998E+02 -0.35574E+05
 0.15049999E+02 -0.35474E+05
 0.15099998E+02 -0.35370E+05
 0.15150000E+02 -0.35262E+05
 0.15199999E+02 -0.35146E+05
 0.15249998E+02 -0.35036E+05
 0.15299999E+02 -0.34922E+05
 0.15349998E+02 -0.34814E+05
 0.15400000E+02 -0.34701E+05
 0.15449999E+02 -0.34593E+05
 0.15499998E+02 -0.34485E+05
 0.15549999E+02 -0.34380E+05
 0.15599998E+02 -0.34272E+05
 0.15650000E+02 -0.34165E+05
 0.15699999E+02 -0.34066E+05
 0.15749998E+02 -0.33961E+05
 0.15799999E+02 -0.33859E+05
 0.15849998E+02 -0.33753E+05
 0.15900000E+02 -0.33650E+05
 0.15949999E+02 -0.33550E+05
 0.15999998E+02 -0.33451E+05
 0.16049999E+02 -0.33348E+05
 0.16099998E+02 -0.33236E+05
 0.16150000E+02 -0.33116E+05
 0.16199999E+02 -0.32993E+05
 0.16249998E+02 -0.32879E+05
 0.16299999E+02 -0.32760E+05
 0.16349998E+02 -0.32640E+05
 0.16400000E+02 -0.32514E+05
 0.16449999E+02 -0.32396E+05
 0.16499998E+02 -0.32277E+05
 0.16549999E+02 -0.32169E+05
 0.16599998E+02 -0.32061E+05
 0.16650000E+02 -0.31955E+05
 0.16699999E+02 -0.31853E+05
 0.16749998E+02 -0.31749E+05
 0.16799999E+02 -0.31664E+05
 0.16849998E+02 -0.31578E+05
 0.16900000E+02 -0.31500E+05
 0.16949999E+02 -0.31413E+05
 0.16999998E+02 -0.31330E+05
 0.17049999E+02 -0.31241E+05
 0.17099998E+02 -0.31152E+05
 0.17150000E+02 -0.31059E+05
 0.17199999E+02 -0.30953E+05
 0.17249998E+02 -0.30855E+05
 0.17299999E+02 -0.30754E+05
 0.17349998E+02 -0.30666E+05
 0.17400000E+02 -0.30564E+05
 0.17449999E+02 -0.30467E+05
 0.17499998E+02 -0.30361E+05
 0.17549999E+02 -0.30255E+05
 0.17599998E+02 -0.30153E+05
 0.17650000E+02 -0.30049E+05
 0.17699999E+02 -0.29955E+05
 0.17749998E+02 -0.29858E+05
 0.17799999E+02 -0.29772E+05
 0.17849998E+02 -0.29656E+05
 0.17900000E+02 -0.29555E+05
 0.17949999E+02 -0.29461E+05
 0.17999998E+02 -0.29374E+05
 0.18049999E+02 -0.29285E+05
 0.18099998E+02 -0.29198E+05
 0.18150000E+02 -0.29108E+05
 0.18199999E+02 -0.29013E+05
 0.18249998E+02 -0.28927E+05
 0.18299999E+02 -0.28827E+05
 0.18349998E+02 -0.28733E+05
 0.18400000E+02 -0.28614E+05
 0.18449999E+02 -0.28512E+05
 0.18499998E+02 -0.28415E+05
 0.18549999E+02 -0.28319E+05
 0.18599998E+02 -0.28228E+05
 0.18650000E+02 -0.28145E+05
 0.18699999E+02 -0.28068E+05
 0.18749998E+02 -0.27980E+05
 0.18799999E+02 -0.27905E+05
 0.18849998E+02 -0.27822E+05
 0.18900000E+02 -0.27750E+05
 0.18949999E+02 -0.27668E+05
 0.18999998E+02 -0.27592E+05
 0.19049999E+02 -0.27512E+05
 0.19099998E+02 -0.27439E+05
 0.19150000E+02 -0.27367E+05
 0.19199999E+02 -0.27293E+05
 0.19249998E+02 -0.27224E+05
 0.19299999E+02 -0.27148E+05
 0.19349998E+02 -0.27082E+05
 0.19400000E+02 -0.27004E+05
 0.19449999E+02 -0.26939E+05
 0.19499998E+02 -0.26867E+05
 0.19549999E+02 -0.26803E+05
 0.19599998E+02 -0.26735E+05
 0.19650000E+02 -0.26675E+05
 0.19699999E+02 -0.26617E+05
 0.19749998E+02 -0.26552E+05
 0.19799999E+02 -0.26498E+05
 0.19849998E+02 -0.26434E+05
 0.19900000E+02 -0.26383E+05
 0.19949999E+02 -0.26325E+05
 0.19999998E+02 -0.26284E+05
 0.20049999E+02 -0.26233E+05
 0.20099998E+02 -0.26191E+05
 0.20150000E+02 -0.26144E+05
 0.20199999E+02 -0.26088E+05
 0.20249998E+02 -0.26038E+05
 0.20299999E+02 -0.25973E+05
 0.20349998E+02 -0.25908E+05
 0.20399998E+02 -0.25818E+05
 0.20449999E+02 -0.25747E+05
 0.20499998E+02 -0.26934E+05
 0.20549999E+02 -0.25322E+05
 0.20599998E+02 -0.26792E+05
 0.20649998E+02 -0.24336E+05
 0.20699999E+02 -0.25079E+05
 0.20749998E+02 -0.23293E+05
 0.20799999E+02 -0.23913E+05
 0.20849998E+02 -0.23292E+05
 0.20899998E+02 -0.21956E+05
 0.20949999E+02 -0.22454E+05
 0.20999998E+02 -0.19585E+05
 0.21049999E+02 -0.23026E+05
 0.21099998E+02 -0.17424E+05
 0.21149998E+02 -0.26652E+05
 0.21199999E+02 -0.15575E+05
 0.21249998E+02 -0.27381E+05
 0.21299999E+02 -0.11225E+05
 0.21349998E+02 -0.30448E+05
 0.21399998E+02 -0.67141E+04
 0.21449999E+02 -0.36108E+05
 0.21499998E+02  0.10041E+05
 0.21549999E+02 -0.12447E+06
 0.21599998E+02 -0.33187E+06
 0.21649998E+02 -0.32814E+06
 0.21699999E+02 -0.59165E+06
 0.21749998E+02 -0.57117E+06
 0.21799999E+02 -0.62706E+06
 0.21849998E+02 -0.65798E+06
 0.21899998E+02 -0.78118E+06
 0.21949999E+02 -0.91287E+06
 0.21999998E+02 -0.89709E+06
 0.22049999E+02 -0.88717E+06
 0.22099998E+02 -0.90016E+06
 0.22149998E+02 -0.87352E+06
 0.22199999E+02 -0.92983E+06
 0.22249998E+02 -0.13078E+07
 0.22299999E+02 -0.13470E+07
 0.22349998E+02 -0.13861E+07
 0.22399998E+02 -0.14299E+07
 0.22449999E+02 -0.16230E+07
 0.22499998E+02 -0.16839E+07
 0.22549999E+02 -0.18607E+07
 0.22599998E+02 -0.18773E+07
 0.22649998E+02 -0.20611E+07
 0.22699999E+02 -0.23881E+07
 0.22749998E+02 -0.22528E+07
 0.22799999E+02 -0.24632E+07
 0.22849998E+02 -0.24863E+07
 0.22899998E+02 -0.25340E+07
 0.22949999E+02 -0.25550E+07
 0.22999998E+02 -0.26379E+07
 0.23049999E+02 -0.28985E+07
 0.23099998E+02 -0.29043E+07
 0.23149998E+02 -0.29037E+07
 0.23199999E+02 -0.33634E+07
 0.23249998E+02 -0.36582E+07
 0.23299999E+02 -0.36147E+07
 0.23349998E+02 -0.39151E+07
 0.23399998E+02 -0.39576E+07
 0.23449999E+02 -0.39251E+07
 0.23499998E+02 -0.39083E+07
 0.23549999E+02 -0.40079E+07
 0.23599998E+02 -0.41650E+07
 0.23649998E+02 -0.40709E+07
 0.23699999E+02 -0.41494E+07
 0.23749998E+02 -0.44470E+07
 0.23799999E+02 -0.45523E+07
 0.23849998E+02 -0.44506E+07
 0.23899998E+02 -0.45476E+07
 0.23949999E+02 -0.45169E+07
 0.23999998E+02 -0.47193E+07
 0.24049999E+02 -0.49975E+07
 0.24099998E+02 -0.51835E+07
 0.24149998E+02 -0.53581E+07
 0.24199999E+02 -0.53321E+07
 0.24249998E+02 -0.53289E+07
 0.24299999E+02 -0.54707E+07
 0.24349998E+02 -0.56177E+07
 0.24399998E+02 -0.55322E+07
 0.24449999E+02 -0.56817E+07
 0.24499998E+02 -0.57502E+07
 0.24549999E+02 -0.60507E+07
 0.24599998E+02 -0.62202E+07
 0.24649998E+02 -0.61277E+07
 0.24699999E+02 -0.61556E+07
 0.24749998E+02 -0.60838E+07
 0.24799999E+02 -0.61138E+07
 0.24849998E+02 -0.61144E+07
 0.24899998E+02 -0.61713E+07
 0.24949999E+02 -0.61915E+07
 0.24999998E+02 -0.61727E+07
 0.25049999E+02 -0.61328E+07
 0.25099998E+02 -0.63258E+07
 0.25149998E+02 -0.63874E+07
 0.25199999E+02 -0.63325E+07
 0.25249998E+02 -0.64565E+07
 0.25299999E+02 -0.64524E+07
 0.25349998E+02 -0.64827E+07
 0.25399998E+02 -0.64925E+07
 0.25449999E+02 -0.66106E+07
 0.25499998E+02 -0.66651E+07
 0.25549999E+02 -0.66400E+07
 0.25599998E+02 -0.66559E+07
 0.25649998E+02 -0.66434E+07
 0.25699999E+02 -0.66565E+07
 0.25749998E+02 -0.66451E+07
 0.25799999E+02 -0.66517E+07
 0.25849998E+02 -0.66457E+07
 0.25899998E+02 -0.66511E+07
 0.25949999E+02 -0.66475E+07
 0.25999998E+02 -0.66487E+07
 0.26049999E+02 -0.66474E+07
 0.26099998E+02 -0.66474E+07
 0.26149998E+02 -0.66464E+07
 0.26199999E+02 -0.66484E+07
 0.26249998E+02 -0.66486E+07
 0.26299999E+02 -0.66458E+07
 0.26349998E+02 -0.66472E+07
 0.26399998E+02 -0.66446E+07
 0.26449999E+02 -0.66457E+07
 0.26499998E+02 -0.66457E+07
 0.26549999E+02 -0.66457E+07
 0.26599998E+02 -0.66452E+07
 0.26649998E+02 -0.66459E+07
 0.26699999E+02 -0.66458E+07
 0.26749998E+02 -0.66456E+07
 0.26799999E+02 -0.66459E+07
 0.26849998E+02 -0.66450E+07
 0.26899998E+02 -0.66449E+07
 0.26949999E+02 -0.66448E+07
 0.26999998E+02 -0.66453E+07
 0.27049997E+02 -0.66466E+07
 0.27099998E+02 -0.66451E+07
 0.27149998E+02 -0.66459E+07
 0.27199999E+02 -0.66458E+07
 0.27249998E+02 -0.66454E+07
 0.27299997E+02 -0.66452E+07
 0.27349998E+02 -0.66454E+07
 0.27399998E+02 -0.66453E+07
 0.27449999E+02 -0.66461E+07
 0.27499998E+02 -0.66458E+07
 0.27549997E+02 -0.66456E+07
 0.27599998E+02 -0.66461E+07
 0.27649998E+02 -0.66454E+07
 0.27699999E+02 -0.66468E+07
 0.27749998E+02 -0.66456E+07
 0.27799997E+02 -0.66457E+07
 0.27849998E+02 -0.66451E+07
 0.27899998E+02 -0.66451E+07
 0.27949999E+02 -0.66454E+07
 0.27999998E+02 -0.66468E+07
 0.28049997E+02 -0.66454E+07
 0.28099998E+02 -0.66460E+07
 0.28149998E+02 -0.66458E+07
 0.28199999E+02 -0.66455E+07
 0.28249998E+02 -0.66458E+07
 0.28299997E+02 -0.66447E+07
 0.28349998E+02 -0.66449E+07
 0.28399998E+02 -0.66450E+07
 0.28449999E+02 -0.66457E+07
 0.28499998E+02 -0.66455E+07
 0.28549997E+02 -0.66459E+07
 0.28599998E+02 -0.66449E+07
 0.28649998E+02 -0.66466E+07
 0.28699999E+02 -0.66452E+07
 0.28749998E+02 -0.66451E+07
 0.28799997E+02 -0.66452E+07
 0.28849998E+02 -0.66447E+07
 0.28899998E+02 -0.66452E+07
 0.28949999E+02 -0.66456E+07
 0.28999998E+02 -0.66456E+07
 0.29049997E+02 -0.66456E+07
 0.29099998E+02 -0.66455E+07
 0.29149998E+02 -0.66446E+07
 0.29199999E+02 -0.66456E+07
 0.29249998E+02 -0.66442E+07
 0.29299997E+02 -0.66455E+07
 0.29349998E+02 -0.66452E+07
 0.29399998E+02 -0.66450E+07
 0.29449999E+02 -0.66458E+07
 0.29499998E+02 -0.66448E+07
 0.29549997E+02 -0.66455E+07
 0.29599998E+02 -0.66448E+07
 0.29649998E+02 -0.66450E+07
 0.29699999E+02 -0.66448E+07
 0.29749998E+02 -0.66445E+07
 0.29799997E+02 -0.66452E+07
 0.29849998E+02 -0.66455E+07
 0.29899998E+02 -0.66455E+07
 0.29949999E+02 -0.66453E+07
 0.29999998E+02 -0.66453E+07
 0.30049999E+02 -0.66456E+07
 0.30099998E+02 -0.66457E+07
 0.30149998E+02 -0.66445E+07
 0.30199997E+02 -0.66448E+07
 0.30249996E+02 -0.66451E+07
 0.30299999E+02 -0.66447E+07
 0.30349998E+02 -0.66460E+07
 0.30399998E+02 -0.66453E+07
 0.30449997E+02 -0.66456E+07
 0.30499996E+02 -0.66454E+07
 0.30549999E+02 -0.66454E+07
 0.30599998E+02 -0.66457E+07
 0.30649998E+02 -0.66450E+07
 0.30699997E+02 -0.66454E+07
 0.30749996E+02 -0.66448E+07
 0.30799999E+02 -0.66446E+07
 0.30849998E+02 -0.66454E+07
 0.30899998E+02 -0.66451E+07
 0.30949997E+02 -0.66463E+07
 0.30999996E+02 -0.66458E+07
 0.31049999E+02 -0.66455E+07
 0.31099998E+02 -0.66452E+07
 0.31149998E+02 -0.66449E+07
 0.31199997E+02 -0.66456E+07
 0.31249996E+02 -0.66449E+07
 0.31299999E+02 -0.66454E+07
 0.31349998E+02 -0.66448E+07
 0.31399998E+02 -0.66453E+07
 0.31449997E+02 -0.66455E+07
 0.31499996E+02 -0.66450E+07
 0.31549999E+02 -0.66448E+07
 0.31599998E+02 -0.66460E+07
 0.31649998E+02 -0.66452E+07
 0.31699997E+02 -0.66460E+07
 0.31749996E+02 -0.66457E+07
 0.31799999E+02 -0.66450E+07
 0.31849998E+02 -0.66458E+07
 0.31899998E+02 -0.66458E+07
 0.31949997E+02 -0.66455E+07
 0.31999996E+02 -0.66449E+07
 0.32049999E+02 -0.66453E+07
 0.32099998E+02 -0.66447E+07
 0.32149998E+02 -0.66461E+07
 0.32199997E+02 -0.66450E+07
 0.32249996E+02 -0.66453E+07
 0.32299999E+02 -0.66451E+07
 0.32349998E+02 -0.66451E+07
 0.32399998E+02 -0.66456E+07
 0.32449997E+02 -0.66449E+07
 0.32499996E+02 -0.66456E+07
 0.32549999E+02 -0.66455E+07
 0.32599998E+02 -0.66465E+07
 0.32649998E+02 -0.66455E+07
 0.32699997E+02 -0.66454E+07
 0.32749996E+02 -0.66449E+07
 0.32799999E+02 -0.66451E+07
 0.32849998E+02 -0.66452E+07
 0.32899998E+02 -0.66451E+07
 0.32949997E+02 -0.66449E+07
 0.32999996E+02 -0.66454E+07
 0.33049999E+02 -0.66468E+07
 0.33099998E+02 -0.66456E+07
 0.33149998E+02 -0.66451E+07
 0.33199997E+02 -0.66453E+07
 0.33249996E+02 -0.66457E+07
 0.33299999E+02 -0.66460E+07
 0.33349998E+02 -0.66464E+07
 0.33399998E+02 -0.66453E+07
 0.33449997E+02 -0.66467E+07
 0.33499996E+02 -0.66459E+07
 0.33549999E+02 -0.66463E+07
 0.33599998E+02 -0.66456E+07
 0.33649998E+02 -0.66460E+07
 0.33699997E+02 -0.66458E+07
 0.33749996E+02 -0.66456E+07
 0.33799999E+02 -0.66462E+07
 0.33849998E+02 -0.66451E+07
 0.33899998E+02 -0.66458E+07
 0.33949997E+02 -0.66456E+07
 0.33999996E+02 -0.66466E+07
 0.34049999E+02 -0.66455E+07
 0.34099998E+02 -0.66461E+07
 0.34149998E+02 -0.66453E+07
 0.34199997E+02 -0.66453E+07
 0.34249996E+02 -0.66454E+07
 0.34299999E+02 -0.66455E+07
 0.34349998E+02 -0.66459E+07
 0.34399998E+02 -0.66450E+07
 0.34449997E+02 -0.66470E+07
 0.34499996E+02 -0.66477E+07
 0.34549999E+02 -0.66467E+07
 0.34599998E+02 -0.66463E+07
 0.34649998E+02 -0.66455E+07
 0.34699997E+02 -0.66466E+07
 0.34749996E+02 -0.66463E+07
 0.34799999E+02 -0.66458E+07
 0.34849998E+02 -0.66455E+07
 0.34899998E+02 -0.66464E+07
 0.34949997E+02 -0.66477E+07
 0.34999996E+02 -0.66474E+07
 0.35049999E+02 -0.66476E+07
 0.35099998E+02 -0.66458E+07
 0.35149998E+02 -0.66471E+07
 0.35199997E+02 -0.66457E+07
 0.35249996E+02 -0.66460E+07
 0.35299999E+02 -0.66462E+07
 0.35349998E+02 -0.66472E+07
 0.35399998E+02 -0.66484E+07
 0.35449997E+02 -0.66470E+07
 0.35499996E+02 -0.66462E+07
 0.35549999E+02 -0.66470E+07
 0.35599998E+02 -0.66483E+07
 0.35649998E+02 -0.66442E+07
 0.35699997E+02 -0.66458E+07
 0.35749996E+02 -0.66474E+07
 0.35799999E+02 -0.66459E+07
 0.35849998E+02 -0.66478E+07
 0.35899998E+02 -0.66486E+07
 0.35949997E+02 -0.66477E+07
 0.35999996E+02 -0.66459E+07
 0.36049999E+02 -0.66453E+07
 0.36099998E+02 -0.66455E+07
 0.36149998E+02 -0.66452E+07
 0.36199997E+02 -0.66469E+07
 0.36249996E+02 -0.66467E+07
 0.36299999E+02 -0.66453E+07
 0.36349998E+02 -0.66469E+07
 0.36399998E+02 -0.66466E+07
 0.36449997E+02 -0.66452E+07
 0.36499996E+02 -0.66467E+07
 0.36549999E+02 -0.66464E+07
 0.36599998E+02 -0.66477E+07
 0.36649998E+02 -0.66459E+07
 0.36699997E+02 -0.66457E+07
 0.36749996E+02 -0.66454E+07
 0.36799999E+02 -0.66447E+07
 0.36849998E+02 -0.66471E+07
 0.36899998E+02 -0.66471E+07
 0.36949997E+02 -0.66478E+07
 0.36999996E+02 -0.66458E+07
 0.37049999E+02 -0.66450E+07
 0.37099998E+02 -0.66453E+07
 0.37149998E+02 -0.66460E+07
 0.37199997E+02 -0.66457E+07
 0.37249996E+02 -0.66454E+07
 0.37299999E+02 -0.66461E+07
 0.37349998E+02 -0.66479E+07
 0.37399998E+02 -0.66488E+07
 0.37449997E+02 -0.66465E+07
 0.37499996E+02 -0.66465E+07
 0.37549999E+02 -0.66461E+07
 0.37599998E+02 -0.66462E+07
 0.37649998E+02 -0.66456E+07
 0.37699997E+02 -0.66452E+07
 0.37749996E+02 -0.66460E+07
 0.37799999E+02 -0.66461E+07
 0.37849998E+02 -0.66498E+07
 0.37899998E+02 -0.66494E+07
 0.37949997E+02 -0.66470E+07
 0.37999996E+02 -0.66463E+07
 0.38049999E+02 -0.66451E+07
 0.38099998E+02 -0.66453E+07
 0.38149998E+02 -0.66456E+07
 0.38199997E+02 -0.66467E+07
 0.38249996E+02 -0.66476E+07
 0.38299999E+02 -0.66487E+07
 0.38349998E+02 -0.66483E+07
 0.38399998E+02 -0.66474E+07
 0.38449997E+02 -0.66473E+07
 0.38499996E+02 -0.66481E+07
 0.38549999E+02 -0.66470E+07
 0.38599998E+02 -0.66485E+07
 0.38649998E+02 -0.66481E+07
 0.38699997E+02 -0.66485E+07
 0.38749996E+02 -0.66474E+07
 0.38799999E+02 -0.66463E+07
 0.38849998E+02 -0.66470E+07
 0.38899998E+02 -0.66474E+07
 0.38949997E+02 -0.66495E+07
 0.38999996E+02 -0.66477E+07
 0.39049999E+02 -0.66477E+07
 0.39099998E+02 -0.66470E+07
 0.39149998E+02 -0.66465E+07
 0.39199997E+02 -0.66468E+07
 0.39249996E+02 -0.66467E+07
 0.39299999E+02 -0.66461E+07
 0.39349998E+02 -0.66478E+07
 0.39399998E+02 -0.66481E+07
 0.39449997E+02 -0.66493E+07
 0.39499996E+02 -0.66466E+07
 0.39549999E+02 -0.66463E+07
 0.39599998E+02 -0.66468E+07
 0.39649998E+02 -0.66455E+07
 0.39699997E+02 -0.66464E+07
 0.39749996E+02 -0.66457E+07
 0.39799999E+02 -0.66473E+07
 0.39849998E+02 -0.66470E+07
 0.39899998E+02 -0.66488E+07
 0.39949997E+02 -0.66477E+07
 0.39999996E+02 -0.66470E+07
 0.40049999E+02 -0.66464E+07
 0.40099998E+02 -0.66462E+07
 0.40149998E+02 -0.66455E+07
 0.40199997E+02 -0.66470E+07
 0.40249996E+02 -0.66482E+07
 0.40299999E+02 -0.66459E+07
 0.40349998E+02 -0.66475E+07
 0.40399998E+02 -0.66468E+07
 0.40449997E+02 -0.66462E+07
 0.40499996E+02 -0.66457E+07
 0.40549999E+02 -0.66457E+07
 0.40599998E+02 -0.66457E+07
 0.40649998E+02 -0.66465E+07
 0.40699997E+02 -0.66462E+07
 0.40749996E+02 -0.66451E+07
 0.40799999E+02 -0.66466E+07
 0.40849998E+02 -0.66471E+07
 0.40899998E+02 -0.66474E+07
 0.40949997E+02 -0.66468E+07
 0.40999996E+02 -0.66466E+07
 0.41049999E+02 -0.66470E+07
 0.41099998E+02 -0.66464E+07
 0.41149998E+02 -0.66458E+07
 0.41199997E+02 -0.66466E+07
 0.41249996E+02 -0.66472E+07
 0.41299999E+02 -0.66462E+07
 0.41349998E+02 -0.66469E+07
 0.41399998E+02 -0.66463E+07
 0.41449997E+02 -0.66464E+07
 0.41499996E+02 -0.66472E+07
 0.41549999E+02 -0.66473E+07
 0.41599998E+02 -0.66478E+07
 0.41649998E+02 -0.66473E+07
 0.41699997E+02 -0.66483E+07
 0.41749996E+02 -0.66479E+07
 0.41799999E+02 -0.66488E+07
 0.41849998E+02 -0.66493E+07
 0.41899998E+02 -0.66495E+07
 0.41949997E+02 -0.66505E+07
 0.41999996E+02 -0.66495E+07
 0.42049999E+02 -0.66516E+07
 0.42099998E+02 -0.66488E+07
 0.42149998E+02 -0.66516E+07
 0.42199997E+02 -0.66490E+07
 0.42249996E+02 -0.66537E+07
 0.42299999E+02 -0.66372E+07
 0.42349998E+02 -0.65954E+07
 0.42399998E+02 -0.65499E+07
 0.42449997E+02 -0.65125E+07
 0.42499996E+02 -0.64915E+07
 0.42549999E+02 -0.64512E+07
 0.42599998E+02 -0.64072E+07
 0.42649998E+02 -0.63650E+07
 0.42699997E+02 -0.63224E+07
 0.42749996E+02 -0.62786E+07
 0.42799995E+02 -0.62389E+07
 0.42849998E+02 -0.61929E+07
 0.42899998E+02 -0.61575E+07
 0.42949997E+02 -0.61051E+07
 0.42999996E+02 -0.60784E+07
 0.43049995E+02 -0.60116E+07
 0.43099998E+02 -0.60656E+07
 0.43149998E+02 -0.61246E+07
 0.43199997E+02 -0.60787E+07
 0.43249996E+02 -0.61018E+07
 0.43299995E+02 -0.60511E+07
 0.43349998E+02 -0.60149E+07
 0.43399998E+02 -0.59708E+07
 0.43449997E+02 -0.59306E+07
 0.43499996E+02 -0.58884E+07
 0.43549995E+02 -0.58459E+07
 0.43599998E+02 -0.58453E+07
 0.43649998E+02 -0.58244E+07
 0.43699997E+02 -0.57757E+07
 0.43749996E+02 -0.57415E+07
 0.43799995E+02 -0.56937E+07
 0.43849998E+02 -0.56599E+07
 0.43899998E+02 -0.56100E+07
 0.43949997E+02 -0.55858E+07
 0.43999996E+02 -0.55897E+07
 0.44049995E+02 -0.55682E+07
 0.44099998E+02 -0.56455E+07
 0.44149998E+02 -0.56244E+07
 0.44199997E+02 -0.55716E+07
 0.44249996E+02 -0.55980E+07
 0.44299995E+02 -0.55828E+07
 0.44349998E+02 -0.55376E+07
 0.44399998E+02 -0.54959E+07
 0.44449997E+02 -0.54566E+07
 0.44499996E+02 -0.54154E+07
 0.44549995E+02 -0.53803E+07
 0.44599998E+02 -0.53330E+07
 0.44649998E+02 -0.53010E+07
 0.44699997E+02 -0.52478E+07
 0.44749996E+02 -0.52474E+07
 0.44799995E+02 -0.52548E+07
 0.44849998E+02 -0.52262E+07
 0.44899998E+02 -0.51961E+07
 0.44949997E+02 -0.51549E+07
 0.44999996E+02 -0.51148E+07
 0.45049995E+02 -0.50751E+07
 0.45099998E+02 -0.50343E+07
 0.45149998E+02 -0.49949E+07
 0.45199997E+02 -0.49540E+07
 0.45249996E+02 -0.49282E+07
 0.45299995E+02 -0.51514E+07
 0.45349998E+02 -0.53143E+07
 0.45399998E+02 -0.52807E+07
 0.45449997E+02 -0.52452E+07
 0.45499996E+02 -0.52001E+07
 0.45549995E+02 -0.51630E+07
 0.45599998E+02 -0.51206E+07
 0.45649998E+02 -0.50833E+07
 0.45699997E+02 -0.50417E+07
 0.45749996E+02 -0.50034E+07
 0.45799995E+02 -0.49618E+07
 0.45849998E+02 -0.49242E+07
 0.45899998E+02 -0.48815E+07
 0.45949997E+02 -0.48468E+07
 0.45999996E+02 -0.47977E+07
 0.46049995E+02 -0.48308E+07
 0.46099998E+02 -0.48325E+07
 0.46149998E+02 -0.47815E+07
 0.46199997E+02 -0.47471E+07
 0.46249996E+02 -0.47081E+07
 0.46299995E+02 -0.46844E+07
 0.46349998E+02 -0.46436E+07
 0.46399998E+02 -0.46051E+07
 0.46449997E+02 -0.45701E+07
 0.46499996E+02 -0.45273E+07
 0.46549995E+02 -0.44948E+07
 0.46599998E+02 -0.44497E+07
 0.46649998E+02 -0.44220E+07
 0.46699997E+02 -0.43848E+07
 0.46749996E+02 -0.43752E+07
 0.46799995E+02 -0.44218E+07
 0.46849998E+02 -0.43838E+07
 0.46899998E+02 -0.43452E+07
 0.46949997E+02 -0.43068E+07
 0.46999996E+02 -0.42971E+07
 0.47049995E+02 -0.42730E+07
 0.47099998E+02 -0.42393E+07
 0.47149998E+02 -0.42061E+07
 0.47199997E+02 -0.41671E+07
 0.47249996E+02 -0.41292E+07
 0.47299995E+02 -0.40930E+07
 0.47349998E+02 -0.40515E+07
 0.47399998E+02 -0.40207E+07
 0.47449997E+02 -0.39723E+07
 0.47499996E+02 -0.39720E+07
 0.47549995E+02 -0.40674E+07
 0.47599998E+02 -0.40392E+07
 0.47649998E+02 -0.40013E+07
 0.47699997E+02 -0.39681E+07
 0.47749996E+02 -0.39270E+07
 0.47799995E+02 -0.38952E+07
 0.47849998E+02 -0.38489E+07
 0.47899998E+02 -0.38522E+07
 0.47949997E+02 -0.38371E+07
 0.47999996E+02 -0.37977E+07
 0.48049995E+02 -0.37617E+07
 0.48099998E+02 -0.37260E+07
 0.48149998E+02 -0.36884E+07
 0.48199997E+02 -0.36528E+07
 0.48249996E+02 -0.36151E+07
 0.48299995E+02 -0.35793E+07
 0.48349998E+02 -0.35429E+07
 0.48399998E+02 -0.35063E+07
 0.48449997E+02 -0.34728E+07
 0.48499996E+02 -0.34330E+07
 0.48549995E+02 -0.34653E+07
 0.48599998E+02 -0.34547E+07
 0.48649998E+02 -0.34120E+07
 0.48699997E+02 -0.33806E+07
 0.48749996E+02 -0.33428E+07
 0.48799995E+02 -0.33085E+07
 0.48849998E+02 -0.32726E+07
 0.48899998E+02 -0.32369E+07
 0.48949997E+02 -0.32023E+07
 0.48999996E+02 -0.31668E+07
 0.49049995E+02 -0.31330E+07
 0.49099998E+02 -0.31309E+07
 0.49149998E+02 -0.31125E+07
 0.49199997E+02 -0.31471E+07
 0.49249996E+02 -0.31298E+07
 0.49299995E+02 -0.30863E+07
 0.49349998E+02 -0.30577E+07
 0.49399998E+02 -0.30184E+07
 0.49449997E+02 -0.29876E+07
 0.49499996E+02 -0.29504E+07
 0.49549995E+02 -0.29182E+07
 0.49599998E+02 -0.28829E+07
 0.49649998E+02 -0.28497E+07
 0.49699997E+02 -0.28160E+07
 0.49749996E+02 -0.27810E+07
 0.49799995E+02 -0.27486E+07
 0.49849998E+02 -0.27124E+07
 0.49899998E+02 -0.26813E+07
 0.49949997E+02 -0.26439E+07
 0.49999996E+02 -0.26201E+07
 0.50049995E+02 -0.26475E+07
 0.50099998E+02 -0.26195E+07
 0.50149998E+02 -0.25861E+07
 0.50199997E+02 -0.25549E+07
 0.50249996E+02 -0.25195E+07
 0.50299995E+02 -0.24881E+07
 0.50349998E+02 -0.24533E+07
 0.50399998E+02 -0.24220E+07
 0.50449997E+02 -0.23872E+07
 0.50499996E+02 -0.23567E+07
 0.50549995E+02 -0.23218E+07
 0.50599998E+02 -0.22936E+07
 0.50649998E+02 -0.22567E+07
 0.50699997E+02 -0.22299E+07
 0.50749996E+02 -0.21878E+07
 0.50799995E+02 -0.22034E+07
 0.50849998E+02 -0.22094E+07
 0.50899998E+02 -0.21714E+07
 0.50949997E+02 -0.21484E+07
 0.50999996E+02 -0.21119E+07
 0.51049995E+02 -0.20826E+07
 0.51099998E+02 -0.20485E+07
 0.51149998E+02 -0.20187E+07
 0.51199997E+02 -0.19863E+07
 0.51249996E+02 -0.19625E+07
 0.51299995E+02 -0.19311E+07
 0.51349998E+02 -0.19004E+07
 0.51399998E+02 -0.18678E+07
 0.51449997E+02 -0.18388E+07
 0.51499996E+02 -0.18069E+07
 0.51549995E+02 -0.17795E+07
 0.51599998E+02 -0.17487E+07
 0.51649998E+02 -0.17261E+07
 0.51699997E+02 -0.17136E+07
 0.51749996E+02 -0.16850E+07
 0.51799995E+02 -0.16651E+07
 0.51849998E+02 -0.16338E+07
 0.51899998E+02 -0.16039E+07
 0.51949997E+02 -0.15737E+07
 0.51999996E+02 -0.15566E+07
 0.52049995E+02 -0.15317E+07
 0.52099998E+02 -0.14999E+07
 0.52149998E+02 -0.14715E+07
 0.52199997E+02 -0.14400E+07
 0.52249996E+02 -0.14114E+07
 0.52299995E+02 -0.13806E+07
 0.52349998E+02 -0.13522E+07
 0.52399998E+02 -0.13220E+07
 0.52449997E+02 -0.12934E+07
 0.52499996E+02 -0.12638E+07
 0.52549995E+02 -0.12356E+07
 0.52599998E+02 -0.12063E+07
 0.52649998E+02 -0.11773E+07
 0.52699997E+02 -0.11481E+07
 0.52749996E+02 -0.11195E+07
 0.52799995E+02 -0.10909E+07
 0.52849998E+02 -0.10626E+07
 0.52899998E+02 -0.10340E+07
 0.52949997E+02 -0.10056E+07
 0.52999996E+02 -0.97746E+06
 0.53049995E+02 -0.94921E+06
 0.53099998E+02 -0.92251E+06
 0.53149998E+02 -0.89449E+06
 0.53199997E+02 -0.87182E+06
 0.53249996E+02 -0.84674E+06
 0.53299995E+02 -0.81847E+06
 0.53349998E+02 -0.79158E+06
 0.53399998E+02 -0.76394E+06
 0.53449997E+02 -0.73714E+06
 0.53499996E+02 -0.70945E+06
 0.53549995E+02 -0.68231E+06
 0.53599998E+02 -0.65485E+06
 0.53649998E+02 -0.62833E+06
 0.53699997E+02 -0.60129E+06
 0.53749996E+02 -0.57428E+06
 0.53799995E+02 -0.54695E+06
 0.53849998E+02 -0.51944E+06
 0.53899998E+02 -0.49250E+06
 0.53949997E+02 -0.46521E+06
 0.53999996E+02 -0.43896E+06
 0.54049995E+02 -0.41170E+06
 0.54099998E+02 -0.38590E+06
 0.54149998E+02 -0.35851E+06
 0.54199997E+02 -0.33316E+06
 0.54249996E+02 -0.30584E+06
 0.54299995E+02 -0.28100E+06
 0.54349998E+02 -0.25386E+06
 0.54399998E+02 -0.22912E+06
 0.54449997E+02 -0.20237E+06
 0.54499996E+02 -0.17790E+06
 0.54549995E+02 -0.15261E+06
 0.54599998E+02 -0.12701E+06
 0.54649998E+02 -0.10277E+06
 0.54699997E+02 -0.74958E+05
 0.54749996E+02 -0.76180E+05
 0.54799995E+02 -0.68343E+05
 0.54849998E+02 -0.80163E+05
 0.54899998E+02 -0.69947E+05
 0.54949997E+02 -0.38781E+05
 0.54999996E+02 -0.18848E+05
 0.55049995E+02  0.96620E+04
 0.55099998E+02  0.31409E+05
 0.55149998E+02  0.58884E+05
 0.55199997E+02  0.81662E+05
 0.55249996E+02  0.10819E+06
 0.55299995E+02  0.13097E+06
 0.55349998E+02  0.15667E+06
 0.55399998E+02  0.17996E+06
 0.55449997E+02  0.20556E+06
 0.55499996E+02  0.22879E+06
 0.55549995E+02  0.25425E+06
 0.55599998E+02  0.27531E+06
 0.55649998E+02  0.29760E+06
 0.55699997E+02  0.32192E+06
 0.55749996E+02  0.34528E+06
 0.55799995E+02  0.37015E+06
 0.55849995E+02  0.39289E+06
 0.55899998E+02  0.41816E+06
 0.55949997E+02  0.40944E+06
 0.55999996E+02  0.42302E+06
 0.56049995E+02  0.43968E+06
 0.56099995E+02  0.45247E+06
 0.56149998E+02  0.47895E+06
 0.56199997E+02  0.49947E+06
 0.56249996E+02  0.52470E+06
 0.56299995E+02  0.54612E+06
 0.56349995E+02  0.57059E+06
 0.56399998E+02  0.59222E+06
 0.56449997E+02  0.61632E+06
 0.56499996E+02  0.63813E+06
 0.56549995E+02  0.66203E+06
 0.56599995E+02  0.68308E+06
 0.56649998E+02  0.70809E+06
 0.56699997E+02  0.71540E+06
 0.56749996E+02  0.72429E+06
 0.56799995E+02  0.74932E+06
 0.56849995E+02  0.76932E+06
 0.56899998E+02  0.79272E+06
 0.56949997E+02  0.81382E+06
 0.56999996E+02  0.83652E+06
 0.57049995E+02  0.85759E+06
 0.57099995E+02  0.87971E+06
 0.57149998E+02  0.90128E+06
 0.57199997E+02  0.92273E+06
 0.57249996E+02  0.94445E+06
 0.57299995E+02  0.96548E+06
 0.57349995E+02  0.98706E+06
 0.57399998E+02  0.10075E+07
 0.57449997E+02  0.10291E+07
 0.57499996E+02  0.10499E+07
 0.57549995E+02  0.10716E+07
 0.57599995E+02  0.10919E+07
 0.57649998E+02  0.11102E+07
 0.57699997E+02  0.11306E+07
 0.57749996E+02  0.11509E+07
 0.57799995E+02  0.11715E+07
 0.57849995E+02  0.11920E+07
 0.57899998E+02  0.12127E+07
 0.57949997E+02  0.12333E+07
 0.57999996E+02  0.12539E+07
 0.58049995E+02  0.12744E+07
 0.58099995E+02  0.12945E+07
 0.58149998E+02  0.13143E+07
 0.58199997E+02  0.13342E+07
 0.58249996E+02  0.13541E+07
 0.58299995E+02  0.13736E+07
 0.58349995E+02  0.13933E+07
 0.58399998E+02  0.14129E+07
 0.58449997E+02  0.14329E+07
 0.58499996E+02  0.14523E+07
 0.58549995E+02  0.14723E+07
 0.58599995E+02  0.14915E+07
 0.58649998E+02  0.15117E+07
 0.58699997E+02  0.15310E+07
 0.58749996E+02  0.15509E+07
 0.58799995E+02  0.15698E+07
 0.58849995E+02  0.15895E+07
 0.58899998E+02  0.16079E+07
 0.58949997E+02  0.16272E+07
 0.58999996E+02  0.16437E+07
 0.59049995E+02  0.16511E+07
 0.59099995E+02  0.16689E+07
 0.59149998E+02  0.16864E+07
 0.59199997E+02  0.17049E+07
 0.59249996E+02  0.17231E+07
 0.59299995E+02  0.17417E+07
 0.59349995E+02  0.17596E+07
 0.59399998E+02  0.17783E+07
 0.59449997E+02  0.17959E+07
 0.59499996E+02  0.18146E+07
 0.59549995E+02  0.18295E+07
 0.59599995E+02  0.18318E+07
 0.59649998E+02  0.18486E+07
 0.59699997E+02  0.18648E+07
 0.59749996E+02  0.18823E+07
 0.59799995E+02  0.18993E+07
 0.59849995E+02  0.19175E+07
 0.59899998E+02  0.19343E+07
 0.59949997E+02  0.19530E+07
 0.59999996E+02  0.19692E+07
 0.60049995E+02  0.19882E+07
 0.60099995E+02  0.20033E+07
 0.60149998E+02  0.20223E+07
 0.60199997E+02  0.20337E+07
 0.60249996E+02  0.20313E+07
 0.60299995E+02  0.20450E+07
 0.60349995E+02  0.20633E+07
 0.60399998E+02  0.20765E+07
 0.60449997E+02  0.20548E+07
 0.60499996E+02  0.20537E+07
 0.60549995E+02  0.20637E+07
 0.60599995E+02  0.20773E+07
 0.60649998E+02  0.20961E+07
 0.60699997E+02  0.21103E+07
 0.60749996E+02  0.21287E+07
 0.60799995E+02  0.21434E+07
 0.60849995E+02  0.21612E+07
 0.60899998E+02  0.21760E+07
 0.60949997E+02  0.21932E+07
 0.60999996E+02  0.22087E+07
 0.61049995E+02  0.22257E+07
 0.61099995E+02  0.22418E+07
 0.61149998E+02  0.22586E+07
 0.61199997E+02  0.22747E+07
 0.61249996E+02  0.22908E+07
 0.61299995E+02  0.23065E+07
 0.61349995E+02  0.23219E+07
 0.61399998E+02  0.23373E+07
 0.61449997E+02  0.23527E+07
 0.61499996E+02  0.23684E+07
 0.61549995E+02  0.23838E+07
 0.61599995E+02  0.23994E+07
 0.61649998E+02  0.24149E+07
 0.61699997E+02  0.24304E+07
 0.61749996E+02  0.24455E+07
 0.61799995E+02  0.24606E+07
 0.61849995E+02  0.24749E+07
 0.61899998E+02  0.24891E+07
 0.61949997E+02  0.24999E+07
 0.61999996E+02  0.25119E+07
 0.62049995E+02  0.25269E+07
 0.62099998E+02  0.25416E+07
 0.62149994E+02  0.25569E+07
 0.62199997E+02  0.25718E+07
 0.62249992E+02  0.25868E+07
 0.62299995E+02  0.26015E+07
 0.62349998E+02  0.26164E+07
 0.62399994E+02  0.26310E+07
 0.62449997E+02  0.26455E+07
 0.62499992E+02  0.26599E+07
 0.62549995E+02  0.26740E+07
 0.62599998E+02  0.26884E+07
 0.62649994E+02  0.27023E+07
 0.62699997E+02  0.27166E+07
 0.62749992E+02  0.27299E+07
 0.62799995E+02  0.27440E+07
 0.62849998E+02  0.27569E+07
 0.62899994E+02  0.27710E+07
 0.62949997E+02  0.27838E+07
 0.62999992E+02  0.27981E+07
 0.63049995E+02  0.28105E+07
 0.63099998E+02  0.28247E+07
 0.63149994E+02  0.28368E+07
 0.63199997E+02  0.28513E+07
 0.63249992E+02  0.28616E+07
 0.63299995E+02  0.28591E+07
 0.63349998E+02  0.28612E+07
 0.63399994E+02  0.28589E+07
 0.63449997E+02  0.28699E+07
 0.63499992E+02  0.28833E+07
 0.63549995E+02  0.28952E+07
 0.63599998E+02  0.29085E+07
 0.63649994E+02  0.29204E+07
 0.63699997E+02  0.29338E+07
 0.63749992E+02  0.29458E+07
 0.63799995E+02  0.29591E+07
 0.63849998E+02  0.29708E+07
 0.63899994E+02  0.29832E+07
 0.63949997E+02  0.29947E+07
 0.63999992E+02  0.30072E+07
 0.64049995E+02  0.30192E+07
 0.64099998E+02  0.30319E+07
 0.64149994E+02  0.30442E+07
 0.64199997E+02  0.30568E+07
 0.64249992E+02  0.30691E+07
 0.64299995E+02  0.30811E+07
 0.64349998E+02  0.30930E+07
 0.64399994E+02  0.31042E+07
 0.64449997E+02  0.31161E+07
 0.64499992E+02  0.31257E+07
 0.64549995E+02  0.31350E+07
 0.64599998E+02  0.31458E+07
 0.64649994E+02  0.31565E+07
 0.64699997E+02  0.31678E+07
 0.64749992E+02  0.31787E+07
 0.64799995E+02  0.31899E+07
 0.64849998E+02  0.32008E+07
 0.64899994E+02  0.32122E+07
 0.64949997E+02  0.32234E+07
 0.64999992E+02  0.32350E+07
 0.65049995E+02  0.32464E+07
 0.65099998E+02  0.32580E+07
 0.65149994E+02  0.32692E+07
 0.65199997E+02  0.32806E+07
 0.65249992E+02  0.32914E+07
 0.65299995E+02  0.33023E+07
 0.65349998E+02  0.33116E+07
 0.65399994E+02  0.33162E+07
 0.65449997E+02  0.33260E+07
 0.65499992E+02  0.33365E+07
 0.65549995E+02  0.33468E+07
 0.65599998E+02  0.33575E+07
 0.65649994E+02  0.33678E+07
 0.65699997E+02  0.33785E+07
 0.65749992E+02  0.33886E+07
 0.65799995E+02  0.33994E+07
 0.65849998E+02  0.34089E+07
 0.65899994E+02  0.34194E+07
 0.65949997E+02  0.34284E+07
 0.65999992E+02  0.34392E+07
 0.66049995E+02  0.34483E+07
 0.66099998E+02  0.34595E+07
 0.66149994E+02  0.34682E+07
 0.66199997E+02  0.34793E+07
 0.66249992E+02  0.34876E+07
 0.66299995E+02  0.34989E+07
 0.66349998E+02  0.35062E+07
 0.66399994E+02  0.35131E+07
 0.66449997E+02  0.35163E+07
 0.66499992E+02  0.34908E+07
 0.66549995E+02  0.34950E+07
 0.66599998E+02  0.35061E+07
 0.66649994E+02  0.35136E+07
 0.66699997E+02  0.35241E+07
 0.66749992E+02  0.35318E+07
 0.66799995E+02  0.35423E+07
 0.66849998E+02  0.35503E+07
 0.66899994E+02  0.35606E+07
 0.66949997E+02  0.35685E+07
 0.66999992E+02  0.35783E+07
 0.67049995E+02  0.35865E+07
 0.67099998E+02  0.35963E+07
 0.67149994E+02  0.36048E+07
 0.67199997E+02  0.36144E+07
 0.67249992E+02  0.36227E+07
 0.67299995E+02  0.36319E+07
 0.67349998E+02  0.36401E+07
 0.67399994E+02  0.36490E+07
 0.67449997E+02  0.36573E+07
 0.67499992E+02  0.36660E+07
 0.67549995E+02  0.36743E+07
 0.67599998E+02  0.36827E+07
 0.67649994E+02  0.36911E+07
 0.67699997E+02  0.36992E+07
 0.67749992E+02  0.37080E+07
 0.67799995E+02  0.37147E+07
 0.67849998E+02  0.37243E+07
 0.67899994E+02  0.37034E+07
 0.67949997E+02  0.36946E+07
 0.67999992E+02  0.37056E+07
 0.68049995E+02  0.37105E+07
 0.68099998E+02  0.37202E+07
 0.68149994E+02  0.37265E+07
 0.68199997E+02  0.37356E+07
 0.68249992E+02  0.37428E+07
 0.68299995E+02  0.37513E+07
 0.68349998E+02  0.37587E+07
 0.68399994E+02  0.37666E+07
 0.68449997E+02  0.37741E+07
 0.68499992E+02  0.37817E+07
 0.68549995E+02  0.37891E+07
 0.68599998E+02  0.37964E+07
 0.68649994E+02  0.38037E+07
 0.68699997E+02  0.38109E+07
 0.68749992E+02  0.38183E+07
 0.68799995E+02  0.38253E+07
 0.68849998E+02  0.38326E+07
 0.68899994E+02  0.38398E+07
 0.68949997E+02  0.38473E+07
 0.68999992E+02  0.38545E+07
 0.69049995E+02  0.38619E+07
 0.69099998E+02  0.38692E+07
 0.69149994E+02  0.38764E+07
 0.69199997E+02  0.38833E+07
 0.69249992E+02  0.38900E+07
 0.69299995E+02  0.38963E+07
 0.69349998E+02  0.39027E+07
 0.69399994E+02  0.39093E+07
 0.69449997E+02  0.39161E+07
 0.69499992E+02  0.39230E+07
 0.69549995E+02  0.39299E+07
 0.69599998E+02  0.39366E+07
 0.69649994E+02  0.39429E+07
 0.69699997E+02  0.39490E+07
 0.69749992E+02  0.39548E+07
 0.69799995E+02  0.39606E+07
 0.69849998E+02  0.39663E+07
 0.69899994E+02  0.39723E+07
 0.69949997E+02  0.39783E+07
 0.69999992E+02  0.39843E+07
 0.70049995E+02  0.39901E+07
 0.70099998E+02  0.39959E+07
 0.70149994E+02  0.40017E+07
 0.70199997E+02  0.40074E+07
 0.70249992E+02  0.40133E+07
 0.70299995E+02  0.40190E+07
 0.70349998E+02  0.40247E+07
 0.70399994E+02  0.40301E+07
 0.70449997E+02  0.40355E+07
 0.70499992E+02  0.40407E+07
 0.70549995E+02  0.40459E+07
 0.70599998E+02  0.40513E+07
 0.70649994E+02  0.40565E+07
 0.70699997E+02  0.40623E+07
 0.70749992E+02  0.40676E+07
 0.70799995E+02  0.40735E+07
 0.70849998E+02  0.40787E+07
 0.70899994E+02  0.40842E+07
 0.70949997E+02  0.40889E+07
 0.70999992E+02  0.40942E+07
 0.71049995E+02  0.40988E+07
 0.71099998E+02  0.41039E+07
 0.71149994E+02  0.41086E+07
 0.71199997E+02  0.41136E+07
 0.71249992E+02  0.41186E+07
 0.71299995E+02  0.41232E+07
 0.71349998E+02  0.41286E+07
 0.71399994E+02  0.41325E+07
 0.71449997E+02  0.41387E+07
 0.71499992E+02  0.41407E+07
 0.71549995E+02  0.41490E+07
 0.71599998E+02  0.41366E+07
 0.71649994E+02  0.41072E+07
 0.71699997E+02  0.40663E+07
 0.71749992E+02  0.40248E+07
 0.71799995E+02  0.40029E+07
 0.71849998E+02  0.39925E+07
 0.71899994E+02  0.39970E+07
 0.71949997E+02  0.40004E+07
 0.71999992E+02  0.40057E+07
 0.72049995E+02  0.40101E+07
 0.72099998E+02  0.40152E+07
 0.72149994E+02  0.40199E+07
 0.72199997E+02  0.40248E+07
 0.72249992E+02  0.40297E+07
 0.72299995E+02  0.40343E+07
 0.72349998E+02  0.40392E+07
 0.72399994E+02  0.40436E+07
 0.72449997E+02  0.40483E+07
 0.72499992E+02  0.40527E+07
 0.72549995E+02  0.40574E+07
 0.72599998E+02  0.40618E+07
 0.72649994E+02  0.40664E+07
 0.72699997E+02  0.40708E+07
 0.72749992E+02  0.40753E+07
 0.72799995E+02  0.40796E+07
 0.72849998E+02  0.40839E+07
 0.72899994E+02  0.40881E+07
 0.72949997E+02  0.40922E+07
 0.72999992E+02  0.40962E+07
 0.73049995E+02  0.41002E+07
 0.73099998E+02  0.41043E+07
 0.73149994E+02  0.41083E+07
 0.73199997E+02  0.41124E+07
 0.73249992E+02  0.41164E+07
 0.73299995E+02  0.41203E+07
 0.73349998E+02  0.41242E+07
 0.73399994E+02  0.41280E+07
 0.73449997E+02  0.41318E+07
 0.73499992E+02  0.41355E+07
 0.73549995E+02  0.41391E+07
 0.73599998E+02  0.41425E+07
 0.73649994E+02  0.41459E+07
 0.73699997E+02  0.41491E+07
 0.73749992E+02  0.41524E+07
 0.73799995E+02  0.41554E+07
 0.73849998E+02  0.41584E+07
 0.73899994E+02  0.41614E+07
 0.73949997E+02  0.41648E+07
 0.73999992E+02  0.41681E+07
 0.74049995E+02  0.41715E+07
 0.74099998E+02  0.41747E+07
 0.74149994E+02  0.41781E+07
 0.74199997E+02  0.41812E+07
 0.74249992E+02  0.41846E+07
 0.74299995E+02  0.41879E+07
 0.74349998E+02  0.41913E+07
 0.74399994E+02  0.41946E+07
 0.74449997E+02  0.41978E+07
 0.74499992E+02  0.42010E+07
 0.74549995E+02  0.42032E+07
 0.74599998E+02  0.42068E+07
 0.74649994E+02  0.42030E+07
 0.74699997E+02  0.41898E+07
 0.74749992E+02  0.41546E+07
 0.74799995E+02  0.41069E+07
 0.74849998E+02  0.40604E+07
 0.74899994E+02  0.40041E+07
 0.74949997E+02  0.39319E+07
 0.74999992E+02  0.38708E+07
 0.75049995E+02  0.38515E+07
 0.75099998E+02  0.38536E+07
 0.75149994E+02  0.38574E+07
 0.75199997E+02  0.38610E+07
 0.75249992E+02  0.38652E+07
 0.75299995E+02  0.38690E+07
 0.75349998E+02  0.38733E+07
 0.75399994E+02  0.38771E+07
 0.75449997E+02  0.38813E+07
 0.75499992E+02  0.38848E+07
 0.75549995E+02  0.38890E+07
 0.75599998E+02  0.38920E+07
 0.75649994E+02  0.38962E+07
 0.75699997E+02  0.38983E+07
 0.75749992E+02  0.39030E+07
 0.75799995E+02  0.38992E+07
 0.75849998E+02  0.38590E+07
 0.75899994E+02  0.37812E+07
 0.75949997E+02  0.36772E+07
 0.75999992E+02  0.35976E+07
 0.76049995E+02  0.35748E+07
 0.76099998E+02  0.35783E+07
 0.76149994E+02  0.35819E+07
 0.76199997E+02  0.35864E+07
 0.76249992E+02  0.35908E+07
 0.76299995E+02  0.35952E+07
 0.76349998E+02  0.35996E+07
 0.76399994E+02  0.36038E+07
 0.76449997E+02  0.36081E+07
 0.76499992E+02  0.36120E+07
 0.76549995E+02  0.36160E+07
 0.76599998E+02  0.36196E+07
 0.76649994E+02  0.36233E+07
 0.76699997E+02  0.36270E+07
 0.76749992E+02  0.36308E+07
 0.76799995E+02  0.36347E+07
 0.76849998E+02  0.36388E+07
 0.76899994E+02  0.36430E+07
 0.76949997E+02  0.36470E+07
 0.76999992E+02  0.36507E+07
 0.77049995E+02  0.36541E+07
 0.77099998E+02  0.36573E+07
 0.77149994E+02  0.36606E+07
 0.77199997E+02  0.36640E+07
 0.77249992E+02  0.36673E+07
 0.77299995E+02  0.36705E+07
 0.77349998E+02  0.36737E+07
 0.77399994E+02  0.36767E+07
 0.77449997E+02  0.36798E+07
 0.77499992E+02  0.36828E+07
 0.77549995E+02  0.36858E+07
 0.77599998E+02  0.36889E+07
 0.77649994E+02  0.36919E+07
 0.77699997E+02  0.36951E+07
 0.77749992E+02  0.36981E+07
 0.77799995E+02  0.37013E+07
 0.77849998E+02  0.37042E+07
 0.77899994E+02  0.37072E+07
 0.77949997E+02  0.37098E+07
 0.77999992E+02  0.37126E+07
 0.78049995E+02  0.37152E+07
 0.78099998E+02  0.37177E+07
 0.78149994E+02  0.37202E+07
 0.78199997E+02  0.37225E+07
 0.78249992E+02  0.37247E+07
 0.78299995E+02  0.37263E+07
 0.78349998E+02  0.37285E+07
 0.78399994E+02  0.37270E+07
 0.78449997E+02  0.37265E+07
 0.78499992E+02  0.37284E+07
 0.78549995E+02  0.37300E+07
 0.78599998E+02  0.37325E+07
 0.78649994E+02  0.37347E+07
 0.78699997E+02  0.37375E+07
 0.78749992E+02  0.37399E+07
 0.78799995E+02  0.37425E+07
 0.78849998E+02  0.37448E+07
 0.78899994E+02  0.37471E+07
 0.78949997E+02  0.37492E+07
 0.78999992E+02  0.37513E+07
 0.79049995E+02  0.37532E+07
 0.79099998E+02  0.37550E+07
 0.79149994E+02  0.37569E+07
 0.79199997E+02  0.37586E+07
 0.79249992E+02  0.37606E+07
 0.79299995E+02  0.37625E+07
 0.79349998E+02  0.37647E+07
 0.79399994E+02  0.37668E+07
 0.79449997E+02  0.37691E+07
 0.79499992E+02  0.37710E+07
 0.79549995E+02  0.37732E+07
 0.79599998E+02  0.37746E+07
 0.79649994E+02  0.37764E+07
 0.79699997E+02  0.37776E+07
 0.79749992E+02  0.37793E+07
 0.79799995E+02  0.37808E+07
 0.79849998E+02  0.37825E+07
 0.79899994E+02  0.37840E+07
 0.79949997E+02  0.37855E+07
 0.79999992E+02  0.37869E+07
 0.80049995E+02  0.37877E+07
 0.80099998E+02  0.37893E+07
 0.80149994E+02  0.37883E+07
 0.80199997E+02  0.37883E+07
 0.80249992E+02  0.37745E+07
 0.80299995E+02  0.37553E+07
 0.80349998E+02  0.37298E+07
 0.80399994E+02  0.37006E+07
 0.80449997E+02  0.36838E+07
 0.80499992E+02  0.36784E+07
 0.80549995E+02  0.36798E+07
 0.80599998E+02  0.36805E+07
 0.80649994E+02  0.36825E+07
 0.80699997E+02  0.36838E+07
 0.80749992E+02  0.36858E+07
 0.80799995E+02  0.36874E+07
 0.80849998E+02  0.36893E+07
 0.80899994E+02  0.36910E+07
 0.80949997E+02  0.36927E+07
 0.80999992E+02  0.36944E+07
 0.81049995E+02  0.36959E+07
 0.81099998E+02  0.36974E+07
 0.81149994E+02  0.36988E+07
 0.81199997E+02  0.37002E+07
 0.81249992E+02  0.37016E+07
 0.81299995E+02  0.37030E+07
 0.81349998E+02  0.37043E+07
 0.81399994E+02  0.37056E+07
 0.81449997E+02  0.37069E+07
 0.81499992E+02  0.37081E+07
 0.81549995E+02  0.37093E+07
 0.81599998E+02  0.37104E+07
 0.81649994E+02  0.37114E+07
 0.81699997E+02  0.37124E+07
 0.81749992E+02  0.37134E+07
 0.81799995E+02  0.37143E+07
 0.81849998E+02  0.37152E+07
 0.81899994E+02  0.37161E+07
 0.81949997E+02  0.37169E+07
 0.81999992E+02  0.37177E+07
 0.82049995E+02  0.37183E+07
 0.82099998E+02  0.37190E+07
 0.82149994E+02  0.37194E+07
 0.82199997E+02  0.37198E+07
 0.82249992E+02  0.37201E+07
 0.82299995E+02  0.37204E+07
 0.82349998E+02  0.37206E+07
 0.82399994E+02  0.37208E+07
 0.82449997E+02  0.37210E+07
 0.82499992E+02  0.37210E+07
 0.82549995E+02  0.37210E+07
 0.82599998E+02  0.37207E+07
 0.82649994E+02  0.37206E+07
 0.82699997E+02  0.37205E+07
 0.82749992E+02  0.37205E+07
 0.82799995E+02  0.37205E+07
 0.82849998E+02  0.37205E+07
 0.82899994E+02  0.37204E+07
 0.82949997E+02  0.37202E+07
 0.82999992E+02  0.37202E+07
 0.83049995E+02  0.37201E+07
 0.83099998E+02  0.37200E+07
 0.83149994E+02  0.37199E+07
 0.83199997E+02  0.37199E+07
 0.83249992E+02  0.37199E+07
 0.83299995E+02  0.37199E+07
 0.83349998E+02  0.37200E+07
 0.83399994E+02  0.37200E+07
 0.83449997E+02  0.37200E+07
 0.83499992E+02  0.37199E+07
 0.83549995E+02  0.37198E+07
 0.83599998E+02  0.37196E+07
 0.83649994E+02  0.37195E+07
 0.83699997E+02  0.37193E+07
 0.83749992E+02  0.37190E+07
 0.83799995E+02  0.37186E+07
 0.83849998E+02  0.37181E+07
 0.83899994E+02  0.37177E+07
 0.83949997E+02  0.37171E+07
 0.83999992E+02  0.37167E+07
 0.84049995E+02  0.37163E+07
 0.84099998E+02  0.37159E+07
 0.84149994E+02  0.37156E+07
 0.84199997E+02  0.37154E+07
 0.84249992E+02  0.37150E+07
 0.84299995E+02  0.37147E+07
 0.84349998E+02  0.37143E+07
 0.84399994E+02  0.37139E+07
 0.84449997E+02  0.37136E+07
 0.84499992E+02  0.37132E+07
 0.84549995E+02  0.37128E+07
 0.84599998E+02  0.37123E+07
 0.84649994E+02  0.37117E+07
 0.84699997E+02  0.37111E+07
 0.84749992E+02  0.37104E+07
 0.84799995E+02  0.37097E+07
 0.84849998E+02  0.37089E+07
 0.84899994E+02  0.37082E+07
 0.84949997E+02  0.37073E+07
 0.84999992E+02  0.37066E+07
 0.85049995E+02  0.37058E+07
 0.85099998E+02  0.37050E+07
 0.85149994E+02  0.37042E+07
 0.85199997E+02  0.37033E+07
 0.85249992E+02  0.37024E+07
 0.85299995E+02  0.37015E+07
 0.85349998E+02  0.37007E+07
 0.85399994E+02  0.36998E+07
 0.85449997E+02  0.36989E+07
 0.85499992E+02  0.36979E+07
 0.85549995E+02  0.36969E+07
 0.85599998E+02  0.36958E+07
 0.85649994E+02  0.36948E+07
 0.85699997E+02  0.36937E+07
 0.85749992E+02  0.36926E+07
 0.85799995E+02  0.36915E+07
 0.85849998E+02  0.36904E+07
 0.85899994E+02  0.36895E+07
 0.85949997E+02  0.36886E+07
 0.85999992E+02  0.36880E+07
 0.86049995E+02  0.36873E+07
 0.86099998E+02  0.36868E+07
 0.86149994E+02  0.36862E+07
 0.86199997E+02  0.36857E+07
 0.86249992E+02  0.36851E+07
 0.86299995E+02  0.36846E+07
 0.86349998E+02  0.36838E+07
 0.86399994E+02  0.36831E+07
 0.86449997E+02  0.36821E+07
 0.86499992E+02  0.36811E+07
 0.86549995E+02  0.36800E+07
 0.86599998E+02  0.36786E+07
 0.86649994E+02  0.36773E+07
 0.86699997E+02  0.36753E+07
 0.86749992E+02  0.36741E+07
 0.86799995E+02  0.36689E+07
 0.86849998E+02  0.36523E+07
 0.86899994E+02  0.36095E+07
 0.86949997E+02  0.35484E+07
 0.86999992E+02  0.34795E+07
 0.87049995E+02  0.34040E+07
 0.87099998E+02  0.33307E+07
 0.87149994E+02  0.32574E+07
 0.87199997E+02  0.31903E+07
 0.87249992E+02  0.31366E+07
 0.87299995E+02  0.30977E+07
 0.87349998E+02  0.30759E+07
 0.87399994E+02  0.30701E+07
 0.87449997E+02  0.30694E+07
 0.87499992E+02  0.30693E+07
 0.87549995E+02  0.30694E+07
 0.87599991E+02  0.30693E+07
 0.87649994E+02  0.30694E+07
 0.87699997E+02  0.30695E+07
 0.87749992E+02  0.30699E+07
 0.87799995E+02  0.30703E+07
 0.87849991E+02  0.30710E+07
 0.87899994E+02  0.30717E+07
 0.87949997E+02  0.30725E+07
 0.87999992E+02  0.30732E+07
 0.88049995E+02  0.30738E+07
 0.88099991E+02  0.30743E+07
 0.88149994E+02  0.30747E+07
 0.88199997E+02  0.30750E+07
 0.88249992E+02  0.30753E+07
 0.88299995E+02  0.30755E+07
 0.88349991E+02  0.30757E+07
 0.88399994E+02  0.30757E+07
 0.88449997E+02  0.30758E+07
 0.88499992E+02  0.30759E+07
 0.88549995E+02  0.30759E+07
 0.88599991E+02  0.30759E+07
 0.88649994E+02  0.30760E+07
 0.88699997E+02  0.30760E+07
 0.88749992E+02  0.30761E+07
 0.88799995E+02  0.30761E+07
 0.88849991E+02  0.30760E+07
 0.88899994E+02  0.30758E+07
 0.88949997E+02  0.30755E+07
 0.88999992E+02  0.30751E+07
 0.89049995E+02  0.30746E+07
 0.89099991E+02  0.30741E+07
 0.89149994E+02  0.30737E+07
 0.89199997E+02  0.30733E+07
 0.89249992E+02  0.30730E+07
 0.89299995E+02  0.30727E+07
 0.89349991E+02  0.30723E+07
 0.89399994E+02  0.30718E+07
 0.89449997E+02  0.30713E+07
 0.89499992E+02  0.30707E+07
 0.89549995E+02  0.30699E+07
 0.89599991E+02  0.30693E+07
 0.89649994E+02  0.30685E+07
 0.89699997E+02  0.30677E+07
 0.89749992E+02  0.30669E+07
 0.89799995E+02  0.30661E+07
 0.89849991E+02  0.30652E+07
 0.89899994E+02  0.30642E+07
 0.89949997E+02  0.30632E+07
 0.89999992E+02  0.30622E+07
 0.90049995E+02  0.30612E+07
 0.90099991E+02  0.30601E+07
 0.90149994E+02  0.30591E+07
 0.90199997E+02  0.30581E+07
 0.90249992E+02  0.30573E+07
 0.90299995E+02  0.30564E+07
 0.90349991E+02  0.30555E+07
 0.90399994E+02  0.30547E+07
 0.90449997E+02  0.30539E+07
 0.90499992E+02  0.30531E+07
 0.90549995E+02  0.30523E+07
 0.90599991E+02  0.30515E+07
 0.90649994E+02  0.30506E+07
 0.90699997E+02  0.30498E+07
 0.90749992E+02  0.30490E+07
 0.90799995E+02  0.30482E+07
 0.90849991E+02  0.30473E+07
 0.90899994E+02  0.30464E+07
 0.90949997E+02  0.30453E+07
 0.90999992E+02  0.30441E+07
 0.91049995E+02  0.30429E+07
 0.91099991E+02  0.30415E+07
 0.91149994E+02  0.30401E+07
 0.91199997E+02  0.30386E+07
 0.91249992E+02  0.30372E+07
 0.91299995E+02  0.30358E+07
 0.91349991E+02  0.30345E+07
 0.91399994E+02  0.30331E+07
 0.91449997E+02  0.30317E+07
 0.91499992E+02  0.30302E+07
 0.91549995E+02  0.30288E+07
 0.91599991E+02  0.30275E+07
 0.91649994E+02  0.30261E+07
 0.91699997E+02  0.30249E+07
 0.91749992E+02  0.30235E+07
 0.91799995E+02  0.30222E+07
 0.91849991E+02  0.30208E+07
 0.91899994E+02  0.30195E+07
 0.91949997E+02  0.30182E+07
 0.91999992E+02  0.30170E+07
 0.92049995E+02  0.30158E+07
 0.92099991E+02  0.30146E+07
 0.92149994E+02  0.30133E+07
 0.92199997E+02  0.30121E+07
 0.92249992E+02  0.30108E+07
 0.92299995E+02  0.30094E+07
 0.92349991E+02  0.30080E+07
 0.92399994E+02  0.30066E+07
 0.92449997E+02  0.30051E+07
 0.92499992E+02  0.30035E+07
 0.92549995E+02  0.30019E+07
 0.92599991E+02  0.30002E+07
 0.92649994E+02  0.29985E+07
 0.92699997E+02  0.29968E+07
 0.92749992E+02  0.29952E+07
 0.92799995E+02  0.29936E+07
 0.92849991E+02  0.29920E+07
 0.92899994E+02  0.29905E+07
 0.92949997E+02  0.29889E+07
 0.92999992E+02  0.29873E+07
 0.93049995E+02  0.29857E+07
 0.93099991E+02  0.29841E+07
 0.93149994E+02  0.29824E+07
 0.93199997E+02  0.29806E+07
 0.93249992E+02  0.29789E+07
 0.93299995E+02  0.29772E+07
 0.93349991E+02  0.29754E+07
 0.93399994E+02  0.29736E+07
 0.93449997E+02  0.29717E+07
 0.93499992E+02  0.29699E+07
 0.93549995E+02  0.29681E+07
 0.93599991E+02  0.29663E+07
 0.93649994E+02  0.29645E+07
 0.93699997E+02  0.29627E+07
 0.93749992E+02  0.29609E+07
 0.93799995E+02  0.29591E+07
 0.93849991E+02  0.29573E+07
 0.93899994E+02  0.29556E+07
 0.93949997E+02  0.29537E+07
 0.93999992E+02  0.29519E+07
 0.94049995E+02  0.29501E+07
 0.94099991E+02  0.29482E+07
 0.94149994E+02  0.29463E+07
 0.94199997E+02  0.29443E+07
 0.94249992E+02  0.29422E+07
 0.94299995E+02  0.29400E+07
 0.94349991E+02  0.29378E+07
 0.94399994E+02  0.29355E+07
 0.94449997E+02  0.29332E+07
 0.94499992E+02  0.29309E+07
 0.94549995E+02  0.29285E+07
 0.94599991E+02  0.29261E+07
 0.94649994E+02  0.29234E+07
 0.94699997E+02  0.29207E+07
 0.94749992E+02  0.29178E+07
 0.94799995E+02  0.29150E+07
 0.94849991E+02  0.29123E+07
 0.94899994E+02  0.29097E+07
 0.94949997E+02  0.29072E+07
 0.94999992E+02  0.29047E+07
 0.95049995E+02  0.29022E+07
 0.95099991E+02  0.28996E+07
 0.95149994E+02  0.28971E+07
 0.95199997E+02  0.28944E+07
 0.95249992E+02  0.28919E+07
 0.95299995E+02  0.28894E+07
 0.95349991E+02  0.28870E+07
 0.95399994E+02  0.28847E+07
 0.95449997E+02  0.28825E+07
 0.95499992E+02  0.28804E+07
 0.95549995E+02  0.28784E+07
 0.95599991E+02  0.28764E+07
 0.95649994E+02  0.28744E+07
 0.95699997E+02  0.28724E+07
 0.95749992E+02  0.28705E+07
 0.95799995E+02  0.28686E+07
 0.95849991E+02  0.28667E+07
 0.95899994E+02  0.28648E+07
 0.95949997E+02  0.28628E+07
 0.95999992E+02  0.28608E+07
 0.96049995E+02  0.28587E+07
 0.96099991E+02  0.28566E+07
 0.96149994E+02  0.28545E+07
 0.96199997E+02  0.28523E+07
 0.96249992E+02  0.28501E+07
 0.96299995E+02  0.28478E+07
 0.96349991E+02  0.28454E+07
 0.96399994E+02  0.28428E+07
 0.96449997E+02  0.28402E+07
 0.96499992E+02  0.28373E+07
 0.96549995E+02  0.28344E+07
 0.96599991E+02  0.28312E+07
 0.96649994E+02  0.28271E+07
 0.96699997E+02  0.28223E+07
 0.96749992E+02  0.28158E+07
 0.96799995E+02  0.28100E+07
 0.96849991E+02  0.28054E+07
 0.96899994E+02  0.28017E+07
 0.96949997E+02  0.27987E+07
 0.96999992E+02  0.27956E+07
 0.97049995E+02  0.27928E+07
 0.97099991E+02  0.27900E+07
 0.97149994E+02  0.27873E+07
 0.97199997E+02  0.27847E+07
 0.97249992E+02  0.27822E+07
 0.97299995E+02  0.27797E+07
 0.97349991E+02  0.27772E+07
 0.97399994E+02  0.27747E+07
 0.97449997E+02  0.27723E+07
 0.97499992E+02  0.27699E+07
 0.97549995E+02  0.27675E+07
 0.97599991E+02  0.27651E+07
 0.97649994E+02  0.27627E+07
 0.97699997E+02  0.27603E+07
 0.97749992E+02  0.27579E+07
 0.97799995E+02  0.27554E+07
 0.97849991E+02  0.27528E+07
 0.97899994E+02  0.27501E+07
 0.97949997E+02  0.27474E+07
 0.97999992E+02  0.27446E+07
