-0.19969940E+01 -0.10791E+05
-0.19469941E+01 -0.10602E+05
-0.18969940E+01 -0.10635E+05
-0.18469940E+01 -0.10848E+05
-0.17969940E+01 -0.11050E+05
-0.17469940E+01 -0.10802E+05
-0.16969941E+01 -0.10764E+05
-0.16469941E+01 -0.10742E+05
-0.15969940E+01 -0.10703E+05
-0.15469940E+01 -0.10634E+05
-0.14969940E+01 -0.10634E+05
-0.14469941E+01 -0.10936E+05
-0.13969941E+01 -0.10940E+05
-0.13469940E+01 -0.10540E+05
-0.12969941E+01 -0.10548E+05
-0.12469940E+01 -0.10755E+05
-0.11969941E+01 -0.10795E+05
-0.11469941E+01 -0.10815E+05
-0.10969940E+01 -0.10627E+05
-0.10469941E+01 -0.10673E+05
-0.99699408E+00 -0.10811E+05
-0.94699407E+00 -0.10607E+05
-0.89699411E+00 -0.10801E+05
-0.84699404E+00 -0.10863E+05
-0.79699409E+00 -0.10687E+05
-0.74699414E+00 -0.10627E+05
-0.69699407E+00 -0.10774E+05
-0.64699411E+00 -0.10909E+05
-0.59699416E+00 -0.10697E+05
-0.54699409E+00 -0.10741E+05
-0.49699414E+00 -0.10596E+05
-0.44699407E+00 -0.10852E+05
-0.39699411E+00 -0.10875E+05
-0.34699416E+00 -0.10790E+05
-0.29699409E+00 -0.10733E+05
-0.24699414E+00 -0.10554E+05
-0.19699407E+00 -0.10877E+05
-0.14699411E+00 -0.10902E+05
-0.96994162E-01 -0.10774E+05
-0.46994090E-01 -0.10688E+05
 0.30058622E-02 -0.10768E+05
 0.53005934E-01 -0.10853E+05
 0.10300589E+00 -0.10814E+05
 0.15300584E+00 -0.10696E+05
 0.20300579E+00 -0.10461E+05
 0.25300574E+00 -0.10723E+05
 0.30300593E+00 -0.10615E+05
 0.35300589E+00 -0.11016E+05
 0.40300584E+00 -0.10890E+05
 0.45300579E+00 -0.10470E+05
 0.50300574E+00 -0.10450E+05
 0.55300593E+00 -0.10528E+05
 0.60300589E+00 -0.11188E+05
 0.65300584E+00 -0.10861E+05
 0.70300579E+00 -0.10910E+05
 0.75300574E+00 -0.10614E+05
 0.80300570E+00 -0.10585E+05
 0.85300589E+00 -0.10852E+05
 0.90300584E+00 -0.10761E+05
 0.95300579E+00 -0.11053E+05
 0.10030057E+01 -0.10804E+05
 0.10530057E+01 -0.10578E+05
 0.11030059E+01 -0.10616E+05
 0.11530058E+01 -0.10614E+05
 0.12030058E+01 -0.10985E+05
 0.12530057E+01 -0.10972E+05
 0.13030057E+01 -0.10583E+05
 0.13530059E+01 -0.10637E+05
 0.14030058E+01 -0.10829E+05
 0.14530058E+01 -0.10929E+05
 0.15030057E+01 -0.10917E+05
 0.15530057E+01 -0.10664E+05
 0.16030059E+01 -0.10680E+05
 0.16530058E+01 -0.10854E+05
 0.17030058E+01 -0.10665E+05
 0.17530057E+01 -0.10935E+05
 0.18030057E+01 -0.10939E+05
 0.18530056E+01 -0.10727E+05
 0.19030058E+01 -0.10665E+05
 0.19530058E+01 -0.10613E+05
 0.20030057E+01 -0.10850E+05
 0.20530057E+01 -0.10959E+05
 0.21030059E+01 -0.10778E+05
 0.21530056E+01 -0.10557E+05
 0.22030058E+01 -0.10767E+05
 0.22530055E+01 -0.10599E+05
 0.23030057E+01 -0.10665E+05
 0.23530059E+01 -0.10815E+05
 0.24030056E+01 -0.10823E+05
 0.24530058E+01 -0.10808E+05
 0.25030055E+01 -0.10630E+05
 0.25530057E+01 -0.10746E+05
 0.26030059E+01 -0.10807E+05
 0.26530056E+01 -0.10618E+05
 0.27030058E+01 -0.10614E+05
 0.27530055E+01 -0.10991E+05
 0.28030057E+01 -0.10891E+05
 0.28530059E+01 -0.10805E+05
 0.29030056E+01 -0.10682E+05
 0.29530058E+01 -0.10656E+05
 0.30030055E+01 -0.10721E+05
 0.30530057E+01 -0.10743E+05
 0.31030059E+01 -0.10795E+05
 0.31530056E+01 -0.11046E+05
 0.32030058E+01 -0.10672E+05
 0.32530055E+01 -0.10456E+05
 0.33030057E+01 -0.10854E+05
 0.33530059E+01 -0.10803E+05
 0.34030056E+01 -0.10859E+05
 0.34530058E+01 -0.10750E+05
 0.35030055E+01 -0.10749E+05
 0.35530057E+01 -0.10776E+05
 0.36030054E+01 -0.10650E+05
 0.36530056E+01 -0.10609E+05
 0.37030058E+01 -0.10889E+05
 0.37530055E+01 -0.10959E+05
 0.38030057E+01 -0.10891E+05
 0.38530054E+01 -0.10518E+05
 0.39030056E+01 -0.10582E+05
 0.39530058E+01 -0.10516E+05
 0.40030055E+01 -0.10831E+05
 0.40530057E+01 -0.11060E+05
 0.41030054E+01 -0.10903E+05
 0.41530056E+01 -0.10914E+05
 0.42030058E+01 -0.10291E+05
 0.42530055E+01 -0.10543E+05
 0.43030057E+01 -0.10672E+05
 0.43530054E+01 -0.10940E+05
 0.44030056E+01 -0.11164E+05
 0.44530058E+01 -0.10708E+05
 0.45030055E+01 -0.10491E+05
 0.45530057E+01 -0.10605E+05
 0.46030054E+01 -0.10768E+05
 0.46530056E+01 -0.10857E+05
 0.47030058E+01 -0.10751E+05
 0.47530055E+01 -0.10685E+05
 0.48030057E+01 -0.10668E+05
 0.48530054E+01 -0.10836E+05
 0.49030056E+01 -0.10776E+05
 0.49530058E+01 -0.10675E+05
 0.50030055E+01 -0.10740E+05
 0.50530057E+01 -0.10846E+05
 0.51030054E+01 -0.10777E+05
 0.51530056E+01 -0.10819E+05
 0.52030058E+01 -0.10788E+05
 0.52530055E+01 -0.10599E+05
 0.53030057E+01 -0.10679E+05
 0.53530054E+01 -0.10694E+05
 0.54030056E+01 -0.10978E+05
 0.54530053E+01 -0.10981E+05
 0.55030055E+01 -0.10743E+05
 0.55530057E+01 -0.10647E+05
 0.56030054E+01 -0.10568E+05
 0.56530056E+01 -0.10708E+05
 0.57030053E+01 -0.10859E+05
 0.57530055E+01 -0.10848E+05
 0.58030057E+01 -0.10731E+05
 0.58530054E+01 -0.10780E+05
 0.59030056E+01 -0.10608E+05
 0.59530053E+01 -0.10741E+05
 0.60030055E+01 -0.10697E+05
 0.60530052E+01 -0.10828E+05
 0.61030054E+01 -0.10737E+05
 0.61530056E+01 -0.10617E+05
 0.62030058E+01 -0.10836E+05
 0.62530050E+01 -0.10563E+05
 0.63030052E+01 -0.10833E+05
 0.63530054E+01 -0.10811E+05
 0.64030056E+01 -0.10793E+05
 0.64530058E+01 -0.10854E+05
 0.65030050E+01 -0.10741E+05
 0.65530052E+01 -0.10600E+05
 0.66030054E+01 -0.10709E+05
 0.66530056E+01 -0.10723E+05
 0.67030058E+01 -0.10887E+05
 0.67530050E+01 -0.10969E+05
 0.68030052E+01 -0.10793E+05
 0.68530054E+01 -0.10756E+05
 0.69030056E+01 -0.10619E+05
 0.69530058E+01 -0.10693E+05
 0.70030050E+01 -0.10786E+05
 0.70530052E+01 -0.10871E+05
 0.71030054E+01 -0.10934E+05
 0.71530056E+01 -0.10783E+05
 0.72030058E+01 -0.10673E+05
 0.72530050E+01 -0.10715E+05
 0.73030052E+01 -0.10835E+05
 0.73530054E+01 -0.10931E+05
 0.74030056E+01 -0.10731E+05
 0.74530058E+01 -0.10604E+05
 0.75030050E+01 -0.10634E+05
 0.75530052E+01 -0.10763E+05
 0.76030054E+01 -0.10826E+05
 0.76530056E+01 -0.10757E+05
 0.77030058E+01 -0.10721E+05
 0.77530050E+01 -0.10670E+05
 0.78030052E+01 -0.10628E+05
 0.78530054E+01 -0.10535E+05
 0.79030056E+01 -0.10657E+05
 0.79530058E+01 -0.10747E+05
 0.80030050E+01 -0.10821E+05
 0.80530052E+01 -0.10782E+05
 0.81030054E+01 -0.10789E+05
 0.81530056E+01 -0.10736E+05
 0.82030058E+01 -0.10639E+05
 0.82530050E+01 -0.10676E+05
 0.83030052E+01 -0.10805E+05
 0.83530054E+01 -0.10779E+05
 0.84030056E+01 -0.10735E+05
 0.84530058E+01 -0.10848E+05
 0.85030050E+01 -0.10805E+05
 0.85530052E+01 -0.10787E+05
 0.86030054E+01 -0.10695E+05
 0.86530056E+01 -0.10789E+05
 0.87030058E+01 -0.10796E+05
 0.87530050E+01 -0.10763E+05
 0.88030052E+01 -0.10838E+05
 0.88530054E+01 -0.10896E+05
 0.89030056E+01 -0.10818E+05
 0.89530058E+01 -0.10751E+05
 0.90030050E+01 -0.10810E+05
 0.90530052E+01 -0.10782E+05
 0.91030054E+01 -0.10848E+05
 0.91530056E+01 -0.10747E+05
 0.92030048E+01 -0.10773E+05
 0.92530050E+01 -0.10826E+05
 0.93030052E+01 -0.10855E+05
 0.93530054E+01 -0.10704E+05
 0.94030056E+01 -0.10691E+05
 0.94530048E+01 -0.10812E+05
 0.95030050E+01 -0.10698E+05
 0.95530052E+01 -0.10741E+05
 0.96030054E+01 -0.10705E+05
 0.96530056E+01 -0.10721E+05
 0.97030048E+01 -0.10740E+05
 0.97530050E+01 -0.10681E+05
 0.98030052E+01 -0.10765E+05
 0.98530054E+01 -0.10735E+05
 0.99030056E+01 -0.10693E+05
 0.99530048E+01 -0.10717E+05
 0.10003005E+02 -0.10655E+05
 0.10053005E+02 -0.10715E+05
 0.10103005E+02 -0.10719E+05
 0.10153006E+02 -0.10714E+05
 0.10203005E+02 -0.10732E+05
 0.10253005E+02 -0.10779E+05
 0.10303005E+02 -0.10788E+05
 0.10353005E+02 -0.10778E+05
 0.10403006E+02 -0.10740E+05
 0.10453005E+02 -0.10777E+05
 0.10503005E+02 -0.10764E+05
 0.10553005E+02 -0.10736E+05
 0.10603005E+02 -0.10747E+05
 0.10653006E+02 -0.10847E+05
 0.10703005E+02 -0.10842E+05
 0.10753005E+02 -0.10751E+05
 0.10803005E+02 -0.10712E+05
 0.10853005E+02 -0.10665E+05
 0.10903006E+02 -0.10741E+05
 0.10953005E+02 -0.10754E+05
 0.11003005E+02 -0.10805E+05
 0.11053005E+02 -0.10808E+05
 0.11103005E+02 -0.10734E+05
 0.11153006E+02 -0.10690E+05
 0.11203005E+02 -0.10700E+05
 0.11253005E+02 -0.10739E+05
 0.11303005E+02 -0.10809E+05
 0.11353005E+02 -0.10770E+05
 0.11403006E+02 -0.10800E+05
 0.11453005E+02 -0.10723E+05
 0.11503005E+02 -0.10669E+05
 0.11553005E+02 -0.10816E+05
 0.11603005E+02 -0.10790E+05
 0.11653006E+02 -0.10846E+05
 0.11703005E+02 -0.10892E+05
 0.11753005E+02 -0.10779E+05
 0.11803005E+02 -0.10750E+05
 0.11853005E+02 -0.10725E+05
 0.11903006E+02 -0.10753E+05
 0.11953005E+02 -0.10818E+05
 0.12003005E+02 -0.10860E+05
 0.12053005E+02 -0.10825E+05
 0.12103005E+02 -0.10712E+05
 0.12153006E+02 -0.10778E+05
 0.12203005E+02 -0.10758E+05
 0.12253005E+02 -0.10778E+05
 0.12303005E+02 -0.10814E+05
 0.12353005E+02 -0.10785E+05
 0.12403006E+02 -0.10746E+05
 0.12453005E+02 -0.10755E+05
 0.12503005E+02 -0.10743E+05
 0.12553005E+02 -0.10721E+05
 0.12603005E+02 -0.10763E+05
 0.12653005E+02 -0.10721E+05
 0.12703005E+02 -0.10708E+05
 0.12753005E+02 -0.10743E+05
 0.12803005E+02 -0.10724E+05
 0.12853005E+02 -0.10635E+05
 0.12903005E+02 -0.10688E+05
 0.12953005E+02 -0.10677E+05
 0.13003005E+02 -0.10647E+05
 0.13053005E+02 -0.10740E+05
 0.13103005E+02 -0.10721E+05
 0.13153005E+02 -0.10578E+05
 0.13203005E+02 -0.10692E+05
 0.13253005E+02 -0.10634E+05
 0.13303005E+02 -0.10737E+05
 0.13353005E+02 -0.10790E+05
 0.13403005E+02 -0.10640E+05
 0.13453005E+02 -0.10744E+05
 0.13503005E+02 -0.10751E+05
 0.13553005E+02 -0.10777E+05
 0.13603005E+02 -0.10742E+05
 0.13653005E+02 -0.10784E+05
 0.13703005E+02 -0.10820E+05
 0.13753005E+02 -0.10749E+05
 0.13803005E+02 -0.10804E+05
 0.13853005E+02 -0.10823E+05
 0.13903005E+02 -0.10742E+05
 0.13953005E+02 -0.10821E+05
 0.14003005E+02 -0.10754E+05
 0.14053005E+02 -0.10769E+05
 0.14103004E+02 -0.10803E+05
 0.14153006E+02 -0.10777E+05
 0.14203005E+02 -0.10799E+05
 0.14253004E+02 -0.10730E+05
 0.14303005E+02 -0.10744E+05
 0.14353004E+02 -0.10789E+05
 0.14403006E+02 -0.10781E+05
 0.14453005E+02 -0.10792E+05
 0.14503004E+02 -0.10814E+05
 0.14553005E+02 -0.10751E+05
 0.14603004E+02 -0.10842E+05
 0.14653006E+02 -0.10758E+05
 0.14703005E+02 -0.10778E+05
 0.14753004E+02 -0.10830E+05
 0.14803005E+02 -0.10738E+05
 0.14853004E+02 -0.10727E+05
 0.14903006E+02 -0.10772E+05
 0.14953005E+02 -0.10841E+05
 0.15003004E+02 -0.10843E+05
 0.15053005E+02 -0.10795E+05
 0.15103004E+02 -0.10717E+05
 0.15153006E+02 -0.10679E+05
 0.15203005E+02 -0.10779E+05
 0.15253004E+02 -0.10833E+05
 0.15303005E+02 -0.10803E+05
 0.15353004E+02 -0.10812E+05
 0.15403006E+02 -0.10675E+05
 0.15453005E+02 -0.10688E+05
 0.15503004E+02 -0.10747E+05
 0.15553005E+02 -0.10760E+05
 0.15603004E+02 -0.10773E+05
 0.15653006E+02 -0.10713E+05
 0.15703005E+02 -0.10604E+05
 0.15753004E+02 -0.10692E+05
 0.15803005E+02 -0.10732E+05
 0.15853004E+02 -0.10758E+05
 0.15903006E+02 -0.10852E+05
 0.15953005E+02 -0.10704E+05
 0.16003004E+02 -0.10621E+05
 0.16053005E+02 -0.10735E+05
 0.16103004E+02 -0.10711E+05
 0.16153006E+02 -0.10794E+05
 0.16203005E+02 -0.10839E+05
 0.16253004E+02 -0.10754E+05
 0.16303005E+02 -0.10793E+05
 0.16353004E+02 -0.10769E+05
 0.16403006E+02 -0.10781E+05
 0.16453005E+02 -0.10799E+05
 0.16503004E+02 -0.10712E+05
 0.16553005E+02 -0.10730E+05
 0.16603004E+02 -0.10805E+05
 0.16653006E+02 -0.10786E+05
 0.16703005E+02 -0.10783E+05
 0.16753004E+02 -0.10718E+05
 0.16803005E+02 -0.10702E+05
 0.16853004E+02 -0.10672E+05
 0.16903006E+02 -0.10729E+05
 0.16953005E+02 -0.10791E+05
 0.17003004E+02 -0.10790E+05
 0.17053005E+02 -0.10732E+05
 0.17103004E+02 -0.10656E+05
 0.17153006E+02 -0.10692E+05
 0.17203005E+02 -0.10777E+05
 0.17253004E+02 -0.10809E+05
 0.17303005E+02 -0.10841E+05
 0.17353004E+02 -0.10768E+05
 0.17403006E+02 -0.10701E+05
 0.17453005E+02 -0.10737E+05
 0.17503004E+02 -0.10680E+05
 0.17553005E+02 -0.10729E+05
 0.17603004E+02 -0.10763E+05
 0.17653006E+02 -0.10756E+05
 0.17703005E+02 -0.10769E+05
 0.17753004E+02 -0.10752E+05
 0.17803005E+02 -0.10693E+05
 0.17853004E+02 -0.10738E+05
 0.17903006E+02 -0.10736E+05
 0.17953005E+02 -0.10748E+05
 0.18003004E+02 -0.10802E+05
 0.18053005E+02 -0.10809E+05
 0.18103004E+02 -0.10797E+05
 0.18153006E+02 -0.10724E+05
 0.18203005E+02 -0.10753E+05
 0.18253004E+02 -0.10764E+05
 0.18303005E+02 -0.10753E+05
 0.18353004E+02 -0.10745E+05
 0.18403006E+02 -0.10747E+05
 0.18453005E+02 -0.10767E+05
 0.18503004E+02 -0.10768E+05
 0.18553005E+02 -0.10725E+05
 0.18603004E+02 -0.10795E+05
 0.18653006E+02 -0.10794E+05
 0.18703005E+02 -0.10775E+05
 0.18753004E+02 -0.10708E+05
 0.18803005E+02 -0.10713E+05
 0.18853004E+02 -0.10786E+05
 0.18903006E+02 -0.10796E+05
 0.18953005E+02 -0.10853E+05
 0.19003004E+02 -0.10729E+05
 0.19053005E+02 -0.10730E+05
 0.19103004E+02 -0.10711E+05
 0.19153006E+02 -0.10689E+05
 0.19203005E+02 -0.10720E+05
 0.19253004E+02 -0.10744E+05
 0.19303005E+02 -0.10794E+05
 0.19353004E+02 -0.10774E+05
 0.19403006E+02 -0.10719E+05
 0.19453005E+02 -0.10688E+05
 0.19503004E+02 -0.10663E+05
 0.19553005E+02 -0.10640E+05
 0.19603004E+02 -0.10700E+05
 0.19653006E+02 -0.10733E+05
 0.19703005E+02 -0.10727E+05
 0.19753004E+02 -0.10738E+05
 0.19803005E+02 -0.10701E+05
 0.19853004E+02 -0.10695E+05
 0.19903006E+02 -0.10779E+05
 0.19953005E+02 -0.10745E+05
 0.20003004E+02 -0.10719E+05
 0.20053005E+02 -0.10713E+05
 0.20103004E+02 -0.10682E+05
 0.20153006E+02 -0.10785E+05
 0.20203005E+02 -0.10783E+05
 0.20253004E+02 -0.10777E+05
 0.20303005E+02 -0.10767E+05
 0.20353004E+02 -0.10737E+05
 0.20403004E+02 -0.10779E+05
 0.20453005E+02 -0.10734E+05
 0.20503004E+02 -0.10789E+05
 0.20553005E+02 -0.10801E+05
 0.20603004E+02 -0.10772E+05
 0.20653004E+02 -0.10812E+05
 0.20703005E+02 -0.10803E+05
 0.20753004E+02 -0.10771E+05
 0.20803005E+02 -0.10799E+05
 0.20853004E+02 -0.10756E+05
 0.20903004E+02 -0.10719E+05
 0.20953005E+02 -0.10793E+05
 0.21003004E+02 -0.10742E+05
 0.21053005E+02 -0.10755E+05
 0.21103004E+02 -0.10842E+05
 0.21153004E+02 -0.10801E+05
 0.21203005E+02 -0.10804E+05
 0.21253004E+02 -0.10802E+05
 0.21303005E+02 -0.10734E+05
 0.21353004E+02 -0.10755E+05
 0.21403004E+02 -0.10796E+05
 0.21453005E+02 -0.10716E+05
 0.21503004E+02 -0.10815E+05
 0.21553005E+02 -0.10820E+05
 0.21603004E+02 -0.10735E+05
 0.21653004E+02 -0.10857E+05
 0.21703005E+02 -0.10712E+05
 0.21753004E+02 -0.10726E+05
 0.21803005E+02 -0.10758E+05
 0.21853004E+02 -0.10719E+05
 0.21903004E+02 -0.10821E+05
 0.21953005E+02 -0.10805E+05
 0.22003004E+02 -0.10727E+05
 0.22053005E+02 -0.10688E+05
 0.22103004E+02 -0.10689E+05
 0.22153004E+02 -0.10698E+05
 0.22203005E+02 -0.10777E+05
 0.22253004E+02 -0.10791E+05
 0.22303005E+02 -0.10748E+05
 0.22353004E+02 -0.10749E+05
 0.22403004E+02 -0.10721E+05
 0.22453005E+02 -0.10662E+05
 0.22503004E+02 -0.10715E+05
 0.22553005E+02 -0.10779E+05
 0.22603004E+02 -0.10718E+05
 0.22653004E+02 -0.10750E+05
 0.22703005E+02 -0.10733E+05
 0.22753004E+02 -0.10683E+05
 0.22803005E+02 -0.10744E+05
 0.22853004E+02 -0.10755E+05
 0.22903004E+02 -0.10827E+05
 0.22953005E+02 -0.10737E+05
 0.23003004E+02 -0.10791E+05
 0.23053005E+02 -0.10692E+05
 0.23103004E+02 -0.10715E+05
 0.23153004E+02 -0.10788E+05
 0.23203005E+02 -0.10765E+05
 0.23253004E+02 -0.10887E+05
 0.23303005E+02 -0.10755E+05
 0.23353004E+02 -0.10813E+05
 0.23403004E+02 -0.10681E+05
 0.23453005E+02 -0.10687E+05
 0.23503004E+02 -0.10786E+05
 0.23553005E+02 -0.10812E+05
 0.23603004E+02 -0.10836E+05
 0.23653004E+02 -0.10788E+05
 0.23703005E+02 -0.10733E+05
 0.23753004E+02 -0.10655E+05
 0.23803005E+02 -0.10728E+05
 0.23853004E+02 -0.10649E+05
 0.23903004E+02 -0.10798E+05
 0.23953005E+02 -0.10787E+05
 0.24003004E+02 -0.10722E+05
 0.24053005E+02 -0.10763E+05
 0.24103004E+02 -0.10740E+05
 0.24153004E+02 -0.10602E+05
 0.24203005E+02 -0.10642E+05
 0.24253004E+02 -0.10708E+05
 0.24303005E+02 -0.10700E+05
 0.24353004E+02 -0.10803E+05
 0.24403004E+02 -0.10618E+05
 0.24453005E+02 -0.10770E+05
 0.24503004E+02 -0.10720E+05
 0.24553005E+02 -0.10720E+05
 0.24603004E+02 -0.10650E+05
 0.24653004E+02 -0.10706E+05
 0.24703005E+02 -0.10742E+05
 0.24753004E+02 -0.10764E+05
 0.24803005E+02 -0.10737E+05
 0.24853004E+02 -0.10733E+05
 0.24903004E+02 -0.10731E+05
 0.24953005E+02 -0.10713E+05
 0.25003004E+02 -0.10753E+05
 0.25053005E+02 -0.10703E+05
 0.25103004E+02 -0.10857E+05
 0.25153004E+02 -0.10739E+05
 0.25203005E+02 -0.10770E+05
 0.25253004E+02 -0.10647E+05
 0.25303005E+02 -0.10722E+05
 0.25353004E+02 -0.10784E+05
 0.25403004E+02 -0.10749E+05
 0.25453005E+02 -0.10763E+05
 0.25503004E+02 -0.10747E+05
 0.25553005E+02 -0.10798E+05
 0.25603004E+02 -0.10784E+05
 0.25653004E+02 -0.10728E+05
 0.25703005E+02 -0.10761E+05
 0.25753004E+02 -0.10776E+05
 0.25803005E+02 -0.10777E+05
 0.25853004E+02 -0.10869E+05
 0.25903004E+02 -0.10707E+05
 0.25953005E+02 -0.10722E+05
 0.26003004E+02 -0.10766E+05
 0.26053005E+02 -0.10768E+05
 0.26103004E+02 -0.10880E+05
 0.26153004E+02 -0.10770E+05
 0.26203005E+02 -0.10727E+05
 0.26253004E+02 -0.10774E+05
 0.26303005E+02 -0.10698E+05
 0.26353004E+02 -0.10828E+05
 0.26403004E+02 -0.10762E+05
 0.26453005E+02 -0.10782E+05
 0.26503004E+02 -0.10850E+05
 0.26553005E+02 -0.10684E+05
 0.26603004E+02 -0.10794E+05
 0.26653004E+02 -0.10699E+05
 0.26703005E+02 -0.10733E+05
 0.26753004E+02 -0.10790E+05
 0.26803005E+02 -0.10771E+05
 0.26853004E+02 -0.10801E+05
 0.26903004E+02 -0.10793E+05
 0.26953005E+02 -0.10735E+05
 0.27003004E+02 -0.10745E+05
 0.27053003E+02 -0.10728E+05
 0.27103004E+02 -0.10725E+05
 0.27153004E+02 -0.10800E+05
 0.27203005E+02 -0.10750E+05
 0.27253004E+02 -0.10751E+05
 0.27303003E+02 -0.10745E+05
 0.27353004E+02 -0.10795E+05
 0.27403004E+02 -0.10727E+05
 0.27453005E+02 -0.10733E+05
 0.27503004E+02 -0.10743E+05
 0.27553003E+02 -0.10701E+05
 0.27603004E+02 -0.10772E+05
 0.27653004E+02 -0.10787E+05
 0.27703005E+02 -0.10776E+05
 0.27753004E+02 -0.10757E+05
 0.27803003E+02 -0.10730E+05
 0.27853004E+02 -0.10658E+05
 0.27903004E+02 -0.10681E+05
 0.27953005E+02 -0.10766E+05
 0.28003004E+02 -0.10746E+05
 0.28053003E+02 -0.10750E+05
 0.28103004E+02 -0.10762E+05
 0.28153004E+02 -0.10707E+05
 0.28203005E+02 -0.10705E+05
 0.28253004E+02 -0.10766E+05
 0.28303003E+02 -0.10688E+05
 0.28353004E+02 -0.10697E+05
 0.28403004E+02 -0.10763E+05
 0.28453005E+02 -0.10726E+05
 0.28503004E+02 -0.10772E+05
 0.28553003E+02 -0.10799E+05
 0.28603004E+02 -0.10743E+05
 0.28653004E+02 -0.10705E+05
 0.28703005E+02 -0.10669E+05
 0.28753004E+02 -0.10744E+05
 0.28803003E+02 -0.10828E+05
 0.28853004E+02 -0.10809E+05
 0.28903004E+02 -0.10790E+05
 0.28953005E+02 -0.10737E+05
 0.29003004E+02 -0.10738E+05
 0.29053003E+02 -0.10768E+05
 0.29103004E+02 -0.10782E+05
 0.29153004E+02 -0.10819E+05
 0.29203005E+02 -0.10817E+05
 0.29253004E+02 -0.10761E+05
 0.29303003E+02 -0.10795E+05
 0.29353004E+02 -0.10768E+05
 0.29403004E+02 -0.10778E+05
 0.29453005E+02 -0.10753E+05
 0.29503004E+02 -0.10751E+05
 0.29553003E+02 -0.10763E+05
 0.29603004E+02 -0.10798E+05
 0.29653004E+02 -0.10813E+05
 0.29703005E+02 -0.10730E+05
 0.29753004E+02 -0.10761E+05
 0.29803003E+02 -0.10797E+05
 0.29853004E+02 -0.10826E+05
 0.29903004E+02 -0.10817E+05
 0.29953005E+02 -0.10771E+05
 0.30003004E+02 -0.10738E+05
 0.30053005E+02 -0.10771E+05
 0.30103004E+02 -0.10745E+05
 0.30153004E+02 -0.10765E+05
 0.30203003E+02 -0.10814E+05
 0.30253002E+02 -0.10747E+05
 0.30303005E+02 -0.10655E+05
 0.30353004E+02 -0.10713E+05
 0.30403004E+02 -0.10693E+05
 0.30453003E+02 -0.10835E+05
 0.30503002E+02 -0.10800E+05
 0.30553005E+02 -0.10823E+05
 0.30603004E+02 -0.10837E+05
 0.30653004E+02 -0.10758E+05
 0.30703003E+02 -0.10927E+05
 0.30753002E+02 -0.10584E+05
 0.30803005E+02 -0.10513E+05
 0.30853004E+02 -0.10492E+05
 0.30903004E+02 -0.10450E+05
 0.30953003E+02 -0.10487E+05
 0.31003002E+02 -0.10720E+05
 0.31053005E+02 -0.10930E+05
 0.31103004E+02 -0.10790E+05
 0.31153004E+02 -0.10980E+05
 0.31203003E+02 -0.10746E+05
 0.31253002E+02 -0.10724E+05
 0.31303005E+02 -0.10907E+05
 0.31353004E+02 -0.10593E+05
 0.31403004E+02 -0.10924E+05
 0.31453003E+02 -0.10908E+05
 0.31503002E+02 -0.10602E+05
 0.31553005E+02 -0.10600E+05
 0.31603004E+02 -0.10867E+05
 0.31653004E+02 -0.11141E+05
 0.31703003E+02 -0.10449E+05
 0.31753002E+02 -0.10339E+05
 0.31803005E+02 -0.10681E+05
 0.31853004E+02 -0.10810E+05
 0.31903004E+02 -0.10708E+05
 0.31953003E+02 -0.10749E+05
 0.32003002E+02 -0.10750E+05
 0.32053005E+02 -0.11234E+05
 0.32103004E+02 -0.10551E+05
 0.32153004E+02 -0.10599E+05
 0.32203003E+02 -0.11057E+05
 0.32253002E+02 -0.10754E+05
 0.32303005E+02 -0.11470E+05
 0.32353004E+02 -0.10024E+05
 0.32403004E+02 -0.10563E+05
 0.32453003E+02 -0.10998E+05
 0.32503002E+02 -0.11205E+05
 0.32553005E+02 -0.11018E+05
 0.32603004E+02 -0.98917E+04
 0.32653004E+02 -0.10780E+05
 0.32703003E+02 -0.10522E+05
 0.32753002E+02 -0.10924E+05
 0.32803005E+02 -0.10448E+05
 0.32853004E+02 -0.11443E+05
 0.32903004E+02 -0.10973E+05
 0.32953003E+02 -0.10574E+05
 0.33003002E+02 -0.10469E+05
 0.33053005E+02 -0.97002E+04
 0.33103004E+02 -0.11419E+05
 0.33153004E+02 -0.99359E+04
 0.33203003E+02 -0.11247E+05
 0.33253002E+02 -0.10837E+05
 0.33303005E+02 -0.10930E+05
 0.33353004E+02 -0.10832E+05
 0.33403004E+02 -0.10150E+05
 0.33453003E+02 -0.11706E+05
 0.33503002E+02 -0.10359E+05
 0.33553005E+02 -0.11437E+05
 0.33603004E+02 -0.99868E+04
 0.33653004E+02 -0.11311E+05
 0.33703003E+02 -0.11535E+05
 0.33753002E+02 -0.99908E+04
 0.33803005E+02 -0.10964E+05
 0.33853004E+02 -0.11291E+05
 0.33903004E+02 -0.11689E+05
 0.33953003E+02 -0.98571E+04
 0.34003002E+02 -0.10306E+05
 0.34053005E+02 -0.90063E+04
 0.34103004E+02 -0.10248E+05
 0.34153004E+02 -0.12165E+05
 0.34203003E+02 -0.11071E+05
 0.34253002E+02 -0.89489E+04
 0.34303005E+02 -0.10287E+05
 0.34353004E+02 -0.12165E+05
 0.34403004E+02 -0.10398E+05
 0.34453003E+02 -0.10624E+05
 0.34503002E+02 -0.11686E+05
 0.34553005E+02 -0.99158E+04
 0.34603004E+02 -0.89534E+04
 0.34653004E+02 -0.11466E+05
 0.34703003E+02 -0.10315E+05
 0.34753002E+02 -0.11696E+05
 0.34803005E+02 -0.12317E+05
 0.34853004E+02 -0.11836E+05
 0.34903004E+02 -0.12797E+05
 0.34953003E+02 -0.11958E+05
 0.35003002E+02 -0.10569E+05
 0.35053005E+02 -0.10327E+05
 0.35103004E+02 -0.10893E+05
 0.35153004E+02 -0.96239E+04
 0.35203003E+02 -0.93422E+04
 0.35253002E+02 -0.76724E+04
 0.35303005E+02 -0.85111E+04
 0.35353004E+02 -0.10296E+05
 0.35403004E+02 -0.10433E+05
 0.35453003E+02 -0.10281E+05
 0.35503002E+02 -0.11278E+05
 0.35553005E+02 -0.12600E+05
 0.35603004E+02 -0.91006E+04
 0.35653004E+02 -0.10215E+05
 0.35703003E+02 -0.11601E+05
 0.35753002E+02 -0.11397E+05
 0.35803005E+02 -0.10969E+05
 0.35853004E+02 -0.10665E+05
 0.35903004E+02 -0.12896E+05
 0.35953003E+02 -0.12498E+05
 0.36003002E+02 -0.12088E+05
 0.36053005E+02 -0.12325E+05
 0.36103004E+02 -0.10848E+05
 0.36153004E+02 -0.11610E+05
 0.36203003E+02 -0.11192E+05
 0.36253002E+02 -0.10320E+05
 0.36303005E+02 -0.11450E+05
 0.36353004E+02 -0.99156E+04
 0.36403004E+02 -0.96180E+04
 0.36453003E+02 -0.91615E+04
 0.36503002E+02 -0.10738E+05
 0.36553005E+02 -0.85834E+04
 0.36603004E+02 -0.10738E+05
 0.36653004E+02 -0.11173E+05
 0.36703003E+02 -0.80822E+04
 0.36753002E+02 -0.11591E+05
 0.36803005E+02 -0.11643E+05
 0.36853004E+02 -0.95910E+04
 0.36903004E+02 -0.10598E+05
 0.36953003E+02 -0.11260E+05
 0.37003002E+02 -0.10858E+05
 0.37053005E+02 -0.12296E+05
 0.37103004E+02 -0.10664E+05
 0.37153004E+02 -0.11001E+05
 0.37203003E+02 -0.11268E+05
 0.37253002E+02 -0.12149E+05
 0.37303005E+02 -0.10151E+05
 0.37353004E+02 -0.10553E+05
 0.37403004E+02 -0.13655E+05
 0.37453003E+02 -0.11882E+05
 0.37503002E+02 -0.79315E+04
 0.37553005E+02 -0.85437E+04
 0.37603004E+02 -0.11060E+05
 0.37653004E+02 -0.98582E+04
 0.37703003E+02 -0.12336E+05
 0.37753002E+02 -0.10740E+05
 0.37803005E+02 -0.99823E+04
 0.37853004E+02 -0.11050E+05
 0.37903004E+02 -0.82569E+04
 0.37953003E+02 -0.10480E+05
 0.38003002E+02 -0.12553E+05
 0.38053005E+02 -0.10257E+05
 0.38103004E+02 -0.10804E+05
 0.38153004E+02 -0.10941E+05
 0.38203003E+02 -0.90159E+04
 0.38253002E+02 -0.10428E+05
 0.38303005E+02 -0.12267E+05
 0.38353004E+02 -0.10538E+05
 0.38403004E+02 -0.11012E+05
 0.38453003E+02 -0.12724E+05
 0.38503002E+02 -0.11505E+05
 0.38553005E+02 -0.10232E+05
 0.38603004E+02 -0.11135E+05
 0.38653004E+02 -0.10727E+05
 0.38703003E+02 -0.10317E+05
 0.38753002E+02 -0.10472E+05
 0.38803005E+02 -0.11141E+05
 0.38853004E+02 -0.10926E+05
 0.38903004E+02 -0.10378E+05
 0.38953003E+02 -0.10418E+05
 0.39003002E+02 -0.97796E+04
 0.39053005E+02 -0.97956E+04
 0.39103004E+02 -0.10794E+05
 0.39153004E+02 -0.10950E+05
 0.39203003E+02 -0.96665E+04
 0.39253002E+02 -0.11151E+05
 0.39303005E+02 -0.10696E+05
 0.39353004E+02 -0.10463E+05
 0.39403004E+02 -0.12274E+05
 0.39453003E+02 -0.12509E+05
 0.39503002E+02 -0.11131E+05
 0.39553005E+02 -0.11426E+05
 0.39603004E+02 -0.11914E+05
 0.39653004E+02 -0.10462E+05
 0.39703003E+02 -0.10892E+05
 0.39753002E+02 -0.11672E+05
 0.39803005E+02 -0.11700E+05
 0.39853004E+02 -0.11464E+05
 0.39903004E+02 -0.11095E+05
 0.39953003E+02 -0.94590E+04
 0.40003002E+02 -0.92395E+04
 0.40053005E+02 -0.96139E+04
 0.40103004E+02 -0.10002E+05
 0.40153004E+02 -0.10544E+05
 0.40203003E+02 -0.10561E+05
 0.40253002E+02 -0.11384E+05
 0.40303005E+02 -0.98318E+04
 0.40353004E+02 -0.10151E+05
 0.40403004E+02 -0.11117E+05
 0.40453003E+02 -0.11646E+05
 0.40503002E+02 -0.11327E+05
 0.40553005E+02 -0.11218E+05
 0.40603004E+02 -0.11243E+05
 0.40653004E+02 -0.97572E+04
 0.40703003E+02 -0.98870E+04
 0.40753002E+02 -0.96464E+04
 0.40803005E+02 -0.10838E+05
 0.40853004E+02 -0.11228E+05
 0.40903004E+02 -0.11449E+05
 0.40953003E+02 -0.10442E+05
 0.41003002E+02 -0.82150E+04
 0.41053005E+02 -0.10029E+05
 0.41103004E+02 -0.10212E+05
 0.41153004E+02 -0.12250E+05
 0.41203003E+02 -0.12222E+05
 0.41253002E+02 -0.10480E+05
 0.41303005E+02 -0.99191E+04
 0.41353004E+02 -0.92809E+04
 0.41403004E+02 -0.10609E+05
 0.41453003E+02 -0.11697E+05
 0.41503002E+02 -0.12355E+05
 0.41553005E+02 -0.11553E+05
 0.41603004E+02 -0.10727E+05
 0.41653004E+02 -0.85655E+04
 0.41703003E+02 -0.10276E+05
 0.41753002E+02 -0.11214E+05
 0.41803005E+02 -0.11783E+05
 0.41853004E+02 -0.11620E+05
 0.41903004E+02 -0.11765E+05
 0.41953003E+02 -0.12383E+05
 0.42003002E+02 -0.92833E+04
 0.42053005E+02 -0.10455E+05
 0.42103004E+02 -0.11458E+05
 0.42153004E+02 -0.11265E+05
 0.42203003E+02 -0.98986E+04
 0.42253002E+02 -0.74778E+04
 0.42303005E+02 -0.82501E+04
 0.42353004E+02 -0.94306E+04
 0.42403004E+02 -0.10298E+05
 0.42453003E+02 -0.11052E+05
 0.42503002E+02 -0.11372E+05
 0.42553005E+02 -0.11771E+05
 0.42603004E+02 -0.12491E+05
 0.42653004E+02 -0.11580E+05
 0.42703003E+02 -0.11348E+05
 0.42753002E+02 -0.11742E+05
 0.42803001E+02 -0.11555E+05
 0.42853004E+02 -0.11309E+05
 0.42903004E+02 -0.93405E+04
 0.42953003E+02 -0.10190E+05
 0.43003002E+02 -0.10971E+05
 0.43053001E+02 -0.11089E+05
 0.43103004E+02 -0.12000E+05
 0.43153004E+02 -0.11189E+05
 0.43203003E+02 -0.95663E+04
 0.43253002E+02 -0.10536E+05
 0.43303001E+02 -0.11234E+05
 0.43353004E+02 -0.10339E+05
 0.43403004E+02 -0.10597E+05
 0.43453003E+02 -0.10856E+05
 0.43503002E+02 -0.11639E+05
 0.43553001E+02 -0.98597E+04
 0.43603004E+02 -0.10167E+05
 0.43653004E+02 -0.10419E+05
 0.43703003E+02 -0.11293E+05
 0.43753002E+02 -0.11941E+05
 0.43803001E+02 -0.10571E+05
 0.43853004E+02 -0.10347E+05
 0.43903004E+02 -0.10849E+05
 0.43953003E+02 -0.10429E+05
 0.44003002E+02 -0.10288E+05
 0.44053001E+02 -0.11965E+05
 0.44103004E+02 -0.11751E+05
 0.44153004E+02 -0.10579E+05
 0.44203003E+02 -0.95829E+04
 0.44253002E+02 -0.10323E+05
 0.44303001E+02 -0.95447E+04
 0.44353004E+02 -0.10239E+05
 0.44403004E+02 -0.11153E+05
 0.44453003E+02 -0.11084E+05
 0.44503002E+02 -0.10568E+05
 0.44553001E+02 -0.11255E+05
 0.44603004E+02 -0.11080E+05
 0.44653004E+02 -0.11558E+05
 0.44703003E+02 -0.11736E+05
 0.44753002E+02 -0.98025E+04
 0.44803001E+02 -0.94297E+04
 0.44853004E+02 -0.91916E+04
 0.44903004E+02 -0.10136E+05
 0.44953003E+02 -0.10547E+05
 0.45003002E+02 -0.11007E+05
 0.45053001E+02 -0.10442E+05
 0.45103004E+02 -0.11006E+05
 0.45153004E+02 -0.11844E+05
 0.45203003E+02 -0.12639E+05
 0.45253002E+02 -0.10852E+05
 0.45303001E+02 -0.10863E+05
 0.45353004E+02 -0.11593E+05
 0.45403004E+02 -0.10511E+05
 0.45453003E+02 -0.11033E+05
 0.45503002E+02 -0.95166E+04
 0.45553001E+02 -0.10871E+05
 0.45603004E+02 -0.12244E+05
 0.45653004E+02 -0.10658E+05
 0.45703003E+02 -0.96215E+04
 0.45753002E+02 -0.90451E+04
 0.45803001E+02 -0.91388E+04
 0.45853004E+02 -0.10862E+05
 0.45903004E+02 -0.12374E+05
 0.45953003E+02 -0.12801E+05
 0.46003002E+02 -0.11495E+05
 0.46053001E+02 -0.10853E+05
 0.46103004E+02 -0.10133E+05
 0.46153004E+02 -0.11008E+05
 0.46203003E+02 -0.12031E+05
 0.46253002E+02 -0.11373E+05
 0.46303001E+02 -0.11098E+05
 0.46353004E+02 -0.10735E+05
 0.46403004E+02 -0.11278E+05
 0.46453003E+02 -0.10176E+05
 0.46503002E+02 -0.10220E+05
 0.46553001E+02 -0.96564E+04
 0.46603004E+02 -0.10107E+05
 0.46653004E+02 -0.10335E+05
 0.46703003E+02 -0.10487E+05
 0.46753002E+02 -0.10858E+05
 0.46803001E+02 -0.10387E+05
 0.46853004E+02 -0.11209E+05
 0.46903004E+02 -0.99167E+04
 0.46953003E+02 -0.96318E+04
 0.47003002E+02 -0.99911E+04
 0.47053001E+02 -0.10424E+05
 0.47103004E+02 -0.11042E+05
 0.47153004E+02 -0.99424E+04
 0.47203003E+02 -0.11024E+05
 0.47253002E+02 -0.11599E+05
 0.47303001E+02 -0.10192E+05
 0.47353004E+02 -0.10692E+05
 0.47403004E+02 -0.11140E+05
 0.47453003E+02 -0.99972E+04
 0.47503002E+02 -0.10100E+05
 0.47553001E+02 -0.11078E+05
 0.47603004E+02 -0.12281E+05
 0.47653004E+02 -0.12355E+05
 0.47703003E+02 -0.11893E+05
 0.47753002E+02 -0.11511E+05
 0.47803001E+02 -0.10608E+05
 0.47853004E+02 -0.11531E+05
 0.47903004E+02 -0.10046E+05
 0.47953003E+02 -0.86615E+04
 0.48003002E+02 -0.91270E+04
 0.48053001E+02 -0.95370E+04
 0.48103004E+02 -0.10556E+05
 0.48153004E+02 -0.11053E+05
 0.48203003E+02 -0.11347E+05
 0.48253002E+02 -0.11682E+05
 0.48303001E+02 -0.10403E+05
 0.48353004E+02 -0.10593E+05
 0.48403004E+02 -0.10867E+05
 0.48453003E+02 -0.10493E+05
 0.48503002E+02 -0.11037E+05
 0.48553001E+02 -0.11228E+05
 0.48603004E+02 -0.11593E+05
 0.48653004E+02 -0.10490E+05
 0.48703003E+02 -0.10086E+05
 0.48753002E+02 -0.95519E+04
 0.48803001E+02 -0.10801E+05
 0.48853004E+02 -0.11940E+05
 0.48903004E+02 -0.12154E+05
 0.48953003E+02 -0.12507E+05
 0.49003002E+02 -0.10760E+05
 0.49053001E+02 -0.10786E+05
 0.49103004E+02 -0.10842E+05
 0.49153004E+02 -0.11157E+05
 0.49203003E+02 -0.10819E+05
 0.49253002E+02 -0.90734E+04
 0.49303001E+02 -0.10325E+05
 0.49353004E+02 -0.10222E+05
 0.49403004E+02 -0.10879E+05
 0.49453003E+02 -0.11621E+05
 0.49503002E+02 -0.10870E+05
 0.49553001E+02 -0.10409E+05
 0.49603004E+02 -0.91860E+04
 0.49653004E+02 -0.10765E+05
 0.49703003E+02 -0.10203E+05
 0.49753002E+02 -0.10330E+05
 0.49803001E+02 -0.11592E+05
 0.49853004E+02 -0.11133E+05
 0.49903004E+02 -0.11349E+05
 0.49953003E+02 -0.11712E+05
 0.50003002E+02 -0.12025E+05
 0.50053001E+02 -0.11575E+05
 0.50103004E+02 -0.10915E+05
 0.50153004E+02 -0.97934E+04
 0.50203003E+02 -0.10045E+05
 0.50253002E+02 -0.10252E+05
 0.50303001E+02 -0.94910E+04
 0.50353004E+02 -0.87740E+04
 0.50403004E+02 -0.92985E+04
 0.50453003E+02 -0.11405E+05
 0.50503002E+02 -0.12397E+05
 0.50553001E+02 -0.11628E+05
 0.50603004E+02 -0.10579E+05
 0.50653004E+02 -0.10886E+05
 0.50703003E+02 -0.10352E+05
 0.50753002E+02 -0.10051E+05
 0.50803001E+02 -0.10778E+05
 0.50853004E+02 -0.10866E+05
 0.50903004E+02 -0.11895E+05
 0.50953003E+02 -0.11214E+05
 0.51003002E+02 -0.10562E+05
 0.51053001E+02 -0.11295E+05
 0.51103004E+02 -0.10764E+05
 0.51153004E+02 -0.10790E+05
 0.51203003E+02 -0.10121E+05
 0.51253002E+02 -0.94034E+04
 0.51303001E+02 -0.10966E+05
 0.51353004E+02 -0.11706E+05
 0.51403004E+02 -0.10518E+05
 0.51453003E+02 -0.10702E+05
 0.51503002E+02 -0.10563E+05
 0.51553001E+02 -0.10387E+05
 0.51603004E+02 -0.10193E+05
 0.51653004E+02 -0.10614E+05
 0.51703003E+02 -0.10672E+05
 0.51753002E+02 -0.10944E+05
 0.51803001E+02 -0.11954E+05
 0.51853004E+02 -0.12104E+05
 0.51903004E+02 -0.11880E+05
 0.51953003E+02 -0.11236E+05
 0.52003002E+02 -0.11506E+05
 0.52053001E+02 -0.10240E+05
 0.52103004E+02 -0.96804E+04
 0.52153004E+02 -0.93516E+04
 0.52203003E+02 -0.97722E+04
 0.52253002E+02 -0.10444E+05
 0.52303001E+02 -0.11161E+05
 0.52353004E+02 -0.12409E+05
 0.52403004E+02 -0.11133E+05
 0.52453003E+02 -0.99099E+04
 0.52503002E+02 -0.10291E+05
 0.52553001E+02 -0.10322E+05
 0.52603004E+02 -0.10397E+05
 0.52653004E+02 -0.10414E+05
 0.52703003E+02 -0.10587E+05
 0.52753002E+02 -0.10136E+05
 0.52803001E+02 -0.10464E+05
 0.52853004E+02 -0.10691E+05
 0.52903004E+02 -0.11868E+05
 0.52953003E+02 -0.12236E+05
 0.53003002E+02 -0.11351E+05
 0.53053001E+02 -0.12021E+05
 0.53103004E+02 -0.11530E+05
 0.53153004E+02 -0.11177E+05
 0.53203003E+02 -0.10450E+05
 0.53253002E+02 -0.10089E+05
 0.53303001E+02 -0.95480E+04
 0.53353004E+02 -0.10864E+05
 0.53403004E+02 -0.10108E+05
 0.53453003E+02 -0.86615E+04
 0.53503002E+02 -0.95738E+04
 0.53553001E+02 -0.96599E+04
 0.53603004E+02 -0.10976E+05
 0.53653004E+02 -0.10809E+05
 0.53703003E+02 -0.11073E+05
 0.53753002E+02 -0.11380E+05
 0.53803001E+02 -0.11508E+05
 0.53853004E+02 -0.10587E+05
 0.53903004E+02 -0.97073E+04
 0.53953003E+02 -0.10980E+05
 0.54003002E+02 -0.10851E+05
 0.54053001E+02 -0.11100E+05
 0.54103004E+02 -0.11120E+05
 0.54153004E+02 -0.10648E+05
 0.54203003E+02 -0.94207E+04
 0.54253002E+02 -0.99031E+04
 0.54303001E+02 -0.11334E+05
 0.54353004E+02 -0.11294E+05
 0.54403004E+02 -0.10683E+05
 0.54453003E+02 -0.10449E+05
 0.54503002E+02 -0.11030E+05
 0.54553001E+02 -0.11036E+05
 0.54603004E+02 -0.10544E+05
 0.54653004E+02 -0.10015E+05
 0.54703003E+02 -0.11274E+05
 0.54753002E+02 -0.12317E+05
 0.54803001E+02 -0.11393E+05
 0.54853004E+02 -0.11289E+05
 0.54903004E+02 -0.11344E+05
 0.54953003E+02 -0.11640E+05
 0.55003002E+02 -0.10752E+05
 0.55053001E+02 -0.97512E+04
 0.55103004E+02 -0.10877E+05
 0.55153004E+02 -0.10456E+05
 0.55203003E+02 -0.11363E+05
 0.55253002E+02 -0.12537E+05
 0.55303001E+02 -0.11312E+05
 0.55353004E+02 -0.99330E+04
 0.55403004E+02 -0.10164E+05
 0.55453003E+02 -0.10152E+05
 0.55503002E+02 -0.95888E+04
 0.55553001E+02 -0.96350E+04
 0.55603004E+02 -0.10623E+05
 0.55653004E+02 -0.11346E+05
 0.55703003E+02 -0.10718E+05
 0.55753002E+02 -0.10487E+05
 0.55803001E+02 -0.10670E+05
 0.55853001E+02 -0.11527E+05
 0.55903004E+02 -0.11380E+05
 0.55953003E+02 -0.11342E+05
 0.56003002E+02 -0.11347E+05
 0.56053001E+02 -0.11116E+05
 0.56103001E+02 -0.10886E+05
 0.56153004E+02 -0.10757E+05
 0.56203003E+02 -0.10615E+05
 0.56253002E+02 -0.10218E+05
 0.56303001E+02 -0.96636E+04
 0.56353001E+02 -0.10398E+05
 0.56403004E+02 -0.11346E+05
 0.56453003E+02 -0.10097E+05
 0.56503002E+02 -0.10511E+05
 0.56553001E+02 -0.10770E+05
 0.56603001E+02 -0.10432E+05
 0.56653004E+02 -0.10432E+05
 0.56703003E+02 -0.11055E+05
 0.56753002E+02 -0.11966E+05
 0.56803001E+02 -0.11232E+05
 0.56853001E+02 -0.11261E+05
 0.56903004E+02 -0.11107E+05
 0.56953003E+02 -0.99486E+04
 0.57003002E+02 -0.10376E+05
 0.57053001E+02 -0.10525E+05
 0.57103001E+02 -0.11153E+05
 0.57153004E+02 -0.11446E+05
 0.57203003E+02 -0.10526E+05
 0.57253002E+02 -0.10837E+05
 0.57303001E+02 -0.11022E+05
 0.57353001E+02 -0.11315E+05
 0.57403004E+02 -0.10160E+05
 0.57453003E+02 -0.84551E+04
 0.57503002E+02 -0.75162E+04
 0.57553001E+02 -0.93582E+04
 0.57603001E+02 -0.11163E+05
 0.57653004E+02 -0.10965E+05
 0.57703003E+02 -0.10223E+05
 0.57753002E+02 -0.10124E+05
 0.57803001E+02 -0.11005E+05
 0.57853001E+02 -0.11311E+05
 0.57903004E+02 -0.10908E+05
 0.57953003E+02 -0.94983E+04
 0.58003002E+02 -0.10302E+05
 0.58053001E+02 -0.11912E+05
 0.58103001E+02 -0.12558E+05
 0.58153004E+02 -0.11931E+05
 0.58203003E+02 -0.10184E+05
 0.58253002E+02 -0.93609E+04
 0.58303001E+02 -0.97315E+04
 0.58353001E+02 -0.98699E+04
 0.58403004E+02 -0.11316E+05
 0.58453003E+02 -0.12287E+05
 0.58503002E+02 -0.12710E+05
 0.58553001E+02 -0.12456E+05
 0.58603001E+02 -0.11517E+05
 0.58653004E+02 -0.11265E+05
 0.58703003E+02 -0.10260E+05
 0.58753002E+02 -0.96376E+04
 0.58803001E+02 -0.88500E+04
 0.58853001E+02 -0.91691E+04
 0.58903004E+02 -0.97420E+04
 0.58953003E+02 -0.10712E+05
 0.59003002E+02 -0.10491E+05
 0.59053001E+02 -0.10297E+05
 0.59103001E+02 -0.11501E+05
 0.59153004E+02 -0.11505E+05
 0.59203003E+02 -0.12187E+05
 0.59253002E+02 -0.12445E+05
 0.59303001E+02 -0.11540E+05
 0.59353001E+02 -0.10919E+05
 0.59403004E+02 -0.11785E+05
 0.59453003E+02 -0.12405E+05
 0.59503002E+02 -0.11676E+05
 0.59553001E+02 -0.10345E+05
 0.59603001E+02 -0.95412E+04
 0.59653004E+02 -0.10249E+05
 0.59703003E+02 -0.10231E+05
 0.59753002E+02 -0.97130E+04
 0.59803001E+02 -0.10047E+05
 0.59853001E+02 -0.10643E+05
 0.59903004E+02 -0.11006E+05
 0.59953003E+02 -0.11018E+05
 0.60003002E+02 -0.11278E+05
 0.60053001E+02 -0.12118E+05
 0.60103001E+02 -0.12166E+05
 0.60153004E+02 -0.12076E+05
 0.60203003E+02 -0.11942E+05
 0.60253002E+02 -0.99168E+04
 0.60303001E+02 -0.76344E+04
 0.60353001E+02 -0.76114E+04
 0.60403004E+02 -0.95122E+04
 0.60453003E+02 -0.10088E+05
 0.60503002E+02 -0.95858E+04
 0.60553001E+02 -0.10096E+05
 0.60603001E+02 -0.10953E+05
 0.60653004E+02 -0.10392E+05
 0.60703003E+02 -0.10415E+05
 0.60753002E+02 -0.12231E+05
 0.60803001E+02 -0.12499E+05
 0.60853001E+02 -0.12080E+05
 0.60903004E+02 -0.10583E+05
 0.60953003E+02 -0.98020E+04
 0.61003002E+02 -0.10166E+05
 0.61053001E+02 -0.98991E+04
 0.61103001E+02 -0.10595E+05
 0.61153004E+02 -0.11336E+05
 0.61203003E+02 -0.12075E+05
 0.61253002E+02 -0.11580E+05
 0.61303001E+02 -0.10147E+05
 0.61353001E+02 -0.10170E+05
 0.61403004E+02 -0.10762E+05
 0.61453003E+02 -0.10858E+05
 0.61503002E+02 -0.12359E+05
 0.61553001E+02 -0.13158E+05
 0.61603001E+02 -0.11091E+05
 0.61653004E+02 -0.97396E+04
 0.61703003E+02 -0.98624E+04
 0.61753002E+02 -0.11456E+05
 0.61803001E+02 -0.12656E+05
 0.61853001E+02 -0.10816E+05
 0.61903004E+02 -0.78505E+04
 0.61953003E+02 -0.71427E+04
 0.62003002E+02 -0.87990E+04
 0.62053001E+02 -0.11806E+05
 0.62103004E+02 -0.14316E+05
 0.62153000E+02 -0.14756E+05
 0.62203003E+02 -0.12878E+05
 0.62252998E+02 -0.10108E+05
 0.62303001E+02 -0.93447E+04
 0.62353004E+02 -0.98460E+04
 0.62403000E+02 -0.10510E+05
 0.62453003E+02 -0.10351E+05
 0.62502998E+02 -0.10584E+05
 0.62553001E+02 -0.10888E+05
 0.62603004E+02 -0.11160E+05
 0.62653000E+02 -0.10753E+05
 0.62703003E+02 -0.10282E+05
 0.62752998E+02 -0.11660E+05
 0.62803001E+02 -0.12468E+05
 0.62853004E+02 -0.11311E+05
 0.62903000E+02 -0.10224E+05
 0.62953003E+02 -0.10543E+05
 0.63002998E+02 -0.10614E+05
 0.63053001E+02 -0.10907E+05
 0.63103004E+02 -0.10642E+05
 0.63153000E+02 -0.10438E+05
 0.63203003E+02 -0.95655E+04
 0.63252998E+02 -0.89079E+04
 0.63303001E+02 -0.10141E+05
 0.63353004E+02 -0.11563E+05
 0.63403000E+02 -0.10917E+05
 0.63453003E+02 -0.94055E+04
 0.63502998E+02 -0.90958E+04
 0.63553001E+02 -0.96434E+04
 0.63603004E+02 -0.10863E+05
 0.63653000E+02 -0.11028E+05
 0.63703003E+02 -0.12054E+05
 0.63752998E+02 -0.12777E+05
 0.63803001E+02 -0.11486E+05
 0.63853004E+02 -0.96075E+04
 0.63903000E+02 -0.87810E+04
 0.63953003E+02 -0.94172E+04
 0.64002998E+02 -0.10591E+05
 0.64053001E+02 -0.11593E+05
 0.64103004E+02 -0.11673E+05
 0.64153000E+02 -0.11171E+05
 0.64203003E+02 -0.10051E+05
 0.64252998E+02 -0.92710E+04
 0.64303001E+02 -0.96392E+04
 0.64353004E+02 -0.11062E+05
 0.64403000E+02 -0.12531E+05
 0.64453003E+02 -0.12902E+05
 0.64502998E+02 -0.11643E+05
 0.64553001E+02 -0.10532E+05
 0.64603004E+02 -0.10913E+05
 0.64653000E+02 -0.12494E+05
 0.64703003E+02 -0.13585E+05
 0.64752998E+02 -0.11732E+05
 0.64803001E+02 -0.84933E+04
 0.64853004E+02 -0.77750E+04
 0.64903000E+02 -0.90567E+04
 0.64953003E+02 -0.98019E+04
 0.65002998E+02 -0.97982E+04
 0.65053001E+02 -0.10389E+05
 0.65103004E+02 -0.11410E+05
 0.65153000E+02 -0.12166E+05
 0.65203003E+02 -0.12254E+05
 0.65252998E+02 -0.11351E+05
 0.65303001E+02 -0.11012E+05
 0.65353004E+02 -0.10108E+05
 0.65403000E+02 -0.88968E+04
 0.65453003E+02 -0.79847E+04
 0.65502998E+02 -0.79059E+04
 0.65553001E+02 -0.91789E+04
 0.65603004E+02 -0.10885E+05
 0.65653000E+02 -0.12041E+05
 0.65703003E+02 -0.11977E+05
 0.65752998E+02 -0.11285E+05
 0.65803001E+02 -0.10307E+05
 0.65853004E+02 -0.88109E+04
 0.65903000E+02 -0.80917E+04
 0.65953003E+02 -0.95074E+04
 0.66002998E+02 -0.11832E+05
 0.66053001E+02 -0.13562E+05
 0.66103004E+02 -0.13599E+05
 0.66153000E+02 -0.12335E+05
 0.66203003E+02 -0.10531E+05
 0.66252998E+02 -0.98493E+04
 0.66303001E+02 -0.10206E+05
 0.66353004E+02 -0.10752E+05
 0.66403000E+02 -0.12455E+05
 0.66453003E+02 -0.12579E+05
 0.66502998E+02 -0.11131E+05
 0.66553001E+02 -0.10797E+05
 0.66603004E+02 -0.10365E+05
 0.66653000E+02 -0.10438E+05
 0.66703003E+02 -0.10909E+05
 0.66752998E+02 -0.10329E+05
 0.66803001E+02 -0.92037E+04
 0.66853004E+02 -0.83532E+04
 0.66903000E+02 -0.90225E+04
 0.66953003E+02 -0.10100E+05
 0.67002998E+02 -0.10726E+05
 0.67053001E+02 -0.11031E+05
 0.67103004E+02 -0.11914E+05
 0.67153000E+02 -0.12243E+05
 0.67203003E+02 -0.11074E+05
 0.67252998E+02 -0.10072E+05
 0.67303001E+02 -0.10007E+05
 0.67353004E+02 -0.11389E+05
 0.67403000E+02 -0.11720E+05
 0.67453003E+02 -0.11785E+05
 0.67502998E+02 -0.12275E+05
 0.67553001E+02 -0.12568E+05
 0.67603004E+02 -0.13138E+05
 0.67653000E+02 -0.12020E+05
 0.67703003E+02 -0.99091E+04
 0.67752998E+02 -0.85640E+04
 0.67803001E+02 -0.86847E+04
 0.67853004E+02 -0.10478E+05
 0.67903000E+02 -0.12607E+05
 0.67953003E+02 -0.13002E+05
 0.68002998E+02 -0.12117E+05
 0.68053001E+02 -0.11943E+05
 0.68103004E+02 -0.11468E+05
 0.68153000E+02 -0.11307E+05
 0.68203003E+02 -0.12365E+05
 0.68252998E+02 -0.12396E+05
 0.68303001E+02 -0.11390E+05
 0.68353004E+02 -0.10028E+05
 0.68403000E+02 -0.89488E+04
 0.68453003E+02 -0.89065E+04
 0.68502998E+02 -0.92876E+04
 0.68553001E+02 -0.87980E+04
 0.68603004E+02 -0.97146E+04
 0.68653000E+02 -0.11681E+05
 0.68703003E+02 -0.13138E+05
 0.68752998E+02 -0.14157E+05
 0.68803001E+02 -0.13879E+05
 0.68853004E+02 -0.12462E+05
 0.68903000E+02 -0.97838E+04
 0.68953003E+02 -0.80407E+04
 0.69002998E+02 -0.86914E+04
 0.69053001E+02 -0.10858E+05
 0.69103004E+02 -0.11894E+05
 0.69153000E+02 -0.11613E+05
 0.69203003E+02 -0.10452E+05
 0.69252998E+02 -0.88770E+04
 0.69303001E+02 -0.82635E+04
 0.69353004E+02 -0.82927E+04
 0.69403000E+02 -0.85181E+04
 0.69453003E+02 -0.91952E+04
 0.69502998E+02 -0.10268E+05
 0.69553001E+02 -0.11094E+05
 0.69603004E+02 -0.10696E+05
 0.69653000E+02 -0.92360E+04
 0.69703003E+02 -0.83118E+04
 0.69752998E+02 -0.84895E+04
 0.69803001E+02 -0.98344E+04
 0.69853004E+02 -0.11063E+05
 0.69903000E+02 -0.11924E+05
 0.69953003E+02 -0.11763E+05
 0.70002998E+02 -0.10737E+05
 0.70053001E+02 -0.10385E+05
 0.70103004E+02 -0.10122E+05
 0.70153000E+02 -0.10008E+05
 0.70203003E+02 -0.99883E+04
 0.70252998E+02 -0.11566E+05
 0.70303001E+02 -0.14337E+05
 0.70353004E+02 -0.15599E+05
 0.70403000E+02 -0.14773E+05
 0.70453003E+02 -0.12854E+05
 0.70502998E+02 -0.11051E+05
 0.70553001E+02 -0.10350E+05
 0.70603004E+02 -0.10704E+05
 0.70653000E+02 -0.11518E+05
 0.70703003E+02 -0.13002E+05
 0.70752998E+02 -0.13032E+05
 0.70803001E+02 -0.11054E+05
 0.70853004E+02 -0.85215E+04
 0.70903000E+02 -0.70814E+04
 0.70953003E+02 -0.79525E+04
 0.71002998E+02 -0.99829E+04
 0.71053001E+02 -0.11964E+05
 0.71103004E+02 -0.12654E+05
 0.71153000E+02 -0.12300E+05
 0.71203003E+02 -0.12094E+05
 0.71252998E+02 -0.11498E+05
 0.71303001E+02 -0.10833E+05
 0.71353004E+02 -0.10190E+05
 0.71403000E+02 -0.95565E+04
 0.71453003E+02 -0.94091E+04
 0.71502998E+02 -0.95065E+04
 0.71553001E+02 -0.93152E+04
 0.71603004E+02 -0.88914E+04
 0.71653000E+02 -0.92739E+04
 0.71703003E+02 -0.10331E+05
 0.71752998E+02 -0.10905E+05
 0.71803001E+02 -0.11298E+05
 0.71853004E+02 -0.11551E+05
 0.71903000E+02 -0.11552E+05
 0.71953003E+02 -0.11683E+05
 0.72002998E+02 -0.11434E+05
 0.72053001E+02 -0.11959E+05
 0.72103004E+02 -0.12541E+05
 0.72153000E+02 -0.11902E+05
 0.72203003E+02 -0.10646E+05
 0.72252998E+02 -0.96443E+04
 0.72303001E+02 -0.97303E+04
 0.72353004E+02 -0.97213E+04
 0.72403000E+02 -0.95325E+04
 0.72453003E+02 -0.96415E+04
 0.72502998E+02 -0.94479E+04
 0.72553001E+02 -0.93898E+04
 0.72603004E+02 -0.10025E+05
 0.72653000E+02 -0.10866E+05
 0.72703003E+02 -0.11848E+05
 0.72752998E+02 -0.12994E+05
 0.72803001E+02 -0.13673E+05
 0.72853004E+02 -0.13170E+05
 0.72903000E+02 -0.11442E+05
 0.72953003E+02 -0.99139E+04
 0.73002998E+02 -0.94852E+04
 0.73053001E+02 -0.97209E+04
 0.73103004E+02 -0.10235E+05
 0.73153000E+02 -0.10796E+05
 0.73203003E+02 -0.10954E+05
 0.73252998E+02 -0.99929E+04
 0.73303001E+02 -0.86745E+04
 0.73353004E+02 -0.81457E+04
 0.73403000E+02 -0.83011E+04
 0.73453003E+02 -0.87908E+04
 0.73502998E+02 -0.92702E+04
 0.73553001E+02 -0.99159E+04
 0.73603004E+02 -0.10621E+05
 0.73653000E+02 -0.11415E+05
 0.73703003E+02 -0.11953E+05
 0.73752998E+02 -0.12048E+05
 0.73803001E+02 -0.11671E+05
 0.73853004E+02 -0.10283E+05
 0.73903000E+02 -0.94203E+04
 0.73953003E+02 -0.92570E+04
 0.74002998E+02 -0.95039E+04
 0.74053001E+02 -0.10189E+05
 0.74103004E+02 -0.11312E+05
 0.74153000E+02 -0.12291E+05
 0.74203003E+02 -0.12292E+05
 0.74252998E+02 -0.11769E+05
 0.74303001E+02 -0.11102E+05
 0.74353004E+02 -0.10421E+05
 0.74403000E+02 -0.94023E+04
 0.74453003E+02 -0.84050E+04
 0.74502998E+02 -0.79556E+04
 0.74553001E+02 -0.87023E+04
 0.74603004E+02 -0.10420E+05
 0.74653000E+02 -0.11798E+05
 0.74703003E+02 -0.12369E+05
 0.74752998E+02 -0.12154E+05
 0.74803001E+02 -0.11126E+05
 0.74853004E+02 -0.96177E+04
 0.74903000E+02 -0.83350E+04
 0.74953003E+02 -0.84320E+04
 0.75002998E+02 -0.93510E+04
 0.75053001E+02 -0.10418E+05
 0.75103004E+02 -0.10964E+05
 0.75153000E+02 -0.11651E+05
 0.75203003E+02 -0.12816E+05
 0.75252998E+02 -0.12986E+05
 0.75303001E+02 -0.12590E+05
 0.75353004E+02 -0.11860E+05
 0.75403000E+02 -0.10631E+05
 0.75453003E+02 -0.94335E+04
 0.75502998E+02 -0.94163E+04
 0.75553001E+02 -0.10020E+05
 0.75603004E+02 -0.10794E+05
 0.75653000E+02 -0.11201E+05
 0.75703003E+02 -0.10696E+05
 0.75752998E+02 -0.10177E+05
 0.75803001E+02 -0.99751E+04
 0.75853004E+02 -0.99559E+04
 0.75903000E+02 -0.10552E+05
 0.75953003E+02 -0.12040E+05
 0.76002998E+02 -0.13001E+05
 0.76053001E+02 -0.12599E+05
 0.76103004E+02 -0.11221E+05
 0.76153000E+02 -0.10137E+05
 0.76203003E+02 -0.96995E+04
 0.76252998E+02 -0.97240E+04
 0.76303001E+02 -0.95589E+04
 0.76353004E+02 -0.96536E+04
 0.76403000E+02 -0.10009E+05
 0.76453003E+02 -0.10337E+05
 0.76502998E+02 -0.11371E+05
 0.76553001E+02 -0.12143E+05
 0.76603004E+02 -0.12206E+05
 0.76653000E+02 -0.11856E+05
 0.76703003E+02 -0.11356E+05
 0.76752998E+02 -0.10586E+05
 0.76803001E+02 -0.97606E+04
 0.76853004E+02 -0.96724E+04
 0.76903000E+02 -0.10351E+05
 0.76953003E+02 -0.11068E+05
 0.77002998E+02 -0.11176E+05
 0.77053001E+02 -0.10466E+05
 0.77103004E+02 -0.98118E+04
 0.77153000E+02 -0.95406E+04
 0.77203003E+02 -0.96466E+04
 0.77252998E+02 -0.10438E+05
 0.77303001E+02 -0.11821E+05
 0.77353004E+02 -0.12592E+05
 0.77403000E+02 -0.12355E+05
 0.77453003E+02 -0.11981E+05
 0.77502998E+02 -0.11457E+05
 0.77553001E+02 -0.11346E+05
 0.77603004E+02 -0.11834E+05
 0.77653000E+02 -0.12018E+05
 0.77703003E+02 -0.11559E+05
 0.77752998E+02 -0.11137E+05
 0.77803001E+02 -0.10526E+05
 0.77853004E+02 -0.98350E+04
 0.77903000E+02 -0.96589E+04
 0.77953003E+02 -0.98355E+04
 0.78002998E+02 -0.10395E+05
 0.78053001E+02 -0.10796E+05
 0.78103004E+02 -0.11051E+05
 0.78153000E+02 -0.11265E+05
 0.78203003E+02 -0.11341E+05
 0.78252998E+02 -0.11696E+05
 0.78303001E+02 -0.12372E+05
 0.78353004E+02 -0.13136E+05
 0.78403000E+02 -0.13108E+05
 0.78453003E+02 -0.12111E+05
 0.78502998E+02 -0.10667E+05
 0.78553001E+02 -0.97798E+04
 0.78603004E+02 -0.96369E+04
 0.78653000E+02 -0.99074E+04
 0.78703003E+02 -0.10226E+05
 0.78752998E+02 -0.98643E+04
 0.78803001E+02 -0.94862E+04
 0.78853004E+02 -0.93180E+04
 0.78903000E+02 -0.98725E+04
 0.78953003E+02 -0.10318E+05
 0.79002998E+02 -0.10481E+05
 0.79053001E+02 -0.10832E+05
 0.79103004E+02 -0.11294E+05
 0.79153000E+02 -0.11778E+05
 0.79203003E+02 -0.11802E+05
 0.79252998E+02 -0.11674E+05
 0.79303001E+02 -0.11489E+05
 0.79353004E+02 -0.11402E+05
 0.79403000E+02 -0.11047E+05
 0.79453003E+02 -0.10866E+05
 0.79502998E+02 -0.11192E+05
 0.79553001E+02 -0.11235E+05
 0.79603004E+02 -0.10685E+05
 0.79653000E+02 -0.10150E+05
 0.79703003E+02 -0.96158E+04
 0.79752998E+02 -0.95233E+04
 0.79803001E+02 -0.97423E+04
 0.79853004E+02 -0.95710E+04
 0.79903000E+02 -0.99335E+04
 0.79953003E+02 -0.11062E+05
 0.80002998E+02 -0.12388E+05
 0.80053001E+02 -0.13565E+05
 0.80103004E+02 -0.13853E+05
 0.80153000E+02 -0.13042E+05
 0.80203003E+02 -0.11872E+05
 0.80252998E+02 -0.11027E+05
 0.80303001E+02 -0.10672E+05
 0.80353004E+02 -0.10547E+05
 0.80403000E+02 -0.10835E+05
 0.80453003E+02 -0.11225E+05
 0.80502998E+02 -0.11655E+05
 0.80553001E+02 -0.11478E+05
 0.80603004E+02 -0.10543E+05
 0.80653000E+02 -0.10024E+05
 0.80703003E+02 -0.10325E+05
 0.80752998E+02 -0.11040E+05
 0.80803001E+02 -0.11513E+05
 0.80853004E+02 -0.11688E+05
 0.80903000E+02 -0.11488E+05
 0.80953003E+02 -0.10901E+05
 0.81002998E+02 -0.10380E+05
 0.81053001E+02 -0.10194E+05
 0.81103004E+02 -0.10207E+05
 0.81153000E+02 -0.10030E+05
 0.81203003E+02 -0.96636E+04
 0.81252998E+02 -0.94644E+04
 0.81303001E+02 -0.10137E+05
 0.81353004E+02 -0.11509E+05
 0.81403000E+02 -0.12061E+05
 0.81453003E+02 -0.11977E+05
 0.81502998E+02 -0.11552E+05
 0.81553001E+02 -0.10763E+05
 0.81603004E+02 -0.10198E+05
 0.81653000E+02 -0.10264E+05
 0.81703003E+02 -0.10787E+05
 0.81752998E+02 -0.11054E+05
 0.81803001E+02 -0.11126E+05
 0.81853004E+02 -0.11244E+05
 0.81903000E+02 -0.11711E+05
 0.81953003E+02 -0.12125E+05
 0.82002998E+02 -0.12292E+05
 0.82053001E+02 -0.12577E+05
 0.82103004E+02 -0.12373E+05
 0.82153000E+02 -0.11662E+05
 0.82203003E+02 -0.10598E+05
 0.82252998E+02 -0.95279E+04
 0.82303001E+02 -0.89255E+04
 0.82353004E+02 -0.90786E+04
 0.82403000E+02 -0.95928E+04
 0.82453003E+02 -0.97500E+04
 0.82502998E+02 -0.93178E+04
 0.82553001E+02 -0.88798E+04
 0.82603004E+02 -0.88069E+04
 0.82653000E+02 -0.90195E+04
 0.82703003E+02 -0.93965E+04
 0.82752998E+02 -0.97611E+04
 0.82803001E+02 -0.10248E+05
 0.82853004E+02 -0.10775E+05
 0.82903000E+02 -0.10799E+05
 0.82953003E+02 -0.10086E+05
 0.83002998E+02 -0.95307E+04
 0.83053001E+02 -0.10054E+05
 0.83103004E+02 -0.11273E+05
 0.83153000E+02 -0.12151E+05
 0.83203003E+02 -0.12432E+05
 0.83252998E+02 -0.11790E+05
 0.83303001E+02 -0.10701E+05
 0.83353004E+02 -0.95834E+04
 0.83403000E+02 -0.88624E+04
 0.83453003E+02 -0.86953E+04
 0.83502998E+02 -0.91426E+04
 0.83553001E+02 -0.98542E+04
 0.83603004E+02 -0.10280E+05
 0.83653000E+02 -0.10808E+05
 0.83703003E+02 -0.11488E+05
 0.83752998E+02 -0.11991E+05
 0.83803001E+02 -0.11976E+05
 0.83853004E+02 -0.11586E+05
 0.83903000E+02 -0.10950E+05
 0.83953003E+02 -0.10719E+05
 0.84002998E+02 -0.10684E+05
 0.84053001E+02 -0.10167E+05
 0.84103004E+02 -0.93444E+04
 0.84153000E+02 -0.86366E+04
 0.84203003E+02 -0.86117E+04
 0.84252998E+02 -0.92614E+04
 0.84303001E+02 -0.10453E+05
 0.84353004E+02 -0.11477E+05
 0.84403000E+02 -0.12216E+05
 0.84453003E+02 -0.12347E+05
 0.84502998E+02 -0.11516E+05
 0.84553001E+02 -0.10828E+05
 0.84603004E+02 -0.10489E+05
 0.84653000E+02 -0.10500E+05
 0.84703003E+02 -0.10821E+05
 0.84752998E+02 -0.11233E+05
 0.84803001E+02 -0.11631E+05
 0.84853004E+02 -0.11458E+05
 0.84903000E+02 -0.10934E+05
 0.84953003E+02 -0.10827E+05
 0.85002998E+02 -0.11088E+05
 0.85053001E+02 -0.11417E+05
 0.85103004E+02 -0.11540E+05
 0.85153000E+02 -0.11274E+05
 0.85203003E+02 -0.10807E+05
 0.85252998E+02 -0.10729E+05
 0.85303001E+02 -0.10583E+05
 0.85353004E+02 -0.10242E+05
 0.85403000E+02 -0.98852E+04
 0.85453003E+02 -0.93299E+04
 0.85502998E+02 -0.91385E+04
 0.85553001E+02 -0.97370E+04
 0.85603004E+02 -0.10789E+05
 0.85653000E+02 -0.11800E+05
 0.85703003E+02 -0.12563E+05
 0.85752998E+02 -0.12477E+05
 0.85803001E+02 -0.12010E+05
 0.85853004E+02 -0.11428E+05
 0.85903000E+02 -0.10908E+05
 0.85953003E+02 -0.10940E+05
 0.86002998E+02 -0.11240E+05
 0.86053001E+02 -0.11353E+05
 0.86103004E+02 -0.11154E+05
 0.86153000E+02 -0.10788E+05
 0.86203003E+02 -0.10484E+05
 0.86252998E+02 -0.10460E+05
 0.86303001E+02 -0.10330E+05
 0.86353004E+02 -0.10412E+05
 0.86403000E+02 -0.10860E+05
 0.86453003E+02 -0.11042E+05
 0.86502998E+02 -0.10736E+05
 0.86553001E+02 -0.10057E+05
 0.86603004E+02 -0.95843E+04
 0.86653000E+02 -0.95004E+04
 0.86703003E+02 -0.97550E+04
 0.86752998E+02 -0.97630E+04
 0.86803001E+02 -0.96163E+04
 0.86853004E+02 -0.98459E+04
 0.86903000E+02 -0.10354E+05
 0.86953003E+02 -0.10890E+05
 0.87002998E+02 -0.11365E+05
 0.87053001E+02 -0.11615E+05
 0.87103004E+02 -0.11166E+05
 0.87153000E+02 -0.10387E+05
 0.87203003E+02 -0.98610E+04
 0.87252998E+02 -0.98488E+04
 0.87303001E+02 -0.10084E+05
 0.87353004E+02 -0.10305E+05
 0.87403000E+02 -0.10531E+05
 0.87453003E+02 -0.10937E+05
 0.87502998E+02 -0.11264E+05
 0.87553001E+02 -0.11340E+05
 0.87602997E+02 -0.11229E+05
 0.87653000E+02 -0.10912E+05
 0.87703003E+02 -0.10718E+05
 0.87752998E+02 -0.10640E+05
 0.87803001E+02 -0.10877E+05
 0.87852997E+02 -0.11449E+05
 0.87903000E+02 -0.11995E+05
 0.87953003E+02 -0.12004E+05
 0.88002998E+02 -0.11405E+05
 0.88053001E+02 -0.10988E+05
 0.88102997E+02 -0.10703E+05
 0.88153000E+02 -0.10270E+05
 0.88203003E+02 -0.96448E+04
 0.88252998E+02 -0.92024E+04
 0.88303001E+02 -0.92147E+04
 0.88352997E+02 -0.93028E+04
 0.88403000E+02 -0.95809E+04
 0.88453003E+02 -0.10354E+05
 0.88502998E+02 -0.11394E+05
 0.88553001E+02 -0.12367E+05
 0.88602997E+02 -0.12826E+05
 0.88653000E+02 -0.12412E+05
 0.88703003E+02 -0.11493E+05
 0.88752998E+02 -0.10452E+05
 0.88803001E+02 -0.96325E+04
 0.88852997E+02 -0.94337E+04
 0.88903000E+02 -0.99297E+04
 0.88953003E+02 -0.10240E+05
 0.89002998E+02 -0.10034E+05
 0.89053001E+02 -0.98867E+04
 0.89102997E+02 -0.95567E+04
 0.89153000E+02 -0.93770E+04
 0.89203003E+02 -0.96812E+04
 0.89252998E+02 -0.10405E+05
 0.89303001E+02 -0.11239E+05
 0.89352997E+02 -0.11800E+05
 0.89403000E+02 -0.12139E+05
 0.89453003E+02 -0.12118E+05
 0.89502998E+02 -0.11729E+05
 0.89553001E+02 -0.11207E+05
 0.89602997E+02 -0.10799E+05
 0.89653000E+02 -0.10462E+05
 0.89703003E+02 -0.10346E+05
 0.89752998E+02 -0.10686E+05
 0.89803001E+02 -0.10987E+05
 0.89852997E+02 -0.10899E+05
 0.89903000E+02 -0.10453E+05
 0.89953003E+02 -0.99398E+04
 0.90002998E+02 -0.99491E+04
 0.90053001E+02 -0.10260E+05
 0.90102997E+02 -0.10449E+05
 0.90153000E+02 -0.10586E+05
 0.90203003E+02 -0.10912E+05
 0.90252998E+02 -0.11185E+05
 0.90303001E+02 -0.11161E+05
 0.90352997E+02 -0.11093E+05
 0.90403000E+02 -0.11079E+05
 0.90453003E+02 -0.10816E+05
 0.90502998E+02 -0.10451E+05
 0.90553001E+02 -0.10611E+05
 0.90602997E+02 -0.11084E+05
 0.90653000E+02 -0.11573E+05
 0.90703003E+02 -0.11677E+05
 0.90752998E+02 -0.11434E+05
 0.90803001E+02 -0.11245E+05
 0.90852997E+02 -0.10838E+05
 0.90903000E+02 -0.10553E+05
 0.90953003E+02 -0.10521E+05
 0.91002998E+02 -0.10768E+05
 0.91053001E+02 -0.10990E+05
 0.91102997E+02 -0.10899E+05
 0.91153000E+02 -0.10877E+05
 0.91203003E+02 -0.10832E+05
 0.91252998E+02 -0.10868E+05
 0.91303001E+02 -0.10837E+05
 0.91352997E+02 -0.10896E+05
 0.91403000E+02 -0.11292E+05
 0.91453003E+02 -0.11490E+05
 0.91502998E+02 -0.11389E+05
 0.91553001E+02 -0.11264E+05
 0.91602997E+02 -0.10945E+05
 0.91653000E+02 -0.10709E+05
 0.91703003E+02 -0.10711E+05
 0.91752998E+02 -0.10488E+05
 0.91803001E+02 -0.10416E+05
 0.91852997E+02 -0.10035E+05
 0.91903000E+02 -0.97455E+04
 0.91953003E+02 -0.96927E+04
 0.92002998E+02 -0.95859E+04
 0.92053001E+02 -0.10004E+05
 0.92102997E+02 -0.10234E+05
 0.92153000E+02 -0.10528E+05
 0.92203003E+02 -0.10543E+05
 0.92252998E+02 -0.10633E+05
 0.92303001E+02 -0.10814E+05
 0.92352997E+02 -0.10413E+05
 0.92403000E+02 -0.10126E+05
 0.92453003E+02 -0.10373E+05
 0.92502998E+02 -0.10955E+05
 0.92553001E+02 -0.11532E+05
 0.92602997E+02 -0.12247E+05
 0.92653000E+02 -0.12340E+05
 0.92703003E+02 -0.11984E+05
 0.92752998E+02 -0.11261E+05
 0.92803001E+02 -0.10239E+05
 0.92852997E+02 -0.95363E+04
 0.92903000E+02 -0.92684E+04
 0.92953003E+02 -0.95303E+04
 0.93002998E+02 -0.10201E+05
 0.93053001E+02 -0.11007E+05
 0.93102997E+02 -0.11674E+05
 0.93153000E+02 -0.12159E+05
 0.93203003E+02 -0.12424E+05
 0.93252998E+02 -0.12357E+05
 0.93303001E+02 -0.11965E+05
 0.93352997E+02 -0.11397E+05
 0.93403000E+02 -0.11098E+05
 0.93453003E+02 -0.11061E+05
 0.93502998E+02 -0.10953E+05
 0.93553001E+02 -0.10721E+05
 0.93602997E+02 -0.10560E+05
 0.93653000E+02 -0.10303E+05
 0.93703003E+02 -0.10187E+05
 0.93752998E+02 -0.10263E+05
 0.93803001E+02 -0.10124E+05
 0.93852997E+02 -0.10246E+05
 0.93903000E+02 -0.10412E+05
 0.93953003E+02 -0.10606E+05
 0.94002998E+02 -0.10732E+05
 0.94053001E+02 -0.10753E+05
 0.94102997E+02 -0.10534E+05
 0.94153000E+02 -0.10513E+05
 0.94203003E+02 -0.10734E+05
 0.94252998E+02 -0.10986E+05
 0.94303001E+02 -0.11277E+05
 0.94352997E+02 -0.11433E+05
 0.94403000E+02 -0.11665E+05
 0.94453003E+02 -0.11290E+05
 0.94502998E+02 -0.11105E+05
 0.94553001E+02 -0.11112E+05
 0.94602997E+02 -0.11005E+05
 0.94653000E+02 -0.11226E+05
 0.94703003E+02 -0.11241E+05
 0.94752998E+02 -0.10963E+05
 0.94803001E+02 -0.10691E+05
 0.94852997E+02 -0.10361E+05
 0.94903000E+02 -0.10129E+05
 0.94953003E+02 -0.10008E+05
 0.95002998E+02 -0.10061E+05
 0.95053001E+02 -0.10340E+05
 0.95102997E+02 -0.10775E+05
 0.95153000E+02 -0.11247E+05
 0.95203003E+02 -0.11448E+05
 0.95252998E+02 -0.11105E+05
 0.95303001E+02 -0.10909E+05
 0.95352997E+02 -0.10573E+05
 0.95403000E+02 -0.10036E+05
 0.95453003E+02 -0.98619E+04
 0.95502998E+02 -0.98672E+04
 0.95553001E+02 -0.10041E+05
 0.95602997E+02 -0.10357E+05
 0.95653000E+02 -0.10798E+05
 0.95703003E+02 -0.11079E+05
 0.95752998E+02 -0.11318E+05
 0.95803001E+02 -0.11257E+05
 0.95852997E+02 -0.11109E+05
 0.95903000E+02 -0.11384E+05
 0.95953003E+02 -0.11297E+05
 0.96002998E+02 -0.11168E+05
 0.96053001E+02 -0.10864E+05
 0.96102997E+02 -0.10678E+05
 0.96153000E+02 -0.10818E+05
 0.96203003E+02 -0.10967E+05
 0.96252998E+02 -0.11013E+05
 0.96303001E+02 -0.10966E+05
 0.96352997E+02 -0.11095E+05
 0.96403000E+02 -0.10578E+05
 0.96453003E+02 -0.10744E+05
 0.96502998E+02 -0.10548E+05
 0.96553001E+02 -0.10486E+05
 0.96602997E+02 -0.10675E+05
 0.96653000E+02 -0.10663E+05
 0.96703003E+02 -0.11057E+05
 0.96752998E+02 -0.10831E+05
 0.96803001E+02 -0.10694E+05
 0.96852997E+02 -0.10515E+05
 0.96903000E+02 -0.10456E+05
 0.96953003E+02 -0.10708E+05
 0.97002998E+02 -0.10776E+05
 0.97053001E+02 -0.10844E+05
 0.97102997E+02 -0.10929E+05
 0.97153000E+02 -0.10792E+05
 0.97203003E+02 -0.10559E+05
 0.97252998E+02 -0.10406E+05
 0.97303001E+02 -0.10452E+05
 0.97352997E+02 -0.10678E+05
 0.97403000E+02 -0.10792E+05
 0.97453003E+02 -0.10772E+05
 0.97502998E+02 -0.10886E+05
 0.97553001E+02 -0.11016E+05
 0.97602997E+02 -0.10901E+05
 0.97653000E+02 -0.10427E+05
 0.97703003E+02 -0.99791E+04
 0.97752998E+02 -0.96963E+04
 0.97803001E+02 -0.95469E+04
 0.97852997E+02 -0.97789E+04
 0.97903000E+02 -0.10121E+05
 0.97953003E+02 -0.10627E+05
 0.98002998E+02 -0.11097E+05
