-0.20000000E+01 -0.44626E+05
-0.19500000E+01 -0.47425E+05
-0.19000000E+01 -0.49548E+05
-0.18500000E+01 -0.51594E+05
-0.18000000E+01 -0.53131E+05
-0.17500000E+01 -0.53826E+05
-0.17000000E+01 -0.53799E+05
-0.16500001E+01 -0.52988E+05
-0.16000000E+01 -0.51326E+05
-0.15500000E+01 -0.48779E+05
-0.15000000E+01 -0.45264E+05
-0.14500000E+01 -0.40689E+05
-0.14000001E+01 -0.35178E+05
-0.13500000E+01 -0.29199E+05
-0.13000001E+01 -0.23223E+05
-0.12500000E+01 -0.17565E+05
-0.12000000E+01 -0.12269E+05
-0.11500001E+01 -0.74370E+04
-0.11000000E+01 -0.31699E+04
-0.10500001E+01  0.51664E+03
-0.10000000E+01  0.37292E+04
-0.95000005E+00  0.66812E+04
-0.90000010E+00  0.92955E+04
-0.85000002E+00  0.11338E+05
-0.80000007E+00  0.12749E+05
-0.75000012E+00  0.13645E+05
-0.70000005E+00  0.14204E+05
-0.65000010E+00  0.14692E+05
-0.60000014E+00  0.15237E+05
-0.55000007E+00  0.15862E+05
-0.50000012E+00  0.16430E+05
-0.45000005E+00  0.17012E+05
-0.40000010E+00  0.17913E+05
-0.35000014E+00  0.19412E+05
-0.30000007E+00  0.21881E+05
-0.25000012E+00  0.25111E+05
-0.20000005E+00  0.28754E+05
-0.15000010E+00  0.32555E+05
-0.10000014E+00  0.36084E+05
-0.50000072E-01  0.38803E+05
-0.11920929E-06  0.40350E+05
 0.49999952E-01  0.40806E+05
 0.99999905E-01  0.40375E+05
 0.14999986E+00  0.39294E+05
 0.19999981E+00  0.37558E+05
 0.24999976E+00  0.35052E+05
 0.29999995E+00  0.31840E+05
 0.34999990E+00  0.27980E+05
 0.39999986E+00  0.23666E+05
 0.44999981E+00  0.19221E+05
 0.49999976E+00  0.14649E+05
 0.54999995E+00  0.10093E+05
 0.59999990E+00  0.60050E+04
 0.64999986E+00  0.25202E+04
 0.69999981E+00 -0.16260E+03
 0.74999976E+00 -0.15152E+04
 0.79999971E+00 -0.15131E+04
 0.84999990E+00 -0.51887E+03
 0.89999986E+00  0.10191E+04
 0.94999981E+00  0.27012E+04
 0.99999976E+00  0.43460E+04
 0.10499997E+01  0.57041E+04
 0.10999999E+01  0.66762E+04
 0.11499999E+01  0.72810E+04
 0.11999998E+01  0.77203E+04
 0.12499998E+01  0.78688E+04
 0.12999997E+01  0.75176E+04
 0.13499999E+01  0.65784E+04
 0.13999999E+01  0.49295E+04
 0.14499998E+01  0.23542E+04
 0.14999998E+01 -0.11347E+04
 0.15499997E+01 -0.54597E+04
 0.15999999E+01 -0.10480E+05
 0.16499999E+01 -0.15614E+05
 0.16999998E+01 -0.20584E+05
 0.17499998E+01 -0.25245E+05
 0.17999997E+01 -0.29698E+05
 0.18499997E+01 -0.33612E+05
 0.18999999E+01 -0.36928E+05
 0.19499998E+01 -0.39755E+05
 0.19999998E+01 -0.42004E+05
 0.20499997E+01 -0.43615E+05
 0.20999999E+01 -0.44570E+05
 0.21499996E+01 -0.44932E+05
 0.21999998E+01 -0.44567E+05
 0.22499995E+01 -0.43581E+05
 0.22999997E+01 -0.41922E+05
 0.23499999E+01 -0.39648E+05
 0.23999996E+01 -0.36855E+05
 0.24499998E+01 -0.33591E+05
 0.24999995E+01 -0.29842E+05
 0.25499997E+01 -0.25717E+05
 0.25999999E+01 -0.21308E+05
 0.26499996E+01 -0.16778E+05
 0.26999998E+01 -0.12409E+05
 0.27499995E+01 -0.83339E+04
 0.27999997E+01 -0.47486E+04
 0.28499999E+01 -0.17212E+04
 0.28999996E+01  0.52682E+03
 0.29499998E+01  0.21207E+04
 0.29999995E+01  0.33901E+04
 0.30499997E+01  0.45998E+04
 0.30999999E+01  0.57708E+04
 0.31499996E+01  0.68012E+04
 0.31999998E+01  0.74993E+04
 0.32499995E+01  0.77492E+04
 0.32999997E+01  0.76904E+04
 0.33499999E+01  0.74125E+04
 0.33999996E+01  0.70741E+04
 0.34499998E+01  0.64748E+04
 0.34999995E+01  0.56949E+04
 0.35499997E+01  0.48961E+04
 0.35999994E+01  0.41151E+04
 0.36499996E+01  0.35078E+04
 0.36999998E+01  0.32982E+04
 0.37499995E+01  0.35980E+04
 0.37999997E+01  0.44127E+04
 0.38499994E+01  0.56112E+04
 0.38999996E+01  0.70230E+04
 0.39499998E+01  0.86483E+04
 0.39999995E+01  0.10377E+05
 0.40499997E+01  0.12377E+05
 0.40999994E+01  0.14789E+05
 0.41499996E+01  0.17636E+05
 0.41999998E+01  0.20897E+05
 0.42499995E+01  0.24538E+05
 0.42999997E+01  0.28625E+05
 0.43499994E+01  0.33073E+05
 0.43999996E+01  0.37651E+05
 0.44499998E+01  0.42027E+05
 0.44999995E+01  0.45792E+05
 0.45499997E+01  0.48485E+05
 0.45999994E+01  0.49909E+05
 0.46499996E+01  0.49964E+05
 0.46999998E+01  0.48767E+05
 0.47499995E+01  0.46629E+05
 0.47999997E+01  0.43860E+05
 0.48499994E+01  0.40675E+05
 0.48999996E+01  0.37051E+05
 0.49499998E+01  0.33247E+05
 0.49999995E+01  0.29348E+05
 0.50499997E+01  0.25407E+05
 0.50999994E+01  0.21383E+05
 0.51499996E+01  0.17041E+05
 0.51999998E+01  0.12188E+05
 0.52499995E+01  0.68212E+04
 0.52999997E+01  0.12155E+04
 0.53499994E+01 -0.45068E+04
 0.53999996E+01 -0.10184E+05
 0.54499993E+01 -0.15805E+05
 0.54999995E+01 -0.21025E+05
 0.55499997E+01 -0.25710E+05
 0.55999994E+01 -0.29774E+05
 0.56499996E+01 -0.33232E+05
 0.56999993E+01 -0.36311E+05
 0.57499995E+01 -0.38898E+05
 0.57999997E+01 -0.41299E+05
 0.58499994E+01 -0.43581E+05
 0.58999996E+01 -0.46179E+05
 0.59499993E+01 -0.49221E+05
 0.59999995E+01 -0.52433E+05
 0.60499992E+01 -0.55473E+05
 0.60999994E+01 -0.58055E+05
 0.61499996E+01 -0.60131E+05
 0.61999998E+01 -0.61467E+05
 0.62499990E+01 -0.61968E+05
 0.62999992E+01 -0.61392E+05
 0.63499994E+01 -0.59779E+05
 0.63999996E+01 -0.57286E+05
 0.64499998E+01 -0.54131E+05
 0.64999990E+01 -0.50365E+05
 0.65499992E+01 -0.46190E+05
 0.65999994E+01 -0.41588E+05
 0.66499996E+01 -0.36556E+05
 0.66999998E+01 -0.31125E+05
 0.67499990E+01 -0.25299E+05
 0.67999992E+01 -0.19268E+05
 0.68499994E+01 -0.12985E+05
 0.68999996E+01 -0.66428E+04
 0.69499998E+01 -0.13377E+03
 0.69999990E+01  0.64316E+04
 0.70499992E+01  0.13084E+05
 0.70999994E+01  0.19755E+05
 0.71499996E+01  0.26271E+05
 0.71999998E+01  0.32537E+05
 0.72499990E+01  0.38222E+05
 0.72999992E+01  0.43205E+05
 0.73499994E+01  0.47249E+05
 0.73999996E+01  0.50528E+05
 0.74499998E+01  0.53032E+05
 0.74999990E+01  0.54775E+05
 0.75499992E+01  0.55793E+05
 0.75999994E+01  0.56290E+05
 0.76499996E+01  0.56524E+05
 0.76999998E+01  0.56586E+05
 0.77499990E+01  0.56481E+05
 0.77999992E+01  0.56102E+05
 0.78499994E+01  0.55328E+05
 0.78999996E+01  0.54017E+05
 0.79499998E+01  0.52144E+05
 0.79999990E+01  0.49380E+05
 0.80499992E+01  0.45609E+05
 0.80999994E+01  0.40898E+05
 0.81499996E+01  0.35573E+05
 0.81999998E+01  0.29848E+05
 0.82499990E+01  0.24035E+05
 0.82999992E+01  0.18477E+05
 0.83499994E+01  0.13149E+05
 0.83999996E+01  0.81239E+04
 0.84499998E+01  0.36323E+04
 0.84999990E+01 -0.32711E+03
 0.85499992E+01 -0.38514E+04
 0.85999994E+01 -0.67662E+04
 0.86499996E+01 -0.93515E+04
 0.86999998E+01 -0.11593E+05
 0.87499990E+01 -0.13318E+05
 0.87999992E+01 -0.14671E+05
 0.88499994E+01 -0.15823E+05
 0.88999996E+01 -0.17053E+05
 0.89499998E+01 -0.18227E+05
 0.89999990E+01 -0.19411E+05
 0.90499992E+01 -0.20648E+05
 0.90999994E+01 -0.21874E+05
 0.91499996E+01 -0.23121E+05
 0.91999989E+01 -0.24182E+05
 0.92499990E+01 -0.24747E+05
 0.92999992E+01 -0.24557E+05
 0.93499994E+01 -0.23647E+05
 0.93999996E+01 -0.22089E+05
 0.94499989E+01 -0.19847E+05
 0.94999990E+01 -0.17044E+05
 0.95499992E+01 -0.14020E+05
 0.95999994E+01 -0.10970E+05
 0.96499996E+01 -0.80605E+04
 0.96999989E+01 -0.55385E+04
 0.97499990E+01 -0.36589E+04
 0.97999992E+01 -0.22460E+04
 0.98499994E+01 -0.11383E+04
 0.98999996E+01 -0.69338E+03
 0.99499989E+01 -0.96628E+03
 0.99999990E+01 -0.20060E+04
 0.10049999E+02 -0.36610E+04
 0.10099999E+02 -0.58699E+04
 0.10150000E+02 -0.85484E+04
 0.10199999E+02 -0.11461E+05
 0.10249999E+02 -0.14395E+05
 0.10299999E+02 -0.16739E+05
 0.10349999E+02 -0.18448E+05
 0.10400000E+02 -0.19520E+05
 0.10449999E+02 -0.19785E+05
 0.10499999E+02 -0.19145E+05
 0.10549999E+02 -0.17671E+05
 0.10599999E+02 -0.15640E+05
 0.10650000E+02 -0.13292E+05
 0.10699999E+02 -0.10665E+05
 0.10749999E+02 -0.78737E+04
 0.10799999E+02 -0.52716E+04
 0.10849999E+02 -0.30337E+04
 0.10900000E+02 -0.12002E+04
 0.10949999E+02  0.42910E+03
 0.10999999E+02  0.18900E+04
 0.11049999E+02  0.32014E+04
 0.11099999E+02  0.44449E+04
 0.11150000E+02  0.55188E+04
 0.11199999E+02  0.63358E+04
 0.11249999E+02  0.69594E+04
 0.11299999E+02  0.75377E+04
 0.11349999E+02  0.80642E+04
 0.11400000E+02  0.83916E+04
 0.11449999E+02  0.86544E+04
 0.11499999E+02  0.90160E+04
 0.11549999E+02  0.93493E+04
 0.11599999E+02  0.97637E+04
 0.11650000E+02  0.10269E+05
 0.11699999E+02  0.10907E+05
 0.11749999E+02  0.11566E+05
 0.11799999E+02  0.12158E+05
 0.11849999E+02  0.12694E+05
 0.11900000E+02  0.13251E+05
 0.11949999E+02  0.13999E+05
 0.11999999E+02  0.15021E+05
 0.12049999E+02  0.16353E+05
 0.12099999E+02  0.17673E+05
 0.12150000E+02  0.19010E+05
 0.12199999E+02  0.20351E+05
 0.12249999E+02  0.21651E+05
 0.12299999E+02  0.23047E+05
 0.12349999E+02  0.24431E+05
 0.12400000E+02  0.25522E+05
 0.12449999E+02  0.26127E+05
 0.12499999E+02  0.26179E+05
 0.12549999E+02  0.25630E+05
 0.12599999E+02  0.24360E+05
 0.12649999E+02  0.22064E+05
 0.12699999E+02  0.18641E+05
 0.12749999E+02  0.14367E+05
 0.12799999E+02  0.95681E+04
 0.12849999E+02  0.44178E+04
 0.12899999E+02 -0.10222E+04
 0.12949999E+02 -0.65289E+04
 0.12999999E+02 -0.11771E+05
 0.13049999E+02 -0.16495E+05
 0.13099999E+02 -0.20754E+05
 0.13149999E+02 -0.24362E+05
 0.13199999E+02 -0.26943E+05
 0.13249999E+02 -0.28683E+05
 0.13299999E+02 -0.29586E+05
 0.13349999E+02 -0.29787E+05
 0.13399999E+02 -0.29560E+05
 0.13449999E+02 -0.29065E+05
 0.13499999E+02 -0.28550E+05
 0.13549999E+02 -0.28198E+05
 0.13599999E+02 -0.27996E+05
 0.13649999E+02 -0.27754E+05
 0.13699999E+02 -0.27561E+05
 0.13749999E+02 -0.27466E+05
 0.13799999E+02 -0.27271E+05
 0.13849999E+02 -0.26656E+05
 0.13899999E+02 -0.25491E+05
 0.13949999E+02 -0.23854E+05
 0.13999999E+02 -0.21818E+05
 0.14049999E+02 -0.19455E+05
 0.14099998E+02 -0.16720E+05
 0.14150000E+02 -0.13713E+05
 0.14199999E+02 -0.10347E+05
 0.14249998E+02 -0.66688E+04
 0.14299999E+02 -0.26961E+04
 0.14349998E+02  0.15250E+04
 0.14400000E+02  0.54506E+04
 0.14449999E+02  0.89485E+04
 0.14499998E+02  0.11797E+05
 0.14549999E+02  0.13917E+05
 0.14599998E+02  0.15244E+05
 0.14650000E+02  0.15833E+05
 0.14699999E+02  0.15820E+05
 0.14749998E+02  0.15020E+05
 0.14799999E+02  0.13602E+05
 0.14849998E+02  0.11575E+05
 0.14900000E+02  0.92390E+04
 0.14949999E+02  0.66841E+04
 0.14999998E+02  0.40583E+04
 0.15049999E+02  0.17843E+04
 0.15099998E+02 -0.11733E+03
 0.15150000E+02 -0.14067E+04
 0.15199999E+02 -0.17405E+04
 0.15249998E+02 -0.11798E+04
 0.15299999E+02 -0.16482E+02
 0.15349998E+02  0.16439E+04
 0.15400000E+02  0.36917E+04
 0.15449999E+02  0.60223E+04
 0.15499998E+02  0.85305E+04
 0.15549999E+02  0.11050E+05
 0.15599998E+02  0.13604E+05
 0.15650000E+02  0.16079E+05
 0.15699999E+02  0.18335E+05
 0.15749998E+02  0.20329E+05
 0.15799999E+02  0.21947E+05
 0.15849998E+02  0.23468E+05
 0.15900000E+02  0.24890E+05
 0.15949999E+02  0.26010E+05
 0.15999998E+02  0.26658E+05
 0.16049999E+02  0.26414E+05
 0.16099998E+02  0.25457E+05
 0.16150000E+02  0.23956E+05
 0.16199999E+02  0.21886E+05
 0.16249998E+02  0.19491E+05
 0.16299999E+02  0.16851E+05
 0.16349998E+02  0.14165E+05
 0.16400000E+02  0.11457E+05
 0.16449999E+02  0.87536E+04
 0.16499998E+02  0.59522E+04
 0.16549999E+02  0.30290E+04
 0.16599998E+02 -0.15170E+03
 0.16650000E+02 -0.37551E+04
 0.16699999E+02 -0.78728E+04
 0.16749998E+02 -0.12505E+05
 0.16799999E+02 -0.17338E+05
 0.16849998E+02 -0.22422E+05
 0.16900000E+02 -0.27562E+05
 0.16949999E+02 -0.32377E+05
 0.16999998E+02 -0.36340E+05
 0.17049999E+02 -0.39233E+05
 0.17099998E+02 -0.40867E+05
 0.17150000E+02 -0.41017E+05
 0.17199999E+02 -0.39811E+05
 0.17249998E+02 -0.37448E+05
 0.17299999E+02 -0.34282E+05
 0.17349998E+02 -0.30433E+05
 0.17400000E+02 -0.26105E+05
 0.17449999E+02 -0.21336E+05
 0.17499998E+02 -0.16393E+05
 0.17549999E+02 -0.11447E+05
 0.17599998E+02 -0.65356E+04
 0.17650000E+02 -0.16065E+04
 0.17699999E+02  0.31839E+04
 0.17749998E+02  0.74581E+04
 0.17799999E+02  0.11231E+05
 0.17849998E+02  0.14464E+05
 0.17900000E+02  0.17333E+05
 0.17949999E+02  0.19595E+05
 0.17999998E+02  0.21214E+05
 0.18049999E+02  0.22191E+05
 0.18099998E+02  0.22521E+05
 0.18150000E+02  0.22203E+05
 0.18199999E+02  0.21290E+05
 0.18249998E+02  0.19782E+05
 0.18299999E+02  0.17803E+05
 0.18349998E+02  0.15646E+05
 0.18400000E+02  0.13109E+05
 0.18449999E+02  0.10364E+05
 0.18499998E+02  0.75297E+04
 0.18549999E+02  0.47230E+04
 0.18599998E+02  0.19168E+04
 0.18650000E+02 -0.80776E+03
 0.18699999E+02 -0.31217E+04
 0.18749998E+02 -0.49761E+04
 0.18799999E+02 -0.64796E+04
 0.18849998E+02 -0.77721E+04
 0.18900000E+02 -0.85966E+04
 0.18949999E+02 -0.90745E+04
 0.18999998E+02 -0.92304E+04
 0.19049999E+02 -0.90669E+04
 0.19099998E+02 -0.86919E+04
 0.19150000E+02 -0.81897E+04
 0.19199999E+02 -0.78931E+04
 0.19249998E+02 -0.76856E+04
 0.19299999E+02 -0.78321E+04
 0.19349998E+02 -0.85013E+04
 0.19400000E+02 -0.95125E+04
 0.19449999E+02 -0.10630E+05
 0.19499998E+02 -0.11919E+05
 0.19549999E+02 -0.13419E+05
 0.19599998E+02 -0.14962E+05
 0.19650000E+02 -0.16565E+05
 0.19699999E+02 -0.17878E+05
 0.19749998E+02 -0.18761E+05
 0.19799999E+02 -0.19200E+05
 0.19849998E+02 -0.19160E+05
 0.19900000E+02 -0.18903E+05
 0.19949999E+02 -0.18539E+05
 0.19999998E+02 -0.17824E+05
 0.20049999E+02 -0.16824E+05
 0.20099998E+02 -0.15375E+05
 0.20150000E+02 -0.13229E+05
 0.20199999E+02 -0.10430E+05
 0.20249998E+02 -0.71535E+04
 0.20299999E+02 -0.38221E+04
 0.20349998E+02 -0.71535E+03
 0.20399998E+02  0.19901E+04
 0.20449999E+02  0.44138E+04
 0.20499998E+02  0.61662E+04
 0.20549999E+02  0.72540E+04
 0.20599998E+02  0.82192E+04
 0.20649998E+02  0.91870E+04
 0.20699999E+02  0.10253E+05
 0.20749998E+02  0.11544E+05
 0.20799999E+02  0.13322E+05
 0.20849998E+02  0.15558E+05
 0.20899998E+02  0.18350E+05
 0.20949999E+02  0.21432E+05
 0.20999998E+02  0.24479E+05
 0.21049999E+02  0.27426E+05
 0.21099998E+02  0.30100E+05
 0.21149998E+02  0.32571E+05
 0.21199999E+02  0.34655E+05
 0.21249998E+02  0.36189E+05
 0.21299999E+02  0.37256E+05
 0.21349998E+02  0.37983E+05
 0.21399998E+02  0.38043E+05
 0.21449999E+02  0.37318E+05
 0.21499998E+02  0.35891E+05
 0.21549999E+02  0.33777E+05
 0.21599998E+02  0.30964E+05
 0.21649998E+02  0.27515E+05
 0.21699999E+02  0.23408E+05
 0.21749998E+02  0.18290E+05
 0.21799999E+02  0.12418E+05
 0.21849998E+02  0.59261E+04
 0.21899998E+02 -0.11731E+04
 0.21949999E+02 -0.86759E+04
 0.21999998E+02 -0.16310E+05
 0.22049999E+02 -0.23691E+05
 0.22099998E+02 -0.30414E+05
 0.22149998E+02 -0.36235E+05
 0.22199999E+02 -0.41004E+05
 0.22249998E+02 -0.44531E+05
 0.22299999E+02 -0.46666E+05
 0.22349998E+02 -0.47488E+05
 0.22399998E+02 -0.47252E+05
 0.22449999E+02 -0.45867E+05
 0.22499998E+02 -0.43654E+05
 0.22549999E+02 -0.40794E+05
 0.22599998E+02 -0.37525E+05
 0.22649998E+02 -0.34149E+05
 0.22699999E+02 -0.30778E+05
 0.22749998E+02 -0.27689E+05
 0.22799999E+02 -0.24823E+05
 0.22849998E+02 -0.22405E+05
 0.22899998E+02 -0.20172E+05
 0.22949999E+02 -0.18146E+05
 0.22999998E+02 -0.16187E+05
 0.23049999E+02 -0.14329E+05
 0.23099998E+02 -0.12648E+05
 0.23149998E+02 -0.10880E+05
 0.23199999E+02 -0.94520E+04
 0.23249998E+02 -0.82209E+04
 0.23299999E+02 -0.70528E+04
 0.23349998E+02 -0.55750E+04
 0.23399998E+02 -0.36323E+04
 0.23449999E+02 -0.11567E+04
 0.23499998E+02  0.17682E+04
 0.23549999E+02  0.52129E+04
 0.23599998E+02  0.93872E+04
 0.23649998E+02  0.14310E+05
 0.23699999E+02  0.19445E+05
 0.23749998E+02  0.24285E+05
 0.23799999E+02  0.28411E+05
 0.23849998E+02  0.32264E+05
 0.23899998E+02  0.36629E+05
 0.23949999E+02  0.41600E+05
 0.23999998E+02  0.44685E+05
 0.24049999E+02  0.43890E+05
 0.24099998E+02  0.39732E+05
 0.24149998E+02  0.37399E+05
 0.24199999E+02  0.41422E+05
 0.24249998E+02  0.47112E+05
 0.24299999E+02  0.43600E+05
 0.24349998E+02  0.29284E+05
 0.24399998E+02  0.13593E+05
 0.24449999E+02  0.17117E+05
 0.24499998E+02  0.46054E+05
 0.24549999E+02  0.68638E+05
 0.24599998E+02  0.44873E+05
 0.24649998E+02 -0.12172E+05
 0.24699999E+02 -0.50782E+05
 0.24749998E+02 -0.55080E+05
 0.24799999E+02 -0.40317E+05
 0.24849998E+02 -0.28967E+05
 0.24899998E+02 -0.42311E+05
 0.24949999E+02 -0.70943E+05
 0.24999998E+02 -0.74649E+05
 0.25049999E+02 -0.53117E+05
 0.25099998E+02 -0.23194E+05
 0.25149998E+02 -0.22025E+05
 0.25199999E+02 -0.15848E+05
 0.25249998E+02 -0.28540E+05
 0.25299999E+02 -0.58120E+05
 0.25349998E+02 -0.62761E+05
 0.25399998E+02 -0.96219E+05
 0.25449999E+02 -0.13273E+06
 0.25499998E+02 -0.87166E+05
 0.25549999E+02 -0.29791E+05
 0.25599998E+02  0.19308E+05
 0.25649998E+02  0.67419E+05
 0.25699999E+02  0.91449E+05
 0.25749998E+02  0.15374E+06
 0.25799999E+02  0.14391E+06
 0.25849998E+02  0.14932E+06
 0.25899998E+02  0.11094E+06
 0.25949999E+02 -0.84453E+05
 0.25999998E+02 -0.10330E+06
 0.26049999E+02 -0.19882E+05
 0.26099998E+02 -0.21578E+05
 0.26149998E+02  0.45832E+05
 0.26199999E+02  0.86338E+05
 0.26249998E+02  0.85002E+05
 0.26299999E+02  0.86134E+05
 0.26349998E+02  0.17639E+05
 0.26399998E+02  0.11171E+04
 0.26449999E+02 -0.15481E+05
 0.26499998E+02 -0.89715E+05
 0.26549999E+02 -0.86972E+05
 0.26599998E+02 -0.17871E+05
 0.26649998E+02 -0.32993E+05
 0.26699999E+02 -0.67570E+05
 0.26749998E+02 -0.74326E+04
 0.26799999E+02 -0.10428E+05
 0.26849998E+02 -0.11018E+06
 0.26899998E+02 -0.17932E+06
 0.26949999E+02 -0.11104E+06
 0.26999998E+02  0.19407E+05
 0.27049997E+02  0.13349E+04
 0.27099998E+02  0.75727E+05
 0.27149998E+02  0.22558E+06
 0.27199999E+02  0.90252E+05
 0.27249998E+02 -0.52103E+05
 0.27299997E+02 -0.15185E+06
 0.27349998E+02 -0.17687E+06
 0.27399998E+02 -0.11316E+06
 0.27449999E+02 -0.55943E+05
 0.27499998E+02 -0.22737E+04
 0.27549997E+02  0.12600E+05
 0.27599998E+02  0.65140E+05
 0.27649998E+02  0.24532E+06
 0.27699999E+02  0.33428E+06
 0.27749998E+02  0.11544E+06
 0.27799997E+02 -0.98652E+05
 0.27849998E+02 -0.12366E+06
 0.27899998E+02  0.11113E+05
 0.27949999E+02  0.11078E+06
 0.27999998E+02  0.88017E+05
 0.28049997E+02  0.57192E+05
 0.28099998E+02  0.14558E+06
 0.28149998E+02  0.21789E+06
 0.28199999E+02  0.16226E+06
 0.28249998E+02  0.30461E+05
 0.28299997E+02 -0.18514E+06
 0.28349998E+02 -0.14172E+06
 0.28399998E+02  0.66542E+05
 0.28449999E+02  0.17632E+06
 0.28499998E+02  0.17282E+06
 0.28549997E+02 -0.36674E+05
 0.28599998E+02 -0.17052E+06
 0.28649998E+02 -0.12666E+06
 0.28699999E+02 -0.16175E+06
 0.28749998E+02 -0.16948E+06
 0.28799997E+02 -0.41412E+05
 0.28849998E+02  0.20928E+05
 0.28899998E+02  0.11008E+06
 0.28949999E+02  0.76598E+05
 0.28999998E+02  0.56159E+05
 0.29049997E+02  0.55736E+05
 0.29099998E+02 -0.73015E+04
 0.29149998E+02 -0.10538E+06
 0.29199999E+02 -0.17064E+06
 0.29249998E+02 -0.23319E+05
 0.29299997E+02  0.21596E+06
 0.29349998E+02  0.35190E+06
 0.29399998E+02  0.24763E+06
 0.29449999E+02  0.17994E+06
 0.29499998E+02  0.87459E+05
 0.29549997E+02  0.21657E+05
 0.29599998E+02  0.78201E+05
 0.29649998E+02  0.58229E+05
 0.29699999E+02 -0.35269E+05
 0.29749998E+02  0.41252E+05
 0.29799997E+02  0.22895E+06
 0.29849998E+02  0.22450E+06
 0.29899998E+02  0.15944E+06
 0.29949999E+02  0.96926E+05
 0.29999998E+02  0.37804E+05
 0.30049999E+02 -0.99784E+05
 0.30099998E+02 -0.26118E+06
 0.30149998E+02 -0.23496E+06
 0.30199997E+02 -0.16011E+06
 0.30249996E+02 -0.32866E+05
 0.30299999E+02  0.38936E+05
 0.30349998E+02  0.32043E+05
 0.30399998E+02 -0.17883E+05
 0.30449997E+02 -0.96066E+05
 0.30499996E+02 -0.13171E+06
 0.30549999E+02 -0.18752E+06
 0.30599998E+02 -0.30115E+06
 0.30649998E+02 -0.27601E+06
 0.30699997E+02 -0.13506E+06
 0.30749996E+02 -0.27012E+05
 0.30799999E+02 -0.16177E+05
 0.30849998E+02 -0.59679E+05
 0.30899998E+02 -0.12268E+06
 0.30949997E+02 -0.18421E+06
 0.30999996E+02 -0.14959E+06
 0.31049999E+02 -0.17749E+06
 0.31099998E+02 -0.20659E+06
 0.31149998E+02 -0.82328E+05
 0.31199997E+02  0.86054E+05
 0.31249996E+02  0.14352E+06
 0.31299999E+02  0.14360E+06
 0.31349998E+02  0.10253E+06
 0.31399998E+02 -0.28458E+05
 0.31449997E+02 -0.99265E+05
 0.31499996E+02 -0.64627E+05
 0.31549999E+02 -0.14113E+06
 0.31599998E+02 -0.21017E+06
 0.31649998E+02 -0.51953E+05
 0.31699997E+02  0.74546E+05
 0.31749996E+02  0.92873E+05
 0.31799999E+02  0.11256E+06
 0.31849998E+02  0.64683E+05
 0.31899998E+02  0.37089E+05
 0.31949997E+02  0.20123E+05
 0.31999996E+02  0.59506E+05
 0.32049999E+02  0.87770E+05
 0.32099998E+02  0.78169E+05
 0.32149998E+02  0.14484E+06
 0.32199997E+02  0.22057E+06
 0.32249996E+02  0.26801E+06
 0.32299999E+02  0.26297E+06
 0.32349998E+02  0.16328E+06
 0.32399998E+02  0.12029E+05
 0.32449997E+02 -0.26331E+05
 0.32499996E+02 -0.16962E+05
 0.32549999E+02 -0.18173E+05
 0.32599998E+02  0.55051E+05
 0.32649998E+02  0.13138E+06
 0.32699997E+02  0.16917E+06
 0.32749996E+02  0.23725E+06
 0.32799999E+02  0.19791E+06
 0.32849998E+02  0.70413E+05
 0.32899998E+02 -0.87755E+05
 0.32949997E+02 -0.20926E+06
 0.32999996E+02 -0.19208E+06
 0.33049999E+02 -0.22270E+06
 0.33099998E+02 -0.29954E+06
 0.33149998E+02 -0.31045E+06
 0.33199997E+02 -0.26719E+06
 0.33249996E+02 -0.15912E+06
 0.33299999E+02 -0.35771E+05
 0.33349998E+02  0.42580E+05
 0.33399998E+02 -0.82885E+04
 0.33449997E+02 -0.11882E+06
 0.33499996E+02 -0.11142E+06
 0.33549999E+02 -0.17868E+06
 0.33599998E+02 -0.31673E+06
 0.33649998E+02 -0.33090E+06
 0.33699997E+02 -0.27984E+06
 0.33749996E+02 -0.20942E+06
 0.33799999E+02 -0.11587E+06
 0.33849998E+02 -0.54935E+04
 0.33899998E+02  0.49096E+05
 0.33949997E+02  0.26201E+05
 0.33999996E+02 -0.14985E+05
 0.34049999E+02 -0.69037E+05
 0.34099998E+02 -0.17846E+06
 0.34149998E+02 -0.23402E+06
 0.34199997E+02 -0.12308E+06
 0.34249996E+02 -0.90140E+05
 0.34299999E+02 -0.73690E+05
 0.34349998E+02 -0.10857E+05
 0.34399998E+02  0.53773E+03
 0.34449997E+02 -0.10478E+05
 0.34499996E+02  0.60060E+04
 0.34549999E+02  0.58178E+05
 0.34599998E+02  0.69013E+05
 0.34649998E+02  0.11009E+06
 0.34699997E+02  0.17683E+06
 0.34749996E+02  0.10323E+06
 0.34799999E+02 -0.50731E+05
 0.34849998E+02 -0.10026E+06
 0.34899998E+02 -0.86377E+05
 0.34949997E+02  0.32664E+05
 0.34999996E+02  0.21780E+06
 0.35049999E+02  0.34794E+06
 0.35099998E+02  0.38000E+06
 0.35149998E+02  0.30190E+06
 0.35199997E+02  0.18424E+06
 0.35249996E+02  0.12064E+06
 0.35299999E+02  0.12165E+06
 0.35349998E+02  0.16586E+06
 0.35399998E+02  0.20338E+06
 0.35449997E+02  0.22650E+06
 0.35499996E+02  0.25816E+06
 0.35549999E+02  0.22807E+06
 0.35599998E+02  0.20134E+06
 0.35649998E+02  0.16556E+06
 0.35699997E+02  0.85722E+05
 0.35749996E+02  0.63913E+05
 0.35799999E+02  0.37663E+05
 0.35849998E+02 -0.11775E+06
 0.35899998E+02 -0.31083E+06
 0.35949997E+02 -0.44839E+06
 0.35999996E+02 -0.44964E+06
 0.36049999E+02 -0.32884E+06
 0.36099998E+02 -0.22874E+06
 0.36149998E+02 -0.11431E+06
 0.36199997E+02 -0.95545E+04
 0.36249996E+02  0.98804E+05
 0.36299999E+02  0.12005E+06
 0.36349998E+02  0.49294E+05
 0.36399998E+02 -0.19862E+05
 0.36449997E+02 -0.70360E+05
 0.36499996E+02 -0.86493E+05
 0.36549999E+02 -0.55004E+05
 0.36599998E+02  0.59440E+05
 0.36649998E+02  0.13101E+06
 0.36699997E+02  0.21268E+06
 0.36749996E+02  0.31960E+06
 0.36799999E+02  0.31191E+06
 0.36849998E+02  0.23099E+06
 0.36899998E+02  0.18462E+06
 0.36949997E+02  0.82781E+05
 0.36999996E+02 -0.60386E+05
 0.37049999E+02 -0.85136E+05
 0.37099998E+02  0.20126E+05
 0.37149998E+02  0.10122E+06
 0.37199997E+02  0.85559E+05
 0.37249996E+02  0.50416E+05
 0.37299999E+02 -0.43986E+05
 0.37349998E+02 -0.15043E+06
 0.37399998E+02 -0.22566E+06
 0.37449997E+02 -0.23758E+06
 0.37499996E+02 -0.18110E+06
 0.37549999E+02 -0.11652E+06
 0.37599998E+02 -0.18242E+05
 0.37649998E+02  0.48689E+05
 0.37699997E+02  0.93290E+05
 0.37749996E+02  0.11736E+06
 0.37799999E+02  0.14538E+06
 0.37849998E+02  0.17722E+06
 0.37899998E+02  0.20504E+06
 0.37949997E+02  0.25197E+06
 0.37999996E+02  0.26450E+06
 0.38049999E+02  0.28327E+06
 0.38099998E+02  0.22424E+06
 0.38149998E+02  0.10193E+06
 0.38199997E+02  0.20757E+05
 0.38249996E+02 -0.18124E+05
 0.38299999E+02  0.13069E+05
 0.38349998E+02  0.71356E+05
 0.38399998E+02  0.14546E+06
 0.38449997E+02  0.20134E+06
 0.38499996E+02  0.17370E+06
 0.38549999E+02  0.14438E+06
 0.38599998E+02  0.36702E+05
 0.38649998E+02 -0.15570E+06
 0.38699997E+02 -0.25803E+06
 0.38749996E+02 -0.26475E+06
 0.38799999E+02 -0.21788E+06
 0.38849998E+02 -0.20958E+06
 0.38899998E+02 -0.17361E+06
 0.38949997E+02 -0.15486E+06
 0.38999996E+02 -0.25506E+06
 0.39049999E+02 -0.26768E+06
 0.39099998E+02 -0.24987E+06
 0.39149998E+02 -0.23592E+06
 0.39199997E+02 -0.12537E+06
 0.39249996E+02 -0.49524E+05
 0.39299999E+02 -0.26921E+05
 0.39349998E+02 -0.37002E+05
 0.39399998E+02 -0.64221E+05
 0.39449997E+02 -0.11168E+06
 0.39499996E+02 -0.15766E+06
 0.39549999E+02 -0.82094E+05
 0.39599998E+02  0.65667E+04
 0.39649998E+02  0.33693E+05
 0.39699997E+02  0.55159E+05
 0.39749996E+02  0.76667E+05
 0.39799999E+02  0.13533E+06
 0.39849998E+02  0.19053E+06
 0.39899998E+02  0.18125E+06
 0.39949997E+02  0.10884E+06
 0.39999996E+02  0.34108E+05
 0.40049999E+02 -0.16065E+05
 0.40099998E+02 -0.58746E+05
 0.40149998E+02 -0.74373E+05
 0.40199997E+02 -0.11088E+06
 0.40249996E+02 -0.16271E+06
 0.40299999E+02 -0.12986E+06
 0.40349998E+02 -0.77150E+05
 0.40399998E+02 -0.64291E+05
 0.40449997E+02 -0.98605E+05
 0.40499996E+02 -0.10028E+06
 0.40549999E+02 -0.61640E+04
 0.40599998E+02 -0.98707E+04
 0.40649998E+02 -0.85515E+05
 0.40699997E+02 -0.21553E+06
 0.40749996E+02 -0.28557E+06
 0.40799999E+02 -0.20163E+06
 0.40849998E+02 -0.12816E+06
 0.40899998E+02 -0.38826E+05
 0.40949997E+02  0.43598E+05
 0.40999996E+02  0.86345E+05
 0.41049999E+02  0.11617E+06
 0.41099998E+02  0.18865E+06
 0.41149998E+02  0.18741E+06
 0.41199997E+02  0.38989E+05
 0.41249996E+02 -0.11957E+06
 0.41299999E+02 -0.16852E+06
 0.41349998E+02 -0.14309E+06
 0.41399998E+02 -0.97714E+05
 0.41449997E+02 -0.67989E+05
 0.41499996E+02 -0.10015E+06
 0.41549999E+02 -0.81354E+05
 0.41599998E+02 -0.74526E+05
 0.41649998E+02 -0.82620E+05
 0.41699997E+02 -0.10185E+06
 0.41749996E+02 -0.13986E+06
 0.41799999E+02 -0.93528E+05
 0.41849998E+02 -0.41878E+05
 0.41899998E+02 -0.26649E+05
 0.41949997E+02 -0.74529E+05
 0.41999996E+02 -0.15652E+06
 0.42049999E+02 -0.12983E+06
 0.42099998E+02 -0.42853E+05
 0.42149998E+02  0.31763E+05
 0.42199997E+02  0.12019E+06
 0.42249996E+02  0.21924E+06
 0.42299999E+02  0.27388E+06
 0.42349998E+02  0.24886E+06
 0.42399998E+02  0.19918E+06
 0.42449997E+02  0.18533E+06
 0.42499996E+02  0.14823E+06
 0.42549999E+02  0.10678E+06
 0.42599998E+02  0.12127E+06
 0.42649998E+02  0.84501E+05
 0.42699997E+02  0.35752E+05
 0.42749996E+02  0.86983E+05
 0.42799995E+02  0.15932E+06
 0.42849998E+02  0.92015E+05
 0.42899998E+02 -0.94694E+04
 0.42949997E+02 -0.47120E+05
 0.42999996E+02 -0.63066E+05
 0.43049995E+02 -0.55213E+05
 0.43099998E+02 -0.40551E+05
 0.43149998E+02 -0.57524E+05
 0.43199997E+02 -0.14319E+06
 0.43249996E+02 -0.16402E+06
 0.43299995E+02 -0.10253E+06
 0.43349998E+02 -0.69001E+05
 0.43399998E+02 -0.86926E+05
 0.43449997E+02 -0.94503E+05
 0.43499996E+02 -0.34895E+05
 0.43549995E+02 -0.49477E+04
 0.43599998E+02 -0.53017E+05
 0.43649998E+02 -0.14281E+06
 0.43699997E+02 -0.21382E+06
 0.43749996E+02 -0.22323E+06
 0.43799995E+02 -0.18408E+06
 0.43849998E+02 -0.12891E+06
 0.43899998E+02 -0.69754E+05
 0.43949997E+02 -0.90947E+04
 0.43999996E+02  0.32076E+05
 0.44049995E+02  0.69912E+05
 0.44099998E+02  0.49449E+05
 0.44149998E+02 -0.16887E+05
 0.44199997E+02 -0.83594E+05
 0.44249996E+02 -0.13073E+06
 0.44299995E+02 -0.16721E+06
 0.44349998E+02 -0.18402E+06
 0.44399998E+02 -0.13932E+06
 0.44449997E+02 -0.74800E+05
 0.44499996E+02 -0.12357E+05
 0.44549995E+02  0.46179E+05
 0.44599998E+02  0.83842E+05
 0.44649998E+02  0.86180E+05
 0.44699997E+02  0.76295E+05
 0.44749996E+02  0.62421E+05
 0.44799995E+02  0.11344E+05
 0.44849998E+02 -0.60925E+05
 0.44899998E+02 -0.34964E+05
 0.44949997E+02  0.61906E+05
 0.44999996E+02  0.42561E+05
 0.45049995E+02 -0.20498E+05
 0.45099998E+02  0.94136E+04
 0.45149998E+02 -0.90576E+04
 0.45199997E+02 -0.91950E+05
 0.45249996E+02 -0.11387E+06
 0.45299995E+02 -0.42493E+05
 0.45349998E+02  0.88707E+04
 0.45399998E+02  0.81903E+05
 0.45449997E+02  0.19766E+06
 0.45499996E+02  0.17569E+06
 0.45549995E+02  0.89977E+05
 0.45599998E+02  0.29181E+05
 0.45649998E+02  0.67108E+05
 0.45699997E+02  0.13382E+06
 0.45749996E+02  0.11160E+06
 0.45799995E+02  0.51164E+05
 0.45849998E+02  0.31684E+05
 0.45899998E+02  0.92333E+05
 0.45949997E+02  0.13667E+06
 0.45999996E+02  0.14902E+06
 0.46049995E+02  0.22935E+06
 0.46099998E+02  0.35815E+06
 0.46149998E+02  0.46198E+06
 0.46199997E+02  0.45589E+06
 0.46249996E+02  0.31467E+06
 0.46299995E+02  0.23520E+06
 0.46349998E+02  0.19534E+06
 0.46399998E+02  0.14544E+06
 0.46449997E+02  0.14749E+06
 0.46499996E+02  0.18492E+06
 0.46549995E+02  0.23988E+06
 0.46599998E+02  0.28080E+06
 0.46649998E+02  0.28309E+06
 0.46699997E+02  0.18095E+06
 0.46749996E+02  0.54890E+05
 0.46799995E+02  0.41833E+05
 0.46849998E+02  0.87943E+05
 0.46899998E+02  0.81823E+05
 0.46949997E+02  0.11151E+06
 0.46999996E+02  0.21959E+06
 0.47049995E+02  0.28123E+06
 0.47099998E+02  0.22396E+06
 0.47149998E+02  0.86765E+05
 0.47199997E+02  0.35433E+05
 0.47249996E+02  0.10356E+06
 0.47299995E+02  0.16613E+06
 0.47349998E+02  0.23356E+06
 0.47399998E+02  0.28698E+06
 0.47449997E+02  0.29908E+06
 0.47499996E+02  0.23164E+06
 0.47549995E+02  0.70366E+05
 0.47599998E+02 -0.79365E+05
 0.47649998E+02 -0.11649E+06
 0.47699997E+02 -0.15529E+05
 0.47749996E+02  0.86019E+05
 0.47799995E+02  0.16772E+06
 0.47849998E+02  0.14798E+06
 0.47899998E+02  0.61380E+05
 0.47949997E+02 -0.73347E+04
 0.47999996E+02 -0.66443E+05
 0.48049995E+02 -0.47787E+05
 0.48099998E+02 -0.16540E+05
 0.48149998E+02 -0.20681E+05
 0.48199997E+02 -0.79977E+05
 0.48249996E+02 -0.14153E+06
 0.48299995E+02 -0.21627E+06
 0.48349998E+02 -0.27210E+06
 0.48399998E+02 -0.19018E+06
 0.48449997E+02 -0.59934E+05
 0.48499996E+02  0.95935E+01
 0.48549995E+02  0.53372E+05
 0.48599998E+02  0.31634E+05
 0.48649998E+02  0.22741E+05
 0.48699997E+02  0.16941E+06
 0.48749996E+02  0.27611E+06
 0.48799995E+02  0.32612E+06
 0.48849998E+02  0.35931E+06
 0.48899998E+02  0.35519E+06
 0.48949997E+02  0.25553E+06
 0.48999996E+02  0.16583E+06
 0.49049995E+02  0.19173E+06
 0.49099998E+02  0.25083E+06
 0.49149998E+02  0.36531E+06
 0.49199997E+02  0.48774E+06
 0.49249996E+02  0.45784E+06
 0.49299995E+02  0.32092E+06
 0.49349998E+02  0.18356E+06
 0.49399998E+02  0.92939E+05
 0.49449997E+02  0.77626E+05
 0.49499996E+02  0.78171E+05
 0.49549995E+02  0.48489E+05
 0.49599998E+02 -0.42127E+05
 0.49649998E+02 -0.72262E+05
 0.49699997E+02 -0.46925E+04
 0.49749996E+02  0.25460E+05
 0.49799995E+02  0.37921E+05
 0.49849998E+02  0.10602E+06
 0.49899998E+02  0.16532E+06
 0.49949997E+02  0.13216E+06
 0.49999996E+02  0.42500E+05
 0.50049995E+02  0.32005E+05
 0.50099998E+02  0.42558E+05
 0.50149998E+02  0.28125E+05
 0.50199997E+02  0.25703E+05
 0.50249996E+02  0.43980E+04
 0.50299995E+02  0.15920E+05
 0.50349998E+02  0.51010E+05
 0.50399998E+02  0.48482E+05
 0.50449997E+02  0.94204E+04
 0.50499996E+02 -0.39789E+05
 0.50549995E+02 -0.66236E+05
 0.50599998E+02 -0.69770E+05
 0.50649998E+02 -0.12925E+06
 0.50699997E+02 -0.19493E+06
 0.50749996E+02 -0.19576E+06
 0.50799995E+02 -0.18730E+06
 0.50849998E+02 -0.24849E+06
 0.50899998E+02 -0.35046E+06
 0.50949997E+02 -0.40787E+06
 0.50999996E+02 -0.44228E+06
 0.51049995E+02 -0.46432E+06
 0.51099998E+02 -0.49065E+06
 0.51149998E+02 -0.52791E+06
 0.51199997E+02 -0.51315E+06
 0.51249996E+02 -0.46571E+06
 0.51299995E+02 -0.44539E+06
 0.51349998E+02 -0.43927E+06
 0.51399998E+02 -0.40847E+06
 0.51449997E+02 -0.32177E+06
 0.51499996E+02 -0.23849E+06
 0.51549995E+02 -0.26225E+06
 0.51599998E+02 -0.33744E+06
 0.51649998E+02 -0.33220E+06
 0.51699997E+02 -0.27435E+06
 0.51749996E+02 -0.24820E+06
 0.51799995E+02 -0.25127E+06
 0.51849998E+02 -0.18678E+06
 0.51899998E+02 -0.70425E+05
 0.51949997E+02 -0.42280E+04
 0.51999996E+02  0.20001E+05
 0.52049995E+02  0.22749E+05
 0.52099998E+02  0.17291E+05
 0.52149998E+02 -0.27021E+05
 0.52199997E+02 -0.12608E+06
 0.52249996E+02 -0.23287E+06
 0.52299995E+02 -0.25161E+06
 0.52349998E+02 -0.17700E+06
 0.52399998E+02 -0.72766E+05
 0.52449997E+02  0.30195E+05
 0.52499996E+02  0.80015E+05
 0.52549995E+02  0.84798E+05
 0.52599998E+02  0.30866E+05
 0.52649998E+02 -0.64524E+05
 0.52699997E+02 -0.12765E+06
 0.52749996E+02 -0.11337E+06
 0.52799995E+02 -0.36619E+05
 0.52849998E+02 -0.29998E+05
 0.52899998E+02 -0.87564E+05
 0.52949997E+02 -0.14687E+06
 0.52999996E+02 -0.17829E+06
 0.53049995E+02 -0.13834E+06
 0.53099998E+02 -0.57277E+05
 0.53149998E+02  0.44235E+05
 0.53199997E+02  0.13670E+06
 0.53249996E+02  0.18349E+06
 0.53299995E+02  0.23732E+06
 0.53349998E+02  0.28583E+06
 0.53399998E+02  0.25165E+06
 0.53449997E+02  0.19177E+06
 0.53499996E+02  0.17213E+06
 0.53549995E+02  0.17766E+06
 0.53599998E+02  0.22260E+06
 0.53649998E+02  0.28299E+06
 0.53699997E+02  0.33708E+06
 0.53749996E+02  0.36998E+06
 0.53799995E+02  0.37681E+06
 0.53849998E+02  0.40229E+06
 0.53899998E+02  0.32895E+06
 0.53949997E+02  0.22319E+06
 0.53999996E+02  0.15994E+06
 0.54049995E+02  0.99673E+05
 0.54099998E+02  0.93277E+05
 0.54149998E+02  0.10217E+06
 0.54199997E+02  0.96583E+05
 0.54249996E+02  0.54768E+05
 0.54299995E+02 -0.33581E+05
 0.54349998E+02 -0.19470E+06
 0.54399998E+02 -0.37142E+06
 0.54449997E+02 -0.48136E+06
 0.54499996E+02 -0.53584E+06
 0.54549995E+02 -0.52797E+06
 0.54599998E+02 -0.49154E+06
 0.54649998E+02 -0.45473E+06
 0.54699997E+02 -0.42246E+06
 0.54749996E+02 -0.42844E+06
 0.54799995E+02 -0.44015E+06
 0.54849998E+02 -0.44453E+06
 0.54899998E+02 -0.46147E+06
 0.54949997E+02 -0.45992E+06
 0.54999996E+02 -0.46943E+06
 0.55049995E+02 -0.47127E+06
 0.55099998E+02 -0.46392E+06
 0.55149998E+02 -0.47075E+06
 0.55199997E+02 -0.41612E+06
 0.55249996E+02 -0.32300E+06
 0.55299995E+02 -0.28767E+06
 0.55349998E+02 -0.29393E+06
 0.55399998E+02 -0.29505E+06
 0.55449997E+02 -0.28294E+06
 0.55499996E+02 -0.26360E+06
 0.55549995E+02 -0.26451E+06
 0.55599998E+02 -0.28106E+06
 0.55649998E+02 -0.32927E+06
 0.55699997E+02 -0.41390E+06
 0.55749996E+02 -0.54633E+06
 0.55799995E+02 -0.69169E+06
 0.55849995E+02 -0.74479E+06
 0.55899998E+02 -0.71239E+06
 0.55949997E+02 -0.62371E+06
 0.55999996E+02 -0.51956E+06
 0.56049995E+02 -0.46288E+06
 0.56099995E+02 -0.44258E+06
 0.56149998E+02 -0.44399E+06
 0.56199997E+02 -0.47310E+06
 0.56249996E+02 -0.47318E+06
 0.56299995E+02 -0.39163E+06
 0.56349995E+02 -0.28708E+06
 0.56399998E+02 -0.22196E+06
 0.56449997E+02 -0.20267E+06
 0.56499996E+02 -0.18534E+06
 0.56549995E+02 -0.14271E+06
 0.56599995E+02 -0.10199E+06
 0.56649998E+02 -0.90493E+05
 0.56699997E+02 -0.68640E+05
 0.56749996E+02 -0.18142E+05
 0.56799995E+02 -0.18824E+04
 0.56849995E+02 -0.34809E+05
 0.56899998E+02 -0.61182E+05
 0.56949997E+02 -0.48359E+05
 0.56999996E+02  0.61586E+04
 0.57049995E+02  0.90582E+05
 0.57099995E+02  0.15026E+06
 0.57149998E+02  0.12872E+06
 0.57199997E+02  0.64580E+05
 0.57249996E+02  0.35899E+05
 0.57299995E+02  0.21087E+05
 0.57349995E+02  0.15235E+05
 0.57399998E+02  0.10636E+05
 0.57449997E+02 -0.70236E+04
 0.57499996E+02  0.46426E+04
 0.57549995E+02  0.98286E+05
 0.57599995E+02  0.24125E+06
 0.57649998E+02  0.35093E+06
 0.57699997E+02  0.44024E+06
 0.57749996E+02  0.53999E+06
 0.57799995E+02  0.62705E+06
 0.57849995E+02  0.63373E+06
 0.57899998E+02  0.58796E+06
 0.57949997E+02  0.55904E+06
 0.57999996E+02  0.54640E+06
 0.58049995E+02  0.55328E+06
 0.58099995E+02  0.54547E+06
 0.58149998E+02  0.48756E+06
 0.58199997E+02  0.39896E+06
 0.58249996E+02  0.33045E+06
 0.58299995E+02  0.30755E+06
 0.58349995E+02  0.27151E+06
 0.58399998E+02  0.20920E+06
 0.58449997E+02  0.15682E+06
 0.58499996E+02  0.12260E+06
 0.58549995E+02  0.12759E+06
 0.58599995E+02  0.18369E+06
 0.58649998E+02  0.31724E+06
 0.58699997E+02  0.46007E+06
 0.58749996E+02  0.53315E+06
 0.58799995E+02  0.58479E+06
 0.58849995E+02  0.65826E+06
 0.58899998E+02  0.72155E+06
 0.58949997E+02  0.73188E+06
 0.58999996E+02  0.71063E+06
 0.59049995E+02  0.69663E+06
 0.59099995E+02  0.70535E+06
 0.59149998E+02  0.69694E+06
 0.59199997E+02  0.70287E+06
 0.59249996E+02  0.72667E+06
 0.59299995E+02  0.74014E+06
 0.59349995E+02  0.70421E+06
 0.59399998E+02  0.59740E+06
 0.59449997E+02  0.47787E+06
 0.59499996E+02  0.32465E+06
 0.59549995E+02  0.14475E+06
 0.59599995E+02 -0.14688E+05
 0.59649998E+02 -0.10634E+06
 0.59699997E+02 -0.13232E+06
 0.59749996E+02 -0.13809E+06
 0.59799995E+02 -0.17919E+06
 0.59849995E+02 -0.25642E+06
 0.59899998E+02 -0.31771E+06
 0.59949997E+02 -0.34942E+06
 0.59999996E+02 -0.33629E+06
 0.60049995E+02 -0.24847E+06
 0.60099995E+02 -0.12311E+06
 0.60149998E+02  0.15239E+04
 0.60199997E+02  0.14110E+06
 0.60249996E+02  0.24183E+06
 0.60299995E+02  0.26047E+06
 0.60349995E+02  0.19620E+06
 0.60399998E+02  0.97211E+05
 0.60449997E+02  0.37451E+05
 0.60499996E+02  0.21863E+05
 0.60549995E+02  0.40858E+05
 0.60599995E+02  0.95138E+05
 0.60649998E+02  0.16193E+06
 0.60699997E+02  0.22395E+06
 0.60749996E+02  0.25898E+06
 0.60799995E+02  0.23133E+06
 0.60849995E+02  0.13472E+06
 0.60899998E+02 -0.11447E+05
 0.60949997E+02 -0.12411E+06
 0.60999996E+02 -0.10911E+06
 0.61049995E+02  0.39078E+05
 0.61099995E+02  0.18742E+06
 0.61149998E+02  0.25297E+06
 0.61199997E+02  0.24791E+06
 0.61249996E+02  0.17888E+06
 0.61299995E+02  0.96223E+05
 0.61349995E+02  0.25247E+05
 0.61399998E+02 -0.22938E+05
 0.61449997E+02 -0.43706E+05
 0.61499996E+02 -0.39671E+05
 0.61549995E+02 -0.21964E+05
 0.61599995E+02 -0.23153E+04
 0.61649998E+02  0.60092E+04
 0.61699997E+02  0.62339E+04
 0.61749996E+02  0.23125E+05
 0.61799995E+02  0.58730E+05
 0.61849995E+02  0.12445E+06
 0.61899998E+02  0.17415E+06
 0.61949997E+02  0.14856E+06
 0.61999996E+02  0.90726E+05
 0.62049995E+02  0.68342E+05
 0.62099998E+02  0.10723E+06
 0.62149994E+02  0.18399E+06
 0.62199997E+02  0.26416E+06
 0.62249992E+02  0.33895E+06
 0.62299995E+02  0.37151E+06
 0.62349998E+02  0.34045E+06
 0.62399994E+02  0.25758E+06
 0.62449997E+02  0.97191E+05
 0.62499992E+02 -0.92147E+05
 0.62549995E+02 -0.22490E+06
 0.62599998E+02 -0.26709E+06
 0.62649994E+02 -0.26606E+06
 0.62699997E+02 -0.27694E+06
 0.62749992E+02 -0.28092E+06
 0.62799995E+02 -0.31707E+06
 0.62849998E+02 -0.40045E+06
 0.62899994E+02 -0.49198E+06
 0.62949997E+02 -0.56855E+06
 0.62999992E+02 -0.58602E+06
 0.63049995E+02 -0.54277E+06
 0.63099998E+02 -0.49348E+06
 0.63149994E+02 -0.47682E+06
 0.63199997E+02 -0.49531E+06
 0.63249992E+02 -0.51192E+06
 0.63299995E+02 -0.51803E+06
 0.63349998E+02 -0.52714E+06
 0.63399994E+02 -0.53183E+06
 0.63449997E+02 -0.52337E+06
 0.63499992E+02 -0.50313E+06
 0.63549995E+02 -0.43304E+06
 0.63599998E+02 -0.32028E+06
 0.63649994E+02 -0.20962E+06
 0.63699997E+02 -0.11909E+06
 0.63749992E+02 -0.49296E+05
 0.63799995E+02 -0.21396E+04
 0.63849998E+02 -0.72771E+04
 0.63899994E+02 -0.65096E+05
 0.63949997E+02 -0.17022E+06
 0.63999992E+02 -0.26353E+06
 0.64049995E+02 -0.29787E+06
 0.64099998E+02 -0.27682E+06
 0.64149994E+02 -0.21615E+06
 0.64199997E+02 -0.13512E+06
 0.64249992E+02 -0.73626E+05
 0.64299995E+02 -0.64033E+05
 0.64349998E+02 -0.88752E+05
 0.64399994E+02 -0.14324E+06
 0.64449997E+02 -0.23034E+06
 0.64499992E+02 -0.30166E+06
 0.64549995E+02 -0.30116E+06
 0.64599998E+02 -0.22709E+06
 0.64649994E+02 -0.85071E+05
 0.64699997E+02  0.99964E+05
 0.64749992E+02  0.28553E+06
 0.64799995E+02  0.43417E+06
 0.64849998E+02  0.52115E+06
 0.64899994E+02  0.55158E+06
 0.64949997E+02  0.56475E+06
 0.64999992E+02  0.58825E+06
 0.65049995E+02  0.58941E+06
 0.65099998E+02  0.54342E+06
 0.65149994E+02  0.48141E+06
 0.65199997E+02  0.45276E+06
 0.65249992E+02  0.47800E+06
 0.65299995E+02  0.52082E+06
 0.65349998E+02  0.53872E+06
 0.65399994E+02  0.51868E+06
 0.65449997E+02  0.46761E+06
 0.65499992E+02  0.40755E+06
 0.65549995E+02  0.33987E+06
 0.65599998E+02  0.26325E+06
 0.65649994E+02  0.18804E+06
 0.65699997E+02  0.13511E+06
 0.65749992E+02  0.13206E+06
 0.65799995E+02  0.16321E+06
 0.65849998E+02  0.20500E+06
 0.65899994E+02  0.22053E+06
 0.65949997E+02  0.17883E+06
 0.65999992E+02  0.10938E+06
 0.66049995E+02  0.39336E+05
 0.66099998E+02 -0.10017E+05
 0.66149994E+02 -0.18630E+05
 0.66199997E+02  0.22543E+05
 0.66249992E+02  0.79224E+05
 0.66299995E+02  0.74433E+05
 0.66349998E+02  0.74342E+04
 0.66399994E+02 -0.88560E+05
 0.66449997E+02 -0.19748E+06
 0.66499992E+02 -0.30186E+06
 0.66549995E+02 -0.38993E+06
 0.66599998E+02 -0.43473E+06
 0.66649994E+02 -0.43504E+06
 0.66699997E+02 -0.40634E+06
 0.66749992E+02 -0.38461E+06
 0.66799995E+02 -0.38124E+06
 0.66849998E+02 -0.39693E+06
 0.66899994E+02 -0.41675E+06
 0.66949997E+02 -0.41753E+06
 0.66999992E+02 -0.40486E+06
 0.67049995E+02 -0.37020E+06
 0.67099998E+02 -0.30067E+06
 0.67149994E+02 -0.20319E+06
 0.67199997E+02 -0.11023E+06
 0.67249992E+02 -0.21060E+05
 0.67299995E+02  0.73219E+05
 0.67349998E+02  0.15756E+06
 0.67399994E+02  0.23666E+06
 0.67449997E+02  0.33050E+06
 0.67499992E+02  0.41942E+06
 0.67549995E+02  0.45107E+06
 0.67599998E+02  0.36727E+06
 0.67649994E+02  0.16621E+06
 0.67699997E+02 -0.69138E+05
 0.67749992E+02 -0.25635E+06
 0.67799995E+02 -0.36951E+06
 0.67849998E+02 -0.41889E+06
 0.67899994E+02 -0.38744E+06
 0.67949997E+02 -0.29783E+06
 0.67999992E+02 -0.20380E+06
 0.68049995E+02 -0.13090E+06
 0.68099998E+02 -0.10454E+06
 0.68149994E+02 -0.11805E+06
 0.68199997E+02 -0.14570E+06
 0.68249992E+02 -0.15020E+06
 0.68299995E+02 -0.10915E+06
 0.68349998E+02 -0.38291E+05
 0.68399994E+02  0.49829E+05
 0.68449997E+02  0.14201E+06
 0.68499992E+02  0.22447E+06
 0.68549995E+02  0.29788E+06
 0.68599998E+02  0.35286E+06
 0.68649994E+02  0.37758E+06
 0.68699997E+02  0.35153E+06
 0.68749992E+02  0.29055E+06
 0.68799995E+02  0.22638E+06
 0.68849998E+02  0.14952E+06
 0.68899994E+02  0.39278E+05
 0.68949997E+02 -0.10162E+06
 0.68999992E+02 -0.23152E+06
 0.69049995E+02 -0.31263E+06
 0.69099998E+02 -0.33339E+06
 0.69149994E+02 -0.31756E+06
 0.69199997E+02 -0.30735E+06
 0.69249992E+02 -0.32601E+06
 0.69299995E+02 -0.37091E+06
 0.69349998E+02 -0.42609E+06
 0.69399994E+02 -0.45451E+06
 0.69449997E+02 -0.45203E+06
 0.69499992E+02 -0.44057E+06
 0.69549995E+02 -0.43277E+06
 0.69599998E+02 -0.44155E+06
 0.69649994E+02 -0.45722E+06
 0.69699997E+02 -0.46532E+06
 0.69749992E+02 -0.46042E+06
 0.69799995E+02 -0.44251E+06
 0.69849998E+02 -0.41267E+06
 0.69899994E+02 -0.37668E+06
 0.69949997E+02 -0.34532E+06
 0.69999992E+02 -0.32671E+06
 0.70049995E+02 -0.29245E+06
 0.70099998E+02 -0.22868E+06
 0.70149994E+02 -0.14148E+06
 0.70199997E+02 -0.45251E+05
 0.70249992E+02  0.30410E+05
 0.70299995E+02  0.67026E+05
 0.70349998E+02  0.50240E+05
 0.70399994E+02  0.30530E+05
 0.70449997E+02  0.43153E+05
 0.70499992E+02  0.71784E+05
 0.70549995E+02  0.13048E+06
 0.70599998E+02  0.22431E+06
 0.70649994E+02  0.32900E+06
 0.70699997E+02  0.41461E+06
 0.70749992E+02  0.45464E+06
 0.70799995E+02  0.46418E+06
 0.70849998E+02  0.46644E+06
 0.70899994E+02  0.46949E+06
 0.70949997E+02  0.49386E+06
 0.70999992E+02  0.52655E+06
 0.71049995E+02  0.53026E+06
 0.71099998E+02  0.48353E+06
 0.71149994E+02  0.38530E+06
 0.71199997E+02  0.24979E+06
 0.71249992E+02  0.10967E+06
 0.71299995E+02  0.77222E+04
 0.71349998E+02 -0.36464E+04
 0.71399994E+02  0.87932E+05
 0.71449997E+02  0.24218E+06
 0.71499992E+02  0.42866E+06
 0.71549995E+02  0.60586E+06
 0.71599998E+02  0.72120E+06
 0.71649994E+02  0.73155E+06
 0.71699997E+02  0.64902E+06
 0.71749992E+02  0.53294E+06
 0.71799995E+02  0.43416E+06
 0.71849998E+02  0.37963E+06
 0.71899994E+02  0.35655E+06
 0.71949997E+02  0.33284E+06
 0.71999992E+02  0.27749E+06
 0.72049995E+02  0.17497E+06
 0.72099998E+02  0.33232E+05
 0.72149994E+02 -0.10277E+06
 0.72199997E+02 -0.17838E+06
 0.72249992E+02 -0.18116E+06
 0.72299995E+02 -0.14810E+06
 0.72349998E+02 -0.13105E+06
 0.72399994E+02 -0.15647E+06
 0.72449997E+02 -0.21518E+06
 0.72499992E+02 -0.26736E+06
 0.72549995E+02 -0.28701E+06
 0.72599998E+02 -0.27827E+06
 0.72649994E+02 -0.23938E+06
 0.72699997E+02 -0.17499E+06
 0.72749992E+02 -0.95465E+05
 0.72799995E+02 -0.23505E+05
 0.72849998E+02  0.83994E+04
 0.72899994E+02 -0.12422E+05
 0.72949997E+02 -0.80645E+05
 0.72999992E+02 -0.17695E+06
 0.73049995E+02 -0.27834E+06
 0.73099998E+02 -0.35275E+06
 0.73149994E+02 -0.38104E+06
 0.73199997E+02 -0.36723E+06
 0.73249992E+02 -0.31733E+06
 0.73299995E+02 -0.24910E+06
 0.73349998E+02 -0.17648E+06
 0.73399994E+02 -0.10718E+06
 0.73449997E+02 -0.61815E+05
 0.73499992E+02 -0.61167E+05
 0.73549995E+02 -0.10263E+06
 0.73599998E+02 -0.14815E+06
 0.73649994E+02 -0.14516E+06
 0.73699997E+02 -0.82949E+05
 0.73749992E+02  0.18472E+05
 0.73799995E+02  0.15200E+06
 0.73849998E+02  0.29884E+06
 0.73899994E+02  0.42257E+06
 0.73949997E+02  0.48524E+06
 0.73999992E+02  0.46718E+06
 0.74049995E+02  0.37115E+06
 0.74099998E+02  0.21492E+06
 0.74149994E+02  0.33085E+05
 0.74199997E+02 -0.13086E+06
 0.74249992E+02 -0.24711E+06
 0.74299995E+02 -0.31214E+06
 0.74349998E+02 -0.34067E+06
 0.74399994E+02 -0.35796E+06
 0.74449997E+02 -0.38768E+06
 0.74499992E+02 -0.44064E+06
 0.74549995E+02 -0.51283E+06
 0.74599998E+02 -0.57181E+06
 0.74649994E+02 -0.59087E+06
 0.74699997E+02 -0.56316E+06
 0.74749992E+02 -0.48566E+06
 0.74799995E+02 -0.38661E+06
 0.74849998E+02 -0.27835E+06
 0.74899994E+02 -0.16456E+06
 0.74949997E+02 -0.57837E+05
 0.74999992E+02  0.29709E+05
 0.75049995E+02  0.93811E+05
 0.75099998E+02  0.14338E+06
 0.75149994E+02  0.17632E+06
 0.75199997E+02  0.19877E+06
 0.75249992E+02  0.21953E+06
 0.75299995E+02  0.22947E+06
 0.75349998E+02  0.21861E+06
 0.75399994E+02  0.19337E+06
 0.75449997E+02  0.16628E+06
 0.75499992E+02  0.14642E+06
 0.75549995E+02  0.14263E+06
 0.75599998E+02  0.14858E+06
 0.75649994E+02  0.14182E+06
 0.75699997E+02  0.10471E+06
 0.75749992E+02  0.48299E+05
 0.75799995E+02  0.45814E+04
 0.75849998E+02 -0.17711E+04
 0.75899994E+02  0.54827E+05
 0.75949997E+02  0.16410E+06
 0.75999992E+02  0.29666E+06
 0.76049995E+02  0.43550E+06
 0.76099998E+02  0.54883E+06
 0.76149994E+02  0.59793E+06
 0.76199997E+02  0.57012E+06
 0.76249992E+02  0.47903E+06
 0.76299995E+02  0.33927E+06
 0.76349998E+02  0.18029E+06
 0.76399994E+02  0.39057E+05
 0.76449997E+02 -0.65978E+05
 0.76499992E+02 -0.12934E+06
 0.76549995E+02 -0.15820E+06
 0.76599998E+02 -0.16985E+06
 0.76649994E+02 -0.18552E+06
 0.76699997E+02 -0.21231E+06
 0.76749992E+02 -0.22853E+06
 0.76799995E+02 -0.21747E+06
 0.76849998E+02 -0.18297E+06
 0.76899994E+02 -0.12863E+06
 0.76949997E+02 -0.66221E+05
 0.76999992E+02 -0.91202E+04
 0.77049995E+02  0.32615E+05
 0.77099998E+02  0.61200E+05
 0.77149994E+02  0.84771E+05
 0.77199997E+02  0.99617E+05
 0.77249992E+02  0.97743E+05
 0.77299995E+02  0.69930E+05
 0.77349998E+02  0.26097E+04
 0.77399994E+02 -0.93392E+05
 0.77449997E+02 -0.17971E+06
 0.77499992E+02 -0.22533E+06
 0.77549995E+02 -0.21852E+06
 0.77599998E+02 -0.17858E+06
 0.77649994E+02 -0.12548E+06
 0.77699997E+02 -0.85865E+05
 0.77749992E+02 -0.67849E+05
 0.77799995E+02 -0.58898E+05
 0.77849998E+02 -0.61459E+05
 0.77899994E+02 -0.72168E+05
 0.77949997E+02 -0.97744E+05
 0.77999992E+02 -0.14023E+06
 0.78049995E+02 -0.17476E+06
 0.78099998E+02 -0.18348E+06
 0.78149994E+02 -0.16816E+06
 0.78199997E+02 -0.14202E+06
 0.78249992E+02 -0.11796E+06
 0.78299995E+02 -0.84301E+05
 0.78349998E+02 -0.21435E+05
 0.78399994E+02  0.76043E+05
 0.78449997E+02  0.19901E+06
 0.78499992E+02  0.32885E+06
 0.78549995E+02  0.45170E+06
 0.78599998E+02  0.54474E+06
 0.78649994E+02  0.58663E+06
 0.78699997E+02  0.57794E+06
 0.78749992E+02  0.52581E+06
 0.78799995E+02  0.43592E+06
 0.78849998E+02  0.31816E+06
 0.78899994E+02  0.17854E+06
 0.78949997E+02  0.33507E+05
 0.78999992E+02 -0.11012E+06
 0.79049995E+02 -0.26199E+06
 0.79099998E+02 -0.40769E+06
 0.79149994E+02 -0.53002E+06
 0.79199997E+02 -0.61348E+06
 0.79249992E+02 -0.65336E+06
 0.79299995E+02 -0.67278E+06
 0.79349998E+02 -0.68905E+06
 0.79399994E+02 -0.69068E+06
 0.79449997E+02 -0.66246E+06
 0.79499992E+02 -0.61523E+06
 0.79549995E+02 -0.55883E+06
 0.79599998E+02 -0.48492E+06
 0.79649994E+02 -0.39332E+06
 0.79699997E+02 -0.30398E+06
 0.79749992E+02 -0.23046E+06
 0.79799995E+02 -0.17905E+06
 0.79849998E+02 -0.16230E+06
 0.79899994E+02 -0.17900E+06
 0.79949997E+02 -0.21086E+06
 0.79999992E+02 -0.24699E+06
 0.80049995E+02 -0.28012E+06
 0.80099998E+02 -0.27999E+06
 0.80149994E+02 -0.23372E+06
 0.80199997E+02 -0.15998E+06
 0.80249992E+02 -0.73074E+05
 0.80299995E+02  0.28220E+05
 0.80349998E+02  0.13383E+06
 0.80399994E+02  0.22223E+06
 0.80449997E+02  0.28241E+06
 0.80499992E+02  0.30920E+06
 0.80549995E+02  0.31319E+06
 0.80599998E+02  0.31103E+06
 0.80649994E+02  0.32021E+06
 0.80699997E+02  0.34510E+06
 0.80749992E+02  0.37096E+06
 0.80799995E+02  0.40217E+06
 0.80849998E+02  0.44918E+06
 0.80899994E+02  0.52099E+06
 0.80949997E+02  0.62068E+06
 0.80999992E+02  0.73184E+06
 0.81049995E+02  0.83079E+06
 0.81099998E+02  0.88440E+06
 0.81149994E+02  0.87576E+06
 0.81199997E+02  0.81240E+06
 0.81249992E+02  0.71311E+06
 0.81299995E+02  0.60722E+06
 0.81349998E+02  0.51182E+06
 0.81399994E+02  0.42860E+06
 0.81449997E+02  0.34469E+06
 0.81499992E+02  0.24450E+06
 0.81549995E+02  0.12826E+06
 0.81599998E+02  0.14675E+05
 0.81649994E+02 -0.79410E+05
 0.81699997E+02 -0.15010E+06
 0.81749992E+02 -0.20194E+06
 0.81799995E+02 -0.24216E+06
 0.81849998E+02 -0.27001E+06
 0.81899994E+02 -0.28027E+06
 0.81949997E+02 -0.26742E+06
 0.81999992E+02 -0.23072E+06
 0.82049995E+02 -0.17274E+06
 0.82099998E+02 -0.11589E+06
 0.82149994E+02 -0.77911E+05
 0.82199997E+02 -0.55887E+05
 0.82249992E+02 -0.49137E+05
 0.82299995E+02 -0.59890E+05
 0.82349998E+02 -0.93194E+05
 0.82399994E+02 -0.15255E+06
 0.82449997E+02 -0.23188E+06
 0.82499992E+02 -0.31758E+06
 0.82549995E+02 -0.39811E+06
 0.82599998E+02 -0.46473E+06
 0.82649994E+02 -0.51536E+06
 0.82699997E+02 -0.55977E+06
 0.82749992E+02 -0.61286E+06
 0.82799995E+02 -0.67686E+06
 0.82849998E+02 -0.73192E+06
 0.82899994E+02 -0.76386E+06
 0.82949997E+02 -0.77102E+06
 0.82999992E+02 -0.74982E+06
 0.83049995E+02 -0.68586E+06
 0.83099998E+02 -0.56856E+06
 0.83149994E+02 -0.40979E+06
 0.83199997E+02 -0.23726E+06
 0.83249992E+02 -0.87482E+05
 0.83299995E+02  0.12199E+05
 0.83349998E+02  0.57631E+05
 0.83399994E+02  0.65936E+05
 0.83449997E+02  0.66899E+05
 0.83499992E+02  0.93133E+05
 0.83549995E+02  0.15480E+06
 0.83599998E+02  0.23668E+06
 0.83649994E+02  0.32878E+06
 0.83699997E+02  0.43813E+06
 0.83749992E+02  0.56870E+06
 0.83799995E+02  0.71391E+06
 0.83849998E+02  0.85235E+06
 0.83899994E+02  0.96150E+06
 0.83949997E+02  0.10252E+07
 0.83999992E+02  0.10396E+07
 0.84049995E+02  0.10181E+07
 0.84099998E+02  0.96544E+06
 0.84149994E+02  0.89291E+06
 0.84199997E+02  0.81707E+06
 0.84249992E+02  0.74972E+06
 0.84299995E+02  0.69433E+06
 0.84349998E+02  0.64125E+06
 0.84399994E+02  0.57781E+06
 0.84449997E+02  0.49950E+06
 0.84499992E+02  0.41827E+06
 0.84549995E+02  0.34363E+06
 0.84599998E+02  0.26985E+06
 0.84649994E+02  0.18923E+06
 0.84699997E+02  0.10505E+06
 0.84749992E+02  0.27144E+05
 0.84799995E+02 -0.31532E+05
 0.84849998E+02 -0.72398E+05
 0.84899994E+02 -0.97857E+05
 0.84949997E+02 -0.10497E+06
 0.84999992E+02 -0.10153E+06
 0.85049995E+02 -0.97385E+05
 0.85099998E+02 -0.10226E+06
 0.85149994E+02 -0.11257E+06
 0.85199997E+02 -0.11991E+06
 0.85249992E+02 -0.12064E+06
 0.85299995E+02 -0.11664E+06
 0.85349998E+02 -0.11352E+06
 0.85399994E+02 -0.11660E+06
 0.85449997E+02 -0.13289E+06
 0.85499992E+02 -0.16498E+06
 0.85549995E+02 -0.21436E+06
 0.85599998E+02 -0.27298E+06
 0.85649994E+02 -0.32495E+06
 0.85699997E+02 -0.36892E+06
 0.85749992E+02 -0.40908E+06
 0.85799995E+02 -0.44567E+06
 0.85849998E+02 -0.48786E+06
 0.85899994E+02 -0.53824E+06
 0.85949997E+02 -0.59299E+06
 0.85999992E+02 -0.64923E+06
 0.86049995E+02 -0.70438E+06
 0.86099998E+02 -0.75581E+06
 0.86149994E+02 -0.79758E+06
 0.86199997E+02 -0.82659E+06
 0.86249992E+02 -0.84293E+06
 0.86299995E+02 -0.84782E+06
 0.86349998E+02 -0.84150E+06
 0.86399994E+02 -0.81849E+06
 0.86449997E+02 -0.77095E+06
 0.86499992E+02 -0.70140E+06
 0.86549995E+02 -0.62605E+06
 0.86599998E+02 -0.55796E+06
 0.86649994E+02 -0.49762E+06
 0.86699997E+02 -0.44281E+06
 0.86749992E+02 -0.38630E+06
 0.86799995E+02 -0.31616E+06
 0.86849998E+02 -0.22813E+06
 0.86899994E+02 -0.13432E+06
 0.86949997E+02 -0.41176E+05
 0.86999992E+02  0.49586E+05
 0.87049995E+02  0.13071E+06
 0.87099998E+02  0.20189E+06
 0.87149994E+02  0.26692E+06
 0.87199997E+02  0.33247E+06
 0.87249992E+02  0.40201E+06
 0.87299995E+02  0.47007E+06
 0.87349998E+02  0.52831E+06
 0.87399994E+02  0.57140E+06
 0.87449997E+02  0.60684E+06
 0.87499992E+02  0.64195E+06
 0.87549995E+02  0.67149E+06
 0.87599991E+02  0.69187E+06
 0.87649994E+02  0.70413E+06
 0.87699997E+02  0.70267E+06
 0.87749992E+02  0.67495E+06
 0.87799995E+02  0.61359E+06
 0.87849991E+02  0.51490E+06
 0.87899994E+02  0.38824E+06
 0.87949997E+02  0.25454E+06
 0.87999992E+02  0.13331E+06
 0.88049995E+02  0.33626E+05
 0.88099991E+02 -0.36418E+05
 0.88149994E+02 -0.77599E+05
 0.88199997E+02 -0.10855E+06
 0.88249992E+02 -0.14414E+06
 0.88299995E+02 -0.18492E+06
 0.88349991E+02 -0.22271E+06
 0.88399994E+02 -0.24758E+06
 0.88449997E+02 -0.24993E+06
 0.88499992E+02 -0.23140E+06
 0.88549995E+02 -0.19816E+06
 0.88599991E+02 -0.16174E+06
 0.88649994E+02 -0.13215E+06
 0.88699997E+02 -0.10752E+06
 0.88749992E+02 -0.82052E+05
 0.88799995E+02 -0.58392E+05
 0.88849991E+02 -0.43870E+05
 0.88899994E+02 -0.33035E+05
 0.88949997E+02 -0.12793E+05
 0.88999992E+02  0.23983E+05
 0.89049995E+02  0.76514E+05
 0.89099991E+02  0.14187E+06
 0.89149994E+02  0.21109E+06
 0.89199997E+02  0.27246E+06
 0.89249992E+02  0.32562E+06
 0.89299995E+02  0.37193E+06
 0.89349991E+02  0.41208E+06
 0.89399994E+02  0.44835E+06
 0.89449997E+02  0.48133E+06
 0.89499992E+02  0.50753E+06
 0.89549995E+02  0.52269E+06
 0.89599991E+02  0.52610E+06
 0.89649994E+02  0.51079E+06
 0.89699997E+02  0.47009E+06
 0.89749992E+02  0.40238E+06
 0.89799995E+02  0.31591E+06
 0.89849991E+02  0.22275E+06
 0.89899994E+02  0.13199E+06
 0.89949997E+02  0.52005E+05
 0.89999992E+02 -0.16658E+05
 0.90049995E+02 -0.82883E+05
 0.90099991E+02 -0.14861E+06
 0.90149994E+02 -0.21224E+06
 0.90199997E+02 -0.27992E+06
 0.90249992E+02 -0.35150E+06
 0.90299995E+02 -0.41960E+06
 0.90349991E+02 -0.47462E+06
 0.90399994E+02 -0.51794E+06
 0.90449997E+02 -0.55770E+06
 0.90499992E+02 -0.59712E+06
 0.90549995E+02 -0.64216E+06
 0.90599991E+02 -0.69377E+06
 0.90649994E+02 -0.74229E+06
 0.90699997E+02 -0.77065E+06
 0.90749992E+02 -0.76450E+06
 0.90799995E+02 -0.72540E+06
 0.90849991E+02 -0.66668E+06
 0.90899994E+02 -0.60142E+06
 0.90949997E+02 -0.53285E+06
 0.90999992E+02 -0.45381E+06
 0.91049995E+02 -0.35831E+06
 0.91099991E+02 -0.24468E+06
 0.91149994E+02 -0.11098E+06
 0.91199997E+02  0.34863E+05
 0.91249992E+02  0.18519E+06
 0.91299995E+02  0.33669E+06
 0.91349991E+02  0.48400E+06
 0.91399994E+02  0.62458E+06
 0.91449997E+02  0.74763E+06
 0.91499992E+02  0.84071E+06
 0.91549995E+02  0.89371E+06
 0.91599991E+02  0.90204E+06
 0.91649994E+02  0.86856E+06
 0.91699997E+02  0.80146E+06
 0.91749992E+02  0.70999E+06
 0.91799995E+02  0.59813E+06
 0.91849991E+02  0.46708E+06
 0.91899994E+02  0.31438E+06
 0.91949997E+02  0.14470E+06
 0.91999992E+02 -0.27091E+05
 0.92049995E+02 -0.17991E+06
 0.92099991E+02 -0.29775E+06
 0.92149994E+02 -0.37510E+06
 0.92199997E+02 -0.41436E+06
 0.92249992E+02 -0.42299E+06
 0.92299995E+02 -0.40959E+06
 0.92349991E+02 -0.38165E+06
 0.92399994E+02 -0.34268E+06
 0.92449997E+02 -0.29873E+06
 0.92499992E+02 -0.25402E+06
 0.92549995E+02 -0.20366E+06
 0.92599991E+02 -0.14426E+06
 0.92649994E+02 -0.80229E+05
 0.92699997E+02 -0.20267E+05
 0.92749992E+02  0.27356E+05
 0.92799995E+02  0.59303E+05
 0.92849991E+02  0.78249E+05
 0.92899994E+02  0.88467E+05
 0.92949997E+02  0.92027E+05
 0.92999992E+02  0.96423E+05
 0.93049995E+02  0.10746E+06
 0.93099991E+02  0.12437E+06
 0.93149994E+02  0.14741E+06
 0.93199997E+02  0.17966E+06
 0.93249992E+02  0.21191E+06
 0.93299995E+02  0.22356E+06
 0.93349991E+02  0.19492E+06
 0.93399994E+02  0.11442E+06
 0.93449997E+02 -0.15185E+05
 0.93499992E+02 -0.17679E+06
 0.93549995E+02 -0.34575E+06
 0.93599991E+02 -0.51332E+06
 0.93649994E+02 -0.67689E+06
 0.93699997E+02 -0.82221E+06
 0.93749992E+02 -0.93715E+06
 0.93799995E+02 -0.10197E+07
 0.93849991E+02 -0.10649E+07
 0.93899994E+02 -0.10687E+07
 0.93949997E+02 -0.10295E+07
 0.93999992E+02 -0.94915E+06
 0.94049995E+02 -0.83266E+06
 0.94099991E+02 -0.68818E+06
 0.94149994E+02 -0.52922E+06
 0.94199997E+02 -0.35380E+06
 0.94249992E+02 -0.15195E+06
 0.94299995E+02  0.71600E+05
 0.94349991E+02  0.30535E+06
 0.94399994E+02  0.53876E+06
 0.94449997E+02  0.75702E+06
 0.94499992E+02  0.94149E+06
 0.94549995E+02  0.10740E+07
 0.94599991E+02  0.11509E+07
 0.94649994E+02  0.11805E+07
 0.94699997E+02  0.11718E+07
 0.94749992E+02  0.11368E+07
 0.94799995E+02  0.10830E+07
 0.94849991E+02  0.10140E+07
 0.94899994E+02  0.93585E+06
 0.94949997E+02  0.84652E+06
 0.94999992E+02  0.74057E+06
 0.95049995E+02  0.62236E+06
 0.95099991E+02  0.50556E+06
 0.95149994E+02  0.40231E+06
 0.95199997E+02  0.31228E+06
 0.95249992E+02  0.23416E+06
 0.95299995E+02  0.16749E+06
 0.95349991E+02  0.10413E+06
 0.95399994E+02  0.35970E+05
 0.95449997E+02 -0.36852E+05
 0.95499992E+02 -0.10910E+06
 0.95549995E+02 -0.17157E+06
 0.95599991E+02 -0.21370E+06
 0.95649994E+02 -0.22721E+06
 0.95699997E+02 -0.21140E+06
 0.95749992E+02 -0.17240E+06
 0.95799995E+02 -0.11458E+06
 0.95849991E+02 -0.39130E+05
 0.95899994E+02  0.51645E+05
 0.95949997E+02  0.15039E+06
 0.95999992E+02  0.25069E+06
 0.96049995E+02  0.34891E+06
 0.96099991E+02  0.43832E+06
 0.96149994E+02  0.50760E+06
 0.96199997E+02  0.54325E+06
 0.96249992E+02  0.53976E+06
 0.96299995E+02  0.50194E+06
 0.96349991E+02  0.43844E+06
 0.96399994E+02  0.35222E+06
 0.96449997E+02  0.24426E+06
 0.96499992E+02  0.11973E+06
 0.96549995E+02 -0.16920E+05
 0.96599991E+02 -0.16115E+06
 0.96649994E+02 -0.30734E+06
 0.96699997E+02 -0.44562E+06
 0.96749992E+02 -0.56936E+06
 0.96799995E+02 -0.67503E+06
 0.96849991E+02 -0.75608E+06
 0.96899994E+02 -0.80632E+06
 0.96949997E+02 -0.82394E+06
 0.96999992E+02 -0.81432E+06
 0.97049995E+02 -0.78985E+06
 0.97099991E+02 -0.75601E+06
 0.97149994E+02 -0.71688E+06
 0.97199997E+02 -0.66937E+06
 0.97249992E+02 -0.60523E+06
 0.97299995E+02 -0.53067E+06
 0.97349991E+02 -0.45372E+06
 0.97399994E+02 -0.37402E+06
 0.97449997E+02 -0.28948E+06
 0.97499992E+02 -0.20686E+06
 0.97549995E+02 -0.13594E+06
 0.97599991E+02 -0.79746E+05
 0.97649994E+02 -0.33526E+05
 0.97699997E+02  0.58210E+04
 0.97749992E+02  0.39169E+05
 0.97799995E+02  0.65647E+05
 0.97849991E+02  0.81493E+05
 0.97899994E+02  0.83557E+05
 0.97949997E+02  0.73639E+05
 0.97999992E+02  0.55302E+05
