-0.20000000E+01  0.52923E+04
-0.19500000E+01  0.52708E+04
-0.19000000E+01  0.52939E+04
-0.18500000E+01  0.52936E+04
-0.18000000E+01  0.52963E+04
-0.17500000E+01  0.52957E+04
-0.17000000E+01  0.52961E+04
-0.16500001E+01  0.52950E+04
-0.16000000E+01  0.52964E+04
-0.15500000E+01  0.52978E+04
-0.15000000E+01  0.52975E+04
-0.14500000E+01  0.52984E+04
-0.14000001E+01  0.52953E+04
-0.13500000E+01  0.52974E+04
-0.13000001E+01  0.52979E+04
-0.12500000E+01  0.52931E+04
-0.12000000E+01  0.52956E+04
-0.11500001E+01  0.52940E+04
-0.11000000E+01  0.52925E+04
-0.10500001E+01  0.52895E+04
-0.10000000E+01  0.52893E+04
-0.95000005E+00  0.52885E+04
-0.90000010E+00  0.52906E+04
-0.85000002E+00  0.52930E+04
-0.80000007E+00  0.52925E+04
-0.75000012E+00  0.52951E+04
-0.70000005E+00  0.52946E+04
-0.65000010E+00  0.52975E+04
-0.60000014E+00  0.52963E+04
-0.55000007E+00  0.52954E+04
-0.50000012E+00  0.52978E+04
-0.45000005E+00  0.52995E+04
-0.40000010E+00  0.52983E+04
-0.35000014E+00  0.52967E+04
-0.30000007E+00  0.53006E+04
-0.25000012E+00  0.53007E+04
-0.20000005E+00  0.53009E+04
-0.15000010E+00  0.53008E+04
-0.10000014E+00  0.52993E+04
-0.50000072E-01  0.52993E+04
-0.11920929E-06  0.52969E+04
 0.49999952E-01  0.52976E+04
 0.99999905E-01  0.52956E+04
 0.14999986E+00  0.52948E+04
 0.19999981E+00  0.52943E+04
 0.24999976E+00  0.52905E+04
 0.29999995E+00  0.52892E+04
 0.34999990E+00  0.52911E+04
 0.39999986E+00  0.52897E+04
 0.44999981E+00  0.52883E+04
 0.49999976E+00  0.52916E+04
 0.54999995E+00  0.52924E+04
 0.59999990E+00  0.52920E+04
 0.64999986E+00  0.52884E+04
 0.69999981E+00  0.52883E+04
 0.74999976E+00  0.52922E+04
 0.79999971E+00  0.52926E+04
 0.84999990E+00  0.52931E+04
 0.89999986E+00  0.52962E+04
 0.94999981E+00  0.52990E+04
 0.99999976E+00  0.52964E+04
 0.10499997E+01  0.52964E+04
 0.10999999E+01  0.52969E+04
 0.11499999E+01  0.52968E+04
 0.11999998E+01  0.52991E+04
 0.12499998E+01  0.52958E+04
 0.12999997E+01  0.52956E+04
 0.13499999E+01  0.52979E+04
 0.13999999E+01  0.52981E+04
 0.14499998E+01  0.52983E+04
 0.14999998E+01  0.52965E+04
 0.15499997E+01  0.52963E+04
 0.15999999E+01  0.52923E+04
 0.16499999E+01  0.52902E+04
 0.16999998E+01  0.52915E+04
 0.17499998E+01  0.52906E+04
 0.17999997E+01  0.52915E+04
 0.18499997E+01  0.52894E+04
 0.18999999E+01  0.52909E+04
 0.19499998E+01  0.52935E+04
 0.19999998E+01  0.52929E+04
 0.20499997E+01  0.52934E+04
 0.20999999E+01  0.52964E+04
 0.21499996E+01  0.53018E+04
 0.21999998E+01  0.53020E+04
 0.22499995E+01  0.52991E+04
 0.22999997E+01  0.53012E+04
 0.23499999E+01  0.53001E+04
 0.23999996E+01  0.52990E+04
 0.24499998E+01  0.52973E+04
 0.24999995E+01  0.52938E+04
 0.25499997E+01  0.52958E+04
 0.25999999E+01  0.52936E+04
 0.26499996E+01  0.52923E+04
 0.26999998E+01  0.52933E+04
 0.27499995E+01  0.52948E+04
 0.27999997E+01  0.52935E+04
 0.28499999E+01  0.52913E+04
 0.28999996E+01  0.52902E+04
 0.29499998E+01  0.52928E+04
 0.29999995E+01  0.52940E+04
 0.30499997E+01  0.52928E+04
 0.30999999E+01  0.52923E+04
 0.31499996E+01  0.52914E+04
 0.31999998E+01  0.52937E+04
 0.32499995E+01  0.52911E+04
 0.32999997E+01  0.52894E+04
 0.33499999E+01  0.52866E+04
 0.33999996E+01  0.52886E+04
 0.34499998E+01  0.52869E+04
 0.34999995E+01  0.52847E+04
 0.35499997E+01  0.52829E+04
 0.35999994E+01  0.52834E+04
 0.36499996E+01  0.52892E+04
 0.36999998E+01  0.52891E+04
 0.37499995E+01  0.52906E+04
 0.37999997E+01  0.52866E+04
 0.38499994E+01  0.52886E+04
 0.38999996E+01  0.52909E+04
 0.39499998E+01  0.52914E+04
 0.39999995E+01  0.52931E+04
 0.40499997E+01  0.52949E+04
 0.40999994E+01  0.52976E+04
 0.41499996E+01  0.52961E+04
 0.41999998E+01  0.52958E+04
 0.42499995E+01  0.52985E+04
 0.42999997E+01  0.52996E+04
 0.43499994E+01  0.52987E+04
 0.43999996E+01  0.52979E+04
 0.44499998E+01  0.52993E+04
 0.44999995E+01  0.52996E+04
 0.45499997E+01  0.52988E+04
 0.45999994E+01  0.52987E+04
 0.46499996E+01  0.52987E+04
 0.46999998E+01  0.52970E+04
 0.47499995E+01  0.52986E+04
 0.47999997E+01  0.52976E+04
 0.48499994E+01  0.52981E+04
 0.48999996E+01  0.53041E+04
 0.49499998E+01  0.53011E+04
 0.49999995E+01  0.53023E+04
 0.50499997E+01  0.53012E+04
 0.50999994E+01  0.53002E+04
 0.51499996E+01  0.53022E+04
 0.51999998E+01  0.53005E+04
 0.52499995E+01  0.53014E+04
 0.52999997E+01  0.53033E+04
 0.53499994E+01  0.53024E+04
 0.53999996E+01  0.52981E+04
 0.54499993E+01  0.52991E+04
 0.54999995E+01  0.52987E+04
 0.55499997E+01  0.53008E+04
 0.55999994E+01  0.53011E+04
 0.56499996E+01  0.52981E+04
 0.56999993E+01  0.52980E+04
 0.57499995E+01  0.52970E+04
 0.57999997E+01  0.52964E+04
 0.58499994E+01  0.52929E+04
 0.58999996E+01  0.52943E+04
 0.59499993E+01  0.52922E+04
 0.59999995E+01  0.52916E+04
 0.60499992E+01  0.52909E+04
 0.60999994E+01  0.52909E+04
 0.61499996E+01  0.52909E+04
 0.61999998E+01  0.52893E+04
 0.62499990E+01  0.52900E+04
 0.62999992E+01  0.52884E+04
 0.63499994E+01  0.52882E+04
 0.63999996E+01  0.52833E+04
 0.64499998E+01  0.52829E+04
 0.64999990E+01  0.52873E+04
 0.65499992E+01  0.52881E+04
 0.65999994E+01  0.52859E+04
 0.66499996E+01  0.52870E+04
 0.66999998E+01  0.52882E+04
 0.67499990E+01  0.52875E+04
 0.67999992E+01  0.52885E+04
 0.68499994E+01  0.52888E+04
 0.68999996E+01  0.52895E+04
 0.69499998E+01  0.52923E+04
 0.69999990E+01  0.52950E+04
 0.70499992E+01  0.52966E+04
 0.70999994E+01  0.52984E+04
 0.71499996E+01  0.53022E+04
 0.71999998E+01  0.53013E+04
 0.72499990E+01  0.53007E+04
 0.72999992E+01  0.52980E+04
 0.73499994E+01  0.52946E+04
 0.73999996E+01  0.52940E+04
 0.74499998E+01  0.52921E+04
 0.74999990E+01  0.52963E+04
 0.75499992E+01  0.52961E+04
 0.75999994E+01  0.52990E+04
 0.76499996E+01  0.52991E+04
 0.76999998E+01  0.52963E+04
 0.77499990E+01  0.52992E+04
 0.77999992E+01  0.53015E+04
 0.78499994E+01  0.53001E+04
 0.78999996E+01  0.52993E+04
 0.79499998E+01  0.53022E+04
 0.79999990E+01  0.53010E+04
 0.80499992E+01  0.53022E+04
 0.80999994E+01  0.52997E+04
 0.81499996E+01  0.52986E+04
 0.81999998E+01  0.52984E+04
 0.82499990E+01  0.52995E+04
 0.82999992E+01  0.52995E+04
 0.83499994E+01  0.52967E+04
 0.83999996E+01  0.52993E+04
 0.84499998E+01  0.52960E+04
 0.84999990E+01  0.52977E+04
 0.85499992E+01  0.52949E+04
 0.85999994E+01  0.52935E+04
 0.86499996E+01  0.52946E+04
 0.86999998E+01  0.52932E+04
 0.87499990E+01  0.52972E+04
 0.87999992E+01  0.52976E+04
 0.88499994E+01  0.52965E+04
 0.88999996E+01  0.52972E+04
 0.89499998E+01  0.52992E+04
 0.89999990E+01  0.52952E+04
 0.90499992E+01  0.52957E+04
 0.90999994E+01  0.52943E+04
 0.91499996E+01  0.52904E+04
 0.91999989E+01  0.52917E+04
 0.92499990E+01  0.52906E+04
 0.92999992E+01  0.52911E+04
 0.93499994E+01  0.52902E+04
 0.93999996E+01  0.52886E+04
 0.94499989E+01  0.52851E+04
 0.94999990E+01  0.52841E+04
 0.95499992E+01  0.52848E+04
 0.95999994E+01  0.52865E+04
 0.96499996E+01  0.52897E+04
 0.96999989E+01  0.52939E+04
 0.97499990E+01  0.52959E+04
 0.97999992E+01  0.52929E+04
 0.98499994E+01  0.52940E+04
 0.98999996E+01  0.52954E+04
 0.99499989E+01  0.52950E+04
 0.99999990E+01  0.52964E+04
 0.10049999E+02  0.53010E+04
 0.10099999E+02  0.52982E+04
 0.10150000E+02  0.52981E+04
 0.10199999E+02  0.53031E+04
 0.10249999E+02  0.52995E+04
 0.10299999E+02  0.52985E+04
 0.10349999E+02  0.52993E+04
 0.10400000E+02  0.52968E+04
 0.10449999E+02  0.52984E+04
 0.10499999E+02  0.52986E+04
 0.10549999E+02  0.52951E+04
 0.10599999E+02  0.52938E+04
 0.10650000E+02  0.52938E+04
 0.10699999E+02  0.52935E+04
 0.10749999E+02  0.52929E+04
 0.10799999E+02  0.52920E+04
 0.10849999E+02  0.52925E+04
 0.10900000E+02  0.52905E+04
 0.10949999E+02  0.52909E+04
 0.10999999E+02  0.52903E+04
 0.11049999E+02  0.52928E+04
 0.11099999E+02  0.52930E+04
 0.11150000E+02  0.52918E+04
 0.11199999E+02  0.52965E+04
 0.11249999E+02  0.52970E+04
 0.11299999E+02  0.53018E+04
 0.11349999E+02  0.53026E+04
 0.11400000E+02  0.52998E+04
 0.11449999E+02  0.53002E+04
 0.11499999E+02  0.53009E+04
 0.11549999E+02  0.53026E+04
 0.11599999E+02  0.53055E+04
 0.11650000E+02  0.53033E+04
 0.11699999E+02  0.53029E+04
 0.11749999E+02  0.53031E+04
 0.11799999E+02  0.52998E+04
 0.11849999E+02  0.53021E+04
 0.11900000E+02  0.53016E+04
 0.11949999E+02  0.53014E+04
 0.11999999E+02  0.52998E+04
 0.12049999E+02  0.52980E+04
 0.12099999E+02  0.52963E+04
 0.12150000E+02  0.52940E+04
 0.12199999E+02  0.52902E+04
 0.12249999E+02  0.52863E+04
 0.12299999E+02  0.52886E+04
 0.12349999E+02  0.52869E+04
 0.12400000E+02  0.52863E+04
 0.12449999E+02  0.52847E+04
 0.12499999E+02  0.52827E+04
 0.12549999E+02  0.52832E+04
 0.12599999E+02  0.52838E+04
 0.12649999E+02  0.52845E+04
 0.12699999E+02  0.52865E+04
 0.12749999E+02  0.52898E+04
 0.12799999E+02  0.52879E+04
 0.12849999E+02  0.52857E+04
 0.12899999E+02  0.52905E+04
 0.12949999E+02  0.52931E+04
 0.12999999E+02  0.52920E+04
 0.13049999E+02  0.52941E+04
 0.13099999E+02  0.52913E+04
 0.13149999E+02  0.52904E+04
 0.13199999E+02  0.52927E+04
 0.13249999E+02  0.52940E+04
 0.13299999E+02  0.52948E+04
 0.13349999E+02  0.52950E+04
 0.13399999E+02  0.52976E+04
 0.13449999E+02  0.52980E+04
 0.13499999E+02  0.52963E+04
 0.13549999E+02  0.52970E+04
 0.13599999E+02  0.52980E+04
 0.13649999E+02  0.52971E+04
 0.13699999E+02  0.52980E+04
 0.13749999E+02  0.52972E+04
 0.13799999E+02  0.52976E+04
 0.13849999E+02  0.52978E+04
 0.13899999E+02  0.53004E+04
 0.13949999E+02  0.52991E+04
 0.13999999E+02  0.52986E+04
 0.14049999E+02  0.52993E+04
 0.14099998E+02  0.52972E+04
 0.14150000E+02  0.52994E+04
 0.14199999E+02  0.52975E+04
 0.14249998E+02  0.53004E+04
 0.14299999E+02  0.52992E+04
 0.14349998E+02  0.53001E+04
 0.14400000E+02  0.53015E+04
 0.14449999E+02  0.52996E+04
 0.14499998E+02  0.52964E+04
 0.14549999E+02  0.52990E+04
 0.14599998E+02  0.52954E+04
 0.14650000E+02  0.52956E+04
 0.14699999E+02  0.52874E+04
 0.14749998E+02  0.52797E+04
 0.14799999E+02  0.52709E+04
 0.14849998E+02  0.52939E+04
 0.14900000E+02  0.52927E+04
 0.14949999E+02  0.52574E+04
 0.14999998E+02  0.52834E+04
 0.15049999E+02  0.52662E+04
 0.15099998E+02  0.52860E+04
 0.15150000E+02  0.52573E+04
 0.15199999E+02  0.52980E+04
 0.15249998E+02  0.52289E+04
 0.15299999E+02  0.52887E+04
 0.15349998E+02  0.53206E+04
 0.15400000E+02  0.52127E+04
 0.15449999E+02  0.52630E+04
 0.15499998E+02  0.52690E+04
 0.15549999E+02  0.52341E+04
 0.15599998E+02  0.53105E+04
 0.15650000E+02  0.53494E+04
 0.15699999E+02  0.53088E+04
 0.15749998E+02  0.54592E+04
 0.15799999E+02  0.55002E+04
 0.15849998E+02  0.54181E+04
 0.15900000E+02  0.53150E+04
 0.15949999E+02  0.50151E+04
 0.15999998E+02  0.49375E+04
 0.16049999E+02  0.54043E+04
 0.16099998E+02  0.50555E+04
 0.16150000E+02  0.56768E+04
 0.16199999E+02  0.53470E+04
 0.16249998E+02  0.42427E+04
 0.16299999E+02  0.65337E+04
 0.16349998E+02  0.54941E+04
 0.16400000E+02  0.50867E+04
 0.16449999E+02  0.65134E+04
 0.16499998E+02  0.58345E+04
 0.16549999E+02  0.59370E+04
 0.16599998E+02  0.39709E+04
 0.16650000E+02  0.42238E+04
 0.16699999E+02  0.47003E+04
 0.16749998E+02  0.42990E+04
 0.16799999E+02  0.67937E+04
 0.16849998E+02  0.42934E+04
 0.16900000E+02  0.44626E+04
 0.16949999E+02  0.71199E+04
 0.16999998E+02  0.39402E+04
 0.17049999E+02  0.51459E+04
 0.17099998E+02  0.71163E+04
 0.17150000E+02  0.44199E+04
 0.17199999E+02  0.76467E+04
 0.17249998E+02  0.49427E+04
 0.17299999E+02  0.29150E+04
 0.17349998E+02  0.69662E+04
 0.17400000E+02  0.27607E+04
 0.17449999E+02  0.70013E+04
 0.17499998E+02  0.69925E+04
 0.17549999E+02  0.32955E+04
 0.17599998E+02  0.71366E+04
 0.17650000E+02  0.49511E+04
 0.17699999E+02  0.14294E+04
 0.17749998E+02  0.10218E+05
 0.17799999E+02  0.49211E+04
 0.17849998E+02  0.33836E+04
 0.17900000E+02  0.68353E+04
 0.17949999E+02  0.37828E+04
 0.17999998E+02  0.67122E+04
 0.18049999E+02  0.34222E+04
 0.18099998E+02  0.30551E+04
 0.18150000E+02  0.64969E+04
 0.18199999E+02  0.58586E+04
 0.18249998E+02  0.37003E+04
 0.18299999E+02  0.66508E+04
 0.18349998E+02  0.35842E+04
 0.18400000E+02  0.76657E+04
 0.18449999E+02  0.44517E+04
 0.18499998E+02  0.74014E+04
 0.18549999E+02  0.66740E+04
 0.18599998E+02  0.25478E+04
 0.18650000E+02  0.78854E+04
 0.18699999E+02  0.66655E+04
 0.18749998E+02  0.16387E+04
 0.18799999E+02  0.67775E+04
 0.18849998E+02  0.59435E+04
 0.18900000E+02  0.77553E+03
 0.18949999E+02  0.95696E+04
 0.18999998E+02  0.33055E+04
 0.19049999E+02  0.36110E+04
 0.19099998E+02  0.54884E+04
 0.19150000E+02  0.95696E+04
 0.19199999E+02  0.37819E+04
 0.19249998E+02  0.33380E+04
 0.19299999E+02  0.67602E+04
 0.19349998E+02  0.37868E+04
 0.19400000E+02  0.37654E+04
 0.19449999E+02  0.87202E+04
 0.19499998E+02  0.43979E+04
 0.19549999E+02  0.16978E+04
 0.19599998E+02  0.11735E+05
 0.19650000E+02  0.16280E+04
 0.19699999E+02  0.49667E+04
 0.19749998E+02  0.66573E+04
 0.19799999E+02  0.33993E+04
 0.19849998E+02  0.72218E+04
 0.19900000E+02  0.83248E+04
 0.19949999E+02  0.35178E+04
 0.19999998E+02  0.29271E+04
 0.20049999E+02  0.70997E+04
 0.20099998E+02  0.50827E+04
 0.20150000E+02  0.41999E+04
 0.20199999E+02  0.58346E+04
 0.20249998E+02  0.74744E+04
 0.20299999E+02  0.24349E+04
 0.20349998E+02  0.44505E+04
 0.20399998E+02  0.75161E+04
 0.20449999E+02  0.27605E+04
 0.20499998E+02  0.46797E+04
 0.20549999E+02  0.73000E+04
 0.20599998E+02  0.59854E+04
 0.20649998E+02  0.41849E+04
 0.20699999E+02  0.44496E+04
 0.20749998E+02  0.51541E+04
 0.20799999E+02  0.83674E+04
 0.20849998E+02  0.43217E+04
 0.20899998E+02  0.45095E+04
 0.20949999E+02  0.95102E+04
 0.20999998E+02  0.10144E+04
 0.21049999E+02  0.36861E+04
 0.21099998E+02  0.96308E+04
 0.21149998E+02  0.58907E+04
 0.21199999E+02  0.10296E+04
 0.21249998E+02  0.41785E+04
 0.21299999E+02  0.81204E+04
 0.21349998E+02  0.60273E+04
 0.21399998E+02  0.49235E+04
 0.21449999E+02  0.29881E+04
 0.21499998E+02  0.81789E+04
 0.21549999E+02  0.58063E+04
 0.21599998E+02  0.33634E+04
 0.21649998E+02  0.70597E+04
 0.21699999E+02  0.31033E+04
 0.21749998E+02  0.49884E+04
 0.21799999E+02  0.65163E+04
 0.21849998E+02  0.74061E+04
 0.21899998E+02  0.36576E+04
 0.21949999E+02  0.41697E+04
 0.21999998E+02  0.66957E+04
 0.22049999E+02  0.36079E+04
 0.22099998E+02  0.64594E+04
 0.22149998E+02  0.54712E+04
 0.22199999E+02  0.55109E+04
 0.22249998E+02  0.42940E+04
 0.22299999E+02  0.66722E+04
 0.22349998E+02  0.50936E+04
 0.22399998E+02  0.27439E+04
 0.22449999E+02  0.71095E+04
 0.22499998E+02  0.65815E+04
 0.22549999E+02  0.22141E+04
 0.22599998E+02  0.51215E+04
 0.22649998E+02  0.72602E+04
 0.22699999E+02  0.55694E+04
 0.22749998E+02  0.66131E+04
 0.22799999E+02  0.35617E+04
 0.22849998E+02  0.60446E+04
 0.22899998E+02  0.61649E+04
 0.22949999E+02  0.47413E+04
 0.22999998E+02  0.41818E+04
 0.23049999E+02  0.44309E+04
 0.23099998E+02  0.71984E+04
 0.23149998E+02  0.44502E+04
 0.23199999E+02  0.43665E+04
 0.23249998E+02  0.63886E+04
 0.23299999E+02  0.39081E+04
 0.23349998E+02  0.65536E+04
 0.23399998E+02  0.50340E+04
 0.23449999E+02  0.49336E+04
 0.23499998E+02  0.50745E+04
 0.23549999E+02  0.50970E+04
 0.23599998E+02  0.59053E+04
 0.23649998E+02  0.54110E+04
 0.23699999E+02  0.52079E+04
 0.23749998E+02  0.44276E+04
 0.23799999E+02  0.73518E+04
 0.23849998E+02  0.34001E+04
 0.23899998E+02  0.58598E+04
 0.23949999E+02  0.48789E+04
 0.23999998E+02  0.51634E+04
 0.24049999E+02  0.76855E+04
 0.24099998E+02  0.41166E+04
 0.24149998E+02  0.53015E+04
 0.24199999E+02  0.49326E+04
 0.24249998E+02  0.54950E+04
 0.24299999E+02  0.46395E+04
 0.24349998E+02  0.50850E+04
 0.24399998E+02  0.71238E+04
 0.24449999E+02  0.49381E+04
 0.24499998E+02  0.35805E+04
 0.24549999E+02  0.51849E+04
 0.24599998E+02  0.87862E+04
 0.24649998E+02  0.38348E+04
 0.24699999E+02  0.11547E+04
 0.24749998E+02  0.86409E+04
 0.24799999E+02  0.61064E+04
 0.24849998E+02  0.48546E+04
 0.24899998E+02  0.59787E+04
 0.24949999E+02  0.43170E+04
 0.24999998E+02  0.62184E+04
 0.25049999E+02  0.38659E+04
 0.25099998E+02  0.57612E+04
 0.25149998E+02  0.47862E+04
 0.25199999E+02  0.46485E+04
 0.25249998E+02  0.60003E+04
 0.25299999E+02  0.49433E+04
 0.25349998E+02  0.47209E+04
 0.25399998E+02  0.61555E+04
 0.25449999E+02  0.73247E+04
 0.25499998E+02  0.28617E+04
 0.25549999E+02  0.47948E+04
 0.25599998E+02  0.57296E+04
 0.25649998E+02  0.57155E+04
 0.25699999E+02  0.70415E+04
 0.25749998E+02  0.50105E+04
 0.25799999E+02  0.43340E+04
 0.25849998E+02  0.35804E+04
 0.25899998E+02  0.42254E+04
 0.25949999E+02  0.90500E+04
 0.25999998E+02  0.43290E+04
 0.26049999E+02  0.46831E+04
 0.26099998E+02  0.52461E+04
 0.26149998E+02  0.34189E+04
 0.26199999E+02  0.81392E+04
 0.26249998E+02  0.69131E+04
 0.26299999E+02  0.38208E+04
 0.26349998E+02  0.59704E+04
 0.26399998E+02  0.70099E+04
 0.26449999E+02  0.45543E+04
 0.26499998E+02  0.47316E+04
 0.26549999E+02  0.45932E+04
 0.26599998E+02  0.47063E+04
 0.26649998E+02  0.43988E+04
 0.26699999E+02  0.41131E+04
 0.26749998E+02  0.28612E+04
 0.26799999E+02  0.95282E+04
 0.26849998E+02  0.10812E+05
 0.26899998E+02  0.44639E+04
 0.26949999E+02 -0.10851E+04
 0.26999998E+02  0.94091E+03
 0.27049997E+02  0.91826E+04
 0.27099998E+02  0.53878E+04
 0.27149998E+02  0.69971E+04
 0.27199999E+02  0.44841E+04
 0.27249998E+02  0.42967E+04
 0.27299997E+02  0.10382E+05
 0.27349998E+02  0.37861E+04
 0.27399998E+02  0.95383E+03
 0.27449999E+02  0.42295E+04
 0.27499998E+02  0.42853E+04
 0.27549997E+02  0.17861E+04
 0.27599998E+02  0.73886E+04
 0.27649998E+02  0.11219E+05
 0.27699999E+02  0.74123E+04
 0.27749998E+02  0.87507E+04
 0.27799997E+02  0.38214E+04
 0.27849998E+02 -0.25439E+04
 0.27899998E+02  0.24177E+04
 0.27949999E+02  0.86633E+04
 0.27999998E+02  0.80349E+04
 0.28049997E+02  0.65181E+04
 0.28099998E+02  0.88652E+04
 0.28149998E+02  0.60188E+04
 0.28199999E+02  0.65892E+04
 0.28249998E+02  0.75625E+04
 0.28299997E+02  0.28465E+04
 0.28349998E+02  0.25344E+04
 0.28399998E+02  0.30322E+04
 0.28449999E+02  0.68499E+04
 0.28499998E+02  0.54890E+04
 0.28549997E+02  0.10132E+04
 0.28599998E+02  0.47646E+04
 0.28649998E+02  0.48196E+04
 0.28699999E+02  0.86448E+04
 0.28749998E+02  0.48703E+04
 0.28799997E+02  0.13963E+04
 0.28849998E+02  0.11621E+04
 0.28899998E+02  0.67775E+04
 0.28949999E+02  0.11438E+05
 0.28999998E+02  0.58342E+04
 0.29049997E+02  0.11355E+05
 0.29099998E+02  0.37364E+04
 0.29149998E+02  0.57762E+04
 0.29199999E+02  0.45726E+04
 0.29249998E+02  0.40765E+04
 0.29299997E+02  0.45557E+04
 0.29349998E+02 -0.17207E+04
 0.29399998E+02  0.84977E+04
 0.29449999E+02  0.82980E+04
 0.29499998E+02  0.95249E+04
 0.29549997E+02  0.20493E+04
 0.29599998E+02  0.56209E+04
 0.29649998E+02  0.79636E+04
 0.29699999E+02 -0.11346E+04
 0.29749998E+02  0.53095E+04
 0.29799997E+02  0.28043E+04
 0.29849998E+02  0.69633E+04
 0.29899998E+02  0.89855E+04
 0.29949999E+02 -0.13362E+04
 0.29999998E+02  0.78205E+04
 0.30049999E+02  0.12165E+05
 0.30099998E+02 -0.42488E+03
 0.30149998E+02  0.45138E+04
 0.30199997E+02  0.12762E+05
 0.30249996E+02 -0.40217E+03
 0.30299999E+02  0.51330E+04
 0.30349998E+02  0.14241E+05
 0.30399998E+02 -0.22977E+04
 0.30449997E+02  0.88131E+04
 0.30499996E+02  0.86097E+04
 0.30549999E+02  0.35123E+04
 0.30599998E+02  0.59871E+04
 0.30649998E+02 -0.46756E+03
 0.30699997E+02  0.94877E+04
 0.30749996E+02  0.35682E+04
 0.30799999E+02  0.33942E+04
 0.30849998E+02  0.12750E+05
 0.30899998E+02  0.39685E+03
 0.30949997E+02  0.22607E+04
 0.30999996E+02  0.96075E+04
 0.31049999E+02  0.40754E+04
 0.31099998E+02  0.42845E+04
 0.31149998E+02  0.75207E+04
 0.31199997E+02  0.64351E+04
 0.31249996E+02  0.19996E+04
 0.31299999E+02  0.67261E+04
 0.31349998E+02  0.47280E+04
 0.31399998E+02  0.36646E+04
 0.31449997E+02  0.10267E+05
 0.31499996E+02  0.60650E+04
 0.31549999E+02  0.21284E+04
 0.31599998E+02  0.12471E+04
 0.31649998E+02  0.52321E+04
 0.31699997E+02  0.98930E+04
 0.31749996E+02  0.35648E+04
 0.31799999E+02  0.74712E+04
 0.31849998E+02  0.55969E+04
 0.31899998E+02  0.18230E+04
 0.31949997E+02  0.39083E+04
 0.31999996E+02  0.56445E+04
 0.32049999E+02  0.10650E+05
 0.32099998E+02  0.73423E+04
 0.32149998E+02 -0.30164E+03
 0.32199997E+02 -0.31303E+04
 0.32249996E+02  0.79281E+04
 0.32299999E+02  0.76414E+04
 0.32349998E+02  0.72808E+04
 0.32399998E+02  0.89213E+04
 0.32449997E+02  0.30826E+03
 0.32499996E+02  0.30088E+04
 0.32549999E+02  0.56012E+04
 0.32599998E+02  0.88722E+04
 0.32649998E+02  0.62098E+04
 0.32699997E+02 -0.22922E+03
 0.32749996E+02  0.50296E+04
 0.32799999E+02  0.49686E+04
 0.32849998E+02  0.84732E+04
 0.32899998E+02  0.92795E+04
 0.32949997E+02  0.31914E+04
 0.32999996E+02  0.17737E+04
 0.33049999E+02  0.31516E+04
 0.33099998E+02  0.66035E+04
 0.33149998E+02  0.61228E+04
 0.33199997E+02  0.64655E+04
 0.33249996E+02  0.48014E+04
 0.33299999E+02  0.43137E+04
 0.33349998E+02  0.56902E+04
 0.33399998E+02  0.11928E+04
 0.33449997E+02  0.30102E+04
 0.33499996E+02  0.72264E+04
 0.33549999E+02  0.60244E+04
 0.33599998E+02  0.30958E+04
 0.33649998E+02  0.75825E+03
 0.33699997E+02  0.52598E+04
 0.33749996E+02  0.83386E+04
 0.33799999E+02  0.76292E+04
 0.33849998E+02  0.70737E+04
 0.33899998E+02  0.51169E+04
 0.33949997E+02  0.46549E+04
 0.33999996E+02  0.45463E+04
 0.34049999E+02  0.55298E+04
 0.34099998E+02  0.92531E+04
 0.34149998E+02  0.79784E+04
 0.34199997E+02  0.54480E+04
 0.34249996E+02  0.46582E+04
 0.34299999E+02  0.14143E+04
 0.34349998E+02  0.52710E+04
 0.34399998E+02  0.83907E+04
 0.34449997E+02  0.27426E+04
 0.34499996E+02  0.51305E+04
 0.34549999E+02  0.68138E+04
 0.34599998E+02  0.30512E+04
 0.34649998E+02  0.48948E+04
 0.34699997E+02  0.54962E+04
 0.34749996E+02  0.54649E+04
 0.34799999E+02  0.52918E+04
 0.34849998E+02  0.59115E+04
 0.34899998E+02  0.49620E+04
 0.34949997E+02  0.44207E+04
 0.34999996E+02  0.70420E+04
 0.35049999E+02  0.72248E+04
 0.35099998E+02  0.41672E+04
 0.35149998E+02  0.41610E+04
 0.35199997E+02  0.49741E+04
 0.35249996E+02  0.62970E+04
 0.35299999E+02  0.90553E+04
 0.35349998E+02  0.58940E+04
 0.35399998E+02  0.50440E+04
 0.35449997E+02  0.45705E+04
 0.35499996E+02  0.35147E+04
 0.35549999E+02  0.61428E+04
 0.35599998E+02  0.65064E+04
 0.35649998E+02  0.45780E+04
 0.35699997E+02  0.30241E+04
 0.35749996E+02  0.45458E+04
 0.35799999E+02  0.63252E+04
 0.35849998E+02  0.48967E+04
 0.35899998E+02  0.54337E+04
 0.35949997E+02  0.72081E+04
 0.35999996E+02  0.61911E+04
 0.36049999E+02  0.32529E+04
 0.36099998E+02  0.34999E+04
 0.36149998E+02  0.47863E+04
 0.36199997E+02  0.59658E+04
 0.36249996E+02  0.65680E+04
 0.36299999E+02  0.34789E+04
 0.36349998E+02  0.55293E+04
 0.36399998E+02  0.60365E+04
 0.36449997E+02  0.63600E+04
 0.36499996E+02  0.77287E+04
 0.36549999E+02  0.56054E+04
 0.36599998E+02  0.41759E+04
 0.36649998E+02  0.55534E+04
 0.36699997E+02  0.66809E+04
 0.36749996E+02  0.48575E+04
 0.36799999E+02  0.46250E+04
 0.36849998E+02  0.32028E+04
 0.36899998E+02  0.36559E+04
 0.36949997E+02  0.48734E+04
 0.36999996E+02  0.51315E+04
 0.37049999E+02  0.58683E+04
 0.37099998E+02  0.59011E+04
 0.37149998E+02  0.60690E+04
 0.37199997E+02  0.62399E+04
 0.37249996E+02  0.60258E+04
 0.37299999E+02  0.46962E+04
 0.37349998E+02  0.41797E+04
 0.37399998E+02  0.40970E+04
 0.37449997E+02  0.41250E+04
 0.37499996E+02  0.56064E+04
 0.37549999E+02  0.52717E+04
 0.37599998E+02  0.53816E+04
 0.37649998E+02  0.51888E+04
 0.37699997E+02  0.45882E+04
 0.37749996E+02  0.53274E+04
 0.37799999E+02  0.63127E+04
 0.37849998E+02  0.61382E+04
 0.37899998E+02  0.61848E+04
 0.37949997E+02  0.68193E+04
 0.37999996E+02  0.43225E+04
 0.38049999E+02  0.50395E+04
 0.38099998E+02  0.57852E+04
 0.38149998E+02  0.41416E+04
 0.38199997E+02  0.50097E+04
 0.38249996E+02  0.63599E+04
 0.38299999E+02  0.45489E+04
 0.38349998E+02  0.57949E+04
 0.38399998E+02  0.62489E+04
 0.38449997E+02  0.40320E+04
 0.38499996E+02  0.38272E+04
 0.38549999E+02  0.52454E+04
 0.38599998E+02  0.63509E+04
 0.38649998E+02  0.58657E+04
 0.38699997E+02  0.58806E+04
 0.38749996E+02  0.42985E+04
 0.38799999E+02  0.40192E+04
 0.38849998E+02  0.44738E+04
 0.38899998E+02  0.78913E+04
 0.38949997E+02  0.82188E+04
 0.38999996E+02  0.44896E+04
 0.39049999E+02  0.35275E+04
 0.39099998E+02  0.57616E+04
 0.39149998E+02  0.54030E+04
 0.39199997E+02  0.50922E+04
 0.39249996E+02  0.65060E+04
 0.39299999E+02  0.60990E+04
 0.39349998E+02  0.54413E+04
 0.39399998E+02  0.49643E+04
 0.39449997E+02  0.77160E+04
 0.39499996E+02  0.70850E+04
 0.39549999E+02  0.37591E+04
 0.39599998E+02  0.44857E+04
 0.39649998E+02  0.63133E+04
 0.39699997E+02  0.41996E+04
 0.39749996E+02  0.32243E+04
 0.39799999E+02  0.57411E+04
 0.39849998E+02  0.56551E+04
 0.39899998E+02  0.56641E+04
 0.39949997E+02  0.69341E+04
 0.39999996E+02  0.54901E+04
 0.40049999E+02  0.45216E+04
 0.40099998E+02  0.60477E+04
 0.40149998E+02  0.49924E+04
 0.40199997E+02  0.46137E+04
 0.40249996E+02  0.49329E+04
 0.40299999E+02  0.48040E+04
 0.40349998E+02  0.58334E+04
 0.40399998E+02  0.43722E+04
 0.40449997E+02  0.52730E+04
 0.40499996E+02  0.56713E+04
 0.40549999E+02  0.65935E+04
 0.40599998E+02  0.62248E+04
 0.40649998E+02  0.40514E+04
 0.40699997E+02  0.59421E+04
 0.40749996E+02  0.60363E+04
 0.40799999E+02  0.63106E+04
 0.40849998E+02  0.44847E+04
 0.40899998E+02  0.31089E+04
 0.40949997E+02  0.52395E+04
 0.40999996E+02  0.42975E+04
 0.41049999E+02  0.40243E+04
 0.41099998E+02  0.47426E+04
 0.41149998E+02  0.56820E+04
 0.41199997E+02  0.58444E+04
 0.41249996E+02  0.49342E+04
 0.41299999E+02  0.51975E+04
 0.41349998E+02  0.55073E+04
 0.41399998E+02  0.66490E+04
 0.41449997E+02  0.59394E+04
 0.41499996E+02  0.44576E+04
 0.41549999E+02  0.35850E+04
 0.41599998E+02  0.65018E+04
 0.41649998E+02  0.69615E+04
 0.41699997E+02  0.52012E+04
 0.41749996E+02  0.60439E+04
 0.41799999E+02  0.38364E+04
 0.41849998E+02  0.43205E+04
 0.41899998E+02  0.51333E+04
 0.41949997E+02  0.45448E+04
 0.41999996E+02  0.47224E+04
 0.42049999E+02  0.51755E+04
 0.42099998E+02  0.51590E+04
 0.42149998E+02  0.54533E+04
 0.42199997E+02  0.63576E+04
 0.42249996E+02  0.46031E+04
 0.42299999E+02  0.50306E+04
 0.42349998E+02  0.54168E+04
 0.42399998E+02  0.41537E+04
 0.42449997E+02  0.40933E+04
 0.42499996E+02  0.55222E+04
 0.42549999E+02  0.59831E+04
 0.42599998E+02  0.55680E+04
 0.42649998E+02  0.58078E+04
 0.42699997E+02  0.50792E+04
 0.42749996E+02  0.53341E+04
 0.42799995E+02  0.49734E+04
 0.42849998E+02  0.53866E+04
 0.42899998E+02  0.40950E+04
 0.42949997E+02  0.47746E+04
 0.42999996E+02  0.66186E+04
 0.43049995E+02  0.52822E+04
 0.43099998E+02  0.61435E+04
 0.43149998E+02  0.47922E+04
 0.43199997E+02  0.43228E+04
 0.43249996E+02  0.49072E+04
 0.43299995E+02  0.52046E+04
 0.43349998E+02  0.60671E+04
 0.43399998E+02  0.57493E+04
 0.43449997E+02  0.51272E+04
 0.43499996E+02  0.50041E+04
 0.43549995E+02  0.58818E+04
 0.43599998E+02  0.52309E+04
 0.43649998E+02  0.40016E+04
 0.43699997E+02  0.45609E+04
 0.43749996E+02  0.59598E+04
 0.43799995E+02  0.58174E+04
 0.43849998E+02  0.61470E+04
 0.43899998E+02  0.65090E+04
 0.43949997E+02  0.54948E+04
 0.43999996E+02  0.45734E+04
 0.44049995E+02  0.58733E+04
 0.44099998E+02  0.59346E+04
 0.44149998E+02  0.53714E+04
 0.44199997E+02  0.64476E+04
 0.44249996E+02  0.53072E+04
 0.44299995E+02  0.49237E+04
 0.44349998E+02  0.60508E+04
 0.44399998E+02  0.61738E+04
 0.44449997E+02  0.66269E+04
 0.44499996E+02  0.63121E+04
 0.44549995E+02  0.47814E+04
 0.44599998E+02  0.48103E+04
 0.44649998E+02  0.58331E+04
 0.44699997E+02  0.48136E+04
 0.44749996E+02  0.36514E+04
 0.44799995E+02  0.48649E+04
 0.44849998E+02  0.57706E+04
 0.44899998E+02  0.45805E+04
 0.44949997E+02  0.42876E+04
 0.44999996E+02  0.46046E+04
 0.45049995E+02  0.46419E+04
 0.45099998E+02  0.49224E+04
 0.45149998E+02  0.37372E+04
 0.45199997E+02  0.50539E+04
 0.45249996E+02  0.67420E+04
 0.45299995E+02  0.65799E+04
 0.45349998E+02  0.62412E+04
 0.45399998E+02  0.56152E+04
 0.45449997E+02  0.52358E+04
 0.45499996E+02  0.58642E+04
 0.45549995E+02  0.66952E+04
 0.45599998E+02  0.56365E+04
 0.45649998E+02  0.46565E+04
 0.45699997E+02  0.41668E+04
 0.45749996E+02  0.45960E+04
 0.45799995E+02  0.56230E+04
 0.45849998E+02  0.52504E+04
 0.45899998E+02  0.48876E+04
 0.45949997E+02  0.51883E+04
 0.45999996E+02  0.47719E+04
 0.46049995E+02  0.47105E+04
 0.46099998E+02  0.59321E+04
 0.46149998E+02  0.56983E+04
 0.46199997E+02  0.55174E+04
 0.46249996E+02  0.58226E+04
 0.46299995E+02  0.47733E+04
 0.46349998E+02  0.51367E+04
 0.46399998E+02  0.46520E+04
 0.46449997E+02  0.39946E+04
 0.46499996E+02  0.43055E+04
 0.46549995E+02  0.49060E+04
 0.46599998E+02  0.56634E+04
 0.46649998E+02  0.57351E+04
 0.46699997E+02  0.56199E+04
 0.46749996E+02  0.53256E+04
 0.46799995E+02  0.50599E+04
 0.46849998E+02  0.48537E+04
 0.46899998E+02  0.52652E+04
 0.46949997E+02  0.55825E+04
 0.46999996E+02  0.58987E+04
 0.47049995E+02  0.53965E+04
 0.47099998E+02  0.54325E+04
 0.47149998E+02  0.58431E+04
 0.47199997E+02  0.60487E+04
 0.47249996E+02  0.63198E+04
 0.47299995E+02  0.51325E+04
 0.47349998E+02  0.49762E+04
 0.47399998E+02  0.54159E+04
 0.47449997E+02  0.53664E+04
 0.47499996E+02  0.55714E+04
 0.47549995E+02  0.53163E+04
 0.47599998E+02  0.44628E+04
 0.47649998E+02  0.46143E+04
 0.47699997E+02  0.50513E+04
 0.47749996E+02  0.49309E+04
 0.47799995E+02  0.58417E+04
 0.47849998E+02  0.55994E+04
 0.47899998E+02  0.51724E+04
 0.47949997E+02  0.52765E+04
 0.47999996E+02  0.57244E+04
 0.48049995E+02  0.58272E+04
 0.48099998E+02  0.56478E+04
 0.48149998E+02  0.54145E+04
 0.48199997E+02  0.46908E+04
 0.48249996E+02  0.45805E+04
 0.48299995E+02  0.44659E+04
 0.48349998E+02  0.44946E+04
 0.48399998E+02  0.45468E+04
 0.48449997E+02  0.51921E+04
 0.48499996E+02  0.51418E+04
 0.48549995E+02  0.51746E+04
 0.48599998E+02  0.59149E+04
 0.48649998E+02  0.62350E+04
 0.48699997E+02  0.56126E+04
 0.48749996E+02  0.49611E+04
 0.48799995E+02  0.50272E+04
 0.48849998E+02  0.57271E+04
 0.48899998E+02  0.58093E+04
 0.48949997E+02  0.58407E+04
 0.48999996E+02  0.60459E+04
 0.49049995E+02  0.45104E+04
 0.49099998E+02  0.45154E+04
 0.49149998E+02  0.52755E+04
 0.49199997E+02  0.53191E+04
 0.49249996E+02  0.56960E+04
 0.49299995E+02  0.58064E+04
 0.49349998E+02  0.51633E+04
 0.49399998E+02  0.46548E+04
 0.49449997E+02  0.52290E+04
 0.49499996E+02  0.54919E+04
 0.49549995E+02  0.53521E+04
 0.49599998E+02  0.55638E+04
 0.49649998E+02  0.59110E+04
 0.49699997E+02  0.59287E+04
 0.49749996E+02  0.52383E+04
 0.49799995E+02  0.49664E+04
 0.49849998E+02  0.51454E+04
 0.49899998E+02  0.49165E+04
 0.49949997E+02  0.45025E+04
 0.49999996E+02  0.41685E+04
 0.50049995E+02  0.48555E+04
 0.50099998E+02  0.52815E+04
 0.50149998E+02  0.51388E+04
 0.50199997E+02  0.55337E+04
 0.50249996E+02  0.51132E+04
 0.50299995E+02  0.49527E+04
 0.50349998E+02  0.55347E+04
 0.50399998E+02  0.58372E+04
 0.50449997E+02  0.55373E+04
 0.50499996E+02  0.49629E+04
 0.50549995E+02  0.52105E+04
 0.50599998E+02  0.55518E+04
 0.50649998E+02  0.54874E+04
 0.50699997E+02  0.56761E+04
 0.50749996E+02  0.56274E+04
 0.50799995E+02  0.50433E+04
 0.50849998E+02  0.55694E+04
 0.50899998E+02  0.57568E+04
 0.50949997E+02  0.48610E+04
 0.50999996E+02  0.52891E+04
 0.51049995E+02  0.55575E+04
 0.51099998E+02  0.49495E+04
 0.51149998E+02  0.54471E+04
 0.51199997E+02  0.54003E+04
 0.51249996E+02  0.53886E+04
 0.51299995E+02  0.61425E+04
 0.51349998E+02  0.53884E+04
 0.51399998E+02  0.52138E+04
 0.51449997E+02  0.54583E+04
 0.51499996E+02  0.51500E+04
 0.51549995E+02  0.57722E+04
 0.51599998E+02  0.58605E+04
 0.51649998E+02  0.51615E+04
 0.51699997E+02  0.53239E+04
 0.51749996E+02  0.57278E+04
 0.51799995E+02  0.51843E+04
 0.51849998E+02  0.48188E+04
 0.51899998E+02  0.50777E+04
 0.51949997E+02  0.50792E+04
 0.51999996E+02  0.50668E+04
 0.52049995E+02  0.51074E+04
 0.52099998E+02  0.51192E+04
 0.52149998E+02  0.49634E+04
 0.52199997E+02  0.53684E+04
 0.52249996E+02  0.57716E+04
 0.52299995E+02  0.51216E+04
 0.52349998E+02  0.52977E+04
 0.52399998E+02  0.56851E+04
 0.52449997E+02  0.51533E+04
 0.52499996E+02  0.51623E+04
 0.52549995E+02  0.53606E+04
 0.52599998E+02  0.51591E+04
 0.52649998E+02  0.56297E+04
 0.52699997E+02  0.57956E+04
 0.52749996E+02  0.55834E+04
 0.52799995E+02  0.53035E+04
 0.52849998E+02  0.49346E+04
 0.52899998E+02  0.49445E+04
 0.52949997E+02  0.48529E+04
 0.52999996E+02  0.49655E+04
 0.53049995E+02  0.50030E+04
 0.53099998E+02  0.54715E+04
 0.53149998E+02  0.53406E+04
 0.53199997E+02  0.52295E+04
 0.53249996E+02  0.53343E+04
 0.53299995E+02  0.46725E+04
 0.53349998E+02  0.50975E+04
 0.53399998E+02  0.56310E+04
 0.53449997E+02  0.55189E+04
 0.53499996E+02  0.51995E+04
 0.53549995E+02  0.55897E+04
 0.53599998E+02  0.52667E+04
 0.53649998E+02  0.49524E+04
 0.53699997E+02  0.60562E+04
 0.53749996E+02  0.58554E+04
 0.53799995E+02  0.50626E+04
 0.53849998E+02  0.51236E+04
 0.53899998E+02  0.51381E+04
 0.53949997E+02  0.46140E+04
 0.53999996E+02  0.48942E+04
 0.54049995E+02  0.52970E+04
 0.54099998E+02  0.54927E+04
 0.54149998E+02  0.57702E+04
 0.54199997E+02  0.56012E+04
 0.54249996E+02  0.51345E+04
 0.54299995E+02  0.51021E+04
 0.54349998E+02  0.56254E+04
 0.54399998E+02  0.53729E+04
 0.54449997E+02  0.52581E+04
 0.54499996E+02  0.50152E+04
 0.54549995E+02  0.51367E+04
 0.54599998E+02  0.52554E+04
 0.54649998E+02  0.52232E+04
 0.54699997E+02  0.55677E+04
 0.54749996E+02  0.54253E+04
 0.54799995E+02  0.55269E+04
 0.54849998E+02  0.51937E+04
 0.54899998E+02  0.52467E+04
 0.54949997E+02  0.56451E+04
 0.54999996E+02  0.56745E+04
 0.55049995E+02  0.55857E+04
 0.55099998E+02  0.53127E+04
 0.55149998E+02  0.49723E+04
 0.55199997E+02  0.45468E+04
 0.55249996E+02  0.46103E+04
 0.55299995E+02  0.49272E+04
 0.55349998E+02  0.49680E+04
 0.55399998E+02  0.51941E+04
 0.55449997E+02  0.51137E+04
 0.55499996E+02  0.51108E+04
 0.55549995E+02  0.51630E+04
 0.55599998E+02  0.50677E+04
 0.55649998E+02  0.53610E+04
 0.55699997E+02  0.51095E+04
 0.55749996E+02  0.52770E+04
 0.55799995E+02  0.56588E+04
 0.55849995E+02  0.54001E+04
 0.55899998E+02  0.53488E+04
 0.55949997E+02  0.55696E+04
 0.55999996E+02  0.55969E+04
 0.56049995E+02  0.56585E+04
 0.56099995E+02  0.55461E+04
 0.56149998E+02  0.55154E+04
 0.56199997E+02  0.51376E+04
 0.56249996E+02  0.49629E+04
 0.56299995E+02  0.55285E+04
 0.56349995E+02  0.52222E+04
 0.56399998E+02  0.54005E+04
 0.56449997E+02  0.53442E+04
 0.56499996E+02  0.49680E+04
 0.56549995E+02  0.53053E+04
 0.56599995E+02  0.51891E+04
 0.56649998E+02  0.56487E+04
 0.56699997E+02  0.60079E+04
 0.56749996E+02  0.55297E+04
 0.56799995E+02  0.52105E+04
 0.56849995E+02  0.52870E+04
 0.56899998E+02  0.54924E+04
 0.56949997E+02  0.55016E+04
 0.56999996E+02  0.53636E+04
 0.57049995E+02  0.51010E+04
 0.57099995E+02  0.53280E+04
 0.57149998E+02  0.51988E+04
 0.57199997E+02  0.49796E+04
 0.57249996E+02  0.50096E+04
 0.57299995E+02  0.51315E+04
 0.57349995E+02  0.55621E+04
 0.57399998E+02  0.54782E+04
 0.57449997E+02  0.54461E+04
 0.57499996E+02  0.55189E+04
 0.57549995E+02  0.53730E+04
 0.57599995E+02  0.55533E+04
 0.57649998E+02  0.55688E+04
 0.57699997E+02  0.51733E+04
 0.57749996E+02  0.51155E+04
 0.57799995E+02  0.52400E+04
 0.57849995E+02  0.53553E+04
 0.57899998E+02  0.50103E+04
 0.57949997E+02  0.51996E+04
 0.57999996E+02  0.56304E+04
 0.58049995E+02  0.53452E+04
 0.58099995E+02  0.52937E+04
 0.58149998E+02  0.55375E+04
 0.58199997E+02  0.55278E+04
 0.58249996E+02  0.52775E+04
 0.58299995E+02  0.54696E+04
 0.58349995E+02  0.55257E+04
 0.58399998E+02  0.53159E+04
 0.58449997E+02  0.54805E+04
 0.58499996E+02  0.54042E+04
 0.58549995E+02  0.48222E+04
 0.58599995E+02  0.44860E+04
 0.58649998E+02  0.47038E+04
 0.58699997E+02  0.49180E+04
 0.58749996E+02  0.49315E+04
 0.58799995E+02  0.48220E+04
 0.58849995E+02  0.49061E+04
 0.58899998E+02  0.51720E+04
 0.58949997E+02  0.51386E+04
 0.58999996E+02  0.50470E+04
 0.59049995E+02  0.51621E+04
 0.59099995E+02  0.52272E+04
 0.59149998E+02  0.50592E+04
 0.59199997E+02  0.50596E+04
 0.59249996E+02  0.54834E+04
 0.59299995E+02  0.57968E+04
 0.59349995E+02  0.54632E+04
 0.59399998E+02  0.52541E+04
 0.59449997E+02  0.48445E+04
 0.59499996E+02  0.48893E+04
 0.59549995E+02  0.52899E+04
 0.59599995E+02  0.50126E+04
 0.59649998E+02  0.52063E+04
 0.59699997E+02  0.55115E+04
 0.59749996E+02  0.56216E+04
 0.59799995E+02  0.57077E+04
 0.59849995E+02  0.57766E+04
 0.59899998E+02  0.54427E+04
 0.59949997E+02  0.51018E+04
 0.59999996E+02  0.54552E+04
 0.60049995E+02  0.54400E+04
 0.60099995E+02  0.54265E+04
 0.60149998E+02  0.56360E+04
 0.60199997E+02  0.54193E+04
 0.60249996E+02  0.53264E+04
 0.60299995E+02  0.52911E+04
 0.60349995E+02  0.53613E+04
 0.60399998E+02  0.52803E+04
 0.60449997E+02  0.53150E+04
 0.60499996E+02  0.54562E+04
 0.60549995E+02  0.56055E+04
 0.60599995E+02  0.58895E+04
 0.60649998E+02  0.54590E+04
 0.60699997E+02  0.54114E+04
 0.60749996E+02  0.55305E+04
 0.60799995E+02  0.52817E+04
 0.60849995E+02  0.52320E+04
 0.60899998E+02  0.54389E+04
 0.60949997E+02  0.53697E+04
 0.60999996E+02  0.50948E+04
 0.61049995E+02  0.53543E+04
 0.61099995E+02  0.55414E+04
 0.61149998E+02  0.56924E+04
 0.61199997E+02  0.54791E+04
 0.61249996E+02  0.52003E+04
 0.61299995E+02  0.51381E+04
 0.61349995E+02  0.51485E+04
 0.61399998E+02  0.52505E+04
 0.61449997E+02  0.53489E+04
 0.61499996E+02  0.55146E+04
 0.61549995E+02  0.53990E+04
 0.61599995E+02  0.53789E+04
 0.61649998E+02  0.53875E+04
 0.61699997E+02  0.52769E+04
 0.61749996E+02  0.51078E+04
 0.61799995E+02  0.51804E+04
 0.61849995E+02  0.49546E+04
 0.61899998E+02  0.47430E+04
 0.61949997E+02  0.49330E+04
 0.61999996E+02  0.51651E+04
 0.62049995E+02  0.53290E+04
 0.62099998E+02  0.51763E+04
 0.62149994E+02  0.51192E+04
 0.62199997E+02  0.50015E+04
 0.62249992E+02  0.52790E+04
 0.62299995E+02  0.52968E+04
 0.62349998E+02  0.50483E+04
 0.62399994E+02  0.48638E+04
 0.62449997E+02  0.48704E+04
 0.62499992E+02  0.51360E+04
 0.62549995E+02  0.50440E+04
 0.62599998E+02  0.48840E+04
 0.62649994E+02  0.47248E+04
 0.62699997E+02  0.51002E+04
 0.62749992E+02  0.53212E+04
 0.62799995E+02  0.53598E+04
 0.62849998E+02  0.55574E+04
 0.62899994E+02  0.56944E+04
 0.62949997E+02  0.58208E+04
 0.62999992E+02  0.56830E+04
 0.63049995E+02  0.52974E+04
 0.63099998E+02  0.51818E+04
 0.63149994E+02  0.54888E+04
 0.63199997E+02  0.53725E+04
 0.63249992E+02  0.54301E+04
 0.63299995E+02  0.53735E+04
 0.63349998E+02  0.52644E+04
 0.63399994E+02  0.54633E+04
 0.63449997E+02  0.54562E+04
 0.63499992E+02  0.54434E+04
 0.63549995E+02  0.53026E+04
 0.63599998E+02  0.52160E+04
 0.63649994E+02  0.55583E+04
 0.63699997E+02  0.58205E+04
 0.63749992E+02  0.53801E+04
 0.63799995E+02  0.52942E+04
 0.63849998E+02  0.54983E+04
 0.63899994E+02  0.51696E+04
 0.63949997E+02  0.50020E+04
 0.63999992E+02  0.51165E+04
 0.64049995E+02  0.50450E+04
 0.64099998E+02  0.49959E+04
 0.64149994E+02  0.51874E+04
 0.64199997E+02  0.53125E+04
 0.64249992E+02  0.52422E+04
 0.64299995E+02  0.53605E+04
 0.64349998E+02  0.53639E+04
 0.64399994E+02  0.53472E+04
 0.64449997E+02  0.53748E+04
 0.64499992E+02  0.51304E+04
 0.64549995E+02  0.52337E+04
 0.64599998E+02  0.53440E+04
 0.64649994E+02  0.54335E+04
 0.64699997E+02  0.55192E+04
 0.64749992E+02  0.54251E+04
 0.64799995E+02  0.54683E+04
 0.64849998E+02  0.54962E+04
 0.64899994E+02  0.54798E+04
 0.64949997E+02  0.53892E+04
 0.64999992E+02  0.54517E+04
 0.65049995E+02  0.54189E+04
 0.65099998E+02  0.52198E+04
 0.65149994E+02  0.51627E+04
 0.65199997E+02  0.50477E+04
 0.65249992E+02  0.51487E+04
 0.65299995E+02  0.54583E+04
 0.65349998E+02  0.55112E+04
 0.65399994E+02  0.53243E+04
 0.65449997E+02  0.52846E+04
 0.65499992E+02  0.54049E+04
 0.65549995E+02  0.52360E+04
 0.65599998E+02  0.52077E+04
 0.65649994E+02  0.52854E+04
 0.65699997E+02  0.51705E+04
 0.65749992E+02  0.51167E+04
 0.65799995E+02  0.51476E+04
 0.65849998E+02  0.50373E+04
 0.65899994E+02  0.49581E+04
 0.65949997E+02  0.51668E+04
 0.65999992E+02  0.50865E+04
 0.66049995E+02  0.51816E+04
 0.66099998E+02  0.53151E+04
 0.66149994E+02  0.51627E+04
 0.66199997E+02  0.51711E+04
 0.66249992E+02  0.52466E+04
 0.66299995E+02  0.53346E+04
 0.66349998E+02  0.53901E+04
 0.66399994E+02  0.55676E+04
 0.66449997E+02  0.54476E+04
 0.66499992E+02  0.53173E+04
 0.66549995E+02  0.53089E+04
 0.66599998E+02  0.52124E+04
 0.66649994E+02  0.53168E+04
 0.66699997E+02  0.52084E+04
 0.66749992E+02  0.52392E+04
 0.66799995E+02  0.52965E+04
 0.66849998E+02  0.52588E+04
 0.66899994E+02  0.55351E+04
 0.66949997E+02  0.55936E+04
 0.66999992E+02  0.53969E+04
 0.67049995E+02  0.54265E+04
 0.67099998E+02  0.55858E+04
 0.67149994E+02  0.57333E+04
 0.67199997E+02  0.56858E+04
 0.67249992E+02  0.55422E+04
 0.67299995E+02  0.53766E+04
 0.67349998E+02  0.52217E+04
 0.67399994E+02  0.53812E+04
 0.67449997E+02  0.52523E+04
 0.67499992E+02  0.50800E+04
 0.67549995E+02  0.52028E+04
 0.67599998E+02  0.53050E+04
 0.67649994E+02  0.52865E+04
 0.67699997E+02  0.53341E+04
 0.67749992E+02  0.53407E+04
 0.67799995E+02  0.50956E+04
 0.67849998E+02  0.51950E+04
 0.67899994E+02  0.51894E+04
 0.67949997E+02  0.51348E+04
 0.67999992E+02  0.52136E+04
 0.68049995E+02  0.51466E+04
 0.68099998E+02  0.50143E+04
 0.68149994E+02  0.49928E+04
 0.68199997E+02  0.51345E+04
 0.68249992E+02  0.51849E+04
 0.68299995E+02  0.51808E+04
 0.68349998E+02  0.52063E+04
 0.68399994E+02  0.53781E+04
 0.68449997E+02  0.53743E+04
 0.68499992E+02  0.52570E+04
 0.68549995E+02  0.52584E+04
 0.68599998E+02  0.52758E+04
 0.68649994E+02  0.52570E+04
 0.68699997E+02  0.53279E+04
 0.68749992E+02  0.52679E+04
 0.68799995E+02  0.50277E+04
 0.68849998E+02  0.50304E+04
 0.68899994E+02  0.52293E+04
 0.68949997E+02  0.53566E+04
 0.68999992E+02  0.53794E+04
 0.69049995E+02  0.53622E+04
 0.69099998E+02  0.53148E+04
 0.69149994E+02  0.52774E+04
 0.69199997E+02  0.52631E+04
 0.69249992E+02  0.50703E+04
 0.69299995E+02  0.49838E+04
 0.69349998E+02  0.51142E+04
 0.69399994E+02  0.51679E+04
 0.69449997E+02  0.52099E+04
 0.69499992E+02  0.53039E+04
 0.69549995E+02  0.53913E+04
 0.69599998E+02  0.52976E+04
 0.69649994E+02  0.54032E+04
 0.69699997E+02  0.54095E+04
 0.69749992E+02  0.55843E+04
 0.69799995E+02  0.56866E+04
 0.69849998E+02  0.56017E+04
 0.69899994E+02  0.56990E+04
 0.69949997E+02  0.55783E+04
 0.69999992E+02  0.54583E+04
 0.70049995E+02  0.53320E+04
 0.70099998E+02  0.53626E+04
 0.70149994E+02  0.53265E+04
 0.70199997E+02  0.53119E+04
 0.70249992E+02  0.53435E+04
 0.70299995E+02  0.53097E+04
 0.70349998E+02  0.53842E+04
 0.70399994E+02  0.53601E+04
 0.70449997E+02  0.52583E+04
 0.70499992E+02  0.50956E+04
 0.70549995E+02  0.50331E+04
 0.70599998E+02  0.52334E+04
 0.70649994E+02  0.51989E+04
 0.70699997E+02  0.51521E+04
 0.70749992E+02  0.52359E+04
 0.70799995E+02  0.53201E+04
 0.70849998E+02  0.53952E+04
 0.70899994E+02  0.52737E+04
 0.70949997E+02  0.52709E+04
 0.70999992E+02  0.52679E+04
 0.71049995E+02  0.51629E+04
 0.71099998E+02  0.51035E+04
 0.71149994E+02  0.50445E+04
 0.71199997E+02  0.50860E+04
 0.71249992E+02  0.52362E+04
 0.71299995E+02  0.52697E+04
 0.71349998E+02  0.52551E+04
 0.71399994E+02  0.53225E+04
 0.71449997E+02  0.53988E+04
 0.71499992E+02  0.53468E+04
 0.71549995E+02  0.53870E+04
 0.71599998E+02  0.54384E+04
 0.71649994E+02  0.53002E+04
 0.71699997E+02  0.52916E+04
 0.71749992E+02  0.53615E+04
 0.71799995E+02  0.54772E+04
 0.71849998E+02  0.54775E+04
 0.71899994E+02  0.53270E+04
 0.71949997E+02  0.52631E+04
 0.71999992E+02  0.52655E+04
 0.72049995E+02  0.53684E+04
 0.72099998E+02  0.53838E+04
 0.72149994E+02  0.52924E+04
 0.72199997E+02  0.52520E+04
 0.72249992E+02  0.53435E+04
 0.72299995E+02  0.52883E+04
 0.72349998E+02  0.52763E+04
 0.72399994E+02  0.53129E+04
 0.72449997E+02  0.51779E+04
 0.72499992E+02  0.51604E+04
 0.72549995E+02  0.51666E+04
 0.72599998E+02  0.52633E+04
 0.72649994E+02  0.52929E+04
 0.72699997E+02  0.53950E+04
 0.72749992E+02  0.53975E+04
 0.72799995E+02  0.53537E+04
 0.72849998E+02  0.53415E+04
 0.72899994E+02  0.52624E+04
 0.72949997E+02  0.53336E+04
 0.72999992E+02  0.53270E+04
 0.73049995E+02  0.52370E+04
 0.73099998E+02  0.51600E+04
 0.73149994E+02  0.52198E+04
 0.73199997E+02  0.54361E+04
 0.73249992E+02  0.56018E+04
 0.73299995E+02  0.54497E+04
 0.73349998E+02  0.53867E+04
 0.73399994E+02  0.53793E+04
 0.73449997E+02  0.52601E+04
 0.73499992E+02  0.52300E+04
 0.73549995E+02  0.51011E+04
 0.73599998E+02  0.50908E+04
 0.73649994E+02  0.51775E+04
 0.73699997E+02  0.52196E+04
 0.73749992E+02  0.51803E+04
 0.73799995E+02  0.51695E+04
 0.73849998E+02  0.52653E+04
 0.73899994E+02  0.51964E+04
 0.73949997E+02  0.51432E+04
 0.73999992E+02  0.51654E+04
 0.74049995E+02  0.51604E+04
 0.74099998E+02  0.52247E+04
 0.74149994E+02  0.53285E+04
 0.74199997E+02  0.53212E+04
 0.74249992E+02  0.53309E+04
 0.74299995E+02  0.54097E+04
 0.74349998E+02  0.53800E+04
 0.74399994E+02  0.53772E+04
 0.74449997E+02  0.54401E+04
 0.74499992E+02  0.54673E+04
 0.74549995E+02  0.54091E+04
 0.74599998E+02  0.54420E+04
 0.74649994E+02  0.54489E+04
 0.74699997E+02  0.53101E+04
 0.74749992E+02  0.53539E+04
 0.74799995E+02  0.53503E+04
 0.74849998E+02  0.53005E+04
 0.74899994E+02  0.53247E+04
 0.74949997E+02  0.53108E+04
 0.74999992E+02  0.53565E+04
 0.75049995E+02  0.54120E+04
 0.75099998E+02  0.53770E+04
 0.75149994E+02  0.53437E+04
 0.75199997E+02  0.52740E+04
 0.75249992E+02  0.51678E+04
 0.75299995E+02  0.51842E+04
 0.75349998E+02  0.52726E+04
 0.75399994E+02  0.53483E+04
 0.75449997E+02  0.53900E+04
 0.75499992E+02  0.53539E+04
 0.75549995E+02  0.53231E+04
 0.75599998E+02  0.53340E+04
 0.75649994E+02  0.53581E+04
 0.75699997E+02  0.53750E+04
 0.75749992E+02  0.51914E+04
 0.75799995E+02  0.51326E+04
 0.75849998E+02  0.51096E+04
 0.75899994E+02  0.51034E+04
 0.75949997E+02  0.51748E+04
 0.75999992E+02  0.52167E+04
 0.76049995E+02  0.52337E+04
 0.76099998E+02  0.52221E+04
 0.76149994E+02  0.51918E+04
 0.76199997E+02  0.51643E+04
 0.76249992E+02  0.52665E+04
 0.76299995E+02  0.53210E+04
 0.76349998E+02  0.53444E+04
 0.76399994E+02  0.53045E+04
 0.76449997E+02  0.52991E+04
 0.76499992E+02  0.53493E+04
 0.76549995E+02  0.54607E+04
 0.76599998E+02  0.55720E+04
 0.76649994E+02  0.54727E+04
 0.76699997E+02  0.53936E+04
 0.76749992E+02  0.53376E+04
 0.76799995E+02  0.52798E+04
 0.76849998E+02  0.53951E+04
 0.76899994E+02  0.53775E+04
 0.76949997E+02  0.52361E+04
 0.76999992E+02  0.51164E+04
 0.77049995E+02  0.51989E+04
 0.77099998E+02  0.53833E+04
 0.77149994E+02  0.53555E+04
 0.77199997E+02  0.53093E+04
 0.77249992E+02  0.52885E+04
 0.77299995E+02  0.53551E+04
 0.77349998E+02  0.53743E+04
 0.77399994E+02  0.53146E+04
 0.77449997E+02  0.51858E+04
 0.77499992E+02  0.51220E+04
 0.77549995E+02  0.51717E+04
 0.77599998E+02  0.51948E+04
 0.77649994E+02  0.52354E+04
 0.77699997E+02  0.52184E+04
 0.77749992E+02  0.53106E+04
 0.77799995E+02  0.54269E+04
 0.77849998E+02  0.54519E+04
 0.77899994E+02  0.54763E+04
 0.77949997E+02  0.54203E+04
 0.77999992E+02  0.52844E+04
 0.78049995E+02  0.52143E+04
 0.78099998E+02  0.52755E+04
 0.78149994E+02  0.53557E+04
 0.78199997E+02  0.52896E+04
 0.78249992E+02  0.52146E+04
 0.78299995E+02  0.51887E+04
 0.78349998E+02  0.51543E+04
 0.78399994E+02  0.50946E+04
 0.78449997E+02  0.51197E+04
 0.78499992E+02  0.52399E+04
 0.78549995E+02  0.52621E+04
 0.78599998E+02  0.52200E+04
 0.78649994E+02  0.51814E+04
 0.78699997E+02  0.52357E+04
 0.78749992E+02  0.51802E+04
 0.78799995E+02  0.51900E+04
 0.78849998E+02  0.51688E+04
 0.78899994E+02  0.50867E+04
 0.78949997E+02  0.51376E+04
 0.78999992E+02  0.50910E+04
 0.79049995E+02  0.51464E+04
 0.79099998E+02  0.52135E+04
 0.79149994E+02  0.52140E+04
 0.79199997E+02  0.52586E+04
 0.79249992E+02  0.53806E+04
 0.79299995E+02  0.53489E+04
 0.79349998E+02  0.52516E+04
 0.79399994E+02  0.52421E+04
 0.79449997E+02  0.51878E+04
 0.79499992E+02  0.51947E+04
 0.79549995E+02  0.52705E+04
 0.79599998E+02  0.53219E+04
 0.79649994E+02  0.52728E+04
 0.79699997E+02  0.53195E+04
 0.79749992E+02  0.54349E+04
 0.79799995E+02  0.55854E+04
 0.79849998E+02  0.56429E+04
 0.79899994E+02  0.55145E+04
 0.79949997E+02  0.54220E+04
 0.79999992E+02  0.54058E+04
 0.80049995E+02  0.54288E+04
 0.80099998E+02  0.54026E+04
 0.80149994E+02  0.54511E+04
 0.80199997E+02  0.54271E+04
 0.80249992E+02  0.53806E+04
 0.80299995E+02  0.54861E+04
 0.80349998E+02  0.55223E+04
 0.80399994E+02  0.54218E+04
 0.80449997E+02  0.53534E+04
 0.80499992E+02  0.53158E+04
 0.80549995E+02  0.52311E+04
 0.80599998E+02  0.51821E+04
 0.80649994E+02  0.51436E+04
 0.80699997E+02  0.52472E+04
 0.80749992E+02  0.53199E+04
 0.80799995E+02  0.53304E+04
 0.80849998E+02  0.53324E+04
 0.80899994E+02  0.52619E+04
 0.80949997E+02  0.52434E+04
 0.80999992E+02  0.51838E+04
 0.81049995E+02  0.51979E+04
 0.81099998E+02  0.52709E+04
 0.81149994E+02  0.52467E+04
 0.81199997E+02  0.51770E+04
 0.81249992E+02  0.52231E+04
 0.81299995E+02  0.52181E+04
 0.81349998E+02  0.52280E+04
 0.81399994E+02  0.53544E+04
 0.81449997E+02  0.53780E+04
 0.81499992E+02  0.54211E+04
 0.81549995E+02  0.54568E+04
 0.81599998E+02  0.54124E+04
 0.81649994E+02  0.53631E+04
 0.81699997E+02  0.53793E+04
 0.81749992E+02  0.53808E+04
 0.81799995E+02  0.52889E+04
 0.81849998E+02  0.51895E+04
 0.81899994E+02  0.52465E+04
 0.81949997E+02  0.52224E+04
 0.81999992E+02  0.52416E+04
 0.82049995E+02  0.52867E+04
 0.82099998E+02  0.52480E+04
 0.82149994E+02  0.52983E+04
 0.82199997E+02  0.52070E+04
 0.82249992E+02  0.51661E+04
 0.82299995E+02  0.52982E+04
 0.82349998E+02  0.54132E+04
 0.82399994E+02  0.54178E+04
 0.82449997E+02  0.54326E+04
 0.82499992E+02  0.54017E+04
 0.82549995E+02  0.53392E+04
 0.82599998E+02  0.53849E+04
 0.82649994E+02  0.53841E+04
 0.82699997E+02  0.52762E+04
 0.82749992E+02  0.52240E+04
 0.82799995E+02  0.52253E+04
 0.82849998E+02  0.52333E+04
 0.82899994E+02  0.52461E+04
 0.82949997E+02  0.51436E+04
 0.82999992E+02  0.51071E+04
 0.83049995E+02  0.52106E+04
 0.83099998E+02  0.52558E+04
 0.83149994E+02  0.52333E+04
 0.83199997E+02  0.52196E+04
 0.83249992E+02  0.52129E+04
 0.83299995E+02  0.52544E+04
 0.83349998E+02  0.52536E+04
 0.83399994E+02  0.52545E+04
 0.83449997E+02  0.52103E+04
 0.83499992E+02  0.51805E+04
 0.83549995E+02  0.52752E+04
 0.83599998E+02  0.52545E+04
 0.83649994E+02  0.52521E+04
 0.83699997E+02  0.52769E+04
 0.83749992E+02  0.52932E+04
 0.83799995E+02  0.53094E+04
 0.83849998E+02  0.53496E+04
 0.83899994E+02  0.53299E+04
 0.83949997E+02  0.52811E+04
 0.83999992E+02  0.52905E+04
 0.84049995E+02  0.53288E+04
 0.84099998E+02  0.54356E+04
 0.84149994E+02  0.54602E+04
 0.84199997E+02  0.54885E+04
 0.84249992E+02  0.54106E+04
 0.84299995E+02  0.53426E+04
 0.84349998E+02  0.53712E+04
 0.84399994E+02  0.53126E+04
 0.84449997E+02  0.52330E+04
 0.84499992E+02  0.52019E+04
 0.84549995E+02  0.52604E+04
 0.84599998E+02  0.53443E+04
 0.84649994E+02  0.54297E+04
 0.84699997E+02  0.54437E+04
 0.84749992E+02  0.54444E+04
 0.84799995E+02  0.54443E+04
 0.84849998E+02  0.54033E+04
 0.84899994E+02  0.53543E+04
 0.84949997E+02  0.52527E+04
 0.84999992E+02  0.52291E+04
 0.85049995E+02  0.53173E+04
 0.85099998E+02  0.53562E+04
 0.85149994E+02  0.53394E+04
 0.85199997E+02  0.53104E+04
 0.85249992E+02  0.52344E+04
 0.85299995E+02  0.51825E+04
 0.85349998E+02  0.52101E+04
 0.85399994E+02  0.52409E+04
 0.85449997E+02  0.52785E+04
 0.85499992E+02  0.52707E+04
 0.85549995E+02  0.52242E+04
 0.85599998E+02  0.52656E+04
 0.85649994E+02  0.52999E+04
 0.85699997E+02  0.52820E+04
 0.85749992E+02  0.53320E+04
 0.85799995E+02  0.53539E+04
 0.85849998E+02  0.53557E+04
 0.85899994E+02  0.53430E+04
 0.85949997E+02  0.53168E+04
 0.85999992E+02  0.52704E+04
 0.86049995E+02  0.52147E+04
 0.86099998E+02  0.52461E+04
 0.86149994E+02  0.51894E+04
 0.86199997E+02  0.51831E+04
 0.86249992E+02  0.52190E+04
 0.86299995E+02  0.52176E+04
 0.86349998E+02  0.52323E+04
 0.86399994E+02  0.52328E+04
 0.86449997E+02  0.51991E+04
 0.86499992E+02  0.51958E+04
 0.86549995E+02  0.52234E+04
 0.86599998E+02  0.52619E+04
 0.86649994E+02  0.53359E+04
 0.86699997E+02  0.52721E+04
 0.86749992E+02  0.52642E+04
 0.86799995E+02  0.53024E+04
 0.86849998E+02  0.53100E+04
 0.86899994E+02  0.53322E+04
 0.86949997E+02  0.52904E+04
 0.86999992E+02  0.52455E+04
 0.87049995E+02  0.52441E+04
 0.87099998E+02  0.52751E+04
 0.87149994E+02  0.52965E+04
 0.87199997E+02  0.52534E+04
 0.87249992E+02  0.52252E+04
 0.87299995E+02  0.52031E+04
 0.87349998E+02  0.51535E+04
 0.87399994E+02  0.51789E+04
 0.87449997E+02  0.52757E+04
 0.87499992E+02  0.53543E+04
 0.87549995E+02  0.53908E+04
 0.87599991E+02  0.53823E+04
 0.87649994E+02  0.53606E+04
 0.87699997E+02  0.53585E+04
 0.87749992E+02  0.54001E+04
 0.87799995E+02  0.54501E+04
 0.87849991E+02  0.53757E+04
 0.87899994E+02  0.53001E+04
 0.87949997E+02  0.52942E+04
 0.87999992E+02  0.53220E+04
 0.88049995E+02  0.53898E+04
 0.88099991E+02  0.54064E+04
 0.88149994E+02  0.53333E+04
 0.88199997E+02  0.52793E+04
 0.88249992E+02  0.52834E+04
 0.88299995E+02  0.53016E+04
 0.88349991E+02  0.53074E+04
 0.88399994E+02  0.53138E+04
 0.88449997E+02  0.53378E+04
 0.88499992E+02  0.53278E+04
 0.88549995E+02  0.53238E+04
 0.88599991E+02  0.53508E+04
 0.88649994E+02  0.53613E+04
 0.88699997E+02  0.53362E+04
 0.88749992E+02  0.52806E+04
 0.88799995E+02  0.52919E+04
 0.88849991E+02  0.52674E+04
 0.88899994E+02  0.51745E+04
 0.88949997E+02  0.51501E+04
 0.88999992E+02  0.52327E+04
 0.89049995E+02  0.53151E+04
 0.89099991E+02  0.53148E+04
 0.89149994E+02  0.52690E+04
 0.89199997E+02  0.51946E+04
 0.89249992E+02  0.51720E+04
 0.89299995E+02  0.51870E+04
 0.89349991E+02  0.52306E+04
 0.89399994E+02  0.52242E+04
 0.89449997E+02  0.52318E+04
 0.89499992E+02  0.52631E+04
 0.89549995E+02  0.52028E+04
 0.89599991E+02  0.52331E+04
 0.89649994E+02  0.53374E+04
 0.89699997E+02  0.53301E+04
 0.89749992E+02  0.52730E+04
 0.89799995E+02  0.52603E+04
 0.89849991E+02  0.52151E+04
 0.89899994E+02  0.52147E+04
 0.89949997E+02  0.52220E+04
 0.89999992E+02  0.51823E+04
 0.90049995E+02  0.52339E+04
 0.90099991E+02  0.53043E+04
 0.90149994E+02  0.53348E+04
 0.90199997E+02  0.53261E+04
 0.90249992E+02  0.53116E+04
 0.90299995E+02  0.53372E+04
 0.90349991E+02  0.53604E+04
 0.90399994E+02  0.54006E+04
 0.90449997E+02  0.54039E+04
 0.90499992E+02  0.53459E+04
 0.90549995E+02  0.53489E+04
 0.90599991E+02  0.53431E+04
 0.90649994E+02  0.53154E+04
 0.90699997E+02  0.53585E+04
 0.90749992E+02  0.53877E+04
 0.90799995E+02  0.53315E+04
 0.90849991E+02  0.53249E+04
 0.90899994E+02  0.53060E+04
 0.90949997E+02  0.52510E+04
 0.90999992E+02  0.52583E+04
 0.91049995E+02  0.53008E+04
 0.91099991E+02  0.52941E+04
 0.91149994E+02  0.52392E+04
 0.91199997E+02  0.53045E+04
 0.91249992E+02  0.53479E+04
 0.91299995E+02  0.53718E+04
 0.91349991E+02  0.53916E+04
 0.91399994E+02  0.53531E+04
 0.91449997E+02  0.53260E+04
 0.91499992E+02  0.52991E+04
 0.91549995E+02  0.53302E+04
 0.91599991E+02  0.53327E+04
 0.91649994E+02  0.53309E+04
 0.91699997E+02  0.53413E+04
 0.91749992E+02  0.52810E+04
 0.91799995E+02  0.52884E+04
 0.91849991E+02  0.53520E+04
 0.91899994E+02  0.53653E+04
 0.91949997E+02  0.53444E+04
 0.91999992E+02  0.53455E+04
 0.92049995E+02  0.53475E+04
 0.92099991E+02  0.53454E+04
 0.92149994E+02  0.53249E+04
 0.92199997E+02  0.53009E+04
 0.92249992E+02  0.53141E+04
 0.92299995E+02  0.53545E+04
 0.92349991E+02  0.53363E+04
 0.92399994E+02  0.52236E+04
 0.92449997E+02  0.52710E+04
 0.92499992E+02  0.53144E+04
 0.92549995E+02  0.53018E+04
 0.92599991E+02  0.53191E+04
 0.92649994E+02  0.52903E+04
 0.92699997E+02  0.52971E+04
 0.92749992E+02  0.52752E+04
 0.92799995E+02  0.52978E+04
 0.92849991E+02  0.53282E+04
 0.92899994E+02  0.53390E+04
 0.92949997E+02  0.53188E+04
 0.92999992E+02  0.52930E+04
 0.93049995E+02  0.53321E+04
 0.93099991E+02  0.53425E+04
 0.93149994E+02  0.53215E+04
 0.93199997E+02  0.52436E+04
 0.93249992E+02  0.51590E+04
 0.93299995E+02  0.51194E+04
 0.93349991E+02  0.51539E+04
 0.93399994E+02  0.51753E+04
 0.93449997E+02  0.51436E+04
 0.93499992E+02  0.51222E+04
 0.93549995E+02  0.51546E+04
 0.93599991E+02  0.52201E+04
 0.93649994E+02  0.51830E+04
 0.93699997E+02  0.51642E+04
 0.93749992E+02  0.51928E+04
 0.93799995E+02  0.52169E+04
 0.93849991E+02  0.52787E+04
 0.93899994E+02  0.53330E+04
 0.93949997E+02  0.53278E+04
 0.93999992E+02  0.53213E+04
 0.94049995E+02  0.53391E+04
 0.94099991E+02  0.53397E+04
 0.94149994E+02  0.53325E+04
 0.94199997E+02  0.53230E+04
 0.94249992E+02  0.53323E+04
 0.94299995E+02  0.52939E+04
 0.94349991E+02  0.52690E+04
 0.94399994E+02  0.52827E+04
 0.94449997E+02  0.53067E+04
 0.94499992E+02  0.52999E+04
 0.94549995E+02  0.53056E+04
 0.94599991E+02  0.53185E+04
 0.94649994E+02  0.53364E+04
 0.94699997E+02  0.53730E+04
 0.94749992E+02  0.53450E+04
 0.94799995E+02  0.53711E+04
 0.94849991E+02  0.53699E+04
 0.94899994E+02  0.53554E+04
 0.94949997E+02  0.53725E+04
 0.94999992E+02  0.53957E+04
 0.95049995E+02  0.53646E+04
 0.95099991E+02  0.52829E+04
 0.95149994E+02  0.52581E+04
 0.95199997E+02  0.52352E+04
 0.95249992E+02  0.52491E+04
 0.95299995E+02  0.53142E+04
 0.95349991E+02  0.53608E+04
 0.95399994E+02  0.53607E+04
 0.95449997E+02  0.53365E+04
 0.95499992E+02  0.53061E+04
 0.95549995E+02  0.52835E+04
 0.95599991E+02  0.52717E+04
 0.95649994E+02  0.52868E+04
 0.95699997E+02  0.52959E+04
 0.95749992E+02  0.52610E+04
 0.95799995E+02  0.52284E+04
 0.95849991E+02  0.52210E+04
 0.95899994E+02  0.52193E+04
 0.95949997E+02  0.52306E+04
 0.95999992E+02  0.52717E+04
 0.96049995E+02  0.52976E+04
 0.96099991E+02  0.52782E+04
 0.96149994E+02  0.52597E+04
 0.96199997E+02  0.52822E+04
 0.96249992E+02  0.52808E+04
 0.96299995E+02  0.52679E+04
 0.96349991E+02  0.53195E+04
 0.96399994E+02  0.53641E+04
 0.96449997E+02  0.53266E+04
 0.96499992E+02  0.53063E+04
 0.96549995E+02  0.53047E+04
 0.96599991E+02  0.52815E+04
 0.96649994E+02  0.53136E+04
 0.96699997E+02  0.53439E+04
 0.96749992E+02  0.53018E+04
 0.96799995E+02  0.52867E+04
 0.96849991E+02  0.53019E+04
 0.96899994E+02  0.53345E+04
 0.96949997E+02  0.53947E+04
 0.96999992E+02  0.53693E+04
 0.97049995E+02  0.53270E+04
 0.97099991E+02  0.52693E+04
 0.97149994E+02  0.52234E+04
 0.97199997E+02  0.52638E+04
 0.97249992E+02  0.53307E+04
 0.97299995E+02  0.53684E+04
 0.97349991E+02  0.53040E+04
 0.97399994E+02  0.52682E+04
 0.97449997E+02  0.52931E+04
 0.97499992E+02  0.52836E+04
 0.97549995E+02  0.52520E+04
 0.97599991E+02  0.52475E+04
 0.97649994E+02  0.52736E+04
 0.97699997E+02  0.52612E+04
 0.97749992E+02  0.52240E+04
 0.97799995E+02  0.51977E+04
 0.97849991E+02  0.51737E+04
 0.97899994E+02  0.51771E+04
 0.97949997E+02  0.52252E+04
 0.97999992E+02  0.52593E+04
