-0.20000000E+01 -0.68853E+04
-0.19500000E+01 -0.68432E+04
-0.19000000E+01 -0.68697E+04
-0.18500000E+01 -0.68730E+04
-0.18000000E+01 -0.68755E+04
-0.17500000E+01 -0.68691E+04
-0.17000000E+01 -0.68648E+04
-0.16500001E+01 -0.68640E+04
-0.16000000E+01 -0.68620E+04
-0.15500000E+01 -0.68569E+04
-0.15000000E+01 -0.68603E+04
-0.14500000E+01 -0.68620E+04
-0.14000001E+01 -0.68579E+04
-0.13500000E+01 -0.68600E+04
-0.13000001E+01 -0.68696E+04
-0.12500000E+01 -0.68753E+04
-0.12000000E+01 -0.68701E+04
-0.11500001E+01 -0.68667E+04
-0.11000000E+01 -0.68731E+04
-0.10500001E+01 -0.68829E+04
-0.10000000E+01 -0.68932E+04
-0.95000005E+00 -0.68969E+04
-0.90000010E+00 -0.68967E+04
-0.85000002E+00 -0.68938E+04
-0.80000007E+00 -0.68894E+04
-0.75000012E+00 -0.68880E+04
-0.70000005E+00 -0.68913E+04
-0.65000010E+00 -0.68979E+04
-0.60000014E+00 -0.68934E+04
-0.55000007E+00 -0.68885E+04
-0.50000012E+00 -0.68891E+04
-0.45000005E+00 -0.68792E+04
-0.40000010E+00 -0.68748E+04
-0.35000014E+00 -0.68801E+04
-0.30000007E+00 -0.68866E+04
-0.25000012E+00 -0.68892E+04
-0.20000005E+00 -0.68811E+04
-0.15000010E+00 -0.68781E+04
-0.10000014E+00 -0.68801E+04
-0.50000072E-01 -0.68813E+04
-0.11920929E-06 -0.68892E+04
 0.49999952E-01 -0.68912E+04
 0.99999905E-01 -0.68858E+04
 0.14999986E+00 -0.68890E+04
 0.19999981E+00 -0.68929E+04
 0.24999976E+00 -0.68939E+04
 0.29999995E+00 -0.68931E+04
 0.34999990E+00 -0.68953E+04
 0.39999986E+00 -0.69019E+04
 0.44999981E+00 -0.69064E+04
 0.49999976E+00 -0.69072E+04
 0.54999995E+00 -0.69039E+04
 0.59999990E+00 -0.69034E+04
 0.64999986E+00 -0.69052E+04
 0.69999981E+00 -0.69057E+04
 0.74999976E+00 -0.69071E+04
 0.79999971E+00 -0.69073E+04
 0.84999990E+00 -0.69057E+04
 0.89999986E+00 -0.69057E+04
 0.94999981E+00 -0.69115E+04
 0.99999976E+00 -0.69149E+04
 0.10499997E+01 -0.69084E+04
 0.10999999E+01 -0.68995E+04
 0.11499999E+01 -0.68902E+04
 0.11999998E+01 -0.68807E+04
 0.12499998E+01 -0.68800E+04
 0.12999997E+01 -0.68836E+04
 0.13499999E+01 -0.68900E+04
 0.13999999E+01 -0.68908E+04
 0.14499998E+01 -0.68867E+04
 0.14999998E+01 -0.68824E+04
 0.15499997E+01 -0.68791E+04
 0.15999999E+01 -0.68784E+04
 0.16499999E+01 -0.68756E+04
 0.16999998E+01 -0.68776E+04
 0.17499998E+01 -0.68816E+04
 0.17999997E+01 -0.68797E+04
 0.18499997E+01 -0.68754E+04
 0.18999999E+01 -0.68770E+04
 0.19499998E+01 -0.68822E+04
 0.19999998E+01 -0.68870E+04
 0.20499997E+01 -0.68804E+04
 0.20999999E+01 -0.68823E+04
 0.21499996E+01 -0.68807E+04
 0.21999998E+01 -0.68762E+04
 0.22499995E+01 -0.68791E+04
 0.22999997E+01 -0.68779E+04
 0.23499999E+01 -0.68750E+04
 0.23999996E+01 -0.68726E+04
 0.24499998E+01 -0.68674E+04
 0.24999995E+01 -0.68636E+04
 0.25499997E+01 -0.68665E+04
 0.25999999E+01 -0.68691E+04
 0.26499996E+01 -0.68686E+04
 0.26999998E+01 -0.68596E+04
 0.27499995E+01 -0.68564E+04
 0.27999997E+01 -0.68554E+04
 0.28499999E+01 -0.68527E+04
 0.28999996E+01 -0.68552E+04
 0.29499998E+01 -0.68538E+04
 0.29999995E+01 -0.68490E+04
 0.30499997E+01 -0.68575E+04
 0.30999999E+01 -0.68622E+04
 0.31499996E+01 -0.68673E+04
 0.31999998E+01 -0.68735E+04
 0.32499995E+01 -0.68687E+04
 0.32999997E+01 -0.68733E+04
 0.33499999E+01 -0.68838E+04
 0.33999996E+01 -0.68895E+04
 0.34499998E+01 -0.68930E+04
 0.34999995E+01 -0.68926E+04
 0.35499997E+01 -0.68916E+04
 0.35999994E+01 -0.68956E+04
 0.36499996E+01 -0.68982E+04
 0.36999998E+01 -0.69058E+04
 0.37499995E+01 -0.69095E+04
 0.37999997E+01 -0.69052E+04
 0.38499994E+01 -0.69070E+04
 0.38999996E+01 -0.69129E+04
 0.39499998E+01 -0.69102E+04
 0.39999995E+01 -0.68979E+04
 0.40499997E+01 -0.68965E+04
 0.40999994E+01 -0.69024E+04
 0.41499996E+01 -0.68968E+04
 0.41999998E+01 -0.68909E+04
 0.42499995E+01 -0.68865E+04
 0.42999997E+01 -0.68911E+04
 0.43499994E+01 -0.69003E+04
 0.43999996E+01 -0.69012E+04
 0.44499998E+01 -0.68950E+04
 0.44999995E+01 -0.68957E+04
 0.45499997E+01 -0.69036E+04
 0.45999994E+01 -0.69033E+04
 0.46499996E+01 -0.69030E+04
 0.46999998E+01 -0.69031E+04
 0.47499995E+01 -0.69062E+04
 0.47999997E+01 -0.69080E+04
 0.48499994E+01 -0.69154E+04
 0.48999996E+01 -0.69149E+04
 0.49499998E+01 -0.69064E+04
 0.49999995E+01 -0.69064E+04
 0.50499997E+01 -0.69063E+04
 0.50999994E+01 -0.68992E+04
 0.51499996E+01 -0.68870E+04
 0.51999998E+01 -0.68844E+04
 0.52499995E+01 -0.68962E+04
 0.52999997E+01 -0.69043E+04
 0.53499994E+01 -0.68950E+04
 0.53999996E+01 -0.68814E+04
 0.54499993E+01 -0.68719E+04
 0.54999995E+01 -0.68721E+04
 0.55499997E+01 -0.68779E+04
 0.55999994E+01 -0.68749E+04
 0.56499996E+01 -0.68664E+04
 0.56999993E+01 -0.68732E+04
 0.57499995E+01 -0.68815E+04
 0.57999997E+01 -0.68827E+04
 0.58499994E+01 -0.68885E+04
 0.58999996E+01 -0.68968E+04
 0.59499993E+01 -0.69010E+04
 0.59999995E+01 -0.68993E+04
 0.60499992E+01 -0.68937E+04
 0.60999994E+01 -0.68916E+04
 0.61499996E+01 -0.68906E+04
 0.61999998E+01 -0.68801E+04
 0.62499990E+01 -0.68677E+04
 0.62999992E+01 -0.68657E+04
 0.63499994E+01 -0.68772E+04
 0.63999996E+01 -0.68836E+04
 0.64499998E+01 -0.68805E+04
 0.64999990E+01 -0.68799E+04
 0.65499992E+01 -0.68803E+04
 0.65999994E+01 -0.68851E+04
 0.66499996E+01 -0.68849E+04
 0.66999998E+01 -0.68790E+04
 0.67499990E+01 -0.68819E+04
 0.67999992E+01 -0.68843E+04
 0.68499994E+01 -0.68888E+04
 0.68999996E+01 -0.68954E+04
 0.69499998E+01 -0.68972E+04
 0.69999990E+01 -0.69006E+04
 0.70499992E+01 -0.69090E+04
 0.70999994E+01 -0.69052E+04
 0.71499996E+01 -0.69017E+04
 0.71999998E+01 -0.69078E+04
 0.72499990E+01 -0.68997E+04
 0.72999992E+01 -0.68954E+04
 0.73499994E+01 -0.69005E+04
 0.73999996E+01 -0.69013E+04
 0.74499998E+01 -0.69064E+04
 0.74999990E+01 -0.68991E+04
 0.75499992E+01 -0.68853E+04
 0.75999994E+01 -0.68925E+04
 0.76499996E+01 -0.68970E+04
 0.76999998E+01 -0.68968E+04
 0.77499990E+01 -0.68935E+04
 0.77999992E+01 -0.68891E+04
 0.78499994E+01 -0.68933E+04
 0.78999996E+01 -0.68915E+04
 0.79499998E+01 -0.68852E+04
 0.79999990E+01 -0.68823E+04
 0.80499992E+01 -0.68753E+04
 0.80999994E+01 -0.68760E+04
 0.81499996E+01 -0.68792E+04
 0.81999998E+01 -0.68749E+04
 0.82499990E+01 -0.68682E+04
 0.82999992E+01 -0.68626E+04
 0.83499994E+01 -0.68687E+04
 0.83999996E+01 -0.68808E+04
 0.84499998E+01 -0.68761E+04
 0.84999990E+01 -0.68660E+04
 0.85499992E+01 -0.68631E+04
 0.85999994E+01 -0.68665E+04
 0.86499996E+01 -0.68723E+04
 0.86999998E+01 -0.68691E+04
 0.87499990E+01 -0.68720E+04
 0.87999992E+01 -0.68750E+04
 0.88499994E+01 -0.68766E+04
 0.88999996E+01 -0.68785E+04
 0.89499998E+01 -0.68734E+04
 0.89999990E+01 -0.68726E+04
 0.90499992E+01 -0.68787E+04
 0.90999994E+01 -0.68794E+04
 0.91499996E+01 -0.68827E+04
 0.91999989E+01 -0.68873E+04
 0.92499990E+01 -0.68911E+04
 0.92999992E+01 -0.68965E+04
 0.93499994E+01 -0.68949E+04
 0.93999996E+01 -0.68977E+04
 0.94499989E+01 -0.69081E+04
 0.94999990E+01 -0.69128E+04
 0.95499992E+01 -0.69145E+04
 0.95999994E+01 -0.69164E+04
 0.96499996E+01 -0.69195E+04
 0.96999989E+01 -0.69236E+04
 0.97499990E+01 -0.69316E+04
 0.97999992E+01 -0.69331E+04
 0.98499994E+01 -0.69261E+04
 0.98999996E+01 -0.69217E+04
 0.99499989E+01 -0.69221E+04
 0.99999990E+01 -0.69264E+04
 0.10049999E+02 -0.69175E+04
 0.10099999E+02 -0.69006E+04
 0.10150000E+02 -0.68974E+04
 0.10199999E+02 -0.68983E+04
 0.10249999E+02 -0.68948E+04
 0.10299999E+02 -0.68956E+04
 0.10349999E+02 -0.68862E+04
 0.10400000E+02 -0.68777E+04
 0.10449999E+02 -0.68640E+04
 0.10499999E+02 -0.68564E+04
 0.10549999E+02 -0.68591E+04
 0.10599999E+02 -0.68623E+04
 0.10650000E+02 -0.68677E+04
 0.10699999E+02 -0.68638E+04
 0.10749999E+02 -0.68686E+04
 0.10799999E+02 -0.68686E+04
 0.10849999E+02 -0.68667E+04
 0.10900000E+02 -0.68677E+04
 0.10949999E+02 -0.68676E+04
 0.10999999E+02 -0.68711E+04
 0.11049999E+02 -0.68715E+04
 0.11099999E+02 -0.68630E+04
 0.11150000E+02 -0.68634E+04
 0.11199999E+02 -0.68717E+04
 0.11249999E+02 -0.68750E+04
 0.11299999E+02 -0.68743E+04
 0.11349999E+02 -0.68718E+04
 0.11400000E+02 -0.68654E+04
 0.11449999E+02 -0.68630E+04
 0.11499999E+02 -0.68571E+04
 0.11549999E+02 -0.68499E+04
 0.11599999E+02 -0.68594E+04
 0.11650000E+02 -0.68695E+04
 0.11699999E+02 -0.68733E+04
 0.11749999E+02 -0.68731E+04
 0.11799999E+02 -0.68747E+04
 0.11849999E+02 -0.68761E+04
 0.11900000E+02 -0.68759E+04
 0.11949999E+02 -0.68717E+04
 0.11999999E+02 -0.68722E+04
 0.12049999E+02 -0.68764E+04
 0.12099999E+02 -0.68786E+04
 0.12150000E+02 -0.68863E+04
 0.12199999E+02 -0.68903E+04
 0.12249999E+02 -0.68955E+04
 0.12299999E+02 -0.68996E+04
 0.12349999E+02 -0.68986E+04
 0.12400000E+02 -0.69001E+04
 0.12449999E+02 -0.69030E+04
 0.12499999E+02 -0.69115E+04
 0.12549999E+02 -0.69178E+04
 0.12599999E+02 -0.69173E+04
 0.12649999E+02 -0.69169E+04
 0.12699999E+02 -0.69273E+04
 0.12749999E+02 -0.69343E+04
 0.12799999E+02 -0.69313E+04
 0.12849999E+02 -0.69282E+04
 0.12899999E+02 -0.69275E+04
 0.12949999E+02 -0.69249E+04
 0.12999999E+02 -0.69271E+04
 0.13049999E+02 -0.69302E+04
 0.13099999E+02 -0.69202E+04
 0.13149999E+02 -0.69131E+04
 0.13199999E+02 -0.69104E+04
 0.13249999E+02 -0.69158E+04
 0.13299999E+02 -0.69184E+04
 0.13349999E+02 -0.69053E+04
 0.13399999E+02 -0.68927E+04
 0.13449999E+02 -0.68898E+04
 0.13499999E+02 -0.68787E+04
 0.13549999E+02 -0.68912E+04
 0.13599999E+02 -0.68891E+04
 0.13649999E+02 -0.68867E+04
 0.13699999E+02 -0.68858E+04
 0.13749999E+02 -0.68846E+04
 0.13799999E+02 -0.68977E+04
 0.13849999E+02 -0.68606E+04
 0.13899999E+02 -0.69171E+04
 0.13949999E+02 -0.68604E+04
 0.13999999E+02 -0.68987E+04
 0.14049999E+02 -0.69147E+04
 0.14099998E+02 -0.68608E+04
 0.14150000E+02 -0.69035E+04
 0.14199999E+02 -0.68657E+04
 0.14249998E+02 -0.68751E+04
 0.14299999E+02 -0.69045E+04
 0.14349998E+02 -0.69312E+04
 0.14400000E+02 -0.68167E+04
 0.14449999E+02 -0.68807E+04
 0.14499998E+02 -0.68577E+04
 0.14549999E+02 -0.68937E+04
 0.14599998E+02 -0.68937E+04
 0.14650000E+02 -0.68720E+04
 0.14699999E+02 -0.68651E+04
 0.14749998E+02 -0.68831E+04
 0.14799999E+02 -0.69303E+04
 0.14849998E+02 -0.68537E+04
 0.14900000E+02 -0.69026E+04
 0.14949999E+02 -0.67773E+04
 0.14999998E+02 -0.68799E+04
 0.15049999E+02 -0.69214E+04
 0.15099998E+02 -0.69680E+04
 0.15150000E+02 -0.67879E+04
 0.15199999E+02 -0.66705E+04
 0.15249998E+02 -0.67342E+04
 0.15299999E+02 -0.66330E+04
 0.15349998E+02 -0.64467E+04
 0.15400000E+02 -0.78151E+04
 0.15449999E+02 -0.77328E+04
 0.15499998E+02 -0.62506E+04
 0.15549999E+02 -0.64099E+04
 0.15599998E+02 -0.62054E+04
 0.15650000E+02 -0.83070E+04
 0.15699999E+02 -0.63476E+04
 0.15749998E+02 -0.72989E+04
 0.15799999E+02 -0.71277E+04
 0.15849998E+02 -0.45775E+04
 0.15900000E+02 -0.69056E+04
 0.15949999E+02 -0.71648E+04
 0.15999998E+02 -0.87638E+04
 0.16049999E+02 -0.55588E+04
 0.16099998E+02 -0.66775E+04
 0.16150000E+02 -0.85003E+04
 0.16199999E+02 -0.58787E+04
 0.16249998E+02 -0.50978E+04
 0.16299999E+02 -0.92213E+04
 0.16349998E+02 -0.93361E+04
 0.16400000E+02 -0.53326E+04
 0.16449999E+02 -0.49959E+04
 0.16499998E+02 -0.50665E+04
 0.16549999E+02 -0.75333E+04
 0.16599998E+02 -0.10587E+05
 0.16650000E+02 -0.86698E+04
 0.16699999E+02 -0.31530E+04
 0.16749998E+02 -0.53330E+04
 0.16799999E+02 -0.74925E+04
 0.16849998E+02 -0.11396E+05
 0.16900000E+02 -0.55172E+04
 0.16949999E+02 -0.38844E+04
 0.16999998E+02 -0.61311E+04
 0.17049999E+02 -0.67887E+04
 0.17099998E+02 -0.91660E+04
 0.17150000E+02 -0.69629E+04
 0.17199999E+02 -0.35787E+04
 0.17249998E+02 -0.90611E+04
 0.17299999E+02 -0.11493E+04
 0.17349998E+02 -0.89001E+04
 0.17400000E+02 -0.17957E+05
 0.17449999E+02 -0.80955E+04
 0.17499998E+02 -0.31122E+04
 0.17549999E+02  0.40548E+04
 0.17599998E+02 -0.67254E+04
 0.17650000E+02 -0.17201E+05
 0.17699999E+02 -0.13544E+05
 0.17749998E+02 -0.13970E+04
 0.17799999E+02 -0.15053E+04
 0.17849998E+02 -0.70064E+04
 0.17900000E+02 -0.18831E+04
 0.17949999E+02 -0.95014E+04
 0.17999998E+02 -0.10288E+05
 0.18049999E+02 -0.10058E+05
 0.18099998E+02 -0.12102E+05
 0.18150000E+02  0.13267E+04
 0.18199999E+02 -0.47597E+03
 0.18249998E+02 -0.12153E+05
 0.18299999E+02 -0.87142E+04
 0.18349998E+02 -0.25073E+04
 0.18400000E+02 -0.10256E+05
 0.18449999E+02 -0.38357E+04
 0.18499998E+02 -0.91406E+04
 0.18549999E+02 -0.76669E+04
 0.18599998E+02 -0.60108E+04
 0.18650000E+02 -0.63899E+04
 0.18699999E+02 -0.83930E+04
 0.18749998E+02 -0.81854E+04
 0.18799999E+02 -0.78550E+04
 0.18849998E+02 -0.61838E+04
 0.18900000E+02 -0.55791E+04
 0.18949999E+02 -0.97142E+04
 0.18999998E+02 -0.53598E+04
 0.19049999E+02 -0.36383E+04
 0.19099998E+02 -0.64376E+04
 0.19150000E+02 -0.95578E+04
 0.19199999E+02 -0.98845E+04
 0.19249998E+02 -0.55099E+04
 0.19299999E+02 -0.13493E+04
 0.19349998E+02 -0.14309E+05
 0.19400000E+02 -0.29051E+04
 0.19449999E+02 -0.63114E+04
 0.19499998E+02 -0.10717E+05
 0.19549999E+02 -0.68217E+04
 0.19599998E+02 -0.52293E+04
 0.19650000E+02 -0.52944E+04
 0.19699999E+02 -0.79425E+04
 0.19749998E+02 -0.10281E+05
 0.19799999E+02 -0.10734E+05
 0.19849998E+02  0.17266E+04
 0.19900000E+02 -0.61655E+04
 0.19949999E+02 -0.66068E+04
 0.19999998E+02 -0.83303E+04
 0.20049999E+02 -0.12719E+05
 0.20099998E+02 -0.17186E+04
 0.20150000E+02 -0.22972E+04
 0.20199999E+02 -0.79658E+04
 0.20249998E+02 -0.12409E+05
 0.20299999E+02 -0.40159E+04
 0.20349998E+02 -0.11062E+04
 0.20399998E+02 -0.15529E+05
 0.20449999E+02 -0.84311E+04
 0.20499998E+02 -0.36753E+04
 0.20549999E+02 -0.91766E+04
 0.20599998E+02 -0.61818E+04
 0.20649998E+02 -0.64762E+04
 0.20699999E+02 -0.54634E+04
 0.20749998E+02 -0.47728E+04
 0.20799999E+02 -0.12906E+05
 0.20849998E+02 -0.68683E+04
 0.20899998E+02 -0.20701E+04
 0.20949999E+02 -0.61734E+04
 0.20999998E+02 -0.30515E+04
 0.21049999E+02 -0.73789E+04
 0.21099998E+02 -0.15166E+05
 0.21149998E+02 -0.81269E+04
 0.21199999E+02 -0.11280E+04
 0.21249998E+02 -0.86156E+03
 0.21299999E+02 -0.85052E+04
 0.21349998E+02 -0.13682E+05
 0.21399998E+02 -0.88849E+04
 0.21449999E+02 -0.55075E+04
 0.21499998E+02 -0.35796E+04
 0.21549999E+02 -0.53584E+04
 0.21599998E+02 -0.47755E+04
 0.21649998E+02 -0.80758E+04
 0.21699999E+02 -0.11551E+05
 0.21749998E+02 -0.10758E+05
 0.21799999E+02 -0.99518E+04
 0.21849998E+02  0.47600E+03
 0.21899998E+02  0.11956E+04
 0.21949999E+02 -0.99250E+04
 0.21999998E+02 -0.13435E+05
 0.22049999E+02 -0.11064E+05
 0.22099998E+02  0.21634E+04
 0.22149998E+02 -0.48744E+04
 0.22199999E+02 -0.88009E+04
 0.22249998E+02 -0.86617E+04
 0.22299999E+02 -0.14692E+05
 0.22349998E+02 -0.13634E+04
 0.22399998E+02 -0.46012E+04
 0.22449999E+02 -0.32976E+04
 0.22499998E+02 -0.41175E+04
 0.22549999E+02 -0.99780E+04
 0.22599998E+02 -0.12890E+05
 0.22649998E+02 -0.42871E+04
 0.22699999E+02 -0.10256E+05
 0.22749998E+02 -0.53734E+04
 0.22799999E+02  0.12300E+04
 0.22849998E+02 -0.11507E+05
 0.22899998E+02 -0.88907E+04
 0.22949999E+02 -0.66131E+04
 0.22999998E+02 -0.59189E+04
 0.23049999E+02 -0.79735E+04
 0.23099998E+02 -0.64022E+04
 0.23149998E+02 -0.77444E+04
 0.23199999E+02 -0.37416E+04
 0.23249998E+02 -0.11066E+05
 0.23299999E+02 -0.58100E+04
 0.23349998E+02 -0.47045E+04
 0.23399998E+02 -0.74495E+04
 0.23449999E+02 -0.10149E+05
 0.23499998E+02 -0.54204E+04
 0.23549999E+02 -0.31240E+04
 0.23599998E+02 -0.71348E+04
 0.23649998E+02 -0.88291E+04
 0.23699999E+02 -0.84897E+04
 0.23749998E+02 -0.15231E+04
 0.23799999E+02 -0.10250E+05
 0.23849998E+02 -0.95332E+04
 0.23899998E+02 -0.31200E+04
 0.23949999E+02 -0.65941E+04
 0.23999998E+02 -0.93539E+04
 0.24049999E+02 -0.50537E+04
 0.24099998E+02 -0.44047E+04
 0.24149998E+02 -0.70925E+04
 0.24199999E+02 -0.12223E+05
 0.24249998E+02 -0.14357E+05
 0.24299999E+02 -0.17715E+04
 0.24349998E+02 -0.18057E+04
 0.24399998E+02 -0.41146E+04
 0.24449999E+02 -0.67971E+04
 0.24499998E+02 -0.16924E+05
 0.24549999E+02 -0.44128E+04
 0.24599998E+02 -0.25027E+04
 0.24649998E+02 -0.67699E+04
 0.24699999E+02 -0.55988E+04
 0.24749998E+02 -0.12879E+05
 0.24799999E+02 -0.75280E+04
 0.24849998E+02 -0.22971E+04
 0.24899998E+02 -0.85531E+04
 0.24949999E+02 -0.87228E+04
 0.24999998E+02 -0.71552E+04
 0.25049999E+02 -0.68732E+04
 0.25099998E+02 -0.43641E+04
 0.25149998E+02 -0.46204E+04
 0.25199999E+02 -0.96040E+04
 0.25249998E+02 -0.43587E+04
 0.25299999E+02 -0.10561E+05
 0.25349998E+02 -0.11547E+05
 0.25399998E+02 -0.50735E+04
 0.25449999E+02 -0.65247E+04
 0.25499998E+02 -0.10396E+05
 0.25549999E+02 -0.80656E+04
 0.25599998E+02 -0.66462E+04
 0.25649998E+02  0.58810E+03
 0.25699999E+02 -0.17680E+04
 0.25749998E+02 -0.10992E+05
 0.25799999E+02 -0.71925E+04
 0.25849998E+02 -0.69373E+04
 0.25899998E+02 -0.10282E+05
 0.25949999E+02 -0.12260E+05
 0.25999998E+02 -0.27380E+04
 0.26049999E+02 -0.82614E+04
 0.26099998E+02 -0.26638E+04
 0.26149998E+02 -0.54186E+04
 0.26199999E+02 -0.34386E+04
 0.26249998E+02 -0.68392E+04
 0.26299999E+02 -0.11103E+05
 0.26349998E+02 -0.23460E+04
 0.26399998E+02 -0.53615E+03
 0.26449999E+02 -0.12001E+05
 0.26499998E+02 -0.19715E+05
 0.26549999E+02 -0.29966E+04
 0.26599998E+02 -0.20413E+04
 0.26649998E+02 -0.84782E+04
 0.26699999E+02 -0.34962E+04
 0.26749998E+02 -0.10098E+05
 0.26799999E+02 -0.14854E+05
 0.26849998E+02 -0.22559E+03
 0.26899998E+02  0.57893E+04
 0.26949999E+02 -0.11298E+05
 0.26999998E+02 -0.27421E+05
 0.27049997E+02 -0.10944E+05
 0.27099998E+02  0.62860E+04
 0.27149998E+02  0.96497E+04
 0.27199999E+02 -0.43543E+04
 0.27249998E+02 -0.17247E+05
 0.27299997E+02 -0.22872E+05
 0.27349998E+02 -0.78432E+04
 0.27399998E+02  0.69603E+04
 0.27449999E+02 -0.71516E+04
 0.27499998E+02 -0.80915E+04
 0.27549997E+02 -0.83498E+03
 0.27599998E+02 -0.14843E+05
 0.27649998E+02  0.67371E+03
 0.27699999E+02  0.14672E+05
 0.27749998E+02 -0.13708E+05
 0.27799997E+02 -0.34108E+05
 0.27849998E+02 -0.23425E+05
 0.27899998E+02  0.91666E+04
 0.27949999E+02  0.13933E+05
 0.27999998E+02  0.17873E+04
 0.28049997E+02 -0.26045E+05
 0.28099998E+02 -0.18329E+05
 0.28149998E+02  0.41444E+04
 0.28199999E+02  0.32504E+04
 0.28249998E+02 -0.28554E+04
 0.28299997E+02 -0.25368E+05
 0.28349998E+02 -0.24132E+05
 0.28399998E+02 -0.66617E+04
 0.28449999E+02  0.11933E+05
 0.28499998E+02  0.10776E+05
 0.28549997E+02 -0.67350E+04
 0.28599998E+02 -0.15442E+05
 0.28649998E+02 -0.10737E+05
 0.28699999E+02 -0.10423E+05
 0.28749998E+02 -0.91572E+04
 0.28799997E+02 -0.70019E+04
 0.28849998E+02 -0.47993E+04
 0.28899998E+02  0.22224E+04
 0.28949999E+02 -0.16381E+05
 0.28999998E+02 -0.49150E+04
 0.29049997E+02  0.12636E+05
 0.29099998E+02 -0.17425E+05
 0.29149998E+02 -0.19343E+05
 0.29199999E+02 -0.10592E+04
 0.29249998E+02 -0.89721E+04
 0.29299997E+02 -0.98140E+04
 0.29349998E+02 -0.16768E+04
 0.29399998E+02  0.22621E+04
 0.29449999E+02 -0.12176E+04
 0.29499998E+02 -0.14520E+05
 0.29549997E+02 -0.17226E+05
 0.29599998E+02 -0.67839E+04
 0.29649998E+02 -0.94760E+04
 0.29699999E+02 -0.79920E+04
 0.29749998E+02  0.46735E+04
 0.29799997E+02 -0.13466E+05
 0.29849998E+02 -0.17260E+05
 0.29899998E+02  0.17195E+03
 0.29949999E+02 -0.70254E+04
 0.29999998E+02  0.14929E+04
 0.30049999E+02 -0.13965E+04
 0.30099998E+02 -0.13985E+05
 0.30149998E+02 -0.10206E+05
 0.30199997E+02 -0.89202E+04
 0.30249996E+02 -0.82599E+04
 0.30299999E+02 -0.24045E+04
 0.30349998E+02  0.29120E+04
 0.30399998E+02 -0.14714E+05
 0.30449997E+02 -0.16459E+05
 0.30499996E+02 -0.54775E+04
 0.30549999E+02 -0.13839E+04
 0.30599998E+02 -0.44681E+04
 0.30649998E+02 -0.81447E+04
 0.30699997E+02 -0.57894E+04
 0.30749996E+02 -0.36401E+04
 0.30799999E+02 -0.10609E+05
 0.30849998E+02 -0.14913E+05
 0.30899998E+02 -0.69366E+04
 0.30949997E+02 -0.51668E+04
 0.30999996E+02 -0.70949E+04
 0.31049999E+02 -0.97381E+04
 0.31099998E+02 -0.19565E+04
 0.31149998E+02 -0.79689E+03
 0.31199997E+02 -0.59663E+04
 0.31249996E+02 -0.93041E+04
 0.31299999E+02 -0.12873E+05
 0.31349998E+02 -0.71479E+04
 0.31399998E+02 -0.93647E+04
 0.31449997E+02 -0.69548E+04
 0.31499996E+02 -0.15815E+04
 0.31549999E+02 -0.45216E+04
 0.31599998E+02 -0.10825E+05
 0.31649998E+02 -0.11973E+05
 0.31699997E+02 -0.46414E+04
 0.31749996E+02 -0.50964E+04
 0.31799999E+02 -0.10106E+05
 0.31849998E+02 -0.66632E+04
 0.31899998E+02 -0.29619E+04
 0.31949997E+02 -0.53736E+04
 0.31999996E+02 -0.85335E+04
 0.32049999E+02 -0.11781E+05
 0.32099998E+02 -0.96002E+04
 0.32149998E+02 -0.28275E+04
 0.32199997E+02 -0.48819E+04
 0.32249996E+02 -0.90066E+04
 0.32299999E+02 -0.85360E+04
 0.32349998E+02 -0.99421E+04
 0.32399998E+02 -0.18796E+04
 0.32449997E+02 -0.56136E+04
 0.32499996E+02 -0.12815E+05
 0.32549999E+02 -0.85078E+04
 0.32599998E+02 -0.78428E+04
 0.32649998E+02 -0.58214E+04
 0.32699997E+02 -0.55770E+04
 0.32749996E+02 -0.84917E+04
 0.32799999E+02 -0.98116E+04
 0.32849998E+02 -0.31919E+04
 0.32899998E+02 -0.49113E+04
 0.32949997E+02 -0.84050E+04
 0.32999996E+02 -0.73819E+04
 0.33049999E+02 -0.69779E+04
 0.33099998E+02 -0.29709E+04
 0.33149998E+02 -0.47840E+04
 0.33199997E+02 -0.36567E+04
 0.33249996E+02 -0.70039E+04
 0.33299999E+02 -0.87375E+04
 0.33349998E+02 -0.64826E+04
 0.33399998E+02 -0.72747E+04
 0.33449997E+02 -0.76048E+04
 0.33499996E+02 -0.57937E+04
 0.33549999E+02 -0.56965E+04
 0.33599998E+02 -0.10150E+05
 0.33649998E+02 -0.79458E+04
 0.33699997E+02 -0.56854E+04
 0.33749996E+02 -0.67740E+04
 0.33799999E+02 -0.10525E+05
 0.33849998E+02 -0.96853E+04
 0.33899998E+02 -0.39514E+04
 0.33949997E+02 -0.11926E+04
 0.33999996E+02 -0.59718E+04
 0.34049999E+02 -0.19721E+04
 0.34099998E+02 -0.37697E+04
 0.34149998E+02 -0.15715E+05
 0.34199997E+02 -0.12343E+05
 0.34249996E+02 -0.77821E+04
 0.34299999E+02 -0.43247E+04
 0.34349998E+02 -0.33131E+04
 0.34399998E+02 -0.66487E+04
 0.34449997E+02 -0.24179E+04
 0.34499996E+02 -0.29610E+04
 0.34549999E+02 -0.10065E+05
 0.34599998E+02 -0.98540E+04
 0.34649998E+02 -0.10656E+05
 0.34699997E+02 -0.14794E+05
 0.34749996E+02 -0.59729E+04
 0.34799999E+02  0.26212E+03
 0.34849998E+02 -0.16481E+04
 0.34899998E+02 -0.23716E+04
 0.34949997E+02 -0.10153E+05
 0.34999996E+02 -0.87926E+04
 0.35049999E+02 -0.67841E+04
 0.35099998E+02 -0.74690E+04
 0.35149998E+02 -0.83997E+04
 0.35199997E+02 -0.64719E+04
 0.35249996E+02 -0.66333E+04
 0.35299999E+02 -0.71093E+04
 0.35349998E+02 -0.54530E+04
 0.35399998E+02 -0.10381E+05
 0.35449997E+02 -0.95307E+04
 0.35499996E+02 -0.86276E+04
 0.35549999E+02 -0.49293E+04
 0.35599998E+02 -0.32331E+04
 0.35649998E+02 -0.78323E+04
 0.35699997E+02 -0.10015E+05
 0.35749996E+02 -0.10163E+05
 0.35799999E+02 -0.76541E+04
 0.35849998E+02 -0.44052E+04
 0.35899998E+02 -0.75901E+04
 0.35949997E+02 -0.12132E+05
 0.35999996E+02 -0.97693E+04
 0.36049999E+02 -0.66502E+04
 0.36099998E+02 -0.16403E+04
 0.36149998E+02  0.14697E+04
 0.36199997E+02 -0.32467E+04
 0.36249996E+02 -0.84902E+04
 0.36299999E+02 -0.10818E+05
 0.36349998E+02 -0.10611E+05
 0.36399998E+02 -0.72834E+04
 0.36449997E+02 -0.31513E+04
 0.36499996E+02 -0.12218E+04
 0.36549999E+02 -0.46528E+04
 0.36599998E+02 -0.60872E+04
 0.36649998E+02 -0.42189E+04
 0.36699997E+02 -0.59619E+04
 0.36749996E+02 -0.82599E+04
 0.36799999E+02 -0.10828E+05
 0.36849998E+02 -0.85620E+04
 0.36899998E+02 -0.37390E+04
 0.36949997E+02 -0.65279E+04
 0.36999996E+02 -0.95029E+04
 0.37049999E+02 -0.70628E+04
 0.37099998E+02 -0.35716E+04
 0.37149998E+02 -0.39120E+04
 0.37199997E+02 -0.53268E+04
 0.37249996E+02 -0.96954E+04
 0.37299999E+02 -0.11961E+05
 0.37349998E+02 -0.84808E+04
 0.37399998E+02 -0.70644E+04
 0.37449997E+02 -0.59425E+04
 0.37499996E+02 -0.65906E+04
 0.37549999E+02 -0.45155E+04
 0.37599998E+02 -0.44195E+04
 0.37649998E+02 -0.82911E+04
 0.37699997E+02 -0.69457E+04
 0.37749996E+02 -0.83555E+04
 0.37799999E+02 -0.10370E+05
 0.37849998E+02 -0.73493E+04
 0.37899998E+02 -0.58078E+04
 0.37949997E+02 -0.50547E+04
 0.37999996E+02 -0.79761E+04
 0.38049999E+02 -0.10483E+05
 0.38099998E+02 -0.85931E+04
 0.38149998E+02 -0.97264E+04
 0.38199997E+02 -0.10575E+05
 0.38249996E+02 -0.72826E+04
 0.38299999E+02 -0.35559E+04
 0.38349998E+02 -0.27347E+03
 0.38399998E+02 -0.78502E+03
 0.38449997E+02 -0.52665E+04
 0.38499996E+02 -0.74968E+04
 0.38549999E+02 -0.64981E+04
 0.38599998E+02 -0.84467E+04
 0.38649998E+02 -0.75697E+04
 0.38699997E+02 -0.90088E+04
 0.38749996E+02 -0.12352E+05
 0.38799999E+02 -0.11665E+05
 0.38849998E+02 -0.90395E+04
 0.38899998E+02 -0.54187E+04
 0.38949997E+02 -0.40853E+04
 0.38999996E+02 -0.78918E+04
 0.39049999E+02 -0.12199E+05
 0.39099998E+02 -0.10355E+05
 0.39149998E+02 -0.81524E+04
 0.39199997E+02 -0.39114E+04
 0.39249996E+02 -0.23698E+04
 0.39299999E+02 -0.35856E+04
 0.39349998E+02 -0.46359E+04
 0.39399998E+02 -0.56041E+04
 0.39449997E+02 -0.59803E+04
 0.39499996E+02 -0.44080E+04
 0.39549999E+02 -0.60970E+04
 0.39599998E+02 -0.98101E+04
 0.39649998E+02 -0.93490E+04
 0.39699997E+02 -0.91816E+04
 0.39749996E+02 -0.85435E+04
 0.39799999E+02 -0.63042E+04
 0.39849998E+02 -0.53157E+04
 0.39899998E+02 -0.40749E+04
 0.39949997E+02 -0.56193E+04
 0.39999996E+02 -0.83511E+04
 0.40049999E+02 -0.83956E+04
 0.40099998E+02 -0.58020E+04
 0.40149998E+02 -0.35357E+04
 0.40199997E+02 -0.57676E+04
 0.40249996E+02 -0.63069E+04
 0.40299999E+02 -0.65452E+04
 0.40349998E+02 -0.86279E+04
 0.40399998E+02 -0.79187E+04
 0.40449997E+02 -0.45443E+04
 0.40499996E+02 -0.31384E+04
 0.40549999E+02 -0.32718E+04
 0.40599998E+02 -0.30900E+04
 0.40649998E+02 -0.45071E+04
 0.40699997E+02 -0.52204E+04
 0.40749996E+02 -0.60713E+04
 0.40799999E+02 -0.12300E+05
 0.40849998E+02 -0.14993E+05
 0.40899998E+02 -0.11886E+05
 0.40949997E+02 -0.84977E+04
 0.40999996E+02 -0.57665E+04
 0.41049999E+02 -0.35833E+04
 0.41099998E+02 -0.63244E+04
 0.41149998E+02 -0.72109E+04
 0.41199997E+02 -0.68504E+04
 0.41249996E+02 -0.83214E+04
 0.41299999E+02 -0.57610E+04
 0.41349998E+02 -0.36891E+04
 0.41399998E+02 -0.42867E+04
 0.41449997E+02 -0.76192E+04
 0.41499996E+02 -0.12348E+05
 0.41549999E+02 -0.13187E+05
 0.41599998E+02 -0.88358E+04
 0.41649998E+02 -0.70104E+04
 0.41699997E+02 -0.65976E+04
 0.41749996E+02 -0.72496E+04
 0.41799999E+02 -0.60500E+04
 0.41849998E+02 -0.43495E+04
 0.41899998E+02 -0.58212E+04
 0.41949997E+02 -0.72112E+04
 0.41999996E+02 -0.56369E+04
 0.42049999E+02 -0.45883E+04
 0.42099998E+02 -0.59210E+04
 0.42149998E+02 -0.66528E+04
 0.42199997E+02 -0.79248E+04
 0.42249996E+02 -0.81951E+04
 0.42299999E+02 -0.62516E+04
 0.42349998E+02 -0.56424E+04
 0.42399998E+02 -0.61422E+04
 0.42449997E+02 -0.77361E+04
 0.42499996E+02 -0.10839E+05
 0.42549999E+02 -0.70014E+04
 0.42599998E+02 -0.31781E+04
 0.42649998E+02 -0.50239E+04
 0.42699997E+02 -0.82907E+04
 0.42749996E+02 -0.94556E+04
 0.42799995E+02 -0.10423E+05
 0.42849998E+02 -0.84134E+04
 0.42899998E+02 -0.44032E+04
 0.42949997E+02 -0.59126E+04
 0.42999996E+02 -0.73500E+04
 0.43049995E+02 -0.84709E+04
 0.43099998E+02 -0.66108E+04
 0.43149998E+02 -0.48276E+04
 0.43199997E+02 -0.49608E+04
 0.43249996E+02 -0.70023E+04
 0.43299995E+02 -0.76375E+04
 0.43349998E+02 -0.62202E+04
 0.43399998E+02 -0.50840E+04
 0.43449997E+02 -0.54036E+04
 0.43499996E+02 -0.60527E+04
 0.43549995E+02 -0.51553E+04
 0.43599998E+02 -0.61142E+04
 0.43649998E+02 -0.72336E+04
 0.43699997E+02 -0.72502E+04
 0.43749996E+02 -0.59372E+04
 0.43799995E+02 -0.60798E+04
 0.43849998E+02 -0.62192E+04
 0.43899998E+02 -0.62003E+04
 0.43949997E+02 -0.55473E+04
 0.43999996E+02 -0.72873E+04
 0.44049995E+02 -0.88139E+04
 0.44099998E+02 -0.83911E+04
 0.44149998E+02 -0.91653E+04
 0.44199997E+02 -0.98188E+04
 0.44249996E+02 -0.11322E+05
 0.44299995E+02 -0.11540E+05
 0.44349998E+02 -0.77865E+04
 0.44399998E+02 -0.70627E+04
 0.44449997E+02 -0.77276E+04
 0.44499996E+02 -0.59997E+04
 0.44549995E+02 -0.54558E+04
 0.44599998E+02 -0.50755E+04
 0.44649998E+02 -0.64399E+04
 0.44699997E+02 -0.71649E+04
 0.44749996E+02 -0.56439E+04
 0.44799995E+02 -0.55156E+04
 0.44849998E+02 -0.69634E+04
 0.44899998E+02 -0.78182E+04
 0.44949997E+02 -0.78681E+04
 0.44999996E+02 -0.61698E+04
 0.45049995E+02 -0.45254E+04
 0.45099998E+02 -0.47799E+04
 0.45149998E+02 -0.53090E+04
 0.45199997E+02 -0.63538E+04
 0.45249996E+02 -0.50199E+04
 0.45299995E+02 -0.34962E+04
 0.45349998E+02 -0.57773E+04
 0.45399998E+02 -0.68062E+04
 0.45449997E+02 -0.74597E+04
 0.45499996E+02 -0.98976E+04
 0.45549995E+02 -0.99876E+04
 0.45599998E+02 -0.90242E+04
 0.45649998E+02 -0.94679E+04
 0.45699997E+02 -0.88707E+04
 0.45749996E+02 -0.65491E+04
 0.45799995E+02 -0.51004E+04
 0.45849998E+02 -0.59692E+04
 0.45899998E+02 -0.78968E+04
 0.45949997E+02 -0.83908E+04
 0.45999996E+02 -0.82546E+04
 0.46049995E+02 -0.82933E+04
 0.46099998E+02 -0.66665E+04
 0.46149998E+02 -0.82422E+04
 0.46199997E+02 -0.67847E+04
 0.46249996E+02 -0.51926E+04
 0.46299995E+02 -0.53929E+04
 0.46349998E+02 -0.49353E+04
 0.46399998E+02 -0.76869E+04
 0.46449997E+02 -0.87713E+04
 0.46499996E+02 -0.74173E+04
 0.46549995E+02 -0.68630E+04
 0.46599998E+02 -0.73980E+04
 0.46649998E+02 -0.70031E+04
 0.46699997E+02 -0.82552E+04
 0.46749996E+02 -0.69934E+04
 0.46799995E+02 -0.52477E+04
 0.46849998E+02 -0.56235E+04
 0.46899998E+02 -0.65087E+04
 0.46949997E+02 -0.56417E+04
 0.46999996E+02 -0.51336E+04
 0.47049995E+02 -0.52814E+04
 0.47099998E+02 -0.59747E+04
 0.47149998E+02 -0.75257E+04
 0.47199997E+02 -0.82967E+04
 0.47249996E+02 -0.74292E+04
 0.47299995E+02 -0.55322E+04
 0.47349998E+02 -0.65409E+04
 0.47399998E+02 -0.78733E+04
 0.47449997E+02 -0.83260E+04
 0.47499996E+02 -0.63375E+04
 0.47549995E+02 -0.58477E+04
 0.47599998E+02 -0.73355E+04
 0.47649998E+02 -0.82391E+04
 0.47699997E+02 -0.80849E+04
 0.47749996E+02 -0.74904E+04
 0.47799995E+02 -0.70753E+04
 0.47849998E+02 -0.66556E+04
 0.47899998E+02 -0.70437E+04
 0.47949997E+02 -0.65942E+04
 0.47999996E+02 -0.70635E+04
 0.48049995E+02 -0.73641E+04
 0.48099998E+02 -0.66205E+04
 0.48149998E+02 -0.60510E+04
 0.48199997E+02 -0.60391E+04
 0.48249996E+02 -0.63706E+04
 0.48299995E+02 -0.67939E+04
 0.48349998E+02 -0.64184E+04
 0.48399998E+02 -0.61791E+04
 0.48449997E+02 -0.70320E+04
 0.48499996E+02 -0.82472E+04
 0.48549995E+02 -0.92088E+04
 0.48599998E+02 -0.97892E+04
 0.48649998E+02 -0.87268E+04
 0.48699997E+02 -0.71070E+04
 0.48749996E+02 -0.64618E+04
 0.48799995E+02 -0.55232E+04
 0.48849998E+02 -0.58059E+04
 0.48899998E+02 -0.62500E+04
 0.48949997E+02 -0.64068E+04
 0.48999996E+02 -0.57298E+04
 0.49049995E+02 -0.50516E+04
 0.49099998E+02 -0.53421E+04
 0.49149998E+02 -0.65079E+04
 0.49199997E+02 -0.82258E+04
 0.49249996E+02 -0.80833E+04
 0.49299995E+02 -0.64826E+04
 0.49349998E+02 -0.61491E+04
 0.49399998E+02 -0.53241E+04
 0.49449997E+02 -0.44818E+04
 0.49499996E+02 -0.47203E+04
 0.49549995E+02 -0.46447E+04
 0.49599998E+02 -0.64587E+04
 0.49649998E+02 -0.78276E+04
 0.49699997E+02 -0.76436E+04
 0.49749996E+02 -0.75935E+04
 0.49799995E+02 -0.72447E+04
 0.49849998E+02 -0.71850E+04
 0.49899998E+02 -0.69008E+04
 0.49949997E+02 -0.68763E+04
 0.49999996E+02 -0.70789E+04
 0.50049995E+02 -0.69196E+04
 0.50099998E+02 -0.66504E+04
 0.50149998E+02 -0.65376E+04
 0.50199997E+02 -0.64636E+04
 0.50249996E+02 -0.67656E+04
 0.50299995E+02 -0.77172E+04
 0.50349998E+02 -0.74123E+04
 0.50399998E+02 -0.72726E+04
 0.50449997E+02 -0.70997E+04
 0.50499996E+02 -0.76105E+04
 0.50549995E+02 -0.83388E+04
 0.50599998E+02 -0.76971E+04
 0.50649998E+02 -0.71549E+04
 0.50699997E+02 -0.67525E+04
 0.50749996E+02 -0.63686E+04
 0.50799995E+02 -0.71194E+04
 0.50849998E+02 -0.71115E+04
 0.50899998E+02 -0.54943E+04
 0.50949997E+02 -0.59722E+04
 0.50999996E+02 -0.66375E+04
 0.51049995E+02 -0.73245E+04
 0.51099998E+02 -0.86433E+04
 0.51149998E+02 -0.90972E+04
 0.51199997E+02 -0.96530E+04
 0.51249996E+02 -0.82200E+04
 0.51299995E+02 -0.63851E+04
 0.51349998E+02 -0.55709E+04
 0.51399998E+02 -0.45663E+04
 0.51449997E+02 -0.48834E+04
 0.51499996E+02 -0.60330E+04
 0.51549995E+02 -0.69773E+04
 0.51599998E+02 -0.68760E+04
 0.51649998E+02 -0.61879E+04
 0.51699997E+02 -0.63390E+04
 0.51749996E+02 -0.65372E+04
 0.51799995E+02 -0.70275E+04
 0.51849998E+02 -0.71509E+04
 0.51899998E+02 -0.65790E+04
 0.51949997E+02 -0.67817E+04
 0.51999996E+02 -0.53530E+04
 0.52049995E+02 -0.49949E+04
 0.52099998E+02 -0.54870E+04
 0.52149998E+02 -0.49738E+04
 0.52199997E+02 -0.60184E+04
 0.52249996E+02 -0.80558E+04
 0.52299995E+02 -0.77390E+04
 0.52349998E+02 -0.60141E+04
 0.52399998E+02 -0.66211E+04
 0.52449997E+02 -0.75217E+04
 0.52499996E+02 -0.87793E+04
 0.52549995E+02 -0.90873E+04
 0.52599998E+02 -0.80812E+04
 0.52649998E+02 -0.85205E+04
 0.52699997E+02 -0.84119E+04
 0.52749996E+02 -0.74824E+04
 0.52799995E+02 -0.78426E+04
 0.52849998E+02 -0.81168E+04
 0.52899998E+02 -0.77556E+04
 0.52949997E+02 -0.81265E+04
 0.52999996E+02 -0.81432E+04
 0.53049995E+02 -0.73029E+04
 0.53099998E+02 -0.61409E+04
 0.53149998E+02 -0.61477E+04
 0.53199997E+02 -0.65306E+04
 0.53249996E+02 -0.62172E+04
 0.53299995E+02 -0.60667E+04
 0.53349998E+02 -0.66110E+04
 0.53399998E+02 -0.65805E+04
 0.53449997E+02 -0.64560E+04
 0.53499996E+02 -0.73020E+04
 0.53549995E+02 -0.72778E+04
 0.53599998E+02 -0.73151E+04
 0.53649998E+02 -0.69470E+04
 0.53699997E+02 -0.65731E+04
 0.53749996E+02 -0.73177E+04
 0.53799995E+02 -0.78229E+04
 0.53849998E+02 -0.74607E+04
 0.53899998E+02 -0.74277E+04
 0.53949997E+02 -0.75542E+04
 0.53999996E+02 -0.79190E+04
 0.54049995E+02 -0.84240E+04
 0.54099998E+02 -0.71284E+04
 0.54149998E+02 -0.57760E+04
 0.54199997E+02 -0.58539E+04
 0.54249996E+02 -0.60738E+04
 0.54299995E+02 -0.65138E+04
 0.54349998E+02 -0.69112E+04
 0.54399998E+02 -0.67540E+04
 0.54449997E+02 -0.68961E+04
 0.54499996E+02 -0.67181E+04
 0.54549995E+02 -0.67131E+04
 0.54599998E+02 -0.66628E+04
 0.54649998E+02 -0.59286E+04
 0.54699997E+02 -0.55443E+04
 0.54749996E+02 -0.58328E+04
 0.54799995E+02 -0.67141E+04
 0.54849998E+02 -0.67988E+04
 0.54899998E+02 -0.64342E+04
 0.54949997E+02 -0.61977E+04
 0.54999996E+02 -0.61934E+04
 0.55049995E+02 -0.64505E+04
 0.55099998E+02 -0.67665E+04
 0.55149998E+02 -0.65476E+04
 0.55199997E+02 -0.58158E+04
 0.55249996E+02 -0.62321E+04
 0.55299995E+02 -0.64421E+04
 0.55349998E+02 -0.65797E+04
 0.55399998E+02 -0.67849E+04
 0.55449997E+02 -0.68807E+04
 0.55499996E+02 -0.76875E+04
 0.55549995E+02 -0.80902E+04
 0.55599998E+02 -0.81320E+04
 0.55649998E+02 -0.87305E+04
 0.55699997E+02 -0.90491E+04
 0.55749996E+02 -0.81676E+04
 0.55799995E+02 -0.75999E+04
 0.55849995E+02 -0.70659E+04
 0.55899998E+02 -0.65620E+04
 0.55949997E+02 -0.63380E+04
 0.55999996E+02 -0.62980E+04
 0.56049995E+02 -0.67497E+04
 0.56099995E+02 -0.65128E+04
 0.56149998E+02 -0.61523E+04
 0.56199997E+02 -0.59889E+04
 0.56249996E+02 -0.51962E+04
 0.56299995E+02 -0.52665E+04
 0.56349995E+02 -0.61506E+04
 0.56399998E+02 -0.58609E+04
 0.56449997E+02 -0.58385E+04
 0.56499996E+02 -0.62965E+04
 0.56549995E+02 -0.72674E+04
 0.56599995E+02 -0.83107E+04
 0.56649998E+02 -0.81158E+04
 0.56699997E+02 -0.76036E+04
 0.56749996E+02 -0.75916E+04
 0.56799995E+02 -0.80558E+04
 0.56849995E+02 -0.77904E+04
 0.56899998E+02 -0.71062E+04
 0.56949997E+02 -0.69429E+04
 0.56999996E+02 -0.74591E+04
 0.57049995E+02 -0.82606E+04
 0.57099995E+02 -0.88914E+04
 0.57149998E+02 -0.87297E+04
 0.57199997E+02 -0.76971E+04
 0.57249996E+02 -0.64796E+04
 0.57299995E+02 -0.58371E+04
 0.57349995E+02 -0.60309E+04
 0.57399998E+02 -0.57959E+04
 0.57449997E+02 -0.57849E+04
 0.57499996E+02 -0.55846E+04
 0.57549995E+02 -0.52693E+04
 0.57599995E+02 -0.61883E+04
 0.57649998E+02 -0.63330E+04
 0.57699997E+02 -0.59477E+04
 0.57749996E+02 -0.62977E+04
 0.57799995E+02 -0.65696E+04
 0.57849995E+02 -0.64651E+04
 0.57899998E+02 -0.68968E+04
 0.57949997E+02 -0.69104E+04
 0.57999996E+02 -0.73642E+04
 0.58049995E+02 -0.76758E+04
 0.58099995E+02 -0.67680E+04
 0.58149998E+02 -0.68302E+04
 0.58199997E+02 -0.74793E+04
 0.58249996E+02 -0.79613E+04
 0.58299995E+02 -0.78592E+04
 0.58349995E+02 -0.74202E+04
 0.58399998E+02 -0.75280E+04
 0.58449997E+02 -0.72037E+04
 0.58499996E+02 -0.68192E+04
 0.58549995E+02 -0.73290E+04
 0.58599995E+02 -0.67950E+04
 0.58649998E+02 -0.60052E+04
 0.58699997E+02 -0.61480E+04
 0.58749996E+02 -0.60006E+04
 0.58799995E+02 -0.60012E+04
 0.58849995E+02 -0.63713E+04
 0.58899998E+02 -0.61233E+04
 0.58949997E+02 -0.62182E+04
 0.58999996E+02 -0.67765E+04
 0.59049995E+02 -0.64696E+04
 0.59099995E+02 -0.62875E+04
 0.59149998E+02 -0.64770E+04
 0.59199997E+02 -0.64732E+04
 0.59249996E+02 -0.69750E+04
 0.59299995E+02 -0.76616E+04
 0.59349995E+02 -0.79613E+04
 0.59399998E+02 -0.80911E+04
 0.59449997E+02 -0.77539E+04
 0.59499996E+02 -0.73022E+04
 0.59549995E+02 -0.73804E+04
 0.59599995E+02 -0.73900E+04
 0.59649998E+02 -0.69374E+04
 0.59699997E+02 -0.67254E+04
 0.59749996E+02 -0.63244E+04
 0.59799995E+02 -0.62552E+04
 0.59849995E+02 -0.68998E+04
 0.59899998E+02 -0.70063E+04
 0.59949997E+02 -0.72992E+04
 0.59999996E+02 -0.71799E+04
 0.60049995E+02 -0.69442E+04
 0.60099995E+02 -0.72643E+04
 0.60149998E+02 -0.72226E+04
 0.60199997E+02 -0.65636E+04
 0.60249996E+02 -0.66902E+04
 0.60299995E+02 -0.71667E+04
 0.60349995E+02 -0.74189E+04
 0.60399998E+02 -0.78499E+04
 0.60449997E+02 -0.74104E+04
 0.60499996E+02 -0.71672E+04
 0.60549995E+02 -0.72840E+04
 0.60599995E+02 -0.72764E+04
 0.60649998E+02 -0.68205E+04
 0.60699997E+02 -0.64341E+04
 0.60749996E+02 -0.62035E+04
 0.60799995E+02 -0.62878E+04
 0.60849995E+02 -0.69341E+04
 0.60899998E+02 -0.66423E+04
 0.60949997E+02 -0.63778E+04
 0.60999996E+02 -0.65914E+04
 0.61049995E+02 -0.65471E+04
 0.61099995E+02 -0.67799E+04
 0.61149998E+02 -0.67949E+04
 0.61199997E+02 -0.68123E+04
 0.61249996E+02 -0.72689E+04
 0.61299995E+02 -0.71759E+04
 0.61349995E+02 -0.72323E+04
 0.61399998E+02 -0.75592E+04
 0.61449997E+02 -0.74837E+04
 0.61499996E+02 -0.73826E+04
 0.61549995E+02 -0.72820E+04
 0.61599995E+02 -0.68507E+04
 0.61649998E+02 -0.65576E+04
 0.61699997E+02 -0.69066E+04
 0.61749996E+02 -0.69587E+04
 0.61799995E+02 -0.67191E+04
 0.61849995E+02 -0.62339E+04
 0.61899998E+02 -0.59510E+04
 0.61949997E+02 -0.58133E+04
 0.61999996E+02 -0.55648E+04
 0.62049995E+02 -0.63051E+04
 0.62099998E+02 -0.67881E+04
 0.62149994E+02 -0.66237E+04
 0.62199997E+02 -0.67369E+04
 0.62249992E+02 -0.73492E+04
 0.62299995E+02 -0.83058E+04
 0.62349998E+02 -0.83488E+04
 0.62399994E+02 -0.76662E+04
 0.62449997E+02 -0.75189E+04
 0.62499992E+02 -0.72195E+04
 0.62549995E+02 -0.67763E+04
 0.62599998E+02 -0.64408E+04
 0.62649994E+02 -0.62195E+04
 0.62699997E+02 -0.58622E+04
 0.62749992E+02 -0.54426E+04
 0.62799995E+02 -0.54181E+04
 0.62849998E+02 -0.58457E+04
 0.62899994E+02 -0.62800E+04
 0.62949997E+02 -0.65850E+04
 0.62999992E+02 -0.72023E+04
 0.63049995E+02 -0.69887E+04
 0.63099998E+02 -0.69558E+04
 0.63149994E+02 -0.72838E+04
 0.63199997E+02 -0.71345E+04
 0.63249992E+02 -0.66597E+04
 0.63299995E+02 -0.65398E+04
 0.63349998E+02 -0.69938E+04
 0.63399994E+02 -0.76281E+04
 0.63449997E+02 -0.75961E+04
 0.63499992E+02 -0.78331E+04
 0.63549995E+02 -0.80484E+04
 0.63599998E+02 -0.76843E+04
 0.63649994E+02 -0.78819E+04
 0.63699997E+02 -0.78033E+04
 0.63749992E+02 -0.75711E+04
 0.63799995E+02 -0.76281E+04
 0.63849998E+02 -0.71725E+04
 0.63899994E+02 -0.64802E+04
 0.63949997E+02 -0.66707E+04
 0.63999992E+02 -0.66658E+04
 0.64049995E+02 -0.63900E+04
 0.64099998E+02 -0.64209E+04
 0.64149994E+02 -0.66732E+04
 0.64199997E+02 -0.71007E+04
 0.64249992E+02 -0.73289E+04
 0.64299995E+02 -0.70027E+04
 0.64349998E+02 -0.72239E+04
 0.64399994E+02 -0.77751E+04
 0.64449997E+02 -0.76020E+04
 0.64499992E+02 -0.77457E+04
 0.64549995E+02 -0.78118E+04
 0.64599998E+02 -0.75890E+04
 0.64649994E+02 -0.71593E+04
 0.64699997E+02 -0.69520E+04
 0.64749992E+02 -0.66026E+04
 0.64799995E+02 -0.59257E+04
 0.64849998E+02 -0.61196E+04
 0.64899994E+02 -0.62704E+04
 0.64949997E+02 -0.64848E+04
 0.64999992E+02 -0.65902E+04
 0.65049995E+02 -0.63489E+04
 0.65099998E+02 -0.63237E+04
 0.65149994E+02 -0.61665E+04
 0.65199997E+02 -0.62268E+04
 0.65249992E+02 -0.65275E+04
 0.65299995E+02 -0.65041E+04
 0.65349998E+02 -0.62239E+04
 0.65399994E+02 -0.59773E+04
 0.65449997E+02 -0.60939E+04
 0.65499992E+02 -0.62685E+04
 0.65549995E+02 -0.65664E+04
 0.65599998E+02 -0.74511E+04
 0.65649994E+02 -0.79957E+04
 0.65699997E+02 -0.79997E+04
 0.65749992E+02 -0.75900E+04
 0.65799995E+02 -0.70990E+04
 0.65849998E+02 -0.67844E+04
 0.65899994E+02 -0.66320E+04
 0.65949997E+02 -0.62142E+04
 0.65999992E+02 -0.59708E+04
 0.66049995E+02 -0.62953E+04
 0.66099998E+02 -0.64946E+04
 0.66149994E+02 -0.65663E+04
 0.66199997E+02 -0.65958E+04
 0.66249992E+02 -0.66614E+04
 0.66299995E+02 -0.64511E+04
 0.66349998E+02 -0.68285E+04
 0.66399994E+02 -0.73498E+04
 0.66449997E+02 -0.72589E+04
 0.66499992E+02 -0.69852E+04
 0.66549995E+02 -0.71472E+04
 0.66599998E+02 -0.72457E+04
 0.66649994E+02 -0.71741E+04
 0.66699997E+02 -0.72376E+04
 0.66749992E+02 -0.75360E+04
 0.66799995E+02 -0.77222E+04
 0.66849998E+02 -0.72992E+04
 0.66899994E+02 -0.71396E+04
 0.66949997E+02 -0.68085E+04
 0.66999992E+02 -0.65160E+04
 0.67049995E+02 -0.65703E+04
 0.67099998E+02 -0.67582E+04
 0.67149994E+02 -0.68626E+04
 0.67199997E+02 -0.68291E+04
 0.67249992E+02 -0.68086E+04
 0.67299995E+02 -0.70173E+04
 0.67349998E+02 -0.71508E+04
 0.67399994E+02 -0.72284E+04
 0.67449997E+02 -0.74826E+04
 0.67499992E+02 -0.74676E+04
 0.67549995E+02 -0.72292E+04
 0.67599998E+02 -0.72020E+04
 0.67649994E+02 -0.70574E+04
 0.67699997E+02 -0.67764E+04
 0.67749992E+02 -0.68912E+04
 0.67799995E+02 -0.69852E+04
 0.67849998E+02 -0.70680E+04
 0.67899994E+02 -0.71304E+04
 0.67949997E+02 -0.69564E+04
 0.67999992E+02 -0.65914E+04
 0.68049995E+02 -0.66457E+04
 0.68099998E+02 -0.69521E+04
 0.68149994E+02 -0.69673E+04
 0.68199997E+02 -0.69474E+04
 0.68249992E+02 -0.70981E+04
 0.68299995E+02 -0.68928E+04
 0.68349998E+02 -0.63001E+04
 0.68399994E+02 -0.61234E+04
 0.68449997E+02 -0.61275E+04
 0.68499992E+02 -0.62169E+04
 0.68549995E+02 -0.63636E+04
 0.68599998E+02 -0.63155E+04
 0.68649994E+02 -0.62980E+04
 0.68699997E+02 -0.65895E+04
 0.68749992E+02 -0.67624E+04
 0.68799995E+02 -0.67010E+04
 0.68849998E+02 -0.69534E+04
 0.68899994E+02 -0.71592E+04
 0.68949997E+02 -0.70301E+04
 0.68999992E+02 -0.68941E+04
 0.69049995E+02 -0.69054E+04
 0.69099998E+02 -0.67989E+04
 0.69149994E+02 -0.66101E+04
 0.69199997E+02 -0.66195E+04
 0.69249992E+02 -0.67717E+04
 0.69299995E+02 -0.67610E+04
 0.69349998E+02 -0.66778E+04
 0.69399994E+02 -0.65681E+04
 0.69449997E+02 -0.66490E+04
 0.69499992E+02 -0.68733E+04
 0.69549995E+02 -0.68379E+04
 0.69599998E+02 -0.67607E+04
 0.69649994E+02 -0.67010E+04
 0.69699997E+02 -0.69615E+04
 0.69749992E+02 -0.73787E+04
 0.69799995E+02 -0.75250E+04
 0.69849998E+02 -0.73390E+04
 0.69899994E+02 -0.73500E+04
 0.69949997E+02 -0.74272E+04
 0.69999992E+02 -0.73794E+04
 0.70049995E+02 -0.75627E+04
 0.70099998E+02 -0.76254E+04
 0.70149994E+02 -0.73891E+04
 0.70199997E+02 -0.71287E+04
 0.70249992E+02 -0.68595E+04
 0.70299995E+02 -0.65873E+04
 0.70349998E+02 -0.63061E+04
 0.70399994E+02 -0.63036E+04
 0.70449997E+02 -0.64799E+04
 0.70499992E+02 -0.65387E+04
 0.70549995E+02 -0.69102E+04
 0.70599998E+02 -0.75382E+04
 0.70649994E+02 -0.77865E+04
 0.70699997E+02 -0.71876E+04
 0.70749992E+02 -0.68283E+04
 0.70799995E+02 -0.69918E+04
 0.70849998E+02 -0.70462E+04
 0.70899994E+02 -0.73391E+04
 0.70949997E+02 -0.73613E+04
 0.70999992E+02 -0.70397E+04
 0.71049995E+02 -0.71491E+04
 0.71099998E+02 -0.71438E+04
 0.71149994E+02 -0.70716E+04
 0.71199997E+02 -0.70941E+04
 0.71249992E+02 -0.66208E+04
 0.71299995E+02 -0.63028E+04
 0.71349998E+02 -0.63042E+04
 0.71399994E+02 -0.62562E+04
 0.71449997E+02 -0.64194E+04
 0.71499992E+02 -0.67516E+04
 0.71549995E+02 -0.69289E+04
 0.71599998E+02 -0.70207E+04
 0.71649994E+02 -0.70506E+04
 0.71699997E+02 -0.68911E+04
 0.71749992E+02 -0.66076E+04
 0.71799995E+02 -0.65962E+04
 0.71849998E+02 -0.68566E+04
 0.71899994E+02 -0.69607E+04
 0.71949997E+02 -0.68798E+04
 0.71999992E+02 -0.66303E+04
 0.72049995E+02 -0.63545E+04
 0.72099998E+02 -0.63336E+04
 0.72149994E+02 -0.65254E+04
 0.72199997E+02 -0.64748E+04
 0.72249992E+02 -0.66393E+04
 0.72299995E+02 -0.67281E+04
 0.72349998E+02 -0.70872E+04
 0.72399994E+02 -0.74158E+04
 0.72449997E+02 -0.71303E+04
 0.72499992E+02 -0.71173E+04
 0.72549995E+02 -0.73641E+04
 0.72599998E+02 -0.75451E+04
 0.72649994E+02 -0.74008E+04
 0.72699997E+02 -0.71391E+04
 0.72749992E+02 -0.70001E+04
 0.72799995E+02 -0.70676E+04
 0.72849998E+02 -0.69974E+04
 0.72899994E+02 -0.70321E+04
 0.72949997E+02 -0.71307E+04
 0.72999992E+02 -0.70459E+04
 0.73049995E+02 -0.70773E+04
 0.73099998E+02 -0.70584E+04
 0.73149994E+02 -0.67381E+04
 0.73199997E+02 -0.65147E+04
 0.73249992E+02 -0.66437E+04
 0.73299995E+02 -0.68580E+04
 0.73349998E+02 -0.70739E+04
 0.73399994E+02 -0.70767E+04
 0.73449997E+02 -0.67370E+04
 0.73499992E+02 -0.63907E+04
 0.73549995E+02 -0.65761E+04
 0.73599998E+02 -0.69076E+04
 0.73649994E+02 -0.70515E+04
 0.73699997E+02 -0.71994E+04
 0.73749992E+02 -0.71772E+04
 0.73799995E+02 -0.72209E+04
 0.73849998E+02 -0.72294E+04
 0.73899994E+02 -0.73891E+04
 0.73949997E+02 -0.75097E+04
 0.73999992E+02 -0.71778E+04
 0.74049995E+02 -0.68481E+04
 0.74099998E+02 -0.67793E+04
 0.74149994E+02 -0.68580E+04
 0.74199997E+02 -0.69402E+04
 0.74249992E+02 -0.66754E+04
 0.74299995E+02 -0.64223E+04
 0.74349998E+02 -0.63589E+04
 0.74399994E+02 -0.63225E+04
 0.74449997E+02 -0.63973E+04
 0.74499992E+02 -0.62501E+04
 0.74549995E+02 -0.61261E+04
 0.74599998E+02 -0.61319E+04
 0.74649994E+02 -0.63181E+04
 0.74699997E+02 -0.65349E+04
 0.74749992E+02 -0.67914E+04
 0.74799995E+02 -0.69347E+04
 0.74849998E+02 -0.68274E+04
 0.74899994E+02 -0.67374E+04
 0.74949997E+02 -0.68783E+04
 0.74999992E+02 -0.70403E+04
 0.75049995E+02 -0.70052E+04
 0.75099998E+02 -0.69008E+04
 0.75149994E+02 -0.67946E+04
 0.75199997E+02 -0.68676E+04
 0.75249992E+02 -0.68867E+04
 0.75299995E+02 -0.70647E+04
 0.75349998E+02 -0.71557E+04
 0.75399994E+02 -0.70842E+04
 0.75449997E+02 -0.71458E+04
 0.75499992E+02 -0.71378E+04
 0.75549995E+02 -0.71792E+04
 0.75599998E+02 -0.72437E+04
 0.75649994E+02 -0.69749E+04
 0.75699997E+02 -0.67970E+04
 0.75749992E+02 -0.70637E+04
 0.75799995E+02 -0.72840E+04
 0.75849998E+02 -0.73194E+04
 0.75899994E+02 -0.72414E+04
 0.75949997E+02 -0.70061E+04
 0.75999992E+02 -0.68224E+04
 0.76049995E+02 -0.66695E+04
 0.76099998E+02 -0.64894E+04
 0.76149994E+02 -0.67079E+04
 0.76199997E+02 -0.68905E+04
 0.76249992E+02 -0.69522E+04
 0.76299995E+02 -0.71091E+04
 0.76349998E+02 -0.70561E+04
 0.76399994E+02 -0.69392E+04
 0.76449997E+02 -0.70096E+04
 0.76499992E+02 -0.67932E+04
 0.76549995E+02 -0.66117E+04
 0.76599998E+02 -0.69359E+04
 0.76649994E+02 -0.73374E+04
 0.76699997E+02 -0.75867E+04
 0.76749992E+02 -0.73859E+04
 0.76799995E+02 -0.71386E+04
 0.76849998E+02 -0.70757E+04
 0.76899994E+02 -0.69477E+04
 0.76949997E+02 -0.68250E+04
 0.76999992E+02 -0.68447E+04
 0.77049995E+02 -0.70526E+04
 0.77099998E+02 -0.70339E+04
 0.77149994E+02 -0.68324E+04
 0.77199997E+02 -0.67293E+04
 0.77249992E+02 -0.65665E+04
 0.77299995E+02 -0.65600E+04
 0.77349998E+02 -0.67939E+04
 0.77399994E+02 -0.69686E+04
 0.77449997E+02 -0.70675E+04
 0.77499992E+02 -0.70406E+04
 0.77549995E+02 -0.70089E+04
 0.77599998E+02 -0.68688E+04
 0.77649994E+02 -0.65940E+04
 0.77699997E+02 -0.64380E+04
 0.77749992E+02 -0.64497E+04
 0.77799995E+02 -0.64969E+04
 0.77849998E+02 -0.66324E+04
 0.77899994E+02 -0.68727E+04
 0.77949997E+02 -0.70132E+04
 0.77999992E+02 -0.69892E+04
 0.78049995E+02 -0.66529E+04
 0.78099998E+02 -0.64787E+04
 0.78149994E+02 -0.64562E+04
 0.78199997E+02 -0.66137E+04
 0.78249992E+02 -0.66682E+04
 0.78299995E+02 -0.65858E+04
 0.78349998E+02 -0.68108E+04
 0.78399994E+02 -0.69907E+04
 0.78449997E+02 -0.69416E+04
 0.78499992E+02 -0.67357E+04
 0.78549995E+02 -0.66812E+04
 0.78599998E+02 -0.69645E+04
 0.78649994E+02 -0.71429E+04
 0.78699997E+02 -0.69896E+04
 0.78749992E+02 -0.67959E+04
 0.78799995E+02 -0.66146E+04
 0.78849998E+02 -0.65092E+04
 0.78899994E+02 -0.64428E+04
 0.78949997E+02 -0.65001E+04
 0.78999992E+02 -0.67199E+04
 0.79049995E+02 -0.68281E+04
 0.79099998E+02 -0.66781E+04
 0.79149994E+02 -0.66703E+04
 0.79199997E+02 -0.68117E+04
 0.79249992E+02 -0.69135E+04
 0.79299995E+02 -0.71564E+04
 0.79349998E+02 -0.73050E+04
 0.79399994E+02 -0.71573E+04
 0.79449997E+02 -0.69349E+04
 0.79499992E+02 -0.66966E+04
 0.79549995E+02 -0.66175E+04
 0.79599998E+02 -0.67143E+04
 0.79649994E+02 -0.68474E+04
 0.79699997E+02 -0.69987E+04
 0.79749992E+02 -0.71870E+04
 0.79799995E+02 -0.74308E+04
 0.79849998E+02 -0.75496E+04
 0.79899994E+02 -0.74966E+04
 0.79949997E+02 -0.75008E+04
 0.79999992E+02 -0.74370E+04
 0.80049995E+02 -0.72541E+04
 0.80099998E+02 -0.74202E+04
 0.80149994E+02 -0.76037E+04
 0.80199997E+02 -0.75882E+04
 0.80249992E+02 -0.72666E+04
 0.80299995E+02 -0.69797E+04
 0.80349998E+02 -0.69483E+04
 0.80399994E+02 -0.68124E+04
 0.80449997E+02 -0.67179E+04
 0.80499992E+02 -0.67581E+04
 0.80549995E+02 -0.67824E+04
 0.80599998E+02 -0.67090E+04
 0.80649994E+02 -0.66197E+04
 0.80699997E+02 -0.67181E+04
 0.80749992E+02 -0.68880E+04
 0.80799995E+02 -0.68411E+04
 0.80849998E+02 -0.69627E+04
 0.80899994E+02 -0.70946E+04
 0.80949997E+02 -0.71208E+04
 0.80999992E+02 -0.69872E+04
 0.81049995E+02 -0.68391E+04
 0.81099998E+02 -0.67953E+04
 0.81149994E+02 -0.66543E+04
 0.81199997E+02 -0.65823E+04
 0.81249992E+02 -0.65338E+04
 0.81299995E+02 -0.65282E+04
 0.81349998E+02 -0.66931E+04
 0.81399994E+02 -0.68989E+04
 0.81449997E+02 -0.70603E+04
 0.81499992E+02 -0.69437E+04
 0.81549995E+02 -0.66032E+04
 0.81599998E+02 -0.64359E+04
 0.81649994E+02 -0.63865E+04
 0.81699997E+02 -0.65359E+04
 0.81749992E+02 -0.67759E+04
 0.81799995E+02 -0.68803E+04
 0.81849998E+02 -0.68982E+04
 0.81899994E+02 -0.69319E+04
 0.81949997E+02 -0.68828E+04
 0.81999992E+02 -0.67109E+04
 0.82049995E+02 -0.65203E+04
 0.82099998E+02 -0.65622E+04
 0.82149994E+02 -0.66294E+04
 0.82199997E+02 -0.65899E+04
 0.82249992E+02 -0.65697E+04
 0.82299995E+02 -0.65119E+04
 0.82349998E+02 -0.65207E+04
 0.82399994E+02 -0.67289E+04
 0.82449997E+02 -0.69113E+04
 0.82499992E+02 -0.69119E+04
 0.82549995E+02 -0.67634E+04
 0.82599998E+02 -0.66226E+04
 0.82649994E+02 -0.68967E+04
 0.82699997E+02 -0.70627E+04
 0.82749992E+02 -0.70656E+04
 0.82799995E+02 -0.73554E+04
 0.82849998E+02 -0.74935E+04
 0.82899994E+02 -0.73803E+04
 0.82949997E+02 -0.73264E+04
 0.82999992E+02 -0.73131E+04
 0.83049995E+02 -0.74621E+04
 0.83099998E+02 -0.74959E+04
 0.83149994E+02 -0.72171E+04
 0.83199997E+02 -0.70279E+04
 0.83249992E+02 -0.69002E+04
 0.83299995E+02 -0.67279E+04
 0.83349998E+02 -0.66111E+04
 0.83399994E+02 -0.67338E+04
 0.83449997E+02 -0.70436E+04
 0.83499992E+02 -0.73935E+04
 0.83549995E+02 -0.75570E+04
 0.83599998E+02 -0.73989E+04
 0.83649994E+02 -0.71563E+04
 0.83699997E+02 -0.70916E+04
 0.83749992E+02 -0.70766E+04
 0.83799995E+02 -0.71487E+04
 0.83849998E+02 -0.73428E+04
 0.83899994E+02 -0.72016E+04
 0.83949997E+02 -0.70059E+04
 0.83999992E+02 -0.67545E+04
 0.84049995E+02 -0.65741E+04
 0.84099998E+02 -0.66831E+04
 0.84149994E+02 -0.67205E+04
 0.84199997E+02 -0.67337E+04
 0.84249992E+02 -0.68773E+04
 0.84299995E+02 -0.69838E+04
 0.84349998E+02 -0.69825E+04
 0.84399994E+02 -0.70739E+04
 0.84449997E+02 -0.69997E+04
 0.84499992E+02 -0.68316E+04
 0.84549995E+02 -0.69350E+04
 0.84599998E+02 -0.70273E+04
 0.84649994E+02 -0.70333E+04
 0.84699997E+02 -0.70136E+04
 0.84749992E+02 -0.67850E+04
 0.84799995E+02 -0.67261E+04
 0.84849998E+02 -0.67921E+04
 0.84899994E+02 -0.66154E+04
 0.84949997E+02 -0.64945E+04
 0.84999992E+02 -0.64109E+04
 0.85049995E+02 -0.63377E+04
 0.85099998E+02 -0.63609E+04
 0.85149994E+02 -0.62582E+04
 0.85199997E+02 -0.63661E+04
 0.85249992E+02 -0.65647E+04
 0.85299995E+02 -0.65596E+04
 0.85349998E+02 -0.65957E+04
 0.85399994E+02 -0.66346E+04
 0.85449997E+02 -0.65835E+04
 0.85499992E+02 -0.65113E+04
 0.85549995E+02 -0.65772E+04
 0.85599998E+02 -0.65360E+04
 0.85649994E+02 -0.65188E+04
 0.85699997E+02 -0.66550E+04
 0.85749992E+02 -0.68047E+04
 0.85799995E+02 -0.70357E+04
 0.85849998E+02 -0.71528E+04
 0.85899994E+02 -0.72117E+04
 0.85949997E+02 -0.71917E+04
 0.85999992E+02 -0.72064E+04
 0.86049995E+02 -0.72786E+04
 0.86099998E+02 -0.72071E+04
 0.86149994E+02 -0.71098E+04
 0.86199997E+02 -0.71222E+04
 0.86249992E+02 -0.71986E+04
 0.86299995E+02 -0.72036E+04
 0.86349998E+02 -0.70289E+04
 0.86399994E+02 -0.68548E+04
 0.86449997E+02 -0.68170E+04
 0.86499992E+02 -0.68253E+04
 0.86549995E+02 -0.69116E+04
 0.86599998E+02 -0.70354E+04
 0.86649994E+02 -0.71643E+04
 0.86699997E+02 -0.70832E+04
 0.86749992E+02 -0.68858E+04
 0.86799995E+02 -0.67946E+04
 0.86849998E+02 -0.68118E+04
 0.86899994E+02 -0.68095E+04
 0.86949997E+02 -0.69695E+04
 0.86999992E+02 -0.72429E+04
 0.87049995E+02 -0.72578E+04
 0.87099998E+02 -0.71069E+04
 0.87149994E+02 -0.69183E+04
 0.87199997E+02 -0.68447E+04
 0.87249992E+02 -0.67339E+04
 0.87299995E+02 -0.66959E+04
 0.87349998E+02 -0.66958E+04
 0.87399994E+02 -0.66601E+04
 0.87449997E+02 -0.67254E+04
 0.87499992E+02 -0.68411E+04
 0.87549995E+02 -0.69051E+04
 0.87599991E+02 -0.67959E+04
 0.87649994E+02 -0.66685E+04
 0.87699997E+02 -0.65857E+04
 0.87749992E+02 -0.67491E+04
 0.87799995E+02 -0.69585E+04
 0.87849991E+02 -0.69695E+04
 0.87899994E+02 -0.69030E+04
 0.87949997E+02 -0.68433E+04
 0.87999992E+02 -0.69135E+04
 0.88049995E+02 -0.69780E+04
 0.88099991E+02 -0.69610E+04
 0.88149994E+02 -0.69297E+04
 0.88199997E+02 -0.70719E+04
 0.88249992E+02 -0.73244E+04
 0.88299995E+02 -0.73977E+04
 0.88349991E+02 -0.71551E+04
 0.88399994E+02 -0.68964E+04
 0.88449997E+02 -0.69680E+04
 0.88499992E+02 -0.71373E+04
 0.88549995E+02 -0.72092E+04
 0.88599991E+02 -0.70300E+04
 0.88649994E+02 -0.68063E+04
 0.88699997E+02 -0.67566E+04
 0.88749992E+02 -0.67396E+04
 0.88799995E+02 -0.66632E+04
 0.88849991E+02 -0.66575E+04
 0.88899994E+02 -0.67771E+04
 0.88949997E+02 -0.69145E+04
 0.88999992E+02 -0.69751E+04
 0.89049995E+02 -0.69023E+04
 0.89099991E+02 -0.68649E+04
 0.89149994E+02 -0.68665E+04
 0.89199997E+02 -0.69124E+04
 0.89249992E+02 -0.69626E+04
 0.89299995E+02 -0.69301E+04
 0.89349991E+02 -0.67824E+04
 0.89399994E+02 -0.65985E+04
 0.89449997E+02 -0.64808E+04
 0.89499992E+02 -0.64654E+04
 0.89549995E+02 -0.65508E+04
 0.89599991E+02 -0.66000E+04
 0.89649994E+02 -0.65946E+04
 0.89699997E+02 -0.67333E+04
 0.89749992E+02 -0.68806E+04
 0.89799995E+02 -0.68420E+04
 0.89849991E+02 -0.67544E+04
 0.89899994E+02 -0.67704E+04
 0.89949997E+02 -0.68727E+04
 0.89999992E+02 -0.69540E+04
 0.90049995E+02 -0.69112E+04
 0.90099991E+02 -0.69034E+04
 0.90149994E+02 -0.69229E+04
 0.90199997E+02 -0.68624E+04
 0.90249992E+02 -0.69351E+04
 0.90299995E+02 -0.69638E+04
 0.90349991E+02 -0.69045E+04
 0.90399994E+02 -0.68215E+04
 0.90449997E+02 -0.67831E+04
 0.90499992E+02 -0.68687E+04
 0.90549995E+02 -0.70516E+04
 0.90599991E+02 -0.72093E+04
 0.90649994E+02 -0.72829E+04
 0.90699997E+02 -0.73642E+04
 0.90749992E+02 -0.73773E+04
 0.90799995E+02 -0.72654E+04
 0.90849991E+02 -0.71313E+04
 0.90899994E+02 -0.71653E+04
 0.90949997E+02 -0.71724E+04
 0.90999992E+02 -0.71714E+04
 0.91049995E+02 -0.71579E+04
 0.91099991E+02 -0.69666E+04
 0.91149994E+02 -0.68642E+04
 0.91199997E+02 -0.69276E+04
 0.91249992E+02 -0.69914E+04
 0.91299995E+02 -0.69561E+04
 0.91349991E+02 -0.69109E+04
 0.91399994E+02 -0.67775E+04
 0.91449997E+02 -0.66842E+04
 0.91499992E+02 -0.67147E+04
 0.91549995E+02 -0.67122E+04
 0.91599991E+02 -0.67469E+04
 0.91649994E+02 -0.68621E+04
 0.91699997E+02 -0.69459E+04
 0.91749992E+02 -0.69946E+04
 0.91799995E+02 -0.69940E+04
 0.91849991E+02 -0.68692E+04
 0.91899994E+02 -0.68258E+04
 0.91949997E+02 -0.68334E+04
 0.91999992E+02 -0.67879E+04
 0.92049995E+02 -0.68230E+04
 0.92099991E+02 -0.70155E+04
 0.92149994E+02 -0.70925E+04
 0.92199997E+02 -0.70402E+04
 0.92249992E+02 -0.69631E+04
 0.92299995E+02 -0.68290E+04
 0.92349991E+02 -0.66876E+04
 0.92399994E+02 -0.66055E+04
 0.92449997E+02 -0.66683E+04
 0.92499992E+02 -0.66888E+04
 0.92549995E+02 -0.65803E+04
 0.92599991E+02 -0.65133E+04
 0.92649994E+02 -0.66668E+04
 0.92699997E+02 -0.68033E+04
 0.92749992E+02 -0.68031E+04
 0.92799995E+02 -0.67371E+04
 0.92849991E+02 -0.65972E+04
 0.92899994E+02 -0.64762E+04
 0.92949997E+02 -0.64603E+04
 0.92999992E+02 -0.66829E+04
 0.93049995E+02 -0.68770E+04
 0.93099991E+02 -0.69001E+04
 0.93149994E+02 -0.69365E+04
 0.93199997E+02 -0.68687E+04
 0.93249992E+02 -0.68194E+04
 0.93299995E+02 -0.69009E+04
 0.93349991E+02 -0.68912E+04
 0.93399994E+02 -0.69615E+04
 0.93449997E+02 -0.70840E+04
 0.93499992E+02 -0.71197E+04
 0.93549995E+02 -0.72333E+04
 0.93599991E+02 -0.72165E+04
 0.93649994E+02 -0.70563E+04
 0.93699997E+02 -0.69874E+04
 0.93749992E+02 -0.70028E+04
 0.93799995E+02 -0.70293E+04
 0.93849991E+02 -0.70321E+04
 0.93899994E+02 -0.70990E+04
 0.93949997E+02 -0.71712E+04
 0.93999992E+02 -0.71512E+04
 0.94049995E+02 -0.70855E+04
 0.94099991E+02 -0.69661E+04
 0.94149994E+02 -0.68895E+04
 0.94199997E+02 -0.69436E+04
 0.94249992E+02 -0.70466E+04
 0.94299995E+02 -0.71714E+04
 0.94349991E+02 -0.71450E+04
 0.94399994E+02 -0.70034E+04
 0.94449997E+02 -0.69675E+04
 0.94499992E+02 -0.69988E+04
 0.94549995E+02 -0.69562E+04
 0.94599991E+02 -0.68068E+04
 0.94649994E+02 -0.66426E+04
 0.94699997E+02 -0.65830E+04
 0.94749992E+02 -0.66579E+04
 0.94799995E+02 -0.67272E+04
 0.94849991E+02 -0.67117E+04
 0.94899994E+02 -0.66840E+04
 0.94949997E+02 -0.67193E+04
 0.94999992E+02 -0.67158E+04
 0.95049995E+02 -0.66908E+04
 0.95099991E+02 -0.66476E+04
 0.95149994E+02 -0.66196E+04
 0.95199997E+02 -0.65846E+04
 0.95249992E+02 -0.66023E+04
 0.95299995E+02 -0.67161E+04
 0.95349991E+02 -0.68084E+04
 0.95399994E+02 -0.68889E+04
 0.95449997E+02 -0.68455E+04
 0.95499992E+02 -0.67774E+04
 0.95549995E+02 -0.67477E+04
 0.95599991E+02 -0.67767E+04
 0.95649994E+02 -0.68033E+04
 0.95699997E+02 -0.68779E+04
 0.95749992E+02 -0.71065E+04
 0.95799995E+02 -0.72727E+04
 0.95849991E+02 -0.73421E+04
 0.95899994E+02 -0.72398E+04
 0.95949997E+02 -0.70190E+04
 0.95999992E+02 -0.69316E+04
 0.96049995E+02 -0.69367E+04
 0.96099991E+02 -0.69230E+04
 0.96149994E+02 -0.68922E+04
 0.96199997E+02 -0.69271E+04
 0.96249992E+02 -0.69924E+04
 0.96299995E+02 -0.70211E+04
 0.96349991E+02 -0.69949E+04
 0.96399994E+02 -0.68881E+04
 0.96449997E+02 -0.68129E+04
 0.96499992E+02 -0.68078E+04
 0.96549995E+02 -0.67583E+04
 0.96599991E+02 -0.66606E+04
 0.96649994E+02 -0.66498E+04
 0.96699997E+02 -0.66184E+04
 0.96749992E+02 -0.66658E+04
 0.96799995E+02 -0.68495E+04
 0.96849991E+02 -0.69694E+04
 0.96899994E+02 -0.70906E+04
 0.96949997E+02 -0.71401E+04
 0.96999992E+02 -0.71150E+04
 0.97049995E+02 -0.71950E+04
 0.97099991E+02 -0.73478E+04
 0.97149994E+02 -0.73828E+04
 0.97199997E+02 -0.73543E+04
 0.97249992E+02 -0.73432E+04
 0.97299995E+02 -0.73166E+04
 0.97349991E+02 -0.72860E+04
 0.97399994E+02 -0.71641E+04
 0.97449997E+02 -0.70648E+04
 0.97499992E+02 -0.69912E+04
 0.97549995E+02 -0.67867E+04
 0.97599991E+02 -0.66560E+04
 0.97649994E+02 -0.67257E+04
 0.97699997E+02 -0.68732E+04
 0.97749992E+02 -0.68695E+04
 0.97799995E+02 -0.67684E+04
 0.97849991E+02 -0.67802E+04
 0.97899994E+02 -0.68544E+04
 0.97949997E+02 -0.69051E+04
 0.97999992E+02 -0.68725E+04
