-0.20000000E+01 -0.94590E+02
-0.19500000E+01 -0.41796E+02
-0.19000000E+01 -0.53799E+02
-0.18500000E+01 -0.74888E+02
-0.18000000E+01  0.72731E+01
-0.17500000E+01 -0.96752E+02
-0.17000000E+01 -0.66896E+02
-0.16500001E+01  0.19653E+02
-0.16000000E+01 -0.80276E+02
-0.15500000E+01  0.20981E+02
-0.15000000E+01 -0.23157E+01
-0.14500000E+01 -0.10397E+03
-0.14000001E+01  0.63078E+02
-0.13500000E+01 -0.96730E+02
-0.13000001E+01 -0.26027E+02
-0.12500000E+01  0.32565E+02
-0.12000000E+01 -0.12033E+03
-0.11500001E+01  0.34581E+02
-0.11000000E+01 -0.12489E+03
-0.10500001E+01 -0.26555E+02
-0.10000000E+01 -0.16751E+02
-0.95000005E+00 -0.13641E+03
-0.90000010E+00 -0.24439E+02
-0.85000002E+00 -0.43733E+02
-0.80000007E+00 -0.11089E+03
-0.75000012E+00 -0.58855E+02
-0.70000005E+00 -0.65573E+02
-0.65000010E+00 -0.62947E+02
-0.60000014E+00 -0.66225E+02
-0.55000007E+00 -0.88656E+02
-0.50000012E+00 -0.81501E+02
-0.45000005E+00 -0.60873E+02
-0.40000010E+00 -0.15790E+03
-0.35000014E+00 -0.18006E+02
-0.30000007E+00 -0.14330E+03
-0.25000012E+00 -0.74607E+02
-0.20000005E+00 -0.29737E+02
-0.15000010E+00 -0.14778E+03
-0.10000014E+00  0.78074E+01
-0.50000072E-01 -0.11298E+03
-0.11920929E-06 -0.24051E+02
 0.49999952E-01 -0.70188E+02
 0.99999905E-01 -0.45053E+02
 0.14999986E+00 -0.41450E+02
 0.19999981E+00 -0.53010E+02
 0.24999976E+00 -0.44443E+02
 0.29999995E+00 -0.64870E+02
 0.34999990E+00  0.51385E+01
 0.39999986E+00 -0.10096E+03
 0.44999981E+00  0.61883E+01
 0.49999976E+00 -0.39312E+02
 0.54999995E+00 -0.59561E+02
 0.59999990E+00 -0.14834E+02
 0.64999986E+00 -0.64768E+02
 0.69999981E+00 -0.12404E+02
 0.74999976E+00 -0.12891E+03
 0.79999971E+00 -0.18172E+02
 0.84999990E+00 -0.11959E+03
 0.89999986E+00 -0.43723E+02
 0.94999981E+00 -0.11306E+03
 0.99999976E+00 -0.56127E+02
 0.10499997E+01  0.16576E+02
 0.10999999E+01 -0.19329E+03
 0.11499999E+01  0.31457E+02
 0.11999998E+01 -0.11005E+03
 0.12499998E+01 -0.11939E+03
 0.12999997E+01 -0.40970E+02
 0.13499999E+01 -0.11799E+03
 0.13999999E+01 -0.20588E+02
 0.14499998E+01 -0.99086E+02
 0.14999998E+01 -0.11216E+03
 0.15499997E+01 -0.32711E+00
 0.15999999E+01 -0.11458E+03
 0.16499999E+01 -0.66367E+01
 0.16999998E+01  0.95377E+01
 0.17499998E+01 -0.90565E+02
 0.17999997E+01  0.56516E+02
 0.18499997E+01 -0.30178E+02
 0.18999999E+01 -0.27185E+02
 0.19499998E+01  0.29159E+02
 0.19999998E+01 -0.16128E+02
 0.20499997E+01  0.31052E+02
 0.20999999E+01 -0.60599E+02
 0.21499996E+01  0.10209E+02
 0.21999998E+01 -0.37406E+02
 0.22499995E+01 -0.67276E+02
 0.22999997E+01 -0.46294E+02
 0.23499999E+01 -0.93486E+02
 0.23999996E+01 -0.64037E+02
 0.24499998E+01 -0.15681E+03
 0.24999995E+01 -0.10996E+03
 0.25499997E+01 -0.10098E+03
 0.25999999E+01 -0.14838E+03
 0.26499996E+01 -0.10265E+03
 0.26999998E+01 -0.97588E+02
 0.27499995E+01 -0.91546E+02
 0.27999997E+01 -0.94324E+02
 0.28499999E+01 -0.85607E+02
 0.28999996E+01 -0.26973E+02
 0.29499998E+01 -0.87189E+02
 0.29999995E+01 -0.46130E+02
 0.30499997E+01 -0.35660E+02
 0.30999999E+01 -0.57813E+02
 0.31499996E+01 -0.31095E+02
 0.31999998E+01 -0.85774E+02
 0.32499995E+01 -0.17889E+02
 0.32999997E+01 -0.48225E+02
 0.33499999E+01 -0.83303E+02
 0.33999996E+01  0.25189E+01
 0.34499998E+01 -0.58223E+02
 0.34999995E+01 -0.15502E+02
 0.35499997E+01 -0.35196E+02
 0.35999994E+01 -0.70286E+02
 0.36499996E+01 -0.14537E+02
 0.36999998E+01 -0.10312E+03
 0.37499995E+01 -0.19107E+02
 0.37999997E+01 -0.31564E+02
 0.38499994E+01 -0.89444E+02
 0.38999996E+01 -0.58371E+02
 0.39499998E+01 -0.69754E+02
 0.39999995E+01 -0.61070E+02
 0.40499997E+01 -0.75197E+02
 0.40999994E+01 -0.67686E+02
 0.41499996E+01 -0.43032E+02
 0.41999998E+01 -0.10634E+03
 0.42499995E+01 -0.11331E+03
 0.42999997E+01 -0.57167E+02
 0.43499994E+01 -0.97214E+02
 0.43999996E+01 -0.51962E+02
 0.44499998E+01 -0.56925E+02
 0.44999995E+01 -0.40650E+02
 0.45499997E+01 -0.45936E+02
 0.45999994E+01 -0.97406E+02
 0.46499996E+01 -0.28205E+02
 0.46999998E+01 -0.30063E+02
 0.47499995E+01 -0.63220E+02
 0.47999997E+01 -0.37152E+02
 0.48499994E+01 -0.43187E+02
 0.48999996E+01 -0.70655E+02
 0.49499998E+01 -0.10092E+03
 0.49999995E+01 -0.92044E+02
 0.50499997E+01 -0.44942E+02
 0.50999994E+01 -0.67096E+02
 0.51499996E+01 -0.59578E+02
 0.51999998E+01 -0.35622E+02
 0.52499995E+01 -0.48395E+02
 0.52999997E+01 -0.81164E+02
 0.53499994E+01 -0.90744E+02
 0.53999996E+01 -0.43469E+02
 0.54499993E+01 -0.55549E+02
 0.54999995E+01 -0.68800E+02
 0.55499997E+01 -0.40403E+02
 0.55999994E+01 -0.75915E+02
 0.56499996E+01 -0.67481E+02
 0.56999993E+01 -0.49500E+02
 0.57499995E+01 -0.51445E+02
 0.57999997E+01 -0.22840E+02
 0.58499994E+01 -0.58141E+02
 0.58999996E+01 -0.51869E+02
 0.59499993E+01 -0.47771E+02
 0.59999995E+01 -0.68648E+02
 0.60499992E+01 -0.48670E+02
 0.60999994E+01 -0.60373E+02
 0.61499996E+01 -0.47227E+02
 0.61999998E+01 -0.32357E+02
 0.62499990E+01 -0.66468E+02
 0.62999992E+01 -0.53620E+02
 0.63499994E+01 -0.35752E+02
 0.63999996E+01 -0.48219E+02
 0.64499998E+01 -0.40943E+02
 0.64999990E+01 -0.46245E+02
 0.65499992E+01 -0.47277E+02
 0.65999994E+01 -0.48499E+02
 0.66499996E+01 -0.79060E+02
 0.66999998E+01 -0.58218E+02
 0.67499990E+01 -0.65653E+02
 0.67999992E+01 -0.62072E+02
 0.68499994E+01 -0.37590E+02
 0.68999996E+01 -0.11693E+03
 0.69499998E+01 -0.62922E+02
 0.69999990E+01 -0.50327E+02
 0.70499992E+01 -0.77898E+02
 0.70999994E+01 -0.14637E+02
 0.71499996E+01 -0.90154E+02
 0.71999998E+01 -0.11461E+02
 0.72499990E+01 -0.28030E+02
 0.72999992E+01 -0.10162E+03
 0.73499994E+01  0.76962E+01
 0.73999996E+01 -0.65636E+02
 0.74499998E+01 -0.61316E+02
 0.74999990E+01 -0.77204E+02
 0.75499992E+01 -0.91655E+02
 0.75999994E+01 -0.47511E+02
 0.76499996E+01 -0.10860E+03
 0.76999998E+01 -0.65162E+02
 0.77499990E+01 -0.40795E+02
 0.77999992E+01 -0.12106E+03
 0.78499994E+01 -0.94349E+02
 0.78999996E+01 -0.91796E+02
 0.79499998E+01 -0.85151E+02
 0.79999990E+01 -0.53143E+02
 0.80499992E+01 -0.99338E+02
 0.80999994E+01 -0.91957E+01
 0.81499996E+01 -0.50493E+02
 0.81999998E+01 -0.62880E+02
 0.82499990E+01 -0.32356E+02
 0.82999992E+01 -0.62831E+02
 0.83499994E+01 -0.17726E+02
 0.83999996E+01 -0.80932E+02
 0.84499998E+01 -0.43917E+02
 0.84999990E+01 -0.47705E+02
 0.85499992E+01 -0.88065E+02
 0.85999994E+01 -0.68171E+02
 0.86499996E+01 -0.89633E+02
 0.86999998E+01 -0.83964E+02
 0.87499990E+01 -0.78373E+02
 0.87999992E+01 -0.81727E+02
 0.88499994E+01 -0.67896E+02
 0.88999996E+01 -0.50408E+02
 0.89499998E+01 -0.70376E+02
 0.89999990E+01 -0.82084E+02
 0.90499992E+01 -0.73488E+02
 0.90999994E+01 -0.40375E+02
 0.91499996E+01 -0.61948E+02
 0.91999989E+01 -0.68887E+02
 0.92499990E+01 -0.32707E+02
 0.92999992E+01 -0.37803E+02
 0.93499994E+01 -0.65997E+02
 0.93999996E+01 -0.39960E+02
 0.94499989E+01 -0.26524E+02
 0.94999990E+01 -0.34272E+02
 0.95499992E+01  0.92964E+01
 0.95999994E+01 -0.18796E+02
 0.96499996E+01 -0.28874E+02
 0.96999989E+01 -0.58928E+01
 0.97499990E+01 -0.43128E+02
 0.97999992E+01 -0.19021E+01
 0.98499994E+01 -0.27215E+02
 0.98999996E+01 -0.33985E+02
 0.99499989E+01 -0.56354E+01
 0.99999990E+01 -0.58764E+02
 0.10049999E+02 -0.54798E+02
 0.10099999E+02 -0.70253E+02
 0.10150000E+02 -0.69670E+02
 0.10199999E+02 -0.56233E+02
 0.10249999E+02 -0.84429E+02
 0.10299999E+02 -0.97371E+02
 0.10349999E+02 -0.82899E+02
 0.10400000E+02 -0.12475E+03
 0.10449999E+02 -0.10987E+03
 0.10499999E+02 -0.10276E+03
 0.10549999E+02 -0.92754E+02
 0.10599999E+02 -0.58017E+02
 0.10650000E+02 -0.65408E+02
 0.10699999E+02 -0.87568E+02
 0.10749999E+02 -0.50107E+02
 0.10799999E+02 -0.49541E+02
 0.10849999E+02 -0.86066E+02
 0.10900000E+02 -0.39451E+02
 0.10949999E+02 -0.72282E+02
 0.10999999E+02 -0.50719E+02
 0.11049999E+02 -0.42893E+02
 0.11099999E+02 -0.71903E+02
 0.11150000E+02 -0.42239E+02
 0.11199999E+02 -0.64947E+02
 0.11249999E+02 -0.64775E+02
 0.11299999E+02 -0.36739E+02
 0.11349999E+02 -0.64008E+02
 0.11400000E+02 -0.37445E+02
 0.11449999E+02 -0.56656E+02
 0.11499999E+02 -0.10473E+03
 0.11549999E+02 -0.29814E+02
 0.11599999E+02 -0.45232E+02
 0.11650000E+02 -0.81577E+02
 0.11699999E+02 -0.42029E+02
 0.11749999E+02 -0.69967E+02
 0.11799999E+02 -0.69068E+02
 0.11849999E+02 -0.25919E+02
 0.11900000E+02 -0.10448E+03
 0.11949999E+02 -0.55447E+02
 0.11999999E+02 -0.44901E+02
 0.12049999E+02 -0.10110E+03
 0.12099999E+02 -0.51925E+02
 0.12150000E+02 -0.92211E+02
 0.12199999E+02 -0.75689E+02
 0.12249999E+02 -0.64695E+02
 0.12299999E+02 -0.90458E+02
 0.12349999E+02 -0.77478E+02
 0.12400000E+02 -0.82558E+02
 0.12449999E+02 -0.47670E+02
 0.12499999E+02 -0.75912E+02
 0.12549999E+02 -0.85821E+02
 0.12599999E+02 -0.50196E+02
 0.12649999E+02 -0.93411E+02
 0.12699999E+02 -0.54879E+02
 0.12749999E+02 -0.81606E+02
 0.12799999E+02 -0.82042E+02
 0.12849999E+02 -0.63302E+02
 0.12899999E+02 -0.52645E+02
 0.12949999E+02 -0.50317E+02
 0.12999999E+02 -0.19259E+02
 0.13049999E+02 -0.91659E+01
 0.13099999E+02 -0.41992E+02
 0.13149999E+02 -0.97413E+00
 0.13199999E+02 -0.40736E+01
 0.13249999E+02 -0.13322E+02
 0.13299999E+02 -0.55201E+02
 0.13349999E+02 -0.46140E+02
 0.13399999E+02 -0.49919E+02
 0.13449999E+02 -0.60906E+02
 0.13499999E+02 -0.45528E+02
 0.13549999E+02 -0.77213E+02
 0.13599999E+02 -0.89903E+02
 0.13649999E+02 -0.62887E+02
 0.13699999E+02 -0.97602E+02
 0.13749999E+02 -0.93054E+02
 0.13799999E+02 -0.86785E+02
 0.13849999E+02 -0.75888E+02
 0.13899999E+02 -0.60576E+02
 0.13949999E+02 -0.67997E+02
 0.13999999E+02 -0.55191E+02
 0.14049999E+02 -0.63073E+02
 0.14099998E+02 -0.33447E+02
 0.14150000E+02 -0.43686E+02
 0.14199999E+02 -0.61078E+02
 0.14249998E+02 -0.55723E+02
 0.14299999E+02 -0.45751E+02
 0.14349998E+02 -0.75031E+02
 0.14400000E+02 -0.41532E+02
 0.14449999E+02 -0.52663E+02
 0.14499998E+02 -0.55847E+02
 0.14549999E+02 -0.39584E+02
 0.14599998E+02 -0.49019E+02
 0.14650000E+02 -0.51189E+02
 0.14699999E+02 -0.55989E+02
 0.14749998E+02 -0.39358E+02
 0.14799999E+02 -0.61427E+02
 0.14849998E+02 -0.16579E+02
 0.14900000E+02 -0.61433E+02
 0.14949999E+02 -0.39384E+02
 0.14999998E+02 -0.24487E+02
 0.15049999E+02 -0.55079E+02
 0.15099998E+02 -0.49727E+02
 0.15150000E+02 -0.52056E+02
 0.15199999E+02 -0.42951E+02
 0.15249998E+02 -0.54371E+02
 0.15299999E+02 -0.60435E+02
 0.15349998E+02 -0.51757E+02
 0.15400000E+02 -0.38206E+02
 0.15449999E+02 -0.82382E+02
 0.15499998E+02 -0.80477E+02
 0.15549999E+02 -0.97834E+02
 0.15599998E+02 -0.73400E+02
 0.15650000E+02 -0.52877E+02
 0.15699999E+02 -0.86091E+02
 0.15749998E+02 -0.80563E+02
 0.15799999E+02 -0.84870E+02
 0.15849998E+02 -0.76869E+02
 0.15900000E+02 -0.69192E+02
 0.15949999E+02 -0.79821E+02
 0.15999998E+02 -0.54047E+02
 0.16049999E+02 -0.36494E+02
 0.16099998E+02 -0.63417E+02
 0.16150000E+02 -0.76416E+02
 0.16199999E+02 -0.84390E+02
 0.16249998E+02 -0.54206E+02
 0.16299999E+02 -0.42050E+02
 0.16349998E+02 -0.64152E+02
 0.16400000E+02 -0.82324E+02
 0.16449999E+02 -0.10120E+03
 0.16499998E+02 -0.70855E+02
 0.16549999E+02 -0.61841E+02
 0.16599998E+02 -0.58791E+02
 0.16650000E+02 -0.69817E+02
 0.16699999E+02 -0.68829E+02
 0.16749998E+02 -0.57582E+02
 0.16799999E+02 -0.60726E+02
 0.16849998E+02 -0.40882E+02
 0.16900000E+02 -0.56431E+02
 0.16949999E+02 -0.22510E+02
 0.16999998E+02 -0.40384E+02
 0.17049999E+02 -0.37372E+02
 0.17099998E+02 -0.33720E+02
 0.17150000E+02 -0.37466E+02
 0.17199999E+02 -0.96070E+01
 0.17249998E+02 -0.57205E+02
 0.17299999E+02 -0.53022E+02
 0.17349998E+02 -0.35868E+02
 0.17400000E+02 -0.49076E+02
 0.17449999E+02 -0.49656E+02
 0.17499998E+02 -0.62763E+02
 0.17549999E+02 -0.92930E+02
 0.17599998E+02 -0.54203E+02
 0.17650000E+02 -0.63493E+02
 0.17699999E+02 -0.64137E+02
 0.17749998E+02 -0.78177E+02
 0.17799999E+02 -0.10757E+03
 0.17849998E+02 -0.77961E+02
 0.17900000E+02 -0.10452E+03
 0.17949999E+02 -0.71506E+02
 0.17999998E+02 -0.80334E+02
 0.18049999E+02 -0.88344E+02
 0.18099998E+02 -0.63645E+02
 0.18150000E+02 -0.72150E+02
 0.18199999E+02 -0.64527E+02
 0.18249998E+02 -0.61859E+02
 0.18299999E+02 -0.43178E+02
 0.18349998E+02 -0.57813E+02
 0.18400000E+02 -0.63218E+02
 0.18449999E+02 -0.59960E+02
 0.18499998E+02 -0.80162E+02
 0.18549999E+02 -0.51533E+02
 0.18599998E+02 -0.31585E+02
 0.18650000E+02 -0.59145E+02
 0.18699999E+02 -0.64623E+02
 0.18749998E+02 -0.55723E+02
 0.18799999E+02 -0.40436E+02
 0.18849998E+02 -0.47147E+02
 0.18900000E+02 -0.24270E+02
 0.18949999E+02 -0.37973E+02
 0.18999998E+02 -0.33553E+02
 0.19049999E+02 -0.14908E+02
 0.19099998E+02 -0.66779E+02
 0.19150000E+02 -0.39438E+02
 0.19199999E+02 -0.43270E+02
 0.19249998E+02 -0.23152E+02
 0.19299999E+02 -0.28110E+02
 0.19349998E+02 -0.43104E+02
 0.19400000E+02 -0.12768E+02
 0.19449999E+02 -0.56946E+02
 0.19499998E+02 -0.53677E+02
 0.19549999E+02 -0.68693E+02
 0.19599998E+02 -0.64179E+02
 0.19650000E+02 -0.41994E+02
 0.19699999E+02 -0.68804E+02
 0.19749998E+02 -0.76592E+02
 0.19799999E+02 -0.87260E+02
 0.19849998E+02 -0.10602E+03
 0.19900000E+02 -0.87351E+02
 0.19949999E+02 -0.79286E+02
 0.19999998E+02 -0.86841E+02
 0.20049999E+02 -0.98849E+02
 0.20099998E+02 -0.87720E+02
 0.20150000E+02 -0.99698E+02
 0.20199999E+02 -0.90320E+02
 0.20249998E+02 -0.76410E+02
 0.20299999E+02 -0.76924E+02
 0.20349998E+02 -0.56919E+02
 0.20399998E+02 -0.84342E+02
 0.20449999E+02 -0.34262E+02
 0.20499998E+02 -0.69623E+02
 0.20549999E+02 -0.49586E+02
 0.20599998E+02 -0.27791E+02
 0.20649998E+02 -0.51515E+02
 0.20699999E+02 -0.19166E+02
 0.20749998E+02 -0.34855E+02
 0.20799999E+02 -0.21496E+02
 0.20849998E+02 -0.41965E+02
 0.20899998E+02 -0.33127E+02
 0.20949999E+02 -0.20285E+02
 0.20999998E+02 -0.38878E+02
 0.21049999E+02 -0.26048E+02
 0.21099998E+02 -0.38443E+02
 0.21149998E+02 -0.56144E+02
 0.21199999E+02 -0.53581E+02
 0.21249998E+02 -0.57294E+02
 0.21299999E+02 -0.49534E+02
 0.21349998E+02 -0.15235E+03
 0.21399998E+02 -0.29685E+03
 0.21449999E+02 -0.21478E+03
 0.21499998E+02  0.13241E+03
 0.21549999E+02  0.28492E+03
 0.21599998E+02  0.46480E+02
 0.21649998E+02 -0.41807E+03
 0.21699999E+02 -0.42752E+03
 0.21749998E+02 -0.21288E+03
 0.21799999E+02  0.86484E+02
 0.21849998E+02  0.36312E+03
 0.21899998E+02 -0.54304E+02
 0.21949999E+02 -0.21819E+03
 0.21999998E+02 -0.53311E+03
 0.22049999E+02 -0.52048E+03
 0.22099998E+02 -0.28715E+03
 0.22149998E+02  0.31491E+03
 0.22199999E+02  0.38056E+03
 0.22249998E+02  0.61072E+03
 0.22299999E+02  0.39843E+03
 0.22349998E+02 -0.76246E+03
 0.22399998E+02 -0.16429E+03
 0.22449999E+02 -0.39436E+03
 0.22499998E+02 -0.49835E+03
 0.22549999E+02  0.32526E+03
 0.22599998E+02  0.85589E+03
 0.22649998E+02 -0.17941E+03
 0.22699999E+02 -0.86412E+03
 0.22749998E+02 -0.70774E+03
 0.22799999E+02  0.58236E+03
 0.22849998E+02  0.12691E+04
 0.22899998E+02  0.85350E+03
 0.22949999E+02  0.26452E+03
 0.22999998E+02 -0.53585E+01
 0.23049999E+02 -0.14976E+03
 0.23099998E+02 -0.90251E+03
 0.23149998E+02  0.13696E+03
 0.23199999E+02  0.19380E+03
 0.23249998E+02  0.94922E+02
 0.23299999E+02 -0.41723E+03
 0.23349998E+02 -0.82580E+02
 0.23399998E+02 -0.65659E+03
 0.23449999E+02 -0.22914E+04
 0.23499998E+02  0.13511E+03
 0.23549999E+02  0.76473E+03
 0.23599998E+02 -0.30843E+03
 0.23649998E+02  0.66915E+02
 0.23699999E+02  0.60825E+03
 0.23749998E+02 -0.17279E+03
 0.23799999E+02  0.55413E+02
 0.23849998E+02 -0.40574E+03
 0.23899998E+02 -0.66501E+03
 0.23949999E+02 -0.15636E+03
 0.23999998E+02 -0.12784E+04
 0.24049999E+02  0.35155E+03
 0.24099998E+02 -0.19400E+03
 0.24149998E+02 -0.37789E+03
 0.24199999E+02 -0.51094E+03
 0.24249998E+02  0.80163E+03
 0.24299999E+02  0.20715E+04
 0.24349998E+02  0.10427E+04
 0.24399998E+02 -0.87737E+03
 0.24449999E+02  0.75470E+03
 0.24499998E+02  0.66404E+03
 0.24549999E+02 -0.26763E+04
 0.24599998E+02 -0.16696E+04
 0.24649998E+02 -0.38570E+03
 0.24699999E+02  0.14494E+04
 0.24749998E+02 -0.20012E+03
 0.24799999E+02  0.53201E+03
 0.24849998E+02  0.16829E+04
 0.24899998E+02  0.13277E+04
 0.24949999E+02 -0.55040E+03
 0.24999998E+02  0.11383E+02
 0.25049999E+02  0.22166E+03
 0.25099998E+02 -0.11668E+04
 0.25149998E+02 -0.18873E+04
 0.25199999E+02 -0.85708E+03
 0.25249998E+02  0.23107E+04
 0.25299999E+02  0.16798E+04
 0.25349998E+02 -0.29064E+03
 0.25399998E+02  0.13015E+02
 0.25449999E+02  0.85116E+03
 0.25499998E+02 -0.44452E+04
 0.25549999E+02 -0.27664E+04
 0.25599998E+02  0.52158E+03
 0.25649998E+02  0.77219E+03
 0.25699999E+02  0.14215E+04
 0.25749998E+02 -0.14237E+04
 0.25799999E+02 -0.12117E+04
 0.25849998E+02  0.17790E+04
 0.25899998E+02  0.32284E+04
 0.25949999E+02 -0.10330E+03
 0.25999998E+02 -0.70627E+03
 0.26049999E+02 -0.63763E+03
 0.26099998E+02 -0.99762E+03
 0.26149998E+02 -0.20624E+04
 0.26199999E+02 -0.26270E+04
 0.26249998E+02  0.11990E+03
 0.26299999E+02  0.12535E+04
 0.26349998E+02  0.38060E+04
 0.26399998E+02  0.24281E+02
 0.26449999E+02 -0.99077E+03
 0.26499998E+02  0.27587E+04
 0.26549999E+02  0.22213E+04
 0.26599998E+02  0.22860E+03
 0.26649998E+02  0.16802E+04
 0.26699999E+02  0.15869E+04
 0.26749998E+02 -0.64743E+03
 0.26799999E+02 -0.14798E+04
 0.26849998E+02 -0.32636E+04
 0.26899998E+02 -0.40652E+04
 0.26949999E+02 -0.21145E+04
 0.26999998E+02 -0.52103E+03
 0.27049997E+02 -0.26574E+04
 0.27099998E+02 -0.12544E+04
 0.27149998E+02  0.57820E+03
 0.27199999E+02  0.28402E+04
 0.27249998E+02  0.31219E+04
 0.27299997E+02 -0.35856E+03
 0.27349998E+02  0.10678E+03
 0.27399998E+02  0.41188E+03
 0.27449999E+02 -0.18312E+04
 0.27499998E+02 -0.70941E+02
 0.27549997E+02  0.96751E+02
 0.27599998E+02  0.16013E+04
 0.27649998E+02  0.17296E+04
 0.27699999E+02 -0.88643E+03
 0.27749998E+02 -0.50106E+03
 0.27799997E+02  0.24394E+03
 0.27849998E+02  0.94636E+03
 0.27899998E+02 -0.48126E+03
 0.27949999E+02 -0.70754E+03
 0.27999998E+02  0.40305E+03
 0.28049997E+02 -0.35588E+03
 0.28099998E+02 -0.27005E+04
 0.28149998E+02 -0.28168E+04
 0.28199999E+02 -0.14922E+04
 0.28249998E+02  0.22166E+01
 0.28299997E+02  0.17474E+03
 0.28349998E+02 -0.18808E+03
 0.28399998E+02  0.14568E+04
 0.28449999E+02  0.15476E+04
 0.28499998E+02  0.18694E+04
 0.28549997E+02  0.26382E+04
 0.28599998E+02  0.15116E+04
 0.28649998E+02  0.12971E+04
 0.28699999E+02 -0.63615E+03
 0.28749998E+02 -0.38928E+03
 0.28799997E+02 -0.22501E+03
 0.28849998E+02 -0.36220E+04
 0.28899998E+02 -0.24020E+04
 0.28949999E+02  0.52099E+03
 0.28999998E+02  0.15675E+04
 0.29049997E+02  0.12096E+04
 0.29099998E+02  0.90226E+02
 0.29149998E+02 -0.64846E+03
 0.29199999E+02  0.60783E+03
 0.29249998E+02  0.40389E+03
 0.29299997E+02 -0.13885E+04
 0.29349998E+02 -0.16676E+04
 0.29399998E+02 -0.11985E+04
 0.29449999E+02 -0.97674E+03
 0.29499998E+02  0.97813E+02
 0.29549997E+02  0.18101E+04
 0.29599998E+02  0.43959E+03
 0.29649998E+02 -0.26914E+03
 0.29699999E+02  0.11836E+04
 0.29749998E+02  0.47844E+02
 0.29799997E+02 -0.57542E+03
 0.29849998E+02  0.65733E+03
 0.29899998E+02  0.15073E+03
 0.29949999E+02 -0.67972E+03
 0.29999998E+02 -0.12397E+04
 0.30049999E+02 -0.18061E+03
 0.30099998E+02 -0.59137E+03
 0.30149998E+02  0.61538E+03
 0.30199997E+02  0.37753E+03
 0.30249996E+02 -0.27493E+04
 0.30299999E+02 -0.13250E+04
 0.30349998E+02 -0.24276E+03
 0.30399998E+02 -0.26694E+03
 0.30449997E+02  0.34556E+03
 0.30499996E+02  0.31642E+03
 0.30549999E+02  0.40317E+03
 0.30599998E+02  0.32669E+04
 0.30649998E+02  0.17003E+04
 0.30699997E+02 -0.44299E+03
 0.30749996E+02  0.17006E+02
 0.30799999E+02 -0.12097E+04
 0.30849998E+02 -0.61368E+03
 0.30899998E+02 -0.46765E+03
 0.30949997E+02  0.56920E+03
 0.30999996E+02  0.15215E+04
 0.31049999E+02  0.20076E+04
 0.31099998E+02  0.82447E+03
 0.31149998E+02 -0.58343E+03
 0.31199997E+02 -0.24179E+04
 0.31249996E+02 -0.18366E+04
 0.31299999E+02  0.13075E+03
 0.31349998E+02  0.86186E+03
 0.31399998E+02  0.59520E+03
 0.31449997E+02 -0.17857E+04
 0.31499996E+02 -0.12529E+04
 0.31549999E+02 -0.23457E+03
 0.31599998E+02  0.57399E+03
 0.31649998E+02  0.80242E+03
 0.31699997E+02 -0.25790E+03
 0.31749996E+02 -0.89248E+03
 0.31799999E+02 -0.39953E+03
 0.31849998E+02 -0.23448E+03
 0.31899998E+02  0.64903E+03
 0.31949997E+02  0.45739E+03
 0.31999996E+02  0.12717E+04
 0.32049999E+02  0.13427E+04
 0.32099998E+02 -0.24103E+03
 0.32149998E+02 -0.72532E+02
 0.32199997E+02 -0.84056E+03
 0.32249996E+02  0.84687E+03
 0.32299999E+02  0.53973E+03
 0.32349998E+02 -0.11950E+04
 0.32399998E+02 -0.10392E+04
 0.32449997E+02 -0.11860E+04
 0.32499996E+02  0.93255E+03
 0.32549999E+02  0.16822E+04
 0.32599998E+02 -0.86123E+03
 0.32649998E+02 -0.39029E+03
 0.32699997E+02  0.20890E+04
 0.32749996E+02  0.94473E+03
 0.32799999E+02 -0.18134E+04
 0.32849998E+02 -0.27029E+04
 0.32899998E+02 -0.17141E+04
 0.32949997E+02 -0.16709E+03
 0.32999996E+02  0.57989E+03
 0.33049999E+02 -0.21175E+03
 0.33099998E+02 -0.17998E+04
 0.33149998E+02 -0.88554E+03
 0.33199997E+02  0.67432E+03
 0.33249996E+02  0.11172E+04
 0.33299999E+02  0.59990E+03
 0.33349998E+02 -0.29873E+03
 0.33399998E+02 -0.65989E+03
 0.33449997E+02 -0.31908E+03
 0.33499996E+02  0.17001E+04
 0.33549999E+02  0.12738E+04
 0.33599998E+02  0.26676E+02
 0.33649998E+02 -0.45854E+03
 0.33699997E+02 -0.85654E+03
 0.33749996E+02  0.24824E+03
 0.33799999E+02  0.55335E+03
 0.33849998E+02  0.18550E+03
 0.33899998E+02  0.76039E+03
 0.33949997E+02  0.26485E+03
 0.33999996E+02 -0.37219E+03
 0.34049999E+02  0.48009E+03
 0.34099998E+02 -0.48338E+03
 0.34149998E+02 -0.10353E+04
 0.34199997E+02 -0.15478E+04
 0.34249996E+02 -0.10403E+04
 0.34299999E+02 -0.17292E+03
 0.34349998E+02 -0.23165E+04
 0.34399998E+02 -0.10111E+04
 0.34449997E+02  0.96944E+03
 0.34499996E+02  0.14125E+03
 0.34549999E+02 -0.10084E+04
 0.34599998E+02 -0.10071E+04
 0.34649998E+02  0.67274E+02
 0.34699997E+02  0.19992E+03
 0.34749996E+02  0.59957E+03
 0.34799999E+02  0.11295E+04
 0.34849998E+02  0.26863E+04
 0.34899998E+02  0.24057E+04
 0.34949997E+02  0.17400E+03
 0.34999996E+02 -0.51257E+03
 0.35049999E+02  0.55373E+03
 0.35099998E+02  0.78338E+03
 0.35149998E+02 -0.11763E+04
 0.35199997E+02 -0.76642E+03
 0.35249996E+02  0.29429E+03
 0.35299999E+02  0.92371E+03
 0.35349998E+02 -0.29629E+03
 0.35399998E+02 -0.22867E+04
 0.35449997E+02 -0.24137E+04
 0.35499996E+02  0.19359E+01
 0.35549999E+02  0.99469E+03
 0.35599998E+02  0.15622E+03
 0.35649998E+02  0.23897E+03
 0.35699997E+02  0.26272E+03
 0.35749996E+02 -0.41614E+03
 0.35799999E+02 -0.90641E+03
 0.35849998E+02 -0.18641E+03
 0.35899998E+02  0.40617E+03
 0.35949997E+02  0.81849E+03
 0.35999996E+02 -0.62907E+03
 0.36049999E+02 -0.16606E+04
 0.36099998E+02 -0.11018E+04
 0.36149998E+02 -0.46047E+03
 0.36199997E+02  0.10734E+04
 0.36249996E+02  0.16307E+04
 0.36299999E+02  0.99343E+02
 0.36349998E+02 -0.12331E+03
 0.36399998E+02 -0.90458E+03
 0.36449997E+02 -0.21319E+03
 0.36499996E+02  0.18464E+04
 0.36549999E+02  0.13742E+04
 0.36599998E+02 -0.14268E+02
 0.36649998E+02 -0.21216E+03
 0.36699997E+02 -0.98535E+03
 0.36749996E+02 -0.22849E+04
 0.36799999E+02 -0.34362E+02
 0.36849998E+02  0.24494E+04
 0.36899998E+02  0.21552E+04
 0.36949997E+02  0.34747E+03
 0.36999996E+02 -0.33424E+03
 0.37049999E+02 -0.58234E+03
 0.37099998E+02 -0.90391E+03
 0.37149998E+02 -0.45406E+03
 0.37199997E+02  0.67660E+03
 0.37249996E+02  0.95851E+03
 0.37299999E+02 -0.48801E+02
 0.37349998E+02 -0.21911E+04
 0.37399998E+02 -0.10074E+04
 0.37449997E+02  0.21690E+04
 0.37499996E+02  0.13414E+04
 0.37549999E+02  0.50305E+03
 0.37599998E+02  0.33588E+02
 0.37649998E+02 -0.98815E+03
 0.37699997E+02 -0.12349E+04
 0.37749996E+02 -0.37236E+03
 0.37799999E+02  0.85303E+02
 0.37849998E+02 -0.13187E+04
 0.37899998E+02 -0.27906E+04
 0.37949997E+02 -0.86970E+03
 0.37999996E+02  0.47208E+03
 0.38049999E+02  0.52673E+03
 0.38099998E+02  0.88630E+03
 0.38149998E+02  0.95715E+03
 0.38199997E+02 -0.87427E+03
 0.38249996E+02 -0.17035E+04
 0.38299999E+02  0.79723E+02
 0.38349998E+02  0.19214E+03
 0.38399998E+02 -0.13361E+04
 0.38449997E+02 -0.15271E+04
 0.38499996E+02 -0.21899E+03
 0.38549999E+02 -0.10056E+04
 0.38599998E+02 -0.10765E+03
 0.38649998E+02  0.22225E+04
 0.38699997E+02  0.10259E+04
 0.38749996E+02  0.11233E+04
 0.38799999E+02  0.15793E+04
 0.38849998E+02 -0.43948E+02
 0.38899998E+02 -0.11160E+04
 0.38949997E+02 -0.21723E+03
 0.38999996E+02  0.60326E+03
 0.39049999E+02 -0.12013E+04
 0.39099998E+02  0.37988E+03
 0.39149998E+02  0.60598E+03
 0.39199997E+02  0.65712E+02
 0.39249996E+02  0.27748E+03
 0.39299999E+02 -0.85721E+03
 0.39349998E+02  0.12507E+03
 0.39399998E+02  0.18237E+04
 0.39449997E+02  0.16195E+04
 0.39499996E+02 -0.48942E+03
 0.39549999E+02 -0.12062E+03
 0.39599998E+02 -0.21005E+04
 0.39649998E+02 -0.39820E+04
 0.39699997E+02 -0.56965E+03
 0.39749996E+02  0.83471E+03
 0.39799999E+02  0.15789E+04
 0.39849998E+02  0.70763E+03
 0.39899998E+02 -0.24968E+04
 0.39949997E+02 -0.26912E+04
 0.39999996E+02 -0.17629E+03
 0.40049999E+02  0.16777E+04
 0.40099998E+02  0.17879E+04
 0.40149998E+02 -0.18847E+03
 0.40199997E+02 -0.74959E+03
 0.40249996E+02  0.21256E+03
 0.40299999E+02 -0.15197E+04
 0.40349998E+02 -0.94168E+03
 0.40399998E+02  0.28430E+04
 0.40449997E+02  0.34342E+04
 0.40499996E+02 -0.68182E+03
 0.40549999E+02 -0.25109E+04
 0.40599998E+02 -0.35493E+03
 0.40649998E+02  0.26083E+04
 0.40699997E+02  0.14903E+04
 0.40749996E+02 -0.14095E+04
 0.40799999E+02  0.65238E+03
 0.40849998E+02  0.20486E+04
 0.40899998E+02  0.10371E+04
 0.40949997E+02 -0.45872E+02
 0.40999996E+02 -0.13611E+04
 0.41049999E+02 -0.87270E+03
 0.41099998E+02  0.47099E+03
 0.41149998E+02  0.18973E+04
 0.41199997E+02  0.16779E+04
 0.41249996E+02 -0.77347E+03
 0.41299999E+02 -0.28975E+04
 0.41349998E+02 -0.27478E+04
 0.41399998E+02  0.23469E+04
 0.41449997E+02  0.45247E+04
 0.41499996E+02 -0.20479E+03
 0.41549999E+02 -0.39293E+04
 0.41599998E+02 -0.27532E+04
 0.41649998E+02  0.12348E+04
 0.41699997E+02  0.49983E+03
 0.41749996E+02 -0.18329E+04
 0.41799999E+02 -0.17652E+04
 0.41849998E+02  0.72893E+03
 0.41899998E+02  0.23654E+04
 0.41949997E+02  0.70788E+03
 0.41999996E+02 -0.72671E+03
 0.42049999E+02 -0.77792E+03
 0.42099998E+02  0.20364E+04
 0.42149998E+02  0.28242E+04
 0.42199997E+02 -0.57867E+03
 0.42249996E+02 -0.32622E+04
 0.42299999E+02 -0.15037E+04
 0.42349998E+02  0.12794E+04
 0.42399998E+02  0.17109E+04
 0.42449997E+02  0.94323E+03
 0.42499996E+02 -0.24044E+04
 0.42549999E+02 -0.35062E+04
 0.42599998E+02 -0.20223E+04
 0.42649998E+02 -0.82987E+03
 0.42699997E+02  0.18767E+03
 0.42749996E+02  0.75284E+03
 0.42799995E+02  0.34003E+04
 0.42849998E+02  0.23023E+04
 0.42899998E+02 -0.90616E+03
 0.42949997E+02 -0.15782E+04
 0.42999996E+02 -0.12503E+04
 0.43049995E+02 -0.19954E+03
 0.43099998E+02 -0.68749E+03
 0.43149998E+02 -0.11608E+04
 0.43199997E+02 -0.37142E+02
 0.43249996E+02  0.16631E+04
 0.43299995E+02  0.11293E+04
 0.43349998E+02 -0.18075E+04
 0.43399998E+02 -0.18917E+04
 0.43449997E+02  0.13380E+04
 0.43499996E+02  0.22403E+04
 0.43549995E+02  0.76286E+03
 0.43599998E+02 -0.85461E+03
 0.43649998E+02 -0.21669E+04
 0.43699997E+02 -0.17143E+04
 0.43749996E+02  0.39749E+03
 0.43799995E+02  0.65007E+03
 0.43849998E+02  0.95451E+02
 0.43899998E+02  0.11034E+04
 0.43949997E+02 -0.17543E+04
 0.43999996E+02 -0.27015E+04
 0.44049995E+02 -0.64688E+02
 0.44099998E+02  0.11170E+04
 0.44149998E+02 -0.34217E+03
 0.44199997E+02 -0.28168E+04
 0.44249996E+02 -0.30123E+04
 0.44299995E+02 -0.16571E+04
 0.44349998E+02  0.10111E+04
 0.44399998E+02  0.23975E+04
 0.44449997E+02 -0.55513E+02
 0.44499996E+02 -0.17220E+03
 0.44549995E+02  0.58895E+03
 0.44599998E+02  0.18580E+04
 0.44649998E+02  0.19860E+04
 0.44699997E+02 -0.21422E+04
 0.44749996E+02 -0.31612E+04
 0.44799995E+02 -0.17536E+04
 0.44849998E+02  0.16881E+04
 0.44899998E+02  0.41080E+04
 0.44949997E+02  0.21861E+04
 0.44999996E+02 -0.11497E+03
 0.45049995E+02  0.28692E+03
 0.45099998E+02  0.56995E+03
 0.45149998E+02  0.21362E+03
 0.45199997E+02 -0.11152E+04
 0.45249996E+02 -0.80288E+03
 0.45299995E+02  0.17973E+04
 0.45349998E+02  0.32401E+04
 0.45399998E+02  0.24792E+04
 0.45449997E+02  0.10414E+04
 0.45499996E+02 -0.28672E+03
 0.45549995E+02 -0.21297E+04
 0.45599998E+02 -0.22315E+04
 0.45649998E+02 -0.77017E+03
 0.45699997E+02  0.13901E+04
 0.45749996E+02  0.30321E+04
 0.45799995E+02  0.22595E+04
 0.45849998E+02 -0.56578E+03
 0.45899998E+02 -0.49606E+04
 0.45949997E+02 -0.57329E+04
 0.45999996E+02 -0.14534E+04
 0.46049995E+02  0.11227E+04
 0.46099998E+02  0.26466E+04
 0.46149998E+02  0.46038E+04
 0.46199997E+02  0.43447E+04
 0.46249996E+02 -0.19898E+03
 0.46299995E+02 -0.30671E+04
 0.46349998E+02 -0.20967E+04
 0.46399998E+02 -0.11001E+04
 0.46449997E+02 -0.21149E+04
 0.46499996E+02 -0.22927E+04
 0.46549995E+02 -0.58748E+03
 0.46599998E+02  0.61329E+03
 0.46649998E+02  0.10699E+04
 0.46699997E+02 -0.17536E+04
 0.46749996E+02 -0.23833E+04
 0.46799995E+02 -0.16467E+04
 0.46849998E+02 -0.32027E+04
 0.46899998E+02 -0.88153E+03
 0.46949997E+02  0.11353E+04
 0.46999996E+02  0.95167E+03
 0.47049995E+02 -0.20837E+03
 0.47099998E+02 -0.16993E+04
 0.47149998E+02 -0.12333E+04
 0.47199997E+02  0.40115E+03
 0.47249996E+02  0.16199E+04
 0.47299995E+02  0.17107E+04
 0.47349998E+02  0.25626E+04
 0.47399998E+02  0.15952E+04
 0.47449997E+02  0.87071E+03
 0.47499996E+02  0.26332E+04
 0.47549995E+02  0.16088E+04
 0.47599998E+02 -0.22981E+04
 0.47649998E+02 -0.34519E+04
 0.47699997E+02 -0.20448E+04
 0.47749996E+02  0.56232E+03
 0.47799995E+02  0.16922E+04
 0.47849998E+02  0.14783E+04
 0.47899998E+02  0.77182E+03
 0.47949997E+02  0.49920E+03
 0.47999996E+02 -0.14826E+04
 0.48049995E+02 -0.39490E+04
 0.48099998E+02 -0.19423E+04
 0.48149998E+02 -0.54965E+03
 0.48199997E+02 -0.15990E+04
 0.48249996E+02 -0.33280E+03
 0.48299995E+02  0.17806E+03
 0.48349998E+02 -0.11603E+04
 0.48399998E+02 -0.26862E+04
 0.48449997E+02 -0.24581E+04
 0.48499996E+02  0.42748E+03
 0.48549995E+02  0.15969E+04
 0.48599998E+02  0.14081E+04
 0.48649998E+02 -0.77780E+02
 0.48699997E+02 -0.41621E+03
 0.48749996E+02 -0.16217E+03
 0.48799995E+02  0.17437E+04
 0.48849998E+02  0.43222E+04
 0.48899998E+02  0.34291E+04
 0.48949997E+02  0.18803E+04
 0.48999996E+02  0.11790E+04
 0.49049995E+02  0.84943E+03
 0.49099998E+02  0.28744E+04
 0.49149998E+02  0.31090E+04
 0.49199997E+02  0.28608E+04
 0.49249996E+02  0.25252E+04
 0.49299995E+02  0.14544E+04
 0.49349998E+02 -0.44274E+03
 0.49399998E+02 -0.20892E+04
 0.49449997E+02 -0.18669E+04
 0.49499996E+02 -0.51667E+03
 0.49549995E+02  0.11776E+04
 0.49599998E+02 -0.22148E+03
 0.49649998E+02 -0.27868E+04
 0.49699997E+02 -0.45989E+04
 0.49749996E+02 -0.37735E+04
 0.49799995E+02 -0.29995E+04
 0.49849998E+02 -0.30142E+04
 0.49899998E+02 -0.24745E+04
 0.49949997E+02 -0.15794E+04
 0.49999996E+02 -0.93134E+03
 0.50049995E+02  0.27254E+02
 0.50099998E+02 -0.27388E+03
 0.50149998E+02 -0.20590E+04
 0.50199997E+02 -0.19732E+04
 0.50249996E+02 -0.31866E+02
 0.50299995E+02  0.23353E+04
 0.50349998E+02  0.24379E+04
 0.50399998E+02  0.29859E+04
 0.50449997E+02  0.30683E+04
 0.50499996E+02  0.21317E+04
 0.50549995E+02  0.14132E+04
 0.50599998E+02  0.15324E+04
 0.50649998E+02  0.32372E+04
 0.50699997E+02  0.30520E+04
 0.50749996E+02  0.37561E+04
 0.50799995E+02  0.41104E+04
 0.50849998E+02  0.13226E+04
 0.50899998E+02 -0.98914E+03
 0.50949997E+02 -0.25685E+04
 0.50999996E+02 -0.40007E+04
 0.51049995E+02 -0.34786E+04
 0.51099998E+02 -0.31545E+04
 0.51149998E+02 -0.26975E+04
 0.51199997E+02 -0.31577E+04
 0.51249996E+02 -0.33542E+04
 0.51299995E+02 -0.64503E+03
 0.51349998E+02  0.78897E+03
 0.51399998E+02  0.80418E+03
 0.51449997E+02  0.12287E+04
 0.51499996E+02 -0.73078E+01
 0.51549995E+02 -0.23945E+04
 0.51599998E+02 -0.17154E+04
 0.51649998E+02  0.11298E+04
 0.51699997E+02  0.24623E+04
 0.51749996E+02  0.22182E+04
 0.51799995E+02  0.47510E+03
 0.51849998E+02 -0.88398E+03
 0.51899998E+02 -0.80785E+03
 0.51949997E+02 -0.34527E+03
 0.51999996E+02  0.83288E+03
 0.52049995E+02  0.11576E+04
 0.52099998E+02  0.10216E+04
 0.52149998E+02  0.88122E+03
 0.52199997E+02  0.96920E+03
 0.52249996E+02  0.75260E+03
 0.52299995E+02  0.21141E+03
 0.52349998E+02 -0.22524E+02
 0.52399998E+02  0.13621E+03
 0.52449997E+02  0.35949E+03
 0.52499996E+02  0.13634E+02
 0.52549995E+02  0.88897E+03
 0.52599998E+02  0.18796E+04
 0.52649998E+02  0.17550E+04
 0.52699997E+02  0.20224E+03
 0.52749996E+02 -0.18304E+04
 0.52799995E+02 -0.23141E+04
 0.52849998E+02 -0.31865E+04
 0.52899998E+02 -0.48716E+04
 0.52949997E+02 -0.28105E+04
 0.52999996E+02  0.13589E+04
 0.53049995E+02  0.40390E+04
 0.53099998E+02  0.36496E+04
 0.53149998E+02  0.60578E+03
 0.53199997E+02 -0.12063E+04
 0.53249996E+02 -0.19084E+04
 0.53299995E+02 -0.15564E+04
 0.53349998E+02 -0.85305E+03
 0.53399998E+02 -0.47830E+02
 0.53449997E+02  0.60775E+02
 0.53499996E+02 -0.17373E+04
 0.53549995E+02 -0.35517E+04
 0.53599998E+02 -0.32270E+04
 0.53649998E+02 -0.20563E+04
 0.53699997E+02 -0.17209E+04
 0.53749996E+02 -0.27719E+03
 0.53799995E+02  0.16606E+04
 0.53849998E+02  0.18574E+04
 0.53899998E+02  0.10122E+04
 0.53949997E+02  0.50120E+03
 0.53999996E+02  0.39173E+03
 0.54049995E+02  0.13211E+04
 0.54099998E+02  0.18433E+04
 0.54149998E+02  0.21309E+04
 0.54199997E+02  0.24237E+04
 0.54249996E+02  0.24781E+04
 0.54299995E+02  0.22620E+04
 0.54349998E+02  0.20896E+04
 0.54399998E+02  0.16766E+04
 0.54449997E+02  0.25327E+03
 0.54499996E+02 -0.47199E+03
 0.54549995E+02 -0.46979E+03
 0.54599998E+02  0.16371E+03
 0.54649998E+02 -0.20015E+03
 0.54699997E+02 -0.20265E+04
 0.54749996E+02 -0.39426E+04
 0.54799995E+02 -0.44745E+04
 0.54849998E+02 -0.34909E+04
 0.54899998E+02 -0.23118E+04
 0.54949997E+02 -0.10044E+04
 0.54999996E+02 -0.79648E+03
 0.55049995E+02 -0.25122E+04
 0.55099998E+02 -0.31040E+04
 0.55149998E+02 -0.17651E+04
 0.55199997E+02 -0.31093E+03
 0.55249996E+02 -0.12464E+03
 0.55299995E+02  0.62784E+03
 0.55349998E+02  0.28355E+04
 0.55399998E+02  0.36094E+04
 0.55449997E+02  0.32483E+04
 0.55499996E+02  0.22420E+04
 0.55549995E+02  0.75891E+03
 0.55599998E+02  0.36442E+03
 0.55649998E+02  0.71152E+03
 0.55699997E+02  0.91074E+03
 0.55749996E+02  0.12300E+04
 0.55799995E+02  0.13164E+04
 0.55849995E+02  0.67469E+03
 0.55899998E+02 -0.24311E+03
 0.55949997E+02  0.16559E+03
 0.55999996E+02  0.58122E+03
 0.56049995E+02 -0.11577E+03
 0.56099995E+02 -0.11405E+04
 0.56149998E+02 -0.20746E+04
 0.56199997E+02 -0.23672E+04
 0.56249996E+02 -0.17468E+04
 0.56299995E+02 -0.87914E+03
 0.56349995E+02  0.20260E+02
 0.56399998E+02 -0.64802E+02
 0.56449997E+02 -0.10411E+03
 0.56499996E+02  0.97321E+03
 0.56549995E+02  0.83063E+03
 0.56599995E+02  0.50995E+03
 0.56649998E+02  0.63417E+03
 0.56699997E+02  0.94190E+03
 0.56749996E+02  0.19488E+03
 0.56799995E+02 -0.88118E+03
 0.56849995E+02 -0.11117E+04
 0.56899998E+02 -0.61343E+03
 0.56949997E+02  0.28408E+03
 0.56999996E+02  0.93153E+03
 0.57049995E+02  0.10949E+04
 0.57099995E+02  0.72506E+03
 0.57149998E+02 -0.13790E+03
 0.57199997E+02 -0.38253E+03
 0.57249996E+02  0.28952E+03
 0.57299995E+02  0.70102E+03
 0.57349995E+02  0.82920E+03
 0.57399998E+02 -0.46531E+03
 0.57449997E+02 -0.14708E+04
 0.57499996E+02 -0.15784E+04
 0.57549995E+02 -0.13688E+04
 0.57599995E+02 -0.72833E+03
 0.57649998E+02 -0.57573E+03
 0.57699997E+02 -0.81479E+03
 0.57749996E+02 -0.78105E+03
 0.57799995E+02 -0.32264E+03
 0.57849995E+02 -0.21154E+03
 0.57899998E+02 -0.29343E+03
 0.57949997E+02  0.53676E+03
 0.57999996E+02  0.14100E+04
 0.58049995E+02  0.24659E+04
 0.58099995E+02  0.31116E+04
 0.58149998E+02  0.13359E+04
 0.58199997E+02 -0.96240E+03
 0.58249996E+02 -0.18164E+04
 0.58299995E+02 -0.17644E+04
 0.58349995E+02 -0.15446E+04
 0.58399998E+02 -0.14759E+04
 0.58449997E+02 -0.10528E+04
 0.58499996E+02 -0.34894E+03
 0.58549995E+02  0.34475E+03
 0.58599995E+02  0.59492E+03
 0.58649998E+02  0.20674E+03
 0.58699997E+02  0.49514E+03
 0.58749996E+02  0.57864E+03
 0.58799995E+02  0.36696E+03
 0.58849995E+02  0.31473E+03
 0.58899998E+02  0.74727E+03
 0.58949997E+02  0.77757E+03
 0.58999996E+02  0.19796E+03
 0.59049995E+02  0.94297E+02
 0.59099995E+02 -0.44065E+03
 0.59149998E+02 -0.10917E+04
 0.59199997E+02 -0.88850E+03
 0.59249996E+02 -0.28512E+03
 0.59299995E+02  0.46900E+03
 0.59349995E+02  0.91927E+03
 0.59399998E+02  0.25499E+03
 0.59449997E+02 -0.42352E+03
 0.59499996E+02 -0.88741E+03
 0.59549995E+02 -0.11920E+04
 0.59599995E+02 -0.80740E+03
 0.59649998E+02 -0.17852E+03
 0.59699997E+02 -0.18375E+03
 0.59749996E+02 -0.33509E+03
 0.59799995E+02 -0.61895E+03
 0.59849995E+02 -0.10233E+04
 0.59899998E+02 -0.13324E+04
 0.59949997E+02 -0.94955E+03
 0.59999996E+02  0.24975E+03
 0.60049995E+02  0.69879E+03
 0.60099995E+02  0.29434E+03
 0.60149998E+02 -0.27617E+03
 0.60199997E+02  0.39032E+03
 0.60249996E+02  0.16998E+04
 0.60299995E+02  0.25889E+04
 0.60349995E+02  0.28649E+04
 0.60399998E+02  0.22370E+04
 0.60449997E+02  0.18485E+04
 0.60499996E+02  0.90481E+03
 0.60549995E+02 -0.93115E+03
 0.60599995E+02 -0.21197E+04
 0.60649998E+02 -0.22756E+04
 0.60699997E+02 -0.17225E+04
 0.60749996E+02 -0.16608E+04
 0.60799995E+02 -0.16219E+04
 0.60849995E+02 -0.10486E+04
 0.60899998E+02 -0.83378E+03
 0.60949997E+02 -0.50212E+03
 0.60999996E+02  0.19740E+03
 0.61049995E+02  0.14216E+04
 0.61099995E+02  0.19133E+04
 0.61149998E+02  0.10583E+04
 0.61199997E+02 -0.43760E+02
 0.61249996E+02 -0.62461E+03
 0.61299995E+02 -0.85126E+03
 0.61349995E+02 -0.80980E+03
 0.61399998E+02 -0.59365E+02
 0.61449997E+02  0.54469E+03
 0.61499996E+02  0.66143E+03
 0.61549995E+02  0.23308E+03
 0.61599995E+02 -0.47084E+03
 0.61649998E+02 -0.74933E+03
 0.61699997E+02 -0.69264E+03
 0.61749996E+02 -0.70199E+03
 0.61799995E+02 -0.58217E+03
 0.61849995E+02 -0.22347E+03
 0.61899998E+02  0.77974E+03
 0.61949997E+02  0.14310E+04
 0.61999996E+02  0.13157E+04
 0.62049995E+02  0.63643E+03
 0.62099998E+02 -0.57960E+03
 0.62149994E+02 -0.11141E+04
 0.62199997E+02 -0.70157E+03
 0.62249992E+02 -0.51363E+02
 0.62299995E+02  0.57318E+02
 0.62349998E+02  0.26029E+02
 0.62399994E+02 -0.28244E+03
 0.62449997E+02 -0.11557E+04
 0.62499992E+02 -0.21654E+04
 0.62549995E+02 -0.15135E+04
 0.62599998E+02  0.87501E+02
 0.62649994E+02  0.16795E+04
 0.62699997E+02  0.31242E+04
 0.62749992E+02  0.29525E+04
 0.62799995E+02  0.23740E+04
 0.62849998E+02  0.13008E+04
 0.62899994E+02 -0.16160E+02
 0.62949997E+02 -0.84975E+03
 0.62999992E+02 -0.18453E+04
 0.63049995E+02 -0.19737E+04
 0.63099998E+02 -0.11728E+04
 0.63149994E+02 -0.83453E+03
 0.63199997E+02 -0.59761E+03
 0.63249992E+02 -0.15202E+03
 0.63299995E+02  0.24899E+03
 0.63349998E+02  0.52659E+03
 0.63399994E+02  0.26615E+02
 0.63449997E+02 -0.95716E+03
 0.63499992E+02 -0.18711E+04
 0.63549995E+02 -0.23478E+04
 0.63599998E+02 -0.25834E+04
 0.63649994E+02 -0.22952E+04
 0.63699997E+02 -0.15679E+04
 0.63749992E+02 -0.84135E+03
 0.63799995E+02  0.72447E+02
 0.63849998E+02  0.91970E+03
 0.63899994E+02  0.16372E+04
 0.63949997E+02  0.20493E+04
 0.63999992E+02  0.19996E+04
 0.64049995E+02  0.21359E+04
 0.64099998E+02  0.21017E+04
 0.64149994E+02  0.17423E+04
 0.64199997E+02  0.19739E+04
 0.64249992E+02  0.23933E+04
 0.64299995E+02  0.26899E+04
 0.64349998E+02  0.13009E+04
 0.64399994E+02 -0.10466E+04
 0.64449997E+02 -0.24133E+04
 0.64499992E+02 -0.28685E+04
 0.64549995E+02 -0.25010E+04
 0.64599998E+02 -0.15787E+04
 0.64649994E+02 -0.81700E+03
 0.64699997E+02 -0.64184E+03
 0.64749992E+02 -0.53671E+03
 0.64799995E+02 -0.49483E+03
 0.64849998E+02 -0.62360E+03
 0.64899994E+02 -0.59258E+03
 0.64949997E+02 -0.16989E+03
 0.64999992E+02  0.37896E+03
 0.65049995E+02  0.87699E+03
 0.65099998E+02  0.89097E+03
 0.65149994E+02  0.10155E+04
 0.65199997E+02  0.96334E+03
 0.65249992E+02  0.18190E+03
 0.65299995E+02 -0.80609E+03
 0.65349998E+02 -0.16688E+04
 0.65399994E+02 -0.15565E+04
 0.65449997E+02 -0.43244E+03
 0.65499992E+02  0.28612E+03
 0.65549995E+02  0.37531E+03
 0.65599998E+02  0.84380E+02
 0.65649994E+02 -0.36506E+03
 0.65699997E+02 -0.72656E+03
 0.65749992E+02 -0.90411E+03
 0.65799995E+02 -0.43165E+03
 0.65849998E+02  0.46162E+03
 0.65899994E+02  0.17093E+04
 0.65949997E+02  0.27609E+04
 0.65999992E+02  0.27130E+04
 0.66049995E+02  0.15737E+04
 0.66099998E+02  0.54564E+03
 0.66149994E+02  0.16283E+02
 0.66199997E+02 -0.57562E+03
 0.66249992E+02 -0.10420E+04
 0.66299995E+02 -0.14725E+04
 0.66349998E+02 -0.13395E+04
 0.66399994E+02 -0.27411E+03
 0.66449997E+02  0.39828E+03
 0.66499992E+02  0.13684E+04
 0.66549995E+02  0.25720E+04
 0.66599998E+02  0.26759E+04
 0.66649994E+02  0.22627E+04
 0.66699997E+02  0.13090E+04
 0.66749992E+02 -0.40916E+03
 0.66799995E+02 -0.20638E+04
 0.66849998E+02 -0.34603E+04
 0.66899994E+02 -0.46617E+04
 0.66949997E+02 -0.50573E+04
 0.66999992E+02 -0.40268E+04
 0.67049995E+02 -0.19352E+04
 0.67099998E+02 -0.30841E+03
 0.67149994E+02  0.15642E+03
 0.67199997E+02  0.23457E+03
 0.67249992E+02  0.20125E+03
 0.67299995E+02 -0.12380E+03
 0.67349998E+02 -0.50137E+03
 0.67399994E+02 -0.50213E+03
 0.67449997E+02 -0.23564E+03
 0.67499992E+02  0.16594E+03
 0.67549995E+02  0.47082E+03
 0.67599998E+02  0.69030E+03
 0.67649994E+02  0.13767E+04
 0.67699997E+02  0.19515E+04
 0.67749992E+02  0.20860E+04
 0.67799995E+02  0.21047E+04
 0.67849998E+02  0.18449E+04
 0.67899994E+02  0.15305E+04
 0.67949997E+02  0.16301E+04
 0.67999992E+02  0.15388E+04
 0.68049995E+02  0.92775E+03
 0.68099998E+02  0.51175E+03
 0.68149994E+02 -0.33519E+03
 0.68199997E+02 -0.15482E+04
 0.68249992E+02 -0.20581E+04
 0.68299995E+02 -0.18711E+04
 0.68349998E+02 -0.16734E+04
 0.68399994E+02 -0.14941E+04
 0.68449997E+02 -0.10276E+04
 0.68499992E+02 -0.92690E+03
 0.68549995E+02 -0.74441E+03
 0.68599998E+02 -0.68028E+03
 0.68649994E+02 -0.74460E+03
 0.68699997E+02 -0.48400E+03
 0.68749992E+02 -0.33899E+03
 0.68799995E+02 -0.71271E+03
 0.68849998E+02 -0.10631E+04
 0.68899994E+02 -0.49143E+03
 0.68949997E+02  0.55252E+03
 0.68999992E+02  0.13922E+04
 0.69049995E+02  0.16283E+04
 0.69099998E+02  0.11297E+04
 0.69149994E+02  0.32943E+03
 0.69199997E+02 -0.12471E+03
 0.69249992E+02 -0.33443E+03
 0.69299995E+02 -0.56040E+03
 0.69349998E+02 -0.57629E+03
 0.69399994E+02  0.16173E+03
 0.69449997E+02  0.99670E+03
 0.69499992E+02  0.15390E+04
 0.69549995E+02  0.18574E+04
 0.69599998E+02  0.16998E+04
 0.69649994E+02  0.13710E+04
 0.69699997E+02  0.90672E+03
 0.69749992E+02  0.30824E+03
 0.69799995E+02 -0.49853E+03
 0.69849998E+02 -0.12787E+04
 0.69899994E+02 -0.17331E+04
 0.69949997E+02 -0.19266E+04
 0.69999992E+02 -0.18356E+04
 0.70049995E+02 -0.11399E+04
 0.70099998E+02 -0.78645E+03
 0.70149994E+02 -0.94604E+03
 0.70199997E+02 -0.52656E+03
 0.70249992E+02  0.18864E+03
 0.70299995E+02  0.94012E+03
 0.70349998E+02  0.16519E+04
 0.70399994E+02  0.16980E+04
 0.70449997E+02  0.10665E+04
 0.70499992E+02  0.35490E+03
 0.70549995E+02 -0.14624E+03
 0.70599998E+02 -0.33100E+03
 0.70649994E+02 -0.63825E+03
 0.70699997E+02 -0.91623E+03
 0.70749992E+02 -0.89507E+03
 0.70799995E+02 -0.85560E+03
 0.70849998E+02 -0.10603E+04
 0.70899994E+02 -0.11280E+04
 0.70949997E+02 -0.83675E+03
 0.70999992E+02 -0.38151E+03
 0.71049995E+02  0.12941E+03
 0.71099998E+02  0.51196E+03
 0.71149994E+02  0.99931E+03
 0.71199997E+02  0.17256E+04
 0.71249992E+02  0.19674E+04
 0.71299995E+02  0.14876E+04
 0.71349998E+02  0.98907E+03
 0.71399994E+02  0.30675E+03
 0.71449997E+02 -0.54451E+03
 0.71499992E+02 -0.12696E+04
 0.71549995E+02 -0.13568E+04
 0.71599998E+02 -0.87940E+03
 0.71649994E+02 -0.55583E+03
 0.71699997E+02 -0.62038E+03
 0.71749992E+02 -0.59831E+03
 0.71799995E+02 -0.37617E+03
 0.71849998E+02 -0.71011E+02
 0.71899994E+02  0.24085E+03
 0.71949997E+02  0.43280E+03
 0.71999992E+02  0.72149E+03
 0.72049995E+02  0.76154E+03
 0.72099998E+02  0.93057E+02
 0.72149994E+02 -0.11560E+04
 0.72199997E+02 -0.23072E+04
 0.72249992E+02 -0.27082E+04
 0.72299995E+02 -0.21256E+04
 0.72349998E+02 -0.11804E+04
 0.72399994E+02 -0.22059E+03
 0.72449997E+02  0.86857E+03
 0.72499992E+02  0.17903E+04
 0.72549995E+02  0.21544E+04
 0.72599998E+02  0.19822E+04
 0.72649994E+02  0.14859E+04
 0.72699997E+02  0.93019E+03
 0.72749992E+02  0.27546E+03
 0.72799995E+02 -0.57617E+03
 0.72849998E+02 -0.11019E+04
 0.72899994E+02 -0.12054E+04
 0.72949997E+02 -0.95310E+03
 0.72999992E+02 -0.55638E+03
 0.73049995E+02 -0.11021E+03
 0.73099998E+02  0.24527E+03
 0.73149994E+02  0.30338E+03
 0.73199997E+02  0.15412E+03
 0.73249992E+02  0.58791E+02
 0.73299995E+02  0.32611E+03
 0.73349998E+02  0.51298E+03
 0.73399994E+02  0.73062E+03
 0.73449997E+02  0.93114E+03
 0.73499992E+02  0.80451E+03
 0.73549995E+02  0.41154E+03
 0.73599998E+02 -0.27027E+03
 0.73649994E+02 -0.82213E+03
 0.73699997E+02 -0.12368E+04
 0.73749992E+02 -0.13847E+04
 0.73799995E+02 -0.11582E+04
 0.73849998E+02 -0.80910E+03
 0.73899994E+02 -0.17077E+03
 0.73949997E+02  0.39621E+03
 0.73999992E+02  0.56458E+03
 0.74049995E+02  0.55609E+03
 0.74099998E+02  0.24112E+03
 0.74149994E+02 -0.34237E+03
 0.74199997E+02 -0.92569E+03
 0.74249992E+02 -0.90487E+03
 0.74299995E+02 -0.42156E+03
 0.74349998E+02  0.64150E+02
 0.74399994E+02  0.32640E+03
 0.74449997E+02  0.20465E+03
 0.74499992E+02  0.42594E+03
 0.74549995E+02  0.63753E+03
 0.74599998E+02  0.61934E+03
 0.74649994E+02  0.73862E+03
 0.74699997E+02  0.77050E+03
 0.74749992E+02  0.82205E+03
 0.74799995E+02  0.88624E+03
 0.74849998E+02  0.84167E+03
 0.74899994E+02  0.70973E+03
 0.74949997E+02  0.31139E+03
 0.74999992E+02 -0.17414E+03
 0.75049995E+02 -0.45223E+03
 0.75099998E+02 -0.66439E+03
 0.75149994E+02 -0.85004E+03
 0.75199997E+02 -0.10118E+04
 0.75249992E+02 -0.11123E+04
 0.75299995E+02 -0.86972E+03
 0.75349998E+02 -0.63762E+03
 0.75399994E+02 -0.40428E+03
 0.75449997E+02 -0.92377E+02
 0.75499992E+02 -0.71191E+02
 0.75549995E+02 -0.13015E+03
 0.75599998E+02 -0.38941E+03
 0.75649994E+02 -0.11119E+04
 0.75699997E+02 -0.16886E+04
 0.75749992E+02 -0.14687E+04
 0.75799995E+02 -0.74832E+03
 0.75849998E+02  0.20723E+03
 0.75899994E+02  0.10376E+04
 0.75949997E+02  0.14166E+04
 0.75999992E+02  0.13453E+04
 0.76049995E+02  0.10339E+04
 0.76099998E+02  0.59912E+03
 0.76149994E+02  0.22689E+03
 0.76199997E+02  0.24171E+03
 0.76249992E+02  0.61245E+03
 0.76299995E+02  0.10484E+04
 0.76349998E+02  0.12743E+04
 0.76399994E+02  0.11595E+04
 0.76449997E+02  0.62378E+03
 0.76499992E+02 -0.29607E+03
 0.76549995E+02 -0.11126E+04
 0.76599998E+02 -0.14115E+04
 0.76649994E+02 -0.13921E+04
 0.76699997E+02 -0.14587E+04
 0.76749992E+02 -0.15118E+04
 0.76799995E+02 -0.12253E+04
 0.76849998E+02 -0.64663E+03
 0.76899994E+02 -0.81318E+01
 0.76949997E+02  0.26264E+03
 0.76999992E+02  0.34750E+03
 0.77049995E+02  0.50889E+03
 0.77099998E+02  0.59666E+03
 0.77149994E+02  0.31055E+03
 0.77199997E+02  0.55742E+02
 0.77249992E+02  0.27588E+03
 0.77299995E+02  0.48806E+03
 0.77349998E+02  0.80118E+03
 0.77399994E+02  0.13438E+04
 0.77449997E+02  0.15562E+04
 0.77499992E+02  0.10662E+04
 0.77549995E+02  0.22044E+03
 0.77599998E+02 -0.47245E+03
 0.77649994E+02 -0.98009E+03
 0.77699997E+02 -0.14539E+04
 0.77749992E+02 -0.16897E+04
 0.77799995E+02 -0.16320E+04
 0.77849998E+02 -0.14612E+04
 0.77899994E+02 -0.11007E+04
 0.77949997E+02 -0.90535E+03
 0.77999992E+02 -0.86683E+03
 0.78049995E+02 -0.71489E+03
 0.78099998E+02 -0.60548E+03
 0.78149994E+02 -0.34032E+03
 0.78199997E+02  0.23318E+03
 0.78249992E+02  0.60949E+03
 0.78299995E+02  0.66795E+03
 0.78349998E+02  0.85945E+03
 0.78399994E+02  0.10560E+04
 0.78449997E+02  0.11200E+04
 0.78499992E+02  0.10021E+04
 0.78549995E+02  0.53116E+03
 0.78599998E+02  0.71007E+02
 0.78649994E+02 -0.14221E+03
 0.78699997E+02 -0.31997E+03
 0.78749992E+02 -0.35062E+03
 0.78799995E+02 -0.95254E+02
 0.78849998E+02  0.44724E+03
 0.78899994E+02  0.85628E+03
 0.78949997E+02  0.89225E+03
 0.78999992E+02  0.71321E+03
 0.79049995E+02  0.31787E+03
 0.79099998E+02 -0.75673E+02
 0.79149994E+02 -0.42907E+03
 0.79199997E+02 -0.79047E+03
 0.79249992E+02 -0.11040E+04
 0.79299995E+02 -0.13387E+04
 0.79349998E+02 -0.12577E+04
 0.79399994E+02 -0.88923E+03
 0.79449997E+02 -0.61082E+03
 0.79499992E+02 -0.25511E+03
 0.79549995E+02 -0.43018E+02
 0.79599998E+02 -0.13035E+03
 0.79649994E+02 -0.19605E+03
 0.79699997E+02 -0.43375E+03
 0.79749992E+02 -0.67265E+03
 0.79799995E+02 -0.70062E+03
 0.79849998E+02 -0.66759E+03
 0.79899994E+02 -0.47337E+03
 0.79949997E+02 -0.14394E+03
 0.79999992E+02  0.15902E+03
 0.80049995E+02  0.48874E+03
 0.80099998E+02  0.85760E+03
 0.80149994E+02  0.11064E+04
 0.80199997E+02  0.12798E+04
 0.80249992E+02  0.12105E+04
 0.80299995E+02  0.83892E+03
 0.80349998E+02  0.44338E+03
 0.80399994E+02  0.53841E+02
 0.80449997E+02 -0.38433E+03
 0.80499992E+02 -0.43246E+03
 0.80549995E+02 -0.12680E+03
 0.80599998E+02  0.12956E+03
 0.80649994E+02  0.46799E+03
 0.80699997E+02  0.55743E+03
 0.80749992E+02  0.37560E+03
 0.80799995E+02  0.57705E+02
 0.80849998E+02 -0.36201E+03
 0.80899994E+02 -0.51168E+03
 0.80949997E+02 -0.52645E+03
 0.80999992E+02 -0.65889E+03
 0.81049995E+02 -0.98138E+03
 0.81099998E+02 -0.14348E+04
 0.81149994E+02 -0.16182E+04
 0.81199997E+02 -0.13785E+04
 0.81249992E+02 -0.10957E+04
 0.81299995E+02 -0.84105E+03
 0.81349998E+02 -0.56546E+03
 0.81399994E+02 -0.38566E+03
 0.81449997E+02 -0.29455E+03
 0.81499992E+02 -0.24634E+03
 0.81549995E+02  0.46595E+02
 0.81599998E+02  0.62612E+03
 0.81649994E+02  0.11134E+04
 0.81699997E+02  0.13998E+04
 0.81749992E+02  0.14782E+04
 0.81799995E+02  0.14846E+04
 0.81849998E+02  0.15579E+04
 0.81899994E+02  0.14414E+04
 0.81949997E+02  0.92912E+03
 0.81999992E+02  0.34754E+03
 0.82049995E+02  0.21583E+03
 0.82099998E+02  0.23476E+03
 0.82149994E+02  0.20726E+03
 0.82199997E+02  0.15918E+03
 0.82249992E+02 -0.10625E+03
 0.82299995E+02 -0.46127E+03
 0.82349998E+02 -0.75726E+03
 0.82399994E+02 -0.94199E+03
 0.82449997E+02 -0.93384E+03
 0.82499992E+02 -0.88741E+03
 0.82549995E+02 -0.72184E+03
 0.82599998E+02 -0.38994E+03
 0.82649994E+02 -0.21704E+03
 0.82699997E+02 -0.25914E+03
 0.82749992E+02 -0.28142E+03
 0.82799995E+02 -0.19095E+03
 0.82849998E+02  0.68075E+01
 0.82899994E+02  0.21539E+03
 0.82949997E+02  0.17221E+03
 0.82999992E+02  0.13776E+02
 0.83049995E+02 -0.26030E+03
 0.83099998E+02 -0.45641E+03
 0.83149994E+02 -0.48342E+03
 0.83199997E+02 -0.39802E+03
 0.83249992E+02 -0.53587E+02
 0.83299995E+02  0.34283E+03
 0.83349998E+02  0.52534E+03
 0.83399994E+02  0.66388E+03
 0.83449997E+02  0.88358E+03
 0.83499992E+02  0.77405E+03
 0.83549995E+02  0.57604E+03
 0.83599998E+02  0.44104E+03
 0.83649994E+02  0.97385E+02
 0.83699997E+02 -0.26578E+03
 0.83749992E+02 -0.48878E+03
 0.83799995E+02 -0.61073E+03
 0.83849998E+02 -0.76927E+03
 0.83899994E+02 -0.74698E+03
 0.83949997E+02 -0.52796E+03
 0.83999992E+02 -0.32675E+03
 0.84049995E+02 -0.21347E+03
 0.84099998E+02 -0.13060E+03
 0.84149994E+02  0.81616E+01
 0.84199997E+02  0.25076E+02
 0.84249992E+02 -0.12239E+03
 0.84299995E+02 -0.46469E+03
 0.84349998E+02 -0.87674E+03
 0.84399994E+02 -0.11198E+04
 0.84449997E+02 -0.10849E+04
 0.84499992E+02 -0.70543E+03
 0.84549995E+02 -0.20749E+03
 0.84599998E+02  0.41041E+01
 0.84649994E+02  0.56151E+01
 0.84699997E+02  0.13992E+03
 0.84749992E+02  0.42483E+03
 0.84799995E+02  0.49208E+03
 0.84849998E+02  0.33639E+03
 0.84899994E+02  0.22161E+03
 0.84949997E+02  0.22160E+02
 0.84999992E+02 -0.26599E+03
 0.85049995E+02 -0.44865E+03
 0.85099998E+02 -0.36509E+03
 0.85149994E+02 -0.13242E+03
 0.85199997E+02 -0.13300E+02
 0.85249992E+02  0.22724E+02
 0.85299995E+02  0.11560E+03
 0.85349998E+02  0.43891E+03
 0.85399994E+02  0.87611E+03
 0.85449997E+02  0.96163E+03
 0.85499992E+02  0.61906E+03
 0.85549995E+02  0.77371E+02
 0.85599998E+02 -0.31705E+03
 0.85649994E+02 -0.52311E+03
 0.85699997E+02 -0.66314E+03
 0.85749992E+02 -0.38252E+03
 0.85799995E+02  0.41367E+02
 0.85849998E+02  0.33960E+03
 0.85899994E+02  0.41702E+03
 0.85949997E+02  0.37222E+03
 0.85999992E+02  0.39630E+03
 0.86049995E+02  0.41966E+03
 0.86099998E+02  0.46662E+03
 0.86149994E+02  0.32041E+03
 0.86199997E+02  0.22861E+03
 0.86249992E+02  0.28730E+03
 0.86299995E+02  0.40295E+03
 0.86349998E+02  0.38461E+03
 0.86399994E+02  0.25466E+03
 0.86449997E+02  0.16036E+03
 0.86499992E+02  0.10501E+03
 0.86549995E+02 -0.33304E+02
 0.86599998E+02 -0.21708E+03
 0.86649994E+02 -0.26440E+03
 0.86699997E+02 -0.26005E+03
 0.86749992E+02 -0.29235E+03
 0.86799995E+02 -0.39078E+03
 0.86849998E+02 -0.41271E+03
 0.86899994E+02 -0.63679E+03
 0.86949997E+02 -0.84924E+03
 0.86999992E+02 -0.10408E+04
 0.87049995E+02 -0.12357E+04
 0.87099998E+02 -0.11868E+04
 0.87149994E+02 -0.10201E+04
 0.87199997E+02 -0.87872E+03
 0.87249992E+02 -0.78413E+03
 0.87299995E+02 -0.48646E+03
 0.87349998E+02 -0.23789E+03
 0.87399994E+02 -0.12041E+03
 0.87449997E+02 -0.14245E+02
 0.87499992E+02  0.21028E+02
 0.87549995E+02  0.48551E+02
 0.87599991E+02  0.16404E+03
 0.87649994E+02  0.31203E+03
 0.87699997E+02  0.42518E+03
 0.87749992E+02  0.50296E+03
 0.87799995E+02  0.59651E+03
 0.87849991E+02  0.59412E+03
 0.87899994E+02  0.36484E+03
 0.87949997E+02  0.15212E+03
 0.87999992E+02  0.14713E+03
 0.88049995E+02  0.29739E+03
 0.88099991E+02  0.31516E+03
 0.88149994E+02  0.10458E+03
 0.88199997E+02 -0.90153E+02
 0.88249992E+02 -0.20020E+03
 0.88299995E+02 -0.16530E+03
 0.88349991E+02 -0.31330E+02
 0.88399994E+02 -0.79894E+02
 0.88449997E+02 -0.32789E+03
 0.88499992E+02 -0.55295E+03
 0.88549995E+02 -0.57347E+03
 0.88599991E+02 -0.39221E+03
 0.88649994E+02 -0.70188E+02
 0.88699997E+02  0.17652E+03
 0.88749992E+02  0.43675E+03
 0.88799995E+02  0.73766E+03
 0.88849991E+02  0.75577E+03
 0.88899994E+02  0.62793E+03
 0.88949997E+02  0.49613E+03
 0.88999992E+02  0.28483E+03
 0.89049995E+02  0.15778E+03
 0.89099991E+02  0.23211E+03
 0.89149994E+02  0.30305E+03
 0.89199997E+02  0.27367E+03
 0.89249992E+02  0.29063E+03
 0.89299995E+02  0.24457E+03
 0.89349991E+02  0.88122E+01
 0.89399994E+02 -0.33351E+03
 0.89449997E+02 -0.48280E+03
 0.89499992E+02 -0.43768E+03
 0.89549995E+02 -0.52862E+03
 0.89599991E+02 -0.63831E+03
 0.89649994E+02 -0.63287E+03
 0.89699997E+02 -0.42849E+03
 0.89749992E+02 -0.35278E+03
 0.89799995E+02 -0.42052E+03
 0.89849991E+02 -0.45124E+03
 0.89899994E+02 -0.62356E+03
 0.89949997E+02 -0.76286E+03
 0.89999992E+02 -0.85043E+03
 0.90049995E+02 -0.78502E+03
 0.90099991E+02 -0.53450E+03
 0.90149994E+02 -0.27759E+03
 0.90199997E+02 -0.10272E+03
 0.90249992E+02  0.36198E+02
 0.90299995E+02  0.26781E+03
 0.90349991E+02  0.47717E+03
 0.90399994E+02  0.48719E+03
 0.90449997E+02  0.40913E+03
 0.90499992E+02  0.40058E+03
 0.90549995E+02  0.22398E+03
 0.90599991E+02  0.10242E+02
 0.90649994E+02  0.64394E+02
 0.90699997E+02  0.18962E+03
 0.90749992E+02  0.26462E+03
 0.90799995E+02  0.27840E+03
 0.90849991E+02  0.19160E+03
 0.90899994E+02  0.12470E+03
 0.90949997E+02  0.73106E+02
 0.90999992E+02  0.49665E+01
 0.91049995E+02  0.27792E+02
 0.91099991E+02  0.69158E+02
 0.91149994E+02  0.12042E+03
 0.91199997E+02  0.14892E+03
 0.91249992E+02  0.27340E+02
 0.91299995E+02 -0.90713E+02
 0.91349991E+02 -0.12048E+03
 0.91399994E+02 -0.12991E+03
 0.91449997E+02 -0.94664E+02
 0.91499992E+02 -0.10264E+03
 0.91549995E+02 -0.15945E+03
 0.91599991E+02 -0.17762E+03
 0.91649994E+02 -0.11867E+03
 0.91699997E+02 -0.39905E+02
 0.91749992E+02 -0.24292E+02
 0.91799995E+02 -0.37835E+02
 0.91849991E+02 -0.18905E+03
 0.91899994E+02 -0.27997E+03
 0.91949997E+02 -0.32420E+03
 0.91999992E+02 -0.44659E+03
 0.92049995E+02 -0.56196E+03
 0.92099991E+02 -0.61521E+03
 0.92149994E+02 -0.42897E+03
 0.92199997E+02 -0.24653E+03
 0.92249992E+02 -0.17424E+03
 0.92299995E+02 -0.15398E+03
 0.92349991E+02 -0.51561E+02
 0.92399994E+02  0.37743E+02
 0.92449997E+02  0.21036E+02
 0.92499992E+02 -0.81053E+01
 0.92549995E+02 -0.12893E+03
 0.92599991E+02 -0.28486E+03
 0.92649994E+02 -0.42012E+03
 0.92699997E+02 -0.60999E+03
 0.92749992E+02 -0.61929E+03
 0.92799995E+02 -0.31390E+03
 0.92849991E+02  0.79280E+02
 0.92899994E+02  0.40249E+03
 0.92949997E+02  0.53674E+03
 0.92999992E+02  0.53855E+03
 0.93049995E+02  0.44410E+03
 0.93099991E+02  0.37188E+03
 0.93149994E+02  0.30091E+03
 0.93199997E+02  0.20840E+03
 0.93249992E+02  0.10370E+03
 0.93299995E+02  0.32566E+02
 0.93349991E+02 -0.38433E+02
 0.93399994E+02 -0.13361E+03
 0.93449997E+02 -0.23135E+03
 0.93499992E+02 -0.37420E+03
 0.93549995E+02 -0.54236E+03
 0.93599991E+02 -0.62620E+03
 0.93649994E+02 -0.43685E+03
 0.93699997E+02 -0.10738E+03
 0.93749992E+02  0.11129E+03
 0.93799995E+02  0.88101E+02
 0.93849991E+02 -0.47154E+02
 0.93899994E+02 -0.91989E+02
 0.93949997E+02 -0.69678E+02
 0.93999992E+02 -0.85449E+02
 0.94049995E+02 -0.78943E+02
 0.94099991E+02 -0.23101E+02
 0.94149994E+02  0.17849E+03
 0.94199997E+02  0.40717E+03
 0.94249992E+02  0.33663E+03
 0.94299995E+02  0.16067E+03
 0.94349991E+02  0.11779E+03
 0.94399994E+02  0.26251E+03
 0.94449997E+02  0.50445E+03
 0.94499992E+02  0.67243E+03
 0.94549995E+02  0.72191E+03
 0.94599991E+02  0.71679E+03
 0.94649994E+02  0.57951E+03
 0.94699997E+02  0.31616E+03
 0.94749992E+02  0.24764E+02
 0.94799995E+02 -0.31701E+03
 0.94849991E+02 -0.68089E+03
 0.94899994E+02 -0.96694E+03
 0.94949997E+02 -0.11513E+04
 0.94999992E+02 -0.12376E+04
 0.95049995E+02 -0.11216E+04
 0.95099991E+02 -0.77918E+03
 0.95149994E+02 -0.28654E+03
 0.95199997E+02  0.15552E+03
 0.95249992E+02  0.43605E+03
 0.95299995E+02  0.56589E+03
 0.95349991E+02  0.57402E+03
 0.95399994E+02  0.36358E+03
 0.95449997E+02  0.32848E+02
 0.95499992E+02 -0.79421E+02
 0.95549995E+02  0.59827E+02
 0.95599991E+02  0.12086E+03
 0.95649994E+02  0.43411E+02
 0.95699997E+02 -0.59121E+02
 0.95749992E+02 -0.13098E+03
 0.95799995E+02 -0.23030E+03
 0.95849991E+02 -0.45189E+03
 0.95899994E+02 -0.56721E+03
 0.95949997E+02 -0.40983E+03
 0.95999992E+02 -0.12934E+03
 0.96049995E+02 -0.94473E+01
 0.96099991E+02 -0.78608E+02
 0.96149994E+02 -0.20421E+03
 0.96199997E+02 -0.23560E+03
 0.96249992E+02 -0.24144E+03
 0.96299995E+02 -0.27406E+03
 0.96349991E+02 -0.22376E+03
 0.96399994E+02 -0.12439E+03
 0.96449997E+02 -0.48814E+02
 0.96499992E+02  0.24524E+02
 0.96549995E+02  0.10480E+03
 0.96599991E+02  0.62112E+02
 0.96649994E+02 -0.21761E+02
 0.96699997E+02 -0.94771E+02
 0.96749992E+02 -0.18847E+03
 0.96799995E+02 -0.14797E+03
 0.96849991E+02  0.44878E+02
 0.96899994E+02  0.35325E+03
 0.96949997E+02  0.62975E+03
 0.96999992E+02  0.79321E+03
 0.97049995E+02  0.75549E+03
 0.97099991E+02  0.45356E+03
 0.97149994E+02  0.10011E+03
 0.97199997E+02 -0.12132E+03
 0.97249992E+02 -0.25171E+03
 0.97299995E+02 -0.27829E+03
 0.97349991E+02 -0.26911E+03
 0.97399994E+02 -0.29807E+03
 0.97449997E+02 -0.30541E+03
 0.97499992E+02 -0.40476E+03
 0.97549995E+02 -0.53502E+03
 0.97599991E+02 -0.62866E+03
 0.97649994E+02 -0.62196E+03
 0.97699997E+02 -0.57702E+03
 0.97749992E+02 -0.53558E+03
 0.97799995E+02 -0.43377E+03
 0.97849991E+02 -0.26234E+03
 0.97899994E+02 -0.84090E+01
 0.97949997E+02  0.25329E+03
 0.97999992E+02  0.44727E+03
