-0.19800000E+01 -0.12256E+06
-0.19300001E+01 -0.12843E+06
-0.18800000E+01 -0.13282E+06
-0.18300000E+01 -0.13548E+06
-0.17800000E+01 -0.13537E+06
-0.17300000E+01 -0.13265E+06
-0.16800001E+01 -0.12848E+06
-0.16300000E+01 -0.12353E+06
-0.15800000E+01 -0.11796E+06
-0.15300000E+01 -0.11120E+06
-0.14800000E+01 -0.10298E+06
-0.14300001E+01 -0.93574E+05
-0.13800000E+01 -0.83974E+05
-0.13299999E+01 -0.76464E+05
-0.12800000E+01 -0.72140E+05
-0.12300000E+01 -0.69874E+05
-0.11800001E+01 -0.68270E+05
-0.11300000E+01 -0.66600E+05
-0.10799999E+01 -0.64901E+05
-0.10300000E+01 -0.62723E+05
-0.98000002E+00 -0.59707E+05
-0.92999995E+00 -0.56785E+05
-0.88000000E+00 -0.54941E+05
-0.83000004E+00 -0.54037E+05
-0.77999997E+00 -0.53525E+05
-0.73000002E+00 -0.52400E+05
-0.67999995E+00 -0.49620E+05
-0.63000000E+00 -0.46784E+05
-0.58000004E+00 -0.45710E+05
-0.52999997E+00 -0.45929E+05
-0.48000002E+00 -0.46314E+05
-0.42999995E+00 -0.45966E+05
-0.38000000E+00 -0.43238E+05
-0.33000004E+00 -0.37633E+05
-0.27999997E+00 -0.31186E+05
-0.23000002E+00 -0.24926E+05
-0.17999995E+00 -0.19000E+05
-0.13000000E+00 -0.13597E+05
-0.80000043E-01 -0.84400E+04
-0.29999971E-01 -0.33060E+04
 0.19999981E-01  0.11160E+04
 0.69999933E-01  0.44950E+04
 0.12000012E+00  0.81620E+04
 0.17000008E+00  0.12948E+05
 0.22000003E+00  0.18417E+05
 0.26999998E+00  0.23346E+05
 0.31999993E+00  0.27007E+05
 0.37000012E+00  0.30684E+05
 0.42000008E+00  0.35185E+05
 0.47000003E+00  0.39734E+05
 0.51999998E+00  0.44968E+05
 0.56999993E+00  0.51985E+05
 0.62000012E+00  0.59790E+05
 0.67000008E+00  0.66504E+05
 0.72000003E+00  0.71025E+05
 0.76999998E+00  0.73620E+05
 0.81999993E+00  0.75313E+05
 0.87000012E+00  0.75687E+05
 0.92000008E+00  0.73897E+05
 0.97000003E+00  0.70868E+05
 0.10200000E+01  0.67979E+05
 0.10699999E+01  0.66354E+05
 0.11200001E+01  0.66903E+05
 0.11700001E+01  0.69951E+05
 0.12200000E+01  0.74671E+05
 0.12700000E+01  0.79784E+05
 0.13199999E+01  0.84344E+05
 0.13700001E+01  0.87773E+05
 0.14200001E+01  0.89946E+05
 0.14700000E+01  0.90134E+05
 0.15200000E+01  0.88574E+05
 0.15699999E+01  0.86241E+05
 0.16200001E+01  0.83404E+05
 0.16700001E+01  0.81014E+05
 0.17200000E+01  0.79140E+05
 0.17700000E+01  0.77189E+05
 0.18199999E+01  0.75226E+05
 0.18700001E+01  0.73022E+05
 0.19200001E+01  0.70707E+05
 0.19700000E+01  0.68078E+05
 0.20200000E+01  0.65232E+05
 0.20700002E+01  0.63170E+05
 0.21199999E+01  0.61719E+05
 0.21700001E+01  0.60502E+05
 0.22200003E+01  0.58184E+05
 0.22700000E+01  0.53187E+05
 0.23200002E+01  0.46592E+05
 0.23699999E+01  0.39083E+05
 0.24200001E+01  0.30667E+05
 0.24700003E+01  0.22326E+05
 0.25200000E+01  0.14692E+05
 0.25700002E+01  0.79080E+04
 0.26199999E+01  0.83000E+03
 0.26700001E+01 -0.72990E+04
 0.27200003E+01 -0.16136E+05
 0.27700000E+01 -0.26023E+05
 0.28200002E+01 -0.36333E+05
 0.28699999E+01 -0.46706E+05
 0.29200001E+01 -0.57441E+05
 0.29700003E+01 -0.67465E+05
 0.30200000E+01 -0.76020E+05
 0.30700002E+01 -0.83277E+05
 0.31199999E+01 -0.89656E+05
 0.31700001E+01 -0.95676E+05
 0.32200003E+01 -0.10150E+06
 0.32700000E+01 -0.10675E+06
 0.33200002E+01 -0.11098E+06
 0.33699999E+01 -0.11408E+06
 0.34200001E+01 -0.11542E+06
 0.34700003E+01 -0.11462E+06
 0.35200000E+01 -0.11285E+06
 0.35700002E+01 -0.11150E+06
 0.36199999E+01 -0.11075E+06
 0.36700001E+01 -0.10963E+06
 0.37200003E+01 -0.10743E+06
 0.37700000E+01 -0.10392E+06
 0.38200002E+01 -0.98578E+05
 0.38699999E+01 -0.91005E+05
 0.39200001E+01 -0.81782E+05
 0.39700003E+01 -0.71873E+05
 0.40200000E+01 -0.62254E+05
 0.40700002E+01 -0.54989E+05
 0.41199999E+01 -0.50976E+05
 0.41700001E+01 -0.48638E+05
 0.42200003E+01 -0.46164E+05
 0.42700000E+01 -0.43065E+05
 0.43200002E+01 -0.40730E+05
 0.43699999E+01 -0.39599E+05
 0.44200001E+01 -0.39362E+05
 0.44700003E+01 -0.40578E+05
 0.45200000E+01 -0.42100E+05
 0.45700002E+01 -0.42318E+05
 0.46199999E+01 -0.41440E+05
 0.46700001E+01 -0.40515E+05
 0.47200003E+01 -0.39214E+05
 0.47700000E+01 -0.36390E+05
 0.48200002E+01 -0.31989E+05
 0.48699999E+01 -0.26212E+05
 0.49200001E+01 -0.19562E+05
 0.49700003E+01 -0.13219E+05
 0.50200000E+01 -0.83250E+04
 0.50700002E+01 -0.49180E+04
 0.51199999E+01 -0.17250E+04
 0.51700001E+01  0.24670E+04
 0.52200003E+01  0.82230E+04
 0.52700000E+01  0.15025E+05
 0.53200002E+01  0.21630E+05
 0.53699999E+01  0.27943E+05
 0.54200001E+01  0.34260E+05
 0.54700003E+01  0.40616E+05
 0.55200000E+01  0.46771E+05
 0.55700002E+01  0.52066E+05
 0.56199999E+01  0.56496E+05
 0.56700001E+01  0.60602E+05
 0.57200003E+01  0.65319E+05
 0.57700000E+01  0.70732E+05
 0.58200002E+01  0.75585E+05
 0.58699999E+01  0.79239E+05
 0.59200001E+01  0.81725E+05
 0.59700003E+01  0.83592E+05
 0.60200000E+01  0.85684E+05
 0.60700002E+01  0.87915E+05
 0.61200004E+01  0.90556E+05
 0.61700006E+01  0.93468E+05
 0.62199998E+01  0.95442E+05
 0.62700000E+01  0.96886E+05
 0.63200002E+01  0.97451E+05
 0.63700004E+01  0.95753E+05
 0.64200006E+01  0.92108E+05
 0.64699998E+01  0.86679E+05
 0.65200000E+01  0.80203E+05
 0.65700002E+01  0.74361E+05
 0.66200004E+01  0.68919E+05
 0.66700006E+01  0.62914E+05
 0.67199998E+01  0.56891E+05
 0.67700000E+01  0.51687E+05
 0.68200002E+01  0.47908E+05
 0.68700004E+01  0.45622E+05
 0.69200006E+01  0.44218E+05
 0.69699998E+01  0.43401E+05
 0.70200000E+01  0.42931E+05
 0.70700002E+01  0.42957E+05
 0.71200004E+01  0.43347E+05
 0.71700006E+01  0.43676E+05
 0.72199998E+01  0.43511E+05
 0.72700000E+01  0.41975E+05
 0.73200002E+01  0.39204E+05
 0.73700004E+01  0.35604E+05
 0.74200006E+01  0.31354E+05
 0.74699998E+01  0.27428E+05
 0.75200000E+01  0.24539E+05
 0.75700002E+01  0.22173E+05
 0.76200004E+01  0.18930E+05
 0.76700006E+01  0.13794E+05
 0.77199998E+01  0.69350E+04
 0.77700000E+01 -0.82200E+03
 0.78200002E+01 -0.81450E+04
 0.78700004E+01 -0.14482E+05
 0.79200006E+01 -0.20476E+05
 0.79699998E+01 -0.26771E+05
 0.80200005E+01 -0.33492E+05
 0.80699997E+01 -0.39760E+05
 0.81200008E+01 -0.45343E+05
 0.81700001E+01 -0.51282E+05
 0.82199993E+01 -0.57339E+05
 0.82700005E+01 -0.62481E+05
 0.83199997E+01 -0.66787E+05
 0.83700008E+01 -0.69854E+05
 0.84200001E+01 -0.71444E+05
 0.84699993E+01 -0.72348E+05
 0.85200005E+01 -0.72524E+05
 0.85699997E+01 -0.70958E+05
 0.86200008E+01 -0.68039E+05
 0.86700001E+01 -0.66305E+05
 0.87199993E+01 -0.66021E+05
 0.87700005E+01 -0.65761E+05
 0.88199997E+01 -0.65823E+05
 0.88700008E+01 -0.66676E+05
 0.89200001E+01 -0.67885E+05
 0.89699993E+01 -0.68271E+05
 0.90200005E+01 -0.67492E+05
 0.90699997E+01 -0.66474E+05
 0.91200008E+01 -0.65773E+05
 0.91700001E+01 -0.65390E+05
 0.92199993E+01 -0.65183E+05
 0.92700005E+01 -0.64889E+05
 0.93199997E+01 -0.63490E+05
 0.93700008E+01 -0.60611E+05
 0.94200001E+01 -0.56826E+05
 0.94699993E+01 -0.51856E+05
 0.95200005E+01 -0.45684E+05
 0.95699997E+01 -0.38782E+05
 0.96200008E+01 -0.31911E+05
 0.96700001E+01 -0.26485E+05
 0.97199993E+01 -0.22662E+05
 0.97700005E+01 -0.19378E+05
 0.98199997E+01 -0.16142E+05
 0.98700008E+01 -0.12966E+05
 0.99200001E+01 -0.96490E+04
 0.99699993E+01 -0.57070E+04
 0.10020000E+02 -0.12420E+04
 0.10070000E+02  0.31380E+04
 0.10120001E+02  0.69510E+04
 0.10170000E+02  0.92920E+04
 0.10219999E+02  0.93990E+04
 0.10270000E+02  0.80220E+04
 0.10320000E+02  0.69750E+04
 0.10370001E+02  0.68020E+04
 0.10420000E+02  0.67830E+04
 0.10469999E+02  0.68330E+04
 0.10520000E+02  0.73940E+04
 0.10570000E+02  0.92820E+04
 0.10620001E+02  0.12287E+05
 0.10670000E+02  0.15325E+05
 0.10719999E+02  0.18237E+05
 0.10770000E+02  0.21060E+05
 0.10820000E+02  0.23904E+05
 0.10870001E+02  0.26396E+05
 0.10920000E+02  0.28312E+05
 0.10969999E+02  0.29430E+05
 0.11020000E+02  0.29031E+05
 0.11070000E+02  0.27843E+05
 0.11120001E+02  0.26671E+05
 0.11170000E+02  0.25530E+05
 0.11219999E+02  0.24242E+05
 0.11270000E+02  0.22504E+05
 0.11320000E+02  0.19826E+05
 0.11370001E+02  0.15715E+05
 0.11420000E+02  0.10797E+05
 0.11469999E+02  0.61860E+04
 0.11520000E+02  0.29570E+04
 0.11570000E+02  0.16410E+04
 0.11620001E+02  0.22170E+04
 0.11670000E+02  0.46370E+04
 0.11719999E+02  0.82180E+04
 0.11770000E+02  0.11720E+05
 0.11820000E+02  0.14372E+05
 0.11870001E+02  0.16431E+05
 0.11920000E+02  0.18046E+05
 0.11969999E+02  0.19439E+05
 0.12020000E+02  0.20671E+05
 0.12070000E+02  0.21308E+05
 0.12120001E+02  0.22319E+05
 0.12170000E+02  0.24117E+05
 0.12219999E+02  0.25294E+05
 0.12270000E+02  0.25689E+05
 0.12320000E+02  0.26099E+05
 0.12370001E+02  0.26328E+05
 0.12420000E+02  0.25632E+05
 0.12469999E+02  0.23568E+05
 0.12520000E+02  0.20900E+05
 0.12570000E+02  0.18112E+05
 0.12620001E+02  0.14496E+05
 0.12670000E+02  0.10761E+05
 0.12719999E+02  0.84520E+04
 0.12770000E+02  0.82200E+04
 0.12820000E+02  0.99950E+04
 0.12870001E+02  0.12837E+05
 0.12920000E+02  0.15920E+05
 0.12969999E+02  0.18831E+05
 0.13020000E+02  0.21686E+05
 0.13070000E+02  0.24704E+05
 0.13120001E+02  0.27499E+05
 0.13170000E+02  0.30377E+05
 0.13219999E+02  0.32860E+05
 0.13270000E+02  0.33742E+05
 0.13320000E+02  0.33110E+05
 0.13370001E+02  0.31235E+05
 0.13420000E+02  0.28879E+05
 0.13469999E+02  0.26823E+05
 0.13520000E+02  0.24912E+05
 0.13570000E+02  0.23005E+05
 0.13620001E+02  0.20584E+05
 0.13670000E+02  0.17083E+05
 0.13719999E+02  0.12521E+05
 0.13770000E+02  0.77430E+04
 0.13820000E+02  0.32960E+04
 0.13870001E+02 -0.18900E+04
 0.13920000E+02 -0.79010E+04
 0.13969999E+02 -0.13940E+05
 0.14020000E+02 -0.19456E+05
 0.14070002E+02 -0.23897E+05
 0.14120001E+02 -0.27548E+05
 0.14170000E+02 -0.30697E+05
 0.14220001E+02 -0.33194E+05
 0.14270000E+02 -0.34469E+05
 0.14320002E+02 -0.34738E+05
 0.14370001E+02 -0.34948E+05
 0.14420000E+02 -0.35876E+05
 0.14470001E+02 -0.38377E+05
 0.14520000E+02 -0.42654E+05
 0.14570002E+02 -0.48227E+05
 0.14620001E+02 -0.53330E+05
 0.14670000E+02 -0.56616E+05
 0.14720001E+02 -0.58903E+05
 0.14770000E+02 -0.61242E+05
 0.14820002E+02 -0.63706E+05
 0.14870001E+02 -0.65782E+05
 0.14920000E+02 -0.67519E+05
 0.14970001E+02 -0.69122E+05
 0.15020000E+02 -0.70253E+05
 0.15070002E+02 -0.70132E+05
 0.15120001E+02 -0.68759E+05
 0.15170000E+02 -0.66459E+05
 0.15220001E+02 -0.62295E+05
 0.15270000E+02 -0.56189E+05
 0.15320002E+02 -0.48728E+05
 0.15370001E+02 -0.41038E+05
 0.15420000E+02 -0.34547E+05
 0.15470001E+02 -0.28833E+05
 0.15520000E+02 -0.23735E+05
 0.15570002E+02 -0.19652E+05
 0.15620001E+02 -0.16873E+05
 0.15670000E+02 -0.15779E+05
 0.15720001E+02 -0.16321E+05
 0.15770000E+02 -0.18992E+05
 0.15820002E+02 -0.23466E+05
 0.15870001E+02 -0.28069E+05
 0.15920000E+02 -0.32004E+05
 0.15970001E+02 -0.35171E+05
 0.16020000E+02 -0.37210E+05
 0.16070002E+02 -0.37453E+05
 0.16120001E+02 -0.35091E+05
 0.16170000E+02 -0.30226E+05
 0.16220001E+02 -0.23407E+05
 0.16270000E+02 -0.15398E+05
 0.16320002E+02 -0.77090E+04
 0.16370001E+02 -0.67300E+03
 0.16420000E+02  0.66770E+04
 0.16470001E+02  0.15120E+05
 0.16520000E+02  0.24561E+05
 0.16570002E+02  0.34227E+05
 0.16620001E+02  0.43470E+05
 0.16670000E+02  0.51485E+05
 0.16720001E+02  0.57740E+05
 0.16770000E+02  0.62538E+05
 0.16820002E+02  0.66051E+05
 0.16870001E+02  0.68218E+05
 0.16920000E+02  0.69390E+05
 0.16970001E+02  0.70219E+05
 0.17020000E+02  0.71939E+05
 0.17070002E+02  0.74782E+05
 0.17120001E+02  0.77412E+05
 0.17170000E+02  0.79395E+05
 0.17220001E+02  0.80759E+05
 0.17270000E+02  0.80952E+05
 0.17320002E+02  0.80108E+05
 0.17370001E+02  0.79154E+05
 0.17420000E+02  0.79269E+05
 0.17470001E+02  0.81025E+05
 0.17520000E+02  0.83413E+05
 0.17570002E+02  0.85109E+05
 0.17620001E+02  0.85612E+05
 0.17670000E+02  0.85501E+05
 0.17720001E+02  0.85156E+05
 0.17770000E+02  0.83789E+05
 0.17820002E+02  0.80369E+05
 0.17870001E+02  0.74568E+05
 0.17920000E+02  0.67387E+05
 0.17970001E+02  0.59762E+05
 0.18020000E+02  0.52413E+05
 0.18070002E+02  0.45464E+05
 0.18120001E+02  0.38172E+05
 0.18170000E+02  0.30283E+05
 0.18220001E+02  0.22170E+05
 0.18270000E+02  0.14131E+05
 0.18320002E+02  0.59540E+04
 0.18370001E+02 -0.25690E+04
 0.18420000E+02 -0.11957E+05
 0.18470001E+02 -0.21892E+05
 0.18520000E+02 -0.31252E+05
 0.18570002E+02 -0.39208E+05
 0.18620001E+02 -0.45695E+05
 0.18670000E+02 -0.51186E+05
 0.18720001E+02 -0.54834E+05
 0.18770000E+02 -0.56168E+05
 0.18820002E+02 -0.56085E+05
 0.18870001E+02 -0.55597E+05
 0.18920000E+02 -0.55546E+05
 0.18970001E+02 -0.56190E+05
 0.19020000E+02 -0.57146E+05
 0.19070002E+02 -0.57862E+05
 0.19120001E+02 -0.58210E+05
 0.19170000E+02 -0.58406E+05
 0.19220001E+02 -0.58776E+05
 0.19270000E+02 -0.59315E+05
 0.19320002E+02 -0.60328E+05
 0.19370001E+02 -0.62045E+05
 0.19420000E+02 -0.63339E+05
 0.19470001E+02 -0.63454E+05
 0.19520000E+02 -0.62974E+05
 0.19570002E+02 -0.62713E+05
 0.19620001E+02 -0.62508E+05
 0.19670000E+02 -0.61816E+05
 0.19720001E+02 -0.61058E+05
 0.19770000E+02 -0.60561E+05
 0.19820002E+02 -0.59607E+05
 0.19870001E+02 -0.57497E+05
 0.19920000E+02 -0.54192E+05
 0.19970001E+02 -0.49905E+05
 0.20020000E+02 -0.45459E+05
 0.20070002E+02 -0.41229E+05
 0.20120001E+02 -0.36716E+05
 0.20170000E+02 -0.31950E+05
 0.20220001E+02 -0.27156E+05
 0.20270000E+02 -0.22391E+05
 0.20320002E+02 -0.17460E+05
 0.20370001E+02 -0.12010E+05
 0.20420000E+02 -0.58940E+04
 0.20470001E+02  0.48600E+03
 0.20520000E+02  0.64770E+04
 0.20570002E+02  0.12087E+05
 0.20620001E+02  0.17959E+05
 0.20670000E+02  0.24579E+05
 0.20720001E+02  0.31685E+05
 0.20770000E+02  0.38871E+05
 0.20820002E+02  0.45561E+05
 0.20870001E+02  0.51551E+05
 0.20920000E+02  0.57064E+05
 0.20970001E+02  0.61547E+05
 0.21020000E+02  0.64467E+05
 0.21070002E+02  0.65545E+05
 0.21120001E+02  0.64832E+05
 0.21170000E+02  0.62650E+05
 0.21220001E+02  0.59338E+05
 0.21270000E+02  0.55097E+05
 0.21320002E+02  0.50142E+05
 0.21370001E+02  0.45461E+05
 0.21420000E+02  0.41433E+05
 0.21470001E+02  0.38002E+05
 0.21520000E+02  0.35362E+05
 0.21570002E+02  0.33567E+05
 0.21620001E+02  0.32359E+05
 0.21670000E+02  0.31117E+05
 0.21720001E+02  0.29625E+05
 0.21770000E+02  0.27464E+05
 0.21820002E+02  0.24164E+05
 0.21870001E+02  0.19848E+05
 0.21920000E+02  0.15327E+05
 0.21970001E+02  0.11513E+05
 0.22020000E+02  0.86800E+04
 0.22070002E+02  0.62480E+04
 0.22120001E+02  0.27120E+04
 0.22170000E+02 -0.21260E+04
 0.22220001E+02 -0.71730E+04
 0.22270000E+02 -0.12042E+05
 0.22320002E+02 -0.16731E+05
 0.22370001E+02 -0.21437E+05
 0.22420000E+02 -0.26169E+05
 0.22470001E+02 -0.30392E+05
 0.22520000E+02 -0.33969E+05
 0.22570002E+02 -0.37212E+05
 0.22620001E+02 -0.40432E+05
 0.22670000E+02 -0.43747E+05
 0.22720001E+02 -0.46941E+05
 0.22770000E+02 -0.49039E+05
 0.22820002E+02 -0.49070E+05
 0.22870001E+02 -0.47544E+05
 0.22920000E+02 -0.45164E+05
 0.22970001E+02 -0.42357E+05
 0.23020000E+02 -0.39462E+05
 0.23070002E+02 -0.36606E+05
 0.23120001E+02 -0.33851E+05
 0.23170000E+02 -0.31012E+05
 0.23220001E+02 -0.28811E+05
 0.23270000E+02 -0.28035E+05
 0.23320002E+02 -0.27901E+05
 0.23370001E+02 -0.27165E+05
 0.23420000E+02 -0.25066E+05
 0.23470001E+02 -0.21696E+05
 0.23520000E+02 -0.17437E+05
 0.23570002E+02 -0.12049E+05
 0.23620001E+02 -0.65560E+04
 0.23670000E+02 -0.25000E+04
 0.23720001E+02  0.35000E+02
 0.23770000E+02  0.14620E+04
 0.23820002E+02  0.23090E+04
 0.23870001E+02  0.26020E+04
 0.23920000E+02  0.25290E+04
 0.23970001E+02  0.26450E+04
 0.24020000E+02  0.34180E+04
 0.24070002E+02  0.54200E+04
 0.24120001E+02  0.83290E+04
 0.24170000E+02  0.11329E+05
 0.24220001E+02  0.13538E+05
 0.24270000E+02  0.14314E+05
 0.24320002E+02  0.13746E+05
 0.24370001E+02  0.12384E+05
 0.24420000E+02  0.11379E+05
 0.24470001E+02  0.11242E+05
 0.24520000E+02  0.11251E+05
 0.24570002E+02  0.10574E+05
 0.24620001E+02  0.90820E+04
 0.24670000E+02  0.68470E+04
 0.24720001E+02  0.38960E+04
 0.24770000E+02  0.51800E+03
 0.24820002E+02 -0.28940E+04
 0.24870001E+02 -0.49780E+04
 0.24920000E+02 -0.46990E+04
 0.24970001E+02 -0.28770E+04
 0.25020000E+02 -0.12700E+04
 0.25070002E+02 -0.15780E+04
 0.25120001E+02 -0.46110E+04
 0.25170000E+02 -0.97010E+04
 0.25220001E+02 -0.15319E+05
 0.25270000E+02 -0.20563E+05
 0.25320002E+02 -0.24431E+05
 0.25370001E+02 -0.25820E+05
 0.25420000E+02 -0.24816E+05
 0.25470001E+02 -0.22472E+05
 0.25520000E+02 -0.19868E+05
 0.25570002E+02 -0.17276E+05
 0.25620001E+02 -0.14575E+05
 0.25670000E+02 -0.11930E+05
 0.25720001E+02 -0.94660E+04
 0.25770000E+02 -0.69150E+04
 0.25820002E+02 -0.44270E+04
 0.25870001E+02 -0.26940E+04
 0.25920000E+02 -0.16950E+04
 0.25970001E+02 -0.55200E+03
 0.26020000E+02  0.10170E+04
 0.26070002E+02  0.28920E+04
 0.26120001E+02  0.54250E+04
 0.26170000E+02  0.85580E+04
 0.26220001E+02  0.11728E+05
 0.26270000E+02  0.14487E+05
 0.26320002E+02  0.17011E+05
 0.26370001E+02  0.19376E+05
 0.26420000E+02  0.21107E+05
 0.26470001E+02  0.22381E+05
 0.26520000E+02  0.24232E+05
 0.26570002E+02  0.27266E+05
 0.26620001E+02  0.30791E+05
 0.26670000E+02  0.33999E+05
 0.26720001E+02  0.36534E+05
 0.26770000E+02  0.37857E+05
 0.26820002E+02  0.37977E+05
 0.26870001E+02  0.37667E+05
 0.26920000E+02  0.37342E+05
 0.26970001E+02  0.37319E+05
 0.27020000E+02  0.38076E+05
 0.27070002E+02  0.39197E+05
 0.27120001E+02  0.39748E+05
 0.27170000E+02  0.39158E+05
 0.27220001E+02  0.37215E+05
 0.27270000E+02  0.34218E+05
 0.27320002E+02  0.30851E+05
 0.27370001E+02  0.27569E+05
 0.27420000E+02  0.24415E+05
 0.27470001E+02  0.21295E+05
 0.27520000E+02  0.18357E+05
 0.27570002E+02  0.15916E+05
 0.27620001E+02  0.13536E+05
 0.27670000E+02  0.10460E+05
 0.27720001E+02  0.62660E+04
 0.27770000E+02  0.12240E+04
 0.27820002E+02 -0.34720E+04
 0.27870001E+02 -0.73380E+04
 0.27920000E+02 -0.10781E+05
 0.27970001E+02 -0.14134E+05
 0.28020000E+02 -0.17116E+05
 0.28070002E+02 -0.18773E+05
 0.28120001E+02 -0.19111E+05
 0.28170000E+02 -0.19248E+05
 0.28220001E+02 -0.20154E+05
 0.28270000E+02 -0.21822E+05
 0.28320002E+02 -0.23678E+05
 0.28370001E+02 -0.25683E+05
 0.28420000E+02 -0.27716E+05
 0.28470001E+02 -0.29588E+05
 0.28520000E+02 -0.31374E+05
 0.28570002E+02 -0.33093E+05
 0.28620001E+02 -0.34965E+05
 0.28670000E+02 -0.37001E+05
 0.28720001E+02 -0.38919E+05
 0.28770000E+02 -0.40989E+05
 0.28820002E+02 -0.43543E+05
 0.28870001E+02 -0.45910E+05
 0.28920000E+02 -0.47830E+05
 0.28970001E+02 -0.49812E+05
 0.29020000E+02 -0.52106E+05
 0.29070002E+02 -0.54682E+05
 0.29120001E+02 -0.56749E+05
 0.29170000E+02 -0.57791E+05
 0.29220001E+02 -0.57571E+05
 0.29270000E+02 -0.55461E+05
 0.29320002E+02 -0.51679E+05
 0.29370001E+02 -0.46867E+05
 0.29420000E+02 -0.41693E+05
 0.29470001E+02 -0.36916E+05
 0.29520000E+02 -0.32906E+05
 0.29570002E+02 -0.29753E+05
 0.29620001E+02 -0.27297E+05
 0.29670000E+02 -0.25256E+05
 0.29720001E+02 -0.23486E+05
 0.29770000E+02 -0.21711E+05
 0.29820002E+02 -0.19419E+05
 0.29870001E+02 -0.16416E+05
 0.29920000E+02 -0.12690E+05
 0.29970001E+02 -0.80660E+04
 0.30020000E+02 -0.24290E+04
 0.30070000E+02  0.41960E+04
 0.30120003E+02  0.11351E+05
 0.30170002E+02  0.18427E+05
 0.30220001E+02  0.25244E+05
 0.30270000E+02  0.31770E+05
 0.30320000E+02  0.37473E+05
 0.30370003E+02  0.41278E+05
 0.30420002E+02  0.42674E+05
 0.30470001E+02  0.41784E+05
 0.30520000E+02  0.38989E+05
 0.30570000E+02  0.35498E+05
 0.30620003E+02  0.32310E+05
 0.30670002E+02  0.29573E+05
 0.30720001E+02  0.27422E+05
 0.30770000E+02  0.26081E+05
 0.30820000E+02  0.25814E+05
 0.30870003E+02  0.26293E+05
 0.30920002E+02  0.27247E+05
 0.30970001E+02  0.28675E+05
 0.31020000E+02  0.29921E+05
 0.31070000E+02  0.30904E+05
 0.31120003E+02  0.32242E+05
 0.31170002E+02  0.34276E+05
 0.31220001E+02  0.36838E+05
 0.31270000E+02  0.39821E+05
 0.31320000E+02  0.42744E+05
 0.31370003E+02  0.45355E+05
 0.31420002E+02  0.48348E+05
 0.31470001E+02  0.51773E+05
 0.31520000E+02  0.55434E+05
 0.31570000E+02  0.58712E+05
 0.31620003E+02  0.61403E+05
 0.31670002E+02  0.63903E+05
 0.31720001E+02  0.65514E+05
 0.31770000E+02  0.65359E+05
 0.31820000E+02  0.63173E+05
 0.31870003E+02  0.59651E+05
 0.31920002E+02  0.55192E+05
 0.31970001E+02  0.49789E+05
 0.32020000E+02  0.43273E+05
 0.32070000E+02  0.35455E+05
 0.32120003E+02  0.27500E+05
 0.32170002E+02  0.20189E+05
 0.32220001E+02  0.13442E+05
 0.32270000E+02  0.73880E+04
 0.32320000E+02  0.23250E+04
 0.32370003E+02 -0.16550E+04
 0.32420002E+02 -0.48240E+04
 0.32470001E+02 -0.76950E+04
 0.32520000E+02 -0.10315E+05
 0.32570000E+02 -0.11948E+05
 0.32620003E+02 -0.12444E+05
 0.32670002E+02 -0.12374E+05
 0.32720001E+02 -0.12616E+05
 0.32770000E+02 -0.13342E+05
 0.32820000E+02 -0.14092E+05
 0.32870003E+02 -0.14883E+05
 0.32920002E+02 -0.16032E+05
 0.32970001E+02 -0.18301E+05
 0.33020000E+02 -0.21855E+05
 0.33070000E+02 -0.26261E+05
 0.33120003E+02 -0.31313E+05
 0.33170002E+02 -0.36262E+05
 0.33220001E+02 -0.40567E+05
 0.33270000E+02 -0.44219E+05
 0.33320000E+02 -0.47180E+05
 0.33370003E+02 -0.49806E+05
 0.33420002E+02 -0.52683E+05
 0.33470001E+02 -0.55917E+05
 0.33520000E+02 -0.59311E+05
 0.33570000E+02 -0.63069E+05
 0.33620003E+02 -0.67127E+05
 0.33670002E+02 -0.70740E+05
 0.33720001E+02 -0.72870E+05
 0.33770000E+02 -0.73113E+05
 0.33820000E+02 -0.72302E+05
 0.33870003E+02 -0.71366E+05
 0.33920002E+02 -0.70675E+05
 0.33970001E+02 -0.70015E+05
 0.34020000E+02 -0.69002E+05
 0.34070000E+02 -0.67312E+05
 0.34120003E+02 -0.64907E+05
 0.34170002E+02 -0.62005E+05
 0.34220001E+02 -0.58657E+05
 0.34270000E+02 -0.54829E+05
 0.34320000E+02 -0.50275E+05
 0.34370003E+02 -0.45122E+05
 0.34420002E+02 -0.39821E+05
 0.34470001E+02 -0.34480E+05
 0.34520000E+02 -0.29271E+05
 0.34570000E+02 -0.24411E+05
 0.34620003E+02 -0.19899E+05
 0.34670002E+02 -0.15424E+05
 0.34720001E+02 -0.11148E+05
 0.34770000E+02 -0.78630E+04
 0.34820000E+02 -0.57390E+04
 0.34870003E+02 -0.45210E+04
 0.34920002E+02 -0.37110E+04
 0.34970001E+02 -0.27940E+04
 0.35020000E+02 -0.15320E+04
 0.35070000E+02  0.20300E+03
 0.35120003E+02  0.19890E+04
 0.35170002E+02  0.36780E+04
 0.35220001E+02  0.50400E+04
 0.35270000E+02  0.54070E+04
 0.35320000E+02  0.52540E+04
 0.35370003E+02  0.54090E+04
 0.35420002E+02  0.60690E+04
 0.35470001E+02  0.73570E+04
 0.35520000E+02  0.97670E+04
 0.35570000E+02  0.13624E+05
 0.35620003E+02  0.18417E+05
 0.35670002E+02  0.23306E+05
 0.35720001E+02  0.27982E+05
 0.35770000E+02  0.32774E+05
 0.35820000E+02  0.37903E+05
 0.35870003E+02  0.43532E+05
 0.35920002E+02  0.49387E+05
 0.35970001E+02  0.54571E+05
 0.36020000E+02  0.58570E+05
 0.36070000E+02  0.61365E+05
 0.36120003E+02  0.63249E+05
 0.36170002E+02  0.64704E+05
 0.36220001E+02  0.65867E+05
 0.36270000E+02  0.66349E+05
 0.36320000E+02  0.65731E+05
 0.36370003E+02  0.63646E+05
 0.36420002E+02  0.60018E+05
 0.36470001E+02  0.55107E+05
 0.36520000E+02  0.49243E+05
 0.36570000E+02  0.43113E+05
 0.36620003E+02  0.37207E+05
 0.36670002E+02  0.31451E+05
 0.36720001E+02  0.25570E+05
 0.36770000E+02  0.19748E+05
 0.36820000E+02  0.14634E+05
 0.36870003E+02  0.10540E+05
 0.36920002E+02  0.70930E+04
 0.36970001E+02  0.34960E+04
 0.37020000E+02 -0.42500E+03
 0.37070000E+02 -0.46270E+04
 0.37120003E+02 -0.88660E+04
 0.37170002E+02 -0.12085E+05
 0.37220001E+02 -0.13800E+05
 0.37270000E+02 -0.14046E+05
 0.37320000E+02 -0.13136E+05
 0.37370003E+02 -0.11652E+05
 0.37420002E+02 -0.95810E+04
 0.37470001E+02 -0.70710E+04
 0.37520000E+02 -0.42060E+04
 0.37570000E+02 -0.78000E+03
 0.37620003E+02  0.30990E+04
 0.37670002E+02  0.71400E+04
 0.37720001E+02  0.10731E+05
 0.37770000E+02  0.13488E+05
 0.37820000E+02  0.15273E+05
 0.37870003E+02  0.16109E+05
 0.37920002E+02  0.16337E+05
 0.37970001E+02  0.16241E+05
 0.38020000E+02  0.16215E+05
 0.38070000E+02  0.16164E+05
 0.38120003E+02  0.15763E+05
 0.38170002E+02  0.15602E+05
 0.38220001E+02  0.16074E+05
 0.38270000E+02  0.16768E+05
 0.38320000E+02  0.16791E+05
 0.38370003E+02  0.15424E+05
 0.38420002E+02  0.13126E+05
 0.38470001E+02  0.10241E+05
 0.38520000E+02  0.65870E+04
 0.38570000E+02  0.22170E+04
 0.38620003E+02 -0.28360E+04
 0.38670002E+02 -0.82390E+04
 0.38720001E+02 -0.13524E+05
 0.38770000E+02 -0.18355E+05
 0.38820000E+02 -0.22455E+05
 0.38870003E+02 -0.25678E+05
 0.38920002E+02 -0.27971E+05
 0.38970001E+02 -0.29574E+05
 0.39020000E+02 -0.30948E+05
 0.39070000E+02 -0.32475E+05
 0.39120003E+02 -0.34081E+05
 0.39170002E+02 -0.35408E+05
 0.39220001E+02 -0.35732E+05
 0.39270000E+02 -0.34342E+05
 0.39320000E+02 -0.31729E+05
 0.39370003E+02 -0.28878E+05
 0.39420002E+02 -0.26474E+05
 0.39470001E+02 -0.24714E+05
 0.39520000E+02 -0.23113E+05
 0.39570000E+02 -0.21381E+05
 0.39620003E+02 -0.19498E+05
 0.39670002E+02 -0.17011E+05
 0.39720001E+02 -0.13619E+05
 0.39770000E+02 -0.97290E+04
 0.39820000E+02 -0.59680E+04
 0.39870003E+02 -0.25180E+04
 0.39920002E+02  0.71700E+03
 0.39970001E+02  0.34280E+04
 0.40020000E+02  0.51300E+04
 0.40070000E+02  0.55790E+04
 0.40120003E+02  0.47330E+04
 0.40170002E+02  0.29820E+04
 0.40220001E+02  0.10710E+04
 0.40270000E+02 -0.48200E+03
 0.40320000E+02 -0.14650E+04
 0.40370003E+02 -0.18390E+04
 0.40420002E+02 -0.16840E+04
 0.40470001E+02 -0.14840E+04
 0.40520000E+02 -0.16100E+04
 0.40570000E+02 -0.15740E+04
 0.40620003E+02 -0.11060E+04
 0.40670002E+02 -0.55700E+03
 0.40720001E+02 -0.27400E+03
 0.40770000E+02 -0.50800E+03
 0.40820000E+02 -0.13600E+04
 0.40870003E+02 -0.26610E+04
 0.40920002E+02 -0.39880E+04
 0.40970001E+02 -0.50540E+04
 0.41020000E+02 -0.56440E+04
 0.41070000E+02 -0.59190E+04
 0.41120003E+02 -0.61530E+04
 0.41170002E+02 -0.60950E+04
 0.41220001E+02 -0.57910E+04
 0.41270000E+02 -0.56260E+04
 0.41320000E+02 -0.58720E+04
 0.41370003E+02 -0.63230E+04
 0.41420002E+02 -0.68300E+04
 0.41470001E+02 -0.75230E+04
 0.41520000E+02 -0.80420E+04
 0.41570000E+02 -0.81820E+04
 0.41620003E+02 -0.80190E+04
 0.41670002E+02 -0.75850E+04
 0.41720001E+02 -0.71270E+04
 0.41770000E+02 -0.66230E+04
 0.41820000E+02 -0.55580E+04
 0.41870003E+02 -0.37440E+04
 0.41920002E+02 -0.13830E+04
 0.41970001E+02  0.11870E+04
 0.42020000E+02  0.36700E+04
 0.42070000E+02  0.61100E+04
 0.42120003E+02  0.82600E+04
 0.42170002E+02  0.98800E+04
 0.42220001E+02  0.11349E+05
 0.42270000E+02  0.12864E+05
 0.42320000E+02  0.14093E+05
 0.42370003E+02  0.14742E+05
 0.42420002E+02  0.14877E+05
 0.42470001E+02  0.14513E+05
 0.42520000E+02  0.13368E+05
 0.42570000E+02  0.11333E+05
 0.42620003E+02  0.88250E+04
 0.42670002E+02  0.63020E+04
 0.42720001E+02  0.38070E+04
 0.42770000E+02  0.14970E+04
 0.42820000E+02 -0.72200E+03
 0.42870003E+02 -0.33320E+04
 0.42920002E+02 -0.65900E+04
 0.42970001E+02 -0.10305E+05
 0.43020000E+02 -0.13599E+05
 0.43070000E+02 -0.16094E+05
 0.43120003E+02 -0.17750E+05
 0.43170002E+02 -0.18429E+05
 0.43220001E+02 -0.18450E+05
 0.43270000E+02 -0.18277E+05
 0.43320000E+02 -0.18458E+05
 0.43370003E+02 -0.19067E+05
 0.43420002E+02 -0.20171E+05
 0.43470001E+02 -0.21591E+05
 0.43520000E+02 -0.22812E+05
 0.43570000E+02 -0.23876E+05
 0.43620003E+02 -0.24924E+05
 0.43670002E+02 -0.26006E+05
 0.43720001E+02 -0.26888E+05
 0.43770000E+02 -0.27472E+05
 0.43820000E+02 -0.27754E+05
 0.43870003E+02 -0.27428E+05
 0.43920002E+02 -0.26602E+05
 0.43970001E+02 -0.25592E+05
 0.44020000E+02 -0.24352E+05
 0.44070000E+02 -0.23222E+05
 0.44120003E+02 -0.22592E+05
 0.44170002E+02 -0.22271E+05
 0.44220001E+02 -0.21949E+05
 0.44270000E+02 -0.21248E+05
 0.44320000E+02 -0.20020E+05
 0.44370003E+02 -0.18408E+05
 0.44420002E+02 -0.16698E+05
 0.44470001E+02 -0.14820E+05
 0.44520000E+02 -0.12430E+05
 0.44570000E+02 -0.99130E+04
 0.44620003E+02 -0.76590E+04
 0.44670002E+02 -0.54430E+04
 0.44720001E+02 -0.27750E+04
 0.44770000E+02  0.89200E+03
 0.44820000E+02  0.50370E+04
 0.44870003E+02  0.86060E+04
 0.44920002E+02  0.11620E+05
 0.44970001E+02  0.14159E+05
 0.45020000E+02  0.15911E+05
 0.45070000E+02  0.16920E+05
 0.45120003E+02  0.17625E+05
 0.45170002E+02  0.18566E+05
 0.45220001E+02  0.19947E+05
 0.45270000E+02  0.21412E+05
 0.45320000E+02  0.22321E+05
 0.45370003E+02  0.22601E+05
 0.45420002E+02  0.22668E+05
 0.45470001E+02  0.23119E+05
 0.45520000E+02  0.24384E+05
 0.45570000E+02  0.26486E+05
 0.45620003E+02  0.29047E+05
 0.45670002E+02  0.31425E+05
 0.45720001E+02  0.33332E+05
 0.45770000E+02  0.34741E+05
 0.45820000E+02  0.35993E+05
 0.45870003E+02  0.37159E+05
 0.45920002E+02  0.37832E+05
 0.45970001E+02  0.38310E+05
 0.46020000E+02  0.38775E+05
 0.46070000E+02  0.38797E+05
 0.46120003E+02  0.37919E+05
 0.46170002E+02  0.36194E+05
 0.46220001E+02  0.33125E+05
 0.46270000E+02  0.28223E+05
 0.46320000E+02  0.22508E+05
 0.46370003E+02  0.16004E+05
 0.46420002E+02  0.10117E+05
 0.46470001E+02  0.23800E+04
 0.46520000E+02 -0.74710E+04
 0.46570000E+02 -0.12826E+05
 0.46620003E+02 -0.80300E+03
 0.46670002E+02  0.28853E+05
 0.46720001E+02  0.44171E+05
 0.46770000E+02  0.28907E+05
 0.46820000E+02 -0.24198E+05
 0.46870003E+02 -0.87158E+05
 0.46920002E+02 -0.13139E+06
 0.46970001E+02 -0.13953E+06
 0.47020000E+02 -0.10435E+06
 0.47070000E+02 -0.93689E+05
 0.47120003E+02 -0.82997E+05
 0.47170002E+02 -0.72945E+05
 0.47220001E+02 -0.57064E+05
 0.47270000E+02  0.47759E+05
 0.47320000E+02  0.13058E+06
 0.47370003E+02  0.13188E+06
 0.47420002E+02  0.10903E+06
 0.47470001E+02  0.17984E+05
 0.47520000E+02 -0.71358E+05
 0.47570000E+02 -0.84034E+05
 0.47620003E+02 -0.86705E+05
 0.47670002E+02 -0.64963E+05
 0.47720001E+02 -0.32829E+05
 0.47770000E+02 -0.19943E+05
 0.47820000E+02  0.16050E+04
 0.47870003E+02  0.28217E+05
 0.47920002E+02  0.15329E+05
 0.47970001E+02  0.17578E+05
 0.48020000E+02  0.30973E+05
 0.48070000E+02  0.25861E+05
 0.48120003E+02  0.31161E+05
 0.48170002E+02 -0.20543E+05
 0.48220001E+02 -0.66740E+04
 0.48270000E+02 -0.24500E+03
 0.48320000E+02 -0.48997E+05
 0.48370003E+02 -0.39817E+05
 0.48420002E+02 -0.36576E+05
 0.48470001E+02  0.38247E+05
 0.48520000E+02  0.49313E+05
 0.48570000E+02 -0.36604E+05
 0.48620003E+02 -0.24787E+05
 0.48670002E+02 -0.22527E+05
 0.48720001E+02 -0.61923E+05
 0.48770000E+02 -0.72737E+05
 0.48820000E+02 -0.10638E+06
 0.48870003E+02 -0.65345E+05
 0.48920002E+02 -0.15441E+05
 0.48970001E+02 -0.48826E+05
 0.49020000E+02 -0.37753E+05
 0.49070000E+02 -0.63904E+05
 0.49120003E+02 -0.40747E+05
 0.49170002E+02  0.39210E+04
 0.49220001E+02 -0.12816E+05
 0.49270000E+02  0.33109E+05
 0.49320000E+02  0.43033E+05
 0.49370003E+02 -0.10440E+04
 0.49420002E+02 -0.35149E+05
 0.49470001E+02  0.11930E+04
 0.49520000E+02  0.33684E+05
 0.49570000E+02  0.51373E+05
 0.49620003E+02  0.82539E+05
 0.49670002E+02  0.29140E+05
 0.49720001E+02  0.80130E+04
 0.49770000E+02 -0.13835E+05
 0.49820000E+02 -0.44608E+05
 0.49870003E+02  0.42430E+04
 0.49920002E+02  0.30844E+05
 0.49970001E+02  0.49090E+05
 0.50020000E+02  0.86417E+05
 0.50070000E+02  0.98872E+05
 0.50120003E+02  0.45504E+05
 0.50170002E+02 -0.97740E+04
 0.50220001E+02 -0.26591E+05
 0.50270000E+02 -0.58521E+05
 0.50320000E+02 -0.58905E+05
 0.50370003E+02  0.36030E+04
 0.50420002E+02  0.46426E+05
 0.50470001E+02  0.13356E+05
 0.50520000E+02  0.33186E+05
 0.50570000E+02  0.55173E+05
 0.50620003E+02  0.25029E+05
 0.50670002E+02  0.16518E+05
 0.50720001E+02 -0.35425E+05
 0.50770000E+02 -0.41751E+05
 0.50820000E+02 -0.11201E+05
 0.50870003E+02 -0.18636E+05
 0.50920002E+02  0.89580E+04
 0.50970001E+02  0.13920E+05
 0.51020000E+02 -0.21303E+05
 0.51070000E+02 -0.14749E+05
 0.51120003E+02 -0.19717E+05
 0.51170002E+02 -0.27995E+05
 0.51220001E+02 -0.16671E+05
 0.51270000E+02 -0.19899E+05
 0.51320000E+02 -0.28340E+05
 0.51370003E+02 -0.49387E+05
 0.51420002E+02 -0.17189E+05
 0.51470001E+02  0.13392E+05
 0.51520000E+02  0.56300E+03
 0.51570000E+02 -0.21240E+04
 0.51620003E+02 -0.21532E+05
 0.51670002E+02 -0.31067E+05
 0.51720001E+02 -0.20283E+05
 0.51770000E+02 -0.78620E+04
 0.51820000E+02  0.45800E+03
 0.51870003E+02 -0.66700E+04
 0.51920002E+02 -0.92540E+04
 0.51970001E+02 -0.87460E+04
 0.52020000E+02 -0.15582E+05
 0.52070000E+02 -0.30670E+05
 0.52120003E+02 -0.58914E+05
 0.52170002E+02 -0.77248E+05
 0.52220001E+02 -0.78503E+05
 0.52270000E+02 -0.61184E+05
 0.52320000E+02 -0.48365E+05
 0.52370003E+02 -0.41868E+05
 0.52420002E+02 -0.85100E+04
 0.52470001E+02  0.10489E+05
 0.52520000E+02  0.72810E+04
 0.52570000E+02 -0.83960E+04
 0.52620003E+02 -0.28486E+05
 0.52670002E+02 -0.16943E+05
 0.52720001E+02 -0.29003E+05
 0.52770000E+02 -0.52104E+05
 0.52820000E+02 -0.38740E+05
 0.52870003E+02 -0.28227E+05
 0.52920002E+02 -0.27157E+05
 0.52970001E+02 -0.35714E+05
 0.53020000E+02 -0.37312E+05
 0.53070000E+02 -0.30882E+05
 0.53120003E+02 -0.55910E+05
 0.53170002E+02 -0.73933E+05
 0.53220001E+02 -0.53989E+05
 0.53270000E+02 -0.17905E+05
 0.53320000E+02  0.20357E+05
 0.53370003E+02  0.17032E+05
 0.53420002E+02  0.16251E+05
 0.53470001E+02  0.13977E+05
 0.53520000E+02 -0.32669E+05
 0.53570000E+02 -0.58787E+05
 0.53620003E+02 -0.57758E+05
 0.53670002E+02 -0.12037E+05
 0.53720001E+02  0.25962E+05
 0.53770000E+02  0.66480E+04
 0.53820000E+02 -0.11772E+05
 0.53870003E+02 -0.27331E+05
 0.53920002E+02 -0.21625E+05
 0.53970001E+02 -0.40114E+05
 0.54020000E+02 -0.55161E+05
 0.54070000E+02  0.10610E+04
 0.54120003E+02  0.12780E+04
 0.54170002E+02 -0.16289E+05
 0.54220001E+02  0.48610E+04
 0.54270000E+02 -0.58200E+03
 0.54320000E+02  0.25855E+05
 0.54370003E+02  0.33561E+05
 0.54420002E+02  0.92030E+04
 0.54470001E+02  0.54410E+04
 0.54520000E+02 -0.15330E+04
 0.54570000E+02  0.18165E+05
 0.54620003E+02  0.37652E+05
 0.54670002E+02  0.65945E+05
 0.54720001E+02  0.78469E+05
 0.54770000E+02  0.33813E+05
 0.54820000E+02 -0.34030E+04
 0.54870003E+02 -0.25420E+04
 0.54920002E+02  0.35399E+05
 0.54970001E+02  0.59552E+05
 0.55020000E+02  0.52438E+05
 0.55070000E+02  0.27751E+05
 0.55120003E+02 -0.58440E+04
 0.55170002E+02  0.57900E+03
 0.55220001E+02  0.21683E+05
 0.55270000E+02  0.23702E+05
 0.55320000E+02  0.25672E+05
 0.55370003E+02  0.37528E+05
 0.55420002E+02  0.38183E+05
 0.55470001E+02  0.17933E+05
 0.55520000E+02  0.75746E+05
 0.55570000E+02  0.15144E+06
 0.55620003E+02  0.15457E+06
 0.55670002E+02  0.18442E+06
 0.55720001E+02  0.19571E+06
 0.55770000E+02  0.15135E+06
 0.55820000E+02  0.11482E+06
 0.55870003E+02  0.62908E+05
 0.55920002E+02  0.15819E+05
 0.55970001E+02 -0.18890E+05
 0.56020000E+02 -0.74541E+05
 0.56070000E+02 -0.95546E+05
 0.56120003E+02 -0.10262E+06
 0.56170002E+02 -0.85085E+05
 0.56220001E+02 -0.18536E+05
 0.56270000E+02  0.18891E+05
 0.56320000E+02  0.49711E+05
 0.56370003E+02  0.58899E+05
 0.56420002E+02  0.35633E+05
 0.56470001E+02 -0.12030E+04
 0.56520000E+02 -0.53077E+05
 0.56570000E+02 -0.66452E+05
 0.56620003E+02 -0.76185E+05
 0.56670002E+02 -0.80667E+05
 0.56720001E+02 -0.62348E+05
 0.56770000E+02 -0.55751E+05
 0.56820000E+02 -0.56580E+04
 0.56870003E+02  0.25467E+05
 0.56920002E+02 -0.26901E+05
 0.56970001E+02 -0.86857E+05
 0.57020000E+02 -0.13841E+06
 0.57070000E+02 -0.15347E+06
 0.57120003E+02 -0.17040E+06
 0.57170002E+02 -0.18250E+06
 0.57220001E+02 -0.93574E+05
 0.57270000E+02 -0.59670E+04
 0.57320000E+02  0.76743E+05
 0.57370003E+02  0.15233E+06
 0.57420002E+02  0.14260E+06
 0.57470001E+02  0.11755E+06
 0.57520000E+02  0.76774E+05
 0.57570000E+02  0.24534E+05
 0.57620003E+02  0.18390E+04
 0.57670002E+02  0.60621E+05
 0.57720001E+02  0.10067E+06
 0.57770000E+02  0.10519E+06
 0.57820000E+02  0.13233E+06
 0.57870003E+02  0.11663E+06
 0.57920002E+02  0.15395E+06
 0.57970001E+02  0.13254E+06
 0.58020000E+02  0.92462E+05
 0.58070000E+02  0.14797E+06
 0.58120003E+02  0.12440E+06
 0.58170002E+02  0.87958E+05
 0.58220001E+02  0.99212E+05
 0.58270000E+02  0.98188E+05
 0.58320000E+02  0.96800E+05
 0.58370003E+02  0.84488E+05
 0.58420002E+02  0.45667E+05
 0.58470001E+02 -0.20590E+05
 0.58520000E+02 -0.12262E+06
 0.58570000E+02 -0.15403E+06
 0.58620003E+02 -0.97010E+05
 0.58670002E+02 -0.20574E+05
 0.58720001E+02  0.81638E+05
 0.58770000E+02  0.13113E+06
 0.58820000E+02  0.13681E+06
 0.58870003E+02  0.14805E+06
 0.58920002E+02  0.13975E+06
 0.58970001E+02  0.10870E+06
 0.59020000E+02  0.80755E+05
 0.59070000E+02  0.41350E+05
 0.59120003E+02  0.21460E+04
 0.59170002E+02  0.19395E+05
 0.59220001E+02  0.45074E+05
 0.59270000E+02  0.73882E+05
 0.59320000E+02  0.87059E+05
 0.59370003E+02  0.48566E+05
 0.59420002E+02  0.43301E+05
 0.59470001E+02  0.63477E+05
 0.59520000E+02  0.67448E+05
 0.59570000E+02  0.10600E+06
 0.59620003E+02  0.12094E+06
 0.59670002E+02  0.98871E+05
 0.59720001E+02  0.64827E+05
 0.59770000E+02  0.31250E+04
 0.59820000E+02 -0.29374E+05
 0.59870003E+02 -0.91551E+05
 0.59920002E+02 -0.11173E+06
 0.59970001E+02 -0.29417E+05
 0.60020000E+02  0.61934E+05
 0.60070000E+02  0.14715E+06
 0.60120003E+02  0.14421E+06
 0.60170002E+02  0.77618E+05
 0.60220001E+02 -0.28425E+05
 0.60270000E+02 -0.16047E+06
 0.60320000E+02 -0.20157E+06
 0.60370003E+02 -0.21667E+06
 0.60420002E+02 -0.30303E+06
 0.60470001E+02 -0.38066E+06
 0.60520000E+02 -0.39936E+06
 0.60570000E+02 -0.41883E+06
 0.60620003E+02 -0.41424E+06
 0.60670002E+02 -0.32605E+06
 0.60720001E+02 -0.16297E+06
 0.60770000E+02  0.76350E+04
 0.60820000E+02  0.80041E+05
 0.60870003E+02  0.70342E+05
 0.60920002E+02  0.15565E+05
 0.60970001E+02 -0.66608E+05
 0.61020000E+02 -0.85782E+05
 0.61070000E+02 -0.41191E+05
 0.61120003E+02  0.21586E+05
 0.61170002E+02  0.58718E+05
 0.61220001E+02  0.36301E+05
 0.61270000E+02 -0.30230E+04
 0.61320000E+02 -0.64996E+05
 0.61370003E+02 -0.13257E+06
 0.61420002E+02 -0.98374E+05
 0.61470001E+02 -0.29730E+04
 0.61520000E+02  0.55963E+05
 0.61570000E+02  0.96872E+05
 0.61620003E+02  0.14808E+06
 0.61670002E+02  0.15488E+06
 0.61720001E+02  0.83828E+05
 0.61770000E+02  0.73172E+05
 0.61820000E+02  0.86096E+05
 0.61870003E+02  0.39837E+05
 0.61920002E+02  0.33626E+05
 0.61970001E+02  0.45175E+05
 0.62020000E+02  0.88282E+05
 0.62070004E+02  0.13488E+06
 0.62119999E+02  0.13098E+06
 0.62170002E+02  0.16967E+06
 0.62220005E+02  0.22998E+06
 0.62270000E+02  0.23576E+06
 0.62320004E+02  0.17424E+06
 0.62369999E+02  0.69959E+05
 0.62420002E+02 -0.12135E+05
 0.62470005E+02 -0.67173E+05
 0.62520000E+02 -0.10048E+06
 0.62570004E+02 -0.90134E+05
 0.62619999E+02 -0.54986E+05
 0.62670002E+02 -0.12627E+05
 0.62720005E+02  0.26946E+05
 0.62770000E+02  0.44063E+05
 0.62820004E+02 -0.24680E+04
 0.62869999E+02 -0.93075E+05
 0.62920002E+02 -0.12273E+06
 0.62970005E+02 -0.51860E+05
 0.63020000E+02  0.62509E+05
 0.63070004E+02  0.13094E+06
 0.63119999E+02  0.14561E+06
 0.63170002E+02  0.18240E+06
 0.63220005E+02  0.21473E+06
 0.63270000E+02  0.18285E+06
 0.63320004E+02  0.17724E+06
 0.63369999E+02  0.23760E+06
 0.63420002E+02  0.24984E+06
 0.63470005E+02  0.19190E+06
 0.63520000E+02  0.13872E+06
 0.63570004E+02  0.88773E+05
 0.63619999E+02  0.63809E+05
 0.63670002E+02  0.84139E+05
 0.63720005E+02  0.87963E+05
 0.63770000E+02  0.80334E+05
 0.63820004E+02  0.67871E+05
 0.63869999E+02  0.57593E+05
 0.63920002E+02  0.18399E+05
 0.63970005E+02 -0.28423E+05
 0.64019997E+02  0.41700E+05
 0.64070000E+02  0.16032E+06
 0.64119995E+02  0.24618E+06
 0.64169998E+02  0.29300E+06
 0.64220001E+02  0.27122E+06
 0.64269997E+02  0.19872E+06
 0.64320000E+02  0.13255E+06
 0.64369995E+02  0.71304E+05
 0.64419998E+02 -0.32359E+05
 0.64470001E+02 -0.10095E+06
 0.64519997E+02 -0.10988E+06
 0.64570000E+02 -0.15056E+06
 0.64619995E+02 -0.18816E+06
 0.64669998E+02 -0.15318E+06
 0.64720001E+02 -0.11427E+06
 0.64769997E+02 -0.10284E+06
 0.64820000E+02 -0.88670E+05
 0.64869995E+02 -0.94972E+05
 0.64919998E+02 -0.83692E+05
 0.64970001E+02 -0.36660E+05
 0.65019997E+02 -0.25325E+05
 0.65070000E+02 -0.40044E+05
 0.65119995E+02 -0.48670E+05
 0.65169998E+02 -0.56415E+05
 0.65220001E+02 -0.46871E+05
 0.65269997E+02 -0.52145E+05
 0.65320000E+02 -0.23150E+05
 0.65369995E+02  0.22430E+05
 0.65419998E+02  0.35691E+05
 0.65470001E+02  0.98790E+05
 0.65519997E+02  0.11172E+06
 0.65570000E+02  0.70581E+05
 0.65619995E+02  0.28735E+05
 0.65669998E+02 -0.25997E+05
 0.65720001E+02 -0.39653E+05
 0.65769997E+02 -0.52703E+05
 0.65820000E+02 -0.70365E+05
 0.65869995E+02 -0.10937E+06
 0.65919998E+02 -0.16246E+06
 0.65970001E+02 -0.18482E+06
 0.66019997E+02 -0.15713E+06
 0.66070000E+02 -0.11476E+06
 0.66119995E+02 -0.80428E+05
 0.66169998E+02 -0.16084E+05
 0.66220001E+02 -0.16583E+05
 0.66269997E+02 -0.47397E+05
 0.66320000E+02 -0.57819E+05
 0.66369995E+02 -0.10363E+06
 0.66419998E+02 -0.13032E+06
 0.66470001E+02 -0.14500E+06
 0.66519997E+02 -0.17585E+06
 0.66570000E+02 -0.18511E+06
 0.66619995E+02 -0.13170E+06
 0.66669998E+02 -0.51544E+05
 0.66720001E+02 -0.17491E+05
 0.66769997E+02 -0.28678E+05
 0.66820000E+02 -0.73240E+05
 0.66869995E+02 -0.15362E+06
 0.66919998E+02 -0.24081E+06
 0.66970001E+02 -0.27270E+06
 0.67019997E+02 -0.21312E+06
 0.67070000E+02 -0.94646E+05
 0.67119995E+02  0.47724E+05
 0.67169998E+02  0.18120E+06
 0.67220001E+02  0.25358E+06
 0.67269997E+02  0.23459E+06
 0.67320000E+02  0.11790E+06
 0.67369995E+02 -0.27448E+05
 0.67419998E+02 -0.84004E+05
 0.67470001E+02 -0.44173E+05
 0.67519997E+02 -0.55060E+04
 0.67570000E+02 -0.14350E+04
 0.67619995E+02  0.21772E+05
 0.67669998E+02  0.86373E+05
 0.67720001E+02  0.12189E+06
 0.67769997E+02  0.11454E+06
 0.67820000E+02  0.91939E+05
 0.67869995E+02  0.24838E+05
 0.67919998E+02 -0.31253E+05
 0.67970001E+02 -0.76169E+05
 0.68019997E+02 -0.14043E+06
 0.68070000E+02 -0.15541E+06
 0.68119995E+02 -0.11113E+06
 0.68169998E+02 -0.20661E+05
 0.68220001E+02  0.69116E+05
 0.68269997E+02  0.80795E+05
 0.68320000E+02  0.33310E+05
 0.68369995E+02  0.10550E+04
 0.68419998E+02  0.31084E+05
 0.68470001E+02  0.86880E+05
 0.68519997E+02  0.92352E+05
 0.68570000E+02  0.69498E+05
 0.68619995E+02  0.60400E+05
 0.68669998E+02  0.52906E+05
 0.68720001E+02  0.67901E+05
 0.68769997E+02  0.79624E+05
 0.68820000E+02  0.49365E+05
 0.68869995E+02  0.31284E+05
 0.68919998E+02  0.25879E+05
 0.68970001E+02 -0.19387E+05
 0.69019997E+02 -0.63352E+05
 0.69070000E+02 -0.77005E+05
 0.69119995E+02 -0.99064E+05
 0.69169998E+02 -0.96392E+05
 0.69220001E+02 -0.81709E+05
 0.69269997E+02 -0.11342E+06
 0.69320000E+02 -0.15265E+06
 0.69369995E+02 -0.18505E+06
 0.69419998E+02 -0.22147E+06
 0.69470001E+02 -0.22483E+06
 0.69519997E+02 -0.20756E+06
 0.69570000E+02 -0.19271E+06
 0.69619995E+02 -0.15567E+06
 0.69669998E+02 -0.12842E+06
 0.69720001E+02 -0.11104E+06
 0.69769997E+02 -0.91008E+05
 0.69820000E+02 -0.99637E+05
 0.69869995E+02 -0.10319E+06
 0.69919998E+02 -0.81726E+05
 0.69970001E+02 -0.57719E+05
 0.70019997E+02 -0.30035E+05
 0.70070000E+02  0.15015E+05
 0.70119995E+02  0.66021E+05
 0.70169998E+02  0.86681E+05
 0.70220001E+02  0.70376E+05
 0.70269997E+02  0.44892E+05
 0.70320000E+02  0.28389E+05
 0.70369995E+02  0.10285E+05
 0.70419998E+02  0.66300E+04
 0.70470001E+02  0.48119E+05
 0.70519997E+02  0.62697E+05
 0.70570000E+02  0.18680E+04
 0.70619995E+02 -0.67372E+05
 0.70669998E+02 -0.10098E+06
 0.70720001E+02 -0.72277E+05
 0.70769997E+02 -0.12377E+05
 0.70820000E+02  0.16447E+05
 0.70869995E+02  0.48361E+05
 0.70919998E+02  0.78798E+05
 0.70970001E+02  0.58802E+05
 0.71019997E+02  0.15456E+05
 0.71070000E+02 -0.11477E+05
 0.71119995E+02  0.99310E+04
 0.71169998E+02  0.80953E+05
 0.71220001E+02  0.13164E+06
 0.71269997E+02  0.14692E+06
 0.71320000E+02  0.16791E+06
 0.71369995E+02  0.16916E+06
 0.71419998E+02  0.12814E+06
 0.71470001E+02  0.90147E+05
 0.71519997E+02  0.10414E+06
 0.71570000E+02  0.14738E+06
 0.71619995E+02  0.16524E+06
 0.71669998E+02  0.12197E+06
 0.71720001E+02  0.45654E+05
 0.71769997E+02 -0.78370E+04
 0.71820000E+02 -0.41359E+05
 0.71869995E+02 -0.67802E+05
 0.71919998E+02 -0.10226E+06
 0.71970001E+02 -0.11233E+06
 0.72019997E+02 -0.11215E+06
 0.72070000E+02 -0.16534E+06
 0.72119995E+02 -0.19755E+06
 0.72169998E+02 -0.16255E+06
 0.72220001E+02 -0.13996E+06
 0.72269997E+02 -0.16179E+06
 0.72320000E+02 -0.18896E+06
 0.72369995E+02 -0.17141E+06
 0.72419998E+02 -0.10396E+06
 0.72470001E+02 -0.50155E+05
 0.72519997E+02 -0.35160E+05
 0.72570000E+02 -0.49314E+05
 0.72619995E+02 -0.83284E+05
 0.72669998E+02 -0.10293E+06
 0.72720001E+02 -0.10260E+06
 0.72769997E+02 -0.11308E+06
 0.72820000E+02 -0.10932E+06
 0.72869995E+02 -0.74488E+05
 0.72919998E+02 -0.53258E+05
 0.72970001E+02 -0.48711E+05
 0.73019997E+02 -0.37912E+05
 0.73070000E+02 -0.28800E+04
 0.73119995E+02  0.33654E+05
 0.73169998E+02  0.47981E+05
 0.73220001E+02  0.48632E+05
 0.73269997E+02  0.33531E+05
 0.73320000E+02 -0.14774E+05
 0.73369995E+02 -0.82054E+05
 0.73419998E+02 -0.12560E+06
 0.73470001E+02 -0.16832E+06
 0.73519997E+02 -0.22349E+06
 0.73570000E+02 -0.24415E+06
 0.73619995E+02 -0.20126E+06
 0.73669998E+02 -0.11911E+06
 0.73720001E+02 -0.17729E+05
 0.73769997E+02  0.74723E+05
 0.73820000E+02  0.10621E+06
 0.73869995E+02  0.96105E+05
 0.73919998E+02  0.68680E+05
 0.73970001E+02 -0.49070E+04
 0.74019997E+02 -0.75383E+05
 0.74070000E+02 -0.70397E+05
 0.74119995E+02 -0.43389E+05
 0.74169998E+02 -0.39611E+05
 0.74220001E+02 -0.58770E+05
 0.74269997E+02 -0.80962E+05
 0.74320000E+02 -0.64310E+05
 0.74369995E+02 -0.41372E+05
 0.74419998E+02 -0.34357E+05
 0.74470001E+02 -0.16889E+05
 0.74519997E+02  0.64960E+04
 0.74570000E+02  0.35025E+05
 0.74619995E+02  0.63190E+05
 0.74669998E+02  0.76219E+05
 0.74720001E+02  0.76495E+05
 0.74769997E+02  0.47280E+05
 0.74820000E+02  0.13280E+05
 0.74869995E+02 -0.13348E+05
 0.74919998E+02 -0.69591E+05
 0.74970001E+02 -0.12251E+06
 0.75019997E+02 -0.12328E+06
 0.75070000E+02 -0.85077E+05
 0.75119995E+02 -0.56434E+05
 0.75169998E+02 -0.41848E+05
 0.75220001E+02 -0.25425E+05
 0.75269997E+02 -0.42290E+04
 0.75320000E+02  0.45408E+05
 0.75369995E+02  0.12606E+06
 0.75419998E+02  0.21083E+06
 0.75470001E+02  0.26498E+06
 0.75519997E+02  0.26852E+06
 0.75570000E+02  0.25100E+06
 0.75619995E+02  0.24781E+06
 0.75669998E+02  0.25037E+06
 0.75720001E+02  0.22570E+06
 0.75769997E+02  0.15460E+06
 0.75820000E+02  0.10929E+06
 0.75869995E+02  0.13329E+06
 0.75919998E+02  0.15245E+06
 0.75970001E+02  0.15249E+06
 0.76019997E+02  0.15744E+06
 0.76070000E+02  0.15037E+06
 0.76119995E+02  0.11376E+06
 0.76169998E+02  0.58145E+05
 0.76220001E+02  0.18324E+05
 0.76269997E+02  0.17241E+05
 0.76320000E+02  0.26502E+05
 0.76369995E+02 -0.18663E+05
 0.76419998E+02 -0.93511E+05
 0.76470001E+02 -0.13840E+06
 0.76519997E+02 -0.16511E+06
 0.76570000E+02 -0.16649E+06
 0.76619995E+02 -0.12217E+06
 0.76669998E+02 -0.61866E+05
 0.76720001E+02 -0.11600E+05
 0.76769997E+02  0.20610E+05
 0.76820000E+02  0.29964E+05
 0.76869995E+02  0.66509E+05
 0.76919998E+02  0.11838E+06
 0.76970001E+02  0.13337E+06
 0.77019997E+02  0.14180E+06
 0.77070000E+02  0.11717E+06
 0.77119995E+02  0.45714E+05
 0.77169998E+02 -0.95100E+04
 0.77220001E+02 -0.71000E+02
 0.77269997E+02  0.61191E+05
 0.77320000E+02  0.10887E+06
 0.77369995E+02  0.10382E+06
 0.77419998E+02  0.35969E+05
 0.77470001E+02 -0.35911E+05
 0.77519997E+02 -0.54057E+05
 0.77570000E+02 -0.53001E+05
 0.77619995E+02 -0.48504E+05
 0.77669998E+02 -0.28083E+05
 0.77720001E+02 -0.35535E+05
 0.77769997E+02 -0.54741E+05
 0.77820000E+02 -0.52667E+05
 0.77869995E+02 -0.80214E+05
 0.77919998E+02 -0.11529E+06
 0.77970001E+02 -0.11456E+06
 0.78019997E+02 -0.74609E+05
 0.78070000E+02 -0.43380E+05
 0.78119995E+02 -0.47611E+05
 0.78169998E+02 -0.38859E+05
 0.78220001E+02 -0.78280E+04
 0.78269997E+02  0.47557E+05
 0.78320000E+02  0.91895E+05
 0.78369995E+02  0.11811E+06
 0.78419998E+02  0.16509E+06
 0.78470001E+02  0.22254E+06
 0.78519997E+02  0.26692E+06
 0.78570000E+02  0.27560E+06
 0.78619995E+02  0.24661E+06
 0.78669998E+02  0.21600E+06
 0.78720001E+02  0.19942E+06
 0.78769997E+02  0.18577E+06
 0.78820000E+02  0.17166E+06
 0.78869995E+02  0.12234E+06
 0.78919998E+02  0.54329E+05
 0.78970001E+02  0.41478E+05
 0.79019997E+02  0.73296E+05
 0.79070000E+02  0.63744E+05
 0.79119995E+02  0.30954E+05
 0.79169998E+02  0.23431E+05
 0.79220001E+02  0.93450E+04
 0.79269997E+02  0.30510E+04
 0.79320000E+02  0.20383E+05
 0.79369995E+02  0.53635E+05
 0.79419998E+02  0.55829E+05
 0.79470001E+02  0.10318E+05
 0.79519997E+02 -0.46633E+05
 0.79570000E+02 -0.75492E+05
 0.79619995E+02 -0.49187E+05
 0.79669998E+02 -0.20550E+04
 0.79720001E+02  0.58093E+05
 0.79769997E+02  0.13323E+06
 0.79820000E+02  0.21405E+06
 0.79869995E+02  0.24035E+06
 0.79919998E+02  0.23827E+06
 0.79970001E+02  0.27710E+06
 0.80019997E+02  0.26404E+06
 0.80070000E+02  0.16903E+06
 0.80119995E+02  0.69766E+05
 0.80169998E+02 -0.27249E+05
 0.80220001E+02 -0.15288E+06
 0.80269997E+02 -0.21411E+06
 0.80320000E+02 -0.19735E+06
 0.80369995E+02 -0.15249E+06
 0.80419998E+02 -0.68327E+05
 0.80470001E+02  0.18599E+05
 0.80519997E+02  0.12972E+06
 0.80570000E+02  0.23375E+06
 0.80619995E+02  0.30397E+06
 0.80669998E+02  0.34850E+06
 0.80720001E+02  0.33111E+06
 0.80769997E+02  0.25701E+06
 0.80820000E+02  0.10391E+06
 0.80869995E+02 -0.60597E+05
 0.80919998E+02 -0.19257E+06
 0.80970001E+02 -0.33303E+06
 0.81019997E+02 -0.38123E+06
 0.81070000E+02 -0.38977E+06
 0.81119995E+02 -0.34964E+06
 0.81169998E+02 -0.20460E+06
 0.81220001E+02 -0.13478E+06
 0.81269997E+02 -0.98151E+05
 0.81320000E+02 -0.64964E+05
 0.81369995E+02 -0.43657E+05
 0.81419998E+02 -0.29413E+05
 0.81470001E+02 -0.53933E+05
 0.81519997E+02 -0.91973E+05
 0.81570000E+02 -0.14900E+06
 0.81619995E+02 -0.14881E+06
 0.81669998E+02 -0.17664E+06
 0.81720001E+02 -0.33726E+06
 0.81769997E+02 -0.61048E+06
 0.81820000E+02 -0.82514E+06
 0.81869995E+02 -0.83863E+06
 0.81919998E+02 -0.69833E+06
 0.81970001E+02 -0.41369E+06
 0.82019997E+02 -0.97615E+05
 0.82070000E+02  0.21395E+06
 0.82119995E+02  0.50193E+06
 0.82169998E+02  0.68330E+06
 0.82220001E+02  0.67157E+06
 0.82269997E+02  0.43462E+06
 0.82320000E+02  0.94819E+05
 0.82369995E+02 -0.25789E+06
 0.82419998E+02 -0.45215E+06
 0.82470001E+02 -0.42161E+06
 0.82519997E+02 -0.28022E+06
 0.82570000E+02 -0.13727E+06
 0.82619995E+02 -0.70971E+05
 0.82669998E+02 -0.98430E+04
 0.82720001E+02  0.65886E+05
 0.82769997E+02  0.11829E+06
 0.82820000E+02  0.22838E+06
 0.82869995E+02  0.34698E+06
 0.82919998E+02  0.37488E+06
 0.82970001E+02  0.32079E+06
 0.83019997E+02  0.18904E+06
 0.83070000E+02  0.43684E+05
 0.83119995E+02 -0.58802E+05
 0.83169998E+02 -0.68263E+05
 0.83220001E+02 -0.42250E+04
 0.83269997E+02  0.41410E+04
 0.83320000E+02 -0.12095E+05
 0.83369995E+02  0.45803E+05
 0.83419998E+02  0.11928E+06
 0.83470001E+02  0.11110E+06
 0.83519997E+02  0.51933E+05
 0.83570000E+02 -0.10180E+04
 0.83619995E+02 -0.95884E+05
 0.83669998E+02 -0.23205E+06
 0.83720001E+02 -0.36661E+06
 0.83769997E+02 -0.50914E+06
 0.83820000E+02 -0.58139E+06
 0.83869995E+02 -0.56406E+06
 0.83919998E+02 -0.55743E+06
 0.83970001E+02 -0.51736E+06
 0.84019997E+02 -0.35235E+06
 0.84070000E+02 -0.13202E+06
 0.84119995E+02  0.23604E+05
 0.84169998E+02  0.10155E+06
 0.84220001E+02  0.81345E+05
 0.84269997E+02  0.14820E+05
 0.84320000E+02 -0.26111E+05
 0.84369995E+02 -0.12110E+06
 0.84419998E+02 -0.22441E+06
 0.84470001E+02 -0.23221E+06
 0.84519997E+02 -0.12619E+06
 0.84570000E+02  0.15322E+05
 0.84619995E+02  0.53186E+05
 0.84669998E+02  0.29005E+05
 0.84720001E+02  0.21757E+05
 0.84769997E+02 -0.98630E+04
 0.84820000E+02 -0.53934E+05
 0.84869995E+02 -0.79825E+05
 0.84919998E+02 -0.70553E+05
 0.84970001E+02  0.57993E+05
 0.85019997E+02  0.22725E+06
 0.85070000E+02  0.26678E+06
 0.85119995E+02  0.23763E+06
 0.85169998E+02  0.23088E+06
 0.85220001E+02  0.23113E+06
 0.85269997E+02  0.19498E+06
 0.85320000E+02  0.14770E+06
 0.85369995E+02  0.17250E+06
 0.85419998E+02  0.26062E+06
 0.85470001E+02  0.31155E+06
 0.85519997E+02  0.21311E+06
 0.85570000E+02  0.44000E+05
 0.85619995E+02 -0.61384E+05
 0.85669998E+02 -0.12331E+06
 0.85720001E+02 -0.14903E+06
 0.85769997E+02 -0.10039E+06
 0.85820000E+02 -0.12302E+05
 0.85869995E+02  0.95005E+05
 0.85919998E+02  0.19702E+06
 0.85970001E+02  0.18920E+06
 0.86019997E+02  0.13255E+06
 0.86070000E+02  0.12585E+06
 0.86119995E+02  0.99532E+05
 0.86169998E+02  0.15035E+05
 0.86220001E+02 -0.47108E+05
 0.86269997E+02 -0.31647E+05
 0.86320000E+02  0.18113E+05
 0.86369995E+02  0.83927E+05
 0.86419998E+02  0.99775E+05
 0.86470001E+02  0.50783E+05
 0.86519997E+02 -0.15333E+05
 0.86570000E+02 -0.11744E+06
 0.86619995E+02 -0.15827E+06
 0.86669998E+02 -0.11531E+06
 0.86720001E+02 -0.60853E+05
 0.86769997E+02  0.84000E+03
 0.86820000E+02  0.63271E+05
 0.86869995E+02  0.50602E+05
 0.86919998E+02 -0.33826E+05
 0.86970001E+02 -0.79140E+05
 0.87019997E+02 -0.11700E+06
 0.87070000E+02 -0.12265E+06
 0.87119995E+02 -0.36686E+05
 0.87169998E+02  0.47391E+05
 0.87220001E+02  0.36357E+05
 0.87269997E+02 -0.44946E+05
 0.87320000E+02 -0.86811E+05
 0.87369995E+02 -0.53515E+05
 0.87419998E+02  0.33884E+05
 0.87470001E+02  0.16178E+06
 0.87519997E+02  0.24164E+06
 0.87570000E+02  0.23354E+06
 0.87619995E+02  0.22159E+06
 0.87669998E+02  0.22320E+06
 0.87720001E+02  0.18668E+06
 0.87769997E+02  0.10893E+06
 0.87820000E+02  0.44493E+05
 0.87869995E+02  0.11530E+04
 0.87919998E+02 -0.55111E+05
 0.87970001E+02 -0.68633E+05
 0.88019997E+02 -0.51840E+04
 0.88070000E+02  0.65920E+05
 0.88119995E+02  0.10456E+06
 0.88169998E+02  0.10966E+06
 0.88220001E+02  0.91645E+05
 0.88269997E+02  0.84941E+05
 0.88320000E+02  0.11481E+06
 0.88369995E+02  0.14508E+06
 0.88419998E+02  0.15934E+06
 0.88470001E+02  0.18588E+06
 0.88519997E+02  0.19169E+06
 0.88570000E+02  0.17539E+06
 0.88619995E+02  0.14915E+06
 0.88669998E+02  0.13319E+06
 0.88720001E+02  0.15878E+06
 0.88769997E+02  0.15797E+06
 0.88820000E+02  0.96522E+05
 0.88869995E+02  0.97820E+04
 0.88919998E+02  0.12462E+05
 0.88970001E+02  0.10882E+06
 0.89019997E+02  0.15982E+06
 0.89070000E+02  0.19091E+06
 0.89119995E+02  0.22873E+06
 0.89169998E+02  0.25668E+06
 0.89220001E+02  0.25467E+06
 0.89269997E+02  0.20648E+06
 0.89320000E+02  0.12495E+06
 0.89369995E+02  0.28867E+05
 0.89419998E+02  0.16050E+05
 0.89470001E+02  0.51807E+05
 0.89519997E+02  0.64745E+05
 0.89570000E+02  0.88991E+05
 0.89619995E+02  0.12548E+06
 0.89669998E+02  0.16191E+06
 0.89720001E+02  0.15987E+06
 0.89769997E+02  0.88262E+05
 0.89820000E+02 -0.39426E+05
 0.89869995E+02 -0.16829E+06
 0.89919998E+02 -0.27348E+06
 0.89970001E+02 -0.35606E+06
 0.90019997E+02 -0.35091E+06
 0.90070000E+02 -0.29835E+06
 0.90119995E+02 -0.25729E+06
 0.90169998E+02 -0.16762E+06
 0.90220001E+02 -0.94287E+05
 0.90269997E+02 -0.90288E+05
 0.90320000E+02 -0.17977E+06
 0.90369995E+02 -0.34102E+06
 0.90419998E+02 -0.42501E+06
 0.90470001E+02 -0.40576E+06
 0.90519997E+02 -0.32654E+06
 0.90570000E+02 -0.27326E+06
 0.90619995E+02 -0.24408E+06
 0.90669998E+02 -0.18294E+06
 0.90720001E+02 -0.17033E+06
 0.90769997E+02 -0.24407E+06
 0.90820000E+02 -0.35254E+06
 0.90869995E+02 -0.42769E+06
 0.90919998E+02 -0.42854E+06
 0.90970001E+02 -0.36529E+06
 0.91019997E+02 -0.27526E+06
 0.91070000E+02 -0.16052E+06
 0.91119995E+02  0.22780E+04
 0.91169998E+02  0.10972E+06
 0.91220001E+02  0.35948E+05
 0.91269997E+02 -0.10628E+06
 0.91320000E+02 -0.18581E+06
 0.91369995E+02 -0.23447E+06
 0.91419998E+02 -0.29865E+06
 0.91470001E+02 -0.37226E+06
 0.91519997E+02 -0.38023E+06
 0.91570000E+02 -0.31789E+06
 0.91619995E+02 -0.22805E+06
 0.91669998E+02 -0.11648E+06
 0.91720001E+02 -0.23970E+05
 0.91769997E+02  0.12140E+04
 0.91820000E+02 -0.20467E+05
 0.91869995E+02 -0.12551E+05
 0.91919998E+02  0.27884E+05
 0.91970001E+02  0.86739E+05
 0.92019997E+02  0.15792E+06
 0.92070000E+02  0.15802E+06
 0.92119995E+02  0.26368E+05
 0.92169998E+02 -0.18071E+06
 0.92220001E+02 -0.36396E+06
 0.92269997E+02 -0.40026E+06
 0.92320000E+02 -0.30294E+06
 0.92369995E+02 -0.17386E+06
 0.92419998E+02  0.39921E+05
 0.92470001E+02  0.25900E+06
 0.92519997E+02  0.34043E+06
 0.92570000E+02  0.28076E+06
 0.92619995E+02  0.12236E+06
 0.92669998E+02  0.16436E+05
 0.92720001E+02  0.31180E+04
 0.92769997E+02 -0.53565E+05
 0.92820000E+02 -0.11426E+06
 0.92869995E+02 -0.12558E+06
 0.92919998E+02 -0.13946E+06
 0.92970001E+02 -0.10943E+06
 0.93019997E+02 -0.46582E+05
 0.93070000E+02 -0.17410E+05
 0.93119995E+02 -0.14133E+05
 0.93169998E+02 -0.10028E+05
 0.93220001E+02 -0.33619E+05
 0.93269997E+02 -0.91099E+05
 0.93320000E+02 -0.17594E+06
 0.93369995E+02 -0.25164E+06
 0.93419998E+02 -0.23639E+06
 0.93470001E+02 -0.19743E+06
 0.93519997E+02 -0.77762E+05
 0.93570000E+02  0.18423E+06
 0.93619995E+02  0.40409E+06
 0.93669998E+02  0.46862E+06
 0.93720001E+02  0.30882E+06
 0.93769997E+02  0.39202E+05
 0.93820000E+02 -0.95816E+05
 0.93869995E+02 -0.85538E+05
 0.93919998E+02  0.16310E+04
 0.93970001E+02  0.10995E+06
 0.94019997E+02  0.13276E+06
 0.94070000E+02  0.42769E+05
 0.94119995E+02 -0.10526E+06
 0.94169998E+02 -0.23710E+06
 0.94220001E+02 -0.21802E+06
 0.94269997E+02 -0.41893E+05
 0.94320000E+02  0.13603E+06
 0.94369995E+02  0.22293E+06
 0.94419998E+02  0.16620E+06
 0.94470001E+02  0.36526E+05
 0.94519997E+02 -0.27592E+05
 0.94570000E+02 -0.10502E+05
 0.94619995E+02  0.63295E+05
 0.94669998E+02  0.99915E+05
 0.94720001E+02  0.23263E+05
 0.94769997E+02 -0.11843E+06
 0.94820000E+02 -0.22869E+06
 0.94869995E+02 -0.31611E+06
 0.94919998E+02 -0.43128E+06
 0.94970001E+02 -0.41840E+06
 0.95019997E+02 -0.21712E+06
 0.95070000E+02 -0.41952E+05
 0.95119995E+02 -0.11178E+05
 0.95169998E+02 -0.70158E+05
 0.95220001E+02 -0.14404E+06
 0.95269997E+02 -0.16890E+06
 0.95320000E+02 -0.13943E+06
 0.95369995E+02 -0.57152E+05
 0.95419998E+02  0.15748E+06
 0.95470001E+02  0.44182E+06
 0.95519997E+02  0.60850E+06
 0.95570000E+02  0.62672E+06
 0.95619995E+02  0.51634E+06
 0.95669998E+02  0.30192E+06
 0.95720001E+02  0.91672E+05
 0.95769997E+02  0.36170E+04
 0.95820000E+02  0.29668E+05
 0.95869995E+02  0.92604E+05
 0.95919998E+02  0.18103E+06
 0.95970001E+02  0.28788E+06
 0.96019997E+02  0.38870E+06
 0.96070000E+02  0.42903E+06
 0.96119995E+02  0.39684E+06
 0.96169998E+02  0.33442E+06
 0.96220001E+02  0.27026E+06
 0.96269997E+02  0.23617E+06
 0.96320000E+02  0.21224E+06
 0.96369995E+02  0.16412E+06
 0.96419998E+02  0.13188E+06
 0.96470001E+02  0.19110E+06
 0.96519997E+02  0.32344E+06
 0.96570000E+02  0.39842E+06
 0.96619995E+02  0.37954E+06
 0.96669998E+02  0.34494E+06
 0.96720001E+02  0.28959E+06
 0.96769997E+02  0.24235E+06
 0.96820000E+02  0.22489E+06
 0.96869995E+02  0.18521E+06
 0.96919998E+02  0.12843E+06
 0.96970001E+02  0.17735E+05
 0.97019997E+02 -0.13608E+06
 0.97070000E+02 -0.25067E+06
 0.97119995E+02 -0.28140E+06
 0.97169998E+02 -0.23953E+06
 0.97220001E+02 -0.10992E+06
 0.97269997E+02  0.94908E+05
 0.97320000E+02  0.26873E+06
 0.97369995E+02  0.35542E+06
 0.97419998E+02  0.32681E+06
 0.97470001E+02  0.21723E+06
 0.97519997E+02  0.11536E+06
 0.97570000E+02  0.97720E+05
 0.97619995E+02  0.14086E+06
 0.97669998E+02  0.12072E+06
 0.97720001E+02 -0.36334E+05
 0.97769997E+02 -0.27216E+06
 0.97820000E+02 -0.42864E+06
 0.97869995E+02 -0.48069E+06
 0.97919998E+02 -0.45333E+06
 0.97970001E+02 -0.36730E+06
 0.98019997E+02 -0.29484E+06
