-0.20000000E+01  0.58879E+05
-0.19500000E+01  0.59022E+05
-0.19000000E+01  0.58124E+05
-0.18500000E+01  0.56204E+05
-0.18000000E+01  0.53224E+05
-0.17500000E+01  0.49678E+05
-0.17000000E+01  0.45541E+05
-0.16500001E+01  0.40783E+05
-0.16000000E+01  0.35304E+05
-0.15500000E+01  0.28743E+05
-0.15000000E+01  0.22030E+05
-0.14500000E+01  0.14898E+05
-0.14000001E+01  0.79882E+04
-0.13500000E+01  0.17765E+04
-0.13000001E+01 -0.35624E+04
-0.12500000E+01 -0.83615E+04
-0.12000000E+01 -0.12959E+05
-0.11500001E+01 -0.16752E+05
-0.11000000E+01 -0.20235E+05
-0.10500001E+01 -0.23421E+05
-0.10000000E+01 -0.26647E+05
-0.95000005E+00 -0.29683E+05
-0.90000010E+00 -0.32076E+05
-0.85000002E+00 -0.34565E+05
-0.80000007E+00 -0.36586E+05
-0.75000012E+00 -0.38192E+05
-0.70000005E+00 -0.39776E+05
-0.65000010E+00 -0.41546E+05
-0.60000014E+00 -0.43439E+05
-0.55000007E+00 -0.45414E+05
-0.50000012E+00 -0.47990E+05
-0.45000005E+00 -0.50773E+05
-0.40000010E+00 -0.53487E+05
-0.35000014E+00 -0.55598E+05
-0.30000007E+00 -0.57344E+05
-0.25000012E+00 -0.58641E+05
-0.20000005E+00 -0.58685E+05
-0.15000010E+00 -0.57151E+05
-0.10000014E+00 -0.55168E+05
-0.50000072E-01 -0.52514E+05
-0.11920929E-06 -0.48861E+05
 0.49999952E-01 -0.44961E+05
 0.99999905E-01 -0.40107E+05
 0.14999986E+00 -0.34929E+05
 0.19999981E+00 -0.29248E+05
 0.24999976E+00 -0.23044E+05
 0.29999995E+00 -0.16635E+05
 0.34999990E+00 -0.10219E+05
 0.39999986E+00 -0.35687E+04
 0.44999981E+00  0.32109E+04
 0.49999976E+00  0.97956E+04
 0.54999995E+00  0.16797E+05
 0.59999990E+00  0.23709E+05
 0.64999986E+00  0.29726E+05
 0.69999981E+00  0.35208E+05
 0.74999976E+00  0.39796E+05
 0.79999971E+00  0.43138E+05
 0.84999990E+00  0.46221E+05
 0.89999986E+00  0.48087E+05
 0.94999981E+00  0.48722E+05
 0.99999976E+00  0.48370E+05
 0.10499997E+01  0.46443E+05
 0.10999999E+01  0.43304E+05
 0.11499999E+01  0.39460E+05
 0.11999998E+01  0.34820E+05
 0.12499998E+01  0.29397E+05
 0.12999997E+01  0.23835E+05
 0.13499999E+01  0.18211E+05
 0.13999999E+01  0.12465E+05
 0.14499998E+01  0.73349E+04
 0.14999998E+01  0.22286E+04
 0.15499997E+01 -0.27655E+04
 0.15999999E+01 -0.69567E+04
 0.16499999E+01 -0.11032E+05
 0.16999998E+01 -0.14854E+05
 0.17499998E+01 -0.18058E+05
 0.17999997E+01 -0.21111E+05
 0.18499997E+01 -0.24082E+05
 0.18999999E+01 -0.26922E+05
 0.19499998E+01 -0.30035E+05
 0.19999998E+01 -0.32744E+05
 0.20499997E+01 -0.34726E+05
 0.20999999E+01 -0.36649E+05
 0.21499996E+01 -0.38308E+05
 0.21999998E+01 -0.39012E+05
 0.22499995E+01 -0.39194E+05
 0.22999997E+01 -0.38411E+05
 0.23499999E+01 -0.36199E+05
 0.23999996E+01 -0.33608E+05
 0.24499998E+01 -0.30524E+05
 0.24999995E+01 -0.26758E+05
 0.25499997E+01 -0.22766E+05
 0.25999999E+01 -0.18175E+05
 0.26499996E+01 -0.12781E+05
 0.26999998E+01 -0.72564E+04
 0.27499995E+01 -0.19063E+04
 0.27999997E+01  0.34609E+04
 0.28499999E+01  0.84675E+04
 0.28999996E+01  0.13654E+05
 0.29499998E+01  0.19272E+05
 0.29999995E+01  0.24455E+05
 0.30499997E+01  0.29208E+05
 0.30999999E+01  0.34083E+05
 0.31499996E+01  0.38018E+05
 0.31999998E+01  0.41138E+05
 0.32499995E+01  0.43888E+05
 0.32999997E+01  0.45241E+05
 0.33499999E+01  0.46252E+05
 0.33999996E+01  0.47199E+05
 0.34499998E+01  0.47284E+05
 0.34999995E+01  0.47125E+05
 0.35499997E+01  0.46888E+05
 0.35999994E+01  0.46137E+05
 0.36499996E+01  0.45008E+05
 0.36999998E+01  0.43939E+05
 0.37499995E+01  0.42460E+05
 0.37999997E+01  0.40884E+05
 0.38499994E+01  0.39278E+05
 0.38999996E+01  0.36716E+05
 0.39499998E+01  0.33717E+05
 0.39999995E+01  0.30351E+05
 0.40499997E+01  0.26247E+05
 0.40999994E+01  0.21720E+05
 0.41499996E+01  0.17007E+05
 0.41999998E+01  0.11549E+05
 0.42499995E+01  0.64462E+04
 0.42999997E+01  0.17118E+04
 0.43499994E+01 -0.33146E+04
 0.43999996E+01 -0.81648E+04
 0.44499998E+01 -0.13287E+05
 0.44999995E+01 -0.18826E+05
 0.45499997E+01 -0.24260E+05
 0.45999994E+01 -0.29153E+05
 0.46499996E+01 -0.33581E+05
 0.46999998E+01 -0.36589E+05
 0.47499995E+01 -0.37946E+05
 0.47999997E+01 -0.38455E+05
 0.48499994E+01 -0.37423E+05
 0.48999996E+01 -0.35264E+05
 0.49499998E+01 -0.32531E+05
 0.49999995E+01 -0.29176E+05
 0.50499997E+01 -0.26598E+05
 0.50999994E+01 -0.24554E+05
 0.51499996E+01 -0.22469E+05
 0.51999998E+01 -0.21411E+05
 0.52499995E+01 -0.20738E+05
 0.52999997E+01 -0.20023E+05
 0.53499994E+01 -0.19730E+05
 0.53999996E+01 -0.19176E+05
 0.54499993E+01 -0.18331E+05
 0.54999995E+01 -0.17605E+05
 0.55499997E+01 -0.17348E+05
 0.55999994E+01 -0.17086E+05
 0.56499996E+01 -0.16147E+05
 0.56999993E+01 -0.15149E+05
 0.57499995E+01 -0.14361E+05
 0.57999997E+01 -0.13767E+05
 0.58499994E+01 -0.13270E+05
 0.58999996E+01 -0.12357E+05
 0.59499993E+01 -0.11776E+05
 0.59999995E+01 -0.11384E+05
 0.60499992E+01 -0.11508E+05
 0.60999994E+01 -0.12171E+05
 0.61499996E+01 -0.12875E+05
 0.61999998E+01 -0.13936E+05
 0.62499990E+01 -0.15137E+05
 0.62999992E+01 -0.16435E+05
 0.63499994E+01 -0.17235E+05
 0.63999996E+01 -0.17638E+05
 0.64499998E+01 -0.17848E+05
 0.64999990E+01 -0.17260E+05
 0.65499992E+01 -0.16114E+05
 0.65999994E+01 -0.14098E+05
 0.66499996E+01 -0.11283E+05
 0.66999998E+01 -0.79935E+04
 0.67499990E+01 -0.42400E+04
 0.67999992E+01 -0.99625E+02
 0.68499994E+01  0.44980E+04
 0.68999996E+01  0.86130E+04
 0.69499998E+01  0.11976E+05
 0.69999990E+01  0.15048E+05
 0.70499992E+01  0.17731E+05
 0.70999994E+01  0.20490E+05
 0.71499996E+01  0.22742E+05
 0.71999998E+01  0.24412E+05
 0.72499990E+01  0.26240E+05
 0.72999992E+01  0.27564E+05
 0.73499994E+01  0.28399E+05
 0.73999996E+01  0.28729E+05
 0.74499998E+01  0.28827E+05
 0.74999990E+01  0.28602E+05
 0.75499992E+01  0.28562E+05
 0.75999994E+01  0.28754E+05
 0.76499996E+01  0.28781E+05
 0.76999998E+01  0.29054E+05
 0.77499990E+01  0.29592E+05
 0.77999992E+01  0.30307E+05
 0.78499994E+01  0.31110E+05
 0.78999996E+01  0.31222E+05
 0.79499998E+01  0.30725E+05
 0.79999990E+01  0.30155E+05
 0.80499992E+01  0.29060E+05
 0.80999994E+01  0.28245E+05
 0.81499996E+01  0.27605E+05
 0.81999998E+01  0.26472E+05
 0.82499990E+01  0.25012E+05
 0.82999992E+01  0.23365E+05
 0.83499994E+01  0.21613E+05
 0.83999996E+01  0.19677E+05
 0.84499998E+01  0.17473E+05
 0.84999990E+01  0.15202E+05
 0.85499992E+01  0.13011E+05
 0.85999994E+01  0.10680E+05
 0.86499996E+01  0.82948E+04
 0.86999998E+01  0.51891E+04
 0.87499990E+01  0.13932E+04
 0.87999992E+01 -0.27909E+04
 0.88499994E+01 -0.70543E+04
 0.88999996E+01 -0.10795E+05
 0.89499998E+01 -0.14508E+05
 0.89999990E+01 -0.17908E+05
 0.90499992E+01 -0.20934E+05
 0.90999994E+01 -0.23927E+05
 0.91499996E+01 -0.26549E+05
 0.91999989E+01 -0.29255E+05
 0.92499990E+01 -0.31986E+05
 0.92999992E+01 -0.34508E+05
 0.93499994E+01 -0.36861E+05
 0.93999996E+01 -0.38780E+05
 0.94499989E+01 -0.40749E+05
 0.94999990E+01 -0.42787E+05
 0.95499992E+01 -0.44366E+05
 0.95999994E+01 -0.45111E+05
 0.96499996E+01 -0.45069E+05
 0.96999989E+01 -0.44246E+05
 0.97499990E+01 -0.42778E+05
 0.97999992E+01 -0.41162E+05
 0.98499994E+01 -0.38708E+05
 0.98999996E+01 -0.35276E+05
 0.99499989E+01 -0.30817E+05
 0.99999990E+01 -0.25534E+05
 0.10049999E+02 -0.20335E+05
 0.10099999E+02 -0.14678E+05
 0.10150000E+02 -0.89300E+04
 0.10199999E+02 -0.34736E+04
 0.10249999E+02  0.25084E+04
 0.10299999E+02  0.85614E+04
 0.10349999E+02  0.14672E+05
 0.10400000E+02  0.21308E+05
 0.10449999E+02  0.28019E+05
 0.10499999E+02  0.34160E+05
 0.10549999E+02  0.39263E+05
 0.10599999E+02  0.43169E+05
 0.10650000E+02  0.45964E+05
 0.10699999E+02  0.47490E+05
 0.10749999E+02  0.47790E+05
 0.10799999E+02  0.47408E+05
 0.10849999E+02  0.46189E+05
 0.10900000E+02  0.44076E+05
 0.10949999E+02  0.40860E+05
 0.10999999E+02  0.36804E+05
 0.11049999E+02  0.32099E+05
 0.11099999E+02  0.27054E+05
 0.11150000E+02  0.22275E+05
 0.11199999E+02  0.17971E+05
 0.11249999E+02  0.13459E+05
 0.11299999E+02  0.92196E+04
 0.11349999E+02  0.47338E+04
 0.11400000E+02  0.10125E+03
 0.11449999E+02 -0.36945E+04
 0.11499999E+02 -0.75428E+04
 0.11549999E+02 -0.11460E+05
 0.11599999E+02 -0.15005E+05
 0.11650000E+02 -0.17986E+05
 0.11699999E+02 -0.21488E+05
 0.11749999E+02 -0.24002E+05
 0.11799999E+02 -0.26308E+05
 0.11849999E+02 -0.28446E+05
 0.11900000E+02 -0.29382E+05
 0.11949999E+02 -0.29105E+05
 0.11999999E+02 -0.28251E+05
 0.12049999E+02 -0.26908E+05
 0.12099999E+02 -0.25161E+05
 0.12150000E+02 -0.23427E+05
 0.12199999E+02 -0.20513E+05
 0.12249999E+02 -0.17129E+05
 0.12299999E+02 -0.13539E+05
 0.12349999E+02 -0.98790E+04
 0.12400000E+02 -0.56752E+04
 0.12449999E+02 -0.18717E+04
 0.12499999E+02  0.20634E+04
 0.12549999E+02  0.50763E+04
 0.12599999E+02  0.70595E+04
 0.12649999E+02  0.92348E+04
 0.12699999E+02  0.10851E+05
 0.12749999E+02  0.12169E+05
 0.12799999E+02  0.13318E+05
 0.12849999E+02  0.14130E+05
 0.12899999E+02  0.14128E+05
 0.12949999E+02  0.14495E+05
 0.12999999E+02  0.14198E+05
 0.13049999E+02  0.13685E+05
 0.13099999E+02  0.13120E+05
 0.13149999E+02  0.11958E+05
 0.13199999E+02  0.11136E+05
 0.13249999E+02  0.10446E+05
 0.13299999E+02  0.98824E+04
 0.13349999E+02  0.89352E+04
 0.13399999E+02  0.76925E+04
 0.13449999E+02  0.52297E+04
 0.13499999E+02  0.24674E+04
 0.13549999E+02 -0.48959E+03
 0.13599999E+02 -0.37148E+04
 0.13649999E+02 -0.64654E+04
 0.13699999E+02 -0.92096E+04
 0.13749999E+02 -0.11505E+05
 0.13799999E+02 -0.13647E+05
 0.13849999E+02 -0.15405E+05
 0.13899999E+02 -0.17426E+05
 0.13949999E+02 -0.19023E+05
 0.13999999E+02 -0.19854E+05
 0.14049999E+02 -0.20607E+05
 0.14099998E+02 -0.20868E+05
 0.14150000E+02 -0.20674E+05
 0.14199999E+02 -0.20558E+05
 0.14249998E+02 -0.20183E+05
 0.14299999E+02 -0.19302E+05
 0.14349998E+02 -0.18456E+05
 0.14400000E+02 -0.17340E+05
 0.14449999E+02 -0.16587E+05
 0.14499998E+02 -0.16095E+05
 0.14549999E+02 -0.15611E+05
 0.14599998E+02 -0.14822E+05
 0.14650000E+02 -0.14023E+05
 0.14699999E+02 -0.12752E+05
 0.14749998E+02 -0.11415E+05
 0.14799999E+02 -0.10620E+05
 0.14849998E+02 -0.95471E+04
 0.14900000E+02 -0.82604E+04
 0.14949999E+02 -0.70231E+04
 0.14999998E+02 -0.52641E+04
 0.15049999E+02 -0.32170E+04
 0.15099998E+02 -0.16620E+04
 0.15150000E+02  0.77457E+02
 0.15199999E+02  0.16047E+04
 0.15249998E+02  0.26379E+04
 0.15299999E+02  0.34830E+04
 0.15349998E+02  0.43920E+04
 0.15400000E+02  0.47182E+04
 0.15449999E+02  0.52167E+04
 0.15499998E+02  0.59079E+04
 0.15549999E+02  0.66562E+04
 0.15599998E+02  0.78406E+04
 0.15650000E+02  0.85955E+04
 0.15699999E+02  0.87991E+04
 0.15749998E+02  0.89692E+04
 0.15799999E+02  0.95718E+04
 0.15849998E+02  0.10217E+05
 0.15900000E+02  0.10973E+05
 0.15949999E+02  0.11554E+05
 0.15999998E+02  0.11490E+05
 0.16049999E+02  0.11923E+05
 0.16099998E+02  0.12114E+05
 0.16150000E+02  0.11862E+05
 0.16199999E+02  0.11624E+05
 0.16249998E+02  0.10971E+05
 0.16299999E+02  0.10756E+05
 0.16349998E+02  0.11025E+05
 0.16400000E+02  0.11443E+05
 0.16449999E+02  0.11814E+05
 0.16499998E+02  0.12984E+05
 0.16549999E+02  0.14524E+05
 0.16599998E+02  0.15819E+05
 0.16650000E+02  0.17386E+05
 0.16699999E+02  0.19018E+05
 0.16749998E+02  0.20737E+05
 0.16799999E+02  0.22510E+05
 0.16849998E+02  0.24225E+05
 0.16900000E+02  0.25874E+05
 0.16949999E+02  0.27611E+05
 0.16999998E+02  0.28453E+05
 0.17049999E+02  0.28051E+05
 0.17099998E+02  0.26912E+05
 0.17150000E+02  0.25138E+05
 0.17199999E+02  0.22506E+05
 0.17249998E+02  0.19388E+05
 0.17299999E+02  0.16319E+05
 0.17349998E+02  0.12906E+05
 0.17400000E+02  0.96113E+04
 0.17449999E+02  0.63076E+04
 0.17499998E+02  0.31349E+04
 0.17549999E+02  0.77184E+03
 0.17599998E+02 -0.16600E+04
 0.17650000E+02 -0.39155E+04
 0.17699999E+02 -0.54831E+04
 0.17749998E+02 -0.74245E+04
 0.17799999E+02 -0.96341E+04
 0.17849998E+02 -0.11754E+05
 0.17900000E+02 -0.13466E+05
 0.17949999E+02 -0.14956E+05
 0.17999998E+02 -0.16027E+05
 0.18049999E+02 -0.16971E+05
 0.18099998E+02 -0.17943E+05
 0.18150000E+02 -0.18272E+05
 0.18199999E+02 -0.18870E+05
 0.18249998E+02 -0.19515E+05
 0.18299999E+02 -0.19541E+05
 0.18349998E+02 -0.19542E+05
 0.18400000E+02 -0.19274E+05
 0.18449999E+02 -0.18933E+05
 0.18499998E+02 -0.18241E+05
 0.18549999E+02 -0.16956E+05
 0.18599998E+02 -0.16055E+05
 0.18650000E+02 -0.14452E+05
 0.18699999E+02 -0.12469E+05
 0.18749998E+02 -0.99156E+04
 0.18799999E+02 -0.67707E+04
 0.18849998E+02 -0.32714E+04
 0.18900000E+02  0.71285E+03
 0.18949999E+02  0.45511E+04
 0.18999998E+02  0.84331E+04
 0.19049999E+02  0.11975E+05
 0.19099998E+02  0.14780E+05
 0.19150000E+02  0.16545E+05
 0.19199999E+02  0.17415E+05
 0.19249998E+02  0.16826E+05
 0.19299999E+02  0.15266E+05
 0.19349998E+02  0.13235E+05
 0.19400000E+02  0.10873E+05
 0.19449999E+02  0.83088E+04
 0.19499998E+02  0.55083E+04
 0.19549999E+02  0.25423E+04
 0.19599998E+02 -0.81168E+03
 0.19650000E+02 -0.41524E+04
 0.19699999E+02 -0.70818E+04
 0.19749998E+02 -0.97933E+04
 0.19799999E+02 -0.11783E+05
 0.19849998E+02 -0.13329E+05
 0.19900000E+02 -0.14271E+05
 0.19949999E+02 -0.14386E+05
 0.19999998E+02 -0.14483E+05
 0.20049999E+02 -0.14122E+05
 0.20099998E+02 -0.13158E+05
 0.20150000E+02 -0.11585E+05
 0.20199999E+02 -0.10061E+05
 0.20249998E+02 -0.82539E+04
 0.20299999E+02 -0.63253E+04
 0.20349998E+02 -0.45597E+04
 0.20399998E+02 -0.28452E+04
 0.20449999E+02 -0.96010E+03
 0.20499998E+02  0.13219E+04
 0.20549999E+02  0.36867E+04
 0.20599998E+02  0.63132E+04
 0.20649998E+02  0.89098E+04
 0.20699999E+02  0.11540E+05
 0.20749998E+02  0.13963E+05
 0.20799999E+02  0.15870E+05
 0.20849998E+02  0.17176E+05
 0.20899998E+02  0.18067E+05
 0.20949999E+02  0.18415E+05
 0.20999998E+02  0.18249E+05
 0.21049999E+02  0.17838E+05
 0.21099998E+02  0.17172E+05
 0.21149998E+02  0.16420E+05
 0.21199999E+02  0.14859E+05
 0.21249998E+02  0.12435E+05
 0.21299999E+02  0.99058E+04
 0.21349998E+02  0.71617E+04
 0.21399998E+02  0.40900E+04
 0.21449999E+02  0.11097E+04
 0.21499998E+02 -0.15388E+04
 0.21549999E+02 -0.41454E+04
 0.21599998E+02 -0.68363E+04
 0.21649998E+02 -0.93983E+04
 0.21699999E+02 -0.11448E+05
 0.21749998E+02 -0.12311E+05
 0.21799999E+02 -0.12022E+05
 0.21849998E+02 -0.12188E+05
 0.21899998E+02 -0.12015E+05
 0.21949999E+02 -0.11846E+05
 0.21999998E+02 -0.11703E+05
 0.22049999E+02 -0.12370E+05
 0.22099998E+02 -0.14924E+05
 0.22149998E+02 -0.18708E+05
 0.22199999E+02 -0.23044E+05
 0.22249998E+02 -0.29972E+05
 0.22299999E+02 -0.39534E+05
 0.22349998E+02 -0.51728E+05
 0.22399998E+02 -0.67112E+05
 0.22449999E+02 -0.85472E+05
 0.22499998E+02 -0.10468E+06
 0.22549999E+02 -0.10382E+06
 0.22599998E+02 -0.62041E+05
 0.22649998E+02 -0.82353E+04
 0.22699999E+02 -0.22230E+05
 0.22749998E+02 -0.13412E+06
 0.22799999E+02 -0.27505E+06
 0.22849998E+02 -0.31855E+06
 0.22899998E+02 -0.23316E+06
 0.22949999E+02 -0.16836E+06
 0.22999998E+02 -0.23544E+06
 0.23049999E+02 -0.37223E+06
 0.23099998E+02 -0.43755E+06
 0.23149998E+02 -0.43218E+06
 0.23199999E+02 -0.50377E+06
 0.23249998E+02 -0.48372E+06
 0.23299999E+02 -0.22427E+06
 0.23349998E+02  0.13802E+06
 0.23399998E+02  0.34452E+06
 0.23449999E+02  0.71610E+05
 0.23499998E+02 -0.30188E+06
 0.23549999E+02 -0.19237E+06
 0.23599998E+02  0.22266E+06
 0.23649998E+02  0.60961E+06
 0.23699999E+02  0.77109E+06
 0.23749998E+02  0.39732E+06
 0.23799999E+02 -0.24629E+05
 0.23849998E+02  0.46023E+05
 0.23899998E+02  0.22930E+06
 0.23949999E+02  0.43663E+06
 0.23999998E+02  0.53208E+06
 0.24049999E+02  0.41138E+06
 0.24099998E+02  0.30047E+06
 0.24149998E+02  0.33925E+06
 0.24199999E+02  0.27263E+06
 0.24249998E+02  0.18908E+06
 0.24299999E+02  0.30877E+06
 0.24349998E+02  0.44615E+06
 0.24399998E+02  0.49094E+06
 0.24449999E+02  0.39942E+06
 0.24499998E+02  0.16486E+06
 0.24549999E+02 -0.13263E+06
 0.24599998E+02 -0.14276E+06
 0.24649998E+02  0.40496E+05
 0.24699999E+02  0.61964E+05
 0.24749998E+02 -0.62227E+05
 0.24799999E+02 -0.28305E+06
 0.24849998E+02 -0.51497E+06
 0.24899998E+02 -0.35489E+06
 0.24949999E+02 -0.64119E+05
 0.24999998E+02 -0.15270E+06
 0.25049999E+02 -0.46814E+06
 0.25099998E+02 -0.65716E+06
 0.25149998E+02 -0.51980E+06
 0.25199999E+02 -0.10907E+06
 0.25249998E+02  0.13282E+06
 0.25299999E+02  0.67073E+03
 0.25349998E+02 -0.15582E+06
 0.25399998E+02 -0.25782E+06
 0.25449999E+02 -0.21562E+06
 0.25499998E+02 -0.41751E+05
 0.25549999E+02  0.52112E+05
 0.25599998E+02  0.12807E+06
 0.25649998E+02  0.14735E+06
 0.25699999E+02  0.69285E+04
 0.25749998E+02 -0.19942E+06
 0.25799999E+02 -0.31467E+06
 0.25849998E+02 -0.34954E+06
 0.25899998E+02 -0.24557E+06
 0.25949999E+02 -0.14825E+06
 0.25999998E+02 -0.12077E+06
 0.26049999E+02 -0.23179E+05
 0.26099998E+02  0.38920E+05
 0.26149998E+02  0.95716E+05
 0.26199999E+02  0.18194E+06
 0.26249998E+02  0.18050E+06
 0.26299999E+02  0.34447E+06
 0.26349998E+02  0.41387E+06
 0.26399998E+02  0.32316E+06
 0.26449999E+02  0.43372E+06
 0.26499998E+02  0.36630E+06
 0.26549999E+02  0.20059E+06
 0.26599998E+02  0.10513E+06
 0.26649998E+02 -0.80490E+05
 0.26699999E+02 -0.13981E+06
 0.26749998E+02 -0.30342E+05
 0.26799999E+02 -0.45613E+05
 0.26849998E+02 -0.71507E+05
 0.26899998E+02 -0.39024E+04
 0.26949999E+02  0.18824E+06
 0.26999998E+02  0.21851E+06
 0.27049997E+02  0.79382E+05
 0.27099998E+02  0.13195E+06
 0.27149998E+02  0.26505E+06
 0.27199999E+02  0.35981E+06
 0.27249998E+02  0.38809E+06
 0.27299997E+02  0.36953E+06
 0.27349998E+02  0.30005E+06
 0.27399998E+02  0.22019E+06
 0.27449999E+02  0.94444E+05
 0.27499998E+02 -0.79139E+05
 0.27549997E+02 -0.84024E+05
 0.27599998E+02 -0.11617E+06
 0.27649998E+02 -0.74818E+05
 0.27699999E+02 -0.11508E+04
 0.27749998E+02 -0.28209E+06
 0.27799997E+02 -0.46469E+06
 0.27849998E+02 -0.57891E+06
 0.27899998E+02 -0.53631E+06
 0.27949999E+02 -0.34327E+06
 0.27999998E+02 -0.45198E+06
 0.28049997E+02 -0.67201E+06
 0.28099998E+02 -0.73949E+06
 0.28149998E+02 -0.65154E+06
 0.28199999E+02 -0.58432E+06
 0.28249998E+02 -0.55098E+06
 0.28299997E+02 -0.45684E+06
 0.28349998E+02 -0.27642E+06
 0.28399998E+02 -0.11159E+06
 0.28449999E+02 -0.48953E+05
 0.28499998E+02  0.14593E+05
 0.28549997E+02  0.18869E+06
 0.28599998E+02  0.27260E+06
 0.28649998E+02  0.37068E+06
 0.28699999E+02  0.53950E+06
 0.28749998E+02  0.68775E+06
 0.28799997E+02  0.86497E+06
 0.28849998E+02  0.90033E+06
 0.28899998E+02  0.81331E+06
 0.28949999E+02  0.72205E+06
 0.28999998E+02  0.69768E+06
 0.29049997E+02  0.65719E+06
 0.29099998E+02  0.53983E+06
 0.29149998E+02  0.47350E+06
 0.29199999E+02  0.27892E+06
 0.29249998E+02 -0.44635E+05
 0.29299997E+02 -0.25382E+06
 0.29349998E+02 -0.40551E+06
 0.29399998E+02 -0.46208E+06
 0.29449999E+02 -0.48511E+06
 0.29499998E+02 -0.61210E+06
 0.29549997E+02 -0.75783E+06
 0.29599998E+02 -0.90335E+06
 0.29649998E+02 -0.92023E+06
 0.29699999E+02 -0.72517E+06
 0.29749998E+02 -0.63178E+06
 0.29799997E+02 -0.63224E+06
 0.29849998E+02 -0.52119E+06
 0.29899998E+02 -0.33806E+06
 0.29949999E+02 -0.12550E+06
 0.29999998E+02  0.15291E+06
 0.30049999E+02  0.36809E+06
 0.30099998E+02  0.51016E+06
 0.30149998E+02  0.80415E+06
 0.30199997E+02  0.11106E+07
 0.30249996E+02  0.12310E+07
 0.30299999E+02  0.13128E+07
 0.30349998E+02  0.13552E+07
 0.30399998E+02  0.13734E+07
 0.30449997E+02  0.14368E+07
 0.30499996E+02  0.14618E+07
 0.30549999E+02  0.14004E+07
 0.30599998E+02  0.13030E+07
 0.30649998E+02  0.11176E+07
 0.30699997E+02  0.83838E+06
 0.30749996E+02  0.62440E+06
 0.30799999E+02  0.49732E+06
 0.30849998E+02  0.41509E+06
 0.30899998E+02  0.26676E+06
 0.30949997E+02 -0.22525E+05
 0.30999996E+02 -0.33981E+06
 0.31049999E+02 -0.47422E+06
 0.31099998E+02 -0.48486E+06
 0.31149998E+02 -0.41730E+06
 0.31199997E+02 -0.35750E+06
 0.31249996E+02 -0.37952E+06
 0.31299999E+02 -0.44344E+06
 0.31349998E+02 -0.54159E+06
 0.31399998E+02 -0.40989E+06
 0.31449997E+02 -0.19908E+06
 0.31499996E+02 -0.15554E+06
 0.31549999E+02 -0.15274E+06
 0.31599998E+02 -0.16216E+06
 0.31649998E+02 -0.88036E+05
 0.31699997E+02 -0.24222E+05
 0.31749996E+02 -0.91906E+05
 0.31799999E+02 -0.12214E+06
 0.31849998E+02 -0.29395E+05
 0.31899998E+02 -0.25946E+04
 0.31949997E+02  0.37558E+05
 0.31999996E+02  0.91084E+05
 0.32049999E+02  0.73845E+05
 0.32099998E+02  0.11035E+06
 0.32149998E+02  0.43036E+05
 0.32199997E+02 -0.11758E+06
 0.32249996E+02 -0.22589E+06
 0.32299999E+02 -0.23691E+06
 0.32349998E+02 -0.17616E+06
 0.32399998E+02 -0.72983E+05
 0.32449997E+02 -0.11459E+05
 0.32499996E+02 -0.10084E+06
 0.32549999E+02 -0.18128E+06
 0.32599998E+02 -0.99901E+05
 0.32649998E+02  0.41639E+02
 0.32699997E+02  0.11511E+06
 0.32749996E+02  0.24949E+06
 0.32799999E+02  0.35237E+06
 0.32849998E+02  0.44386E+06
 0.32899998E+02  0.46458E+06
 0.32949997E+02  0.40546E+06
 0.32999996E+02  0.37771E+06
 0.33049999E+02  0.36670E+06
 0.33099998E+02  0.28555E+06
 0.33149998E+02  0.21705E+06
 0.33199997E+02  0.14501E+06
 0.33249996E+02  0.26615E+05
 0.33299999E+02 -0.79735E+05
 0.33349998E+02 -0.10456E+06
 0.33399998E+02 -0.84205E+05
 0.33449997E+02  0.45182E+05
 0.33499996E+02  0.59648E+05
 0.33549999E+02 -0.10334E+06
 0.33599998E+02 -0.22380E+06
 0.33649998E+02 -0.30641E+06
 0.33699997E+02 -0.28893E+06
 0.33749996E+02 -0.23471E+06
 0.33799999E+02 -0.22673E+06
 0.33849998E+02 -0.28674E+06
 0.33899998E+02 -0.37446E+06
 0.33949997E+02 -0.38866E+06
 0.33999996E+02 -0.36356E+06
 0.34049999E+02 -0.36301E+06
 0.34099998E+02 -0.36893E+06
 0.34149998E+02 -0.39277E+06
 0.34199997E+02 -0.44329E+06
 0.34249996E+02 -0.47849E+06
 0.34299999E+02 -0.49121E+06
 0.34349998E+02 -0.54560E+06
 0.34399998E+02 -0.65092E+06
 0.34449997E+02 -0.71574E+06
 0.34499996E+02 -0.75432E+06
 0.34549999E+02 -0.77022E+06
 0.34599998E+02 -0.69663E+06
 0.34649998E+02 -0.60413E+06
 0.34699997E+02 -0.55279E+06
 0.34749996E+02 -0.54626E+06
 0.34799999E+02 -0.51368E+06
 0.34849998E+02 -0.39556E+06
 0.34899998E+02 -0.27615E+06
 0.34949997E+02 -0.23764E+06
 0.34999996E+02 -0.21469E+06
 0.35049999E+02 -0.26722E+06
 0.35099998E+02 -0.37014E+06
 0.35149998E+02 -0.39234E+06
 0.35199997E+02 -0.39161E+06
 0.35249996E+02 -0.39552E+06
 0.35299999E+02 -0.32363E+06
 0.35349998E+02 -0.22614E+06
 0.35399998E+02 -0.23713E+06
 0.35449997E+02 -0.21566E+06
 0.35499996E+02 -0.14656E+06
 0.35549999E+02 -0.11850E+06
 0.35599998E+02 -0.87406E+05
 0.35649998E+02 -0.66006E+05
 0.35699997E+02 -0.69388E+05
 0.35749996E+02 -0.31731E+05
 0.35799999E+02 -0.17241E+04
 0.35849998E+02 -0.17362E+05
 0.35899998E+02  0.27050E+05
 0.35949997E+02  0.11242E+06
 0.35999996E+02  0.22280E+06
 0.36049999E+02  0.33448E+06
 0.36099998E+02  0.30063E+06
 0.36149998E+02  0.18194E+06
 0.36199997E+02  0.15082E+06
 0.36249996E+02  0.67152E+05
 0.36299999E+02 -0.26824E+05
 0.36349998E+02  0.74597E+04
 0.36399998E+02  0.11334E+06
 0.36449997E+02  0.24436E+06
 0.36499996E+02  0.29093E+06
 0.36549999E+02  0.26896E+06
 0.36599998E+02  0.28568E+06
 0.36649998E+02  0.26279E+06
 0.36699997E+02  0.17508E+06
 0.36749996E+02  0.12906E+06
 0.36799999E+02  0.10516E+06
 0.36849998E+02  0.76253E+05
 0.36899998E+02  0.42538E+05
 0.36949997E+02  0.37552E+05
 0.36999996E+02  0.74246E+05
 0.37049999E+02  0.11089E+06
 0.37099998E+02  0.14787E+06
 0.37149998E+02  0.14477E+06
 0.37199997E+02  0.13587E+06
 0.37249996E+02  0.17004E+06
 0.37299999E+02  0.15597E+06
 0.37349998E+02  0.68282E+05
 0.37399998E+02 -0.50713E+05
 0.37449997E+02 -0.16585E+06
 0.37499996E+02 -0.20832E+06
 0.37549999E+02 -0.15849E+06
 0.37599998E+02 -0.13202E+06
 0.37649998E+02 -0.14785E+06
 0.37699997E+02 -0.14363E+06
 0.37749996E+02 -0.10851E+06
 0.37799999E+02 -0.43497E+05
 0.37849998E+02 -0.43457E+05
 0.37899998E+02 -0.78376E+05
 0.37949997E+02 -0.14585E+06
 0.37999996E+02 -0.30736E+06
 0.38049999E+02 -0.50097E+06
 0.38099998E+02 -0.70355E+06
 0.38149998E+02 -0.81200E+06
 0.38199997E+02 -0.79892E+06
 0.38249996E+02 -0.74524E+06
 0.38299999E+02 -0.66232E+06
 0.38349998E+02 -0.53189E+06
 0.38399998E+02 -0.37441E+06
 0.38449997E+02 -0.22611E+06
 0.38499996E+02 -0.11874E+06
 0.38549999E+02 -0.35156E+05
 0.38599998E+02  0.82279E+05
 0.38649998E+02  0.23344E+06
 0.38699997E+02  0.31628E+06
 0.38749996E+02  0.23219E+06
 0.38799999E+02  0.11468E+06
 0.38849998E+02  0.12204E+06
 0.38899998E+02  0.19102E+06
 0.38949997E+02  0.28069E+06
 0.38999996E+02  0.40200E+06
 0.39049999E+02  0.49202E+06
 0.39099998E+02  0.55375E+06
 0.39149998E+02  0.63090E+06
 0.39199997E+02  0.79467E+06
 0.39249996E+02  0.94239E+06
 0.39299999E+02  0.10609E+07
 0.39349998E+02  0.11599E+07
 0.39399998E+02  0.10353E+07
 0.39449997E+02  0.73793E+06
 0.39499996E+02  0.38131E+06
 0.39549999E+02  0.35365E+05
 0.39599998E+02 -0.25909E+06
 0.39649998E+02 -0.44466E+06
 0.39699997E+02 -0.46056E+06
 0.39749996E+02 -0.40275E+06
 0.39799999E+02 -0.40004E+06
 0.39849998E+02 -0.38848E+06
 0.39899998E+02 -0.21060E+06
 0.39949997E+02 -0.14864E+05
 0.39999996E+02  0.37293E+05
 0.40049999E+02 -0.16285E+06
 0.40099998E+02 -0.63070E+06
 0.40149998E+02 -0.11497E+07
 0.40199997E+02 -0.15531E+07
 0.40249996E+02 -0.16819E+07
 0.40299999E+02 -0.15849E+07
 0.40349998E+02 -0.13276E+07
 0.40399998E+02 -0.91545E+06
 0.40449997E+02 -0.55241E+06
 0.40499996E+02 -0.40981E+06
 0.40549999E+02 -0.39900E+06
 0.40599998E+02 -0.37474E+06
 0.40649998E+02 -0.40675E+06
 0.40699997E+02 -0.56664E+06
 0.40749996E+02 -0.71437E+06
 0.40799999E+02 -0.74540E+06
 0.40849998E+02 -0.72707E+06
 0.40899998E+02 -0.56111E+06
 0.40949997E+02 -0.14670E+06
 0.40999996E+02  0.31738E+06
 0.41049999E+02  0.66601E+06
 0.41099998E+02  0.73433E+06
 0.41149998E+02  0.43090E+06
 0.41199997E+02  0.10392E+06
 0.41249996E+02 -0.72141E+05
 0.41299999E+02 -0.19230E+06
 0.41349998E+02 -0.22101E+06
 0.41399998E+02 -0.23828E+05
 0.41449997E+02  0.37137E+06
 0.41499996E+02  0.64027E+06
 0.41549999E+02  0.58193E+06
 0.41599998E+02  0.45932E+06
 0.41649998E+02  0.39792E+06
 0.41699997E+02  0.34283E+06
 0.41749996E+02  0.30968E+06
 0.41799999E+02  0.25393E+06
 0.41849998E+02  0.18295E+06
 0.41899998E+02  0.13912E+06
 0.41949997E+02  0.22983E+06
 0.41999996E+02  0.48404E+06
 0.42049999E+02  0.83455E+06
 0.42099998E+02  0.10581E+07
 0.42149998E+02  0.10419E+07
 0.42199997E+02  0.92087E+06
 0.42249996E+02  0.75941E+06
 0.42299999E+02  0.62627E+06
 0.42349998E+02  0.60551E+06
 0.42399998E+02  0.53817E+06
 0.42449997E+02  0.40058E+06
 0.42499996E+02  0.28210E+06
 0.42549999E+02  0.19493E+06
 0.42599998E+02  0.14315E+06
 0.42649998E+02  0.14492E+06
 0.42699997E+02  0.41918E+05
 0.42749996E+02 -0.17671E+06
 0.42799995E+02 -0.20593E+06
 0.42849998E+02 -0.13276E+06
 0.42899998E+02 -0.42440E+05
 0.42949997E+02  0.70403E+05
 0.42999996E+02  0.21742E+06
 0.43049995E+02  0.45731E+06
 0.43099998E+02  0.65794E+06
 0.43149998E+02  0.75704E+06
 0.43199997E+02  0.85516E+06
 0.43249996E+02  0.84673E+06
 0.43299995E+02  0.60777E+06
 0.43349998E+02  0.29426E+06
 0.43399998E+02  0.84718E+05
 0.43449997E+02 -0.12619E+05
 0.43499996E+02  0.28649E+05
 0.43549995E+02  0.92027E+05
 0.43599998E+02  0.88836E+05
 0.43649998E+02  0.14715E+06
 0.43699997E+02  0.12523E+06
 0.43749996E+02 -0.21263E+05
 0.43799995E+02 -0.15361E+06
 0.43849998E+02 -0.16886E+06
 0.43899998E+02 -0.18365E+06
 0.43949997E+02 -0.21748E+06
 0.43999996E+02 -0.14250E+06
 0.44049995E+02 -0.14030E+06
 0.44099998E+02 -0.13702E+06
 0.44149998E+02 -0.64983E+05
 0.44199997E+02 -0.25768E+05
 0.44249996E+02  0.53240E+05
 0.44299995E+02  0.22008E+06
 0.44349998E+02  0.47462E+06
 0.44399998E+02  0.68299E+06
 0.44449997E+02  0.63691E+06
 0.44499996E+02  0.37993E+06
 0.44549995E+02  0.14325E+06
 0.44599998E+02  0.22223E+05
 0.44649998E+02  0.98281E+04
 0.44699997E+02  0.42354E+05
 0.44749996E+02  0.86909E+05
 0.44799995E+02  0.10184E+06
 0.44849998E+02  0.13655E+06
 0.44899998E+02  0.30350E+06
 0.44949997E+02  0.47824E+06
 0.44999996E+02  0.47045E+06
 0.45049995E+02  0.25621E+06
 0.45099998E+02 -0.28726E+05
 0.45149998E+02 -0.23318E+06
 0.45199997E+02 -0.28976E+06
 0.45249996E+02 -0.24722E+06
 0.45299995E+02 -0.15923E+06
 0.45349998E+02 -0.83455E+04
 0.45399998E+02  0.18098E+06
 0.45449997E+02  0.37329E+06
 0.45499996E+02  0.50366E+06
 0.45549995E+02  0.45588E+06
 0.45599998E+02  0.24567E+06
 0.45649998E+02  0.38905E+05
 0.45699997E+02 -0.53589E+05
 0.45749996E+02 -0.80276E+04
 0.45799995E+02  0.14030E+06
 0.45849998E+02  0.21807E+06
 0.45899998E+02  0.24866E+06
 0.45949997E+02  0.34058E+06
 0.45999996E+02  0.40929E+06
 0.46049995E+02  0.47795E+06
 0.46099998E+02  0.60831E+06
 0.46149998E+02  0.68638E+06
 0.46199997E+02  0.67951E+06
 0.46249996E+02  0.71693E+06
 0.46299995E+02  0.72008E+06
 0.46349998E+02  0.67379E+06
 0.46399998E+02  0.59710E+06
 0.46449997E+02  0.42260E+06
 0.46499996E+02  0.32390E+06
 0.46549995E+02  0.33646E+06
 0.46599998E+02  0.43434E+06
 0.46649998E+02  0.61255E+06
 0.46699997E+02  0.66575E+06
 0.46749996E+02  0.52194E+06
 0.46799995E+02  0.30670E+06
 0.46849998E+02  0.14544E+06
 0.46899998E+02  0.17273E+05
 0.46949997E+02 -0.95444E+05
 0.46999996E+02 -0.23608E+06
 0.47049995E+02 -0.37220E+06
 0.47099998E+02 -0.33663E+06
 0.47149998E+02 -0.17901E+06
 0.47199997E+02  0.59567E+05
 0.47249996E+02  0.31194E+06
 0.47299995E+02  0.49053E+06
 0.47349998E+02  0.60001E+06
 0.47399998E+02  0.60929E+06
 0.47449997E+02  0.46582E+06
 0.47499996E+02  0.22005E+06
 0.47549995E+02 -0.22135E+05
 0.47599998E+02 -0.16151E+06
 0.47649998E+02 -0.17457E+06
 0.47699997E+02 -0.13595E+06
 0.47749996E+02 -0.87542E+05
 0.47799995E+02 -0.74798E+05
 0.47849998E+02 -0.15774E+06
 0.47899998E+02 -0.29571E+06
 0.47949997E+02 -0.39469E+06
 0.47999996E+02 -0.54186E+06
 0.48049995E+02 -0.69149E+06
 0.48099998E+02 -0.70535E+06
 0.48149998E+02 -0.63478E+06
 0.48199997E+02 -0.61298E+06
 0.48249996E+02 -0.66265E+06
 0.48299995E+02 -0.66732E+06
 0.48349998E+02 -0.63984E+06
 0.48399998E+02 -0.63192E+06
 0.48449997E+02 -0.63699E+06
 0.48499996E+02 -0.64652E+06
 0.48549995E+02 -0.64030E+06
 0.48599998E+02 -0.64080E+06
 0.48649998E+02 -0.61955E+06
 0.48699997E+02 -0.61436E+06
 0.48749996E+02 -0.67539E+06
 0.48799995E+02 -0.73472E+06
 0.48849998E+02 -0.77162E+06
 0.48899998E+02 -0.75710E+06
 0.48949997E+02 -0.68116E+06
 0.48999996E+02 -0.53001E+06
 0.49049995E+02 -0.37704E+06
 0.49099998E+02 -0.30998E+06
 0.49149998E+02 -0.24501E+06
 0.49199997E+02 -0.11100E+06
 0.49249996E+02  0.10708E+06
 0.49299995E+02  0.34050E+06
 0.49349998E+02  0.50449E+06
 0.49399998E+02  0.60922E+06
 0.49449997E+02  0.67270E+06
 0.49499996E+02  0.69135E+06
 0.49549995E+02  0.62448E+06
 0.49599998E+02  0.47318E+06
 0.49649998E+02  0.28025E+06
 0.49699997E+02  0.43205E+05
 0.49749996E+02 -0.25505E+06
 0.49799995E+02 -0.54117E+06
 0.49849998E+02 -0.70089E+06
 0.49899998E+02 -0.70584E+06
 0.49949997E+02 -0.66726E+06
 0.49999996E+02 -0.73760E+06
 0.50049995E+02 -0.85852E+06
 0.50099998E+02 -0.89625E+06
 0.50149998E+02 -0.81685E+06
 0.50199997E+02 -0.71571E+06
 0.50249996E+02 -0.71389E+06
 0.50299995E+02 -0.81675E+06
 0.50349998E+02 -0.90051E+06
 0.50399998E+02 -0.86723E+06
 0.50449997E+02 -0.78296E+06
 0.50499996E+02 -0.71042E+06
 0.50549995E+02 -0.62352E+06
 0.50599998E+02 -0.56424E+06
 0.50649998E+02 -0.51003E+06
 0.50699997E+02 -0.42051E+06
 0.50749996E+02 -0.40184E+06
 0.50799995E+02 -0.47436E+06
 0.50849998E+02 -0.58922E+06
 0.50899998E+02 -0.71682E+06
 0.50949997E+02 -0.82162E+06
 0.50999996E+02 -0.88214E+06
 0.51049995E+02 -0.90566E+06
 0.51099998E+02 -0.88246E+06
 0.51149998E+02 -0.76468E+06
 0.51199997E+02 -0.53100E+06
 0.51249996E+02 -0.28822E+06
 0.51299995E+02 -0.11829E+06
 0.51349998E+02 -0.20125E+05
 0.51399998E+02  0.36517E+05
 0.51449997E+02  0.63741E+05
 0.51499996E+02 -0.14062E+05
 0.51549995E+02 -0.19459E+06
 0.51599998E+02 -0.38211E+06
 0.51649998E+02 -0.46771E+06
 0.51699997E+02 -0.39685E+06
 0.51749996E+02 -0.21711E+06
 0.51799995E+02 -0.90122E+04
 0.51849998E+02  0.16201E+06
 0.51899998E+02  0.25234E+06
 0.51949997E+02  0.25274E+06
 0.51999996E+02  0.17945E+06
 0.52049995E+02  0.83392E+05
 0.52099998E+02  0.14214E+05
 0.52149998E+02  0.95429E+04
 0.52199997E+02 -0.16460E+05
 0.52249996E+02 -0.12452E+06
 0.52299995E+02 -0.18489E+06
 0.52349998E+02 -0.16134E+06
 0.52399998E+02 -0.51777E+05
 0.52449997E+02  0.10619E+06
 0.52499996E+02  0.20479E+06
 0.52549995E+02  0.26150E+06
 0.52599998E+02  0.33172E+06
 0.52649998E+02  0.40892E+06
 0.52699997E+02  0.45934E+06
 0.52749996E+02  0.50858E+06
 0.52799995E+02  0.55091E+06
 0.52849998E+02  0.52192E+06
 0.52899998E+02  0.48843E+06
 0.52949997E+02  0.46345E+06
 0.52999996E+02  0.39149E+06
 0.53049995E+02  0.28099E+06
 0.53099998E+02  0.14979E+06
 0.53149998E+02  0.33478E+05
 0.53199997E+02 -0.51676E+05
 0.53249996E+02 -0.43226E+05
 0.53299995E+02  0.54878E+05
 0.53349998E+02  0.16549E+06
 0.53399998E+02  0.25129E+06
 0.53449997E+02  0.27547E+06
 0.53499996E+02  0.23969E+06
 0.53549995E+02  0.18661E+06
 0.53599998E+02  0.98382E+05
 0.53649998E+02 -0.37588E+05
 0.53699997E+02 -0.14103E+06
 0.53749996E+02 -0.21136E+06
 0.53799995E+02 -0.27382E+06
 0.53849998E+02 -0.28506E+06
 0.53899998E+02 -0.26153E+06
 0.53949997E+02 -0.22070E+06
 0.53999996E+02 -0.15517E+06
 0.54049995E+02 -0.91835E+05
 0.54099998E+02 -0.25565E+05
 0.54149998E+02  0.69032E+05
 0.54199997E+02  0.21644E+06
 0.54249996E+02  0.38247E+06
 0.54299995E+02  0.51720E+06
 0.54349998E+02  0.61076E+06
 0.54399998E+02  0.65979E+06
 0.54449997E+02  0.66904E+06
 0.54499996E+02  0.64956E+06
 0.54549995E+02  0.60675E+06
 0.54599998E+02  0.55559E+06
 0.54649998E+02  0.50620E+06
 0.54699997E+02  0.48525E+06
 0.54749996E+02  0.53292E+06
 0.54799995E+02  0.64256E+06
 0.54849998E+02  0.80387E+06
 0.54899998E+02  0.92846E+06
 0.54949997E+02  0.93111E+06
 0.54999996E+02  0.83112E+06
 0.55049995E+02  0.69109E+06
 0.55099998E+02  0.55844E+06
 0.55149998E+02  0.45461E+06
 0.55199997E+02  0.35723E+06
 0.55249996E+02  0.23825E+06
 0.55299995E+02  0.13460E+06
 0.55349998E+02  0.88729E+05
 0.55399998E+02  0.99503E+05
 0.55449997E+02  0.12699E+06
 0.55499996E+02  0.14179E+06
 0.55549995E+02  0.12549E+06
 0.55599998E+02  0.86557E+05
 0.55649998E+02  0.53654E+05
 0.55699997E+02  0.44873E+05
 0.55749996E+02  0.29664E+05
 0.55799995E+02 -0.47958E+05
 0.55849995E+02 -0.16989E+06
 0.55899998E+02 -0.33117E+06
 0.55949997E+02 -0.53815E+06
 0.55999996E+02 -0.77245E+06
 0.56049995E+02 -0.10019E+07
 0.56099995E+02 -0.11466E+07
 0.56149998E+02 -0.11672E+07
 0.56199997E+02 -0.10695E+07
 0.56249996E+02 -0.88683E+06
 0.56299995E+02 -0.64807E+06
 0.56349995E+02 -0.36515E+06
 0.56399998E+02 -0.43843E+05
 0.56449997E+02  0.29239E+06
 0.56499996E+02  0.60030E+06
 0.56549995E+02  0.84640E+06
 0.56599995E+02  0.10000E+07
 0.56649998E+02  0.10605E+07
 0.56699997E+02  0.10485E+07
 0.56749996E+02  0.10043E+07
 0.56799995E+02  0.94716E+06
 0.56849995E+02  0.87472E+06
 0.56899998E+02  0.79174E+06
 0.56949997E+02  0.69390E+06
 0.56999996E+02  0.53862E+06
 0.57049995E+02  0.29356E+06
 0.57099995E+02  0.25966E+05
 0.57149998E+02 -0.19086E+06
 0.57199997E+02 -0.34444E+06
 0.57249996E+02 -0.45383E+06
 0.57299995E+02 -0.53492E+06
 0.57349995E+02 -0.59031E+06
 0.57399998E+02 -0.60905E+06
 0.57449997E+02 -0.57794E+06
 0.57499996E+02 -0.47290E+06
 0.57549995E+02 -0.30300E+06
 0.57599995E+02 -0.13756E+06
 0.57649998E+02 -0.43224E+04
 0.57699997E+02  0.91253E+05
 0.57749996E+02  0.13992E+06
 0.57799995E+02  0.16615E+06
 0.57849995E+02  0.18255E+06
 0.57899998E+02  0.19942E+06
 0.57949997E+02  0.23015E+06
 0.57999996E+02  0.24626E+06
 0.58049995E+02  0.27219E+06
 0.58099995E+02  0.32638E+06
 0.58149998E+02  0.37959E+06
 0.58199997E+02  0.42379E+06
 0.58249996E+02  0.44491E+06
 0.58299995E+02  0.44642E+06
 0.58349995E+02  0.44097E+06
 0.58399998E+02  0.40699E+06
 0.58449997E+02  0.33063E+06
 0.58499996E+02  0.22527E+06
 0.58549995E+02  0.96634E+05
 0.58599995E+02 -0.37959E+05
 0.58649998E+02 -0.16779E+06
 0.58699997E+02 -0.28428E+06
 0.58749996E+02 -0.37372E+06
 0.58799995E+02 -0.43470E+06
 0.58849995E+02 -0.44651E+06
 0.58899998E+02 -0.41023E+06
 0.58949997E+02 -0.36770E+06
 0.58999996E+02 -0.31515E+06
 0.59049995E+02 -0.23968E+06
 0.59099995E+02 -0.13195E+06
 0.59149998E+02  0.60796E+04
 0.59199997E+02  0.13713E+06
 0.59249996E+02  0.25397E+06
 0.59299995E+02  0.37534E+06
 0.59349995E+02  0.47912E+06
 0.59399998E+02  0.52706E+06
 0.59449997E+02  0.52599E+06
 0.59499996E+02  0.51152E+06
 0.59549995E+02  0.50024E+06
 0.59599995E+02  0.46625E+06
 0.59649998E+02  0.41128E+06
 0.59699997E+02  0.34266E+06
 0.59749996E+02  0.27250E+06
 0.59799995E+02  0.19414E+06
 0.59849995E+02  0.99560E+05
 0.59899998E+02 -0.23545E+04
 0.59949997E+02 -0.82511E+05
 0.59999996E+02 -0.10885E+06
 0.60049995E+02 -0.10188E+06
 0.60099995E+02 -0.69649E+05
 0.60149998E+02 -0.20701E+05
 0.60199997E+02  0.41451E+05
 0.60249996E+02  0.11981E+06
 0.60299995E+02  0.21513E+06
 0.60349995E+02  0.31745E+06
 0.60399998E+02  0.40202E+06
 0.60449997E+02  0.46198E+06
 0.60499996E+02  0.52836E+06
 0.60549995E+02  0.61412E+06
 0.60599995E+02  0.67875E+06
 0.60649998E+02  0.68416E+06
 0.60699997E+02  0.60070E+06
 0.60749996E+02  0.43249E+06
 0.60799995E+02  0.21093E+06
 0.60849995E+02 -0.23572E+05
 0.60899998E+02 -0.23847E+06
 0.60949997E+02 -0.43063E+06
 0.60999996E+02 -0.61279E+06
 0.61049995E+02 -0.79654E+06
 0.61099995E+02 -0.96670E+06
 0.61149998E+02 -0.10993E+07
 0.61199997E+02 -0.11912E+07
 0.61249996E+02 -0.12326E+07
 0.61299995E+02 -0.12263E+07
 0.61349995E+02 -0.12181E+07
 0.61399998E+02 -0.11958E+07
 0.61449997E+02 -0.11429E+07
 0.61499996E+02 -0.10811E+07
 0.61549995E+02 -0.98857E+06
 0.61599995E+02 -0.87595E+06
 0.61649998E+02 -0.79054E+06
 0.61699997E+02 -0.72753E+06
 0.61749996E+02 -0.66094E+06
 0.61799995E+02 -0.57445E+06
 0.61849995E+02 -0.47104E+06
 0.61899998E+02 -0.37136E+06
 0.61949997E+02 -0.28707E+06
 0.61999996E+02 -0.22445E+06
 0.62049995E+02 -0.18205E+06
 0.62099998E+02 -0.16270E+06
 0.62149994E+02 -0.15642E+06
 0.62199997E+02 -0.12614E+06
 0.62249992E+02 -0.56533E+05
 0.62299995E+02  0.41305E+05
 0.62349998E+02  0.14085E+06
 0.62399994E+02  0.25674E+06
 0.62449997E+02  0.39571E+06
 0.62499992E+02  0.50195E+06
 0.62549995E+02  0.55808E+06
 0.62599998E+02  0.55703E+06
 0.62649994E+02  0.52981E+06
 0.62699997E+02  0.51502E+06
 0.62749992E+02  0.49913E+06
 0.62799995E+02  0.47025E+06
 0.62849998E+02  0.42324E+06
 0.62899994E+02  0.35466E+06
 0.62949997E+02  0.27530E+06
 0.62999992E+02  0.20750E+06
 0.63049995E+02  0.17065E+06
 0.63099998E+02  0.17839E+06
 0.63149994E+02  0.22411E+06
 0.63199997E+02  0.30827E+06
 0.63249992E+02  0.41372E+06
 0.63299995E+02  0.50730E+06
 0.63349998E+02  0.55747E+06
 0.63399994E+02  0.54025E+06
 0.63449997E+02  0.45522E+06
 0.63499992E+02  0.31112E+06
 0.63549995E+02  0.12658E+06
 0.63599998E+02 -0.44162E+05
 0.63649994E+02 -0.15329E+06
 0.63699997E+02 -0.18761E+06
 0.63749992E+02 -0.17514E+06
 0.63799995E+02 -0.16201E+06
 0.63849998E+02 -0.15610E+06
 0.63899994E+02 -0.14845E+06
 0.63949997E+02 -0.11882E+06
 0.63999992E+02 -0.70039E+05
 0.64049995E+02 -0.21173E+05
 0.64099998E+02  0.23516E+05
 0.64149994E+02  0.59960E+05
 0.64199997E+02  0.88678E+05
 0.64249992E+02  0.11459E+06
 0.64299995E+02  0.12746E+06
 0.64349998E+02  0.12152E+06
 0.64399994E+02  0.10296E+06
 0.64449997E+02  0.63921E+05
 0.64499992E+02 -0.15768E+05
 0.64549995E+02 -0.14058E+06
 0.64599998E+02 -0.28511E+06
 0.64649994E+02 -0.40765E+06
 0.64699997E+02 -0.48245E+06
 0.64749992E+02 -0.50671E+06
 0.64799995E+02 -0.49828E+06
 0.64849998E+02 -0.46924E+06
 0.64899994E+02 -0.42106E+06
 0.64949997E+02 -0.36454E+06
 0.64999992E+02 -0.30522E+06
 0.65049995E+02 -0.27110E+06
 0.65099998E+02 -0.29061E+06
 0.65149994E+02 -0.36553E+06
 0.65199997E+02 -0.49027E+06
 0.65249992E+02 -0.62768E+06
 0.65299995E+02 -0.73617E+06
 0.65349998E+02 -0.79764E+06
 0.65399994E+02 -0.79387E+06
 0.65449997E+02 -0.71763E+06
 0.65499992E+02 -0.57692E+06
 0.65549995E+02 -0.38844E+06
 0.65599998E+02 -0.17653E+06
 0.65649994E+02  0.31812E+05
 0.65699997E+02  0.22357E+06
 0.65749992E+02  0.38943E+06
 0.65799995E+02  0.53260E+06
 0.65849998E+02  0.66820E+06
 0.65899994E+02  0.78950E+06
 0.65949997E+02  0.88334E+06
 0.65999992E+02  0.94823E+06
 0.66049995E+02  0.98146E+06
 0.66099998E+02  0.97495E+06
 0.66149994E+02  0.92040E+06
 0.66199997E+02  0.82296E+06
 0.66249992E+02  0.69901E+06
 0.66299995E+02  0.57654E+06
 0.66349998E+02  0.47113E+06
 0.66399994E+02  0.37909E+06
 0.66449997E+02  0.30313E+06
 0.66499992E+02  0.23491E+06
 0.66549995E+02  0.15615E+06
 0.66599998E+02  0.46770E+05
 0.66649994E+02 -0.80130E+05
 0.66699997E+02 -0.21211E+06
 0.66749992E+02 -0.31939E+06
 0.66799995E+02 -0.37212E+06
 0.66849998E+02 -0.39006E+06
 0.66899994E+02 -0.38573E+06
 0.66949997E+02 -0.37295E+06
 0.66999992E+02 -0.36315E+06
 0.67049995E+02 -0.34113E+06
 0.67099998E+02 -0.28456E+06
 0.67149994E+02 -0.19825E+06
 0.67199997E+02 -0.87959E+05
 0.67249992E+02  0.43065E+05
 0.67299995E+02  0.17987E+06
 0.67349998E+02  0.30732E+06
 0.67399994E+02  0.40247E+06
 0.67449997E+02  0.43737E+06
 0.67499992E+02  0.41143E+06
 0.67549995E+02  0.35110E+06
 0.67599998E+02  0.27512E+06
 0.67649994E+02  0.20185E+06
 0.67699997E+02  0.14374E+06
 0.67749992E+02  0.10056E+06
 0.67799995E+02  0.66019E+05
 0.67849998E+02  0.32415E+05
 0.67899994E+02 -0.13870E+04
 0.67949997E+02 -0.37463E+05
 0.67999992E+02 -0.75828E+05
 0.68049995E+02 -0.12271E+06
 0.68099998E+02 -0.18124E+06
 0.68149994E+02 -0.24962E+06
 0.68199997E+02 -0.30849E+06
 0.68249992E+02 -0.33528E+06
 0.68299995E+02 -0.32339E+06
 0.68349998E+02 -0.28568E+06
 0.68399994E+02 -0.25545E+06
 0.68449997E+02 -0.23960E+06
 0.68499992E+02 -0.23315E+06
 0.68549995E+02 -0.22684E+06
 0.68599998E+02 -0.20723E+06
 0.68649994E+02 -0.16704E+06
 0.68699997E+02 -0.10989E+06
 0.68749992E+02 -0.48374E+05
 0.68799995E+02  0.31613E+04
 0.68849998E+02  0.39472E+05
 0.68899994E+02  0.53780E+05
 0.68949997E+02  0.36644E+05
 0.68999992E+02 -0.90608E+04
 0.69049995E+02 -0.72972E+05
 0.69099998E+02 -0.15112E+06
 0.69149994E+02 -0.22854E+06
 0.69199997E+02 -0.27737E+06
 0.69249992E+02 -0.28596E+06
 0.69299995E+02 -0.26006E+06
 0.69349998E+02 -0.21839E+06
 0.69399994E+02 -0.15738E+06
 0.69449997E+02 -0.79879E+05
 0.69499992E+02  0.97705E+04
 0.69549995E+02  0.11710E+06
 0.69599998E+02  0.22958E+06
 0.69649994E+02  0.33172E+06
 0.69699997E+02  0.41283E+06
 0.69749992E+02  0.47804E+06
 0.69799995E+02  0.53333E+06
 0.69849998E+02  0.58158E+06
 0.69899994E+02  0.63279E+06
 0.69949997E+02  0.69132E+06
 0.69999992E+02  0.74961E+06
 0.70049995E+02  0.78719E+06
 0.70099998E+02  0.79221E+06
 0.70149994E+02  0.76908E+06
 0.70199997E+02  0.72521E+06
 0.70249992E+02  0.66261E+06
 0.70299995E+02  0.57687E+06
 0.70349998E+02  0.47389E+06
 0.70399994E+02  0.36935E+06
 0.70449997E+02  0.26288E+06
 0.70499992E+02  0.14035E+06
 0.70549995E+02  0.27277E+04
 0.70599998E+02 -0.13949E+06
 0.70649994E+02 -0.26876E+06
 0.70699997E+02 -0.38045E+06
 0.70749992E+02 -0.49526E+06
 0.70799995E+02 -0.62303E+06
 0.70849998E+02 -0.75752E+06
 0.70899994E+02 -0.89444E+06
 0.70949997E+02 -0.10184E+07
 0.70999992E+02 -0.11040E+07
 0.71049995E+02 -0.11458E+07
 0.71099998E+02 -0.11486E+07
 0.71149994E+02 -0.11205E+07
 0.71199997E+02 -0.10662E+07
 0.71249992E+02 -0.98275E+06
 0.71299995E+02 -0.86162E+06
 0.71349998E+02 -0.69690E+06
 0.71399994E+02 -0.50788E+06
 0.71449997E+02 -0.31634E+06
 0.71499992E+02 -0.13565E+06
 0.71549995E+02  0.28028E+05
 0.71599998E+02  0.16983E+06
 0.71649994E+02  0.29144E+06
 0.71699997E+02  0.38815E+06
 0.71749992E+02  0.44379E+06
 0.71799995E+02  0.45917E+06
 0.71849998E+02  0.44565E+06
 0.71899994E+02  0.42681E+06
 0.71949997E+02  0.42046E+06
 0.71999992E+02  0.42818E+06
 0.72049995E+02  0.45021E+06
 0.72099998E+02  0.47814E+06
 0.72149994E+02  0.50499E+06
 0.72199997E+02  0.51572E+06
 0.72249992E+02  0.49249E+06
 0.72299995E+02  0.44436E+06
 0.72349998E+02  0.38985E+06
 0.72399994E+02  0.34270E+06
 0.72449997E+02  0.29355E+06
 0.72499992E+02  0.22508E+06
 0.72549995E+02  0.13155E+06
 0.72599998E+02  0.14001E+05
 0.72649994E+02 -0.11723E+06
 0.72699997E+02 -0.24796E+06
 0.72749992E+02 -0.35540E+06
 0.72799995E+02 -0.42229E+06
 0.72849998E+02 -0.44551E+06
 0.72899994E+02 -0.43033E+06
 0.72949997E+02 -0.38279E+06
 0.72999992E+02 -0.30220E+06
 0.73049995E+02 -0.20280E+06
 0.73099998E+02 -0.11890E+06
 0.73149994E+02 -0.76113E+05
 0.73199997E+02 -0.86311E+05
 0.73249992E+02 -0.13610E+06
 0.73299995E+02 -0.19216E+06
 0.73349998E+02 -0.23044E+06
 0.73399994E+02 -0.24084E+06
 0.73449997E+02 -0.22649E+06
 0.73499992E+02 -0.19680E+06
 0.73549995E+02 -0.15590E+06
 0.73599998E+02 -0.98241E+05
 0.73649994E+02 -0.30289E+05
 0.73699997E+02  0.28224E+05
 0.73749992E+02  0.62373E+05
 0.73799995E+02  0.65288E+05
 0.73849998E+02  0.36484E+05
 0.73899994E+02 -0.64202E+04
 0.73949997E+02 -0.38176E+05
 0.73999992E+02 -0.59158E+05
 0.74049995E+02 -0.77192E+05
 0.74099998E+02 -0.98523E+05
 0.74149994E+02 -0.12860E+06
 0.74199997E+02 -0.16404E+06
 0.74249992E+02 -0.20153E+06
 0.74299995E+02 -0.23452E+06
 0.74349998E+02 -0.25137E+06
 0.74399994E+02 -0.24165E+06
 0.74449997E+02 -0.19780E+06
 0.74499992E+02 -0.12065E+06
 0.74549995E+02 -0.25567E+05
 0.74599998E+02  0.68239E+05
 0.74649994E+02  0.14624E+06
 0.74699997E+02  0.20892E+06
 0.74749992E+02  0.27247E+06
 0.74799995E+02  0.33322E+06
 0.74849998E+02  0.37581E+06
 0.74899994E+02  0.41380E+06
 0.74949997E+02  0.45924E+06
 0.74999992E+02  0.50949E+06
 0.75049995E+02  0.56129E+06
 0.75099998E+02  0.60676E+06
 0.75149994E+02  0.63213E+06
 0.75199997E+02  0.62819E+06
 0.75249992E+02  0.60571E+06
 0.75299995E+02  0.57154E+06
 0.75349998E+02  0.53383E+06
 0.75399994E+02  0.50279E+06
 0.75449997E+02  0.47241E+06
 0.75499992E+02  0.43574E+06
 0.75549995E+02  0.39113E+06
 0.75599998E+02  0.33321E+06
 0.75649994E+02  0.26031E+06
 0.75699997E+02  0.17518E+06
 0.75749992E+02  0.75011E+05
 0.75799995E+02 -0.34087E+05
 0.75849998E+02 -0.13228E+06
 0.75899994E+02 -0.21019E+06
 0.75949997E+02 -0.26584E+06
 0.75999992E+02 -0.29755E+06
 0.76049995E+02 -0.30884E+06
 0.76099998E+02 -0.30159E+06
 0.76149994E+02 -0.27685E+06
 0.76199997E+02 -0.23508E+06
 0.76249992E+02 -0.18064E+06
 0.76299995E+02 -0.12123E+06
 0.76349998E+02 -0.71352E+05
 0.76399994E+02 -0.44062E+05
 0.76449997E+02 -0.39891E+05
 0.76499992E+02 -0.50556E+05
 0.76549995E+02 -0.63727E+05
 0.76599998E+02 -0.72184E+05
 0.76649994E+02 -0.69010E+05
 0.76699997E+02 -0.55472E+05
 0.76749992E+02 -0.37214E+05
 0.76799995E+02 -0.21670E+05
 0.76849998E+02 -0.19437E+05
 0.76899994E+02 -0.28508E+05
 0.76949997E+02 -0.46485E+05
 0.76999992E+02 -0.72801E+05
 0.77049995E+02 -0.93336E+05
 0.77099998E+02 -0.98975E+05
 0.77149994E+02 -0.96640E+05
 0.77199997E+02 -0.95886E+05
 0.77249992E+02 -0.10487E+06
 0.77299995E+02 -0.12752E+06
 0.77349998E+02 -0.16894E+06
 0.77399994E+02 -0.22360E+06
 0.77449997E+02 -0.28399E+06
 0.77499992E+02 -0.34503E+06
 0.77549995E+02 -0.39881E+06
 0.77599998E+02 -0.44156E+06
 0.77649994E+02 -0.46463E+06
 0.77699997E+02 -0.45601E+06
 0.77749992E+02 -0.40484E+06
 0.77799995E+02 -0.31789E+06
 0.77849998E+02 -0.21349E+06
 0.77899994E+02 -0.10831E+06
 0.77949997E+02 -0.10450E+05
 0.77999992E+02  0.79487E+05
 0.78049995E+02  0.16296E+06
 0.78099998E+02  0.24242E+06
 0.78149994E+02  0.31066E+06
 0.78199997E+02  0.36291E+06
 0.78249992E+02  0.40003E+06
 0.78299995E+02  0.42088E+06
 0.78349998E+02  0.42283E+06
 0.78399994E+02  0.40962E+06
 0.78449997E+02  0.38785E+06
 0.78499992E+02  0.36209E+06
 0.78549995E+02  0.34280E+06
 0.78599998E+02  0.33044E+06
 0.78649994E+02  0.31235E+06
 0.78699997E+02  0.28010E+06
 0.78749992E+02  0.23370E+06
 0.78799995E+02  0.17174E+06
 0.78849998E+02  0.93925E+05
 0.78899994E+02  0.60736E+04
 0.78949997E+02 -0.85194E+05
 0.78999992E+02 -0.17168E+06
 0.79049995E+02 -0.24348E+06
 0.79099998E+02 -0.29851E+06
 0.79149994E+02 -0.34632E+06
 0.79199997E+02 -0.39438E+06
 0.79249992E+02 -0.44539E+06
 0.79299995E+02 -0.49137E+06
 0.79349998E+02 -0.52222E+06
 0.79399994E+02 -0.53312E+06
 0.79449997E+02 -0.52119E+06
 0.79499992E+02 -0.48796E+06
 0.79549995E+02 -0.43667E+06
 0.79599998E+02 -0.36900E+06
 0.79649994E+02 -0.28598E+06
 0.79699997E+02 -0.20328E+06
 0.79749992E+02 -0.13398E+06
 0.79799995E+02 -0.73852E+05
 0.79849998E+02 -0.14293E+05
 0.79899994E+02  0.49382E+05
 0.79949997E+02  0.11298E+06
 0.79999992E+02  0.17023E+06
 0.80049995E+02  0.21496E+06
 0.80099998E+02  0.24342E+06
 0.80149994E+02  0.26084E+06
 0.80199997E+02  0.27864E+06
 0.80249992E+02  0.29817E+06
 0.80299995E+02  0.30875E+06
 0.80349998E+02  0.30083E+06
 0.80399994E+02  0.27080E+06
 0.80449997E+02  0.23067E+06
 0.80499992E+02  0.19476E+06
 0.80549995E+02  0.16006E+06
 0.80599998E+02  0.12350E+06
 0.80649994E+02  0.85163E+05
 0.80699997E+02  0.39249E+05
 0.80749992E+02 -0.60939E+04
 0.80799995E+02 -0.43108E+05
 0.80849998E+02 -0.66703E+05
 0.80899994E+02 -0.72850E+05
 0.80949997E+02 -0.67985E+05
 0.80999992E+02 -0.51643E+05
 0.81049995E+02 -0.28789E+05
 0.81099998E+02 -0.49737E+04
 0.81149994E+02  0.27811E+05
 0.81199997E+02  0.71489E+05
 0.81249992E+02  0.11594E+06
 0.81299995E+02  0.15637E+06
 0.81349998E+02  0.18649E+06
 0.81399994E+02  0.19924E+06
 0.81449997E+02  0.19769E+06
 0.81499992E+02  0.18356E+06
 0.81549995E+02  0.15317E+06
 0.81599998E+02  0.10282E+06
 0.81649994E+02  0.38793E+05
 0.81699997E+02 -0.28811E+05
 0.81749992E+02 -0.93372E+05
 0.81799995E+02 -0.15561E+06
 0.81849998E+02 -0.22065E+06
 0.81899994E+02 -0.27860E+06
 0.81949997E+02 -0.31901E+06
 0.81999992E+02 -0.34299E+06
 0.82049995E+02 -0.34672E+06
 0.82099998E+02 -0.33336E+06
 0.82149994E+02 -0.31387E+06
 0.82199997E+02 -0.28853E+06
 0.82249992E+02 -0.25891E+06
 0.82299995E+02 -0.22889E+06
 0.82349998E+02 -0.19889E+06
 0.82399994E+02 -0.16811E+06
 0.82449997E+02 -0.13492E+06
 0.82499992E+02 -0.94635E+05
 0.82549995E+02 -0.46207E+05
 0.82599998E+02  0.26792E+04
 0.82649994E+02  0.50490E+05
 0.82699997E+02  0.10369E+06
 0.82749992E+02  0.16182E+06
 0.82799995E+02  0.21914E+06
 0.82849998E+02  0.26645E+06
 0.82899994E+02  0.29054E+06
 0.82949997E+02  0.28758E+06
 0.82999992E+02  0.26311E+06
 0.83049995E+02  0.22733E+06
 0.83099998E+02  0.18745E+06
 0.83149994E+02  0.14727E+06
 0.83199997E+02  0.10745E+06
 0.83249992E+02  0.71686E+05
 0.83299995E+02  0.48840E+05
 0.83349998E+02  0.38431E+05
 0.83399994E+02  0.34208E+05
 0.83449997E+02  0.28625E+05
 0.83499992E+02  0.16061E+05
 0.83549995E+02  0.11430E+04
 0.83599998E+02 -0.10474E+05
 0.83649994E+02 -0.21664E+05
 0.83699997E+02 -0.38458E+05
 0.83749992E+02 -0.60734E+05
 0.83799995E+02 -0.83793E+05
 0.83849998E+02 -0.10755E+06
 0.83899994E+02 -0.13109E+06
 0.83949997E+02 -0.14922E+06
 0.83999992E+02 -0.15930E+06
 0.84049995E+02 -0.15845E+06
 0.84099998E+02 -0.14845E+06
 0.84149994E+02 -0.13729E+06
 0.84199997E+02 -0.12396E+06
 0.84249992E+02 -0.10670E+06
 0.84299995E+02 -0.83175E+05
 0.84349998E+02 -0.45945E+05
 0.84399994E+02  0.10478E+05
 0.84449997E+02  0.81615E+05
 0.84499992E+02  0.15342E+06
 0.84549995E+02  0.22189E+06
 0.84599998E+02  0.28920E+06
 0.84649994E+02  0.34818E+06
 0.84699997E+02  0.39064E+06
 0.84749992E+02  0.41405E+06
 0.84799995E+02  0.41713E+06
 0.84849998E+02  0.40132E+06
 0.84899994E+02  0.36824E+06
 0.84949997E+02  0.31494E+06
 0.84999992E+02  0.24155E+06
 0.85049995E+02  0.15484E+06
 0.85099998E+02  0.66965E+05
 0.85149994E+02 -0.66256E+04
 0.85199997E+02 -0.60210E+05
 0.85249992E+02 -0.91724E+05
 0.85299995E+02 -0.99502E+05
 0.85349998E+02 -0.88443E+05
 0.85399994E+02 -0.63518E+05
 0.85449997E+02 -0.35381E+05
 0.85499992E+02 -0.21293E+05
 0.85549995E+02 -0.28975E+05
 0.85599998E+02 -0.52735E+05
 0.85649994E+02 -0.83220E+05
 0.85699997E+02 -0.10834E+06
 0.85749992E+02 -0.12571E+06
 0.85799995E+02 -0.14074E+06
 0.85849998E+02 -0.14890E+06
 0.85899994E+02 -0.14124E+06
 0.85949997E+02 -0.11202E+06
 0.85999992E+02 -0.63043E+05
 0.86049995E+02 -0.25393E+04
 0.86099998E+02  0.61490E+05
 0.86149994E+02  0.12331E+06
 0.86199997E+02  0.17568E+06
 0.86249992E+02  0.21522E+06
 0.86299995E+02  0.24132E+06
 0.86349998E+02  0.25430E+06
 0.86399994E+02  0.25625E+06
 0.86449997E+02  0.24407E+06
 0.86499992E+02  0.21091E+06
 0.86549995E+02  0.15374E+06
 0.86599998E+02  0.83236E+05
 0.86649994E+02  0.12729E+05
 0.86699997E+02 -0.54066E+05
 0.86749992E+02 -0.11704E+06
 0.86799995E+02 -0.18005E+06
 0.86849998E+02 -0.24006E+06
 0.86899994E+02 -0.28886E+06
 0.86949997E+02 -0.32350E+06
 0.86999992E+02 -0.33632E+06
 0.87049995E+02 -0.32535E+06
 0.87099998E+02 -0.29533E+06
 0.87149994E+02 -0.25475E+06
 0.87199997E+02 -0.21266E+06
 0.87249992E+02 -0.17314E+06
 0.87299995E+02 -0.13903E+06
 0.87349998E+02 -0.11447E+06
 0.87399994E+02 -0.10378E+06
 0.87449997E+02 -0.10361E+06
 0.87499992E+02 -0.10964E+06
 0.87549995E+02 -0.11878E+06
 0.87599991E+02 -0.12690E+06
 0.87649994E+02 -0.13375E+06
 0.87699997E+02 -0.14300E+06
 0.87749992E+02 -0.14816E+06
 0.87799995E+02 -0.14014E+06
 0.87849991E+02 -0.11723E+06
 0.87899994E+02 -0.81005E+05
 0.87949997E+02 -0.34919E+05
 0.87999992E+02  0.18760E+05
 0.88049995E+02  0.82848E+05
 0.88099991E+02  0.15715E+06
 0.88149994E+02  0.23163E+06
 0.88199997E+02  0.29697E+06
 0.88249992E+02  0.34511E+06
 0.88299995E+02  0.36979E+06
 0.88349991E+02  0.36901E+06
 0.88399994E+02  0.34300E+06
 0.88449997E+02  0.30027E+06
 0.88499992E+02  0.25332E+06
 0.88549995E+02  0.20063E+06
 0.88599991E+02  0.13990E+06
 0.88649994E+02  0.80007E+05
 0.88699997E+02  0.29883E+05
 0.88749992E+02 -0.95557E+04
 0.88799995E+02 -0.45474E+05
 0.88849991E+02 -0.84189E+05
 0.88899994E+02 -0.11691E+06
 0.88949997E+02 -0.13192E+06
 0.88999992E+02 -0.12646E+06
 0.89049995E+02 -0.98242E+05
 0.89099991E+02 -0.54975E+05
 0.89149994E+02 -0.14498E+05
 0.89199997E+02  0.11337E+05
 0.89249992E+02  0.23762E+05
 0.89299995E+02  0.29177E+05
 0.89349991E+02  0.35899E+05
 0.89399994E+02  0.47411E+05
 0.89449997E+02  0.51875E+05
 0.89499992E+02  0.40955E+05
 0.89549995E+02  0.21671E+05
 0.89599991E+02 -0.25131E+01
 0.89649994E+02 -0.24842E+05
 0.89699997E+02 -0.57695E+05
 0.89749992E+02 -0.99755E+05
 0.89799995E+02 -0.14564E+06
 0.89849991E+02 -0.19233E+06
 0.89899994E+02 -0.23420E+06
 0.89949997E+02 -0.26294E+06
 0.89999992E+02 -0.27712E+06
 0.90049995E+02 -0.27510E+06
 0.90099991E+02 -0.25505E+06
 0.90149994E+02 -0.22053E+06
 0.90199997E+02 -0.18105E+06
 0.90249992E+02 -0.14684E+06
 0.90299995E+02 -0.11817E+06
 0.90349991E+02 -0.89327E+05
 0.90399994E+02 -0.55751E+05
 0.90449997E+02 -0.17117E+05
 0.90499992E+02  0.20956E+05
 0.90549995E+02  0.56366E+05
 0.90599991E+02  0.92651E+05
 0.90649994E+02  0.12242E+06
 0.90699997E+02  0.13391E+06
 0.90749992E+02  0.12553E+06
 0.90799995E+02  0.10404E+06
 0.90849991E+02  0.76579E+05
 0.90899994E+02  0.44627E+05
 0.90949997E+02  0.70375E+04
 0.90999992E+02 -0.31851E+05
 0.91049995E+02 -0.64962E+05
 0.91099991E+02 -0.83829E+05
 0.91149994E+02 -0.79011E+05
 0.91199997E+02 -0.52407E+05
 0.91249992E+02 -0.12696E+05
 0.91299995E+02  0.31632E+05
 0.91349991E+02  0.72256E+05
 0.91399994E+02  0.10257E+06
 0.91449997E+02  0.12414E+06
 0.91499992E+02  0.13913E+06
 0.91549995E+02  0.14714E+06
 0.91599991E+02  0.15051E+06
 0.91649994E+02  0.14989E+06
 0.91699997E+02  0.14843E+06
 0.91749992E+02  0.15418E+06
 0.91799995E+02  0.16564E+06
 0.91849991E+02  0.17563E+06
 0.91899994E+02  0.17817E+06
 0.91949997E+02  0.16951E+06
 0.91999992E+02  0.15026E+06
 0.92049995E+02  0.11866E+06
 0.92099991E+02  0.76846E+05
 0.92149994E+02  0.29680E+05
 0.92199997E+02 -0.15322E+05
 0.92249992E+02 -0.53816E+05
 0.92299995E+02 -0.86532E+05
 0.92349991E+02 -0.11854E+06
 0.92399994E+02 -0.15307E+06
 0.92449997E+02 -0.18416E+06
 0.92499992E+02 -0.20534E+06
 0.92549995E+02 -0.21462E+06
 0.92599991E+02 -0.21208E+06
 0.92649994E+02 -0.19961E+06
 0.92699997E+02 -0.18171E+06
 0.92749992E+02 -0.16338E+06
 0.92799995E+02 -0.14909E+06
 0.92849991E+02 -0.13585E+06
 0.92899994E+02 -0.12322E+06
 0.92949997E+02 -0.11112E+06
 0.92999992E+02 -0.10077E+06
 0.93049995E+02 -0.10121E+06
 0.93099991E+02 -0.11234E+06
 0.93149994E+02 -0.12293E+06
 0.93199997E+02 -0.12544E+06
 0.93249992E+02 -0.12014E+06
 0.93299995E+02 -0.10716E+06
 0.93349991E+02 -0.84848E+05
 0.93399994E+02 -0.48801E+05
 0.93449997E+02  0.94791E+03
 0.93499992E+02  0.56811E+05
 0.93549995E+02  0.10683E+06
 0.93599991E+02  0.13971E+06
 0.93649994E+02  0.15121E+06
 0.93699997E+02  0.14437E+06
 0.93749992E+02  0.12597E+06
 0.93799995E+02  0.10721E+06
 0.93849991E+02  0.99345E+05
 0.93899994E+02  0.10475E+06
 0.93949997E+02  0.11984E+06
 0.93999992E+02  0.13741E+06
 0.94049995E+02  0.15218E+06
 0.94099991E+02  0.16357E+06
 0.94149994E+02  0.16990E+06
 0.94199997E+02  0.16690E+06
 0.94249992E+02  0.15011E+06
 0.94299995E+02  0.12068E+06
 0.94349991E+02  0.87369E+05
 0.94399994E+02  0.57417E+05
 0.94449997E+02  0.36644E+05
 0.94499992E+02  0.23868E+05
 0.94549995E+02  0.12952E+05
 0.94599991E+02  0.18617E+04
 0.94649994E+02 -0.14990E+05
 0.94699997E+02 -0.41473E+05
 0.94749992E+02 -0.73530E+05
 0.94799995E+02 -0.10746E+06
 0.94849991E+02 -0.14063E+06
 0.94899994E+02 -0.16887E+06
 0.94949997E+02 -0.19371E+06
 0.94999992E+02 -0.21733E+06
 0.95049995E+02 -0.24345E+06
 0.95099991E+02 -0.27613E+06
 0.95149994E+02 -0.31403E+06
 0.95199997E+02 -0.35327E+06
 0.95249992E+02 -0.38754E+06
 0.95299995E+02 -0.40959E+06
 0.95349991E+02 -0.41366E+06
 0.95399994E+02 -0.39832E+06
 0.95449997E+02 -0.36453E+06
 0.95499992E+02 -0.30975E+06
 0.95549995E+02 -0.23426E+06
 0.95599991E+02 -0.14835E+06
 0.95649994E+02 -0.61148E+05
 0.95699997E+02  0.22018E+05
 0.95749992E+02  0.99986E+05
 0.95799995E+02  0.17447E+06
 0.95849991E+02  0.24420E+06
 0.95899994E+02  0.30583E+06
 0.95949997E+02  0.35471E+06
 0.95999992E+02  0.38512E+06
 0.96049995E+02  0.39605E+06
 0.96099991E+02  0.39299E+06
 0.96149994E+02  0.38135E+06
 0.96199997E+02  0.36653E+06
 0.96249992E+02  0.35181E+06
 0.96299995E+02  0.33630E+06
 0.96349991E+02  0.31827E+06
 0.96399994E+02  0.29746E+06
 0.96449997E+02  0.27256E+06
 0.96499992E+02  0.24385E+06
 0.96549995E+02  0.21225E+06
 0.96599991E+02  0.18100E+06
 0.96649994E+02  0.15408E+06
 0.96699997E+02  0.13056E+06
 0.96749992E+02  0.10757E+06
 0.96799995E+02  0.80595E+05
 0.96849991E+02  0.52378E+05
 0.96899994E+02  0.21532E+05
 0.96949997E+02 -0.20173E+05
 0.96999992E+02 -0.72835E+05
 0.97049995E+02 -0.12876E+06
 0.97099991E+02 -0.17704E+06
 0.97149994E+02 -0.20859E+06
 0.97199997E+02 -0.22414E+06
 0.97249992E+02 -0.22743E+06
 0.97299995E+02 -0.21820E+06
 0.97349991E+02 -0.19868E+06
 0.97399994E+02 -0.17340E+06
 0.97449997E+02 -0.14455E+06
 0.97499992E+02 -0.11279E+06
 0.97549995E+02 -0.80879E+05
 0.97599991E+02 -0.48699E+05
 0.97649994E+02 -0.15622E+05
 0.97699997E+02  0.20788E+05
 0.97749992E+02  0.60813E+05
 0.97799995E+02  0.98507E+05
 0.97849991E+02  0.12953E+06
 0.97899994E+02  0.15409E+06
 0.97949997E+02  0.17429E+06
 0.97999992E+02  0.18896E+06
