-0.19969940E+01  0.80696E+04
-0.19469941E+01  0.80003E+04
-0.18969940E+01  0.80392E+04
-0.18469940E+01  0.80119E+04
-0.17969940E+01  0.80289E+04
-0.17469940E+01  0.80474E+04
-0.16969941E+01  0.80514E+04
-0.16469941E+01  0.80674E+04
-0.15969940E+01  0.80459E+04
-0.15469940E+01  0.80272E+04
-0.14969940E+01  0.80021E+04
-0.14469941E+01  0.79974E+04
-0.13969941E+01  0.80089E+04
-0.13469940E+01  0.79776E+04
-0.12969941E+01  0.80067E+04
-0.12469940E+01  0.80065E+04
-0.11969941E+01  0.80158E+04
-0.11469941E+01  0.80411E+04
-0.10969940E+01  0.80350E+04
-0.10469941E+01  0.80621E+04
-0.99699408E+00  0.80890E+04
-0.94699407E+00  0.81101E+04
-0.89699411E+00  0.81397E+04
-0.84699404E+00  0.81465E+04
-0.79699409E+00  0.81680E+04
-0.74699414E+00  0.81835E+04
-0.69699407E+00  0.81753E+04
-0.64699411E+00  0.81790E+04
-0.59699416E+00  0.81581E+04
-0.54699409E+00  0.81644E+04
-0.49699414E+00  0.81704E+04
-0.44699407E+00  0.81418E+04
-0.39699411E+00  0.81452E+04
-0.34699416E+00  0.81429E+04
-0.29699409E+00  0.81307E+04
-0.24699414E+00  0.81145E+04
-0.19699407E+00  0.81151E+04
-0.14699411E+00  0.81278E+04
-0.96994162E-01  0.81189E+04
-0.46994090E-01  0.81363E+04
 0.30058622E-02  0.81432E+04
 0.53005934E-01  0.81619E+04
 0.10300589E+00  0.81365E+04
 0.15300584E+00  0.81444E+04
 0.20300579E+00  0.81413E+04
 0.25300574E+00  0.81289E+04
 0.30300593E+00  0.81187E+04
 0.35300589E+00  0.81263E+04
 0.40300584E+00  0.81191E+04
 0.45300579E+00  0.81077E+04
 0.50300574E+00  0.81048E+04
 0.55300593E+00  0.80747E+04
 0.60300589E+00  0.80903E+04
 0.65300584E+00  0.80614E+04
 0.70300579E+00  0.80761E+04
 0.75300574E+00  0.80621E+04
 0.80300570E+00  0.80695E+04
 0.85300589E+00  0.80836E+04
 0.90300584E+00  0.80822E+04
 0.95300579E+00  0.80892E+04
 0.10030057E+01  0.80850E+04
 0.10530057E+01  0.80950E+04
 0.11030059E+01  0.80929E+04
 0.11530058E+01  0.80966E+04
 0.12030058E+01  0.81171E+04
 0.12530057E+01  0.81319E+04
 0.13030057E+01  0.81240E+04
 0.13530059E+01  0.81237E+04
 0.14030058E+01  0.81005E+04
 0.14530058E+01  0.80947E+04
 0.15030057E+01  0.80930E+04
 0.15530057E+01  0.80914E+04
 0.16030059E+01  0.80775E+04
 0.16530058E+01  0.80431E+04
 0.17030058E+01  0.80315E+04
 0.17530057E+01  0.80226E+04
 0.18030057E+01  0.80087E+04
 0.18530056E+01  0.80038E+04
 0.19030058E+01  0.80047E+04
 0.19530058E+01  0.79898E+04
 0.20030057E+01  0.80089E+04
 0.20530057E+01  0.80303E+04
 0.21030059E+01  0.80425E+04
 0.21530056E+01  0.80659E+04
 0.22030058E+01  0.80649E+04
 0.22530055E+01  0.80818E+04
 0.23030057E+01  0.80877E+04
 0.23530059E+01  0.81125E+04
 0.24030056E+01  0.81328E+04
 0.24530058E+01  0.81147E+04
 0.25030055E+01  0.81172E+04
 0.25530057E+01  0.81168E+04
 0.26030059E+01  0.81278E+04
 0.26530056E+01  0.81711E+04
 0.27030058E+01  0.81515E+04
 0.27530055E+01  0.81498E+04
 0.28030057E+01  0.81603E+04
 0.28530059E+01  0.81391E+04
 0.29030056E+01  0.81498E+04
 0.29530058E+01  0.81453E+04
 0.30030055E+01  0.81532E+04
 0.30530057E+01  0.81158E+04
 0.31030059E+01  0.81161E+04
 0.31530056E+01  0.81289E+04
 0.32030058E+01  0.81088E+04
 0.32530055E+01  0.81179E+04
 0.33030057E+01  0.80966E+04
 0.33530059E+01  0.81077E+04
 0.34030056E+01  0.81059E+04
 0.34530058E+01  0.80871E+04
 0.35030055E+01  0.80820E+04
 0.35530057E+01  0.80894E+04
 0.36030054E+01  0.80840E+04
 0.36530056E+01  0.80844E+04
 0.37030058E+01  0.80873E+04
 0.37530055E+01  0.80858E+04
 0.38030057E+01  0.81036E+04
 0.38530054E+01  0.80974E+04
 0.39030056E+01  0.81028E+04
 0.39530058E+01  0.81069E+04
 0.40030055E+01  0.81042E+04
 0.40530057E+01  0.80962E+04
 0.41030054E+01  0.80718E+04
 0.41530056E+01  0.80530E+04
 0.42030058E+01  0.80517E+04
 0.42530055E+01  0.80471E+04
 0.43030057E+01  0.80490E+04
 0.43530054E+01  0.80448E+04
 0.44030056E+01  0.80185E+04
 0.44530058E+01  0.80082E+04
 0.45030055E+01  0.80320E+04
 0.45530057E+01  0.80703E+04
 0.46030054E+01  0.80785E+04
 0.46530056E+01  0.81055E+04
 0.47030058E+01  0.81217E+04
 0.47530055E+01  0.81112E+04
 0.48030057E+01  0.81466E+04
 0.48530054E+01  0.81467E+04
 0.49030056E+01  0.81558E+04
 0.49530058E+01  0.81726E+04
 0.50030055E+01  0.81561E+04
 0.50530057E+01  0.81372E+04
 0.51030054E+01  0.81105E+04
 0.51530056E+01  0.81135E+04
 0.52030058E+01  0.81455E+04
 0.52530055E+01  0.81522E+04
 0.53030057E+01  0.81433E+04
 0.53530054E+01  0.81553E+04
 0.54030056E+01  0.81244E+04
 0.54530053E+01  0.81406E+04
 0.55030055E+01  0.81683E+04
 0.55530057E+01  0.81425E+04
 0.56030054E+01  0.81667E+04
 0.56530056E+01  0.81302E+04
 0.57030053E+01  0.80943E+04
 0.57530055E+01  0.81105E+04
 0.58030057E+01  0.80714E+04
 0.58530054E+01  0.80645E+04
 0.59030056E+01  0.80593E+04
 0.59530053E+01  0.80413E+04
 0.60030055E+01  0.80821E+04
 0.60530052E+01  0.80898E+04
 0.61030054E+01  0.80809E+04
 0.61530056E+01  0.80780E+04
 0.62030058E+01  0.80512E+04
 0.62530050E+01  0.80580E+04
 0.63030052E+01  0.80455E+04
 0.63530054E+01  0.80447E+04
 0.64030056E+01  0.80465E+04
 0.64530058E+01  0.80271E+04
 0.65030050E+01  0.80144E+04
 0.65530052E+01  0.80229E+04
 0.66030054E+01  0.79793E+04
 0.66530056E+01  0.79794E+04
 0.67030058E+01  0.79940E+04
 0.67530050E+01  0.79575E+04
 0.68030052E+01  0.80197E+04
 0.68530054E+01  0.80047E+04
 0.69030056E+01  0.80279E+04
 0.69530058E+01  0.80498E+04
 0.70030050E+01  0.80308E+04
 0.70530052E+01  0.80925E+04
 0.71030054E+01  0.80998E+04
 0.71530056E+01  0.81048E+04
 0.72030058E+01  0.81191E+04
 0.72530050E+01  0.81391E+04
 0.73030052E+01  0.81960E+04
 0.73530054E+01  0.82136E+04
 0.74030056E+01  0.82229E+04
 0.74530058E+01  0.82035E+04
 0.75030050E+01  0.81937E+04
 0.75530052E+01  0.82149E+04
 0.76030054E+01  0.82267E+04
 0.76530056E+01  0.82390E+04
 0.77030058E+01  0.82525E+04
 0.77530050E+01  0.82281E+04
 0.78030052E+01  0.82037E+04
 0.78530054E+01  0.82008E+04
 0.79030056E+01  0.81846E+04
 0.79530058E+01  0.81759E+04
 0.80030050E+01  0.81278E+04
 0.80530052E+01  0.81167E+04
 0.81030054E+01  0.80812E+04
 0.81530056E+01  0.80597E+04
 0.82030058E+01  0.80347E+04
 0.82530050E+01  0.79911E+04
 0.83030052E+01  0.80002E+04
 0.83530054E+01  0.79808E+04
 0.84030056E+01  0.79804E+04
 0.84530058E+01  0.80101E+04
 0.85030050E+01  0.80234E+04
 0.85530052E+01  0.80341E+04
 0.86030054E+01  0.80723E+04
 0.86530056E+01  0.80818E+04
 0.87030058E+01  0.80930E+04
 0.87530050E+01  0.81023E+04
 0.88030052E+01  0.80971E+04
 0.88530054E+01  0.81033E+04
 0.89030056E+01  0.80801E+04
 0.89530058E+01  0.81003E+04
 0.90030050E+01  0.81228E+04
 0.90530052E+01  0.80930E+04
 0.91030054E+01  0.80795E+04
 0.91530056E+01  0.80653E+04
 0.92030048E+01  0.80734E+04
 0.92530050E+01  0.81022E+04
 0.93030052E+01  0.80967E+04
 0.93530054E+01  0.80900E+04
 0.94030056E+01  0.80506E+04
 0.94530048E+01  0.80736E+04
 0.95030050E+01  0.80608E+04
 0.95530052E+01  0.80409E+04
 0.96030054E+01  0.80748E+04
 0.96530056E+01  0.80602E+04
 0.97030048E+01  0.81136E+04
 0.97530050E+01  0.81121E+04
 0.98030052E+01  0.81011E+04
 0.98530054E+01  0.81551E+04
 0.99030056E+01  0.81257E+04
 0.99530048E+01  0.81428E+04
 0.10003005E+02  0.81297E+04
 0.10053005E+02  0.80939E+04
 0.10103005E+02  0.81186E+04
 0.10153006E+02  0.80654E+04
 0.10203005E+02  0.80860E+04
 0.10253005E+02  0.80675E+04
 0.10303005E+02  0.80522E+04
 0.10353005E+02  0.80907E+04
 0.10403006E+02  0.80840E+04
 0.10453005E+02  0.81150E+04
 0.10503005E+02  0.81279E+04
 0.10553005E+02  0.81306E+04
 0.10603005E+02  0.81488E+04
 0.10653006E+02  0.81437E+04
 0.10703005E+02  0.81615E+04
 0.10753005E+02  0.82030E+04
 0.10803005E+02  0.81509E+04
 0.10853005E+02  0.81935E+04
 0.10903006E+02  0.81514E+04
 0.10953005E+02  0.81222E+04
 0.11003005E+02  0.81506E+04
 0.11053005E+02  0.80973E+04
 0.11103005E+02  0.81164E+04
 0.11153006E+02  0.80984E+04
 0.11203005E+02  0.80915E+04
 0.11253005E+02  0.81012E+04
 0.11303005E+02  0.81132E+04
 0.11353005E+02  0.81079E+04
 0.11403006E+02  0.81146E+04
 0.11453005E+02  0.81067E+04
 0.11503005E+02  0.81168E+04
 0.11553005E+02  0.80960E+04
 0.11603005E+02  0.81164E+04
 0.11653006E+02  0.81052E+04
 0.11703005E+02  0.80729E+04
 0.11753005E+02  0.80982E+04
 0.11803005E+02  0.80252E+04
 0.11853005E+02  0.80316E+04
 0.11903006E+02  0.80289E+04
 0.11953005E+02  0.80008E+04
 0.12003005E+02  0.80221E+04
 0.12053005E+02  0.80096E+04
 0.12103005E+02  0.80335E+04
 0.12153006E+02  0.80136E+04
 0.12203005E+02  0.80166E+04
 0.12253005E+02  0.80427E+04
 0.12303005E+02  0.80491E+04
 0.12353005E+02  0.80670E+04
 0.12403006E+02  0.80837E+04
 0.12453005E+02  0.81094E+04
 0.12503005E+02  0.81321E+04
 0.12553005E+02  0.81267E+04
 0.12603005E+02  0.81323E+04
 0.12653005E+02  0.81769E+04
 0.12703005E+02  0.81580E+04
 0.12753005E+02  0.81551E+04
 0.12803005E+02  0.81482E+04
 0.12853005E+02  0.81282E+04
 0.12903005E+02  0.81174E+04
 0.12953005E+02  0.80992E+04
 0.13003005E+02  0.80723E+04
 0.13053005E+02  0.80491E+04
 0.13103005E+02  0.80264E+04
 0.13153005E+02  0.80066E+04
 0.13203005E+02  0.80007E+04
 0.13253005E+02  0.80111E+04
 0.13303005E+02  0.80087E+04
 0.13353005E+02  0.79956E+04
 0.13403005E+02  0.80321E+04
 0.13453005E+02  0.80454E+04
 0.13503005E+02  0.80626E+04
 0.13553005E+02  0.81045E+04
 0.13603005E+02  0.81277E+04
 0.13653005E+02  0.81396E+04
 0.13703005E+02  0.81670E+04
 0.13753005E+02  0.81907E+04
 0.13803005E+02  0.82086E+04
 0.13853005E+02  0.82041E+04
 0.13903005E+02  0.82254E+04
 0.13953005E+02  0.82245E+04
 0.14003005E+02  0.82245E+04
 0.14053005E+02  0.82147E+04
 0.14103004E+02  0.81962E+04
 0.14153006E+02  0.81942E+04
 0.14203005E+02  0.81680E+04
 0.14253004E+02  0.81440E+04
 0.14303005E+02  0.81119E+04
 0.14353004E+02  0.80999E+04
 0.14403006E+02  0.81053E+04
 0.14453005E+02  0.81032E+04
 0.14503004E+02  0.80800E+04
 0.14553005E+02  0.80919E+04
 0.14603004E+02  0.80594E+04
 0.14653006E+02  0.80702E+04
 0.14703005E+02  0.80686E+04
 0.14753004E+02  0.80667E+04
 0.14803005E+02  0.81022E+04
 0.14853004E+02  0.80719E+04
 0.14903006E+02  0.81050E+04
 0.14953005E+02  0.81019E+04
 0.15003004E+02  0.80684E+04
 0.15053005E+02  0.80895E+04
 0.15103004E+02  0.80801E+04
 0.15153006E+02  0.80641E+04
 0.15203005E+02  0.80449E+04
 0.15253004E+02  0.80315E+04
 0.15303005E+02  0.80354E+04
 0.15353004E+02  0.80138E+04
 0.15403006E+02  0.80381E+04
 0.15453005E+02  0.80257E+04
 0.15503004E+02  0.80414E+04
 0.15553005E+02  0.80576E+04
 0.15603004E+02  0.80622E+04
 0.15653006E+02  0.80926E+04
 0.15703005E+02  0.80864E+04
 0.15753004E+02  0.81068E+04
 0.15803005E+02  0.81106E+04
 0.15853004E+02  0.81182E+04
 0.15903006E+02  0.81154E+04
 0.15953005E+02  0.81189E+04
 0.16003004E+02  0.81476E+04
 0.16053005E+02  0.81281E+04
 0.16103004E+02  0.81280E+04
 0.16153006E+02  0.81426E+04
 0.16203005E+02  0.81028E+04
 0.16253004E+02  0.80997E+04
 0.16303005E+02  0.80854E+04
 0.16353004E+02  0.80672E+04
 0.16403006E+02  0.80885E+04
 0.16453005E+02  0.80706E+04
 0.16503004E+02  0.80753E+04
 0.16553005E+02  0.80888E+04
 0.16603004E+02  0.80538E+04
 0.16653006E+02  0.80859E+04
 0.16703005E+02  0.80842E+04
 0.16753004E+02  0.80965E+04
 0.16803005E+02  0.81101E+04
 0.16853004E+02  0.80842E+04
 0.16903006E+02  0.80963E+04
 0.16953005E+02  0.80829E+04
 0.17003004E+02  0.81052E+04
 0.17053005E+02  0.80934E+04
 0.17103004E+02  0.80809E+04
 0.17153006E+02  0.80781E+04
 0.17203005E+02  0.80755E+04
 0.17253004E+02  0.80694E+04
 0.17303005E+02  0.80772E+04
 0.17353004E+02  0.80639E+04
 0.17403006E+02  0.80536E+04
 0.17453005E+02  0.80575E+04
 0.17503004E+02  0.80372E+04
 0.17553005E+02  0.80537E+04
 0.17603004E+02  0.80410E+04
 0.17653006E+02  0.80679E+04
 0.17703005E+02  0.80779E+04
 0.17753004E+02  0.80826E+04
 0.17803005E+02  0.81102E+04
 0.17853004E+02  0.81056E+04
 0.17903006E+02  0.81574E+04
 0.17953005E+02  0.81880E+04
 0.18003004E+02  0.81705E+04
 0.18053005E+02  0.81831E+04
 0.18103004E+02  0.81789E+04
 0.18153006E+02  0.82017E+04
 0.18203005E+02  0.82440E+04
 0.18253004E+02  0.82271E+04
 0.18303005E+02  0.82447E+04
 0.18353004E+02  0.82106E+04
 0.18403006E+02  0.82387E+04
 0.18453005E+02  0.82411E+04
 0.18503004E+02  0.81509E+04
 0.18553005E+02  0.81780E+04
 0.18603004E+02  0.81343E+04
 0.18653006E+02  0.81192E+04
 0.18703005E+02  0.80757E+04
 0.18753004E+02  0.80915E+04
 0.18803005E+02  0.76408E+04
 0.18853004E+02  0.69253E+04
 0.18903006E+02  0.68315E+04
 0.18953005E+02  0.85645E+04
 0.19003004E+02  0.91898E+04
 0.19053005E+02  0.91284E+04
 0.19103004E+02  0.80922E+04
 0.19153006E+02  0.74752E+04
 0.19203005E+02  0.64886E+04
 0.19253004E+02  0.79081E+04
 0.19303005E+02  0.81564E+04
 0.19353004E+02  0.64423E+04
 0.19403006E+02  0.56002E+04
 0.19453005E+02  0.33219E+04
 0.19503004E+02  0.83113E+04
 0.19553005E+02  0.11859E+05
 0.19603004E+02  0.64923E+04
 0.19653006E+02  0.79502E+04
 0.19703005E+02  0.10545E+05
 0.19753004E+02  0.10532E+05
 0.19803005E+02  0.15415E+05
 0.19853004E+02  0.91117E+04
 0.19903006E+02  0.43438E+04
 0.19953005E+02  0.40406E+04
 0.20003004E+02  0.52664E+04
 0.20053005E+02  0.74441E+04
 0.20103004E+02  0.14938E+05
 0.20153006E+02  0.11364E+05
 0.20203005E+02  0.78187E+04
 0.20253004E+02  0.10867E+05
 0.20303005E+02  0.11284E+05
 0.20353004E+02  0.10264E+05
 0.20403004E+02  0.79904E+04
 0.20453005E+02  0.22901E+04
 0.20503004E+02 -0.41997E+04
 0.20553005E+02  0.13180E+05
 0.20603004E+02  0.15447E+05
 0.20653004E+02  0.11898E+05
 0.20703005E+02  0.55545E+04
 0.20753004E+02 -0.80990E+03
 0.20803005E+02  0.26087E+04
 0.20853004E+02  0.19714E+05
 0.20903004E+02  0.16513E+05
 0.20953005E+02 -0.64435E+01
 0.21003004E+02  0.11054E+05
 0.21053005E+02  0.61492E+04
 0.21103004E+02  0.94162E+02
 0.21153004E+02  0.76531E+04
 0.21203005E+02  0.97793E+04
 0.21253004E+02  0.81640E+04
 0.21303005E+02  0.65536E+04
 0.21353004E+02  0.10382E+05
 0.21403004E+02  0.11706E+05
 0.21453005E+02  0.80498E+03
 0.21503004E+02  0.86178E+04
 0.21553005E+02  0.13307E+05
 0.21603004E+02  0.48451E+04
 0.21653004E+02  0.11181E+05
 0.21703005E+02  0.85860E+04
 0.21753004E+02  0.33240E+04
 0.21803005E+02  0.62154E+04
 0.21853004E+02  0.10520E+05
 0.21903004E+02  0.10840E+05
 0.21953005E+02  0.56598E+04
 0.22003004E+02  0.91459E+04
 0.22053005E+02  0.57291E+04
 0.22103004E+02  0.15588E+01
 0.22153004E+02  0.17349E+05
 0.22203005E+02  0.10502E+05
 0.22253004E+02  0.13656E+05
 0.22303005E+02  0.10367E+05
 0.22353004E+02  0.17334E+04
 0.22403004E+02  0.16753E+05
 0.22453005E+02  0.14207E+05
 0.22503004E+02  0.42972E+04
 0.22553005E+02 -0.62082E+04
 0.22603004E+02  0.38670E+04
 0.22653004E+02  0.49359E+04
 0.22703005E+02  0.13826E+05
 0.22753004E+02  0.12725E+05
 0.22803005E+02  0.57458E+04
 0.22853004E+02  0.29016E+04
 0.22903004E+02  0.64732E+04
 0.22953005E+02  0.16816E+05
 0.23003004E+02  0.10707E+05
 0.23053005E+02  0.24042E+04
 0.23103004E+02  0.15971E+05
 0.23153004E+02  0.78562E+04
 0.23203005E+02  0.10900E+05
 0.23253004E+02  0.13405E+05
 0.23303005E+02  0.10495E+05
 0.23353004E+02  0.10236E+05
 0.23403004E+02 -0.19445E+04
 0.23453005E+02  0.11386E+05
 0.23503004E+02  0.18604E+04
 0.23553005E+02  0.13714E+04
 0.23603004E+02  0.93720E+04
 0.23653004E+02  0.83057E+04
 0.23703005E+02  0.52333E+04
 0.23753004E+02  0.17207E+05
 0.23803005E+02  0.62655E+04
 0.23853004E+02  0.57726E+04
 0.23903004E+02  0.87557E+04
 0.23953005E+02 -0.20946E+03
 0.24003004E+02  0.78142E+04
 0.24053005E+02  0.52477E+04
 0.24103004E+02  0.12563E+05
 0.24153004E+02  0.27514E+04
 0.24203005E+02  0.28537E+04
 0.24253004E+02  0.57797E+04
 0.24303005E+02  0.52951E+04
 0.24353004E+02  0.17382E+05
 0.24403004E+02  0.17974E+05
 0.24453005E+02  0.15877E+05
 0.24503004E+02  0.49979E+04
 0.24553005E+02  0.11794E+05
 0.24603004E+02  0.54095E+04
 0.24653004E+02 -0.30659E+04
 0.24703005E+02  0.57720E+04
 0.24753004E+02 -0.11251E+04
 0.24803005E+02  0.75032E+04
 0.24853004E+02  0.97725E+04
 0.24903004E+02  0.58520E+04
 0.24953005E+02  0.24300E+05
 0.25003004E+02  0.17882E+05
 0.25053005E+02  0.12756E+05
 0.25103004E+02  0.12411E+05
 0.25153004E+02  0.10815E+05
 0.25203005E+02  0.15256E+05
 0.25253004E+02 -0.27745E+04
 0.25303005E+02 -0.58767E+04
 0.25353004E+02  0.69154E+04
 0.25403004E+02  0.10943E+05
 0.25453005E+02  0.10441E+05
 0.25503004E+02  0.78738E+04
 0.25553005E+02  0.69954E+04
 0.25603004E+02  0.15678E+05
 0.25653004E+02  0.63522E+04
 0.25703005E+02  0.37385E+04
 0.25753004E+02  0.57719E+04
 0.25803005E+02  0.51528E+04
 0.25853004E+02  0.96149E+04
 0.25903004E+02  0.11614E+05
 0.25953005E+02  0.13696E+05
 0.26003004E+02  0.20508E+04
 0.26053005E+02  0.23374E+04
 0.26103004E+02  0.22151E+04
 0.26153004E+02  0.67522E+04
 0.26203005E+02  0.13480E+05
 0.26253004E+02  0.87421E+04
 0.26303005E+02  0.81785E+04
 0.26353004E+02  0.10172E+05
 0.26403004E+02  0.16303E+05
 0.26453005E+02  0.10812E+05
 0.26503004E+02  0.29540E+04
 0.26553005E+02  0.94524E+04
 0.26603004E+02  0.11186E+05
 0.26653004E+02  0.55852E+04
 0.26703005E+02  0.66045E+04
 0.26753004E+02  0.54296E+04
 0.26803005E+02  0.24873E+04
 0.26853004E+02  0.67509E+04
 0.26903004E+02  0.95938E+04
 0.26953005E+02  0.94719E+04
 0.27003004E+02  0.99524E+04
 0.27053003E+02  0.10007E+05
 0.27103004E+02  0.11808E+05
 0.27153004E+02  0.10841E+05
 0.27203005E+02  0.39433E+04
 0.27253004E+02  0.59735E+04
 0.27303003E+02  0.68371E+04
 0.27353004E+02  0.91053E+04
 0.27403004E+02  0.53379E+04
 0.27453005E+02  0.89250E+04
 0.27503004E+02  0.18062E+05
 0.27553003E+02  0.47215E+04
 0.27603004E+02 -0.63347E+04
 0.27653004E+02  0.26754E+04
 0.27703005E+02  0.12537E+05
 0.27753004E+02  0.20546E+05
 0.27803003E+02  0.15801E+05
 0.27853004E+02  0.82573E+04
 0.27903004E+02  0.66840E+04
 0.27953005E+02  0.10625E+04
 0.28003004E+02  0.44894E+04
 0.28053003E+02  0.12188E+05
 0.28103004E+02  0.12125E+05
 0.28153004E+02 -0.20154E+04
 0.28203005E+02  0.65800E+04
 0.28253004E+02  0.10487E+05
 0.28303003E+02  0.35248E+04
 0.28353004E+02  0.73526E+04
 0.28403004E+02  0.61026E+04
 0.28453005E+02  0.13736E+05
 0.28503004E+02  0.10863E+05
 0.28553003E+02  0.90590E+04
 0.28603004E+02  0.13669E+05
 0.28653004E+02  0.88660E+04
 0.28703005E+02  0.80848E+04
 0.28753004E+02  0.17340E+04
 0.28803003E+02 -0.13514E+04
 0.28853004E+02  0.13846E+05
 0.28903004E+02  0.17625E+05
 0.28953005E+02  0.42200E+04
 0.29003004E+02  0.30693E+03
 0.29053003E+02 -0.26427E+04
 0.29103004E+02  0.53002E+04
 0.29153004E+02  0.14938E+05
 0.29203005E+02  0.13107E+05
 0.29253004E+02  0.51071E+04
 0.29303003E+02  0.14395E+05
 0.29353004E+02  0.17438E+05
 0.29403004E+02  0.80400E+04
 0.29453005E+02  0.61397E+04
 0.29503004E+02  0.39598E+04
 0.29553003E+02  0.10845E+05
 0.29603004E+02  0.34152E+04
 0.29653004E+02  0.68032E+04
 0.29703005E+02  0.18008E+05
 0.29753004E+02  0.12357E+05
 0.29803003E+02  0.86730E+04
 0.29853004E+02  0.49053E+04
 0.29903004E+02  0.87320E+04
 0.29953005E+02  0.81264E+04
 0.30003004E+02  0.36895E+04
 0.30053005E+02  0.86213E+04
 0.30103004E+02  0.10410E+05
 0.30153004E+02  0.75734E+04
 0.30203003E+02 -0.37755E+04
 0.30253002E+02  0.15061E+03
 0.30303005E+02  0.10747E+05
 0.30353004E+02  0.91943E+04
 0.30403004E+02  0.17201E+05
 0.30453003E+02  0.15393E+05
 0.30503002E+02  0.62568E+04
 0.30553005E+02  0.96294E+04
 0.30603004E+02  0.50721E+04
 0.30653004E+02  0.75349E+04
 0.30703003E+02  0.17946E+04
 0.30753002E+02  0.64285E+04
 0.30803005E+02  0.79284E+04
 0.30853004E+02  0.63280E+04
 0.30903004E+02  0.16905E+05
 0.30953003E+02  0.75865E+04
 0.31003002E+02  0.93528E+04
 0.31053005E+02  0.42645E+04
 0.31103004E+02  0.77420E+04
 0.31153004E+02  0.14610E+05
 0.31203003E+02  0.11362E+05
 0.31253002E+02  0.96829E+04
 0.31303005E+02  0.84625E+03
 0.31353004E+02 -0.26648E+04
 0.31403004E+02  0.55779E+03
 0.31453003E+02  0.64984E+04
 0.31503002E+02  0.17276E+05
 0.31553005E+02  0.15076E+05
 0.31603004E+02  0.90935E+04
 0.31653004E+02  0.60454E+04
 0.31703003E+02  0.75802E+04
 0.31753002E+02  0.82635E+04
 0.31803005E+02  0.81839E+04
 0.31853004E+02  0.14935E+05
 0.31903004E+02  0.45433E+04
 0.31953003E+02  0.58866E+04
 0.32003002E+02  0.66197E+04
 0.32053005E+02  0.46081E+04
 0.32103004E+02  0.99188E+04
 0.32153004E+02  0.99751E+04
 0.32203003E+02  0.59017E+04
 0.32253002E+02  0.84481E+04
 0.32303005E+02  0.97419E+04
 0.32353004E+02  0.84080E+04
 0.32403004E+02  0.11241E+05
 0.32453003E+02  0.45494E+04
 0.32503002E+02  0.85197E+04
 0.32553005E+02  0.56561E+04
 0.32603004E+02 -0.55266E+03
 0.32653004E+02  0.37976E+04
 0.32703003E+02  0.13323E+05
 0.32753002E+02  0.15421E+05
 0.32803005E+02  0.70146E+04
 0.32853004E+02 -0.10855E+02
 0.32903004E+02 -0.55948E+04
 0.32953003E+02  0.83288E+04
 0.33003002E+02  0.20031E+05
 0.33053005E+02  0.25429E+05
 0.33103004E+02  0.12254E+05
 0.33153004E+02 -0.39559E+04
 0.33203003E+02 -0.24640E+04
 0.33253002E+02  0.35842E+04
 0.33303005E+02  0.18453E+05
 0.33353004E+02  0.13851E+05
 0.33403004E+02  0.15703E+05
 0.33453003E+02  0.97298E+04
 0.33503002E+02  0.76509E+04
 0.33553005E+02  0.11629E+05
 0.33603004E+02  0.31536E+04
 0.33653004E+02  0.39444E+04
 0.33703003E+02  0.73177E+02
 0.33753002E+02  0.40332E+04
 0.33803005E+02  0.36728E+04
 0.33853004E+02  0.19410E+05
 0.33903004E+02  0.31983E+05
 0.33953003E+02  0.13875E+05
 0.34003002E+02  0.89555E+03
 0.34053005E+02 -0.10525E+05
 0.34103004E+02 -0.32970E+04
 0.34153004E+02  0.65391E+04
 0.34203003E+02  0.11880E+05
 0.34253002E+02  0.20539E+05
 0.34303005E+02  0.12814E+05
 0.34353004E+02  0.19043E+05
 0.34403004E+02 -0.10835E+04
 0.34453003E+02  0.22675E+03
 0.34503002E+02  0.21391E+05
 0.34553005E+02  0.41511E+04
 0.34603004E+02  0.69882E+04
 0.34653004E+02  0.55303E+04
 0.34703003E+02  0.79221E+04
 0.34753002E+02  0.55803E+04
 0.34803005E+02  0.86233E+04
 0.34853004E+02  0.11980E+05
 0.34903004E+02  0.97038E+04
 0.34953003E+02  0.44153E+04
 0.35003002E+02  0.36541E+04
 0.35053005E+02  0.19043E+05
 0.35103004E+02  0.27381E+05
 0.35153004E+02  0.15071E+05
 0.35203003E+02 -0.10257E+05
 0.35253002E+02  0.29997E+04
 0.35303005E+02 -0.53094E+04
 0.35353004E+02  0.45194E+04
 0.35403004E+02  0.32084E+05
 0.35453003E+02  0.28246E+05
 0.35503002E+02  0.61154E+04
 0.35553005E+02 -0.11090E+05
 0.35603004E+02  0.66475E+04
 0.35653004E+02  0.83474E+04
 0.35703003E+02  0.65482E+04
 0.35753002E+02 -0.27103E+04
 0.35803005E+02  0.99041E+04
 0.35853004E+02  0.29674E+05
 0.35903004E+02  0.74125E+04
 0.35953003E+02 -0.60251E+04
 0.36003002E+02 -0.13512E+04
 0.36053005E+02  0.35854E+04
 0.36103004E+02  0.25782E+04
 0.36153004E+02  0.99797E+04
 0.36203003E+02  0.32448E+05
 0.36253002E+02  0.17637E+05
 0.36303005E+02 -0.10316E+05
 0.36353004E+02 -0.26065E+04
 0.36403004E+02  0.10875E+05
 0.36453003E+02  0.23006E+05
 0.36503002E+02  0.42459E+04
 0.36553005E+02 -0.24578E+03
 0.36603004E+02  0.13200E+05
 0.36653004E+02  0.86874E+04
 0.36703003E+02  0.17825E+05
 0.36753002E+02  0.14296E+05
 0.36803005E+02 -0.95381E+04
 0.36853004E+02 -0.11430E+05
 0.36903004E+02  0.55587E+04
 0.36953003E+02  0.19924E+04
 0.37003002E+02  0.39854E+04
 0.37053005E+02  0.22045E+05
 0.37103004E+02  0.25030E+05
 0.37153004E+02  0.24233E+05
 0.37203003E+02  0.12899E+05
 0.37253002E+02 -0.11457E+05
 0.37303005E+02 -0.20772E+05
 0.37353004E+02 -0.45877E+04
 0.37403004E+02  0.14150E+05
 0.37453003E+02  0.16809E+05
 0.37503002E+02  0.85330E+04
 0.37553005E+02  0.77340E+04
 0.37603004E+02  0.74561E+04
 0.37653004E+02  0.29641E+05
 0.37703003E+02  0.26056E+05
 0.37753002E+02 -0.92630E+04
 0.37803005E+02 -0.12684E+05
 0.37853004E+02 -0.43985E+03
 0.37903004E+02  0.17629E+05
 0.37953003E+02  0.13214E+05
 0.38003002E+02  0.60320E+03
 0.38053005E+02  0.37757E+04
 0.38103004E+02  0.19027E+05
 0.38153004E+02  0.18295E+05
 0.38203003E+02  0.21436E+04
 0.38253002E+02  0.13035E+05
 0.38303005E+02  0.15832E+05
 0.38353004E+02  0.58161E+04
 0.38403004E+02  0.66188E+04
 0.38453003E+02  0.10509E+05
 0.38503002E+02  0.44679E+04
 0.38553005E+02 -0.85589E+03
 0.38603004E+02  0.10128E+05
 0.38653004E+02  0.15133E+05
 0.38703003E+02  0.94798E+04
 0.38753002E+02 -0.81042E+03
 0.38803005E+02  0.61549E+04
 0.38853004E+02 -0.53471E+04
 0.38903004E+02  0.13330E+05
 0.38953003E+02  0.33423E+05
 0.39003002E+02  0.99389E+04
 0.39053005E+02 -0.11585E+04
 0.39103004E+02 -0.32225E+04
 0.39153004E+02  0.34292E+04
 0.39203003E+02  0.10855E+05
 0.39253002E+02  0.19198E+05
 0.39303005E+02  0.10156E+05
 0.39353004E+02  0.52768E+04
 0.39403004E+02  0.15352E+05
 0.39453003E+02  0.15881E+05
 0.39503002E+02  0.49578E+04
 0.39553005E+02  0.54765E+03
 0.39603004E+02  0.90427E+04
 0.39653004E+02  0.93785E+04
 0.39703003E+02  0.18796E+05
 0.39753002E+02  0.19824E+05
 0.39803005E+02  0.16702E+05
 0.39853004E+02  0.95354E+04
 0.39903004E+02 -0.14425E+04
 0.39953003E+02 -0.18873E+05
 0.40003002E+02 -0.56586E+04
 0.40053005E+02  0.20938E+05
 0.40103004E+02  0.24799E+05
 0.40153004E+02  0.24771E+05
 0.40203003E+02  0.68654E+04
 0.40253002E+02  0.58055E+04
 0.40303005E+02  0.34459E+04
 0.40353004E+02  0.10819E+05
 0.40403004E+02  0.44494E+04
 0.40453003E+02  0.84453E+02
 0.40503002E+02  0.11426E+04
 0.40553005E+02 -0.81188E+03
 0.40603004E+02  0.69430E+04
 0.40653004E+02  0.39016E+04
 0.40703003E+02  0.10089E+05
 0.40753002E+02  0.10240E+05
 0.40803005E+02  0.96904E+03
 0.40853004E+02  0.87834E+03
 0.40903004E+02  0.49469E+04
 0.40953003E+02  0.13206E+04
 0.41003002E+02  0.62007E+04
 0.41053005E+02  0.99028E+04
 0.41103004E+02  0.55505E+04
 0.41153004E+02  0.14053E+05
 0.41203003E+02  0.19691E+05
 0.41253002E+02  0.11371E+05
 0.41303005E+02  0.90278E+04
 0.41353004E+02 -0.32571E+04
 0.41403004E+02  0.15655E+04
 0.41453003E+02  0.18324E+05
 0.41503002E+02  0.12612E+05
 0.41553005E+02  0.36752E+04
 0.41603004E+02  0.85692E+03
 0.41653004E+02  0.61886E+04
 0.41703003E+02  0.99137E+04
 0.41753002E+02  0.59641E+04
 0.41803005E+02  0.14927E+05
 0.41853004E+02  0.18378E+05
 0.41903004E+02  0.86613E+04
 0.41953003E+02  0.20547E+05
 0.42003002E+02  0.12096E+05
 0.42053005E+02  0.50443E+04
 0.42103004E+02  0.70912E+04
 0.42153004E+02  0.47330E+04
 0.42203003E+02  0.54525E+04
 0.42253002E+02  0.34038E+04
 0.42303005E+02  0.14222E+05
 0.42353004E+02  0.74218E+04
 0.42403004E+02  0.70186E+04
 0.42453003E+02  0.21144E+05
 0.42503002E+02  0.18178E+05
 0.42553005E+02  0.60795E+04
 0.42603004E+02 -0.11861E+04
 0.42653004E+02  0.54608E+03
 0.42703003E+02  0.49842E+04
 0.42753002E+02  0.66895E+04
 0.42803001E+02  0.83010E+04
 0.42853004E+02  0.61643E+04
 0.42903004E+02  0.51003E+04
 0.42953003E+02  0.59305E+04
 0.43003002E+02  0.77489E+04
 0.43053001E+02  0.10747E+05
 0.43103004E+02  0.54613E+04
 0.43153004E+02  0.30364E+04
 0.43203003E+02  0.10928E+05
 0.43253002E+02  0.16209E+05
 0.43303001E+02  0.11902E+05
 0.43353004E+02  0.79858E+04
 0.43403004E+02  0.85865E+04
 0.43453003E+02  0.22693E+04
 0.43503002E+02  0.20942E+04
 0.43553001E+02  0.97101E+04
 0.43603004E+02  0.65459E+04
 0.43653004E+02  0.20345E+04
 0.43703003E+02 -0.27917E+04
 0.43753002E+02  0.70497E+03
 0.43803001E+02  0.10282E+05
 0.43853004E+02  0.20103E+05
 0.43903004E+02  0.15522E+05
 0.43953003E+02  0.76855E+04
 0.44003002E+02  0.73995E+04
 0.44053001E+02  0.42311E+04
 0.44103004E+02  0.11869E+05
 0.44153004E+02  0.23296E+05
 0.44203003E+02  0.22465E+05
 0.44253002E+02  0.91635E+04
 0.44303001E+02  0.26923E+04
 0.44353004E+02  0.78367E+04
 0.44403004E+02  0.15130E+05
 0.44453003E+02  0.94845E+04
 0.44503002E+02  0.64923E+04
 0.44553001E+02  0.47815E+04
 0.44603004E+02  0.30923E+04
 0.44653004E+02  0.84335E+04
 0.44703003E+02  0.71937E+04
 0.44753002E+02  0.12143E+05
 0.44803001E+02  0.19636E+05
 0.44853004E+02  0.12535E+05
 0.44903004E+02  0.71965E+04
 0.44953003E+02  0.97205E+03
 0.45003002E+02 -0.51974E+04
 0.45053001E+02 -0.75973E+04
 0.45103004E+02 -0.20920E+04
 0.45153004E+02  0.94605E+04
 0.45203003E+02  0.63728E+04
 0.45253002E+02  0.77333E+04
 0.45303001E+02  0.47425E+04
 0.45353004E+02  0.65388E+04
 0.45403004E+02  0.11628E+05
 0.45453003E+02  0.13975E+05
 0.45503002E+02  0.17932E+05
 0.45553001E+02  0.10265E+05
 0.45603004E+02  0.39206E+04
 0.45653004E+02  0.17348E+04
 0.45703003E+02  0.21411E+04
 0.45753002E+02  0.50145E+04
 0.45803001E+02  0.71534E+04
 0.45853004E+02  0.10896E+05
 0.45903004E+02  0.11812E+05
 0.45953003E+02  0.10375E+05
 0.46003002E+02  0.43708E+04
 0.46053001E+02  0.44695E+04
 0.46103004E+02  0.11970E+05
 0.46153004E+02  0.73569E+04
 0.46203003E+02  0.11981E+05
 0.46253002E+02  0.12827E+05
 0.46303001E+02  0.10420E+05
 0.46353004E+02  0.14512E+05
 0.46403004E+02  0.16585E+05
 0.46453003E+02  0.18660E+05
 0.46503002E+02  0.12074E+05
 0.46553001E+02  0.10030E+05
 0.46603004E+02  0.69693E+04
 0.46653004E+02  0.30564E+04
 0.46703003E+02  0.55609E+04
 0.46753002E+02  0.56726E+04
 0.46803001E+02  0.98134E+04
 0.46853004E+02  0.12527E+05
 0.46903004E+02  0.50161E+04
 0.46953003E+02  0.42994E+04
 0.47003002E+02 -0.46422E+02
 0.47053001E+02 -0.64710E+04
 0.47103004E+02 -0.14607E+04
 0.47153004E+02 -0.16073E+04
 0.47203003E+02  0.69947E+04
 0.47253002E+02  0.12474E+05
 0.47303001E+02  0.98226E+04
 0.47353004E+02  0.15780E+05
 0.47403004E+02  0.19048E+05
 0.47453003E+02  0.25611E+05
 0.47503002E+02  0.20845E+05
 0.47553001E+02  0.10473E+05
 0.47603004E+02  0.86523E+04
 0.47653004E+02  0.94477E+04
 0.47703003E+02  0.15354E+05
 0.47753002E+02  0.16887E+05
 0.47803001E+02  0.13446E+05
 0.47853004E+02  0.87759E+04
 0.47903004E+02  0.34030E+04
 0.47953003E+02  0.57369E+04
 0.48003002E+02  0.10880E+05
 0.48053001E+02  0.29190E+04
 0.48103004E+02 -0.39170E+04
 0.48153004E+02 -0.10497E+04
 0.48203003E+02  0.62161E+04
 0.48253002E+02  0.94671E+04
 0.48303001E+02  0.98032E+04
 0.48353004E+02  0.12145E+05
 0.48403004E+02  0.69571E+04
 0.48453003E+02  0.15992E+04
 0.48503002E+02  0.45351E+04
 0.48553001E+02  0.84019E+04
 0.48603004E+02  0.10849E+05
 0.48653004E+02  0.11815E+05
 0.48703003E+02  0.72201E+04
 0.48753002E+02  0.82962E+04
 0.48803001E+02  0.32314E+04
 0.48853004E+02 -0.20774E+04
 0.48903004E+02 -0.65288E+04
 0.48953003E+02 -0.67490E+04
 0.49003002E+02 -0.14807E+04
 0.49053001E+02 -0.18206E+02
 0.49103004E+02  0.63056E+04
 0.49153004E+02  0.27239E+04
 0.49203003E+02  0.34818E+04
 0.49253002E+02  0.11504E+05
 0.49303001E+02  0.90723E+04
 0.49353004E+02  0.74257E+04
 0.49403004E+02  0.80634E+04
 0.49453003E+02  0.11777E+05
 0.49503002E+02  0.22341E+05
 0.49553001E+02  0.22229E+05
 0.49603004E+02  0.21941E+05
 0.49653004E+02  0.24049E+05
 0.49703003E+02  0.25299E+05
 0.49753002E+02  0.19796E+05
 0.49803001E+02  0.92994E+04
 0.49853004E+02  0.25155E+04
 0.49903004E+02 -0.50953E+04
 0.49953003E+02 -0.66553E+04
 0.50003002E+02 -0.44843E+04
 0.50053001E+02 -0.58417E+04
 0.50103004E+02 -0.32383E+04
 0.50153004E+02  0.34088E+04
 0.50203003E+02  0.83098E+04
 0.50253002E+02  0.12037E+05
 0.50303001E+02  0.13916E+05
 0.50353004E+02  0.20076E+05
 0.50403004E+02  0.19599E+05
 0.50453003E+02  0.14541E+05
 0.50503002E+02  0.67859E+04
 0.50553001E+02  0.59533E+04
 0.50603004E+02  0.81698E+04
 0.50653004E+02  0.55247E+04
 0.50703003E+02  0.10556E+05
 0.50753002E+02  0.12367E+05
 0.50803001E+02  0.10430E+05
 0.50853004E+02  0.87701E+04
 0.50903004E+02  0.74523E+04
 0.50953003E+02  0.69478E+04
 0.51003002E+02  0.67450E+04
 0.51053001E+02  0.68482E+04
 0.51103004E+02  0.37096E+04
 0.51153004E+02 -0.57984E+03
 0.51203003E+02  0.55272E+04
 0.51253002E+02  0.54439E+04
 0.51303001E+02  0.74029E+04
 0.51353004E+02  0.10550E+05
 0.51403004E+02  0.95471E+04
 0.51453003E+02  0.11250E+05
 0.51503002E+02  0.85637E+04
 0.51553001E+02  0.12846E+05
 0.51603004E+02  0.14513E+05
 0.51653004E+02  0.13152E+05
 0.51703003E+02  0.10816E+05
 0.51753002E+02  0.79249E+04
 0.51803001E+02  0.49500E+04
 0.51853004E+02  0.18201E+04
 0.51903004E+02  0.10905E+04
 0.51953003E+02  0.26697E+04
 0.52003002E+02  0.70202E+04
 0.52053001E+02  0.11803E+05
 0.52103004E+02  0.17157E+05
 0.52153004E+02  0.16614E+05
 0.52203003E+02  0.18335E+05
 0.52253002E+02  0.16554E+05
 0.52303001E+02  0.80322E+04
 0.52353004E+02  0.26141E+04
 0.52403004E+02 -0.13027E+04
 0.52453003E+02 -0.77423E+03
 0.52503002E+02 -0.44996E+03
 0.52553001E+02  0.37753E+04
 0.52603004E+02  0.56199E+04
 0.52653004E+02  0.10041E+05
 0.52703003E+02  0.13178E+05
 0.52753002E+02  0.85418E+04
 0.52803001E+02  0.88369E+04
 0.52853004E+02  0.11534E+05
 0.52903004E+02  0.12573E+05
 0.52953003E+02  0.11185E+05
 0.53003002E+02  0.15133E+05
 0.53053001E+02  0.15210E+05
 0.53103004E+02  0.98288E+04
 0.53153004E+02  0.11057E+05
 0.53203003E+02  0.13089E+05
 0.53253002E+02  0.10996E+05
 0.53303001E+02  0.78283E+04
 0.53353004E+02  0.53054E+04
 0.53403004E+02  0.24346E+04
 0.53453003E+02  0.97783E+03
 0.53503002E+02  0.35876E+04
 0.53553001E+02  0.12619E+04
 0.53603004E+02 -0.15063E+04
 0.53653004E+02  0.90005E+03
 0.53703003E+02  0.21248E+04
 0.53753002E+02  0.23237E+04
 0.53803001E+02  0.52128E+04
 0.53853004E+02  0.10153E+05
 0.53903004E+02  0.12827E+05
 0.53953003E+02  0.13177E+05
 0.54003002E+02  0.12608E+05
 0.54053001E+02  0.12023E+05
 0.54103004E+02  0.10382E+05
 0.54153004E+02  0.94694E+04
 0.54203003E+02  0.10549E+05
 0.54253002E+02  0.68916E+04
 0.54303001E+02  0.18759E+04
 0.54353004E+02  0.96209E+03
 0.54403004E+02  0.26352E+04
 0.54453003E+02  0.63445E+04
 0.54503002E+02  0.86327E+04
 0.54553001E+02  0.11799E+05
 0.54603004E+02  0.12239E+05
 0.54653004E+02  0.11912E+05
 0.54703003E+02  0.11008E+05
 0.54753002E+02  0.85802E+04
 0.54803001E+02  0.65261E+04
 0.54853004E+02  0.42904E+04
 0.54903004E+02  0.38406E+04
 0.54953003E+02  0.56134E+04
 0.55003002E+02  0.44519E+04
 0.55053001E+02  0.73090E+04
 0.55103004E+02  0.12841E+05
 0.55153004E+02  0.12264E+05
 0.55203003E+02  0.10965E+05
 0.55253002E+02  0.77381E+04
 0.55303001E+02  0.83104E+04
 0.55353004E+02  0.11722E+05
 0.55403004E+02  0.15537E+05
 0.55453003E+02  0.13387E+05
 0.55503002E+02  0.85447E+04
 0.55553001E+02  0.88863E+04
 0.55603004E+02  0.61507E+04
 0.55653004E+02  0.53297E+04
 0.55703003E+02  0.54655E+04
 0.55753002E+02  0.45595E+04
 0.55803001E+02  0.93000E+04
 0.55853001E+02  0.14133E+05
 0.55903004E+02  0.16899E+05
 0.55953003E+02  0.16940E+05
 0.56003002E+02  0.13583E+05
 0.56053001E+02  0.83772E+04
 0.56103001E+02  0.40583E+04
 0.56153004E+02  0.40013E+04
 0.56203003E+02  0.26189E+04
 0.56253002E+02  0.22600E+04
 0.56303001E+02  0.34376E+04
 0.56353001E+02  0.34445E+04
 0.56403004E+02  0.37701E+04
 0.56453003E+02  0.56919E+04
 0.56503002E+02  0.10038E+05
 0.56553001E+02  0.11974E+05
 0.56603001E+02  0.11884E+05
 0.56653004E+02  0.13059E+05
 0.56703003E+02  0.13884E+05
 0.56753002E+02  0.10182E+05
 0.56803001E+02  0.66939E+04
 0.56853001E+02  0.45179E+04
 0.56903004E+02  0.24786E+04
 0.56953003E+02  0.24013E+04
 0.57003002E+02  0.31925E+04
 0.57053001E+02  0.46207E+04
 0.57103001E+02  0.40088E+04
 0.57153004E+02  0.61445E+04
 0.57203003E+02  0.69934E+04
 0.57253002E+02  0.52855E+04
 0.57303001E+02  0.62516E+04
 0.57353001E+02  0.43060E+04
 0.57403004E+02  0.36997E+04
 0.57453003E+02  0.40131E+04
 0.57503002E+02  0.58821E+04
 0.57553001E+02  0.12466E+05
 0.57603001E+02  0.15338E+05
 0.57653004E+02  0.17748E+05
 0.57703003E+02  0.19432E+05
 0.57753002E+02  0.17684E+05
 0.57803001E+02  0.13948E+05
 0.57853001E+02  0.10391E+05
 0.57903004E+02  0.83991E+04
 0.57953003E+02  0.59460E+04
 0.58003002E+02  0.57904E+04
 0.58053001E+02  0.58344E+04
 0.58103001E+02  0.53831E+04
 0.58153004E+02  0.42970E+04
 0.58203003E+02  0.28540E+04
 0.58253002E+02  0.27777E+04
 0.58303001E+02  0.35211E+04
 0.58353001E+02  0.60178E+04
 0.58403004E+02  0.90894E+04
 0.58453003E+02  0.10707E+05
 0.58503002E+02  0.11387E+05
 0.58553001E+02  0.12559E+05
 0.58603001E+02  0.11950E+05
 0.58653004E+02  0.80237E+04
 0.58703003E+02  0.73138E+04
 0.58753002E+02  0.89626E+04
 0.58803001E+02  0.94767E+04
 0.58853001E+02  0.10569E+05
 0.58903004E+02  0.10913E+05
 0.58953003E+02  0.13502E+05
 0.59003002E+02  0.13544E+05
 0.59053001E+02  0.11397E+05
 0.59103001E+02  0.10733E+05
 0.59153004E+02  0.80084E+04
 0.59203003E+02  0.78683E+04
 0.59253002E+02  0.72052E+04
 0.59303001E+02  0.40262E+04
 0.59353001E+02  0.24545E+04
 0.59403004E+02  0.39939E+04
 0.59453003E+02  0.53066E+04
 0.59503002E+02  0.45944E+04
 0.59553001E+02  0.53563E+04
 0.59603001E+02  0.66185E+04
 0.59653004E+02  0.76307E+04
 0.59703003E+02  0.99279E+04
 0.59753002E+02  0.12482E+05
 0.59803001E+02  0.14151E+05
 0.59853001E+02  0.12114E+05
 0.59903004E+02  0.93791E+04
 0.59953003E+02  0.82554E+04
 0.60003002E+02  0.66870E+04
 0.60053001E+02  0.63950E+04
 0.60103001E+02  0.37413E+04
 0.60153004E+02  0.15597E+04
 0.60203003E+02  0.15554E+04
 0.60253002E+02  0.47497E+03
 0.60303001E+02  0.25811E+04
 0.60353001E+02  0.57034E+04
 0.60403004E+02  0.83901E+04
 0.60453003E+02  0.91668E+04
 0.60503002E+02  0.86484E+04
 0.60553001E+02  0.97971E+04
 0.60603001E+02  0.10525E+05
 0.60653004E+02  0.10693E+05
 0.60703003E+02  0.88363E+04
 0.60753002E+02  0.10898E+05
 0.60803001E+02  0.12671E+05
 0.60853001E+02  0.12022E+05
 0.60903004E+02  0.12091E+05
 0.60953003E+02  0.12281E+05
 0.61003002E+02  0.14115E+05
 0.61053001E+02  0.12772E+05
 0.61103001E+02  0.11229E+05
 0.61153004E+02  0.93306E+04
 0.61203003E+02  0.82920E+04
 0.61253002E+02  0.84564E+04
 0.61303001E+02  0.62226E+04
 0.61353001E+02  0.72418E+04
 0.61403004E+02  0.78682E+04
 0.61453003E+02  0.73847E+04
 0.61503002E+02  0.81311E+04
 0.61553001E+02  0.67395E+04
 0.61603001E+02  0.62288E+04
 0.61653004E+02  0.65855E+04
 0.61703003E+02  0.54623E+04
 0.61753002E+02  0.50955E+04
 0.61803001E+02  0.41411E+04
 0.61853001E+02  0.24271E+04
 0.61903004E+02  0.18317E+04
 0.61953003E+02  0.12432E+04
 0.62003002E+02  0.14524E+04
 0.62053001E+02  0.20797E+04
 0.62103004E+02  0.36013E+04
 0.62153000E+02  0.52718E+04
 0.62203003E+02  0.82175E+04
 0.62252998E+02  0.12145E+05
 0.62303001E+02  0.12332E+05
 0.62353004E+02  0.11899E+05
 0.62403000E+02  0.13404E+05
 0.62453003E+02  0.13181E+05
 0.62502998E+02  0.11068E+05
 0.62553001E+02  0.11329E+05
 0.62603004E+02  0.12163E+05
 0.62653000E+02  0.10838E+05
 0.62703003E+02  0.95682E+04
 0.62752998E+02  0.98018E+04
 0.62803001E+02  0.92073E+04
 0.62853004E+02  0.92103E+04
 0.62903000E+02  0.11529E+05
 0.62953003E+02  0.11390E+05
 0.63002998E+02  0.97676E+04
 0.63053001E+02  0.92417E+04
 0.63103004E+02  0.93437E+04
 0.63153000E+02  0.87814E+04
 0.63203003E+02  0.68731E+04
 0.63252998E+02  0.47350E+04
 0.63303001E+02  0.29791E+04
 0.63353004E+02  0.23124E+04
 0.63403000E+02  0.87141E+03
 0.63453003E+02  0.97199E+03
 0.63502998E+02  0.39550E+04
 0.63553001E+02  0.66168E+04
 0.63603004E+02  0.82037E+04
 0.63653000E+02  0.72924E+04
 0.63703003E+02  0.83334E+04
 0.63752998E+02  0.92306E+04
 0.63803001E+02  0.98443E+04
 0.63853004E+02  0.10399E+05
 0.63903000E+02  0.98227E+04
 0.63953003E+02  0.10103E+05
 0.64002998E+02  0.94905E+04
 0.64053001E+02  0.12267E+05
 0.64103004E+02  0.13464E+05
 0.64153000E+02  0.11930E+05
 0.64203003E+02  0.10629E+05
 0.64252998E+02  0.85971E+04
 0.64303001E+02  0.77557E+04
 0.64353004E+02  0.85953E+04
 0.64403000E+02  0.86342E+04
 0.64453003E+02  0.10372E+05
 0.64502998E+02  0.12899E+05
 0.64553001E+02  0.12277E+05
 0.64603004E+02  0.12169E+05
 0.64653000E+02  0.10954E+05
 0.64703003E+02  0.97697E+04
 0.64752998E+02  0.96977E+04
 0.64803001E+02  0.86526E+04
 0.64853004E+02  0.61931E+04
 0.64903000E+02  0.45113E+04
 0.64953003E+02  0.35910E+04
 0.65002998E+02  0.35889E+04
 0.65053001E+02  0.46203E+04
 0.65103004E+02  0.37394E+04
 0.65153000E+02  0.30306E+04
 0.65203003E+02  0.25053E+04
 0.65252998E+02  0.22830E+04
 0.65303001E+02  0.16032E+04
 0.65353004E+02  0.19839E+04
 0.65403000E+02  0.20758E+04
 0.65453003E+02  0.19627E+04
 0.65502998E+02  0.34426E+04
 0.65553001E+02  0.31986E+04
 0.65603004E+02  0.45614E+04
 0.65653000E+02  0.80431E+04
 0.65703003E+02  0.10607E+05
 0.65752998E+02  0.11385E+05
 0.65803001E+02  0.11886E+05
 0.65853004E+02  0.12149E+05
 0.65903000E+02  0.11196E+05
 0.65953003E+02  0.12096E+05
 0.66002998E+02  0.13358E+05
 0.66053001E+02  0.14353E+05
 0.66103004E+02  0.16704E+05
 0.66153000E+02  0.17663E+05
 0.66203003E+02  0.18845E+05
 0.66252998E+02  0.17753E+05
 0.66303001E+02  0.15240E+05
 0.66353004E+02  0.13379E+05
 0.66403000E+02  0.10683E+05
 0.66453003E+02  0.94367E+04
 0.66502998E+02  0.86928E+04
 0.66553001E+02  0.81930E+04
 0.66603004E+02  0.67404E+04
 0.66653000E+02  0.71993E+04
 0.66703003E+02  0.80228E+04
 0.66752998E+02  0.63330E+04
 0.66803001E+02  0.60932E+04
 0.66853004E+02  0.50398E+04
 0.66903000E+02  0.43632E+04
 0.66953003E+02  0.43131E+04
 0.67002998E+02  0.31913E+04
 0.67053001E+02  0.37456E+04
 0.67103004E+02  0.42158E+04
 0.67153000E+02  0.35050E+04
 0.67203003E+02  0.25203E+04
 0.67252998E+02  0.24888E+04
 0.67303001E+02  0.28048E+04
 0.67353004E+02  0.22100E+04
 0.67403000E+02  0.39650E+04
 0.67453003E+02  0.42746E+04
 0.67502998E+02  0.35914E+04
 0.67553001E+02  0.45429E+04
 0.67603004E+02  0.50257E+04
 0.67653000E+02  0.50524E+04
 0.67703003E+02  0.55436E+04
 0.67752998E+02  0.71201E+04
 0.67803001E+02  0.69392E+04
 0.67853004E+02  0.80341E+04
 0.67903000E+02  0.95140E+04
 0.67953003E+02  0.10919E+05
 0.68002998E+02  0.12363E+05
 0.68053001E+02  0.11780E+05
 0.68103004E+02  0.12789E+05
 0.68153000E+02  0.14243E+05
 0.68203003E+02  0.16034E+05
 0.68252998E+02  0.17121E+05
 0.68303001E+02  0.16651E+05
 0.68353004E+02  0.15248E+05
 0.68403000E+02  0.12642E+05
 0.68453003E+02  0.12514E+05
 0.68502998E+02  0.11742E+05
 0.68553001E+02  0.96365E+04
 0.68603004E+02  0.90514E+04
 0.68653000E+02  0.86542E+04
 0.68703003E+02  0.78757E+04
 0.68752998E+02  0.70405E+04
 0.68803001E+02  0.65404E+04
 0.68853004E+02  0.58302E+04
 0.68903000E+02  0.49454E+04
 0.68953003E+02  0.42595E+04
 0.69002998E+02  0.51514E+04
 0.69053001E+02  0.56167E+04
 0.69103004E+02  0.53075E+04
 0.69153000E+02  0.47181E+04
 0.69203003E+02  0.38252E+04
 0.69252998E+02  0.40997E+04
 0.69303001E+02  0.49069E+04
 0.69353004E+02  0.59241E+04
 0.69403000E+02  0.74048E+04
 0.69453003E+02  0.79607E+04
 0.69502998E+02  0.81041E+04
 0.69553001E+02  0.79142E+04
 0.69603004E+02  0.71533E+04
 0.69653000E+02  0.61936E+04
 0.69703003E+02  0.60260E+04
 0.69752998E+02  0.73659E+04
 0.69803001E+02  0.94358E+04
 0.69853004E+02  0.11613E+05
 0.69903000E+02  0.11583E+05
 0.69953003E+02  0.11153E+05
 0.70002998E+02  0.10446E+05
 0.70053001E+02  0.97634E+04
 0.70103004E+02  0.10413E+05
 0.70153000E+02  0.11097E+05
 0.70203003E+02  0.11554E+05
 0.70252998E+02  0.11902E+05
 0.70303001E+02  0.12193E+05
 0.70353004E+02  0.11049E+05
 0.70403000E+02  0.94446E+04
 0.70453003E+02  0.82060E+04
 0.70502998E+02  0.69685E+04
 0.70553001E+02  0.58465E+04
 0.70603004E+02  0.50030E+04
 0.70653000E+02  0.53808E+04
 0.70703003E+02  0.54145E+04
 0.70752998E+02  0.57439E+04
 0.70803001E+02  0.51817E+04
 0.70853004E+02  0.43698E+04
 0.70903000E+02  0.37096E+04
 0.70953003E+02  0.30354E+04
 0.71002998E+02  0.39895E+04
 0.71053001E+02  0.55605E+04
 0.71103004E+02  0.80299E+04
 0.71153000E+02  0.89580E+04
 0.71203003E+02  0.89046E+04
 0.71252998E+02  0.91608E+04
 0.71303001E+02  0.85195E+04
 0.71353004E+02  0.78946E+04
 0.71403000E+02  0.79627E+04
 0.71453003E+02  0.81470E+04
 0.71502998E+02  0.85612E+04
 0.71553001E+02  0.86484E+04
 0.71603004E+02  0.93779E+04
 0.71653000E+02  0.97112E+04
 0.71703003E+02  0.91483E+04
 0.71752998E+02  0.91550E+04
 0.71803001E+02  0.94019E+04
 0.71853004E+02  0.10487E+05
 0.71903000E+02  0.10800E+05
 0.71953003E+02  0.10343E+05
 0.72002998E+02  0.10680E+05
 0.72053001E+02  0.11319E+05
 0.72103004E+02  0.10697E+05
 0.72153000E+02  0.94724E+04
 0.72203003E+02  0.92458E+04
 0.72252998E+02  0.93436E+04
 0.72303001E+02  0.88337E+04
 0.72353004E+02  0.80928E+04
 0.72403000E+02  0.76316E+04
 0.72453003E+02  0.81359E+04
 0.72502998E+02  0.76574E+04
 0.72553001E+02  0.72909E+04
 0.72603004E+02  0.80307E+04
 0.72653000E+02  0.85066E+04
 0.72703003E+02  0.88600E+04
 0.72752998E+02  0.81534E+04
 0.72803001E+02  0.72810E+04
 0.72853004E+02  0.67536E+04
 0.72903000E+02  0.64956E+04
 0.72953003E+02  0.65056E+04
 0.73002998E+02  0.68267E+04
 0.73053001E+02  0.64488E+04
 0.73103004E+02  0.59965E+04
 0.73153000E+02  0.59016E+04
 0.73203003E+02  0.52955E+04
 0.73252998E+02  0.53477E+04
 0.73303001E+02  0.64922E+04
 0.73353004E+02  0.69574E+04
 0.73403000E+02  0.73386E+04
 0.73453003E+02  0.70162E+04
 0.73502998E+02  0.61683E+04
 0.73553001E+02  0.67505E+04
 0.73603004E+02  0.74791E+04
 0.73653000E+02  0.80022E+04
 0.73703003E+02  0.82630E+04
 0.73752998E+02  0.76658E+04
 0.73803001E+02  0.84825E+04
 0.73853004E+02  0.10026E+05
 0.73903000E+02  0.10129E+05
 0.73953003E+02  0.93676E+04
 0.74002998E+02  0.87429E+04
 0.74053001E+02  0.84260E+04
 0.74103004E+02  0.79616E+04
 0.74153000E+02  0.85048E+04
 0.74203003E+02  0.86274E+04
 0.74252998E+02  0.99644E+04
 0.74303001E+02  0.11078E+05
 0.74353004E+02  0.11094E+05
 0.74403000E+02  0.11319E+05
 0.74453003E+02  0.10397E+05
 0.74502998E+02  0.98264E+04
 0.74553001E+02  0.97466E+04
 0.74603004E+02  0.96631E+04
 0.74653000E+02  0.87880E+04
 0.74703003E+02  0.88451E+04
 0.74752998E+02  0.86871E+04
 0.74803001E+02  0.77142E+04
 0.74853004E+02  0.71890E+04
 0.74903000E+02  0.60765E+04
 0.74953003E+02  0.51976E+04
 0.75002998E+02  0.44420E+04
 0.75053001E+02  0.41016E+04
 0.75103004E+02  0.44807E+04
 0.75153000E+02  0.57718E+04
 0.75203003E+02  0.64052E+04
 0.75252998E+02  0.69728E+04
 0.75303001E+02  0.83455E+04
 0.75353004E+02  0.89695E+04
 0.75403000E+02  0.93935E+04
 0.75453003E+02  0.87826E+04
 0.75502998E+02  0.80639E+04
 0.75553001E+02  0.84939E+04
 0.75603004E+02  0.96470E+04
 0.75653000E+02  0.10266E+05
 0.75703003E+02  0.95454E+04
 0.75752998E+02  0.84339E+04
 0.75803001E+02  0.80770E+04
 0.75853004E+02  0.86281E+04
 0.75903000E+02  0.93068E+04
 0.75953003E+02  0.85471E+04
 0.76002998E+02  0.75261E+04
 0.76053001E+02  0.78427E+04
 0.76103004E+02  0.79324E+04
 0.76153000E+02  0.86870E+04
 0.76203003E+02  0.98748E+04
 0.76252998E+02  0.99324E+04
 0.76303001E+02  0.92811E+04
 0.76353004E+02  0.83379E+04
 0.76403000E+02  0.82102E+04
 0.76453003E+02  0.86639E+04
 0.76502998E+02  0.95346E+04
 0.76553001E+02  0.10318E+05
 0.76603004E+02  0.10221E+05
 0.76653000E+02  0.10267E+05
 0.76703003E+02  0.91262E+04
 0.76752998E+02  0.79867E+04
 0.76803001E+02  0.80605E+04
 0.76853004E+02  0.72499E+04
 0.76903000E+02  0.63709E+04
 0.76953003E+02  0.52042E+04
 0.77002998E+02  0.40670E+04
 0.77053001E+02  0.41513E+04
 0.77103004E+02  0.46948E+04
 0.77153000E+02  0.51861E+04
 0.77203003E+02  0.59509E+04
 0.77252998E+02  0.61413E+04
 0.77303001E+02  0.56852E+04
 0.77353004E+02  0.61685E+04
 0.77403000E+02  0.66308E+04
 0.77453003E+02  0.71192E+04
 0.77502998E+02  0.78123E+04
 0.77553001E+02  0.85012E+04
 0.77603004E+02  0.94087E+04
 0.77653000E+02  0.94948E+04
 0.77703003E+02  0.87484E+04
 0.77752998E+02  0.81756E+04
 0.77803001E+02  0.81132E+04
 0.77853004E+02  0.81046E+04
 0.77903000E+02  0.84577E+04
 0.77953003E+02  0.92814E+04
 0.78002998E+02  0.98336E+04
 0.78053001E+02  0.97123E+04
 0.78103004E+02  0.92993E+04
 0.78153000E+02  0.96507E+04
 0.78203003E+02  0.99992E+04
 0.78252998E+02  0.99337E+04
 0.78303001E+02  0.10018E+05
 0.78353004E+02  0.10237E+05
 0.78403000E+02  0.96011E+04
 0.78453003E+02  0.82873E+04
 0.78502998E+02  0.77122E+04
 0.78553001E+02  0.73313E+04
 0.78603004E+02  0.75111E+04
 0.78653000E+02  0.82065E+04
 0.78703003E+02  0.85943E+04
 0.78752998E+02  0.85625E+04
 0.78803001E+02  0.88560E+04
 0.78853004E+02  0.87012E+04
 0.78903000E+02  0.83781E+04
 0.78953003E+02  0.82856E+04
 0.79002998E+02  0.82159E+04
 0.79053001E+02  0.83244E+04
 0.79103004E+02  0.78900E+04
 0.79153000E+02  0.73611E+04
 0.79203003E+02  0.68386E+04
 0.79252998E+02  0.68825E+04
 0.79303001E+02  0.71899E+04
 0.79353004E+02  0.81198E+04
 0.79403000E+02  0.92519E+04
 0.79453003E+02  0.92003E+04
 0.79502998E+02  0.91254E+04
 0.79553001E+02  0.89052E+04
 0.79603004E+02  0.83911E+04
 0.79653000E+02  0.86313E+04
 0.79703003E+02  0.84595E+04
 0.79752998E+02  0.82289E+04
 0.79803001E+02  0.75197E+04
 0.79853004E+02  0.69208E+04
 0.79903000E+02  0.74611E+04
 0.79953003E+02  0.73322E+04
 0.80002998E+02  0.72441E+04
 0.80053001E+02  0.76770E+04
 0.80103004E+02  0.80582E+04
 0.80153000E+02  0.84709E+04
 0.80203003E+02  0.87699E+04
 0.80252998E+02  0.81846E+04
 0.80303001E+02  0.73787E+04
 0.80353004E+02  0.64534E+04
 0.80403000E+02  0.57593E+04
 0.80453003E+02  0.62375E+04
 0.80502998E+02  0.72127E+04
 0.80553001E+02  0.77537E+04
 0.80603004E+02  0.80246E+04
 0.80653000E+02  0.81990E+04
 0.80703003E+02  0.80663E+04
 0.80752998E+02  0.78103E+04
 0.80803001E+02  0.78490E+04
 0.80853004E+02  0.84576E+04
 0.80903000E+02  0.92035E+04
 0.80953003E+02  0.93177E+04
 0.81002998E+02  0.85826E+04
 0.81053001E+02  0.83435E+04
 0.81103004E+02  0.83665E+04
 0.81153000E+02  0.87185E+04
 0.81203003E+02  0.88661E+04
 0.81252998E+02  0.86663E+04
 0.81303001E+02  0.86094E+04
 0.81353004E+02  0.81584E+04
 0.81403000E+02  0.73450E+04
 0.81453003E+02  0.67788E+04
 0.81502998E+02  0.68870E+04
 0.81553001E+02  0.73314E+04
 0.81603004E+02  0.71364E+04
 0.81653000E+02  0.63330E+04
 0.81703003E+02  0.60301E+04
 0.81752998E+02  0.59828E+04
 0.81803001E+02  0.66507E+04
 0.81853004E+02  0.77471E+04
 0.81903000E+02  0.87646E+04
 0.81953003E+02  0.88163E+04
 0.82002998E+02  0.84493E+04
 0.82053001E+02  0.87575E+04
 0.82103004E+02  0.95759E+04
 0.82153000E+02  0.10039E+05
 0.82203003E+02  0.93390E+04
 0.82252998E+02  0.92554E+04
 0.82303001E+02  0.98381E+04
 0.82353004E+02  0.10511E+05
 0.82403000E+02  0.10369E+05
 0.82453003E+02  0.96557E+04
 0.82502998E+02  0.94783E+04
 0.82553001E+02  0.95355E+04
 0.82603004E+02  0.95753E+04
 0.82653000E+02  0.90784E+04
 0.82703003E+02  0.80726E+04
 0.82752998E+02  0.76833E+04
 0.82803001E+02  0.73501E+04
 0.82853004E+02  0.66039E+04
 0.82903000E+02  0.69952E+04
 0.82953003E+02  0.76211E+04
 0.83002998E+02  0.81746E+04
 0.83053001E+02  0.80253E+04
 0.83103004E+02  0.77756E+04
 0.83153000E+02  0.78991E+04
 0.83203003E+02  0.77541E+04
 0.83252998E+02  0.77183E+04
 0.83303001E+02  0.78938E+04
 0.83353004E+02  0.82020E+04
 0.83403000E+02  0.83576E+04
 0.83453003E+02  0.85963E+04
 0.83502998E+02  0.85465E+04
 0.83553001E+02  0.85467E+04
 0.83603004E+02  0.81073E+04
 0.83653000E+02  0.73199E+04
 0.83703003E+02  0.70541E+04
 0.83752998E+02  0.68482E+04
 0.83803001E+02  0.69838E+04
 0.83853004E+02  0.76442E+04
 0.83903000E+02  0.80563E+04
 0.83953003E+02  0.79464E+04
 0.84002998E+02  0.78767E+04
 0.84053001E+02  0.80462E+04
 0.84103004E+02  0.77291E+04
 0.84153000E+02  0.81361E+04
 0.84203003E+02  0.86542E+04
 0.84252998E+02  0.82780E+04
 0.84303001E+02  0.79054E+04
 0.84353004E+02  0.77515E+04
 0.84403000E+02  0.78454E+04
 0.84453003E+02  0.74436E+04
 0.84502998E+02  0.70806E+04
 0.84553001E+02  0.71773E+04
 0.84603004E+02  0.72916E+04
 0.84653000E+02  0.70740E+04
 0.84703003E+02  0.65875E+04
 0.84752998E+02  0.62224E+04
 0.84803001E+02  0.61816E+04
 0.84853004E+02  0.65452E+04
 0.84903000E+02  0.71627E+04
 0.84953003E+02  0.73515E+04
 0.85002998E+02  0.70941E+04
 0.85053001E+02  0.65768E+04
 0.85103004E+02  0.67563E+04
 0.85153000E+02  0.74015E+04
 0.85203003E+02  0.79347E+04
 0.85252998E+02  0.83053E+04
 0.85303001E+02  0.84704E+04
 0.85353004E+02  0.97965E+04
 0.85403000E+02  0.11111E+05
 0.85453003E+02  0.11316E+05
 0.85502998E+02  0.11220E+05
 0.85553001E+02  0.11102E+05
 0.85603004E+02  0.11034E+05
 0.85653000E+02  0.11029E+05
 0.85703003E+02  0.11029E+05
 0.85752998E+02  0.10895E+05
 0.85803001E+02  0.10259E+05
 0.85853004E+02  0.95302E+04
 0.85903000E+02  0.91409E+04
 0.85953003E+02  0.88977E+04
 0.86002998E+02  0.92893E+04
 0.86053001E+02  0.98425E+04
 0.86103004E+02  0.94712E+04
 0.86153000E+02  0.81810E+04
 0.86203003E+02  0.69786E+04
 0.86252998E+02  0.67598E+04
 0.86303001E+02  0.64205E+04
 0.86353004E+02  0.56082E+04
 0.86403000E+02  0.52093E+04
 0.86453003E+02  0.51444E+04
 0.86502998E+02  0.55901E+04
 0.86553001E+02  0.64739E+04
 0.86603004E+02  0.73801E+04
 0.86653000E+02  0.80661E+04
 0.86703003E+02  0.82421E+04
 0.86752998E+02  0.77983E+04
 0.86803001E+02  0.73789E+04
 0.86853004E+02  0.76799E+04
 0.86903000E+02  0.80642E+04
 0.86953003E+02  0.76926E+04
 0.87002998E+02  0.75014E+04
 0.87053001E+02  0.79985E+04
 0.87103004E+02  0.81760E+04
 0.87153000E+02  0.81812E+04
 0.87203003E+02  0.81048E+04
 0.87252998E+02  0.78720E+04
 0.87303001E+02  0.75383E+04
 0.87353004E+02  0.75243E+04
 0.87403000E+02  0.80757E+04
 0.87453003E+02  0.88945E+04
 0.87502998E+02  0.94540E+04
 0.87553001E+02  0.95648E+04
 0.87602997E+02  0.97721E+04
 0.87653000E+02  0.94688E+04
 0.87703003E+02  0.87257E+04
 0.87752998E+02  0.82741E+04
 0.87803001E+02  0.81883E+04
 0.87852997E+02  0.84397E+04
 0.87903000E+02  0.86186E+04
 0.87953003E+02  0.86699E+04
 0.88002998E+02  0.86413E+04
 0.88053001E+02  0.80686E+04
 0.88102997E+02  0.79231E+04
 0.88153000E+02  0.81537E+04
 0.88203003E+02  0.79004E+04
 0.88252998E+02  0.75656E+04
 0.88303001E+02  0.73734E+04
 0.88352997E+02  0.73201E+04
 0.88403000E+02  0.70154E+04
 0.88453003E+02  0.71038E+04
 0.88502998E+02  0.77195E+04
 0.88553001E+02  0.82198E+04
 0.88602997E+02  0.82369E+04
 0.88653000E+02  0.80689E+04
 0.88703003E+02  0.81538E+04
 0.88752998E+02  0.80709E+04
 0.88803001E+02  0.79075E+04
 0.88852997E+02  0.78693E+04
 0.88903000E+02  0.79964E+04
 0.88953003E+02  0.83849E+04
 0.89002998E+02  0.83507E+04
 0.89053001E+02  0.80202E+04
 0.89102997E+02  0.77889E+04
 0.89153000E+02  0.75630E+04
 0.89203003E+02  0.73829E+04
 0.89252998E+02  0.78500E+04
 0.89303001E+02  0.86841E+04
 0.89352997E+02  0.90781E+04
 0.89403000E+02  0.90093E+04
 0.89453003E+02  0.90098E+04
 0.89502998E+02  0.93144E+04
 0.89553001E+02  0.93595E+04
 0.89602997E+02  0.90903E+04
 0.89653000E+02  0.80438E+04
 0.89703003E+02  0.73114E+04
 0.89752998E+02  0.72450E+04
 0.89803001E+02  0.70814E+04
 0.89852997E+02  0.69240E+04
 0.89903000E+02  0.63218E+04
 0.89953003E+02  0.61508E+04
 0.90002998E+02  0.68638E+04
 0.90053001E+02  0.73846E+04
 0.90102997E+02  0.74692E+04
 0.90153000E+02  0.73622E+04
 0.90203003E+02  0.70405E+04
 0.90252998E+02  0.67466E+04
 0.90303001E+02  0.68619E+04
 0.90352997E+02  0.73621E+04
 0.90403000E+02  0.78896E+04
 0.90453003E+02  0.80502E+04
 0.90502998E+02  0.83103E+04
 0.90553001E+02  0.88456E+04
 0.90602997E+02  0.94426E+04
 0.90653000E+02  0.10279E+05
 0.90703003E+02  0.10653E+05
 0.90752998E+02  0.10787E+05
 0.90803001E+02  0.10874E+05
 0.90852997E+02  0.10501E+05
 0.90903000E+02  0.10156E+05
 0.90953003E+02  0.94566E+04
 0.91002998E+02  0.86424E+04
 0.91053001E+02  0.79112E+04
 0.91102997E+02  0.73777E+04
 0.91153000E+02  0.71194E+04
 0.91203003E+02  0.73608E+04
 0.91252998E+02  0.78772E+04
 0.91303001E+02  0.76976E+04
 0.91352997E+02  0.75901E+04
 0.91403000E+02  0.76353E+04
 0.91453003E+02  0.77764E+04
 0.91502998E+02  0.79401E+04
 0.91553001E+02  0.79845E+04
 0.91602997E+02  0.81494E+04
 0.91653000E+02  0.78504E+04
 0.91703003E+02  0.75759E+04
 0.91752998E+02  0.73045E+04
 0.91803001E+02  0.68969E+04
 0.91852997E+02  0.66110E+04
 0.91903000E+02  0.65198E+04
 0.91953003E+02  0.68652E+04
 0.92002998E+02  0.72305E+04
 0.92053001E+02  0.75219E+04
 0.92102997E+02  0.73999E+04
 0.92153000E+02  0.69720E+04
 0.92203003E+02  0.69000E+04
 0.92252998E+02  0.73917E+04
 0.92303001E+02  0.79936E+04
 0.92352997E+02  0.83817E+04
 0.92403000E+02  0.82005E+04
 0.92453003E+02  0.81301E+04
 0.92502998E+02  0.87621E+04
 0.92553001E+02  0.93058E+04
 0.92602997E+02  0.10092E+05
 0.92653000E+02  0.10559E+05
 0.92703003E+02  0.10352E+05
 0.92752998E+02  0.10211E+05
 0.92803001E+02  0.10003E+05
 0.92852997E+02  0.92877E+04
 0.92903000E+02  0.85443E+04
 0.92953003E+02  0.79995E+04
 0.93002998E+02  0.77931E+04
 0.93053001E+02  0.82757E+04
 0.93102997E+02  0.85935E+04
 0.93153000E+02  0.83541E+04
 0.93203003E+02  0.77765E+04
 0.93252998E+02  0.72632E+04
 0.93303001E+02  0.70478E+04
 0.93352997E+02  0.69920E+04
 0.93403000E+02  0.67276E+04
 0.93453003E+02  0.63455E+04
 0.93502998E+02  0.64343E+04
 0.93553001E+02  0.67730E+04
 0.93602997E+02  0.71431E+04
 0.93653000E+02  0.75751E+04
 0.93703003E+02  0.78825E+04
 0.93752998E+02  0.81295E+04
 0.93803001E+02  0.84156E+04
 0.93852997E+02  0.87362E+04
 0.93903000E+02  0.87647E+04
 0.93953003E+02  0.88855E+04
 0.94002998E+02  0.92130E+04
 0.94053001E+02  0.92697E+04
 0.94102997E+02  0.92575E+04
 0.94153000E+02  0.93129E+04
 0.94203003E+02  0.95566E+04
 0.94252998E+02  0.99530E+04
 0.94303001E+02  0.97045E+04
 0.94352997E+02  0.88983E+04
 0.94403000E+02  0.79349E+04
 0.94453003E+02  0.73147E+04
 0.94502998E+02  0.74574E+04
 0.94553001E+02  0.80581E+04
 0.94602997E+02  0.82939E+04
 0.94653000E+02  0.77138E+04
 0.94703003E+02  0.73466E+04
 0.94752998E+02  0.74730E+04
 0.94803001E+02  0.76181E+04
 0.94852997E+02  0.76908E+04
 0.94903000E+02  0.77299E+04
 0.94953003E+02  0.78875E+04
 0.95002998E+02  0.79204E+04
 0.95053001E+02  0.75056E+04
 0.95102997E+02  0.71151E+04
 0.95153000E+02  0.70934E+04
 0.95203003E+02  0.71857E+04
 0.95252998E+02  0.70479E+04
 0.95303001E+02  0.66483E+04
 0.95352997E+02  0.64350E+04
 0.95403000E+02  0.64377E+04
 0.95453003E+02  0.66898E+04
 0.95502998E+02  0.74469E+04
 0.95553001E+02  0.79268E+04
 0.95602997E+02  0.84209E+04
 0.95653000E+02  0.90613E+04
 0.95703003E+02  0.95694E+04
 0.95752998E+02  0.10122E+05
 0.95803001E+02  0.10339E+05
 0.95852997E+02  0.10180E+05
 0.95903000E+02  0.99665E+04
 0.95953003E+02  0.97717E+04
 0.96002998E+02  0.99699E+04
 0.96053001E+02  0.10402E+05
 0.96102997E+02  0.10728E+05
 0.96153000E+02  0.10423E+05
 0.96203003E+02  0.94765E+04
 0.96252998E+02  0.87411E+04
 0.96303001E+02  0.79605E+04
 0.96352997E+02  0.74585E+04
 0.96403000E+02  0.70855E+04
 0.96453003E+02  0.68573E+04
 0.96502998E+02  0.71743E+04
 0.96553001E+02  0.74431E+04
 0.96602997E+02  0.75771E+04
 0.96653000E+02  0.74692E+04
 0.96703003E+02  0.71991E+04
 0.96752998E+02  0.70632E+04
 0.96803001E+02  0.68560E+04
 0.96852997E+02  0.67796E+04
 0.96903000E+02  0.68565E+04
 0.96953003E+02  0.67769E+04
 0.97002998E+02  0.64123E+04
 0.97053001E+02  0.62502E+04
 0.97102997E+02  0.64701E+04
 0.97153000E+02  0.67030E+04
 0.97203003E+02  0.68304E+04
 0.97252998E+02  0.68632E+04
 0.97303001E+02  0.70272E+04
 0.97352997E+02  0.73375E+04
 0.97403000E+02  0.79375E+04
 0.97453003E+02  0.83568E+04
 0.97502998E+02  0.86490E+04
 0.97553001E+02  0.90935E+04
 0.97602997E+02  0.94207E+04
 0.97653000E+02  0.93752E+04
 0.97703003E+02  0.89843E+04
 0.97752998E+02  0.91252E+04
 0.97803001E+02  0.93872E+04
 0.97852997E+02  0.92913E+04
 0.97903000E+02  0.91648E+04
 0.97953003E+02  0.87372E+04
 0.98002998E+02  0.86426E+04
