-0.20000000E+01  0.13097E+05
-0.19500000E+01  0.10450E+05
-0.19000000E+01  0.69668E+04
-0.18500000E+01  0.30320E+04
-0.18000000E+01 -0.11453E+04
-0.17500000E+01 -0.53271E+04
-0.17000000E+01 -0.94456E+04
-0.16500001E+01 -0.13651E+05
-0.16000000E+01 -0.17817E+05
-0.15500000E+01 -0.21555E+05
-0.15000000E+01 -0.24806E+05
-0.14500000E+01 -0.27396E+05
-0.14000001E+01 -0.29487E+05
-0.13500000E+01 -0.31117E+05
-0.13000001E+01 -0.32085E+05
-0.12500000E+01 -0.32296E+05
-0.12000000E+01 -0.31613E+05
-0.11500001E+01 -0.30250E+05
-0.11000000E+01 -0.28348E+05
-0.10500001E+01 -0.25923E+05
-0.10000000E+01 -0.23017E+05
-0.95000005E+00 -0.20111E+05
-0.90000010E+00 -0.17496E+05
-0.85000002E+00 -0.15317E+05
-0.80000007E+00 -0.13494E+05
-0.75000012E+00 -0.11752E+05
-0.70000005E+00 -0.99597E+04
-0.65000010E+00 -0.80913E+04
-0.60000014E+00 -0.63207E+04
-0.55000007E+00 -0.48365E+04
-0.50000012E+00 -0.36901E+04
-0.45000005E+00 -0.28973E+04
-0.40000010E+00 -0.25815E+04
-0.35000014E+00 -0.27041E+04
-0.30000007E+00 -0.32639E+04
-0.25000012E+00 -0.40917E+04
-0.20000005E+00 -0.54111E+04
-0.15000010E+00 -0.73464E+04
-0.10000014E+00 -0.97695E+04
-0.50000072E-01 -0.12602E+05
-0.11920929E-06 -0.15917E+05
 0.49999952E-01 -0.19703E+05
 0.99999905E-01 -0.23892E+05
 0.14999986E+00 -0.28484E+05
 0.19999981E+00 -0.33473E+05
 0.24999976E+00 -0.38794E+05
 0.29999995E+00 -0.44012E+05
 0.34999990E+00 -0.48485E+05
 0.39999986E+00 -0.51867E+05
 0.44999981E+00 -0.53991E+05
 0.49999976E+00 -0.54583E+05
 0.54999995E+00 -0.53576E+05
 0.59999990E+00 -0.50761E+05
 0.64999986E+00 -0.46353E+05
 0.69999981E+00 -0.40492E+05
 0.74999976E+00 -0.33529E+05
 0.79999971E+00 -0.25847E+05
 0.84999990E+00 -0.17677E+05
 0.89999986E+00 -0.92257E+04
 0.94999981E+00 -0.41791E+03
 0.99999976E+00  0.87824E+04
 0.10499997E+01  0.18123E+05
 0.10999999E+01  0.27137E+05
 0.11499999E+01  0.35501E+05
 0.11999998E+01  0.43143E+05
 0.12499998E+01  0.50130E+05
 0.12999997E+01  0.56490E+05
 0.13499999E+01  0.62292E+05
 0.13999999E+01  0.67347E+05
 0.14499998E+01  0.71448E+05
 0.14999998E+01  0.74325E+05
 0.15499997E+01  0.75988E+05
 0.15999999E+01  0.76609E+05
 0.16499999E+01  0.76430E+05
 0.16999998E+01  0.75547E+05
 0.17499998E+01  0.73864E+05
 0.17999997E+01  0.71467E+05
 0.18499997E+01  0.68426E+05
 0.18999999E+01  0.64679E+05
 0.19499998E+01  0.60237E+05
 0.19999998E+01  0.55074E+05
 0.20499997E+01  0.49279E+05
 0.20999999E+01  0.42908E+05
 0.21499996E+01  0.35806E+05
 0.21999998E+01  0.28185E+05
 0.22499995E+01  0.19941E+05
 0.22999997E+01  0.10768E+05
 0.23499999E+01  0.63149E+03
 0.23999996E+01 -0.10477E+05
 0.24499998E+01 -0.22306E+05
 0.24999995E+01 -0.34515E+05
 0.25499997E+01 -0.46732E+05
 0.25999999E+01 -0.58497E+05
 0.26499996E+01 -0.69328E+05
 0.26999998E+01 -0.78858E+05
 0.27499995E+01 -0.87060E+05
 0.27999997E+01 -0.93659E+05
 0.28499999E+01 -0.98437E+05
 0.28999996E+01 -0.10109E+06
 0.29499998E+01 -0.10155E+06
 0.29999995E+01 -0.99991E+05
 0.30499997E+01 -0.96470E+05
 0.30999999E+01 -0.91103E+05
 0.31499996E+01 -0.83768E+05
 0.31999998E+01 -0.74689E+05
 0.32499995E+01 -0.64309E+05
 0.32999997E+01 -0.53286E+05
 0.33499999E+01 -0.42090E+05
 0.33999996E+01 -0.30915E+05
 0.34499998E+01 -0.19766E+05
 0.34999995E+01 -0.87995E+04
 0.35499997E+01  0.16159E+04
 0.35999994E+01  0.11360E+05
 0.36499996E+01  0.20300E+05
 0.36999998E+01  0.28233E+05
 0.37499995E+01  0.35029E+05
 0.37999997E+01  0.40756E+05
 0.38499994E+01  0.45408E+05
 0.38999996E+01  0.49241E+05
 0.39499998E+01  0.52387E+05
 0.39999995E+01  0.54914E+05
 0.40499997E+01  0.56854E+05
 0.40999994E+01  0.58116E+05
 0.41499996E+01  0.58617E+05
 0.41999998E+01  0.58390E+05
 0.42499995E+01  0.57351E+05
 0.42999997E+01  0.55476E+05
 0.43499994E+01  0.52859E+05
 0.43999996E+01  0.49590E+05
 0.44499998E+01  0.45849E+05
 0.44999995E+01  0.41566E+05
 0.45499997E+01  0.36848E+05
 0.45999994E+01  0.31906E+05
 0.46499996E+01  0.26769E+05
 0.46999998E+01  0.21738E+05
 0.47499995E+01  0.16792E+05
 0.47999997E+01  0.11485E+05
 0.48499994E+01  0.57841E+04
 0.48999996E+01 -0.39310E+03
 0.49499998E+01 -0.68188E+04
 0.49999995E+01 -0.13393E+05
 0.50499997E+01 -0.19915E+05
 0.50999994E+01 -0.26098E+05
 0.51499996E+01 -0.31835E+05
 0.51999998E+01 -0.36965E+05
 0.52499995E+01 -0.41380E+05
 0.52999997E+01 -0.45034E+05
 0.53499994E+01 -0.47927E+05
 0.53999996E+01 -0.50219E+05
 0.54499993E+01 -0.52141E+05
 0.54999995E+01 -0.53735E+05
 0.55499997E+01 -0.55229E+05
 0.55999994E+01 -0.56680E+05
 0.56499996E+01 -0.58037E+05
 0.56999993E+01 -0.59313E+05
 0.57499995E+01 -0.60514E+05
 0.57999997E+01 -0.61567E+05
 0.58499994E+01 -0.62467E+05
 0.58999996E+01 -0.63180E+05
 0.59499993E+01 -0.63518E+05
 0.59999995E+01 -0.63566E+05
 0.60499992E+01 -0.63334E+05
 0.60999994E+01 -0.62801E+05
 0.61499996E+01 -0.61933E+05
 0.61999998E+01 -0.60664E+05
 0.62499990E+01 -0.59063E+05
 0.62999992E+01 -0.56828E+05
 0.63499994E+01 -0.54173E+05
 0.63999996E+01 -0.51063E+05
 0.64499998E+01 -0.47434E+05
 0.64999990E+01 -0.43523E+05
 0.65499992E+01 -0.39289E+05
 0.65999994E+01 -0.34847E+05
 0.66499996E+01 -0.30304E+05
 0.66999998E+01 -0.25554E+05
 0.67499990E+01 -0.20655E+05
 0.67999992E+01 -0.15699E+05
 0.68499994E+01 -0.10724E+05
 0.68999996E+01 -0.60780E+04
 0.69499998E+01 -0.17348E+04
 0.69999990E+01  0.21684E+04
 0.70499992E+01  0.56347E+04
 0.70999994E+01  0.87595E+04
 0.71499996E+01  0.11462E+05
 0.71999998E+01  0.13865E+05
 0.72499990E+01  0.16242E+05
 0.72999992E+01  0.18625E+05
 0.73499994E+01  0.21201E+05
 0.73999996E+01  0.24186E+05
 0.74499998E+01  0.27469E+05
 0.74999990E+01  0.30998E+05
 0.75499992E+01  0.34666E+05
 0.75999994E+01  0.38569E+05
 0.76499996E+01  0.42679E+05
 0.76999998E+01  0.46885E+05
 0.77499990E+01  0.50989E+05
 0.77999992E+01  0.54780E+05
 0.78499994E+01  0.58057E+05
 0.78999996E+01  0.60671E+05
 0.79499998E+01  0.62322E+05
 0.79999990E+01  0.62780E+05
 0.80499992E+01  0.62081E+05
 0.80999994E+01  0.60247E+05
 0.81499996E+01  0.57325E+05
 0.81999998E+01  0.53548E+05
 0.82499990E+01  0.49132E+05
 0.82999992E+01  0.44063E+05
 0.83499994E+01  0.38487E+05
 0.83999996E+01  0.32371E+05
 0.84499998E+01  0.25867E+05
 0.84999990E+01  0.19267E+05
 0.85499992E+01  0.12713E+05
 0.85999994E+01  0.63999E+04
 0.86499996E+01  0.21797E+03
 0.86999998E+01 -0.59871E+04
 0.87499990E+01 -0.12153E+05
 0.87999992E+01 -0.18522E+05
 0.88499994E+01 -0.24945E+05
 0.88999996E+01 -0.31262E+05
 0.89499998E+01 -0.37365E+05
 0.89999990E+01 -0.43216E+05
 0.90499992E+01 -0.48822E+05
 0.90999994E+01 -0.53840E+05
 0.91499996E+01 -0.58324E+05
 0.91999989E+01 -0.62121E+05
 0.92499990E+01 -0.65081E+05
 0.92999992E+01 -0.67063E+05
 0.93499994E+01 -0.68030E+05
 0.93999996E+01 -0.68239E+05
 0.94499989E+01 -0.67937E+05
 0.94999990E+01 -0.67056E+05
 0.95499992E+01 -0.65644E+05
 0.95999994E+01 -0.63480E+05
 0.96499996E+01 -0.60371E+05
 0.96999989E+01 -0.56482E+05
 0.97499990E+01 -0.51474E+05
 0.97999992E+01 -0.45426E+05
 0.98499994E+01 -0.38625E+05
 0.98999996E+01 -0.31346E+05
 0.99499989E+01 -0.24054E+05
 0.99999990E+01 -0.16743E+05
 0.10049999E+02 -0.94505E+04
 0.10099999E+02 -0.24454E+04
 0.10150000E+02  0.42648E+04
 0.10199999E+02  0.10597E+05
 0.10249999E+02  0.16643E+05
 0.10299999E+02  0.22528E+05
 0.10349999E+02  0.28285E+05
 0.10400000E+02  0.33942E+05
 0.10449999E+02  0.39553E+05
 0.10499999E+02  0.45078E+05
 0.10549999E+02  0.50173E+05
 0.10599999E+02  0.54417E+05
 0.10650000E+02  0.57692E+05
 0.10699999E+02  0.60066E+05
 0.10749999E+02  0.61741E+05
 0.10799999E+02  0.62847E+05
 0.10849999E+02  0.63438E+05
 0.10900000E+02  0.63657E+05
 0.10949999E+02  0.63328E+05
 0.10999999E+02  0.62294E+05
 0.11049999E+02  0.60477E+05
 0.11099999E+02  0.57917E+05
 0.11150000E+02  0.54655E+05
 0.11199999E+02  0.50573E+05
 0.11249999E+02  0.45480E+05
 0.11299999E+02  0.39535E+05
 0.11349999E+02  0.33212E+05
 0.11400000E+02  0.26678E+05
 0.11449999E+02  0.20339E+05
 0.11499999E+02  0.14290E+05
 0.11549999E+02  0.84131E+04
 0.11599999E+02  0.28280E+04
 0.11650000E+02 -0.24915E+04
 0.11699999E+02 -0.73271E+04
 0.11749999E+02 -0.11559E+05
 0.11799999E+02 -0.15255E+05
 0.11849999E+02 -0.18583E+05
 0.11900000E+02 -0.21578E+05
 0.11949999E+02 -0.24388E+05
 0.11999999E+02 -0.27062E+05
 0.12049999E+02 -0.29563E+05
 0.12099999E+02 -0.32079E+05
 0.12150000E+02 -0.34261E+05
 0.12199999E+02 -0.35897E+05
 0.12249999E+02 -0.36898E+05
 0.12299999E+02 -0.37166E+05
 0.12349999E+02 -0.36925E+05
 0.12400000E+02 -0.36353E+05
 0.12449999E+02 -0.35646E+05
 0.12499999E+02 -0.34744E+05
 0.12549999E+02 -0.33470E+05
 0.12599999E+02 -0.31985E+05
 0.12649999E+02 -0.30467E+05
 0.12699999E+02 -0.28896E+05
 0.12749999E+02 -0.27215E+05
 0.12799999E+02 -0.25266E+05
 0.12849999E+02 -0.23141E+05
 0.12899999E+02 -0.20741E+05
 0.12949999E+02 -0.18160E+05
 0.12999999E+02 -0.15855E+05
 0.13049999E+02 -0.13943E+05
 0.13099999E+02 -0.12507E+05
 0.13149999E+02 -0.11373E+05
 0.13199999E+02 -0.10554E+05
 0.13249999E+02 -0.98044E+04
 0.13299999E+02 -0.87288E+04
 0.13349999E+02 -0.73725E+04
 0.13399999E+02 -0.58474E+04
 0.13449999E+02 -0.42982E+04
 0.13499999E+02 -0.25996E+04
 0.13549999E+02 -0.82933E+03
 0.13599999E+02  0.99453E+03
 0.13649999E+02  0.29344E+04
 0.13699999E+02  0.51255E+04
 0.13749999E+02  0.76301E+04
 0.13799999E+02  0.10282E+05
 0.13849999E+02  0.13251E+05
 0.13899999E+02  0.16479E+05
 0.13949999E+02  0.19645E+05
 0.13999999E+02  0.22582E+05
 0.14049999E+02  0.25023E+05
 0.14099998E+02  0.26869E+05
 0.14150000E+02  0.28434E+05
 0.14199999E+02  0.29846E+05
 0.14249998E+02  0.31314E+05
 0.14299999E+02  0.32903E+05
 0.14349998E+02  0.34190E+05
 0.14400000E+02  0.34999E+05
 0.14449999E+02  0.35368E+05
 0.14499998E+02  0.35211E+05
 0.14549999E+02  0.34641E+05
 0.14599998E+02  0.33531E+05
 0.14650000E+02  0.31363E+05
 0.14699999E+02  0.27828E+05
 0.14749998E+02  0.22777E+05
 0.14799999E+02  0.16382E+05
 0.14849998E+02  0.90403E+04
 0.14900000E+02  0.90752E+03
 0.14949999E+02 -0.76815E+04
 0.14999998E+02 -0.16310E+05
 0.15049999E+02 -0.24893E+05
 0.15099998E+02 -0.33159E+05
 0.15150000E+02 -0.40854E+05
 0.15199999E+02 -0.47572E+05
 0.15249998E+02 -0.53144E+05
 0.15299999E+02 -0.57775E+05
 0.15349998E+02 -0.61483E+05
 0.15400000E+02 -0.64279E+05
 0.15449999E+02 -0.66115E+05
 0.15499998E+02 -0.67117E+05
 0.15549999E+02 -0.67324E+05
 0.15599998E+02 -0.66767E+05
 0.15650000E+02 -0.65346E+05
 0.15699999E+02 -0.63086E+05
 0.15749998E+02 -0.60220E+05
 0.15799999E+02 -0.56837E+05
 0.15849998E+02 -0.52917E+05
 0.15900000E+02 -0.48399E+05
 0.15949999E+02 -0.43340E+05
 0.15999998E+02 -0.37742E+05
 0.16049999E+02 -0.31818E+05
 0.16099998E+02 -0.25887E+05
 0.16150000E+02 -0.20374E+05
 0.16199999E+02 -0.15549E+05
 0.16249998E+02 -0.11245E+05
 0.16299999E+02 -0.75294E+04
 0.16349998E+02 -0.44664E+04
 0.16400000E+02 -0.20560E+04
 0.16449999E+02 -0.34957E+03
 0.16499998E+02  0.70845E+03
 0.16549999E+02  0.12308E+04
 0.16599998E+02  0.13417E+04
 0.16650000E+02  0.11875E+04
 0.16699999E+02  0.84095E+03
 0.16749998E+02  0.37292E+03
 0.16799999E+02 -0.29489E+03
 0.16849998E+02 -0.11978E+04
 0.16900000E+02 -0.20583E+04
 0.16949999E+02 -0.25563E+04
 0.16999998E+02 -0.25027E+04
 0.17049999E+02 -0.20610E+04
 0.17099998E+02 -0.14544E+04
 0.17150000E+02 -0.86659E+03
 0.17199999E+02 -0.49299E+03
 0.17249998E+02 -0.49597E+03
 0.17299999E+02 -0.80026E+03
 0.17349998E+02 -0.13033E+04
 0.17400000E+02 -0.20972E+04
 0.17449999E+02 -0.33209E+04
 0.17499998E+02 -0.48822E+04
 0.17549999E+02 -0.65256E+04
 0.17599998E+02 -0.80399E+04
 0.17650000E+02 -0.94724E+04
 0.17699999E+02 -0.10915E+05
 0.17749998E+02 -0.12169E+05
 0.17799999E+02 -0.13339E+05
 0.17849998E+02 -0.14702E+05
 0.17900000E+02 -0.16317E+05
 0.17949999E+02 -0.17869E+05
 0.17999998E+02 -0.18740E+05
 0.18049999E+02 -0.18679E+05
 0.18099998E+02 -0.17560E+05
 0.18150000E+02 -0.15418E+05
 0.18199999E+02 -0.12384E+05
 0.18249998E+02 -0.82869E+04
 0.18299999E+02 -0.33889E+04
 0.18349998E+02  0.22353E+04
 0.18400000E+02  0.86317E+04
 0.18449999E+02  0.15803E+05
 0.18499998E+02  0.23476E+05
 0.18549999E+02  0.31231E+05
 0.18599998E+02  0.38741E+05
 0.18650000E+02  0.45783E+05
 0.18699999E+02  0.52233E+05
 0.18749998E+02  0.57875E+05
 0.18799999E+02  0.62644E+05
 0.18849998E+02  0.66341E+05
 0.18900000E+02  0.68911E+05
 0.18949999E+02  0.70337E+05
 0.18999998E+02  0.70832E+05
 0.19049999E+02  0.70622E+05
 0.19099998E+02  0.69551E+05
 0.19150000E+02  0.67616E+05
 0.19199999E+02  0.64923E+05
 0.19249998E+02  0.61174E+05
 0.19299999E+02  0.56483E+05
 0.19349998E+02  0.50949E+05
 0.19400000E+02  0.44835E+05
 0.19449999E+02  0.38637E+05
 0.19499998E+02  0.32256E+05
 0.19549999E+02  0.25688E+05
 0.19599998E+02  0.18931E+05
 0.19650000E+02  0.11979E+05
 0.19699999E+02  0.49266E+04
 0.19749998E+02 -0.21324E+04
 0.19799999E+02 -0.88663E+04
 0.19849998E+02 -0.14967E+05
 0.19900000E+02 -0.20583E+05
 0.19949999E+02 -0.25944E+05
 0.19999998E+02 -0.31009E+05
 0.20049999E+02 -0.35567E+05
 0.20099998E+02 -0.39480E+05
 0.20150000E+02 -0.42581E+05
 0.20199999E+02 -0.44724E+05
 0.20249998E+02 -0.45868E+05
 0.20299999E+02 -0.46298E+05
 0.20349998E+02 -0.46204E+05
 0.20399998E+02 -0.45660E+05
 0.20449999E+02 -0.44860E+05
 0.20499998E+02 -0.43754E+05
 0.20549999E+02 -0.42383E+05
 0.20599998E+02 -0.40636E+05
 0.20649998E+02 -0.38397E+05
 0.20699999E+02 -0.35639E+05
 0.20749998E+02 -0.32334E+05
 0.20799999E+02 -0.28606E+05
 0.20849998E+02 -0.24745E+05
 0.20899998E+02 -0.20983E+05
 0.20949999E+02 -0.17303E+05
 0.20999998E+02 -0.13902E+05
 0.21049999E+02 -0.10846E+05
 0.21099998E+02 -0.79844E+04
 0.21149998E+02 -0.51980E+04
 0.21199999E+02 -0.24572E+04
 0.21249998E+02  0.85726E+02
 0.21299999E+02  0.21634E+04
 0.21349998E+02  0.35354E+04
 0.21399998E+02  0.41233E+04
 0.21449999E+02  0.39928E+04
 0.21499998E+02  0.34182E+04
 0.21549999E+02  0.26129E+04
 0.21599998E+02  0.15516E+04
 0.21649998E+02  0.20766E+03
 0.21699999E+02 -0.14020E+04
 0.21749998E+02 -0.32604E+04
 0.21799999E+02 -0.53968E+04
 0.21849998E+02 -0.77624E+04
 0.21899998E+02 -0.10375E+05
 0.21949999E+02 -0.13105E+05
 0.21999998E+02 -0.15946E+05
 0.22049999E+02 -0.19113E+05
 0.22099998E+02 -0.22450E+05
 0.22149998E+02 -0.25921E+05
 0.22199999E+02 -0.29256E+05
 0.22249998E+02 -0.32049E+05
 0.22299999E+02 -0.33946E+05
 0.22349998E+02 -0.34733E+05
 0.22399998E+02 -0.34372E+05
 0.22449999E+02 -0.32870E+05
 0.22499998E+02 -0.30351E+05
 0.22549999E+02 -0.26979E+05
 0.22599998E+02 -0.22805E+05
 0.22649998E+02 -0.18017E+05
 0.22699999E+02 -0.12973E+05
 0.22749998E+02 -0.77946E+04
 0.22799999E+02 -0.26546E+04
 0.22849998E+02  0.23917E+04
 0.22899998E+02  0.71068E+04
 0.22949999E+02  0.11467E+05
 0.22999998E+02  0.15720E+05
 0.23049999E+02  0.19915E+05
 0.23099998E+02  0.23804E+05
 0.23149998E+02  0.26709E+05
 0.23199999E+02  0.28476E+05
 0.23249998E+02  0.29111E+05
 0.23299999E+02  0.28705E+05
 0.23349998E+02  0.27535E+05
 0.23399998E+02  0.25742E+05
 0.23449999E+02  0.23557E+05
 0.23499998E+02  0.21167E+05
 0.23549999E+02  0.18718E+05
 0.23599998E+02  0.16426E+05
 0.23649998E+02  0.14563E+05
 0.23699999E+02  0.13299E+05
 0.23749998E+02  0.12603E+05
 0.23799999E+02  0.12170E+05
 0.23849998E+02  0.11648E+05
 0.23899998E+02  0.10587E+05
 0.23949999E+02  0.88919E+04
 0.23999998E+02  0.66292E+04
 0.24049999E+02  0.39948E+04
 0.24099998E+02  0.14537E+04
 0.24149998E+02 -0.92327E+03
 0.24199999E+02 -0.30907E+04
 0.24249998E+02 -0.50767E+04
 0.24299999E+02 -0.70701E+04
 0.24349998E+02 -0.92434E+04
 0.24399998E+02 -0.11578E+05
 0.24449999E+02 -0.14026E+05
 0.24499998E+02 -0.16729E+05
 0.24549999E+02 -0.19739E+05
 0.24599998E+02 -0.22935E+05
 0.24649998E+02 -0.26145E+05
 0.24699999E+02 -0.29299E+05
 0.24749998E+02 -0.32480E+05
 0.24799999E+02 -0.35648E+05
 0.24849998E+02 -0.38778E+05
 0.24899998E+02 -0.41818E+05
 0.24949999E+02 -0.44619E+05
 0.24999998E+02 -0.46918E+05
 0.25049999E+02 -0.48350E+05
 0.25099998E+02 -0.48625E+05
 0.25149998E+02 -0.47727E+05
 0.25199999E+02 -0.45799E+05
 0.25249998E+02 -0.42874E+05
 0.25299999E+02 -0.39166E+05
 0.25349998E+02 -0.34713E+05
 0.25399998E+02 -0.29581E+05
 0.25449999E+02 -0.23801E+05
 0.25499998E+02 -0.17598E+05
 0.25549999E+02 -0.11310E+05
 0.25599998E+02 -0.50523E+04
 0.25649998E+02  0.11094E+04
 0.25699999E+02  0.69869E+04
 0.25749998E+02  0.12420E+05
 0.25799999E+02  0.17212E+05
 0.25849998E+02  0.21329E+05
 0.25899998E+02  0.24801E+05
 0.25949999E+02  0.27593E+05
 0.25999998E+02  0.29857E+05
 0.26049999E+02  0.31501E+05
 0.26099998E+02  0.32731E+05
 0.26149998E+02  0.33402E+05
 0.26199999E+02  0.33538E+05
 0.26249998E+02  0.33230E+05
 0.26299999E+02  0.32340E+05
 0.26349998E+02  0.30893E+05
 0.26399998E+02  0.29054E+05
 0.26449999E+02  0.27070E+05
 0.26499998E+02  0.25195E+05
 0.26549999E+02  0.23464E+05
 0.26599998E+02  0.21893E+05
 0.26649998E+02  0.20508E+05
 0.26699999E+02  0.19104E+05
 0.26749998E+02  0.17659E+05
 0.26799999E+02  0.16051E+05
 0.26849998E+02  0.14395E+05
 0.26899998E+02  0.12642E+05
 0.26949999E+02  0.11623E+05
 0.26999998E+02  0.11171E+05
 0.27049997E+02  0.98696E+04
 0.27099998E+02  0.67456E+04
 0.27149998E+02  0.29282E+04
 0.27199999E+02  0.95969E+02
 0.27249998E+02  0.10331E+02
 0.27299997E+02  0.19413E+04
 0.27349998E+02  0.34756E+04
 0.27399998E+02  0.25189E+04
 0.27449999E+02 -0.29427E+04
 0.27499998E+02 -0.10450E+05
 0.27549997E+02 -0.16230E+05
 0.27599998E+02 -0.16094E+05
 0.27649998E+02 -0.16704E+05
 0.27699999E+02 -0.26456E+05
 0.27749998E+02 -0.42280E+05
 0.27799997E+02 -0.56711E+05
 0.27849998E+02 -0.62279E+05
 0.27899998E+02 -0.66661E+05
 0.27949999E+02 -0.74591E+05
 0.27999998E+02 -0.76484E+05
 0.28049997E+02 -0.68333E+05
 0.28099998E+02 -0.52690E+05
 0.28149998E+02 -0.44108E+05
 0.28199999E+02 -0.47704E+05
 0.28249998E+02 -0.47183E+05
 0.28299997E+02 -0.31626E+05
 0.28349998E+02 -0.24162E+03
 0.28399998E+02  0.31656E+05
 0.28449999E+02  0.47152E+05
 0.28499998E+02  0.52002E+05
 0.28549997E+02  0.55846E+05
 0.28599998E+02  0.64639E+05
 0.28649998E+02  0.81077E+05
 0.28699999E+02  0.10384E+06
 0.28749998E+02  0.11187E+06
 0.28799997E+02  0.10825E+06
 0.28849998E+02  0.10632E+06
 0.28899998E+02  0.75345E+05
 0.28949999E+02  0.44694E+05
 0.28999998E+02  0.51323E+05
 0.29049997E+02  0.60263E+05
 0.29099998E+02  0.61468E+05
 0.29149998E+02  0.61753E+05
 0.29199999E+02  0.65407E+05
 0.29249998E+02  0.67315E+05
 0.29299997E+02  0.51948E+05
 0.29349998E+02  0.34906E+05
 0.29399998E+02  0.24182E+05
 0.29449999E+02  0.18097E+04
 0.29499998E+02 -0.16834E+05
 0.29549997E+02 -0.46034E+05
 0.29599998E+02 -0.88265E+05
 0.29649998E+02 -0.12669E+06
 0.29699999E+02 -0.17206E+06
 0.29749998E+02 -0.18112E+06
 0.29799997E+02 -0.15999E+06
 0.29849998E+02 -0.14469E+06
 0.29899998E+02 -0.15033E+06
 0.29949999E+02 -0.13189E+06
 0.29999998E+02 -0.90696E+05
 0.30049999E+02 -0.87452E+05
 0.30099998E+02 -0.98548E+05
 0.30149998E+02 -0.10302E+06
 0.30199997E+02 -0.72971E+05
 0.30249996E+02 -0.17682E+05
 0.30299999E+02 -0.16700E+05
 0.30349998E+02 -0.52513E+05
 0.30399998E+02 -0.33521E+05
 0.30449997E+02  0.15845E+05
 0.30499996E+02  0.62729E+05
 0.30549999E+02  0.10258E+06
 0.30599998E+02  0.13911E+06
 0.30649998E+02  0.16551E+06
 0.30699997E+02  0.16047E+06
 0.30749996E+02  0.16672E+06
 0.30799999E+02  0.14502E+06
 0.30849998E+02  0.10453E+06
 0.30899998E+02  0.14640E+06
 0.30949997E+02  0.18451E+06
 0.30999996E+02  0.13203E+06
 0.31049999E+02  0.59238E+05
 0.31099998E+02 -0.22721E+05
 0.31149998E+02 -0.96610E+05
 0.31199997E+02 -0.11823E+06
 0.31249996E+02 -0.14205E+06
 0.31299999E+02 -0.10845E+06
 0.31349998E+02 -0.59165E+05
 0.31399998E+02 -0.90737E+05
 0.31449997E+02 -0.11717E+06
 0.31499996E+02 -0.13236E+06
 0.31549999E+02 -0.38398E+05
 0.31599998E+02  0.85455E+05
 0.31649998E+02  0.92165E+05
 0.31699997E+02  0.71286E+05
 0.31749996E+02  0.51942E+05
 0.31799999E+02  0.73293E+05
 0.31849998E+02  0.14599E+06
 0.31899998E+02  0.18691E+06
 0.31949997E+02  0.12758E+06
 0.31999996E+02  0.50261E+05
 0.32049999E+02  0.12736E+05
 0.32099998E+02  0.39935E+05
 0.32149998E+02  0.11869E+06
 0.32199997E+02  0.13365E+06
 0.32249996E+02  0.93509E+05
 0.32299999E+02  0.59126E+05
 0.32349998E+02  0.11324E+06
 0.32399998E+02  0.16072E+06
 0.32449997E+02  0.16482E+06
 0.32499996E+02  0.18944E+06
 0.32549999E+02  0.21940E+06
 0.32599998E+02  0.26287E+06
 0.32649998E+02  0.28315E+06
 0.32699997E+02  0.23417E+06
 0.32749996E+02  0.15753E+06
 0.32799999E+02  0.13461E+06
 0.32849998E+02  0.92508E+05
 0.32899998E+02  0.95288E+05
 0.32949997E+02  0.10219E+06
 0.32999996E+02  0.48001E+05
 0.33049999E+02  0.70919E+04
 0.33099998E+02 -0.43457E+05
 0.33149998E+02 -0.73476E+05
 0.33199997E+02 -0.50858E+05
 0.33249996E+02 -0.69142E+05
 0.33299999E+02 -0.12350E+06
 0.33349998E+02 -0.16686E+06
 0.33399998E+02 -0.28590E+06
 0.33449997E+02 -0.37118E+06
 0.33499996E+02 -0.41702E+06
 0.33549999E+02 -0.47920E+06
 0.33599998E+02 -0.44848E+06
 0.33649998E+02 -0.41018E+06
 0.33699997E+02 -0.38487E+06
 0.33749996E+02 -0.34525E+06
 0.33799999E+02 -0.34539E+06
 0.33849998E+02 -0.33605E+06
 0.33899998E+02 -0.25508E+06
 0.33949997E+02 -0.15688E+06
 0.33999996E+02 -0.10529E+06
 0.34049999E+02 -0.86231E+05
 0.34099998E+02 -0.87475E+05
 0.34149998E+02 -0.90887E+05
 0.34199997E+02 -0.92350E+05
 0.34249996E+02 -0.45501E+05
 0.34299999E+02  0.26512E+05
 0.34349998E+02  0.46864E+05
 0.34399998E+02  0.30324E+05
 0.34449997E+02  0.93187E+05
 0.34499996E+02  0.19358E+06
 0.34549999E+02  0.30124E+06
 0.34599998E+02  0.39455E+06
 0.34649998E+02  0.40654E+06
 0.34699997E+02  0.42078E+06
 0.34749996E+02  0.41541E+06
 0.34799999E+02  0.38948E+06
 0.34849998E+02  0.43792E+06
 0.34899998E+02  0.48573E+06
 0.34949997E+02  0.44350E+06
 0.34999996E+02  0.38834E+06
 0.35049999E+02  0.29716E+06
 0.35099998E+02  0.21519E+06
 0.35149998E+02  0.19641E+06
 0.35199997E+02  0.18439E+06
 0.35249996E+02  0.11794E+06
 0.35299999E+02 -0.20614E+05
 0.35349998E+02 -0.12102E+06
 0.35399998E+02 -0.18550E+06
 0.35449997E+02 -0.24237E+06
 0.35499996E+02 -0.26236E+06
 0.35549999E+02 -0.28079E+06
 0.35599998E+02 -0.30140E+06
 0.35649998E+02 -0.29450E+06
 0.35699997E+02 -0.23578E+06
 0.35749996E+02 -0.18371E+06
 0.35799999E+02 -0.19465E+06
 0.35849998E+02 -0.20833E+06
 0.35899998E+02 -0.23888E+06
 0.35949997E+02 -0.28221E+06
 0.35999996E+02 -0.33364E+06
 0.36049999E+02 -0.39429E+06
 0.36099998E+02 -0.37424E+06
 0.36149998E+02 -0.31843E+06
 0.36199997E+02 -0.32732E+06
 0.36249996E+02 -0.34771E+06
 0.36299999E+02 -0.38302E+06
 0.36349998E+02 -0.41144E+06
 0.36399998E+02 -0.35922E+06
 0.36449997E+02 -0.31711E+06
 0.36499996E+02 -0.30495E+06
 0.36549999E+02 -0.26795E+06
 0.36599998E+02 -0.21744E+06
 0.36649998E+02 -0.18974E+06
 0.36699997E+02 -0.16166E+06
 0.36749996E+02 -0.13283E+06
 0.36799999E+02 -0.74170E+05
 0.36849998E+02 -0.97790E+04
 0.36899998E+02  0.82120E+04
 0.36949997E+02  0.24976E+05
 0.36999996E+02  0.28829E+05
 0.37049999E+02 -0.15850E+05
 0.37099998E+02 -0.76012E+05
 0.37149998E+02 -0.84063E+05
 0.37199997E+02 -0.66709E+05
 0.37249996E+02 -0.95841E+05
 0.37299999E+02 -0.12632E+06
 0.37349998E+02 -0.11023E+06
 0.37399998E+02 -0.85564E+05
 0.37449997E+02 -0.21911E+05
 0.37499996E+02  0.44114E+04
 0.37549999E+02  0.10631E+05
 0.37599998E+02  0.63008E+05
 0.37649998E+02  0.11245E+06
 0.37699997E+02  0.17570E+06
 0.37749996E+02  0.20908E+06
 0.37799999E+02  0.21642E+06
 0.37849998E+02  0.23724E+06
 0.37899998E+02  0.23125E+06
 0.37949997E+02  0.23694E+06
 0.37999996E+02  0.27882E+06
 0.38049999E+02  0.30965E+06
 0.38099998E+02  0.32312E+06
 0.38149998E+02  0.31460E+06
 0.38199997E+02  0.25718E+06
 0.38249996E+02  0.18862E+06
 0.38299999E+02  0.15382E+06
 0.38349998E+02  0.19283E+06
 0.38399998E+02  0.25271E+06
 0.38449997E+02  0.19574E+06
 0.38499996E+02  0.96926E+05
 0.38549999E+02  0.26586E+05
 0.38599998E+02  0.94013E+04
 0.38649998E+02  0.49302E+05
 0.38699997E+02  0.64620E+05
 0.38749996E+02  0.48807E+05
 0.38799999E+02  0.36842E+05
 0.38849998E+02  0.57498E+05
 0.38899998E+02  0.86301E+05
 0.38949997E+02  0.81871E+05
 0.38999996E+02  0.68776E+05
 0.39049999E+02  0.58386E+05
 0.39099998E+02  0.69103E+05
 0.39149998E+02  0.92514E+05
 0.39199997E+02  0.78735E+05
 0.39249996E+02  0.55281E+05
 0.39299999E+02  0.59018E+04
 0.39349998E+02 -0.40954E+05
 0.39399998E+02 -0.69212E+05
 0.39449997E+02 -0.12528E+06
 0.39499996E+02 -0.17029E+06
 0.39549999E+02 -0.22691E+06
 0.39599998E+02 -0.30409E+06
 0.39649998E+02 -0.29322E+06
 0.39699997E+02 -0.21455E+06
 0.39749996E+02 -0.18573E+06
 0.39799999E+02 -0.19491E+06
 0.39849998E+02 -0.19750E+06
 0.39899998E+02 -0.13697E+06
 0.39949997E+02 -0.55491E+05
 0.39999996E+02 -0.61485E+04
 0.40049999E+02  0.26807E+05
 0.40099998E+02  0.21347E+05
 0.40149998E+02  0.26285E+05
 0.40199997E+02  0.42382E+05
 0.40249996E+02  0.55625E+05
 0.40299999E+02  0.10289E+06
 0.40349998E+02  0.15747E+06
 0.40399998E+02  0.21705E+06
 0.40449997E+02  0.28719E+06
 0.40499996E+02  0.31825E+06
 0.40549999E+02  0.29656E+06
 0.40599998E+02  0.23982E+06
 0.40649998E+02  0.13369E+06
 0.40699997E+02  0.41188E+05
 0.40749996E+02 -0.56610E+05
 0.40799999E+02 -0.16944E+06
 0.40849998E+02 -0.23517E+06
 0.40899998E+02 -0.22345E+06
 0.40949997E+02 -0.18815E+06
 0.40999996E+02 -0.21249E+06
 0.41049999E+02 -0.21958E+06
 0.41099998E+02 -0.17492E+06
 0.41149998E+02 -0.76077E+05
 0.41199997E+02 -0.11701E+05
 0.41249996E+02 -0.22551E+05
 0.41299999E+02 -0.69784E+05
 0.41349998E+02 -0.10870E+06
 0.41399998E+02 -0.12726E+06
 0.41449997E+02 -0.19433E+06
 0.41499996E+02 -0.23170E+06
 0.41549999E+02 -0.22473E+06
 0.41599998E+02 -0.19069E+06
 0.41649998E+02 -0.83661E+05
 0.41699997E+02  0.82055E+04
 0.41749996E+02  0.10445E+06
 0.41799999E+02  0.19013E+06
 0.41849998E+02  0.22313E+06
 0.41899998E+02  0.23851E+06
 0.41949997E+02  0.23923E+06
 0.41999996E+02  0.24388E+06
 0.42049999E+02  0.23772E+06
 0.42099998E+02  0.22033E+06
 0.42149998E+02  0.19521E+06
 0.42199997E+02  0.18160E+06
 0.42249996E+02  0.16721E+06
 0.42299999E+02  0.12272E+06
 0.42349998E+02  0.79227E+05
 0.42399998E+02  0.61369E+05
 0.42449997E+02  0.37016E+05
 0.42499996E+02  0.44131E+05
 0.42549999E+02  0.51396E+05
 0.42599998E+02  0.32615E+05
 0.42649998E+02  0.24013E+05
 0.42699997E+02  0.30273E+05
 0.42749996E+02  0.46824E+05
 0.42799995E+02  0.40006E+05
 0.42849998E+02 -0.93444E+04
 0.42899998E+02 -0.80476E+05
 0.42949997E+02 -0.10614E+06
 0.42999996E+02 -0.11351E+06
 0.43049995E+02 -0.86757E+05
 0.43099998E+02 -0.58746E+04
 0.43149998E+02  0.10707E+06
 0.43199997E+02  0.26205E+06
 0.43249996E+02  0.37439E+06
 0.43299995E+02  0.42599E+06
 0.43349998E+02  0.47301E+06
 0.43399998E+02  0.49259E+06
 0.43449997E+02  0.47025E+06
 0.43499996E+02  0.43203E+06
 0.43549995E+02  0.39485E+06
 0.43599998E+02  0.41538E+06
 0.43649998E+02  0.39822E+06
 0.43699997E+02  0.31205E+06
 0.43749996E+02  0.22373E+06
 0.43799995E+02  0.11964E+06
 0.43849998E+02  0.35359E+05
 0.43899998E+02 -0.80875E+04
 0.43949997E+02 -0.83073E+05
 0.43999996E+02 -0.16940E+06
 0.44049995E+02 -0.20609E+06
 0.44099998E+02 -0.27569E+06
 0.44149998E+02 -0.37603E+06
 0.44199997E+02 -0.49524E+06
 0.44249996E+02 -0.55603E+06
 0.44299995E+02 -0.54251E+06
 0.44349998E+02 -0.45425E+06
 0.44399998E+02 -0.42065E+06
 0.44449997E+02 -0.44157E+06
 0.44499996E+02 -0.41066E+06
 0.44549995E+02 -0.39422E+06
 0.44599998E+02 -0.36110E+06
 0.44649998E+02 -0.32336E+06
 0.44699997E+02 -0.21641E+06
 0.44749996E+02 -0.38208E+05
 0.44799995E+02  0.13793E+06
 0.44849998E+02  0.25175E+06
 0.44899998E+02  0.26735E+06
 0.44949997E+02  0.21140E+06
 0.44999996E+02  0.19124E+06
 0.45049995E+02  0.21604E+06
 0.45099998E+02  0.21479E+06
 0.45149998E+02  0.19813E+06
 0.45199997E+02  0.17865E+06
 0.45249996E+02  0.12318E+06
 0.45299995E+02  0.55025E+05
 0.45349998E+02  0.25220E+05
 0.45399998E+02  0.13593E+05
 0.45449997E+02  0.60927E+04
 0.45499996E+02 -0.20510E+05
 0.45549995E+02 -0.80446E+05
 0.45599998E+02 -0.16191E+06
 0.45649998E+02 -0.15265E+06
 0.45699997E+02 -0.69675E+05
 0.45749996E+02  0.89000E+05
 0.45799995E+02  0.20746E+06
 0.45849998E+02  0.22316E+06
 0.45899998E+02  0.23412E+06
 0.45949997E+02  0.22514E+06
 0.45999996E+02  0.23124E+06
 0.46049995E+02  0.18840E+06
 0.46099998E+02  0.49868E+05
 0.46149998E+02 -0.17435E+06
 0.46199997E+02 -0.24025E+06
 0.46249996E+02 -0.13430E+06
 0.46299995E+02 -0.68264E+05
 0.46349998E+02 -0.93684E+05
 0.46399998E+02 -0.15486E+06
 0.46449997E+02 -0.16399E+06
 0.46499996E+02 -0.16272E+06
 0.46549995E+02 -0.18749E+06
 0.46599998E+02 -0.24051E+06
 0.46649998E+02 -0.27812E+06
 0.46699997E+02 -0.31836E+06
 0.46749996E+02 -0.35223E+06
 0.46799995E+02 -0.36102E+06
 0.46849998E+02 -0.36302E+06
 0.46899998E+02 -0.34950E+06
 0.46949997E+02 -0.29936E+06
 0.46999996E+02 -0.21053E+06
 0.47049995E+02 -0.11255E+06
 0.47099998E+02 -0.29431E+05
 0.47149998E+02  0.11003E+05
 0.47199997E+02  0.59521E+05
 0.47249996E+02  0.14864E+06
 0.47299995E+02  0.18908E+06
 0.47349998E+02  0.16548E+06
 0.47399998E+02  0.12988E+06
 0.47449997E+02  0.69722E+05
 0.47499996E+02  0.26197E+05
 0.47549995E+02  0.50071E+03
 0.47599998E+02 -0.31760E+05
 0.47649998E+02 -0.43032E+05
 0.47699997E+02 -0.57592E+05
 0.47749996E+02 -0.10025E+06
 0.47799995E+02 -0.13051E+06
 0.47849998E+02 -0.93423E+05
 0.47899998E+02  0.15171E+05
 0.47949997E+02  0.12636E+06
 0.47999996E+02  0.17546E+06
 0.48049995E+02  0.18525E+06
 0.48099998E+02  0.20270E+06
 0.48149998E+02  0.24212E+06
 0.48199997E+02  0.22180E+06
 0.48249996E+02  0.11793E+06
 0.48299995E+02  0.44526E+05
 0.48349998E+02  0.27705E+05
 0.48399998E+02  0.90439E+05
 0.48449997E+02  0.16407E+06
 0.48499996E+02  0.18557E+06
 0.48549995E+02  0.18775E+06
 0.48599998E+02  0.22431E+06
 0.48649998E+02  0.28717E+06
 0.48699997E+02  0.25707E+06
 0.48749996E+02  0.18320E+06
 0.48799995E+02  0.10670E+06
 0.48849998E+02  0.45961E+05
 0.48899998E+02 -0.32008E+05
 0.48949997E+02 -0.11111E+06
 0.48999996E+02 -0.13369E+06
 0.49049995E+02 -0.10162E+06
 0.49099998E+02 -0.64073E+05
 0.49149998E+02 -0.55721E+05
 0.49199997E+02 -0.13070E+05
 0.49249996E+02  0.73802E+05
 0.49299995E+02  0.11985E+06
 0.49349998E+02  0.12659E+06
 0.49399998E+02  0.96708E+05
 0.49449997E+02  0.47878E+03
 0.49499996E+02 -0.69975E+05
 0.49549995E+02 -0.12110E+06
 0.49599998E+02 -0.20273E+06
 0.49649998E+02 -0.29139E+06
 0.49699997E+02 -0.31329E+06
 0.49749996E+02 -0.29838E+06
 0.49799995E+02 -0.31543E+06
 0.49849998E+02 -0.34330E+06
 0.49899998E+02 -0.33835E+06
 0.49949997E+02 -0.32645E+06
 0.49999996E+02 -0.34123E+06
 0.50049995E+02 -0.36048E+06
 0.50099998E+02 -0.38736E+06
 0.50149998E+02 -0.36762E+06
 0.50199997E+02 -0.29917E+06
 0.50249996E+02 -0.32880E+06
 0.50299995E+02 -0.43820E+06
 0.50349998E+02 -0.52478E+06
 0.50399998E+02 -0.55816E+06
 0.50449997E+02 -0.56265E+06
 0.50499996E+02 -0.54846E+06
 0.50549995E+02 -0.48256E+06
 0.50599998E+02 -0.42371E+06
 0.50649998E+02 -0.40443E+06
 0.50699997E+02 -0.38178E+06
 0.50749996E+02 -0.28323E+06
 0.50799995E+02 -0.12403E+06
 0.50849998E+02  0.29531E+05
 0.50899998E+02  0.15751E+06
 0.50949997E+02  0.23815E+06
 0.50999996E+02  0.25590E+06
 0.51049995E+02  0.25839E+06
 0.51099998E+02  0.25903E+06
 0.51149998E+02  0.30258E+06
 0.51199997E+02  0.37434E+06
 0.51249996E+02  0.44149E+06
 0.51299995E+02  0.53795E+06
 0.51349998E+02  0.62230E+06
 0.51399998E+02  0.70702E+06
 0.51449997E+02  0.81755E+06
 0.51499996E+02  0.89939E+06
 0.51549995E+02  0.91026E+06
 0.51599998E+02  0.92938E+06
 0.51649998E+02  0.93219E+06
 0.51699997E+02  0.83026E+06
 0.51749996E+02  0.70437E+06
 0.51799995E+02  0.50864E+06
 0.51849998E+02  0.27506E+06
 0.51899998E+02  0.13058E+06
 0.51949997E+02  0.63956E+05
 0.51999996E+02  0.58642E+05
 0.52049995E+02  0.58769E+05
 0.52099998E+02  0.12830E+05
 0.52149998E+02 -0.32964E+05
 0.52199997E+02  0.52265E+05
 0.52249996E+02  0.21840E+06
 0.52299995E+02  0.35916E+06
 0.52349998E+02  0.38741E+06
 0.52399998E+02  0.29344E+06
 0.52449997E+02  0.11849E+06
 0.52499996E+02 -0.11894E+06
 0.52549995E+02 -0.24396E+06
 0.52599998E+02 -0.46274E+05
 0.52649998E+02  0.31528E+06
 0.52699997E+02  0.52072E+06
 0.52749996E+02  0.59896E+06
 0.52799995E+02  0.58096E+06
 0.52849998E+02  0.54376E+06
 0.52899998E+02  0.56088E+06
 0.52949997E+02  0.61750E+06
 0.52999996E+02  0.65418E+06
 0.53049995E+02  0.75826E+06
 0.53099998E+02  0.96201E+06
 0.53149998E+02  0.10584E+07
 0.53199997E+02  0.10346E+07
 0.53249996E+02  0.93446E+06
 0.53299995E+02  0.68960E+06
 0.53349998E+02  0.36262E+06
 0.53399998E+02  0.91235E+05
 0.53449997E+02 -0.13054E+06
 0.53499996E+02 -0.19275E+06
 0.53549995E+02 -0.12186E+06
 0.53599998E+02 -0.11874E+06
 0.53649998E+02 -0.16046E+06
 0.53699997E+02 -0.10347E+06
 0.53749996E+02 -0.14568E+06
 0.53799995E+02 -0.37361E+06
 0.53849998E+02 -0.61314E+06
 0.53899998E+02 -0.78239E+06
 0.53949997E+02 -0.87414E+06
 0.53999996E+02 -0.91011E+06
 0.54049995E+02 -0.85182E+06
 0.54099998E+02 -0.61265E+06
 0.54149998E+02 -0.34175E+06
 0.54199997E+02 -0.11756E+06
 0.54249996E+02 -0.79238E+05
 0.54299995E+02 -0.25477E+06
 0.54349998E+02 -0.31537E+06
 0.54399998E+02 -0.32825E+06
 0.54449997E+02 -0.32715E+06
 0.54499996E+02 -0.23561E+06
 0.54549995E+02 -0.66702E+05
 0.54599998E+02  0.88448E+05
 0.54649998E+02  0.21057E+06
 0.54699997E+02  0.31360E+06
 0.54749996E+02  0.37742E+06
 0.54799995E+02  0.46797E+06
 0.54849998E+02  0.49275E+06
 0.54899998E+02  0.29589E+06
 0.54949997E+02  0.38874E+05
 0.54999996E+02 -0.15523E+06
 0.55049995E+02 -0.20859E+06
 0.55099998E+02 -0.99275E+05
 0.55149998E+02  0.30495E+05
 0.55199997E+02  0.26481E+06
 0.55249996E+02  0.46553E+06
 0.55299995E+02  0.56988E+06
 0.55349998E+02  0.64235E+06
 0.55399998E+02  0.51480E+06
 0.55449997E+02  0.24863E+06
 0.55499996E+02 -0.13762E+05
 0.55549995E+02 -0.12241E+06
 0.55599998E+02 -0.18830E+06
 0.55649998E+02 -0.92198E+05
 0.55699997E+02  0.27294E+06
 0.55749996E+02  0.55787E+06
 0.55799995E+02  0.68387E+06
 0.55849995E+02  0.76952E+06
 0.55899998E+02  0.78853E+06
 0.55949997E+02  0.76238E+06
 0.55999996E+02  0.63613E+06
 0.56049995E+02  0.41103E+06
 0.56099995E+02  0.28583E+06
 0.56149998E+02  0.25691E+06
 0.56199997E+02  0.40293E+06
 0.56249996E+02  0.73201E+06
 0.56299995E+02  0.10321E+07
 0.56349995E+02  0.11156E+07
 0.56399998E+02  0.10399E+07
 0.56449997E+02  0.86318E+06
 0.56499996E+02  0.51434E+06
 0.56549995E+02 -0.22919E+05
 0.56599995E+02 -0.58793E+06
 0.56649998E+02 -0.99892E+06
 0.56699997E+02 -0.11385E+07
 0.56749996E+02 -0.11006E+07
 0.56799995E+02 -0.99173E+06
 0.56849995E+02 -0.82575E+06
 0.56899998E+02 -0.76168E+06
 0.56949997E+02 -0.65396E+06
 0.56999996E+02 -0.47373E+06
 0.57049995E+02 -0.29471E+06
 0.57099995E+02 -0.83461E+05
 0.57149998E+02  0.96149E+05
 0.57199997E+02  0.23009E+06
 0.57249996E+02  0.31352E+06
 0.57299995E+02  0.35250E+06
 0.57349995E+02  0.47562E+06
 0.57399998E+02  0.69750E+06
 0.57449997E+02  0.90206E+06
 0.57499996E+02  0.10484E+07
 0.57549995E+02  0.11432E+07
 0.57599995E+02  0.12573E+07
 0.57649998E+02  0.13688E+07
 0.57699997E+02  0.14104E+07
 0.57749996E+02  0.12056E+07
 0.57799995E+02  0.91537E+06
 0.57849995E+02  0.65491E+06
 0.57899998E+02  0.37736E+06
 0.57949997E+02  0.15398E+06
 0.57999996E+02 -0.13146E+06
 0.58049995E+02 -0.61376E+06
 0.58099995E+02 -0.94252E+06
 0.58149998E+02 -0.93535E+06
 0.58199997E+02 -0.68789E+06
 0.58249996E+02 -0.39149E+06
 0.58299995E+02 -0.14939E+06
 0.58349995E+02 -0.70619E+05
 0.58399998E+02 -0.27334E+06
 0.58449997E+02 -0.41942E+06
 0.58499996E+02 -0.43897E+06
 0.58549995E+02 -0.49499E+06
 0.58599995E+02 -0.51680E+06
 0.58649998E+02 -0.48816E+06
 0.58699997E+02 -0.24299E+06
 0.58749996E+02  0.34264E+06
 0.58799995E+02  0.45608E+06
 0.58849995E+02  0.43287E+06
 0.58899998E+02  0.48140E+06
 0.58949997E+02  0.31838E+06
 0.58999996E+02  0.11967E+06
 0.59049995E+02 -0.11469E+06
 0.59099995E+02 -0.27458E+06
 0.59149998E+02 -0.45135E+06
 0.59199997E+02 -0.64817E+06
 0.59249996E+02 -0.74669E+06
 0.59299995E+02 -0.65905E+06
 0.59349995E+02 -0.37751E+06
 0.59399998E+02 -0.70793E+05
 0.59449997E+02  0.66402E+05
 0.59499996E+02  0.17512E+06
 0.59549995E+02  0.23033E+06
 0.59599995E+02  0.76026E+05
 0.59649998E+02 -0.22296E+06
 0.59699997E+02 -0.44217E+06
 0.59749996E+02 -0.69038E+06
 0.59799995E+02 -0.85815E+06
 0.59849995E+02 -0.13146E+07
 0.59899998E+02 -0.20729E+07
 0.59949997E+02 -0.22167E+07
 0.59999996E+02 -0.19454E+07
 0.60049995E+02 -0.17210E+07
 0.60099995E+02 -0.15649E+07
 0.60149998E+02 -0.16267E+07
 0.60199997E+02 -0.15565E+07
 0.60249996E+02 -0.13521E+07
 0.60299995E+02 -0.14208E+07
 0.60349995E+02 -0.13416E+07
 0.60399998E+02 -0.11715E+07
 0.60449997E+02 -0.10411E+07
 0.60499996E+02 -0.98223E+06
 0.60549995E+02 -0.11281E+07
 0.60599995E+02 -0.11722E+07
 0.60649998E+02 -0.96298E+06
 0.60699997E+02 -0.60142E+06
 0.60749996E+02 -0.17813E+06
 0.60799995E+02  0.20282E+06
 0.60849995E+02  0.45212E+06
 0.60899998E+02  0.59048E+06
 0.60949997E+02  0.71457E+06
 0.60999996E+02  0.79586E+06
 0.61049995E+02  0.83354E+06
 0.61099995E+02  0.93707E+06
 0.61149998E+02  0.90355E+06
 0.61199997E+02  0.73961E+06
 0.61249996E+02  0.28534E+06
 0.61299995E+02 -0.30960E+06
 0.61349995E+02 -0.64843E+06
 0.61399998E+02 -0.84420E+06
 0.61449997E+02 -0.80805E+06
 0.61499996E+02 -0.82024E+06
 0.61549995E+02 -0.98827E+06
 0.61599995E+02 -0.12037E+07
 0.61649998E+02 -0.11264E+07
 0.61699997E+02 -0.99811E+06
 0.61749996E+02 -0.10254E+07
 0.61799995E+02 -0.10432E+07
 0.61849995E+02 -0.10892E+07
 0.61899998E+02 -0.67338E+06
 0.61949997E+02 -0.32393E+06
 0.61999996E+02 -0.23969E+06
 0.62049995E+02 -0.19105E+06
 0.62099998E+02 -0.25948E+06
 0.62149994E+02 -0.33353E+06
 0.62199997E+02 -0.41921E+06
 0.62249992E+02 -0.44963E+06
 0.62299995E+02 -0.39590E+06
 0.62349998E+02 -0.35149E+06
 0.62399994E+02 -0.37279E+06
 0.62449997E+02 -0.48010E+06
 0.62499992E+02 -0.63518E+06
 0.62549995E+02 -0.66612E+06
 0.62599998E+02 -0.61655E+06
 0.62649994E+02 -0.58643E+06
 0.62699997E+02 -0.61771E+06
 0.62749992E+02 -0.69148E+06
 0.62799995E+02 -0.71990E+06
 0.62849998E+02 -0.70610E+06
 0.62899994E+02 -0.53831E+06
 0.62949997E+02 -0.13377E+06
 0.62999992E+02  0.40994E+06
 0.63049995E+02  0.69084E+06
 0.63099998E+02  0.61822E+06
 0.63149994E+02  0.41992E+06
 0.63199997E+02  0.20667E+06
 0.63249992E+02  0.21116E+06
 0.63299995E+02  0.15992E+06
 0.63349998E+02 -0.23453E+05
 0.63399994E+02 -0.17758E+06
 0.63449997E+02 -0.33049E+06
 0.63499992E+02 -0.40963E+06
 0.63549995E+02 -0.39963E+06
 0.63599998E+02 -0.30108E+06
 0.63649994E+02 -0.16937E+06
 0.63699997E+02 -0.40361E+05
 0.63749992E+02  0.37857E+05
 0.63799995E+02  0.41776E+05
 0.63849998E+02 -0.15471E+05
 0.63899994E+02 -0.73633E+05
 0.63949997E+02 -0.89511E+05
 0.63999992E+02 -0.69974E+05
 0.64049995E+02 -0.17067E+05
 0.64099998E+02  0.25704E+05
 0.64149994E+02  0.10097E+06
 0.64199997E+02  0.16217E+06
 0.64249992E+02  0.26554E+06
 0.64299995E+02  0.40145E+06
 0.64349998E+02  0.39072E+06
 0.64399994E+02  0.38282E+06
 0.64449997E+02  0.44222E+06
 0.64499992E+02  0.49247E+06
 0.64549995E+02  0.58182E+06
 0.64599998E+02  0.74645E+06
 0.64649994E+02  0.96272E+06
 0.64699997E+02  0.12419E+07
 0.64749992E+02  0.15205E+07
 0.64799995E+02  0.16672E+07
 0.64849998E+02  0.17943E+07
 0.64899994E+02  0.19424E+07
 0.64949997E+02  0.20649E+07
 0.64999992E+02  0.21723E+07
 0.65049995E+02  0.22516E+07
 0.65099998E+02  0.23367E+07
 0.65149994E+02  0.24057E+07
 0.65199997E+02  0.24192E+07
 0.65249992E+02  0.23404E+07
 0.65299995E+02  0.21870E+07
 0.65349998E+02  0.19780E+07
 0.65399994E+02  0.17400E+07
 0.65449997E+02  0.15257E+07
 0.65499992E+02  0.13635E+07
 0.65549995E+02  0.12721E+07
 0.65599998E+02  0.12403E+07
 0.65649994E+02  0.12639E+07
 0.65699997E+02  0.13508E+07
 0.65749992E+02  0.14644E+07
 0.65799995E+02  0.15644E+07
 0.65849998E+02  0.16490E+07
 0.65899994E+02  0.16901E+07
 0.65949997E+02  0.16602E+07
 0.65999992E+02  0.15851E+07
 0.66049995E+02  0.15079E+07
 0.66099998E+02  0.14308E+07
 0.66149994E+02  0.13333E+07
 0.66199997E+02  0.11923E+07
 0.66249992E+02  0.10107E+07
 0.66299995E+02  0.80615E+06
 0.66349998E+02  0.61738E+06
 0.66399994E+02  0.47579E+06
 0.66449997E+02  0.37599E+06
 0.66499992E+02  0.33246E+06
 0.66549995E+02  0.34095E+06
 0.66599998E+02  0.36375E+06
 0.66649994E+02  0.35079E+06
 0.66699997E+02  0.36429E+06
 0.66749992E+02  0.42686E+06
 0.66799995E+02  0.58774E+06
 0.66849998E+02  0.71068E+06
 0.66899994E+02  0.70852E+06
 0.66949997E+02  0.71744E+06
 0.66999992E+02  0.69802E+06
 0.67049995E+02  0.69048E+06
 0.67099998E+02  0.72330E+06
 0.67149994E+02  0.75717E+06
 0.67199997E+02  0.78488E+06
 0.67249992E+02  0.79642E+06
 0.67299995E+02  0.79517E+06
 0.67349998E+02  0.74683E+06
 0.67399994E+02  0.65805E+06
 0.67449997E+02  0.55666E+06
 0.67499992E+02  0.47094E+06
 0.67549995E+02  0.38479E+06
 0.67599998E+02  0.27941E+06
 0.67649994E+02  0.16523E+06
 0.67699997E+02 -0.90698E+05
 0.67749992E+02 -0.31849E+06
 0.67799995E+02 -0.36015E+06
 0.67849998E+02 -0.20085E+06
 0.67899994E+02 -0.93771E+04
 0.67949997E+02  0.12775E+06
 0.67999992E+02  0.23834E+06
 0.68049995E+02  0.23030E+06
 0.68099998E+02  0.91407E+05
 0.68149994E+02 -0.18320E+06
 0.68199997E+02 -0.35470E+06
 0.68249992E+02 -0.31220E+06
 0.68299995E+02 -0.25453E+06
 0.68349998E+02 -0.29031E+06
 0.68399994E+02 -0.34779E+06
 0.68449997E+02 -0.40958E+06
 0.68499992E+02 -0.45340E+06
 0.68549995E+02 -0.49315E+06
 0.68599998E+02 -0.50366E+06
 0.68649994E+02 -0.47165E+06
 0.68699997E+02 -0.42357E+06
 0.68749992E+02 -0.38450E+06
 0.68799995E+02 -0.36782E+06
 0.68849998E+02 -0.34847E+06
 0.68899994E+02 -0.31909E+06
 0.68949997E+02 -0.26949E+06
 0.68999992E+02 -0.21908E+06
 0.69049995E+02 -0.16844E+06
 0.69099998E+02 -0.13865E+06
 0.69149994E+02 -0.15456E+06
 0.69199997E+02 -0.21503E+06
 0.69249992E+02 -0.29136E+06
 0.69299995E+02 -0.36130E+06
 0.69349998E+02 -0.39882E+06
 0.69399994E+02 -0.42547E+06
 0.69449997E+02 -0.41478E+06
 0.69499992E+02 -0.32845E+06
 0.69549995E+02 -0.21293E+06
 0.69599998E+02 -0.70452E+05
 0.69649994E+02  0.80985E+05
 0.69699997E+02  0.20938E+06
 0.69749992E+02  0.28095E+06
 0.69799995E+02  0.30008E+06
 0.69849998E+02  0.25654E+06
 0.69899994E+02  0.16845E+06
 0.69949997E+02  0.70185E+05
 0.69999992E+02 -0.11072E+05
 0.70049995E+02 -0.56558E+05
 0.70099998E+02 -0.45433E+05
 0.70149994E+02 -0.80476E+05
 0.70199997E+02 -0.56566E+05
 0.70249992E+02 -0.14257E+06
 0.70299995E+02 -0.44928E+06
 0.70349998E+02 -0.58661E+06
 0.70399994E+02 -0.67712E+06
 0.70449997E+02 -0.74825E+06
 0.70499992E+02 -0.79693E+06
 0.70549995E+02 -0.84318E+06
 0.70599998E+02 -0.80353E+06
 0.70649994E+02 -0.72573E+06
 0.70699997E+02 -0.67298E+06
 0.70749992E+02 -0.61732E+06
 0.70799995E+02 -0.55231E+06
 0.70849998E+02 -0.50950E+06
 0.70899994E+02 -0.45590E+06
 0.70949997E+02 -0.38625E+06
 0.70999992E+02 -0.29372E+06
 0.71049995E+02 -0.20959E+06
 0.71099998E+02 -0.13284E+06
 0.71149994E+02 -0.61629E+05
 0.71199997E+02  0.18481E+04
 0.71249992E+02  0.54405E+05
 0.71299995E+02  0.11834E+06
 0.71349998E+02  0.21399E+06
 0.71399994E+02  0.32451E+06
 0.71449997E+02  0.43657E+06
 0.71499992E+02  0.53465E+06
 0.71549995E+02  0.61277E+06
 0.71599998E+02  0.67776E+06
 0.71649994E+02  0.72292E+06
 0.71699997E+02  0.71884E+06
 0.71749992E+02  0.64960E+06
 0.71799995E+02  0.55566E+06
 0.71849998E+02  0.46121E+06
 0.71899994E+02  0.35199E+06
 0.71949997E+02  0.24190E+06
 0.71999992E+02  0.16255E+06
 0.72049995E+02  0.11961E+06
 0.72099998E+02  0.11751E+06
 0.72149994E+02  0.16021E+06
 0.72199997E+02  0.20251E+06
 0.72249992E+02  0.22887E+06
 0.72299995E+02  0.26915E+06
 0.72349998E+02  0.31517E+06
 0.72399994E+02  0.35352E+06
 0.72449997E+02  0.36483E+06
 0.72499992E+02  0.35221E+06
 0.72549995E+02  0.32873E+06
 0.72599998E+02  0.26991E+06
 0.72649994E+02  0.15380E+06
 0.72699997E+02  0.70269E+04
 0.72749992E+02 -0.16056E+06
 0.72799995E+02 -0.35122E+06
 0.72849998E+02 -0.54582E+06
 0.72899994E+02 -0.72233E+06
 0.72949997E+02 -0.82960E+06
 0.72999992E+02 -0.83847E+06
 0.73049995E+02 -0.77075E+06
 0.73099998E+02 -0.66806E+06
 0.73149994E+02 -0.57196E+06
 0.73199997E+02 -0.51353E+06
 0.73249992E+02 -0.48497E+06
 0.73299995E+02 -0.49143E+06
 0.73349998E+02 -0.47711E+06
 0.73399994E+02 -0.42491E+06
 0.73449997E+02 -0.37522E+06
 0.73499992E+02 -0.33673E+06
 0.73549995E+02 -0.31996E+06
 0.73599998E+02 -0.30258E+06
 0.73649994E+02 -0.27727E+06
 0.73699997E+02 -0.23512E+06
 0.73749992E+02 -0.18449E+06
 0.73799995E+02 -0.12278E+06
 0.73849998E+02 -0.41222E+05
 0.73899994E+02  0.53050E+05
 0.73949997E+02  0.16061E+06
 0.73999992E+02  0.26346E+06
 0.74049995E+02  0.31865E+06
 0.74099998E+02  0.31903E+06
 0.74149994E+02  0.27651E+06
 0.74199997E+02  0.18487E+06
 0.74249992E+02  0.44200E+05
 0.74299995E+02 -0.12091E+06
 0.74349998E+02 -0.26262E+06
 0.74399994E+02 -0.36019E+06
 0.74449997E+02 -0.41301E+06
 0.74499992E+02 -0.43291E+06
 0.74549995E+02 -0.44118E+06
 0.74599998E+02 -0.47294E+06
 0.74649994E+02 -0.53335E+06
 0.74699997E+02 -0.58231E+06
 0.74749992E+02 -0.58916E+06
 0.74799995E+02 -0.53301E+06
 0.74849998E+02 -0.43153E+06
 0.74899994E+02 -0.30904E+06
 0.74949997E+02 -0.18353E+06
 0.74999992E+02 -0.80028E+05
 0.75049995E+02  0.14829E+04
 0.75099998E+02  0.60950E+05
 0.75149994E+02  0.10074E+06
 0.75199997E+02  0.14102E+06
 0.75249992E+02  0.18891E+06
 0.75299995E+02  0.23678E+06
 0.75349998E+02  0.27460E+06
 0.75399994E+02  0.28829E+06
 0.75449997E+02  0.28956E+06
 0.75499992E+02  0.29270E+06
 0.75549995E+02  0.28871E+06
 0.75599998E+02  0.27479E+06
 0.75649994E+02  0.24905E+06
 0.75699997E+02  0.18666E+06
 0.75749992E+02  0.77519E+05
 0.75799995E+02  0.49499E+05
 0.75849998E+02  0.92822E+05
 0.75899994E+02  0.68895E+05
 0.75949997E+02  0.38118E+05
 0.75999992E+02  0.15159E+05
 0.76049995E+02 -0.14717E+05
 0.76099998E+02 -0.25288E+05
 0.76149994E+02 -0.29690E+05
 0.76199997E+02 -0.25170E+05
 0.76249992E+02 -0.19006E+05
 0.76299995E+02 -0.76073E+04
 0.76349998E+02  0.37349E+05
 0.76399994E+02  0.12937E+06
 0.76449997E+02  0.26237E+06
 0.76499992E+02  0.42749E+06
 0.76549995E+02  0.59209E+06
 0.76599998E+02  0.70950E+06
 0.76649994E+02  0.75105E+06
 0.76699997E+02  0.71894E+06
 0.76749992E+02  0.63064E+06
 0.76799995E+02  0.50078E+06
 0.76849998E+02  0.35795E+06
 0.76899994E+02  0.23289E+06
 0.76949997E+02  0.13417E+06
 0.76999992E+02  0.50618E+05
 0.77049995E+02 -0.19698E+05
 0.77099998E+02 -0.62982E+05
 0.77149994E+02 -0.72159E+05
 0.77199997E+02 -0.57783E+05
 0.77249992E+02 -0.43619E+05
 0.77299995E+02 -0.44515E+05
 0.77349998E+02 -0.46688E+05
 0.77399994E+02 -0.40405E+05
 0.77449997E+02 -0.24551E+05
 0.77499992E+02  0.19509E+05
 0.77549995E+02  0.10101E+06
 0.77599998E+02  0.21375E+06
 0.77649994E+02  0.34394E+06
 0.77699997E+02  0.47526E+06
 0.77749992E+02  0.60244E+06
 0.77799995E+02  0.71064E+06
 0.77849998E+02  0.77456E+06
 0.77899994E+02  0.79008E+06
 0.77949997E+02  0.77477E+06
 0.77999992E+02  0.73968E+06
 0.78049995E+02  0.66344E+06
 0.78099998E+02  0.54582E+06
 0.78149994E+02  0.39421E+06
 0.78199997E+02  0.22443E+06
 0.78249992E+02  0.62224E+05
 0.78299995E+02 -0.81038E+05
 0.78349998E+02 -0.18008E+06
 0.78399994E+02 -0.21421E+06
 0.78449997E+02 -0.17922E+06
 0.78499992E+02 -0.12360E+06
 0.78549995E+02 -0.91492E+05
 0.78599998E+02 -0.79327E+05
 0.78649994E+02 -0.63329E+05
 0.78699997E+02 -0.20915E+05
 0.78749992E+02  0.53357E+05
 0.78799995E+02  0.13771E+06
 0.78849998E+02  0.21720E+06
 0.78899994E+02  0.26989E+06
 0.78949997E+02  0.32304E+06
 0.78999992E+02  0.36903E+06
 0.79049995E+02  0.39839E+06
 0.79099998E+02  0.37653E+06
 0.79149994E+02  0.32276E+06
 0.79199997E+02  0.26608E+06
 0.79249992E+02  0.24944E+06
 0.79299995E+02  0.26634E+06
 0.79349998E+02  0.30594E+06
 0.79399994E+02  0.32693E+06
 0.79449997E+02  0.22334E+06
 0.79499992E+02  0.39094E+06
 0.79549995E+02  0.55309E+06
 0.79599998E+02  0.52637E+06
 0.79649994E+02  0.54139E+06
 0.79699997E+02  0.52697E+06
 0.79749992E+02  0.53411E+06
 0.79799995E+02  0.53360E+06
 0.79849998E+02  0.55410E+06
 0.79899994E+02  0.56523E+06
 0.79949997E+02  0.56590E+06
 0.79999992E+02  0.54798E+06
 0.80049995E+02  0.51034E+06
 0.80099998E+02  0.45711E+06
 0.80149994E+02  0.40137E+06
 0.80199997E+02  0.35318E+06
 0.80249992E+02  0.30731E+06
 0.80299995E+02  0.25995E+06
 0.80349998E+02  0.21342E+06
 0.80399994E+02  0.18806E+06
 0.80449997E+02  0.19615E+06
 0.80499992E+02  0.23029E+06
 0.80549995E+02  0.26003E+06
 0.80599998E+02  0.25841E+06
 0.80649994E+02  0.21226E+06
 0.80699997E+02  0.10088E+06
 0.80749992E+02 -0.23196E+05
 0.80799995E+02 -0.11391E+06
 0.80849998E+02 -0.10337E+06
 0.80899994E+02 -0.82964E+05
 0.80949997E+02 -0.10753E+06
 0.80999992E+02 -0.36132E+06
 0.81049995E+02 -0.67527E+06
 0.81099998E+02 -0.71826E+06
 0.81149994E+02 -0.72703E+06
 0.81199997E+02 -0.70947E+06
 0.81249992E+02 -0.68628E+06
 0.81299995E+02 -0.67468E+06
 0.81349998E+02 -0.68091E+06
 0.81399994E+02 -0.70270E+06
 0.81449997E+02 -0.71590E+06
 0.81499992E+02 -0.72942E+06
 0.81549995E+02 -0.72549E+06
 0.81599998E+02 -0.69738E+06
 0.81649994E+02 -0.61141E+06
 0.81699997E+02 -0.47736E+06
 0.81749992E+02 -0.31451E+06
 0.81799995E+02 -0.14579E+06
 0.81849998E+02  0.16387E+05
 0.81899994E+02  0.17503E+06
 0.81949997E+02  0.31435E+06
 0.81999992E+02  0.41166E+06
 0.82049995E+02  0.48318E+06
 0.82099998E+02  0.56263E+06
 0.82149994E+02  0.60065E+06
 0.82199997E+02  0.67323E+06
 0.82249992E+02  0.73113E+06
 0.82299995E+02  0.72248E+06
 0.82349998E+02  0.71373E+06
 0.82399994E+02  0.69808E+06
 0.82449997E+02  0.71224E+06
 0.82499992E+02  0.65915E+06
 0.82549995E+02  0.59471E+06
 0.82599998E+02  0.58238E+06
 0.82649994E+02  0.56985E+06
 0.82699997E+02  0.54709E+06
 0.82749992E+02  0.52094E+06
 0.82799995E+02  0.49715E+06
 0.82849998E+02  0.47014E+06
 0.82899994E+02  0.45288E+06
 0.82949997E+02  0.45384E+06
 0.82999992E+02  0.47733E+06
 0.83049995E+02  0.50776E+06
 0.83099998E+02  0.53284E+06
 0.83149994E+02  0.56168E+06
 0.83199997E+02  0.60164E+06
 0.83249992E+02  0.63935E+06
 0.83299995E+02  0.66049E+06
 0.83349998E+02  0.65885E+06
 0.83399994E+02  0.64797E+06
 0.83449997E+02  0.65131E+06
 0.83499992E+02  0.65800E+06
 0.83549995E+02  0.65909E+06
 0.83599998E+02  0.65247E+06
 0.83649994E+02  0.62759E+06
 0.83699997E+02  0.57253E+06
 0.83749992E+02  0.47916E+06
 0.83799995E+02  0.35589E+06
 0.83849998E+02  0.21439E+06
 0.83899994E+02  0.71898E+05
 0.83949997E+02 -0.67265E+05
 0.83999992E+02 -0.19494E+06
 0.84049995E+02 -0.28663E+06
 0.84099998E+02 -0.36152E+06
 0.84149994E+02 -0.42451E+06
 0.84199997E+02 -0.45616E+06
 0.84249992E+02 -0.47591E+06
 0.84299995E+02 -0.49671E+06
 0.84349998E+02 -0.52035E+06
 0.84399994E+02 -0.54859E+06
 0.84449997E+02 -0.58418E+06
 0.84499992E+02 -0.63764E+06
 0.84549995E+02 -0.70888E+06
 0.84599998E+02 -0.78649E+06
 0.84649994E+02 -0.84993E+06
 0.84699997E+02 -0.88444E+06
 0.84749992E+02 -0.89009E+06
 0.84799995E+02 -0.86388E+06
 0.84849998E+02 -0.81554E+06
 0.84899994E+02 -0.76812E+06
 0.84949997E+02 -0.72643E+06
 0.84999992E+02 -0.67699E+06
 0.85049995E+02 -0.61477E+06
 0.85099998E+02 -0.53951E+06
 0.85149994E+02 -0.44797E+06
 0.85199997E+02 -0.34679E+06
 0.85249992E+02 -0.23956E+06
 0.85299995E+02 -0.12215E+06
 0.85349998E+02  0.76406E+04
 0.85399994E+02  0.13861E+06
 0.85449997E+02  0.27805E+06
 0.85499992E+02  0.41772E+06
 0.85549995E+02  0.54814E+06
 0.85599998E+02  0.66090E+06
 0.85649994E+02  0.76569E+06
 0.85699997E+02  0.86376E+06
 0.85749992E+02  0.96190E+06
 0.85799995E+02  0.10476E+07
 0.85849998E+02  0.10889E+07
 0.85899994E+02  0.11261E+07
 0.85949997E+02  0.11740E+07
 0.85999992E+02  0.12151E+07
 0.86049995E+02  0.12071E+07
 0.86099998E+02  0.11624E+07
 0.86149994E+02  0.11012E+07
 0.86199997E+02  0.10357E+07
 0.86249992E+02  0.96313E+06
 0.86299995E+02  0.88662E+06
 0.86349998E+02  0.80497E+06
 0.86399994E+02  0.70626E+06
 0.86449997E+02  0.59302E+06
 0.86499992E+02  0.45628E+06
 0.86549995E+02  0.30703E+06
 0.86599998E+02  0.15317E+06
 0.86649994E+02  0.61252E+04
 0.86699997E+02 -0.13099E+06
 0.86749992E+02 -0.23390E+06
 0.86799995E+02 -0.28397E+06
 0.86849998E+02 -0.29448E+06
 0.86899994E+02 -0.30593E+06
 0.86949997E+02 -0.34751E+06
 0.86999992E+02 -0.40816E+06
 0.87049995E+02 -0.47202E+06
 0.87099998E+02 -0.52677E+06
 0.87149994E+02 -0.56200E+06
 0.87199997E+02 -0.58404E+06
 0.87249992E+02 -0.59680E+06
 0.87299995E+02 -0.59095E+06
 0.87349998E+02 -0.55053E+06
 0.87399994E+02 -0.47878E+06
 0.87449997E+02 -0.39280E+06
 0.87499992E+02 -0.33152E+06
 0.87549995E+02 -0.29605E+06
 0.87599991E+02 -0.26142E+06
 0.87649994E+02 -0.23579E+06
 0.87699997E+02 -0.22277E+06
 0.87749992E+02 -0.23106E+06
 0.87799995E+02 -0.25893E+06
 0.87849991E+02 -0.30196E+06
 0.87899994E+02 -0.33705E+06
 0.87949997E+02 -0.33406E+06
 0.87999992E+02 -0.28621E+06
 0.88049995E+02 -0.19753E+06
 0.88099991E+02 -0.91719E+05
 0.88149994E+02  0.53502E+04
 0.88199997E+02  0.90603E+05
 0.88249992E+02  0.16218E+06
 0.88299995E+02  0.22253E+06
 0.88349991E+02  0.27310E+06
 0.88399994E+02  0.31833E+06
 0.88449997E+02  0.36260E+06
 0.88499992E+02  0.40044E+06
 0.88549995E+02  0.43165E+06
 0.88599991E+02  0.44888E+06
 0.88649994E+02  0.45525E+06
 0.88699997E+02  0.44575E+06
 0.88749992E+02  0.42725E+06
 0.88799995E+02  0.40491E+06
 0.88849991E+02  0.37431E+06
 0.88899994E+02  0.33117E+06
 0.88949997E+02  0.26587E+06
 0.88999992E+02  0.18971E+06
 0.89049995E+02  0.12078E+06
 0.89099991E+02  0.76224E+05
 0.89149994E+02  0.51858E+05
 0.89199997E+02  0.35750E+05
 0.89249992E+02  0.26288E+05
 0.89299995E+02  0.29637E+05
 0.89349991E+02  0.43234E+05
 0.89399994E+02  0.63563E+05
 0.89449997E+02  0.94626E+05
 0.89499992E+02  0.13702E+06
 0.89549995E+02  0.18065E+06
 0.89599991E+02  0.21598E+06
 0.89649994E+02  0.23832E+06
 0.89699997E+02  0.24100E+06
 0.89749992E+02  0.22530E+06
 0.89799995E+02  0.19556E+06
 0.89849991E+02  0.15900E+06
 0.89899994E+02  0.12696E+06
 0.89949997E+02  0.10984E+06
 0.89999992E+02  0.10512E+06
 0.90049995E+02  0.10356E+06
 0.90099991E+02  0.10034E+06
 0.90149994E+02  0.10381E+06
 0.90199997E+02  0.11292E+06
 0.90249992E+02  0.11345E+06
 0.90299995E+02  0.98550E+05
 0.90349991E+02  0.69347E+05
 0.90399994E+02  0.40755E+05
 0.90449997E+02  0.12929E+05
 0.90499992E+02 -0.18615E+05
 0.90549995E+02 -0.51634E+05
 0.90599991E+02 -0.79942E+05
 0.90649994E+02 -0.98311E+05
 0.90699997E+02 -0.99945E+05
 0.90749992E+02 -0.76617E+05
 0.90799995E+02 -0.33312E+05
 0.90849991E+02  0.24301E+05
 0.90899994E+02  0.87033E+05
 0.90949997E+02  0.14030E+06
 0.90999992E+02  0.17252E+06
 0.91049995E+02  0.17920E+06
 0.91099991E+02  0.16294E+06
 0.91149994E+02  0.13593E+06
 0.91199997E+02  0.10760E+06
 0.91249992E+02  0.81336E+05
 0.91299995E+02  0.63799E+05
 0.91349991E+02  0.58104E+05
 0.91399994E+02  0.61748E+05
 0.91449997E+02  0.71397E+05
 0.91499992E+02  0.78240E+05
 0.91549995E+02  0.71791E+05
 0.91599991E+02  0.43537E+05
 0.91649994E+02 -0.13942E+05
 0.91699997E+02 -0.10235E+06
 0.91749992E+02 -0.21523E+06
 0.91799995E+02 -0.33372E+06
 0.91849991E+02 -0.43378E+06
 0.91899994E+02 -0.49387E+06
 0.91949997E+02 -0.50280E+06
 0.91999992E+02 -0.46496E+06
 0.92049995E+02 -0.39389E+06
 0.92099991E+02 -0.30777E+06
 0.92149994E+02 -0.22314E+06
 0.92199997E+02 -0.15085E+06
 0.92249992E+02 -0.97487E+05
 0.92299995E+02 -0.63350E+05
 0.92349991E+02 -0.38945E+05
 0.92399994E+02 -0.11345E+05
 0.92449997E+02  0.23820E+05
 0.92499992E+02  0.67340E+05
 0.92549995E+02  0.12097E+06
 0.92599991E+02  0.18473E+06
 0.92649994E+02  0.25552E+06
 0.92699997E+02  0.31985E+06
 0.92749992E+02  0.36780E+06
 0.92799995E+02  0.40241E+06
 0.92849991E+02  0.42738E+06
 0.92899994E+02  0.45119E+06
 0.92949997E+02  0.48582E+06
 0.92999992E+02  0.53021E+06
 0.93049995E+02  0.57790E+06
 0.93099991E+02  0.60830E+06
 0.93149994E+02  0.61726E+06
 0.93199997E+02  0.59965E+06
 0.93249992E+02  0.56448E+06
 0.93299995E+02  0.51259E+06
 0.93349991E+02  0.45449E+06
 0.93399994E+02  0.39538E+06
 0.93449997E+02  0.32346E+06
 0.93499992E+02  0.19552E+06
 0.93549995E+02  0.47231E+04
 0.93599991E+02 -0.12276E+06
 0.93649994E+02 -0.19504E+06
 0.93699997E+02 -0.23387E+06
 0.93749992E+02 -0.24027E+06
 0.93799995E+02 -0.24693E+06
 0.93849991E+02 -0.26198E+06
 0.93899994E+02 -0.28592E+06
 0.93949997E+02 -0.30422E+06
 0.93999992E+02 -0.31315E+06
 0.94049995E+02 -0.30154E+06
 0.94099991E+02 -0.26602E+06
 0.94149994E+02 -0.20671E+06
 0.94199997E+02 -0.12697E+06
 0.94249992E+02 -0.50823E+05
 0.94299995E+02  0.18077E+04
 0.94349991E+02  0.30198E+05
 0.94399994E+02  0.34971E+05
 0.94449997E+02  0.48084E+05
 0.94499992E+02  0.55369E+05
 0.94549995E+02  0.55327E+05
 0.94599991E+02  0.56069E+05
 0.94649994E+02  0.49236E+05
 0.94699997E+02  0.47515E+05
 0.94749992E+02  0.55787E+05
 0.94799995E+02  0.75775E+05
 0.94849991E+02  0.10295E+06
 0.94899994E+02  0.13086E+06
 0.94949997E+02  0.14213E+06
 0.94999992E+02  0.13258E+06
 0.95049995E+02  0.11109E+06
 0.95099991E+02  0.87156E+05
 0.95149994E+02  0.71398E+05
 0.95199997E+02  0.70476E+05
 0.95249992E+02  0.85690E+05
 0.95299995E+02  0.11660E+06
 0.95349991E+02  0.16474E+06
 0.95399994E+02  0.22423E+06
 0.95449997E+02  0.29529E+06
 0.95499992E+02  0.37463E+06
 0.95549995E+02  0.45092E+06
 0.95599991E+02  0.52395E+06
 0.95649994E+02  0.57978E+06
 0.95699997E+02  0.60793E+06
 0.95749992E+02  0.60735E+06
 0.95799995E+02  0.57599E+06
 0.95849991E+02  0.51136E+06
 0.95899994E+02  0.41199E+06
 0.95949997E+02  0.28583E+06
 0.95999992E+02  0.13955E+06
 0.96049995E+02 -0.18798E+05
 0.96099991E+02 -0.17951E+06
 0.96149994E+02 -0.33117E+06
 0.96199997E+02 -0.46058E+06
 0.96249992E+02 -0.55320E+06
 0.96299995E+02 -0.60094E+06
 0.96349991E+02 -0.60136E+06
 0.96399994E+02 -0.56354E+06
 0.96449997E+02 -0.49387E+06
 0.96499992E+02 -0.40048E+06
 0.96549995E+02 -0.30531E+06
 0.96599991E+02 -0.21500E+06
 0.96649994E+02 -0.14363E+06
 0.96699997E+02 -0.10091E+06
 0.96749992E+02 -0.86139E+05
 0.96799995E+02 -0.99653E+05
 0.96849991E+02 -0.13346E+06
 0.96899994E+02 -0.17110E+06
 0.96949997E+02 -0.19313E+06
 0.96999992E+02 -0.19679E+06
 0.97049995E+02 -0.18255E+06
 0.97099991E+02 -0.15197E+06
 0.97149994E+02 -0.11209E+06
 0.97199997E+02 -0.72115E+05
 0.97249992E+02 -0.39371E+05
 0.97299995E+02 -0.12829E+05
 0.97349991E+02  0.13592E+05
 0.97399994E+02  0.44978E+05
 0.97449997E+02  0.80902E+05
 0.97499992E+02  0.11671E+06
 0.97549995E+02  0.14609E+06
 0.97599991E+02  0.16358E+06
 0.97649994E+02  0.16613E+06
 0.97699997E+02  0.15554E+06
 0.97749992E+02  0.13857E+06
 0.97799995E+02  0.12514E+06
 0.97849991E+02  0.11519E+06
 0.97899994E+02  0.10411E+06
 0.97949997E+02  0.94622E+05
 0.97999992E+02  0.91565E+05
