-0.20000000E+01 -0.24877E+05
-0.19500000E+01 -0.24743E+05
-0.19000000E+01 -0.24848E+05
-0.18500000E+01 -0.24855E+05
-0.18000000E+01 -0.24851E+05
-0.17500000E+01 -0.24848E+05
-0.17000000E+01 -0.24845E+05
-0.16500001E+01 -0.24839E+05
-0.16000000E+01 -0.24838E+05
-0.15500000E+01 -0.24840E+05
-0.15000000E+01 -0.24832E+05
-0.14500000E+01 -0.24832E+05
-0.14000001E+01 -0.24833E+05
-0.13500000E+01 -0.24829E+05
-0.13000001E+01 -0.24829E+05
-0.12500000E+01 -0.24829E+05
-0.12000000E+01 -0.24834E+05
-0.11500001E+01 -0.24835E+05
-0.11000000E+01 -0.24829E+05
-0.10500001E+01 -0.24821E+05
-0.10000000E+01 -0.24825E+05
-0.95000005E+00 -0.24825E+05
-0.90000010E+00 -0.24822E+05
-0.85000002E+00 -0.24823E+05
-0.80000007E+00 -0.24824E+05
-0.75000012E+00 -0.24822E+05
-0.70000005E+00 -0.24821E+05
-0.65000010E+00 -0.24822E+05
-0.60000014E+00 -0.24820E+05
-0.55000007E+00 -0.24821E+05
-0.50000012E+00 -0.24818E+05
-0.45000005E+00 -0.24817E+05
-0.40000010E+00 -0.24819E+05
-0.35000014E+00 -0.24827E+05
-0.30000007E+00 -0.24820E+05
-0.25000012E+00 -0.24822E+05
-0.20000005E+00 -0.24833E+05
-0.15000010E+00 -0.24826E+05
-0.10000014E+00 -0.24834E+05
-0.50000072E-01 -0.24831E+05
-0.11920929E-06 -0.24827E+05
 0.49999952E-01 -0.24835E+05
 0.99999905E-01 -0.24827E+05
 0.14999986E+00 -0.24837E+05
 0.19999981E+00 -0.24842E+05
 0.24999976E+00 -0.24838E+05
 0.29999995E+00 -0.24843E+05
 0.34999990E+00 -0.24845E+05
 0.39999986E+00 -0.24838E+05
 0.44999981E+00 -0.24841E+05
 0.49999976E+00 -0.24841E+05
 0.54999995E+00 -0.24836E+05
 0.59999990E+00 -0.24848E+05
 0.64999986E+00 -0.24835E+05
 0.69999981E+00 -0.24830E+05
 0.74999976E+00 -0.24834E+05
 0.79999971E+00 -0.24830E+05
 0.84999990E+00 -0.24832E+05
 0.89999986E+00 -0.24829E+05
 0.94999981E+00 -0.24833E+05
 0.99999976E+00 -0.24833E+05
 0.10499997E+01 -0.24829E+05
 0.10999999E+01 -0.24829E+05
 0.11499999E+01 -0.24828E+05
 0.11999998E+01 -0.24823E+05
 0.12499998E+01 -0.24822E+05
 0.12999997E+01 -0.24820E+05
 0.13499999E+01 -0.24827E+05
 0.13999999E+01 -0.24823E+05
 0.14499998E+01 -0.24826E+05
 0.14999998E+01 -0.24819E+05
 0.15499997E+01 -0.24814E+05
 0.15999999E+01 -0.24819E+05
 0.16499999E+01 -0.24818E+05
 0.16999998E+01 -0.24824E+05
 0.17499998E+01 -0.24822E+05
 0.17999997E+01 -0.24827E+05
 0.18499997E+01 -0.24818E+05
 0.18999999E+01 -0.24833E+05
 0.19499998E+01 -0.24830E+05
 0.19999998E+01 -0.24838E+05
 0.20499997E+01 -0.24841E+05
 0.20999999E+01 -0.24838E+05
 0.21499996E+01 -0.24842E+05
 0.21999998E+01 -0.24840E+05
 0.22499995E+01 -0.24843E+05
 0.22999997E+01 -0.24837E+05
 0.23499999E+01 -0.24835E+05
 0.23999996E+01 -0.24820E+05
 0.24499998E+01 -0.24827E+05
 0.24999995E+01 -0.24829E+05
 0.25499997E+01 -0.24826E+05
 0.25999999E+01 -0.24827E+05
 0.26499996E+01 -0.24830E+05
 0.26999998E+01 -0.24830E+05
 0.27499995E+01 -0.24838E+05
 0.27999997E+01 -0.24836E+05
 0.28499999E+01 -0.24829E+05
 0.28999996E+01 -0.24831E+05
 0.29499998E+01 -0.24831E+05
 0.29999995E+01 -0.24829E+05
 0.30499997E+01 -0.24831E+05
 0.30999999E+01 -0.24828E+05
 0.31499996E+01 -0.24830E+05
 0.31999998E+01 -0.24830E+05
 0.32499995E+01 -0.24830E+05
 0.32999997E+01 -0.24834E+05
 0.33499999E+01 -0.24826E+05
 0.33999996E+01 -0.24842E+05
 0.34499998E+01 -0.24820E+05
 0.34999995E+01 -0.24837E+05
 0.35499997E+01 -0.24809E+05
 0.35999994E+01 -0.24827E+05
 0.36499996E+01 -0.24813E+05
 0.36999998E+01 -0.24808E+05
 0.37499995E+01 -0.24832E+05
 0.37999997E+01 -0.24785E+05
 0.38499994E+01 -0.24834E+05
 0.38999996E+01 -0.24791E+05
 0.39499998E+01 -0.24809E+05
 0.39999995E+01 -0.24813E+05
 0.40499997E+01 -0.24789E+05
 0.40999994E+01 -0.24833E+05
 0.41499996E+01 -0.24798E+05
 0.41999998E+01 -0.24807E+05
 0.42499995E+01 -0.24838E+05
 0.42999997E+01 -0.24789E+05
 0.43499994E+01 -0.24833E+05
 0.43999996E+01 -0.24814E+05
 0.44499998E+01 -0.24802E+05
 0.44999995E+01 -0.24825E+05
 0.45499997E+01 -0.24798E+05
 0.45999994E+01 -0.24829E+05
 0.46499996E+01 -0.24818E+05
 0.46999998E+01 -0.24820E+05
 0.47499995E+01 -0.24826E+05
 0.47999997E+01 -0.24828E+05
 0.48499994E+01 -0.24826E+05
 0.48999996E+01 -0.24826E+05
 0.49499998E+01 -0.24825E+05
 0.49999995E+01 -0.24835E+05
 0.50499997E+01 -0.24841E+05
 0.50999994E+01 -0.24846E+05
 0.51499996E+01 -0.24850E+05
 0.51999998E+01 -0.24845E+05
 0.52499995E+01 -0.24851E+05
 0.52999997E+01 -0.24847E+05
 0.53499994E+01 -0.24850E+05
 0.53999996E+01 -0.24851E+05
 0.54499993E+01 -0.24847E+05
 0.54999995E+01 -0.24853E+05
 0.55499997E+01 -0.24840E+05
 0.55999994E+01 -0.24846E+05
 0.56499996E+01 -0.24845E+05
 0.56999993E+01 -0.24840E+05
 0.57499995E+01 -0.24840E+05
 0.57999997E+01 -0.24834E+05
 0.58499994E+01 -0.24830E+05
 0.58999996E+01 -0.24833E+05
 0.59499993E+01 -0.24831E+05
 0.59999995E+01 -0.24829E+05
 0.60499992E+01 -0.24829E+05
 0.60999994E+01 -0.24814E+05
 0.61499996E+01 -0.24824E+05
 0.61999998E+01 -0.24820E+05
 0.62499990E+01 -0.24821E+05
 0.62999992E+01 -0.24810E+05
 0.63499994E+01 -0.24811E+05
 0.63999996E+01 -0.24818E+05
 0.64499998E+01 -0.24822E+05
 0.64999990E+01 -0.24850E+05
 0.65499992E+01 -0.24844E+05
 0.65999994E+01 -0.24840E+05
 0.66499996E+01 -0.24880E+05
 0.66999998E+01 -0.24794E+05
 0.67499990E+01 -0.24883E+05
 0.67999992E+01 -0.24772E+05
 0.68499994E+01 -0.24915E+05
 0.68999996E+01 -0.24780E+05
 0.69499998E+01 -0.24884E+05
 0.69999990E+01 -0.24813E+05
 0.70499992E+01 -0.24933E+05
 0.70999994E+01 -0.24709E+05
 0.71499996E+01 -0.24970E+05
 0.71999998E+01 -0.24804E+05
 0.72499990E+01 -0.24962E+05
 0.72999992E+01 -0.26930E+05
 0.73499994E+01 -0.26759E+05
 0.73999996E+01 -0.24759E+05
 0.74499998E+01 -0.25100E+05
 0.74999990E+01 -0.23304E+05
 0.75499992E+01 -0.21561E+05
 0.75999994E+01 -0.26717E+05
 0.76499996E+01 -0.24755E+05
 0.76999998E+01 -0.26652E+05
 0.77499990E+01 -0.30318E+05
 0.77999992E+01 -0.21976E+05
 0.78499994E+01 -0.25419E+05
 0.78999996E+01 -0.20926E+05
 0.79499998E+01 -0.24758E+05
 0.79999990E+01 -0.25638E+05
 0.80499992E+01 -0.22184E+05
 0.80999994E+01 -0.32235E+05
 0.81499996E+01 -0.30630E+05
 0.81999998E+01 -0.18952E+05
 0.82499990E+01 -0.33377E+05
 0.82999992E+01 -0.30005E+05
 0.83499994E+01 -0.57426E+04
 0.83999996E+01 -0.35533E+05
 0.84499998E+01 -0.16752E+05
 0.84999990E+01 -0.86769E+04
 0.85499992E+01 -0.50851E+05
 0.85999994E+01 -0.65576E+04
 0.86499996E+01 -0.13377E+05
 0.86999998E+01 -0.67429E+05
 0.87499990E+01  0.20776E+05
 0.87999992E+01 -0.42067E+05
 0.88499994E+01 -0.53873E+05
 0.88999996E+01  0.34366E+05
 0.89499998E+01 -0.40336E+05
 0.89999990E+01 -0.56994E+05
 0.90499992E+01  0.10548E+05
 0.90999994E+01 -0.39003E+05
 0.91499996E+01 -0.53211E+05
 0.91999989E+01  0.34773E+04
 0.92499990E+01 -0.30294E+05
 0.92999992E+01 -0.39883E+05
 0.93499994E+01 -0.13857E+05
 0.93999996E+01 -0.27221E+05
 0.94499989E+01 -0.14575E+05
 0.94999990E+01 -0.16475E+05
 0.95499992E+01 -0.68582E+05
 0.95999994E+01  0.54034E+04
 0.96499996E+01 -0.31120E+05
 0.96999989E+01 -0.22821E+05
 0.97499990E+01 -0.25080E+05
 0.97999992E+01 -0.25662E+05
 0.98499994E+01 -0.30272E+05
 0.98999996E+01 -0.34953E+05
 0.99499989E+01  0.77441E+04
 0.99999990E+01 -0.56074E+05
 0.10049999E+02 -0.35358E+04
 0.10099999E+02 -0.22778E+05
 0.10150000E+02 -0.56791E+05
 0.10199999E+02  0.21253E+05
 0.10249999E+02 -0.60572E+05
 0.10299999E+02 -0.20409E+05
 0.10349999E+02  0.27693E+04
 0.10400000E+02 -0.63928E+05
 0.10449999E+02  0.20603E+05
 0.10499999E+02 -0.45260E+05
 0.10549999E+02 -0.32315E+05
 0.10599999E+02 -0.18914E+05
 0.10650000E+02 -0.27106E+05
 0.10699999E+02 -0.18529E+05
 0.10749999E+02 -0.18949E+05
 0.10799999E+02 -0.88743E+04
 0.10849999E+02 -0.45100E+05
 0.10900000E+02 -0.30167E+05
 0.10949999E+02 -0.19491E+05
 0.10999999E+02 -0.11201E+05
 0.11049999E+02 -0.46176E+05
 0.11099999E+02 -0.31378E+05
 0.11150000E+02  0.20739E+04
 0.11199999E+02 -0.37872E+05
 0.11249999E+02 -0.31324E+05
 0.11299999E+02 -0.17699E+05
 0.11349999E+02 -0.33548E+05
 0.11400000E+02 -0.27240E+05
 0.11449999E+02 -0.27792E+05
 0.11499999E+02 -0.26722E+05
 0.11549999E+02 -0.25872E+05
 0.11599999E+02 -0.25132E+05
 0.11650000E+02 -0.53342E+04
 0.11699999E+02 -0.44078E+05
 0.11749999E+02 -0.40361E+05
 0.11799999E+02 -0.13935E+04
 0.11849999E+02 -0.38748E+05
 0.11900000E+02  0.81529E+03
 0.11949999E+02  0.37249E+05
 0.11999999E+02 -0.58957E+05
 0.12049999E+02 -0.14791E+05
 0.12099999E+02  0.40994E+04
 0.12150000E+02 -0.10007E+06
 0.12199999E+02 -0.30362E+05
 0.12249999E+02 -0.95354E+04
 0.12299999E+02 -0.91321E+05
 0.12349999E+02  0.12691E+05
 0.12400000E+02  0.67474E+05
 0.12449999E+02 -0.98829E+05
 0.12499999E+02  0.11808E+05
 0.12549999E+02  0.40096E+04
 0.12599999E+02 -0.12603E+06
 0.12649999E+02  0.35790E+05
 0.12699999E+02  0.75811E+05
 0.12749999E+02 -0.97639E+05
 0.12799999E+02 -0.39316E+05
 0.12849999E+02  0.13449E+06
 0.12899999E+02 -0.16856E+06
 0.12949999E+02 -0.95348E+05
 0.12999999E+02  0.12095E+06
 0.13049999E+02 -0.19543E+06
 0.13099999E+02 -0.88465E+05
 0.13149999E+02  0.12198E+06
 0.13199999E+02 -0.95108E+05
 0.13249999E+02 -0.17939E+05
 0.13299999E+02  0.94869E+05
 0.13349999E+02 -0.65999E+05
 0.13399999E+02 -0.58704E+05
 0.13449999E+02 -0.48782E+05
 0.13499999E+02 -0.71432E+05
 0.13549999E+02 -0.52245E+05
 0.13599999E+02 -0.27273E+05
 0.13649999E+02 -0.25952E+05
 0.13699999E+02  0.84972E+04
 0.13749999E+02  0.75113E+04
 0.13799999E+02 -0.27226E+05
 0.13849999E+02  0.29493E+04
 0.13899999E+02 -0.53399E+05
 0.13949999E+02 -0.14105E+05
 0.13999999E+02  0.32726E+05
 0.14049999E+02 -0.10665E+06
 0.14099998E+02  0.35070E+04
 0.14150000E+02  0.70193E+05
 0.14199999E+02 -0.84590E+05
 0.14249998E+02 -0.51215E+05
 0.14299999E+02  0.30764E+05
 0.14349998E+02 -0.33397E+05
 0.14400000E+02 -0.35338E+05
 0.14449999E+02  0.19815E+05
 0.14499998E+02 -0.47164E+05
 0.14549999E+02 -0.31188E+05
 0.14599998E+02 -0.23294E+05
 0.14650000E+02 -0.31441E+05
 0.14699999E+02 -0.21534E+05
 0.14749998E+02 -0.45941E+04
 0.14799999E+02 -0.68854E+05
 0.14849998E+02 -0.53515E+05
 0.14900000E+02 -0.30640E+04
 0.14949999E+02 -0.61730E+05
 0.14999998E+02 -0.15032E+05
 0.15049999E+02 -0.30729E+05
 0.15099998E+02 -0.23742E+05
 0.15150000E+02 -0.77915E+04
 0.15199999E+02 -0.12878E+04
 0.15249998E+02 -0.43407E+05
 0.15299999E+02 -0.29238E+05
 0.15349998E+02  0.19872E+05
 0.15400000E+02 -0.10170E+06
 0.15449999E+02 -0.21683E+05
 0.15499998E+02  0.12117E+05
 0.15549999E+02 -0.55669E+05
 0.15599998E+02 -0.16757E+05
 0.15650000E+02 -0.24553E+05
 0.15699999E+02 -0.33711E+05
 0.15749998E+02 -0.15173E+05
 0.15799999E+02 -0.34024E+05
 0.15849998E+02 -0.55664E+05
 0.15900000E+02 -0.19732E+05
 0.15949999E+02 -0.46509E+05
 0.15999998E+02 -0.30133E+05
 0.16049999E+02 -0.20532E+05
 0.16099998E+02 -0.23751E+05
 0.16150000E+02 -0.95244E+04
 0.16199999E+02 -0.35581E+04
 0.16249998E+02 -0.13185E+05
 0.16299999E+02 -0.29310E+05
 0.16349998E+02  0.11074E+05
 0.16400000E+02 -0.26920E+05
 0.16449999E+02 -0.95052E+04
 0.16499998E+02  0.48023E+04
 0.16549999E+02 -0.36931E+05
 0.16599998E+02 -0.20025E+05
 0.16650000E+02 -0.14273E+05
 0.16699999E+02 -0.24398E+05
 0.16749998E+02 -0.49487E+05
 0.16799999E+02 -0.33129E+05
 0.16849998E+02 -0.27676E+05
 0.16900000E+02 -0.22774E+05
 0.16949999E+02 -0.22282E+05
 0.16999998E+02 -0.46296E+05
 0.17049999E+02 -0.15563E+05
 0.17099998E+02 -0.41744E+05
 0.17150000E+02 -0.52246E+05
 0.17199999E+02 -0.18058E+05
 0.17249998E+02 -0.18779E+05
 0.17299999E+02 -0.35598E+05
 0.17349998E+02 -0.15442E+05
 0.17400000E+02 -0.12584E+05
 0.17449999E+02 -0.26093E+05
 0.17499998E+02 -0.11037E+05
 0.17549999E+02 -0.26792E+05
 0.17599998E+02 -0.42714E+05
 0.17650000E+02 -0.41361E+05
 0.17699999E+02 -0.12873E+05
 0.17749998E+02 -0.33744E+05
 0.17799999E+02 -0.33452E+05
 0.17849998E+02 -0.24536E+05
 0.17900000E+02 -0.19427E+05
 0.17949999E+02 -0.31582E+05
 0.17999998E+02 -0.26439E+05
 0.18049999E+02 -0.14936E+05
 0.18099998E+02 -0.22967E+05
 0.18150000E+02 -0.18850E+05
 0.18199999E+02 -0.23174E+05
 0.18249998E+02 -0.79185E+04
 0.18299999E+02 -0.23535E+05
 0.18349998E+02 -0.10377E+05
 0.18400000E+02 -0.32578E+05
 0.18449999E+02 -0.22873E+05
 0.18499998E+02 -0.17622E+05
 0.18549999E+02 -0.25447E+05
 0.18599998E+02 -0.17490E+05
 0.18650000E+02 -0.31644E+05
 0.18699999E+02 -0.15366E+05
 0.18749998E+02 -0.29131E+05
 0.18799999E+02 -0.17133E+05
 0.18849998E+02 -0.38554E+05
 0.18900000E+02 -0.53574E+05
 0.18949999E+02 -0.23271E+05
 0.18999998E+02 -0.40602E+05
 0.19049999E+02 -0.37056E+05
 0.19099998E+02 -0.26124E+05
 0.19150000E+02 -0.37572E+05
 0.19199999E+02 -0.28627E+05
 0.19249998E+02 -0.17534E+05
 0.19299999E+02 -0.32110E+05
 0.19349998E+02 -0.28800E+05
 0.19400000E+02 -0.10446E+05
 0.19449999E+02 -0.36175E+05
 0.19499998E+02 -0.12208E+05
 0.19549999E+02 -0.15371E+05
 0.19599998E+02 -0.36190E+05
 0.19650000E+02 -0.69632E+04
 0.19699999E+02 -0.19881E+05
 0.19749998E+02 -0.12597E+05
 0.19799999E+02 -0.11102E+05
 0.19849998E+02 -0.27863E+05
 0.19900000E+02 -0.28027E+05
 0.19949999E+02 -0.16242E+05
 0.19999998E+02 -0.28004E+05
 0.20049999E+02 -0.24243E+05
 0.20099998E+02 -0.75327E+04
 0.20150000E+02 -0.30702E+05
 0.20199999E+02 -0.17669E+05
 0.20249998E+02 -0.10621E+05
 0.20299999E+02 -0.28790E+05
 0.20349998E+02 -0.27829E+05
 0.20399998E+02 -0.27381E+05
 0.20449999E+02 -0.32023E+05
 0.20499998E+02 -0.26679E+05
 0.20549999E+02 -0.21034E+05
 0.20599998E+02 -0.41263E+05
 0.20649998E+02 -0.24495E+05
 0.20699999E+02 -0.23194E+05
 0.20749998E+02 -0.26525E+05
 0.20799999E+02 -0.17280E+05
 0.20849998E+02 -0.38601E+05
 0.20899998E+02 -0.37445E+05
 0.20949999E+02 -0.25496E+05
 0.20999998E+02 -0.64687E+04
 0.21049999E+02 -0.33178E+05
 0.21099998E+02 -0.26538E+05
 0.21149998E+02 -0.62003E+04
 0.21199999E+02 -0.31281E+05
 0.21249998E+02 -0.39734E+05
 0.21299999E+02 -0.19122E+05
 0.21349998E+02 -0.24045E+05
 0.21399998E+02 -0.29211E+05
 0.21449999E+02 -0.18377E+05
 0.21499998E+02 -0.37751E+05
 0.21549999E+02 -0.15814E+05
 0.21599998E+02 -0.24750E+05
 0.21649998E+02 -0.21388E+05
 0.21699999E+02 -0.23617E+05
 0.21749998E+02 -0.23553E+05
 0.21799999E+02 -0.17911E+05
 0.21849998E+02 -0.44958E+05
 0.21899998E+02 -0.20079E+05
 0.21949999E+02 -0.32397E+05
 0.21999998E+02 -0.39514E+05
 0.22049999E+02 -0.13112E+05
 0.22099998E+02 -0.30132E+05
 0.22149998E+02 -0.39240E+05
 0.22199999E+02 -0.93688E+04
 0.22249998E+02 -0.22730E+05
 0.22299999E+02 -0.27087E+05
 0.22349998E+02 -0.44119E+04
 0.22399998E+02 -0.22975E+05
 0.22449999E+02 -0.19326E+05
 0.22499998E+02 -0.15292E+05
 0.22549999E+02 -0.21772E+05
 0.22599998E+02 -0.16555E+05
 0.22649998E+02 -0.35114E+05
 0.22699999E+02 -0.22279E+05
 0.22749998E+02 -0.13771E+05
 0.22799999E+02 -0.40573E+05
 0.22849998E+02 -0.34463E+05
 0.22899998E+02 -0.29370E+05
 0.22949999E+02 -0.34755E+05
 0.22999998E+02 -0.26187E+05
 0.23049999E+02 -0.20845E+05
 0.23099998E+02 -0.32004E+05
 0.23149998E+02 -0.23672E+05
 0.23199999E+02 -0.14523E+05
 0.23249998E+02 -0.31450E+05
 0.23299999E+02 -0.26468E+05
 0.23349998E+02 -0.22154E+05
 0.23399998E+02 -0.28423E+05
 0.23449999E+02 -0.13827E+05
 0.23499998E+02 -0.24259E+05
 0.23549999E+02 -0.24227E+05
 0.23599998E+02 -0.12344E+05
 0.23649998E+02 -0.19027E+05
 0.23699999E+02 -0.22464E+05
 0.23749998E+02 -0.27412E+05
 0.23799999E+02 -0.20118E+05
 0.23849998E+02 -0.35588E+05
 0.23899998E+02 -0.24879E+05
 0.23949999E+02 -0.27617E+05
 0.23999998E+02 -0.42839E+05
 0.24049999E+02 -0.16083E+05
 0.24099998E+02 -0.26514E+05
 0.24149998E+02 -0.33078E+05
 0.24199999E+02 -0.26051E+05
 0.24249998E+02 -0.27850E+05
 0.24299999E+02 -0.29199E+05
 0.24349998E+02 -0.26184E+05
 0.24399998E+02 -0.20320E+05
 0.24449999E+02 -0.24989E+05
 0.24499998E+02 -0.24369E+05
 0.24549999E+02 -0.21707E+05
 0.24599998E+02 -0.30680E+05
 0.24649998E+02 -0.26991E+05
 0.24699999E+02 -0.11679E+05
 0.24749998E+02 -0.28136E+05
 0.24799999E+02 -0.24554E+05
 0.24849998E+02 -0.16155E+05
 0.24899998E+02 -0.26451E+05
 0.24949999E+02 -0.18962E+05
 0.24999998E+02 -0.25916E+05
 0.25049999E+02 -0.21450E+05
 0.25099998E+02 -0.31686E+05
 0.25149998E+02 -0.25954E+05
 0.25199999E+02 -0.16313E+05
 0.25249998E+02 -0.29248E+05
 0.25299999E+02 -0.22546E+05
 0.25349998E+02 -0.20804E+05
 0.25399998E+02 -0.21379E+05
 0.25449999E+02 -0.30388E+05
 0.25499998E+02 -0.20471E+05
 0.25549999E+02 -0.22044E+05
 0.25599998E+02 -0.27900E+05
 0.25649998E+02 -0.28840E+05
 0.25699999E+02 -0.27522E+05
 0.25749998E+02 -0.27503E+05
 0.25799999E+02 -0.28357E+05
 0.25849998E+02 -0.24362E+05
 0.25899998E+02 -0.30176E+05
 0.25949999E+02 -0.19713E+05
 0.25999998E+02 -0.27135E+05
 0.26049999E+02 -0.24415E+05
 0.26099998E+02 -0.17637E+05
 0.26149998E+02 -0.20573E+05
 0.26199999E+02 -0.22205E+05
 0.26249998E+02 -0.25580E+05
 0.26299999E+02 -0.27065E+05
 0.26349998E+02 -0.30107E+05
 0.26399998E+02 -0.27376E+05
 0.26449999E+02 -0.22954E+05
 0.26499998E+02 -0.25022E+05
 0.26549999E+02 -0.26339E+05
 0.26599998E+02 -0.20482E+05
 0.26649998E+02 -0.24998E+05
 0.26699999E+02 -0.27168E+05
 0.26749998E+02 -0.21560E+05
 0.26799999E+02 -0.25240E+05
 0.26849998E+02 -0.24175E+05
 0.26899998E+02 -0.21151E+05
 0.26949999E+02 -0.28796E+05
 0.26999998E+02 -0.24320E+05
 0.27049997E+02 -0.25329E+05
 0.27099998E+02 -0.25873E+05
 0.27149998E+02 -0.17579E+05
 0.27199999E+02 -0.20035E+05
 0.27249998E+02 -0.24325E+05
 0.27299997E+02 -0.22999E+05
 0.27349998E+02 -0.30187E+05
 0.27399998E+02 -0.27211E+05
 0.27449999E+02 -0.23003E+05
 0.27499998E+02 -0.25146E+05
 0.27549997E+02 -0.24439E+05
 0.27599998E+02 -0.27947E+05
 0.27649998E+02 -0.25958E+05
 0.27699999E+02 -0.31448E+05
 0.27749998E+02 -0.27737E+05
 0.27799997E+02 -0.23513E+05
 0.27849998E+02 -0.31476E+05
 0.27899998E+02 -0.29795E+05
 0.27949999E+02 -0.28302E+05
 0.27999998E+02 -0.27532E+05
 0.28049997E+02 -0.26477E+05
 0.28099998E+02 -0.22546E+05
 0.28149998E+02 -0.27749E+05
 0.28199999E+02 -0.30465E+05
 0.28249998E+02 -0.23747E+05
 0.28299997E+02 -0.29940E+05
 0.28349998E+02 -0.21845E+05
 0.28399998E+02 -0.20171E+05
 0.28449999E+02 -0.20110E+05
 0.28499998E+02 -0.22968E+05
 0.28549997E+02 -0.22026E+05
 0.28599998E+02 -0.18690E+05
 0.28649998E+02 -0.25566E+05
 0.28699999E+02 -0.19122E+05
 0.28749998E+02 -0.20639E+05
 0.28799997E+02 -0.21699E+05
 0.28849998E+02 -0.21878E+05
 0.28899998E+02 -0.16510E+05
 0.28949999E+02 -0.16968E+05
 0.28999998E+02 -0.25462E+05
 0.29049997E+02 -0.24532E+05
 0.29099998E+02 -0.21023E+05
 0.29149998E+02 -0.27097E+05
 0.29199999E+02 -0.24768E+05
 0.29249998E+02 -0.23224E+05
 0.29299997E+02 -0.31438E+05
 0.29349998E+02 -0.27992E+05
 0.29399998E+02 -0.30196E+05
 0.29449999E+02 -0.32169E+05
 0.29499998E+02 -0.27146E+05
 0.29549997E+02 -0.27526E+05
 0.29599998E+02 -0.26896E+05
 0.29649998E+02 -0.22490E+05
 0.29699999E+02 -0.25591E+05
 0.29749998E+02 -0.28469E+05
 0.29799997E+02 -0.25400E+05
 0.29849998E+02 -0.20493E+05
 0.29899998E+02 -0.25592E+05
 0.29949999E+02 -0.24493E+05
 0.29999998E+02 -0.23174E+05
 0.30049999E+02 -0.23997E+05
 0.30099998E+02 -0.23981E+05
 0.30149998E+02 -0.24476E+05
 0.30199997E+02 -0.25382E+05
 0.30249996E+02 -0.26292E+05
 0.30299999E+02 -0.20082E+05
 0.30349998E+02 -0.27567E+05
 0.30399998E+02 -0.22566E+05
 0.30449997E+02 -0.21574E+05
 0.30499996E+02 -0.27129E+05
 0.30549999E+02 -0.26315E+05
 0.30599998E+02 -0.24738E+05
 0.30649998E+02 -0.23760E+05
 0.30699997E+02 -0.28856E+05
 0.30749996E+02 -0.31276E+05
 0.30799999E+02 -0.25408E+05
 0.30849998E+02 -0.24287E+05
 0.30899998E+02 -0.24668E+05
 0.30949997E+02 -0.24693E+05
 0.30999996E+02 -0.26798E+05
 0.31049999E+02 -0.24135E+05
 0.31099998E+02 -0.28659E+05
 0.31149998E+02 -0.23633E+05
 0.31199997E+02 -0.25106E+05
 0.31249996E+02 -0.25751E+05
 0.31299999E+02 -0.24374E+05
 0.31349998E+02 -0.25680E+05
 0.31399998E+02 -0.22555E+05
 0.31449997E+02 -0.23635E+05
 0.31499996E+02 -0.23728E+05
 0.31549999E+02 -0.23947E+05
 0.31599998E+02 -0.20142E+05
 0.31649998E+02 -0.22664E+05
 0.31699997E+02 -0.24107E+05
 0.31749996E+02 -0.23713E+05
 0.31799999E+02 -0.24928E+05
 0.31849998E+02 -0.20407E+05
 0.31899998E+02 -0.26333E+05
 0.31949997E+02 -0.26182E+05
 0.31999996E+02 -0.22747E+05
 0.32049999E+02 -0.27306E+05
 0.32099998E+02 -0.24594E+05
 0.32149998E+02 -0.27052E+05
 0.32199997E+02 -0.25660E+05
 0.32249996E+02 -0.26572E+05
 0.32299999E+02 -0.25068E+05
 0.32349998E+02 -0.22379E+05
 0.32399998E+02 -0.24661E+05
 0.32449997E+02 -0.21862E+05
 0.32499996E+02 -0.24920E+05
 0.32549999E+02 -0.25022E+05
 0.32599998E+02 -0.25765E+05
 0.32649998E+02 -0.24393E+05
 0.32699997E+02 -0.27639E+05
 0.32749996E+02 -0.24165E+05
 0.32799999E+02 -0.25444E+05
 0.32849998E+02 -0.29606E+05
 0.32899998E+02 -0.25924E+05
 0.32949997E+02 -0.29035E+05
 0.32999996E+02 -0.26143E+05
 0.33049999E+02 -0.26447E+05
 0.33099998E+02 -0.28606E+05
 0.33149998E+02 -0.22110E+05
 0.33199997E+02 -0.20773E+05
 0.33249996E+02 -0.28659E+05
 0.33299999E+02 -0.23467E+05
 0.33349998E+02 -0.21065E+05
 0.33399998E+02 -0.23633E+05
 0.33449997E+02 -0.22298E+05
 0.33499996E+02 -0.19242E+05
 0.33549999E+02 -0.24557E+05
 0.33599998E+02 -0.23065E+05
 0.33649998E+02 -0.20349E+05
 0.33699997E+02 -0.24542E+05
 0.33749996E+02 -0.21793E+05
 0.33799999E+02 -0.25243E+05
 0.33849998E+02 -0.26149E+05
 0.33899998E+02 -0.25121E+05
 0.33949997E+02 -0.24509E+05
 0.33999996E+02 -0.28702E+05
 0.34049999E+02 -0.29311E+05
 0.34099998E+02 -0.24416E+05
 0.34149998E+02 -0.24891E+05
 0.34199997E+02 -0.27040E+05
 0.34249996E+02 -0.22446E+05
 0.34299999E+02 -0.26068E+05
 0.34349998E+02 -0.29203E+05
 0.34399998E+02 -0.19183E+05
 0.34449997E+02 -0.25372E+05
 0.34499996E+02 -0.28511E+05
 0.34549999E+02 -0.19591E+05
 0.34599998E+02 -0.26565E+05
 0.34649998E+02 -0.28564E+05
 0.34699997E+02 -0.21834E+05
 0.34749996E+02 -0.24035E+05
 0.34799999E+02 -0.24571E+05
 0.34849998E+02 -0.22290E+05
 0.34899998E+02 -0.25808E+05
 0.34949997E+02 -0.22646E+05
 0.34999996E+02 -0.23081E+05
 0.35049999E+02 -0.27519E+05
 0.35099998E+02 -0.22618E+05
 0.35149998E+02 -0.24791E+05
 0.35199997E+02 -0.27615E+05
 0.35249996E+02 -0.29273E+05
 0.35299999E+02 -0.27452E+05
 0.35349998E+02 -0.25883E+05
 0.35399998E+02 -0.27282E+05
 0.35449997E+02 -0.27441E+05
 0.35499996E+02 -0.26233E+05
 0.35549999E+02 -0.23752E+05
 0.35599998E+02 -0.25462E+05
 0.35649998E+02 -0.26419E+05
 0.35699997E+02 -0.25502E+05
 0.35749996E+02 -0.25042E+05
 0.35799999E+02 -0.24153E+05
 0.35849998E+02 -0.24816E+05
 0.35899998E+02 -0.24382E+05
 0.35949997E+02 -0.24773E+05
 0.35999996E+02 -0.23846E+05
 0.36049999E+02 -0.22563E+05
 0.36099998E+02 -0.23900E+05
 0.36149998E+02 -0.25186E+05
 0.36199997E+02 -0.27091E+05
 0.36249996E+02 -0.23895E+05
 0.36299999E+02 -0.23285E+05
 0.36349998E+02 -0.23639E+05
 0.36399998E+02 -0.20481E+05
 0.36449997E+02 -0.20540E+05
 0.36499996E+02 -0.23882E+05
 0.36549999E+02 -0.22056E+05
 0.36599998E+02 -0.22878E+05
 0.36649998E+02 -0.25314E+05
 0.36699997E+02 -0.24486E+05
 0.36749996E+02 -0.22388E+05
 0.36799999E+02 -0.22803E+05
 0.36849998E+02 -0.24419E+05
 0.36899998E+02 -0.24509E+05
 0.36949997E+02 -0.27712E+05
 0.36999996E+02 -0.25774E+05
 0.37049999E+02 -0.25571E+05
 0.37099998E+02 -0.24664E+05
 0.37149998E+02 -0.23424E+05
 0.37199997E+02 -0.24404E+05
 0.37249996E+02 -0.25661E+05
 0.37299999E+02 -0.28022E+05
 0.37349998E+02 -0.25308E+05
 0.37399998E+02 -0.27003E+05
 0.37449997E+02 -0.28057E+05
 0.37499996E+02 -0.24618E+05
 0.37549999E+02 -0.28865E+05
 0.37599998E+02 -0.26478E+05
 0.37649998E+02 -0.24410E+05
 0.37699997E+02 -0.27544E+05
 0.37749996E+02 -0.27035E+05
 0.37799999E+02 -0.25283E+05
 0.37849998E+02 -0.23333E+05
 0.37899998E+02 -0.26358E+05
 0.37949997E+02 -0.25541E+05
 0.37999996E+02 -0.23495E+05
 0.38049999E+02 -0.25735E+05
 0.38099998E+02 -0.24432E+05
 0.38149998E+02 -0.22976E+05
 0.38199997E+02 -0.25233E+05
 0.38249996E+02 -0.23407E+05
 0.38299999E+02 -0.24370E+05
 0.38349998E+02 -0.23714E+05
 0.38399998E+02 -0.21307E+05
 0.38449997E+02 -0.22025E+05
 0.38499996E+02 -0.24750E+05
 0.38549999E+02 -0.23914E+05
 0.38599998E+02 -0.22908E+05
 0.38649998E+02 -0.25569E+05
 0.38699997E+02 -0.19752E+05
 0.38749996E+02 -0.23859E+05
 0.38799999E+02 -0.26397E+05
 0.38849998E+02 -0.20972E+05
 0.38899998E+02 -0.25271E+05
 0.38949997E+02 -0.25139E+05
 0.38999996E+02 -0.24365E+05
 0.39049999E+02 -0.27621E+05
 0.39099998E+02 -0.27010E+05
 0.39149998E+02 -0.27705E+05
 0.39199997E+02 -0.26990E+05
 0.39249996E+02 -0.25595E+05
 0.39299999E+02 -0.24776E+05
 0.39349998E+02 -0.26020E+05
 0.39399998E+02 -0.26776E+05
 0.39449997E+02 -0.24396E+05
 0.39499996E+02 -0.29138E+05
 0.39549999E+02 -0.27523E+05
 0.39599998E+02 -0.25178E+05
 0.39649998E+02 -0.26295E+05
 0.39699997E+02 -0.23435E+05
 0.39749996E+02 -0.25569E+05
 0.39799999E+02 -0.24586E+05
 0.39849998E+02 -0.24076E+05
 0.39899998E+02 -0.25549E+05
 0.39949997E+02 -0.24106E+05
 0.39999996E+02 -0.25713E+05
 0.40049999E+02 -0.25832E+05
 0.40099998E+02 -0.23092E+05
 0.40149998E+02 -0.24230E+05
 0.40199997E+02 -0.22704E+05
 0.40249996E+02 -0.22629E+05
 0.40299999E+02 -0.24295E+05
 0.40349998E+02 -0.23499E+05
 0.40399998E+02 -0.23828E+05
 0.40449997E+02 -0.24950E+05
 0.40499996E+02 -0.22543E+05
 0.40549999E+02 -0.22631E+05
 0.40599998E+02 -0.26008E+05
 0.40649998E+02 -0.23568E+05
 0.40699997E+02 -0.23935E+05
 0.40749996E+02 -0.24632E+05
 0.40799999E+02 -0.25217E+05
 0.40849998E+02 -0.24017E+05
 0.40899998E+02 -0.24598E+05
 0.40949997E+02 -0.25420E+05
 0.40999996E+02 -0.23840E+05
 0.41049999E+02 -0.25239E+05
 0.41099998E+02 -0.25115E+05
 0.41149998E+02 -0.24073E+05
 0.41199997E+02 -0.26247E+05
 0.41249996E+02 -0.27264E+05
 0.41299999E+02 -0.25073E+05
 0.41349998E+02 -0.26602E+05
 0.41399998E+02 -0.25228E+05
 0.41449997E+02 -0.23930E+05
 0.41499996E+02 -0.25629E+05
 0.41549999E+02 -0.25359E+05
 0.41599998E+02 -0.24386E+05
 0.41649998E+02 -0.24353E+05
 0.41699997E+02 -0.24605E+05
 0.41749996E+02 -0.25847E+05
 0.41799999E+02 -0.26340E+05
 0.41849998E+02 -0.25392E+05
 0.41899998E+02 -0.24654E+05
 0.41949997E+02 -0.23609E+05
 0.41999996E+02 -0.23471E+05
 0.42049999E+02 -0.24838E+05
 0.42099998E+02 -0.25557E+05
 0.42149998E+02 -0.23380E+05
 0.42199997E+02 -0.24942E+05
 0.42249996E+02 -0.25412E+05
 0.42299999E+02 -0.24511E+05
 0.42349998E+02 -0.24367E+05
 0.42399998E+02 -0.22775E+05
 0.42449997E+02 -0.22924E+05
 0.42499996E+02 -0.23799E+05
 0.42549999E+02 -0.24736E+05
 0.42599998E+02 -0.25185E+05
 0.42649998E+02 -0.25985E+05
 0.42699997E+02 -0.24818E+05
 0.42749996E+02 -0.25576E+05
 0.42799995E+02 -0.25936E+05
 0.42849998E+02 -0.24365E+05
 0.42899998E+02 -0.25405E+05
 0.42949997E+02 -0.26865E+05
 0.42999996E+02 -0.24197E+05
 0.43049995E+02 -0.24687E+05
 0.43099998E+02 -0.24353E+05
 0.43149998E+02 -0.21963E+05
 0.43199997E+02 -0.25657E+05
 0.43249996E+02 -0.24033E+05
 0.43299995E+02 -0.23951E+05
 0.43349998E+02 -0.26104E+05
 0.43399998E+02 -0.25197E+05
 0.43449997E+02 -0.25098E+05
 0.43499996E+02 -0.26740E+05
 0.43549995E+02 -0.25604E+05
 0.43599998E+02 -0.24970E+05
 0.43649998E+02 -0.25164E+05
 0.43699997E+02 -0.25070E+05
 0.43749996E+02 -0.26265E+05
 0.43799995E+02 -0.25244E+05
 0.43849998E+02 -0.24617E+05
 0.43899998E+02 -0.24435E+05
 0.43949997E+02 -0.23418E+05
 0.43999996E+02 -0.23474E+05
 0.44049995E+02 -0.24146E+05
 0.44099998E+02 -0.24615E+05
 0.44149998E+02 -0.25415E+05
 0.44199997E+02 -0.24803E+05
 0.44249996E+02 -0.25592E+05
 0.44299995E+02 -0.24028E+05
 0.44349998E+02 -0.24393E+05
 0.44399998E+02 -0.25328E+05
 0.44449997E+02 -0.23927E+05
 0.44499996E+02 -0.24578E+05
 0.44549995E+02 -0.24681E+05
 0.44599998E+02 -0.24149E+05
 0.44649998E+02 -0.24536E+05
 0.44699997E+02 -0.25507E+05
 0.44749996E+02 -0.24568E+05
 0.44799995E+02 -0.25375E+05
 0.44849998E+02 -0.26655E+05
 0.44899998E+02 -0.25053E+05
 0.44949997E+02 -0.26270E+05
 0.44999996E+02 -0.25397E+05
 0.45049995E+02 -0.24648E+05
 0.45099998E+02 -0.25641E+05
 0.45149998E+02 -0.24236E+05
 0.45199997E+02 -0.25238E+05
 0.45249996E+02 -0.24211E+05
 0.45299995E+02 -0.25001E+05
 0.45349998E+02 -0.24739E+05
 0.45399998E+02 -0.23583E+05
 0.45449997E+02 -0.26476E+05
 0.45499996E+02 -0.25557E+05
 0.45549995E+02 -0.24783E+05
 0.45599998E+02 -0.26818E+05
 0.45649998E+02 -0.25346E+05
 0.45699997E+02 -0.24474E+05
 0.45749996E+02 -0.26249E+05
 0.45799995E+02 -0.24897E+05
 0.45849998E+02 -0.23829E+05
 0.45899998E+02 -0.23949E+05
 0.45949997E+02 -0.23946E+05
 0.45999996E+02 -0.23880E+05
 0.46049995E+02 -0.23882E+05
 0.46099998E+02 -0.23576E+05
 0.46149998E+02 -0.22547E+05
 0.46199997E+02 -0.24579E+05
 0.46249996E+02 -0.24361E+05
 0.46299995E+02 -0.22386E+05
 0.46349998E+02 -0.23637E+05
 0.46399998E+02 -0.24715E+05
 0.46449997E+02 -0.24404E+05
 0.46499996E+02 -0.25033E+05
 0.46549995E+02 -0.24806E+05
 0.46599998E+02 -0.25323E+05
 0.46649998E+02 -0.25056E+05
 0.46699997E+02 -0.24294E+05
 0.46749996E+02 -0.25008E+05
 0.46799995E+02 -0.25158E+05
 0.46849998E+02 -0.26613E+05
 0.46899998E+02 -0.25845E+05
 0.46949997E+02 -0.26684E+05
 0.46999996E+02 -0.25851E+05
 0.47049995E+02 -0.24290E+05
 0.47099998E+02 -0.25196E+05
 0.47149998E+02 -0.25489E+05
 0.47199997E+02 -0.24929E+05
 0.47249996E+02 -0.24665E+05
 0.47299995E+02 -0.24766E+05
 0.47349998E+02 -0.24741E+05
 0.47399998E+02 -0.24822E+05
 0.47449997E+02 -0.24727E+05
 0.47499996E+02 -0.25932E+05
 0.47549995E+02 -0.24641E+05
 0.47599998E+02 -0.24663E+05
 0.47649998E+02 -0.25903E+05
 0.47699997E+02 -0.25132E+05
 0.47749996E+02 -0.25231E+05
 0.47799995E+02 -0.25882E+05
 0.47849998E+02 -0.25395E+05
 0.47899998E+02 -0.25226E+05
 0.47949997E+02 -0.25204E+05
 0.47999996E+02 -0.25091E+05
 0.48049995E+02 -0.25065E+05
 0.48099998E+02 -0.24062E+05
 0.48149998E+02 -0.25300E+05
 0.48199997E+02 -0.24533E+05
 0.48249996E+02 -0.23531E+05
 0.48299995E+02 -0.24057E+05
 0.48349998E+02 -0.22594E+05
 0.48399998E+02 -0.23103E+05
 0.48449997E+02 -0.23639E+05
 0.48499996E+02 -0.23982E+05
 0.48549995E+02 -0.25323E+05
 0.48599998E+02 -0.24108E+05
 0.48649998E+02 -0.24219E+05
 0.48699997E+02 -0.25686E+05
 0.48749996E+02 -0.24102E+05
 0.48799995E+02 -0.25496E+05
 0.48849998E+02 -0.25880E+05
 0.48899998E+02 -0.24664E+05
 0.48949997E+02 -0.26583E+05
 0.48999996E+02 -0.25850E+05
 0.49049995E+02 -0.25257E+05
 0.49099998E+02 -0.25500E+05
 0.49149998E+02 -0.24947E+05
 0.49199997E+02 -0.24470E+05
 0.49249996E+02 -0.24657E+05
 0.49299995E+02 -0.25120E+05
 0.49349998E+02 -0.24972E+05
 0.49399998E+02 -0.24828E+05
 0.49449997E+02 -0.23320E+05
 0.49499996E+02 -0.23328E+05
 0.49549995E+02 -0.24389E+05
 0.49599998E+02 -0.24339E+05
 0.49649998E+02 -0.24959E+05
 0.49699997E+02 -0.25712E+05
 0.49749996E+02 -0.25043E+05
 0.49799995E+02 -0.25149E+05
 0.49849998E+02 -0.25114E+05
 0.49899998E+02 -0.23895E+05
 0.49949997E+02 -0.24346E+05
 0.49999996E+02 -0.23786E+05
 0.50049995E+02 -0.23783E+05
 0.50099998E+02 -0.24932E+05
 0.50149998E+02 -0.25262E+05
 0.50199997E+02 -0.25076E+05
 0.50249996E+02 -0.24127E+05
 0.50299995E+02 -0.25503E+05
 0.50349998E+02 -0.25334E+05
 0.50399998E+02 -0.25333E+05
 0.50449997E+02 -0.25863E+05
 0.50499996E+02 -0.25056E+05
 0.50549995E+02 -0.25414E+05
 0.50599998E+02 -0.24734E+05
 0.50649998E+02 -0.24561E+05
 0.50699997E+02 -0.24476E+05
 0.50749996E+02 -0.24572E+05
 0.50799995E+02 -0.24567E+05
 0.50849998E+02 -0.24636E+05
 0.50899998E+02 -0.25508E+05
 0.50949997E+02 -0.25600E+05
 0.50999996E+02 -0.25131E+05
 0.51049995E+02 -0.24871E+05
 0.51099998E+02 -0.24629E+05
 0.51149998E+02 -0.23852E+05
 0.51199997E+02 -0.25331E+05
 0.51249996E+02 -0.25298E+05
 0.51299995E+02 -0.24443E+05
 0.51349998E+02 -0.26171E+05
 0.51399998E+02 -0.24716E+05
 0.51449997E+02 -0.24290E+05
 0.51499996E+02 -0.25492E+05
 0.51549995E+02 -0.25168E+05
 0.51599998E+02 -0.24801E+05
 0.51649998E+02 -0.24966E+05
 0.51699997E+02 -0.25315E+05
 0.51749996E+02 -0.24393E+05
 0.51799995E+02 -0.24774E+05
 0.51849998E+02 -0.25142E+05
 0.51899998E+02 -0.24582E+05
 0.51949997E+02 -0.25037E+05
 0.51999996E+02 -0.24963E+05
 0.52049995E+02 -0.24495E+05
 0.52099998E+02 -0.25200E+05
 0.52149998E+02 -0.25055E+05
 0.52199997E+02 -0.25317E+05
 0.52249996E+02 -0.25028E+05
 0.52299995E+02 -0.24659E+05
 0.52349998E+02 -0.25863E+05
 0.52399998E+02 -0.25550E+05
 0.52449997E+02 -0.25783E+05
 0.52499996E+02 -0.25979E+05
 0.52549995E+02 -0.24751E+05
 0.52599998E+02 -0.24727E+05
 0.52649998E+02 -0.24539E+05
 0.52699997E+02 -0.23983E+05
 0.52749996E+02 -0.24460E+05
 0.52799995E+02 -0.24714E+05
 0.52849998E+02 -0.24545E+05
 0.52899998E+02 -0.23563E+05
 0.52949997E+02 -0.23209E+05
 0.52999996E+02 -0.23696E+05
 0.53049995E+02 -0.23679E+05
 0.53099998E+02 -0.23407E+05
 0.53149998E+02 -0.24970E+05
 0.53199997E+02 -0.24834E+05
 0.53249996E+02 -0.24148E+05
 0.53299995E+02 -0.25154E+05
 0.53349998E+02 -0.24171E+05
 0.53399998E+02 -0.24219E+05
 0.53449997E+02 -0.24872E+05
 0.53499996E+02 -0.24653E+05
 0.53549995E+02 -0.24301E+05
 0.53599998E+02 -0.24489E+05
 0.53649998E+02 -0.24757E+05
 0.53699997E+02 -0.24983E+05
 0.53749996E+02 -0.25960E+05
 0.53799995E+02 -0.25332E+05
 0.53849998E+02 -0.24870E+05
 0.53899998E+02 -0.26085E+05
 0.53949997E+02 -0.25547E+05
 0.53999996E+02 -0.25583E+05
 0.54049995E+02 -0.25829E+05
 0.54099998E+02 -0.25263E+05
 0.54149998E+02 -0.25764E+05
 0.54199997E+02 -0.25278E+05
 0.54249996E+02 -0.24076E+05
 0.54299995E+02 -0.24681E+05
 0.54349998E+02 -0.24806E+05
 0.54399998E+02 -0.23838E+05
 0.54449997E+02 -0.24321E+05
 0.54499996E+02 -0.24421E+05
 0.54549995E+02 -0.23970E+05
 0.54599998E+02 -0.23375E+05
 0.54649998E+02 -0.23867E+05
 0.54699997E+02 -0.23932E+05
 0.54749996E+02 -0.23345E+05
 0.54799995E+02 -0.24328E+05
 0.54849998E+02 -0.24534E+05
 0.54899998E+02 -0.24272E+05
 0.54949997E+02 -0.24418E+05
 0.54999996E+02 -0.24312E+05
 0.55049995E+02 -0.24449E+05
 0.55099998E+02 -0.25300E+05
 0.55149998E+02 -0.25318E+05
 0.55199997E+02 -0.24306E+05
 0.55249996E+02 -0.25639E+05
 0.55299995E+02 -0.25739E+05
 0.55349998E+02 -0.24844E+05
 0.55399998E+02 -0.25881E+05
 0.55449997E+02 -0.25368E+05
 0.55499996E+02 -0.25780E+05
 0.55549995E+02 -0.26042E+05
 0.55599998E+02 -0.25761E+05
 0.55649998E+02 -0.26214E+05
 0.55699997E+02 -0.26037E+05
 0.55749996E+02 -0.25845E+05
 0.55799995E+02 -0.25483E+05
 0.55849995E+02 -0.25834E+05
 0.55899998E+02 -0.25088E+05
 0.55949997E+02 -0.25268E+05
 0.55999996E+02 -0.26152E+05
 0.56049995E+02 -0.25315E+05
 0.56099995E+02 -0.25546E+05
 0.56149998E+02 -0.25160E+05
 0.56199997E+02 -0.23994E+05
 0.56249996E+02 -0.24078E+05
 0.56299995E+02 -0.23715E+05
 0.56349995E+02 -0.24044E+05
 0.56399998E+02 -0.24186E+05
 0.56449997E+02 -0.23212E+05
 0.56499996E+02 -0.23855E+05
 0.56549995E+02 -0.23958E+05
 0.56599995E+02 -0.23554E+05
 0.56649998E+02 -0.24534E+05
 0.56699997E+02 -0.24126E+05
 0.56749996E+02 -0.24185E+05
 0.56799995E+02 -0.25062E+05
 0.56849995E+02 -0.24705E+05
 0.56899998E+02 -0.24801E+05
 0.56949997E+02 -0.24756E+05
 0.56999996E+02 -0.24873E+05
 0.57049995E+02 -0.24718E+05
 0.57099995E+02 -0.25349E+05
 0.57149998E+02 -0.25210E+05
 0.57199997E+02 -0.25315E+05
 0.57249996E+02 -0.26142E+05
 0.57299995E+02 -0.25382E+05
 0.57349995E+02 -0.25226E+05
 0.57399998E+02 -0.25450E+05
 0.57449997E+02 -0.25362E+05
 0.57499996E+02 -0.25580E+05
 0.57549995E+02 -0.25651E+05
 0.57599995E+02 -0.25450E+05
 0.57649998E+02 -0.25245E+05
 0.57699997E+02 -0.25022E+05
 0.57749996E+02 -0.25561E+05
 0.57799995E+02 -0.25114E+05
 0.57849995E+02 -0.25194E+05
 0.57899998E+02 -0.25025E+05
 0.57949997E+02 -0.24453E+05
 0.57999996E+02 -0.24873E+05
 0.58049995E+02 -0.24362E+05
 0.58099995E+02 -0.23945E+05
 0.58149998E+02 -0.23777E+05
 0.58199997E+02 -0.23735E+05
 0.58249996E+02 -0.24140E+05
 0.58299995E+02 -0.24367E+05
 0.58349995E+02 -0.24275E+05
 0.58399998E+02 -0.24291E+05
 0.58449997E+02 -0.24508E+05
 0.58499996E+02 -0.24550E+05
 0.58549995E+02 -0.24614E+05
 0.58599995E+02 -0.24733E+05
 0.58649998E+02 -0.24082E+05
 0.58699997E+02 -0.24114E+05
 0.58749996E+02 -0.24470E+05
 0.58799995E+02 -0.24237E+05
 0.58849995E+02 -0.24494E+05
 0.58899998E+02 -0.24380E+05
 0.58949997E+02 -0.24199E+05
 0.58999996E+02 -0.24289E+05
 0.59049995E+02 -0.24465E+05
 0.59099995E+02 -0.24451E+05
 0.59149998E+02 -0.24909E+05
 0.59199997E+02 -0.25368E+05
 0.59249996E+02 -0.25192E+05
 0.59299995E+02 -0.25435E+05
 0.59349995E+02 -0.25643E+05
 0.59399998E+02 -0.25867E+05
 0.59449997E+02 -0.25343E+05
 0.59499996E+02 -0.25255E+05
 0.59549995E+02 -0.25070E+05
 0.59599995E+02 -0.24944E+05
 0.59649998E+02 -0.25477E+05
 0.59699997E+02 -0.24801E+05
 0.59749996E+02 -0.24489E+05
 0.59799995E+02 -0.24682E+05
 0.59849995E+02 -0.24534E+05
 0.59899998E+02 -0.24300E+05
 0.59949997E+02 -0.24532E+05
 0.59999996E+02 -0.24496E+05
 0.60049995E+02 -0.24004E+05
 0.60099995E+02 -0.24526E+05
 0.60149998E+02 -0.24939E+05
 0.60199997E+02 -0.24838E+05
 0.60249996E+02 -0.25086E+05
 0.60299995E+02 -0.25259E+05
 0.60349995E+02 -0.24994E+05
 0.60399998E+02 -0.24800E+05
 0.60449997E+02 -0.24837E+05
 0.60499996E+02 -0.24949E+05
 0.60549995E+02 -0.25282E+05
 0.60599995E+02 -0.25391E+05
 0.60649998E+02 -0.25532E+05
 0.60699997E+02 -0.25662E+05
 0.60749996E+02 -0.25393E+05
 0.60799995E+02 -0.25562E+05
 0.60849995E+02 -0.25351E+05
 0.60899998E+02 -0.25020E+05
 0.60949997E+02 -0.25232E+05
 0.60999996E+02 -0.24793E+05
 0.61049995E+02 -0.24679E+05
 0.61099995E+02 -0.24952E+05
 0.61149998E+02 -0.25288E+05
 0.61199997E+02 -0.24825E+05
 0.61249996E+02 -0.24696E+05
 0.61299995E+02 -0.24670E+05
 0.61349995E+02 -0.24347E+05
 0.61399998E+02 -0.25048E+05
 0.61449997E+02 -0.24780E+05
 0.61499996E+02 -0.24567E+05
 0.61549995E+02 -0.24737E+05
 0.61599995E+02 -0.24876E+05
 0.61649998E+02 -0.24828E+05
 0.61699997E+02 -0.24795E+05
 0.61749996E+02 -0.24694E+05
 0.61799995E+02 -0.24651E+05
 0.61849995E+02 -0.25294E+05
 0.61899998E+02 -0.25270E+05
 0.61949997E+02 -0.24596E+05
 0.61999996E+02 -0.24379E+05
 0.62049995E+02 -0.24794E+05
 0.62099998E+02 -0.24712E+05
 0.62149994E+02 -0.25147E+05
 0.62199997E+02 -0.25280E+05
 0.62249992E+02 -0.24899E+05
 0.62299995E+02 -0.24591E+05
 0.62349998E+02 -0.24249E+05
 0.62399994E+02 -0.24486E+05
 0.62449997E+02 -0.24068E+05
 0.62499992E+02 -0.23631E+05
 0.62549995E+02 -0.24582E+05
 0.62599998E+02 -0.24678E+05
 0.62649994E+02 -0.24251E+05
 0.62699997E+02 -0.24608E+05
 0.62749992E+02 -0.24059E+05
 0.62799995E+02 -0.24578E+05
 0.62849998E+02 -0.24689E+05
 0.62899994E+02 -0.24565E+05
 0.62949997E+02 -0.24851E+05
 0.62999992E+02 -0.24614E+05
 0.63049995E+02 -0.24677E+05
 0.63099998E+02 -0.24729E+05
 0.63149994E+02 -0.24563E+05
 0.63199997E+02 -0.24589E+05
 0.63249992E+02 -0.25050E+05
 0.63299995E+02 -0.24316E+05
 0.63349998E+02 -0.24833E+05
 0.63399994E+02 -0.24893E+05
 0.63449997E+02 -0.24174E+05
 0.63499992E+02 -0.25171E+05
 0.63549995E+02 -0.24940E+05
 0.63599998E+02 -0.24542E+05
 0.63649994E+02 -0.25216E+05
 0.63699997E+02 -0.25340E+05
 0.63749992E+02 -0.25360E+05
 0.63799995E+02 -0.25115E+05
 0.63849998E+02 -0.25160E+05
 0.63899994E+02 -0.25409E+05
 0.63949997E+02 -0.25207E+05
 0.63999992E+02 -0.25294E+05
 0.64049995E+02 -0.25170E+05
 0.64099998E+02 -0.24849E+05
 0.64149994E+02 -0.24979E+05
 0.64199997E+02 -0.24832E+05
 0.64249992E+02 -0.24863E+05
 0.64299995E+02 -0.25490E+05
 0.64349998E+02 -0.25297E+05
 0.64399994E+02 -0.25360E+05
 0.64449997E+02 -0.25385E+05
 0.64499992E+02 -0.24818E+05
 0.64549995E+02 -0.24879E+05
 0.64599998E+02 -0.24943E+05
 0.64649994E+02 -0.24692E+05
 0.64699997E+02 -0.24987E+05
 0.64749992E+02 -0.24944E+05
 0.64799995E+02 -0.24927E+05
 0.64849998E+02 -0.24686E+05
 0.64899994E+02 -0.23915E+05
 0.64949997E+02 -0.24860E+05
 0.64999992E+02 -0.24787E+05
 0.65049995E+02 -0.24086E+05
 0.65099998E+02 -0.24914E+05
 0.65149994E+02 -0.24436E+05
 0.65199997E+02 -0.24022E+05
 0.65249992E+02 -0.24621E+05
 0.65299995E+02 -0.24392E+05
 0.65349998E+02 -0.24536E+05
 0.65399994E+02 -0.24609E+05
 0.65449997E+02 -0.24356E+05
 0.65499992E+02 -0.24663E+05
 0.65549995E+02 -0.24733E+05
 0.65599998E+02 -0.25019E+05
 0.65649994E+02 -0.25084E+05
 0.65699997E+02 -0.25394E+05
 0.65749992E+02 -0.25395E+05
 0.65799995E+02 -0.25085E+05
 0.65849998E+02 -0.25173E+05
 0.65899994E+02 -0.24872E+05
 0.65949997E+02 -0.25149E+05
 0.65999992E+02 -0.25295E+05
 0.66049995E+02 -0.25049E+05
 0.66099998E+02 -0.25042E+05
 0.66149994E+02 -0.24863E+05
 0.66199997E+02 -0.24801E+05
 0.66249992E+02 -0.24836E+05
 0.66299995E+02 -0.24451E+05
 0.66349998E+02 -0.24514E+05
 0.66399994E+02 -0.24768E+05
 0.66449997E+02 -0.24225E+05
 0.66499992E+02 -0.24161E+05
 0.66549995E+02 -0.24279E+05
 0.66599998E+02 -0.24471E+05
 0.66649994E+02 -0.24746E+05
 0.66699997E+02 -0.24441E+05
 0.66749992E+02 -0.24702E+05
 0.66799995E+02 -0.25076E+05
 0.66849998E+02 -0.25038E+05
 0.66899994E+02 -0.25202E+05
 0.66949997E+02 -0.25662E+05
 0.66999992E+02 -0.25316E+05
 0.67049995E+02 -0.24749E+05
 0.67099998E+02 -0.25080E+05
 0.67149994E+02 -0.24882E+05
 0.67199997E+02 -0.24695E+05
 0.67249992E+02 -0.24825E+05
 0.67299995E+02 -0.24591E+05
 0.67349998E+02 -0.24657E+05
 0.67399994E+02 -0.25034E+05
 0.67449997E+02 -0.24903E+05
 0.67499992E+02 -0.24661E+05
 0.67549995E+02 -0.25121E+05
 0.67599998E+02 -0.25094E+05
 0.67649994E+02 -0.25134E+05
 0.67699997E+02 -0.25108E+05
 0.67749992E+02 -0.24608E+05
 0.67799995E+02 -0.25071E+05
 0.67849998E+02 -0.25334E+05
 0.67899994E+02 -0.25100E+05
 0.67949997E+02 -0.25339E+05
 0.67999992E+02 -0.25382E+05
 0.68049995E+02 -0.24991E+05
 0.68099998E+02 -0.24918E+05
 0.68149994E+02 -0.24781E+05
 0.68199997E+02 -0.24801E+05
 0.68249992E+02 -0.24657E+05
 0.68299995E+02 -0.24424E+05
 0.68349998E+02 -0.24606E+05
 0.68399994E+02 -0.24772E+05
 0.68449997E+02 -0.24635E+05
 0.68499992E+02 -0.24846E+05
 0.68549995E+02 -0.24921E+05
 0.68599998E+02 -0.24644E+05
 0.68649994E+02 -0.24671E+05
 0.68699997E+02 -0.24425E+05
 0.68749992E+02 -0.24850E+05
 0.68799995E+02 -0.24342E+05
 0.68849998E+02 -0.24073E+05
 0.68899994E+02 -0.24766E+05
 0.68949997E+02 -0.24764E+05
 0.68999992E+02 -0.24577E+05
 0.69049995E+02 -0.24729E+05
 0.69099998E+02 -0.24656E+05
 0.69149994E+02 -0.24501E+05
 0.69199997E+02 -0.24991E+05
 0.69249992E+02 -0.24765E+05
 0.69299995E+02 -0.24979E+05
 0.69349998E+02 -0.25142E+05
 0.69399994E+02 -0.24908E+05
 0.69449997E+02 -0.24907E+05
 0.69499992E+02 -0.25022E+05
 0.69549995E+02 -0.24512E+05
 0.69599998E+02 -0.24384E+05
 0.69649994E+02 -0.24665E+05
 0.69699997E+02 -0.24222E+05
 0.69749992E+02 -0.24725E+05
 0.69799995E+02 -0.24754E+05
 0.69849998E+02 -0.24549E+05
 0.69899994E+02 -0.24869E+05
 0.69949997E+02 -0.24858E+05
 0.69999992E+02 -0.24912E+05
 0.70049995E+02 -0.25077E+05
 0.70099998E+02 -0.24999E+05
 0.70149994E+02 -0.25244E+05
 0.70199997E+02 -0.25160E+05
 0.70249992E+02 -0.24729E+05
 0.70299995E+02 -0.24960E+05
 0.70349998E+02 -0.24902E+05
 0.70399994E+02 -0.24529E+05
 0.70449997E+02 -0.24559E+05
 0.70499992E+02 -0.24526E+05
 0.70549995E+02 -0.24467E+05
 0.70599998E+02 -0.24769E+05
 0.70649994E+02 -0.24879E+05
 0.70699997E+02 -0.24780E+05
 0.70749992E+02 -0.24845E+05
 0.70799995E+02 -0.24916E+05
 0.70849998E+02 -0.24690E+05
 0.70899994E+02 -0.24735E+05
 0.70949997E+02 -0.24901E+05
 0.70999992E+02 -0.24867E+05
 0.71049995E+02 -0.24556E+05
 0.71099998E+02 -0.24584E+05
 0.71149994E+02 -0.24772E+05
 0.71199997E+02 -0.24749E+05
 0.71249992E+02 -0.25105E+05
 0.71299995E+02 -0.24931E+05
 0.71349998E+02 -0.25009E+05
 0.71399994E+02 -0.24987E+05
 0.71449997E+02 -0.24869E+05
 0.71499992E+02 -0.25296E+05
 0.71549995E+02 -0.25216E+05
 0.71599998E+02 -0.25380E+05
 0.71649994E+02 -0.25602E+05
 0.71699997E+02 -0.25328E+05
 0.71749992E+02 -0.25283E+05
 0.71799995E+02 -0.25221E+05
 0.71849998E+02 -0.24815E+05
 0.71899994E+02 -0.24875E+05
 0.71949997E+02 -0.24877E+05
 0.71999992E+02 -0.24678E+05
 0.72049995E+02 -0.25116E+05
 0.72099998E+02 -0.24978E+05
 0.72149994E+02 -0.24727E+05
 0.72199997E+02 -0.24943E+05
 0.72249992E+02 -0.24677E+05
 0.72299995E+02 -0.24538E+05
 0.72349998E+02 -0.24364E+05
 0.72399994E+02 -0.24266E+05
 0.72449997E+02 -0.24461E+05
 0.72499992E+02 -0.24414E+05
 0.72549995E+02 -0.24532E+05
 0.72599998E+02 -0.24690E+05
 0.72649994E+02 -0.24699E+05
 0.72699997E+02 -0.24803E+05
 0.72749992E+02 -0.24628E+05
 0.72799995E+02 -0.24639E+05
 0.72849998E+02 -0.24632E+05
 0.72899994E+02 -0.24753E+05
 0.72949997E+02 -0.24898E+05
 0.72999992E+02 -0.24657E+05
 0.73049995E+02 -0.24683E+05
 0.73099998E+02 -0.24783E+05
 0.73149994E+02 -0.25031E+05
 0.73199997E+02 -0.25127E+05
 0.73249992E+02 -0.25243E+05
 0.73299995E+02 -0.25058E+05
 0.73349998E+02 -0.24791E+05
 0.73399994E+02 -0.24650E+05
 0.73449997E+02 -0.24669E+05
 0.73499992E+02 -0.24714E+05
 0.73549995E+02 -0.24514E+05
 0.73599998E+02 -0.24728E+05
 0.73649994E+02 -0.24822E+05
 0.73699997E+02 -0.25147E+05
 0.73749992E+02 -0.25043E+05
 0.73799995E+02 -0.24871E+05
 0.73849998E+02 -0.25108E+05
 0.73899994E+02 -0.24834E+05
 0.73949997E+02 -0.24686E+05
 0.73999992E+02 -0.24693E+05
 0.74049995E+02 -0.24721E+05
 0.74099998E+02 -0.24702E+05
 0.74149994E+02 -0.24937E+05
 0.74199997E+02 -0.25012E+05
 0.74249992E+02 -0.24523E+05
 0.74299995E+02 -0.24432E+05
 0.74349998E+02 -0.24712E+05
 0.74399994E+02 -0.24700E+05
 0.74449997E+02 -0.24910E+05
 0.74499992E+02 -0.24999E+05
 0.74549995E+02 -0.24853E+05
 0.74599998E+02 -0.24906E+05
 0.74649994E+02 -0.24872E+05
 0.74699997E+02 -0.24888E+05
 0.74749992E+02 -0.24806E+05
 0.74799995E+02 -0.24853E+05
 0.74849998E+02 -0.25021E+05
 0.74899994E+02 -0.25018E+05
 0.74949997E+02 -0.25057E+05
 0.74999992E+02 -0.25338E+05
 0.75049995E+02 -0.25200E+05
 0.75099998E+02 -0.25119E+05
 0.75149994E+02 -0.24938E+05
 0.75199997E+02 -0.24579E+05
 0.75249992E+02 -0.24877E+05
 0.75299995E+02 -0.24686E+05
 0.75349998E+02 -0.24547E+05
 0.75399994E+02 -0.24848E+05
 0.75449997E+02 -0.24782E+05
 0.75499992E+02 -0.24670E+05
 0.75549995E+02 -0.24611E+05
 0.75599998E+02 -0.24589E+05
 0.75649994E+02 -0.24849E+05
 0.75699997E+02 -0.24721E+05
 0.75749992E+02 -0.24508E+05
 0.75799995E+02 -0.24765E+05
 0.75849998E+02 -0.24881E+05
 0.75899994E+02 -0.25011E+05
 0.75949997E+02 -0.25140E+05
 0.75999992E+02 -0.25065E+05
 0.76049995E+02 -0.25035E+05
 0.76099998E+02 -0.24921E+05
 0.76149994E+02 -0.24896E+05
 0.76199997E+02 -0.24995E+05
 0.76249992E+02 -0.24888E+05
 0.76299995E+02 -0.24939E+05
 0.76349998E+02 -0.25023E+05
 0.76399994E+02 -0.25069E+05
 0.76449997E+02 -0.24990E+05
 0.76499992E+02 -0.24840E+05
 0.76549995E+02 -0.24970E+05
 0.76599998E+02 -0.24985E+05
 0.76649994E+02 -0.24863E+05
 0.76699997E+02 -0.24841E+05
 0.76749992E+02 -0.24820E+05
 0.76799995E+02 -0.24944E+05
 0.76849998E+02 -0.25038E+05
 0.76899994E+02 -0.25130E+05
 0.76949997E+02 -0.25222E+05
 0.76999992E+02 -0.25214E+05
 0.77049995E+02 -0.25048E+05
 0.77099998E+02 -0.24751E+05
 0.77149994E+02 -0.24717E+05
 0.77199997E+02 -0.24478E+05
 0.77249992E+02 -0.24416E+05
 0.77299995E+02 -0.24582E+05
 0.77349998E+02 -0.24464E+05
 0.77399994E+02 -0.24574E+05
 0.77449997E+02 -0.24557E+05
 0.77499992E+02 -0.24430E+05
 0.77549995E+02 -0.24538E+05
 0.77599998E+02 -0.24456E+05
 0.77649994E+02 -0.24440E+05
 0.77699997E+02 -0.24551E+05
 0.77749992E+02 -0.24783E+05
 0.77799995E+02 -0.24870E+05
 0.77849998E+02 -0.24686E+05
 0.77899994E+02 -0.24707E+05
 0.77949997E+02 -0.24669E+05
 0.77999992E+02 -0.24826E+05
 0.78049995E+02 -0.24864E+05
 0.78099998E+02 -0.24946E+05
 0.78149994E+02 -0.25200E+05
 0.78199997E+02 -0.25045E+05
 0.78249992E+02 -0.25025E+05
 0.78299995E+02 -0.25102E+05
 0.78349998E+02 -0.25043E+05
 0.78399994E+02 -0.24921E+05
 0.78449997E+02 -0.24785E+05
 0.78499992E+02 -0.24751E+05
 0.78549995E+02 -0.24647E+05
 0.78599998E+02 -0.24612E+05
 0.78649994E+02 -0.24569E+05
 0.78699997E+02 -0.24534E+05
 0.78749992E+02 -0.24682E+05
 0.78799995E+02 -0.24486E+05
 0.78849998E+02 -0.24342E+05
 0.78899994E+02 -0.24488E+05
 0.78949997E+02 -0.24532E+05
 0.78999992E+02 -0.24552E+05
 0.79049995E+02 -0.24795E+05
 0.79099998E+02 -0.24975E+05
 0.79149994E+02 -0.24812E+05
 0.79199997E+02 -0.24768E+05
 0.79249992E+02 -0.24723E+05
 0.79299995E+02 -0.24535E+05
 0.79349998E+02 -0.24646E+05
 0.79399994E+02 -0.24687E+05
 0.79449997E+02 -0.24719E+05
 0.79499992E+02 -0.24962E+05
 0.79549995E+02 -0.25157E+05
 0.79599998E+02 -0.25312E+05
 0.79649994E+02 -0.25451E+05
 0.79699997E+02 -0.25496E+05
 0.79749992E+02 -0.25159E+05
 0.79799995E+02 -0.25121E+05
 0.79849998E+02 -0.25020E+05
 0.79899994E+02 -0.24817E+05
 0.79949997E+02 -0.25002E+05
 0.79999992E+02 -0.25007E+05
 0.80049995E+02 -0.25008E+05
 0.80099998E+02 -0.25057E+05
 0.80149994E+02 -0.24902E+05
 0.80199997E+02 -0.24633E+05
 0.80249992E+02 -0.24693E+05
 0.80299995E+02 -0.24547E+05
 0.80349998E+02 -0.24273E+05
 0.80399994E+02 -0.24431E+05
 0.80449997E+02 -0.24669E+05
 0.80499992E+02 -0.24661E+05
 0.80549995E+02 -0.24446E+05
 0.80599998E+02 -0.24498E+05
 0.80649994E+02 -0.24604E+05
 0.80699997E+02 -0.24532E+05
 0.80749992E+02 -0.24720E+05
 0.80799995E+02 -0.24768E+05
 0.80849998E+02 -0.24890E+05
 0.80899994E+02 -0.25170E+05
 0.80949997E+02 -0.25058E+05
 0.80999992E+02 -0.25123E+05
 0.81049995E+02 -0.25113E+05
 0.81099998E+02 -0.25305E+05
 0.81149994E+02 -0.25286E+05
 0.81199997E+02 -0.25118E+05
 0.81249992E+02 -0.25080E+05
 0.81299995E+02 -0.24857E+05
 0.81349998E+02 -0.24870E+05
 0.81399994E+02 -0.24821E+05
 0.81449997E+02 -0.24775E+05
 0.81499992E+02 -0.24727E+05
 0.81549995E+02 -0.24701E+05
 0.81599998E+02 -0.24829E+05
 0.81649994E+02 -0.24900E+05
 0.81699997E+02 -0.24866E+05
 0.81749992E+02 -0.25083E+05
 0.81799995E+02 -0.25050E+05
 0.81849998E+02 -0.25031E+05
 0.81899994E+02 -0.25263E+05
 0.81949997E+02 -0.25157E+05
 0.81999992E+02 -0.24846E+05
 0.82049995E+02 -0.24818E+05
 0.82099998E+02 -0.24631E+05
 0.82149994E+02 -0.24431E+05
 0.82199997E+02 -0.24650E+05
 0.82249992E+02 -0.24595E+05
 0.82299995E+02 -0.24571E+05
 0.82349998E+02 -0.24578E+05
 0.82399994E+02 -0.24608E+05
 0.82449997E+02 -0.24692E+05
 0.82499992E+02 -0.24666E+05
 0.82549995E+02 -0.24698E+05
 0.82599998E+02 -0.24690E+05
 0.82649994E+02 -0.24659E+05
 0.82699997E+02 -0.24669E+05
 0.82749992E+02 -0.24646E+05
 0.82799995E+02 -0.24638E+05
 0.82849998E+02 -0.24783E+05
 0.82899994E+02 -0.24855E+05
 0.82949997E+02 -0.24701E+05
 0.82999992E+02 -0.24846E+05
 0.83049995E+02 -0.25088E+05
 0.83099998E+02 -0.24941E+05
 0.83149994E+02 -0.24789E+05
 0.83199997E+02 -0.24786E+05
 0.83249992E+02 -0.24832E+05
 0.83299995E+02 -0.24815E+05
 0.83349998E+02 -0.24675E+05
 0.83399994E+02 -0.24724E+05
 0.83449997E+02 -0.24918E+05
 0.83499992E+02 -0.24880E+05
 0.83549995E+02 -0.24867E+05
 0.83599998E+02 -0.25111E+05
 0.83649994E+02 -0.25015E+05
 0.83699997E+02 -0.24802E+05
 0.83749992E+02 -0.24837E+05
 0.83799995E+02 -0.24686E+05
 0.83849998E+02 -0.24686E+05
 0.83899994E+02 -0.24863E+05
 0.83949997E+02 -0.24990E+05
 0.83999992E+02 -0.25201E+05
 0.84049995E+02 -0.25422E+05
 0.84099998E+02 -0.25477E+05
 0.84149994E+02 -0.25309E+05
 0.84199997E+02 -0.25291E+05
 0.84249992E+02 -0.25187E+05
 0.84299995E+02 -0.24977E+05
 0.84349998E+02 -0.24865E+05
 0.84399994E+02 -0.24906E+05
 0.84449997E+02 -0.24934E+05
 0.84499992E+02 -0.24740E+05
 0.84549995E+02 -0.24649E+05
 0.84599998E+02 -0.24626E+05
 0.84649994E+02 -0.24690E+05
 0.84699997E+02 -0.24714E+05
 0.84749992E+02 -0.24551E+05
 0.84799995E+02 -0.24614E+05
 0.84849998E+02 -0.24697E+05
 0.84899994E+02 -0.24659E+05
 0.84949997E+02 -0.24777E+05
 0.84999992E+02 -0.24562E+05
 0.85049995E+02 -0.24632E+05
 0.85099998E+02 -0.24724E+05
 0.85149994E+02 -0.24484E+05
 0.85199997E+02 -0.24593E+05
 0.85249992E+02 -0.24600E+05
 0.85299995E+02 -0.24713E+05
 0.85349998E+02 -0.24884E+05
 0.85399994E+02 -0.24847E+05
 0.85449997E+02 -0.24792E+05
 0.85499992E+02 -0.24923E+05
 0.85549995E+02 -0.24975E+05
 0.85599998E+02 -0.24918E+05
 0.85649994E+02 -0.24928E+05
 0.85699997E+02 -0.24913E+05
 0.85749992E+02 -0.24971E+05
 0.85799995E+02 -0.24947E+05
 0.85849998E+02 -0.24782E+05
 0.85899994E+02 -0.24552E+05
 0.85949997E+02 -0.24574E+05
 0.85999992E+02 -0.24610E+05
 0.86049995E+02 -0.24664E+05
 0.86099998E+02 -0.24807E+05
 0.86149994E+02 -0.24787E+05
 0.86199997E+02 -0.24868E+05
 0.86249992E+02 -0.24869E+05
 0.86299995E+02 -0.24823E+05
 0.86349998E+02 -0.24819E+05
 0.86399994E+02 -0.24687E+05
 0.86449997E+02 -0.24731E+05
 0.86499992E+02 -0.24880E+05
 0.86549995E+02 -0.25001E+05
 0.86599998E+02 -0.24966E+05
 0.86649994E+02 -0.24777E+05
 0.86699997E+02 -0.24941E+05
 0.86749992E+02 -0.24974E+05
 0.86799995E+02 -0.24900E+05
 0.86849998E+02 -0.24943E+05
 0.86899994E+02 -0.24907E+05
 0.86949997E+02 -0.25071E+05
 0.86999992E+02 -0.25062E+05
 0.87049995E+02 -0.24982E+05
 0.87099998E+02 -0.24939E+05
 0.87149994E+02 -0.24709E+05
 0.87199997E+02 -0.24669E+05
 0.87249992E+02 -0.24700E+05
 0.87299995E+02 -0.24772E+05
 0.87349998E+02 -0.24961E+05
 0.87399994E+02 -0.25097E+05
 0.87449997E+02 -0.25074E+05
 0.87499992E+02 -0.24850E+05
 0.87549995E+02 -0.24862E+05
 0.87599991E+02 -0.24717E+05
 0.87649994E+02 -0.24649E+05
 0.87699997E+02 -0.24529E+05
 0.87749992E+02 -0.24399E+05
 0.87799995E+02 -0.24709E+05
 0.87849991E+02 -0.24574E+05
 0.87899994E+02 -0.24639E+05
 0.87949997E+02 -0.24909E+05
 0.87999992E+02 -0.24926E+05
 0.88049995E+02 -0.24893E+05
 0.88099991E+02 -0.24827E+05
 0.88149994E+02 -0.24841E+05
 0.88199997E+02 -0.24792E+05
 0.88249992E+02 -0.24723E+05
 0.88299995E+02 -0.24768E+05
 0.88349991E+02 -0.24863E+05
 0.88399994E+02 -0.24947E+05
 0.88449997E+02 -0.24983E+05
 0.88499992E+02 -0.24753E+05
 0.88549995E+02 -0.24670E+05
 0.88599991E+02 -0.24790E+05
 0.88649994E+02 -0.24840E+05
 0.88699997E+02 -0.24946E+05
 0.88749992E+02 -0.24893E+05
 0.88799995E+02 -0.24915E+05
 0.88849991E+02 -0.25097E+05
 0.88899994E+02 -0.25093E+05
 0.88949997E+02 -0.24933E+05
 0.88999992E+02 -0.24878E+05
 0.89049995E+02 -0.24900E+05
 0.89099991E+02 -0.24919E+05
 0.89149994E+02 -0.24932E+05
 0.89199997E+02 -0.24970E+05
 0.89249992E+02 -0.24913E+05
 0.89299995E+02 -0.24742E+05
 0.89349991E+02 -0.24728E+05
 0.89399994E+02 -0.24665E+05
 0.89449997E+02 -0.24709E+05
 0.89499992E+02 -0.24700E+05
 0.89549995E+02 -0.24691E+05
 0.89599991E+02 -0.24851E+05
 0.89649994E+02 -0.24917E+05
 0.89699997E+02 -0.24857E+05
 0.89749992E+02 -0.24873E+05
 0.89799995E+02 -0.24968E+05
 0.89849991E+02 -0.24848E+05
 0.89899994E+02 -0.24909E+05
 0.89949997E+02 -0.24956E+05
 0.89999992E+02 -0.24709E+05
 0.90049995E+02 -0.24697E+05
 0.90099991E+02 -0.24677E+05
 0.90149994E+02 -0.24584E+05
 0.90199997E+02 -0.24786E+05
 0.90249992E+02 -0.24794E+05
 0.90299995E+02 -0.24664E+05
 0.90349991E+02 -0.24575E+05
 0.90399994E+02 -0.24602E+05
 0.90449997E+02 -0.24610E+05
 0.90499992E+02 -0.24711E+05
 0.90549995E+02 -0.24720E+05
 0.90599991E+02 -0.24795E+05
 0.90649994E+02 -0.24879E+05
 0.90699997E+02 -0.24591E+05
 0.90749992E+02 -0.24592E+05
 0.90799995E+02 -0.24594E+05
 0.90849991E+02 -0.24673E+05
 0.90899994E+02 -0.24758E+05
 0.90949997E+02 -0.24753E+05
 0.90999992E+02 -0.24860E+05
 0.91049995E+02 -0.24977E+05
 0.91099991E+02 -0.24967E+05
 0.91149994E+02 -0.24906E+05
 0.91199997E+02 -0.24901E+05
 0.91249992E+02 -0.24740E+05
 0.91299995E+02 -0.24663E+05
 0.91349991E+02 -0.24829E+05
 0.91399994E+02 -0.24970E+05
 0.91449997E+02 -0.24997E+05
 0.91499992E+02 -0.25004E+05
 0.91549995E+02 -0.25037E+05
 0.91599991E+02 -0.25083E+05
 0.91649994E+02 -0.24986E+05
 0.91699997E+02 -0.24920E+05
 0.91749992E+02 -0.25052E+05
 0.91799995E+02 -0.25097E+05
 0.91849991E+02 -0.25024E+05
 0.91899994E+02 -0.24935E+05
 0.91949997E+02 -0.24818E+05
 0.91999992E+02 -0.24855E+05
 0.92049995E+02 -0.24825E+05
 0.92099991E+02 -0.24769E+05
 0.92149994E+02 -0.24764E+05
 0.92199997E+02 -0.24777E+05
 0.92249992E+02 -0.24878E+05
 0.92299995E+02 -0.24960E+05
 0.92349991E+02 -0.24835E+05
 0.92399994E+02 -0.24796E+05
 0.92449997E+02 -0.24939E+05
 0.92499992E+02 -0.24866E+05
 0.92549995E+02 -0.24885E+05
 0.92599991E+02 -0.24885E+05
 0.92649994E+02 -0.24915E+05
 0.92699997E+02 -0.24960E+05
 0.92749992E+02 -0.25030E+05
 0.92799995E+02 -0.25018E+05
 0.92849991E+02 -0.24876E+05
 0.92899994E+02 -0.24815E+05
 0.92949997E+02 -0.24726E+05
 0.92999992E+02 -0.24800E+05
 0.93049995E+02 -0.24712E+05
 0.93099991E+02 -0.24524E+05
 0.93149994E+02 -0.24601E+05
 0.93199997E+02 -0.24706E+05
 0.93249992E+02 -0.24729E+05
 0.93299995E+02 -0.24738E+05
 0.93349991E+02 -0.24705E+05
 0.93399994E+02 -0.24672E+05
 0.93449997E+02 -0.24659E+05
 0.93499992E+02 -0.24696E+05
 0.93549995E+02 -0.24709E+05
 0.93599991E+02 -0.24693E+05
 0.93649994E+02 -0.24768E+05
 0.93699997E+02 -0.24830E+05
 0.93749992E+02 -0.24783E+05
 0.93799995E+02 -0.24695E+05
 0.93849991E+02 -0.24673E+05
 0.93899994E+02 -0.24572E+05
 0.93949997E+02 -0.24649E+05
 0.93999992E+02 -0.24749E+05
 0.94049995E+02 -0.24751E+05
 0.94099991E+02 -0.24841E+05
 0.94149994E+02 -0.24836E+05
 0.94199997E+02 -0.24959E+05
 0.94249992E+02 -0.24935E+05
 0.94299995E+02 -0.24779E+05
 0.94349991E+02 -0.24870E+05
 0.94399994E+02 -0.24848E+05
 0.94449997E+02 -0.24739E+05
 0.94499992E+02 -0.24721E+05
 0.94549995E+02 -0.24734E+05
 0.94599991E+02 -0.24757E+05
 0.94649994E+02 -0.24751E+05
 0.94699997E+02 -0.24778E+05
 0.94749992E+02 -0.24789E+05
 0.94799995E+02 -0.24811E+05
 0.94849991E+02 -0.24862E+05
 0.94899994E+02 -0.24870E+05
 0.94949997E+02 -0.24915E+05
 0.94999992E+02 -0.24845E+05
 0.95049995E+02 -0.24818E+05
 0.95099991E+02 -0.24857E+05
 0.95149994E+02 -0.24832E+05
 0.95199997E+02 -0.24910E+05
 0.95249992E+02 -0.24939E+05
 0.95299995E+02 -0.25024E+05
 0.95349991E+02 -0.24999E+05
 0.95399994E+02 -0.24932E+05
 0.95449997E+02 -0.24971E+05
 0.95499992E+02 -0.24935E+05
 0.95549995E+02 -0.24922E+05
 0.95599991E+02 -0.24996E+05
 0.95649994E+02 -0.24982E+05
 0.95699997E+02 -0.24879E+05
 0.95749992E+02 -0.24749E+05
 0.95799995E+02 -0.24747E+05
 0.95849991E+02 -0.24937E+05
 0.95899994E+02 -0.24822E+05
 0.95949997E+02 -0.24795E+05
 0.95999992E+02 -0.24806E+05
 0.96049995E+02 -0.24731E+05
 0.96099991E+02 -0.24720E+05
 0.96149994E+02 -0.24621E+05
 0.96199997E+02 -0.24712E+05
 0.96249992E+02 -0.24814E+05
 0.96299995E+02 -0.24705E+05
 0.96349991E+02 -0.24676E+05
 0.96399994E+02 -0.24762E+05
 0.96449997E+02 -0.24814E+05
 0.96499992E+02 -0.24980E+05
 0.96549995E+02 -0.24958E+05
 0.96599991E+02 -0.24914E+05
 0.96649994E+02 -0.25011E+05
 0.96699997E+02 -0.24916E+05
 0.96749992E+02 -0.24847E+05
 0.96799995E+02 -0.24873E+05
 0.96849991E+02 -0.24755E+05
 0.96899994E+02 -0.24735E+05
 0.96949997E+02 -0.24879E+05
 0.96999992E+02 -0.24860E+05
 0.97049995E+02 -0.24971E+05
 0.97099991E+02 -0.24992E+05
 0.97149994E+02 -0.24936E+05
 0.97199997E+02 -0.25002E+05
 0.97249992E+02 -0.24889E+05
 0.97299995E+02 -0.24922E+05
 0.97349991E+02 -0.24985E+05
 0.97399994E+02 -0.24997E+05
 0.97449997E+02 -0.25081E+05
 0.97499992E+02 -0.25021E+05
 0.97549995E+02 -0.24944E+05
 0.97599991E+02 -0.24846E+05
 0.97649994E+02 -0.24811E+05
 0.97699997E+02 -0.24824E+05
 0.97749992E+02 -0.24810E+05
 0.97799995E+02 -0.24887E+05
 0.97849991E+02 -0.24826E+05
 0.97899994E+02 -0.24887E+05
 0.97949997E+02 -0.24978E+05
 0.97999992E+02 -0.24875E+05
