-0.20000000E+01  0.69465E+04
-0.19500000E+01  0.69141E+04
-0.19000000E+01  0.69407E+04
-0.18500000E+01  0.69431E+04
-0.18000000E+01  0.69352E+04
-0.17500000E+01  0.69261E+04
-0.17000000E+01  0.69284E+04
-0.16500001E+01  0.69226E+04
-0.16000000E+01  0.69276E+04
-0.15500000E+01  0.69336E+04
-0.15000000E+01  0.69340E+04
-0.14500000E+01  0.69416E+04
-0.14000001E+01  0.69466E+04
-0.13500000E+01  0.69490E+04
-0.13000001E+01  0.69491E+04
-0.12500000E+01  0.69454E+04
-0.12000000E+01  0.69449E+04
-0.11500001E+01  0.69366E+04
-0.11000000E+01  0.69372E+04
-0.10500001E+01  0.69407E+04
-0.10000000E+01  0.69295E+04
-0.95000005E+00  0.69289E+04
-0.90000010E+00  0.69225E+04
-0.85000002E+00  0.69177E+04
-0.80000007E+00  0.69230E+04
-0.75000012E+00  0.69195E+04
-0.70000005E+00  0.69226E+04
-0.65000010E+00  0.69248E+04
-0.60000014E+00  0.69239E+04
-0.55000007E+00  0.69308E+04
-0.50000012E+00  0.69322E+04
-0.45000005E+00  0.69316E+04
-0.40000010E+00  0.69307E+04
-0.35000014E+00  0.69372E+04
-0.30000007E+00  0.69385E+04
-0.25000012E+00  0.69358E+04
-0.20000005E+00  0.69414E+04
-0.15000010E+00  0.69400E+04
-0.10000014E+00  0.69392E+04
-0.50000072E-01  0.69390E+04
-0.11920929E-06  0.69304E+04
 0.49999952E-01  0.69277E+04
 0.99999905E-01  0.69273E+04
 0.14999986E+00  0.69217E+04
 0.19999981E+00  0.69236E+04
 0.24999976E+00  0.69209E+04
 0.29999995E+00  0.69249E+04
 0.34999990E+00  0.69249E+04
 0.39999986E+00  0.69256E+04
 0.44999981E+00  0.69307E+04
 0.49999976E+00  0.69282E+04
 0.54999995E+00  0.69364E+04
 0.59999990E+00  0.69387E+04
 0.64999986E+00  0.69400E+04
 0.69999981E+00  0.69417E+04
 0.74999976E+00  0.69451E+04
 0.79999971E+00  0.69524E+04
 0.84999990E+00  0.69528E+04
 0.89999986E+00  0.69573E+04
 0.94999981E+00  0.69562E+04
 0.99999976E+00  0.69514E+04
 0.10499997E+01  0.69542E+04
 0.10999999E+01  0.69516E+04
 0.11499999E+01  0.69476E+04
 0.11999998E+01  0.69412E+04
 0.12499998E+01  0.69412E+04
 0.12999997E+01  0.69386E+04
 0.13499999E+01  0.69354E+04
 0.13999999E+01  0.69406E+04
 0.14499998E+01  0.69401E+04
 0.14999998E+01  0.69436E+04
 0.15499997E+01  0.69416E+04
 0.15999999E+01  0.69406E+04
 0.16499999E+01  0.69436E+04
 0.16999998E+01  0.69443E+04
 0.17499998E+01  0.69420E+04
 0.17999997E+01  0.69377E+04
 0.18499997E+01  0.69343E+04
 0.18999999E+01  0.69376E+04
 0.19499998E+01  0.69325E+04
 0.19999998E+01  0.69356E+04
 0.20499997E+01  0.69404E+04
 0.20999999E+01  0.69427E+04
 0.21499996E+01  0.69461E+04
 0.21999998E+01  0.69417E+04
 0.22499995E+01  0.69485E+04
 0.22999997E+01  0.69437E+04
 0.23499999E+01  0.69390E+04
 0.23999996E+01  0.69430E+04
 0.24499998E+01  0.69396E+04
 0.24999995E+01  0.69345E+04
 0.25499997E+01  0.69312E+04
 0.25999999E+01  0.69310E+04
 0.26499996E+01  0.69281E+04
 0.26999998E+01  0.69250E+04
 0.27499995E+01  0.69256E+04
 0.27999997E+01  0.69297E+04
 0.28499999E+01  0.69283E+04
 0.28999996E+01  0.69247E+04
 0.29499998E+01  0.69319E+04
 0.29999995E+01  0.69313E+04
 0.30499997E+01  0.69318E+04
 0.30999999E+01  0.69334E+04
 0.31499996E+01  0.69372E+04
 0.31999998E+01  0.69375E+04
 0.32499995E+01  0.69382E+04
 0.32999997E+01  0.69478E+04
 0.33499999E+01  0.69482E+04
 0.33999996E+01  0.69512E+04
 0.34499998E+01  0.69538E+04
 0.34999995E+01  0.69494E+04
 0.35499997E+01  0.69502E+04
 0.35999994E+01  0.69502E+04
 0.36499996E+01  0.69408E+04
 0.36999998E+01  0.69396E+04
 0.37499995E+01  0.69350E+04
 0.37999997E+01  0.69336E+04
 0.38499994E+01  0.69299E+04
 0.38999996E+01  0.69302E+04
 0.39499998E+01  0.69291E+04
 0.39999995E+01  0.69270E+04
 0.40499997E+01  0.69366E+04
 0.40999994E+01  0.69361E+04
 0.41499996E+01  0.69438E+04
 0.41999998E+01  0.69461E+04
 0.42499995E+01  0.69506E+04
 0.42999997E+01  0.69531E+04
 0.43499994E+01  0.69524E+04
 0.43999996E+01  0.69510E+04
 0.44499998E+01  0.69495E+04
 0.44999995E+01  0.69585E+04
 0.45499997E+01  0.69590E+04
 0.45999994E+01  0.69575E+04
 0.46499996E+01  0.69574E+04
 0.46999998E+01  0.69548E+04
 0.47499995E+01  0.69593E+04
 0.47999997E+01  0.69623E+04
 0.48499994E+01  0.69552E+04
 0.48999996E+01  0.69590E+04
 0.49499998E+01  0.69615E+04
 0.49999995E+01  0.69601E+04
 0.50499997E+01  0.69652E+04
 0.50999994E+01  0.69641E+04
 0.51499996E+01  0.69673E+04
 0.51999998E+01  0.69637E+04
 0.52499995E+01  0.69593E+04
 0.52999997E+01  0.69622E+04
 0.53499994E+01  0.69600E+04
 0.53999996E+01  0.69591E+04
 0.54499993E+01  0.69530E+04
 0.54999995E+01  0.69471E+04
 0.55499997E+01  0.69443E+04
 0.55999994E+01  0.69377E+04
 0.56499996E+01  0.69374E+04
 0.56999993E+01  0.69367E+04
 0.57499995E+01  0.69247E+04
 0.57999997E+01  0.69253E+04
 0.58499994E+01  0.69224E+04
 0.58999996E+01  0.69168E+04
 0.59499993E+01  0.69186E+04
 0.59999995E+01  0.69128E+04
 0.60499992E+01  0.69129E+04
 0.60999994E+01  0.69107E+04
 0.61499996E+01  0.69109E+04
 0.61999998E+01  0.69179E+04
 0.62499990E+01  0.69112E+04
 0.62999992E+01  0.69104E+04
 0.63499994E+01  0.69089E+04
 0.63999996E+01  0.69111E+04
 0.64499998E+01  0.69113E+04
 0.64999990E+01  0.69095E+04
 0.65499992E+01  0.69178E+04
 0.65999994E+01  0.69126E+04
 0.66499996E+01  0.69146E+04
 0.66999998E+01  0.69146E+04
 0.67499990E+01  0.69128E+04
 0.67999992E+01  0.69122E+04
 0.68499994E+01  0.69113E+04
 0.68999996E+01  0.69149E+04
 0.69499998E+01  0.69149E+04
 0.69999990E+01  0.69212E+04
 0.70499992E+01  0.69262E+04
 0.70999994E+01  0.69276E+04
 0.71499996E+01  0.69327E+04
 0.71999998E+01  0.69359E+04
 0.72499990E+01  0.69345E+04
 0.72999992E+01  0.69405E+04
 0.73499994E+01  0.69375E+04
 0.73999996E+01  0.69431E+04
 0.74499998E+01  0.69460E+04
 0.74999990E+01  0.69465E+04
 0.75499992E+01  0.69542E+04
 0.75999994E+01  0.69458E+04
 0.76499996E+01  0.69547E+04
 0.76999998E+01  0.69548E+04
 0.77499990E+01  0.69568E+04
 0.77999992E+01  0.69626E+04
 0.78499994E+01  0.69616E+04
 0.78999996E+01  0.69659E+04
 0.79499998E+01  0.69625E+04
 0.79999990E+01  0.69585E+04
 0.80499992E+01  0.69588E+04
 0.80999994E+01  0.69547E+04
 0.81499996E+01  0.69551E+04
 0.81999998E+01  0.69547E+04
 0.82499990E+01  0.69512E+04
 0.82999992E+01  0.69517E+04
 0.83499994E+01  0.69438E+04
 0.83999996E+01  0.69454E+04
 0.84499998E+01  0.69412E+04
 0.84999990E+01  0.69355E+04
 0.85499992E+01  0.69383E+04
 0.85999994E+01  0.69311E+04
 0.86499996E+01  0.69286E+04
 0.86999998E+01  0.69329E+04
 0.87499990E+01  0.69309E+04
 0.87999992E+01  0.69326E+04
 0.88499994E+01  0.69372E+04
 0.88999996E+01  0.69370E+04
 0.89499998E+01  0.69406E+04
 0.89999990E+01  0.69459E+04
 0.90499992E+01  0.69521E+04
 0.90999994E+01  0.69549E+04
 0.91499996E+01  0.69511E+04
 0.91999989E+01  0.69605E+04
 0.92499990E+01  0.69571E+04
 0.92999992E+01  0.69504E+04
 0.93499994E+01  0.69560E+04
 0.93999996E+01  0.69492E+04
 0.94499989E+01  0.69467E+04
 0.94999990E+01  0.69448E+04
 0.95499992E+01  0.69361E+04
 0.95999994E+01  0.69294E+04
 0.96499996E+01  0.69242E+04
 0.96999989E+01  0.69206E+04
 0.97499990E+01  0.69179E+04
 0.97999992E+01  0.69149E+04
 0.98499994E+01  0.69179E+04
 0.98999996E+01  0.69198E+04
 0.99499989E+01  0.69201E+04
 0.99999990E+01  0.69242E+04
 0.10049999E+02  0.69280E+04
 0.10099999E+02  0.69259E+04
 0.10150000E+02  0.69272E+04
 0.10199999E+02  0.69297E+04
 0.10249999E+02  0.69271E+04
 0.10299999E+02  0.69326E+04
 0.10349999E+02  0.69404E+04
 0.10400000E+02  0.69358E+04
 0.10449999E+02  0.69387E+04
 0.10499999E+02  0.69403E+04
 0.10549999E+02  0.69368E+04
 0.10599999E+02  0.69377E+04
 0.10650000E+02  0.69386E+04
 0.10699999E+02  0.69360E+04
 0.10749999E+02  0.69306E+04
 0.10799999E+02  0.69349E+04
 0.10849999E+02  0.69329E+04
 0.10900000E+02  0.69217E+04
 0.10949999E+02  0.69299E+04
 0.10999999E+02  0.69364E+04
 0.11049999E+02  0.69240E+04
 0.11099999E+02  0.69369E+04
 0.11150000E+02  0.69420E+04
 0.11199999E+02  0.69397E+04
 0.11249999E+02  0.69553E+04
 0.11299999E+02  0.69604E+04
 0.11349999E+02  0.69577E+04
 0.11400000E+02  0.69627E+04
 0.11449999E+02  0.69674E+04
 0.11499999E+02  0.69648E+04
 0.11549999E+02  0.69668E+04
 0.11599999E+02  0.69675E+04
 0.11650000E+02  0.69594E+04
 0.11699999E+02  0.69585E+04
 0.11749999E+02  0.69602E+04
 0.11799999E+02  0.69553E+04
 0.11849999E+02  0.69512E+04
 0.11900000E+02  0.69449E+04
 0.11949999E+02  0.69361E+04
 0.11999999E+02  0.69308E+04
 0.12049999E+02  0.69273E+04
 0.12099999E+02  0.69227E+04
 0.12150000E+02  0.69195E+04
 0.12199999E+02  0.69161E+04
 0.12249999E+02  0.69202E+04
 0.12299999E+02  0.69138E+04
 0.12349999E+02  0.69138E+04
 0.12400000E+02  0.69171E+04
 0.12449999E+02  0.69147E+04
 0.12499999E+02  0.69243E+04
 0.12549999E+02  0.69282E+04
 0.12599999E+02  0.69322E+04
 0.12649999E+02  0.69394E+04
 0.12699999E+02  0.69436E+04
 0.12749999E+02  0.69372E+04
 0.12799999E+02  0.69409E+04
 0.12849999E+02  0.69491E+04
 0.12899999E+02  0.69401E+04
 0.12949999E+02  0.69448E+04
 0.12999999E+02  0.69440E+04
 0.13049999E+02  0.69405E+04
 0.13099999E+02  0.69453E+04
 0.13149999E+02  0.69332E+04
 0.13199999E+02  0.69380E+04
 0.13249999E+02  0.69395E+04
 0.13299999E+02  0.69342E+04
 0.13349999E+02  0.69409E+04
 0.13399999E+02  0.69366E+04
 0.13449999E+02  0.69332E+04
 0.13499999E+02  0.69410E+04
 0.13549999E+02  0.69395E+04
 0.13599999E+02  0.69394E+04
 0.13649999E+02  0.69428E+04
 0.13699999E+02  0.69404E+04
 0.13749999E+02  0.69368E+04
 0.13799999E+02  0.69328E+04
 0.13849999E+02  0.69354E+04
 0.13899999E+02  0.69313E+04
 0.13949999E+02  0.69237E+04
 0.13999999E+02  0.69188E+04
 0.14049999E+02  0.69217E+04
 0.14099998E+02  0.69139E+04
 0.14150000E+02  0.69116E+04
 0.14199999E+02  0.69199E+04
 0.14249998E+02  0.69176E+04
 0.14299999E+02  0.69198E+04
 0.14349998E+02  0.69178E+04
 0.14400000E+02  0.69143E+04
 0.14449999E+02  0.69217E+04
 0.14499998E+02  0.69243E+04
 0.14549999E+02  0.69308E+04
 0.14599998E+02  0.69395E+04
 0.14650000E+02  0.69388E+04
 0.14699999E+02  0.69464E+04
 0.14749998E+02  0.69484E+04
 0.14799999E+02  0.69478E+04
 0.14849998E+02  0.69533E+04
 0.14900000E+02  0.69562E+04
 0.14949999E+02  0.69618E+04
 0.14999998E+02  0.69658E+04
 0.15049999E+02  0.69653E+04
 0.15099998E+02  0.69675E+04
 0.15150000E+02  0.69644E+04
 0.15199999E+02  0.69599E+04
 0.15249998E+02  0.69578E+04
 0.15299999E+02  0.69536E+04
 0.15349998E+02  0.69540E+04
 0.15400000E+02  0.69442E+04
 0.15449999E+02  0.69410E+04
 0.15499998E+02  0.69462E+04
 0.15549999E+02  0.69414E+04
 0.15599998E+02  0.69444E+04
 0.15650000E+02  0.69485E+04
 0.15699999E+02  0.69447E+04
 0.15749998E+02  0.69511E+04
 0.15799999E+02  0.69502E+04
 0.15849998E+02  0.69385E+04
 0.15900000E+02  0.69391E+04
 0.15949999E+02  0.69336E+04
 0.15999998E+02  0.69345E+04
 0.16049999E+02  0.69375E+04
 0.16099998E+02  0.69354E+04
 0.16150000E+02  0.69317E+04
 0.16199999E+02  0.69262E+04
 0.16249998E+02  0.69258E+04
 0.16299999E+02  0.69250E+04
 0.16349998E+02  0.69269E+04
 0.16400000E+02  0.69278E+04
 0.16449999E+02  0.69337E+04
 0.16499998E+02  0.69381E+04
 0.16549999E+02  0.69397E+04
 0.16599998E+02  0.69430E+04
 0.16650000E+02  0.69480E+04
 0.16699999E+02  0.69504E+04
 0.16749998E+02  0.69521E+04
 0.16799999E+02  0.69504E+04
 0.16849998E+02  0.69469E+04
 0.16900000E+02  0.69434E+04
 0.16949999E+02  0.69415E+04
 0.16999998E+02  0.69439E+04
 0.17049999E+02  0.69429E+04
 0.17099998E+02  0.69393E+04
 0.17150000E+02  0.69370E+04
 0.17199999E+02  0.69384E+04
 0.17249998E+02  0.69290E+04
 0.17299999E+02  0.69280E+04
 0.17349998E+02  0.69317E+04
 0.17400000E+02  0.69215E+04
 0.17449999E+02  0.69282E+04
 0.17499998E+02  0.69294E+04
 0.17549999E+02  0.69279E+04
 0.17599998E+02  0.69307E+04
 0.17650000E+02  0.69317E+04
 0.17699999E+02  0.69319E+04
 0.17749998E+02  0.69293E+04
 0.17799999E+02  0.69308E+04
 0.17849998E+02  0.69391E+04
 0.17900000E+02  0.69422E+04
 0.17949999E+02  0.69430E+04
 0.17999998E+02  0.69408E+04
 0.18049999E+02  0.69397E+04
 0.18099998E+02  0.69464E+04
 0.18150000E+02  0.69361E+04
 0.18199999E+02  0.69430E+04
 0.18249998E+02  0.69388E+04
 0.18299999E+02  0.69309E+04
 0.18349998E+02  0.69367E+04
 0.18400000E+02  0.69290E+04
 0.18449999E+02  0.69228E+04
 0.18499998E+02  0.69226E+04
 0.18549999E+02  0.69220E+04
 0.18599998E+02  0.69190E+04
 0.18650000E+02  0.69196E+04
 0.18699999E+02  0.69267E+04
 0.18749998E+02  0.69355E+04
 0.18799999E+02  0.69358E+04
 0.18849998E+02  0.69397E+04
 0.18900000E+02  0.69473E+04
 0.18949999E+02  0.69444E+04
 0.18999998E+02  0.69456E+04
 0.19049999E+02  0.69451E+04
 0.19099998E+02  0.69443E+04
 0.19150000E+02  0.69419E+04
 0.19199999E+02  0.69419E+04
 0.19249998E+02  0.69366E+04
 0.19299999E+02  0.69321E+04
 0.19349998E+02  0.69291E+04
 0.19400000E+02  0.69247E+04
 0.19449999E+02  0.69210E+04
 0.19499998E+02  0.69185E+04
 0.19549999E+02  0.69222E+04
 0.19599998E+02  0.69176E+04
 0.19650000E+02  0.69243E+04
 0.19699999E+02  0.69267E+04
 0.19749998E+02  0.69321E+04
 0.19799999E+02  0.69368E+04
 0.19849998E+02  0.69373E+04
 0.19900000E+02  0.69373E+04
 0.19949999E+02  0.69361E+04
 0.19999998E+02  0.69359E+04
 0.20049999E+02  0.69432E+04
 0.20099998E+02  0.69401E+04
 0.20150000E+02  0.69331E+04
 0.20199999E+02  0.69416E+04
 0.20249998E+02  0.69382E+04
 0.20299999E+02  0.69354E+04
 0.20349998E+02  0.69378E+04
 0.20399998E+02  0.69355E+04
 0.20449999E+02  0.69279E+04
 0.20499998E+02  0.69322E+04
 0.20549999E+02  0.69318E+04
 0.20599998E+02  0.69308E+04
 0.20649998E+02  0.69315E+04
 0.20699999E+02  0.69369E+04
 0.20749998E+02  0.69358E+04
 0.20799999E+02  0.69383E+04
 0.20849998E+02  0.69390E+04
 0.20899998E+02  0.69258E+04
 0.20949999E+02  0.69354E+04
 0.20999998E+02  0.69297E+04
 0.21049999E+02  0.69252E+04
 0.21099998E+02  0.69281E+04
 0.21149998E+02  0.69339E+04
 0.21199999E+02  0.69319E+04
 0.21249998E+02  0.69327E+04
 0.21299999E+02  0.69399E+04
 0.21349998E+02  0.69391E+04
 0.21399998E+02  0.69499E+04
 0.21449999E+02  0.69532E+04
 0.21499998E+02  0.69566E+04
 0.21549999E+02  0.69562E+04
 0.21599998E+02  0.69574E+04
 0.21649998E+02  0.69568E+04
 0.21699999E+02  0.69511E+04
 0.21749998E+02  0.69548E+04
 0.21799999E+02  0.69523E+04
 0.21849998E+02  0.69506E+04
 0.21899998E+02  0.69511E+04
 0.21949999E+02  0.69434E+04
 0.21999998E+02  0.69469E+04
 0.22049999E+02  0.69444E+04
 0.22099998E+02  0.69357E+04
 0.22149998E+02  0.69459E+04
 0.22199999E+02  0.69370E+04
 0.22249998E+02  0.69401E+04
 0.22299999E+02  0.69388E+04
 0.22349998E+02  0.69341E+04
 0.22399998E+02  0.69257E+04
 0.22449999E+02  0.69156E+04
 0.22499998E+02  0.69313E+04
 0.22549999E+02  0.69654E+04
 0.22599998E+02  0.69267E+04
 0.22649998E+02  0.69003E+04
 0.22699999E+02  0.68937E+04
 0.22749998E+02  0.69435E+04
 0.22799999E+02  0.69817E+04
 0.22849998E+02  0.68988E+04
 0.22899998E+02  0.69190E+04
 0.22949999E+02  0.68303E+04
 0.22999998E+02  0.69998E+04
 0.23049999E+02  0.68998E+04
 0.23099998E+02  0.69031E+04
 0.23149998E+02  0.68923E+04
 0.23199999E+02  0.67916E+04
 0.23249998E+02  0.70072E+04
 0.23299999E+02  0.69198E+04
 0.23349998E+02  0.69049E+04
 0.23399998E+02  0.67320E+04
 0.23449999E+02  0.68265E+04
 0.23499998E+02  0.69919E+04
 0.23549999E+02  0.72606E+04
 0.23599998E+02  0.71531E+04
 0.23649998E+02  0.70914E+04
 0.23699999E+02  0.74157E+04
 0.23749998E+02  0.73489E+04
 0.23799999E+02  0.69559E+04
 0.23849998E+02  0.67375E+04
 0.23899998E+02  0.65345E+04
 0.23949999E+02  0.68537E+04
 0.23999998E+02  0.69305E+04
 0.24049999E+02  0.65138E+04
 0.24099998E+02  0.75558E+04
 0.24149998E+02  0.78890E+04
 0.24199999E+02  0.75121E+04
 0.24249998E+02  0.70883E+04
 0.24299999E+02  0.71478E+04
 0.24349998E+02  0.73186E+04
 0.24399998E+02  0.70411E+04
 0.24449999E+02  0.54199E+04
 0.24499998E+02  0.45073E+04
 0.24549999E+02  0.53645E+04
 0.24599998E+02  0.61148E+04
 0.24649998E+02  0.81996E+04
 0.24699999E+02  0.78908E+04
 0.24749998E+02  0.66760E+04
 0.24799999E+02  0.76656E+04
 0.24849998E+02  0.79941E+04
 0.24899998E+02  0.69499E+04
 0.24949999E+02  0.61673E+04
 0.24999998E+02  0.84583E+04
 0.25049999E+02  0.75847E+04
 0.25099998E+02  0.59495E+04
 0.25149998E+02  0.70028E+04
 0.25199999E+02  0.62087E+04
 0.25249998E+02  0.58320E+04
 0.25299999E+02  0.64189E+04
 0.25349998E+02  0.81448E+04
 0.25399998E+02  0.79093E+04
 0.25449999E+02  0.67686E+04
 0.25499998E+02  0.76509E+04
 0.25549999E+02  0.83802E+04
 0.25599998E+02  0.58545E+04
 0.25649998E+02  0.49794E+04
 0.25699999E+02  0.75597E+04
 0.25749998E+02  0.76264E+04
 0.25799999E+02  0.77337E+04
 0.25849998E+02  0.71754E+04
 0.25899998E+02  0.41741E+04
 0.25949999E+02  0.58404E+04
 0.25999998E+02  0.83446E+04
 0.26049999E+02  0.66084E+04
 0.26099998E+02  0.60367E+04
 0.26149998E+02  0.59995E+04
 0.26199999E+02  0.73321E+04
 0.26249998E+02  0.74928E+04
 0.26299999E+02  0.61002E+04
 0.26349998E+02  0.70270E+04
 0.26399998E+02  0.71144E+04
 0.26449999E+02  0.10735E+05
 0.26499998E+02  0.10678E+05
 0.26549999E+02  0.50409E+04
 0.26599998E+02  0.47137E+04
 0.26649998E+02  0.75371E+04
 0.26699999E+02  0.76492E+04
 0.26749998E+02  0.71916E+04
 0.26799999E+02  0.79353E+04
 0.26849998E+02  0.66786E+04
 0.26899998E+02  0.67213E+04
 0.26949999E+02  0.49352E+04
 0.26999998E+02  0.52616E+04
 0.27049997E+02  0.58277E+04
 0.27099998E+02  0.65039E+04
 0.27149998E+02  0.96214E+04
 0.27199999E+02  0.49386E+04
 0.27249998E+02  0.48315E+04
 0.27299997E+02  0.84188E+04
 0.27349998E+02  0.79121E+04
 0.27399998E+02  0.79619E+04
 0.27449999E+02  0.88105E+04
 0.27499998E+02  0.78436E+04
 0.27549997E+02  0.71468E+04
 0.27599998E+02  0.49051E+04
 0.27649998E+02  0.51300E+04
 0.27699999E+02  0.83161E+04
 0.27749998E+02  0.61229E+04
 0.27799997E+02  0.59068E+04
 0.27849998E+02  0.60809E+04
 0.27899998E+02  0.53606E+04
 0.27949999E+02  0.56146E+04
 0.27999998E+02  0.95816E+04
 0.28049997E+02  0.92791E+04
 0.28099998E+02  0.62487E+04
 0.28149998E+02  0.72670E+04
 0.28199999E+02  0.66750E+04
 0.28249998E+02  0.73450E+04
 0.28299997E+02  0.95323E+04
 0.28349998E+02  0.90945E+04
 0.28399998E+02  0.51187E+04
 0.28449999E+02  0.24612E+04
 0.28499998E+02  0.42364E+04
 0.28549997E+02  0.70584E+04
 0.28599998E+02  0.70576E+04
 0.28649998E+02  0.75395E+04
 0.28699999E+02  0.60948E+04
 0.28749998E+02  0.80953E+04
 0.28799997E+02  0.95097E+04
 0.28849998E+02  0.84869E+04
 0.28899998E+02  0.61869E+04
 0.28949999E+02  0.56354E+04
 0.28999998E+02  0.70700E+04
 0.29049997E+02  0.74977E+04
 0.29099998E+02  0.85156E+04
 0.29149998E+02  0.71098E+04
 0.29199999E+02  0.60060E+04
 0.29249998E+02  0.57985E+04
 0.29299997E+02  0.83554E+04
 0.29349998E+02  0.74615E+04
 0.29399998E+02  0.46883E+04
 0.29449999E+02  0.63907E+04
 0.29499998E+02  0.87863E+04
 0.29549997E+02  0.65034E+04
 0.29599998E+02  0.78472E+04
 0.29649998E+02  0.70514E+04
 0.29699999E+02  0.49034E+04
 0.29749998E+02  0.74355E+04
 0.29799997E+02  0.78955E+04
 0.29849998E+02  0.57684E+04
 0.29899998E+02  0.63504E+04
 0.29949999E+02  0.81328E+04
 0.29999998E+02  0.77280E+04
 0.30049999E+02  0.71471E+04
 0.30099998E+02  0.67701E+04
 0.30149998E+02  0.66634E+04
 0.30199997E+02  0.65807E+04
 0.30249996E+02  0.68647E+04
 0.30299999E+02  0.89436E+04
 0.30349998E+02  0.69126E+04
 0.30399998E+02  0.63531E+04
 0.30449997E+02  0.10040E+05
 0.30499996E+02  0.98604E+04
 0.30549999E+02  0.83347E+04
 0.30599998E+02  0.35352E+04
 0.30649998E+02  0.38875E+04
 0.30699997E+02  0.69657E+04
 0.30749996E+02  0.59962E+04
 0.30799999E+02  0.46482E+04
 0.30849998E+02  0.55937E+04
 0.30899998E+02  0.66896E+04
 0.30949997E+02  0.76997E+04
 0.30999996E+02  0.86105E+04
 0.31049999E+02  0.83333E+04
 0.31099998E+02  0.70209E+04
 0.31149998E+02  0.54549E+04
 0.31199997E+02  0.55843E+04
 0.31249996E+02  0.66226E+04
 0.31299999E+02  0.80675E+04
 0.31349998E+02  0.82987E+04
 0.31399998E+02  0.57764E+04
 0.31449997E+02  0.54419E+04
 0.31499996E+02  0.74431E+04
 0.31549999E+02  0.92547E+04
 0.31599998E+02  0.81250E+04
 0.31649998E+02  0.46772E+04
 0.31699997E+02  0.63528E+04
 0.31749996E+02  0.83219E+04
 0.31799999E+02  0.69770E+04
 0.31849998E+02  0.57654E+04
 0.31899998E+02  0.60480E+04
 0.31949997E+02  0.65469E+04
 0.31999996E+02  0.80480E+04
 0.32049999E+02  0.75221E+04
 0.32099998E+02  0.64690E+04
 0.32149998E+02  0.80599E+04
 0.32199997E+02  0.75920E+04
 0.32249996E+02  0.59765E+04
 0.32299999E+02  0.65483E+04
 0.32349998E+02  0.70181E+04
 0.32399998E+02  0.69717E+04
 0.32449997E+02  0.85631E+04
 0.32499996E+02  0.73423E+04
 0.32549999E+02  0.53544E+04
 0.32599998E+02  0.61038E+04
 0.32649998E+02  0.54760E+04
 0.32699997E+02  0.67552E+04
 0.32749996E+02  0.77727E+04
 0.32799999E+02  0.68754E+04
 0.32849998E+02  0.70164E+04
 0.32899998E+02  0.58320E+04
 0.32949997E+02  0.64845E+04
 0.32999996E+02  0.81658E+04
 0.33049999E+02  0.83965E+04
 0.33099998E+02  0.68910E+04
 0.33149998E+02  0.77001E+04
 0.33199997E+02  0.70416E+04
 0.33249996E+02  0.54027E+04
 0.33299999E+02  0.72249E+04
 0.33349998E+02  0.78138E+04
 0.33399998E+02  0.86002E+04
 0.33449997E+02  0.70803E+04
 0.33499996E+02  0.56642E+04
 0.33549999E+02  0.63925E+04
 0.33599998E+02  0.50642E+04
 0.33649998E+02  0.54160E+04
 0.33699997E+02  0.80950E+04
 0.33749996E+02  0.87900E+04
 0.33799999E+02  0.74109E+04
 0.33849998E+02  0.60951E+04
 0.33899998E+02  0.71502E+04
 0.33949997E+02  0.69470E+04
 0.33999996E+02  0.69654E+04
 0.34049999E+02  0.71356E+04
 0.34099998E+02  0.62491E+04
 0.34149998E+02  0.81072E+04
 0.34199997E+02  0.85323E+04
 0.34249996E+02  0.64263E+04
 0.34299999E+02  0.51700E+04
 0.34349998E+02  0.54802E+04
 0.34399998E+02  0.74071E+04
 0.34449997E+02  0.77490E+04
 0.34499996E+02  0.78396E+04
 0.34549999E+02  0.64212E+04
 0.34599998E+02  0.52128E+04
 0.34649998E+02  0.75051E+04
 0.34699997E+02  0.77499E+04
 0.34749996E+02  0.64679E+04
 0.34799999E+02  0.74193E+04
 0.34849998E+02  0.81324E+04
 0.34899998E+02  0.62153E+04
 0.34949997E+02  0.59376E+04
 0.34999996E+02  0.76060E+04
 0.35049999E+02  0.83871E+04
 0.35099998E+02  0.70253E+04
 0.35149998E+02  0.58635E+04
 0.35199997E+02  0.61964E+04
 0.35249996E+02  0.73853E+04
 0.35299999E+02  0.66191E+04
 0.35349998E+02  0.64992E+04
 0.35399998E+02  0.85491E+04
 0.35449997E+02  0.87131E+04
 0.35499996E+02  0.78076E+04
 0.35549999E+02  0.67507E+04
 0.35599998E+02  0.62699E+04
 0.35649998E+02  0.62530E+04
 0.35699997E+02  0.70041E+04
 0.35749996E+02  0.52027E+04
 0.35799999E+02  0.50874E+04
 0.35849998E+02  0.59942E+04
 0.35899998E+02  0.68173E+04
 0.35949997E+02  0.83779E+04
 0.35999996E+02  0.73779E+04
 0.36049999E+02  0.83754E+04
 0.36099998E+02  0.74468E+04
 0.36149998E+02  0.65966E+04
 0.36199997E+02  0.73531E+04
 0.36249996E+02  0.79734E+04
 0.36299999E+02  0.76934E+04
 0.36349998E+02  0.60952E+04
 0.36399998E+02  0.56117E+04
 0.36449997E+02  0.67121E+04
 0.36499996E+02  0.66418E+04
 0.36549999E+02  0.59869E+04
 0.36599998E+02  0.68112E+04
 0.36649998E+02  0.66722E+04
 0.36699997E+02  0.74349E+04
 0.36749996E+02  0.69596E+04
 0.36799999E+02  0.62009E+04
 0.36849998E+02  0.77685E+04
 0.36899998E+02  0.75370E+04
 0.36949997E+02  0.54799E+04
 0.36999996E+02  0.62714E+04
 0.37049999E+02  0.72213E+04
 0.37099998E+02  0.67353E+04
 0.37149998E+02  0.67790E+04
 0.37199997E+02  0.65739E+04
 0.37249996E+02  0.70517E+04
 0.37299999E+02  0.77435E+04
 0.37349998E+02  0.83703E+04
 0.37399998E+02  0.72472E+04
 0.37449997E+02  0.73355E+04
 0.37499996E+02  0.70066E+04
 0.37549999E+02  0.65216E+04
 0.37599998E+02  0.70667E+04
 0.37649998E+02  0.57132E+04
 0.37699997E+02  0.66013E+04
 0.37749996E+02  0.77371E+04
 0.37799999E+02  0.74565E+04
 0.37849998E+02  0.70485E+04
 0.37899998E+02  0.71429E+04
 0.37949997E+02  0.75707E+04
 0.37999996E+02  0.73966E+04
 0.38049999E+02  0.66292E+04
 0.38099998E+02  0.70874E+04
 0.38149998E+02  0.75364E+04
 0.38199997E+02  0.62211E+04
 0.38249996E+02  0.58468E+04
 0.38299999E+02  0.63067E+04
 0.38349998E+02  0.62803E+04
 0.38399998E+02  0.61642E+04
 0.38449997E+02  0.62947E+04
 0.38499996E+02  0.62724E+04
 0.38549999E+02  0.63609E+04
 0.38599998E+02  0.76517E+04
 0.38649998E+02  0.77887E+04
 0.38699997E+02  0.71990E+04
 0.38749996E+02  0.70831E+04
 0.38799999E+02  0.83831E+04
 0.38849998E+02  0.81292E+04
 0.38899998E+02  0.61952E+04
 0.38949997E+02  0.64797E+04
 0.38999996E+02  0.68853E+04
 0.39049999E+02  0.59759E+04
 0.39099998E+02  0.58160E+04
 0.39149998E+02  0.73408E+04
 0.39199997E+02  0.77103E+04
 0.39249996E+02  0.74069E+04
 0.39299999E+02  0.67637E+04
 0.39349998E+02  0.65026E+04
 0.39399998E+02  0.63427E+04
 0.39449997E+02  0.60949E+04
 0.39499996E+02  0.68428E+04
 0.39549999E+02  0.83002E+04
 0.39599998E+02  0.91935E+04
 0.39649998E+02  0.77815E+04
 0.39699997E+02  0.58998E+04
 0.39749996E+02  0.55452E+04
 0.39799999E+02  0.67245E+04
 0.39849998E+02  0.73321E+04
 0.39899998E+02  0.64567E+04
 0.39949997E+02  0.60853E+04
 0.39999996E+02  0.71166E+04
 0.40049999E+02  0.82362E+04
 0.40099998E+02  0.64889E+04
 0.40149998E+02  0.48936E+04
 0.40199997E+02  0.50635E+04
 0.40249996E+02  0.63836E+04
 0.40299999E+02  0.10437E+05
 0.40349998E+02  0.11465E+05
 0.40399998E+02  0.95225E+04
 0.40449997E+02  0.73215E+04
 0.40499996E+02  0.53065E+04
 0.40549999E+02  0.54493E+04
 0.40599998E+02  0.45657E+04
 0.40649998E+02  0.49898E+04
 0.40699997E+02  0.79660E+04
 0.40749996E+02  0.96767E+04
 0.40799999E+02  0.78490E+04
 0.40849998E+02  0.56606E+04
 0.40899998E+02  0.70576E+04
 0.40949997E+02  0.63287E+04
 0.40999996E+02  0.38375E+04
 0.41049999E+02  0.36686E+04
 0.41099998E+02  0.44644E+04
 0.41149998E+02  0.57718E+04
 0.41199997E+02  0.63108E+04
 0.41249996E+02  0.64115E+04
 0.41299999E+02  0.76665E+04
 0.41349998E+02  0.10830E+05
 0.41399998E+02  0.11558E+05
 0.41449997E+02  0.87511E+04
 0.41499996E+02  0.66947E+04
 0.41549999E+02  0.42396E+04
 0.41599998E+02  0.33042E+04
 0.41649998E+02  0.41056E+04
 0.41699997E+02  0.42124E+04
 0.41749996E+02  0.64426E+04
 0.41799999E+02  0.11069E+05
 0.41849998E+02  0.11479E+05
 0.41899998E+02  0.88529E+04
 0.41949997E+02  0.75291E+04
 0.41999996E+02  0.61605E+04
 0.42049999E+02  0.52957E+04
 0.42099998E+02  0.50317E+04
 0.42149998E+02  0.70553E+04
 0.42199997E+02  0.10507E+05
 0.42249996E+02  0.12624E+05
 0.42299999E+02  0.10499E+05
 0.42349998E+02  0.52923E+04
 0.42399998E+02  0.23423E+04
 0.42449997E+02  0.44339E+04
 0.42499996E+02  0.72210E+04
 0.42549999E+02  0.78023E+04
 0.42599998E+02  0.87453E+04
 0.42649998E+02  0.10769E+05
 0.42699997E+02  0.11674E+05
 0.42749996E+02  0.84903E+04
 0.42799995E+02  0.51847E+04
 0.42849998E+02  0.45004E+04
 0.42899998E+02  0.61163E+04
 0.42949997E+02  0.67134E+04
 0.42999996E+02  0.48079E+04
 0.43049995E+02  0.28584E+04
 0.43099998E+02  0.34475E+04
 0.43149998E+02  0.50488E+04
 0.43199997E+02  0.62000E+04
 0.43249996E+02  0.85785E+04
 0.43299995E+02  0.97139E+04
 0.43349998E+02  0.89683E+04
 0.43399998E+02  0.75369E+04
 0.43449997E+02  0.73810E+04
 0.43499996E+02  0.69653E+04
 0.43549995E+02  0.40611E+04
 0.43599998E+02  0.36268E+04
 0.43649998E+02  0.54378E+04
 0.43699997E+02  0.82196E+04
 0.43749996E+02  0.89246E+04
 0.43799995E+02  0.74382E+04
 0.43849998E+02  0.88049E+04
 0.43899998E+02  0.99999E+04
 0.43949997E+02  0.88767E+04
 0.43999996E+02  0.66728E+04
 0.44049995E+02  0.54801E+04
 0.44099998E+02  0.55309E+04
 0.44149998E+02  0.54304E+04
 0.44199997E+02  0.39000E+04
 0.44249996E+02  0.60641E+04
 0.44299995E+02  0.11916E+05
 0.44349998E+02  0.15213E+05
 0.44399998E+02  0.11704E+05
 0.44449997E+02  0.54004E+04
 0.44499996E+02  0.40623E+04
 0.44549995E+02  0.42702E+04
 0.44599998E+02  0.56169E+04
 0.44649998E+02  0.78713E+04
 0.44699997E+02  0.85262E+04
 0.44749996E+02  0.82931E+04
 0.44799995E+02  0.68050E+04
 0.44849998E+02  0.59169E+04
 0.44899998E+02  0.61840E+04
 0.44949997E+02  0.67050E+04
 0.44999996E+02  0.73543E+04
 0.45049995E+02  0.52375E+04
 0.45099998E+02  0.23301E+04
 0.45149998E+02 -0.14046E+03
 0.45199997E+02  0.23968E+04
 0.45249996E+02  0.66414E+04
 0.45299995E+02  0.74673E+04
 0.45349998E+02  0.91631E+04
 0.45399998E+02  0.84914E+04
 0.45449997E+02  0.83879E+04
 0.45499996E+02  0.10101E+05
 0.45549995E+02  0.89233E+04
 0.45599998E+02  0.56914E+04
 0.45649998E+02  0.48561E+04
 0.45699997E+02  0.70598E+04
 0.45749996E+02  0.80832E+04
 0.45799995E+02  0.89473E+04
 0.45849998E+02  0.10181E+05
 0.45899998E+02  0.96792E+04
 0.45949997E+02  0.79587E+04
 0.45999996E+02  0.66642E+04
 0.46049995E+02  0.59990E+04
 0.46099998E+02  0.62951E+04
 0.46149998E+02  0.77395E+04
 0.46199997E+02  0.71476E+04
 0.46249996E+02  0.62827E+04
 0.46299995E+02  0.74777E+04
 0.46349998E+02  0.73845E+04
 0.46399998E+02  0.57789E+04
 0.46449997E+02  0.49573E+04
 0.46499996E+02  0.52662E+04
 0.46549995E+02  0.81892E+04
 0.46599998E+02  0.11552E+05
 0.46649998E+02  0.10396E+05
 0.46699997E+02  0.64732E+04
 0.46749996E+02  0.49522E+04
 0.46799995E+02  0.49721E+04
 0.46849998E+02  0.50645E+04
 0.46899998E+02  0.33772E+04
 0.46949997E+02  0.31792E+04
 0.46999996E+02  0.60218E+04
 0.47049995E+02  0.75966E+04
 0.47099998E+02  0.92103E+04
 0.47149998E+02  0.96102E+04
 0.47199997E+02  0.82685E+04
 0.47249996E+02  0.62928E+04
 0.47299995E+02  0.60335E+04
 0.47349998E+02  0.65868E+04
 0.47399998E+02  0.58758E+04
 0.47449997E+02  0.44018E+04
 0.47499996E+02  0.28891E+04
 0.47549995E+02  0.30990E+04
 0.47599998E+02  0.46077E+04
 0.47649998E+02  0.63783E+04
 0.47699997E+02  0.71194E+04
 0.47749996E+02  0.92216E+04
 0.47799995E+02  0.10413E+05
 0.47849998E+02  0.77291E+04
 0.47899998E+02  0.68038E+04
 0.47949997E+02  0.73016E+04
 0.47999996E+02  0.71497E+04
 0.48049995E+02  0.79095E+04
 0.48099998E+02  0.83821E+04
 0.48149998E+02  0.81448E+04
 0.48199997E+02  0.79058E+04
 0.48249996E+02  0.79796E+04
 0.48299995E+02  0.79021E+04
 0.48349998E+02  0.72798E+04
 0.48399998E+02  0.67693E+04
 0.48449997E+02  0.51028E+04
 0.48499996E+02  0.30653E+04
 0.48549995E+02  0.47169E+04
 0.48599998E+02  0.66814E+04
 0.48649998E+02  0.52462E+04
 0.48699997E+02  0.50340E+04
 0.48749996E+02  0.58077E+04
 0.48799995E+02  0.63645E+04
 0.48849998E+02  0.79091E+04
 0.48899998E+02  0.79173E+04
 0.48949997E+02  0.63788E+04
 0.48999996E+02  0.51905E+04
 0.49049995E+02  0.46372E+04
 0.49099998E+02  0.54266E+04
 0.49149998E+02  0.79154E+04
 0.49199997E+02  0.90199E+04
 0.49249996E+02  0.83822E+04
 0.49299995E+02  0.70037E+04
 0.49349998E+02  0.62851E+04
 0.49399998E+02  0.60853E+04
 0.49449997E+02  0.62456E+04
 0.49499996E+02  0.69203E+04
 0.49549995E+02  0.69076E+04
 0.49599998E+02  0.81189E+04
 0.49649998E+02  0.84070E+04
 0.49699997E+02  0.78369E+04
 0.49749996E+02  0.69314E+04
 0.49799995E+02  0.66195E+04
 0.49849998E+02  0.71378E+04
 0.49899998E+02  0.72311E+04
 0.49949997E+02  0.62157E+04
 0.49999996E+02  0.56941E+04
 0.50049995E+02  0.67911E+04
 0.50099998E+02  0.71783E+04
 0.50149998E+02  0.73604E+04
 0.50199997E+02  0.74429E+04
 0.50249996E+02  0.74843E+04
 0.50299995E+02  0.79958E+04
 0.50349998E+02  0.88215E+04
 0.50399998E+02  0.87850E+04
 0.50449997E+02  0.72135E+04
 0.50499996E+02  0.64320E+04
 0.50549995E+02  0.73915E+04
 0.50599998E+02  0.75734E+04
 0.50649998E+02  0.75201E+04
 0.50699997E+02  0.71975E+04
 0.50749996E+02  0.78236E+04
 0.50799995E+02  0.93151E+04
 0.50849998E+02  0.94459E+04
 0.50899998E+02  0.85128E+04
 0.50949997E+02  0.75557E+04
 0.50999996E+02  0.69634E+04
 0.51049995E+02  0.61327E+04
 0.51099998E+02  0.61382E+04
 0.51149998E+02  0.56837E+04
 0.51199997E+02  0.51741E+04
 0.51249996E+02  0.57864E+04
 0.51299995E+02  0.58644E+04
 0.51349998E+02  0.59398E+04
 0.51399998E+02  0.62399E+04
 0.51449997E+02  0.65670E+04
 0.51499996E+02  0.68145E+04
 0.51549995E+02  0.61342E+04
 0.51599998E+02  0.67387E+04
 0.51649998E+02  0.83181E+04
 0.51699997E+02  0.87050E+04
 0.51749996E+02  0.83206E+04
 0.51799995E+02  0.81578E+04
 0.51849998E+02  0.83665E+04
 0.51899998E+02  0.75855E+04
 0.51949997E+02  0.70802E+04
 0.51999996E+02  0.64576E+04
 0.52049995E+02  0.69183E+04
 0.52099998E+02  0.78217E+04
 0.52149998E+02  0.71353E+04
 0.52199997E+02  0.68349E+04
 0.52249996E+02  0.63007E+04
 0.52299995E+02  0.62680E+04
 0.52349998E+02  0.62241E+04
 0.52399998E+02  0.55280E+04
 0.52449997E+02  0.62025E+04
 0.52499996E+02  0.68367E+04
 0.52549995E+02  0.62710E+04
 0.52599998E+02  0.65133E+04
 0.52649998E+02  0.68230E+04
 0.52699997E+02  0.63210E+04
 0.52749996E+02  0.67078E+04
 0.52799995E+02  0.78096E+04
 0.52849998E+02  0.75350E+04
 0.52899998E+02  0.65829E+04
 0.52949997E+02  0.64932E+04
 0.52999996E+02  0.61224E+04
 0.53049995E+02  0.62528E+04
 0.53099998E+02  0.68944E+04
 0.53149998E+02  0.81311E+04
 0.53199997E+02  0.85099E+04
 0.53249996E+02  0.75641E+04
 0.53299995E+02  0.69713E+04
 0.53349998E+02  0.58907E+04
 0.53399998E+02  0.58249E+04
 0.53449997E+02  0.66691E+04
 0.53499996E+02  0.70891E+04
 0.53549995E+02  0.70212E+04
 0.53599998E+02  0.65596E+04
 0.53649998E+02  0.61967E+04
 0.53699997E+02  0.62117E+04
 0.53749996E+02  0.69090E+04
 0.53799995E+02  0.68506E+04
 0.53849998E+02  0.67066E+04
 0.53899998E+02  0.76425E+04
 0.53949997E+02  0.80859E+04
 0.53999996E+02  0.78675E+04
 0.54049995E+02  0.67977E+04
 0.54099998E+02  0.67454E+04
 0.54149998E+02  0.76038E+04
 0.54199997E+02  0.72919E+04
 0.54249996E+02  0.64826E+04
 0.54299995E+02  0.56896E+04
 0.54349998E+02  0.51570E+04
 0.54399998E+02  0.57131E+04
 0.54449997E+02  0.69229E+04
 0.54499996E+02  0.80812E+04
 0.54549995E+02  0.91568E+04
 0.54599998E+02  0.89092E+04
 0.54649998E+02  0.79241E+04
 0.54699997E+02  0.70224E+04
 0.54749996E+02  0.63811E+04
 0.54799995E+02  0.62454E+04
 0.54849998E+02  0.64799E+04
 0.54899998E+02  0.66248E+04
 0.54949997E+02  0.70085E+04
 0.54999996E+02  0.75715E+04
 0.55049995E+02  0.79255E+04
 0.55099998E+02  0.74711E+04
 0.55149998E+02  0.70621E+04
 0.55199997E+02  0.76710E+04
 0.55249996E+02  0.77761E+04
 0.55299995E+02  0.79348E+04
 0.55349998E+02  0.73764E+04
 0.55399998E+02  0.63088E+04
 0.55449997E+02  0.63031E+04
 0.55499996E+02  0.65203E+04
 0.55549995E+02  0.68227E+04
 0.55599998E+02  0.68417E+04
 0.55649998E+02  0.67132E+04
 0.55699997E+02  0.68137E+04
 0.55749996E+02  0.71839E+04
 0.55799995E+02  0.74383E+04
 0.55849995E+02  0.75675E+04
 0.55899998E+02  0.84356E+04
 0.55949997E+02  0.86407E+04
 0.55999996E+02  0.82062E+04
 0.56049995E+02  0.78091E+04
 0.56099995E+02  0.73964E+04
 0.56149998E+02  0.66673E+04
 0.56199997E+02  0.62206E+04
 0.56249996E+02  0.63169E+04
 0.56299995E+02  0.60397E+04
 0.56349995E+02  0.61445E+04
 0.56399998E+02  0.65155E+04
 0.56449997E+02  0.62900E+04
 0.56499996E+02  0.58147E+04
 0.56549995E+02  0.59263E+04
 0.56599995E+02  0.60897E+04
 0.56649998E+02  0.55724E+04
 0.56699997E+02  0.50959E+04
 0.56749996E+02  0.56085E+04
 0.56799995E+02  0.67148E+04
 0.56849995E+02  0.80224E+04
 0.56899998E+02  0.89202E+04
 0.56949997E+02  0.88609E+04
 0.56999996E+02  0.83298E+04
 0.57049995E+02  0.74642E+04
 0.57099995E+02  0.69218E+04
 0.57149998E+02  0.62529E+04
 0.57199997E+02  0.58294E+04
 0.57249996E+02  0.58429E+04
 0.57299995E+02  0.56953E+04
 0.57349995E+02  0.63908E+04
 0.57399998E+02  0.71331E+04
 0.57449997E+02  0.75337E+04
 0.57499996E+02  0.78901E+04
 0.57549995E+02  0.75658E+04
 0.57599995E+02  0.70383E+04
 0.57649998E+02  0.74987E+04
 0.57699997E+02  0.74216E+04
 0.57749996E+02  0.61992E+04
 0.57799995E+02  0.55642E+04
 0.57849995E+02  0.56951E+04
 0.57899998E+02  0.61618E+04
 0.57949997E+02  0.67823E+04
 0.57999996E+02  0.69948E+04
 0.58049995E+02  0.65495E+04
 0.58099995E+02  0.62406E+04
 0.58149998E+02  0.65679E+04
 0.58199997E+02  0.70882E+04
 0.58249996E+02  0.72049E+04
 0.58299995E+02  0.72537E+04
 0.58349995E+02  0.71093E+04
 0.58399998E+02  0.68995E+04
 0.58449997E+02  0.70139E+04
 0.58499996E+02  0.71075E+04
 0.58549995E+02  0.69793E+04
 0.58599995E+02  0.70135E+04
 0.58649998E+02  0.73686E+04
 0.58699997E+02  0.79187E+04
 0.58749996E+02  0.79368E+04
 0.58799995E+02  0.74598E+04
 0.58849995E+02  0.72729E+04
 0.58899998E+02  0.72536E+04
 0.58949997E+02  0.75512E+04
 0.58999996E+02  0.76752E+04
 0.59049995E+02  0.73462E+04
 0.59099995E+02  0.68237E+04
 0.59149998E+02  0.63132E+04
 0.59199997E+02  0.57870E+04
 0.59249996E+02  0.58258E+04
 0.59299995E+02  0.61761E+04
 0.59349995E+02  0.61143E+04
 0.59399998E+02  0.59136E+04
 0.59449997E+02  0.57256E+04
 0.59499996E+02  0.57792E+04
 0.59549995E+02  0.61526E+04
 0.59599995E+02  0.66448E+04
 0.59649998E+02  0.69225E+04
 0.59699997E+02  0.70865E+04
 0.59749996E+02  0.70189E+04
 0.59799995E+02  0.71649E+04
 0.59849995E+02  0.74826E+04
 0.59899998E+02  0.76429E+04
 0.59949997E+02  0.76055E+04
 0.59999996E+02  0.76189E+04
 0.60049995E+02  0.78564E+04
 0.60099995E+02  0.79148E+04
 0.60149998E+02  0.76122E+04
 0.60199997E+02  0.72259E+04
 0.60249996E+02  0.71975E+04
 0.60299995E+02  0.67999E+04
 0.60349995E+02  0.63574E+04
 0.60399998E+02  0.58246E+04
 0.60449997E+02  0.57028E+04
 0.60499996E+02  0.62913E+04
 0.60549995E+02  0.68725E+04
 0.60599995E+02  0.72672E+04
 0.60649998E+02  0.76618E+04
 0.60699997E+02  0.78635E+04
 0.60749996E+02  0.74981E+04
 0.60799995E+02  0.69517E+04
 0.60849995E+02  0.65545E+04
 0.60899998E+02  0.65962E+04
 0.60949997E+02  0.64303E+04
 0.60999996E+02  0.62523E+04
 0.61049995E+02  0.65253E+04
 0.61099995E+02  0.67584E+04
 0.61149998E+02  0.69790E+04
 0.61199997E+02  0.75301E+04
 0.61249996E+02  0.77902E+04
 0.61299995E+02  0.76509E+04
 0.61349995E+02  0.76104E+04
 0.61399998E+02  0.73543E+04
 0.61449997E+02  0.68252E+04
 0.61499996E+02  0.67028E+04
 0.61549995E+02  0.65737E+04
 0.61599995E+02  0.65397E+04
 0.61649998E+02  0.70176E+04
 0.61699997E+02  0.69336E+04
 0.61749996E+02  0.64654E+04
 0.61799995E+02  0.63410E+04
 0.61849995E+02  0.66891E+04
 0.61899998E+02  0.71727E+04
 0.61949997E+02  0.76754E+04
 0.61999996E+02  0.81226E+04
 0.62049995E+02  0.82632E+04
 0.62099998E+02  0.82202E+04
 0.62149994E+02  0.77470E+04
 0.62199997E+02  0.73745E+04
 0.62249992E+02  0.71190E+04
 0.62299995E+02  0.68845E+04
 0.62349998E+02  0.69029E+04
 0.62399994E+02  0.68644E+04
 0.62449997E+02  0.69938E+04
 0.62499992E+02  0.69255E+04
 0.62549995E+02  0.65401E+04
 0.62599998E+02  0.61665E+04
 0.62649994E+02  0.60024E+04
 0.62699997E+02  0.62706E+04
 0.62749992E+02  0.64596E+04
 0.62799995E+02  0.64039E+04
 0.62849998E+02  0.66334E+04
 0.62899994E+02  0.67062E+04
 0.62949997E+02  0.64647E+04
 0.62999992E+02  0.65285E+04
 0.63049995E+02  0.65120E+04
 0.63099998E+02  0.64431E+04
 0.63149994E+02  0.67146E+04
 0.63199997E+02  0.67865E+04
 0.63249992E+02  0.67992E+04
 0.63299995E+02  0.67407E+04
 0.63349998E+02  0.65462E+04
 0.63399994E+02  0.66697E+04
 0.63449997E+02  0.67835E+04
 0.63499992E+02  0.68123E+04
 0.63549995E+02  0.66675E+04
 0.63599998E+02  0.64675E+04
 0.63649994E+02  0.65214E+04
 0.63699997E+02  0.69040E+04
 0.63749992E+02  0.70722E+04
 0.63799995E+02  0.72415E+04
 0.63849998E+02  0.75962E+04
 0.63899994E+02  0.75205E+04
 0.63949997E+02  0.73735E+04
 0.63999992E+02  0.73766E+04
 0.64049995E+02  0.72884E+04
 0.64099998E+02  0.69318E+04
 0.64149994E+02  0.68232E+04
 0.64199997E+02  0.69320E+04
 0.64249992E+02  0.70473E+04
 0.64299995E+02  0.70715E+04
 0.64349998E+02  0.67227E+04
 0.64399994E+02  0.63107E+04
 0.64449997E+02  0.61987E+04
 0.64499992E+02  0.62319E+04
 0.64549995E+02  0.61353E+04
 0.64599998E+02  0.62760E+04
 0.64649994E+02  0.64103E+04
 0.64699997E+02  0.64146E+04
 0.64749992E+02  0.68349E+04
 0.64799995E+02  0.74542E+04
 0.64849998E+02  0.79854E+04
 0.64899994E+02  0.82678E+04
 0.64949997E+02  0.79751E+04
 0.64999992E+02  0.74444E+04
 0.65049995E+02  0.72498E+04
 0.65099998E+02  0.72424E+04
 0.65149994E+02  0.70517E+04
 0.65199997E+02  0.65900E+04
 0.65249992E+02  0.63684E+04
 0.65299995E+02  0.65316E+04
 0.65349998E+02  0.67949E+04
 0.65399994E+02  0.69967E+04
 0.65449997E+02  0.71938E+04
 0.65499992E+02  0.74177E+04
 0.65549995E+02  0.76814E+04
 0.65599998E+02  0.79402E+04
 0.65649994E+02  0.77590E+04
 0.65699997E+02  0.76654E+04
 0.65749992E+02  0.75636E+04
 0.65799995E+02  0.73828E+04
 0.65849998E+02  0.74656E+04
 0.65899994E+02  0.72570E+04
 0.65949997E+02  0.67431E+04
 0.65999992E+02  0.63815E+04
 0.66049995E+02  0.64101E+04
 0.66099998E+02  0.67687E+04
 0.66149994E+02  0.68228E+04
 0.66199997E+02  0.64201E+04
 0.66249992E+02  0.63112E+04
 0.66299995E+02  0.63776E+04
 0.66349998E+02  0.63198E+04
 0.66399994E+02  0.63708E+04
 0.66449997E+02  0.65646E+04
 0.66499992E+02  0.64749E+04
 0.66549995E+02  0.61684E+04
 0.66599998E+02  0.61992E+04
 0.66649994E+02  0.63455E+04
 0.66699997E+02  0.65360E+04
 0.66749992E+02  0.68492E+04
 0.66799995E+02  0.70766E+04
 0.66849998E+02  0.70802E+04
 0.66899994E+02  0.68689E+04
 0.66949997E+02  0.68373E+04
 0.66999992E+02  0.69090E+04
 0.67049995E+02  0.71594E+04
 0.67099998E+02  0.73450E+04
 0.67149994E+02  0.74659E+04
 0.67199997E+02  0.76610E+04
 0.67249992E+02  0.77536E+04
 0.67299995E+02  0.76636E+04
 0.67349998E+02  0.72849E+04
 0.67399994E+02  0.69700E+04
 0.67449997E+02  0.69206E+04
 0.67499992E+02  0.71410E+04
 0.67549995E+02  0.73217E+04
 0.67599998E+02  0.73847E+04
 0.67649994E+02  0.72980E+04
 0.67699997E+02  0.72289E+04
 0.67749992E+02  0.70552E+04
 0.67799995E+02  0.68678E+04
 0.67849998E+02  0.68093E+04
 0.67899994E+02  0.67284E+04
 0.67949997E+02  0.67794E+04
 0.67999992E+02  0.66888E+04
 0.68049995E+02  0.65068E+04
 0.68099998E+02  0.64061E+04
 0.68149994E+02  0.62539E+04
 0.68199997E+02  0.61941E+04
 0.68249992E+02  0.63140E+04
 0.68299995E+02  0.66143E+04
 0.68349998E+02  0.68134E+04
 0.68399994E+02  0.67278E+04
 0.68449997E+02  0.68714E+04
 0.68499992E+02  0.70299E+04
 0.68549995E+02  0.72689E+04
 0.68599998E+02  0.77223E+04
 0.68649994E+02  0.79871E+04
 0.68699997E+02  0.80378E+04
 0.68749992E+02  0.79690E+04
 0.68799995E+02  0.78588E+04
 0.68849998E+02  0.75473E+04
 0.68899994E+02  0.73500E+04
 0.68949997E+02  0.70575E+04
 0.68999992E+02  0.66406E+04
 0.69049995E+02  0.64765E+04
 0.69099998E+02  0.62030E+04
 0.69149994E+02  0.58983E+04
 0.69199997E+02  0.58248E+04
 0.69249992E+02  0.58946E+04
 0.69299995E+02  0.61335E+04
 0.69349998E+02  0.65732E+04
 0.69399994E+02  0.69882E+04
 0.69449997E+02  0.72510E+04
 0.69499992E+02  0.73625E+04
 0.69549995E+02  0.75096E+04
 0.69599998E+02  0.73949E+04
 0.69649994E+02  0.70882E+04
 0.69699997E+02  0.70069E+04
 0.69749992E+02  0.68251E+04
 0.69799995E+02  0.65816E+04
 0.69849998E+02  0.62876E+04
 0.69899994E+02  0.62279E+04
 0.69949997E+02  0.65123E+04
 0.69999992E+02  0.67527E+04
 0.70049995E+02  0.67829E+04
 0.70099998E+02  0.68556E+04
 0.70149994E+02  0.71362E+04
 0.70199997E+02  0.71549E+04
 0.70249992E+02  0.68556E+04
 0.70299995E+02  0.64463E+04
 0.70349998E+02  0.62338E+04
 0.70399994E+02  0.63063E+04
 0.70449997E+02  0.66002E+04
 0.70499992E+02  0.69585E+04
 0.70549995E+02  0.72859E+04
 0.70599998E+02  0.74573E+04
 0.70649994E+02  0.73973E+04
 0.70699997E+02  0.74103E+04
 0.70749992E+02  0.74904E+04
 0.70799995E+02  0.76028E+04
 0.70849998E+02  0.75142E+04
 0.70899994E+02  0.72072E+04
 0.70949997E+02  0.69982E+04
 0.70999992E+02  0.69209E+04
 0.71049995E+02  0.69478E+04
 0.71099998E+02  0.69458E+04
 0.71149994E+02  0.67438E+04
 0.71199997E+02  0.66235E+04
 0.71249992E+02  0.67453E+04
 0.71299995E+02  0.69539E+04
 0.71349998E+02  0.71565E+04
 0.71399994E+02  0.72146E+04
 0.71449997E+02  0.73257E+04
 0.71499992E+02  0.73737E+04
 0.71549995E+02  0.72514E+04
 0.71599998E+02  0.71003E+04
 0.71649994E+02  0.70203E+04
 0.71699997E+02  0.70311E+04
 0.71749992E+02  0.68680E+04
 0.71799995E+02  0.67785E+04
 0.71849998E+02  0.68001E+04
 0.71899994E+02  0.66655E+04
 0.71949997E+02  0.65833E+04
 0.71999992E+02  0.65506E+04
 0.72049995E+02  0.65498E+04
 0.72099998E+02  0.65743E+04
 0.72149994E+02  0.66151E+04
 0.72199997E+02  0.67916E+04
 0.72249992E+02  0.69487E+04
 0.72299995E+02  0.69400E+04
 0.72349998E+02  0.68357E+04
 0.72399994E+02  0.68555E+04
 0.72449997E+02  0.69412E+04
 0.72499992E+02  0.69033E+04
 0.72549995E+02  0.68331E+04
 0.72599998E+02  0.68364E+04
 0.72649994E+02  0.68326E+04
 0.72699997E+02  0.68825E+04
 0.72749992E+02  0.70484E+04
 0.72799995E+02  0.72580E+04
 0.72849998E+02  0.74436E+04
 0.72899994E+02  0.74595E+04
 0.72949997E+02  0.73315E+04
 0.72999992E+02  0.71852E+04
 0.73049995E+02  0.71165E+04
 0.73099998E+02  0.70478E+04
 0.73149994E+02  0.71674E+04
 0.73199997E+02  0.73725E+04
 0.73249992E+02  0.74625E+04
 0.73299995E+02  0.75491E+04
 0.73349998E+02  0.74024E+04
 0.73399994E+02  0.72264E+04
 0.73449997E+02  0.71894E+04
 0.73499992E+02  0.71996E+04
 0.73549995E+02  0.72046E+04
 0.73599998E+02  0.71758E+04
 0.73649994E+02  0.70992E+04
 0.73699997E+02  0.69702E+04
 0.73749992E+02  0.69539E+04
 0.73799995E+02  0.69220E+04
 0.73849998E+02  0.69698E+04
 0.73899994E+02  0.69992E+04
 0.73949997E+02  0.68691E+04
 0.73999992E+02  0.67115E+04
 0.74049995E+02  0.65927E+04
 0.74099998E+02  0.66268E+04
 0.74149994E+02  0.66247E+04
 0.74199997E+02  0.65754E+04
 0.74249992E+02  0.64403E+04
 0.74299995E+02  0.63836E+04
 0.74349998E+02  0.63549E+04
 0.74399994E+02  0.63820E+04
 0.74449997E+02  0.63877E+04
 0.74499992E+02  0.62760E+04
 0.74549995E+02  0.63158E+04
 0.74599998E+02  0.63075E+04
 0.74649994E+02  0.62429E+04
 0.74699997E+02  0.62511E+04
 0.74749992E+02  0.64003E+04
 0.74799995E+02  0.66265E+04
 0.74849998E+02  0.68189E+04
 0.74899994E+02  0.68895E+04
 0.74949997E+02  0.68644E+04
 0.74999992E+02  0.69012E+04
 0.75049995E+02  0.69495E+04
 0.75099998E+02  0.70112E+04
 0.75149994E+02  0.70911E+04
 0.75199997E+02  0.71094E+04
 0.75249992E+02  0.71001E+04
 0.75299995E+02  0.71782E+04
 0.75349998E+02  0.73666E+04
 0.75399994E+02  0.74507E+04
 0.75449997E+02  0.73878E+04
 0.75499992E+02  0.72818E+04
 0.75549995E+02  0.71411E+04
 0.75599998E+02  0.70351E+04
 0.75649994E+02  0.70533E+04
 0.75699997E+02  0.70349E+04
 0.75749992E+02  0.70380E+04
 0.75799995E+02  0.71140E+04
 0.75849998E+02  0.71134E+04
 0.75899994E+02  0.71627E+04
 0.75949997E+02  0.71748E+04
 0.75999992E+02  0.71169E+04
 0.76049995E+02  0.71212E+04
 0.76099998E+02  0.71352E+04
 0.76149994E+02  0.71377E+04
 0.76199997E+02  0.72260E+04
 0.76249992E+02  0.73210E+04
 0.76299995E+02  0.73576E+04
 0.76349998E+02  0.74782E+04
 0.76399994E+02  0.75561E+04
 0.76449997E+02  0.75711E+04
 0.76499992E+02  0.75540E+04
 0.76549995E+02  0.73785E+04
 0.76599998E+02  0.71056E+04
 0.76649994E+02  0.68372E+04
 0.76699997E+02  0.67141E+04
 0.76749992E+02  0.66746E+04
 0.76799995E+02  0.66138E+04
 0.76849998E+02  0.65634E+04
 0.76899994E+02  0.65644E+04
 0.76949997E+02  0.66352E+04
 0.76999992E+02  0.67164E+04
 0.77049995E+02  0.67496E+04
 0.77099998E+02  0.67275E+04
 0.77149994E+02  0.67764E+04
 0.77199997E+02  0.67792E+04
 0.77249992E+02  0.68012E+04
 0.77299995E+02  0.68134E+04
 0.77349998E+02  0.67998E+04
 0.77399994E+02  0.67710E+04
 0.77449997E+02  0.66353E+04
 0.77499992E+02  0.66519E+04
 0.77549995E+02  0.67212E+04
 0.77599998E+02  0.68146E+04
 0.77649994E+02  0.69588E+04
 0.77699997E+02  0.70321E+04
 0.77749992E+02  0.70513E+04
 0.77799995E+02  0.70047E+04
 0.77849998E+02  0.68882E+04
 0.77899994E+02  0.68724E+04
 0.77949997E+02  0.69664E+04
 0.77999992E+02  0.69401E+04
 0.78049995E+02  0.68706E+04
 0.78099998E+02  0.67552E+04
 0.78149994E+02  0.65898E+04
 0.78199997E+02  0.64987E+04
 0.78249992E+02  0.64734E+04
 0.78299995E+02  0.65235E+04
 0.78349998E+02  0.65402E+04
 0.78399994E+02  0.66336E+04
 0.78449997E+02  0.67588E+04
 0.78499992E+02  0.68006E+04
 0.78549995E+02  0.68823E+04
 0.78599998E+02  0.69869E+04
 0.78649994E+02  0.71540E+04
 0.78699997E+02  0.73667E+04
 0.78749992E+02  0.75219E+04
 0.78799995E+02  0.75178E+04
 0.78849998E+02  0.73909E+04
 0.78899994E+02  0.71905E+04
 0.78949997E+02  0.69687E+04
 0.78999992E+02  0.68180E+04
 0.79049995E+02  0.66741E+04
 0.79099998E+02  0.65627E+04
 0.79149994E+02  0.65391E+04
 0.79199997E+02  0.65231E+04
 0.79249992E+02  0.65375E+04
 0.79299995E+02  0.66312E+04
 0.79349998E+02  0.67769E+04
 0.79399994E+02  0.69502E+04
 0.79449997E+02  0.69826E+04
 0.79499992E+02  0.69411E+04
 0.79549995E+02  0.69903E+04
 0.79599998E+02  0.69912E+04
 0.79649994E+02  0.70249E+04
 0.79699997E+02  0.70421E+04
 0.79749992E+02  0.70347E+04
 0.79799995E+02  0.70975E+04
 0.79849998E+02  0.70261E+04
 0.79899994E+02  0.68936E+04
 0.79949997E+02  0.68251E+04
 0.79999992E+02  0.68187E+04
 0.80049995E+02  0.68004E+04
 0.80099998E+02  0.67112E+04
 0.80149994E+02  0.66803E+04
 0.80199997E+02  0.67986E+04
 0.80249992E+02  0.68877E+04
 0.80299995E+02  0.68763E+04
 0.80349998E+02  0.68659E+04
 0.80399994E+02  0.69694E+04
 0.80449997E+02  0.70545E+04
 0.80499992E+02  0.71252E+04
 0.80549995E+02  0.73034E+04
 0.80599998E+02  0.73905E+04
 0.80649994E+02  0.74137E+04
 0.80699997E+02  0.73934E+04
 0.80749992E+02  0.73513E+04
 0.80799995E+02  0.73464E+04
 0.80849998E+02  0.73617E+04
 0.80899994E+02  0.72938E+04
 0.80949997E+02  0.72145E+04
 0.80999992E+02  0.71735E+04
 0.81049995E+02  0.71678E+04
 0.81099998E+02  0.71628E+04
 0.81149994E+02  0.70840E+04
 0.81199997E+02  0.69654E+04
 0.81249992E+02  0.68475E+04
 0.81299995E+02  0.68294E+04
 0.81349998E+02  0.68587E+04
 0.81399994E+02  0.69156E+04
 0.81449997E+02  0.69589E+04
 0.81499992E+02  0.69714E+04
 0.81549995E+02  0.69245E+04
 0.81599998E+02  0.68677E+04
 0.81649994E+02  0.67913E+04
 0.81699997E+02  0.67968E+04
 0.81749992E+02  0.68036E+04
 0.81799995E+02  0.67040E+04
 0.81849998E+02  0.67130E+04
 0.81899994E+02  0.67573E+04
 0.81949997E+02  0.67404E+04
 0.81999992E+02  0.66617E+04
 0.82049995E+02  0.66017E+04
 0.82099998E+02  0.66037E+04
 0.82149994E+02  0.66582E+04
 0.82199997E+02  0.67619E+04
 0.82249992E+02  0.67950E+04
 0.82299995E+02  0.67154E+04
 0.82349998E+02  0.67447E+04
 0.82399994E+02  0.68974E+04
 0.82449997E+02  0.70237E+04
 0.82499992E+02  0.70972E+04
 0.82549995E+02  0.71161E+04
 0.82599998E+02  0.71136E+04
 0.82649994E+02  0.71338E+04
 0.82699997E+02  0.71257E+04
 0.82749992E+02  0.71320E+04
 0.82799995E+02  0.71431E+04
 0.82849998E+02  0.70880E+04
 0.82899994E+02  0.70874E+04
 0.82949997E+02  0.70520E+04
 0.82999992E+02  0.69198E+04
 0.83049995E+02  0.68584E+04
 0.83099998E+02  0.69049E+04
 0.83149994E+02  0.69200E+04
 0.83199997E+02  0.69426E+04
 0.83249992E+02  0.69984E+04
 0.83299995E+02  0.69661E+04
 0.83349998E+02  0.68726E+04
 0.83399994E+02  0.67425E+04
 0.83449997E+02  0.66149E+04
 0.83499992E+02  0.64747E+04
 0.83549995E+02  0.64290E+04
 0.83599998E+02  0.65310E+04
 0.83649994E+02  0.66712E+04
 0.83699997E+02  0.68302E+04
 0.83749992E+02  0.70227E+04
 0.83799995E+02  0.71651E+04
 0.83849998E+02  0.72024E+04
 0.83899994E+02  0.71287E+04
 0.83949997E+02  0.70151E+04
 0.83999992E+02  0.69350E+04
 0.84049995E+02  0.68506E+04
 0.84099998E+02  0.68607E+04
 0.84149994E+02  0.69631E+04
 0.84199997E+02  0.70961E+04
 0.84249992E+02  0.72095E+04
 0.84299995E+02  0.72587E+04
 0.84349998E+02  0.71467E+04
 0.84399994E+02  0.69807E+04
 0.84449997E+02  0.69112E+04
 0.84499992E+02  0.69378E+04
 0.84549995E+02  0.69812E+04
 0.84599998E+02  0.69809E+04
 0.84649994E+02  0.70763E+04
 0.84699997E+02  0.71624E+04
 0.84749992E+02  0.71633E+04
 0.84799995E+02  0.71095E+04
 0.84849998E+02  0.70100E+04
 0.84899994E+02  0.68741E+04
 0.84949997E+02  0.66920E+04
 0.84999992E+02  0.65732E+04
 0.85049995E+02  0.65191E+04
 0.85099998E+02  0.65534E+04
 0.85149994E+02  0.66700E+04
 0.85199997E+02  0.67983E+04
 0.85249992E+02  0.68476E+04
 0.85299995E+02  0.67772E+04
 0.85349998E+02  0.66812E+04
 0.85399994E+02  0.67019E+04
 0.85449997E+02  0.68344E+04
 0.85499992E+02  0.69090E+04
 0.85549995E+02  0.69869E+04
 0.85599998E+02  0.70499E+04
 0.85649994E+02  0.70694E+04
 0.85699997E+02  0.70873E+04
 0.85749992E+02  0.70584E+04
 0.85799995E+02  0.70528E+04
 0.85849998E+02  0.70575E+04
 0.85899994E+02  0.70112E+04
 0.85949997E+02  0.69140E+04
 0.85999992E+02  0.68366E+04
 0.86049995E+02  0.68205E+04
 0.86099998E+02  0.68520E+04
 0.86149994E+02  0.69762E+04
 0.86199997E+02  0.70419E+04
 0.86249992E+02  0.71083E+04
 0.86299995E+02  0.72434E+04
 0.86349998E+02  0.73339E+04
 0.86399994E+02  0.73841E+04
 0.86449997E+02  0.73237E+04
 0.86499992E+02  0.71521E+04
 0.86549995E+02  0.68901E+04
 0.86599998E+02  0.66819E+04
 0.86649994E+02  0.65695E+04
 0.86699997E+02  0.65391E+04
 0.86749992E+02  0.66011E+04
 0.86799995E+02  0.67256E+04
 0.86849998E+02  0.69098E+04
 0.86899994E+02  0.70834E+04
 0.86949997E+02  0.71819E+04
 0.86999992E+02  0.71919E+04
 0.87049995E+02  0.72400E+04
 0.87099998E+02  0.72800E+04
 0.87149994E+02  0.72387E+04
 0.87199997E+02  0.71543E+04
 0.87249992E+02  0.70724E+04
 0.87299995E+02  0.70481E+04
 0.87349998E+02  0.70154E+04
 0.87399994E+02  0.69621E+04
 0.87449997E+02  0.68767E+04
 0.87499992E+02  0.68143E+04
 0.87549995E+02  0.67480E+04
 0.87599991E+02  0.67030E+04
 0.87649994E+02  0.67955E+04
 0.87699997E+02  0.69499E+04
 0.87749992E+02  0.70679E+04
 0.87799995E+02  0.70999E+04
 0.87849991E+02  0.70756E+04
 0.87899994E+02  0.70194E+04
 0.87949997E+02  0.69751E+04
 0.87999992E+02  0.68976E+04
 0.88049995E+02  0.68055E+04
 0.88099991E+02  0.67611E+04
 0.88149994E+02  0.66997E+04
 0.88199997E+02  0.66460E+04
 0.88249992E+02  0.66295E+04
 0.88299995E+02  0.66690E+04
 0.88349991E+02  0.67409E+04
 0.88399994E+02  0.67766E+04
 0.88449997E+02  0.68032E+04
 0.88499992E+02  0.67918E+04
 0.88549995E+02  0.67745E+04
 0.88599991E+02  0.67156E+04
 0.88649994E+02  0.66526E+04
 0.88699997E+02  0.67455E+04
 0.88749992E+02  0.68998E+04
 0.88799995E+02  0.69837E+04
 0.88849991E+02  0.70735E+04
 0.88899994E+02  0.71353E+04
 0.88949997E+02  0.71822E+04
 0.88999992E+02  0.72119E+04
 0.89049995E+02  0.71267E+04
 0.89099991E+02  0.70794E+04
 0.89149994E+02  0.70463E+04
 0.89199997E+02  0.70008E+04
 0.89249992E+02  0.69455E+04
 0.89299995E+02  0.68377E+04
 0.89349991E+02  0.67402E+04
 0.89399994E+02  0.67537E+04
 0.89449997E+02  0.68871E+04
 0.89499992E+02  0.69664E+04
 0.89549995E+02  0.70037E+04
 0.89599991E+02  0.69940E+04
 0.89649994E+02  0.68859E+04
 0.89699997E+02  0.68165E+04
 0.89749992E+02  0.67680E+04
 0.89799995E+02  0.67339E+04
 0.89849991E+02  0.67155E+04
 0.89899994E+02  0.67281E+04
 0.89949997E+02  0.67871E+04
 0.89999992E+02  0.68694E+04
 0.90049995E+02  0.70143E+04
 0.90099991E+02  0.71600E+04
 0.90149994E+02  0.72258E+04
 0.90199997E+02  0.72313E+04
 0.90249992E+02  0.72096E+04
 0.90299995E+02  0.71603E+04
 0.90349991E+02  0.70950E+04
 0.90399994E+02  0.70326E+04
 0.90449997E+02  0.69979E+04
 0.90499992E+02  0.70115E+04
 0.90549995E+02  0.70967E+04
 0.90599991E+02  0.71942E+04
 0.90649994E+02  0.72103E+04
 0.90699997E+02  0.71370E+04
 0.90749992E+02  0.70277E+04
 0.90799995E+02  0.68872E+04
 0.90849991E+02  0.68264E+04
 0.90899994E+02  0.68403E+04
 0.90949997E+02  0.68795E+04
 0.90999992E+02  0.70232E+04
 0.91049995E+02  0.71736E+04
 0.91099991E+02  0.72972E+04
 0.91149994E+02  0.73518E+04
 0.91199997E+02  0.72575E+04
 0.91249992E+02  0.71340E+04
 0.91299995E+02  0.70597E+04
 0.91349991E+02  0.70076E+04
 0.91399994E+02  0.69204E+04
 0.91449997E+02  0.68126E+04
 0.91499992E+02  0.67343E+04
 0.91549995E+02  0.66353E+04
 0.91599991E+02  0.65591E+04
 0.91649994E+02  0.65724E+04
 0.91699997E+02  0.65672E+04
 0.91749992E+02  0.65985E+04
 0.91799995E+02  0.67159E+04
 0.91849991E+02  0.68454E+04
 0.91899994E+02  0.69791E+04
 0.91949997E+02  0.70110E+04
 0.91999992E+02  0.70515E+04
 0.92049995E+02  0.70387E+04
 0.92099991E+02  0.69294E+04
 0.92149994E+02  0.68920E+04
 0.92199997E+02  0.68645E+04
 0.92249992E+02  0.68520E+04
 0.92299995E+02  0.68488E+04
 0.92349991E+02  0.68611E+04
 0.92399994E+02  0.68914E+04
 0.92449997E+02  0.69125E+04
 0.92499992E+02  0.69174E+04
 0.92549995E+02  0.68851E+04
 0.92599991E+02  0.68317E+04
 0.92649994E+02  0.68616E+04
 0.92699997E+02  0.69119E+04
 0.92749992E+02  0.68941E+04
 0.92799995E+02  0.68275E+04
 0.92849991E+02  0.67852E+04
 0.92899994E+02  0.68546E+04
 0.92949997E+02  0.69113E+04
 0.92999992E+02  0.69423E+04
 0.93049995E+02  0.69967E+04
 0.93099991E+02  0.71083E+04
 0.93149994E+02  0.72153E+04
 0.93199997E+02  0.72761E+04
 0.93249992E+02  0.72146E+04
 0.93299995E+02  0.70494E+04
 0.93349991E+02  0.69291E+04
 0.93399994E+02  0.68350E+04
 0.93449997E+02  0.67738E+04
 0.93499992E+02  0.66975E+04
 0.93549995E+02  0.66430E+04
 0.93599991E+02  0.66496E+04
 0.93649994E+02  0.67242E+04
 0.93699997E+02  0.68279E+04
 0.93749992E+02  0.68999E+04
 0.93799995E+02  0.69511E+04
 0.93849991E+02  0.69113E+04
 0.93899994E+02  0.68520E+04
 0.93949997E+02  0.68521E+04
 0.93999992E+02  0.68407E+04
 0.94049995E+02  0.68738E+04
 0.94099991E+02  0.69544E+04
 0.94149994E+02  0.69308E+04
 0.94199997E+02  0.68920E+04
 0.94249992E+02  0.68966E+04
 0.94299995E+02  0.68565E+04
 0.94349991E+02  0.67992E+04
 0.94399994E+02  0.67733E+04
 0.94449997E+02  0.67985E+04
 0.94499992E+02  0.68715E+04
 0.94549995E+02  0.69664E+04
 0.94599991E+02  0.70199E+04
 0.94649994E+02  0.70472E+04
 0.94699997E+02  0.70495E+04
 0.94749992E+02  0.69974E+04
 0.94799995E+02  0.69312E+04
 0.94849991E+02  0.68957E+04
 0.94899994E+02  0.68504E+04
 0.94949997E+02  0.68311E+04
 0.94999992E+02  0.68595E+04
 0.95049995E+02  0.68910E+04
 0.95099991E+02  0.69066E+04
 0.95149994E+02  0.69058E+04
 0.95199997E+02  0.69414E+04
 0.95249992E+02  0.69905E+04
 0.95299995E+02  0.69664E+04
 0.95349991E+02  0.68842E+04
 0.95399994E+02  0.68074E+04
 0.95449997E+02  0.67319E+04
 0.95499992E+02  0.66899E+04
 0.95549995E+02  0.67138E+04
 0.95599991E+02  0.67745E+04
 0.95649994E+02  0.68479E+04
 0.95699997E+02  0.69390E+04
 0.95749992E+02  0.70409E+04
 0.95799995E+02  0.71085E+04
 0.95849991E+02  0.70814E+04
 0.95899994E+02  0.70551E+04
 0.95949997E+02  0.71107E+04
 0.95999992E+02  0.71749E+04
 0.96049995E+02  0.71664E+04
 0.96099991E+02  0.70449E+04
 0.96149994E+02  0.69327E+04
 0.96199997E+02  0.68807E+04
 0.96249992E+02  0.68264E+04
 0.96299995E+02  0.67921E+04
 0.96349991E+02  0.67774E+04
 0.96399994E+02  0.67826E+04
 0.96449997E+02  0.68364E+04
 0.96499992E+02  0.68949E+04
 0.96549995E+02  0.69545E+04
 0.96599991E+02  0.70304E+04
 0.96649994E+02  0.70943E+04
 0.96699997E+02  0.71066E+04
 0.96749992E+02  0.70118E+04
 0.96799995E+02  0.69127E+04
 0.96849991E+02  0.68691E+04
 0.96899994E+02  0.69190E+04
 0.96949997E+02  0.70510E+04
 0.96999992E+02  0.71117E+04
 0.97049995E+02  0.71320E+04
 0.97099991E+02  0.71773E+04
 0.97149994E+02  0.71988E+04
 0.97199997E+02  0.72012E+04
 0.97249992E+02  0.71855E+04
 0.97299995E+02  0.71877E+04
 0.97349991E+02  0.72432E+04
 0.97399994E+02  0.73011E+04
 0.97449997E+02  0.73317E+04
 0.97499992E+02  0.72996E+04
 0.97549995E+02  0.72148E+04
 0.97599991E+02  0.71470E+04
 0.97649994E+02  0.70923E+04
 0.97699997E+02  0.70135E+04
 0.97749992E+02  0.68911E+04
 0.97799995E+02  0.67889E+04
 0.97849991E+02  0.67771E+04
 0.97899994E+02  0.67761E+04
 0.97949997E+02  0.67861E+04
 0.97999992E+02  0.68258E+04
