-0.20000000E+01 -0.26728E+05
-0.19500000E+01 -0.26593E+05
-0.19000000E+01 -0.26718E+05
-0.18500000E+01 -0.26730E+05
-0.18000000E+01 -0.26738E+05
-0.17500000E+01 -0.26742E+05
-0.17000000E+01 -0.26746E+05
-0.16500001E+01 -0.26748E+05
-0.16000000E+01 -0.26749E+05
-0.15500000E+01 -0.26750E+05
-0.15000000E+01 -0.26755E+05
-0.14500000E+01 -0.26760E+05
-0.14000001E+01 -0.26762E+05
-0.13500000E+01 -0.26762E+05
-0.13000001E+01 -0.26761E+05
-0.12500000E+01 -0.26757E+05
-0.12000000E+01 -0.26751E+05
-0.11500001E+01 -0.26752E+05
-0.11000000E+01 -0.26748E+05
-0.10500001E+01 -0.26748E+05
-0.10000000E+01 -0.26754E+05
-0.95000005E+00 -0.26759E+05
-0.90000010E+00 -0.26761E+05
-0.85000002E+00 -0.26761E+05
-0.80000007E+00 -0.26765E+05
-0.75000012E+00 -0.26767E+05
-0.70000005E+00 -0.26768E+05
-0.65000010E+00 -0.26767E+05
-0.60000014E+00 -0.26760E+05
-0.55000007E+00 -0.26755E+05
-0.50000012E+00 -0.26752E+05
-0.45000005E+00 -0.26749E+05
-0.40000010E+00 -0.26742E+05
-0.35000014E+00 -0.26734E+05
-0.30000007E+00 -0.26729E+05
-0.25000012E+00 -0.26726E+05
-0.20000005E+00 -0.26718E+05
-0.15000010E+00 -0.26709E+05
-0.10000014E+00 -0.26703E+05
-0.50000072E-01 -0.26696E+05
-0.11920929E-06 -0.26693E+05
 0.49999952E-01 -0.26689E+05
 0.99999905E-01 -0.26685E+05
 0.14999986E+00 -0.26685E+05
 0.19999981E+00 -0.26688E+05
 0.24999976E+00 -0.26697E+05
 0.29999995E+00 -0.26704E+05
 0.34999990E+00 -0.26702E+05
 0.39999986E+00 -0.26701E+05
 0.44999981E+00 -0.26700E+05
 0.49999976E+00 -0.26702E+05
 0.54999995E+00 -0.26709E+05
 0.59999990E+00 -0.26718E+05
 0.64999986E+00 -0.26724E+05
 0.69999981E+00 -0.26727E+05
 0.74999976E+00 -0.26736E+05
 0.79999971E+00 -0.26740E+05
 0.84999990E+00 -0.26737E+05
 0.89999986E+00 -0.26735E+05
 0.94999981E+00 -0.26734E+05
 0.99999976E+00 -0.26737E+05
 0.10499997E+01 -0.26734E+05
 0.10999999E+01 -0.26731E+05
 0.11499999E+01 -0.26731E+05
 0.11999998E+01 -0.26733E+05
 0.12499998E+01 -0.26734E+05
 0.12999997E+01 -0.26735E+05
 0.13499999E+01 -0.26741E+05
 0.13999999E+01 -0.26747E+05
 0.14499998E+01 -0.26749E+05
 0.14999998E+01 -0.26757E+05
 0.15499997E+01 -0.26761E+05
 0.15999999E+01 -0.26754E+05
 0.16499999E+01 -0.26752E+05
 0.16999998E+01 -0.26753E+05
 0.17499998E+01 -0.26752E+05
 0.17999997E+01 -0.26752E+05
 0.18499997E+01 -0.26757E+05
 0.18999999E+01 -0.26757E+05
 0.19499998E+01 -0.26760E+05
 0.19999998E+01 -0.26765E+05
 0.20499997E+01 -0.26770E+05
 0.20999999E+01 -0.26768E+05
 0.21499996E+01 -0.26759E+05
 0.21999998E+01 -0.26757E+05
 0.22499995E+01 -0.26750E+05
 0.22999997E+01 -0.26748E+05
 0.23499999E+01 -0.26746E+05
 0.23999996E+01 -0.26741E+05
 0.24499998E+01 -0.26735E+05
 0.24999995E+01 -0.26731E+05
 0.25499997E+01 -0.26732E+05
 0.25999999E+01 -0.26734E+05
 0.26499996E+01 -0.26733E+05
 0.26999998E+01 -0.26733E+05
 0.27499995E+01 -0.26733E+05
 0.27999997E+01 -0.26734E+05
 0.28499999E+01 -0.26737E+05
 0.28999996E+01 -0.26736E+05
 0.29499998E+01 -0.26740E+05
 0.29999995E+01 -0.26743E+05
 0.30499997E+01 -0.26746E+05
 0.30999999E+01 -0.26742E+05
 0.31499996E+01 -0.26738E+05
 0.31999998E+01 -0.26733E+05
 0.32499995E+01 -0.26732E+05
 0.32999997E+01 -0.26735E+05
 0.33499999E+01 -0.26737E+05
 0.33999996E+01 -0.26743E+05
 0.34499998E+01 -0.26748E+05
 0.34999995E+01 -0.26748E+05
 0.35499997E+01 -0.26742E+05
 0.35999994E+01 -0.26740E+05
 0.36499996E+01 -0.26735E+05
 0.36999998E+01 -0.26729E+05
 0.37499995E+01 -0.26726E+05
 0.37999997E+01 -0.26724E+05
 0.38499994E+01 -0.26725E+05
 0.38999996E+01 -0.26724E+05
 0.39499998E+01 -0.26725E+05
 0.39999995E+01 -0.26722E+05
 0.40499997E+01 -0.26726E+05
 0.40999994E+01 -0.26727E+05
 0.41499996E+01 -0.26727E+05
 0.41999998E+01 -0.26732E+05
 0.42499995E+01 -0.26736E+05
 0.42999997E+01 -0.26739E+05
 0.43499994E+01 -0.26737E+05
 0.43999996E+01 -0.26734E+05
 0.44499998E+01 -0.26728E+05
 0.44999995E+01 -0.26729E+05
 0.45499997E+01 -0.26728E+05
 0.45999994E+01 -0.26727E+05
 0.46499996E+01 -0.26727E+05
 0.46999998E+01 -0.26728E+05
 0.47499995E+01 -0.26728E+05
 0.47999997E+01 -0.26728E+05
 0.48499994E+01 -0.26730E+05
 0.48999996E+01 -0.26732E+05
 0.49499998E+01 -0.26740E+05
 0.49999995E+01 -0.26748E+05
 0.50499997E+01 -0.26757E+05
 0.50999994E+01 -0.26762E+05
 0.51499996E+01 -0.26769E+05
 0.51999998E+01 -0.26772E+05
 0.52499995E+01 -0.26772E+05
 0.52999997E+01 -0.26773E+05
 0.53499994E+01 -0.26774E+05
 0.53999996E+01 -0.26776E+05
 0.54499993E+01 -0.26773E+05
 0.54999995E+01 -0.26769E+05
 0.55499997E+01 -0.26762E+05
 0.55999994E+01 -0.26759E+05
 0.56499996E+01 -0.26761E+05
 0.56999993E+01 -0.26765E+05
 0.57499995E+01 -0.26767E+05
 0.57999997E+01 -0.26770E+05
 0.58499994E+01 -0.26770E+05
 0.58999996E+01 -0.26763E+05
 0.59499993E+01 -0.26757E+05
 0.59999995E+01 -0.26755E+05
 0.60499992E+01 -0.26758E+05
 0.60999994E+01 -0.26760E+05
 0.61499996E+01 -0.26762E+05
 0.61999998E+01 -0.26766E+05
 0.62499990E+01 -0.26766E+05
 0.62999992E+01 -0.26766E+05
 0.63499994E+01 -0.26764E+05
 0.63999996E+01 -0.26757E+05
 0.64499998E+01 -0.26751E+05
 0.64999990E+01 -0.26748E+05
 0.65499992E+01 -0.26747E+05
 0.65999994E+01 -0.26745E+05
 0.66499996E+01 -0.26744E+05
 0.66999998E+01 -0.26743E+05
 0.67499990E+01 -0.26736E+05
 0.67999992E+01 -0.26735E+05
 0.68499994E+01 -0.26733E+05
 0.68999996E+01 -0.26730E+05
 0.69499998E+01 -0.26728E+05
 0.69999990E+01 -0.26729E+05
 0.70499992E+01 -0.26728E+05
 0.70999994E+01 -0.26729E+05
 0.71499996E+01 -0.26732E+05
 0.71999998E+01 -0.26732E+05
 0.72499990E+01 -0.26736E+05
 0.72999992E+01 -0.26737E+05
 0.73499994E+01 -0.26734E+05
 0.73999996E+01 -0.26732E+05
 0.74499998E+01 -0.26727E+05
 0.74999990E+01 -0.26723E+05
 0.75499992E+01 -0.26723E+05
 0.75999994E+01 -0.26721E+05
 0.76499996E+01 -0.26722E+05
 0.76999998E+01 -0.26718E+05
 0.77499990E+01 -0.26713E+05
 0.77999992E+01 -0.26712E+05
 0.78499994E+01 -0.26710E+05
 0.78999996E+01 -0.26705E+05
 0.79499998E+01 -0.26707E+05
 0.79999990E+01 -0.26710E+05
 0.80499992E+01 -0.26708E+05
 0.80999994E+01 -0.26707E+05
 0.81499996E+01 -0.26706E+05
 0.81999998E+01 -0.26713E+05
 0.82499990E+01 -0.26717E+05
 0.82999992E+01 -0.26719E+05
 0.83499994E+01 -0.26726E+05
 0.83999996E+01 -0.26731E+05
 0.84499998E+01 -0.26733E+05
 0.84999990E+01 -0.26737E+05
 0.85499992E+01 -0.26743E+05
 0.85999994E+01 -0.26749E+05
 0.86499996E+01 -0.26755E+05
 0.86999998E+01 -0.26756E+05
 0.87499990E+01 -0.26757E+05
 0.87999992E+01 -0.26757E+05
 0.88499994E+01 -0.26755E+05
 0.88999996E+01 -0.26752E+05
 0.89499998E+01 -0.26752E+05
 0.89999990E+01 -0.26750E+05
 0.90499992E+01 -0.26753E+05
 0.90999994E+01 -0.26755E+05
 0.91499996E+01 -0.26756E+05
 0.91999989E+01 -0.26760E+05
 0.92499990E+01 -0.26763E+05
 0.92999992E+01 -0.26768E+05
 0.93499994E+01 -0.26771E+05
 0.93999996E+01 -0.26772E+05
 0.94499989E+01 -0.26775E+05
 0.94999990E+01 -0.26780E+05
 0.95499992E+01 -0.26782E+05
 0.95999994E+01 -0.26784E+05
 0.96499996E+01 -0.26780E+05
 0.96999989E+01 -0.26774E+05
 0.97499990E+01 -0.26768E+05
 0.97999992E+01 -0.26761E+05
 0.98499994E+01 -0.26755E+05
 0.98999996E+01 -0.26751E+05
 0.99499989E+01 -0.26748E+05
 0.99999990E+01 -0.26745E+05
 0.10049999E+02 -0.26738E+05
 0.10099999E+02 -0.26732E+05
 0.10150000E+02 -0.26733E+05
 0.10199999E+02 -0.26730E+05
 0.10249999E+02 -0.26722E+05
 0.10299999E+02 -0.26721E+05
 0.10349999E+02 -0.26723E+05
 0.10400000E+02 -0.26725E+05
 0.10449999E+02 -0.26725E+05
 0.10499999E+02 -0.26721E+05
 0.10549999E+02 -0.26717E+05
 0.10599999E+02 -0.26713E+05
 0.10650000E+02 -0.26713E+05
 0.10699999E+02 -0.26715E+05
 0.10749999E+02 -0.26715E+05
 0.10799999E+02 -0.26716E+05
 0.10849999E+02 -0.26720E+05
 0.10900000E+02 -0.26718E+05
 0.10949999E+02 -0.26717E+05
 0.10999999E+02 -0.26720E+05
 0.11049999E+02 -0.26724E+05
 0.11099999E+02 -0.26725E+05
 0.11150000E+02 -0.26724E+05
 0.11199999E+02 -0.26725E+05
 0.11249999E+02 -0.26726E+05
 0.11299999E+02 -0.26732E+05
 0.11349999E+02 -0.26736E+05
 0.11400000E+02 -0.26742E+05
 0.11449999E+02 -0.26745E+05
 0.11499999E+02 -0.26745E+05
 0.11549999E+02 -0.26750E+05
 0.11599999E+02 -0.26752E+05
 0.11650000E+02 -0.26753E+05
 0.11699999E+02 -0.26750E+05
 0.11749999E+02 -0.26749E+05
 0.11799999E+02 -0.26751E+05
 0.11849999E+02 -0.26751E+05
 0.11900000E+02 -0.26749E+05
 0.11949999E+02 -0.26752E+05
 0.11999999E+02 -0.26755E+05
 0.12049999E+02 -0.26756E+05
 0.12099999E+02 -0.26759E+05
 0.12150000E+02 -0.26758E+05
 0.12199999E+02 -0.26753E+05
 0.12249999E+02 -0.26748E+05
 0.12299999E+02 -0.26747E+05
 0.12349999E+02 -0.26748E+05
 0.12400000E+02 -0.26748E+05
 0.12449999E+02 -0.26750E+05
 0.12499999E+02 -0.26753E+05
 0.12549999E+02 -0.26755E+05
 0.12599999E+02 -0.26759E+05
 0.12649999E+02 -0.26764E+05
 0.12699999E+02 -0.26765E+05
 0.12749999E+02 -0.26767E+05
 0.12799999E+02 -0.26788E+05
 0.12849999E+02 -0.26806E+05
 0.12899999E+02 -0.26793E+05
 0.12949999E+02 -0.26729E+05
 0.12999999E+02 -0.26699E+05
 0.13049999E+02 -0.26711E+05
 0.13099999E+02 -0.26798E+05
 0.13149999E+02 -0.26835E+05
 0.13199999E+02 -0.26918E+05
 0.13249999E+02 -0.26931E+05
 0.13299999E+02 -0.26575E+05
 0.13349999E+02 -0.26229E+05
 0.13399999E+02 -0.26579E+05
 0.13449999E+02 -0.27097E+05
 0.13499999E+02 -0.27115E+05
 0.13549999E+02 -0.26945E+05
 0.13599999E+02 -0.26585E+05
 0.13649999E+02 -0.26346E+05
 0.13699999E+02 -0.26319E+05
 0.13749999E+02 -0.26976E+05
 0.13799999E+02 -0.27156E+05
 0.13849999E+02 -0.26920E+05
 0.13899999E+02 -0.26621E+05
 0.13949999E+02 -0.26586E+05
 0.13999999E+02 -0.27017E+05
 0.14049999E+02 -0.27152E+05
 0.14099998E+02 -0.27800E+05
 0.14150000E+02 -0.26695E+05
 0.14199999E+02 -0.25805E+05
 0.14249998E+02 -0.26313E+05
 0.14299999E+02 -0.27216E+05
 0.14349998E+02 -0.26875E+05
 0.14400000E+02 -0.26307E+05
 0.14449999E+02 -0.26437E+05
 0.14499998E+02 -0.25993E+05
 0.14549999E+02 -0.26033E+05
 0.14599998E+02 -0.26746E+05
 0.14650000E+02 -0.27383E+05
 0.14699999E+02 -0.27972E+05
 0.14749998E+02 -0.27870E+05
 0.14799999E+02 -0.25663E+05
 0.14849998E+02 -0.24161E+05
 0.14900000E+02 -0.25444E+05
 0.14949999E+02 -0.28767E+05
 0.14999998E+02 -0.26979E+05
 0.15049999E+02 -0.26001E+05
 0.15099998E+02 -0.28047E+05
 0.15150000E+02 -0.29010E+05
 0.15199999E+02 -0.26655E+05
 0.15249998E+02 -0.25842E+05
 0.15299999E+02 -0.26846E+05
 0.15349998E+02 -0.24994E+05
 0.15400000E+02 -0.22437E+05
 0.15449999E+02 -0.27190E+05
 0.15499998E+02 -0.32245E+05
 0.15549999E+02 -0.27175E+05
 0.15599998E+02 -0.24405E+05
 0.15650000E+02 -0.24394E+05
 0.15699999E+02 -0.28624E+05
 0.15749998E+02 -0.25660E+05
 0.15799999E+02 -0.28905E+05
 0.15849998E+02 -0.30760E+05
 0.15900000E+02 -0.24965E+05
 0.15949999E+02 -0.23446E+05
 0.15999998E+02 -0.24255E+05
 0.16049999E+02 -0.27558E+05
 0.16099998E+02 -0.25232E+05
 0.16150000E+02 -0.30227E+05
 0.16199999E+02 -0.31250E+05
 0.16249998E+02 -0.27852E+05
 0.16299999E+02 -0.26461E+05
 0.16349998E+02 -0.25338E+05
 0.16400000E+02 -0.25607E+05
 0.16449999E+02 -0.24362E+05
 0.16499998E+02 -0.24365E+05
 0.16549999E+02 -0.26555E+05
 0.16599998E+02 -0.29321E+05
 0.16650000E+02 -0.27297E+05
 0.16699999E+02 -0.27234E+05
 0.16749998E+02 -0.27558E+05
 0.16799999E+02 -0.25112E+05
 0.16849998E+02 -0.27146E+05
 0.16900000E+02 -0.27494E+05
 0.16949999E+02 -0.25588E+05
 0.16999998E+02 -0.24563E+05
 0.17049999E+02 -0.29079E+05
 0.17099998E+02 -0.29464E+05
 0.17150000E+02 -0.22126E+05
 0.17199999E+02 -0.26182E+05
 0.17249998E+02 -0.31957E+05
 0.17299999E+02 -0.27750E+05
 0.17349998E+02 -0.23487E+05
 0.17400000E+02 -0.25264E+05
 0.17449999E+02 -0.29157E+05
 0.17499998E+02 -0.25883E+05
 0.17549999E+02 -0.24713E+05
 0.17599998E+02 -0.31939E+05
 0.17650000E+02 -0.28429E+05
 0.17699999E+02 -0.20934E+05
 0.17749998E+02 -0.25126E+05
 0.17799999E+02 -0.26715E+05
 0.17849998E+02 -0.24694E+05
 0.17900000E+02 -0.30597E+05
 0.17949999E+02 -0.34639E+05
 0.17999998E+02 -0.28992E+05
 0.18049999E+02 -0.21246E+05
 0.18099998E+02 -0.22153E+05
 0.18150000E+02 -0.25410E+05
 0.18199999E+02 -0.25055E+05
 0.18249998E+02 -0.26566E+05
 0.18299999E+02 -0.28862E+05
 0.18349998E+02 -0.26727E+05
 0.18400000E+02 -0.27266E+05
 0.18449999E+02 -0.29002E+05
 0.18499998E+02 -0.24518E+05
 0.18549999E+02 -0.22514E+05
 0.18599998E+02 -0.27967E+05
 0.18650000E+02 -0.29335E+05
 0.18699999E+02 -0.27624E+05
 0.18749998E+02 -0.27306E+05
 0.18799999E+02 -0.28704E+05
 0.18849998E+02 -0.29868E+05
 0.18900000E+02 -0.24776E+05
 0.18949999E+02 -0.22971E+05
 0.18999998E+02 -0.26710E+05
 0.19049999E+02 -0.27477E+05
 0.19099998E+02 -0.27087E+05
 0.19150000E+02 -0.31911E+05
 0.19199999E+02 -0.32618E+05
 0.19249998E+02 -0.26176E+05
 0.19299999E+02 -0.22209E+05
 0.19349998E+02 -0.25128E+05
 0.19400000E+02 -0.20729E+05
 0.19449999E+02 -0.22467E+05
 0.19499998E+02 -0.31561E+05
 0.19549999E+02 -0.32552E+05
 0.19599998E+02 -0.27235E+05
 0.19650000E+02 -0.23771E+05
 0.19699999E+02 -0.24820E+05
 0.19749998E+02 -0.24632E+05
 0.19799999E+02 -0.30403E+05
 0.19849998E+02 -0.26575E+05
 0.19900000E+02 -0.20895E+05
 0.19949999E+02 -0.25482E+05
 0.19999998E+02 -0.25579E+05
 0.20049999E+02 -0.26417E+05
 0.20099998E+02 -0.29428E+05
 0.20150000E+02 -0.33264E+05
 0.20199999E+02 -0.28386E+05
 0.20249998E+02 -0.21417E+05
 0.20299999E+02 -0.22990E+05
 0.20349998E+02 -0.23911E+05
 0.20399998E+02 -0.28510E+05
 0.20449999E+02 -0.30588E+05
 0.20499998E+02 -0.26893E+05
 0.20549999E+02 -0.20632E+05
 0.20599998E+02 -0.29606E+05
 0.20649998E+02 -0.32185E+05
 0.20699999E+02 -0.27593E+05
 0.20749998E+02 -0.30949E+05
 0.20799999E+02 -0.25834E+05
 0.20849998E+02 -0.26163E+05
 0.20899998E+02 -0.24335E+05
 0.20949999E+02 -0.23746E+05
 0.20999998E+02 -0.25111E+05
 0.21049999E+02 -0.26975E+05
 0.21099998E+02 -0.32977E+05
 0.21149998E+02 -0.30893E+05
 0.21199999E+02 -0.29470E+05
 0.21249998E+02 -0.25655E+05
 0.21299999E+02 -0.26549E+05
 0.21349998E+02 -0.31337E+05
 0.21399998E+02 -0.25181E+05
 0.21449999E+02 -0.22036E+05
 0.21499998E+02 -0.24781E+05
 0.21549999E+02 -0.29892E+05
 0.21599998E+02 -0.28663E+05
 0.21649998E+02 -0.25574E+05
 0.21699999E+02 -0.24374E+05
 0.21749998E+02 -0.20396E+05
 0.21799999E+02 -0.22403E+05
 0.21849998E+02 -0.23848E+05
 0.21899998E+02 -0.21339E+05
 0.21949999E+02 -0.22414E+05
 0.21999998E+02 -0.27054E+05
 0.22049999E+02 -0.25063E+05
 0.22099998E+02 -0.27904E+05
 0.22149998E+02 -0.32380E+05
 0.22199999E+02 -0.27237E+05
 0.22249998E+02 -0.30396E+05
 0.22299999E+02 -0.28181E+05
 0.22349998E+02 -0.27579E+05
 0.22399998E+02 -0.31198E+05
 0.22449999E+02 -0.34967E+05
 0.22499998E+02 -0.36319E+05
 0.22549999E+02 -0.26350E+05
 0.22599998E+02 -0.13097E+05
 0.22649998E+02 -0.64870E+04
 0.22699999E+02 -0.21259E+05
 0.22749998E+02 -0.27445E+05
 0.22799999E+02 -0.18319E+05
 0.22849998E+02 -0.33241E+05
 0.22899998E+02 -0.42102E+05
 0.22949999E+02 -0.30454E+05
 0.22999998E+02 -0.25322E+05
 0.23049999E+02 -0.22337E+05
 0.23099998E+02 -0.20122E+05
 0.23149998E+02 -0.17568E+05
 0.23199999E+02 -0.28812E+05
 0.23249998E+02 -0.20796E+05
 0.23299999E+02 -0.21462E+05
 0.23349998E+02 -0.34123E+05
 0.23399998E+02 -0.35971E+05
 0.23449999E+02 -0.45278E+05
 0.23499998E+02 -0.33027E+05
 0.23549999E+02 -0.24387E+05
 0.23599998E+02 -0.25325E+05
 0.23649998E+02 -0.26356E+05
 0.23699999E+02 -0.28680E+05
 0.23749998E+02 -0.29394E+05
 0.23799999E+02 -0.26992E+05
 0.23849998E+02 -0.21010E+05
 0.23899998E+02 -0.19629E+05
 0.23949999E+02 -0.28038E+05
 0.23999998E+02 -0.35912E+05
 0.24049999E+02 -0.35823E+05
 0.24099998E+02 -0.33987E+05
 0.24149998E+02 -0.29648E+05
 0.24199999E+02 -0.33205E+05
 0.24249998E+02 -0.30473E+05
 0.24299999E+02 -0.19099E+05
 0.24349998E+02 -0.17512E+05
 0.24399998E+02 -0.18515E+05
 0.24449999E+02 -0.21502E+05
 0.24499998E+02 -0.17749E+05
 0.24549999E+02 -0.33673E+05
 0.24599998E+02 -0.32993E+05
 0.24649998E+02 -0.87020E+04
 0.24699999E+02 -0.18242E+05
 0.24749998E+02 -0.32141E+05
 0.24799999E+02 -0.37546E+05
 0.24849998E+02 -0.22850E+05
 0.24899998E+02 -0.15263E+05
 0.24949999E+02 -0.31918E+05
 0.24999998E+02 -0.39443E+05
 0.25049999E+02 -0.33340E+05
 0.25099998E+02 -0.20273E+05
 0.25149998E+02 -0.21914E+05
 0.25199999E+02 -0.18029E+05
 0.25249998E+02 -0.14643E+05
 0.25299999E+02 -0.38211E+05
 0.25349998E+02 -0.42776E+05
 0.25399998E+02 -0.24405E+05
 0.25449999E+02 -0.21954E+05
 0.25499998E+02 -0.25989E+05
 0.25549999E+02 -0.27076E+05
 0.25599998E+02 -0.20283E+05
 0.25649998E+02 -0.26632E+05
 0.25699999E+02 -0.36462E+05
 0.25749998E+02 -0.34676E+05
 0.25799999E+02 -0.30065E+05
 0.25849998E+02 -0.15508E+05
 0.25899998E+02 -0.17683E+05
 0.25949999E+02 -0.25264E+05
 0.25999998E+02 -0.35538E+05
 0.26049999E+02 -0.33415E+05
 0.26099998E+02 -0.16564E+05
 0.26149998E+02 -0.21892E+05
 0.26199999E+02 -0.32989E+05
 0.26249998E+02 -0.24987E+05
 0.26299999E+02 -0.16004E+05
 0.26349998E+02 -0.19070E+05
 0.26399998E+02 -0.28148E+05
 0.26449999E+02 -0.30645E+05
 0.26499998E+02 -0.28377E+05
 0.26549999E+02 -0.34727E+05
 0.26599998E+02 -0.33239E+05
 0.26649998E+02 -0.29960E+05
 0.26699999E+02 -0.28752E+05
 0.26749998E+02 -0.21570E+05
 0.26799999E+02 -0.18811E+05
 0.26849998E+02 -0.15849E+05
 0.26899998E+02 -0.17545E+05
 0.26949999E+02 -0.22315E+05
 0.26999998E+02 -0.28439E+05
 0.27049997E+02 -0.29065E+05
 0.27099998E+02 -0.24360E+05
 0.27149998E+02 -0.28368E+05
 0.27199999E+02 -0.34599E+05
 0.27249998E+02 -0.36770E+05
 0.27299997E+02 -0.34212E+05
 0.27349998E+02 -0.33554E+05
 0.27399998E+02 -0.31108E+05
 0.27449999E+02 -0.31681E+05
 0.27499998E+02 -0.30738E+05
 0.27549997E+02 -0.26176E+05
 0.27599998E+02 -0.22585E+05
 0.27649998E+02 -0.20405E+05
 0.27699999E+02 -0.20199E+05
 0.27749998E+02 -0.25813E+05
 0.27799997E+02 -0.33752E+05
 0.27849998E+02 -0.30953E+05
 0.27899998E+02 -0.31300E+05
 0.27949999E+02 -0.28853E+05
 0.27999998E+02 -0.27821E+05
 0.28049997E+02 -0.29779E+05
 0.28099998E+02 -0.21486E+05
 0.28149998E+02 -0.17860E+05
 0.28199999E+02 -0.24245E+05
 0.28249998E+02 -0.31150E+05
 0.28299997E+02 -0.27699E+05
 0.28349998E+02 -0.27030E+05
 0.28399998E+02 -0.25576E+05
 0.28449999E+02 -0.24946E+05
 0.28499998E+02 -0.27778E+05
 0.28549997E+02 -0.27340E+05
 0.28599998E+02 -0.30602E+05
 0.28649998E+02 -0.33190E+05
 0.28699999E+02 -0.32819E+05
 0.28749998E+02 -0.32925E+05
 0.28799997E+02 -0.27470E+05
 0.28849998E+02 -0.18768E+05
 0.28899998E+02 -0.17211E+05
 0.28949999E+02 -0.23228E+05
 0.28999998E+02 -0.29991E+05
 0.29049997E+02 -0.27355E+05
 0.29099998E+02 -0.26701E+05
 0.29149998E+02 -0.25515E+05
 0.29199999E+02 -0.25563E+05
 0.29249998E+02 -0.25444E+05
 0.29299997E+02 -0.24818E+05
 0.29349998E+02 -0.26332E+05
 0.29399998E+02 -0.25995E+05
 0.29449999E+02 -0.28617E+05
 0.29499998E+02 -0.29961E+05
 0.29549997E+02 -0.28275E+05
 0.29599998E+02 -0.25554E+05
 0.29649998E+02 -0.28200E+05
 0.29699999E+02 -0.29396E+05
 0.29749998E+02 -0.27983E+05
 0.29799997E+02 -0.26579E+05
 0.29849998E+02 -0.21497E+05
 0.29899998E+02 -0.21208E+05
 0.29949999E+02 -0.27611E+05
 0.29999998E+02 -0.26456E+05
 0.30049999E+02 -0.25006E+05
 0.30099998E+02 -0.24333E+05
 0.30149998E+02 -0.19590E+05
 0.30199997E+02 -0.20506E+05
 0.30249996E+02 -0.22056E+05
 0.30299999E+02 -0.25145E+05
 0.30349998E+02 -0.31521E+05
 0.30399998E+02 -0.34930E+05
 0.30449997E+02 -0.34421E+05
 0.30499996E+02 -0.31544E+05
 0.30549999E+02 -0.30900E+05
 0.30599998E+02 -0.30967E+05
 0.30649998E+02 -0.26418E+05
 0.30699997E+02 -0.26907E+05
 0.30749996E+02 -0.25793E+05
 0.30799999E+02 -0.19280E+05
 0.30849998E+02 -0.20662E+05
 0.30899998E+02 -0.27307E+05
 0.30949997E+02 -0.30207E+05
 0.30999996E+02 -0.25635E+05
 0.31049999E+02 -0.24674E+05
 0.31099998E+02 -0.29241E+05
 0.31149998E+02 -0.28483E+05
 0.31199997E+02 -0.26772E+05
 0.31249996E+02 -0.27398E+05
 0.31299999E+02 -0.25080E+05
 0.31349998E+02 -0.25324E+05
 0.31399998E+02 -0.27248E+05
 0.31449997E+02 -0.25933E+05
 0.31499996E+02 -0.28125E+05
 0.31549999E+02 -0.32751E+05
 0.31599998E+02 -0.33438E+05
 0.31649998E+02 -0.28178E+05
 0.31699997E+02 -0.25041E+05
 0.31749996E+02 -0.24540E+05
 0.31799999E+02 -0.21168E+05
 0.31849998E+02 -0.22083E+05
 0.31899998E+02 -0.24797E+05
 0.31949997E+02 -0.24270E+05
 0.31999996E+02 -0.26576E+05
 0.32049999E+02 -0.26993E+05
 0.32099998E+02 -0.24360E+05
 0.32149998E+02 -0.23932E+05
 0.32199997E+02 -0.26668E+05
 0.32249996E+02 -0.27779E+05
 0.32299999E+02 -0.28972E+05
 0.32349998E+02 -0.29428E+05
 0.32399998E+02 -0.27161E+05
 0.32449997E+02 -0.29724E+05
 0.32499996E+02 -0.30087E+05
 0.32549999E+02 -0.27063E+05
 0.32599998E+02 -0.27592E+05
 0.32649998E+02 -0.26948E+05
 0.32699997E+02 -0.22011E+05
 0.32749996E+02 -0.21066E+05
 0.32799999E+02 -0.23516E+05
 0.32849998E+02 -0.25464E+05
 0.32899998E+02 -0.24046E+05
 0.32949997E+02 -0.23390E+05
 0.32999996E+02 -0.25021E+05
 0.33049999E+02 -0.27124E+05
 0.33099998E+02 -0.26435E+05
 0.33149998E+02 -0.25805E+05
 0.33199997E+02 -0.26114E+05
 0.33249996E+02 -0.22951E+05
 0.33299999E+02 -0.24861E+05
 0.33349998E+02 -0.28590E+05
 0.33399998E+02 -0.31781E+05
 0.33449997E+02 -0.33992E+05
 0.33499996E+02 -0.33897E+05
 0.33549999E+02 -0.32150E+05
 0.33599998E+02 -0.30358E+05
 0.33649998E+02 -0.29264E+05
 0.33699997E+02 -0.26126E+05
 0.33749996E+02 -0.22955E+05
 0.33799999E+02 -0.24750E+05
 0.33849998E+02 -0.24570E+05
 0.33899998E+02 -0.24759E+05
 0.33949997E+02 -0.25698E+05
 0.33999996E+02 -0.28261E+05
 0.34049999E+02 -0.31800E+05
 0.34099998E+02 -0.31657E+05
 0.34149998E+02 -0.29945E+05
 0.34199997E+02 -0.27349E+05
 0.34249996E+02 -0.24778E+05
 0.34299999E+02 -0.23547E+05
 0.34349998E+02 -0.24541E+05
 0.34399998E+02 -0.24364E+05
 0.34449997E+02 -0.22851E+05
 0.34499996E+02 -0.21020E+05
 0.34549999E+02 -0.25508E+05
 0.34599998E+02 -0.28020E+05
 0.34649998E+02 -0.25981E+05
 0.34699997E+02 -0.26909E+05
 0.34749996E+02 -0.26622E+05
 0.34799999E+02 -0.24537E+05
 0.34849998E+02 -0.28008E+05
 0.34899998E+02 -0.27703E+05
 0.34949997E+02 -0.25854E+05
 0.34999996E+02 -0.26225E+05
 0.35049999E+02 -0.26566E+05
 0.35099998E+02 -0.29009E+05
 0.35149998E+02 -0.28937E+05
 0.35199997E+02 -0.29308E+05
 0.35249996E+02 -0.27112E+05
 0.35299999E+02 -0.26960E+05
 0.35349998E+02 -0.25892E+05
 0.35399998E+02 -0.23835E+05
 0.35449997E+02 -0.24440E+05
 0.35499996E+02 -0.24696E+05
 0.35549999E+02 -0.23961E+05
 0.35599998E+02 -0.27481E+05
 0.35649998E+02 -0.28757E+05
 0.35699997E+02 -0.27753E+05
 0.35749996E+02 -0.29776E+05
 0.35799999E+02 -0.28216E+05
 0.35849998E+02 -0.28725E+05
 0.35899998E+02 -0.30067E+05
 0.35949997E+02 -0.32813E+05
 0.35999996E+02 -0.32081E+05
 0.36049999E+02 -0.28721E+05
 0.36099998E+02 -0.24026E+05
 0.36149998E+02 -0.22753E+05
 0.36199997E+02 -0.22799E+05
 0.36249996E+02 -0.22433E+05
 0.36299999E+02 -0.23814E+05
 0.36349998E+02 -0.23242E+05
 0.36399998E+02 -0.21135E+05
 0.36449997E+02 -0.22168E+05
 0.36499996E+02 -0.24037E+05
 0.36549999E+02 -0.24789E+05
 0.36599998E+02 -0.27977E+05
 0.36649998E+02 -0.29950E+05
 0.36699997E+02 -0.31966E+05
 0.36749996E+02 -0.31565E+05
 0.36799999E+02 -0.31068E+05
 0.36849998E+02 -0.29497E+05
 0.36899998E+02 -0.28119E+05
 0.36949997E+02 -0.25961E+05
 0.36999996E+02 -0.24161E+05
 0.37049999E+02 -0.24129E+05
 0.37099998E+02 -0.25070E+05
 0.37149998E+02 -0.25302E+05
 0.37199997E+02 -0.28110E+05
 0.37249996E+02 -0.29461E+05
 0.37299999E+02 -0.28279E+05
 0.37349998E+02 -0.27932E+05
 0.37399998E+02 -0.26336E+05
 0.37449997E+02 -0.27299E+05
 0.37499996E+02 -0.27240E+05
 0.37549999E+02 -0.25374E+05
 0.37599998E+02 -0.25468E+05
 0.37649998E+02 -0.27046E+05
 0.37699997E+02 -0.28831E+05
 0.37749996E+02 -0.28132E+05
 0.37799999E+02 -0.25874E+05
 0.37849998E+02 -0.27300E+05
 0.37899998E+02 -0.28084E+05
 0.37949997E+02 -0.27810E+05
 0.37999996E+02 -0.24896E+05
 0.38049999E+02 -0.21310E+05
 0.38099998E+02 -0.22441E+05
 0.38149998E+02 -0.22845E+05
 0.38199997E+02 -0.24068E+05
 0.38249996E+02 -0.26159E+05
 0.38299999E+02 -0.25471E+05
 0.38349998E+02 -0.26548E+05
 0.38399998E+02 -0.26494E+05
 0.38449997E+02 -0.27211E+05
 0.38499996E+02 -0.28122E+05
 0.38549999E+02 -0.27359E+05
 0.38599998E+02 -0.28986E+05
 0.38649998E+02 -0.30108E+05
 0.38699997E+02 -0.26088E+05
 0.38749996E+02 -0.25006E+05
 0.38799999E+02 -0.27203E+05
 0.38849998E+02 -0.27418E+05
 0.38899998E+02 -0.28537E+05
 0.38949997E+02 -0.28181E+05
 0.38999996E+02 -0.27521E+05
 0.39049999E+02 -0.27857E+05
 0.39099998E+02 -0.29253E+05
 0.39149998E+02 -0.28012E+05
 0.39199997E+02 -0.28994E+05
 0.39249996E+02 -0.27759E+05
 0.39299999E+02 -0.25818E+05
 0.39349998E+02 -0.26942E+05
 0.39399998E+02 -0.26797E+05
 0.39449997E+02 -0.26804E+05
 0.39499996E+02 -0.28627E+05
 0.39549999E+02 -0.29692E+05
 0.39599998E+02 -0.27847E+05
 0.39649998E+02 -0.28039E+05
 0.39699997E+02 -0.25559E+05
 0.39749996E+02 -0.24947E+05
 0.39799999E+02 -0.24948E+05
 0.39849998E+02 -0.23632E+05
 0.39899998E+02 -0.23328E+05
 0.39949997E+02 -0.25493E+05
 0.39999996E+02 -0.25569E+05
 0.40049999E+02 -0.25971E+05
 0.40099998E+02 -0.28411E+05
 0.40149998E+02 -0.27512E+05
 0.40199997E+02 -0.28142E+05
 0.40249996E+02 -0.26655E+05
 0.40299999E+02 -0.26297E+05
 0.40349998E+02 -0.25929E+05
 0.40399998E+02 -0.25465E+05
 0.40449997E+02 -0.25026E+05
 0.40499996E+02 -0.24585E+05
 0.40549999E+02 -0.24650E+05
 0.40599998E+02 -0.24622E+05
 0.40649998E+02 -0.25139E+05
 0.40699997E+02 -0.27807E+05
 0.40749996E+02 -0.29917E+05
 0.40799999E+02 -0.29218E+05
 0.40849998E+02 -0.28749E+05
 0.40899998E+02 -0.27409E+05
 0.40949997E+02 -0.27850E+05
 0.40999996E+02 -0.27556E+05
 0.41049999E+02 -0.28167E+05
 0.41099998E+02 -0.28487E+05
 0.41149998E+02 -0.29237E+05
 0.41199997E+02 -0.27193E+05
 0.41249996E+02 -0.26248E+05
 0.41299999E+02 -0.27368E+05
 0.41349998E+02 -0.26054E+05
 0.41399998E+02 -0.28242E+05
 0.41449997E+02 -0.27347E+05
 0.41499996E+02 -0.25621E+05
 0.41549999E+02 -0.26489E+05
 0.41599998E+02 -0.26778E+05
 0.41649998E+02 -0.26919E+05
 0.41699997E+02 -0.25104E+05
 0.41749996E+02 -0.24433E+05
 0.41799999E+02 -0.24772E+05
 0.41849998E+02 -0.24089E+05
 0.41899998E+02 -0.24355E+05
 0.41949997E+02 -0.24673E+05
 0.41999996E+02 -0.24943E+05
 0.42049999E+02 -0.24548E+05
 0.42099998E+02 -0.25350E+05
 0.42149998E+02 -0.25734E+05
 0.42199997E+02 -0.26280E+05
 0.42249996E+02 -0.27880E+05
 0.42299999E+02 -0.29762E+05
 0.42349998E+02 -0.30088E+05
 0.42399998E+02 -0.29609E+05
 0.42449997E+02 -0.27486E+05
 0.42499996E+02 -0.27137E+05
 0.42549999E+02 -0.28059E+05
 0.42599998E+02 -0.27353E+05
 0.42649998E+02 -0.27922E+05
 0.42699997E+02 -0.27897E+05
 0.42749996E+02 -0.27089E+05
 0.42799995E+02 -0.26468E+05
 0.42849998E+02 -0.28066E+05
 0.42899998E+02 -0.28231E+05
 0.42949997E+02 -0.28082E+05
 0.42999996E+02 -0.26395E+05
 0.43049995E+02 -0.26879E+05
 0.43099998E+02 -0.25829E+05
 0.43149998E+02 -0.25376E+05
 0.43199997E+02 -0.26989E+05
 0.43249996E+02 -0.24403E+05
 0.43299995E+02 -0.23955E+05
 0.43349998E+02 -0.25264E+05
 0.43399998E+02 -0.25647E+05
 0.43449997E+02 -0.23889E+05
 0.43499996E+02 -0.25429E+05
 0.43549995E+02 -0.25973E+05
 0.43599998E+02 -0.27371E+05
 0.43649998E+02 -0.28757E+05
 0.43699997E+02 -0.27924E+05
 0.43749996E+02 -0.27793E+05
 0.43799995E+02 -0.27740E+05
 0.43849998E+02 -0.27994E+05
 0.43899998E+02 -0.27378E+05
 0.43949997E+02 -0.28364E+05
 0.43999996E+02 -0.27693E+05
 0.44049995E+02 -0.26379E+05
 0.44099998E+02 -0.25770E+05
 0.44149998E+02 -0.26420E+05
 0.44199997E+02 -0.26376E+05
 0.44249996E+02 -0.25528E+05
 0.44299995E+02 -0.25181E+05
 0.44349998E+02 -0.26695E+05
 0.44399998E+02 -0.27490E+05
 0.44449997E+02 -0.27200E+05
 0.44499996E+02 -0.28333E+05
 0.44549995E+02 -0.27693E+05
 0.44599998E+02 -0.28099E+05
 0.44649998E+02 -0.27406E+05
 0.44699997E+02 -0.26151E+05
 0.44749996E+02 -0.26056E+05
 0.44799995E+02 -0.26025E+05
 0.44849998E+02 -0.27279E+05
 0.44899998E+02 -0.27029E+05
 0.44949997E+02 -0.26563E+05
 0.44999996E+02 -0.25773E+05
 0.45049995E+02 -0.26283E+05
 0.45099998E+02 -0.25965E+05
 0.45149998E+02 -0.24946E+05
 0.45199997E+02 -0.26146E+05
 0.45249996E+02 -0.26043E+05
 0.45299995E+02 -0.26230E+05
 0.45349998E+02 -0.27681E+05
 0.45399998E+02 -0.28725E+05
 0.45449997E+02 -0.28168E+05
 0.45499996E+02 -0.28256E+05
 0.45549995E+02 -0.28163E+05
 0.45599998E+02 -0.26426E+05
 0.45649998E+02 -0.25054E+05
 0.45699997E+02 -0.24795E+05
 0.45749996E+02 -0.26490E+05
 0.45799995E+02 -0.28099E+05
 0.45849998E+02 -0.27558E+05
 0.45899998E+02 -0.26624E+05
 0.45949997E+02 -0.26097E+05
 0.45999996E+02 -0.25422E+05
 0.46049995E+02 -0.26363E+05
 0.46099998E+02 -0.27839E+05
 0.46149998E+02 -0.27745E+05
 0.46199997E+02 -0.26962E+05
 0.46249996E+02 -0.26846E+05
 0.46299995E+02 -0.26553E+05
 0.46349998E+02 -0.26149E+05
 0.46399998E+02 -0.26966E+05
 0.46449997E+02 -0.26394E+05
 0.46499996E+02 -0.26531E+05
 0.46549995E+02 -0.26970E+05
 0.46599998E+02 -0.27401E+05
 0.46649998E+02 -0.27601E+05
 0.46699997E+02 -0.27206E+05
 0.46749996E+02 -0.27007E+05
 0.46799995E+02 -0.26257E+05
 0.46849998E+02 -0.26024E+05
 0.46899998E+02 -0.25910E+05
 0.46949997E+02 -0.25625E+05
 0.46999996E+02 -0.25916E+05
 0.47049995E+02 -0.27115E+05
 0.47099998E+02 -0.26922E+05
 0.47149998E+02 -0.25629E+05
 0.47199997E+02 -0.25945E+05
 0.47249996E+02 -0.25985E+05
 0.47299995E+02 -0.25761E+05
 0.47349998E+02 -0.26353E+05
 0.47399998E+02 -0.26775E+05
 0.47449997E+02 -0.26675E+05
 0.47499996E+02 -0.26393E+05
 0.47549995E+02 -0.27855E+05
 0.47599998E+02 -0.27964E+05
 0.47649998E+02 -0.27449E+05
 0.47699997E+02 -0.26935E+05
 0.47749996E+02 -0.26431E+05
 0.47799995E+02 -0.26825E+05
 0.47849998E+02 -0.26785E+05
 0.47899998E+02 -0.27127E+05
 0.47949997E+02 -0.27278E+05
 0.47999996E+02 -0.26797E+05
 0.48049995E+02 -0.26892E+05
 0.48099998E+02 -0.27218E+05
 0.48149998E+02 -0.27229E+05
 0.48199997E+02 -0.27017E+05
 0.48249996E+02 -0.25988E+05
 0.48299995E+02 -0.25829E+05
 0.48349998E+02 -0.25728E+05
 0.48399998E+02 -0.24981E+05
 0.48449997E+02 -0.25641E+05
 0.48499996E+02 -0.25861E+05
 0.48549995E+02 -0.25887E+05
 0.48599998E+02 -0.26522E+05
 0.48649998E+02 -0.27840E+05
 0.48699997E+02 -0.29277E+05
 0.48749996E+02 -0.28718E+05
 0.48799995E+02 -0.28179E+05
 0.48849998E+02 -0.27274E+05
 0.48899998E+02 -0.27110E+05
 0.48949997E+02 -0.27088E+05
 0.48999996E+02 -0.26375E+05
 0.49049995E+02 -0.25900E+05
 0.49099998E+02 -0.25982E+05
 0.49149998E+02 -0.26527E+05
 0.49199997E+02 -0.26984E+05
 0.49249996E+02 -0.27797E+05
 0.49299995E+02 -0.28012E+05
 0.49349998E+02 -0.27147E+05
 0.49399998E+02 -0.25542E+05
 0.49449997E+02 -0.25187E+05
 0.49499996E+02 -0.25990E+05
 0.49549995E+02 -0.25691E+05
 0.49599998E+02 -0.25432E+05
 0.49649998E+02 -0.26365E+05
 0.49699997E+02 -0.27059E+05
 0.49749996E+02 -0.27705E+05
 0.49799995E+02 -0.27464E+05
 0.49849998E+02 -0.26556E+05
 0.49899998E+02 -0.27332E+05
 0.49949997E+02 -0.27693E+05
 0.49999996E+02 -0.26927E+05
 0.50049995E+02 -0.26744E+05
 0.50099998E+02 -0.26432E+05
 0.50149998E+02 -0.27367E+05
 0.50199997E+02 -0.27541E+05
 0.50249996E+02 -0.26699E+05
 0.50299995E+02 -0.26753E+05
 0.50349998E+02 -0.25976E+05
 0.50399998E+02 -0.24784E+05
 0.50449997E+02 -0.25047E+05
 0.50499996E+02 -0.25384E+05
 0.50549995E+02 -0.25060E+05
 0.50599998E+02 -0.25614E+05
 0.50649998E+02 -0.26086E+05
 0.50699997E+02 -0.26297E+05
 0.50749996E+02 -0.27206E+05
 0.50799995E+02 -0.27441E+05
 0.50849998E+02 -0.27227E+05
 0.50899998E+02 -0.27778E+05
 0.50949997E+02 -0.28058E+05
 0.50999996E+02 -0.27881E+05
 0.51049995E+02 -0.28239E+05
 0.51099998E+02 -0.28416E+05
 0.51149998E+02 -0.27844E+05
 0.51199997E+02 -0.27738E+05
 0.51249996E+02 -0.27758E+05
 0.51299995E+02 -0.26918E+05
 0.51349998E+02 -0.25609E+05
 0.51399998E+02 -0.25658E+05
 0.51449997E+02 -0.26049E+05
 0.51499996E+02 -0.25301E+05
 0.51549995E+02 -0.25318E+05
 0.51599998E+02 -0.26073E+05
 0.51649998E+02 -0.26606E+05
 0.51699997E+02 -0.26773E+05
 0.51749996E+02 -0.26919E+05
 0.51799995E+02 -0.27387E+05
 0.51849998E+02 -0.27301E+05
 0.51899998E+02 -0.27600E+05
 0.51949997E+02 -0.27164E+05
 0.51999996E+02 -0.27429E+05
 0.52049995E+02 -0.27470E+05
 0.52099998E+02 -0.26709E+05
 0.52149998E+02 -0.26957E+05
 0.52199997E+02 -0.27105E+05
 0.52249996E+02 -0.26708E+05
 0.52299995E+02 -0.26066E+05
 0.52349998E+02 -0.26352E+05
 0.52399998E+02 -0.26336E+05
 0.52449997E+02 -0.26693E+05
 0.52499996E+02 -0.27160E+05
 0.52549995E+02 -0.26940E+05
 0.52599998E+02 -0.26806E+05
 0.52649998E+02 -0.27066E+05
 0.52699997E+02 -0.27107E+05
 0.52749996E+02 -0.25933E+05
 0.52799995E+02 -0.25797E+05
 0.52849998E+02 -0.25899E+05
 0.52899998E+02 -0.25558E+05
 0.52949997E+02 -0.26126E+05
 0.52999996E+02 -0.26581E+05
 0.53049995E+02 -0.27124E+05
 0.53099998E+02 -0.27775E+05
 0.53149998E+02 -0.28105E+05
 0.53199997E+02 -0.27833E+05
 0.53249996E+02 -0.27537E+05
 0.53299995E+02 -0.26974E+05
 0.53349998E+02 -0.26573E+05
 0.53399998E+02 -0.26280E+05
 0.53449997E+02 -0.25579E+05
 0.53499996E+02 -0.25452E+05
 0.53549995E+02 -0.25851E+05
 0.53599998E+02 -0.25929E+05
 0.53649998E+02 -0.25864E+05
 0.53699997E+02 -0.25869E+05
 0.53749996E+02 -0.26019E+05
 0.53799995E+02 -0.25943E+05
 0.53849998E+02 -0.26646E+05
 0.53899998E+02 -0.27615E+05
 0.53949997E+02 -0.27608E+05
 0.53999996E+02 -0.27897E+05
 0.54049995E+02 -0.28478E+05
 0.54099998E+02 -0.28432E+05
 0.54149998E+02 -0.28818E+05
 0.54199997E+02 -0.29229E+05
 0.54249996E+02 -0.28527E+05
 0.54299995E+02 -0.28217E+05
 0.54349998E+02 -0.27157E+05
 0.54399998E+02 -0.25912E+05
 0.54449997E+02 -0.25309E+05
 0.54499996E+02 -0.25304E+05
 0.54549995E+02 -0.26031E+05
 0.54599998E+02 -0.26171E+05
 0.54649998E+02 -0.25818E+05
 0.54699997E+02 -0.25930E+05
 0.54749996E+02 -0.26431E+05
 0.54799995E+02 -0.26107E+05
 0.54849998E+02 -0.25830E+05
 0.54899998E+02 -0.25569E+05
 0.54949997E+02 -0.25774E+05
 0.54999996E+02 -0.25923E+05
 0.55049995E+02 -0.25194E+05
 0.55099998E+02 -0.25856E+05
 0.55149998E+02 -0.26466E+05
 0.55199997E+02 -0.26571E+05
 0.55249996E+02 -0.27306E+05
 0.55299995E+02 -0.28115E+05
 0.55349998E+02 -0.27924E+05
 0.55399998E+02 -0.27277E+05
 0.55449997E+02 -0.27197E+05
 0.55499996E+02 -0.26724E+05
 0.55549995E+02 -0.26198E+05
 0.55599998E+02 -0.25856E+05
 0.55649998E+02 -0.25980E+05
 0.55699997E+02 -0.26348E+05
 0.55749996E+02 -0.26746E+05
 0.55799995E+02 -0.27086E+05
 0.55849995E+02 -0.27126E+05
 0.55899998E+02 -0.26621E+05
 0.55949997E+02 -0.25822E+05
 0.55999996E+02 -0.25940E+05
 0.56049995E+02 -0.26861E+05
 0.56099995E+02 -0.27266E+05
 0.56149998E+02 -0.27762E+05
 0.56199997E+02 -0.28389E+05
 0.56249996E+02 -0.28228E+05
 0.56299995E+02 -0.27766E+05
 0.56349995E+02 -0.27710E+05
 0.56399998E+02 -0.28165E+05
 0.56449997E+02 -0.27511E+05
 0.56499996E+02 -0.27115E+05
 0.56549995E+02 -0.26694E+05
 0.56599995E+02 -0.26456E+05
 0.56649998E+02 -0.26283E+05
 0.56699997E+02 -0.25766E+05
 0.56749996E+02 -0.26103E+05
 0.56799995E+02 -0.26075E+05
 0.56849995E+02 -0.26211E+05
 0.56899998E+02 -0.26643E+05
 0.56949997E+02 -0.26629E+05
 0.56999996E+02 -0.26549E+05
 0.57049995E+02 -0.26660E+05
 0.57099995E+02 -0.26892E+05
 0.57149998E+02 -0.27195E+05
 0.57199997E+02 -0.26934E+05
 0.57249996E+02 -0.27250E+05
 0.57299995E+02 -0.27791E+05
 0.57349995E+02 -0.27982E+05
 0.57399998E+02 -0.27498E+05
 0.57449997E+02 -0.26374E+05
 0.57499996E+02 -0.26040E+05
 0.57549995E+02 -0.25944E+05
 0.57599995E+02 -0.26316E+05
 0.57649998E+02 -0.26565E+05
 0.57699997E+02 -0.26120E+05
 0.57749996E+02 -0.25754E+05
 0.57799995E+02 -0.25626E+05
 0.57849995E+02 -0.25885E+05
 0.57899998E+02 -0.26281E+05
 0.57949997E+02 -0.26810E+05
 0.57999996E+02 -0.26942E+05
 0.58049995E+02 -0.27205E+05
 0.58099995E+02 -0.27215E+05
 0.58149998E+02 -0.26965E+05
 0.58199997E+02 -0.26832E+05
 0.58249996E+02 -0.26426E+05
 0.58299995E+02 -0.26305E+05
 0.58349995E+02 -0.26319E+05
 0.58399998E+02 -0.26445E+05
 0.58449997E+02 -0.26678E+05
 0.58499996E+02 -0.26636E+05
 0.58549995E+02 -0.26434E+05
 0.58599995E+02 -0.26751E+05
 0.58649998E+02 -0.26519E+05
 0.58699997E+02 -0.25862E+05
 0.58749996E+02 -0.25669E+05
 0.58799995E+02 -0.25770E+05
 0.58849995E+02 -0.26112E+05
 0.58899998E+02 -0.26554E+05
 0.58949997E+02 -0.26574E+05
 0.58999996E+02 -0.26481E+05
 0.59049995E+02 -0.27145E+05
 0.59099995E+02 -0.27668E+05
 0.59149998E+02 -0.27595E+05
 0.59199997E+02 -0.27325E+05
 0.59249996E+02 -0.27142E+05
 0.59299995E+02 -0.26855E+05
 0.59349995E+02 -0.26320E+05
 0.59399998E+02 -0.26368E+05
 0.59449997E+02 -0.26587E+05
 0.59499996E+02 -0.26657E+05
 0.59549995E+02 -0.26795E+05
 0.59599995E+02 -0.26889E+05
 0.59649998E+02 -0.27084E+05
 0.59699997E+02 -0.27049E+05
 0.59749996E+02 -0.27031E+05
 0.59799995E+02 -0.27231E+05
 0.59849995E+02 -0.27070E+05
 0.59899998E+02 -0.27285E+05
 0.59949997E+02 -0.27192E+05
 0.59999996E+02 -0.27341E+05
 0.60049995E+02 -0.27756E+05
 0.60099995E+02 -0.28092E+05
 0.60149998E+02 -0.28396E+05
 0.60199997E+02 -0.28081E+05
 0.60249996E+02 -0.27467E+05
 0.60299995E+02 -0.26928E+05
 0.60349995E+02 -0.26951E+05
 0.60399998E+02 -0.26662E+05
 0.60449997E+02 -0.26471E+05
 0.60499996E+02 -0.26753E+05
 0.60549995E+02 -0.27132E+05
 0.60599995E+02 -0.26793E+05
 0.60649998E+02 -0.26316E+05
 0.60699997E+02 -0.25636E+05
 0.60749996E+02 -0.25175E+05
 0.60799995E+02 -0.25500E+05
 0.60849995E+02 -0.25488E+05
 0.60899998E+02 -0.25600E+05
 0.60949997E+02 -0.25935E+05
 0.60999996E+02 -0.25990E+05
 0.61049995E+02 -0.25641E+05
 0.61099995E+02 -0.25852E+05
 0.61149998E+02 -0.26262E+05
 0.61199997E+02 -0.26541E+05
 0.61249996E+02 -0.26723E+05
 0.61299995E+02 -0.26983E+05
 0.61349995E+02 -0.27407E+05
 0.61399998E+02 -0.27324E+05
 0.61449997E+02 -0.27355E+05
 0.61499996E+02 -0.27295E+05
 0.61549995E+02 -0.27172E+05
 0.61599995E+02 -0.26824E+05
 0.61649998E+02 -0.26583E+05
 0.61699997E+02 -0.26352E+05
 0.61749996E+02 -0.26340E+05
 0.61799995E+02 -0.26745E+05
 0.61849995E+02 -0.26817E+05
 0.61899998E+02 -0.26904E+05
 0.61949997E+02 -0.26872E+05
 0.61999996E+02 -0.27299E+05
 0.62049995E+02 -0.27870E+05
 0.62099998E+02 -0.27507E+05
 0.62149994E+02 -0.26999E+05
 0.62199997E+02 -0.26877E+05
 0.62249992E+02 -0.26655E+05
 0.62299995E+02 -0.26631E+05
 0.62349998E+02 -0.26618E+05
 0.62399994E+02 -0.26600E+05
 0.62449997E+02 -0.26976E+05
 0.62499992E+02 -0.27060E+05
 0.62549995E+02 -0.26688E+05
 0.62599998E+02 -0.26420E+05
 0.62649994E+02 -0.26162E+05
 0.62699997E+02 -0.26397E+05
 0.62749992E+02 -0.26702E+05
 0.62799995E+02 -0.26425E+05
 0.62849998E+02 -0.26261E+05
 0.62899994E+02 -0.26465E+05
 0.62949997E+02 -0.27075E+05
 0.62999992E+02 -0.27276E+05
 0.63049995E+02 -0.26793E+05
 0.63099998E+02 -0.26329E+05
 0.63149994E+02 -0.26319E+05
 0.63199997E+02 -0.26629E+05
 0.63249992E+02 -0.26824E+05
 0.63299995E+02 -0.26557E+05
 0.63349998E+02 -0.26307E+05
 0.63399994E+02 -0.26588E+05
 0.63449997E+02 -0.26960E+05
 0.63499992E+02 -0.27218E+05
 0.63549995E+02 -0.27003E+05
 0.63599998E+02 -0.26819E+05
 0.63649994E+02 -0.26665E+05
 0.63699997E+02 -0.26282E+05
 0.63749992E+02 -0.26164E+05
 0.63799995E+02 -0.26051E+05
 0.63849998E+02 -0.26233E+05
 0.63899994E+02 -0.26724E+05
 0.63949997E+02 -0.27072E+05
 0.63999992E+02 -0.27121E+05
 0.64049995E+02 -0.27062E+05
 0.64099998E+02 -0.27464E+05
 0.64149994E+02 -0.27813E+05
 0.64199997E+02 -0.27608E+05
 0.64249992E+02 -0.27323E+05
 0.64299995E+02 -0.27144E+05
 0.64349998E+02 -0.26934E+05
 0.64399994E+02 -0.26679E+05
 0.64449997E+02 -0.26537E+05
 0.64499992E+02 -0.26192E+05
 0.64549995E+02 -0.26096E+05
 0.64599998E+02 -0.26375E+05
 0.64649994E+02 -0.26434E+05
 0.64699997E+02 -0.26719E+05
 0.64749992E+02 -0.26820E+05
 0.64799995E+02 -0.26724E+05
 0.64849998E+02 -0.26894E+05
 0.64899994E+02 -0.26961E+05
 0.64949997E+02 -0.26802E+05
 0.64999992E+02 -0.26909E+05
 0.65049995E+02 -0.27291E+05
 0.65099998E+02 -0.27258E+05
 0.65149994E+02 -0.26867E+05
 0.65199997E+02 -0.26403E+05
 0.65249992E+02 -0.26015E+05
 0.65299995E+02 -0.26209E+05
 0.65349998E+02 -0.26616E+05
 0.65399994E+02 -0.26881E+05
 0.65449997E+02 -0.27107E+05
 0.65499992E+02 -0.27131E+05
 0.65549995E+02 -0.26813E+05
 0.65599998E+02 -0.26415E+05
 0.65649994E+02 -0.26315E+05
 0.65699997E+02 -0.26183E+05
 0.65749992E+02 -0.26272E+05
 0.65799995E+02 -0.26470E+05
 0.65849998E+02 -0.26834E+05
 0.65899994E+02 -0.27004E+05
 0.65949997E+02 -0.26934E+05
 0.65999992E+02 -0.27063E+05
 0.66049995E+02 -0.26808E+05
 0.66099998E+02 -0.26563E+05
 0.66149994E+02 -0.26569E+05
 0.66199997E+02 -0.26508E+05
 0.66249992E+02 -0.26510E+05
 0.66299995E+02 -0.26473E+05
 0.66349998E+02 -0.26608E+05
 0.66399994E+02 -0.27076E+05
 0.66449997E+02 -0.27256E+05
 0.66499992E+02 -0.26963E+05
 0.66549995E+02 -0.26551E+05
 0.66599998E+02 -0.26446E+05
 0.66649994E+02 -0.26514E+05
 0.66699997E+02 -0.26459E+05
 0.66749992E+02 -0.26492E+05
 0.66799995E+02 -0.26572E+05
 0.66849998E+02 -0.26600E+05
 0.66899994E+02 -0.26701E+05
 0.66949997E+02 -0.26856E+05
 0.66999992E+02 -0.26508E+05
 0.67049995E+02 -0.26444E+05
 0.67099998E+02 -0.26903E+05
 0.67149994E+02 -0.26922E+05
 0.67199997E+02 -0.27038E+05
 0.67249992E+02 -0.27238E+05
 0.67299995E+02 -0.27222E+05
 0.67349998E+02 -0.27500E+05
 0.67399994E+02 -0.27615E+05
 0.67449997E+02 -0.27321E+05
 0.67499992E+02 -0.27147E+05
 0.67549995E+02 -0.26715E+05
 0.67599998E+02 -0.26419E+05
 0.67649994E+02 -0.26346E+05
 0.67699997E+02 -0.26218E+05
 0.67749992E+02 -0.26270E+05
 0.67799995E+02 -0.26466E+05
 0.67849998E+02 -0.26577E+05
 0.67899994E+02 -0.26305E+05
 0.67949997E+02 -0.26083E+05
 0.67999992E+02 -0.26117E+05
 0.68049995E+02 -0.26313E+05
 0.68099998E+02 -0.26535E+05
 0.68149994E+02 -0.26771E+05
 0.68199997E+02 -0.26996E+05
 0.68249992E+02 -0.26959E+05
 0.68299995E+02 -0.26678E+05
 0.68349998E+02 -0.26462E+05
 0.68399994E+02 -0.26402E+05
 0.68449997E+02 -0.26092E+05
 0.68499992E+02 -0.26108E+05
 0.68549995E+02 -0.26440E+05
 0.68599998E+02 -0.26732E+05
 0.68649994E+02 -0.26744E+05
 0.68699997E+02 -0.26716E+05
 0.68749992E+02 -0.27015E+05
 0.68799995E+02 -0.26921E+05
 0.68849998E+02 -0.26507E+05
 0.68899994E+02 -0.26641E+05
 0.68949997E+02 -0.27127E+05
 0.68999992E+02 -0.27315E+05
 0.69049995E+02 -0.27344E+05
 0.69099998E+02 -0.27388E+05
 0.69149994E+02 -0.27191E+05
 0.69199997E+02 -0.27042E+05
 0.69249992E+02 -0.27286E+05
 0.69299995E+02 -0.27094E+05
 0.69349998E+02 -0.26839E+05
 0.69399994E+02 -0.26968E+05
 0.69449997E+02 -0.27317E+05
 0.69499992E+02 -0.27410E+05
 0.69549995E+02 -0.27126E+05
 0.69599998E+02 -0.26708E+05
 0.69649994E+02 -0.26414E+05
 0.69699997E+02 -0.26340E+05
 0.69749992E+02 -0.26195E+05
 0.69799995E+02 -0.26406E+05
 0.69849998E+02 -0.26692E+05
 0.69899994E+02 -0.26955E+05
 0.69949997E+02 -0.26914E+05
 0.69999992E+02 -0.26771E+05
 0.70049995E+02 -0.26762E+05
 0.70099998E+02 -0.26561E+05
 0.70149994E+02 -0.26731E+05
 0.70199997E+02 -0.26848E+05
 0.70249992E+02 -0.26763E+05
 0.70299995E+02 -0.26772E+05
 0.70349998E+02 -0.26799E+05
 0.70399994E+02 -0.26536E+05
 0.70449997E+02 -0.26369E+05
 0.70499992E+02 -0.26588E+05
 0.70549995E+02 -0.26754E+05
 0.70599998E+02 -0.26914E+05
 0.70649994E+02 -0.26966E+05
 0.70699997E+02 -0.26833E+05
 0.70749992E+02 -0.26679E+05
 0.70799995E+02 -0.26700E+05
 0.70849998E+02 -0.26858E+05
 0.70899994E+02 -0.26884E+05
 0.70949997E+02 -0.26918E+05
 0.70999992E+02 -0.27126E+05
 0.71049995E+02 -0.27037E+05
 0.71099998E+02 -0.26645E+05
 0.71149994E+02 -0.26254E+05
 0.71199997E+02 -0.26037E+05
 0.71249992E+02 -0.25931E+05
 0.71299995E+02 -0.25944E+05
 0.71349998E+02 -0.26210E+05
 0.71399994E+02 -0.26414E+05
 0.71449997E+02 -0.26435E+05
 0.71499992E+02 -0.26527E+05
 0.71549995E+02 -0.26562E+05
 0.71599998E+02 -0.26699E+05
 0.71649994E+02 -0.26779E+05
 0.71699997E+02 -0.26656E+05
 0.71749992E+02 -0.26540E+05
 0.71799995E+02 -0.26337E+05
 0.71849998E+02 -0.26411E+05
 0.71899994E+02 -0.26584E+05
 0.71949997E+02 -0.26713E+05
 0.71999992E+02 -0.26810E+05
 0.72049995E+02 -0.26892E+05
 0.72099998E+02 -0.26886E+05
 0.72149994E+02 -0.26803E+05
 0.72199997E+02 -0.26777E+05
 0.72249992E+02 -0.26780E+05
 0.72299995E+02 -0.26858E+05
 0.72349998E+02 -0.26920E+05
 0.72399994E+02 -0.27223E+05
 0.72449997E+02 -0.27249E+05
 0.72499992E+02 -0.26927E+05
 0.72549995E+02 -0.26649E+05
 0.72599998E+02 -0.26631E+05
 0.72649994E+02 -0.26661E+05
 0.72699997E+02 -0.26819E+05
 0.72749992E+02 -0.27143E+05
 0.72799995E+02 -0.26959E+05
 0.72849998E+02 -0.27036E+05
 0.72899994E+02 -0.26930E+05
 0.72949997E+02 -0.26515E+05
 0.72999992E+02 -0.26518E+05
 0.73049995E+02 -0.26671E+05
 0.73099998E+02 -0.26869E+05
 0.73149994E+02 -0.27001E+05
 0.73199997E+02 -0.27114E+05
 0.73249992E+02 -0.27155E+05
 0.73299995E+02 -0.27069E+05
 0.73349998E+02 -0.27007E+05
 0.73399994E+02 -0.27057E+05
 0.73449997E+02 -0.27133E+05
 0.73499992E+02 -0.26981E+05
 0.73549995E+02 -0.26678E+05
 0.73599998E+02 -0.26641E+05
 0.73649994E+02 -0.26552E+05
 0.73699997E+02 -0.26557E+05
 0.73749992E+02 -0.26545E+05
 0.73799995E+02 -0.26520E+05
 0.73849998E+02 -0.26539E+05
 0.73899994E+02 -0.26451E+05
 0.73949997E+02 -0.26632E+05
 0.73999992E+02 -0.26690E+05
 0.74049995E+02 -0.26592E+05
 0.74099998E+02 -0.26727E+05
 0.74149994E+02 -0.26913E+05
 0.74199997E+02 -0.26927E+05
 0.74249992E+02 -0.26863E+05
 0.74299995E+02 -0.26897E+05
 0.74349998E+02 -0.26866E+05
 0.74399994E+02 -0.26640E+05
 0.74449997E+02 -0.26526E+05
 0.74499992E+02 -0.26421E+05
 0.74549995E+02 -0.26223E+05
 0.74599998E+02 -0.26195E+05
 0.74649994E+02 -0.26402E+05
 0.74699997E+02 -0.26323E+05
 0.74749992E+02 -0.26241E+05
 0.74799995E+02 -0.26378E+05
 0.74849998E+02 -0.26490E+05
 0.74899994E+02 -0.26449E+05
 0.74949997E+02 -0.26276E+05
 0.74999992E+02 -0.26356E+05
 0.75049995E+02 -0.26664E+05
 0.75099998E+02 -0.26796E+05
 0.75149994E+02 -0.26797E+05
 0.75199997E+02 -0.26781E+05
 0.75249992E+02 -0.26605E+05
 0.75299995E+02 -0.26501E+05
 0.75349998E+02 -0.26517E+05
 0.75399994E+02 -0.26616E+05
 0.75449997E+02 -0.26785E+05
 0.75499992E+02 -0.26964E+05
 0.75549995E+02 -0.26987E+05
 0.75599998E+02 -0.27247E+05
 0.75649994E+02 -0.27417E+05
 0.75699997E+02 -0.27360E+05
 0.75749992E+02 -0.26978E+05
 0.75799995E+02 -0.26608E+05
 0.75849998E+02 -0.26770E+05
 0.75899994E+02 -0.26856E+05
 0.75949997E+02 -0.27155E+05
 0.75999992E+02 -0.27374E+05
 0.76049995E+02 -0.27299E+05
 0.76099998E+02 -0.27071E+05
 0.76149994E+02 -0.26884E+05
 0.76199997E+02 -0.26852E+05
 0.76249992E+02 -0.26875E+05
 0.76299995E+02 -0.26791E+05
 0.76349998E+02 -0.26556E+05
 0.76399994E+02 -0.26454E+05
 0.76449997E+02 -0.26410E+05
 0.76499992E+02 -0.26324E+05
 0.76549995E+02 -0.26363E+05
 0.76599998E+02 -0.26485E+05
 0.76649994E+02 -0.26460E+05
 0.76699997E+02 -0.26601E+05
 0.76749992E+02 -0.26817E+05
 0.76799995E+02 -0.26976E+05
 0.76849998E+02 -0.27031E+05
 0.76899994E+02 -0.27093E+05
 0.76949997E+02 -0.27265E+05
 0.76999992E+02 -0.27221E+05
 0.77049995E+02 -0.27071E+05
 0.77099998E+02 -0.26808E+05
 0.77149994E+02 -0.26600E+05
 0.77199997E+02 -0.26547E+05
 0.77249992E+02 -0.26615E+05
 0.77299995E+02 -0.26756E+05
 0.77349998E+02 -0.26785E+05
 0.77399994E+02 -0.26812E+05
 0.77449997E+02 -0.27065E+05
 0.77499992E+02 -0.27235E+05
 0.77549995E+02 -0.27079E+05
 0.77599998E+02 -0.26983E+05
 0.77649994E+02 -0.26851E+05
 0.77699997E+02 -0.26632E+05
 0.77749992E+02 -0.26423E+05
 0.77799995E+02 -0.26343E+05
 0.77849998E+02 -0.26266E+05
 0.77899994E+02 -0.26123E+05
 0.77949997E+02 -0.26190E+05
 0.77999992E+02 -0.26397E+05
 0.78049995E+02 -0.26649E+05
 0.78099998E+02 -0.26918E+05
 0.78149994E+02 -0.27039E+05
 0.78199997E+02 -0.27020E+05
 0.78249992E+02 -0.26987E+05
 0.78299995E+02 -0.26802E+05
 0.78349998E+02 -0.26610E+05
 0.78399994E+02 -0.26456E+05
 0.78449997E+02 -0.26367E+05
 0.78499992E+02 -0.26380E+05
 0.78549995E+02 -0.26452E+05
 0.78599998E+02 -0.26490E+05
 0.78649994E+02 -0.26477E+05
 0.78699997E+02 -0.26579E+05
 0.78749992E+02 -0.26686E+05
 0.78799995E+02 -0.26765E+05
 0.78849998E+02 -0.26759E+05
 0.78899994E+02 -0.26769E+05
 0.78949997E+02 -0.26946E+05
 0.78999992E+02 -0.27092E+05
 0.79049995E+02 -0.27099E+05
 0.79099998E+02 -0.26969E+05
 0.79149994E+02 -0.26715E+05
 0.79199997E+02 -0.26587E+05
 0.79249992E+02 -0.26614E+05
 0.79299995E+02 -0.26767E+05
 0.79349998E+02 -0.27062E+05
 0.79399994E+02 -0.27368E+05
 0.79449997E+02 -0.27366E+05
 0.79499992E+02 -0.27115E+05
 0.79549995E+02 -0.26838E+05
 0.79599998E+02 -0.26531E+05
 0.79649994E+02 -0.26414E+05
 0.79699997E+02 -0.26488E+05
 0.79749992E+02 -0.26721E+05
 0.79799995E+02 -0.26817E+05
 0.79849998E+02 -0.26680E+05
 0.79899994E+02 -0.26567E+05
 0.79949997E+02 -0.26323E+05
 0.79999992E+02 -0.26170E+05
 0.80049995E+02 -0.26242E+05
 0.80099998E+02 -0.26335E+05
 0.80149994E+02 -0.26408E+05
 0.80199997E+02 -0.26490E+05
 0.80249992E+02 -0.26588E+05
 0.80299995E+02 -0.26700E+05
 0.80349998E+02 -0.26774E+05
 0.80399994E+02 -0.26739E+05
 0.80449997E+02 -0.26729E+05
 0.80499992E+02 -0.26778E+05
 0.80549995E+02 -0.26847E+05
 0.80599998E+02 -0.26931E+05
 0.80649994E+02 -0.26966E+05
 0.80699997E+02 -0.26860E+05
 0.80749992E+02 -0.26689E+05
 0.80799995E+02 -0.26575E+05
 0.80849998E+02 -0.26616E+05
 0.80899994E+02 -0.26680E+05
 0.80949997E+02 -0.26704E+05
 0.80999992E+02 -0.26656E+05
 0.81049995E+02 -0.26596E+05
 0.81099998E+02 -0.26559E+05
 0.81149994E+02 -0.26480E+05
 0.81199997E+02 -0.26506E+05
 0.81249992E+02 -0.26608E+05
 0.81299995E+02 -0.26737E+05
 0.81349998E+02 -0.26816E+05
 0.81399994E+02 -0.26722E+05
 0.81449997E+02 -0.26693E+05
 0.81499992E+02 -0.26753E+05
 0.81549995E+02 -0.26724E+05
 0.81599998E+02 -0.26683E+05
 0.81649994E+02 -0.26727E+05
 0.81699997E+02 -0.26945E+05
 0.81749992E+02 -0.27064E+05
 0.81799995E+02 -0.27038E+05
 0.81849998E+02 -0.26982E+05
 0.81899994E+02 -0.26798E+05
 0.81949997E+02 -0.26597E+05
 0.81999992E+02 -0.26548E+05
 0.82049995E+02 -0.26636E+05
 0.82099998E+02 -0.26842E+05
 0.82149994E+02 -0.27036E+05
 0.82199997E+02 -0.27072E+05
 0.82249992E+02 -0.27046E+05
 0.82299995E+02 -0.27100E+05
 0.82349998E+02 -0.26969E+05
 0.82399994E+02 -0.26782E+05
 0.82449997E+02 -0.26786E+05
 0.82499992E+02 -0.26752E+05
 0.82549995E+02 -0.26725E+05
 0.82599998E+02 -0.26623E+05
 0.82649994E+02 -0.26512E+05
 0.82699997E+02 -0.26559E+05
 0.82749992E+02 -0.26656E+05
 0.82799995E+02 -0.26649E+05
 0.82849998E+02 -0.26575E+05
 0.82899994E+02 -0.26542E+05
 0.82949997E+02 -0.26591E+05
 0.82999992E+02 -0.26745E+05
 0.83049995E+02 -0.26801E+05
 0.83099998E+02 -0.26791E+05
 0.83149994E+02 -0.26920E+05
 0.83199997E+02 -0.27054E+05
 0.83249992E+02 -0.26992E+05
 0.83299995E+02 -0.26973E+05
 0.83349998E+02 -0.27034E+05
 0.83399994E+02 -0.26910E+05
 0.83449997E+02 -0.26732E+05
 0.83499992E+02 -0.26616E+05
 0.83549995E+02 -0.26545E+05
 0.83599998E+02 -0.26406E+05
 0.83649994E+02 -0.26394E+05
 0.83699997E+02 -0.26612E+05
 0.83749992E+02 -0.26773E+05
 0.83799995E+02 -0.26782E+05
 0.83849998E+02 -0.26775E+05
 0.83899994E+02 -0.26725E+05
 0.83949997E+02 -0.26732E+05
 0.83999992E+02 -0.26834E+05
 0.84049995E+02 -0.26794E+05
 0.84099998E+02 -0.26768E+05
 0.84149994E+02 -0.26838E+05
 0.84199997E+02 -0.26893E+05
 0.84249992E+02 -0.26851E+05
 0.84299995E+02 -0.26726E+05
 0.84349998E+02 -0.26627E+05
 0.84399994E+02 -0.26507E+05
 0.84449997E+02 -0.26459E+05
 0.84499992E+02 -0.26487E+05
 0.84549995E+02 -0.26580E+05
 0.84599998E+02 -0.26754E+05
 0.84649994E+02 -0.26789E+05
 0.84699997E+02 -0.26673E+05
 0.84749992E+02 -0.26573E+05
 0.84799995E+02 -0.26559E+05
 0.84849998E+02 -0.26570E+05
 0.84899994E+02 -0.26576E+05
 0.84949997E+02 -0.26659E+05
 0.84999992E+02 -0.26761E+05
 0.85049995E+02 -0.26809E+05
 0.85099998E+02 -0.26825E+05
 0.85149994E+02 -0.26757E+05
 0.85199997E+02 -0.26723E+05
 0.85249992E+02 -0.26819E+05
 0.85299995E+02 -0.27043E+05
 0.85349998E+02 -0.27159E+05
 0.85399994E+02 -0.27013E+05
 0.85449997E+02 -0.26822E+05
 0.85499992E+02 -0.26674E+05
 0.85549995E+02 -0.26534E+05
 0.85599998E+02 -0.26508E+05
 0.85649994E+02 -0.26725E+05
 0.85699997E+02 -0.26917E+05
 0.85749992E+02 -0.26956E+05
 0.85799995E+02 -0.26939E+05
 0.85849998E+02 -0.26853E+05
 0.85899994E+02 -0.26770E+05
 0.85949997E+02 -0.26785E+05
 0.85999992E+02 -0.26817E+05
 0.86049995E+02 -0.26827E+05
 0.86099998E+02 -0.26630E+05
 0.86149994E+02 -0.26461E+05
 0.86199997E+02 -0.26514E+05
 0.86249992E+02 -0.26555E+05
 0.86299995E+02 -0.26625E+05
 0.86349998E+02 -0.26559E+05
 0.86399994E+02 -0.26582E+05
 0.86449997E+02 -0.26684E+05
 0.86499992E+02 -0.26784E+05
 0.86549995E+02 -0.26987E+05
 0.86599998E+02 -0.27122E+05
 0.86649994E+02 -0.27170E+05
 0.86699997E+02 -0.27065E+05
 0.86749992E+02 -0.26910E+05
 0.86799995E+02 -0.26757E+05
 0.86849998E+02 -0.26670E+05
 0.86899994E+02 -0.26668E+05
 0.86949997E+02 -0.26586E+05
 0.86999992E+02 -0.26537E+05
 0.87049995E+02 -0.26502E+05
 0.87099998E+02 -0.26441E+05
 0.87149994E+02 -0.26493E+05
 0.87199997E+02 -0.26588E+05
 0.87249992E+02 -0.26584E+05
 0.87299995E+02 -0.26512E+05
 0.87349998E+02 -0.26625E+05
 0.87399994E+02 -0.26728E+05
 0.87449997E+02 -0.26812E+05
 0.87499992E+02 -0.27068E+05
 0.87549995E+02 -0.27232E+05
 0.87599991E+02 -0.27182E+05
 0.87649994E+02 -0.26965E+05
 0.87699997E+02 -0.26765E+05
 0.87749992E+02 -0.26636E+05
 0.87799995E+02 -0.26558E+05
 0.87849991E+02 -0.26546E+05
 0.87899994E+02 -0.26615E+05
 0.87949997E+02 -0.26757E+05
 0.87999992E+02 -0.26882E+05
 0.88049995E+02 -0.27001E+05
 0.88099991E+02 -0.26998E+05
 0.88149994E+02 -0.26910E+05
 0.88199997E+02 -0.26862E+05
 0.88249992E+02 -0.26865E+05
 0.88299995E+02 -0.26735E+05
 0.88349991E+02 -0.26540E+05
 0.88399994E+02 -0.26515E+05
 0.88449997E+02 -0.26485E+05
 0.88499992E+02 -0.26521E+05
 0.88549995E+02 -0.26574E+05
 0.88599991E+02 -0.26594E+05
 0.88649994E+02 -0.26602E+05
 0.88699997E+02 -0.26532E+05
 0.88749992E+02 -0.26471E+05
 0.88799995E+02 -0.26493E+05
 0.88849991E+02 -0.26642E+05
 0.88899994E+02 -0.26770E+05
 0.88949997E+02 -0.26779E+05
 0.88999992E+02 -0.26729E+05
 0.89049995E+02 -0.26857E+05
 0.89099991E+02 -0.27085E+05
 0.89149994E+02 -0.27174E+05
 0.89199997E+02 -0.27162E+05
 0.89249992E+02 -0.27031E+05
 0.89299995E+02 -0.26839E+05
 0.89349991E+02 -0.26565E+05
 0.89399994E+02 -0.26361E+05
 0.89449997E+02 -0.26322E+05
 0.89499992E+02 -0.26286E+05
 0.89549995E+02 -0.26368E+05
 0.89599991E+02 -0.26539E+05
 0.89649994E+02 -0.26644E+05
 0.89699997E+02 -0.26720E+05
 0.89749992E+02 -0.26889E+05
 0.89799995E+02 -0.26960E+05
 0.89849991E+02 -0.26858E+05
 0.89899994E+02 -0.26855E+05
 0.89949997E+02 -0.26784E+05
 0.89999992E+02 -0.26702E+05
 0.90049995E+02 -0.26703E+05
 0.90099991E+02 -0.26715E+05
 0.90149994E+02 -0.26723E+05
 0.90199997E+02 -0.26682E+05
 0.90249992E+02 -0.26616E+05
 0.90299995E+02 -0.26621E+05
 0.90349991E+02 -0.26749E+05
 0.90399994E+02 -0.26746E+05
 0.90449997E+02 -0.26718E+05
 0.90499992E+02 -0.26715E+05
 0.90549995E+02 -0.26563E+05
 0.90599991E+02 -0.26438E+05
 0.90649994E+02 -0.26557E+05
 0.90699997E+02 -0.26645E+05
 0.90749992E+02 -0.26574E+05
 0.90799995E+02 -0.26492E+05
 0.90849991E+02 -0.26539E+05
 0.90899994E+02 -0.26663E+05
 0.90949997E+02 -0.26704E+05
 0.90999992E+02 -0.26739E+05
 0.91049995E+02 -0.26809E+05
 0.91099991E+02 -0.26867E+05
 0.91149994E+02 -0.26859E+05
 0.91199997E+02 -0.26872E+05
 0.91249992E+02 -0.26917E+05
 0.91299995E+02 -0.26901E+05
 0.91349991E+02 -0.26813E+05
 0.91399994E+02 -0.26788E+05
 0.91449997E+02 -0.26910E+05
 0.91499992E+02 -0.27037E+05
 0.91549995E+02 -0.26994E+05
 0.91599991E+02 -0.26858E+05
 0.91649994E+02 -0.26747E+05
 0.91699997E+02 -0.26662E+05
 0.91749992E+02 -0.26570E+05
 0.91799995E+02 -0.26500E+05
 0.91849991E+02 -0.26521E+05
 0.91899994E+02 -0.26699E+05
 0.91949997E+02 -0.26871E+05
 0.91999992E+02 -0.26884E+05
 0.92049995E+02 -0.26860E+05
 0.92099991E+02 -0.26925E+05
 0.92149994E+02 -0.26974E+05
 0.92199997E+02 -0.26901E+05
 0.92249992E+02 -0.26749E+05
 0.92299995E+02 -0.26736E+05
 0.92349991E+02 -0.26835E+05
 0.92399994E+02 -0.26830E+05
 0.92449997E+02 -0.26774E+05
 0.92499992E+02 -0.26583E+05
 0.92549995E+02 -0.26432E+05
 0.92599991E+02 -0.26430E+05
 0.92649994E+02 -0.26570E+05
 0.92699997E+02 -0.26809E+05
 0.92749992E+02 -0.26929E+05
 0.92799995E+02 -0.26933E+05
 0.92849991E+02 -0.26807E+05
 0.92899994E+02 -0.26574E+05
 0.92949997E+02 -0.26334E+05
 0.92999992E+02 -0.26294E+05
 0.93049995E+02 -0.26433E+05
 0.93099991E+02 -0.26552E+05
 0.93149994E+02 -0.26638E+05
 0.93199997E+02 -0.26705E+05
 0.93249992E+02 -0.26731E+05
 0.93299995E+02 -0.26622E+05
 0.93349991E+02 -0.26672E+05
 0.93399994E+02 -0.26937E+05
 0.93449997E+02 -0.27090E+05
 0.93499992E+02 -0.27158E+05
 0.93549995E+02 -0.27179E+05
 0.93599991E+02 -0.27104E+05
 0.93649994E+02 -0.27027E+05
 0.93699997E+02 -0.26970E+05
 0.93749992E+02 -0.26907E+05
 0.93799995E+02 -0.26807E+05
 0.93849991E+02 -0.26696E+05
 0.93899994E+02 -0.26592E+05
 0.93949997E+02 -0.26601E+05
 0.93999992E+02 -0.26725E+05
 0.94049995E+02 -0.26812E+05
 0.94099991E+02 -0.26966E+05
 0.94149994E+02 -0.27005E+05
 0.94199997E+02 -0.26916E+05
 0.94249992E+02 -0.26810E+05
 0.94299995E+02 -0.26670E+05
 0.94349991E+02 -0.26515E+05
 0.94399994E+02 -0.26409E+05
 0.94449997E+02 -0.26381E+05
 0.94499992E+02 -0.26430E+05
 0.94549995E+02 -0.26551E+05
 0.94599991E+02 -0.26639E+05
 0.94649994E+02 -0.26610E+05
 0.94699997E+02 -0.26575E+05
 0.94749992E+02 -0.26687E+05
 0.94799995E+02 -0.26745E+05
 0.94849991E+02 -0.26735E+05
 0.94899994E+02 -0.26735E+05
 0.94949997E+02 -0.26761E+05
 0.94999992E+02 -0.26782E+05
 0.95049995E+02 -0.26796E+05
 0.95099991E+02 -0.26754E+05
 0.95149994E+02 -0.26702E+05
 0.95199997E+02 -0.26710E+05
 0.95249992E+02 -0.26698E+05
 0.95299995E+02 -0.26739E+05
 0.95349991E+02 -0.26839E+05
 0.95399994E+02 -0.26890E+05
 0.95449997E+02 -0.26871E+05
 0.95499992E+02 -0.26820E+05
 0.95549995E+02 -0.26785E+05
 0.95599991E+02 -0.26691E+05
 0.95649994E+02 -0.26555E+05
 0.95699997E+02 -0.26593E+05
 0.95749992E+02 -0.26634E+05
 0.95799995E+02 -0.26620E+05
 0.95849991E+02 -0.26546E+05
 0.95899994E+02 -0.26436E+05
 0.95949997E+02 -0.26439E+05
 0.95999992E+02 -0.26586E+05
 0.96049995E+02 -0.26715E+05
 0.96099991E+02 -0.26744E+05
 0.96149994E+02 -0.26813E+05
 0.96199997E+02 -0.26888E+05
 0.96249992E+02 -0.26941E+05
 0.96299995E+02 -0.26934E+05
 0.96349991E+02 -0.26841E+05
 0.96399994E+02 -0.26728E+05
 0.96449997E+02 -0.26600E+05
 0.96499992E+02 -0.26539E+05
 0.96549995E+02 -0.26597E+05
 0.96599991E+02 -0.26728E+05
 0.96649994E+02 -0.26842E+05
 0.96699997E+02 -0.26887E+05
 0.96749992E+02 -0.26978E+05
 0.96799995E+02 -0.27107E+05
 0.96849991E+02 -0.27123E+05
 0.96899994E+02 -0.27030E+05
 0.96949997E+02 -0.26958E+05
 0.96999992E+02 -0.26947E+05
 0.97049995E+02 -0.26941E+05
 0.97099991E+02 -0.26957E+05
 0.97149994E+02 -0.26992E+05
 0.97199997E+02 -0.26984E+05
 0.97249992E+02 -0.26979E+05
 0.97299995E+02 -0.26931E+05
 0.97349991E+02 -0.26883E+05
 0.97399994E+02 -0.26848E+05
 0.97449997E+02 -0.26849E+05
 0.97499992E+02 -0.26841E+05
 0.97549995E+02 -0.26701E+05
 0.97599991E+02 -0.26564E+05
 0.97649994E+02 -0.26469E+05
 0.97699997E+02 -0.26475E+05
 0.97749992E+02 -0.26552E+05
 0.97799995E+02 -0.26560E+05
 0.97849991E+02 -0.26541E+05
 0.97899994E+02 -0.26563E+05
 0.97949997E+02 -0.26575E+05
 0.97999992E+02 -0.26513E+05
