-0.19969940E+01  0.96400E+04
-0.19469941E+01  0.95806E+04
-0.18969940E+01  0.96491E+04
-0.18469940E+01  0.96327E+04
-0.17969940E+01  0.96108E+04
-0.17469940E+01  0.96237E+04
-0.16969941E+01  0.96391E+04
-0.16469941E+01  0.96122E+04
-0.15969940E+01  0.96064E+04
-0.15469940E+01  0.96244E+04
-0.14969940E+01  0.96063E+04
-0.14469941E+01  0.95890E+04
-0.13969941E+01  0.95799E+04
-0.13469940E+01  0.95967E+04
-0.12969941E+01  0.96036E+04
-0.12469940E+01  0.95921E+04
-0.11969941E+01  0.95776E+04
-0.11469941E+01  0.95899E+04
-0.10969940E+01  0.96027E+04
-0.10469941E+01  0.95903E+04
-0.99699408E+00  0.95831E+04
-0.94699407E+00  0.95980E+04
-0.89699411E+00  0.96041E+04
-0.84699404E+00  0.95913E+04
-0.79699409E+00  0.96081E+04
-0.74699414E+00  0.96148E+04
-0.69699407E+00  0.96119E+04
-0.64699411E+00  0.96170E+04
-0.59699416E+00  0.96295E+04
-0.54699409E+00  0.96350E+04
-0.49699414E+00  0.96260E+04
-0.44699407E+00  0.96318E+04
-0.39699411E+00  0.96409E+04
-0.34699416E+00  0.96375E+04
-0.29699409E+00  0.96340E+04
-0.24699414E+00  0.96565E+04
-0.19699407E+00  0.96695E+04
-0.14699411E+00  0.96540E+04
-0.96994162E-01  0.96540E+04
-0.46994090E-01  0.96741E+04
 0.30058622E-02  0.96644E+04
 0.53005934E-01  0.96425E+04
 0.10300589E+00  0.96623E+04
 0.15300584E+00  0.96641E+04
 0.20300579E+00  0.96602E+04
 0.25300574E+00  0.96591E+04
 0.30300593E+00  0.96674E+04
 0.35300589E+00  0.96714E+04
 0.40300584E+00  0.96430E+04
 0.45300579E+00  0.96478E+04
 0.50300574E+00  0.96601E+04
 0.55300593E+00  0.96386E+04
 0.60300589E+00  0.96270E+04
 0.65300584E+00  0.96307E+04
 0.70300579E+00  0.96416E+04
 0.75300574E+00  0.96432E+04
 0.80300570E+00  0.96436E+04
 0.85300589E+00  0.96605E+04
 0.90300584E+00  0.96445E+04
 0.95300579E+00  0.96193E+04
 0.10030057E+01  0.96120E+04
 0.10530057E+01  0.96475E+04
 0.11030059E+01  0.96279E+04
 0.11530058E+01  0.96232E+04
 0.12030058E+01  0.96353E+04
 0.12530057E+01  0.96169E+04
 0.13030057E+01  0.96174E+04
 0.13530059E+01  0.96128E+04
 0.14030058E+01  0.96151E+04
 0.14530058E+01  0.96193E+04
 0.15030057E+01  0.96225E+04
 0.15530057E+01  0.96181E+04
 0.16030059E+01  0.96325E+04
 0.16530058E+01  0.96113E+04
 0.17030058E+01  0.95987E+04
 0.17530057E+01  0.96078E+04
 0.18030057E+01  0.96333E+04
 0.18530056E+01  0.96066E+04
 0.19030058E+01  0.95989E+04
 0.19530058E+01  0.96261E+04
 0.20030057E+01  0.96021E+04
 0.20530057E+01  0.95970E+04
 0.21030059E+01  0.96047E+04
 0.21530056E+01  0.96002E+04
 0.22030058E+01  0.95979E+04
 0.22530055E+01  0.95959E+04
 0.23030057E+01  0.96076E+04
 0.23530059E+01  0.96148E+04
 0.24030056E+01  0.96129E+04
 0.24530058E+01  0.96194E+04
 0.25030055E+01  0.96089E+04
 0.25530057E+01  0.96365E+04
 0.26030059E+01  0.96379E+04
 0.26530056E+01  0.96325E+04
 0.27030058E+01  0.96197E+04
 0.27530055E+01  0.96330E+04
 0.28030057E+01  0.96381E+04
 0.28530059E+01  0.96415E+04
 0.29030056E+01  0.96519E+04
 0.29530058E+01  0.96442E+04
 0.30030055E+01  0.96274E+04
 0.30530057E+01  0.96310E+04
 0.31030059E+01  0.96527E+04
 0.31530056E+01  0.96448E+04
 0.32030058E+01  0.96506E+04
 0.32530055E+01  0.96623E+04
 0.33030057E+01  0.96551E+04
 0.33530059E+01  0.96397E+04
 0.34030056E+01  0.96438E+04
 0.34530058E+01  0.96571E+04
 0.35030055E+01  0.96675E+04
 0.35530057E+01  0.96517E+04
 0.36030054E+01  0.96569E+04
 0.36530056E+01  0.96512E+04
 0.37030058E+01  0.96635E+04
 0.37530055E+01  0.96522E+04
 0.38030057E+01  0.96441E+04
 0.38530054E+01  0.96460E+04
 0.39030056E+01  0.96370E+04
 0.39530058E+01  0.96396E+04
 0.40030055E+01  0.96366E+04
 0.40530057E+01  0.96192E+04
 0.41030054E+01  0.96297E+04
 0.41530056E+01  0.96328E+04
 0.42030058E+01  0.96216E+04
 0.42530055E+01  0.96332E+04
 0.43030057E+01  0.96258E+04
 0.43530054E+01  0.96158E+04
 0.44030056E+01  0.96002E+04
 0.44530058E+01  0.96149E+04
 0.45030055E+01  0.96206E+04
 0.45530057E+01  0.95793E+04
 0.46030054E+01  0.95774E+04
 0.46530056E+01  0.95916E+04
 0.47030058E+01  0.95943E+04
 0.47530055E+01  0.95912E+04
 0.48030057E+01  0.95716E+04
 0.48530054E+01  0.96194E+04
 0.49030056E+01  0.95949E+04
 0.49530058E+01  0.95973E+04
 0.50030055E+01  0.96082E+04
 0.50530057E+01  0.95856E+04
 0.51030054E+01  0.95978E+04
 0.51530056E+01  0.95829E+04
 0.52030058E+01  0.96217E+04
 0.52530055E+01  0.96049E+04
 0.53030057E+01  0.96330E+04
 0.53530054E+01  0.96075E+04
 0.54030056E+01  0.96221E+04
 0.54530053E+01  0.96363E+04
 0.55030055E+01  0.96154E+04
 0.55530057E+01  0.96503E+04
 0.56030054E+01  0.96230E+04
 0.56530056E+01  0.96537E+04
 0.57030053E+01  0.96457E+04
 0.57530055E+01  0.96431E+04
 0.58030057E+01  0.96279E+04
 0.58530054E+01  0.96489E+04
 0.59030056E+01  0.96457E+04
 0.59530053E+01  0.96373E+04
 0.60030055E+01  0.96276E+04
 0.60530052E+01  0.96290E+04
 0.61030054E+01  0.96444E+04
 0.61530056E+01  0.96369E+04
 0.62030058E+01  0.96342E+04
 0.62530050E+01  0.96433E+04
 0.63030052E+01  0.96632E+04
 0.63530054E+01  0.96138E+04
 0.64030056E+01  0.96549E+04
 0.64530058E+01  0.96469E+04
 0.65030050E+01  0.96172E+04
 0.65530052E+01  0.96364E+04
 0.66030054E+01  0.96236E+04
 0.66530056E+01  0.96430E+04
 0.67030058E+01  0.95915E+04
 0.67530050E+01  0.96039E+04
 0.68030052E+01  0.96402E+04
 0.68530054E+01  0.96277E+04
 0.69030056E+01  0.96257E+04
 0.69530058E+01  0.96088E+04
 0.70030050E+01  0.96380E+04
 0.70530052E+01  0.96007E+04
 0.71030054E+01  0.96002E+04
 0.71530056E+01  0.96145E+04
 0.72030058E+01  0.96497E+04
 0.72530050E+01  0.95703E+04
 0.73030052E+01  0.96531E+04
 0.73530054E+01  0.96437E+04
 0.74030056E+01  0.95898E+04
 0.74530058E+01  0.96339E+04
 0.75030050E+01  0.95795E+04
 0.75530052E+01  0.97421E+04
 0.76030054E+01  0.94797E+04
 0.76530056E+01  0.97098E+04
 0.77030058E+01  0.96397E+04
 0.77530050E+01  0.97464E+04
 0.78030052E+01  0.93850E+04
 0.78530054E+01  0.97642E+04
 0.79030056E+01  0.95312E+04
 0.79530058E+01  0.99642E+04
 0.80030050E+01  0.91207E+04
 0.80530052E+01  0.10114E+05
 0.81030054E+01  0.81265E+04
 0.81530056E+01  0.74005E+04
 0.82030058E+01  0.10785E+05
 0.82530050E+01  0.11475E+05
 0.83030052E+01  0.10920E+05
 0.83530054E+01  0.23506E+04
 0.84030056E+01  0.13075E+05
 0.84530058E+01  0.15543E+05
 0.85030050E+01  0.81662E+04
 0.85530052E+01  0.78510E+04
 0.86030054E+01  0.92658E+04
 0.86530056E+01  0.20159E+05
 0.87030058E+01 -0.52004E+04
 0.87530050E+01 -0.84332E+03
 0.88030052E+01  0.34064E+05
 0.88530054E+01  0.92945E+04
 0.89030056E+01 -0.42744E+04
 0.89530058E+01 -0.10193E+05
 0.90030050E+01  0.24311E+05
 0.90530052E+01  0.31959E+05
 0.91030054E+01 -0.14965E+05
 0.91530056E+01  0.16271E+05
 0.92030048E+01  0.17434E+05
 0.92530050E+01 -0.89341E+04
 0.93030052E+01  0.19011E+05
 0.93530054E+01  0.33099E+05
 0.94030056E+01  0.17107E+05
 0.94530048E+01 -0.26599E+05
 0.95030050E+01 -0.44317E+03
 0.95530052E+01  0.58098E+05
 0.96030054E+01  0.95240E+04
 0.96530056E+01 -0.20956E+05
 0.97030048E+01  0.11488E+05
 0.97530050E+01  0.33338E+05
 0.98030052E+01 -0.10295E+05
 0.98530054E+01 -0.79575E+04
 0.99030056E+01  0.28742E+05
 0.99530048E+01  0.23005E+05
 0.10003005E+02 -0.78814E+04
 0.10053005E+02  0.44388E+04
 0.10103005E+02  0.15438E+05
 0.10153006E+02  0.79075E+04
 0.10203005E+02  0.24533E+05
 0.10253005E+02  0.35658E+04
 0.10303005E+02 -0.72104E+04
 0.10353005E+02  0.11374E+05
 0.10403006E+02  0.11094E+05
 0.10453005E+02  0.10749E+05
 0.10503005E+02  0.11219E+05
 0.10553005E+02  0.15389E+05
 0.10603005E+02  0.20642E+05
 0.10653006E+02 -0.17868E+05
 0.10703005E+02  0.43902E+04
 0.10753005E+02  0.34201E+05
 0.10803005E+02  0.36353E+05
 0.10853005E+02 -0.18168E+05
 0.10903006E+02 -0.15953E+05
 0.10953005E+02  0.28206E+05
 0.11003005E+02  0.36567E+05
 0.11053005E+02  0.48290E+02
 0.11103005E+02 -0.31725E+05
 0.11153006E+02  0.31534E+05
 0.11203005E+02  0.49658E+05
 0.11253005E+02 -0.84169E+04
 0.11303005E+02 -0.24924E+05
 0.11353005E+02  0.27888E+05
 0.11403006E+02  0.20697E+05
 0.11453005E+02 -0.12230E+05
 0.11503005E+02  0.22063E+05
 0.11553005E+02  0.35317E+05
 0.11603005E+02 -0.29795E+05
 0.11653006E+02 -0.94322E+03
 0.11703005E+02  0.58048E+05
 0.11753005E+02  0.24510E+05
 0.11803005E+02 -0.52163E+05
 0.11853005E+02  0.49385E+04
 0.11903006E+02  0.69830E+05
 0.11953005E+02  0.17244E+05
 0.12003005E+02 -0.50457E+05
 0.12053005E+02 -0.15394E+05
 0.12103005E+02  0.85822E+05
 0.12153006E+02 -0.82011E+03
 0.12203005E+02 -0.60412E+05
 0.12253005E+02  0.34682E+05
 0.12303005E+02  0.63454E+05
 0.12353005E+02 -0.12962E+05
 0.12403006E+02 -0.26831E+05
 0.12453005E+02  0.22901E+05
 0.12503005E+02  0.57131E+05
 0.12553005E+02 -0.17688E+05
 0.12603005E+02 -0.19452E+05
 0.12653005E+02  0.33641E+05
 0.12703005E+02  0.15273E+05
 0.12753005E+02 -0.56770E+03
 0.12803005E+02 -0.21562E+05
 0.12853005E+02  0.45738E+05
 0.12903005E+02  0.48725E+05
 0.12953005E+02 -0.31552E+05
 0.13003005E+02  0.26606E+04
 0.13053005E+02  0.42693E+05
 0.13103005E+02  0.12107E+04
 0.13153005E+02 -0.31381E+05
 0.13203005E+02  0.22324E+05
 0.13253005E+02  0.31013E+05
 0.13303005E+02 -0.48748E+04
 0.13353005E+02 -0.93152E+04
 0.13403005E+02  0.69635E+04
 0.13453005E+02  0.51147E+05
 0.13503005E+02 -0.30950E+05
 0.13553005E+02 -0.44275E+04
 0.13603005E+02  0.38215E+05
 0.13653005E+02 -0.26284E+05
 0.13703005E+02  0.18816E+05
 0.13753005E+02  0.46806E+05
 0.13803005E+02  0.65746E+05
 0.13853005E+02 -0.13205E+05
 0.13903005E+02 -0.41761E+05
 0.13953005E+02  0.10581E+06
 0.14003005E+02 -0.90236E+05
 0.14053005E+02 -0.14180E+05
 0.14103004E+02  0.15756E+06
 0.14153006E+02  0.16055E+05
 0.14203005E+02 -0.10257E+06
 0.14253004E+02 -0.10827E+06
 0.14303005E+02  0.15739E+06
 0.14353004E+02  0.31786E+05
 0.14403006E+02 -0.92467E+05
 0.14453005E+02  0.32388E+04
 0.14503004E+02  0.10772E+06
 0.14553005E+02  0.23355E+05
 0.14603004E+02 -0.72883E+05
 0.14653006E+02  0.38085E+05
 0.14703005E+02  0.75449E+05
 0.14753004E+02 -0.36324E+05
 0.14803005E+02 -0.74257E+05
 0.14853004E+02  0.37275E+05
 0.14903006E+02 -0.17800E+05
 0.14953005E+02  0.10005E+06
 0.15003004E+02 -0.37519E+04
 0.15053005E+02 -0.92748E+05
 0.15103004E+02  0.12616E+06
 0.15153006E+02  0.67347E+05
 0.15203005E+02 -0.11256E+06
 0.15253004E+02  0.20749E+04
 0.15303005E+02  0.10620E+06
 0.15353004E+02 -0.47971E+05
 0.15403006E+02 -0.35195E+05
 0.15453005E+02  0.70490E+05
 0.15503004E+02  0.48823E+05
 0.15553005E+02 -0.49012E+05
 0.15603004E+02 -0.22256E+05
 0.15653006E+02  0.80719E+05
 0.15703005E+02 -0.61398E+04
 0.15753004E+02 -0.35530E+05
 0.15803005E+02  0.50630E+05
 0.15853004E+02  0.35707E+05
 0.15903006E+02  0.17706E+05
 0.15953005E+02 -0.57500E+05
 0.16003004E+02  0.12793E+05
 0.16053005E+02  0.64434E+05
 0.16103004E+02  0.95055E+03
 0.16153006E+02 -0.49416E+05
 0.16203005E+02  0.45859E+05
 0.16253004E+02  0.77562E+05
 0.16303005E+02 -0.99908E+05
 0.16353004E+02  0.36483E+05
 0.16403006E+02  0.76922E+05
 0.16453005E+02 -0.42203E+05
 0.16503004E+02 -0.80585E+05
 0.16553005E+02  0.71200E+05
 0.16603004E+02  0.13748E+06
 0.16653006E+02 -0.83384E+05
 0.16703005E+02 -0.25332E+05
 0.16753004E+02  0.52276E+05
 0.16803005E+02 -0.11807E+05
 0.16853004E+02  0.15621E+04
 0.16903006E+02 -0.16213E+05
 0.16953005E+02  0.40313E+05
 0.17003004E+02  0.48437E+05
 0.17053005E+02  0.22663E+05
 0.17103004E+02 -0.44847E+05
 0.17153006E+02  0.12212E+05
 0.17203005E+02  0.61121E+05
 0.17253004E+02 -0.75472E+05
 0.17303005E+02  0.34190E+05
 0.17353004E+02  0.47516E+05
 0.17403006E+02 -0.21025E+05
 0.17453005E+02  0.69802E+04
 0.17503004E+02  0.12574E+05
 0.17553005E+02  0.27521E+05
 0.17603004E+02  0.15100E+03
 0.17653006E+02  0.19283E+05
 0.17703005E+02  0.20225E+05
 0.17753004E+02 -0.14013E+05
 0.17803005E+02  0.29682E+05
 0.17853004E+02  0.77317E+04
 0.17903006E+02 -0.18238E+05
 0.17953005E+02  0.13155E+05
 0.18003004E+02  0.35396E+05
 0.18053005E+02  0.23164E+05
 0.18103004E+02  0.33924E+04
 0.18153006E+02 -0.11773E+05
 0.18203005E+02  0.22866E+05
 0.18253004E+02  0.48466E+05
 0.18303005E+02 -0.33243E+05
 0.18353004E+02  0.41594E+04
 0.18403006E+02  0.11645E+05
 0.18453005E+02 -0.25623E+05
 0.18503004E+02 -0.14334E+04
 0.18553005E+02  0.30717E+05
 0.18603004E+02  0.57152E+05
 0.18653006E+02  0.18702E+05
 0.18703005E+02 -0.33310E+05
 0.18753004E+02 -0.71331E+03
 0.18803005E+02  0.56237E+05
 0.18853004E+02  0.10618E+05
 0.18903006E+02  0.10978E+05
 0.18953005E+02 -0.86518E+04
 0.19003004E+02  0.21410E+05
 0.19053005E+02  0.30466E+05
 0.19103004E+02 -0.25755E+05
 0.19153006E+02  0.16370E+05
 0.19203005E+02  0.23133E+05
 0.19253004E+02  0.20968E+05
 0.19303005E+02  0.12540E+05
 0.19353004E+02  0.15578E+05
 0.19403006E+02  0.29436E+05
 0.19453005E+02 -0.39397E+05
 0.19503004E+02 -0.45787E+05
 0.19553005E+02  0.35888E+05
 0.19603004E+02  0.15252E+04
 0.19653006E+02  0.16037E+05
 0.19703005E+02  0.37739E+05
 0.19753004E+02 -0.16743E+04
 0.19803005E+02 -0.44504E+04
 0.19853004E+02 -0.37806E+04
 0.19903006E+02  0.25063E+05
 0.19953005E+02  0.36850E+04
 0.20003004E+02  0.14762E+04
 0.20053005E+02  0.46395E+05
 0.20103004E+02 -0.28115E+04
 0.20153006E+02 -0.22879E+05
 0.20203005E+02  0.30370E+05
 0.20253004E+02  0.28513E+05
 0.20303005E+02 -0.31060E+05
 0.20353004E+02  0.62095E+04
 0.20403004E+02  0.53570E+05
 0.20453005E+02 -0.23642E+04
 0.20503004E+02 -0.22407E+05
 0.20553005E+02  0.67721E+04
 0.20603004E+02  0.33779E+05
 0.20653004E+02 -0.86658E+04
 0.20703005E+02  0.14218E+05
 0.20753004E+02  0.40554E+05
 0.20803005E+02 -0.45729E+04
 0.20853004E+02 -0.86494E+04
 0.20903004E+02  0.26429E+05
 0.20953005E+02  0.12848E+05
 0.21003004E+02 -0.22414E+05
 0.21053005E+02  0.44642E+05
 0.21103004E+02  0.42962E+05
 0.21153004E+02 -0.20147E+05
 0.21203005E+02  0.49679E+04
 0.21253004E+02  0.35494E+05
 0.21303005E+02  0.16633E+05
 0.21353004E+02 -0.92706E+04
 0.21403004E+02  0.11131E+05
 0.21453005E+02  0.11553E+05
 0.21503004E+02 -0.13322E+05
 0.21553005E+02  0.95646E+04
 0.21603004E+02  0.32289E+05
 0.21653004E+02  0.28711E+05
 0.21703005E+02  0.40505E+03
 0.21753004E+02 -0.22437E+05
 0.21803005E+02 -0.21060E+05
 0.21853004E+02  0.32339E+05
 0.21903004E+02  0.28904E+05
 0.21953005E+02 -0.13028E+05
 0.22003004E+02  0.18239E+05
 0.22053005E+02  0.15529E+05
 0.22103004E+02  0.72317E+04
 0.22153004E+02 -0.11008E+05
 0.22203005E+02  0.64380E+04
 0.22253004E+02  0.11143E+05
 0.22303005E+02  0.31052E+05
 0.22353004E+02  0.22347E+05
 0.22403004E+02 -0.84048E+04
 0.22453005E+02 -0.12036E+05
 0.22503004E+02  0.13496E+05
 0.22553005E+02  0.46515E+05
 0.22603004E+02 -0.11057E+05
 0.22653004E+02  0.21176E+05
 0.22703005E+02  0.25848E+05
 0.22753004E+02 -0.52175E+04
 0.22803005E+02  0.45115E+03
 0.22853004E+02  0.34441E+05
 0.22903004E+02  0.12449E+05
 0.22953005E+02 -0.13596E+05
 0.23003004E+02  0.18883E+05
 0.23053005E+02  0.21244E+05
 0.23103004E+02  0.56517E+04
 0.23153004E+02 -0.40768E+03
 0.23203005E+02 -0.13022E+04
 0.23253004E+02  0.15745E+05
 0.23303005E+02  0.11366E+05
 0.23353004E+02 -0.26293E+04
 0.23403004E+02  0.30653E+05
 0.23453005E+02  0.73604E+04
 0.23503004E+02  0.30653E+04
 0.23553005E+02 -0.66527E+04
 0.23603004E+02  0.52566E+04
 0.23653004E+02  0.28512E+05
 0.23703005E+02  0.16767E+05
 0.23753004E+02  0.12019E+05
 0.23803005E+02  0.90400E+04
 0.23853004E+02  0.14309E+05
 0.23903004E+02  0.14521E+05
 0.23953005E+02  0.64981E+04
 0.24003004E+02  0.55173E+04
 0.24053005E+02  0.98586E+04
 0.24103004E+02  0.15791E+05
 0.24153004E+02  0.53280E+03
 0.24203005E+02 -0.13166E+05
 0.24253004E+02  0.39346E+05
 0.24303005E+02  0.28655E+05
 0.24353004E+02 -0.78181E+04
 0.24403004E+02 -0.22915E+04
 0.24453005E+02  0.14213E+05
 0.24503004E+02  0.20105E+05
 0.24553005E+02 -0.10802E+05
 0.24603004E+02  0.11739E+05
 0.24653004E+02  0.31362E+05
 0.24703005E+02 -0.46479E+04
 0.24753004E+02 -0.11773E+05
 0.24803005E+02  0.25213E+05
 0.24853004E+02  0.37195E+05
 0.24903004E+02  0.13079E+04
 0.24953005E+02 -0.11283E+04
 0.25003004E+02  0.10228E+05
 0.25053005E+02 -0.76022E+04
 0.25103004E+02 -0.20853E+04
 0.25153004E+02  0.15072E+05
 0.25203005E+02  0.20890E+05
 0.25253004E+02 -0.19479E+04
 0.25303005E+02 -0.27168E+04
 0.25353004E+02  0.16320E+05
 0.25403004E+02  0.20299E+05
 0.25453005E+02  0.47244E+04
 0.25503004E+02  0.61923E+04
 0.25553005E+02  0.27656E+05
 0.25603004E+02 -0.43512E+04
 0.25653004E+02 -0.78760E+04
 0.25703005E+02  0.24255E+05
 0.25753004E+02  0.32525E+05
 0.25803005E+02  0.11895E+05
 0.25853004E+02 -0.66442E+04
 0.25903004E+02  0.12362E+05
 0.25953005E+02  0.16389E+05
 0.26003004E+02  0.48819E+04
 0.26053005E+02  0.47508E+04
 0.26103004E+02  0.15237E+05
 0.26153004E+02  0.25963E+05
 0.26203005E+02  0.11138E+05
 0.26253004E+02  0.92227E+04
 0.26303005E+02  0.11250E+05
 0.26353004E+02  0.50840E+04
 0.26403004E+02  0.35456E+04
 0.26453005E+02  0.16379E+04
 0.26503004E+02  0.15259E+05
 0.26553005E+02  0.20595E+05
 0.26603004E+02 -0.75866E+04
 0.26653004E+02  0.10130E+04
 0.26703005E+02  0.27875E+05
 0.26753004E+02  0.66456E+04
 0.26803005E+02  0.15105E+05
 0.26853004E+02  0.13298E+05
 0.26903004E+02 -0.17579E+02
 0.26953005E+02  0.90101E+04
 0.27003004E+02  0.11184E+05
 0.27053003E+02  0.15808E+04
 0.27103004E+02  0.14490E+03
 0.27153004E+02  0.28926E+05
 0.27203005E+02  0.74074E+04
 0.27253004E+02 -0.93251E+04
 0.27303003E+02  0.18514E+05
 0.27353004E+02  0.19989E+05
 0.27403004E+02 -0.26319E+04
 0.27453005E+02  0.80467E+04
 0.27503004E+02  0.23053E+05
 0.27553003E+02  0.13606E+05
 0.27603004E+02  0.20972E+04
 0.27653004E+02  0.11691E+05
 0.27703005E+02  0.20515E+05
 0.27753004E+02  0.99056E+03
 0.27803003E+02  0.11303E+05
 0.27853004E+02  0.11223E+05
 0.27903004E+02  0.15814E+05
 0.27953005E+02  0.35076E+04
 0.28003004E+02 -0.75966E+04
 0.28053003E+02  0.19076E+05
 0.28103004E+02  0.18012E+05
 0.28153004E+02  0.22027E+04
 0.28203005E+02  0.67752E+04
 0.28253004E+02  0.23594E+05
 0.28303003E+02  0.77776E+04
 0.28353004E+02 -0.32429E+04
 0.28403004E+02  0.16426E+05
 0.28453005E+02  0.14536E+05
 0.28503004E+02  0.21037E+04
 0.28553003E+02  0.11068E+05
 0.28603004E+02  0.64019E+04
 0.28653004E+02  0.31801E+04
 0.28703005E+02  0.92659E+04
 0.28753004E+02  0.10332E+05
 0.28803003E+02  0.10830E+05
 0.28853004E+02  0.13040E+05
 0.28903004E+02  0.20967E+05
 0.28953005E+02  0.12192E+05
 0.29003004E+02  0.62824E+04
 0.29053003E+02  0.72049E+04
 0.29103004E+02  0.10476E+05
 0.29153004E+02  0.18312E+05
 0.29203005E+02  0.66624E+04
 0.29253004E+02  0.22828E+04
 0.29303003E+02  0.10012E+05
 0.29353004E+02  0.14017E+05
 0.29403004E+02  0.83596E+04
 0.29453005E+02  0.83529E+04
 0.29503004E+02  0.10285E+05
 0.29553003E+02  0.73369E+04
 0.29603004E+02  0.10038E+05
 0.29653004E+02  0.95686E+04
 0.29703005E+02  0.11677E+05
 0.29753004E+02  0.30898E+04
 0.29803003E+02  0.11284E+05
 0.29853004E+02  0.10718E+05
 0.29903004E+02 -0.12680E+04
 0.29953005E+02  0.17621E+05
 0.30003004E+02  0.15139E+05
 0.30053005E+02  0.71526E+04
 0.30103004E+02  0.85919E+04
 0.30153004E+02  0.55052E+04
 0.30203003E+02  0.56595E+04
 0.30253002E+02  0.12811E+05
 0.30303005E+02  0.77682E+04
 0.30353004E+02 -0.66139E+04
 0.30403004E+02  0.14559E+05
 0.30453003E+02  0.17251E+05
 0.30503002E+02  0.26328E+04
 0.30553005E+02  0.11139E+05
 0.30603004E+02  0.12246E+05
 0.30653004E+02  0.76096E+04
 0.30703003E+02  0.44792E+04
 0.30753002E+02  0.11105E+05
 0.30803005E+02  0.18622E+05
 0.30853004E+02  0.11473E+05
 0.30903004E+02  0.78521E+04
 0.30953003E+02  0.17284E+05
 0.31003002E+02  0.11127E+05
 0.31053005E+02  0.70493E+04
 0.31103004E+02  0.13697E+05
 0.31153004E+02  0.10820E+05
 0.31203003E+02  0.43494E+04
 0.31253002E+02  0.11309E+05
 0.31303005E+02  0.14697E+05
 0.31353004E+02 -0.11427E+04
 0.31403004E+02  0.16808E+05
 0.31453003E+02  0.19736E+05
 0.31503002E+02  0.89681E+04
 0.31553005E+02  0.70102E+04
 0.31603004E+02  0.11250E+05
 0.31653004E+02  0.17888E+05
 0.31703003E+02 -0.72767E+03
 0.31753002E+02  0.90314E+03
 0.31803005E+02  0.81487E+04
 0.31853004E+02  0.13848E+05
 0.31903004E+02  0.12211E+05
 0.31953003E+02  0.10682E+05
 0.32003002E+02  0.80794E+04
 0.32053005E+02  0.32024E+04
 0.32103004E+02  0.13050E+05
 0.32153004E+02  0.17100E+05
 0.32203003E+02  0.10434E+05
 0.32253002E+02  0.46956E+04
 0.32303005E+02  0.10039E+05
 0.32353004E+02  0.40495E+04
 0.32403004E+02  0.54986E+04
 0.32453003E+02  0.19146E+05
 0.32503002E+02  0.14822E+05
 0.32553005E+02 -0.77199E+04
 0.32603004E+02 -0.33034E+03
 0.32653004E+02  0.22262E+05
 0.32703003E+02  0.11296E+05
 0.32753002E+02  0.12739E+05
 0.32803005E+02  0.98307E+04
 0.32853004E+02  0.37158E+04
 0.32903004E+02  0.15460E+05
 0.32953003E+02  0.64835E+04
 0.33003002E+02  0.66188E+04
 0.33053005E+02  0.14741E+05
 0.33103004E+02  0.43496E+04
 0.33153004E+02  0.45190E+04
 0.33203003E+02  0.97028E+04
 0.33253002E+02  0.16054E+05
 0.33303005E+02  0.12271E+05
 0.33353004E+02  0.88704E+04
 0.33403004E+02  0.15641E+05
 0.33453003E+02  0.75178E+04
 0.33503002E+02  0.75004E+04
 0.33553005E+02  0.11968E+05
 0.33603004E+02  0.50638E+04
 0.33653004E+02  0.59006E+04
 0.33703003E+02  0.13834E+05
 0.33753002E+02  0.10765E+05
 0.33803005E+02  0.10388E+05
 0.33853004E+02  0.11722E+05
 0.33903004E+02  0.40596E+04
 0.33953003E+02  0.13247E+05
 0.34003002E+02  0.20656E+05
 0.34053005E+02  0.89405E+04
 0.34103004E+02  0.16051E+04
 0.34153004E+02  0.89766E+04
 0.34203003E+02  0.11179E+05
 0.34253002E+02  0.10331E+05
 0.34303005E+02  0.52491E+04
 0.34353004E+02  0.10316E+05
 0.34403004E+02  0.15496E+05
 0.34453003E+02  0.59635E+04
 0.34503002E+02  0.98448E+04
 0.34553005E+02  0.42584E+04
 0.34603004E+02  0.68940E+04
 0.34653004E+02  0.18070E+04
 0.34703003E+02  0.92207E+04
 0.34753002E+02  0.19093E+05
 0.34803005E+02  0.94030E+04
 0.34853004E+02  0.10473E+05
 0.34903004E+02  0.61969E+04
 0.34953003E+02  0.47519E+04
 0.35003002E+02  0.71185E+04
 0.35053005E+02  0.13777E+05
 0.35103004E+02  0.17458E+05
 0.35153004E+02  0.12090E+05
 0.35203003E+02  0.86596E+04
 0.35253002E+02  0.13867E+05
 0.35303005E+02  0.97940E+04
 0.35353004E+02  0.10088E+05
 0.35403004E+02  0.18023E+05
 0.35453003E+02  0.15345E+05
 0.35503002E+02  0.56509E+04
 0.35553005E+02  0.57534E+04
 0.35603004E+02  0.79566E+04
 0.35653004E+02  0.91357E+04
 0.35703003E+02  0.10650E+05
 0.35753002E+02  0.94622E+04
 0.35803005E+02  0.91982E+04
 0.35853004E+02  0.62927E+04
 0.35903004E+02  0.12377E+05
 0.35953003E+02  0.10314E+05
 0.36003002E+02  0.70257E+04
 0.36053005E+02  0.69611E+04
 0.36103004E+02  0.86042E+04
 0.36153004E+02  0.81743E+04
 0.36203003E+02  0.76423E+04
 0.36253002E+02  0.12160E+05
 0.36303005E+02  0.80253E+04
 0.36353004E+02  0.31404E+04
 0.36403004E+02  0.50810E+04
 0.36453003E+02  0.11047E+05
 0.36503002E+02  0.98055E+04
 0.36553005E+02  0.11869E+05
 0.36603004E+02  0.12982E+05
 0.36653004E+02  0.95152E+04
 0.36703003E+02  0.85046E+04
 0.36753002E+02  0.74049E+04
 0.36803005E+02  0.14277E+05
 0.36853004E+02  0.13377E+05
 0.36903004E+02  0.55496E+04
 0.36953003E+02  0.90132E+04
 0.37003002E+02  0.14036E+05
 0.37053005E+02  0.61917E+04
 0.37103004E+02  0.58198E+04
 0.37153004E+02  0.15973E+05
 0.37203003E+02  0.16161E+05
 0.37253002E+02  0.11098E+05
 0.37303005E+02  0.62486E+04
 0.37353004E+02  0.87811E+04
 0.37403004E+02  0.55242E+04
 0.37453003E+02  0.74147E+04
 0.37503002E+02  0.89570E+04
 0.37553005E+02  0.10934E+05
 0.37603004E+02  0.10392E+05
 0.37653004E+02  0.73209E+04
 0.37703003E+02  0.12863E+05
 0.37753002E+02  0.12729E+05
 0.37803005E+02  0.77250E+04
 0.37853004E+02  0.97776E+04
 0.37903004E+02  0.13229E+05
 0.37953003E+02  0.93941E+04
 0.38003002E+02  0.86273E+04
 0.38053005E+02  0.94212E+04
 0.38103004E+02  0.10746E+05
 0.38153004E+02  0.37936E+04
 0.38203003E+02  0.85801E+04
 0.38253002E+02  0.13111E+05
 0.38303005E+02  0.10141E+05
 0.38353004E+02  0.48406E+04
 0.38403004E+02  0.99538E+04
 0.38453003E+02  0.11360E+05
 0.38503002E+02  0.40986E+04
 0.38553005E+02  0.12123E+05
 0.38603004E+02  0.15275E+05
 0.38653004E+02  0.10509E+05
 0.38703003E+02  0.59203E+04
 0.38753002E+02  0.67787E+04
 0.38803005E+02  0.12488E+05
 0.38853004E+02  0.10844E+05
 0.38903004E+02  0.86165E+04
 0.38953003E+02  0.16820E+05
 0.39003002E+02  0.12452E+05
 0.39053005E+02  0.96323E+04
 0.39103004E+02  0.83634E+04
 0.39153004E+02  0.12397E+05
 0.39203003E+02  0.11996E+05
 0.39253002E+02  0.43099E+04
 0.39303005E+02  0.92128E+04
 0.39353004E+02  0.10553E+05
 0.39403004E+02  0.77739E+04
 0.39453003E+02  0.63208E+04
 0.39503002E+02  0.10981E+05
 0.39553005E+02  0.95471E+04
 0.39603004E+02  0.44422E+04
 0.39653004E+02  0.91917E+04
 0.39703003E+02  0.11784E+05
 0.39753002E+02  0.10775E+05
 0.39803005E+02  0.14523E+05
 0.39853004E+02  0.10407E+05
 0.39903004E+02  0.41851E+04
 0.39953003E+02  0.61929E+04
 0.40003002E+02  0.11997E+05
 0.40053005E+02  0.12727E+05
 0.40103004E+02  0.58841E+04
 0.40153004E+02  0.45390E+04
 0.40203003E+02  0.12052E+05
 0.40253002E+02  0.11654E+05
 0.40303005E+02  0.74734E+04
 0.40353004E+02  0.77053E+04
 0.40403004E+02  0.12501E+05
 0.40453003E+02  0.12901E+05
 0.40503002E+02  0.47371E+04
 0.40553005E+02  0.59794E+04
 0.40603004E+02  0.14157E+05
 0.40653004E+02  0.11939E+05
 0.40703003E+02  0.98772E+04
 0.40753002E+02  0.13089E+05
 0.40803005E+02  0.87404E+04
 0.40853004E+02  0.77164E+04
 0.40903004E+02  0.87294E+04
 0.40953003E+02  0.11931E+05
 0.41003002E+02  0.96575E+04
 0.41053005E+02  0.80204E+04
 0.41103004E+02  0.10218E+05
 0.41153004E+02  0.91264E+04
 0.41203003E+02  0.11664E+05
 0.41253002E+02  0.10837E+05
 0.41303005E+02  0.79445E+04
 0.41353004E+02  0.10259E+05
 0.41403004E+02  0.85785E+04
 0.41453003E+02  0.64254E+04
 0.41503002E+02  0.11547E+05
 0.41553005E+02  0.78403E+04
 0.41603004E+02  0.10601E+05
 0.41653004E+02  0.10921E+05
 0.41703003E+02  0.56127E+04
 0.41753002E+02  0.96035E+04
 0.41803005E+02  0.15959E+05
 0.41853004E+02  0.12795E+05
 0.41903004E+02  0.43684E+04
 0.41953003E+02  0.10029E+05
 0.42003002E+02  0.13041E+05
 0.42053005E+02  0.55599E+04
 0.42103004E+02  0.64983E+04
 0.42153004E+02  0.11637E+05
 0.42203003E+02  0.72978E+04
 0.42253002E+02  0.87721E+04
 0.42303005E+02  0.13070E+05
 0.42353004E+02  0.96028E+04
 0.42403004E+02  0.88827E+04
 0.42453003E+02  0.10572E+05
 0.42503002E+02  0.10646E+05
 0.42553005E+02  0.10132E+05
 0.42603004E+02  0.60660E+04
 0.42653004E+02  0.78436E+04
 0.42703003E+02  0.10594E+05
 0.42753002E+02  0.77077E+04
 0.42803001E+02  0.86904E+04
 0.42853004E+02  0.85093E+04
 0.42903004E+02  0.99815E+04
 0.42953003E+02  0.14400E+05
 0.43003002E+02  0.12305E+05
 0.43053001E+02  0.73248E+04
 0.43103004E+02  0.95317E+04
 0.43153004E+02  0.13677E+05
 0.43203003E+02  0.10959E+05
 0.43253002E+02  0.85927E+04
 0.43303001E+02  0.47481E+04
 0.43353004E+02  0.84941E+04
 0.43403004E+02  0.12200E+05
 0.43453003E+02  0.10505E+05
 0.43503002E+02  0.94266E+04
 0.43553001E+02  0.89117E+04
 0.43603004E+02  0.11839E+05
 0.43653004E+02  0.92687E+04
 0.43703003E+02  0.10298E+05
 0.43753002E+02  0.11820E+05
 0.43803001E+02  0.86956E+04
 0.43853004E+02  0.94329E+04
 0.43903004E+02  0.12243E+05
 0.43953003E+02  0.98259E+04
 0.44003002E+02  0.67472E+04
 0.44053001E+02  0.86017E+04
 0.44103004E+02  0.10800E+05
 0.44153004E+02  0.77711E+04
 0.44203003E+02  0.64547E+04
 0.44253002E+02  0.12734E+05
 0.44303001E+02  0.99814E+04
 0.44353004E+02  0.54926E+04
 0.44403004E+02  0.89335E+04
 0.44453003E+02  0.10139E+05
 0.44503002E+02  0.11169E+05
 0.44553001E+02  0.89015E+04
 0.44603004E+02  0.90112E+04
 0.44653004E+02  0.12269E+05
 0.44703003E+02  0.75357E+04
 0.44753002E+02  0.64111E+04
 0.44803001E+02  0.11356E+05
 0.44853004E+02  0.10755E+05
 0.44903004E+02  0.94788E+04
 0.44953003E+02  0.87208E+04
 0.45003002E+02  0.11816E+05
 0.45053001E+02  0.11443E+05
 0.45103004E+02  0.75393E+04
 0.45153004E+02  0.86688E+04
 0.45203003E+02  0.80181E+04
 0.45253002E+02  0.10667E+05
 0.45303001E+02  0.11456E+05
 0.45353004E+02  0.89418E+04
 0.45403004E+02  0.90395E+04
 0.45453003E+02  0.10522E+05
 0.45503002E+02  0.10410E+05
 0.45553001E+02  0.94598E+04
 0.45603004E+02  0.88861E+04
 0.45653004E+02  0.11040E+05
 0.45703003E+02  0.12105E+05
 0.45753002E+02  0.64162E+04
 0.45803001E+02  0.85508E+04
 0.45853004E+02  0.13456E+05
 0.45903004E+02  0.10921E+05
 0.45953003E+02  0.95713E+04
 0.46003002E+02  0.92577E+04
 0.46053001E+02  0.93915E+04
 0.46103004E+02  0.10664E+05
 0.46153004E+02  0.11235E+05
 0.46203003E+02  0.11012E+05
 0.46253002E+02  0.85899E+04
 0.46303001E+02  0.78793E+04
 0.46353004E+02  0.10436E+05
 0.46403004E+02  0.85576E+04
 0.46453003E+02  0.73031E+04
 0.46503002E+02  0.77961E+04
 0.46553001E+02  0.10454E+05
 0.46603004E+02  0.10992E+05
 0.46653004E+02  0.76362E+04
 0.46703003E+02  0.13389E+05
 0.46753002E+02  0.94851E+04
 0.46803001E+02  0.62121E+04
 0.46853004E+02  0.97329E+04
 0.46903004E+02  0.10324E+05
 0.46953003E+02  0.11731E+05
 0.47003002E+02  0.81852E+04
 0.47053001E+02  0.93722E+04
 0.47103004E+02  0.94399E+04
 0.47153004E+02  0.93876E+04
 0.47203003E+02  0.96815E+04
 0.47253002E+02  0.78060E+04
 0.47303001E+02  0.10891E+05
 0.47353004E+02  0.11787E+05
 0.47403004E+02  0.90718E+04
 0.47453003E+02  0.10445E+05
 0.47503002E+02  0.11292E+05
 0.47553001E+02  0.93479E+04
 0.47603004E+02  0.89155E+04
 0.47653004E+02  0.10012E+05
 0.47703003E+02  0.97182E+04
 0.47753002E+02  0.87869E+04
 0.47803001E+02  0.92623E+04
 0.47853004E+02  0.90847E+04
 0.47903004E+02  0.10046E+05
 0.47953003E+02  0.97193E+04
 0.48003002E+02  0.85112E+04
 0.48053001E+02  0.76238E+04
 0.48103004E+02  0.90154E+04
 0.48153004E+02  0.91062E+04
 0.48203003E+02  0.91118E+04
 0.48253002E+02  0.11707E+05
 0.48303001E+02  0.12070E+05
 0.48353004E+02  0.89618E+04
 0.48403004E+02  0.64476E+04
 0.48453003E+02  0.10404E+05
 0.48503002E+02  0.11846E+05
 0.48553001E+02  0.87739E+04
 0.48603004E+02  0.58967E+04
 0.48653004E+02  0.83883E+04
 0.48703003E+02  0.12798E+05
 0.48753002E+02  0.10639E+05
 0.48803001E+02  0.83971E+04
 0.48853004E+02  0.97408E+04
 0.48903004E+02  0.12000E+05
 0.48953003E+02  0.11542E+05
 0.49003002E+02  0.95122E+04
 0.49053001E+02  0.90815E+04
 0.49103004E+02  0.10588E+05
 0.49153004E+02  0.10960E+05
 0.49203003E+02  0.10479E+05
 0.49253002E+02  0.91163E+04
 0.49303001E+02  0.84229E+04
 0.49353004E+02  0.11734E+05
 0.49403004E+02  0.92796E+04
 0.49453003E+02  0.70654E+04
 0.49503002E+02  0.79872E+04
 0.49553001E+02  0.95555E+04
 0.49603004E+02  0.94139E+04
 0.49653004E+02  0.78312E+04
 0.49703003E+02  0.87275E+04
 0.49753002E+02  0.93710E+04
 0.49803001E+02  0.82802E+04
 0.49853004E+02  0.86942E+04
 0.49903004E+02  0.11826E+05
 0.49953003E+02  0.10892E+05
 0.50003002E+02  0.98075E+04
 0.50053001E+02  0.10194E+05
 0.50103004E+02  0.93371E+04
 0.50153004E+02  0.71422E+04
 0.50203003E+02  0.97742E+04
 0.50253002E+02  0.12115E+05
 0.50303001E+02  0.10000E+05
 0.50353004E+02  0.10725E+05
 0.50403004E+02  0.11548E+05
 0.50453003E+02  0.95127E+04
 0.50503002E+02  0.70212E+04
 0.50553001E+02  0.93024E+04
 0.50603004E+02  0.10817E+05
 0.50653004E+02  0.87256E+04
 0.50703003E+02  0.88664E+04
 0.50753002E+02  0.98100E+04
 0.50803001E+02  0.10098E+05
 0.50853004E+02  0.10510E+05
 0.50903004E+02  0.11278E+05
 0.50953003E+02  0.11174E+05
 0.51003002E+02  0.87509E+04
 0.51053001E+02  0.91182E+04
 0.51103004E+02  0.95288E+04
 0.51153004E+02  0.82019E+04
 0.51203003E+02  0.92962E+04
 0.51253002E+02  0.10092E+05
 0.51303001E+02  0.11043E+05
 0.51353004E+02  0.96673E+04
 0.51403004E+02  0.10282E+05
 0.51453003E+02  0.96383E+04
 0.51503002E+02  0.69381E+04
 0.51553001E+02  0.79790E+04
 0.51603004E+02  0.10937E+05
 0.51653004E+02  0.10229E+05
 0.51703003E+02  0.74027E+04
 0.51753002E+02  0.91165E+04
 0.51803001E+02  0.10755E+05
 0.51853004E+02  0.10788E+05
 0.51903004E+02  0.92377E+04
 0.51953003E+02  0.91566E+04
 0.52003002E+02  0.10055E+05
 0.52053001E+02  0.10411E+05
 0.52103004E+02  0.10314E+05
 0.52153004E+02  0.93057E+04
 0.52203003E+02  0.10241E+05
 0.52253002E+02  0.90092E+04
 0.52303001E+02  0.66595E+04
 0.52353004E+02  0.81469E+04
 0.52403004E+02  0.11032E+05
 0.52453003E+02  0.11109E+05
 0.52503002E+02  0.10241E+05
 0.52553001E+02  0.95024E+04
 0.52603004E+02  0.94193E+04
 0.52653004E+02  0.10949E+05
 0.52703003E+02  0.10103E+05
 0.52753002E+02  0.89650E+04
 0.52803001E+02  0.96252E+04
 0.52853004E+02  0.96175E+04
 0.52903004E+02  0.79947E+04
 0.52953003E+02  0.97837E+04
 0.53003002E+02  0.10736E+05
 0.53053001E+02  0.93212E+04
 0.53103004E+02  0.87792E+04
 0.53153004E+02  0.94471E+04
 0.53203003E+02  0.10468E+05
 0.53253002E+02  0.10029E+05
 0.53303001E+02  0.10577E+05
 0.53353004E+02  0.93801E+04
 0.53403004E+02  0.90480E+04
 0.53453003E+02  0.80662E+04
 0.53503002E+02  0.85566E+04
 0.53553001E+02  0.10389E+05
 0.53603004E+02  0.96472E+04
 0.53653004E+02  0.97519E+04
 0.53703003E+02  0.93117E+04
 0.53753002E+02  0.89135E+04
 0.53803001E+02  0.10058E+05
 0.53853004E+02  0.10426E+05
 0.53903004E+02  0.96508E+04
 0.53953003E+02  0.88507E+04
 0.54003002E+02  0.10383E+05
 0.54053001E+02  0.10944E+05
 0.54103004E+02  0.90565E+04
 0.54153004E+02  0.93513E+04
 0.54203003E+02  0.10559E+05
 0.54253002E+02  0.10669E+05
 0.54303001E+02  0.90194E+04
 0.54353004E+02  0.10302E+05
 0.54403004E+02  0.11463E+05
 0.54453003E+02  0.89432E+04
 0.54503002E+02  0.80713E+04
 0.54553001E+02  0.88835E+04
 0.54603004E+02  0.87932E+04
 0.54653004E+02  0.94592E+04
 0.54703003E+02  0.95818E+04
 0.54753002E+02  0.74767E+04
 0.54803001E+02  0.96344E+04
 0.54853004E+02  0.10231E+05
 0.54903004E+02  0.76559E+04
 0.54953003E+02  0.10441E+05
 0.55003002E+02  0.12041E+05
 0.55053001E+02  0.94853E+04
 0.55103004E+02  0.94049E+04
 0.55153004E+02  0.10505E+05
 0.55203003E+02  0.10194E+05
 0.55253002E+02  0.95749E+04
 0.55303001E+02  0.10263E+05
 0.55353004E+02  0.98327E+04
 0.55403004E+02  0.84921E+04
 0.55453003E+02  0.99778E+04
 0.55503002E+02  0.85453E+04
 0.55553001E+02  0.85200E+04
 0.55603004E+02  0.10624E+05
 0.55653004E+02  0.99918E+04
 0.55703003E+02  0.10141E+05
 0.55753002E+02  0.95760E+04
 0.55803001E+02  0.94240E+04
 0.55853001E+02  0.98278E+04
 0.55903004E+02  0.94246E+04
 0.55953003E+02  0.10232E+05
 0.56003002E+02  0.10146E+05
 0.56053001E+02  0.95267E+04
 0.56103001E+02  0.10146E+05
 0.56153004E+02  0.10133E+05
 0.56203003E+02  0.89555E+04
 0.56253002E+02  0.95473E+04
 0.56303001E+02  0.11229E+05
 0.56353001E+02  0.98201E+04
 0.56403004E+02  0.94012E+04
 0.56453003E+02  0.90436E+04
 0.56503002E+02  0.10187E+05
 0.56553001E+02  0.10485E+05
 0.56603001E+02  0.95240E+04
 0.56653004E+02  0.10536E+05
 0.56703003E+02  0.91934E+04
 0.56753002E+02  0.90631E+04
 0.56803001E+02  0.89148E+04
 0.56853001E+02  0.90906E+04
 0.56903004E+02  0.92017E+04
 0.56953003E+02  0.10047E+05
 0.57003002E+02  0.10047E+05
 0.57053001E+02  0.82478E+04
 0.57103001E+02  0.89358E+04
 0.57153004E+02  0.10239E+05
 0.57203003E+02  0.10465E+05
 0.57253002E+02  0.91628E+04
 0.57303001E+02  0.89604E+04
 0.57353001E+02  0.90750E+04
 0.57403004E+02  0.97789E+04
 0.57453003E+02  0.95334E+04
 0.57503002E+02  0.95709E+04
 0.57553001E+02  0.10406E+05
 0.57603001E+02  0.88290E+04
 0.57653004E+02  0.95995E+04
 0.57703003E+02  0.10155E+05
 0.57753002E+02  0.10468E+05
 0.57803001E+02  0.10034E+05
 0.57853001E+02  0.83361E+04
 0.57903004E+02  0.98139E+04
 0.57953003E+02  0.95393E+04
 0.58003002E+02  0.93207E+04
 0.58053001E+02  0.10260E+05
 0.58103001E+02  0.97738E+04
 0.58153004E+02  0.90165E+04
 0.58203003E+02  0.97009E+04
 0.58253002E+02  0.99366E+04
 0.58303001E+02  0.87714E+04
 0.58353001E+02  0.90515E+04
 0.58403004E+02  0.99776E+04
 0.58453003E+02  0.10778E+05
 0.58503002E+02  0.10006E+05
 0.58553001E+02  0.91832E+04
 0.58603001E+02  0.94921E+04
 0.58653004E+02  0.10607E+05
 0.58703003E+02  0.92518E+04
 0.58753002E+02  0.76944E+04
 0.58803001E+02  0.10196E+05
 0.58853001E+02  0.10715E+05
 0.58903004E+02  0.76901E+04
 0.58953003E+02  0.93202E+04
 0.59003002E+02  0.12020E+05
 0.59053001E+02  0.10101E+05
 0.59103001E+02  0.87621E+04
 0.59153004E+02  0.90012E+04
 0.59203003E+02  0.94321E+04
 0.59253002E+02  0.90440E+04
 0.59303001E+02  0.98399E+04
 0.59353001E+02  0.11322E+05
 0.59403004E+02  0.10837E+05
 0.59453003E+02  0.92922E+04
 0.59503002E+02  0.80237E+04
 0.59553001E+02  0.87999E+04
 0.59603001E+02  0.10260E+05
 0.59653004E+02  0.94931E+04
 0.59703003E+02  0.10022E+05
 0.59753002E+02  0.96743E+04
 0.59803001E+02  0.95505E+04
 0.59853001E+02  0.10212E+05
 0.59903004E+02  0.88086E+04
 0.59953003E+02  0.97521E+04
 0.60003002E+02  0.11202E+05
 0.60053001E+02  0.10210E+05
 0.60103001E+02  0.83522E+04
 0.60153004E+02  0.90132E+04
 0.60203003E+02  0.10070E+05
 0.60253002E+02  0.10187E+05
 0.60303001E+02  0.97899E+04
 0.60353001E+02  0.95611E+04
 0.60403004E+02  0.90495E+04
 0.60453003E+02  0.93856E+04
 0.60503002E+02  0.10387E+05
 0.60553001E+02  0.92541E+04
 0.60603001E+02  0.10256E+05
 0.60653004E+02  0.95559E+04
 0.60703003E+02  0.90376E+04
 0.60753002E+02  0.10229E+05
 0.60803001E+02  0.91311E+04
 0.60853001E+02  0.91358E+04
 0.60903004E+02  0.96514E+04
 0.60953003E+02  0.96342E+04
 0.61003002E+02  0.95021E+04
 0.61053001E+02  0.10289E+05
 0.61103001E+02  0.10604E+05
 0.61153004E+02  0.95299E+04
 0.61203003E+02  0.95295E+04
 0.61253002E+02  0.98584E+04
 0.61303001E+02  0.98453E+04
 0.61353001E+02  0.99450E+04
 0.61403004E+02  0.91928E+04
 0.61453003E+02  0.94011E+04
 0.61503002E+02  0.97157E+04
 0.61553001E+02  0.90650E+04
 0.61603001E+02  0.90327E+04
 0.61653004E+02  0.94281E+04
 0.61703003E+02  0.10124E+05
 0.61753002E+02  0.95533E+04
 0.61803001E+02  0.89972E+04
 0.61853001E+02  0.92411E+04
 0.61903004E+02  0.90681E+04
 0.61953003E+02  0.92595E+04
 0.62003002E+02  0.99098E+04
 0.62053001E+02  0.95197E+04
 0.62103004E+02  0.93127E+04
 0.62153000E+02  0.93547E+04
 0.62203003E+02  0.90943E+04
 0.62252998E+02  0.95916E+04
 0.62303001E+02  0.91641E+04
 0.62353004E+02  0.95477E+04
 0.62403000E+02  0.97036E+04
 0.62453003E+02  0.95354E+04
 0.62502998E+02  0.92194E+04
 0.62553001E+02  0.89030E+04
 0.62603004E+02  0.96574E+04
 0.62653000E+02  0.10517E+05
 0.62703003E+02  0.94996E+04
 0.62752998E+02  0.86011E+04
 0.62803001E+02  0.10202E+05
 0.62853004E+02  0.99235E+04
 0.62903000E+02  0.89404E+04
 0.62953003E+02  0.94031E+04
 0.63002998E+02  0.10114E+05
 0.63053001E+02  0.10311E+05
 0.63103004E+02  0.10172E+05
 0.63153000E+02  0.95358E+04
 0.63203003E+02  0.93529E+04
 0.63252998E+02  0.95843E+04
 0.63303001E+02  0.97071E+04
 0.63353004E+02  0.10448E+05
 0.63403000E+02  0.10331E+05
 0.63453003E+02  0.10336E+05
 0.63502998E+02  0.10454E+05
 0.63553001E+02  0.99467E+04
 0.63603004E+02  0.99738E+04
 0.63653000E+02  0.98546E+04
 0.63703003E+02  0.91076E+04
 0.63752998E+02  0.95520E+04
 0.63803001E+02  0.10536E+05
 0.63853004E+02  0.95698E+04
 0.63903000E+02  0.81596E+04
 0.63953003E+02  0.91126E+04
 0.64002998E+02  0.10719E+05
 0.64053001E+02  0.10091E+05
 0.64103004E+02  0.95217E+04
 0.64153000E+02  0.94411E+04
 0.64203003E+02  0.93981E+04
 0.64252998E+02  0.93748E+04
 0.64303001E+02  0.94268E+04
 0.64353004E+02  0.10036E+05
 0.64403000E+02  0.10351E+05
 0.64453003E+02  0.90615E+04
 0.64502998E+02  0.79149E+04
 0.64553001E+02  0.88401E+04
 0.64603004E+02  0.10068E+05
 0.64653000E+02  0.10163E+05
 0.64703003E+02  0.95595E+04
 0.64752998E+02  0.99619E+04
 0.64803001E+02  0.97249E+04
 0.64853004E+02  0.93547E+04
 0.64903000E+02  0.94418E+04
 0.64953003E+02  0.93909E+04
 0.65002998E+02  0.99931E+04
 0.65053001E+02  0.97645E+04
 0.65103004E+02  0.94240E+04
 0.65153000E+02  0.10164E+05
 0.65203003E+02  0.98388E+04
 0.65252998E+02  0.96805E+04
 0.65303001E+02  0.98017E+04
 0.65353004E+02  0.93143E+04
 0.65403000E+02  0.96608E+04
 0.65453003E+02  0.98524E+04
 0.65502998E+02  0.93922E+04
 0.65553001E+02  0.87469E+04
 0.65603004E+02  0.98649E+04
 0.65653000E+02  0.10674E+05
 0.65703003E+02  0.96615E+04
 0.65752998E+02  0.94152E+04
 0.65803001E+02  0.99732E+04
 0.65853004E+02  0.10250E+05
 0.65903000E+02  0.94127E+04
 0.65953003E+02  0.88612E+04
 0.66002998E+02  0.10106E+05
 0.66053001E+02  0.10228E+05
 0.66103004E+02  0.94303E+04
 0.66153000E+02  0.97713E+04
 0.66203003E+02  0.96551E+04
 0.66252998E+02  0.96997E+04
 0.66303001E+02  0.10024E+05
 0.66353004E+02  0.95324E+04
 0.66403000E+02  0.93571E+04
 0.66453003E+02  0.96332E+04
 0.66502998E+02  0.97203E+04
 0.66553001E+02  0.10578E+05
 0.66603004E+02  0.99108E+04
 0.66653000E+02  0.91142E+04
 0.66703003E+02  0.96864E+04
 0.66752998E+02  0.10168E+05
 0.66803001E+02  0.10486E+05
 0.66853004E+02  0.90098E+04
 0.66903000E+02  0.88245E+04
 0.66953003E+02  0.92450E+04
 0.67002998E+02  0.87523E+04
 0.67053001E+02  0.87011E+04
 0.67103004E+02  0.92045E+04
 0.67153000E+02  0.10304E+05
 0.67203003E+02  0.98131E+04
 0.67252998E+02  0.91563E+04
 0.67303001E+02  0.98478E+04
 0.67353004E+02  0.99477E+04
 0.67403000E+02  0.93392E+04
 0.67453003E+02  0.94083E+04
 0.67502998E+02  0.95306E+04
 0.67553001E+02  0.97461E+04
 0.67603004E+02  0.93686E+04
 0.67653000E+02  0.90009E+04
 0.67703003E+02  0.97544E+04
 0.67752998E+02  0.94623E+04
 0.67803001E+02  0.95433E+04
 0.67853004E+02  0.99976E+04
 0.67903000E+02  0.95068E+04
 0.67953003E+02  0.93928E+04
 0.68002998E+02  0.96395E+04
 0.68053001E+02  0.99779E+04
 0.68103004E+02  0.99268E+04
 0.68153000E+02  0.94483E+04
 0.68203003E+02  0.92515E+04
 0.68252998E+02  0.94909E+04
 0.68303001E+02  0.10125E+05
 0.68353004E+02  0.10125E+05
 0.68403000E+02  0.94110E+04
 0.68453003E+02  0.96624E+04
 0.68502998E+02  0.97572E+04
 0.68553001E+02  0.99985E+04
 0.68603004E+02  0.10678E+05
 0.68653000E+02  0.10621E+05
 0.68703003E+02  0.98210E+04
 0.68752998E+02  0.89995E+04
 0.68803001E+02  0.96515E+04
 0.68853004E+02  0.98086E+04
 0.68903000E+02  0.97313E+04
 0.68953003E+02  0.10186E+05
 0.69002998E+02  0.96851E+04
 0.69053001E+02  0.89659E+04
 0.69103004E+02  0.91701E+04
 0.69153000E+02  0.97357E+04
 0.69203003E+02  0.96953E+04
 0.69252998E+02  0.99725E+04
 0.69303001E+02  0.10426E+05
 0.69353004E+02  0.94084E+04
 0.69403000E+02  0.85835E+04
 0.69453003E+02  0.88671E+04
 0.69502998E+02  0.93246E+04
 0.69553001E+02  0.94807E+04
 0.69603004E+02  0.96283E+04
 0.69653000E+02  0.92470E+04
 0.69703003E+02  0.91574E+04
 0.69752998E+02  0.96417E+04
 0.69803001E+02  0.95959E+04
 0.69853004E+02  0.93226E+04
 0.69903000E+02  0.89788E+04
 0.69953003E+02  0.92751E+04
 0.70002998E+02  0.91390E+04
 0.70053001E+02  0.92073E+04
 0.70103004E+02  0.90996E+04
 0.70153000E+02  0.94512E+04
 0.70203003E+02  0.10125E+05
 0.70252998E+02  0.96457E+04
 0.70303001E+02  0.93036E+04
 0.70353004E+02  0.97148E+04
 0.70403000E+02  0.98591E+04
 0.70453003E+02  0.95828E+04
 0.70502998E+02  0.97311E+04
 0.70553001E+02  0.96723E+04
 0.70603004E+02  0.99435E+04
 0.70653000E+02  0.10617E+05
 0.70703003E+02  0.10727E+05
 0.70752998E+02  0.10324E+05
 0.70803001E+02  0.10223E+05
 0.70853004E+02  0.10017E+05
 0.70903000E+02  0.94375E+04
 0.70953003E+02  0.95535E+04
 0.71002998E+02  0.10274E+05
 0.71053001E+02  0.10467E+05
 0.71103004E+02  0.93631E+04
 0.71153000E+02  0.91105E+04
 0.71203003E+02  0.10049E+05
 0.71252998E+02  0.10043E+05
 0.71303001E+02  0.92767E+04
 0.71353004E+02  0.89635E+04
 0.71403000E+02  0.98140E+04
 0.71453003E+02  0.98659E+04
 0.71502998E+02  0.97365E+04
 0.71553001E+02  0.97652E+04
 0.71603004E+02  0.95969E+04
 0.71653000E+02  0.92511E+04
 0.71703003E+02  0.85998E+04
 0.71752998E+02  0.92411E+04
 0.71803001E+02  0.96299E+04
 0.71853004E+02  0.96260E+04
 0.71903000E+02  0.96449E+04
 0.71953003E+02  0.97253E+04
 0.72002998E+02  0.97933E+04
 0.72053001E+02  0.91193E+04
 0.72103004E+02  0.87697E+04
 0.72153000E+02  0.90064E+04
 0.72203003E+02  0.94855E+04
 0.72252998E+02  0.92042E+04
 0.72303001E+02  0.89514E+04
 0.72353004E+02  0.96843E+04
 0.72403000E+02  0.98435E+04
 0.72453003E+02  0.95836E+04
 0.72502998E+02  0.94414E+04
 0.72553001E+02  0.95971E+04
 0.72603004E+02  0.94178E+04
 0.72653000E+02  0.91339E+04
 0.72703003E+02  0.97782E+04
 0.72752998E+02  0.98273E+04
 0.72803001E+02  0.91919E+04
 0.72853004E+02  0.98823E+04
 0.72903000E+02  0.10176E+05
 0.72953003E+02  0.98076E+04
 0.73002998E+02  0.10236E+05
 0.73053001E+02  0.10314E+05
 0.73103004E+02  0.10285E+05
 0.73153000E+02  0.99975E+04
 0.73203003E+02  0.10207E+05
 0.73252998E+02  0.98968E+04
 0.73303001E+02  0.90980E+04
 0.73353004E+02  0.99154E+04
 0.73403000E+02  0.10449E+05
 0.73453003E+02  0.98669E+04
 0.73502998E+02  0.95730E+04
 0.73553001E+02  0.10055E+05
 0.73603004E+02  0.98077E+04
 0.73653000E+02  0.89848E+04
 0.73703003E+02  0.92737E+04
 0.73752998E+02  0.98875E+04
 0.73803001E+02  0.10064E+05
 0.73853004E+02  0.92913E+04
 0.73903000E+02  0.89245E+04
 0.73953003E+02  0.98455E+04
 0.74002998E+02  0.10147E+05
 0.74053001E+02  0.92258E+04
 0.74103004E+02  0.90451E+04
 0.74153000E+02  0.10224E+05
 0.74203003E+02  0.10235E+05
 0.74252998E+02  0.96722E+04
 0.74303001E+02  0.97682E+04
 0.74353004E+02  0.95640E+04
 0.74403000E+02  0.94133E+04
 0.74453003E+02  0.89954E+04
 0.74502998E+02  0.90760E+04
 0.74553001E+02  0.10073E+05
 0.74603004E+02  0.97692E+04
 0.74653000E+02  0.93316E+04
 0.74703003E+02  0.97575E+04
 0.74752998E+02  0.10025E+05
 0.74803001E+02  0.98621E+04
 0.74853004E+02  0.93975E+04
 0.74903000E+02  0.96054E+04
 0.74953003E+02  0.93898E+04
 0.75002998E+02  0.93481E+04
 0.75053001E+02  0.97099E+04
 0.75103004E+02  0.94297E+04
 0.75153000E+02  0.95774E+04
 0.75203003E+02  0.95757E+04
 0.75252998E+02  0.93519E+04
 0.75303001E+02  0.93074E+04
 0.75353004E+02  0.93990E+04
 0.75403000E+02  0.96638E+04
 0.75453003E+02  0.94674E+04
 0.75502998E+02  0.92348E+04
 0.75553001E+02  0.96393E+04
 0.75603004E+02  0.97534E+04
 0.75653000E+02  0.95399E+04
 0.75703003E+02  0.95606E+04
 0.75752998E+02  0.98441E+04
 0.75803001E+02  0.95886E+04
 0.75853004E+02  0.93043E+04
 0.75903000E+02  0.94715E+04
 0.75953003E+02  0.94478E+04
 0.76002998E+02  0.96441E+04
 0.76053001E+02  0.10037E+05
 0.76103004E+02  0.10034E+05
 0.76153000E+02  0.93533E+04
 0.76203003E+02  0.94705E+04
 0.76252998E+02  0.10182E+05
 0.76303001E+02  0.10079E+05
 0.76353004E+02  0.95981E+04
 0.76403000E+02  0.97613E+04
 0.76453003E+02  0.10370E+05
 0.76502998E+02  0.97272E+04
 0.76553001E+02  0.93869E+04
 0.76603004E+02  0.99948E+04
 0.76653000E+02  0.10115E+05
 0.76703003E+02  0.10089E+05
 0.76752998E+02  0.99134E+04
 0.76803001E+02  0.95219E+04
 0.76853004E+02  0.95745E+04
 0.76903000E+02  0.97852E+04
 0.76953003E+02  0.91533E+04
 0.77002998E+02  0.92448E+04
 0.77053001E+02  0.99695E+04
 0.77103004E+02  0.95696E+04
 0.77153000E+02  0.91512E+04
 0.77203003E+02  0.93588E+04
 0.77252998E+02  0.96374E+04
 0.77303001E+02  0.97962E+04
 0.77353004E+02  0.96913E+04
 0.77403000E+02  0.92799E+04
 0.77453003E+02  0.95047E+04
 0.77502998E+02  0.98975E+04
 0.77553001E+02  0.93231E+04
 0.77603004E+02  0.89988E+04
 0.77653000E+02  0.95364E+04
 0.77703003E+02  0.95870E+04
 0.77752998E+02  0.91800E+04
 0.77803001E+02  0.96537E+04
 0.77853004E+02  0.10330E+05
 0.77903000E+02  0.10330E+05
 0.77953003E+02  0.10064E+05
 0.78002998E+02  0.99635E+04
 0.78053001E+02  0.97034E+04
 0.78103004E+02  0.94720E+04
 0.78153000E+02  0.97200E+04
 0.78203003E+02  0.98580E+04
 0.78252998E+02  0.94238E+04
 0.78303001E+02  0.91273E+04
 0.78353004E+02  0.94624E+04
 0.78403000E+02  0.94778E+04
 0.78453003E+02  0.92935E+04
 0.78502998E+02  0.94577E+04
 0.78553001E+02  0.96154E+04
 0.78603004E+02  0.94383E+04
 0.78653000E+02  0.91866E+04
 0.78703003E+02  0.92699E+04
 0.78752998E+02  0.95313E+04
 0.78803001E+02  0.98658E+04
 0.78853004E+02  0.99989E+04
 0.78903000E+02  0.97573E+04
 0.78953003E+02  0.94930E+04
 0.79002998E+02  0.95240E+04
 0.79053001E+02  0.92032E+04
 0.79103004E+02  0.95013E+04
 0.79153000E+02  0.96957E+04
 0.79203003E+02  0.92036E+04
 0.79252998E+02  0.93601E+04
 0.79303001E+02  0.95578E+04
 0.79353004E+02  0.95762E+04
 0.79403000E+02  0.95853E+04
 0.79453003E+02  0.96067E+04
 0.79502998E+02  0.93759E+04
 0.79553001E+02  0.93799E+04
 0.79603004E+02  0.97134E+04
 0.79653000E+02  0.99535E+04
 0.79703003E+02  0.99511E+04
 0.79752998E+02  0.99978E+04
 0.79803001E+02  0.10047E+05
 0.79853004E+02  0.98289E+04
 0.79903000E+02  0.95463E+04
 0.79953003E+02  0.94549E+04
 0.80002998E+02  0.97838E+04
 0.80053001E+02  0.98332E+04
 0.80103004E+02  0.96672E+04
 0.80153000E+02  0.96842E+04
 0.80203003E+02  0.96349E+04
 0.80252998E+02  0.98568E+04
 0.80303001E+02  0.96038E+04
 0.80353004E+02  0.90967E+04
 0.80403000E+02  0.92641E+04
 0.80453003E+02  0.93102E+04
 0.80502998E+02  0.91787E+04
 0.80553001E+02  0.94684E+04
 0.80603004E+02  0.98827E+04
 0.80653000E+02  0.10024E+05
 0.80703003E+02  0.97627E+04
 0.80752998E+02  0.97740E+04
 0.80803001E+02  0.98356E+04
 0.80853004E+02  0.95078E+04
 0.80903000E+02  0.95993E+04
 0.80953003E+02  0.95668E+04
 0.81002998E+02  0.89863E+04
 0.81053001E+02  0.88755E+04
 0.81103004E+02  0.96430E+04
 0.81153000E+02  0.99014E+04
 0.81203003E+02  0.96964E+04
 0.81252998E+02  0.99270E+04
 0.81303001E+02  0.99540E+04
 0.81353004E+02  0.98504E+04
 0.81403000E+02  0.99347E+04
 0.81453003E+02  0.96484E+04
 0.81502998E+02  0.93417E+04
 0.81553001E+02  0.95404E+04
 0.81603004E+02  0.10058E+05
 0.81653000E+02  0.10102E+05
 0.81703003E+02  0.98333E+04
 0.81752998E+02  0.99634E+04
 0.81803001E+02  0.97626E+04
 0.81853004E+02  0.94151E+04
 0.81903000E+02  0.94506E+04
 0.81953003E+02  0.97758E+04
 0.82002998E+02  0.10120E+05
 0.82053001E+02  0.96300E+04
 0.82103004E+02  0.93790E+04
 0.82153000E+02  0.98640E+04
 0.82203003E+02  0.98641E+04
 0.82252998E+02  0.95125E+04
 0.82303001E+02  0.95347E+04
 0.82353004E+02  0.98391E+04
 0.82403000E+02  0.96231E+04
 0.82453003E+02  0.93961E+04
 0.82502998E+02  0.94098E+04
 0.82553001E+02  0.93777E+04
 0.82603004E+02  0.95592E+04
 0.82653000E+02  0.99294E+04
 0.82703003E+02  0.10124E+05
 0.82752998E+02  0.99088E+04
 0.82803001E+02  0.97478E+04
 0.82853004E+02  0.96344E+04
 0.82903000E+02  0.94174E+04
 0.82953003E+02  0.93707E+04
 0.83002998E+02  0.98199E+04
 0.83053001E+02  0.10186E+05
 0.83103004E+02  0.97885E+04
 0.83153000E+02  0.92154E+04
 0.83203003E+02  0.95890E+04
 0.83252998E+02  0.10170E+05
 0.83303001E+02  0.98619E+04
 0.83353004E+02  0.94632E+04
 0.83403000E+02  0.93748E+04
 0.83453003E+02  0.94759E+04
 0.83502998E+02  0.90850E+04
 0.83553001E+02  0.88795E+04
 0.83603004E+02  0.93757E+04
 0.83653000E+02  0.97079E+04
 0.83703003E+02  0.95122E+04
 0.83752998E+02  0.92723E+04
 0.83803001E+02  0.93176E+04
 0.83853004E+02  0.92108E+04
 0.83903000E+02  0.92136E+04
 0.83953003E+02  0.94519E+04
 0.84002998E+02  0.94511E+04
 0.84053001E+02  0.94763E+04
 0.84103004E+02  0.94431E+04
 0.84153000E+02  0.93662E+04
 0.84203003E+02  0.96565E+04
 0.84252998E+02  0.96542E+04
 0.84303001E+02  0.99201E+04
 0.84353004E+02  0.10049E+05
 0.84403000E+02  0.97231E+04
 0.84453003E+02  0.10055E+05
 0.84502998E+02  0.99742E+04
 0.84553001E+02  0.95962E+04
 0.84603004E+02  0.97839E+04
 0.84653000E+02  0.10050E+05
 0.84703003E+02  0.10118E+05
 0.84752998E+02  0.97209E+04
 0.84803001E+02  0.95893E+04
 0.84853004E+02  0.96937E+04
 0.84903000E+02  0.95985E+04
 0.84953003E+02  0.96037E+04
 0.85002998E+02  0.97244E+04
 0.85053001E+02  0.99819E+04
 0.85103004E+02  0.98018E+04
 0.85153000E+02  0.96172E+04
 0.85203003E+02  0.97089E+04
 0.85252998E+02  0.96374E+04
 0.85303001E+02  0.98386E+04
 0.85353004E+02  0.98502E+04
 0.85403000E+02  0.97168E+04
 0.85453003E+02  0.95945E+04
 0.85502998E+02  0.93850E+04
 0.85553001E+02  0.94359E+04
 0.85603004E+02  0.96085E+04
 0.85653000E+02  0.98434E+04
 0.85703003E+02  0.98194E+04
 0.85752998E+02  0.97808E+04
 0.85803001E+02  0.95769E+04
 0.85853004E+02  0.91645E+04
 0.85903000E+02  0.90026E+04
 0.85953003E+02  0.92694E+04
 0.86002998E+02  0.95735E+04
 0.86053001E+02  0.94557E+04
 0.86103004E+02  0.94037E+04
 0.86153000E+02  0.93325E+04
 0.86203003E+02  0.98225E+04
 0.86252998E+02  0.99657E+04
 0.86303001E+02  0.94633E+04
 0.86353004E+02  0.96746E+04
 0.86403000E+02  0.97356E+04
 0.86453003E+02  0.95514E+04
 0.86502998E+02  0.94927E+04
 0.86553001E+02  0.97264E+04
 0.86603004E+02  0.10032E+05
 0.86653000E+02  0.10076E+05
 0.86703003E+02  0.98226E+04
 0.86752998E+02  0.94912E+04
 0.86803001E+02  0.95425E+04
 0.86853004E+02  0.94376E+04
 0.86903000E+02  0.93316E+04
 0.86953003E+02  0.95297E+04
 0.87002998E+02  0.96882E+04
 0.87053001E+02  0.96830E+04
 0.87103004E+02  0.94574E+04
 0.87153000E+02  0.94804E+04
 0.87203003E+02  0.92353E+04
 0.87252998E+02  0.89070E+04
 0.87303001E+02  0.91510E+04
 0.87353004E+02  0.95011E+04
 0.87403000E+02  0.97099E+04
 0.87453003E+02  0.96267E+04
 0.87502998E+02  0.95801E+04
 0.87553001E+02  0.96544E+04
 0.87602997E+02  0.97147E+04
 0.87653000E+02  0.96058E+04
 0.87703003E+02  0.96446E+04
 0.87752998E+02  0.96740E+04
 0.87803001E+02  0.94719E+04
 0.87852997E+02  0.92522E+04
 0.87903000E+02  0.96558E+04
 0.87953003E+02  0.10296E+05
 0.88002998E+02  0.10315E+05
 0.88053001E+02  0.10077E+05
 0.88102997E+02  0.98627E+04
 0.88153000E+02  0.98044E+04
 0.88203003E+02  0.96250E+04
 0.88252998E+02  0.97259E+04
 0.88303001E+02  0.99275E+04
 0.88352997E+02  0.97919E+04
 0.88403000E+02  0.96625E+04
 0.88453003E+02  0.96034E+04
 0.88502998E+02  0.94903E+04
 0.88553001E+02  0.94868E+04
 0.88602997E+02  0.96480E+04
 0.88653000E+02  0.96698E+04
 0.88703003E+02  0.96441E+04
 0.88752998E+02  0.95995E+04
 0.88803001E+02  0.97138E+04
 0.88852997E+02  0.99134E+04
 0.88903000E+02  0.99327E+04
 0.88953003E+02  0.96987E+04
 0.89002998E+02  0.93860E+04
 0.89053001E+02  0.93809E+04
 0.89102997E+02  0.94153E+04
 0.89153000E+02  0.92162E+04
 0.89203003E+02  0.92786E+04
 0.89252998E+02  0.97745E+04
 0.89303001E+02  0.98848E+04
 0.89352997E+02  0.95918E+04
 0.89403000E+02  0.96166E+04
 0.89453003E+02  0.98324E+04
 0.89502998E+02  0.96512E+04
 0.89553001E+02  0.93863E+04
 0.89602997E+02  0.95254E+04
 0.89653000E+02  0.95404E+04
 0.89703003E+02  0.92707E+04
 0.89752998E+02  0.94676E+04
 0.89803001E+02  0.98115E+04
 0.89852997E+02  0.97897E+04
 0.89903000E+02  0.96476E+04
 0.89953003E+02  0.96157E+04
 0.90002998E+02  0.97216E+04
 0.90053001E+02  0.96469E+04
 0.90102997E+02  0.96209E+04
 0.90153000E+02  0.96415E+04
 0.90203003E+02  0.96481E+04
 0.90252998E+02  0.97987E+04
 0.90303001E+02  0.97935E+04
 0.90352997E+02  0.96469E+04
 0.90403000E+02  0.96957E+04
 0.90453003E+02  0.99045E+04
 0.90502998E+02  0.97455E+04
 0.90553001E+02  0.95616E+04
 0.90602997E+02  0.97986E+04
 0.90653000E+02  0.96751E+04
 0.90703003E+02  0.94207E+04
 0.90752998E+02  0.93783E+04
 0.90803001E+02  0.94906E+04
 0.90852997E+02  0.96767E+04
 0.90903000E+02  0.96654E+04
 0.90953003E+02  0.93545E+04
 0.91002998E+02  0.93891E+04
 0.91053001E+02  0.95167E+04
 0.91102997E+02  0.91819E+04
 0.91153000E+02  0.93371E+04
 0.91203003E+02  0.95516E+04
 0.91252998E+02  0.96105E+04
 0.91303001E+02  0.97590E+04
 0.91352997E+02  0.98602E+04
 0.91403000E+02  0.97205E+04
 0.91453003E+02  0.95243E+04
 0.91502998E+02  0.93406E+04
 0.91553001E+02  0.93722E+04
 0.91602997E+02  0.96664E+04
 0.91653000E+02  0.98145E+04
 0.91703003E+02  0.97098E+04
 0.91752998E+02  0.94956E+04
 0.91803001E+02  0.97931E+04
 0.91852997E+02  0.99162E+04
 0.91903000E+02  0.98268E+04
 0.91953003E+02  0.98106E+04
 0.92002998E+02  0.97576E+04
 0.92053001E+02  0.97993E+04
 0.92102997E+02  0.96886E+04
 0.92153000E+02  0.95180E+04
 0.92203003E+02  0.96736E+04
 0.92252998E+02  0.99671E+04
 0.92303001E+02  0.96741E+04
 0.92352997E+02  0.93907E+04
 0.92403000E+02  0.96833E+04
 0.92453003E+02  0.97123E+04
 0.92502998E+02  0.93278E+04
 0.92553001E+02  0.93102E+04
 0.92602997E+02  0.96797E+04
 0.92653000E+02  0.97223E+04
 0.92703003E+02  0.96389E+04
 0.92752998E+02  0.98591E+04
 0.92803001E+02  0.99616E+04
 0.92852997E+02  0.98846E+04
 0.92903000E+02  0.96711E+04
 0.92953003E+02  0.95273E+04
 0.93002998E+02  0.97095E+04
 0.93053001E+02  0.97042E+04
 0.93102997E+02  0.95070E+04
 0.93153000E+02  0.96384E+04
 0.93203003E+02  0.99087E+04
 0.93252998E+02  0.98218E+04
 0.93303001E+02  0.94970E+04
 0.93352997E+02  0.94711E+04
 0.93403000E+02  0.97522E+04
 0.93453003E+02  0.95908E+04
 0.93502998E+02  0.93110E+04
 0.93553001E+02  0.95659E+04
 0.93602997E+02  0.96400E+04
 0.93653000E+02  0.93686E+04
 0.93703003E+02  0.94136E+04
 0.93752998E+02  0.97161E+04
 0.93803001E+02  0.97037E+04
 0.93852997E+02  0.95125E+04
 0.93903000E+02  0.94493E+04
 0.93953003E+02  0.94456E+04
 0.94002998E+02  0.95870E+04
 0.94053001E+02  0.98508E+04
 0.94102997E+02  0.98554E+04
 0.94153000E+02  0.96663E+04
 0.94203003E+02  0.94803E+04
 0.94252998E+02  0.94339E+04
 0.94303001E+02  0.94158E+04
 0.94352997E+02  0.96577E+04
 0.94403000E+02  0.97540E+04
 0.94453003E+02  0.94021E+04
 0.94502998E+02  0.94608E+04
 0.94553001E+02  0.96375E+04
 0.94602997E+02  0.95548E+04
 0.94653000E+02  0.93024E+04
 0.94703003E+02  0.92705E+04
 0.94752998E+02  0.96590E+04
 0.94803001E+02  0.97534E+04
 0.94852997E+02  0.95489E+04
 0.94903000E+02  0.96410E+04
 0.94953003E+02  0.96671E+04
 0.95002998E+02  0.97322E+04
 0.95053001E+02  0.99081E+04
 0.95102997E+02  0.99702E+04
 0.95153000E+02  0.99691E+04
 0.95203003E+02  0.97889E+04
 0.95252998E+02  0.97241E+04
 0.95303001E+02  0.95525E+04
 0.95352997E+02  0.95536E+04
 0.95403000E+02  0.97839E+04
 0.95453003E+02  0.98290E+04
 0.95502998E+02  0.97241E+04
 0.95553001E+02  0.96254E+04
 0.95602997E+02  0.97092E+04
 0.95653000E+02  0.97267E+04
 0.95703003E+02  0.97499E+04
 0.95752998E+02  0.96552E+04
 0.95803001E+02  0.95620E+04
 0.95852997E+02  0.93945E+04
 0.95903000E+02  0.93751E+04
 0.95953003E+02  0.97426E+04
 0.96002998E+02  0.98417E+04
 0.96053001E+02  0.96499E+04
 0.96102997E+02  0.95989E+04
 0.96153000E+02  0.96367E+04
 0.96203003E+02  0.97171E+04
 0.96252998E+02  0.97100E+04
 0.96303001E+02  0.97209E+04
 0.96352997E+02  0.96875E+04
 0.96403000E+02  0.94627E+04
 0.96453003E+02  0.95552E+04
 0.96502998E+02  0.96924E+04
 0.96553001E+02  0.96482E+04
 0.96602997E+02  0.96171E+04
 0.96653000E+02  0.96000E+04
 0.96703003E+02  0.95416E+04
 0.96752998E+02  0.95713E+04
 0.96803001E+02  0.96020E+04
 0.96852997E+02  0.95601E+04
 0.96903000E+02  0.94735E+04
 0.96953003E+02  0.94844E+04
 0.97002998E+02  0.97978E+04
 0.97053001E+02  0.97937E+04
 0.97102997E+02  0.94380E+04
 0.97153000E+02  0.94170E+04
 0.97203003E+02  0.95575E+04
 0.97252998E+02  0.95998E+04
 0.97303001E+02  0.95563E+04
 0.97352997E+02  0.95006E+04
 0.97403000E+02  0.96738E+04
 0.97453003E+02  0.97451E+04
 0.97502998E+02  0.95721E+04
 0.97553001E+02  0.97061E+04
 0.97602997E+02  0.97841E+04
 0.97653000E+02  0.95777E+04
 0.97703003E+02  0.94044E+04
 0.97752998E+02  0.95736E+04
 0.97803001E+02  0.98618E+04
 0.97852997E+02  0.97720E+04
 0.97903000E+02  0.93210E+04
 0.97953003E+02  0.91616E+04
 0.98002998E+02  0.97296E+04
