-0.19969940E+01  0.24479E+05
-0.19469941E+01  0.24356E+05
-0.18969940E+01  0.24455E+05
-0.18469940E+01  0.24457E+05
-0.17969940E+01  0.24466E+05
-0.17469940E+01  0.24467E+05
-0.16969941E+01  0.24468E+05
-0.16469941E+01  0.24461E+05
-0.15969940E+01  0.24448E+05
-0.15469940E+01  0.24446E+05
-0.14969940E+01  0.24442E+05
-0.14469941E+01  0.24431E+05
-0.13969941E+01  0.24420E+05
-0.13469940E+01  0.24407E+05
-0.12969941E+01  0.24397E+05
-0.12469940E+01  0.24392E+05
-0.11969941E+01  0.24396E+05
-0.11469941E+01  0.24407E+05
-0.10969940E+01  0.24417E+05
-0.10469941E+01  0.24433E+05
-0.99699408E+00  0.24450E+05
-0.94699407E+00  0.24454E+05
-0.89699411E+00  0.24460E+05
-0.84699404E+00  0.24482E+05
-0.79699409E+00  0.24497E+05
-0.74699414E+00  0.24506E+05
-0.69699407E+00  0.24515E+05
-0.64699411E+00  0.24520E+05
-0.59699416E+00  0.24526E+05
-0.54699409E+00  0.24531E+05
-0.49699414E+00  0.24537E+05
-0.44699407E+00  0.24541E+05
-0.39699411E+00  0.24528E+05
-0.34699416E+00  0.24514E+05
-0.29699409E+00  0.24503E+05
-0.24699414E+00  0.24496E+05
-0.19699407E+00  0.24493E+05
-0.14699411E+00  0.24484E+05
-0.96994162E-01  0.24479E+05
-0.46994090E-01  0.24466E+05
 0.30058622E-02  0.24450E+05
 0.53005934E-01  0.24443E+05
 0.10300589E+00  0.24440E+05
 0.15300584E+00  0.24427E+05
 0.20300579E+00  0.24421E+05
 0.25300574E+00  0.24412E+05
 0.30300593E+00  0.24408E+05
 0.35300589E+00  0.24419E+05
 0.40300584E+00  0.24421E+05
 0.45300579E+00  0.24432E+05
 0.50300574E+00  0.24442E+05
 0.55300593E+00  0.24441E+05
 0.60300589E+00  0.24435E+05
 0.65300584E+00  0.24427E+05
 0.70300579E+00  0.24415E+05
 0.75300574E+00  0.24403E+05
 0.80300570E+00  0.24383E+05
 0.85300589E+00  0.24358E+05
 0.90300584E+00  0.24346E+05
 0.95300579E+00  0.24346E+05
 0.10030057E+01  0.24359E+05
 0.10530057E+01  0.24362E+05
 0.11030059E+01  0.24368E+05
 0.11530058E+01  0.24378E+05
 0.12030058E+01  0.24378E+05
 0.12530057E+01  0.24390E+05
 0.13030057E+01  0.24407E+05
 0.13530059E+01  0.24422E+05
 0.14030058E+01  0.24441E+05
 0.14530058E+01  0.24465E+05
 0.15030057E+01  0.24483E+05
 0.15530057E+01  0.24495E+05
 0.16030059E+01  0.24488E+05
 0.16530058E+01  0.24477E+05
 0.17030058E+01  0.24476E+05
 0.17530057E+01  0.24466E+05
 0.18030057E+01  0.24444E+05
 0.18530056E+01  0.24419E+05
 0.19030058E+01  0.24402E+05
 0.19530058E+01  0.24396E+05
 0.20030057E+01  0.24381E+05
 0.20530057E+01  0.24365E+05
 0.21030059E+01  0.24366E+05
 0.21530056E+01  0.24366E+05
 0.22030058E+01  0.24383E+05
 0.22530055E+01  0.24412E+05
 0.23030057E+01  0.24435E+05
 0.23530059E+01  0.24457E+05
 0.24030056E+01  0.24483E+05
 0.24530058E+01  0.24508E+05
 0.25030055E+01  0.24519E+05
 0.25530057E+01  0.24523E+05
 0.26030059E+01  0.24525E+05
 0.26530056E+01  0.24520E+05
 0.27030058E+01  0.24499E+05
 0.27530055E+01  0.24492E+05
 0.28030057E+01  0.24493E+05
 0.28530059E+01  0.24493E+05
 0.29030056E+01  0.24502E+05
 0.29530058E+01  0.24510E+05
 0.30030055E+01  0.24514E+05
 0.30530057E+01  0.24516E+05
 0.31030059E+01  0.24523E+05
 0.31530056E+01  0.24537E+05
 0.32030058E+01  0.24535E+05
 0.32530055E+01  0.24513E+05
 0.33030057E+01  0.24486E+05
 0.33530059E+01  0.24466E+05
 0.34030056E+01  0.24452E+05
 0.34530058E+01  0.24432E+05
 0.35030055E+01  0.24415E+05
 0.35530057E+01  0.24403E+05
 0.36030054E+01  0.24396E+05
 0.36530056E+01  0.24386E+05
 0.37030058E+01  0.24383E+05
 0.37530055E+01  0.24391E+05
 0.38030057E+01  0.24409E+05
 0.38530054E+01  0.24431E+05
 0.39030056E+01  0.24444E+05
 0.39530058E+01  0.24457E+05
 0.40030055E+01  0.24468E+05
 0.40530057E+01  0.24472E+05
 0.41030054E+01  0.24475E+05
 0.41530056E+01  0.24477E+05
 0.42030058E+01  0.24476E+05
 0.42530055E+01  0.24472E+05
 0.43030057E+01  0.24462E+05
 0.43530054E+01  0.24460E+05
 0.44030056E+01  0.24460E+05
 0.44530058E+01  0.24446E+05
 0.45030055E+01  0.24432E+05
 0.45530057E+01  0.24423E+05
 0.46030054E+01  0.24421E+05
 0.46530056E+01  0.24422E+05
 0.47030058E+01  0.24415E+05
 0.47530055E+01  0.24405E+05
 0.48030057E+01  0.24407E+05
 0.48530054E+01  0.24409E+05
 0.49030056E+01  0.24406E+05
 0.49530058E+01  0.24399E+05
 0.50030055E+01  0.24397E+05
 0.50530057E+01  0.24402E+05
 0.51030054E+01  0.24407E+05
 0.51530056E+01  0.24409E+05
 0.52030058E+01  0.24415E+05
 0.52530055E+01  0.24407E+05
 0.53030057E+01  0.24395E+05
 0.53530054E+01  0.24388E+05
 0.54030056E+01  0.24389E+05
 0.54530053E+01  0.24406E+05
 0.55030055E+01  0.24421E+05
 0.55530057E+01  0.24420E+05
 0.56030054E+01  0.24421E+05
 0.56530056E+01  0.24429E+05
 0.57030053E+01  0.24434E+05
 0.57530055E+01  0.24434E+05
 0.58030057E+01  0.24436E+05
 0.58530054E+01  0.24439E+05
 0.59030056E+01  0.24446E+05
 0.59530053E+01  0.24456E+05
 0.60030055E+01  0.24465E+05
 0.60530052E+01  0.24475E+05
 0.61030054E+01  0.24477E+05
 0.61530056E+01  0.24479E+05
 0.62030058E+01  0.24485E+05
 0.62530050E+01  0.24480E+05
 0.63030052E+01  0.24469E+05
 0.63530054E+01  0.24452E+05
 0.64030056E+01  0.24434E+05
 0.64530058E+01  0.24428E+05
 0.65030050E+01  0.24424E+05
 0.65530052E+01  0.24428E+05
 0.66030054E+01  0.24436E+05
 0.66530056E+01  0.24436E+05
 0.67030058E+01  0.24437E+05
 0.67530050E+01  0.24439E+05
 0.68030052E+01  0.24445E+05
 0.68530054E+01  0.24442E+05
 0.69030056E+01  0.24422E+05
 0.69530058E+01  0.24402E+05
 0.70030050E+01  0.24400E+05
 0.70530052E+01  0.24406E+05
 0.71030054E+01  0.24418E+05
 0.71530056E+01  0.24437E+05
 0.72030058E+01  0.24452E+05
 0.72530050E+01  0.24470E+05
 0.73030052E+01  0.24494E+05
 0.73530054E+01  0.24521E+05
 0.74030056E+01  0.24547E+05
 0.74530058E+01  0.24561E+05
 0.75030050E+01  0.24569E+05
 0.75530052E+01  0.24571E+05
 0.76030054E+01  0.24572E+05
 0.76530056E+01  0.24568E+05
 0.77030058E+01  0.24559E+05
 0.77530050E+01  0.24547E+05
 0.78030052E+01  0.24528E+05
 0.78530054E+01  0.24508E+05
 0.79030056E+01  0.24491E+05
 0.79530058E+01  0.24468E+05
 0.80030050E+01  0.24438E+05
 0.80530052E+01  0.24415E+05
 0.81030054E+01  0.24396E+05
 0.81530056E+01  0.24386E+05
 0.82030058E+01  0.24372E+05
 0.82530050E+01  0.24358E+05
 0.83030052E+01  0.24347E+05
 0.83530054E+01  0.24336E+05
 0.84030056E+01  0.24331E+05
 0.84530058E+01  0.24331E+05
 0.85030050E+01  0.24336E+05
 0.85530052E+01  0.24331E+05
 0.86030054E+01  0.24330E+05
 0.86530056E+01  0.24330E+05
 0.87030058E+01  0.24329E+05
 0.87530050E+01  0.24327E+05
 0.88030052E+01  0.24330E+05
 0.88530054E+01  0.24341E+05
 0.89030056E+01  0.24350E+05
 0.89530058E+01  0.24371E+05
 0.90030050E+01  0.24392E+05
 0.90530052E+01  0.24413E+05
 0.91030054E+01  0.24431E+05
 0.91530056E+01  0.24446E+05
 0.92030048E+01  0.24470E+05
 0.92530050E+01  0.24484E+05
 0.93030052E+01  0.24499E+05
 0.93530054E+01  0.24512E+05
 0.94030056E+01  0.24525E+05
 0.94530048E+01  0.24526E+05
 0.95030050E+01  0.24513E+05
 0.95530052E+01  0.24509E+05
 0.96030054E+01  0.24506E+05
 0.96530056E+01  0.24503E+05
 0.97030048E+01  0.24491E+05
 0.97530050E+01  0.24477E+05
 0.98030052E+01  0.24469E+05
 0.98530054E+01  0.24469E+05
 0.99030056E+01  0.24470E+05
 0.99530048E+01  0.24465E+05
 0.10003005E+02  0.24453E+05
 0.10053005E+02  0.24433E+05
 0.10103005E+02  0.24418E+05
 0.10153006E+02  0.24406E+05
 0.10203005E+02  0.24389E+05
 0.10253005E+02  0.24381E+05
 0.10303005E+02  0.24372E+05
 0.10353005E+02  0.24371E+05
 0.10403006E+02  0.24373E+05
 0.10453005E+02  0.24377E+05
 0.10503005E+02  0.24396E+05
 0.10553005E+02  0.24413E+05
 0.10603005E+02  0.24425E+05
 0.10653006E+02  0.24437E+05
 0.10703005E+02  0.24436E+05
 0.10753005E+02  0.24432E+05
 0.10803005E+02  0.24428E+05
 0.10853005E+02  0.24435E+05
 0.10903006E+02  0.24452E+05
 0.10953005E+02  0.24469E+05
 0.11003005E+02  0.24486E+05
 0.11053005E+02  0.24496E+05
 0.11103005E+02  0.24506E+05
 0.11153006E+02  0.24517E+05
 0.11203005E+02  0.24528E+05
 0.11253005E+02  0.24537E+05
 0.11303005E+02  0.24541E+05
 0.11353005E+02  0.24544E+05
 0.11403006E+02  0.24546E+05
 0.11453005E+02  0.24540E+05
 0.11503005E+02  0.24530E+05
 0.11553005E+02  0.24504E+05
 0.11603005E+02  0.24472E+05
 0.11653006E+02  0.24458E+05
 0.11703005E+02  0.24445E+05
 0.11753005E+02  0.24440E+05
 0.11803005E+02  0.24434E+05
 0.11853005E+02  0.24439E+05
 0.11903006E+02  0.24457E+05
 0.11953005E+02  0.24469E+05
 0.12003005E+02  0.24472E+05
 0.12053005E+02  0.24470E+05
 0.12103005E+02  0.24467E+05
 0.12153006E+02  0.24465E+05
 0.12203005E+02  0.24452E+05
 0.12253005E+02  0.24424E+05
 0.12303005E+02  0.24401E+05
 0.12353005E+02  0.24379E+05
 0.12403006E+02  0.24362E+05
 0.12453005E+02  0.24354E+05
 0.12503005E+02  0.24352E+05
 0.12553005E+02  0.24350E+05
 0.12603005E+02  0.24363E+05
 0.12653005E+02  0.24374E+05
 0.12703005E+02  0.24382E+05
 0.12753005E+02  0.24394E+05
 0.12803005E+02  0.24397E+05
 0.12853005E+02  0.24410E+05
 0.12903005E+02  0.24408E+05
 0.12953005E+02  0.24405E+05
 0.13003005E+02  0.24411E+05
 0.13053005E+02  0.24410E+05
 0.13103005E+02  0.24418E+05
 0.13153005E+02  0.24425E+05
 0.13203005E+02  0.24428E+05
 0.13253005E+02  0.24438E+05
 0.13303005E+02  0.24437E+05
 0.13353005E+02  0.24443E+05
 0.13403005E+02  0.24449E+05
 0.13453005E+02  0.24444E+05
 0.13503005E+02  0.24445E+05
 0.13553005E+02  0.24451E+05
 0.13603005E+02  0.24454E+05
 0.13653005E+02  0.24451E+05
 0.13703005E+02  0.24457E+05
 0.13753005E+02  0.24464E+05
 0.13803005E+02  0.24469E+05
 0.13853005E+02  0.24464E+05
 0.13903005E+02  0.24460E+05
 0.13953005E+02  0.24458E+05
 0.14003005E+02  0.24450E+05
 0.14053005E+02  0.24444E+05
 0.14103004E+02  0.24433E+05
 0.14153006E+02  0.24417E+05
 0.14203005E+02  0.24389E+05
 0.14253004E+02  0.24356E+05
 0.14303005E+02  0.24336E+05
 0.14353004E+02  0.24346E+05
 0.14403006E+02  0.24365E+05
 0.14453005E+02  0.24384E+05
 0.14503004E+02  0.24403E+05
 0.14553005E+02  0.24422E+05
 0.14603004E+02  0.24449E+05
 0.14653006E+02  0.24474E+05
 0.14703005E+02  0.24493E+05
 0.14753004E+02  0.24507E+05
 0.14803005E+02  0.24522E+05
 0.14853004E+02  0.24539E+05
 0.14903006E+02  0.24546E+05
 0.14953005E+02  0.24555E+05
 0.15003004E+02  0.24567E+05
 0.15053005E+02  0.24573E+05
 0.15103004E+02  0.24573E+05
 0.15153006E+02  0.24569E+05
 0.15203005E+02  0.24565E+05
 0.15253004E+02  0.24562E+05
 0.15303005E+02  0.24555E+05
 0.15353004E+02  0.24536E+05
 0.15403006E+02  0.24511E+05
 0.15453005E+02  0.24491E+05
 0.15503004E+02  0.24474E+05
 0.15553005E+02  0.24451E+05
 0.15603004E+02  0.24436E+05
 0.15653006E+02  0.24417E+05
 0.15703005E+02  0.24402E+05
 0.15753004E+02  0.24393E+05
 0.15803005E+02  0.24386E+05
 0.15853004E+02  0.24386E+05
 0.15903006E+02  0.24391E+05
 0.15953005E+02  0.24392E+05
 0.16003004E+02  0.24390E+05
 0.16053005E+02  0.24397E+05
 0.16103004E+02  0.24407E+05
 0.16153006E+02  0.24421E+05
 0.16203005E+02  0.24425E+05
 0.16253004E+02  0.24416E+05
 0.16303005E+02  0.24404E+05
 0.16353004E+02  0.24400E+05
 0.16403006E+02  0.24398E+05
 0.16453005E+02  0.24388E+05
 0.16503004E+02  0.24375E+05
 0.16553005E+02  0.24363E+05
 0.16603004E+02  0.24363E+05
 0.16653006E+02  0.24358E+05
 0.16703005E+02  0.24358E+05
 0.16753004E+02  0.24354E+05
 0.16803005E+02  0.24349E+05
 0.16853004E+02  0.24347E+05
 0.16903006E+02  0.24343E+05
 0.16953005E+02  0.24348E+05
 0.17003004E+02  0.24348E+05
 0.17053005E+02  0.24348E+05
 0.17103004E+02  0.24351E+05
 0.17153006E+02  0.24356E+05
 0.17203005E+02  0.24371E+05
 0.17253004E+02  0.24397E+05
 0.17303005E+02  0.24425E+05
 0.17353004E+02  0.24450E+05
 0.17403006E+02  0.24478E+05
 0.17453005E+02  0.24504E+05
 0.17503004E+02  0.24531E+05
 0.17553005E+02  0.24554E+05
 0.17603004E+02  0.24572E+05
 0.17653006E+02  0.24578E+05
 0.17703005E+02  0.24581E+05
 0.17753004E+02  0.24576E+05
 0.17803005E+02  0.24564E+05
 0.17853004E+02  0.24557E+05
 0.17903006E+02  0.24550E+05
 0.17953005E+02  0.24541E+05
 0.18003004E+02  0.24526E+05
 0.18053005E+02  0.24508E+05
 0.18103004E+02  0.24487E+05
 0.18153006E+02  0.24472E+05
 0.18203005E+02  0.24457E+05
 0.18253004E+02  0.24447E+05
 0.18303005E+02  0.24441E+05
 0.18353004E+02  0.24434E+05
 0.18403006E+02  0.24434E+05
 0.18453005E+02  0.24435E+05
 0.18503004E+02  0.24428E+05
 0.18553005E+02  0.24423E+05
 0.18603004E+02  0.24418E+05
 0.18653006E+02  0.24407E+05
 0.18703005E+02  0.24396E+05
 0.18753004E+02  0.24388E+05
 0.18803005E+02  0.24383E+05
 0.18853004E+02  0.24369E+05
 0.18903006E+02  0.24356E+05
 0.18953005E+02  0.24347E+05
 0.19003004E+02  0.24345E+05
 0.19053005E+02  0.24354E+05
 0.19103004E+02  0.24371E+05
 0.19153006E+02  0.24379E+05
 0.19203005E+02  0.24382E+05
 0.19253004E+02  0.24398E+05
 0.19303005E+02  0.24412E+05
 0.19353004E+02  0.24428E+05
 0.19403006E+02  0.24440E+05
 0.19453005E+02  0.24444E+05
 0.19503004E+02  0.24457E+05
 0.19553005E+02  0.24464E+05
 0.19603004E+02  0.24498E+05
 0.19653006E+02  0.24483E+05
 0.19703005E+02  0.24516E+05
 0.19753004E+02  0.24495E+05
 0.19803005E+02  0.24399E+05
 0.19853004E+02  0.24120E+05
 0.19903006E+02  0.24040E+05
 0.19953005E+02  0.23947E+05
 0.20003004E+02  0.23940E+05
 0.20053005E+02  0.23364E+05
 0.20103004E+02  0.23098E+05
 0.20153006E+02  0.23923E+05
 0.20203005E+02  0.25405E+05
 0.20253004E+02  0.25847E+05
 0.20303005E+02  0.24465E+05
 0.20353004E+02  0.23411E+05
 0.20403004E+02  0.23722E+05
 0.20453005E+02  0.25140E+05
 0.20503004E+02  0.24626E+05
 0.20553005E+02  0.22184E+05
 0.20603004E+02  0.19428E+05
 0.20653004E+02  0.18118E+05
 0.20703005E+02  0.20184E+05
 0.20753004E+02  0.20778E+05
 0.20803005E+02  0.25846E+05
 0.20853004E+02  0.34568E+05
 0.20903004E+02  0.33949E+05
 0.20953005E+02  0.23438E+05
 0.21003004E+02  0.25462E+05
 0.21053005E+02  0.31121E+05
 0.21103004E+02  0.34208E+05
 0.21153004E+02  0.33279E+05
 0.21203005E+02  0.21784E+05
 0.21253004E+02  0.21068E+05
 0.21303005E+02  0.23688E+05
 0.21353004E+02  0.28477E+05
 0.21403004E+02  0.21302E+05
 0.21453005E+02  0.23687E+05
 0.21503004E+02  0.25481E+05
 0.21553005E+02  0.27733E+05
 0.21603004E+02  0.29276E+05
 0.21653004E+02  0.20644E+05
 0.21703005E+02  0.17224E+05
 0.21753004E+02  0.14750E+05
 0.21803005E+02  0.18458E+05
 0.21853004E+02  0.25831E+05
 0.21903004E+02  0.22839E+05
 0.21953005E+02  0.21240E+05
 0.22003004E+02  0.28976E+05
 0.22053005E+02  0.26418E+05
 0.22103004E+02  0.25558E+05
 0.22153004E+02  0.19437E+05
 0.22203005E+02  0.24268E+05
 0.22253004E+02  0.34009E+05
 0.22303005E+02  0.26870E+05
 0.22353004E+02  0.16862E+05
 0.22403004E+02  0.16900E+05
 0.22453005E+02  0.21377E+05
 0.22503004E+02  0.22450E+05
 0.22553005E+02  0.18840E+05
 0.22603004E+02  0.22996E+05
 0.22653004E+02  0.26072E+05
 0.22703005E+02  0.26474E+05
 0.22753004E+02  0.27430E+05
 0.22803005E+02  0.21411E+05
 0.22853004E+02  0.20926E+05
 0.22903004E+02  0.26678E+05
 0.22953005E+02  0.29853E+05
 0.23003004E+02  0.30198E+05
 0.23053005E+02  0.29031E+05
 0.23103004E+02  0.28457E+05
 0.23153004E+02  0.29673E+05
 0.23203005E+02  0.23917E+05
 0.23253004E+02  0.21647E+05
 0.23303005E+02  0.25845E+05
 0.23353004E+02  0.24374E+05
 0.23403004E+02  0.25842E+05
 0.23453005E+02  0.27903E+05
 0.23503004E+02  0.23309E+05
 0.23553005E+02  0.26514E+05
 0.23603004E+02  0.28157E+05
 0.23653004E+02  0.26469E+05
 0.23703005E+02  0.25484E+05
 0.23753004E+02  0.18451E+05
 0.23803005E+02  0.21441E+05
 0.23853004E+02  0.27520E+05
 0.23903004E+02  0.25660E+05
 0.23953005E+02  0.24487E+05
 0.24003004E+02  0.23481E+05
 0.24053005E+02  0.19813E+05
 0.24103004E+02  0.18819E+05
 0.24153004E+02  0.23089E+05
 0.24203005E+02  0.24392E+05
 0.24253004E+02  0.20776E+05
 0.24303005E+02  0.22649E+05
 0.24353004E+02  0.25135E+05
 0.24403004E+02  0.17625E+05
 0.24453005E+02  0.11083E+05
 0.24503004E+02  0.25153E+05
 0.24553005E+02  0.29977E+05
 0.24603004E+02  0.23147E+05
 0.24653004E+02  0.30799E+05
 0.24703005E+02  0.31054E+05
 0.24753004E+02  0.26710E+05
 0.24803005E+02  0.25998E+05
 0.24853004E+02  0.25223E+05
 0.24903004E+02  0.23803E+05
 0.24953005E+02  0.27302E+05
 0.25003004E+02  0.24705E+05
 0.25053005E+02  0.25184E+05
 0.25103004E+02  0.29737E+05
 0.25153004E+02  0.24952E+05
 0.25203005E+02  0.21602E+05
 0.25253004E+02  0.21083E+05
 0.25303005E+02  0.20724E+05
 0.25353004E+02  0.20305E+05
 0.25403004E+02  0.20759E+05
 0.25453005E+02  0.20189E+05
 0.25503004E+02  0.24667E+05
 0.25553005E+02  0.27848E+05
 0.25603004E+02  0.29337E+05
 0.25653004E+02  0.26004E+05
 0.25703005E+02  0.25456E+05
 0.25753004E+02  0.27967E+05
 0.25803005E+02  0.25944E+05
 0.25853004E+02  0.24815E+05
 0.25903004E+02  0.22575E+05
 0.25953005E+02  0.20588E+05
 0.26003004E+02  0.24602E+05
 0.26053005E+02  0.25445E+05
 0.26103004E+02  0.25585E+05
 0.26153004E+02  0.26129E+05
 0.26203005E+02  0.23708E+05
 0.26253004E+02  0.23349E+05
 0.26303005E+02  0.21724E+05
 0.26353004E+02  0.23206E+05
 0.26403004E+02  0.25232E+05
 0.26453005E+02  0.28182E+05
 0.26503004E+02  0.30282E+05
 0.26553005E+02  0.31528E+05
 0.26603004E+02  0.26676E+05
 0.26653004E+02  0.23553E+05
 0.26703005E+02  0.21248E+05
 0.26753004E+02  0.17967E+05
 0.26803005E+02  0.19621E+05
 0.26853004E+02  0.22401E+05
 0.26903004E+02  0.27103E+05
 0.26953005E+02  0.26852E+05
 0.27003004E+02  0.24931E+05
 0.27053003E+02  0.22071E+05
 0.27103004E+02  0.19949E+05
 0.27153004E+02  0.21916E+05
 0.27203005E+02  0.25185E+05
 0.27253004E+02  0.26062E+05
 0.27303003E+02  0.24763E+05
 0.27353004E+02  0.26470E+05
 0.27403004E+02  0.27225E+05
 0.27453005E+02  0.23487E+05
 0.27503004E+02  0.24978E+05
 0.27553003E+02  0.26967E+05
 0.27603004E+02  0.25693E+05
 0.27653004E+02  0.29485E+05
 0.27703005E+02  0.27172E+05
 0.27753004E+02  0.23530E+05
 0.27803003E+02  0.21302E+05
 0.27853004E+02  0.20077E+05
 0.27903004E+02  0.24507E+05
 0.27953005E+02  0.25225E+05
 0.28003004E+02  0.24529E+05
 0.28053003E+02  0.28202E+05
 0.28103004E+02  0.26939E+05
 0.28153004E+02  0.22524E+05
 0.28203005E+02  0.22918E+05
 0.28253004E+02  0.24826E+05
 0.28303003E+02  0.24618E+05
 0.28353004E+02  0.22853E+05
 0.28403004E+02  0.23087E+05
 0.28453005E+02  0.21485E+05
 0.28503004E+02  0.22183E+05
 0.28553003E+02  0.22366E+05
 0.28603004E+02  0.22469E+05
 0.28653004E+02  0.24969E+05
 0.28703005E+02  0.25594E+05
 0.28753004E+02  0.25730E+05
 0.28803003E+02  0.27299E+05
 0.28853004E+02  0.26372E+05
 0.28903004E+02  0.24323E+05
 0.28953005E+02  0.22296E+05
 0.29003004E+02  0.22099E+05
 0.29053003E+02  0.24744E+05
 0.29103004E+02  0.25203E+05
 0.29153004E+02  0.26077E+05
 0.29203005E+02  0.24181E+05
 0.29253004E+02  0.24624E+05
 0.29303003E+02  0.24744E+05
 0.29353004E+02  0.23161E+05
 0.29403004E+02  0.21378E+05
 0.29453005E+02  0.21641E+05
 0.29503004E+02  0.24484E+05
 0.29553003E+02  0.26805E+05
 0.29603004E+02  0.28054E+05
 0.29653004E+02  0.25444E+05
 0.29703005E+02  0.24140E+05
 0.29753004E+02  0.22596E+05
 0.29803003E+02  0.22743E+05
 0.29853004E+02  0.22866E+05
 0.29903004E+02  0.22911E+05
 0.29953005E+02  0.25195E+05
 0.30003004E+02  0.26125E+05
 0.30053005E+02  0.23851E+05
 0.30103004E+02  0.25287E+05
 0.30153004E+02  0.27166E+05
 0.30203003E+02  0.23836E+05
 0.30253002E+02  0.22542E+05
 0.30303005E+02  0.22337E+05
 0.30353004E+02  0.22940E+05
 0.30403004E+02  0.23804E+05
 0.30453003E+02  0.26421E+05
 0.30503002E+02  0.28418E+05
 0.30553005E+02  0.26789E+05
 0.30603004E+02  0.25374E+05
 0.30653004E+02  0.27714E+05
 0.30703003E+02  0.26733E+05
 0.30753002E+02  0.26256E+05
 0.30803005E+02  0.27153E+05
 0.30853004E+02  0.23813E+05
 0.30903004E+02  0.23715E+05
 0.30953003E+02  0.22809E+05
 0.31003002E+02  0.20251E+05
 0.31053005E+02  0.18840E+05
 0.31103004E+02  0.21357E+05
 0.31153004E+02  0.25123E+05
 0.31203003E+02  0.23892E+05
 0.31253002E+02  0.22987E+05
 0.31303005E+02  0.22164E+05
 0.31353004E+02  0.22049E+05
 0.31403004E+02  0.25136E+05
 0.31453003E+02  0.26586E+05
 0.31503002E+02  0.27209E+05
 0.31553005E+02  0.27973E+05
 0.31603004E+02  0.25049E+05
 0.31653004E+02  0.21256E+05
 0.31703003E+02  0.19206E+05
 0.31753002E+02  0.19914E+05
 0.31803005E+02  0.21745E+05
 0.31853004E+02  0.23601E+05
 0.31903004E+02  0.26241E+05
 0.31953003E+02  0.26039E+05
 0.32003002E+02  0.23958E+05
 0.32053005E+02  0.23873E+05
 0.32103004E+02  0.24057E+05
 0.32153004E+02  0.21671E+05
 0.32203003E+02  0.21616E+05
 0.32253002E+02  0.24875E+05
 0.32303005E+02  0.27200E+05
 0.32353004E+02  0.27912E+05
 0.32403004E+02  0.28419E+05
 0.32453003E+02  0.28048E+05
 0.32503002E+02  0.25475E+05
 0.32553005E+02  0.24034E+05
 0.32603004E+02  0.25376E+05
 0.32653004E+02  0.25439E+05
 0.32703003E+02  0.23918E+05
 0.32753002E+02  0.23491E+05
 0.32803005E+02  0.23628E+05
 0.32853004E+02  0.21484E+05
 0.32903004E+02  0.22058E+05
 0.32953003E+02  0.25007E+05
 0.33003002E+02  0.25801E+05
 0.33053005E+02  0.26818E+05
 0.33103004E+02  0.24006E+05
 0.33153004E+02  0.23735E+05
 0.33203003E+02  0.25050E+05
 0.33253002E+02  0.24457E+05
 0.33303005E+02  0.26133E+05
 0.33353004E+02  0.24851E+05
 0.33403004E+02  0.24319E+05
 0.33453003E+02  0.24765E+05
 0.33503002E+02  0.24299E+05
 0.33553005E+02  0.22512E+05
 0.33603004E+02  0.21093E+05
 0.33653004E+02  0.22366E+05
 0.33703003E+02  0.25248E+05
 0.33753002E+02  0.27279E+05
 0.33803005E+02  0.25859E+05
 0.33853004E+02  0.25574E+05
 0.33903004E+02  0.26501E+05
 0.33953003E+02  0.25831E+05
 0.34003002E+02  0.25470E+05
 0.34053005E+02  0.21398E+05
 0.34103004E+02  0.20778E+05
 0.34153004E+02  0.24760E+05
 0.34203003E+02  0.27433E+05
 0.34253002E+02  0.29864E+05
 0.34303005E+02  0.27927E+05
 0.34353004E+02  0.25544E+05
 0.34403004E+02  0.25996E+05
 0.34453003E+02  0.25031E+05
 0.34503002E+02  0.21871E+05
 0.34553005E+02  0.22772E+05
 0.34603004E+02  0.22863E+05
 0.34653004E+02  0.23391E+05
 0.34703003E+02  0.23260E+05
 0.34753002E+02  0.21536E+05
 0.34803005E+02  0.22730E+05
 0.34853004E+02  0.24424E+05
 0.34903004E+02  0.27609E+05
 0.34953003E+02  0.30145E+05
 0.35003002E+02  0.31636E+05
 0.35053005E+02  0.32095E+05
 0.35103004E+02  0.26856E+05
 0.35153004E+02  0.22364E+05
 0.35203003E+02  0.22299E+05
 0.35253002E+02  0.20176E+05
 0.35303005E+02  0.18721E+05
 0.35353004E+02  0.21758E+05
 0.35403004E+02  0.24787E+05
 0.35453003E+02  0.24531E+05
 0.35503002E+02  0.23758E+05
 0.35553005E+02  0.20812E+05
 0.35603004E+02  0.21505E+05
 0.35653004E+02  0.26540E+05
 0.35703003E+02  0.28691E+05
 0.35753002E+02  0.25069E+05
 0.35803005E+02  0.22292E+05
 0.35853004E+02  0.21357E+05
 0.35903004E+02  0.21170E+05
 0.35953003E+02  0.23760E+05
 0.36003002E+02  0.24540E+05
 0.36053005E+02  0.24647E+05
 0.36103004E+02  0.24079E+05
 0.36153004E+02  0.23398E+05
 0.36203003E+02  0.22738E+05
 0.36253002E+02  0.24975E+05
 0.36303005E+02  0.27992E+05
 0.36353004E+02  0.26918E+05
 0.36403004E+02  0.22462E+05
 0.36453003E+02  0.18069E+05
 0.36503002E+02  0.16854E+05
 0.36553005E+02  0.15125E+05
 0.36603004E+02  0.14739E+05
 0.36653004E+02  0.17733E+05
 0.36703003E+02  0.23146E+05
 0.36753002E+02  0.32634E+05
 0.36803005E+02  0.39785E+05
 0.36853004E+02  0.39521E+05
 0.36903004E+02  0.37831E+05
 0.36953003E+02  0.37458E+05
 0.37003002E+02  0.32897E+05
 0.37053005E+02  0.27146E+05
 0.37103004E+02  0.23693E+05
 0.37153004E+02  0.18586E+05
 0.37203003E+02  0.14309E+05
 0.37253002E+02  0.13921E+05
 0.37303005E+02  0.14553E+05
 0.37353004E+02  0.17205E+05
 0.37403004E+02  0.20854E+05
 0.37453003E+02  0.26715E+05
 0.37503002E+02  0.34451E+05
 0.37553005E+02  0.34250E+05
 0.37603004E+02  0.28981E+05
 0.37653004E+02  0.24649E+05
 0.37703003E+02  0.22103E+05
 0.37753002E+02  0.19434E+05
 0.37803005E+02  0.20934E+05
 0.37853004E+02  0.25162E+05
 0.37903004E+02  0.24180E+05
 0.37953003E+02  0.22272E+05
 0.38003002E+02  0.22815E+05
 0.38053005E+02  0.23302E+05
 0.38103004E+02  0.24806E+05
 0.38153004E+02  0.24367E+05
 0.38203003E+02  0.20648E+05
 0.38253002E+02  0.20466E+05
 0.38303005E+02  0.23872E+05
 0.38353004E+02  0.28088E+05
 0.38403004E+02  0.30118E+05
 0.38453003E+02  0.29046E+05
 0.38503002E+02  0.27009E+05
 0.38553005E+02  0.25729E+05
 0.38603004E+02  0.26380E+05
 0.38653004E+02  0.25759E+05
 0.38703003E+02  0.23871E+05
 0.38753002E+02  0.25215E+05
 0.38803005E+02  0.27134E+05
 0.38853004E+02  0.26671E+05
 0.38903004E+02  0.25021E+05
 0.38953003E+02  0.23012E+05
 0.39003002E+02  0.20205E+05
 0.39053005E+02  0.21089E+05
 0.39103004E+02  0.22762E+05
 0.39153004E+02  0.23911E+05
 0.39203003E+02  0.23444E+05
 0.39253002E+02  0.21640E+05
 0.39303005E+02  0.22254E+05
 0.39353004E+02  0.23651E+05
 0.39403004E+02  0.26457E+05
 0.39453003E+02  0.26943E+05
 0.39503002E+02  0.28236E+05
 0.39553005E+02  0.29283E+05
 0.39603004E+02  0.27529E+05
 0.39653004E+02  0.24738E+05
 0.39703003E+02  0.21229E+05
 0.39753002E+02  0.20195E+05
 0.39803005E+02  0.23397E+05
 0.39853004E+02  0.27098E+05
 0.39903004E+02  0.29237E+05
 0.39953003E+02  0.30830E+05
 0.40003002E+02  0.29516E+05
 0.40053005E+02  0.24938E+05
 0.40103004E+02  0.21600E+05
 0.40153004E+02  0.21057E+05
 0.40203003E+02  0.21096E+05
 0.40253002E+02  0.23586E+05
 0.40303005E+02  0.25693E+05
 0.40353004E+02  0.25112E+05
 0.40403004E+02  0.23062E+05
 0.40453003E+02  0.20862E+05
 0.40503002E+02  0.21633E+05
 0.40553005E+02  0.24433E+05
 0.40603004E+02  0.26445E+05
 0.40653004E+02  0.25203E+05
 0.40703003E+02  0.22550E+05
 0.40753002E+02  0.22057E+05
 0.40803005E+02  0.21236E+05
 0.40853004E+02  0.19888E+05
 0.40903004E+02  0.20924E+05
 0.40953003E+02  0.22079E+05
 0.41003002E+02  0.22349E+05
 0.41053005E+02  0.20535E+05
 0.41103004E+02  0.17850E+05
 0.41153004E+02  0.18912E+05
 0.41203003E+02  0.22595E+05
 0.41253002E+02  0.25854E+05
 0.41303005E+02  0.26110E+05
 0.41353004E+02  0.26219E+05
 0.41403004E+02  0.27861E+05
 0.41453003E+02  0.29350E+05
 0.41503002E+02  0.29616E+05
 0.41553005E+02  0.27111E+05
 0.41603004E+02  0.24741E+05
 0.41653004E+02  0.24270E+05
 0.41703003E+02  0.26565E+05
 0.41753002E+02  0.28955E+05
 0.41803005E+02  0.29333E+05
 0.41853004E+02  0.27915E+05
 0.41903004E+02  0.25480E+05
 0.41953003E+02  0.25395E+05
 0.42003002E+02  0.27344E+05
 0.42053005E+02  0.27107E+05
 0.42103004E+02  0.24167E+05
 0.42153004E+02  0.21707E+05
 0.42203003E+02  0.21277E+05
 0.42253002E+02  0.19901E+05
 0.42303005E+02  0.18187E+05
 0.42353004E+02  0.19646E+05
 0.42403004E+02  0.22162E+05
 0.42453003E+02  0.25370E+05
 0.42503002E+02  0.28004E+05
 0.42553005E+02  0.29288E+05
 0.42603004E+02  0.27613E+05
 0.42653004E+02  0.22916E+05
 0.42703003E+02  0.19602E+05
 0.42753002E+02  0.18108E+05
 0.42803001E+02  0.19148E+05
 0.42853004E+02  0.22305E+05
 0.42903004E+02  0.23615E+05
 0.42953003E+02  0.24537E+05
 0.43003002E+02  0.26345E+05
 0.43053001E+02  0.28591E+05
 0.43103004E+02  0.29714E+05
 0.43153004E+02  0.28307E+05
 0.43203003E+02  0.25909E+05
 0.43253002E+02  0.23964E+05
 0.43303001E+02  0.22686E+05
 0.43353004E+02  0.22828E+05
 0.43403004E+02  0.23673E+05
 0.43453003E+02  0.22752E+05
 0.43503002E+02  0.21298E+05
 0.43553001E+02  0.21840E+05
 0.43603004E+02  0.24096E+05
 0.43653004E+02  0.26050E+05
 0.43703003E+02  0.27506E+05
 0.43753002E+02  0.27851E+05
 0.43803001E+02  0.27660E+05
 0.43853004E+02  0.27239E+05
 0.43903004E+02  0.24687E+05
 0.43953003E+02  0.20178E+05
 0.44003002E+02  0.18198E+05
 0.44053001E+02  0.21153E+05
 0.44103004E+02  0.24117E+05
 0.44153004E+02  0.26466E+05
 0.44203003E+02  0.28941E+05
 0.44253002E+02  0.30073E+05
 0.44303001E+02  0.30235E+05
 0.44353004E+02  0.29710E+05
 0.44403004E+02  0.27745E+05
 0.44453003E+02  0.25400E+05
 0.44503002E+02  0.25171E+05
 0.44553001E+02  0.25209E+05
 0.44603004E+02  0.25067E+05
 0.44653004E+02  0.22793E+05
 0.44703003E+02  0.18802E+05
 0.44753002E+02  0.17023E+05
 0.44803001E+02  0.16857E+05
 0.44853004E+02  0.16154E+05
 0.44903004E+02  0.15884E+05
 0.44953003E+02  0.19309E+05
 0.45003002E+02  0.23129E+05
 0.45053001E+02  0.24127E+05
 0.45103004E+02  0.24620E+05
 0.45153004E+02  0.23746E+05
 0.45203003E+02  0.24014E+05
 0.45253002E+02  0.25737E+05
 0.45303001E+02  0.26658E+05
 0.45353004E+02  0.26961E+05
 0.45403004E+02  0.26906E+05
 0.45453003E+02  0.26218E+05
 0.45503002E+02  0.25050E+05
 0.45553001E+02  0.24729E+05
 0.45603004E+02  0.24532E+05
 0.45653004E+02  0.25124E+05
 0.45703003E+02  0.26871E+05
 0.45753002E+02  0.27811E+05
 0.45803001E+02  0.28092E+05
 0.45853004E+02  0.27948E+05
 0.45903004E+02  0.25762E+05
 0.45953003E+02  0.23545E+05
 0.46003002E+02  0.22824E+05
 0.46053001E+02  0.23526E+05
 0.46103004E+02  0.23033E+05
 0.46153004E+02  0.21562E+05
 0.46203003E+02  0.21426E+05
 0.46253002E+02  0.22587E+05
 0.46303001E+02  0.24199E+05
 0.46353004E+02  0.25589E+05
 0.46403004E+02  0.26091E+05
 0.46453003E+02  0.25936E+05
 0.46503002E+02  0.26635E+05
 0.46553001E+02  0.26091E+05
 0.46603004E+02  0.24360E+05
 0.46653004E+02  0.22659E+05
 0.46703003E+02  0.21693E+05
 0.46753002E+02  0.22981E+05
 0.46803001E+02  0.25621E+05
 0.46853004E+02  0.27349E+05
 0.46903004E+02  0.28365E+05
 0.46953003E+02  0.28794E+05
 0.47003002E+02  0.28282E+05
 0.47053001E+02  0.27645E+05
 0.47103004E+02  0.26271E+05
 0.47153004E+02  0.24108E+05
 0.47203003E+02  0.23076E+05
 0.47253002E+02  0.23111E+05
 0.47303001E+02  0.23241E+05
 0.47353004E+02  0.24582E+05
 0.47403004E+02  0.26143E+05
 0.47453003E+02  0.25659E+05
 0.47503002E+02  0.23056E+05
 0.47553001E+02  0.20716E+05
 0.47603004E+02  0.20189E+05
 0.47653004E+02  0.20777E+05
 0.47703003E+02  0.20597E+05
 0.47753002E+02  0.19903E+05
 0.47803001E+02  0.19394E+05
 0.47853004E+02  0.21224E+05
 0.47903004E+02  0.24588E+05
 0.47953003E+02  0.27357E+05
 0.48003002E+02  0.30392E+05
 0.48053001E+02  0.31713E+05
 0.48103004E+02  0.31809E+05
 0.48153004E+02  0.31024E+05
 0.48203003E+02  0.29250E+05
 0.48253002E+02  0.27624E+05
 0.48303001E+02  0.26479E+05
 0.48353004E+02  0.26801E+05
 0.48403004E+02  0.27135E+05
 0.48453003E+02  0.25809E+05
 0.48503002E+02  0.25340E+05
 0.48553001E+02  0.24279E+05
 0.48603004E+02  0.22091E+05
 0.48653004E+02  0.20326E+05
 0.48703003E+02  0.19563E+05
 0.48753002E+02  0.21071E+05
 0.48803001E+02  0.23354E+05
 0.48853004E+02  0.25562E+05
 0.48903004E+02  0.26282E+05
 0.48953003E+02  0.26497E+05
 0.49003002E+02  0.26795E+05
 0.49053001E+02  0.26920E+05
 0.49103004E+02  0.25693E+05
 0.49153004E+02  0.22464E+05
 0.49203003E+02  0.20333E+05
 0.49253002E+02  0.19850E+05
 0.49303001E+02  0.19576E+05
 0.49353004E+02  0.19771E+05
 0.49403004E+02  0.21332E+05
 0.49453003E+02  0.23306E+05
 0.49503002E+02  0.24530E+05
 0.49553001E+02  0.25628E+05
 0.49603004E+02  0.27238E+05
 0.49653004E+02  0.27318E+05
 0.49703003E+02  0.25370E+05
 0.49753002E+02  0.24635E+05
 0.49803001E+02  0.24567E+05
 0.49853004E+02  0.23539E+05
 0.49903004E+02  0.22937E+05
 0.49953003E+02  0.22811E+05
 0.50003002E+02  0.23003E+05
 0.50053001E+02  0.23079E+05
 0.50103004E+02  0.22623E+05
 0.50153004E+02  0.22172E+05
 0.50203003E+02  0.22860E+05
 0.50253002E+02  0.24673E+05
 0.50303001E+02  0.26241E+05
 0.50353004E+02  0.25555E+05
 0.50403004E+02  0.25408E+05
 0.50453003E+02  0.26041E+05
 0.50503002E+02  0.25778E+05
 0.50553001E+02  0.26329E+05
 0.50603004E+02  0.26463E+05
 0.50653004E+02  0.26050E+05
 0.50703003E+02  0.25601E+05
 0.50753002E+02  0.25464E+05
 0.50803001E+02  0.25400E+05
 0.50853004E+02  0.25304E+05
 0.50903004E+02  0.25676E+05
 0.50953003E+02  0.26119E+05
 0.51003002E+02  0.25297E+05
 0.51053001E+02  0.23870E+05
 0.51103004E+02  0.22041E+05
 0.51153004E+02  0.20334E+05
 0.51203003E+02  0.18652E+05
 0.51253002E+02  0.17456E+05
 0.51303001E+02  0.18604E+05
 0.51353004E+02  0.20271E+05
 0.51403004E+02  0.21956E+05
 0.51453003E+02  0.24357E+05
 0.51503002E+02  0.26028E+05
 0.51553001E+02  0.27370E+05
 0.51603004E+02  0.28936E+05
 0.51653004E+02  0.30407E+05
 0.51703003E+02  0.30760E+05
 0.51753002E+02  0.28833E+05
 0.51803001E+02  0.26123E+05
 0.51853004E+02  0.23154E+05
 0.51903004E+02  0.21412E+05
 0.51953003E+02  0.21542E+05
 0.52003002E+02  0.21952E+05
 0.52053001E+02  0.23146E+05
 0.52103004E+02  0.25752E+05
 0.52153004E+02  0.28114E+05
 0.52203003E+02  0.27920E+05
 0.52253002E+02  0.26044E+05
 0.52303001E+02  0.24269E+05
 0.52353004E+02  0.22743E+05
 0.52403004E+02  0.22471E+05
 0.52453003E+02  0.23013E+05
 0.52503002E+02  0.23580E+05
 0.52553001E+02  0.23854E+05
 0.52603004E+02  0.24429E+05
 0.52653004E+02  0.24472E+05
 0.52703003E+02  0.24112E+05
 0.52753002E+02  0.23461E+05
 0.52803001E+02  0.22266E+05
 0.52853004E+02  0.22129E+05
 0.52903004E+02  0.23198E+05
 0.52953003E+02  0.24444E+05
 0.53003002E+02  0.24687E+05
 0.53053001E+02  0.24738E+05
 0.53103004E+02  0.24272E+05
 0.53153004E+02  0.23267E+05
 0.53203003E+02  0.22742E+05
 0.53253002E+02  0.23145E+05
 0.53303001E+02  0.24813E+05
 0.53353004E+02  0.27599E+05
 0.53403004E+02  0.29307E+05
 0.53453003E+02  0.30445E+05
 0.53503002E+02  0.30475E+05
 0.53553001E+02  0.28860E+05
 0.53603004E+02  0.27754E+05
 0.53653004E+02  0.26445E+05
 0.53703003E+02  0.24745E+05
 0.53753002E+02  0.22511E+05
 0.53803001E+02  0.20081E+05
 0.53853004E+02  0.17846E+05
 0.53903004E+02  0.17584E+05
 0.53953003E+02  0.19108E+05
 0.54003002E+02  0.20511E+05
 0.54053001E+02  0.22118E+05
 0.54103004E+02  0.24086E+05
 0.54153004E+02  0.25744E+05
 0.54203003E+02  0.27148E+05
 0.54253002E+02  0.28433E+05
 0.54303001E+02  0.28732E+05
 0.54353004E+02  0.27977E+05
 0.54403004E+02  0.26210E+05
 0.54453003E+02  0.25157E+05
 0.54503002E+02  0.24493E+05
 0.54553001E+02  0.23611E+05
 0.54603004E+02  0.22985E+05
 0.54653004E+02  0.22071E+05
 0.54703003E+02  0.22282E+05
 0.54753002E+02  0.23175E+05
 0.54803001E+02  0.23564E+05
 0.54853004E+02  0.24465E+05
 0.54903004E+02  0.25978E+05
 0.54953003E+02  0.26811E+05
 0.55003002E+02  0.26188E+05
 0.55053001E+02  0.24617E+05
 0.55103004E+02  0.23577E+05
 0.55153004E+02  0.23736E+05
 0.55203003E+02  0.24434E+05
 0.55253002E+02  0.25014E+05
 0.55303001E+02  0.24725E+05
 0.55353004E+02  0.24554E+05
 0.55403004E+02  0.25043E+05
 0.55453003E+02  0.25269E+05
 0.55503002E+02  0.25383E+05
 0.55553001E+02  0.25459E+05
 0.55603004E+02  0.25097E+05
 0.55653004E+02  0.24583E+05
 0.55703003E+02  0.24356E+05
 0.55753002E+02  0.23667E+05
 0.55803001E+02  0.22948E+05
 0.55853001E+02  0.22527E+05
 0.55903004E+02  0.22729E+05
 0.55953003E+02  0.23556E+05
 0.56003002E+02  0.24082E+05
 0.56053001E+02  0.24010E+05
 0.56103001E+02  0.22974E+05
 0.56153004E+02  0.22197E+05
 0.56203003E+02  0.21763E+05
 0.56253002E+02  0.21718E+05
 0.56303001E+02  0.22375E+05
 0.56353001E+02  0.23101E+05
 0.56403004E+02  0.23403E+05
 0.56453003E+02  0.23657E+05
 0.56503002E+02  0.24644E+05
 0.56553001E+02  0.25769E+05
 0.56603001E+02  0.26623E+05
 0.56653004E+02  0.27090E+05
 0.56703003E+02  0.26853E+05
 0.56753002E+02  0.25967E+05
 0.56803001E+02  0.25055E+05
 0.56853001E+02  0.24497E+05
 0.56903004E+02  0.23792E+05
 0.56953003E+02  0.22917E+05
 0.57003002E+02  0.23024E+05
 0.57053001E+02  0.23641E+05
 0.57103001E+02  0.24169E+05
 0.57153004E+02  0.25068E+05
 0.57203003E+02  0.26407E+05
 0.57253002E+02  0.26891E+05
 0.57303001E+02  0.26505E+05
 0.57353001E+02  0.26452E+05
 0.57403004E+02  0.26085E+05
 0.57453003E+02  0.24869E+05
 0.57503002E+02  0.24381E+05
 0.57553001E+02  0.24560E+05
 0.57603001E+02  0.24389E+05
 0.57653004E+02  0.24203E+05
 0.57703003E+02  0.24353E+05
 0.57753002E+02  0.24782E+05
 0.57803001E+02  0.24484E+05
 0.57853001E+02  0.24170E+05
 0.57903004E+02  0.24118E+05
 0.57953003E+02  0.24106E+05
 0.58003002E+02  0.24467E+05
 0.58053001E+02  0.24432E+05
 0.58103001E+02  0.23995E+05
 0.58153004E+02  0.23287E+05
 0.58203003E+02  0.22579E+05
 0.58253002E+02  0.21680E+05
 0.58303001E+02  0.20585E+05
 0.58353001E+02  0.20592E+05
 0.58403004E+02  0.21875E+05
 0.58453003E+02  0.23934E+05
 0.58503002E+02  0.25646E+05
 0.58553001E+02  0.26678E+05
 0.58603001E+02  0.27263E+05
 0.58653004E+02  0.27441E+05
 0.58703003E+02  0.27009E+05
 0.58753002E+02  0.26858E+05
 0.58803001E+02  0.26620E+05
 0.58853001E+02  0.25197E+05
 0.58903004E+02  0.24308E+05
 0.58953003E+02  0.24211E+05
 0.59003002E+02  0.24372E+05
 0.59053001E+02  0.24843E+05
 0.59103001E+02  0.25414E+05
 0.59153004E+02  0.26168E+05
 0.59203003E+02  0.26607E+05
 0.59253002E+02  0.26679E+05
 0.59303001E+02  0.26640E+05
 0.59353001E+02  0.26345E+05
 0.59403004E+02  0.25548E+05
 0.59453003E+02  0.24582E+05
 0.59503002E+02  0.23863E+05
 0.59553001E+02  0.22882E+05
 0.59603001E+02  0.21576E+05
 0.59653004E+02  0.20222E+05
 0.59703003E+02  0.19766E+05
 0.59753002E+02  0.20503E+05
 0.59803001E+02  0.21706E+05
 0.59853001E+02  0.22951E+05
 0.59903004E+02  0.24201E+05
 0.59953003E+02  0.25060E+05
 0.60003002E+02  0.25716E+05
 0.60053001E+02  0.25613E+05
 0.60103001E+02  0.24823E+05
 0.60153004E+02  0.24181E+05
 0.60203003E+02  0.23657E+05
 0.60253002E+02  0.23736E+05
 0.60303001E+02  0.24108E+05
 0.60353001E+02  0.24600E+05
 0.60403004E+02  0.24918E+05
 0.60453003E+02  0.25097E+05
 0.60503002E+02  0.26001E+05
 0.60553001E+02  0.27056E+05
 0.60603001E+02  0.27551E+05
 0.60653004E+02  0.27263E+05
 0.60703003E+02  0.26637E+05
 0.60753002E+02  0.26264E+05
 0.60803001E+02  0.25361E+05
 0.60853001E+02  0.24426E+05
 0.60903004E+02  0.23917E+05
 0.60953003E+02  0.23876E+05
 0.61003002E+02  0.23739E+05
 0.61053001E+02  0.23829E+05
 0.61103001E+02  0.24584E+05
 0.61153004E+02  0.25162E+05
 0.61203003E+02  0.25559E+05
 0.61253002E+02  0.25846E+05
 0.61303001E+02  0.26226E+05
 0.61353001E+02  0.26435E+05
 0.61403004E+02  0.25598E+05
 0.61453003E+02  0.24172E+05
 0.61503002E+02  0.22925E+05
 0.61553001E+02  0.21522E+05
 0.61603001E+02  0.20191E+05
 0.61653004E+02  0.19178E+05
 0.61703003E+02  0.18535E+05
 0.61753002E+02  0.18216E+05
 0.61803001E+02  0.18447E+05
 0.61853001E+02  0.18697E+05
 0.61903004E+02  0.19280E+05
 0.61953003E+02  0.20885E+05
 0.62003002E+02  0.23006E+05
 0.62053001E+02  0.24770E+05
 0.62103004E+02  0.25836E+05
 0.62153000E+02  0.26324E+05
 0.62203003E+02  0.26430E+05
 0.62252998E+02  0.26620E+05
 0.62303001E+02  0.26841E+05
 0.62353004E+02  0.26850E+05
 0.62403000E+02  0.26892E+05
 0.62453003E+02  0.27243E+05
 0.62502998E+02  0.27484E+05
 0.62553001E+02  0.28195E+05
 0.62603004E+02  0.28832E+05
 0.62653000E+02  0.28624E+05
 0.62703003E+02  0.27731E+05
 0.62752998E+02  0.26297E+05
 0.62803001E+02  0.25114E+05
 0.62853004E+02  0.24871E+05
 0.62903000E+02  0.25164E+05
 0.62953003E+02  0.25087E+05
 0.63002998E+02  0.24935E+05
 0.63053001E+02  0.24928E+05
 0.63103004E+02  0.25182E+05
 0.63153000E+02  0.25056E+05
 0.63203003E+02  0.24886E+05
 0.63252998E+02  0.25292E+05
 0.63303001E+02  0.25199E+05
 0.63353004E+02  0.25087E+05
 0.63403000E+02  0.24925E+05
 0.63453003E+02  0.24282E+05
 0.63502998E+02  0.23354E+05
 0.63553001E+02  0.22526E+05
 0.63603004E+02  0.22150E+05
 0.63653000E+02  0.22015E+05
 0.63703003E+02  0.23068E+05
 0.63752998E+02  0.24510E+05
 0.63803001E+02  0.25181E+05
 0.63853004E+02  0.25387E+05
 0.63903000E+02  0.24892E+05
 0.63953003E+02  0.24008E+05
 0.64002998E+02  0.23453E+05
 0.64053001E+02  0.23381E+05
 0.64103004E+02  0.23562E+05
 0.64153000E+02  0.23877E+05
 0.64203003E+02  0.24169E+05
 0.64252998E+02  0.24262E+05
 0.64303001E+02  0.23923E+05
 0.64353004E+02  0.23749E+05
 0.64403000E+02  0.23616E+05
 0.64453003E+02  0.23301E+05
 0.64502998E+02  0.23089E+05
 0.64553001E+02  0.23033E+05
 0.64603004E+02  0.23013E+05
 0.64653000E+02  0.23182E+05
 0.64703003E+02  0.23612E+05
 0.64752998E+02  0.23943E+05
 0.64803001E+02  0.24060E+05
 0.64853004E+02  0.23444E+05
 0.64903000E+02  0.23109E+05
 0.64953003E+02  0.23591E+05
 0.65002998E+02  0.24489E+05
 0.65053001E+02  0.25155E+05
 0.65103004E+02  0.25373E+05
 0.65153000E+02  0.25713E+05
 0.65203003E+02  0.26076E+05
 0.65252998E+02  0.26158E+05
 0.65303001E+02  0.26033E+05
 0.65353004E+02  0.26205E+05
 0.65403000E+02  0.26312E+05
 0.65453003E+02  0.26277E+05
 0.65502998E+02  0.26229E+05
 0.65553001E+02  0.26156E+05
 0.65603004E+02  0.26129E+05
 0.65653000E+02  0.25955E+05
 0.65703003E+02  0.25618E+05
 0.65752998E+02  0.25137E+05
 0.65803001E+02  0.24672E+05
 0.65853004E+02  0.24091E+05
 0.65903000E+02  0.23368E+05
 0.65953003E+02  0.22788E+05
 0.66002998E+02  0.22085E+05
 0.66053001E+02  0.21037E+05
 0.66103004E+02  0.20403E+05
 0.66153000E+02  0.20700E+05
 0.66203003E+02  0.21306E+05
 0.66252998E+02  0.22046E+05
 0.66303001E+02  0.22683E+05
 0.66353004E+02  0.23016E+05
 0.66403000E+02  0.23213E+05
 0.66453003E+02  0.23901E+05
 0.66502998E+02  0.25002E+05
 0.66553001E+02  0.26062E+05
 0.66603004E+02  0.27250E+05
 0.66653000E+02  0.28277E+05
 0.66703003E+02  0.28726E+05
 0.66752998E+02  0.28611E+05
 0.66803001E+02  0.28371E+05
 0.66853004E+02  0.27550E+05
 0.66903000E+02  0.26151E+05
 0.66953003E+02  0.24601E+05
 0.67002998E+02  0.23456E+05
 0.67053001E+02  0.22703E+05
 0.67103004E+02  0.22043E+05
 0.67153000E+02  0.21611E+05
 0.67203003E+02  0.21428E+05
 0.67252998E+02  0.21502E+05
 0.67303001E+02  0.21999E+05
 0.67353004E+02  0.22946E+05
 0.67403000E+02  0.24092E+05
 0.67453003E+02  0.25337E+05
 0.67502998E+02  0.26158E+05
 0.67553001E+02  0.26644E+05
 0.67603004E+02  0.26749E+05
 0.67653000E+02  0.26222E+05
 0.67703003E+02  0.25337E+05
 0.67752998E+02  0.24589E+05
 0.67803001E+02  0.24180E+05
 0.67853004E+02  0.24092E+05
 0.67903000E+02  0.24290E+05
 0.67953003E+02  0.24375E+05
 0.68002998E+02  0.24556E+05
 0.68053001E+02  0.24858E+05
 0.68103004E+02  0.24910E+05
 0.68153000E+02  0.24803E+05
 0.68203003E+02  0.24488E+05
 0.68252998E+02  0.23851E+05
 0.68303001E+02  0.23359E+05
 0.68353004E+02  0.23321E+05
 0.68403000E+02  0.23474E+05
 0.68453003E+02  0.23931E+05
 0.68502998E+02  0.24375E+05
 0.68553001E+02  0.24417E+05
 0.68603004E+02  0.24423E+05
 0.68653000E+02  0.24506E+05
 0.68703003E+02  0.24590E+05
 0.68752998E+02  0.24777E+05
 0.68803001E+02  0.24986E+05
 0.68853004E+02  0.25058E+05
 0.68903000E+02  0.25097E+05
 0.68953003E+02  0.24987E+05
 0.69002998E+02  0.24596E+05
 0.69053001E+02  0.24177E+05
 0.69103004E+02  0.23852E+05
 0.69153000E+02  0.23694E+05
 0.69203003E+02  0.24059E+05
 0.69252998E+02  0.24380E+05
 0.69303001E+02  0.24486E+05
 0.69353004E+02  0.24631E+05
 0.69403000E+02  0.24620E+05
 0.69453003E+02  0.24623E+05
 0.69502998E+02  0.24525E+05
 0.69553001E+02  0.24212E+05
 0.69603004E+02  0.23780E+05
 0.69653000E+02  0.23480E+05
 0.69703003E+02  0.23374E+05
 0.69752998E+02  0.23459E+05
 0.69803001E+02  0.23435E+05
 0.69853004E+02  0.23495E+05
 0.69903000E+02  0.24156E+05
 0.69953003E+02  0.24649E+05
 0.70002998E+02  0.24762E+05
 0.70053001E+02  0.24832E+05
 0.70103004E+02  0.24617E+05
 0.70153000E+02  0.24283E+05
 0.70203003E+02  0.23950E+05
 0.70252998E+02  0.23522E+05
 0.70303001E+02  0.23265E+05
 0.70353004E+02  0.23336E+05
 0.70403000E+02  0.23347E+05
 0.70453003E+02  0.23603E+05
 0.70502998E+02  0.23913E+05
 0.70553001E+02  0.24033E+05
 0.70603004E+02  0.24286E+05
 0.70653000E+02  0.24633E+05
 0.70703003E+02  0.25116E+05
 0.70752998E+02  0.25775E+05
 0.70803001E+02  0.26809E+05
 0.70853004E+02  0.27653E+05
 0.70903000E+02  0.27804E+05
 0.70953003E+02  0.27668E+05
 0.71002998E+02  0.27690E+05
 0.71053001E+02  0.27163E+05
 0.71103004E+02  0.26245E+05
 0.71153000E+02  0.25585E+05
 0.71203003E+02  0.24998E+05
 0.71252998E+02  0.24615E+05
 0.71303001E+02  0.24120E+05
 0.71353004E+02  0.23649E+05
 0.71403000E+02  0.23353E+05
 0.71453003E+02  0.23442E+05
 0.71502998E+02  0.23587E+05
 0.71553001E+02  0.23461E+05
 0.71603004E+02  0.23562E+05
 0.71653000E+02  0.23960E+05
 0.71703003E+02  0.24138E+05
 0.71752998E+02  0.23958E+05
 0.71803001E+02  0.24122E+05
 0.71853004E+02  0.24073E+05
 0.71903000E+02  0.23832E+05
 0.71953003E+02  0.23778E+05
 0.72002998E+02  0.23821E+05
 0.72053001E+02  0.24145E+05
 0.72103004E+02  0.24378E+05
 0.72153000E+02  0.24226E+05
 0.72203003E+02  0.23792E+05
 0.72252998E+02  0.23331E+05
 0.72303001E+02  0.22730E+05
 0.72353004E+02  0.22203E+05
 0.72403000E+02  0.22117E+05
 0.72453003E+02  0.22249E+05
 0.72502998E+02  0.22509E+05
 0.72553001E+02  0.22984E+05
 0.72603004E+02  0.23807E+05
 0.72653000E+02  0.24633E+05
 0.72703003E+02  0.25205E+05
 0.72752998E+02  0.25452E+05
 0.72803001E+02  0.25547E+05
 0.72853004E+02  0.25751E+05
 0.72903000E+02  0.25595E+05
 0.72953003E+02  0.25184E+05
 0.73002998E+02  0.24900E+05
 0.73053001E+02  0.24771E+05
 0.73103004E+02  0.24550E+05
 0.73153000E+02  0.24498E+05
 0.73203003E+02  0.24796E+05
 0.73252998E+02  0.25360E+05
 0.73303001E+02  0.25772E+05
 0.73353004E+02  0.25559E+05
 0.73403000E+02  0.25333E+05
 0.73453003E+02  0.25390E+05
 0.73502998E+02  0.25426E+05
 0.73553001E+02  0.25137E+05
 0.73603004E+02  0.24750E+05
 0.73653000E+02  0.24305E+05
 0.73703003E+02  0.23889E+05
 0.73752998E+02  0.23620E+05
 0.73803001E+02  0.23590E+05
 0.73853004E+02  0.23776E+05
 0.73903000E+02  0.24137E+05
 0.73953003E+02  0.24667E+05
 0.74002998E+02  0.25015E+05
 0.74053001E+02  0.25018E+05
 0.74103004E+02  0.24513E+05
 0.74153000E+02  0.23831E+05
 0.74203003E+02  0.23347E+05
 0.74252998E+02  0.23355E+05
 0.74303001E+02  0.23501E+05
 0.74353004E+02  0.23409E+05
 0.74403000E+02  0.23261E+05
 0.74453003E+02  0.23417E+05
 0.74502998E+02  0.24008E+05
 0.74553001E+02  0.25014E+05
 0.74603004E+02  0.26110E+05
 0.74653000E+02  0.26802E+05
 0.74703003E+02  0.26919E+05
 0.74752998E+02  0.26682E+05
 0.74803001E+02  0.26197E+05
 0.74853004E+02  0.25104E+05
 0.74903000E+02  0.23838E+05
 0.74953003E+02  0.22987E+05
 0.75002998E+02  0.22891E+05
 0.75053001E+02  0.23398E+05
 0.75103004E+02  0.24104E+05
 0.75153000E+02  0.24686E+05
 0.75203003E+02  0.25058E+05
 0.75252998E+02  0.25051E+05
 0.75303001E+02  0.24855E+05
 0.75353004E+02  0.24418E+05
 0.75403000E+02  0.23822E+05
 0.75453003E+02  0.23385E+05
 0.75502998E+02  0.23189E+05
 0.75553001E+02  0.23464E+05
 0.75603004E+02  0.23904E+05
 0.75653000E+02  0.24155E+05
 0.75703003E+02  0.24153E+05
 0.75752998E+02  0.24283E+05
 0.75803001E+02  0.24436E+05
 0.75853004E+02  0.24508E+05
 0.75903000E+02  0.24499E+05
 0.75953003E+02  0.24498E+05
 0.76002998E+02  0.24512E+05
 0.76053001E+02  0.24678E+05
 0.76103004E+02  0.24843E+05
 0.76153000E+02  0.24809E+05
 0.76203003E+02  0.25070E+05
 0.76252998E+02  0.25123E+05
 0.76303001E+02  0.24674E+05
 0.76353004E+02  0.24131E+05
 0.76403000E+02  0.23759E+05
 0.76453003E+02  0.23609E+05
 0.76502998E+02  0.23625E+05
 0.76553001E+02  0.23784E+05
 0.76603004E+02  0.24006E+05
 0.76653000E+02  0.24237E+05
 0.76703003E+02  0.24390E+05
 0.76752998E+02  0.24411E+05
 0.76803001E+02  0.24424E+05
 0.76853004E+02  0.24674E+05
 0.76903000E+02  0.24861E+05
 0.76953003E+02  0.24961E+05
 0.77002998E+02  0.25118E+05
 0.77053001E+02  0.25021E+05
 0.77103004E+02  0.24915E+05
 0.77153000E+02  0.24804E+05
 0.77203003E+02  0.24732E+05
 0.77252998E+02  0.24820E+05
 0.77303001E+02  0.24901E+05
 0.77353004E+02  0.24912E+05
 0.77403000E+02  0.24596E+05
 0.77453003E+02  0.24105E+05
 0.77502998E+02  0.23569E+05
 0.77553001E+02  0.23223E+05
 0.77603004E+02  0.23408E+05
 0.77653000E+02  0.23805E+05
 0.77703003E+02  0.24103E+05
 0.77752998E+02  0.24267E+05
 0.77803001E+02  0.24490E+05
 0.77853004E+02  0.24842E+05
 0.77903000E+02  0.25012E+05
 0.77953003E+02  0.24826E+05
 0.78002998E+02  0.24512E+05
 0.78053001E+02  0.24438E+05
 0.78103004E+02  0.24498E+05
 0.78153000E+02  0.24379E+05
 0.78203003E+02  0.24150E+05
 0.78252998E+02  0.23826E+05
 0.78303001E+02  0.23508E+05
 0.78353004E+02  0.23657E+05
 0.78403000E+02  0.24176E+05
 0.78453003E+02  0.24725E+05
 0.78502998E+02  0.25155E+05
 0.78553001E+02  0.25422E+05
 0.78603004E+02  0.25621E+05
 0.78653000E+02  0.25767E+05
 0.78703003E+02  0.25754E+05
 0.78752998E+02  0.25541E+05
 0.78803001E+02  0.25131E+05
 0.78853004E+02  0.24451E+05
 0.78903000E+02  0.23771E+05
 0.78953003E+02  0.23360E+05
 0.79002998E+02  0.23290E+05
 0.79053001E+02  0.23510E+05
 0.79103004E+02  0.24004E+05
 0.79153000E+02  0.24752E+05
 0.79203003E+02  0.25420E+05
 0.79252998E+02  0.25631E+05
 0.79303001E+02  0.25442E+05
 0.79353004E+02  0.25119E+05
 0.79403000E+02  0.24925E+05
 0.79453003E+02  0.24879E+05
 0.79502998E+02  0.24704E+05
 0.79553001E+02  0.24510E+05
 0.79603004E+02  0.24393E+05
 0.79653000E+02  0.24267E+05
 0.79703003E+02  0.24101E+05
 0.79752998E+02  0.24167E+05
 0.79803001E+02  0.24535E+05
 0.79853004E+02  0.24796E+05
 0.79903000E+02  0.24868E+05
 0.79953003E+02  0.24834E+05
 0.80002998E+02  0.24620E+05
 0.80053001E+02  0.24231E+05
 0.80103004E+02  0.23869E+05
 0.80153000E+02  0.23652E+05
 0.80203003E+02  0.23358E+05
 0.80252998E+02  0.23062E+05
 0.80303001E+02  0.22996E+05
 0.80353004E+02  0.22843E+05
 0.80403000E+02  0.22662E+05
 0.80453003E+02  0.22770E+05
 0.80502998E+02  0.23309E+05
 0.80553001E+02  0.24215E+05
 0.80603004E+02  0.25062E+05
 0.80653000E+02  0.25744E+05
 0.80703003E+02  0.26245E+05
 0.80752998E+02  0.26315E+05
 0.80803001E+02  0.25967E+05
 0.80853004E+02  0.25343E+05
 0.80903000E+02  0.24534E+05
 0.80953003E+02  0.24021E+05
 0.81002998E+02  0.23931E+05
 0.81053001E+02  0.24231E+05
 0.81103004E+02  0.24606E+05
 0.81153000E+02  0.24756E+05
 0.81203003E+02  0.24719E+05
 0.81252998E+02  0.24290E+05
 0.81303001E+02  0.23663E+05
 0.81353004E+02  0.23154E+05
 0.81403000E+02  0.23022E+05
 0.81453003E+02  0.23120E+05
 0.81502998E+02  0.23317E+05
 0.81553001E+02  0.23648E+05
 0.81603004E+02  0.23996E+05
 0.81653000E+02  0.24291E+05
 0.81703003E+02  0.24446E+05
 0.81752998E+02  0.24445E+05
 0.81803001E+02  0.24742E+05
 0.81853004E+02  0.25065E+05
 0.81903000E+02  0.25092E+05
 0.81953003E+02  0.25040E+05
 0.82002998E+02  0.24926E+05
 0.82053001E+02  0.24724E+05
 0.82103004E+02  0.24277E+05
 0.82153000E+02  0.23946E+05
 0.82203003E+02  0.23962E+05
 0.82252998E+02  0.24131E+05
 0.82303001E+02  0.24443E+05
 0.82353004E+02  0.24992E+05
 0.82403000E+02  0.25359E+05
 0.82453003E+02  0.25470E+05
 0.82502998E+02  0.25458E+05
 0.82553001E+02  0.25384E+05
 0.82603004E+02  0.25297E+05
 0.82653000E+02  0.25226E+05
 0.82703003E+02  0.25359E+05
 0.82752998E+02  0.25474E+05
 0.82803001E+02  0.25568E+05
 0.82853004E+02  0.25459E+05
 0.82903000E+02  0.25033E+05
 0.82953003E+02  0.24547E+05
 0.83002998E+02  0.24138E+05
 0.83053001E+02  0.23958E+05
 0.83103004E+02  0.23922E+05
 0.83153000E+02  0.23832E+05
 0.83203003E+02  0.23610E+05
 0.83252998E+02  0.23370E+05
 0.83303001E+02  0.23243E+05
 0.83353004E+02  0.23135E+05
 0.83403000E+02  0.22989E+05
 0.83453003E+02  0.22917E+05
 0.83502998E+02  0.23100E+05
 0.83553001E+02  0.23538E+05
 0.83603004E+02  0.24143E+05
 0.83653000E+02  0.24773E+05
 0.83703003E+02  0.25234E+05
 0.83752998E+02  0.25630E+05
 0.83803001E+02  0.25890E+05
 0.83853004E+02  0.26011E+05
 0.83903000E+02  0.25948E+05
 0.83953003E+02  0.25558E+05
 0.84002998E+02  0.25049E+05
 0.84053001E+02  0.24569E+05
 0.84103004E+02  0.24219E+05
 0.84153000E+02  0.24182E+05
 0.84203003E+02  0.24424E+05
 0.84252998E+02  0.24611E+05
 0.84303001E+02  0.24658E+05
 0.84353004E+02  0.24525E+05
 0.84403000E+02  0.24294E+05
 0.84453003E+02  0.24124E+05
 0.84502998E+02  0.23978E+05
 0.84553001E+02  0.23976E+05
 0.84603004E+02  0.24139E+05
 0.84653000E+02  0.24338E+05
 0.84703003E+02  0.24470E+05
 0.84752998E+02  0.24549E+05
 0.84803001E+02  0.24643E+05
 0.84853004E+02  0.24458E+05
 0.84903000E+02  0.24055E+05
 0.84953003E+02  0.23665E+05
 0.85002998E+02  0.23150E+05
 0.85053001E+02  0.22724E+05
 0.85103004E+02  0.22633E+05
 0.85153000E+02  0.22855E+05
 0.85203003E+02  0.23243E+05
 0.85252998E+02  0.23794E+05
 0.85303001E+02  0.24341E+05
 0.85353004E+02  0.24746E+05
 0.85403000E+02  0.25043E+05
 0.85453003E+02  0.25216E+05
 0.85502998E+02  0.25172E+05
 0.85553001E+02  0.24869E+05
 0.85603004E+02  0.24446E+05
 0.85653000E+02  0.24093E+05
 0.85703003E+02  0.23968E+05
 0.85752998E+02  0.24019E+05
 0.85803001E+02  0.24089E+05
 0.85853004E+02  0.24070E+05
 0.85903000E+02  0.24171E+05
 0.85953003E+02  0.24225E+05
 0.86002998E+02  0.24354E+05
 0.86053001E+02  0.24913E+05
 0.86103004E+02  0.25648E+05
 0.86153000E+02  0.26277E+05
 0.86203003E+02  0.26690E+05
 0.86252998E+02  0.26859E+05
 0.86303001E+02  0.26890E+05
 0.86353004E+02  0.26818E+05
 0.86403000E+02  0.26539E+05
 0.86453003E+02  0.26097E+05
 0.86502998E+02  0.25394E+05
 0.86553001E+02  0.24463E+05
 0.86603004E+02  0.23464E+05
 0.86653000E+02  0.22605E+05
 0.86703003E+02  0.22014E+05
 0.86752998E+02  0.21911E+05
 0.86803001E+02  0.22186E+05
 0.86853004E+02  0.22346E+05
 0.86903000E+02  0.22513E+05
 0.86953003E+02  0.22968E+05
 0.87002998E+02  0.23718E+05
 0.87053001E+02  0.24442E+05
 0.87103004E+02  0.24894E+05
 0.87153000E+02  0.25046E+05
 0.87203003E+02  0.24830E+05
 0.87252998E+02  0.24596E+05
 0.87303001E+02  0.24743E+05
 0.87353004E+02  0.25088E+05
 0.87403000E+02  0.25447E+05
 0.87453003E+02  0.25686E+05
 0.87502998E+02  0.25581E+05
 0.87553001E+02  0.25011E+05
 0.87602997E+02  0.24229E+05
 0.87653000E+02  0.23794E+05
 0.87703003E+02  0.23731E+05
 0.87752998E+02  0.23980E+05
 0.87803001E+02  0.24504E+05
 0.87852997E+02  0.24951E+05
 0.87903000E+02  0.25141E+05
 0.87953003E+02  0.25272E+05
 0.88002998E+02  0.25372E+05
 0.88053001E+02  0.25265E+05
 0.88102997E+02  0.25057E+05
 0.88153000E+02  0.24790E+05
 0.88203003E+02  0.24496E+05
 0.88252998E+02  0.24219E+05
 0.88303001E+02  0.24038E+05
 0.88352997E+02  0.23870E+05
 0.88403000E+02  0.23642E+05
 0.88453003E+02  0.23584E+05
 0.88502998E+02  0.23710E+05
 0.88553001E+02  0.23967E+05
 0.88602997E+02  0.24268E+05
 0.88653000E+02  0.24457E+05
 0.88703003E+02  0.24657E+05
 0.88752998E+02  0.24838E+05
 0.88803001E+02  0.24853E+05
 0.88852997E+02  0.24727E+05
 0.88903000E+02  0.24434E+05
 0.88953003E+02  0.24004E+05
 0.89002998E+02  0.23592E+05
 0.89053001E+02  0.23405E+05
 0.89102997E+02  0.23512E+05
 0.89153000E+02  0.23738E+05
 0.89203003E+02  0.23924E+05
 0.89252998E+02  0.24205E+05
 0.89303001E+02  0.24557E+05
 0.89352997E+02  0.24877E+05
 0.89403000E+02  0.25035E+05
 0.89453003E+02  0.24838E+05
 0.89502998E+02  0.24530E+05
 0.89553001E+02  0.24399E+05
 0.89602997E+02  0.24504E+05
 0.89653000E+02  0.24652E+05
 0.89703003E+02  0.24768E+05
 0.89752998E+02  0.24836E+05
 0.89803001E+02  0.24788E+05
 0.89852997E+02  0.24722E+05
 0.89903000E+02  0.24752E+05
 0.89953003E+02  0.24873E+05
 0.90002998E+02  0.24959E+05
 0.90053001E+02  0.24946E+05
 0.90102997E+02  0.24843E+05
 0.90153000E+02  0.24768E+05
 0.90203003E+02  0.24678E+05
 0.90252998E+02  0.24531E+05
 0.90303001E+02  0.24453E+05
 0.90352997E+02  0.24439E+05
 0.90403000E+02  0.24382E+05
 0.90453003E+02  0.24166E+05
 0.90502998E+02  0.24049E+05
 0.90553001E+02  0.24293E+05
 0.90602997E+02  0.24560E+05
 0.90653000E+02  0.24463E+05
 0.90703003E+02  0.24194E+05
 0.90752998E+02  0.24104E+05
 0.90803001E+02  0.24038E+05
 0.90852997E+02  0.23971E+05
 0.90903000E+02  0.24072E+05
 0.90953003E+02  0.24355E+05
 0.91002998E+02  0.24750E+05
 0.91053001E+02  0.25082E+05
 0.91102997E+02  0.25155E+05
 0.91153000E+02  0.24963E+05
 0.91203003E+02  0.24534E+05
 0.91252998E+02  0.23942E+05
 0.91303001E+02  0.23445E+05
 0.91352997E+02  0.23162E+05
 0.91403000E+02  0.23043E+05
 0.91453003E+02  0.23092E+05
 0.91502998E+02  0.23192E+05
 0.91553001E+02  0.23285E+05
 0.91602997E+02  0.23521E+05
 0.91653000E+02  0.23732E+05
 0.91703003E+02  0.23789E+05
 0.91752998E+02  0.23817E+05
 0.91803001E+02  0.23963E+05
 0.91852997E+02  0.24139E+05
 0.91903000E+02  0.24290E+05
 0.91953003E+02  0.24494E+05
 0.92002998E+02  0.24808E+05
 0.92053001E+02  0.25247E+05
 0.92102997E+02  0.25757E+05
 0.92153000E+02  0.26226E+05
 0.92203003E+02  0.26447E+05
 0.92252998E+02  0.26304E+05
 0.92303001E+02  0.25901E+05
 0.92352997E+02  0.25608E+05
 0.92403000E+02  0.25366E+05
 0.92453003E+02  0.24996E+05
 0.92502998E+02  0.24763E+05
 0.92553001E+02  0.24725E+05
 0.92602997E+02  0.24789E+05
 0.92653000E+02  0.24796E+05
 0.92703003E+02  0.24592E+05
 0.92752998E+02  0.24254E+05
 0.92803001E+02  0.23899E+05
 0.92852997E+02  0.23677E+05
 0.92903000E+02  0.23507E+05
 0.92953003E+02  0.23314E+05
 0.93002998E+02  0.23260E+05
 0.93053001E+02  0.23413E+05
 0.93102997E+02  0.23694E+05
 0.93153000E+02  0.23961E+05
 0.93203003E+02  0.24247E+05
 0.93252998E+02  0.24521E+05
 0.93303001E+02  0.24680E+05
 0.93352997E+02  0.24824E+05
 0.93403000E+02  0.24954E+05
 0.93453003E+02  0.24973E+05
 0.93502998E+02  0.24922E+05
 0.93553001E+02  0.24888E+05
 0.93602997E+02  0.24923E+05
 0.93653000E+02  0.24938E+05
 0.93703003E+02  0.24942E+05
 0.93752998E+02  0.24984E+05
 0.93803001E+02  0.24963E+05
 0.93852997E+02  0.24892E+05
 0.93903000E+02  0.24791E+05
 0.93953003E+02  0.24543E+05
 0.94002998E+02  0.24103E+05
 0.94053001E+02  0.23698E+05
 0.94102997E+02  0.23508E+05
 0.94153000E+02  0.23554E+05
 0.94203003E+02  0.23722E+05
 0.94252998E+02  0.23754E+05
 0.94303001E+02  0.23627E+05
 0.94352997E+02  0.23456E+05
 0.94403000E+02  0.23366E+05
 0.94453003E+02  0.23589E+05
 0.94502998E+02  0.24017E+05
 0.94553001E+02  0.24455E+05
 0.94602997E+02  0.24800E+05
 0.94653000E+02  0.24928E+05
 0.94703003E+02  0.24887E+05
 0.94752998E+02  0.24795E+05
 0.94803001E+02  0.24724E+05
 0.94852997E+02  0.24732E+05
 0.94903000E+02  0.24859E+05
 0.94953003E+02  0.25013E+05
 0.95002998E+02  0.25102E+05
 0.95053001E+02  0.25200E+05
 0.95102997E+02  0.25256E+05
 0.95153000E+02  0.25231E+05
 0.95203003E+02  0.25071E+05
 0.95252998E+02  0.24700E+05
 0.95303001E+02  0.24308E+05
 0.95352997E+02  0.23872E+05
 0.95403000E+02  0.23422E+05
 0.95453003E+02  0.23186E+05
 0.95502998E+02  0.23160E+05
 0.95553001E+02  0.23274E+05
 0.95602997E+02  0.23450E+05
 0.95653000E+02  0.23653E+05
 0.95703003E+02  0.23852E+05
 0.95752998E+02  0.23977E+05
 0.95803001E+02  0.24036E+05
 0.95852997E+02  0.24053E+05
 0.95903000E+02  0.24081E+05
 0.95953003E+02  0.24200E+05
 0.96002998E+02  0.24406E+05
 0.96053001E+02  0.24626E+05
 0.96102997E+02  0.24842E+05
 0.96153000E+02  0.24966E+05
 0.96203003E+02  0.25043E+05
 0.96252998E+02  0.25057E+05
 0.96303001E+02  0.25057E+05
 0.96352997E+02  0.25125E+05
 0.96403000E+02  0.25186E+05
 0.96453003E+02  0.25289E+05
 0.96502998E+02  0.25359E+05
 0.96553001E+02  0.25355E+05
 0.96602997E+02  0.25245E+05
 0.96653000E+02  0.25076E+05
 0.96703003E+02  0.24904E+05
 0.96752998E+02  0.24806E+05
 0.96803001E+02  0.24846E+05
 0.96852997E+02  0.24971E+05
 0.96903000E+02  0.25011E+05
 0.96953003E+02  0.24965E+05
 0.97002998E+02  0.24867E+05
 0.97053001E+02  0.24628E+05
 0.97102997E+02  0.24306E+05
 0.97153000E+02  0.23927E+05
 0.97203003E+02  0.23669E+05
 0.97252998E+02  0.23546E+05
 0.97303001E+02  0.23457E+05
 0.97352997E+02  0.23482E+05
 0.97403000E+02  0.23594E+05
 0.97453003E+02  0.23740E+05
 0.97502998E+02  0.23922E+05
 0.97553001E+02  0.24134E+05
 0.97602997E+02  0.24363E+05
 0.97653000E+02  0.24564E+05
 0.97703003E+02  0.24730E+05
 0.97752998E+02  0.24855E+05
 0.97803001E+02  0.24908E+05
 0.97852997E+02  0.24789E+05
 0.97903000E+02  0.24604E+05
 0.97953003E+02  0.24480E+05
 0.98002998E+02  0.24357E+05
