-0.19800000E+01  0.71440E+04
-0.19300001E+01  0.92910E+04
-0.18800000E+01  0.11701E+05
-0.18300000E+01  0.13677E+05
-0.17800000E+01  0.14212E+05
-0.17300000E+01  0.13465E+05
-0.16800001E+01  0.12121E+05
-0.16300000E+01  0.11211E+05
-0.15800000E+01  0.10549E+05
-0.15300000E+01  0.94700E+04
-0.14800000E+01  0.79090E+04
-0.14300001E+01  0.61080E+04
-0.13800000E+01  0.45780E+04
-0.13299999E+01  0.30140E+04
-0.12800000E+01  0.14650E+04
-0.12300000E+01  0.48900E+03
-0.11800001E+01 -0.28900E+03
-0.11300000E+01 -0.12790E+04
-0.10799999E+01 -0.24400E+04
-0.10300000E+01 -0.35830E+04
-0.98000002E+00 -0.53770E+04
-0.92999995E+00 -0.82830E+04
-0.88000000E+00 -0.10679E+05
-0.83000004E+00 -0.12047E+05
-0.77999997E+00 -0.13002E+05
-0.73000002E+00 -0.12931E+05
-0.67999995E+00 -0.11472E+05
-0.63000000E+00 -0.88260E+04
-0.58000004E+00 -0.56330E+04
-0.52999997E+00 -0.22720E+04
-0.48000002E+00  0.86500E+03
-0.42999995E+00  0.30520E+04
-0.38000000E+00  0.45780E+04
-0.33000004E+00  0.57880E+04
-0.27999997E+00  0.64490E+04
-0.23000002E+00  0.66710E+04
-0.17999995E+00  0.67400E+04
-0.13000000E+00  0.61830E+04
-0.80000043E-01  0.49450E+04
-0.29999971E-01  0.36640E+04
 0.19999981E-01  0.24790E+04
 0.69999933E-01  0.80100E+03
 0.12000012E+00 -0.17310E+04
 0.17000008E+00 -0.43740E+04
 0.22000003E+00 -0.68930E+04
 0.26999998E+00 -0.91540E+04
 0.31999993E+00 -0.10514E+05
 0.37000012E+00 -0.10788E+05
 0.42000008E+00 -0.95250E+04
 0.47000003E+00 -0.67940E+04
 0.51999998E+00 -0.35820E+04
 0.56999993E+00 -0.12800E+03
 0.62000012E+00  0.38530E+04
 0.67000008E+00  0.81790E+04
 0.72000003E+00  0.11961E+05
 0.76999998E+00  0.14352E+05
 0.81999993E+00  0.15207E+05
 0.87000012E+00  0.15123E+05
 0.92000008E+00  0.14878E+05
 0.97000003E+00  0.13760E+05
 0.10200000E+01  0.11093E+05
 0.10699999E+01  0.80190E+04
 0.11200001E+01  0.57090E+04
 0.11700001E+01  0.40660E+04
 0.12200000E+01  0.23350E+04
 0.12700000E+01  0.16100E+03
 0.13199999E+01 -0.24490E+04
 0.13700001E+01 -0.52550E+04
 0.14200001E+01 -0.77650E+04
 0.14700000E+01 -0.98450E+04
 0.15200000E+01 -0.11790E+05
 0.15699999E+01 -0.13964E+05
 0.16200001E+01 -0.16262E+05
 0.16700001E+01 -0.17794E+05
 0.17200000E+01 -0.18055E+05
 0.17700000E+01 -0.17494E+05
 0.18199999E+01 -0.16576E+05
 0.18700001E+01 -0.15588E+05
 0.19200001E+01 -0.14855E+05
 0.19700000E+01 -0.14588E+05
 0.20200000E+01 -0.14873E+05
 0.20700002E+01 -0.15537E+05
 0.21199999E+01 -0.15820E+05
 0.21700001E+01 -0.15078E+05
 0.22200003E+01 -0.13308E+05
 0.22700000E+01 -0.10833E+05
 0.23200002E+01 -0.80090E+04
 0.23699999E+01 -0.46450E+04
 0.24200001E+01 -0.55800E+03
 0.24700003E+01  0.35210E+04
 0.25200000E+01  0.67700E+04
 0.25700002E+01  0.92840E+04
 0.26199999E+01  0.11025E+05
 0.26700001E+01  0.11286E+05
 0.27200003E+01  0.99980E+04
 0.27700000E+01  0.81110E+04
 0.28200002E+01  0.66150E+04
 0.28699999E+01  0.52010E+04
 0.29200001E+01  0.32260E+04
 0.29700003E+01  0.72100E+03
 0.30200000E+01 -0.19690E+04
 0.30700002E+01 -0.40800E+04
 0.31199999E+01 -0.52050E+04
 0.31700001E+01 -0.54690E+04
 0.32200003E+01 -0.49560E+04
 0.32700000E+01 -0.41180E+04
 0.33200002E+01 -0.36210E+04
 0.33699999E+01 -0.35130E+04
 0.34200001E+01 -0.38600E+04
 0.34700003E+01 -0.46490E+04
 0.35200000E+01 -0.54540E+04
 0.35700002E+01 -0.59280E+04
 0.36199999E+01 -0.58040E+04
 0.36700001E+01 -0.56990E+04
 0.37200003E+01 -0.60470E+04
 0.37700000E+01 -0.66690E+04
 0.38200002E+01 -0.80040E+04
 0.38699999E+01 -0.10392E+05
 0.39200001E+01 -0.13304E+05
 0.39700003E+01 -0.15777E+05
 0.40200000E+01 -0.17086E+05
 0.40700002E+01 -0.16946E+05
 0.41199999E+01 -0.16166E+05
 0.41700001E+01 -0.15525E+05
 0.42200003E+01 -0.14523E+05
 0.42700000E+01 -0.12573E+05
 0.43200002E+01 -0.10022E+05
 0.43699999E+01 -0.70770E+04
 0.44200001E+01 -0.43190E+04
 0.44700003E+01 -0.29120E+04
 0.45200000E+01 -0.20950E+04
 0.45700002E+01 -0.11260E+04
 0.46199999E+01  0.36100E+03
 0.46700001E+01  0.25210E+04
 0.47200003E+01  0.46780E+04
 0.47700000E+01  0.63560E+04
 0.48200002E+01  0.74090E+04
 0.48699999E+01  0.86400E+04
 0.49200001E+01  0.97950E+04
 0.49700003E+01  0.10819E+05
 0.50200000E+01  0.12777E+05
 0.50700002E+01  0.16236E+05
 0.51199999E+01  0.20775E+05
 0.51700001E+01  0.25890E+05
 0.52200003E+01  0.31721E+05
 0.52700000E+01  0.37156E+05
 0.53200002E+01  0.41275E+05
 0.53699999E+01  0.44698E+05
 0.54200001E+01  0.48158E+05
 0.54700003E+01  0.51008E+05
 0.55200000E+01  0.53214E+05
 0.55700002E+01  0.55543E+05
 0.56199999E+01  0.57040E+05
 0.56700001E+01  0.56965E+05
 0.57200003E+01  0.55744E+05
 0.57700000E+01  0.53665E+05
 0.58200002E+01  0.50728E+05
 0.58699999E+01  0.47498E+05
 0.59200001E+01  0.43943E+05
 0.59700003E+01  0.39620E+05
 0.60200000E+01  0.35149E+05
 0.60700002E+01  0.30161E+05
 0.61200004E+01  0.24431E+05
 0.61700006E+01  0.18497E+05
 0.62199998E+01  0.12303E+05
 0.62700000E+01  0.67520E+04
 0.63200002E+01  0.21490E+04
 0.63700004E+01 -0.22880E+04
 0.64200006E+01 -0.67590E+04
 0.64699998E+01 -0.11334E+05
 0.65200000E+01 -0.16485E+05
 0.65700002E+01 -0.22096E+05
 0.66200004E+01 -0.26941E+05
 0.66700006E+01 -0.30876E+05
 0.67199998E+01 -0.34361E+05
 0.67700000E+01 -0.36873E+05
 0.68200002E+01 -0.38770E+05
 0.68700004E+01 -0.40866E+05
 0.69200006E+01 -0.42869E+05
 0.69699998E+01 -0.44555E+05
 0.70200000E+01 -0.46297E+05
 0.70700002E+01 -0.48378E+05
 0.71200004E+01 -0.49977E+05
 0.71700006E+01 -0.50616E+05
 0.72199998E+01 -0.51050E+05
 0.72700000E+01 -0.50938E+05
 0.73200002E+01 -0.49633E+05
 0.73700004E+01 -0.47651E+05
 0.74200006E+01 -0.45148E+05
 0.74699998E+01 -0.41884E+05
 0.75200000E+01 -0.38001E+05
 0.75700002E+01 -0.33314E+05
 0.76200004E+01 -0.27998E+05
 0.76700006E+01 -0.22642E+05
 0.77199998E+01 -0.17157E+05
 0.77700000E+01 -0.11461E+05
 0.78200002E+01 -0.59180E+04
 0.78700004E+01 -0.82500E+03
 0.79200006E+01  0.36290E+04
 0.79699998E+01  0.76000E+04
 0.80200005E+01  0.10971E+05
 0.80699997E+01  0.13170E+05
 0.81200008E+01  0.14521E+05
 0.81700001E+01  0.15395E+05
 0.82199993E+01  0.15724E+05
 0.82700005E+01  0.16087E+05
 0.83199997E+01  0.16550E+05
 0.83700008E+01  0.17053E+05
 0.84200001E+01  0.17866E+05
 0.84699993E+01  0.18361E+05
 0.85200005E+01  0.18692E+05
 0.85699997E+01  0.18811E+05
 0.86200008E+01  0.18191E+05
 0.86700001E+01  0.16746E+05
 0.87199993E+01  0.14295E+05
 0.87700005E+01  0.11599E+05
 0.88199997E+01  0.96010E+04
 0.88700008E+01  0.87140E+04
 0.89200001E+01  0.83810E+04
 0.89699993E+01  0.83770E+04
 0.90200005E+01  0.89430E+04
 0.90699997E+01  0.10077E+05
 0.91200008E+01  0.11151E+05
 0.91700001E+01  0.11472E+05
 0.92199993E+01  0.11646E+05
 0.92700005E+01  0.11643E+05
 0.93199997E+01  0.11126E+05
 0.93700008E+01  0.96770E+04
 0.94200001E+01  0.78640E+04
 0.94699993E+01  0.62350E+04
 0.95200005E+01  0.45660E+04
 0.95699997E+01  0.27620E+04
 0.96200008E+01  0.33200E+03
 0.96700001E+01 -0.19560E+04
 0.97199993E+01 -0.45600E+04
 0.97700005E+01 -0.77930E+04
 0.98199997E+01 -0.11407E+05
 0.98700008E+01 -0.15453E+05
 0.99200001E+01 -0.18917E+05
 0.99699993E+01 -0.21806E+05
 0.10020000E+02 -0.24016E+05
 0.10070000E+02 -0.25861E+05
 0.10120001E+02 -0.27786E+05
 0.10170000E+02 -0.30319E+05
 0.10219999E+02 -0.33070E+05
 0.10270000E+02 -0.35357E+05
 0.10320000E+02 -0.36379E+05
 0.10370001E+02 -0.36324E+05
 0.10420000E+02 -0.35013E+05
 0.10469999E+02 -0.32343E+05
 0.10520000E+02 -0.32052E+05
 0.10570000E+02 -0.31358E+05
 0.10620001E+02 -0.52453E+05
 0.10670000E+02 -0.12770E+06
 0.10719999E+02 -0.24647E+06
 0.10770000E+02 -0.30285E+06
 0.10820000E+02 -0.23765E+06
 0.10870001E+02 -0.63685E+05
 0.10920000E+02  0.20745E+06
 0.10969999E+02  0.29183E+06
 0.11020000E+02  0.13262E+05
 0.11070000E+02 -0.29337E+06
 0.11120001E+02 -0.36120E+06
 0.11170000E+02 -0.38849E+06
 0.11219999E+02 -0.27905E+06
 0.11270000E+02  0.89550E+05
 0.11320000E+02  0.20322E+06
 0.11370001E+02 -0.37315E+05
 0.11420000E+02 -0.24026E+06
 0.11469999E+02 -0.26410E+06
 0.11520000E+02 -0.21947E+06
 0.11570000E+02 -0.17334E+06
 0.11620001E+02  0.29930E+04
 0.11670000E+02  0.15770E+06
 0.11719999E+02 -0.14371E+06
 0.11770000E+02 -0.15195E+06
 0.11820000E+02  0.54642E+05
 0.11870001E+02 -0.44918E+06
 0.11920000E+02 -0.38603E+06
 0.11969999E+02  0.50387E+05
 0.12020000E+02  0.18708E+06
 0.12070000E+02  0.48198E+06
 0.12120001E+02  0.32418E+06
 0.12170000E+02  0.45514E+06
 0.12219999E+02  0.28165E+06
 0.12270000E+02 -0.53804E+06
 0.12320000E+02 -0.29889E+06
 0.12370001E+02  0.15227E+05
 0.12420000E+02 -0.69367E+05
 0.12469999E+02  0.31255E+05
 0.12520000E+02  0.16430E+06
 0.12570000E+02  0.16997E+06
 0.12620001E+02  0.79706E+05
 0.12670000E+02  0.22657E+06
 0.12719999E+02  0.33916E+06
 0.12770000E+02  0.27482E+06
 0.12820000E+02 -0.24125E+06
 0.12870001E+02 -0.35978E+06
 0.12920000E+02 -0.12209E+06
 0.12969999E+02 -0.58215E+06
 0.13020000E+02 -0.61179E+06
 0.13070000E+02 -0.85182E+06
 0.13120001E+02 -0.10585E+07
 0.13170000E+02 -0.85754E+05
 0.13219999E+02  0.63419E+06
 0.13270000E+02  0.10116E+07
 0.13320000E+02  0.64668E+06
 0.13370001E+02  0.36975E+06
 0.13420000E+02  0.77530E+06
 0.13469999E+02  0.73234E+06
 0.13520000E+02  0.14317E+07
 0.13570000E+02  0.12492E+07
 0.13620001E+02  0.12249E+05
 0.13670000E+02 -0.43719E+06
 0.13719999E+02  0.11968E+06
 0.13770000E+02  0.12104E+06
 0.13820000E+02 -0.16006E+07
 0.13870001E+02 -0.11918E+07
 0.13920000E+02 -0.20621E+06
 0.13969999E+02 -0.43720E+06
 0.14020000E+02  0.23766E+06
 0.14070002E+02  0.15824E+06
 0.14120001E+02 -0.11851E+07
 0.14170000E+02 -0.14912E+07
 0.14220001E+02 -0.72473E+06
 0.14270000E+02 -0.82808E+06
 0.14320002E+02 -0.12902E+07
 0.14370001E+02 -0.12662E+07
 0.14420000E+02 -0.77883E+05
 0.14470001E+02 -0.62328E+06
 0.14520000E+02 -0.16330E+07
 0.14570002E+02 -0.44892E+06
 0.14620001E+02 -0.58128E+06
 0.14670000E+02  0.62606E+06
 0.14720001E+02  0.16402E+07
 0.14770000E+02  0.90515E+06
 0.14820002E+02  0.16587E+07
 0.14870001E+02  0.14862E+07
 0.14920000E+02 -0.47973E+06
 0.14970001E+02 -0.16811E+07
 0.15020000E+02 -0.85437E+06
 0.15070002E+02  0.92568E+05
 0.15120001E+02 -0.75822E+06
 0.15170000E+02 -0.71318E+06
 0.15220001E+02  0.13276E+07
 0.15270000E+02  0.26776E+06
 0.15320002E+02 -0.95945E+06
 0.15370001E+02  0.53789E+05
 0.15420000E+02 -0.10008E+07
 0.15470001E+02 -0.18702E+07
 0.15520000E+02 -0.64018E+06
 0.15570002E+02  0.51648E+06
 0.15620001E+02 -0.15857E+06
 0.15670000E+02 -0.11965E+07
 0.15720001E+02 -0.91345E+06
 0.15770000E+02 -0.18606E+06
 0.15820002E+02 -0.76696E+06
 0.15870001E+02 -0.19142E+07
 0.15920000E+02 -0.35780E+07
 0.15970001E+02 -0.55976E+07
 0.16020000E+02 -0.38103E+07
 0.16070002E+02 -0.16317E+07
 0.16120001E+02 -0.23236E+07
 0.16170000E+02 -0.13327E+07
 0.16220001E+02  0.55692E+06
 0.16270000E+02  0.10312E+07
 0.16320002E+02  0.11445E+06
 0.16370001E+02 -0.13075E+07
 0.16420000E+02 -0.17570E+07
 0.16470001E+02 -0.24268E+07
 0.16520000E+02 -0.13965E+07
 0.16570002E+02 -0.33487E+06
 0.16620001E+02 -0.23861E+07
 0.16670000E+02 -0.33781E+07
 0.16720001E+02 -0.29510E+07
 0.16770000E+02 -0.35940E+07
 0.16820002E+02 -0.49447E+07
 0.16870001E+02 -0.39154E+07
 0.16920000E+02 -0.23936E+07
 0.16970001E+02 -0.27935E+07
 0.17020000E+02 -0.13392E+07
 0.17070002E+02 -0.16906E+06
 0.17120001E+02 -0.14963E+07
 0.17170000E+02 -0.17122E+07
 0.17220001E+02 -0.45268E+06
 0.17270000E+02 -0.11854E+07
 0.17320002E+02 -0.16668E+07
 0.17370001E+02 -0.21421E+06
 0.17420000E+02  0.79410E+06
 0.17470001E+02  0.12542E+07
 0.17520000E+02  0.26701E+07
 0.17570002E+02  0.68937E+07
 0.17620001E+02  0.89797E+07
 0.17670000E+02  0.80009E+07
 0.17720001E+02  0.48699E+07
 0.17770000E+02  0.14047E+07
 0.17820002E+02 -0.10114E+06
 0.17870001E+02 -0.17692E+07
 0.17920000E+02  0.15104E+07
 0.17970001E+02  0.52708E+07
 0.18020000E+02  0.50258E+07
 0.18070002E+02  0.63963E+07
 0.18120001E+02  0.82301E+07
 0.18170000E+02  0.94052E+07
 0.18220001E+02  0.84942E+07
 0.18270000E+02  0.49647E+07
 0.18320002E+02  0.40540E+07
 0.18370001E+02  0.39126E+07
 0.18420000E+02  0.24941E+07
 0.18470001E+02  0.19153E+07
 0.18520000E+02 -0.18854E+06
 0.18570002E+02 -0.34754E+07
 0.18620001E+02 -0.71135E+07
 0.18670000E+02 -0.76746E+07
 0.18720001E+02 -0.13732E+07
 0.18770000E+02  0.42338E+07
 0.18820002E+02  0.30708E+07
 0.18870001E+02  0.19052E+07
 0.18920000E+02  0.77476E+06
 0.18970001E+02 -0.30242E+07
 0.19020000E+02 -0.33541E+07
 0.19070002E+02 -0.19815E+07
 0.19120001E+02 -0.25448E+07
 0.19170000E+02 -0.24139E+07
 0.19220001E+02 -0.13402E+06
 0.19270000E+02  0.22746E+07
 0.19320002E+02  0.26999E+07
 0.19370001E+02  0.15363E+07
 0.19420000E+02  0.29507E+07
 0.19470001E+02  0.54770E+07
 0.19520000E+02  0.32797E+07
 0.19570002E+02 -0.12911E+07
 0.19620001E+02 -0.32611E+07
 0.19670000E+02 -0.73438E+06
 0.19720001E+02  0.63721E+06
 0.19770000E+02 -0.11215E+07
 0.19820002E+02 -0.41578E+07
 0.19870001E+02 -0.50797E+07
 0.19920000E+02 -0.61946E+06
 0.19970001E+02  0.21363E+07
 0.20020000E+02  0.37409E+07
 0.20070002E+02  0.34287E+07
 0.20120001E+02  0.14490E+07
 0.20170000E+02  0.21982E+06
 0.20220001E+02 -0.25605E+07
 0.20270000E+02 -0.28242E+07
 0.20320002E+02 -0.23732E+07
 0.20370001E+02  0.16946E+07
 0.20420000E+02  0.50669E+07
 0.20470001E+02  0.15778E+07
 0.20520000E+02 -0.28571E+07
 0.20570002E+02 -0.58344E+07
 0.20620001E+02 -0.42116E+07
 0.20670000E+02 -0.25882E+07
 0.20720001E+02 -0.14009E+07
 0.20770000E+02  0.93406E+06
 0.20820002E+02  0.19399E+07
 0.20870001E+02  0.37672E+07
 0.20920000E+02  0.37112E+07
 0.20970001E+02  0.15096E+07
 0.21020000E+02  0.25093E+07
 0.21070002E+02  0.57298E+07
 0.21120001E+02  0.52825E+07
 0.21170000E+02  0.16643E+07
 0.21220001E+02 -0.77537E+06
 0.21270000E+02 -0.18442E+07
 0.21320002E+02 -0.45266E+07
 0.21370001E+02 -0.62211E+07
 0.21420000E+02 -0.47688E+07
 0.21470001E+02 -0.39961E+07
 0.21520000E+02 -0.30389E+07
 0.21570002E+02 -0.15102E+07
 0.21620001E+02  0.74411E+06
 0.21670000E+02  0.39912E+07
 0.21720001E+02  0.60436E+07
 0.21770000E+02  0.79682E+07
 0.21820002E+02  0.10595E+08
 0.21870001E+02  0.13266E+08
 0.21920000E+02  0.13109E+08
 0.21970001E+02  0.96734E+07
 0.22020000E+02  0.59073E+07
 0.22070002E+02  0.31961E+07
 0.22120001E+02  0.13300E+07
 0.22170000E+02 -0.51498E+06
 0.22220001E+02 -0.16512E+07
 0.22270000E+02 -0.18135E+07
 0.22320002E+02 -0.11451E+07
 0.22370001E+02  0.31986E+06
 0.22420000E+02  0.31556E+07
 0.22470001E+02  0.58182E+07
 0.22520000E+02  0.65230E+07
 0.22570002E+02  0.77657E+07
 0.22620001E+02  0.96893E+07
 0.22670000E+02  0.10407E+08
 0.22720001E+02  0.89271E+07
 0.22770000E+02  0.61255E+07
 0.22820002E+02  0.46016E+07
 0.22870001E+02  0.34079E+07
 0.22920000E+02  0.77076E+06
 0.22970001E+02 -0.16345E+07
 0.23020000E+02 -0.29934E+07
 0.23070002E+02 -0.38212E+07
 0.23120001E+02 -0.29237E+07
 0.23170000E+02 -0.22509E+07
 0.23220001E+02 -0.28740E+07
 0.23270000E+02 -0.32975E+07
 0.23320002E+02 -0.35015E+07
 0.23370001E+02 -0.16876E+07
 0.23420000E+02 -0.42284E+06
 0.23470001E+02 -0.92989E+06
 0.23520000E+02 -0.15050E+06
 0.23570002E+02  0.16983E+07
 0.23620001E+02  0.41436E+07
 0.23670000E+02  0.38376E+07
 0.23720001E+02  0.15521E+07
 0.23770000E+02  0.11493E+07
 0.23820002E+02  0.51567E+06
 0.23870001E+02 -0.14179E+07
 0.23920000E+02 -0.48497E+07
 0.23970001E+02 -0.89710E+07
 0.24020000E+02 -0.10944E+08
 0.24070002E+02 -0.97870E+07
 0.24120001E+02 -0.69630E+07
 0.24170000E+02 -0.44561E+07
 0.24220001E+02 -0.25429E+07
 0.24270000E+02 -0.15749E+07
 0.24320002E+02 -0.91661E+06
 0.24370001E+02 -0.33701E+06
 0.24420000E+02 -0.71880E+04
 0.24470001E+02  0.36838E+06
 0.24520000E+02 -0.50307E+05
 0.24570002E+02 -0.57896E+05
 0.24620001E+02 -0.31678E+06
 0.24670000E+02 -0.16182E+07
 0.24720001E+02 -0.24639E+07
 0.24770000E+02 -0.25177E+07
 0.24820002E+02 -0.15641E+07
 0.24870001E+02 -0.54585E+05
 0.24920000E+02  0.12746E+07
 0.24970001E+02  0.12400E+07
 0.25020000E+02 -0.12397E+05
 0.25070002E+02 -0.19210E+07
 0.25120001E+02 -0.29014E+07
 0.25170000E+02 -0.21706E+07
 0.25220001E+02 -0.16065E+07
 0.25270000E+02 -0.10448E+07
 0.25320002E+02 -0.22656E+07
 0.25370001E+02 -0.42833E+07
 0.25420000E+02 -0.40665E+07
 0.25470001E+02 -0.33913E+07
 0.25520000E+02 -0.33692E+07
 0.25570002E+02 -0.31420E+07
 0.25620001E+02 -0.26062E+07
 0.25670000E+02 -0.21889E+07
 0.25720001E+02 -0.57832E+06
 0.25770000E+02  0.43383E+06
 0.25820002E+02  0.25955E+05
 0.25870001E+02  0.97834E+05
 0.25920000E+02 -0.18840E+06
 0.25970001E+02 -0.49197E+06
 0.26020000E+02 -0.10240E+07
 0.26070002E+02 -0.13026E+07
 0.26120001E+02 -0.55110E+06
 0.26170000E+02 -0.26337E+06
 0.26220001E+02 -0.98005E+06
 0.26270000E+02 -0.20092E+07
 0.26320002E+02 -0.28635E+07
 0.26370001E+02 -0.34348E+07
 0.26420000E+02 -0.34444E+07
 0.26470001E+02 -0.39154E+07
 0.26520000E+02 -0.45689E+07
 0.26570002E+02 -0.47269E+07
 0.26620001E+02 -0.51649E+07
 0.26670000E+02 -0.51492E+07
 0.26720001E+02 -0.48395E+07
 0.26770000E+02 -0.41985E+07
 0.26820002E+02 -0.27181E+07
 0.26870001E+02 -0.16176E+07
 0.26920000E+02 -0.13966E+07
 0.26970001E+02 -0.15536E+07
 0.27020000E+02 -0.15010E+07
 0.27070002E+02 -0.12810E+07
 0.27120001E+02 -0.14128E+07
 0.27170000E+02 -0.19964E+07
 0.27220001E+02 -0.23216E+07
 0.27270000E+02 -0.15378E+07
 0.27320002E+02 -0.25120E+06
 0.27370001E+02  0.12886E+06
 0.27420000E+02 -0.66603E+05
 0.27470001E+02  0.53623E+06
 0.27520000E+02  0.17384E+07
 0.27570002E+02  0.26884E+07
 0.27620001E+02  0.29066E+07
 0.27670000E+02  0.27035E+07
 0.27720001E+02  0.25254E+07
 0.27770000E+02  0.20331E+07
 0.27820002E+02  0.10442E+07
 0.27870001E+02 -0.78884E+06
 0.27920000E+02 -0.24921E+07
 0.27970001E+02 -0.30207E+07
 0.28020000E+02 -0.30062E+07
 0.28070002E+02 -0.23772E+07
 0.28120001E+02 -0.16782E+07
 0.28170000E+02 -0.84520E+06
 0.28220001E+02  0.49999E+06
 0.28270000E+02  0.66938E+06
 0.28320002E+02  0.72013E+05
 0.28370001E+02 -0.14869E+06
 0.28420000E+02 -0.75860E+06
 0.28470001E+02 -0.15455E+07
 0.28520000E+02 -0.20383E+07
 0.28570002E+02 -0.22302E+07
 0.28620001E+02 -0.19786E+07
 0.28670000E+02 -0.16331E+07
 0.28720001E+02 -0.19018E+07
 0.28770000E+02 -0.27700E+07
 0.28820002E+02 -0.29661E+07
 0.28870001E+02 -0.21582E+07
 0.28920000E+02 -0.60034E+06
 0.28970001E+02  0.13234E+07
 0.29020000E+02  0.25521E+07
 0.29070002E+02  0.31116E+07
 0.29120001E+02  0.29555E+07
 0.29170000E+02  0.25404E+07
 0.29220001E+02  0.21758E+07
 0.29270000E+02  0.12305E+07
 0.29320002E+02  0.59881E+06
 0.29370001E+02  0.34206E+06
 0.29420000E+02 -0.21886E+05
 0.29470001E+02 -0.31049E+06
 0.29520000E+02 -0.39674E+06
 0.29570002E+02  0.10016E+05
 0.29620001E+02  0.20378E+06
 0.29670000E+02  0.36689E+06
 0.29720001E+02  0.10846E+07
 0.29770000E+02  0.17752E+07
 0.29820002E+02  0.23314E+07
 0.29870001E+02  0.26573E+07
 0.29920000E+02  0.24095E+07
 0.29970001E+02  0.18759E+07
 0.30020000E+02  0.12099E+07
 0.30070000E+02  0.17964E+06
 0.30120003E+02 -0.63373E+06
 0.30170002E+02 -0.95936E+06
 0.30220001E+02 -0.12307E+07
 0.30270000E+02 -0.12497E+07
 0.30320000E+02 -0.92960E+06
 0.30370003E+02 -0.52945E+06
 0.30420002E+02 -0.35495E+06
 0.30470001E+02 -0.37614E+06
 0.30520000E+02 -0.13983E+06
 0.30570000E+02  0.25793E+06
 0.30620003E+02  0.63144E+06
 0.30670002E+02  0.13733E+07
 0.30720001E+02  0.21790E+07
 0.30770000E+02  0.21919E+07
 0.30820000E+02  0.17706E+07
 0.30870003E+02  0.13635E+07
 0.30920002E+02  0.91985E+06
 0.30970001E+02  0.27158E+06
 0.31020000E+02 -0.63334E+06
 0.31070000E+02 -0.15271E+07
 0.31120003E+02 -0.22295E+07
 0.31170002E+02 -0.24533E+07
 0.31220001E+02 -0.25683E+07
 0.31270000E+02 -0.27632E+07
 0.31320000E+02 -0.27241E+07
 0.31370003E+02 -0.24458E+07
 0.31420002E+02 -0.16364E+07
 0.31470001E+02 -0.37748E+06
 0.31520000E+02  0.61063E+06
 0.31570000E+02  0.11874E+07
 0.31620003E+02  0.16278E+07
 0.31670002E+02  0.16616E+07
 0.31720001E+02  0.93441E+06
 0.31770000E+02 -0.61195E+05
 0.31820000E+02 -0.65096E+06
 0.31870003E+02 -0.69694E+06
 0.31920002E+02 -0.14160E+06
 0.31970001E+02  0.85746E+06
 0.32020000E+02  0.15475E+07
 0.32070000E+02  0.12724E+07
 0.32120003E+02  0.76770E+06
 0.32170002E+02  0.52306E+06
 0.32220001E+02 -0.15804E+06
 0.32270000E+02 -0.75026E+06
 0.32320000E+02 -0.63314E+06
 0.32370003E+02 -0.38695E+06
 0.32420002E+02 -0.24569E+06
 0.32470001E+02 -0.39252E+06
 0.32520000E+02 -0.84256E+06
 0.32570000E+02 -0.14536E+07
 0.32620003E+02 -0.18974E+07
 0.32670002E+02 -0.15724E+07
 0.32720001E+02 -0.77952E+06
 0.32770000E+02  0.18588E+06
 0.32820000E+02  0.76103E+06
 0.32870003E+02  0.72183E+06
 0.32920002E+02  0.78473E+06
 0.32970001E+02  0.70483E+06
 0.33020000E+02  0.38912E+06
 0.33070000E+02  0.54960E+06
 0.33120003E+02  0.10044E+07
 0.33170002E+02  0.15560E+07
 0.33220001E+02  0.24089E+07
 0.33270000E+02  0.25622E+07
 0.33320000E+02  0.18613E+07
 0.33370003E+02  0.10335E+07
 0.33420002E+02  0.66223E+06
 0.33470001E+02  0.12808E+07
 0.33520000E+02  0.19143E+07
 0.33570000E+02  0.20271E+07
 0.33620003E+02  0.22055E+07
 0.33670002E+02  0.25857E+07
 0.33720001E+02  0.25531E+07
 0.33770000E+02  0.20067E+07
 0.33820000E+02  0.16553E+07
 0.33870003E+02  0.16746E+07
 0.33920002E+02  0.19902E+07
 0.33970001E+02  0.22592E+07
 0.34020000E+02  0.20064E+07
 0.34070000E+02  0.12410E+07
 0.34120003E+02  0.49723E+06
 0.34170002E+02  0.19702E+05
 0.34220001E+02 -0.75350E+06
 0.34270000E+02 -0.14122E+07
 0.34320000E+02 -0.12142E+07
 0.34370003E+02 -0.59513E+06
 0.34420002E+02 -0.13630E+05
 0.34470001E+02  0.40935E+06
 0.34520000E+02  0.70275E+06
 0.34570000E+02  0.76175E+06
 0.34620003E+02  0.73654E+06
 0.34670002E+02  0.64084E+06
 0.34720001E+02  0.37120E+06
 0.34770000E+02  0.88810E+05
 0.34820000E+02 -0.31610E+05
 0.34870003E+02  0.11108E+06
 0.34920002E+02  0.98468E+05
 0.34970001E+02 -0.36577E+05
 0.35020000E+02  0.11828E+05
 0.35070000E+02  0.32316E+06
 0.35120003E+02  0.67549E+06
 0.35170002E+02  0.77838E+06
 0.35220001E+02  0.57248E+06
 0.35270000E+02  0.11576E+06
 0.35320000E+02 -0.21274E+06
 0.35370003E+02 -0.41150E+06
 0.35420002E+02 -0.88630E+06
 0.35470001E+02 -0.16210E+07
 0.35520000E+02 -0.20455E+07
 0.35570000E+02 -0.21201E+07
 0.35620003E+02 -0.22855E+07
 0.35670002E+02 -0.23831E+07
 0.35720001E+02 -0.18664E+07
 0.35770000E+02 -0.10198E+07
 0.35820000E+02 -0.46929E+06
 0.35870003E+02 -0.72101E+05
 0.35920002E+02  0.39028E+06
 0.35970001E+02  0.12437E+07
 0.36020000E+02  0.19902E+07
 0.36070000E+02  0.22346E+07
 0.36120003E+02  0.23696E+07
 0.36170002E+02  0.21711E+07
 0.36220001E+02  0.21720E+07
 0.36270000E+02  0.26084E+07
 0.36320000E+02  0.28583E+07
 0.36370003E+02  0.30731E+07
 0.36420002E+02  0.30713E+07
 0.36470001E+02  0.29013E+07
 0.36520000E+02  0.31907E+07
 0.36570000E+02  0.34587E+07
 0.36620003E+02  0.35493E+07
 0.36670002E+02  0.35897E+07
 0.36720001E+02  0.31519E+07
 0.36770000E+02  0.24168E+07
 0.36820000E+02  0.18186E+07
 0.36870003E+02  0.11874E+07
 0.36920002E+02  0.75273E+06
 0.36970001E+02  0.66590E+06
 0.37020000E+02  0.28607E+06
 0.37070000E+02  0.23279E+06
 0.37120003E+02  0.13827E+06
 0.37170002E+02 -0.84638E+06
 0.37220001E+02 -0.17653E+07
 0.37270000E+02 -0.23352E+07
 0.37320000E+02 -0.28661E+07
 0.37370003E+02 -0.34387E+07
 0.37420002E+02 -0.39475E+07
 0.37470001E+02 -0.42809E+07
 0.37520000E+02 -0.43601E+07
 0.37570000E+02 -0.39917E+07
 0.37620003E+02 -0.33115E+07
 0.37670002E+02 -0.27917E+07
 0.37720001E+02 -0.25430E+07
 0.37770000E+02 -0.21753E+07
 0.37820000E+02 -0.15559E+07
 0.37870003E+02 -0.12888E+07
 0.37920002E+02 -0.14724E+07
 0.37970001E+02 -0.14430E+07
 0.38020000E+02 -0.12776E+07
 0.38070000E+02 -0.93655E+06
 0.38120003E+02 -0.35125E+06
 0.38170002E+02  0.18340E+06
 0.38220001E+02  0.88599E+06
 0.38270000E+02  0.18219E+07
 0.38320000E+02  0.24263E+07
 0.38370003E+02  0.22611E+07
 0.38420002E+02  0.20216E+07
 0.38470001E+02  0.20158E+07
 0.38520000E+02  0.18301E+07
 0.38570000E+02  0.15509E+07
 0.38620003E+02  0.11651E+07
 0.38670002E+02  0.93309E+06
 0.38720001E+02  0.84289E+06
 0.38770000E+02  0.54722E+06
 0.38820000E+02  0.38462E+06
 0.38870003E+02  0.24676E+06
 0.38920002E+02  0.11460E+06
 0.38970001E+02  0.47521E+06
 0.39020000E+02  0.95470E+06
 0.39070000E+02  0.15288E+07
 0.39120003E+02  0.20572E+07
 0.39170002E+02  0.19729E+07
 0.39220001E+02  0.17227E+07
 0.39270000E+02  0.13209E+07
 0.39320000E+02  0.56360E+06
 0.39370003E+02 -0.25645E+06
 0.39420002E+02 -0.10054E+07
 0.39470001E+02 -0.14926E+07
 0.39520000E+02 -0.17227E+07
 0.39570000E+02 -0.20320E+07
 0.39620003E+02 -0.22918E+07
 0.39670002E+02 -0.22997E+07
 0.39720001E+02 -0.21533E+07
 0.39770000E+02 -0.16854E+07
 0.39820000E+02 -0.12735E+07
 0.39870003E+02 -0.10465E+07
 0.39920002E+02 -0.66584E+06
 0.39970001E+02 -0.46270E+06
 0.40020000E+02 -0.32200E+06
 0.40070000E+02 -0.10928E+05
 0.40120003E+02  0.24706E+06
 0.40170002E+02  0.61026E+06
 0.40220001E+02  0.94481E+06
 0.40270000E+02  0.92456E+06
 0.40320000E+02  0.80749E+06
 0.40370003E+02  0.66940E+06
 0.40420002E+02  0.39717E+06
 0.40470001E+02  0.51194E+05
 0.40520000E+02 -0.21034E+06
 0.40570000E+02 -0.42656E+06
 0.40620003E+02 -0.74404E+06
 0.40670002E+02 -0.10152E+07
 0.40720001E+02 -0.12521E+07
 0.40770000E+02 -0.15225E+07
 0.40820000E+02 -0.17032E+07
 0.40870003E+02 -0.16539E+07
 0.40920002E+02 -0.13854E+07
 0.40970001E+02 -0.10549E+07
 0.41020000E+02 -0.70658E+06
 0.41070000E+02 -0.38392E+06
 0.41120003E+02 -0.15014E+06
 0.41170002E+02 -0.53968E+05
 0.41220001E+02 -0.23009E+06
 0.41270000E+02 -0.37697E+06
 0.41320000E+02 -0.26984E+06
 0.41370003E+02 -0.72882E+05
 0.41420002E+02  0.26003E+06
 0.41470001E+02  0.72180E+06
 0.41520000E+02  0.11559E+07
 0.41570000E+02  0.12921E+07
 0.41620003E+02  0.13853E+07
 0.41670002E+02  0.15842E+07
 0.41720001E+02  0.16764E+07
 0.41770000E+02  0.15824E+07
 0.41820000E+02  0.13606E+07
 0.41870003E+02  0.11809E+07
 0.41920002E+02  0.73164E+06
 0.41970001E+02  0.12600E+06
 0.42020000E+02 -0.55063E+06
 0.42070000E+02 -0.10602E+07
 0.42120003E+02 -0.94504E+06
 0.42170002E+02 -0.79418E+06
 0.42220001E+02 -0.65583E+06
 0.42270000E+02 -0.20546E+06
 0.42320000E+02  0.16834E+06
 0.42370003E+02  0.37865E+06
 0.42420002E+02  0.62086E+06
 0.42470001E+02  0.78369E+06
 0.42520000E+02  0.77964E+06
 0.42570000E+02  0.68606E+06
 0.42620003E+02  0.46716E+06
 0.42670002E+02  0.24331E+06
 0.42720001E+02 -0.80111E+05
 0.42770000E+02 -0.49905E+06
 0.42820000E+02 -0.58367E+06
 0.42870003E+02 -0.63579E+06
 0.42920002E+02 -0.92013E+06
 0.42970001E+02 -0.11683E+07
 0.43020000E+02 -0.12966E+07
 0.43070000E+02 -0.13642E+07
 0.43120003E+02 -0.14507E+07
 0.43170002E+02 -0.15940E+07
 0.43220001E+02 -0.17067E+07
 0.43270000E+02 -0.16714E+07
 0.43320000E+02 -0.16370E+07
 0.43370003E+02 -0.16957E+07
 0.43420002E+02 -0.15533E+07
 0.43470001E+02 -0.10790E+07
 0.43520000E+02 -0.76400E+06
 0.43570000E+02 -0.69086E+06
 0.43620003E+02 -0.44632E+06
 0.43670002E+02 -0.20400E+06
 0.43720001E+02 -0.62488E+05
 0.43770000E+02  0.25134E+05
 0.43820000E+02  0.16134E+06
 0.43870003E+02  0.43666E+06
 0.43920002E+02  0.64463E+06
 0.43970001E+02  0.92158E+06
 0.44020000E+02  0.11002E+07
 0.44070000E+02  0.83237E+06
 0.44120003E+02  0.35765E+06
 0.44170002E+02  0.79712E+05
 0.44220001E+02 -0.11443E+06
 0.44270000E+02 -0.31277E+06
 0.44320000E+02 -0.23373E+06
 0.44370003E+02 -0.26570E+05
 0.44420002E+02  0.24509E+06
 0.44470001E+02  0.57190E+06
 0.44520000E+02  0.91719E+06
 0.44570000E+02  0.12432E+07
 0.44620003E+02  0.13401E+07
 0.44670002E+02  0.12074E+07
 0.44720001E+02  0.96953E+06
 0.44770000E+02  0.86764E+06
 0.44820000E+02  0.80843E+06
 0.44870003E+02  0.59857E+06
 0.44920002E+02  0.39765E+06
 0.44970001E+02  0.23271E+06
 0.45020000E+02  0.10552E+06
 0.45070000E+02  0.47746E+05
 0.45120003E+02  0.56028E+05
 0.45170002E+02  0.12039E+06
 0.45220001E+02  0.96562E+05
 0.45270000E+02 -0.73937E+05
 0.45320000E+02 -0.38849E+06
 0.45370003E+02 -0.63677E+06
 0.45420002E+02 -0.65807E+06
 0.45470001E+02 -0.65695E+06
 0.45520000E+02 -0.73270E+06
 0.45570000E+02 -0.10151E+07
 0.45620003E+02 -0.11962E+07
 0.45670002E+02 -0.94546E+06
 0.45720001E+02 -0.73723E+06
 0.45770000E+02 -0.67690E+06
 0.45820000E+02 -0.68324E+06
 0.45870003E+02 -0.63065E+06
 0.45920002E+02 -0.31317E+06
 0.45970001E+02 -0.99450E+04
 0.46020000E+02  0.19296E+06
 0.46070000E+02  0.28582E+06
 0.46120003E+02  0.23417E+06
 0.46170002E+02  0.13376E+06
 0.46220001E+02  0.62590E+05
 0.46270000E+02  0.29172E+05
 0.46320000E+02  0.25570E+04
 0.46370003E+02  0.24937E+05
 0.46420002E+02  0.21535E+06
 0.46470001E+02  0.57467E+06
 0.46520000E+02  0.10258E+07
 0.46570000E+02  0.16518E+07
 0.46620003E+02  0.20298E+07
 0.46670002E+02  0.19497E+07
 0.46720001E+02  0.17473E+07
 0.46770000E+02  0.14400E+07
 0.46820000E+02  0.11771E+07
 0.46870003E+02  0.97498E+06
 0.46920002E+02  0.77188E+06
 0.46970001E+02  0.65117E+06
 0.47020000E+02  0.42309E+06
 0.47070000E+02  0.28871E+06
 0.47120003E+02  0.39738E+06
 0.47170002E+02  0.34734E+06
 0.47220001E+02  0.77781E+05
 0.47270000E+02 -0.10691E+05
 0.47320000E+02  0.20158E+06
 0.47370003E+02  0.24589E+06
 0.47420002E+02  0.85858E+05
 0.47470001E+02 -0.10417E+06
 0.47520000E+02 -0.36508E+06
 0.47570000E+02 -0.33178E+06
 0.47620003E+02 -0.80293E+05
 0.47670002E+02 -0.24110E+05
 0.47720001E+02 -0.16065E+05
 0.47770000E+02  0.37082E+05
 0.47820000E+02  0.17453E+06
 0.47870003E+02  0.45044E+06
 0.47920002E+02  0.68098E+06
 0.47970001E+02  0.73161E+06
 0.48020000E+02  0.55036E+06
 0.48070000E+02  0.29679E+06
 0.48120003E+02 -0.23727E+05
 0.48170002E+02 -0.30174E+06
 0.48220001E+02 -0.45589E+06
 0.48270000E+02 -0.76496E+06
 0.48320000E+02 -0.12000E+07
 0.48370003E+02 -0.16636E+07
 0.48420002E+02 -0.19045E+07
 0.48470001E+02 -0.18321E+07
 0.48520000E+02 -0.17348E+07
 0.48570000E+02 -0.16980E+07
 0.48620003E+02 -0.14768E+07
 0.48670002E+02 -0.11241E+07
 0.48720001E+02 -0.94234E+06
 0.48770000E+02 -0.86692E+06
 0.48820000E+02 -0.98823E+06
 0.48870003E+02 -0.12140E+07
 0.48920002E+02 -0.12633E+07
 0.48970001E+02 -0.10677E+07
 0.49020000E+02 -0.74805E+06
 0.49070000E+02 -0.47288E+06
 0.49120003E+02 -0.12579E+06
 0.49170002E+02  0.24612E+06
 0.49220001E+02  0.53190E+06
 0.49270000E+02  0.65723E+06
 0.49320000E+02  0.75148E+06
 0.49370003E+02  0.10049E+07
 0.49420002E+02  0.13791E+07
 0.49470001E+02  0.18559E+07
 0.49520000E+02  0.22200E+07
 0.49570000E+02  0.23402E+07
 0.49620003E+02  0.21550E+07
 0.49670002E+02  0.18147E+07
 0.49720001E+02  0.15109E+07
 0.49770000E+02  0.12310E+07
 0.49820000E+02  0.10790E+07
 0.49870003E+02  0.99510E+06
 0.49920002E+02  0.95017E+06
 0.49970001E+02  0.81612E+06
 0.50020000E+02  0.61012E+06
 0.50070000E+02  0.42330E+06
 0.50120003E+02  0.13992E+06
 0.50170002E+02 -0.16686E+06
 0.50220001E+02 -0.50093E+06
 0.50270000E+02 -0.86659E+06
 0.50320000E+02 -0.11772E+07
 0.50370003E+02 -0.12462E+07
 0.50420002E+02 -0.11989E+07
 0.50470001E+02 -0.12771E+07
 0.50520000E+02 -0.13036E+07
 0.50570000E+02 -0.11450E+07
 0.50620003E+02 -0.85532E+06
 0.50670002E+02 -0.65703E+06
 0.50720001E+02 -0.51328E+06
 0.50770000E+02 -0.22028E+06
 0.50820000E+02  0.84051E+05
 0.50870003E+02  0.23874E+06
 0.50920002E+02  0.24440E+06
 0.50970001E+02  0.91914E+05
 0.51020000E+02 -0.29615E+05
 0.51070000E+02  0.15772E+06
 0.51120003E+02  0.41957E+06
 0.51170002E+02  0.56661E+06
 0.51220001E+02  0.74597E+06
 0.51270000E+02  0.89155E+06
 0.51320000E+02  0.91318E+06
 0.51370003E+02  0.88626E+06
 0.51420002E+02  0.92083E+06
 0.51470001E+02  0.96430E+06
 0.51520000E+02  0.81918E+06
 0.51570000E+02  0.50510E+06
 0.51620003E+02  0.19243E+06
 0.51670002E+02  0.22280E+05
 0.51720001E+02 -0.85887E+05
 0.51770000E+02 -0.25110E+06
 0.51820000E+02 -0.26735E+06
 0.51870003E+02 -0.19963E+06
 0.51920002E+02 -0.34326E+06
 0.51970001E+02 -0.67151E+06
 0.52020000E+02 -0.83446E+06
 0.52070000E+02 -0.69723E+06
 0.52120003E+02 -0.65602E+06
 0.52170002E+02 -0.81082E+06
 0.52220001E+02 -0.96051E+06
 0.52270000E+02 -0.10029E+07
 0.52320000E+02 -0.93683E+06
 0.52370003E+02 -0.98562E+06
 0.52420002E+02 -0.11608E+07
 0.52470001E+02 -0.12989E+07
 0.52520000E+02 -0.14426E+07
 0.52570000E+02 -0.15438E+07
 0.52620003E+02 -0.14388E+07
 0.52670002E+02 -0.11668E+07
 0.52720001E+02 -0.89004E+06
 0.52770000E+02 -0.65046E+06
 0.52820000E+02 -0.31343E+06
 0.52870003E+02  0.13179E+06
 0.52920002E+02  0.52764E+06
 0.52970001E+02  0.84316E+06
 0.53020000E+02  0.10598E+07
 0.53070000E+02  0.11589E+07
 0.53120003E+02  0.12729E+07
 0.53170002E+02  0.14011E+07
 0.53220001E+02  0.14249E+07
 0.53270000E+02  0.14409E+07
 0.53320000E+02  0.15543E+07
 0.53370003E+02  0.16487E+07
 0.53420002E+02  0.15718E+07
 0.53470001E+02  0.14187E+07
 0.53520000E+02  0.13531E+07
 0.53570000E+02  0.13073E+07
 0.53620003E+02  0.11603E+07
 0.53670002E+02  0.92371E+06
 0.53720001E+02  0.71974E+06
 0.53770000E+02  0.52828E+06
 0.53820000E+02  0.25694E+06
 0.53870003E+02  0.17490E+05
 0.53920002E+02 -0.70849E+05
 0.53970001E+02 -0.10455E+06
 0.54020000E+02 -0.23678E+06
 0.54070000E+02 -0.47554E+06
 0.54120003E+02 -0.68398E+06
 0.54170002E+02 -0.70478E+06
 0.54220001E+02 -0.61403E+06
 0.54270000E+02 -0.59586E+06
 0.54320000E+02 -0.59785E+06
 0.54370003E+02 -0.56025E+06
 0.54420002E+02 -0.60355E+06
 0.54470001E+02 -0.82144E+06
 0.54520000E+02 -0.11295E+07
 0.54570000E+02 -0.12968E+07
 0.54620003E+02 -0.12646E+07
 0.54670002E+02 -0.11279E+07
 0.54720001E+02 -0.99105E+06
 0.54770000E+02 -0.93842E+06
 0.54820000E+02 -0.92330E+06
 0.54870003E+02 -0.84171E+06
 0.54920002E+02 -0.64608E+06
 0.54970001E+02 -0.43723E+06
 0.55020000E+02 -0.32545E+06
 0.55070000E+02 -0.30263E+06
 0.55120003E+02 -0.23089E+06
 0.55170002E+02 -0.19873E+05
 0.55220001E+02  0.23946E+06
 0.55270000E+02  0.43213E+06
 0.55320000E+02  0.57176E+06
 0.55370003E+02  0.71053E+06
 0.55420002E+02  0.81492E+06
 0.55470001E+02  0.84459E+06
 0.55520000E+02  0.76484E+06
 0.55570000E+02  0.61344E+06
 0.55620003E+02  0.46136E+06
 0.55670002E+02  0.40478E+06
 0.55720001E+02  0.46484E+06
 0.55770000E+02  0.53564E+06
 0.55820000E+02  0.57365E+06
 0.55870003E+02  0.55894E+06
 0.55920002E+02  0.48607E+06
 0.55970001E+02  0.46148E+06
 0.56020000E+02  0.56362E+06
 0.56070000E+02  0.70183E+06
 0.56120003E+02  0.74912E+06
 0.56170002E+02  0.64664E+06
 0.56220001E+02  0.52917E+06
 0.56270000E+02  0.44748E+06
 0.56320000E+02  0.25887E+06
 0.56370003E+02  0.37564E+05
 0.56420002E+02 -0.92439E+05
 0.56470001E+02 -0.14860E+06
 0.56520000E+02 -0.22023E+06
 0.56570000E+02 -0.33737E+06
 0.56620003E+02 -0.39596E+06
 0.56670002E+02 -0.38739E+06
 0.56720001E+02 -0.38478E+06
 0.56770000E+02 -0.38874E+06
 0.56820000E+02 -0.35507E+06
 0.56870003E+02 -0.31567E+06
 0.56920002E+02 -0.29072E+06
 0.56970001E+02 -0.21450E+06
 0.57020000E+02 -0.13715E+06
 0.57070000E+02 -0.11585E+06
 0.57120003E+02 -0.18258E+06
 0.57170002E+02 -0.26951E+06
 0.57220001E+02 -0.30930E+06
 0.57270000E+02 -0.46995E+06
 0.57320000E+02 -0.67023E+06
 0.57370003E+02 -0.74386E+06
 0.57420002E+02 -0.77212E+06
 0.57470001E+02 -0.72478E+06
 0.57520000E+02 -0.58213E+06
 0.57570000E+02 -0.48665E+06
 0.57620003E+02 -0.48693E+06
 0.57670002E+02 -0.45321E+06
 0.57720001E+02 -0.30683E+06
 0.57770000E+02 -0.18068E+06
 0.57820000E+02 -0.13519E+06
 0.57870003E+02 -0.79501E+05
 0.57920002E+02  0.18444E+05
 0.57970001E+02  0.11500E+06
 0.58020000E+02  0.11794E+06
 0.58070000E+02  0.23773E+05
 0.58120003E+02 -0.76647E+05
 0.58170002E+02 -0.11932E+06
 0.58220001E+02 -0.87672E+05
 0.58270000E+02  0.70989E+05
 0.58320000E+02  0.29343E+06
 0.58370003E+02  0.38396E+06
 0.58420002E+02  0.34038E+06
 0.58470001E+02  0.26216E+06
 0.58520000E+02  0.18377E+06
 0.58570000E+02  0.64268E+05
 0.58620003E+02 -0.88981E+05
 0.58670002E+02 -0.26230E+06
 0.58720001E+02 -0.41849E+06
 0.58770000E+02 -0.48744E+06
 0.58820000E+02 -0.51075E+06
 0.58870003E+02 -0.44866E+06
 0.58920002E+02 -0.30210E+06
 0.58970001E+02 -0.13045E+06
 0.59020000E+02  0.86041E+05
 0.59070000E+02  0.33853E+06
 0.59120003E+02  0.56033E+06
 0.59170002E+02  0.67130E+06
 0.59220001E+02  0.67402E+06
 0.59270000E+02  0.62067E+06
 0.59320000E+02  0.48914E+06
 0.59370003E+02  0.26117E+06
 0.59420002E+02  0.70771E+05
 0.59470001E+02 -0.32260E+05
 0.59520000E+02 -0.10312E+06
 0.59570000E+02 -0.16932E+06
 0.59620003E+02 -0.22815E+06
 0.59670002E+02 -0.20824E+06
 0.59720001E+02 -0.97142E+05
 0.59770000E+02  0.44830E+05
 0.59820000E+02  0.18651E+06
 0.59870003E+02  0.39052E+06
 0.59920002E+02  0.58824E+06
 0.59970001E+02  0.69692E+06
 0.60020000E+02  0.74544E+06
 0.60070000E+02  0.65930E+06
 0.60120003E+02  0.46983E+06
 0.60170002E+02  0.29805E+06
 0.60220001E+02  0.18941E+06
 0.60270000E+02  0.13555E+06
 0.60320000E+02  0.15188E+06
 0.60370003E+02  0.24140E+06
 0.60420002E+02  0.33079E+06
 0.60470001E+02  0.34382E+06
 0.60520000E+02  0.28640E+06
 0.60570000E+02  0.26112E+06
 0.60620003E+02  0.26619E+06
 0.60670002E+02  0.22600E+06
 0.60720001E+02  0.13384E+06
 0.60770000E+02 -0.26322E+05
 0.60820000E+02 -0.25599E+06
 0.60870003E+02 -0.40287E+06
 0.60920002E+02 -0.39537E+06
 0.60970001E+02 -0.37555E+06
 0.61020000E+02 -0.41681E+06
 0.61070000E+02 -0.49798E+06
 0.61120003E+02 -0.54900E+06
 0.61170002E+02 -0.55329E+06
 0.61220001E+02 -0.56656E+06
 0.61270000E+02 -0.53686E+06
 0.61320000E+02 -0.48410E+06
 0.61370003E+02 -0.51300E+06
 0.61420002E+02 -0.55357E+06
 0.61470001E+02 -0.54609E+06
 0.61520000E+02 -0.49133E+06
 0.61570000E+02 -0.35465E+06
 0.61620003E+02 -0.15483E+06
 0.61670002E+02  0.73326E+05
 0.61720001E+02  0.25998E+06
 0.61770000E+02  0.32544E+06
 0.61820000E+02  0.26959E+06
 0.61870003E+02  0.17644E+06
 0.61920002E+02  0.16810E+06
 0.61970001E+02  0.23390E+06
 0.62020000E+02  0.26490E+06
 0.62070004E+02  0.23287E+06
 0.62119999E+02  0.13640E+06
 0.62170002E+02  0.70570E+04
 0.62220005E+02 -0.11302E+06
 0.62270000E+02 -0.21708E+06
 0.62320004E+02 -0.30484E+06
 0.62369999E+02 -0.37586E+06
 0.62420002E+02 -0.40582E+06
 0.62470005E+02 -0.38742E+06
 0.62520000E+02 -0.28908E+06
 0.62570004E+02 -0.15863E+06
 0.62619999E+02 -0.65766E+05
 0.62670002E+02  0.29763E+05
 0.62720005E+02  0.12890E+06
 0.62770000E+02  0.18710E+06
 0.62820004E+02  0.13964E+06
 0.62869999E+02  0.18630E+05
 0.62920002E+02 -0.12320E+06
 0.62970005E+02 -0.28514E+06
 0.63020000E+02 -0.39683E+06
 0.63070004E+02 -0.42610E+06
 0.63119999E+02 -0.37442E+06
 0.63170002E+02 -0.25675E+06
 0.63220005E+02 -0.12679E+06
 0.63270000E+02  0.25430E+04
 0.63320004E+02  0.11319E+06
 0.63369999E+02  0.19026E+06
 0.63420002E+02  0.25941E+06
 0.63470005E+02  0.31654E+06
 0.63520000E+02  0.37443E+06
 0.63570004E+02  0.43377E+06
 0.63619999E+02  0.43835E+06
 0.63670002E+02  0.37107E+06
 0.63720005E+02  0.29042E+06
 0.63770000E+02  0.24590E+06
 0.63820004E+02  0.23258E+06
 0.63869999E+02  0.25828E+06
 0.63920002E+02  0.30034E+06
 0.63970005E+02  0.33276E+06
 0.64019997E+02  0.32812E+06
 0.64070000E+02  0.25218E+06
 0.64119995E+02  0.16133E+06
 0.64169998E+02  0.76185E+05
 0.64220001E+02  0.36120E+04
 0.64269997E+02 -0.78253E+05
 0.64320000E+02 -0.22816E+06
 0.64369995E+02 -0.37786E+06
 0.64419998E+02 -0.47028E+06
 0.64470001E+02 -0.50639E+06
 0.64519997E+02 -0.54454E+06
 0.64570000E+02 -0.61377E+06
 0.64619995E+02 -0.62888E+06
 0.64669998E+02 -0.58089E+06
 0.64720001E+02 -0.47467E+06
 0.64769997E+02 -0.32435E+06
 0.64820000E+02 -0.17444E+06
 0.64869995E+02 -0.26251E+05
 0.64919998E+02  0.85277E+05
 0.64970001E+02  0.15212E+06
 0.65019997E+02  0.19150E+06
 0.65070000E+02  0.21367E+06
 0.65119995E+02  0.23451E+06
 0.65169998E+02  0.26275E+06
 0.65220001E+02  0.30065E+06
 0.65269997E+02  0.32155E+06
 0.65320000E+02  0.27715E+06
 0.65369995E+02  0.18244E+06
 0.65419998E+02  0.12678E+06
 0.65470001E+02  0.10176E+06
 0.65519997E+02  0.34180E+05
 0.65570000E+02 -0.75132E+05
 0.65619995E+02 -0.15368E+06
 0.65669998E+02 -0.16765E+06
 0.65720001E+02 -0.13316E+06
 0.65769997E+02 -0.52058E+05
 0.65820000E+02  0.41163E+05
 0.65869995E+02  0.99830E+05
 0.65919998E+02  0.10279E+06
 0.65970001E+02  0.88917E+05
 0.66019997E+02  0.74936E+05
 0.66070000E+02  0.22464E+05
 0.66119995E+02 -0.59284E+05
 0.66169998E+02 -0.15835E+06
 0.66220001E+02 -0.26446E+06
 0.66269997E+02 -0.34222E+06
 0.66320000E+02 -0.38439E+06
 0.66369995E+02 -0.37769E+06
 0.66419998E+02 -0.32743E+06
 0.66470001E+02 -0.26560E+06
 0.66519997E+02 -0.20560E+06
 0.66570000E+02 -0.18095E+06
 0.66619995E+02 -0.18512E+06
 0.66669998E+02 -0.19328E+06
 0.66720001E+02 -0.19032E+06
 0.66769997E+02 -0.14936E+06
 0.66820000E+02 -0.94514E+05
 0.66869995E+02 -0.44543E+05
 0.66919998E+02  0.49090E+04
 0.66970001E+02  0.29858E+05
 0.67019997E+02  0.31004E+05
 0.67070000E+02  0.20592E+05
 0.67119995E+02  0.43623E+05
 0.67169998E+02  0.14563E+06
 0.67220001E+02  0.24476E+06
 0.67269997E+02  0.28482E+06
 0.67320000E+02  0.30158E+06
 0.67369995E+02  0.31451E+06
 0.67419998E+02  0.33680E+06
 0.67470001E+02  0.36245E+06
 0.67519997E+02  0.35868E+06
 0.67570000E+02  0.28934E+06
 0.67619995E+02  0.18484E+06
 0.67669998E+02  0.10477E+06
 0.67720001E+02  0.49272E+05
 0.67769997E+02  0.22614E+05
 0.67820000E+02  0.30200E+03
 0.67869995E+02 -0.42394E+05
 0.67919998E+02 -0.79449E+05
 0.67970001E+02 -0.81601E+05
 0.68019997E+02 -0.30060E+05
 0.68070000E+02  0.43712E+05
 0.68119995E+02  0.97990E+05
 0.68169998E+02  0.11876E+06
 0.68220001E+02  0.12229E+06
 0.68269997E+02  0.13129E+06
 0.68320000E+02  0.15606E+06
 0.68369995E+02  0.19364E+06
 0.68419998E+02  0.20094E+06
 0.68470001E+02  0.16789E+06
 0.68519997E+02  0.18384E+06
 0.68570000E+02  0.26672E+06
 0.68619995E+02  0.29167E+06
 0.68669998E+02  0.29048E+06
 0.68720001E+02  0.36543E+06
 0.68769997E+02  0.45208E+06
 0.68820000E+02  0.49845E+06
 0.68869995E+02  0.46013E+06
 0.68919998E+02  0.32898E+06
 0.68970001E+02  0.16858E+06
 0.69019997E+02  0.40600E+03
 0.69070000E+02 -0.15325E+06
 0.69119995E+02 -0.27311E+06
 0.69169998E+02 -0.35530E+06
 0.69220001E+02 -0.40580E+06
 0.69269997E+02 -0.39773E+06
 0.69320000E+02 -0.32378E+06
 0.69369995E+02 -0.22632E+06
 0.69419998E+02 -0.11719E+06
 0.69470001E+02 -0.33614E+05
 0.69519997E+02 -0.12230E+04
 0.69570000E+02  0.61370E+04
 0.69619995E+02  0.18818E+05
 0.69669998E+02  0.36414E+05
 0.69720001E+02  0.24179E+05
 0.69769997E+02 -0.26915E+05
 0.69820000E+02 -0.10616E+06
 0.69869995E+02 -0.19041E+06
 0.69919998E+02 -0.21478E+06
 0.69970001E+02 -0.15034E+06
 0.70019997E+02 -0.59417E+05
 0.70070000E+02 -0.68800E+04
 0.70119995E+02  0.27572E+05
 0.70169998E+02  0.10353E+06
 0.70220001E+02  0.20962E+06
 0.70269997E+02  0.32681E+06
 0.70320000E+02  0.43876E+06
 0.70369995E+02  0.49301E+06
 0.70419998E+02  0.50919E+06
 0.70470001E+02  0.53842E+06
 0.70519997E+02  0.56563E+06
 0.70570000E+02  0.56489E+06
 0.70619995E+02  0.55979E+06
 0.70669998E+02  0.57769E+06
 0.70720001E+02  0.61989E+06
 0.70769997E+02  0.62564E+06
 0.70820000E+02  0.58920E+06
 0.70869995E+02  0.56109E+06
 0.70919998E+02  0.49648E+06
 0.70970001E+02  0.41517E+06
 0.71019997E+02  0.36649E+06
 0.71070000E+02  0.32772E+06
 0.71119995E+02  0.30333E+06
 0.71169998E+02  0.29573E+06
 0.71220001E+02  0.27883E+06
 0.71269997E+02  0.26228E+06
 0.71320000E+02  0.27080E+06
 0.71369995E+02  0.28992E+06
 0.71419998E+02  0.27958E+06
 0.71470001E+02  0.25537E+06
 0.71519997E+02  0.25866E+06
 0.71570000E+02  0.21801E+06
 0.71619995E+02  0.11859E+06
 0.71669998E+02  0.59449E+05
 0.71720001E+02  0.28047E+05
 0.71769997E+02 -0.55365E+05
 0.71820000E+02 -0.15453E+06
 0.71869995E+02 -0.18846E+06
 0.71919998E+02 -0.13203E+06
 0.71970001E+02  0.12733E+05
 0.72019997E+02  0.15085E+06
 0.72070000E+02  0.20389E+06
 0.72119995E+02  0.19461E+06
 0.72169998E+02  0.19200E+06
 0.72220001E+02  0.24174E+06
 0.72269997E+02  0.25766E+06
 0.72320000E+02  0.19369E+06
 0.72369995E+02  0.87532E+05
 0.72419998E+02 -0.20739E+05
 0.72470001E+02 -0.90706E+05
 0.72519997E+02 -0.15617E+06
 0.72570000E+02 -0.23728E+06
 0.72619995E+02 -0.31495E+06
 0.72669998E+02 -0.40185E+06
 0.72720001E+02 -0.49953E+06
 0.72769997E+02 -0.60198E+06
 0.72820000E+02 -0.69029E+06
 0.72869995E+02 -0.75405E+06
 0.72919998E+02 -0.81827E+06
 0.72970001E+02 -0.86406E+06
 0.73019997E+02 -0.86380E+06
 0.73070000E+02 -0.81780E+06
 0.73119995E+02 -0.70438E+06
 0.73169998E+02 -0.55454E+06
 0.73220001E+02 -0.46408E+06
 0.73269997E+02 -0.44195E+06
 0.73320000E+02 -0.41371E+06
 0.73369995E+02 -0.33773E+06
 0.73419998E+02 -0.25230E+06
 0.73470001E+02 -0.18573E+06
 0.73519997E+02 -0.12906E+06
 0.73570000E+02 -0.92130E+05
 0.73619995E+02 -0.58244E+05
 0.73669998E+02 -0.45407E+05
 0.73720001E+02 -0.50781E+05
 0.73769997E+02 -0.46607E+05
 0.73820000E+02 -0.58712E+05
 0.73869995E+02 -0.86364E+05
 0.73919998E+02 -0.12481E+06
 0.73970001E+02 -0.17429E+06
 0.74019997E+02 -0.25250E+06
 0.74070000E+02 -0.29987E+06
 0.74119995E+02 -0.25700E+06
 0.74169998E+02 -0.20669E+06
 0.74220001E+02 -0.19122E+06
 0.74269997E+02 -0.21045E+06
 0.74320000E+02 -0.24280E+06
 0.74369995E+02 -0.27624E+06
 0.74419998E+02 -0.31677E+06
 0.74470001E+02 -0.32558E+06
 0.74519997E+02 -0.31162E+06
 0.74570000E+02 -0.31115E+06
 0.74619995E+02 -0.33576E+06
 0.74669998E+02 -0.38980E+06
 0.74720001E+02 -0.46000E+06
 0.74769997E+02 -0.52742E+06
 0.74820000E+02 -0.58982E+06
 0.74869995E+02 -0.63891E+06
 0.74919998E+02 -0.66044E+06
 0.74970001E+02 -0.64673E+06
 0.75019997E+02 -0.57695E+06
 0.75070000E+02 -0.43743E+06
 0.75119995E+02 -0.28438E+06
 0.75169998E+02 -0.18292E+06
 0.75220001E+02 -0.12284E+06
 0.75269997E+02 -0.89706E+05
 0.75320000E+02 -0.79914E+05
 0.75369995E+02 -0.11562E+06
 0.75419998E+02 -0.19744E+06
 0.75470001E+02 -0.27523E+06
 0.75519997E+02 -0.33596E+06
 0.75570000E+02 -0.37297E+06
 0.75619995E+02 -0.38658E+06
 0.75669998E+02 -0.35838E+06
 0.75720001E+02 -0.28493E+06
 0.75769997E+02 -0.20528E+06
 0.75820000E+02 -0.15051E+06
 0.75869995E+02 -0.13696E+06
 0.75919998E+02 -0.13651E+06
 0.75970001E+02 -0.13938E+06
 0.76019997E+02 -0.13521E+06
 0.76070000E+02 -0.85533E+05
 0.76119995E+02 -0.24766E+05
 0.76169998E+02 -0.27242E+05
 0.76220001E+02 -0.66070E+05
 0.76269997E+02 -0.71398E+05
 0.76320000E+02 -0.36686E+05
 0.76369995E+02  0.26093E+05
 0.76419998E+02  0.11458E+06
 0.76470001E+02  0.21608E+06
 0.76519997E+02  0.29928E+06
 0.76570000E+02  0.37359E+06
 0.76619995E+02  0.45584E+06
 0.76669998E+02  0.51734E+06
 0.76720001E+02  0.56809E+06
 0.76769997E+02  0.61648E+06
 0.76820000E+02  0.63401E+06
 0.76869995E+02  0.59536E+06
 0.76919998E+02  0.54068E+06
 0.76970001E+02  0.53216E+06
 0.77019997E+02  0.50858E+06
 0.77070000E+02  0.42907E+06
 0.77119995E+02  0.33770E+06
 0.77169998E+02  0.26632E+06
 0.77220001E+02  0.19610E+06
 0.77269997E+02  0.11866E+06
 0.77320000E+02  0.77975E+05
 0.77369995E+02  0.91589E+05
 0.77419998E+02  0.15418E+06
 0.77470001E+02  0.22928E+06
 0.77519997E+02  0.27094E+06
 0.77570000E+02  0.25892E+06
 0.77619995E+02  0.21042E+06
 0.77669998E+02  0.16981E+06
 0.77720001E+02  0.16037E+06
 0.77769997E+02  0.15309E+06
 0.77820000E+02  0.13574E+06
 0.77869995E+02  0.11957E+06
 0.77919998E+02  0.74779E+05
 0.77970001E+02  0.10350E+05
 0.78019997E+02 -0.31161E+05
 0.78070000E+02 -0.40653E+05
 0.78119995E+02 -0.35931E+05
 0.78169998E+02 -0.15892E+05
 0.78220001E+02  0.19895E+05
 0.78269997E+02  0.64149E+05
 0.78320000E+02  0.14047E+06
 0.78369995E+02  0.23339E+06
 0.78419998E+02  0.32503E+06
 0.78470001E+02  0.41587E+06
 0.78519997E+02  0.48839E+06
 0.78570000E+02  0.54964E+06
 0.78619995E+02  0.57520E+06
 0.78669998E+02  0.53588E+06
 0.78720001E+02  0.47702E+06
 0.78769997E+02  0.45839E+06
 0.78820000E+02  0.49025E+06
 0.78869995E+02  0.54443E+06
 0.78919998E+02  0.59033E+06
 0.78970001E+02  0.59550E+06
 0.79019997E+02  0.55111E+06
 0.79070000E+02  0.48489E+06
 0.79119995E+02  0.42689E+06
 0.79169998E+02  0.40161E+06
 0.79220001E+02  0.39013E+06
 0.79269997E+02  0.34628E+06
 0.79320000E+02  0.28707E+06
 0.79369995E+02  0.24555E+06
 0.79419998E+02  0.21896E+06
 0.79470001E+02  0.18666E+06
 0.79519997E+02  0.13888E+06
 0.79570000E+02  0.10343E+06
 0.79619995E+02  0.84015E+05
 0.79669998E+02  0.75941E+05
 0.79720001E+02  0.92630E+05
 0.79769997E+02  0.14630E+06
 0.79820000E+02  0.21429E+06
 0.79869995E+02  0.22621E+06
 0.79919998E+02  0.16092E+06
 0.79970001E+02  0.50489E+05
 0.80019997E+02 -0.50697E+05
 0.80070000E+02 -0.11920E+06
 0.80119995E+02 -0.15016E+06
 0.80169998E+02 -0.12349E+06
 0.80220001E+02 -0.84257E+05
 0.80269997E+02 -0.67601E+05
 0.80320000E+02 -0.66864E+05
 0.80369995E+02 -0.71371E+05
 0.80419998E+02 -0.59845E+05
 0.80470001E+02 -0.21687E+05
 0.80519997E+02  0.38966E+05
 0.80570000E+02  0.10977E+06
 0.80619995E+02  0.19758E+06
 0.80669998E+02  0.26373E+06
 0.80720001E+02  0.24662E+06
 0.80769997E+02  0.16617E+06
 0.80820000E+02  0.59513E+05
 0.80869995E+02 -0.26016E+05
 0.80919998E+02 -0.41499E+05
 0.80970001E+02 -0.84510E+04
 0.81019997E+02  0.20165E+05
 0.81070000E+02  0.12976E+05
 0.81119995E+02 -0.13970E+05
 0.81169998E+02 -0.39572E+05
 0.81220001E+02 -0.42407E+05
 0.81269997E+02 -0.77510E+04
 0.81320000E+02  0.34998E+05
 0.81369995E+02  0.59846E+05
 0.81419998E+02  0.51081E+05
 0.81470001E+02 -0.42040E+04
 0.81519997E+02 -0.92545E+05
 0.81570000E+02 -0.18577E+06
 0.81619995E+02 -0.26329E+06
 0.81669998E+02 -0.29412E+06
 0.81720001E+02 -0.28649E+06
 0.81769997E+02 -0.26064E+06
 0.81820000E+02 -0.21297E+06
 0.81869995E+02 -0.16205E+06
 0.81919998E+02 -0.13755E+06
 0.81970001E+02 -0.14640E+06
 0.82019997E+02 -0.13148E+06
 0.82070000E+02 -0.83725E+05
 0.82119995E+02 -0.32850E+05
 0.82169998E+02  0.41090E+04
 0.82220001E+02  0.13041E+05
 0.82269997E+02  0.18270E+05
 0.82320000E+02  0.84600E+04
 0.82369995E+02 -0.21821E+05
 0.82419998E+02 -0.69012E+05
 0.82470001E+02 -0.12019E+06
 0.82519997E+02 -0.14311E+06
 0.82570000E+02 -0.17263E+06
 0.82619995E+02 -0.22512E+06
 0.82669998E+02 -0.26507E+06
 0.82720001E+02 -0.30483E+06
 0.82769997E+02 -0.36990E+06
 0.82820000E+02 -0.43974E+06
 0.82869995E+02 -0.49238E+06
 0.82919998E+02 -0.53418E+06
 0.82970001E+02 -0.57281E+06
 0.83019997E+02 -0.60543E+06
 0.83070000E+02 -0.64458E+06
 0.83119995E+02 -0.68866E+06
 0.83169998E+02 -0.71016E+06
 0.83220001E+02 -0.69166E+06
 0.83269997E+02 -0.65131E+06
 0.83320000E+02 -0.62974E+06
 0.83369995E+02 -0.61763E+06
 0.83419998E+02 -0.60288E+06
 0.83470001E+02 -0.58982E+06
 0.83519997E+02 -0.56024E+06
 0.83570000E+02 -0.53510E+06
 0.83619995E+02 -0.52159E+06
 0.83669998E+02 -0.47280E+06
 0.83720001E+02 -0.39225E+06
 0.83769997E+02 -0.35849E+06
 0.83820000E+02 -0.39218E+06
 0.83869995E+02 -0.40869E+06
 0.83919998E+02 -0.36156E+06
 0.83970001E+02 -0.26774E+06
 0.84019997E+02 -0.15576E+06
 0.84070000E+02 -0.67619E+05
 0.84119995E+02 -0.15469E+05
 0.84169998E+02  0.17530E+05
 0.84220001E+02  0.36428E+05
 0.84269997E+02  0.36557E+05
 0.84320000E+02  0.21794E+05
 0.84369995E+02  0.33910E+04
 0.84419998E+02 -0.14359E+05
 0.84470001E+02 -0.35490E+05
 0.84519997E+02 -0.63586E+05
 0.84570000E+02 -0.60008E+05
 0.84619995E+02 -0.16080E+04
 0.84669998E+02  0.68041E+05
 0.84720001E+02  0.12487E+06
 0.84769997E+02  0.16251E+06
 0.84820000E+02  0.19269E+06
 0.84869995E+02  0.22923E+06
 0.84919998E+02  0.25725E+06
 0.84970001E+02  0.27634E+06
 0.85019997E+02  0.27423E+06
 0.85070000E+02  0.23522E+06
 0.85119995E+02  0.15832E+06
 0.85169998E+02  0.54633E+05
 0.85220001E+02 -0.38385E+05
 0.85269997E+02 -0.95395E+05
 0.85320000E+02 -0.11300E+06
 0.85369995E+02 -0.10243E+06
 0.85419998E+02 -0.78683E+05
 0.85470001E+02 -0.55525E+05
 0.85519997E+02 -0.47346E+05
 0.85570000E+02 -0.62660E+05
 0.85619995E+02 -0.96484E+05
 0.85669998E+02 -0.11414E+06
 0.85720001E+02 -0.11930E+06
 0.85769997E+02 -0.12761E+06
 0.85820000E+02 -0.11006E+06
 0.85869995E+02 -0.58784E+05
 0.85919998E+02  0.12658E+05
 0.85970001E+02  0.76466E+05
 0.86019997E+02  0.12752E+06
 0.86070000E+02  0.18669E+06
 0.86119995E+02  0.25890E+06
 0.86169998E+02  0.33228E+06
 0.86220001E+02  0.38318E+06
 0.86269997E+02  0.41495E+06
 0.86320000E+02  0.45071E+06
 0.86369995E+02  0.50271E+06
 0.86419998E+02  0.55982E+06
 0.86470001E+02  0.61659E+06
 0.86519997E+02  0.64521E+06
 0.86570000E+02  0.60109E+06
 0.86619995E+02  0.51216E+06
 0.86669998E+02  0.43930E+06
 0.86720001E+02  0.42585E+06
 0.86769997E+02  0.46074E+06
 0.86820000E+02  0.49277E+06
 0.86869995E+02  0.47986E+06
 0.86919998E+02  0.40840E+06
 0.86970001E+02  0.30804E+06
 0.87019997E+02  0.20053E+06
 0.87070000E+02  0.10278E+06
 0.87119995E+02  0.44384E+05
 0.87169998E+02  0.25241E+05
 0.87220001E+02  0.31072E+05
 0.87269997E+02  0.61477E+05
 0.87320000E+02  0.10755E+06
 0.87369995E+02  0.15474E+06
 0.87419998E+02  0.19635E+06
 0.87470001E+02  0.22114E+06
 0.87519997E+02  0.22577E+06
 0.87570000E+02  0.22799E+06
 0.87619995E+02  0.25080E+06
 0.87669998E+02  0.30215E+06
 0.87720001E+02  0.36517E+06
 0.87769997E+02  0.41336E+06
 0.87820000E+02  0.43156E+06
 0.87869995E+02  0.40419E+06
 0.87919998E+02  0.32159E+06
 0.87970001E+02  0.21188E+06
 0.88019997E+02  0.12282E+06
 0.88070000E+02  0.77163E+05
 0.88119995E+02  0.61966E+05
 0.88169998E+02  0.47239E+05
 0.88220001E+02  0.36440E+04
 0.88269997E+02 -0.65727E+05
 0.88320000E+02 -0.15002E+06
 0.88369995E+02 -0.24036E+06
 0.88419998E+02 -0.29556E+06
 0.88470001E+02 -0.30909E+06
 0.88519997E+02 -0.31568E+06
 0.88570000E+02 -0.33300E+06
 0.88619995E+02 -0.36914E+06
 0.88669998E+02 -0.41433E+06
 0.88720001E+02 -0.44578E+06
 0.88769997E+02 -0.46842E+06
 0.88820000E+02 -0.50025E+06
 0.88869995E+02 -0.53733E+06
 0.88919998E+02 -0.55272E+06
 0.88970001E+02 -0.52100E+06
 0.89019997E+02 -0.44587E+06
 0.89070000E+02 -0.35854E+06
 0.89119995E+02 -0.28274E+06
 0.89169998E+02 -0.23267E+06
 0.89220001E+02 -0.19913E+06
 0.89269997E+02 -0.12884E+06
 0.89320000E+02 -0.36301E+05
 0.89369995E+02  0.39440E+05
 0.89419998E+02  0.12528E+06
 0.89470001E+02  0.22824E+06
 0.89519997E+02  0.34430E+06
 0.89570000E+02  0.45550E+06
 0.89619995E+02  0.53383E+06
 0.89669998E+02  0.57694E+06
 0.89720001E+02  0.58597E+06
 0.89769997E+02  0.56773E+06
 0.89820000E+02  0.53911E+06
 0.89869995E+02  0.51705E+06
 0.89919998E+02  0.49328E+06
 0.89970001E+02  0.45945E+06
 0.90019997E+02  0.43119E+06
 0.90070000E+02  0.41608E+06
 0.90119995E+02  0.40628E+06
 0.90169998E+02  0.39073E+06
 0.90220001E+02  0.35769E+06
 0.90269997E+02  0.30995E+06
 0.90320000E+02  0.26339E+06
 0.90369995E+02  0.21223E+06
 0.90419998E+02  0.15441E+06
 0.90470001E+02  0.10666E+06
 0.90519997E+02  0.79563E+05
 0.90570000E+02  0.77106E+05
 0.90619995E+02  0.84221E+05
 0.90669998E+02  0.10143E+06
 0.90720001E+02  0.13716E+06
 0.90769997E+02  0.17621E+06
 0.90820000E+02  0.21571E+06
 0.90869995E+02  0.23850E+06
 0.90919998E+02  0.22384E+06
 0.90970001E+02  0.17919E+06
 0.91019997E+02  0.10847E+06
 0.91070000E+02  0.17416E+05
 0.91119995E+02 -0.74954E+05
 0.91169998E+02 -0.15365E+06
 0.91220001E+02 -0.22920E+06
 0.91269997E+02 -0.31152E+06
 0.91320000E+02 -0.38672E+06
 0.91369995E+02 -0.43999E+06
 0.91419998E+02 -0.45524E+06
 0.91470001E+02 -0.43394E+06
 0.91519997E+02 -0.39614E+06
 0.91570000E+02 -0.36332E+06
 0.91619995E+02 -0.36269E+06
 0.91669998E+02 -0.37451E+06
 0.91720001E+02 -0.38668E+06
 0.91769997E+02 -0.42907E+06
 0.91820000E+02 -0.47239E+06
 0.91869995E+02 -0.48167E+06
 0.91919998E+02 -0.47185E+06
 0.91970001E+02 -0.46345E+06
 0.92019997E+02 -0.45368E+06
 0.92070000E+02 -0.43593E+06
 0.92119995E+02 -0.41044E+06
 0.92169998E+02 -0.36863E+06
 0.92220001E+02 -0.33237E+06
 0.92269997E+02 -0.32360E+06
 0.92320000E+02 -0.33392E+06
 0.92369995E+02 -0.33656E+06
 0.92419998E+02 -0.30984E+06
 0.92470001E+02 -0.27064E+06
 0.92519997E+02 -0.23942E+06
 0.92570000E+02 -0.22418E+06
 0.92619995E+02 -0.22044E+06
 0.92669998E+02 -0.21770E+06
 0.92720001E+02 -0.21443E+06
 0.92769997E+02 -0.20550E+06
 0.92820000E+02 -0.19185E+06
 0.92869995E+02 -0.19528E+06
 0.92919998E+02 -0.21140E+06
 0.92970001E+02 -0.21512E+06
 0.93019997E+02 -0.19856E+06
 0.93070000E+02 -0.15705E+06
 0.93119995E+02 -0.10319E+06
 0.93169998E+02 -0.50702E+05
 0.93220001E+02 -0.26718E+05
 0.93269997E+02 -0.48393E+05
 0.93320000E+02 -0.72649E+05
 0.93369995E+02 -0.71373E+05
 0.93419998E+02 -0.41139E+05
 0.93470001E+02  0.11218E+05
 0.93519997E+02  0.67846E+05
 0.93570000E+02  0.12054E+06
 0.93619995E+02  0.15235E+06
 0.93669998E+02  0.17542E+06
 0.93720001E+02  0.21178E+06
 0.93769997E+02  0.23949E+06
 0.93820000E+02  0.23111E+06
 0.93869995E+02  0.18494E+06
 0.93919998E+02  0.12913E+06
 0.93970001E+02  0.86448E+05
 0.94019997E+02  0.52081E+05
 0.94070000E+02  0.18173E+05
 0.94119995E+02 -0.12393E+05
 0.94169998E+02 -0.18397E+05
 0.94220001E+02 -0.20450E+04
 0.94269997E+02  0.27510E+04
 0.94320000E+02 -0.26880E+04
 0.94369995E+02  0.20411E+05
 0.94419998E+02  0.73278E+05
 0.94470001E+02  0.10410E+06
 0.94519997E+02  0.10341E+06
 0.94570000E+02  0.10407E+06
 0.94619995E+02  0.10599E+06
 0.94669998E+02  0.77220E+05
 0.94720001E+02  0.11938E+05
 0.94769997E+02 -0.43759E+05
 0.94820000E+02 -0.62261E+05
 0.94869995E+02 -0.54536E+05
 0.94919998E+02 -0.34022E+05
 0.94970001E+02 -0.15103E+05
 0.95019997E+02 -0.75600E+03
 0.95070000E+02  0.20046E+05
 0.95119995E+02  0.41460E+05
 0.95169998E+02  0.56263E+05
 0.95220001E+02  0.59955E+05
 0.95269997E+02  0.44316E+05
 0.95320000E+02  0.28045E+05
 0.95369995E+02  0.34456E+05
 0.95419998E+02  0.56429E+05
 0.95470001E+02  0.62421E+05
 0.95519997E+02  0.48815E+05
 0.95570000E+02  0.31865E+05
 0.95619995E+02  0.97100E+04
 0.95669998E+02 -0.15995E+05
 0.95720001E+02 -0.47202E+05
 0.95769997E+02 -0.80032E+05
 0.95820000E+02 -0.10300E+06
 0.95869995E+02 -0.11597E+06
 0.95919998E+02 -0.11071E+06
 0.95970001E+02 -0.82575E+05
 0.96019997E+02 -0.48691E+05
 0.96070000E+02 -0.28025E+05
 0.96119995E+02 -0.25415E+05
 0.96169998E+02 -0.26700E+05
 0.96220001E+02 -0.22872E+05
 0.96269997E+02 -0.31443E+05
 0.96320000E+02 -0.55841E+05
 0.96369995E+02 -0.78434E+05
 0.96419998E+02 -0.95500E+05
 0.96470001E+02 -0.11133E+06
 0.96519997E+02 -0.14095E+06
 0.96570000E+02 -0.18505E+06
 0.96619995E+02 -0.21750E+06
 0.96669998E+02 -0.22570E+06
 0.96720001E+02 -0.21310E+06
 0.96769997E+02 -0.19729E+06
 0.96820000E+02 -0.19194E+06
 0.96869995E+02 -0.18973E+06
 0.96919998E+02 -0.17202E+06
 0.96970001E+02 -0.13134E+06
 0.97019997E+02 -0.80909E+05
 0.97070000E+02 -0.27818E+05
 0.97119995E+02  0.21560E+05
 0.97169998E+02  0.63298E+05
 0.97220001E+02  0.10484E+06
 0.97269997E+02  0.14576E+06
 0.97320000E+02  0.19313E+06
 0.97369995E+02  0.25819E+06
 0.97419998E+02  0.32919E+06
 0.97470001E+02  0.39664E+06
 0.97519997E+02  0.46112E+06
 0.97570000E+02  0.51212E+06
 0.97619995E+02  0.53520E+06
 0.97669998E+02  0.53353E+06
 0.97720001E+02  0.52358E+06
 0.97769997E+02  0.50656E+06
 0.97820000E+02  0.47327E+06
 0.97869995E+02  0.42255E+06
 0.97919998E+02  0.36412E+06
 0.97970001E+02  0.30834E+06
 0.98019997E+02  0.26107E+06
