-0.20000000E+01  0.98335E+04
-0.19500000E+01  0.19281E+05
-0.19000000E+01  0.27197E+05
-0.18500000E+01  0.33926E+05
-0.18000000E+01  0.39181E+05
-0.17500000E+01  0.43293E+05
-0.17000000E+01  0.46370E+05
-0.16500001E+01  0.48554E+05
-0.16000000E+01  0.50181E+05
-0.15500000E+01  0.51526E+05
-0.15000000E+01  0.52195E+05
-0.14500000E+01  0.51834E+05
-0.14000001E+01  0.50424E+05
-0.13500000E+01  0.48224E+05
-0.13000001E+01  0.45107E+05
-0.12500000E+01  0.40827E+05
-0.12000000E+01  0.35468E+05
-0.11500001E+01  0.29033E+05
-0.11000000E+01  0.21724E+05
-0.10500001E+01  0.13612E+05
-0.10000000E+01  0.50691E+04
-0.95000005E+00 -0.35821E+04
-0.90000010E+00 -0.11786E+05
-0.85000002E+00 -0.18979E+05
-0.80000007E+00 -0.24729E+05
-0.75000012E+00 -0.28753E+05
-0.70000005E+00 -0.31028E+05
-0.65000010E+00 -0.31483E+05
-0.60000014E+00 -0.30083E+05
-0.55000007E+00 -0.27109E+05
-0.50000012E+00 -0.22907E+05
-0.45000005E+00 -0.17766E+05
-0.40000010E+00 -0.12334E+05
-0.35000014E+00 -0.70204E+04
-0.30000007E+00 -0.19787E+04
-0.25000012E+00  0.23843E+04
-0.20000005E+00  0.55608E+04
-0.15000010E+00  0.73357E+04
-0.10000014E+00  0.76521E+04
-0.50000072E-01  0.66962E+04
-0.11920929E-06  0.45461E+04
 0.49999952E-01  0.12450E+04
 0.99999905E-01 -0.25991E+04
 0.14999986E+00 -0.64294E+04
 0.19999981E+00 -0.96528E+04
 0.24999976E+00 -0.11874E+05
 0.29999995E+00 -0.12904E+05
 0.34999990E+00 -0.12403E+05
 0.39999986E+00 -0.10272E+05
 0.44999981E+00 -0.66424E+04
 0.49999976E+00 -0.14270E+04
 0.54999995E+00  0.52685E+04
 0.59999990E+00  0.12977E+05
 0.64999986E+00  0.21085E+05
 0.69999981E+00  0.28952E+05
 0.74999976E+00  0.35805E+05
 0.79999971E+00  0.41007E+05
 0.84999990E+00  0.44430E+05
 0.89999986E+00  0.45984E+05
 0.94999981E+00  0.45553E+05
 0.99999976E+00  0.43228E+05
 0.10499997E+01  0.39162E+05
 0.10999999E+01  0.33615E+05
 0.11499999E+01  0.27093E+05
 0.11999998E+01  0.20086E+05
 0.12499998E+01  0.12884E+05
 0.12999997E+01  0.54855E+04
 0.13499999E+01 -0.19344E+04
 0.13999999E+01 -0.87646E+04
 0.14499998E+01 -0.14454E+05
 0.14999998E+01 -0.18809E+05
 0.15499997E+01 -0.21963E+05
 0.15999999E+01 -0.24177E+05
 0.16499999E+01 -0.25529E+05
 0.16999998E+01 -0.26322E+05
 0.17499998E+01 -0.26389E+05
 0.17999997E+01 -0.25567E+05
 0.18499997E+01 -0.23766E+05
 0.18999999E+01 -0.21240E+05
 0.19499998E+01 -0.18559E+05
 0.19999998E+01 -0.16083E+05
 0.20499997E+01 -0.13925E+05
 0.20999999E+01 -0.11915E+05
 0.21499996E+01 -0.99609E+04
 0.21999998E+01 -0.78960E+04
 0.22499995E+01 -0.56907E+04
 0.22999997E+01 -0.33331E+04
 0.23499999E+01 -0.95283E+03
 0.23999996E+01  0.16300E+04
 0.24499998E+01  0.41098E+04
 0.24999995E+01  0.59802E+04
 0.25499997E+01  0.68191E+04
 0.25999999E+01  0.65086E+04
 0.26499996E+01  0.54572E+04
 0.26999998E+01  0.38381E+04
 0.27499995E+01  0.17625E+04
 0.27999997E+01 -0.83396E+03
 0.28499999E+01 -0.38089E+04
 0.28999996E+01 -0.70860E+04
 0.29499998E+01 -0.10974E+05
 0.29999995E+01 -0.15565E+05
 0.30499997E+01 -0.20506E+05
 0.30999999E+01 -0.24894E+05
 0.31499996E+01 -0.27802E+05
 0.31999998E+01 -0.28789E+05
 0.32499995E+01 -0.27729E+05
 0.32999997E+01 -0.24920E+05
 0.33499999E+01 -0.20656E+05
 0.33999996E+01 -0.15436E+05
 0.34499998E+01 -0.98435E+04
 0.34999995E+01 -0.39963E+04
 0.35499997E+01  0.18764E+04
 0.35999994E+01  0.72435E+04
 0.36499996E+01  0.11415E+05
 0.36999998E+01  0.14427E+05
 0.37499995E+01  0.16704E+05
 0.37999997E+01  0.18332E+05
 0.38499994E+01  0.19301E+05
 0.38999996E+01  0.19601E+05
 0.39499998E+01  0.19371E+05
 0.39999995E+01  0.18547E+05
 0.40499997E+01  0.17347E+05
 0.40999994E+01  0.16362E+05
 0.41499996E+01  0.16095E+05
 0.41999998E+01  0.16582E+05
 0.42499995E+01  0.17700E+05
 0.42999997E+01  0.19389E+05
 0.43499994E+01  0.21543E+05
 0.43999996E+01  0.24382E+05
 0.44499998E+01  0.28128E+05
 0.44999995E+01  0.32541E+05
 0.45499997E+01  0.37200E+05
 0.45999994E+01  0.41836E+05
 0.46499996E+01  0.46348E+05
 0.46999998E+01  0.50370E+05
 0.47499995E+01  0.53407E+05
 0.47999997E+01  0.55183E+05
 0.48499994E+01  0.55389E+05
 0.48999996E+01  0.53814E+05
 0.49499998E+01  0.50500E+05
 0.49999995E+01  0.45540E+05
 0.50499997E+01  0.38659E+05
 0.50999994E+01  0.29874E+05
 0.51499996E+01  0.19475E+05
 0.51999998E+01  0.79154E+04
 0.52499995E+01 -0.41964E+04
 0.52999997E+01 -0.16523E+05
 0.53499994E+01 -0.28496E+05
 0.53999996E+01 -0.39233E+05
 0.54499993E+01 -0.48131E+05
 0.54999995E+01 -0.54787E+05
 0.55499997E+01 -0.59248E+05
 0.55999994E+01 -0.61614E+05
 0.56499996E+01 -0.61707E+05
 0.56999993E+01 -0.59593E+05
 0.57499995E+01 -0.55284E+05
 0.57999997E+01 -0.49143E+05
 0.58499994E+01 -0.41866E+05
 0.58999996E+01 -0.33777E+05
 0.59499993E+01 -0.25153E+05
 0.59999995E+01 -0.16598E+05
 0.60499992E+01 -0.85072E+04
 0.60999994E+01 -0.14439E+04
 0.61499996E+01  0.42558E+04
 0.61999998E+01  0.84431E+04
 0.62499990E+01  0.10774E+05
 0.62999992E+01  0.11420E+05
 0.63499994E+01  0.10583E+05
 0.63999996E+01  0.85617E+04
 0.64499998E+01  0.56024E+04
 0.64999990E+01  0.21462E+04
 0.65499992E+01 -0.12351E+04
 0.65999994E+01 -0.41748E+04
 0.66499996E+01 -0.67504E+04
 0.66999998E+01 -0.92076E+04
 0.67499990E+01 -0.11291E+05
 0.67999992E+01 -0.12855E+05
 0.68499994E+01 -0.13449E+05
 0.68999996E+01 -0.12527E+05
 0.69499998E+01 -0.10255E+05
 0.69999990E+01 -0.69053E+04
 0.70499992E+01 -0.28600E+04
 0.70999994E+01  0.16366E+04
 0.71499996E+01  0.64781E+04
 0.71999998E+01  0.11331E+05
 0.72499990E+01  0.16203E+05
 0.72999992E+01  0.21305E+05
 0.73499994E+01  0.26637E+05
 0.73999996E+01  0.32036E+05
 0.74499998E+01  0.37398E+05
 0.74999990E+01  0.42444E+05
 0.75499992E+01  0.46875E+05
 0.75999994E+01  0.50435E+05
 0.76499996E+01  0.52928E+05
 0.76999998E+01  0.54349E+05
 0.77499990E+01  0.54459E+05
 0.77999992E+01  0.53080E+05
 0.78499994E+01  0.49988E+05
 0.78999996E+01  0.45206E+05
 0.79499998E+01  0.38715E+05
 0.79999990E+01  0.30308E+05
 0.80499992E+01  0.20485E+05
 0.80999994E+01  0.98410E+04
 0.81499996E+01 -0.99634E+03
 0.81999998E+01 -0.11662E+05
 0.82499990E+01 -0.21844E+05
 0.82999992E+01 -0.31179E+05
 0.83499994E+01 -0.39325E+05
 0.83999996E+01 -0.45817E+05
 0.84499998E+01 -0.50728E+05
 0.84999990E+01 -0.54204E+05
 0.85499992E+01 -0.56307E+05
 0.85999994E+01 -0.57073E+05
 0.86499996E+01 -0.56819E+05
 0.86999998E+01 -0.55712E+05
 0.87499990E+01 -0.53696E+05
 0.87999992E+01 -0.50769E+05
 0.88499994E+01 -0.47060E+05
 0.88999996E+01 -0.42916E+05
 0.89499998E+01 -0.38509E+05
 0.89999990E+01 -0.34284E+05
 0.90499992E+01 -0.30582E+05
 0.90999994E+01 -0.27449E+05
 0.91499996E+01 -0.24660E+05
 0.91999989E+01 -0.21683E+05
 0.92499990E+01 -0.18270E+05
 0.92999992E+01 -0.14619E+05
 0.93499994E+01 -0.10974E+05
 0.93999996E+01 -0.76325E+04
 0.94499989E+01 -0.48812E+04
 0.94999990E+01 -0.28487E+04
 0.95499992E+01 -0.14070E+04
 0.95999994E+01 -0.33229E+02
 0.96499996E+01  0.17237E+04
 0.96999989E+01  0.40006E+04
 0.97499990E+01  0.68567E+04
 0.97999992E+01  0.10118E+05
 0.98499994E+01  0.13480E+05
 0.98999996E+01  0.17032E+05
 0.99499989E+01  0.20804E+05
 0.99999990E+01  0.24802E+05
 0.10049999E+02  0.28830E+05
 0.10099999E+02  0.32304E+05
 0.10150000E+02  0.34727E+05
 0.10199999E+02  0.35725E+05
 0.10249999E+02  0.35277E+05
 0.10299999E+02  0.33626E+05
 0.10349999E+02  0.31091E+05
 0.10400000E+02  0.27984E+05
 0.10449999E+02  0.24849E+05
 0.10499999E+02  0.21909E+05
 0.10549999E+02  0.19018E+05
 0.10599999E+02  0.16149E+05
 0.10650000E+02  0.13507E+05
 0.10699999E+02  0.11308E+05
 0.10749999E+02  0.96393E+04
 0.10799999E+02  0.85621E+04
 0.10849999E+02  0.78882E+04
 0.10900000E+02  0.74285E+04
 0.10949999E+02  0.72244E+04
 0.10999999E+02  0.74841E+04
 0.11049999E+02  0.82511E+04
 0.11099999E+02  0.94014E+04
 0.11150000E+02  0.10818E+05
 0.11199999E+02  0.12746E+05
 0.11249999E+02  0.15048E+05
 0.11299999E+02  0.17452E+05
 0.11349999E+02  0.19884E+05
 0.11400000E+02  0.22489E+05
 0.11449999E+02  0.25394E+05
 0.11499999E+02  0.28405E+05
 0.11549999E+02  0.31509E+05
 0.11599999E+02  0.34516E+05
 0.11650000E+02  0.37164E+05
 0.11699999E+02  0.38965E+05
 0.11749999E+02  0.39740E+05
 0.11799999E+02  0.39550E+05
 0.11849999E+02  0.38434E+05
 0.11900000E+02  0.36107E+05
 0.11949999E+02  0.32236E+05
 0.11999999E+02  0.27218E+05
 0.12049999E+02  0.21579E+05
 0.12099999E+02  0.15192E+05
 0.12150000E+02  0.81517E+04
 0.12199999E+02  0.79355E+03
 0.12249999E+02 -0.66883E+04
 0.12299999E+02 -0.13973E+05
 0.12349999E+02 -0.20773E+05
 0.12400000E+02 -0.26730E+05
 0.12449999E+02 -0.31459E+05
 0.12499999E+02 -0.34561E+05
 0.12549999E+02 -0.35863E+05
 0.12599999E+02 -0.35525E+05
 0.12649999E+02 -0.33971E+05
 0.12699999E+02 -0.31445E+05
 0.12749999E+02 -0.28016E+05
 0.12799999E+02 -0.23645E+05
 0.12849999E+02 -0.18548E+05
 0.12899999E+02 -0.13212E+05
 0.12949999E+02 -0.84636E+04
 0.12999999E+02 -0.49688E+04
 0.13049999E+02 -0.31126E+04
 0.13099999E+02 -0.29417E+04
 0.13149999E+02 -0.40728E+04
 0.13199999E+02 -0.63186E+04
 0.13249999E+02 -0.94854E+04
 0.13299999E+02 -0.13309E+05
 0.13349999E+02 -0.17290E+05
 0.13399999E+02 -0.20943E+05
 0.13449999E+02 -0.23999E+05
 0.13499999E+02 -0.26325E+05
 0.13549999E+02 -0.27786E+05
 0.13599999E+02 -0.28031E+05
 0.13649999E+02 -0.26708E+05
 0.13699999E+02 -0.23840E+05
 0.13749999E+02 -0.19657E+05
 0.13799999E+02 -0.14263E+05
 0.13849999E+02 -0.79651E+04
 0.13899999E+02 -0.11652E+04
 0.13949999E+02  0.56439E+04
 0.13999999E+02  0.11950E+05
 0.14049999E+02  0.17495E+05
 0.14099998E+02  0.21917E+05
 0.14150000E+02  0.25150E+05
 0.14199999E+02  0.27232E+05
 0.14249998E+02  0.27948E+05
 0.14299999E+02  0.27260E+05
 0.14349998E+02  0.25324E+05
 0.14400000E+02  0.22559E+05
 0.14449999E+02  0.19069E+05
 0.14499998E+02  0.14652E+05
 0.14549999E+02  0.93066E+04
 0.14599998E+02  0.34396E+04
 0.14650000E+02 -0.27086E+04
 0.14699999E+02 -0.89639E+04
 0.14749998E+02 -0.15014E+05
 0.14799999E+02 -0.20448E+05
 0.14849998E+02 -0.24482E+05
 0.14900000E+02 -0.26708E+05
 0.14949999E+02 -0.27057E+05
 0.14999998E+02 -0.25416E+05
 0.15049999E+02 -0.22025E+05
 0.15099998E+02 -0.16992E+05
 0.15150000E+02 -0.10265E+05
 0.15199999E+02 -0.20634E+04
 0.15249998E+02  0.73718E+04
 0.15299999E+02  0.17595E+05
 0.15349998E+02  0.28193E+05
 0.15400000E+02  0.39014E+05
 0.15449999E+02  0.49971E+05
 0.15499998E+02  0.60336E+05
 0.15549999E+02  0.69430E+05
 0.15599998E+02  0.76830E+05
 0.15650000E+02  0.82375E+05
 0.15699999E+02  0.86350E+05
 0.15749998E+02  0.88709E+05
 0.15799999E+02  0.89505E+05
 0.15849998E+02  0.88647E+05
 0.15900000E+02  0.86075E+05
 0.15949999E+02  0.82112E+05
 0.15999998E+02  0.76880E+05
 0.16049999E+02  0.70460E+05
 0.16099998E+02  0.62880E+05
 0.16150000E+02  0.54381E+05
 0.16199999E+02  0.45177E+05
 0.16249998E+02  0.35382E+05
 0.16299999E+02  0.25051E+05
 0.16349998E+02  0.14342E+05
 0.16400000E+02  0.36577E+04
 0.16449999E+02 -0.67966E+04
 0.16499998E+02 -0.16881E+05
 0.16549999E+02 -0.26591E+05
 0.16599998E+02 -0.35842E+05
 0.16650000E+02 -0.44507E+05
 0.16699999E+02 -0.52573E+05
 0.16749998E+02 -0.59862E+05
 0.16799999E+02 -0.66339E+05
 0.16849998E+02 -0.71964E+05
 0.16900000E+02 -0.76836E+05
 0.16949999E+02 -0.81183E+05
 0.16999998E+02 -0.84716E+05
 0.17049999E+02 -0.87166E+05
 0.17099998E+02 -0.88187E+05
 0.17150000E+02 -0.87685E+05
 0.17199999E+02 -0.85766E+05
 0.17249998E+02 -0.82668E+05
 0.17299999E+02 -0.78580E+05
 0.17349998E+02 -0.73390E+05
 0.17400000E+02 -0.67118E+05
 0.17449999E+02 -0.59793E+05
 0.17499998E+02 -0.51762E+05
 0.17549999E+02 -0.43359E+05
 0.17599998E+02 -0.34936E+05
 0.17650000E+02 -0.26863E+05
 0.17699999E+02 -0.19493E+05
 0.17749998E+02 -0.12957E+05
 0.17799999E+02 -0.72466E+04
 0.17849998E+02 -0.25361E+04
 0.17900000E+02  0.10829E+04
 0.17949999E+02  0.36308E+04
 0.17999998E+02  0.54182E+04
 0.18049999E+02  0.67286E+04
 0.18099998E+02  0.77730E+04
 0.18150000E+02  0.84285E+04
 0.18199999E+02  0.84190E+04
 0.18249998E+02  0.80756E+04
 0.18299999E+02  0.78350E+04
 0.18349998E+02  0.79913E+04
 0.18400000E+02  0.86739E+04
 0.18449999E+02  0.98418E+04
 0.18499998E+02  0.11624E+05
 0.18549999E+02  0.14302E+05
 0.18599998E+02  0.18155E+05
 0.18650000E+02  0.23175E+05
 0.18699999E+02  0.29142E+05
 0.18749998E+02  0.35839E+05
 0.18799999E+02  0.42769E+05
 0.18849998E+02  0.49380E+05
 0.18900000E+02  0.55178E+05
 0.18949999E+02  0.59908E+05
 0.18999998E+02  0.63545E+05
 0.19049999E+02  0.66212E+05
 0.19099998E+02  0.67870E+05
 0.19150000E+02  0.68329E+05
 0.19199999E+02  0.67650E+05
 0.19249998E+02  0.65713E+05
 0.19299999E+02  0.62629E+05
 0.19349998E+02  0.58557E+05
 0.19400000E+02  0.53945E+05
 0.19449999E+02  0.49355E+05
 0.19499998E+02  0.45071E+05
 0.19549999E+02  0.41288E+05
 0.19599998E+02  0.37846E+05
 0.19650000E+02  0.34750E+05
 0.19699999E+02  0.31918E+05
 0.19749998E+02  0.29233E+05
 0.19799999E+02  0.26682E+05
 0.19849998E+02  0.24073E+05
 0.19900000E+02  0.21467E+05
 0.19949999E+02  0.18827E+05
 0.19999998E+02  0.15984E+05
 0.20049999E+02  0.12771E+05
 0.20099998E+02  0.92508E+04
 0.20150000E+02  0.56227E+04
 0.20199999E+02  0.18352E+04
 0.20249998E+02 -0.21687E+04
 0.20299999E+02 -0.65904E+04
 0.20349998E+02 -0.11427E+05
 0.20399998E+02 -0.16481E+05
 0.20449999E+02 -0.21720E+05
 0.20499998E+02 -0.27176E+05
 0.20549999E+02 -0.32857E+05
 0.20599998E+02 -0.38518E+05
 0.20649998E+02 -0.44021E+05
 0.20699999E+02 -0.49362E+05
 0.20749998E+02 -0.54107E+05
 0.20799999E+02 -0.58022E+05
 0.20849998E+02 -0.61240E+05
 0.20899998E+02 -0.64059E+05
 0.20949999E+02 -0.66497E+05
 0.20999998E+02 -0.68442E+05
 0.21049999E+02 -0.69673E+05
 0.21099998E+02 -0.69904E+05
 0.21149998E+02 -0.69213E+05
 0.21199999E+02 -0.67887E+05
 0.21249998E+02 -0.66505E+05
 0.21299999E+02 -0.64903E+05
 0.21349998E+02 -0.62943E+05
 0.21399998E+02 -0.60684E+05
 0.21449999E+02 -0.58239E+05
 0.21499998E+02 -0.55826E+05
 0.21549999E+02 -0.53343E+05
 0.21599998E+02 -0.51018E+05
 0.21649998E+02 -0.48689E+05
 0.21699999E+02 -0.45922E+05
 0.21749998E+02 -0.42495E+05
 0.21799999E+02 -0.38495E+05
 0.21849998E+02 -0.33877E+05
 0.21899998E+02 -0.28602E+05
 0.21949999E+02 -0.22966E+05
 0.21999998E+02 -0.17050E+05
 0.22049999E+02 -0.10926E+05
 0.22099998E+02 -0.48797E+04
 0.22149998E+02  0.80279E+03
 0.22199999E+02  0.58701E+04
 0.22249998E+02  0.10289E+05
 0.22299999E+02  0.14215E+05
 0.22349998E+02  0.17589E+05
 0.22399998E+02  0.20516E+05
 0.22449999E+02  0.23088E+05
 0.22499998E+02  0.25463E+05
 0.22549999E+02  0.27856E+05
 0.22599998E+02  0.30544E+05
 0.22649998E+02  0.33596E+05
 0.22699999E+02  0.36943E+05
 0.22749998E+02  0.40574E+05
 0.22799999E+02  0.44302E+05
 0.22849998E+02  0.47928E+05
 0.22899998E+02  0.51110E+05
 0.22949999E+02  0.53799E+05
 0.22999998E+02  0.55922E+05
 0.23049999E+02  0.57608E+05
 0.23099998E+02  0.59176E+05
 0.23149998E+02  0.60622E+05
 0.23199999E+02  0.61806E+05
 0.23249998E+02  0.62600E+05
 0.23299999E+02  0.62883E+05
 0.23349998E+02  0.62666E+05
 0.23399998E+02  0.61398E+05
 0.23449999E+02  0.59108E+05
 0.23499998E+02  0.54965E+05
 0.23549999E+02  0.50532E+05
 0.23599998E+02  0.45359E+05
 0.23649998E+02  0.41018E+05
 0.23699999E+02  0.36989E+05
 0.23749998E+02  0.33524E+05
 0.23799999E+02  0.26892E+05
 0.23849998E+02  0.13047E+05
 0.23899998E+02 -0.11459E+05
 0.23949999E+02 -0.39289E+05
 0.23999998E+02 -0.53535E+05
 0.24049999E+02 -0.49419E+05
 0.24099998E+02 -0.41519E+05
 0.24149998E+02 -0.48418E+05
 0.24199999E+02 -0.55613E+05
 0.24249998E+02 -0.72451E+05
 0.24299999E+02 -0.10921E+06
 0.24349998E+02 -0.14572E+06
 0.24399998E+02 -0.14961E+06
 0.24449999E+02 -0.13989E+06
 0.24499998E+02 -0.14784E+06
 0.24549999E+02 -0.18911E+06
 0.24599998E+02 -0.19713E+06
 0.24649998E+02 -0.12847E+06
 0.24699999E+02 -0.64405E+05
 0.24749998E+02 -0.39184E+04
 0.24799999E+02  0.64425E+05
 0.24849998E+02  0.58476E+05
 0.24899998E+02  0.39388E+04
 0.24949999E+02 -0.38601E+05
 0.24999998E+02 -0.59414E+05
 0.25049999E+02  0.40345E+05
 0.25099998E+02  0.15508E+06
 0.25149998E+02  0.23961E+06
 0.25199999E+02  0.28234E+06
 0.25249998E+02  0.17662E+06
 0.25299999E+02  0.10809E+06
 0.25349998E+02  0.53794E+05
 0.25399998E+02 -0.11826E+04
 0.25449999E+02  0.76999E+05
 0.25499998E+02  0.17010E+06
 0.25549999E+02  0.22160E+06
 0.25599998E+02  0.21403E+06
 0.25649998E+02  0.16874E+06
 0.25699999E+02  0.11753E+06
 0.25749998E+02  0.98452E+05
 0.25799999E+02  0.98284E+04
 0.25849998E+02 -0.55946E+05
 0.25899998E+02 -0.13217E+06
 0.25949999E+02 -0.19424E+06
 0.25999998E+02 -0.81608E+05
 0.26049999E+02  0.92537E+05
 0.26099998E+02  0.13752E+06
 0.26149998E+02  0.11363E+06
 0.26199999E+02  0.48650E+05
 0.26249998E+02 -0.10422E+06
 0.26299999E+02 -0.30822E+06
 0.26349998E+02 -0.38304E+06
 0.26399998E+02 -0.23868E+06
 0.26449999E+02 -0.15504E+06
 0.26499998E+02 -0.56526E+05
 0.26549999E+02 -0.39159E+05
 0.26599998E+02  0.49231E+05
 0.26649998E+02  0.17719E+05
 0.26699999E+02  0.38507E+05
 0.26749998E+02  0.13504E+05
 0.26799999E+02 -0.15101E+06
 0.26849998E+02 -0.12383E+06
 0.26899998E+02 -0.12236E+06
 0.26949999E+02 -0.66509E+05
 0.26999998E+02  0.44348E+04
 0.27049997E+02  0.61636E+05
 0.27099998E+02  0.20272E+06
 0.27149998E+02  0.13781E+06
 0.27199999E+02 -0.25844E+06
 0.27249998E+02 -0.23397E+06
 0.27299997E+02 -0.10166E+06
 0.27349998E+02 -0.24338E+05
 0.27399998E+02  0.11103E+06
 0.27449999E+02  0.15645E+06
 0.27499998E+02  0.29431E+06
 0.27549997E+02  0.14423E+06
 0.27599998E+02  0.38863E+05
 0.27649998E+02  0.62269E+04
 0.27699999E+02  0.37331E+05
 0.27749998E+02  0.13077E+06
 0.27799997E+02  0.14673E+06
 0.27849998E+02  0.20363E+06
 0.27899998E+02  0.23162E+06
 0.27949999E+02  0.13615E+06
 0.27999998E+02 -0.16274E+05
 0.28049997E+02  0.26644E+05
 0.28099998E+02 -0.15487E+05
 0.28149998E+02  0.17687E+04
 0.28199999E+02  0.71428E+05
 0.28249998E+02  0.72524E+05
 0.28299997E+02  0.28118E+05
 0.28349998E+02 -0.15550E+05
 0.28399998E+02 -0.19565E+06
 0.28449999E+02 -0.22291E+06
 0.28499998E+02 -0.22294E+04
 0.28549997E+02  0.13621E+06
 0.28599998E+02  0.22759E+06
 0.28649998E+02  0.10913E+06
 0.28699999E+02 -0.13289E+06
 0.28749998E+02 -0.19364E+06
 0.28799997E+02 -0.16635E+06
 0.28849998E+02 -0.20746E+06
 0.28899998E+02 -0.14454E+06
 0.28949999E+02 -0.10370E+05
 0.28999998E+02  0.10691E+06
 0.29049997E+02 -0.55553E+05
 0.29099998E+02 -0.18388E+06
 0.29149998E+02 -0.93620E+05
 0.29199999E+02  0.95072E+05
 0.29249998E+02  0.26944E+06
 0.29299997E+02  0.13472E+06
 0.29349998E+02  0.13714E+06
 0.29399998E+02  0.40999E+06
 0.29449999E+02  0.24361E+06
 0.29499998E+02  0.49790E+05
 0.29549997E+02  0.25352E+06
 0.29599998E+02  0.37523E+06
 0.29649998E+02  0.57695E+06
 0.29699999E+02  0.48417E+06
 0.29749998E+02  0.22680E+06
 0.29799997E+02  0.23652E+06
 0.29849998E+02 -0.18609E+04
 0.29899998E+02 -0.25356E+06
 0.29949999E+02 -0.17737E+06
 0.29999998E+02 -0.24228E+05
 0.30049999E+02  0.11736E+06
 0.30099998E+02  0.16353E+06
 0.30149998E+02  0.74890E+04
 0.30199997E+02 -0.17835E+06
 0.30249996E+02 -0.37561E+06
 0.30299999E+02 -0.63404E+06
 0.30349998E+02 -0.66937E+06
 0.30399998E+02 -0.46557E+06
 0.30449997E+02 -0.19027E+06
 0.30499996E+02 -0.29926E+05
 0.30549999E+02  0.85917E+05
 0.30599998E+02  0.64922E+05
 0.30649998E+02 -0.12262E+06
 0.30699997E+02 -0.28114E+06
 0.30749996E+02 -0.48140E+06
 0.30799999E+02 -0.61941E+06
 0.30849998E+02 -0.48877E+06
 0.30899998E+02 -0.12128E+06
 0.30949997E+02  0.58013E+05
 0.30999996E+02  0.25905E+05
 0.31049999E+02 -0.40497E+02
 0.31099998E+02  0.66905E+05
 0.31149998E+02  0.98696E+05
 0.31199997E+02  0.15799E+05
 0.31249996E+02  0.21355E+05
 0.31299999E+02  0.20348E+06
 0.31349998E+02  0.18302E+06
 0.31399998E+02  0.64636E+05
 0.31449997E+02  0.63514E+05
 0.31499996E+02  0.74991E+05
 0.31549999E+02  0.25796E+06
 0.31599998E+02  0.40070E+06
 0.31649998E+02  0.48272E+06
 0.31699997E+02  0.57935E+06
 0.31749996E+02  0.44038E+06
 0.31799999E+02  0.25722E+06
 0.31849998E+02  0.20804E+06
 0.31899998E+02  0.87561E+05
 0.31949997E+02  0.64992E+05
 0.31999996E+02  0.36617E+05
 0.32049999E+02  0.13431E+06
 0.32099998E+02  0.37255E+06
 0.32149998E+02  0.25067E+06
 0.32199997E+02  0.79773E+05
 0.32249996E+02  0.60083E+05
 0.32299999E+02 -0.88075E+05
 0.32349998E+02 -0.19519E+06
 0.32399998E+02 -0.25344E+06
 0.32449997E+02 -0.22830E+06
 0.32499996E+02 -0.98198E+04
 0.32549999E+02  0.23426E+05
 0.32599998E+02 -0.99035E+05
 0.32649998E+02 -0.10829E+06
 0.32699997E+02 -0.51480E+05
 0.32749996E+02 -0.10942E+05
 0.32799999E+02 -0.48591E+05
 0.32849998E+02 -0.13311E+06
 0.32899998E+02 -0.80758E+05
 0.32949997E+02 -0.23706E+05
 0.32999996E+02 -0.77139E+04
 0.33049999E+02  0.32723E+04
 0.33099998E+02  0.87776E+05
 0.33149998E+02  0.70061E+05
 0.33199997E+02 -0.10194E+06
 0.33249996E+02 -0.22117E+06
 0.33299999E+02 -0.15212E+06
 0.33349998E+02  0.10753E+05
 0.33399998E+02 -0.25178E+05
 0.33449997E+02 -0.83624E+05
 0.33499996E+02 -0.15902E+06
 0.33549999E+02 -0.24332E+06
 0.33599998E+02 -0.36283E+06
 0.33649998E+02 -0.40646E+06
 0.33699997E+02 -0.35656E+06
 0.33749996E+02 -0.34540E+06
 0.33799999E+02 -0.27443E+06
 0.33849998E+02 -0.20880E+06
 0.33899998E+02 -0.17364E+06
 0.33949997E+02 -0.13510E+06
 0.33999996E+02 -0.12780E+06
 0.34049999E+02 -0.94881E+05
 0.34099998E+02 -0.88336E+05
 0.34149998E+02 -0.43051E+05
 0.34199997E+02  0.15979E+06
 0.34249996E+02  0.23575E+06
 0.34299999E+02  0.11994E+06
 0.34349998E+02  0.60571E+04
 0.34399998E+02 -0.41091E+05
 0.34449997E+02 -0.14515E+06
 0.34499996E+02 -0.15743E+06
 0.34549999E+02  0.29722E+05
 0.34599998E+02  0.26198E+06
 0.34649998E+02  0.36027E+06
 0.34699997E+02  0.30422E+06
 0.34749996E+02  0.20600E+06
 0.34799999E+02  0.13670E+06
 0.34849998E+02  0.84512E+04
 0.34899998E+02 -0.86825E+04
 0.34949997E+02  0.14036E+06
 0.34999996E+02  0.22632E+06
 0.35049999E+02  0.29872E+06
 0.35099998E+02  0.32632E+06
 0.35149998E+02  0.32851E+06
 0.35199997E+02  0.42177E+06
 0.35249996E+02  0.46921E+06
 0.35299999E+02  0.39819E+06
 0.35349998E+02  0.38952E+06
 0.35399998E+02  0.22810E+06
 0.35449997E+02 -0.19273E+05
 0.35499996E+02 -0.16921E+06
 0.35549999E+02 -0.19719E+06
 0.35599998E+02 -0.60138E+05
 0.35649998E+02  0.11795E+06
 0.35699997E+02  0.58270E+05
 0.35749996E+02 -0.77277E+05
 0.35799999E+02 -0.20281E+06
 0.35849998E+02 -0.28807E+06
 0.35899998E+02 -0.26719E+06
 0.35949997E+02 -0.30211E+06
 0.35999996E+02 -0.23160E+06
 0.36049999E+02 -0.10793E+06
 0.36099998E+02 -0.69623E+05
 0.36149998E+02 -0.12606E+06
 0.36199997E+02 -0.15814E+06
 0.36249996E+02 -0.11008E+06
 0.36299999E+02 -0.59085E+05
 0.36349998E+02 -0.89467E+05
 0.36399998E+02 -0.15885E+06
 0.36449997E+02 -0.22992E+06
 0.36499996E+02 -0.23091E+06
 0.36549999E+02 -0.13385E+06
 0.36599998E+02  0.23048E+05
 0.36649998E+02  0.74542E+05
 0.36699997E+02 -0.34362E+05
 0.36749996E+02 -0.18186E+06
 0.36799999E+02 -0.31922E+06
 0.36849998E+02 -0.40257E+06
 0.36899998E+02 -0.39195E+06
 0.36949997E+02 -0.25814E+06
 0.36999996E+02 -0.39100E+05
 0.37049999E+02  0.11093E+06
 0.37099998E+02  0.78282E+04
 0.37149998E+02 -0.13320E+06
 0.37199997E+02 -0.16850E+06
 0.37249996E+02 -0.57907E+05
 0.37299999E+02  0.94772E+05
 0.37349998E+02  0.16856E+06
 0.37399998E+02  0.28389E+06
 0.37449997E+02  0.34474E+06
 0.37499996E+02  0.21309E+06
 0.37549999E+02  0.17686E+06
 0.37599998E+02  0.31961E+06
 0.37649998E+02  0.43898E+06
 0.37699997E+02  0.46814E+06
 0.37749996E+02  0.29352E+06
 0.37799999E+02  0.12987E+06
 0.37849998E+02  0.36472E+05
 0.37899998E+02 -0.20306E+05
 0.37949997E+02  0.50196E+05
 0.37999996E+02  0.17513E+06
 0.38049999E+02  0.18958E+06
 0.38099998E+02  0.18248E+06
 0.38149998E+02  0.15346E+06
 0.38199997E+02  0.89683E+05
 0.38249996E+02  0.13833E+06
 0.38299999E+02  0.14847E+06
 0.38349998E+02  0.12092E+06
 0.38399998E+02  0.12527E+06
 0.38449997E+02  0.11630E+06
 0.38499996E+02  0.30077E+05
 0.38549999E+02 -0.70798E+04
 0.38599998E+02  0.12318E+05
 0.38649998E+02  0.91983E+05
 0.38699997E+02  0.14926E+06
 0.38749996E+02  0.96327E+05
 0.38799999E+02 -0.33920E+05
 0.38849998E+02 -0.18185E+06
 0.38899998E+02 -0.19676E+06
 0.38949997E+02 -0.11756E+06
 0.38999996E+02  0.20782E+05
 0.39049999E+02  0.12582E+06
 0.39099998E+02  0.18367E+06
 0.39149998E+02  0.16000E+06
 0.39199997E+02 -0.25078E+05
 0.39249996E+02 -0.19760E+06
 0.39299999E+02 -0.18205E+06
 0.39349998E+02 -0.11479E+06
 0.39399998E+02 -0.74558E+05
 0.39449997E+02  0.34163E+05
 0.39499996E+02  0.19448E+06
 0.39549999E+02  0.24964E+06
 0.39599998E+02  0.17222E+06
 0.39649998E+02 -0.16818E+05
 0.39699997E+02 -0.17769E+06
 0.39749996E+02 -0.18649E+06
 0.39799999E+02 -0.17293E+06
 0.39849998E+02 -0.80355E+05
 0.39899998E+02  0.49784E+05
 0.39949997E+02  0.12369E+06
 0.39999996E+02  0.16153E+06
 0.40049999E+02  0.12556E+06
 0.40099998E+02  0.34791E+05
 0.40149998E+02 -0.58984E+05
 0.40199997E+02 -0.34629E+05
 0.40249996E+02 -0.38039E+05
 0.40299999E+02 -0.37221E+05
 0.40349998E+02 -0.23481E+05
 0.40399998E+02  0.43010E+05
 0.40449997E+02  0.10574E+06
 0.40499996E+02  0.89924E+05
 0.40549999E+02 -0.31358E+05
 0.40599998E+02 -0.35058E+06
 0.40649998E+02 -0.51487E+06
 0.40699997E+02 -0.48164E+06
 0.40749996E+02 -0.34864E+06
 0.40799999E+02 -0.21500E+06
 0.40849998E+02 -0.13639E+06
 0.40899998E+02 -0.26841E+06
 0.40949997E+02 -0.47670E+06
 0.40999996E+02 -0.62813E+06
 0.41049999E+02 -0.49974E+06
 0.41099998E+02 -0.16912E+06
 0.41149998E+02 -0.67137E+05
 0.41199997E+02 -0.48087E+05
 0.41249996E+02 -0.49358E+05
 0.41299999E+02 -0.13830E+06
 0.41349998E+02 -0.16843E+06
 0.41399998E+02 -0.26898E+05
 0.41449997E+02  0.76546E+05
 0.41499996E+02  0.14850E+06
 0.41549999E+02  0.11970E+06
 0.41599998E+02 -0.46092E+05
 0.41649998E+02 -0.94854E+05
 0.41699997E+02 -0.84185E+05
 0.41749996E+02 -0.10983E+06
 0.41799999E+02 -0.20993E+06
 0.41849998E+02 -0.46477E+06
 0.41899998E+02 -0.62917E+06
 0.41949997E+02 -0.57060E+06
 0.41999996E+02 -0.33862E+06
 0.42049999E+02 -0.28094E+05
 0.42099998E+02  0.67546E+05
 0.42149998E+02 -0.15074E+06
 0.42199997E+02 -0.31010E+06
 0.42249996E+02 -0.27090E+06
 0.42299999E+02 -0.20983E+06
 0.42349998E+02 -0.15629E+06
 0.42399998E+02 -0.73009E+05
 0.42449997E+02  0.18891E+05
 0.42499996E+02 -0.13943E+05
 0.42549999E+02 -0.77042E+05
 0.42599998E+02 -0.71133E+05
 0.42649998E+02 -0.33902E+05
 0.42699997E+02 -0.74409E+05
 0.42749996E+02 -0.22811E+06
 0.42799995E+02 -0.32342E+06
 0.42849998E+02 -0.28558E+06
 0.42899998E+02 -0.15236E+06
 0.42949997E+02 -0.45676E+05
 0.42999996E+02  0.36468E+05
 0.43049995E+02  0.53145E+05
 0.43099998E+02  0.15776E+06
 0.43149998E+02  0.17030E+06
 0.43199997E+02 -0.18248E+05
 0.43249996E+02 -0.38804E+05
 0.43299995E+02 -0.48214E+04
 0.43349998E+02  0.13178E+06
 0.43399998E+02  0.32771E+06
 0.43449997E+02  0.40698E+06
 0.43499996E+02  0.46019E+06
 0.43549995E+02  0.35276E+06
 0.43599998E+02  0.12573E+06
 0.43649998E+02 -0.81042E+05
 0.43699997E+02 -0.18071E+06
 0.43749996E+02 -0.24072E+06
 0.43799995E+02 -0.39122E+06
 0.43849998E+02 -0.39699E+06
 0.43899998E+02 -0.35019E+06
 0.43949997E+02 -0.23232E+06
 0.43999996E+02 -0.18348E+05
 0.44049995E+02  0.13103E+06
 0.44099998E+02  0.13855E+06
 0.44149998E+02 -0.64922E+05
 0.44199997E+02 -0.37897E+06
 0.44249996E+02 -0.47098E+06
 0.44299995E+02 -0.33192E+06
 0.44349998E+02 -0.93955E+05
 0.44399998E+02  0.16871E+06
 0.44449997E+02  0.14178E+06
 0.44499996E+02  0.16234E+06
 0.44549995E+02  0.30652E+06
 0.44599998E+02  0.22058E+06
 0.44649998E+02  0.46461E+05
 0.44699997E+02  0.14060E+04
 0.44749996E+02  0.11354E+06
 0.44799995E+02  0.48924E+06
 0.44849998E+02  0.86707E+06
 0.44899998E+02  0.90026E+06
 0.44949997E+02  0.59420E+06
 0.44999996E+02  0.15118E+06
 0.45049995E+02  0.71447E+05
 0.45099998E+02  0.29959E+06
 0.45149998E+02  0.81203E+06
 0.45199997E+02  0.11850E+07
 0.45249996E+02  0.10529E+07
 0.45299995E+02  0.71511E+06
 0.45349998E+02  0.33880E+06
 0.45399998E+02  0.31547E+06
 0.45449997E+02  0.37274E+06
 0.45499996E+02  0.46225E+06
 0.45549995E+02  0.65355E+06
 0.45599998E+02  0.72691E+06
 0.45649998E+02  0.83702E+06
 0.45699997E+02  0.69708E+06
 0.45749996E+02  0.30992E+06
 0.45799995E+02  0.21960E+05
 0.45849998E+02 -0.45606E+05
 0.45899998E+02  0.17045E+06
 0.45949997E+02  0.40235E+06
 0.45999996E+02  0.53872E+06
 0.46049995E+02  0.77452E+06
 0.46099998E+02  0.79687E+06
 0.46149998E+02  0.58024E+06
 0.46199997E+02  0.26689E+06
 0.46249996E+02 -0.12877E+06
 0.46299995E+02 -0.24507E+06
 0.46349998E+02 -0.15778E+06
 0.46399998E+02  0.72387E+05
 0.46449997E+02  0.54181E+06
 0.46499996E+02  0.95464E+06
 0.46549995E+02  0.94236E+06
 0.46599998E+02  0.42510E+06
 0.46649998E+02 -0.19809E+06
 0.46699997E+02 -0.52473E+06
 0.46749996E+02 -0.58111E+06
 0.46799995E+02 -0.51919E+06
 0.46849998E+02 -0.37261E+06
 0.46899998E+02 -0.30733E+06
 0.46949997E+02 -0.47106E+06
 0.46999996E+02 -0.80455E+06
 0.47049995E+02 -0.10012E+07
 0.47099998E+02 -0.88959E+06
 0.47149998E+02 -0.80569E+06
 0.47199997E+02 -0.78594E+06
 0.47249996E+02 -0.71901E+06
 0.47299995E+02 -0.72340E+06
 0.47349998E+02 -0.73412E+06
 0.47399998E+02 -0.67862E+06
 0.47449997E+02 -0.60597E+06
 0.47499996E+02 -0.53056E+06
 0.47549995E+02 -0.60758E+06
 0.47599998E+02 -0.78079E+06
 0.47649998E+02 -0.81896E+06
 0.47699997E+02 -0.56103E+06
 0.47749996E+02 -0.17886E+06
 0.47799995E+02  0.97643E+05
 0.47849998E+02  0.15852E+06
 0.47899998E+02 -0.21572E+05
 0.47949997E+02 -0.16592E+06
 0.47999996E+02 -0.18041E+06
 0.48049995E+02 -0.87657E+05
 0.48099998E+02 -0.37853E+05
 0.48149998E+02 -0.33961E+05
 0.48199997E+02 -0.47007E+05
 0.48249996E+02 -0.53243E+05
 0.48299995E+02 -0.14993E+06
 0.48349998E+02 -0.22201E+06
 0.48399998E+02 -0.60653E+05
 0.48449997E+02  0.52325E+05
 0.48499996E+02 -0.29735E+05
 0.48549995E+02 -0.15222E+06
 0.48599998E+02 -0.92976E+05
 0.48649998E+02  0.12120E+06
 0.48699997E+02  0.26042E+06
 0.48749996E+02  0.32146E+06
 0.48799995E+02  0.36903E+06
 0.48849998E+02  0.38214E+06
 0.48899998E+02  0.37375E+06
 0.48949997E+02  0.29241E+06
 0.48999996E+02  0.27893E+06
 0.49049995E+02  0.30895E+06
 0.49099998E+02  0.23937E+06
 0.49149998E+02  0.12655E+06
 0.49199997E+02  0.97502E+05
 0.49249996E+02  0.26553E+06
 0.49299995E+02  0.33800E+06
 0.49349998E+02  0.21280E+06
 0.49399998E+02  0.15041E+06
 0.49449997E+02  0.10455E+06
 0.49499996E+02  0.11059E+06
 0.49549995E+02  0.29479E+06
 0.49599998E+02  0.53116E+06
 0.49649998E+02  0.63878E+06
 0.49699997E+02  0.55001E+06
 0.49749996E+02  0.44629E+06
 0.49799995E+02  0.51706E+06
 0.49849998E+02  0.75144E+06
 0.49899998E+02  0.92403E+06
 0.49949997E+02  0.10103E+07
 0.49999996E+02  0.96410E+06
 0.50049995E+02  0.77047E+06
 0.50099998E+02  0.74743E+06
 0.50149998E+02  0.82387E+06
 0.50199997E+02  0.86027E+06
 0.50249996E+02  0.82855E+06
 0.50299995E+02  0.78751E+06
 0.50349998E+02  0.74124E+06
 0.50399998E+02  0.63109E+06
 0.50449997E+02  0.56384E+06
 0.50499996E+02  0.48994E+06
 0.50549995E+02  0.28622E+06
 0.50599998E+02  0.17743E+05
 0.50649998E+02 -0.22172E+06
 0.50699997E+02 -0.33859E+06
 0.50749996E+02 -0.37134E+06
 0.50799995E+02 -0.33736E+06
 0.50849998E+02 -0.23712E+06
 0.50899998E+02 -0.22848E+06
 0.50949997E+02 -0.40846E+06
 0.50999996E+02 -0.61228E+06
 0.51049995E+02 -0.71030E+06
 0.51099998E+02 -0.74717E+06
 0.51149998E+02 -0.64660E+06
 0.51199997E+02 -0.66518E+06
 0.51249996E+02 -0.84536E+06
 0.51299995E+02 -0.97299E+06
 0.51349998E+02 -0.10188E+07
 0.51399998E+02 -0.94806E+06
 0.51449997E+02 -0.73397E+06
 0.51499996E+02 -0.41166E+06
 0.51549995E+02 -0.15738E+06
 0.51599998E+02 -0.15425E+06
 0.51649998E+02 -0.26083E+06
 0.51699997E+02 -0.30168E+06
 0.51749996E+02 -0.26492E+06
 0.51799995E+02 -0.21018E+06
 0.51849998E+02 -0.29252E+06
 0.51899998E+02 -0.34313E+06
 0.51949997E+02 -0.23256E+06
 0.51999996E+02 -0.90730E+05
 0.52049995E+02 -0.73650E+05
 0.52099998E+02 -0.20167E+06
 0.52149998E+02 -0.28006E+06
 0.52199997E+02 -0.17226E+06
 0.52249996E+02 -0.75028E+05
 0.52299995E+02 -0.14756E+06
 0.52349998E+02 -0.15775E+06
 0.52399998E+02  0.35516E+05
 0.52449997E+02  0.13357E+06
 0.52499996E+02 -0.23696E+05
 0.52549995E+02 -0.23433E+06
 0.52599998E+02 -0.38822E+06
 0.52649998E+02 -0.50476E+06
 0.52699997E+02 -0.66674E+06
 0.52749996E+02 -0.73186E+06
 0.52799995E+02 -0.60241E+06
 0.52849998E+02 -0.46332E+06
 0.52899998E+02 -0.39382E+06
 0.52949997E+02 -0.40937E+06
 0.52999996E+02 -0.48597E+06
 0.53049995E+02 -0.60699E+06
 0.53099998E+02 -0.74582E+06
 0.53149998E+02 -0.77528E+06
 0.53199997E+02 -0.58877E+06
 0.53249996E+02 -0.22232E+06
 0.53299995E+02  0.13822E+06
 0.53349998E+02  0.36556E+06
 0.53399998E+02  0.37143E+06
 0.53449997E+02  0.18418E+06
 0.53499996E+02  0.59997E+05
 0.53549995E+02  0.32758E+05
 0.53599998E+02  0.71307E+05
 0.53649998E+02  0.26186E+06
 0.53699997E+02  0.52352E+06
 0.53749996E+02  0.61765E+06
 0.53799995E+02  0.55593E+06
 0.53849998E+02  0.55696E+06
 0.53899998E+02  0.65107E+06
 0.53949997E+02  0.72181E+06
 0.53999996E+02  0.63177E+06
 0.54049995E+02  0.42831E+06
 0.54099998E+02  0.25705E+06
 0.54149998E+02  0.15516E+06
 0.54199997E+02  0.94552E+05
 0.54249996E+02  0.64898E+05
 0.54299995E+02  0.27185E+05
 0.54349998E+02 -0.64851E+05
 0.54399998E+02 -0.23486E+06
 0.54449997E+02 -0.42046E+06
 0.54499996E+02 -0.55278E+06
 0.54549995E+02 -0.60450E+06
 0.54599998E+02 -0.58477E+06
 0.54649998E+02 -0.47077E+06
 0.54699997E+02 -0.36431E+06
 0.54749996E+02 -0.36949E+06
 0.54799995E+02 -0.40836E+06
 0.54849998E+02 -0.48733E+06
 0.54899998E+02 -0.63959E+06
 0.54949997E+02 -0.82287E+06
 0.54999996E+02 -0.94113E+06
 0.55049995E+02 -0.93059E+06
 0.55099998E+02 -0.85951E+06
 0.55149998E+02 -0.71002E+06
 0.55199997E+02 -0.42171E+06
 0.55249996E+02 -0.20592E+06
 0.55299995E+02 -0.18881E+06
 0.55349998E+02 -0.25367E+06
 0.55399998E+02 -0.25263E+06
 0.55449997E+02 -0.21819E+06
 0.55499996E+02 -0.21132E+06
 0.55549995E+02 -0.15858E+06
 0.55599998E+02 -0.72236E+05
 0.55649998E+02 -0.22072E+05
 0.55699997E+02  0.17743E+05
 0.55749996E+02  0.38121E+05
 0.55799995E+02  0.43939E+05
 0.55849995E+02 -0.39111E+04
 0.55899998E+02 -0.16763E+06
 0.55949997E+02 -0.29573E+06
 0.55999996E+02 -0.34488E+06
 0.56049995E+02 -0.28790E+06
 0.56099995E+02 -0.17055E+06
 0.56149998E+02 -0.14831E+06
 0.56199997E+02 -0.23269E+06
 0.56249996E+02 -0.42260E+06
 0.56299995E+02 -0.68139E+06
 0.56349995E+02 -0.86307E+06
 0.56399998E+02 -0.88721E+06
 0.56449997E+02 -0.76552E+06
 0.56499996E+02 -0.55503E+06
 0.56549995E+02 -0.38078E+06
 0.56599995E+02 -0.28400E+06
 0.56649998E+02 -0.25122E+06
 0.56699997E+02 -0.28113E+06
 0.56749996E+02 -0.36243E+06
 0.56799995E+02 -0.41875E+06
 0.56849995E+02 -0.34483E+06
 0.56899998E+02 -0.14472E+06
 0.56949997E+02  0.88657E+05
 0.56999996E+02  0.24707E+06
 0.57049995E+02  0.29642E+06
 0.57099995E+02  0.27139E+06
 0.57149998E+02  0.22651E+06
 0.57199997E+02  0.27274E+06
 0.57249996E+02  0.37924E+06
 0.57299995E+02  0.51262E+06
 0.57349995E+02  0.62333E+06
 0.57399998E+02  0.61003E+06
 0.57449997E+02  0.47600E+06
 0.57499996E+02  0.23545E+06
 0.57549995E+02  0.48038E+05
 0.57599995E+02 -0.33505E+05
 0.57649998E+02 -0.10529E+06
 0.57699997E+02 -0.19828E+06
 0.57749996E+02 -0.25612E+06
 0.57799995E+02 -0.30917E+06
 0.57849995E+02 -0.36957E+06
 0.57899998E+02 -0.30749E+06
 0.57949997E+02 -0.13673E+06
 0.57999996E+02  0.55441E+05
 0.58049995E+02  0.23043E+06
 0.58099995E+02  0.36514E+06
 0.58149998E+02  0.39681E+06
 0.58199997E+02  0.33145E+06
 0.58249996E+02  0.32616E+06
 0.58299995E+02  0.41578E+06
 0.58349995E+02  0.48479E+06
 0.58399998E+02  0.52115E+06
 0.58449997E+02  0.57381E+06
 0.58499996E+02  0.56279E+06
 0.58549995E+02  0.47380E+06
 0.58599995E+02  0.46068E+06
 0.58649998E+02  0.51349E+06
 0.58699997E+02  0.56355E+06
 0.58749996E+02  0.56009E+06
 0.58799995E+02  0.49827E+06
 0.58849995E+02  0.47388E+06
 0.58899998E+02  0.46169E+06
 0.58949997E+02  0.38998E+06
 0.58999996E+02  0.26679E+06
 0.59049995E+02  0.13690E+06
 0.59099995E+02  0.91530E+05
 0.59149998E+02  0.20358E+06
 0.59199997E+02  0.43067E+06
 0.59249996E+02  0.61710E+06
 0.59299995E+02  0.66461E+06
 0.59349995E+02  0.65944E+06
 0.59399998E+02  0.71260E+06
 0.59449997E+02  0.79184E+06
 0.59499996E+02  0.82289E+06
 0.59549995E+02  0.78900E+06
 0.59599995E+02  0.73152E+06
 0.59649998E+02  0.72948E+06
 0.59699997E+02  0.74624E+06
 0.59749996E+02  0.80829E+06
 0.59799995E+02  0.94362E+06
 0.59849995E+02  0.10219E+07
 0.59899998E+02  0.99844E+06
 0.59949997E+02  0.95957E+06
 0.59999996E+02  0.96911E+06
 0.60049995E+02  0.99241E+06
 0.60099995E+02  0.97261E+06
 0.60149998E+02  0.93494E+06
 0.60199997E+02  0.86316E+06
 0.60249996E+02  0.71630E+06
 0.60299995E+02  0.56232E+06
 0.60349995E+02  0.42940E+06
 0.60399998E+02  0.37421E+06
 0.60449997E+02  0.42475E+06
 0.60499996E+02  0.49403E+06
 0.60549995E+02  0.52615E+06
 0.60599995E+02  0.50598E+06
 0.60649998E+02  0.51928E+06
 0.60699997E+02  0.54647E+06
 0.60749996E+02  0.48426E+06
 0.60799995E+02  0.36625E+06
 0.60849995E+02  0.24286E+06
 0.60899998E+02  0.21557E+06
 0.60949997E+02  0.26650E+06
 0.60999996E+02  0.31376E+06
 0.61049995E+02  0.31901E+06
 0.61099995E+02  0.22999E+06
 0.61149998E+02  0.21183E+05
 0.61199997E+02 -0.24562E+06
 0.61249996E+02 -0.42403E+06
 0.61299995E+02 -0.47942E+06
 0.61349995E+02 -0.48175E+06
 0.61399998E+02 -0.44279E+06
 0.61449997E+02 -0.40650E+06
 0.61499996E+02 -0.41254E+06
 0.61549995E+02 -0.46887E+06
 0.61599995E+02 -0.55734E+06
 0.61649998E+02 -0.59026E+06
 0.61699997E+02 -0.60954E+06
 0.61749996E+02 -0.68154E+06
 0.61799995E+02 -0.74446E+06
 0.61849995E+02 -0.77313E+06
 0.61899998E+02 -0.80983E+06
 0.61949997E+02 -0.82823E+06
 0.61999996E+02 -0.79011E+06
 0.62049995E+02 -0.68209E+06
 0.62099998E+02 -0.57683E+06
 0.62149994E+02 -0.53004E+06
 0.62199997E+02 -0.49260E+06
 0.62249992E+02 -0.44432E+06
 0.62299995E+02 -0.41939E+06
 0.62349998E+02 -0.43095E+06
 0.62399994E+02 -0.48475E+06
 0.62449997E+02 -0.56123E+06
 0.62499992E+02 -0.57725E+06
 0.62549995E+02 -0.55494E+06
 0.62599998E+02 -0.57226E+06
 0.62649994E+02 -0.61790E+06
 0.62699997E+02 -0.62824E+06
 0.62749992E+02 -0.58570E+06
 0.62799995E+02 -0.51966E+06
 0.62849998E+02 -0.42046E+06
 0.62899994E+02 -0.30045E+06
 0.62949997E+02 -0.18448E+06
 0.62999992E+02 -0.30617E+05
 0.63049995E+02  0.15817E+06
 0.63099998E+02  0.30866E+06
 0.63149994E+02  0.40896E+06
 0.63199997E+02  0.47479E+06
 0.63249992E+02  0.49886E+06
 0.63299995E+02  0.49081E+06
 0.63349998E+02  0.49472E+06
 0.63399994E+02  0.48673E+06
 0.63449997E+02  0.45885E+06
 0.63499992E+02  0.48561E+06
 0.63549995E+02  0.51814E+06
 0.63599998E+02  0.48870E+06
 0.63649994E+02  0.39987E+06
 0.63699997E+02  0.24186E+06
 0.63749992E+02  0.52594E+05
 0.63799995E+02 -0.71909E+05
 0.63849998E+02 -0.76637E+05
 0.63899994E+02  0.77081E+04
 0.63949997E+02  0.13589E+06
 0.63999992E+02  0.27071E+06
 0.64049995E+02  0.38393E+06
 0.64099998E+02  0.43243E+06
 0.64149994E+02  0.43887E+06
 0.64199997E+02  0.47088E+06
 0.64249992E+02  0.51707E+06
 0.64299995E+02  0.54775E+06
 0.64349998E+02  0.51717E+06
 0.64399994E+02  0.41939E+06
 0.64449997E+02  0.28847E+06
 0.64499992E+02  0.13597E+06
 0.64549995E+02 -0.67592E+05
 0.64599998E+02 -0.28044E+06
 0.64649994E+02 -0.42247E+06
 0.64699997E+02 -0.48289E+06
 0.64749992E+02 -0.48596E+06
 0.64799995E+02 -0.48491E+06
 0.64849998E+02 -0.49570E+06
 0.64899994E+02 -0.51662E+06
 0.64949997E+02 -0.53314E+06
 0.64999992E+02 -0.55386E+06
 0.65049995E+02 -0.58590E+06
 0.65099998E+02 -0.58813E+06
 0.65149994E+02 -0.53918E+06
 0.65199997E+02 -0.45325E+06
 0.65249992E+02 -0.36964E+06
 0.65299995E+02 -0.32924E+06
 0.65349998E+02 -0.31599E+06
 0.65399994E+02 -0.28469E+06
 0.65449997E+02 -0.27645E+06
 0.65499992E+02 -0.30700E+06
 0.65549995E+02 -0.33769E+06
 0.65599998E+02 -0.35088E+06
 0.65649994E+02 -0.32332E+06
 0.65699997E+02 -0.25729E+06
 0.65749992E+02 -0.16987E+06
 0.65799995E+02 -0.12436E+06
 0.65849998E+02 -0.17392E+06
 0.65899994E+02 -0.29684E+06
 0.65949997E+02 -0.43759E+06
 0.65999992E+02 -0.55807E+06
 0.66049995E+02 -0.65427E+06
 0.66099998E+02 -0.72662E+06
 0.66149994E+02 -0.78696E+06
 0.66199997E+02 -0.82852E+06
 0.66249992E+02 -0.84849E+06
 0.66299995E+02 -0.82761E+06
 0.66349998E+02 -0.78610E+06
 0.66399994E+02 -0.78744E+06
 0.66449997E+02 -0.81660E+06
 0.66499992E+02 -0.84635E+06
 0.66549995E+02 -0.84412E+06
 0.66599998E+02 -0.77992E+06
 0.66649994E+02 -0.65695E+06
 0.66699997E+02 -0.47089E+06
 0.66749992E+02 -0.23872E+06
 0.66799995E+02 -0.50225E+05
 0.66849998E+02  0.82195E+05
 0.66899994E+02  0.22611E+06
 0.66949997E+02  0.36402E+06
 0.66999992E+02  0.46167E+06
 0.67049995E+02  0.51242E+06
 0.67099998E+02  0.51157E+06
 0.67149994E+02  0.48387E+06
 0.67199997E+02  0.45609E+06
 0.67249992E+02  0.43187E+06
 0.67299995E+02  0.42741E+06
 0.67349998E+02  0.41984E+06
 0.67399994E+02  0.39712E+06
 0.67449997E+02  0.34179E+06
 0.67499992E+02  0.27230E+06
 0.67549995E+02  0.25740E+06
 0.67599998E+02  0.27343E+06
 0.67649994E+02  0.30573E+06
 0.67699997E+02  0.39332E+06
 0.67749992E+02  0.50055E+06
 0.67799995E+02  0.56531E+06
 0.67849998E+02  0.57408E+06
 0.67899994E+02  0.54042E+06
 0.67949997E+02  0.52257E+06
 0.67999992E+02  0.56418E+06
 0.68049995E+02  0.65895E+06
 0.68099998E+02  0.77132E+06
 0.68149994E+02  0.87397E+06
 0.68199997E+02  0.92047E+06
 0.68249992E+02  0.88409E+06
 0.68299995E+02  0.78396E+06
 0.68349998E+02  0.62368E+06
 0.68399994E+02  0.44617E+06
 0.68449997E+02  0.30288E+06
 0.68499992E+02  0.18987E+06
 0.68549995E+02  0.78614E+05
 0.68599998E+02 -0.45164E+05
 0.68649994E+02 -0.17915E+06
 0.68699997E+02 -0.28820E+06
 0.68749992E+02 -0.32956E+06
 0.68799995E+02 -0.31083E+06
 0.68849998E+02 -0.27133E+06
 0.68899994E+02 -0.25120E+06
 0.68949997E+02 -0.22523E+06
 0.68999992E+02 -0.18046E+06
 0.69049995E+02 -0.13743E+06
 0.69099998E+02 -0.96780E+05
 0.69149994E+02 -0.58212E+05
 0.69199997E+02 -0.32828E+05
 0.69249992E+02 -0.31614E+05
 0.69299995E+02 -0.40134E+05
 0.69349998E+02 -0.70474E+05
 0.69399994E+02 -0.12631E+06
 0.69449997E+02 -0.18507E+06
 0.69499992E+02 -0.21567E+06
 0.69549995E+02 -0.22903E+06
 0.69599998E+02 -0.24649E+06
 0.69649994E+02 -0.28369E+06
 0.69699997E+02 -0.36930E+06
 0.69749992E+02 -0.47787E+06
 0.69799995E+02 -0.56273E+06
 0.69849998E+02 -0.57099E+06
 0.69899994E+02 -0.48684E+06
 0.69949997E+02 -0.35759E+06
 0.69999992E+02 -0.22432E+06
 0.70049995E+02 -0.13012E+06
 0.70099998E+02 -0.94425E+05
 0.70149994E+02 -0.86495E+05
 0.70199997E+02 -0.63374E+05
 0.70249992E+02 -0.13481E+05
 0.70299995E+02  0.47151E+05
 0.70349998E+02  0.96054E+05
 0.70399994E+02  0.11442E+06
 0.70449997E+02  0.11975E+06
 0.70499992E+02  0.14368E+06
 0.70549995E+02  0.18260E+06
 0.70599998E+02  0.22067E+06
 0.70649994E+02  0.24091E+06
 0.70699997E+02  0.23508E+06
 0.70749992E+02  0.20484E+06
 0.70799995E+02  0.13237E+06
 0.70849998E+02  0.71082E+05
 0.70899994E+02  0.83950E+05
 0.70949997E+02  0.16880E+06
 0.70999992E+02  0.28343E+06
 0.71049995E+02  0.38319E+06
 0.71099998E+02  0.45772E+06
 0.71149994E+02  0.51883E+06
 0.71199997E+02  0.58610E+06
 0.71249992E+02  0.67991E+06
 0.71299995E+02  0.77144E+06
 0.71349998E+02  0.83568E+06
 0.71399994E+02  0.87277E+06
 0.71449997E+02  0.84262E+06
 0.71499992E+02  0.72627E+06
 0.71549995E+02  0.55367E+06
 0.71599998E+02  0.39433E+06
 0.71649994E+02  0.28912E+06
 0.71699997E+02  0.20875E+06
 0.71749992E+02  0.13274E+06
 0.71799995E+02  0.61491E+05
 0.71849998E+02 -0.10388E+05
 0.71899994E+02 -0.76530E+05
 0.71949997E+02 -0.13263E+06
 0.71999992E+02 -0.16155E+06
 0.72049995E+02 -0.18223E+06
 0.72099998E+02 -0.23249E+06
 0.72149994E+02 -0.27950E+06
 0.72199997E+02 -0.27623E+06
 0.72249992E+02 -0.23055E+06
 0.72299995E+02 -0.17274E+06
 0.72349998E+02 -0.13337E+06
 0.72399994E+02 -0.12035E+06
 0.72449997E+02 -0.12798E+06
 0.72499992E+02 -0.15525E+06
 0.72549995E+02 -0.19317E+06
 0.72599998E+02 -0.22455E+06
 0.72649994E+02 -0.22373E+06
 0.72699997E+02 -0.19182E+06
 0.72749992E+02 -0.14981E+06
 0.72799995E+02 -0.10316E+06
 0.72849998E+02 -0.63355E+05
 0.72899994E+02 -0.58824E+05
 0.72949997E+02 -0.10989E+06
 0.72999992E+02 -0.19011E+06
 0.73049995E+02 -0.24629E+06
 0.73099998E+02 -0.28233E+06
 0.73149994E+02 -0.29947E+06
 0.73199997E+02 -0.26300E+06
 0.73249992E+02 -0.19164E+06
 0.73299995E+02 -0.13277E+06
 0.73349998E+02 -0.10002E+06
 0.73399994E+02 -0.79696E+05
 0.73449997E+02 -0.77071E+05
 0.73499992E+02 -0.10035E+06
 0.73549995E+02 -0.14304E+06
 0.73599998E+02 -0.20077E+06
 0.73649994E+02 -0.24757E+06
 0.73699997E+02 -0.25840E+06
 0.73749992E+02 -0.23637E+06
 0.73799995E+02 -0.18873E+06
 0.73849998E+02 -0.97943E+05
 0.73899994E+02  0.23233E+05
 0.73949997E+02  0.12802E+06
 0.73999992E+02  0.20022E+06
 0.74049995E+02  0.22120E+06
 0.74099998E+02  0.19119E+06
 0.74149994E+02  0.14465E+06
 0.74199997E+02  0.10301E+06
 0.74249992E+02  0.59624E+05
 0.74299995E+02 -0.13860E+05
 0.74349998E+02 -0.10148E+06
 0.74399994E+02 -0.16932E+06
 0.74449997E+02 -0.20675E+06
 0.74499992E+02 -0.22535E+06
 0.74549995E+02 -0.22174E+06
 0.74599998E+02 -0.20061E+06
 0.74649994E+02 -0.17633E+06
 0.74699997E+02 -0.13305E+06
 0.74749992E+02 -0.69884E+05
 0.74799995E+02  0.15854E+05
 0.74849998E+02  0.11150E+06
 0.74899994E+02  0.19751E+06
 0.74949997E+02  0.24818E+06
 0.74999992E+02  0.23666E+06
 0.75049995E+02  0.16694E+06
 0.75099998E+02  0.49312E+05
 0.75149994E+02 -0.99488E+05
 0.75199997E+02 -0.25626E+06
 0.75249992E+02 -0.40248E+06
 0.75299995E+02 -0.51428E+06
 0.75349998E+02 -0.59016E+06
 0.75399994E+02 -0.64111E+06
 0.75449997E+02 -0.66476E+06
 0.75499992E+02 -0.68165E+06
 0.75549995E+02 -0.72884E+06
 0.75599998E+02 -0.80744E+06
 0.75649994E+02 -0.85784E+06
 0.75699997E+02 -0.85598E+06
 0.75749992E+02 -0.77323E+06
 0.75799995E+02 -0.62620E+06
 0.75849998E+02 -0.49892E+06
 0.75899994E+02 -0.41296E+06
 0.75949997E+02 -0.34703E+06
 0.75999992E+02 -0.27319E+06
 0.76049995E+02 -0.17978E+06
 0.76099998E+02 -0.73098E+05
 0.76149994E+02  0.78535E+04
 0.76199997E+02  0.58479E+05
 0.76249992E+02  0.65097E+05
 0.76299995E+02  0.24933E+05
 0.76349998E+02 -0.19034E+05
 0.76399994E+02 -0.53336E+05
 0.76449997E+02 -0.71218E+05
 0.76499992E+02 -0.67409E+05
 0.76549995E+02 -0.58140E+05
 0.76599998E+02 -0.63885E+05
 0.76649994E+02 -0.78189E+05
 0.76699997E+02 -0.76160E+05
 0.76749992E+02 -0.30339E+05
 0.76799995E+02  0.64071E+05
 0.76849998E+02  0.20322E+06
 0.76899994E+02  0.36874E+06
 0.76949997E+02  0.53113E+06
 0.76999992E+02  0.66566E+06
 0.77049995E+02  0.78047E+06
 0.77099998E+02  0.88845E+06
 0.77149994E+02  0.95395E+06
 0.77199997E+02  0.95663E+06
 0.77249992E+02  0.90895E+06
 0.77299995E+02  0.83977E+06
 0.77349998E+02  0.76871E+06
 0.77399994E+02  0.70346E+06
 0.77449997E+02  0.64220E+06
 0.77499992E+02  0.58763E+06
 0.77549995E+02  0.55659E+06
 0.77599998E+02  0.54891E+06
 0.77649994E+02  0.55897E+06
 0.77699997E+02  0.58767E+06
 0.77749992E+02  0.60398E+06
 0.77799995E+02  0.60296E+06
 0.77849998E+02  0.60075E+06
 0.77899994E+02  0.59529E+06
 0.77949997E+02  0.61151E+06
 0.77999992E+02  0.62356E+06
 0.78049995E+02  0.60239E+06
 0.78099998E+02  0.55801E+06
 0.78149994E+02  0.51859E+06
 0.78199997E+02  0.50397E+06
 0.78249992E+02  0.48837E+06
 0.78299995E+02  0.46545E+06
 0.78349998E+02  0.43508E+06
 0.78399994E+02  0.37831E+06
 0.78449997E+02  0.28723E+06
 0.78499992E+02  0.17212E+06
 0.78549995E+02  0.51743E+05
 0.78599998E+02 -0.51845E+05
 0.78649994E+02 -0.12952E+06
 0.78699997E+02 -0.19584E+06
 0.78749992E+02 -0.26033E+06
 0.78799995E+02 -0.31810E+06
 0.78849998E+02 -0.37109E+06
 0.78899994E+02 -0.40646E+06
 0.78949997E+02 -0.40878E+06
 0.78999992E+02 -0.38140E+06
 0.79049995E+02 -0.36607E+06
 0.79099998E+02 -0.37858E+06
 0.79149994E+02 -0.40599E+06
 0.79199997E+02 -0.44648E+06
 0.79249992E+02 -0.50647E+06
 0.79299995E+02 -0.58754E+06
 0.79349998E+02 -0.62926E+06
 0.79399994E+02 -0.68734E+06
 0.79449997E+02 -0.77501E+06
 0.79499992E+02 -0.85865E+06
 0.79549995E+02 -0.92954E+06
 0.79599998E+02 -0.96029E+06
 0.79649994E+02 -0.98478E+06
 0.79699997E+02 -0.10002E+07
 0.79749992E+02 -0.10184E+07
 0.79799995E+02 -0.10380E+07
 0.79849998E+02 -0.10507E+07
 0.79899994E+02 -0.10576E+07
 0.79949997E+02 -0.10639E+07
 0.79999992E+02 -0.10738E+07
 0.80049995E+02 -0.10601E+07
 0.80099998E+02 -0.99917E+06
 0.80149994E+02 -0.89578E+06
 0.80199997E+02 -0.76321E+06
 0.80249992E+02 -0.63110E+06
 0.80299995E+02 -0.52075E+06
 0.80349998E+02 -0.42526E+06
 0.80399994E+02 -0.33401E+06
 0.80449997E+02 -0.24450E+06
 0.80499992E+02 -0.16666E+06
 0.80549995E+02 -0.89458E+05
 0.80599998E+02  0.12842E+05
 0.80649994E+02  0.13755E+06
 0.80699997E+02  0.26362E+06
 0.80749992E+02  0.38584E+06
 0.80799995E+02  0.48603E+06
 0.80849998E+02  0.54793E+06
 0.80899994E+02  0.57904E+06
 0.80949997E+02  0.61313E+06
 0.80999992E+02  0.66834E+06
 0.81049995E+02  0.72924E+06
 0.81099998E+02  0.78574E+06
 0.81149994E+02  0.84266E+06
 0.81199997E+02  0.90081E+06
 0.81249992E+02  0.95185E+06
 0.81299995E+02  0.99644E+06
 0.81349998E+02  0.10410E+07
 0.81399994E+02  0.10851E+07
 0.81449997E+02  0.11105E+07
 0.81499992E+02  0.11166E+07
 0.81549995E+02  0.11016E+07
 0.81599998E+02  0.10669E+07
 0.81649994E+02  0.10240E+07
 0.81699997E+02  0.97732E+06
 0.81749992E+02  0.93338E+06
 0.81799995E+02  0.89703E+06
 0.81849998E+02  0.86749E+06
 0.81899994E+02  0.84258E+06
 0.81949997E+02  0.81206E+06
 0.81999992E+02  0.75514E+06
 0.82049995E+02  0.67201E+06
 0.82099998E+02  0.55419E+06
 0.82149994E+02  0.40923E+06
 0.82199997E+02  0.26421E+06
 0.82249992E+02  0.12263E+06
 0.82299995E+02 -0.25305E+04
 0.82349998E+02 -0.94049E+05
 0.82399994E+02 -0.14656E+06
 0.82449997E+02 -0.15171E+06
 0.82499992E+02 -0.10956E+06
 0.82549995E+02 -0.43044E+05
 0.82599998E+02  0.11060E+05
 0.82649994E+02  0.29373E+05
 0.82699997E+02 -0.37388E+04
 0.82749992E+02 -0.10217E+06
 0.82799995E+02 -0.24904E+06
 0.82849998E+02 -0.40981E+06
 0.82899994E+02 -0.57122E+06
 0.82949997E+02 -0.73302E+06
 0.82999992E+02 -0.87304E+06
 0.83049995E+02 -0.99124E+06
 0.83099998E+02 -0.10984E+07
 0.83149994E+02 -0.11914E+07
 0.83199997E+02 -0.12793E+07
 0.83249992E+02 -0.13739E+07
 0.83299995E+02 -0.14693E+07
 0.83349998E+02 -0.15470E+07
 0.83399994E+02 -0.15861E+07
 0.83449997E+02 -0.15833E+07
 0.83499992E+02 -0.15446E+07
 0.83549995E+02 -0.14571E+07
 0.83599998E+02 -0.13281E+07
 0.83649994E+02 -0.11644E+07
 0.83699997E+02 -0.97095E+06
 0.83749992E+02 -0.75714E+06
 0.83799995E+02 -0.52731E+06
 0.83849998E+02 -0.30150E+06
 0.83899994E+02 -0.91948E+05
 0.83949997E+02  0.88889E+05
 0.83999992E+02  0.21218E+06
 0.84049995E+02  0.27197E+06
 0.84099998E+02  0.29174E+06
 0.84149994E+02  0.29641E+06
 0.84199997E+02  0.30262E+06
 0.84249992E+02  0.32328E+06
 0.84299995E+02  0.37680E+06
 0.84349998E+02  0.45725E+06
 0.84399994E+02  0.54531E+06
 0.84449997E+02  0.62771E+06
 0.84499992E+02  0.68269E+06
 0.84549995E+02  0.70080E+06
 0.84599998E+02  0.69362E+06
 0.84649994E+02  0.67714E+06
 0.84699997E+02  0.65340E+06
 0.84749992E+02  0.62949E+06
 0.84799995E+02  0.61030E+06
 0.84849998E+02  0.60047E+06
 0.84899994E+02  0.61417E+06
 0.84949997E+02  0.63959E+06
 0.84999992E+02  0.65183E+06
 0.85049995E+02  0.63845E+06
 0.85099998E+02  0.59817E+06
 0.85149994E+02  0.54461E+06
 0.85199997E+02  0.49857E+06
 0.85249992E+02  0.47370E+06
 0.85299995E+02  0.48312E+06
 0.85349998E+02  0.52672E+06
 0.85399994E+02  0.59974E+06
 0.85449997E+02  0.68972E+06
 0.85499992E+02  0.78102E+06
 0.85549995E+02  0.86795E+06
 0.85599998E+02  0.95099E+06
 0.85649994E+02  0.10184E+07
 0.85699997E+02  0.10582E+07
 0.85749992E+02  0.10546E+07
 0.85799995E+02  0.10088E+07
 0.85849998E+02  0.93478E+06
 0.85899994E+02  0.84356E+06
 0.85949997E+02  0.73628E+06
 0.85999992E+02  0.61438E+06
 0.86049995E+02  0.46773E+06
 0.86099998E+02  0.30675E+06
 0.86149994E+02  0.15620E+06
 0.86199997E+02  0.17890E+05
 0.86249992E+02 -0.12951E+06
 0.86299995E+02 -0.30405E+06
 0.86349998E+02 -0.48734E+06
 0.86399994E+02 -0.71351E+06
 0.86449997E+02 -0.92556E+06
 0.86499992E+02 -0.11008E+07
 0.86549995E+02 -0.12495E+07
 0.86599998E+02 -0.13376E+07
 0.86649994E+02 -0.13752E+07
 0.86699997E+02 -0.14047E+07
 0.86749992E+02 -0.14374E+07
 0.86799995E+02 -0.14553E+07
 0.86849998E+02 -0.14650E+07
 0.86899994E+02 -0.14618E+07
 0.86949997E+02 -0.14455E+07
 0.86999992E+02 -0.13941E+07
 0.87049995E+02 -0.13049E+07
 0.87099998E+02 -0.11762E+07
 0.87149994E+02 -0.10091E+07
 0.87199997E+02 -0.81842E+06
 0.87249992E+02 -0.62716E+06
 0.87299995E+02 -0.45202E+06
 0.87349998E+02 -0.30626E+06
 0.87399994E+02 -0.20853E+06
 0.87449997E+02 -0.17096E+06
 0.87499992E+02 -0.18170E+06
 0.87549995E+02 -0.20283E+06
 0.87599991E+02 -0.20344E+06
 0.87649994E+02 -0.17344E+06
 0.87699997E+02 -0.10611E+06
 0.87749992E+02 -0.22039E+05
 0.87799995E+02  0.46213E+05
 0.87849991E+02  0.75790E+05
 0.87899994E+02  0.56330E+05
 0.87949997E+02 -0.84920E+03
 0.87999992E+02 -0.65654E+05
 0.88049995E+02 -0.66987E+05
 0.88099991E+02  0.40590E+05
 0.88149994E+02  0.19252E+06
 0.88199997E+02  0.29376E+06
 0.88249992E+02  0.36654E+06
 0.88299995E+02  0.43614E+06
 0.88349991E+02  0.48375E+06
 0.88399994E+02  0.49838E+06
 0.88449997E+02  0.48199E+06
 0.88499992E+02  0.44713E+06
 0.88549995E+02  0.40161E+06
 0.88599991E+02  0.36139E+06
 0.88649994E+02  0.33520E+06
 0.88699997E+02  0.33438E+06
 0.88749992E+02  0.35871E+06
 0.88799995E+02  0.40530E+06
 0.88849991E+02  0.46064E+06
 0.88899994E+02  0.49755E+06
 0.88949997E+02  0.50192E+06
 0.88999992E+02  0.47961E+06
 0.89049995E+02  0.44058E+06
 0.89099991E+02  0.38671E+06
 0.89149994E+02  0.32868E+06
 0.89199997E+02  0.27521E+06
 0.89249992E+02  0.22028E+06
 0.89299995E+02  0.15765E+06
 0.89349991E+02  0.88017E+05
 0.89399994E+02  0.99308E+04
 0.89449997E+02 -0.72316E+05
 0.89499992E+02 -0.14476E+06
 0.89549995E+02 -0.19764E+06
 0.89599991E+02 -0.23239E+06
 0.89649994E+02 -0.24903E+06
 0.89699997E+02 -0.24467E+06
 0.89749992E+02 -0.21935E+06
 0.89799995E+02 -0.18433E+06
 0.89849991E+02 -0.15675E+06
 0.89899994E+02 -0.14222E+06
 0.89949997E+02 -0.14462E+06
 0.89999992E+02 -0.16613E+06
 0.90049995E+02 -0.20466E+06
 0.90099991E+02 -0.24528E+06
 0.90149994E+02 -0.26085E+06
 0.90199997E+02 -0.24143E+06
 0.90249992E+02 -0.20259E+06
 0.90299995E+02 -0.15211E+06
 0.90349991E+02 -0.92122E+05
 0.90399994E+02 -0.19215E+05
 0.90449997E+02  0.72813E+05
 0.90499992E+02  0.17382E+06
 0.90549995E+02  0.26945E+06
 0.90599991E+02  0.34928E+06
 0.90649994E+02  0.40528E+06
 0.90699997E+02  0.42778E+06
 0.90749992E+02  0.41386E+06
 0.90799995E+02  0.37702E+06
 0.90849991E+02  0.33575E+06
 0.90899994E+02  0.30179E+06
 0.90949997E+02  0.28414E+06
 0.90999992E+02  0.28963E+06
 0.91049995E+02  0.31544E+06
 0.91099991E+02  0.35021E+06
 0.91149994E+02  0.38851E+06
 0.91199997E+02  0.43133E+06
 0.91249992E+02  0.47204E+06
 0.91299995E+02  0.49312E+06
 0.91349991E+02  0.47609E+06
 0.91399994E+02  0.40590E+06
 0.91449997E+02  0.29085E+06
 0.91499992E+02  0.14914E+06
 0.91549995E+02 -0.24268E+04
 0.91599991E+02 -0.13969E+06
 0.91649994E+02 -0.26032E+06
 0.91699997E+02 -0.36184E+06
 0.91749992E+02 -0.43413E+06
 0.91799995E+02 -0.47549E+06
 0.91849991E+02 -0.48255E+06
 0.91899994E+02 -0.45902E+06
 0.91949997E+02 -0.39786E+06
 0.91999992E+02 -0.29318E+06
 0.92049995E+02 -0.16295E+06
 0.92099991E+02 -0.34651E+05
 0.92149994E+02  0.71037E+05
 0.92199997E+02  0.14312E+06
 0.92249992E+02  0.16608E+06
 0.92299995E+02  0.13158E+06
 0.92349991E+02  0.50969E+05
 0.92399994E+02 -0.61752E+05
 0.92449997E+02 -0.19666E+06
 0.92499992E+02 -0.34030E+06
 0.92549995E+02 -0.47955E+06
 0.92599991E+02 -0.60288E+06
 0.92649994E+02 -0.70123E+06
 0.92699997E+02 -0.77023E+06
 0.92749992E+02 -0.79947E+06
 0.92799995E+02 -0.78206E+06
 0.92849991E+02 -0.72658E+06
 0.92899994E+02 -0.64165E+06
 0.92949997E+02 -0.53545E+06
 0.92999992E+02 -0.41348E+06
 0.93049995E+02 -0.28413E+06
 0.93099991E+02 -0.16228E+06
 0.93149994E+02 -0.62689E+05
 0.93199997E+02  0.73854E+04
 0.93249992E+02  0.47983E+05
 0.93299995E+02  0.60309E+05
 0.93349991E+02  0.49418E+05
 0.93399994E+02  0.30672E+05
 0.93449997E+02  0.18098E+05
 0.93499992E+02  0.12677E+05
 0.93549995E+02  0.78104E+04
 0.93599991E+02  0.55514E+04
 0.93649994E+02  0.15467E+05
 0.93699997E+02  0.35610E+05
 0.93749992E+02  0.68029E+05
 0.93799995E+02  0.12098E+06
 0.93849991E+02  0.19218E+06
 0.93899994E+02  0.26977E+06
 0.93949997E+02  0.33722E+06
 0.93999992E+02  0.38749E+06
 0.94049995E+02  0.42318E+06
 0.94099991E+02  0.43836E+06
 0.94149994E+02  0.42614E+06
 0.94199997E+02  0.38560E+06
 0.94249992E+02  0.32972E+06
 0.94299995E+02  0.27904E+06
 0.94349991E+02  0.24264E+06
 0.94399994E+02  0.21974E+06
 0.94449997E+02  0.20906E+06
 0.94499992E+02  0.20680E+06
 0.94549995E+02  0.20020E+06
 0.94599991E+02  0.18856E+06
 0.94649994E+02  0.17499E+06
 0.94699997E+02  0.16860E+06
 0.94749992E+02  0.18304E+06
 0.94799995E+02  0.22299E+06
 0.94849991E+02  0.29142E+06
 0.94899994E+02  0.37388E+06
 0.94949997E+02  0.44828E+06
 0.94999992E+02  0.49047E+06
 0.95049995E+02  0.48664E+06
 0.95099991E+02  0.44809E+06
 0.95149994E+02  0.38226E+06
 0.95199997E+02  0.30062E+06
 0.95249992E+02  0.22145E+06
 0.95299995E+02  0.15185E+06
 0.95349991E+02  0.94468E+05
 0.95399994E+02  0.43522E+05
 0.95449997E+02 -0.95503E+04
 0.95499992E+02 -0.70548E+05
 0.95549995E+02 -0.13865E+06
 0.95599991E+02 -0.20900E+06
 0.95649994E+02 -0.27634E+06
 0.95699997E+02 -0.34082E+06
 0.95749992E+02 -0.40422E+06
 0.95799995E+02 -0.45537E+06
 0.95849991E+02 -0.48266E+06
 0.95899994E+02 -0.48906E+06
 0.95949997E+02 -0.47882E+06
 0.95999992E+02 -0.46048E+06
 0.96049995E+02 -0.44237E+06
 0.96099991E+02 -0.42278E+06
 0.96149994E+02 -0.39961E+06
 0.96199997E+02 -0.36699E+06
 0.96249992E+02 -0.32782E+06
 0.96299995E+02 -0.28821E+06
 0.96349991E+02 -0.25204E+06
 0.96399994E+02 -0.22903E+06
 0.96449997E+02 -0.22286E+06
 0.96499992E+02 -0.22836E+06
 0.96549995E+02 -0.24683E+06
 0.96599991E+02 -0.27859E+06
 0.96649994E+02 -0.31769E+06
 0.96699997E+02 -0.36381E+06
 0.96749992E+02 -0.41210E+06
 0.96799995E+02 -0.44144E+06
 0.96849991E+02 -0.43246E+06
 0.96899994E+02 -0.38704E+06
 0.96949997E+02 -0.31386E+06
 0.96999992E+02 -0.22478E+06
 0.97049995E+02 -0.12805E+06
 0.97099991E+02 -0.25720E+05
 0.97149994E+02  0.70304E+05
 0.97199997E+02  0.15728E+06
 0.97249992E+02  0.24134E+06
 0.97299995E+02  0.31155E+06
 0.97349991E+02  0.36109E+06
 0.97399994E+02  0.39009E+06
 0.97449997E+02  0.39919E+06
 0.97499992E+02  0.39286E+06
 0.97549995E+02  0.36939E+06
 0.97599991E+02  0.32752E+06
 0.97649994E+02  0.27609E+06
 0.97699997E+02  0.23320E+06
 0.97749992E+02  0.20911E+06
 0.97799995E+02  0.20363E+06
 0.97849991E+02  0.21554E+06
 0.97899994E+02  0.24803E+06
 0.97949997E+02  0.29760E+06
 0.97999992E+02  0.35536E+06
