-0.20000000E+01  0.44413E+04
-0.19500000E+01  0.21737E+04
-0.19000000E+01  0.50820E+03
-0.18500000E+01 -0.10226E+04
-0.18000000E+01 -0.24109E+04
-0.17500000E+01 -0.36350E+04
-0.17000000E+01 -0.46212E+04
-0.16500001E+01 -0.54988E+04
-0.16000000E+01 -0.65562E+04
-0.15500000E+01 -0.79767E+04
-0.15000000E+01 -0.94700E+04
-0.14500000E+01 -0.10686E+05
-0.14000001E+01 -0.11683E+05
-0.13500000E+01 -0.12689E+05
-0.13000001E+01 -0.13391E+05
-0.12500000E+01 -0.14094E+05
-0.12000000E+01 -0.15404E+05
-0.11500001E+01 -0.16993E+05
-0.11000000E+01 -0.18848E+05
-0.10500001E+01 -0.20802E+05
-0.10000000E+01 -0.22327E+05
-0.95000005E+00 -0.23357E+05
-0.90000010E+00 -0.24176E+05
-0.85000002E+00 -0.25004E+05
-0.80000007E+00 -0.25619E+05
-0.75000012E+00 -0.25800E+05
-0.70000005E+00 -0.26006E+05
-0.65000010E+00 -0.25767E+05
-0.60000014E+00 -0.24588E+05
-0.55000007E+00 -0.22928E+05
-0.50000012E+00 -0.20820E+05
-0.45000005E+00 -0.18489E+05
-0.40000010E+00 -0.16269E+05
-0.35000014E+00 -0.14059E+05
-0.30000007E+00 -0.11781E+05
-0.25000012E+00 -0.94747E+04
-0.20000005E+00 -0.71170E+04
-0.15000010E+00 -0.46777E+04
-0.10000014E+00 -0.20970E+04
-0.50000072E-01  0.47369E+03
-0.11920929E-06  0.29081E+04
 0.49999952E-01  0.49590E+04
 0.99999905E-01  0.64982E+04
 0.14999986E+00  0.76742E+04
 0.19999981E+00  0.88023E+04
 0.24999976E+00  0.10273E+05
 0.29999995E+00  0.12074E+05
 0.34999990E+00  0.13902E+05
 0.39999986E+00  0.15589E+05
 0.44999981E+00  0.17154E+05
 0.49999976E+00  0.18475E+05
 0.54999995E+00  0.19437E+05
 0.59999990E+00  0.20324E+05
 0.64999986E+00  0.21423E+05
 0.69999981E+00  0.22130E+05
 0.74999976E+00  0.22073E+05
 0.79999971E+00  0.21601E+05
 0.84999990E+00  0.20828E+05
 0.89999986E+00  0.19722E+05
 0.94999981E+00  0.18233E+05
 0.99999976E+00  0.17079E+05
 0.10499997E+01  0.16690E+05
 0.10999999E+01  0.16521E+05
 0.11499999E+01  0.16550E+05
 0.11999998E+01  0.16774E+05
 0.12499998E+01  0.16497E+05
 0.12999997E+01  0.15334E+05
 0.13499999E+01  0.13563E+05
 0.13999999E+01  0.11538E+05
 0.14499998E+01  0.93767E+04
 0.14999998E+01  0.73753E+04
 0.15499997E+01  0.59745E+04
 0.15999999E+01  0.50505E+04
 0.16499999E+01  0.44614E+04
 0.16999998E+01  0.41381E+04
 0.17499998E+01  0.38699E+04
 0.17999997E+01  0.35483E+04
 0.18499997E+01  0.30103E+04
 0.18999999E+01  0.23528E+04
 0.19499998E+01  0.20268E+04
 0.19999998E+01  0.17990E+04
 0.20499997E+01  0.15550E+04
 0.20999999E+01  0.15141E+04
 0.21499996E+01  0.13650E+04
 0.21999998E+01  0.10297E+04
 0.22499995E+01  0.62636E+03
 0.22999997E+01 -0.33029E+02
 0.23499999E+01 -0.78679E+03
 0.23999996E+01 -0.14861E+04
 0.24499998E+01 -0.24361E+04
 0.24999995E+01 -0.33365E+04
 0.25499997E+01 -0.40863E+04
 0.25999999E+01 -0.47472E+04
 0.26499996E+01 -0.51538E+04
 0.26999998E+01 -0.54047E+04
 0.27499995E+01 -0.55921E+04
 0.27999997E+01 -0.60401E+04
 0.28499999E+01 -0.69898E+04
 0.28999996E+01 -0.85392E+04
 0.29499998E+01 -0.10364E+05
 0.29999995E+01 -0.11747E+05
 0.30499997E+01 -0.12518E+05
 0.30999999E+01 -0.12901E+05
 0.31499996E+01 -0.12826E+05
 0.31999998E+01 -0.12067E+05
 0.32499995E+01 -0.10879E+05
 0.32999997E+01 -0.94087E+04
 0.33499999E+01 -0.75904E+04
 0.33999996E+01 -0.56103E+04
 0.34499998E+01 -0.37090E+04
 0.34999995E+01 -0.19793E+04
 0.35499997E+01 -0.33905E+03
 0.35999994E+01  0.13582E+04
 0.36499996E+01  0.30277E+04
 0.36999998E+01  0.47121E+04
 0.37499995E+01  0.65186E+04
 0.37999997E+01  0.80918E+04
 0.38499994E+01  0.94279E+04
 0.38999996E+01  0.10659E+05
 0.39499998E+01  0.11664E+05
 0.39999995E+01  0.12541E+05
 0.40499997E+01  0.13310E+05
 0.40999994E+01  0.14146E+05
 0.41499996E+01  0.15101E+05
 0.41999998E+01  0.16035E+05
 0.42499995E+01  0.17135E+05
 0.42999997E+01  0.18330E+05
 0.43499994E+01  0.19190E+05
 0.43999996E+01  0.19589E+05
 0.44499998E+01  0.19606E+05
 0.44999995E+01  0.19132E+05
 0.45499997E+01  0.18125E+05
 0.45999994E+01  0.16632E+05
 0.46499996E+01  0.14860E+05
 0.46999998E+01  0.12699E+05
 0.47499995E+01  0.98349E+04
 0.47999997E+01  0.63707E+04
 0.48499994E+01  0.26799E+04
 0.48999996E+01 -0.99179E+03
 0.49499998E+01 -0.46805E+04
 0.49999995E+01 -0.81455E+04
 0.50499997E+01 -0.11223E+05
 0.50999994E+01 -0.14023E+05
 0.51499996E+01 -0.16526E+05
 0.51999998E+01 -0.18663E+05
 0.52499995E+01 -0.20139E+05
 0.52999997E+01 -0.20960E+05
 0.53499994E+01 -0.21400E+05
 0.53999996E+01 -0.21262E+05
 0.54499993E+01 -0.20383E+05
 0.54999995E+01 -0.18797E+05
 0.55499997E+01 -0.16605E+05
 0.55999994E+01 -0.14048E+05
 0.56499996E+01 -0.11296E+05
 0.56999993E+01 -0.85251E+04
 0.57499995E+01 -0.60454E+04
 0.57999997E+01 -0.39976E+04
 0.58499994E+01 -0.22295E+04
 0.58999996E+01 -0.65701E+03
 0.59499993E+01  0.88832E+03
 0.59999995E+01  0.25839E+04
 0.60499992E+01  0.42695E+04
 0.60999994E+01  0.57618E+04
 0.61499996E+01  0.70710E+04
 0.61999998E+01  0.80202E+04
 0.62499990E+01  0.84499E+04
 0.62999992E+01  0.84363E+04
 0.63499994E+01  0.80062E+04
 0.63999996E+01  0.73716E+04
 0.64499998E+01  0.66543E+04
 0.64999990E+01  0.59176E+04
 0.65499992E+01  0.51299E+04
 0.65999994E+01  0.41273E+04
 0.66499996E+01  0.31145E+04
 0.66999998E+01  0.22585E+04
 0.67499990E+01  0.14584E+04
 0.67999992E+01  0.77635E+03
 0.68499994E+01  0.20928E+03
 0.68999996E+01 -0.23340E+03
 0.69499998E+01 -0.55019E+03
 0.69999990E+01 -0.88117E+03
 0.70499992E+01 -0.12403E+04
 0.70999994E+01 -0.15307E+04
 0.71499996E+01 -0.14473E+04
 0.71999998E+01 -0.11675E+04
 0.72499990E+01 -0.91480E+03
 0.72999992E+01 -0.61754E+03
 0.73499994E+01 -0.82574E+03
 0.73999996E+01 -0.15266E+04
 0.74499998E+01 -0.21970E+04
 0.74999990E+01 -0.29501E+04
 0.75499992E+01 -0.38734E+04
 0.75999994E+01 -0.46250E+04
 0.76499996E+01 -0.51288E+04
 0.76999998E+01 -0.55144E+04
 0.77499990E+01 -0.59279E+04
 0.77999992E+01 -0.65721E+04
 0.78499994E+01 -0.73724E+04
 0.78999996E+01 -0.82808E+04
 0.79499998E+01 -0.92361E+04
 0.79999990E+01 -0.10209E+05
 0.80499992E+01 -0.10964E+05
 0.80999994E+01 -0.11552E+05
 0.81499996E+01 -0.12168E+05
 0.81999998E+01 -0.12607E+05
 0.82499990E+01 -0.12835E+05
 0.82999992E+01 -0.12899E+05
 0.83499994E+01 -0.12657E+05
 0.83999996E+01 -0.12202E+05
 0.84499998E+01 -0.11472E+05
 0.84999990E+01 -0.10396E+05
 0.85499992E+01 -0.92388E+04
 0.85999994E+01 -0.77820E+04
 0.86499996E+01 -0.59638E+04
 0.86999998E+01 -0.38939E+04
 0.87499990E+01 -0.13982E+04
 0.87999992E+01  0.13271E+04
 0.88499994E+01  0.40244E+04
 0.88999996E+01  0.68709E+04
 0.89499998E+01  0.97436E+04
 0.89999990E+01  0.12635E+05
 0.90499992E+01  0.15719E+05
 0.90999994E+01  0.18717E+05
 0.91499996E+01  0.21412E+05
 0.91999989E+01  0.23725E+05
 0.92499990E+01  0.25479E+05
 0.92999992E+01  0.26430E+05
 0.93499994E+01  0.26551E+05
 0.93999996E+01  0.26110E+05
 0.94499989E+01  0.25471E+05
 0.94999990E+01  0.24567E+05
 0.95499992E+01  0.23291E+05
 0.95999994E+01  0.21950E+05
 0.96499996E+01  0.20629E+05
 0.96999989E+01  0.19346E+05
 0.97499990E+01  0.18042E+05
 0.97999992E+01  0.16637E+05
 0.98499994E+01  0.15212E+05
 0.98999996E+01  0.13772E+05
 0.99499989E+01  0.12301E+05
 0.99999990E+01  0.11040E+05
 0.10049999E+02  0.10172E+05
 0.10099999E+02  0.96949E+04
 0.10150000E+02  0.94614E+04
 0.10199999E+02  0.93084E+04
 0.10249999E+02  0.91168E+04
 0.10299999E+02  0.87821E+04
 0.10349999E+02  0.84598E+04
 0.10400000E+02  0.80100E+04
 0.10449999E+02  0.74842E+04
 0.10499999E+02  0.69774E+04
 0.10549999E+02  0.62098E+04
 0.10599999E+02  0.54033E+04
 0.10650000E+02  0.46980E+04
 0.10699999E+02  0.35799E+04
 0.10749999E+02  0.23417E+04
 0.10799999E+02  0.13120E+04
 0.10849999E+02  0.26138E+03
 0.10900000E+02 -0.64986E+03
 0.10949999E+02 -0.14180E+04
 0.10999999E+02 -0.19982E+04
 0.11049999E+02 -0.27899E+04
 0.11099999E+02 -0.38845E+04
 0.11150000E+02 -0.47826E+04
 0.11199999E+02 -0.53334E+04
 0.11249999E+02 -0.56986E+04
 0.11299999E+02 -0.59606E+04
 0.11349999E+02 -0.60820E+04
 0.11400000E+02 -0.61321E+04
 0.11449999E+02 -0.63478E+04
 0.11499999E+02 -0.68282E+04
 0.11549999E+02 -0.73024E+04
 0.11599999E+02 -0.77294E+04
 0.11650000E+02 -0.80989E+04
 0.11699999E+02 -0.83433E+04
 0.11749999E+02 -0.84348E+04
 0.11799999E+02 -0.84911E+04
 0.11849999E+02 -0.84729E+04
 0.11900000E+02 -0.83697E+04
 0.11949999E+02 -0.82084E+04
 0.11999999E+02 -0.80536E+04
 0.12049999E+02 -0.75816E+04
 0.12099999E+02 -0.71813E+04
 0.12150000E+02 -0.70487E+04
 0.12199999E+02 -0.69072E+04
 0.12249999E+02 -0.66756E+04
 0.12299999E+02 -0.63871E+04
 0.12349999E+02 -0.58729E+04
 0.12400000E+02 -0.53663E+04
 0.12449999E+02 -0.44173E+04
 0.12499999E+02 -0.30436E+04
 0.12549999E+02 -0.18124E+04
 0.12599999E+02 -0.44506E+03
 0.12649999E+02  0.40927E+03
 0.12699999E+02  0.12038E+04
 0.12749999E+02  0.12398E+04
 0.12799999E+02  0.14252E+04
 0.12849999E+02  0.90775E+03
 0.12899999E+02  0.89249E+03
 0.12949999E+02  0.38040E+04
 0.12999999E+02  0.17708E+05
 0.13049999E+02  0.31646E+05
 0.13099999E+02  0.42727E+05
 0.13149999E+02  0.55140E+05
 0.13199999E+02  0.52661E+05
 0.13249999E+02  0.45615E+05
 0.13299999E+02  0.44878E+05
 0.13349999E+02  0.40844E+05
 0.13399999E+02  0.11513E+05
 0.13449999E+02 -0.95806E+03
 0.13499999E+02 -0.24696E+05
 0.13549999E+02 -0.54404E+05
 0.13599999E+02 -0.58125E+05
 0.13649999E+02 -0.43541E+05
 0.13699999E+02  0.67243E+04
 0.13749999E+02  0.67304E+05
 0.13799999E+02  0.15133E+06
 0.13849999E+02  0.24031E+06
 0.13899999E+02  0.29886E+06
 0.13949999E+02  0.27764E+06
 0.13999999E+02  0.14369E+06
 0.14049999E+02  0.75384E+05
 0.14099998E+02  0.21165E+06
 0.14150000E+02  0.15710E+06
 0.14199999E+02  0.89718E+05
 0.14249998E+02  0.21372E+06
 0.14299999E+02  0.18011E+06
 0.14349998E+02 -0.82420E+05
 0.14400000E+02 -0.30943E+06
 0.14449999E+02 -0.25198E+06
 0.14499998E+02 -0.10764E+06
 0.14549999E+02 -0.17850E+06
 0.14599998E+02 -0.38423E+06
 0.14650000E+02 -0.14546E+06
 0.14699999E+02 -0.27702E+05
 0.14749998E+02 -0.22162E+06
 0.14799999E+02 -0.96400E+05
 0.14849998E+02  0.16909E+06
 0.14900000E+02  0.21346E+06
 0.14949999E+02  0.23564E+04
 0.14999998E+02 -0.78334E+05
 0.15049999E+02  0.51760E+04
 0.15099998E+02  0.22965E+05
 0.15150000E+02 -0.89793E+04
 0.15199999E+02 -0.94618E+05
 0.15249998E+02 -0.10615E+06
 0.15299999E+02 -0.63434E+05
 0.15349998E+02 -0.14974E+06
 0.15400000E+02 -0.79194E+05
 0.15449999E+02 -0.79815E+05
 0.15499998E+02 -0.25054E+06
 0.15549999E+02 -0.29060E+06
 0.15599998E+02 -0.84389E+05
 0.15650000E+02  0.70015E+05
 0.15699999E+02 -0.52868E+05
 0.15749998E+02 -0.14975E+06
 0.15799999E+02 -0.20256E+06
 0.15849998E+02 -0.21834E+06
 0.15900000E+02 -0.15674E+06
 0.15949999E+02 -0.18765E+05
 0.15999998E+02  0.12774E+06
 0.16049999E+02  0.20618E+06
 0.16099998E+02  0.26862E+06
 0.16150000E+02  0.33765E+06
 0.16199999E+02  0.47008E+06
 0.16249998E+02  0.60602E+06
 0.16299999E+02  0.53225E+06
 0.16349998E+02  0.34928E+06
 0.16400000E+02  0.17702E+06
 0.16449999E+02  0.91080E+05
 0.16499998E+02  0.51824E+05
 0.16549999E+02 -0.86204E+04
 0.16599998E+02  0.41844E+04
 0.16650000E+02  0.50995E+05
 0.16699999E+02  0.61486E+05
 0.16749998E+02  0.12388E+06
 0.16799999E+02  0.22051E+06
 0.16849998E+02  0.18424E+06
 0.16900000E+02 -0.70500E+05
 0.16949999E+02 -0.17440E+06
 0.16999998E+02  0.60665E+05
 0.17049999E+02 -0.40358E+05
 0.17099998E+02 -0.95870E+05
 0.17150000E+02  0.11694E+06
 0.17199999E+02  0.49185E+05
 0.17249998E+02 -0.10075E+05
 0.17299999E+02  0.63755E+03
 0.17349998E+02  0.64456E+05
 0.17400000E+02 -0.12566E+05
 0.17449999E+02 -0.20921E+06
 0.17499998E+02 -0.32341E+06
 0.17549999E+02 -0.30330E+06
 0.17599998E+02 -0.27358E+06
 0.17650000E+02 -0.33030E+06
 0.17699999E+02 -0.27709E+06
 0.17749998E+02 -0.25096E+06
 0.17799999E+02 -0.26817E+06
 0.17849998E+02 -0.20369E+06
 0.17900000E+02 -0.99331E+05
 0.17949999E+02 -0.15216E+06
 0.17999998E+02 -0.28001E+06
 0.18049999E+02 -0.41099E+06
 0.18099998E+02 -0.29209E+06
 0.18150000E+02 -0.12565E+06
 0.18199999E+02 -0.20239E+06
 0.18249998E+02 -0.25024E+06
 0.18299999E+02 -0.14647E+06
 0.18349998E+02  0.11089E+06
 0.18400000E+02  0.22745E+06
 0.18449999E+02  0.18533E+06
 0.18499998E+02  0.28858E+06
 0.18549999E+02  0.42147E+06
 0.18599998E+02  0.24058E+06
 0.18650000E+02  0.99481E+05
 0.18699999E+02  0.19690E+06
 0.18749998E+02  0.17958E+06
 0.18799999E+02 -0.10712E+06
 0.18849998E+02 -0.20806E+06
 0.18900000E+02 -0.46177E+04
 0.18949999E+02  0.17581E+06
 0.18999998E+02  0.20507E+06
 0.19049999E+02  0.19298E+06
 0.19099998E+02  0.45949E+06
 0.19150000E+02  0.47158E+06
 0.19199999E+02  0.21731E+06
 0.19249998E+02  0.21220E+06
 0.19299999E+02  0.18222E+06
 0.19349998E+02 -0.15398E+05
 0.19400000E+02  0.11644E+05
 0.19449999E+02  0.24690E+06
 0.19499998E+02  0.20541E+06
 0.19549999E+02  0.10363E+06
 0.19599998E+02  0.21964E+06
 0.19650000E+02  0.23074E+06
 0.19699999E+02  0.52896E+05
 0.19749998E+02 -0.13808E+06
 0.19799999E+02 -0.17908E+06
 0.19849998E+02 -0.15244E+06
 0.19900000E+02 -0.26184E+06
 0.19949999E+02 -0.36175E+06
 0.19999998E+02 -0.26503E+06
 0.20049999E+02 -0.20910E+06
 0.20099998E+02 -0.11362E+06
 0.20150000E+02  0.12544E+06
 0.20199999E+02  0.29741E+06
 0.20249998E+02  0.31203E+06
 0.20299999E+02  0.15692E+06
 0.20349998E+02  0.13115E+06
 0.20399998E+02  0.78580E+05
 0.20449999E+02 -0.49749E+04
 0.20499998E+02  0.48091E+05
 0.20549999E+02  0.12153E+04
 0.20599998E+02  0.25701E+05
 0.20649998E+02  0.19211E+06
 0.20699999E+02  0.17624E+06
 0.20749998E+02  0.20017E+06
 0.20799999E+02  0.22357E+06
 0.20849998E+02  0.40247E+05
 0.20899998E+02 -0.17892E+06
 0.20949999E+02 -0.25074E+06
 0.20999998E+02  0.26337E+04
 0.21049999E+02  0.61617E+05
 0.21099998E+02  0.25508E+05
 0.21149998E+02  0.11658E+06
 0.21199999E+02  0.24485E+06
 0.21249998E+02  0.41699E+06
 0.21299999E+02  0.43710E+06
 0.21349998E+02  0.47098E+06
 0.21399998E+02  0.51514E+06
 0.21449999E+02  0.39137E+06
 0.21499998E+02  0.14683E+06
 0.21549999E+02  0.58579E+05
 0.21599998E+02 -0.18906E+06
 0.21649998E+02 -0.32442E+06
 0.21699999E+02 -0.26245E+06
 0.21749998E+02 -0.32319E+06
 0.21799999E+02 -0.28591E+06
 0.21849998E+02 -0.37622E+06
 0.21899998E+02 -0.31036E+06
 0.21949999E+02 -0.92924E+05
 0.21999998E+02 -0.74374E+05
 0.22049999E+02 -0.97972E+05
 0.22099998E+02 -0.52248E+05
 0.22149998E+02 -0.10728E+05
 0.22199999E+02 -0.10076E+06
 0.22249998E+02 -0.32326E+06
 0.22299999E+02 -0.37921E+06
 0.22349998E+02 -0.53104E+06
 0.22399998E+02 -0.68798E+06
 0.22449999E+02 -0.78695E+06
 0.22499998E+02 -0.10716E+07
 0.22549999E+02 -0.10298E+07
 0.22599998E+02 -0.98027E+06
 0.22649998E+02 -0.98621E+06
 0.22699999E+02 -0.92065E+06
 0.22749998E+02 -0.95307E+06
 0.22799999E+02 -0.77658E+06
 0.22849998E+02 -0.27998E+06
 0.22899998E+02  0.39681E+06
 0.22949999E+02  0.81723E+06
 0.22999998E+02  0.90767E+06
 0.23049999E+02  0.86831E+06
 0.23099998E+02  0.79820E+06
 0.23149998E+02  0.91236E+06
 0.23199999E+02  0.95169E+06
 0.23249998E+02  0.65941E+06
 0.23299999E+02  0.51291E+06
 0.23349998E+02  0.16382E+06
 0.23399998E+02 -0.18129E+06
 0.23449999E+02 -0.13665E+06
 0.23499998E+02  0.16183E+05
 0.23549999E+02  0.34583E+06
 0.23599998E+02  0.78067E+06
 0.23649998E+02  0.94705E+06
 0.23699999E+02  0.63654E+06
 0.23749998E+02  0.45546E+06
 0.23799999E+02  0.12770E+06
 0.23849998E+02 -0.15998E+06
 0.23899998E+02 -0.12840E+04
 0.23949999E+02 -0.29395E+06
 0.23999998E+02 -0.91694E+06
 0.24049999E+02 -0.15095E+07
 0.24099998E+02 -0.23480E+07
 0.24149998E+02 -0.28919E+07
 0.24199999E+02 -0.28060E+07
 0.24249998E+02 -0.22293E+07
 0.24299999E+02 -0.15130E+07
 0.24349998E+02 -0.10193E+07
 0.24399998E+02 -0.64333E+06
 0.24449999E+02 -0.23789E+06
 0.24499998E+02 -0.25373E+06
 0.24549999E+02 -0.32892E+06
 0.24599998E+02  0.79978E+05
 0.24649998E+02 -0.37484E+05
 0.24699999E+02 -0.31054E+06
 0.24749998E+02 -0.29444E+06
 0.24799999E+02 -0.16142E+06
 0.24849998E+02 -0.15000E+06
 0.24899998E+02  0.35866E+04
 0.24949999E+02  0.19435E+06
 0.24999998E+02 -0.96881E+05
 0.25049999E+02 -0.15551E+06
 0.25099998E+02 -0.19530E+06
 0.25149998E+02 -0.27520E+06
 0.25199999E+02 -0.30906E+06
 0.25249998E+02  0.68423E+05
 0.25299999E+02  0.50908E+06
 0.25349998E+02  0.45090E+06
 0.25399998E+02  0.55144E+06
 0.25449999E+02  0.92056E+06
 0.25499998E+02  0.75523E+06
 0.25549999E+02  0.44870E+06
 0.25599998E+02  0.79576E+06
 0.25649998E+02  0.94695E+06
 0.25699999E+02  0.76308E+06
 0.25749998E+02  0.37832E+06
 0.25799999E+02 -0.33382E+06
 0.25849998E+02 -0.60809E+06
 0.25899998E+02 -0.17255E+06
 0.25949999E+02  0.22708E+05
 0.25999998E+02 -0.20551E+06
 0.26049999E+02 -0.44904E+06
 0.26099998E+02 -0.56634E+06
 0.26149998E+02 -0.56929E+06
 0.26199999E+02 -0.57874E+06
 0.26249998E+02 -0.48497E+06
 0.26299999E+02 -0.58172E+06
 0.26349998E+02 -0.65101E+06
 0.26399998E+02 -0.58325E+06
 0.26449999E+02 -0.60002E+06
 0.26499998E+02 -0.64172E+06
 0.26549999E+02 -0.71495E+06
 0.26599998E+02 -0.42170E+06
 0.26649998E+02  0.77073E+04
 0.26699999E+02  0.47715E+06
 0.26749998E+02  0.51874E+06
 0.26799999E+02  0.25718E+06
 0.26849998E+02  0.51323E+06
 0.26899998E+02  0.55883E+06
 0.26949999E+02  0.24166E+06
 0.26999998E+02 -0.25246E+06
 0.27049997E+02 -0.78221E+06
 0.27099998E+02 -0.52550E+06
 0.27149998E+02  0.21755E+06
 0.27199999E+02  0.90650E+06
 0.27249998E+02  0.15068E+07
 0.27299997E+02  0.13395E+07
 0.27349998E+02  0.88177E+06
 0.27399998E+02  0.93041E+06
 0.27449999E+02  0.93990E+06
 0.27499998E+02  0.70724E+06
 0.27549997E+02  0.34695E+06
 0.27599998E+02 -0.10737E+06
 0.27649998E+02 -0.22060E+06
 0.27699999E+02 -0.21442E+06
 0.27749998E+02 -0.13767E+06
 0.27799997E+02  0.13066E+06
 0.27849998E+02 -0.20807E+06
 0.27899998E+02 -0.41967E+06
 0.27949999E+02  0.79585E+05
 0.27999998E+02  0.48335E+06
 0.28049997E+02  0.69731E+06
 0.28099998E+02  0.74862E+06
 0.28149998E+02  0.90469E+06
 0.28199999E+02  0.12077E+07
 0.28249998E+02  0.11464E+07
 0.28299997E+02  0.84737E+06
 0.28349998E+02  0.54806E+06
 0.28399998E+02  0.52035E+06
 0.28449999E+02  0.60860E+06
 0.28499998E+02  0.33198E+06
 0.28549997E+02  0.44397E+05
 0.28599998E+02  0.14684E+05
 0.28649998E+02  0.93189E+04
 0.28699999E+02 -0.83447E+05
 0.28749998E+02 -0.22345E+06
 0.28799997E+02 -0.48311E+06
 0.28849998E+02 -0.75225E+06
 0.28899998E+02 -0.94904E+06
 0.28949999E+02 -0.10858E+07
 0.28999998E+02 -0.10793E+07
 0.29049997E+02 -0.10125E+07
 0.29099998E+02 -0.70225E+06
 0.29149998E+02 -0.72064E+04
 0.29199999E+02  0.68430E+06
 0.29249998E+02  0.12498E+07
 0.29299997E+02  0.17210E+07
 0.29349998E+02  0.20386E+07
 0.29399998E+02  0.19747E+07
 0.29449999E+02  0.16898E+07
 0.29499998E+02  0.13843E+07
 0.29549997E+02  0.97566E+06
 0.29599998E+02  0.63765E+06
 0.29649998E+02  0.50759E+06
 0.29699999E+02  0.35884E+06
 0.29749998E+02  0.25795E+06
 0.29799997E+02  0.35523E+06
 0.29849998E+02  0.23862E+06
 0.29899998E+02  0.89509E+05
 0.29949999E+02  0.13576E+06
 0.29999998E+02  0.27206E+06
 0.30049999E+02  0.30561E+06
 0.30099998E+02  0.19157E+06
 0.30149998E+02  0.18311E+06
 0.30199997E+02  0.32432E+06
 0.30249996E+02  0.41452E+06
 0.30299999E+02  0.41732E+06
 0.30349998E+02  0.33822E+06
 0.30399998E+02  0.93187E+05
 0.30449997E+02 -0.13608E+06
 0.30499996E+02 -0.24003E+06
 0.30549999E+02 -0.25851E+06
 0.30599998E+02 -0.95953E+05
 0.30649998E+02  0.29095E+06
 0.30699997E+02  0.54975E+06
 0.30749996E+02  0.65048E+06
 0.30799999E+02  0.75380E+06
 0.30849998E+02  0.79193E+06
 0.30899998E+02  0.90281E+06
 0.30949997E+02  0.79279E+06
 0.30999996E+02  0.53061E+06
 0.31049999E+02  0.50473E+06
 0.31099998E+02  0.52825E+06
 0.31149998E+02  0.45637E+06
 0.31199997E+02  0.29959E+06
 0.31249996E+02  0.16191E+06
 0.31299999E+02 -0.58762E+05
 0.31349998E+02 -0.27635E+06
 0.31399998E+02 -0.48819E+06
 0.31449997E+02 -0.68482E+06
 0.31499996E+02 -0.63240E+06
 0.31549999E+02 -0.51970E+06
 0.31599998E+02 -0.36813E+06
 0.31649998E+02 -0.27586E+06
 0.31699997E+02 -0.24529E+06
 0.31749996E+02 -0.30700E+06
 0.31799999E+02 -0.39565E+06
 0.31849998E+02 -0.39797E+06
 0.31899998E+02 -0.39348E+06
 0.31949997E+02 -0.26865E+06
 0.31999996E+02 -0.17419E+06
 0.32049999E+02 -0.39205E+05
 0.32099998E+02  0.17514E+06
 0.32149998E+02  0.41362E+06
 0.32199997E+02  0.66550E+06
 0.32249996E+02  0.65912E+06
 0.32299999E+02  0.47959E+06
 0.32349998E+02  0.27028E+06
 0.32399998E+02  0.53401E+05
 0.32449997E+02 -0.88063E+04
 0.32499996E+02 -0.99188E+04
 0.32549999E+02 -0.13765E+06
 0.32599998E+02 -0.26968E+06
 0.32649998E+02 -0.26314E+06
 0.32699997E+02 -0.19574E+06
 0.32749996E+02 -0.20585E+06
 0.32799999E+02 -0.24212E+06
 0.32849998E+02 -0.17845E+06
 0.32899998E+02 -0.13862E+06
 0.32949997E+02 -0.40233E+05
 0.32999996E+02  0.14729E+05
 0.33049999E+02 -0.51008E+05
 0.33099998E+02 -0.92515E+05
 0.33149998E+02 -0.14832E+06
 0.33199997E+02 -0.27813E+06
 0.33249996E+02 -0.33217E+06
 0.33299999E+02 -0.34911E+06
 0.33349998E+02 -0.49369E+06
 0.33399998E+02 -0.58933E+06
 0.33449997E+02 -0.67704E+06
 0.33499996E+02 -0.70178E+06
 0.33549999E+02 -0.66813E+06
 0.33599998E+02 -0.69520E+06
 0.33649998E+02 -0.68926E+06
 0.33699997E+02 -0.68813E+06
 0.33749996E+02 -0.73557E+06
 0.33799999E+02 -0.70740E+06
 0.33849998E+02 -0.69450E+06
 0.33899998E+02 -0.75746E+06
 0.33949997E+02 -0.73319E+06
 0.33999996E+02 -0.75978E+06
 0.34049999E+02 -0.90803E+06
 0.34099998E+02 -0.97622E+06
 0.34149998E+02 -0.90470E+06
 0.34199997E+02 -0.74180E+06
 0.34249996E+02 -0.68736E+06
 0.34299999E+02 -0.63817E+06
 0.34349998E+02 -0.48898E+06
 0.34399998E+02 -0.42345E+06
 0.34449997E+02 -0.25732E+06
 0.34499996E+02 -0.48282E+03
 0.34549999E+02  0.13309E+06
 0.34599998E+02  0.15530E+06
 0.34649998E+02  0.13693E+06
 0.34699997E+02  0.17089E+06
 0.34749996E+02  0.12196E+06
 0.34799999E+02  0.42653E+05
 0.34849998E+02 -0.34481E+05
 0.34899998E+02 -0.14669E+06
 0.34949997E+02 -0.15939E+06
 0.34999996E+02 -0.72068E+05
 0.35049999E+02 -0.18271E+05
 0.35099998E+02 -0.68511E+04
 0.35149998E+02  0.39514E+04
 0.35199997E+02 -0.54719E+05
 0.35249996E+02 -0.66034E+05
 0.35299999E+02  0.34526E+05
 0.35349998E+02  0.17040E+06
 0.35399998E+02  0.22957E+06
 0.35449997E+02  0.26746E+06
 0.35499996E+02  0.29089E+06
 0.35549999E+02  0.27148E+06
 0.35599998E+02  0.27807E+06
 0.35649998E+02  0.34081E+06
 0.35699997E+02  0.41902E+06
 0.35749996E+02  0.57334E+06
 0.35799999E+02  0.64552E+06
 0.35849998E+02  0.59007E+06
 0.35899998E+02  0.53513E+06
 0.35949997E+02  0.39721E+06
 0.35999996E+02  0.30220E+06
 0.36049999E+02  0.28346E+06
 0.36099998E+02  0.24144E+06
 0.36149998E+02  0.22698E+06
 0.36199997E+02  0.43684E+06
 0.36249996E+02  0.68990E+06
 0.36299999E+02  0.64435E+06
 0.36349998E+02  0.49438E+06
 0.36399998E+02  0.37013E+06
 0.36449997E+02  0.12872E+06
 0.36499996E+02 -0.42424E+05
 0.36549999E+02 -0.99410E+05
 0.36599998E+02 -0.21181E+06
 0.36649998E+02 -0.31948E+06
 0.36699997E+02 -0.35309E+06
 0.36749996E+02 -0.31688E+06
 0.36799999E+02 -0.33718E+06
 0.36849998E+02 -0.41592E+06
 0.36899998E+02 -0.46958E+06
 0.36949997E+02 -0.52562E+06
 0.36999996E+02 -0.52194E+06
 0.37049999E+02 -0.47112E+06
 0.37099998E+02 -0.28724E+06
 0.37149998E+02 -0.57767E+05
 0.37199997E+02  0.10582E+06
 0.37249996E+02  0.29357E+06
 0.37299999E+02  0.37800E+06
 0.37349998E+02  0.34394E+06
 0.37399998E+02  0.21746E+06
 0.37449997E+02  0.11998E+06
 0.37499996E+02  0.15171E+06
 0.37549999E+02  0.18289E+06
 0.37599998E+02  0.13745E+06
 0.37649998E+02  0.50194E+05
 0.37699997E+02  0.16004E+05
 0.37749996E+02  0.96599E+05
 0.37799999E+02  0.19367E+06
 0.37849998E+02  0.17723E+06
 0.37899998E+02  0.10339E+06
 0.37949997E+02  0.11526E+05
 0.37999996E+02 -0.53828E+05
 0.38049999E+02 -0.11709E+06
 0.38099998E+02 -0.24367E+06
 0.38149998E+02 -0.36920E+06
 0.38199997E+02 -0.46594E+06
 0.38249996E+02 -0.52966E+06
 0.38299999E+02 -0.53571E+06
 0.38349998E+02 -0.51911E+06
 0.38399998E+02 -0.48815E+06
 0.38449997E+02 -0.42165E+06
 0.38499996E+02 -0.32948E+06
 0.38549999E+02 -0.14612E+06
 0.38599998E+02  0.10343E+06
 0.38649998E+02  0.34480E+06
 0.38699997E+02  0.47844E+06
 0.38749996E+02  0.47878E+06
 0.38799999E+02  0.48547E+06
 0.38849998E+02  0.48995E+06
 0.38899998E+02  0.43439E+06
 0.38949997E+02  0.34199E+06
 0.38999996E+02  0.19543E+06
 0.39049999E+02  0.17615E+05
 0.39099998E+02 -0.20440E+06
 0.39149998E+02 -0.34745E+06
 0.39199997E+02 -0.32662E+06
 0.39249996E+02 -0.30043E+06
 0.39299999E+02 -0.29382E+06
 0.39349998E+02 -0.28775E+06
 0.39399998E+02 -0.23407E+06
 0.39449997E+02 -0.15177E+06
 0.39499996E+02 -0.18219E+06
 0.39549999E+02 -0.23933E+06
 0.39599998E+02 -0.21480E+06
 0.39649998E+02 -0.20232E+06
 0.39699997E+02 -0.25696E+06
 0.39749996E+02 -0.23338E+06
 0.39799999E+02 -0.11948E+06
 0.39849998E+02 -0.12864E+05
 0.39899998E+02  0.11408E+06
 0.39949997E+02  0.17047E+06
 0.39999996E+02  0.20491E+06
 0.40049999E+02  0.26765E+06
 0.40099998E+02  0.25735E+06
 0.40149998E+02  0.19867E+06
 0.40199997E+02  0.11965E+06
 0.40249996E+02  0.51190E+05
 0.40299999E+02  0.47448E+05
 0.40349998E+02  0.49626E+05
 0.40399998E+02 -0.33952E+05
 0.40449997E+02 -0.99067E+05
 0.40499996E+02 -0.95295E+05
 0.40549999E+02 -0.61542E+05
 0.40599998E+02 -0.11918E+05
 0.40649998E+02 -0.10165E+05
 0.40699997E+02 -0.67736E+05
 0.40749996E+02 -0.12475E+06
 0.40799999E+02 -0.13203E+06
 0.40849998E+02 -0.10415E+06
 0.40899998E+02 -0.93820E+05
 0.40949997E+02 -0.15045E+06
 0.40999996E+02 -0.22867E+06
 0.41049999E+02 -0.26954E+06
 0.41099998E+02 -0.26099E+06
 0.41149998E+02 -0.22679E+06
 0.41199997E+02 -0.19747E+06
 0.41249996E+02 -0.93929E+05
 0.41299999E+02 -0.13920E+05
 0.41349998E+02 -0.29455E+05
 0.41399998E+02 -0.51233E+05
 0.41449997E+02 -0.63455E+05
 0.41499996E+02 -0.59297E+05
 0.41549999E+02 -0.32519E+05
 0.41599998E+02  0.60330E+05
 0.41649998E+02  0.16874E+06
 0.41699997E+02  0.17952E+06
 0.41749996E+02  0.13962E+06
 0.41799999E+02  0.18207E+06
 0.41849998E+02  0.22908E+06
 0.41899998E+02  0.25838E+06
 0.41949997E+02  0.32354E+06
 0.41999996E+02  0.35769E+06
 0.42049999E+02  0.34946E+06
 0.42099998E+02  0.37965E+06
 0.42149998E+02  0.40594E+06
 0.42199997E+02  0.37612E+06
 0.42249996E+02  0.33390E+06
 0.42299999E+02  0.23655E+06
 0.42349998E+02  0.14521E+06
 0.42399998E+02  0.10108E+06
 0.42449997E+02  0.10631E+06
 0.42499996E+02  0.17343E+06
 0.42549999E+02  0.22906E+06
 0.42599998E+02  0.27374E+06
 0.42649998E+02  0.32795E+06
 0.42699997E+02  0.39502E+06
 0.42749996E+02  0.41008E+06
 0.42799995E+02  0.31490E+06
 0.42849998E+02  0.13004E+06
 0.42899998E+02 -0.99338E+05
 0.42949997E+02 -0.30394E+06
 0.42999996E+02 -0.46065E+06
 0.43049995E+02 -0.55557E+06
 0.43099998E+02 -0.59472E+06
 0.43149998E+02 -0.59237E+06
 0.43199997E+02 -0.53378E+06
 0.43249996E+02 -0.43334E+06
 0.43299995E+02 -0.35815E+06
 0.43349998E+02 -0.30362E+06
 0.43399998E+02 -0.21907E+06
 0.43449997E+02 -0.11992E+06
 0.43499996E+02 -0.11998E+05
 0.43549995E+02  0.11952E+06
 0.43599998E+02  0.27859E+06
 0.43649998E+02  0.38755E+06
 0.43699997E+02  0.38203E+06
 0.43749996E+02  0.31328E+06
 0.43799995E+02  0.22267E+06
 0.43849998E+02  0.13649E+06
 0.43899998E+02  0.91041E+05
 0.43949997E+02  0.30719E+05
 0.43999996E+02 -0.50957E+05
 0.44049995E+02 -0.78303E+05
 0.44099998E+02 -0.83938E+05
 0.44149998E+02 -0.12591E+06
 0.44199997E+02 -0.25463E+06
 0.44249996E+02 -0.42701E+06
 0.44299995E+02 -0.54741E+06
 0.44349998E+02 -0.60818E+06
 0.44399998E+02 -0.67563E+06
 0.44449997E+02 -0.72110E+06
 0.44499996E+02 -0.72412E+06
 0.44549995E+02 -0.69305E+06
 0.44599998E+02 -0.66482E+06
 0.44649998E+02 -0.63170E+06
 0.44699997E+02 -0.52215E+06
 0.44749996E+02 -0.38755E+06
 0.44799995E+02 -0.27428E+06
 0.44849998E+02 -0.17795E+06
 0.44899998E+02 -0.71665E+05
 0.44949997E+02 -0.25391E+03
 0.44999996E+02  0.48172E+05
 0.45049995E+02  0.80815E+05
 0.45099998E+02  0.12969E+06
 0.45149998E+02  0.23409E+06
 0.45199997E+02  0.31784E+06
 0.45249996E+02  0.36304E+06
 0.45299995E+02  0.38792E+06
 0.45349998E+02  0.39824E+06
 0.45399998E+02  0.42594E+06
 0.45449997E+02  0.47776E+06
 0.45499996E+02  0.49429E+06
 0.45549995E+02  0.49238E+06
 0.45599998E+02  0.50050E+06
 0.45649998E+02  0.49880E+06
 0.45699997E+02  0.51115E+06
 0.45749996E+02  0.48666E+06
 0.45799995E+02  0.41560E+06
 0.45849998E+02  0.35425E+06
 0.45899998E+02  0.29872E+06
 0.45949997E+02  0.27813E+06
 0.45999996E+02  0.28752E+06
 0.46049995E+02  0.30504E+06
 0.46099998E+02  0.33097E+06
 0.46149998E+02  0.35421E+06
 0.46199997E+02  0.35483E+06
 0.46249996E+02  0.34118E+06
 0.46299995E+02  0.32163E+06
 0.46349998E+02  0.26167E+06
 0.46399998E+02  0.19739E+06
 0.46449997E+02  0.15958E+06
 0.46499996E+02  0.12681E+06
 0.46549995E+02  0.91659E+05
 0.46599998E+02  0.85670E+05
 0.46649998E+02  0.13297E+06
 0.46699997E+02  0.15390E+06
 0.46749996E+02  0.13897E+06
 0.46799995E+02  0.11550E+06
 0.46849998E+02  0.62192E+05
 0.46899998E+02  0.21251E+05
 0.46949997E+02 -0.17008E+05
 0.46999996E+02 -0.74389E+05
 0.47049995E+02 -0.10812E+06
 0.47099998E+02 -0.14304E+06
 0.47149998E+02 -0.19438E+06
 0.47199997E+02 -0.18949E+06
 0.47249996E+02 -0.11724E+06
 0.47299995E+02 -0.48321E+05
 0.47349998E+02  0.48399E+04
 0.47399998E+02  0.37071E+05
 0.47449997E+02  0.71688E+05
 0.47499996E+02  0.94599E+05
 0.47549995E+02  0.51085E+05
 0.47599998E+02 -0.66819E+04
 0.47649998E+02 -0.11781E+05
 0.47699997E+02  0.73362E+05
 0.47749996E+02  0.17140E+06
 0.47799995E+02  0.20634E+06
 0.47849998E+02  0.22825E+06
 0.47899998E+02  0.23878E+06
 0.47949997E+02  0.22467E+06
 0.47999996E+02  0.20098E+06
 0.48049995E+02  0.16451E+06
 0.48099998E+02  0.12385E+06
 0.48149998E+02  0.37796E+05
 0.48199997E+02 -0.72408E+05
 0.48249996E+02 -0.16468E+06
 0.48299995E+02 -0.25921E+06
 0.48349998E+02 -0.31593E+06
 0.48399998E+02 -0.35951E+06
 0.48449997E+02 -0.42475E+06
 0.48499996E+02 -0.46433E+06
 0.48549995E+02 -0.47109E+06
 0.48599998E+02 -0.46539E+06
 0.48649998E+02 -0.46331E+06
 0.48699997E+02 -0.44130E+06
 0.48749996E+02 -0.39076E+06
 0.48799995E+02 -0.31415E+06
 0.48849998E+02 -0.22845E+06
 0.48899998E+02 -0.18524E+06
 0.48949997E+02 -0.19104E+06
 0.48999996E+02 -0.22714E+06
 0.49049995E+02 -0.25578E+06
 0.49099998E+02 -0.26555E+06
 0.49149998E+02 -0.23522E+06
 0.49199997E+02 -0.15660E+06
 0.49249996E+02 -0.66627E+05
 0.49299995E+02  0.26728E+05
 0.49349998E+02  0.12184E+06
 0.49399998E+02  0.21318E+06
 0.49449997E+02  0.25777E+06
 0.49499996E+02  0.24784E+06
 0.49549995E+02  0.22473E+06
 0.49599998E+02  0.19004E+06
 0.49649998E+02  0.16189E+06
 0.49699997E+02  0.12579E+06
 0.49749996E+02  0.73757E+05
 0.49799995E+02  0.34052E+05
 0.49849998E+02  0.25781E+05
 0.49899998E+02  0.77775E+05
 0.49949997E+02  0.16924E+06
 0.49999996E+02  0.28617E+06
 0.50049995E+02  0.40244E+06
 0.50099998E+02  0.47150E+06
 0.50149998E+02  0.49083E+06
 0.50199997E+02  0.46093E+06
 0.50249996E+02  0.38904E+06
 0.50299995E+02  0.25877E+06
 0.50349998E+02  0.93470E+05
 0.50399998E+02 -0.25858E+05
 0.50449997E+02 -0.84147E+05
 0.50499996E+02 -0.91520E+05
 0.50549995E+02 -0.83673E+05
 0.50599998E+02 -0.76874E+05
 0.50649998E+02 -0.64618E+05
 0.50699997E+02 -0.92383E+05
 0.50749996E+02 -0.12922E+06
 0.50799995E+02 -0.16275E+06
 0.50849998E+02 -0.20994E+06
 0.50899998E+02 -0.26674E+06
 0.50949997E+02 -0.32712E+06
 0.50999996E+02 -0.35758E+06
 0.51049995E+02 -0.38841E+06
 0.51099998E+02 -0.43325E+06
 0.51149998E+02 -0.47462E+06
 0.51199997E+02 -0.49751E+06
 0.51249996E+02 -0.48410E+06
 0.51299995E+02 -0.43769E+06
 0.51349998E+02 -0.37551E+06
 0.51399998E+02 -0.32271E+06
 0.51449997E+02 -0.27576E+06
 0.51499996E+02 -0.23105E+06
 0.51549995E+02 -0.19938E+06
 0.51599998E+02 -0.15709E+06
 0.51649998E+02 -0.87404E+05
 0.51699997E+02  0.10714E+04
 0.51749996E+02  0.81027E+05
 0.51799995E+02  0.14948E+06
 0.51849998E+02  0.19015E+06
 0.51899998E+02  0.20765E+06
 0.51949997E+02  0.19865E+06
 0.51999996E+02  0.16892E+06
 0.52049995E+02  0.16499E+06
 0.52099998E+02  0.16401E+06
 0.52149998E+02  0.14539E+06
 0.52199997E+02  0.13968E+06
 0.52249996E+02  0.16934E+06
 0.52299995E+02  0.19769E+06
 0.52349998E+02  0.19270E+06
 0.52399998E+02  0.15039E+06
 0.52449997E+02  0.97837E+05
 0.52499996E+02  0.35022E+05
 0.52549995E+02 -0.25699E+05
 0.52599998E+02 -0.94931E+05
 0.52649998E+02 -0.16441E+06
 0.52699997E+02 -0.18171E+06
 0.52749996E+02 -0.15974E+06
 0.52799995E+02 -0.80268E+05
 0.52849998E+02  0.37809E+05
 0.52899998E+02  0.16038E+06
 0.52949997E+02  0.25363E+06
 0.52999996E+02  0.28961E+06
 0.53049995E+02  0.30981E+06
 0.53099998E+02  0.34937E+06
 0.53149998E+02  0.40065E+06
 0.53199997E+02  0.41968E+06
 0.53249996E+02  0.38977E+06
 0.53299995E+02  0.34339E+06
 0.53349998E+02  0.31935E+06
 0.53399998E+02  0.32392E+06
 0.53449997E+02  0.29920E+06
 0.53499996E+02  0.21802E+06
 0.53549995E+02  0.11172E+06
 0.53599998E+02  0.22318E+04
 0.53649998E+02 -0.79633E+05
 0.53699997E+02 -0.10893E+06
 0.53749996E+02 -0.11000E+06
 0.53799995E+02 -0.10471E+06
 0.53849998E+02 -0.89634E+05
 0.53899998E+02 -0.71881E+05
 0.53949997E+02 -0.44425E+05
 0.53999996E+02 -0.14721E+05
 0.54049995E+02  0.10825E+04
 0.54099998E+02  0.84968E+04
 0.54149998E+02  0.22979E+05
 0.54199997E+02  0.42320E+05
 0.54249996E+02  0.48257E+05
 0.54299995E+02  0.36808E+05
 0.54349998E+02 -0.48594E+04
 0.54399998E+02 -0.64814E+05
 0.54449997E+02 -0.10861E+06
 0.54499996E+02 -0.12816E+06
 0.54549995E+02 -0.12367E+06
 0.54599998E+02 -0.89807E+05
 0.54649998E+02 -0.36418E+04
 0.54699997E+02  0.11778E+06
 0.54749996E+02  0.23599E+06
 0.54799995E+02  0.32666E+06
 0.54849998E+02  0.35760E+06
 0.54899998E+02  0.34454E+06
 0.54949997E+02  0.31747E+06
 0.54999996E+02  0.27616E+06
 0.55049995E+02  0.20311E+06
 0.55099998E+02  0.11494E+06
 0.55149998E+02  0.24278E+05
 0.55199997E+02 -0.80395E+05
 0.55249996E+02 -0.18333E+06
 0.55299995E+02 -0.27703E+06
 0.55349998E+02 -0.34871E+06
 0.55399998E+02 -0.38982E+06
 0.55449997E+02 -0.41010E+06
 0.55499996E+02 -0.41785E+06
 0.55549995E+02 -0.41948E+06
 0.55599998E+02 -0.42953E+06
 0.55649998E+02 -0.43657E+06
 0.55699997E+02 -0.42787E+06
 0.55749996E+02 -0.39540E+06
 0.55799995E+02 -0.33459E+06
 0.55849995E+02 -0.26043E+06
 0.55899998E+02 -0.18419E+06
 0.55949997E+02 -0.11136E+06
 0.55999996E+02 -0.40642E+05
 0.56049995E+02  0.17896E+05
 0.56099995E+02  0.63765E+05
 0.56149998E+02  0.94432E+05
 0.56199997E+02  0.12629E+06
 0.56249996E+02  0.17909E+06
 0.56299995E+02  0.24124E+06
 0.56349995E+02  0.29770E+06
 0.56399998E+02  0.33741E+06
 0.56449997E+02  0.35307E+06
 0.56499996E+02  0.34171E+06
 0.56549995E+02  0.32706E+06
 0.56599995E+02  0.32692E+06
 0.56649998E+02  0.33402E+06
 0.56699997E+02  0.33521E+06
 0.56749996E+02  0.30938E+06
 0.56799995E+02  0.25657E+06
 0.56849995E+02  0.20311E+06
 0.56899998E+02  0.15349E+06
 0.56949997E+02  0.11515E+06
 0.56999996E+02  0.78252E+05
 0.57049995E+02  0.42742E+05
 0.57099995E+02  0.20930E+05
 0.57149998E+02 -0.12741E+04
 0.57199997E+02 -0.30604E+05
 0.57249996E+02 -0.79009E+05
 0.57299995E+02 -0.13159E+06
 0.57349995E+02 -0.18750E+06
 0.57399998E+02 -0.24386E+06
 0.57449997E+02 -0.28090E+06
 0.57499996E+02 -0.31274E+06
 0.57549995E+02 -0.32440E+06
 0.57599995E+02 -0.30288E+06
 0.57649998E+02 -0.26384E+06
 0.57699997E+02 -0.20696E+06
 0.57749996E+02 -0.14781E+06
 0.57799995E+02 -0.10053E+06
 0.57849995E+02 -0.69118E+05
 0.57899998E+02 -0.39129E+05
 0.57949997E+02 -0.21813E+05
 0.57999996E+02 -0.34151E+05
 0.58049995E+02 -0.51987E+05
 0.58099995E+02 -0.73952E+05
 0.58149998E+02 -0.98296E+05
 0.58199997E+02 -0.10008E+06
 0.58249996E+02 -0.67298E+05
 0.58299995E+02 -0.21197E+05
 0.58349995E+02  0.36111E+05
 0.58399998E+02  0.10681E+06
 0.58449997E+02  0.15865E+06
 0.58499996E+02  0.18670E+06
 0.58549995E+02  0.19925E+06
 0.58599995E+02  0.19664E+06
 0.58649998E+02  0.17825E+06
 0.58699997E+02  0.15772E+06
 0.58749996E+02  0.13777E+06
 0.58799995E+02  0.90370E+05
 0.58849995E+02  0.10245E+05
 0.58899998E+02 -0.91608E+05
 0.58949997E+02 -0.19481E+06
 0.58999996E+02 -0.29050E+06
 0.59049995E+02 -0.36913E+06
 0.59099995E+02 -0.42708E+06
 0.59149998E+02 -0.47207E+06
 0.59199997E+02 -0.48047E+06
 0.59249996E+02 -0.45100E+06
 0.59299995E+02 -0.40572E+06
 0.59349995E+02 -0.36381E+06
 0.59399998E+02 -0.32012E+06
 0.59449997E+02 -0.26761E+06
 0.59499996E+02 -0.21889E+06
 0.59549995E+02 -0.17951E+06
 0.59599995E+02 -0.15178E+06
 0.59649998E+02 -0.13346E+06
 0.59699997E+02 -0.12350E+06
 0.59749996E+02 -0.11042E+06
 0.59799995E+02 -0.84169E+05
 0.59849995E+02 -0.48846E+05
 0.59899998E+02 -0.20645E+05
 0.59949997E+02  0.65585E+04
 0.59999996E+02  0.43232E+05
 0.60049995E+02  0.87991E+05
 0.60099995E+02  0.13402E+06
 0.60149998E+02  0.16820E+06
 0.60199997E+02  0.19042E+06
 0.60249996E+02  0.20173E+06
 0.60299995E+02  0.21397E+06
 0.60349995E+02  0.22934E+06
 0.60399998E+02  0.24449E+06
 0.60449997E+02  0.26158E+06
 0.60499996E+02  0.26786E+06
 0.60549995E+02  0.26299E+06
 0.60599995E+02  0.26950E+06
 0.60649998E+02  0.30419E+06
 0.60699997E+02  0.35180E+06
 0.60749996E+02  0.39695E+06
 0.60799995E+02  0.41972E+06
 0.60849995E+02  0.40050E+06
 0.60899998E+02  0.35333E+06
 0.60949997E+02  0.28182E+06
 0.60999996E+02  0.20045E+06
 0.61049995E+02  0.12493E+06
 0.61099995E+02  0.48704E+05
 0.61149998E+02 -0.23086E+05
 0.61199997E+02 -0.88166E+05
 0.61249996E+02 -0.14303E+06
 0.61299995E+02 -0.17772E+06
 0.61349995E+02 -0.19272E+06
 0.61399998E+02 -0.20726E+06
 0.61449997E+02 -0.22399E+06
 0.61499996E+02 -0.23040E+06
 0.61549995E+02 -0.22696E+06
 0.61599995E+02 -0.20952E+06
 0.61649998E+02 -0.17497E+06
 0.61699997E+02 -0.13686E+06
 0.61749996E+02 -0.10119E+06
 0.61799995E+02 -0.58195E+05
 0.61849995E+02 -0.13823E+05
 0.61899998E+02  0.21504E+05
 0.61949997E+02  0.51355E+05
 0.61999996E+02  0.75423E+05
 0.62049995E+02  0.97502E+05
 0.62099998E+02  0.11188E+06
 0.62149994E+02  0.10589E+06
 0.62199997E+02  0.82537E+05
 0.62249992E+02  0.43819E+05
 0.62299995E+02  0.48442E+04
 0.62349998E+02 -0.24408E+05
 0.62399994E+02 -0.41283E+05
 0.62449997E+02 -0.35047E+05
 0.62499992E+02 -0.67023E+04
 0.62549995E+02  0.30519E+05
 0.62599998E+02  0.68956E+05
 0.62649994E+02  0.11522E+06
 0.62699997E+02  0.16802E+06
 0.62749992E+02  0.22086E+06
 0.62799995E+02  0.27411E+06
 0.62849998E+02  0.31422E+06
 0.62899994E+02  0.33290E+06
 0.62949997E+02  0.33831E+06
 0.62999992E+02  0.32479E+06
 0.63049995E+02  0.28731E+06
 0.63099998E+02  0.21821E+06
 0.63149994E+02  0.13851E+06
 0.63199997E+02  0.72081E+05
 0.63249992E+02  0.25916E+05
 0.63299995E+02 -0.21677E+03
 0.63349998E+02 -0.23110E+05
 0.63399994E+02 -0.36581E+05
 0.63449997E+02 -0.35128E+05
 0.63499992E+02 -0.22581E+05
 0.63549995E+02 -0.12871E+05
 0.63599998E+02 -0.21925E+05
 0.63649994E+02 -0.39847E+05
 0.63699997E+02 -0.54195E+05
 0.63749992E+02 -0.82739E+05
 0.63799995E+02 -0.13195E+06
 0.63849998E+02 -0.18088E+06
 0.63899994E+02 -0.23016E+06
 0.63949997E+02 -0.28284E+06
 0.63999992E+02 -0.31765E+06
 0.64049995E+02 -0.31669E+06
 0.64099998E+02 -0.28489E+06
 0.64149994E+02 -0.23695E+06
 0.64199997E+02 -0.17200E+06
 0.64249992E+02 -0.95827E+05
 0.64299995E+02 -0.28661E+05
 0.64349998E+02  0.85250E+04
 0.64399994E+02  0.16556E+05
 0.64449997E+02  0.95074E+04
 0.64499992E+02 -0.98682E+04
 0.64549995E+02 -0.33876E+05
 0.64599998E+02 -0.62590E+05
 0.64649994E+02 -0.82559E+05
 0.64699997E+02 -0.84693E+05
 0.64749992E+02 -0.85874E+05
 0.64799995E+02 -0.79237E+05
 0.64849998E+02 -0.58977E+05
 0.64899994E+02 -0.39651E+05
 0.64949997E+02 -0.22343E+05
 0.64999992E+02  0.46746E+04
 0.65049995E+02  0.32922E+05
 0.65099998E+02  0.46123E+05
 0.65149994E+02  0.49016E+05
 0.65199997E+02  0.44295E+05
 0.65249992E+02  0.43560E+05
 0.65299995E+02  0.52753E+05
 0.65349998E+02  0.54203E+05
 0.65399994E+02  0.46386E+05
 0.65449997E+02  0.38350E+05
 0.65499992E+02  0.30082E+05
 0.65549995E+02  0.13855E+05
 0.65599998E+02 -0.25644E+04
 0.65649994E+02 -0.20948E+04
 0.65699997E+02  0.51756E+04
 0.65749992E+02  0.56373E+04
 0.65799995E+02 -0.57690E+04
 0.65849998E+02 -0.29310E+05
 0.65899994E+02 -0.56429E+05
 0.65949997E+02 -0.83152E+05
 0.65999992E+02 -0.10709E+06
 0.66049995E+02 -0.12061E+06
 0.66099998E+02 -0.11323E+06
 0.66149994E+02 -0.91469E+05
 0.66199997E+02 -0.73561E+05
 0.66249992E+02 -0.49934E+05
 0.66299995E+02 -0.63896E+04
 0.66349998E+02  0.48445E+05
 0.66399994E+02  0.10634E+06
 0.66449997E+02  0.15912E+06
 0.66499992E+02  0.21667E+06
 0.66549995E+02  0.28293E+06
 0.66599998E+02  0.33770E+06
 0.66649994E+02  0.37209E+06
 0.66699997E+02  0.38382E+06
 0.66749992E+02  0.37945E+06
 0.66799995E+02  0.36237E+06
 0.66849998E+02  0.32833E+06
 0.66899994E+02  0.28314E+06
 0.66949997E+02  0.23969E+06
 0.66999992E+02  0.20620E+06
 0.67049995E+02  0.17679E+06
 0.67099998E+02  0.14753E+06
 0.67149994E+02  0.11706E+06
 0.67199997E+02  0.79256E+05
 0.67249992E+02  0.38276E+05
 0.67299995E+02 -0.49267E+04
 0.67349998E+02 -0.42929E+05
 0.67399994E+02 -0.69221E+05
 0.67449997E+02 -0.87514E+05
 0.67499992E+02 -0.93384E+05
 0.67549995E+02 -0.88403E+05
 0.67599998E+02 -0.83377E+05
 0.67649994E+02 -0.80861E+05
 0.67699997E+02 -0.72946E+05
 0.67749992E+02 -0.69038E+05
 0.67799995E+02 -0.76697E+05
 0.67849998E+02 -0.96207E+05
 0.67899994E+02 -0.12836E+06
 0.67949997E+02 -0.16708E+06
 0.67999992E+02 -0.20860E+06
 0.68049995E+02 -0.24363E+06
 0.68099998E+02 -0.26572E+06
 0.68149994E+02 -0.27595E+06
 0.68199997E+02 -0.26980E+06
 0.68249992E+02 -0.25468E+06
 0.68299995E+02 -0.24438E+06
 0.68349998E+02 -0.22946E+06
 0.68399994E+02 -0.19960E+06
 0.68449997E+02 -0.15075E+06
 0.68499992E+02 -0.88200E+05
 0.68549995E+02 -0.26376E+05
 0.68599998E+02  0.29909E+05
 0.68649994E+02  0.75311E+05
 0.68699997E+02  0.97627E+05
 0.68749992E+02  0.99981E+05
 0.68799995E+02  0.92117E+05
 0.68849998E+02  0.75765E+05
 0.68899994E+02  0.60930E+05
 0.68949997E+02  0.52990E+05
 0.68999992E+02  0.46032E+05
 0.69049995E+02  0.37198E+05
 0.69099998E+02  0.32633E+05
 0.69149994E+02  0.39853E+05
 0.69199997E+02  0.56033E+05
 0.69249992E+02  0.70234E+05
 0.69299995E+02  0.75838E+05
 0.69349998E+02  0.70234E+05
 0.69399994E+02  0.51937E+05
 0.69449997E+02  0.30314E+05
 0.69499992E+02  0.11799E+05
 0.69549995E+02 -0.61518E+04
 0.69599998E+02 -0.28119E+05
 0.69649994E+02 -0.53760E+05
 0.69699997E+02 -0.73408E+05
 0.69749992E+02 -0.72652E+05
 0.69799995E+02 -0.53919E+05
 0.69849998E+02 -0.31712E+05
 0.69899994E+02  0.42890E+03
 0.69949997E+02  0.35419E+05
 0.69999992E+02  0.61770E+05
 0.70049995E+02  0.77731E+05
 0.70099998E+02  0.79095E+05
 0.70149994E+02  0.67105E+05
 0.70199997E+02  0.49390E+05
 0.70249992E+02  0.36342E+05
 0.70299995E+02  0.28697E+05
 0.70349998E+02  0.26604E+05
 0.70399994E+02  0.27487E+05
 0.70449997E+02  0.29006E+05
 0.70499992E+02  0.25973E+05
 0.70549995E+02  0.18819E+05
 0.70599998E+02  0.10983E+05
 0.70649994E+02 -0.70311E+03
 0.70699997E+02 -0.19829E+05
 0.70749992E+02 -0.47479E+05
 0.70799995E+02 -0.72849E+05
 0.70849998E+02 -0.98864E+05
 0.70899994E+02 -0.12965E+06
 0.70949997E+02 -0.16153E+06
 0.70999992E+02 -0.19188E+06
 0.71049995E+02 -0.21726E+06
 0.71099998E+02 -0.23427E+06
 0.71149994E+02 -0.23840E+06
 0.71199997E+02 -0.23486E+06
 0.71249992E+02 -0.22227E+06
 0.71299995E+02 -0.20096E+06
 0.71349998E+02 -0.17661E+06
 0.71399994E+02 -0.15109E+06
 0.71449997E+02 -0.12434E+06
 0.71499992E+02 -0.95004E+05
 0.71549995E+02 -0.71482E+05
 0.71599998E+02 -0.61341E+05
 0.71649994E+02 -0.63152E+05
 0.71699997E+02 -0.68126E+05
 0.71749992E+02 -0.77322E+05
 0.71799995E+02 -0.94156E+05
 0.71849998E+02 -0.11255E+06
 0.71899994E+02 -0.13023E+06
 0.71949997E+02 -0.14462E+06
 0.71999992E+02 -0.15288E+06
 0.72049995E+02 -0.14752E+06
 0.72099998E+02 -0.11615E+06
 0.72149994E+02 -0.58680E+05
 0.72199997E+02  0.11632E+05
 0.72249992E+02  0.85513E+05
 0.72299995E+02  0.15341E+06
 0.72349998E+02  0.20040E+06
 0.72399994E+02  0.22124E+06
 0.72449997E+02  0.21967E+06
 0.72499992E+02  0.20460E+06
 0.72549995E+02  0.18900E+06
 0.72599998E+02  0.17899E+06
 0.72649994E+02  0.17907E+06
 0.72699997E+02  0.17962E+06
 0.72749992E+02  0.17301E+06
 0.72799995E+02  0.16424E+06
 0.72849998E+02  0.15167E+06
 0.72899994E+02  0.13436E+06
 0.72949997E+02  0.11516E+06
 0.72999992E+02  0.96509E+05
 0.73049995E+02  0.78649E+05
 0.73099998E+02  0.65209E+05
 0.73149994E+02  0.57822E+05
 0.73199997E+02  0.53435E+05
 0.73249992E+02  0.47807E+05
 0.73299995E+02  0.43684E+05
 0.73349998E+02  0.42071E+05
 0.73399994E+02  0.44480E+05
 0.73449997E+02  0.51784E+05
 0.73499992E+02  0.57399E+05
 0.73549995E+02  0.64011E+05
 0.73599998E+02  0.74820E+05
 0.73649994E+02  0.90117E+05
 0.73699997E+02  0.10463E+06
 0.73749992E+02  0.11924E+06
 0.73799995E+02  0.13886E+06
 0.73849998E+02  0.16119E+06
 0.73899994E+02  0.18725E+06
 0.73949997E+02  0.21718E+06
 0.73999992E+02  0.24572E+06
 0.74049995E+02  0.26839E+06
 0.74099998E+02  0.28919E+06
 0.74149994E+02  0.30160E+06
 0.74199997E+02  0.29606E+06
 0.74249992E+02  0.27725E+06
 0.74299995E+02  0.25272E+06
 0.74349998E+02  0.22428E+06
 0.74399994E+02  0.19151E+06
 0.74449997E+02  0.15440E+06
 0.74499992E+02  0.11047E+06
 0.74549995E+02  0.65432E+05
 0.74599998E+02  0.21382E+05
 0.74649994E+02 -0.18704E+05
 0.74699997E+02 -0.49889E+05
 0.74749992E+02 -0.78133E+05
 0.74799995E+02 -0.10614E+06
 0.74849998E+02 -0.13706E+06
 0.74899994E+02 -0.16872E+06
 0.74949997E+02 -0.19556E+06
 0.74999992E+02 -0.21258E+06
 0.75049995E+02 -0.22279E+06
 0.75099998E+02 -0.23215E+06
 0.75149994E+02 -0.23761E+06
 0.75199997E+02 -0.23499E+06
 0.75249992E+02 -0.22254E+06
 0.75299995E+02 -0.20453E+06
 0.75349998E+02 -0.17982E+06
 0.75399994E+02 -0.15008E+06
 0.75449997E+02 -0.12166E+06
 0.75499992E+02 -0.94284E+05
 0.75549995E+02 -0.67542E+05
 0.75599998E+02 -0.39577E+05
 0.75649994E+02 -0.10389E+05
 0.75699997E+02  0.17272E+05
 0.75749992E+02  0.41996E+05
 0.75799995E+02  0.62101E+05
 0.75849998E+02  0.83203E+05
 0.75899994E+02  0.10794E+06
 0.75949997E+02  0.13055E+06
 0.75999992E+02  0.14252E+06
 0.76049995E+02  0.14040E+06
 0.76099998E+02  0.13578E+06
 0.76149994E+02  0.12622E+06
 0.76199997E+02  0.10594E+06
 0.76249992E+02  0.80529E+05
 0.76299995E+02  0.51813E+05
 0.76349998E+02  0.21803E+05
 0.76399994E+02 -0.88984E+04
 0.76449997E+02 -0.31416E+05
 0.76499992E+02 -0.46564E+05
 0.76549995E+02 -0.60916E+05
 0.76599998E+02 -0.69520E+05
 0.76649994E+02 -0.71124E+05
 0.76699997E+02 -0.65970E+05
 0.76749992E+02 -0.56238E+05
 0.76799995E+02 -0.48214E+05
 0.76849998E+02 -0.38200E+05
 0.76899994E+02 -0.23358E+05
 0.76949997E+02 -0.10228E+05
 0.76999992E+02  0.16115E+04
 0.77049995E+02  0.12898E+05
 0.77099998E+02  0.24012E+05
 0.77149994E+02  0.32180E+05
 0.77199997E+02  0.38734E+05
 0.77249992E+02  0.47359E+05
 0.77299995E+02  0.53087E+05
 0.77349998E+02  0.56096E+05
 0.77399994E+02  0.52831E+05
 0.77449997E+02  0.41604E+05
 0.77499992E+02  0.32649E+05
 0.77549995E+02  0.32550E+05
 0.77599998E+02  0.45438E+05
 0.77649994E+02  0.64272E+05
 0.77699997E+02  0.75851E+05
 0.77749992E+02  0.74180E+05
 0.77799995E+02  0.55905E+05
 0.77849998E+02  0.22330E+05
 0.77899994E+02 -0.22552E+05
 0.77949997E+02 -0.71456E+05
 0.77999992E+02 -0.11917E+06
 0.78049995E+02 -0.16751E+06
 0.78099998E+02 -0.21074E+06
 0.78149994E+02 -0.23978E+06
 0.78199997E+02 -0.25415E+06
 0.78249992E+02 -0.26222E+06
 0.78299995E+02 -0.27402E+06
 0.78349998E+02 -0.28823E+06
 0.78399994E+02 -0.30397E+06
 0.78449997E+02 -0.32297E+06
 0.78499992E+02 -0.34199E+06
 0.78549995E+02 -0.35341E+06
 0.78599998E+02 -0.35292E+06
 0.78649994E+02 -0.34057E+06
 0.78699997E+02 -0.31824E+06
 0.78749992E+02 -0.29479E+06
 0.78799995E+02 -0.27111E+06
 0.78849998E+02 -0.24103E+06
 0.78899994E+02 -0.21052E+06
 0.78949997E+02 -0.18379E+06
 0.78999992E+02 -0.15744E+06
 0.79049995E+02 -0.13137E+06
 0.79099998E+02 -0.10155E+06
 0.79149994E+02 -0.70603E+05
 0.79199997E+02 -0.44272E+05
 0.79249992E+02 -0.21455E+05
 0.79299995E+02 -0.24499E+04
 0.79349998E+02  0.13850E+05
 0.79399994E+02  0.30754E+05
 0.79449997E+02  0.53029E+05
 0.79499992E+02  0.74272E+05
 0.79549995E+02  0.90963E+05
 0.79599998E+02  0.10325E+06
 0.79649994E+02  0.10653E+06
 0.79699997E+02  0.10412E+06
 0.79749992E+02  0.96911E+05
 0.79799995E+02  0.87310E+05
 0.79849998E+02  0.77877E+05
 0.79899994E+02  0.72955E+05
 0.79949997E+02  0.75031E+05
 0.79999992E+02  0.77358E+05
 0.80049995E+02  0.80920E+05
 0.80099998E+02  0.88306E+05
 0.80149994E+02  0.10001E+06
 0.80199997E+02  0.11188E+06
 0.80249992E+02  0.12225E+06
 0.80299995E+02  0.13253E+06
 0.80349998E+02  0.13993E+06
 0.80399994E+02  0.14485E+06
 0.80449997E+02  0.14929E+06
 0.80499992E+02  0.15420E+06
 0.80549995E+02  0.15412E+06
 0.80599998E+02  0.15045E+06
 0.80649994E+02  0.15189E+06
 0.80699997E+02  0.15990E+06
 0.80749992E+02  0.17561E+06
 0.80799995E+02  0.19718E+06
 0.80849998E+02  0.21621E+06
 0.80899994E+02  0.22428E+06
 0.80949997E+02  0.21719E+06
 0.80999992E+02  0.19946E+06
 0.81049995E+02  0.17504E+06
 0.81099998E+02  0.14508E+06
 0.81149994E+02  0.10724E+06
 0.81199997E+02  0.65821E+05
 0.81249992E+02  0.26039E+05
 0.81299995E+02 -0.10075E+05
 0.81349998E+02 -0.38309E+05
 0.81399994E+02 -0.61515E+05
 0.81449997E+02 -0.75919E+05
 0.81499992E+02 -0.75715E+05
 0.81549995E+02 -0.64083E+05
 0.81599998E+02 -0.47661E+05
 0.81649994E+02 -0.30457E+05
 0.81699997E+02 -0.15112E+05
 0.81749992E+02 -0.27456E+04
 0.81799995E+02  0.91245E+04
 0.81849998E+02  0.24421E+05
 0.81899994E+02  0.40464E+05
 0.81949997E+02  0.56227E+05
 0.81999992E+02  0.75048E+05
 0.82049995E+02  0.91463E+05
 0.82099998E+02  0.96838E+05
 0.82149994E+02  0.87720E+05
 0.82199997E+02  0.68106E+05
 0.82249992E+02  0.49484E+05
 0.82299995E+02  0.41588E+05
 0.82349998E+02  0.44097E+05
 0.82399994E+02  0.53248E+05
 0.82449997E+02  0.61899E+05
 0.82499992E+02  0.62209E+05
 0.82549995E+02  0.52107E+05
 0.82599998E+02  0.35281E+05
 0.82649994E+02  0.13279E+05
 0.82699997E+02 -0.16025E+05
 0.82749992E+02 -0.50617E+05
 0.82799995E+02 -0.82201E+05
 0.82849998E+02 -0.10145E+06
 0.82899994E+02 -0.10978E+06
 0.82949997E+02 -0.11104E+06
 0.82999992E+02 -0.10892E+06
 0.83049995E+02 -0.10768E+06
 0.83099998E+02 -0.10974E+06
 0.83149994E+02 -0.11548E+06
 0.83199997E+02 -0.12087E+06
 0.83249992E+02 -0.12428E+06
 0.83299995E+02 -0.12520E+06
 0.83349998E+02 -0.12135E+06
 0.83399994E+02 -0.11102E+06
 0.83449997E+02 -0.97854E+05
 0.83499992E+02 -0.84230E+05
 0.83549995E+02 -0.70406E+05
 0.83599998E+02 -0.55584E+05
 0.83649994E+02 -0.33708E+05
 0.83699997E+02 -0.51630E+04
 0.83749992E+02  0.25558E+05
 0.83799995E+02  0.59656E+05
 0.83849998E+02  0.96411E+05
 0.83899994E+02  0.13412E+06
 0.83949997E+02  0.16643E+06
 0.83999992E+02  0.18632E+06
 0.84049995E+02  0.19389E+06
 0.84099998E+02  0.19311E+06
 0.84149994E+02  0.18513E+06
 0.84199997E+02  0.17452E+06
 0.84249992E+02  0.16759E+06
 0.84299995E+02  0.16152E+06
 0.84349998E+02  0.15460E+06
 0.84399994E+02  0.14373E+06
 0.84449997E+02  0.12835E+06
 0.84499992E+02  0.10807E+06
 0.84549995E+02  0.81195E+05
 0.84599998E+02  0.50491E+05
 0.84649994E+02  0.16259E+05
 0.84699997E+02 -0.18727E+05
 0.84749992E+02 -0.48929E+05
 0.84799995E+02 -0.72643E+05
 0.84849998E+02 -0.91005E+05
 0.84899994E+02 -0.99077E+05
 0.84949997E+02 -0.98548E+05
 0.84999992E+02 -0.98158E+05
 0.85049995E+02 -0.97137E+05
 0.85099998E+02 -0.97143E+05
 0.85149994E+02 -0.97206E+05
 0.85199997E+02 -0.10014E+06
 0.85249992E+02 -0.10771E+06
 0.85299995E+02 -0.11439E+06
 0.85349998E+02 -0.11926E+06
 0.85399994E+02 -0.12480E+06
 0.85449997E+02 -0.13306E+06
 0.85499992E+02 -0.14234E+06
 0.85549995E+02 -0.15337E+06
 0.85599998E+02 -0.16549E+06
 0.85649994E+02 -0.17537E+06
 0.85699997E+02 -0.17941E+06
 0.85749992E+02 -0.17341E+06
 0.85799995E+02 -0.15220E+06
 0.85849998E+02 -0.12047E+06
 0.85899994E+02 -0.84316E+05
 0.85949997E+02 -0.44116E+05
 0.85999992E+02 -0.42339E+04
 0.86049995E+02  0.29844E+05
 0.86099998E+02  0.53931E+05
 0.86149994E+02  0.71118E+05
 0.86199997E+02  0.85772E+05
 0.86249992E+02  0.10002E+06
 0.86299995E+02  0.11938E+06
 0.86349998E+02  0.14643E+06
 0.86399994E+02  0.17604E+06
 0.86449997E+02  0.20078E+06
 0.86499992E+02  0.21493E+06
 0.86549995E+02  0.21616E+06
 0.86599998E+02  0.21174E+06
 0.86649994E+02  0.20784E+06
 0.86699997E+02  0.20075E+06
 0.86749992E+02  0.19054E+06
 0.86799995E+02  0.18063E+06
 0.86849998E+02  0.17390E+06
 0.86899994E+02  0.16805E+06
 0.86949997E+02  0.16184E+06
 0.86999992E+02  0.15635E+06
 0.87049995E+02  0.14994E+06
 0.87099998E+02  0.14129E+06
 0.87149994E+02  0.12387E+06
 0.87199997E+02  0.95326E+05
 0.87249992E+02  0.60512E+05
 0.87299995E+02  0.26388E+05
 0.87349998E+02 -0.41029E+04
 0.87399994E+02 -0.31357E+05
 0.87449997E+02 -0.57538E+05
 0.87499992E+02 -0.85498E+05
 0.87549995E+02 -0.11183E+06
 0.87599991E+02 -0.13645E+06
 0.87649994E+02 -0.16026E+06
 0.87699997E+02 -0.18207E+06
 0.87749992E+02 -0.19937E+06
 0.87799995E+02 -0.20925E+06
 0.87849991E+02 -0.20808E+06
 0.87899994E+02 -0.19422E+06
 0.87949997E+02 -0.17236E+06
 0.87999992E+02 -0.14608E+06
 0.88049995E+02 -0.12059E+06
 0.88099991E+02 -0.99037E+05
 0.88149994E+02 -0.82555E+05
 0.88199997E+02 -0.70070E+05
 0.88249992E+02 -0.58613E+05
 0.88299995E+02 -0.47964E+05
 0.88349991E+02 -0.37831E+05
 0.88399994E+02 -0.28989E+05
 0.88449997E+02 -0.21637E+05
 0.88499992E+02 -0.16545E+05
 0.88549995E+02 -0.13017E+05
 0.88599991E+02 -0.99420E+04
 0.88649994E+02 -0.63979E+04
 0.88699997E+02 -0.35123E+04
 0.88749992E+02 -0.42786E+04
 0.88799995E+02 -0.72983E+04
 0.88849991E+02 -0.10018E+05
 0.88899994E+02 -0.97810E+04
 0.88949997E+02 -0.64570E+04
 0.88999992E+02 -0.33895E+04
 0.89049995E+02 -0.11640E+04
 0.89099991E+02  0.53179E+04
 0.89149994E+02  0.15872E+05
 0.89199997E+02  0.22796E+05
 0.89249992E+02  0.25968E+05
 0.89299995E+02  0.31493E+05
 0.89349991E+02  0.40018E+05
 0.89399994E+02  0.43372E+05
 0.89449997E+02  0.40027E+05
 0.89499992E+02  0.33283E+05
 0.89549995E+02  0.22363E+05
 0.89599991E+02  0.10143E+05
 0.89649994E+02  0.26105E+04
 0.89699997E+02  0.53779E+04
 0.89749992E+02  0.15564E+05
 0.89799995E+02  0.28032E+05
 0.89849991E+02  0.37646E+05
 0.89899994E+02  0.42673E+05
 0.89949997E+02  0.43336E+05
 0.89999992E+02  0.38657E+05
 0.90049995E+02  0.30842E+05
 0.90099991E+02  0.26010E+05
 0.90149994E+02  0.28834E+05
 0.90199997E+02  0.34493E+05
 0.90249992E+02  0.42603E+05
 0.90299995E+02  0.52065E+05
 0.90349991E+02  0.59448E+05
 0.90399994E+02  0.64953E+05
 0.90449997E+02  0.67446E+05
 0.90499992E+02  0.65952E+05
 0.90549995E+02  0.59840E+05
 0.90599991E+02  0.51076E+05
 0.90649994E+02  0.41633E+05
 0.90699997E+02  0.30587E+05
 0.90749992E+02  0.16705E+05
 0.90799995E+02  0.68910E+03
 0.90849991E+02 -0.19719E+05
 0.90899994E+02 -0.42650E+05
 0.90949997E+02 -0.67345E+05
 0.90999992E+02 -0.97215E+05
 0.91049995E+02 -0.12476E+06
 0.91099991E+02 -0.14544E+06
 0.91149994E+02 -0.15852E+06
 0.91199997E+02 -0.16203E+06
 0.91249992E+02 -0.15556E+06
 0.91299995E+02 -0.13734E+06
 0.91349991E+02 -0.11101E+06
 0.91399994E+02 -0.83796E+05
 0.91449997E+02 -0.58274E+05
 0.91499992E+02 -0.35040E+05
 0.91549995E+02 -0.15026E+05
 0.91599991E+02  0.12209E+04
 0.91649994E+02  0.11613E+05
 0.91699997E+02  0.19494E+05
 0.91749992E+02  0.27825E+05
 0.91799995E+02  0.35408E+05
 0.91849991E+02  0.41382E+05
 0.91899994E+02  0.43724E+05
 0.91949997E+02  0.40283E+05
 0.91999992E+02  0.30533E+05
 0.92049995E+02  0.17537E+05
 0.92099991E+02  0.23734E+04
 0.92149994E+02 -0.14662E+05
 0.92199997E+02 -0.32756E+05
 0.92249992E+02 -0.46430E+05
 0.92299995E+02 -0.49978E+05
 0.92349991E+02 -0.47935E+05
 0.92399994E+02 -0.46409E+05
 0.92449997E+02 -0.43299E+05
 0.92499992E+02 -0.38778E+05
 0.92549995E+02 -0.38460E+05
 0.92599991E+02 -0.41193E+05
 0.92649994E+02 -0.46981E+05
 0.92699997E+02 -0.51987E+05
 0.92749992E+02 -0.51464E+05
 0.92799995E+02 -0.43469E+05
 0.92849991E+02 -0.25404E+05
 0.92899994E+02  0.14199E+03
 0.92949997E+02  0.29983E+05
 0.92999992E+02  0.59667E+05
 0.93049995E+02  0.89999E+05
 0.93099991E+02  0.12278E+06
 0.93149994E+02  0.15533E+06
 0.93199997E+02  0.18639E+06
 0.93249992E+02  0.21453E+06
 0.93299995E+02  0.23917E+06
 0.93349991E+02  0.25917E+06
 0.93399994E+02  0.27331E+06
 0.93449997E+02  0.27927E+06
 0.93499992E+02  0.27511E+06
 0.93549995E+02  0.26417E+06
 0.93599991E+02  0.24903E+06
 0.93649994E+02  0.23068E+06
 0.93699997E+02  0.20847E+06
 0.93749992E+02  0.18181E+06
 0.93799995E+02  0.15146E+06
 0.93849991E+02  0.11966E+06
 0.93899994E+02  0.87033E+05
 0.93949997E+02  0.52881E+05
 0.93999992E+02  0.20376E+05
 0.94049995E+02 -0.98968E+04
 0.94099991E+02 -0.38423E+05
 0.94149994E+02 -0.63420E+05
 0.94199997E+02 -0.84962E+05
 0.94249992E+02 -0.10580E+06
 0.94299995E+02 -0.12840E+06
 0.94349991E+02 -0.15353E+06
 0.94399994E+02 -0.17851E+06
 0.94449997E+02 -0.20070E+06
 0.94499992E+02 -0.21795E+06
 0.94549995E+02 -0.22500E+06
 0.94599991E+02 -0.22248E+06
 0.94649994E+02 -0.21332E+06
 0.94699997E+02 -0.19651E+06
 0.94749992E+02 -0.17209E+06
 0.94799995E+02 -0.14439E+06
 0.94849991E+02 -0.11654E+06
 0.94899994E+02 -0.86830E+05
 0.94949997E+02 -0.53861E+05
 0.94999992E+02 -0.18672E+05
 0.95049995E+02  0.15446E+05
 0.95099991E+02  0.46810E+05
 0.95149994E+02  0.78361E+05
 0.95199997E+02  0.11116E+06
 0.95249992E+02  0.14066E+06
 0.95299995E+02  0.16748E+06
 0.95349991E+02  0.19382E+06
 0.95399994E+02  0.21950E+06
 0.95449997E+02  0.24019E+06
 0.95499992E+02  0.25467E+06
 0.95549995E+02  0.26842E+06
 0.95599991E+02  0.28027E+06
 0.95649994E+02  0.28869E+06
 0.95699997E+02  0.29497E+06
 0.95749992E+02  0.29777E+06
 0.95799995E+02  0.29451E+06
 0.95849991E+02  0.28248E+06
 0.95899994E+02  0.26136E+06
 0.95949997E+02  0.23515E+06
 0.95999992E+02  0.20741E+06
 0.96049995E+02  0.17985E+06
 0.96099991E+02  0.15195E+06
 0.96149994E+02  0.12396E+06
 0.96199997E+02  0.97514E+05
 0.96249992E+02  0.70013E+05
 0.96299995E+02  0.40513E+05
 0.96349991E+02  0.13813E+05
 0.96399994E+02 -0.11008E+05
 0.96449997E+02 -0.33484E+05
 0.96499992E+02 -0.52323E+05
 0.96549995E+02 -0.70972E+05
 0.96599991E+02 -0.91377E+05
 0.96649994E+02 -0.11380E+06
 0.96699997E+02 -0.13712E+06
 0.96749992E+02 -0.16440E+06
 0.96799995E+02 -0.19457E+06
 0.96849991E+02 -0.22365E+06
 0.96899994E+02 -0.24772E+06
 0.96949997E+02 -0.26765E+06
 0.96999992E+02 -0.28473E+06
 0.97049995E+02 -0.29769E+06
 0.97099991E+02 -0.30639E+06
 0.97149994E+02 -0.31142E+06
 0.97199997E+02 -0.31579E+06
 0.97249992E+02 -0.31596E+06
 0.97299995E+02 -0.30967E+06
 0.97349991E+02 -0.29552E+06
 0.97399994E+02 -0.27502E+06
 0.97449997E+02 -0.25058E+06
 0.97499992E+02 -0.22233E+06
 0.97549995E+02 -0.19204E+06
 0.97599991E+02 -0.15977E+06
 0.97649994E+02 -0.12604E+06
 0.97699997E+02 -0.92218E+05
 0.97749992E+02 -0.61298E+05
 0.97799995E+02 -0.33104E+05
 0.97849991E+02 -0.10467E+05
 0.97899994E+02  0.54742E+04
 0.97949997E+02  0.16417E+05
 0.97999992E+02  0.23805E+05
