-0.20000000E+01 -0.20418E+05
-0.19500000E+01 -0.20288E+05
-0.19000000E+01 -0.20319E+05
-0.18500000E+01 -0.20317E+05
-0.18000000E+01 -0.20336E+05
-0.17500000E+01 -0.20336E+05
-0.17000000E+01 -0.20352E+05
-0.16500001E+01 -0.20339E+05
-0.16000000E+01 -0.20296E+05
-0.15500000E+01 -0.20315E+05
-0.15000000E+01 -0.20321E+05
-0.14500000E+01 -0.20341E+05
-0.14000001E+01 -0.20385E+05
-0.13500000E+01 -0.20355E+05
-0.13000001E+01 -0.20334E+05
-0.12500000E+01 -0.20351E+05
-0.12000000E+01 -0.20349E+05
-0.11500001E+01 -0.20378E+05
-0.11000000E+01 -0.20418E+05
-0.10500001E+01 -0.20407E+05
-0.10000000E+01 -0.20403E+05
-0.95000005E+00 -0.20427E+05
-0.90000010E+00 -0.20426E+05
-0.85000002E+00 -0.20442E+05
-0.80000007E+00 -0.20451E+05
-0.75000012E+00 -0.20403E+05
-0.70000005E+00 -0.20390E+05
-0.65000010E+00 -0.20411E+05
-0.60000014E+00 -0.20407E+05
-0.55000007E+00 -0.20427E+05
-0.50000012E+00 -0.20432E+05
-0.45000005E+00 -0.20396E+05
-0.40000010E+00 -0.20406E+05
-0.35000014E+00 -0.20416E+05
-0.30000007E+00 -0.20428E+05
-0.25000012E+00 -0.20440E+05
-0.20000005E+00 -0.20431E+05
-0.15000010E+00 -0.20403E+05
-0.10000014E+00 -0.20408E+05
-0.50000072E-01 -0.20419E+05
-0.11920929E-06 -0.20426E+05
 0.49999952E-01 -0.20461E+05
 0.99999905E-01 -0.20416E+05
 0.14999986E+00 -0.20377E+05
 0.19999981E+00 -0.20392E+05
 0.24999976E+00 -0.20386E+05
 0.29999995E+00 -0.20376E+05
 0.34999990E+00 -0.20376E+05
 0.39999986E+00 -0.20337E+05
 0.44999981E+00 -0.20306E+05
 0.49999976E+00 -0.20314E+05
 0.54999995E+00 -0.20308E+05
 0.59999990E+00 -0.20329E+05
 0.64999986E+00 -0.20339E+05
 0.69999981E+00 -0.20296E+05
 0.74999976E+00 -0.20290E+05
 0.79999971E+00 -0.20294E+05
 0.84999990E+00 -0.20298E+05
 0.89999986E+00 -0.20326E+05
 0.94999981E+00 -0.20327E+05
 0.99999976E+00 -0.20289E+05
 0.10499997E+01 -0.20290E+05
 0.10999999E+01 -0.20308E+05
 0.11499999E+01 -0.20320E+05
 0.11999998E+01 -0.20366E+05
 0.12499998E+01 -0.20373E+05
 0.12999997E+01 -0.20356E+05
 0.13499999E+01 -0.20373E+05
 0.13999999E+01 -0.20400E+05
 0.14499998E+01 -0.20419E+05
 0.14999998E+01 -0.20457E+05
 0.15499997E+01 -0.20444E+05
 0.15999999E+01 -0.20430E+05
 0.16499999E+01 -0.20458E+05
 0.16999998E+01 -0.20459E+05
 0.17499998E+01 -0.20500E+05
 0.17999997E+01 -0.20516E+05
 0.18499997E+01 -0.20467E+05
 0.18999999E+01 -0.20459E+05
 0.19499998E+01 -0.20461E+05
 0.19999998E+01 -0.20465E+05
 0.20499997E+01 -0.20479E+05
 0.20999999E+01 -0.20461E+05
 0.21499996E+01 -0.20416E+05
 0.21999998E+01 -0.20410E+05
 0.22499995E+01 -0.20409E+05
 0.22999997E+01 -0.20393E+05
 0.23499999E+01 -0.20413E+05
 0.23999996E+01 -0.20402E+05
 0.24499998E+01 -0.20354E+05
 0.24999995E+01 -0.20329E+05
 0.25499997E+01 -0.20324E+05
 0.25999999E+01 -0.20322E+05
 0.26499996E+01 -0.20333E+05
 0.26999998E+01 -0.20300E+05
 0.27499995E+01 -0.20270E+05
 0.27999997E+01 -0.20281E+05
 0.28499999E+01 -0.20285E+05
 0.28999996E+01 -0.20305E+05
 0.29499998E+01 -0.20338E+05
 0.29999995E+01 -0.20317E+05
 0.30499997E+01 -0.20302E+05
 0.30999999E+01 -0.20327E+05
 0.31499996E+01 -0.20349E+05
 0.31999998E+01 -0.20383E+05
 0.32499995E+01 -0.20402E+05
 0.32999997E+01 -0.20376E+05
 0.33499999E+01 -0.20399E+05
 0.33999996E+01 -0.20451E+05
 0.34499998E+01 -0.20465E+05
 0.34999995E+01 -0.20492E+05
 0.35499997E+01 -0.20500E+05
 0.35999994E+01 -0.20467E+05
 0.36499996E+01 -0.20471E+05
 0.36999998E+01 -0.20471E+05
 0.37499995E+01 -0.20455E+05
 0.37999997E+01 -0.20487E+05
 0.38499994E+01 -0.20465E+05
 0.38999996E+01 -0.20422E+05
 0.39499998E+01 -0.20433E+05
 0.39999995E+01 -0.20434E+05
 0.40499997E+01 -0.20445E+05
 0.40999994E+01 -0.20456E+05
 0.41499996E+01 -0.20418E+05
 0.41999998E+01 -0.20397E+05
 0.42499995E+01 -0.20384E+05
 0.42999997E+01 -0.20371E+05
 0.43499994E+01 -0.20398E+05
 0.43999996E+01 -0.20396E+05
 0.44499998E+01 -0.20338E+05
 0.44999995E+01 -0.20325E+05
 0.45499997E+01 -0.20342E+05
 0.45999994E+01 -0.20348E+05
 0.46499996E+01 -0.20376E+05
 0.46999998E+01 -0.20361E+05
 0.47499995E+01 -0.20323E+05
 0.47999997E+01 -0.20345E+05
 0.48499994E+01 -0.20361E+05
 0.48999996E+01 -0.20366E+05
 0.49499998E+01 -0.20391E+05
 0.49999995E+01 -0.20355E+05
 0.50499997E+01 -0.20327E+05
 0.50999994E+01 -0.20351E+05
 0.51499996E+01 -0.20363E+05
 0.51999998E+01 -0.20388E+05
 0.52499995E+01 -0.20398E+05
 0.52999997E+01 -0.20356E+05
 0.53499994E+01 -0.20353E+05
 0.53999996E+01 -0.20370E+05
 0.54499993E+01 -0.20385E+05
 0.54999995E+01 -0.20416E+05
 0.55499997E+01 -0.20411E+05
 0.55999994E+01 -0.20388E+05
 0.56499996E+01 -0.20386E+05
 0.56999993E+01 -0.20394E+05
 0.57499995E+01 -0.20398E+05
 0.57999997E+01 -0.20428E+05
 0.58499994E+01 -0.20394E+05
 0.58999996E+01 -0.20360E+05
 0.59499993E+01 -0.20374E+05
 0.59999995E+01 -0.20364E+05
 0.60499992E+01 -0.20374E+05
 0.60999994E+01 -0.20389E+05
 0.61499996E+01 -0.20359E+05
 0.61999998E+01 -0.20353E+05
 0.62499990E+01 -0.20382E+05
 0.62999992E+01 -0.20384E+05
 0.63499994E+01 -0.20431E+05
 0.63999996E+01 -0.20430E+05
 0.64499998E+01 -0.20385E+05
 0.64999990E+01 -0.20390E+05
 0.65499992E+01 -0.20385E+05
 0.65999994E+01 -0.20390E+05
 0.66499996E+01 -0.20416E+05
 0.66999998E+01 -0.20396E+05
 0.67499990E+01 -0.20364E+05
 0.67999992E+01 -0.20371E+05
 0.68499994E+01 -0.20370E+05
 0.68999996E+01 -0.20374E+05
 0.69499998E+01 -0.20386E+05
 0.69999990E+01 -0.20350E+05
 0.70499992E+01 -0.20337E+05
 0.70999994E+01 -0.20355E+05
 0.71499996E+01 -0.20371E+05
 0.71999998E+01 -0.20399E+05
 0.72499990E+01 -0.20393E+05
 0.72999992E+01 -0.20355E+05
 0.73499994E+01 -0.20370E+05
 0.73999996E+01 -0.20389E+05
 0.74499998E+01 -0.20402E+05
 0.74999990E+01 -0.20444E+05
 0.75499992E+01 -0.20420E+05
 0.75999994E+01 -0.20383E+05
 0.76499996E+01 -0.20394E+05
 0.76999998E+01 -0.20406E+05
 0.77499990E+01 -0.20434E+05
 0.77999992E+01 -0.20460E+05
 0.78499994E+01 -0.20427E+05
 0.78999996E+01 -0.20406E+05
 0.79499998E+01 -0.20408E+05
 0.79999990E+01 -0.20390E+05
 0.80499992E+01 -0.20403E+05
 0.80999994E+01 -0.20406E+05
 0.81499996E+01 -0.20357E+05
 0.81999998E+01 -0.20343E+05
 0.82499990E+01 -0.20341E+05
 0.82999992E+01 -0.20346E+05
 0.83499994E+01 -0.20373E+05
 0.83999996E+01 -0.20351E+05
 0.84499998E+01 -0.20329E+05
 0.84999990E+01 -0.20341E+05
 0.85499992E+01 -0.20343E+05
 0.85999994E+01 -0.20365E+05
 0.86499996E+01 -0.20392E+05
 0.86999998E+01 -0.20360E+05
 0.87499990E+01 -0.20336E+05
 0.87999992E+01 -0.20354E+05
 0.88499994E+01 -0.20365E+05
 0.88999996E+01 -0.20402E+05
 0.89499998E+01 -0.20415E+05
 0.89999990E+01 -0.20358E+05
 0.90499992E+01 -0.20358E+05
 0.90999994E+01 -0.20380E+05
 0.91499996E+01 -0.20373E+05
 0.91999989E+01 -0.20399E+05
 0.92499990E+01 -0.20386E+05
 0.92999992E+01 -0.20352E+05
 0.93499994E+01 -0.20368E+05
 0.93999996E+01 -0.20380E+05
 0.94499989E+01 -0.20394E+05
 0.94999990E+01 -0.20421E+05
 0.95499992E+01 -0.20391E+05
 0.95999994E+01 -0.20372E+05
 0.96499996E+01 -0.20389E+05
 0.96999989E+01 -0.20392E+05
 0.97499990E+01 -0.20429E+05
 0.97999992E+01 -0.20433E+05
 0.98499994E+01 -0.20379E+05
 0.98999996E+01 -0.20379E+05
 0.99499989E+01 -0.20395E+05
 0.99999990E+01 -0.20391E+05
 0.10049999E+02 -0.20429E+05
 0.10099999E+02 -0.20412E+05
 0.10150000E+02 -0.20365E+05
 0.10199999E+02 -0.20356E+05
 0.10249999E+02 -0.20346E+05
 0.10299999E+02 -0.20350E+05
 0.10349999E+02 -0.20351E+05
 0.10400000E+02 -0.20311E+05
 0.10449999E+02 -0.20290E+05
 0.10499999E+02 -0.20322E+05
 0.10549999E+02 -0.20366E+05
 0.10599999E+02 -0.20406E+05
 0.10650000E+02 -0.20357E+05
 0.10699999E+02 -0.20401E+05
 0.10749999E+02 -0.20325E+05
 0.10799999E+02 -0.20442E+05
 0.10849999E+02 -0.20353E+05
 0.10900000E+02 -0.20537E+05
 0.10949999E+02 -0.20391E+05
 0.10999999E+02 -0.20522E+05
 0.11049999E+02 -0.20525E+05
 0.11099999E+02 -0.20409E+05
 0.11150000E+02 -0.20565E+05
 0.11199999E+02 -0.20556E+05
 0.11249999E+02 -0.20505E+05
 0.11299999E+02 -0.20606E+05
 0.11349999E+02 -0.20627E+05
 0.11400000E+02 -0.20181E+05
 0.11449999E+02 -0.20042E+05
 0.11499999E+02 -0.20766E+05
 0.11549999E+02 -0.20121E+05
 0.11599999E+02 -0.19456E+05
 0.11650000E+02 -0.21303E+05
 0.11699999E+02 -0.20043E+05
 0.11749999E+02 -0.21215E+05
 0.11799999E+02 -0.20189E+05
 0.11849999E+02 -0.20037E+05
 0.11900000E+02 -0.20930E+05
 0.11949999E+02 -0.20339E+05
 0.11999999E+02 -0.20849E+05
 0.12049999E+02 -0.20593E+05
 0.12099999E+02 -0.18026E+05
 0.12150000E+02 -0.20705E+05
 0.12199999E+02 -0.19282E+05
 0.12249999E+02 -0.20154E+05
 0.12299999E+02 -0.18684E+05
 0.12349999E+02 -0.20548E+05
 0.12400000E+02 -0.22426E+05
 0.12449999E+02 -0.21181E+05
 0.12499999E+02 -0.21374E+05
 0.12549999E+02 -0.19625E+05
 0.12599999E+02 -0.20981E+05
 0.12649999E+02 -0.19948E+05
 0.12699999E+02 -0.20889E+05
 0.12749999E+02 -0.17670E+05
 0.12799999E+02 -0.22430E+05
 0.12849999E+02 -0.20255E+05
 0.12899999E+02 -0.18474E+05
 0.12949999E+02 -0.22944E+05
 0.12999999E+02 -0.19146E+05
 0.13049999E+02 -0.19956E+05
 0.13099999E+02 -0.22031E+05
 0.13149999E+02 -0.23372E+05
 0.13199999E+02 -0.18203E+05
 0.13249999E+02 -0.23761E+05
 0.13299999E+02 -0.17068E+05
 0.13349999E+02 -0.18804E+05
 0.13399999E+02 -0.22370E+05
 0.13449999E+02 -0.11569E+05
 0.13499999E+02 -0.25955E+05
 0.13549999E+02 -0.15399E+05
 0.13599999E+02 -0.24363E+05
 0.13649999E+02 -0.17260E+05
 0.13699999E+02 -0.25879E+05
 0.13749999E+02 -0.20437E+05
 0.13799999E+02 -0.16294E+05
 0.13849999E+02 -0.32800E+05
 0.13899999E+02 -0.10784E+05
 0.13949999E+02 -0.30207E+05
 0.13999999E+02 -0.15413E+05
 0.14049999E+02 -0.15073E+05
 0.14099998E+02 -0.27604E+05
 0.14150000E+02 -0.12593E+05
 0.14199999E+02 -0.22477E+05
 0.14249998E+02 -0.21893E+05
 0.14299999E+02 -0.18149E+05
 0.14349998E+02 -0.23389E+05
 0.14400000E+02 -0.21686E+05
 0.14449999E+02 -0.20229E+05
 0.14499998E+02 -0.22028E+05
 0.14549999E+02 -0.21249E+05
 0.14599998E+02 -0.17161E+05
 0.14650000E+02 -0.22027E+05
 0.14699999E+02 -0.13658E+05
 0.14749998E+02 -0.18657E+05
 0.14799999E+02 -0.18391E+05
 0.14849998E+02 -0.17913E+05
 0.14900000E+02 -0.29375E+05
 0.14949999E+02 -0.16445E+05
 0.14999998E+02 -0.28259E+05
 0.15049999E+02 -0.21196E+05
 0.15099998E+02 -0.16594E+05
 0.15150000E+02 -0.30048E+05
 0.15199999E+02 -0.12962E+05
 0.15249998E+02 -0.21149E+05
 0.15299999E+02 -0.22572E+05
 0.15349998E+02 -0.16285E+05
 0.15400000E+02 -0.26509E+05
 0.15449999E+02 -0.14446E+05
 0.15499998E+02 -0.18615E+05
 0.15549999E+02 -0.16784E+05
 0.15599998E+02 -0.27200E+05
 0.15650000E+02 -0.19899E+05
 0.15699999E+02 -0.18405E+05
 0.15749998E+02 -0.27013E+05
 0.15799999E+02 -0.21614E+05
 0.15849998E+02 -0.19685E+05
 0.15900000E+02 -0.15482E+05
 0.15949999E+02 -0.18991E+05
 0.15999998E+02 -0.14851E+05
 0.16049999E+02 -0.26694E+05
 0.16099998E+02 -0.19421E+05
 0.16150000E+02 -0.21634E+05
 0.16199999E+02 -0.22887E+05
 0.16249998E+02 -0.17905E+05
 0.16299999E+02 -0.20406E+05
 0.16349998E+02 -0.23922E+05
 0.16400000E+02 -0.16644E+05
 0.16449999E+02 -0.19986E+05
 0.16499998E+02 -0.27441E+05
 0.16549999E+02 -0.13892E+05
 0.16599998E+02 -0.18137E+05
 0.16650000E+02 -0.19720E+05
 0.16699999E+02 -0.16224E+05
 0.16749998E+02 -0.24249E+05
 0.16799999E+02 -0.18617E+05
 0.16849998E+02 -0.16430E+05
 0.16900000E+02 -0.24261E+05
 0.16949999E+02 -0.16594E+05
 0.16999998E+02 -0.24346E+05
 0.17049999E+02 -0.22141E+05
 0.17099998E+02 -0.19954E+05
 0.17150000E+02 -0.21748E+05
 0.17199999E+02 -0.14126E+05
 0.17249998E+02 -0.21540E+05
 0.17299999E+02 -0.17726E+05
 0.17349998E+02 -0.19048E+05
 0.17400000E+02 -0.18460E+05
 0.17449999E+02 -0.23487E+05
 0.17499998E+02 -0.26235E+05
 0.17549999E+02 -0.22600E+05
 0.17599998E+02 -0.26135E+05
 0.17650000E+02 -0.17003E+05
 0.17699999E+02 -0.21083E+05
 0.17749998E+02 -0.12970E+05
 0.17799999E+02 -0.24808E+05
 0.17849998E+02 -0.22584E+05
 0.17900000E+02 -0.18104E+05
 0.17949999E+02 -0.22684E+05
 0.17999998E+02 -0.15821E+05
 0.18049999E+02 -0.19124E+05
 0.18099998E+02 -0.16133E+05
 0.18150000E+02 -0.23083E+05
 0.18199999E+02 -0.26033E+05
 0.18249998E+02 -0.24730E+05
 0.18299999E+02 -0.19145E+05
 0.18349998E+02 -0.24509E+05
 0.18400000E+02 -0.17750E+05
 0.18449999E+02 -0.16362E+05
 0.18499998E+02 -0.21773E+05
 0.18549999E+02 -0.17913E+05
 0.18599998E+02 -0.16852E+05
 0.18650000E+02 -0.20107E+05
 0.18699999E+02 -0.27386E+05
 0.18749998E+02 -0.23645E+05
 0.18799999E+02 -0.27262E+05
 0.18849998E+02 -0.21206E+05
 0.18900000E+02 -0.13988E+05
 0.18949999E+02 -0.18645E+05
 0.18999998E+02 -0.20834E+05
 0.19049999E+02 -0.12473E+05
 0.19099998E+02 -0.19936E+05
 0.19150000E+02 -0.15480E+05
 0.19199999E+02 -0.12032E+05
 0.19249998E+02 -0.25708E+05
 0.19299999E+02 -0.20204E+05
 0.19349998E+02 -0.26636E+05
 0.19400000E+02 -0.22249E+05
 0.19449999E+02 -0.21343E+05
 0.19499998E+02 -0.22035E+05
 0.19549999E+02 -0.16538E+05
 0.19599998E+02 -0.16799E+05
 0.19650000E+02 -0.15055E+05
 0.19699999E+02 -0.22242E+05
 0.19749998E+02 -0.20450E+05
 0.19799999E+02 -0.24442E+05
 0.19849998E+02 -0.24435E+05
 0.19900000E+02 -0.20068E+05
 0.19949999E+02 -0.25380E+05
 0.19999998E+02 -0.24551E+05
 0.20049999E+02 -0.16927E+05
 0.20099998E+02 -0.19039E+05
 0.20150000E+02 -0.21437E+05
 0.20199999E+02 -0.15594E+05
 0.20249998E+02 -0.21490E+05
 0.20299999E+02 -0.15355E+05
 0.20349998E+02 -0.15725E+05
 0.20399998E+02 -0.18192E+05
 0.20449999E+02 -0.22414E+05
 0.20499998E+02 -0.27701E+05
 0.20549999E+02 -0.22802E+05
 0.20599998E+02 -0.25007E+05
 0.20649998E+02 -0.19478E+05
 0.20699999E+02 -0.12039E+05
 0.20749998E+02 -0.31498E+05
 0.20799999E+02 -0.15596E+05
 0.20849998E+02 -0.66608E+04
 0.20899998E+02 -0.21883E+05
 0.20949999E+02 -0.11975E+05
 0.20999998E+02 -0.12526E+05
 0.21049999E+02 -0.26913E+05
 0.21099998E+02 -0.48399E+05
 0.21149998E+02 -0.18653E+05
 0.21199999E+02 -0.19846E+05
 0.21249998E+02 -0.30085E+05
 0.21299999E+02 -0.94522E+04
 0.21349998E+02 -0.11903E+05
 0.21399998E+02 -0.74927E+04
 0.21449999E+02 -0.13623E+05
 0.21499998E+02 -0.21328E+05
 0.21549999E+02 -0.23693E+05
 0.21599998E+02 -0.21116E+05
 0.21649998E+02 -0.24078E+05
 0.21699999E+02 -0.21255E+05
 0.21749998E+02 -0.20644E+05
 0.21799999E+02 -0.19584E+05
 0.21849998E+02 -0.20687E+05
 0.21899998E+02 -0.15009E+05
 0.21949999E+02 -0.20372E+05
 0.21999998E+02 -0.26881E+05
 0.22049999E+02 -0.19534E+05
 0.22099998E+02 -0.44747E+05
 0.22149998E+02 -0.36452E+05
 0.22199999E+02 -0.17416E+05
 0.22249998E+02 -0.60317E+04
 0.22299999E+02 -0.25060E+04
 0.22349998E+02 -0.24822E+05
 0.22399998E+02 -0.29712E+05
 0.22449999E+02 -0.23951E+05
 0.22499998E+02 -0.22425E+05
 0.22549999E+02  0.12096E+05
 0.22599998E+02  0.75478E+04
 0.22649998E+02 -0.39235E+05
 0.22699999E+02 -0.30144E+05
 0.22749998E+02 -0.23601E+05
 0.22799999E+02 -0.15247E+05
 0.22849998E+02 -0.25447E+05
 0.22899998E+02 -0.29371E+05
 0.22949999E+02 -0.14813E+05
 0.22999998E+02 -0.22464E+05
 0.23049999E+02 -0.51298E+04
 0.23099998E+02 -0.21114E+05
 0.23149998E+02 -0.42485E+05
 0.23199999E+02 -0.32359E+05
 0.23249998E+02 -0.11513E+05
 0.23299999E+02 -0.67050E+04
 0.23349998E+02 -0.17019E+05
 0.23399998E+02 -0.35373E+05
 0.23449999E+02 -0.42193E+05
 0.23499998E+02 -0.30210E+05
 0.23549999E+02 -0.19404E+05
 0.23599998E+02 -0.64505E+04
 0.23649998E+02 -0.25827E+05
 0.23699999E+02 -0.13492E+05
 0.23749998E+02 -0.14741E+05
 0.23799999E+02 -0.20987E+05
 0.23849998E+02 -0.13065E+05
 0.23899998E+02 -0.23505E+05
 0.23949999E+02 -0.16397E+05
 0.23999998E+02 -0.21334E+05
 0.24049999E+02 -0.20493E+05
 0.24099998E+02 -0.21663E+05
 0.24149998E+02 -0.20354E+05
 0.24199999E+02 -0.23320E+05
 0.24249998E+02 -0.27470E+05
 0.24299999E+02 -0.21952E+05
 0.24349998E+02 -0.24095E+05
 0.24399998E+02 -0.13555E+05
 0.24449999E+02 -0.90429E+04
 0.24499998E+02 -0.95130E+04
 0.24549999E+02 -0.24005E+05
 0.24599998E+02 -0.35107E+05
 0.24649998E+02 -0.20176E+05
 0.24699999E+02 -0.15606E+05
 0.24749998E+02 -0.19922E+05
 0.24799999E+02 -0.21461E+05
 0.24849998E+02 -0.22341E+05
 0.24899998E+02 -0.36344E+05
 0.24949999E+02 -0.26659E+05
 0.24999998E+02 -0.66606E+04
 0.25049999E+02 -0.98027E+04
 0.25099998E+02 -0.19096E+05
 0.25149998E+02 -0.30250E+05
 0.25199999E+02 -0.28168E+05
 0.25249998E+02 -0.24643E+05
 0.25299999E+02 -0.19594E+05
 0.25349998E+02 -0.15296E+05
 0.25399998E+02 -0.17217E+05
 0.25449999E+02 -0.15166E+05
 0.25499998E+02 -0.50286E+04
 0.25549999E+02 -0.17760E+05
 0.25599998E+02 -0.25534E+05
 0.25649998E+02 -0.25361E+05
 0.25699999E+02 -0.29413E+05
 0.25749998E+02 -0.17898E+05
 0.25799999E+02 -0.14260E+05
 0.25849998E+02 -0.13452E+05
 0.25899998E+02 -0.19882E+05
 0.25949999E+02 -0.26795E+05
 0.25999998E+02 -0.31105E+05
 0.26049999E+02 -0.24765E+05
 0.26099998E+02 -0.15469E+05
 0.26149998E+02 -0.20911E+05
 0.26199999E+02 -0.15925E+05
 0.26249998E+02 -0.20186E+05
 0.26299999E+02 -0.29556E+05
 0.26349998E+02 -0.26992E+05
 0.26399998E+02 -0.20584E+05
 0.26449999E+02 -0.11525E+05
 0.26499998E+02 -0.16565E+05
 0.26549999E+02 -0.18022E+05
 0.26599998E+02 -0.19366E+05
 0.26649998E+02 -0.21367E+05
 0.26699999E+02 -0.22313E+05
 0.26749998E+02 -0.19363E+05
 0.26799999E+02 -0.14935E+05
 0.26849998E+02 -0.16849E+05
 0.26899998E+02 -0.14755E+05
 0.26949999E+02 -0.14367E+05
 0.26999998E+02 -0.18007E+05
 0.27049997E+02 -0.22344E+05
 0.27099998E+02 -0.21386E+05
 0.27149998E+02 -0.20786E+05
 0.27199999E+02 -0.24447E+05
 0.27249998E+02 -0.24320E+05
 0.27299997E+02 -0.30673E+05
 0.27349998E+02 -0.32872E+05
 0.27399998E+02 -0.26045E+05
 0.27449999E+02 -0.18324E+05
 0.27499998E+02 -0.11708E+05
 0.27549997E+02 -0.15563E+05
 0.27599998E+02 -0.14706E+05
 0.27649998E+02 -0.21153E+05
 0.27699999E+02 -0.25298E+05
 0.27749998E+02 -0.23029E+05
 0.27799997E+02 -0.16348E+05
 0.27849998E+02 -0.13085E+05
 0.27899998E+02 -0.19321E+05
 0.27949999E+02 -0.18766E+05
 0.27999998E+02 -0.25174E+05
 0.28049997E+02 -0.21023E+05
 0.28099998E+02 -0.18927E+05
 0.28149998E+02 -0.17250E+05
 0.28199999E+02 -0.11019E+05
 0.28249998E+02 -0.15795E+05
 0.28299997E+02 -0.22026E+05
 0.28349998E+02 -0.22735E+05
 0.28399998E+02 -0.24526E+05
 0.28449999E+02 -0.28525E+05
 0.28499998E+02 -0.26676E+05
 0.28549997E+02 -0.34089E+05
 0.28599998E+02 -0.33070E+05
 0.28649998E+02 -0.18148E+05
 0.28699999E+02 -0.10909E+05
 0.28749998E+02 -0.97561E+04
 0.28799997E+02 -0.11969E+05
 0.28849998E+02 -0.15729E+05
 0.28899998E+02 -0.25630E+05
 0.28949999E+02 -0.29999E+05
 0.28999998E+02 -0.29288E+05
 0.29049997E+02 -0.28256E+05
 0.29099998E+02 -0.22320E+05
 0.29149998E+02 -0.18195E+05
 0.29199999E+02 -0.12245E+05
 0.29249998E+02 -0.10045E+05
 0.29299997E+02 -0.11893E+05
 0.29349998E+02 -0.15189E+05
 0.29399998E+02 -0.22025E+05
 0.29449999E+02 -0.25018E+05
 0.29499998E+02 -0.22239E+05
 0.29549997E+02 -0.19895E+05
 0.29599998E+02 -0.20462E+05
 0.29649998E+02 -0.22624E+05
 0.29699999E+02 -0.22005E+05
 0.29749998E+02 -0.22032E+05
 0.29799997E+02 -0.25174E+05
 0.29849998E+02 -0.26574E+05
 0.29899998E+02 -0.32354E+05
 0.29949999E+02 -0.30594E+05
 0.29999998E+02 -0.23835E+05
 0.30049999E+02 -0.16928E+05
 0.30099998E+02 -0.68869E+04
 0.30149998E+02 -0.54519E+04
 0.30199997E+02 -0.55777E+04
 0.30249996E+02 -0.79160E+04
 0.30299999E+02 -0.13538E+05
 0.30349998E+02 -0.18386E+05
 0.30399998E+02 -0.20221E+05
 0.30449997E+02 -0.21273E+05
 0.30499996E+02 -0.21806E+05
 0.30549999E+02 -0.18182E+05
 0.30599998E+02 -0.18884E+05
 0.30649998E+02 -0.19234E+05
 0.30699997E+02 -0.22425E+05
 0.30749996E+02 -0.24906E+05
 0.30799999E+02 -0.23353E+05
 0.30849998E+02 -0.24702E+05
 0.30899998E+02 -0.24246E+05
 0.30949997E+02 -0.27465E+05
 0.30999996E+02 -0.22664E+05
 0.31049999E+02 -0.19075E+05
 0.31099998E+02 -0.17212E+05
 0.31149998E+02 -0.14836E+05
 0.31199997E+02 -0.13934E+05
 0.31249996E+02 -0.11455E+05
 0.31299999E+02 -0.14413E+05
 0.31349998E+02 -0.11580E+05
 0.31399998E+02 -0.12079E+05
 0.31449997E+02 -0.17235E+05
 0.31499996E+02 -0.18238E+05
 0.31549999E+02 -0.25310E+05
 0.31599998E+02 -0.26452E+05
 0.31649998E+02 -0.29643E+05
 0.31699997E+02 -0.35017E+05
 0.31749996E+02 -0.29359E+05
 0.31799999E+02 -0.30631E+05
 0.31849998E+02 -0.26260E+05
 0.31899998E+02 -0.23640E+05
 0.31949997E+02 -0.24439E+05
 0.31999996E+02 -0.25806E+05
 0.32049999E+02 -0.28833E+05
 0.32099998E+02 -0.24493E+05
 0.32149998E+02 -0.22902E+05
 0.32199997E+02 -0.21690E+05
 0.32249996E+02 -0.20378E+05
 0.32299999E+02 -0.18102E+05
 0.32349998E+02 -0.14669E+05
 0.32399998E+02 -0.14047E+05
 0.32449997E+02 -0.16961E+05
 0.32499996E+02 -0.16464E+05
 0.32549999E+02 -0.14759E+05
 0.32599998E+02 -0.13672E+05
 0.32649998E+02 -0.11302E+05
 0.32699997E+02 -0.99640E+04
 0.32749996E+02 -0.16374E+05
 0.32799999E+02 -0.21391E+05
 0.32849998E+02 -0.21067E+05
 0.32899998E+02 -0.22787E+05
 0.32949997E+02 -0.19108E+05
 0.32999996E+02 -0.19980E+05
 0.33049999E+02 -0.21796E+05
 0.33099998E+02 -0.20745E+05
 0.33149998E+02 -0.20575E+05
 0.33199997E+02 -0.21299E+05
 0.33249996E+02 -0.24495E+05
 0.33299999E+02 -0.26472E+05
 0.33349998E+02 -0.24739E+05
 0.33399998E+02 -0.21907E+05
 0.33449997E+02 -0.22759E+05
 0.33499996E+02 -0.18937E+05
 0.33549999E+02 -0.14802E+05
 0.33599998E+02 -0.15948E+05
 0.33649998E+02 -0.17141E+05
 0.33699997E+02 -0.22461E+05
 0.33749996E+02 -0.27383E+05
 0.33799999E+02 -0.29122E+05
 0.33849998E+02 -0.28429E+05
 0.33899998E+02 -0.25142E+05
 0.33949997E+02 -0.20862E+05
 0.33999996E+02 -0.18906E+05
 0.34049999E+02 -0.16171E+05
 0.34099998E+02 -0.12288E+05
 0.34149998E+02 -0.11764E+05
 0.34199997E+02 -0.11106E+05
 0.34249996E+02 -0.99309E+04
 0.34299999E+02 -0.12049E+05
 0.34349998E+02 -0.14798E+05
 0.34399998E+02 -0.16633E+05
 0.34449997E+02 -0.21680E+05
 0.34499996E+02 -0.23235E+05
 0.34549999E+02 -0.26335E+05
 0.34599998E+02 -0.31366E+05
 0.34649998E+02 -0.34091E+05
 0.34699997E+02 -0.35944E+05
 0.34749996E+02 -0.32270E+05
 0.34799999E+02 -0.26322E+05
 0.34849998E+02 -0.21435E+05
 0.34899998E+02 -0.17553E+05
 0.34949997E+02 -0.16023E+05
 0.34999996E+02 -0.14527E+05
 0.35049999E+02 -0.14070E+05
 0.35099998E+02 -0.12476E+05
 0.35149998E+02 -0.94822E+04
 0.35199997E+02 -0.72344E+04
 0.35249996E+02 -0.82394E+04
 0.35299999E+02 -0.12532E+05
 0.35349998E+02 -0.15100E+05
 0.35399998E+02 -0.21313E+05
 0.35449997E+02 -0.22270E+05
 0.35499996E+02 -0.23651E+05
 0.35549999E+02 -0.27072E+05
 0.35599998E+02 -0.29331E+05
 0.35649998E+02 -0.32859E+05
 0.35699997E+02 -0.34251E+05
 0.35749996E+02 -0.35489E+05
 0.35799999E+02 -0.30391E+05
 0.35849998E+02 -0.22984E+05
 0.35899998E+02 -0.18879E+05
 0.35949997E+02 -0.18120E+05
 0.35999996E+02 -0.13245E+05
 0.36049999E+02 -0.13232E+05
 0.36099998E+02 -0.18131E+05
 0.36149998E+02 -0.22586E+05
 0.36199997E+02 -0.28101E+05
 0.36249996E+02 -0.29951E+05
 0.36299999E+02 -0.28695E+05
 0.36349998E+02 -0.23299E+05
 0.36399998E+02 -0.16596E+05
 0.36449997E+02 -0.98721E+04
 0.36499996E+02 -0.86466E+04
 0.36549999E+02 -0.83593E+04
 0.36599998E+02 -0.12649E+05
 0.36649998E+02 -0.23084E+05
 0.36699997E+02 -0.26244E+05
 0.36749996E+02 -0.26603E+05
 0.36799999E+02 -0.26350E+05
 0.36849998E+02 -0.22150E+05
 0.36899998E+02 -0.16877E+05
 0.36949997E+02 -0.14351E+05
 0.36999996E+02 -0.13573E+05
 0.37049999E+02 -0.15072E+05
 0.37099998E+02 -0.16250E+05
 0.37149998E+02 -0.16033E+05
 0.37199997E+02 -0.16970E+05
 0.37249996E+02 -0.19148E+05
 0.37299999E+02 -0.22389E+05
 0.37349998E+02 -0.26899E+05
 0.37399998E+02 -0.28715E+05
 0.37449997E+02 -0.26707E+05
 0.37499996E+02 -0.24837E+05
 0.37549999E+02 -0.20974E+05
 0.37599998E+02 -0.18219E+05
 0.37649998E+02 -0.17115E+05
 0.37699997E+02 -0.18957E+05
 0.37749996E+02 -0.21799E+05
 0.37799999E+02 -0.22699E+05
 0.37849998E+02 -0.21333E+05
 0.37899998E+02 -0.18464E+05
 0.37949997E+02 -0.15889E+05
 0.37999996E+02 -0.18151E+05
 0.38049999E+02 -0.24081E+05
 0.38099998E+02 -0.26642E+05
 0.38149998E+02 -0.27654E+05
 0.38199997E+02 -0.26705E+05
 0.38249996E+02 -0.20901E+05
 0.38299999E+02 -0.14808E+05
 0.38349998E+02 -0.12094E+05
 0.38399998E+02 -0.10803E+05
 0.38449997E+02 -0.11401E+05
 0.38499996E+02 -0.12361E+05
 0.38549999E+02 -0.16333E+05
 0.38599998E+02 -0.20852E+05
 0.38649998E+02 -0.24836E+05
 0.38699997E+02 -0.28596E+05
 0.38749996E+02 -0.30547E+05
 0.38799999E+02 -0.30006E+05
 0.38849998E+02 -0.27164E+05
 0.38899998E+02 -0.21677E+05
 0.38949997E+02 -0.17697E+05
 0.38999996E+02 -0.15547E+05
 0.39049999E+02 -0.15055E+05
 0.39099998E+02 -0.16655E+05
 0.39149998E+02 -0.16197E+05
 0.39199997E+02 -0.17936E+05
 0.39249996E+02 -0.17364E+05
 0.39299999E+02 -0.18343E+05
 0.39349998E+02 -0.19991E+05
 0.39399998E+02 -0.19235E+05
 0.39449997E+02 -0.18355E+05
 0.39499996E+02 -0.19117E+05
 0.39549999E+02 -0.19720E+05
 0.39599998E+02 -0.18630E+05
 0.39649998E+02 -0.19711E+05
 0.39699997E+02 -0.21164E+05
 0.39749996E+02 -0.23056E+05
 0.39799999E+02 -0.23851E+05
 0.39849998E+02 -0.23473E+05
 0.39899998E+02 -0.23126E+05
 0.39949997E+02 -0.22378E+05
 0.39999996E+02 -0.21851E+05
 0.40049999E+02 -0.23860E+05
 0.40099998E+02 -0.23254E+05
 0.40149998E+02 -0.22366E+05
 0.40199997E+02 -0.24488E+05
 0.40249996E+02 -0.25678E+05
 0.40299999E+02 -0.25869E+05
 0.40349998E+02 -0.24764E+05
 0.40399998E+02 -0.22579E+05
 0.40449997E+02 -0.20036E+05
 0.40499996E+02 -0.18481E+05
 0.40549999E+02 -0.17308E+05
 0.40599998E+02 -0.16760E+05
 0.40649998E+02 -0.15141E+05
 0.40699997E+02 -0.17215E+05
 0.40749996E+02 -0.22573E+05
 0.40799999E+02 -0.25091E+05
 0.40849998E+02 -0.24222E+05
 0.40899998E+02 -0.22804E+05
 0.40949997E+02 -0.21636E+05
 0.40999996E+02 -0.19679E+05
 0.41049999E+02 -0.17615E+05
 0.41099998E+02 -0.15949E+05
 0.41149998E+02 -0.15379E+05
 0.41199997E+02 -0.13216E+05
 0.41249996E+02 -0.13389E+05
 0.41299999E+02 -0.15586E+05
 0.41349998E+02 -0.17936E+05
 0.41399998E+02 -0.17345E+05
 0.41449997E+02 -0.16454E+05
 0.41499996E+02 -0.16086E+05
 0.41549999E+02 -0.15509E+05
 0.41599998E+02 -0.19922E+05
 0.41649998E+02 -0.23200E+05
 0.41699997E+02 -0.25017E+05
 0.41749996E+02 -0.26117E+05
 0.41799999E+02 -0.25741E+05
 0.41849998E+02 -0.24405E+05
 0.41899998E+02 -0.22156E+05
 0.41949997E+02 -0.19745E+05
 0.41999996E+02 -0.17554E+05
 0.42049999E+02 -0.15975E+05
 0.42099998E+02 -0.13978E+05
 0.42149998E+02 -0.12062E+05
 0.42199997E+02 -0.12567E+05
 0.42249996E+02 -0.15393E+05
 0.42299999E+02 -0.20725E+05
 0.42349998E+02 -0.26877E+05
 0.42399998E+02 -0.29730E+05
 0.42449997E+02 -0.30489E+05
 0.42499996E+02 -0.30797E+05
 0.42549999E+02 -0.28624E+05
 0.42599998E+02 -0.25228E+05
 0.42649998E+02 -0.23518E+05
 0.42699997E+02 -0.21613E+05
 0.42749996E+02 -0.21270E+05
 0.42799995E+02 -0.18982E+05
 0.42849998E+02 -0.16159E+05
 0.42899998E+02 -0.16983E+05
 0.42949997E+02 -0.18553E+05
 0.42999996E+02 -0.21940E+05
 0.43049995E+02 -0.25332E+05
 0.43099998E+02 -0.27761E+05
 0.43149998E+02 -0.28579E+05
 0.43199997E+02 -0.25818E+05
 0.43249996E+02 -0.21766E+05
 0.43299995E+02 -0.18193E+05
 0.43349998E+02 -0.13446E+05
 0.43399998E+02 -0.98900E+04
 0.43449997E+02 -0.85869E+04
 0.43499996E+02 -0.90425E+04
 0.43549995E+02 -0.10834E+05
 0.43599998E+02 -0.13367E+05
 0.43649998E+02 -0.15517E+05
 0.43699997E+02 -0.18676E+05
 0.43749996E+02 -0.22405E+05
 0.43799995E+02 -0.24874E+05
 0.43849998E+02 -0.26709E+05
 0.43899998E+02 -0.28150E+05
 0.43949997E+02 -0.29438E+05
 0.43999996E+02 -0.26499E+05
 0.44049995E+02 -0.22307E+05
 0.44099998E+02 -0.18939E+05
 0.44149998E+02 -0.17752E+05
 0.44199997E+02 -0.17859E+05
 0.44249996E+02 -0.19307E+05
 0.44299995E+02 -0.22010E+05
 0.44349998E+02 -0.23290E+05
 0.44399998E+02 -0.24336E+05
 0.44449997E+02 -0.23152E+05
 0.44499996E+02 -0.21547E+05
 0.44549995E+02 -0.20731E+05
 0.44599998E+02 -0.18670E+05
 0.44649998E+02 -0.17142E+05
 0.44699997E+02 -0.17750E+05
 0.44749996E+02 -0.18145E+05
 0.44799995E+02 -0.17184E+05
 0.44849998E+02 -0.18084E+05
 0.44899998E+02 -0.19451E+05
 0.44949997E+02 -0.19194E+05
 0.44999996E+02 -0.20524E+05
 0.45049995E+02 -0.21540E+05
 0.45099998E+02 -0.21778E+05
 0.45149998E+02 -0.21063E+05
 0.45199997E+02 -0.21000E+05
 0.45249996E+02 -0.21249E+05
 0.45299995E+02 -0.19816E+05
 0.45349998E+02 -0.19560E+05
 0.45399998E+02 -0.19540E+05
 0.45449997E+02 -0.19083E+05
 0.45499996E+02 -0.18714E+05
 0.45549995E+02 -0.18472E+05
 0.45599998E+02 -0.18450E+05
 0.45649998E+02 -0.18908E+05
 0.45699997E+02 -0.18982E+05
 0.45749996E+02 -0.18844E+05
 0.45799995E+02 -0.19323E+05
 0.45849998E+02 -0.19044E+05
 0.45899998E+02 -0.18815E+05
 0.45949997E+02 -0.19501E+05
 0.45999996E+02 -0.20884E+05
 0.46049995E+02 -0.22188E+05
 0.46099998E+02 -0.23189E+05
 0.46149998E+02 -0.25134E+05
 0.46199997E+02 -0.26080E+05
 0.46249996E+02 -0.26549E+05
 0.46299995E+02 -0.25664E+05
 0.46349998E+02 -0.23601E+05
 0.46399998E+02 -0.21624E+05
 0.46449997E+02 -0.19583E+05
 0.46499996E+02 -0.17353E+05
 0.46549995E+02 -0.15719E+05
 0.46599998E+02 -0.16240E+05
 0.46649998E+02 -0.17504E+05
 0.46699997E+02 -0.19167E+05
 0.46749996E+02 -0.19910E+05
 0.46799995E+02 -0.20567E+05
 0.46849998E+02 -0.20943E+05
 0.46899998E+02 -0.21355E+05
 0.46949997E+02 -0.22721E+05
 0.46999996E+02 -0.23444E+05
 0.47049995E+02 -0.22060E+05
 0.47099998E+02 -0.20397E+05
 0.47149998E+02 -0.19645E+05
 0.47199997E+02 -0.19505E+05
 0.47249996E+02 -0.20468E+05
 0.47299995E+02 -0.21282E+05
 0.47349998E+02 -0.22335E+05
 0.47399998E+02 -0.23069E+05
 0.47449997E+02 -0.22384E+05
 0.47499996E+02 -0.20940E+05
 0.47549995E+02 -0.19419E+05
 0.47599998E+02 -0.18714E+05
 0.47649998E+02 -0.18788E+05
 0.47699997E+02 -0.19321E+05
 0.47749996E+02 -0.19669E+05
 0.47799995E+02 -0.19700E+05
 0.47849998E+02 -0.19976E+05
 0.47899998E+02 -0.20159E+05
 0.47949997E+02 -0.20414E+05
 0.47999996E+02 -0.19817E+05
 0.48049995E+02 -0.20179E+05
 0.48099998E+02 -0.20546E+05
 0.48149998E+02 -0.19769E+05
 0.48199997E+02 -0.19518E+05
 0.48249996E+02 -0.18924E+05
 0.48299995E+02 -0.18583E+05
 0.48349998E+02 -0.19178E+05
 0.48399998E+02 -0.19757E+05
 0.48449997E+02 -0.20123E+05
 0.48499996E+02 -0.20827E+05
 0.48549995E+02 -0.21256E+05
 0.48599998E+02 -0.21797E+05
 0.48649998E+02 -0.21075E+05
 0.48699997E+02 -0.19306E+05
 0.48749996E+02 -0.18248E+05
 0.48799995E+02 -0.17707E+05
 0.48849998E+02 -0.18310E+05
 0.48899998E+02 -0.19179E+05
 0.48949997E+02 -0.20227E+05
 0.48999996E+02 -0.21953E+05
 0.49049995E+02 -0.22955E+05
 0.49099998E+02 -0.23497E+05
 0.49149998E+02 -0.23413E+05
 0.49199997E+02 -0.21981E+05
 0.49249996E+02 -0.19963E+05
 0.49299995E+02 -0.17636E+05
 0.49349998E+02 -0.16307E+05
 0.49399998E+02 -0.15741E+05
 0.49449997E+02 -0.15705E+05
 0.49499996E+02 -0.16833E+05
 0.49549995E+02 -0.18661E+05
 0.49599998E+02 -0.21882E+05
 0.49649998E+02 -0.24578E+05
 0.49699997E+02 -0.26116E+05
 0.49749996E+02 -0.26094E+05
 0.49799995E+02 -0.24216E+05
 0.49849998E+02 -0.21999E+05
 0.49899998E+02 -0.19881E+05
 0.49949997E+02 -0.18960E+05
 0.49999996E+02 -0.19452E+05
 0.50049995E+02 -0.20138E+05
 0.50099998E+02 -0.20356E+05
 0.50149998E+02 -0.20742E+05
 0.50199997E+02 -0.20738E+05
 0.50249996E+02 -0.20096E+05
 0.50299995E+02 -0.19814E+05
 0.50349998E+02 -0.19335E+05
 0.50399998E+02 -0.19750E+05
 0.50449997E+02 -0.21252E+05
 0.50499996E+02 -0.23319E+05
 0.50549995E+02 -0.25319E+05
 0.50599998E+02 -0.25623E+05
 0.50649998E+02 -0.25177E+05
 0.50699997E+02 -0.23673E+05
 0.50749996E+02 -0.21953E+05
 0.50799995E+02 -0.20361E+05
 0.50849998E+02 -0.18694E+05
 0.50899998E+02 -0.16831E+05
 0.50949997E+02 -0.15962E+05
 0.50999996E+02 -0.15449E+05
 0.51049995E+02 -0.15989E+05
 0.51099998E+02 -0.17547E+05
 0.51149998E+02 -0.18288E+05
 0.51199997E+02 -0.19749E+05
 0.51249996E+02 -0.20640E+05
 0.51299995E+02 -0.20753E+05
 0.51349998E+02 -0.20061E+05
 0.51399998E+02 -0.18944E+05
 0.51449997E+02 -0.18403E+05
 0.51499996E+02 -0.18117E+05
 0.51549995E+02 -0.18423E+05
 0.51599998E+02 -0.18730E+05
 0.51649998E+02 -0.18894E+05
 0.51699997E+02 -0.20012E+05
 0.51749996E+02 -0.20986E+05
 0.51799995E+02 -0.22441E+05
 0.51849998E+02 -0.23826E+05
 0.51899998E+02 -0.24429E+05
 0.51949997E+02 -0.24108E+05
 0.51999996E+02 -0.22651E+05
 0.52049995E+02 -0.22089E+05
 0.52099998E+02 -0.20932E+05
 0.52149998E+02 -0.19893E+05
 0.52199997E+02 -0.19130E+05
 0.52249996E+02 -0.18790E+05
 0.52299995E+02 -0.19223E+05
 0.52349998E+02 -0.19589E+05
 0.52399998E+02 -0.20390E+05
 0.52449997E+02 -0.21217E+05
 0.52499996E+02 -0.21928E+05
 0.52549995E+02 -0.21273E+05
 0.52599998E+02 -0.19858E+05
 0.52649998E+02 -0.18700E+05
 0.52699997E+02 -0.18190E+05
 0.52749996E+02 -0.17721E+05
 0.52799995E+02 -0.17544E+05
 0.52849998E+02 -0.17756E+05
 0.52899998E+02 -0.18477E+05
 0.52949997E+02 -0.20061E+05
 0.52999996E+02 -0.21109E+05
 0.53049995E+02 -0.22336E+05
 0.53099998E+02 -0.23774E+05
 0.53149998E+02 -0.24777E+05
 0.53199997E+02 -0.25096E+05
 0.53249996E+02 -0.24510E+05
 0.53299995E+02 -0.24145E+05
 0.53349998E+02 -0.23635E+05
 0.53399998E+02 -0.22290E+05
 0.53449997E+02 -0.20653E+05
 0.53499996E+02 -0.19369E+05
 0.53549995E+02 -0.18881E+05
 0.53599998E+02 -0.18975E+05
 0.53649998E+02 -0.19828E+05
 0.53699997E+02 -0.20244E+05
 0.53749996E+02 -0.20096E+05
 0.53799995E+02 -0.20046E+05
 0.53849998E+02 -0.19433E+05
 0.53899998E+02 -0.18819E+05
 0.53949997E+02 -0.18872E+05
 0.53999996E+02 -0.18802E+05
 0.54049995E+02 -0.18892E+05
 0.54099998E+02 -0.19363E+05
 0.54149998E+02 -0.18981E+05
 0.54199997E+02 -0.18762E+05
 0.54249996E+02 -0.18833E+05
 0.54299995E+02 -0.19088E+05
 0.54349998E+02 -0.19783E+05
 0.54399998E+02 -0.19860E+05
 0.54449997E+02 -0.20238E+05
 0.54499996E+02 -0.20668E+05
 0.54549995E+02 -0.20558E+05
 0.54599998E+02 -0.20646E+05
 0.54649998E+02 -0.20286E+05
 0.54699997E+02 -0.20313E+05
 0.54749996E+02 -0.20265E+05
 0.54799995E+02 -0.20142E+05
 0.54849998E+02 -0.20545E+05
 0.54899998E+02 -0.20724E+05
 0.54949997E+02 -0.20819E+05
 0.54999996E+02 -0.20635E+05
 0.55049995E+02 -0.20446E+05
 0.55099998E+02 -0.20510E+05
 0.55149998E+02 -0.20649E+05
 0.55199997E+02 -0.20637E+05
 0.55249996E+02 -0.21214E+05
 0.55299995E+02 -0.21409E+05
 0.55349998E+02 -0.21007E+05
 0.55399998E+02 -0.20873E+05
 0.55449997E+02 -0.20886E+05
 0.55499996E+02 -0.20598E+05
 0.55549995E+02 -0.20218E+05
 0.55599998E+02 -0.19883E+05
 0.55649998E+02 -0.19404E+05
 0.55699997E+02 -0.19376E+05
 0.55749996E+02 -0.19776E+05
 0.55799995E+02 -0.19851E+05
 0.55849995E+02 -0.19388E+05
 0.55899998E+02 -0.19755E+05
 0.55949997E+02 -0.19665E+05
 0.55999996E+02 -0.19520E+05
 0.56049995E+02 -0.19267E+05
 0.56099995E+02 -0.18886E+05
 0.56149998E+02 -0.19353E+05
 0.56199997E+02 -0.19729E+05
 0.56249996E+02 -0.20040E+05
 0.56299995E+02 -0.20689E+05
 0.56349995E+02 -0.21192E+05
 0.56399998E+02 -0.21444E+05
 0.56449997E+02 -0.22089E+05
 0.56499996E+02 -0.22599E+05
 0.56549995E+02 -0.23129E+05
 0.56599995E+02 -0.22988E+05
 0.56649998E+02 -0.22157E+05
 0.56699997E+02 -0.21291E+05
 0.56749996E+02 -0.20237E+05
 0.56799995E+02 -0.19768E+05
 0.56849995E+02 -0.19632E+05
 0.56899998E+02 -0.20117E+05
 0.56949997E+02 -0.20626E+05
 0.56999996E+02 -0.20438E+05
 0.57049995E+02 -0.20477E+05
 0.57099995E+02 -0.20215E+05
 0.57149998E+02 -0.20356E+05
 0.57199997E+02 -0.20102E+05
 0.57249996E+02 -0.19652E+05
 0.57299995E+02 -0.19440E+05
 0.57349995E+02 -0.18800E+05
 0.57399998E+02 -0.18306E+05
 0.57449997E+02 -0.17993E+05
 0.57499996E+02 -0.17857E+05
 0.57549995E+02 -0.18199E+05
 0.57599995E+02 -0.18853E+05
 0.57649998E+02 -0.19707E+05
 0.57699997E+02 -0.20779E+05
 0.57749996E+02 -0.21934E+05
 0.57799995E+02 -0.22818E+05
 0.57849995E+02 -0.22821E+05
 0.57899998E+02 -0.23099E+05
 0.57949997E+02 -0.23346E+05
 0.57999996E+02 -0.23208E+05
 0.58049995E+02 -0.23250E+05
 0.58099995E+02 -0.23174E+05
 0.58149998E+02 -0.23010E+05
 0.58199997E+02 -0.22671E+05
 0.58249996E+02 -0.22004E+05
 0.58299995E+02 -0.21174E+05
 0.58349995E+02 -0.20349E+05
 0.58399998E+02 -0.19916E+05
 0.58449997E+02 -0.19786E+05
 0.58499996E+02 -0.19695E+05
 0.58549995E+02 -0.19216E+05
 0.58599995E+02 -0.18367E+05
 0.58649998E+02 -0.17786E+05
 0.58699997E+02 -0.17776E+05
 0.58749996E+02 -0.18135E+05
 0.58799995E+02 -0.19015E+05
 0.58849995E+02 -0.19900E+05
 0.58899998E+02 -0.20184E+05
 0.58949997E+02 -0.19952E+05
 0.58999996E+02 -0.19507E+05
 0.59049995E+02 -0.18846E+05
 0.59099995E+02 -0.18287E+05
 0.59149998E+02 -0.18330E+05
 0.59199997E+02 -0.18643E+05
 0.59249996E+02 -0.19401E+05
 0.59299995E+02 -0.19385E+05
 0.59349995E+02 -0.19136E+05
 0.59399998E+02 -0.19371E+05
 0.59449997E+02 -0.19728E+05
 0.59499996E+02 -0.20374E+05
 0.59549995E+02 -0.20849E+05
 0.59599995E+02 -0.20512E+05
 0.59649998E+02 -0.20553E+05
 0.59699997E+02 -0.21020E+05
 0.59749996E+02 -0.20890E+05
 0.59799995E+02 -0.20747E+05
 0.59849995E+02 -0.20146E+05
 0.59899998E+02 -0.19734E+05
 0.59949997E+02 -0.19688E+05
 0.59999996E+02 -0.19867E+05
 0.60049995E+02 -0.20325E+05
 0.60099995E+02 -0.20962E+05
 0.60149998E+02 -0.21751E+05
 0.60199997E+02 -0.21606E+05
 0.60249996E+02 -0.21483E+05
 0.60299995E+02 -0.21526E+05
 0.60349995E+02 -0.21811E+05
 0.60399998E+02 -0.22330E+05
 0.60449997E+02 -0.22687E+05
 0.60499996E+02 -0.23040E+05
 0.60549995E+02 -0.22749E+05
 0.60599995E+02 -0.22641E+05
 0.60649998E+02 -0.22087E+05
 0.60699997E+02 -0.21293E+05
 0.60749996E+02 -0.20824E+05
 0.60799995E+02 -0.20197E+05
 0.60849995E+02 -0.19780E+05
 0.60899998E+02 -0.19507E+05
 0.60949997E+02 -0.19427E+05
 0.60999996E+02 -0.19595E+05
 0.61049995E+02 -0.19622E+05
 0.61099995E+02 -0.20093E+05
 0.61149998E+02 -0.20836E+05
 0.61199997E+02 -0.21114E+05
 0.61249996E+02 -0.21107E+05
 0.61299995E+02 -0.21253E+05
 0.61349995E+02 -0.21394E+05
 0.61399998E+02 -0.21215E+05
 0.61449997E+02 -0.20790E+05
 0.61499996E+02 -0.20161E+05
 0.61549995E+02 -0.19618E+05
 0.61599995E+02 -0.19132E+05
 0.61649998E+02 -0.19192E+05
 0.61699997E+02 -0.19499E+05
 0.61749996E+02 -0.19534E+05
 0.61799995E+02 -0.19324E+05
 0.61849995E+02 -0.18897E+05
 0.61899998E+02 -0.18348E+05
 0.61949997E+02 -0.18245E+05
 0.61999996E+02 -0.18464E+05
 0.62049995E+02 -0.18886E+05
 0.62099998E+02 -0.19598E+05
 0.62149994E+02 -0.20246E+05
 0.62199997E+02 -0.21129E+05
 0.62249992E+02 -0.21392E+05
 0.62299995E+02 -0.21026E+05
 0.62349998E+02 -0.20802E+05
 0.62399994E+02 -0.20382E+05
 0.62449997E+02 -0.19848E+05
 0.62499992E+02 -0.19753E+05
 0.62549995E+02 -0.20134E+05
 0.62599998E+02 -0.20425E+05
 0.62649994E+02 -0.20618E+05
 0.62699997E+02 -0.20831E+05
 0.62749992E+02 -0.20678E+05
 0.62799995E+02 -0.20280E+05
 0.62849998E+02 -0.20292E+05
 0.62899994E+02 -0.20691E+05
 0.62949997E+02 -0.20805E+05
 0.62999992E+02 -0.21104E+05
 0.63049995E+02 -0.21338E+05
 0.63099998E+02 -0.21587E+05
 0.63149994E+02 -0.22103E+05
 0.63199997E+02 -0.22399E+05
 0.63249992E+02 -0.22533E+05
 0.63299995E+02 -0.22376E+05
 0.63349998E+02 -0.21977E+05
 0.63399994E+02 -0.21374E+05
 0.63449997E+02 -0.20946E+05
 0.63499992E+02 -0.20550E+05
 0.63549995E+02 -0.20211E+05
 0.63599998E+02 -0.20267E+05
 0.63649994E+02 -0.20196E+05
 0.63699997E+02 -0.19899E+05
 0.63749992E+02 -0.19665E+05
 0.63799995E+02 -0.19381E+05
 0.63849998E+02 -0.18973E+05
 0.63899994E+02 -0.18562E+05
 0.63949997E+02 -0.18453E+05
 0.63999992E+02 -0.18294E+05
 0.64049995E+02 -0.18300E+05
 0.64099998E+02 -0.18896E+05
 0.64149994E+02 -0.19329E+05
 0.64199997E+02 -0.19452E+05
 0.64249992E+02 -0.19780E+05
 0.64299995E+02 -0.19976E+05
 0.64349998E+02 -0.20143E+05
 0.64399994E+02 -0.20369E+05
 0.64449997E+02 -0.20486E+05
 0.64499992E+02 -0.20136E+05
 0.64549995E+02 -0.19580E+05
 0.64599998E+02 -0.19281E+05
 0.64649994E+02 -0.19102E+05
 0.64699997E+02 -0.19212E+05
 0.64749992E+02 -0.19481E+05
 0.64799995E+02 -0.19382E+05
 0.64849998E+02 -0.18913E+05
 0.64899994E+02 -0.18690E+05
 0.64949997E+02 -0.18696E+05
 0.64999992E+02 -0.19112E+05
 0.65049995E+02 -0.19935E+05
 0.65099998E+02 -0.21228E+05
 0.65149994E+02 -0.22129E+05
 0.65199997E+02 -0.23003E+05
 0.65249992E+02 -0.23752E+05
 0.65299995E+02 -0.23941E+05
 0.65349998E+02 -0.23622E+05
 0.65399994E+02 -0.22942E+05
 0.65449997E+02 -0.22345E+05
 0.65499992E+02 -0.21440E+05
 0.65549995E+02 -0.20950E+05
 0.65599998E+02 -0.20827E+05
 0.65649994E+02 -0.20857E+05
 0.65699997E+02 -0.20822E+05
 0.65749992E+02 -0.20663E+05
 0.65799995E+02 -0.20825E+05
 0.65849998E+02 -0.21243E+05
 0.65899994E+02 -0.21560E+05
 0.65949997E+02 -0.21728E+05
 0.65999992E+02 -0.21617E+05
 0.66049995E+02 -0.21144E+05
 0.66099998E+02 -0.20418E+05
 0.66149994E+02 -0.20028E+05
 0.66199997E+02 -0.19851E+05
 0.66249992E+02 -0.19437E+05
 0.66299995E+02 -0.19107E+05
 0.66349998E+02 -0.18609E+05
 0.66399994E+02 -0.18285E+05
 0.66449997E+02 -0.18032E+05
 0.66499992E+02 -0.17980E+05
 0.66549995E+02 -0.18451E+05
 0.66599998E+02 -0.19129E+05
 0.66649994E+02 -0.19890E+05
 0.66699997E+02 -0.20528E+05
 0.66749992E+02 -0.20778E+05
 0.66799995E+02 -0.20543E+05
 0.66849998E+02 -0.20339E+05
 0.66899994E+02 -0.19969E+05
 0.66949997E+02 -0.19499E+05
 0.66999992E+02 -0.19397E+05
 0.67049995E+02 -0.19547E+05
 0.67099998E+02 -0.19456E+05
 0.67149994E+02 -0.19548E+05
 0.67199997E+02 -0.19893E+05
 0.67249992E+02 -0.20556E+05
 0.67299995E+02 -0.21501E+05
 0.67349998E+02 -0.22169E+05
 0.67399994E+02 -0.22804E+05
 0.67449997E+02 -0.23073E+05
 0.67499992E+02 -0.22941E+05
 0.67549995E+02 -0.22605E+05
 0.67599998E+02 -0.22113E+05
 0.67649994E+02 -0.21460E+05
 0.67699997E+02 -0.21025E+05
 0.67749992E+02 -0.20769E+05
 0.67799995E+02 -0.20715E+05
 0.67849998E+02 -0.20861E+05
 0.67899994E+02 -0.20958E+05
 0.67949997E+02 -0.20981E+05
 0.67999992E+02 -0.20912E+05
 0.68049995E+02 -0.20736E+05
 0.68099998E+02 -0.20410E+05
 0.68149994E+02 -0.20111E+05
 0.68199997E+02 -0.19792E+05
 0.68249992E+02 -0.19460E+05
 0.68299995E+02 -0.19131E+05
 0.68349998E+02 -0.18725E+05
 0.68399994E+02 -0.18257E+05
 0.68449997E+02 -0.18041E+05
 0.68499992E+02 -0.18001E+05
 0.68549995E+02 -0.17873E+05
 0.68599998E+02 -0.18005E+05
 0.68649994E+02 -0.18524E+05
 0.68699997E+02 -0.19245E+05
 0.68749992E+02 -0.20164E+05
 0.68799995E+02 -0.21077E+05
 0.68849998E+02 -0.21734E+05
 0.68899994E+02 -0.22048E+05
 0.68949997E+02 -0.21903E+05
 0.68999992E+02 -0.21488E+05
 0.69049995E+02 -0.21236E+05
 0.69099998E+02 -0.21091E+05
 0.69149994E+02 -0.21126E+05
 0.69199997E+02 -0.21443E+05
 0.69249992E+02 -0.21557E+05
 0.69299995E+02 -0.21452E+05
 0.69349998E+02 -0.21499E+05
 0.69399994E+02 -0.21373E+05
 0.69449997E+02 -0.21205E+05
 0.69499992E+02 -0.21114E+05
 0.69549995E+02 -0.20944E+05
 0.69599998E+02 -0.20896E+05
 0.69649994E+02 -0.21020E+05
 0.69699997E+02 -0.20944E+05
 0.69749992E+02 -0.20590E+05
 0.69799995E+02 -0.20046E+05
 0.69849998E+02 -0.19327E+05
 0.69899994E+02 -0.18746E+05
 0.69949997E+02 -0.18271E+05
 0.69999992E+02 -0.18040E+05
 0.70049995E+02 -0.18424E+05
 0.70099998E+02 -0.19013E+05
 0.70149994E+02 -0.19540E+05
 0.70199997E+02 -0.20041E+05
 0.70249992E+02 -0.20086E+05
 0.70299995E+02 -0.19998E+05
 0.70349998E+02 -0.19917E+05
 0.70399994E+02 -0.19901E+05
 0.70449997E+02 -0.20260E+05
 0.70499992E+02 -0.20803E+05
 0.70549995E+02 -0.21214E+05
 0.70599998E+02 -0.21699E+05
 0.70649994E+02 -0.21862E+05
 0.70699997E+02 -0.21699E+05
 0.70749992E+02 -0.21482E+05
 0.70799995E+02 -0.20987E+05
 0.70849998E+02 -0.20551E+05
 0.70899994E+02 -0.20082E+05
 0.70949997E+02 -0.19650E+05
 0.70999992E+02 -0.19587E+05
 0.71049995E+02 -0.19622E+05
 0.71099998E+02 -0.19786E+05
 0.71149994E+02 -0.20219E+05
 0.71199997E+02 -0.20665E+05
 0.71249992E+02 -0.21079E+05
 0.71299995E+02 -0.21461E+05
 0.71349998E+02 -0.21826E+05
 0.71399994E+02 -0.22017E+05
 0.71449997E+02 -0.21879E+05
 0.71499992E+02 -0.21458E+05
 0.71549995E+02 -0.20737E+05
 0.71599998E+02 -0.20017E+05
 0.71649994E+02 -0.19565E+05
 0.71699997E+02 -0.19433E+05
 0.71749992E+02 -0.19322E+05
 0.71799995E+02 -0.19199E+05
 0.71849998E+02 -0.19281E+05
 0.71899994E+02 -0.19402E+05
 0.71949997E+02 -0.19822E+05
 0.71999992E+02 -0.20148E+05
 0.72049995E+02 -0.20497E+05
 0.72099998E+02 -0.20874E+05
 0.72149994E+02 -0.21023E+05
 0.72199997E+02 -0.21172E+05
 0.72249992E+02 -0.21100E+05
 0.72299995E+02 -0.20622E+05
 0.72349998E+02 -0.20231E+05
 0.72399994E+02 -0.20116E+05
 0.72449997E+02 -0.19921E+05
 0.72499992E+02 -0.19841E+05
 0.72549995E+02 -0.19731E+05
 0.72599998E+02 -0.19501E+05
 0.72649994E+02 -0.19294E+05
 0.72699997E+02 -0.19063E+05
 0.72749992E+02 -0.19024E+05
 0.72799995E+02 -0.19316E+05
 0.72849998E+02 -0.19682E+05
 0.72899994E+02 -0.20059E+05
 0.72949997E+02 -0.20402E+05
 0.72999992E+02 -0.20600E+05
 0.73049995E+02 -0.20699E+05
 0.73099998E+02 -0.20706E+05
 0.73149994E+02 -0.20674E+05
 0.73199997E+02 -0.20842E+05
 0.73249992E+02 -0.21036E+05
 0.73299995E+02 -0.21108E+05
 0.73349998E+02 -0.21057E+05
 0.73399994E+02 -0.20781E+05
 0.73449997E+02 -0.20326E+05
 0.73499992E+02 -0.19865E+05
 0.73549995E+02 -0.19540E+05
 0.73599998E+02 -0.19497E+05
 0.73649994E+02 -0.19677E+05
 0.73699997E+02 -0.19796E+05
 0.73749992E+02 -0.19906E+05
 0.73799995E+02 -0.20062E+05
 0.73849998E+02 -0.20151E+05
 0.73899994E+02 -0.20433E+05
 0.73949997E+02 -0.20826E+05
 0.73999992E+02 -0.21109E+05
 0.74049995E+02 -0.21399E+05
 0.74099998E+02 -0.21614E+05
 0.74149994E+02 -0.21426E+05
 0.74199997E+02 -0.21006E+05
 0.74249992E+02 -0.20829E+05
 0.74299995E+02 -0.20640E+05
 0.74349998E+02 -0.20710E+05
 0.74399994E+02 -0.20883E+05
 0.74449997E+02 -0.20964E+05
 0.74499992E+02 -0.21129E+05
 0.74549995E+02 -0.21221E+05
 0.74599998E+02 -0.21235E+05
 0.74649994E+02 -0.21128E+05
 0.74699997E+02 -0.21038E+05
 0.74749992E+02 -0.20950E+05
 0.74799995E+02 -0.20709E+05
 0.74849998E+02 -0.20474E+05
 0.74899994E+02 -0.20398E+05
 0.74949997E+02 -0.20562E+05
 0.74999992E+02 -0.20726E+05
 0.75049995E+02 -0.20705E+05
 0.75099998E+02 -0.20844E+05
 0.75149994E+02 -0.20894E+05
 0.75199997E+02 -0.20923E+05
 0.75249992E+02 -0.20828E+05
 0.75299995E+02 -0.20498E+05
 0.75349998E+02 -0.20310E+05
 0.75399994E+02 -0.20093E+05
 0.75449997E+02 -0.19825E+05
 0.75499992E+02 -0.19624E+05
 0.75549995E+02 -0.19313E+05
 0.75599998E+02 -0.19149E+05
 0.75649994E+02 -0.19090E+05
 0.75699997E+02 -0.18914E+05
 0.75749992E+02 -0.18764E+05
 0.75799995E+02 -0.18695E+05
 0.75849998E+02 -0.18550E+05
 0.75899994E+02 -0.18565E+05
 0.75949997E+02 -0.18969E+05
 0.75999992E+02 -0.19302E+05
 0.76049995E+02 -0.19600E+05
 0.76099998E+02 -0.19870E+05
 0.76149994E+02 -0.20151E+05
 0.76199997E+02 -0.20464E+05
 0.76249992E+02 -0.20857E+05
 0.76299995E+02 -0.21222E+05
 0.76349998E+02 -0.21499E+05
 0.76399994E+02 -0.21706E+05
 0.76449997E+02 -0.21800E+05
 0.76499992E+02 -0.21815E+05
 0.76549995E+02 -0.21884E+05
 0.76599998E+02 -0.21892E+05
 0.76649994E+02 -0.21674E+05
 0.76699997E+02 -0.21379E+05
 0.76749992E+02 -0.20996E+05
 0.76799995E+02 -0.20599E+05
 0.76849998E+02 -0.20177E+05
 0.76899994E+02 -0.19928E+05
 0.76949997E+02 -0.20106E+05
 0.76999992E+02 -0.20469E+05
 0.77049995E+02 -0.20873E+05
 0.77099998E+02 -0.21202E+05
 0.77149994E+02 -0.21096E+05
 0.77199997E+02 -0.20823E+05
 0.77249992E+02 -0.20592E+05
 0.77299995E+02 -0.20381E+05
 0.77349998E+02 -0.20348E+05
 0.77399994E+02 -0.20567E+05
 0.77449997E+02 -0.20697E+05
 0.77499992E+02 -0.20719E+05
 0.77549995E+02 -0.20511E+05
 0.77599998E+02 -0.20137E+05
 0.77649994E+02 -0.19846E+05
 0.77699997E+02 -0.19369E+05
 0.77749992E+02 -0.19016E+05
 0.77799995E+02 -0.18861E+05
 0.77849998E+02 -0.18871E+05
 0.77899994E+02 -0.19093E+05
 0.77949997E+02 -0.19342E+05
 0.77999992E+02 -0.19369E+05
 0.78049995E+02 -0.19453E+05
 0.78099998E+02 -0.19572E+05
 0.78149994E+02 -0.19591E+05
 0.78199997E+02 -0.19647E+05
 0.78249992E+02 -0.19743E+05
 0.78299995E+02 -0.19931E+05
 0.78349998E+02 -0.20200E+05
 0.78399994E+02 -0.20346E+05
 0.78449997E+02 -0.20166E+05
 0.78499992E+02 -0.20050E+05
 0.78549995E+02 -0.20098E+05
 0.78599998E+02 -0.20229E+05
 0.78649994E+02 -0.20473E+05
 0.78699997E+02 -0.20823E+05
 0.78749992E+02 -0.21082E+05
 0.78799995E+02 -0.21277E+05
 0.78849998E+02 -0.21546E+05
 0.78899994E+02 -0.21670E+05
 0.78949997E+02 -0.21696E+05
 0.78999992E+02 -0.21893E+05
 0.79049995E+02 -0.21925E+05
 0.79099998E+02 -0.21785E+05
 0.79149994E+02 -0.21617E+05
 0.79199997E+02 -0.21400E+05
 0.79249992E+02 -0.21242E+05
 0.79299995E+02 -0.21060E+05
 0.79349998E+02 -0.20957E+05
 0.79399994E+02 -0.20847E+05
 0.79449997E+02 -0.20702E+05
 0.79499992E+02 -0.20638E+05
 0.79549995E+02 -0.20730E+05
 0.79599998E+02 -0.20769E+05
 0.79649994E+02 -0.20772E+05
 0.79699997E+02 -0.20917E+05
 0.79749992E+02 -0.20984E+05
 0.79799995E+02 -0.20928E+05
 0.79849998E+02 -0.20860E+05
 0.79899994E+02 -0.20763E+05
 0.79949997E+02 -0.20686E+05
 0.79999992E+02 -0.20599E+05
 0.80049995E+02 -0.20529E+05
 0.80099998E+02 -0.20355E+05
 0.80149994E+02 -0.20088E+05
 0.80199997E+02 -0.19916E+05
 0.80249992E+02 -0.19629E+05
 0.80299995E+02 -0.19408E+05
 0.80349998E+02 -0.19243E+05
 0.80399994E+02 -0.19054E+05
 0.80449997E+02 -0.18911E+05
 0.80499992E+02 -0.18718E+05
 0.80549995E+02 -0.18712E+05
 0.80599998E+02 -0.18892E+05
 0.80649994E+02 -0.19089E+05
 0.80699997E+02 -0.19453E+05
 0.80749992E+02 -0.19754E+05
 0.80799995E+02 -0.19833E+05
 0.80849998E+02 -0.19923E+05
 0.80899994E+02 -0.20069E+05
 0.80949997E+02 -0.20258E+05
 0.80999992E+02 -0.20328E+05
 0.81049995E+02 -0.20377E+05
 0.81099998E+02 -0.20567E+05
 0.81149994E+02 -0.20691E+05
 0.81199997E+02 -0.20766E+05
 0.81249992E+02 -0.20900E+05
 0.81299995E+02 -0.20816E+05
 0.81349998E+02 -0.20602E+05
 0.81399994E+02 -0.20447E+05
 0.81449997E+02 -0.20286E+05
 0.81499992E+02 -0.20173E+05
 0.81549995E+02 -0.20088E+05
 0.81599998E+02 -0.19967E+05
 0.81649994E+02 -0.19863E+05
 0.81699997E+02 -0.19926E+05
 0.81749992E+02 -0.20035E+05
 0.81799995E+02 -0.20178E+05
 0.81849998E+02 -0.20289E+05
 0.81899994E+02 -0.20436E+05
 0.81949997E+02 -0.20527E+05
 0.81999992E+02 -0.20638E+05
 0.82049995E+02 -0.20843E+05
 0.82099998E+02 -0.20956E+05
 0.82149994E+02 -0.21081E+05
 0.82199997E+02 -0.21168E+05
 0.82249992E+02 -0.21272E+05
 0.82299995E+02 -0.21305E+05
 0.82349998E+02 -0.21395E+05
 0.82399994E+02 -0.21370E+05
 0.82449997E+02 -0.21322E+05
 0.82499992E+02 -0.21369E+05
 0.82549995E+02 -0.21312E+05
 0.82599998E+02 -0.21269E+05
 0.82649994E+02 -0.21009E+05
 0.82699997E+02 -0.20540E+05
 0.82749992E+02 -0.20093E+05
 0.82799995E+02 -0.19611E+05
 0.82849998E+02 -0.19258E+05
 0.82899994E+02 -0.19205E+05
 0.82949997E+02 -0.19347E+05
 0.82999992E+02 -0.19660E+05
 0.83049995E+02 -0.19895E+05
 0.83099998E+02 -0.19964E+05
 0.83149994E+02 -0.19986E+05
 0.83199997E+02 -0.20057E+05
 0.83249992E+02 -0.20407E+05
 0.83299995E+02 -0.20711E+05
 0.83349998E+02 -0.20897E+05
 0.83399994E+02 -0.21051E+05
 0.83449997E+02 -0.20902E+05
 0.83499992E+02 -0.20692E+05
 0.83549995E+02 -0.20530E+05
 0.83599998E+02 -0.20377E+05
 0.83649994E+02 -0.20362E+05
 0.83699997E+02 -0.20414E+05
 0.83749992E+02 -0.20300E+05
 0.83799995E+02 -0.20191E+05
 0.83849998E+02 -0.19980E+05
 0.83899994E+02 -0.19846E+05
 0.83949997E+02 -0.19856E+05
 0.83999992E+02 -0.19952E+05
 0.84049995E+02 -0.20014E+05
 0.84099998E+02 -0.20102E+05
 0.84149994E+02 -0.20259E+05
 0.84199997E+02 -0.20136E+05
 0.84249992E+02 -0.20086E+05
 0.84299995E+02 -0.20137E+05
 0.84349998E+02 -0.20148E+05
 0.84399994E+02 -0.20153E+05
 0.84449997E+02 -0.20161E+05
 0.84499992E+02 -0.20126E+05
 0.84549995E+02 -0.20340E+05
 0.84599998E+02 -0.20652E+05
 0.84649994E+02 -0.20845E+05
 0.84699997E+02 -0.20962E+05
 0.84749992E+02 -0.20922E+05
 0.84799995E+02 -0.20872E+05
 0.84849998E+02 -0.20795E+05
 0.84899994E+02 -0.20543E+05
 0.84949997E+02 -0.20339E+05
 0.84999992E+02 -0.20074E+05
 0.85049995E+02 -0.19881E+05
 0.85099998E+02 -0.19967E+05
 0.85149994E+02 -0.19989E+05
 0.85199997E+02 -0.20022E+05
 0.85249992E+02 -0.20151E+05
 0.85299995E+02 -0.20202E+05
 0.85349998E+02 -0.20188E+05
 0.85399994E+02 -0.20262E+05
 0.85449997E+02 -0.20370E+05
 0.85499992E+02 -0.20533E+05
 0.85549995E+02 -0.20798E+05
 0.85599998E+02 -0.20972E+05
 0.85649994E+02 -0.20967E+05
 0.85699997E+02 -0.20815E+05
 0.85749992E+02 -0.20734E+05
 0.85799995E+02 -0.20751E+05
 0.85849998E+02 -0.20679E+05
 0.85899994E+02 -0.20753E+05
 0.85949997E+02 -0.20851E+05
 0.85999992E+02 -0.20781E+05
 0.86049995E+02 -0.20879E+05
 0.86099998E+02 -0.21071E+05
 0.86149994E+02 -0.20986E+05
 0.86199997E+02 -0.21010E+05
 0.86249992E+02 -0.20993E+05
 0.86299995E+02 -0.20776E+05
 0.86349998E+02 -0.20740E+05
 0.86399994E+02 -0.20562E+05
 0.86449997E+02 -0.20278E+05
 0.86499992E+02 -0.20019E+05
 0.86549995E+02 -0.19770E+05
 0.86599998E+02 -0.19627E+05
 0.86649994E+02 -0.19493E+05
 0.86699997E+02 -0.19302E+05
 0.86749992E+02 -0.19311E+05
 0.86799995E+02 -0.19523E+05
 0.86849998E+02 -0.19740E+05
 0.86899994E+02 -0.20028E+05
 0.86949997E+02 -0.20286E+05
 0.86999992E+02 -0.20385E+05
 0.87049995E+02 -0.20344E+05
 0.87099998E+02 -0.20357E+05
 0.87149994E+02 -0.20378E+05
 0.87199997E+02 -0.20370E+05
 0.87249992E+02 -0.20441E+05
 0.87299995E+02 -0.20532E+05
 0.87349998E+02 -0.20394E+05
 0.87399994E+02 -0.20185E+05
 0.87449997E+02 -0.20051E+05
 0.87499992E+02 -0.20072E+05
 0.87549995E+02 -0.20180E+05
 0.87599991E+02 -0.20204E+05
 0.87649994E+02 -0.20211E+05
 0.87699997E+02 -0.20225E+05
 0.87749992E+02 -0.20235E+05
 0.87799995E+02 -0.20171E+05
 0.87849991E+02 -0.20141E+05
 0.87899994E+02 -0.20201E+05
 0.87949997E+02 -0.20399E+05
 0.87999992E+02 -0.20714E+05
 0.88049995E+02 -0.20924E+05
 0.88099991E+02 -0.20921E+05
 0.88149994E+02 -0.20955E+05
 0.88199997E+02 -0.21032E+05
 0.88249992E+02 -0.21067E+05
 0.88299995E+02 -0.21096E+05
 0.88349991E+02 -0.20988E+05
 0.88399994E+02 -0.20704E+05
 0.88449997E+02 -0.20434E+05
 0.88499992E+02 -0.20214E+05
 0.88549995E+02 -0.20059E+05
 0.88599991E+02 -0.19967E+05
 0.88649994E+02 -0.19855E+05
 0.88699997E+02 -0.19875E+05
 0.88749992E+02 -0.20034E+05
 0.88799995E+02 -0.20178E+05
 0.88849991E+02 -0.20314E+05
 0.88899994E+02 -0.20395E+05
 0.88949997E+02 -0.20407E+05
 0.88999992E+02 -0.20487E+05
 0.89049995E+02 -0.20566E+05
 0.89099991E+02 -0.20510E+05
 0.89149994E+02 -0.20492E+05
 0.89199997E+02 -0.20448E+05
 0.89249992E+02 -0.20496E+05
 0.89299995E+02 -0.20501E+05
 0.89349991E+02 -0.20432E+05
 0.89399994E+02 -0.20575E+05
 0.89449997E+02 -0.20680E+05
 0.89499992E+02 -0.20660E+05
 0.89549995E+02 -0.20568E+05
 0.89599991E+02 -0.20425E+05
 0.89649994E+02 -0.20269E+05
 0.89699997E+02 -0.20260E+05
 0.89749992E+02 -0.20346E+05
 0.89799995E+02 -0.20452E+05
 0.89849991E+02 -0.20515E+05
 0.89899994E+02 -0.20554E+05
 0.89949997E+02 -0.20571E+05
 0.89999992E+02 -0.20520E+05
 0.90049995E+02 -0.20485E+05
 0.90099991E+02 -0.20477E+05
 0.90149994E+02 -0.20414E+05
 0.90199997E+02 -0.20447E+05
 0.90249992E+02 -0.20539E+05
 0.90299995E+02 -0.20518E+05
 0.90349991E+02 -0.20496E+05
 0.90399994E+02 -0.20434E+05
 0.90449997E+02 -0.20395E+05
 0.90499992E+02 -0.20459E+05
 0.90549995E+02 -0.20455E+05
 0.90599991E+02 -0.20364E+05
 0.90649994E+02 -0.20303E+05
 0.90699997E+02 -0.20149E+05
 0.90749992E+02 -0.19904E+05
 0.90799995E+02 -0.19721E+05
 0.90849991E+02 -0.19540E+05
 0.90899994E+02 -0.19495E+05
 0.90949997E+02 -0.19661E+05
 0.90999992E+02 -0.19780E+05
 0.91049995E+02 -0.19922E+05
 0.91099991E+02 -0.20167E+05
 0.91149994E+02 -0.20320E+05
 0.91199997E+02 -0.20414E+05
 0.91249992E+02 -0.20598E+05
 0.91299995E+02 -0.20823E+05
 0.91349991E+02 -0.20995E+05
 0.91399994E+02 -0.21149E+05
 0.91449997E+02 -0.21190E+05
 0.91499992E+02 -0.21016E+05
 0.91549995E+02 -0.20826E+05
 0.91599991E+02 -0.20739E+05
 0.91649994E+02 -0.20512E+05
 0.91699997E+02 -0.20276E+05
 0.91749992E+02 -0.20238E+05
 0.91799995E+02 -0.20275E+05
 0.91849991E+02 -0.20307E+05
 0.91899994E+02 -0.20278E+05
 0.91949997E+02 -0.20278E+05
 0.91999992E+02 -0.20254E+05
 0.92049995E+02 -0.20174E+05
 0.92099991E+02 -0.20028E+05
 0.92149994E+02 -0.19998E+05
 0.92199997E+02 -0.20133E+05
 0.92249992E+02 -0.20383E+05
 0.92299995E+02 -0.20699E+05
 0.92349991E+02 -0.20968E+05
 0.92399994E+02 -0.21080E+05
 0.92449997E+02 -0.21013E+05
 0.92499992E+02 -0.21002E+05
 0.92549995E+02 -0.20912E+05
 0.92599991E+02 -0.20842E+05
 0.92649994E+02 -0.20795E+05
 0.92699997E+02 -0.20674E+05
 0.92749992E+02 -0.20660E+05
 0.92799995E+02 -0.20514E+05
 0.92849991E+02 -0.20422E+05
 0.92899994E+02 -0.20358E+05
 0.92949997E+02 -0.20226E+05
 0.92999992E+02 -0.20186E+05
 0.93049995E+02 -0.20061E+05
 0.93099991E+02 -0.20026E+05
 0.93149994E+02 -0.20033E+05
 0.93199997E+02 -0.20042E+05
 0.93249992E+02 -0.20091E+05
 0.93299995E+02 -0.20102E+05
 0.93349991E+02 -0.20096E+05
 0.93399994E+02 -0.20183E+05
 0.93449997E+02 -0.20289E+05
 0.93499992E+02 -0.20344E+05
 0.93549995E+02 -0.20479E+05
 0.93599991E+02 -0.20558E+05
 0.93649994E+02 -0.20560E+05
 0.93699997E+02 -0.20617E+05
 0.93749992E+02 -0.20628E+05
 0.93799995E+02 -0.20679E+05
 0.93849991E+02 -0.20741E+05
 0.93899994E+02 -0.20679E+05
 0.93949997E+02 -0.20580E+05
 0.93999992E+02 -0.20412E+05
 0.94049995E+02 -0.20204E+05
 0.94099991E+02 -0.20008E+05
 0.94149994E+02 -0.19905E+05
 0.94199997E+02 -0.19846E+05
 0.94249992E+02 -0.19777E+05
 0.94299995E+02 -0.19786E+05
 0.94349991E+02 -0.19824E+05
 0.94399994E+02 -0.19895E+05
 0.94449997E+02 -0.19943E+05
 0.94499992E+02 -0.20025E+05
 0.94549995E+02 -0.20076E+05
 0.94599991E+02 -0.20142E+05
 0.94649994E+02 -0.20282E+05
 0.94699997E+02 -0.20389E+05
 0.94749992E+02 -0.20464E+05
 0.94799995E+02 -0.20553E+05
 0.94849991E+02 -0.20552E+05
 0.94899994E+02 -0.20460E+05
 0.94949997E+02 -0.20502E+05
 0.94999992E+02 -0.20617E+05
 0.95049995E+02 -0.20727E+05
 0.95099991E+02 -0.20720E+05
 0.95149994E+02 -0.20465E+05
 0.95199997E+02 -0.20210E+05
 0.95249992E+02 -0.20124E+05
 0.95299995E+02 -0.20027E+05
 0.95349991E+02 -0.20002E+05
 0.95399994E+02 -0.20033E+05
 0.95449997E+02 -0.19987E+05
 0.95499992E+02 -0.19903E+05
 0.95549995E+02 -0.19914E+05
 0.95599991E+02 -0.20005E+05
 0.95649994E+02 -0.20073E+05
 0.95699997E+02 -0.20119E+05
 0.95749992E+02 -0.20194E+05
 0.95799995E+02 -0.20278E+05
 0.95849991E+02 -0.20337E+05
 0.95899994E+02 -0.20438E+05
 0.95949997E+02 -0.20439E+05
 0.95999992E+02 -0.20473E+05
 0.96049995E+02 -0.20484E+05
 0.96099991E+02 -0.20388E+05
 0.96149994E+02 -0.20345E+05
 0.96199997E+02 -0.20341E+05
 0.96249992E+02 -0.20391E+05
 0.96299995E+02 -0.20374E+05
 0.96349991E+02 -0.20461E+05
 0.96399994E+02 -0.20500E+05
 0.96449997E+02 -0.20489E+05
 0.96499992E+02 -0.20442E+05
 0.96549995E+02 -0.20440E+05
 0.96599991E+02 -0.20569E+05
 0.96649994E+02 -0.20724E+05
 0.96699997E+02 -0.20815E+05
 0.96749992E+02 -0.20796E+05
 0.96799995E+02 -0.20753E+05
 0.96849991E+02 -0.20612E+05
 0.96899994E+02 -0.20474E+05
 0.96949997E+02 -0.20433E+05
 0.96999992E+02 -0.20400E+05
 0.97049995E+02 -0.20367E+05
 0.97099991E+02 -0.20443E+05
 0.97149994E+02 -0.20558E+05
 0.97199997E+02 -0.20672E+05
 0.97249992E+02 -0.20674E+05
 0.97299995E+02 -0.20572E+05
 0.97349991E+02 -0.20492E+05
 0.97399994E+02 -0.20531E+05
 0.97449997E+02 -0.20646E+05
 0.97499992E+02 -0.20772E+05
 0.97549995E+02 -0.20830E+05
 0.97599991E+02 -0.20831E+05
 0.97649994E+02 -0.20833E+05
 0.97699997E+02 -0.20869E+05
 0.97749992E+02 -0.20966E+05
 0.97799995E+02 -0.21039E+05
 0.97849991E+02 -0.21010E+05
 0.97899994E+02 -0.20861E+05
 0.97949997E+02 -0.20523E+05
 0.97999992E+02 -0.20156E+05
