-0.20000000E+01  0.51419E+05
-0.19500000E+01  0.50650E+05
-0.19000000E+01  0.49937E+05
-0.18500000E+01  0.48475E+05
-0.18000000E+01  0.46332E+05
-0.17500000E+01  0.43282E+05
-0.17000000E+01  0.39139E+05
-0.16500001E+01  0.33542E+05
-0.16000000E+01  0.26019E+05
-0.15500000E+01  0.16876E+05
-0.15000000E+01  0.62957E+04
-0.14500000E+01 -0.57379E+04
-0.14000001E+01 -0.18871E+05
-0.13500000E+01 -0.32918E+05
-0.13000001E+01 -0.47401E+05
-0.12500000E+01 -0.61610E+05
-0.12000000E+01 -0.75169E+05
-0.11500001E+01 -0.87570E+05
-0.11000000E+01 -0.97980E+05
-0.10500001E+01 -0.10634E+06
-0.10000000E+01 -0.11282E+06
-0.95000005E+00 -0.11695E+06
-0.90000010E+00 -0.11847E+06
-0.85000002E+00 -0.11772E+06
-0.80000007E+00 -0.11495E+06
-0.75000012E+00 -0.11001E+06
-0.70000005E+00 -0.10363E+06
-0.65000010E+00 -0.96264E+05
-0.60000014E+00 -0.87826E+05
-0.55000007E+00 -0.78551E+05
-0.50000012E+00 -0.68735E+05
-0.45000005E+00 -0.58479E+05
-0.40000010E+00 -0.48239E+05
-0.35000014E+00 -0.38362E+05
-0.30000007E+00 -0.28627E+05
-0.25000012E+00 -0.19339E+05
-0.20000005E+00 -0.10624E+05
-0.15000010E+00 -0.22870E+04
-0.10000014E+00  0.55747E+04
-0.50000072E-01  0.12941E+05
-0.11920929E-06  0.19720E+05
 0.49999952E-01  0.25799E+05
 0.99999905E-01  0.31199E+05
 0.14999986E+00  0.36196E+05
 0.19999981E+00  0.40544E+05
 0.24999976E+00  0.43919E+05
 0.29999995E+00  0.46216E+05
 0.34999990E+00  0.47471E+05
 0.39999986E+00  0.47573E+05
 0.44999981E+00  0.46696E+05
 0.49999976E+00  0.45178E+05
 0.54999995E+00  0.43038E+05
 0.59999990E+00  0.40338E+05
 0.64999986E+00  0.37189E+05
 0.69999981E+00  0.33853E+05
 0.74999976E+00  0.30651E+05
 0.79999971E+00  0.27705E+05
 0.84999990E+00  0.25151E+05
 0.89999986E+00  0.23278E+05
 0.94999981E+00  0.22382E+05
 0.99999976E+00  0.22628E+05
 0.10499997E+01  0.24536E+05
 0.10999999E+01  0.28173E+05
 0.11499999E+01  0.33228E+05
 0.11999998E+01  0.39166E+05
 0.12499998E+01  0.45482E+05
 0.12999997E+01  0.51789E+05
 0.13499999E+01  0.57749E+05
 0.13999999E+01  0.63243E+05
 0.14499998E+01  0.67751E+05
 0.14999998E+01  0.71017E+05
 0.15499997E+01  0.72746E+05
 0.15999999E+01  0.72868E+05
 0.16499999E+01  0.71526E+05
 0.16999998E+01  0.68714E+05
 0.17499998E+01  0.64462E+05
 0.17999997E+01  0.59047E+05
 0.18499997E+01  0.52672E+05
 0.18999999E+01  0.45522E+05
 0.19499998E+01  0.37755E+05
 0.19999998E+01  0.29459E+05
 0.20499997E+01  0.20704E+05
 0.20999999E+01  0.11593E+05
 0.21499996E+01  0.21950E+04
 0.21999998E+01 -0.72064E+04
 0.22499995E+01 -0.16012E+05
 0.22999997E+01 -0.23786E+05
 0.23499999E+01 -0.30671E+05
 0.23999996E+01 -0.37018E+05
 0.24499998E+01 -0.43067E+05
 0.24999995E+01 -0.48828E+05
 0.25499997E+01 -0.54082E+05
 0.25999999E+01 -0.59099E+05
 0.26499996E+01 -0.63870E+05
 0.26999998E+01 -0.68248E+05
 0.27499995E+01 -0.72097E+05
 0.27999997E+01 -0.75456E+05
 0.28499999E+01 -0.78238E+05
 0.28999996E+01 -0.80286E+05
 0.29499998E+01 -0.81740E+05
 0.29999995E+01 -0.82379E+05
 0.30499997E+01 -0.82048E+05
 0.30999999E+01 -0.80756E+05
 0.31499996E+01 -0.78408E+05
 0.31999998E+01 -0.75019E+05
 0.32499995E+01 -0.70908E+05
 0.32999997E+01 -0.66073E+05
 0.33499999E+01 -0.60661E+05
 0.33999996E+01 -0.54655E+05
 0.34499998E+01 -0.48091E+05
 0.34999995E+01 -0.40926E+05
 0.35499997E+01 -0.33581E+05
 0.35999994E+01 -0.26715E+05
 0.36499996E+01 -0.20492E+05
 0.36999998E+01 -0.15275E+05
 0.37499995E+01 -0.11101E+05
 0.37999997E+01 -0.78481E+04
 0.38499994E+01 -0.54279E+04
 0.38999996E+01 -0.36824E+04
 0.39499998E+01 -0.22148E+04
 0.39999995E+01 -0.85700E+03
 0.40499997E+01  0.39294E+03
 0.40999994E+01  0.16477E+04
 0.41499996E+01  0.29887E+04
 0.41999998E+01  0.45963E+04
 0.42499995E+01  0.67446E+04
 0.42999997E+01  0.97121E+04
 0.43499994E+01  0.13583E+05
 0.43999996E+01  0.18435E+05
 0.44499998E+01  0.24138E+05
 0.44999995E+01  0.30321E+05
 0.45499997E+01  0.36918E+05
 0.45999994E+01  0.43667E+05
 0.46499996E+01  0.50396E+05
 0.46999998E+01  0.57116E+05
 0.47499995E+01  0.63658E+05
 0.47999997E+01  0.69552E+05
 0.48499994E+01  0.74397E+05
 0.48999996E+01  0.78288E+05
 0.49499998E+01  0.81307E+05
 0.49999995E+01  0.83548E+05
 0.50499997E+01  0.85199E+05
 0.50999994E+01  0.86318E+05
 0.51499996E+01  0.86820E+05
 0.51999998E+01  0.86369E+05
 0.52499995E+01  0.84608E+05
 0.52999997E+01  0.81507E+05
 0.53499994E+01  0.77313E+05
 0.53999996E+01  0.72304E+05
 0.54499993E+01  0.66388E+05
 0.54999995E+01  0.59872E+05
 0.55499997E+01  0.52732E+05
 0.55999994E+01  0.44960E+05
 0.56499996E+01  0.36626E+05
 0.56999993E+01  0.27560E+05
 0.57499995E+01  0.17878E+05
 0.57999997E+01  0.76449E+04
 0.58499994E+01 -0.29025E+04
 0.58999996E+01 -0.13710E+05
 0.59499993E+01 -0.24505E+05
 0.59999995E+01 -0.35037E+05
 0.60499992E+01 -0.45109E+05
 0.60999994E+01 -0.54320E+05
 0.61499996E+01 -0.62460E+05
 0.61999998E+01 -0.69272E+05
 0.62499990E+01 -0.74363E+05
 0.62999992E+01 -0.77568E+05
 0.63499994E+01 -0.78899E+05
 0.63999996E+01 -0.78531E+05
 0.64499998E+01 -0.76861E+05
 0.64999990E+01 -0.74501E+05
 0.65499992E+01 -0.71645E+05
 0.65999994E+01 -0.68392E+05
 0.66499996E+01 -0.65070E+05
 0.66999998E+01 -0.62020E+05
 0.67499990E+01 -0.59325E+05
 0.67999992E+01 -0.57078E+05
 0.68499994E+01 -0.55229E+05
 0.68999996E+01 -0.53613E+05
 0.69499998E+01 -0.52124E+05
 0.69999990E+01 -0.50467E+05
 0.70499992E+01 -0.48680E+05
 0.70999994E+01 -0.46967E+05
 0.71499996E+01 -0.45343E+05
 0.71999998E+01 -0.43528E+05
 0.72499990E+01 -0.41270E+05
 0.72999992E+01 -0.38347E+05
 0.73499994E+01 -0.34631E+05
 0.73999996E+01 -0.30044E+05
 0.74499998E+01 -0.24640E+05
 0.74999990E+01 -0.18538E+05
 0.75499992E+01 -0.12014E+05
 0.75999994E+01 -0.54592E+04
 0.76499996E+01  0.10313E+04
 0.76999998E+01  0.74672E+04
 0.77499990E+01  0.13927E+05
 0.77999992E+01  0.20445E+05
 0.78499994E+01  0.26766E+05
 0.78999996E+01  0.32681E+05
 0.79499998E+01  0.38002E+05
 0.79999990E+01  0.42447E+05
 0.80499992E+01  0.46185E+05
 0.80999994E+01  0.49353E+05
 0.81499996E+01  0.51901E+05
 0.81999998E+01  0.53952E+05
 0.82499990E+01  0.55331E+05
 0.82999992E+01  0.55777E+05
 0.83499994E+01  0.55428E+05
 0.83999996E+01  0.54366E+05
 0.84499998E+01  0.52713E+05
 0.84999990E+01  0.50499E+05
 0.85499992E+01  0.47678E+05
 0.85999994E+01  0.44136E+05
 0.86499996E+01  0.40065E+05
 0.86999998E+01  0.35845E+05
 0.87499990E+01  0.31563E+05
 0.87999992E+01  0.27502E+05
 0.88499994E+01  0.23893E+05
 0.88999996E+01  0.20932E+05
 0.89499998E+01  0.18770E+05
 0.89999990E+01  0.17416E+05
 0.90499992E+01  0.16809E+05
 0.90999994E+01  0.16987E+05
 0.91499996E+01  0.17977E+05
 0.91999989E+01  0.19825E+05
 0.92499990E+01  0.22377E+05
 0.92999992E+01  0.25433E+05
 0.93499994E+01  0.28788E+05
 0.93999996E+01  0.32270E+05
 0.94499989E+01  0.35528E+05
 0.94999990E+01  0.38028E+05
 0.95499992E+01  0.39545E+05
 0.95999994E+01  0.40093E+05
 0.96499996E+01  0.39686E+05
 0.96999989E+01  0.38141E+05
 0.97499990E+01  0.35466E+05
 0.97999992E+01  0.31545E+05
 0.98499994E+01  0.26445E+05
 0.98999996E+01  0.20531E+05
 0.99499989E+01  0.13928E+05
 0.99999990E+01  0.70204E+04
 0.10049999E+02  0.76687E+02
 0.10099999E+02 -0.67487E+04
 0.10150000E+02 -0.13357E+05
 0.10199999E+02 -0.19749E+05
 0.10249999E+02 -0.25953E+05
 0.10299999E+02 -0.32096E+05
 0.10349999E+02 -0.38091E+05
 0.10400000E+02 -0.44129E+05
 0.10449999E+02 -0.50252E+05
 0.10499999E+02 -0.56271E+05
 0.10549999E+02 -0.62355E+05
 0.10599999E+02 -0.68621E+05
 0.10650000E+02 -0.74923E+05
 0.10699999E+02 -0.81071E+05
 0.10749999E+02 -0.86980E+05
 0.10799999E+02 -0.92467E+05
 0.10849999E+02 -0.97383E+05
 0.10900000E+02 -0.10162E+06
 0.10949999E+02 -0.10456E+06
 0.10999999E+02 -0.10592E+06
 0.11049999E+02 -0.10566E+06
 0.11099999E+02 -0.10365E+06
 0.11150000E+02 -0.10002E+06
 0.11199999E+02 -0.94817E+05
 0.11249999E+02 -0.88070E+05
 0.11299999E+02 -0.79883E+05
 0.11349999E+02 -0.70273E+05
 0.11400000E+02 -0.59239E+05
 0.11449999E+02 -0.47210E+05
 0.11499999E+02 -0.34483E+05
 0.11549999E+02 -0.21385E+05
 0.11599999E+02 -0.83334E+04
 0.11650000E+02  0.44433E+04
 0.11699999E+02  0.16969E+05
 0.11749999E+02  0.29301E+05
 0.11799999E+02  0.41046E+05
 0.11849999E+02  0.52003E+05
 0.11900000E+02  0.62112E+05
 0.11949999E+02  0.70843E+05
 0.11999999E+02  0.77886E+05
 0.12049999E+02  0.83190E+05
 0.12099999E+02  0.86522E+05
 0.12150000E+02  0.88197E+05
 0.12199999E+02  0.88461E+05
 0.12249999E+02  0.87570E+05
 0.12299999E+02  0.85949E+05
 0.12349999E+02  0.83640E+05
 0.12400000E+02  0.80455E+05
 0.12449999E+02  0.76383E+05
 0.12499999E+02  0.71812E+05
 0.12549999E+02  0.66733E+05
 0.12599999E+02  0.61464E+05
 0.12649999E+02  0.56384E+05
 0.12699999E+02  0.51627E+05
 0.12749999E+02  0.47553E+05
 0.12799999E+02  0.44070E+05
 0.12849999E+02  0.40914E+05
 0.12899999E+02  0.37981E+05
 0.12949999E+02  0.35353E+05
 0.12999999E+02  0.32964E+05
 0.13049999E+02  0.30565E+05
 0.13099999E+02  0.27925E+05
 0.13149999E+02  0.24780E+05
 0.13199999E+02  0.21175E+05
 0.13249999E+02  0.17112E+05
 0.13299999E+02  0.12383E+05
 0.13349999E+02  0.70126E+04
 0.13399999E+02  0.10594E+04
 0.13449999E+02 -0.52241E+04
 0.13499999E+02 -0.11431E+05
 0.13549999E+02 -0.17352E+05
 0.13599999E+02 -0.23058E+05
 0.13649999E+02 -0.28275E+05
 0.13699999E+02 -0.32618E+05
 0.13749999E+02 -0.36142E+05
 0.13799999E+02 -0.38774E+05
 0.13849999E+02 -0.40548E+05
 0.13899999E+02 -0.41630E+05
 0.13949999E+02 -0.42143E+05
 0.13999999E+02 -0.42000E+05
 0.14049999E+02 -0.41448E+05
 0.14099998E+02 -0.41004E+05
 0.14150000E+02 -0.40584E+05
 0.14199999E+02 -0.40480E+05
 0.14249998E+02 -0.40595E+05
 0.14299999E+02 -0.40684E+05
 0.14349998E+02 -0.40826E+05
 0.14400000E+02 -0.40816E+05
 0.14449999E+02 -0.40534E+05
 0.14499998E+02 -0.39818E+05
 0.14549999E+02 -0.38545E+05
 0.14599998E+02 -0.36355E+05
 0.14650000E+02 -0.33443E+05
 0.14699999E+02 -0.29953E+05
 0.14749998E+02 -0.25669E+05
 0.14799999E+02 -0.21099E+05
 0.14849998E+02 -0.16526E+05
 0.14900000E+02 -0.11831E+05
 0.14949999E+02 -0.71275E+04
 0.14999998E+02 -0.26317E+04
 0.15049999E+02  0.16379E+04
 0.15099998E+02  0.55168E+04
 0.15150000E+02  0.87321E+04
 0.15199999E+02  0.11270E+05
 0.15249998E+02  0.13127E+05
 0.15299999E+02  0.14254E+05
 0.15349998E+02  0.14857E+05
 0.15400000E+02  0.15137E+05
 0.15449999E+02  0.14972E+05
 0.15499998E+02  0.14600E+05
 0.15549999E+02  0.14336E+05
 0.15599998E+02  0.14097E+05
 0.15650000E+02  0.14240E+05
 0.15699999E+02  0.14920E+05
 0.15749998E+02  0.16008E+05
 0.15799999E+02  0.17577E+05
 0.15849998E+02  0.19409E+05
 0.15900000E+02  0.21269E+05
 0.15949999E+02  0.23278E+05
 0.15999998E+02  0.25426E+05
 0.16049999E+02  0.27426E+05
 0.16099998E+02  0.29379E+05
 0.16150000E+02  0.31243E+05
 0.16199999E+02  0.32591E+05
 0.16249998E+02  0.33331E+05
 0.16299999E+02  0.33315E+05
 0.16349998E+02  0.32668E+05
 0.16400000E+02  0.31365E+05
 0.16449999E+02  0.29556E+05
 0.16499998E+02  0.27331E+05
 0.16549999E+02  0.24589E+05
 0.16599998E+02  0.21509E+05
 0.16650000E+02  0.17835E+05
 0.16699999E+02  0.13817E+05
 0.16749998E+02  0.94376E+04
 0.16799999E+02  0.48400E+04
 0.16849998E+02  0.40721E+03
 0.16900000E+02 -0.38707E+04
 0.16949999E+02 -0.80785E+04
 0.16999998E+02 -0.12201E+05
 0.17049999E+02 -0.15970E+05
 0.17099998E+02 -0.19463E+05
 0.17150000E+02 -0.22567E+05
 0.17199999E+02 -0.25132E+05
 0.17249998E+02 -0.27397E+05
 0.17299999E+02 -0.29561E+05
 0.17349998E+02 -0.31560E+05
 0.17400000E+02 -0.33564E+05
 0.17449999E+02 -0.35575E+05
 0.17499998E+02 -0.37572E+05
 0.17549999E+02 -0.39635E+05
 0.17599998E+02 -0.41797E+05
 0.17650000E+02 -0.43892E+05
 0.17699999E+02 -0.45727E+05
 0.17749998E+02 -0.47292E+05
 0.17799999E+02 -0.48127E+05
 0.17849998E+02 -0.48241E+05
 0.17900000E+02 -0.47661E+05
 0.17949999E+02 -0.46209E+05
 0.17999998E+02 -0.43821E+05
 0.18049999E+02 -0.40749E+05
 0.18099998E+02 -0.37198E+05
 0.18150000E+02 -0.33186E+05
 0.18199999E+02 -0.28811E+05
 0.18249998E+02 -0.23857E+05
 0.18299999E+02 -0.18111E+05
 0.18349998E+02 -0.11588E+05
 0.18400000E+02 -0.44515E+04
 0.18449999E+02  0.34209E+04
 0.18499998E+02  0.11820E+05
 0.18549999E+02  0.20460E+05
 0.18599998E+02  0.29021E+05
 0.18650000E+02  0.37167E+05
 0.18699999E+02  0.44833E+05
 0.18749998E+02  0.52023E+05
 0.18799999E+02  0.58618E+05
 0.18849998E+02  0.64476E+05
 0.18900000E+02  0.69556E+05
 0.18949999E+02  0.73592E+05
 0.18999998E+02  0.76704E+05
 0.19049999E+02  0.78971E+05
 0.19099998E+02  0.80361E+05
 0.19150000E+02  0.81125E+05
 0.19199999E+02  0.81379E+05
 0.19249998E+02  0.81213E+05
 0.19299999E+02  0.80408E+05
 0.19349998E+02  0.78723E+05
 0.19400000E+02  0.75927E+05
 0.19449999E+02  0.71832E+05
 0.19499998E+02  0.66442E+05
 0.19549999E+02  0.59555E+05
 0.19599998E+02  0.51180E+05
 0.19650000E+02  0.41322E+05
 0.19699999E+02  0.30122E+05
 0.19749998E+02  0.18009E+05
 0.19799999E+02  0.53588E+04
 0.19849998E+02 -0.75533E+04
 0.19900000E+02 -0.20350E+05
 0.19949999E+02 -0.32510E+05
 0.19999998E+02 -0.43705E+05
 0.20049999E+02 -0.53797E+05
 0.20099998E+02 -0.62489E+05
 0.20150000E+02 -0.69418E+05
 0.20199999E+02 -0.74914E+05
 0.20249998E+02 -0.78782E+05
 0.20299999E+02 -0.81247E+05
 0.20349998E+02 -0.82459E+05
 0.20399998E+02 -0.82288E+05
 0.20449999E+02 -0.81744E+05
 0.20499998E+02 -0.80264E+05
 0.20549999E+02 -0.77884E+05
 0.20599998E+02 -0.77460E+05
 0.20649998E+02 -0.77778E+05
 0.20699999E+02 -0.80315E+05
 0.20749998E+02 -0.80081E+05
 0.20799999E+02 -0.80307E+05
 0.20849998E+02 -0.78248E+05
 0.20899998E+02 -0.73397E+05
 0.20949999E+02 -0.69571E+05
 0.20999998E+02 -0.72950E+05
 0.21049999E+02 -0.78406E+05
 0.21099998E+02 -0.83490E+05
 0.21149998E+02 -0.10088E+06
 0.21199999E+02 -0.11973E+06
 0.21249998E+02 -0.12404E+06
 0.21299999E+02 -0.12980E+06
 0.21349998E+02 -0.13748E+06
 0.21399998E+02 -0.13812E+06
 0.21449999E+02 -0.15012E+06
 0.21499998E+02 -0.82360E+05
 0.21549999E+02 -0.12265E+06
 0.21599998E+02 -0.11996E+06
 0.21649998E+02 -0.46746E+05
 0.21699999E+02 -0.13662E+06
 0.21749998E+02 -0.13010E+06
 0.21799999E+02 -0.92739E+05
 0.21849998E+02 -0.62416E+05
 0.21899998E+02 -0.97320E+04
 0.21949999E+02  0.95138E+05
 0.21999998E+02  0.74053E+05
 0.22049999E+02  0.10682E+06
 0.22099998E+02  0.17897E+06
 0.22149998E+02  0.70674E+05
 0.22199999E+02  0.16249E+06
 0.22249998E+02  0.25135E+06
 0.22299999E+02  0.22328E+06
 0.22349998E+02  0.22687E+06
 0.22399998E+02  0.25048E+06
 0.22449999E+02  0.21021E+06
 0.22499998E+02  0.26653E+06
 0.22549999E+02  0.26890E+06
 0.22599998E+02  0.28839E+06
 0.22649998E+02  0.38247E+06
 0.22699999E+02  0.37358E+06
 0.22749998E+02  0.27887E+06
 0.22799999E+02  0.59509E+05
 0.22849998E+02  0.12464E+05
 0.22899998E+02  0.24768E+05
 0.22949999E+02  0.15524E+06
 0.22999998E+02  0.12466E+06
 0.23049999E+02  0.14113E+06
 0.23099998E+02  0.10515E+06
 0.23149998E+02 -0.18472E+05
 0.23199999E+02 -0.43249E+05
 0.23249998E+02 -0.19548E+06
 0.23299999E+02 -0.19529E+06
 0.23349998E+02 -0.28426E+06
 0.23399998E+02 -0.25783E+06
 0.23449999E+02 -0.56064E+05
 0.23499998E+02 -0.16367E+06
 0.23549999E+02 -0.33189E+06
 0.23599998E+02 -0.23080E+06
 0.23649998E+02 -0.21590E+06
 0.23699999E+02 -0.14633E+06
 0.23749998E+02 -0.14128E+06
 0.23799999E+02 -0.26819E+06
 0.23849998E+02 -0.32229E+06
 0.23899998E+02 -0.14724E+06
 0.23949999E+02 -0.26181E+06
 0.23999998E+02 -0.23330E+06
 0.24049999E+02  0.75998E+05
 0.24099998E+02 -0.52802E+04
 0.24149998E+02  0.14008E+06
 0.24199999E+02  0.10788E+06
 0.24249998E+02 -0.16060E+05
 0.24299999E+02 -0.67132E+05
 0.24349998E+02 -0.72680E+05
 0.24399998E+02 -0.14140E+06
 0.24449999E+02 -0.52454E+05
 0.24499998E+02  0.28040E+06
 0.24549999E+02  0.24334E+06
 0.24599998E+02  0.28485E+06
 0.24649998E+02  0.33373E+06
 0.24699999E+02  0.29607E+06
 0.24749998E+02  0.28950E+06
 0.24799999E+02  0.16385E+06
 0.24849998E+02  0.34160E+05
 0.24899998E+02 -0.30895E+05
 0.24949999E+02  0.20111E+06
 0.24999998E+02  0.14844E+06
 0.25049999E+02  0.90478E+05
 0.25099998E+02  0.14172E+06
 0.25149998E+02 -0.25873E+05
 0.25199999E+02  0.44766E+04
 0.25249998E+02  0.17042E+05
 0.25299999E+02 -0.65063E+05
 0.25349998E+02 -0.16344E+06
 0.25399998E+02 -0.19783E+06
 0.25449999E+02 -0.31728E+06
 0.25499998E+02 -0.21707E+06
 0.25549999E+02 -0.16116E+06
 0.25599998E+02 -0.16682E+06
 0.25649998E+02 -0.11866E+06
 0.25699999E+02 -0.23107E+06
 0.25749998E+02 -0.22304E+06
 0.25799999E+02 -0.15145E+06
 0.25849998E+02 -0.79679E+05
 0.25899998E+02  0.18377E+06
 0.25949999E+02  0.37200E+06
 0.25999998E+02  0.39581E+06
 0.26049999E+02  0.55487E+06
 0.26099998E+02  0.24986E+06
 0.26149998E+02 -0.17660E+06
 0.26199999E+02 -0.26180E+06
 0.26249998E+02 -0.46920E+04
 0.26299999E+02  0.39703E+06
 0.26349998E+02  0.56557E+06
 0.26399998E+02  0.38339E+06
 0.26449999E+02  0.31109E+06
 0.26499998E+02  0.33815E+06
 0.26549999E+02 -0.51873E+04
 0.26599998E+02 -0.23251E+06
 0.26649998E+02 -0.30348E+06
 0.26699999E+02 -0.14564E+06
 0.26749998E+02 -0.50431E+05
 0.26799999E+02 -0.24021E+05
 0.26849998E+02 -0.12765E+05
 0.26899998E+02 -0.41993E+05
 0.26949999E+02 -0.11014E+06
 0.26999998E+02 -0.15938E+06
 0.27049997E+02 -0.96791E+05
 0.27099998E+02 -0.12218E+06
 0.27149998E+02 -0.24918E+06
 0.27199999E+02 -0.36732E+06
 0.27249998E+02 -0.28664E+06
 0.27299997E+02 -0.19545E+06
 0.27349998E+02 -0.11287E+06
 0.27399998E+02 -0.80016E+05
 0.27449999E+02  0.43090E+05
 0.27499998E+02  0.93769E+05
 0.27549997E+02  0.17430E+05
 0.27599998E+02 -0.37109E+05
 0.27649998E+02 -0.12408E+06
 0.27699999E+02 -0.19246E+06
 0.27749998E+02 -0.24155E+06
 0.27799997E+02 -0.10287E+06
 0.27849998E+02  0.10931E+06
 0.27899998E+02  0.15852E+06
 0.27949999E+02  0.52852E+05
 0.27999998E+02 -0.26505E+05
 0.28049997E+02  0.10949E+06
 0.28099998E+02  0.17022E+06
 0.28149998E+02  0.42102E+05
 0.28199999E+02 -0.38447E+05
 0.28249998E+02  0.13108E+06
 0.28299997E+02  0.33418E+06
 0.28349998E+02  0.30631E+06
 0.28399998E+02  0.22484E+06
 0.28449999E+02  0.12708E+06
 0.28499998E+02  0.10325E+06
 0.28549997E+02 -0.90645E+04
 0.28599998E+02 -0.94831E+05
 0.28649998E+02 -0.10972E+06
 0.28699999E+02 -0.40702E+05
 0.28749998E+02  0.22653E+06
 0.28799997E+02  0.35590E+06
 0.28849998E+02  0.29986E+06
 0.28899998E+02  0.23248E+06
 0.28949999E+02  0.19206E+06
 0.28999998E+02 -0.28576E+05
 0.29049997E+02 -0.10520E+06
 0.29099998E+02  0.31660E+05
 0.29149998E+02  0.28993E+05
 0.29199999E+02  0.54757E+05
 0.29249998E+02  0.31918E+05
 0.29299997E+02  0.56556E+05
 0.29349998E+02  0.18261E+06
 0.29399998E+02  0.20800E+06
 0.29449999E+02  0.15155E+06
 0.29499998E+02  0.11219E+06
 0.29549997E+02  0.98199E+05
 0.29599998E+02 -0.54128E+05
 0.29649998E+02 -0.18642E+06
 0.29699999E+02 -0.14836E+06
 0.29749998E+02 -0.17012E+05
 0.29799997E+02  0.44336E+05
 0.29849998E+02 -0.49262E+05
 0.29899998E+02 -0.27546E+06
 0.29949999E+02 -0.46476E+06
 0.29999998E+02 -0.39876E+06
 0.30049999E+02 -0.22405E+06
 0.30099998E+02 -0.29015E+05
 0.30149998E+02  0.14038E+06
 0.30199997E+02  0.17395E+06
 0.30249996E+02  0.44509E+05
 0.30299999E+02 -0.15258E+06
 0.30349998E+02 -0.22800E+06
 0.30399998E+02 -0.10833E+06
 0.30449997E+02  0.42217E+05
 0.30499996E+02  0.15905E+05
 0.30549999E+02  0.16698E+05
 0.30599998E+02  0.88120E+04
 0.30649998E+02  0.56023E+05
 0.30699997E+02  0.34411E+05
 0.30749996E+02 -0.54702E+05
 0.30799999E+02 -0.31774E+05
 0.30849998E+02 -0.47340E+05
 0.30899998E+02 -0.10533E+06
 0.30949997E+02 -0.13962E+06
 0.30999996E+02 -0.11243E+06
 0.31049999E+02 -0.17991E+06
 0.31099998E+02 -0.18020E+06
 0.31149998E+02 -0.25908E+06
 0.31199997E+02 -0.39093E+06
 0.31249996E+02 -0.40068E+06
 0.31299999E+02 -0.28695E+06
 0.31349998E+02 -0.69200E+05
 0.31399998E+02  0.22783E+06
 0.31449997E+02  0.42546E+06
 0.31499996E+02  0.41551E+06
 0.31549999E+02  0.32935E+06
 0.31599998E+02  0.21768E+06
 0.31649998E+02  0.17517E+06
 0.31699997E+02  0.13322E+06
 0.31749996E+02  0.12370E+06
 0.31799999E+02  0.19891E+06
 0.31849998E+02  0.32938E+06
 0.31899998E+02  0.30430E+06
 0.31949997E+02  0.20888E+06
 0.31999996E+02  0.27105E+05
 0.32049999E+02 -0.57252E+05
 0.32099998E+02  0.13866E+05
 0.32149998E+02 -0.80889E+05
 0.32199997E+02 -0.21695E+06
 0.32249996E+02 -0.22398E+06
 0.32299999E+02 -0.18636E+06
 0.32349998E+02 -0.22100E+06
 0.32399998E+02 -0.27896E+06
 0.32449997E+02 -0.29631E+06
 0.32499996E+02 -0.17661E+06
 0.32549999E+02 -0.48543E+05
 0.32599998E+02 -0.50917E+05
 0.32649998E+02 -0.12910E+05
 0.32699997E+02  0.10946E+06
 0.32749996E+02  0.11107E+06
 0.32799999E+02 -0.40960E+05
 0.32849998E+02 -0.23803E+06
 0.32899998E+02 -0.23564E+06
 0.32949997E+02  0.42475E+05
 0.32999996E+02  0.31476E+06
 0.33049999E+02  0.35537E+06
 0.33099998E+02  0.32856E+06
 0.33149998E+02  0.38993E+06
 0.33199997E+02  0.44075E+06
 0.33249996E+02  0.29564E+06
 0.33299999E+02  0.68300E+05
 0.33349998E+02  0.56355E+04
 0.33399998E+02  0.49347E+05
 0.33449997E+02  0.84069E+05
 0.33499996E+02 -0.82551E+05
 0.33549999E+02 -0.30088E+06
 0.33599998E+02 -0.31092E+06
 0.33649998E+02 -0.10128E+06
 0.33699997E+02  0.15129E+06
 0.33749996E+02  0.23085E+06
 0.33799999E+02  0.14659E+06
 0.33849998E+02  0.36345E+05
 0.33899998E+02  0.86336E+05
 0.33949997E+02  0.74877E+05
 0.33999996E+02 -0.55180E+05
 0.34049999E+02 -0.43995E+05
 0.34099998E+02  0.13099E+06
 0.34149998E+02  0.22217E+06
 0.34199997E+02  0.12042E+06
 0.34249996E+02  0.24831E+05
 0.34299999E+02  0.11616E+05
 0.34349998E+02  0.46525E+05
 0.34399998E+02  0.10577E+06
 0.34449997E+02  0.22429E+06
 0.34499996E+02  0.35348E+06
 0.34549999E+02  0.31454E+06
 0.34599998E+02  0.10603E+06
 0.34649998E+02 -0.18801E+06
 0.34699997E+02 -0.30954E+06
 0.34749996E+02 -0.30351E+06
 0.34799999E+02 -0.24650E+06
 0.34849998E+02 -0.20675E+06
 0.34899998E+02 -0.25346E+06
 0.34949997E+02 -0.29879E+06
 0.34999996E+02 -0.47411E+06
 0.35049999E+02 -0.59658E+06
 0.35099998E+02 -0.60316E+06
 0.35149998E+02 -0.37770E+06
 0.35199997E+02 -0.52919E+05
 0.35249996E+02  0.98881E+05
 0.35299999E+02 -0.76980E+04
 0.35349998E+02 -0.33887E+05
 0.35399998E+02 -0.25518E+05
 0.35449997E+02 -0.14864E+06
 0.35499996E+02 -0.10489E+06
 0.35549999E+02  0.59927E+05
 0.35599998E+02  0.30324E+06
 0.35649998E+02  0.40157E+06
 0.35699997E+02  0.32320E+06
 0.35749996E+02  0.16481E+06
 0.35799999E+02 -0.16858E+05
 0.35849998E+02 -0.30399E+06
 0.35899998E+02 -0.53339E+06
 0.35949997E+02 -0.54398E+06
 0.35999996E+02 -0.51305E+06
 0.36049999E+02 -0.26460E+06
 0.36099998E+02 -0.64558E+05
 0.36149998E+02  0.33972E+05
 0.36199997E+02  0.73984E+05
 0.36249996E+02 -0.13425E+06
 0.36299999E+02 -0.39935E+06
 0.36349998E+02 -0.48469E+06
 0.36399998E+02 -0.16563E+06
 0.36449997E+02  0.15559E+06
 0.36499996E+02  0.25196E+06
 0.36549999E+02  0.21536E+06
 0.36599998E+02  0.20565E+06
 0.36649998E+02  0.48126E+05
 0.36699997E+02 -0.20549E+06
 0.36749996E+02 -0.31109E+06
 0.36799999E+02 -0.33787E+06
 0.36849998E+02 -0.33347E+06
 0.36899998E+02 -0.39054E+06
 0.36949997E+02 -0.34790E+06
 0.36999996E+02 -0.18407E+06
 0.37049999E+02 -0.13576E+05
 0.37099998E+02 -0.24384E+06
 0.37149998E+02 -0.59221E+06
 0.37199997E+02 -0.51823E+06
 0.37249996E+02 -0.19376E+06
 0.37299999E+02  0.69978E+03
 0.37349998E+02  0.49593E+05
 0.37399998E+02  0.17006E+06
 0.37449997E+02  0.29694E+06
 0.37499996E+02  0.25327E+06
 0.37549999E+02 -0.28712E+05
 0.37599998E+02 -0.23353E+06
 0.37649998E+02 -0.25054E+06
 0.37699997E+02 -0.15102E+06
 0.37749996E+02 -0.47165E+05
 0.37799999E+02  0.40861E+05
 0.37849998E+02  0.30404E+06
 0.37899998E+02  0.50726E+06
 0.37949997E+02  0.32353E+06
 0.37999996E+02 -0.75787E+05
 0.38049999E+02 -0.31073E+06
 0.38099998E+02 -0.37470E+06
 0.38149998E+02 -0.36201E+06
 0.38199997E+02 -0.39984E+06
 0.38249996E+02 -0.51791E+06
 0.38299999E+02 -0.40622E+06
 0.38349998E+02 -0.28298E+06
 0.38399998E+02 -0.27493E+06
 0.38449997E+02 -0.24912E+06
 0.38499996E+02 -0.37663E+06
 0.38549999E+02 -0.49956E+06
 0.38599998E+02 -0.32918E+06
 0.38649998E+02 -0.58189E+05
 0.38699997E+02  0.15997E+06
 0.38749996E+02  0.20528E+06
 0.38799999E+02  0.97225E+05
 0.38849998E+02  0.16540E+06
 0.38899998E+02  0.20738E+06
 0.38949997E+02  0.15029E+06
 0.38999996E+02  0.16041E+06
 0.39049999E+02  0.30502E+06
 0.39099998E+02  0.57560E+06
 0.39149998E+02  0.61797E+06
 0.39199997E+02  0.43137E+06
 0.39249996E+02  0.35960E+06
 0.39299999E+02  0.31137E+06
 0.39349998E+02  0.33628E+06
 0.39399998E+02  0.54972E+06
 0.39449997E+02  0.72441E+06
 0.39499996E+02  0.89807E+06
 0.39549999E+02  0.90901E+06
 0.39599998E+02  0.70528E+06
 0.39649998E+02  0.60577E+06
 0.39699997E+02  0.60526E+06
 0.39749996E+02  0.69295E+06
 0.39799999E+02  0.80826E+06
 0.39849998E+02  0.74294E+06
 0.39899998E+02  0.59064E+06
 0.39949997E+02  0.51476E+06
 0.39999996E+02  0.25782E+06
 0.40049999E+02 -0.65728E+05
 0.40099998E+02 -0.16639E+06
 0.40149998E+02  0.61645E+05
 0.40199997E+02  0.50842E+06
 0.40249996E+02  0.67830E+06
 0.40299999E+02  0.54978E+06
 0.40349998E+02  0.28517E+06
 0.40399998E+02 -0.10900E+06
 0.40449997E+02 -0.46134E+06
 0.40499996E+02 -0.39156E+06
 0.40549999E+02 -0.24945E+05
 0.40599998E+02  0.28843E+06
 0.40649998E+02  0.50835E+06
 0.40699997E+02  0.56193E+06
 0.40749996E+02  0.61002E+06
 0.40799999E+02  0.68868E+06
 0.40849998E+02  0.67372E+06
 0.40899998E+02  0.66178E+06
 0.40949997E+02  0.67860E+06
 0.40999996E+02  0.60462E+06
 0.41049999E+02  0.33932E+06
 0.41099998E+02 -0.28868E+05
 0.41149998E+02 -0.21875E+06
 0.41199997E+02 -0.17593E+06
 0.41249996E+02 -0.19114E+06
 0.41299999E+02 -0.39764E+06
 0.41349998E+02 -0.66930E+06
 0.41399998E+02 -0.84891E+06
 0.41449997E+02 -0.94065E+06
 0.41499996E+02 -0.10628E+07
 0.41549999E+02 -0.99442E+06
 0.41599998E+02 -0.72526E+06
 0.41649998E+02 -0.34096E+06
 0.41699997E+02  0.29229E+05
 0.41749996E+02  0.16892E+06
 0.41799999E+02  0.17911E+06
 0.41849998E+02  0.23271E+06
 0.41899998E+02  0.45999E+06
 0.41949997E+02  0.56681E+06
 0.41999996E+02  0.30057E+06
 0.42049999E+02  0.15274E+05
 0.42099998E+02  0.78520E+05
 0.42149998E+02  0.30223E+06
 0.42199997E+02  0.39776E+06
 0.42249996E+02  0.22041E+06
 0.42299999E+02 -0.25156E+05
 0.42349998E+02 -0.20155E+06
 0.42399998E+02 -0.35957E+06
 0.42449997E+02 -0.56974E+06
 0.42499996E+02 -0.69416E+06
 0.42549999E+02 -0.52344E+06
 0.42599998E+02 -0.33449E+06
 0.42649998E+02 -0.35809E+06
 0.42699997E+02 -0.53966E+06
 0.42749996E+02 -0.69532E+06
 0.42799995E+02 -0.62429E+06
 0.42849998E+02 -0.41264E+06
 0.42899998E+02 -0.30042E+06
 0.42949997E+02 -0.13650E+06
 0.42999996E+02  0.38201E+05
 0.43049995E+02  0.11123E+06
 0.43099998E+02  0.92011E+05
 0.43149998E+02 -0.34640E+05
 0.43199997E+02 -0.77700E+04
 0.43249996E+02  0.21298E+06
 0.43299995E+02  0.37364E+06
 0.43349998E+02  0.36567E+06
 0.43399998E+02  0.30125E+06
 0.43449997E+02  0.33406E+06
 0.43499996E+02  0.40826E+06
 0.43549995E+02  0.40892E+06
 0.43599998E+02  0.32064E+06
 0.43649998E+02  0.27903E+06
 0.43699997E+02  0.30209E+06
 0.43749996E+02  0.23418E+06
 0.43799995E+02  0.12671E+06
 0.43849998E+02  0.24458E+05
 0.43899998E+02  0.84857E+05
 0.43949997E+02  0.23922E+06
 0.43999996E+02  0.21114E+06
 0.44049995E+02  0.13095E+06
 0.44099998E+02  0.78403E+05
 0.44149998E+02  0.87307E+05
 0.44199997E+02  0.18624E+06
 0.44249996E+02  0.28710E+06
 0.44299995E+02  0.26594E+06
 0.44349998E+02  0.15463E+06
 0.44399998E+02  0.82479E+05
 0.44449997E+02  0.56624E+05
 0.44499996E+02  0.49752E+05
 0.44549995E+02 -0.45557E+05
 0.44599998E+02 -0.17735E+06
 0.44649998E+02 -0.23379E+06
 0.44699997E+02 -0.22492E+06
 0.44749996E+02 -0.79497E+05
 0.44799995E+02  0.90351E+05
 0.44849998E+02  0.14526E+06
 0.44899998E+02  0.17698E+06
 0.44949997E+02  0.20888E+06
 0.44999996E+02  0.12952E+06
 0.45049995E+02  0.56672E+05
 0.45099998E+02  0.16729E+06
 0.45149998E+02  0.35942E+06
 0.45199997E+02  0.48513E+06
 0.45249996E+02  0.41726E+06
 0.45299995E+02  0.19529E+06
 0.45349998E+02 -0.32418E+04
 0.45399998E+02 -0.17363E+06
 0.45449997E+02 -0.30314E+06
 0.45499996E+02 -0.26855E+06
 0.45549995E+02 -0.17225E+06
 0.45599998E+02 -0.90806E+05
 0.45649998E+02 -0.11762E+06
 0.45699997E+02 -0.18100E+06
 0.45749996E+02 -0.23161E+06
 0.45799995E+02 -0.29696E+06
 0.45849998E+02 -0.26111E+06
 0.45899998E+02 -0.25636E+06
 0.45949997E+02 -0.32889E+06
 0.45999996E+02 -0.45551E+06
 0.46049995E+02 -0.58849E+06
 0.46099998E+02 -0.72852E+06
 0.46149998E+02 -0.80904E+06
 0.46199997E+02 -0.82425E+06
 0.46249996E+02 -0.83919E+06
 0.46299995E+02 -0.78210E+06
 0.46349998E+02 -0.71626E+06
 0.46399998E+02 -0.65217E+06
 0.46449997E+02 -0.56461E+06
 0.46499996E+02 -0.43548E+06
 0.46549995E+02 -0.21097E+06
 0.46599998E+02 -0.20989E+05
 0.46649998E+02  0.49284E+05
 0.46699997E+02  0.11104E+06
 0.46749996E+02  0.70480E+05
 0.46799995E+02 -0.58793E+05
 0.46849998E+02 -0.12543E+06
 0.46899998E+02 -0.10534E+06
 0.46949997E+02  0.32100E+05
 0.46999996E+02  0.14508E+06
 0.47049995E+02  0.78163E+05
 0.47099998E+02 -0.44194E+05
 0.47149998E+02 -0.75635E+05
 0.47199997E+02 -0.15584E+06
 0.47249996E+02 -0.21456E+06
 0.47299995E+02 -0.11120E+06
 0.47349998E+02  0.47617E+05
 0.47399998E+02  0.14951E+06
 0.47449997E+02  0.18725E+06
 0.47499996E+02  0.16783E+06
 0.47549995E+02  0.86801E+05
 0.47599998E+02 -0.93652E+04
 0.47649998E+02 -0.45483E+05
 0.47699997E+02  0.30272E+05
 0.47749996E+02  0.12815E+06
 0.47799995E+02  0.14296E+06
 0.47849998E+02  0.21791E+05
 0.47899998E+02 -0.13396E+06
 0.47949997E+02 -0.30215E+06
 0.47999996E+02 -0.46001E+06
 0.48049995E+02 -0.54150E+06
 0.48099998E+02 -0.53852E+06
 0.48149998E+02 -0.46045E+06
 0.48199997E+02 -0.38074E+06
 0.48249996E+02 -0.31057E+06
 0.48299995E+02 -0.26654E+06
 0.48349998E+02 -0.27548E+06
 0.48399998E+02 -0.29292E+06
 0.48449997E+02 -0.33297E+06
 0.48499996E+02 -0.42910E+06
 0.48549995E+02 -0.53364E+06
 0.48599998E+02 -0.57518E+06
 0.48649998E+02 -0.45735E+06
 0.48699997E+02 -0.23296E+06
 0.48749996E+02 -0.44372E+05
 0.48799995E+02  0.35464E+05
 0.48849998E+02  0.46526E+05
 0.48899998E+02  0.70476E+05
 0.48949997E+02  0.10715E+06
 0.48999996E+02  0.21981E+06
 0.49049995E+02  0.36650E+06
 0.49099998E+02  0.42352E+06
 0.49149998E+02  0.32419E+06
 0.49199997E+02  0.11154E+06
 0.49249996E+02 -0.11908E+06
 0.49299995E+02 -0.30995E+06
 0.49349998E+02 -0.48875E+06
 0.49399998E+02 -0.66226E+06
 0.49449997E+02 -0.73739E+06
 0.49499996E+02 -0.71686E+06
 0.49549995E+02 -0.63541E+06
 0.49599998E+02 -0.52071E+06
 0.49649998E+02 -0.40440E+06
 0.49699997E+02 -0.29982E+06
 0.49749996E+02 -0.23600E+06
 0.49799995E+02 -0.20934E+06
 0.49849998E+02 -0.13932E+06
 0.49899998E+02 -0.10869E+06
 0.49949997E+02 -0.10943E+06
 0.49999996E+02 -0.81089E+05
 0.50049995E+02 -0.10055E+06
 0.50099998E+02 -0.17307E+06
 0.50149998E+02 -0.23495E+06
 0.50199997E+02 -0.19585E+06
 0.50249996E+02 -0.97363E+05
 0.50299995E+02  0.31837E+05
 0.50349998E+02  0.21587E+06
 0.50399998E+02  0.44307E+06
 0.50449997E+02  0.60035E+06
 0.50499996E+02  0.58912E+06
 0.50549995E+02  0.46394E+06
 0.50599998E+02  0.24957E+06
 0.50649998E+02  0.45678E+05
 0.50699997E+02 -0.75932E+05
 0.50749996E+02 -0.13204E+06
 0.50799995E+02 -0.17245E+06
 0.50849998E+02 -0.14761E+06
 0.50899998E+02 -0.27319E+05
 0.50949997E+02  0.10162E+06
 0.50999996E+02  0.21008E+06
 0.51049995E+02  0.27603E+06
 0.51099998E+02  0.35433E+06
 0.51149998E+02  0.39086E+06
 0.51199997E+02  0.41250E+06
 0.51249996E+02  0.53667E+06
 0.51299995E+02  0.70274E+06
 0.51349998E+02  0.82181E+06
 0.51399998E+02  0.85512E+06
 0.51449997E+02  0.81327E+06
 0.51499996E+02  0.70733E+06
 0.51549995E+02  0.55341E+06
 0.51599998E+02  0.36676E+06
 0.51649998E+02  0.20162E+06
 0.51699997E+02  0.87504E+05
 0.51749996E+02  0.28738E+05
 0.51799995E+02 -0.44943E+04
 0.51849998E+02 -0.71842E+05
 0.51899998E+02 -0.13558E+06
 0.51949997E+02 -0.21459E+06
 0.51999996E+02 -0.31701E+06
 0.52049995E+02 -0.34171E+06
 0.52099998E+02 -0.37347E+06
 0.52149998E+02 -0.46926E+06
 0.52199997E+02 -0.49805E+06
 0.52249996E+02 -0.48798E+06
 0.52299995E+02 -0.48582E+06
 0.52349998E+02 -0.44720E+06
 0.52399998E+02 -0.40705E+06
 0.52449997E+02 -0.32598E+06
 0.52499996E+02 -0.15356E+06
 0.52549995E+02  0.98322E+04
 0.52599998E+02  0.11974E+06
 0.52649998E+02  0.16234E+06
 0.52699997E+02  0.13818E+06
 0.52749996E+02  0.14363E+06
 0.52799995E+02  0.23115E+06
 0.52849998E+02  0.33661E+06
 0.52899998E+02  0.44867E+06
 0.52949997E+02  0.56889E+06
 0.52999996E+02  0.65488E+06
 0.53049995E+02  0.69432E+06
 0.53099998E+02  0.63484E+06
 0.53149998E+02  0.47136E+06
 0.53199997E+02  0.28679E+06
 0.53249996E+02  0.10700E+06
 0.53299995E+02 -0.33730E+05
 0.53349998E+02 -0.52832E+05
 0.53399998E+02  0.41629E+05
 0.53449997E+02  0.20868E+06
 0.53499996E+02  0.37338E+06
 0.53549995E+02  0.43316E+06
 0.53599998E+02  0.39007E+06
 0.53649998E+02  0.35790E+06
 0.53699997E+02  0.36162E+06
 0.53749996E+02  0.34788E+06
 0.53799995E+02  0.31489E+06
 0.53849998E+02  0.28618E+06
 0.53899998E+02  0.35923E+06
 0.53949997E+02  0.56871E+06
 0.53999996E+02  0.77003E+06
 0.54049995E+02  0.86165E+06
 0.54099998E+02  0.90437E+06
 0.54149998E+02  0.96441E+06
 0.54199997E+02  0.99427E+06
 0.54249996E+02  0.93432E+06
 0.54299995E+02  0.84243E+06
 0.54349998E+02  0.80114E+06
 0.54399998E+02  0.80115E+06
 0.54449997E+02  0.77657E+06
 0.54499996E+02  0.76364E+06
 0.54549995E+02  0.82694E+06
 0.54599998E+02  0.86541E+06
 0.54649998E+02  0.78226E+06
 0.54699997E+02  0.58812E+06
 0.54749996E+02  0.35967E+06
 0.54799995E+02  0.22232E+06
 0.54849998E+02  0.24241E+06
 0.54899998E+02  0.37280E+06
 0.54949997E+02  0.53856E+06
 0.54999996E+02  0.70001E+06
 0.55049995E+02  0.77555E+06
 0.55099998E+02  0.69937E+06
 0.55149998E+02  0.49982E+06
 0.55199997E+02  0.23750E+06
 0.55249996E+02 -0.43197E+04
 0.55299995E+02 -0.15052E+06
 0.55349998E+02 -0.20336E+06
 0.55399998E+02 -0.18635E+06
 0.55449997E+02 -0.17093E+06
 0.55499996E+02 -0.20241E+06
 0.55549995E+02 -0.27098E+06
 0.55599998E+02 -0.40045E+06
 0.55649998E+02 -0.59067E+06
 0.55699997E+02 -0.70961E+06
 0.55749996E+02 -0.69260E+06
 0.55799995E+02 -0.65666E+06
 0.55849995E+02 -0.67000E+06
 0.55899998E+02 -0.72723E+06
 0.55949997E+02 -0.81447E+06
 0.55999996E+02 -0.94316E+06
 0.56049995E+02 -0.10719E+07
 0.56099995E+02 -0.11836E+07
 0.56149998E+02 -0.12715E+07
 0.56199997E+02 -0.13391E+07
 0.56249996E+02 -0.14017E+07
 0.56299995E+02 -0.14010E+07
 0.56349995E+02 -0.13050E+07
 0.56399998E+02 -0.11563E+07
 0.56449997E+02 -0.10138E+07
 0.56499996E+02 -0.95230E+06
 0.56549995E+02 -0.99736E+06
 0.56599995E+02 -0.10919E+07
 0.56649998E+02 -0.11842E+07
 0.56699997E+02 -0.12462E+07
 0.56749996E+02 -0.12676E+07
 0.56799995E+02 -0.12175E+07
 0.56849995E+02 -0.10698E+07
 0.56899998E+02 -0.85703E+06
 0.56949997E+02 -0.62520E+06
 0.56999996E+02 -0.39818E+06
 0.57049995E+02 -0.19302E+06
 0.57099995E+02 -0.43247E+05
 0.57149998E+02  0.80478E+04
 0.57199997E+02  0.33712E+04
 0.57249996E+02  0.19023E+05
 0.57299995E+02  0.45273E+05
 0.57349995E+02  0.69811E+05
 0.57399998E+02  0.11467E+06
 0.57449997E+02  0.18107E+06
 0.57499996E+02  0.32264E+06
 0.57549995E+02  0.50389E+06
 0.57599995E+02  0.67508E+06
 0.57649998E+02  0.83832E+06
 0.57699997E+02  0.10094E+07
 0.57749996E+02  0.12352E+07
 0.57799995E+02  0.14256E+07
 0.57849995E+02  0.14503E+07
 0.57899998E+02  0.13164E+07
 0.57949997E+02  0.11222E+07
 0.57999996E+02  0.90961E+06
 0.58049995E+02  0.69293E+06
 0.58099995E+02  0.49613E+06
 0.58149998E+02  0.38750E+06
 0.58199997E+02  0.38168E+06
 0.58249996E+02  0.41839E+06
 0.58299995E+02  0.45243E+06
 0.58349995E+02  0.45764E+06
 0.58399998E+02  0.44723E+06
 0.58449997E+02  0.43752E+06
 0.58499996E+02  0.45484E+06
 0.58549995E+02  0.53937E+06
 0.58599995E+02  0.66036E+06
 0.58649998E+02  0.74249E+06
 0.58699997E+02  0.78543E+06
 0.58749996E+02  0.79971E+06
 0.58799995E+02  0.80154E+06
 0.58849995E+02  0.80669E+06
 0.58899998E+02  0.81145E+06
 0.58949997E+02  0.79066E+06
 0.58999996E+02  0.72291E+06
 0.59049995E+02  0.59445E+06
 0.59099995E+02  0.37161E+06
 0.59149998E+02  0.55882E+05
 0.59199997E+02 -0.32538E+06
 0.59249996E+02 -0.70714E+06
 0.59299995E+02 -0.10191E+07
 0.59349995E+02 -0.11889E+07
 0.59399998E+02 -0.12203E+07
 0.59449997E+02 -0.12113E+07
 0.59499996E+02 -0.12140E+07
 0.59549995E+02 -0.12276E+07
 0.59599995E+02 -0.12045E+07
 0.59649998E+02 -0.10937E+07
 0.59699997E+02 -0.90524E+06
 0.59749996E+02 -0.66474E+06
 0.59799995E+02 -0.37075E+06
 0.59849995E+02 -0.74388E+05
 0.59899998E+02  0.15425E+06
 0.59949997E+02  0.26513E+06
 0.59999996E+02  0.23793E+06
 0.60049995E+02  0.88933E+05
 0.60099995E+02 -0.11545E+06
 0.60149998E+02 -0.31066E+06
 0.60199997E+02 -0.49174E+06
 0.60249996E+02 -0.62214E+06
 0.60299995E+02 -0.69925E+06
 0.60349995E+02 -0.75066E+06
 0.60399998E+02 -0.75772E+06
 0.60449997E+02 -0.68889E+06
 0.60499996E+02 -0.56955E+06
 0.60549995E+02 -0.45404E+06
 0.60599995E+02 -0.40561E+06
 0.60649998E+02 -0.40613E+06
 0.60699997E+02 -0.39452E+06
 0.60749996E+02 -0.37731E+06
 0.60799995E+02 -0.35063E+06
 0.60849995E+02 -0.32137E+06
 0.60899998E+02 -0.31699E+06
 0.60949997E+02 -0.37588E+06
 0.60999996E+02 -0.49977E+06
 0.61049995E+02 -0.60576E+06
 0.61099995E+02 -0.58098E+06
 0.61149998E+02 -0.41558E+06
 0.61199997E+02 -0.17204E+06
 0.61249996E+02  0.12755E+06
 0.61299995E+02  0.43958E+06
 0.61349995E+02  0.70750E+06
 0.61399998E+02  0.87094E+06
 0.61449997E+02  0.89937E+06
 0.61499996E+02  0.83170E+06
 0.61549995E+02  0.69856E+06
 0.61599995E+02  0.53505E+06
 0.61649998E+02  0.39295E+06
 0.61699997E+02  0.30631E+06
 0.61749996E+02  0.28779E+06
 0.61799995E+02  0.34109E+06
 0.61849995E+02  0.44679E+06
 0.61899998E+02  0.57364E+06
 0.61949997E+02  0.67875E+06
 0.61999996E+02  0.71248E+06
 0.62049995E+02  0.65336E+06
 0.62099998E+02  0.53281E+06
 0.62149994E+02  0.38652E+06
 0.62199997E+02  0.25559E+06
 0.62249992E+02  0.17095E+06
 0.62299995E+02  0.12114E+06
 0.62349998E+02  0.10911E+06
 0.62399994E+02  0.13791E+06
 0.62449997E+02  0.22059E+06
 0.62499992E+02  0.34046E+06
 0.62549995E+02  0.47910E+06
 0.62599998E+02  0.61933E+06
 0.62649994E+02  0.72257E+06
 0.62699997E+02  0.74857E+06
 0.62749992E+02  0.69868E+06
 0.62799995E+02  0.63131E+06
 0.62849998E+02  0.56912E+06
 0.62899994E+02  0.47627E+06
 0.62949997E+02  0.32261E+06
 0.62999992E+02  0.10139E+06
 0.63049995E+02 -0.14450E+06
 0.63099998E+02 -0.35612E+06
 0.63149994E+02 -0.49983E+06
 0.63199997E+02 -0.56347E+06
 0.63249992E+02 -0.59163E+06
 0.63299995E+02 -0.61173E+06
 0.63349998E+02 -0.65212E+06
 0.63399994E+02 -0.74580E+06
 0.63449997E+02 -0.86981E+06
 0.63499992E+02 -0.97744E+06
 0.63549995E+02 -0.10274E+07
 0.63599998E+02 -0.99582E+06
 0.63649994E+02 -0.90822E+06
 0.63699997E+02 -0.81642E+06
 0.63749992E+02 -0.77154E+06
 0.63799995E+02 -0.76511E+06
 0.63849998E+02 -0.75362E+06
 0.63899994E+02 -0.71319E+06
 0.63949997E+02 -0.59583E+06
 0.63999992E+02 -0.39575E+06
 0.64049995E+02 -0.17204E+06
 0.64099998E+02  0.19214E+05
 0.64149994E+02  0.14849E+06
 0.64199997E+02  0.18870E+06
 0.64249992E+02  0.14034E+06
 0.64299995E+02  0.43649E+05
 0.64349998E+02 -0.40344E+05
 0.64399994E+02 -0.68125E+05
 0.64449997E+02 -0.37443E+05
 0.64499992E+02  0.43174E+05
 0.64549995E+02  0.12477E+06
 0.64599998E+02  0.16067E+06
 0.64649994E+02  0.13246E+06
 0.64699997E+02  0.47181E+05
 0.64749992E+02 -0.33682E+05
 0.64799995E+02 -0.79004E+05
 0.64849998E+02 -0.92182E+05
 0.64899994E+02 -0.68368E+05
 0.64949997E+02 -0.19930E+05
 0.64999992E+02  0.28170E+05
 0.65049995E+02  0.91278E+05
 0.65099998E+02  0.18852E+06
 0.65149994E+02  0.31968E+06
 0.65199997E+02  0.47277E+06
 0.65249992E+02  0.62151E+06
 0.65299995E+02  0.75472E+06
 0.65349998E+02  0.84011E+06
 0.65399994E+02  0.84875E+06
 0.65449997E+02  0.80876E+06
 0.65499992E+02  0.77841E+06
 0.65549995E+02  0.78191E+06
 0.65599998E+02  0.81931E+06
 0.65649994E+02  0.88091E+06
 0.65699997E+02  0.94724E+06
 0.65749992E+02  0.10055E+07
 0.65799995E+02  0.10676E+07
 0.65849998E+02  0.11361E+07
 0.65899994E+02  0.11820E+07
 0.65949997E+02  0.11697E+07
 0.65999992E+02  0.10571E+07
 0.66049995E+02  0.82330E+06
 0.66099998E+02  0.51928E+06
 0.66149994E+02  0.23620E+06
 0.66199997E+02  0.22906E+05
 0.66249992E+02 -0.11267E+06
 0.66299995E+02 -0.18616E+06
 0.66349998E+02 -0.22112E+06
 0.66399994E+02 -0.24239E+06
 0.66449997E+02 -0.27823E+06
 0.66499992E+02 -0.33621E+06
 0.66549995E+02 -0.40360E+06
 0.66599998E+02 -0.46287E+06
 0.66649994E+02 -0.49838E+06
 0.66699997E+02 -0.52004E+06
 0.66749992E+02 -0.52575E+06
 0.66799995E+02 -0.50705E+06
 0.66849998E+02 -0.49418E+06
 0.66899994E+02 -0.50392E+06
 0.66949997E+02 -0.51691E+06
 0.66999992E+02 -0.51638E+06
 0.67049995E+02 -0.51701E+06
 0.67099998E+02 -0.53179E+06
 0.67149994E+02 -0.57393E+06
 0.67199997E+02 -0.66860E+06
 0.67249992E+02 -0.79900E+06
 0.67299995E+02 -0.90406E+06
 0.67349998E+02 -0.93333E+06
 0.67399994E+02 -0.88742E+06
 0.67449997E+02 -0.80389E+06
 0.67499992E+02 -0.72348E+06
 0.67549995E+02 -0.64742E+06
 0.67599998E+02 -0.55496E+06
 0.67649994E+02 -0.44158E+06
 0.67699997E+02 -0.31770E+06
 0.67749992E+02 -0.20544E+06
 0.67799995E+02 -0.13146E+06
 0.67849998E+02 -0.12381E+06
 0.67899994E+02 -0.17575E+06
 0.67949997E+02 -0.24979E+06
 0.67999992E+02 -0.30883E+06
 0.68049995E+02 -0.33156E+06
 0.68099998E+02 -0.30327E+06
 0.68149994E+02 -0.23915E+06
 0.68199997E+02 -0.19485E+06
 0.68249992E+02 -0.21221E+06
 0.68299995E+02 -0.29084E+06
 0.68349998E+02 -0.40584E+06
 0.68399994E+02 -0.53749E+06
 0.68449997E+02 -0.63593E+06
 0.68499992E+02 -0.66321E+06
 0.68549995E+02 -0.61035E+06
 0.68599998E+02 -0.49069E+06
 0.68649994E+02 -0.35303E+06
 0.68699997E+02 -0.22940E+06
 0.68749992E+02 -0.15628E+06
 0.68799995E+02 -0.14313E+06
 0.68849998E+02 -0.16628E+06
 0.68899994E+02 -0.19212E+06
 0.68949997E+02 -0.18552E+06
 0.68999992E+02 -0.13681E+06
 0.69049995E+02 -0.60587E+05
 0.69099998E+02  0.29202E+05
 0.69149994E+02  0.13135E+06
 0.69199997E+02  0.23467E+06
 0.69249992E+02  0.34730E+06
 0.69299995E+02  0.48255E+06
 0.69349998E+02  0.64295E+06
 0.69399994E+02  0.80942E+06
 0.69449997E+02  0.95161E+06
 0.69499992E+02  0.10712E+07
 0.69549995E+02  0.11790E+07
 0.69599998E+02  0.12761E+07
 0.69649994E+02  0.13642E+07
 0.69699997E+02  0.14535E+07
 0.69749992E+02  0.15386E+07
 0.69799995E+02  0.16111E+07
 0.69849998E+02  0.16591E+07
 0.69899994E+02  0.16649E+07
 0.69949997E+02  0.16192E+07
 0.69999992E+02  0.15220E+07
 0.70049995E+02  0.14080E+07
 0.70099998E+02  0.12931E+07
 0.70149994E+02  0.11596E+07
 0.70199997E+02  0.10086E+07
 0.70249992E+02  0.85277E+06
 0.70299995E+02  0.69344E+06
 0.70349998E+02  0.50850E+06
 0.70399994E+02  0.30389E+06
 0.70449997E+02  0.11096E+06
 0.70499992E+02 -0.47560E+05
 0.70549995E+02 -0.15705E+06
 0.70599998E+02 -0.22652E+06
 0.70649994E+02 -0.26187E+06
 0.70699997E+02 -0.26097E+06
 0.70749992E+02 -0.24428E+06
 0.70799995E+02 -0.23636E+06
 0.70849998E+02 -0.26335E+06
 0.70899994E+02 -0.32928E+06
 0.70949997E+02 -0.40579E+06
 0.70999992E+02 -0.49026E+06
 0.71049995E+02 -0.58204E+06
 0.71099998E+02 -0.66697E+06
 0.71149994E+02 -0.74754E+06
 0.71199997E+02 -0.84587E+06
 0.71249992E+02 -0.97437E+06
 0.71299995E+02 -0.11140E+07
 0.71349998E+02 -0.12615E+07
 0.71399994E+02 -0.13986E+07
 0.71449997E+02 -0.14903E+07
 0.71499992E+02 -0.15166E+07
 0.71549995E+02 -0.14584E+07
 0.71599998E+02 -0.13228E+07
 0.71649994E+02 -0.11331E+07
 0.71699997E+02 -0.91559E+06
 0.71749992E+02 -0.70723E+06
 0.71799995E+02 -0.54523E+06
 0.71849998E+02 -0.43932E+06
 0.71899994E+02 -0.39743E+06
 0.71949997E+02 -0.40450E+06
 0.71999992E+02 -0.41178E+06
 0.72049995E+02 -0.38466E+06
 0.72099998E+02 -0.33236E+06
 0.72149994E+02 -0.28418E+06
 0.72199997E+02 -0.22733E+06
 0.72249992E+02 -0.16686E+06
 0.72299995E+02 -0.12179E+06
 0.72349998E+02 -0.90316E+05
 0.72399994E+02 -0.54070E+05
 0.72449997E+02  0.59149E+04
 0.72499992E+02  0.87549E+05
 0.72549995E+02  0.17639E+06
 0.72599998E+02  0.25299E+06
 0.72649994E+02  0.31985E+06
 0.72699997E+02  0.37702E+06
 0.72749992E+02  0.43269E+06
 0.72799995E+02  0.49212E+06
 0.72849998E+02  0.55969E+06
 0.72899994E+02  0.65488E+06
 0.72949997E+02  0.75962E+06
 0.72999992E+02  0.83965E+06
 0.73049995E+02  0.86898E+06
 0.73099998E+02  0.82894E+06
 0.73149994E+02  0.72672E+06
 0.73199997E+02  0.59516E+06
 0.73249992E+02  0.46677E+06
 0.73299995E+02  0.35745E+06
 0.73349998E+02  0.26484E+06
 0.73399994E+02  0.16612E+06
 0.73449997E+02  0.58078E+05
 0.73499992E+02 -0.50122E+05
 0.73549995E+02 -0.14192E+06
 0.73599998E+02 -0.21755E+06
 0.73649994E+02 -0.28868E+06
 0.73699997E+02 -0.35901E+06
 0.73749992E+02 -0.42486E+06
 0.73799995E+02 -0.48609E+06
 0.73849998E+02 -0.53678E+06
 0.73899994E+02 -0.57034E+06
 0.73949997E+02 -0.59986E+06
 0.73999992E+02 -0.61761E+06
 0.74049995E+02 -0.60358E+06
 0.74099998E+02 -0.52257E+06
 0.74149994E+02 -0.39648E+06
 0.74199997E+02 -0.27228E+06
 0.74249992E+02 -0.15778E+06
 0.74299995E+02 -0.46068E+05
 0.74349998E+02  0.54738E+05
 0.74399994E+02  0.11954E+06
 0.74449997E+02  0.13686E+06
 0.74499992E+02  0.11104E+06
 0.74549995E+02  0.70557E+05
 0.74599998E+02  0.44349E+05
 0.74649994E+02  0.47030E+05
 0.74699997E+02  0.86996E+05
 0.74749992E+02  0.17329E+06
 0.74799995E+02  0.29580E+06
 0.74849998E+02  0.43113E+06
 0.74899994E+02  0.56300E+06
 0.74949997E+02  0.68998E+06
 0.74999992E+02  0.81348E+06
 0.75049995E+02  0.91419E+06
 0.75099998E+02  0.96551E+06
 0.75149994E+02  0.95680E+06
 0.75199997E+02  0.89380E+06
 0.75249992E+02  0.78648E+06
 0.75299995E+02  0.64701E+06
 0.75349998E+02  0.48420E+06
 0.75399994E+02  0.29728E+06
 0.75449997E+02  0.87290E+05
 0.75499992E+02 -0.12340E+06
 0.75549995E+02 -0.29973E+06
 0.75599998E+02 -0.41975E+06
 0.75649994E+02 -0.48159E+06
 0.75699997E+02 -0.49143E+06
 0.75749992E+02 -0.46002E+06
 0.75799995E+02 -0.41781E+06
 0.75849998E+02 -0.39246E+06
 0.75899994E+02 -0.40306E+06
 0.75949997E+02 -0.45849E+06
 0.75999992E+02 -0.54659E+06
 0.76049995E+02 -0.65555E+06
 0.76099998E+02 -0.75604E+06
 0.76149994E+02 -0.82702E+06
 0.76199997E+02 -0.87468E+06
 0.76249992E+02 -0.91277E+06
 0.76299995E+02 -0.93642E+06
 0.76349998E+02 -0.92971E+06
 0.76399994E+02 -0.88075E+06
 0.76449997E+02 -0.76612E+06
 0.76499992E+02 -0.57848E+06
 0.76549995E+02 -0.33990E+06
 0.76599998E+02 -0.85299E+05
 0.76649994E+02  0.17558E+06
 0.76699997E+02  0.44768E+06
 0.76749992E+02  0.72552E+06
 0.76799995E+02  0.98383E+06
 0.76849998E+02  0.11984E+07
 0.76899994E+02  0.13700E+07
 0.76949997E+02  0.15083E+07
 0.76999992E+02  0.16149E+07
 0.77049995E+02  0.16920E+07
 0.77099998E+02  0.17475E+07
 0.77149994E+02  0.17794E+07
 0.77199997E+02  0.17661E+07
 0.77249992E+02  0.16933E+07
 0.77299995E+02  0.15602E+07
 0.77349998E+02  0.13725E+07
 0.77399994E+02  0.11491E+07
 0.77449997E+02  0.90058E+06
 0.77499992E+02  0.62302E+06
 0.77549995E+02  0.31346E+06
 0.77599998E+02 -0.16241E+05
 0.77649994E+02 -0.35553E+06
 0.77699997E+02 -0.69361E+06
 0.77749992E+02 -0.10129E+07
 0.77799995E+02 -0.12904E+07
 0.77849998E+02 -0.15060E+07
 0.77899994E+02 -0.16337E+07
 0.77949997E+02 -0.16664E+07
 0.77999992E+02 -0.16241E+07
 0.78049995E+02 -0.15228E+07
 0.78099998E+02 -0.13803E+07
 0.78149994E+02 -0.12147E+07
 0.78199997E+02 -0.10463E+07
 0.78249992E+02 -0.88286E+06
 0.78299995E+02 -0.72645E+06
 0.78349998E+02 -0.58040E+06
 0.78399994E+02 -0.46300E+06
 0.78449997E+02 -0.37503E+06
 0.78499992E+02 -0.30662E+06
 0.78549995E+02 -0.25383E+06
 0.78599998E+02 -0.19308E+06
 0.78649994E+02 -0.10800E+06
 0.78699997E+02  0.91554E+04
 0.78749992E+02  0.14167E+06
 0.78799995E+02  0.25691E+06
 0.78849998E+02  0.33430E+06
 0.78899994E+02  0.36423E+06
 0.78949997E+02  0.33526E+06
 0.78999992E+02  0.25989E+06
 0.79049995E+02  0.17173E+06
 0.79099998E+02  0.88474E+05
 0.79149994E+02  0.30565E+05
 0.79199997E+02  0.70509E+04
 0.79249992E+02  0.72066E+04
 0.79299995E+02  0.21385E+05
 0.79349998E+02  0.32238E+05
 0.79399994E+02  0.27280E+05
 0.79449997E+02 -0.22774E+04
 0.79499992E+02 -0.71218E+05
 0.79549995E+02 -0.16804E+06
 0.79599998E+02 -0.27041E+06
 0.79649994E+02 -0.35745E+06
 0.79699997E+02 -0.41675E+06
 0.79749992E+02 -0.44574E+06
 0.79799995E+02 -0.44623E+06
 0.79849998E+02 -0.43026E+06
 0.79899994E+02 -0.40097E+06
 0.79949997E+02 -0.34322E+06
 0.79999992E+02 -0.24608E+06
 0.80049995E+02 -0.11725E+06
 0.80099998E+02  0.31316E+05
 0.80149994E+02  0.18751E+06
 0.80199997E+02  0.34479E+06
 0.80249992E+02  0.49511E+06
 0.80299995E+02  0.64263E+06
 0.80349998E+02  0.78655E+06
 0.80399994E+02  0.91411E+06
 0.80449997E+02  0.10091E+07
 0.80499992E+02  0.10722E+07
 0.80549995E+02  0.11115E+07
 0.80599998E+02  0.11182E+07
 0.80649994E+02  0.10924E+07
 0.80699997E+02  0.10317E+07
 0.80749992E+02  0.93644E+06
 0.80799995E+02  0.81604E+06
 0.80849998E+02  0.68944E+06
 0.80899994E+02  0.56216E+06
 0.80949997E+02  0.42931E+06
 0.80999992E+02  0.30063E+06
 0.81049995E+02  0.18734E+06
 0.81099998E+02  0.84247E+05
 0.81149994E+02 -0.24994E+05
 0.81199997E+02 -0.15641E+06
 0.81249992E+02 -0.31567E+06
 0.81299995E+02 -0.49087E+06
 0.81349998E+02 -0.66802E+06
 0.81399994E+02 -0.82977E+06
 0.81449997E+02 -0.96136E+06
 0.81499992E+02 -0.10674E+07
 0.81549995E+02 -0.11433E+07
 0.81599998E+02 -0.11754E+07
 0.81649994E+02 -0.11587E+07
 0.81699997E+02 -0.10918E+07
 0.81749992E+02 -0.97583E+06
 0.81799995E+02 -0.80943E+06
 0.81849998E+02 -0.60411E+06
 0.81899994E+02 -0.38828E+06
 0.81949997E+02 -0.18324E+06
 0.81999992E+02  0.12486E+05
 0.82049995E+02  0.20142E+06
 0.82099998E+02  0.39403E+06
 0.82149994E+02  0.59011E+06
 0.82199997E+02  0.77481E+06
 0.82249992E+02  0.94040E+06
 0.82299995E+02  0.10675E+07
 0.82349998E+02  0.11392E+07
 0.82399994E+02  0.11601E+07
 0.82449997E+02  0.11423E+07
 0.82499992E+02  0.11015E+07
 0.82549995E+02  0.10407E+07
 0.82599998E+02  0.94397E+06
 0.82649994E+02  0.80671E+06
 0.82699997E+02  0.63128E+06
 0.82749992E+02  0.42366E+06
 0.82799995E+02  0.19227E+06
 0.82849998E+02 -0.48482E+05
 0.82899994E+02 -0.28104E+06
 0.82949997E+02 -0.49957E+06
 0.82999992E+02 -0.71504E+06
 0.83049995E+02 -0.92660E+06
 0.83099998E+02 -0.11167E+07
 0.83149994E+02 -0.12754E+07
 0.83199997E+02 -0.13977E+07
 0.83249992E+02 -0.14837E+07
 0.83299995E+02 -0.15340E+07
 0.83349998E+02 -0.15449E+07
 0.83399994E+02 -0.15112E+07
 0.83449997E+02 -0.14312E+07
 0.83499992E+02 -0.13029E+07
 0.83549995E+02 -0.11283E+07
 0.83599998E+02 -0.92338E+06
 0.83649994E+02 -0.70704E+06
 0.83699997E+02 -0.48741E+06
 0.83749992E+02 -0.26544E+06
 0.83799995E+02 -0.46438E+05
 0.83849998E+02  0.16847E+06
 0.83899994E+02  0.37375E+06
 0.83949997E+02  0.55678E+06
 0.83999992E+02  0.70827E+06
 0.84049995E+02  0.81658E+06
 0.84099998E+02  0.88050E+06
 0.84149994E+02  0.90674E+06
 0.84199997E+02  0.89550E+06
 0.84249992E+02  0.85400E+06
 0.84299995E+02  0.79116E+06
 0.84349998E+02  0.70702E+06
 0.84399994E+02  0.60589E+06
 0.84449997E+02  0.49373E+06
 0.84499992E+02  0.36917E+06
 0.84549995E+02  0.23446E+06
 0.84599998E+02  0.94548E+05
 0.84649994E+02 -0.44284E+05
 0.84699997E+02 -0.17852E+06
 0.84749992E+02 -0.31103E+06
 0.84799995E+02 -0.44201E+06
 0.84849998E+02 -0.56403E+06
 0.84899994E+02 -0.66113E+06
 0.84949997E+02 -0.72173E+06
 0.84999992E+02 -0.74667E+06
 0.85049995E+02 -0.73363E+06
 0.85099998E+02 -0.67040E+06
 0.85149994E+02 -0.55732E+06
 0.85199997E+02 -0.40578E+06
 0.85249992E+02 -0.22640E+06
 0.85299995E+02 -0.25525E+05
 0.85349998E+02  0.19223E+06
 0.85399994E+02  0.42431E+06
 0.85449997E+02  0.65979E+06
 0.85499992E+02  0.87962E+06
 0.85549995E+02  0.10676E+07
 0.85599998E+02  0.12235E+07
 0.85649994E+02  0.13563E+07
 0.85699997E+02  0.14632E+07
 0.85749992E+02  0.15404E+07
 0.85799995E+02  0.15868E+07
 0.85849998E+02  0.15974E+07
 0.85899994E+02  0.15687E+07
 0.85949997E+02  0.15016E+07
 0.85999992E+02  0.13977E+07
 0.86049995E+02  0.12649E+07
 0.86099998E+02  0.11168E+07
 0.86149994E+02  0.96104E+06
 0.86199997E+02  0.79052E+06
 0.86249992E+02  0.59747E+06
 0.86299995E+02  0.38636E+06
 0.86349998E+02  0.16202E+06
 0.86399994E+02 -0.78989E+05
 0.86449997E+02 -0.33636E+06
 0.86499992E+02 -0.59377E+06
 0.86549995E+02 -0.82495E+06
 0.86599998E+02 -0.10186E+07
 0.86649994E+02 -0.11695E+07
 0.86699997E+02 -0.12757E+07
 0.86749992E+02 -0.13391E+07
 0.86799995E+02 -0.13661E+07
 0.86849998E+02 -0.13712E+07
 0.86899994E+02 -0.13606E+07
 0.86949997E+02 -0.13331E+07
 0.86999992E+02 -0.12883E+07
 0.87049995E+02 -0.12274E+07
 0.87099998E+02 -0.11431E+07
 0.87149994E+02 -0.10336E+07
 0.87199997E+02 -0.90333E+06
 0.87249992E+02 -0.76299E+06
 0.87299995E+02 -0.62372E+06
 0.87349998E+02 -0.49039E+06
 0.87399994E+02 -0.36755E+06
 0.87449997E+02 -0.26503E+06
 0.87499992E+02 -0.17896E+06
 0.87549995E+02 -0.99718E+05
 0.87599991E+02 -0.30593E+05
 0.87649994E+02  0.29210E+05
 0.87699997E+02  0.77476E+05
 0.87749992E+02  0.11085E+06
 0.87799995E+02  0.12555E+06
 0.87849991E+02  0.12006E+06
 0.87899994E+02  0.90721E+05
 0.87949997E+02  0.40703E+05
 0.87999992E+02 -0.20331E+05
 0.88049995E+02 -0.76605E+05
 0.88099991E+02 -0.11303E+06
 0.88149994E+02 -0.12304E+06
 0.88199997E+02 -0.94601E+05
 0.88249992E+02 -0.27656E+05
 0.88299995E+02  0.63055E+05
 0.88349991E+02  0.15530E+06
 0.88399994E+02  0.23523E+06
 0.88449997E+02  0.30130E+06
 0.88499992E+02  0.35867E+06
 0.88549995E+02  0.41167E+06
 0.88599991E+02  0.46162E+06
 0.88649994E+02  0.50466E+06
 0.88699997E+02  0.53344E+06
 0.88749992E+02  0.54354E+06
 0.88799995E+02  0.52932E+06
 0.88849991E+02  0.49551E+06
 0.88899994E+02  0.44892E+06
 0.88949997E+02  0.38779E+06
 0.88999992E+02  0.31280E+06
 0.89049995E+02  0.23746E+06
 0.89099991E+02  0.17195E+06
 0.89149994E+02  0.11669E+06
 0.89199997E+02  0.73692E+05
 0.89249992E+02  0.48112E+05
 0.89299995E+02  0.50082E+05
 0.89349991E+02  0.74931E+05
 0.89399994E+02  0.10521E+06
 0.89449997E+02  0.13699E+06
 0.89499992E+02  0.17055E+06
 0.89549995E+02  0.20137E+06
 0.89599991E+02  0.22698E+06
 0.89649994E+02  0.25152E+06
 0.89699997E+02  0.28062E+06
 0.89749992E+02  0.31349E+06
 0.89799995E+02  0.34269E+06
 0.89849991E+02  0.36364E+06
 0.89899994E+02  0.37287E+06
 0.89949997E+02  0.36282E+06
 0.89999992E+02  0.33467E+06
 0.90049995E+02  0.29095E+06
 0.90099991E+02  0.23592E+06
 0.90149994E+02  0.17409E+06
 0.90199997E+02  0.98458E+05
 0.90249992E+02 -0.36310E+03
 0.90299995E+02 -0.12386E+06
 0.90349991E+02 -0.26800E+06
 0.90399994E+02 -0.42576E+06
 0.90449997E+02 -0.58564E+06
 0.90499992E+02 -0.73606E+06
 0.90549995E+02 -0.86201E+06
 0.90599991E+02 -0.94900E+06
 0.90649994E+02 -0.99174E+06
 0.90699997E+02 -0.98720E+06
 0.90749992E+02 -0.94101E+06
 0.90799995E+02 -0.86117E+06
 0.90849991E+02 -0.74870E+06
 0.90899994E+02 -0.60266E+06
 0.90949997E+02 -0.43073E+06
 0.90999992E+02 -0.24266E+06
 0.91049995E+02 -0.46247E+05
 0.91099991E+02  0.14655E+06
 0.91149994E+02  0.32704E+06
 0.91199997E+02  0.48735E+06
 0.91249992E+02  0.61460E+06
 0.91299995E+02  0.69432E+06
 0.91349991E+02  0.72607E+06
 0.91399994E+02  0.71660E+06
 0.91449997E+02  0.67409E+06
 0.91499992E+02  0.60708E+06
 0.91549995E+02  0.52226E+06
 0.91599991E+02  0.42611E+06
 0.91649994E+02  0.32454E+06
 0.91699997E+02  0.21746E+06
 0.91749992E+02  0.10058E+06
 0.91799995E+02 -0.23957E+05
 0.91849991E+02 -0.15419E+06
 0.91899994E+02 -0.29366E+06
 0.91949997E+02 -0.44234E+06
 0.91999992E+02 -0.58943E+06
 0.92049995E+02 -0.72348E+06
 0.92099991E+02 -0.83747E+06
 0.92149994E+02 -0.92145E+06
 0.92199997E+02 -0.97047E+06
 0.92249992E+02 -0.98545E+06
 0.92299995E+02 -0.96817E+06
 0.92349991E+02 -0.92219E+06
 0.92399994E+02 -0.84485E+06
 0.92449997E+02 -0.73274E+06
 0.92499992E+02 -0.58446E+06
 0.92549995E+02 -0.40118E+06
 0.92599991E+02 -0.19102E+06
 0.92649994E+02  0.33926E+05
 0.92699997E+02  0.26102E+06
 0.92749992E+02  0.48081E+06
 0.92799995E+02  0.68983E+06
 0.92849991E+02  0.89021E+06
 0.92899994E+02  0.10782E+07
 0.92949997E+02  0.12415E+07
 0.92999992E+02  0.13679E+07
 0.93049995E+02  0.14515E+07
 0.93099991E+02  0.14980E+07
 0.93149994E+02  0.15160E+07
 0.93199997E+02  0.15060E+07
 0.93249992E+02  0.14651E+07
 0.93299995E+02  0.13922E+07
 0.93349991E+02  0.12880E+07
 0.93399994E+02  0.11535E+07
 0.93449997E+02  0.98533E+06
 0.93499992E+02  0.78392E+06
 0.93549995E+02  0.56002E+06
 0.93599991E+02  0.32833E+06
 0.93649994E+02  0.10041E+06
 0.93699997E+02 -0.11432E+06
 0.93749992E+02 -0.31440E+06
 0.93799995E+02 -0.50240E+06
 0.93849991E+02 -0.67817E+06
 0.93899994E+02 -0.84162E+06
 0.93949997E+02 -0.98492E+06
 0.93999992E+02 -0.11005E+07
 0.94049995E+02 -0.11795E+07
 0.94099991E+02 -0.12195E+07
 0.94149994E+02 -0.12269E+07
 0.94199997E+02 -0.12116E+07
 0.94249992E+02 -0.11796E+07
 0.94299995E+02 -0.11310E+07
 0.94349991E+02 -0.10662E+07
 0.94399994E+02 -0.98402E+06
 0.94449997E+02 -0.88459E+06
 0.94499992E+02 -0.77105E+06
 0.94549995E+02 -0.64861E+06
 0.94599991E+02 -0.51576E+06
 0.94649994E+02 -0.37191E+06
 0.94699997E+02 -0.22011E+06
 0.94749992E+02 -0.65712E+05
 0.94799995E+02  0.83249E+05
 0.94849991E+02  0.22004E+06
 0.94899994E+02  0.34175E+06
 0.94949997E+02  0.44628E+06
 0.94999992E+02  0.53578E+06
 0.95049995E+02  0.61041E+06
 0.95099991E+02  0.66251E+06
 0.95149994E+02  0.68592E+06
 0.95199997E+02  0.67837E+06
 0.95249992E+02  0.64628E+06
 0.95299995E+02  0.60014E+06
 0.95349991E+02  0.54566E+06
 0.95399994E+02  0.48415E+06
 0.95449997E+02  0.41032E+06
 0.95499992E+02  0.31996E+06
 0.95549995E+02  0.21406E+06
 0.95599991E+02  0.98905E+05
 0.95649994E+02 -0.18514E+05
 0.95699997E+02 -0.13301E+06
 0.95749992E+02 -0.23326E+06
 0.95799995E+02 -0.31618E+06
 0.95849991E+02 -0.38160E+06
 0.95899994E+02 -0.42609E+06
 0.95949997E+02 -0.44295E+06
 0.95999992E+02 -0.42946E+06
 0.96049995E+02 -0.39272E+06
 0.96099991E+02 -0.34286E+06
 0.96149994E+02 -0.28373E+06
 0.96199997E+02 -0.21543E+06
 0.96249992E+02 -0.14745E+06
 0.96299995E+02 -0.86003E+05
 0.96349991E+02 -0.30625E+05
 0.96399994E+02  0.20726E+05
 0.96449997E+02  0.65994E+05
 0.96499992E+02  0.10016E+06
 0.96549995E+02  0.11853E+06
 0.96599991E+02  0.13041E+06
 0.96649994E+02  0.14470E+06
 0.96699997E+02  0.15889E+06
 0.96749992E+02  0.17466E+06
 0.96799995E+02  0.19347E+06
 0.96849991E+02  0.21874E+06
 0.96899994E+02  0.24909E+06
 0.96949997E+02  0.27790E+06
 0.96999992E+02  0.30539E+06
 0.97049995E+02  0.33093E+06
 0.97099991E+02  0.34961E+06
 0.97149994E+02  0.35824E+06
 0.97199997E+02  0.35593E+06
 0.97249992E+02  0.34789E+06
 0.97299995E+02  0.34041E+06
 0.97349991E+02  0.33417E+06
 0.97399994E+02  0.32420E+06
 0.97449997E+02  0.30431E+06
 0.97499992E+02  0.27609E+06
 0.97549995E+02  0.24146E+06
 0.97599991E+02  0.19699E+06
 0.97649994E+02  0.14185E+06
 0.97699997E+02  0.74924E+05
 0.97749992E+02 -0.66219E+03
 0.97799995E+02 -0.83817E+05
 0.97849991E+02 -0.17618E+06
 0.97899994E+02 -0.27171E+06
 0.97949997E+02 -0.36007E+06
 0.97999992E+02 -0.43950E+06
