-0.19969940E+01  0.55631E+04
-0.19469941E+01  0.52098E+04
-0.18969940E+01  0.51612E+04
-0.18469940E+01  0.52359E+04
-0.17969940E+01  0.54799E+04
-0.17469940E+01  0.56423E+04
-0.16969941E+01  0.54212E+04
-0.16469941E+01  0.52158E+04
-0.15969940E+01  0.52429E+04
-0.15469940E+01  0.53389E+04
-0.14969940E+01  0.56155E+04
-0.14469941E+01  0.57011E+04
-0.13969941E+01  0.53715E+04
-0.13469940E+01  0.52775E+04
-0.12969941E+01  0.53633E+04
-0.12469940E+01  0.54574E+04
-0.11969941E+01  0.57488E+04
-0.11469941E+01  0.56355E+04
-0.10969940E+01  0.53658E+04
-0.10469941E+01  0.53334E+04
-0.99699408E+00  0.54529E+04
-0.94699407E+00  0.56288E+04
-0.89699411E+00  0.57249E+04
-0.84699404E+00  0.54927E+04
-0.79699409E+00  0.53003E+04
-0.74699414E+00  0.53846E+04
-0.69699407E+00  0.54519E+04
-0.64699411E+00  0.57038E+04
-0.59699416E+00  0.56420E+04
-0.54699409E+00  0.53314E+04
-0.49699414E+00  0.52430E+04
-0.44699407E+00  0.53930E+04
-0.39699411E+00  0.55269E+04
-0.34699416E+00  0.56756E+04
-0.29699409E+00  0.54832E+04
-0.24699414E+00  0.52146E+04
-0.19699407E+00  0.52724E+04
-0.14699411E+00  0.52844E+04
-0.96994162E-01  0.55477E+04
-0.46994090E-01  0.55807E+04
 0.30058622E-02  0.52509E+04
 0.53005934E-01  0.51587E+04
 0.10300589E+00  0.51975E+04
 0.15300584E+00  0.53746E+04
 0.20300579E+00  0.55603E+04
 0.25300574E+00  0.54366E+04
 0.30300593E+00  0.51072E+04
 0.35300589E+00  0.51545E+04
 0.40300584E+00  0.53220E+04
 0.45300579E+00  0.54233E+04
 0.50300574E+00  0.55326E+04
 0.55300593E+00  0.53019E+04
 0.60300589E+00  0.51731E+04
 0.65300584E+00  0.52516E+04
 0.70300579E+00  0.54083E+04
 0.75300574E+00  0.55655E+04
 0.80300570E+00  0.54999E+04
 0.85300589E+00  0.52082E+04
 0.90300584E+00  0.52421E+04
 0.95300579E+00  0.53816E+04
 0.10030057E+01  0.55076E+04
 0.10530057E+01  0.56310E+04
 0.11030059E+01  0.53950E+04
 0.11530058E+01  0.52259E+04
 0.12030058E+01  0.53388E+04
 0.12530057E+01  0.54849E+04
 0.13030057E+01  0.56712E+04
 0.13530059E+01  0.56185E+04
 0.14030058E+01  0.52874E+04
 0.14530058E+01  0.52764E+04
 0.15030057E+01  0.53676E+04
 0.15530057E+01  0.55391E+04
 0.16030059E+01  0.56667E+04
 0.16530058E+01  0.54672E+04
 0.17030058E+01  0.52483E+04
 0.17530057E+01  0.52913E+04
 0.18030057E+01  0.54420E+04
 0.18530056E+01  0.56009E+04
 0.19030058E+01  0.56040E+04
 0.19530058E+01  0.53598E+04
 0.20030057E+01  0.52793E+04
 0.20530057E+01  0.53789E+04
 0.21030059E+01  0.55701E+04
 0.21530056E+01  0.57152E+04
 0.22030058E+01  0.54531E+04
 0.22530055E+01  0.52560E+04
 0.23030057E+01  0.52890E+04
 0.23530059E+01  0.53899E+04
 0.24030056E+01  0.56779E+04
 0.24530058E+01  0.56541E+04
 0.25030055E+01  0.53362E+04
 0.25530057E+01  0.52422E+04
 0.26030059E+01  0.53352E+04
 0.26530056E+01  0.54765E+04
 0.27030058E+01  0.56145E+04
 0.27530055E+01  0.54353E+04
 0.28030057E+01  0.52224E+04
 0.28530059E+01  0.52342E+04
 0.29030056E+01  0.53829E+04
 0.29530058E+01  0.55796E+04
 0.30030055E+01  0.55250E+04
 0.30530057E+01  0.52613E+04
 0.31030059E+01  0.51834E+04
 0.31530056E+01  0.52670E+04
 0.32030058E+01  0.54245E+04
 0.32530055E+01  0.56143E+04
 0.33030057E+01  0.54157E+04
 0.33530059E+01  0.51687E+04
 0.34030056E+01  0.51934E+04
 0.34530058E+01  0.53858E+04
 0.35030055E+01  0.56150E+04
 0.35530057E+01  0.55627E+04
 0.36030054E+01  0.52649E+04
 0.36530056E+01  0.51725E+04
 0.37030058E+01  0.52657E+04
 0.37530055E+01  0.53961E+04
 0.38030057E+01  0.56128E+04
 0.38530054E+01  0.54358E+04
 0.39030056E+01  0.52398E+04
 0.39530058E+01  0.52616E+04
 0.40030055E+01  0.52927E+04
 0.40530057E+01  0.57242E+04
 0.41030054E+01  0.53559E+04
 0.41530056E+01  0.55539E+04
 0.42030058E+01  0.51479E+04
 0.42530055E+01  0.53184E+04
 0.43030057E+01  0.56909E+04
 0.43530054E+01  0.54918E+04
 0.44030056E+01  0.56354E+04
 0.44530058E+01  0.52856E+04
 0.45030055E+01  0.51819E+04
 0.45530057E+01  0.54493E+04
 0.46030054E+01  0.57607E+04
 0.46530056E+01  0.55023E+04
 0.47030058E+01  0.57784E+04
 0.47530055E+01  0.46193E+04
 0.48030057E+01  0.58562E+04
 0.48530054E+01  0.50695E+04
 0.49030056E+01  0.59218E+04
 0.49530058E+01  0.37998E+04
 0.50030055E+01  0.89869E+04
 0.50530057E+01  0.34493E+04
 0.51030054E+01  0.74655E+04
 0.51530056E+01  0.22025E+05
 0.52030058E+01 -0.24245E+05
 0.52530055E+01  0.14965E+05
 0.53030057E+01  0.13939E+05
 0.53530054E+01 -0.23267E+05
 0.54030056E+01  0.41015E+05
 0.54530053E+01 -0.14904E+05
 0.55030055E+01  0.13506E+04
 0.55530057E+01  0.17008E+05
 0.56030054E+01 -0.27814E+05
 0.56530056E+01  0.26022E+05
 0.57030053E+01 -0.66326E+04
 0.57530055E+01  0.22815E+05
 0.58030057E+01  0.35487E+05
 0.58530054E+01 -0.46144E+05
 0.59030056E+01  0.23302E+05
 0.59530053E+01  0.20732E+05
 0.60030055E+01 -0.32058E+05
 0.60530052E+01  0.18645E+05
 0.61030054E+01 -0.71084E+04
 0.61530056E+01 -0.70289E+04
 0.62030058E+01  0.69370E+05
 0.62530050E+01 -0.47662E+05
 0.63030052E+01  0.18010E+05
 0.63530054E+01  0.24740E+05
 0.64030056E+01 -0.27082E+05
 0.64530058E+01  0.47474E+05
 0.65030050E+01 -0.13212E+05
 0.65530052E+01  0.17809E+05
 0.66030054E+01  0.97209E+02
 0.66530056E+01 -0.33639E+05
 0.67030058E+01  0.11111E+05
 0.67530050E+01  0.57959E+05
 0.68030052E+01 -0.43008E+05
 0.68530054E+01  0.77301E+05
 0.69030056E+01 -0.23604E+05
 0.69530058E+01 -0.58835E+05
 0.70030050E+01  0.75552E+05
 0.70530052E+01 -0.40469E+05
 0.71030054E+01  0.15395E+05
 0.71530056E+01  0.77171E+05
 0.72030058E+01 -0.11022E+06
 0.72530050E+01  0.85856E+05
 0.73030052E+01  0.54565E+05
 0.73530054E+01 -0.63364E+05
 0.74030056E+01 -0.69412E+05
 0.74530058E+01 -0.10062E+06
 0.75030050E+01  0.12444E+06
 0.75530052E+01  0.31456E+04
 0.76030054E+01  0.69054E+05
 0.76530056E+01 -0.34557E+05
 0.77030058E+01  0.20493E+04
 0.77530050E+01 -0.59120E+05
 0.78030052E+01 -0.54530E+04
 0.78530054E+01  0.12733E+06
 0.79030056E+01 -0.25543E+03
 0.79530058E+01  0.84947E+05
 0.80030050E+01 -0.21160E+05
 0.80530052E+01 -0.15115E+05
 0.81030054E+01  0.47966E+05
 0.81530056E+01 -0.12120E+05
 0.82030058E+01 -0.17874E+05
 0.82530050E+01 -0.41824E+05
 0.83030052E+01  0.90090E+04
 0.83530054E+01 -0.49722E+05
 0.84030056E+01  0.33877E+05
 0.84530058E+01  0.72041E+05
 0.85030050E+01  0.91276E+04
 0.85530052E+01  0.43733E+05
 0.86030054E+01 -0.32093E+05
 0.86530056E+01 -0.76545E+05
 0.87030058E+01 -0.44161E+05
 0.87530050E+01  0.21171E+06
 0.88030052E+01  0.30128E+05
 0.88530054E+01 -0.98802E+05
 0.89030056E+01  0.58526E+05
 0.89530058E+01  0.19942E+05
 0.90030050E+01  0.28419E+05
 0.90530052E+01 -0.14956E+05
 0.91030054E+01  0.55318E+05
 0.91530056E+01  0.32509E+05
 0.92030048E+01  0.10728E+05
 0.92530050E+01 -0.27151E+05
 0.93030052E+01 -0.10292E+06
 0.93530054E+01  0.73356E+05
 0.94030056E+01 -0.20832E+05
 0.94530048E+01 -0.12210E+05
 0.95030050E+01  0.13355E+06
 0.95530052E+01  0.31521E+05
 0.96030054E+01 -0.10329E+05
 0.96530056E+01  0.22744E+05
 0.97030048E+01 -0.22257E+05
 0.97530050E+01 -0.33388E+05
 0.98030052E+01 -0.53114E+05
 0.98530054E+01  0.48943E+04
 0.99030056E+01 -0.58068E+05
 0.99530048E+01  0.89422E+05
 0.10003005E+02  0.12574E+06
 0.10053005E+02 -0.11257E+06
 0.10103005E+02  0.43277E+05
 0.10153006E+02  0.69189E+05
 0.10203005E+02  0.37898E+05
 0.10253005E+02 -0.46953E+05
 0.10303005E+02  0.64040E+04
 0.10353005E+02  0.15369E+05
 0.10403006E+02 -0.11741E+06
 0.10453005E+02 -0.31611E+05
 0.10503005E+02 -0.73307E+05
 0.10553005E+02 -0.12388E+06
 0.10603005E+02 -0.19483E+05
 0.10653006E+02 -0.75734E+05
 0.10703005E+02 -0.25518E+04
 0.10753005E+02  0.12546E+06
 0.10803005E+02  0.73882E+05
 0.10853005E+02  0.32207E+05
 0.10903006E+02  0.71679E+05
 0.10953005E+02  0.93544E+04
 0.11003005E+02 -0.83351E+05
 0.11053005E+02 -0.79201E+05
 0.11103005E+02 -0.13027E+06
 0.11153006E+02 -0.72473E+05
 0.11203005E+02  0.53008E+05
 0.11253005E+02  0.11170E+06
 0.11303005E+02  0.46793E+05
 0.11353005E+02  0.36901E+05
 0.11403006E+02  0.40347E+05
 0.11453005E+02 -0.34947E+04
 0.11503005E+02  0.12147E+06
 0.11553005E+02  0.61621E+05
 0.11603005E+02 -0.53610E+05
 0.11653006E+02 -0.12764E+06
 0.11703005E+02 -0.17810E+05
 0.11753005E+02  0.14884E+06
 0.11803005E+02  0.80924E+05
 0.11853005E+02  0.45631E+05
 0.11903006E+02 -0.35669E+05
 0.11953005E+02 -0.31325E+05
 0.12003005E+02 -0.54867E+05
 0.12053005E+02 -0.83045E+05
 0.12103005E+02 -0.11638E+06
 0.12153006E+02 -0.43287E+05
 0.12203005E+02  0.12566E+06
 0.12253005E+02  0.61833E+05
 0.12303005E+02  0.13481E+05
 0.12353005E+02  0.53434E+05
 0.12403006E+02  0.57361E+05
 0.12453005E+02  0.41271E+05
 0.12503005E+02 -0.38204E+05
 0.12553005E+02 -0.10154E+06
 0.12603005E+02 -0.19984E+05
 0.12653005E+02 -0.10993E+05
 0.12703005E+02  0.17017E+05
 0.12753005E+02  0.80629E+05
 0.12803005E+02  0.56422E+05
 0.12853005E+02  0.32945E+05
 0.12903005E+02  0.40291E+05
 0.12953005E+02  0.70659E+05
 0.13003005E+02  0.57884E+05
 0.13053005E+02  0.24760E+05
 0.13103005E+02 -0.17283E+05
 0.13153005E+02 -0.47989E+05
 0.13203005E+02 -0.44638E+05
 0.13253005E+02 -0.46962E+05
 0.13303005E+02  0.83777E+04
 0.13353005E+02  0.37616E+05
 0.13403005E+02 -0.26726E+05
 0.13453005E+02  0.22544E+04
 0.13503005E+02  0.26784E+04
 0.13553005E+02 -0.36871E+04
 0.13603005E+02  0.25827E+05
 0.13653005E+02  0.13422E+04
 0.13703005E+02  0.91626E+03
 0.13753005E+02  0.12789E+04
 0.13803005E+02 -0.39421E+05
 0.13853005E+02 -0.48238E+05
 0.13903005E+02 -0.21237E+04
 0.13953005E+02  0.43167E+05
 0.14003005E+02  0.44926E+05
 0.14053005E+02  0.97931E+04
 0.14103004E+02 -0.27929E+04
 0.14153006E+02  0.44080E+05
 0.14203005E+02  0.58313E+05
 0.14253004E+02  0.34599E+05
 0.14303005E+02  0.67821E+04
 0.14353004E+02 -0.19710E+05
 0.14403006E+02 -0.19486E+05
 0.14453005E+02 -0.25493E+05
 0.14503004E+02 -0.50609E+05
 0.14553005E+02 -0.20634E+05
 0.14603004E+02  0.11332E+05
 0.14653006E+02  0.42588E+04
 0.14703005E+02 -0.91850E+04
 0.14753004E+02 -0.28158E+04
 0.14803005E+02  0.32810E+05
 0.14853004E+02  0.13079E+05
 0.14903006E+02  0.24586E+05
 0.14953005E+02  0.26748E+05
 0.15003004E+02  0.10125E+05
 0.15053005E+02  0.20716E+05
 0.15103004E+02  0.34301E+05
 0.15153006E+02  0.30200E+05
 0.15203005E+02 -0.78150E+02
 0.15253004E+02 -0.28018E+05
 0.15303005E+02 -0.23468E+05
 0.15353004E+02 -0.28843E+05
 0.15403006E+02 -0.45754E+04
 0.15453005E+02 -0.93301E+04
 0.15503004E+02 -0.14803E+05
 0.15553005E+02  0.95684E+04
 0.15603004E+02  0.13078E+05
 0.15653006E+02  0.37521E+05
 0.15703005E+02  0.43140E+05
 0.15753004E+02  0.26720E+05
 0.15803005E+02 -0.16597E+04
 0.15853004E+02 -0.91141E+04
 0.15903006E+02  0.62877E+04
 0.15953005E+02  0.15544E+04
 0.16003004E+02 -0.16392E+05
 0.16053005E+02 -0.78977E+03
 0.16103004E+02 -0.23821E+05
 0.16153006E+02 -0.29088E+05
 0.16203005E+02 -0.16987E+05
 0.16253004E+02  0.94282E+04
 0.16303005E+02  0.31216E+05
 0.16353004E+02  0.16208E+04
 0.16403006E+02  0.42803E+04
 0.16453005E+02  0.32133E+05
 0.16503004E+02  0.44316E+05
 0.16553005E+02  0.34414E+05
 0.16603004E+02  0.40689E+05
 0.16653006E+02  0.45644E+05
 0.16703005E+02 -0.21372E+04
 0.16753004E+02 -0.19635E+05
 0.16803005E+02 -0.24229E+04
 0.16853004E+02  0.30111E+05
 0.16903006E+02 -0.15795E+04
 0.16953005E+02 -0.70511E+03
 0.17003004E+02  0.21640E+05
 0.17053005E+02  0.49667E+04
 0.17103004E+02 -0.76463E+04
 0.17153006E+02 -0.22089E+05
 0.17203005E+02  0.78883E+03
 0.17253004E+02 -0.73927E+04
 0.17303005E+02 -0.12692E+05
 0.17353004E+02  0.44113E+04
 0.17403006E+02  0.22384E+05
 0.17453005E+02  0.19548E+04
 0.17503004E+02  0.12836E+05
 0.17553005E+02  0.19920E+05
 0.17603004E+02  0.53359E+04
 0.17653006E+02 -0.11771E+05
 0.17703005E+02 -0.38432E+05
 0.17753004E+02 -0.35613E+05
 0.17803005E+02 -0.17548E+05
 0.17853004E+02 -0.56080E+04
 0.17903006E+02  0.23800E+05
 0.17953005E+02  0.20053E+05
 0.18003004E+02  0.16983E+05
 0.18053005E+02  0.30183E+05
 0.18103004E+02  0.11895E+05
 0.18153006E+02  0.95737E+03
 0.18203005E+02 -0.11466E+05
 0.18253004E+02 -0.76337E+04
 0.18303005E+02  0.14607E+05
 0.18353004E+02  0.15680E+05
 0.18403006E+02  0.19043E+04
 0.18453005E+02  0.80514E+04
 0.18503004E+02  0.16048E+05
 0.18553005E+02  0.24107E+05
 0.18603004E+02  0.17333E+05
 0.18653006E+02  0.92002E+04
 0.18703005E+02  0.15172E+05
 0.18753004E+02  0.22448E+05
 0.18803005E+02  0.17326E+05
 0.18853004E+02 -0.87802E+03
 0.18903006E+02 -0.22744E+05
 0.18953005E+02 -0.13932E+05
 0.19003004E+02 -0.11885E+03
 0.19053005E+02 -0.11412E+04
 0.19103004E+02  0.53283E+04
 0.19153006E+02  0.73115E+04
 0.19203005E+02  0.16808E+04
 0.19253004E+02 -0.45953E+04
 0.19303005E+02 -0.16356E+05
 0.19353004E+02 -0.18743E+05
 0.19403006E+02 -0.10038E+05
 0.19453005E+02 -0.48174E+03
 0.19503004E+02  0.75487E+04
 0.19553005E+02  0.13032E+05
 0.19603004E+02  0.22281E+05
 0.19653006E+02  0.29607E+05
 0.19703005E+02  0.28796E+05
 0.19753004E+02  0.13438E+05
 0.19803005E+02  0.35371E+04
 0.19853004E+02  0.65789E+04
 0.19903006E+02  0.17043E+05
 0.19953005E+02  0.78422E+04
 0.20003004E+02  0.47451E+03
 0.20053005E+02  0.89284E+04
 0.20103004E+02  0.17718E+05
 0.20153006E+02 -0.32260E+04
 0.20203005E+02 -0.19347E+05
 0.20253004E+02  0.20048E+04
 0.20303005E+02  0.25220E+05
 0.20353004E+02  0.16211E+05
 0.20403004E+02 -0.17616E+04
 0.20453005E+02 -0.25444E+03
 0.20503004E+02 -0.55499E+04
 0.20553005E+02 -0.63355E+03
 0.20603004E+02  0.41488E+04
 0.20653004E+02  0.70710E+04
 0.20703005E+02 -0.92224E+04
 0.20753004E+02 -0.26533E+05
 0.20803005E+02 -0.17153E+05
 0.20853004E+02  0.12558E+05
 0.20903004E+02  0.15423E+05
 0.20953005E+02  0.19065E+05
 0.21003004E+02  0.30817E+05
 0.21053005E+02  0.21703E+05
 0.21103004E+02  0.12918E+05
 0.21153004E+02  0.11086E+05
 0.21203005E+02  0.16815E+04
 0.21253004E+02 -0.53596E+04
 0.21303005E+02  0.49900E+04
 0.21353004E+02 -0.73745E+04
 0.21403004E+02 -0.71985E+04
 0.21453005E+02  0.63609E+04
 0.21503004E+02  0.96821E+04
 0.21553005E+02  0.77547E+04
 0.21603004E+02  0.11966E+05
 0.21653004E+02  0.12803E+05
 0.21703005E+02  0.48965E+04
 0.21753004E+02  0.22058E+04
 0.21803005E+02  0.70376E+04
 0.21853004E+02  0.41147E+04
 0.21903004E+02  0.38344E+04
 0.21953005E+02  0.85287E+04
 0.22003004E+02  0.68978E+04
 0.22053005E+02  0.17243E+05
 0.22103004E+02  0.18766E+05
 0.22153004E+02  0.26305E+05
 0.22203005E+02  0.16340E+05
 0.22253004E+02  0.14379E+04
 0.22303005E+02 -0.39236E+04
 0.22353004E+02 -0.21526E+05
 0.22403004E+02 -0.21385E+05
 0.22453005E+02 -0.57078E+04
 0.22503004E+02  0.44226E+04
 0.22553005E+02  0.28358E+04
 0.22603004E+02  0.70279E+04
 0.22653004E+02  0.15328E+05
 0.22703005E+02  0.15155E+05
 0.22753004E+02 -0.28251E+04
 0.22803005E+02 -0.12710E+05
 0.22853004E+02 -0.10509E+05
 0.22903004E+02 -0.38620E+04
 0.22953005E+02  0.78043E+00
 0.23003004E+02 -0.10216E+04
 0.23053005E+02 -0.22799E+04
 0.23103004E+02  0.29436E+04
 0.23153004E+02  0.13492E+05
 0.23203005E+02  0.14242E+05
 0.23253004E+02  0.14189E+05
 0.23303005E+02  0.10133E+05
 0.23353004E+02  0.94272E+04
 0.23403004E+02  0.61679E+04
 0.23453005E+02  0.31924E+04
 0.23503004E+02  0.13308E+05
 0.23553005E+02  0.18787E+05
 0.23603004E+02  0.14284E+05
 0.23653004E+02  0.82598E+04
 0.23703005E+02  0.52090E+04
 0.23753004E+02  0.71682E+04
 0.23803005E+02  0.72601E+04
 0.23853004E+02  0.34624E+04
 0.23903004E+02 -0.23459E+04
 0.23953005E+02  0.18333E+04
 0.24003004E+02  0.11363E+05
 0.24053005E+02  0.20343E+05
 0.24103004E+02  0.13985E+05
 0.24153004E+02 -0.63211E+04
 0.24203005E+02 -0.11305E+04
 0.24253004E+02  0.13015E+05
 0.24303005E+02  0.96182E+04
 0.24353004E+02  0.10978E+04
 0.24403004E+02 -0.68335E+04
 0.24453005E+02 -0.68402E+04
 0.24503004E+02 -0.70007E+03
 0.24553005E+02  0.38683E+04
 0.24603004E+02  0.79117E+04
 0.24653004E+02  0.75412E+04
 0.24703005E+02  0.26797E+04
 0.24753004E+02  0.12171E+05
 0.24803005E+02  0.25520E+05
 0.24853004E+02  0.14963E+05
 0.24903004E+02  0.33233E+04
 0.24953005E+02 -0.88111E+02
 0.25003004E+02 -0.10270E+04
 0.25053005E+02 -0.26791E+04
 0.25103004E+02 -0.10427E+05
 0.25153004E+02 -0.13455E+05
 0.25203005E+02 -0.11646E+04
 0.25253004E+02  0.78462E+04
 0.25303005E+02  0.11768E+05
 0.25353004E+02  0.82702E+04
 0.25403004E+02  0.85396E+04
 0.25453005E+02  0.12535E+05
 0.25503004E+02  0.72527E+04
 0.25553005E+02  0.86317E+04
 0.25603004E+02  0.33294E+04
 0.25653004E+02  0.29882E+04
 0.25703005E+02  0.24859E+04
 0.25753004E+02  0.23057E+04
 0.25803005E+02 -0.20722E+04
 0.25853004E+02  0.44081E+04
 0.25903004E+02  0.95049E+04
 0.25953005E+02  0.84800E+04
 0.26003004E+02  0.11962E+05
 0.26053005E+02  0.40356E+04
 0.26103004E+02  0.15171E+05
 0.26153004E+02  0.13110E+05
 0.26203005E+02  0.92804E+04
 0.26253004E+02  0.14270E+04
 0.26303005E+02 -0.34496E+04
 0.26353004E+02  0.21144E+04
 0.26403004E+02  0.22173E+04
 0.26453005E+02  0.40703E+04
 0.26503004E+02  0.73996E+04
 0.26553005E+02  0.99648E+04
 0.26603004E+02  0.61671E+04
 0.26653004E+02 -0.36016E+03
 0.26703005E+02 -0.70462E+04
 0.26753004E+02 -0.75307E+03
 0.26803005E+02  0.33648E+04
 0.26853004E+02  0.21960E+04
 0.26903004E+02 -0.50785E+04
 0.26953005E+02 -0.74926E+04
 0.27003004E+02 -0.46644E+04
 0.27053003E+02  0.28095E+04
 0.27103004E+02  0.13390E+05
 0.27153004E+02  0.13694E+05
 0.27203005E+02  0.10406E+05
 0.27253004E+02  0.13696E+05
 0.27303003E+02  0.11892E+05
 0.27353004E+02  0.10211E+05
 0.27403004E+02  0.63264E+04
 0.27453005E+02  0.10188E+04
 0.27503004E+02 -0.25241E+04
 0.27553003E+02 -0.56863E+04
 0.27603004E+02  0.21023E+04
 0.27653004E+02  0.10434E+05
 0.27703005E+02  0.14190E+05
 0.27753004E+02  0.14484E+05
 0.27803003E+02  0.12915E+05
 0.27853004E+02  0.10413E+05
 0.27903004E+02  0.59721E+04
 0.27953005E+02  0.40864E+04
 0.28003004E+02  0.92285E+04
 0.28053003E+02  0.10862E+05
 0.28103004E+02  0.61984E+04
 0.28153004E+02  0.40514E+04
 0.28203005E+02  0.11302E+05
 0.28253004E+02  0.16505E+05
 0.28303003E+02  0.12268E+05
 0.28353004E+02  0.31409E+04
 0.28403004E+02 -0.11167E+04
 0.28453005E+02  0.23950E+04
 0.28503004E+02  0.16686E+04
 0.28553003E+02 -0.15266E+04
 0.28603004E+02 -0.16614E+04
 0.28653004E+02 -0.52317E+04
 0.28703005E+02 -0.31376E+04
 0.28753004E+02 -0.11955E+04
 0.28803003E+02  0.25182E+04
 0.28853004E+02  0.71935E+04
 0.28903004E+02  0.55050E+04
 0.28953005E+02  0.12324E+04
 0.29003004E+02 -0.18552E+04
 0.29053003E+02 -0.30339E+04
 0.29103004E+02  0.39000E+04
 0.29153004E+02  0.10161E+05
 0.29203005E+02  0.11048E+05
 0.29253004E+02  0.14981E+05
 0.29303003E+02  0.13394E+05
 0.29353004E+02  0.73740E+04
 0.29403004E+02  0.49750E+04
 0.29453005E+02  0.37915E+04
 0.29503004E+02  0.76950E+04
 0.29553003E+02  0.14223E+05
 0.29603004E+02  0.16872E+05
 0.29653004E+02  0.12660E+05
 0.29703005E+02  0.70559E+04
 0.29753004E+02  0.18339E+04
 0.29803003E+02 -0.58066E+03
 0.29853004E+02  0.28186E+04
 0.29903004E+02  0.22932E+04
 0.29953005E+02 -0.21467E+02
 0.30003004E+02 -0.38178E+04
 0.30053005E+02 -0.16186E+02
 0.30103004E+02 -0.50395E+03
 0.30153004E+02 -0.30300E+04
 0.30203003E+02 -0.24439E+04
 0.30253002E+02  0.28055E+03
 0.30303005E+02  0.71485E+04
 0.30353004E+02  0.10422E+05
 0.30403004E+02  0.12386E+05
 0.30453003E+02  0.13627E+05
 0.30503002E+02  0.95802E+04
 0.30553005E+02  0.28733E+04
 0.30603004E+02  0.26821E+04
 0.30653004E+02  0.46777E+04
 0.30703003E+02  0.37353E+04
 0.30753002E+02  0.53821E+04
 0.30803005E+02  0.44966E+04
 0.30853004E+02  0.45912E+04
 0.30903004E+02  0.76396E+04
 0.30953003E+02  0.83466E+04
 0.31003002E+02  0.53743E+04
 0.31053005E+02  0.30693E+04
 0.31103004E+02  0.48094E+04
 0.31153004E+02  0.51806E+04
 0.31203003E+02  0.54130E+04
 0.31253002E+02  0.53847E+04
 0.31303005E+02  0.63803E+04
 0.31353004E+02  0.65818E+04
 0.31403004E+02  0.52097E+04
 0.31453003E+02  0.69146E+04
 0.31503002E+02  0.51116E+04
 0.31553005E+02  0.26492E+04
 0.31603004E+02  0.20494E+04
 0.31653004E+02  0.22206E+04
 0.31703003E+02  0.60004E+04
 0.31753002E+02  0.68977E+04
 0.31803005E+02  0.20515E+04
 0.31853004E+02  0.25959E+04
 0.31903004E+02  0.12873E+04
 0.31953003E+02  0.27409E+04
 0.32003002E+02  0.65037E+04
 0.32053005E+02  0.45768E+04
 0.32103004E+02  0.45250E+04
 0.32153004E+02  0.30459E+04
 0.32203003E+02  0.44056E+04
 0.32253002E+02  0.43285E+04
 0.32303005E+02  0.49567E+04
 0.32353004E+02  0.49197E+04
 0.32403004E+02  0.86507E+04
 0.32453003E+02  0.97466E+04
 0.32503002E+02  0.55215E+04
 0.32553005E+02  0.50267E+04
 0.32603004E+02  0.34416E+04
 0.32653004E+02  0.42462E+04
 0.32703003E+02  0.43127E+04
 0.32753002E+02  0.80100E+04
 0.32803005E+02  0.10848E+05
 0.32853004E+02  0.95752E+04
 0.32903004E+02  0.81840E+04
 0.32953003E+02  0.54710E+04
 0.33003002E+02  0.33292E+04
 0.33053005E+02  0.45742E+04
 0.33103004E+02  0.66567E+04
 0.33153004E+02  0.59976E+04
 0.33203003E+02  0.51301E+04
 0.33253002E+02  0.59780E+04
 0.33303005E+02  0.68219E+04
 0.33353004E+02  0.88897E+04
 0.33403004E+02  0.97168E+04
 0.33453003E+02  0.69725E+04
 0.33503002E+02  0.53001E+04
 0.33553005E+02  0.51907E+04
 0.33603004E+02  0.58453E+04
 0.33653004E+02  0.28646E+04
 0.33703003E+02 -0.57260E+03
 0.33753002E+02 -0.22483E+04
 0.33803005E+02 -0.53542E+03
 0.33853004E+02 -0.14868E+04
 0.33903004E+02 -0.17754E+04
 0.33953003E+02  0.12479E+04
 0.34003002E+02  0.25046E+04
 0.34053005E+02  0.34008E+04
 0.34103004E+02  0.43134E+04
 0.34153004E+02  0.41970E+04
 0.34203003E+02  0.58919E+04
 0.34253002E+02  0.89996E+04
 0.34303005E+02  0.12727E+05
 0.34353004E+02  0.11922E+05
 0.34403004E+02  0.82800E+04
 0.34453003E+02  0.10672E+05
 0.34503002E+02  0.11010E+05
 0.34553005E+02  0.78110E+04
 0.34603004E+02  0.55808E+04
 0.34653004E+02  0.32661E+04
 0.34703003E+02  0.30548E+04
 0.34753002E+02  0.43994E+04
 0.34803005E+02  0.44539E+04
 0.34853004E+02  0.46735E+04
 0.34903004E+02  0.52758E+04
 0.34953003E+02  0.59868E+04
 0.35003002E+02  0.20230E+04
 0.35053005E+02  0.16614E+04
 0.35103004E+02  0.33346E+04
 0.35153004E+02  0.45379E+04
 0.35203003E+02  0.47443E+04
 0.35253002E+02  0.29965E+04
 0.35303005E+02  0.41886E+04
 0.35353004E+02  0.60400E+04
 0.35403004E+02  0.71262E+04
 0.35453003E+02  0.75986E+04
 0.35503002E+02  0.62631E+04
 0.35553005E+02  0.18929E+04
 0.35603004E+02  0.29387E+04
 0.35653004E+02  0.40433E+04
 0.35703003E+02  0.35505E+04
 0.35753002E+02  0.15018E+04
 0.35803005E+02  0.16167E+04
 0.35853004E+02  0.45300E+04
 0.35903004E+02  0.52950E+04
 0.35953003E+02  0.60079E+04
 0.36003002E+02  0.33938E+04
 0.36053005E+02  0.18890E+04
 0.36103004E+02  0.14491E+04
 0.36153004E+02 -0.22860E+04
 0.36203003E+02 -0.80449E+03
 0.36253002E+02  0.52307E+04
 0.36303005E+02  0.74319E+04
 0.36353004E+02  0.73177E+04
 0.36403004E+02  0.78470E+04
 0.36453003E+02  0.84224E+04
 0.36503002E+02  0.89048E+04
 0.36553005E+02  0.10887E+05
 0.36603004E+02  0.91665E+04
 0.36653004E+02  0.28750E+04
 0.36703003E+02  0.33358E+04
 0.36753002E+02  0.53235E+04
 0.36803005E+02  0.59124E+04
 0.36853004E+02  0.70705E+04
 0.36903004E+02  0.74812E+04
 0.36953003E+02  0.63893E+04
 0.37003002E+02  0.47079E+04
 0.37053005E+02  0.59453E+04
 0.37103004E+02  0.73449E+04
 0.37153004E+02  0.82830E+04
 0.37203003E+02  0.71636E+04
 0.37253002E+02  0.55776E+04
 0.37303005E+02  0.35211E+04
 0.37353004E+02  0.50223E+04
 0.37403004E+02  0.55913E+04
 0.37453003E+02  0.37842E+04
 0.37503002E+02  0.21883E+04
 0.37553005E+02  0.47679E+04
 0.37603004E+02  0.72253E+04
 0.37653004E+02  0.42314E+04
 0.37703003E+02  0.27511E+04
 0.37753002E+02  0.27677E+04
 0.37803005E+02  0.25127E+04
 0.37853004E+02  0.28596E+04
 0.37903004E+02  0.53825E+04
 0.37953003E+02  0.85281E+04
 0.38003002E+02  0.86989E+04
 0.38053005E+02  0.76857E+04
 0.38103004E+02  0.80336E+04
 0.38153004E+02  0.79319E+04
 0.38203003E+02  0.64339E+04
 0.38253002E+02  0.45279E+04
 0.38303005E+02  0.42496E+04
 0.38353004E+02  0.29929E+04
 0.38403004E+02  0.38108E+04
 0.38453003E+02  0.52204E+04
 0.38503002E+02  0.61634E+04
 0.38553005E+02  0.69939E+04
 0.38603004E+02  0.59926E+04
 0.38653004E+02  0.62603E+04
 0.38703003E+02  0.52295E+04
 0.38753002E+02  0.39530E+04
 0.38803005E+02  0.34688E+04
 0.38853004E+02  0.37510E+04
 0.38903004E+02  0.40735E+04
 0.38953003E+02  0.36671E+04
 0.39003002E+02  0.24249E+04
 0.39053005E+02  0.13491E+04
 0.39103004E+02 -0.19076E+02
 0.39153004E+02 -0.67423E+03
 0.39203003E+02  0.14395E+04
 0.39253002E+02  0.35224E+04
 0.39303005E+02  0.58218E+04
 0.39353004E+02  0.70350E+04
 0.39403004E+02  0.74280E+04
 0.39453003E+02  0.74199E+04
 0.39503002E+02  0.62134E+04
 0.39553005E+02  0.40205E+04
 0.39603004E+02  0.30741E+04
 0.39653004E+02  0.38165E+04
 0.39703003E+02  0.27184E+04
 0.39753002E+02  0.39104E+04
 0.39803005E+02  0.64582E+04
 0.39853004E+02  0.61709E+04
 0.39903004E+02  0.61611E+04
 0.39953003E+02  0.58861E+04
 0.40003002E+02  0.68406E+04
 0.40053005E+02  0.76164E+04
 0.40103004E+02  0.76034E+04
 0.40153004E+02  0.76319E+04
 0.40203003E+02  0.66799E+04
 0.40253002E+02  0.54642E+04
 0.40303005E+02  0.65840E+04
 0.40353004E+02  0.83571E+04
 0.40403004E+02  0.76790E+04
 0.40453003E+02  0.61728E+04
 0.40503002E+02  0.49744E+04
 0.40553005E+02  0.55475E+04
 0.40603004E+02  0.71492E+04
 0.40653004E+02  0.73272E+04
 0.40703003E+02  0.50104E+04
 0.40753002E+02  0.26584E+04
 0.40803005E+02  0.12453E+03
 0.40853004E+02 -0.91344E+02
 0.40903004E+02  0.17668E+04
 0.40953003E+02  0.35670E+04
 0.41003002E+02  0.48940E+04
 0.41053005E+02  0.41315E+04
 0.41103004E+02  0.37384E+04
 0.41153004E+02  0.52900E+04
 0.41203003E+02  0.66960E+04
 0.41253002E+02  0.62216E+04
 0.41303005E+02  0.60938E+04
 0.41353004E+02  0.49092E+04
 0.41403004E+02  0.39271E+04
 0.41453003E+02  0.31946E+04
 0.41503002E+02  0.38526E+04
 0.41553005E+02  0.37540E+04
 0.41603004E+02  0.22960E+04
 0.41653004E+02  0.25784E+04
 0.41703003E+02  0.43920E+04
 0.41753002E+02  0.64790E+04
 0.41803005E+02  0.50813E+04
 0.41853004E+02  0.53228E+04
 0.41903004E+02  0.48007E+04
 0.41953003E+02  0.53704E+04
 0.42003002E+02  0.65641E+04
 0.42053005E+02  0.51222E+04
 0.42103004E+02  0.57815E+04
 0.42153004E+02  0.54275E+04
 0.42203003E+02  0.50003E+04
 0.42253002E+02  0.66275E+04
 0.42303005E+02  0.70445E+04
 0.42353004E+02  0.59277E+04
 0.42403004E+02  0.52162E+04
 0.42453003E+02  0.61876E+04
 0.42503002E+02  0.66138E+04
 0.42553005E+02  0.63779E+04
 0.42603004E+02  0.60826E+04
 0.42653004E+02  0.54253E+04
 0.42703003E+02  0.42001E+04
 0.42753002E+02  0.32719E+04
 0.42803001E+02  0.42648E+04
 0.42853004E+02  0.44912E+04
 0.42903004E+02  0.46706E+04
 0.42953003E+02  0.50304E+04
 0.43003002E+02  0.47623E+04
 0.43053001E+02  0.40244E+04
 0.43103004E+02  0.36758E+04
 0.43153004E+02  0.44384E+04
 0.43203003E+02  0.38946E+04
 0.43253002E+02  0.24900E+04
 0.43303001E+02  0.23077E+04
 0.43353004E+02  0.26834E+04
 0.43403004E+02  0.33233E+04
 0.43453003E+02  0.44235E+04
 0.43503002E+02  0.64361E+04
 0.43553001E+02  0.84326E+04
 0.43603004E+02  0.97338E+04
 0.43653004E+02  0.99497E+04
 0.43703003E+02  0.11233E+05
 0.43753002E+02  0.11913E+05
 0.43803001E+02  0.10113E+05
 0.43853004E+02  0.92445E+04
 0.43903004E+02  0.79822E+04
 0.43953003E+02  0.69617E+04
 0.44003002E+02  0.59791E+04
 0.44053001E+02  0.46930E+04
 0.44103004E+02  0.47811E+04
 0.44153004E+02  0.48964E+04
 0.44203003E+02  0.58688E+04
 0.44253002E+02  0.70579E+04
 0.44303001E+02  0.57236E+04
 0.44353004E+02  0.33697E+04
 0.44403004E+02  0.27788E+04
 0.44453003E+02  0.25659E+04
 0.44503002E+02  0.19305E+04
 0.44553001E+02  0.18812E+04
 0.44603004E+02  0.11329E+04
 0.44653004E+02  0.22212E+03
 0.44703003E+02  0.24470E+03
 0.44753002E+02  0.10387E+04
 0.44803001E+02  0.32650E+03
 0.44853004E+02  0.29543E+03
 0.44903004E+02  0.18144E+04
 0.44953003E+02  0.26949E+04
 0.45003002E+02  0.31132E+04
 0.45053001E+02  0.37712E+04
 0.45103004E+02  0.32069E+04
 0.45153004E+02  0.29197E+04
 0.45203003E+02  0.40877E+04
 0.45253002E+02  0.47223E+04
 0.45303001E+02  0.55473E+04
 0.45353004E+02  0.65434E+04
 0.45403004E+02  0.85968E+04
 0.45453003E+02  0.88302E+04
 0.45503002E+02  0.72657E+04
 0.45553001E+02  0.61096E+04
 0.45603004E+02  0.63606E+04
 0.45653004E+02  0.76218E+04
 0.45703003E+02  0.76976E+04
 0.45753002E+02  0.69662E+04
 0.45803001E+02  0.66394E+04
 0.45853004E+02  0.63166E+04
 0.45903004E+02  0.58826E+04
 0.45953003E+02  0.55449E+04
 0.46003002E+02  0.54446E+04
 0.46053001E+02  0.60693E+04
 0.46103004E+02  0.62757E+04
 0.46153004E+02  0.55489E+04
 0.46203003E+02  0.48516E+04
 0.46253002E+02  0.43713E+04
 0.46303001E+02  0.33285E+04
 0.46353004E+02  0.24152E+04
 0.46403004E+02  0.15425E+04
 0.46453003E+02  0.19779E+04
 0.46503002E+02  0.37894E+04
 0.46553001E+02  0.52128E+04
 0.46603004E+02  0.60051E+04
 0.46653004E+02  0.56566E+04
 0.46703003E+02  0.50573E+04
 0.46753002E+02  0.64226E+04
 0.46803001E+02  0.76002E+04
 0.46853004E+02  0.67413E+04
 0.46903004E+02  0.62127E+04
 0.46953003E+02  0.57809E+04
 0.47003002E+02  0.51380E+04
 0.47053001E+02  0.54480E+04
 0.47103004E+02  0.66156E+04
 0.47153004E+02  0.70115E+04
 0.47203003E+02  0.72843E+04
 0.47253002E+02  0.63509E+04
 0.47303001E+02  0.49597E+04
 0.47353004E+02  0.43701E+04
 0.47403004E+02  0.48252E+04
 0.47453003E+02  0.54605E+04
 0.47503002E+02  0.47121E+04
 0.47553001E+02  0.39769E+04
 0.47603004E+02  0.27048E+04
 0.47653004E+02  0.37326E+04
 0.47703003E+02  0.57673E+04
 0.47753002E+02  0.64011E+04
 0.47803001E+02  0.56572E+04
 0.47853004E+02  0.41632E+04
 0.47903004E+02  0.32914E+04
 0.47953003E+02  0.24790E+04
 0.48003002E+02  0.23651E+04
 0.48053001E+02  0.28737E+04
 0.48103004E+02  0.29438E+04
 0.48153004E+02  0.27008E+04
 0.48203003E+02  0.25364E+04
 0.48253002E+02  0.31147E+04
 0.48303001E+02  0.39658E+04
 0.48353004E+02  0.44667E+04
 0.48403004E+02  0.48602E+04
 0.48453003E+02  0.51137E+04
 0.48503002E+02  0.58234E+04
 0.48553001E+02  0.63817E+04
 0.48603004E+02  0.79490E+04
 0.48653004E+02  0.95490E+04
 0.48703003E+02  0.86105E+04
 0.48753002E+02  0.72338E+04
 0.48803001E+02  0.61758E+04
 0.48853004E+02  0.60066E+04
 0.48903004E+02  0.70975E+04
 0.48953003E+02  0.72025E+04
 0.49003002E+02  0.65797E+04
 0.49053001E+02  0.56691E+04
 0.49103004E+02  0.42718E+04
 0.49153004E+02  0.45709E+04
 0.49203003E+02  0.57202E+04
 0.49253002E+02  0.48769E+04
 0.49303001E+02  0.40606E+04
 0.49353004E+02  0.31517E+04
 0.49403004E+02  0.35266E+04
 0.49453003E+02  0.55571E+04
 0.49503002E+02  0.57848E+04
 0.49553001E+02  0.53054E+04
 0.49603004E+02  0.46531E+04
 0.49653004E+02  0.42096E+04
 0.49703003E+02  0.42550E+04
 0.49753002E+02  0.43455E+04
 0.49803001E+02  0.43972E+04
 0.49853004E+02  0.49644E+04
 0.49903004E+02  0.58829E+04
 0.49953003E+02  0.58592E+04
 0.50003002E+02  0.53222E+04
 0.50053001E+02  0.47965E+04
 0.50103004E+02  0.53672E+04
 0.50153004E+02  0.54804E+04
 0.50203003E+02  0.51464E+04
 0.50253002E+02  0.51717E+04
 0.50303001E+02  0.48154E+04
 0.50353004E+02  0.48958E+04
 0.50403004E+02  0.44366E+04
 0.50453003E+02  0.43525E+04
 0.50503002E+02  0.52150E+04
 0.50553001E+02  0.58076E+04
 0.50603004E+02  0.48037E+04
 0.50653004E+02  0.29399E+04
 0.50703003E+02  0.30509E+04
 0.50753002E+02  0.42002E+04
 0.50803001E+02  0.44483E+04
 0.50853004E+02  0.38328E+04
 0.50903004E+02  0.31919E+04
 0.50953003E+02  0.23351E+04
 0.51003002E+02  0.17014E+04
 0.51053001E+02  0.25313E+04
 0.51103004E+02  0.43399E+04
 0.51153004E+02  0.43630E+04
 0.51203003E+02  0.46867E+04
 0.51253002E+02  0.71334E+04
 0.51303001E+02  0.94604E+04
 0.51353004E+02  0.99090E+04
 0.51403004E+02  0.87006E+04
 0.51453003E+02  0.74144E+04
 0.51503002E+02  0.51891E+04
 0.51553001E+02  0.34914E+04
 0.51603004E+02  0.32200E+04
 0.51653004E+02  0.46445E+04
 0.51703003E+02  0.60696E+04
 0.51753002E+02  0.61980E+04
 0.51803001E+02  0.53684E+04
 0.51853004E+02  0.41177E+04
 0.51903004E+02  0.38019E+04
 0.51953003E+02  0.44512E+04
 0.52003002E+02  0.52936E+04
 0.52053001E+02  0.56370E+04
 0.52103004E+02  0.54910E+04
 0.52153004E+02  0.51179E+04
 0.52203003E+02  0.52486E+04
 0.52253002E+02  0.59245E+04
 0.52303001E+02  0.60121E+04
 0.52353004E+02  0.60615E+04
 0.52403004E+02  0.60850E+04
 0.52453003E+02  0.48381E+04
 0.52503002E+02  0.44587E+04
 0.52553001E+02  0.48236E+04
 0.52603004E+02  0.49494E+04
 0.52653004E+02  0.46025E+04
 0.52703003E+02  0.44865E+04
 0.52753002E+02  0.55738E+04
 0.52803001E+02  0.61287E+04
 0.52853004E+02  0.57916E+04
 0.52903004E+02  0.55268E+04
 0.52953003E+02  0.52949E+04
 0.53003002E+02  0.55888E+04
 0.53053001E+02  0.58623E+04
 0.53103004E+02  0.52587E+04
 0.53153004E+02  0.55940E+04
 0.53203003E+02  0.57089E+04
 0.53253002E+02  0.45618E+04
 0.53303001E+02  0.37185E+04
 0.53353004E+02  0.38608E+04
 0.53403004E+02  0.39223E+04
 0.53453003E+02  0.41093E+04
 0.53503002E+02  0.35688E+04
 0.53553001E+02  0.25822E+04
 0.53603004E+02  0.27187E+04
 0.53653004E+02  0.36632E+04
 0.53703003E+02  0.48015E+04
 0.53753002E+02  0.51745E+04
 0.53803001E+02  0.58327E+04
 0.53853004E+02  0.56905E+04
 0.53903004E+02  0.52377E+04
 0.53953003E+02  0.54000E+04
 0.54003002E+02  0.60327E+04
 0.54053001E+02  0.68825E+04
 0.54103004E+02  0.74623E+04
 0.54153004E+02  0.78006E+04
 0.54203003E+02  0.75099E+04
 0.54253002E+02  0.68479E+04
 0.54303001E+02  0.57219E+04
 0.54353004E+02  0.51469E+04
 0.54403004E+02  0.46599E+04
 0.54453003E+02  0.39126E+04
 0.54503002E+02  0.35132E+04
 0.54553001E+02  0.34033E+04
 0.54603004E+02  0.35950E+04
 0.54653004E+02  0.38687E+04
 0.54703003E+02  0.41665E+04
 0.54753002E+02  0.39985E+04
 0.54803001E+02  0.39536E+04
 0.54853004E+02  0.39767E+04
 0.54903004E+02  0.38520E+04
 0.54953003E+02  0.43567E+04
 0.55003002E+02  0.49483E+04
 0.55053001E+02  0.47402E+04
 0.55103004E+02  0.39407E+04
 0.55153004E+02  0.43971E+04
 0.55203003E+02  0.57085E+04
 0.55253002E+02  0.62642E+04
 0.55303001E+02  0.60192E+04
 0.55353004E+02  0.56481E+04
 0.55403004E+02  0.55739E+04
 0.55453003E+02  0.46742E+04
 0.55503002E+02  0.38322E+04
 0.55553001E+02  0.27333E+04
 0.55603004E+02  0.21436E+04
 0.55653004E+02  0.25895E+04
 0.55703003E+02  0.34155E+04
 0.55753002E+02  0.41226E+04
 0.55803001E+02  0.43174E+04
 0.55853001E+02  0.40123E+04
 0.55903004E+02  0.40449E+04
 0.55953003E+02  0.45598E+04
 0.56003002E+02  0.48280E+04
 0.56053001E+02  0.59220E+04
 0.56103001E+02  0.61262E+04
 0.56153004E+02  0.55158E+04
 0.56203003E+02  0.49054E+04
 0.56253002E+02  0.52894E+04
 0.56303001E+02  0.59702E+04
 0.56353001E+02  0.70087E+04
 0.56403004E+02  0.85941E+04
 0.56453003E+02  0.85596E+04
 0.56503002E+02  0.76661E+04
 0.56553001E+02  0.67372E+04
 0.56603001E+02  0.63782E+04
 0.56653004E+02  0.66956E+04
 0.56703003E+02  0.70638E+04
 0.56753002E+02  0.70387E+04
 0.56803001E+02  0.69601E+04
 0.56853001E+02  0.58472E+04
 0.56903004E+02  0.52040E+04
 0.56953003E+02  0.58210E+04
 0.57003002E+02  0.62838E+04
 0.57053001E+02  0.63386E+04
 0.57103001E+02  0.55117E+04
 0.57153004E+02  0.51942E+04
 0.57203003E+02  0.48278E+04
 0.57253002E+02  0.44004E+04
 0.57303001E+02  0.43467E+04
 0.57353001E+02  0.40605E+04
 0.57403004E+02  0.33549E+04
 0.57453003E+02  0.31796E+04
 0.57503002E+02  0.31976E+04
 0.57553001E+02  0.32312E+04
 0.57603001E+02  0.41744E+04
 0.57653004E+02  0.47596E+04
 0.57703003E+02  0.50535E+04
 0.57753002E+02  0.44951E+04
 0.57803001E+02  0.39603E+04
 0.57853001E+02  0.46316E+04
 0.57903004E+02  0.57039E+04
 0.57953003E+02  0.58946E+04
 0.58003002E+02  0.51490E+04
 0.58053001E+02  0.48517E+04
 0.58103001E+02  0.47694E+04
 0.58153004E+02  0.50196E+04
 0.58203003E+02  0.50595E+04
 0.58253002E+02  0.51714E+04
 0.58303001E+02  0.54963E+04
 0.58353001E+02  0.54971E+04
 0.58403004E+02  0.52910E+04
 0.58453003E+02  0.52698E+04
 0.58503002E+02  0.52963E+04
 0.58553001E+02  0.58632E+04
 0.58603001E+02  0.65120E+04
 0.58653004E+02  0.56810E+04
 0.58703003E+02  0.46685E+04
 0.58753002E+02  0.40234E+04
 0.58803001E+02  0.37294E+04
 0.58853001E+02  0.39329E+04
 0.58903004E+02  0.42480E+04
 0.58953003E+02  0.40686E+04
 0.59003002E+02  0.37006E+04
 0.59053001E+02  0.35429E+04
 0.59103001E+02  0.34029E+04
 0.59153004E+02  0.38017E+04
 0.59203003E+02  0.45570E+04
 0.59253002E+02  0.47945E+04
 0.59303001E+02  0.49152E+04
 0.59353001E+02  0.53565E+04
 0.59403004E+02  0.55783E+04
 0.59453003E+02  0.62098E+04
 0.59503002E+02  0.74252E+04
 0.59553001E+02  0.80462E+04
 0.59603001E+02  0.76534E+04
 0.59653004E+02  0.66523E+04
 0.59703003E+02  0.59800E+04
 0.59753002E+02  0.62689E+04
 0.59803001E+02  0.63089E+04
 0.59853001E+02  0.60839E+04
 0.59903004E+02  0.56702E+04
 0.59953003E+02  0.52501E+04
 0.60003002E+02  0.51038E+04
 0.60053001E+02  0.44698E+04
 0.60103001E+02  0.44120E+04
 0.60153004E+02  0.43395E+04
 0.60203003E+02  0.40662E+04
 0.60253002E+02  0.38884E+04
 0.60303001E+02  0.38151E+04
 0.60353001E+02  0.40189E+04
 0.60403004E+02  0.42039E+04
 0.60453003E+02  0.46830E+04
 0.60503002E+02  0.48001E+04
 0.60553001E+02  0.44632E+04
 0.60603001E+02  0.43674E+04
 0.60653004E+02  0.49147E+04
 0.60703003E+02  0.55907E+04
 0.60753002E+02  0.58837E+04
 0.60803001E+02  0.57408E+04
 0.60853001E+02  0.52411E+04
 0.60903004E+02  0.45739E+04
 0.60953003E+02  0.41107E+04
 0.61003002E+02  0.34950E+04
 0.61053001E+02  0.28898E+04
 0.61103001E+02  0.24239E+04
 0.61153004E+02  0.24270E+04
 0.61203003E+02  0.28415E+04
 0.61253002E+02  0.33086E+04
 0.61303001E+02  0.37995E+04
 0.61353001E+02  0.39641E+04
 0.61403004E+02  0.37180E+04
 0.61453003E+02  0.36491E+04
 0.61503002E+02  0.45301E+04
 0.61553001E+02  0.53787E+04
 0.61603001E+02  0.63067E+04
 0.61653004E+02  0.67942E+04
 0.61703003E+02  0.68410E+04
 0.61753002E+02  0.69948E+04
 0.61803001E+02  0.66777E+04
 0.61853001E+02  0.66305E+04
 0.61903004E+02  0.68979E+04
 0.61953003E+02  0.71702E+04
 0.62003002E+02  0.66746E+04
 0.62053001E+02  0.60761E+04
 0.62103004E+02  0.59444E+04
 0.62153000E+02  0.58377E+04
 0.62203003E+02  0.60686E+04
 0.62252998E+02  0.62770E+04
 0.62303001E+02  0.61549E+04
 0.62353004E+02  0.56582E+04
 0.62403000E+02  0.51122E+04
 0.62453003E+02  0.46275E+04
 0.62502998E+02  0.43635E+04
 0.62553001E+02  0.46278E+04
 0.62603004E+02  0.47461E+04
 0.62653000E+02  0.46362E+04
 0.62703003E+02  0.44555E+04
 0.62752998E+02  0.42322E+04
 0.62803001E+02  0.45606E+04
 0.62853004E+02  0.49421E+04
 0.62903000E+02  0.43622E+04
 0.62953003E+02  0.37534E+04
 0.63002998E+02  0.35708E+04
 0.63053001E+02  0.35146E+04
 0.63103004E+02  0.40466E+04
 0.63153000E+02  0.44132E+04
 0.63203003E+02  0.44889E+04
 0.63252998E+02  0.45321E+04
 0.63303001E+02  0.49014E+04
 0.63353004E+02  0.56085E+04
 0.63403000E+02  0.59157E+04
 0.63453003E+02  0.60158E+04
 0.63502998E+02  0.59128E+04
 0.63553001E+02  0.53875E+04
 0.63603004E+02  0.53627E+04
 0.63653000E+02  0.58903E+04
 0.63703003E+02  0.63248E+04
 0.63752998E+02  0.60235E+04
 0.63803001E+02  0.50903E+04
 0.63853004E+02  0.43454E+04
 0.63903000E+02  0.42949E+04
 0.63953003E+02  0.48331E+04
 0.64002998E+02  0.56404E+04
 0.64053001E+02  0.62140E+04
 0.64103004E+02  0.57753E+04
 0.64153000E+02  0.48718E+04
 0.64203003E+02  0.42999E+04
 0.64252998E+02  0.42109E+04
 0.64303001E+02  0.41662E+04
 0.64353004E+02  0.41785E+04
 0.64403000E+02  0.39750E+04
 0.64453003E+02  0.38268E+04
 0.64502998E+02  0.37089E+04
 0.64553001E+02  0.37837E+04
 0.64603004E+02  0.43153E+04
 0.64653000E+02  0.46331E+04
 0.64703003E+02  0.46345E+04
 0.64752998E+02  0.44028E+04
 0.64803001E+02  0.41531E+04
 0.64853004E+02  0.38486E+04
 0.64903000E+02  0.38246E+04
 0.64953003E+02  0.41789E+04
 0.65002998E+02  0.48373E+04
 0.65053001E+02  0.51912E+04
 0.65103004E+02  0.53268E+04
 0.65153000E+02  0.54335E+04
 0.65203003E+02  0.53908E+04
 0.65252998E+02  0.54283E+04
 0.65303001E+02  0.51068E+04
 0.65353004E+02  0.48983E+04
 0.65403000E+02  0.50350E+04
 0.65453003E+02  0.51744E+04
 0.65502998E+02  0.58864E+04
 0.65553001E+02  0.65749E+04
 0.65603004E+02  0.63250E+04
 0.65653000E+02  0.56494E+04
 0.65703003E+02  0.52604E+04
 0.65752998E+02  0.53892E+04
 0.65803001E+02  0.59355E+04
 0.65853004E+02  0.60041E+04
 0.65903000E+02  0.56729E+04
 0.65953003E+02  0.56668E+04
 0.66002998E+02  0.61728E+04
 0.66053001E+02  0.66039E+04
 0.66103004E+02  0.66753E+04
 0.66153000E+02  0.71196E+04
 0.66203003E+02  0.71988E+04
 0.66252998E+02  0.67318E+04
 0.66303001E+02  0.63827E+04
 0.66353004E+02  0.58674E+04
 0.66403000E+02  0.54451E+04
 0.66453003E+02  0.52790E+04
 0.66502998E+02  0.49587E+04
 0.66553001E+02  0.45931E+04
 0.66603004E+02  0.44145E+04
 0.66653000E+02  0.43578E+04
 0.66703003E+02  0.43446E+04
 0.66752998E+02  0.46245E+04
 0.66803001E+02  0.44455E+04
 0.66853004E+02  0.40738E+04
 0.66903000E+02  0.42924E+04
 0.66953003E+02  0.47374E+04
 0.67002998E+02  0.48884E+04
 0.67053001E+02  0.48265E+04
 0.67103004E+02  0.46543E+04
 0.67153000E+02  0.44615E+04
 0.67203003E+02  0.46683E+04
 0.67252998E+02  0.48486E+04
 0.67303001E+02  0.50927E+04
 0.67353004E+02  0.53511E+04
 0.67403000E+02  0.51973E+04
 0.67453003E+02  0.51157E+04
 0.67502998E+02  0.53777E+04
 0.67553001E+02  0.54891E+04
 0.67603004E+02  0.56453E+04
 0.67653000E+02  0.55754E+04
 0.67703003E+02  0.54047E+04
 0.67752998E+02  0.52185E+04
 0.67803001E+02  0.51327E+04
 0.67853004E+02  0.51860E+04
 0.67903000E+02  0.50266E+04
 0.67953003E+02  0.46653E+04
 0.68002998E+02  0.40513E+04
 0.68053001E+02  0.36915E+04
 0.68103004E+02  0.35196E+04
 0.68153000E+02  0.34652E+04
 0.68203003E+02  0.36333E+04
 0.68252998E+02  0.39236E+04
 0.68303001E+02  0.40979E+04
 0.68353004E+02  0.42713E+04
 0.68403000E+02  0.46858E+04
 0.68453003E+02  0.50742E+04
 0.68502998E+02  0.52632E+04
 0.68553001E+02  0.52752E+04
 0.68603004E+02  0.51894E+04
 0.68653000E+02  0.51606E+04
 0.68703003E+02  0.51855E+04
 0.68752998E+02  0.54501E+04
 0.68803001E+02  0.58853E+04
 0.68853004E+02  0.58772E+04
 0.68903000E+02  0.57813E+04
 0.68953003E+02  0.59688E+04
 0.69002998E+02  0.59187E+04
 0.69053001E+02  0.59236E+04
 0.69103004E+02  0.60961E+04
 0.69153000E+02  0.60057E+04
 0.69203003E+02  0.55558E+04
 0.69252998E+02  0.52635E+04
 0.69303001E+02  0.52845E+04
 0.69353004E+02  0.52714E+04
 0.69403000E+02  0.53006E+04
 0.69453003E+02  0.51285E+04
 0.69502998E+02  0.47845E+04
 0.69553001E+02  0.46807E+04
 0.69603004E+02  0.47578E+04
 0.69653000E+02  0.46529E+04
 0.69703003E+02  0.46144E+04
 0.69752998E+02  0.46149E+04
 0.69803001E+02  0.42783E+04
 0.69853004E+02  0.40041E+04
 0.69903000E+02  0.39501E+04
 0.69953003E+02  0.38996E+04
 0.70002998E+02  0.39621E+04
 0.70053001E+02  0.40112E+04
 0.70103004E+02  0.40239E+04
 0.70153000E+02  0.44102E+04
 0.70203003E+02  0.49952E+04
 0.70252998E+02  0.52775E+04
 0.70303001E+02  0.54763E+04
 0.70353004E+02  0.55986E+04
 0.70403000E+02  0.54614E+04
 0.70453003E+02  0.54769E+04
 0.70502998E+02  0.56468E+04
 0.70553001E+02  0.53773E+04
 0.70603004E+02  0.51874E+04
 0.70653000E+02  0.53400E+04
 0.70703003E+02  0.53449E+04
 0.70752998E+02  0.53598E+04
 0.70803001E+02  0.51058E+04
 0.70853004E+02  0.48542E+04
 0.70903000E+02  0.49193E+04
 0.70953003E+02  0.47280E+04
 0.71002998E+02  0.45307E+04
 0.71053001E+02  0.45281E+04
 0.71103004E+02  0.46757E+04
 0.71153000E+02  0.50633E+04
 0.71203003E+02  0.51573E+04
 0.71252998E+02  0.49090E+04
 0.71303001E+02  0.45569E+04
 0.71353004E+02  0.43661E+04
 0.71403000E+02  0.43428E+04
 0.71453003E+02  0.45630E+04
 0.71502998E+02  0.51297E+04
 0.71553001E+02  0.52620E+04
 0.71603004E+02  0.50449E+04
 0.71653000E+02  0.50089E+04
 0.71703003E+02  0.51508E+04
 0.71752998E+02  0.52643E+04
 0.71803001E+02  0.52898E+04
 0.71853004E+02  0.53146E+04
 0.71903000E+02  0.54821E+04
 0.71953003E+02  0.55321E+04
 0.72002998E+02  0.54538E+04
 0.72053001E+02  0.55287E+04
 0.72103004E+02  0.55236E+04
 0.72153000E+02  0.56587E+04
 0.72203003E+02  0.55545E+04
 0.72252998E+02  0.54739E+04
 0.72303001E+02  0.56672E+04
 0.72353004E+02  0.57092E+04
 0.72403000E+02  0.58108E+04
 0.72453003E+02  0.55434E+04
 0.72502998E+02  0.49935E+04
 0.72553001E+02  0.48443E+04
 0.72603004E+02  0.48385E+04
 0.72653000E+02  0.50215E+04
 0.72703003E+02  0.53776E+04
 0.72752998E+02  0.51543E+04
 0.72803001E+02  0.45449E+04
 0.72853004E+02  0.38608E+04
 0.72903000E+02  0.33089E+04
 0.72953003E+02  0.33002E+04
 0.73002998E+02  0.36957E+04
 0.73053001E+02  0.38552E+04
 0.73103004E+02  0.38536E+04
 0.73153000E+02  0.40565E+04
 0.73203003E+02  0.45944E+04
 0.73252998E+02  0.52213E+04
 0.73303001E+02  0.56910E+04
 0.73353004E+02  0.58995E+04
 0.73403000E+02  0.60084E+04
 0.73453003E+02  0.62334E+04
 0.73502998E+02  0.63632E+04
 0.73553001E+02  0.62894E+04
 0.73603004E+02  0.59263E+04
 0.73653000E+02  0.55240E+04
 0.73703003E+02  0.49843E+04
 0.73752998E+02  0.47726E+04
 0.73803001E+02  0.49167E+04
 0.73853004E+02  0.56343E+04
 0.73903000E+02  0.56712E+04
 0.73953003E+02  0.60962E+04
 0.74002998E+02  0.59591E+04
 0.74053001E+02  0.49850E+04
 0.74103004E+02  0.52067E+04
 0.74153000E+02  0.52484E+04
 0.74203003E+02  0.56797E+04
 0.74252998E+02  0.57247E+04
 0.74303001E+02  0.53782E+04
 0.74353004E+02  0.48734E+04
 0.74403000E+02  0.46376E+04
 0.74453003E+02  0.47098E+04
 0.74502998E+02  0.46319E+04
 0.74553001E+02  0.43680E+04
 0.74603004E+02  0.40372E+04
 0.74653000E+02  0.41835E+04
 0.74703003E+02  0.46069E+04
 0.74752998E+02  0.49223E+04
 0.74803001E+02  0.51318E+04
 0.74853004E+02  0.49719E+04
 0.74903000E+02  0.44495E+04
 0.74953003E+02  0.43389E+04
 0.75002998E+02  0.44127E+04
 0.75053001E+02  0.46927E+04
 0.75103004E+02  0.47706E+04
 0.75153000E+02  0.45725E+04
 0.75203003E+02  0.42906E+04
 0.75252998E+02  0.42042E+04
 0.75303001E+02  0.42881E+04
 0.75353004E+02  0.45555E+04
 0.75403000E+02  0.53643E+04
 0.75453003E+02  0.58878E+04
 0.75502998E+02  0.57826E+04
 0.75553001E+02  0.55803E+04
 0.75603004E+02  0.53457E+04
 0.75653000E+02  0.52079E+04
 0.75703003E+02  0.52743E+04
 0.75752998E+02  0.51456E+04
 0.75803001E+02  0.49459E+04
 0.75853004E+02  0.48059E+04
 0.75903000E+02  0.46653E+04
 0.75953003E+02  0.47555E+04
 0.76002998E+02  0.50328E+04
 0.76053001E+02  0.52251E+04
 0.76103004E+02  0.54742E+04
 0.76153000E+02  0.57688E+04
 0.76203003E+02  0.57740E+04
 0.76252998E+02  0.59459E+04
 0.76303001E+02  0.64017E+04
 0.76353004E+02  0.63173E+04
 0.76403000E+02  0.58223E+04
 0.76453003E+02  0.55568E+04
 0.76502998E+02  0.54304E+04
 0.76553001E+02  0.53177E+04
 0.76603004E+02  0.55390E+04
 0.76653000E+02  0.58677E+04
 0.76703003E+02  0.56342E+04
 0.76752998E+02  0.54107E+04
 0.76803001E+02  0.56961E+04
 0.76853004E+02  0.58517E+04
 0.76903000E+02  0.57527E+04
 0.76953003E+02  0.54682E+04
 0.77002998E+02  0.50549E+04
 0.77053001E+02  0.49024E+04
 0.77103004E+02  0.48839E+04
 0.77153000E+02  0.45545E+04
 0.77203003E+02  0.43390E+04
 0.77252998E+02  0.41455E+04
 0.77303001E+02  0.37537E+04
 0.77353004E+02  0.36297E+04
 0.77403000E+02  0.38636E+04
 0.77453003E+02  0.41947E+04
 0.77502998E+02  0.42366E+04
 0.77553001E+02  0.42331E+04
 0.77603004E+02  0.40622E+04
 0.77653000E+02  0.38936E+04
 0.77703003E+02  0.38623E+04
 0.77752998E+02  0.38997E+04
 0.77803001E+02  0.43466E+04
 0.77853004E+02  0.46197E+04
 0.77903000E+02  0.44669E+04
 0.77953003E+02  0.42861E+04
 0.78002998E+02  0.42708E+04
 0.78053001E+02  0.45039E+04
 0.78103004E+02  0.47003E+04
 0.78153000E+02  0.49320E+04
 0.78203003E+02  0.50003E+04
 0.78252998E+02  0.50101E+04
 0.78303001E+02  0.53948E+04
 0.78353004E+02  0.57809E+04
 0.78403000E+02  0.60845E+04
 0.78453003E+02  0.63219E+04
 0.78502998E+02  0.62269E+04
 0.78553001E+02  0.61056E+04
 0.78603004E+02  0.59818E+04
 0.78653000E+02  0.59437E+04
 0.78703003E+02  0.61247E+04
 0.78752998E+02  0.60807E+04
 0.78803001E+02  0.57735E+04
 0.78853004E+02  0.55022E+04
 0.78903000E+02  0.53752E+04
 0.78953003E+02  0.53320E+04
 0.79002998E+02  0.54842E+04
 0.79053001E+02  0.58492E+04
 0.79103004E+02  0.60137E+04
 0.79153000E+02  0.60886E+04
 0.79203003E+02  0.62814E+04
 0.79252998E+02  0.61931E+04
 0.79303001E+02  0.58829E+04
 0.79353004E+02  0.54598E+04
 0.79403000E+02  0.49930E+04
 0.79453003E+02  0.46363E+04
 0.79502998E+02  0.43419E+04
 0.79553001E+02  0.42849E+04
 0.79603004E+02  0.44832E+04
 0.79653000E+02  0.46748E+04
 0.79703003E+02  0.46675E+04
 0.79752998E+02  0.45037E+04
 0.79803001E+02  0.45402E+04
 0.79853004E+02  0.48866E+04
 0.79903000E+02  0.53634E+04
 0.79953003E+02  0.56946E+04
 0.80002998E+02  0.55430E+04
 0.80053001E+02  0.51386E+04
 0.80103004E+02  0.49571E+04
 0.80153000E+02  0.47652E+04
 0.80203003E+02  0.48399E+04
 0.80252998E+02  0.50613E+04
 0.80303001E+02  0.48906E+04
 0.80353004E+02  0.43401E+04
 0.80403000E+02  0.39846E+04
 0.80453003E+02  0.40207E+04
 0.80502998E+02  0.41230E+04
 0.80553001E+02  0.41772E+04
 0.80603004E+02  0.38819E+04
 0.80653000E+02  0.37295E+04
 0.80703003E+02  0.39535E+04
 0.80752998E+02  0.41685E+04
 0.80803001E+02  0.44070E+04
 0.80853004E+02  0.47215E+04
 0.80903000E+02  0.49882E+04
 0.80953003E+02  0.51573E+04
 0.81002998E+02  0.51789E+04
 0.81053001E+02  0.51553E+04
 0.81103004E+02  0.52774E+04
 0.81153000E+02  0.52991E+04
 0.81203003E+02  0.51139E+04
 0.81252998E+02  0.49705E+04
 0.81303001E+02  0.51087E+04
 0.81353004E+02  0.53127E+04
 0.81403000E+02  0.54892E+04
 0.81453003E+02  0.55342E+04
 0.81502998E+02  0.53143E+04
 0.81553001E+02  0.49565E+04
 0.81603004E+02  0.47307E+04
 0.81653000E+02  0.48871E+04
 0.81703003E+02  0.51400E+04
 0.81752998E+02  0.52601E+04
 0.81803001E+02  0.50760E+04
 0.81853004E+02  0.46358E+04
 0.81903000E+02  0.43877E+04
 0.81953003E+02  0.42888E+04
 0.82002998E+02  0.42633E+04
 0.82053001E+02  0.42838E+04
 0.82103004E+02  0.41631E+04
 0.82153000E+02  0.40478E+04
 0.82203003E+02  0.43290E+04
 0.82252998E+02  0.46163E+04
 0.82303001E+02  0.46971E+04
 0.82353004E+02  0.49253E+04
 0.82403000E+02  0.49809E+04
 0.82453003E+02  0.49483E+04
 0.82502998E+02  0.51633E+04
 0.82553001E+02  0.55875E+04
 0.82603004E+02  0.59898E+04
 0.82653000E+02  0.62791E+04
 0.82703003E+02  0.62260E+04
 0.82752998E+02  0.57545E+04
 0.82803001E+02  0.53817E+04
 0.82853004E+02  0.53547E+04
 0.82903000E+02  0.56438E+04
 0.82953003E+02  0.60051E+04
 0.83002998E+02  0.60722E+04
 0.83053001E+02  0.58449E+04
 0.83103004E+02  0.57031E+04
 0.83153000E+02  0.56211E+04
 0.83203003E+02  0.54715E+04
 0.83252998E+02  0.55014E+04
 0.83303001E+02  0.54962E+04
 0.83353004E+02  0.53141E+04
 0.83403000E+02  0.52658E+04
 0.83453003E+02  0.53485E+04
 0.83502998E+02  0.55221E+04
 0.83553001E+02  0.56281E+04
 0.83603004E+02  0.53712E+04
 0.83653000E+02  0.49386E+04
 0.83703003E+02  0.47347E+04
 0.83752998E+02  0.46313E+04
 0.83803001E+02  0.47697E+04
 0.83853004E+02  0.50697E+04
 0.83903000E+02  0.50614E+04
 0.83953003E+02  0.48901E+04
 0.84002998E+02  0.47801E+04
 0.84053001E+02  0.46849E+04
 0.84103004E+02  0.47259E+04
 0.84153000E+02  0.50360E+04
 0.84203003E+02  0.49791E+04
 0.84252998E+02  0.48263E+04
 0.84303001E+02  0.47774E+04
 0.84353004E+02  0.47027E+04
 0.84403000E+02  0.47486E+04
 0.84453003E+02  0.47804E+04
 0.84502998E+02  0.47035E+04
 0.84553001E+02  0.45074E+04
 0.84603004E+02  0.44534E+04
 0.84653000E+02  0.44551E+04
 0.84703003E+02  0.45922E+04
 0.84752998E+02  0.48252E+04
 0.84803001E+02  0.46687E+04
 0.84853004E+02  0.43665E+04
 0.84903000E+02  0.44191E+04
 0.84953003E+02  0.46792E+04
 0.85002998E+02  0.50071E+04
 0.85053001E+02  0.51680E+04
 0.85103004E+02  0.50696E+04
 0.85153000E+02  0.49942E+04
 0.85203003E+02  0.51478E+04
 0.85252998E+02  0.53342E+04
 0.85303001E+02  0.57103E+04
 0.85353004E+02  0.59235E+04
 0.85403000E+02  0.55930E+04
 0.85453003E+02  0.51584E+04
 0.85502998E+02  0.50258E+04
 0.85553001E+02  0.51387E+04
 0.85603004E+02  0.52846E+04
 0.85653000E+02  0.53490E+04
 0.85703003E+02  0.51715E+04
 0.85752998E+02  0.50895E+04
 0.85803001E+02  0.52714E+04
 0.85853004E+02  0.55063E+04
 0.85903000E+02  0.55833E+04
 0.85953003E+02  0.54490E+04
 0.86002998E+02  0.51042E+04
 0.86053001E+02  0.49170E+04
 0.86103004E+02  0.49781E+04
 0.86153000E+02  0.50557E+04
 0.86203003E+02  0.51571E+04
 0.86252998E+02  0.50718E+04
 0.86303001E+02  0.47832E+04
 0.86353004E+02  0.47181E+04
 0.86403000E+02  0.48251E+04
 0.86453003E+02  0.48676E+04
 0.86502998E+02  0.50255E+04
 0.86553001E+02  0.50121E+04
 0.86603004E+02  0.48386E+04
 0.86653000E+02  0.48580E+04
 0.86703003E+02  0.50779E+04
 0.86752998E+02  0.52957E+04
 0.86803001E+02  0.54414E+04
 0.86853004E+02  0.54504E+04
 0.86903000E+02  0.53599E+04
 0.86953003E+02  0.54266E+04
 0.87002998E+02  0.55377E+04
 0.87053001E+02  0.55910E+04
 0.87103004E+02  0.55784E+04
 0.87153000E+02  0.54189E+04
 0.87203003E+02  0.51019E+04
 0.87252998E+02  0.50312E+04
 0.87303001E+02  0.50275E+04
 0.87353004E+02  0.50927E+04
 0.87403000E+02  0.52995E+04
 0.87453003E+02  0.53172E+04
 0.87502998E+02  0.51853E+04
 0.87553001E+02  0.51652E+04
 0.87602997E+02  0.52212E+04
 0.87653000E+02  0.52013E+04
 0.87703003E+02  0.53984E+04
 0.87752998E+02  0.54313E+04
 0.87803001E+02  0.53577E+04
 0.87852997E+02  0.53531E+04
 0.87903000E+02  0.51431E+04
 0.87953003E+02  0.49246E+04
 0.88002998E+02  0.49695E+04
 0.88053001E+02  0.49255E+04
 0.88102997E+02  0.48331E+04
 0.88153000E+02  0.49179E+04
 0.88203003E+02  0.50269E+04
 0.88252998E+02  0.51595E+04
 0.88303001E+02  0.52112E+04
 0.88352997E+02  0.50529E+04
 0.88403000E+02  0.47694E+04
 0.88453003E+02  0.46150E+04
 0.88502998E+02  0.46161E+04
 0.88553001E+02  0.48936E+04
 0.88602997E+02  0.50447E+04
 0.88653000E+02  0.49013E+04
 0.88703003E+02  0.47505E+04
 0.88752998E+02  0.47284E+04
 0.88803001E+02  0.48616E+04
 0.88852997E+02  0.49316E+04
 0.88903000E+02  0.49697E+04
 0.88953003E+02  0.47863E+04
 0.89002998E+02  0.45984E+04
 0.89053001E+02  0.46058E+04
 0.89102997E+02  0.46636E+04
 0.89153000E+02  0.46645E+04
 0.89203003E+02  0.44826E+04
 0.89252998E+02  0.40525E+04
 0.89303001E+02  0.37981E+04
 0.89352997E+02  0.38415E+04
 0.89403000E+02  0.39455E+04
 0.89453003E+02  0.42393E+04
 0.89502998E+02  0.44907E+04
 0.89553001E+02  0.44541E+04
 0.89602997E+02  0.43307E+04
 0.89653000E+02  0.44743E+04
 0.89703003E+02  0.47280E+04
 0.89752998E+02  0.49481E+04
 0.89803001E+02  0.50128E+04
 0.89852997E+02  0.49545E+04
 0.89903000E+02  0.49982E+04
 0.89953003E+02  0.51056E+04
 0.90002998E+02  0.51924E+04
 0.90053001E+02  0.53522E+04
 0.90102997E+02  0.54338E+04
 0.90153000E+02  0.53015E+04
 0.90203003E+02  0.51814E+04
 0.90252998E+02  0.52369E+04
 0.90303001E+02  0.53754E+04
 0.90352997E+02  0.55662E+04
 0.90403000E+02  0.55180E+04
 0.90453003E+02  0.53347E+04
 0.90502998E+02  0.53606E+04
 0.90553001E+02  0.54513E+04
 0.90602997E+02  0.55818E+04
 0.90653000E+02  0.57418E+04
 0.90703003E+02  0.57368E+04
 0.90752998E+02  0.56145E+04
 0.90803001E+02  0.56840E+04
 0.90852997E+02  0.57221E+04
 0.90903000E+02  0.57973E+04
 0.90953003E+02  0.59610E+04
 0.91002998E+02  0.58625E+04
 0.91053001E+02  0.55235E+04
 0.91102997E+02  0.53605E+04
 0.91153000E+02  0.53933E+04
 0.91203003E+02  0.54783E+04
 0.91252998E+02  0.56320E+04
 0.91303001E+02  0.55033E+04
 0.91352997E+02  0.52841E+04
 0.91403000E+02  0.51538E+04
 0.91453003E+02  0.51715E+04
 0.91502998E+02  0.53290E+04
 0.91553001E+02  0.52985E+04
 0.91602997E+02  0.49349E+04
 0.91653000E+02  0.45448E+04
 0.91703003E+02  0.45577E+04
 0.91752998E+02  0.47898E+04
 0.91803001E+02  0.51420E+04
 0.91852997E+02  0.53241E+04
 0.91903000E+02  0.52223E+04
 0.91953003E+02  0.51335E+04
 0.92002998E+02  0.50404E+04
 0.92053001E+02  0.49860E+04
 0.92102997E+02  0.50693E+04
 0.92153000E+02  0.50102E+04
 0.92203003E+02  0.47590E+04
 0.92252998E+02  0.46545E+04
 0.92303001E+02  0.46481E+04
 0.92352997E+02  0.47433E+04
 0.92403000E+02  0.50288E+04
 0.92453003E+02  0.52210E+04
 0.92502998E+02  0.50852E+04
 0.92553001E+02  0.48731E+04
 0.92602997E+02  0.47872E+04
 0.92653000E+02  0.48623E+04
 0.92703003E+02  0.50381E+04
 0.92752998E+02  0.49631E+04
 0.92803001E+02  0.46269E+04
 0.92852997E+02  0.44760E+04
 0.92903000E+02  0.45373E+04
 0.92953003E+02  0.46051E+04
 0.93002998E+02  0.47619E+04
 0.93053001E+02  0.46775E+04
 0.93102997E+02  0.43251E+04
 0.93153000E+02  0.42383E+04
 0.93203003E+02  0.43515E+04
 0.93252998E+02  0.44859E+04
 0.93303001E+02  0.46415E+04
 0.93352997E+02  0.46128E+04
 0.93403000E+02  0.44533E+04
 0.93453003E+02  0.42920E+04
 0.93502998E+02  0.42545E+04
 0.93553001E+02  0.44360E+04
 0.93602997E+02  0.48186E+04
 0.93653000E+02  0.50162E+04
 0.93703003E+02  0.50042E+04
 0.93752998E+02  0.50939E+04
 0.93803001E+02  0.52845E+04
 0.93852997E+02  0.55309E+04
 0.93903000E+02  0.57355E+04
 0.93953003E+02  0.56528E+04
 0.94002998E+02  0.54973E+04
 0.94053001E+02  0.55978E+04
 0.94102997E+02  0.56485E+04
 0.94153000E+02  0.58013E+04
 0.94203003E+02  0.58099E+04
 0.94252998E+02  0.54852E+04
 0.94303001E+02  0.52980E+04
 0.94352997E+02  0.54168E+04
 0.94403000E+02  0.55933E+04
 0.94453003E+02  0.57320E+04
 0.94502998E+02  0.57483E+04
 0.94553001E+02  0.54710E+04
 0.94602997E+02  0.53475E+04
 0.94653000E+02  0.54308E+04
 0.94703003E+02  0.55812E+04
 0.94752998E+02  0.56018E+04
 0.94803001E+02  0.56005E+04
 0.94852997E+02  0.52108E+04
 0.94903000E+02  0.48888E+04
 0.94953003E+02  0.47467E+04
 0.95002998E+02  0.48024E+04
 0.95053001E+02  0.51101E+04
 0.95102997E+02  0.49495E+04
 0.95153000E+02  0.47847E+04
 0.95203003E+02  0.46763E+04
 0.95252998E+02  0.46917E+04
 0.95303001E+02  0.48740E+04
 0.95352997E+02  0.51317E+04
 0.95403000E+02  0.50674E+04
 0.95453003E+02  0.50746E+04
 0.95502998E+02  0.49803E+04
 0.95553001E+02  0.50786E+04
 0.95602997E+02  0.52875E+04
 0.95653000E+02  0.53926E+04
 0.95703003E+02  0.53915E+04
 0.95752998E+02  0.50247E+04
 0.95803001E+02  0.48271E+04
 0.95852997E+02  0.49437E+04
 0.95903000E+02  0.52117E+04
 0.95953003E+02  0.52904E+04
 0.96002998E+02  0.52202E+04
 0.96053001E+02  0.48014E+04
 0.96102997E+02  0.46000E+04
 0.96153000E+02  0.46716E+04
 0.96203003E+02  0.47854E+04
 0.96252998E+02  0.49920E+04
 0.96303001E+02  0.49591E+04
 0.96352997E+02  0.46426E+04
 0.96403000E+02  0.45456E+04
 0.96453003E+02  0.46936E+04
 0.96502998E+02  0.48757E+04
 0.96553001E+02  0.50871E+04
 0.96602997E+02  0.48099E+04
 0.96653000E+02  0.44293E+04
 0.96703003E+02  0.42764E+04
 0.96752998E+02  0.43241E+04
 0.96803001E+02  0.45871E+04
 0.96852997E+02  0.47952E+04
 0.96903000E+02  0.48093E+04
 0.96953003E+02  0.48048E+04
 0.97002998E+02  0.49377E+04
 0.97053001E+02  0.50834E+04
 0.97102997E+02  0.52887E+04
 0.97153000E+02  0.53912E+04
 0.97203003E+02  0.51909E+04
 0.97252998E+02  0.49923E+04
 0.97303001E+02  0.49882E+04
 0.97352997E+02  0.52057E+04
 0.97403000E+02  0.53339E+04
 0.97453003E+02  0.53007E+04
 0.97502998E+02  0.51200E+04
 0.97553001E+02  0.49007E+04
 0.97602997E+02  0.49131E+04
 0.97653000E+02  0.49957E+04
 0.97703003E+02  0.52465E+04
 0.97752998E+02  0.54685E+04
 0.97803001E+02  0.54711E+04
 0.97852997E+02  0.54008E+04
 0.97903000E+02  0.55100E+04
 0.97953003E+02  0.56713E+04
 0.98002998E+02  0.57566E+04
