-0.19800000E+01  0.92145E+05
-0.19300001E+01  0.96285E+05
-0.18800000E+01  0.98592E+05
-0.18300000E+01  0.98886E+05
-0.17800000E+01  0.97866E+05
-0.17300000E+01  0.95361E+05
-0.16800001E+01  0.90165E+05
-0.16300000E+01  0.82059E+05
-0.15800000E+01  0.71529E+05
-0.15300000E+01  0.59526E+05
-0.14800000E+01  0.47376E+05
-0.14300001E+01  0.35403E+05
-0.13800000E+01  0.23138E+05
-0.13299999E+01  0.11721E+05
-0.12800000E+01  0.19020E+04
-0.12300000E+01 -0.64470E+04
-0.11800001E+01 -0.12998E+05
-0.11300000E+01 -0.18833E+05
-0.10799999E+01 -0.23804E+05
-0.10300000E+01 -0.27815E+05
-0.98000002E+00 -0.31398E+05
-0.92999995E+00 -0.33791E+05
-0.88000000E+00 -0.36480E+05
-0.83000004E+00 -0.39707E+05
-0.77999997E+00 -0.42487E+05
-0.73000002E+00 -0.45810E+05
-0.67999995E+00 -0.49255E+05
-0.63000000E+00 -0.52453E+05
-0.58000004E+00 -0.55807E+05
-0.52999997E+00 -0.58733E+05
-0.48000002E+00 -0.60774E+05
-0.42999995E+00 -0.61791E+05
-0.38000000E+00 -0.61525E+05
-0.33000004E+00 -0.59097E+05
-0.27999997E+00 -0.53877E+05
-0.23000002E+00 -0.47199E+05
-0.17999995E+00 -0.40135E+05
-0.13000000E+00 -0.33215E+05
-0.80000043E-01 -0.27682E+05
-0.29999971E-01 -0.23638E+05
 0.19999981E-01 -0.21256E+05
 0.69999933E-01 -0.20080E+05
 0.12000012E+00 -0.19101E+05
 0.17000008E+00 -0.18361E+05
 0.22000003E+00 -0.17294E+05
 0.26999998E+00 -0.16858E+05
 0.31999993E+00 -0.18332E+05
 0.37000012E+00 -0.21882E+05
 0.42000008E+00 -0.27556E+05
 0.47000003E+00 -0.33365E+05
 0.51999998E+00 -0.38140E+05
 0.56999993E+00 -0.41906E+05
 0.62000012E+00 -0.43880E+05
 0.67000008E+00 -0.44534E+05
 0.72000003E+00 -0.44325E+05
 0.76999998E+00 -0.43631E+05
 0.81999993E+00 -0.44060E+05
 0.87000012E+00 -0.45346E+05
 0.92000008E+00 -0.45774E+05
 0.97000003E+00 -0.44703E+05
 0.10200000E+01 -0.42168E+05
 0.10699999E+01 -0.38876E+05
 0.11200001E+01 -0.35006E+05
 0.11700001E+01 -0.29120E+05
 0.12200000E+01 -0.20183E+05
 0.12700000E+01 -0.92000E+04
 0.13199999E+01  0.28000E+04
 0.13700001E+01  0.15778E+05
 0.14200001E+01  0.29347E+05
 0.14700000E+01  0.43118E+05
 0.15200000E+01  0.57010E+05
 0.15699999E+01  0.70390E+05
 0.16200001E+01  0.82638E+05
 0.16700001E+01  0.93953E+05
 0.17200000E+01  0.10377E+06
 0.17700000E+01  0.11212E+06
 0.18199999E+01  0.11867E+06
 0.18700001E+01  0.12144E+06
 0.19200001E+01  0.12102E+06
 0.19700000E+01  0.11816E+06
 0.20200000E+01  0.11294E+06
 0.20700002E+01  0.10665E+06
 0.21199999E+01  0.98916E+05
 0.21700001E+01  0.89457E+05
 0.22200003E+01  0.79238E+05
 0.22700000E+01  0.68750E+05
 0.23200002E+01  0.58676E+05
 0.23699999E+01  0.49185E+05
 0.24200001E+01  0.40084E+05
 0.24700003E+01  0.31157E+05
 0.25200000E+01  0.21393E+05
 0.25700002E+01  0.10966E+05
 0.26199999E+01  0.52400E+03
 0.26700001E+01 -0.10037E+05
 0.27200003E+01 -0.19386E+05
 0.27700000E+01 -0.26932E+05
 0.28200002E+01 -0.33935E+05
 0.28699999E+01 -0.40394E+05
 0.29200001E+01 -0.46227E+05
 0.29700003E+01 -0.51253E+05
 0.30200000E+01 -0.55443E+05
 0.30700002E+01 -0.59715E+05
 0.31199999E+01 -0.63928E+05
 0.31700001E+01 -0.68550E+05
 0.32200003E+01 -0.73483E+05
 0.32700000E+01 -0.77436E+05
 0.33200002E+01 -0.80323E+05
 0.33699999E+01 -0.81537E+05
 0.34200001E+01 -0.80332E+05
 0.34700003E+01 -0.77814E+05
 0.35200000E+01 -0.75494E+05
 0.35700002E+01 -0.73594E+05
 0.36199999E+01 -0.71683E+05
 0.36700001E+01 -0.68976E+05
 0.37200003E+01 -0.64661E+05
 0.37700000E+01 -0.58804E+05
 0.38200002E+01 -0.52257E+05
 0.38699999E+01 -0.45891E+05
 0.39200001E+01 -0.40293E+05
 0.39700003E+01 -0.36270E+05
 0.40200000E+01 -0.33499E+05
 0.40700002E+01 -0.31135E+05
 0.41199999E+01 -0.29453E+05
 0.41700001E+01 -0.28287E+05
 0.42200003E+01 -0.26807E+05
 0.42700000E+01 -0.24031E+05
 0.43200002E+01 -0.19915E+05
 0.43699999E+01 -0.15871E+05
 0.44200001E+01 -0.12988E+05
 0.44700003E+01 -0.11048E+05
 0.45200000E+01 -0.89460E+04
 0.45700002E+01 -0.63950E+04
 0.46199999E+01 -0.28830E+04
 0.46700001E+01  0.21210E+04
 0.47200003E+01  0.77380E+04
 0.47700000E+01  0.13839E+05
 0.48200002E+01  0.19667E+05
 0.48699999E+01  0.24340E+05
 0.49200001E+01  0.27804E+05
 0.49700003E+01  0.29852E+05
 0.50200000E+01  0.31207E+05
 0.50700002E+01  0.31841E+05
 0.51199999E+01  0.31646E+05
 0.51700001E+01  0.30515E+05
 0.52200003E+01  0.28224E+05
 0.52700000E+01  0.26475E+05
 0.53200002E+01  0.26108E+05
 0.53699999E+01  0.26355E+05
 0.54200001E+01  0.26446E+05
 0.54700003E+01  0.26046E+05
 0.55200000E+01  0.25370E+05
 0.55700002E+01  0.24031E+05
 0.56199999E+01  0.22232E+05
 0.56700001E+01  0.20557E+05
 0.57200003E+01  0.18849E+05
 0.57700000E+01  0.17764E+05
 0.58200002E+01  0.17989E+05
 0.58699999E+01  0.19356E+05
 0.59200001E+01  0.22061E+05
 0.59700003E+01  0.26185E+05
 0.60200000E+01  0.30514E+05
 0.60700002E+01  0.34267E+05
 0.61200004E+01  0.37369E+05
 0.61700006E+01  0.39626E+05
 0.62199998E+01  0.41672E+05
 0.62700000E+01  0.43342E+05
 0.63200002E+01  0.44282E+05
 0.63700004E+01  0.44461E+05
 0.64200006E+01  0.42541E+05
 0.64699998E+01  0.38554E+05
 0.65200000E+01  0.34508E+05
 0.65700002E+01  0.31918E+05
 0.66200004E+01  0.30808E+05
 0.66700006E+01  0.30400E+05
 0.67199998E+01  0.29502E+05
 0.67700000E+01  0.27492E+05
 0.68200002E+01  0.24267E+05
 0.68700004E+01  0.19548E+05
 0.69200006E+01  0.14785E+05
 0.69699998E+01  0.10689E+05
 0.70200000E+01  0.78360E+04
 0.70700002E+01  0.66530E+04
 0.71200004E+01  0.54500E+04
 0.71700006E+01  0.51140E+04
 0.72199998E+01  0.58370E+04
 0.72700000E+01  0.67740E+04
 0.73200002E+01  0.87810E+04
 0.73700004E+01  0.11189E+05
 0.74200006E+01  0.13788E+05
 0.74699998E+01  0.16336E+05
 0.75200000E+01  0.18673E+05
 0.75700002E+01  0.21346E+05
 0.76200004E+01  0.23674E+05
 0.76700006E+01  0.24543E+05
 0.77199998E+01  0.23026E+05
 0.77700000E+01  0.19138E+05
 0.78200002E+01  0.13868E+05
 0.78700004E+01  0.90360E+04
 0.79200006E+01  0.41990E+04
 0.79699998E+01 -0.12470E+04
 0.80200005E+01 -0.62200E+04
 0.80699997E+01 -0.11644E+05
 0.81200008E+01 -0.16954E+05
 0.81700001E+01 -0.20713E+05
 0.82199993E+01 -0.22542E+05
 0.82700005E+01 -0.22584E+05
 0.83199997E+01 -0.21471E+05
 0.83700008E+01 -0.19359E+05
 0.84200001E+01 -0.18123E+05
 0.84699993E+01 -0.18617E+05
 0.85200005E+01 -0.20354E+05
 0.85699997E+01 -0.23982E+05
 0.86200008E+01 -0.28327E+05
 0.86700001E+01 -0.32200E+05
 0.87199993E+01 -0.35152E+05
 0.87700005E+01 -0.36218E+05
 0.88199997E+01 -0.35518E+05
 0.88700008E+01 -0.33342E+05
 0.89200001E+01 -0.29870E+05
 0.89699993E+01 -0.24539E+05
 0.90200005E+01 -0.17744E+05
 0.90699997E+01 -0.11422E+05
 0.91200008E+01 -0.63110E+04
 0.91700001E+01 -0.22880E+04
 0.92199993E+01  0.16190E+04
 0.92700005E+01  0.53760E+04
 0.93199997E+01  0.82570E+04
 0.93700008E+01  0.10350E+05
 0.94200001E+01  0.10814E+05
 0.94699993E+01  0.96200E+04
 0.95200005E+01  0.71100E+04
 0.95699997E+01  0.20180E+04
 0.96200008E+01 -0.56240E+04
 0.96700001E+01 -0.14791E+05
 0.97199993E+01 -0.25027E+05
 0.97700005E+01 -0.35511E+05
 0.98199997E+01 -0.46051E+05
 0.98700008E+01 -0.56526E+05
 0.99200001E+01 -0.66019E+05
 0.99699993E+01 -0.73951E+05
 0.10020000E+02 -0.80112E+05
 0.10070000E+02 -0.83313E+05
 0.10120001E+02 -0.82993E+05
 0.10170000E+02 -0.80353E+05
 0.10219999E+02 -0.75336E+05
 0.10270000E+02 -0.68639E+05
 0.10320000E+02 -0.60893E+05
 0.10370001E+02 -0.51684E+05
 0.10420000E+02 -0.42433E+05
 0.10469999E+02 -0.33197E+05
 0.10520000E+02 -0.23347E+05
 0.10570000E+02 -0.13604E+05
 0.10620001E+02 -0.54190E+04
 0.10670000E+02  0.11570E+04
 0.10719999E+02  0.69130E+04
 0.10770000E+02  0.10939E+05
 0.10820000E+02  0.13364E+05
 0.10870001E+02  0.14630E+05
 0.10920000E+02  0.14917E+05
 0.10969999E+02  0.14840E+05
 0.11020000E+02  0.14747E+05
 0.11070000E+02  0.15204E+05
 0.11120001E+02  0.16511E+05
 0.11170000E+02  0.18290E+05
 0.11219999E+02  0.19432E+05
 0.11270000E+02  0.19316E+05
 0.11320000E+02  0.18775E+05
 0.11370001E+02  0.18614E+05
 0.11420000E+02  0.18586E+05
 0.11469999E+02  0.18791E+05
 0.11520000E+02  0.19010E+05
 0.11570000E+02  0.18443E+05
 0.11620001E+02  0.17079E+05
 0.11670000E+02  0.15047E+05
 0.11719999E+02  0.13173E+05
 0.11770000E+02  0.12727E+05
 0.11820000E+02  0.13918E+05
 0.11870001E+02  0.15532E+05
 0.11920000E+02  0.16512E+05
 0.11969999E+02  0.16507E+05
 0.12020000E+02  0.15636E+05
 0.12070000E+02  0.15489E+05
 0.12120001E+02  0.16826E+05
 0.12170000E+02  0.19047E+05
 0.12219999E+02  0.21120E+05
 0.12270000E+02  0.21812E+05
 0.12320000E+02  0.21471E+05
 0.12370001E+02  0.20579E+05
 0.12420000E+02  0.18711E+05
 0.12469999E+02  0.16081E+05
 0.12520000E+02  0.13021E+05
 0.12570000E+02  0.93400E+04
 0.12620001E+02  0.49510E+04
 0.12670000E+02  0.85000E+02
 0.12719999E+02 -0.48690E+04
 0.12770000E+02 -0.98160E+04
 0.12820000E+02 -0.15560E+05
 0.12870001E+02 -0.22756E+05
 0.12920000E+02 -0.30074E+05
 0.12969999E+02 -0.36250E+05
 0.13020000E+02 -0.40602E+05
 0.13070000E+02 -0.42700E+05
 0.13120001E+02 -0.44066E+05
 0.13170000E+02 -0.44788E+05
 0.13219999E+02 -0.44283E+05
 0.13270000E+02 -0.42853E+05
 0.13320000E+02 -0.39307E+05
 0.13370001E+02 -0.33986E+05
 0.13420000E+02 -0.26643E+05
 0.13469999E+02 -0.16091E+05
 0.13520000E+02 -0.48410E+04
 0.13570000E+02  0.58670E+04
 0.13620001E+02  0.15526E+05
 0.13670000E+02  0.23404E+05
 0.13719999E+02  0.30398E+05
 0.13770000E+02  0.41719E+05
 0.13820000E+02  0.62416E+05
 0.13870001E+02  0.10514E+06
 0.13920000E+02  0.19503E+06
 0.13969999E+02  0.35664E+06
 0.14020000E+02  0.53590E+06
 0.14070002E+02  0.62471E+06
 0.14120001E+02  0.52832E+06
 0.14170000E+02  0.17506E+06
 0.14220001E+02 -0.34473E+06
 0.14270000E+02 -0.85436E+06
 0.14320002E+02 -0.11618E+07
 0.14370001E+02 -0.13003E+07
 0.14420000E+02 -0.11214E+07
 0.14470001E+02 -0.42026E+06
 0.14520000E+02  0.45964E+06
 0.14570002E+02  0.12507E+07
 0.14620001E+02  0.15203E+07
 0.14670000E+02  0.14590E+07
 0.14720001E+02  0.12049E+07
 0.14770000E+02  0.77500E+06
 0.14820002E+02  0.77384E+06
 0.14870001E+02  0.90029E+06
 0.14920000E+02  0.71337E+06
 0.14970001E+02 -0.46771E+06
 0.15020000E+02 -0.18223E+07
 0.15070002E+02 -0.26590E+07
 0.15120001E+02 -0.39265E+07
 0.15170000E+02 -0.45222E+07
 0.15220001E+02 -0.34196E+07
 0.15270000E+02 -0.14248E+07
 0.15320002E+02 -0.34311E+06
 0.15370001E+02 -0.10186E+07
 0.15420000E+02 -0.12253E+07
 0.15470001E+02  0.67792E+06
 0.15520000E+02  0.23475E+07
 0.15570002E+02  0.28479E+07
 0.15620001E+02  0.34140E+07
 0.15670000E+02  0.35881E+07
 0.15720001E+02  0.30698E+07
 0.15770000E+02  0.14273E+07
 0.15820002E+02  0.18992E+06
 0.15870001E+02  0.30652E+06
 0.15920000E+02  0.80628E+06
 0.15970001E+02  0.10534E+07
 0.16020000E+02 -0.63796E+06
 0.16070002E+02 -0.88124E+06
 0.16120001E+02  0.47397E+06
 0.16170000E+02 -0.18183E+06
 0.16220001E+02 -0.18797E+06
 0.16270000E+02  0.20429E+06
 0.16320002E+02  0.52228E+06
 0.16370001E+02  0.74061E+06
 0.16420000E+02  0.26765E+06
 0.16470001E+02  0.73299E+05
 0.16520000E+02 -0.11997E+07
 0.16570002E+02 -0.25019E+07
 0.16620001E+02 -0.29616E+07
 0.16670000E+02 -0.21677E+07
 0.16720001E+02 -0.15783E+07
 0.16770000E+02 -0.19811E+07
 0.16820002E+02 -0.11448E+07
 0.16870001E+02 -0.69948E+06
 0.16920000E+02 -0.48238E+05
 0.16970001E+02  0.46700E+06
 0.17020000E+02  0.12881E+06
 0.17070002E+02 -0.10460E+06
 0.17120001E+02 -0.20395E+06
 0.17170000E+02  0.79954E+06
 0.17220001E+02  0.10038E+07
 0.17270000E+02  0.88507E+06
 0.17320002E+02  0.15682E+07
 0.17370001E+02  0.17634E+07
 0.17420000E+02  0.13733E+07
 0.17470001E+02  0.12116E+07
 0.17520000E+02  0.83579E+06
 0.17570002E+02 -0.11664E+06
 0.17620001E+02 -0.50203E+06
 0.17670000E+02 -0.99437E+06
 0.17720001E+02 -0.10703E+07
 0.17770000E+02 -0.19631E+06
 0.17820002E+02  0.10435E+07
 0.17870001E+02  0.21907E+07
 0.17920000E+02  0.22973E+07
 0.17970001E+02  0.12046E+07
 0.18020000E+02  0.66231E+06
 0.18070002E+02  0.13045E+07
 0.18120001E+02  0.10521E+07
 0.18170000E+02 -0.59939E+05
 0.18220001E+02 -0.38843E+06
 0.18270000E+02 -0.10743E+05
 0.18320002E+02 -0.79248E+06
 0.18370001E+02 -0.54315E+06
 0.18420000E+02  0.73754E+06
 0.18470001E+02  0.28408E+06
 0.18520000E+02  0.14796E+06
 0.18570002E+02 -0.45565E+06
 0.18620001E+02 -0.12345E+07
 0.18670000E+02 -0.10301E+07
 0.18720001E+02 -0.15989E+07
 0.18770000E+02 -0.23624E+07
 0.18820002E+02 -0.18542E+07
 0.18870001E+02 -0.12806E+07
 0.18920000E+02 -0.90079E+06
 0.18970001E+02  0.37404E+06
 0.19020000E+02  0.57268E+06
 0.19070002E+02  0.15013E+06
 0.19120001E+02  0.41793E+06
 0.19170000E+02  0.72461E+06
 0.19220001E+02  0.12687E+07
 0.19270000E+02  0.15933E+07
 0.19320002E+02  0.57698E+06
 0.19370001E+02 -0.24931E+06
 0.19420000E+02  0.11001E+06
 0.19470001E+02  0.14102E+06
 0.19520000E+02  0.58255E+06
 0.19570002E+02  0.57236E+06
 0.19620001E+02  0.57683E+06
 0.19670000E+02  0.47172E+06
 0.19720001E+02 -0.74609E+06
 0.19770000E+02  0.51073E+06
 0.19820002E+02  0.40200E+06
 0.19870001E+02 -0.12032E+07
 0.19920000E+02 -0.68248E+06
 0.19970001E+02 -0.90764E+06
 0.20020000E+02  0.61183E+06
 0.20070002E+02  0.16627E+07
 0.20120001E+02  0.12325E+07
 0.20170000E+02  0.17391E+07
 0.20220001E+02  0.10806E+07
 0.20270000E+02  0.10913E+07
 0.20320002E+02  0.10695E+07
 0.20370001E+02  0.44178E+06
 0.20420000E+02 -0.20064E+06
 0.20470001E+02 -0.98338E+06
 0.20520000E+02 -0.10034E+07
 0.20570002E+02 -0.36359E+06
 0.20620001E+02 -0.36177E+06
 0.20670000E+02 -0.10766E+07
 0.20720001E+02 -0.42426E+06
 0.20770000E+02 -0.64817E+06
 0.20820002E+02 -0.11636E+06
 0.20870001E+02  0.17328E+07
 0.20920000E+02  0.15574E+07
 0.20970001E+02  0.17423E+07
 0.21020000E+02  0.98137E+06
 0.21070002E+02  0.12249E+06
 0.21120001E+02  0.12858E+07
 0.21170000E+02  0.14618E+07
 0.21220001E+02  0.77636E+06
 0.21270000E+02  0.62029E+05
 0.21320002E+02 -0.38474E+06
 0.21370001E+02 -0.27163E+06
 0.21420000E+02  0.32932E+06
 0.21470001E+02  0.11413E+07
 0.21520000E+02  0.13938E+07
 0.21570002E+02  0.24013E+06
 0.21620001E+02 -0.10644E+07
 0.21670000E+02 -0.32391E+06
 0.21720001E+02 -0.22633E+06
 0.21770000E+02 -0.79209E+06
 0.21820002E+02  0.45612E+06
 0.21870001E+02  0.94326E+06
 0.21920000E+02  0.14383E+06
 0.21970001E+02 -0.55995E+05
 0.22020000E+02  0.69556E+06
 0.22070002E+02  0.20350E+07
 0.22120001E+02  0.25440E+07
 0.22170000E+02  0.21696E+07
 0.22220001E+02  0.13089E+07
 0.22270000E+02  0.76324E+06
 0.22320002E+02  0.85725E+06
 0.22370001E+02  0.42468E+06
 0.22420000E+02  0.89572E+06
 0.22470001E+02  0.10348E+07
 0.22520000E+02  0.19469E+06
 0.22570002E+02 -0.40464E+06
 0.22620001E+02 -0.16156E+07
 0.22670000E+02 -0.10569E+07
 0.22720001E+02  0.56265E+05
 0.22770000E+02 -0.17696E+05
 0.22820002E+02  0.73186E+05
 0.22870001E+02 -0.48417E+06
 0.22920000E+02 -0.77494E+06
 0.22970001E+02 -0.57301E+06
 0.23020000E+02 -0.43948E+06
 0.23070002E+02  0.18531E+06
 0.23120001E+02  0.61058E+06
 0.23170000E+02  0.20458E+06
 0.23220001E+02 -0.32248E+06
 0.23270000E+02 -0.47562E+06
 0.23320002E+02 -0.11065E+07
 0.23370001E+02 -0.25327E+07
 0.23420000E+02 -0.31199E+07
 0.23470001E+02 -0.24936E+07
 0.23520000E+02 -0.18198E+07
 0.23570002E+02 -0.67998E+06
 0.23620001E+02  0.11048E+07
 0.23670000E+02  0.16328E+07
 0.23720001E+02  0.16523E+06
 0.23770000E+02 -0.14141E+06
 0.23820002E+02  0.11961E+07
 0.23870001E+02  0.20451E+07
 0.23920000E+02  0.11071E+07
 0.23970001E+02 -0.35607E+06
 0.24020000E+02 -0.40553E+06
 0.24070002E+02 -0.32504E+07
 0.24120001E+02 -0.64498E+07
 0.24170000E+02 -0.65156E+07
 0.24220001E+02 -0.70988E+07
 0.24270000E+02 -0.78973E+07
 0.24320002E+02 -0.81323E+07
 0.24370001E+02 -0.90161E+07
 0.24420000E+02 -0.93039E+07
 0.24470001E+02 -0.58334E+07
 0.24520000E+02 -0.32461E+07
 0.24570002E+02 -0.10459E+07
 0.24620001E+02  0.64241E+07
 0.24670000E+02  0.12827E+08
 0.24720001E+02  0.16931E+08
 0.24770000E+02  0.18977E+08
 0.24820002E+02  0.15044E+08
 0.24870001E+02  0.98308E+07
 0.24920000E+02  0.47763E+07
 0.24970001E+02  0.15147E+07
 0.25020000E+02  0.17368E+07
 0.25070002E+02 -0.11102E+07
 0.25120001E+02 -0.49427E+07
 0.25170000E+02 -0.48110E+07
 0.25220001E+02 -0.31253E+07
 0.25270000E+02 -0.31239E+06
 0.25320002E+02  0.22762E+07
 0.25370001E+02  0.34805E+07
 0.25420000E+02  0.42472E+07
 0.25470001E+02  0.16371E+07
 0.25520000E+02 -0.30990E+07
 0.25570002E+02 -0.12949E+07
 0.25620001E+02  0.67858E+07
 0.25670000E+02  0.10424E+08
 0.25720001E+02  0.10398E+08
 0.25770000E+02  0.84319E+07
 0.25820002E+02  0.34742E+07
 0.25870001E+02 -0.96662E+06
 0.25920000E+02 -0.11045E+07
 0.25970001E+02  0.64328E+07
 0.26020000E+02  0.10562E+08
 0.26070002E+02  0.74089E+07
 0.26120001E+02  0.24860E+07
 0.26170000E+02 -0.13167E+07
 0.26220001E+02 -0.18547E+07
 0.26270000E+02 -0.44218E+07
 0.26320002E+02 -0.45555E+07
 0.26370001E+02 -0.16486E+07
 0.26420000E+02 -0.19419E+07
 0.26470001E+02 -0.13379E+07
 0.26520000E+02 -0.17912E+06
 0.26570002E+02 -0.65324E+06
 0.26620001E+02 -0.19701E+07
 0.26670000E+02 -0.25852E+07
 0.26720001E+02 -0.96218E+06
 0.26770000E+02 -0.10816E+07
 0.26820002E+02 -0.24343E+07
 0.26870001E+02 -0.15649E+07
 0.26920000E+02 -0.10215E+07
 0.26970001E+02 -0.17211E+06
 0.27020000E+02  0.24171E+07
 0.27070002E+02  0.41422E+07
 0.27120001E+02  0.41287E+07
 0.27170000E+02  0.28699E+07
 0.27220001E+02  0.59794E+06
 0.27270000E+02 -0.26234E+07
 0.27320002E+02 -0.34537E+07
 0.27370001E+02  0.19828E+06
 0.27420000E+02  0.35338E+07
 0.27470001E+02  0.49738E+07
 0.27520000E+02  0.49517E+07
 0.27570002E+02  0.15312E+07
 0.27620001E+02 -0.32354E+07
 0.27670000E+02 -0.51400E+07
 0.27720001E+02 -0.43658E+07
 0.27770000E+02 -0.42634E+07
 0.27820002E+02 -0.40396E+07
 0.27870001E+02 -0.33970E+07
 0.27920000E+02 -0.43051E+07
 0.27970001E+02 -0.58548E+07
 0.28020000E+02 -0.61757E+07
 0.28070002E+02 -0.40443E+07
 0.28120001E+02 -0.20186E+07
 0.28170000E+02 -0.70191E+06
 0.28220001E+02  0.19415E+07
 0.28270000E+02  0.38645E+07
 0.28320002E+02  0.32838E+07
 0.28370001E+02  0.10201E+07
 0.28420000E+02  0.54775E+06
 0.28470001E+02  0.29382E+07
 0.28520000E+02  0.67609E+07
 0.28570002E+02  0.10849E+08
 0.28620001E+02  0.11494E+08
 0.28670000E+02  0.93286E+07
 0.28720001E+02  0.64790E+07
 0.28770000E+02  0.30615E+07
 0.28820002E+02  0.74336E+06
 0.28870001E+02 -0.90857E+06
 0.28920000E+02 -0.18940E+07
 0.28970001E+02 -0.18401E+07
 0.29020000E+02 -0.12333E+07
 0.29070002E+02 -0.41084E+06
 0.29120001E+02 -0.97246E+06
 0.29170000E+02 -0.99036E+06
 0.29220001E+02  0.10027E+07
 0.29270000E+02  0.24326E+07
 0.29320002E+02  0.34937E+07
 0.29370001E+02  0.40133E+07
 0.29420000E+02  0.26251E+07
 0.29470001E+02  0.11773E+07
 0.29520000E+02  0.15777E+07
 0.29570002E+02  0.26791E+07
 0.29620001E+02  0.27495E+07
 0.29670000E+02  0.18867E+07
 0.29720001E+02  0.36298E+05
 0.29770000E+02 -0.17749E+07
 0.29820002E+02 -0.22002E+07
 0.29870001E+02 -0.18013E+07
 0.29920000E+02  0.97134E+05
 0.29970001E+02  0.23480E+07
 0.30020000E+02  0.30520E+07
 0.30070000E+02  0.30247E+07
 0.30120003E+02  0.30580E+07
 0.30170002E+02  0.38069E+07
 0.30220001E+02  0.43933E+07
 0.30270000E+02  0.47510E+07
 0.30320000E+02  0.50133E+07
 0.30370003E+02  0.40465E+07
 0.30420002E+02  0.25793E+07
 0.30470001E+02  0.50404E+06
 0.30520000E+02 -0.16060E+07
 0.30570000E+02 -0.20431E+07
 0.30620003E+02 -0.20823E+07
 0.30670002E+02 -0.22795E+07
 0.30720001E+02 -0.19665E+07
 0.30770000E+02 -0.28831E+07
 0.30820000E+02 -0.41591E+07
 0.30870003E+02 -0.31942E+07
 0.30920002E+02 -0.54310E+06
 0.30970001E+02  0.19705E+07
 0.31020000E+02  0.22322E+07
 0.31070000E+02  0.82358E+06
 0.31120003E+02 -0.58442E+06
 0.31170002E+02 -0.12901E+07
 0.31220001E+02 -0.12555E+07
 0.31270000E+02 -0.64055E+06
 0.31320000E+02  0.12995E+07
 0.31370003E+02  0.32544E+07
 0.31420002E+02  0.45686E+07
 0.31470001E+02  0.46449E+07
 0.31520000E+02  0.28502E+07
 0.31570000E+02  0.93172E+06
 0.31620003E+02 -0.63371E+05
 0.31670002E+02  0.42179E+06
 0.31720001E+02  0.21062E+07
 0.31770000E+02  0.37968E+07
 0.31820000E+02  0.44863E+07
 0.31870003E+02  0.43881E+07
 0.31920002E+02  0.36936E+07
 0.31970001E+02  0.24167E+07
 0.32020000E+02  0.22602E+07
 0.32070000E+02  0.29804E+07
 0.32120003E+02  0.25735E+07
 0.32170002E+02  0.84272E+06
 0.32220001E+02 -0.13235E+07
 0.32270000E+02 -0.31913E+07
 0.32320000E+02 -0.39531E+07
 0.32370003E+02 -0.31319E+07
 0.32420002E+02 -0.20882E+07
 0.32470001E+02 -0.14221E+07
 0.32520000E+02 -0.62704E+06
 0.32570000E+02  0.44450E+06
 0.32620003E+02  0.17898E+07
 0.32670002E+02  0.20491E+07
 0.32720001E+02  0.16059E+07
 0.32770000E+02  0.93791E+06
 0.32820000E+02 -0.37790E+06
 0.32870003E+02 -0.14993E+07
 0.32920002E+02 -0.23300E+07
 0.32970001E+02 -0.20455E+07
 0.33020000E+02 -0.78177E+06
 0.33070000E+02  0.77367E+06
 0.33120003E+02  0.26155E+07
 0.33170002E+02  0.31185E+07
 0.33220001E+02  0.24692E+07
 0.33270000E+02  0.21103E+07
 0.33320000E+02  0.20152E+07
 0.33370003E+02  0.26085E+07
 0.33420002E+02  0.36702E+07
 0.33470001E+02  0.34150E+07
 0.33520000E+02  0.16725E+07
 0.33570000E+02  0.45410E+04
 0.33620003E+02 -0.12352E+07
 0.33670002E+02 -0.31786E+07
 0.33720001E+02 -0.47650E+07
 0.33770000E+02 -0.46838E+07
 0.33820000E+02 -0.53618E+07
 0.33870003E+02 -0.63587E+07
 0.33920002E+02 -0.63972E+07
 0.33970001E+02 -0.73744E+07
 0.34020000E+02 -0.79034E+07
 0.34070000E+02 -0.72864E+07
 0.34120003E+02 -0.69982E+07
 0.34170002E+02 -0.63514E+07
 0.34220001E+02 -0.57019E+07
 0.34270000E+02 -0.50437E+07
 0.34320000E+02 -0.33089E+07
 0.34370003E+02 -0.16439E+07
 0.34420002E+02 -0.36913E+06
 0.34470001E+02  0.29820E+06
 0.34520000E+02 -0.11286E+07
 0.34570000E+02 -0.30008E+07
 0.34620003E+02 -0.31678E+07
 0.34670002E+02 -0.22066E+07
 0.34720001E+02 -0.14272E+07
 0.34770000E+02 -0.13872E+07
 0.34820000E+02 -0.16094E+07
 0.34870003E+02 -0.19843E+07
 0.34920002E+02 -0.26533E+07
 0.34970001E+02 -0.27602E+07
 0.35020000E+02 -0.14488E+07
 0.35070000E+02  0.36916E+06
 0.35120003E+02  0.16171E+07
 0.35170002E+02  0.17715E+07
 0.35220001E+02  0.72979E+06
 0.35270000E+02 -0.95048E+05
 0.35320000E+02 -0.21354E+06
 0.35370003E+02 -0.56287E+06
 0.35420002E+02 -0.12667E+07
 0.35470001E+02 -0.22325E+07
 0.35520000E+02 -0.32781E+07
 0.35570000E+02 -0.29236E+07
 0.35620003E+02 -0.19783E+07
 0.35670002E+02 -0.25864E+07
 0.35720001E+02 -0.32792E+07
 0.35770000E+02 -0.34180E+07
 0.35820000E+02 -0.37625E+07
 0.35870003E+02 -0.28648E+07
 0.35920002E+02 -0.11820E+07
 0.35970001E+02 -0.38542E+06
 0.36020000E+02  0.74821E+06
 0.36070000E+02  0.21409E+07
 0.36120003E+02  0.19253E+07
 0.36170002E+02  0.12732E+07
 0.36220001E+02  0.13259E+07
 0.36270000E+02  0.64298E+06
 0.36320000E+02 -0.38749E+06
 0.36370003E+02 -0.10415E+07
 0.36420002E+02 -0.16094E+07
 0.36470001E+02 -0.16601E+07
 0.36520000E+02 -0.12589E+07
 0.36570000E+02  0.29813E+06
 0.36620003E+02  0.22999E+07
 0.36670002E+02  0.33604E+07
 0.36720001E+02  0.44556E+07
 0.36770000E+02  0.51262E+07
 0.36820000E+02  0.43880E+07
 0.36870003E+02  0.25951E+07
 0.36920002E+02  0.87542E+06
 0.36970001E+02  0.69588E+06
 0.37020000E+02  0.17424E+07
 0.37070000E+02  0.23395E+07
 0.37120003E+02  0.20514E+07
 0.37170002E+02  0.14978E+07
 0.37220001E+02  0.36895E+06
 0.37270000E+02 -0.69262E+06
 0.37320000E+02 -0.10869E+07
 0.37370003E+02 -0.12792E+07
 0.37420002E+02 -0.89390E+06
 0.37470001E+02 -0.62532E+06
 0.37520000E+02 -0.73516E+06
 0.37570000E+02 -0.56461E+06
 0.37620003E+02 -0.45149E+06
 0.37670002E+02 -0.13367E+05
 0.37720001E+02  0.71441E+06
 0.37770000E+02  0.10008E+07
 0.37820000E+02  0.11045E+07
 0.37870003E+02  0.72759E+06
 0.37920002E+02 -0.13755E+06
 0.37970001E+02 -0.89656E+06
 0.38020000E+02 -0.16383E+07
 0.38070000E+02 -0.18372E+07
 0.38120003E+02 -0.12293E+07
 0.38170002E+02 -0.47008E+06
 0.38220001E+02  0.28990E+06
 0.38270000E+02  0.90342E+06
 0.38320000E+02  0.59840E+06
 0.38370003E+02 -0.15299E+06
 0.38420002E+02 -0.54281E+06
 0.38470001E+02 -0.11283E+07
 0.38520000E+02 -0.16497E+07
 0.38570000E+02 -0.15545E+07
 0.38620003E+02 -0.98627E+06
 0.38670002E+02 -0.20161E+05
 0.38720001E+02  0.57800E+06
 0.38770000E+02  0.44648E+06
 0.38820000E+02  0.90385E+05
 0.38870003E+02 -0.74241E+06
 0.38920002E+02 -0.14304E+07
 0.38970001E+02 -0.14453E+07
 0.39020000E+02 -0.14678E+07
 0.39070000E+02 -0.12990E+07
 0.39120003E+02 -0.12278E+07
 0.39170002E+02 -0.15256E+07
 0.39220001E+02 -0.16828E+07
 0.39270000E+02 -0.15197E+07
 0.39320000E+02 -0.11750E+07
 0.39370003E+02 -0.78226E+06
 0.39420002E+02 -0.57272E+06
 0.39470001E+02 -0.95466E+06
 0.39520000E+02 -0.14919E+07
 0.39570000E+02 -0.17565E+07
 0.39620003E+02 -0.18339E+07
 0.39670002E+02 -0.15444E+07
 0.39720001E+02 -0.84405E+06
 0.39770000E+02 -0.16470E+06
 0.39820000E+02  0.24569E+06
 0.39870003E+02  0.52713E+06
 0.39920002E+02  0.56610E+06
 0.39970001E+02  0.47780E+06
 0.40020000E+02  0.66769E+06
 0.40070000E+02  0.61523E+06
 0.40120003E+02  0.15353E+06
 0.40170002E+02 -0.64683E+05
 0.40220001E+02 -0.24800E+06
 0.40270000E+02 -0.11920E+06
 0.40320000E+02  0.45146E+06
 0.40370003E+02  0.13252E+07
 0.40420002E+02  0.25299E+07
 0.40470001E+02  0.31762E+07
 0.40520000E+02  0.33970E+07
 0.40570000E+02  0.30940E+07
 0.40620003E+02  0.24198E+07
 0.40670002E+02  0.24431E+07
 0.40720001E+02  0.28107E+07
 0.40770000E+02  0.32096E+07
 0.40820000E+02  0.34567E+07
 0.40870003E+02  0.36242E+07
 0.40920002E+02  0.37479E+07
 0.40970001E+02  0.33285E+07
 0.41020000E+02  0.26927E+07
 0.41070000E+02  0.19965E+07
 0.41120003E+02  0.92427E+06
 0.41170002E+02 -0.32290E+06
 0.41220001E+02 -0.11711E+07
 0.41270000E+02 -0.17249E+07
 0.41320000E+02 -0.20476E+07
 0.41370003E+02 -0.18610E+07
 0.41420002E+02 -0.13873E+07
 0.41470001E+02 -0.75252E+06
 0.41520000E+02 -0.66475E+06
 0.41570000E+02 -0.98184E+06
 0.41620003E+02 -0.94172E+06
 0.41670002E+02 -0.13316E+07
 0.41720001E+02 -0.20876E+07
 0.41770000E+02 -0.24469E+07
 0.41820000E+02 -0.25195E+07
 0.41870003E+02 -0.23564E+07
 0.41920002E+02 -0.18649E+07
 0.41970001E+02 -0.14477E+07
 0.42020000E+02 -0.14849E+07
 0.42070000E+02 -0.14432E+07
 0.42120003E+02 -0.10861E+07
 0.42170002E+02 -0.88458E+06
 0.42220001E+02 -0.95693E+06
 0.42270000E+02 -0.10847E+07
 0.42320000E+02 -0.13606E+07
 0.42370003E+02 -0.16325E+07
 0.42420002E+02 -0.12390E+07
 0.42470001E+02 -0.63063E+06
 0.42520000E+02 -0.31564E+06
 0.42570000E+02  0.17478E+06
 0.42620003E+02  0.69809E+06
 0.42670002E+02  0.80014E+06
 0.42720001E+02  0.66117E+06
 0.42770000E+02  0.65089E+06
 0.42820000E+02  0.50262E+06
 0.42870003E+02 -0.37825E+05
 0.42920002E+02 -0.40108E+06
 0.42970001E+02 -0.62812E+06
 0.43020000E+02 -0.79132E+06
 0.43070000E+02 -0.43704E+06
 0.43120003E+02 -0.39179E+05
 0.43170002E+02  0.28010E+06
 0.43220001E+02  0.69472E+06
 0.43270000E+02  0.99420E+06
 0.43320000E+02  0.10806E+07
 0.43370003E+02  0.70473E+06
 0.43420002E+02  0.16541E+05
 0.43470001E+02 -0.65580E+06
 0.43520000E+02 -0.10365E+07
 0.43570000E+02 -0.10809E+07
 0.43620003E+02 -0.10936E+07
 0.43670002E+02 -0.11869E+07
 0.43720001E+02 -0.12134E+07
 0.43770000E+02 -0.11025E+07
 0.43820000E+02 -0.97033E+06
 0.43870003E+02 -0.69861E+06
 0.43920002E+02 -0.42890E+06
 0.43970001E+02 -0.17657E+06
 0.44020000E+02  0.40811E+05
 0.44070000E+02 -0.22624E+06
 0.44120003E+02 -0.54430E+06
 0.44170002E+02 -0.55655E+06
 0.44220001E+02 -0.32227E+06
 0.44270000E+02  0.23262E+06
 0.44320000E+02  0.81875E+06
 0.44370003E+02  0.14037E+07
 0.44420002E+02  0.17813E+07
 0.44470001E+02  0.17198E+07
 0.44520000E+02  0.15239E+07
 0.44570000E+02  0.12402E+07
 0.44620003E+02  0.91874E+06
 0.44670002E+02  0.58085E+06
 0.44720001E+02  0.21547E+06
 0.44770000E+02  0.18032E+06
 0.44820000E+02  0.37585E+06
 0.44870003E+02  0.48526E+06
 0.44920002E+02  0.33743E+06
 0.44970001E+02 -0.23133E+06
 0.45020000E+02 -0.80173E+06
 0.45070000E+02 -0.90956E+06
 0.45120003E+02 -0.58853E+06
 0.45170002E+02 -0.22776E+06
 0.45220001E+02 -0.11759E+06
 0.45270000E+02 -0.30671E+06
 0.45320000E+02 -0.29109E+06
 0.45370003E+02  0.18464E+06
 0.45420002E+02  0.55576E+06
 0.45470001E+02  0.80470E+06
 0.45520000E+02  0.73131E+06
 0.45570000E+02  0.33601E+06
 0.45620003E+02  0.78705E+05
 0.45670002E+02 -0.95465E+05
 0.45720001E+02 -0.11650E+05
 0.45770000E+02  0.29878E+06
 0.45820000E+02  0.32804E+06
 0.45870003E+02  0.32030E+06
 0.45920002E+02  0.63054E+06
 0.45970001E+02  0.73794E+06
 0.46020000E+02  0.66943E+06
 0.46070000E+02  0.75873E+06
 0.46120003E+02  0.93393E+06
 0.46170002E+02  0.11121E+07
 0.46220001E+02  0.13134E+07
 0.46270000E+02  0.15370E+07
 0.46320000E+02  0.13121E+07
 0.46370003E+02  0.80519E+06
 0.46420002E+02  0.48530E+06
 0.46470001E+02  0.25098E+06
 0.46520000E+02  0.20169E+06
 0.46570000E+02  0.27205E+06
 0.46620003E+02 -0.22540E+04
 0.46670002E+02 -0.46331E+06
 0.46720001E+02 -0.62998E+06
 0.46770000E+02 -0.84788E+06
 0.46820000E+02 -0.11787E+07
 0.46870003E+02 -0.14313E+07
 0.46920002E+02 -0.17813E+07
 0.46970001E+02 -0.19278E+07
 0.47020000E+02 -0.19156E+07
 0.47070000E+02 -0.21236E+07
 0.47120003E+02 -0.24148E+07
 0.47170002E+02 -0.26138E+07
 0.47220001E+02 -0.26914E+07
 0.47270000E+02 -0.26049E+07
 0.47320000E+02 -0.24054E+07
 0.47370003E+02 -0.21722E+07
 0.47420002E+02 -0.18868E+07
 0.47470001E+02 -0.14172E+07
 0.47520000E+02 -0.89604E+06
 0.47570000E+02 -0.58983E+06
 0.47620003E+02 -0.16007E+06
 0.47670002E+02  0.36941E+06
 0.47720001E+02  0.68384E+06
 0.47770000E+02  0.96404E+06
 0.47820000E+02  0.98757E+06
 0.47870003E+02  0.87546E+06
 0.47920002E+02  0.88551E+06
 0.47970001E+02  0.52849E+06
 0.48020000E+02  0.33188E+05
 0.48070000E+02 -0.90028E+05
 0.48120003E+02  0.11504E+05
 0.48170002E+02  0.15444E+06
 0.48220001E+02  0.19698E+06
 0.48270000E+02  0.10390E+06
 0.48320000E+02  0.10600E+06
 0.48370003E+02  0.34805E+06
 0.48420002E+02  0.64394E+06
 0.48470001E+02  0.91950E+06
 0.48520000E+02  0.10691E+07
 0.48570000E+02  0.11823E+07
 0.48620003E+02  0.14582E+07
 0.48670002E+02  0.14709E+07
 0.48720001E+02  0.11751E+07
 0.48770000E+02  0.77560E+06
 0.48820000E+02  0.25168E+06
 0.48870003E+02 -0.26667E+06
 0.48920002E+02 -0.55061E+06
 0.48970001E+02 -0.53122E+06
 0.49020000E+02 -0.56523E+06
 0.49070000E+02 -0.68660E+06
 0.49120003E+02 -0.92100E+06
 0.49170002E+02 -0.13168E+07
 0.49220001E+02 -0.15018E+07
 0.49270000E+02 -0.15148E+07
 0.49320000E+02 -0.15336E+07
 0.49370003E+02 -0.15919E+07
 0.49420002E+02 -0.17136E+07
 0.49470001E+02 -0.17355E+07
 0.49520000E+02 -0.16885E+07
 0.49570000E+02 -0.16285E+07
 0.49620003E+02 -0.14577E+07
 0.49670002E+02 -0.12504E+07
 0.49720001E+02 -0.11051E+07
 0.49770000E+02 -0.10739E+07
 0.49820000E+02 -0.10703E+07
 0.49870003E+02 -0.96298E+06
 0.49920002E+02 -0.74096E+06
 0.49970001E+02 -0.49142E+06
 0.50020000E+02 -0.22932E+06
 0.50070000E+02  0.61385E+05
 0.50120003E+02  0.30996E+06
 0.50170002E+02  0.58752E+06
 0.50220001E+02  0.86821E+06
 0.50270000E+02  0.11120E+07
 0.50320000E+02  0.12107E+07
 0.50370003E+02  0.11995E+07
 0.50420002E+02  0.13371E+07
 0.50470001E+02  0.15103E+07
 0.50520000E+02  0.17989E+07
 0.50570000E+02  0.22186E+07
 0.50620003E+02  0.25203E+07
 0.50670002E+02  0.27077E+07
 0.50720001E+02  0.27173E+07
 0.50770000E+02  0.26230E+07
 0.50820000E+02  0.24863E+07
 0.50870003E+02  0.21031E+07
 0.50920002E+02  0.14387E+07
 0.50970001E+02  0.78068E+06
 0.51020000E+02  0.29414E+06
 0.51070000E+02 -0.95818E+05
 0.51120003E+02 -0.37918E+06
 0.51170002E+02 -0.63963E+06
 0.51220001E+02 -0.87732E+06
 0.51270000E+02 -0.10468E+07
 0.51320000E+02 -0.11716E+07
 0.51370003E+02 -0.12393E+07
 0.51420002E+02 -0.13542E+07
 0.51470001E+02 -0.14796E+07
 0.51520000E+02 -0.15117E+07
 0.51570000E+02 -0.14604E+07
 0.51620003E+02 -0.12814E+07
 0.51670002E+02 -0.10845E+07
 0.51720001E+02 -0.11189E+07
 0.51770000E+02 -0.10931E+07
 0.51820000E+02 -0.82017E+06
 0.51870003E+02 -0.64982E+06
 0.51920002E+02 -0.50781E+06
 0.51970001E+02 -0.35213E+06
 0.52020000E+02 -0.18816E+06
 0.52070000E+02  0.11077E+06
 0.52120003E+02  0.43344E+06
 0.52170002E+02  0.77501E+06
 0.52220001E+02  0.10271E+07
 0.52270000E+02  0.10834E+07
 0.52320000E+02  0.10384E+07
 0.52370003E+02  0.95363E+06
 0.52420002E+02  0.77161E+06
 0.52470001E+02  0.61401E+06
 0.52520000E+02  0.51299E+06
 0.52570000E+02  0.33131E+06
 0.52620003E+02  0.24505E+06
 0.52670002E+02  0.95391E+05
 0.52720001E+02 -0.15749E+06
 0.52770000E+02 -0.38653E+06
 0.52820000E+02 -0.64512E+06
 0.52870003E+02 -0.83834E+06
 0.52920002E+02 -0.10514E+07
 0.52970001E+02 -0.12582E+07
 0.53020000E+02 -0.14930E+07
 0.53070000E+02 -0.15863E+07
 0.53120003E+02 -0.14171E+07
 0.53170002E+02 -0.12155E+07
 0.53220001E+02 -0.94600E+06
 0.53270000E+02 -0.80038E+06
 0.53320000E+02 -0.69161E+06
 0.53370003E+02 -0.41589E+06
 0.53420002E+02 -0.19558E+06
 0.53470001E+02 -0.21701E+05
 0.53520000E+02 -0.15901E+05
 0.53570000E+02 -0.20318E+06
 0.53620003E+02 -0.25420E+06
 0.53670002E+02 -0.15995E+06
 0.53720001E+02 -0.71171E+05
 0.53770000E+02  0.12917E+05
 0.53820000E+02  0.44867E+05
 0.53870003E+02 -0.56138E+05
 0.53920002E+02 -0.25134E+06
 0.53970001E+02 -0.53329E+06
 0.54020000E+02 -0.77345E+06
 0.54070000E+02 -0.94319E+06
 0.54120003E+02 -0.12289E+07
 0.54170002E+02 -0.14354E+07
 0.54220001E+02 -0.14462E+07
 0.54270000E+02 -0.13021E+07
 0.54320000E+02 -0.10399E+07
 0.54370003E+02 -0.89990E+06
 0.54420002E+02 -0.88959E+06
 0.54470001E+02 -0.81613E+06
 0.54520000E+02 -0.49978E+06
 0.54570000E+02  0.15397E+05
 0.54620003E+02  0.56413E+06
 0.54670002E+02  0.11000E+07
 0.54720001E+02  0.14865E+07
 0.54770000E+02  0.16778E+07
 0.54820000E+02  0.17746E+07
 0.54870003E+02  0.17993E+07
 0.54920002E+02  0.18285E+07
 0.54970001E+02  0.19282E+07
 0.55020000E+02  0.20684E+07
 0.55070000E+02  0.22443E+07
 0.55120003E+02  0.24231E+07
 0.55170002E+02  0.24986E+07
 0.55220001E+02  0.23279E+07
 0.55270000E+02  0.19202E+07
 0.55320000E+02  0.14220E+07
 0.55370003E+02  0.85661E+06
 0.55420002E+02  0.28645E+06
 0.55470001E+02 -0.15203E+06
 0.55520000E+02 -0.63290E+06
 0.55570000E+02 -0.12382E+07
 0.55620003E+02 -0.17386E+07
 0.55670002E+02 -0.21480E+07
 0.55720001E+02 -0.25154E+07
 0.55770000E+02 -0.26935E+07
 0.55820000E+02 -0.27829E+07
 0.55870003E+02 -0.30087E+07
 0.55920002E+02 -0.32869E+07
 0.55970001E+02 -0.34839E+07
 0.56020000E+02 -0.35537E+07
 0.56070000E+02 -0.33982E+07
 0.56120003E+02 -0.29472E+07
 0.56170002E+02 -0.22949E+07
 0.56220001E+02 -0.17242E+07
 0.56270000E+02 -0.13011E+07
 0.56320000E+02 -0.94900E+06
 0.56370003E+02 -0.69433E+06
 0.56420002E+02 -0.40860E+06
 0.56470001E+02 -0.65435E+05
 0.56520000E+02  0.26457E+06
 0.56570000E+02  0.61360E+06
 0.56620003E+02  0.96498E+06
 0.56670002E+02  0.13005E+07
 0.56720001E+02  0.15673E+07
 0.56770000E+02  0.18239E+07
 0.56820000E+02  0.21307E+07
 0.56870003E+02  0.22864E+07
 0.56920002E+02  0.22791E+07
 0.56970001E+02  0.23117E+07
 0.57020000E+02  0.23364E+07
 0.57070000E+02  0.23129E+07
 0.57120003E+02  0.23220E+07
 0.57170002E+02  0.21785E+07
 0.57220001E+02  0.18136E+07
 0.57270000E+02  0.14193E+07
 0.57320000E+02  0.98048E+06
 0.57370003E+02  0.56798E+06
 0.57420002E+02  0.26378E+06
 0.57470001E+02 -0.87047E+05
 0.57520000E+02 -0.52416E+06
 0.57570000E+02 -0.11068E+07
 0.57620003E+02 -0.17516E+07
 0.57670002E+02 -0.21087E+07
 0.57720001E+02 -0.21752E+07
 0.57770000E+02 -0.22100E+07
 0.57820000E+02 -0.22937E+07
 0.57870003E+02 -0.23347E+07
 0.57920002E+02 -0.23022E+07
 0.57970001E+02 -0.22173E+07
 0.58020000E+02 -0.20000E+07
 0.58070000E+02 -0.16609E+07
 0.58120003E+02 -0.12739E+07
 0.58170002E+02 -0.86599E+06
 0.58220001E+02 -0.43290E+06
 0.58270000E+02  0.40200E+03
 0.58320000E+02  0.29022E+06
 0.58370003E+02  0.44731E+06
 0.58420002E+02  0.50842E+06
 0.58470001E+02  0.43039E+06
 0.58520000E+02  0.44413E+06
 0.58570000E+02  0.56579E+06
 0.58620003E+02  0.67088E+06
 0.58670002E+02  0.94211E+06
 0.58720001E+02  0.12926E+07
 0.58770000E+02  0.15356E+07
 0.58820000E+02  0.16473E+07
 0.58870003E+02  0.16353E+07
 0.58920002E+02  0.15383E+07
 0.58970001E+02  0.13297E+07
 0.59020000E+02  0.11503E+07
 0.59070000E+02  0.10555E+07
 0.59120003E+02  0.90654E+06
 0.59170002E+02  0.73040E+06
 0.59220001E+02  0.56636E+06
 0.59270000E+02  0.39475E+06
 0.59320000E+02  0.20269E+06
 0.59370003E+02  0.10613E+06
 0.59420002E+02  0.21319E+06
 0.59470001E+02  0.30874E+06
 0.59520000E+02  0.30498E+06
 0.59570000E+02  0.26578E+06
 0.59620003E+02  0.10457E+06
 0.59670002E+02 -0.10312E+06
 0.59720001E+02 -0.23608E+06
 0.59770000E+02 -0.34120E+06
 0.59820000E+02 -0.41722E+06
 0.59870003E+02 -0.42973E+06
 0.59920002E+02 -0.53448E+06
 0.59970001E+02 -0.79771E+06
 0.60020000E+02 -0.10688E+07
 0.60070000E+02 -0.12325E+07
 0.60120003E+02 -0.12616E+07
 0.60170002E+02 -0.12363E+07
 0.60220001E+02 -0.11447E+07
 0.60270000E+02 -0.97839E+06
 0.60320000E+02 -0.85675E+06
 0.60370003E+02 -0.82241E+06
 0.60420002E+02 -0.86062E+06
 0.60470001E+02 -0.92058E+06
 0.60520000E+02 -0.99557E+06
 0.60570000E+02 -0.10929E+07
 0.60620003E+02 -0.11200E+07
 0.60670002E+02 -0.10545E+07
 0.60720001E+02 -0.83086E+06
 0.60770000E+02 -0.39238E+06
 0.60820000E+02  0.67843E+05
 0.60870003E+02  0.43799E+06
 0.60920002E+02  0.69018E+06
 0.60970001E+02  0.82039E+06
 0.61020000E+02  0.88923E+06
 0.61070000E+02  0.83798E+06
 0.61120003E+02  0.67789E+06
 0.61170002E+02  0.52846E+06
 0.61220001E+02  0.42200E+06
 0.61270000E+02  0.30266E+06
 0.61320000E+02  0.12353E+06
 0.61370003E+02 -0.11624E+06
 0.61420002E+02 -0.31063E+06
 0.61470001E+02 -0.45828E+06
 0.61520000E+02 -0.66188E+06
 0.61570000E+02 -0.74290E+06
 0.61620003E+02 -0.63275E+06
 0.61670002E+02 -0.48359E+06
 0.61720001E+02 -0.39550E+06
 0.61770000E+02 -0.45039E+06
 0.61820000E+02 -0.59229E+06
 0.61870003E+02 -0.63353E+06
 0.61920002E+02 -0.52916E+06
 0.61970001E+02 -0.44886E+06
 0.62020000E+02 -0.40888E+06
 0.62070004E+02 -0.34138E+06
 0.62119999E+02 -0.25297E+06
 0.62170002E+02 -0.15604E+06
 0.62220005E+02 -0.12763E+06
 0.62270000E+02 -0.23112E+06
 0.62320004E+02 -0.42939E+06
 0.62369999E+02 -0.57618E+06
 0.62420002E+02 -0.66072E+06
 0.62470005E+02 -0.70135E+06
 0.62520000E+02 -0.59493E+06
 0.62570004E+02 -0.39380E+06
 0.62619999E+02 -0.13133E+06
 0.62670002E+02  0.15778E+06
 0.62720005E+02  0.31288E+06
 0.62770000E+02  0.37187E+06
 0.62820004E+02  0.43663E+06
 0.62869999E+02  0.45410E+06
 0.62920002E+02  0.45392E+06
 0.62970005E+02  0.50404E+06
 0.63020000E+02  0.53868E+06
 0.63070004E+02  0.49614E+06
 0.63119999E+02  0.37947E+06
 0.63170002E+02  0.21010E+06
 0.63220005E+02  0.31493E+05
 0.63270000E+02 -0.86796E+05
 0.63320004E+02 -0.13342E+06
 0.63369999E+02 -0.97028E+05
 0.63420002E+02  0.58424E+05
 0.63470005E+02  0.23272E+06
 0.63520000E+02  0.41681E+06
 0.63570004E+02  0.63421E+06
 0.63619999E+02  0.77302E+06
 0.63670002E+02  0.82956E+06
 0.63720005E+02  0.75151E+06
 0.63770000E+02  0.53435E+06
 0.63820004E+02  0.27101E+06
 0.63869999E+02 -0.64124E+05
 0.63920002E+02 -0.43802E+06
 0.63970005E+02 -0.74680E+06
 0.64019997E+02 -0.94886E+06
 0.64070000E+02 -0.10670E+07
 0.64119995E+02 -0.10765E+07
 0.64169998E+02 -0.10107E+07
 0.64220001E+02 -0.96844E+06
 0.64269997E+02 -0.93926E+06
 0.64320000E+02 -0.82701E+06
 0.64369995E+02 -0.57516E+06
 0.64419998E+02 -0.27309E+06
 0.64470001E+02 -0.21971E+05
 0.64519997E+02  0.17520E+06
 0.64570000E+02  0.34435E+06
 0.64619995E+02  0.52660E+06
 0.64669998E+02  0.80434E+06
 0.64720001E+02  0.10473E+07
 0.64769997E+02  0.10739E+07
 0.64820000E+02  0.95236E+06
 0.64869995E+02  0.69551E+06
 0.64919998E+02  0.40728E+06
 0.64970001E+02  0.25633E+06
 0.65019997E+02  0.16734E+06
 0.65070000E+02  0.92045E+05
 0.65119995E+02  0.16509E+05
 0.65169998E+02 -0.87188E+05
 0.65220001E+02 -0.13575E+06
 0.65269997E+02 -0.78469E+05
 0.65320000E+02  0.46023E+05
 0.65369995E+02  0.14329E+06
 0.65419998E+02  0.17737E+06
 0.65470001E+02  0.16258E+06
 0.65519997E+02  0.57751E+05
 0.65570000E+02 -0.81951E+05
 0.65619995E+02 -0.25855E+06
 0.65669998E+02 -0.51455E+06
 0.65720001E+02 -0.72677E+06
 0.65769997E+02 -0.86781E+06
 0.65820000E+02 -0.97535E+06
 0.65869995E+02 -0.97757E+06
 0.65919998E+02 -0.86958E+06
 0.65970001E+02 -0.73109E+06
 0.66019997E+02 -0.53681E+06
 0.66070000E+02 -0.29758E+06
 0.66119995E+02 -0.11836E+06
 0.66169998E+02 -0.14973E+05
 0.66220001E+02  0.19662E+05
 0.66269997E+02  0.42920E+05
 0.66320000E+02  0.13157E+06
 0.66369995E+02  0.22913E+06
 0.66419998E+02  0.29275E+06
 0.66470001E+02  0.37589E+06
 0.66519997E+02  0.44889E+06
 0.66570000E+02  0.44188E+06
 0.66619995E+02  0.39414E+06
 0.66669998E+02  0.32715E+06
 0.66720001E+02  0.26918E+06
 0.66769997E+02  0.30523E+06
 0.66820000E+02  0.42007E+06
 0.66869995E+02  0.53336E+06
 0.66919998E+02  0.59057E+06
 0.66970001E+02  0.59187E+06
 0.67019997E+02  0.55248E+06
 0.67070000E+02  0.48014E+06
 0.67119995E+02  0.38545E+06
 0.67169998E+02  0.23622E+06
 0.67220001E+02  0.37993E+05
 0.67269997E+02 -0.17294E+06
 0.67320000E+02 -0.33082E+06
 0.67369995E+02 -0.35969E+06
 0.67419998E+02 -0.33787E+06
 0.67470001E+02 -0.33006E+06
 0.67519997E+02 -0.33379E+06
 0.67570000E+02 -0.37821E+06
 0.67619995E+02 -0.41387E+06
 0.67669998E+02 -0.40346E+06
 0.67720001E+02 -0.35473E+06
 0.67769997E+02 -0.27014E+06
 0.67820000E+02 -0.18953E+06
 0.67869995E+02 -0.14471E+06
 0.67919998E+02 -0.19397E+06
 0.67970001E+02 -0.45050E+06
 0.68019997E+02 -0.81826E+06
 0.68070000E+02 -0.10753E+07
 0.68119995E+02 -0.12250E+07
 0.68169998E+02 -0.12824E+07
 0.68220001E+02 -0.12213E+07
 0.68269997E+02 -0.11374E+07
 0.68320000E+02 -0.10677E+07
 0.68369995E+02 -0.97840E+06
 0.68419998E+02 -0.89780E+06
 0.68470001E+02 -0.84042E+06
 0.68519997E+02 -0.76918E+06
 0.68570000E+02 -0.64189E+06
 0.68619995E+02 -0.44120E+06
 0.68669998E+02 -0.23084E+06
 0.68720001E+02 -0.87657E+05
 0.68769997E+02 -0.64560E+04
 0.68820000E+02  0.38398E+05
 0.68869995E+02  0.80424E+05
 0.68919998E+02  0.16757E+06
 0.68970001E+02  0.27454E+06
 0.69019997E+02  0.38641E+06
 0.69070000E+02  0.51110E+06
 0.69119995E+02  0.61853E+06
 0.69169998E+02  0.68639E+06
 0.69220001E+02  0.67524E+06
 0.69269997E+02  0.62223E+06
 0.69320000E+02  0.56662E+06
 0.69369995E+02  0.50670E+06
 0.69419998E+02  0.48427E+06
 0.69470001E+02  0.44690E+06
 0.69519997E+02  0.37534E+06
 0.69570000E+02  0.31103E+06
 0.69619995E+02  0.19172E+06
 0.69669998E+02 -0.32220E+04
 0.69720001E+02 -0.16801E+06
 0.69769997E+02 -0.24971E+06
 0.69820000E+02 -0.28994E+06
 0.69869995E+02 -0.25779E+06
 0.69919998E+02 -0.12549E+06
 0.69970001E+02  0.63852E+05
 0.70019997E+02  0.26835E+06
 0.70070000E+02  0.42139E+06
 0.70119995E+02  0.48050E+06
 0.70169998E+02  0.46279E+06
 0.70220001E+02  0.40108E+06
 0.70269997E+02  0.31899E+06
 0.70320000E+02  0.26136E+06
 0.70369995E+02  0.26749E+06
 0.70419998E+02  0.30829E+06
 0.70470001E+02  0.37179E+06
 0.70519997E+02  0.46040E+06
 0.70570000E+02  0.54558E+06
 0.70619995E+02  0.63877E+06
 0.70669998E+02  0.74392E+06
 0.70720001E+02  0.85132E+06
 0.70769997E+02  0.94010E+06
 0.70820000E+02  0.95771E+06
 0.70869995E+02  0.89740E+06
 0.70919998E+02  0.76522E+06
 0.70970001E+02  0.59597E+06
 0.71019997E+02  0.41070E+06
 0.71070000E+02  0.17580E+06
 0.71119995E+02 -0.10285E+06
 0.71169998E+02 -0.39863E+06
 0.71220001E+02 -0.65376E+06
 0.71269997E+02 -0.82316E+06
 0.71320000E+02 -0.88198E+06
 0.71369995E+02 -0.82346E+06
 0.71419998E+02 -0.72846E+06
 0.71470001E+02 -0.64604E+06
 0.71519997E+02 -0.58104E+06
 0.71570000E+02 -0.54029E+06
 0.71619995E+02 -0.47977E+06
 0.71669998E+02 -0.39774E+06
 0.71720001E+02 -0.34874E+06
 0.71769997E+02 -0.33124E+06
 0.71820000E+02 -0.35158E+06
 0.71869995E+02 -0.42644E+06
 0.71919998E+02 -0.48277E+06
 0.71970001E+02 -0.52710E+06
 0.72019997E+02 -0.60757E+06
 0.72070000E+02 -0.68908E+06
 0.72119995E+02 -0.74317E+06
 0.72169998E+02 -0.72430E+06
 0.72220001E+02 -0.66907E+06
 0.72269997E+02 -0.58630E+06
 0.72320000E+02 -0.42573E+06
 0.72369995E+02 -0.22839E+06
 0.72419998E+02 -0.33513E+05
 0.72470001E+02  0.12936E+06
 0.72519997E+02  0.25573E+06
 0.72570000E+02  0.30928E+06
 0.72619995E+02  0.29938E+06
 0.72669998E+02  0.28475E+06
 0.72720001E+02  0.22879E+06
 0.72769997E+02  0.16293E+06
 0.72820000E+02  0.10334E+06
 0.72869995E+02  0.27969E+05
 0.72919998E+02  0.20545E+05
 0.72970001E+02  0.64652E+05
 0.73019997E+02  0.72630E+05
 0.73070000E+02  0.61086E+05
 0.73119995E+02  0.50028E+05
 0.73169998E+02  0.45873E+05
 0.73220001E+02  0.71537E+05
 0.73269997E+02  0.10126E+06
 0.73320000E+02  0.13768E+06
 0.73369995E+02  0.18333E+06
 0.73419998E+02  0.17874E+06
 0.73470001E+02  0.13261E+06
 0.73519997E+02  0.74908E+05
 0.73570000E+02 -0.37090E+04
 0.73619995E+02 -0.10518E+06
 0.73669998E+02 -0.21153E+06
 0.73720001E+02 -0.33148E+06
 0.73769997E+02 -0.49737E+06
 0.73820000E+02 -0.66190E+06
 0.73869995E+02 -0.76687E+06
 0.73919998E+02 -0.80878E+06
 0.73970001E+02 -0.77891E+06
 0.74019997E+02 -0.69027E+06
 0.74070000E+02 -0.58707E+06
 0.74119995E+02 -0.52559E+06
 0.74169998E+02 -0.53537E+06
 0.74220001E+02 -0.57948E+06
 0.74269997E+02 -0.60527E+06
 0.74320000E+02 -0.53924E+06
 0.74369995E+02 -0.37284E+06
 0.74419998E+02 -0.17734E+06
 0.74470001E+02 -0.34980E+04
 0.74519997E+02  0.79474E+05
 0.74570000E+02  0.97719E+05
 0.74619995E+02  0.95358E+05
 0.74669998E+02  0.29443E+05
 0.74720001E+02 -0.10436E+06
 0.74769997E+02 -0.26964E+06
 0.74820000E+02 -0.34826E+06
 0.74869995E+02 -0.29907E+06
 0.74919998E+02 -0.18776E+06
 0.74970001E+02 -0.35110E+05
 0.75019997E+02  0.11602E+06
 0.75070000E+02  0.21524E+06
 0.75119995E+02  0.25528E+06
 0.75169998E+02  0.26851E+06
 0.75220001E+02  0.27802E+06
 0.75269997E+02  0.30142E+06
 0.75320000E+02  0.33414E+06
 0.75369995E+02  0.34715E+06
 0.75419998E+02  0.32518E+06
 0.75470001E+02  0.24299E+06
 0.75519997E+02  0.94668E+05
 0.75570000E+02 -0.11620E+06
 0.75619995E+02 -0.33362E+06
 0.75669998E+02 -0.48920E+06
 0.75720001E+02 -0.55723E+06
 0.75769997E+02 -0.53915E+06
 0.75820000E+02 -0.51565E+06
 0.75869995E+02 -0.49753E+06
 0.75919998E+02 -0.46157E+06
 0.75970001E+02 -0.47844E+06
 0.76019997E+02 -0.52974E+06
 0.76070000E+02 -0.56242E+06
 0.76119995E+02 -0.61176E+06
 0.76169998E+02 -0.68512E+06
 0.76220001E+02 -0.75822E+06
 0.76269997E+02 -0.82056E+06
 0.76320000E+02 -0.86859E+06
 0.76369995E+02 -0.91108E+06
 0.76419998E+02 -0.95407E+06
 0.76470001E+02 -0.96218E+06
 0.76519997E+02 -0.87883E+06
 0.76570000E+02 -0.70598E+06
 0.76619995E+02 -0.47766E+06
 0.76669998E+02 -0.22994E+06
 0.76720001E+02 -0.96880E+04
 0.76769997E+02  0.16515E+06
 0.76820000E+02  0.29193E+06
 0.76869995E+02  0.35698E+06
 0.76919998E+02  0.34676E+06
 0.76970001E+02  0.28437E+06
 0.77019997E+02  0.22285E+06
 0.77070000E+02  0.19702E+06
 0.77119995E+02  0.19573E+06
 0.77169998E+02  0.19589E+06
 0.77220001E+02  0.22555E+06
 0.77269997E+02  0.28692E+06
 0.77320000E+02  0.34749E+06
 0.77369995E+02  0.38878E+06
 0.77419998E+02  0.40131E+06
 0.77470001E+02  0.43439E+06
 0.77519997E+02  0.53106E+06
 0.77570000E+02  0.66439E+06
 0.77619995E+02  0.78876E+06
 0.77669998E+02  0.89500E+06
 0.77720001E+02  0.96848E+06
 0.77769997E+02  0.98110E+06
 0.77820000E+02  0.96521E+06
 0.77869995E+02  0.93291E+06
 0.77919998E+02  0.88229E+06
 0.77970001E+02  0.84166E+06
 0.78019997E+02  0.80969E+06
 0.78070000E+02  0.78218E+06
 0.78119995E+02  0.76068E+06
 0.78169998E+02  0.74724E+06
 0.78220001E+02  0.73457E+06
 0.78269997E+02  0.72856E+06
 0.78320000E+02  0.75613E+06
 0.78369995E+02  0.78522E+06
 0.78419998E+02  0.76253E+06
 0.78470001E+02  0.66926E+06
 0.78519997E+02  0.51940E+06
 0.78570000E+02  0.34086E+06
 0.78619995E+02  0.14754E+06
 0.78669998E+02 -0.26231E+05
 0.78720001E+02 -0.17587E+06
 0.78769997E+02 -0.32132E+06
 0.78820000E+02 -0.43265E+06
 0.78869995E+02 -0.52857E+06
 0.78919998E+02 -0.63115E+06
 0.78970001E+02 -0.68800E+06
 0.79019997E+02 -0.71442E+06
 0.79070000E+02 -0.75612E+06
 0.79119995E+02 -0.79971E+06
 0.79169998E+02 -0.82843E+06
 0.79220001E+02 -0.84219E+06
 0.79269997E+02 -0.83400E+06
 0.79320000E+02 -0.79268E+06
 0.79369995E+02 -0.73740E+06
 0.79419998E+02 -0.68700E+06
 0.79470001E+02 -0.62147E+06
 0.79519997E+02 -0.48480E+06
 0.79570000E+02 -0.26780E+06
 0.79619995E+02 -0.49202E+05
 0.79669998E+02  0.11779E+06
 0.79720001E+02  0.23109E+06
 0.79769997E+02  0.29277E+06
 0.79820000E+02  0.32503E+06
 0.79869995E+02  0.34662E+06
 0.79919998E+02  0.36126E+06
 0.79970001E+02  0.38419E+06
 0.80019997E+02  0.43159E+06
 0.80070000E+02  0.51586E+06
 0.80119995E+02  0.59052E+06
 0.80169998E+02  0.59914E+06
 0.80220001E+02  0.55915E+06
 0.80269997E+02  0.49752E+06
 0.80320000E+02  0.42182E+06
 0.80369995E+02  0.32806E+06
 0.80419998E+02  0.21620E+06
 0.80470001E+02  0.11324E+06
 0.80519997E+02  0.40638E+05
 0.80570000E+02 -0.21158E+05
 0.80619995E+02 -0.78082E+05
 0.80669998E+02 -0.13484E+06
 0.80720001E+02 -0.20031E+06
 0.80769997E+02 -0.25591E+06
 0.80820000E+02 -0.33079E+06
 0.80869995E+02 -0.43425E+06
 0.80919998E+02 -0.52304E+06
 0.80970001E+02 -0.57303E+06
 0.81019997E+02 -0.56256E+06
 0.81070000E+02 -0.51818E+06
 0.81119995E+02 -0.47642E+06
 0.81169998E+02 -0.44659E+06
 0.81220001E+02 -0.46909E+06
 0.81269997E+02 -0.51138E+06
 0.81320000E+02 -0.49489E+06
 0.81369995E+02 -0.42713E+06
 0.81419998E+02 -0.33277E+06
 0.81470001E+02 -0.24428E+06
 0.81519997E+02 -0.19402E+06
 0.81570000E+02 -0.19785E+06
 0.81619995E+02 -0.27810E+06
 0.81669998E+02 -0.40770E+06
 0.81720001E+02 -0.53105E+06
 0.81769997E+02 -0.59290E+06
 0.81820000E+02 -0.56342E+06
 0.81869995E+02 -0.44864E+06
 0.81919998E+02 -0.27764E+06
 0.81970001E+02 -0.97860E+05
 0.82019997E+02  0.69308E+05
 0.82070000E+02  0.21202E+06
 0.82119995E+02  0.34771E+06
 0.82169998E+02  0.48230E+06
 0.82220001E+02  0.57894E+06
 0.82269997E+02  0.62705E+06
 0.82320000E+02  0.63067E+06
 0.82369995E+02  0.64124E+06
 0.82419998E+02  0.68112E+06
 0.82470001E+02  0.69901E+06
 0.82519997E+02  0.68241E+06
 0.82570000E+02  0.61397E+06
 0.82619995E+02  0.48758E+06
 0.82669998E+02  0.35048E+06
 0.82720001E+02  0.20848E+06
 0.82769997E+02  0.74506E+05
 0.82820000E+02 -0.20619E+05
 0.82869995E+02 -0.92051E+05
 0.82919998E+02 -0.13278E+06
 0.82970001E+02 -0.17502E+06
 0.83019997E+02 -0.24567E+06
 0.83070000E+02 -0.28120E+06
 0.83119995E+02 -0.27705E+06
 0.83169998E+02 -0.24673E+06
 0.83220001E+02 -0.19555E+06
 0.83269997E+02 -0.17520E+06
 0.83320000E+02 -0.17945E+06
 0.83369995E+02 -0.19200E+06
 0.83419998E+02 -0.24698E+06
 0.83470001E+02 -0.33894E+06
 0.83519997E+02 -0.42950E+06
 0.83570000E+02 -0.48448E+06
 0.83619995E+02 -0.49342E+06
 0.83669998E+02 -0.46571E+06
 0.83720001E+02 -0.40004E+06
 0.83769997E+02 -0.31187E+06
 0.83820000E+02 -0.22915E+06
 0.83869995E+02 -0.16623E+06
 0.83919998E+02 -0.13427E+06
 0.83970001E+02 -0.14622E+06
 0.84019997E+02 -0.18048E+06
 0.84070000E+02 -0.18545E+06
 0.84119995E+02 -0.13802E+06
 0.84169998E+02 -0.60623E+05
 0.84220001E+02  0.25518E+05
 0.84269997E+02  0.11744E+06
 0.84320000E+02  0.19292E+06
 0.84369995E+02  0.24895E+06
 0.84419998E+02  0.30366E+06
 0.84470001E+02  0.35371E+06
 0.84519997E+02  0.39454E+06
 0.84570000E+02  0.42976E+06
 0.84619995E+02  0.45309E+06
 0.84669998E+02  0.46073E+06
 0.84720001E+02  0.45920E+06
 0.84769997E+02  0.42529E+06
 0.84820000E+02  0.35538E+06
 0.84869995E+02  0.28501E+06
 0.84919998E+02  0.23258E+06
 0.84970001E+02  0.20831E+06
 0.85019997E+02  0.18542E+06
 0.85070000E+02  0.13629E+06
 0.85119995E+02  0.10179E+06
 0.85169998E+02  0.10319E+06
 0.85220001E+02  0.11310E+06
 0.85269997E+02  0.12379E+06
 0.85320000E+02  0.12410E+06
 0.85369995E+02  0.95492E+05
 0.85419998E+02  0.43588E+05
 0.85470001E+02 -0.33544E+05
 0.85519997E+02 -0.13726E+06
 0.85570000E+02 -0.26169E+06
 0.85619995E+02 -0.41806E+06
 0.85669998E+02 -0.57849E+06
 0.85720001E+02 -0.68839E+06
 0.85769997E+02 -0.72131E+06
 0.85820000E+02 -0.68977E+06
 0.85869995E+02 -0.63554E+06
 0.85919998E+02 -0.57091E+06
 0.85970001E+02 -0.50447E+06
 0.86019997E+02 -0.44595E+06
 0.86070000E+02 -0.39758E+06
 0.86119995E+02 -0.36587E+06
 0.86169998E+02 -0.33587E+06
 0.86220001E+02 -0.29122E+06
 0.86269997E+02 -0.22731E+06
 0.86320000E+02 -0.15548E+06
 0.86369995E+02 -0.85358E+05
 0.86419998E+02 -0.24869E+05
 0.86470001E+02  0.22013E+05
 0.86519997E+02  0.55306E+05
 0.86570000E+02  0.71532E+05
 0.86619995E+02  0.89488E+05
 0.86669998E+02  0.11905E+06
 0.86720001E+02  0.16476E+06
 0.86769997E+02  0.22984E+06
 0.86820000E+02  0.28962E+06
 0.86869995E+02  0.34656E+06
 0.86919998E+02  0.41310E+06
 0.86970001E+02  0.46149E+06
 0.87019997E+02  0.48594E+06
 0.87070000E+02  0.49797E+06
 0.87119995E+02  0.50110E+06
 0.87169998E+02  0.49600E+06
 0.87220001E+02  0.45839E+06
 0.87269997E+02  0.38991E+06
 0.87320000E+02  0.30625E+06
 0.87369995E+02  0.22394E+06
 0.87419998E+02  0.16776E+06
 0.87470001E+02  0.12466E+06
 0.87519997E+02  0.10061E+06
 0.87570000E+02  0.10762E+06
 0.87619995E+02  0.12012E+06
 0.87669998E+02  0.13106E+06
 0.87720001E+02  0.13535E+06
 0.87769997E+02  0.11860E+06
 0.87820000E+02  0.85781E+05
 0.87869995E+02  0.61470E+05
 0.87919998E+02  0.68910E+05
 0.87970001E+02  0.91535E+05
 0.88019997E+02  0.11261E+06
 0.88070000E+02  0.13117E+06
 0.88119995E+02  0.12282E+06
 0.88169998E+02  0.85682E+05
 0.88220001E+02  0.41378E+05
 0.88269997E+02  0.10949E+05
 0.88320000E+02  0.29716E+05
 0.88369995E+02  0.89195E+05
 0.88419998E+02  0.15174E+06
 0.88470001E+02  0.19562E+06
 0.88519997E+02  0.20172E+06
 0.88570000E+02  0.20514E+06
 0.88619995E+02  0.22753E+06
 0.88669998E+02  0.23124E+06
 0.88720001E+02  0.21533E+06
 0.88769997E+02  0.19794E+06
 0.88820000E+02  0.18623E+06
 0.88869995E+02  0.19346E+06
 0.88919998E+02  0.23250E+06
 0.88970001E+02  0.29365E+06
 0.89019997E+02  0.34341E+06
 0.89070000E+02  0.36308E+06
 0.89119995E+02  0.36258E+06
 0.89169998E+02  0.35073E+06
 0.89220001E+02  0.32404E+06
 0.89269997E+02  0.27687E+06
 0.89320000E+02  0.18947E+06
 0.89369995E+02  0.36649E+05
 0.89419998E+02 -0.16100E+06
 0.89470001E+02 -0.36061E+06
 0.89519997E+02 -0.54909E+06
 0.89570000E+02 -0.70207E+06
 0.89619995E+02 -0.83468E+06
 0.89669998E+02 -0.98272E+06
 0.89720001E+02 -0.11017E+07
 0.89769997E+02 -0.11809E+07
 0.89820000E+02 -0.12425E+07
 0.89869995E+02 -0.12858E+07
 0.89919998E+02 -0.13221E+07
 0.89970001E+02 -0.13274E+07
 0.90019997E+02 -0.12985E+07
 0.90070000E+02 -0.12521E+07
 0.90119995E+02 -0.11736E+07
 0.90169998E+02 -0.10763E+07
 0.90220001E+02 -0.99173E+06
 0.90269997E+02 -0.94043E+06
 0.90320000E+02 -0.90571E+06
 0.90369995E+02 -0.86818E+06
 0.90419998E+02 -0.82453E+06
 0.90470001E+02 -0.74269E+06
 0.90519997E+02 -0.62616E+06
 0.90570000E+02 -0.50980E+06
 0.90619995E+02 -0.39197E+06
 0.90669998E+02 -0.27779E+06
 0.90720001E+02 -0.19494E+06
 0.90769997E+02 -0.12524E+06
 0.90820000E+02 -0.26733E+05
 0.90869995E+02  0.85836E+05
 0.90919998E+02  0.17694E+06
 0.90970001E+02  0.23699E+06
 0.91019997E+02  0.26545E+06
 0.91070000E+02  0.26919E+06
 0.91119995E+02  0.27068E+06
 0.91169998E+02  0.29104E+06
 0.91220001E+02  0.32160E+06
 0.91269997E+02  0.33769E+06
 0.91320000E+02  0.32819E+06
 0.91369995E+02  0.30082E+06
 0.91419998E+02  0.27375E+06
 0.91470001E+02  0.27240E+06
 0.91519997E+02  0.31505E+06
 0.91570000E+02  0.38681E+06
 0.91619995E+02  0.46354E+06
 0.91669998E+02  0.52763E+06
 0.91720001E+02  0.56836E+06
 0.91769997E+02  0.59840E+06
 0.91820000E+02  0.63683E+06
 0.91869995E+02  0.68001E+06
 0.91919998E+02  0.70737E+06
 0.91970001E+02  0.71736E+06
 0.92019997E+02  0.70703E+06
 0.92070000E+02  0.67478E+06
 0.92119995E+02  0.63786E+06
 0.92169998E+02  0.59108E+06
 0.92220001E+02  0.54024E+06
 0.92269997E+02  0.49490E+06
 0.92320000E+02  0.43392E+06
 0.92369995E+02  0.35489E+06
 0.92419998E+02  0.27201E+06
 0.92470001E+02  0.20386E+06
 0.92519997E+02  0.16038E+06
 0.92570000E+02  0.10768E+06
 0.92619995E+02  0.34336E+05
 0.92669998E+02 -0.33332E+05
 0.92720001E+02 -0.94985E+05
 0.92769997E+02 -0.15140E+06
 0.92820000E+02 -0.20400E+06
 0.92869995E+02 -0.25634E+06
 0.92919998E+02 -0.31038E+06
 0.92970001E+02 -0.37182E+06
 0.93019997E+02 -0.41282E+06
 0.93070000E+02 -0.41130E+06
 0.93119995E+02 -0.36860E+06
 0.93169998E+02 -0.29268E+06
 0.93220001E+02 -0.21326E+06
 0.93269997E+02 -0.14278E+06
 0.93320000E+02 -0.85775E+05
 0.93369995E+02 -0.42076E+05
 0.93419998E+02  0.10010E+04
 0.93470001E+02  0.32690E+05
 0.93519997E+02  0.59696E+05
 0.93570000E+02  0.82017E+05
 0.93619995E+02  0.75594E+05
 0.93669998E+02  0.47913E+05
 0.93720001E+02 -0.26220E+04
 0.93769997E+02 -0.77077E+05
 0.93820000E+02 -0.15616E+06
 0.93869995E+02 -0.24037E+06
 0.93919998E+02 -0.32680E+06
 0.93970001E+02 -0.39325E+06
 0.94019997E+02 -0.42401E+06
 0.94070000E+02 -0.42408E+06
 0.94119995E+02 -0.40641E+06
 0.94169998E+02 -0.37058E+06
 0.94220001E+02 -0.31780E+06
 0.94269997E+02 -0.27394E+06
 0.94320000E+02 -0.24824E+06
 0.94369995E+02 -0.22611E+06
 0.94419998E+02 -0.20089E+06
 0.94470001E+02 -0.15145E+06
 0.94519997E+02 -0.62664E+05
 0.94570000E+02  0.45713E+05
 0.94619995E+02  0.15798E+06
 0.94669998E+02  0.27639E+06
 0.94720001E+02  0.39290E+06
 0.94769997E+02  0.50844E+06
 0.94820000E+02  0.62559E+06
 0.94869995E+02  0.72538E+06
 0.94919998E+02  0.80068E+06
 0.94970001E+02  0.85200E+06
 0.95019997E+02  0.88401E+06
 0.95070000E+02  0.89476E+06
 0.95119995E+02  0.87433E+06
 0.95169998E+02  0.82534E+06
 0.95220001E+02  0.75226E+06
 0.95269997E+02  0.66580E+06
 0.95320000E+02  0.58484E+06
 0.95369995E+02  0.51640E+06
 0.95419998E+02  0.44947E+06
 0.95470001E+02  0.38919E+06
 0.95519997E+02  0.34329E+06
 0.95570000E+02  0.30435E+06
 0.95619995E+02  0.27296E+06
 0.95669998E+02  0.22810E+06
 0.95720001E+02  0.16028E+06
 0.95769997E+02  0.95649E+05
 0.95820000E+02  0.38823E+05
 0.95869995E+02 -0.10626E+05
 0.95919998E+02 -0.61217E+05
 0.95970001E+02 -0.13561E+06
 0.96019997E+02 -0.22612E+06
 0.96070000E+02 -0.32509E+06
 0.96119995E+02 -0.42790E+06
 0.96169998E+02 -0.50865E+06
 0.96220001E+02 -0.56925E+06
 0.96269997E+02 -0.62363E+06
 0.96320000E+02 -0.66832E+06
 0.96369995E+02 -0.71389E+06
 0.96419998E+02 -0.75020E+06
 0.96470001E+02 -0.75303E+06
 0.96519997E+02 -0.73252E+06
 0.96570000E+02 -0.68390E+06
 0.96619995E+02 -0.60133E+06
 0.96669998E+02 -0.51634E+06
 0.96720001E+02 -0.44290E+06
 0.96769997E+02 -0.38156E+06
 0.96820000E+02 -0.33597E+06
 0.96869995E+02 -0.29524E+06
 0.96919998E+02 -0.25975E+06
 0.96970001E+02 -0.23191E+06
 0.97019997E+02 -0.21110E+06
 0.97070000E+02 -0.21661E+06
 0.97119995E+02 -0.25581E+06
 0.97169998E+02 -0.30999E+06
 0.97220001E+02 -0.35708E+06
 0.97269997E+02 -0.38087E+06
 0.97320000E+02 -0.37355E+06
 0.97369995E+02 -0.33344E+06
 0.97419998E+02 -0.25471E+06
 0.97470001E+02 -0.13652E+06
 0.97519997E+02 -0.29200E+03
 0.97570000E+02  0.12566E+06
 0.97619995E+02  0.22146E+06
 0.97669998E+02  0.28120E+06
 0.97720001E+02  0.31565E+06
 0.97769997E+02  0.33684E+06
 0.97820000E+02  0.35135E+06
 0.97869995E+02  0.36090E+06
 0.97919998E+02  0.35846E+06
 0.97970001E+02  0.33794E+06
 0.98019997E+02  0.29908E+06
