-0.19800000E+01  0.61023E+05
-0.19300001E+01  0.59031E+05
-0.18800000E+01  0.55994E+05
-0.18300000E+01  0.52334E+05
-0.17800000E+01  0.48855E+05
-0.17300000E+01  0.44230E+05
-0.16800001E+01  0.35768E+05
-0.16300000E+01  0.24711E+05
-0.15800000E+01  0.13953E+05
-0.15300000E+01  0.35300E+04
-0.14800000E+01 -0.53560E+04
-0.14300001E+01 -0.12255E+05
-0.13800000E+01 -0.19446E+05
-0.13299999E+01 -0.26955E+05
-0.12800000E+01 -0.32448E+05
-0.12300000E+01 -0.34507E+05
-0.11800001E+01 -0.33782E+05
-0.11300000E+01 -0.31508E+05
-0.10799999E+01 -0.28424E+05
-0.10300000E+01 -0.25686E+05
-0.98000002E+00 -0.24090E+05
-0.92999995E+00 -0.23777E+05
-0.88000000E+00 -0.24530E+05
-0.83000004E+00 -0.24756E+05
-0.77999997E+00 -0.22558E+05
-0.73000002E+00 -0.19043E+05
-0.67999995E+00 -0.16253E+05
-0.63000000E+00 -0.13886E+05
-0.58000004E+00 -0.11748E+05
-0.52999997E+00 -0.10475E+05
-0.48000002E+00 -0.11084E+05
-0.42999995E+00 -0.13585E+05
-0.38000000E+00 -0.15662E+05
-0.33000004E+00 -0.16097E+05
-0.27999997E+00 -0.17023E+05
-0.23000002E+00 -0.19962E+05
-0.17999995E+00 -0.23500E+05
-0.13000000E+00 -0.25834E+05
-0.80000043E-01 -0.27043E+05
-0.29999971E-01 -0.28081E+05
 0.19999981E-01 -0.28309E+05
 0.69999933E-01 -0.27619E+05
 0.12000012E+00 -0.26268E+05
 0.17000008E+00 -0.24690E+05
 0.22000003E+00 -0.25037E+05
 0.26999998E+00 -0.26981E+05
 0.31999993E+00 -0.28675E+05
 0.37000012E+00 -0.29552E+05
 0.42000008E+00 -0.28357E+05
 0.47000003E+00 -0.26420E+05
 0.51999998E+00 -0.27503E+05
 0.56999993E+00 -0.30980E+05
 0.62000012E+00 -0.34702E+05
 0.67000008E+00 -0.38440E+05
 0.72000003E+00 -0.41699E+05
 0.76999998E+00 -0.44000E+05
 0.81999993E+00 -0.45352E+05
 0.87000012E+00 -0.46895E+05
 0.92000008E+00 -0.48405E+05
 0.97000003E+00 -0.48119E+05
 0.10200000E+01 -0.44706E+05
 0.10699999E+01 -0.38629E+05
 0.11200001E+01 -0.31693E+05
 0.11700001E+01 -0.24250E+05
 0.12200000E+01 -0.17417E+05
 0.12700000E+01 -0.11715E+05
 0.13199999E+01 -0.60660E+04
 0.13700001E+01 -0.37000E+02
 0.14200001E+01  0.56290E+04
 0.14700000E+01  0.93200E+04
 0.15200000E+01  0.12019E+05
 0.15699999E+01  0.15049E+05
 0.16200001E+01  0.17337E+05
 0.16700001E+01  0.19582E+05
 0.17200000E+01  0.23276E+05
 0.17700000E+01  0.27775E+05
 0.18199999E+01  0.31674E+05
 0.18700001E+01  0.34441E+05
 0.19200001E+01  0.37710E+05
 0.19700000E+01  0.41774E+05
 0.20200000E+01  0.43543E+05
 0.20700002E+01  0.42339E+05
 0.21199999E+01  0.40467E+05
 0.21700001E+01  0.39637E+05
 0.22200003E+01  0.40991E+05
 0.22700000E+01  0.44701E+05
 0.23200002E+01  0.48982E+05
 0.23699999E+01  0.51850E+05
 0.24200001E+01  0.52983E+05
 0.24700003E+01  0.52751E+05
 0.25200000E+01  0.52714E+05
 0.25700002E+01  0.52305E+05
 0.26199999E+01  0.49875E+05
 0.26700001E+01  0.47185E+05
 0.27200003E+01  0.45494E+05
 0.27700000E+01  0.44573E+05
 0.28200002E+01  0.43636E+05
 0.28699999E+01  0.41948E+05
 0.29200001E+01  0.38605E+05
 0.29700003E+01  0.33379E+05
 0.30200000E+01  0.28467E+05
 0.30700002E+01  0.25584E+05
 0.31199999E+01  0.24262E+05
 0.31700001E+01  0.23628E+05
 0.32200003E+01  0.23316E+05
 0.32700000E+01  0.22329E+05
 0.33200002E+01  0.20307E+05
 0.33699999E+01  0.17824E+05
 0.34200001E+01  0.14537E+05
 0.34700003E+01  0.10337E+05
 0.35200000E+01  0.56940E+04
 0.35700002E+01  0.15190E+04
 0.36199999E+01 -0.18050E+04
 0.36700001E+01 -0.58460E+04
 0.37200003E+01 -0.11943E+05
 0.37700000E+01 -0.19284E+05
 0.38200002E+01 -0.25541E+05
 0.38699999E+01 -0.29213E+05
 0.39200001E+01 -0.30398E+05
 0.39700003E+01 -0.30282E+05
 0.40200000E+01 -0.29898E+05
 0.40700002E+01 -0.28850E+05
 0.41199999E+01 -0.26655E+05
 0.41700001E+01 -0.23726E+05
 0.42200003E+01 -0.21735E+05
 0.42700000E+01 -0.20943E+05
 0.43200002E+01 -0.19265E+05
 0.43699999E+01 -0.15620E+05
 0.44200001E+01 -0.10921E+05
 0.44700003E+01 -0.72080E+04
 0.45200000E+01 -0.51520E+04
 0.45700002E+01 -0.35860E+04
 0.46199999E+01 -0.14900E+04
 0.46700001E+01  0.79600E+03
 0.47200003E+01  0.19720E+04
 0.47700000E+01  0.13380E+04
 0.48200002E+01 -0.17800E+03
 0.48699999E+01  0.39300E+03
 0.49200001E+01  0.44740E+04
 0.49700003E+01  0.10257E+05
 0.50200000E+01  0.15919E+05
 0.50700002E+01  0.19983E+05
 0.51199999E+01  0.21560E+05
 0.51700001E+01  0.20880E+05
 0.52200003E+01  0.18345E+05
 0.52700000E+01  0.14762E+05
 0.53200002E+01  0.11503E+05
 0.53699999E+01  0.94320E+04
 0.54200001E+01  0.81230E+04
 0.54700003E+01  0.68020E+04
 0.55200000E+01  0.54460E+04
 0.55700002E+01  0.39080E+04
 0.56199999E+01  0.14540E+04
 0.56700001E+01 -0.19330E+04
 0.57200003E+01 -0.59880E+04
 0.57700000E+01 -0.10069E+05
 0.58200002E+01 -0.13863E+05
 0.58699999E+01 -0.18993E+05
 0.59200001E+01 -0.26226E+05
 0.59700003E+01 -0.34770E+05
 0.60200000E+01 -0.42278E+05
 0.60700002E+01 -0.46864E+05
 0.61200004E+01 -0.49600E+05
 0.61700006E+01 -0.51697E+05
 0.62199998E+01 -0.53902E+05
 0.62700000E+01 -0.55504E+05
 0.63200002E+01 -0.55192E+05
 0.63700004E+01 -0.52912E+05
 0.64200006E+01 -0.48723E+05
 0.64699998E+01 -0.43142E+05
 0.65200000E+01 -0.37058E+05
 0.65700002E+01 -0.30952E+05
 0.66200004E+01 -0.24920E+05
 0.66700006E+01 -0.19450E+05
 0.67199998E+01 -0.16247E+05
 0.67700000E+01 -0.14629E+05
 0.68200002E+01 -0.11615E+05
 0.68700004E+01 -0.64440E+04
 0.69200006E+01 -0.13800E+03
 0.69699998E+01  0.51630E+04
 0.70200000E+01  0.88700E+04
 0.70700002E+01  0.10487E+05
 0.71200004E+01  0.92530E+04
 0.71700006E+01  0.71400E+04
 0.72199998E+01  0.47160E+04
 0.72700000E+01  0.19380E+04
 0.73200002E+01  0.14600E+03
 0.73700004E+01 -0.47500E+03
 0.74200006E+01 -0.12200E+04
 0.74699998E+01 -0.36650E+04
 0.75200000E+01 -0.78710E+04
 0.75700002E+01 -0.12677E+05
 0.76200004E+01 -0.17406E+05
 0.76700006E+01 -0.21608E+05
 0.77199998E+01 -0.24731E+05
 0.77700000E+01 -0.26353E+05
 0.78200002E+01 -0.26454E+05
 0.78700004E+01 -0.26138E+05
 0.79200006E+01 -0.26669E+05
 0.79699998E+01 -0.28098E+05
 0.80200005E+01 -0.29788E+05
 0.80699997E+01 -0.30552E+05
 0.81200008E+01 -0.28853E+05
 0.81700001E+01 -0.25503E+05
 0.82199993E+01 -0.22326E+05
 0.82700005E+01 -0.18817E+05
 0.83199997E+01 -0.14726E+05
 0.83700008E+01 -0.10651E+05
 0.84200001E+01 -0.61730E+04
 0.84699993E+01 -0.85800E+03
 0.85200005E+01  0.48290E+04
 0.85699997E+01  0.97850E+04
 0.86200008E+01  0.13939E+05
 0.86700001E+01  0.18236E+05
 0.87199993E+01  0.22925E+05
 0.87700005E+01  0.28091E+05
 0.88199997E+01  0.33592E+05
 0.88700008E+01  0.38970E+05
 0.89200001E+01  0.43379E+05
 0.89699993E+01  0.46201E+05
 0.90200005E+01  0.48818E+05
 0.90699997E+01  0.52100E+05
 0.91200008E+01  0.55850E+05
 0.91700001E+01  0.59495E+05
 0.92199993E+01  0.61882E+05
 0.92700005E+01  0.63522E+05
 0.93199997E+01  0.65269E+05
 0.93700008E+01  0.66737E+05
 0.94200001E+01  0.66275E+05
 0.94699993E+01  0.62645E+05
 0.95200005E+01  0.57727E+05
 0.95699997E+01  0.53510E+05
 0.96200008E+01  0.50081E+05
 0.96700001E+01  0.48256E+05
 0.97199993E+01  0.47953E+05
 0.97700005E+01  0.46995E+05
 0.98199997E+01  0.44465E+05
 0.98700008E+01  0.41536E+05
 0.99200001E+01  0.38832E+05
 0.99699993E+01  0.35941E+05
 0.10020000E+02  0.33826E+05
 0.10070000E+02  0.33248E+05
 0.10120001E+02  0.33626E+05
 0.10170000E+02  0.34221E+05
 0.10219999E+02  0.33606E+05
 0.10270000E+02  0.30902E+05
 0.10320000E+02  0.26718E+05
 0.10370001E+02  0.21253E+05
 0.10420000E+02  0.14721E+05
 0.10469999E+02  0.84460E+04
 0.10520000E+02  0.28350E+04
 0.10570000E+02 -0.20610E+04
 0.10620001E+02 -0.61280E+04
 0.10670000E+02 -0.97810E+04
 0.10719999E+02 -0.12270E+05
 0.10770000E+02 -0.12684E+05
 0.10820000E+02 -0.12169E+05
 0.10870001E+02 -0.12456E+05
 0.10920000E+02 -0.14114E+05
 0.10969999E+02 -0.16501E+05
 0.11020000E+02 -0.18989E+05
 0.11070000E+02 -0.21250E+05
 0.11120001E+02 -0.22408E+05
 0.11170000E+02 -0.22322E+05
 0.11219999E+02 -0.21980E+05
 0.11270000E+02 -0.21827E+05
 0.11320000E+02 -0.20721E+05
 0.11370001E+02 -0.18630E+05
 0.11420000E+02 -0.16968E+05
 0.11469999E+02 -0.16472E+05
 0.11520000E+02 -0.17750E+05
 0.11570000E+02 -0.20152E+05
 0.11620001E+02 -0.22177E+05
 0.11670000E+02 -0.23451E+05
 0.11719999E+02 -0.24499E+05
 0.11770000E+02 -0.26002E+05
 0.11820000E+02 -0.27847E+05
 0.11870001E+02 -0.28522E+05
 0.11920000E+02 -0.26496E+05
 0.11969999E+02 -0.22715E+05
 0.12020000E+02 -0.19891E+05
 0.12070000E+02 -0.18670E+05
 0.12120001E+02 -0.18066E+05
 0.12170000E+02 -0.17771E+05
 0.12219999E+02 -0.15912E+05
 0.12270000E+02 -0.11034E+05
 0.12320000E+02 -0.51700E+04
 0.12370001E+02  0.86000E+02
 0.12420000E+02  0.49440E+04
 0.12469999E+02  0.96080E+04
 0.12520000E+02  0.13585E+05
 0.12570000E+02  0.16145E+05
 0.12620001E+02  0.17501E+05
 0.12670000E+02  0.18290E+05
 0.12719999E+02  0.18305E+05
 0.12770000E+02  0.16587E+05
 0.12820000E+02  0.13189E+05
 0.12870001E+02  0.94280E+04
 0.12920000E+02  0.57770E+04
 0.12969999E+02  0.22110E+04
 0.13020000E+02 -0.60800E+03
 0.13070000E+02 -0.27340E+04
 0.13120001E+02 -0.53220E+04
 0.13170000E+02 -0.93000E+04
 0.13219999E+02 -0.13648E+05
 0.13270000E+02 -0.16840E+05
 0.13320000E+02 -0.18859E+05
 0.13370001E+02 -0.19775E+05
 0.13420000E+02 -0.19932E+05
 0.13469999E+02 -0.19687E+05
 0.13520000E+02 -0.19289E+05
 0.13570000E+02 -0.19719E+05
 0.13620001E+02 -0.21232E+05
 0.13670000E+02 -0.22931E+05
 0.13719999E+02 -0.23956E+05
 0.13770000E+02 -0.23340E+05
 0.13820000E+02 -0.21093E+05
 0.13870001E+02 -0.19981E+05
 0.13920000E+02 -0.21678E+05
 0.13969999E+02 -0.24005E+05
 0.14020000E+02 -0.24908E+05
 0.14070002E+02 -0.24931E+05
 0.14120001E+02 -0.25386E+05
 0.14170000E+02 -0.26983E+05
 0.14220001E+02 -0.29928E+05
 0.14270000E+02 -0.33323E+05
 0.14320002E+02 -0.35060E+05
 0.14370001E+02 -0.35175E+05
 0.14420000E+02 -0.36229E+05
 0.14470001E+02 -0.38688E+05
 0.14520000E+02 -0.40348E+05
 0.14570002E+02 -0.38976E+05
 0.14620001E+02 -0.35473E+05
 0.14670000E+02 -0.32632E+05
 0.14720001E+02 -0.30672E+05
 0.14770000E+02 -0.28802E+05
 0.14820002E+02 -0.26345E+05
 0.14870001E+02 -0.22250E+05
 0.14920000E+02 -0.17204E+05
 0.14970001E+02 -0.12142E+05
 0.15020000E+02 -0.77940E+04
 0.15070002E+02 -0.43540E+04
 0.15120001E+02  0.49000E+02
 0.15170000E+02  0.47050E+04
 0.15220001E+02  0.74940E+04
 0.15270000E+02  0.84070E+04
 0.15320002E+02  0.88670E+04
 0.15370001E+02  0.10230E+05
 0.15420000E+02  0.12024E+05
 0.15470001E+02  0.14092E+05
 0.15520000E+02  0.15920E+05
 0.15570002E+02  0.17733E+05
 0.15620001E+02  0.19972E+05
 0.15670000E+02  0.21483E+05
 0.15720001E+02  0.21922E+05
 0.15770000E+02  0.20608E+05
 0.15820002E+02  0.17681E+05
 0.15870001E+02  0.14338E+05
 0.15920000E+02  0.11722E+05
 0.15970001E+02  0.11094E+05
 0.16020000E+02  0.11815E+05
 0.16070002E+02  0.11974E+05
 0.16120001E+02  0.11822E+05
 0.16170000E+02  0.12793E+05
 0.16220001E+02  0.14459E+05
 0.16270000E+02  0.15806E+05
 0.16320002E+02  0.16913E+05
 0.16370001E+02  0.18913E+05
 0.16420000E+02  0.20847E+05
 0.16470001E+02  0.21189E+05
 0.16520000E+02  0.21519E+05
 0.16570002E+02  0.23171E+05
 0.16620001E+02  0.25045E+05
 0.16670000E+02  0.25240E+05
 0.16720001E+02  0.24440E+05
 0.16770000E+02  0.24214E+05
 0.16820002E+02  0.24127E+05
 0.16870001E+02  0.24188E+05
 0.16920000E+02  0.24162E+05
 0.16970001E+02  0.22706E+05
 0.17020000E+02  0.19509E+05
 0.17070002E+02  0.15521E+05
 0.17120001E+02  0.11933E+05
 0.17170000E+02  0.80410E+04
 0.17220001E+02  0.35260E+04
 0.17270000E+02  0.22000E+02
 0.17320002E+02 -0.23130E+04
 0.17370001E+02 -0.44850E+04
 0.17420000E+02 -0.78290E+04
 0.17470001E+02 -0.12320E+05
 0.17520000E+02 -0.17701E+05
 0.17570002E+02 -0.23699E+05
 0.17620001E+02 -0.28091E+05
 0.17670000E+02 -0.29964E+05
 0.17720001E+02 -0.30396E+05
 0.17770000E+02 -0.30447E+05
 0.17820002E+02 -0.30418E+05
 0.17870001E+02 -0.30782E+05
 0.17920000E+02 -0.31367E+05
 0.17970001E+02 -0.31330E+05
 0.18020000E+02 -0.30467E+05
 0.18070002E+02 -0.29695E+05
 0.18120001E+02 -0.30486E+05
 0.18170000E+02 -0.31524E+05
 0.18220001E+02 -0.31185E+05
 0.18270000E+02 -0.29987E+05
 0.18320002E+02 -0.28479E+05
 0.18370001E+02 -0.27676E+05
 0.18420000E+02 -0.28482E+05
 0.18470001E+02 -0.30692E+05
 0.18520000E+02 -0.32862E+05
 0.18570002E+02 -0.33581E+05
 0.18620001E+02 -0.33398E+05
 0.18670000E+02 -0.32951E+05
 0.18720001E+02 -0.31796E+05
 0.18770000E+02 -0.29149E+05
 0.18820002E+02 -0.25050E+05
 0.18870001E+02 -0.20102E+05
 0.18920000E+02 -0.13859E+05
 0.18970001E+02 -0.68390E+04
 0.19020000E+02 -0.35900E+03
 0.19070002E+02  0.54130E+04
 0.19120001E+02  0.10930E+05
 0.19170000E+02  0.16737E+05
 0.19220001E+02  0.22420E+05
 0.19270000E+02  0.28363E+05
 0.19320002E+02  0.35442E+05
 0.19370001E+02  0.42796E+05
 0.19420000E+02  0.49496E+05
 0.19470001E+02  0.54900E+05
 0.19520000E+02  0.58956E+05
 0.19570002E+02  0.62158E+05
 0.19620001E+02  0.65132E+05
 0.19670000E+02  0.67780E+05
 0.19720001E+02  0.68220E+05
 0.19770000E+02  0.66235E+05
 0.19820002E+02  0.63725E+05
 0.19870001E+02  0.61314E+05
 0.19920000E+02  0.58920E+05
 0.19970001E+02  0.56346E+05
 0.20020000E+02  0.52821E+05
 0.20070002E+02  0.48085E+05
 0.20120001E+02  0.42615E+05
 0.20170000E+02  0.37106E+05
 0.20220001E+02  0.32162E+05
 0.20270000E+02  0.28595E+05
 0.20320002E+02  0.27063E+05
 0.20370001E+02  0.26785E+05
 0.20420000E+02  0.26253E+05
 0.20470001E+02  0.25157E+05
 0.20520000E+02  0.23916E+05
 0.20570002E+02  0.22674E+05
 0.20620001E+02  0.21801E+05
 0.20670000E+02  0.20559E+05
 0.20720001E+02  0.17416E+05
 0.20770000E+02  0.12153E+05
 0.20820002E+02  0.48640E+04
 0.20870001E+02 -0.31370E+04
 0.20920000E+02 -0.95820E+04
 0.20970001E+02 -0.14649E+05
 0.21020000E+02 -0.19511E+05
 0.21070002E+02 -0.24285E+05
 0.21120001E+02 -0.28297E+05
 0.21170000E+02 -0.31468E+05
 0.21220001E+02 -0.34395E+05
 0.21270000E+02 -0.37180E+05
 0.21320002E+02 -0.39376E+05
 0.21370001E+02 -0.40037E+05
 0.21420000E+02 -0.39469E+05
 0.21470001E+02 -0.37983E+05
 0.21520000E+02 -0.35125E+05
 0.21570002E+02 -0.30905E+05
 0.21620001E+02 -0.25727E+05
 0.21670000E+02 -0.20711E+05
 0.21720001E+02 -0.16116E+05
 0.21770000E+02 -0.11837E+05
 0.21820002E+02 -0.84780E+04
 0.21870001E+02 -0.60170E+04
 0.21920000E+02 -0.40390E+04
 0.21970001E+02 -0.28350E+04
 0.22020000E+02 -0.25630E+04
 0.22070002E+02 -0.25070E+04
 0.22120001E+02 -0.23080E+04
 0.22170000E+02 -0.21110E+04
 0.22220001E+02 -0.16810E+04
 0.22270000E+02 -0.20800E+03
 0.22320002E+02  0.18200E+04
 0.22370001E+02  0.27710E+04
 0.22420000E+02  0.27680E+04
 0.22470001E+02  0.24160E+04
 0.22520000E+02  0.20480E+04
 0.22570002E+02  0.16060E+04
 0.22620001E+02  0.11450E+04
 0.22670000E+02  0.17700E+04
 0.22720001E+02  0.31030E+04
 0.22770000E+02  0.42070E+04
 0.22820002E+02  0.48230E+04
 0.22870001E+02  0.51670E+04
 0.22920000E+02  0.52330E+04
 0.22970001E+02  0.46630E+04
 0.23020000E+02  0.43210E+04
 0.23070002E+02  0.53860E+04
 0.23120001E+02  0.80470E+04
 0.23170000E+02  0.11028E+05
 0.23220001E+02  0.13735E+05
 0.23270000E+02  0.16147E+05
 0.23320002E+02  0.18221E+05
 0.23370001E+02  0.20478E+05
 0.23420000E+02  0.22097E+05
 0.23470001E+02  0.22888E+05
 0.23520000E+02  0.23177E+05
 0.23570002E+02  0.22221E+05
 0.23620001E+02  0.20461E+05
 0.23670000E+02  0.18696E+05
 0.23720001E+02  0.16978E+05
 0.23770000E+02  0.15164E+05
 0.23820002E+02  0.13246E+05
 0.23870001E+02  0.11820E+05
 0.23920000E+02  0.11326E+05
 0.23970001E+02  0.11401E+05
 0.24020000E+02  0.11631E+05
 0.24070002E+02  0.11770E+05
 0.24120001E+02  0.10651E+05
 0.24170000E+02  0.75270E+04
 0.24220001E+02  0.35660E+04
 0.24270000E+02  0.60000E+02
 0.24320002E+02 -0.32200E+04
 0.24370001E+02 -0.68900E+04
 0.24420000E+02 -0.10364E+05
 0.24470001E+02 -0.12476E+05
 0.24520000E+02 -0.13514E+05
 0.24570002E+02 -0.15836E+05
 0.24620001E+02 -0.19726E+05
 0.24670000E+02 -0.23186E+05
 0.24720001E+02 -0.25359E+05
 0.24770000E+02 -0.26231E+05
 0.24820002E+02 -0.26991E+05
 0.24870001E+02 -0.28421E+05
 0.24920000E+02 -0.30289E+05
 0.24970001E+02 -0.32394E+05
 0.25020000E+02 -0.34441E+05
 0.25070002E+02 -0.36374E+05
 0.25120001E+02 -0.38017E+05
 0.25170000E+02 -0.39962E+05
 0.25220001E+02 -0.42676E+05
 0.25270000E+02 -0.45728E+05
 0.25320002E+02 -0.49035E+05
 0.25370001E+02 -0.51672E+05
 0.25420000E+02 -0.52789E+05
 0.25470001E+02 -0.52861E+05
 0.25520000E+02 -0.52737E+05
 0.25570002E+02 -0.53077E+05
 0.25620001E+02 -0.53007E+05
 0.25670000E+02 -0.51824E+05
 0.25720001E+02 -0.50014E+05
 0.25770000E+02 -0.47748E+05
 0.25820002E+02 -0.45039E+05
 0.25870001E+02 -0.42391E+05
 0.25920000E+02 -0.40224E+05
 0.25970001E+02 -0.37043E+05
 0.26020000E+02 -0.31725E+05
 0.26070002E+02 -0.25264E+05
 0.26120001E+02 -0.19373E+05
 0.26170000E+02 -0.14891E+05
 0.26220001E+02 -0.10400E+05
 0.26270000E+02 -0.44510E+04
 0.26320002E+02  0.23050E+04
 0.26370001E+02  0.84920E+04
 0.26420000E+02  0.13790E+05
 0.26470001E+02  0.18376E+05
 0.26520000E+02  0.22361E+05
 0.26570002E+02  0.25271E+05
 0.26620001E+02  0.26598E+05
 0.26670000E+02  0.26120E+05
 0.26720001E+02  0.23473E+05
 0.26770000E+02  0.20359E+05
 0.26820002E+02  0.18913E+05
 0.26870001E+02  0.18693E+05
 0.26920000E+02  0.18819E+05
 0.26970001E+02  0.19433E+05
 0.27020000E+02  0.20230E+05
 0.27070002E+02  0.20364E+05
 0.27120001E+02  0.19902E+05
 0.27170000E+02  0.19585E+05
 0.27220001E+02  0.19454E+05
 0.27270000E+02  0.19093E+05
 0.27320002E+02  0.18263E+05
 0.27370001E+02  0.17376E+05
 0.27420000E+02  0.17335E+05
 0.27470001E+02  0.17741E+05
 0.27520000E+02  0.17369E+05
 0.27570002E+02  0.15966E+05
 0.27620001E+02  0.14441E+05
 0.27670000E+02  0.13726E+05
 0.27720001E+02  0.13512E+05
 0.27770000E+02  0.12561E+05
 0.27820002E+02  0.10510E+05
 0.27870001E+02  0.80580E+04
 0.27920000E+02  0.56800E+04
 0.27970001E+02  0.43600E+04
 0.28020000E+02  0.44470E+04
 0.28070002E+02  0.52910E+04
 0.28120001E+02  0.62570E+04
 0.28170000E+02  0.69940E+04
 0.28220001E+02  0.77480E+04
 0.28270000E+02  0.79350E+04
 0.28320002E+02  0.80370E+04
 0.28370001E+02  0.86750E+04
 0.28420000E+02  0.94340E+04
 0.28470001E+02  0.10285E+05
 0.28520000E+02  0.10629E+05
 0.28570002E+02  0.10162E+05
 0.28620001E+02  0.89780E+04
 0.28670000E+02  0.72860E+04
 0.28720001E+02  0.51530E+04
 0.28770000E+02  0.30970E+04
 0.28820002E+02  0.16980E+04
 0.28870001E+02  0.10090E+04
 0.28920000E+02  0.12320E+04
 0.28970001E+02  0.21270E+04
 0.29020000E+02  0.35650E+04
 0.29070002E+02  0.54840E+04
 0.29120001E+02  0.74370E+04
 0.29170000E+02  0.95710E+04
 0.29220001E+02  0.11922E+05
 0.29270000E+02  0.13499E+05
 0.29320002E+02  0.14155E+05
 0.29370001E+02  0.14553E+05
 0.29420000E+02  0.15538E+05
 0.29470001E+02  0.17063E+05
 0.29520000E+02  0.18280E+05
 0.29570002E+02  0.18885E+05
 0.29620001E+02  0.18729E+05
 0.29670000E+02  0.18613E+05
 0.29720001E+02  0.19323E+05
 0.29770000E+02  0.20642E+05
 0.29820002E+02  0.21489E+05
 0.29870001E+02  0.21443E+05
 0.29920000E+02  0.20970E+05
 0.29970001E+02  0.19577E+05
 0.30020000E+02  0.16570E+05
 0.30070000E+02  0.12482E+05
 0.30120003E+02  0.90880E+04
 0.30170002E+02  0.70780E+04
 0.30220001E+02  0.56100E+04
 0.30270000E+02  0.40980E+04
 0.30320000E+02  0.26930E+04
 0.30370003E+02  0.14970E+04
 0.30420002E+02 -0.16200E+03
 0.30470001E+02 -0.31780E+04
 0.30520000E+02 -0.73370E+04
 0.30570000E+02 -0.11119E+05
 0.30620003E+02 -0.13420E+05
 0.30670002E+02 -0.14200E+05
 0.30720001E+02 -0.13389E+05
 0.30770000E+02 -0.11183E+05
 0.30820000E+02 -0.83710E+04
 0.30870003E+02 -0.53540E+04
 0.30920002E+02 -0.24970E+04
 0.30970001E+02 -0.12100E+03
 0.31020000E+02  0.20870E+04
 0.31070000E+02  0.49350E+04
 0.31120003E+02  0.93840E+04
 0.31170002E+02  0.14961E+05
 0.31220001E+02  0.19349E+05
 0.31270000E+02  0.21278E+05
 0.31320000E+02  0.21526E+05
 0.31370003E+02  0.21385E+05
 0.31420002E+02  0.21251E+05
 0.31470001E+02  0.21347E+05
 0.31520000E+02  0.20917E+05
 0.31570000E+02  0.19353E+05
 0.31620003E+02  0.18212E+05
 0.31670002E+02  0.17256E+05
 0.31720001E+02  0.16272E+05
 0.31770000E+02  0.14744E+05
 0.31820000E+02  0.12437E+05
 0.31870003E+02  0.10633E+05
 0.31920002E+02  0.89220E+04
 0.31970001E+02  0.78010E+04
 0.32020000E+02  0.70430E+04
 0.32070000E+02  0.62490E+04
 0.32120003E+02  0.62460E+04
 0.32170002E+02  0.67310E+04
 0.32220001E+02  0.73320E+04
 0.32270000E+02  0.79360E+04
 0.32320000E+02  0.87550E+04
 0.32370003E+02  0.99220E+04
 0.32420002E+02  0.10735E+05
 0.32470001E+02  0.10027E+05
 0.32520000E+02  0.74880E+04
 0.32570000E+02  0.38410E+04
 0.32620003E+02  0.40800E+03
 0.32670002E+02 -0.24200E+04
 0.32720001E+02 -0.54670E+04
 0.32770000E+02 -0.80800E+04
 0.32820000E+02 -0.98090E+04
 0.32870003E+02 -0.11032E+05
 0.32920002E+02 -0.11794E+05
 0.32970001E+02 -0.12469E+05
 0.33020000E+02 -0.12527E+05
 0.33070000E+02 -0.11889E+05
 0.33120003E+02 -0.11470E+05
 0.33170002E+02 -0.11522E+05
 0.33220001E+02 -0.11273E+05
 0.33270000E+02 -0.97420E+04
 0.33320000E+02 -0.80490E+04
 0.33370003E+02 -0.73220E+04
 0.33420002E+02 -0.73040E+04
 0.33470001E+02 -0.74680E+04
 0.33520000E+02 -0.71650E+04
 0.33570000E+02 -0.65480E+04
 0.33620003E+02 -0.55180E+04
 0.33670002E+02 -0.50300E+04
 0.33720001E+02 -0.61350E+04
 0.33770000E+02 -0.74690E+04
 0.33820000E+02 -0.79470E+04
 0.33870003E+02 -0.82100E+04
 0.33920002E+02 -0.92530E+04
 0.33970001E+02 -0.11100E+05
 0.34020000E+02 -0.13354E+05
 0.34070000E+02 -0.15024E+05
 0.34120003E+02 -0.15018E+05
 0.34170002E+02 -0.14169E+05
 0.34220001E+02 -0.14063E+05
 0.34270000E+02 -0.15042E+05
 0.34320000E+02 -0.16267E+05
 0.34370003E+02 -0.17551E+05
 0.34420002E+02 -0.19731E+05
 0.34470001E+02 -0.23253E+05
 0.34520000E+02 -0.27825E+05
 0.34570000E+02 -0.32233E+05
 0.34620003E+02 -0.35528E+05
 0.34670002E+02 -0.37948E+05
 0.34720001E+02 -0.40223E+05
 0.34770000E+02 -0.42816E+05
 0.34820000E+02 -0.45631E+05
 0.34870003E+02 -0.48182E+05
 0.34920002E+02 -0.49719E+05
 0.34970001E+02 -0.50252E+05
 0.35020000E+02 -0.50283E+05
 0.35070000E+02 -0.49780E+05
 0.35120003E+02 -0.48534E+05
 0.35170002E+02 -0.46405E+05
 0.35220001E+02 -0.43642E+05
 0.35270000E+02 -0.40890E+05
 0.35320000E+02 -0.38341E+05
 0.35370003E+02 -0.35845E+05
 0.35420002E+02 -0.33560E+05
 0.35470001E+02 -0.31119E+05
 0.35520000E+02 -0.27779E+05
 0.35570000E+02 -0.23502E+05
 0.35620003E+02 -0.19065E+05
 0.35670002E+02 -0.16122E+05
 0.35720001E+02 -0.15213E+05
 0.35770000E+02 -0.15394E+05
 0.35820000E+02 -0.16331E+05
 0.35870003E+02 -0.17502E+05
 0.35920002E+02 -0.18320E+05
 0.35970001E+02 -0.18851E+05
 0.36020000E+02 -0.18681E+05
 0.36070000E+02 -0.17635E+05
 0.36120003E+02 -0.16042E+05
 0.36170002E+02 -0.13755E+05
 0.36220001E+02 -0.10508E+05
 0.36270000E+02 -0.66510E+04
 0.36320000E+02 -0.29150E+04
 0.36370003E+02  0.41800E+03
 0.36420002E+02  0.33890E+04
 0.36470001E+02  0.63990E+04
 0.36520000E+02  0.99420E+04
 0.36570000E+02  0.13821E+05
 0.36620003E+02  0.17626E+05
 0.36670002E+02  0.21453E+05
 0.36720001E+02  0.25312E+05
 0.36770000E+02  0.28621E+05
 0.36820000E+02  0.30801E+05
 0.36870003E+02  0.31803E+05
 0.36920002E+02  0.32189E+05
 0.36970001E+02  0.32691E+05
 0.37020000E+02  0.33560E+05
 0.37070000E+02  0.34201E+05
 0.37120003E+02  0.34096E+05
 0.37170002E+02  0.33144E+05
 0.37220001E+02  0.31662E+05
 0.37270000E+02  0.29955E+05
 0.37320000E+02  0.27400E+05
 0.37370003E+02  0.23998E+05
 0.37420002E+02  0.20739E+05
 0.37470001E+02  0.17661E+05
 0.37520000E+02  0.14303E+05
 0.37570000E+02  0.11201E+05
 0.37620003E+02  0.88980E+04
 0.37670002E+02  0.75670E+04
 0.37720001E+02  0.71520E+04
 0.37770000E+02  0.72090E+04
 0.37820000E+02  0.76400E+04
 0.37870003E+02  0.85940E+04
 0.37920002E+02  0.10482E+05
 0.37970001E+02  0.13098E+05
 0.38020000E+02  0.15468E+05
 0.38070000E+02  0.17329E+05
 0.38120003E+02  0.18928E+05
 0.38170002E+02  0.20663E+05
 0.38220001E+02  0.22816E+05
 0.38270000E+02  0.25255E+05
 0.38320000E+02  0.27107E+05
 0.38370003E+02  0.27290E+05
 0.38420002E+02  0.25848E+05
 0.38470001E+02  0.23514E+05
 0.38520000E+02  0.20904E+05
 0.38570000E+02  0.17830E+05
 0.38620003E+02  0.13877E+05
 0.38670002E+02  0.93580E+04
 0.38720001E+02  0.45570E+04
 0.38770000E+02 -0.32000E+02
 0.38820000E+02 -0.43150E+04
 0.38870003E+02 -0.92390E+04
 0.38920002E+02 -0.14792E+05
 0.38970001E+02 -0.19811E+05
 0.39020000E+02 -0.23461E+05
 0.39070000E+02 -0.25855E+05
 0.39120003E+02 -0.27225E+05
 0.39170002E+02 -0.27534E+05
 0.39220001E+02 -0.26862E+05
 0.39270000E+02 -0.25490E+05
 0.39320000E+02 -0.23729E+05
 0.39370003E+02 -0.20821E+05
 0.39420002E+02 -0.16523E+05
 0.39470001E+02 -0.12274E+05
 0.39520000E+02 -0.87100E+04
 0.39570000E+02 -0.47050E+04
 0.39620003E+02  0.58500E+03
 0.39670002E+02  0.70760E+04
 0.39720001E+02  0.14541E+05
 0.39770000E+02  0.22277E+05
 0.39820000E+02  0.29732E+05
 0.39870003E+02  0.36531E+05
 0.39920002E+02  0.42546E+05
 0.39970001E+02  0.48314E+05
 0.40020000E+02  0.53784E+05
 0.40070000E+02  0.57749E+05
 0.40120003E+02  0.59306E+05
 0.40170002E+02  0.59481E+05
 0.40220001E+02  0.59274E+05
 0.40270000E+02  0.58573E+05
 0.40320000E+02  0.56975E+05
 0.40370003E+02  0.54177E+05
 0.40420002E+02  0.50749E+05
 0.40470001E+02  0.47345E+05
 0.40520000E+02  0.44298E+05
 0.40570000E+02  0.41054E+05
 0.40620003E+02  0.36710E+05
 0.40670002E+02  0.31188E+05
 0.40720001E+02  0.25066E+05
 0.40770000E+02  0.19492E+05
 0.40820000E+02  0.14825E+05
 0.40870003E+02  0.10276E+05
 0.40920002E+02  0.53760E+04
 0.40970001E+02  0.54900E+03
 0.41020000E+02 -0.34240E+04
 0.41070000E+02 -0.63580E+04
 0.41120003E+02 -0.87150E+04
 0.41170002E+02 -0.10619E+05
 0.41220001E+02 -0.12149E+05
 0.41270000E+02 -0.13340E+05
 0.41320000E+02 -0.14065E+05
 0.41370003E+02 -0.14315E+05
 0.41420002E+02 -0.14014E+05
 0.41470001E+02 -0.13330E+05
 0.41520000E+02 -0.12186E+05
 0.41570000E+02 -0.10588E+05
 0.41620003E+02 -0.93910E+04
 0.41670002E+02 -0.93520E+04
 0.41720001E+02 -0.99950E+04
 0.41770000E+02 -0.10874E+05
 0.41820000E+02 -0.12114E+05
 0.41870003E+02 -0.13138E+05
 0.41920002E+02 -0.13642E+05
 0.41970001E+02 -0.13599E+05
 0.42020000E+02 -0.12774E+05
 0.42070000E+02 -0.11356E+05
 0.42120003E+02 -0.95500E+04
 0.42170002E+02 -0.78820E+04
 0.42220001E+02 -0.66900E+04
 0.42270000E+02 -0.61710E+04
 0.42320000E+02 -0.67340E+04
 0.42370003E+02 -0.80860E+04
 0.42420002E+02 -0.99030E+04
 0.42470001E+02 -0.11833E+05
 0.42520000E+02 -0.13888E+05
 0.42570000E+02 -0.16148E+05
 0.42620003E+02 -0.18456E+05
 0.42670002E+02 -0.21102E+05
 0.42720001E+02 -0.23781E+05
 0.42770000E+02 -0.25702E+05
 0.42820000E+02 -0.26940E+05
 0.42870003E+02 -0.28458E+05
 0.42920002E+02 -0.30271E+05
 0.42970001E+02 -0.32252E+05
 0.43020000E+02 -0.34676E+05
 0.43070000E+02 -0.38087E+05
 0.43120003E+02 -0.42808E+05
 0.43170002E+02 -0.47015E+05
 0.43220001E+02 -0.48320E+05
 0.43270000E+02 -0.48111E+05
 0.43320000E+02 -0.47907E+05
 0.43370003E+02 -0.46546E+05
 0.43420002E+02 -0.41529E+05
 0.43470001E+02 -0.33657E+05
 0.43520000E+02 -0.30266E+05
 0.43570000E+02 -0.28070E+05
 0.43620003E+02 -0.23125E+05
 0.43670002E+02 -0.15451E+05
 0.43720001E+02 -0.11394E+05
 0.43770000E+02 -0.19803E+05
 0.43820000E+02 -0.27237E+05
 0.43870003E+02 -0.24769E+05
 0.43920002E+02 -0.18678E+05
 0.43970001E+02 -0.11150E+05
 0.44020000E+02 -0.47290E+04
 0.44070000E+02  0.19160E+04
 0.44120003E+02  0.19212E+05
 0.44170002E+02  0.29769E+05
 0.44220001E+02  0.16636E+05
 0.44270000E+02  0.80930E+04
 0.44320000E+02  0.16600E+05
 0.44370003E+02 -0.14420E+04
 0.44420002E+02 -0.19121E+05
 0.44470001E+02 -0.16201E+05
 0.44520000E+02 -0.38137E+05
 0.44570000E+02 -0.50887E+05
 0.44620003E+02 -0.39955E+05
 0.44670002E+02 -0.27831E+05
 0.44720001E+02 -0.45777E+05
 0.44770000E+02 -0.40031E+05
 0.44820000E+02 -0.13505E+05
 0.44870003E+02 -0.20741E+05
 0.44920002E+02 -0.63620E+04
 0.44970001E+02  0.37780E+04
 0.45020000E+02  0.63830E+04
 0.45070000E+02 -0.35000E+04
 0.45120003E+02  0.27860E+04
 0.45170002E+02  0.16047E+05
 0.45220001E+02 -0.33050E+04
 0.45270000E+02  0.56850E+04
 0.45320000E+02  0.18424E+05
 0.45370003E+02  0.19220E+05
 0.45420002E+02  0.17959E+05
 0.45470001E+02  0.22224E+05
 0.45520000E+02  0.31847E+05
 0.45570000E+02  0.44370E+05
 0.45620003E+02  0.41196E+05
 0.45670002E+02  0.34853E+05
 0.45720001E+02  0.38249E+05
 0.45770000E+02  0.31402E+05
 0.45820000E+02  0.58089E+05
 0.45870003E+02  0.65432E+05
 0.45920002E+02  0.21876E+05
 0.45970001E+02  0.16142E+05
 0.46020000E+02  0.36078E+05
 0.46070000E+02  0.17184E+05
 0.46120003E+02 -0.43100E+04
 0.46170002E+02 -0.35550E+04
 0.46220001E+02  0.76770E+04
 0.46270000E+02  0.34490E+04
 0.46320000E+02 -0.21197E+05
 0.46370003E+02 -0.28970E+05
 0.46420002E+02 -0.28962E+05
 0.46470001E+02 -0.19530E+05
 0.46520000E+02 -0.16689E+05
 0.46570000E+02 -0.22889E+05
 0.46620003E+02 -0.23462E+05
 0.46670002E+02 -0.23359E+05
 0.46720001E+02 -0.87600E+04
 0.46770000E+02 -0.49320E+04
 0.46820000E+02 -0.25787E+05
 0.46870003E+02 -0.28869E+05
 0.46920002E+02 -0.28385E+05
 0.46970001E+02 -0.42407E+05
 0.47020000E+02 -0.28922E+05
 0.47070000E+02 -0.29649E+05
 0.47120003E+02 -0.46363E+05
 0.47170002E+02 -0.31065E+05
 0.47220001E+02 -0.28263E+05
 0.47270000E+02 -0.42627E+05
 0.47320000E+02 -0.35635E+05
 0.47370003E+02 -0.19004E+05
 0.47420002E+02 -0.19351E+05
 0.47470001E+02 -0.13561E+05
 0.47520000E+02 -0.33010E+04
 0.47570000E+02 -0.52160E+04
 0.47620003E+02  0.73000E+03
 0.47670002E+02 -0.49480E+04
 0.47720001E+02 -0.12314E+05
 0.47770000E+02 -0.18494E+05
 0.47820000E+02 -0.36868E+05
 0.47870003E+02 -0.19034E+05
 0.47920002E+02  0.11608E+05
 0.47970001E+02  0.15236E+05
 0.48020000E+02  0.18257E+05
 0.48070000E+02  0.21361E+05
 0.48120003E+02  0.22101E+05
 0.48170002E+02  0.32717E+05
 0.48220001E+02  0.28703E+05
 0.48270000E+02  0.11596E+05
 0.48320000E+02  0.19235E+05
 0.48370003E+02  0.29607E+05
 0.48420002E+02  0.17283E+05
 0.48470001E+02 -0.11568E+05
 0.48520000E+02 -0.30283E+05
 0.48570000E+02 -0.34146E+05
 0.48620003E+02 -0.43731E+05
 0.48670002E+02 -0.41195E+05
 0.48720001E+02 -0.31425E+05
 0.48770000E+02 -0.29594E+05
 0.48820000E+02 -0.34350E+05
 0.48870003E+02 -0.37289E+05
 0.48920002E+02 -0.39921E+05
 0.48970001E+02 -0.34797E+05
 0.49020000E+02 -0.12000E+05
 0.49070000E+02 -0.15019E+05
 0.49120003E+02 -0.19227E+05
 0.49170002E+02 -0.16860E+04
 0.49220001E+02 -0.36420E+04
 0.49270000E+02  0.24900E+03
 0.49320000E+02  0.43680E+04
 0.49370003E+02 -0.15381E+05
 0.49420002E+02 -0.35057E+05
 0.49470001E+02 -0.46153E+05
 0.49520000E+02 -0.63774E+05
 0.49570000E+02 -0.92091E+05
 0.49620003E+02 -0.89362E+05
 0.49670002E+02 -0.77529E+05
 0.49720001E+02 -0.87748E+05
 0.49770000E+02 -0.10086E+06
 0.49820000E+02 -0.11747E+06
 0.49870003E+02 -0.10906E+06
 0.49920002E+02 -0.92017E+05
 0.49970001E+02 -0.89552E+05
 0.50020000E+02 -0.94300E+05
 0.50070000E+02 -0.84291E+05
 0.50120003E+02 -0.56582E+05
 0.50170002E+02 -0.63619E+05
 0.50220001E+02 -0.69196E+05
 0.50270000E+02 -0.55635E+05
 0.50320000E+02 -0.52864E+05
 0.50370003E+02 -0.40978E+05
 0.50420002E+02 -0.38095E+05
 0.50470001E+02 -0.44235E+05
 0.50520000E+02 -0.15422E+05
 0.50570000E+02 -0.17220E+04
 0.50620003E+02 -0.26789E+05
 0.50670002E+02 -0.19311E+05
 0.50720001E+02  0.22130E+04
 0.50770000E+02 -0.14524E+05
 0.50820000E+02 -0.38283E+05
 0.50870003E+02 -0.33797E+05
 0.50920002E+02 -0.22399E+05
 0.50970001E+02 -0.11166E+05
 0.51020000E+02 -0.16160E+05
 0.51070000E+02 -0.27551E+05
 0.51120003E+02 -0.39658E+05
 0.51170002E+02 -0.54111E+05
 0.51220001E+02 -0.40876E+05
 0.51270000E+02 -0.45805E+05
 0.51320000E+02 -0.46334E+05
 0.51370003E+02 -0.16082E+05
 0.51420002E+02  0.61040E+04
 0.51470001E+02  0.95430E+04
 0.51520000E+02 -0.51200E+03
 0.51570000E+02  0.28540E+04
 0.51620003E+02  0.13407E+05
 0.51670002E+02  0.38131E+05
 0.51720001E+02  0.60636E+05
 0.51770000E+02  0.54885E+05
 0.51820000E+02  0.52510E+05
 0.51870003E+02  0.45527E+05
 0.51920002E+02  0.30218E+05
 0.51970001E+02  0.20560E+05
 0.52020000E+02  0.64890E+04
 0.52070000E+02 -0.63800E+04
 0.52120003E+02 -0.43457E+05
 0.52170002E+02 -0.70504E+05
 0.52220001E+02 -0.45239E+05
 0.52270000E+02 -0.23464E+05
 0.52320000E+02 -0.10826E+05
 0.52370003E+02  0.99940E+04
 0.52420002E+02  0.47789E+05
 0.52470001E+02  0.73230E+05
 0.52520000E+02  0.75278E+05
 0.52570000E+02  0.10183E+06
 0.52620003E+02  0.12527E+06
 0.52670002E+02  0.14165E+06
 0.52720001E+02  0.17045E+06
 0.52770000E+02  0.19414E+06
 0.52820000E+02  0.17746E+06
 0.52870003E+02  0.12745E+06
 0.52920002E+02  0.12186E+06
 0.52970001E+02  0.13104E+06
 0.53020000E+02  0.10216E+06
 0.53070000E+02  0.64375E+05
 0.53120003E+02  0.40256E+05
 0.53170002E+02  0.29480E+05
 0.53220001E+02  0.41253E+05
 0.53270000E+02  0.76686E+05
 0.53320000E+02  0.89839E+05
 0.53370003E+02  0.78099E+05
 0.53420002E+02  0.11370E+06
 0.53470001E+02  0.18054E+06
 0.53520000E+02  0.17791E+06
 0.53570000E+02  0.12038E+06
 0.53620003E+02  0.75002E+05
 0.53670002E+02  0.20683E+05
 0.53720001E+02 -0.52489E+05
 0.53770000E+02 -0.78073E+05
 0.53820000E+02 -0.57456E+05
 0.53870003E+02 -0.52390E+05
 0.53920002E+02 -0.83806E+05
 0.53970001E+02 -0.11108E+06
 0.54020000E+02 -0.87291E+05
 0.54070000E+02 -0.43205E+05
 0.54120003E+02 -0.23690E+04
 0.54170002E+02  0.37214E+05
 0.54220001E+02  0.65528E+05
 0.54270000E+02  0.52799E+05
 0.54320000E+02  0.26178E+05
 0.54370003E+02  0.36752E+05
 0.54420002E+02  0.48424E+05
 0.54470001E+02  0.71057E+05
 0.54520000E+02  0.98093E+05
 0.54570000E+02  0.90935E+05
 0.54620003E+02  0.86942E+05
 0.54670002E+02  0.81265E+05
 0.54720001E+02  0.70741E+05
 0.54770000E+02  0.83350E+05
 0.54820000E+02  0.11430E+06
 0.54870003E+02  0.11290E+06
 0.54920002E+02  0.69722E+05
 0.54970001E+02  0.50578E+05
 0.55020000E+02  0.30330E+05
 0.55070000E+02  0.66900E+04
 0.55120003E+02  0.12651E+05
 0.55170002E+02  0.40849E+05
 0.55220001E+02  0.84351E+05
 0.55270000E+02  0.10951E+06
 0.55320000E+02  0.12181E+06
 0.55370003E+02  0.14194E+06
 0.55420002E+02  0.15983E+06
 0.55470001E+02  0.16158E+06
 0.55520000E+02  0.15226E+06
 0.55570000E+02  0.11367E+06
 0.55620003E+02  0.90246E+05
 0.55670002E+02  0.10086E+06
 0.55720001E+02  0.59321E+05
 0.55770000E+02  0.15095E+05
 0.55820000E+02  0.32123E+05
 0.55870003E+02  0.56412E+05
 0.55920002E+02  0.52120E+05
 0.55970001E+02  0.44856E+05
 0.56020000E+02  0.49625E+05
 0.56070000E+02  0.55392E+05
 0.56120003E+02  0.66736E+05
 0.56170002E+02  0.43386E+05
 0.56220001E+02 -0.21105E+05
 0.56270000E+02 -0.56746E+05
 0.56320000E+02 -0.59900E+05
 0.56370003E+02 -0.76341E+05
 0.56420002E+02 -0.12512E+06
 0.56470001E+02 -0.19213E+06
 0.56520000E+02 -0.22783E+06
 0.56570000E+02 -0.19789E+06
 0.56620003E+02 -0.17317E+06
 0.56670002E+02 -0.16247E+06
 0.56720001E+02 -0.94364E+05
 0.56770000E+02 -0.31039E+05
 0.56820000E+02  0.87500E+03
 0.56870003E+02  0.60504E+05
 0.56920002E+02  0.13636E+06
 0.56970001E+02  0.19366E+06
 0.57020000E+02  0.21047E+06
 0.57070000E+02  0.18223E+06
 0.57120003E+02  0.16732E+06
 0.57170002E+02  0.17457E+06
 0.57220001E+02  0.13562E+06
 0.57270000E+02  0.55477E+05
 0.57320000E+02  0.16359E+05
 0.57370003E+02  0.33630E+05
 0.57420002E+02 -0.13301E+05
 0.57470001E+02 -0.10752E+06
 0.57520000E+02 -0.12230E+06
 0.57570000E+02 -0.99755E+05
 0.57620003E+02 -0.10295E+06
 0.57670002E+02 -0.11740E+06
 0.57720001E+02 -0.12334E+06
 0.57770000E+02 -0.13680E+06
 0.57820000E+02 -0.16767E+06
 0.57870003E+02 -0.19594E+06
 0.57920002E+02 -0.18489E+06
 0.57970001E+02 -0.12388E+06
 0.58020000E+02 -0.82763E+05
 0.58070000E+02 -0.58683E+05
 0.58120003E+02 -0.38450E+04
 0.58170002E+02  0.26218E+05
 0.58220001E+02  0.76100E+03
 0.58270000E+02 -0.66910E+04
 0.58320000E+02  0.30484E+05
 0.58370003E+02  0.42495E+05
 0.58420002E+02 -0.12217E+05
 0.58470001E+02 -0.97499E+05
 0.58520000E+02 -0.13739E+06
 0.58570000E+02 -0.12984E+06
 0.58620003E+02 -0.11054E+06
 0.58670002E+02 -0.78253E+05
 0.58720001E+02 -0.48219E+05
 0.58770000E+02 -0.27589E+05
 0.58820000E+02 -0.16712E+05
 0.58870003E+02  0.14560E+04
 0.58920002E+02  0.25441E+05
 0.58970001E+02  0.53991E+05
 0.59020000E+02  0.91149E+05
 0.59070000E+02  0.95593E+05
 0.59120003E+02  0.73228E+05
 0.59170002E+02  0.34090E+05
 0.59220001E+02 -0.81120E+04
 0.59270000E+02  0.27850E+04
 0.59320000E+02  0.42946E+05
 0.59370003E+02  0.51752E+05
 0.59420002E+02  0.68174E+05
 0.59470001E+02  0.13363E+06
 0.59520000E+02  0.17743E+06
 0.59570000E+02  0.16188E+06
 0.59620003E+02  0.14193E+06
 0.59670002E+02  0.13700E+06
 0.59720001E+02  0.13635E+06
 0.59770000E+02  0.10857E+06
 0.59820000E+02  0.62471E+05
 0.59870003E+02  0.68747E+05
 0.59920002E+02  0.10852E+06
 0.59970001E+02  0.12412E+06
 0.60020000E+02  0.13713E+06
 0.60070000E+02  0.17478E+06
 0.60120003E+02  0.19192E+06
 0.60170002E+02  0.16756E+06
 0.60220001E+02  0.16927E+06
 0.60270000E+02  0.20905E+06
 0.60320000E+02  0.20433E+06
 0.60370003E+02  0.16450E+06
 0.60420002E+02  0.11750E+06
 0.60470001E+02  0.52290E+05
 0.60520000E+02  0.58660E+04
 0.60570000E+02 -0.21191E+05
 0.60620003E+02 -0.13979E+05
 0.60670002E+02  0.18807E+05
 0.60720001E+02  0.31969E+05
 0.60770000E+02  0.32700E+05
 0.60820000E+02  0.39065E+05
 0.60870003E+02  0.35435E+05
 0.60920002E+02  0.24472E+05
 0.60970001E+02  0.29209E+05
 0.61020000E+02  0.20253E+05
 0.61070000E+02  0.31511E+05
 0.61120003E+02  0.10259E+06
 0.61170002E+02  0.16847E+06
 0.61220001E+02  0.19972E+06
 0.61270000E+02  0.21989E+06
 0.61320000E+02  0.20738E+06
 0.61370003E+02  0.17753E+06
 0.61420002E+02  0.16814E+06
 0.61470001E+02  0.12112E+06
 0.61520000E+02  0.46953E+05
 0.61570000E+02  0.24068E+05
 0.61620003E+02  0.47336E+05
 0.61670002E+02  0.83557E+05
 0.61720001E+02  0.81259E+05
 0.61770000E+02  0.75624E+05
 0.61820000E+02  0.11833E+06
 0.61870003E+02  0.13572E+06
 0.61920002E+02  0.13174E+06
 0.61970001E+02  0.12126E+06
 0.62020000E+02  0.10802E+06
 0.62070004E+02  0.10737E+06
 0.62119999E+02  0.46156E+05
 0.62170002E+02 -0.61137E+05
 0.62220005E+02 -0.11342E+06
 0.62270000E+02 -0.95036E+05
 0.62320004E+02 -0.72450E+05
 0.62369999E+02 -0.61374E+05
 0.62420002E+02 -0.55816E+05
 0.62470005E+02 -0.52651E+05
 0.62520000E+02 -0.16659E+05
 0.62570004E+02 -0.23450E+04
 0.62619999E+02 -0.36667E+05
 0.62670002E+02 -0.66830E+05
 0.62720005E+02 -0.11028E+06
 0.62770000E+02 -0.15028E+06
 0.62820004E+02 -0.16148E+06
 0.62869999E+02 -0.19242E+06
 0.62920002E+02 -0.23106E+06
 0.62970005E+02 -0.26246E+06
 0.63020000E+02 -0.29922E+06
 0.63070004E+02 -0.32962E+06
 0.63119999E+02 -0.34182E+06
 0.63170002E+02 -0.30560E+06
 0.63220005E+02 -0.22865E+06
 0.63270000E+02 -0.15360E+06
 0.63320004E+02 -0.11306E+06
 0.63369999E+02 -0.59178E+05
 0.63420002E+02  0.42178E+05
 0.63470005E+02  0.13876E+06
 0.63520000E+02  0.22875E+06
 0.63570004E+02  0.29060E+06
 0.63619999E+02  0.30892E+06
 0.63670002E+02  0.32014E+06
 0.63720005E+02  0.31372E+06
 0.63770000E+02  0.29929E+06
 0.63820004E+02  0.30478E+06
 0.63869999E+02  0.26014E+06
 0.63920002E+02  0.17149E+06
 0.63970005E+02  0.11047E+06
 0.64019997E+02  0.52515E+05
 0.64070000E+02 -0.11809E+05
 0.64119995E+02 -0.92780E+05
 0.64169998E+02 -0.15626E+06
 0.64220001E+02 -0.19587E+06
 0.64269997E+02 -0.24101E+06
 0.64320000E+02 -0.24366E+06
 0.64369995E+02 -0.20092E+06
 0.64419998E+02 -0.15591E+06
 0.64470001E+02 -0.14531E+06
 0.64519997E+02 -0.16566E+06
 0.64570000E+02 -0.19556E+06
 0.64619995E+02 -0.22949E+06
 0.64669998E+02 -0.27461E+06
 0.64720001E+02 -0.30619E+06
 0.64769997E+02 -0.30713E+06
 0.64820000E+02 -0.29241E+06
 0.64869995E+02 -0.23536E+06
 0.64919998E+02 -0.16870E+06
 0.64970001E+02 -0.16145E+06
 0.65019997E+02 -0.16510E+06
 0.65070000E+02 -0.11447E+06
 0.65119995E+02 -0.26066E+05
 0.65169998E+02  0.60180E+05
 0.65220001E+02  0.96662E+05
 0.65269997E+02  0.10035E+06
 0.65320000E+02  0.99948E+05
 0.65369995E+02  0.72739E+05
 0.65419998E+02  0.31379E+05
 0.65470001E+02  0.79710E+04
 0.65519997E+02  0.43500E+04
 0.65570000E+02 -0.12127E+05
 0.65619995E+02 -0.42250E+05
 0.65669998E+02 -0.65628E+05
 0.65720001E+02 -0.72745E+05
 0.65769997E+02 -0.50389E+05
 0.65820000E+02 -0.17376E+05
 0.65869995E+02  0.80100E+03
 0.65919998E+02 -0.49370E+04
 0.65970001E+02 -0.26759E+05
 0.66019997E+02 -0.41811E+05
 0.66070000E+02 -0.37793E+05
 0.66119995E+02 -0.37728E+05
 0.66169998E+02 -0.70552E+05
 0.66220001E+02 -0.11141E+06
 0.66269997E+02 -0.13815E+06
 0.66320000E+02 -0.16130E+06
 0.66369995E+02 -0.15667E+06
 0.66419998E+02 -0.12326E+06
 0.66470001E+02 -0.10571E+06
 0.66519997E+02 -0.66480E+05
 0.66570000E+02  0.88680E+04
 0.66619995E+02  0.65704E+05
 0.66669998E+02  0.92800E+05
 0.66720001E+02  0.93700E+05
 0.66769997E+02  0.11068E+06
 0.66820000E+02  0.10808E+06
 0.66869995E+02  0.30357E+05
 0.66919998E+02 -0.35213E+05
 0.66970001E+02 -0.42464E+05
 0.67019997E+02 -0.20611E+05
 0.67070000E+02  0.11529E+05
 0.67119995E+02  0.35382E+05
 0.67169998E+02  0.24283E+05
 0.67220001E+02 -0.53100E+04
 0.67269997E+02 -0.29175E+05
 0.67320000E+02 -0.66544E+05
 0.67369995E+02 -0.10902E+06
 0.67419998E+02 -0.13504E+06
 0.67470001E+02 -0.15504E+06
 0.67519997E+02 -0.18579E+06
 0.67570000E+02 -0.21040E+06
 0.67619995E+02 -0.23571E+06
 0.67669998E+02 -0.25340E+06
 0.67720001E+02 -0.22709E+06
 0.67769997E+02 -0.18738E+06
 0.67820000E+02 -0.14544E+06
 0.67869995E+02 -0.95208E+05
 0.67919998E+02 -0.42630E+05
 0.67970001E+02  0.11423E+05
 0.68019997E+02  0.47286E+05
 0.68070000E+02  0.56676E+05
 0.68119995E+02  0.58797E+05
 0.68169998E+02  0.68536E+05
 0.68220001E+02  0.56866E+05
 0.68269997E+02  0.33945E+05
 0.68320000E+02  0.26972E+05
 0.68369995E+02  0.17478E+05
 0.68419998E+02  0.34650E+04
 0.68470001E+02  0.18621E+05
 0.68519997E+02  0.77070E+05
 0.68570000E+02  0.11494E+06
 0.68619995E+02  0.11361E+06
 0.68669998E+02  0.10340E+06
 0.68720001E+02  0.93657E+05
 0.68769997E+02  0.85305E+05
 0.68820000E+02  0.72681E+05
 0.68869995E+02  0.68535E+05
 0.68919998E+02  0.52161E+05
 0.68970001E+02  0.42056E+05
 0.69019997E+02  0.37142E+05
 0.69070000E+02 -0.20876E+05
 0.69119995E+02 -0.10071E+06
 0.69169998E+02 -0.16668E+06
 0.69220001E+02 -0.21859E+06
 0.69269997E+02 -0.24996E+06
 0.69320000E+02 -0.24672E+06
 0.69369995E+02 -0.23299E+06
 0.69419998E+02 -0.23917E+06
 0.69470001E+02 -0.24018E+06
 0.69519997E+02 -0.22217E+06
 0.69570000E+02 -0.19820E+06
 0.69619995E+02 -0.19074E+06
 0.69669998E+02 -0.17487E+06
 0.69720001E+02 -0.15630E+06
 0.69769997E+02 -0.17406E+06
 0.69820000E+02 -0.17904E+06
 0.69869995E+02 -0.15536E+06
 0.69919998E+02 -0.14153E+06
 0.69970001E+02 -0.14009E+06
 0.70019997E+02 -0.10472E+06
 0.70070000E+02 -0.10095E+05
 0.70119995E+02  0.70770E+05
 0.70169998E+02  0.93719E+05
 0.70220001E+02  0.10550E+06
 0.70269997E+02  0.11339E+06
 0.70320000E+02  0.77731E+05
 0.70369995E+02  0.50450E+04
 0.70419998E+02 -0.50492E+05
 0.70470001E+02 -0.62174E+05
 0.70519997E+02 -0.40862E+05
 0.70570000E+02  0.41700E+04
 0.70619995E+02  0.58835E+05
 0.70669998E+02  0.11431E+06
 0.70720001E+02  0.15284E+06
 0.70769997E+02  0.17016E+06
 0.70820000E+02  0.18524E+06
 0.70869995E+02  0.19126E+06
 0.70919998E+02  0.17826E+06
 0.70970001E+02  0.15008E+06
 0.71019997E+02  0.13258E+06
 0.71070000E+02  0.13912E+06
 0.71119995E+02  0.12781E+06
 0.71169998E+02  0.84027E+05
 0.71220001E+02  0.34733E+05
 0.71269997E+02 -0.12049E+05
 0.71320000E+02 -0.34858E+05
 0.71369995E+02 -0.31592E+05
 0.71419998E+02 -0.28275E+05
 0.71470001E+02 -0.23455E+05
 0.71519997E+02 -0.12134E+05
 0.71570000E+02 -0.29380E+04
 0.71619995E+02 -0.22200E+04
 0.71669998E+02  0.73200E+03
 0.71720001E+02 -0.10613E+05
 0.71769997E+02 -0.28797E+05
 0.71820000E+02 -0.16435E+05
 0.71869995E+02 -0.16880E+05
 0.71919998E+02 -0.40216E+05
 0.71970001E+02 -0.44937E+05
 0.72019997E+02 -0.28255E+05
 0.72070000E+02  0.17556E+05
 0.72119995E+02  0.78756E+05
 0.72169998E+02  0.13752E+06
 0.72220001E+02  0.19809E+06
 0.72269997E+02  0.24954E+06
 0.72320000E+02  0.28198E+06
 0.72369995E+02  0.29628E+06
 0.72419998E+02  0.30190E+06
 0.72470001E+02  0.31232E+06
 0.72519997E+02  0.32233E+06
 0.72570000E+02  0.29482E+06
 0.72619995E+02  0.23292E+06
 0.72669998E+02  0.17236E+06
 0.72720001E+02  0.11255E+06
 0.72769997E+02  0.54416E+05
 0.72820000E+02  0.14693E+05
 0.72869995E+02  0.99530E+04
 0.72919998E+02  0.25642E+05
 0.72970001E+02  0.41916E+05
 0.73019997E+02  0.51485E+05
 0.73070000E+02  0.53018E+05
 0.73119995E+02  0.38538E+05
 0.73169998E+02  0.21127E+05
 0.73220001E+02  0.31506E+05
 0.73269997E+02  0.33213E+05
 0.73320000E+02  0.28996E+05
 0.73369995E+02  0.60572E+05
 0.73419998E+02  0.12081E+06
 0.73470001E+02  0.16348E+06
 0.73519997E+02  0.17590E+06
 0.73570000E+02  0.17527E+06
 0.73619995E+02  0.15245E+06
 0.73669998E+02  0.13057E+06
 0.73720001E+02  0.10545E+06
 0.73769997E+02  0.91738E+05
 0.73820000E+02  0.10597E+06
 0.73869995E+02  0.10037E+06
 0.73919998E+02  0.83514E+05
 0.73970001E+02  0.78457E+05
 0.74019997E+02  0.73863E+05
 0.74070000E+02  0.73990E+05
 0.74119995E+02  0.10450E+06
 0.74169998E+02  0.13074E+06
 0.74220001E+02  0.11283E+06
 0.74269997E+02  0.11036E+06
 0.74320000E+02  0.12381E+06
 0.74369995E+02  0.10214E+06
 0.74419998E+02  0.78625E+05
 0.74470001E+02  0.94378E+05
 0.74519997E+02  0.12641E+06
 0.74570000E+02  0.15056E+06
 0.74619995E+02  0.17038E+06
 0.74669998E+02  0.19439E+06
 0.74720001E+02  0.24129E+06
 0.74769997E+02  0.28579E+06
 0.74820000E+02  0.29386E+06
 0.74869995E+02  0.29345E+06
 0.74919998E+02  0.31208E+06
 0.74970001E+02  0.32040E+06
 0.75019997E+02  0.28148E+06
 0.75070000E+02  0.20806E+06
 0.75119995E+02  0.12280E+06
 0.75169998E+02  0.22359E+05
 0.75220001E+02 -0.80911E+05
 0.75269997E+02 -0.16361E+06
 0.75320000E+02 -0.22780E+06
 0.75369995E+02 -0.28070E+06
 0.75419998E+02 -0.31825E+06
 0.75470001E+02 -0.32442E+06
 0.75519997E+02 -0.30314E+06
 0.75570000E+02 -0.27568E+06
 0.75619995E+02 -0.25735E+06
 0.75669998E+02 -0.25445E+06
 0.75720001E+02 -0.24623E+06
 0.75769997E+02 -0.21939E+06
 0.75820000E+02 -0.22211E+06
 0.75869995E+02 -0.25527E+06
 0.75919998E+02 -0.25676E+06
 0.75970001E+02 -0.21435E+06
 0.76019997E+02 -0.14294E+06
 0.76070000E+02 -0.90111E+05
 0.76119995E+02 -0.61513E+05
 0.76169998E+02 -0.42716E+05
 0.76220001E+02 -0.45407E+05
 0.76269997E+02 -0.59516E+05
 0.76320000E+02 -0.81329E+05
 0.76369995E+02 -0.79135E+05
 0.76419998E+02 -0.53912E+05
 0.76470001E+02 -0.56426E+05
 0.76519997E+02 -0.87289E+05
 0.76570000E+02 -0.93444E+05
 0.76619995E+02 -0.72183E+05
 0.76669998E+02 -0.47369E+05
 0.76720001E+02 -0.39117E+05
 0.76769997E+02 -0.57438E+05
 0.76820000E+02 -0.79597E+05
 0.76869995E+02 -0.11126E+06
 0.76919998E+02 -0.10307E+06
 0.76970001E+02 -0.35129E+05
 0.77019997E+02 -0.61380E+04
 0.77070000E+02 -0.49300E+05
 0.77119995E+02 -0.83479E+05
 0.77169998E+02 -0.13301E+06
 0.77220001E+02 -0.16959E+06
 0.77269997E+02 -0.82301E+05
 0.77320000E+02  0.27847E+05
 0.77369995E+02  0.10834E+06
 0.77419998E+02  0.15523E+06
 0.77470001E+02  0.17150E+06
 0.77519997E+02  0.18581E+06
 0.77570000E+02  0.15392E+06
 0.77619995E+02  0.10734E+06
 0.77669998E+02  0.11741E+06
 0.77720001E+02  0.16466E+06
 0.77769997E+02  0.14514E+06
 0.77820000E+02  0.80119E+05
 0.77869995E+02  0.18690E+05
 0.77919998E+02 -0.44934E+05
 0.77970001E+02 -0.55024E+05
 0.78019997E+02 -0.62942E+05
 0.78070000E+02 -0.11720E+06
 0.78119995E+02 -0.15727E+06
 0.78169998E+02 -0.14848E+06
 0.78220001E+02 -0.97977E+05
 0.78269997E+02 -0.55314E+05
 0.78320000E+02 -0.63118E+05
 0.78369995E+02 -0.12531E+06
 0.78419998E+02 -0.20817E+06
 0.78470001E+02 -0.30020E+06
 0.78519997E+02 -0.38526E+06
 0.78570000E+02 -0.43780E+06
 0.78619995E+02 -0.46396E+06
 0.78669998E+02 -0.40575E+06
 0.78720001E+02 -0.29895E+06
 0.78769997E+02 -0.21518E+06
 0.78820000E+02 -0.11816E+06
 0.78869995E+02 -0.10596E+05
 0.78919998E+02  0.66331E+05
 0.78970001E+02  0.10247E+06
 0.79019997E+02  0.11679E+06
 0.79070000E+02  0.10575E+06
 0.79119995E+02  0.76552E+05
 0.79169998E+02  0.80740E+04
 0.79220001E+02 -0.74137E+05
 0.79269997E+02 -0.97642E+05
 0.79320000E+02 -0.81483E+05
 0.79369995E+02 -0.29631E+05
 0.79419998E+02  0.36490E+05
 0.79470001E+02  0.49119E+05
 0.79519997E+02  0.45520E+04
 0.79570000E+02 -0.31653E+05
 0.79619995E+02 -0.55644E+05
 0.79669998E+02 -0.80468E+05
 0.79720001E+02 -0.70358E+05
 0.79769997E+02 -0.67564E+05
 0.79820000E+02 -0.80095E+05
 0.79869995E+02 -0.71836E+05
 0.79919998E+02 -0.70704E+05
 0.79970001E+02 -0.97490E+05
 0.80019997E+02 -0.15422E+06
 0.80070000E+02 -0.18975E+06
 0.80119995E+02 -0.12931E+06
 0.80169998E+02 -0.21607E+05
 0.80220001E+02  0.36491E+05
 0.80269997E+02  0.37868E+05
 0.80320000E+02  0.16355E+05
 0.80369995E+02  0.11492E+05
 0.80419998E+02  0.21383E+05
 0.80470001E+02  0.82510E+04
 0.80519997E+02  0.26820E+04
 0.80570000E+02  0.16813E+05
 0.80619995E+02  0.81740E+04
 0.80669998E+02  0.55960E+04
 0.80720001E+02  0.35758E+05
 0.80769997E+02  0.76364E+05
 0.80820000E+02  0.81644E+05
 0.80869995E+02  0.26384E+05
 0.80919998E+02 -0.20064E+05
 0.80970001E+02 -0.52533E+05
 0.81019997E+02 -0.10704E+06
 0.81070000E+02 -0.13483E+06
 0.81119995E+02 -0.89602E+05
 0.81169998E+02 -0.19086E+05
 0.81220001E+02  0.22900E+05
 0.81269997E+02  0.82707E+05
 0.81320000E+02  0.13805E+06
 0.81369995E+02  0.12810E+06
 0.81419998E+02  0.66785E+05
 0.81470001E+02 -0.14244E+05
 0.81519997E+02 -0.71251E+05
 0.81570000E+02 -0.87413E+05
 0.81619995E+02 -0.76230E+05
 0.81669998E+02 -0.30737E+05
 0.81720001E+02  0.64277E+05
 0.81769997E+02  0.14211E+06
 0.81820000E+02  0.13771E+06
 0.81869995E+02  0.11150E+06
 0.81919998E+02  0.78378E+05
 0.81970001E+02  0.15943E+05
 0.82019997E+02 -0.59793E+05
 0.82070000E+02 -0.14298E+06
 0.82119995E+02 -0.16898E+06
 0.82169998E+02 -0.10074E+06
 0.82220001E+02  0.15468E+05
 0.82269997E+02  0.12937E+06
 0.82320000E+02  0.23827E+06
 0.82369995E+02  0.30877E+06
 0.82419998E+02  0.32118E+06
 0.82470001E+02  0.31734E+06
 0.82519997E+02  0.26021E+06
 0.82570000E+02  0.14742E+06
 0.82619995E+02  0.48061E+05
 0.82669998E+02 -0.44740E+04
 0.82720001E+02 -0.31645E+05
 0.82769997E+02 -0.35849E+05
 0.82820000E+02  0.22680E+04
 0.82869995E+02  0.60065E+05
 0.82919998E+02  0.13826E+06
 0.82970001E+02  0.19642E+06
 0.83019997E+02  0.17431E+06
 0.83070000E+02  0.90549E+05
 0.83119995E+02 -0.15400E+03
 0.83169998E+02 -0.66198E+05
 0.83220001E+02 -0.10212E+06
 0.83269997E+02 -0.87070E+05
 0.83320000E+02 -0.53102E+05
 0.83369995E+02 -0.95820E+04
 0.83419998E+02  0.49896E+05
 0.83470001E+02  0.51027E+05
 0.83519997E+02  0.16515E+05
 0.83570000E+02 -0.19881E+05
 0.83619995E+02 -0.76091E+05
 0.83669998E+02 -0.86128E+05
 0.83720001E+02 -0.80516E+05
 0.83769997E+02 -0.12102E+06
 0.83820000E+02 -0.14523E+06
 0.83869995E+02 -0.15171E+06
 0.83919998E+02 -0.14668E+06
 0.83970001E+02 -0.87716E+05
 0.84019997E+02 -0.51930E+04
 0.84070000E+02  0.39669E+05
 0.84119995E+02  0.61352E+05
 0.84169998E+02  0.79247E+05
 0.84220001E+02  0.44641E+05
 0.84269997E+02 -0.11458E+05
 0.84320000E+02 -0.58550E+05
 0.84369995E+02 -0.14363E+06
 0.84419998E+02 -0.24068E+06
 0.84470001E+02 -0.28378E+06
 0.84519997E+02 -0.25656E+06
 0.84570000E+02 -0.20872E+06
 0.84619995E+02 -0.16379E+06
 0.84669998E+02 -0.12774E+06
 0.84720001E+02 -0.13602E+06
 0.84769997E+02 -0.19099E+06
 0.84820000E+02 -0.24743E+06
 0.84869995E+02 -0.26521E+06
 0.84919998E+02 -0.29308E+06
 0.84970001E+02 -0.33811E+06
 0.85019997E+02 -0.34896E+06
 0.85070000E+02 -0.33435E+06
 0.85119995E+02 -0.32347E+06
 0.85169998E+02 -0.33735E+06
 0.85220001E+02 -0.33277E+06
 0.85269997E+02 -0.30524E+06
 0.85320000E+02 -0.28302E+06
 0.85369995E+02 -0.25528E+06
 0.85419998E+02 -0.26100E+06
 0.85470001E+02 -0.27123E+06
 0.85519997E+02 -0.28484E+06
 0.85570000E+02 -0.32850E+06
 0.85619995E+02 -0.31742E+06
 0.85669998E+02 -0.22567E+06
 0.85720001E+02 -0.86451E+05
 0.85769997E+02  0.12414E+05
 0.85820000E+02  0.25976E+05
 0.85869995E+02  0.18284E+05
 0.85919998E+02 -0.67490E+04
 0.85970001E+02 -0.60721E+05
 0.86019997E+02 -0.12148E+06
 0.86070000E+02 -0.15292E+06
 0.86119995E+02 -0.14786E+06
 0.86169998E+02 -0.16164E+06
 0.86220001E+02 -0.20972E+06
 0.86269997E+02 -0.26679E+06
 0.86320000E+02 -0.30486E+06
 0.86369995E+02 -0.28474E+06
 0.86419998E+02 -0.20114E+06
 0.86470001E+02 -0.11037E+06
 0.86519997E+02 -0.71184E+05
 0.86570000E+02 -0.78713E+05
 0.86619995E+02 -0.10462E+06
 0.86669998E+02 -0.13139E+06
 0.86720001E+02 -0.13574E+06
 0.86769997E+02 -0.12023E+06
 0.86820000E+02 -0.11510E+06
 0.86869995E+02 -0.11272E+06
 0.86919998E+02 -0.11037E+06
 0.86970001E+02 -0.12890E+06
 0.87019997E+02 -0.16039E+06
 0.87070000E+02 -0.18772E+06
 0.87119995E+02 -0.21502E+06
 0.87169998E+02 -0.22759E+06
 0.87220001E+02 -0.21332E+06
 0.87269997E+02 -0.19962E+06
 0.87320000E+02 -0.16499E+06
 0.87369995E+02 -0.11634E+06
 0.87419998E+02 -0.73285E+05
 0.87470001E+02 -0.99100E+04
 0.87519997E+02  0.41571E+05
 0.87570000E+02  0.62114E+05
 0.87619995E+02  0.85975E+05
 0.87669998E+02  0.12553E+06
 0.87720001E+02  0.16429E+06
 0.87769997E+02  0.14574E+06
 0.87820000E+02  0.68418E+05
 0.87869995E+02  0.60359E+05
 0.87919998E+02  0.13541E+06
 0.87970001E+02  0.22670E+06
 0.88019997E+02  0.34963E+06
 0.88070000E+02  0.44535E+06
 0.88119995E+02  0.42458E+06
 0.88169998E+02  0.33242E+06
 0.88220001E+02  0.28400E+06
 0.88269997E+02  0.28552E+06
 0.88320000E+02  0.28374E+06
 0.88369995E+02  0.30434E+06
 0.88419998E+02  0.35936E+06
 0.88470001E+02  0.41536E+06
 0.88519997E+02  0.43446E+06
 0.88570000E+02  0.39811E+06
 0.88619995E+02  0.34458E+06
 0.88669998E+02  0.27442E+06
 0.88720001E+02  0.19226E+06
 0.88769997E+02  0.14321E+06
 0.88820000E+02  0.12807E+06
 0.88869995E+02  0.16788E+06
 0.88919998E+02  0.24585E+06
 0.88970001E+02  0.31994E+06
 0.89019997E+02  0.40640E+06
 0.89070000E+02  0.48291E+06
 0.89119995E+02  0.54584E+06
 0.89169998E+02  0.60272E+06
 0.89220001E+02  0.59020E+06
 0.89269997E+02  0.47892E+06
 0.89320000E+02  0.32616E+06
 0.89369995E+02  0.23386E+06
 0.89419998E+02  0.25060E+06
 0.89470001E+02  0.31244E+06
 0.89519997E+02  0.35323E+06
 0.89570000E+02  0.36463E+06
 0.89619995E+02  0.31228E+06
 0.89669998E+02  0.18976E+06
 0.89720001E+02  0.72300E+05
 0.89769997E+02  0.42410E+04
 0.89820000E+02 -0.31371E+05
 0.89869995E+02 -0.47040E+05
 0.89919998E+02 -0.27458E+05
 0.89970001E+02  0.32585E+05
 0.90019997E+02  0.95388E+05
 0.90070000E+02  0.13134E+06
 0.90119995E+02  0.13793E+06
 0.90169998E+02  0.11440E+06
 0.90220001E+02  0.11781E+06
 0.90269997E+02  0.18262E+06
 0.90320000E+02  0.25904E+06
 0.90369995E+02  0.30175E+06
 0.90419998E+02  0.28429E+06
 0.90470001E+02  0.19171E+06
 0.90519997E+02  0.47115E+05
 0.90570000E+02 -0.77314E+05
 0.90619995E+02 -0.17514E+06
 0.90669998E+02 -0.26910E+06
 0.90720001E+02 -0.31019E+06
 0.90769997E+02 -0.28123E+06
 0.90820000E+02 -0.21578E+06
 0.90869995E+02 -0.13778E+06
 0.90919998E+02 -0.52757E+05
 0.90970001E+02  0.28632E+05
 0.91019997E+02  0.10750E+06
 0.91070000E+02  0.17192E+06
 0.91119995E+02  0.19342E+06
 0.91169998E+02  0.17427E+06
 0.91220001E+02  0.89562E+05
 0.91269997E+02 -0.34056E+05
 0.91320000E+02 -0.13008E+06
 0.91369995E+02 -0.20282E+06
 0.91419998E+02 -0.23765E+06
 0.91470001E+02 -0.24786E+06
 0.91519997E+02 -0.25245E+06
 0.91570000E+02 -0.22693E+06
 0.91619995E+02 -0.18796E+06
 0.91669998E+02 -0.15502E+06
 0.91720001E+02 -0.13494E+06
 0.91769997E+02 -0.12637E+06
 0.91820000E+02 -0.10809E+06
 0.91869995E+02 -0.87954E+05
 0.91919998E+02 -0.84193E+05
 0.91970001E+02 -0.51386E+05
 0.92019997E+02 -0.13656E+05
 0.92070000E+02 -0.62824E+05
 0.92119995E+02 -0.21347E+06
 0.92169998E+02 -0.39073E+06
 0.92220001E+02 -0.47358E+06
 0.92269997E+02 -0.45216E+06
 0.92320000E+02 -0.34978E+06
 0.92369995E+02 -0.18559E+06
 0.92419998E+02 -0.37092E+05
 0.92470001E+02  0.62022E+05
 0.92519997E+02  0.95735E+05
 0.92570000E+02  0.63454E+05
 0.92619995E+02 -0.13015E+05
 0.92669998E+02 -0.94590E+05
 0.92720001E+02 -0.13000E+06
 0.92769997E+02 -0.10850E+06
 0.92820000E+02 -0.31959E+05
 0.92869995E+02  0.73959E+05
 0.92919998E+02  0.13422E+06
 0.92970001E+02  0.12904E+06
 0.93019997E+02  0.86901E+05
 0.93070000E+02  0.19785E+05
 0.93119995E+02  0.71700E+03
 0.93169998E+02  0.73204E+05
 0.93220001E+02  0.16380E+06
 0.93269997E+02  0.22528E+06
 0.93320000E+02  0.27927E+06
 0.93369995E+02  0.33179E+06
 0.93419998E+02  0.37182E+06
 0.93470001E+02  0.40063E+06
 0.93519997E+02  0.39520E+06
 0.93570000E+02  0.34928E+06
 0.93619995E+02  0.32605E+06
 0.93669998E+02  0.34221E+06
 0.93720001E+02  0.33936E+06
 0.93769997E+02  0.30527E+06
 0.93820000E+02  0.25694E+06
 0.93869995E+02  0.18061E+06
 0.93919998E+02  0.84318E+05
 0.93970001E+02  0.25940E+05
 0.94019997E+02  0.26809E+05
 0.94070000E+02  0.46830E+05
 0.94119995E+02  0.78170E+05
 0.94169998E+02  0.12579E+06
 0.94220001E+02  0.15116E+06
 0.94269997E+02  0.13853E+06
 0.94320000E+02  0.10342E+06
 0.94369995E+02  0.36231E+05
 0.94419998E+02 -0.42559E+05
 0.94470001E+02 -0.85232E+05
 0.94519997E+02 -0.11142E+06
 0.94570000E+02 -0.13057E+06
 0.94619995E+02 -0.10905E+06
 0.94669998E+02 -0.68403E+05
 0.94720001E+02 -0.39710E+05
 0.94769997E+02 -0.34504E+05
 0.94820000E+02 -0.79372E+05
 0.94869995E+02 -0.16111E+06
 0.94919998E+02 -0.24199E+06
 0.94970001E+02 -0.28639E+06
 0.95019997E+02 -0.25062E+06
 0.95070000E+02 -0.14305E+06
 0.95119995E+02 -0.36950E+04
 0.95169998E+02  0.11573E+06
 0.95220001E+02  0.16250E+06
 0.95269997E+02  0.12356E+06
 0.95320000E+02  0.44797E+05
 0.95369995E+02 -0.59530E+04
 0.95419998E+02 -0.22952E+05
 0.95470001E+02 -0.13448E+05
 0.95519997E+02 -0.12918E+05
 0.95570000E+02 -0.69355E+05
 0.95619995E+02 -0.14136E+06
 0.95669998E+02 -0.16666E+06
 0.95720001E+02 -0.12882E+06
 0.95769997E+02 -0.65901E+05
 0.95820000E+02 -0.82170E+04
 0.95869995E+02  0.53494E+05
 0.95919998E+02  0.11943E+06
 0.95970001E+02  0.16348E+06
 0.96019997E+02  0.18343E+06
 0.96070000E+02  0.19930E+06
 0.96119995E+02  0.17831E+06
 0.96169998E+02  0.17034E+06
 0.96220001E+02  0.21201E+06
 0.96269997E+02  0.24374E+06
 0.96320000E+02  0.29121E+06
 0.96369995E+02  0.33707E+06
 0.96419998E+02  0.37754E+06
 0.96470001E+02  0.46527E+06
 0.96519997E+02  0.56254E+06
 0.96570000E+02  0.60615E+06
 0.96619995E+02  0.57373E+06
 0.96669998E+02  0.50258E+06
 0.96720001E+02  0.41399E+06
 0.96769997E+02  0.32702E+06
 0.96820000E+02  0.27449E+06
 0.96869995E+02  0.23460E+06
 0.96919998E+02  0.18367E+06
 0.96970001E+02  0.12494E+06
 0.97019997E+02  0.66788E+05
 0.97070000E+02 -0.23940E+04
 0.97119995E+02 -0.78416E+05
 0.97169998E+02 -0.11950E+06
 0.97220001E+02 -0.11937E+06
 0.97269997E+02 -0.98135E+05
 0.97320000E+02 -0.62732E+05
 0.97369995E+02 -0.23338E+05
 0.97419998E+02  0.11010E+05
 0.97470001E+02  0.41002E+05
 0.97519997E+02  0.44616E+05
 0.97570000E+02  0.91900E+03
 0.97619995E+02 -0.75357E+05
 0.97669998E+02 -0.18181E+06
 0.97720001E+02 -0.32475E+06
 0.97769997E+02 -0.48735E+06
 0.97820000E+02 -0.61620E+06
 0.97869995E+02 -0.65711E+06
 0.97919998E+02 -0.60743E+06
 0.97970001E+02 -0.50124E+06
 0.98019997E+02 -0.38629E+06
