-0.19969940E+01 -0.12884E+05
-0.19469941E+01 -0.12815E+05
-0.18969940E+01 -0.12875E+05
-0.18469940E+01 -0.12898E+05
-0.17969940E+01 -0.12908E+05
-0.17469940E+01 -0.12892E+05
-0.16969941E+01 -0.12882E+05
-0.16469941E+01 -0.12868E+05
-0.15969940E+01 -0.12883E+05
-0.15469940E+01 -0.12888E+05
-0.14969940E+01 -0.12909E+05
-0.14469941E+01 -0.12913E+05
-0.13969941E+01 -0.12905E+05
-0.13469940E+01 -0.12911E+05
-0.12969941E+01 -0.12905E+05
-0.12469940E+01 -0.12913E+05
-0.11969941E+01 -0.12895E+05
-0.11469941E+01 -0.12901E+05
-0.10969940E+01 -0.12886E+05
-0.10469941E+01 -0.12859E+05
-0.99699408E+00 -0.12841E+05
-0.94699407E+00 -0.12854E+05
-0.89699411E+00 -0.12871E+05
-0.84699404E+00 -0.12884E+05
-0.79699409E+00 -0.12902E+05
-0.74699414E+00 -0.12893E+05
-0.69699407E+00 -0.12903E+05
-0.64699411E+00 -0.12899E+05
-0.59699416E+00 -0.12905E+05
-0.54699409E+00 -0.12899E+05
-0.49699414E+00 -0.12897E+05
-0.44699407E+00 -0.12903E+05
-0.39699411E+00 -0.12898E+05
-0.34699416E+00 -0.12919E+05
-0.29699409E+00 -0.12907E+05
-0.24699414E+00 -0.12917E+05
-0.19699407E+00 -0.12926E+05
-0.14699411E+00 -0.12913E+05
-0.96994162E-01 -0.12921E+05
-0.46994090E-01 -0.12900E+05
 0.30058622E-02 -0.12898E+05
 0.53005934E-01 -0.12889E+05
 0.10300589E+00 -0.12899E+05
 0.15300584E+00 -0.12913E+05
 0.20300579E+00 -0.12910E+05
 0.25300574E+00 -0.12900E+05
 0.30300593E+00 -0.12882E+05
 0.35300589E+00 -0.12886E+05
 0.40300584E+00 -0.12899E+05
 0.45300579E+00 -0.12913E+05
 0.50300574E+00 -0.12919E+05
 0.55300593E+00 -0.12932E+05
 0.60300589E+00 -0.12924E+05
 0.65300584E+00 -0.12935E+05
 0.70300579E+00 -0.12930E+05
 0.75300574E+00 -0.12932E+05
 0.80300570E+00 -0.12947E+05
 0.85300589E+00 -0.12937E+05
 0.90300584E+00 -0.12932E+05
 0.95300579E+00 -0.12909E+05
 0.10030057E+01 -0.12908E+05
 0.10530057E+01 -0.12901E+05
 0.11030059E+01 -0.12898E+05
 0.11530058E+01 -0.12913E+05
 0.12030058E+01 -0.12904E+05
 0.12530057E+01 -0.12887E+05
 0.13030057E+01 -0.12892E+05
 0.13530059E+01 -0.12889E+05
 0.14030058E+01 -0.12893E+05
 0.14530058E+01 -0.12904E+05
 0.15030057E+01 -0.12909E+05
 0.15530057E+01 -0.12904E+05
 0.16030059E+01 -0.12903E+05
 0.16530058E+01 -0.12913E+05
 0.17030058E+01 -0.12902E+05
 0.17530057E+01 -0.12911E+05
 0.18030057E+01 -0.12910E+05
 0.18530056E+01 -0.12916E+05
 0.19030058E+01 -0.12915E+05
 0.19530058E+01 -0.12924E+05
 0.20030057E+01 -0.12897E+05
 0.20530057E+01 -0.12905E+05
 0.21030059E+01 -0.12908E+05
 0.21530056E+01 -0.12890E+05
 0.22030058E+01 -0.12906E+05
 0.22530055E+01 -0.12908E+05
 0.23030057E+01 -0.12925E+05
 0.23530059E+01 -0.12915E+05
 0.24030056E+01 -0.12925E+05
 0.24530058E+01 -0.12909E+05
 0.25030055E+01 -0.12915E+05
 0.25530057E+01 -0.12911E+05
 0.26030059E+01 -0.12899E+05
 0.26530056E+01 -0.12912E+05
 0.27030058E+01 -0.12911E+05
 0.27530055E+01 -0.12912E+05
 0.28030057E+01 -0.12899E+05
 0.28530059E+01 -0.12917E+05
 0.29030056E+01 -0.12914E+05
 0.29530058E+01 -0.12913E+05
 0.30030055E+01 -0.12919E+05
 0.30530057E+01 -0.12928E+05
 0.31030059E+01 -0.12923E+05
 0.31530056E+01 -0.12892E+05
 0.32030058E+01 -0.12892E+05
 0.32530055E+01 -0.12874E+05
 0.33030057E+01 -0.12858E+05
 0.33530059E+01 -0.12858E+05
 0.34030056E+01 -0.12875E+05
 0.34530058E+01 -0.12874E+05
 0.35030055E+01 -0.12880E+05
 0.35530057E+01 -0.12903E+05
 0.36030054E+01 -0.12905E+05
 0.36530056E+01 -0.12903E+05
 0.37030058E+01 -0.12896E+05
 0.37530055E+01 -0.12908E+05
 0.38030057E+01 -0.12907E+05
 0.38530054E+01 -0.12903E+05
 0.39030056E+01 -0.12915E+05
 0.39530058E+01 -0.12914E+05
 0.40030055E+01 -0.12909E+05
 0.40530057E+01 -0.12915E+05
 0.41030054E+01 -0.12934E+05
 0.41530056E+01 -0.12942E+05
 0.42030058E+01 -0.12945E+05
 0.42530055E+01 -0.12922E+05
 0.43030057E+01 -0.12915E+05
 0.43530054E+01 -0.12920E+05
 0.44030056E+01 -0.12910E+05
 0.44530058E+01 -0.12905E+05
 0.45030055E+01 -0.12901E+05
 0.45530057E+01 -0.12913E+05
 0.46030054E+01 -0.12915E+05
 0.46530056E+01 -0.12910E+05
 0.47030058E+01 -0.12919E+05
 0.47530055E+01 -0.12932E+05
 0.48030057E+01 -0.12929E+05
 0.48530054E+01 -0.12928E+05
 0.49030056E+01 -0.12928E+05
 0.49530058E+01 -0.12919E+05
 0.50030055E+01 -0.12927E+05
 0.50530057E+01 -0.12910E+05
 0.51030054E+01 -0.12907E+05
 0.51530056E+01 -0.12910E+05
 0.52030058E+01 -0.12900E+05
 0.52530055E+01 -0.12889E+05
 0.53030057E+01 -0.12868E+05
 0.53530054E+01 -0.12856E+05
 0.54030056E+01 -0.12842E+05
 0.54530053E+01 -0.12862E+05
 0.55030055E+01 -0.12893E+05
 0.55530057E+01 -0.12900E+05
 0.56030054E+01 -0.12905E+05
 0.56530056E+01 -0.12904E+05
 0.57030053E+01 -0.12898E+05
 0.57530055E+01 -0.12897E+05
 0.58030057E+01 -0.12889E+05
 0.58530054E+01 -0.12888E+05
 0.59030056E+01 -0.12880E+05
 0.59530053E+01 -0.12876E+05
 0.60030055E+01 -0.12872E+05
 0.60530052E+01 -0.12879E+05
 0.61030054E+01 -0.12887E+05
 0.61530056E+01 -0.12881E+05
 0.62030058E+01 -0.12886E+05
 0.62530050E+01 -0.12882E+05
 0.63030052E+01 -0.12872E+05
 0.63530054E+01 -0.12884E+05
 0.64030056E+01 -0.12894E+05
 0.64530058E+01 -0.12893E+05
 0.65030050E+01 -0.12914E+05
 0.65530052E+01 -0.12919E+05
 0.66030054E+01 -0.12926E+05
 0.66530056E+01 -0.12933E+05
 0.67030058E+01 -0.12921E+05
 0.67530050E+01 -0.12921E+05
 0.68030052E+01 -0.12918E+05
 0.68530054E+01 -0.12914E+05
 0.69030056E+01 -0.12915E+05
 0.69530058E+01 -0.12919E+05
 0.70030050E+01 -0.12920E+05
 0.70530052E+01 -0.12929E+05
 0.71030054E+01 -0.12933E+05
 0.71530056E+01 -0.12928E+05
 0.72030058E+01 -0.12944E+05
 0.72530050E+01 -0.12962E+05
 0.73030052E+01 -0.12963E+05
 0.73530054E+01 -0.12970E+05
 0.74030056E+01 -0.12966E+05
 0.74530058E+01 -0.12955E+05
 0.75030050E+01 -0.12972E+05
 0.75530052E+01 -0.12955E+05
 0.76030054E+01 -0.12950E+05
 0.76530056E+01 -0.12948E+05
 0.77030058E+01 -0.12929E+05
 0.77530050E+01 -0.12910E+05
 0.78030052E+01 -0.12894E+05
 0.78530054E+01 -0.12878E+05
 0.79030056E+01 -0.12852E+05
 0.79530058E+01 -0.12851E+05
 0.80030050E+01 -0.12857E+05
 0.80530052E+01 -0.12860E+05
 0.81030054E+01 -0.12852E+05
 0.81530056E+01 -0.12859E+05
 0.82030058E+01 -0.12853E+05
 0.82530050E+01 -0.12847E+05
 0.83030052E+01 -0.12854E+05
 0.83530054E+01 -0.12863E+05
 0.84030056E+01 -0.12863E+05
 0.84530058E+01 -0.12857E+05
 0.85030050E+01 -0.12871E+05
 0.85530052E+01 -0.12878E+05
 0.86030054E+01 -0.12877E+05
 0.86530056E+01 -0.12882E+05
 0.87030058E+01 -0.12891E+05
 0.87530050E+01 -0.12902E+05
 0.88030052E+01 -0.12921E+05
 0.88530054E+01 -0.12920E+05
 0.89030056E+01 -0.12934E+05
 0.89530058E+01 -0.12933E+05
 0.90030050E+01 -0.12920E+05
 0.90530052E+01 -0.12919E+05
 0.91030054E+01 -0.12910E+05
 0.91530056E+01 -0.12917E+05
 0.92030048E+01 -0.12911E+05
 0.92530050E+01 -0.12916E+05
 0.93030052E+01 -0.12914E+05
 0.93530054E+01 -0.12903E+05
 0.94030056E+01 -0.12896E+05
 0.94530048E+01 -0.12896E+05
 0.95030050E+01 -0.12904E+05
 0.95530052E+01 -0.12900E+05
 0.96030054E+01 -0.12899E+05
 0.96530056E+01 -0.12898E+05
 0.97030048E+01 -0.12907E+05
 0.97530050E+01 -0.12907E+05
 0.98030052E+01 -0.12902E+05
 0.98530054E+01 -0.12910E+05
 0.99030056E+01 -0.12905E+05
 0.99530048E+01 -0.12903E+05
 0.10003005E+02 -0.12903E+05
 0.10053005E+02 -0.12901E+05
 0.10103005E+02 -0.12897E+05
 0.10153006E+02 -0.12902E+05
 0.10203005E+02 -0.12913E+05
 0.10253005E+02 -0.12917E+05
 0.10303005E+02 -0.12917E+05
 0.10353005E+02 -0.12911E+05
 0.10403006E+02 -0.12924E+05
 0.10453005E+02 -0.12933E+05
 0.10503005E+02 -0.12918E+05
 0.10553005E+02 -0.12902E+05
 0.10603005E+02 -0.12896E+05
 0.10653006E+02 -0.12883E+05
 0.10703005E+02 -0.12885E+05
 0.10753005E+02 -0.12893E+05
 0.10803005E+02 -0.12895E+05
 0.10853005E+02 -0.12901E+05
 0.10903006E+02 -0.12899E+05
 0.10953005E+02 -0.12891E+05
 0.11003005E+02 -0.12900E+05
 0.11053005E+02 -0.12923E+05
 0.11103005E+02 -0.12920E+05
 0.11153006E+02 -0.12914E+05
 0.11203005E+02 -0.12924E+05
 0.11253005E+02 -0.12917E+05
 0.11303005E+02 -0.12911E+05
 0.11353005E+02 -0.12912E+05
 0.11403006E+02 -0.12916E+05
 0.11453005E+02 -0.12912E+05
 0.11503005E+02 -0.12911E+05
 0.11553005E+02 -0.12910E+05
 0.11603005E+02 -0.12893E+05
 0.11653006E+02 -0.12898E+05
 0.11703005E+02 -0.12889E+05
 0.11753005E+02 -0.12894E+05
 0.11803005E+02 -0.12901E+05
 0.11853005E+02 -0.12899E+05
 0.11903006E+02 -0.12903E+05
 0.11953005E+02 -0.12894E+05
 0.12003005E+02 -0.12897E+05
 0.12053005E+02 -0.12892E+05
 0.12103005E+02 -0.12890E+05
 0.12153006E+02 -0.12899E+05
 0.12203005E+02 -0.12884E+05
 0.12253005E+02 -0.12885E+05
 0.12303005E+02 -0.12887E+05
 0.12353005E+02 -0.12880E+05
 0.12403006E+02 -0.12882E+05
 0.12453005E+02 -0.12874E+05
 0.12503005E+02 -0.12859E+05
 0.12553005E+02 -0.12862E+05
 0.12603005E+02 -0.12870E+05
 0.12653005E+02 -0.12881E+05
 0.12703005E+02 -0.12886E+05
 0.12753005E+02 -0.12888E+05
 0.12803005E+02 -0.12904E+05
 0.12853005E+02 -0.12905E+05
 0.12903005E+02 -0.12917E+05
 0.12953005E+02 -0.12915E+05
 0.13003005E+02 -0.12907E+05
 0.13053005E+02 -0.12907E+05
 0.13103005E+02 -0.12903E+05
 0.13153005E+02 -0.12902E+05
 0.13203005E+02 -0.12913E+05
 0.13253005E+02 -0.12913E+05
 0.13303005E+02 -0.12909E+05
 0.13353005E+02 -0.12913E+05
 0.13403005E+02 -0.12914E+05
 0.13453005E+02 -0.12929E+05
 0.13503005E+02 -0.12933E+05
 0.13553005E+02 -0.12924E+05
 0.13603005E+02 -0.12919E+05
 0.13653005E+02 -0.12914E+05
 0.13703005E+02 -0.12911E+05
 0.13753005E+02 -0.12896E+05
 0.13803005E+02 -0.12897E+05
 0.13853005E+02 -0.12909E+05
 0.13903005E+02 -0.12908E+05
 0.13953005E+02 -0.12908E+05
 0.14003005E+02 -0.12899E+05
 0.14053005E+02 -0.12899E+05
 0.14103004E+02 -0.12892E+05
 0.14153006E+02 -0.12895E+05
 0.14203005E+02 -0.12908E+05
 0.14253004E+02 -0.12907E+05
 0.14303005E+02 -0.12899E+05
 0.14353004E+02 -0.12909E+05
 0.14403006E+02 -0.12895E+05
 0.14453005E+02 -0.12891E+05
 0.14503004E+02 -0.12895E+05
 0.14553005E+02 -0.12891E+05
 0.14603004E+02 -0.12896E+05
 0.14653006E+02 -0.12890E+05
 0.14703005E+02 -0.12902E+05
 0.14753004E+02 -0.12902E+05
 0.14803005E+02 -0.12916E+05
 0.14853004E+02 -0.12926E+05
 0.14903006E+02 -0.12945E+05
 0.14953005E+02 -0.12947E+05
 0.15003004E+02 -0.12936E+05
 0.15053005E+02 -0.12935E+05
 0.15103004E+02 -0.12936E+05
 0.15153006E+02 -0.12953E+05
 0.15203005E+02 -0.12941E+05
 0.15253004E+02 -0.12935E+05
 0.15303005E+02 -0.12921E+05
 0.15353004E+02 -0.12906E+05
 0.15403006E+02 -0.12898E+05
 0.15453005E+02 -0.12896E+05
 0.15503004E+02 -0.12897E+05
 0.15553005E+02 -0.12879E+05
 0.15603004E+02 -0.12879E+05
 0.15653006E+02 -0.12871E+05
 0.15703005E+02 -0.12866E+05
 0.15753004E+02 -0.12870E+05
 0.15803005E+02 -0.12881E+05
 0.15853004E+02 -0.12894E+05
 0.15903006E+02 -0.12902E+05
 0.15953005E+02 -0.12904E+05
 0.16003004E+02 -0.12898E+05
 0.16053005E+02 -0.12895E+05
 0.16103004E+02 -0.12884E+05
 0.16153006E+02 -0.12890E+05
 0.16203005E+02 -0.12904E+05
 0.16253004E+02 -0.12914E+05
 0.16303005E+02 -0.12913E+05
 0.16353004E+02 -0.12895E+05
 0.16403006E+02 -0.12878E+05
 0.16453005E+02 -0.12878E+05
 0.16503004E+02 -0.12876E+05
 0.16553005E+02 -0.12887E+05
 0.16603004E+02 -0.12900E+05
 0.16653006E+02 -0.12902E+05
 0.16703005E+02 -0.12895E+05
 0.16753004E+02 -0.12881E+05
 0.16803005E+02 -0.12886E+05
 0.16853004E+02 -0.12884E+05
 0.16903006E+02 -0.12887E+05
 0.16953005E+02 -0.12894E+05
 0.17003004E+02 -0.12892E+05
 0.17053005E+02 -0.12900E+05
 0.17103004E+02 -0.12898E+05
 0.17153006E+02 -0.12900E+05
 0.17203005E+02 -0.12912E+05
 0.17253004E+02 -0.12925E+05
 0.17303005E+02 -0.12931E+05
 0.17353004E+02 -0.12926E+05
 0.17403006E+02 -0.12923E+05
 0.17453005E+02 -0.12923E+05
 0.17503004E+02 -0.12930E+05
 0.17553005E+02 -0.12931E+05
 0.17603004E+02 -0.12935E+05
 0.17653006E+02 -0.12929E+05
 0.17703005E+02 -0.12931E+05
 0.17753004E+02 -0.12926E+05
 0.17803005E+02 -0.12915E+05
 0.17853004E+02 -0.12917E+05
 0.17903006E+02 -0.12917E+05
 0.17953005E+02 -0.12909E+05
 0.18003004E+02 -0.12901E+05
 0.18053005E+02 -0.12892E+05
 0.18103004E+02 -0.12882E+05
 0.18153006E+02 -0.12883E+05
 0.18203005E+02 -0.12874E+05
 0.18253004E+02 -0.12879E+05
 0.18303005E+02 -0.12888E+05
 0.18353004E+02 -0.12884E+05
 0.18403006E+02 -0.12889E+05
 0.18453005E+02 -0.12890E+05
 0.18503004E+02 -0.12891E+05
 0.18553005E+02 -0.12890E+05
 0.18603004E+02 -0.12891E+05
 0.18653006E+02 -0.12907E+05
 0.18703005E+02 -0.12907E+05
 0.18753004E+02 -0.12899E+05
 0.18803005E+02 -0.12895E+05
 0.18853004E+02 -0.12887E+05
 0.18903006E+02 -0.12890E+05
 0.18953005E+02 -0.12898E+05
 0.19003004E+02 -0.12891E+05
 0.19053005E+02 -0.12890E+05
 0.19103004E+02 -0.12888E+05
 0.19153006E+02 -0.12886E+05
 0.19203005E+02 -0.12887E+05
 0.19253004E+02 -0.12892E+05
 0.19303005E+02 -0.12897E+05
 0.19353004E+02 -0.12889E+05
 0.19403006E+02 -0.12887E+05
 0.19453005E+02 -0.12889E+05
 0.19503004E+02 -0.12902E+05
 0.19553005E+02 -0.12908E+05
 0.19603004E+02 -0.12907E+05
 0.19653006E+02 -0.12903E+05
 0.19703005E+02 -0.12902E+05
 0.19753004E+02 -0.12907E+05
 0.19803005E+02 -0.12913E+05
 0.19853004E+02 -0.12915E+05
 0.19903006E+02 -0.12913E+05
 0.19953005E+02 -0.12910E+05
 0.20003004E+02 -0.12906E+05
 0.20053005E+02 -0.12916E+05
 0.20103004E+02 -0.12926E+05
 0.20153006E+02 -0.12924E+05
 0.20203005E+02 -0.12921E+05
 0.20253004E+02 -0.12910E+05
 0.20303005E+02 -0.12912E+05
 0.20353004E+02 -0.12916E+05
 0.20403004E+02 -0.12910E+05
 0.20453005E+02 -0.12909E+05
 0.20503004E+02 -0.12919E+05
 0.20553005E+02 -0.12927E+05
 0.20603004E+02 -0.12926E+05
 0.20653004E+02 -0.12921E+05
 0.20703005E+02 -0.12922E+05
 0.20753004E+02 -0.12923E+05
 0.20803005E+02 -0.12905E+05
 0.20853004E+02 -0.12905E+05
 0.20903004E+02 -0.12915E+05
 0.20953005E+02 -0.12925E+05
 0.21003004E+02 -0.12922E+05
 0.21053005E+02 -0.12918E+05
 0.21103004E+02 -0.12912E+05
 0.21153004E+02 -0.12908E+05
 0.21203005E+02 -0.12913E+05
 0.21253004E+02 -0.12919E+05
 0.21303005E+02 -0.12917E+05
 0.21353004E+02 -0.12902E+05
 0.21403004E+02 -0.12889E+05
 0.21453005E+02 -0.12890E+05
 0.21503004E+02 -0.12895E+05
 0.21553005E+02 -0.12899E+05
 0.21603004E+02 -0.12902E+05
 0.21653004E+02 -0.12895E+05
 0.21703005E+02 -0.12901E+05
 0.21753004E+02 -0.12906E+05
 0.21803005E+02 -0.12912E+05
 0.21853004E+02 -0.12924E+05
 0.21903004E+02 -0.12928E+05
 0.21953005E+02 -0.12919E+05
 0.22003004E+02 -0.12913E+05
 0.22053005E+02 -0.12909E+05
 0.22103004E+02 -0.12902E+05
 0.22153004E+02 -0.12907E+05
 0.22203005E+02 -0.12910E+05
 0.22253004E+02 -0.12912E+05
 0.22303005E+02 -0.12908E+05
 0.22353004E+02 -0.12899E+05
 0.22403004E+02 -0.12902E+05
 0.22453005E+02 -0.12903E+05
 0.22503004E+02 -0.12899E+05
 0.22553005E+02 -0.12906E+05
 0.22603004E+02 -0.12907E+05
 0.22653004E+02 -0.12902E+05
 0.22703005E+02 -0.12890E+05
 0.22753004E+02 -0.12884E+05
 0.22803005E+02 -0.12873E+05
 0.22853004E+02 -0.12870E+05
 0.22903004E+02 -0.12884E+05
 0.22953005E+02 -0.12876E+05
 0.23003004E+02 -0.12878E+05
 0.23053005E+02 -0.12884E+05
 0.23103004E+02 -0.12874E+05
 0.23153004E+02 -0.12884E+05
 0.23203005E+02 -0.12893E+05
 0.23253004E+02 -0.12897E+05
 0.23303005E+02 -0.12907E+05
 0.23353004E+02 -0.12909E+05
 0.23403004E+02 -0.12907E+05
 0.23453005E+02 -0.12910E+05
 0.23503004E+02 -0.12917E+05
 0.23553005E+02 -0.12922E+05
 0.23603004E+02 -0.12920E+05
 0.23653004E+02 -0.12919E+05
 0.23703005E+02 -0.12915E+05
 0.23753004E+02 -0.12918E+05
 0.23803005E+02 -0.12912E+05
 0.23853004E+02 -0.12905E+05
 0.23903004E+02 -0.12904E+05
 0.23953005E+02 -0.12896E+05
 0.24003004E+02 -0.12900E+05
 0.24053005E+02 -0.12911E+05
 0.24103004E+02 -0.12913E+05
 0.24153004E+02 -0.12907E+05
 0.24203005E+02 -0.12908E+05
 0.24253004E+02 -0.12909E+05
 0.24303005E+02 -0.12911E+05
 0.24353004E+02 -0.12911E+05
 0.24403004E+02 -0.12900E+05
 0.24453005E+02 -0.12900E+05
 0.24503004E+02 -0.12902E+05
 0.24553005E+02 -0.12899E+05
 0.24603004E+02 -0.12899E+05
 0.24653004E+02 -0.12895E+05
 0.24703005E+02 -0.12894E+05
 0.24753004E+02 -0.12898E+05
 0.24803005E+02 -0.12896E+05
 0.24853004E+02 -0.12891E+05
 0.24903004E+02 -0.12900E+05
 0.24953005E+02 -0.12909E+05
 0.25003004E+02 -0.12915E+05
 0.25053005E+02 -0.12909E+05
 0.25103004E+02 -0.12904E+05
 0.25153004E+02 -0.12909E+05
 0.25203005E+02 -0.12901E+05
 0.25253004E+02 -0.12906E+05
 0.25303005E+02 -0.12910E+05
 0.25353004E+02 -0.12919E+05
 0.25403004E+02 -0.12922E+05
 0.25453005E+02 -0.12920E+05
 0.25503004E+02 -0.12909E+05
 0.25553005E+02 -0.12915E+05
 0.25603004E+02 -0.12928E+05
 0.25653004E+02 -0.12917E+05
 0.25703005E+02 -0.12923E+05
 0.25753004E+02 -0.12921E+05
 0.25803005E+02 -0.12913E+05
 0.25853004E+02 -0.12904E+05
 0.25903004E+02 -0.12891E+05
 0.25953005E+02 -0.12888E+05
 0.26003004E+02 -0.12894E+05
 0.26053005E+02 -0.12898E+05
 0.26103004E+02 -0.12903E+05
 0.26153004E+02 -0.12905E+05
 0.26203005E+02 -0.12900E+05
 0.26253004E+02 -0.12895E+05
 0.26303005E+02 -0.12886E+05
 0.26353004E+02 -0.12881E+05
 0.26403004E+02 -0.12876E+05
 0.26453005E+02 -0.12882E+05
 0.26503004E+02 -0.12907E+05
 0.26553005E+02 -0.12921E+05
 0.26603004E+02 -0.12916E+05
 0.26653004E+02 -0.12904E+05
 0.26703005E+02 -0.12871E+05
 0.26753004E+02 -0.12841E+05
 0.26803005E+02 -0.12882E+05
 0.26853004E+02 -0.12951E+05
 0.26903004E+02 -0.13006E+05
 0.26953005E+02 -0.13035E+05
 0.27003004E+02 -0.13014E+05
 0.27053003E+02 -0.12965E+05
 0.27103004E+02 -0.12854E+05
 0.27153004E+02 -0.12827E+05
 0.27203005E+02 -0.12895E+05
 0.27253004E+02 -0.12947E+05
 0.27303003E+02 -0.13000E+05
 0.27353004E+02 -0.13011E+05
 0.27403004E+02 -0.12868E+05
 0.27453005E+02 -0.12572E+05
 0.27503004E+02 -0.12461E+05
 0.27553003E+02 -0.12606E+05
 0.27603004E+02 -0.13016E+05
 0.27653004E+02 -0.13120E+05
 0.27703005E+02 -0.12860E+05
 0.27753004E+02 -0.12481E+05
 0.27803003E+02 -0.12418E+05
 0.27853004E+02 -0.12480E+05
 0.27903004E+02 -0.12491E+05
 0.27953005E+02 -0.12872E+05
 0.28003004E+02 -0.13005E+05
 0.28053003E+02 -0.13082E+05
 0.28103004E+02 -0.12957E+05
 0.28153004E+02 -0.13034E+05
 0.28203005E+02 -0.13000E+05
 0.28253004E+02 -0.12781E+05
 0.28303003E+02 -0.13410E+05
 0.28353004E+02 -0.13792E+05
 0.28403004E+02 -0.13736E+05
 0.28453005E+02 -0.12820E+05
 0.28503004E+02 -0.12119E+05
 0.28553003E+02 -0.12433E+05
 0.28603004E+02 -0.12714E+05
 0.28653004E+02 -0.13412E+05
 0.28703005E+02 -0.13567E+05
 0.28753004E+02 -0.13881E+05
 0.28803003E+02 -0.13626E+05
 0.28853004E+02 -0.12372E+05
 0.28903004E+02 -0.11909E+05
 0.28953005E+02 -0.12329E+05
 0.29003004E+02 -0.12855E+05
 0.29053003E+02 -0.12907E+05
 0.29103004E+02 -0.13574E+05
 0.29153004E+02 -0.12855E+05
 0.29203005E+02 -0.11778E+05
 0.29253004E+02 -0.11943E+05
 0.29303003E+02 -0.12188E+05
 0.29353004E+02 -0.12591E+05
 0.29403004E+02 -0.13244E+05
 0.29453005E+02 -0.15015E+05
 0.29503004E+02 -0.14291E+05
 0.29553003E+02 -0.12587E+05
 0.29603004E+02 -0.11374E+05
 0.29653004E+02 -0.10645E+05
 0.29703005E+02 -0.13265E+05
 0.29753004E+02 -0.14270E+05
 0.29803003E+02 -0.14927E+05
 0.29853004E+02 -0.13480E+05
 0.29903004E+02 -0.10253E+05
 0.29953005E+02 -0.92403E+04
 0.30003004E+02 -0.12415E+05
 0.30053005E+02 -0.16376E+05
 0.30103004E+02 -0.16059E+05
 0.30153004E+02 -0.14087E+05
 0.30203003E+02 -0.11946E+05
 0.30253002E+02 -0.12575E+05
 0.30303005E+02 -0.12651E+05
 0.30353004E+02 -0.14667E+05
 0.30403004E+02 -0.16771E+05
 0.30453003E+02 -0.14073E+05
 0.30503002E+02 -0.91817E+04
 0.30553005E+02 -0.59827E+04
 0.30603004E+02 -0.98985E+04
 0.30653004E+02 -0.14589E+05
 0.30703003E+02 -0.15106E+05
 0.30753002E+02 -0.13940E+05
 0.30803005E+02 -0.11288E+05
 0.30853004E+02 -0.10592E+05
 0.30903004E+02 -0.13147E+05
 0.30953003E+02 -0.16315E+05
 0.31003002E+02 -0.19581E+05
 0.31053005E+02 -0.16051E+05
 0.31103004E+02 -0.68368E+04
 0.31153004E+02 -0.46441E+04
 0.31203003E+02 -0.89643E+04
 0.31253002E+02 -0.15142E+05
 0.31303005E+02 -0.17261E+05
 0.31353004E+02 -0.15434E+05
 0.31403004E+02 -0.13245E+05
 0.31453003E+02 -0.94745E+04
 0.31503002E+02 -0.10643E+05
 0.31553005E+02 -0.14841E+05
 0.31603004E+02 -0.16587E+05
 0.31653004E+02 -0.16306E+05
 0.31703003E+02 -0.15189E+05
 0.31753002E+02 -0.14192E+05
 0.31803005E+02 -0.11873E+05
 0.31853004E+02 -0.11167E+05
 0.31903004E+02 -0.12721E+05
 0.31953003E+02 -0.13430E+05
 0.32003002E+02 -0.10088E+05
 0.32053005E+02 -0.78205E+04
 0.32103004E+02 -0.11692E+05
 0.32153004E+02 -0.17315E+05
 0.32203003E+02 -0.16563E+05
 0.32253002E+02 -0.12680E+05
 0.32303005E+02 -0.12471E+05
 0.32353004E+02 -0.10597E+05
 0.32403004E+02 -0.10636E+05
 0.32453003E+02 -0.13229E+05
 0.32503002E+02 -0.15683E+05
 0.32553005E+02 -0.15285E+05
 0.32603004E+02 -0.11854E+05
 0.32653004E+02 -0.92738E+04
 0.32703003E+02 -0.81568E+04
 0.32753002E+02 -0.11205E+05
 0.32803005E+02 -0.15605E+05
 0.32853004E+02 -0.20728E+05
 0.32903004E+02 -0.17820E+05
 0.32953003E+02 -0.99807E+04
 0.33003002E+02 -0.64219E+04
 0.33053005E+02 -0.11173E+05
 0.33103004E+02 -0.18164E+05
 0.33153004E+02 -0.15861E+05
 0.33203003E+02 -0.14794E+05
 0.33253002E+02 -0.13082E+05
 0.33303005E+02 -0.85712E+04
 0.33353004E+02 -0.88344E+04
 0.33403004E+02 -0.14100E+05
 0.33453003E+02 -0.17218E+05
 0.33503002E+02 -0.14188E+05
 0.33553005E+02 -0.75038E+04
 0.33603004E+02 -0.52220E+04
 0.33653004E+02 -0.10351E+05
 0.33703003E+02 -0.17333E+05
 0.33753002E+02 -0.19072E+05
 0.33803005E+02 -0.16376E+05
 0.33853004E+02 -0.12487E+05
 0.33903004E+02 -0.89152E+04
 0.33953003E+02 -0.10459E+05
 0.34003002E+02 -0.12558E+05
 0.34053005E+02 -0.13592E+05
 0.34103004E+02 -0.15101E+05
 0.34153004E+02 -0.14322E+05
 0.34203003E+02 -0.10368E+05
 0.34253002E+02 -0.76718E+04
 0.34303005E+02 -0.14778E+05
 0.34353004E+02 -0.19344E+05
 0.34403004E+02 -0.13560E+05
 0.34453003E+02 -0.85932E+04
 0.34503002E+02 -0.84972E+04
 0.34553005E+02 -0.12843E+05
 0.34603004E+02 -0.15152E+05
 0.34653004E+02 -0.15366E+05
 0.34703003E+02 -0.15486E+05
 0.34753002E+02 -0.16095E+05
 0.34803005E+02 -0.12673E+05
 0.34853004E+02 -0.86100E+04
 0.34903004E+02 -0.11010E+05
 0.34953003E+02 -0.14227E+05
 0.35003002E+02 -0.14731E+05
 0.35053005E+02 -0.13878E+05
 0.35103004E+02 -0.12081E+05
 0.35153004E+02 -0.94239E+04
 0.35203003E+02 -0.13017E+05
 0.35253002E+02 -0.17015E+05
 0.35303005E+02 -0.14124E+05
 0.35353004E+02 -0.96246E+04
 0.35403004E+02 -0.11274E+05
 0.35453003E+02 -0.14046E+05
 0.35503002E+02 -0.15714E+05
 0.35553005E+02 -0.15552E+05
 0.35603004E+02 -0.10512E+05
 0.35653004E+02 -0.10252E+05
 0.35703003E+02 -0.10906E+05
 0.35753002E+02 -0.12336E+05
 0.35803005E+02 -0.14652E+05
 0.35853004E+02 -0.15416E+05
 0.35903004E+02 -0.14927E+05
 0.35953003E+02 -0.13026E+05
 0.36003002E+02 -0.12181E+05
 0.36053005E+02 -0.10803E+05
 0.36103004E+02 -0.10431E+05
 0.36153004E+02 -0.13933E+05
 0.36203003E+02 -0.15938E+05
 0.36253002E+02 -0.12292E+05
 0.36303005E+02 -0.97422E+04
 0.36353004E+02 -0.10699E+05
 0.36403004E+02 -0.13257E+05
 0.36453003E+02 -0.16464E+05
 0.36503002E+02 -0.15294E+05
 0.36553005E+02 -0.11124E+05
 0.36603004E+02 -0.12386E+05
 0.36653004E+02 -0.12064E+05
 0.36703003E+02 -0.10132E+05
 0.36753002E+02 -0.14283E+05
 0.36803005E+02 -0.16628E+05
 0.36853004E+02 -0.13601E+05
 0.36903004E+02 -0.94328E+04
 0.36953003E+02 -0.10023E+05
 0.37003002E+02 -0.11856E+05
 0.37053005E+02 -0.12326E+05
 0.37103004E+02 -0.16198E+05
 0.37153004E+02 -0.17160E+05
 0.37203003E+02 -0.14041E+05
 0.37253002E+02 -0.11083E+05
 0.37303005E+02 -0.87308E+04
 0.37353004E+02 -0.11163E+05
 0.37403004E+02 -0.14717E+05
 0.37453003E+02 -0.15240E+05
 0.37503002E+02 -0.13452E+05
 0.37553005E+02 -0.12777E+05
 0.37603004E+02 -0.11526E+05
 0.37653004E+02 -0.12090E+05
 0.37703003E+02 -0.15615E+05
 0.37753002E+02 -0.15467E+05
 0.37803005E+02 -0.13619E+05
 0.37853004E+02 -0.11474E+05
 0.37903004E+02 -0.11943E+05
 0.37953003E+02 -0.12449E+05
 0.38003002E+02 -0.11017E+05
 0.38053005E+02 -0.11949E+05
 0.38103004E+02 -0.15186E+05
 0.38153004E+02 -0.16445E+05
 0.38203003E+02 -0.12510E+05
 0.38253002E+02 -0.97965E+04
 0.38303005E+02 -0.91896E+04
 0.38353004E+02 -0.10135E+05
 0.38403004E+02 -0.15020E+05
 0.38453003E+02 -0.16666E+05
 0.38503002E+02 -0.12567E+05
 0.38553005E+02 -0.10992E+05
 0.38603004E+02 -0.13471E+05
 0.38653004E+02 -0.13052E+05
 0.38703003E+02 -0.12067E+05
 0.38753002E+02 -0.13116E+05
 0.38803005E+02 -0.15177E+05
 0.38853004E+02 -0.13379E+05
 0.38903004E+02 -0.10548E+05
 0.38953003E+02 -0.11770E+05
 0.39003002E+02 -0.14136E+05
 0.39053005E+02 -0.16663E+05
 0.39103004E+02 -0.15625E+05
 0.39153004E+02 -0.10752E+05
 0.39203003E+02 -0.84359E+04
 0.39253002E+02 -0.11699E+05
 0.39303005E+02 -0.13204E+05
 0.39353004E+02 -0.13866E+05
 0.39403004E+02 -0.14571E+05
 0.39453003E+02 -0.12539E+05
 0.39503002E+02 -0.10921E+05
 0.39553005E+02 -0.12639E+05
 0.39603004E+02 -0.15021E+05
 0.39653004E+02 -0.14357E+05
 0.39703003E+02 -0.14192E+05
 0.39753002E+02 -0.12415E+05
 0.39803005E+02 -0.11456E+05
 0.39853004E+02 -0.10945E+05
 0.39903004E+02 -0.11606E+05
 0.39953003E+02 -0.13525E+05
 0.40003002E+02 -0.13963E+05
 0.40053005E+02 -0.14675E+05
 0.40103004E+02 -0.12206E+05
 0.40153004E+02 -0.98792E+04
 0.40203003E+02 -0.10877E+05
 0.40253002E+02 -0.15163E+05
 0.40303005E+02 -0.16958E+05
 0.40353004E+02 -0.15542E+05
 0.40403004E+02 -0.12578E+05
 0.40453003E+02 -0.84416E+04
 0.40503002E+02 -0.94424E+04
 0.40553005E+02 -0.13297E+05
 0.40603004E+02 -0.16541E+05
 0.40653004E+02 -0.15686E+05
 0.40703003E+02 -0.13339E+05
 0.40753002E+02 -0.11943E+05
 0.40803005E+02 -0.11622E+05
 0.40853004E+02 -0.13209E+05
 0.40903004E+02 -0.14597E+05
 0.40953003E+02 -0.14578E+05
 0.41003002E+02 -0.13851E+05
 0.41053005E+02 -0.12417E+05
 0.41103004E+02 -0.87419E+04
 0.41153004E+02 -0.88914E+04
 0.41203003E+02 -0.12198E+05
 0.41253002E+02 -0.14198E+05
 0.41303005E+02 -0.14007E+05
 0.41353004E+02 -0.12592E+05
 0.41403004E+02 -0.12576E+05
 0.41453003E+02 -0.13267E+05
 0.41503002E+02 -0.13692E+05
 0.41553005E+02 -0.14312E+05
 0.41603004E+02 -0.12496E+05
 0.41653004E+02 -0.11904E+05
 0.41703003E+02 -0.13528E+05
 0.41753002E+02 -0.12253E+05
 0.41803005E+02 -0.12105E+05
 0.41853004E+02 -0.13719E+05
 0.41903004E+02 -0.15108E+05
 0.41953003E+02 -0.13677E+05
 0.42003002E+02 -0.10277E+05
 0.42053005E+02 -0.10910E+05
 0.42103004E+02 -0.12879E+05
 0.42153004E+02 -0.12933E+05
 0.42203003E+02 -0.12799E+05
 0.42253002E+02 -0.13129E+05
 0.42303005E+02 -0.14411E+05
 0.42353004E+02 -0.13203E+05
 0.42403004E+02 -0.11473E+05
 0.42453003E+02 -0.13336E+05
 0.42503002E+02 -0.16179E+05
 0.42553005E+02 -0.16109E+05
 0.42603004E+02 -0.13017E+05
 0.42653004E+02 -0.10106E+05
 0.42703003E+02 -0.93666E+04
 0.42753002E+02 -0.11346E+05
 0.42803001E+02 -0.13763E+05
 0.42853004E+02 -0.15284E+05
 0.42903004E+02 -0.15118E+05
 0.42953003E+02 -0.11740E+05
 0.43003002E+02 -0.96417E+04
 0.43053001E+02 -0.12079E+05
 0.43103004E+02 -0.14828E+05
 0.43153004E+02 -0.13871E+05
 0.43203003E+02 -0.11436E+05
 0.43253002E+02 -0.11239E+05
 0.43303001E+02 -0.12964E+05
 0.43353004E+02 -0.14595E+05
 0.43403004E+02 -0.14907E+05
 0.43453003E+02 -0.13701E+05
 0.43503002E+02 -0.10857E+05
 0.43553001E+02 -0.10708E+05
 0.43603004E+02 -0.12273E+05
 0.43653004E+02 -0.12101E+05
 0.43703003E+02 -0.13532E+05
 0.43753002E+02 -0.16193E+05
 0.43803001E+02 -0.17124E+05
 0.43853004E+02 -0.13930E+05
 0.43903004E+02 -0.97530E+04
 0.43953003E+02 -0.11213E+05
 0.44003002E+02 -0.13646E+05
 0.44053001E+02 -0.13960E+05
 0.44103004E+02 -0.13711E+05
 0.44153004E+02 -0.11607E+05
 0.44203003E+02 -0.10009E+05
 0.44253002E+02 -0.11028E+05
 0.44303001E+02 -0.13686E+05
 0.44353004E+02 -0.15978E+05
 0.44403004E+02 -0.14596E+05
 0.44453003E+02 -0.12023E+05
 0.44503002E+02 -0.11118E+05
 0.44553001E+02 -0.11772E+05
 0.44603004E+02 -0.13926E+05
 0.44653004E+02 -0.15145E+05
 0.44703003E+02 -0.14048E+05
 0.44753002E+02 -0.12557E+05
 0.44803001E+02 -0.11216E+05
 0.44853004E+02 -0.92973E+04
 0.44903004E+02 -0.11242E+05
 0.44953003E+02 -0.14548E+05
 0.45003002E+02 -0.15883E+05
 0.45053001E+02 -0.14870E+05
 0.45103004E+02 -0.12925E+05
 0.45153004E+02 -0.12056E+05
 0.45203003E+02 -0.11161E+05
 0.45253002E+02 -0.10798E+05
 0.45303001E+02 -0.12893E+05
 0.45353004E+02 -0.16132E+05
 0.45403004E+02 -0.15266E+05
 0.45453003E+02 -0.12865E+05
 0.45503002E+02 -0.11900E+05
 0.45553001E+02 -0.12347E+05
 0.45603004E+02 -0.12418E+05
 0.45653004E+02 -0.12541E+05
 0.45703003E+02 -0.13366E+05
 0.45753002E+02 -0.12096E+05
 0.45803001E+02 -0.11433E+05
 0.45853004E+02 -0.11924E+05
 0.45903004E+02 -0.12211E+05
 0.45953003E+02 -0.12250E+05
 0.46003002E+02 -0.12364E+05
 0.46053001E+02 -0.13736E+05
 0.46103004E+02 -0.13464E+05
 0.46153004E+02 -0.11825E+05
 0.46203003E+02 -0.12459E+05
 0.46253002E+02 -0.14295E+05
 0.46303001E+02 -0.14625E+05
 0.46353004E+02 -0.13838E+05
 0.46403004E+02 -0.13549E+05
 0.46453003E+02 -0.13363E+05
 0.46503002E+02 -0.12878E+05
 0.46553001E+02 -0.11886E+05
 0.46603004E+02 -0.12647E+05
 0.46653004E+02 -0.13743E+05
 0.46703003E+02 -0.13787E+05
 0.46753002E+02 -0.14106E+05
 0.46803001E+02 -0.14500E+05
 0.46853004E+02 -0.15175E+05
 0.46903004E+02 -0.13584E+05
 0.46953003E+02 -0.11273E+05
 0.47003002E+02 -0.11189E+05
 0.47053001E+02 -0.11198E+05
 0.47103004E+02 -0.10496E+05
 0.47153004E+02 -0.10585E+05
 0.47203003E+02 -0.11345E+05
 0.47253002E+02 -0.11198E+05
 0.47303001E+02 -0.12066E+05
 0.47353004E+02 -0.13524E+05
 0.47403004E+02 -0.13177E+05
 0.47453003E+02 -0.12687E+05
 0.47503002E+02 -0.12484E+05
 0.47553001E+02 -0.14060E+05
 0.47603004E+02 -0.14779E+05
 0.47653004E+02 -0.11537E+05
 0.47703003E+02 -0.89846E+04
 0.47753002E+02 -0.10877E+05
 0.47803001E+02 -0.14108E+05
 0.47853004E+02 -0.16280E+05
 0.47903004E+02 -0.18630E+05
 0.47953003E+02 -0.17849E+05
 0.48003002E+02 -0.14607E+05
 0.48053001E+02 -0.13843E+05
 0.48103004E+02 -0.13912E+05
 0.48153004E+02 -0.13497E+05
 0.48203003E+02 -0.13808E+05
 0.48253002E+02 -0.14440E+05
 0.48303001E+02 -0.12810E+05
 0.48353004E+02 -0.10275E+05
 0.48403004E+02 -0.99937E+04
 0.48453003E+02 -0.11256E+05
 0.48503002E+02 -0.11786E+05
 0.48553001E+02 -0.12156E+05
 0.48603004E+02 -0.12722E+05
 0.48653004E+02 -0.12692E+05
 0.48703003E+02 -0.12559E+05
 0.48753002E+02 -0.11329E+05
 0.48803001E+02 -0.10862E+05
 0.48853004E+02 -0.11660E+05
 0.48903004E+02 -0.12204E+05
 0.48953003E+02 -0.13667E+05
 0.49003002E+02 -0.14865E+05
 0.49053001E+02 -0.14546E+05
 0.49103004E+02 -0.12774E+05
 0.49153004E+02 -0.11473E+05
 0.49203003E+02 -0.12405E+05
 0.49253002E+02 -0.14725E+05
 0.49303001E+02 -0.17462E+05
 0.49353004E+02 -0.18110E+05
 0.49403004E+02 -0.15350E+05
 0.49453003E+02 -0.10666E+05
 0.49503002E+02 -0.75635E+04
 0.49553001E+02 -0.84572E+04
 0.49603004E+02 -0.11677E+05
 0.49653004E+02 -0.11446E+05
 0.49703003E+02 -0.10680E+05
 0.49753002E+02 -0.14791E+05
 0.49803001E+02 -0.17355E+05
 0.49853004E+02 -0.14246E+05
 0.49903004E+02 -0.10720E+05
 0.49953003E+02 -0.93604E+04
 0.50003002E+02 -0.10274E+05
 0.50053001E+02 -0.13017E+05
 0.50103004E+02 -0.12236E+05
 0.50153004E+02 -0.93918E+04
 0.50203003E+02 -0.94955E+04
 0.50253002E+02 -0.11172E+05
 0.50303001E+02 -0.13239E+05
 0.50353004E+02 -0.15256E+05
 0.50403004E+02 -0.17050E+05
 0.50453003E+02 -0.18540E+05
 0.50503002E+02 -0.18210E+05
 0.50553001E+02 -0.15985E+05
 0.50603004E+02 -0.13943E+05
 0.50653004E+02 -0.11338E+05
 0.50703003E+02 -0.97248E+04
 0.50753002E+02 -0.11519E+05
 0.50803001E+02 -0.14498E+05
 0.50853004E+02 -0.13982E+05
 0.50903004E+02 -0.10469E+05
 0.50953003E+02 -0.90740E+04
 0.51003002E+02 -0.99560E+04
 0.51053001E+02 -0.12593E+05
 0.51103004E+02 -0.13406E+05
 0.51153004E+02 -0.13115E+05
 0.51203003E+02 -0.14200E+05
 0.51253002E+02 -0.14423E+05
 0.51303001E+02 -0.10651E+05
 0.51353004E+02 -0.64895E+04
 0.51403004E+02 -0.81466E+04
 0.51453003E+02 -0.12673E+05
 0.51503002E+02 -0.17233E+05
 0.51553001E+02 -0.17948E+05
 0.51603004E+02 -0.15177E+05
 0.51653004E+02 -0.12400E+05
 0.51703003E+02 -0.94488E+04
 0.51753002E+02 -0.10546E+05
 0.51803001E+02 -0.14715E+05
 0.51853004E+02 -0.16293E+05
 0.51903004E+02 -0.14332E+05
 0.51953003E+02 -0.10483E+05
 0.52003002E+02 -0.75657E+04
 0.52053001E+02 -0.86109E+04
 0.52103004E+02 -0.16040E+05
 0.52153004E+02 -0.21368E+05
 0.52203003E+02 -0.20470E+05
 0.52253002E+02 -0.15976E+05
 0.52303001E+02 -0.10536E+05
 0.52353004E+02 -0.73319E+04
 0.52403004E+02 -0.94438E+04
 0.52453003E+02 -0.14956E+05
 0.52503002E+02 -0.18160E+05
 0.52553001E+02 -0.16295E+05
 0.52603004E+02 -0.10234E+05
 0.52653004E+02 -0.98610E+04
 0.52703003E+02 -0.12602E+05
 0.52753002E+02 -0.12303E+05
 0.52803001E+02 -0.10541E+05
 0.52853004E+02 -0.10413E+05
 0.52903004E+02 -0.12714E+05
 0.52953003E+02 -0.16735E+05
 0.53003002E+02 -0.18677E+05
 0.53053001E+02 -0.15967E+05
 0.53103004E+02 -0.94327E+04
 0.53153004E+02 -0.41614E+04
 0.53203003E+02 -0.72736E+04
 0.53253002E+02 -0.14110E+05
 0.53303001E+02 -0.18423E+05
 0.53353004E+02 -0.16400E+05
 0.53403004E+02 -0.12716E+05
 0.53453003E+02 -0.11864E+05
 0.53503002E+02 -0.11147E+05
 0.53553001E+02 -0.11487E+05
 0.53603004E+02 -0.12147E+05
 0.53653004E+02 -0.13726E+05
 0.53703003E+02 -0.14765E+05
 0.53753002E+02 -0.14956E+05
 0.53803001E+02 -0.17143E+05
 0.53853004E+02 -0.15813E+05
 0.53903004E+02 -0.89034E+04
 0.53953003E+02 -0.52646E+04
 0.54003002E+02 -0.10654E+05
 0.54053001E+02 -0.17401E+05
 0.54103004E+02 -0.18509E+05
 0.54153004E+02 -0.16225E+05
 0.54203003E+02 -0.13014E+05
 0.54253002E+02 -0.11090E+05
 0.54303001E+02 -0.12461E+05
 0.54353004E+02 -0.14763E+05
 0.54403004E+02 -0.15357E+05
 0.54453003E+02 -0.14075E+05
 0.54503002E+02 -0.10267E+05
 0.54553001E+02 -0.79625E+04
 0.54603004E+02 -0.96527E+04
 0.54653004E+02 -0.11843E+05
 0.54703003E+02 -0.13014E+05
 0.54753002E+02 -0.13361E+05
 0.54803001E+02 -0.13814E+05
 0.54853004E+02 -0.14530E+05
 0.54903004E+02 -0.15460E+05
 0.54953003E+02 -0.13430E+05
 0.55003002E+02 -0.89314E+04
 0.55053001E+02 -0.10413E+05
 0.55103004E+02 -0.13520E+05
 0.55153004E+02 -0.13184E+05
 0.55203003E+02 -0.11036E+05
 0.55253002E+02 -0.66241E+04
 0.55303001E+02 -0.68690E+04
 0.55353004E+02 -0.14071E+05
 0.55403004E+02 -0.20495E+05
 0.55453003E+02 -0.20091E+05
 0.55503002E+02 -0.15487E+05
 0.55553001E+02 -0.10785E+05
 0.55603004E+02 -0.81380E+04
 0.55653004E+02 -0.10534E+05
 0.55703003E+02 -0.13482E+05
 0.55753002E+02 -0.12902E+05
 0.55803001E+02 -0.13614E+05
 0.55853001E+02 -0.13820E+05
 0.55903004E+02 -0.11925E+05
 0.55953003E+02 -0.11421E+05
 0.56003002E+02 -0.13114E+05
 0.56053001E+02 -0.14894E+05
 0.56103001E+02 -0.14753E+05
 0.56153004E+02 -0.14523E+05
 0.56203003E+02 -0.15274E+05
 0.56253002E+02 -0.14512E+05
 0.56303001E+02 -0.12951E+05
 0.56353001E+02 -0.11881E+05
 0.56403004E+02 -0.10993E+05
 0.56453003E+02 -0.11922E+05
 0.56503002E+02 -0.13948E+05
 0.56553001E+02 -0.12984E+05
 0.56603001E+02 -0.11743E+05
 0.56653004E+02 -0.13793E+05
 0.56703003E+02 -0.14862E+05
 0.56753002E+02 -0.15186E+05
 0.56803001E+02 -0.16700E+05
 0.56853001E+02 -0.16673E+05
 0.56903004E+02 -0.12661E+05
 0.56953003E+02 -0.84030E+04
 0.57003002E+02 -0.64080E+04
 0.57053001E+02 -0.90577E+04
 0.57103001E+02 -0.14565E+05
 0.57153004E+02 -0.15559E+05
 0.57203003E+02 -0.12809E+05
 0.57253002E+02 -0.11983E+05
 0.57303001E+02 -0.13951E+05
 0.57353001E+02 -0.14735E+05
 0.57403004E+02 -0.12713E+05
 0.57453003E+02 -0.13046E+05
 0.57503002E+02 -0.15361E+05
 0.57553001E+02 -0.15966E+05
 0.57603001E+02 -0.11891E+05
 0.57653004E+02 -0.62500E+04
 0.57703003E+02 -0.91789E+04
 0.57753002E+02 -0.15765E+05
 0.57803001E+02 -0.18780E+05
 0.57853001E+02 -0.18344E+05
 0.57903004E+02 -0.16682E+05
 0.57953003E+02 -0.12845E+05
 0.58003002E+02 -0.77463E+04
 0.58053001E+02 -0.67419E+04
 0.58103001E+02 -0.85674E+04
 0.58153004E+02 -0.13292E+05
 0.58203003E+02 -0.17978E+05
 0.58253002E+02 -0.18045E+05
 0.58303001E+02 -0.16651E+05
 0.58353001E+02 -0.15925E+05
 0.58403004E+02 -0.13957E+05
 0.58453003E+02 -0.11101E+05
 0.58503002E+02 -0.10271E+05
 0.58553001E+02 -0.11905E+05
 0.58603001E+02 -0.12966E+05
 0.58653004E+02 -0.10361E+05
 0.58703003E+02 -0.64336E+04
 0.58753002E+02 -0.71293E+04
 0.58803001E+02 -0.12765E+05
 0.58853001E+02 -0.16250E+05
 0.58903004E+02 -0.13888E+05
 0.58953003E+02 -0.12287E+05
 0.59003002E+02 -0.12441E+05
 0.59053001E+02 -0.12097E+05
 0.59103001E+02 -0.13992E+05
 0.59153004E+02 -0.15547E+05
 0.59203003E+02 -0.16196E+05
 0.59253002E+02 -0.16286E+05
 0.59303001E+02 -0.14471E+05
 0.59353001E+02 -0.11568E+05
 0.59403004E+02 -0.10045E+05
 0.59453003E+02 -0.11681E+05
 0.59503002E+02 -0.13324E+05
 0.59553001E+02 -0.12960E+05
 0.59603001E+02 -0.11730E+05
 0.59653004E+02 -0.11853E+05
 0.59703003E+02 -0.12768E+05
 0.59753002E+02 -0.12861E+05
 0.59803001E+02 -0.13534E+05
 0.59853001E+02 -0.15385E+05
 0.59903004E+02 -0.17142E+05
 0.59953003E+02 -0.15686E+05
 0.60003002E+02 -0.11178E+05
 0.60053001E+02 -0.84608E+04
 0.60103001E+02 -0.96662E+04
 0.60153004E+02 -0.12241E+05
 0.60203003E+02 -0.14874E+05
 0.60253002E+02 -0.15413E+05
 0.60303001E+02 -0.12675E+05
 0.60353001E+02 -0.10413E+05
 0.60403004E+02 -0.11068E+05
 0.60453003E+02 -0.12761E+05
 0.60503002E+02 -0.13566E+05
 0.60553001E+02 -0.13532E+05
 0.60603001E+02 -0.12641E+05
 0.60653004E+02 -0.12162E+05
 0.60703003E+02 -0.12319E+05
 0.60753002E+02 -0.12472E+05
 0.60803001E+02 -0.12858E+05
 0.60853001E+02 -0.12414E+05
 0.60903004E+02 -0.11766E+05
 0.60953003E+02 -0.11789E+05
 0.61003002E+02 -0.12682E+05
 0.61053001E+02 -0.13047E+05
 0.61103001E+02 -0.12741E+05
 0.61153004E+02 -0.11986E+05
 0.61203003E+02 -0.10790E+05
 0.61253002E+02 -0.10571E+05
 0.61303001E+02 -0.10925E+05
 0.61353001E+02 -0.12024E+05
 0.61403004E+02 -0.11607E+05
 0.61453003E+02 -0.96892E+04
 0.61503002E+02 -0.10441E+05
 0.61553001E+02 -0.14420E+05
 0.61603001E+02 -0.16967E+05
 0.61653004E+02 -0.16319E+05
 0.61703003E+02 -0.13831E+05
 0.61753002E+02 -0.11477E+05
 0.61803001E+02 -0.12322E+05
 0.61853001E+02 -0.14720E+05
 0.61903004E+02 -0.15679E+05
 0.61953003E+02 -0.14450E+05
 0.62003002E+02 -0.11572E+05
 0.62053001E+02 -0.98988E+04
 0.62103004E+02 -0.10987E+05
 0.62153000E+02 -0.13555E+05
 0.62203003E+02 -0.15320E+05
 0.62252998E+02 -0.15529E+05
 0.62303001E+02 -0.14437E+05
 0.62353004E+02 -0.12046E+05
 0.62403000E+02 -0.95133E+04
 0.62453003E+02 -0.10774E+05
 0.62502998E+02 -0.14968E+05
 0.62553001E+02 -0.16067E+05
 0.62603004E+02 -0.13197E+05
 0.62653000E+02 -0.10904E+05
 0.62703003E+02 -0.11320E+05
 0.62752998E+02 -0.12916E+05
 0.62803001E+02 -0.13795E+05
 0.62853004E+02 -0.13287E+05
 0.62903000E+02 -0.12783E+05
 0.62953003E+02 -0.12082E+05
 0.63002998E+02 -0.11214E+05
 0.63053001E+02 -0.11262E+05
 0.63103004E+02 -0.10609E+05
 0.63153000E+02 -0.10633E+05
 0.63203003E+02 -0.12822E+05
 0.63252998E+02 -0.14620E+05
 0.63303001E+02 -0.15150E+05
 0.63353004E+02 -0.14806E+05
 0.63403000E+02 -0.13845E+05
 0.63453003E+02 -0.13233E+05
 0.63502998E+02 -0.12473E+05
 0.63553001E+02 -0.11809E+05
 0.63603004E+02 -0.13855E+05
 0.63653000E+02 -0.15339E+05
 0.63703003E+02 -0.14924E+05
 0.63752998E+02 -0.14025E+05
 0.63803001E+02 -0.12478E+05
 0.63853004E+02 -0.10742E+05
 0.63903000E+02 -0.10070E+05
 0.63953003E+02 -0.10909E+05
 0.64002998E+02 -0.12384E+05
 0.64053001E+02 -0.13287E+05
 0.64103004E+02 -0.13530E+05
 0.64153000E+02 -0.13939E+05
 0.64203003E+02 -0.13960E+05
 0.64252998E+02 -0.14504E+05
 0.64303001E+02 -0.14505E+05
 0.64353004E+02 -0.13804E+05
 0.64403000E+02 -0.13121E+05
 0.64453003E+02 -0.12466E+05
 0.64502998E+02 -0.12116E+05
 0.64553001E+02 -0.11870E+05
 0.64603004E+02 -0.12650E+05
 0.64653000E+02 -0.12769E+05
 0.64703003E+02 -0.11138E+05
 0.64752998E+02 -0.10491E+05
 0.64803001E+02 -0.11656E+05
 0.64853004E+02 -0.13591E+05
 0.64903000E+02 -0.14834E+05
 0.64953003E+02 -0.13824E+05
 0.65002998E+02 -0.13495E+05
 0.65053001E+02 -0.15049E+05
 0.65103004E+02 -0.15644E+05
 0.65153000E+02 -0.14941E+05
 0.65203003E+02 -0.13159E+05
 0.65252998E+02 -0.10386E+05
 0.65303001E+02 -0.85825E+04
 0.65353004E+02 -0.86592E+04
 0.65403000E+02 -0.90582E+04
 0.65453003E+02 -0.10428E+05
 0.65502998E+02 -0.12290E+05
 0.65553001E+02 -0.13627E+05
 0.65603004E+02 -0.14645E+05
 0.65653000E+02 -0.15198E+05
 0.65703003E+02 -0.15858E+05
 0.65752998E+02 -0.15699E+05
 0.65803001E+02 -0.14928E+05
 0.65853004E+02 -0.13609E+05
 0.65903000E+02 -0.12108E+05
 0.65953003E+02 -0.12339E+05
 0.66002998E+02 -0.12353E+05
 0.66053001E+02 -0.11618E+05
 0.66103004E+02 -0.11640E+05
 0.66153000E+02 -0.12007E+05
 0.66203003E+02 -0.12247E+05
 0.66252998E+02 -0.12059E+05
 0.66303001E+02 -0.10693E+05
 0.66353004E+02 -0.94345E+04
 0.66403000E+02 -0.10576E+05
 0.66453003E+02 -0.12683E+05
 0.66502998E+02 -0.14146E+05
 0.66553001E+02 -0.15192E+05
 0.66603004E+02 -0.16561E+05
 0.66653000E+02 -0.15902E+05
 0.66703003E+02 -0.13769E+05
 0.66752998E+02 -0.12167E+05
 0.66803001E+02 -0.11185E+05
 0.66853004E+02 -0.12311E+05
 0.66903000E+02 -0.13932E+05
 0.66953003E+02 -0.14397E+05
 0.67002998E+02 -0.14601E+05
 0.67053001E+02 -0.13882E+05
 0.67103004E+02 -0.11840E+05
 0.67153000E+02 -0.10299E+05
 0.67203003E+02 -0.10711E+05
 0.67252998E+02 -0.13097E+05
 0.67303001E+02 -0.15461E+05
 0.67353004E+02 -0.16624E+05
 0.67403000E+02 -0.16781E+05
 0.67453003E+02 -0.15422E+05
 0.67502998E+02 -0.12813E+05
 0.67553001E+02 -0.10208E+05
 0.67603004E+02 -0.97383E+04
 0.67653000E+02 -0.12041E+05
 0.67703003E+02 -0.14457E+05
 0.67752998E+02 -0.15488E+05
 0.67803001E+02 -0.14499E+05
 0.67853004E+02 -0.12725E+05
 0.67903000E+02 -0.12774E+05
 0.67953003E+02 -0.14405E+05
 0.68002998E+02 -0.15910E+05
 0.68053001E+02 -0.15089E+05
 0.68103004E+02 -0.12429E+05
 0.68153000E+02 -0.10411E+05
 0.68203003E+02 -0.10363E+05
 0.68252998E+02 -0.12394E+05
 0.68303001E+02 -0.14455E+05
 0.68353004E+02 -0.14914E+05
 0.68403000E+02 -0.14000E+05
 0.68453003E+02 -0.12764E+05
 0.68502998E+02 -0.11799E+05
 0.68553001E+02 -0.11816E+05
 0.68603004E+02 -0.12519E+05
 0.68653000E+02 -0.12327E+05
 0.68703003E+02 -0.11609E+05
 0.68752998E+02 -0.11902E+05
 0.68803001E+02 -0.12746E+05
 0.68853004E+02 -0.13864E+05
 0.68903000E+02 -0.14992E+05
 0.68953003E+02 -0.14867E+05
 0.69002998E+02 -0.13283E+05
 0.69053001E+02 -0.12224E+05
 0.69103004E+02 -0.12302E+05
 0.69153000E+02 -0.11999E+05
 0.69203003E+02 -0.11563E+05
 0.69252998E+02 -0.10833E+05
 0.69303001E+02 -0.10693E+05
 0.69353004E+02 -0.12079E+05
 0.69403000E+02 -0.13117E+05
 0.69453003E+02 -0.12640E+05
 0.69502998E+02 -0.11696E+05
 0.69553001E+02 -0.11098E+05
 0.69603004E+02 -0.11722E+05
 0.69653000E+02 -0.13366E+05
 0.69703003E+02 -0.14942E+05
 0.69752998E+02 -0.15447E+05
 0.69803001E+02 -0.13969E+05
 0.69853004E+02 -0.12154E+05
 0.69903000E+02 -0.11874E+05
 0.69953003E+02 -0.12139E+05
 0.70002998E+02 -0.12304E+05
 0.70053001E+02 -0.12090E+05
 0.70103004E+02 -0.11443E+05
 0.70153000E+02 -0.11540E+05
 0.70203003E+02 -0.12245E+05
 0.70252998E+02 -0.13608E+05
 0.70303001E+02 -0.14518E+05
 0.70353004E+02 -0.14387E+05
 0.70403000E+02 -0.13565E+05
 0.70453003E+02 -0.12205E+05
 0.70502998E+02 -0.11132E+05
 0.70553001E+02 -0.10855E+05
 0.70603004E+02 -0.12050E+05
 0.70653000E+02 -0.13729E+05
 0.70703003E+02 -0.14568E+05
 0.70752998E+02 -0.13875E+05
 0.70803001E+02 -0.13023E+05
 0.70853004E+02 -0.13475E+05
 0.70903000E+02 -0.13739E+05
 0.70953003E+02 -0.13025E+05
 0.71002998E+02 -0.12054E+05
 0.71053001E+02 -0.11957E+05
 0.71103004E+02 -0.12655E+05
 0.71153000E+02 -0.13391E+05
 0.71203003E+02 -0.14082E+05
 0.71252998E+02 -0.14603E+05
 0.71303001E+02 -0.14161E+05
 0.71353004E+02 -0.12822E+05
 0.71403000E+02 -0.12554E+05
 0.71453003E+02 -0.13660E+05
 0.71502998E+02 -0.14178E+05
 0.71553001E+02 -0.13408E+05
 0.71603004E+02 -0.12168E+05
 0.71653000E+02 -0.11211E+05
 0.71703003E+02 -0.11739E+05
 0.71752998E+02 -0.13350E+05
 0.71803001E+02 -0.14398E+05
 0.71853004E+02 -0.14484E+05
 0.71903000E+02 -0.13749E+05
 0.71953003E+02 -0.13361E+05
 0.72002998E+02 -0.13226E+05
 0.72053001E+02 -0.12758E+05
 0.72103004E+02 -0.12739E+05
 0.72153000E+02 -0.13009E+05
 0.72203003E+02 -0.12868E+05
 0.72252998E+02 -0.11949E+05
 0.72303001E+02 -0.11654E+05
 0.72353004E+02 -0.12122E+05
 0.72403000E+02 -0.12632E+05
 0.72453003E+02 -0.13136E+05
 0.72502998E+02 -0.13117E+05
 0.72553001E+02 -0.12540E+05
 0.72603004E+02 -0.11775E+05
 0.72653000E+02 -0.11752E+05
 0.72703003E+02 -0.12245E+05
 0.72752998E+02 -0.13225E+05
 0.72803001E+02 -0.13917E+05
 0.72853004E+02 -0.13963E+05
 0.72903000E+02 -0.13544E+05
 0.72953003E+02 -0.12122E+05
 0.73002998E+02 -0.11281E+05
 0.73053001E+02 -0.11667E+05
 0.73103004E+02 -0.12290E+05
 0.73153000E+02 -0.12798E+05
 0.73203003E+02 -0.13276E+05
 0.73252998E+02 -0.13162E+05
 0.73303001E+02 -0.12651E+05
 0.73353004E+02 -0.12395E+05
 0.73403000E+02 -0.12107E+05
 0.73453003E+02 -0.12585E+05
 0.73502998E+02 -0.13723E+05
 0.73553001E+02 -0.14420E+05
 0.73603004E+02 -0.14278E+05
 0.73653000E+02 -0.13851E+05
 0.73703003E+02 -0.13379E+05
 0.73752998E+02 -0.13187E+05
 0.73803001E+02 -0.14443E+05
 0.73853004E+02 -0.15381E+05
 0.73903000E+02 -0.14319E+05
 0.73953003E+02 -0.12256E+05
 0.74002998E+02 -0.10449E+05
 0.74053001E+02 -0.99715E+04
 0.74103004E+02 -0.10756E+05
 0.74153000E+02 -0.11932E+05
 0.74203003E+02 -0.12943E+05
 0.74252998E+02 -0.13599E+05
 0.74303001E+02 -0.13827E+05
 0.74353004E+02 -0.13950E+05
 0.74403000E+02 -0.14124E+05
 0.74453003E+02 -0.13845E+05
 0.74502998E+02 -0.13199E+05
 0.74553001E+02 -0.12972E+05
 0.74603004E+02 -0.12657E+05
 0.74653000E+02 -0.11800E+05
 0.74703003E+02 -0.11165E+05
 0.74752998E+02 -0.11244E+05
 0.74803001E+02 -0.12185E+05
 0.74853004E+02 -0.12890E+05
 0.74903000E+02 -0.13051E+05
 0.74953003E+02 -0.13198E+05
 0.75002998E+02 -0.12806E+05
 0.75053001E+02 -0.12188E+05
 0.75103004E+02 -0.12498E+05
 0.75153000E+02 -0.13394E+05
 0.75203003E+02 -0.14264E+05
 0.75252998E+02 -0.15029E+05
 0.75303001E+02 -0.15123E+05
 0.75353004E+02 -0.14021E+05
 0.75403000E+02 -0.12697E+05
 0.75453003E+02 -0.12176E+05
 0.75502998E+02 -0.12168E+05
 0.75553001E+02 -0.12560E+05
 0.75603004E+02 -0.12884E+05
 0.75653000E+02 -0.12812E+05
 0.75703003E+02 -0.12308E+05
 0.75752998E+02 -0.11901E+05
 0.75803001E+02 -0.12143E+05
 0.75853004E+02 -0.12977E+05
 0.75903000E+02 -0.14099E+05
 0.75953003E+02 -0.14540E+05
 0.76002998E+02 -0.13753E+05
 0.76053001E+02 -0.12265E+05
 0.76103004E+02 -0.11106E+05
 0.76153000E+02 -0.11234E+05
 0.76203003E+02 -0.11967E+05
 0.76252998E+02 -0.12115E+05
 0.76303001E+02 -0.12002E+05
 0.76353004E+02 -0.12206E+05
 0.76403000E+02 -0.12477E+05
 0.76453003E+02 -0.12305E+05
 0.76502998E+02 -0.12520E+05
 0.76553001E+02 -0.13084E+05
 0.76603004E+02 -0.13161E+05
 0.76653000E+02 -0.12824E+05
 0.76703003E+02 -0.12754E+05
 0.76752998E+02 -0.13099E+05
 0.76803001E+02 -0.13151E+05
 0.76853004E+02 -0.12798E+05
 0.76903000E+02 -0.12146E+05
 0.76953003E+02 -0.11641E+05
 0.77002998E+02 -0.12361E+05
 0.77053001E+02 -0.14102E+05
 0.77103004E+02 -0.14413E+05
 0.77153000E+02 -0.12959E+05
 0.77203003E+02 -0.11380E+05
 0.77252998E+02 -0.10766E+05
 0.77303001E+02 -0.11117E+05
 0.77353004E+02 -0.12090E+05
 0.77403000E+02 -0.13318E+05
 0.77453003E+02 -0.14076E+05
 0.77502998E+02 -0.14780E+05
 0.77553001E+02 -0.15562E+05
 0.77603004E+02 -0.16187E+05
 0.77653000E+02 -0.15990E+05
 0.77703003E+02 -0.14490E+05
 0.77752998E+02 -0.12663E+05
 0.77803001E+02 -0.11861E+05
 0.77853004E+02 -0.12526E+05
 0.77903000E+02 -0.13696E+05
 0.77953003E+02 -0.13933E+05
 0.78002998E+02 -0.13006E+05
 0.78053001E+02 -0.11834E+05
 0.78103004E+02 -0.11297E+05
 0.78153000E+02 -0.11591E+05
 0.78203003E+02 -0.12185E+05
 0.78252998E+02 -0.12243E+05
 0.78303001E+02 -0.12063E+05
 0.78353004E+02 -0.12570E+05
 0.78403000E+02 -0.13204E+05
 0.78453003E+02 -0.13607E+05
 0.78502998E+02 -0.13796E+05
 0.78553001E+02 -0.13082E+05
 0.78603004E+02 -0.12243E+05
 0.78653000E+02 -0.13018E+05
 0.78703003E+02 -0.14457E+05
 0.78752998E+02 -0.14794E+05
 0.78803001E+02 -0.13691E+05
 0.78853004E+02 -0.11927E+05
 0.78903000E+02 -0.10624E+05
 0.78953003E+02 -0.10335E+05
 0.79002998E+02 -0.11102E+05
 0.79053001E+02 -0.12621E+05
 0.79103004E+02 -0.13695E+05
 0.79153000E+02 -0.13884E+05
 0.79203003E+02 -0.13593E+05
 0.79252998E+02 -0.13158E+05
 0.79303001E+02 -0.13529E+05
 0.79353004E+02 -0.14220E+05
 0.79403000E+02 -0.14015E+05
 0.79453003E+02 -0.12906E+05
 0.79502998E+02 -0.12080E+05
 0.79553001E+02 -0.12072E+05
 0.79603004E+02 -0.12658E+05
 0.79653000E+02 -0.12745E+05
 0.79703003E+02 -0.11940E+05
 0.79752998E+02 -0.11452E+05
 0.79803001E+02 -0.11632E+05
 0.79853004E+02 -0.12322E+05
 0.79903000E+02 -0.12961E+05
 0.79953003E+02 -0.13321E+05
 0.80002998E+02 -0.13379E+05
 0.80053001E+02 -0.13294E+05
 0.80103004E+02 -0.13508E+05
 0.80153000E+02 -0.13217E+05
 0.80203003E+02 -0.12403E+05
 0.80252998E+02 -0.11736E+05
 0.80303001E+02 -0.11812E+05
 0.80353004E+02 -0.12838E+05
 0.80403000E+02 -0.14121E+05
 0.80453003E+02 -0.14926E+05
 0.80502998E+02 -0.14716E+05
 0.80553001E+02 -0.13900E+05
 0.80603004E+02 -0.12914E+05
 0.80653000E+02 -0.12017E+05
 0.80703003E+02 -0.11679E+05
 0.80752998E+02 -0.11742E+05
 0.80803001E+02 -0.12170E+05
 0.80853004E+02 -0.13128E+05
 0.80903000E+02 -0.13929E+05
 0.80953003E+02 -0.13595E+05
 0.81002998E+02 -0.12775E+05
 0.81053001E+02 -0.12663E+05
 0.81103004E+02 -0.12991E+05
 0.81153000E+02 -0.13218E+05
 0.81203003E+02 -0.13176E+05
 0.81252998E+02 -0.13262E+05
 0.81303001E+02 -0.13489E+05
 0.81353004E+02 -0.13319E+05
 0.81403000E+02 -0.12772E+05
 0.81453003E+02 -0.12222E+05
 0.81502998E+02 -0.12164E+05
 0.81553001E+02 -0.12703E+05
 0.81603004E+02 -0.13244E+05
 0.81653000E+02 -0.13370E+05
 0.81703003E+02 -0.13168E+05
 0.81752998E+02 -0.12776E+05
 0.81803001E+02 -0.12718E+05
 0.81853004E+02 -0.13405E+05
 0.81903000E+02 -0.13994E+05
 0.81953003E+02 -0.13349E+05
 0.82002998E+02 -0.12179E+05
 0.82053001E+02 -0.11929E+05
 0.82103004E+02 -0.12167E+05
 0.82153000E+02 -0.12618E+05
 0.82203003E+02 -0.12976E+05
 0.82252998E+02 -0.12584E+05
 0.82303001E+02 -0.11917E+05
 0.82353004E+02 -0.11537E+05
 0.82403000E+02 -0.11817E+05
 0.82453003E+02 -0.12771E+05
 0.82502998E+02 -0.14075E+05
 0.82553001E+02 -0.14602E+05
 0.82603004E+02 -0.14085E+05
 0.82653000E+02 -0.13000E+05
 0.82703003E+02 -0.12233E+05
 0.82752998E+02 -0.12052E+05
 0.82803001E+02 -0.12163E+05
 0.82853004E+02 -0.12371E+05
 0.82903000E+02 -0.12360E+05
 0.82953003E+02 -0.12747E+05
 0.83002998E+02 -0.12915E+05
 0.83053001E+02 -0.12742E+05
 0.83103004E+02 -0.12980E+05
 0.83153000E+02 -0.13514E+05
 0.83203003E+02 -0.13910E+05
 0.83252998E+02 -0.14028E+05
 0.83303001E+02 -0.13808E+05
 0.83353004E+02 -0.13206E+05
 0.83403000E+02 -0.12702E+05
 0.83453003E+02 -0.12463E+05
 0.83502998E+02 -0.12729E+05
 0.83553001E+02 -0.12743E+05
 0.83603004E+02 -0.12175E+05
 0.83653000E+02 -0.11610E+05
 0.83703003E+02 -0.11783E+05
 0.83752998E+02 -0.12546E+05
 0.83803001E+02 -0.13336E+05
 0.83853004E+02 -0.13759E+05
 0.83903000E+02 -0.13653E+05
 0.83953003E+02 -0.13841E+05
 0.84002998E+02 -0.13980E+05
 0.84053001E+02 -0.13614E+05
 0.84103004E+02 -0.13233E+05
 0.84153000E+02 -0.12978E+05
 0.84203003E+02 -0.12365E+05
 0.84252998E+02 -0.11753E+05
 0.84303001E+02 -0.11210E+05
 0.84353004E+02 -0.11238E+05
 0.84403000E+02 -0.12366E+05
 0.84453003E+02 -0.13797E+05
 0.84502998E+02 -0.14635E+05
 0.84553001E+02 -0.14760E+05
 0.84603004E+02 -0.14758E+05
 0.84653000E+02 -0.14566E+05
 0.84703003E+02 -0.14193E+05
 0.84752998E+02 -0.13865E+05
 0.84803001E+02 -0.13130E+05
 0.84853004E+02 -0.12245E+05
 0.84903000E+02 -0.11682E+05
 0.84953003E+02 -0.11438E+05
 0.85002998E+02 -0.11421E+05
 0.85053001E+02 -0.11727E+05
 0.85103004E+02 -0.12148E+05
 0.85153000E+02 -0.12010E+05
 0.85203003E+02 -0.11864E+05
 0.85252998E+02 -0.12107E+05
 0.85303001E+02 -0.12634E+05
 0.85353004E+02 -0.13534E+05
 0.85403000E+02 -0.14377E+05
 0.85453003E+02 -0.14419E+05
 0.85502998E+02 -0.13885E+05
 0.85553001E+02 -0.13424E+05
 0.85603004E+02 -0.13035E+05
 0.85653000E+02 -0.12488E+05
 0.85703003E+02 -0.11934E+05
 0.85752998E+02 -0.11731E+05
 0.85803001E+02 -0.12043E+05
 0.85853004E+02 -0.12039E+05
 0.85903000E+02 -0.11591E+05
 0.85953003E+02 -0.11547E+05
 0.86002998E+02 -0.11991E+05
 0.86053001E+02 -0.12734E+05
 0.86103004E+02 -0.13289E+05
 0.86153000E+02 -0.13507E+05
 0.86203003E+02 -0.13233E+05
 0.86252998E+02 -0.12684E+05
 0.86303001E+02 -0.12565E+05
 0.86353004E+02 -0.12944E+05
 0.86403000E+02 -0.13675E+05
 0.86453003E+02 -0.14358E+05
 0.86502998E+02 -0.14217E+05
 0.86553001E+02 -0.13087E+05
 0.86603004E+02 -0.11950E+05
 0.86653000E+02 -0.11367E+05
 0.86703003E+02 -0.11601E+05
 0.86752998E+02 -0.12358E+05
 0.86803001E+02 -0.13029E+05
 0.86853004E+02 -0.13076E+05
 0.86903000E+02 -0.12858E+05
 0.86953003E+02 -0.13253E+05
 0.87002998E+02 -0.13873E+05
 0.87053001E+02 -0.14196E+05
 0.87103004E+02 -0.14402E+05
 0.87153000E+02 -0.14839E+05
 0.87203003E+02 -0.14874E+05
 0.87252998E+02 -0.14394E+05
 0.87303001E+02 -0.13453E+05
 0.87353004E+02 -0.12314E+05
 0.87403000E+02 -0.11868E+05
 0.87453003E+02 -0.12661E+05
 0.87502998E+02 -0.13534E+05
 0.87553001E+02 -0.13482E+05
 0.87602997E+02 -0.12959E+05
 0.87653000E+02 -0.12474E+05
 0.87703003E+02 -0.12403E+05
 0.87752998E+02 -0.12349E+05
 0.87803001E+02 -0.12265E+05
 0.87852997E+02 -0.12203E+05
 0.87903000E+02 -0.12288E+05
 0.87953003E+02 -0.12675E+05
 0.88002998E+02 -0.13031E+05
 0.88053001E+02 -0.13126E+05
 0.88102997E+02 -0.13115E+05
 0.88153000E+02 -0.13209E+05
 0.88203003E+02 -0.13306E+05
 0.88252998E+02 -0.13355E+05
 0.88303001E+02 -0.12969E+05
 0.88352997E+02 -0.12465E+05
 0.88403000E+02 -0.12097E+05
 0.88453003E+02 -0.11719E+05
 0.88502998E+02 -0.11705E+05
 0.88553001E+02 -0.12209E+05
 0.88602997E+02 -0.12847E+05
 0.88653000E+02 -0.13344E+05
 0.88703003E+02 -0.13813E+05
 0.88752998E+02 -0.14119E+05
 0.88803001E+02 -0.14076E+05
 0.88852997E+02 -0.13546E+05
 0.88903000E+02 -0.12807E+05
 0.88953003E+02 -0.12381E+05
 0.89002998E+02 -0.12533E+05
 0.89053001E+02 -0.12749E+05
 0.89102997E+02 -0.12601E+05
 0.89153000E+02 -0.12562E+05
 0.89203003E+02 -0.12535E+05
 0.89252998E+02 -0.12422E+05
 0.89303001E+02 -0.12474E+05
 0.89352997E+02 -0.12463E+05
 0.89403000E+02 -0.12395E+05
 0.89453003E+02 -0.12328E+05
 0.89502998E+02 -0.12326E+05
 0.89553001E+02 -0.12708E+05
 0.89602997E+02 -0.13114E+05
 0.89653000E+02 -0.13094E+05
 0.89703003E+02 -0.12910E+05
 0.89752998E+02 -0.12820E+05
 0.89803001E+02 -0.12884E+05
 0.89852997E+02 -0.13187E+05
 0.89903000E+02 -0.13521E+05
 0.89953003E+02 -0.13718E+05
 0.90002998E+02 -0.13661E+05
 0.90053001E+02 -0.13359E+05
 0.90102997E+02 -0.13013E+05
 0.90153000E+02 -0.12719E+05
 0.90203003E+02 -0.12542E+05
 0.90252998E+02 -0.12369E+05
 0.90303001E+02 -0.12528E+05
 0.90352997E+02 -0.13005E+05
 0.90403000E+02 -0.13467E+05
 0.90453003E+02 -0.13666E+05
 0.90502998E+02 -0.13416E+05
 0.90553001E+02 -0.12913E+05
 0.90602997E+02 -0.12557E+05
 0.90653000E+02 -0.12659E+05
 0.90703003E+02 -0.12815E+05
 0.90752998E+02 -0.12864E+05
 0.90803001E+02 -0.13052E+05
 0.90852997E+02 -0.13281E+05
 0.90903000E+02 -0.13330E+05
 0.90953003E+02 -0.13079E+05
 0.91002998E+02 -0.12640E+05
 0.91053001E+02 -0.12141E+05
 0.91102997E+02 -0.11812E+05
 0.91153000E+02 -0.11931E+05
 0.91203003E+02 -0.12400E+05
 0.91252998E+02 -0.12924E+05
 0.91303001E+02 -0.13293E+05
 0.91352997E+02 -0.13470E+05
 0.91403000E+02 -0.13343E+05
 0.91453003E+02 -0.12984E+05
 0.91502998E+02 -0.12586E+05
 0.91553001E+02 -0.12227E+05
 0.91602997E+02 -0.12059E+05
 0.91653000E+02 -0.12294E+05
 0.91703003E+02 -0.12669E+05
 0.91752998E+02 -0.12915E+05
 0.91803001E+02 -0.13035E+05
 0.91852997E+02 -0.12978E+05
 0.91903000E+02 -0.12812E+05
 0.91953003E+02 -0.12680E+05
 0.92002998E+02 -0.12719E+05
 0.92053001E+02 -0.12951E+05
 0.92102997E+02 -0.13109E+05
 0.92153000E+02 -0.13216E+05
 0.92203003E+02 -0.13335E+05
 0.92252998E+02 -0.13288E+05
 0.92303001E+02 -0.13105E+05
 0.92352997E+02 -0.12718E+05
 0.92403000E+02 -0.12175E+05
 0.92453003E+02 -0.11701E+05
 0.92502998E+02 -0.11713E+05
 0.92553001E+02 -0.12117E+05
 0.92602997E+02 -0.12591E+05
 0.92653000E+02 -0.12999E+05
 0.92703003E+02 -0.13244E+05
 0.92752998E+02 -0.13050E+05
 0.92803001E+02 -0.12760E+05
 0.92852997E+02 -0.12726E+05
 0.92903000E+02 -0.13097E+05
 0.92953003E+02 -0.13459E+05
 0.93002998E+02 -0.13516E+05
 0.93053001E+02 -0.13511E+05
 0.93102997E+02 -0.13446E+05
 0.93153000E+02 -0.13274E+05
 0.93203003E+02 -0.12998E+05
 0.93252998E+02 -0.12808E+05
 0.93303001E+02 -0.12919E+05
 0.93352997E+02 -0.13189E+05
 0.93403000E+02 -0.13228E+05
 0.93453003E+02 -0.13121E+05
 0.93502998E+02 -0.13076E+05
 0.93553001E+02 -0.13096E+05
 0.93602997E+02 -0.13189E+05
 0.93653000E+02 -0.13326E+05
 0.93703003E+02 -0.13227E+05
 0.93752998E+02 -0.13044E+05
 0.93803001E+02 -0.12742E+05
 0.93852997E+02 -0.12534E+05
 0.93903000E+02 -0.12486E+05
 0.93953003E+02 -0.12372E+05
 0.94002998E+02 -0.12483E+05
 0.94053001E+02 -0.12762E+05
 0.94102997E+02 -0.12722E+05
 0.94153000E+02 -0.12603E+05
 0.94203003E+02 -0.12821E+05
 0.94252998E+02 -0.13205E+05
 0.94303001E+02 -0.13331E+05
 0.94352997E+02 -0.12945E+05
 0.94403000E+02 -0.12369E+05
 0.94453003E+02 -0.12203E+05
 0.94502998E+02 -0.12613E+05
 0.94553001E+02 -0.13326E+05
 0.94602997E+02 -0.13888E+05
 0.94653000E+02 -0.14064E+05
 0.94703003E+02 -0.13778E+05
 0.94752998E+02 -0.13351E+05
 0.94803001E+02 -0.13083E+05
 0.94852997E+02 -0.12875E+05
 0.94903000E+02 -0.12757E+05
 0.94953003E+02 -0.12617E+05
 0.95002998E+02 -0.12421E+05
 0.95053001E+02 -0.12467E+05
 0.95102997E+02 -0.12676E+05
 0.95153000E+02 -0.12590E+05
 0.95203003E+02 -0.12310E+05
 0.95252998E+02 -0.12235E+05
 0.95303001E+02 -0.12574E+05
 0.95352997E+02 -0.13114E+05
 0.95403000E+02 -0.13468E+05
 0.95453003E+02 -0.13611E+05
 0.95502998E+02 -0.13665E+05
 0.95553001E+02 -0.13672E+05
 0.95602997E+02 -0.13493E+05
 0.95653000E+02 -0.13160E+05
 0.95703003E+02 -0.12837E+05
 0.95752998E+02 -0.12415E+05
 0.95803001E+02 -0.11951E+05
 0.95852997E+02 -0.11564E+05
 0.95903000E+02 -0.11742E+05
 0.95953003E+02 -0.12261E+05
 0.96002998E+02 -0.12754E+05
 0.96053001E+02 -0.12999E+05
 0.96102997E+02 -0.13012E+05
 0.96153000E+02 -0.13031E+05
 0.96203003E+02 -0.13069E+05
 0.96252998E+02 -0.13182E+05
 0.96303001E+02 -0.13314E+05
 0.96352997E+02 -0.13301E+05
 0.96403000E+02 -0.13112E+05
 0.96453003E+02 -0.12922E+05
 0.96502998E+02 -0.12664E+05
 0.96553001E+02 -0.12544E+05
 0.96602997E+02 -0.12452E+05
 0.96653000E+02 -0.12305E+05
 0.96703003E+02 -0.12305E+05
 0.96752998E+02 -0.12590E+05
 0.96803001E+02 -0.12985E+05
 0.96852997E+02 -0.13269E+05
 0.96903000E+02 -0.13342E+05
 0.96953003E+02 -0.13441E+05
 0.97002998E+02 -0.13527E+05
 0.97053001E+02 -0.13411E+05
 0.97102997E+02 -0.13117E+05
 0.97153000E+02 -0.12787E+05
 0.97203003E+02 -0.12861E+05
 0.97252998E+02 -0.13056E+05
 0.97303001E+02 -0.12935E+05
 0.97352997E+02 -0.12657E+05
 0.97403000E+02 -0.12588E+05
 0.97453003E+02 -0.12909E+05
 0.97502998E+02 -0.13328E+05
 0.97553001E+02 -0.13508E+05
 0.97602997E+02 -0.13196E+05
 0.97653000E+02 -0.12680E+05
 0.97703003E+02 -0.12176E+05
 0.97752998E+02 -0.11924E+05
 0.97803001E+02 -0.12009E+05
 0.97852997E+02 -0.12428E+05
 0.97903000E+02 -0.13068E+05
 0.97953003E+02 -0.13314E+05
 0.98002998E+02 -0.13258E+05
