-0.20000000E+01 -0.59391E+04
-0.19500000E+01 -0.59049E+04
-0.19000000E+01 -0.59238E+04
-0.18500000E+01 -0.59219E+04
-0.18000000E+01 -0.59185E+04
-0.17500000E+01 -0.59196E+04
-0.17000000E+01 -0.59183E+04
-0.16500001E+01 -0.59167E+04
-0.16000000E+01 -0.59141E+04
-0.15500000E+01 -0.59135E+04
-0.15000000E+01 -0.59164E+04
-0.14500000E+01 -0.59192E+04
-0.14000001E+01 -0.59207E+04
-0.13500000E+01 -0.59194E+04
-0.13000001E+01 -0.59186E+04
-0.12500000E+01 -0.59146E+04
-0.12000000E+01 -0.59173E+04
-0.11500001E+01 -0.59191E+04
-0.11000000E+01 -0.59204E+04
-0.10500001E+01 -0.59258E+04
-0.10000000E+01 -0.59281E+04
-0.95000005E+00 -0.59246E+04
-0.90000010E+00 -0.59187E+04
-0.85000002E+00 -0.59165E+04
-0.80000007E+00 -0.59113E+04
-0.75000012E+00 -0.59135E+04
-0.70000005E+00 -0.59135E+04
-0.65000010E+00 -0.59138E+04
-0.60000014E+00 -0.59194E+04
-0.55000007E+00 -0.59180E+04
-0.50000012E+00 -0.59173E+04
-0.45000005E+00 -0.59161E+04
-0.40000010E+00 -0.59140E+04
-0.35000014E+00 -0.59135E+04
-0.30000007E+00 -0.59192E+04
-0.25000012E+00 -0.59157E+04
-0.20000005E+00 -0.59145E+04
-0.15000010E+00 -0.59188E+04
-0.10000014E+00 -0.59153E+04
-0.50000072E-01 -0.59140E+04
-0.11920929E-06 -0.59182E+04
 0.49999952E-01 -0.59257E+04
 0.99999905E-01 -0.59282E+04
 0.14999986E+00 -0.59259E+04
 0.19999981E+00 -0.59310E+04
 0.24999976E+00 -0.59356E+04
 0.29999995E+00 -0.59369E+04
 0.34999990E+00 -0.59420E+04
 0.39999986E+00 -0.59399E+04
 0.44999981E+00 -0.59398E+04
 0.49999976E+00 -0.59377E+04
 0.54999995E+00 -0.59369E+04
 0.59999990E+00 -0.59401E+04
 0.64999986E+00 -0.59342E+04
 0.69999981E+00 -0.59300E+04
 0.74999976E+00 -0.59324E+04
 0.79999971E+00 -0.59305E+04
 0.84999990E+00 -0.59334E+04
 0.89999986E+00 -0.59357E+04
 0.94999981E+00 -0.59327E+04
 0.99999976E+00 -0.59346E+04
 0.10499997E+01 -0.59297E+04
 0.10999999E+01 -0.59304E+04
 0.11499999E+01 -0.59341E+04
 0.11999998E+01 -0.59375E+04
 0.12499998E+01 -0.59450E+04
 0.12999997E+01 -0.59446E+04
 0.13499999E+01 -0.59452E+04
 0.13999999E+01 -0.59450E+04
 0.14499998E+01 -0.59468E+04
 0.14999998E+01 -0.59511E+04
 0.15499997E+01 -0.59508E+04
 0.15999999E+01 -0.59481E+04
 0.16499999E+01 -0.59426E+04
 0.16999998E+01 -0.59434E+04
 0.17499998E+01 -0.59383E+04
 0.17999997E+01 -0.59319E+04
 0.18499997E+01 -0.59300E+04
 0.18999999E+01 -0.59260E+04
 0.19499998E+01 -0.59213E+04
 0.19999998E+01 -0.59165E+04
 0.20499997E+01 -0.59194E+04
 0.20999999E+01 -0.59191E+04
 0.21499996E+01 -0.59170E+04
 0.21999998E+01 -0.59115E+04
 0.22499995E+01 -0.59079E+04
 0.22999997E+01 -0.59080E+04
 0.23499999E+01 -0.59123E+04
 0.23999996E+01 -0.59110E+04
 0.24499998E+01 -0.59112E+04
 0.24999995E+01 -0.59198E+04
 0.25499997E+01 -0.59163E+04
 0.25999999E+01 -0.59208E+04
 0.26499996E+01 -0.59216E+04
 0.26999998E+01 -0.59187E+04
 0.27499995E+01 -0.59162E+04
 0.27999997E+01 -0.59154E+04
 0.28499999E+01 -0.59226E+04
 0.28999996E+01 -0.59237E+04
 0.29499998E+01 -0.59267E+04
 0.29999995E+01 -0.59268E+04
 0.30499997E+01 -0.59245E+04
 0.30999999E+01 -0.59219E+04
 0.31499996E+01 -0.59185E+04
 0.31999998E+01 -0.59162E+04
 0.32499995E+01 -0.59180E+04
 0.32999997E+01 -0.59235E+04
 0.33499999E+01 -0.59210E+04
 0.33999996E+01 -0.59219E+04
 0.34499998E+01 -0.59215E+04
 0.34999995E+01 -0.59174E+04
 0.35499997E+01 -0.59237E+04
 0.35999994E+01 -0.59281E+04
 0.36499996E+01 -0.59316E+04
 0.36999998E+01 -0.59423E+04
 0.37499995E+01 -0.59466E+04
 0.37999997E+01 -0.59489E+04
 0.38499994E+01 -0.59503E+04
 0.38999996E+01 -0.59487E+04
 0.39499998E+01 -0.59523E+04
 0.39999995E+01 -0.59553E+04
 0.40499997E+01 -0.59548E+04
 0.40999994E+01 -0.59542E+04
 0.41499996E+01 -0.59524E+04
 0.41999998E+01 -0.59498E+04
 0.42499995E+01 -0.59466E+04
 0.42999997E+01 -0.59469E+04
 0.43499994E+01 -0.59499E+04
 0.43999996E+01 -0.59462E+04
 0.44499998E+01 -0.59444E+04
 0.44999995E+01 -0.59418E+04
 0.45499997E+01 -0.59431E+04
 0.45999994E+01 -0.59406E+04
 0.46499996E+01 -0.59391E+04
 0.46999998E+01 -0.59380E+04
 0.47499995E+01 -0.59319E+04
 0.47999997E+01 -0.59260E+04
 0.48499994E+01 -0.59146E+04
 0.48999996E+01 -0.59107E+04
 0.49499998E+01 -0.59069E+04
 0.49999995E+01 -0.58997E+04
 0.50499997E+01 -0.59021E+04
 0.50999994E+01 -0.59037E+04
 0.51499996E+01 -0.58998E+04
 0.51999998E+01 -0.59052E+04
 0.52499995E+01 -0.59068E+04
 0.52999997E+01 -0.59105E+04
 0.53499994E+01 -0.59100E+04
 0.53999996E+01 -0.59131E+04
 0.54499993E+01 -0.59190E+04
 0.54999995E+01 -0.59207E+04
 0.55499997E+01 -0.59234E+04
 0.55999994E+01 -0.59224E+04
 0.56499996E+01 -0.59323E+04
 0.56999993E+01 -0.59337E+04
 0.57499995E+01 -0.59361E+04
 0.57999997E+01 -0.59408E+04
 0.58499994E+01 -0.59341E+04
 0.58999996E+01 -0.59382E+04
 0.59499993E+01 -0.59389E+04
 0.59999995E+01 -0.59334E+04
 0.60499992E+01 -0.59321E+04
 0.60999994E+01 -0.59354E+04
 0.61499996E+01 -0.59349E+04
 0.61999998E+01 -0.59304E+04
 0.62499990E+01 -0.59334E+04
 0.62999992E+01 -0.59316E+04
 0.63499994E+01 -0.59330E+04
 0.63999996E+01 -0.59303E+04
 0.64499998E+01 -0.59268E+04
 0.64999990E+01 -0.59280E+04
 0.65499992E+01 -0.59296E+04
 0.65999994E+01 -0.59306E+04
 0.66499996E+01 -0.59255E+04
 0.66999998E+01 -0.59259E+04
 0.67499990E+01 -0.59296E+04
 0.67999992E+01 -0.59294E+04
 0.68499994E+01 -0.59347E+04
 0.68999996E+01 -0.59353E+04
 0.69499998E+01 -0.59353E+04
 0.69999990E+01 -0.59384E+04
 0.70499992E+01 -0.59297E+04
 0.70999994E+01 -0.59262E+04
 0.71499996E+01 -0.59249E+04
 0.71999998E+01 -0.59264E+04
 0.72499990E+01 -0.59296E+04
 0.72999992E+01 -0.59253E+04
 0.73499994E+01 -0.59265E+04
 0.73999996E+01 -0.59316E+04
 0.74499998E+01 -0.59358E+04
 0.74999990E+01 -0.59343E+04
 0.75499992E+01 -0.59271E+04
 0.75999994E+01 -0.59284E+04
 0.76499996E+01 -0.59265E+04
 0.76999998E+01 -0.59240E+04
 0.77499990E+01 -0.59277E+04
 0.77999992E+01 -0.59300E+04
 0.78499994E+01 -0.59325E+04
 0.78999996E+01 -0.59365E+04
 0.79499998E+01 -0.59374E+04
 0.79999990E+01 -0.59361E+04
 0.80499992E+01 -0.59367E+04
 0.80999994E+01 -0.59351E+04
 0.81499996E+01 -0.59348E+04
 0.81999998E+01 -0.59311E+04
 0.82499990E+01 -0.59261E+04
 0.82999992E+01 -0.59249E+04
 0.83499994E+01 -0.59272E+04
 0.83999996E+01 -0.59210E+04
 0.84499998E+01 -0.59202E+04
 0.84999990E+01 -0.59200E+04
 0.85499992E+01 -0.59170E+04
 0.85999994E+01 -0.59202E+04
 0.86499996E+01 -0.59167E+04
 0.86999998E+01 -0.59175E+04
 0.87499990E+01 -0.59161E+04
 0.87999992E+01 -0.59180E+04
 0.88499994E+01 -0.59157E+04
 0.88999996E+01 -0.59139E+04
 0.89499998E+01 -0.59174E+04
 0.89999990E+01 -0.59159E+04
 0.90499992E+01 -0.59191E+04
 0.90999994E+01 -0.59220E+04
 0.91499996E+01 -0.59284E+04
 0.91999989E+01 -0.59321E+04
 0.92499990E+01 -0.59349E+04
 0.92999992E+01 -0.59330E+04
 0.93499994E+01 -0.59368E+04
 0.93999996E+01 -0.59399E+04
 0.94499989E+01 -0.59385E+04
 0.94999990E+01 -0.59460E+04
 0.95499992E+01 -0.59446E+04
 0.95999994E+01 -0.59454E+04
 0.96499996E+01 -0.59438E+04
 0.96999989E+01 -0.59431E+04
 0.97499990E+01 -0.59389E+04
 0.97999992E+01 -0.59354E+04
 0.98499994E+01 -0.59348E+04
 0.98999996E+01 -0.59358E+04
 0.99499989E+01 -0.59418E+04
 0.99999990E+01 -0.59382E+04
 0.10049999E+02 -0.59377E+04
 0.10099999E+02 -0.59313E+04
 0.10150000E+02 -0.59269E+04
 0.10199999E+02 -0.59298E+04
 0.10249999E+02 -0.59312E+04
 0.10299999E+02 -0.59324E+04
 0.10349999E+02 -0.59325E+04
 0.10400000E+02 -0.59338E+04
 0.10449999E+02 -0.59346E+04
 0.10499999E+02 -0.59293E+04
 0.10549999E+02 -0.59259E+04
 0.10599999E+02 -0.59284E+04
 0.10650000E+02 -0.59274E+04
 0.10699999E+02 -0.59264E+04
 0.10749999E+02 -0.59282E+04
 0.10799999E+02 -0.59277E+04
 0.10849999E+02 -0.59240E+04
 0.10900000E+02 -0.59210E+04
 0.10949999E+02 -0.59182E+04
 0.10999999E+02 -0.59154E+04
 0.11049999E+02 -0.59115E+04
 0.11099999E+02 -0.59106E+04
 0.11150000E+02 -0.59066E+04
 0.11199999E+02 -0.59037E+04
 0.11249999E+02 -0.59073E+04
 0.11299999E+02 -0.59047E+04
 0.11349999E+02 -0.59064E+04
 0.11400000E+02 -0.59077E+04
 0.11449999E+02 -0.59117E+04
 0.11499999E+02 -0.59161E+04
 0.11549999E+02 -0.59149E+04
 0.11599999E+02 -0.59162E+04
 0.11650000E+02 -0.59156E+04
 0.11699999E+02 -0.59200E+04
 0.11749999E+02 -0.59197E+04
 0.11799999E+02 -0.59228E+04
 0.11849999E+02 -0.59230E+04
 0.11900000E+02 -0.59270E+04
 0.11949999E+02 -0.59308E+04
 0.11999999E+02 -0.59289E+04
 0.12049999E+02 -0.59334E+04
 0.12099999E+02 -0.59337E+04
 0.12150000E+02 -0.59359E+04
 0.12199999E+02 -0.59370E+04
 0.12249999E+02 -0.59426E+04
 0.12299999E+02 -0.59500E+04
 0.12349999E+02 -0.59548E+04
 0.12400000E+02 -0.59521E+04
 0.12449999E+02 -0.59501E+04
 0.12499999E+02 -0.59481E+04
 0.12549999E+02 -0.59464E+04
 0.12599999E+02 -0.59454E+04
 0.12649999E+02 -0.59417E+04
 0.12699999E+02 -0.59437E+04
 0.12749999E+02 -0.59439E+04
 0.12799999E+02 -0.59424E+04
 0.12849999E+02 -0.59370E+04
 0.12899999E+02 -0.59380E+04
 0.12949999E+02 -0.59383E+04
 0.12999999E+02 -0.59356E+04
 0.13049999E+02 -0.59343E+04
 0.13099999E+02 -0.59322E+04
 0.13149999E+02 -0.59319E+04
 0.13199999E+02 -0.59312E+04
 0.13249999E+02 -0.59308E+04
 0.13299999E+02 -0.59307E+04
 0.13349999E+02 -0.59326E+04
 0.13399999E+02 -0.59354E+04
 0.13449999E+02 -0.59336E+04
 0.13499999E+02 -0.59345E+04
 0.13549999E+02 -0.59313E+04
 0.13599999E+02 -0.59291E+04
 0.13649999E+02 -0.59294E+04
 0.13699999E+02 -0.59285E+04
 0.13749999E+02 -0.59270E+04
 0.13799999E+02 -0.59231E+04
 0.13849999E+02 -0.59256E+04
 0.13899999E+02 -0.59258E+04
 0.13949999E+02 -0.59259E+04
 0.13999999E+02 -0.59235E+04
 0.14049999E+02 -0.59252E+04
 0.14099998E+02 -0.59235E+04
 0.14150000E+02 -0.59213E+04
 0.14199999E+02 -0.59211E+04
 0.14249998E+02 -0.59206E+04
 0.14299999E+02 -0.59219E+04
 0.14349998E+02 -0.59245E+04
 0.14400000E+02 -0.59251E+04
 0.14449999E+02 -0.59207E+04
 0.14499998E+02 -0.59232E+04
 0.14549999E+02 -0.59181E+04
 0.14599998E+02 -0.59239E+04
 0.14650000E+02 -0.59240E+04
 0.14699999E+02 -0.59194E+04
 0.14749998E+02 -0.59234E+04
 0.14799999E+02 -0.59206E+04
 0.14849998E+02 -0.59157E+04
 0.14900000E+02 -0.59139E+04
 0.14949999E+02 -0.59161E+04
 0.14999998E+02 -0.59168E+04
 0.15049999E+02 -0.59207E+04
 0.15099998E+02 -0.59167E+04
 0.15150000E+02 -0.59199E+04
 0.15199999E+02 -0.59257E+04
 0.15249998E+02 -0.59305E+04
 0.15299999E+02 -0.59300E+04
 0.15349998E+02 -0.59300E+04
 0.15400000E+02 -0.59329E+04
 0.15449999E+02 -0.59338E+04
 0.15499998E+02 -0.59367E+04
 0.15549999E+02 -0.59359E+04
 0.15599998E+02 -0.59343E+04
 0.15650000E+02 -0.59320E+04
 0.15699999E+02 -0.59309E+04
 0.15749998E+02 -0.59311E+04
 0.15799999E+02 -0.59356E+04
 0.15849998E+02 -0.59346E+04
 0.15900000E+02 -0.59321E+04
 0.15949999E+02 -0.59281E+04
 0.15999998E+02 -0.59259E+04
 0.16049999E+02 -0.59233E+04
 0.16099998E+02 -0.59215E+04
 0.16150000E+02 -0.59264E+04
 0.16199999E+02 -0.59260E+04
 0.16249998E+02 -0.59287E+04
 0.16299999E+02 -0.59290E+04
 0.16349998E+02 -0.59295E+04
 0.16400000E+02 -0.59329E+04
 0.16449999E+02 -0.59350E+04
 0.16499998E+02 -0.59429E+04
 0.16549999E+02 -0.59379E+04
 0.16599998E+02 -0.59365E+04
 0.16650000E+02 -0.59330E+04
 0.16699999E+02 -0.59303E+04
 0.16749998E+02 -0.59359E+04
 0.16799999E+02 -0.59323E+04
 0.16849998E+02 -0.59362E+04
 0.16900000E+02 -0.59395E+04
 0.16949999E+02 -0.59385E+04
 0.16999998E+02 -0.59411E+04
 0.17049999E+02 -0.59400E+04
 0.17099998E+02 -0.59337E+04
 0.17150000E+02 -0.59337E+04
 0.17199999E+02 -0.59315E+04
 0.17249998E+02 -0.59327E+04
 0.17299999E+02 -0.59317E+04
 0.17349998E+02 -0.59325E+04
 0.17400000E+02 -0.59302E+04
 0.17449999E+02 -0.59235E+04
 0.17499998E+02 -0.59255E+04
 0.17549999E+02 -0.59286E+04
 0.17599998E+02 -0.59261E+04
 0.17650000E+02 -0.59281E+04
 0.17699999E+02 -0.59239E+04
 0.17749998E+02 -0.59232E+04
 0.17799999E+02 -0.59218E+04
 0.17849998E+02 -0.59141E+04
 0.17900000E+02 -0.58984E+04
 0.17949999E+02 -0.58719E+04
 0.17999998E+02 -0.58511E+04
 0.18049999E+02 -0.58362E+04
 0.18099998E+02 -0.58860E+04
 0.18150000E+02 -0.59401E+04
 0.18199999E+02 -0.59584E+04
 0.18249998E+02 -0.59638E+04
 0.18299999E+02 -0.59386E+04
 0.18349998E+02 -0.58560E+04
 0.18400000E+02 -0.59608E+04
 0.18449999E+02 -0.60425E+04
 0.18499998E+02 -0.60423E+04
 0.18549999E+02 -0.60599E+04
 0.18599998E+02 -0.60746E+04
 0.18650000E+02 -0.58244E+04
 0.18699999E+02 -0.56302E+04
 0.18749998E+02 -0.56454E+04
 0.18799999E+02 -0.55514E+04
 0.18849998E+02 -0.58098E+04
 0.18900000E+02 -0.60291E+04
 0.18949999E+02 -0.61140E+04
 0.18999998E+02 -0.59611E+04
 0.19049999E+02 -0.59154E+04
 0.19099998E+02 -0.54777E+04
 0.19150000E+02 -0.60707E+04
 0.19199999E+02 -0.65173E+04
 0.19249998E+02 -0.64682E+04
 0.19299999E+02 -0.72530E+04
 0.19349998E+02 -0.64582E+04
 0.19400000E+02 -0.60436E+04
 0.19449999E+02 -0.63514E+04
 0.19499998E+02 -0.57906E+04
 0.19549999E+02 -0.58736E+04
 0.19599998E+02 -0.61974E+04
 0.19650000E+02 -0.60208E+04
 0.19699999E+02 -0.54696E+04
 0.19749998E+02 -0.50267E+04
 0.19799999E+02 -0.49662E+04
 0.19849998E+02 -0.54317E+04
 0.19900000E+02 -0.51481E+04
 0.19949999E+02 -0.54107E+04
 0.19999998E+02 -0.60862E+04
 0.20049999E+02 -0.54734E+04
 0.20099998E+02 -0.62556E+04
 0.20150000E+02 -0.59473E+04
 0.20199999E+02 -0.45736E+04
 0.20249998E+02 -0.64785E+04
 0.20299999E+02 -0.71534E+04
 0.20349998E+02 -0.53086E+04
 0.20399998E+02 -0.74761E+04
 0.20449999E+02 -0.49560E+04
 0.20499998E+02 -0.55875E+04
 0.20549999E+02 -0.76867E+04
 0.20599998E+02 -0.43919E+04
 0.20649998E+02 -0.65131E+04
 0.20699999E+02 -0.47914E+04
 0.20749998E+02 -0.69860E+04
 0.20799999E+02 -0.70953E+04
 0.20849998E+02 -0.58750E+04
 0.20899998E+02 -0.71914E+04
 0.20949999E+02 -0.54455E+04
 0.20999998E+02 -0.74765E+04
 0.21049999E+02 -0.57273E+04
 0.21099998E+02 -0.61918E+04
 0.21149998E+02 -0.48762E+04
 0.21199999E+02 -0.67150E+04
 0.21249998E+02 -0.44121E+04
 0.21299999E+02 -0.46890E+04
 0.21349998E+02 -0.60315E+04
 0.21399998E+02 -0.30985E+04
 0.21449999E+02 -0.82476E+04
 0.21499998E+02 -0.59051E+04
 0.21549999E+02 -0.37405E+04
 0.21599998E+02 -0.65425E+04
 0.21649998E+02 -0.66695E+04
 0.21699999E+02 -0.66187E+04
 0.21749998E+02 -0.63735E+04
 0.21799999E+02 -0.64706E+04
 0.21849998E+02 -0.55300E+04
 0.21899998E+02 -0.70869E+04
 0.21949999E+02 -0.71948E+04
 0.21999998E+02 -0.38343E+04
 0.22049999E+02 -0.57559E+04
 0.22099998E+02 -0.69793E+04
 0.22149998E+02 -0.71013E+04
 0.22199999E+02 -0.46754E+04
 0.22249998E+02 -0.43593E+04
 0.22299999E+02 -0.43942E+04
 0.22349998E+02 -0.71797E+04
 0.22399998E+02 -0.73610E+04
 0.22449999E+02 -0.63659E+04
 0.22499998E+02 -0.41057E+04
 0.22549999E+02 -0.74451E+04
 0.22599998E+02 -0.58162E+04
 0.22649998E+02 -0.44126E+04
 0.22699999E+02 -0.97448E+04
 0.22749998E+02 -0.42242E+04
 0.22799999E+02 -0.57487E+04
 0.22849998E+02 -0.45954E+04
 0.22899998E+02 -0.44743E+04
 0.22949999E+02 -0.64624E+04
 0.22999998E+02 -0.54810E+04
 0.23049999E+02 -0.69518E+04
 0.23099998E+02 -0.56127E+04
 0.23149998E+02 -0.43023E+04
 0.23199999E+02 -0.95696E+04
 0.23249998E+02 -0.54927E+04
 0.23299999E+02 -0.41987E+04
 0.23349998E+02 -0.88217E+04
 0.23399998E+02 -0.33173E+04
 0.23449999E+02 -0.80629E+04
 0.23499998E+02 -0.62267E+04
 0.23549999E+02 -0.73059E+04
 0.23599998E+02 -0.65994E+04
 0.23649998E+02 -0.65797E+04
 0.23699999E+02 -0.69593E+04
 0.23749998E+02 -0.36880E+04
 0.23799999E+02 -0.48209E+04
 0.23849998E+02 -0.22941E+04
 0.23899998E+02 -0.62773E+04
 0.23949999E+02 -0.44687E+04
 0.23999998E+02 -0.69201E+04
 0.24049999E+02 -0.33203E+04
 0.24099998E+02 -0.78395E+04
 0.24149998E+02 -0.95395E+04
 0.24199999E+02 -0.64168E+04
 0.24249998E+02 -0.48863E+04
 0.24299999E+02 -0.25768E+04
 0.24349998E+02 -0.92548E+04
 0.24399998E+02 -0.48177E+04
 0.24449999E+02 -0.34820E+04
 0.24499998E+02 -0.57097E+04
 0.24549999E+02 -0.63844E+04
 0.24599998E+02 -0.63633E+04
 0.24649998E+02 -0.82510E+04
 0.24699999E+02 -0.85098E+04
 0.24749998E+02 -0.28001E+04
 0.24799999E+02 -0.59135E+04
 0.24849998E+02 -0.80486E+04
 0.24899998E+02 -0.45231E+04
 0.24949999E+02 -0.68897E+04
 0.24999998E+02 -0.50026E+04
 0.25049999E+02 -0.96664E+04
 0.25099998E+02 -0.32607E+04
 0.25149998E+02 -0.10532E+04
 0.25199999E+02 -0.11887E+05
 0.25249998E+02 -0.64530E+03
 0.25299999E+02 -0.89088E+04
 0.25349998E+02 -0.91625E+04
 0.25399998E+02 -0.46707E+03
 0.25449999E+02 -0.97182E+04
 0.25499998E+02 -0.35122E+04
 0.25549999E+02 -0.89420E+04
 0.25599998E+02 -0.54584E+04
 0.25649998E+02 -0.12946E+04
 0.25699999E+02 -0.13050E+05
 0.25749998E+02 -0.23220E+04
 0.25799999E+02 -0.37077E+04
 0.25849998E+02 -0.91265E+04
 0.25899998E+02 -0.24567E+04
 0.25949999E+02 -0.56615E+04
 0.25999998E+02 -0.49086E+04
 0.26049999E+02 -0.60757E+04
 0.26099998E+02 -0.60241E+04
 0.26149998E+02 -0.69109E+04
 0.26199999E+02 -0.69075E+04
 0.26249998E+02 -0.35001E+04
 0.26299999E+02 -0.68443E+04
 0.26349998E+02 -0.51511E+04
 0.26399998E+02 -0.72721E+04
 0.26449999E+02 -0.56219E+04
 0.26499998E+02 -0.85197E+04
 0.26549999E+02 -0.48343E+04
 0.26599998E+02 -0.47440E+04
 0.26649998E+02 -0.93970E+04
 0.26699999E+02 -0.17667E+04
 0.26749998E+02 -0.75188E+04
 0.26799999E+02 -0.46425E+04
 0.26849998E+02 -0.67294E+04
 0.26899998E+02 -0.66374E+04
 0.26949999E+02 -0.60501E+04
 0.26999998E+02 -0.72126E+04
 0.27049997E+02 -0.38571E+04
 0.27099998E+02 -0.73628E+04
 0.27149998E+02 -0.18626E+04
 0.27199999E+02 -0.91702E+04
 0.27249998E+02 -0.51975E+04
 0.27299997E+02 -0.28178E+04
 0.27349998E+02 -0.10152E+05
 0.27399998E+02 -0.40973E+04
 0.27449999E+02 -0.72432E+04
 0.27499998E+02 -0.59974E+04
 0.27549997E+02 -0.73758E+04
 0.27599998E+02 -0.70884E+04
 0.27649998E+02 -0.47048E+04
 0.27699999E+02 -0.55188E+04
 0.27749998E+02 -0.30200E+04
 0.27799997E+02 -0.58899E+04
 0.27849998E+02 -0.55606E+04
 0.27899998E+02 -0.50264E+04
 0.27949999E+02 -0.83482E+04
 0.27999998E+02 -0.82585E+04
 0.28049997E+02 -0.67135E+04
 0.28099998E+02 -0.70065E+04
 0.28149998E+02 -0.77035E+04
 0.28199999E+02 -0.77557E+04
 0.28249998E+02 -0.75781E+04
 0.28299997E+02 -0.41356E+04
 0.28349998E+02 -0.20782E+04
 0.28399998E+02 -0.38973E+04
 0.28449999E+02 -0.55151E+04
 0.28499998E+02 -0.33325E+04
 0.28549997E+02 -0.63535E+04
 0.28599998E+02 -0.62464E+04
 0.28649998E+02 -0.39819E+04
 0.28699999E+02 -0.80066E+04
 0.28749998E+02 -0.61448E+04
 0.28799997E+02 -0.49663E+04
 0.28849998E+02 -0.57896E+04
 0.28899998E+02 -0.80656E+04
 0.28949999E+02 -0.53088E+04
 0.28999998E+02 -0.54781E+04
 0.29049997E+02 -0.57677E+04
 0.29099998E+02 -0.99220E+04
 0.29149998E+02 -0.68649E+04
 0.29199999E+02 -0.47264E+04
 0.29249998E+02 -0.98140E+04
 0.29299997E+02 -0.28775E+04
 0.29349998E+02 -0.74975E+04
 0.29399998E+02 -0.48103E+04
 0.29449999E+02 -0.28577E+04
 0.29499998E+02 -0.65230E+04
 0.29549997E+02 -0.56580E+04
 0.29599998E+02 -0.58610E+04
 0.29649998E+02 -0.92025E+04
 0.29699999E+02 -0.73427E+04
 0.29749998E+02 -0.71123E+04
 0.29799997E+02 -0.59252E+04
 0.29849998E+02 -0.39814E+04
 0.29899998E+02 -0.46627E+04
 0.29949999E+02 -0.24800E+04
 0.29999998E+02 -0.85864E+04
 0.30049999E+02 -0.59212E+04
 0.30099998E+02 -0.73959E+04
 0.30149998E+02 -0.74435E+04
 0.30199997E+02 -0.49807E+04
 0.30249996E+02 -0.21423E+04
 0.30299999E+02 -0.43680E+04
 0.30349998E+02 -0.45821E+04
 0.30399998E+02 -0.66373E+04
 0.30449997E+02 -0.70632E+04
 0.30499996E+02 -0.33312E+04
 0.30549999E+02 -0.62084E+04
 0.30599998E+02 -0.39864E+04
 0.30649998E+02 -0.55672E+04
 0.30699997E+02 -0.66681E+04
 0.30749996E+02 -0.99385E+04
 0.30799999E+02 -0.90977E+04
 0.30849998E+02 -0.11134E+05
 0.30899998E+02 -0.94310E+04
 0.30949997E+02 -0.48115E+04
 0.30999996E+02 -0.39983E+04
 0.31049999E+02 -0.31362E+04
 0.31099998E+02 -0.43579E+04
 0.31149998E+02 -0.58051E+02
 0.31199997E+02 -0.49427E+04
 0.31249996E+02 -0.78131E+04
 0.31299999E+02 -0.94642E+04
 0.31349998E+02 -0.71324E+04
 0.31399998E+02 -0.30970E+04
 0.31449997E+02 -0.12800E+05
 0.31499996E+02 -0.45153E+04
 0.31549999E+02 -0.34808E+04
 0.31599998E+02 -0.84423E+04
 0.31649998E+02 -0.67197E+04
 0.31699997E+02 -0.47647E+04
 0.31749996E+02 -0.82220E+04
 0.31799999E+02 -0.77468E+04
 0.31849998E+02 -0.44313E+03
 0.31899998E+02 -0.71554E+04
 0.31949997E+02  0.23483E+04
 0.31999996E+02  0.28129E+03
 0.32049999E+02 -0.95781E+04
 0.32099998E+02 -0.32219E+04
 0.32149998E+02 -0.88873E+04
 0.32199997E+02 -0.11750E+05
 0.32249996E+02 -0.35362E+04
 0.32299999E+02 -0.89838E+04
 0.32349998E+02 -0.58262E+04
 0.32399998E+02 -0.36350E+04
 0.32449997E+02 -0.95821E+04
 0.32499996E+02 -0.20776E+04
 0.32549999E+02 -0.35394E+04
 0.32599998E+02 -0.11049E+05
 0.32649998E+02  0.10134E+04
 0.32699997E+02 -0.36559E+04
 0.32749996E+02 -0.11703E+05
 0.32799999E+02 -0.30950E+04
 0.32849998E+02 -0.88610E+04
 0.32899998E+02 -0.54531E+04
 0.32949997E+02 -0.81445E+04
 0.32999996E+02 -0.57605E+04
 0.33049999E+02 -0.94379E+04
 0.33099998E+02 -0.13941E+05
 0.33149998E+02 -0.71775E+03
 0.33199997E+02 -0.97631E+03
 0.33249996E+02 -0.45102E+04
 0.33299999E+02 -0.71203E+04
 0.33349998E+02 -0.10084E+05
 0.33399998E+02 -0.47287E+04
 0.33449997E+02 -0.52343E+03
 0.33499996E+02 -0.94414E+04
 0.33549999E+02 -0.27093E+04
 0.33599998E+02 -0.60192E+04
 0.33649998E+02 -0.15244E+05
 0.33699997E+02 -0.52933E+04
 0.33749996E+02 -0.94255E+04
 0.33799999E+02 -0.26614E+04
 0.33849998E+02  0.18146E+04
 0.33899998E+02 -0.57888E+04
 0.33949997E+02 -0.54307E+04
 0.33999996E+02 -0.41580E+04
 0.34049999E+02 -0.88987E+04
 0.34099998E+02 -0.10622E+05
 0.34149998E+02 -0.36908E+04
 0.34199997E+02 -0.71857E+04
 0.34249996E+02 -0.42107E+04
 0.34299999E+02 -0.95107E+04
 0.34349998E+02 -0.86332E+04
 0.34399998E+02 -0.27406E+04
 0.34449997E+02 -0.69852E+04
 0.34499996E+02 -0.52163E+04
 0.34549999E+02 -0.57655E+04
 0.34599998E+02 -0.34712E+04
 0.34649998E+02 -0.14601E+04
 0.34699997E+02 -0.41557E+04
 0.34749996E+02 -0.70556E+04
 0.34799999E+02 -0.32953E+04
 0.34849998E+02 -0.47972E+04
 0.34899998E+02 -0.99290E+04
 0.34949997E+02 -0.94586E+04
 0.34999996E+02 -0.26734E+04
 0.35049999E+02 -0.73975E+04
 0.35099998E+02 -0.90907E+04
 0.35149998E+02 -0.45225E+04
 0.35199997E+02 -0.58591E+04
 0.35249996E+02 -0.44507E+04
 0.35299999E+02 -0.43803E+04
 0.35349998E+02 -0.74384E+04
 0.35399998E+02 -0.98231E+04
 0.35449997E+02 -0.41589E+04
 0.35499996E+02 -0.55478E+04
 0.35549999E+02 -0.78392E+04
 0.35599998E+02 -0.18356E+04
 0.35649998E+02 -0.24172E+04
 0.35699997E+02 -0.39573E+04
 0.35749996E+02 -0.48222E+04
 0.35799999E+02 -0.10516E+05
 0.35849998E+02 -0.79378E+04
 0.35899998E+02 -0.28734E+04
 0.35949997E+02 -0.57440E+04
 0.35999996E+02 -0.32543E+04
 0.36049999E+02 -0.26267E+04
 0.36099998E+02 -0.11298E+05
 0.36149998E+02 -0.11587E+05
 0.36199997E+02 -0.44634E+04
 0.36249996E+02 -0.65244E+04
 0.36299999E+02 -0.99807E+04
 0.36349998E+02 -0.43605E+04
 0.36399998E+02 -0.61579E+04
 0.36449997E+02 -0.82921E+04
 0.36499996E+02 -0.79788E+04
 0.36549999E+02 -0.55416E+04
 0.36599998E+02 -0.46389E+04
 0.36649998E+02 -0.53569E+04
 0.36699997E+02 -0.37431E+04
 0.36749996E+02 -0.90549E+04
 0.36799999E+02 -0.58820E+04
 0.36849998E+02 -0.33269E+04
 0.36899998E+02 -0.60879E+04
 0.36949997E+02 -0.43560E+04
 0.36999996E+02 -0.19660E+04
 0.37049999E+02 -0.52239E+04
 0.37099998E+02 -0.48966E+04
 0.37149998E+02 -0.55851E+04
 0.37199997E+02 -0.66140E+04
 0.37249996E+02 -0.54128E+04
 0.37299999E+02 -0.74076E+04
 0.37349998E+02 -0.34170E+04
 0.37399998E+02 -0.56680E+04
 0.37449997E+02 -0.69255E+04
 0.37499996E+02 -0.50047E+04
 0.37549999E+02 -0.63527E+04
 0.37599998E+02 -0.56589E+04
 0.37649998E+02 -0.63549E+04
 0.37699997E+02 -0.45464E+04
 0.37749996E+02 -0.36970E+04
 0.37799999E+02 -0.82675E+04
 0.37849998E+02 -0.85917E+04
 0.37899998E+02 -0.67431E+04
 0.37949997E+02 -0.97306E+04
 0.37999996E+02 -0.47556E+04
 0.38049999E+02 -0.24059E+04
 0.38099998E+02 -0.74430E+04
 0.38149998E+02 -0.58053E+04
 0.38199997E+02 -0.63799E+04
 0.38249996E+02 -0.74692E+04
 0.38299999E+02 -0.56519E+04
 0.38349998E+02 -0.63778E+04
 0.38399998E+02 -0.66440E+04
 0.38449997E+02 -0.32017E+04
 0.38499996E+02 -0.34272E+04
 0.38549999E+02 -0.39701E+04
 0.38599998E+02 -0.34596E+04
 0.38649998E+02 -0.37110E+04
 0.38699997E+02 -0.45051E+04
 0.38749996E+02 -0.66343E+04
 0.38799999E+02 -0.64414E+04
 0.38849998E+02 -0.82961E+04
 0.38899998E+02 -0.78334E+04
 0.38949997E+02 -0.68926E+04
 0.38999996E+02 -0.86329E+04
 0.39049999E+02 -0.67352E+04
 0.39099998E+02 -0.82557E+04
 0.39149998E+02 -0.73543E+04
 0.39199997E+02 -0.62477E+04
 0.39249996E+02 -0.67912E+04
 0.39299999E+02 -0.36447E+04
 0.39349998E+02 -0.30517E+04
 0.39399998E+02 -0.37421E+04
 0.39449997E+02 -0.71367E+04
 0.39499996E+02 -0.67331E+04
 0.39549999E+02 -0.46545E+04
 0.39599998E+02 -0.75981E+04
 0.39649998E+02 -0.76557E+04
 0.39699997E+02 -0.44177E+04
 0.39749996E+02 -0.63176E+04
 0.39799999E+02 -0.65279E+04
 0.39849998E+02 -0.48783E+04
 0.39899998E+02 -0.77615E+04
 0.39949997E+02 -0.66651E+04
 0.39999996E+02 -0.47158E+04
 0.40049999E+02 -0.46267E+04
 0.40099998E+02 -0.64384E+04
 0.40149998E+02 -0.50171E+04
 0.40199997E+02 -0.16800E+04
 0.40249996E+02 -0.52839E+04
 0.40299999E+02 -0.75229E+04
 0.40349998E+02 -0.68032E+04
 0.40399998E+02 -0.52914E+04
 0.40449997E+02 -0.67561E+04
 0.40499996E+02 -0.58705E+04
 0.40549999E+02 -0.48081E+04
 0.40599998E+02 -0.81138E+04
 0.40649998E+02 -0.57526E+04
 0.40699997E+02 -0.49904E+04
 0.40749996E+02 -0.65710E+04
 0.40799999E+02 -0.67490E+04
 0.40849998E+02 -0.43138E+04
 0.40899998E+02 -0.57604E+04
 0.40949997E+02 -0.70706E+04
 0.40999996E+02 -0.45190E+04
 0.41049999E+02 -0.74822E+04
 0.41099998E+02 -0.84879E+04
 0.41149998E+02 -0.75565E+04
 0.41199997E+02 -0.74164E+04
 0.41249996E+02 -0.56467E+04
 0.41299999E+02 -0.36103E+04
 0.41349998E+02 -0.50071E+04
 0.41399998E+02 -0.50275E+04
 0.41449997E+02 -0.45112E+04
 0.41499996E+02 -0.75430E+04
 0.41549999E+02 -0.52419E+04
 0.41599998E+02 -0.41759E+04
 0.41649998E+02 -0.57094E+04
 0.41699997E+02 -0.49253E+04
 0.41749996E+02 -0.59889E+04
 0.41799999E+02 -0.66122E+04
 0.41849998E+02 -0.64505E+04
 0.41899998E+02 -0.43564E+04
 0.41949997E+02 -0.42767E+04
 0.41999996E+02 -0.63389E+04
 0.42049999E+02 -0.86871E+04
 0.42099998E+02 -0.91239E+04
 0.42149998E+02 -0.84216E+04
 0.42199997E+02 -0.80976E+04
 0.42249996E+02 -0.62410E+04
 0.42299999E+02 -0.65575E+04
 0.42349998E+02 -0.59611E+04
 0.42399998E+02 -0.49803E+04
 0.42449997E+02 -0.76598E+04
 0.42499996E+02 -0.67527E+04
 0.42549999E+02 -0.46224E+04
 0.42599998E+02 -0.76998E+04
 0.42649998E+02 -0.59792E+04
 0.42699997E+02 -0.57341E+04
 0.42749996E+02 -0.58442E+04
 0.42799995E+02 -0.39174E+04
 0.42849998E+02 -0.51751E+04
 0.42899998E+02 -0.60626E+04
 0.42949997E+02 -0.78213E+04
 0.42999996E+02 -0.56101E+04
 0.43049995E+02 -0.62298E+04
 0.43099998E+02 -0.73503E+04
 0.43149998E+02 -0.68169E+04
 0.43199997E+02 -0.74144E+04
 0.43249996E+02 -0.52453E+04
 0.43299995E+02 -0.47121E+04
 0.43349998E+02 -0.47742E+04
 0.43399998E+02 -0.29433E+04
 0.43449997E+02 -0.29971E+04
 0.43499996E+02 -0.62610E+04
 0.43549995E+02 -0.72362E+04
 0.43599998E+02 -0.77917E+04
 0.43649998E+02 -0.66727E+04
 0.43699997E+02 -0.58775E+04
 0.43749996E+02 -0.57795E+04
 0.43799995E+02 -0.49026E+04
 0.43849998E+02 -0.60708E+04
 0.43899998E+02 -0.57836E+04
 0.43949997E+02 -0.55910E+04
 0.43999996E+02 -0.62748E+04
 0.44049995E+02 -0.72980E+04
 0.44099998E+02 -0.63926E+04
 0.44149998E+02 -0.49434E+04
 0.44199997E+02 -0.57947E+04
 0.44249996E+02 -0.34639E+04
 0.44299995E+02 -0.27653E+04
 0.44349998E+02 -0.62412E+04
 0.44399998E+02 -0.57214E+04
 0.44449997E+02 -0.58025E+04
 0.44499996E+02 -0.80719E+04
 0.44549995E+02 -0.73794E+04
 0.44599998E+02 -0.70715E+04
 0.44649998E+02 -0.69820E+04
 0.44699997E+02 -0.51171E+04
 0.44749996E+02 -0.59142E+04
 0.44799995E+02 -0.71513E+04
 0.44849998E+02 -0.56608E+04
 0.44899998E+02 -0.71887E+04
 0.44949997E+02 -0.73115E+04
 0.44999996E+02 -0.68086E+04
 0.45049995E+02 -0.61388E+04
 0.45099998E+02 -0.40104E+04
 0.45149998E+02 -0.51729E+04
 0.45199997E+02 -0.60760E+04
 0.45249996E+02 -0.62862E+04
 0.45299995E+02 -0.61108E+04
 0.45349998E+02 -0.51257E+04
 0.45399998E+02 -0.46003E+04
 0.45449997E+02 -0.52508E+04
 0.45499996E+02 -0.37488E+04
 0.45549995E+02 -0.40798E+04
 0.45599998E+02 -0.51384E+04
 0.45649998E+02 -0.58486E+04
 0.45699997E+02 -0.67968E+04
 0.45749996E+02 -0.57043E+04
 0.45799995E+02 -0.67034E+04
 0.45849998E+02 -0.56121E+04
 0.45899998E+02 -0.46482E+04
 0.45949997E+02 -0.46091E+04
 0.45999996E+02 -0.49910E+04
 0.46049995E+02 -0.59457E+04
 0.46099998E+02 -0.52293E+04
 0.46149998E+02 -0.60522E+04
 0.46199997E+02 -0.62571E+04
 0.46249996E+02 -0.60371E+04
 0.46299995E+02 -0.47582E+04
 0.46349998E+02 -0.54058E+04
 0.46399998E+02 -0.67728E+04
 0.46449997E+02 -0.51789E+04
 0.46499996E+02 -0.56305E+04
 0.46549995E+02 -0.59343E+04
 0.46599998E+02 -0.64135E+04
 0.46649998E+02 -0.64459E+04
 0.46699997E+02 -0.56783E+04
 0.46749996E+02 -0.72492E+04
 0.46799995E+02 -0.77217E+04
 0.46849998E+02 -0.71622E+04
 0.46899998E+02 -0.66043E+04
 0.46949997E+02 -0.52780E+04
 0.46999996E+02 -0.62378E+04
 0.47049995E+02 -0.65101E+04
 0.47099998E+02 -0.62418E+04
 0.47149998E+02 -0.60494E+04
 0.47199997E+02 -0.53758E+04
 0.47249996E+02 -0.60809E+04
 0.47299995E+02 -0.57686E+04
 0.47349998E+02 -0.55462E+04
 0.47399998E+02 -0.58975E+04
 0.47449997E+02 -0.60485E+04
 0.47499996E+02 -0.58967E+04
 0.47549995E+02 -0.66690E+04
 0.47599998E+02 -0.61779E+04
 0.47649998E+02 -0.61051E+04
 0.47699997E+02 -0.62708E+04
 0.47749996E+02 -0.46158E+04
 0.47799995E+02 -0.54748E+04
 0.47849998E+02 -0.52631E+04
 0.47899998E+02 -0.59164E+04
 0.47949997E+02 -0.62760E+04
 0.47999996E+02 -0.61125E+04
 0.48049995E+02 -0.71030E+04
 0.48099998E+02 -0.53880E+04
 0.48149998E+02 -0.59283E+04
 0.48199997E+02 -0.61399E+04
 0.48249996E+02 -0.64871E+04
 0.48299995E+02 -0.77062E+04
 0.48349998E+02 -0.60851E+04
 0.48399998E+02 -0.64754E+04
 0.48449997E+02 -0.70112E+04
 0.48499996E+02 -0.53989E+04
 0.48549995E+02 -0.60204E+04
 0.48599998E+02 -0.58572E+04
 0.48649998E+02 -0.57816E+04
 0.48699997E+02 -0.51671E+04
 0.48749996E+02 -0.51253E+04
 0.48799995E+02 -0.59840E+04
 0.48849998E+02 -0.42100E+04
 0.48899998E+02 -0.50871E+04
 0.48949997E+02 -0.64989E+04
 0.48999996E+02 -0.53580E+04
 0.49049995E+02 -0.62283E+04
 0.49099998E+02 -0.72089E+04
 0.49149998E+02 -0.55541E+04
 0.49199997E+02 -0.51876E+04
 0.49249996E+02 -0.47192E+04
 0.49299995E+02 -0.46794E+04
 0.49349998E+02 -0.59886E+04
 0.49399998E+02 -0.60166E+04
 0.49449997E+02 -0.55407E+04
 0.49499996E+02 -0.56727E+04
 0.49549995E+02 -0.53692E+04
 0.49599998E+02 -0.54119E+04
 0.49649998E+02 -0.53594E+04
 0.49699997E+02 -0.57201E+04
 0.49749996E+02 -0.65335E+04
 0.49799995E+02 -0.62270E+04
 0.49849998E+02 -0.65826E+04
 0.49899998E+02 -0.66361E+04
 0.49949997E+02 -0.64687E+04
 0.49999996E+02 -0.64050E+04
 0.50049995E+02 -0.66251E+04
 0.50099998E+02 -0.73532E+04
 0.50149998E+02 -0.62423E+04
 0.50199997E+02 -0.55085E+04
 0.50249996E+02 -0.64406E+04
 0.50299995E+02 -0.57215E+04
 0.50349998E+02 -0.49951E+04
 0.50399998E+02 -0.58829E+04
 0.50449997E+02 -0.67333E+04
 0.50499996E+02 -0.57165E+04
 0.50549995E+02 -0.55199E+04
 0.50599998E+02 -0.57806E+04
 0.50649998E+02 -0.55471E+04
 0.50699997E+02 -0.61331E+04
 0.50749996E+02 -0.53514E+04
 0.50799995E+02 -0.60974E+04
 0.50849998E+02 -0.69044E+04
 0.50899998E+02 -0.58970E+04
 0.50949997E+02 -0.56385E+04
 0.50999996E+02 -0.63519E+04
 0.51049995E+02 -0.58586E+04
 0.51099998E+02 -0.57323E+04
 0.51149998E+02 -0.60989E+04
 0.51199997E+02 -0.58775E+04
 0.51249996E+02 -0.63516E+04
 0.51299995E+02 -0.54551E+04
 0.51349998E+02 -0.56406E+04
 0.51399998E+02 -0.58165E+04
 0.51449997E+02 -0.53712E+04
 0.51499996E+02 -0.59057E+04
 0.51549995E+02 -0.62102E+04
 0.51599998E+02 -0.63447E+04
 0.51649998E+02 -0.55062E+04
 0.51699997E+02 -0.56887E+04
 0.51749996E+02 -0.59512E+04
 0.51799995E+02 -0.55513E+04
 0.51849998E+02 -0.58420E+04
 0.51899998E+02 -0.64093E+04
 0.51949997E+02 -0.64437E+04
 0.51999996E+02 -0.55783E+04
 0.52049995E+02 -0.59613E+04
 0.52099998E+02 -0.62498E+04
 0.52149998E+02 -0.59049E+04
 0.52199997E+02 -0.62806E+04
 0.52249996E+02 -0.56345E+04
 0.52299995E+02 -0.58133E+04
 0.52349998E+02 -0.61848E+04
 0.52399998E+02 -0.55493E+04
 0.52449997E+02 -0.49668E+04
 0.52499996E+02 -0.55890E+04
 0.52549995E+02 -0.65191E+04
 0.52599998E+02 -0.64076E+04
 0.52649998E+02 -0.66688E+04
 0.52699997E+02 -0.55335E+04
 0.52749996E+02 -0.55847E+04
 0.52799995E+02 -0.60983E+04
 0.52849998E+02 -0.56288E+04
 0.52899998E+02 -0.60346E+04
 0.52949997E+02 -0.61963E+04
 0.52999996E+02 -0.69391E+04
 0.53049995E+02 -0.67046E+04
 0.53099998E+02 -0.64414E+04
 0.53149998E+02 -0.63735E+04
 0.53199997E+02 -0.56984E+04
 0.53249996E+02 -0.64434E+04
 0.53299995E+02 -0.62487E+04
 0.53349998E+02 -0.58451E+04
 0.53399998E+02 -0.54495E+04
 0.53449997E+02 -0.50403E+04
 0.53499996E+02 -0.56980E+04
 0.53549995E+02 -0.49754E+04
 0.53599998E+02 -0.56417E+04
 0.53649998E+02 -0.63424E+04
 0.53699997E+02 -0.60192E+04
 0.53749996E+02 -0.58668E+04
 0.53799995E+02 -0.53787E+04
 0.53849998E+02 -0.56844E+04
 0.53899998E+02 -0.52749E+04
 0.53949997E+02 -0.57249E+04
 0.53999996E+02 -0.52745E+04
 0.54049995E+02 -0.47226E+04
 0.54099998E+02 -0.49961E+04
 0.54149998E+02 -0.47236E+04
 0.54199997E+02 -0.57652E+04
 0.54249996E+02 -0.62042E+04
 0.54299995E+02 -0.57342E+04
 0.54349998E+02 -0.63512E+04
 0.54399998E+02 -0.67269E+04
 0.54449997E+02 -0.68740E+04
 0.54499996E+02 -0.75137E+04
 0.54549995E+02 -0.64784E+04
 0.54599998E+02 -0.64370E+04
 0.54649998E+02 -0.66380E+04
 0.54699997E+02 -0.55962E+04
 0.54749996E+02 -0.58737E+04
 0.54799995E+02 -0.55326E+04
 0.54849998E+02 -0.59419E+04
 0.54899998E+02 -0.57522E+04
 0.54949997E+02 -0.51978E+04
 0.54999996E+02 -0.62484E+04
 0.55049995E+02 -0.53705E+04
 0.55099998E+02 -0.59416E+04
 0.55149998E+02 -0.62041E+04
 0.55199997E+02 -0.53068E+04
 0.55249996E+02 -0.59624E+04
 0.55299995E+02 -0.55712E+04
 0.55349998E+02 -0.62510E+04
 0.55399998E+02 -0.65352E+04
 0.55449997E+02 -0.62684E+04
 0.55499996E+02 -0.65603E+04
 0.55549995E+02 -0.57221E+04
 0.55599998E+02 -0.59274E+04
 0.55649998E+02 -0.61142E+04
 0.55699997E+02 -0.54496E+04
 0.55749996E+02 -0.57164E+04
 0.55799995E+02 -0.60546E+04
 0.55849995E+02 -0.58583E+04
 0.55899998E+02 -0.60544E+04
 0.55949997E+02 -0.57165E+04
 0.55999996E+02 -0.60643E+04
 0.56049995E+02 -0.71471E+04
 0.56099995E+02 -0.69743E+04
 0.56149998E+02 -0.66693E+04
 0.56199997E+02 -0.60158E+04
 0.56249996E+02 -0.54333E+04
 0.56299995E+02 -0.57184E+04
 0.56349995E+02 -0.54541E+04
 0.56399998E+02 -0.57044E+04
 0.56449997E+02 -0.62076E+04
 0.56499996E+02 -0.58278E+04
 0.56549995E+02 -0.59134E+04
 0.56599995E+02 -0.57546E+04
 0.56649998E+02 -0.54284E+04
 0.56699997E+02 -0.58151E+04
 0.56749996E+02 -0.56768E+04
 0.56799995E+02 -0.58469E+04
 0.56849995E+02 -0.62720E+04
 0.56899998E+02 -0.60018E+04
 0.56949997E+02 -0.60810E+04
 0.56999996E+02 -0.59845E+04
 0.57049995E+02 -0.60952E+04
 0.57099995E+02 -0.62077E+04
 0.57149998E+02 -0.59555E+04
 0.57199997E+02 -0.64747E+04
 0.57249996E+02 -0.56318E+04
 0.57299995E+02 -0.51975E+04
 0.57349995E+02 -0.57169E+04
 0.57399998E+02 -0.53797E+04
 0.57449997E+02 -0.55888E+04
 0.57499996E+02 -0.56027E+04
 0.57549995E+02 -0.58740E+04
 0.57599995E+02 -0.60493E+04
 0.57649998E+02 -0.58976E+04
 0.57699997E+02 -0.61933E+04
 0.57749996E+02 -0.59755E+04
 0.57799995E+02 -0.65761E+04
 0.57849995E+02 -0.66427E+04
 0.57899998E+02 -0.61498E+04
 0.57949997E+02 -0.64608E+04
 0.57999996E+02 -0.60839E+04
 0.58049995E+02 -0.60709E+04
 0.58099995E+02 -0.59958E+04
 0.58149998E+02 -0.62260E+04
 0.58199997E+02 -0.58900E+04
 0.58249996E+02 -0.53554E+04
 0.58299995E+02 -0.58155E+04
 0.58349995E+02 -0.60236E+04
 0.58399998E+02 -0.58693E+04
 0.58449997E+02 -0.58412E+04
 0.58499996E+02 -0.58696E+04
 0.58549995E+02 -0.57343E+04
 0.58599995E+02 -0.58218E+04
 0.58649998E+02 -0.54402E+04
 0.58699997E+02 -0.50518E+04
 0.58749996E+02 -0.52178E+04
 0.58799995E+02 -0.51666E+04
 0.58849995E+02 -0.51782E+04
 0.58899998E+02 -0.56471E+04
 0.58949997E+02 -0.58204E+04
 0.58999996E+02 -0.59754E+04
 0.59049995E+02 -0.59918E+04
 0.59099995E+02 -0.59980E+04
 0.59149998E+02 -0.60273E+04
 0.59199997E+02 -0.63043E+04
 0.59249996E+02 -0.65838E+04
 0.59299995E+02 -0.63373E+04
 0.59349995E+02 -0.65741E+04
 0.59399998E+02 -0.59670E+04
 0.59449997E+02 -0.60951E+04
 0.59499996E+02 -0.68066E+04
 0.59549995E+02 -0.62856E+04
 0.59599995E+02 -0.59579E+04
 0.59649998E+02 -0.59126E+04
 0.59699997E+02 -0.57367E+04
 0.59749996E+02 -0.57145E+04
 0.59799995E+02 -0.62531E+04
 0.59849995E+02 -0.63082E+04
 0.59899998E+02 -0.54163E+04
 0.59949997E+02 -0.52187E+04
 0.59999996E+02 -0.56163E+04
 0.60049995E+02 -0.54991E+04
 0.60099995E+02 -0.53426E+04
 0.60149998E+02 -0.56160E+04
 0.60199997E+02 -0.58730E+04
 0.60249996E+02 -0.58424E+04
 0.60299995E+02 -0.58891E+04
 0.60349995E+02 -0.60628E+04
 0.60399998E+02 -0.63261E+04
 0.60449997E+02 -0.66064E+04
 0.60499996E+02 -0.66933E+04
 0.60549995E+02 -0.65699E+04
 0.60599995E+02 -0.66467E+04
 0.60649998E+02 -0.63474E+04
 0.60699997E+02 -0.59395E+04
 0.60749996E+02 -0.56410E+04
 0.60799995E+02 -0.57159E+04
 0.60849995E+02 -0.58899E+04
 0.60899998E+02 -0.57594E+04
 0.60949997E+02 -0.60787E+04
 0.60999996E+02 -0.57363E+04
 0.61049995E+02 -0.54793E+04
 0.61099995E+02 -0.58031E+04
 0.61149998E+02 -0.59254E+04
 0.61199997E+02 -0.56497E+04
 0.61249996E+02 -0.57290E+04
 0.61299995E+02 -0.61053E+04
 0.61349995E+02 -0.58171E+04
 0.61399998E+02 -0.60420E+04
 0.61449997E+02 -0.63126E+04
 0.61499996E+02 -0.61174E+04
 0.61549995E+02 -0.57734E+04
 0.61599995E+02 -0.57698E+04
 0.61649998E+02 -0.59810E+04
 0.61699997E+02 -0.59916E+04
 0.61749996E+02 -0.59089E+04
 0.61799995E+02 -0.59639E+04
 0.61849995E+02 -0.57554E+04
 0.61899998E+02 -0.50620E+04
 0.61949997E+02 -0.53461E+04
 0.61999996E+02 -0.52352E+04
 0.62049995E+02 -0.51086E+04
 0.62099998E+02 -0.54294E+04
 0.62149994E+02 -0.54382E+04
 0.62199997E+02 -0.60468E+04
 0.62249992E+02 -0.61466E+04
 0.62299995E+02 -0.61072E+04
 0.62349998E+02 -0.61901E+04
 0.62399994E+02 -0.64230E+04
 0.62449997E+02 -0.65980E+04
 0.62499992E+02 -0.65771E+04
 0.62549995E+02 -0.62586E+04
 0.62599998E+02 -0.59358E+04
 0.62649994E+02 -0.62888E+04
 0.62699997E+02 -0.60447E+04
 0.62749992E+02 -0.61443E+04
 0.62799995E+02 -0.64719E+04
 0.62849998E+02 -0.62859E+04
 0.62899994E+02 -0.61164E+04
 0.62949997E+02 -0.59580E+04
 0.62999992E+02 -0.58136E+04
 0.63049995E+02 -0.57284E+04
 0.63099998E+02 -0.56142E+04
 0.63149994E+02 -0.55910E+04
 0.63199997E+02 -0.56538E+04
 0.63249992E+02 -0.55666E+04
 0.63299995E+02 -0.59985E+04
 0.63349998E+02 -0.61483E+04
 0.63399994E+02 -0.59904E+04
 0.63449997E+02 -0.62486E+04
 0.63499992E+02 -0.62068E+04
 0.63549995E+02 -0.60323E+04
 0.63599998E+02 -0.59911E+04
 0.63649994E+02 -0.60491E+04
 0.63699997E+02 -0.61632E+04
 0.63749992E+02 -0.62562E+04
 0.63799995E+02 -0.62740E+04
 0.63849998E+02 -0.64418E+04
 0.63899994E+02 -0.61199E+04
 0.63949997E+02 -0.59109E+04
 0.63999992E+02 -0.61247E+04
 0.64049995E+02 -0.55781E+04
 0.64099998E+02 -0.55408E+04
 0.64149994E+02 -0.59503E+04
 0.64199997E+02 -0.55177E+04
 0.64249992E+02 -0.51350E+04
 0.64299995E+02 -0.58810E+04
 0.64349998E+02 -0.61637E+04
 0.64399994E+02 -0.59822E+04
 0.64449997E+02 -0.60274E+04
 0.64499992E+02 -0.57835E+04
 0.64549995E+02 -0.59042E+04
 0.64599998E+02 -0.58530E+04
 0.64649994E+02 -0.58234E+04
 0.64699997E+02 -0.57920E+04
 0.64749992E+02 -0.53763E+04
 0.64799995E+02 -0.57793E+04
 0.64849998E+02 -0.59526E+04
 0.64899994E+02 -0.56362E+04
 0.64949997E+02 -0.61366E+04
 0.64999992E+02 -0.60538E+04
 0.65049995E+02 -0.59815E+04
 0.65099998E+02 -0.61137E+04
 0.65149994E+02 -0.57532E+04
 0.65199997E+02 -0.56675E+04
 0.65249992E+02 -0.58412E+04
 0.65299995E+02 -0.57585E+04
 0.65349998E+02 -0.57175E+04
 0.65399994E+02 -0.62572E+04
 0.65449997E+02 -0.58875E+04
 0.65499992E+02 -0.58210E+04
 0.65549995E+02 -0.60138E+04
 0.65599998E+02 -0.60071E+04
 0.65649994E+02 -0.62031E+04
 0.65699997E+02 -0.59662E+04
 0.65749992E+02 -0.58128E+04
 0.65799995E+02 -0.55737E+04
 0.65849998E+02 -0.54750E+04
 0.65899994E+02 -0.53992E+04
 0.65949997E+02 -0.55163E+04
 0.65999992E+02 -0.57720E+04
 0.66049995E+02 -0.58088E+04
 0.66099998E+02 -0.58110E+04
 0.66149994E+02 -0.59304E+04
 0.66199997E+02 -0.58989E+04
 0.66249992E+02 -0.62333E+04
 0.66299995E+02 -0.64507E+04
 0.66349998E+02 -0.63521E+04
 0.66399994E+02 -0.63280E+04
 0.66449997E+02 -0.63352E+04
 0.66499992E+02 -0.65905E+04
 0.66549995E+02 -0.64629E+04
 0.66599998E+02 -0.62903E+04
 0.66649994E+02 -0.61694E+04
 0.66699997E+02 -0.58669E+04
 0.66749992E+02 -0.56330E+04
 0.66799995E+02 -0.56877E+04
 0.66849998E+02 -0.56244E+04
 0.66899994E+02 -0.54977E+04
 0.66949997E+02 -0.56908E+04
 0.66999992E+02 -0.55073E+04
 0.67049995E+02 -0.54328E+04
 0.67099998E+02 -0.56493E+04
 0.67149994E+02 -0.57758E+04
 0.67199997E+02 -0.57532E+04
 0.67249992E+02 -0.57755E+04
 0.67299995E+02 -0.59483E+04
 0.67349998E+02 -0.61494E+04
 0.67399994E+02 -0.62799E+04
 0.67449997E+02 -0.60318E+04
 0.67499992E+02 -0.62477E+04
 0.67549995E+02 -0.61291E+04
 0.67599998E+02 -0.57033E+04
 0.67649994E+02 -0.59441E+04
 0.67699997E+02 -0.59408E+04
 0.67749992E+02 -0.59273E+04
 0.67799995E+02 -0.59133E+04
 0.67849998E+02 -0.58917E+04
 0.67899994E+02 -0.60582E+04
 0.67949997E+02 -0.59846E+04
 0.67999992E+02 -0.61240E+04
 0.68049995E+02 -0.61934E+04
 0.68099998E+02 -0.63822E+04
 0.68149994E+02 -0.64568E+04
 0.68199997E+02 -0.60327E+04
 0.68249992E+02 -0.59371E+04
 0.68299995E+02 -0.58200E+04
 0.68349998E+02 -0.56628E+04
 0.68399994E+02 -0.57245E+04
 0.68449997E+02 -0.56488E+04
 0.68499992E+02 -0.56353E+04
 0.68549995E+02 -0.58438E+04
 0.68599998E+02 -0.58558E+04
 0.68649994E+02 -0.58220E+04
 0.68699997E+02 -0.58666E+04
 0.68749992E+02 -0.59201E+04
 0.68799995E+02 -0.56845E+04
 0.68849998E+02 -0.54096E+04
 0.68899994E+02 -0.57204E+04
 0.68949997E+02 -0.58754E+04
 0.68999992E+02 -0.59459E+04
 0.69049995E+02 -0.62421E+04
 0.69099998E+02 -0.61948E+04
 0.69149994E+02 -0.61788E+04
 0.69199997E+02 -0.59647E+04
 0.69249992E+02 -0.57624E+04
 0.69299995E+02 -0.57559E+04
 0.69349998E+02 -0.56178E+04
 0.69399994E+02 -0.58792E+04
 0.69449997E+02 -0.61217E+04
 0.69499992E+02 -0.61611E+04
 0.69549995E+02 -0.61554E+04
 0.69599998E+02 -0.61346E+04
 0.69649994E+02 -0.63768E+04
 0.69699997E+02 -0.64413E+04
 0.69749992E+02 -0.63379E+04
 0.69799995E+02 -0.63933E+04
 0.69849998E+02 -0.60861E+04
 0.69899994E+02 -0.58995E+04
 0.69949997E+02 -0.59911E+04
 0.69999992E+02 -0.57389E+04
 0.70049995E+02 -0.58055E+04
 0.70099998E+02 -0.61725E+04
 0.70149994E+02 -0.59569E+04
 0.70199997E+02 -0.58979E+04
 0.70249992E+02 -0.60299E+04
 0.70299995E+02 -0.58355E+04
 0.70349998E+02 -0.57428E+04
 0.70399994E+02 -0.56406E+04
 0.70449997E+02 -0.56633E+04
 0.70499992E+02 -0.56917E+04
 0.70549995E+02 -0.58668E+04
 0.70599998E+02 -0.60982E+04
 0.70649994E+02 -0.59149E+04
 0.70699997E+02 -0.59163E+04
 0.70749992E+02 -0.60050E+04
 0.70799995E+02 -0.58424E+04
 0.70849998E+02 -0.56658E+04
 0.70899994E+02 -0.56124E+04
 0.70949997E+02 -0.56503E+04
 0.70999992E+02 -0.59306E+04
 0.71049995E+02 -0.62337E+04
 0.71099998E+02 -0.59709E+04
 0.71149994E+02 -0.60844E+04
 0.71199997E+02 -0.62654E+04
 0.71249992E+02 -0.61069E+04
 0.71299995E+02 -0.61256E+04
 0.71349998E+02 -0.58700E+04
 0.71399994E+02 -0.59661E+04
 0.71449997E+02 -0.60012E+04
 0.71499992E+02 -0.57531E+04
 0.71549995E+02 -0.58321E+04
 0.71599998E+02 -0.57577E+04
 0.71649994E+02 -0.56737E+04
 0.71699997E+02 -0.56863E+04
 0.71749992E+02 -0.55194E+04
 0.71799995E+02 -0.56292E+04
 0.71849998E+02 -0.58044E+04
 0.71899994E+02 -0.58758E+04
 0.71949997E+02 -0.61038E+04
 0.71999992E+02 -0.60613E+04
 0.72049995E+02 -0.61858E+04
 0.72099998E+02 -0.61277E+04
 0.72149994E+02 -0.60399E+04
 0.72199997E+02 -0.62194E+04
 0.72249992E+02 -0.59699E+04
 0.72299995E+02 -0.58570E+04
 0.72349998E+02 -0.59554E+04
 0.72399994E+02 -0.58554E+04
 0.72449997E+02 -0.58346E+04
 0.72499992E+02 -0.59388E+04
 0.72549995E+02 -0.59636E+04
 0.72599998E+02 -0.59989E+04
 0.72649994E+02 -0.61192E+04
 0.72699997E+02 -0.60608E+04
 0.72749992E+02 -0.59199E+04
 0.72799995E+02 -0.59073E+04
 0.72849998E+02 -0.59907E+04
 0.72899994E+02 -0.61014E+04
 0.72949997E+02 -0.60172E+04
 0.72999992E+02 -0.61155E+04
 0.73049995E+02 -0.61447E+04
 0.73099998E+02 -0.60289E+04
 0.73149994E+02 -0.59804E+04
 0.73199997E+02 -0.59345E+04
 0.73249992E+02 -0.59687E+04
 0.73299995E+02 -0.59869E+04
 0.73349998E+02 -0.59251E+04
 0.73399994E+02 -0.57628E+04
 0.73449997E+02 -0.57189E+04
 0.73499992E+02 -0.55813E+04
 0.73549995E+02 -0.55388E+04
 0.73599998E+02 -0.55986E+04
 0.73649994E+02 -0.55750E+04
 0.73699997E+02 -0.58602E+04
 0.73749992E+02 -0.59734E+04
 0.73799995E+02 -0.58577E+04
 0.73849998E+02 -0.60643E+04
 0.73899994E+02 -0.60301E+04
 0.73949997E+02 -0.57637E+04
 0.73999992E+02 -0.57496E+04
 0.74049995E+02 -0.57104E+04
 0.74099998E+02 -0.56340E+04
 0.74149994E+02 -0.57843E+04
 0.74199997E+02 -0.60197E+04
 0.74249992E+02 -0.59966E+04
 0.74299995E+02 -0.58924E+04
 0.74349998E+02 -0.59007E+04
 0.74399994E+02 -0.60079E+04
 0.74449997E+02 -0.59738E+04
 0.74499992E+02 -0.59627E+04
 0.74549995E+02 -0.61094E+04
 0.74599998E+02 -0.62004E+04
 0.74649994E+02 -0.62358E+04
 0.74699997E+02 -0.62519E+04
 0.74749992E+02 -0.63774E+04
 0.74799995E+02 -0.62123E+04
 0.74849998E+02 -0.60217E+04
 0.74899994E+02 -0.58973E+04
 0.74949997E+02 -0.57542E+04
 0.74999992E+02 -0.57228E+04
 0.75049995E+02 -0.57770E+04
 0.75099998E+02 -0.57621E+04
 0.75149994E+02 -0.57173E+04
 0.75199997E+02 -0.59606E+04
 0.75249992E+02 -0.59442E+04
 0.75299995E+02 -0.59093E+04
 0.75349998E+02 -0.58442E+04
 0.75399994E+02 -0.57434E+04
 0.75449997E+02 -0.58316E+04
 0.75499992E+02 -0.56438E+04
 0.75549995E+02 -0.56836E+04
 0.75599998E+02 -0.58267E+04
 0.75649994E+02 -0.57672E+04
 0.75699997E+02 -0.58913E+04
 0.75749992E+02 -0.59755E+04
 0.75799995E+02 -0.60450E+04
 0.75849998E+02 -0.60893E+04
 0.75899994E+02 -0.60084E+04
 0.75949997E+02 -0.59299E+04
 0.75999992E+02 -0.58399E+04
 0.76049995E+02 -0.59250E+04
 0.76099998E+02 -0.60250E+04
 0.76149994E+02 -0.60928E+04
 0.76199997E+02 -0.61828E+04
 0.76249992E+02 -0.60488E+04
 0.76299995E+02 -0.59629E+04
 0.76349998E+02 -0.60796E+04
 0.76399994E+02 -0.60322E+04
 0.76449997E+02 -0.59296E+04
 0.76499992E+02 -0.59713E+04
 0.76549995E+02 -0.59349E+04
 0.76599998E+02 -0.58649E+04
 0.76649994E+02 -0.59168E+04
 0.76699997E+02 -0.59298E+04
 0.76749992E+02 -0.59259E+04
 0.76799995E+02 -0.59652E+04
 0.76849998E+02 -0.59572E+04
 0.76899994E+02 -0.60389E+04
 0.76949997E+02 -0.60489E+04
 0.76999992E+02 -0.60442E+04
 0.77049995E+02 -0.61531E+04
 0.77099998E+02 -0.59850E+04
 0.77149994E+02 -0.58087E+04
 0.77199997E+02 -0.58100E+04
 0.77249992E+02 -0.58355E+04
 0.77299995E+02 -0.58798E+04
 0.77349998E+02 -0.58555E+04
 0.77399994E+02 -0.57315E+04
 0.77449997E+02 -0.56296E+04
 0.77499992E+02 -0.56763E+04
 0.77549995E+02 -0.55971E+04
 0.77599998E+02 -0.56664E+04
 0.77649994E+02 -0.60068E+04
 0.77699997E+02 -0.60330E+04
 0.77749992E+02 -0.59810E+04
 0.77799995E+02 -0.60817E+04
 0.77849998E+02 -0.59687E+04
 0.77899994E+02 -0.59220E+04
 0.77949997E+02 -0.59766E+04
 0.77999992E+02 -0.60370E+04
 0.78049995E+02 -0.59816E+04
 0.78099998E+02 -0.59082E+04
 0.78149994E+02 -0.61280E+04
 0.78199997E+02 -0.60992E+04
 0.78249992E+02 -0.59143E+04
 0.78299995E+02 -0.57915E+04
 0.78349998E+02 -0.58391E+04
 0.78399994E+02 -0.59561E+04
 0.78449997E+02 -0.59565E+04
 0.78499992E+02 -0.60103E+04
 0.78549995E+02 -0.58977E+04
 0.78599998E+02 -0.57978E+04
 0.78649994E+02 -0.58509E+04
 0.78699997E+02 -0.58375E+04
 0.78749992E+02 -0.58750E+04
 0.78799995E+02 -0.60103E+04
 0.78849998E+02 -0.60573E+04
 0.78899994E+02 -0.60707E+04
 0.78949997E+02 -0.60777E+04
 0.78999992E+02 -0.60380E+04
 0.79049995E+02 -0.61449E+04
 0.79099998E+02 -0.61945E+04
 0.79149994E+02 -0.61261E+04
 0.79199997E+02 -0.60583E+04
 0.79249992E+02 -0.58727E+04
 0.79299995E+02 -0.59819E+04
 0.79349998E+02 -0.59432E+04
 0.79399994E+02 -0.58315E+04
 0.79449997E+02 -0.59646E+04
 0.79499992E+02 -0.59255E+04
 0.79549995E+02 -0.59479E+04
 0.79599998E+02 -0.59019E+04
 0.79649994E+02 -0.59543E+04
 0.79699997E+02 -0.59086E+04
 0.79749992E+02 -0.58550E+04
 0.79799995E+02 -0.59154E+04
 0.79849998E+02 -0.58348E+04
 0.79899994E+02 -0.58459E+04
 0.79949997E+02 -0.57696E+04
 0.79999992E+02 -0.57393E+04
 0.80049995E+02 -0.57264E+04
 0.80099998E+02 -0.56762E+04
 0.80149994E+02 -0.58422E+04
 0.80199997E+02 -0.59652E+04
 0.80249992E+02 -0.59501E+04
 0.80299995E+02 -0.61038E+04
 0.80349998E+02 -0.61572E+04
 0.80399994E+02 -0.59472E+04
 0.80449997E+02 -0.58665E+04
 0.80499992E+02 -0.58813E+04
 0.80549995E+02 -0.58218E+04
 0.80599998E+02 -0.57436E+04
 0.80649994E+02 -0.56461E+04
 0.80699997E+02 -0.56866E+04
 0.80749992E+02 -0.57645E+04
 0.80799995E+02 -0.57922E+04
 0.80849998E+02 -0.58346E+04
 0.80899994E+02 -0.59529E+04
 0.80949997E+02 -0.60757E+04
 0.80999992E+02 -0.61878E+04
 0.81049995E+02 -0.62545E+04
 0.81099998E+02 -0.61489E+04
 0.81149994E+02 -0.62336E+04
 0.81199997E+02 -0.61105E+04
 0.81249992E+02 -0.59112E+04
 0.81299995E+02 -0.59351E+04
 0.81349998E+02 -0.58031E+04
 0.81399994E+02 -0.58256E+04
 0.81449997E+02 -0.59150E+04
 0.81499992E+02 -0.59277E+04
 0.81549995E+02 -0.59845E+04
 0.81599998E+02 -0.59736E+04
 0.81649994E+02 -0.60215E+04
 0.81699997E+02 -0.59825E+04
 0.81749992E+02 -0.58446E+04
 0.81799995E+02 -0.59097E+04
 0.81849998E+02 -0.60066E+04
 0.81899994E+02 -0.60272E+04
 0.81949997E+02 -0.60443E+04
 0.81999992E+02 -0.60288E+04
 0.82049995E+02 -0.59986E+04
 0.82099998E+02 -0.59991E+04
 0.82149994E+02 -0.59600E+04
 0.82199997E+02 -0.60249E+04
 0.82249992E+02 -0.62123E+04
 0.82299995E+02 -0.61659E+04
 0.82349998E+02 -0.60254E+04
 0.82399994E+02 -0.60263E+04
 0.82449997E+02 -0.60239E+04
 0.82499992E+02 -0.59778E+04
 0.82549995E+02 -0.58695E+04
 0.82599998E+02 -0.57402E+04
 0.82649994E+02 -0.57765E+04
 0.82699997E+02 -0.57982E+04
 0.82749992E+02 -0.57137E+04
 0.82799995E+02 -0.57980E+04
 0.82849998E+02 -0.57486E+04
 0.82899994E+02 -0.55778E+04
 0.82949997E+02 -0.55822E+04
 0.82999992E+02 -0.55477E+04
 0.83049995E+02 -0.55630E+04
 0.83099998E+02 -0.55979E+04
 0.83149994E+02 -0.57178E+04
 0.83199997E+02 -0.58383E+04
 0.83249992E+02 -0.58641E+04
 0.83299995E+02 -0.58871E+04
 0.83349998E+02 -0.59113E+04
 0.83399994E+02 -0.59288E+04
 0.83449997E+02 -0.59043E+04
 0.83499992E+02 -0.58981E+04
 0.83549995E+02 -0.59422E+04
 0.83599998E+02 -0.60314E+04
 0.83649994E+02 -0.59968E+04
 0.83699997E+02 -0.60214E+04
 0.83749992E+02 -0.60334E+04
 0.83799995E+02 -0.60185E+04
 0.83849998E+02 -0.60800E+04
 0.83899994E+02 -0.61181E+04
 0.83949997E+02 -0.61728E+04
 0.83999992E+02 -0.62195E+04
 0.84049995E+02 -0.62337E+04
 0.84099998E+02 -0.62197E+04
 0.84149994E+02 -0.62424E+04
 0.84199997E+02 -0.62106E+04
 0.84249992E+02 -0.60900E+04
 0.84299995E+02 -0.59168E+04
 0.84349998E+02 -0.58092E+04
 0.84399994E+02 -0.57637E+04
 0.84449997E+02 -0.56680E+04
 0.84499992E+02 -0.56475E+04
 0.84549995E+02 -0.57565E+04
 0.84599998E+02 -0.58800E+04
 0.84649994E+02 -0.59675E+04
 0.84699997E+02 -0.60544E+04
 0.84749992E+02 -0.61867E+04
 0.84799995E+02 -0.62895E+04
 0.84849998E+02 -0.62930E+04
 0.84899994E+02 -0.62513E+04
 0.84949997E+02 -0.60617E+04
 0.84999992E+02 -0.59276E+04
 0.85049995E+02 -0.59604E+04
 0.85099998E+02 -0.59065E+04
 0.85149994E+02 -0.59156E+04
 0.85199997E+02 -0.59588E+04
 0.85249992E+02 -0.59082E+04
 0.85299995E+02 -0.58655E+04
 0.85349998E+02 -0.58798E+04
 0.85399994E+02 -0.58931E+04
 0.85449997E+02 -0.59573E+04
 0.85499992E+02 -0.59696E+04
 0.85549995E+02 -0.58823E+04
 0.85599998E+02 -0.58632E+04
 0.85649994E+02 -0.58464E+04
 0.85699997E+02 -0.57991E+04
 0.85749992E+02 -0.57453E+04
 0.85799995E+02 -0.58218E+04
 0.85849998E+02 -0.58439E+04
 0.85899994E+02 -0.58458E+04
 0.85949997E+02 -0.57704E+04
 0.85999992E+02 -0.55844E+04
 0.86049995E+02 -0.55870E+04
 0.86099998E+02 -0.56494E+04
 0.86149994E+02 -0.57592E+04
 0.86199997E+02 -0.59361E+04
 0.86249992E+02 -0.60263E+04
 0.86299995E+02 -0.60798E+04
 0.86349998E+02 -0.60111E+04
 0.86399994E+02 -0.58719E+04
 0.86449997E+02 -0.58038E+04
 0.86499992E+02 -0.57340E+04
 0.86549995E+02 -0.58220E+04
 0.86599998E+02 -0.59161E+04
 0.86649994E+02 -0.58469E+04
 0.86699997E+02 -0.58303E+04
 0.86749992E+02 -0.58296E+04
 0.86799995E+02 -0.57615E+04
 0.86849998E+02 -0.57604E+04
 0.86899994E+02 -0.58516E+04
 0.86949997E+02 -0.58524E+04
 0.86999992E+02 -0.58399E+04
 0.87049995E+02 -0.58766E+04
 0.87099998E+02 -0.57738E+04
 0.87149994E+02 -0.57523E+04
 0.87199997E+02 -0.58036E+04
 0.87249992E+02 -0.58500E+04
 0.87299995E+02 -0.59074E+04
 0.87349998E+02 -0.59140E+04
 0.87399994E+02 -0.59212E+04
 0.87449997E+02 -0.58641E+04
 0.87499992E+02 -0.58623E+04
 0.87549995E+02 -0.59107E+04
 0.87599991E+02 -0.59480E+04
 0.87649994E+02 -0.60979E+04
 0.87699997E+02 -0.61572E+04
 0.87749992E+02 -0.61346E+04
 0.87799995E+02 -0.62645E+04
 0.87849991E+02 -0.63288E+04
 0.87899994E+02 -0.62657E+04
 0.87949997E+02 -0.62127E+04
 0.87999992E+02 -0.60795E+04
 0.88049995E+02 -0.60133E+04
 0.88099991E+02 -0.60152E+04
 0.88149994E+02 -0.59878E+04
 0.88199997E+02 -0.60680E+04
 0.88249992E+02 -0.60817E+04
 0.88299995E+02 -0.59720E+04
 0.88349991E+02 -0.58779E+04
 0.88399994E+02 -0.58037E+04
 0.88449997E+02 -0.58410E+04
 0.88499992E+02 -0.58989E+04
 0.88549995E+02 -0.58201E+04
 0.88599991E+02 -0.57788E+04
 0.88649994E+02 -0.57673E+04
 0.88699997E+02 -0.57683E+04
 0.88749992E+02 -0.57706E+04
 0.88799995E+02 -0.57811E+04
 0.88849991E+02 -0.57893E+04
 0.88899994E+02 -0.57800E+04
 0.88949997E+02 -0.58444E+04
 0.88999992E+02 -0.58729E+04
 0.89049995E+02 -0.59460E+04
 0.89099991E+02 -0.60738E+04
 0.89149994E+02 -0.61382E+04
 0.89199997E+02 -0.60803E+04
 0.89249992E+02 -0.59722E+04
 0.89299995E+02 -0.59179E+04
 0.89349991E+02 -0.58684E+04
 0.89399994E+02 -0.58401E+04
 0.89449997E+02 -0.59282E+04
 0.89499992E+02 -0.60545E+04
 0.89549995E+02 -0.60681E+04
 0.89599991E+02 -0.60114E+04
 0.89649994E+02 -0.59235E+04
 0.89699997E+02 -0.59594E+04
 0.89749992E+02 -0.59300E+04
 0.89799995E+02 -0.58950E+04
 0.89849991E+02 -0.59659E+04
 0.89899994E+02 -0.59412E+04
 0.89949997E+02 -0.60287E+04
 0.89999992E+02 -0.60622E+04
 0.90049995E+02 -0.60443E+04
 0.90099991E+02 -0.60128E+04
 0.90149994E+02 -0.59690E+04
 0.90199997E+02 -0.59511E+04
 0.90249992E+02 -0.58685E+04
 0.90299995E+02 -0.59141E+04
 0.90349991E+02 -0.59037E+04
 0.90399994E+02 -0.58349E+04
 0.90449997E+02 -0.58359E+04
 0.90499992E+02 -0.57802E+04
 0.90549995E+02 -0.58065E+04
 0.90599991E+02 -0.58549E+04
 0.90649994E+02 -0.58328E+04
 0.90699997E+02 -0.58950E+04
 0.90749992E+02 -0.58896E+04
 0.90799995E+02 -0.58980E+04
 0.90849991E+02 -0.59741E+04
 0.90899994E+02 -0.59487E+04
 0.90949997E+02 -0.59733E+04
 0.90999992E+02 -0.59830E+04
 0.91049995E+02 -0.59910E+04
 0.91099991E+02 -0.60535E+04
 0.91149994E+02 -0.60474E+04
 0.91199997E+02 -0.60128E+04
 0.91249992E+02 -0.59322E+04
 0.91299995E+02 -0.58647E+04
 0.91349991E+02 -0.58337E+04
 0.91399994E+02 -0.58070E+04
 0.91449997E+02 -0.58908E+04
 0.91499992E+02 -0.59818E+04
 0.91549995E+02 -0.58899E+04
 0.91599991E+02 -0.57822E+04
 0.91649994E+02 -0.58094E+04
 0.91699997E+02 -0.57782E+04
 0.91749992E+02 -0.57823E+04
 0.91799995E+02 -0.58777E+04
 0.91849991E+02 -0.59021E+04
 0.91899994E+02 -0.59353E+04
 0.91949997E+02 -0.60086E+04
 0.91999992E+02 -0.60452E+04
 0.92049995E+02 -0.60715E+04
 0.92099991E+02 -0.60270E+04
 0.92149994E+02 -0.59676E+04
 0.92199997E+02 -0.59744E+04
 0.92249992E+02 -0.59470E+04
 0.92299995E+02 -0.59430E+04
 0.92349991E+02 -0.60244E+04
 0.92399994E+02 -0.60781E+04
 0.92449997E+02 -0.61686E+04
 0.92499992E+02 -0.62639E+04
 0.92549995E+02 -0.62358E+04
 0.92599991E+02 -0.61712E+04
 0.92649994E+02 -0.61133E+04
 0.92699997E+02 -0.60630E+04
 0.92749992E+02 -0.60136E+04
 0.92799995E+02 -0.60699E+04
 0.92849991E+02 -0.60345E+04
 0.92899994E+02 -0.60068E+04
 0.92949997E+02 -0.60213E+04
 0.92999992E+02 -0.59716E+04
 0.93049995E+02 -0.59491E+04
 0.93099991E+02 -0.59547E+04
 0.93149994E+02 -0.60255E+04
 0.93199997E+02 -0.60068E+04
 0.93249992E+02 -0.59177E+04
 0.93299995E+02 -0.57919E+04
 0.93349991E+02 -0.57198E+04
 0.93399994E+02 -0.57154E+04
 0.93449997E+02 -0.57183E+04
 0.93499992E+02 -0.57023E+04
 0.93549995E+02 -0.56922E+04
 0.93599991E+02 -0.57518E+04
 0.93649994E+02 -0.58335E+04
 0.93699997E+02 -0.58351E+04
 0.93749992E+02 -0.58050E+04
 0.93799995E+02 -0.58312E+04
 0.93849991E+02 -0.58415E+04
 0.93899994E+02 -0.58719E+04
 0.93949997E+02 -0.58437E+04
 0.93999992E+02 -0.58294E+04
 0.94049995E+02 -0.58442E+04
 0.94099991E+02 -0.57649E+04
 0.94149994E+02 -0.57421E+04
 0.94199997E+02 -0.58178E+04
 0.94249992E+02 -0.58945E+04
 0.94299995E+02 -0.58867E+04
 0.94349991E+02 -0.58537E+04
 0.94399994E+02 -0.58306E+04
 0.94449997E+02 -0.58431E+04
 0.94499992E+02 -0.58612E+04
 0.94549995E+02 -0.59722E+04
 0.94599991E+02 -0.60568E+04
 0.94649994E+02 -0.59920E+04
 0.94699997E+02 -0.59670E+04
 0.94749992E+02 -0.58682E+04
 0.94799995E+02 -0.58007E+04
 0.94849991E+02 -0.58105E+04
 0.94899994E+02 -0.58399E+04
 0.94949997E+02 -0.59181E+04
 0.94999992E+02 -0.59463E+04
 0.95049995E+02 -0.59616E+04
 0.95099991E+02 -0.59122E+04
 0.95149994E+02 -0.58640E+04
 0.95199997E+02 -0.59175E+04
 0.95249992E+02 -0.59608E+04
 0.95299995E+02 -0.59995E+04
 0.95349991E+02 -0.60138E+04
 0.95399994E+02 -0.59778E+04
 0.95449997E+02 -0.59387E+04
 0.95499992E+02 -0.59813E+04
 0.95549995E+02 -0.60096E+04
 0.95599991E+02 -0.60341E+04
 0.95649994E+02 -0.61093E+04
 0.95699997E+02 -0.60960E+04
 0.95749992E+02 -0.61790E+04
 0.95799995E+02 -0.62248E+04
 0.95849991E+02 -0.61462E+04
 0.95899994E+02 -0.60868E+04
 0.95949997E+02 -0.60330E+04
 0.95999992E+02 -0.59953E+04
 0.96049995E+02 -0.59002E+04
 0.96099991E+02 -0.58711E+04
 0.96149994E+02 -0.58498E+04
 0.96199997E+02 -0.57673E+04
 0.96249992E+02 -0.57794E+04
 0.96299995E+02 -0.58652E+04
 0.96349991E+02 -0.58828E+04
 0.96399994E+02 -0.58271E+04
 0.96449997E+02 -0.57971E+04
 0.96499992E+02 -0.57521E+04
 0.96549995E+02 -0.57752E+04
 0.96599991E+02 -0.58021E+04
 0.96649994E+02 -0.58025E+04
 0.96699997E+02 -0.58515E+04
 0.96749992E+02 -0.58429E+04
 0.96799995E+02 -0.58218E+04
 0.96849991E+02 -0.58063E+04
 0.96899994E+02 -0.58472E+04
 0.96949997E+02 -0.58683E+04
 0.96999992E+02 -0.58473E+04
 0.97049995E+02 -0.58817E+04
 0.97099991E+02 -0.58751E+04
 0.97149994E+02 -0.57913E+04
 0.97199997E+02 -0.57561E+04
 0.97249992E+02 -0.57820E+04
 0.97299995E+02 -0.58092E+04
 0.97349991E+02 -0.58358E+04
 0.97399994E+02 -0.58953E+04
 0.97449997E+02 -0.58970E+04
 0.97499992E+02 -0.59300E+04
 0.97549995E+02 -0.60154E+04
 0.97599991E+02 -0.60476E+04
 0.97649994E+02 -0.60498E+04
 0.97699997E+02 -0.59601E+04
 0.97749992E+02 -0.59921E+04
 0.97799995E+02 -0.60480E+04
 0.97849991E+02 -0.60572E+04
 0.97899994E+02 -0.61083E+04
 0.97949997E+02 -0.61533E+04
 0.97999992E+02 -0.61709E+04
