-0.20000000E+01 -0.17413E+05
-0.19500000E+01 -0.17320E+05
-0.19000000E+01 -0.17392E+05
-0.18500000E+01 -0.17392E+05
-0.18000000E+01 -0.17396E+05
-0.17500000E+01 -0.17396E+05
-0.17000000E+01 -0.17399E+05
-0.16500001E+01 -0.17405E+05
-0.16000000E+01 -0.17408E+05
-0.15500000E+01 -0.17411E+05
-0.15000000E+01 -0.17414E+05
-0.14500000E+01 -0.17422E+05
-0.14000001E+01 -0.17427E+05
-0.13500000E+01 -0.17428E+05
-0.13000001E+01 -0.17430E+05
-0.12500000E+01 -0.17431E+05
-0.12000000E+01 -0.17430E+05
-0.11500001E+01 -0.17430E+05
-0.11000000E+01 -0.17426E+05
-0.10500001E+01 -0.17420E+05
-0.10000000E+01 -0.17414E+05
-0.95000005E+00 -0.17411E+05
-0.90000010E+00 -0.17411E+05
-0.85000002E+00 -0.17408E+05
-0.80000007E+00 -0.17408E+05
-0.75000012E+00 -0.17409E+05
-0.70000005E+00 -0.17410E+05
-0.65000010E+00 -0.17409E+05
-0.60000014E+00 -0.17409E+05
-0.55000007E+00 -0.17406E+05
-0.50000012E+00 -0.17406E+05
-0.45000005E+00 -0.17408E+05
-0.40000010E+00 -0.17409E+05
-0.35000014E+00 -0.17416E+05
-0.30000007E+00 -0.17414E+05
-0.25000012E+00 -0.17411E+05
-0.20000005E+00 -0.17409E+05
-0.15000010E+00 -0.17403E+05
-0.10000014E+00 -0.17399E+05
-0.50000072E-01 -0.17398E+05
-0.11920929E-06 -0.17400E+05
 0.49999952E-01 -0.17404E+05
 0.99999905E-01 -0.17407E+05
 0.14999986E+00 -0.17405E+05
 0.19999981E+00 -0.17400E+05
 0.24999976E+00 -0.17396E+05
 0.29999995E+00 -0.17394E+05
 0.34999990E+00 -0.17387E+05
 0.39999986E+00 -0.17384E+05
 0.44999981E+00 -0.17390E+05
 0.49999976E+00 -0.17400E+05
 0.54999995E+00 -0.17408E+05
 0.59999990E+00 -0.17410E+05
 0.64999986E+00 -0.17409E+05
 0.69999981E+00 -0.17409E+05
 0.74999976E+00 -0.17404E+05
 0.79999971E+00 -0.17406E+05
 0.84999990E+00 -0.17412E+05
 0.89999986E+00 -0.17417E+05
 0.94999981E+00 -0.17422E+05
 0.99999976E+00 -0.17424E+05
 0.10499997E+01 -0.17429E+05
 0.10999999E+01 -0.17434E+05
 0.11499999E+01 -0.17436E+05
 0.11999998E+01 -0.17437E+05
 0.12499998E+01 -0.17432E+05
 0.12999997E+01 -0.17430E+05
 0.13499999E+01 -0.17430E+05
 0.13999999E+01 -0.17422E+05
 0.14499998E+01 -0.17417E+05
 0.14999998E+01 -0.17414E+05
 0.15499997E+01 -0.17414E+05
 0.15999999E+01 -0.17413E+05
 0.16499999E+01 -0.17415E+05
 0.16999998E+01 -0.17419E+05
 0.17499998E+01 -0.17413E+05
 0.17999997E+01 -0.17408E+05
 0.18499997E+01 -0.17405E+05
 0.18999999E+01 -0.17401E+05
 0.19499998E+01 -0.17400E+05
 0.19999998E+01 -0.17399E+05
 0.20499997E+01 -0.17397E+05
 0.20999999E+01 -0.17395E+05
 0.21499996E+01 -0.17395E+05
 0.21999998E+01 -0.17398E+05
 0.22499995E+01 -0.17398E+05
 0.22999997E+01 -0.17405E+05
 0.23499999E+01 -0.17411E+05
 0.23999996E+01 -0.17414E+05
 0.24499998E+01 -0.17417E+05
 0.24999995E+01 -0.17414E+05
 0.25499997E+01 -0.17415E+05
 0.25999999E+01 -0.17416E+05
 0.26499996E+01 -0.17417E+05
 0.26999998E+01 -0.17419E+05
 0.27499995E+01 -0.17416E+05
 0.27999997E+01 -0.17411E+05
 0.28499999E+01 -0.17408E+05
 0.28999996E+01 -0.17403E+05
 0.29499998E+01 -0.17398E+05
 0.29999995E+01 -0.17399E+05
 0.30499997E+01 -0.17396E+05
 0.30999999E+01 -0.17398E+05
 0.31499996E+01 -0.17400E+05
 0.31999998E+01 -0.17399E+05
 0.32499995E+01 -0.17409E+05
 0.32999997E+01 -0.17410E+05
 0.33499999E+01 -0.17408E+05
 0.33999996E+01 -0.17405E+05
 0.34499998E+01 -0.17399E+05
 0.34999995E+01 -0.17398E+05
 0.35499997E+01 -0.17396E+05
 0.35999994E+01 -0.17396E+05
 0.36499996E+01 -0.17397E+05
 0.36999998E+01 -0.17394E+05
 0.37499995E+01 -0.17395E+05
 0.37999997E+01 -0.17391E+05
 0.38499994E+01 -0.17392E+05
 0.38999996E+01 -0.17397E+05
 0.39499998E+01 -0.17399E+05
 0.39999995E+01 -0.17403E+05
 0.40499997E+01 -0.17405E+05
 0.40999994E+01 -0.17408E+05
 0.41499996E+01 -0.17412E+05
 0.41999998E+01 -0.17415E+05
 0.42499995E+01 -0.17415E+05
 0.42999997E+01 -0.17414E+05
 0.43499994E+01 -0.17411E+05
 0.43999996E+01 -0.17410E+05
 0.44499998E+01 -0.17407E+05
 0.44999995E+01 -0.17405E+05
 0.45499997E+01 -0.17404E+05
 0.45999994E+01 -0.17402E+05
 0.46499996E+01 -0.17404E+05
 0.46999998E+01 -0.17404E+05
 0.47499995E+01 -0.17406E+05
 0.47999997E+01 -0.17404E+05
 0.48499994E+01 -0.17405E+05
 0.48999996E+01 -0.17407E+05
 0.49499998E+01 -0.17407E+05
 0.49999995E+01 -0.17408E+05
 0.50499997E+01 -0.17413E+05
 0.50999994E+01 -0.17415E+05
 0.51499996E+01 -0.17415E+05
 0.51999998E+01 -0.17417E+05
 0.52499995E+01 -0.17413E+05
 0.52999997E+01 -0.17412E+05
 0.53499994E+01 -0.17414E+05
 0.53999996E+01 -0.17414E+05
 0.54499993E+01 -0.17418E+05
 0.54999995E+01 -0.17422E+05
 0.55499997E+01 -0.17422E+05
 0.55999994E+01 -0.17425E+05
 0.56499996E+01 -0.17433E+05
 0.56999993E+01 -0.17435E+05
 0.57499995E+01 -0.17436E+05
 0.57999997E+01 -0.17428E+05
 0.58499994E+01 -0.17422E+05
 0.58999996E+01 -0.17419E+05
 0.59499993E+01 -0.17412E+05
 0.59999995E+01 -0.17409E+05
 0.60499992E+01 -0.17403E+05
 0.60999994E+01 -0.17399E+05
 0.61499996E+01 -0.17395E+05
 0.61999998E+01 -0.17388E+05
 0.62499990E+01 -0.17383E+05
 0.62999992E+01 -0.17381E+05
 0.63499994E+01 -0.17383E+05
 0.63999996E+01 -0.17383E+05
 0.64499998E+01 -0.17383E+05
 0.64999990E+01 -0.17388E+05
 0.65499992E+01 -0.17390E+05
 0.65999994E+01 -0.17393E+05
 0.66499996E+01 -0.17393E+05
 0.66999998E+01 -0.17389E+05
 0.67499990E+01 -0.17391E+05
 0.67999992E+01 -0.17396E+05
 0.68499994E+01 -0.17398E+05
 0.68999996E+01 -0.17399E+05
 0.69499998E+01 -0.17403E+05
 0.69999990E+01 -0.17407E+05
 0.70499992E+01 -0.17413E+05
 0.70999994E+01 -0.17421E+05
 0.71499996E+01 -0.17424E+05
 0.71999998E+01 -0.17425E+05
 0.72499990E+01 -0.17426E+05
 0.72999992E+01 -0.17426E+05
 0.73499994E+01 -0.17431E+05
 0.73999996E+01 -0.17431E+05
 0.74499998E+01 -0.17428E+05
 0.74999990E+01 -0.17427E+05
 0.75499992E+01 -0.17425E+05
 0.75999994E+01 -0.17423E+05
 0.76499996E+01 -0.17419E+05
 0.76999998E+01 -0.17415E+05
 0.77499990E+01 -0.17416E+05
 0.77999992E+01 -0.17416E+05
 0.78499994E+01 -0.17416E+05
 0.78999996E+01 -0.17418E+05
 0.79499998E+01 -0.17418E+05
 0.79999990E+01 -0.17416E+05
 0.80499992E+01 -0.17416E+05
 0.80999994E+01 -0.17414E+05
 0.81499996E+01 -0.17411E+05
 0.81999998E+01 -0.17408E+05
 0.82499990E+01 -0.17404E+05
 0.82999992E+01 -0.17402E+05
 0.83499994E+01 -0.17402E+05
 0.83999996E+01 -0.17403E+05
 0.84499998E+01 -0.17401E+05
 0.84999990E+01 -0.17398E+05
 0.85499992E+01 -0.17392E+05
 0.85999994E+01 -0.17387E+05
 0.86499996E+01 -0.17386E+05
 0.86999998E+01 -0.17384E+05
 0.87499990E+01 -0.17381E+05
 0.87999992E+01 -0.17379E+05
 0.88499994E+01 -0.17377E+05
 0.88999996E+01 -0.17377E+05
 0.89499998E+01 -0.17383E+05
 0.89999990E+01 -0.17390E+05
 0.90499992E+01 -0.17393E+05
 0.90999994E+01 -0.17399E+05
 0.91499996E+01 -0.17406E+05
 0.91999989E+01 -0.17406E+05
 0.92499990E+01 -0.17406E+05
 0.92999992E+01 -0.17408E+05
 0.93499994E+01 -0.17409E+05
 0.93999996E+01 -0.17409E+05
 0.94499989E+01 -0.17412E+05
 0.94999990E+01 -0.17414E+05
 0.95499992E+01 -0.17419E+05
 0.95999994E+01 -0.17425E+05
 0.96499996E+01 -0.17429E+05
 0.96999989E+01 -0.17431E+05
 0.97499990E+01 -0.17430E+05
 0.97999992E+01 -0.17426E+05
 0.98499994E+01 -0.17425E+05
 0.98999996E+01 -0.17424E+05
 0.99499989E+01 -0.17419E+05
 0.99999990E+01 -0.17420E+05
 0.10049999E+02 -0.17418E+05
 0.10099999E+02 -0.17421E+05
 0.10150000E+02 -0.17420E+05
 0.10199999E+02 -0.17417E+05
 0.10249999E+02 -0.17419E+05
 0.10299999E+02 -0.17416E+05
 0.10349999E+02 -0.17412E+05
 0.10400000E+02 -0.17405E+05
 0.10449999E+02 -0.17398E+05
 0.10499999E+02 -0.17395E+05
 0.10549999E+02 -0.17396E+05
 0.10599999E+02 -0.17399E+05
 0.10650000E+02 -0.17402E+05
 0.10699999E+02 -0.17407E+05
 0.10749999E+02 -0.17406E+05
 0.10799999E+02 -0.17406E+05
 0.10849999E+02 -0.17412E+05
 0.10900000E+02 -0.17412E+05
 0.10949999E+02 -0.17410E+05
 0.10999999E+02 -0.17409E+05
 0.11049999E+02 -0.17409E+05
 0.11099999E+02 -0.17411E+05
 0.11150000E+02 -0.17415E+05
 0.11199999E+02 -0.17417E+05
 0.11249999E+02 -0.17417E+05
 0.11299999E+02 -0.17417E+05
 0.11349999E+02 -0.17413E+05
 0.11400000E+02 -0.17409E+05
 0.11449999E+02 -0.17407E+05
 0.11499999E+02 -0.17406E+05
 0.11549999E+02 -0.17404E+05
 0.11599999E+02 -0.17398E+05
 0.11650000E+02 -0.17393E+05
 0.11699999E+02 -0.17392E+05
 0.11749999E+02 -0.17394E+05
 0.11799999E+02 -0.17396E+05
 0.11849999E+02 -0.17393E+05
 0.11900000E+02 -0.17392E+05
 0.11949999E+02 -0.17392E+05
 0.11999999E+02 -0.17395E+05
 0.12049999E+02 -0.17399E+05
 0.12099999E+02 -0.17402E+05
 0.12150000E+02 -0.17404E+05
 0.12199999E+02 -0.17404E+05
 0.12249999E+02 -0.17402E+05
 0.12299999E+02 -0.17405E+05
 0.12349999E+02 -0.17405E+05
 0.12400000E+02 -0.17406E+05
 0.12449999E+02 -0.17411E+05
 0.12499999E+02 -0.17412E+05
 0.12549999E+02 -0.17418E+05
 0.12599999E+02 -0.17423E+05
 0.12649999E+02 -0.17421E+05
 0.12699999E+02 -0.17425E+05
 0.12749999E+02 -0.17425E+05
 0.12799999E+02 -0.17421E+05
 0.12849999E+02 -0.17421E+05
 0.12899999E+02 -0.17414E+05
 0.12949999E+02 -0.17413E+05
 0.12999999E+02 -0.17409E+05
 0.13049999E+02 -0.17404E+05
 0.13099999E+02 -0.17405E+05
 0.13149999E+02 -0.17406E+05
 0.13199999E+02 -0.17411E+05
 0.13249999E+02 -0.17411E+05
 0.13299999E+02 -0.17411E+05
 0.13349999E+02 -0.17414E+05
 0.13399999E+02 -0.17414E+05
 0.13449999E+02 -0.17411E+05
 0.13499999E+02 -0.17415E+05
 0.13549999E+02 -0.17417E+05
 0.13599999E+02 -0.17418E+05
 0.13649999E+02 -0.17419E+05
 0.13699999E+02 -0.17422E+05
 0.13749999E+02 -0.17422E+05
 0.13799999E+02 -0.17426E+05
 0.13849999E+02 -0.17425E+05
 0.13899999E+02 -0.17416E+05
 0.13949999E+02 -0.17414E+05
 0.13999999E+02 -0.17411E+05
 0.14049999E+02 -0.17407E+05
 0.14099998E+02 -0.17404E+05
 0.14150000E+02 -0.17405E+05
 0.14199999E+02 -0.17405E+05
 0.14249998E+02 -0.17406E+05
 0.14299999E+02 -0.17403E+05
 0.14349998E+02 -0.17398E+05
 0.14400000E+02 -0.17399E+05
 0.14449999E+02 -0.17396E+05
 0.14499998E+02 -0.17396E+05
 0.14549999E+02 -0.17396E+05
 0.14599998E+02 -0.17395E+05
 0.14650000E+02 -0.17401E+05
 0.14699999E+02 -0.17403E+05
 0.14749998E+02 -0.17402E+05
 0.14799999E+02 -0.17405E+05
 0.14849998E+02 -0.17406E+05
 0.14900000E+02 -0.17406E+05
 0.14949999E+02 -0.17404E+05
 0.14999998E+02 -0.17401E+05
 0.15049999E+02 -0.17398E+05
 0.15099998E+02 -0.17396E+05
 0.15150000E+02 -0.17397E+05
 0.15199999E+02 -0.17399E+05
 0.15249998E+02 -0.17400E+05
 0.15299999E+02 -0.17401E+05
 0.15349998E+02 -0.17408E+05
 0.15400000E+02 -0.17410E+05
 0.15449999E+02 -0.17411E+05
 0.15499998E+02 -0.17416E+05
 0.15549999E+02 -0.17422E+05
 0.15599998E+02 -0.17424E+05
 0.15650000E+02 -0.17420E+05
 0.15699999E+02 -0.17417E+05
 0.15749998E+02 -0.17419E+05
 0.15799999E+02 -0.17419E+05
 0.15849998E+02 -0.17420E+05
 0.15900000E+02 -0.17419E+05
 0.15949999E+02 -0.17420E+05
 0.15999998E+02 -0.17421E+05
 0.16049999E+02 -0.17419E+05
 0.16099998E+02 -0.17416E+05
 0.16150000E+02 -0.17414E+05
 0.16199999E+02 -0.17412E+05
 0.16249998E+02 -0.17409E+05
 0.16299999E+02 -0.17409E+05
 0.16349998E+02 -0.17412E+05
 0.16400000E+02 -0.17410E+05
 0.16449999E+02 -0.17404E+05
 0.16499998E+02 -0.17405E+05
 0.16549999E+02 -0.17406E+05
 0.16599998E+02 -0.17404E+05
 0.16650000E+02 -0.17400E+05
 0.16699999E+02 -0.17403E+05
 0.16749998E+02 -0.17397E+05
 0.16799999E+02 -0.17400E+05
 0.16849998E+02 -0.17401E+05
 0.16900000E+02 -0.17407E+05
 0.16949999E+02 -0.17403E+05
 0.16999998E+02 -0.17402E+05
 0.17049999E+02 -0.17396E+05
 0.17099998E+02 -0.17385E+05
 0.17150000E+02 -0.17398E+05
 0.17199999E+02 -0.17385E+05
 0.17249998E+02 -0.17409E+05
 0.17299999E+02 -0.17536E+05
 0.17349998E+02 -0.17705E+05
 0.17400000E+02 -0.17803E+05
 0.17449999E+02 -0.17758E+05
 0.17499998E+02 -0.17289E+05
 0.17549999E+02 -0.16924E+05
 0.17599998E+02 -0.16761E+05
 0.17650000E+02 -0.17134E+05
 0.17699999E+02 -0.17583E+05
 0.17749998E+02 -0.17606E+05
 0.17799999E+02 -0.17831E+05
 0.17849998E+02 -0.17712E+05
 0.17900000E+02 -0.17606E+05
 0.17949999E+02 -0.18003E+05
 0.17999998E+02 -0.18232E+05
 0.18049999E+02 -0.18284E+05
 0.18099998E+02 -0.18548E+05
 0.18150000E+02 -0.17597E+05
 0.18199999E+02 -0.15768E+05
 0.18249998E+02 -0.16983E+05
 0.18299999E+02 -0.16089E+05
 0.18349998E+02 -0.16335E+05
 0.18400000E+02 -0.19593E+05
 0.18449999E+02 -0.15865E+05
 0.18499998E+02 -0.14867E+05
 0.18549999E+02 -0.18243E+05
 0.18599998E+02 -0.16970E+05
 0.18650000E+02 -0.17244E+05
 0.18699999E+02 -0.18552E+05
 0.18749998E+02 -0.16784E+05
 0.18799999E+02 -0.16874E+05
 0.18849998E+02 -0.18338E+05
 0.18900000E+02 -0.16561E+05
 0.18949999E+02 -0.16667E+05
 0.18999998E+02 -0.18614E+05
 0.19049999E+02 -0.14990E+05
 0.19099998E+02 -0.17552E+05
 0.19150000E+02 -0.18783E+05
 0.19199999E+02 -0.16425E+05
 0.19249998E+02 -0.18750E+05
 0.19299999E+02 -0.17298E+05
 0.19349998E+02 -0.16584E+05
 0.19400000E+02 -0.18628E+05
 0.19449999E+02 -0.18948E+05
 0.19499998E+02 -0.19253E+05
 0.19549999E+02 -0.19691E+05
 0.19599998E+02 -0.16465E+05
 0.19650000E+02 -0.15727E+05
 0.19699999E+02 -0.17088E+05
 0.19749998E+02 -0.18197E+05
 0.19799999E+02 -0.18387E+05
 0.19849998E+02 -0.16968E+05
 0.19900000E+02 -0.16733E+05
 0.19949999E+02 -0.16990E+05
 0.19999998E+02 -0.17815E+05
 0.20049999E+02 -0.17485E+05
 0.20099998E+02 -0.18775E+05
 0.20150000E+02 -0.19163E+05
 0.20199999E+02 -0.17213E+05
 0.20249998E+02 -0.15689E+05
 0.20299999E+02 -0.14956E+05
 0.20349998E+02 -0.18102E+05
 0.20399998E+02 -0.14599E+05
 0.20449999E+02 -0.15429E+05
 0.20499998E+02 -0.20293E+05
 0.20549999E+02 -0.71638E+04
 0.20599998E+02 -0.12762E+05
 0.20649998E+02 -0.29870E+05
 0.20699999E+02 -0.15946E+05
 0.20749998E+02 -0.18589E+05
 0.20799999E+02 -0.25583E+05
 0.20849998E+02 -0.16776E+05
 0.20899998E+02 -0.24233E+05
 0.20949999E+02 -0.81292E+04
 0.20999998E+02 -0.11284E+05
 0.21049999E+02 -0.27281E+05
 0.21099998E+02  0.40881E+04
 0.21149998E+02 -0.11665E+05
 0.21199999E+02 -0.35898E+05
 0.21249998E+02 -0.10123E+05
 0.21299999E+02 -0.18532E+05
 0.21349998E+02 -0.26721E+05
 0.21399998E+02 -0.19150E+05
 0.21449999E+02 -0.28141E+05
 0.21499998E+02 -0.11118E+05
 0.21549999E+02 -0.85285E+04
 0.21599998E+02 -0.24671E+05
 0.21649998E+02 -0.12743E+05
 0.21699999E+02 -0.17081E+05
 0.21749998E+02 -0.21708E+05
 0.21799999E+02 -0.12369E+05
 0.21849998E+02 -0.16069E+05
 0.21899998E+02 -0.20454E+05
 0.21949999E+02 -0.18577E+05
 0.21999998E+02 -0.13722E+05
 0.22049999E+02 -0.20976E+05
 0.22099998E+02 -0.20689E+05
 0.22149998E+02 -0.11429E+05
 0.22199999E+02 -0.19125E+05
 0.22249998E+02 -0.21658E+05
 0.22299999E+02 -0.17427E+05
 0.22349998E+02 -0.15440E+05
 0.22399998E+02 -0.12017E+05
 0.22449999E+02 -0.16266E+05
 0.22499998E+02 -0.17223E+05
 0.22549999E+02 -0.16607E+05
 0.22599998E+02 -0.14042E+05
 0.22649998E+02 -0.19462E+05
 0.22699999E+02 -0.23640E+05
 0.22749998E+02 -0.13822E+05
 0.22799999E+02 -0.20606E+05
 0.22849998E+02 -0.22730E+05
 0.22899998E+02 -0.12537E+05
 0.22949999E+02 -0.13195E+05
 0.22999998E+02 -0.17635E+05
 0.23049999E+02 -0.17157E+05
 0.23099998E+02 -0.21083E+05
 0.23149998E+02 -0.18411E+05
 0.23199999E+02 -0.14479E+05
 0.23249998E+02 -0.21004E+05
 0.23299999E+02 -0.12845E+05
 0.23349998E+02 -0.16681E+05
 0.23399998E+02 -0.20859E+05
 0.23449999E+02 -0.13989E+05
 0.23499998E+02 -0.22871E+05
 0.23549999E+02 -0.19482E+05
 0.23599998E+02 -0.15885E+05
 0.23649998E+02 -0.21083E+05
 0.23699999E+02 -0.19945E+05
 0.23749998E+02 -0.12880E+05
 0.23799999E+02 -0.16781E+05
 0.23849998E+02 -0.16046E+05
 0.23899998E+02 -0.16298E+05
 0.23949999E+02 -0.20208E+05
 0.23999998E+02 -0.13406E+05
 0.24049999E+02 -0.20234E+05
 0.24099998E+02 -0.17690E+05
 0.24149998E+02 -0.10077E+05
 0.24199999E+02 -0.19903E+05
 0.24249998E+02 -0.21375E+05
 0.24299999E+02 -0.13200E+05
 0.24349998E+02 -0.19472E+05
 0.24399998E+02 -0.18958E+05
 0.24449999E+02 -0.13940E+05
 0.24499998E+02 -0.19354E+05
 0.24549999E+02 -0.16427E+05
 0.24599998E+02 -0.13718E+05
 0.24649998E+02 -0.18278E+05
 0.24699999E+02 -0.15802E+05
 0.24749998E+02 -0.15757E+05
 0.24799999E+02 -0.17694E+05
 0.24849998E+02 -0.14608E+05
 0.24899998E+02 -0.17467E+05
 0.24949999E+02 -0.18580E+05
 0.24999998E+02 -0.16924E+05
 0.25049999E+02 -0.23350E+05
 0.25099998E+02 -0.22616E+05
 0.25149998E+02 -0.16867E+05
 0.25199999E+02 -0.17506E+05
 0.25249998E+02 -0.13797E+05
 0.25299999E+02 -0.18026E+05
 0.25349998E+02 -0.17018E+05
 0.25399998E+02 -0.17418E+05
 0.25449999E+02 -0.26200E+05
 0.25499998E+02 -0.18906E+05
 0.25549999E+02 -0.14829E+05
 0.25599998E+02 -0.16835E+05
 0.25649998E+02 -0.16101E+05
 0.25699999E+02 -0.17515E+05
 0.25749998E+02 -0.16566E+05
 0.25799999E+02 -0.17295E+05
 0.25849998E+02 -0.15162E+05
 0.25899998E+02 -0.12394E+05
 0.25949999E+02 -0.18293E+05
 0.25999998E+02 -0.16849E+05
 0.26049999E+02 -0.15531E+05
 0.26099998E+02 -0.20009E+05
 0.26149998E+02 -0.16651E+05
 0.26199999E+02 -0.14834E+05
 0.26249998E+02 -0.16917E+05
 0.26299999E+02 -0.16977E+05
 0.26349998E+02 -0.16385E+05
 0.26399998E+02 -0.15824E+05
 0.26449999E+02 -0.17779E+05
 0.26499998E+02 -0.18037E+05
 0.26549999E+02 -0.20461E+05
 0.26599998E+02 -0.20789E+05
 0.26649998E+02 -0.17917E+05
 0.26699999E+02 -0.18548E+05
 0.26749998E+02 -0.19405E+05
 0.26799999E+02 -0.17526E+05
 0.26849998E+02 -0.14055E+05
 0.26899998E+02 -0.16748E+05
 0.26949999E+02 -0.16214E+05
 0.26999998E+02 -0.16788E+05
 0.27049997E+02 -0.19677E+05
 0.27099998E+02 -0.16849E+05
 0.27149998E+02 -0.19304E+05
 0.27199999E+02 -0.20502E+05
 0.27249998E+02 -0.14899E+05
 0.27299997E+02 -0.16674E+05
 0.27349998E+02 -0.17244E+05
 0.27399998E+02 -0.13745E+05
 0.27449999E+02 -0.18056E+05
 0.27499998E+02 -0.16761E+05
 0.27549997E+02 -0.15560E+05
 0.27599998E+02 -0.18656E+05
 0.27649998E+02 -0.17976E+05
 0.27699999E+02 -0.18833E+05
 0.27749998E+02 -0.17166E+05
 0.27799997E+02 -0.17409E+05
 0.27849998E+02 -0.18167E+05
 0.27899998E+02 -0.13929E+05
 0.27949999E+02 -0.16140E+05
 0.27999998E+02 -0.22232E+05
 0.28049997E+02 -0.19605E+05
 0.28099998E+02 -0.19243E+05
 0.28149998E+02 -0.22812E+05
 0.28199999E+02 -0.20138E+05
 0.28249998E+02 -0.15522E+05
 0.28299997E+02 -0.17595E+05
 0.28349998E+02 -0.17901E+05
 0.28399998E+02 -0.98820E+04
 0.28449999E+02 -0.14027E+05
 0.28499998E+02 -0.20679E+05
 0.28549997E+02 -0.17323E+05
 0.28599998E+02 -0.13596E+05
 0.28649998E+02 -0.17879E+05
 0.28699999E+02 -0.19413E+05
 0.28749998E+02 -0.13225E+05
 0.28799997E+02 -0.20096E+05
 0.28849998E+02 -0.22992E+05
 0.28899998E+02 -0.17339E+05
 0.28949999E+02 -0.20731E+05
 0.28999998E+02 -0.19064E+05
 0.29049997E+02 -0.14344E+05
 0.29099998E+02 -0.14226E+05
 0.29149998E+02 -0.19644E+05
 0.29199999E+02 -0.22972E+05
 0.29249998E+02 -0.16241E+05
 0.29299997E+02 -0.13150E+05
 0.29349998E+02 -0.13592E+05
 0.29399998E+02 -0.15423E+05
 0.29449999E+02 -0.17824E+05
 0.29499998E+02 -0.18259E+05
 0.29549997E+02 -0.20099E+05
 0.29599998E+02 -0.21538E+05
 0.29649998E+02 -0.19053E+05
 0.29699999E+02 -0.19015E+05
 0.29749998E+02 -0.18415E+05
 0.29799997E+02 -0.18888E+05
 0.29849998E+02 -0.18338E+05
 0.29899998E+02 -0.15237E+05
 0.29949999E+02 -0.12805E+05
 0.29999998E+02 -0.13299E+05
 0.30049999E+02 -0.15629E+05
 0.30099998E+02 -0.14757E+05
 0.30149998E+02 -0.18813E+05
 0.30199997E+02 -0.18902E+05
 0.30249996E+02 -0.19406E+05
 0.30299999E+02 -0.19806E+05
 0.30349998E+02 -0.14760E+05
 0.30399998E+02 -0.16271E+05
 0.30449997E+02 -0.19012E+05
 0.30499996E+02 -0.15884E+05
 0.30549999E+02 -0.15988E+05
 0.30599998E+02 -0.18358E+05
 0.30649998E+02 -0.16482E+05
 0.30699997E+02 -0.15072E+05
 0.30749996E+02 -0.15015E+05
 0.30799999E+02 -0.20118E+05
 0.30849998E+02 -0.21712E+05
 0.30899998E+02 -0.20440E+05
 0.30949997E+02 -0.20648E+05
 0.30999996E+02 -0.19114E+05
 0.31049999E+02 -0.16073E+05
 0.31099998E+02 -0.13852E+05
 0.31149998E+02 -0.15647E+05
 0.31199997E+02 -0.14733E+05
 0.31249996E+02 -0.14449E+05
 0.31299999E+02 -0.17626E+05
 0.31349998E+02 -0.18293E+05
 0.31399998E+02 -0.18304E+05
 0.31449997E+02 -0.19587E+05
 0.31499996E+02 -0.18212E+05
 0.31549999E+02 -0.19114E+05
 0.31599998E+02 -0.20083E+05
 0.31649998E+02 -0.19455E+05
 0.31699997E+02 -0.18973E+05
 0.31749996E+02 -0.14686E+05
 0.31799999E+02 -0.11381E+05
 0.31849998E+02 -0.14213E+05
 0.31899998E+02 -0.16817E+05
 0.31949997E+02 -0.17560E+05
 0.31999996E+02 -0.20050E+05
 0.32049999E+02 -0.17946E+05
 0.32099998E+02 -0.19958E+05
 0.32149998E+02 -0.19521E+05
 0.32199997E+02 -0.17564E+05
 0.32249996E+02 -0.21020E+05
 0.32299999E+02 -0.16233E+05
 0.32349998E+02 -0.13020E+05
 0.32399998E+02 -0.14527E+05
 0.32449997E+02 -0.17615E+05
 0.32499996E+02 -0.18899E+05
 0.32549999E+02 -0.17492E+05
 0.32599998E+02 -0.15187E+05
 0.32649998E+02 -0.14891E+05
 0.32699997E+02 -0.15162E+05
 0.32749996E+02 -0.16667E+05
 0.32799999E+02 -0.19849E+05
 0.32849998E+02 -0.21787E+05
 0.32899998E+02 -0.21448E+05
 0.32949997E+02 -0.21382E+05
 0.32999996E+02 -0.17357E+05
 0.33049999E+02 -0.16677E+05
 0.33099998E+02 -0.22267E+05
 0.33149998E+02 -0.14406E+05
 0.33199997E+02 -0.11027E+05
 0.33249996E+02 -0.12804E+05
 0.33299999E+02 -0.12207E+05
 0.33349998E+02 -0.14782E+05
 0.33399998E+02 -0.16632E+05
 0.33449997E+02 -0.18033E+05
 0.33499996E+02 -0.20186E+05
 0.33549999E+02 -0.22572E+05
 0.33599998E+02 -0.20631E+05
 0.33649998E+02 -0.15290E+05
 0.33699997E+02 -0.13503E+05
 0.33749996E+02 -0.17353E+05
 0.33799999E+02 -0.20997E+05
 0.33849998E+02 -0.16507E+05
 0.33899998E+02 -0.13913E+05
 0.33949997E+02 -0.18317E+05
 0.33999996E+02 -0.15209E+05
 0.34049999E+02 -0.13309E+05
 0.34099998E+02 -0.16123E+05
 0.34149998E+02 -0.17463E+05
 0.34199997E+02 -0.18529E+05
 0.34249996E+02 -0.18630E+05
 0.34299999E+02 -0.16639E+05
 0.34349998E+02 -0.20300E+05
 0.34399998E+02 -0.20671E+05
 0.34449997E+02 -0.14615E+05
 0.34499996E+02 -0.15610E+05
 0.34549999E+02 -0.14966E+05
 0.34599998E+02 -0.11413E+05
 0.34649998E+02 -0.16154E+05
 0.34699997E+02 -0.19665E+05
 0.34749996E+02 -0.17443E+05
 0.34799999E+02 -0.19788E+05
 0.34849998E+02 -0.21268E+05
 0.34899998E+02 -0.21431E+05
 0.34949997E+02 -0.20821E+05
 0.34999996E+02 -0.19711E+05
 0.35049999E+02 -0.21642E+05
 0.35099998E+02 -0.19008E+05
 0.35149998E+02 -0.15529E+05
 0.35199997E+02 -0.16892E+05
 0.35249996E+02 -0.17999E+05
 0.35299999E+02 -0.19105E+05
 0.35349998E+02 -0.15015E+05
 0.35399998E+02 -0.13412E+05
 0.35449997E+02 -0.16255E+05
 0.35499996E+02 -0.14780E+05
 0.35549999E+02 -0.16026E+05
 0.35599998E+02 -0.20005E+05
 0.35649998E+02 -0.18104E+05
 0.35699997E+02 -0.14296E+05
 0.35749996E+02 -0.13099E+05
 0.35799999E+02 -0.14141E+05
 0.35849998E+02 -0.15569E+05
 0.35899998E+02 -0.17769E+05
 0.35949997E+02 -0.18443E+05
 0.35999996E+02 -0.14340E+05
 0.36049999E+02 -0.14047E+05
 0.36099998E+02 -0.21384E+05
 0.36149998E+02 -0.22753E+05
 0.36199997E+02 -0.20085E+05
 0.36249996E+02 -0.20784E+05
 0.36299999E+02 -0.16911E+05
 0.36349998E+02 -0.16605E+05
 0.36399998E+02 -0.19799E+05
 0.36449997E+02 -0.18052E+05
 0.36499996E+02 -0.15555E+05
 0.36549999E+02 -0.14018E+05
 0.36599998E+02 -0.14355E+05
 0.36649998E+02 -0.17581E+05
 0.36699997E+02 -0.16990E+05
 0.36749996E+02 -0.19065E+05
 0.36799999E+02 -0.22688E+05
 0.36849998E+02 -0.19334E+05
 0.36899998E+02 -0.16890E+05
 0.36949997E+02 -0.17771E+05
 0.36999996E+02 -0.16150E+05
 0.37049999E+02 -0.16371E+05
 0.37099998E+02 -0.18519E+05
 0.37149998E+02 -0.18448E+05
 0.37199997E+02 -0.17100E+05
 0.37249996E+02 -0.16852E+05
 0.37299999E+02 -0.17405E+05
 0.37349998E+02 -0.17910E+05
 0.37399998E+02 -0.19712E+05
 0.37449997E+02 -0.17308E+05
 0.37499996E+02 -0.14239E+05
 0.37549999E+02 -0.14462E+05
 0.37599998E+02 -0.14282E+05
 0.37649998E+02 -0.16076E+05
 0.37699997E+02 -0.19593E+05
 0.37749996E+02 -0.20242E+05
 0.37799999E+02 -0.21017E+05
 0.37849998E+02 -0.19219E+05
 0.37899998E+02 -0.16100E+05
 0.37949997E+02 -0.15858E+05
 0.37999996E+02 -0.14149E+05
 0.38049999E+02 -0.11978E+05
 0.38099998E+02 -0.12445E+05
 0.38149998E+02 -0.15674E+05
 0.38199997E+02 -0.17231E+05
 0.38249996E+02 -0.17861E+05
 0.38299999E+02 -0.19431E+05
 0.38349998E+02 -0.19250E+05
 0.38399998E+02 -0.19421E+05
 0.38449997E+02 -0.19865E+05
 0.38499996E+02 -0.21248E+05
 0.38549999E+02 -0.20531E+05
 0.38599998E+02 -0.19151E+05
 0.38649998E+02 -0.20074E+05
 0.38699997E+02 -0.19119E+05
 0.38749996E+02 -0.17728E+05
 0.38799999E+02 -0.19703E+05
 0.38849998E+02 -0.18824E+05
 0.38899998E+02 -0.15814E+05
 0.38949997E+02 -0.16725E+05
 0.38999996E+02 -0.17293E+05
 0.39049999E+02 -0.18104E+05
 0.39099998E+02 -0.17904E+05
 0.39149998E+02 -0.17832E+05
 0.39199997E+02 -0.19485E+05
 0.39249996E+02 -0.18672E+05
 0.39299999E+02 -0.17997E+05
 0.39349998E+02 -0.18537E+05
 0.39399998E+02 -0.14983E+05
 0.39449997E+02 -0.12782E+05
 0.39499996E+02 -0.14889E+05
 0.39549999E+02 -0.15763E+05
 0.39599998E+02 -0.17173E+05
 0.39649998E+02 -0.19207E+05
 0.39699997E+02 -0.20252E+05
 0.39749996E+02 -0.18373E+05
 0.39799999E+02 -0.16894E+05
 0.39849998E+02 -0.17367E+05
 0.39899998E+02 -0.16002E+05
 0.39949997E+02 -0.14747E+05
 0.39999996E+02 -0.15302E+05
 0.40049999E+02 -0.17605E+05
 0.40099998E+02 -0.19624E+05
 0.40149998E+02 -0.20664E+05
 0.40199997E+02 -0.20000E+05
 0.40249996E+02 -0.19396E+05
 0.40299999E+02 -0.17249E+05
 0.40349998E+02 -0.14747E+05
 0.40399998E+02 -0.15833E+05
 0.40449997E+02 -0.17265E+05
 0.40499996E+02 -0.17726E+05
 0.40549999E+02 -0.16772E+05
 0.40599998E+02 -0.15533E+05
 0.40649998E+02 -0.13454E+05
 0.40699997E+02 -0.14634E+05
 0.40749996E+02 -0.17308E+05
 0.40799999E+02 -0.17618E+05
 0.40849998E+02 -0.16961E+05
 0.40899998E+02 -0.16056E+05
 0.40949997E+02 -0.16950E+05
 0.40999996E+02 -0.16774E+05
 0.41049999E+02 -0.18200E+05
 0.41099998E+02 -0.20789E+05
 0.41149998E+02 -0.19006E+05
 0.41199997E+02 -0.17877E+05
 0.41249996E+02 -0.18353E+05
 0.41299999E+02 -0.16740E+05
 0.41349998E+02 -0.16589E+05
 0.41399998E+02 -0.17552E+05
 0.41449997E+02 -0.16554E+05
 0.41499996E+02 -0.16145E+05
 0.41549999E+02 -0.17798E+05
 0.41599998E+02 -0.18285E+05
 0.41649998E+02 -0.19087E+05
 0.41699997E+02 -0.19244E+05
 0.41749996E+02 -0.19081E+05
 0.41799999E+02 -0.19229E+05
 0.41849998E+02 -0.18004E+05
 0.41899998E+02 -0.18508E+05
 0.41949997E+02 -0.18609E+05
 0.41999996E+02 -0.16922E+05
 0.42049999E+02 -0.16502E+05
 0.42099998E+02 -0.18150E+05
 0.42149998E+02 -0.17176E+05
 0.42199997E+02 -0.15971E+05
 0.42249996E+02 -0.16727E+05
 0.42299999E+02 -0.15903E+05
 0.42349998E+02 -0.16040E+05
 0.42399998E+02 -0.16052E+05
 0.42449997E+02 -0.16478E+05
 0.42499996E+02 -0.18937E+05
 0.42549999E+02 -0.19936E+05
 0.42599998E+02 -0.18849E+05
 0.42649998E+02 -0.17959E+05
 0.42699997E+02 -0.16155E+05
 0.42749996E+02 -0.15098E+05
 0.42799995E+02 -0.16593E+05
 0.42849998E+02 -0.16682E+05
 0.42899998E+02 -0.16176E+05
 0.42949997E+02 -0.16660E+05
 0.42999996E+02 -0.16485E+05
 0.43049995E+02 -0.16196E+05
 0.43099998E+02 -0.17079E+05
 0.43149998E+02 -0.17413E+05
 0.43199997E+02 -0.17519E+05
 0.43249996E+02 -0.18246E+05
 0.43299995E+02 -0.18551E+05
 0.43349998E+02 -0.18327E+05
 0.43399998E+02 -0.16971E+05
 0.43449997E+02 -0.17087E+05
 0.43499996E+02 -0.16493E+05
 0.43549995E+02 -0.14935E+05
 0.43599998E+02 -0.16282E+05
 0.43649998E+02 -0.16415E+05
 0.43699997E+02 -0.16843E+05
 0.43749996E+02 -0.18947E+05
 0.43799995E+02 -0.18845E+05
 0.43849998E+02 -0.18736E+05
 0.43899998E+02 -0.17485E+05
 0.43949997E+02 -0.16317E+05
 0.43999996E+02 -0.16855E+05
 0.44049995E+02 -0.17217E+05
 0.44099998E+02 -0.19092E+05
 0.44149998E+02 -0.19327E+05
 0.44199997E+02 -0.17838E+05
 0.44249996E+02 -0.18634E+05
 0.44299995E+02 -0.18432E+05
 0.44349998E+02 -0.16855E+05
 0.44399998E+02 -0.17363E+05
 0.44449997E+02 -0.17722E+05
 0.44499996E+02 -0.17416E+05
 0.44549995E+02 -0.17981E+05
 0.44599998E+02 -0.18256E+05
 0.44649998E+02 -0.18327E+05
 0.44699997E+02 -0.18896E+05
 0.44749996E+02 -0.18825E+05
 0.44799995E+02 -0.18316E+05
 0.44849998E+02 -0.17772E+05
 0.44899998E+02 -0.17095E+05
 0.44949997E+02 -0.16124E+05
 0.44999996E+02 -0.15846E+05
 0.45049995E+02 -0.14905E+05
 0.45099998E+02 -0.14635E+05
 0.45149998E+02 -0.15599E+05
 0.45199997E+02 -0.14901E+05
 0.45249996E+02 -0.15350E+05
 0.45299995E+02 -0.17670E+05
 0.45349998E+02 -0.18611E+05
 0.45399998E+02 -0.18724E+05
 0.45449997E+02 -0.19094E+05
 0.45499996E+02 -0.19119E+05
 0.45549995E+02 -0.18868E+05
 0.45599998E+02 -0.17574E+05
 0.45649998E+02 -0.17482E+05
 0.45699997E+02 -0.16852E+05
 0.45749996E+02 -0.16001E+05
 0.45799995E+02 -0.16724E+05
 0.45849998E+02 -0.15466E+05
 0.45899998E+02 -0.15615E+05
 0.45949997E+02 -0.17314E+05
 0.45999996E+02 -0.17225E+05
 0.46049995E+02 -0.17885E+05
 0.46099998E+02 -0.18588E+05
 0.46149998E+02 -0.19295E+05
 0.46199997E+02 -0.19711E+05
 0.46249996E+02 -0.17794E+05
 0.46299995E+02 -0.16915E+05
 0.46349998E+02 -0.16914E+05
 0.46399998E+02 -0.16823E+05
 0.46449997E+02 -0.18287E+05
 0.46499996E+02 -0.18600E+05
 0.46549995E+02 -0.18498E+05
 0.46599998E+02 -0.19278E+05
 0.46649998E+02 -0.18527E+05
 0.46699997E+02 -0.17419E+05
 0.46749996E+02 -0.17120E+05
 0.46799995E+02 -0.16280E+05
 0.46849998E+02 -0.16572E+05
 0.46899998E+02 -0.16181E+05
 0.46949997E+02 -0.14702E+05
 0.46999996E+02 -0.15811E+05
 0.47049995E+02 -0.15458E+05
 0.47099998E+02 -0.15727E+05
 0.47149998E+02 -0.16833E+05
 0.47199997E+02 -0.16457E+05
 0.47249996E+02 -0.17438E+05
 0.47299995E+02 -0.16485E+05
 0.47349998E+02 -0.16357E+05
 0.47399998E+02 -0.18312E+05
 0.47449997E+02 -0.17954E+05
 0.47499996E+02 -0.17457E+05
 0.47549995E+02 -0.17312E+05
 0.47599998E+02 -0.17962E+05
 0.47649998E+02 -0.18496E+05
 0.47699997E+02 -0.17834E+05
 0.47749996E+02 -0.18578E+05
 0.47799995E+02 -0.17960E+05
 0.47849998E+02 -0.16819E+05
 0.47899998E+02 -0.17968E+05
 0.47949997E+02 -0.18161E+05
 0.47999996E+02 -0.17025E+05
 0.48049995E+02 -0.18350E+05
 0.48099998E+02 -0.18989E+05
 0.48149998E+02 -0.17735E+05
 0.48199997E+02 -0.18017E+05
 0.48249996E+02 -0.18396E+05
 0.48299995E+02 -0.17837E+05
 0.48349998E+02 -0.17388E+05
 0.48399998E+02 -0.18030E+05
 0.48449997E+02 -0.17724E+05
 0.48499996E+02 -0.17311E+05
 0.48549995E+02 -0.17589E+05
 0.48599998E+02 -0.17366E+05
 0.48649998E+02 -0.17252E+05
 0.48699997E+02 -0.17503E+05
 0.48749996E+02 -0.17303E+05
 0.48799995E+02 -0.16599E+05
 0.48849998E+02 -0.17280E+05
 0.48899998E+02 -0.18059E+05
 0.48949997E+02 -0.17729E+05
 0.48999996E+02 -0.17457E+05
 0.49049995E+02 -0.17317E+05
 0.49099998E+02 -0.17335E+05
 0.49149998E+02 -0.16778E+05
 0.49199997E+02 -0.17030E+05
 0.49249996E+02 -0.18269E+05
 0.49299995E+02 -0.17708E+05
 0.49349998E+02 -0.17724E+05
 0.49399998E+02 -0.18564E+05
 0.49449997E+02 -0.17465E+05
 0.49499996E+02 -0.16712E+05
 0.49549995E+02 -0.16862E+05
 0.49599998E+02 -0.15862E+05
 0.49649998E+02 -0.15592E+05
 0.49699997E+02 -0.16468E+05
 0.49749996E+02 -0.16155E+05
 0.49799995E+02 -0.16375E+05
 0.49849998E+02 -0.16464E+05
 0.49899998E+02 -0.15836E+05
 0.49949997E+02 -0.17082E+05
 0.49999996E+02 -0.17721E+05
 0.50049995E+02 -0.17561E+05
 0.50099998E+02 -0.18728E+05
 0.50149998E+02 -0.18823E+05
 0.50199997E+02 -0.17712E+05
 0.50249996E+02 -0.17428E+05
 0.50299995E+02 -0.17071E+05
 0.50349998E+02 -0.16663E+05
 0.50399998E+02 -0.17304E+05
 0.50449997E+02 -0.17692E+05
 0.50499996E+02 -0.17264E+05
 0.50549995E+02 -0.17106E+05
 0.50599998E+02 -0.16802E+05
 0.50649998E+02 -0.16819E+05
 0.50699997E+02 -0.17468E+05
 0.50749996E+02 -0.18078E+05
 0.50799995E+02 -0.19082E+05
 0.50849998E+02 -0.18930E+05
 0.50899998E+02 -0.18423E+05
 0.50949997E+02 -0.18216E+05
 0.50999996E+02 -0.17617E+05
 0.51049995E+02 -0.18226E+05
 0.51099998E+02 -0.18292E+05
 0.51149998E+02 -0.17223E+05
 0.51199997E+02 -0.17598E+05
 0.51249996E+02 -0.17614E+05
 0.51299995E+02 -0.17676E+05
 0.51349998E+02 -0.18442E+05
 0.51399998E+02 -0.17707E+05
 0.51449997E+02 -0.17305E+05
 0.51499996E+02 -0.17359E+05
 0.51549995E+02 -0.17084E+05
 0.51599998E+02 -0.17524E+05
 0.51649998E+02 -0.16917E+05
 0.51699997E+02 -0.16827E+05
 0.51749996E+02 -0.18244E+05
 0.51799995E+02 -0.17437E+05
 0.51849998E+02 -0.17331E+05
 0.51899998E+02 -0.17727E+05
 0.51949997E+02 -0.16788E+05
 0.51999996E+02 -0.17085E+05
 0.52049995E+02 -0.16834E+05
 0.52099998E+02 -0.16762E+05
 0.52149998E+02 -0.17010E+05
 0.52199997E+02 -0.16154E+05
 0.52249996E+02 -0.15966E+05
 0.52299995E+02 -0.16331E+05
 0.52349998E+02 -0.16210E+05
 0.52399998E+02 -0.16596E+05
 0.52449997E+02 -0.17755E+05
 0.52499996E+02 -0.17828E+05
 0.52549995E+02 -0.18133E+05
 0.52599998E+02 -0.18454E+05
 0.52649998E+02 -0.17849E+05
 0.52699997E+02 -0.17479E+05
 0.52749996E+02 -0.16916E+05
 0.52799995E+02 -0.16641E+05
 0.52849998E+02 -0.16841E+05
 0.52899998E+02 -0.17080E+05
 0.52949997E+02 -0.17752E+05
 0.52999996E+02 -0.18362E+05
 0.53049995E+02 -0.18490E+05
 0.53099998E+02 -0.18411E+05
 0.53149998E+02 -0.18236E+05
 0.53199997E+02 -0.17617E+05
 0.53249996E+02 -0.16972E+05
 0.53299995E+02 -0.17209E+05
 0.53349998E+02 -0.17004E+05
 0.53399998E+02 -0.16791E+05
 0.53449997E+02 -0.17539E+05
 0.53499996E+02 -0.17388E+05
 0.53549995E+02 -0.17112E+05
 0.53599998E+02 -0.17475E+05
 0.53649998E+02 -0.16937E+05
 0.53699997E+02 -0.17034E+05
 0.53749996E+02 -0.17706E+05
 0.53799995E+02 -0.17493E+05
 0.53849998E+02 -0.17467E+05
 0.53899998E+02 -0.17901E+05
 0.53949997E+02 -0.17902E+05
 0.53999996E+02 -0.17934E+05
 0.54049995E+02 -0.18464E+05
 0.54099998E+02 -0.18217E+05
 0.54149998E+02 -0.17226E+05
 0.54199997E+02 -0.16757E+05
 0.54249996E+02 -0.16484E+05
 0.54299995E+02 -0.16498E+05
 0.54349998E+02 -0.16993E+05
 0.54399998E+02 -0.17272E+05
 0.54449997E+02 -0.17713E+05
 0.54499996E+02 -0.18020E+05
 0.54549995E+02 -0.18035E+05
 0.54599998E+02 -0.18305E+05
 0.54649998E+02 -0.18728E+05
 0.54699997E+02 -0.18647E+05
 0.54749996E+02 -0.18088E+05
 0.54799995E+02 -0.18160E+05
 0.54849998E+02 -0.17720E+05
 0.54899998E+02 -0.16557E+05
 0.54949997E+02 -0.16916E+05
 0.54999996E+02 -0.17387E+05
 0.55049995E+02 -0.16742E+05
 0.55099998E+02 -0.17564E+05
 0.55149998E+02 -0.17514E+05
 0.55199997E+02 -0.16254E+05
 0.55249996E+02 -0.16845E+05
 0.55299995E+02 -0.17148E+05
 0.55349998E+02 -0.16721E+05
 0.55399998E+02 -0.16841E+05
 0.55449997E+02 -0.16997E+05
 0.55499996E+02 -0.16709E+05
 0.55549995E+02 -0.16376E+05
 0.55599998E+02 -0.16527E+05
 0.55649998E+02 -0.16815E+05
 0.55699997E+02 -0.16678E+05
 0.55749996E+02 -0.17174E+05
 0.55799995E+02 -0.18238E+05
 0.55849995E+02 -0.18237E+05
 0.55899998E+02 -0.18130E+05
 0.55949997E+02 -0.18918E+05
 0.55999996E+02 -0.18457E+05
 0.56049995E+02 -0.17866E+05
 0.56099995E+02 -0.17943E+05
 0.56149998E+02 -0.17194E+05
 0.56199997E+02 -0.17078E+05
 0.56249996E+02 -0.17227E+05
 0.56299995E+02 -0.16864E+05
 0.56349995E+02 -0.17138E+05
 0.56399998E+02 -0.17281E+05
 0.56449997E+02 -0.17284E+05
 0.56499996E+02 -0.17618E+05
 0.56549995E+02 -0.17505E+05
 0.56599995E+02 -0.17987E+05
 0.56649998E+02 -0.18373E+05
 0.56699997E+02 -0.18099E+05
 0.56749996E+02 -0.18094E+05
 0.56799995E+02 -0.17685E+05
 0.56849995E+02 -0.17243E+05
 0.56899998E+02 -0.17353E+05
 0.56949997E+02 -0.17330E+05
 0.56999996E+02 -0.16761E+05
 0.57049995E+02 -0.16783E+05
 0.57099995E+02 -0.16770E+05
 0.57149998E+02 -0.16090E+05
 0.57199997E+02 -0.16278E+05
 0.57249996E+02 -0.16847E+05
 0.57299995E+02 -0.17348E+05
 0.57349995E+02 -0.17831E+05
 0.57399998E+02 -0.18011E+05
 0.57449997E+02 -0.17948E+05
 0.57499996E+02 -0.17997E+05
 0.57549995E+02 -0.17974E+05
 0.57599995E+02 -0.17787E+05
 0.57649998E+02 -0.17463E+05
 0.57699997E+02 -0.17232E+05
 0.57749996E+02 -0.17266E+05
 0.57799995E+02 -0.17146E+05
 0.57849995E+02 -0.17021E+05
 0.57899998E+02 -0.17068E+05
 0.57949997E+02 -0.17484E+05
 0.57999996E+02 -0.17927E+05
 0.58049995E+02 -0.17768E+05
 0.58099995E+02 -0.17654E+05
 0.58149998E+02 -0.17884E+05
 0.58199997E+02 -0.17545E+05
 0.58249996E+02 -0.17359E+05
 0.58299995E+02 -0.17350E+05
 0.58349995E+02 -0.16957E+05
 0.58399998E+02 -0.16517E+05
 0.58449997E+02 -0.15985E+05
 0.58499996E+02 -0.15997E+05
 0.58549995E+02 -0.16287E+05
 0.58599995E+02 -0.16623E+05
 0.58649998E+02 -0.17303E+05
 0.58699997E+02 -0.17689E+05
 0.58749996E+02 -0.17889E+05
 0.58799995E+02 -0.18045E+05
 0.58849995E+02 -0.18202E+05
 0.58899998E+02 -0.18052E+05
 0.58949997E+02 -0.17591E+05
 0.58999996E+02 -0.17315E+05
 0.59049995E+02 -0.17054E+05
 0.59099995E+02 -0.17308E+05
 0.59149998E+02 -0.17695E+05
 0.59199997E+02 -0.17636E+05
 0.59249996E+02 -0.17540E+05
 0.59299995E+02 -0.17817E+05
 0.59349995E+02 -0.17506E+05
 0.59399998E+02 -0.16982E+05
 0.59449997E+02 -0.17525E+05
 0.59499996E+02 -0.17501E+05
 0.59549995E+02 -0.17190E+05
 0.59599995E+02 -0.17616E+05
 0.59649998E+02 -0.17720E+05
 0.59699997E+02 -0.17263E+05
 0.59749996E+02 -0.16933E+05
 0.59799995E+02 -0.16993E+05
 0.59849995E+02 -0.16820E+05
 0.59899998E+02 -0.16490E+05
 0.59949997E+02 -0.16895E+05
 0.59999996E+02 -0.17349E+05
 0.60049995E+02 -0.17566E+05
 0.60099995E+02 -0.18394E+05
 0.60149998E+02 -0.18485E+05
 0.60199997E+02 -0.18253E+05
 0.60249996E+02 -0.18291E+05
 0.60299995E+02 -0.17689E+05
 0.60349995E+02 -0.17433E+05
 0.60399998E+02 -0.17566E+05
 0.60449997E+02 -0.17901E+05
 0.60499996E+02 -0.18214E+05
 0.60549995E+02 -0.17983E+05
 0.60599995E+02 -0.17743E+05
 0.60649998E+02 -0.17622E+05
 0.60699997E+02 -0.16958E+05
 0.60749996E+02 -0.16433E+05
 0.60799995E+02 -0.16352E+05
 0.60849995E+02 -0.16965E+05
 0.60899998E+02 -0.17775E+05
 0.60949997E+02 -0.17580E+05
 0.60999996E+02 -0.17681E+05
 0.61049995E+02 -0.18026E+05
 0.61099995E+02 -0.17960E+05
 0.61149998E+02 -0.17885E+05
 0.61199997E+02 -0.17525E+05
 0.61249996E+02 -0.17285E+05
 0.61299995E+02 -0.17107E+05
 0.61349995E+02 -0.16714E+05
 0.61399998E+02 -0.16757E+05
 0.61449997E+02 -0.16778E+05
 0.61499996E+02 -0.16966E+05
 0.61549995E+02 -0.17267E+05
 0.61599995E+02 -0.17099E+05
 0.61649998E+02 -0.16974E+05
 0.61699997E+02 -0.17238E+05
 0.61749996E+02 -0.17570E+05
 0.61799995E+02 -0.17701E+05
 0.61849995E+02 -0.17975E+05
 0.61899998E+02 -0.18455E+05
 0.61949997E+02 -0.18730E+05
 0.61999996E+02 -0.18501E+05
 0.62049995E+02 -0.18083E+05
 0.62099998E+02 -0.17492E+05
 0.62149994E+02 -0.16900E+05
 0.62199997E+02 -0.16692E+05
 0.62249992E+02 -0.16563E+05
 0.62299995E+02 -0.16619E+05
 0.62349998E+02 -0.16653E+05
 0.62399994E+02 -0.16740E+05
 0.62449997E+02 -0.16741E+05
 0.62499992E+02 -0.16769E+05
 0.62549995E+02 -0.17144E+05
 0.62599998E+02 -0.17424E+05
 0.62649994E+02 -0.17612E+05
 0.62699997E+02 -0.17369E+05
 0.62749992E+02 -0.16958E+05
 0.62799995E+02 -0.16741E+05
 0.62849998E+02 -0.16797E+05
 0.62899994E+02 -0.17426E+05
 0.62949997E+02 -0.17778E+05
 0.62999992E+02 -0.17901E+05
 0.63049995E+02 -0.18294E+05
 0.63099998E+02 -0.17914E+05
 0.63149994E+02 -0.17819E+05
 0.63199997E+02 -0.17958E+05
 0.63249992E+02 -0.17714E+05
 0.63299995E+02 -0.17968E+05
 0.63349998E+02 -0.17765E+05
 0.63399994E+02 -0.17191E+05
 0.63449997E+02 -0.17394E+05
 0.63499992E+02 -0.17334E+05
 0.63549995E+02 -0.17217E+05
 0.63599998E+02 -0.17382E+05
 0.63649994E+02 -0.17329E+05
 0.63699997E+02 -0.17472E+05
 0.63749992E+02 -0.17384E+05
 0.63799995E+02 -0.17199E+05
 0.63849998E+02 -0.17123E+05
 0.63899994E+02 -0.17144E+05
 0.63949997E+02 -0.17105E+05
 0.63999992E+02 -0.17347E+05
 0.64049995E+02 -0.17392E+05
 0.64099998E+02 -0.17426E+05
 0.64149994E+02 -0.17842E+05
 0.64199997E+02 -0.17649E+05
 0.64249992E+02 -0.17357E+05
 0.64299995E+02 -0.17546E+05
 0.64349998E+02 -0.17305E+05
 0.64399994E+02 -0.17099E+05
 0.64449997E+02 -0.17442E+05
 0.64499992E+02 -0.17646E+05
 0.64549995E+02 -0.17810E+05
 0.64599998E+02 -0.17716E+05
 0.64649994E+02 -0.17725E+05
 0.64699997E+02 -0.17831E+05
 0.64749992E+02 -0.17856E+05
 0.64799995E+02 -0.17953E+05
 0.64849998E+02 -0.17980E+05
 0.64899994E+02 -0.17809E+05
 0.64949997E+02 -0.17688E+05
 0.64999992E+02 -0.17619E+05
 0.65049995E+02 -0.17280E+05
 0.65099998E+02 -0.16967E+05
 0.65149994E+02 -0.16796E+05
 0.65199997E+02 -0.16585E+05
 0.65249992E+02 -0.16296E+05
 0.65299995E+02 -0.16107E+05
 0.65349998E+02 -0.16190E+05
 0.65399994E+02 -0.16532E+05
 0.65449997E+02 -0.16966E+05
 0.65499992E+02 -0.17541E+05
 0.65549995E+02 -0.17764E+05
 0.65599998E+02 -0.17771E+05
 0.65649994E+02 -0.18163E+05
 0.65699997E+02 -0.18126E+05
 0.65749992E+02 -0.17633E+05
 0.65799995E+02 -0.17404E+05
 0.65849998E+02 -0.17093E+05
 0.65899994E+02 -0.17093E+05
 0.65949997E+02 -0.17256E+05
 0.65999992E+02 -0.16895E+05
 0.66049995E+02 -0.16896E+05
 0.66099998E+02 -0.17385E+05
 0.66149994E+02 -0.17500E+05
 0.66199997E+02 -0.17274E+05
 0.66249992E+02 -0.17399E+05
 0.66299995E+02 -0.17624E+05
 0.66349998E+02 -0.17453E+05
 0.66399994E+02 -0.17545E+05
 0.66449997E+02 -0.17643E+05
 0.66499992E+02 -0.17709E+05
 0.66549995E+02 -0.17828E+05
 0.66599998E+02 -0.17810E+05
 0.66649994E+02 -0.18025E+05
 0.66699997E+02 -0.17914E+05
 0.66749992E+02 -0.17736E+05
 0.66799995E+02 -0.17660E+05
 0.66849998E+02 -0.17530E+05
 0.66899994E+02 -0.17595E+05
 0.66949997E+02 -0.17623E+05
 0.66999992E+02 -0.17599E+05
 0.67049995E+02 -0.17649E+05
 0.67099998E+02 -0.17558E+05
 0.67149994E+02 -0.17474E+05
 0.67199997E+02 -0.17428E+05
 0.67249992E+02 -0.17320E+05
 0.67299995E+02 -0.17066E+05
 0.67349998E+02 -0.16951E+05
 0.67399994E+02 -0.17100E+05
 0.67449997E+02 -0.16930E+05
 0.67499992E+02 -0.16928E+05
 0.67549995E+02 -0.17431E+05
 0.67599998E+02 -0.17638E+05
 0.67649994E+02 -0.17661E+05
 0.67699997E+02 -0.17883E+05
 0.67749992E+02 -0.17527E+05
 0.67799995E+02 -0.17109E+05
 0.67849998E+02 -0.17008E+05
 0.67899994E+02 -0.16956E+05
 0.67949997E+02 -0.17143E+05
 0.67999992E+02 -0.17362E+05
 0.68049995E+02 -0.17646E+05
 0.68099998E+02 -0.17681E+05
 0.68149994E+02 -0.17551E+05
 0.68199997E+02 -0.17557E+05
 0.68249992E+02 -0.17557E+05
 0.68299995E+02 -0.17446E+05
 0.68349998E+02 -0.17231E+05
 0.68399994E+02 -0.17167E+05
 0.68449997E+02 -0.17202E+05
 0.68499992E+02 -0.17235E+05
 0.68549995E+02 -0.17052E+05
 0.68599998E+02 -0.16976E+05
 0.68649994E+02 -0.17124E+05
 0.68699997E+02 -0.17061E+05
 0.68749992E+02 -0.17057E+05
 0.68799995E+02 -0.16863E+05
 0.68849998E+02 -0.16801E+05
 0.68899994E+02 -0.17220E+05
 0.68949997E+02 -0.17378E+05
 0.68999992E+02 -0.17328E+05
 0.69049995E+02 -0.17421E+05
 0.69099998E+02 -0.17404E+05
 0.69149994E+02 -0.17521E+05
 0.69199997E+02 -0.17830E+05
 0.69249992E+02 -0.18025E+05
 0.69299995E+02 -0.18162E+05
 0.69349998E+02 -0.18136E+05
 0.69399994E+02 -0.18054E+05
 0.69449997E+02 -0.17911E+05
 0.69499992E+02 -0.17617E+05
 0.69549995E+02 -0.17377E+05
 0.69599998E+02 -0.17336E+05
 0.69649994E+02 -0.17260E+05
 0.69699997E+02 -0.17335E+05
 0.69749992E+02 -0.17527E+05
 0.69799995E+02 -0.17382E+05
 0.69849998E+02 -0.17366E+05
 0.69899994E+02 -0.17726E+05
 0.69949997E+02 -0.17746E+05
 0.69999992E+02 -0.17470E+05
 0.70049995E+02 -0.17428E+05
 0.70099998E+02 -0.17312E+05
 0.70149994E+02 -0.17030E+05
 0.70199997E+02 -0.17000E+05
 0.70249992E+02 -0.17147E+05
 0.70299995E+02 -0.17137E+05
 0.70349998E+02 -0.17409E+05
 0.70399994E+02 -0.17722E+05
 0.70449997E+02 -0.17521E+05
 0.70499992E+02 -0.17368E+05
 0.70549995E+02 -0.17425E+05
 0.70599998E+02 -0.17298E+05
 0.70649994E+02 -0.17266E+05
 0.70699997E+02 -0.17396E+05
 0.70749992E+02 -0.17452E+05
 0.70799995E+02 -0.17635E+05
 0.70849998E+02 -0.17814E+05
 0.70899994E+02 -0.17781E+05
 0.70949997E+02 -0.17654E+05
 0.70999992E+02 -0.17608E+05
 0.71049995E+02 -0.17499E+05
 0.71099998E+02 -0.17508E+05
 0.71149994E+02 -0.17518E+05
 0.71199997E+02 -0.17385E+05
 0.71249992E+02 -0.17298E+05
 0.71299995E+02 -0.17031E+05
 0.71349998E+02 -0.17063E+05
 0.71399994E+02 -0.17038E+05
 0.71449997E+02 -0.16944E+05
 0.71499992E+02 -0.16970E+05
 0.71549995E+02 -0.16758E+05
 0.71599998E+02 -0.16918E+05
 0.71649994E+02 -0.17174E+05
 0.71699997E+02 -0.17281E+05
 0.71749992E+02 -0.17317E+05
 0.71799995E+02 -0.17365E+05
 0.71849998E+02 -0.17416E+05
 0.71899994E+02 -0.17564E+05
 0.71949997E+02 -0.17870E+05
 0.71999992E+02 -0.17957E+05
 0.72049995E+02 -0.17963E+05
 0.72099998E+02 -0.17868E+05
 0.72149994E+02 -0.17827E+05
 0.72199997E+02 -0.17820E+05
 0.72249992E+02 -0.17733E+05
 0.72299995E+02 -0.17622E+05
 0.72349998E+02 -0.17381E+05
 0.72399994E+02 -0.17120E+05
 0.72449997E+02 -0.16978E+05
 0.72499992E+02 -0.16953E+05
 0.72549995E+02 -0.17025E+05
 0.72599998E+02 -0.17186E+05
 0.72649994E+02 -0.17172E+05
 0.72699997E+02 -0.17414E+05
 0.72749992E+02 -0.17604E+05
 0.72799995E+02 -0.17457E+05
 0.72849998E+02 -0.17505E+05
 0.72899994E+02 -0.17276E+05
 0.72949997E+02 -0.17264E+05
 0.72999992E+02 -0.17459E+05
 0.73049995E+02 -0.17388E+05
 0.73099998E+02 -0.17442E+05
 0.73149994E+02 -0.17444E+05
 0.73199997E+02 -0.17314E+05
 0.73249992E+02 -0.17173E+05
 0.73299995E+02 -0.17187E+05
 0.73349998E+02 -0.17076E+05
 0.73399994E+02 -0.16928E+05
 0.73449997E+02 -0.16990E+05
 0.73499992E+02 -0.17093E+05
 0.73549995E+02 -0.17231E+05
 0.73599998E+02 -0.17395E+05
 0.73649994E+02 -0.17708E+05
 0.73699997E+02 -0.17816E+05
 0.73749992E+02 -0.17703E+05
 0.73799995E+02 -0.17684E+05
 0.73849998E+02 -0.17571E+05
 0.73899994E+02 -0.17264E+05
 0.73949997E+02 -0.17058E+05
 0.73999992E+02 -0.17129E+05
 0.74049995E+02 -0.17234E+05
 0.74099998E+02 -0.17313E+05
 0.74149994E+02 -0.17435E+05
 0.74199997E+02 -0.17763E+05
 0.74249992E+02 -0.18033E+05
 0.74299995E+02 -0.18106E+05
 0.74349998E+02 -0.18203E+05
 0.74399994E+02 -0.17892E+05
 0.74449997E+02 -0.17532E+05
 0.74499992E+02 -0.17365E+05
 0.74549995E+02 -0.17079E+05
 0.74599998E+02 -0.17052E+05
 0.74649994E+02 -0.17188E+05
 0.74699997E+02 -0.17376E+05
 0.74749992E+02 -0.17617E+05
 0.74799995E+02 -0.17680E+05
 0.74849998E+02 -0.17864E+05
 0.74899994E+02 -0.17968E+05
 0.74949997E+02 -0.17749E+05
 0.74999992E+02 -0.17539E+05
 0.75049995E+02 -0.17230E+05
 0.75099998E+02 -0.16951E+05
 0.75149994E+02 -0.16990E+05
 0.75199997E+02 -0.17101E+05
 0.75249992E+02 -0.17205E+05
 0.75299995E+02 -0.17383E+05
 0.75349998E+02 -0.17387E+05
 0.75399994E+02 -0.17462E+05
 0.75449997E+02 -0.17433E+05
 0.75499992E+02 -0.17199E+05
 0.75549995E+02 -0.17235E+05
 0.75599998E+02 -0.17124E+05
 0.75649994E+02 -0.16904E+05
 0.75699997E+02 -0.17067E+05
 0.75749992E+02 -0.17202E+05
 0.75799995E+02 -0.17239E+05
 0.75849998E+02 -0.17500E+05
 0.75899994E+02 -0.17641E+05
 0.75949997E+02 -0.17662E+05
 0.75999992E+02 -0.17698E+05
 0.76049995E+02 -0.17603E+05
 0.76099998E+02 -0.17397E+05
 0.76149994E+02 -0.17126E+05
 0.76199997E+02 -0.17034E+05
 0.76249992E+02 -0.17243E+05
 0.76299995E+02 -0.17461E+05
 0.76349998E+02 -0.17656E+05
 0.76399994E+02 -0.17834E+05
 0.76449997E+02 -0.17947E+05
 0.76499992E+02 -0.18075E+05
 0.76549995E+02 -0.17927E+05
 0.76599998E+02 -0.17710E+05
 0.76649994E+02 -0.17677E+05
 0.76699997E+02 -0.17422E+05
 0.76749992E+02 -0.17222E+05
 0.76799995E+02 -0.17235E+05
 0.76849998E+02 -0.17113E+05
 0.76899994E+02 -0.16957E+05
 0.76949997E+02 -0.16954E+05
 0.76999992E+02 -0.16996E+05
 0.77049995E+02 -0.17036E+05
 0.77099998E+02 -0.17322E+05
 0.77149994E+02 -0.17617E+05
 0.77199997E+02 -0.17707E+05
 0.77249992E+02 -0.17708E+05
 0.77299995E+02 -0.17681E+05
 0.77349998E+02 -0.17716E+05
 0.77399994E+02 -0.17648E+05
 0.77449997E+02 -0.17551E+05
 0.77499992E+02 -0.17494E+05
 0.77549995E+02 -0.17347E+05
 0.77599998E+02 -0.17186E+05
 0.77649994E+02 -0.17270E+05
 0.77699997E+02 -0.17387E+05
 0.77749992E+02 -0.17298E+05
 0.77799995E+02 -0.17203E+05
 0.77849998E+02 -0.17160E+05
 0.77899994E+02 -0.17288E+05
 0.77949997E+02 -0.17450E+05
 0.77999992E+02 -0.17571E+05
 0.78049995E+02 -0.17654E+05
 0.78099998E+02 -0.17573E+05
 0.78149994E+02 -0.17516E+05
 0.78199997E+02 -0.17519E+05
 0.78249992E+02 -0.17438E+05
 0.78299995E+02 -0.17329E+05
 0.78349998E+02 -0.17262E+05
 0.78399994E+02 -0.17174E+05
 0.78449997E+02 -0.17079E+05
 0.78499992E+02 -0.17282E+05
 0.78549995E+02 -0.17531E+05
 0.78599998E+02 -0.17458E+05
 0.78649994E+02 -0.17374E+05
 0.78699997E+02 -0.17360E+05
 0.78749992E+02 -0.17285E+05
 0.78799995E+02 -0.17236E+05
 0.78849998E+02 -0.17273E+05
 0.78899994E+02 -0.17293E+05
 0.78949997E+02 -0.17297E+05
 0.78999992E+02 -0.17357E+05
 0.79049995E+02 -0.17368E+05
 0.79099998E+02 -0.17306E+05
 0.79149994E+02 -0.17228E+05
 0.79199997E+02 -0.17105E+05
 0.79249992E+02 -0.17083E+05
 0.79299995E+02 -0.17101E+05
 0.79349998E+02 -0.17020E+05
 0.79399994E+02 -0.16952E+05
 0.79449997E+02 -0.17020E+05
 0.79499992E+02 -0.17188E+05
 0.79549995E+02 -0.17439E+05
 0.79599998E+02 -0.17719E+05
 0.79649994E+02 -0.17779E+05
 0.79699997E+02 -0.17945E+05
 0.79749992E+02 -0.18085E+05
 0.79799995E+02 -0.17981E+05
 0.79849998E+02 -0.17963E+05
 0.79899994E+02 -0.17924E+05
 0.79949997E+02 -0.17847E+05
 0.79999992E+02 -0.17742E+05
 0.80049995E+02 -0.17720E+05
 0.80099998E+02 -0.17852E+05
 0.80149994E+02 -0.17700E+05
 0.80199997E+02 -0.17404E+05
 0.80249992E+02 -0.17326E+05
 0.80299995E+02 -0.17207E+05
 0.80349998E+02 -0.17121E+05
 0.80399994E+02 -0.17064E+05
 0.80449997E+02 -0.17133E+05
 0.80499992E+02 -0.17306E+05
 0.80549995E+02 -0.17244E+05
 0.80599998E+02 -0.17246E+05
 0.80649994E+02 -0.17288E+05
 0.80699997E+02 -0.17300E+05
 0.80749992E+02 -0.17356E+05
 0.80799995E+02 -0.17403E+05
 0.80849998E+02 -0.17395E+05
 0.80899994E+02 -0.17275E+05
 0.80949997E+02 -0.17250E+05
 0.80999992E+02 -0.17237E+05
 0.81049995E+02 -0.17277E+05
 0.81099998E+02 -0.17482E+05
 0.81149994E+02 -0.17535E+05
 0.81199997E+02 -0.17485E+05
 0.81249992E+02 -0.17450E+05
 0.81299995E+02 -0.17391E+05
 0.81349998E+02 -0.17417E+05
 0.81399994E+02 -0.17475E+05
 0.81449997E+02 -0.17457E+05
 0.81499992E+02 -0.17469E+05
 0.81549995E+02 -0.17482E+05
 0.81599998E+02 -0.17468E+05
 0.81649994E+02 -0.17578E+05
 0.81699997E+02 -0.17629E+05
 0.81749992E+02 -0.17474E+05
 0.81799995E+02 -0.17298E+05
 0.81849998E+02 -0.17105E+05
 0.81899994E+02 -0.16904E+05
 0.81949997E+02 -0.16904E+05
 0.81999992E+02 -0.16969E+05
 0.82049995E+02 -0.17043E+05
 0.82099998E+02 -0.17154E+05
 0.82149994E+02 -0.17361E+05
 0.82199997E+02 -0.17560E+05
 0.82249992E+02 -0.17708E+05
 0.82299995E+02 -0.17864E+05
 0.82349998E+02 -0.17835E+05
 0.82399994E+02 -0.17690E+05
 0.82449997E+02 -0.17611E+05
 0.82499992E+02 -0.17617E+05
 0.82549995E+02 -0.17647E+05
 0.82599998E+02 -0.17704E+05
 0.82649994E+02 -0.17718E+05
 0.82699997E+02 -0.17698E+05
 0.82749992E+02 -0.17530E+05
 0.82799995E+02 -0.17345E+05
 0.82849998E+02 -0.17292E+05
 0.82899994E+02 -0.17199E+05
 0.82949997E+02 -0.17236E+05
 0.82999992E+02 -0.17283E+05
 0.83049995E+02 -0.17276E+05
 0.83099998E+02 -0.17305E+05
 0.83149994E+02 -0.17169E+05
 0.83199997E+02 -0.17186E+05
 0.83249992E+02 -0.17296E+05
 0.83299995E+02 -0.17283E+05
 0.83349998E+02 -0.17390E+05
 0.83399994E+02 -0.17480E+05
 0.83449997E+02 -0.17526E+05
 0.83499992E+02 -0.17549E+05
 0.83549995E+02 -0.17589E+05
 0.83599998E+02 -0.17675E+05
 0.83649994E+02 -0.17680E+05
 0.83699997E+02 -0.17713E+05
 0.83749992E+02 -0.17653E+05
 0.83799995E+02 -0.17591E+05
 0.83849998E+02 -0.17602E+05
 0.83899994E+02 -0.17399E+05
 0.83949997E+02 -0.17125E+05
 0.83999992E+02 -0.17010E+05
 0.84049995E+02 -0.16907E+05
 0.84099998E+02 -0.16898E+05
 0.84149994E+02 -0.17140E+05
 0.84199997E+02 -0.17354E+05
 0.84249992E+02 -0.17584E+05
 0.84299995E+02 -0.17668E+05
 0.84349998E+02 -0.17568E+05
 0.84399994E+02 -0.17548E+05
 0.84449997E+02 -0.17413E+05
 0.84499992E+02 -0.17239E+05
 0.84549995E+02 -0.17127E+05
 0.84599998E+02 -0.17009E+05
 0.84649994E+02 -0.17031E+05
 0.84699997E+02 -0.17214E+05
 0.84749992E+02 -0.17361E+05
 0.84799995E+02 -0.17491E+05
 0.84849998E+02 -0.17554E+05
 0.84899994E+02 -0.17525E+05
 0.84949997E+02 -0.17546E+05
 0.84999992E+02 -0.17563E+05
 0.85049995E+02 -0.17592E+05
 0.85099998E+02 -0.17565E+05
 0.85149994E+02 -0.17498E+05
 0.85199997E+02 -0.17519E+05
 0.85249992E+02 -0.17502E+05
 0.85299995E+02 -0.17455E+05
 0.85349998E+02 -0.17618E+05
 0.85399994E+02 -0.17700E+05
 0.85449997E+02 -0.17574E+05
 0.85499992E+02 -0.17532E+05
 0.85549995E+02 -0.17432E+05
 0.85599998E+02 -0.17310E+05
 0.85649994E+02 -0.17269E+05
 0.85699997E+02 -0.17212E+05
 0.85749992E+02 -0.17144E+05
 0.85799995E+02 -0.17168E+05
 0.85849998E+02 -0.17253E+05
 0.85899994E+02 -0.17364E+05
 0.85949997E+02 -0.17518E+05
 0.85999992E+02 -0.17582E+05
 0.86049995E+02 -0.17674E+05
 0.86099998E+02 -0.17721E+05
 0.86149994E+02 -0.17548E+05
 0.86199997E+02 -0.17315E+05
 0.86249992E+02 -0.17087E+05
 0.86299995E+02 -0.16957E+05
 0.86349998E+02 -0.16935E+05
 0.86399994E+02 -0.16967E+05
 0.86449997E+02 -0.17114E+05
 0.86499992E+02 -0.17250E+05
 0.86549995E+02 -0.17228E+05
 0.86599998E+02 -0.17172E+05
 0.86649994E+02 -0.17188E+05
 0.86699997E+02 -0.17178E+05
 0.86749992E+02 -0.17126E+05
 0.86799995E+02 -0.17162E+05
 0.86849998E+02 -0.17244E+05
 0.86899994E+02 -0.17456E+05
 0.86949997E+02 -0.17631E+05
 0.86999992E+02 -0.17653E+05
 0.87049995E+02 -0.17683E+05
 0.87099998E+02 -0.17661E+05
 0.87149994E+02 -0.17712E+05
 0.87199997E+02 -0.17761E+05
 0.87249992E+02 -0.17730E+05
 0.87299995E+02 -0.17681E+05
 0.87349998E+02 -0.17562E+05
 0.87399994E+02 -0.17543E+05
 0.87449997E+02 -0.17628E+05
 0.87499992E+02 -0.17554E+05
 0.87549995E+02 -0.17516E+05
 0.87599991E+02 -0.17626E+05
 0.87649994E+02 -0.17575E+05
 0.87699997E+02 -0.17489E+05
 0.87749992E+02 -0.17449E+05
 0.87799995E+02 -0.17349E+05
 0.87849991E+02 -0.17317E+05
 0.87899994E+02 -0.17350E+05
 0.87949997E+02 -0.17394E+05
 0.87999992E+02 -0.17485E+05
 0.88049995E+02 -0.17506E+05
 0.88099991E+02 -0.17395E+05
 0.88149994E+02 -0.17290E+05
 0.88199997E+02 -0.17132E+05
 0.88249992E+02 -0.17023E+05
 0.88299995E+02 -0.17134E+05
 0.88349991E+02 -0.17108E+05
 0.88399994E+02 -0.17048E+05
 0.88449997E+02 -0.17156E+05
 0.88499992E+02 -0.17174E+05
 0.88549995E+02 -0.17287E+05
 0.88599991E+02 -0.17426E+05
 0.88649994E+02 -0.17492E+05
 0.88699997E+02 -0.17552E+05
 0.88749992E+02 -0.17506E+05
 0.88799995E+02 -0.17458E+05
 0.88849991E+02 -0.17393E+05
 0.88899994E+02 -0.17390E+05
 0.88949997E+02 -0.17419E+05
 0.88999992E+02 -0.17316E+05
 0.89049995E+02 -0.17245E+05
 0.89099991E+02 -0.17310E+05
 0.89149994E+02 -0.17318E+05
 0.89199997E+02 -0.17312E+05
 0.89249992E+02 -0.17323E+05
 0.89299995E+02 -0.17262E+05
 0.89349991E+02 -0.17310E+05
 0.89399994E+02 -0.17445E+05
 0.89449997E+02 -0.17576E+05
 0.89499992E+02 -0.17728E+05
 0.89549995E+02 -0.17850E+05
 0.89599991E+02 -0.17876E+05
 0.89649994E+02 -0.17864E+05
 0.89699997E+02 -0.17867E+05
 0.89749992E+02 -0.17760E+05
 0.89799995E+02 -0.17621E+05
 0.89849991E+02 -0.17539E+05
 0.89899994E+02 -0.17465E+05
 0.89949997E+02 -0.17402E+05
 0.89999992E+02 -0.17330E+05
 0.90049995E+02 -0.17351E+05
 0.90099991E+02 -0.17419E+05
 0.90149994E+02 -0.17400E+05
 0.90199997E+02 -0.17496E+05
 0.90249992E+02 -0.17655E+05
 0.90299995E+02 -0.17597E+05
 0.90349991E+02 -0.17571E+05
 0.90399994E+02 -0.17612E+05
 0.90449997E+02 -0.17493E+05
 0.90499992E+02 -0.17489E+05
 0.90549995E+02 -0.17560E+05
 0.90599991E+02 -0.17535E+05
 0.90649994E+02 -0.17578E+05
 0.90699997E+02 -0.17614E+05
 0.90749992E+02 -0.17590E+05
 0.90799995E+02 -0.17468E+05
 0.90849991E+02 -0.17330E+05
 0.90899994E+02 -0.17332E+05
 0.90949997E+02 -0.17204E+05
 0.90999992E+02 -0.17037E+05
 0.91049995E+02 -0.17093E+05
 0.91099991E+02 -0.17185E+05
 0.91149994E+02 -0.17256E+05
 0.91199997E+02 -0.17362E+05
 0.91249992E+02 -0.17392E+05
 0.91299995E+02 -0.17341E+05
 0.91349991E+02 -0.17292E+05
 0.91399994E+02 -0.17187E+05
 0.91449997E+02 -0.17108E+05
 0.91499992E+02 -0.17154E+05
 0.91549995E+02 -0.17195E+05
 0.91599991E+02 -0.17232E+05
 0.91649994E+02 -0.17175E+05
 0.91699997E+02 -0.17094E+05
 0.91749992E+02 -0.17102E+05
 0.91799995E+02 -0.17111E+05
 0.91849991E+02 -0.17195E+05
 0.91899994E+02 -0.17245E+05
 0.91949997E+02 -0.17260E+05
 0.91999992E+02 -0.17286E+05
 0.92049995E+02 -0.17267E+05
 0.92099991E+02 -0.17291E+05
 0.92149994E+02 -0.17357E+05
 0.92199997E+02 -0.17398E+05
 0.92249992E+02 -0.17440E+05
 0.92299995E+02 -0.17541E+05
 0.92349991E+02 -0.17650E+05
 0.92399994E+02 -0.17741E+05
 0.92449997E+02 -0.17786E+05
 0.92499992E+02 -0.17721E+05
 0.92549995E+02 -0.17666E+05
 0.92599991E+02 -0.17642E+05
 0.92649994E+02 -0.17553E+05
 0.92699997E+02 -0.17532E+05
 0.92749992E+02 -0.17553E+05
 0.92799995E+02 -0.17486E+05
 0.92849991E+02 -0.17465E+05
 0.92899994E+02 -0.17407E+05
 0.92949997E+02 -0.17276E+05
 0.92999992E+02 -0.17217E+05
 0.93049995E+02 -0.17200E+05
 0.93099991E+02 -0.17230E+05
 0.93149994E+02 -0.17303E+05
 0.93199997E+02 -0.17340E+05
 0.93249992E+02 -0.17371E+05
 0.93299995E+02 -0.17400E+05
 0.93349991E+02 -0.17354E+05
 0.93399994E+02 -0.17326E+05
 0.93449997E+02 -0.17288E+05
 0.93499992E+02 -0.17290E+05
 0.93549995E+02 -0.17343E+05
 0.93599991E+02 -0.17333E+05
 0.93649994E+02 -0.17341E+05
 0.93699997E+02 -0.17283E+05
 0.93749992E+02 -0.17190E+05
 0.93799995E+02 -0.17244E+05
 0.93849991E+02 -0.17273E+05
 0.93899994E+02 -0.17241E+05
 0.93949997E+02 -0.17285E+05
 0.93999992E+02 -0.17343E+05
 0.94049995E+02 -0.17407E+05
 0.94099991E+02 -0.17482E+05
 0.94149994E+02 -0.17499E+05
 0.94199997E+02 -0.17559E+05
 0.94249992E+02 -0.17680E+05
 0.94299995E+02 -0.17718E+05
 0.94349991E+02 -0.17641E+05
 0.94399994E+02 -0.17545E+05
 0.94449997E+02 -0.17466E+05
 0.94499992E+02 -0.17350E+05
 0.94549995E+02 -0.17370E+05
 0.94599991E+02 -0.17426E+05
 0.94649994E+02 -0.17385E+05
 0.94699997E+02 -0.17333E+05
 0.94749992E+02 -0.17204E+05
 0.94799995E+02 -0.17153E+05
 0.94849991E+02 -0.17230E+05
 0.94899994E+02 -0.17273E+05
 0.94949997E+02 -0.17343E+05
 0.94999992E+02 -0.17407E+05
 0.95049995E+02 -0.17401E+05
 0.95099991E+02 -0.17420E+05
 0.95149994E+02 -0.17427E+05
 0.95199997E+02 -0.17433E+05
 0.95249992E+02 -0.17502E+05
 0.95299995E+02 -0.17521E+05
 0.95349991E+02 -0.17523E+05
 0.95399994E+02 -0.17589E+05
 0.95449997E+02 -0.17563E+05
 0.95499992E+02 -0.17507E+05
 0.95549995E+02 -0.17494E+05
 0.95599991E+02 -0.17507E+05
 0.95649994E+02 -0.17513E+05
 0.95699997E+02 -0.17483E+05
 0.95749992E+02 -0.17557E+05
 0.95799995E+02 -0.17602E+05
 0.95849991E+02 -0.17529E+05
 0.95899994E+02 -0.17506E+05
 0.95949997E+02 -0.17488E+05
 0.95999992E+02 -0.17480E+05
 0.96049995E+02 -0.17485E+05
 0.96099991E+02 -0.17417E+05
 0.96149994E+02 -0.17369E+05
 0.96199997E+02 -0.17343E+05
 0.96249992E+02 -0.17322E+05
 0.96299995E+02 -0.17326E+05
 0.96349991E+02 -0.17318E+05
 0.96399994E+02 -0.17345E+05
 0.96449997E+02 -0.17437E+05
 0.96499992E+02 -0.17471E+05
 0.96549995E+02 -0.17384E+05
 0.96599991E+02 -0.17315E+05
 0.96649994E+02 -0.17311E+05
 0.96699997E+02 -0.17340E+05
 0.96749992E+02 -0.17402E+05
 0.96799995E+02 -0.17489E+05
 0.96849991E+02 -0.17509E+05
 0.96899994E+02 -0.17536E+05
 0.96949997E+02 -0.17572E+05
 0.96999992E+02 -0.17447E+05
 0.97049995E+02 -0.17355E+05
 0.97099991E+02 -0.17288E+05
 0.97149994E+02 -0.17223E+05
 0.97199997E+02 -0.17269E+05
 0.97249992E+02 -0.17316E+05
 0.97299995E+02 -0.17349E+05
 0.97349991E+02 -0.17410E+05
 0.97399994E+02 -0.17467E+05
 0.97449997E+02 -0.17491E+05
 0.97499992E+02 -0.17566E+05
 0.97549995E+02 -0.17643E+05
 0.97599991E+02 -0.17677E+05
 0.97649994E+02 -0.17658E+05
 0.97699997E+02 -0.17567E+05
 0.97749992E+02 -0.17499E+05
 0.97799995E+02 -0.17436E+05
 0.97849991E+02 -0.17356E+05
 0.97899994E+02 -0.17354E+05
 0.97949997E+02 -0.17378E+05
 0.97999992E+02 -0.17362E+05
