-0.20000000E+01  0.12624E+02
-0.19500000E+01  0.27895E+02
-0.19000000E+01  0.54833E+02
-0.18500000E+01  0.76516E+02
-0.18000000E+01  0.94157E+02
-0.17500000E+01  0.10201E+03
-0.17000000E+01  0.10624E+03
-0.16500001E+01  0.11284E+03
-0.16000000E+01  0.11584E+03
-0.15500000E+01  0.10754E+03
-0.15000000E+01  0.10004E+03
-0.14500000E+01  0.74495E+02
-0.14000001E+01  0.53296E+02
-0.13500000E+01  0.27646E+02
-0.13000001E+01 -0.74122E-01
-0.12500000E+01 -0.16957E+02
-0.12000000E+01 -0.43766E+02
-0.11500001E+01 -0.50491E+02
-0.11000000E+01 -0.67079E+02
-0.10500001E+01 -0.75906E+02
-0.10000000E+01 -0.81898E+02
-0.95000005E+00 -0.80405E+02
-0.90000010E+00 -0.70253E+02
-0.85000002E+00 -0.62518E+02
-0.80000007E+00 -0.52051E+02
-0.75000012E+00 -0.34511E+02
-0.70000005E+00 -0.17781E+02
-0.65000010E+00  0.38949E+01
-0.60000014E+00  0.11782E+02
-0.55000007E+00  0.17967E+02
-0.50000012E+00  0.26287E+02
-0.45000005E+00  0.28830E+02
-0.40000010E+00  0.35897E+02
-0.35000014E+00  0.37078E+02
-0.30000007E+00  0.32713E+02
-0.25000012E+00  0.24156E+02
-0.20000005E+00  0.99601E+01
-0.15000010E+00 -0.38853E+01
-0.10000014E+00 -0.27008E+02
-0.50000072E-01 -0.44110E+02
-0.11920929E-06 -0.48006E+02
 0.49999952E-01 -0.52402E+02
 0.99999905E-01 -0.44871E+02
 0.14999986E+00 -0.41453E+02
 0.19999981E+00 -0.22943E+02
 0.24999976E+00 -0.12059E+02
 0.29999995E+00  0.19916E+01
 0.34999990E+00  0.18744E+02
 0.39999986E+00  0.32197E+02
 0.44999981E+00  0.49163E+02
 0.49999976E+00  0.55065E+02
 0.54999995E+00  0.57859E+02
 0.59999990E+00  0.55050E+02
 0.64999986E+00  0.46764E+02
 0.69999981E+00  0.35354E+02
 0.74999976E+00  0.28100E+02
 0.79999971E+00  0.13023E+02
 0.84999990E+00  0.38898E+01
 0.89999986E+00 -0.65600E+01
 0.94999981E+00 -0.79671E+01
 0.99999976E+00 -0.63012E+01
 0.10499997E+01 -0.65459E+01
 0.10999999E+01  0.39801E+01
 0.11499999E+01 -0.17363E+01
 0.11999998E+01  0.50448E+01
 0.12499998E+01  0.39796E+01
 0.12999997E+01  0.37188E+01
 0.13499999E+01  0.21181E+00
 0.13999999E+01 -0.13699E+02
 0.14499998E+01 -0.17398E+02
 0.14999998E+01 -0.27201E+02
 0.15499997E+01 -0.20114E+02
 0.15999999E+01 -0.26895E+02
 0.16499999E+01 -0.23992E+02
 0.16999998E+01 -0.25849E+02
 0.17499998E+01 -0.24908E+02
 0.17999997E+01 -0.29889E+02
 0.18499997E+01 -0.33000E+02
 0.18999999E+01 -0.34728E+02
 0.19499998E+01 -0.38762E+02
 0.19999998E+01 -0.29213E+02
 0.20499997E+01 -0.25183E+02
 0.20999999E+01 -0.93771E+01
 0.21499996E+01  0.11776E+01
 0.21999998E+01  0.22746E+02
 0.22499995E+01  0.37500E+02
 0.22999997E+01  0.50030E+02
 0.23499999E+01  0.61357E+02
 0.23999996E+01  0.69631E+02
 0.24499998E+01  0.78076E+02
 0.24999995E+01  0.77943E+02
 0.25499997E+01  0.72124E+02
 0.25999999E+01  0.57903E+02
 0.26499996E+01  0.39378E+02
 0.26999998E+01  0.21762E+02
 0.27499995E+01 -0.11678E+02
 0.27999997E+01 -0.33407E+02
 0.28499999E+01 -0.65536E+02
 0.28999996E+01 -0.80910E+02
 0.29499998E+01 -0.92838E+02
 0.29999995E+01 -0.91749E+02
 0.30499997E+01 -0.87170E+02
 0.30999999E+01 -0.85062E+02
 0.31499996E+01 -0.70524E+02
 0.31999998E+01 -0.59476E+02
 0.32499995E+01 -0.29627E+02
 0.32999997E+01 -0.96883E+01
 0.33499999E+01  0.23459E+02
 0.33999996E+01  0.32886E+02
 0.34499998E+01  0.55586E+02
 0.34999995E+01  0.58740E+02
 0.35499997E+01  0.69440E+02
 0.35999994E+01  0.69822E+02
 0.36499996E+01  0.68573E+02
 0.36999998E+01  0.60511E+02
 0.37499995E+01  0.43518E+02
 0.37999997E+01  0.34928E+02
 0.38499994E+01  0.15655E+02
 0.38999996E+01  0.11684E+02
 0.39499998E+01 -0.11319E+02
 0.39999995E+01 -0.15898E+02
 0.40499997E+01 -0.29551E+02
 0.40999994E+01 -0.32844E+02
 0.41499996E+01 -0.40202E+02
 0.41999998E+01 -0.35394E+02
 0.42499995E+01 -0.28072E+02
 0.42999997E+01 -0.17385E+02
 0.43499994E+01  0.55395E+00
 0.43999996E+01  0.14913E+02
 0.44499998E+01  0.37193E+02
 0.44999995E+01  0.54972E+02
 0.45499997E+01  0.73542E+02
 0.45999994E+01  0.88947E+02
 0.46499996E+01  0.99609E+02
 0.46999998E+01  0.10904E+03
 0.47499995E+01  0.10786E+03
 0.47999997E+01  0.99651E+02
 0.48499994E+01  0.87148E+02
 0.48999996E+01  0.67905E+02
 0.49499998E+01  0.44287E+02
 0.49999995E+01  0.20040E+02
 0.50499997E+01 -0.13723E+02
 0.50999994E+01 -0.45436E+02
 0.51499996E+01 -0.77380E+02
 0.51999998E+01 -0.10502E+03
 0.52499995E+01 -0.12364E+03
 0.52999997E+01 -0.13946E+03
 0.53499994E+01 -0.13493E+03
 0.53999996E+01 -0.13518E+03
 0.54499993E+01 -0.11690E+03
 0.54999995E+01 -0.10746E+03
 0.55499997E+01 -0.85431E+02
 0.55999994E+01 -0.65843E+02
 0.56499996E+01 -0.41222E+02
 0.56999993E+01 -0.16846E+02
 0.57499995E+01  0.74787E+01
 0.57999997E+01  0.26949E+02
 0.58499994E+01  0.54512E+02
 0.58999996E+01  0.66806E+02
 0.59499993E+01  0.79940E+02
 0.59999995E+01  0.88587E+02
 0.60499992E+01  0.82808E+02
 0.60999994E+01  0.91032E+02
 0.61499996E+01  0.75099E+02
 0.61999998E+01  0.67799E+02
 0.62499990E+01  0.44210E+02
 0.62999992E+01  0.23209E+02
 0.63499994E+01  0.73288E+01
 0.63999996E+01 -0.15554E+02
 0.64499998E+01 -0.33044E+02
 0.64999990E+01 -0.49956E+02
 0.65499992E+01 -0.67012E+02
 0.65999994E+01 -0.58418E+02
 0.66499996E+01 -0.68709E+02
 0.66999998E+01 -0.52868E+02
 0.67499990E+01 -0.62941E+02
 0.67999992E+01 -0.58942E+02
 0.68499994E+01 -0.55137E+02
 0.68999996E+01 -0.52947E+02
 0.69499998E+01 -0.33101E+02
 0.69999990E+01 -0.26989E+02
 0.70499992E+01 -0.35818E+01
 0.70999994E+01  0.11769E+02
 0.71499996E+01  0.36578E+02
 0.71999998E+01  0.47198E+02
 0.72499990E+01  0.61845E+02
 0.72999992E+01  0.62729E+02
 0.73499994E+01  0.72113E+02
 0.73999996E+01  0.73076E+02
 0.74499998E+01  0.81269E+02
 0.74999990E+01  0.78438E+02
 0.75499992E+01  0.75778E+02
 0.75999994E+01  0.69003E+02
 0.76499996E+01  0.58038E+02
 0.76999998E+01  0.49466E+02
 0.77499990E+01  0.41988E+02
 0.77999992E+01  0.26684E+02
 0.78499994E+01  0.25172E+02
 0.78999996E+01  0.16332E+02
 0.79499998E+01  0.10391E+02
 0.79999990E+01  0.71119E+01
 0.80499992E+01 -0.91576E+01
 0.80999994E+01 -0.69979E+01
 0.81499996E+01 -0.29649E+02
 0.81999998E+01 -0.23801E+02
 0.82499990E+01 -0.41812E+02
 0.82999992E+01 -0.45273E+02
 0.83499994E+01 -0.51651E+02
 0.83999996E+01 -0.66449E+02
 0.84499998E+01 -0.63006E+02
 0.84999990E+01 -0.74846E+02
 0.85499992E+01 -0.68645E+02
 0.85999994E+01 -0.73426E+02
 0.86499996E+01 -0.62523E+02
 0.86999998E+01 -0.54677E+02
 0.87499990E+01 -0.47728E+02
 0.87999992E+01 -0.37040E+02
 0.88499994E+01 -0.31510E+02
 0.88999996E+01 -0.23140E+02
 0.89499998E+01 -0.23395E+02
 0.89999990E+01 -0.13043E+02
 0.90499992E+01 -0.15030E+02
 0.90999994E+01 -0.57265E+00
 0.91499996E+01  0.57864E+01
 0.91999989E+01  0.22565E+02
 0.92499990E+01  0.38690E+02
 0.92999992E+01  0.44340E+02
 0.93499994E+01  0.57247E+02
 0.93999996E+01  0.52139E+02
 0.94499989E+01  0.59729E+02
 0.94999990E+01  0.53607E+02
 0.95499992E+01  0.53184E+02
 0.95999994E+01  0.48825E+02
 0.96499996E+01  0.45382E+02
 0.96999989E+01  0.41678E+02
 0.97499990E+01  0.37698E+02
 0.97999992E+01  0.30481E+02
 0.98499994E+01  0.26145E+02
 0.98999996E+01  0.21472E+02
 0.99499989E+01  0.20790E+02
 0.99999990E+01  0.15266E+02
 0.10049999E+02  0.56571E+01
 0.10099999E+02  0.35324E+01
 0.10150000E+02 -0.63139E+01
 0.10199999E+02 -0.35422E+01
 0.10249999E+02 -0.13937E+02
 0.10299999E+02 -0.10988E+02
 0.10349999E+02 -0.16349E+02
 0.10400000E+02 -0.20738E+02
 0.10449999E+02 -0.27592E+02
 0.10499999E+02 -0.32285E+02
 0.10549999E+02 -0.37918E+02
 0.10599999E+02 -0.41709E+02
 0.10650000E+02 -0.46912E+02
 0.10699999E+02 -0.47055E+02
 0.10749999E+02 -0.42802E+02
 0.10799999E+02 -0.43045E+02
 0.10849999E+02 -0.28419E+02
 0.10900000E+02 -0.26689E+02
 0.10949999E+02 -0.12675E+02
 0.10999999E+02 -0.10365E+02
 0.11049999E+02  0.95710E+01
 0.11099999E+02  0.13439E+02
 0.11150000E+02  0.27596E+02
 0.11199999E+02  0.37872E+02
 0.11249999E+02  0.40824E+02
 0.11299999E+02  0.51976E+02
 0.11349999E+02  0.48864E+02
 0.11400000E+02  0.56693E+02
 0.11449999E+02  0.51921E+02
 0.11499999E+02  0.59142E+02
 0.11549999E+02  0.54632E+02
 0.11599999E+02  0.52805E+02
 0.11650000E+02  0.45693E+02
 0.11699999E+02  0.35818E+02
 0.11749999E+02  0.19983E+02
 0.11799999E+02  0.61665E+00
 0.11849999E+02 -0.11545E+02
 0.11900000E+02 -0.30910E+02
 0.11949999E+02 -0.41894E+02
 0.11999999E+02 -0.55234E+02
 0.12049999E+02 -0.59045E+02
 0.12099999E+02 -0.61368E+02
 0.12150000E+02 -0.59741E+02
 0.12199999E+02 -0.54707E+02
 0.12249999E+02 -0.51680E+02
 0.12299999E+02 -0.49631E+02
 0.12349999E+02 -0.38558E+02
 0.12400000E+02 -0.28990E+02
 0.12449999E+02 -0.15480E+02
 0.12499999E+02 -0.52643E+01
 0.12549999E+02  0.11333E+02
 0.12599999E+02  0.30656E+02
 0.12649999E+02  0.40573E+02
 0.12699999E+02  0.48972E+02
 0.12749999E+02  0.40656E+02
 0.12799999E+02  0.44166E+02
 0.12849999E+02  0.31362E+02
 0.12899999E+02  0.32268E+02
 0.12949999E+02  0.27854E+02
 0.12999999E+02  0.26814E+02
 0.13049999E+02  0.26435E+02
 0.13099999E+02  0.20789E+02
 0.13149999E+02  0.19821E+02
 0.13199999E+02  0.10985E+02
 0.13249999E+02  0.64925E+01
 0.13299999E+02  0.14374E+01
 0.13349999E+02 -0.80613E+01
 0.13399999E+02 -0.12067E+02
 0.13449999E+02 -0.16727E+02
 0.13499999E+02 -0.20320E+02
 0.13549999E+02 -0.15875E+02
 0.13599999E+02 -0.22700E+02
 0.13649999E+02 -0.14747E+02
 0.13699999E+02 -0.12797E+02
 0.13749999E+02 -0.40859E+01
 0.13799999E+02  0.19924E+01
 0.13849999E+02  0.74984E+01
 0.13899999E+02  0.13363E+02
 0.13949999E+02  0.16206E+02
 0.13999999E+02  0.17671E+02
 0.14049999E+02  0.22762E+02
 0.14099998E+02  0.24909E+02
 0.14150000E+02  0.32600E+02
 0.14199999E+02  0.31978E+02
 0.14249998E+02  0.31289E+02
 0.14299999E+02  0.26282E+02
 0.14349998E+02  0.19593E+02
 0.14400000E+02  0.13649E+02
 0.14449999E+02  0.15720E+00
 0.14499998E+02 -0.12439E+02
 0.14549999E+02 -0.31830E+02
 0.14599998E+02 -0.40541E+02
 0.14650000E+02 -0.50725E+02
 0.14699999E+02 -0.46724E+02
 0.14749998E+02 -0.48092E+02
 0.14799999E+02 -0.38199E+02
 0.14849998E+02 -0.47039E+02
 0.14900000E+02 -0.37145E+02
 0.14949999E+02 -0.39514E+02
 0.14999998E+02 -0.32591E+02
 0.15049999E+02 -0.26610E+02
 0.15099998E+02 -0.26466E+02
 0.15150000E+02 -0.14352E+02
 0.15199999E+02 -0.19293E+02
 0.15249998E+02  0.36079E+00
 0.15299999E+02  0.26783E+01
 0.15349998E+02  0.23971E+02
 0.15400000E+02  0.29078E+02
 0.15449999E+02  0.38413E+02
 0.15499998E+02  0.42111E+02
 0.15549999E+02  0.41547E+02
 0.15599998E+02  0.45365E+02
 0.15650000E+02  0.38330E+02
 0.15699999E+02  0.36936E+02
 0.15749998E+02  0.33373E+02
 0.15799999E+02  0.35879E+02
 0.15849998E+02  0.38288E+02
 0.15900000E+02  0.39538E+02
 0.15949999E+02  0.43640E+02
 0.15999998E+02  0.39907E+02
 0.16049999E+02  0.40649E+02
 0.16099998E+02  0.32606E+02
 0.16150000E+02  0.29755E+02
 0.16199999E+02  0.19888E+02
 0.16249998E+02  0.11857E+02
 0.16299999E+02 -0.39583E+00
 0.16349998E+02 -0.10945E+02
 0.16400000E+02 -0.12558E+02
 0.16449999E+02 -0.24341E+02
 0.16499998E+02 -0.25751E+02
 0.16549999E+02 -0.37551E+02
 0.16599998E+02 -0.39621E+02
 0.16650000E+02 -0.47358E+02
 0.16699999E+02 -0.46680E+02
 0.16749998E+02 -0.47763E+02
 0.16799999E+02 -0.44134E+02
 0.16849998E+02 -0.44292E+02
 0.16900000E+02 -0.34214E+02
 0.16949999E+02 -0.36101E+02
 0.16999998E+02 -0.24540E+02
 0.17049999E+02 -0.26421E+02
 0.17099998E+02 -0.15898E+02
 0.17150000E+02 -0.79272E+01
 0.17199999E+02 -0.22879E+00
 0.17249998E+02  0.97619E+01
 0.17299999E+02  0.89302E+01
 0.17349998E+02  0.22311E+02
 0.17400000E+02  0.15590E+02
 0.17449999E+02  0.26391E+02
 0.17499998E+02  0.22728E+02
 0.17549999E+02  0.32074E+02
 0.17599998E+02  0.32474E+02
 0.17650000E+02  0.38208E+02
 0.17699999E+02  0.33853E+02
 0.17749998E+02  0.34511E+02
 0.17799999E+02  0.26309E+02
 0.17849998E+02  0.24556E+02
 0.17900000E+02  0.15170E+02
 0.17949999E+02  0.14624E+02
 0.17999998E+02  0.66972E+01
 0.18049999E+02 -0.19058E+01
 0.18099998E+02 -0.92376E+01
 0.18150000E+02 -0.19569E+02
 0.18199999E+02 -0.22372E+02
 0.18249998E+02 -0.22224E+02
 0.18299999E+02 -0.18141E+02
 0.18349998E+02 -0.18867E+02
 0.18400000E+02 -0.14291E+02
 0.18449999E+02 -0.18975E+02
 0.18499998E+02 -0.12790E+02
 0.18549999E+02 -0.19014E+02
 0.18599998E+02 -0.13021E+02
 0.18650000E+02 -0.14263E+02
 0.18699999E+02 -0.23505E+01
 0.18749998E+02  0.11411E+01
 0.18799999E+02  0.11596E+02
 0.18849998E+02  0.11462E+02
 0.18900000E+02  0.19320E+02
 0.18949999E+02  0.26441E+02
 0.18999998E+02  0.34413E+02
 0.19049999E+02  0.40463E+02
 0.19099998E+02  0.43985E+02
 0.19150000E+02  0.44308E+02
 0.19199999E+02  0.43927E+02
 0.19249998E+02  0.43279E+02
 0.19299999E+02  0.42518E+02
 0.19349998E+02  0.44255E+02
 0.19400000E+02  0.38269E+02
 0.19449999E+02  0.36765E+02
 0.19499998E+02  0.27454E+02
 0.19549999E+02  0.22837E+02
 0.19599998E+02  0.11121E+02
 0.19650000E+02  0.53566E+01
 0.19699999E+02 -0.98308E+01
 0.19749998E+02 -0.14733E+02
 0.19799999E+02 -0.32979E+02
 0.19849998E+02 -0.36614E+02
 0.19900000E+02 -0.53562E+02
 0.19949999E+02 -0.55638E+02
 0.19999998E+02 -0.66368E+02
 0.20049999E+02 -0.70179E+02
 0.20099998E+02 -0.71838E+02
 0.20150000E+02 -0.79541E+02
 0.20199999E+02 -0.75473E+02
 0.20249998E+02 -0.77492E+02
 0.20299999E+02 -0.63048E+02
 0.20349998E+02 -0.50663E+02
 0.20399998E+02 -0.33944E+02
 0.20449999E+02 -0.21189E+02
 0.20499998E+02 -0.92813E+01
 0.20549999E+02 -0.95114E+00
 0.20599998E+02  0.11699E+02
 0.20649998E+02  0.15561E+02
 0.20699999E+02  0.30449E+02
 0.20749998E+02  0.34171E+02
 0.20799999E+02  0.49145E+02
 0.20849998E+02  0.49977E+02
 0.20899998E+02  0.57748E+02
 0.20949999E+02  0.59654E+02
 0.20999998E+02  0.58537E+02
 0.21049999E+02  0.56314E+02
 0.21099998E+02  0.49271E+02
 0.21149998E+02  0.43409E+02
 0.21199999E+02  0.34050E+02
 0.21249998E+02  0.30897E+02
 0.21299999E+02  0.22859E+02
 0.21349998E+02  0.19190E+02
 0.21399998E+02  0.98044E+01
 0.21449999E+02  0.85891E+01
 0.21499998E+02  0.19225E+01
 0.21549999E+02 -0.51531E+00
 0.21599998E+02 -0.22258E+01
 0.21649998E+02 -0.51055E+00
 0.21699999E+02 -0.20517E+01
 0.21749998E+02 -0.14662E+01
 0.21799999E+02 -0.23187E+01
 0.21849998E+02  0.93744E+00
 0.21899998E+02 -0.12247E+01
 0.21949999E+02  0.33220E+01
 0.21999998E+02  0.33913E+01
 0.22049999E+02  0.15377E+01
 0.22099998E+02 -0.33672E+01
 0.22149998E+02 -0.85480E+01
 0.22199999E+02 -0.10308E+02
 0.22249998E+02 -0.14390E+02
 0.22299999E+02 -0.15634E+02
 0.22349998E+02 -0.17648E+02
 0.22399998E+02 -0.13815E+02
 0.22449999E+02 -0.82912E+01
 0.22499998E+02 -0.29999E+01
 0.22549999E+02 -0.33638E+01
 0.22599998E+02  0.10108E+01
 0.22649998E+02  0.37881E+01
 0.22699999E+02  0.10732E+02
 0.22749998E+02  0.18575E+02
 0.22799999E+02  0.26939E+02
 0.22849998E+02  0.31953E+02
 0.22899998E+02  0.32928E+02
 0.22949999E+02  0.31210E+02
 0.22999998E+02  0.27836E+02
 0.23049999E+02  0.19392E+02
 0.23099998E+02  0.94140E+01
 0.23149998E+02 -0.51037E+01
 0.23199999E+02 -0.18259E+02
 0.23249998E+02 -0.32085E+02
 0.23299999E+02 -0.42100E+02
 0.23349998E+02 -0.47287E+02
 0.23399998E+02 -0.53701E+02
 0.23449999E+02 -0.54560E+02
 0.23499998E+02 -0.62500E+02
 0.23549999E+02 -0.64497E+02
 0.23599998E+02 -0.65030E+02
 0.23649998E+02 -0.61375E+02
 0.23699999E+02 -0.56905E+02
 0.23749998E+02 -0.49993E+02
 0.23799999E+02 -0.38016E+02
 0.23849998E+02 -0.33122E+02
 0.23899998E+02 -0.16957E+02
 0.23949999E+02 -0.95759E+01
 0.23999998E+02  0.10444E+02
 0.24049999E+02  0.27192E+02
 0.24099998E+02  0.41789E+02
 0.24149998E+02  0.58420E+02
 0.24199999E+02  0.63232E+02
 0.24249998E+02  0.77649E+02
 0.24299999E+02  0.79094E+02
 0.24349998E+02  0.93724E+02
 0.24399998E+02  0.87662E+02
 0.24449999E+02  0.82638E+02
 0.24499998E+02  0.72101E+02
 0.24549999E+02  0.56465E+02
 0.24599998E+02  0.49851E+02
 0.24649998E+02  0.29812E+02
 0.24699999E+02  0.21259E+02
 0.24749998E+02  0.76617E+01
 0.24799999E+02 -0.55580E-01
 0.24849998E+02 -0.95680E+01
 0.24899998E+02 -0.14082E+02
 0.24949999E+02 -0.16498E+02
 0.24999998E+02 -0.16856E+02
 0.25049999E+02 -0.17315E+02
 0.25099998E+02 -0.15619E+02
 0.25149998E+02 -0.14253E+02
 0.25199999E+02 -0.97993E+01
 0.25249998E+02 -0.80931E+01
 0.25299999E+02 -0.82619E+01
 0.25349998E+02 -0.41324E+01
 0.25399998E+02 -0.62072E+01
 0.25449999E+02 -0.34722E+01
 0.25499998E+02 -0.58067E+01
 0.25549999E+02 -0.55104E+01
 0.25599998E+02 -0.10453E+02
 0.25649998E+02 -0.10474E+02
 0.25699999E+02 -0.91546E+01
 0.25749998E+02 -0.57738E+01
 0.25799999E+02 -0.60814E+01
 0.25849998E+02 -0.63496E+01
 0.25899998E+02 -0.20322E+01
 0.25949999E+02  0.88363E+00
 0.25999998E+02  0.94282E+01
 0.26049999E+02  0.14481E+02
 0.26099998E+02  0.23948E+02
 0.26149998E+02  0.29966E+02
 0.26199999E+02  0.30291E+02
 0.26249998E+02  0.28342E+02
 0.26299999E+02  0.23085E+02
 0.26349998E+02  0.17725E+02
 0.26399998E+02  0.96283E+01
 0.26449999E+02  0.61124E-02
 0.26499998E+02 -0.12151E+02
 0.26549999E+02 -0.25495E+02
 0.26599998E+02 -0.39089E+02
 0.26649998E+02 -0.50498E+02
 0.26699999E+02 -0.57521E+02
 0.26749998E+02 -0.60800E+02
 0.26799999E+02 -0.58742E+02
 0.26849998E+02 -0.58104E+02
 0.26899998E+02 -0.51417E+02
 0.26949999E+02 -0.49523E+02
 0.26999998E+02 -0.39442E+02
 0.27049997E+02 -0.33321E+02
 0.27099998E+02 -0.19986E+02
 0.27149998E+02 -0.48840E+01
 0.27199999E+02  0.15069E+01
 0.27249998E+02  0.11261E+02
 0.27299997E+02  0.12075E+02
 0.27349998E+02  0.17127E+02
 0.27399998E+02  0.10464E+02
 0.27449999E+02  0.97793E+01
 0.27499998E+02  0.60213E+01
 0.27549997E+02  0.14378E+01
 0.27599998E+02  0.30303E+01
 0.27649998E+02 -0.69869E-01
 0.27699999E+02  0.79320E+01
 0.27749998E+02  0.97535E+01
 0.27799997E+02  0.18936E+02
 0.27849998E+02  0.28319E+02
 0.27899998E+02  0.36584E+02
 0.27949999E+02  0.47555E+02
 0.27999998E+02  0.53259E+02
 0.28049997E+02  0.61269E+02
 0.28099998E+02  0.55514E+02
 0.28149998E+02  0.55682E+02
 0.28199999E+02  0.49911E+02
 0.28249998E+02  0.46113E+02
 0.28299997E+02  0.39238E+02
 0.28349998E+02  0.33421E+02
 0.28399998E+02  0.29444E+02
 0.28449999E+02  0.20390E+02
 0.28499998E+02  0.12933E+02
 0.28549997E+02  0.91793E+01
 0.28599998E+02  0.62719E+01
 0.28649998E+02 -0.13108E+01
 0.28699999E+02 -0.25306E+01
 0.28749998E+02 -0.45981E+01
 0.28799997E+02  0.34147E+01
 0.28849998E+02  0.28304E+01
 0.28899998E+02  0.16117E+02
 0.28949999E+02  0.15461E+02
 0.28999998E+02  0.19416E+02
 0.29049997E+02  0.12710E+02
 0.29099998E+02  0.84268E+01
 0.29149998E+02  0.53401E+01
 0.29199999E+02 -0.81925E+01
 0.29249998E+02 -0.10459E+02
 0.29299997E+02 -0.16183E+02
 0.29349998E+02 -0.14328E+02
 0.29399998E+02 -0.22622E+02
 0.29449999E+02 -0.22785E+02
 0.29499998E+02 -0.35411E+02
 0.29549997E+02 -0.39882E+02
 0.29599998E+02 -0.44900E+02
 0.29649998E+02 -0.42146E+02
 0.29699999E+02 -0.43144E+02
 0.29749998E+02 -0.36978E+02
 0.29799997E+02 -0.37985E+02
 0.29849998E+02 -0.37335E+02
 0.29899998E+02 -0.34298E+02
 0.29949999E+02 -0.29341E+02
 0.29999998E+02 -0.20640E+02
 0.30049999E+02 -0.15591E+02
 0.30099998E+02 -0.63455E+01
 0.30149998E+02 -0.61058E+01
 0.30199997E+02  0.19601E+01
 0.30249996E+02  0.71635E+01
 0.30299999E+02  0.21642E+02
 0.30349998E+02  0.26428E+02
 0.30399998E+02  0.37922E+02
 0.30449997E+02  0.37479E+02
 0.30499996E+02  0.46196E+02
 0.30549999E+02  0.40127E+02
 0.30599998E+02  0.40015E+02
 0.30649998E+02  0.32703E+02
 0.30699997E+02  0.26841E+02
 0.30749996E+02  0.27435E+02
 0.30799999E+02  0.18467E+02
 0.30849998E+02  0.22100E+02
 0.30899998E+02  0.47890E+01
 0.30949997E+02  0.27296E+01
 0.30999996E+02 -0.81683E+01
 0.31049999E+02 -0.66526E+01
 0.31099998E+02 -0.12700E+02
 0.31149998E+02 -0.12725E+02
 0.31199997E+02 -0.14323E+02
 0.31249996E+02 -0.17444E+02
 0.31299999E+02 -0.12719E+02
 0.31349998E+02 -0.99984E+01
 0.31399998E+02  0.87055E+01
 0.31449997E+02  0.13090E+02
 0.31499996E+02  0.29580E+02
 0.31549999E+02  0.30582E+02
 0.31599998E+02  0.41768E+02
 0.31649998E+02  0.59240E+02
 0.31699997E+02  0.80007E+02
 0.31749996E+02  0.40309E+02
 0.31799999E+02 -0.10973E+03
 0.31849998E+02 -0.20110E+03
 0.31899998E+02 -0.62188E+02
 0.31949997E+02  0.21857E+03
 0.31999996E+02  0.24785E+03
 0.32049999E+02  0.55102E+02
 0.32099998E+02 -0.16631E+03
 0.32149998E+02 -0.22373E+03
 0.32199997E+02 -0.19772E+03
 0.32249996E+02  0.42735E+02
 0.32299999E+02  0.22644E+03
 0.32349998E+02 -0.83858E+02
 0.32399998E+02 -0.53331E+03
 0.32449997E+02 -0.69625E+03
 0.32499996E+02 -0.34530E+03
 0.32549999E+02  0.24932E+03
 0.32599998E+02  0.61491E+03
 0.32649998E+02  0.34177E+03
 0.32699997E+02  0.15502E+03
 0.32749996E+02 -0.77211E+02
 0.32799999E+02  0.20137E+03
 0.32849998E+02 -0.46184E+02
 0.32899998E+02  0.48236E+03
 0.32949997E+02 -0.22305E+03
 0.32999996E+02 -0.52650E+02
 0.33049999E+02  0.16705E+03
 0.33099998E+02 -0.99427E+03
 0.33149998E+02 -0.92991E+02
 0.33199997E+02 -0.39140E+03
 0.33249996E+02  0.15509E+03
 0.33299999E+02  0.45446E+03
 0.33349998E+02  0.88454E+03
 0.33399998E+02  0.78718E+03
 0.33449997E+02  0.28532E+03
 0.33499996E+02 -0.63597E+02
 0.33549999E+02 -0.28787E+02
 0.33599998E+02  0.69414E+03
 0.33649998E+02  0.73454E+03
 0.33699997E+02 -0.63685E+03
 0.33749996E+02 -0.85700E+03
 0.33799999E+02 -0.69727E+03
 0.33849998E+02  0.14882E+03
 0.33899998E+02  0.21114E+03
 0.33949997E+02 -0.35885E+03
 0.33999996E+02 -0.36007E+03
 0.34049999E+02 -0.69768E+03
 0.34099998E+02  0.14252E+03
 0.34149998E+02 -0.33037E+03
 0.34199997E+02  0.13749E+03
 0.34249996E+02  0.83610E+02
 0.34299999E+02 -0.19916E+03
 0.34349998E+02  0.14262E+03
 0.34399998E+02  0.19496E+03
 0.34449997E+02 -0.24866E+03
 0.34499996E+02  0.63850E+03
 0.34549999E+02  0.40636E+03
 0.34599998E+02 -0.92948E+03
 0.34649998E+02  0.10035E+03
 0.34699997E+02 -0.80409E+03
 0.34749996E+02  0.17833E+03
 0.34799999E+02  0.16636E+04
 0.34849998E+02 -0.30142E+03
 0.34899998E+02  0.66852E+03
 0.34949997E+02 -0.58425E+03
 0.34999996E+02 -0.68852E+03
 0.35049999E+02 -0.54457E+03
 0.35099998E+02 -0.61483E+03
 0.35149998E+02  0.14468E+04
 0.35199997E+02  0.13525E+03
 0.35249996E+02  0.17639E+03
 0.35299999E+02  0.15314E+03
 0.35349998E+02 -0.23417E+02
 0.35399998E+02  0.59466E+03
 0.35449997E+02  0.77238E+03
 0.35499996E+02  0.44201E+03
 0.35549999E+02 -0.71562E+03
 0.35599998E+02 -0.45089E+03
 0.35649998E+02  0.17639E+03
 0.35699997E+02 -0.82196E+03
 0.35749996E+02 -0.42524E+03
 0.35799999E+02  0.62191E+03
 0.35849998E+02 -0.82211E+03
 0.35899998E+02 -0.39511E+03
 0.35949997E+02 -0.32413E+03
 0.35999996E+02 -0.33766E+03
 0.36049999E+02  0.56769E+03
 0.36099998E+02 -0.71144E+03
 0.36149998E+02  0.10156E+04
 0.36199997E+02  0.53268E+03
 0.36249996E+02 -0.12669E+03
 0.36299999E+02  0.21421E+03
 0.36349998E+02 -0.49581E+03
 0.36399998E+02  0.30381E+03
 0.36449997E+02  0.21573E+03
 0.36499996E+02  0.20160E+03
 0.36549999E+02  0.20946E+03
 0.36599998E+02 -0.36648E+03
 0.36649998E+02  0.80335E+03
 0.36699997E+02  0.86415E+03
 0.36749996E+02 -0.19732E+03
 0.36799999E+02  0.15799E+03
 0.36849998E+02 -0.18828E+03
 0.36899998E+02  0.52481E+03
 0.36949997E+02  0.21061E+03
 0.36999996E+02 -0.98985E+03
 0.37049999E+02 -0.86975E+03
 0.37099998E+02 -0.20313E+03
 0.37149998E+02 -0.94353E+02
 0.37199997E+02 -0.12287E+04
 0.37249996E+02 -0.94409E+03
 0.37299999E+02 -0.30456E+03
 0.37349998E+02 -0.86085E+03
 0.37399998E+02 -0.50326E+03
 0.37449997E+02 -0.13428E+03
 0.37499996E+02  0.23564E+03
 0.37549999E+02  0.13307E+04
 0.37599998E+02 -0.61944E+02
 0.37649998E+02  0.13172E+04
 0.37699997E+02  0.22294E+04
 0.37749996E+02  0.10887E+04
 0.37799999E+02  0.14161E+04
 0.37849998E+02  0.59422E+03
 0.37899998E+02  0.29722E+03
 0.37949997E+02 -0.11077E+04
 0.37999996E+02 -0.16389E+04
 0.38049999E+02  0.23062E+02
 0.38099998E+02  0.41184E+03
 0.38149998E+02 -0.24909E+03
 0.38199997E+02 -0.80650E+03
 0.38249996E+02 -0.73765E+03
 0.38299999E+02  0.25470E+03
 0.38349998E+02 -0.46113E+03
 0.38399998E+02 -0.79340E+03
 0.38449997E+02  0.30510E+03
 0.38499996E+02  0.33555E+03
 0.38549999E+02 -0.38420E+03
 0.38599998E+02 -0.68991E+03
 0.38649998E+02 -0.13935E+04
 0.38699997E+02 -0.51303E+03
 0.38749996E+02  0.15490E+03
 0.38799999E+02  0.21969E+03
 0.38849998E+02  0.16761E+02
 0.38899998E+02 -0.30197E+03
 0.38949997E+02  0.57306E+03
 0.38999996E+02 -0.29806E+03
 0.39049999E+02 -0.51412E+02
 0.39099998E+02  0.94064E+03
 0.39149998E+02  0.51517E+03
 0.39199997E+02  0.12735E+04
 0.39249996E+02  0.14580E+04
 0.39299999E+02  0.49302E+03
 0.39349998E+02  0.93044E+03
 0.39399998E+02  0.87588E+02
 0.39449997E+02 -0.78220E+03
 0.39499996E+02 -0.44198E+03
 0.39549999E+02 -0.85752E+03
 0.39599998E+02  0.27368E+03
 0.39649998E+02  0.44036E+03
 0.39699997E+02 -0.89212E+03
 0.39749996E+02 -0.79888E+03
 0.39799999E+02 -0.71776E+03
 0.39849998E+02 -0.55166E+03
 0.39899998E+02  0.47794E+03
 0.39949997E+02  0.17791E+04
 0.39999996E+02  0.12725E+04
 0.40049999E+02  0.33506E+02
 0.40099998E+02 -0.84729E+03
 0.40149998E+02 -0.84810E+03
 0.40199997E+02 -0.13063E+03
 0.40249996E+02  0.13813E+03
 0.40299999E+02  0.43483E+03
 0.40349998E+02  0.61994E+03
 0.40399998E+02  0.11286E+04
 0.40449997E+02  0.47642E+03
 0.40499996E+02 -0.71713E+03
 0.40549999E+02 -0.22924E+03
 0.40599998E+02 -0.71973E+03
 0.40649998E+02 -0.14083E+04
 0.40699997E+02 -0.13496E+04
 0.40749996E+02 -0.52233E+03
 0.40799999E+02  0.99854E+03
 0.40849998E+02 -0.14607E+03
 0.40899998E+02 -0.68133E+03
 0.40949997E+02  0.11501E+03
 0.40999996E+02 -0.12626E+02
 0.41049999E+02 -0.64459E+03
 0.41099998E+02 -0.10057E+03
 0.41149998E+02 -0.54851E+03
 0.41199997E+02  0.13961E+03
 0.41249996E+02  0.16639E+04
 0.41299999E+02  0.31606E+03
 0.41349998E+02 -0.49632E+03
 0.41399998E+02 -0.65298E+03
 0.41449997E+02  0.82583E+01
 0.41499996E+02  0.11458E+03
 0.41549999E+02  0.57439E+03
 0.41599998E+02  0.13383E+04
 0.41649998E+02  0.67979E+03
 0.41699997E+02  0.41534E+03
 0.41749996E+02  0.36966E+03
 0.41799999E+02  0.21839E+03
 0.41849998E+02 -0.17280E+03
 0.41899998E+02  0.11060E+03
 0.41949997E+02 -0.22812E+03
 0.41999996E+02 -0.13074E+02
 0.42049999E+02 -0.56550E+03
 0.42099998E+02 -0.10839E+04
 0.42149998E+02  0.19957E+03
 0.42199997E+02 -0.52187E+03
 0.42249996E+02  0.64405E+03
 0.42299999E+02  0.83366E+03
 0.42349998E+02  0.82655E+03
 0.42399998E+02  0.12372E+04
 0.42449997E+02 -0.44329E+03
 0.42499996E+02 -0.77605E+03
 0.42549999E+02 -0.74837E+03
 0.42599998E+02 -0.99199E+03
 0.42649998E+02 -0.94532E+03
 0.42699997E+02 -0.11033E+04
 0.42749996E+02  0.15156E+03
 0.42799995E+02  0.97421E+03
 0.42849998E+02  0.38139E+03
 0.42899998E+02 -0.12476E+03
 0.42949997E+02  0.32190E+03
 0.42999996E+02  0.46422E+03
 0.43049995E+02 -0.51907E+03
 0.43099998E+02  0.32984E+03
 0.43149998E+02 -0.38128E+03
 0.43199997E+02  0.70692E+02
 0.43249996E+02 -0.36555E+02
 0.43299995E+02 -0.78886E+03
 0.43349998E+02  0.22828E+03
 0.43399998E+02  0.17165E+03
 0.43449997E+02  0.35906E+03
 0.43499996E+02 -0.11152E+03
 0.43549995E+02 -0.56309E+03
 0.43599998E+02  0.28016E+03
 0.43649998E+02  0.95686E+03
 0.43699997E+02  0.84559E+03
 0.43749996E+02  0.67229E+03
 0.43799995E+02 -0.17782E+02
 0.43849998E+02 -0.21081E+03
 0.43899998E+02 -0.30623E+03
 0.43949997E+02 -0.25177E+03
 0.43999996E+02  0.36390E+02
 0.44049995E+02 -0.11769E+03
 0.44099998E+02 -0.73337E+03
 0.44149998E+02 -0.17373E+03
 0.44199997E+02 -0.26192E+03
 0.44249996E+02 -0.83282E+03
 0.44299995E+02 -0.38289E+03
 0.44349998E+02 -0.18788E+03
 0.44399998E+02 -0.29486E+03
 0.44449997E+02 -0.27956E+03
 0.44499996E+02  0.25145E+03
 0.44549995E+02  0.43173E+03
 0.44599998E+02 -0.27125E+03
 0.44649998E+02 -0.55773E+02
 0.44699997E+02  0.73565E+03
 0.44749996E+02  0.13161E+03
 0.44799995E+02  0.21959E+03
 0.44849998E+02 -0.14384E+03
 0.44899998E+02  0.71072E+03
 0.44949997E+02  0.13443E+04
 0.44999996E+02  0.84678E+03
 0.45049995E+02  0.60808E+03
 0.45099998E+02  0.72893E+02
 0.45149998E+02  0.13197E+03
 0.45199997E+02 -0.63242E+03
 0.45249996E+02 -0.32694E+03
 0.45299995E+02 -0.55485E+03
 0.45349998E+02 -0.38375E+03
 0.45399998E+02 -0.18584E+03
 0.45449997E+02 -0.87344E+03
 0.45499996E+02  0.11909E+02
 0.45549995E+02 -0.74873E+02
 0.45599998E+02 -0.77506E+02
 0.45649998E+02  0.21497E+03
 0.45699997E+02  0.64359E+03
 0.45749996E+02  0.94664E+03
 0.45799995E+02  0.59201E+03
 0.45849998E+02 -0.40049E+03
 0.45899998E+02 -0.88801E+03
 0.45949997E+02 -0.20557E+03
 0.45999996E+02 -0.29764E+03
 0.46049995E+02  0.41822E+03
 0.46099998E+02 -0.30197E+03
 0.46149998E+02 -0.93577E+03
 0.46199997E+02 -0.58333E+03
 0.46249996E+02 -0.41468E+03
 0.46299995E+02  0.15882E+03
 0.46349998E+02  0.81014E+03
 0.46399998E+02  0.14860E+03
 0.46449997E+02 -0.23165E+03
 0.46499996E+02  0.28458E+03
 0.46549995E+02 -0.54885E+02
 0.46599998E+02  0.59409E+03
 0.46649998E+02  0.40500E+03
 0.46699997E+02  0.39604E+03
 0.46749996E+02  0.17735E+03
 0.46799995E+02 -0.11748E+03
 0.46849998E+02 -0.21212E+03
 0.46899998E+02 -0.50063E+03
 0.46949997E+02 -0.51759E+03
 0.46999996E+02 -0.40854E+03
 0.47049995E+02  0.60857E+02
 0.47099998E+02 -0.29732E+03
 0.47149998E+02 -0.54217E+02
 0.47199997E+02  0.70662E+03
 0.47249996E+02  0.25446E+03
 0.47299995E+02  0.22827E+03
 0.47349998E+02 -0.10709E+02
 0.47399998E+02 -0.62052E+03
 0.47449997E+02 -0.27891E+03
 0.47499996E+02 -0.18737E+03
 0.47549995E+02  0.33929E+03
 0.47599998E+02  0.10904E+04
 0.47649998E+02  0.93505E+03
 0.47699997E+02  0.42663E+03
 0.47749996E+02 -0.24398E+03
 0.47799995E+02 -0.11036E+04
 0.47849998E+02 -0.65540E+03
 0.47899998E+02 -0.46396E+03
 0.47949997E+02 -0.17557E+03
 0.47999996E+02  0.52174E+03
 0.48049995E+02 -0.36489E+02
 0.48099998E+02 -0.11461E+03
 0.48149998E+02 -0.32342E+03
 0.48199997E+02  0.53866E+03
 0.48249996E+02  0.11646E+04
 0.48299995E+02  0.66878E+03
 0.48349998E+02  0.55197E+03
 0.48399998E+02  0.33898E+03
 0.48449997E+02  0.34318E+03
 0.48499996E+02 -0.71694E+02
 0.48549995E+02 -0.96406E+03
 0.48599998E+02 -0.12079E+04
 0.48649998E+02  0.18760E+02
 0.48699997E+02  0.34541E+03
 0.48749996E+02  0.15873E+03
 0.48799995E+02 -0.17238E+03
 0.48849998E+02 -0.85929E+03
 0.48899998E+02 -0.18272E+03
 0.48949997E+02 -0.64728E+03
 0.48999996E+02 -0.25903E+03
 0.49049995E+02  0.16827E+03
 0.49099998E+02  0.32967E+03
 0.49149998E+02  0.31683E+03
 0.49199997E+02 -0.48837E+03
 0.49249996E+02 -0.15829E+03
 0.49299995E+02 -0.76342E+02
 0.49349998E+02  0.14241E+03
 0.49399998E+02  0.77193E+02
 0.49449997E+02 -0.30932E+03
 0.49499996E+02 -0.67566E+03
 0.49549995E+02 -0.36085E+03
 0.49599998E+02 -0.26122E+03
 0.49649998E+02 -0.19831E+03
 0.49699997E+02  0.30854E+03
 0.49749996E+02  0.73846E+03
 0.49799995E+02  0.11264E+04
 0.49849998E+02  0.10974E+04
 0.49899998E+02  0.95826E+03
 0.49949997E+02  0.33118E+03
 0.49999996E+02 -0.49061E+03
 0.50049995E+02 -0.18333E+03
 0.50099998E+02 -0.29688E+03
 0.50149998E+02 -0.61565E+03
 0.50199997E+02  0.14308E+03
 0.50249996E+02 -0.10077E+03
 0.50299995E+02  0.26569E+02
 0.50349998E+02  0.35298E+03
 0.50399998E+02 -0.32714E+03
 0.50449997E+02 -0.32233E+02
 0.50499996E+02 -0.16989E+03
 0.50549995E+02 -0.30927E+03
 0.50599998E+02  0.39019E+03
 0.50649998E+02  0.10842E+03
 0.50699997E+02 -0.43384E+03
 0.50749996E+02 -0.40811E+03
 0.50799995E+02 -0.16778E+03
 0.50849998E+02  0.29987E+03
 0.50899998E+02  0.15599E+03
 0.50949997E+02 -0.12807E+03
 0.50999996E+02  0.14978E+03
 0.51049995E+02 -0.10987E+03
 0.51099998E+02 -0.33675E+03
 0.51149998E+02 -0.55355E+03
 0.51199997E+02  0.28320E+03
 0.51249996E+02  0.22253E+03
 0.51299995E+02  0.13275E+03
 0.51349998E+02  0.31473E+02
 0.51399998E+02 -0.27925E+03
 0.51449997E+02  0.42994E+03
 0.51499996E+02 -0.23422E+03
 0.51549995E+02  0.30844E+03
 0.51599998E+02 -0.37086E+03
 0.51649998E+02 -0.51699E+03
 0.51699997E+02  0.46361E+03
 0.51749996E+02  0.35386E+03
 0.51799995E+02  0.30957E+03
 0.51849998E+02 -0.24817E+03
 0.51899998E+02 -0.36338E+02
 0.51949997E+02 -0.73415E+02
 0.51999996E+02  0.10931E+04
 0.52049995E+02  0.79012E+03
 0.52099998E+02 -0.16328E+03
 0.52149998E+02  0.12491E+03
 0.52199997E+02 -0.26786E+03
 0.52249996E+02  0.56938E+03
 0.52299995E+02  0.82800E+02
 0.52349998E+02  0.24360E+03
 0.52399998E+02  0.22079E+03
 0.52449997E+02 -0.71613E+03
 0.52499996E+02 -0.94052E+03
 0.52549995E+02 -0.95142E+03
 0.52599998E+02  0.18972E+02
 0.52649998E+02 -0.58515E+03
 0.52699997E+02 -0.10895E+04
 0.52749996E+02 -0.38236E+03
 0.52799995E+02  0.13335E+02
 0.52849998E+02  0.53640E+03
 0.52899998E+02  0.39332E+03
 0.52949997E+02  0.41973E+03
 0.52999996E+02  0.55718E+03
 0.53049995E+02 -0.33721E+03
 0.53099998E+02  0.21988E+03
 0.53149998E+02 -0.11261E+03
 0.53199997E+02  0.32421E+03
 0.53249996E+02  0.39074E+03
 0.53299995E+02 -0.44685E+02
 0.53349998E+02  0.98808E+02
 0.53399998E+02 -0.50139E+03
 0.53449997E+02 -0.14675E+03
 0.53499996E+02  0.23283E+03
 0.53549995E+02  0.21340E+03
 0.53599998E+02  0.70790E+02
 0.53649998E+02  0.71887E+03
 0.53699997E+02  0.95714E+02
 0.53749996E+02 -0.59557E+03
 0.53799995E+02 -0.28334E+03
 0.53849998E+02 -0.13281E+03
 0.53899998E+02 -0.26188E+03
 0.53949997E+02  0.41642E+03
 0.53999996E+02  0.61854E+03
 0.54049995E+02  0.37303E+03
 0.54099998E+02 -0.69315E+03
 0.54149998E+02 -0.39592E+03
 0.54199997E+02  0.14416E+02
 0.54249996E+02 -0.78252E+02
 0.54299995E+02 -0.11154E+03
 0.54349998E+02 -0.11902E+04
 0.54399998E+02 -0.35783E+03
 0.54449997E+02 -0.36582E+03
 0.54499996E+02 -0.10931E+03
 0.54549995E+02  0.65080E+03
 0.54599998E+02  0.42114E+03
 0.54649998E+02  0.41128E+03
 0.54699997E+02 -0.74909E+02
 0.54749996E+02  0.36788E+03
 0.54799995E+02  0.85546E+03
 0.54849998E+02  0.20373E+03
 0.54899998E+02  0.29837E+03
 0.54949997E+02  0.12741E+03
 0.54999996E+02 -0.31773E+03
 0.55049995E+02 -0.65265E+03
 0.55099998E+02 -0.58170E+03
 0.55149998E+02 -0.52752E+02
 0.55199997E+02  0.13196E+03
 0.55249996E+02 -0.18342E+03
 0.55299995E+02 -0.10750E+03
 0.55349998E+02 -0.44948E+03
 0.55399998E+02 -0.36089E+03
 0.55449997E+02 -0.28005E+03
 0.55499996E+02 -0.34708E+03
 0.55549995E+02 -0.25589E+03
 0.55599998E+02 -0.86343E+03
 0.55649998E+02 -0.29314E+02
 0.55699997E+02  0.15920E+04
 0.55749996E+02  0.14400E+04
 0.55799995E+02 -0.33042E+03
 0.55849995E+02 -0.10921E+04
 0.55899998E+02 -0.16054E+04
 0.55949997E+02 -0.32031E+03
 0.55999996E+02  0.22146E+04
 0.56049995E+02  0.29552E+04
 0.56099995E+02  0.22320E+04
 0.56149998E+02  0.17460E+04
 0.56199997E+02 -0.24789E+03
 0.56249996E+02 -0.33607E+04
 0.56299995E+02 -0.35893E+04
 0.56349995E+02 -0.17482E+04
 0.56399998E+02  0.25875E+04
 0.56449997E+02  0.45846E+04
 0.56499996E+02  0.33447E+04
 0.56549995E+02  0.11540E+03
 0.56599995E+02 -0.18634E+04
 0.56649998E+02 -0.20831E+04
 0.56699997E+02 -0.51107E+04
 0.56749996E+02 -0.46692E+04
 0.56799995E+02 -0.16588E+04
 0.56849995E+02  0.34758E+04
 0.56899998E+02  0.52107E+04
 0.56949997E+02  0.15025E+04
 0.56999996E+02  0.10065E+04
 0.57049995E+02  0.65459E+03
 0.57099995E+02 -0.72773E+03
 0.57149998E+02 -0.26682E+04
 0.57199997E+02 -0.34212E+04
 0.57249996E+02 -0.40369E+03
 0.57299995E+02  0.20053E+04
 0.57349995E+02  0.38561E+04
 0.57399998E+02  0.27607E+04
 0.57449997E+02 -0.77777E+03
 0.57499996E+02 -0.24425E+04
 0.57549995E+02 -0.29426E+04
 0.57599995E+02  0.51443E+03
 0.57649998E+02  0.19300E+04
 0.57699997E+02  0.24269E+04
 0.57749996E+02  0.19522E+04
 0.57799995E+02 -0.12742E+04
 0.57849995E+02 -0.18766E+04
 0.57899998E+02 -0.28875E+04
 0.57949997E+02 -0.22243E+04
 0.57999996E+02 -0.13625E+04
 0.58049995E+02  0.77527E+01
 0.58099995E+02  0.66179E+03
 0.58149998E+02  0.71832E+03
 0.58199997E+02  0.23478E+04
 0.58249996E+02  0.19258E+03
 0.58299995E+02 -0.84616E+03
 0.58349995E+02  0.10828E+04
 0.58399998E+02  0.12191E+04
 0.58449997E+02 -0.15969E+03
 0.58499996E+02 -0.15865E+04
 0.58549995E+02 -0.94519E+03
 0.58599995E+02 -0.34760E+03
 0.58649998E+02 -0.12630E+04
 0.58699997E+02  0.18025E+04
 0.58749996E+02  0.17041E+04
 0.58799995E+02  0.63535E+03
 0.58849995E+02 -0.10852E+04
 0.58899998E+02 -0.38184E+04
 0.58949997E+02 -0.13850E+04
 0.58999996E+02 -0.27467E+04
 0.59049995E+02  0.33761E+03
 0.59099995E+02  0.27929E+04
 0.59149998E+02  0.40606E+04
 0.59199997E+02  0.40513E+04
 0.59249996E+02 -0.16796E+04
 0.59299995E+02 -0.16138E+04
 0.59349995E+02 -0.21108E+04
 0.59399998E+02  0.38254E+03
 0.59449997E+02  0.12300E+04
 0.59499996E+02  0.15931E+04
 0.59549995E+02  0.43233E+04
 0.59599995E+02  0.34794E+04
 0.59649998E+02  0.95782E+03
 0.59699997E+02 -0.33328E+04
 0.59749996E+02 -0.47689E+04
 0.59799995E+02 -0.36575E+04
 0.59849995E+02 -0.40108E+02
 0.59899998E+02 -0.28231E+02
 0.59949997E+02  0.20589E+04
 0.59999996E+02  0.18070E+04
 0.60049995E+02 -0.11223E+04
 0.60099995E+02 -0.33214E+03
 0.60149998E+02 -0.24330E+04
 0.60199997E+02  0.16767E+04
 0.60249996E+02  0.21443E+04
 0.60299995E+02 -0.62119E+03
 0.60349995E+02  0.15127E+04
 0.60399998E+02  0.29447E+04
 0.60449997E+02  0.16579E+04
 0.60499996E+02 -0.26684E+04
 0.60549995E+02 -0.21962E+04
 0.60599995E+02 -0.55548E+03
 0.60649998E+02  0.16735E+04
 0.60699997E+02  0.36449E+03
 0.60749996E+02 -0.15691E+04
 0.60799995E+02 -0.69781E+03
 0.60849995E+02 -0.14578E+04
 0.60899998E+02  0.50999E+03
 0.60949997E+02 -0.23745E+04
 0.60999996E+02 -0.19352E+04
 0.61049995E+02 -0.56880E+03
 0.61099995E+02  0.17626E+04
 0.61149998E+02  0.33766E+04
 0.61199997E+02 -0.45115E+03
 0.61249996E+02 -0.32208E+03
 0.61299995E+02 -0.30530E+04
 0.61349995E+02 -0.17052E+04
 0.61399998E+02 -0.12950E+04
 0.61449997E+02  0.26091E+03
 0.61499996E+02  0.38466E+04
 0.61549995E+02  0.24227E+04
 0.61599995E+02  0.25355E+04
 0.61649998E+02 -0.87005E+03
 0.61699997E+02 -0.90529E+03
 0.61749996E+02 -0.24217E+01
 0.61799995E+02 -0.12223E+04
 0.61849995E+02  0.76659E+03
 0.61899998E+02  0.69615E+02
 0.61949997E+02  0.43075E+03
 0.61999996E+02  0.39425E+02
 0.62049995E+02  0.11125E+03
 0.62099998E+02  0.26790E+04
 0.62149994E+02  0.14193E+04
 0.62199997E+02  0.70321E+03
 0.62249992E+02 -0.95218E+03
 0.62299995E+02 -0.15699E+04
 0.62349998E+02 -0.95939E+03
 0.62399994E+02 -0.70528E+03
 0.62449997E+02  0.27878E+03
 0.62499992E+02 -0.21448E+03
 0.62549995E+02 -0.21941E+03
 0.62599998E+02 -0.32534E+03
 0.62649994E+02 -0.48187E+03
 0.62699997E+02 -0.59394E+03
 0.62749992E+02  0.47468E+03
 0.62799995E+02  0.12477E+04
 0.62849998E+02  0.97642E+03
 0.62899994E+02  0.42432E+02
 0.62949997E+02  0.12094E+02
 0.62999992E+02  0.61948E+03
 0.63049995E+02 -0.46225E+03
 0.63099998E+02 -0.20526E+04
 0.63149994E+02 -0.38360E+04
 0.63199997E+02 -0.22318E+04
 0.63249992E+02 -0.14158E+03
 0.63299995E+02 -0.76686E+03
 0.63349998E+02 -0.19484E+04
 0.63399994E+02 -0.23658E+04
 0.63449997E+02 -0.12753E+03
 0.63499992E+02  0.14802E+04
 0.63549995E+02  0.12928E+04
 0.63599998E+02 -0.43614E+03
 0.63649994E+02 -0.61928E+03
 0.63699997E+02  0.10070E+04
 0.63749992E+02  0.74926E+03
 0.63799995E+02  0.88900E+03
 0.63849998E+02  0.95917E+03
 0.63899994E+02  0.10922E+04
 0.63949997E+02  0.14381E+04
 0.63999992E+02  0.90848E+03
 0.64049995E+02  0.14472E+04
 0.64099998E+02  0.11593E+04
 0.64149994E+02  0.10230E+04
 0.64199997E+02  0.76567E+03
 0.64249992E+02 -0.39168E+03
 0.64299995E+02  0.89901E+02
 0.64349998E+02 -0.14488E+04
 0.64399994E+02 -0.13100E+04
 0.64449997E+02  0.49135E+03
 0.64499992E+02  0.14733E+04
 0.64549995E+02  0.22544E+04
 0.64599998E+02  0.69355E+03
 0.64649994E+02 -0.15412E+03
 0.64699997E+02 -0.18220E+04
 0.64749992E+02 -0.20192E+04
 0.64799995E+02 -0.91200E+03
 0.64849998E+02 -0.64424E+03
 0.64899994E+02  0.22490E+03
 0.64949997E+02  0.47989E+03
 0.64999992E+02  0.66043E+03
 0.65049995E+02 -0.79155E+03
 0.65099998E+02 -0.16798E+04
 0.65149994E+02 -0.13407E+04
 0.65199997E+02  0.88943E+02
 0.65249992E+02  0.19998E+04
 0.65299995E+02  0.24582E+04
 0.65349998E+02  0.27859E+04
 0.65399994E+02  0.19168E+04
 0.65449997E+02  0.21435E+03
 0.65499992E+02  0.31685E+03
 0.65549995E+02  0.17958E+04
 0.65599998E+02  0.15814E+04
 0.65649994E+02 -0.48165E+03
 0.65699997E+02 -0.20165E+04
 0.65749992E+02 -0.30240E+04
 0.65799995E+02 -0.18160E+04
 0.65849998E+02  0.72107E+03
 0.65899994E+02 -0.65911E+02
 0.65949997E+02 -0.67926E+03
 0.65999992E+02 -0.73137E+03
 0.66049995E+02 -0.10761E+04
 0.66099998E+02  0.52331E+03
 0.66149994E+02  0.56237E+03
 0.66199997E+02 -0.70694E+03
 0.66249992E+02 -0.19686E+04
 0.66299995E+02 -0.26247E+04
 0.66349998E+02 -0.16078E+04
 0.66399994E+02 -0.66520E+03
 0.66449997E+02  0.45400E+03
 0.66499992E+02  0.11218E+04
 0.66549995E+02  0.13756E+04
 0.66599998E+02  0.17502E+04
 0.66649994E+02  0.36855E+03
 0.66699997E+02  0.39538E+03
 0.66749992E+02 -0.20082E+03
 0.66799995E+02 -0.10404E+04
 0.66849998E+02 -0.10789E+04
 0.66899994E+02 -0.24760E+04
 0.66949997E+02 -0.23788E+04
 0.66999992E+02 -0.21209E+04
 0.67049995E+02 -0.91244E+02
 0.67099998E+02  0.18947E+04
 0.67149994E+02  0.22940E+04
 0.67199997E+02  0.22251E+04
 0.67249992E+02  0.15599E+04
 0.67299995E+02  0.11167E+04
 0.67349998E+02 -0.23538E+03
 0.67399994E+02 -0.18218E+04
 0.67449997E+02 -0.19392E+04
 0.67499992E+02  0.42066E+02
 0.67549995E+02  0.13389E+04
 0.67599998E+02  0.20701E+04
 0.67649994E+02  0.18335E+04
 0.67699997E+02  0.11894E+04
 0.67749992E+02  0.71062E+03
 0.67799995E+02  0.18411E+03
 0.67849998E+02  0.61801E+03
 0.67899994E+02  0.13893E+02
 0.67949997E+02  0.10824E+04
 0.67999992E+02  0.21322E+04
 0.68049995E+02  0.18754E+04
 0.68099998E+02  0.28767E+03
 0.68149994E+02 -0.25009E+04
 0.68199997E+02 -0.30628E+04
 0.68249992E+02 -0.22431E+04
 0.68299995E+02 -0.10608E+04
 0.68349998E+02 -0.22633E+03
 0.68399994E+02  0.62008E+03
 0.68449997E+02  0.10041E+04
 0.68499992E+02  0.22011E+03
 0.68549995E+02 -0.65635E+03
 0.68599998E+02 -0.10648E+04
 0.68649994E+02 -0.11288E+04
 0.68699997E+02 -0.30002E+03
 0.68749992E+02  0.94165E+03
 0.68799995E+02  0.15295E+04
 0.68849998E+02  0.12018E+04
 0.68899994E+02  0.10007E+04
 0.68949997E+02  0.71090E+03
 0.68999992E+02 -0.39402E+02
 0.69049995E+02 -0.87403E+03
 0.69099998E+02 -0.14024E+04
 0.69149994E+02 -0.76689E+03
 0.69199997E+02 -0.86308E+02
 0.69249992E+02 -0.48818E+03
 0.69299995E+02 -0.53556E+03
 0.69349998E+02 -0.10676E+04
 0.69399994E+02 -0.11068E+04
 0.69449997E+02 -0.66504E+03
 0.69499992E+02 -0.69318E+03
 0.69549995E+02  0.14250E+03
 0.69599998E+02  0.58259E+03
 0.69649994E+02  0.75804E+03
 0.69699997E+02  0.27715E+03
 0.69749992E+02 -0.21679E+03
 0.69799995E+02 -0.58437E+03
 0.69849998E+02 -0.56394E+03
 0.69899994E+02 -0.48021E+03
 0.69949997E+02 -0.18967E+03
 0.69999992E+02  0.69499E+03
 0.70049995E+02  0.13765E+04
 0.70099998E+02  0.13611E+04
 0.70149994E+02  0.41649E+03
 0.70199997E+02 -0.30431E+03
 0.70249992E+02 -0.54138E+03
 0.70299995E+02 -0.20138E+03
 0.70349998E+02  0.47464E+02
 0.70399994E+02  0.53345E+03
 0.70449997E+02  0.10805E+04
 0.70499992E+02  0.60920E+03
 0.70549995E+02  0.87969E+03
 0.70599998E+02  0.55384E+02
 0.70649994E+02 -0.49904E+03
 0.70699997E+02 -0.24242E+03
 0.70749992E+02 -0.35312E+03
 0.70799995E+02  0.59949E+03
 0.70849998E+02 -0.52244E+02
 0.70899994E+02 -0.96544E+03
 0.70949997E+02 -0.17123E+04
 0.70999992E+02 -0.16519E+04
 0.71049995E+02 -0.12263E+04
 0.71099998E+02 -0.16623E+04
 0.71149994E+02 -0.15440E+04
 0.71199997E+02 -0.13676E+04
 0.71249992E+02  0.29811E+02
 0.71299995E+02  0.14049E+04
 0.71349998E+02  0.21390E+04
 0.71399994E+02  0.21639E+04
 0.71449997E+02  0.15669E+04
 0.71499992E+02  0.20828E+04
 0.71549995E+02  0.24268E+04
 0.71599998E+02  0.27224E+04
 0.71649994E+02  0.19313E+04
 0.71699997E+02  0.64974E+03
 0.71749992E+02 -0.23287E+03
 0.71799995E+02 -0.16160E+04
 0.71849998E+02 -0.19541E+04
 0.71899994E+02 -0.15145E+04
 0.71949997E+02 -0.10481E+04
 0.71999992E+02 -0.32337E+03
 0.72049995E+02 -0.36990E+03
 0.72099998E+02 -0.12158E+04
 0.72149994E+02 -0.14070E+04
 0.72199997E+02 -0.19199E+04
 0.72249992E+02 -0.23323E+04
 0.72299995E+02 -0.95813E+03
 0.72349998E+02  0.17644E+04
 0.72399994E+02  0.36170E+04
 0.72449997E+02  0.27376E+04
 0.72499992E+02 -0.22134E+02
 0.72549995E+02 -0.24397E+04
 0.72599998E+02 -0.31756E+04
 0.72649994E+02 -0.30459E+04
 0.72699997E+02 -0.21734E+04
 0.72749992E+02 -0.24683E+03
 0.72799995E+02  0.11638E+04
 0.72849998E+02  0.19959E+04
 0.72899994E+02  0.24266E+04
 0.72949997E+02  0.26381E+04
 0.72999992E+02  0.23774E+04
 0.73049995E+02  0.18392E+04
 0.73099998E+02  0.78102E+03
 0.73149994E+02 -0.58915E+03
 0.73199997E+02 -0.62365E+03
 0.73249992E+02 -0.81247E+03
 0.73299995E+02 -0.63147E+03
 0.73349998E+02  0.73825E+02
 0.73399994E+02 -0.47138E+02
 0.73449997E+02 -0.38437E+03
 0.73499992E+02 -0.79635E+03
 0.73549995E+02 -0.98082E+03
 0.73599998E+02 -0.57667E+03
 0.73649994E+02 -0.42633E+03
 0.73699997E+02 -0.21514E+03
 0.73749992E+02 -0.21117E+03
 0.73799995E+02 -0.56027E+03
 0.73849998E+02 -0.10814E+04
 0.73899994E+02 -0.14664E+04
 0.73949997E+02 -0.12335E+04
 0.73999992E+02 -0.86925E+03
 0.74049995E+02 -0.59701E+02
 0.74099998E+02  0.35492E+03
 0.74149994E+02  0.12259E+04
 0.74199997E+02  0.13175E+04
 0.74249992E+02  0.99480E+03
 0.74299995E+02  0.14064E+04
 0.74349998E+02  0.85389E+03
 0.74399994E+02  0.96304E+03
 0.74449997E+02  0.13041E+04
 0.74499992E+02  0.22313E+04
 0.74549995E+02  0.21940E+04
 0.74599998E+02  0.77024E+03
 0.74649994E+02 -0.16429E+03
 0.74699997E+02 -0.13165E+04
 0.74749992E+02 -0.12101E+04
 0.74799995E+02 -0.11262E+04
 0.74849998E+02 -0.98601E+03
 0.74899994E+02 -0.81773E+03
 0.74949997E+02 -0.10647E+04
 0.74999992E+02 -0.76434E+03
 0.75049995E+02 -0.45050E+03
 0.75099998E+02 -0.59390E+03
 0.75149994E+02 -0.91638E+03
 0.75199997E+02 -0.92258E+03
 0.75249992E+02 -0.49083E+03
 0.75299995E+02  0.35295E+02
 0.75349998E+02  0.55502E+03
 0.75399994E+02  0.18128E+04
 0.75449997E+02  0.22821E+04
 0.75499992E+02  0.22765E+04
 0.75549995E+02  0.13356E+04
 0.75599998E+02  0.37652E+03
 0.75649994E+02 -0.24119E+02
 0.75699997E+02 -0.59438E+02
 0.75749992E+02  0.58741E+03
 0.75799995E+02  0.37436E+03
 0.75849998E+02  0.47060E+03
 0.75899994E+02 -0.28557E+03
 0.75949997E+02 -0.83919E+03
 0.75999992E+02 -0.15637E+04
 0.76049995E+02 -0.24786E+04
 0.76099998E+02 -0.21049E+04
 0.76149994E+02 -0.20094E+04
 0.76199997E+02 -0.13305E+04
 0.76249992E+02 -0.76566E+03
 0.76299995E+02 -0.28617E+03
 0.76349998E+02  0.51555E+03
 0.76399994E+02  0.69238E+03
 0.76449997E+02  0.37243E+03
 0.76499992E+02  0.30576E+03
 0.76549995E+02  0.26035E+03
 0.76599998E+02  0.11459E+03
 0.76649994E+02 -0.27228E+03
 0.76699997E+02  0.21426E+03
 0.76749992E+02  0.86043E+03
 0.76799995E+02  0.11967E+04
 0.76849998E+02  0.19720E+04
 0.76899994E+02  0.17612E+04
 0.76949997E+02  0.16493E+04
 0.76999992E+02  0.86679E+03
 0.77049995E+02  0.41997E+03
 0.77099998E+02  0.27890E+03
 0.77149994E+02 -0.20021E+03
 0.77199997E+02 -0.21295E+03
 0.77249992E+02 -0.58825E+03
 0.77299995E+02 -0.46595E+03
 0.77349998E+02 -0.25069E+03
 0.77399994E+02 -0.35499E+03
 0.77449997E+02 -0.97964E+03
 0.77499992E+02 -0.12534E+04
 0.77549995E+02 -0.11051E+04
 0.77599998E+02 -0.60521E+03
 0.77649994E+02  0.23983E+02
 0.77699997E+02  0.20402E+03
 0.77749992E+02  0.44363E+02
 0.77799995E+02 -0.29295E+03
 0.77849998E+02 -0.48146E+03
 0.77899994E+02 -0.33567E+03
 0.77949997E+02  0.23453E+03
 0.77999992E+02  0.31068E+03
 0.78049995E+02  0.82968E+03
 0.78099998E+02  0.14090E+04
 0.78149994E+02  0.12506E+04
 0.78199997E+02  0.82379E+03
 0.78249992E+02 -0.19515E+02
 0.78299995E+02 -0.35539E+03
 0.78349998E+02 -0.63861E+03
 0.78399994E+02 -0.53931E+03
 0.78449997E+02 -0.56456E+02
 0.78499992E+02  0.29876E+03
 0.78549995E+02  0.50277E+03
 0.78599998E+02  0.24876E+03
 0.78649994E+02  0.28967E+02
 0.78699997E+02 -0.57060E+03
 0.78749992E+02 -0.63826E+03
 0.78799995E+02 -0.61835E+03
 0.78849998E+02 -0.73019E+03
 0.78899994E+02 -0.58008E+03
 0.78949997E+02 -0.41201E+03
 0.78999992E+02  0.25519E+03
 0.79049995E+02  0.40477E+03
 0.79099998E+02  0.33691E+03
 0.79149994E+02  0.42564E+03
 0.79199997E+02  0.53261E+03
 0.79249992E+02  0.83213E+03
 0.79299995E+02  0.87665E+03
 0.79349998E+02  0.80940E+03
 0.79399994E+02  0.99936E+02
 0.79449997E+02 -0.61084E+03
 0.79499992E+02 -0.73173E+03
 0.79549995E+02 -0.63273E+03
 0.79599998E+02  0.25390E+03
 0.79649994E+02  0.52545E+03
 0.79699997E+02  0.50037E+03
 0.79749992E+02  0.55302E+03
 0.79799995E+02  0.49744E+03
 0.79849998E+02  0.72689E+03
 0.79899994E+02  0.40051E+03
 0.79949997E+02  0.28901E+03
 0.79999992E+02 -0.27233E+03
 0.80049995E+02 -0.84686E+03
 0.80099998E+02 -0.11416E+04
 0.80149994E+02 -0.13264E+04
 0.80199997E+02 -0.82671E+03
 0.80249992E+02 -0.49149E+03
 0.80299995E+02 -0.76769E+02
 0.80349998E+02 -0.16594E+03
 0.80399994E+02 -0.33719E+03
 0.80449997E+02 -0.28195E+03
 0.80499992E+02 -0.42047E+03
 0.80549995E+02 -0.15764E+03
 0.80599998E+02  0.49183E+03
 0.80649994E+02  0.11433E+04
 0.80699997E+02  0.17221E+04
 0.80749992E+02  0.18457E+04
 0.80799995E+02  0.16339E+04
 0.80849998E+02  0.10807E+04
 0.80899994E+02  0.30008E+03
 0.80949997E+02 -0.16533E+03
 0.80999992E+02 -0.60110E+03
 0.81049995E+02 -0.61705E+03
 0.81099998E+02 -0.81837E+03
 0.81149994E+02 -0.13342E+04
 0.81199997E+02 -0.19663E+04
 0.81249992E+02 -0.23890E+04
 0.81299995E+02 -0.21994E+04
 0.81349998E+02 -0.15782E+04
 0.81399994E+02 -0.30935E+03
 0.81449997E+02  0.81615E+03
 0.81499992E+02  0.18212E+04
 0.81549995E+02  0.20509E+04
 0.81599998E+02  0.17018E+04
 0.81649994E+02  0.11170E+04
 0.81699997E+02  0.95610E+02
 0.81749992E+02 -0.27977E+03
 0.81799995E+02 -0.65628E+03
 0.81849998E+02 -0.86010E+03
 0.81899994E+02 -0.60886E+03
 0.81949997E+02 -0.24974E+03
 0.81999992E+02 -0.54989E+02
 0.82049995E+02 -0.24993E+03
 0.82099998E+02 -0.57078E+03
 0.82149994E+02 -0.68133E+03
 0.82199997E+02 -0.28073E+03
 0.82249992E+02  0.71067E+02
 0.82299995E+02  0.61205E+03
 0.82349998E+02  0.11411E+04
 0.82399994E+02  0.14122E+04
 0.82449997E+02  0.14077E+04
 0.82499992E+02  0.93761E+03
 0.82549995E+02  0.47325E+03
 0.82599998E+02 -0.35436E+03
 0.82649994E+02 -0.61147E+03
 0.82699997E+02 -0.21540E+03
 0.82749992E+02  0.14266E+03
 0.82799995E+02  0.17561E+03
 0.82849998E+02 -0.43225E+03
 0.82899994E+02 -0.97888E+03
 0.82949997E+02 -0.14299E+04
 0.82999992E+02 -0.15844E+04
 0.83049995E+02 -0.13917E+04
 0.83099998E+02 -0.85202E+03
 0.83149994E+02 -0.25199E+03
 0.83199997E+02  0.12147E+03
 0.83249992E+02  0.44686E+03
 0.83299995E+02  0.48395E+03
 0.83349998E+02  0.33388E+03
 0.83399994E+02  0.56561E+03
 0.83449997E+02  0.63578E+03
 0.83499992E+02  0.40372E+03
 0.83549995E+02  0.64525E+02
 0.83599998E+02 -0.39038E+03
 0.83649994E+02 -0.56491E+03
 0.83699997E+02 -0.86899E+03
 0.83749992E+02 -0.95591E+03
 0.83799995E+02 -0.84479E+03
 0.83849998E+02 -0.69193E+03
 0.83899994E+02 -0.49357E+03
 0.83949997E+02 -0.33276E+03
 0.83999992E+02  0.37703E+03
 0.84049995E+02  0.98622E+03
 0.84099998E+02  0.13863E+04
 0.84149994E+02  0.18142E+04
 0.84199997E+02  0.13680E+04
 0.84249992E+02  0.82746E+03
 0.84299995E+02  0.47438E+03
 0.84349998E+02  0.30188E+03
 0.84399994E+02  0.28483E+03
 0.84449997E+02 -0.31735E+03
 0.84499992E+02 -0.65003E+03
 0.84549995E+02 -0.10060E+04
 0.84599998E+02 -0.84438E+03
 0.84649994E+02 -0.38994E+03
 0.84699997E+02 -0.28694E+03
 0.84749992E+02  0.42223E+01
 0.84799995E+02 -0.19953E+03
 0.84849998E+02 -0.39696E+03
 0.84899994E+02 -0.51703E+03
 0.84949997E+02 -0.40156E+03
 0.84999992E+02 -0.24672E+03
 0.85049995E+02 -0.32171E+03
 0.85099998E+02 -0.50373E+02
 0.85149994E+02  0.17924E+03
 0.85199997E+02  0.36935E+03
 0.85249992E+02  0.19612E+03
 0.85299995E+02 -0.48814E+02
 0.85349998E+02 -0.77347E+01
 0.85399994E+02  0.34330E+03
 0.85449997E+02  0.90181E+03
 0.85499992E+02  0.10638E+04
 0.85549995E+02  0.10155E+04
 0.85599998E+02  0.53050E+03
 0.85649994E+02  0.11192E+03
 0.85699997E+02 -0.17622E+03
 0.85749992E+02 -0.40593E+03
 0.85799995E+02 -0.23500E+03
 0.85849998E+02 -0.23413E+03
 0.85899994E+02 -0.18945E+03
 0.85949997E+02 -0.23498E+03
 0.85999992E+02 -0.52638E+03
 0.86049995E+02 -0.74639E+03
 0.86099998E+02 -0.83386E+03
 0.86149994E+02 -0.67448E+03
 0.86199997E+02 -0.55040E+03
 0.86249992E+02 -0.21952E+03
 0.86299995E+02  0.77596E+01
 0.86349998E+02  0.17716E+03
 0.86399994E+02  0.48419E+03
 0.86449997E+02  0.64486E+03
 0.86499992E+02  0.93376E+03
 0.86549995E+02  0.11029E+04
 0.86599998E+02  0.12042E+04
 0.86649994E+02  0.98111E+03
 0.86699997E+02  0.49744E+03
 0.86749992E+02 -0.16519E+03
 0.86799995E+02 -0.75452E+03
 0.86849998E+02 -0.85748E+03
 0.86899994E+02 -0.72599E+03
 0.86949997E+02 -0.40628E+03
 0.86999992E+02 -0.18848E+03
 0.87049995E+02  0.24345E+02
 0.87099998E+02 -0.17973E+02
 0.87149994E+02 -0.25832E+03
 0.87199997E+02 -0.50807E+03
 0.87249992E+02 -0.79258E+03
 0.87299995E+02 -0.69586E+03
 0.87349998E+02 -0.36046E+03
 0.87399994E+02  0.55489E+02
 0.87449997E+02  0.35280E+03
 0.87499992E+02  0.62261E+03
 0.87549995E+02  0.66173E+03
 0.87599991E+02  0.54037E+03
 0.87649994E+02  0.43226E+03
 0.87699997E+02  0.86553E+02
 0.87749992E+02 -0.62026E+02
 0.87799995E+02 -0.21498E+01
 0.87849991E+02  0.18409E+03
 0.87899994E+02  0.26655E+03
 0.87949997E+02  0.19340E+03
 0.87999992E+02  0.15246E+03
 0.88049995E+02  0.19824E+03
 0.88099991E+02  0.41512E+03
 0.88149994E+02  0.46291E+03
 0.88199997E+02  0.38300E+03
 0.88249992E+02  0.27297E+03
 0.88299995E+02  0.59381E+02
 0.88349991E+02 -0.17684E+03
 0.88399994E+02 -0.44267E+03
 0.88449997E+02 -0.64999E+03
 0.88499992E+02 -0.49811E+03
 0.88549995E+02 -0.50616E+03
 0.88599991E+02 -0.26145E+03
 0.88649994E+02  0.10273E+03
 0.88699997E+02  0.26467E+03
 0.88749992E+02  0.72079E+03
 0.88799995E+02  0.72860E+03
 0.88849991E+02  0.79211E+03
 0.88899994E+02  0.75874E+03
 0.88949997E+02  0.62975E+03
 0.88999992E+02  0.39754E+03
 0.89049995E+02 -0.47492E+02
 0.89099991E+02 -0.25079E+03
 0.89149994E+02 -0.43779E+03
 0.89199997E+02 -0.32068E+03
 0.89249992E+02 -0.34964E+03
 0.89299995E+02 -0.46300E+03
 0.89349991E+02 -0.53596E+03
 0.89399994E+02 -0.74903E+03
 0.89449997E+02 -0.65306E+03
 0.89499992E+02 -0.37597E+03
 0.89549995E+02 -0.26146E+02
 0.89599991E+02  0.37224E+03
 0.89649994E+02  0.62402E+03
 0.89699997E+02  0.58576E+03
 0.89749992E+02  0.30919E+03
 0.89799995E+02 -0.56541E+01
 0.89849991E+02 -0.20022E+03
 0.89899994E+02 -0.58664E+02
 0.89949997E+02  0.20942E+03
 0.89999992E+02  0.31106E+03
 0.90049995E+02  0.31816E+03
 0.90099991E+02  0.12714E+03
 0.90149994E+02 -0.24649E+03
 0.90199997E+02 -0.64025E+03
 0.90249992E+02 -0.96713E+03
 0.90299995E+02 -0.86670E+03
 0.90349991E+02 -0.60797E+03
 0.90399994E+02 -0.35607E+03
 0.90449997E+02  0.15328E+02
 0.90499992E+02  0.38309E+03
 0.90549995E+02  0.87742E+03
 0.90599991E+02  0.11211E+04
 0.90649994E+02  0.10666E+04
 0.90699997E+02  0.72985E+03
 0.90749992E+02  0.26214E+03
 0.90799995E+02 -0.10290E+03
 0.90849991E+02 -0.46296E+03
 0.90899994E+02 -0.68340E+03
 0.90949997E+02 -0.76219E+03
 0.90999992E+02 -0.44119E+03
 0.91049995E+02 -0.68516E+02
 0.91099991E+02  0.28794E+03
 0.91149994E+02  0.58321E+03
 0.91199997E+02  0.66448E+03
 0.91249992E+02  0.50971E+03
 0.91299995E+02  0.91614E+01
 0.91349991E+02 -0.50359E+03
 0.91399994E+02 -0.92053E+03
 0.91449997E+02 -0.10011E+04
 0.91499992E+02 -0.89881E+03
 0.91549995E+02 -0.49167E+03
 0.91599991E+02  0.61609E+02
 0.91649994E+02  0.36435E+03
 0.91699997E+02  0.46577E+03
 0.91749992E+02  0.16806E+03
 0.91799995E+02 -0.17240E+03
 0.91849991E+02 -0.38134E+03
 0.91899994E+02 -0.43097E+03
 0.91949997E+02 -0.39360E+03
 0.91999992E+02 -0.50161E+03
 0.92049995E+02 -0.42274E+03
 0.92099991E+02 -0.26938E+03
 0.92149994E+02  0.20851E+02
 0.92199997E+02  0.22926E+03
 0.92249992E+02  0.42077E+03
 0.92299995E+02  0.70672E+03
 0.92349991E+02  0.58837E+03
 0.92399994E+02  0.63738E+03
 0.92449997E+02  0.49164E+03
 0.92499992E+02  0.27857E+03
 0.92549995E+02  0.20275E+03
 0.92599991E+02  0.24569E+02
 0.92649994E+02  0.81728E+02
 0.92699997E+02 -0.94234E+02
 0.92749992E+02 -0.34437E+03
 0.92799995E+02 -0.51495E+03
 0.92849991E+02 -0.49694E+03
 0.92899994E+02 -0.41911E+03
 0.92949997E+02 -0.17441E+03
 0.92999992E+02  0.37226E+03
 0.93049995E+02  0.82044E+03
 0.93099991E+02  0.11261E+04
 0.93149994E+02  0.83824E+03
 0.93199997E+02  0.20513E+03
 0.93249992E+02 -0.42331E+03
 0.93299995E+02 -0.86485E+03
 0.93349991E+02 -0.87510E+03
 0.93399994E+02 -0.75915E+03
 0.93449997E+02 -0.54511E+03
 0.93499992E+02 -0.29592E+03
 0.93549995E+02 -0.17393E+03
 0.93599991E+02 -0.30507E+03
 0.93649994E+02 -0.54683E+03
 0.93699997E+02 -0.76264E+03
 0.93749992E+02 -0.74227E+03
 0.93799995E+02 -0.29449E+03
 0.93849991E+02  0.30094E+03
 0.93899994E+02  0.93377E+03
 0.93949997E+02  0.13544E+04
 0.93999992E+02  0.14340E+04
 0.94049995E+02  0.12161E+04
 0.94099991E+02  0.84023E+03
 0.94149994E+02  0.41860E+03
 0.94199997E+02  0.63577E+02
 0.94249992E+02 -0.27967E+03
 0.94299995E+02 -0.60977E+03
 0.94349991E+02 -0.90255E+03
 0.94399994E+02 -0.11533E+04
 0.94449997E+02 -0.12040E+04
 0.94499992E+02 -0.10370E+04
 0.94549995E+02 -0.55948E+03
 0.94599991E+02 -0.15914E+03
 0.94649994E+02  0.19879E+03
 0.94699997E+02  0.44592E+03
 0.94749992E+02  0.54713E+03
 0.94799995E+02  0.58686E+03
 0.94849991E+02  0.56892E+03
 0.94899994E+02  0.67326E+03
 0.94949997E+02  0.64429E+03
 0.94999992E+02  0.52466E+03
 0.95049995E+02  0.41150E+03
 0.95099991E+02  0.33854E+03
 0.95149994E+02  0.28379E+03
 0.95199997E+02  0.19545E+03
 0.95249992E+02 -0.74260E+02
 0.95299995E+02 -0.23062E+03
 0.95349991E+02 -0.23219E+03
 0.95399994E+02 -0.23095E+03
 0.95449997E+02 -0.13038E+03
 0.95499992E+02 -0.22010E+03
 0.95549995E+02 -0.28765E+03
 0.95599991E+02 -0.33786E+03
 0.95649994E+02 -0.27946E+03
 0.95699997E+02  0.70920E+01
 0.95749992E+02  0.20599E+03
 0.95799995E+02  0.33908E+03
 0.95849991E+02  0.28235E+03
 0.95899994E+02  0.21915E+03
 0.95949997E+02  0.97251E+02
 0.95999992E+02 -0.84211E+02
 0.96049995E+02 -0.16993E+03
 0.96099991E+02 -0.17198E+03
 0.96149994E+02  0.16765E+03
 0.96199997E+02  0.45339E+03
 0.96249992E+02  0.62903E+03
 0.96299995E+02  0.73893E+03
 0.96349991E+02  0.78532E+03
 0.96399994E+02  0.93634E+03
 0.96449997E+02  0.95050E+03
 0.96499992E+02  0.71130E+03
 0.96549995E+02  0.26004E+03
 0.96599991E+02 -0.20669E+03
 0.96649994E+02 -0.68202E+03
 0.96699997E+02 -0.11261E+04
 0.96749992E+02 -0.14237E+04
 0.96799995E+02 -0.14005E+04
 0.96849991E+02 -0.12664E+04
 0.96899994E+02 -0.10158E+04
 0.96949997E+02 -0.70532E+03
 0.96999992E+02 -0.55913E+03
 0.97049995E+02 -0.29010E+03
 0.97099991E+02 -0.12619E+01
 0.97149994E+02  0.38564E+03
 0.97199997E+02  0.65720E+03
 0.97249992E+02  0.86835E+03
 0.97299995E+02  0.10875E+04
 0.97349991E+02  0.11834E+04
 0.97399994E+02  0.10462E+04
 0.97449997E+02  0.58211E+03
 0.97499992E+02  0.11574E+03
 0.97549995E+02 -0.31892E+03
 0.97599991E+02 -0.48529E+03
 0.97649994E+02 -0.49055E+03
 0.97699997E+02 -0.42487E+03
 0.97749992E+02 -0.36441E+03
 0.97799995E+02 -0.49090E+03
 0.97849991E+02 -0.54404E+03
 0.97899994E+02 -0.55917E+03
 0.97949997E+02 -0.48230E+03
 0.97999992E+02 -0.37295E+03
