-0.20000000E+01  0.51713E+04
-0.19500000E+01  0.39454E+04
-0.19000000E+01  0.26897E+04
-0.18500000E+01  0.13799E+04
-0.18000000E+01  0.17122E+03
-0.17500000E+01 -0.84294E+03
-0.17000000E+01 -0.17572E+04
-0.16500001E+01 -0.26765E+04
-0.16000000E+01 -0.36911E+04
-0.15500000E+01 -0.47023E+04
-0.15000000E+01 -0.55391E+04
-0.14500000E+01 -0.62197E+04
-0.14000001E+01 -0.69385E+04
-0.13500000E+01 -0.78177E+04
-0.13000001E+01 -0.88244E+04
-0.12500000E+01 -0.99888E+04
-0.12000000E+01 -0.11291E+05
-0.11500001E+01 -0.12665E+05
-0.11000000E+01 -0.13930E+05
-0.10500001E+01 -0.14862E+05
-0.10000000E+01 -0.15391E+05
-0.95000005E+00 -0.15503E+05
-0.90000010E+00 -0.15311E+05
-0.85000002E+00 -0.14889E+05
-0.80000007E+00 -0.14221E+05
-0.75000012E+00 -0.13285E+05
-0.70000005E+00 -0.12155E+05
-0.65000010E+00 -0.10801E+05
-0.60000014E+00 -0.91438E+04
-0.55000007E+00 -0.74070E+04
-0.50000012E+00 -0.58449E+04
-0.45000005E+00 -0.45116E+04
-0.40000010E+00 -0.33274E+04
-0.35000014E+00 -0.22557E+04
-0.30000007E+00 -0.13711E+04
-0.25000012E+00 -0.76238E+03
-0.20000005E+00 -0.25334E+03
-0.15000010E+00  0.31311E+03
-0.10000014E+00  0.93397E+03
-0.50000072E-01  0.15867E+04
-0.11920929E-06  0.22278E+04
 0.49999952E-01  0.28270E+04
 0.99999905E-01  0.33156E+04
 0.14999986E+00  0.36247E+04
 0.19999981E+00  0.37301E+04
 0.24999976E+00  0.36810E+04
 0.29999995E+00  0.33366E+04
 0.34999990E+00  0.26441E+04
 0.39999986E+00  0.16910E+04
 0.44999981E+00  0.41837E+03
 0.49999976E+00 -0.12862E+04
 0.54999995E+00 -0.33387E+04
 0.59999990E+00 -0.55149E+04
 0.64999986E+00 -0.79199E+04
 0.69999981E+00 -0.10617E+05
 0.74999976E+00 -0.13372E+05
 0.79999971E+00 -0.16049E+05
 0.84999990E+00 -0.18693E+05
 0.89999986E+00 -0.21274E+05
 0.94999981E+00 -0.23600E+05
 0.99999976E+00 -0.25376E+05
 0.10499997E+01 -0.26447E+05
 0.10999999E+01 -0.26931E+05
 0.11499999E+01 -0.26817E+05
 0.11999998E+01 -0.26023E+05
 0.12499998E+01 -0.24590E+05
 0.12999997E+01 -0.22418E+05
 0.13499999E+01 -0.19405E+05
 0.13999999E+01 -0.15706E+05
 0.14499998E+01 -0.11529E+05
 0.14999998E+01 -0.71209E+04
 0.15499997E+01 -0.27319E+04
 0.15999999E+01  0.15249E+04
 0.16499999E+01  0.55497E+04
 0.16999998E+01  0.93350E+04
 0.17499998E+01  0.12818E+05
 0.17999997E+01  0.15856E+05
 0.18499997E+01  0.18427E+05
 0.18999999E+01  0.20495E+05
 0.19499998E+01  0.22023E+05
 0.19999998E+01  0.23031E+05
 0.20499997E+01  0.23487E+05
 0.20999999E+01  0.23493E+05
 0.21499996E+01  0.23251E+05
 0.21999998E+01  0.22863E+05
 0.22499995E+01  0.22149E+05
 0.22999997E+01  0.21003E+05
 0.23499999E+01  0.19622E+05
 0.23999996E+01  0.18109E+05
 0.24499998E+01  0.16561E+05
 0.24999995E+01  0.15170E+05
 0.25499997E+01  0.14001E+05
 0.25999999E+01  0.13011E+05
 0.26499996E+01  0.12228E+05
 0.26999998E+01  0.11524E+05
 0.27499995E+01  0.10849E+05
 0.27999997E+01  0.10283E+05
 0.28499999E+01  0.96623E+04
 0.28999996E+01  0.87500E+04
 0.29499998E+01  0.75960E+04
 0.29999995E+01  0.64015E+04
 0.30499997E+01  0.51907E+04
 0.30999999E+01  0.38482E+04
 0.31499996E+01  0.22873E+04
 0.31999998E+01  0.59805E+03
 0.32499995E+01 -0.10456E+04
 0.32999997E+01 -0.27369E+04
 0.33499999E+01 -0.45068E+04
 0.33999996E+01 -0.61882E+04
 0.34499998E+01 -0.77531E+04
 0.34999995E+01 -0.92724E+04
 0.35499997E+01 -0.10693E+05
 0.35999994E+01 -0.11938E+05
 0.36499996E+01 -0.13156E+05
 0.36999998E+01 -0.14447E+05
 0.37499995E+01 -0.15843E+05
 0.37999997E+01 -0.17096E+05
 0.38499994E+01 -0.17961E+05
 0.38999996E+01 -0.18466E+05
 0.39499998E+01 -0.18918E+05
 0.39999995E+01 -0.19623E+05
 0.40499997E+01 -0.20510E+05
 0.40999994E+01 -0.21471E+05
 0.41499996E+01 -0.22354E+05
 0.41999998E+01 -0.22989E+05
 0.42499995E+01 -0.23346E+05
 0.42999997E+01 -0.23416E+05
 0.43499994E+01 -0.23077E+05
 0.43999996E+01 -0.22201E+05
 0.44499998E+01 -0.20758E+05
 0.44999995E+01 -0.18738E+05
 0.45499997E+01 -0.16113E+05
 0.45999994E+01 -0.12807E+05
 0.46499996E+01 -0.89406E+04
 0.46999998E+01 -0.47941E+04
 0.47499995E+01 -0.46416E+03
 0.47999997E+01  0.38210E+04
 0.48499994E+01  0.78493E+04
 0.48999996E+01  0.11586E+05
 0.49499998E+01  0.14814E+05
 0.49999995E+01  0.17440E+05
 0.50499997E+01  0.19616E+05
 0.50999994E+01  0.21319E+05
 0.51499996E+01  0.22502E+05
 0.51999998E+01  0.23177E+05
 0.52499995E+01  0.23358E+05
 0.52999997E+01  0.23224E+05
 0.53499994E+01  0.22767E+05
 0.53999996E+01  0.21944E+05
 0.54499993E+01  0.20742E+05
 0.54999995E+01  0.19142E+05
 0.55499997E+01  0.17330E+05
 0.55999994E+01  0.15421E+05
 0.56499996E+01  0.13374E+05
 0.56999993E+01  0.11069E+05
 0.57499995E+01  0.84222E+04
 0.57999997E+01  0.55077E+04
 0.58499994E+01  0.24277E+04
 0.58999996E+01 -0.79838E+03
 0.59499993E+01 -0.41762E+04
 0.59999995E+01 -0.76822E+04
 0.60499992E+01 -0.11041E+05
 0.60999994E+01 -0.14041E+05
 0.61499996E+01 -0.16695E+05
 0.61999998E+01 -0.19115E+05
 0.62499990E+01 -0.21329E+05
 0.62999992E+01 -0.23193E+05
 0.63499994E+01 -0.24478E+05
 0.63999996E+01 -0.25128E+05
 0.64499998E+01 -0.25076E+05
 0.64999990E+01 -0.24222E+05
 0.65499992E+01 -0.22649E+05
 0.65999994E+01 -0.20494E+05
 0.66499996E+01 -0.17783E+05
 0.66999998E+01 -0.14557E+05
 0.67499990E+01 -0.10909E+05
 0.67999992E+01 -0.68913E+04
 0.68499994E+01 -0.27015E+04
 0.68999996E+01  0.14781E+04
 0.69499998E+01  0.54469E+04
 0.69999990E+01  0.93068E+04
 0.70499992E+01  0.13063E+05
 0.70999994E+01  0.16474E+05
 0.71499996E+01  0.19303E+05
 0.71999998E+01  0.21642E+05
 0.72499990E+01  0.23707E+05
 0.72999992E+01  0.25333E+05
 0.73499994E+01  0.26276E+05
 0.73999996E+01  0.26399E+05
 0.74499998E+01  0.25911E+05
 0.74999990E+01  0.24929E+05
 0.75499992E+01  0.23227E+05
 0.75999994E+01  0.20708E+05
 0.76499996E+01  0.17572E+05
 0.76999998E+01  0.14054E+05
 0.77499990E+01  0.10398E+05
 0.77999992E+01  0.69286E+04
 0.78499994E+01  0.38978E+04
 0.78999996E+01  0.14092E+04
 0.79499998E+01 -0.60988E+03
 0.79999990E+01 -0.22235E+04
 0.80499992E+01 -0.32663E+04
 0.80999994E+01 -0.35592E+04
 0.81499996E+01 -0.31099E+04
 0.81999998E+01 -0.19574E+04
 0.82499990E+01 -0.10132E+03
 0.82999992E+01  0.22957E+04
 0.83499994E+01  0.50801E+04
 0.83999996E+01  0.81807E+04
 0.84499998E+01  0.11352E+05
 0.84999990E+01  0.14355E+05
 0.85499992E+01  0.17063E+05
 0.85999994E+01  0.19353E+05
 0.86499996E+01  0.21082E+05
 0.86999998E+01  0.22053E+05
 0.87499990E+01  0.22188E+05
 0.87999992E+01  0.21491E+05
 0.88499994E+01  0.20024E+05
 0.88999996E+01  0.18055E+05
 0.89499998E+01  0.15815E+05
 0.89999990E+01  0.13306E+05
 0.90499992E+01  0.10417E+05
 0.90999994E+01  0.70751E+04
 0.91499996E+01  0.34015E+04
 0.91999989E+01 -0.45339E+03
 0.92499990E+01 -0.44386E+04
 0.92999992E+01 -0.85267E+04
 0.93499994E+01 -0.12812E+05
 0.93999996E+01 -0.17339E+05
 0.94499989E+01 -0.21907E+05
 0.94999990E+01 -0.26089E+05
 0.95499992E+01 -0.29621E+05
 0.95999994E+01 -0.32594E+05
 0.96499996E+01 -0.35101E+05
 0.96999989E+01 -0.36965E+05
 0.97499990E+01 -0.37943E+05
 0.97999992E+01 -0.37939E+05
 0.98499994E+01 -0.37047E+05
 0.98999996E+01 -0.35447E+05
 0.99499989E+01 -0.33218E+05
 0.99999990E+01 -0.30445E+05
 0.10049999E+02 -0.27228E+05
 0.10099999E+02 -0.23650E+05
 0.10150000E+02 -0.19847E+05
 0.10199999E+02 -0.16144E+05
 0.10249999E+02 -0.12908E+05
 0.10299999E+02 -0.10307E+05
 0.10349999E+02 -0.83222E+04
 0.10400000E+02 -0.69857E+04
 0.10449999E+02 -0.62393E+04
 0.10499999E+02 -0.58046E+04
 0.10549999E+02 -0.54965E+04
 0.10599999E+02 -0.50873E+04
 0.10650000E+02 -0.43693E+04
 0.10699999E+02 -0.34286E+04
 0.10749999E+02 -0.23488E+04
 0.10799999E+02 -0.11539E+04
 0.10849999E+02  0.21848E+03
 0.10900000E+02  0.17479E+04
 0.10949999E+02  0.32133E+04
 0.10999999E+02  0.46028E+04
 0.11049999E+02  0.59423E+04
 0.11099999E+02  0.71103E+04
 0.11150000E+02  0.80127E+04
 0.11199999E+02  0.86035E+04
 0.11249999E+02  0.88811E+04
 0.11299999E+02  0.88043E+04
 0.11349999E+02  0.84937E+04
 0.11400000E+02  0.80784E+04
 0.11449999E+02  0.75363E+04
 0.11499999E+02  0.69051E+04
 0.11549999E+02  0.61670E+04
 0.11599999E+02  0.53554E+04
 0.11650000E+02  0.44013E+04
 0.11699999E+02  0.32983E+04
 0.11749999E+02  0.22323E+04
 0.11799999E+02  0.13403E+04
 0.11849999E+02  0.62751E+03
 0.11900000E+02  0.41007E+02
 0.11949999E+02 -0.48692E+03
 0.11999999E+02 -0.85940E+03
 0.12049999E+02 -0.93393E+03
 0.12099999E+02 -0.75717E+03
 0.12150000E+02 -0.40585E+03
 0.12199999E+02  0.20227E+03
 0.12249999E+02  0.11576E+04
 0.12299999E+02  0.23224E+04
 0.12349999E+02  0.36894E+04
 0.12400000E+02  0.52891E+04
 0.12449999E+02  0.70379E+04
 0.12499999E+02  0.88358E+04
 0.12549999E+02  0.10605E+05
 0.12599999E+02  0.12187E+05
 0.12649999E+02  0.13598E+05
 0.12699999E+02  0.14815E+05
 0.12749999E+02  0.15660E+05
 0.12799999E+02  0.16008E+05
 0.12849999E+02  0.15908E+05
 0.12899999E+02  0.15673E+05
 0.12949999E+02  0.15312E+05
 0.12999999E+02  0.14741E+05
 0.13049999E+02  0.14040E+05
 0.13099999E+02  0.13220E+05
 0.13149999E+02  0.12213E+05
 0.13199999E+02  0.11123E+05
 0.13249999E+02  0.10041E+05
 0.13299999E+02  0.89830E+04
 0.13349999E+02  0.81009E+04
 0.13399999E+02  0.74635E+04
 0.13449999E+02  0.71813E+04
 0.13499999E+02  0.71663E+04
 0.13549999E+02  0.72604E+04
 0.13599999E+02  0.75210E+04
 0.13649999E+02  0.79154E+04
 0.13699999E+02  0.82294E+04
 0.13749999E+02  0.83709E+04
 0.13799999E+02  0.82880E+04
 0.13849999E+02  0.79201E+04
 0.13899999E+02  0.73027E+04
 0.13949999E+02  0.64260E+04
 0.13999999E+02  0.54154E+04
 0.14049999E+02  0.43042E+04
 0.14099998E+02  0.31399E+04
 0.14150000E+02  0.20909E+04
 0.14199999E+02  0.12538E+04
 0.14249998E+02  0.46856E+03
 0.14299999E+02 -0.36852E+03
 0.14349998E+02 -0.10136E+04
 0.14400000E+02 -0.13132E+04
 0.14449999E+02 -0.13685E+04
 0.14499998E+02 -0.12952E+04
 0.14549999E+02 -0.10951E+04
 0.14599998E+02 -0.75548E+03
 0.14650000E+02 -0.24301E+03
 0.14699999E+02  0.37336E+03
 0.14749998E+02  0.89722E+03
 0.14799999E+02  0.11263E+04
 0.14849998E+02  0.87010E+03
 0.14900000E+02  0.17595E+03
 0.14949999E+02 -0.77928E+03
 0.14999998E+02 -0.18012E+04
 0.15049999E+02 -0.26979E+04
 0.15099998E+02 -0.35791E+04
 0.15150000E+02 -0.45428E+04
 0.15199999E+02 -0.55243E+04
 0.15249998E+02 -0.64275E+04
 0.15299999E+02 -0.71264E+04
 0.15349998E+02 -0.74383E+04
 0.15400000E+02 -0.72940E+04
 0.15449999E+02 -0.67140E+04
 0.15499998E+02 -0.57728E+04
 0.15549999E+02 -0.44955E+04
 0.15599998E+02 -0.28247E+04
 0.15650000E+02 -0.86058E+03
 0.15699999E+02  0.12908E+04
 0.15749998E+02  0.35493E+04
 0.15799999E+02  0.59067E+04
 0.15849998E+02  0.82472E+04
 0.15900000E+02  0.10359E+05
 0.15949999E+02  0.12114E+05
 0.15999998E+02  0.13439E+05
 0.16049999E+02  0.14239E+05
 0.16099998E+02  0.14501E+05
 0.16150000E+02  0.14385E+05
 0.16199999E+02  0.14038E+05
 0.16249998E+02  0.13459E+05
 0.16299999E+02  0.12477E+05
 0.16349998E+02  0.11051E+05
 0.16400000E+02  0.92119E+04
 0.16449999E+02  0.69876E+04
 0.16499998E+02  0.44745E+04
 0.16549999E+02  0.18133E+04
 0.16599998E+02 -0.83812E+03
 0.16650000E+02 -0.34061E+04
 0.16699999E+02 -0.57101E+04
 0.16749998E+02 -0.76456E+04
 0.16799999E+02 -0.92343E+04
 0.16849998E+02 -0.10525E+05
 0.16900000E+02 -0.11641E+05
 0.16949999E+02 -0.12759E+05
 0.16999998E+02 -0.13867E+05
 0.17049999E+02 -0.15085E+05
 0.17099998E+02 -0.16351E+05
 0.17150000E+02 -0.17565E+05
 0.17199999E+02 -0.18873E+05
 0.17249998E+02 -0.20363E+05
 0.17299999E+02 -0.22026E+05
 0.17349998E+02 -0.23621E+05
 0.17400000E+02 -0.25279E+05
 0.17449999E+02 -0.26907E+05
 0.17499998E+02 -0.28903E+05
 0.17549999E+02 -0.31068E+05
 0.17599998E+02 -0.33038E+05
 0.17650000E+02 -0.35175E+05
 0.17699999E+02 -0.37257E+05
 0.17749998E+02 -0.39036E+05
 0.17799999E+02 -0.40284E+05
 0.17849998E+02 -0.40631E+05
 0.17900000E+02 -0.40225E+05
 0.17949999E+02 -0.39611E+05
 0.17999998E+02 -0.38459E+05
 0.18049999E+02 -0.36776E+05
 0.18099998E+02 -0.34365E+05
 0.18150000E+02 -0.30881E+05
 0.18199999E+02 -0.28018E+05
 0.18249998E+02 -0.25463E+05
 0.18299999E+02 -0.22540E+05
 0.18349998E+02 -0.19907E+05
 0.18400000E+02 -0.17508E+05
 0.18449999E+02 -0.15335E+05
 0.18499998E+02 -0.13876E+05
 0.18549999E+02 -0.11793E+05
 0.18599998E+02 -0.10593E+05
 0.18650000E+02 -0.11219E+05
 0.18699999E+02 -0.10172E+05
 0.18749998E+02 -0.86833E+04
 0.18799999E+02 -0.71325E+04
 0.18849998E+02 -0.65777E+04
 0.18900000E+02 -0.72873E+04
 0.18949999E+02 -0.83905E+04
 0.18999998E+02 -0.81458E+04
 0.19049999E+02 -0.77961E+04
 0.19099998E+02 -0.81189E+04
 0.19150000E+02 -0.77222E+04
 0.19199999E+02 -0.75346E+04
 0.19249998E+02 -0.79837E+04
 0.19299999E+02 -0.85778E+04
 0.19349998E+02 -0.80956E+04
 0.19400000E+02 -0.83510E+04
 0.19449999E+02 -0.85017E+04
 0.19499998E+02 -0.10554E+05
 0.19549999E+02 -0.11546E+05
 0.19599998E+02 -0.11236E+05
 0.19650000E+02 -0.10487E+05
 0.19699999E+02 -0.80704E+04
 0.19749998E+02 -0.75302E+04
 0.19799999E+02 -0.66751E+04
 0.19849998E+02 -0.56871E+04
 0.19900000E+02 -0.33219E+04
 0.19949999E+02  0.53831E+03
 0.19999998E+02  0.28613E+04
 0.20049999E+02  0.16408E+04
 0.20099998E+02  0.19792E+04
 0.20150000E+02  0.52125E+04
 0.20199999E+02  0.62136E+04
 0.20249998E+02  0.70160E+04
 0.20299999E+02  0.81272E+04
 0.20349998E+02  0.48602E+04
 0.20399998E+02  0.31570E+04
 0.20449999E+02  0.39772E+04
 0.20499998E+02 -0.87652E+03
 0.20549999E+02 -0.22594E+04
 0.20599998E+02  0.21188E+04
 0.20649998E+02  0.51949E+04
 0.20699999E+02  0.45085E+04
 0.20749998E+02  0.80949E+04
 0.20799999E+02  0.90926E+04
 0.20849998E+02  0.12398E+05
 0.20899998E+02  0.17282E+05
 0.20949999E+02  0.17110E+05
 0.20999998E+02  0.19635E+05
 0.21049999E+02  0.14204E+05
 0.21099998E+02  0.52489E+04
 0.21149998E+02  0.80675E+04
 0.21199999E+02  0.17888E+05
 0.21249998E+02  0.60731E+04
 0.21299999E+02 -0.26544E+04
 0.21349998E+02  0.22613E+04
 0.21399998E+02  0.10601E+05
 0.21449999E+02  0.17556E+05
 0.21499998E+02  0.16139E+05
 0.21549999E+02  0.51124E+04
 0.21599998E+02 -0.32240E+02
 0.21649998E+02  0.55141E+04
 0.21699999E+02  0.65786E+04
 0.21749998E+02  0.15119E+05
 0.21799999E+02  0.15872E+05
 0.21849998E+02  0.71635E+03
 0.21899998E+02  0.70375E+04
 0.21949999E+02  0.51328E+05
 0.21999998E+02  0.59563E+05
 0.22049999E+02  0.51601E+05
 0.22099998E+02  0.78808E+05
 0.22149998E+02  0.11237E+06
 0.22199999E+02  0.11225E+06
 0.22249998E+02  0.81698E+05
 0.22299999E+02  0.82896E+05
 0.22349998E+02  0.97366E+05
 0.22399998E+02  0.59187E+05
 0.22449999E+02  0.27845E+05
 0.22499998E+02  0.44761E+05
 0.22549999E+02  0.16664E+05
 0.22599998E+02 -0.22282E+05
 0.22649998E+02 -0.12581E+05
 0.22699999E+02  0.55033E+04
 0.22749998E+02 -0.29581E+05
 0.22799999E+02 -0.66377E+05
 0.22849998E+02 -0.24010E+05
 0.22899998E+02 -0.22221E+04
 0.22949999E+02 -0.30199E+05
 0.22999998E+02 -0.32356E+05
 0.23049999E+02  0.86597E+04
 0.23099998E+02  0.10334E+05
 0.23149998E+02 -0.12820E+05
 0.23199999E+02  0.64606E+04
 0.23249998E+02  0.41080E+05
 0.23299999E+02  0.33699E+05
 0.23349998E+02  0.54382E+03
 0.23399998E+02  0.39180E+05
 0.23449999E+02  0.75517E+05
 0.23499998E+02  0.55845E+05
 0.23549999E+02  0.31107E+05
 0.23599998E+02  0.40773E+05
 0.23649998E+02  0.42619E+05
 0.23699999E+02  0.34839E+05
 0.23749998E+02  0.50728E+05
 0.23799999E+02  0.27081E+05
 0.23849998E+02 -0.65751E+04
 0.23899998E+02 -0.11611E+05
 0.23949999E+02  0.16217E+05
 0.23999998E+02  0.21987E+05
 0.24049999E+02  0.13301E+05
 0.24099998E+02 -0.43547E+04
 0.24149998E+02 -0.61173E+04
 0.24199999E+02  0.16736E+04
 0.24249998E+02 -0.40769E+04
 0.24299999E+02  0.11013E+05
 0.24349998E+02 -0.66120E+04
 0.24399998E+02 -0.14889E+05
 0.24449999E+02 -0.34696E+05
 0.24499998E+02 -0.65496E+05
 0.24549999E+02 -0.53982E+05
 0.24599998E+02 -0.37764E+05
 0.24649998E+02 -0.53550E+05
 0.24699999E+02 -0.37549E+05
 0.24749998E+02 -0.67684E+05
 0.24799999E+02 -0.12046E+06
 0.24849998E+02 -0.10535E+06
 0.24899998E+02 -0.10417E+06
 0.24949999E+02 -0.11823E+06
 0.24999998E+02 -0.14511E+06
 0.25049999E+02 -0.13207E+06
 0.25099998E+02 -0.10008E+06
 0.25149998E+02 -0.10149E+06
 0.25199999E+02 -0.76455E+05
 0.25249998E+02 -0.42482E+05
 0.25299999E+02 -0.31079E+05
 0.25349998E+02 -0.20180E+05
 0.25399998E+02 -0.29850E+05
 0.25449999E+02 -0.18985E+05
 0.25499998E+02 -0.39564E+05
 0.25549999E+02 -0.84306E+05
 0.25599998E+02 -0.83256E+05
 0.25649998E+02 -0.48502E+05
 0.25699999E+02 -0.12628E+05
 0.25749998E+02  0.38490E+05
 0.25799999E+02  0.36437E+05
 0.25849998E+02 -0.14848E+05
 0.25899998E+02  0.56877E+04
 0.25949999E+02  0.28692E+05
 0.25999998E+02  0.46656E+04
 0.26049999E+02 -0.55247E+05
 0.26099998E+02 -0.81349E+05
 0.26149998E+02 -0.48664E+05
 0.26199999E+02 -0.56376E+05
 0.26249998E+02 -0.59240E+05
 0.26299999E+02 -0.18093E+05
 0.26349998E+02  0.25449E+05
 0.26399998E+02  0.94313E+05
 0.26449999E+02  0.13090E+06
 0.26499998E+02  0.16994E+06
 0.26549999E+02  0.16711E+06
 0.26599998E+02  0.86784E+05
 0.26649998E+02  0.63155E+05
 0.26699999E+02  0.99975E+05
 0.26749998E+02  0.85061E+05
 0.26799999E+02  0.21719E+05
 0.26849998E+02 -0.58144E+05
 0.26899998E+02 -0.12700E+06
 0.26949999E+02 -0.14794E+06
 0.26999998E+02 -0.17073E+06
 0.27049997E+02 -0.16286E+06
 0.27099998E+02 -0.11344E+06
 0.27149998E+02 -0.10054E+06
 0.27199999E+02 -0.11039E+06
 0.27249998E+02 -0.96646E+05
 0.27299997E+02 -0.83895E+05
 0.27349998E+02 -0.71061E+05
 0.27399998E+02 -0.54950E+05
 0.27449999E+02 -0.43823E+05
 0.27499998E+02 -0.24620E+04
 0.27549997E+02  0.54597E+05
 0.27599998E+02  0.58468E+05
 0.27649998E+02  0.35177E+05
 0.27699999E+02  0.64187E+05
 0.27749998E+02  0.14006E+06
 0.27799997E+02  0.16667E+06
 0.27849998E+02  0.14989E+06
 0.27899998E+02  0.17357E+06
 0.27949999E+02  0.16861E+06
 0.27999998E+02  0.11447E+06
 0.28049997E+02  0.11055E+06
 0.28099998E+02  0.16062E+06
 0.28149998E+02  0.21712E+06
 0.28199999E+02  0.20661E+06
 0.28249998E+02  0.15767E+06
 0.28299997E+02  0.12036E+06
 0.28349998E+02  0.12123E+06
 0.28399998E+02  0.16627E+06
 0.28449999E+02  0.20187E+06
 0.28499998E+02  0.18402E+06
 0.28549997E+02  0.10054E+06
 0.28599998E+02  0.17820E+05
 0.28649998E+02 -0.30859E+05
 0.28699999E+02 -0.58218E+05
 0.28749998E+02 -0.62635E+05
 0.28799997E+02 -0.63949E+05
 0.28849998E+02 -0.67289E+05
 0.28899998E+02 -0.42919E+05
 0.28949999E+02 -0.19746E+05
 0.28999998E+02  0.27523E+04
 0.29049997E+02  0.88847E+04
 0.29099998E+02 -0.19442E+05
 0.29149998E+02 -0.86482E+04
 0.29199999E+02  0.24632E+04
 0.29249998E+02 -0.23733E+05
 0.29299997E+02 -0.27923E+05
 0.29349998E+02  0.94764E+03
 0.29399998E+02  0.81257E+04
 0.29449999E+02 -0.23631E+05
 0.29499998E+02 -0.71490E+05
 0.29549997E+02 -0.83867E+05
 0.29599998E+02 -0.48543E+05
 0.29649998E+02 -0.45564E+05
 0.29699999E+02 -0.49226E+05
 0.29749998E+02 -0.84319E+05
 0.29799997E+02 -0.12577E+06
 0.29849998E+02 -0.98118E+05
 0.29899998E+02 -0.60570E+05
 0.29949999E+02 -0.36856E+05
 0.29999998E+02  0.11253E+05
 0.30049999E+02  0.54833E+05
 0.30099998E+02  0.85830E+05
 0.30149998E+02  0.12516E+06
 0.30199997E+02  0.11288E+06
 0.30249996E+02  0.10029E+06
 0.30299999E+02  0.94562E+05
 0.30349998E+02  0.83922E+05
 0.30399998E+02  0.13644E+06
 0.30449997E+02  0.18439E+06
 0.30499996E+02  0.18670E+06
 0.30549999E+02  0.15884E+06
 0.30599998E+02  0.11341E+06
 0.30649998E+02  0.78245E+05
 0.30699997E+02  0.46644E+05
 0.30749996E+02  0.38828E+05
 0.30799999E+02  0.78321E+05
 0.30849998E+02  0.83183E+05
 0.30899998E+02  0.32902E+05
 0.30949997E+02 -0.95256E+04
 0.30999996E+02 -0.46521E+05
 0.31049999E+02 -0.62903E+05
 0.31099998E+02 -0.34060E+05
 0.31149998E+02  0.16905E+05
 0.31199997E+02  0.14908E+05
 0.31249996E+02 -0.11751E+05
 0.31299999E+02 -0.33567E+05
 0.31349998E+02 -0.65824E+05
 0.31399998E+02 -0.63325E+05
 0.31449997E+02 -0.41933E+05
 0.31499996E+02 -0.26684E+05
 0.31549999E+02 -0.53664E+04
 0.31599998E+02  0.32777E+05
 0.31649998E+02  0.65716E+05
 0.31699997E+02  0.10152E+06
 0.31749996E+02  0.11295E+06
 0.31799999E+02  0.14016E+06
 0.31849998E+02  0.14502E+06
 0.31899998E+02  0.80456E+05
 0.31949997E+02  0.28655E+05
 0.31999996E+02 -0.90924E+03
 0.32049999E+02  0.44057E+04
 0.32099998E+02  0.77683E+03
 0.32149998E+02 -0.19268E+05
 0.32199997E+02 -0.35617E+05
 0.32249996E+02 -0.22538E+05
 0.32299999E+02 -0.35881E+05
 0.32349998E+02 -0.55525E+05
 0.32399998E+02 -0.37206E+05
 0.32449997E+02 -0.60776E+05
 0.32499996E+02 -0.10121E+06
 0.32549999E+02 -0.11390E+06
 0.32599998E+02 -0.12023E+06
 0.32649998E+02 -0.17373E+06
 0.32699997E+02 -0.20173E+06
 0.32749996E+02 -0.17774E+06
 0.32799999E+02 -0.16402E+06
 0.32849998E+02 -0.15696E+06
 0.32899998E+02 -0.12695E+06
 0.32949997E+02 -0.10407E+06
 0.32999996E+02 -0.10155E+06
 0.33049999E+02 -0.10344E+06
 0.33099998E+02 -0.12357E+06
 0.33149998E+02 -0.81920E+05
 0.33199997E+02 -0.14444E+05
 0.33249996E+02  0.46497E+04
 0.33299999E+02 -0.99797E+04
 0.33349998E+02 -0.44874E+05
 0.33399998E+02 -0.49057E+05
 0.33449997E+02 -0.36205E+05
 0.33499996E+02 -0.62233E+05
 0.33549999E+02 -0.71468E+05
 0.33599998E+02 -0.69276E+05
 0.33649998E+02 -0.41577E+05
 0.33699997E+02  0.13698E+05
 0.33749996E+02 -0.12786E+05
 0.33799999E+02 -0.56893E+05
 0.33849998E+02 -0.83144E+05
 0.33899998E+02 -0.11475E+06
 0.33949997E+02 -0.14733E+06
 0.33999996E+02 -0.13564E+06
 0.34049999E+02 -0.12317E+06
 0.34099998E+02 -0.14843E+06
 0.34149998E+02 -0.14349E+06
 0.34199997E+02 -0.92026E+05
 0.34249996E+02 -0.38512E+05
 0.34299999E+02 -0.14199E+05
 0.34349998E+02  0.57779E+05
 0.34399998E+02  0.12471E+06
 0.34449997E+02  0.15254E+06
 0.34499996E+02  0.12485E+06
 0.34549999E+02  0.11381E+06
 0.34599998E+02  0.12174E+06
 0.34649998E+02  0.13040E+06
 0.34699997E+02  0.16899E+06
 0.34749996E+02  0.12687E+06
 0.34799999E+02  0.67294E+05
 0.34849998E+02  0.26660E+05
 0.34899998E+02 -0.22446E+05
 0.34949997E+02 -0.55711E+05
 0.34999996E+02 -0.12425E+06
 0.35049999E+02 -0.16490E+06
 0.35099998E+02 -0.15442E+06
 0.35149998E+02 -0.17629E+06
 0.35199997E+02 -0.18109E+06
 0.35249996E+02 -0.20531E+06
 0.35299999E+02 -0.24442E+06
 0.35349998E+02 -0.28874E+06
 0.35399998E+02 -0.24950E+06
 0.35449997E+02 -0.13824E+06
 0.35499996E+02 -0.71160E+05
 0.35549999E+02  0.20262E+05
 0.35599998E+02  0.11404E+06
 0.35649998E+02  0.17198E+06
 0.35699997E+02  0.15823E+06
 0.35749996E+02  0.86743E+05
 0.35799999E+02  0.14528E+05
 0.35849998E+02  0.16847E+04
 0.35899998E+02  0.76852E+04
 0.35949997E+02  0.28979E+05
 0.35999996E+02  0.23276E+05
 0.36049999E+02 -0.99157E+05
 0.36099998E+02 -0.14812E+06
 0.36149998E+02 -0.92963E+05
 0.36199997E+02 -0.25214E+05
 0.36249996E+02  0.17633E+05
 0.36299999E+02  0.79214E+05
 0.36349998E+02  0.15248E+06
 0.36399998E+02  0.14213E+06
 0.36449997E+02  0.51887E+05
 0.36499996E+02 -0.65566E+05
 0.36549999E+02 -0.17833E+06
 0.36599998E+02 -0.20614E+06
 0.36649998E+02 -0.95996E+05
 0.36699997E+02 -0.22098E+05
 0.36749996E+02 -0.53627E+05
 0.36799999E+02 -0.12382E+06
 0.36849998E+02 -0.20863E+06
 0.36899998E+02 -0.27705E+06
 0.36949997E+02 -0.26109E+06
 0.36999996E+02 -0.19874E+06
 0.37049999E+02 -0.14901E+06
 0.37099998E+02 -0.15188E+06
 0.37149998E+02 -0.19122E+06
 0.37199997E+02 -0.14760E+06
 0.37249996E+02 -0.12455E+06
 0.37299999E+02 -0.22912E+06
 0.37349998E+02 -0.26670E+06
 0.37399998E+02 -0.20165E+06
 0.37449997E+02 -0.18360E+06
 0.37499996E+02 -0.17390E+06
 0.37549999E+02 -0.15887E+06
 0.37599998E+02 -0.16946E+06
 0.37649998E+02 -0.80907E+05
 0.37699997E+02  0.68804E+05
 0.37749996E+02  0.13643E+06
 0.37799999E+02  0.15490E+06
 0.37849998E+02  0.11053E+06
 0.37899998E+02  0.10866E+05
 0.37949997E+02  0.76439E+05
 0.37999996E+02  0.18770E+06
 0.38049999E+02  0.15887E+06
 0.38099998E+02  0.17640E+06
 0.38149998E+02  0.18509E+06
 0.38199997E+02  0.18518E+06
 0.38249996E+02  0.24297E+06
 0.38299999E+02  0.17999E+06
 0.38349998E+02  0.43720E+05
 0.38399998E+02 -0.32256E+05
 0.38449997E+02  0.67844E+03
 0.38499996E+02  0.97117E+05
 0.38549999E+02  0.13439E+06
 0.38599998E+02  0.20232E+06
 0.38649998E+02  0.24973E+06
 0.38699997E+02  0.22202E+06
 0.38749996E+02  0.21235E+06
 0.38799999E+02  0.15181E+06
 0.38849998E+02  0.74949E+05
 0.38899998E+02  0.39830E+05
 0.38949997E+02  0.64494E+05
 0.38999996E+02  0.21258E+06
 0.39049999E+02  0.27801E+06
 0.39099998E+02  0.23286E+06
 0.39149998E+02  0.23119E+06
 0.39199997E+02  0.28722E+06
 0.39249996E+02  0.37957E+06
 0.39299999E+02  0.37808E+06
 0.39349998E+02  0.34117E+06
 0.39399998E+02  0.40307E+06
 0.39449997E+02  0.50317E+06
 0.39499996E+02  0.51569E+06
 0.39549999E+02  0.40467E+06
 0.39599998E+02  0.27665E+06
 0.39649998E+02  0.27780E+06
 0.39699997E+02  0.35939E+06
 0.39749996E+02  0.26973E+06
 0.39799999E+02  0.40929E+04
 0.39849998E+02 -0.86898E+05
 0.39899998E+02 -0.11728E+05
 0.39949997E+02  0.38815E+04
 0.39999996E+02  0.26198E+05
 0.40049999E+02  0.12176E+06
 0.40099998E+02  0.13352E+06
 0.40149998E+02  0.33853E+05
 0.40199997E+02 -0.62966E+04
 0.40249996E+02 -0.33874E+05
 0.40299999E+02 -0.27628E+05
 0.40349998E+02  0.60951E+05
 0.40399998E+02  0.16245E+06
 0.40449997E+02  0.23156E+06
 0.40499996E+02  0.23315E+06
 0.40549999E+02  0.24197E+06
 0.40599998E+02  0.22495E+06
 0.40649998E+02  0.17003E+06
 0.40699997E+02  0.11967E+06
 0.40749996E+02  0.26018E+05
 0.40799999E+02 -0.79228E+05
 0.40849998E+02 -0.63833E+05
 0.40899998E+02  0.11159E+06
 0.40949997E+02  0.29984E+06
 0.40999996E+02  0.42078E+06
 0.41049999E+02  0.43440E+06
 0.41099998E+02  0.39262E+06
 0.41149998E+02  0.36274E+06
 0.41199997E+02  0.36319E+06
 0.41249996E+02  0.38235E+06
 0.41299999E+02  0.35306E+06
 0.41349998E+02  0.31275E+06
 0.41399998E+02  0.32073E+06
 0.41449997E+02  0.33814E+06
 0.41499996E+02  0.33352E+06
 0.41549999E+02  0.35488E+06
 0.41599998E+02  0.33547E+06
 0.41649998E+02  0.31568E+06
 0.41699997E+02  0.26363E+06
 0.41749996E+02  0.14573E+06
 0.41799999E+02  0.90652E+05
 0.41849998E+02  0.61333E+05
 0.41899998E+02  0.28847E+05
 0.41949997E+02 -0.14689E+05
 0.41999996E+02 -0.53667E+05
 0.42049999E+02 -0.13647E+06
 0.42099998E+02 -0.26635E+06
 0.42149998E+02 -0.32604E+06
 0.42199997E+02 -0.28372E+06
 0.42249996E+02 -0.17420E+06
 0.42299999E+02 -0.75500E+05
 0.42349998E+02 -0.12393E+06
 0.42399998E+02 -0.28593E+06
 0.42449997E+02 -0.38210E+06
 0.42499996E+02 -0.41785E+06
 0.42549999E+02 -0.45657E+06
 0.42599998E+02 -0.47105E+06
 0.42649998E+02 -0.41491E+06
 0.42699997E+02 -0.28795E+06
 0.42749996E+02 -0.15148E+06
 0.42799995E+02 -0.49441E+05
 0.42849998E+02 -0.30239E+05
 0.42899998E+02 -0.59906E+05
 0.42949997E+02 -0.15471E+05
 0.42999996E+02  0.60101E+05
 0.43049995E+02  0.89026E+05
 0.43099998E+02  0.89731E+05
 0.43149998E+02  0.91529E+05
 0.43199997E+02  0.75079E+05
 0.43249996E+02  0.23811E+05
 0.43299995E+02 -0.34563E+05
 0.43349998E+02 -0.73070E+05
 0.43399998E+02 -0.88543E+05
 0.43449997E+02 -0.94270E+05
 0.43499996E+02 -0.93105E+05
 0.43549995E+02 -0.95812E+05
 0.43599998E+02 -0.13253E+06
 0.43649998E+02 -0.21435E+06
 0.43699997E+02 -0.28149E+06
 0.43749996E+02 -0.29893E+06
 0.43799995E+02 -0.28524E+06
 0.43849998E+02 -0.27628E+06
 0.43899998E+02 -0.29184E+06
 0.43949997E+02 -0.35298E+06
 0.43999996E+02 -0.43936E+06
 0.44049995E+02 -0.52627E+06
 0.44099998E+02 -0.59743E+06
 0.44149998E+02 -0.67425E+06
 0.44199997E+02 -0.76782E+06
 0.44249996E+02 -0.79602E+06
 0.44299995E+02 -0.73211E+06
 0.44349998E+02 -0.62566E+06
 0.44399998E+02 -0.56405E+06
 0.44449997E+02 -0.54434E+06
 0.44499996E+02 -0.52881E+06
 0.44549995E+02 -0.49704E+06
 0.44599998E+02 -0.45971E+06
 0.44649998E+02 -0.43736E+06
 0.44699997E+02 -0.39010E+06
 0.44749996E+02 -0.34834E+06
 0.44799995E+02 -0.33716E+06
 0.44849998E+02 -0.33777E+06
 0.44899998E+02 -0.34659E+06
 0.44949997E+02 -0.36692E+06
 0.44999996E+02 -0.43246E+06
 0.45049995E+02 -0.50877E+06
 0.45099998E+02 -0.51124E+06
 0.45149998E+02 -0.45072E+06
 0.45199997E+02 -0.38757E+06
 0.45249996E+02 -0.32412E+06
 0.45299995E+02 -0.29180E+06
 0.45349998E+02 -0.33837E+06
 0.45399998E+02 -0.40890E+06
 0.45449997E+02 -0.39796E+06
 0.45499996E+02 -0.36547E+06
 0.45549995E+02 -0.39283E+06
 0.45599998E+02 -0.47918E+06
 0.45649998E+02 -0.55596E+06
 0.45699997E+02 -0.50574E+06
 0.45749996E+02 -0.40286E+06
 0.45799995E+02 -0.31751E+06
 0.45849998E+02 -0.19685E+06
 0.45899998E+02 -0.31254E+05
 0.45949997E+02  0.10926E+06
 0.45999996E+02  0.19124E+06
 0.46049995E+02  0.24030E+06
 0.46099998E+02  0.28302E+06
 0.46149998E+02  0.33337E+06
 0.46199997E+02  0.43539E+06
 0.46249996E+02  0.54889E+06
 0.46299995E+02  0.61465E+06
 0.46349998E+02  0.65336E+06
 0.46399998E+02  0.66058E+06
 0.46449997E+02  0.65660E+06
 0.46499996E+02  0.64462E+06
 0.46549995E+02  0.60931E+06
 0.46599998E+02  0.55557E+06
 0.46649998E+02  0.52289E+06
 0.46699997E+02  0.51342E+06
 0.46749996E+02  0.50947E+06
 0.46799995E+02  0.49639E+06
 0.46849998E+02  0.47644E+06
 0.46899998E+02  0.42547E+06
 0.46949997E+02  0.30099E+06
 0.46999996E+02  0.17411E+06
 0.47049995E+02  0.10564E+06
 0.47099998E+02  0.72260E+05
 0.47149998E+02  0.52086E+05
 0.47199997E+02  0.27435E+05
 0.47249996E+02  0.23673E+05
 0.47299995E+02  0.37516E+05
 0.47349998E+02  0.50325E+05
 0.47399998E+02  0.67841E+05
 0.47449997E+02  0.92819E+05
 0.47499996E+02  0.15573E+06
 0.47549995E+02  0.29244E+06
 0.47599998E+02  0.47374E+06
 0.47649998E+02  0.54538E+06
 0.47699997E+02  0.47148E+06
 0.47749996E+02  0.34621E+06
 0.47799995E+02  0.25868E+06
 0.47849998E+02  0.24944E+06
 0.47899998E+02  0.25504E+06
 0.47949997E+02  0.22506E+06
 0.47999996E+02  0.15956E+06
 0.48049995E+02  0.55518E+05
 0.48099998E+02 -0.74195E+05
 0.48149998E+02 -0.19502E+06
 0.48199997E+02 -0.27959E+06
 0.48249996E+02 -0.30784E+06
 0.48299995E+02 -0.29297E+06
 0.48349998E+02 -0.30058E+06
 0.48399998E+02 -0.34618E+06
 0.48449997E+02 -0.39061E+06
 0.48499996E+02 -0.43250E+06
 0.48549995E+02 -0.49171E+06
 0.48599998E+02 -0.56968E+06
 0.48649998E+02 -0.66958E+06
 0.48699997E+02 -0.75775E+06
 0.48749996E+02 -0.77381E+06
 0.48799995E+02 -0.71176E+06
 0.48849998E+02 -0.59619E+06
 0.48899998E+02 -0.46708E+06
 0.48949997E+02 -0.35574E+06
 0.48999996E+02 -0.27049E+06
 0.49049995E+02 -0.18652E+06
 0.49099998E+02 -0.90986E+05
 0.49149998E+02  0.17629E+05
 0.49199997E+02  0.14040E+06
 0.49249996E+02  0.25165E+06
 0.49299995E+02  0.36368E+06
 0.49349998E+02  0.50189E+06
 0.49399998E+02  0.59463E+06
 0.49449997E+02  0.58266E+06
 0.49499996E+02  0.52138E+06
 0.49549995E+02  0.48961E+06
 0.49599998E+02  0.49597E+06
 0.49649998E+02  0.49206E+06
 0.49699997E+02  0.45017E+06
 0.49749996E+02  0.37508E+06
 0.49799995E+02  0.29727E+06
 0.49849998E+02  0.22432E+06
 0.49899998E+02  0.16102E+06
 0.49949997E+02  0.10828E+06
 0.49999996E+02  0.53192E+05
 0.50049995E+02 -0.40093E+05
 0.50099998E+02 -0.18396E+06
 0.50149998E+02 -0.33658E+06
 0.50199997E+02 -0.45245E+06
 0.50249996E+02 -0.47138E+06
 0.50299995E+02 -0.39900E+06
 0.50349998E+02 -0.31556E+06
 0.50399998E+02 -0.26619E+06
 0.50449997E+02 -0.23015E+06
 0.50499996E+02 -0.18541E+06
 0.50549995E+02 -0.12639E+06
 0.50599998E+02 -0.38497E+05
 0.50649998E+02  0.64005E+05
 0.50699997E+02  0.16174E+06
 0.50749996E+02  0.25010E+06
 0.50799995E+02  0.32032E+06
 0.50849998E+02  0.35378E+06
 0.50899998E+02  0.35267E+06
 0.50949997E+02  0.34108E+06
 0.50999996E+02  0.34831E+06
 0.51049995E+02  0.37305E+06
 0.51099998E+02  0.41923E+06
 0.51149998E+02  0.50432E+06
 0.51199997E+02  0.60192E+06
 0.51249996E+02  0.69016E+06
 0.51299995E+02  0.77712E+06
 0.51349998E+02  0.85719E+06
 0.51399998E+02  0.88995E+06
 0.51449997E+02  0.88113E+06
 0.51499996E+02  0.82600E+06
 0.51549995E+02  0.71326E+06
 0.51599998E+02  0.56794E+06
 0.51649998E+02  0.38200E+06
 0.51699997E+02  0.15756E+06
 0.51749996E+02 -0.54929E+05
 0.51799995E+02 -0.20122E+06
 0.51849998E+02 -0.25378E+06
 0.51899998E+02 -0.23001E+06
 0.51949997E+02 -0.18156E+06
 0.51999996E+02 -0.12837E+06
 0.52049995E+02 -0.76530E+05
 0.52099998E+02 -0.55010E+05
 0.52149998E+02 -0.63988E+05
 0.52199997E+02 -0.60896E+05
 0.52249996E+02 -0.36300E+04
 0.52299995E+02  0.83802E+05
 0.52349998E+02  0.16184E+06
 0.52399998E+02  0.23861E+06
 0.52449997E+02  0.31449E+06
 0.52499996E+02  0.40275E+06
 0.52549995E+02  0.51484E+06
 0.52599998E+02  0.61017E+06
 0.52649998E+02  0.64356E+06
 0.52699997E+02  0.61332E+06
 0.52749996E+02  0.55139E+06
 0.52799995E+02  0.50952E+06
 0.52849998E+02  0.53171E+06
 0.52899998E+02  0.60595E+06
 0.52949997E+02  0.68485E+06
 0.52999996E+02  0.72045E+06
 0.53049995E+02  0.69272E+06
 0.53099998E+02  0.60140E+06
 0.53149998E+02  0.45871E+06
 0.53199997E+02  0.31465E+06
 0.53249996E+02  0.20424E+06
 0.53299995E+02  0.11699E+06
 0.53349998E+02  0.25035E+05
 0.53399998E+02 -0.81914E+05
 0.53449997E+02 -0.19663E+06
 0.53499996E+02 -0.32123E+06
 0.53549995E+02 -0.46453E+06
 0.53599998E+02 -0.61440E+06
 0.53649998E+02 -0.76727E+06
 0.53699997E+02 -0.91347E+06
 0.53749996E+02 -0.10398E+07
 0.53799995E+02 -0.11376E+07
 0.53849998E+02 -0.11701E+07
 0.53899998E+02 -0.11170E+07
 0.53949997E+02 -0.10125E+07
 0.53999996E+02 -0.93167E+06
 0.54049995E+02 -0.90833E+06
 0.54099998E+02 -0.90925E+06
 0.54149998E+02 -0.90580E+06
 0.54199997E+02 -0.89388E+06
 0.54249996E+02 -0.85116E+06
 0.54299995E+02 -0.77864E+06
 0.54349998E+02 -0.69689E+06
 0.54399998E+02 -0.62353E+06
 0.54449997E+02 -0.58029E+06
 0.54499996E+02 -0.58045E+06
 0.54549995E+02 -0.59945E+06
 0.54599998E+02 -0.58945E+06
 0.54649998E+02 -0.54030E+06
 0.54699997E+02 -0.47053E+06
 0.54749996E+02 -0.38897E+06
 0.54799995E+02 -0.30392E+06
 0.54849998E+02 -0.22125E+06
 0.54899998E+02 -0.12989E+06
 0.54949997E+02 -0.29416E+05
 0.54999996E+02  0.10303E+06
 0.55049995E+02  0.27147E+06
 0.55099998E+02  0.43384E+06
 0.55149998E+02  0.55670E+06
 0.55199997E+02  0.62116E+06
 0.55249996E+02  0.63392E+06
 0.55299995E+02  0.62122E+06
 0.55349998E+02  0.58466E+06
 0.55399998E+02  0.54235E+06
 0.55449997E+02  0.53897E+06
 0.55499996E+02  0.58312E+06
 0.55549995E+02  0.66338E+06
 0.55599998E+02  0.74473E+06
 0.55649998E+02  0.80586E+06
 0.55699997E+02  0.84162E+06
 0.55749996E+02  0.82567E+06
 0.55799995E+02  0.76600E+06
 0.55849995E+02  0.67637E+06
 0.55899998E+02  0.55181E+06
 0.55949997E+02  0.39300E+06
 0.55999996E+02  0.21098E+06
 0.56049995E+02  0.34184E+05
 0.56099995E+02 -0.12472E+06
 0.56149998E+02 -0.26040E+06
 0.56199997E+02 -0.35670E+06
 0.56249996E+02 -0.40859E+06
 0.56299995E+02 -0.41311E+06
 0.56349995E+02 -0.36114E+06
 0.56399998E+02 -0.25869E+06
 0.56449997E+02 -0.14079E+06
 0.56499996E+02 -0.49855E+05
 0.56549995E+02  0.79096E+03
 0.56599995E+02  0.94120E+04
 0.56649998E+02 -0.22106E+05
 0.56699997E+02 -0.78611E+05
 0.56749996E+02 -0.15792E+06
 0.56799995E+02 -0.23130E+06
 0.56849995E+02 -0.27550E+06
 0.56899998E+02 -0.30408E+06
 0.56949997E+02 -0.32552E+06
 0.56999996E+02 -0.34781E+06
 0.57049995E+02 -0.37047E+06
 0.57099995E+02 -0.39033E+06
 0.57149998E+02 -0.40466E+06
 0.57199997E+02 -0.42180E+06
 0.57249996E+02 -0.43693E+06
 0.57299995E+02 -0.45101E+06
 0.57349995E+02 -0.46433E+06
 0.57399998E+02 -0.47377E+06
 0.57449997E+02 -0.49433E+06
 0.57499996E+02 -0.52815E+06
 0.57549995E+02 -0.57429E+06
 0.57599995E+02 -0.62544E+06
 0.57649998E+02 -0.65061E+06
 0.57699997E+02 -0.62289E+06
 0.57749996E+02 -0.54427E+06
 0.57799995E+02 -0.42688E+06
 0.57849995E+02 -0.30204E+06
 0.57899998E+02 -0.18591E+06
 0.57949997E+02 -0.67129E+05
 0.57999996E+02  0.53562E+05
 0.58049995E+02  0.16478E+06
 0.58099995E+02  0.26237E+06
 0.58149998E+02  0.33559E+06
 0.58199997E+02  0.37688E+06
 0.58249996E+02  0.38320E+06
 0.58299995E+02  0.35560E+06
 0.58349995E+02  0.29682E+06
 0.58399998E+02  0.22008E+06
 0.58449997E+02  0.15314E+06
 0.58499996E+02  0.11960E+06
 0.58549995E+02  0.13134E+06
 0.58599995E+02  0.16886E+06
 0.58649998E+02  0.21543E+06
 0.58699997E+02  0.26325E+06
 0.58749996E+02  0.31787E+06
 0.58799995E+02  0.37491E+06
 0.58849995E+02  0.41141E+06
 0.58899998E+02  0.41251E+06
 0.58949997E+02  0.39009E+06
 0.58999996E+02  0.36314E+06
 0.59049995E+02  0.34123E+06
 0.59099995E+02  0.33406E+06
 0.59149998E+02  0.32574E+06
 0.59199997E+02  0.30058E+06
 0.59249996E+02  0.24310E+06
 0.59299995E+02  0.13288E+06
 0.59349995E+02 -0.21295E+05
 0.59399998E+02 -0.19335E+06
 0.59449997E+02 -0.37581E+06
 0.59499996E+02 -0.57050E+06
 0.59549995E+02 -0.76053E+06
 0.59599995E+02 -0.92217E+06
 0.59649998E+02 -0.10370E+07
 0.59699997E+02 -0.10978E+07
 0.59749996E+02 -0.11116E+07
 0.59799995E+02 -0.10879E+07
 0.59849995E+02 -0.10373E+07
 0.59899998E+02 -0.96605E+06
 0.59949997E+02 -0.86948E+06
 0.59999996E+02 -0.75298E+06
 0.60049995E+02 -0.63411E+06
 0.60099995E+02 -0.51687E+06
 0.60149998E+02 -0.39680E+06
 0.60199997E+02 -0.27633E+06
 0.60249996E+02 -0.16517E+06
 0.60299995E+02 -0.78238E+05
 0.60349995E+02 -0.83097E+04
 0.60399998E+02  0.73425E+05
 0.60449997E+02  0.18649E+06
 0.60499996E+02  0.33824E+06
 0.60549995E+02  0.51827E+06
 0.60599995E+02  0.70544E+06
 0.60649998E+02  0.88912E+06
 0.60699997E+02  0.10746E+07
 0.60749996E+02  0.12595E+07
 0.60799995E+02  0.14280E+07
 0.60849995E+02  0.15528E+07
 0.60899998E+02  0.16065E+07
 0.60949997E+02  0.15741E+07
 0.60999996E+02  0.14724E+07
 0.61049995E+02  0.13223E+07
 0.61099995E+02  0.11319E+07
 0.61149998E+02  0.91687E+06
 0.61199997E+02  0.68636E+06
 0.61249996E+02  0.45855E+06
 0.61299995E+02  0.25107E+06
 0.61349995E+02  0.66595E+05
 0.61399998E+02 -0.10554E+06
 0.61449997E+02 -0.26148E+06
 0.61499996E+02 -0.37919E+06
 0.61549995E+02 -0.45105E+06
 0.61599995E+02 -0.49098E+06
 0.61649998E+02 -0.52715E+06
 0.61699997E+02 -0.59250E+06
 0.61749996E+02 -0.69846E+06
 0.61799995E+02 -0.82447E+06
 0.61849995E+02 -0.93824E+06
 0.61899998E+02 -0.10176E+07
 0.61949997E+02 -0.10570E+07
 0.61999996E+02 -0.10530E+07
 0.62049995E+02 -0.99563E+06
 0.62099998E+02 -0.88639E+06
 0.62149994E+02 -0.73540E+06
 0.62199997E+02 -0.54668E+06
 0.62249992E+02 -0.35254E+06
 0.62299995E+02 -0.16938E+06
 0.62349998E+02  0.28492E+04
 0.62399994E+02  0.14416E+06
 0.62449997E+02  0.24471E+06
 0.62499992E+02  0.30135E+06
 0.62549995E+02  0.32437E+06
 0.62599998E+02  0.33454E+06
 0.62649994E+02  0.34731E+06
 0.62699997E+02  0.37480E+06
 0.62749992E+02  0.43859E+06
 0.62799995E+02  0.53982E+06
 0.62849998E+02  0.67164E+06
 0.62899994E+02  0.82743E+06
 0.62949997E+02  0.98203E+06
 0.62999992E+02  0.11059E+07
 0.63049995E+02  0.11879E+07
 0.63099998E+02  0.12314E+07
 0.63149994E+02  0.12339E+07
 0.63199997E+02  0.12011E+07
 0.63249992E+02  0.11404E+07
 0.63299995E+02  0.10647E+07
 0.63349998E+02  0.98917E+06
 0.63399994E+02  0.91598E+06
 0.63449997E+02  0.84712E+06
 0.63499992E+02  0.79086E+06
 0.63549995E+02  0.74792E+06
 0.63599998E+02  0.70811E+06
 0.63649994E+02  0.64971E+06
 0.63699997E+02  0.56675E+06
 0.63749992E+02  0.46178E+06
 0.63799995E+02  0.32858E+06
 0.63849998E+02  0.16966E+06
 0.63899994E+02 -0.71659E+04
 0.63949997E+02 -0.18704E+06
 0.63999992E+02 -0.34758E+06
 0.64049995E+02 -0.47724E+06
 0.64099998E+02 -0.57359E+06
 0.64149994E+02 -0.63744E+06
 0.64199997E+02 -0.67136E+06
 0.64249992E+02 -0.67774E+06
 0.64299995E+02 -0.66837E+06
 0.64349998E+02 -0.65057E+06
 0.64399994E+02 -0.62769E+06
 0.64449997E+02 -0.60716E+06
 0.64499992E+02 -0.58595E+06
 0.64549995E+02 -0.55669E+06
 0.64599998E+02 -0.52808E+06
 0.64649994E+02 -0.50853E+06
 0.64699997E+02 -0.48859E+06
 0.64749992E+02 -0.46047E+06
 0.64799995E+02 -0.41772E+06
 0.64849998E+02 -0.35837E+06
 0.64899994E+02 -0.29066E+06
 0.64949997E+02 -0.22641E+06
 0.64999992E+02 -0.18057E+06
 0.65049995E+02 -0.15486E+06
 0.65099998E+02 -0.14351E+06
 0.65149994E+02 -0.14732E+06
 0.65199997E+02 -0.15961E+06
 0.65249992E+02 -0.16995E+06
 0.65299995E+02 -0.16920E+06
 0.65349998E+02 -0.15317E+06
 0.65399994E+02 -0.14215E+06
 0.65449997E+02 -0.15869E+06
 0.65499992E+02 -0.20380E+06
 0.65549995E+02 -0.25370E+06
 0.65599998E+02 -0.27948E+06
 0.65649994E+02 -0.27067E+06
 0.65699997E+02 -0.24115E+06
 0.65749992E+02 -0.20896E+06
 0.65799995E+02 -0.17033E+06
 0.65849998E+02 -0.12494E+06
 0.65899994E+02 -0.87972E+05
 0.65949997E+02 -0.70894E+05
 0.65999992E+02 -0.66720E+05
 0.66049995E+02 -0.66672E+05
 0.66099998E+02 -0.68929E+05
 0.66149994E+02 -0.67313E+05
 0.66199997E+02 -0.62678E+05
 0.66249992E+02 -0.49747E+05
 0.66299995E+02 -0.17665E+05
 0.66349998E+02  0.35664E+05
 0.66399994E+02  0.10162E+06
 0.66449997E+02  0.16629E+06
 0.66499992E+02  0.21918E+06
 0.66549995E+02  0.25422E+06
 0.66599998E+02  0.26954E+06
 0.66649994E+02  0.25965E+06
 0.66699997E+02  0.22185E+06
 0.66749992E+02  0.16500E+06
 0.66799995E+02  0.10188E+06
 0.66849998E+02  0.33056E+05
 0.66899994E+02 -0.40673E+05
 0.66949997E+02 -0.11418E+06
 0.66999992E+02 -0.18447E+06
 0.67049995E+02 -0.24134E+06
 0.67099998E+02 -0.27838E+06
 0.67149994E+02 -0.29625E+06
 0.67199997E+02 -0.29513E+06
 0.67249992E+02 -0.28048E+06
 0.67299995E+02 -0.26721E+06
 0.67349998E+02 -0.26974E+06
 0.67399994E+02 -0.28807E+06
 0.67449997E+02 -0.31352E+06
 0.67499992E+02 -0.34043E+06
 0.67549995E+02 -0.36873E+06
 0.67599998E+02 -0.40369E+06
 0.67649994E+02 -0.45277E+06
 0.67699997E+02 -0.52388E+06
 0.67749992E+02 -0.61208E+06
 0.67799995E+02 -0.70398E+06
 0.67849998E+02 -0.78810E+06
 0.67899994E+02 -0.85219E+06
 0.67949997E+02 -0.88493E+06
 0.67999992E+02 -0.87995E+06
 0.68049995E+02 -0.83684E+06
 0.68099998E+02 -0.75717E+06
 0.68149994E+02 -0.63938E+06
 0.68199997E+02 -0.47548E+06
 0.68249992E+02 -0.26742E+06
 0.68299995E+02 -0.32763E+05
 0.68349998E+02  0.21062E+06
 0.68399994E+02  0.44053E+06
 0.68449997E+02  0.62959E+06
 0.68499992E+02  0.76846E+06
 0.68549995E+02  0.87021E+06
 0.68599998E+02  0.96033E+06
 0.68649994E+02  0.10558E+07
 0.68699997E+02  0.11524E+07
 0.68749992E+02  0.12420E+07
 0.68799995E+02  0.13196E+07
 0.68849998E+02  0.13808E+07
 0.68899994E+02  0.14179E+07
 0.68949997E+02  0.14255E+07
 0.68999992E+02  0.14013E+07
 0.69049995E+02  0.13391E+07
 0.69099998E+02  0.12329E+07
 0.69149994E+02  0.10906E+07
 0.69199997E+02  0.91976E+06
 0.69249992E+02  0.72306E+06
 0.69299995E+02  0.50971E+06
 0.69349998E+02  0.28720E+06
 0.69399994E+02  0.68188E+05
 0.69449997E+02 -0.13800E+06
 0.69499992E+02 -0.32460E+06
 0.69549995E+02 -0.48632E+06
 0.69599998E+02 -0.61925E+06
 0.69649994E+02 -0.72361E+06
 0.69699997E+02 -0.79762E+06
 0.69749992E+02 -0.83466E+06
 0.69799995E+02 -0.83601E+06
 0.69849998E+02 -0.80718E+06
 0.69899994E+02 -0.75675E+06
 0.69949997E+02 -0.69869E+06
 0.69999992E+02 -0.64809E+06
 0.70049995E+02 -0.60881E+06
 0.70099998E+02 -0.58374E+06
 0.70149994E+02 -0.57794E+06
 0.70199997E+02 -0.59068E+06
 0.70249992E+02 -0.60985E+06
 0.70299995E+02 -0.61489E+06
 0.70349998E+02 -0.58902E+06
 0.70399994E+02 -0.52670E+06
 0.70449997E+02 -0.43561E+06
 0.70499992E+02 -0.31514E+06
 0.70549995E+02 -0.16682E+06
 0.70599998E+02 -0.32758E+04
 0.70649994E+02  0.16448E+06
 0.70699997E+02  0.32418E+06
 0.70749992E+02  0.46456E+06
 0.70799995E+02  0.57709E+06
 0.70849998E+02  0.65016E+06
 0.70899994E+02  0.67366E+06
 0.70949997E+02  0.65228E+06
 0.70999992E+02  0.60138E+06
 0.71049995E+02  0.53517E+06
 0.71099998E+02  0.46807E+06
 0.71149994E+02  0.41467E+06
 0.71199997E+02  0.37605E+06
 0.71249992E+02  0.35226E+06
 0.71299995E+02  0.34615E+06
 0.71349998E+02  0.35113E+06
 0.71399994E+02  0.35801E+06
 0.71449997E+02  0.35351E+06
 0.71499992E+02  0.32449E+06
 0.71549995E+02  0.25726E+06
 0.71599998E+02  0.14439E+06
 0.71649994E+02  0.18988E+04
 0.71699997E+02 -0.15332E+06
 0.71749992E+02 -0.31087E+06
 0.71799995E+02 -0.45947E+06
 0.71849998E+02 -0.58201E+06
 0.71899994E+02 -0.66083E+06
 0.71949997E+02 -0.69377E+06
 0.71999992E+02 -0.68707E+06
 0.72049995E+02 -0.65108E+06
 0.72099998E+02 -0.59442E+06
 0.72149994E+02 -0.52678E+06
 0.72199997E+02 -0.45916E+06
 0.72249992E+02 -0.39650E+06
 0.72299995E+02 -0.33736E+06
 0.72349998E+02 -0.27919E+06
 0.72399994E+02 -0.22507E+06
 0.72449997E+02 -0.17567E+06
 0.72499992E+02 -0.12271E+06
 0.72549995E+02 -0.64165E+05
 0.72599998E+02 -0.39635E+04
 0.72649994E+02  0.58511E+05
 0.72699997E+02  0.12298E+06
 0.72749992E+02  0.18926E+06
 0.72799995E+02  0.25969E+06
 0.72849998E+02  0.33312E+06
 0.72899994E+02  0.40419E+06
 0.72949997E+02  0.47096E+06
 0.72999992E+02  0.52625E+06
 0.73049995E+02  0.56260E+06
 0.73099998E+02  0.58235E+06
 0.73149994E+02  0.58623E+06
 0.73199997E+02  0.57630E+06
 0.73249992E+02  0.55720E+06
 0.73299995E+02  0.53105E+06
 0.73349998E+02  0.49642E+06
 0.73399994E+02  0.44987E+06
 0.73449997E+02  0.38928E+06
 0.73499992E+02  0.31406E+06
 0.73549995E+02  0.22010E+06
 0.73599998E+02  0.10728E+06
 0.73649994E+02 -0.14266E+05
 0.73699997E+02 -0.13204E+06
 0.73749992E+02 -0.23323E+06
 0.73799995E+02 -0.31034E+06
 0.73849998E+02 -0.36296E+06
 0.73899994E+02 -0.39825E+06
 0.73949997E+02 -0.42302E+06
 0.73999992E+02 -0.43452E+06
 0.74049995E+02 -0.42532E+06
 0.74099998E+02 -0.39848E+06
 0.74149994E+02 -0.36541E+06
 0.74199997E+02 -0.33332E+06
 0.74249992E+02 -0.30880E+06
 0.74299995E+02 -0.29827E+06
 0.74349998E+02 -0.30303E+06
 0.74399994E+02 -0.32213E+06
 0.74449997E+02 -0.35302E+06
 0.74499992E+02 -0.39062E+06
 0.74549995E+02 -0.43026E+06
 0.74599998E+02 -0.46388E+06
 0.74649994E+02 -0.48417E+06
 0.74699997E+02 -0.48646E+06
 0.74749992E+02 -0.46686E+06
 0.74799995E+02 -0.42194E+06
 0.74849998E+02 -0.35010E+06
 0.74899994E+02 -0.25791E+06
 0.74949997E+02 -0.16118E+06
 0.74999992E+02 -0.70520E+05
 0.75049995E+02  0.14069E+05
 0.75099998E+02  0.89702E+05
 0.75149994E+02  0.14780E+06
 0.75199997E+02  0.18649E+06
 0.75249992E+02  0.21557E+06
 0.75299995E+02  0.24058E+06
 0.75349998E+02  0.26197E+06
 0.75399994E+02  0.28153E+06
 0.75449997E+02  0.29926E+06
 0.75499992E+02  0.31654E+06
 0.75549995E+02  0.33323E+06
 0.75599998E+02  0.34811E+06
 0.75649994E+02  0.36066E+06
 0.75699997E+02  0.37078E+06
 0.75749992E+02  0.37960E+06
 0.75799995E+02  0.38893E+06
 0.75849998E+02  0.39751E+06
 0.75899994E+02  0.40144E+06
 0.75949997E+02  0.39758E+06
 0.75999992E+02  0.37869E+06
 0.76049995E+02  0.33831E+06
 0.76099998E+02  0.27786E+06
 0.76149994E+02  0.20191E+06
 0.76199997E+02  0.11569E+06
 0.76249992E+02  0.25302E+05
 0.76299995E+02 -0.58782E+05
 0.76349998E+02 -0.12647E+06
 0.76399994E+02 -0.17270E+06
 0.76449997E+02 -0.19928E+06
 0.76499992E+02 -0.21361E+06
 0.76549995E+02 -0.21658E+06
 0.76599998E+02 -0.20787E+06
 0.76649994E+02 -0.18907E+06
 0.76699997E+02 -0.16474E+06
 0.76749992E+02 -0.14088E+06
 0.76799995E+02 -0.12029E+06
 0.76849998E+02 -0.10429E+06
 0.76899994E+02 -0.93774E+05
 0.76949997E+02 -0.90438E+05
 0.76999992E+02 -0.93623E+05
 0.77049995E+02 -0.10056E+06
 0.77099998E+02 -0.10335E+06
 0.77149994E+02 -0.88843E+05
 0.77199997E+02 -0.49896E+05
 0.77249992E+02  0.77209E+04
 0.77299995E+02  0.72876E+05
 0.77349998E+02  0.13844E+06
 0.77399994E+02  0.19720E+06
 0.77449997E+02  0.24382E+06
 0.77499992E+02  0.27690E+06
 0.77549995E+02  0.29839E+06
 0.77599998E+02  0.31325E+06
 0.77649994E+02  0.32122E+06
 0.77699997E+02  0.31755E+06
 0.77749992E+02  0.30126E+06
 0.77799995E+02  0.27305E+06
 0.77849998E+02  0.23034E+06
 0.77899994E+02  0.17982E+06
 0.77949997E+02  0.13279E+06
 0.77999992E+02  0.92913E+05
 0.78049995E+02  0.53143E+05
 0.78099998E+02  0.90377E+04
 0.78149994E+02 -0.33231E+05
 0.78199997E+02 -0.64631E+05
 0.78249992E+02 -0.76668E+05
 0.78299995E+02 -0.72634E+05
 0.78349998E+02 -0.63063E+05
 0.78399994E+02 -0.57120E+05
 0.78449997E+02 -0.58314E+05
 0.78499992E+02 -0.63075E+05
 0.78549995E+02 -0.69316E+05
 0.78599998E+02 -0.82790E+05
 0.78649994E+02 -0.10378E+06
 0.78699997E+02 -0.12180E+06
 0.78749992E+02 -0.12154E+06
 0.78799995E+02 -0.99270E+05
 0.78849998E+02 -0.67968E+05
 0.78899994E+02 -0.39495E+05
 0.78949997E+02 -0.20310E+05
 0.78999992E+02 -0.93695E+04
 0.79049995E+02 -0.17335E+04
 0.79099998E+02  0.55364E+04
 0.79149994E+02  0.95914E+04
 0.79199997E+02  0.79934E+04
 0.79249992E+02 -0.31011E+04
 0.79299995E+02 -0.29146E+05
 0.79349998E+02 -0.69783E+05
 0.79399994E+02 -0.11926E+06
 0.79449997E+02 -0.16994E+06
 0.79499992E+02 -0.21670E+06
 0.79549995E+02 -0.25465E+06
 0.79599998E+02 -0.28394E+06
 0.79649994E+02 -0.30438E+06
 0.79699997E+02 -0.31069E+06
 0.79749992E+02 -0.30293E+06
 0.79799995E+02 -0.28398E+06
 0.79849998E+02 -0.25594E+06
 0.79899994E+02 -0.22002E+06
 0.79949997E+02 -0.17965E+06
 0.79999992E+02 -0.13705E+06
 0.80049995E+02 -0.89562E+05
 0.80099998E+02 -0.38912E+05
 0.80149994E+02  0.82051E+04
 0.80199997E+02  0.46610E+05
 0.80249992E+02  0.77082E+05
 0.80299995E+02  0.10404E+06
 0.80349998E+02  0.13339E+06
 0.80399994E+02  0.16693E+06
 0.80449997E+02  0.20593E+06
 0.80499992E+02  0.24831E+06
 0.80549995E+02  0.28570E+06
 0.80599998E+02  0.31086E+06
 0.80649994E+02  0.32020E+06
 0.80699997E+02  0.31454E+06
 0.80749992E+02  0.29166E+06
 0.80799995E+02  0.24727E+06
 0.80849998E+02  0.17993E+06
 0.80899994E+02  0.92583E+05
 0.80949997E+02 -0.90129E+04
 0.80999992E+02 -0.11876E+06
 0.81049995E+02 -0.22657E+06
 0.81099998E+02 -0.32391E+06
 0.81149994E+02 -0.40776E+06
 0.81199997E+02 -0.47700E+06
 0.81249992E+02 -0.52598E+06
 0.81299995E+02 -0.54969E+06
 0.81349998E+02 -0.55011E+06
 0.81399994E+02 -0.53032E+06
 0.81449997E+02 -0.49286E+06
 0.81499992E+02 -0.43682E+06
 0.81549995E+02 -0.36393E+06
 0.81599998E+02 -0.28180E+06
 0.81649994E+02 -0.19518E+06
 0.81699997E+02 -0.10523E+06
 0.81749992E+02 -0.13092E+05
 0.81799995E+02  0.78527E+05
 0.81849998E+02  0.16495E+06
 0.81899994E+02  0.24308E+06
 0.81949997E+02  0.30694E+06
 0.81999992E+02  0.35051E+06
 0.82049995E+02  0.37367E+06
 0.82099998E+02  0.38078E+06
 0.82149994E+02  0.37866E+06
 0.82199997E+02  0.37120E+06
 0.82249992E+02  0.35915E+06
 0.82299995E+02  0.34124E+06
 0.82349998E+02  0.31994E+06
 0.82399994E+02  0.29851E+06
 0.82449997E+02  0.27549E+06
 0.82499992E+02  0.24900E+06
 0.82549995E+02  0.22098E+06
 0.82599998E+02  0.19377E+06
 0.82649994E+02  0.16837E+06
 0.82699997E+02  0.14909E+06
 0.82749992E+02  0.14063E+06
 0.82799995E+02  0.14463E+06
 0.82849998E+02  0.15866E+06
 0.82899994E+02  0.18007E+06
 0.82949997E+02  0.20593E+06
 0.82999992E+02  0.23519E+06
 0.83049995E+02  0.26284E+06
 0.83099998E+02  0.28257E+06
 0.83149994E+02  0.28884E+06
 0.83199997E+02  0.27694E+06
 0.83249992E+02  0.24837E+06
 0.83299995E+02  0.20349E+06
 0.83349998E+02  0.14455E+06
 0.83399994E+02  0.74795E+05
 0.83449997E+02 -0.40282E+04
 0.83499992E+02 -0.91361E+05
 0.83549995E+02 -0.18669E+06
 0.83599998E+02 -0.28784E+06
 0.83649994E+02 -0.38920E+06
 0.83699997E+02 -0.48260E+06
 0.83749992E+02 -0.56076E+06
 0.83799995E+02 -0.62017E+06
 0.83849998E+02 -0.66223E+06
 0.83899994E+02 -0.69030E+06
 0.83949997E+02 -0.70394E+06
 0.83999992E+02 -0.70139E+06
 0.84049995E+02 -0.67849E+06
 0.84099998E+02 -0.62902E+06
 0.84149994E+02 -0.55162E+06
 0.84199997E+02 -0.44957E+06
 0.84249992E+02 -0.32838E+06
 0.84299995E+02 -0.19450E+06
 0.84349998E+02 -0.55012E+05
 0.84399994E+02  0.86396E+05
 0.84449997E+02  0.22586E+06
 0.84499992E+02  0.35694E+06
 0.84549995E+02  0.47244E+06
 0.84599998E+02  0.56673E+06
 0.84649994E+02  0.63801E+06
 0.84699997E+02  0.68765E+06
 0.84749992E+02  0.71983E+06
 0.84799995E+02  0.73921E+06
 0.84849998E+02  0.74888E+06
 0.84899994E+02  0.75000E+06
 0.84949997E+02  0.74261E+06
 0.84999992E+02  0.72233E+06
 0.85049995E+02  0.68441E+06
 0.85099998E+02  0.62815E+06
 0.85149994E+02  0.55236E+06
 0.85199997E+02  0.45610E+06
 0.85249992E+02  0.33873E+06
 0.85299995E+02  0.20167E+06
 0.85349998E+02  0.54548E+05
 0.85399994E+02 -0.90547E+05
 0.85449997E+02 -0.22738E+06
 0.85499992E+02 -0.35325E+06
 0.85549995E+02 -0.46459E+06
 0.85599998E+02 -0.55855E+06
 0.85649994E+02 -0.63357E+06
 0.85699997E+02 -0.68913E+06
 0.85749992E+02 -0.72707E+06
 0.85799995E+02 -0.74792E+06
 0.85849998E+02 -0.75329E+06
 0.85899994E+02 -0.74779E+06
 0.85949997E+02 -0.73477E+06
 0.85999992E+02 -0.71389E+06
 0.86049995E+02 -0.68311E+06
 0.86099998E+02 -0.64051E+06
 0.86149994E+02 -0.58620E+06
 0.86199997E+02 -0.52127E+06
 0.86249992E+02 -0.44673E+06
 0.86299995E+02 -0.36448E+06
 0.86349998E+02 -0.27696E+06
 0.86399994E+02 -0.18693E+06
 0.86449997E+02 -0.94554E+05
 0.86499992E+02 -0.24171E+04
 0.86549995E+02  0.80354E+05
 0.86599998E+02  0.14614E+06
 0.86649994E+02  0.19439E+06
 0.86699997E+02  0.22743E+06
 0.86749992E+02  0.24839E+06
 0.86799995E+02  0.26104E+06
 0.86849998E+02  0.27027E+06
 0.86899994E+02  0.27743E+06
 0.86949997E+02  0.28277E+06
 0.86999992E+02  0.28904E+06
 0.87049995E+02  0.29625E+06
 0.87099998E+02  0.30422E+06
 0.87149994E+02  0.31346E+06
 0.87199997E+02  0.32294E+06
 0.87249992E+02  0.33181E+06
 0.87299995E+02  0.33901E+06
 0.87349998E+02  0.34300E+06
 0.87399994E+02  0.34236E+06
 0.87449997E+02  0.33499E+06
 0.87499992E+02  0.32171E+06
 0.87549995E+02  0.30332E+06
 0.87599991E+02  0.27981E+06
 0.87649994E+02  0.25304E+06
 0.87699997E+02  0.22523E+06
 0.87749992E+02  0.20048E+06
 0.87799995E+02  0.18394E+06
 0.87849991E+02  0.17960E+06
 0.87899994E+02  0.18797E+06
 0.87949997E+02  0.20548E+06
 0.87999992E+02  0.22689E+06
 0.88049995E+02  0.24617E+06
 0.88099991E+02  0.25816E+06
 0.88149994E+02  0.25945E+06
 0.88199997E+02  0.24835E+06
 0.88249992E+02  0.22518E+06
 0.88299995E+02  0.19298E+06
 0.88349991E+02  0.15172E+06
 0.88399994E+02  0.10222E+06
 0.88449997E+02  0.49762E+05
 0.88499992E+02 -0.60506E+03
 0.88549995E+02 -0.43641E+05
 0.88599991E+02 -0.78292E+05
 0.88649994E+02 -0.10528E+06
 0.88699997E+02 -0.12743E+06
 0.88749992E+02 -0.14811E+06
 0.88799995E+02 -0.16609E+06
 0.88849991E+02 -0.17921E+06
 0.88899994E+02 -0.18660E+06
 0.88949997E+02 -0.19069E+06
 0.88999992E+02 -0.19571E+06
 0.89049995E+02 -0.20345E+06
 0.89099991E+02 -0.21303E+06
 0.89149994E+02 -0.22322E+06
 0.89199997E+02 -0.23218E+06
 0.89249992E+02 -0.23667E+06
 0.89299995E+02 -0.23313E+06
 0.89349991E+02 -0.21951E+06
 0.89399994E+02 -0.19996E+06
 0.89449997E+02 -0.17935E+06
 0.89499992E+02 -0.16100E+06
 0.89549995E+02 -0.15015E+06
 0.89599991E+02 -0.14899E+06
 0.89649994E+02 -0.15639E+06
 0.89699997E+02 -0.17200E+06
 0.89749992E+02 -0.19488E+06
 0.89799995E+02 -0.22165E+06
 0.89849991E+02 -0.24676E+06
 0.89899994E+02 -0.26210E+06
 0.89949997E+02 -0.26002E+06
 0.89999992E+02 -0.23815E+06
 0.90049995E+02 -0.20037E+06
 0.90099991E+02 -0.15111E+06
 0.90149994E+02 -0.95193E+05
 0.90199997E+02 -0.37137E+05
 0.90249992E+02  0.20218E+05
 0.90299995E+02  0.73747E+05
 0.90349991E+02  0.12077E+06
 0.90399994E+02  0.15866E+06
 0.90449997E+02  0.18530E+06
 0.90499992E+02  0.19770E+06
 0.90549995E+02  0.19502E+06
 0.90599991E+02  0.17870E+06
 0.90649994E+02  0.15102E+06
 0.90699997E+02  0.11721E+06
 0.90749992E+02  0.80695E+05
 0.90799995E+02  0.42459E+05
 0.90849991E+02  0.20462E+04
 0.90899994E+02 -0.41725E+05
 0.90949997E+02 -0.86986E+05
 0.90999992E+02 -0.12894E+06
 0.91049995E+02 -0.16292E+06
 0.91099991E+02 -0.18596E+06
 0.91149994E+02 -0.19893E+06
 0.91199997E+02 -0.20311E+06
 0.91249992E+02 -0.19784E+06
 0.91299995E+02 -0.18353E+06
 0.91349991E+02 -0.15967E+06
 0.91399994E+02 -0.12786E+06
 0.91449997E+02 -0.91131E+05
 0.91499992E+02 -0.52881E+05
 0.91549995E+02 -0.17689E+05
 0.91599991E+02  0.12576E+05
 0.91649994E+02  0.36924E+05
 0.91699997E+02  0.54288E+05
 0.91749992E+02  0.64012E+05
 0.91799995E+02  0.64471E+05
 0.91849991E+02  0.54014E+05
 0.91899994E+02  0.31580E+05
 0.91949997E+02 -0.14458E+04
 0.91999992E+02 -0.41462E+05
 0.92049995E+02 -0.85428E+05
 0.92099991E+02 -0.12927E+06
 0.92149994E+02 -0.16747E+06
 0.92199997E+02 -0.19578E+06
 0.92249992E+02 -0.21103E+06
 0.92299995E+02 -0.21212E+06
 0.92349991E+02 -0.20025E+06
 0.92399994E+02 -0.17566E+06
 0.92449997E+02 -0.14034E+06
 0.92499992E+02 -0.99794E+05
 0.92549995E+02 -0.57760E+05
 0.92599991E+02 -0.15197E+05
 0.92649994E+02  0.25592E+05
 0.92699997E+02  0.62113E+05
 0.92749992E+02  0.92887E+05
 0.92799995E+02  0.11798E+06
 0.92849991E+02  0.13809E+06
 0.92899994E+02  0.15480E+06
 0.92949997E+02  0.17079E+06
 0.92999992E+02  0.18637E+06
 0.93049995E+02  0.20176E+06
 0.93099991E+02  0.21977E+06
 0.93149994E+02  0.24085E+06
 0.93199997E+02  0.26175E+06
 0.93249992E+02  0.27970E+06
 0.93299995E+02  0.29365E+06
 0.93349991E+02  0.30198E+06
 0.93399994E+02  0.30138E+06
 0.93449997E+02  0.28888E+06
 0.93499992E+02  0.26153E+06
 0.93549995E+02  0.21720E+06
 0.93599991E+02  0.15591E+06
 0.93649994E+02  0.82231E+05
 0.93699997E+02  0.40109E+04
 0.93749992E+02 -0.72365E+05
 0.93799995E+02 -0.14280E+06
 0.93849991E+02 -0.20244E+06
 0.93899994E+02 -0.24621E+06
 0.93949997E+02 -0.27369E+06
 0.93999992E+02 -0.28606E+06
 0.94049995E+02 -0.28392E+06
 0.94099991E+02 -0.26609E+06
 0.94149994E+02 -0.23197E+06
 0.94199997E+02 -0.18432E+06
 0.94249992E+02 -0.12476E+06
 0.94299995E+02 -0.56366E+05
 0.94349991E+02  0.16142E+05
 0.94399994E+02  0.89091E+05
 0.94449997E+02  0.15969E+06
 0.94499992E+02  0.22591E+06
 0.94549995E+02  0.28616E+06
 0.94599991E+02  0.34071E+06
 0.94649994E+02  0.38978E+06
 0.94699997E+02  0.43137E+06
 0.94749992E+02  0.46008E+06
 0.94799995E+02  0.47056E+06
 0.94849991E+02  0.46206E+06
 0.94899994E+02  0.43515E+06
 0.94949997E+02  0.39096E+06
 0.94999992E+02  0.33277E+06
 0.95049995E+02  0.26272E+06
 0.95099991E+02  0.18240E+06
 0.95149994E+02  0.96186E+05
 0.95199997E+02  0.89445E+04
 0.95249992E+02 -0.72595E+05
 0.95299995E+02 -0.14296E+06
 0.95349991E+02 -0.19991E+06
 0.95399994E+02 -0.24257E+06
 0.95449997E+02 -0.27314E+06
 0.95499992E+02 -0.29236E+06
 0.95549995E+02 -0.29936E+06
 0.95599991E+02 -0.29399E+06
 0.95649994E+02 -0.27651E+06
 0.95699997E+02 -0.24605E+06
 0.95749992E+02 -0.20259E+06
 0.95799995E+02 -0.15027E+06
 0.95849991E+02 -0.94905E+05
 0.95899994E+02 -0.41033E+05
 0.95949997E+02  0.87242E+04
 0.95999992E+02  0.52790E+05
 0.96049995E+02  0.91244E+05
 0.96099991E+02  0.12483E+06
 0.96149994E+02  0.15479E+06
 0.96199997E+02  0.18190E+06
 0.96249992E+02  0.20386E+06
 0.96299995E+02  0.21792E+06
 0.96349991E+02  0.22282E+06
 0.96399994E+02  0.21910E+06
 0.96449997E+02  0.20879E+06
 0.96499992E+02  0.19509E+06
 0.96549995E+02  0.18076E+06
 0.96599991E+02  0.16664E+06
 0.96649994E+02  0.14992E+06
 0.96699997E+02  0.12540E+06
 0.96749992E+02  0.90563E+05
 0.96799995E+02  0.47662E+05
 0.96849991E+02  0.12389E+04
 0.96899994E+02 -0.45385E+05
 0.96949997E+02 -0.91543E+05
 0.96999992E+02 -0.13658E+06
 0.97049995E+02 -0.17947E+06
 0.97099991E+02 -0.21947E+06
 0.97149994E+02 -0.25465E+06
 0.97199997E+02 -0.28322E+06
 0.97249992E+02 -0.30236E+06
 0.97299995E+02 -0.30998E+06
 0.97349991E+02 -0.30847E+06
 0.97399994E+02 -0.30198E+06
 0.97449997E+02 -0.29476E+06
 0.97499992E+02 -0.29004E+06
 0.97549995E+02 -0.28802E+06
 0.97599991E+02 -0.28451E+06
 0.97649994E+02 -0.27487E+06
 0.97699997E+02 -0.25641E+06
 0.97749992E+02 -0.22927E+06
 0.97799995E+02 -0.19854E+06
 0.97849991E+02 -0.16763E+06
 0.97899994E+02 -0.13710E+06
 0.97949997E+02 -0.10761E+06
 0.97999992E+02 -0.78186E+05
