-0.20000000E+01 -0.33266E+05
-0.19500000E+01 -0.35647E+05
-0.19000000E+01 -0.37913E+05
-0.18500000E+01 -0.39509E+05
-0.18000000E+01 -0.40442E+05
-0.17500000E+01 -0.40994E+05
-0.17000000E+01 -0.40799E+05
-0.16500001E+01 -0.39555E+05
-0.16000000E+01 -0.36842E+05
-0.15500000E+01 -0.32418E+05
-0.15000000E+01 -0.25953E+05
-0.14500000E+01 -0.17851E+05
-0.14000001E+01 -0.87723E+04
-0.13500000E+01  0.12721E+04
-0.13000001E+01  0.11898E+05
-0.12500000E+01  0.22697E+05
-0.12000000E+01  0.33078E+05
-0.11500001E+01  0.42444E+05
-0.11000000E+01  0.50331E+05
-0.10500001E+01  0.55786E+05
-0.10000000E+01  0.59489E+05
-0.95000005E+00  0.61156E+05
-0.90000010E+00  0.60718E+05
-0.85000002E+00  0.58499E+05
-0.80000007E+00  0.54256E+05
-0.75000012E+00  0.48898E+05
-0.70000005E+00  0.42444E+05
-0.65000010E+00  0.34916E+05
-0.60000014E+00  0.27058E+05
-0.55000007E+00  0.19690E+05
-0.50000012E+00  0.12529E+05
-0.45000005E+00  0.59541E+04
-0.40000010E+00 -0.57622E+01
-0.35000014E+00 -0.58534E+04
-0.30000007E+00 -0.11268E+05
-0.25000012E+00 -0.15989E+05
-0.20000005E+00 -0.20426E+05
-0.15000010E+00 -0.24086E+05
-0.10000014E+00 -0.26875E+05
-0.50000072E-01 -0.29516E+05
-0.11920929E-06 -0.31422E+05
 0.49999952E-01 -0.32451E+05
 0.99999905E-01 -0.32214E+05
 0.14999986E+00 -0.30515E+05
 0.19999981E+00 -0.28233E+05
 0.24999976E+00 -0.25377E+05
 0.29999995E+00 -0.21833E+05
 0.34999990E+00 -0.18199E+05
 0.39999986E+00 -0.14341E+05
 0.44999981E+00 -0.10182E+05
 0.49999976E+00 -0.58160E+04
 0.54999995E+00 -0.16583E+04
 0.59999990E+00  0.21073E+04
 0.64999986E+00  0.51694E+04
 0.69999981E+00  0.77574E+04
 0.74999976E+00  0.10645E+05
 0.79999971E+00  0.13538E+05
 0.84999990E+00  0.16985E+05
 0.89999986E+00  0.20851E+05
 0.94999981E+00  0.24738E+05
 0.99999976E+00  0.28972E+05
 0.10499997E+01  0.32363E+05
 0.10999999E+01  0.34789E+05
 0.11499999E+01  0.35793E+05
 0.11999998E+01  0.35635E+05
 0.12499998E+01  0.35482E+05
 0.12999997E+01  0.34969E+05
 0.13499999E+01  0.34196E+05
 0.13999999E+01  0.32496E+05
 0.14499998E+01  0.30224E+05
 0.14999998E+01  0.27248E+05
 0.15499997E+01  0.24578E+05
 0.15999999E+01  0.22614E+05
 0.16499999E+01  0.21363E+05
 0.16999998E+01  0.20814E+05
 0.17499998E+01  0.20323E+05
 0.17999997E+01  0.20355E+05
 0.18499997E+01  0.20751E+05
 0.18999999E+01  0.21421E+05
 0.19499998E+01  0.22285E+05
 0.19999998E+01  0.23636E+05
 0.20499997E+01  0.25328E+05
 0.20999999E+01  0.27548E+05
 0.21499996E+01  0.29324E+05
 0.21999998E+01  0.30683E+05
 0.22499995E+01  0.31201E+05
 0.22999997E+01  0.30605E+05
 0.23499999E+01  0.29033E+05
 0.23999996E+01  0.26359E+05
 0.24499998E+01  0.22990E+05
 0.24999995E+01  0.19156E+05
 0.25499997E+01  0.14999E+05
 0.25999999E+01  0.10419E+05
 0.26499996E+01  0.60235E+04
 0.26999998E+01  0.20780E+04
 0.27499995E+01 -0.10064E+04
 0.27999997E+01 -0.36607E+04
 0.28499999E+01 -0.60898E+04
 0.28999996E+01 -0.82754E+04
 0.29499998E+01 -0.10355E+05
 0.29999995E+01 -0.12268E+05
 0.30499997E+01 -0.14056E+05
 0.30999999E+01 -0.15443E+05
 0.31499996E+01 -0.16528E+05
 0.31999998E+01 -0.17411E+05
 0.32499995E+01 -0.18363E+05
 0.32999997E+01 -0.19342E+05
 0.33499999E+01 -0.20692E+05
 0.33999996E+01 -0.22265E+05
 0.34499998E+01 -0.23689E+05
 0.34999995E+01 -0.25404E+05
 0.35499997E+01 -0.27245E+05
 0.35999994E+01 -0.29337E+05
 0.36499996E+01 -0.31858E+05
 0.36999998E+01 -0.34163E+05
 0.37499995E+01 -0.36560E+05
 0.37999997E+01 -0.38776E+05
 0.38499994E+01 -0.40066E+05
 0.38999996E+01 -0.40858E+05
 0.39499998E+01 -0.40916E+05
 0.39999995E+01 -0.40529E+05
 0.40499997E+01 -0.39539E+05
 0.40999994E+01 -0.37570E+05
 0.41499996E+01 -0.34214E+05
 0.41999998E+01 -0.29337E+05
 0.42499995E+01 -0.23207E+05
 0.42999997E+01 -0.16734E+05
 0.43499994E+01 -0.10486E+05
 0.43999996E+01 -0.50060E+04
 0.44499998E+01 -0.59866E+03
 0.44999995E+01  0.37533E+04
 0.45499997E+01  0.78146E+04
 0.45999994E+01  0.12100E+05
 0.46499996E+01  0.16352E+05
 0.46999998E+01  0.20370E+05
 0.47499995E+01  0.24469E+05
 0.47999997E+01  0.28326E+05
 0.48499994E+01  0.32296E+05
 0.48999996E+01  0.36088E+05
 0.49499998E+01  0.39590E+05
 0.49999995E+01  0.42683E+05
 0.50499997E+01  0.45097E+05
 0.50999994E+01  0.46415E+05
 0.51499996E+01  0.46835E+05
 0.51999998E+01  0.47182E+05
 0.52499995E+01  0.47440E+05
 0.52999997E+01  0.47077E+05
 0.53499994E+01  0.46493E+05
 0.53999996E+01  0.45018E+05
 0.54499993E+01  0.42497E+05
 0.54999995E+01  0.39503E+05
 0.55499997E+01  0.36413E+05
 0.55999994E+01  0.33571E+05
 0.56499996E+01  0.30827E+05
 0.56999993E+01  0.28276E+05
 0.57499995E+01  0.26045E+05
 0.57999997E+01  0.23738E+05
 0.58499994E+01  0.21248E+05
 0.58999996E+01  0.19240E+05
 0.59499993E+01  0.16785E+05
 0.59999995E+01  0.14094E+05
 0.60499992E+01  0.10620E+05
 0.60999994E+01  0.67871E+04
 0.61499996E+01  0.26855E+04
 0.61999998E+01 -0.21673E+04
 0.62499990E+01 -0.76559E+04
 0.62999992E+01 -0.13174E+05
 0.63499994E+01 -0.18038E+05
 0.63999996E+01 -0.22810E+05
 0.64499998E+01 -0.27530E+05
 0.64999990E+01 -0.32480E+05
 0.65499992E+01 -0.37332E+05
 0.65999994E+01 -0.41782E+05
 0.66499996E+01 -0.45844E+05
 0.66999998E+01 -0.49132E+05
 0.67499990E+01 -0.51435E+05
 0.67999992E+01 -0.52878E+05
 0.68499994E+01 -0.53553E+05
 0.68999996E+01 -0.53526E+05
 0.69499998E+01 -0.52956E+05
 0.69999990E+01 -0.51689E+05
 0.70499992E+01 -0.49592E+05
 0.70999994E+01 -0.46943E+05
 0.71499996E+01 -0.42852E+05
 0.71999998E+01 -0.37684E+05
 0.72499990E+01 -0.31121E+05
 0.72999992E+01 -0.23184E+05
 0.73499994E+01 -0.14380E+05
 0.73999996E+01 -0.47780E+04
 0.74499998E+01  0.46033E+04
 0.74999990E+01  0.13714E+05
 0.75499992E+01  0.22039E+05
 0.75999994E+01  0.29464E+05
 0.76499996E+01  0.35952E+05
 0.76999998E+01  0.41737E+05
 0.77499990E+01  0.47252E+05
 0.77999992E+01  0.51964E+05
 0.78499994E+01  0.55287E+05
 0.78999996E+01  0.56770E+05
 0.79499998E+01  0.56041E+05
 0.79999990E+01  0.52941E+05
 0.80499992E+01  0.47883E+05
 0.80999994E+01  0.41056E+05
 0.81499996E+01  0.32822E+05
 0.81999998E+01  0.23415E+05
 0.82499990E+01  0.13394E+05
 0.82999992E+01  0.30825E+04
 0.83499994E+01 -0.69556E+04
 0.83999996E+01 -0.16101E+05
 0.84499998E+01 -0.24257E+05
 0.84999990E+01 -0.30553E+05
 0.85499992E+01 -0.35058E+05
 0.85999994E+01 -0.37288E+05
 0.86499996E+01 -0.37104E+05
 0.86999998E+01 -0.34711E+05
 0.87499990E+01 -0.29949E+05
 0.87999992E+01 -0.23103E+05
 0.88499994E+01 -0.14528E+05
 0.88999996E+01 -0.49238E+04
 0.89499998E+01  0.53306E+04
 0.89999990E+01  0.15526E+05
 0.90499992E+01  0.25204E+05
 0.90999994E+01  0.34071E+05
 0.91499996E+01  0.41034E+05
 0.91999989E+01  0.45733E+05
 0.92499990E+01  0.48476E+05
 0.92999992E+01  0.49074E+05
 0.93499994E+01  0.47577E+05
 0.93999996E+01  0.44483E+05
 0.94499989E+01  0.40380E+05
 0.94999990E+01  0.35825E+05
 0.95499992E+01  0.31013E+05
 0.95999994E+01  0.25993E+05
 0.96499996E+01  0.20962E+05
 0.96999989E+01  0.15823E+05
 0.97499990E+01  0.10537E+05
 0.97999992E+01  0.48393E+04
 0.98499994E+01 -0.14299E+04
 0.98999996E+01 -0.80331E+04
 0.99499989E+01 -0.14714E+05
 0.99999990E+01 -0.21006E+05
 0.10049999E+02 -0.26611E+05
 0.10099999E+02 -0.30979E+05
 0.10150000E+02 -0.34165E+05
 0.10199999E+02 -0.35898E+05
 0.10249999E+02 -0.35839E+05
 0.10299999E+02 -0.33994E+05
 0.10349999E+02 -0.30128E+05
 0.10400000E+02 -0.24719E+05
 0.10449999E+02 -0.18038E+05
 0.10499999E+02 -0.10694E+05
 0.10549999E+02 -0.25779E+04
 0.10599999E+02  0.58499E+04
 0.10650000E+02  0.14562E+05
 0.10699999E+02  0.22790E+05
 0.10749999E+02  0.29605E+05
 0.10799999E+02  0.34945E+05
 0.10849999E+02  0.38316E+05
 0.10900000E+02  0.40055E+05
 0.10949999E+02  0.39775E+05
 0.10999999E+02  0.37894E+05
 0.11049999E+02  0.34839E+05
 0.11099999E+02  0.31151E+05
 0.11150000E+02  0.27141E+05
 0.11199999E+02  0.23220E+05
 0.11249999E+02  0.19096E+05
 0.11299999E+02  0.15490E+05
 0.11349999E+02  0.12555E+05
 0.11400000E+02  0.10581E+05
 0.11449999E+02  0.10110E+05
 0.11499999E+02  0.10557E+05
 0.11549999E+02  0.11570E+05
 0.11599999E+02  0.12226E+05
 0.11650000E+02  0.12883E+05
 0.11699999E+02  0.12768E+05
 0.11749999E+02  0.12265E+05
 0.11799999E+02  0.11746E+05
 0.11849999E+02  0.11005E+05
 0.11900000E+02  0.10388E+05
 0.11949999E+02  0.96346E+04
 0.11999999E+02  0.84277E+04
 0.12049999E+02  0.67159E+04
 0.12099999E+02  0.45099E+04
 0.12150000E+02  0.24870E+04
 0.12199999E+02  0.12586E+04
 0.12249999E+02  0.23001E+03
 0.12299999E+02 -0.73274E+03
 0.12349999E+02 -0.20210E+04
 0.12400000E+02 -0.36399E+04
 0.12449999E+02 -0.56942E+04
 0.12499999E+02 -0.82493E+04
 0.12549999E+02 -0.11107E+05
 0.12599999E+02 -0.13854E+05
 0.12649999E+02 -0.16318E+05
 0.12699999E+02 -0.18257E+05
 0.12749999E+02 -0.18998E+05
 0.12799999E+02 -0.19177E+05
 0.12849999E+02 -0.18626E+05
 0.12899999E+02 -0.17870E+05
 0.12949999E+02 -0.17740E+05
 0.12999999E+02 -0.17904E+05
 0.13049999E+02 -0.18522E+05
 0.13099999E+02 -0.19302E+05
 0.13149999E+02 -0.20318E+05
 0.13199999E+02 -0.21622E+05
 0.13249999E+02 -0.23496E+05
 0.13299999E+02 -0.25637E+05
 0.13349999E+02 -0.27821E+05
 0.13399999E+02 -0.30070E+05
 0.13449999E+02 -0.31868E+05
 0.13499999E+02 -0.33029E+05
 0.13549999E+02 -0.33502E+05
 0.13599999E+02 -0.33210E+05
 0.13649999E+02 -0.32202E+05
 0.13699999E+02 -0.30367E+05
 0.13749999E+02 -0.27373E+05
 0.13799999E+02 -0.23236E+05
 0.13849999E+02 -0.18165E+05
 0.13899999E+02 -0.12285E+05
 0.13949999E+02 -0.61465E+04
 0.13999999E+02 -0.43957E+03
 0.14049999E+02  0.43848E+04
 0.14099998E+02  0.80062E+04
 0.14150000E+02  0.10326E+05
 0.14199999E+02  0.11425E+05
 0.14249998E+02  0.11654E+05
 0.14299999E+02  0.11373E+05
 0.14349998E+02  0.10772E+05
 0.14400000E+02  0.99905E+04
 0.14449999E+02  0.93026E+04
 0.14499998E+02  0.84069E+04
 0.14549999E+02  0.76477E+04
 0.14599998E+02  0.68940E+04
 0.14650000E+02  0.59897E+04
 0.14699999E+02  0.49184E+04
 0.14749998E+02  0.32328E+04
 0.14799999E+02  0.11875E+04
 0.14849998E+02 -0.86937E+03
 0.14900000E+02 -0.28915E+04
 0.14949999E+02 -0.38501E+04
 0.14999998E+02 -0.42875E+04
 0.15049999E+02 -0.42259E+04
 0.15099998E+02 -0.33125E+04
 0.15150000E+02 -0.17808E+04
 0.15199999E+02  0.82148E+03
 0.15249998E+02  0.40367E+04
 0.15299999E+02  0.78622E+04
 0.15349998E+02  0.11977E+05
 0.15400000E+02  0.16706E+05
 0.15449999E+02  0.21860E+05
 0.15499998E+02  0.26989E+05
 0.15549999E+02  0.31484E+05
 0.15599998E+02  0.34818E+05
 0.15650000E+02  0.37010E+05
 0.15699999E+02  0.38439E+05
 0.15749998E+02  0.39532E+05
 0.15799999E+02  0.40393E+05
 0.15849998E+02  0.40911E+05
 0.15900000E+02  0.40690E+05
 0.15949999E+02  0.39729E+05
 0.15999998E+02  0.38055E+05
 0.16049999E+02  0.36055E+05
 0.16099998E+02  0.34229E+05
 0.16150000E+02  0.33193E+05
 0.16199999E+02  0.31949E+05
 0.16249998E+02  0.30545E+05
 0.16299999E+02  0.27917E+05
 0.16349998E+02  0.24734E+05
 0.16400000E+02  0.21164E+05
 0.16449999E+02  0.16468E+05
 0.16499998E+02  0.11665E+05
 0.16549999E+02  0.61902E+04
 0.16599998E+02  0.85179E+03
 0.16650000E+02 -0.44559E+04
 0.16699999E+02 -0.90229E+04
 0.16749998E+02 -0.12966E+05
 0.16799999E+02 -0.15925E+05
 0.16849998E+02 -0.18664E+05
 0.16900000E+02 -0.21037E+05
 0.16949999E+02 -0.22999E+05
 0.16999998E+02 -0.25088E+05
 0.17049999E+02 -0.26481E+05
 0.17099998E+02 -0.27820E+05
 0.17150000E+02 -0.29075E+05
 0.17199999E+02 -0.30310E+05
 0.17249998E+02 -0.31241E+05
 0.17299999E+02 -0.32179E+05
 0.17349998E+02 -0.33705E+05
 0.17400000E+02 -0.35118E+05
 0.17449999E+02 -0.36423E+05
 0.17499998E+02 -0.37495E+05
 0.17549999E+02 -0.37930E+05
 0.17599998E+02 -0.38386E+05
 0.17650000E+02 -0.38429E+05
 0.17699999E+02 -0.38762E+05
 0.17749998E+02 -0.39529E+05
 0.17799999E+02 -0.40633E+05
 0.17849998E+02 -0.41897E+05
 0.17900000E+02 -0.42412E+05
 0.17949999E+02 -0.41955E+05
 0.17999998E+02 -0.40422E+05
 0.18049999E+02 -0.37759E+05
 0.18099998E+02 -0.33762E+05
 0.18150000E+02 -0.28649E+05
 0.18199999E+02 -0.22174E+05
 0.18249998E+02 -0.14563E+05
 0.18299999E+02 -0.62929E+04
 0.18349998E+02  0.21678E+04
 0.18400000E+02  0.99673E+04
 0.18449999E+02  0.17434E+05
 0.18499998E+02  0.24344E+05
 0.18549999E+02  0.29787E+05
 0.18599998E+02  0.34437E+05
 0.18650000E+02  0.38110E+05
 0.18699999E+02  0.40883E+05
 0.18749998E+02  0.42735E+05
 0.18799999E+02  0.43882E+05
 0.18849998E+02  0.44375E+05
 0.18900000E+02  0.43988E+05
 0.18949999E+02  0.42779E+05
 0.18999998E+02  0.40639E+05
 0.19049999E+02  0.38119E+05
 0.19099998E+02  0.34894E+05
 0.19150000E+02  0.31632E+05
 0.19199999E+02  0.28601E+05
 0.19249998E+02  0.25499E+05
 0.19299999E+02  0.22914E+05
 0.19349998E+02  0.20521E+05
 0.19400000E+02  0.18357E+05
 0.19449999E+02  0.16643E+05
 0.19499998E+02  0.14983E+05
 0.19549999E+02  0.13629E+05
 0.19599998E+02  0.12638E+05
 0.19650000E+02  0.12021E+05
 0.19699999E+02  0.11722E+05
 0.19749998E+02  0.11620E+05
 0.19799999E+02  0.11508E+05
 0.19849998E+02  0.11117E+05
 0.19900000E+02  0.10716E+05
 0.19949999E+02  0.10375E+05
 0.19999998E+02  0.96396E+04
 0.20049999E+02  0.91134E+04
 0.20099998E+02  0.79308E+04
 0.20150000E+02  0.63790E+04
 0.20199999E+02  0.41675E+04
 0.20249998E+02  0.15226E+04
 0.20299999E+02 -0.14576E+04
 0.20349998E+02 -0.50802E+04
 0.20399998E+02 -0.85933E+04
 0.20449999E+02 -0.12583E+05
 0.20499998E+02 -0.15993E+05
 0.20549999E+02 -0.19389E+05
 0.20599998E+02 -0.22342E+05
 0.20649998E+02 -0.25196E+05
 0.20699999E+02 -0.27996E+05
 0.20749998E+02 -0.30760E+05
 0.20799999E+02 -0.33639E+05
 0.20849998E+02 -0.36570E+05
 0.20899998E+02 -0.39442E+05
 0.20949999E+02 -0.42378E+05
 0.20999998E+02 -0.45521E+05
 0.21049999E+02 -0.48582E+05
 0.21099998E+02 -0.51437E+05
 0.21149998E+02 -0.53582E+05
 0.21199999E+02 -0.54983E+05
 0.21249998E+02 -0.55513E+05
 0.21299999E+02 -0.55226E+05
 0.21349998E+02 -0.53798E+05
 0.21399998E+02 -0.51201E+05
 0.21449999E+02 -0.47200E+05
 0.21499998E+02 -0.41671E+05
 0.21549999E+02 -0.35116E+05
 0.21599998E+02 -0.27002E+05
 0.21649998E+02 -0.17750E+05
 0.21699999E+02 -0.80156E+04
 0.21749998E+02  0.17641E+04
 0.21799999E+02  0.10722E+05
 0.21849998E+02  0.19096E+05
 0.21899998E+02  0.26597E+05
 0.21949999E+02  0.33419E+05
 0.21999998E+02  0.39395E+05
 0.22049999E+02  0.44692E+05
 0.22099998E+02  0.48561E+05
 0.22149998E+02  0.50267E+05
 0.22199999E+02  0.50349E+05
 0.22249998E+02  0.49338E+05
 0.22299999E+02  0.47360E+05
 0.22349998E+02  0.44915E+05
 0.22399998E+02  0.42514E+05
 0.22449999E+02  0.40509E+05
 0.22499998E+02  0.39060E+05
 0.22549999E+02  0.37941E+05
 0.22599998E+02  0.37233E+05
 0.22649998E+02  0.36729E+05
 0.22699999E+02  0.36311E+05
 0.22749998E+02  0.35637E+05
 0.22799999E+02  0.34822E+05
 0.22849998E+02  0.33775E+05
 0.22899998E+02  0.32551E+05
 0.22949999E+02  0.31382E+05
 0.22999998E+02  0.30055E+05
 0.23049999E+02  0.28595E+05
 0.23099998E+02  0.26849E+05
 0.23149998E+02  0.25131E+05
 0.23199999E+02  0.23688E+05
 0.23249998E+02  0.22583E+05
 0.23299999E+02  0.21779E+05
 0.23349998E+02  0.20861E+05
 0.23399998E+02  0.19562E+05
 0.23449999E+02  0.18030E+05
 0.23499998E+02  0.15998E+05
 0.23549999E+02  0.13567E+05
 0.23599998E+02  0.10543E+05
 0.23649998E+02  0.67087E+04
 0.23699999E+02  0.24462E+04
 0.23749998E+02 -0.18668E+04
 0.23799999E+02 -0.60982E+04
 0.23849998E+02 -0.10409E+05
 0.23899998E+02 -0.14705E+05
 0.23949999E+02 -0.19097E+05
 0.23999998E+02 -0.23501E+05
 0.24049999E+02 -0.27420E+05
 0.24099998E+02 -0.30084E+05
 0.24149998E+02 -0.31738E+05
 0.24199999E+02 -0.31838E+05
 0.24249998E+02 -0.29876E+05
 0.24299999E+02 -0.26219E+05
 0.24349998E+02 -0.21682E+05
 0.24399998E+02 -0.16957E+05
 0.24449999E+02 -0.12100E+05
 0.24499998E+02 -0.85198E+04
 0.24549999E+02 -0.67287E+04
 0.24599998E+02 -0.57460E+04
 0.24649998E+02 -0.57339E+04
 0.24699999E+02 -0.22804E+04
 0.24749998E+02  0.48595E+04
 0.24799999E+02  0.10412E+05
 0.24849998E+02  0.16042E+05
 0.24899998E+02  0.21203E+05
 0.24949999E+02  0.21725E+05
 0.24999998E+02  0.26891E+05
 0.25049999E+02  0.37587E+05
 0.25099998E+02  0.42212E+05
 0.25149998E+02  0.52314E+05
 0.25199999E+02  0.72975E+05
 0.25249998E+02  0.79282E+05
 0.25299999E+02  0.69428E+05
 0.25349998E+02  0.69110E+05
 0.25399998E+02  0.65763E+05
 0.25449999E+02  0.45387E+05
 0.25499998E+02  0.46496E+05
 0.25549999E+02  0.70505E+05
 0.25599998E+02  0.57713E+05
 0.25649998E+02  0.46311E+05
 0.25699999E+02  0.87534E+05
 0.25749998E+02  0.96874E+05
 0.25799999E+02  0.70569E+05
 0.25849998E+02  0.94240E+05
 0.25899998E+02  0.11681E+06
 0.25949999E+02  0.87899E+05
 0.25999998E+02  0.66378E+05
 0.26049999E+02  0.50145E+05
 0.26099998E+02  0.24793E+04
 0.26149998E+02 -0.32067E+05
 0.26199999E+02 -0.17215E+05
 0.26249998E+02 -0.13303E+05
 0.26299999E+02 -0.21353E+05
 0.26349998E+02  0.41223E+05
 0.26399998E+02  0.10221E+06
 0.26449999E+02  0.73185E+05
 0.26499998E+02  0.61534E+05
 0.26549999E+02  0.78078E+05
 0.26599998E+02  0.25355E+04
 0.26649998E+02 -0.12695E+06
 0.26699999E+02 -0.24611E+06
 0.26749998E+02 -0.35695E+06
 0.26799999E+02 -0.44171E+06
 0.26849998E+02 -0.54911E+06
 0.26899998E+02 -0.67757E+06
 0.26949999E+02 -0.63955E+06
 0.26999998E+02 -0.47136E+06
 0.27049997E+02 -0.39282E+06
 0.27099998E+02 -0.35462E+06
 0.27149998E+02 -0.20401E+06
 0.27199999E+02  0.14775E+05
 0.27249998E+02  0.12467E+06
 0.27299997E+02  0.22047E+06
 0.27349998E+02  0.35907E+06
 0.27399998E+02  0.38606E+06
 0.27449999E+02  0.44976E+06
 0.27499998E+02  0.56269E+06
 0.27549997E+02  0.49431E+06
 0.27599998E+02  0.38090E+06
 0.27649998E+02  0.37342E+06
 0.27699999E+02  0.31926E+06
 0.27749998E+02  0.15928E+06
 0.27799997E+02  0.29792E+05
 0.27849998E+02 -0.57597E+05
 0.27899998E+02 -0.14241E+06
 0.27949999E+02 -0.17109E+06
 0.27999998E+02 -0.15109E+06
 0.28049997E+02 -0.96651E+05
 0.28099998E+02  0.30702E+05
 0.28149998E+02  0.21589E+06
 0.28199999E+02  0.28938E+06
 0.28249998E+02  0.24022E+06
 0.28299997E+02  0.31311E+06
 0.28349998E+02  0.35596E+06
 0.28399998E+02  0.15886E+06
 0.28449999E+02 -0.16468E+05
 0.28499998E+02 -0.59987E+05
 0.28549997E+02 -0.69290E+05
 0.28599998E+02 -0.12767E+06
 0.28649998E+02 -0.20805E+06
 0.28699999E+02 -0.14846E+06
 0.28749998E+02 -0.18847E+05
 0.28799997E+02 -0.54053E+05
 0.28849998E+02 -0.10826E+06
 0.28899998E+02 -0.93603E+05
 0.28949999E+02 -0.10655E+06
 0.28999998E+02 -0.15866E+06
 0.29049997E+02 -0.23635E+06
 0.29099998E+02 -0.26625E+06
 0.29149998E+02 -0.25260E+06
 0.29199999E+02 -0.24132E+06
 0.29249998E+02 -0.22863E+06
 0.29299997E+02 -0.22651E+06
 0.29349998E+02 -0.21777E+06
 0.29399998E+02 -0.15270E+06
 0.29449999E+02 -0.16448E+06
 0.29499998E+02 -0.25206E+06
 0.29549997E+02 -0.38922E+06
 0.29599998E+02 -0.47489E+06
 0.29649998E+02 -0.51917E+06
 0.29699999E+02 -0.68690E+06
 0.29749998E+02 -0.67136E+06
 0.29799997E+02 -0.41353E+06
 0.29849998E+02 -0.34739E+06
 0.29899998E+02 -0.35601E+06
 0.29949999E+02 -0.19237E+06
 0.29999998E+02 -0.90117E+05
 0.30049999E+02 -0.17779E+06
 0.30099998E+02 -0.15083E+06
 0.30149998E+02 -0.25695E+05
 0.30199997E+02 -0.10979E+06
 0.30249996E+02 -0.90256E+05
 0.30299999E+02  0.14001E+06
 0.30349998E+02  0.25294E+06
 0.30399998E+02  0.29275E+06
 0.30449997E+02  0.44975E+06
 0.30499996E+02  0.54377E+06
 0.30549999E+02  0.58152E+06
 0.30599998E+02  0.65033E+06
 0.30649998E+02  0.61329E+06
 0.30699997E+02  0.62043E+06
 0.30749996E+02  0.61618E+06
 0.30799999E+02  0.53654E+06
 0.30849998E+02  0.49230E+06
 0.30899998E+02  0.44866E+06
 0.30949997E+02  0.35450E+06
 0.30999996E+02  0.10191E+06
 0.31049999E+02 -0.61710E+05
 0.31099998E+02 -0.43143E+05
 0.31149998E+02 -0.47531E+05
 0.31199997E+02 -0.14135E+06
 0.31249996E+02 -0.13266E+06
 0.31299999E+02 -0.70521E+05
 0.31349998E+02 -0.14896E+06
 0.31399998E+02 -0.13757E+06
 0.31449997E+02 -0.12811E+06
 0.31499996E+02 -0.17963E+06
 0.31549999E+02 -0.21021E+06
 0.31599998E+02 -0.29331E+06
 0.31649998E+02 -0.27098E+06
 0.31699997E+02 -0.22970E+06
 0.31749996E+02 -0.35217E+06
 0.31799999E+02 -0.33004E+06
 0.31849998E+02 -0.35449E+06
 0.31899998E+02 -0.60460E+06
 0.31949997E+02 -0.64930E+06
 0.31999996E+02 -0.52490E+06
 0.32049999E+02 -0.57521E+06
 0.32099998E+02 -0.56895E+06
 0.32149998E+02 -0.36606E+06
 0.32199997E+02 -0.11378E+06
 0.32249996E+02  0.99257E+05
 0.32299999E+02  0.20726E+06
 0.32349998E+02  0.42702E+06
 0.32399998E+02  0.69592E+06
 0.32449997E+02  0.77333E+06
 0.32499996E+02  0.81929E+06
 0.32549999E+02  0.84884E+06
 0.32599998E+02  0.71926E+06
 0.32649998E+02  0.64850E+06
 0.32699997E+02  0.63693E+06
 0.32749996E+02  0.57025E+06
 0.32799999E+02  0.51720E+06
 0.32849998E+02  0.53290E+06
 0.32899998E+02  0.52762E+06
 0.32949997E+02  0.40270E+06
 0.32999996E+02  0.15135E+06
 0.33049999E+02 -0.37424E+05
 0.33099998E+02 -0.10960E+06
 0.33149998E+02 -0.22908E+06
 0.33199997E+02 -0.37215E+06
 0.33249996E+02 -0.58041E+06
 0.33299999E+02 -0.76017E+06
 0.33349998E+02 -0.80440E+06
 0.33399998E+02 -0.90315E+06
 0.33449997E+02 -0.10620E+07
 0.33499996E+02 -0.99903E+06
 0.33549999E+02 -0.79733E+06
 0.33599998E+02 -0.60059E+06
 0.33649998E+02 -0.38093E+06
 0.33699997E+02 -0.13018E+06
 0.33749996E+02  0.60324E+05
 0.33799999E+02  0.15819E+06
 0.33849998E+02  0.38428E+06
 0.33899998E+02  0.59552E+06
 0.33949997E+02  0.69543E+06
 0.33999996E+02  0.86939E+06
 0.34049999E+02  0.10732E+07
 0.34099998E+02  0.12440E+07
 0.34149998E+02  0.12780E+07
 0.34199997E+02  0.12428E+07
 0.34249996E+02  0.12214E+07
 0.34299999E+02  0.11517E+07
 0.34349998E+02  0.11299E+07
 0.34399998E+02  0.10183E+07
 0.34449997E+02  0.79719E+06
 0.34499996E+02  0.64428E+06
 0.34549999E+02  0.50194E+06
 0.34599998E+02  0.34250E+06
 0.34649998E+02  0.14628E+06
 0.34699997E+02  0.46930E+05
 0.34749996E+02  0.52101E+05
 0.34799999E+02 -0.10414E+06
 0.34849998E+02 -0.19255E+06
 0.34899998E+02 -0.17693E+06
 0.34949997E+02 -0.30289E+06
 0.34999996E+02 -0.46047E+06
 0.35049999E+02 -0.50727E+06
 0.35099998E+02 -0.48807E+06
 0.35149998E+02 -0.48098E+06
 0.35199997E+02 -0.40040E+06
 0.35249996E+02 -0.23452E+06
 0.35299999E+02 -0.88314E+05
 0.35349998E+02  0.65463E+04
 0.35399998E+02  0.12563E+06
 0.35449997E+02  0.25892E+06
 0.35499996E+02  0.26455E+06
 0.35549999E+02  0.19751E+06
 0.35599998E+02  0.15629E+06
 0.35649998E+02  0.11866E+06
 0.35699997E+02  0.11034E+06
 0.35749996E+02  0.80025E+05
 0.35799999E+02  0.55258E+05
 0.35849998E+02  0.45003E+05
 0.35899998E+02 -0.57142E+05
 0.35949997E+02 -0.17734E+06
 0.35999996E+02 -0.28642E+06
 0.36049999E+02 -0.44340E+06
 0.36099998E+02 -0.51008E+06
 0.36149998E+02 -0.48793E+06
 0.36199997E+02 -0.44181E+06
 0.36249996E+02 -0.34898E+06
 0.36299999E+02 -0.24593E+06
 0.36349998E+02 -0.15009E+06
 0.36399998E+02 -0.33437E+05
 0.36449997E+02  0.17540E+06
 0.36499996E+02  0.31369E+06
 0.36549999E+02  0.36519E+06
 0.36599998E+02  0.56076E+06
 0.36649998E+02  0.71432E+06
 0.36699997E+02  0.77064E+06
 0.36749996E+02  0.83728E+06
 0.36799999E+02  0.82359E+06
 0.36849998E+02  0.73493E+06
 0.36899998E+02  0.57968E+06
 0.36949997E+02  0.36098E+06
 0.36999996E+02  0.10123E+06
 0.37049999E+02 -0.17086E+06
 0.37099998E+02 -0.41363E+06
 0.37149998E+02 -0.58423E+06
 0.37199997E+02 -0.74746E+06
 0.37249996E+02 -0.93470E+06
 0.37299999E+02 -0.10631E+07
 0.37349998E+02 -0.10461E+07
 0.37399998E+02 -0.85265E+06
 0.37449997E+02 -0.64976E+06
 0.37499996E+02 -0.46481E+06
 0.37549999E+02 -0.18101E+06
 0.37599998E+02  0.13341E+06
 0.37649998E+02  0.26940E+06
 0.37699997E+02  0.24968E+06
 0.37749996E+02  0.31023E+06
 0.37799999E+02  0.37124E+06
 0.37849998E+02  0.32885E+06
 0.37899998E+02  0.24287E+06
 0.37949997E+02  0.23077E+06
 0.37999996E+02  0.23833E+06
 0.38049999E+02  0.17559E+06
 0.38099998E+02  0.21718E+05
 0.38149998E+02 -0.11583E+06
 0.38199997E+02 -0.17132E+06
 0.38249996E+02 -0.25471E+06
 0.38299999E+02 -0.28180E+06
 0.38349998E+02 -0.28720E+06
 0.38399998E+02 -0.32169E+06
 0.38449997E+02 -0.31815E+06
 0.38499996E+02 -0.24799E+06
 0.38549999E+02 -0.19784E+06
 0.38599998E+02 -0.20218E+06
 0.38649998E+02 -0.18448E+06
 0.38699997E+02 -0.14950E+06
 0.38749996E+02 -0.15585E+06
 0.38799999E+02 -0.10357E+06
 0.38849998E+02 -0.68048E+04
 0.38899998E+02  0.23606E+05
 0.38949997E+02  0.54591E+05
 0.38999996E+02  0.40191E+05
 0.39049999E+02  0.54572E+05
 0.39099998E+02  0.12372E+06
 0.39149998E+02  0.15101E+06
 0.39199997E+02  0.18819E+06
 0.39249996E+02  0.16513E+06
 0.39299999E+02  0.34245E+05
 0.39349998E+02 -0.69730E+05
 0.39399998E+02 -0.16571E+06
 0.39449997E+02 -0.30398E+06
 0.39499996E+02 -0.37497E+06
 0.39549999E+02 -0.39685E+06
 0.39599998E+02 -0.36522E+06
 0.39649998E+02 -0.23590E+06
 0.39699997E+02 -0.10033E+06
 0.39749996E+02 -0.81997E+05
 0.39799999E+02 -0.75570E+05
 0.39849998E+02 -0.67015E+05
 0.39899998E+02 -0.21028E+06
 0.39949997E+02 -0.34676E+06
 0.39999996E+02 -0.36569E+06
 0.40049999E+02 -0.40787E+06
 0.40099998E+02 -0.49983E+06
 0.40149998E+02 -0.51586E+06
 0.40199997E+02 -0.45697E+06
 0.40249996E+02 -0.38941E+06
 0.40299999E+02 -0.34271E+06
 0.40349998E+02 -0.34338E+06
 0.40399998E+02 -0.32543E+06
 0.40449997E+02 -0.28270E+06
 0.40499996E+02 -0.25034E+06
 0.40549999E+02 -0.16381E+06
 0.40599998E+02 -0.11055E+05
 0.40649998E+02  0.93875E+05
 0.40699997E+02  0.96464E+05
 0.40749996E+02  0.10229E+06
 0.40799999E+02  0.13751E+06
 0.40849998E+02  0.14622E+06
 0.40899998E+02  0.11714E+06
 0.40949997E+02  0.65300E+05
 0.40999996E+02 -0.24167E+05
 0.41049999E+02 -0.12035E+06
 0.41099998E+02 -0.16259E+06
 0.41149998E+02 -0.19592E+06
 0.41199997E+02 -0.24261E+06
 0.41249996E+02 -0.28756E+06
 0.41299999E+02 -0.26766E+06
 0.41349998E+02 -0.18563E+06
 0.41399998E+02 -0.15257E+06
 0.41449997E+02 -0.90216E+05
 0.41499996E+02  0.19599E+05
 0.41549999E+02  0.12450E+06
 0.41599998E+02  0.21089E+06
 0.41649998E+02  0.23629E+06
 0.41699997E+02  0.33775E+06
 0.41749996E+02  0.46458E+06
 0.41799999E+02  0.51852E+06
 0.41849998E+02  0.52914E+06
 0.41899998E+02  0.51005E+06
 0.41949997E+02  0.50456E+06
 0.41999996E+02  0.40401E+06
 0.42049999E+02  0.17681E+06
 0.42099998E+02  0.44573E+04
 0.42149998E+02 -0.97966E+04
 0.42199997E+02  0.19376E+05
 0.42249996E+02  0.20020E+05
 0.42299999E+02  0.76769E+04
 0.42349998E+02 -0.37755E+05
 0.42399998E+02 -0.60920E+05
 0.42449997E+02 -0.39609E+05
 0.42499996E+02 -0.30690E+05
 0.42549999E+02  0.37661E+05
 0.42599998E+02  0.15853E+06
 0.42649998E+02  0.18745E+06
 0.42699997E+02  0.15759E+06
 0.42749996E+02  0.11452E+06
 0.42799995E+02  0.36938E+05
 0.42849998E+02 -0.57802E+05
 0.42899998E+02 -0.11591E+06
 0.42949997E+02 -0.19516E+06
 0.42999996E+02 -0.28440E+06
 0.43049995E+02 -0.23144E+06
 0.43099998E+02 -0.71510E+05
 0.43149998E+02  0.39863E+05
 0.43199997E+02  0.93125E+05
 0.43249996E+02  0.13111E+06
 0.43299995E+02  0.90667E+05
 0.43349998E+02  0.20884E+05
 0.43399998E+02  0.88289E+04
 0.43449997E+02 -0.44227E+04
 0.43499996E+02 -0.48559E+04
 0.43549995E+02  0.65834E+05
 0.43599998E+02  0.12403E+06
 0.43649998E+02  0.14922E+06
 0.43699997E+02  0.13057E+06
 0.43749996E+02  0.66961E+05
 0.43799995E+02 -0.18959E+05
 0.43849998E+02 -0.82721E+05
 0.43899998E+02 -0.10652E+06
 0.43949997E+02 -0.13771E+06
 0.43999996E+02 -0.13956E+06
 0.44049995E+02 -0.69705E+05
 0.44099998E+02  0.10939E+04
 0.44149998E+02  0.28299E+05
 0.44199997E+02  0.13377E+06
 0.44249996E+02  0.23127E+06
 0.44299995E+02  0.22884E+06
 0.44349998E+02  0.25530E+06
 0.44399998E+02  0.24610E+06
 0.44449997E+02  0.14472E+06
 0.44499996E+02  0.27120E+05
 0.44549995E+02 -0.54963E+05
 0.44599998E+02 -0.87758E+05
 0.44649998E+02 -0.13098E+06
 0.44699997E+02 -0.11902E+06
 0.44749996E+02 -0.37183E+05
 0.44799995E+02 -0.33499E+05
 0.44849998E+02  0.68817E+04
 0.44899998E+02  0.58858E+05
 0.44949997E+02  0.41349E+04
 0.44999996E+02 -0.80627E+05
 0.45049995E+02 -0.14401E+06
 0.45099998E+02 -0.19621E+06
 0.45149998E+02 -0.31374E+06
 0.45199997E+02 -0.40023E+06
 0.45249996E+02 -0.37893E+06
 0.45299995E+02 -0.31216E+06
 0.45349998E+02 -0.25641E+06
 0.45399998E+02 -0.12822E+06
 0.45449997E+02 -0.72928E+05
 0.45499996E+02 -0.16826E+06
 0.45549995E+02 -0.15860E+06
 0.45599998E+02 -0.76986E+05
 0.45649998E+02 -0.11240E+05
 0.45699997E+02  0.92240E+05
 0.45749996E+02  0.13924E+06
 0.45799995E+02  0.71089E+05
 0.45849998E+02 -0.43839E+05
 0.45899998E+02 -0.23934E+06
 0.45949997E+02 -0.41469E+06
 0.45999996E+02 -0.45260E+06
 0.46049995E+02 -0.32423E+06
 0.46099998E+02 -0.26180E+05
 0.46149998E+02  0.28289E+06
 0.46199997E+02  0.43560E+06
 0.46249996E+02  0.52883E+06
 0.46299995E+02  0.53597E+06
 0.46349998E+02  0.45673E+06
 0.46399998E+02  0.50416E+06
 0.46449997E+02  0.58066E+06
 0.46499996E+02  0.51879E+06
 0.46549995E+02  0.36353E+06
 0.46599998E+02  0.18453E+06
 0.46649998E+02 -0.83551E+05
 0.46699997E+02 -0.36748E+06
 0.46749996E+02 -0.63975E+06
 0.46799995E+02 -0.96403E+06
 0.46849998E+02 -0.12181E+07
 0.46899998E+02 -0.11475E+07
 0.46949997E+02 -0.75533E+06
 0.46999996E+02 -0.39881E+06
 0.47049995E+02 -0.65080E+05
 0.47099998E+02  0.14535E+06
 0.47149998E+02 -0.10958E+05
 0.47199997E+02 -0.24161E+06
 0.47249996E+02 -0.22861E+06
 0.47299995E+02 -0.20570E+05
 0.47349998E+02  0.11121E+06
 0.47399998E+02  0.13852E+06
 0.47449997E+02  0.12950E+06
 0.47499996E+02  0.46845E+05
 0.47549995E+02 -0.85806E+05
 0.47599998E+02 -0.18104E+05
 0.47649998E+02  0.19853E+06
 0.47699997E+02  0.32685E+06
 0.47749996E+02  0.44157E+06
 0.47799995E+02  0.34805E+06
 0.47849998E+02  0.18855E+05
 0.47899998E+02 -0.25888E+06
 0.47949997E+02 -0.36353E+06
 0.47999996E+02 -0.23638E+06
 0.48049995E+02  0.32211E+04
 0.48099998E+02  0.19111E+06
 0.48149998E+02  0.36030E+06
 0.48199997E+02  0.45856E+06
 0.48249996E+02  0.31715E+06
 0.48299995E+02 -0.46586E+05
 0.48349998E+02 -0.23716E+06
 0.48399998E+02 -0.98902E+05
 0.48449997E+02  0.20304E+06
 0.48499996E+02  0.61593E+06
 0.48549995E+02  0.88476E+06
 0.48599998E+02  0.81867E+06
 0.48649998E+02  0.54240E+06
 0.48699997E+02  0.23922E+06
 0.48749996E+02  0.10710E+06
 0.48799995E+02  0.24477E+06
 0.48849998E+02  0.50959E+06
 0.48899998E+02  0.67033E+06
 0.48949997E+02  0.55761E+06
 0.48999996E+02  0.31420E+06
 0.49049995E+02  0.21214E+06
 0.49099998E+02  0.19336E+06
 0.49149998E+02  0.16662E+06
 0.49199997E+02  0.97174E+05
 0.49249996E+02 -0.57942E+05
 0.49299995E+02 -0.23031E+06
 0.49349998E+02 -0.41130E+06
 0.49399998E+02 -0.54950E+06
 0.49449997E+02 -0.57179E+06
 0.49499996E+02 -0.61532E+06
 0.49549995E+02 -0.68031E+06
 0.49599998E+02 -0.59400E+06
 0.49649998E+02 -0.38292E+06
 0.49699997E+02 -0.16094E+06
 0.49749996E+02 -0.64431E+05
 0.49799995E+02 -0.27742E+05
 0.49849998E+02 -0.26177E+05
 0.49899998E+02 -0.19662E+06
 0.49949997E+02 -0.40752E+06
 0.49999996E+02 -0.39647E+06
 0.50049995E+02 -0.18712E+06
 0.50099998E+02  0.36911E+05
 0.50149998E+02  0.19974E+06
 0.50199997E+02  0.20486E+06
 0.50249996E+02 -0.55444E+04
 0.50299995E+02 -0.22863E+06
 0.50349998E+02 -0.23027E+06
 0.50399998E+02 -0.14149E+06
 0.50449997E+02  0.13629E+05
 0.50499996E+02  0.20439E+06
 0.50549995E+02  0.21768E+06
 0.50599998E+02  0.15694E+06
 0.50649998E+02  0.15274E+06
 0.50699997E+02  0.13764E+06
 0.50749996E+02  0.17878E+06
 0.50799995E+02  0.22595E+06
 0.50849998E+02  0.22162E+06
 0.50899998E+02  0.17810E+06
 0.50949997E+02  0.14520E+06
 0.50999996E+02  0.18159E+06
 0.51049995E+02  0.22613E+06
 0.51099998E+02  0.30581E+06
 0.51149998E+02  0.33621E+06
 0.51199997E+02  0.32780E+06
 0.51249996E+02  0.24295E+06
 0.51299995E+02  0.76615E+05
 0.51349998E+02 -0.35611E+05
 0.51399998E+02 -0.42985E+05
 0.51449997E+02 -0.19342E+05
 0.51499996E+02 -0.67941E+04
 0.51549995E+02  0.92835E+05
 0.51599998E+02  0.13685E+06
 0.51649998E+02  0.15486E+06
 0.51699997E+02  0.34481E+06
 0.51749996E+02  0.62709E+06
 0.51799995E+02  0.67326E+06
 0.51849998E+02  0.46685E+06
 0.51899998E+02  0.25254E+06
 0.51949997E+02 -0.84629E+05
 0.51999996E+02 -0.51621E+06
 0.52049995E+02 -0.90719E+06
 0.52099998E+02 -0.11841E+07
 0.52149998E+02 -0.11706E+07
 0.52199997E+02 -0.97546E+06
 0.52249996E+02 -0.79019E+06
 0.52299995E+02 -0.61880E+06
 0.52349998E+02 -0.34616E+06
 0.52399998E+02 -0.37580E+04
 0.52449997E+02  0.13506E+06
 0.52499996E+02 -0.49637E+05
 0.52549995E+02 -0.50426E+06
 0.52599998E+02 -0.99256E+06
 0.52649998E+02 -0.12397E+07
 0.52699997E+02 -0.12503E+07
 0.52749996E+02 -0.11050E+07
 0.52799995E+02 -0.72812E+06
 0.52849998E+02 -0.26785E+06
 0.52899998E+02  0.45376E+05
 0.52949997E+02  0.11974E+06
 0.52999996E+02 -0.39821E+04
 0.53049995E+02 -0.21081E+06
 0.53099998E+02 -0.29325E+06
 0.53149998E+02 -0.15845E+06
 0.53199997E+02 -0.10635E+05
 0.53249996E+02  0.17699E+06
 0.53299995E+02  0.41332E+06
 0.53349998E+02  0.67000E+06
 0.53399998E+02  0.91419E+06
 0.53449997E+02  0.12062E+07
 0.53499996E+02  0.15862E+07
 0.53549995E+02  0.18468E+07
 0.53599998E+02  0.19416E+07
 0.53649998E+02  0.18260E+07
 0.53699997E+02  0.13975E+07
 0.53749996E+02  0.86909E+06
 0.53799995E+02  0.39468E+06
 0.53849998E+02  0.18830E+05
 0.53899998E+02 -0.12667E+06
 0.53949997E+02 -0.72155E+05
 0.53999996E+02  0.16933E+06
 0.54049995E+02  0.44942E+06
 0.54099998E+02  0.64481E+06
 0.54149998E+02  0.78368E+06
 0.54199997E+02  0.78644E+06
 0.54249996E+02  0.64678E+06
 0.54299995E+02  0.39307E+06
 0.54349998E+02  0.63475E+05
 0.54399998E+02 -0.17133E+06
 0.54449997E+02 -0.23323E+06
 0.54499996E+02 -0.27414E+06
 0.54549995E+02 -0.41026E+06
 0.54599998E+02 -0.59131E+06
 0.54649998E+02 -0.75478E+06
 0.54699997E+02 -0.89257E+06
 0.54749996E+02 -0.99555E+06
 0.54799995E+02 -0.10372E+07
 0.54849998E+02 -0.10080E+07
 0.54899998E+02 -0.83588E+06
 0.54949997E+02 -0.42991E+06
 0.54999996E+02  0.14301E+06
 0.55049995E+02  0.77384E+06
 0.55099998E+02  0.13395E+07
 0.55149998E+02  0.15711E+07
 0.55199997E+02  0.13288E+07
 0.55249996E+02  0.84291E+06
 0.55299995E+02  0.36879E+06
 0.55349998E+02  0.10779E+05
 0.55399998E+02 -0.24630E+06
 0.55449997E+02 -0.44798E+06
 0.55499996E+02 -0.46710E+06
 0.55549995E+02 -0.19107E+06
 0.55599998E+02  0.20962E+06
 0.55649998E+02  0.54033E+06
 0.55699997E+02  0.76640E+06
 0.55749996E+02  0.86920E+06
 0.55799995E+02  0.90566E+06
 0.55849995E+02  0.85828E+06
 0.55899998E+02  0.74334E+06
 0.55949997E+02  0.66870E+06
 0.55999996E+02  0.58188E+06
 0.56049995E+02  0.35398E+06
 0.56099995E+02  0.42743E+05
 0.56149998E+02 -0.17764E+06
 0.56199997E+02 -0.19687E+06
 0.56249996E+02 -0.20959E+05
 0.56299995E+02  0.20272E+06
 0.56349995E+02  0.34861E+06
 0.56399998E+02  0.38898E+06
 0.56449997E+02  0.35343E+06
 0.56499996E+02  0.24429E+06
 0.56549995E+02  0.16451E+06
 0.56599995E+02  0.68157E+05
 0.56649998E+02 -0.67885E+05
 0.56699997E+02 -0.95894E+05
 0.56749996E+02 -0.44675E+05
 0.56799995E+02  0.11430E+06
 0.56849995E+02  0.32969E+06
 0.56899998E+02  0.48526E+06
 0.56949997E+02  0.61428E+06
 0.56999996E+02  0.65827E+06
 0.57049995E+02  0.51442E+06
 0.57099995E+02  0.22023E+06
 0.57149998E+02 -0.96897E+05
 0.57199997E+02 -0.36132E+06
 0.57249996E+02 -0.51610E+06
 0.57299995E+02 -0.53342E+06
 0.57349995E+02 -0.50920E+06
 0.57399998E+02 -0.52320E+06
 0.57449997E+02 -0.63407E+06
 0.57499996E+02 -0.83505E+06
 0.57549995E+02 -0.10068E+07
 0.57599995E+02 -0.10005E+07
 0.57649998E+02 -0.72400E+06
 0.57699997E+02 -0.26348E+06
 0.57749996E+02  0.22621E+06
 0.57799995E+02  0.66275E+06
 0.57849995E+02  0.10120E+07
 0.57899998E+02  0.12057E+07
 0.57949997E+02  0.11760E+07
 0.57999996E+02  0.94353E+06
 0.58049995E+02  0.57749E+06
 0.58099995E+02  0.14382E+06
 0.58149998E+02 -0.33005E+06
 0.58199997E+02 -0.75649E+06
 0.58249996E+02 -0.99802E+06
 0.58299995E+02 -0.10297E+07
 0.58349995E+02 -0.89689E+06
 0.58399998E+02 -0.69200E+06
 0.58449997E+02 -0.54872E+06
 0.58499996E+02 -0.45622E+06
 0.58549995E+02 -0.39405E+06
 0.58599995E+02 -0.39280E+06
 0.58649998E+02 -0.34621E+06
 0.58699997E+02 -0.20435E+06
 0.58749996E+02  0.41128E+04
 0.58799995E+02  0.19388E+06
 0.58849995E+02  0.25874E+06
 0.58899998E+02  0.19265E+06
 0.58949997E+02 -0.11122E+05
 0.58999996E+02 -0.29409E+06
 0.59049995E+02 -0.53337E+06
 0.59099995E+02 -0.70892E+06
 0.59149998E+02 -0.89912E+06
 0.59199997E+02 -0.11039E+07
 0.59249996E+02 -0.12888E+07
 0.59299995E+02 -0.14275E+07
 0.59349995E+02 -0.14284E+07
 0.59399998E+02 -0.12453E+07
 0.59449997E+02 -0.93862E+06
 0.59499996E+02 -0.63200E+06
 0.59549995E+02 -0.42643E+06
 0.59599995E+02 -0.33011E+06
 0.59649998E+02 -0.33176E+06
 0.59699997E+02 -0.39575E+06
 0.59749996E+02 -0.47182E+06
 0.59799995E+02 -0.48525E+06
 0.59849995E+02 -0.33369E+06
 0.59899998E+02 -0.60209E+05
 0.59949997E+02  0.19781E+06
 0.59999996E+02  0.35398E+06
 0.60049995E+02  0.41725E+06
 0.60099995E+02  0.39256E+06
 0.60149998E+02  0.31530E+06
 0.60199997E+02  0.25248E+06
 0.60249996E+02  0.15977E+06
 0.60299995E+02 -0.44630E+05
 0.60349995E+02 -0.27923E+06
 0.60399998E+02 -0.44287E+06
 0.60449997E+02 -0.55998E+06
 0.60499996E+02 -0.65328E+06
 0.60549995E+02 -0.69416E+06
 0.60599995E+02 -0.68835E+06
 0.60649998E+02 -0.66824E+06
 0.60699997E+02 -0.59807E+06
 0.60749996E+02 -0.52272E+06
 0.60799995E+02 -0.50738E+06
 0.60849995E+02 -0.51814E+06
 0.60899998E+02 -0.48737E+06
 0.60949997E+02 -0.39045E+06
 0.60999996E+02 -0.29985E+06
 0.61049995E+02 -0.27681E+06
 0.61099995E+02 -0.29669E+06
 0.61149998E+02 -0.35014E+06
 0.61199997E+02 -0.40554E+06
 0.61249996E+02 -0.39507E+06
 0.61299995E+02 -0.35743E+06
 0.61349995E+02 -0.36154E+06
 0.61399998E+02 -0.41596E+06
 0.61449997E+02 -0.48803E+06
 0.61499996E+02 -0.56501E+06
 0.61549995E+02 -0.64464E+06
 0.61599995E+02 -0.69919E+06
 0.61649998E+02 -0.71580E+06
 0.61699997E+02 -0.70894E+06
 0.61749996E+02 -0.70362E+06
 0.61799995E+02 -0.64774E+06
 0.61849995E+02 -0.51947E+06
 0.61899998E+02 -0.33623E+06
 0.61949997E+02 -0.10807E+06
 0.61999996E+02  0.11408E+06
 0.62049995E+02  0.30705E+06
 0.62099998E+02  0.49377E+06
 0.62149994E+02  0.75705E+06
 0.62199997E+02  0.11662E+07
 0.62249992E+02  0.16706E+07
 0.62299995E+02  0.21536E+07
 0.62349998E+02  0.25031E+07
 0.62399994E+02  0.26401E+07
 0.62449997E+02  0.25667E+07
 0.62499992E+02  0.23153E+07
 0.62549995E+02  0.19694E+07
 0.62599998E+02  0.16263E+07
 0.62649994E+02  0.13177E+07
 0.62699997E+02  0.10545E+07
 0.62749992E+02  0.85487E+06
 0.62799995E+02  0.70221E+06
 0.62849998E+02  0.51270E+06
 0.62899994E+02  0.22602E+06
 0.62949997E+02 -0.17041E+06
 0.62999992E+02 -0.63657E+06
 0.63049995E+02 -0.10635E+07
 0.63099998E+02 -0.13738E+07
 0.63149994E+02 -0.15665E+07
 0.63199997E+02 -0.16345E+07
 0.63249992E+02 -0.15893E+07
 0.63299995E+02 -0.14655E+07
 0.63349998E+02 -0.12915E+07
 0.63399994E+02 -0.11051E+07
 0.63449997E+02 -0.94473E+06
 0.63499992E+02 -0.83073E+06
 0.63549995E+02 -0.74973E+06
 0.63599998E+02 -0.68734E+06
 0.63649994E+02 -0.62458E+06
 0.63699997E+02 -0.52807E+06
 0.63749992E+02 -0.37550E+06
 0.63799995E+02 -0.19306E+06
 0.63849998E+02 -0.31135E+04
 0.63899994E+02  0.20825E+06
 0.63949997E+02  0.47323E+06
 0.63999992E+02  0.79252E+06
 0.64049995E+02  0.11017E+07
 0.64099998E+02  0.13205E+07
 0.64149994E+02  0.13788E+07
 0.64199997E+02  0.12871E+07
 0.64249992E+02  0.11262E+07
 0.64299995E+02  0.95909E+06
 0.64349998E+02  0.81700E+06
 0.64399994E+02  0.71562E+06
 0.64449997E+02  0.63323E+06
 0.64499992E+02  0.51639E+06
 0.64549995E+02  0.35782E+06
 0.64599998E+02  0.18977E+06
 0.64649994E+02  0.41432E+05
 0.64699997E+02 -0.59693E+05
 0.64749992E+02 -0.73737E+05
 0.64799995E+02  0.51138E+05
 0.64849998E+02  0.29683E+06
 0.64899994E+02  0.60008E+06
 0.64949997E+02  0.90571E+06
 0.64999992E+02  0.11423E+07
 0.65049995E+02  0.12751E+07
 0.65099998E+02  0.13345E+07
 0.65149994E+02  0.13650E+07
 0.65199997E+02  0.13695E+07
 0.65249992E+02  0.13093E+07
 0.65299995E+02  0.11440E+07
 0.65349998E+02  0.89471E+06
 0.65399994E+02  0.61431E+06
 0.65449997E+02  0.34342E+06
 0.65499992E+02  0.12107E+06
 0.65549995E+02 -0.40204E+05
 0.65599998E+02 -0.16880E+06
 0.65649994E+02 -0.25777E+06
 0.65699997E+02 -0.27249E+06
 0.65749992E+02 -0.24803E+06
 0.65799995E+02 -0.21664E+06
 0.65849998E+02 -0.15835E+06
 0.65899994E+02 -0.63645E+05
 0.65949997E+02  0.38997E+05
 0.65999992E+02  0.73757E+05
 0.66049995E+02 -0.13755E+05
 0.66099998E+02 -0.19145E+06
 0.66149994E+02 -0.42047E+06
 0.66199997E+02 -0.66884E+06
 0.66249992E+02 -0.90476E+06
 0.66299995E+02 -0.10921E+07
 0.66349998E+02 -0.11983E+07
 0.66399994E+02 -0.12367E+07
 0.66449997E+02 -0.12251E+07
 0.66499992E+02 -0.11502E+07
 0.66549995E+02 -0.10196E+07
 0.66599998E+02 -0.88319E+06
 0.66649994E+02 -0.76871E+06
 0.66699997E+02 -0.68019E+06
 0.66749992E+02 -0.62310E+06
 0.66799995E+02 -0.57488E+06
 0.66849998E+02 -0.51180E+06
 0.66899994E+02 -0.41955E+06
 0.66949997E+02 -0.31430E+06
 0.66999992E+02 -0.22633E+06
 0.67049995E+02 -0.17156E+06
 0.67099998E+02 -0.17552E+06
 0.67149994E+02 -0.21403E+06
 0.67199997E+02 -0.25429E+06
 0.67249992E+02 -0.28860E+06
 0.67299995E+02 -0.29843E+06
 0.67349998E+02 -0.26754E+06
 0.67399994E+02 -0.18216E+06
 0.67449997E+02 -0.52287E+05
 0.67499992E+02  0.76925E+05
 0.67549995E+02  0.15026E+06
 0.67599998E+02  0.15778E+06
 0.67649994E+02  0.13656E+06
 0.67699997E+02  0.11632E+06
 0.67749992E+02  0.10384E+06
 0.67799995E+02  0.11172E+06
 0.67849998E+02  0.16327E+06
 0.67899994E+02  0.24092E+06
 0.67949997E+02  0.33593E+06
 0.67999992E+02  0.41717E+06
 0.68049995E+02  0.45516E+06
 0.68099998E+02  0.46312E+06
 0.68149994E+02  0.45100E+06
 0.68199997E+02  0.44067E+06
 0.68249992E+02  0.40489E+06
 0.68299995E+02  0.32265E+06
 0.68349998E+02  0.20739E+06
 0.68399994E+02  0.62115E+05
 0.68449997E+02 -0.10286E+06
 0.68499992E+02 -0.26780E+06
 0.68549995E+02 -0.39959E+06
 0.68599998E+02 -0.45588E+06
 0.68649994E+02 -0.39299E+06
 0.68699997E+02 -0.20050E+06
 0.68749992E+02  0.76867E+05
 0.68799995E+02  0.36544E+06
 0.68849998E+02  0.61649E+06
 0.68899994E+02  0.81838E+06
 0.68949997E+02  0.96692E+06
 0.68999992E+02  0.10497E+07
 0.69049995E+02  0.10670E+07
 0.69099998E+02  0.10388E+07
 0.69149994E+02  0.97791E+06
 0.69199997E+02  0.87553E+06
 0.69249992E+02  0.73952E+06
 0.69299995E+02  0.59451E+06
 0.69349998E+02  0.43237E+06
 0.69399994E+02  0.25732E+06
 0.69449997E+02  0.82158E+05
 0.69499992E+02 -0.76420E+05
 0.69549995E+02 -0.18755E+06
 0.69599998E+02 -0.23874E+06
 0.69649994E+02 -0.23752E+06
 0.69699997E+02 -0.20613E+06
 0.69749992E+02 -0.18177E+06
 0.69799995E+02 -0.19486E+06
 0.69849998E+02 -0.25781E+06
 0.69899994E+02 -0.37951E+06
 0.69949997E+02 -0.51812E+06
 0.69999992E+02 -0.63131E+06
 0.70049995E+02 -0.70729E+06
 0.70099998E+02 -0.74179E+06
 0.70149994E+02 -0.76049E+06
 0.70199997E+02 -0.77958E+06
 0.70249992E+02 -0.78732E+06
 0.70299995E+02 -0.77099E+06
 0.70349998E+02 -0.74482E+06
 0.70399994E+02 -0.71609E+06
 0.70449997E+02 -0.68964E+06
 0.70499992E+02 -0.65499E+06
 0.70549995E+02 -0.57814E+06
 0.70599998E+02 -0.45669E+06
 0.70649994E+02 -0.28652E+06
 0.70699997E+02 -0.87477E+05
 0.70749992E+02  0.92919E+05
 0.70799995E+02  0.25097E+06
 0.70849998E+02  0.39295E+06
 0.70899994E+02  0.50236E+06
 0.70949997E+02  0.57150E+06
 0.70999992E+02  0.59823E+06
 0.71049995E+02  0.57493E+06
 0.71099998E+02  0.49182E+06
 0.71149994E+02  0.34886E+06
 0.71199997E+02  0.17399E+06
 0.71249992E+02  0.14008E+05
 0.71299995E+02 -0.88600E+05
 0.71349998E+02 -0.15105E+06
 0.71399994E+02 -0.18155E+06
 0.71449997E+02 -0.15786E+06
 0.71499992E+02 -0.95229E+05
 0.71549995E+02  0.59848E+04
 0.71599998E+02  0.14952E+06
 0.71649994E+02  0.31926E+06
 0.71699997E+02  0.47830E+06
 0.71749992E+02  0.59770E+06
 0.71799995E+02  0.65976E+06
 0.71849998E+02  0.64062E+06
 0.71899994E+02  0.52752E+06
 0.71949997E+02  0.32464E+06
 0.71999992E+02  0.71954E+05
 0.72049995E+02 -0.17577E+06
 0.72099998E+02 -0.37076E+06
 0.72149994E+02 -0.49856E+06
 0.72199997E+02 -0.56604E+06
 0.72249992E+02 -0.58317E+06
 0.72299995E+02 -0.57800E+06
 0.72349998E+02 -0.56942E+06
 0.72399994E+02 -0.54028E+06
 0.72449997E+02 -0.48373E+06
 0.72499992E+02 -0.41382E+06
 0.72549995E+02 -0.35004E+06
 0.72599998E+02 -0.30093E+06
 0.72649994E+02 -0.25070E+06
 0.72699997E+02 -0.18225E+06
 0.72749992E+02 -0.87601E+05
 0.72799995E+02  0.10267E+05
 0.72849998E+02  0.86975E+05
 0.72899994E+02  0.13914E+06
 0.72949997E+02  0.17997E+06
 0.72999992E+02  0.23252E+06
 0.73049995E+02  0.30173E+06
 0.73099998E+02  0.37477E+06
 0.73149994E+02  0.43408E+06
 0.73199997E+02  0.45512E+06
 0.73249992E+02  0.42700E+06
 0.73299995E+02  0.37789E+06
 0.73349998E+02  0.34593E+06
 0.73399994E+02  0.33698E+06
 0.73449997E+02  0.34519E+06
 0.73499992E+02  0.36804E+06
 0.73549995E+02  0.39035E+06
 0.73599998E+02  0.39810E+06
 0.73649994E+02  0.38631E+06
 0.73699997E+02  0.34716E+06
 0.73749992E+02  0.28488E+06
 0.73799995E+02  0.21071E+06
 0.73849998E+02  0.14303E+06
 0.73899994E+02  0.11547E+06
 0.73949997E+02  0.14155E+06
 0.73999992E+02  0.20478E+06
 0.74049995E+02  0.27368E+06
 0.74099998E+02  0.31661E+06
 0.74149994E+02  0.32812E+06
 0.74199997E+02  0.30643E+06
 0.74249992E+02  0.24053E+06
 0.74299995E+02  0.14333E+06
 0.74349998E+02  0.47128E+05
 0.74399994E+02 -0.23055E+05
 0.74449997E+02 -0.64737E+05
 0.74499992E+02 -0.81964E+05
 0.74549995E+02 -0.87337E+05
 0.74599998E+02 -0.84463E+05
 0.74649994E+02 -0.76644E+05
 0.74699997E+02 -0.83877E+05
 0.74749992E+02 -0.11316E+06
 0.74799995E+02 -0.15412E+06
 0.74849998E+02 -0.19674E+06
 0.74899994E+02 -0.24031E+06
 0.74949997E+02 -0.28578E+06
 0.74999992E+02 -0.33506E+06
 0.75049995E+02 -0.37914E+06
 0.75099998E+02 -0.40908E+06
 0.75149994E+02 -0.42289E+06
 0.75199997E+02 -0.43135E+06
 0.75249992E+02 -0.45895E+06
 0.75299995E+02 -0.50583E+06
 0.75349998E+02 -0.54674E+06
 0.75399994E+02 -0.56972E+06
 0.75449997E+02 -0.57873E+06
 0.75499992E+02 -0.57477E+06
 0.75549995E+02 -0.56366E+06
 0.75599998E+02 -0.56344E+06
 0.75649994E+02 -0.57429E+06
 0.75699997E+02 -0.57276E+06
 0.75749992E+02 -0.54767E+06
 0.75799995E+02 -0.49354E+06
 0.75849998E+02 -0.40697E+06
 0.75899994E+02 -0.29593E+06
 0.75949997E+02 -0.16696E+06
 0.75999992E+02 -0.28067E+05
 0.76049995E+02  0.11250E+06
 0.76099998E+02  0.25220E+06
 0.76149994E+02  0.38227E+06
 0.76199997E+02  0.49668E+06
 0.76249992E+02  0.58644E+06
 0.76299995E+02  0.63379E+06
 0.76349998E+02  0.62765E+06
 0.76399994E+02  0.56499E+06
 0.76449997E+02  0.45506E+06
 0.76499992E+02  0.31346E+06
 0.76549995E+02  0.15483E+06
 0.76599998E+02 -0.98040E+04
 0.76649994E+02 -0.16658E+06
 0.76699997E+02 -0.30047E+06
 0.76749992E+02 -0.39445E+06
 0.76799995E+02 -0.43576E+06
 0.76849998E+02 -0.43821E+06
 0.76899994E+02 -0.41173E+06
 0.76949997E+02 -0.36820E+06
 0.76999992E+02 -0.31733E+06
 0.77049995E+02 -0.25784E+06
 0.77099998E+02 -0.19553E+06
 0.77149994E+02 -0.13151E+06
 0.77199997E+02 -0.74525E+05
 0.77249992E+02 -0.41355E+05
 0.77299995E+02 -0.47476E+05
 0.77349998E+02 -0.87750E+05
 0.77399994E+02 -0.14653E+06
 0.77449997E+02 -0.19748E+06
 0.77499992E+02 -0.20674E+06
 0.77549995E+02 -0.15199E+06
 0.77599998E+02 -0.32564E+05
 0.77649994E+02  0.11924E+06
 0.77699997E+02  0.27171E+06
 0.77749992E+02  0.41537E+06
 0.77799995E+02  0.55896E+06
 0.77849998E+02  0.70875E+06
 0.77899994E+02  0.85405E+06
 0.77949997E+02  0.99096E+06
 0.77999992E+02  0.11197E+07
 0.78049995E+02  0.12132E+07
 0.78099998E+02  0.12426E+07
 0.78149994E+02  0.12185E+07
 0.78199997E+02  0.11675E+07
 0.78249992E+02  0.10974E+07
 0.78299995E+02  0.10013E+07
 0.78349998E+02  0.87204E+06
 0.78399994E+02  0.71572E+06
 0.78449997E+02  0.53757E+06
 0.78499992E+02  0.33973E+06
 0.78549995E+02  0.13979E+06
 0.78599998E+02 -0.31858E+05
 0.78649994E+02 -0.15468E+06
 0.78699997E+02 -0.23458E+06
 0.78749992E+02 -0.28213E+06
 0.78799995E+02 -0.30797E+06
 0.78849998E+02 -0.32564E+06
 0.78899994E+02 -0.34301E+06
 0.78949997E+02 -0.35925E+06
 0.78999992E+02 -0.38247E+06
 0.79049995E+02 -0.42058E+06
 0.79099998E+02 -0.46749E+06
 0.79149994E+02 -0.52027E+06
 0.79199997E+02 -0.57869E+06
 0.79249992E+02 -0.63139E+06
 0.79299995E+02 -0.66490E+06
 0.79349998E+02 -0.66992E+06
 0.79399994E+02 -0.63121E+06
 0.79449997E+02 -0.54969E+06
 0.79499992E+02 -0.43627E+06
 0.79549995E+02 -0.30476E+06
 0.79599998E+02 -0.17983E+06
 0.79649994E+02 -0.78904E+05
 0.79699997E+02 -0.44281E+04
 0.79749992E+02  0.33823E+05
 0.79799995E+02  0.35672E+05
 0.79849998E+02  0.20480E+05
 0.79899994E+02  0.15362E+05
 0.79949997E+02  0.38297E+05
 0.79999992E+02  0.87122E+05
 0.80049995E+02  0.14774E+06
 0.80099998E+02  0.19631E+06
 0.80149994E+02  0.21907E+06
 0.80199997E+02  0.22174E+06
 0.80249992E+02  0.21881E+06
 0.80299995E+02  0.21191E+06
 0.80349998E+02  0.20028E+06
 0.80399994E+02  0.17225E+06
 0.80449997E+02  0.10971E+06
 0.80499992E+02  0.16112E+05
 0.80549995E+02 -0.94450E+05
 0.80599998E+02 -0.20790E+06
 0.80649994E+02 -0.31539E+06
 0.80699997E+02 -0.41154E+06
 0.80749992E+02 -0.49468E+06
 0.80799995E+02 -0.56047E+06
 0.80849998E+02 -0.60439E+06
 0.80899994E+02 -0.62649E+06
 0.80949997E+02 -0.62015E+06
 0.80999992E+02 -0.57887E+06
 0.81049995E+02 -0.50331E+06
 0.81099998E+02 -0.39774E+06
 0.81149994E+02 -0.27150E+06
 0.81199997E+02 -0.14044E+06
 0.81249992E+02 -0.19021E+05
 0.81299995E+02  0.83719E+05
 0.81349998E+02  0.16557E+06
 0.81399994E+02  0.22876E+06
 0.81449997E+02  0.27920E+06
 0.81499992E+02  0.32230E+06
 0.81549995E+02  0.36075E+06
 0.81599998E+02  0.40278E+06
 0.81649994E+02  0.44840E+06
 0.81699997E+02  0.49659E+06
 0.81749992E+02  0.55710E+06
 0.81799995E+02  0.63266E+06
 0.81849998E+02  0.71545E+06
 0.81899994E+02  0.77987E+06
 0.81949997E+02  0.80151E+06
 0.81999992E+02  0.78056E+06
 0.82049995E+02  0.72743E+06
 0.82099998E+02  0.64591E+06
 0.82149994E+02  0.53769E+06
 0.82199997E+02  0.41194E+06
 0.82249992E+02  0.28038E+06
 0.82299995E+02  0.16128E+06
 0.82349998E+02  0.67057E+05
 0.82399994E+02 -0.61521E+04
 0.82449997E+02 -0.80383E+05
 0.82499992E+02 -0.16915E+06
 0.82549995E+02 -0.27355E+06
 0.82599998E+02 -0.39424E+06
 0.82649994E+02 -0.51554E+06
 0.82699997E+02 -0.62128E+06
 0.82749992E+02 -0.70847E+06
 0.82799995E+02 -0.77056E+06
 0.82849998E+02 -0.79861E+06
 0.82899994E+02 -0.79828E+06
 0.82949997E+02 -0.77869E+06
 0.82999992E+02 -0.74540E+06
 0.83049995E+02 -0.70180E+06
 0.83099998E+02 -0.65309E+06
 0.83149994E+02 -0.60444E+06
 0.83199997E+02 -0.56100E+06
 0.83249992E+02 -0.51674E+06
 0.83299995E+02 -0.46430E+06
 0.83349998E+02 -0.41091E+06
 0.83399994E+02 -0.35223E+06
 0.83449997E+02 -0.28174E+06
 0.83499992E+02 -0.20157E+06
 0.83549995E+02 -0.10543E+06
 0.83599998E+02  0.63834E+04
 0.83649994E+02  0.11509E+06
 0.83699997E+02  0.20898E+06
 0.83749992E+02  0.28517E+06
 0.83799995E+02  0.33974E+06
 0.83849998E+02  0.36593E+06
 0.83899994E+02  0.36264E+06
 0.83949997E+02  0.34588E+06
 0.83999992E+02  0.33944E+06
 0.84049995E+02  0.35317E+06
 0.84099998E+02  0.36818E+06
 0.84149994E+02  0.36640E+06
 0.84199997E+02  0.34460E+06
 0.84249992E+02  0.30945E+06
 0.84299995E+02  0.27350E+06
 0.84349998E+02  0.24837E+06
 0.84399994E+02  0.24518E+06
 0.84449997E+02  0.26126E+06
 0.84499992E+02  0.28559E+06
 0.84549995E+02  0.31304E+06
 0.84599998E+02  0.34124E+06
 0.84649994E+02  0.36422E+06
 0.84699997E+02  0.38335E+06
 0.84749992E+02  0.40328E+06
 0.84799995E+02  0.43215E+06
 0.84849998E+02  0.47097E+06
 0.84899994E+02  0.50019E+06
 0.84949997E+02  0.51133E+06
 0.84999992E+02  0.50952E+06
 0.85049995E+02  0.48949E+06
 0.85099998E+02  0.44376E+06
 0.85149994E+02  0.38481E+06
 0.85199997E+02  0.32719E+06
 0.85249992E+02  0.26507E+06
 0.85299995E+02  0.18433E+06
 0.85349998E+02  0.84275E+05
 0.85399994E+02 -0.27234E+05
 0.85449997E+02 -0.14897E+06
 0.85499992E+02 -0.27374E+06
 0.85549995E+02 -0.38830E+06
 0.85599998E+02 -0.48472E+06
 0.85649994E+02 -0.56554E+06
 0.85699997E+02 -0.64254E+06
 0.85749992E+02 -0.72376E+06
 0.85799995E+02 -0.81091E+06
 0.85849998E+02 -0.88737E+06
 0.85899994E+02 -0.93079E+06
 0.85949997E+02 -0.92509E+06
 0.85999992E+02 -0.85911E+06
 0.86049995E+02 -0.73572E+06
 0.86099998E+02 -0.56312E+06
 0.86149994E+02 -0.35408E+06
 0.86199997E+02 -0.12217E+06
 0.86249992E+02  0.11580E+06
 0.86299995E+02  0.34131E+06
 0.86349998E+02  0.54026E+06
 0.86399994E+02  0.69360E+06
 0.86449997E+02  0.79230E+06
 0.86499992E+02  0.84375E+06
 0.86549995E+02  0.85619E+06
 0.86599998E+02  0.83502E+06
 0.86649994E+02  0.77884E+06
 0.86699997E+02  0.68720E+06
 0.86749992E+02  0.56648E+06
 0.86799995E+02  0.43140E+06
 0.86849998E+02  0.29597E+06
 0.86899994E+02  0.17271E+06
 0.86949997E+02  0.74322E+05
 0.86999992E+02  0.60667E+04
 0.87049995E+02 -0.23123E+05
 0.87099998E+02 -0.11077E+05
 0.87149994E+02  0.36079E+05
 0.87199997E+02  0.11361E+06
 0.87249992E+02  0.20522E+06
 0.87299995E+02  0.28714E+06
 0.87349998E+02  0.34038E+06
 0.87399994E+02  0.35295E+06
 0.87449997E+02  0.32378E+06
 0.87499992E+02  0.24658E+06
 0.87549995E+02  0.12254E+06
 0.87599991E+02 -0.28134E+05
 0.87649994E+02 -0.19186E+06
 0.87699997E+02 -0.34645E+06
 0.87749992E+02 -0.46765E+06
 0.87799995E+02 -0.54635E+06
 0.87849991E+02 -0.58338E+06
 0.87899994E+02 -0.58748E+06
 0.87949997E+02 -0.56894E+06
 0.87999992E+02 -0.53814E+06
 0.88049995E+02 -0.50413E+06
 0.88099991E+02 -0.47157E+06
 0.88149994E+02 -0.44901E+06
 0.88199997E+02 -0.44565E+06
 0.88249992E+02 -0.45800E+06
 0.88299995E+02 -0.47035E+06
 0.88349991E+02 -0.46648E+06
 0.88399994E+02 -0.43942E+06
 0.88449997E+02 -0.38738E+06
 0.88499992E+02 -0.31919E+06
 0.88549995E+02 -0.24798E+06
 0.88599991E+02 -0.18186E+06
 0.88649994E+02 -0.12165E+06
 0.88699997E+02 -0.60597E+05
 0.88749992E+02  0.79577E+04
 0.88799995E+02  0.85348E+05
 0.88849991E+02  0.16561E+06
 0.88899994E+02  0.24436E+06
 0.88949997E+02  0.32134E+06
 0.88999992E+02  0.39546E+06
 0.89049995E+02  0.45671E+06
 0.89099991E+02  0.48798E+06
 0.89149994E+02  0.48627E+06
 0.89199997E+02  0.46220E+06
 0.89249992E+02  0.42475E+06
 0.89299995E+02  0.37934E+06
 0.89349991E+02  0.32986E+06
 0.89399994E+02  0.27437E+06
 0.89449997E+02  0.21040E+06
 0.89499992E+02  0.13880E+06
 0.89549995E+02  0.64368E+05
 0.89599991E+02 -0.71091E+03
 0.89649994E+02 -0.48532E+05
 0.89699997E+02 -0.86612E+05
 0.89749992E+02 -0.12927E+06
 0.89799995E+02 -0.17911E+06
 0.89849991E+02 -0.23264E+06
 0.89899994E+02 -0.27831E+06
 0.89949997E+02 -0.29933E+06
 0.89999992E+02 -0.28335E+06
 0.90049995E+02 -0.22352E+06
 0.90099991E+02 -0.12707E+06
 0.90149994E+02 -0.12354E+05
 0.90199997E+02  0.97928E+05
 0.90249992E+02  0.18635E+06
 0.90299995E+02  0.24839E+06
 0.90349991E+02  0.28529E+06
 0.90399994E+02  0.30063E+06
 0.90449997E+02  0.30540E+06
 0.90499992E+02  0.30985E+06
 0.90549995E+02  0.31676E+06
 0.90599991E+02  0.32516E+06
 0.90649994E+02  0.33018E+06
 0.90699997E+02  0.31881E+06
 0.90749992E+02  0.27968E+06
 0.90799995E+02  0.21615E+06
 0.90849991E+02  0.13794E+06
 0.90899994E+02  0.45608E+05
 0.90949997E+02 -0.54814E+05
 0.90999992E+02 -0.15265E+06
 0.91049995E+02 -0.24829E+06
 0.91099991E+02 -0.33829E+06
 0.91149994E+02 -0.41839E+06
 0.91199997E+02 -0.48649E+06
 0.91249992E+02 -0.53691E+06
 0.91299995E+02 -0.56553E+06
 0.91349991E+02 -0.57177E+06
 0.91399994E+02 -0.55737E+06
 0.91449997E+02 -0.52382E+06
 0.91499992E+02 -0.47743E+06
 0.91549995E+02 -0.42359E+06
 0.91599991E+02 -0.36505E+06
 0.91649994E+02 -0.30089E+06
 0.91699997E+02 -0.23105E+06
 0.91749992E+02 -0.15724E+06
 0.91799995E+02 -0.70131E+05
 0.91849991E+02  0.37732E+05
 0.91899994E+02  0.16111E+06
 0.91949997E+02  0.28713E+06
 0.91999992E+02  0.40109E+06
 0.92049995E+02  0.49671E+06
 0.92099991E+02  0.57585E+06
 0.92149994E+02  0.63788E+06
 0.92199997E+02  0.67559E+06
 0.92249992E+02  0.68095E+06
 0.92299995E+02  0.64770E+06
 0.92349991E+02  0.57249E+06
 0.92399994E+02  0.46058E+06
 0.92449997E+02  0.32576E+06
 0.92499992E+02  0.18749E+06
 0.92549995E+02  0.56149E+05
 0.92599991E+02 -0.67034E+05
 0.92649994E+02 -0.18284E+06
 0.92699997E+02 -0.28015E+06
 0.92749992E+02 -0.34170E+06
 0.92799995E+02 -0.36053E+06
 0.92849991E+02 -0.33601E+06
 0.92899994E+02 -0.27507E+06
 0.92949997E+02 -0.18733E+06
 0.92999992E+02 -0.83549E+05
 0.93049995E+02  0.26947E+05
 0.93099991E+02  0.13180E+06
 0.93149994E+02  0.22026E+06
 0.93199997E+02  0.28711E+06
 0.93249992E+02  0.33155E+06
 0.93299995E+02  0.35491E+06
 0.93349991E+02  0.35895E+06
 0.93399994E+02  0.34963E+06
 0.93449997E+02  0.33989E+06
 0.93499992E+02  0.33933E+06
 0.93549995E+02  0.35039E+06
 0.93599991E+02  0.37305E+06
 0.93649994E+02  0.39876E+06
 0.93699997E+02  0.41225E+06
 0.93749992E+02  0.39887E+06
 0.93799995E+02  0.35388E+06
 0.93849991E+02  0.28470E+06
 0.93899994E+02  0.20158E+06
 0.93949997E+02  0.10925E+06
 0.93999992E+02  0.93593E+04
 0.94049995E+02 -0.99621E+05
 0.94099991E+02 -0.21797E+06
 0.94149994E+02 -0.34230E+06
 0.94199997E+02 -0.46335E+06
 0.94249992E+02 -0.56382E+06
 0.94299995E+02 -0.62946E+06
 0.94349991E+02 -0.65779E+06
 0.94399994E+02 -0.65506E+06
 0.94449997E+02 -0.62582E+06
 0.94499992E+02 -0.56951E+06
 0.94549995E+02 -0.49641E+06
 0.94599991E+02 -0.41843E+06
 0.94649994E+02 -0.34315E+06
 0.94699997E+02 -0.27745E+06
 0.94749992E+02 -0.22513E+06
 0.94799995E+02 -0.18293E+06
 0.94849991E+02 -0.14403E+06
 0.94899994E+02 -0.11043E+06
 0.94949997E+02 -0.83555E+05
 0.94999992E+02 -0.65324E+05
 0.95049995E+02 -0.54312E+05
 0.95099991E+02 -0.39758E+05
 0.95149994E+02 -0.15323E+05
 0.95199997E+02  0.10872E+05
 0.95249992E+02  0.21752E+05
 0.95299995E+02  0.74083E+04
 0.95349991E+02 -0.33840E+05
 0.95399994E+02 -0.95946E+05
 0.95449997E+02 -0.16059E+06
 0.95499992E+02 -0.21469E+06
 0.95549995E+02 -0.25547E+06
 0.95599991E+02 -0.27511E+06
 0.95649994E+02 -0.26526E+06
 0.95699997E+02 -0.22134E+06
 0.95749992E+02 -0.14556E+06
 0.95799995E+02 -0.47486E+05
 0.95849991E+02  0.65373E+05
 0.95899994E+02  0.18746E+06
 0.95949997E+02  0.31344E+06
 0.95999992E+02  0.43850E+06
 0.96049995E+02  0.55622E+06
 0.96099991E+02  0.65635E+06
 0.96149994E+02  0.73059E+06
 0.96199997E+02  0.77092E+06
 0.96249992E+02  0.77606E+06
 0.96299995E+02  0.74907E+06
 0.96349991E+02  0.69311E+06
 0.96399994E+02  0.61196E+06
 0.96449997E+02  0.50652E+06
 0.96499992E+02  0.37766E+06
 0.96549995E+02  0.23279E+06
 0.96599991E+02  0.89618E+05
 0.96649994E+02 -0.41456E+05
 0.96699997E+02 -0.15413E+06
 0.96749992E+02 -0.24617E+06
 0.96799995E+02 -0.32177E+06
 0.96849991E+02 -0.38606E+06
 0.96899994E+02 -0.44102E+06
 0.96949997E+02 -0.48326E+06
 0.96999992E+02 -0.50920E+06
 0.97049995E+02 -0.51432E+06
 0.97099991E+02 -0.49965E+06
 0.97149994E+02 -0.47021E+06
 0.97199997E+02 -0.43093E+06
 0.97249992E+02 -0.38333E+06
 0.97299995E+02 -0.33154E+06
 0.97349991E+02 -0.27625E+06
 0.97399994E+02 -0.21563E+06
 0.97449997E+02 -0.15506E+06
 0.97499992E+02 -0.10107E+06
 0.97549995E+02 -0.61603E+05
 0.97599991E+02 -0.41387E+05
 0.97649994E+02 -0.35849E+05
 0.97699997E+02 -0.35183E+05
 0.97749992E+02 -0.30844E+05
 0.97799995E+02 -0.16189E+05
 0.97849991E+02  0.12726E+05
 0.97899994E+02  0.56825E+05
 0.97949997E+02  0.11102E+06
 0.97999992E+02  0.16728E+06
