-0.20000000E+01  0.69998E+04
-0.19500000E+01  0.69670E+04
-0.19000000E+01  0.69988E+04
-0.18500000E+01  0.69842E+04
-0.18000000E+01  0.69727E+04
-0.17500000E+01  0.69698E+04
-0.17000000E+01  0.69577E+04
-0.16500001E+01  0.69582E+04
-0.16000000E+01  0.69761E+04
-0.15500000E+01  0.70101E+04
-0.15000000E+01  0.70322E+04
-0.14500000E+01  0.70454E+04
-0.14000001E+01  0.70532E+04
-0.13500000E+01  0.70625E+04
-0.13000001E+01  0.70676E+04
-0.12500000E+01  0.70671E+04
-0.12000000E+01  0.70593E+04
-0.11500001E+01  0.70480E+04
-0.11000000E+01  0.70286E+04
-0.10500001E+01  0.69980E+04
-0.10000000E+01  0.69660E+04
-0.95000005E+00  0.69471E+04
-0.90000010E+00  0.69329E+04
-0.85000002E+00  0.69306E+04
-0.80000007E+00  0.69213E+04
-0.75000012E+00  0.69149E+04
-0.70000005E+00  0.69146E+04
-0.65000010E+00  0.69181E+04
-0.60000014E+00  0.69217E+04
-0.55000007E+00  0.69195E+04
-0.50000012E+00  0.69203E+04
-0.45000005E+00  0.69244E+04
-0.40000010E+00  0.69265E+04
-0.35000014E+00  0.69300E+04
-0.30000007E+00  0.69298E+04
-0.25000012E+00  0.69244E+04
-0.20000005E+00  0.69300E+04
-0.15000010E+00  0.69319E+04
-0.10000014E+00  0.69297E+04
-0.50000072E-01  0.69134E+04
-0.11920929E-06  0.69148E+04
 0.49999952E-01  0.69285E+04
 0.99999905E-01  0.69473E+04
 0.14999986E+00  0.69740E+04
 0.19999981E+00  0.69983E+04
 0.24999976E+00  0.70197E+04
 0.29999995E+00  0.70322E+04
 0.34999990E+00  0.70365E+04
 0.39999986E+00  0.70386E+04
 0.44999981E+00  0.70352E+04
 0.49999976E+00  0.70233E+04
 0.54999995E+00  0.70176E+04
 0.59999990E+00  0.69986E+04
 0.64999986E+00  0.69908E+04
 0.69999981E+00  0.69974E+04
 0.74999976E+00  0.70072E+04
 0.79999971E+00  0.70165E+04
 0.84999990E+00  0.70212E+04
 0.89999986E+00  0.70348E+04
 0.94999981E+00  0.70281E+04
 0.99999976E+00  0.70270E+04
 0.10499997E+01  0.70041E+04
 0.10999999E+01  0.69862E+04
 0.11499999E+01  0.69699E+04
 0.11999998E+01  0.69413E+04
 0.12499998E+01  0.69375E+04
 0.12999997E+01  0.69296E+04
 0.13499999E+01  0.69305E+04
 0.13999999E+01  0.69291E+04
 0.14499998E+01  0.69297E+04
 0.14999998E+01  0.69366E+04
 0.15499997E+01  0.69382E+04
 0.15999999E+01  0.69584E+04
 0.16499999E+01  0.69660E+04
 0.16999998E+01  0.69743E+04
 0.17499998E+01  0.69814E+04
 0.17999997E+01  0.69700E+04
 0.18499997E+01  0.69816E+04
 0.18999999E+01  0.69646E+04
 0.19499998E+01  0.69784E+04
 0.19999998E+01  0.69672E+04
 0.20499997E+01  0.69788E+04
 0.20999999E+01  0.69871E+04
 0.21499996E+01  0.69949E+04
 0.21999998E+01  0.70120E+04
 0.22499995E+01  0.69837E+04
 0.22999997E+01  0.69720E+04
 0.23499999E+01  0.69474E+04
 0.23999996E+01  0.69406E+04
 0.24499998E+01  0.69248E+04
 0.24999995E+01  0.69249E+04
 0.25499997E+01  0.69256E+04
 0.25999999E+01  0.69259E+04
 0.26499996E+01  0.69279E+04
 0.26999998E+01  0.69436E+04
 0.27499995E+01  0.69445E+04
 0.27999997E+01  0.69510E+04
 0.28499999E+01  0.69461E+04
 0.28999996E+01  0.69452E+04
 0.29499998E+01  0.69594E+04
 0.29999995E+01  0.69617E+04
 0.30499997E+01  0.69753E+04
 0.30999999E+01  0.69799E+04
 0.31499996E+01  0.69903E+04
 0.31999998E+01  0.69837E+04
 0.32499995E+01  0.69673E+04
 0.32999997E+01  0.69510E+04
 0.33499999E+01  0.69514E+04
 0.33999996E+01  0.69520E+04
 0.34499998E+01  0.69625E+04
 0.34999995E+01  0.69693E+04
 0.35499997E+01  0.69709E+04
 0.35999994E+01  0.69606E+04
 0.36499996E+01  0.69456E+04
 0.36999998E+01  0.69347E+04
 0.37499995E+01  0.69266E+04
 0.37999997E+01  0.69364E+04
 0.38499994E+01  0.69499E+04
 0.38999996E+01  0.69646E+04
 0.39499998E+01  0.69611E+04
 0.39999995E+01  0.69725E+04
 0.40499997E+01  0.69660E+04
 0.40999994E+01  0.69804E+04
 0.41499996E+01  0.69870E+04
 0.41999998E+01  0.69964E+04
 0.42499995E+01  0.70003E+04
 0.42999997E+01  0.70061E+04
 0.43499994E+01  0.70084E+04
 0.43999996E+01  0.70032E+04
 0.44499998E+01  0.69997E+04
 0.44999995E+01  0.69941E+04
 0.45499997E+01  0.70151E+04
 0.45999994E+01  0.70134E+04
 0.46499996E+01  0.70185E+04
 0.46999998E+01  0.70163E+04
 0.47499995E+01  0.70233E+04
 0.47999997E+01  0.70213E+04
 0.48499994E+01  0.70175E+04
 0.48999996E+01  0.70201E+04
 0.49499998E+01  0.70165E+04
 0.49999995E+01  0.70148E+04
 0.50499997E+01  0.69942E+04
 0.50999994E+01  0.69848E+04
 0.51499996E+01  0.69756E+04
 0.51999998E+01  0.69697E+04
 0.52499995E+01  0.69892E+04
 0.52999997E+01  0.69810E+04
 0.53499994E+01  0.69879E+04
 0.53999996E+01  0.69708E+04
 0.54499993E+01  0.69565E+04
 0.54999995E+01  0.69377E+04
 0.55499997E+01  0.69183E+04
 0.55999994E+01  0.69298E+04
 0.56499996E+01  0.69315E+04
 0.56999993E+01  0.69442E+04
 0.57499995E+01  0.69375E+04
 0.57999997E+01  0.69377E+04
 0.58499994E+01  0.69294E+04
 0.58999996E+01  0.69245E+04
 0.59499993E+01  0.69251E+04
 0.59999995E+01  0.69138E+04
 0.60499992E+01  0.69132E+04
 0.60999994E+01  0.69095E+04
 0.61499996E+01  0.69223E+04
 0.61999998E+01  0.69390E+04
 0.62499990E+01  0.69576E+04
 0.62999992E+01  0.69639E+04
 0.63499994E+01  0.69735E+04
 0.63999996E+01  0.69726E+04
 0.64499998E+01  0.69591E+04
 0.64999990E+01  0.69542E+04
 0.65499992E+01  0.69251E+04
 0.65999994E+01  0.69209E+04
 0.66499996E+01  0.69218E+04
 0.66999998E+01  0.69333E+04
 0.67499990E+01  0.69428E+04
 0.67999992E+01  0.69608E+04
 0.68499994E+01  0.69542E+04
 0.68999996E+01  0.69363E+04
 0.69499998E+01  0.69289E+04
 0.69999990E+01  0.69358E+04
 0.70499992E+01  0.69699E+04
 0.70999994E+01  0.69896E+04
 0.71499996E+01  0.70187E+04
 0.71999998E+01  0.70344E+04
 0.72499990E+01  0.70412E+04
 0.72999992E+01  0.70539E+04
 0.73499994E+01  0.70572E+04
 0.73999996E+01  0.70647E+04
 0.74499998E+01  0.70657E+04
 0.74999990E+01  0.70592E+04
 0.75499992E+01  0.70531E+04
 0.75999994E+01  0.70441E+04
 0.76499996E+01  0.70291E+04
 0.76999998E+01  0.70262E+04
 0.77499990E+01  0.70068E+04
 0.77999992E+01  0.69995E+04
 0.78499994E+01  0.69954E+04
 0.78999996E+01  0.69827E+04
 0.79499998E+01  0.69850E+04
 0.79999990E+01  0.69615E+04
 0.80499992E+01  0.69436E+04
 0.80999994E+01  0.69179E+04
 0.81499996E+01  0.69036E+04
 0.81999998E+01  0.68774E+04
 0.82499990E+01  0.68565E+04
 0.82999992E+01  0.68486E+04
 0.83499994E+01  0.68530E+04
 0.83999996E+01  0.68722E+04
 0.84499998E+01  0.68986E+04
 0.84999990E+01  0.69362E+04
 0.85499992E+01  0.69550E+04
 0.85999994E+01  0.69768E+04
 0.86499996E+01  0.69922E+04
 0.86999998E+01  0.70035E+04
 0.87499990E+01  0.70048E+04
 0.87999992E+01  0.70184E+04
 0.88499994E+01  0.70354E+04
 0.88999996E+01  0.70579E+04
 0.89499998E+01  0.70717E+04
 0.89999990E+01  0.70748E+04
 0.90499992E+01  0.70701E+04
 0.90999994E+01  0.70379E+04
 0.91499996E+01  0.70206E+04
 0.91999989E+01  0.69887E+04
 0.92499990E+01  0.69733E+04
 0.92999992E+01  0.69617E+04
 0.93499994E+01  0.69444E+04
 0.93999996E+01  0.69440E+04
 0.94499989E+01  0.69384E+04
 0.94999990E+01  0.69470E+04
 0.95499992E+01  0.69589E+04
 0.95999994E+01  0.69474E+04
 0.96499996E+01  0.69320E+04
 0.96999989E+01  0.69208E+04
 0.97499990E+01  0.69003E+04
 0.97999992E+01  0.69001E+04
 0.98499994E+01  0.68980E+04
 0.98999996E+01  0.69001E+04
 0.99499989E+01  0.69139E+04
 0.99999990E+01  0.69282E+04
 0.10049999E+02  0.69442E+04
 0.10099999E+02  0.69485E+04
 0.10150000E+02  0.69743E+04
 0.10199999E+02  0.69793E+04
 0.10249999E+02  0.69813E+04
 0.10299999E+02  0.69889E+04
 0.10349999E+02  0.69946E+04
 0.10400000E+02  0.70111E+04
 0.10449999E+02  0.70184E+04
 0.10499999E+02  0.70355E+04
 0.10549999E+02  0.70405E+04
 0.10599999E+02  0.70497E+04
 0.10650000E+02  0.70422E+04
 0.10699999E+02  0.70366E+04
 0.10749999E+02  0.70199E+04
 0.10799999E+02  0.69884E+04
 0.10849999E+02  0.69675E+04
 0.10900000E+02  0.69567E+04
 0.10949999E+02  0.69558E+04
 0.10999999E+02  0.69581E+04
 0.11049999E+02  0.69524E+04
 0.11099999E+02  0.69510E+04
 0.11150000E+02  0.69524E+04
 0.11199999E+02  0.69556E+04
 0.11249999E+02  0.69657E+04
 0.11299999E+02  0.69708E+04
 0.11349999E+02  0.69804E+04
 0.11400000E+02  0.69768E+04
 0.11449999E+02  0.69785E+04
 0.11499999E+02  0.69768E+04
 0.11549999E+02  0.69787E+04
 0.11599999E+02  0.69741E+04
 0.11650000E+02  0.69696E+04
 0.11699999E+02  0.69673E+04
 0.11749999E+02  0.69544E+04
 0.11799999E+02  0.69465E+04
 0.11849999E+02  0.69432E+04
 0.11900000E+02  0.69307E+04
 0.11949999E+02  0.69370E+04
 0.11999999E+02  0.69305E+04
 0.12049999E+02  0.69359E+04
 0.12099999E+02  0.69588E+04
 0.12150000E+02  0.69697E+04
 0.12199999E+02  0.69751E+04
 0.12249999E+02  0.69661E+04
 0.12299999E+02  0.69663E+04
 0.12349999E+02  0.69543E+04
 0.12400000E+02  0.69521E+04
 0.12449999E+02  0.69544E+04
 0.12499999E+02  0.69594E+04
 0.12549999E+02  0.69509E+04
 0.12599999E+02  0.69392E+04
 0.12649999E+02  0.69310E+04
 0.12699999E+02  0.69283E+04
 0.12749999E+02  0.69514E+04
 0.12799999E+02  0.69642E+04
 0.12849999E+02  0.69736E+04
 0.12899999E+02  0.69899E+04
 0.12949999E+02  0.69910E+04
 0.12999999E+02  0.69854E+04
 0.13049999E+02  0.69727E+04
 0.13099999E+02  0.69572E+04
 0.13149999E+02  0.69560E+04
 0.13199999E+02  0.69523E+04
 0.13249999E+02  0.69504E+04
 0.13299999E+02  0.69542E+04
 0.13349999E+02  0.69558E+04
 0.13399999E+02  0.69443E+04
 0.13449999E+02  0.69310E+04
 0.13499999E+02  0.69224E+04
 0.13549999E+02  0.69273E+04
 0.13599999E+02  0.69456E+04
 0.13649999E+02  0.69765E+04
 0.13699999E+02  0.70034E+04
 0.13749999E+02  0.70239E+04
 0.13799999E+02  0.70374E+04
 0.13849999E+02  0.70360E+04
 0.13899999E+02  0.70337E+04
 0.13949999E+02  0.70237E+04
 0.13999999E+02  0.70217E+04
 0.14049999E+02  0.70078E+04
 0.14099998E+02  0.70021E+04
 0.14150000E+02  0.69973E+04
 0.14199999E+02  0.69897E+04
 0.14249998E+02  0.69921E+04
 0.14299999E+02  0.69876E+04
 0.14349998E+02  0.69746E+04
 0.14400000E+02  0.69646E+04
 0.14449999E+02  0.69568E+04
 0.14499998E+02  0.69533E+04
 0.14549999E+02  0.69549E+04
 0.14599998E+02  0.69501E+04
 0.14650000E+02  0.69578E+04
 0.14699999E+02  0.69454E+04
 0.14749998E+02  0.69437E+04
 0.14799999E+02  0.69252E+04
 0.14849998E+02  0.69383E+04
 0.14900000E+02  0.69442E+04
 0.14949999E+02  0.69503E+04
 0.14999998E+02  0.69767E+04
 0.15049999E+02  0.69789E+04
 0.15099998E+02  0.69897E+04
 0.15150000E+02  0.69875E+04
 0.15199999E+02  0.69999E+04
 0.15249998E+02  0.70001E+04
 0.15299999E+02  0.70118E+04
 0.15349998E+02  0.70166E+04
 0.15400000E+02  0.70132E+04
 0.15449999E+02  0.70100E+04
 0.15499998E+02  0.70145E+04
 0.15549999E+02  0.70060E+04
 0.15599998E+02  0.69968E+04
 0.15650000E+02  0.69818E+04
 0.15699999E+02  0.69711E+04
 0.15749998E+02  0.69867E+04
 0.15799999E+02  0.69741E+04
 0.15849998E+02  0.69711E+04
 0.15900000E+02  0.69694E+04
 0.15949999E+02  0.69665E+04
 0.15999998E+02  0.69810E+04
 0.16049999E+02  0.69803E+04
 0.16099998E+02  0.69881E+04
 0.16150000E+02  0.69766E+04
 0.16199999E+02  0.69742E+04
 0.16249998E+02  0.69645E+04
 0.16299999E+02  0.69397E+04
 0.16349998E+02  0.69500E+04
 0.16400000E+02  0.69317E+04
 0.16449999E+02  0.69176E+04
 0.16499998E+02  0.69211E+04
 0.16549999E+02  0.69129E+04
 0.16599998E+02  0.69018E+04
 0.16650000E+02  0.69083E+04
 0.16699999E+02  0.69085E+04
 0.16749998E+02  0.69217E+04
 0.16799999E+02  0.69283E+04
 0.16849998E+02  0.69319E+04
 0.16900000E+02  0.69358E+04
 0.16949999E+02  0.69425E+04
 0.16999998E+02  0.69258E+04
 0.17049999E+02  0.69246E+04
 0.17099998E+02  0.69179E+04
 0.17150000E+02  0.69106E+04
 0.17199999E+02  0.69300E+04
 0.17249998E+02  0.69210E+04
 0.17299999E+02  0.69610E+04
 0.17349998E+02  0.69556E+04
 0.17400000E+02  0.69660E+04
 0.17449999E+02  0.69752E+04
 0.17499998E+02  0.69773E+04
 0.17549999E+02  0.69754E+04
 0.17599998E+02  0.69640E+04
 0.17650000E+02  0.69629E+04
 0.17699999E+02  0.69455E+04
 0.17749998E+02  0.69549E+04
 0.17799999E+02  0.69668E+04
 0.17849998E+02  0.69782E+04
 0.17900000E+02  0.69825E+04
 0.17949999E+02  0.69892E+04
 0.17999998E+02  0.69963E+04
 0.18049999E+02  0.70167E+04
 0.18099998E+02  0.70357E+04
 0.18150000E+02  0.70516E+04
 0.18199999E+02  0.70668E+04
 0.18249998E+02  0.70715E+04
 0.18299999E+02  0.70751E+04
 0.18349998E+02  0.70734E+04
 0.18400000E+02  0.70607E+04
 0.18449999E+02  0.70637E+04
 0.18499998E+02  0.70613E+04
 0.18549999E+02  0.70426E+04
 0.18599998E+02  0.70139E+04
 0.18650000E+02  0.69981E+04
 0.18699999E+02  0.69710E+04
 0.18749998E+02  0.69631E+04
 0.18799999E+02  0.69500E+04
 0.18849998E+02  0.69317E+04
 0.18900000E+02  0.69297E+04
 0.18949999E+02  0.69157E+04
 0.18999998E+02  0.69169E+04
 0.19049999E+02  0.69229E+04
 0.19099998E+02  0.69329E+04
 0.19150000E+02  0.69291E+04
 0.19199999E+02  0.69287E+04
 0.19249998E+02  0.69127E+04
 0.19299999E+02  0.69114E+04
 0.19349998E+02  0.69244E+04
 0.19400000E+02  0.69283E+04
 0.19449999E+02  0.69499E+04
 0.19499998E+02  0.69623E+04
 0.19549999E+02  0.69602E+04
 0.19599998E+02  0.69663E+04
 0.19650000E+02  0.69671E+04
 0.19699999E+02  0.69653E+04
 0.19749998E+02  0.69748E+04
 0.19799999E+02  0.69680E+04
 0.19849998E+02  0.69669E+04
 0.19900000E+02  0.69744E+04
 0.19949999E+02  0.69818E+04
 0.19999998E+02  0.69685E+04
 0.20049999E+02  0.69587E+04
 0.20099998E+02  0.69580E+04
 0.20150000E+02  0.69378E+04
 0.20199999E+02  0.69486E+04
 0.20249998E+02  0.69474E+04
 0.20299999E+02  0.69485E+04
 0.20349998E+02  0.69483E+04
 0.20399998E+02  0.69374E+04
 0.20449999E+02  0.69422E+04
 0.20499998E+02  0.69431E+04
 0.20549999E+02  0.69453E+04
 0.20599998E+02  0.69478E+04
 0.20649998E+02  0.69470E+04
 0.20699999E+02  0.69548E+04
 0.20749998E+02  0.69567E+04
 0.20799999E+02  0.69500E+04
 0.20849998E+02  0.69591E+04
 0.20899998E+02  0.69425E+04
 0.20949999E+02  0.69386E+04
 0.20999998E+02  0.69330E+04
 0.21049999E+02  0.69297E+04
 0.21099998E+02  0.69415E+04
 0.21149998E+02  0.69361E+04
 0.21199999E+02  0.69499E+04
 0.21249998E+02  0.69515E+04
 0.21299999E+02  0.69587E+04
 0.21349998E+02  0.69746E+04
 0.21399998E+02  0.69872E+04
 0.21449999E+02  0.70078E+04
 0.21499998E+02  0.70249E+04
 0.21549999E+02  0.70245E+04
 0.21599998E+02  0.70323E+04
 0.21649998E+02  0.70275E+04
 0.21699999E+02  0.70281E+04
 0.21749998E+02  0.70405E+04
 0.21799999E+02  0.70202E+04
 0.21849998E+02  0.70335E+04
 0.21899998E+02  0.70208E+04
 0.21949999E+02  0.70227E+04
 0.21999998E+02  0.70233E+04
 0.22049999E+02  0.70068E+04
 0.22099998E+02  0.70105E+04
 0.22149998E+02  0.69913E+04
 0.22199999E+02  0.69850E+04
 0.22249998E+02  0.69623E+04
 0.22299999E+02  0.69547E+04
 0.22349998E+02  0.69437E+04
 0.22399998E+02  0.69424E+04
 0.22449999E+02  0.69416E+04
 0.22499998E+02  0.69577E+04
 0.22549999E+02  0.69655E+04
 0.22599998E+02  0.69690E+04
 0.22649998E+02  0.69680E+04
 0.22699999E+02  0.69623E+04
 0.22749998E+02  0.69818E+04
 0.22799999E+02  0.69810E+04
 0.22849998E+02  0.69863E+04
 0.22899998E+02  0.69804E+04
 0.22949999E+02  0.69703E+04
 0.22999998E+02  0.69552E+04
 0.23049999E+02  0.69425E+04
 0.23099998E+02  0.69458E+04
 0.23149998E+02  0.69490E+04
 0.23199999E+02  0.69572E+04
 0.23249998E+02  0.69455E+04
 0.23299999E+02  0.69329E+04
 0.23349998E+02  0.69337E+04
 0.23399998E+02  0.69124E+04
 0.23449999E+02  0.69261E+04
 0.23499998E+02  0.69209E+04
 0.23549999E+02  0.69326E+04
 0.23599998E+02  0.69335E+04
 0.23649998E+02  0.69190E+04
 0.23699999E+02  0.69272E+04
 0.23749998E+02  0.69208E+04
 0.23799999E+02  0.69340E+04
 0.23849998E+02  0.69359E+04
 0.23899998E+02  0.69379E+04
 0.23949999E+02  0.69478E+04
 0.23999998E+02  0.69433E+04
 0.24049999E+02  0.69542E+04
 0.24099998E+02  0.69523E+04
 0.24149998E+02  0.69673E+04
 0.24199999E+02  0.70058E+04
 0.24249998E+02  0.70054E+04
 0.24299999E+02  0.70451E+04
 0.24349998E+02  0.70358E+04
 0.24399998E+02  0.70361E+04
 0.24449999E+02  0.70219E+04
 0.24499998E+02  0.69810E+04
 0.24549999E+02  0.69577E+04
 0.24599998E+02  0.69361E+04
 0.24649998E+02  0.69522E+04
 0.24699999E+02  0.69546E+04
 0.24749998E+02  0.70205E+04
 0.24799999E+02  0.71156E+04
 0.24849998E+02  0.70679E+04
 0.24899998E+02  0.70234E+04
 0.24949999E+02  0.69638E+04
 0.24999998E+02  0.68520E+04
 0.25049999E+02  0.69791E+04
 0.25099998E+02  0.71895E+04
 0.25149998E+02  0.71496E+04
 0.25199999E+02  0.71330E+04
 0.25249998E+02  0.72064E+04
 0.25299999E+02  0.69724E+04
 0.25349998E+02  0.65861E+04
 0.25399998E+02  0.66995E+04
 0.25449999E+02  0.68801E+04
 0.25499998E+02  0.67619E+04
 0.25549999E+02  0.70891E+04
 0.25599998E+02  0.76469E+04
 0.25649998E+02  0.69903E+04
 0.25699999E+02  0.65004E+04
 0.25749998E+02  0.73638E+04
 0.25799999E+02  0.71548E+04
 0.25849998E+02  0.67337E+04
 0.25899998E+02  0.72239E+04
 0.25949999E+02  0.72715E+04
 0.25999998E+02  0.65475E+04
 0.26049999E+02  0.64084E+04
 0.26099998E+02  0.65416E+04
 0.26149998E+02  0.61853E+04
 0.26199999E+02  0.66272E+04
 0.26249998E+02  0.77466E+04
 0.26299999E+02  0.78871E+04
 0.26349998E+02  0.67773E+04
 0.26399998E+02  0.76213E+04
 0.26449999E+02  0.78471E+04
 0.26499998E+02  0.63156E+04
 0.26549999E+02  0.64668E+04
 0.26599998E+02  0.67124E+04
 0.26649998E+02  0.57459E+04
 0.26699999E+02  0.49616E+04
 0.26749998E+02  0.50234E+04
 0.26799999E+02  0.53810E+04
 0.26849998E+02  0.68575E+04
 0.26899998E+02  0.71802E+04
 0.26949999E+02  0.57377E+04
 0.26999998E+02  0.73339E+04
 0.27049997E+02  0.10001E+05
 0.27099998E+02  0.98358E+04
 0.27149998E+02  0.79075E+04
 0.27199999E+02  0.69033E+04
 0.27249998E+02  0.86089E+04
 0.27299997E+02  0.77431E+04
 0.27349998E+02  0.83776E+04
 0.27399998E+02  0.95007E+04
 0.27449999E+02  0.56261E+04
 0.27499998E+02  0.66787E+04
 0.27549997E+02  0.77351E+04
 0.27599998E+02  0.62535E+04
 0.27649998E+02  0.54364E+04
 0.27699999E+02  0.59922E+04
 0.27749998E+02  0.69691E+04
 0.27799997E+02  0.45003E+04
 0.27849998E+02  0.55680E+04
 0.27899998E+02  0.61292E+04
 0.27949999E+02  0.67225E+04
 0.27999998E+02  0.81175E+04
 0.28049997E+02  0.82117E+04
 0.28099998E+02  0.85953E+04
 0.28149998E+02  0.75752E+04
 0.28199999E+02  0.10111E+05
 0.28249998E+02  0.81543E+04
 0.28299997E+02  0.41490E+04
 0.28349998E+02  0.55192E+04
 0.28399998E+02  0.64642E+04
 0.28449999E+02  0.55056E+04
 0.28499998E+02  0.51000E+04
 0.28549997E+02  0.56359E+04
 0.28599998E+02  0.81303E+04
 0.28649998E+02  0.83506E+04
 0.28699999E+02  0.67984E+04
 0.28749998E+02  0.77674E+04
 0.28799997E+02  0.82563E+04
 0.28849998E+02  0.63565E+04
 0.28899998E+02  0.50104E+04
 0.28949999E+02  0.54055E+04
 0.28999998E+02  0.65802E+04
 0.29049997E+02  0.80342E+04
 0.29099998E+02  0.68170E+04
 0.29149998E+02  0.62863E+04
 0.29199999E+02  0.65976E+04
 0.29249998E+02  0.81710E+04
 0.29299997E+02  0.86527E+04
 0.29349998E+02  0.73909E+04
 0.29399998E+02  0.58242E+04
 0.29449999E+02  0.73958E+04
 0.29499998E+02  0.62564E+04
 0.29549997E+02  0.53371E+04
 0.29599998E+02  0.39081E+04
 0.29649998E+02  0.51540E+04
 0.29699999E+02  0.86969E+04
 0.29749998E+02  0.58218E+04
 0.29799997E+02  0.95009E+04
 0.29849998E+02  0.10401E+05
 0.29899998E+02  0.77955E+04
 0.29949999E+02  0.63622E+04
 0.29999998E+02  0.72784E+04
 0.30049999E+02  0.75110E+04
 0.30099998E+02  0.39831E+04
 0.30149998E+02  0.66303E+04
 0.30199997E+02  0.94778E+04
 0.30249996E+02  0.71415E+04
 0.30299999E+02  0.71737E+04
 0.30349998E+02  0.11833E+05
 0.30399998E+02  0.98534E+04
 0.30449997E+02  0.79931E+04
 0.30499996E+02  0.80126E+04
 0.30549999E+02  0.44021E+04
 0.30599998E+02  0.60176E+04
 0.30649998E+02  0.66184E+04
 0.30699997E+02  0.61727E+04
 0.30749996E+02  0.73957E+04
 0.30799999E+02  0.70003E+04
 0.30849998E+02  0.62094E+04
 0.30899998E+02  0.55834E+04
 0.30949997E+02  0.61285E+04
 0.30999996E+02  0.56198E+04
 0.31049999E+02  0.49351E+04
 0.31099998E+02  0.46974E+04
 0.31149998E+02  0.85948E+04
 0.31199997E+02  0.89780E+04
 0.31249996E+02  0.60855E+04
 0.31299999E+02  0.82400E+04
 0.31349998E+02  0.73609E+04
 0.31399998E+02  0.69798E+04
 0.31449997E+02  0.76963E+04
 0.31499996E+02  0.57291E+04
 0.31549999E+02  0.53261E+04
 0.31599998E+02  0.70741E+04
 0.31649998E+02  0.54443E+04
 0.31699997E+02  0.72169E+04
 0.31749996E+02  0.62347E+04
 0.31799999E+02  0.22478E+04
 0.31849998E+02  0.68488E+04
 0.31899998E+02  0.82048E+04
 0.31949997E+02  0.56649E+04
 0.31999996E+02  0.67493E+04
 0.32049999E+02  0.94727E+04
 0.32099998E+02  0.92317E+04
 0.32149998E+02  0.87035E+04
 0.32199997E+02  0.99397E+04
 0.32249996E+02  0.10301E+05
 0.32299999E+02  0.95044E+04
 0.32349998E+02  0.69890E+04
 0.32399998E+02  0.75520E+04
 0.32449997E+02  0.74316E+04
 0.32499996E+02  0.79596E+04
 0.32549999E+02  0.87304E+04
 0.32599998E+02  0.57062E+04
 0.32649998E+02  0.37088E+04
 0.32699997E+02  0.49063E+04
 0.32749996E+02  0.83874E+04
 0.32799999E+02  0.67582E+04
 0.32849998E+02  0.69502E+04
 0.32899998E+02  0.60575E+04
 0.32949997E+02  0.65402E+04
 0.32999996E+02  0.65659E+04
 0.33049999E+02  0.27845E+04
 0.33099998E+02  0.40406E+04
 0.33149998E+02  0.47635E+04
 0.33199997E+02  0.64279E+04
 0.33249996E+02  0.74496E+04
 0.33299999E+02  0.50882E+04
 0.33349998E+02  0.50044E+04
 0.33399998E+02  0.62764E+04
 0.33449997E+02  0.71064E+04
 0.33499996E+02  0.82286E+04
 0.33549999E+02  0.95076E+04
 0.33599998E+02  0.87906E+04
 0.33649998E+02  0.79461E+04
 0.33699997E+02  0.97485E+04
 0.33749996E+02  0.93664E+04
 0.33799999E+02  0.86471E+04
 0.33849998E+02  0.66892E+04
 0.33899998E+02  0.89253E+04
 0.33949997E+02  0.99083E+04
 0.33999996E+02  0.95354E+04
 0.34049999E+02  0.10166E+05
 0.34099998E+02  0.89269E+04
 0.34149998E+02  0.64776E+04
 0.34199997E+02  0.38972E+04
 0.34249996E+02  0.61644E+04
 0.34299999E+02  0.64239E+04
 0.34349998E+02  0.61168E+04
 0.34399998E+02  0.67958E+04
 0.34449997E+02  0.47220E+04
 0.34499996E+02  0.32189E+04
 0.34549999E+02  0.40827E+04
 0.34599998E+02  0.70561E+04
 0.34649998E+02  0.10159E+05
 0.34699997E+02  0.61631E+04
 0.34749996E+02  0.66498E+04
 0.34799999E+02  0.72274E+04
 0.34849998E+02  0.32826E+04
 0.34899998E+02  0.51236E+04
 0.34949997E+02  0.66524E+04
 0.34999996E+02  0.51548E+04
 0.35049999E+02  0.47754E+04
 0.35099998E+02  0.78867E+04
 0.35149998E+02  0.10247E+05
 0.35199997E+02  0.75428E+04
 0.35249996E+02  0.74570E+04
 0.35299999E+02  0.95884E+04
 0.35349998E+02  0.88450E+04
 0.35399998E+02  0.74012E+04
 0.35449997E+02  0.61187E+04
 0.35499996E+02  0.63938E+04
 0.35549999E+02  0.60684E+04
 0.35599998E+02  0.75872E+04
 0.35649998E+02  0.59149E+04
 0.35699997E+02  0.64081E+04
 0.35749996E+02  0.86115E+04
 0.35799999E+02  0.68757E+04
 0.35849998E+02  0.59301E+04
 0.35899998E+02  0.43229E+04
 0.35949997E+02  0.43563E+04
 0.35999996E+02  0.58193E+04
 0.36049999E+02  0.68295E+04
 0.36099998E+02  0.64005E+04
 0.36149998E+02  0.75619E+04
 0.36199997E+02  0.80104E+04
 0.36249996E+02  0.89929E+04
 0.36299999E+02  0.91667E+04
 0.36349998E+02  0.10507E+05
 0.36399998E+02  0.92202E+04
 0.36449997E+02  0.59545E+04
 0.36499996E+02  0.79886E+04
 0.36549999E+02  0.75145E+04
 0.36599998E+02  0.66402E+04
 0.36649998E+02  0.81092E+04
 0.36699997E+02  0.77080E+04
 0.36749996E+02  0.82873E+04
 0.36799999E+02  0.81847E+04
 0.36849998E+02  0.56466E+04
 0.36899998E+02  0.42046E+04
 0.36949997E+02  0.34857E+04
 0.36999996E+02  0.37532E+04
 0.37049999E+02  0.42091E+04
 0.37099998E+02  0.38485E+04
 0.37149998E+02  0.48148E+04
 0.37199997E+02  0.56266E+04
 0.37249996E+02  0.66174E+04
 0.37299999E+02  0.83267E+04
 0.37349998E+02  0.69032E+04
 0.37399998E+02  0.81717E+04
 0.37449997E+02  0.10502E+05
 0.37499996E+02  0.11663E+05
 0.37549999E+02  0.77765E+04
 0.37599998E+02  0.72973E+04
 0.37649998E+02  0.92346E+04
 0.37699997E+02  0.76379E+04
 0.37749996E+02  0.79919E+04
 0.37799999E+02  0.78141E+04
 0.37849998E+02  0.77850E+04
 0.37899998E+02  0.57104E+04
 0.37949997E+02  0.50451E+04
 0.37999996E+02  0.46021E+04
 0.38049999E+02  0.50285E+04
 0.38099998E+02  0.64601E+04
 0.38149998E+02  0.46575E+04
 0.38199997E+02  0.57560E+04
 0.38249996E+02  0.68773E+04
 0.38299999E+02  0.76899E+04
 0.38349998E+02  0.84985E+04
 0.38399998E+02  0.81856E+04
 0.38449997E+02  0.72119E+04
 0.38499996E+02  0.63177E+04
 0.38549999E+02  0.73290E+04
 0.38599998E+02  0.75434E+04
 0.38649998E+02  0.75183E+04
 0.38699997E+02  0.74986E+04
 0.38749996E+02  0.72588E+04
 0.38799999E+02  0.66848E+04
 0.38849998E+02  0.79515E+04
 0.38899998E+02  0.68189E+04
 0.38949997E+02  0.59309E+04
 0.38999996E+02  0.67414E+04
 0.39049999E+02  0.75491E+04
 0.39099998E+02  0.79921E+04
 0.39149998E+02  0.76793E+04
 0.39199997E+02  0.65730E+04
 0.39249996E+02  0.63804E+04
 0.39299999E+02  0.50171E+04
 0.39349998E+02  0.42810E+04
 0.39399998E+02  0.64015E+04
 0.39449997E+02  0.66257E+04
 0.39499996E+02  0.62059E+04
 0.39549999E+02  0.67899E+04
 0.39599998E+02  0.79237E+04
 0.39649998E+02  0.86066E+04
 0.39699997E+02  0.96492E+04
 0.39749996E+02  0.93757E+04
 0.39799999E+02  0.59510E+04
 0.39849998E+02  0.42971E+04
 0.39899998E+02  0.52972E+04
 0.39949997E+02  0.50732E+04
 0.39999996E+02  0.64342E+04
 0.40049999E+02  0.80726E+04
 0.40099998E+02  0.77690E+04
 0.40149998E+02  0.65490E+04
 0.40199997E+02  0.73989E+04
 0.40249996E+02  0.74993E+04
 0.40299999E+02  0.68169E+04
 0.40349998E+02  0.65665E+04
 0.40399998E+02  0.59695E+04
 0.40449997E+02  0.86943E+04
 0.40499996E+02  0.97685E+04
 0.40549999E+02  0.83070E+04
 0.40599998E+02  0.79827E+04
 0.40649998E+02  0.68250E+04
 0.40699997E+02  0.68317E+04
 0.40749996E+02  0.55736E+04
 0.40799999E+02  0.51892E+04
 0.40849998E+02  0.64295E+04
 0.40899998E+02  0.74188E+04
 0.40949997E+02  0.73676E+04
 0.40999996E+02  0.66290E+04
 0.41049999E+02  0.65210E+04
 0.41099998E+02  0.68041E+04
 0.41149998E+02  0.60372E+04
 0.41199997E+02  0.50955E+04
 0.41249996E+02  0.67868E+04
 0.41299999E+02  0.72309E+04
 0.41349998E+02  0.93084E+04
 0.41399998E+02  0.10004E+05
 0.41449997E+02  0.80676E+04
 0.41499996E+02  0.92325E+04
 0.41549999E+02  0.86671E+04
 0.41599998E+02  0.80292E+04
 0.41649998E+02  0.71601E+04
 0.41699997E+02  0.48885E+04
 0.41749996E+02  0.48272E+04
 0.41799999E+02  0.51462E+04
 0.41849998E+02  0.74293E+04
 0.41899998E+02  0.86264E+04
 0.41949997E+02  0.68373E+04
 0.41999996E+02  0.56057E+04
 0.42049999E+02  0.53377E+04
 0.42099998E+02  0.43027E+04
 0.42149998E+02  0.60226E+04
 0.42199997E+02  0.74760E+04
 0.42249996E+02  0.75523E+04
 0.42299999E+02  0.74961E+04
 0.42349998E+02  0.79722E+04
 0.42399998E+02  0.86044E+04
 0.42449997E+02  0.84710E+04
 0.42499996E+02  0.70287E+04
 0.42549999E+02  0.56649E+04
 0.42599998E+02  0.66550E+04
 0.42649998E+02  0.83941E+04
 0.42699997E+02  0.75470E+04
 0.42749996E+02  0.69544E+04
 0.42799995E+02  0.74771E+04
 0.42849998E+02  0.53854E+04
 0.42899998E+02  0.55774E+04
 0.42949997E+02  0.52048E+04
 0.42999996E+02  0.59482E+04
 0.43049995E+02  0.57687E+04
 0.43099998E+02  0.74405E+04
 0.43149998E+02  0.97984E+04
 0.43199997E+02  0.90758E+04
 0.43249996E+02  0.78396E+04
 0.43299995E+02  0.63404E+04
 0.43349998E+02  0.52784E+04
 0.43399998E+02  0.48614E+04
 0.43449997E+02  0.61568E+04
 0.43499996E+02  0.70183E+04
 0.43549995E+02  0.84366E+04
 0.43599998E+02  0.86303E+04
 0.43649998E+02  0.71446E+04
 0.43699997E+02  0.70860E+04
 0.43749996E+02  0.79246E+04
 0.43799995E+02  0.75038E+04
 0.43849998E+02  0.59256E+04
 0.43899998E+02  0.46621E+04
 0.43949997E+02  0.53139E+04
 0.43999996E+02  0.64367E+04
 0.44049995E+02  0.78331E+04
 0.44099998E+02  0.86043E+04
 0.44149998E+02  0.91826E+04
 0.44199997E+02  0.80817E+04
 0.44249996E+02  0.79371E+04
 0.44299995E+02  0.71891E+04
 0.44349998E+02  0.51467E+04
 0.44399998E+02  0.67914E+04
 0.44449997E+02  0.66568E+04
 0.44499996E+02  0.69068E+04
 0.44549995E+02  0.60494E+04
 0.44599998E+02  0.45289E+04
 0.44649998E+02  0.49052E+04
 0.44699997E+02  0.64348E+04
 0.44749996E+02  0.97192E+04
 0.44799995E+02  0.10285E+05
 0.44849998E+02  0.87431E+04
 0.44899998E+02  0.77791E+04
 0.44949997E+02  0.73769E+04
 0.44999996E+02  0.64940E+04
 0.45049995E+02  0.42983E+04
 0.45099998E+02  0.30088E+04
 0.45149998E+02  0.36697E+04
 0.45199997E+02  0.44277E+04
 0.45249996E+02  0.61819E+04
 0.45299995E+02  0.89796E+04
 0.45349998E+02  0.82055E+04
 0.45399998E+02  0.77703E+04
 0.45449997E+02  0.10023E+05
 0.45499996E+02  0.97040E+04
 0.45549995E+02  0.84585E+04
 0.45599998E+02  0.76561E+04
 0.45649998E+02  0.74782E+04
 0.45699997E+02  0.69357E+04
 0.45749996E+02  0.66322E+04
 0.45799995E+02  0.56532E+04
 0.45849998E+02  0.44298E+04
 0.45899998E+02  0.35211E+04
 0.45949997E+02  0.49474E+04
 0.45999996E+02  0.76090E+04
 0.46049995E+02  0.81646E+04
 0.46099998E+02  0.10468E+05
 0.46149998E+02  0.10367E+05
 0.46199997E+02  0.11035E+05
 0.46249996E+02  0.98729E+04
 0.46299995E+02  0.81376E+04
 0.46349998E+02  0.62105E+04
 0.46399998E+02  0.42388E+04
 0.46449997E+02  0.32030E+04
 0.46499996E+02  0.32241E+04
 0.46549995E+02  0.63972E+04
 0.46599998E+02  0.23214E+04
 0.46649998E+02  0.42573E+04
 0.46699997E+02  0.71389E+04
 0.46749996E+02  0.71628E+04
 0.46799995E+02  0.81954E+04
 0.46849998E+02  0.65984E+04
 0.46899998E+02  0.45169E+04
 0.46949997E+02  0.78906E+04
 0.46999996E+02  0.12927E+05
 0.47049995E+02  0.10470E+05
 0.47099998E+02  0.10005E+05
 0.47149998E+02  0.71004E+04
 0.47199997E+02  0.29704E+04
 0.47249996E+02  0.15424E+04
 0.47299995E+02  0.33299E+04
 0.47349998E+02  0.78397E+04
 0.47399998E+02  0.10881E+05
 0.47449997E+02  0.10852E+05
 0.47499996E+02  0.10257E+05
 0.47549995E+02  0.83137E+04
 0.47599998E+02  0.49255E+04
 0.47649998E+02  0.74164E+04
 0.47699997E+02  0.71113E+04
 0.47749996E+02  0.37594E+04
 0.47799995E+02  0.54505E+04
 0.47849998E+02  0.75532E+04
 0.47899998E+02  0.85902E+04
 0.47949997E+02  0.93554E+04
 0.47999996E+02  0.96627E+04
 0.48049995E+02  0.70879E+04
 0.48099998E+02  0.49833E+04
 0.48149998E+02  0.57106E+04
 0.48199997E+02  0.74492E+04
 0.48249996E+02  0.10725E+05
 0.48299995E+02  0.11870E+05
 0.48349998E+02  0.85724E+04
 0.48399998E+02  0.26021E+04
 0.48449997E+02 -0.14738E+04
 0.48499996E+02 -0.93076E+03
 0.48549995E+02  0.23165E+04
 0.48599998E+02  0.81209E+04
 0.48649998E+02  0.13573E+05
 0.48699997E+02  0.13585E+05
 0.48749996E+02  0.14286E+05
 0.48799995E+02  0.12750E+05
 0.48849998E+02  0.71418E+04
 0.48899998E+02  0.73209E+04
 0.48949997E+02  0.81538E+04
 0.48999996E+02  0.63819E+04
 0.49049995E+02  0.61722E+04
 0.49099998E+02  0.26379E+04
 0.49149998E+02 -0.11796E+04
 0.49199997E+02 -0.33834E+04
 0.49249996E+02 -0.41159E+04
 0.49299995E+02  0.15978E+04
 0.49349998E+02  0.46151E+04
 0.49399998E+02  0.77626E+04
 0.49449997E+02  0.15364E+05
 0.49499996E+02  0.17973E+05
 0.49549995E+02  0.15031E+05
 0.49599998E+02  0.12436E+05
 0.49649998E+02  0.78486E+04
 0.49699997E+02  0.30391E+04
 0.49749996E+02  0.25887E+04
 0.49799995E+02  0.53641E+04
 0.49849998E+02  0.82484E+04
 0.49899998E+02  0.95889E+04
 0.49949997E+02  0.59095E+04
 0.49999996E+02  0.89197E+03
 0.50049995E+02  0.15191E+04
 0.50099998E+02  0.37700E+04
 0.50149998E+02  0.89233E+04
 0.50199997E+02  0.11390E+05
 0.50249996E+02  0.11587E+05
 0.50299995E+02  0.11694E+05
 0.50349998E+02  0.10838E+05
 0.50399998E+02  0.93647E+04
 0.50449997E+02  0.86009E+04
 0.50499996E+02  0.33438E+04
 0.50549995E+02  0.54355E+02
 0.50599998E+02  0.34197E+04
 0.50649998E+02  0.69885E+04
 0.50699997E+02  0.13803E+05
 0.50749996E+02  0.13710E+05
 0.50799995E+02  0.64170E+04
 0.50849998E+02  0.23567E+04
 0.50899998E+02  0.67323E+04
 0.50949997E+02  0.83830E+04
 0.50999996E+02  0.76701E+04
 0.51049995E+02  0.61112E+04
 0.51099998E+02  0.15811E+04
 0.51149998E+02  0.38299E+04
 0.51199997E+02  0.76634E+04
 0.51249996E+02  0.69975E+04
 0.51299995E+02  0.85027E+04
 0.51349998E+02  0.11702E+05
 0.51399998E+02  0.98157E+04
 0.51449997E+02  0.70308E+04
 0.51499996E+02  0.57785E+04
 0.51549995E+02  0.76087E+04
 0.51599998E+02  0.97986E+04
 0.51649998E+02  0.77301E+04
 0.51699997E+02  0.51887E+04
 0.51749996E+02  0.28111E+04
 0.51799995E+02  0.79796E+03
 0.51849998E+02  0.34324E+03
 0.51899998E+02  0.29787E+04
 0.51949997E+02  0.53704E+04
 0.51999996E+02  0.63654E+04
 0.52049995E+02  0.10400E+05
 0.52099998E+02  0.12156E+05
 0.52149998E+02  0.92142E+04
 0.52199997E+02  0.76995E+04
 0.52249996E+02  0.65731E+04
 0.52299995E+02  0.34511E+04
 0.52349998E+02  0.19649E+04
 0.52399998E+02  0.22807E+04
 0.52449997E+02  0.72831E+04
 0.52499996E+02  0.13039E+05
 0.52549995E+02  0.16021E+05
 0.52599998E+02  0.14964E+05
 0.52649998E+02  0.10201E+05
 0.52699997E+02  0.64948E+04
 0.52749996E+02  0.41355E+04
 0.52799995E+02  0.17309E+04
 0.52849998E+02  0.11844E+04
 0.52899998E+02  0.42779E+04
 0.52949997E+02  0.62684E+04
 0.52999996E+02  0.80251E+04
 0.53049995E+02  0.89358E+04
 0.53099998E+02  0.55999E+04
 0.53149998E+02  0.46743E+04
 0.53199997E+02  0.98252E+04
 0.53249996E+02  0.16502E+05
 0.53299995E+02  0.18817E+05
 0.53349998E+02  0.14950E+05
 0.53399998E+02  0.89839E+04
 0.53449997E+02  0.29783E+04
 0.53499996E+02 -0.13680E+04
 0.53549995E+02 -0.20628E+04
 0.53599998E+02  0.21184E+04
 0.53649998E+02  0.67201E+04
 0.53699997E+02  0.86593E+04
 0.53749996E+02  0.10695E+05
 0.53799995E+02  0.12149E+05
 0.53849998E+02  0.11255E+05
 0.53899998E+02  0.85209E+04
 0.53949997E+02  0.19403E+04
 0.53999996E+02 -0.32842E+04
 0.54049995E+02 -0.97997E+03
 0.54099998E+02  0.41530E+04
 0.54149998E+02  0.93033E+04
 0.54199997E+02  0.11945E+05
 0.54249996E+02  0.14052E+05
 0.54299995E+02  0.13084E+05
 0.54349998E+02  0.10654E+05
 0.54399998E+02  0.74792E+04
 0.54449997E+02  0.20800E+04
 0.54499996E+02 -0.13904E+04
 0.54549995E+02 -0.31378E+04
 0.54599998E+02  0.61020E+03
 0.54649998E+02  0.37371E+04
 0.54699997E+02  0.44379E+04
 0.54749996E+02  0.66879E+04
 0.54799995E+02  0.97062E+04
 0.54849998E+02  0.13095E+05
 0.54899998E+02  0.17027E+05
 0.54949997E+02  0.20207E+05
 0.54999996E+02  0.17566E+05
 0.55049995E+02  0.11758E+05
 0.55099998E+02  0.73443E+04
 0.55149998E+02  0.43922E+04
 0.55199997E+02  0.14065E+03
 0.55249996E+02 -0.51639E+04
 0.55299995E+02 -0.63704E+04
 0.55349998E+02 -0.28020E+04
 0.55399998E+02  0.48620E+04
 0.55449997E+02  0.11250E+05
 0.55499996E+02  0.13428E+05
 0.55549995E+02  0.15180E+05
 0.55599998E+02  0.16738E+05
 0.55649998E+02  0.15492E+05
 0.55699997E+02  0.10947E+05
 0.55749996E+02  0.53259E+04
 0.55799995E+02  0.17655E+04
 0.55849995E+02  0.50327E+03
 0.55899998E+02  0.22692E+03
 0.55949997E+02  0.20496E+04
 0.55999996E+02  0.55743E+04
 0.56049995E+02  0.99355E+04
 0.56099995E+02  0.12656E+05
 0.56149998E+02  0.12704E+05
 0.56199997E+02  0.99162E+04
 0.56249996E+02  0.63265E+04
 0.56299995E+02  0.44166E+04
 0.56349995E+02  0.31603E+04
 0.56399998E+02  0.21374E+04
 0.56449997E+02  0.21417E+04
 0.56499996E+02  0.44062E+04
 0.56549995E+02  0.81870E+04
 0.56599995E+02  0.11103E+05
 0.56649998E+02  0.11166E+05
 0.56699997E+02  0.87034E+04
 0.56749996E+02  0.57409E+04
 0.56799995E+02  0.47329E+04
 0.56849995E+02  0.62376E+04
 0.56899998E+02  0.78974E+04
 0.56949997E+02  0.77018E+04
 0.56999996E+02  0.58395E+04
 0.57049995E+02  0.49461E+04
 0.57099995E+02  0.64943E+04
 0.57149998E+02  0.94062E+04
 0.57199997E+02  0.10378E+05
 0.57249996E+02  0.80880E+04
 0.57299995E+02  0.41471E+04
 0.57349995E+02  0.50178E+03
 0.57399998E+02 -0.18519E+03
 0.57449997E+02  0.27906E+04
 0.57499996E+02  0.72201E+04
 0.57549995E+02  0.10216E+05
 0.57599995E+02  0.12214E+05
 0.57649998E+02  0.13722E+05
 0.57699997E+02  0.13903E+05
 0.57749996E+02  0.11967E+05
 0.57799995E+02  0.98920E+04
 0.57849995E+02  0.83691E+04
 0.57899998E+02  0.59352E+04
 0.57949997E+02  0.36970E+04
 0.57999996E+02  0.33653E+04
 0.58049995E+02  0.49823E+04
 0.58099995E+02  0.58561E+04
 0.58149998E+02  0.42726E+04
 0.58199997E+02  0.21226E+04
 0.58249996E+02  0.26061E+04
 0.58299995E+02  0.43470E+04
 0.58349995E+02  0.52078E+04
 0.58399998E+02  0.51617E+04
 0.58449997E+02  0.50624E+04
 0.58499996E+02  0.63430E+04
 0.58549995E+02  0.92414E+04
 0.58599995E+02  0.11032E+05
 0.58649998E+02  0.10766E+05
 0.58699997E+02  0.10235E+05
 0.58749996E+02  0.10198E+05
 0.58799995E+02  0.96489E+04
 0.58849995E+02  0.88754E+04
 0.58899998E+02  0.77528E+04
 0.58949997E+02  0.66375E+04
 0.58999996E+02  0.49399E+04
 0.59049995E+02  0.28840E+04
 0.59099995E+02  0.22629E+04
 0.59149998E+02  0.21219E+04
 0.59199997E+02  0.28229E+04
 0.59249996E+02  0.49936E+04
 0.59299995E+02  0.83922E+04
 0.59349995E+02  0.95431E+04
 0.59399998E+02  0.90593E+04
 0.59449997E+02  0.86652E+04
 0.59499996E+02  0.80201E+04
 0.59549995E+02  0.75970E+04
 0.59599995E+02  0.70827E+04
 0.59649998E+02  0.69040E+04
 0.59699997E+02  0.76749E+04
 0.59749996E+02  0.96551E+04
 0.59799995E+02  0.11533E+05
 0.59849995E+02  0.11252E+05
 0.59899998E+02  0.86773E+04
 0.59949997E+02  0.53432E+04
 0.59999996E+02  0.30464E+04
 0.60049995E+02  0.28771E+04
 0.60099995E+02  0.45893E+04
 0.60149998E+02  0.75792E+04
 0.60199997E+02  0.94743E+04
 0.60249996E+02  0.98636E+04
 0.60299995E+02  0.83394E+04
 0.60349995E+02  0.50161E+04
 0.60399998E+02  0.40277E+04
 0.60449997E+02  0.46636E+04
 0.60499996E+02  0.54541E+04
 0.60549995E+02  0.67419E+04
 0.60599995E+02  0.78163E+04
 0.60649998E+02  0.80865E+04
 0.60699997E+02  0.72148E+04
 0.60749996E+02  0.60313E+04
 0.60799995E+02  0.51333E+04
 0.60849995E+02  0.52852E+04
 0.60899998E+02  0.70420E+04
 0.60949997E+02  0.99402E+04
 0.60999996E+02  0.10610E+05
 0.61049995E+02  0.86407E+04
 0.61099995E+02  0.59086E+04
 0.61149998E+02  0.36623E+04
 0.61199997E+02  0.37033E+04
 0.61249996E+02  0.49656E+04
 0.61299995E+02  0.65778E+04
 0.61349995E+02  0.74264E+04
 0.61399998E+02  0.78646E+04
 0.61449997E+02  0.85753E+04
 0.61499996E+02  0.83896E+04
 0.61549995E+02  0.77672E+04
 0.61599995E+02  0.67419E+04
 0.61649998E+02  0.61908E+04
 0.61699997E+02  0.71218E+04
 0.61749996E+02  0.80859E+04
 0.61799995E+02  0.82567E+04
 0.61849995E+02  0.72184E+04
 0.61899998E+02  0.61734E+04
 0.61949997E+02  0.72673E+04
 0.61999996E+02  0.93278E+04
 0.62049995E+02  0.11340E+05
 0.62099998E+02  0.12531E+05
 0.62149994E+02  0.12194E+05
 0.62199997E+02  0.10493E+05
 0.62249992E+02  0.83999E+04
 0.62299995E+02  0.74123E+04
 0.62349998E+02  0.73751E+04
 0.62399994E+02  0.76968E+04
 0.62449997E+02  0.69497E+04
 0.62499992E+02  0.53283E+04
 0.62549995E+02  0.44746E+04
 0.62599998E+02  0.45271E+04
 0.62649994E+02  0.53205E+04
 0.62699997E+02  0.61076E+04
 0.62749992E+02  0.57521E+04
 0.62799995E+02  0.45249E+04
 0.62849998E+02  0.31124E+04
 0.62899994E+02  0.20312E+04
 0.62949997E+02  0.89562E+03
 0.62999992E+02  0.57282E+03
 0.63049995E+02  0.14117E+04
 0.63099998E+02  0.38472E+04
 0.63149994E+02  0.78816E+04
 0.63199997E+02  0.11156E+05
 0.63249992E+02  0.12842E+05
 0.63299995E+02  0.12189E+05
 0.63349998E+02  0.10558E+05
 0.63399994E+02  0.82699E+04
 0.63449997E+02  0.62325E+04
 0.63499992E+02  0.55060E+04
 0.63549995E+02  0.50268E+04
 0.63599998E+02  0.52252E+04
 0.63649994E+02  0.57640E+04
 0.63699997E+02  0.61121E+04
 0.63749992E+02  0.66389E+04
 0.63799995E+02  0.72372E+04
 0.63849998E+02  0.85305E+04
 0.63899994E+02  0.10371E+05
 0.63949997E+02  0.11754E+05
 0.63999992E+02  0.12394E+05
 0.64049995E+02  0.11371E+05
 0.64099998E+02  0.98779E+04
 0.64149994E+02  0.83827E+04
 0.64199997E+02  0.65738E+04
 0.64249992E+02  0.54712E+04
 0.64299995E+02  0.54331E+04
 0.64349998E+02  0.51836E+04
 0.64399994E+02  0.48206E+04
 0.64449997E+02  0.44469E+04
 0.64499992E+02  0.36647E+04
 0.64549995E+02  0.38337E+04
 0.64599998E+02  0.52819E+04
 0.64649994E+02  0.71739E+04
 0.64699997E+02  0.87942E+04
 0.64749992E+02  0.91629E+04
 0.64799995E+02  0.86832E+04
 0.64849998E+02  0.85329E+04
 0.64899994E+02  0.85154E+04
 0.64949997E+02  0.87635E+04
 0.64999992E+02  0.88220E+04
 0.65049995E+02  0.89622E+04
 0.65099998E+02  0.89897E+04
 0.65149994E+02  0.83939E+04
 0.65199997E+02  0.70814E+04
 0.65249992E+02  0.55339E+04
 0.65299995E+02  0.46240E+04
 0.65349998E+02  0.42091E+04
 0.65399994E+02  0.41415E+04
 0.65449997E+02  0.36803E+04
 0.65499992E+02  0.33729E+04
 0.65549995E+02  0.36569E+04
 0.65599998E+02  0.48749E+04
 0.65649994E+02  0.67232E+04
 0.65699997E+02  0.80823E+04
 0.65749992E+02  0.94485E+04
 0.65799995E+02  0.10264E+05
 0.65849998E+02  0.10067E+05
 0.65899994E+02  0.90251E+04
 0.65949997E+02  0.71423E+04
 0.65999992E+02  0.55623E+04
 0.66049995E+02  0.42859E+04
 0.66099998E+02  0.35149E+04
 0.66149994E+02  0.33543E+04
 0.66199997E+02  0.34371E+04
 0.66249992E+02  0.41405E+04
 0.66299995E+02  0.55677E+04
 0.66349998E+02  0.67652E+04
 0.66399994E+02  0.70893E+04
 0.66449997E+02  0.72539E+04
 0.66499992E+02  0.72958E+04
 0.66549995E+02  0.77517E+04
 0.66599998E+02  0.87234E+04
 0.66649994E+02  0.97610E+04
 0.66699997E+02  0.10127E+05
 0.66749992E+02  0.97937E+04
 0.66799995E+02  0.87562E+04
 0.66849998E+02  0.71858E+04
 0.66899994E+02  0.58152E+04
 0.66949997E+02  0.53218E+04
 0.66999992E+02  0.56185E+04
 0.67049995E+02  0.59107E+04
 0.67099998E+02  0.59172E+04
 0.67149994E+02  0.59486E+04
 0.67199997E+02  0.65912E+04
 0.67249992E+02  0.72233E+04
 0.67299995E+02  0.77921E+04
 0.67349998E+02  0.84353E+04
 0.67399994E+02  0.89413E+04
 0.67449997E+02  0.91042E+04
 0.67499992E+02  0.92060E+04
 0.67549995E+02  0.88791E+04
 0.67599998E+02  0.77822E+04
 0.67649994E+02  0.61998E+04
 0.67699997E+02  0.50449E+04
 0.67749992E+02  0.53553E+04
 0.67799995E+02  0.66890E+04
 0.67849998E+02  0.80547E+04
 0.67899994E+02  0.86546E+04
 0.67949997E+02  0.87518E+04
 0.67999992E+02  0.83811E+04
 0.68049995E+02  0.81765E+04
 0.68099998E+02  0.78280E+04
 0.68149994E+02  0.68822E+04
 0.68199997E+02  0.57031E+04
 0.68249992E+02  0.45674E+04
 0.68299995E+02  0.37891E+04
 0.68349998E+02  0.36104E+04
 0.68399994E+02  0.40368E+04
 0.68449997E+02  0.44907E+04
 0.68499992E+02  0.59250E+04
 0.68549995E+02  0.79494E+04
 0.68599998E+02  0.93319E+04
 0.68649994E+02  0.98079E+04
 0.68699997E+02  0.10068E+05
 0.68749992E+02  0.99875E+04
 0.68799995E+02  0.91301E+04
 0.68849998E+02  0.82958E+04
 0.68899994E+02  0.77855E+04
 0.68949997E+02  0.75157E+04
 0.68999992E+02  0.71877E+04
 0.69049995E+02  0.69948E+04
 0.69099998E+02  0.67534E+04
 0.69149994E+02  0.63304E+04
 0.69199997E+02  0.58049E+04
 0.69249992E+02  0.52821E+04
 0.69299995E+02  0.51736E+04
 0.69349998E+02  0.52459E+04
 0.69399994E+02  0.55324E+04
 0.69449997E+02  0.61249E+04
 0.69499992E+02  0.65469E+04
 0.69549995E+02  0.71831E+04
 0.69599998E+02  0.77179E+04
 0.69649994E+02  0.79014E+04
 0.69699997E+02  0.75557E+04
 0.69749992E+02  0.64384E+04
 0.69799995E+02  0.53039E+04
 0.69849998E+02  0.44800E+04
 0.69899994E+02  0.42710E+04
 0.69949997E+02  0.46304E+04
 0.69999992E+02  0.54632E+04
 0.70049995E+02  0.65575E+04
 0.70099998E+02  0.77033E+04
 0.70149994E+02  0.81782E+04
 0.70199997E+02  0.81976E+04
 0.70249992E+02  0.81565E+04
 0.70299995E+02  0.75041E+04
 0.70349998E+02  0.65852E+04
 0.70399994E+02  0.60230E+04
 0.70449997E+02  0.62783E+04
 0.70499992E+02  0.72358E+04
 0.70549995E+02  0.84099E+04
 0.70599998E+02  0.94618E+04
 0.70649994E+02  0.99040E+04
 0.70699997E+02  0.97195E+04
 0.70749992E+02  0.89215E+04
 0.70799995E+02  0.78349E+04
 0.70849998E+02  0.67499E+04
 0.70899994E+02  0.61851E+04
 0.70949997E+02  0.60971E+04
 0.70999992E+02  0.60214E+04
 0.71049995E+02  0.59745E+04
 0.71099998E+02  0.56805E+04
 0.71149994E+02  0.54953E+04
 0.71199997E+02  0.57718E+04
 0.71249992E+02  0.62715E+04
 0.71299995E+02  0.65443E+04
 0.71349998E+02  0.71524E+04
 0.71399994E+02  0.77255E+04
 0.71449997E+02  0.81646E+04
 0.71499992E+02  0.87310E+04
 0.71549995E+02  0.91478E+04
 0.71599998E+02  0.90721E+04
 0.71649994E+02  0.87030E+04
 0.71699997E+02  0.81788E+04
 0.71749992E+02  0.75965E+04
 0.71799995E+02  0.71547E+04
 0.71849998E+02  0.61353E+04
 0.71899994E+02  0.49948E+04
 0.71949997E+02  0.44355E+04
 0.71999992E+02  0.44279E+04
 0.72049995E+02  0.45973E+04
 0.72099998E+02  0.48298E+04
 0.72149994E+02  0.50915E+04
 0.72199997E+02  0.57065E+04
 0.72249992E+02  0.65059E+04
 0.72299995E+02  0.70158E+04
 0.72349998E+02  0.71494E+04
 0.72399994E+02  0.71800E+04
 0.72449997E+02  0.72509E+04
 0.72499992E+02  0.73995E+04
 0.72549995E+02  0.78113E+04
 0.72599998E+02  0.80988E+04
 0.72649994E+02  0.78118E+04
 0.72699997E+02  0.71913E+04
 0.72749992E+02  0.69886E+04
 0.72799995E+02  0.72808E+04
 0.72849998E+02  0.76585E+04
 0.72899994E+02  0.77908E+04
 0.72949997E+02  0.80229E+04
 0.72999992E+02  0.80236E+04
 0.73049995E+02  0.80117E+04
 0.73099998E+02  0.82288E+04
 0.73149994E+02  0.79235E+04
 0.73199997E+02  0.74130E+04
 0.73249992E+02  0.72568E+04
 0.73299995E+02  0.74567E+04
 0.73349998E+02  0.79364E+04
 0.73399994E+02  0.81783E+04
 0.73449997E+02  0.78471E+04
 0.73499992E+02  0.73412E+04
 0.73549995E+02  0.63334E+04
 0.73599998E+02  0.53003E+04
 0.73649994E+02  0.49808E+04
 0.73699997E+02  0.52066E+04
 0.73749992E+02  0.54807E+04
 0.73799995E+02  0.60040E+04
 0.73849998E+02  0.66136E+04
 0.73899994E+02  0.69863E+04
 0.73949997E+02  0.73200E+04
 0.73999992E+02  0.73493E+04
 0.74049995E+02  0.74269E+04
 0.74099998E+02  0.72865E+04
 0.74149994E+02  0.67587E+04
 0.74199997E+02  0.61983E+04
 0.74249992E+02  0.58581E+04
 0.74299995E+02  0.60712E+04
 0.74349998E+02  0.67405E+04
 0.74399994E+02  0.74680E+04
 0.74449997E+02  0.76248E+04
 0.74499992E+02  0.71595E+04
 0.74549995E+02  0.66919E+04
 0.74599998E+02  0.63694E+04
 0.74649994E+02  0.64310E+04
 0.74699997E+02  0.70733E+04
 0.74749992E+02  0.74111E+04
 0.74799995E+02  0.69963E+04
 0.74849998E+02  0.61136E+04
 0.74899994E+02  0.54844E+04
 0.74949997E+02  0.56239E+04
 0.74999992E+02  0.63686E+04
 0.75049995E+02  0.70028E+04
 0.75099998E+02  0.72517E+04
 0.75149994E+02  0.70439E+04
 0.75199997E+02  0.67872E+04
 0.75249992E+02  0.70389E+04
 0.75299995E+02  0.71426E+04
 0.75349998E+02  0.69851E+04
 0.75399994E+02  0.70264E+04
 0.75449997E+02  0.73013E+04
 0.75499992E+02  0.73557E+04
 0.75549995E+02  0.73899E+04
 0.75599998E+02  0.72803E+04
 0.75649994E+02  0.66199E+04
 0.75699997E+02  0.60629E+04
 0.75749992E+02  0.60610E+04
 0.75799995E+02  0.66524E+04
 0.75849998E+02  0.74831E+04
 0.75899994E+02  0.82978E+04
 0.75949997E+02  0.91546E+04
 0.75999992E+02  0.97283E+04
 0.76049995E+02  0.10077E+05
 0.76099998E+02  0.10072E+05
 0.76149994E+02  0.93137E+04
 0.76199997E+02  0.81158E+04
 0.76249992E+02  0.68241E+04
 0.76299995E+02  0.55814E+04
 0.76349998E+02  0.46544E+04
 0.76399994E+02  0.41832E+04
 0.76449997E+02  0.40848E+04
 0.76499992E+02  0.43333E+04
 0.76549995E+02  0.47633E+04
 0.76599998E+02  0.52647E+04
 0.76649994E+02  0.58871E+04
 0.76699997E+02  0.64524E+04
 0.76749992E+02  0.68426E+04
 0.76799995E+02  0.70521E+04
 0.76849998E+02  0.73419E+04
 0.76899994E+02  0.79500E+04
 0.76949997E+02  0.85510E+04
 0.76999992E+02  0.86890E+04
 0.77049995E+02  0.83135E+04
 0.77099998E+02  0.77905E+04
 0.77149994E+02  0.72030E+04
 0.77199997E+02  0.67730E+04
 0.77249992E+02  0.68129E+04
 0.77299995E+02  0.68789E+04
 0.77349998E+02  0.66522E+04
 0.77399994E+02  0.62657E+04
 0.77449997E+02  0.60603E+04
 0.77499992E+02  0.62459E+04
 0.77549995E+02  0.66935E+04
 0.77599998E+02  0.71599E+04
 0.77649994E+02  0.78313E+04
 0.77699997E+02  0.85601E+04
 0.77749992E+02  0.90861E+04
 0.77799995E+02  0.93551E+04
 0.77849998E+02  0.92120E+04
 0.77899994E+02  0.89220E+04
 0.77949997E+02  0.84475E+04
 0.77999992E+02  0.78629E+04
 0.78049995E+02  0.74731E+04
 0.78099998E+02  0.72650E+04
 0.78149994E+02  0.70864E+04
 0.78199997E+02  0.67450E+04
 0.78249992E+02  0.63754E+04
 0.78299995E+02  0.59956E+04
 0.78349998E+02  0.55375E+04
 0.78399994E+02  0.53308E+04
 0.78449997E+02  0.51895E+04
 0.78499992E+02  0.52442E+04
 0.78549995E+02  0.55142E+04
 0.78599998E+02  0.56024E+04
 0.78649994E+02  0.56780E+04
 0.78699997E+02  0.60000E+04
 0.78749992E+02  0.64511E+04
 0.78799995E+02  0.69868E+04
 0.78849998E+02  0.73605E+04
 0.78899994E+02  0.74864E+04
 0.78949997E+02  0.76244E+04
 0.78999992E+02  0.75574E+04
 0.79049995E+02  0.69897E+04
 0.79099998E+02  0.59035E+04
 0.79149994E+02  0.50398E+04
 0.79199997E+02  0.49085E+04
 0.79249992E+02  0.52544E+04
 0.79299995E+02  0.57975E+04
 0.79349998E+02  0.65490E+04
 0.79399994E+02  0.75159E+04
 0.79449997E+02  0.84201E+04
 0.79499992E+02  0.84566E+04
 0.79549995E+02  0.78363E+04
 0.79599998E+02  0.72948E+04
 0.79649994E+02  0.71053E+04
 0.79699997E+02  0.72129E+04
 0.79749992E+02  0.76266E+04
 0.79799995E+02  0.81595E+04
 0.79849998E+02  0.82834E+04
 0.79899994E+02  0.80381E+04
 0.79949997E+02  0.76475E+04
 0.79999992E+02  0.73922E+04
 0.80049995E+02  0.70846E+04
 0.80099998E+02  0.69809E+04
 0.80149994E+02  0.71377E+04
 0.80199997E+02  0.73848E+04
 0.80249992E+02  0.73781E+04
 0.80299995E+02  0.69254E+04
 0.80349998E+02  0.63611E+04
 0.80399994E+02  0.60049E+04
 0.80449997E+02  0.59344E+04
 0.80499992E+02  0.59878E+04
 0.80549995E+02  0.60743E+04
 0.80599998E+02  0.60204E+04
 0.80649994E+02  0.59603E+04
 0.80699997E+02  0.59167E+04
 0.80749992E+02  0.60976E+04
 0.80799995E+02  0.62846E+04
 0.80849998E+02  0.65995E+04
 0.80899994E+02  0.70849E+04
 0.80949997E+02  0.74429E+04
 0.80999992E+02  0.77325E+04
 0.81049995E+02  0.79735E+04
 0.81099998E+02  0.81417E+04
 0.81149994E+02  0.82230E+04
 0.81199997E+02  0.82713E+04
 0.81249992E+02  0.81028E+04
 0.81299995E+02  0.78484E+04
 0.81349998E+02  0.72688E+04
 0.81399994E+02  0.66300E+04
 0.81449997E+02  0.63900E+04
 0.81499992E+02  0.64973E+04
 0.81549995E+02  0.69781E+04
 0.81599998E+02  0.76072E+04
 0.81649994E+02  0.82511E+04
 0.81699997E+02  0.86558E+04
 0.81749992E+02  0.87903E+04
 0.81799995E+02  0.86776E+04
 0.81849998E+02  0.81698E+04
 0.81899994E+02  0.75654E+04
 0.81949997E+02  0.69197E+04
 0.81999992E+02  0.62528E+04
 0.82049995E+02  0.56718E+04
 0.82099998E+02  0.52786E+04
 0.82149994E+02  0.51587E+04
 0.82199997E+02  0.53918E+04
 0.82249992E+02  0.57052E+04
 0.82299995E+02  0.58871E+04
 0.82349998E+02  0.59284E+04
 0.82399994E+02  0.58909E+04
 0.82449997E+02  0.59075E+04
 0.82499992E+02  0.58434E+04
 0.82549995E+02  0.58613E+04
 0.82599998E+02  0.61508E+04
 0.82649994E+02  0.65263E+04
 0.82699997E+02  0.68449E+04
 0.82749992E+02  0.71566E+04
 0.82799995E+02  0.72036E+04
 0.82849998E+02  0.72629E+04
 0.82899994E+02  0.72611E+04
 0.82949997E+02  0.71973E+04
 0.82999992E+02  0.71205E+04
 0.83049995E+02  0.69624E+04
 0.83099998E+02  0.68894E+04
 0.83149994E+02  0.66975E+04
 0.83199997E+02  0.64808E+04
 0.83249992E+02  0.63933E+04
 0.83299995E+02  0.65391E+04
 0.83349998E+02  0.69976E+04
 0.83399994E+02  0.76523E+04
 0.83449997E+02  0.83372E+04
 0.83499992E+02  0.88717E+04
 0.83549995E+02  0.89664E+04
 0.83599998E+02  0.89141E+04
 0.83649994E+02  0.87269E+04
 0.83699997E+02  0.83070E+04
 0.83749992E+02  0.78399E+04
 0.83799995E+02  0.73037E+04
 0.83849998E+02  0.67431E+04
 0.83899994E+02  0.63334E+04
 0.83949997E+02  0.62834E+04
 0.83999992E+02  0.63213E+04
 0.84049995E+02  0.64065E+04
 0.84099998E+02  0.65445E+04
 0.84149994E+02  0.66054E+04
 0.84199997E+02  0.66962E+04
 0.84249992E+02  0.67440E+04
 0.84299995E+02  0.70039E+04
 0.84349998E+02  0.73940E+04
 0.84399994E+02  0.76569E+04
 0.84449997E+02  0.79180E+04
 0.84499992E+02  0.79444E+04
 0.84549995E+02  0.75410E+04
 0.84599998E+02  0.69446E+04
 0.84649994E+02  0.64748E+04
 0.84699997E+02  0.61487E+04
 0.84749992E+02  0.61757E+04
 0.84799995E+02  0.65120E+04
 0.84849998E+02  0.69699E+04
 0.84899994E+02  0.72840E+04
 0.84949997E+02  0.71830E+04
 0.84999992E+02  0.69773E+04
 0.85049995E+02  0.69360E+04
 0.85099998E+02  0.69649E+04
 0.85149994E+02  0.68406E+04
 0.85199997E+02  0.66342E+04
 0.85249992E+02  0.63893E+04
 0.85299995E+02  0.63048E+04
 0.85349998E+02  0.61910E+04
 0.85399994E+02  0.60525E+04
 0.85449997E+02  0.60658E+04
 0.85499992E+02  0.60922E+04
 0.85549995E+02  0.60725E+04
 0.85599998E+02  0.58773E+04
 0.85649994E+02  0.56830E+04
 0.85699997E+02  0.57828E+04
 0.85749992E+02  0.60652E+04
 0.85799995E+02  0.62023E+04
 0.85849998E+02  0.63112E+04
 0.85899994E+02  0.65714E+04
 0.85949997E+02  0.70681E+04
 0.85999992E+02  0.77089E+04
 0.86049995E+02  0.83018E+04
 0.86099998E+02  0.86709E+04
 0.86149994E+02  0.88937E+04
 0.86199997E+02  0.90500E+04
 0.86249992E+02  0.89701E+04
 0.86299995E+02  0.87615E+04
 0.86349998E+02  0.85339E+04
 0.86399994E+02  0.82432E+04
 0.86449997E+02  0.79436E+04
 0.86499992E+02  0.77008E+04
 0.86549995E+02  0.75678E+04
 0.86599998E+02  0.75761E+04
 0.86649994E+02  0.74461E+04
 0.86699997E+02  0.70256E+04
 0.86749992E+02  0.63861E+04
 0.86799995E+02  0.56160E+04
 0.86849998E+02  0.50308E+04
 0.86899994E+02  0.48838E+04
 0.86949997E+02  0.53230E+04
 0.86999992E+02  0.60221E+04
 0.87049995E+02  0.66798E+04
 0.87099998E+02  0.72638E+04
 0.87149994E+02  0.77045E+04
 0.87199997E+02  0.80198E+04
 0.87249992E+02  0.80238E+04
 0.87299995E+02  0.78765E+04
 0.87349998E+02  0.75749E+04
 0.87399994E+02  0.69290E+04
 0.87449997E+02  0.62351E+04
 0.87499992E+02  0.57890E+04
 0.87549995E+02  0.54694E+04
 0.87599991E+02  0.52583E+04
 0.87649994E+02  0.52852E+04
 0.87699997E+02  0.55349E+04
 0.87749992E+02  0.60815E+04
 0.87799995E+02  0.66356E+04
 0.87849991E+02  0.68872E+04
 0.87899994E+02  0.68196E+04
 0.87949997E+02  0.66050E+04
 0.87999992E+02  0.64796E+04
 0.88049995E+02  0.64425E+04
 0.88099991E+02  0.63528E+04
 0.88149994E+02  0.62783E+04
 0.88199997E+02  0.64431E+04
 0.88249992E+02  0.68308E+04
 0.88299995E+02  0.74637E+04
 0.88349991E+02  0.82026E+04
 0.88399994E+02  0.86045E+04
 0.88449997E+02  0.85085E+04
 0.88499992E+02  0.81582E+04
 0.88549995E+02  0.78450E+04
 0.88599991E+02  0.76582E+04
 0.88649994E+02  0.76040E+04
 0.88699997E+02  0.76153E+04
 0.88749992E+02  0.76147E+04
 0.88799995E+02  0.74944E+04
 0.88849991E+02  0.74090E+04
 0.88899994E+02  0.74539E+04
 0.88949997E+02  0.74249E+04
 0.88999992E+02  0.73432E+04
 0.89049995E+02  0.73562E+04
 0.89099991E+02  0.73814E+04
 0.89149994E+02  0.73369E+04
 0.89199997E+02  0.71825E+04
 0.89249992E+02  0.67806E+04
 0.89299995E+02  0.63060E+04
 0.89349991E+02  0.59872E+04
 0.89399994E+02  0.59950E+04
 0.89449997E+02  0.61742E+04
 0.89499992E+02  0.64345E+04
 0.89549995E+02  0.66916E+04
 0.89599991E+02  0.68510E+04
 0.89649994E+02  0.68943E+04
 0.89699997E+02  0.67346E+04
 0.89749992E+02  0.64654E+04
 0.89799995E+02  0.62163E+04
 0.89849991E+02  0.61929E+04
 0.89899994E+02  0.64324E+04
 0.89949997E+02  0.67396E+04
 0.89999992E+02  0.69650E+04
 0.90049995E+02  0.72292E+04
 0.90099991E+02  0.74310E+04
 0.90149994E+02  0.76497E+04
 0.90199997E+02  0.78303E+04
 0.90249992E+02  0.76833E+04
 0.90299995E+02  0.74012E+04
 0.90349991E+02  0.71837E+04
 0.90399994E+02  0.70380E+04
 0.90449997E+02  0.70132E+04
 0.90499992E+02  0.71010E+04
 0.90549995E+02  0.72716E+04
 0.90599991E+02  0.75237E+04
 0.90649994E+02  0.76122E+04
 0.90699997E+02  0.75418E+04
 0.90749992E+02  0.71891E+04
 0.90799995E+02  0.65758E+04
 0.90849991E+02  0.60459E+04
 0.90899994E+02  0.57449E+04
 0.90949997E+02  0.56101E+04
 0.90999992E+02  0.56804E+04
 0.91049995E+02  0.59423E+04
 0.91099991E+02  0.63013E+04
 0.91149994E+02  0.67411E+04
 0.91199997E+02  0.70183E+04
 0.91249992E+02  0.70623E+04
 0.91299995E+02  0.70036E+04
 0.91349991E+02  0.69705E+04
 0.91399994E+02  0.69921E+04
 0.91449997E+02  0.69953E+04
 0.91499992E+02  0.69157E+04
 0.91549995E+02  0.68257E+04
 0.91599991E+02  0.67952E+04
 0.91649994E+02  0.68958E+04
 0.91699997E+02  0.72002E+04
 0.91749992E+02  0.77205E+04
 0.91799995E+02  0.82237E+04
 0.91849991E+02  0.83803E+04
 0.91899994E+02  0.82416E+04
 0.91949997E+02  0.79683E+04
 0.91999992E+02  0.77211E+04
 0.92049995E+02  0.75996E+04
 0.92099991E+02  0.74715E+04
 0.92149994E+02  0.74332E+04
 0.92199997E+02  0.74741E+04
 0.92249992E+02  0.72512E+04
 0.92299995E+02  0.68330E+04
 0.92349991E+02  0.63281E+04
 0.92399994E+02  0.58943E+04
 0.92449997E+02  0.57702E+04
 0.92499992E+02  0.58526E+04
 0.92549995E+02  0.60237E+04
 0.92599991E+02  0.60542E+04
 0.92649994E+02  0.60455E+04
 0.92699997E+02  0.60704E+04
 0.92749992E+02  0.61102E+04
 0.92799995E+02  0.64189E+04
 0.92849991E+02  0.70033E+04
 0.92899994E+02  0.76713E+04
 0.92949997E+02  0.82037E+04
 0.92999992E+02  0.85313E+04
 0.93049995E+02  0.85802E+04
 0.93099991E+02  0.82944E+04
 0.93149994E+02  0.78289E+04
 0.93199997E+02  0.73041E+04
 0.93249992E+02  0.68794E+04
 0.93299995E+02  0.66285E+04
 0.93349991E+02  0.66076E+04
 0.93399994E+02  0.66842E+04
 0.93449997E+02  0.68370E+04
 0.93499992E+02  0.71617E+04
 0.93549995E+02  0.74092E+04
 0.93599991E+02  0.74592E+04
 0.93649994E+02  0.73093E+04
 0.93699997E+02  0.70843E+04
 0.93749992E+02  0.69022E+04
 0.93799995E+02  0.67486E+04
 0.93849991E+02  0.65221E+04
 0.93899994E+02  0.62010E+04
 0.93949997E+02  0.58690E+04
 0.93999992E+02  0.56107E+04
 0.94049995E+02  0.54687E+04
 0.94099991E+02  0.54532E+04
 0.94149994E+02  0.55477E+04
 0.94199997E+02  0.57174E+04
 0.94249992E+02  0.60005E+04
 0.94299995E+02  0.64109E+04
 0.94349991E+02  0.69304E+04
 0.94399994E+02  0.74212E+04
 0.94449997E+02  0.76769E+04
 0.94499992E+02  0.77403E+04
 0.94549995E+02  0.77512E+04
 0.94599991E+02  0.77079E+04
 0.94649994E+02  0.76017E+04
 0.94699997E+02  0.74503E+04
 0.94749992E+02  0.72756E+04
 0.94799995E+02  0.70619E+04
 0.94849991E+02  0.67495E+04
 0.94899994E+02  0.66168E+04
 0.94949997E+02  0.66702E+04
 0.94999992E+02  0.68892E+04
 0.95049995E+02  0.72953E+04
 0.95099991E+02  0.75574E+04
 0.95149994E+02  0.76140E+04
 0.95199997E+02  0.75300E+04
 0.95249992E+02  0.73132E+04
 0.95299995E+02  0.70521E+04
 0.95349991E+02  0.68810E+04
 0.95399994E+02  0.66993E+04
 0.95449997E+02  0.64016E+04
 0.95499992E+02  0.60858E+04
 0.95549995E+02  0.60349E+04
 0.95599991E+02  0.63324E+04
 0.95649994E+02  0.69705E+04
 0.95699997E+02  0.77396E+04
 0.95749992E+02  0.83634E+04
 0.95799995E+02  0.86948E+04
 0.95849991E+02  0.86996E+04
 0.95899994E+02  0.86227E+04
 0.95949997E+02  0.84194E+04
 0.95999992E+02  0.81698E+04
 0.96049995E+02  0.78946E+04
 0.96099991E+02  0.75570E+04
 0.96149994E+02  0.72282E+04
 0.96199997E+02  0.69058E+04
 0.96249992E+02  0.65788E+04
 0.96299995E+02  0.63003E+04
 0.96349991E+02  0.60520E+04
 0.96399994E+02  0.58059E+04
 0.96449997E+02  0.56150E+04
 0.96499992E+02  0.54466E+04
 0.96549995E+02  0.54558E+04
 0.96599991E+02  0.56973E+04
 0.96649994E+02  0.60511E+04
 0.96699997E+02  0.62816E+04
 0.96749992E+02  0.63853E+04
 0.96799995E+02  0.64441E+04
 0.96849991E+02  0.64427E+04
 0.96899994E+02  0.64113E+04
 0.96949997E+02  0.64270E+04
 0.96999992E+02  0.65667E+04
 0.97049995E+02  0.68159E+04
 0.97099991E+02  0.71972E+04
 0.97149994E+02  0.75930E+04
 0.97199997E+02  0.78094E+04
 0.97249992E+02  0.77958E+04
 0.97299995E+02  0.77202E+04
 0.97349991E+02  0.76191E+04
 0.97399994E+02  0.75388E+04
 0.97449997E+02  0.75130E+04
 0.97499992E+02  0.74050E+04
 0.97549995E+02  0.72999E+04
 0.97599991E+02  0.71225E+04
 0.97649994E+02  0.69040E+04
 0.97699997E+02  0.67461E+04
 0.97749992E+02  0.67208E+04
 0.97799995E+02  0.68321E+04
 0.97849991E+02  0.70517E+04
 0.97899994E+02  0.72723E+04
 0.97949997E+02  0.74304E+04
 0.97999992E+02  0.75542E+04
