-0.19779999E+01 -0.94970E+04
-0.19280000E+01 -0.83880E+04
-0.18779999E+01 -0.72140E+04
-0.18279999E+01 -0.58450E+04
-0.17779999E+01 -0.42420E+04
-0.17279999E+01 -0.25350E+04
-0.16780000E+01 -0.91000E+03
-0.16279999E+01  0.43900E+03
-0.15779999E+01  0.17590E+04
-0.15279999E+01  0.32680E+04
-0.14779999E+01  0.47260E+04
-0.14280000E+01  0.59980E+04
-0.13779999E+01  0.71430E+04
-0.13279998E+01  0.81920E+04
-0.12779999E+01  0.88510E+04
-0.12279999E+01  0.91650E+04
-0.11780000E+01  0.96870E+04
-0.11279999E+01  0.10568E+05
-0.10779998E+01  0.11331E+05
-0.10279999E+01  0.11481E+05
-0.97799993E+00  0.11117E+05
-0.92799985E+00  0.10422E+05
-0.87799990E+00  0.95200E+04
-0.82799995E+00  0.87460E+04
-0.77799988E+00  0.84430E+04
-0.72799993E+00  0.85100E+04
-0.67799985E+00  0.83240E+04
-0.62799990E+00  0.78280E+04
-0.57799995E+00  0.72270E+04
-0.52799988E+00  0.62690E+04
-0.47799993E+00  0.50330E+04
-0.42799985E+00  0.39170E+04
-0.37799990E+00  0.32930E+04
-0.32799995E+00  0.32320E+04
-0.27799988E+00  0.33960E+04
-0.22799993E+00  0.36460E+04
-0.17799985E+00  0.39930E+04
-0.12799990E+00  0.41630E+04
-0.77999949E-01  0.37930E+04
-0.27999878E-01  0.29410E+04
 0.22000074E-01  0.19440E+04
 0.72000027E-01  0.82300E+03
 0.12200022E+00 -0.48800E+03
 0.17200017E+00 -0.16290E+04
 0.22200012E+00 -0.22250E+04
 0.27200007E+00 -0.24530E+04
 0.32200003E+00 -0.27490E+04
 0.37200022E+00 -0.34240E+04
 0.42200017E+00 -0.45900E+04
 0.47200012E+00 -0.59700E+04
 0.52200007E+00 -0.72060E+04
 0.57200003E+00 -0.80580E+04
 0.62200022E+00 -0.82230E+04
 0.67200017E+00 -0.80930E+04
 0.72200012E+00 -0.83690E+04
 0.77200007E+00 -0.89040E+04
 0.82200003E+00 -0.92590E+04
 0.87200022E+00 -0.91540E+04
 0.92200017E+00 -0.85260E+04
 0.97200012E+00 -0.76090E+04
 0.10220001E+01 -0.67210E+04
 0.10720000E+01 -0.58710E+04
 0.11220002E+01 -0.47570E+04
 0.11720002E+01 -0.35890E+04
 0.12220001E+01 -0.26170E+04
 0.12720001E+01 -0.17790E+04
 0.13220000E+01 -0.14370E+04
 0.13720002E+01 -0.15720E+04
 0.14220002E+01 -0.17670E+04
 0.14720001E+01 -0.18640E+04
 0.15220001E+01 -0.14790E+04
 0.15720000E+01 -0.60900E+03
 0.16220002E+01  0.29400E+03
 0.16720002E+01  0.99100E+03
 0.17220001E+01  0.11280E+04
 0.17720001E+01  0.62500E+03
 0.18220000E+01 -0.12800E+03
 0.18720002E+01 -0.72000E+03
 0.19220002E+01 -0.94400E+03
 0.19720001E+01 -0.61800E+03
 0.20220001E+01  0.41100E+03
 0.20720003E+01  0.17160E+04
 0.21220000E+01  0.28490E+04
 0.21720002E+01  0.36710E+04
 0.22220004E+01  0.42910E+04
 0.22720001E+01  0.49080E+04
 0.23220003E+01  0.55210E+04
 0.23720000E+01  0.64310E+04
 0.24220002E+01  0.75880E+04
 0.24720004E+01  0.86580E+04
 0.25220001E+01  0.10011E+05
 0.25720003E+01  0.11659E+05
 0.26220000E+01  0.13009E+05
 0.26720002E+01  0.13763E+05
 0.27220004E+01  0.13779E+05
 0.27720001E+01  0.13088E+05
 0.28220003E+01  0.12077E+05
 0.28720000E+01  0.11107E+05
 0.29220002E+01  0.10252E+05
 0.29720004E+01  0.93740E+04
 0.30220001E+01  0.85540E+04
 0.30720003E+01  0.80970E+04
 0.31220000E+01  0.77760E+04
 0.31720002E+01  0.71200E+04
 0.32220004E+01  0.60470E+04
 0.32720001E+01  0.46890E+04
 0.33220003E+01  0.33550E+04
 0.33720000E+01  0.24550E+04
 0.34220002E+01  0.20960E+04
 0.34720004E+01  0.19950E+04
 0.35220001E+01  0.18280E+04
 0.35720003E+01  0.12700E+04
 0.36220000E+01  0.95000E+02
 0.36720002E+01 -0.14470E+04
 0.37220004E+01 -0.26920E+04
 0.37720001E+01 -0.32560E+04
 0.38220003E+01 -0.32410E+04
 0.38720000E+01 -0.26320E+04
 0.39220002E+01 -0.17100E+04
 0.39720004E+01 -0.11000E+04
 0.40220003E+01 -0.86100E+03
 0.40720005E+01 -0.77500E+03
 0.41219997E+01 -0.82700E+03
 0.41719999E+01 -0.11960E+04
 0.42220001E+01 -0.19550E+04
 0.42720003E+01 -0.29110E+04
 0.43220005E+01 -0.36550E+04
 0.43719997E+01 -0.38680E+04
 0.44219999E+01 -0.38090E+04
 0.44720001E+01 -0.35950E+04
 0.45220003E+01 -0.32670E+04
 0.45720005E+01 -0.32360E+04
 0.46219997E+01 -0.36340E+04
 0.46719999E+01 -0.45390E+04
 0.47220001E+01 -0.58780E+04
 0.47720003E+01 -0.72500E+04
 0.48220005E+01 -0.83460E+04
 0.48719997E+01 -0.90710E+04
 0.49219999E+01 -0.96860E+04
 0.49720001E+01 -0.10514E+05
 0.50220003E+01 -0.11763E+05
 0.50720005E+01 -0.13209E+05
 0.51219997E+01 -0.14590E+05
 0.51719999E+01 -0.16218E+05
 0.52220001E+01 -0.18066E+05
 0.52720003E+01 -0.19650E+05
 0.53220005E+01 -0.20618E+05
 0.53719997E+01 -0.20827E+05
 0.54219999E+01 -0.20280E+05
 0.54720001E+01 -0.19089E+05
 0.55220003E+01 -0.17519E+05
 0.55720005E+01 -0.15894E+05
 0.56219997E+01 -0.14275E+05
 0.56719999E+01 -0.12442E+05
 0.57220001E+01 -0.10506E+05
 0.57720003E+01 -0.87030E+04
 0.58220005E+01 -0.69960E+04
 0.58719997E+01 -0.51860E+04
 0.59219999E+01 -0.30430E+04
 0.59720001E+01 -0.88100E+03
 0.60220003E+01  0.93600E+03
 0.60720005E+01  0.25750E+04
 0.61220007E+01  0.42620E+04
 0.61720009E+01  0.58520E+04
 0.62220001E+01  0.70100E+04
 0.62720003E+01  0.78370E+04
 0.63220005E+01  0.85950E+04
 0.63720007E+01  0.94620E+04
 0.64220009E+01  0.10507E+05
 0.64720001E+01  0.11349E+05
 0.65220003E+01  0.11548E+05
 0.65720005E+01  0.10982E+05
 0.66220007E+01  0.98280E+04
 0.66720009E+01  0.83400E+04
 0.67220001E+01  0.66760E+04
 0.67720003E+01  0.49210E+04
 0.68220005E+01  0.32580E+04
 0.68720007E+01  0.17590E+04
 0.69220009E+01  0.11000E+03
 0.69720001E+01 -0.14540E+04
 0.70220003E+01 -0.23350E+04
 0.70720005E+01 -0.27080E+04
 0.71220007E+01 -0.31200E+04
 0.71720009E+01 -0.38480E+04
 0.72220001E+01 -0.48110E+04
 0.72720003E+01 -0.57420E+04
 0.73220005E+01 -0.63100E+04
 0.73720007E+01 -0.63220E+04
 0.74220009E+01 -0.60450E+04
 0.74720001E+01 -0.56850E+04
 0.75220003E+01 -0.52320E+04
 0.75720005E+01 -0.47830E+04
 0.76220007E+01 -0.41340E+04
 0.76720009E+01 -0.32470E+04
 0.77220001E+01 -0.26840E+04
 0.77720003E+01 -0.27330E+04
 0.78220005E+01 -0.33330E+04
 0.78720007E+01 -0.43460E+04
 0.79220009E+01 -0.53650E+04
 0.79720001E+01 -0.58630E+04
 0.80220003E+01 -0.57140E+04
 0.80720005E+01 -0.52550E+04
 0.81220007E+01 -0.47000E+04
 0.81720009E+01 -0.41600E+04
 0.82220001E+01 -0.36790E+04
 0.82720003E+01 -0.32640E+04
 0.83220005E+01 -0.30860E+04
 0.83720007E+01 -0.30380E+04
 0.84220009E+01 -0.29540E+04
 0.84720001E+01 -0.27250E+04
 0.85220003E+01 -0.21540E+04
 0.85720005E+01 -0.13750E+04
 0.86220007E+01 -0.79300E+03
 0.86720009E+01 -0.71200E+03
 0.87220001E+01 -0.91500E+03
 0.87720003E+01 -0.12160E+04
 0.88220005E+01 -0.16640E+04
 0.88720007E+01 -0.19330E+04
 0.89220009E+01 -0.20100E+04
 0.89720001E+01 -0.19150E+04
 0.90220003E+01 -0.13330E+04
 0.90720005E+01 -0.29000E+03
 0.91220007E+01  0.10570E+04
 0.91720009E+01  0.24760E+04
 0.92220001E+01  0.36220E+04
 0.92720003E+01  0.42940E+04
 0.93220005E+01  0.44880E+04
 0.93720007E+01  0.42570E+04
 0.94220009E+01  0.37280E+04
 0.94720001E+01  0.31910E+04
 0.95220003E+01  0.25920E+04
 0.95720005E+01  0.17230E+04
 0.96220007E+01  0.78700E+03
 0.96720009E+01  0.39000E+02
 0.97220001E+01 -0.47900E+03
 0.97720003E+01 -0.97500E+03
 0.98220005E+01 -0.14730E+04
 0.98720007E+01 -0.17660E+04
 0.99220009E+01 -0.20920E+04
 0.99720001E+01 -0.26150E+04
 0.10022000E+02 -0.31490E+04
 0.10072001E+02 -0.34920E+04
 0.10122001E+02 -0.35390E+04
 0.10172001E+02 -0.33090E+04
 0.10222000E+02 -0.26270E+04
 0.10272000E+02 -0.14610E+04
 0.10322001E+02 -0.26000E+02
 0.10372001E+02  0.15230E+04
 0.10422001E+02  0.30520E+04
 0.10472000E+02  0.45510E+04
 0.10522000E+02  0.58890E+04
 0.10572001E+02  0.68780E+04
 0.10622001E+02  0.75940E+04
 0.10672001E+02  0.81760E+04
 0.10722000E+02  0.88800E+04
 0.10772000E+02  0.99750E+04
 0.10822001E+02  0.11325E+05
 0.10872001E+02  0.12528E+05
 0.10922001E+02  0.13302E+05
 0.10972000E+02  0.13759E+05
 0.11022000E+02  0.13992E+05
 0.11072001E+02  0.13924E+05
 0.11122001E+02  0.13845E+05
 0.11172001E+02  0.13902E+05
 0.11222000E+02  0.13847E+05
 0.11272000E+02  0.13682E+05
 0.11322001E+02  0.13459E+05
 0.11372001E+02  0.12958E+05
 0.11422001E+02  0.11993E+05
 0.11472000E+02  0.10754E+05
 0.11522000E+02  0.94880E+04
 0.11572001E+02  0.81570E+04
 0.11622001E+02  0.68750E+04
 0.11672001E+02  0.58080E+04
 0.11722000E+02  0.48910E+04
 0.11772000E+02  0.41100E+04
 0.11822001E+02  0.34700E+04
 0.11872001E+02  0.30470E+04
 0.11922001E+02  0.29790E+04
 0.11972000E+02  0.29360E+04
 0.12022000E+02  0.24480E+04
 0.12072001E+02  0.16330E+04
 0.12122001E+02  0.75600E+03
 0.12172001E+02 -0.27000E+02
 0.12222000E+02 -0.73500E+03
 0.12272000E+02 -0.15280E+04
 0.12322001E+02 -0.22200E+04
 0.12372001E+02 -0.28780E+04
 0.12422001E+02 -0.38230E+04
 0.12472000E+02 -0.49000E+04
 0.12522000E+02 -0.60270E+04
 0.12572001E+02 -0.74980E+04
 0.12622001E+02 -0.90530E+04
 0.12672001E+02 -0.99510E+04
 0.12722000E+02 -0.10074E+05
 0.12772000E+02 -0.95910E+04
 0.12822001E+02 -0.86130E+04
 0.12872001E+02 -0.75160E+04
 0.12922001E+02 -0.65270E+04
 0.12972000E+02 -0.55400E+04
 0.13022000E+02 -0.45260E+04
 0.13072001E+02 -0.35770E+04
 0.13122001E+02 -0.27320E+04
 0.13172001E+02 -0.20500E+04
 0.13222000E+02 -0.13260E+04
 0.13272000E+02 -0.32900E+03
 0.13322001E+02  0.74900E+03
 0.13372001E+02  0.16960E+04
 0.13422001E+02  0.23840E+04
 0.13472000E+02  0.29340E+04
 0.13522000E+02  0.34890E+04
 0.13572001E+02  0.38290E+04
 0.13622001E+02  0.39310E+04
 0.13672001E+02  0.39240E+04
 0.13722000E+02  0.37430E+04
 0.13772000E+02  0.32960E+04
 0.13822001E+02  0.27100E+04
 0.13872001E+02  0.20910E+04
 0.13922001E+02  0.13280E+04
 0.13972000E+02  0.57100E+03
 0.14022000E+02  0.11800E+03
 0.14072001E+02 -0.24000E+02
 0.14122001E+02  0.17000E+02
 0.14172000E+02  0.85000E+02
 0.14222001E+02 -0.66000E+02
 0.14272000E+02 -0.50100E+03
 0.14322001E+02 -0.94600E+03
 0.14372001E+02 -0.11170E+04
 0.14422000E+02 -0.10270E+04
 0.14472001E+02 -0.10370E+04
 0.14522000E+02 -0.13410E+04
 0.14572001E+02 -0.19600E+04
 0.14622001E+02 -0.26990E+04
 0.14672000E+02 -0.31870E+04
 0.14722001E+02 -0.35130E+04
 0.14772000E+02 -0.39200E+04
 0.14822001E+02 -0.55930E+04
 0.14872001E+02 -0.89950E+04
 0.14922000E+02 -0.12771E+05
 0.14972001E+02 -0.16089E+05
 0.15022000E+02 -0.17792E+05
 0.15072001E+02 -0.16746E+05
 0.15122001E+02 -0.14192E+05
 0.15172000E+02 -0.13835E+05
 0.15222001E+02 -0.12875E+05
 0.15272000E+02 -0.81440E+04
 0.15322001E+02 -0.25900E+04
 0.15372001E+02  0.51850E+04
 0.15422000E+02  0.76610E+04
 0.15472001E+02  0.14207E+05
 0.15522000E+02  0.41135E+05
 0.15572001E+02  0.51072E+05
 0.15622001E+02  0.15250E+05
 0.15672000E+02 -0.29418E+05
 0.15722001E+02 -0.50045E+05
 0.15772000E+02 -0.45964E+05
 0.15822001E+02 -0.10854E+05
 0.15872001E+02 -0.10357E+05
 0.15922000E+02 -0.44716E+05
 0.15972001E+02 -0.94300E+03
 0.16021999E+02  0.54939E+05
 0.16072001E+02  0.10458E+06
 0.16122000E+02  0.19708E+06
 0.16171999E+02  0.24298E+06
 0.16222000E+02  0.23926E+06
 0.16271999E+02  0.18371E+06
 0.16322001E+02  0.36203E+05
 0.16372000E+02 -0.10041E+06
 0.16421999E+02 -0.83260E+05
 0.16472000E+02  0.94840E+04
 0.16521999E+02  0.61230E+05
 0.16572001E+02  0.23592E+05
 0.16622000E+02 -0.83773E+05
 0.16671999E+02 -0.21176E+05
 0.16722000E+02  0.12420E+06
 0.16771999E+02  0.20224E+06
 0.16822001E+02  0.21792E+06
 0.16872000E+02  0.35814E+05
 0.16921999E+02 -0.11683E+06
 0.16972000E+02 -0.18372E+06
 0.17021999E+02 -0.34740E+06
 0.17072001E+02 -0.37962E+06
 0.17122000E+02 -0.10635E+06
 0.17171999E+02  0.21755E+06
 0.17222000E+02  0.41436E+06
 0.17271999E+02  0.43839E+06
 0.17322001E+02  0.12628E+06
 0.17372000E+02 -0.92296E+05
 0.17421999E+02 -0.12332E+06
 0.17472000E+02 -0.20256E+06
 0.17521999E+02 -0.59769E+05
 0.17572001E+02  0.43541E+05
 0.17622000E+02  0.76075E+05
 0.17671999E+02  0.12697E+06
 0.17722000E+02  0.11782E+06
 0.17771999E+02  0.13598E+06
 0.17822001E+02  0.60017E+05
 0.17872000E+02  0.29170E+04
 0.17921999E+02 -0.13649E+06
 0.17972000E+02 -0.24300E+06
 0.18021999E+02 -0.12846E+06
 0.18072001E+02 -0.35850E+05
 0.18122000E+02  0.52036E+05
 0.18171999E+02  0.15310E+05
 0.18222000E+02 -0.17665E+06
 0.18271999E+02 -0.18672E+06
 0.18322001E+02 -0.21491E+05
 0.18372000E+02  0.97092E+05
 0.18421999E+02  0.11698E+06
 0.18472000E+02 -0.17941E+06
 0.18521999E+02 -0.48076E+06
 0.18572001E+02 -0.36771E+06
 0.18622000E+02 -0.15695E+06
 0.18671999E+02  0.26796E+06
 0.18722000E+02  0.61361E+06
 0.18771999E+02  0.24259E+06
 0.18822001E+02 -0.29449E+06
 0.18872000E+02 -0.52707E+06
 0.18921999E+02 -0.46425E+06
 0.18972000E+02 -0.10585E+06
 0.19021999E+02  0.21065E+06
 0.19072001E+02  0.30884E+06
 0.19122000E+02 -0.99870E+04
 0.19171999E+02 -0.52302E+06
 0.19222000E+02 -0.40406E+06
 0.19271999E+02 -0.73153E+05
 0.19322001E+02 -0.14616E+06
 0.19372000E+02 -0.60478E+05
 0.19421999E+02  0.26119E+06
 0.19472000E+02  0.35436E+06
 0.19521999E+02  0.36459E+06
 0.19572001E+02  0.71415E+05
 0.19622000E+02 -0.49230E+06
 0.19671999E+02 -0.50874E+06
 0.19722000E+02 -0.34167E+06
 0.19771999E+02 -0.20324E+06
 0.19822001E+02 -0.23820E+04
 0.19872000E+02 -0.47113E+05
 0.19921999E+02  0.33509E+05
 0.19972000E+02  0.15304E+06
 0.20021999E+02  0.17644E+06
 0.20072001E+02  0.21522E+06
 0.20122000E+02  0.11235E+06
 0.20171999E+02 -0.98700E+05
 0.20222000E+02 -0.32224E+06
 0.20271999E+02 -0.41974E+06
 0.20322001E+02 -0.33480E+06
 0.20372000E+02 -0.70670E+04
 0.20421999E+02  0.27573E+06
 0.20472000E+02  0.15782E+06
 0.20521999E+02 -0.25593E+06
 0.20572001E+02 -0.49034E+06
 0.20622000E+02 -0.20719E+06
 0.20671999E+02 -0.63816E+05
 0.20722000E+02 -0.23928E+06
 0.20771999E+02 -0.28374E+06
 0.20822001E+02 -0.34417E+06
 0.20872000E+02 -0.24882E+06
 0.20921999E+02  0.25849E+06
 0.20972000E+02  0.53723E+06
 0.21021999E+02  0.32214E+06
 0.21072001E+02  0.29825E+06
 0.21122000E+02  0.16697E+06
 0.21171999E+02 -0.33503E+06
 0.21222000E+02 -0.50937E+06
 0.21271999E+02 -0.47894E+06
 0.21322001E+02 -0.34274E+06
 0.21372000E+02 -0.71905E+05
 0.21421999E+02  0.41690E+04
 0.21472000E+02  0.58680E+04
 0.21521999E+02  0.28586E+06
 0.21572001E+02  0.72717E+06
 0.21622000E+02  0.40172E+06
 0.21671999E+02 -0.33497E+06
 0.21722000E+02 -0.34249E+06
 0.21771999E+02 -0.15745E+06
 0.21822001E+02  0.76739E+05
 0.21872000E+02  0.39496E+06
 0.21921999E+02  0.13695E+06
 0.21972000E+02 -0.79120E+05
 0.22021999E+02  0.16018E+06
 0.22072001E+02  0.25459E+06
 0.22122000E+02  0.26367E+06
 0.22171999E+02  0.24497E+06
 0.22222000E+02  0.28723E+05
 0.22271999E+02 -0.46070E+04
 0.22322001E+02  0.10383E+06
 0.22372000E+02 -0.17300E+05
 0.22421999E+02 -0.19858E+06
 0.22472000E+02 -0.13899E+06
 0.22521999E+02  0.34466E+06
 0.22572001E+02  0.66305E+06
 0.22622000E+02  0.25878E+06
 0.22671999E+02 -0.16078E+06
 0.22722000E+02 -0.29362E+06
 0.22771999E+02 -0.37170E+06
 0.22822001E+02 -0.19608E+06
 0.22872000E+02  0.14790E+05
 0.22921999E+02  0.39580E+04
 0.22972000E+02  0.10578E+06
 0.23021999E+02  0.30470E+06
 0.23072001E+02  0.10691E+06
 0.23122000E+02 -0.24652E+06
 0.23171999E+02 -0.22583E+06
 0.23222000E+02 -0.75180E+04
 0.23271999E+02  0.14562E+06
 0.23322001E+02  0.17577E+06
 0.23372000E+02  0.13239E+06
 0.23421999E+02 -0.21451E+05
 0.23472000E+02 -0.19574E+06
 0.23521999E+02 -0.23531E+06
 0.23572001E+02 -0.23059E+06
 0.23622000E+02 -0.61320E+05
 0.23671999E+02  0.10930E+06
 0.23722000E+02  0.54251E+05
 0.23771999E+02 -0.81894E+05
 0.23822001E+02 -0.21391E+06
 0.23872000E+02 -0.76282E+05
 0.23921999E+02  0.10875E+06
 0.23972000E+02 -0.12273E+06
 0.24021999E+02 -0.48944E+06
 0.24072001E+02 -0.57963E+06
 0.24122000E+02 -0.28360E+06
 0.24171999E+02 -0.41900E+05
 0.24222000E+02 -0.12169E+06
 0.24271999E+02 -0.33288E+06
 0.24322001E+02 -0.60727E+06
 0.24372000E+02 -0.64244E+06
 0.24421999E+02 -0.42057E+06
 0.24472000E+02 -0.10013E+06
 0.24521999E+02  0.31198E+06
 0.24572001E+02  0.59694E+06
 0.24622000E+02  0.55574E+06
 0.24671999E+02  0.23051E+06
 0.24722000E+02 -0.14743E+06
 0.24771999E+02 -0.39795E+06
 0.24822001E+02 -0.29112E+06
 0.24872000E+02 -0.32214E+05
 0.24921999E+02  0.56653E+05
 0.24972000E+02  0.46274E+05
 0.25021999E+02 -0.24572E+06
 0.25072001E+02 -0.41501E+06
 0.25122000E+02  0.30697E+05
 0.25171999E+02  0.41882E+06
 0.25222000E+02  0.32903E+06
 0.25271999E+02 -0.14344E+06
 0.25322001E+02 -0.62201E+06
 0.25372000E+02 -0.58435E+06
 0.25421999E+02 -0.44234E+06
 0.25472000E+02 -0.26796E+06
 0.25521999E+02  0.13635E+06
 0.25572001E+02  0.44770E+06
 0.25622000E+02  0.67196E+06
 0.25671999E+02  0.41497E+06
 0.25722000E+02 -0.18545E+06
 0.25771999E+02 -0.50772E+06
 0.25822001E+02 -0.61263E+06
 0.25872000E+02 -0.31055E+06
 0.25921999E+02  0.12571E+06
 0.25972000E+02  0.17358E+06
 0.26021999E+02  0.27732E+05
 0.26072001E+02  0.70926E+05
 0.26122000E+02  0.32318E+06
 0.26171999E+02  0.35591E+06
 0.26222000E+02  0.18687E+06
 0.26271999E+02 -0.23556E+05
 0.26322001E+02 -0.28887E+06
 0.26372000E+02 -0.23319E+06
 0.26421999E+02  0.20850E+06
 0.26472000E+02  0.53210E+06
 0.26521999E+02  0.25261E+06
 0.26572001E+02 -0.58718E+05
 0.26622000E+02  0.26107E+06
 0.26671999E+02  0.25948E+06
 0.26722000E+02  0.30881E+05
 0.26771999E+02  0.27321E+06
 0.26822001E+02  0.34339E+06
 0.26872000E+02  0.15229E+06
 0.26921999E+02 -0.19684E+06
 0.26972000E+02 -0.25788E+06
 0.27021999E+02 -0.11820E+06
 0.27072001E+02 -0.34220E+06
 0.27122000E+02 -0.88325E+05
 0.27171999E+02  0.51732E+06
 0.27222000E+02  0.91817E+06
 0.27271999E+02  0.11071E+07
 0.27322001E+02  0.78795E+06
 0.27372000E+02  0.83938E+05
 0.27421999E+02 -0.54900E+06
 0.27472000E+02 -0.22578E+06
 0.27521999E+02  0.30256E+06
 0.27572001E+02 -0.15424E+06
 0.27622000E+02 -0.57935E+06
 0.27671999E+02 -0.51839E+06
 0.27722000E+02 -0.11486E+06
 0.27771999E+02  0.16097E+06
 0.27822001E+02  0.47411E+05
 0.27872000E+02  0.36196E+06
 0.27921999E+02  0.40684E+06
 0.27972000E+02 -0.18184E+06
 0.28021999E+02 -0.18097E+06
 0.28072001E+02  0.43441E+06
 0.28122000E+02  0.34662E+06
 0.28171999E+02 -0.46699E+06
 0.28222000E+02 -0.13716E+06
 0.28271999E+02  0.11231E+07
 0.28322001E+02  0.14270E+07
 0.28372000E+02  0.89511E+06
 0.28421999E+02  0.22267E+06
 0.28472000E+02 -0.10011E+07
 0.28521999E+02 -0.24971E+07
 0.28572001E+02 -0.23552E+07
 0.28622000E+02 -0.81164E+06
 0.28671999E+02  0.59964E+06
 0.28722000E+02  0.17801E+07
 0.28771999E+02  0.89520E+06
 0.28822001E+02 -0.11556E+07
 0.28872000E+02 -0.18932E+07
 0.28921999E+02 -0.19450E+07
 0.28972000E+02 -0.12206E+07
 0.29021999E+02 -0.91078E+06
 0.29072001E+02 -0.18460E+07
 0.29122000E+02 -0.29878E+07
 0.29171999E+02 -0.13496E+07
 0.29222000E+02  0.23292E+07
 0.29271999E+02  0.23400E+07
 0.29322001E+02  0.10674E+07
 0.29372000E+02  0.74034E+06
 0.29421999E+02  0.78826E+06
 0.29472000E+02  0.22715E+07
 0.29521999E+02  0.26918E+07
 0.29572001E+02  0.24585E+07
 0.29622000E+02  0.18301E+07
 0.29671999E+02  0.13187E+07
 0.29722000E+02  0.30285E+07
 0.29771999E+02  0.31189E+07
 0.29822001E+02  0.13593E+07
 0.29872000E+02  0.98865E+06
 0.29921999E+02  0.25936E+06
 0.29972000E+02 -0.99582E+06
 0.30021999E+02 -0.18932E+07
 0.30071999E+02 -0.11938E+07
 0.30122002E+02  0.19273E+07
 0.30172001E+02  0.17925E+07
 0.30222000E+02 -0.13924E+07
 0.30271999E+02 -0.18276E+07
 0.30321999E+02 -0.17978E+07
 0.30372002E+02 -0.25809E+07
 0.30422001E+02 -0.29479E+07
 0.30472000E+02 -0.34675E+07
 0.30521999E+02 -0.33770E+07
 0.30571999E+02 -0.41375E+07
 0.30622002E+02 -0.55701E+07
 0.30672001E+02 -0.52119E+07
 0.30722000E+02 -0.43303E+07
 0.30771999E+02 -0.36254E+07
 0.30821999E+02 -0.26646E+07
 0.30872002E+02 -0.27248E+07
 0.30922001E+02 -0.36006E+07
 0.30972000E+02 -0.31716E+07
 0.31021999E+02 -0.15693E+07
 0.31071999E+02 -0.11781E+07
 0.31122002E+02 -0.25045E+07
 0.31172001E+02 -0.37646E+07
 0.31222000E+02 -0.42012E+07
 0.31271999E+02 -0.41683E+07
 0.31321999E+02 -0.31524E+07
 0.31372002E+02 -0.20083E+07
 0.31422001E+02 -0.25537E+07
 0.31472000E+02 -0.35434E+07
 0.31521999E+02 -0.35708E+07
 0.31571999E+02 -0.35017E+07
 0.31622002E+02 -0.32712E+07
 0.31672001E+02 -0.29708E+07
 0.31722000E+02 -0.30870E+07
 0.31771999E+02 -0.32202E+07
 0.31821999E+02 -0.35286E+07
 0.31872002E+02 -0.38451E+07
 0.31922001E+02 -0.41675E+07
 0.31972000E+02 -0.43088E+07
 0.32021999E+02 -0.38202E+07
 0.32071999E+02 -0.35541E+07
 0.32122002E+02 -0.34906E+07
 0.32172001E+02 -0.34004E+07
 0.32222000E+02 -0.35915E+07
 0.32271999E+02 -0.36654E+07
 0.32321999E+02 -0.36966E+07
 0.32372002E+02 -0.39319E+07
 0.32422001E+02 -0.43261E+07
 0.32472000E+02 -0.44055E+07
 0.32521999E+02 -0.35503E+07
 0.32571999E+02 -0.25954E+07
 0.32622002E+02 -0.25986E+07
 0.32672001E+02 -0.33059E+07
 0.32722000E+02 -0.41351E+07
 0.32771999E+02 -0.45590E+07
 0.32821999E+02 -0.44378E+07
 0.32872002E+02 -0.42333E+07
 0.32922001E+02 -0.40354E+07
 0.32972000E+02 -0.38014E+07
 0.33021999E+02 -0.37512E+07
 0.33071999E+02 -0.37898E+07
 0.33122002E+02 -0.39010E+07
 0.33172001E+02 -0.42466E+07
 0.33222000E+02 -0.46175E+07
 0.33271999E+02 -0.46546E+07
 0.33321999E+02 -0.40152E+07
 0.33372002E+02 -0.28424E+07
 0.33422001E+02 -0.22698E+07
 0.33472000E+02 -0.26917E+07
 0.33521999E+02 -0.31109E+07
 0.33571999E+02 -0.35030E+07
 0.33622002E+02 -0.42064E+07
 0.33672001E+02 -0.44716E+07
 0.33722000E+02 -0.40614E+07
 0.33771999E+02 -0.32870E+07
 0.33821999E+02 -0.28386E+07
 0.33872002E+02 -0.32335E+07
 0.33922001E+02 -0.34010E+07
 0.33972000E+02 -0.29914E+07
 0.34021999E+02 -0.28723E+07
 0.34071999E+02 -0.30997E+07
 0.34122002E+02 -0.35504E+07
 0.34172001E+02 -0.40903E+07
 0.34222000E+02 -0.42733E+07
 0.34271999E+02 -0.39024E+07
 0.34321999E+02 -0.32561E+07
 0.34372002E+02 -0.26754E+07
 0.34422001E+02 -0.24205E+07
 0.34472000E+02 -0.26090E+07
 0.34521999E+02 -0.28301E+07
 0.34571999E+02 -0.30107E+07
 0.34622002E+02 -0.33085E+07
 0.34672001E+02 -0.34391E+07
 0.34722000E+02 -0.32351E+07
 0.34771999E+02 -0.28248E+07
 0.34821999E+02 -0.26392E+07
 0.34872002E+02 -0.27179E+07
 0.34922001E+02 -0.25652E+07
 0.34972000E+02 -0.20970E+07
 0.35021999E+02 -0.18815E+07
 0.35071999E+02 -0.22875E+07
 0.35122002E+02 -0.27402E+07
 0.35172001E+02 -0.27143E+07
 0.35222000E+02 -0.22865E+07
 0.35271999E+02 -0.17863E+07
 0.35321999E+02 -0.16287E+07
 0.35372002E+02 -0.18774E+07
 0.35422001E+02 -0.23407E+07
 0.35472000E+02 -0.25274E+07
 0.35521999E+02 -0.21777E+07
 0.35571999E+02 -0.19879E+07
 0.35622002E+02 -0.21324E+07
 0.35672001E+02 -0.19696E+07
 0.35722000E+02 -0.17085E+07
 0.35771999E+02 -0.16608E+07
 0.35821999E+02 -0.14015E+07
 0.35872002E+02 -0.10661E+07
 0.35922001E+02 -0.11509E+07
 0.35972000E+02 -0.16728E+07
 0.36021999E+02 -0.23452E+07
 0.36071999E+02 -0.26510E+07
 0.36122002E+02 -0.24096E+07
 0.36172001E+02 -0.19986E+07
 0.36222000E+02 -0.19894E+07
 0.36271999E+02 -0.25280E+07
 0.36321999E+02 -0.28752E+07
 0.36372002E+02 -0.26586E+07
 0.36422001E+02 -0.22128E+07
 0.36472000E+02 -0.16796E+07
 0.36521999E+02 -0.14400E+07
 0.36571999E+02 -0.17642E+07
 0.36622002E+02 -0.21248E+07
 0.36672001E+02 -0.22751E+07
 0.36722000E+02 -0.26033E+07
 0.36771999E+02 -0.30369E+07
 0.36821999E+02 -0.31056E+07
 0.36872002E+02 -0.27240E+07
 0.36922001E+02 -0.22193E+07
 0.36972000E+02 -0.20046E+07
 0.37021999E+02 -0.20423E+07
 0.37071999E+02 -0.21642E+07
 0.37122002E+02 -0.22986E+07
 0.37172001E+02 -0.22393E+07
 0.37222000E+02 -0.23035E+07
 0.37271999E+02 -0.26255E+07
 0.37321999E+02 -0.27917E+07
 0.37372002E+02 -0.28624E+07
 0.37422001E+02 -0.29132E+07
 0.37472000E+02 -0.29085E+07
 0.37521999E+02 -0.28724E+07
 0.37571999E+02 -0.27397E+07
 0.37622002E+02 -0.26632E+07
 0.37672001E+02 -0.25976E+07
 0.37722000E+02 -0.22913E+07
 0.37771999E+02 -0.17919E+07
 0.37821999E+02 -0.13596E+07
 0.37872002E+02 -0.12776E+07
 0.37922001E+02 -0.14799E+07
 0.37972000E+02 -0.16029E+07
 0.38021999E+02 -0.16657E+07
 0.38071999E+02 -0.18788E+07
 0.38122002E+02 -0.20534E+07
 0.38172001E+02 -0.19501E+07
 0.38222000E+02 -0.15737E+07
 0.38271999E+02 -0.12886E+07
 0.38321999E+02 -0.15496E+07
 0.38372002E+02 -0.20479E+07
 0.38422001E+02 -0.22320E+07
 0.38472000E+02 -0.20759E+07
 0.38521999E+02 -0.17555E+07
 0.38571999E+02 -0.15232E+07
 0.38622002E+02 -0.16282E+07
 0.38672001E+02 -0.20405E+07
 0.38722000E+02 -0.23088E+07
 0.38771999E+02 -0.21538E+07
 0.38821999E+02 -0.19871E+07
 0.38872002E+02 -0.21434E+07
 0.38922001E+02 -0.23216E+07
 0.38972000E+02 -0.22084E+07
 0.39021999E+02 -0.19801E+07
 0.39071999E+02 -0.17059E+07
 0.39122002E+02 -0.12188E+07
 0.39172001E+02 -0.70343E+06
 0.39222000E+02 -0.62772E+06
 0.39271999E+02 -0.10781E+07
 0.39321999E+02 -0.14673E+07
 0.39372002E+02 -0.15498E+07
 0.39422001E+02 -0.14718E+07
 0.39472000E+02 -0.13022E+07
 0.39521999E+02 -0.13767E+07
 0.39571999E+02 -0.16754E+07
 0.39622002E+02 -0.18975E+07
 0.39672001E+02 -0.18553E+07
 0.39722000E+02 -0.13985E+07
 0.39771999E+02 -0.83825E+06
 0.39821999E+02 -0.49675E+06
 0.39872002E+02 -0.42931E+06
 0.39922001E+02 -0.76302E+06
 0.39972000E+02 -0.12677E+07
 0.40021999E+02 -0.15134E+07
 0.40071999E+02 -0.15445E+07
 0.40122002E+02 -0.15239E+07
 0.40172001E+02 -0.14609E+07
 0.40222000E+02 -0.13970E+07
 0.40271999E+02 -0.13668E+07
 0.40321999E+02 -0.13832E+07
 0.40372002E+02 -0.13860E+07
 0.40422001E+02 -0.14014E+07
 0.40472000E+02 -0.16015E+07
 0.40521999E+02 -0.17926E+07
 0.40571999E+02 -0.16387E+07
 0.40622002E+02 -0.12812E+07
 0.40672001E+02 -0.10079E+07
 0.40722000E+02 -0.92483E+06
 0.40771999E+02 -0.86170E+06
 0.40821999E+02 -0.70350E+06
 0.40872002E+02 -0.66501E+06
 0.40922001E+02 -0.62358E+06
 0.40972000E+02 -0.41198E+06
 0.41021999E+02 -0.28929E+06
 0.41071999E+02 -0.37096E+06
 0.41122002E+02 -0.60263E+06
 0.41172001E+02 -0.91725E+06
 0.41222000E+02 -0.11564E+07
 0.41271999E+02 -0.12137E+07
 0.41321999E+02 -0.11492E+07
 0.41372002E+02 -0.10917E+07
 0.41422001E+02 -0.10940E+07
 0.41472000E+02 -0.10477E+07
 0.41521999E+02 -0.87739E+06
 0.41571999E+02 -0.87349E+06
 0.41622002E+02 -0.12121E+07
 0.41672001E+02 -0.15773E+07
 0.41722000E+02 -0.16634E+07
 0.41771999E+02 -0.13753E+07
 0.41821999E+02 -0.95937E+06
 0.41872002E+02 -0.77652E+06
 0.41922001E+02 -0.71586E+06
 0.41972000E+02 -0.57571E+06
 0.42021999E+02 -0.49389E+06
 0.42071999E+02 -0.75196E+06
 0.42122002E+02 -0.13388E+07
 0.42172001E+02 -0.17303E+07
 0.42222000E+02 -0.15619E+07
 0.42271999E+02 -0.10935E+07
 0.42321999E+02 -0.75461E+06
 0.42372002E+02 -0.68246E+06
 0.42422001E+02 -0.72380E+06
 0.42472000E+02 -0.73348E+06
 0.42521999E+02 -0.65133E+06
 0.42571999E+02 -0.49832E+06
 0.42622002E+02 -0.55585E+06
 0.42672001E+02 -0.10180E+07
 0.42722000E+02 -0.15270E+07
 0.42771999E+02 -0.16255E+07
 0.42821999E+02 -0.14076E+07
 0.42872002E+02 -0.11953E+07
 0.42922001E+02 -0.92465E+06
 0.42972000E+02 -0.57476E+06
 0.43021999E+02 -0.36296E+06
 0.43071999E+02 -0.26930E+06
 0.43122002E+02 -0.30086E+06
 0.43172001E+02 -0.59478E+06
 0.43222000E+02 -0.10593E+07
 0.43271999E+02 -0.12696E+07
 0.43321999E+02 -0.10408E+07
 0.43372002E+02 -0.84904E+06
 0.43422001E+02 -0.82152E+06
 0.43472000E+02 -0.72764E+06
 0.43521999E+02 -0.69858E+06
 0.43571999E+02 -0.79322E+06
 0.43622002E+02 -0.92623E+06
 0.43672001E+02 -0.99996E+06
 0.43722000E+02 -0.11976E+07
 0.43771999E+02 -0.17037E+07
 0.43821999E+02 -0.20129E+07
 0.43872002E+02 -0.18712E+07
 0.43922001E+02 -0.16724E+07
 0.43972000E+02 -0.16784E+07
 0.44021999E+02 -0.18107E+07
 0.44071999E+02 -0.18811E+07
 0.44122002E+02 -0.18640E+07
 0.44172001E+02 -0.17907E+07
 0.44222000E+02 -0.16727E+07
 0.44271999E+02 -0.14828E+07
 0.44321999E+02 -0.12194E+07
 0.44372002E+02 -0.97474E+06
 0.44422001E+02 -0.79093E+06
 0.44472000E+02 -0.68109E+06
 0.44521999E+02 -0.52364E+06
 0.44571999E+02 -0.31212E+06
 0.44622002E+02 -0.25743E+06
 0.44672001E+02 -0.30912E+06
 0.44722000E+02 -0.32167E+06
 0.44771999E+02 -0.32258E+06
 0.44821999E+02 -0.28547E+06
 0.44872002E+02 -0.13172E+06
 0.44922001E+02 -0.79751E+05
 0.44972000E+02 -0.28041E+06
 0.45021999E+02 -0.45792E+06
 0.45071999E+02 -0.50786E+06
 0.45122002E+02 -0.47134E+06
 0.45172001E+02 -0.36026E+06
 0.45222000E+02 -0.26940E+06
 0.45271999E+02 -0.24395E+06
 0.45321999E+02 -0.30601E+06
 0.45372002E+02 -0.28758E+06
 0.45422001E+02 -0.10278E+06
 0.45472000E+02  0.42717E+05
 0.45521999E+02  0.29784E+05
 0.45571999E+02 -0.76274E+05
 0.45622002E+02 -0.14960E+06
 0.45672001E+02 -0.26992E+06
 0.45722000E+02 -0.47089E+06
 0.45771999E+02 -0.57727E+06
 0.45821999E+02 -0.53655E+06
 0.45872002E+02 -0.40089E+06
 0.45922001E+02 -0.28286E+06
 0.45972000E+02 -0.31714E+06
 0.46021999E+02 -0.45370E+06
 0.46071999E+02 -0.46486E+06
 0.46122002E+02 -0.43264E+06
 0.46172001E+02 -0.55189E+06
 0.46222000E+02 -0.69533E+06
 0.46271999E+02 -0.83584E+06
 0.46321999E+02 -0.97583E+06
 0.46372002E+02 -0.99887E+06
 0.46422001E+02 -0.90595E+06
 0.46472000E+02 -0.82169E+06
 0.46521999E+02 -0.81417E+06
 0.46571999E+02 -0.79864E+06
 0.46622002E+02 -0.83545E+06
 0.46672001E+02 -0.10115E+07
 0.46722000E+02 -0.11728E+07
 0.46771999E+02 -0.11431E+07
 0.46821999E+02 -0.92330E+06
 0.46872002E+02 -0.67578E+06
 0.46922001E+02 -0.50390E+06
 0.46972000E+02 -0.37872E+06
 0.47021999E+02 -0.23786E+06
 0.47071999E+02 -0.85797E+05
 0.47122002E+02  0.22774E+05
 0.47172001E+02  0.24003E+05
 0.47222000E+02 -0.13755E+06
 0.47271999E+02 -0.30636E+06
 0.47321999E+02 -0.28366E+06
 0.47372002E+02 -0.14048E+06
 0.47422001E+02 -0.10569E+06
 0.47472000E+02 -0.27493E+06
 0.47521999E+02 -0.49037E+06
 0.47571999E+02 -0.52128E+06
 0.47622002E+02 -0.27707E+06
 0.47672001E+02  0.21591E+05
 0.47722000E+02  0.14466E+06
 0.47771999E+02  0.92707E+05
 0.47821999E+02 -0.11209E+06
 0.47872002E+02 -0.33241E+06
 0.47922001E+02 -0.46218E+06
 0.47972000E+02 -0.48981E+06
 0.48021999E+02 -0.39435E+06
 0.48071999E+02 -0.25037E+06
 0.48122002E+02 -0.90697E+05
 0.48172001E+02 -0.56750E+04
 0.48222000E+02 -0.64521E+05
 0.48271999E+02 -0.15349E+06
 0.48321999E+02 -0.18014E+06
 0.48372002E+02 -0.14229E+06
 0.48422001E+02 -0.17610E+06
 0.48472000E+02 -0.33008E+06
 0.48521999E+02 -0.47902E+06
 0.48571999E+02 -0.57161E+06
 0.48622002E+02 -0.58717E+06
 0.48672001E+02 -0.48868E+06
 0.48722000E+02 -0.32128E+06
 0.48771999E+02 -0.23780E+06
 0.48821999E+02 -0.26885E+06
 0.48872002E+02 -0.28354E+06
 0.48922001E+02 -0.29262E+06
 0.48972000E+02 -0.36222E+06
 0.49021999E+02 -0.40505E+06
 0.49071999E+02 -0.33735E+06
 0.49122002E+02 -0.22434E+06
 0.49172001E+02 -0.13842E+06
 0.49222000E+02 -0.81010E+04
 0.49271999E+02  0.17613E+06
 0.49321999E+02  0.33596E+06
 0.49372002E+02  0.47084E+06
 0.49422001E+02  0.44594E+06
 0.49472000E+02  0.17652E+06
 0.49521999E+02 -0.16357E+06
 0.49571999E+02 -0.39407E+06
 0.49622002E+02 -0.41556E+06
 0.49672001E+02 -0.33577E+06
 0.49722000E+02 -0.26404E+06
 0.49771999E+02 -0.15337E+06
 0.49821999E+02 -0.25085E+05
 0.49872002E+02  0.10454E+06
 0.49922001E+02  0.18410E+06
 0.49972000E+02  0.10348E+06
 0.50021999E+02 -0.10452E+06
 0.50071999E+02 -0.29222E+06
 0.50122002E+02 -0.35841E+06
 0.50172001E+02 -0.34328E+06
 0.50222000E+02 -0.30833E+06
 0.50271999E+02 -0.18798E+06
 0.50321999E+02  0.26730E+04
 0.50372002E+02  0.70993E+05
 0.50422001E+02 -0.51809E+05
 0.50472000E+02 -0.26306E+06
 0.50521999E+02 -0.41582E+06
 0.50571999E+02 -0.41539E+06
 0.50622002E+02 -0.37061E+06
 0.50672001E+02 -0.39313E+06
 0.50722000E+02 -0.49057E+06
 0.50771999E+02 -0.64918E+06
 0.50821999E+02 -0.71240E+06
 0.50872002E+02 -0.59460E+06
 0.50922001E+02 -0.40013E+06
 0.50972000E+02 -0.21726E+06
 0.51021999E+02 -0.13119E+06
 0.51071999E+02 -0.13300E+06
 0.51122002E+02 -0.11722E+06
 0.51172001E+02 -0.74436E+05
 0.51222000E+02 -0.27166E+05
 0.51271999E+02  0.91150E+04
 0.51321999E+02  0.18098E+05
 0.51372002E+02  0.73354E+05
 0.51422001E+02  0.21688E+06
 0.51472000E+02  0.35881E+06
 0.51521999E+02  0.40732E+06
 0.51571999E+02  0.36975E+06
 0.51622002E+02  0.29675E+06
 0.51672001E+02  0.19748E+06
 0.51722000E+02  0.15202E+06
 0.51771999E+02  0.22494E+06
 0.51821999E+02  0.28395E+06
 0.51872002E+02  0.25663E+06
 0.51922001E+02  0.20963E+06
 0.51972000E+02  0.17458E+06
 0.52021999E+02  0.16392E+06
 0.52071999E+02  0.15193E+06
 0.52122002E+02  0.10304E+06
 0.52172001E+02  0.68664E+05
 0.52222000E+02  0.98307E+05
 0.52271999E+02  0.15984E+06
 0.52321999E+02  0.25290E+06
 0.52372002E+02  0.38430E+06
 0.52422001E+02  0.43705E+06
 0.52472000E+02  0.35069E+06
 0.52521999E+02  0.22602E+06
 0.52571999E+02  0.15300E+06
 0.52622002E+02  0.13185E+06
 0.52672001E+02  0.11971E+06
 0.52722000E+02  0.11894E+06
 0.52771999E+02  0.13880E+06
 0.52821999E+02  0.18167E+06
 0.52872002E+02  0.25572E+06
 0.52922001E+02  0.29633E+06
 0.52972000E+02  0.27778E+06
 0.53021999E+02  0.23554E+06
 0.53071999E+02  0.18131E+06
 0.53122002E+02  0.15537E+06
 0.53172001E+02  0.18259E+06
 0.53222000E+02  0.24296E+06
 0.53271999E+02  0.29974E+06
 0.53321999E+02  0.33680E+06
 0.53372002E+02  0.36020E+06
 0.53422001E+02  0.33407E+06
 0.53472000E+02  0.26999E+06
 0.53521999E+02  0.21421E+06
 0.53571999E+02  0.19060E+06
 0.53622002E+02  0.26374E+06
 0.53672001E+02  0.41863E+06
 0.53722000E+02  0.52872E+06
 0.53771999E+02  0.52998E+06
 0.53821999E+02  0.47194E+06
 0.53872002E+02  0.40869E+06
 0.53922001E+02  0.36850E+06
 0.53972000E+02  0.31981E+06
 0.54021999E+02  0.17045E+06
 0.54071999E+02 -0.39839E+05
 0.54122002E+02 -0.16987E+06
 0.54172001E+02 -0.16086E+06
 0.54222000E+02 -0.10110E+06
 0.54271999E+02 -0.64079E+05
 0.54321999E+02 -0.15923E+05
 0.54372002E+02  0.30645E+05
 0.54422001E+02  0.96077E+05
 0.54472000E+02  0.14580E+06
 0.54521999E+02  0.64033E+05
 0.54571999E+02 -0.67965E+05
 0.54622002E+02 -0.15968E+06
 0.54672001E+02 -0.23190E+06
 0.54722000E+02 -0.25496E+06
 0.54771999E+02 -0.19802E+06
 0.54821999E+02 -0.75471E+05
 0.54872002E+02  0.54118E+05
 0.54922001E+02  0.12337E+06
 0.54972000E+02  0.15724E+06
 0.55021999E+02  0.22889E+06
 0.55071999E+02  0.34907E+06
 0.55122002E+02  0.45857E+06
 0.55172001E+02  0.49478E+06
 0.55222000E+02  0.47672E+06
 0.55271999E+02  0.43226E+06
 0.55321999E+02  0.38565E+06
 0.55372002E+02  0.39930E+06
 0.55422001E+02  0.45701E+06
 0.55472000E+02  0.51180E+06
 0.55521999E+02  0.52911E+06
 0.55571999E+02  0.49745E+06
 0.55622002E+02  0.47292E+06
 0.55672001E+02  0.47166E+06
 0.55722000E+02  0.47600E+06
 0.55771999E+02  0.50036E+06
 0.55821999E+02  0.58215E+06
 0.55872002E+02  0.71513E+06
 0.55922001E+02  0.82522E+06
 0.55972000E+02  0.86547E+06
 0.56021999E+02  0.83776E+06
 0.56071999E+02  0.76628E+06
 0.56122002E+02  0.66675E+06
 0.56172001E+02  0.54474E+06
 0.56222000E+02  0.42912E+06
 0.56271999E+02  0.38284E+06
 0.56321999E+02  0.43565E+06
 0.56372002E+02  0.51152E+06
 0.56422001E+02  0.53774E+06
 0.56472000E+02  0.50491E+06
 0.56521999E+02  0.43569E+06
 0.56571999E+02  0.37278E+06
 0.56622002E+02  0.31988E+06
 0.56672001E+02  0.27374E+06
 0.56722000E+02  0.25131E+06
 0.56771999E+02  0.24610E+06
 0.56821999E+02  0.26232E+06
 0.56872002E+02  0.29504E+06
 0.56922001E+02  0.30274E+06
 0.56972000E+02  0.27236E+06
 0.57021999E+02  0.21266E+06
 0.57071999E+02  0.18137E+06
 0.57122002E+02  0.24112E+06
 0.57172001E+02  0.34458E+06
 0.57222000E+02  0.41622E+06
 0.57271999E+02  0.42666E+06
 0.57321999E+02  0.41831E+06
 0.57372002E+02  0.42799E+06
 0.57422001E+02  0.41012E+06
 0.57472000E+02  0.35956E+06
 0.57521999E+02  0.31610E+06
 0.57571999E+02  0.28198E+06
 0.57622002E+02  0.26028E+06
 0.57672001E+02  0.26786E+06
 0.57722000E+02  0.27080E+06
 0.57771999E+02  0.24785E+06
 0.57821999E+02  0.23076E+06
 0.57872002E+02  0.22545E+06
 0.57922001E+02  0.25596E+06
 0.57972000E+02  0.34246E+06
 0.58021999E+02  0.45858E+06
 0.58071999E+02  0.57736E+06
 0.58122002E+02  0.66117E+06
 0.58172001E+02  0.68969E+06
 0.58222000E+02  0.67511E+06
 0.58271999E+02  0.63023E+06
 0.58321999E+02  0.55126E+06
 0.58372002E+02  0.44745E+06
 0.58422001E+02  0.36298E+06
 0.58472000E+02  0.32457E+06
 0.58521999E+02  0.34047E+06
 0.58571999E+02  0.41834E+06
 0.58622002E+02  0.52747E+06
 0.58672001E+02  0.60130E+06
 0.58722000E+02  0.62453E+06
 0.58771999E+02  0.62665E+06
 0.58821999E+02  0.56332E+06
 0.58872002E+02  0.40881E+06
 0.58922001E+02  0.27610E+06
 0.58972000E+02  0.25652E+06
 0.59021999E+02  0.32147E+06
 0.59071999E+02  0.42020E+06
 0.59122002E+02  0.52814E+06
 0.59172001E+02  0.62184E+06
 0.59222000E+02  0.63760E+06
 0.59271999E+02  0.54927E+06
 0.59321999E+02  0.47219E+06
 0.59372002E+02  0.47529E+06
 0.59422001E+02  0.50967E+06
 0.59472000E+02  0.56333E+06
 0.59521999E+02  0.61110E+06
 0.59571999E+02  0.62825E+06
 0.59622002E+02  0.65102E+06
 0.59672001E+02  0.71916E+06
 0.59722000E+02  0.83467E+06
 0.59771999E+02  0.91817E+06
 0.59821999E+02  0.91568E+06
 0.59872002E+02  0.84927E+06
 0.59922001E+02  0.74508E+06
 0.59972000E+02  0.67680E+06
 0.60021999E+02  0.69308E+06
 0.60071999E+02  0.74809E+06
 0.60122002E+02  0.79357E+06
 0.60172001E+02  0.82419E+06
 0.60222000E+02  0.85318E+06
 0.60271999E+02  0.86415E+06
 0.60321999E+02  0.86081E+06
 0.60372002E+02  0.87788E+06
 0.60422001E+02  0.88317E+06
 0.60472000E+02  0.84209E+06
 0.60521999E+02  0.76825E+06
 0.60571999E+02  0.68596E+06
 0.60622002E+02  0.65626E+06
 0.60672001E+02  0.67984E+06
 0.60722000E+02  0.69548E+06
 0.60771999E+02  0.72110E+06
 0.60821999E+02  0.77513E+06
 0.60872002E+02  0.82939E+06
 0.60922001E+02  0.85144E+06
 0.60972000E+02  0.81842E+06
 0.61021999E+02  0.74204E+06
 0.61071999E+02  0.63238E+06
 0.61122002E+02  0.52135E+06
 0.61172001E+02  0.43286E+06
 0.61222000E+02  0.36812E+06
 0.61271999E+02  0.36171E+06
 0.61321999E+02  0.41169E+06
 0.61372002E+02  0.48493E+06
 0.61422001E+02  0.52645E+06
 0.61472000E+02  0.47485E+06
 0.61521999E+02  0.36768E+06
 0.61571999E+02  0.29398E+06
 0.61622002E+02  0.28110E+06
 0.61672001E+02  0.29738E+06
 0.61722000E+02  0.34251E+06
 0.61771999E+02  0.41132E+06
 0.61821999E+02  0.46712E+06
 0.61872002E+02  0.53594E+06
 0.61922001E+02  0.61352E+06
 0.61972000E+02  0.62600E+06
 0.62021999E+02  0.55663E+06
 0.62072002E+02  0.46778E+06
 0.62121998E+02  0.41144E+06
 0.62172001E+02  0.37785E+06
 0.62222004E+02  0.37905E+06
 0.62271999E+02  0.44172E+06
 0.62322002E+02  0.52542E+06
 0.62371998E+02  0.57605E+06
 0.62422001E+02  0.59780E+06
 0.62472004E+02  0.60505E+06
 0.62521999E+02  0.59060E+06
 0.62572002E+02  0.57819E+06
 0.62621998E+02  0.58472E+06
 0.62672001E+02  0.59284E+06
 0.62722004E+02  0.58248E+06
 0.62771999E+02  0.54101E+06
 0.62822002E+02  0.49908E+06
 0.62871998E+02  0.49278E+06
 0.62922001E+02  0.50515E+06
 0.62972004E+02  0.52089E+06
 0.63021999E+02  0.55851E+06
 0.63072002E+02  0.61103E+06
 0.63121998E+02  0.66065E+06
 0.63172001E+02  0.70640E+06
 0.63222004E+02  0.72439E+06
 0.63271999E+02  0.69339E+06
 0.63322002E+02  0.62627E+06
 0.63371998E+02  0.56933E+06
 0.63422001E+02  0.54341E+06
 0.63472004E+02  0.53553E+06
 0.63521999E+02  0.56048E+06
 0.63572002E+02  0.59890E+06
 0.63621998E+02  0.62122E+06
 0.63672001E+02  0.65151E+06
 0.63722004E+02  0.71329E+06
 0.63771999E+02  0.77937E+06
 0.63822002E+02  0.80026E+06
 0.63871998E+02  0.78755E+06
 0.63922001E+02  0.77342E+06
 0.63972004E+02  0.76791E+06
 0.64022003E+02  0.77700E+06
 0.64072006E+02  0.78228E+06
 0.64122002E+02  0.76024E+06
 0.64172005E+02  0.71145E+06
 0.64222008E+02  0.66918E+06
 0.64272003E+02  0.67314E+06
 0.64322006E+02  0.71314E+06
 0.64372002E+02  0.74053E+06
 0.64422005E+02  0.73383E+06
 0.64472008E+02  0.69025E+06
 0.64522003E+02  0.63227E+06
 0.64572006E+02  0.63658E+06
 0.64622002E+02  0.73208E+06
 0.64672005E+02  0.85334E+06
 0.64722008E+02  0.92843E+06
 0.64772003E+02  0.93303E+06
 0.64822006E+02  0.87758E+06
 0.64872002E+02  0.79682E+06
 0.64922005E+02  0.75488E+06
 0.64972008E+02  0.79015E+06
 0.65022003E+02  0.86445E+06
 0.65072006E+02  0.91862E+06
 0.65122002E+02  0.93719E+06
 0.65172005E+02  0.93250E+06
 0.65222008E+02  0.91193E+06
 0.65272003E+02  0.86393E+06
 0.65322006E+02  0.79171E+06
 0.65372002E+02  0.72488E+06
 0.65422005E+02  0.68773E+06
 0.65472008E+02  0.70241E+06
 0.65522003E+02  0.74531E+06
 0.65572006E+02  0.77281E+06
 0.65622002E+02  0.77607E+06
 0.65672005E+02  0.75019E+06
 0.65722008E+02  0.71487E+06
 0.65772003E+02  0.70062E+06
 0.65822006E+02  0.71765E+06
 0.65872002E+02  0.74678E+06
 0.65922005E+02  0.74865E+06
 0.65972008E+02  0.72314E+06
 0.66022003E+02  0.70140E+06
 0.66072006E+02  0.69901E+06
 0.66122002E+02  0.71065E+06
 0.66172005E+02  0.72531E+06
 0.66222008E+02  0.72272E+06
 0.66272003E+02  0.69922E+06
 0.66322006E+02  0.65472E+06
 0.66372002E+02  0.57217E+06
 0.66422005E+02  0.51072E+06
 0.66472008E+02  0.52458E+06
 0.66522003E+02  0.56808E+06
 0.66572006E+02  0.60582E+06
 0.66622002E+02  0.62544E+06
 0.66672005E+02  0.62961E+06
 0.66722008E+02  0.63819E+06
 0.66772003E+02  0.64765E+06
 0.66822006E+02  0.66035E+06
 0.66872002E+02  0.68173E+06
 0.66922005E+02  0.68626E+06
 0.66972008E+02  0.65392E+06
 0.67022003E+02  0.60265E+06
 0.67072006E+02  0.55063E+06
 0.67122002E+02  0.50388E+06
 0.67172005E+02  0.47821E+06
 0.67222008E+02  0.49617E+06
 0.67272003E+02  0.56609E+06
 0.67322006E+02  0.64470E+06
 0.67372002E+02  0.69032E+06
 0.67422005E+02  0.71284E+06
 0.67472008E+02  0.70871E+06
 0.67522003E+02  0.69358E+06
 0.67572006E+02  0.72211E+06
 0.67622002E+02  0.78368E+06
 0.67672005E+02  0.83044E+06
 0.67722008E+02  0.85566E+06
 0.67772003E+02  0.87542E+06
 0.67822006E+02  0.90467E+06
 0.67872002E+02  0.94170E+06
 0.67922005E+02  0.97218E+06
 0.67972008E+02  0.99539E+06
 0.68022003E+02  0.10203E+07
 0.68072006E+02  0.10315E+07
 0.68122002E+02  0.10192E+07
 0.68172005E+02  0.10151E+07
 0.68222008E+02  0.10268E+07
 0.68272003E+02  0.10277E+07
 0.68322006E+02  0.10008E+07
 0.68372002E+02  0.94341E+06
 0.68422005E+02  0.88616E+06
 0.68472008E+02  0.84684E+06
 0.68522003E+02  0.81038E+06
 0.68572006E+02  0.78227E+06
 0.68622002E+02  0.75568E+06
 0.68672005E+02  0.71223E+06
 0.68722008E+02  0.66875E+06
 0.68772003E+02  0.65680E+06
 0.68822006E+02  0.68307E+06
 0.68872002E+02  0.71131E+06
 0.68922005E+02  0.71651E+06
 0.68972008E+02  0.71531E+06
 0.69022003E+02  0.71444E+06
 0.69072006E+02  0.69883E+06
 0.69122002E+02  0.66567E+06
 0.69172005E+02  0.63144E+06
 0.69222008E+02  0.60655E+06
 0.69272003E+02  0.58708E+06
 0.69322006E+02  0.57842E+06
 0.69372002E+02  0.59969E+06
 0.69422005E+02  0.65370E+06
 0.69472008E+02  0.72282E+06
 0.69522003E+02  0.77944E+06
 0.69572006E+02  0.79782E+06
 0.69622002E+02  0.78205E+06
 0.69672005E+02  0.77177E+06
 0.69722008E+02  0.80233E+06
 0.69772003E+02  0.85242E+06
 0.69822006E+02  0.88581E+06
 0.69872002E+02  0.89883E+06
 0.69922005E+02  0.89385E+06
 0.69972008E+02  0.87557E+06
 0.70022003E+02  0.83932E+06
 0.70072006E+02  0.77792E+06
 0.70122002E+02  0.71646E+06
 0.70172005E+02  0.69872E+06
 0.70222008E+02  0.74101E+06
 0.70272003E+02  0.81919E+06
 0.70322006E+02  0.90421E+06
 0.70372002E+02  0.97833E+06
 0.70422005E+02  0.10278E+07
 0.70472008E+02  0.10483E+07
 0.70522003E+02  0.10520E+07
 0.70572006E+02  0.10464E+07
 0.70622002E+02  0.10218E+07
 0.70672005E+02  0.98247E+06
 0.70722008E+02  0.95998E+06
 0.70772003E+02  0.97005E+06
 0.70822006E+02  0.99122E+06
 0.70872002E+02  0.10054E+07
 0.70922005E+02  0.99245E+06
 0.70972008E+02  0.92322E+06
 0.71022003E+02  0.82634E+06
 0.71072006E+02  0.76150E+06
 0.71122002E+02  0.74251E+06
 0.71172005E+02  0.75986E+06
 0.71222008E+02  0.78203E+06
 0.71272003E+02  0.76680E+06
 0.71322006E+02  0.72101E+06
 0.71372002E+02  0.67564E+06
 0.71422005E+02  0.65639E+06
 0.71472008E+02  0.66396E+06
 0.71522003E+02  0.66070E+06
 0.71572006E+02  0.63178E+06
 0.71622002E+02  0.59443E+06
 0.71672005E+02  0.56479E+06
 0.71722008E+02  0.55417E+06
 0.71772003E+02  0.54133E+06
 0.71822006E+02  0.50461E+06
 0.71872002E+02  0.46167E+06
 0.71922005E+02  0.42718E+06
 0.71972008E+02  0.41994E+06
 0.72022003E+02  0.45254E+06
 0.72072006E+02  0.51461E+06
 0.72122002E+02  0.58550E+06
 0.72172005E+02  0.61940E+06
 0.72222008E+02  0.61060E+06
 0.72272003E+02  0.59336E+06
 0.72322006E+02  0.58774E+06
 0.72372002E+02  0.60698E+06
 0.72422005E+02  0.63888E+06
 0.72472008E+02  0.66885E+06
 0.72522003E+02  0.69568E+06
 0.72572006E+02  0.71922E+06
 0.72622002E+02  0.74139E+06
 0.72672005E+02  0.75602E+06
 0.72722008E+02  0.75880E+06
 0.72772003E+02  0.74773E+06
 0.72822006E+02  0.71848E+06
 0.72872002E+02  0.68543E+06
 0.72922005E+02  0.67788E+06
 0.72972008E+02  0.69511E+06
 0.73022003E+02  0.71681E+06
 0.73072006E+02  0.73398E+06
 0.73122002E+02  0.73362E+06
 0.73172005E+02  0.71462E+06
 0.73222008E+02  0.69315E+06
 0.73272003E+02  0.68211E+06
 0.73322006E+02  0.68802E+06
 0.73372002E+02  0.69962E+06
 0.73422005E+02  0.70564E+06
 0.73472008E+02  0.71747E+06
 0.73522003E+02  0.73448E+06
 0.73572006E+02  0.73500E+06
 0.73622002E+02  0.71708E+06
 0.73672005E+02  0.69140E+06
 0.73722008E+02  0.66086E+06
 0.73772003E+02  0.64367E+06
 0.73822006E+02  0.66201E+06
 0.73872002E+02  0.69681E+06
 0.73922005E+02  0.70805E+06
 0.73972008E+02  0.70141E+06
 0.74022003E+02  0.71476E+06
 0.74072006E+02  0.75238E+06
 0.74122002E+02  0.78663E+06
 0.74172005E+02  0.79576E+06
 0.74222008E+02  0.77898E+06
 0.74272003E+02  0.74958E+06
 0.74322006E+02  0.72554E+06
 0.74372002E+02  0.73330E+06
 0.74422005E+02  0.78080E+06
 0.74472008E+02  0.83660E+06
 0.74522003E+02  0.88011E+06
 0.74572006E+02  0.90995E+06
 0.74622002E+02  0.92062E+06
 0.74672005E+02  0.91257E+06
 0.74722008E+02  0.87971E+06
 0.74772003E+02  0.82800E+06
 0.74822006E+02  0.78916E+06
 0.74872002E+02  0.79560E+06
 0.74922005E+02  0.85104E+06
 0.74972008E+02  0.91649E+06
 0.75022003E+02  0.95960E+06
 0.75072006E+02  0.96911E+06
 0.75122002E+02  0.95529E+06
 0.75172005E+02  0.94098E+06
 0.75222008E+02  0.92582E+06
 0.75272003E+02  0.91777E+06
 0.75322006E+02  0.91807E+06
 0.75372002E+02  0.90520E+06
 0.75422005E+02  0.88006E+06
 0.75472008E+02  0.86134E+06
 0.75522003E+02  0.85846E+06
 0.75572006E+02  0.85770E+06
 0.75622002E+02  0.83911E+06
 0.75672005E+02  0.80474E+06
 0.75722008E+02  0.77312E+06
 0.75772003E+02  0.75393E+06
 0.75822006E+02  0.75819E+06
 0.75872002E+02  0.78747E+06
 0.75922005E+02  0.81382E+06
 0.75972008E+02  0.82631E+06
 0.76022003E+02  0.82273E+06
 0.76072006E+02  0.79742E+06
 0.76122002E+02  0.76749E+06
 0.76172005E+02  0.76152E+06
 0.76222008E+02  0.78338E+06
 0.76272003E+02  0.79405E+06
 0.76322006E+02  0.78083E+06
 0.76372002E+02  0.77506E+06
 0.76422005E+02  0.79131E+06
 0.76472008E+02  0.81410E+06
 0.76522003E+02  0.81552E+06
 0.76572006E+02  0.78835E+06
 0.76622002E+02  0.75311E+06
 0.76672005E+02  0.73786E+06
 0.76722008E+02  0.75903E+06
 0.76772003E+02  0.80176E+06
 0.76822006E+02  0.83511E+06
 0.76872002E+02  0.85459E+06
 0.76922005E+02  0.88002E+06
 0.76972008E+02  0.91639E+06
 0.77022003E+02  0.93416E+06
 0.77072006E+02  0.89724E+06
 0.77122002E+02  0.81869E+06
 0.77172005E+02  0.74771E+06
 0.77222008E+02  0.71314E+06
 0.77272003E+02  0.70757E+06
 0.77322006E+02  0.70431E+06
 0.77372002E+02  0.69097E+06
 0.77422005E+02  0.67869E+06
 0.77472008E+02  0.67558E+06
 0.77522003E+02  0.67004E+06
 0.77572006E+02  0.64292E+06
 0.77622002E+02  0.59334E+06
 0.77672005E+02  0.55265E+06
 0.77722008E+02  0.55406E+06
 0.77772003E+02  0.59516E+06
 0.77822006E+02  0.64671E+06
 0.77872002E+02  0.67772E+06
 0.77922005E+02  0.68384E+06
 0.77972008E+02  0.68837E+06
 0.78022003E+02  0.69476E+06
 0.78072006E+02  0.67902E+06
 0.78122002E+02  0.63758E+06
 0.78172005E+02  0.59705E+06
 0.78222008E+02  0.58764E+06
 0.78272003E+02  0.61993E+06
 0.78322006E+02  0.66822E+06
 0.78372002E+02  0.70139E+06
 0.78422005E+02  0.71266E+06
 0.78472008E+02  0.70214E+06
 0.78522003E+02  0.67066E+06
 0.78572006E+02  0.62145E+06
 0.78622002E+02  0.57326E+06
 0.78672005E+02  0.56497E+06
 0.78722008E+02  0.61063E+06
 0.78772003E+02  0.67912E+06
 0.78822006E+02  0.73361E+06
 0.78872002E+02  0.76344E+06
 0.78922005E+02  0.77199E+06
 0.78972008E+02  0.76008E+06
 0.79022003E+02  0.73587E+06
 0.79072006E+02  0.71597E+06
 0.79122002E+02  0.71134E+06
 0.79172005E+02  0.73068E+06
 0.79222008E+02  0.77140E+06
 0.79272003E+02  0.80514E+06
 0.79322006E+02  0.81214E+06
 0.79372002E+02  0.80347E+06
 0.79422005E+02  0.78638E+06
 0.79472008E+02  0.75976E+06
 0.79522003E+02  0.73945E+06
 0.79572006E+02  0.73191E+06
 0.79622002E+02  0.72504E+06
 0.79672005E+02  0.72555E+06
 0.79722008E+02  0.74225E+06
 0.79772003E+02  0.76030E+06
 0.79822006E+02  0.76437E+06
 0.79872002E+02  0.74436E+06
 0.79922005E+02  0.68948E+06
 0.79972008E+02  0.60752E+06
 0.80022003E+02  0.53609E+06
 0.80072006E+02  0.51169E+06
 0.80122002E+02  0.53060E+06
 0.80172005E+02  0.57056E+06
 0.80222008E+02  0.61747E+06
 0.80272003E+02  0.65148E+06
 0.80322006E+02  0.65850E+06
 0.80372002E+02  0.64602E+06
 0.80422005E+02  0.63382E+06
 0.80472008E+02  0.63066E+06
 0.80522003E+02  0.62629E+06
 0.80572006E+02  0.62052E+06
 0.80622002E+02  0.63009E+06
 0.80672005E+02  0.66168E+06
 0.80722008E+02  0.69472E+06
 0.80772003E+02  0.70743E+06
 0.80822006E+02  0.70294E+06
 0.80872002E+02  0.68799E+06
 0.80922005E+02  0.66659E+06
 0.80972008E+02  0.64393E+06
 0.81022003E+02  0.62434E+06
 0.81072006E+02  0.62013E+06
 0.81122002E+02  0.63966E+06
 0.81172005E+02  0.68112E+06
 0.81222008E+02  0.73135E+06
 0.81272003E+02  0.76457E+06
 0.81322006E+02  0.76833E+06
 0.81372002E+02  0.74640E+06
 0.81422005E+02  0.71427E+06
 0.81472008E+02  0.69615E+06
 0.81522003E+02  0.69373E+06
 0.81572006E+02  0.69722E+06
 0.81622002E+02  0.71242E+06
 0.81672005E+02  0.74277E+06
 0.81722008E+02  0.77343E+06
 0.81772003E+02  0.77453E+06
 0.81822006E+02  0.73815E+06
 0.81872002E+02  0.69445E+06
 0.81922005E+02  0.65906E+06
 0.81972008E+02  0.63276E+06
 0.82022003E+02  0.62326E+06
 0.82072006E+02  0.62105E+06
 0.82122002E+02  0.61826E+06
 0.82172005E+02  0.62622E+06
 0.82222008E+02  0.65070E+06
 0.82272003E+02  0.67887E+06
 0.82322006E+02  0.69468E+06
 0.82372002E+02  0.69948E+06
 0.82422005E+02  0.70074E+06
 0.82472008E+02  0.70018E+06
 0.82522003E+02  0.70311E+06
 0.82572006E+02  0.71865E+06
 0.82622002E+02  0.73542E+06
 0.82672005E+02  0.73559E+06
 0.82722008E+02  0.73218E+06
 0.82772003E+02  0.73480E+06
 0.82822006E+02  0.73850E+06
 0.82872002E+02  0.74670E+06
 0.82922005E+02  0.75728E+06
 0.82972008E+02  0.76213E+06
 0.83022003E+02  0.75378E+06
 0.83072006E+02  0.73074E+06
 0.83122002E+02  0.69873E+06
 0.83172005E+02  0.67969E+06
 0.83222008E+02  0.69189E+06
 0.83272003E+02  0.71111E+06
 0.83322006E+02  0.71595E+06
 0.83372002E+02  0.71647E+06
 0.83422005E+02  0.71983E+06
 0.83472008E+02  0.71593E+06
 0.83522003E+02  0.69526E+06
 0.83572006E+02  0.67067E+06
 0.83622002E+02  0.65470E+06
 0.83672005E+02  0.64430E+06
 0.83722008E+02  0.63729E+06
 0.83772003E+02  0.63476E+06
 0.83822006E+02  0.63506E+06
 0.83872002E+02  0.63068E+06
 0.83922005E+02  0.61595E+06
 0.83972008E+02  0.59380E+06
 0.84022003E+02  0.56944E+06
 0.84072006E+02  0.54780E+06
 0.84122002E+02  0.53727E+06
 0.84172005E+02  0.54423E+06
 0.84222008E+02  0.56918E+06
 0.84272003E+02  0.60370E+06
 0.84322006E+02  0.63249E+06
 0.84372002E+02  0.64691E+06
 0.84422005E+02  0.64129E+06
 0.84472008E+02  0.61630E+06
 0.84522003E+02  0.58804E+06
 0.84572006E+02  0.57372E+06
 0.84622002E+02  0.58637E+06
 0.84672005E+02  0.62551E+06
 0.84722008E+02  0.66757E+06
 0.84772003E+02  0.68754E+06
 0.84822006E+02  0.67474E+06
 0.84872002E+02  0.63901E+06
 0.84922005E+02  0.60705E+06
 0.84972008E+02  0.59692E+06
 0.85022003E+02  0.61167E+06
 0.85072006E+02  0.64842E+06
 0.85122002E+02  0.70027E+06
 0.85172005E+02  0.74880E+06
 0.85222008E+02  0.77141E+06
 0.85272003E+02  0.77428E+06
 0.85322006E+02  0.77259E+06
 0.85372002E+02  0.76414E+06
 0.85422005E+02  0.75289E+06
 0.85472008E+02  0.74243E+06
 0.85522003E+02  0.73228E+06
 0.85572006E+02  0.72631E+06
 0.85622002E+02  0.72289E+06
 0.85672005E+02  0.72362E+06
 0.85722008E+02  0.72852E+06
 0.85772003E+02  0.72784E+06
 0.85822006E+02  0.72281E+06
 0.85872002E+02  0.72341E+06
 0.85922005E+02  0.72055E+06
 0.85972008E+02  0.70043E+06
 0.86022003E+02  0.67514E+06
 0.86072006E+02  0.65439E+06
 0.86122002E+02  0.63310E+06
 0.86172005E+02  0.61926E+06
 0.86222008E+02  0.61610E+06
 0.86272003E+02  0.60653E+06
 0.86322006E+02  0.58666E+06
 0.86372002E+02  0.57650E+06
 0.86422005E+02  0.58385E+06
 0.86472008E+02  0.59272E+06
 0.86522003E+02  0.59452E+06
 0.86572006E+02  0.59269E+06
 0.86622002E+02  0.58595E+06
 0.86672005E+02  0.58030E+06
 0.86722008E+02  0.58962E+06
 0.86772003E+02  0.61326E+06
 0.86822006E+02  0.63441E+06
 0.86872002E+02  0.64329E+06
 0.86922005E+02  0.65032E+06
 0.86972008E+02  0.65730E+06
 0.87022003E+02  0.64626E+06
 0.87072006E+02  0.61282E+06
 0.87122002E+02  0.57890E+06
 0.87172005E+02  0.56486E+06
 0.87222008E+02  0.57083E+06
 0.87272003E+02  0.59204E+06
 0.87322006E+02  0.61689E+06
 0.87372002E+02  0.62878E+06
 0.87422005E+02  0.62220E+06
 0.87472008E+02  0.60246E+06
 0.87522003E+02  0.58848E+06
 0.87572006E+02  0.59242E+06
 0.87622002E+02  0.60184E+06
 0.87672005E+02  0.60154E+06
 0.87722008E+02  0.58383E+06
 0.87772003E+02  0.54481E+06
 0.87822006E+02  0.49795E+06
 0.87872002E+02  0.47123E+06
 0.87922005E+02  0.47448E+06
 0.87972008E+02  0.49445E+06
 0.88022003E+02  0.52065E+06
 0.88072006E+02  0.54560E+06
 0.88122002E+02  0.55286E+06
 0.88172005E+02  0.53623E+06
 0.88222008E+02  0.50782E+06
 0.88272003E+02  0.48559E+06
 0.88322006E+02  0.48531E+06
 0.88372002E+02  0.50835E+06
 0.88422005E+02  0.54731E+06
 0.88472008E+02  0.58670E+06
 0.88522003E+02  0.60080E+06
 0.88572006E+02  0.58373E+06
 0.88622002E+02  0.55342E+06
 0.88672005E+02  0.52443E+06
 0.88722008E+02  0.50539E+06
 0.88772003E+02  0.50306E+06
 0.88822006E+02  0.51509E+06
 0.88872002E+02  0.53848E+06
 0.88922005E+02  0.57204E+06
 0.88972008E+02  0.60593E+06
 0.89022003E+02  0.62517E+06
 0.89072006E+02  0.61488E+06
 0.89122002E+02  0.57824E+06
 0.89172005E+02  0.53907E+06
 0.89222008E+02  0.51284E+06
 0.89272003E+02  0.50726E+06
 0.89322006E+02  0.52651E+06
 0.89372002E+02  0.56173E+06
 0.89422005E+02  0.59607E+06
 0.89472008E+02  0.60975E+06
 0.89522003E+02  0.59159E+06
 0.89572006E+02  0.54841E+06
 0.89622002E+02  0.49685E+06
 0.89672005E+02  0.45807E+06
 0.89722008E+02  0.45089E+06
 0.89772003E+02  0.47582E+06
 0.89822006E+02  0.51938E+06
 0.89872002E+02  0.56998E+06
 0.89922005E+02  0.61171E+06
 0.89972008E+02  0.62448E+06
 0.90022003E+02  0.60400E+06
 0.90072006E+02  0.56394E+06
 0.90122002E+02  0.52043E+06
 0.90172005E+02  0.48488E+06
 0.90222008E+02  0.46468E+06
 0.90272003E+02  0.46690E+06
 0.90322006E+02  0.48828E+06
 0.90372002E+02  0.50771E+06
 0.90422005E+02  0.51644E+06
 0.90472008E+02  0.52246E+06
 0.90522003E+02  0.52060E+06
 0.90572006E+02  0.50040E+06
 0.90622002E+02  0.47313E+06
 0.90672005E+02  0.46274E+06
 0.90722008E+02  0.47915E+06
 0.90772003E+02  0.51950E+06
 0.90822006E+02  0.56979E+06
 0.90872002E+02  0.61158E+06
 0.90922005E+02  0.63469E+06
 0.90972008E+02  0.63310E+06
 0.91022003E+02  0.61278E+06
 0.91072006E+02  0.58600E+06
 0.91122002E+02  0.56291E+06
 0.91172005E+02  0.55296E+06
 0.91222008E+02  0.55246E+06
 0.91272003E+02  0.54963E+06
 0.91322006E+02  0.54091E+06
 0.91372002E+02  0.52974E+06
 0.91422005E+02  0.51526E+06
 0.91472008E+02  0.49516E+06
 0.91522003E+02  0.47062E+06
 0.91572006E+02  0.44503E+06
 0.91622002E+02  0.42576E+06
 0.91672005E+02  0.41747E+06
 0.91722008E+02  0.42236E+06
 0.91772003E+02  0.43854E+06
 0.91822006E+02  0.45423E+06
 0.91872002E+02  0.46060E+06
 0.91922005E+02  0.45849E+06
 0.91972008E+02  0.45465E+06
 0.92022003E+02  0.45255E+06
 0.92072006E+02  0.44950E+06
 0.92122002E+02  0.44538E+06
 0.92172005E+02  0.43575E+06
 0.92222008E+02  0.42188E+06
 0.92272003E+02  0.41835E+06
 0.92322006E+02  0.42706E+06
 0.92372002E+02  0.43617E+06
 0.92422005E+02  0.43385E+06
 0.92472008E+02  0.42017E+06
 0.92522003E+02  0.40689E+06
 0.92572006E+02  0.40116E+06
 0.92622002E+02  0.40480E+06
 0.92672005E+02  0.41274E+06
 0.92722008E+02  0.41872E+06
 0.92772003E+02  0.42744E+06
 0.92822006E+02  0.44633E+06
 0.92872002E+02  0.47317E+06
 0.92922005E+02  0.49810E+06
 0.92972008E+02  0.51212E+06
 0.93022003E+02  0.51544E+06
 0.93072006E+02  0.52151E+06
 0.93122002E+02  0.53372E+06
 0.93172005E+02  0.54239E+06
 0.93222008E+02  0.55168E+06
 0.93272003E+02  0.56965E+06
 0.93322006E+02  0.59456E+06
 0.93372002E+02  0.62348E+06
 0.93422005E+02  0.65082E+06
 0.93472008E+02  0.66427E+06
 0.93522003E+02  0.65726E+06
 0.93572006E+02  0.64244E+06
 0.93622002E+02  0.63234E+06
 0.93672005E+02  0.62555E+06
 0.93722008E+02  0.62851E+06
 0.93772003E+02  0.64889E+06
 0.93822006E+02  0.67500E+06
 0.93872002E+02  0.69093E+06
 0.93922005E+02  0.68725E+06
 0.93972008E+02  0.66200E+06
 0.94022003E+02  0.62266E+06
 0.94072006E+02  0.57713E+06
 0.94122002E+02  0.53121E+06
 0.94172005E+02  0.49094E+06
 0.94222008E+02  0.46390E+06
 0.94272003E+02  0.45824E+06
 0.94322006E+02  0.47011E+06
 0.94372002E+02  0.48256E+06
 0.94422005E+02  0.48058E+06
 0.94472008E+02  0.46123E+06
 0.94522003E+02  0.43627E+06
 0.94572006E+02  0.41950E+06
 0.94622002E+02  0.41257E+06
 0.94672005E+02  0.41217E+06
 0.94722008E+02  0.41953E+06
 0.94772003E+02  0.43602E+06
 0.94822006E+02  0.45752E+06
 0.94872002E+02  0.47897E+06
 0.94922005E+02  0.49729E+06
 0.94972008E+02  0.50617E+06
 0.95022003E+02  0.49602E+06
 0.95072006E+02  0.46646E+06
 0.95122002E+02  0.43386E+06
 0.95172005E+02  0.41543E+06
 0.95222008E+02  0.41555E+06
 0.95272003E+02  0.42606E+06
 0.95322006E+02  0.43225E+06
 0.95372002E+02  0.42935E+06
 0.95422005E+02  0.42450E+06
 0.95472008E+02  0.42222E+06
 0.95522003E+02  0.42331E+06
 0.95572006E+02  0.42378E+06
 0.95622002E+02  0.41250E+06
 0.95672005E+02  0.39152E+06
 0.95722008E+02  0.37943E+06
 0.95772003E+02  0.38068E+06
 0.95822006E+02  0.38407E+06
 0.95872002E+02  0.39102E+06
 0.95922005E+02  0.40679E+06
 0.95972008E+02  0.42086E+06
 0.96022003E+02  0.42474E+06
 0.96072006E+02  0.41728E+06
 0.96122002E+02  0.39760E+06
 0.96172005E+02  0.37188E+06
 0.96222008E+02  0.34961E+06
 0.96272003E+02  0.33903E+06
 0.96322006E+02  0.34240E+06
 0.96372002E+02  0.35288E+06
 0.96422005E+02  0.36359E+06
 0.96472008E+02  0.37215E+06
 0.96522003E+02  0.38054E+06
 0.96572006E+02  0.39218E+06
 0.96622002E+02  0.40652E+06
 0.96672005E+02  0.42105E+06
 0.96722008E+02  0.43478E+06
 0.96772003E+02  0.44526E+06
 0.96822006E+02  0.45083E+06
 0.96872002E+02  0.45507E+06
 0.96922005E+02  0.46316E+06
 0.96972008E+02  0.48079E+06
 0.97022003E+02  0.50941E+06
 0.97072006E+02  0.54231E+06
 0.97122002E+02  0.57017E+06
 0.97172005E+02  0.58197E+06
 0.97222008E+02  0.57409E+06
 0.97272003E+02  0.55439E+06
 0.97322006E+02  0.53089E+06
 0.97372002E+02  0.51355E+06
 0.97422005E+02  0.51062E+06
 0.97472008E+02  0.52188E+06
 0.97522003E+02  0.54409E+06
 0.97572006E+02  0.56968E+06
 0.97622002E+02  0.58608E+06
 0.97672005E+02  0.58362E+06
 0.97722008E+02  0.56110E+06
 0.97772003E+02  0.52404E+06
 0.97822006E+02  0.48171E+06
 0.97872002E+02  0.44558E+06
 0.97922005E+02  0.42788E+06
 0.97972008E+02  0.43248E+06
 0.98022003E+02  0.44758E+06
