-0.20000000E+01 -0.26625E+01
-0.19500000E+01  0.73036E+01
-0.19000000E+01  0.73928E+01
-0.18500000E+01  0.27995E+02
-0.18000000E+01  0.57403E+01
-0.17500000E+01  0.15240E+02
-0.17000000E+01 -0.46068E+01
-0.16500001E+01 -0.15692E+02
-0.16000000E+01  0.63815E+00
-0.15500000E+01 -0.19807E+02
-0.15000000E+01 -0.84384E+01
-0.14500000E+01 -0.10277E+02
-0.14000001E+01 -0.14544E+02
-0.13500000E+01 -0.74544E+01
-0.13000001E+01 -0.42638E+01
-0.12500000E+01 -0.73614E+01
-0.12000000E+01 -0.36981E+01
-0.11500001E+01  0.15223E+02
-0.11000000E+01  0.20128E+02
-0.10500001E+01  0.29134E+02
-0.10000000E+01  0.21146E+02
-0.95000005E+00  0.51910E+01
-0.90000010E+00 -0.59250E+01
-0.85000002E+00 -0.16924E+02
-0.80000007E+00 -0.16735E+02
-0.75000012E+00 -0.84132E+01
-0.70000005E+00  0.98746E+01
-0.65000010E+00  0.50558E+01
-0.60000014E+00  0.71337E+00
-0.55000007E+00 -0.29206E+01
-0.50000012E+00 -0.11806E+02
-0.45000005E+00 -0.88121E+01
-0.40000010E+00 -0.24452E+02
-0.35000014E+00 -0.26672E+02
-0.30000007E+00 -0.22052E+02
-0.25000012E+00 -0.11218E+02
-0.20000005E+00  0.12719E+01
-0.15000010E+00  0.58582E+01
-0.10000014E+00  0.16467E+02
-0.50000072E-01  0.42018E+01
-0.11920929E-06  0.96448E+01
 0.49999952E-01  0.11456E+02
 0.99999905E-01  0.12059E+02
 0.14999986E+00  0.13586E+02
 0.19999981E+00  0.33087E+02
 0.24999976E+00  0.23694E+02
 0.29999995E+00  0.27681E+02
 0.34999990E+00  0.36433E+02
 0.39999986E+00  0.32238E+02
 0.44999981E+00  0.50971E+02
 0.49999976E+00  0.34536E+02
 0.54999995E+00  0.43280E+02
 0.59999990E+00  0.26463E+02
 0.64999986E+00  0.18594E+02
 0.69999981E+00  0.16559E+02
 0.74999976E+00  0.13284E+00
 0.79999971E+00 -0.25931E+01
 0.84999990E+00 -0.29332E+02
 0.89999986E+00 -0.36518E+02
 0.94999981E+00 -0.55278E+02
 0.99999976E+00 -0.52587E+02
 0.10499997E+01 -0.44133E+02
 0.10999999E+01 -0.37876E+02
 0.11499999E+01 -0.29084E+02
 0.11999998E+01 -0.29445E+02
 0.12499998E+01 -0.19048E+02
 0.12999997E+01 -0.29940E+02
 0.13499999E+01 -0.18059E+02
 0.13999999E+01 -0.11205E+02
 0.14499998E+01 -0.85866E+01
 0.14999998E+01  0.32007E+01
 0.15499997E+01 -0.99258E+01
 0.15999999E+01 -0.40977E+01
 0.16499999E+01  0.94454E+00
 0.16999998E+01 -0.28583E+01
 0.17499998E+01  0.17528E+02
 0.17999997E+01  0.66405E+01
 0.18499997E+01  0.64158E+00
 0.18999999E+01 -0.29753E+01
 0.19499998E+01 -0.54985E+01
 0.19999998E+01  0.26857E+01
 0.20499997E+01 -0.11478E+02
 0.20999999E+01 -0.95575E+01
 0.21499996E+01 -0.14766E+02
 0.21999998E+01 -0.30126E+02
 0.22499995E+01 -0.14632E+02
 0.22999997E+01 -0.24009E+02
 0.23499999E+01 -0.38140E+02
 0.23999996E+01 -0.18804E+02
 0.24499998E+01 -0.39293E+02
 0.24999995E+01 -0.38917E+02
 0.25499997E+01 -0.17342E+02
 0.25999999E+01 -0.36481E+02
 0.26499996E+01 -0.15771E+02
 0.26999998E+01  0.13567E+01
 0.27499995E+01 -0.21243E+02
 0.27999997E+01  0.17973E+02
 0.28499999E+01  0.24689E+02
 0.28999996E+01  0.37544E+01
 0.29499998E+01  0.37584E+02
 0.29999995E+01  0.28132E+02
 0.30499997E+01  0.22076E+02
 0.30999999E+01  0.51099E+02
 0.31499996E+01  0.22593E+02
 0.31999998E+01  0.24602E+02
 0.32499995E+01  0.48811E+02
 0.32999997E+01  0.35233E+02
 0.33499999E+01  0.29075E+02
 0.33999996E+01  0.32157E+02
 0.34499998E+01 -0.91290E+00
 0.34999995E+01 -0.88472E+00
 0.35499997E+01  0.22959E+02
 0.35999994E+01 -0.23000E+02
 0.36499996E+01  0.10897E+02
 0.36999998E+01  0.14560E+02
 0.37499995E+01 -0.19683E+02
 0.37999997E+01  0.27423E+02
 0.38499994E+01 -0.11199E+02
 0.38999996E+01 -0.30389E+02
 0.39499998E+01  0.38118E+01
 0.39999995E+01 -0.35619E+02
 0.40499997E+01 -0.48147E+02
 0.40999994E+01 -0.10016E+02
 0.41499996E+01 -0.51407E+02
 0.41999998E+01 -0.45798E+02
 0.42499995E+01 -0.11697E+02
 0.42999997E+01 -0.38148E+02
 0.43499994E+01 -0.27354E+02
 0.43999996E+01  0.45546E+01
 0.44499998E+01 -0.24667E+02
 0.44999995E+01 -0.11995E+02
 0.45499997E+01  0.17773E+02
 0.45999994E+01 -0.26268E+02
 0.46499996E+01  0.36942E+01
 0.46999998E+01  0.58076E+01
 0.47499995E+01 -0.18996E+02
 0.47999997E+01  0.88568E+01
 0.48499994E+01  0.32141E+02
 0.48999996E+01  0.43104E+01
 0.49499998E+01  0.26112E+02
 0.49999995E+01  0.35438E+02
 0.50499997E+01 -0.22251E+01
 0.50999994E+01  0.28849E+02
 0.51499996E+01  0.15107E+02
 0.51999998E+01 -0.86863E+01
 0.52499995E+01  0.16185E+02
 0.52999997E+01  0.74935E+01
 0.53499994E+01 -0.55657E+01
 0.53999996E+01  0.12229E+02
 0.54499993E+01  0.10026E+02
 0.54999995E+01 -0.12397E+02
 0.55499997E+01  0.95797E+00
 0.55999994E+01 -0.20382E+01
 0.56499996E+01 -0.41943E+02
 0.56999993E+01 -0.16699E+02
 0.57499995E+01 -0.82943E+01
 0.57999997E+01 -0.23542E+02
 0.58499994E+01  0.26180E+01
 0.58999996E+01  0.11355E+02
 0.59499993E+01 -0.11498E+02
 0.59999995E+01  0.73883E+01
 0.60499992E+01  0.21960E+02
 0.60999994E+01 -0.80215E+00
 0.61499996E+01  0.87222E+01
 0.61999998E+01  0.19947E+02
 0.62499990E+01 -0.88807E+01
 0.62999992E+01  0.47977E+01
 0.63499994E+01  0.30479E+02
 0.63999996E+01  0.70332E+01
 0.64499998E+01  0.13964E+02
 0.64999990E+01  0.36669E+02
 0.65499992E+01  0.84503E+01
 0.65999994E+01 -0.14803E+01
 0.66499996E+01  0.27105E+02
 0.66999998E+01 -0.61838E+01
 0.67499990E+01 -0.36043E+01
 0.67999992E+01  0.20631E+02
 0.68499994E+01  0.48128E+01
 0.68999996E+01 -0.23415E+01
 0.69499998E+01  0.17714E+02
 0.69999990E+01  0.11474E+02
 0.70499992E+01 -0.25145E+02
 0.70999994E+01  0.61445E+01
 0.71499996E+01 -0.63195E+01
 0.71999998E+01 -0.29566E+02
 0.72499990E+01 -0.37766E+01
 0.72999992E+01 -0.30080E+01
 0.73499994E+01 -0.20916E+02
 0.73999996E+01 -0.19698E+02
 0.74499998E+01 -0.67216E+01
 0.74999990E+01 -0.35090E+02
 0.75499992E+01 -0.15491E+02
 0.75999994E+01  0.41891E+01
 0.76499996E+01 -0.20186E+02
 0.76999998E+01 -0.90044E+01
 0.77499990E+01 -0.11861E+01
 0.77999992E+01 -0.28068E+02
 0.78499994E+01 -0.34934E+02
 0.78999996E+01 -0.96046E+01
 0.79499998E+01 -0.18609E+02
 0.79999990E+01 -0.32562E+02
 0.80499992E+01 -0.50519E+01
 0.80999994E+01 -0.12691E+02
 0.81499996E+01 -0.17906E+02
 0.81999998E+01  0.15418E+02
 0.82499990E+01  0.45879E+01
 0.82999992E+01 -0.14299E+02
 0.83499994E+01 -0.36039E+01
 0.83999996E+01  0.39740E+01
 0.84499998E+01 -0.18339E+02
 0.84999990E+01 -0.10257E+02
 0.85499992E+01  0.38163E+01
 0.85999994E+01 -0.92721E+01
 0.86499996E+01 -0.85264E+00
 0.86999998E+01  0.10497E+02
 0.87499990E+01 -0.10081E+02
 0.87999992E+01 -0.10050E+02
 0.88499994E+01  0.18647E+02
 0.88999996E+01  0.87577E+01
 0.89499998E+01 -0.15401E+02
 0.89999990E+01  0.10563E+02
 0.90499992E+01 -0.11179E+02
 0.90999994E+01 -0.32370E+02
 0.91499996E+01 -0.12955E+02
 0.91999989E+01 -0.24821E+02
 0.92499990E+01 -0.43195E+02
 0.92999992E+01 -0.32058E+02
 0.93499994E+01 -0.25446E+01
 0.93999996E+01 -0.26733E+02
 0.94499989E+01 -0.10094E+02
 0.94999990E+01 -0.50103E+01
 0.95499992E+01 -0.13267E+02
 0.95999994E+01 -0.92030E+01
 0.96499996E+01  0.28318E+02
 0.96999989E+01  0.14332E+02
 0.97499990E+01  0.26521E+01
 0.97999992E+01  0.25004E+02
 0.98499994E+01  0.59549E+01
 0.98999996E+01  0.75667E+01
 0.99499989E+01  0.45853E+02
 0.99999990E+01  0.57219E+02
 0.10049999E+02  0.20191E+02
 0.10099999E+02  0.44998E+02
 0.10150000E+02  0.34170E+02
 0.10199999E+02  0.38545E+01
 0.10249999E+02  0.30104E+02
 0.10299999E+02  0.52941E+02
 0.10349999E+02  0.10923E+02
 0.10400000E+02 -0.65693E+01
 0.10449999E+02  0.87322E+01
 0.10499999E+02  0.37801E+01
 0.10549999E+02 -0.11296E+02
 0.10599999E+02  0.13923E+01
 0.10650000E+02  0.27733E+02
 0.10699999E+02 -0.14710E+02
 0.10749999E+02 -0.27763E+02
 0.10799999E+02 -0.96100E+01
 0.10849999E+02  0.38037E+01
 0.10900000E+02 -0.10240E+02
 0.10949999E+02 -0.11266E+02
 0.10999999E+02  0.16924E+02
 0.11049999E+02 -0.16679E+02
 0.11099999E+02 -0.36140E+02
 0.11150000E+02 -0.58909E+01
 0.11199999E+02  0.13839E+02
 0.11249999E+02  0.13314E+02
 0.11299999E+02 -0.85632E+00
 0.11349999E+02 -0.14759E+02
 0.11400000E+02 -0.11525E+02
 0.11449999E+02 -0.24453E+02
 0.11499999E+02 -0.15369E+02
 0.11549999E+02 -0.43029E+01
 0.11599999E+02 -0.15951E+01
 0.11650000E+02 -0.22943E+02
 0.11699999E+02 -0.42324E+02
 0.11749999E+02 -0.48783E+02
 0.11799999E+02 -0.25027E+02
 0.11849999E+02 -0.37458E+01
 0.11900000E+02 -0.10445E+02
 0.11949999E+02 -0.24849E+02
 0.11999999E+02 -0.41568E+02
 0.12049999E+02 -0.17349E+02
 0.12099999E+02 -0.13271E+02
 0.12150000E+02 -0.68229E+01
 0.12199999E+02 -0.74387E+00
 0.12249999E+02  0.14895E+02
 0.12299999E+02  0.40145E+01
 0.12349999E+02 -0.47225E+01
 0.12400000E+02 -0.62202E+01
 0.12449999E+02  0.14226E+02
 0.12499999E+02  0.26700E+02
 0.12549999E+02  0.97511E+01
 0.12599999E+02  0.13228E+02
 0.12649999E+02  0.15524E+02
 0.12699999E+02  0.23527E+02
 0.12749999E+02  0.14737E+02
 0.12799999E+02  0.19920E+02
 0.12849999E+02  0.37248E+02
 0.12899999E+02  0.32498E+02
 0.12949999E+02  0.48478E+01
 0.12999999E+02 -0.11498E+02
 0.13049999E+02  0.10114E+02
 0.13099999E+02  0.81547E+01
 0.13149999E+02 -0.54141E+01
 0.13199999E+02 -0.14517E+02
 0.13249999E+02 -0.53160E+01
 0.13299999E+02 -0.14321E+02
 0.13349999E+02 -0.32089E+02
 0.13399999E+02  0.16357E+01
 0.13449999E+02  0.11540E+02
 0.13499999E+02  0.51442E+01
 0.13549999E+02 -0.16893E+02
 0.13599999E+02 -0.89097E+00
 0.13649999E+02  0.91098E+01
 0.13699999E+02 -0.80278E+01
 0.13749999E+02 -0.16908E+01
 0.13799999E+02 -0.22922E+01
 0.13849999E+02 -0.19755E+02
 0.13899999E+02 -0.38560E+02
 0.13949999E+02 -0.18904E+02
 0.13999999E+02 -0.66149E+01
 0.14049999E+02 -0.21076E+02
 0.14099998E+02 -0.19340E+02
 0.14150000E+02  0.14099E+02
 0.14199999E+02  0.59111E+01
 0.14249998E+02 -0.10712E+02
 0.14299999E+02 -0.16364E+02
 0.14349998E+02 -0.45383E+01
 0.14400000E+02  0.19741E+01
 0.14449999E+02 -0.11878E+02
 0.14499998E+02  0.76213E+01
 0.14549999E+02  0.10467E+02
 0.14599998E+02 -0.58752E+00
 0.14650000E+02 -0.16546E+02
 0.14699999E+02 -0.20552E+01
 0.14749998E+02  0.33642E+02
 0.14799999E+02  0.18409E+02
 0.14849998E+02  0.64237E-01
 0.14900000E+02 -0.22757E+02
 0.14949999E+02 -0.21391E+02
 0.14999998E+02  0.96807E+00
 0.15049999E+02 -0.43748E+01
 0.15099998E+02  0.47901E+01
 0.15150000E+02 -0.65329E+01
 0.15199999E+02  0.26929E+01
 0.15249998E+02  0.30329E+01
 0.15299999E+02 -0.43881E+01
 0.15349998E+02  0.46742E+01
 0.15400000E+02  0.84407E+01
 0.15449999E+02  0.30139E+02
 0.15499998E+02  0.26731E+02
 0.15549999E+02  0.21425E+02
 0.15599998E+02  0.67793E+01
 0.15650000E+02  0.18513E+02
 0.15699999E+02  0.23939E+02
 0.15749998E+02  0.33521E+00
 0.15799999E+02  0.52696E+01
 0.15849998E+02 -0.11458E+02
 0.15900000E+02  0.23351E+01
 0.15949999E+02 -0.13239E+02
 0.15999998E+02 -0.27756E+02
 0.16049999E+02 -0.24908E+02
 0.16099998E+02 -0.15364E+02
 0.16150000E+02 -0.18821E+01
 0.16199999E+02 -0.46807E+01
 0.16249998E+02  0.33661E+01
 0.16299999E+02 -0.10012E+02
 0.16349998E+02  0.23607E+01
 0.16400000E+02  0.82339E+01
 0.16449999E+02  0.13585E+02
 0.16499998E+02  0.60549E+01
 0.16549999E+02 -0.80498E+01
 0.16599998E+02  0.68375E+01
 0.16650000E+02  0.84769E+01
 0.16699999E+02  0.24959E+02
 0.16749998E+02  0.16107E+02
 0.16799999E+02  0.87467E+01
 0.16849998E+02  0.57971E+01
 0.16900000E+02 -0.65190E+01
 0.16949999E+02  0.63839E+01
 0.16999998E+02 -0.46408E+01
 0.17049999E+02  0.44523E+01
 0.17099998E+02 -0.19348E+02
 0.17150000E+02 -0.16350E+02
 0.17199999E+02 -0.43697E+00
 0.17249998E+02  0.69479E+01
 0.17299999E+02  0.27042E+02
 0.17349998E+02  0.18249E+02
 0.17400000E+02  0.21677E+02
 0.17449999E+02  0.12814E+02
 0.17499998E+02 -0.24307E+01
 0.17549999E+02 -0.19399E+01
 0.17599998E+02 -0.11775E+02
 0.17650000E+02 -0.13806E+02
 0.17699999E+02 -0.12600E+02
 0.17749998E+02 -0.31007E+02
 0.17799999E+02 -0.26685E+02
 0.17849998E+02 -0.34159E+02
 0.17900000E+02 -0.30958E+02
 0.17949999E+02 -0.30820E+02
 0.17999998E+02 -0.30717E+02
 0.18049999E+02 -0.23829E+02
 0.18099998E+02 -0.31718E+02
 0.18150000E+02 -0.36279E+02
 0.18199999E+02 -0.37691E+02
 0.18249998E+02 -0.21487E+02
 0.18299999E+02 -0.21258E+02
 0.18349998E+02 -0.19981E+02
 0.18400000E+02 -0.11973E+02
 0.18449999E+02 -0.18337E+02
 0.18499998E+02 -0.48560E+01
 0.18549999E+02  0.59674E+01
 0.18599998E+02  0.18228E+02
 0.18650000E+02  0.24328E+02
 0.18699999E+02  0.81966E+01
 0.18749998E+02 -0.55210E+00
 0.18799999E+02 -0.57966E+01
 0.18849998E+02  0.46877E+01
 0.18900000E+02  0.10262E+02
 0.18949999E+02 -0.37981E+01
 0.18999998E+02 -0.20210E+02
 0.19049999E+02 -0.14983E+02
 0.19099998E+02  0.20889E+01
 0.19150000E+02  0.15262E+02
 0.19199999E+02  0.15879E+02
 0.19249998E+02  0.67843E+01
 0.19299999E+02  0.12454E+02
 0.19349998E+02  0.14613E+02
 0.19400000E+02  0.28652E+02
 0.19449999E+02  0.30484E+02
 0.19499998E+02  0.24876E+02
 0.19549999E+02  0.21128E+02
 0.19599998E+02  0.47008E+01
 0.19650000E+02  0.25242E+01
 0.19699999E+02 -0.83289E+01
 0.19749998E+02 -0.16123E+02
 0.19799999E+02 -0.16688E+02
 0.19849998E+02 -0.12939E+02
 0.19900000E+02 -0.18552E+01
 0.19949999E+02 -0.93827E+01
 0.19999998E+02 -0.12447E+02
 0.20049999E+02  0.21997E+01
 0.20099998E+02 -0.70693E+01
 0.20150000E+02  0.11369E+02
 0.20199999E+02  0.12519E+02
 0.20249998E+02  0.95234E+01
 0.20299999E+02  0.13035E+02
 0.20349998E+02  0.64147E+01
 0.20399998E+02  0.17585E+02
 0.20449999E+02  0.95559E+01
 0.20499998E+02  0.36452E+01
 0.20549999E+02 -0.28426E+01
 0.20599998E+02  0.59491E+01
 0.20649998E+02 -0.50289E+01
 0.20699999E+02 -0.83638E+01
 0.20749998E+02 -0.10354E+02
 0.20799999E+02 -0.22297E+02
 0.20849998E+02  0.16847E+01
 0.20899998E+02 -0.21115E+01
 0.20949999E+02 -0.11219E+02
 0.20999998E+02 -0.36153E+01
 0.21049999E+02 -0.19052E+02
 0.21099998E+02  0.20574E+02
 0.21149998E+02  0.28082E+02
 0.21199999E+02 -0.19156E+02
 0.21249998E+02  0.61586E+02
 0.21299999E+02  0.29001E+02
 0.21349998E+02  0.10231E+02
 0.21399998E+02  0.13736E+03
 0.21449999E+02  0.51299E+02
 0.21499998E+02  0.18952E+02
 0.21549999E+02  0.48060E+02
 0.21599998E+02 -0.97040E+02
 0.21649998E+02 -0.98481E+01
 0.21699999E+02  0.22127E+03
 0.21749998E+02  0.10916E+03
 0.21799999E+02  0.10994E+03
 0.21849998E+02 -0.10455E+03
 0.21899998E+02 -0.36686E+03
 0.21949999E+02 -0.24478E+03
 0.21999998E+02 -0.31865E+02
 0.22049999E+02  0.43714E+03
 0.22099998E+02  0.45459E+03
 0.22149998E+02  0.97881E+02
 0.22199999E+02  0.15734E+03
 0.22249998E+02  0.32450E+03
 0.22299999E+02 -0.52893E+02
 0.22349998E+02 -0.48684E+03
 0.22399998E+02  0.44358E+03
 0.22449999E+02  0.19665E+03
 0.22499998E+02  0.61551E+03
 0.22549999E+02  0.63912E+03
 0.22599998E+02 -0.88064E+02
 0.22649998E+02 -0.13522E+04
 0.22699999E+02 -0.31459E+04
 0.22749998E+02 -0.56182E+03
 0.22799999E+02  0.91843E+03
 0.22849998E+02  0.18428E+04
 0.22899998E+02 -0.50216E+03
 0.22949999E+02 -0.83707E+03
 0.22999998E+02 -0.22691E+04
 0.23049999E+02 -0.20580E+04
 0.23099998E+02  0.17459E+04
 0.23149998E+02  0.16408E+04
 0.23199999E+02  0.15796E+04
 0.23249998E+02 -0.28892E+04
 0.23299999E+02 -0.13812E+04
 0.23349998E+02  0.11444E+04
 0.23399998E+02 -0.13875E+02
 0.23449999E+02  0.67617E+03
 0.23499998E+02 -0.49170E+03
 0.23549999E+02 -0.15114E+04
 0.23599998E+02  0.14393E+04
 0.23649998E+02  0.24918E+04
 0.23699999E+02  0.84751E+03
 0.23749998E+02 -0.57365E+02
 0.23799999E+02  0.46804E+02
 0.23849998E+02  0.22204E+04
 0.23899998E+02  0.59766E+03
 0.23949999E+02 -0.45993E+03
 0.23999998E+02  0.91233E+02
 0.24049999E+02 -0.22711E+04
 0.24099998E+02  0.15104E+04
 0.24149998E+02  0.26389E+04
 0.24199999E+02 -0.12191E+04
 0.24249998E+02 -0.22747E+04
 0.24299999E+02  0.35031E+03
 0.24349998E+02  0.87413E+03
 0.24399998E+02  0.22435E+04
 0.24449999E+02  0.87923E+03
 0.24499998E+02  0.13687E+04
 0.24549999E+02 -0.19780E+04
 0.24599998E+02 -0.57311E+04
 0.24649998E+02  0.26880E+04
 0.24699999E+02  0.24850E+04
 0.24749998E+02  0.13379E+04
 0.24799999E+02 -0.41261E+04
 0.24849998E+02 -0.37808E+04
 0.24899998E+02 -0.62971E+03
 0.24949999E+02  0.30387E+03
 0.24999998E+02 -0.40784E+04
 0.25049999E+02 -0.59122E+03
 0.25099998E+02 -0.28981E+03
 0.25149998E+02 -0.29129E+04
 0.25199999E+02 -0.30767E+03
 0.25249998E+02  0.30677E+04
 0.25299999E+02  0.90884E+04
 0.25349998E+02 -0.20363E+04
 0.25399998E+02  0.22344E+02
 0.25449999E+02 -0.15559E+04
 0.25499998E+02  0.36495E+04
 0.25549999E+02  0.15598E+04
 0.25599998E+02 -0.59767E+02
 0.25649998E+02  0.34545E+04
 0.25699999E+02 -0.46514E+04
 0.25749998E+02 -0.54632E+04
 0.25799999E+02  0.13417E+04
 0.25849998E+02  0.43640E+04
 0.25899998E+02 -0.23839E+04
 0.25949999E+02  0.21387E+04
 0.25999998E+02 -0.11636E+04
 0.26049999E+02 -0.27719E+04
 0.26099998E+02  0.21873E+04
 0.26149998E+02  0.15751E+04
 0.26199999E+02 -0.58649E+04
 0.26249998E+02  0.53430E+04
 0.26299999E+02  0.95739E+03
 0.26349998E+02 -0.46668E+04
 0.26399998E+02  0.33028E+04
 0.26449999E+02  0.18072E+04
 0.26499998E+02  0.20965E+04
 0.26549999E+02 -0.72535E+04
 0.26599998E+02 -0.15442E+04
 0.26649998E+02  0.46803E+04
 0.26699999E+02  0.14029E+04
 0.26749998E+02 -0.22446E+03
 0.26799999E+02  0.17933E+03
 0.26849998E+02 -0.56671E+04
 0.26899998E+02 -0.21247E+03
 0.26949999E+02  0.54851E+04
 0.26999998E+02 -0.34381E+04
 0.27049997E+02  0.47750E+03
 0.27099998E+02 -0.19941E+04
 0.27149998E+02  0.19355E+04
 0.27199999E+02  0.49738E+04
 0.27249998E+02  0.11005E+04
 0.27299997E+02  0.20938E+04
 0.27349998E+02 -0.19000E+04
 0.27399998E+02 -0.15696E+04
 0.27449999E+02 -0.71007E+04
 0.27499998E+02 -0.47374E+04
 0.27549997E+02  0.63757E+04
 0.27599998E+02  0.27189E+04
 0.27649998E+02 -0.27395E+04
 0.27699999E+02  0.18789E+04
 0.27749998E+02  0.20310E+04
 0.27799997E+02  0.20555E+04
 0.27849998E+02 -0.14027E+04
 0.27899998E+02 -0.23346E+04
 0.27949999E+02 -0.26883E+02
 0.27999998E+02 -0.10838E+04
 0.28049997E+02  0.31633E+04
 0.28099998E+02  0.13705E+04
 0.28149998E+02 -0.46407E+04
 0.28199999E+02  0.38563E+04
 0.28249998E+02  0.42696E+04
 0.28299997E+02 -0.43341E+04
 0.28349998E+02 -0.12386E+04
 0.28399998E+02 -0.31496E+04
 0.28449999E+02  0.31751E+04
 0.28499998E+02 -0.40071E+04
 0.28549997E+02 -0.25437E+04
 0.28599998E+02  0.17303E+04
 0.28649998E+02  0.16197E+04
 0.28699999E+02  0.50672E+04
 0.28749998E+02 -0.30036E+04
 0.28799997E+02 -0.95366E+03
 0.28849998E+02 -0.37846E+04
 0.28899998E+02  0.98201E+03
 0.28949999E+02 -0.52497E+02
 0.28999998E+02  0.34038E+04
 0.29049997E+02  0.41966E+04
 0.29099998E+02 -0.61718E+03
 0.29149998E+02 -0.14029E+04
 0.29199999E+02 -0.26937E+04
 0.29249998E+02  0.50107E+02
 0.29299997E+02  0.45745E+04
 0.29349998E+02  0.94784E+03
 0.29399998E+02 -0.12470E+04
 0.29449999E+02  0.37480E+04
 0.29499998E+02 -0.36810E+04
 0.29549997E+02 -0.36454E+04
 0.29599998E+02 -0.29410E+04
 0.29649998E+02  0.16921E+04
 0.29699999E+02  0.11255E+04
 0.29749998E+02 -0.15961E+04
 0.29799997E+02  0.14016E+04
 0.29849998E+02 -0.67987E+03
 0.29899998E+02  0.19987E+04
 0.29949999E+02  0.36972E+04
 0.29999998E+02  0.63539E+03
 0.30049999E+02  0.10825E+03
 0.30099998E+02 -0.37906E+04
 0.30149998E+02 -0.12789E+04
 0.30199997E+02 -0.12556E+04
 0.30249996E+02  0.65024E+03
 0.30299999E+02  0.61789E+04
 0.30349998E+02  0.46259E+03
 0.30399998E+02 -0.71554E+03
 0.30449997E+02  0.15232E+04
 0.30499996E+02 -0.63909E+03
 0.30549999E+02 -0.57286E+04
 0.30599998E+02  0.93955E+03
 0.30649998E+02 -0.12498E+04
 0.30699997E+02  0.76199E+03
 0.30749996E+02  0.18798E+04
 0.30799999E+02 -0.19432E+04
 0.30849998E+02 -0.12563E+04
 0.30899998E+02 -0.27369E+04
 0.30949997E+02  0.12773E+03
 0.30999996E+02 -0.14792E+04
 0.31049999E+02  0.26930E+04
 0.31099998E+02  0.50498E+04
 0.31149998E+02  0.91971E+03
 0.31199997E+02 -0.14661E+04
 0.31249996E+02  0.10674E+04
 0.31299999E+02 -0.19999E+04
 0.31349998E+02  0.22147E+03
 0.31399998E+02  0.40047E+03
 0.31449997E+02 -0.27135E+04
 0.31499996E+02  0.83941E+03
 0.31549999E+02  0.13562E+04
 0.31599998E+02  0.17542E+04
 0.31649998E+02 -0.29161E+04
 0.31699997E+02 -0.14821E+04
 0.31749996E+02  0.10286E+04
 0.31799999E+02  0.85873E+03
 0.31849998E+02  0.50825E+03
 0.31899998E+02 -0.54116E+03
 0.31949997E+02 -0.20875E+04
 0.31999996E+02 -0.15776E+04
 0.32049999E+02  0.37444E+03
 0.32099998E+02 -0.94065E+03
 0.32149998E+02  0.53312E+03
 0.32199997E+02 -0.62469E+03
 0.32249996E+02  0.31424E+04
 0.32299999E+02  0.10446E+04
 0.32349998E+02 -0.13192E+04
 0.32399998E+02  0.14572E+04
 0.32449997E+02 -0.18361E+04
 0.32499996E+02 -0.48426E+01
 0.32549999E+02  0.11830E+04
 0.32599998E+02  0.23175E+03
 0.32649998E+02  0.28187E+04
 0.32699997E+02  0.21374E+03
 0.32749996E+02 -0.52814E+04
 0.32799999E+02 -0.23324E+04
 0.32849998E+02  0.55774E+03
 0.32899998E+02 -0.82956E+03
 0.32949997E+02 -0.25816E+04
 0.32999996E+02 -0.24265E+04
 0.33049999E+02 -0.22263E+03
 0.33099998E+02  0.37071E+04
 0.33149998E+02  0.22581E+04
 0.33199997E+02  0.57057E+03
 0.33249996E+02  0.64282E+02
 0.33299999E+02 -0.72333E+03
 0.33349998E+02  0.12649E+04
 0.33399998E+02  0.25851E+04
 0.33449997E+02  0.12631E+04
 0.33499996E+02  0.12244E+04
 0.33549999E+02  0.13471E+04
 0.33599998E+02  0.95199E+03
 0.33649998E+02  0.48773E+03
 0.33699997E+02 -0.19725E+04
 0.33749996E+02 -0.29599E+04
 0.33799999E+02 -0.26310E+04
 0.33849998E+02 -0.10667E+04
 0.33899998E+02 -0.15449E+04
 0.33949997E+02  0.10994E+04
 0.33999996E+02  0.77772E+03
 0.34049999E+02 -0.15007E+04
 0.34099998E+02 -0.13844E+04
 0.34149998E+02 -0.88423E+03
 0.34199997E+02 -0.87129E+03
 0.34249996E+02  0.12455E+03
 0.34299999E+02  0.19586E+04
 0.34349998E+02  0.38190E+04
 0.34399998E+02  0.95752E+03
 0.34449997E+02 -0.30658E+04
 0.34499996E+02 -0.73557E+03
 0.34549999E+02 -0.40587E+03
 0.34599998E+02  0.79371E+03
 0.34649998E+02 -0.22003E+03
 0.34699997E+02  0.21545E+04
 0.34749996E+02  0.43043E+04
 0.34799999E+02 -0.11781E+04
 0.34849998E+02 -0.43238E+03
 0.34899998E+02 -0.62175E+03
 0.34949997E+02 -0.81929E+03
 0.34999996E+02 -0.25206E+04
 0.35049999E+02 -0.29110E+04
 0.35099998E+02  0.33012E+04
 0.35149998E+02  0.53181E+03
 0.35199997E+02  0.28933E+03
 0.35249996E+02  0.55849E+03
 0.35299999E+02  0.86169E+03
 0.35349998E+02  0.10040E+04
 0.35399998E+02 -0.39566E+04
 0.35449997E+02 -0.21515E+04
 0.35499996E+02  0.44364E+03
 0.35549999E+02  0.23549E+04
 0.35599998E+02  0.90800E+03
 0.35649998E+02 -0.12937E+03
 0.35699997E+02  0.12799E+04
 0.35749996E+02 -0.17079E+04
 0.35799999E+02 -0.10431E+03
 0.35849998E+02  0.10522E+02
 0.35899998E+02  0.23552E+04
 0.35949997E+02 -0.15905E+04
 0.35999996E+02  0.13016E+04
 0.36049999E+02  0.55092E+04
 0.36099998E+02 -0.18063E+04
 0.36149998E+02  0.27932E+04
 0.36199997E+02  0.79524E+03
 0.36249996E+02 -0.22946E+04
 0.36299999E+02 -0.53370E+03
 0.36349998E+02  0.53294E+02
 0.36399998E+02 -0.36170E+04
 0.36449997E+02 -0.28264E+04
 0.36499996E+02 -0.12027E+03
 0.36549999E+02 -0.28877E+03
 0.36599998E+02 -0.10975E+03
 0.36649998E+02  0.51522E+03
 0.36699997E+02  0.14717E+04
 0.36749996E+02  0.24902E+03
 0.36799999E+02 -0.98469E+03
 0.36849998E+02 -0.24859E+04
 0.36899998E+02 -0.15260E+04
 0.36949997E+02 -0.21138E+03
 0.36999996E+02  0.13362E+04
 0.37049999E+02 -0.17524E+04
 0.37099998E+02  0.12030E+04
 0.37149998E+02  0.19023E+04
 0.37199997E+02 -0.16447E+04
 0.37249996E+02 -0.25120E+03
 0.37299999E+02 -0.50604E+02
 0.37349998E+02  0.75255E+03
 0.37399998E+02  0.69528E+03
 0.37449997E+02  0.15784E+04
 0.37499996E+02  0.11470E+04
 0.37549999E+02  0.53822E+04
 0.37599998E+02  0.29525E+04
 0.37649998E+02 -0.28360E+04
 0.37699997E+02  0.88871E+03
 0.37749996E+02  0.38050E+03
 0.37799999E+02 -0.18423E+03
 0.37849998E+02 -0.20983E+04
 0.37899998E+02 -0.25478E+04
 0.37949997E+02 -0.33731E+03
 0.37999996E+02 -0.13013E+04
 0.38049999E+02 -0.49676E+03
 0.38099998E+02  0.18987E+03
 0.38149998E+02 -0.15546E+03
 0.38199997E+02  0.11313E+04
 0.38249996E+02  0.19647E+04
 0.38299999E+02 -0.26132E+03
 0.38349998E+02 -0.37383E+02
 0.38399998E+02 -0.67808E+02
 0.38449997E+02 -0.12805E+04
 0.38499996E+02  0.15168E+04
 0.38549999E+02 -0.32783E+03
 0.38599998E+02 -0.11554E+04
 0.38649998E+02  0.19119E+04
 0.38699997E+02 -0.93896E+03
 0.38749996E+02 -0.31635E+04
 0.38799999E+02 -0.20129E+04
 0.38849998E+02 -0.10502E+04
 0.38899998E+02 -0.10902E+04
 0.38949997E+02 -0.16000E+04
 0.38999996E+02  0.15019E+04
 0.39049999E+02  0.36641E+04
 0.39099998E+02  0.49549E+03
 0.39149998E+02 -0.12764E+04
 0.39199997E+02 -0.15184E+04
 0.39249996E+02 -0.97316E+03
 0.39299999E+02  0.80389E+03
 0.39349998E+02 -0.12320E+04
 0.39399998E+02 -0.19543E+04
 0.39449997E+02  0.16817E+04
 0.39499996E+02  0.14046E+04
 0.39549999E+02  0.28251E+04
 0.39599998E+02  0.31872E+04
 0.39649998E+02 -0.67244E+03
 0.39699997E+02 -0.68202E+03
 0.39749996E+02 -0.31797E+03
 0.39799999E+02  0.62612E+02
 0.39849998E+02  0.12918E+04
 0.39899998E+02 -0.11336E+04
 0.39949997E+02 -0.13630E+04
 0.39999996E+02 -0.10136E+03
 0.40049999E+02  0.19533E+04
 0.40099998E+02  0.44402E+04
 0.40149998E+02  0.56939E+03
 0.40199997E+02 -0.34613E+04
 0.40249996E+02 -0.37367E+04
 0.40299999E+02 -0.17802E+04
 0.40349998E+02 -0.11995E+04
 0.40399998E+02 -0.82570E+03
 0.40449997E+02 -0.12543E+04
 0.40499996E+02  0.14676E+04
 0.40549999E+02  0.33992E+04
 0.40599998E+02  0.19467E+04
 0.40649998E+02  0.17697E+04
 0.40699997E+02  0.10977E+04
 0.40749996E+02  0.39738E+04
 0.40799999E+02  0.70096E+04
 0.40849998E+02  0.19613E+04
 0.40899998E+02 -0.73198E+04
 0.40949997E+02 -0.15758E+05
 0.40999996E+02 -0.12350E+05
 0.41049999E+02  0.29859E+04
 0.41099998E+02  0.10365E+05
 0.41149998E+02  0.10346E+05
 0.41199997E+02  0.57712E+04
 0.41249996E+02 -0.42728E+03
 0.41299999E+02 -0.85343E+03
 0.41349998E+02 -0.32795E+04
 0.41399998E+02 -0.79237E+04
 0.41449997E+02 -0.63908E+04
 0.41499996E+02 -0.62736E+04
 0.41549999E+02 -0.42022E+04
 0.41599998E+02  0.53181E+04
 0.41649998E+02  0.79811E+04
 0.41699997E+02  0.22009E+04
 0.41749996E+02  0.64323E+03
 0.41799999E+02  0.59682E+04
 0.41849998E+02  0.13313E+05
 0.41899998E+02  0.95437E+04
 0.41949997E+02 -0.75500E+04
 0.41999996E+02 -0.19220E+05
 0.42049999E+02 -0.13713E+05
 0.42099998E+02 -0.31544E+04
 0.42149998E+02  0.17086E+04
 0.42199997E+02  0.60668E+04
 0.42249996E+02  0.50590E+04
 0.42299999E+02 -0.50499E+03
 0.42349998E+02  0.37349E+04
 0.42399998E+02  0.88338E+04
 0.42449997E+02  0.19032E+04
 0.42499996E+02 -0.59183E+04
 0.42549999E+02 -0.10032E+05
 0.42599998E+02 -0.61984E+04
 0.42649998E+02  0.43323E+04
 0.42699997E+02  0.36634E+04
 0.42749996E+02 -0.17314E+03
 0.42799995E+02  0.31845E+04
 0.42849998E+02  0.33250E+04
 0.42899998E+02  0.23893E+04
 0.42949997E+02 -0.74238E+03
 0.42999996E+02 -0.61629E+04
 0.43049995E+02 -0.44780E+04
 0.43099998E+02 -0.18677E+04
 0.43149998E+02 -0.40028E+04
 0.43199997E+02  0.12756E+04
 0.43249996E+02  0.85601E+04
 0.43299995E+02  0.60567E+04
 0.43349998E+02  0.23019E+04
 0.43399998E+02  0.37838E+04
 0.43449997E+02  0.27300E+04
 0.43499996E+02 -0.16833E+04
 0.43549995E+02 -0.44541E+03
 0.43599998E+02 -0.81442E+03
 0.43649998E+02 -0.14446E+04
 0.43699997E+02 -0.11078E+04
 0.43749996E+02 -0.19731E+04
 0.43799995E+02  0.35794E+03
 0.43849998E+02  0.28867E+03
 0.43899998E+02  0.52137E+03
 0.43949997E+02  0.16586E+04
 0.43999996E+02 -0.20942E+03
 0.44049995E+02 -0.32475E+04
 0.44099998E+02 -0.55974E+04
 0.44149998E+02 -0.62925E+04
 0.44199997E+02 -0.48797E+04
 0.44249996E+02 -0.16662E+04
 0.44299995E+02 -0.43648E+03
 0.44349998E+02  0.20087E+04
 0.44399998E+02  0.86549E+04
 0.44449997E+02  0.89065E+04
 0.44499996E+02  0.54175E+04
 0.44549995E+02  0.16476E+04
 0.44599998E+02 -0.59474E+04
 0.44649998E+02 -0.39063E+04
 0.44699997E+02  0.92695E+03
 0.44749996E+02 -0.24135E+04
 0.44799995E+02 -0.21315E+04
 0.44849998E+02  0.42214E+04
 0.44899998E+02  0.69838E+04
 0.44949997E+02  0.34948E+04
 0.44999996E+02 -0.22298E+04
 0.45049995E+02 -0.62210E+04
 0.45099998E+02 -0.53458E+04
 0.45149998E+02 -0.14828E+04
 0.45199997E+02 -0.91920E+02
 0.45249996E+02  0.10126E+03
 0.45299995E+02  0.13013E+04
 0.45349998E+02 -0.64636E+03
 0.45399998E+02  0.32241E+03
 0.45449997E+02 -0.50469E+03
 0.45499996E+02 -0.13507E+04
 0.45549995E+02  0.12604E+04
 0.45599998E+02  0.20881E+04
 0.45649998E+02  0.24287E+04
 0.45699997E+02  0.20065E+04
 0.45749996E+02  0.27403E+04
 0.45799995E+02  0.14904E+04
 0.45849998E+02 -0.29631E+04
 0.45899998E+02 -0.34811E+04
 0.45949997E+02 -0.73013E+03
 0.45999996E+02  0.19732E+03
 0.46049995E+02 -0.61051E+03
 0.46099998E+02 -0.17179E+04
 0.46149998E+02  0.15600E+04
 0.46199997E+02  0.75628E+04
 0.46249996E+02  0.92973E+04
 0.46299995E+02  0.45848E+04
 0.46349998E+02 -0.19001E+04
 0.46399998E+02 -0.69549E+04
 0.46449997E+02 -0.66791E+04
 0.46499996E+02 -0.41651E+04
 0.46549995E+02 -0.26552E+04
 0.46599998E+02  0.41593E+03
 0.46649998E+02  0.60204E+04
 0.46699997E+02  0.81398E+04
 0.46749996E+02  0.23851E+04
 0.46799995E+02 -0.45585E+04
 0.46849998E+02 -0.80927E+04
 0.46899998E+02 -0.52503E+04
 0.46949997E+02 -0.76828E+03
 0.46999996E+02  0.14426E+03
 0.47049995E+02  0.73878E+03
 0.47099998E+02 -0.96284E+03
 0.47149998E+02 -0.28950E+04
 0.47199997E+02 -0.32758E+04
 0.47249996E+02 -0.33779E+04
 0.47299995E+02 -0.14259E+04
 0.47349998E+02  0.29318E+04
 0.47399998E+02  0.34994E+04
 0.47449997E+02  0.13312E+04
 0.47499996E+02 -0.70964E+01
 0.47549995E+02 -0.98734E+03
 0.47599998E+02  0.18617E+04
 0.47649998E+02  0.33668E+04
 0.47699997E+02  0.25987E+04
 0.47749996E+02  0.13183E+04
 0.47799995E+02  0.15990E+04
 0.47849998E+02  0.15797E+04
 0.47899998E+02  0.67035E+03
 0.47949997E+02 -0.15685E+04
 0.47999996E+02 -0.21994E+04
 0.48049995E+02  0.10342E+04
 0.48099998E+02  0.35020E+04
 0.48149998E+02  0.20024E+04
 0.48199997E+02 -0.18564E+04
 0.48249996E+02 -0.19528E+04
 0.48299995E+02  0.47238E+03
 0.48349998E+02  0.10728E+04
 0.48399998E+02 -0.17649E+04
 0.48449997E+02 -0.29918E+04
 0.48499996E+02 -0.45178E+04
 0.48549995E+02 -0.18631E+04
 0.48599998E+02  0.83796E+03
 0.48649998E+02 -0.11851E+04
 0.48699997E+02  0.24851E+03
 0.48749996E+02  0.13542E+04
 0.48799995E+02  0.12100E+04
 0.48849998E+02  0.19238E+03
 0.48899998E+02 -0.21382E+03
 0.48949997E+02 -0.13135E+04
 0.48999996E+02 -0.93909E+03
 0.49049995E+02  0.46719E+03
 0.49099998E+02  0.18586E+04
 0.49149998E+02  0.38192E+04
 0.49199997E+02  0.25994E+04
 0.49249996E+02  0.99447E+02
 0.49299995E+02 -0.13225E+04
 0.49349998E+02 -0.14198E+04
 0.49399998E+02 -0.20381E+04
 0.49449997E+02 -0.33155E+04
 0.49499996E+02 -0.39060E+04
 0.49549995E+02 -0.40161E+04
 0.49599998E+02 -0.19997E+04
 0.49649998E+02  0.14169E+04
 0.49699997E+02  0.37678E+04
 0.49749996E+02  0.59357E+04
 0.49799995E+02  0.41121E+04
 0.49849998E+02  0.23846E+04
 0.49899998E+02  0.11172E+04
 0.49949997E+02 -0.36375E+04
 0.49999996E+02 -0.52635E+04
 0.50049995E+02 -0.44265E+04
 0.50099998E+02 -0.23731E+04
 0.50149998E+02  0.81745E+01
 0.50199997E+02 -0.22490E+02
 0.50249996E+02 -0.90251E+03
 0.50299995E+02 -0.46251E+03
 0.50349998E+02  0.89308E+03
 0.50399998E+02  0.24337E+04
 0.50449997E+02  0.27744E+04
 0.50499996E+02  0.11876E+04
 0.50549995E+02 -0.58964E+02
 0.50599998E+02  0.40464E+03
 0.50649998E+02  0.13829E+03
 0.50699997E+02  0.41396E+03
 0.50749996E+02  0.19120E+04
 0.50799995E+02  0.13588E+04
 0.50849998E+02  0.43798E+03
 0.50899998E+02  0.21115E+03
 0.50949997E+02 -0.75223E+03
 0.50999996E+02 -0.27052E+04
 0.51049995E+02 -0.30493E+04
 0.51099998E+02 -0.15416E+04
 0.51149998E+02 -0.49517E+02
 0.51199997E+02  0.12744E+04
 0.51249996E+02  0.14994E+04
 0.51299995E+02  0.57550E+03
 0.51349998E+02  0.10247E+04
 0.51399998E+02 -0.13943E+04
 0.51449997E+02 -0.30499E+04
 0.51499996E+02 -0.13850E+04
 0.51549995E+02 -0.21878E+04
 0.51599998E+02 -0.19718E+04
 0.51649998E+02 -0.13232E+03
 0.51699997E+02 -0.14605E+03
 0.51749996E+02 -0.96575E+03
 0.51799995E+02  0.61412E+03
 0.51849998E+02  0.21813E+04
 0.51899998E+02  0.29527E+04
 0.51949997E+02  0.30681E+04
 0.51999996E+02  0.40742E+04
 0.52049995E+02  0.43990E+04
 0.52099998E+02  0.31235E+04
 0.52149998E+02  0.27030E+04
 0.52199997E+02  0.10192E+04
 0.52249996E+02  0.98036E+03
 0.52299995E+02  0.14505E+04
 0.52349998E+02 -0.57747E+03
 0.52399998E+02 -0.28646E+04
 0.52449997E+02 -0.35170E+04
 0.52499996E+02 -0.34811E+04
 0.52549995E+02 -0.31294E+04
 0.52599998E+02 -0.22540E+04
 0.52649998E+02 -0.33333E+04
 0.52699997E+02 -0.51057E+04
 0.52749996E+02 -0.55660E+04
 0.52799995E+02 -0.39399E+04
 0.52849998E+02 -0.80075E+03
 0.52899998E+02  0.24497E+04
 0.52949997E+02  0.43254E+04
 0.52999996E+02  0.51370E+04
 0.53049995E+02  0.53272E+04
 0.53099998E+02  0.39641E+04
 0.53149998E+02  0.20445E+04
 0.53199997E+02  0.33579E+03
 0.53249996E+02 -0.59440E+03
 0.53299995E+02 -0.11604E+04
 0.53349998E+02 -0.24014E+03
 0.53399998E+02  0.68379E+03
 0.53449997E+02  0.83258E+03
 0.53499996E+02  0.40562E+03
 0.53549995E+02  0.58594E+03
 0.53599998E+02  0.21526E+04
 0.53649998E+02  0.23830E+04
 0.53699997E+02  0.17405E+04
 0.53749996E+02 -0.29723E+03
 0.53799995E+02 -0.23982E+04
 0.53849998E+02 -0.28335E+04
 0.53899998E+02 -0.21754E+04
 0.53949997E+02 -0.14010E+04
 0.53999996E+02 -0.96739E+03
 0.54049995E+02 -0.48310E+03
 0.54099998E+02  0.96167E+02
 0.54149998E+02  0.40936E+02
 0.54199997E+02  0.12081E+04
 0.54249996E+02  0.27552E+04
 0.54299995E+02  0.30649E+04
 0.54349998E+02  0.24790E+04
 0.54399998E+02  0.21408E+03
 0.54449997E+02 -0.74137E+03
 0.54499996E+02 -0.13218E+04
 0.54549995E+02 -0.15682E+04
 0.54599998E+02 -0.51001E+03
 0.54649998E+02  0.30842E+03
 0.54699997E+02  0.97127E+03
 0.54749996E+02  0.77516E+03
 0.54799995E+02 -0.12891E+03
 0.54849998E+02 -0.13340E+04
 0.54899998E+02 -0.26705E+04
 0.54949997E+02 -0.30888E+04
 0.54999996E+02 -0.16534E+04
 0.55049995E+02  0.21167E+02
 0.55099998E+02  0.32528E+03
 0.55149998E+02  0.64995E+03
 0.55199997E+02  0.16780E+04
 0.55249996E+02  0.20602E+04
 0.55299995E+02  0.11651E+04
 0.55349998E+02  0.56164E+03
 0.55399998E+02  0.15466E+03
 0.55449997E+02 -0.26635E+03
 0.55499996E+02 -0.11909E+04
 0.55549995E+02 -0.29907E+04
 0.55599998E+02 -0.29022E+04
 0.55649998E+02 -0.13825E+04
 0.55699997E+02 -0.41124E+03
 0.55749996E+02  0.60637E+03
 0.55799995E+02  0.39820E+03
 0.55849995E+02 -0.11292E+04
 0.55899998E+02 -0.16548E+04
 0.55949997E+02 -0.13993E+04
 0.55999996E+02 -0.14671E+04
 0.56049995E+02 -0.69157E+03
 0.56099995E+02  0.28161E+03
 0.56149998E+02  0.77649E+03
 0.56199997E+02  0.20844E+04
 0.56249996E+02  0.22402E+04
 0.56299995E+02  0.20182E+04
 0.56349995E+02  0.28858E+04
 0.56399998E+02  0.24615E+04
 0.56449997E+02  0.11937E+04
 0.56499996E+02 -0.20616E+03
 0.56549995E+02 -0.37188E+03
 0.56599995E+02 -0.79236E+03
 0.56649998E+02 -0.19223E+04
 0.56699997E+02 -0.20400E+04
 0.56749996E+02 -0.24065E+04
 0.56799995E+02 -0.11932E+04
 0.56849995E+02  0.69375E+03
 0.56899998E+02  0.20019E+04
 0.56949997E+02  0.21499E+04
 0.56999996E+02  0.11443E+04
 0.57049995E+02  0.32767E+03
 0.57099995E+02  0.33875E+03
 0.57149998E+02  0.83765E+03
 0.57199997E+02  0.13114E+04
 0.57249996E+02  0.18862E+04
 0.57299995E+02  0.11633E+04
 0.57349995E+02  0.29242E+01
 0.57399998E+02 -0.53418E+03
 0.57449997E+02 -0.13503E+04
 0.57499996E+02 -0.14448E+04
 0.57549995E+02 -0.10567E+04
 0.57599995E+02 -0.11483E+04
 0.57649998E+02 -0.86707E+03
 0.57699997E+02 -0.12664E+03
 0.57749996E+02  0.49563E+02
 0.57799995E+02 -0.35709E+03
 0.57849995E+02 -0.53841E+03
 0.57899998E+02 -0.26004E+03
 0.57949997E+02  0.17262E+03
 0.57999996E+02  0.34335E+03
 0.58049995E+02 -0.14411E+03
 0.58099995E+02 -0.18308E+01
 0.58149998E+02  0.16419E+03
 0.58199997E+02  0.35348E+03
 0.58249996E+02  0.45749E+03
 0.58299995E+02  0.40863E+03
 0.58349995E+02  0.10342E+04
 0.58399998E+02  0.66183E+03
 0.58449997E+02 -0.14503E+02
 0.58499996E+02 -0.66427E+02
 0.58549995E+02  0.11629E+03
 0.58599995E+02 -0.23851E+03
 0.58649998E+02 -0.25384E+03
 0.58699997E+02 -0.72172E+03
 0.58749996E+02 -0.12257E+04
 0.58799995E+02 -0.13360E+04
 0.58849995E+02 -0.10502E+04
 0.58899998E+02 -0.80808E+02
 0.58949997E+02  0.12485E+03
 0.58999996E+02  0.19817E+02
 0.59049995E+02 -0.21450E+03
 0.59099995E+02 -0.35382E+03
 0.59149998E+02  0.31583E+03
 0.59199997E+02  0.77631E+03
 0.59249996E+02  0.73153E+03
 0.59299995E+02  0.29715E+03
 0.59349995E+02 -0.39780E+03
 0.59399998E+02 -0.40850E+03
 0.59449997E+02 -0.33746E+03
 0.59499996E+02 -0.11736E+04
 0.59549995E+02 -0.15394E+04
 0.59599995E+02 -0.82868E+03
 0.59649998E+02  0.21195E+03
 0.59699997E+02  0.10865E+04
 0.59749996E+02  0.59045E+03
 0.59799995E+02  0.34096E+03
 0.59849995E+02  0.86005E+02
 0.59899998E+02 -0.58889E+03
 0.59949997E+02 -0.12818E+02
 0.59999996E+02  0.20774E+03
 0.60049995E+02  0.41307E+03
 0.60099995E+02  0.13368E+04
 0.60149998E+02  0.15673E+04
 0.60199997E+02  0.75464E+03
 0.60249996E+02  0.96947E+02
 0.60299995E+02 -0.15221E+03
 0.60349995E+02 -0.33834E+03
 0.60399998E+02 -0.51249E+03
 0.60449997E+02 -0.32289E+03
 0.60499996E+02 -0.57915E+03
 0.60549995E+02 -0.12196E+04
 0.60599995E+02 -0.10132E+04
 0.60649998E+02 -0.68448E+03
 0.60699997E+02 -0.13606E+02
 0.60749996E+02 -0.18115E+03
 0.60799995E+02  0.25934E+03
 0.60849995E+02  0.45291E+03
 0.60899998E+02  0.46330E+02
 0.60949997E+02  0.12501E+03
 0.60999996E+02 -0.72654E+03
 0.61049995E+02 -0.10463E+04
 0.61099995E+02 -0.57529E+03
 0.61149998E+02  0.48007E+02
 0.61199997E+02  0.66185E+03
 0.61249996E+02  0.10636E+04
 0.61299995E+02  0.10506E+04
 0.61349995E+02  0.53827E+03
 0.61399998E+02  0.52623E+03
 0.61449997E+02  0.89456E+03
 0.61499996E+02  0.76512E+03
 0.61549995E+02  0.50837E+03
 0.61599995E+02 -0.22541E+03
 0.61649998E+02 -0.64429E+03
 0.61699997E+02 -0.68648E+03
 0.61749996E+02 -0.57793E+03
 0.61799995E+02  0.28640E+02
 0.61849995E+02  0.58932E+03
 0.61899998E+02  0.10861E+04
 0.61949997E+02  0.11503E+04
 0.61999996E+02  0.13348E+04
 0.62049995E+02  0.16291E+04
 0.62099998E+02  0.15934E+04
 0.62149994E+02  0.14297E+04
 0.62199997E+02  0.10559E+04
 0.62249992E+02  0.52777E+03
 0.62299995E+02 -0.66396E+03
 0.62349998E+02 -0.14358E+04
 0.62399994E+02 -0.14478E+04
 0.62449997E+02 -0.16710E+04
 0.62499992E+02 -0.15726E+04
 0.62549995E+02 -0.14572E+04
 0.62599998E+02 -0.10651E+04
 0.62649994E+02 -0.46896E+03
 0.62699997E+02 -0.11950E+03
 0.62749992E+02 -0.13660E+03
 0.62799995E+02 -0.50462E+03
 0.62849998E+02 -0.56965E+03
 0.62899994E+02 -0.52310E+03
 0.62949997E+02 -0.31441E+03
 0.62999992E+02  0.16764E+03
 0.63049995E+02  0.38442E+03
 0.63099998E+02 -0.12668E+03
 0.63149994E+02 -0.58526E+03
 0.63199997E+02 -0.10198E+04
 0.63249992E+02 -0.76819E+03
 0.63299995E+02 -0.12344E+03
 0.63349998E+02  0.61096E+02
 0.63399994E+02  0.20956E+03
 0.63449997E+02  0.18291E+03
 0.63499992E+02  0.20806E+03
 0.63549995E+02  0.52845E+03
 0.63599998E+02  0.70287E+03
 0.63649994E+02  0.17233E+03
 0.63699997E+02  0.15896E+03
 0.63749992E+02  0.20727E+03
 0.63799995E+02  0.23310E+03
 0.63849998E+02  0.53026E+03
 0.63899994E+02  0.52489E+03
 0.63949997E+02  0.74289E+02
 0.63999992E+02  0.13612E+03
 0.64049995E+02  0.49627E+03
 0.64099998E+02  0.75152E+03
 0.64149994E+02  0.10991E+04
 0.64199997E+02  0.11855E+04
 0.64249992E+02  0.10598E+04
 0.64299995E+02  0.21977E+03
 0.64349998E+02 -0.49098E+03
 0.64399994E+02 -0.15573E+04
 0.64449997E+02 -0.21932E+04
 0.64499992E+02 -0.20239E+04
 0.64549995E+02 -0.18721E+04
 0.64599998E+02 -0.13358E+04
 0.64649994E+02 -0.80288E+03
 0.64699997E+02 -0.27301E+03
 0.64749992E+02 -0.24232E+03
 0.64799995E+02 -0.31682E+03
 0.64849998E+02 -0.19335E+03
 0.64899994E+02  0.11959E+03
 0.64949997E+02  0.47058E+03
 0.64999992E+02  0.62042E+03
 0.65049995E+02  0.11178E+04
 0.65099998E+02  0.11238E+04
 0.65149994E+02  0.11813E+04
 0.65199997E+02  0.13021E+04
 0.65249992E+02  0.96842E+03
 0.65299995E+02  0.83817E+03
 0.65349998E+02  0.43034E+03
 0.65399994E+02  0.22615E+03
 0.65449997E+02  0.82597E+02
 0.65499992E+02 -0.18583E+03
 0.65549995E+02 -0.51972E+03
 0.65599998E+02 -0.10374E+04
 0.65649994E+02 -0.10849E+04
 0.65699997E+02 -0.84460E+03
 0.65749992E+02 -0.51512E+03
 0.65799995E+02 -0.21117E+03
 0.65849998E+02  0.38911E+03
 0.65899994E+02  0.10691E+04
 0.65949997E+02  0.10275E+04
 0.65999992E+02  0.89645E+03
 0.66049995E+02  0.65836E+03
 0.66099998E+02  0.67206E+03
 0.66149994E+02  0.52572E+03
 0.66199997E+02 -0.39351E+03
 0.66249992E+02 -0.74889E+03
 0.66299995E+02 -0.89416E+03
 0.66349998E+02 -0.98155E+03
 0.66399994E+02 -0.85026E+03
 0.66449997E+02 -0.65947E+03
 0.66499992E+02 -0.58044E+03
 0.66549995E+02 -0.77775E+03
 0.66599998E+02 -0.62872E+03
 0.66649994E+02 -0.55703E+03
 0.66699997E+02 -0.48237E+03
 0.66749992E+02 -0.12302E+03
 0.66799995E+02  0.56125E+03
 0.66849998E+02  0.13972E+04
 0.66899994E+02  0.16291E+04
 0.66949997E+02  0.17673E+04
 0.66999992E+02  0.14085E+04
 0.67049995E+02  0.84173E+03
 0.67099998E+02  0.34646E+03
 0.67149994E+02 -0.30484E+03
 0.67199997E+02 -0.45096E+03
 0.67249992E+02 -0.40046E+03
 0.67299995E+02 -0.21597E+03
 0.67349998E+02 -0.41846E+03
 0.67399994E+02 -0.11960E+04
 0.67449997E+02 -0.13134E+04
 0.67499992E+02 -0.85898E+03
 0.67549995E+02 -0.26747E+03
 0.67599998E+02  0.81933E+02
 0.67649994E+02 -0.13618E+03
 0.67699997E+02 -0.37466E+03
 0.67749992E+02 -0.61635E+03
 0.67799995E+02 -0.46622E+03
 0.67849998E+02  0.24344E+03
 0.67899994E+02  0.69395E+03
 0.67949997E+02  0.11168E+04
 0.67999992E+02  0.17397E+04
 0.68049995E+02  0.19776E+04
 0.68099998E+02  0.16623E+04
 0.68149994E+02  0.79984E+03
 0.68199997E+02  0.89295E+02
 0.68249992E+02 -0.32112E+03
 0.68299995E+02 -0.10674E+04
 0.68349998E+02 -0.16386E+04
 0.68399994E+02 -0.16637E+04
 0.68449997E+02 -0.13624E+04
 0.68499992E+02 -0.10110E+04
 0.68549995E+02 -0.61421E+03
 0.68599998E+02  0.27972E+03
 0.68649994E+02  0.94748E+03
 0.68699997E+02  0.12349E+04
 0.68749992E+02  0.11683E+04
 0.68799995E+02  0.68068E+03
 0.68849998E+02  0.12326E+03
 0.68899994E+02 -0.57375E+03
 0.68949997E+02 -0.99829E+03
 0.68999992E+02 -0.10230E+04
 0.69049995E+02 -0.79073E+03
 0.69099998E+02 -0.98782E+03
 0.69149994E+02 -0.12186E+04
 0.69199997E+02 -0.95187E+03
 0.69249992E+02 -0.26169E+03
 0.69299995E+02  0.32128E+03
 0.69349998E+02  0.40129E+03
 0.69399994E+02  0.44065E+03
 0.69449997E+02  0.53894E+03
 0.69499992E+02  0.61920E+03
 0.69549995E+02  0.77616E+03
 0.69599998E+02  0.10414E+04
 0.69649994E+02  0.10888E+04
 0.69699997E+02  0.11071E+04
 0.69749992E+02  0.90485E+03
 0.69799995E+02  0.74381E+03
 0.69849998E+02  0.33915E+03
 0.69899994E+02 -0.11006E+03
 0.69949997E+02 -0.46273E+03
 0.69999992E+02 -0.94974E+03
 0.70049995E+02 -0.89497E+03
 0.70099998E+02 -0.71106E+03
 0.70149994E+02 -0.60297E+03
 0.70199997E+02  0.23487E+02
 0.70249992E+02  0.62479E+03
 0.70299995E+02  0.83168E+03
 0.70349998E+02  0.95112E+03
 0.70399994E+02  0.66775E+03
 0.70449997E+02  0.26505E+03
 0.70499992E+02 -0.10307E+03
 0.70549995E+02 -0.43974E+03
 0.70599998E+02 -0.38217E+03
 0.70649994E+02 -0.24012E+03
 0.70699997E+02 -0.30620E+03
 0.70749992E+02 -0.27577E+03
 0.70799995E+02 -0.45510E+03
 0.70849998E+02 -0.43223E+03
 0.70899994E+02 -0.32843E+03
 0.70949997E+02 -0.39679E+03
 0.70999992E+02 -0.52397E+03
 0.71049995E+02 -0.59468E+03
 0.71099998E+02 -0.52378E+03
 0.71149994E+02 -0.49503E+03
 0.71199997E+02 -0.31669E+03
 0.71249992E+02 -0.41773E+03
 0.71299995E+02 -0.56917E+03
 0.71349998E+02 -0.90934E+03
 0.71399994E+02 -0.78566E+03
 0.71449997E+02 -0.56692E+03
 0.71499992E+02 -0.41525E+03
 0.71549995E+02  0.22962E+03
 0.71599998E+02  0.50012E+03
 0.71649994E+02  0.70760E+03
 0.71699997E+02  0.65761E+03
 0.71749992E+02  0.57589E+03
 0.71799995E+02  0.72117E+03
 0.71849998E+02  0.63029E+03
 0.71899994E+02  0.27424E+03
 0.71949997E+02  0.19960E+03
 0.71999992E+02  0.32549E+03
 0.72049995E+02  0.30923E+03
 0.72099998E+02  0.36878E+03
 0.72149994E+02  0.59065E+03
 0.72199997E+02  0.59819E+03
 0.72249992E+02  0.50346E+03
 0.72299995E+02  0.39975E+03
 0.72349998E+02  0.36969E+02
 0.72399994E+02  0.38713E+02
 0.72449997E+02  0.82761E+02
 0.72499992E+02  0.55245E+02
 0.72549995E+02 -0.64764E+02
 0.72599998E+02 -0.26688E+03
 0.72649994E+02 -0.65325E+03
 0.72699997E+02 -0.11603E+04
 0.72749992E+02 -0.13167E+04
 0.72799995E+02 -0.12030E+04
 0.72849998E+02 -0.78508E+03
 0.72899994E+02 -0.35577E+03
 0.72949997E+02  0.45223E+02
 0.72999992E+02  0.48553E+03
 0.73049995E+02  0.54438E+03
 0.73099998E+02  0.43757E+03
 0.73149994E+02  0.73015E+03
 0.73199997E+02  0.87633E+03
 0.73249992E+02  0.72758E+03
 0.73299995E+02  0.56681E+03
 0.73349998E+02  0.40763E+03
 0.73399994E+02  0.39691E+03
 0.73449997E+02  0.45017E+03
 0.73499992E+02  0.33509E+03
 0.73549995E+02 -0.34283E+02
 0.73599998E+02 -0.54411E+03
 0.73649994E+02 -0.77419E+03
 0.73699997E+02 -0.80774E+03
 0.73749992E+02 -0.73541E+03
 0.73799995E+02 -0.40204E+03
 0.73849998E+02 -0.10910E+03
 0.73899994E+02  0.99501E+01
 0.73949997E+02  0.20155E+02
 0.73999992E+02  0.17431E+03
 0.74049995E+02  0.19092E+03
 0.74099998E+02 -0.66823E+02
 0.74149994E+02 -0.35439E+03
 0.74199997E+02 -0.52842E+03
 0.74249992E+02 -0.47076E+03
 0.74299995E+02 -0.16528E+03
 0.74349998E+02  0.20986E+03
 0.74399994E+02  0.39878E+03
 0.74449997E+02  0.44627E+03
 0.74499992E+02  0.32910E+03
 0.74549995E+02  0.37835E+03
 0.74599998E+02  0.57962E+03
 0.74649994E+02  0.85645E+03
 0.74699997E+02  0.10209E+04
 0.74749992E+02  0.76471E+03
 0.74799995E+02  0.50664E+03
 0.74849998E+02  0.19752E+03
 0.74899994E+02  0.13644E+02
 0.74949997E+02 -0.63376E+00
 0.74999992E+02  0.28057E+02
 0.75049995E+02 -0.17109E+03
 0.75099998E+02 -0.63935E+03
 0.75149994E+02 -0.58175E+03
 0.75199997E+02 -0.37910E+03
 0.75249992E+02 -0.29715E+03
 0.75299995E+02 -0.19416E+03
 0.75349998E+02 -0.12408E+03
 0.75399994E+02 -0.19797E+03
 0.75449997E+02 -0.23512E+03
 0.75499992E+02 -0.10201E+03
 0.75549995E+02 -0.33022E+03
 0.75599998E+02 -0.61735E+03
 0.75649994E+02 -0.67549E+03
 0.75699997E+02 -0.62058E+03
 0.75749992E+02 -0.39032E+03
 0.75799995E+02 -0.11668E+03
 0.75849998E+02 -0.13003E+03
 0.75899994E+02 -0.24376E+03
 0.75949997E+02 -0.17379E+03
 0.75999992E+02 -0.93452E+02
 0.76049995E+02  0.81737E+01
 0.76099998E+02  0.23086E+03
 0.76149994E+02  0.13546E+03
 0.76199997E+02 -0.65467E+02
 0.76249992E+02 -0.60072E+02
 0.76299995E+02 -0.11444E+03
 0.76349998E+02  0.14366E+03
 0.76399994E+02  0.38529E+03
 0.76449997E+02  0.30669E+03
 0.76499992E+02 -0.59122E+02
 0.76549995E+02 -0.30133E+03
 0.76599998E+02 -0.40879E+03
 0.76649994E+02 -0.30421E+03
 0.76699997E+02  0.18730E+03
 0.76749992E+02  0.58146E+03
 0.76799995E+02  0.85124E+03
 0.76849998E+02  0.62372E+03
 0.76899994E+02  0.42971E+03
 0.76949997E+02  0.46005E+03
 0.76999992E+02  0.63292E+03
 0.77049995E+02  0.66281E+03
 0.77099998E+02  0.43391E+03
 0.77149994E+02  0.47482E+03
 0.77199997E+02  0.39922E+03
 0.77249992E+02  0.40336E+03
 0.77299995E+02  0.27612E+03
 0.77349998E+02 -0.15207E+03
 0.77399994E+02 -0.51725E+03
 0.77449997E+02 -0.75403E+03
 0.77499992E+02 -0.95075E+03
 0.77549995E+02 -0.11379E+04
 0.77599998E+02 -0.10802E+04
 0.77649994E+02 -0.99408E+03
 0.77699997E+02 -0.10611E+04
 0.77749992E+02 -0.97310E+03
 0.77799995E+02 -0.83138E+03
 0.77849998E+02 -0.64471E+03
 0.77899994E+02 -0.19647E+03
 0.77949997E+02 -0.23479E+02
 0.77999992E+02  0.64812E+02
 0.78049995E+02  0.23029E+03
 0.78099998E+02  0.33568E+03
 0.78149994E+02  0.57999E+03
 0.78199997E+02  0.87216E+03
 0.78249992E+02  0.89198E+03
 0.78299995E+02  0.78352E+03
 0.78349998E+02  0.79263E+03
 0.78399994E+02  0.68167E+03
 0.78449997E+02  0.72054E+03
 0.78499992E+02  0.67371E+03
 0.78549995E+02  0.45877E+03
 0.78599998E+02  0.31622E+03
 0.78649994E+02  0.20319E+03
 0.78699997E+02 -0.54436E+01
 0.78749992E+02 -0.13807E+03
 0.78799995E+02  0.29129E+02
 0.78849998E+02  0.72053E+02
 0.78899994E+02  0.22667E+02
 0.78949997E+02 -0.33377E+02
 0.78999992E+02 -0.29339E+03
 0.79049995E+02 -0.47203E+03
 0.79099998E+02 -0.41681E+03
 0.79149994E+02 -0.34813E+03
 0.79199997E+02 -0.34113E+03
 0.79249992E+02 -0.43299E+03
 0.79299995E+02 -0.54077E+03
 0.79349998E+02 -0.61362E+03
 0.79399994E+02 -0.59696E+03
 0.79449997E+02 -0.41477E+03
 0.79499992E+02 -0.15294E+03
 0.79549995E+02 -0.96595E+02
 0.79599998E+02 -0.21773E+03
 0.79649994E+02 -0.17782E+03
 0.79699997E+02 -0.68762E+02
 0.79749992E+02 -0.79875E+02
 0.79799995E+02 -0.20875E+02
 0.79849998E+02  0.14616E+03
 0.79899994E+02  0.40380E+03
 0.79949997E+02  0.63029E+03
 0.79999992E+02  0.64255E+03
 0.80049995E+02  0.50215E+03
 0.80099998E+02  0.35197E+03
 0.80149994E+02  0.30978E+03
 0.80199997E+02  0.27418E+03
 0.80249992E+02  0.94506E+02
 0.80299995E+02  0.19755E+02
 0.80349998E+02  0.12809E+02
 0.80399994E+02 -0.57655E+02
 0.80449997E+02 -0.29360E+02
 0.80499992E+02  0.63066E+01
 0.80549995E+02 -0.86513E+02
 0.80599998E+02 -0.32144E+03
 0.80649994E+02 -0.53035E+03
 0.80699997E+02 -0.47376E+03
 0.80749992E+02 -0.13265E+03
 0.80799995E+02  0.89332E+02
 0.80849998E+02  0.13007E+03
 0.80899994E+02  0.25522E+03
 0.80949997E+02  0.31664E+03
 0.80999992E+02  0.23667E+03
 0.81049995E+02  0.62941E+02
 0.81099998E+02 -0.11876E+03
 0.81149994E+02 -0.30546E+03
 0.81199997E+02 -0.41305E+03
 0.81249992E+02 -0.34935E+03
 0.81299995E+02 -0.28456E+03
 0.81349998E+02 -0.26484E+03
 0.81399994E+02 -0.43260E+03
 0.81449997E+02 -0.52497E+03
 0.81499992E+02 -0.49562E+03
 0.81549995E+02 -0.43889E+03
 0.81599998E+02 -0.24983E+03
 0.81649994E+02  0.72718E+02
 0.81699997E+02  0.49918E+03
 0.81749992E+02  0.68348E+03
 0.81799995E+02  0.54133E+03
 0.81849998E+02  0.46540E+03
 0.81899994E+02  0.50274E+03
 0.81949997E+02  0.42077E+03
 0.81999992E+02  0.37796E+03
 0.82049995E+02  0.43201E+03
 0.82099998E+02  0.47492E+03
 0.82149994E+02  0.48774E+03
 0.82199997E+02  0.42062E+03
 0.82249992E+02  0.17179E+03
 0.82299995E+02  0.10641E+03
 0.82349998E+02  0.45042E+02
 0.82399994E+02 -0.29887E+03
 0.82449997E+02 -0.49452E+03
 0.82499992E+02 -0.58396E+03
 0.82549995E+02 -0.62731E+03
 0.82599998E+02 -0.56638E+03
 0.82649994E+02 -0.44613E+03
 0.82699997E+02 -0.39658E+03
 0.82749992E+02 -0.19348E+03
 0.82799995E+02  0.61565E+02
 0.82849998E+02  0.27350E+03
 0.82899994E+02  0.42740E+03
 0.82949997E+02  0.27674E+03
 0.82999992E+02 -0.49077E+01
 0.83049995E+02 -0.99912E+02
 0.83099998E+02  0.25322E+02
 0.83149994E+02  0.17769E+03
 0.83199997E+02  0.19848E+03
 0.83249992E+02  0.63020E+02
 0.83299995E+02  0.44592E+02
 0.83349998E+02  0.61976E+02
 0.83399994E+02 -0.18026E+03
 0.83449997E+02 -0.45007E+03
 0.83499992E+02 -0.48168E+03
 0.83549995E+02 -0.35567E+03
 0.83599998E+02 -0.26966E+03
 0.83649994E+02 -0.14039E+03
 0.83699997E+02  0.98207E+02
 0.83749992E+02  0.36879E+03
 0.83799995E+02  0.52867E+03
 0.83849998E+02  0.55544E+03
 0.83899994E+02  0.55657E+03
 0.83949997E+02  0.37429E+03
 0.83999992E+02  0.25515E+03
 0.84049995E+02  0.74836E+02
 0.84099998E+02 -0.77773E+02
 0.84149994E+02 -0.20176E+03
 0.84199997E+02 -0.38737E+03
 0.84249992E+02 -0.43591E+03
 0.84299995E+02 -0.38517E+03
 0.84349998E+02 -0.25819E+03
 0.84399994E+02 -0.21266E+03
 0.84449997E+02 -0.11395E+03
 0.84499992E+02 -0.67588E+02
 0.84549995E+02 -0.14294E+03
 0.84599998E+02 -0.53803E+02
 0.84649994E+02  0.64266E+02
 0.84699997E+02  0.63528E+02
 0.84749992E+02 -0.61211E+02
 0.84799995E+02 -0.31319E+03
 0.84849998E+02 -0.36624E+03
 0.84899994E+02 -0.18179E+03
 0.84949997E+02 -0.12239E+02
 0.84999992E+02  0.15051E+03
 0.85049995E+02  0.30275E+03
 0.85099998E+02  0.43148E+03
 0.85149994E+02  0.25313E+03
 0.85199997E+02 -0.68208E+02
 0.85249992E+02 -0.16811E+03
 0.85299995E+02 -0.16320E+03
 0.85349998E+02 -0.50065E+02
 0.85399994E+02 -0.47393E+02
 0.85449997E+02 -0.49160E+02
 0.85499992E+02  0.25283E+02
 0.85549995E+02  0.50168E+02
 0.85599998E+02  0.44272E+02
 0.85649994E+02  0.11146E+03
 0.85699997E+02  0.12865E+03
 0.85749992E+02  0.30734E+02
 0.85799995E+02  0.23803E+02
 0.85849998E+02 -0.13144E+01
 0.85899994E+02 -0.11453E+02
 0.85949997E+02 -0.19982E+02
 0.85999992E+02  0.15720E+03
 0.86049995E+02  0.37556E+03
 0.86099998E+02  0.47647E+03
 0.86149994E+02  0.46244E+03
 0.86199997E+02  0.32559E+03
 0.86249992E+02  0.15857E+03
 0.86299995E+02 -0.55963E+02
 0.86349998E+02 -0.33767E+03
 0.86399994E+02 -0.65891E+03
 0.86449997E+02 -0.78589E+03
 0.86499992E+02 -0.77843E+03
 0.86549995E+02 -0.55928E+03
 0.86599998E+02 -0.44127E+03
 0.86649994E+02 -0.36943E+03
 0.86699997E+02 -0.25652E+03
 0.86749992E+02 -0.55328E+02
 0.86799995E+02  0.52407E+02
 0.86849998E+02 -0.51871E+02
 0.86899994E+02  0.24487E+02
 0.86949997E+02  0.93153E+02
 0.86999992E+02  0.15333E+03
 0.87049995E+02  0.17869E+03
 0.87099998E+02  0.40678E+02
 0.87149994E+02 -0.10073E+03
 0.87199997E+02 -0.13805E+03
 0.87249992E+02 -0.21614E+03
 0.87299995E+02 -0.30509E+03
 0.87349998E+02 -0.24926E+03
 0.87399994E+02 -0.63470E+02
 0.87449997E+02  0.88565E+02
 0.87499992E+02  0.30310E+03
 0.87549995E+02  0.39127E+03
 0.87599991E+02  0.32189E+03
 0.87649994E+02  0.36961E+03
 0.87699997E+02  0.50826E+03
 0.87749992E+02  0.65994E+03
 0.87799995E+02  0.74542E+03
 0.87849991E+02  0.70720E+03
 0.87899994E+02  0.61644E+03
 0.87949997E+02  0.50427E+03
 0.87999992E+02  0.33140E+03
 0.88049995E+02  0.20974E+03
 0.88099991E+02  0.10501E+03
 0.88149994E+02  0.15404E+03
 0.88199997E+02  0.19584E+03
 0.88249992E+02  0.12150E+03
 0.88299995E+02  0.21623E+02
 0.88349991E+02 -0.55519E+02
 0.88399994E+02 -0.15548E+03
 0.88449997E+02 -0.38310E+03
 0.88499992E+02 -0.55705E+03
 0.88549995E+02 -0.62886E+03
 0.88599991E+02 -0.60709E+03
 0.88649994E+02 -0.53531E+03
 0.88699997E+02 -0.43769E+03
 0.88749992E+02 -0.38989E+03
 0.88799995E+02 -0.36735E+03
 0.88849991E+02 -0.29920E+03
 0.88899994E+02 -0.27419E+03
 0.88949997E+02 -0.30465E+03
 0.88999992E+02 -0.21912E+03
 0.89049995E+02 -0.13317E+03
 0.89099991E+02 -0.14463E+03
 0.89149994E+02 -0.18264E+03
 0.89199997E+02 -0.18344E+03
 0.89249992E+02 -0.22267E+03
 0.89299995E+02 -0.31323E+03
 0.89349991E+02 -0.25101E+03
 0.89399994E+02 -0.86455E+02
 0.89449997E+02  0.10212E+03
 0.89499992E+02  0.28674E+03
 0.89549995E+02  0.42875E+03
 0.89599991E+02  0.53631E+03
 0.89649994E+02  0.55170E+03
 0.89699997E+02  0.50826E+03
 0.89749992E+02  0.47251E+03
 0.89799995E+02  0.41168E+03
 0.89849991E+02  0.29333E+03
 0.89899994E+02  0.78999E+02
 0.89949997E+02  0.61991E+02
 0.89999992E+02 -0.32225E+02
 0.90049995E+02 -0.33996E+03
 0.90099991E+02 -0.54727E+03
 0.90149994E+02 -0.72197E+03
 0.90199997E+02 -0.75993E+03
 0.90249992E+02 -0.62914E+03
 0.90299995E+02 -0.43319E+03
 0.90349991E+02 -0.19469E+03
 0.90399994E+02 -0.31770E+02
 0.90449997E+02  0.52051E+02
 0.90499992E+02  0.13950E+03
 0.90549995E+02  0.18377E+03
 0.90599991E+02  0.21269E+03
 0.90649994E+02  0.28543E+03
 0.90699997E+02  0.38124E+03
 0.90749992E+02  0.41521E+03
 0.90799995E+02  0.50292E+03
 0.90849991E+02  0.49436E+03
 0.90899994E+02  0.52682E+03
 0.90949997E+02  0.60126E+03
 0.90999992E+02  0.56527E+03
 0.91049995E+02  0.52237E+03
 0.91099991E+02  0.41778E+03
 0.91149994E+02  0.34093E+03
 0.91199997E+02  0.20543E+03
 0.91249992E+02  0.80435E+02
 0.91299995E+02 -0.43082E+02
 0.91349991E+02 -0.19970E+03
 0.91399994E+02 -0.37435E+03
 0.91449997E+02 -0.47115E+03
 0.91499992E+02 -0.40821E+03
 0.91549995E+02 -0.40501E+03
 0.91599991E+02 -0.38803E+03
 0.91649994E+02 -0.40929E+03
 0.91699997E+02 -0.43514E+03
 0.91749992E+02 -0.27772E+03
 0.91799995E+02 -0.11837E+03
 0.91849991E+02  0.75274E+02
 0.91899994E+02  0.13917E+03
 0.91949997E+02  0.10025E+03
 0.91999992E+02  0.62831E+02
 0.92049995E+02 -0.23762E+02
 0.92099991E+02 -0.41847E+02
 0.92149994E+02  0.10684E+02
 0.92199997E+02  0.14629E+03
 0.92249992E+02  0.23708E+03
 0.92299995E+02  0.25912E+03
 0.92349991E+02  0.15801E+03
 0.92399994E+02 -0.43904E+02
 0.92449997E+02 -0.26995E+03
 0.92499992E+02 -0.46375E+03
 0.92549995E+02 -0.66582E+03
 0.92599991E+02 -0.81624E+03
 0.92649994E+02 -0.84862E+03
 0.92699997E+02 -0.77475E+03
 0.92749992E+02 -0.57876E+03
 0.92799995E+02 -0.39345E+03
 0.92849991E+02 -0.18317E+03
 0.92899994E+02 -0.13989E+02
 0.92949997E+02  0.13041E+03
 0.92999992E+02  0.41131E+03
 0.93049995E+02  0.68772E+03
 0.93099991E+02  0.85707E+03
 0.93149994E+02  0.88138E+03
 0.93199997E+02  0.68675E+03
 0.93249992E+02  0.43966E+03
 0.93299995E+02  0.22210E+03
 0.93349991E+02  0.11024E+02
 0.93399994E+02 -0.71362E+02
 0.93449997E+02  0.64349E+02
 0.93499992E+02  0.18071E+03
 0.93549995E+02  0.16080E+03
 0.93599991E+02  0.91592E+02
 0.93649994E+02  0.20133E+01
 0.93699997E+02 -0.12923E+03
 0.93749992E+02 -0.27153E+03
 0.93799995E+02 -0.37531E+03
 0.93849991E+02 -0.35847E+03
 0.93899994E+02 -0.26745E+03
 0.93949997E+02 -0.15332E+03
 0.93999992E+02 -0.20655E+03
 0.94049995E+02 -0.33413E+03
 0.94099991E+02 -0.33332E+03
 0.94149994E+02 -0.21564E+03
 0.94199997E+02  0.21886E+02
 0.94249992E+02  0.18710E+03
 0.94299995E+02  0.38236E+03
 0.94349991E+02  0.54325E+03
 0.94399994E+02  0.70553E+03
 0.94449997E+02  0.73884E+03
 0.94499992E+02  0.62503E+03
 0.94549995E+02  0.50858E+03
 0.94599991E+02  0.37247E+03
 0.94649994E+02  0.23930E+03
 0.94699997E+02  0.11646E+03
 0.94749992E+02  0.17085E+02
 0.94799995E+02 -0.11674E+03
 0.94849991E+02 -0.25674E+03
 0.94899994E+02 -0.39503E+03
 0.94949997E+02 -0.42256E+03
 0.94999992E+02 -0.33278E+03
 0.95049995E+02 -0.14812E+03
 0.95099991E+02 -0.59586E+02
 0.95149994E+02 -0.53661E+02
 0.95199997E+02 -0.36481E+02
 0.95249992E+02 -0.14020E+02
 0.95299995E+02  0.18317E+02
 0.95349991E+02 -0.37058E+02
 0.95399994E+02 -0.13454E+03
 0.95449997E+02 -0.22818E+03
 0.95499992E+02 -0.18706E+03
 0.95549995E+02 -0.51742E+02
 0.95599991E+02  0.17375E+03
 0.95649994E+02  0.41904E+03
 0.95699997E+02  0.52589E+03
 0.95749992E+02  0.46209E+03
 0.95799995E+02  0.33416E+03
 0.95849991E+02  0.13242E+03
 0.95899994E+02 -0.15799E+03
 0.95949997E+02 -0.39554E+03
 0.95999992E+02 -0.59806E+03
 0.96049995E+02 -0.70586E+03
 0.96099991E+02 -0.66798E+03
 0.96149994E+02 -0.56359E+03
 0.96199997E+02 -0.44127E+03
 0.96249992E+02 -0.34644E+03
 0.96299995E+02 -0.17210E+03
 0.96349991E+02  0.22250E+02
 0.96399994E+02  0.54946E+02
 0.96449997E+02  0.93463E+02
 0.96499992E+02  0.21154E+02
 0.96549995E+02 -0.15092E+02
 0.96599991E+02  0.55154E+02
 0.96649994E+02  0.74230E+02
 0.96699997E+02  0.14408E+03
 0.96749992E+02  0.14710E+03
 0.96799995E+02  0.99332E+02
 0.96849991E+02  0.68359E+02
 0.96899994E+02  0.10238E+03
 0.96949997E+02  0.99546E+02
 0.96999992E+02  0.66098E+02
 0.97049995E+02  0.72954E+02
 0.97099991E+02  0.66098E+02
 0.97149994E+02  0.61510E+02
 0.97199997E+02 -0.42629E+02
 0.97249992E+02 -0.21940E+03
 0.97299995E+02 -0.37781E+03
 0.97349991E+02 -0.53505E+03
 0.97399994E+02 -0.61156E+03
 0.97449997E+02 -0.50267E+03
 0.97499992E+02 -0.31597E+03
 0.97549995E+02 -0.63099E+02
 0.97599991E+02  0.21436E+03
 0.97649994E+02  0.36827E+03
 0.97699997E+02  0.28271E+03
 0.97749992E+02  0.11143E+03
 0.97799995E+02  0.64697E+02
 0.97849991E+02 -0.32426E+02
 0.97899994E+02 -0.11549E+03
 0.97949997E+02 -0.24352E+03
 0.97999992E+02 -0.25825E+03
