-0.20000000E+01  0.20258E+05
-0.19500000E+01  0.20161E+05
-0.19000000E+01  0.20274E+05
-0.18500000E+01  0.20276E+05
-0.18000000E+01  0.20265E+05
-0.17500000E+01  0.20273E+05
-0.17000000E+01  0.20253E+05
-0.16500001E+01  0.20218E+05
-0.16000000E+01  0.20257E+05
-0.15500000E+01  0.20236E+05
-0.15000000E+01  0.20241E+05
-0.14500000E+01  0.20231E+05
-0.14000001E+01  0.20201E+05
-0.13500000E+01  0.20171E+05
-0.13000001E+01  0.20148E+05
-0.12500000E+01  0.20163E+05
-0.12000000E+01  0.20184E+05
-0.11500001E+01  0.20217E+05
-0.11000000E+01  0.20217E+05
-0.10500001E+01  0.20220E+05
-0.10000000E+01  0.20211E+05
-0.95000005E+00  0.20245E+05
-0.90000010E+00  0.20270E+05
-0.85000002E+00  0.20293E+05
-0.80000007E+00  0.20341E+05
-0.75000012E+00  0.20333E+05
-0.70000005E+00  0.20375E+05
-0.65000010E+00  0.20397E+05
-0.60000014E+00  0.20428E+05
-0.55000007E+00  0.20485E+05
-0.50000012E+00  0.20474E+05
-0.45000005E+00  0.20512E+05
-0.40000010E+00  0.20510E+05
-0.35000014E+00  0.20536E+05
-0.30000007E+00  0.20553E+05
-0.25000012E+00  0.20536E+05
-0.20000005E+00  0.20536E+05
-0.15000010E+00  0.20505E+05
-0.10000014E+00  0.20475E+05
-0.50000072E-01  0.20422E+05
-0.11920929E-06  0.20413E+05
 0.49999952E-01  0.20374E+05
 0.99999905E-01  0.20357E+05
 0.14999986E+00  0.20320E+05
 0.19999981E+00  0.20284E+05
 0.24999976E+00  0.20294E+05
 0.29999995E+00  0.20264E+05
 0.34999990E+00  0.20248E+05
 0.39999986E+00  0.20250E+05
 0.44999981E+00  0.20226E+05
 0.49999976E+00  0.20201E+05
 0.54999995E+00  0.20191E+05
 0.59999990E+00  0.20192E+05
 0.64999986E+00  0.20214E+05
 0.69999981E+00  0.20247E+05
 0.74999976E+00  0.20260E+05
 0.79999971E+00  0.20276E+05
 0.84999990E+00  0.20321E+05
 0.89999986E+00  0.20369E+05
 0.94999981E+00  0.20403E+05
 0.99999976E+00  0.20400E+05
 0.10499997E+01  0.20481E+05
 0.10999999E+01  0.20511E+05
 0.11499999E+01  0.20488E+05
 0.11999998E+01  0.20496E+05
 0.12499998E+01  0.20460E+05
 0.12999997E+01  0.20459E+05
 0.13499999E+01  0.20452E+05
 0.13999999E+01  0.20419E+05
 0.14499998E+01  0.20399E+05
 0.14999998E+01  0.20334E+05
 0.15499997E+01  0.20297E+05
 0.15999999E+01  0.20293E+05
 0.16499999E+01  0.20274E+05
 0.16999998E+01  0.20270E+05
 0.17499998E+01  0.20255E+05
 0.17999997E+01  0.20288E+05
 0.18499997E+01  0.20282E+05
 0.18999999E+01  0.20260E+05
 0.19499998E+01  0.20264E+05
 0.19999998E+01  0.20275E+05
 0.20499997E+01  0.20299E+05
 0.20999999E+01  0.20290E+05
 0.21499996E+01  0.20239E+05
 0.21999998E+01  0.20201E+05
 0.22499995E+01  0.20182E+05
 0.22999997E+01  0.20138E+05
 0.23499999E+01  0.20141E+05
 0.23999996E+01  0.20130E+05
 0.24499998E+01  0.20111E+05
 0.24999995E+01  0.20091E+05
 0.25499997E+01  0.20079E+05
 0.25999999E+01  0.20102E+05
 0.26499996E+01  0.20126E+05
 0.26999998E+01  0.20144E+05
 0.27499995E+01  0.20154E+05
 0.27999997E+01  0.20197E+05
 0.28499999E+01  0.20225E+05
 0.28999996E+01  0.20249E+05
 0.29499998E+01  0.20275E+05
 0.29999995E+01  0.20334E+05
 0.30499997E+01  0.20383E+05
 0.30999999E+01  0.20412E+05
 0.31499996E+01  0.20422E+05
 0.31999998E+01  0.20436E+05
 0.32499995E+01  0.20475E+05
 0.32999997E+01  0.20482E+05
 0.33499999E+01  0.20487E+05
 0.33999996E+01  0.20481E+05
 0.34499998E+01  0.20458E+05
 0.34999995E+01  0.20457E+05
 0.35499997E+01  0.20456E+05
 0.35999994E+01  0.20436E+05
 0.36499996E+01  0.20424E+05
 0.36999998E+01  0.20365E+05
 0.37499995E+01  0.20365E+05
 0.37999997E+01  0.20354E+05
 0.38499994E+01  0.20371E+05
 0.38999996E+01  0.20375E+05
 0.39499998E+01  0.20338E+05
 0.39999995E+01  0.20365E+05
 0.40499997E+01  0.20367E+05
 0.40999994E+01  0.20392E+05
 0.41499996E+01  0.20407E+05
 0.41999998E+01  0.20405E+05
 0.42499995E+01  0.20423E+05
 0.42999997E+01  0.20403E+05
 0.43499994E+01  0.20424E+05
 0.43999996E+01  0.20434E+05
 0.44499998E+01  0.20408E+05
 0.44999995E+01  0.20436E+05
 0.45499997E+01  0.20422E+05
 0.45999994E+01  0.20414E+05
 0.46499996E+01  0.20399E+05
 0.46999998E+01  0.20385E+05
 0.47499995E+01  0.20359E+05
 0.47999997E+01  0.20341E+05
 0.48499994E+01  0.20315E+05
 0.48999996E+01  0.20303E+05
 0.49499998E+01  0.20295E+05
 0.49999995E+01  0.20319E+05
 0.50499997E+01  0.20307E+05
 0.50999994E+01  0.20267E+05
 0.51499996E+01  0.20282E+05
 0.51999998E+01  0.20253E+05
 0.52499995E+01  0.20274E+05
 0.52999997E+01  0.20245E+05
 0.53499994E+01  0.20240E+05
 0.53999996E+01  0.20219E+05
 0.54499993E+01  0.20195E+05
 0.54999995E+01  0.20193E+05
 0.55499997E+01  0.20171E+05
 0.55999994E+01  0.20180E+05
 0.56499996E+01  0.20169E+05
 0.56999993E+01  0.20177E+05
 0.57499995E+01  0.20158E+05
 0.57999997E+01  0.20183E+05
 0.58499994E+01  0.20177E+05
 0.58999996E+01  0.20190E+05
 0.59499993E+01  0.20180E+05
 0.59999995E+01  0.20205E+05
 0.60499992E+01  0.20216E+05
 0.60999994E+01  0.20228E+05
 0.61499996E+01  0.20241E+05
 0.61999998E+01  0.20241E+05
 0.62499990E+01  0.20229E+05
 0.62999992E+01  0.20264E+05
 0.63499994E+01  0.20308E+05
 0.63999996E+01  0.20299E+05
 0.64499998E+01  0.20330E+05
 0.64999990E+01  0.20293E+05
 0.65499992E+01  0.20362E+05
 0.65999994E+01  0.20357E+05
 0.66499996E+01  0.20394E+05
 0.66999998E+01  0.20382E+05
 0.67499990E+01  0.20369E+05
 0.67999992E+01  0.20387E+05
 0.68499994E+01  0.20394E+05
 0.68999996E+01  0.20406E+05
 0.69499998E+01  0.20390E+05
 0.69999990E+01  0.20401E+05
 0.70499992E+01  0.20389E+05
 0.70999994E+01  0.20395E+05
 0.71499996E+01  0.20365E+05
 0.71999998E+01  0.20380E+05
 0.72499990E+01  0.20368E+05
 0.72999992E+01  0.20379E+05
 0.73499994E+01  0.20369E+05
 0.73999996E+01  0.20371E+05
 0.74499998E+01  0.20365E+05
 0.74999990E+01  0.20378E+05
 0.75499992E+01  0.20375E+05
 0.75999994E+01  0.20340E+05
 0.76499996E+01  0.20424E+05
 0.76999998E+01  0.20379E+05
 0.77499990E+01  0.20423E+05
 0.77999992E+01  0.20369E+05
 0.78499994E+01  0.20383E+05
 0.78999996E+01  0.20404E+05
 0.79499998E+01  0.20360E+05
 0.79999990E+01  0.20441E+05
 0.80499992E+01  0.20345E+05
 0.80999994E+01  0.20408E+05
 0.81499996E+01  0.20378E+05
 0.81999998E+01  0.20389E+05
 0.82499990E+01  0.20407E+05
 0.82999992E+01  0.20343E+05
 0.83499994E+01  0.20346E+05
 0.83999996E+01  0.20322E+05
 0.84499998E+01  0.20337E+05
 0.84999990E+01  0.20317E+05
 0.85499992E+01  0.20296E+05
 0.85999994E+01  0.20278E+05
 0.86499996E+01  0.20262E+05
 0.86999998E+01  0.20257E+05
 0.87499990E+01  0.20253E+05
 0.87999992E+01  0.20243E+05
 0.88499994E+01  0.20203E+05
 0.88999996E+01  0.20206E+05
 0.89499998E+01  0.20200E+05
 0.89999990E+01  0.20200E+05
 0.90499992E+01  0.20228E+05
 0.90999994E+01  0.20234E+05
 0.91499996E+01  0.20237E+05
 0.91999989E+01  0.20231E+05
 0.92499990E+01  0.20262E+05
 0.92999992E+01  0.20272E+05
 0.93499994E+01  0.20286E+05
 0.93999996E+01  0.20321E+05
 0.94499989E+01  0.20336E+05
 0.94999990E+01  0.20329E+05
 0.95499992E+01  0.20379E+05
 0.95999994E+01  0.20369E+05
 0.96499996E+01  0.20390E+05
 0.96999989E+01  0.20394E+05
 0.97499990E+01  0.20362E+05
 0.97999992E+01  0.20397E+05
 0.98499994E+01  0.20377E+05
 0.98999996E+01  0.20375E+05
 0.99499989E+01  0.20346E+05
 0.99999990E+01  0.20338E+05
 0.10049999E+02  0.20294E+05
 0.10099999E+02  0.20306E+05
 0.10150000E+02  0.20284E+05
 0.10199999E+02  0.20258E+05
 0.10249999E+02  0.20254E+05
 0.10299999E+02  0.20202E+05
 0.10349999E+02  0.20181E+05
 0.10400000E+02  0.20156E+05
 0.10449999E+02  0.20211E+05
 0.10499999E+02  0.20156E+05
 0.10549999E+02  0.20162E+05
 0.10599999E+02  0.20179E+05
 0.10650000E+02  0.20200E+05
 0.10699999E+02  0.20215E+05
 0.10749999E+02  0.20242E+05
 0.10799999E+02  0.20292E+05
 0.10849999E+02  0.20259E+05
 0.10900000E+02  0.20324E+05
 0.10949999E+02  0.20330E+05
 0.10999999E+02  0.20333E+05
 0.11049999E+02  0.20358E+05
 0.11099999E+02  0.20366E+05
 0.11150000E+02  0.20377E+05
 0.11199999E+02  0.20382E+05
 0.11249999E+02  0.20358E+05
 0.11299999E+02  0.20394E+05
 0.11349999E+02  0.20385E+05
 0.11400000E+02  0.20355E+05
 0.11449999E+02  0.20425E+05
 0.11499999E+02  0.20402E+05
 0.11549999E+02  0.20457E+05
 0.11599999E+02  0.20484E+05
 0.11650000E+02  0.20483E+05
 0.11699999E+02  0.20507E+05
 0.11749999E+02  0.20500E+05
 0.11799999E+02  0.20538E+05
 0.11849999E+02  0.20483E+05
 0.11900000E+02  0.20485E+05
 0.11949999E+02  0.20509E+05
 0.11999999E+02  0.20463E+05
 0.12049999E+02  0.20457E+05
 0.12099999E+02  0.20387E+05
 0.12150000E+02  0.20341E+05
 0.12199999E+02  0.20346E+05
 0.12249999E+02  0.20309E+05
 0.12299999E+02  0.20266E+05
 0.12349999E+02  0.20215E+05
 0.12400000E+02  0.20196E+05
 0.12449999E+02  0.20190E+05
 0.12499999E+02  0.20175E+05
 0.12549999E+02  0.20198E+05
 0.12599999E+02  0.20174E+05
 0.12649999E+02  0.20217E+05
 0.12699999E+02  0.20238E+05
 0.12749999E+02  0.20224E+05
 0.12799999E+02  0.20239E+05
 0.12849999E+02  0.20283E+05
 0.12899999E+02  0.20332E+05
 0.12949999E+02  0.20306E+05
 0.12999999E+02  0.20381E+05
 0.13049999E+02  0.20354E+05
 0.13099999E+02  0.20350E+05
 0.13149999E+02  0.20375E+05
 0.13199999E+02  0.20357E+05
 0.13249999E+02  0.20352E+05
 0.13299999E+02  0.20369E+05
 0.13349999E+02  0.20326E+05
 0.13399999E+02  0.20285E+05
 0.13449999E+02  0.20324E+05
 0.13499999E+02  0.20237E+05
 0.13549999E+02  0.20211E+05
 0.13599999E+02  0.20229E+05
 0.13649999E+02  0.20198E+05
 0.13699999E+02  0.20160E+05
 0.13749999E+02  0.20175E+05
 0.13799999E+02  0.20153E+05
 0.13849999E+02  0.20137E+05
 0.13899999E+02  0.20161E+05
 0.13949999E+02  0.20139E+05
 0.13999999E+02  0.20171E+05
 0.14049999E+02  0.20196E+05
 0.14099998E+02  0.20217E+05
 0.14150000E+02  0.20257E+05
 0.14199999E+02  0.20270E+05
 0.14249998E+02  0.20319E+05
 0.14299999E+02  0.20360E+05
 0.14349998E+02  0.20408E+05
 0.14400000E+02  0.20450E+05
 0.14449999E+02  0.20462E+05
 0.14499998E+02  0.20519E+05
 0.14549999E+02  0.20493E+05
 0.14599998E+02  0.20502E+05
 0.14650000E+02  0.20533E+05
 0.14699999E+02  0.20495E+05
 0.14749998E+02  0.20486E+05
 0.14799999E+02  0.20476E+05
 0.14849998E+02  0.20459E+05
 0.14900000E+02  0.20431E+05
 0.14949999E+02  0.20416E+05
 0.14999998E+02  0.20387E+05
 0.15049999E+02  0.20356E+05
 0.15099998E+02  0.20340E+05
 0.15150000E+02  0.20293E+05
 0.15199999E+02  0.20239E+05
 0.15249998E+02  0.20270E+05
 0.15299999E+02  0.20229E+05
 0.15349998E+02  0.20189E+05
 0.15400000E+02  0.20238E+05
 0.15449999E+02  0.20204E+05
 0.15499998E+02  0.20198E+05
 0.15549999E+02  0.20259E+05
 0.15599998E+02  0.20222E+05
 0.15650000E+02  0.20222E+05
 0.15699999E+02  0.20291E+05
 0.15749998E+02  0.20280E+05
 0.15799999E+02  0.20317E+05
 0.15849998E+02  0.20328E+05
 0.15900000E+02  0.20334E+05
 0.15949999E+02  0.20350E+05
 0.15999998E+02  0.20382E+05
 0.16049999E+02  0.20410E+05
 0.16099998E+02  0.20418E+05
 0.16150000E+02  0.20393E+05
 0.16199999E+02  0.20398E+05
 0.16249998E+02  0.20391E+05
 0.16299999E+02  0.20356E+05
 0.16349998E+02  0.20360E+05
 0.16400000E+02  0.20319E+05
 0.16449999E+02  0.20313E+05
 0.16499998E+02  0.20252E+05
 0.16549999E+02  0.20197E+05
 0.16599998E+02  0.20210E+05
 0.16650000E+02  0.20210E+05
 0.16699999E+02  0.20177E+05
 0.16749998E+02  0.20200E+05
 0.16799999E+02  0.20196E+05
 0.16849998E+02  0.20186E+05
 0.16900000E+02  0.20229E+05
 0.16949999E+02  0.20231E+05
 0.16999998E+02  0.20253E+05
 0.17049999E+02  0.20285E+05
 0.17099998E+02  0.20275E+05
 0.17150000E+02  0.20308E+05
 0.17199999E+02  0.20335E+05
 0.17249998E+02  0.20311E+05
 0.17299999E+02  0.20333E+05
 0.17349998E+02  0.20342E+05
 0.17400000E+02  0.20346E+05
 0.17449999E+02  0.20357E+05
 0.17499998E+02  0.20342E+05
 0.17549999E+02  0.20357E+05
 0.17599998E+02  0.20382E+05
 0.17650000E+02  0.20370E+05
 0.17699999E+02  0.20405E+05
 0.17749998E+02  0.20403E+05
 0.17799999E+02  0.20374E+05
 0.17849998E+02  0.20415E+05
 0.17900000E+02  0.20426E+05
 0.17949999E+02  0.20401E+05
 0.17999998E+02  0.20388E+05
 0.18049999E+02  0.20385E+05
 0.18099998E+02  0.20376E+05
 0.18150000E+02  0.20366E+05
 0.18199999E+02  0.20365E+05
 0.18249998E+02  0.20343E+05
 0.18299999E+02  0.20324E+05
 0.18349998E+02  0.20327E+05
 0.18400000E+02  0.20339E+05
 0.18449999E+02  0.20311E+05
 0.18499998E+02  0.20314E+05
 0.18549999E+02  0.20342E+05
 0.18599998E+02  0.20336E+05
 0.18650000E+02  0.20346E+05
 0.18699999E+02  0.20356E+05
 0.18749998E+02  0.20360E+05
 0.18799999E+02  0.20354E+05
 0.18849998E+02  0.20333E+05
 0.18900000E+02  0.20340E+05
 0.18949999E+02  0.20340E+05
 0.18999998E+02  0.20347E+05
 0.19049999E+02  0.20349E+05
 0.19099998E+02  0.20319E+05
 0.19150000E+02  0.20338E+05
 0.19199999E+02  0.20308E+05
 0.19249998E+02  0.20289E+05
 0.19299999E+02  0.20272E+05
 0.19349998E+02  0.20244E+05
 0.19400000E+02  0.20240E+05
 0.19449999E+02  0.20205E+05
 0.19499998E+02  0.20190E+05
 0.19549999E+02  0.20193E+05
 0.19599998E+02  0.20164E+05
 0.19650000E+02  0.20163E+05
 0.19699999E+02  0.20165E+05
 0.19749998E+02  0.20157E+05
 0.19799999E+02  0.20196E+05
 0.19849998E+02  0.20181E+05
 0.19900000E+02  0.20193E+05
 0.19949999E+02  0.20228E+05
 0.19999998E+02  0.20223E+05
 0.20049999E+02  0.20253E+05
 0.20099998E+02  0.20302E+05
 0.20150000E+02  0.20287E+05
 0.20199999E+02  0.20310E+05
 0.20249998E+02  0.20337E+05
 0.20299999E+02  0.20343E+05
 0.20349998E+02  0.20377E+05
 0.20399998E+02  0.20357E+05
 0.20449999E+02  0.20396E+05
 0.20499998E+02  0.20393E+05
 0.20549999E+02  0.20367E+05
 0.20599998E+02  0.20377E+05
 0.20649998E+02  0.20336E+05
 0.20699999E+02  0.20343E+05
 0.20749998E+02  0.20367E+05
 0.20799999E+02  0.20255E+05
 0.20849998E+02  0.20271E+05
 0.20899998E+02  0.20121E+05
 0.20949999E+02  0.20285E+05
 0.20999998E+02  0.20212E+05
 0.21049999E+02  0.20378E+05
 0.21099998E+02  0.20446E+05
 0.21149998E+02  0.20413E+05
 0.21199999E+02  0.20157E+05
 0.21249998E+02  0.20217E+05
 0.21299999E+02  0.20281E+05
 0.21349998E+02  0.19890E+05
 0.21399998E+02  0.19751E+05
 0.21449999E+02  0.20339E+05
 0.21499998E+02  0.20045E+05
 0.21549999E+02  0.19759E+05
 0.21599998E+02  0.20664E+05
 0.21649998E+02  0.19232E+05
 0.21699999E+02  0.23848E+05
 0.21749998E+02  0.17633E+05
 0.21799999E+02  0.21229E+05
 0.21849998E+02  0.24106E+05
 0.21899998E+02  0.15001E+05
 0.21949999E+02  0.22842E+05
 0.21999998E+02  0.20600E+05
 0.22049999E+02  0.21358E+05
 0.22099998E+02  0.21478E+05
 0.22149998E+02  0.21596E+05
 0.22199999E+02  0.20925E+05
 0.22249998E+02  0.19086E+05
 0.22299999E+02  0.21559E+05
 0.22349998E+02  0.19172E+05
 0.22399998E+02  0.21951E+05
 0.22449999E+02  0.21918E+05
 0.22499998E+02  0.18456E+05
 0.22549999E+02  0.18845E+05
 0.22599998E+02  0.20559E+05
 0.22649998E+02  0.18264E+05
 0.22699999E+02  0.24449E+05
 0.22749998E+02  0.18080E+05
 0.22799999E+02  0.22609E+05
 0.22849998E+02  0.21292E+05
 0.22899998E+02  0.18328E+05
 0.22949999E+02  0.21278E+05
 0.22999998E+02  0.11668E+05
 0.23049999E+02  0.22331E+05
 0.23099998E+02  0.19705E+05
 0.23149998E+02  0.23707E+05
 0.23199999E+02  0.18594E+05
 0.23249998E+02  0.19705E+05
 0.23299999E+02  0.19611E+05
 0.23349998E+02  0.16611E+05
 0.23399998E+02  0.23117E+05
 0.23449999E+02  0.20374E+05
 0.23499998E+02  0.19985E+05
 0.23549999E+02  0.15890E+05
 0.23599998E+02  0.20460E+05
 0.23649998E+02  0.28159E+05
 0.23699999E+02  0.15278E+05
 0.23749998E+02  0.18693E+05
 0.23799999E+02  0.27395E+05
 0.23849998E+02  0.14842E+05
 0.23899998E+02  0.25263E+05
 0.23949999E+02  0.20806E+05
 0.23999998E+02  0.20038E+05
 0.24049999E+02  0.15551E+05
 0.24099998E+02  0.21742E+05
 0.24149998E+02  0.20922E+05
 0.24199999E+02  0.21259E+05
 0.24249998E+02  0.27090E+05
 0.24299999E+02  0.17157E+05
 0.24349998E+02  0.23835E+05
 0.24399998E+02  0.16120E+05
 0.24449999E+02  0.18858E+05
 0.24499998E+02  0.23186E+05
 0.24549999E+02  0.18082E+05
 0.24599998E+02  0.16557E+05
 0.24649998E+02  0.21904E+05
 0.24699999E+02  0.26915E+05
 0.24749998E+02  0.19693E+05
 0.24799999E+02  0.18613E+05
 0.24849998E+02  0.25890E+05
 0.24899998E+02  0.19685E+05
 0.24949999E+02  0.18790E+05
 0.24999998E+02  0.20447E+05
 0.25049999E+02  0.16035E+05
 0.25099998E+02  0.14469E+05
 0.25149998E+02  0.25634E+05
 0.25199999E+02  0.18102E+05
 0.25249998E+02  0.19627E+05
 0.25299999E+02  0.16040E+05
 0.25349998E+02  0.17808E+05
 0.25399998E+02  0.26530E+05
 0.25449999E+02  0.16187E+05
 0.25499998E+02  0.25886E+05
 0.25549999E+02  0.19004E+05
 0.25599998E+02  0.16598E+05
 0.25649998E+02  0.17026E+05
 0.25699999E+02  0.27784E+05
 0.25749998E+02  0.23909E+05
 0.25799999E+02  0.21500E+05
 0.25849998E+02  0.17189E+05
 0.25899998E+02  0.13080E+05
 0.25949999E+02  0.22407E+05
 0.25999998E+02  0.22630E+05
 0.26049999E+02  0.27823E+05
 0.26099998E+02  0.26684E+05
 0.26149998E+02  0.19231E+05
 0.26199999E+02  0.17152E+05
 0.26249998E+02  0.26114E+05
 0.26299999E+02  0.12816E+05
 0.26349998E+02  0.11576E+05
 0.26399998E+02  0.16785E+05
 0.26449999E+02  0.25653E+05
 0.26499998E+02  0.25869E+05
 0.26549999E+02  0.19105E+05
 0.26599998E+02  0.17207E+05
 0.26649998E+02  0.19421E+05
 0.26699999E+02  0.18444E+05
 0.26749998E+02  0.18640E+05
 0.26799999E+02  0.23286E+05
 0.26849998E+02  0.14777E+05
 0.26899998E+02  0.24480E+05
 0.26949999E+02  0.18341E+05
 0.26999998E+02  0.23490E+05
 0.27049997E+02  0.21915E+05
 0.27099998E+02  0.21883E+05
 0.27149998E+02  0.21269E+05
 0.27199999E+02  0.17022E+05
 0.27249998E+02  0.21630E+05
 0.27299997E+02  0.21167E+05
 0.27349998E+02  0.17203E+05
 0.27399998E+02  0.15907E+05
 0.27449999E+02  0.19307E+05
 0.27499998E+02  0.20526E+05
 0.27549997E+02  0.27606E+05
 0.27599998E+02  0.17920E+05
 0.27649998E+02  0.23938E+05
 0.27699999E+02  0.21054E+05
 0.27749998E+02  0.18620E+05
 0.27799997E+02  0.25401E+05
 0.27849998E+02  0.18265E+05
 0.27899998E+02  0.18703E+05
 0.27949999E+02  0.16019E+05
 0.27999998E+02  0.23720E+05
 0.28049997E+02  0.25404E+05
 0.28099998E+02  0.12894E+05
 0.28149998E+02  0.19416E+05
 0.28199999E+02  0.20386E+05
 0.28249998E+02  0.22840E+05
 0.28299997E+02  0.20955E+05
 0.28349998E+02  0.21667E+05
 0.28399998E+02  0.18619E+05
 0.28449999E+02  0.20884E+05
 0.28499998E+02  0.26804E+05
 0.28549997E+02  0.20514E+05
 0.28599998E+02  0.20974E+05
 0.28649998E+02  0.15284E+05
 0.28699999E+02  0.18861E+05
 0.28749998E+02  0.13584E+05
 0.28799997E+02  0.19076E+05
 0.28849998E+02  0.20720E+05
 0.28899998E+02  0.19426E+05
 0.28949999E+02  0.27997E+05
 0.28999998E+02  0.22539E+05
 0.29049997E+02  0.19560E+05
 0.29099998E+02  0.21186E+05
 0.29149998E+02  0.23854E+05
 0.29199999E+02  0.18369E+05
 0.29249998E+02  0.18772E+05
 0.29299997E+02  0.23153E+05
 0.29349998E+02  0.17490E+05
 0.29399998E+02  0.16718E+05
 0.29449999E+02  0.16156E+05
 0.29499998E+02  0.20140E+05
 0.29549997E+02  0.25688E+05
 0.29599998E+02  0.20903E+05
 0.29649998E+02  0.17728E+05
 0.29699999E+02  0.18075E+05
 0.29749998E+02  0.19394E+05
 0.29799997E+02  0.22751E+05
 0.29849998E+02  0.20555E+05
 0.29899998E+02  0.21111E+05
 0.29949999E+02  0.25330E+05
 0.29999998E+02  0.17235E+05
 0.30049999E+02  0.14301E+05
 0.30099998E+02  0.15177E+05
 0.30149998E+02  0.18433E+05
 0.30199997E+02  0.25376E+05
 0.30249996E+02  0.21311E+05
 0.30299999E+02  0.24099E+05
 0.30349998E+02  0.23784E+05
 0.30399998E+02  0.19399E+05
 0.30449997E+02  0.20115E+05
 0.30499996E+02  0.20332E+05
 0.30549999E+02  0.25776E+05
 0.30599998E+02  0.26455E+05
 0.30649998E+02  0.19522E+05
 0.30699997E+02  0.14187E+05
 0.30749996E+02  0.16591E+05
 0.30799999E+02  0.16322E+05
 0.30849998E+02  0.19993E+05
 0.30899998E+02  0.15924E+05
 0.30949997E+02  0.15717E+05
 0.30999996E+02  0.17679E+05
 0.31049999E+02  0.20879E+05
 0.31099998E+02  0.29099E+05
 0.31149998E+02  0.23927E+05
 0.31199997E+02  0.25703E+05
 0.31249996E+02  0.20446E+05
 0.31299999E+02  0.18029E+05
 0.31349998E+02  0.20616E+05
 0.31399998E+02  0.20334E+05
 0.31449997E+02  0.19706E+05
 0.31499996E+02  0.19143E+05
 0.31549999E+02  0.20150E+05
 0.31599998E+02  0.24087E+05
 0.31649998E+02  0.24493E+05
 0.31699997E+02  0.23007E+05
 0.31749996E+02  0.18269E+05
 0.31799999E+02  0.12946E+05
 0.31849998E+02  0.18760E+05
 0.31899998E+02  0.17861E+05
 0.31949997E+02  0.20543E+05
 0.31999996E+02  0.22321E+05
 0.32049999E+02  0.21683E+05
 0.32099998E+02  0.19056E+05
 0.32149998E+02  0.20182E+05
 0.32199997E+02  0.19105E+05
 0.32249996E+02  0.23462E+05
 0.32299999E+02  0.23315E+05
 0.32349998E+02  0.13767E+05
 0.32399998E+02  0.15567E+05
 0.32449997E+02  0.20668E+05
 0.32499996E+02  0.19907E+05
 0.32549999E+02  0.16130E+05
 0.32599998E+02  0.20573E+05
 0.32649998E+02  0.24669E+05
 0.32699997E+02  0.26017E+05
 0.32749996E+02  0.24814E+05
 0.32799999E+02  0.22998E+05
 0.32849998E+02  0.24213E+05
 0.32899998E+02  0.22935E+05
 0.32949997E+02  0.20173E+05
 0.32999996E+02  0.17737E+05
 0.33049999E+02  0.10132E+05
 0.33099998E+02  0.14631E+05
 0.33149998E+02  0.25060E+05
 0.33199997E+02  0.20698E+05
 0.33249996E+02  0.16356E+05
 0.33299999E+02  0.19503E+05
 0.33349998E+02  0.23469E+05
 0.33399998E+02  0.27258E+05
 0.33449997E+02  0.20732E+05
 0.33499996E+02  0.19191E+05
 0.33549999E+02  0.21590E+05
 0.33599998E+02  0.19257E+05
 0.33649998E+02  0.18347E+05
 0.33699997E+02  0.10474E+05
 0.33749996E+02  0.17497E+05
 0.33799999E+02  0.24956E+05
 0.33849998E+02  0.22564E+05
 0.33899998E+02  0.22911E+05
 0.33949997E+02  0.20834E+05
 0.33999996E+02  0.21204E+05
 0.34049999E+02  0.22672E+05
 0.34099998E+02  0.21661E+05
 0.34149998E+02  0.20283E+05
 0.34199997E+02  0.21549E+05
 0.34249996E+02  0.21001E+05
 0.34299999E+02  0.22943E+05
 0.34349998E+02  0.15984E+05
 0.34399998E+02  0.13140E+05
 0.34449997E+02  0.20052E+05
 0.34499996E+02  0.20728E+05
 0.34549999E+02  0.22210E+05
 0.34599998E+02  0.19995E+05
 0.34649998E+02  0.23127E+05
 0.34699997E+02  0.21525E+05
 0.34749996E+02  0.15773E+05
 0.34799999E+02  0.19323E+05
 0.34849998E+02  0.12668E+05
 0.34899998E+02  0.18652E+05
 0.34949997E+02  0.23816E+05
 0.34999996E+02  0.24354E+05
 0.35049999E+02  0.21863E+05
 0.35099998E+02  0.19325E+05
 0.35149998E+02  0.20696E+05
 0.35199997E+02  0.12180E+05
 0.35249996E+02  0.19921E+05
 0.35299999E+02  0.26248E+05
 0.35349998E+02  0.27165E+05
 0.35399998E+02  0.25133E+05
 0.35449997E+02  0.20519E+05
 0.35499996E+02  0.18883E+05
 0.35549999E+02  0.25457E+05
 0.35599998E+02  0.19875E+05
 0.35649998E+02  0.14042E+05
 0.35699997E+02  0.17140E+05
 0.35749996E+02  0.16101E+05
 0.35799999E+02  0.24995E+05
 0.35849998E+02  0.22658E+05
 0.35899998E+02  0.19286E+05
 0.35949997E+02  0.15369E+05
 0.35999996E+02  0.14089E+05
 0.36049999E+02  0.16085E+05
 0.36099998E+02  0.17494E+05
 0.36149998E+02  0.24636E+05
 0.36199997E+02  0.26112E+05
 0.36249996E+02  0.29524E+05
 0.36299999E+02  0.22125E+05
 0.36349998E+02  0.23611E+05
 0.36399998E+02  0.23038E+05
 0.36449997E+02  0.17375E+05
 0.36499996E+02  0.15131E+05
 0.36549999E+02  0.15824E+05
 0.36599998E+02  0.20653E+05
 0.36649998E+02  0.19109E+05
 0.36699997E+02  0.19096E+05
 0.36749996E+02  0.17447E+05
 0.36799999E+02  0.20849E+05
 0.36849998E+02  0.17768E+05
 0.36899998E+02  0.20093E+05
 0.36949997E+02  0.20703E+05
 0.36999996E+02  0.22009E+05
 0.37049999E+02  0.22092E+05
 0.37099998E+02  0.23667E+05
 0.37149998E+02  0.23850E+05
 0.37199997E+02  0.19407E+05
 0.37249996E+02  0.20842E+05
 0.37299999E+02  0.17593E+05
 0.37349998E+02  0.20570E+05
 0.37399998E+02  0.20091E+05
 0.37449997E+02  0.23457E+05
 0.37499996E+02  0.21664E+05
 0.37549999E+02  0.17111E+05
 0.37599998E+02  0.24432E+05
 0.37649998E+02  0.24268E+05
 0.37699997E+02  0.20908E+05
 0.37749996E+02  0.13992E+05
 0.37799999E+02  0.10771E+05
 0.37849998E+02  0.19310E+05
 0.37899998E+02  0.28273E+05
 0.37949997E+02  0.23867E+05
 0.37999996E+02  0.13022E+05
 0.38049999E+02  0.17185E+05
 0.38099998E+02  0.27421E+05
 0.38149998E+02  0.26980E+05
 0.38199997E+02  0.12374E+05
 0.38249996E+02  0.93232E+04
 0.38299999E+02  0.21069E+05
 0.38349998E+02  0.26685E+05
 0.38399998E+02  0.24861E+05
 0.38449997E+02  0.14129E+05
 0.38499996E+02  0.21374E+05
 0.38549999E+02  0.27943E+05
 0.38599998E+02  0.19912E+05
 0.38649998E+02  0.19745E+05
 0.38699997E+02  0.17073E+05
 0.38749996E+02  0.17944E+05
 0.38799999E+02  0.21488E+05
 0.38849998E+02  0.26146E+05
 0.38899998E+02  0.24409E+05
 0.38949997E+02  0.15003E+05
 0.38999996E+02  0.20600E+05
 0.39049999E+02  0.25025E+05
 0.39099998E+02  0.19500E+05
 0.39149998E+02  0.19562E+05
 0.39199997E+02  0.21949E+05
 0.39249996E+02  0.23429E+05
 0.39299999E+02  0.20787E+05
 0.39349998E+02  0.16594E+05
 0.39399998E+02  0.20412E+05
 0.39449997E+02  0.25536E+05
 0.39499996E+02  0.18327E+05
 0.39549999E+02  0.18313E+05
 0.39599998E+02  0.23268E+05
 0.39649998E+02  0.19287E+05
 0.39699997E+02  0.21246E+05
 0.39749996E+02  0.17891E+05
 0.39799999E+02  0.19075E+05
 0.39849998E+02  0.23600E+05
 0.39899998E+02  0.15712E+05
 0.39949997E+02  0.19162E+05
 0.39999996E+02  0.27445E+05
 0.40049999E+02  0.21883E+05
 0.40099998E+02  0.12731E+05
 0.40149998E+02  0.11913E+05
 0.40199997E+02  0.15355E+05
 0.40249996E+02  0.18889E+05
 0.40299999E+02  0.20966E+05
 0.40349998E+02  0.27807E+05
 0.40399998E+02  0.27047E+05
 0.40449997E+02  0.19746E+05
 0.40499996E+02  0.18619E+05
 0.40549999E+02  0.16405E+05
 0.40599998E+02  0.23066E+05
 0.40649998E+02  0.21158E+05
 0.40699997E+02  0.19350E+05
 0.40749996E+02  0.27004E+05
 0.40799999E+02  0.27593E+05
 0.40849998E+02  0.21808E+05
 0.40899998E+02  0.13817E+05
 0.40949997E+02  0.22737E+05
 0.40999996E+02  0.29944E+05
 0.41049999E+02  0.13820E+05
 0.41099998E+02  0.11046E+05
 0.41149998E+02  0.15457E+05
 0.41199997E+02  0.90373E+04
 0.41249996E+02  0.97852E+04
 0.41299999E+02  0.17565E+05
 0.41349998E+02  0.22113E+05
 0.41399998E+02  0.21229E+05
 0.41449997E+02  0.21106E+05
 0.41499996E+02  0.19291E+05
 0.41549999E+02  0.22174E+05
 0.41599998E+02  0.26098E+05
 0.41649998E+02  0.25110E+05
 0.41699997E+02  0.29106E+05
 0.41749996E+02  0.31253E+05
 0.41799999E+02  0.24899E+05
 0.41849998E+02  0.22249E+05
 0.41899998E+02  0.17006E+05
 0.41949997E+02  0.11495E+05
 0.41999996E+02  0.20594E+05
 0.42049999E+02  0.20522E+05
 0.42099998E+02  0.16576E+05
 0.42149998E+02  0.20023E+05
 0.42199997E+02  0.17604E+05
 0.42249996E+02  0.15627E+05
 0.42299999E+02  0.20607E+05
 0.42349998E+02  0.27198E+05
 0.42399998E+02  0.23034E+05
 0.42449997E+02  0.19112E+05
 0.42499996E+02  0.12048E+05
 0.42549999E+02  0.14172E+05
 0.42599998E+02  0.18429E+05
 0.42649998E+02  0.16974E+05
 0.42699997E+02  0.25249E+05
 0.42749996E+02  0.26328E+05
 0.42799995E+02  0.25112E+05
 0.42849998E+02  0.18662E+05
 0.42899998E+02  0.17082E+05
 0.42949997E+02  0.22033E+05
 0.42999996E+02  0.21412E+05
 0.43049995E+02  0.16919E+05
 0.43099998E+02  0.18902E+05
 0.43149998E+02  0.21100E+05
 0.43199997E+02  0.24765E+05
 0.43249996E+02  0.30302E+05
 0.43299995E+02  0.20634E+05
 0.43349998E+02  0.19441E+05
 0.43399998E+02  0.21765E+05
 0.43449997E+02  0.19598E+05
 0.43499996E+02  0.17243E+05
 0.43549995E+02  0.21069E+05
 0.43599998E+02  0.17757E+05
 0.43649998E+02  0.16611E+05
 0.43699997E+02  0.23713E+05
 0.43749996E+02  0.20751E+05
 0.43799995E+02  0.19705E+05
 0.43849998E+02  0.19830E+05
 0.43899998E+02  0.21921E+05
 0.43949997E+02  0.16140E+05
 0.43999996E+02  0.18708E+05
 0.44049995E+02  0.24391E+05
 0.44099998E+02  0.19985E+05
 0.44149998E+02  0.17861E+05
 0.44199997E+02  0.18494E+05
 0.44249996E+02  0.16424E+05
 0.44299995E+02  0.15771E+05
 0.44349998E+02  0.22345E+05
 0.44399998E+02  0.22033E+05
 0.44449997E+02  0.22343E+05
 0.44499996E+02  0.27927E+05
 0.44549995E+02  0.24677E+05
 0.44599998E+02  0.19689E+05
 0.44649998E+02  0.16807E+05
 0.44699997E+02  0.15617E+05
 0.44749996E+02  0.17776E+05
 0.44799995E+02  0.20318E+05
 0.44849998E+02  0.20611E+05
 0.44899998E+02  0.21858E+05
 0.44949997E+02  0.24848E+05
 0.44999996E+02  0.25938E+05
 0.45049995E+02  0.23480E+05
 0.45099998E+02  0.17163E+05
 0.45149998E+02  0.14366E+05
 0.45199997E+02  0.13799E+05
 0.45249996E+02  0.19908E+05
 0.45299995E+02  0.20791E+05
 0.45349998E+02  0.21626E+05
 0.45399998E+02  0.22643E+05
 0.45449997E+02  0.19867E+05
 0.45499996E+02  0.17458E+05
 0.45549995E+02  0.19470E+05
 0.45599998E+02  0.23564E+05
 0.45649998E+02  0.23369E+05
 0.45699997E+02  0.22807E+05
 0.45749996E+02  0.15390E+05
 0.45799995E+02  0.19523E+05
 0.45849998E+02  0.21752E+05
 0.45899998E+02  0.21456E+05
 0.45949997E+02  0.18762E+05
 0.45999996E+02  0.11980E+05
 0.46049995E+02  0.18870E+05
 0.46099998E+02  0.25571E+05
 0.46149998E+02  0.19538E+05
 0.46199997E+02  0.13680E+05
 0.46249996E+02  0.19199E+05
 0.46299995E+02  0.22904E+05
 0.46349998E+02  0.21730E+05
 0.46399998E+02  0.20650E+05
 0.46449997E+02  0.22447E+05
 0.46499996E+02  0.24564E+05
 0.46549995E+02  0.22684E+05
 0.46599998E+02  0.19125E+05
 0.46649998E+02  0.21002E+05
 0.46699997E+02  0.24912E+05
 0.46749996E+02  0.26163E+05
 0.46799995E+02  0.20269E+05
 0.46849998E+02  0.17163E+05
 0.46899998E+02  0.20704E+05
 0.46949997E+02  0.19012E+05
 0.46999996E+02  0.17292E+05
 0.47049995E+02  0.19193E+05
 0.47099998E+02  0.22476E+05
 0.47149998E+02  0.20253E+05
 0.47199997E+02  0.16228E+05
 0.47249996E+02  0.16979E+05
 0.47299995E+02  0.19001E+05
 0.47349998E+02  0.21623E+05
 0.47399998E+02  0.23079E+05
 0.47449997E+02  0.19922E+05
 0.47499996E+02  0.21894E+05
 0.47549995E+02  0.27781E+05
 0.47599998E+02  0.22376E+05
 0.47649998E+02  0.15279E+05
 0.47699997E+02  0.14737E+05
 0.47749996E+02  0.15545E+05
 0.47799995E+02  0.16252E+05
 0.47849998E+02  0.18357E+05
 0.47899998E+02  0.17300E+05
 0.47949997E+02  0.18233E+05
 0.47999996E+02  0.22112E+05
 0.48049995E+02  0.21028E+05
 0.48099998E+02  0.24167E+05
 0.48149998E+02  0.27295E+05
 0.48199997E+02  0.23285E+05
 0.48249996E+02  0.21325E+05
 0.48299995E+02  0.21437E+05
 0.48349998E+02  0.22187E+05
 0.48399998E+02  0.19050E+05
 0.48449997E+02  0.16797E+05
 0.48499996E+02  0.17541E+05
 0.48549995E+02  0.17321E+05
 0.48599998E+02  0.16841E+05
 0.48649998E+02  0.15564E+05
 0.48699997E+02  0.18740E+05
 0.48749996E+02  0.22408E+05
 0.48799995E+02  0.27062E+05
 0.48849998E+02  0.30029E+05
 0.48899998E+02  0.26757E+05
 0.48949997E+02  0.24151E+05
 0.48999996E+02  0.24159E+05
 0.49049995E+02  0.20972E+05
 0.49099998E+02  0.15560E+05
 0.49149998E+02  0.12599E+05
 0.49199997E+02  0.11555E+05
 0.49249996E+02  0.13024E+05
 0.49299995E+02  0.17558E+05
 0.49349998E+02  0.19572E+05
 0.49399998E+02  0.22668E+05
 0.49449997E+02  0.25051E+05
 0.49499996E+02  0.22713E+05
 0.49549995E+02  0.19607E+05
 0.49599998E+02  0.21009E+05
 0.49649998E+02  0.24107E+05
 0.49699997E+02  0.22801E+05
 0.49749996E+02  0.21429E+05
 0.49799995E+02  0.22926E+05
 0.49849998E+02  0.22611E+05
 0.49899998E+02  0.20641E+05
 0.49949997E+02  0.19050E+05
 0.49999996E+02  0.15885E+05
 0.50049995E+02  0.16096E+05
 0.50099998E+02  0.16900E+05
 0.50149998E+02  0.21125E+05
 0.50199997E+02  0.23798E+05
 0.50249996E+02  0.23389E+05
 0.50299995E+02  0.23003E+05
 0.50349998E+02  0.18139E+05
 0.50399998E+02  0.17382E+05
 0.50449997E+02  0.20451E+05
 0.50499996E+02  0.23340E+05
 0.50549995E+02  0.24218E+05
 0.50599998E+02  0.23229E+05
 0.50649998E+02  0.21990E+05
 0.50699997E+02  0.19915E+05
 0.50749996E+02  0.18429E+05
 0.50799995E+02  0.16154E+05
 0.50849998E+02  0.17141E+05
 0.50899998E+02  0.20035E+05
 0.50949997E+02  0.19573E+05
 0.50999996E+02  0.22702E+05
 0.51049995E+02  0.25088E+05
 0.51099998E+02  0.25275E+05
 0.51149998E+02  0.24190E+05
 0.51199997E+02  0.21877E+05
 0.51249996E+02  0.21600E+05
 0.51299995E+02  0.18127E+05
 0.51349998E+02  0.15400E+05
 0.51399998E+02  0.15824E+05
 0.51449997E+02  0.16743E+05
 0.51499996E+02  0.18224E+05
 0.51549995E+02  0.20532E+05
 0.51599998E+02  0.20457E+05
 0.51649998E+02  0.19290E+05
 0.51699997E+02  0.20889E+05
 0.51749996E+02  0.19560E+05
 0.51799995E+02  0.19218E+05
 0.51849998E+02  0.21300E+05
 0.51899998E+02  0.20068E+05
 0.51949997E+02  0.18686E+05
 0.51999996E+02  0.17157E+05
 0.52049995E+02  0.15226E+05
 0.52099998E+02  0.17534E+05
 0.52149998E+02  0.20608E+05
 0.52199997E+02  0.21044E+05
 0.52249996E+02  0.22442E+05
 0.52299995E+02  0.20684E+05
 0.52349998E+02  0.21724E+05
 0.52399998E+02  0.23266E+05
 0.52449997E+02  0.21010E+05
 0.52499996E+02  0.21777E+05
 0.52549995E+02  0.22313E+05
 0.52599998E+02  0.20657E+05
 0.52649998E+02  0.18799E+05
 0.52699997E+02  0.19199E+05
 0.52749996E+02  0.17604E+05
 0.52799995E+02  0.18102E+05
 0.52849998E+02  0.20382E+05
 0.52899998E+02  0.19838E+05
 0.52949997E+02  0.19196E+05
 0.52999996E+02  0.21409E+05
 0.53049995E+02  0.25005E+05
 0.53099998E+02  0.22656E+05
 0.53149998E+02  0.21902E+05
 0.53199997E+02  0.21508E+05
 0.53249996E+02  0.20436E+05
 0.53299995E+02  0.22007E+05
 0.53349998E+02  0.19192E+05
 0.53399998E+02  0.16669E+05
 0.53449997E+02  0.18948E+05
 0.53499996E+02  0.23096E+05
 0.53549995E+02  0.24448E+05
 0.53599998E+02  0.22187E+05
 0.53649998E+02  0.19503E+05
 0.53699997E+02  0.20915E+05
 0.53749996E+02  0.23826E+05
 0.53799995E+02  0.21810E+05
 0.53849998E+02  0.19372E+05
 0.53899998E+02  0.21692E+05
 0.53949997E+02  0.21956E+05
 0.53999996E+02  0.18860E+05
 0.54049995E+02  0.18050E+05
 0.54099998E+02  0.20088E+05
 0.54149998E+02  0.23344E+05
 0.54199997E+02  0.24664E+05
 0.54249996E+02  0.24087E+05
 0.54299995E+02  0.21430E+05
 0.54349998E+02  0.19371E+05
 0.54399998E+02  0.18126E+05
 0.54449997E+02  0.17387E+05
 0.54499996E+02  0.19649E+05
 0.54549995E+02  0.20677E+05
 0.54599998E+02  0.20669E+05
 0.54649998E+02  0.20306E+05
 0.54699997E+02  0.20330E+05
 0.54749996E+02  0.19365E+05
 0.54799995E+02  0.16395E+05
 0.54849998E+02  0.16305E+05
 0.54899998E+02  0.17085E+05
 0.54949997E+02  0.18614E+05
 0.54999996E+02  0.21578E+05
 0.55049995E+02  0.23535E+05
 0.55099998E+02  0.22774E+05
 0.55149998E+02  0.21502E+05
 0.55199997E+02  0.20557E+05
 0.55249996E+02  0.18917E+05
 0.55299995E+02  0.20330E+05
 0.55349998E+02  0.21490E+05
 0.55399998E+02  0.18818E+05
 0.55449997E+02  0.14843E+05
 0.55499996E+02  0.13994E+05
 0.55549995E+02  0.17771E+05
 0.55599998E+02  0.20726E+05
 0.55649998E+02  0.21511E+05
 0.55699997E+02  0.20743E+05
 0.55749996E+02  0.18643E+05
 0.55799995E+02  0.18134E+05
 0.55849995E+02  0.16983E+05
 0.55899998E+02  0.18567E+05
 0.55949997E+02  0.20642E+05
 0.55999996E+02  0.18856E+05
 0.56049995E+02  0.17942E+05
 0.56099995E+02  0.18269E+05
 0.56149998E+02  0.20072E+05
 0.56199997E+02  0.20473E+05
 0.56249996E+02  0.19858E+05
 0.56299995E+02  0.20672E+05
 0.56349995E+02  0.19833E+05
 0.56399998E+02  0.16977E+05
 0.56449997E+02  0.16078E+05
 0.56499996E+02  0.18956E+05
 0.56549995E+02  0.21301E+05
 0.56599995E+02  0.19732E+05
 0.56649998E+02  0.19426E+05
 0.56699997E+02  0.19568E+05
 0.56749996E+02  0.20883E+05
 0.56799995E+02  0.22718E+05
 0.56849995E+02  0.21931E+05
 0.56899998E+02  0.21845E+05
 0.56949997E+02  0.23806E+05
 0.56999996E+02  0.26671E+05
 0.57049995E+02  0.26360E+05
 0.57099995E+02  0.26084E+05
 0.57149998E+02  0.24406E+05
 0.57199997E+02  0.21324E+05
 0.57249996E+02  0.21310E+05
 0.57299995E+02  0.20867E+05
 0.57349995E+02  0.19788E+05
 0.57399998E+02  0.20519E+05
 0.57449997E+02  0.20933E+05
 0.57499996E+02  0.21518E+05
 0.57549995E+02  0.23114E+05
 0.57599995E+02  0.22802E+05
 0.57649998E+02  0.21344E+05
 0.57699997E+02  0.21165E+05
 0.57749996E+02  0.21824E+05
 0.57799995E+02  0.23088E+05
 0.57849995E+02  0.23473E+05
 0.57899998E+02  0.22624E+05
 0.57949997E+02  0.22901E+05
 0.57999996E+02  0.21985E+05
 0.58049995E+02  0.20240E+05
 0.58099995E+02  0.19139E+05
 0.58149998E+02  0.20166E+05
 0.58199997E+02  0.20889E+05
 0.58249996E+02  0.19900E+05
 0.58299995E+02  0.19668E+05
 0.58349995E+02  0.21067E+05
 0.58399998E+02  0.21894E+05
 0.58449997E+02  0.20800E+05
 0.58499996E+02  0.19577E+05
 0.58549995E+02  0.19372E+05
 0.58599995E+02  0.19405E+05
 0.58649998E+02  0.17082E+05
 0.58699997E+02  0.16476E+05
 0.58749996E+02  0.17741E+05
 0.58799995E+02  0.17639E+05
 0.58849995E+02  0.16614E+05
 0.58899998E+02  0.14512E+05
 0.58949997E+02  0.14559E+05
 0.58999996E+02  0.16948E+05
 0.59049995E+02  0.18300E+05
 0.59099995E+02  0.17781E+05
 0.59149998E+02  0.15251E+05
 0.59199997E+02  0.15172E+05
 0.59249996E+02  0.17594E+05
 0.59299995E+02  0.19309E+05
 0.59349995E+02  0.19292E+05
 0.59399998E+02  0.19844E+05
 0.59449997E+02  0.20713E+05
 0.59499996E+02  0.20527E+05
 0.59549995E+02  0.19971E+05
 0.59599995E+02  0.21016E+05
 0.59649998E+02  0.23256E+05
 0.59699997E+02  0.22458E+05
 0.59749996E+02  0.21822E+05
 0.59799995E+02  0.21126E+05
 0.59849995E+02  0.21132E+05
 0.59899998E+02  0.22043E+05
 0.59949997E+02  0.20693E+05
 0.59999996E+02  0.20440E+05
 0.60049995E+02  0.20450E+05
 0.60099995E+02  0.21425E+05
 0.60149998E+02  0.21999E+05
 0.60199997E+02  0.20964E+05
 0.60249996E+02  0.21492E+05
 0.60299995E+02  0.22053E+05
 0.60349995E+02  0.23428E+05
 0.60399998E+02  0.23383E+05
 0.60449997E+02  0.21113E+05
 0.60499996E+02  0.20001E+05
 0.60549995E+02  0.20861E+05
 0.60599995E+02  0.21446E+05
 0.60649998E+02  0.20648E+05
 0.60699997E+02  0.20705E+05
 0.60749996E+02  0.19629E+05
 0.60799995E+02  0.19545E+05
 0.60849995E+02  0.20860E+05
 0.60899998E+02  0.20711E+05
 0.60949997E+02  0.20886E+05
 0.60999996E+02  0.20624E+05
 0.61049995E+02  0.20469E+05
 0.61099995E+02  0.19950E+05
 0.61149998E+02  0.19920E+05
 0.61199997E+02  0.19706E+05
 0.61249996E+02  0.18518E+05
 0.61299995E+02  0.19117E+05
 0.61349995E+02  0.19993E+05
 0.61399998E+02  0.19301E+05
 0.61449997E+02  0.19656E+05
 0.61499996E+02  0.20526E+05
 0.61549995E+02  0.20767E+05
 0.61599995E+02  0.20243E+05
 0.61649998E+02  0.19263E+05
 0.61699997E+02  0.18523E+05
 0.61749996E+02  0.18292E+05
 0.61799995E+02  0.17866E+05
 0.61849995E+02  0.16497E+05
 0.61899998E+02  0.16103E+05
 0.61949997E+02  0.16412E+05
 0.61999996E+02  0.18107E+05
 0.62049995E+02  0.20575E+05
 0.62099998E+02  0.22943E+05
 0.62149994E+02  0.23676E+05
 0.62199997E+02  0.23839E+05
 0.62249992E+02  0.24481E+05
 0.62299995E+02  0.24907E+05
 0.62349998E+02  0.26083E+05
 0.62399994E+02  0.26834E+05
 0.62449997E+02  0.25968E+05
 0.62499992E+02  0.26068E+05
 0.62549995E+02  0.25504E+05
 0.62599998E+02  0.23897E+05
 0.62649994E+02  0.23422E+05
 0.62699997E+02  0.21567E+05
 0.62749992E+02  0.21112E+05
 0.62799995E+02  0.22307E+05
 0.62849998E+02  0.22426E+05
 0.62899994E+02  0.21321E+05
 0.62949997E+02  0.20647E+05
 0.62999992E+02  0.20812E+05
 0.63049995E+02  0.21316E+05
 0.63099998E+02  0.20365E+05
 0.63149994E+02  0.18245E+05
 0.63199997E+02  0.16761E+05
 0.63249992E+02  0.16338E+05
 0.63299995E+02  0.16635E+05
 0.63349998E+02  0.16941E+05
 0.63399994E+02  0.16320E+05
 0.63449997E+02  0.14647E+05
 0.63499992E+02  0.14179E+05
 0.63549995E+02  0.12398E+05
 0.63599998E+02  0.11286E+05
 0.63649994E+02  0.12494E+05
 0.63699997E+02  0.13253E+05
 0.63749992E+02  0.14352E+05
 0.63799995E+02  0.16130E+05
 0.63849998E+02  0.17412E+05
 0.63899994E+02  0.17955E+05
 0.63949997E+02  0.19532E+05
 0.63999992E+02  0.21135E+05
 0.64049995E+02  0.21213E+05
 0.64099998E+02  0.21216E+05
 0.64149994E+02  0.22028E+05
 0.64199997E+02  0.21704E+05
 0.64249992E+02  0.21751E+05
 0.64299995E+02  0.21825E+05
 0.64349998E+02  0.22009E+05
 0.64399994E+02  0.23580E+05
 0.64449997E+02  0.24980E+05
 0.64499992E+02  0.25333E+05
 0.64549995E+02  0.25813E+05
 0.64599998E+02  0.26606E+05
 0.64649994E+02  0.26146E+05
 0.64699997E+02  0.26828E+05
 0.64749992E+02  0.26360E+05
 0.64799995E+02  0.26285E+05
 0.64849998E+02  0.26883E+05
 0.64899994E+02  0.25955E+05
 0.64949997E+02  0.25120E+05
 0.64999992E+02  0.23671E+05
 0.65049995E+02  0.21896E+05
 0.65099998E+02  0.20492E+05
 0.65149994E+02  0.20171E+05
 0.65199997E+02  0.20165E+05
 0.65249992E+02  0.20870E+05
 0.65299995E+02  0.21251E+05
 0.65349998E+02  0.19612E+05
 0.65399994E+02  0.17645E+05
 0.65449997E+02  0.17144E+05
 0.65499992E+02  0.16339E+05
 0.65549995E+02  0.15681E+05
 0.65599998E+02  0.14739E+05
 0.65649994E+02  0.13150E+05
 0.65699997E+02  0.12732E+05
 0.65749992E+02  0.12376E+05
 0.65799995E+02  0.12282E+05
 0.65849998E+02  0.12408E+05
 0.65899994E+02  0.12716E+05
 0.65949997E+02  0.13397E+05
 0.65999992E+02  0.14695E+05
 0.66049995E+02  0.16398E+05
 0.66099998E+02  0.17867E+05
 0.66149994E+02  0.18160E+05
 0.66199997E+02  0.17831E+05
 0.66249992E+02  0.18878E+05
 0.66299995E+02  0.21110E+05
 0.66349998E+02  0.23679E+05
 0.66399994E+02  0.25209E+05
 0.66449997E+02  0.25294E+05
 0.66499992E+02  0.25147E+05
 0.66549995E+02  0.25849E+05
 0.66599998E+02  0.26667E+05
 0.66649994E+02  0.26463E+05
 0.66699997E+02  0.26527E+05
 0.66749992E+02  0.26877E+05
 0.66799995E+02  0.27291E+05
 0.66849998E+02  0.28443E+05
 0.66899994E+02  0.28987E+05
 0.66949997E+02  0.28233E+05
 0.66999992E+02  0.26074E+05
 0.67049995E+02  0.23756E+05
 0.67099998E+02  0.22772E+05
 0.67149994E+02  0.21064E+05
 0.67199997E+02  0.19208E+05
 0.67249992E+02  0.18188E+05
 0.67299995E+02  0.18089E+05
 0.67349998E+02  0.17238E+05
 0.67399994E+02  0.16055E+05
 0.67449997E+02  0.16010E+05
 0.67499992E+02  0.15231E+05
 0.67549995E+02  0.15016E+05
 0.67599998E+02  0.15765E+05
 0.67649994E+02  0.15454E+05
 0.67699997E+02  0.15187E+05
 0.67749992E+02  0.15311E+05
 0.67799995E+02  0.13669E+05
 0.67849998E+02  0.13830E+05
 0.67899994E+02  0.15654E+05
 0.67949997E+02  0.16448E+05
 0.67999992E+02  0.16954E+05
 0.68049995E+02  0.17218E+05
 0.68099998E+02  0.17920E+05
 0.68149994E+02  0.19047E+05
 0.68199997E+02  0.19663E+05
 0.68249992E+02  0.20058E+05
 0.68299995E+02  0.20362E+05
 0.68349998E+02  0.21114E+05
 0.68399994E+02  0.21906E+05
 0.68449997E+02  0.22504E+05
 0.68499992E+02  0.23952E+05
 0.68549995E+02  0.24519E+05
 0.68599998E+02  0.24596E+05
 0.68649994E+02  0.25636E+05
 0.68699997E+02  0.26654E+05
 0.68749992E+02  0.26410E+05
 0.68799995E+02  0.25741E+05
 0.68849998E+02  0.24731E+05
 0.68899994E+02  0.23633E+05
 0.68949997E+02  0.22511E+05
 0.68999992E+02  0.21463E+05
 0.69049995E+02  0.21305E+05
 0.69099998E+02  0.21397E+05
 0.69149994E+02  0.22212E+05
 0.69199997E+02  0.22137E+05
 0.69249992E+02  0.21296E+05
 0.69299995E+02  0.20335E+05
 0.69349998E+02  0.19567E+05
 0.69399994E+02  0.19546E+05
 0.69449997E+02  0.20594E+05
 0.69499992E+02  0.21559E+05
 0.69549995E+02  0.20209E+05
 0.69599998E+02  0.18526E+05
 0.69649994E+02  0.17744E+05
 0.69699997E+02  0.18577E+05
 0.69749992E+02  0.18519E+05
 0.69799995E+02  0.17707E+05
 0.69849998E+02  0.17754E+05
 0.69899994E+02  0.17421E+05
 0.69949997E+02  0.18343E+05
 0.69999992E+02  0.19785E+05
 0.70049995E+02  0.20222E+05
 0.70099998E+02  0.19898E+05
 0.70149994E+02  0.19394E+05
 0.70199997E+02  0.19596E+05
 0.70249992E+02  0.20264E+05
 0.70299995E+02  0.20742E+05
 0.70349998E+02  0.20810E+05
 0.70399994E+02  0.21040E+05
 0.70449997E+02  0.21073E+05
 0.70499992E+02  0.20564E+05
 0.70549995E+02  0.20144E+05
 0.70599998E+02  0.19909E+05
 0.70649994E+02  0.20060E+05
 0.70699997E+02  0.20259E+05
 0.70749992E+02  0.20411E+05
 0.70799995E+02  0.20400E+05
 0.70849998E+02  0.19905E+05
 0.70899994E+02  0.19642E+05
 0.70949997E+02  0.19880E+05
 0.70999992E+02  0.19629E+05
 0.71049995E+02  0.18999E+05
 0.71099998E+02  0.18162E+05
 0.71149994E+02  0.17507E+05
 0.71199997E+02  0.17961E+05
 0.71249992E+02  0.18659E+05
 0.71299995E+02  0.19064E+05
 0.71349998E+02  0.19394E+05
 0.71399994E+02  0.18776E+05
 0.71449997E+02  0.18231E+05
 0.71499992E+02  0.18424E+05
 0.71549995E+02  0.18247E+05
 0.71599998E+02  0.18618E+05
 0.71649994E+02  0.19097E+05
 0.71699997E+02  0.19518E+05
 0.71749992E+02  0.20305E+05
 0.71799995E+02  0.21453E+05
 0.71849998E+02  0.22426E+05
 0.71899994E+02  0.22266E+05
 0.71949997E+02  0.22481E+05
 0.71999992E+02  0.23683E+05
 0.72049995E+02  0.24177E+05
 0.72099998E+02  0.24023E+05
 0.72149994E+02  0.23620E+05
 0.72199997E+02  0.23598E+05
 0.72249992E+02  0.24000E+05
 0.72299995E+02  0.24221E+05
 0.72349998E+02  0.24293E+05
 0.72399994E+02  0.24471E+05
 0.72449997E+02  0.24575E+05
 0.72499992E+02  0.23710E+05
 0.72549995E+02  0.22637E+05
 0.72599998E+02  0.21317E+05
 0.72649994E+02  0.19922E+05
 0.72699997E+02  0.18686E+05
 0.72749992E+02  0.17547E+05
 0.72799995E+02  0.16759E+05
 0.72849998E+02  0.15584E+05
 0.72899994E+02  0.14104E+05
 0.72949997E+02  0.13098E+05
 0.72999992E+02  0.12926E+05
 0.73049995E+02  0.13585E+05
 0.73099998E+02  0.14875E+05
 0.73149994E+02  0.15964E+05
 0.73199997E+02  0.16835E+05
 0.73249992E+02  0.18207E+05
 0.73299995E+02  0.19562E+05
 0.73349998E+02  0.20855E+05
 0.73399994E+02  0.21945E+05
 0.73449997E+02  0.22271E+05
 0.73499992E+02  0.23044E+05
 0.73549995E+02  0.23429E+05
 0.73599998E+02  0.23722E+05
 0.73649994E+02  0.24311E+05
 0.73699997E+02  0.23537E+05
 0.73749992E+02  0.22943E+05
 0.73799995E+02  0.22361E+05
 0.73849998E+02  0.22232E+05
 0.73899994E+02  0.22826E+05
 0.73949997E+02  0.23487E+05
 0.73999992E+02  0.23436E+05
 0.74049995E+02  0.23021E+05
 0.74099998E+02  0.22362E+05
 0.74149994E+02  0.21691E+05
 0.74199997E+02  0.21431E+05
 0.74249992E+02  0.20382E+05
 0.74299995E+02  0.19472E+05
 0.74349998E+02  0.18606E+05
 0.74399994E+02  0.18402E+05
 0.74449997E+02  0.18335E+05
 0.74499992E+02  0.18042E+05
 0.74549995E+02  0.18571E+05
 0.74599998E+02  0.18992E+05
 0.74649994E+02  0.18719E+05
 0.74699997E+02  0.18716E+05
 0.74749992E+02  0.19443E+05
 0.74799995E+02  0.19520E+05
 0.74849998E+02  0.19531E+05
 0.74899994E+02  0.20146E+05
 0.74949997E+02  0.20313E+05
 0.74999992E+02  0.20345E+05
 0.75049995E+02  0.20254E+05
 0.75099998E+02  0.20060E+05
 0.75149994E+02  0.20300E+05
 0.75199997E+02  0.20535E+05
 0.75249992E+02  0.20206E+05
 0.75299995E+02  0.20166E+05
 0.75349998E+02  0.20338E+05
 0.75399994E+02  0.20451E+05
 0.75449997E+02  0.20123E+05
 0.75499992E+02  0.19754E+05
 0.75549995E+02  0.19948E+05
 0.75599998E+02  0.20074E+05
 0.75649994E+02  0.20440E+05
 0.75699997E+02  0.21140E+05
 0.75749992E+02  0.22058E+05
 0.75799995E+02  0.21844E+05
 0.75849998E+02  0.21531E+05
 0.75899994E+02  0.21356E+05
 0.75949997E+02  0.20524E+05
 0.75999992E+02  0.20010E+05
 0.76049995E+02  0.19813E+05
 0.76099998E+02  0.19386E+05
 0.76149994E+02  0.18912E+05
 0.76199997E+02  0.19050E+05
 0.76249992E+02  0.19378E+05
 0.76299995E+02  0.19944E+05
 0.76349998E+02  0.20233E+05
 0.76399994E+02  0.19902E+05
 0.76449997E+02  0.19997E+05
 0.76499992E+02  0.20786E+05
 0.76549995E+02  0.21572E+05
 0.76599998E+02  0.21620E+05
 0.76649994E+02  0.21333E+05
 0.76699997E+02  0.21428E+05
 0.76749992E+02  0.21113E+05
 0.76799995E+02  0.21214E+05
 0.76849998E+02  0.21311E+05
 0.76899994E+02  0.21233E+05
 0.76949997E+02  0.20850E+05
 0.76999992E+02  0.20445E+05
 0.77049995E+02  0.21148E+05
 0.77099998E+02  0.21469E+05
 0.77149994E+02  0.21609E+05
 0.77199997E+02  0.21696E+05
 0.77249992E+02  0.21928E+05
 0.77299995E+02  0.22220E+05
 0.77349998E+02  0.21916E+05
 0.77399994E+02  0.21234E+05
 0.77449997E+02  0.20469E+05
 0.77499992E+02  0.19890E+05
 0.77549995E+02  0.19241E+05
 0.77599998E+02  0.18690E+05
 0.77649994E+02  0.18516E+05
 0.77699997E+02  0.17922E+05
 0.77749992E+02  0.17525E+05
 0.77799995E+02  0.17032E+05
 0.77849998E+02  0.16488E+05
 0.77899994E+02  0.15944E+05
 0.77949997E+02  0.15023E+05
 0.77999992E+02  0.15123E+05
 0.78049995E+02  0.15687E+05
 0.78099998E+02  0.16792E+05
 0.78149994E+02  0.17712E+05
 0.78199997E+02  0.18509E+05
 0.78249992E+02  0.19199E+05
 0.78299995E+02  0.19201E+05
 0.78349998E+02  0.19708E+05
 0.78399994E+02  0.20615E+05
 0.78449997E+02  0.21674E+05
 0.78499992E+02  0.22534E+05
 0.78549995E+02  0.23080E+05
 0.78599998E+02  0.23402E+05
 0.78649994E+02  0.23922E+05
 0.78699997E+02  0.24240E+05
 0.78749992E+02  0.24446E+05
 0.78799995E+02  0.25108E+05
 0.78849998E+02  0.25026E+05
 0.78899994E+02  0.24409E+05
 0.78949997E+02  0.23971E+05
 0.78999992E+02  0.22906E+05
 0.79049995E+02  0.21445E+05
 0.79099998E+02  0.20584E+05
 0.79149994E+02  0.20338E+05
 0.79199997E+02  0.20436E+05
 0.79249992E+02  0.20419E+05
 0.79299995E+02  0.20221E+05
 0.79349998E+02  0.20204E+05
 0.79399994E+02  0.19789E+05
 0.79449997E+02  0.18470E+05
 0.79499992E+02  0.17286E+05
 0.79549995E+02  0.16474E+05
 0.79599998E+02  0.16192E+05
 0.79649994E+02  0.15969E+05
 0.79699997E+02  0.15737E+05
 0.79749992E+02  0.16662E+05
 0.79799995E+02  0.17685E+05
 0.79849998E+02  0.18834E+05
 0.79899994E+02  0.19933E+05
 0.79949997E+02  0.21171E+05
 0.79999992E+02  0.22322E+05
 0.80049995E+02  0.22604E+05
 0.80099998E+02  0.22913E+05
 0.80149994E+02  0.23321E+05
 0.80199997E+02  0.23854E+05
 0.80249992E+02  0.24087E+05
 0.80299995E+02  0.24414E+05
 0.80349998E+02  0.24708E+05
 0.80399994E+02  0.24574E+05
 0.80449997E+02  0.24062E+05
 0.80499992E+02  0.23770E+05
 0.80549995E+02  0.23583E+05
 0.80599998E+02  0.22941E+05
 0.80649994E+02  0.22209E+05
 0.80699997E+02  0.21360E+05
 0.80749992E+02  0.20489E+05
 0.80799995E+02  0.19805E+05
 0.80849998E+02  0.19437E+05
 0.80899994E+02  0.18723E+05
 0.80949997E+02  0.17822E+05
 0.80999992E+02  0.16962E+05
 0.81049995E+02  0.16115E+05
 0.81099998E+02  0.15594E+05
 0.81149994E+02  0.15061E+05
 0.81199997E+02  0.14775E+05
 0.81249992E+02  0.15015E+05
 0.81299995E+02  0.14852E+05
 0.81349998E+02  0.14607E+05
 0.81399994E+02  0.14825E+05
 0.81449997E+02  0.15130E+05
 0.81499992E+02  0.16022E+05
 0.81549995E+02  0.17301E+05
 0.81599998E+02  0.18904E+05
 0.81649994E+02  0.20610E+05
 0.81699997E+02  0.21627E+05
 0.81749992E+02  0.22387E+05
 0.81799995E+02  0.22832E+05
 0.81849998E+02  0.23629E+05
 0.81899994E+02  0.24897E+05
 0.81949997E+02  0.25534E+05
 0.81999992E+02  0.25662E+05
 0.82049995E+02  0.25628E+05
 0.82099998E+02  0.25552E+05
 0.82149994E+02  0.25339E+05
 0.82199997E+02  0.24815E+05
 0.82249992E+02  0.24076E+05
 0.82299995E+02  0.23549E+05
 0.82349998E+02  0.23007E+05
 0.82399994E+02  0.22445E+05
 0.82449997E+02  0.21879E+05
 0.82499992E+02  0.20872E+05
 0.82549995E+02  0.19684E+05
 0.82599998E+02  0.19134E+05
 0.82649994E+02  0.18786E+05
 0.82699997E+02  0.18006E+05
 0.82749992E+02  0.17306E+05
 0.82799995E+02  0.16688E+05
 0.82849998E+02  0.16136E+05
 0.82899994E+02  0.15510E+05
 0.82949997E+02  0.15105E+05
 0.82999992E+02  0.14869E+05
 0.83049995E+02  0.15078E+05
 0.83099998E+02  0.15604E+05
 0.83149994E+02  0.16036E+05
 0.83199997E+02  0.16951E+05
 0.83249992E+02  0.18164E+05
 0.83299995E+02  0.19161E+05
 0.83349998E+02  0.20043E+05
 0.83399994E+02  0.21187E+05
 0.83449997E+02  0.22132E+05
 0.83499992E+02  0.22972E+05
 0.83549995E+02  0.23334E+05
 0.83599998E+02  0.23271E+05
 0.83649994E+02  0.23474E+05
 0.83699997E+02  0.23982E+05
 0.83749992E+02  0.24280E+05
 0.83799995E+02  0.23944E+05
 0.83849998E+02  0.23304E+05
 0.83899994E+02  0.22790E+05
 0.83949997E+02  0.22645E+05
 0.83999992E+02  0.22790E+05
 0.84049995E+02  0.23374E+05
 0.84099998E+02  0.23484E+05
 0.84149994E+02  0.23079E+05
 0.84199997E+02  0.22747E+05
 0.84249992E+02  0.21861E+05
 0.84299995E+02  0.21033E+05
 0.84349998E+02  0.20281E+05
 0.84399994E+02  0.19169E+05
 0.84449997E+02  0.18139E+05
 0.84499992E+02  0.17441E+05
 0.84549995E+02  0.17190E+05
 0.84599998E+02  0.16771E+05
 0.84649994E+02  0.16522E+05
 0.84699997E+02  0.16306E+05
 0.84749992E+02  0.16354E+05
 0.84799995E+02  0.16835E+05
 0.84849998E+02  0.17256E+05
 0.84899994E+02  0.17704E+05
 0.84949997E+02  0.18162E+05
 0.84999992E+02  0.18929E+05
 0.85049995E+02  0.19719E+05
 0.85099998E+02  0.20541E+05
 0.85149994E+02  0.21446E+05
 0.85199997E+02  0.22321E+05
 0.85249992E+02  0.23021E+05
 0.85299995E+02  0.23678E+05
 0.85349998E+02  0.24294E+05
 0.85399994E+02  0.24350E+05
 0.85449997E+02  0.23898E+05
 0.85499992E+02  0.23400E+05
 0.85549995E+02  0.23100E+05
 0.85599998E+02  0.22898E+05
 0.85649994E+02  0.22481E+05
 0.85699997E+02  0.21735E+05
 0.85749992E+02  0.21197E+05
 0.85799995E+02  0.21109E+05
 0.85849998E+02  0.20661E+05
 0.85899994E+02  0.19905E+05
 0.85949997E+02  0.19495E+05
 0.85999992E+02  0.19226E+05
 0.86049995E+02  0.18935E+05
 0.86099998E+02  0.18693E+05
 0.86149994E+02  0.18456E+05
 0.86199997E+02  0.18122E+05
 0.86249992E+02  0.17731E+05
 0.86299995E+02  0.17411E+05
 0.86349998E+02  0.17039E+05
 0.86399994E+02  0.17029E+05
 0.86449997E+02  0.17320E+05
 0.86499992E+02  0.17611E+05
 0.86549995E+02  0.17905E+05
 0.86599998E+02  0.18201E+05
 0.86649994E+02  0.18386E+05
 0.86699997E+02  0.18352E+05
 0.86749992E+02  0.18845E+05
 0.86799995E+02  0.19775E+05
 0.86849998E+02  0.20686E+05
 0.86899994E+02  0.20969E+05
 0.86949997E+02  0.21180E+05
 0.86999992E+02  0.21737E+05
 0.87049995E+02  0.21910E+05
 0.87099998E+02  0.21973E+05
 0.87149994E+02  0.21952E+05
 0.87199997E+02  0.21842E+05
 0.87249992E+02  0.21807E+05
 0.87299995E+02  0.22088E+05
 0.87349998E+02  0.22180E+05
 0.87399994E+02  0.22066E+05
 0.87449997E+02  0.22173E+05
 0.87499992E+02  0.22307E+05
 0.87549995E+02  0.22294E+05
 0.87599991E+02  0.22247E+05
 0.87649994E+02  0.21919E+05
 0.87699997E+02  0.21363E+05
 0.87749992E+02  0.20825E+05
 0.87799995E+02  0.20229E+05
 0.87849991E+02  0.20085E+05
 0.87899994E+02  0.19835E+05
 0.87949997E+02  0.19078E+05
 0.87999992E+02  0.18589E+05
 0.88049995E+02  0.18548E+05
 0.88099991E+02  0.18615E+05
 0.88149994E+02  0.18630E+05
 0.88199997E+02  0.18681E+05
 0.88249992E+02  0.18901E+05
 0.88299995E+02  0.19227E+05
 0.88349991E+02  0.20036E+05
 0.88399994E+02  0.21011E+05
 0.88449997E+02  0.21397E+05
 0.88499992E+02  0.21386E+05
 0.88549995E+02  0.21276E+05
 0.88599991E+02  0.21271E+05
 0.88649994E+02  0.21500E+05
 0.88699997E+02  0.21392E+05
 0.88749992E+02  0.20834E+05
 0.88799995E+02  0.20617E+05
 0.88849991E+02  0.20475E+05
 0.88899994E+02  0.20228E+05
 0.88949997E+02  0.20036E+05
 0.88999992E+02  0.19735E+05
 0.89049995E+02  0.19649E+05
 0.89099991E+02  0.19611E+05
 0.89149994E+02  0.19305E+05
 0.89199997E+02  0.18981E+05
 0.89249992E+02  0.18901E+05
 0.89299995E+02  0.18916E+05
 0.89349991E+02  0.19093E+05
 0.89399994E+02  0.19579E+05
 0.89449997E+02  0.20114E+05
 0.89499992E+02  0.20584E+05
 0.89549995E+02  0.20987E+05
 0.89599991E+02  0.21312E+05
 0.89649994E+02  0.21729E+05
 0.89699997E+02  0.22060E+05
 0.89749992E+02  0.21879E+05
 0.89799995E+02  0.21725E+05
 0.89849991E+02  0.21742E+05
 0.89899994E+02  0.21626E+05
 0.89949997E+02  0.21385E+05
 0.89999992E+02  0.21026E+05
 0.90049995E+02  0.20701E+05
 0.90099991E+02  0.20391E+05
 0.90149994E+02  0.20060E+05
 0.90199997E+02  0.19546E+05
 0.90249992E+02  0.19068E+05
 0.90299995E+02  0.18656E+05
 0.90349991E+02  0.18376E+05
 0.90399994E+02  0.18059E+05
 0.90449997E+02  0.17779E+05
 0.90499992E+02  0.17576E+05
 0.90549995E+02  0.17367E+05
 0.90599991E+02  0.17588E+05
 0.90649994E+02  0.18148E+05
 0.90699997E+02  0.18662E+05
 0.90749992E+02  0.19232E+05
 0.90799995E+02  0.19678E+05
 0.90849991E+02  0.20017E+05
 0.90899994E+02  0.20994E+05
 0.90949997E+02  0.21820E+05
 0.90999992E+02  0.22735E+05
 0.91049995E+02  0.23571E+05
 0.91099991E+02  0.24187E+05
 0.91149994E+02  0.24777E+05
 0.91199997E+02  0.24910E+05
 0.91249992E+02  0.24755E+05
 0.91299995E+02  0.24312E+05
 0.91349991E+02  0.23817E+05
 0.91399994E+02  0.23238E+05
 0.91449997E+02  0.22304E+05
 0.91499992E+02  0.21199E+05
 0.91549995E+02  0.20389E+05
 0.91599991E+02  0.19252E+05
 0.91649994E+02  0.17964E+05
 0.91699997E+02  0.16884E+05
 0.91749992E+02  0.16233E+05
 0.91799995E+02  0.16052E+05
 0.91849991E+02  0.15969E+05
 0.91899994E+02  0.16010E+05
 0.91949997E+02  0.16065E+05
 0.91999992E+02  0.16215E+05
 0.92049995E+02  0.16366E+05
 0.92099991E+02  0.16686E+05
 0.92149994E+02  0.17668E+05
 0.92199997E+02  0.18934E+05
 0.92249992E+02  0.20346E+05
 0.92299995E+02  0.21876E+05
 0.92349991E+02  0.22998E+05
 0.92399994E+02  0.23772E+05
 0.92449997E+02  0.24226E+05
 0.92499992E+02  0.24507E+05
 0.92549995E+02  0.24428E+05
 0.92599991E+02  0.24149E+05
 0.92649994E+02  0.23971E+05
 0.92699997E+02  0.23795E+05
 0.92749992E+02  0.23537E+05
 0.92799995E+02  0.22895E+05
 0.92849991E+02  0.22278E+05
 0.92899994E+02  0.21519E+05
 0.92949997E+02  0.20895E+05
 0.92999992E+02  0.20533E+05
 0.93049995E+02  0.20190E+05
 0.93099991E+02  0.19891E+05
 0.93149994E+02  0.19131E+05
 0.93199997E+02  0.18262E+05
 0.93249992E+02  0.17685E+05
 0.93299995E+02  0.17692E+05
 0.93349991E+02  0.17970E+05
 0.93399994E+02  0.18148E+05
 0.93449997E+02  0.18418E+05
 0.93499992E+02  0.18517E+05
 0.93549995E+02  0.18446E+05
 0.93599991E+02  0.18361E+05
 0.93649994E+02  0.18393E+05
 0.93699997E+02  0.18327E+05
 0.93749992E+02  0.18250E+05
 0.93799995E+02  0.18529E+05
 0.93849991E+02  0.18885E+05
 0.93899994E+02  0.19273E+05
 0.93949997E+02  0.19230E+05
 0.93999992E+02  0.19287E+05
 0.94049995E+02  0.19625E+05
 0.94099991E+02  0.19950E+05
 0.94149994E+02  0.20318E+05
 0.94199997E+02  0.20786E+05
 0.94249992E+02  0.21558E+05
 0.94299995E+02  0.21845E+05
 0.94349991E+02  0.21771E+05
 0.94399994E+02  0.21775E+05
 0.94449997E+02  0.21984E+05
 0.94499992E+02  0.22182E+05
 0.94549995E+02  0.22293E+05
 0.94599991E+02  0.22206E+05
 0.94649994E+02  0.22166E+05
 0.94699997E+02  0.22234E+05
 0.94749992E+02  0.22257E+05
 0.94799995E+02  0.22303E+05
 0.94849991E+02  0.22330E+05
 0.94899994E+02  0.22235E+05
 0.94949997E+02  0.21914E+05
 0.94999992E+02  0.21518E+05
 0.95049995E+02  0.20919E+05
 0.95099991E+02  0.20671E+05
 0.95149994E+02  0.20479E+05
 0.95199997E+02  0.20102E+05
 0.95249992E+02  0.19745E+05
 0.95299995E+02  0.19198E+05
 0.95349991E+02  0.18561E+05
 0.95399994E+02  0.18067E+05
 0.95449997E+02  0.17772E+05
 0.95499992E+02  0.17504E+05
 0.95549995E+02  0.17490E+05
 0.95599991E+02  0.17671E+05
 0.95649994E+02  0.17746E+05
 0.95699997E+02  0.18101E+05
 0.95749992E+02  0.18860E+05
 0.95799995E+02  0.19649E+05
 0.95849991E+02  0.20139E+05
 0.95899994E+02  0.20529E+05
 0.95949997E+02  0.21056E+05
 0.95999992E+02  0.21410E+05
 0.96049995E+02  0.21656E+05
 0.96099991E+02  0.21807E+05
 0.96149994E+02  0.21899E+05
 0.96199997E+02  0.21781E+05
 0.96249992E+02  0.21594E+05
 0.96299995E+02  0.21427E+05
 0.96349991E+02  0.21210E+05
 0.96399994E+02  0.21163E+05
 0.96449997E+02  0.20904E+05
 0.96499992E+02  0.20639E+05
 0.96549995E+02  0.20403E+05
 0.96599991E+02  0.20273E+05
 0.96649994E+02  0.20303E+05
 0.96699997E+02  0.20188E+05
 0.96749992E+02  0.20186E+05
 0.96799995E+02  0.20205E+05
 0.96849991E+02  0.19996E+05
 0.96899994E+02  0.19603E+05
 0.96949997E+02  0.19309E+05
 0.96999992E+02  0.19241E+05
 0.97049995E+02  0.19424E+05
 0.97099991E+02  0.19769E+05
 0.97149994E+02  0.20194E+05
 0.97199997E+02  0.20621E+05
 0.97249992E+02  0.20980E+05
 0.97299995E+02  0.21275E+05
 0.97349991E+02  0.21253E+05
 0.97399994E+02  0.21143E+05
 0.97449997E+02  0.21042E+05
 0.97499992E+02  0.20910E+05
 0.97549995E+02  0.20677E+05
 0.97599991E+02  0.20213E+05
 0.97649994E+02  0.19805E+05
 0.97699997E+02  0.19714E+05
 0.97749992E+02  0.19569E+05
 0.97799995E+02  0.19214E+05
 0.97849991E+02  0.19092E+05
 0.97899994E+02  0.19009E+05
 0.97949997E+02  0.18886E+05
 0.97999992E+02  0.18816E+05
