-0.20000000E+01  0.40615E+04
-0.19500000E+01  0.64002E+04
-0.19000000E+01  0.88760E+04
-0.18500000E+01  0.11171E+05
-0.18000000E+01  0.13436E+05
-0.17500000E+01  0.15717E+05
-0.17000000E+01  0.17851E+05
-0.16500001E+01  0.19897E+05
-0.16000000E+01  0.21965E+05
-0.15500000E+01  0.24064E+05
-0.15000000E+01  0.26259E+05
-0.14500000E+01  0.28419E+05
-0.14000001E+01  0.30546E+05
-0.13500000E+01  0.32670E+05
-0.13000001E+01  0.34664E+05
-0.12500000E+01  0.36350E+05
-0.12000000E+01  0.37809E+05
-0.11500001E+01  0.39032E+05
-0.11000000E+01  0.39900E+05
-0.10500001E+01  0.40521E+05
-0.10000000E+01  0.41025E+05
-0.95000005E+00  0.41364E+05
-0.90000010E+00  0.41373E+05
-0.85000002E+00  0.41013E+05
-0.80000007E+00  0.40031E+05
-0.75000012E+00  0.38032E+05
-0.70000005E+00  0.35128E+05
-0.65000010E+00  0.31686E+05
-0.60000014E+00  0.27778E+05
-0.55000007E+00  0.23558E+05
-0.50000012E+00  0.19092E+05
-0.45000005E+00  0.14284E+05
-0.40000010E+00  0.87574E+04
-0.35000014E+00  0.25976E+04
-0.30000007E+00 -0.35607E+04
-0.25000012E+00 -0.91585E+04
-0.20000005E+00 -0.13962E+05
-0.15000010E+00 -0.17802E+05
-0.10000014E+00 -0.20495E+05
-0.50000072E-01 -0.22046E+05
-0.11920929E-06 -0.22539E+05
 0.49999952E-01 -0.22209E+05
 0.99999905E-01 -0.21089E+05
 0.14999986E+00 -0.19247E+05
 0.19999981E+00 -0.16690E+05
 0.24999976E+00 -0.13328E+05
 0.29999995E+00 -0.90978E+04
 0.34999990E+00 -0.43417E+04
 0.39999986E+00  0.47370E+03
 0.44999981E+00  0.50850E+04
 0.49999976E+00  0.94166E+04
 0.54999995E+00  0.13736E+05
 0.59999990E+00  0.18219E+05
 0.64999986E+00  0.22901E+05
 0.69999981E+00  0.27638E+05
 0.74999976E+00  0.32405E+05
 0.79999971E+00  0.37063E+05
 0.84999990E+00  0.41439E+05
 0.89999986E+00  0.45476E+05
 0.94999981E+00  0.49122E+05
 0.99999976E+00  0.52522E+05
 0.10499997E+01  0.55528E+05
 0.10999999E+01  0.58009E+05
 0.11499999E+01  0.59796E+05
 0.11999998E+01  0.60538E+05
 0.12499998E+01  0.60030E+05
 0.12999997E+01  0.58605E+05
 0.13499999E+01  0.56764E+05
 0.13999999E+01  0.54668E+05
 0.14499998E+01  0.52098E+05
 0.14999998E+01  0.49108E+05
 0.15499997E+01  0.45887E+05
 0.15999999E+01  0.42362E+05
 0.16499999E+01  0.38412E+05
 0.16999998E+01  0.34005E+05
 0.17499998E+01  0.29674E+05
 0.17999997E+01  0.25777E+05
 0.18499997E+01  0.22471E+05
 0.18999999E+01  0.19760E+05
 0.19499998E+01  0.17447E+05
 0.19999998E+01  0.15234E+05
 0.20499997E+01  0.12824E+05
 0.20999999E+01  0.10130E+05
 0.21499996E+01  0.73387E+04
 0.21999998E+01  0.45259E+04
 0.22499995E+01  0.17199E+04
 0.22999997E+01 -0.80990E+03
 0.23499999E+01 -0.31598E+04
 0.23999996E+01 -0.54363E+04
 0.24499998E+01 -0.76131E+04
 0.24999995E+01 -0.97294E+04
 0.25499997E+01 -0.11892E+05
 0.25999999E+01 -0.14278E+05
 0.26499996E+01 -0.16920E+05
 0.26999998E+01 -0.19669E+05
 0.27499995E+01 -0.22344E+05
 0.27999997E+01 -0.24785E+05
 0.28499999E+01 -0.27067E+05
 0.28999996E+01 -0.29204E+05
 0.29499998E+01 -0.30960E+05
 0.29999995E+01 -0.32222E+05
 0.30499997E+01 -0.32993E+05
 0.30999999E+01 -0.33228E+05
 0.31499996E+01 -0.32737E+05
 0.31999998E+01 -0.31534E+05
 0.32499995E+01 -0.29749E+05
 0.32999997E+01 -0.27373E+05
 0.33499999E+01 -0.24394E+05
 0.33999996E+01 -0.21033E+05
 0.34499998E+01 -0.17689E+05
 0.34999995E+01 -0.14364E+05
 0.35499997E+01 -0.10878E+05
 0.35999994E+01 -0.74137E+04
 0.36499996E+01 -0.43068E+04
 0.36999998E+01 -0.15597E+04
 0.37499995E+01  0.83676E+03
 0.37999997E+01  0.29499E+04
 0.38499994E+01  0.48145E+04
 0.38999996E+01  0.63564E+04
 0.39499998E+01  0.77263E+04
 0.39999995E+01  0.90017E+04
 0.40499997E+01  0.10264E+05
 0.40999994E+01  0.11613E+05
 0.41499996E+01  0.12882E+05
 0.41999998E+01  0.14001E+05
 0.42499995E+01  0.15206E+05
 0.42999997E+01  0.16361E+05
 0.43499994E+01  0.17457E+05
 0.43999996E+01  0.18728E+05
 0.44499998E+01  0.20313E+05
 0.44999995E+01  0.22244E+05
 0.45499997E+01  0.24479E+05
 0.45999994E+01  0.26863E+05
 0.46499996E+01  0.29003E+05
 0.46999998E+01  0.30579E+05
 0.47499995E+01  0.31565E+05
 0.47999997E+01  0.32101E+05
 0.48499994E+01  0.32031E+05
 0.48999996E+01  0.31285E+05
 0.49499998E+01  0.29919E+05
 0.49999995E+01  0.28180E+05
 0.50499997E+01  0.26350E+05
 0.50999994E+01  0.24510E+05
 0.51499996E+01  0.22863E+05
 0.51999998E+01  0.21223E+05
 0.52499995E+01  0.19182E+05
 0.52999997E+01  0.16727E+05
 0.53499994E+01  0.14144E+05
 0.53999996E+01  0.11443E+05
 0.54499993E+01  0.86627E+04
 0.54999995E+01  0.61567E+04
 0.55499997E+01  0.40733E+04
 0.55999994E+01  0.23672E+04
 0.56499996E+01  0.80309E+03
 0.56999993E+01 -0.59644E+03
 0.57499995E+01 -0.18362E+04
 0.57999997E+01 -0.29137E+04
 0.58499994E+01 -0.36426E+04
 0.58999996E+01 -0.38777E+04
 0.59499993E+01 -0.36857E+04
 0.59999995E+01 -0.31918E+04
 0.60499992E+01 -0.24476E+04
 0.60999994E+01 -0.16262E+04
 0.61499996E+01 -0.89067E+03
 0.61999998E+01 -0.25784E+03
 0.62499990E+01  0.53180E+03
 0.62999992E+01  0.10421E+04
 0.63499994E+01  0.14786E+04
 0.63999996E+01  0.16738E+04
 0.64499998E+01  0.13794E+04
 0.64999990E+01  0.98991E+03
 0.65499992E+01  0.27355E+03
 0.65999994E+01 -0.40812E+03
 0.66499996E+01 -0.71857E+03
 0.66999998E+01 -0.40466E+03
 0.67499990E+01  0.76510E+03
 0.67999992E+01  0.23449E+04
 0.68499994E+01  0.41173E+04
 0.68999996E+01  0.64105E+04
 0.69499998E+01  0.91349E+04
 0.69999990E+01  0.12182E+05
 0.70499992E+01  0.15529E+05
 0.70999994E+01  0.18597E+05
 0.71499996E+01  0.21418E+05
 0.71999998E+01  0.23833E+05
 0.72499990E+01  0.25555E+05
 0.72999992E+01  0.27008E+05
 0.73499994E+01  0.28296E+05
 0.73999996E+01  0.29449E+05
 0.74499998E+01  0.30324E+05
 0.74999990E+01  0.31392E+05
 0.75499992E+01  0.31939E+05
 0.75999994E+01  0.30622E+05
 0.76499996E+01  0.30195E+05
 0.76999998E+01  0.30113E+05
 0.77499990E+01  0.28095E+05
 0.77999992E+01  0.28289E+05
 0.78499994E+01  0.29018E+05
 0.78999996E+01  0.28618E+05
 0.79499998E+01  0.26828E+05
 0.79999990E+01  0.28181E+05
 0.80499992E+01  0.27194E+05
 0.80999994E+01  0.26824E+05
 0.81499996E+01  0.27127E+05
 0.81999998E+01  0.23300E+05
 0.82499990E+01  0.12828E+05
 0.82999992E+01  0.11730E+04
 0.83499994E+01 -0.89623E+04
 0.83999996E+01 -0.22642E+05
 0.84499998E+01 -0.31101E+05
 0.84999990E+01 -0.46861E+05
 0.85499992E+01 -0.36914E+05
 0.85999994E+01  0.13217E+06
 0.86499996E+01  0.30038E+06
 0.86999998E+01  0.15642E+06
 0.87499990E+01  0.11833E+06
 0.87999992E+01  0.17258E+06
 0.88499994E+01 -0.11235E+06
 0.88999996E+01 -0.19013E+06
 0.89499998E+01 -0.10317E+04
 0.89999990E+01 -0.54917E+05
 0.90499992E+01 -0.23773E+06
 0.90999994E+01 -0.36198E+05
 0.91499996E+01 -0.53540E+05
 0.91999989E+01 -0.25233E+06
 0.92499990E+01 -0.72429E+05
 0.92999992E+01  0.29431E+04
 0.93499994E+01  0.88703E+05
 0.93999996E+01  0.33495E+06
 0.94499989E+01  0.64797E+06
 0.94999990E+01  0.40479E+06
 0.95499992E+01 -0.18879E+06
 0.95999994E+01 -0.40124E+06
 0.96499996E+01 -0.39711E+06
 0.96999989E+01 -0.38761E+06
 0.97499990E+01  0.26502E+05
 0.97999992E+01  0.39638E+06
 0.98499994E+01  0.71421E+05
 0.98999996E+01 -0.16528E+06
 0.99499989E+01 -0.29570E+06
 0.99999990E+01 -0.58229E+06
 0.10049999E+02 -0.22706E+06
 0.10099999E+02  0.21889E+06
 0.10150000E+02 -0.18903E+06
 0.10199999E+02 -0.54135E+06
 0.10249999E+02 -0.58408E+06
 0.10299999E+02 -0.76631E+06
 0.10349999E+02 -0.75454E+06
 0.10400000E+02 -0.28933E+06
 0.10449999E+02  0.25694E+06
 0.10499999E+02  0.21456E+06
 0.10549999E+02  0.16884E+06
 0.10599999E+02  0.17539E+06
 0.10650000E+02 -0.35183E+06
 0.10699999E+02 -0.96051E+06
 0.10749999E+02 -0.13743E+07
 0.10799999E+02 -0.10816E+07
 0.10849999E+02 -0.37427E+06
 0.10900000E+02  0.10570E+05
 0.10949999E+02 -0.68695E+05
 0.10999999E+02 -0.30976E+06
 0.11049999E+02 -0.11253E+07
 0.11099999E+02 -0.13197E+07
 0.11150000E+02 -0.86348E+06
 0.11199999E+02 -0.50600E+06
 0.11249999E+02 -0.83176E+05
 0.11299999E+02 -0.38334E+06
 0.11349999E+02 -0.91542E+06
 0.11400000E+02 -0.91724E+06
 0.11449999E+02 -0.76179E+06
 0.11499999E+02 -0.77154E+06
 0.11549999E+02 -0.66344E+06
 0.11599999E+02 -0.89852E+06
 0.11650000E+02 -0.77506E+06
 0.11699999E+02 -0.48031E+06
 0.11749999E+02 -0.69366E+06
 0.11799999E+02 -0.68653E+06
 0.11849999E+02 -0.60738E+06
 0.11900000E+02 -0.34730E+06
 0.11949999E+02 -0.14379E+05
 0.11999999E+02 -0.55972E+05
 0.12049999E+02 -0.22153E+06
 0.12099999E+02 -0.19339E+06
 0.12150000E+02 -0.17201E+06
 0.12199999E+02 -0.38173E+06
 0.12249999E+02 -0.21892E+06
 0.12299999E+02 -0.12054E+06
 0.12349999E+02 -0.30216E+06
 0.12400000E+02 -0.58591E+06
 0.12449999E+02 -0.50718E+06
 0.12499999E+02 -0.57743E+06
 0.12549999E+02 -0.80678E+06
 0.12599999E+02 -0.84201E+06
 0.12649999E+02 -0.67833E+06
 0.12699999E+02 -0.15744E+06
 0.12749999E+02  0.39680E+05
 0.12799999E+02 -0.15612E+06
 0.12849999E+02 -0.45336E+06
 0.12899999E+02 -0.45629E+06
 0.12949999E+02 -0.58359E+06
 0.12999999E+02 -0.47362E+06
 0.13049999E+02 -0.41932E+06
 0.13099999E+02 -0.33487E+06
 0.13149999E+02 -0.37737E+06
 0.13199999E+02 -0.37105E+06
 0.13249999E+02 -0.28634E+06
 0.13299999E+02 -0.54821E+06
 0.13349999E+02 -0.62148E+06
 0.13399999E+02 -0.36855E+06
 0.13449999E+02 -0.14165E+06
 0.13499999E+02 -0.33828E+06
 0.13549999E+02 -0.38013E+06
 0.13599999E+02 -0.62545E+06
 0.13649999E+02 -0.53014E+06
 0.13699999E+02 -0.35866E+06
 0.13749999E+02 -0.13067E+06
 0.13799999E+02  0.20003E+06
 0.13849999E+02  0.44637E+06
 0.13899999E+02  0.29632E+06
 0.13949999E+02  0.31967E+06
 0.13999999E+02  0.23676E+06
 0.14049999E+02  0.12506E+06
 0.14099998E+02  0.38854E+05
 0.14150000E+02 -0.20638E+06
 0.14199999E+02 -0.47376E+04
 0.14249998E+02  0.27740E+06
 0.14299999E+02 -0.43668E+05
 0.14349998E+02 -0.35758E+06
 0.14400000E+02 -0.24728E+05
 0.14449999E+02  0.51600E+06
 0.14499998E+02 -0.41965E+05
 0.14549999E+02 -0.33974E+06
 0.14599998E+02  0.26732E+06
 0.14650000E+02  0.34632E+06
 0.14699999E+02  0.83704E+06
 0.14749998E+02  0.38008E+06
 0.14799999E+02  0.10790E+07
 0.14849998E+02 -0.13268E+05
 0.14900000E+02  0.40056E+05
 0.14949999E+02 -0.34122E+06
 0.14999998E+02 -0.64532E+06
 0.15049999E+02 -0.11803E+07
 0.15099998E+02 -0.75854E+06
 0.15150000E+02 -0.83153E+06
 0.15199999E+02 -0.13768E+07
 0.15249998E+02 -0.19120E+07
 0.15299999E+02 -0.24410E+07
 0.15349998E+02 -0.22640E+07
 0.15400000E+02 -0.39453E+07
 0.15449999E+02 -0.36617E+07
 0.15499998E+02 -0.45157E+07
 0.15549999E+02 -0.33042E+07
 0.15599998E+02 -0.42915E+07
 0.15650000E+02 -0.46307E+07
 0.15699999E+02 -0.55889E+07
 0.15749998E+02 -0.50263E+07
 0.15799999E+02 -0.89113E+07
 0.15849998E+02 -0.74355E+06
 0.15900000E+02 -0.50853E+06
 0.15949999E+02  0.26130E+06
 0.15999998E+02  0.10587E+08
 0.16049999E+02  0.71177E+07
 0.16099998E+02  0.91241E+07
 0.16150000E+02  0.78691E+07
 0.16199999E+02  0.86500E+07
 0.16249998E+02  0.82101E+07
 0.16299999E+02  0.84142E+07
 0.16349998E+02  0.83873E+07
 0.16400000E+02  0.82907E+07
 0.16449999E+02  0.84788E+07
 0.16499998E+02  0.82347E+07
 0.16549999E+02  0.85020E+07
 0.16599998E+02  0.82225E+07
 0.16650000E+02  0.84939E+07
 0.16699999E+02  0.82411E+07
 0.16749998E+02  0.84550E+07
 0.16799999E+02  0.82539E+07
 0.16849998E+02  0.83943E+07
 0.16900000E+02  0.82337E+07
 0.16949999E+02  0.83285E+07
 0.16999998E+02  0.82484E+07
 0.17049999E+02  0.82945E+07
 0.17099998E+02  0.82982E+07
 0.17150000E+02  0.82981E+07
 0.17199999E+02  0.82980E+07
 0.17249998E+02  0.82980E+07
 0.17299999E+02  0.82981E+07
 0.17349998E+02  0.82981E+07
 0.17400000E+02  0.82981E+07
 0.17449999E+02  0.82981E+07
 0.17499998E+02  0.82981E+07
 0.17549999E+02  0.82981E+07
 0.17599998E+02  0.82981E+07
 0.17650000E+02  0.82981E+07
 0.17699999E+02  0.82981E+07
 0.17749998E+02  0.82981E+07
 0.17799999E+02  0.82981E+07
 0.17849998E+02  0.82981E+07
 0.17900000E+02  0.82981E+07
 0.17949999E+02  0.82981E+07
 0.17999998E+02  0.82981E+07
 0.18049999E+02  0.82981E+07
 0.18099998E+02  0.82981E+07
 0.18150000E+02  0.82981E+07
 0.18199999E+02  0.82981E+07
 0.18249998E+02  0.82981E+07
 0.18299999E+02  0.82981E+07
 0.18349998E+02  0.82981E+07
 0.18400000E+02  0.82981E+07
 0.18449999E+02  0.82981E+07
 0.18499998E+02  0.82981E+07
 0.18549999E+02  0.82981E+07
 0.18599998E+02  0.82981E+07
 0.18650000E+02  0.82981E+07
 0.18699999E+02  0.82981E+07
 0.18749998E+02  0.82981E+07
 0.18799999E+02  0.82981E+07
 0.18849998E+02  0.82981E+07
 0.18900000E+02  0.82981E+07
 0.18949999E+02  0.82981E+07
 0.18999998E+02  0.82981E+07
 0.19049999E+02  0.82981E+07
 0.19099998E+02  0.82981E+07
 0.19150000E+02  0.82981E+07
 0.19199999E+02  0.82981E+07
 0.19249998E+02  0.82981E+07
 0.19299999E+02  0.82981E+07
 0.19349998E+02  0.82981E+07
 0.19400000E+02  0.82981E+07
 0.19449999E+02  0.82981E+07
 0.19499998E+02  0.82981E+07
 0.19549999E+02  0.82981E+07
 0.19599998E+02  0.82981E+07
 0.19650000E+02  0.82981E+07
 0.19699999E+02  0.82981E+07
 0.19749998E+02  0.82981E+07
 0.19799999E+02  0.82981E+07
 0.19849998E+02  0.82981E+07
 0.19900000E+02  0.82981E+07
 0.19949999E+02  0.82981E+07
 0.19999998E+02  0.82981E+07
 0.20049999E+02  0.82981E+07
 0.20099998E+02  0.82981E+07
 0.20150000E+02  0.82981E+07
 0.20199999E+02  0.82981E+07
 0.20249998E+02  0.82981E+07
 0.20299999E+02  0.82981E+07
 0.20349998E+02  0.82981E+07
 0.20399998E+02  0.82981E+07
 0.20449999E+02  0.82981E+07
 0.20499998E+02  0.82981E+07
 0.20549999E+02  0.82981E+07
 0.20599998E+02  0.82981E+07
 0.20649998E+02  0.82981E+07
 0.20699999E+02  0.82981E+07
 0.20749998E+02  0.82981E+07
 0.20799999E+02  0.82981E+07
 0.20849998E+02  0.82981E+07
 0.20899998E+02  0.82981E+07
 0.20949999E+02  0.82981E+07
 0.20999998E+02  0.82981E+07
 0.21049999E+02  0.82981E+07
 0.21099998E+02  0.82981E+07
 0.21149998E+02  0.82981E+07
 0.21199999E+02  0.82981E+07
 0.21249998E+02  0.82981E+07
 0.21299999E+02  0.82981E+07
 0.21349998E+02  0.82981E+07
 0.21399998E+02  0.82981E+07
 0.21449999E+02  0.82981E+07
 0.21499998E+02  0.82981E+07
 0.21549999E+02  0.82981E+07
 0.21599998E+02  0.82981E+07
 0.21649998E+02  0.82981E+07
 0.21699999E+02  0.82981E+07
 0.21749998E+02  0.82981E+07
 0.21799999E+02  0.82981E+07
 0.21849998E+02  0.82981E+07
 0.21899998E+02  0.82981E+07
 0.21949999E+02  0.82981E+07
 0.21999998E+02  0.82981E+07
 0.22049999E+02  0.82981E+07
 0.22099998E+02  0.82981E+07
 0.22149998E+02  0.82981E+07
 0.22199999E+02  0.82981E+07
 0.22249998E+02  0.82981E+07
 0.22299999E+02  0.82981E+07
 0.22349998E+02  0.82981E+07
 0.22399998E+02  0.82981E+07
 0.22449999E+02  0.82981E+07
 0.22499998E+02  0.82981E+07
 0.22549999E+02  0.82981E+07
 0.22599998E+02  0.82981E+07
 0.22649998E+02  0.82981E+07
 0.22699999E+02  0.82981E+07
 0.22749998E+02  0.82981E+07
 0.22799999E+02  0.82981E+07
 0.22849998E+02  0.82981E+07
 0.22899998E+02  0.82981E+07
 0.22949999E+02  0.82981E+07
 0.22999998E+02  0.82981E+07
 0.23049999E+02  0.82981E+07
 0.23099998E+02  0.82981E+07
 0.23149998E+02  0.82981E+07
 0.23199999E+02  0.82981E+07
 0.23249998E+02  0.82981E+07
 0.23299999E+02  0.82981E+07
 0.23349998E+02  0.82981E+07
 0.23399998E+02  0.82981E+07
 0.23449999E+02  0.82981E+07
 0.23499998E+02  0.82981E+07
 0.23549999E+02  0.82981E+07
 0.23599998E+02  0.82981E+07
 0.23649998E+02  0.82980E+07
 0.23699999E+02  0.82979E+07
 0.23749998E+02  0.82981E+07
 0.23799999E+02  0.82998E+07
 0.23849998E+02  0.82266E+07
 0.23899998E+02  0.83078E+07
 0.23949999E+02  0.82917E+07
 0.23999998E+02  0.83888E+07
 0.24049999E+02  0.83849E+07
 0.24099998E+02  0.83647E+07
 0.24149998E+02  0.83558E+07
 0.24199999E+02  0.83037E+07
 0.24249998E+02  0.83694E+07
 0.24299999E+02  0.81735E+07
 0.24349998E+02  0.84157E+07
 0.24399998E+02  0.81737E+07
 0.24449999E+02  0.85270E+07
 0.24499998E+02  0.81349E+07
 0.24549999E+02  0.86179E+07
 0.24599998E+02  0.80785E+07
 0.24649998E+02  0.87030E+07
 0.24699999E+02  0.79995E+07
 0.24749998E+02  0.88685E+07
 0.24799999E+02  0.78160E+07
 0.24849998E+02  0.92948E+07
 0.24899998E+02  0.42838E+07
 0.24949999E+02 -0.93462E+07
 0.24999998E+02 -0.68938E+07
 0.25049999E+02 -0.99302E+07
 0.25099998E+02  0.13100E+07
 0.25149998E+02  0.93406E+07
 0.25199999E+02  0.81829E+07
 0.25249998E+02  0.81300E+07
 0.25299999E+02  0.92305E+07
 0.25349998E+02  0.45428E+07
 0.25399998E+02 -0.85377E+07
 0.25449999E+02 -0.74128E+07
 0.25499998E+02 -0.77007E+07
 0.25549999E+02 -0.73805E+07
 0.25599998E+02 -0.75551E+07
 0.25649998E+02 -0.72791E+07
 0.25699999E+02 -0.77165E+07
 0.25749998E+02 -0.69328E+07
 0.25799999E+02 -0.93492E+07
 0.25849998E+02  0.42725E+07
 0.25899998E+02  0.69516E+06
 0.25949999E+02 -0.10289E+08
 0.25999998E+02 -0.58355E+07
 0.26049999E+02 -0.85983E+07
 0.26099998E+02 -0.62745E+07
 0.26149998E+02 -0.78813E+07
 0.26199999E+02 -0.60333E+07
 0.26249998E+02 -0.75890E+07
 0.26299999E+02 -0.63047E+07
 0.26349998E+02 -0.86813E+07
 0.26399998E+02 -0.50872E+07
 0.26449999E+02  0.79217E+07
 0.26499998E+02  0.88306E+07
 0.26549999E+02  0.80125E+07
 0.26599998E+02  0.89741E+07
 0.26649998E+02  0.77935E+07
 0.26699999E+02  0.94037E+07
 0.26749998E+02  0.57023E+07
 0.26799999E+02 -0.74131E+07
 0.26849998E+02 -0.76844E+07
 0.26899998E+02 -0.69906E+07
 0.26949999E+02 -0.71663E+07
 0.26999998E+02 -0.65656E+07
 0.27049997E+02 -0.68524E+07
 0.27099998E+02 -0.60658E+07
 0.27149998E+02 -0.63898E+07
 0.27199999E+02 -0.58920E+07
 0.27249998E+02 -0.59505E+07
 0.27299997E+02 -0.51176E+07
 0.27349998E+02 -0.47075E+07
 0.27399998E+02 -0.40652E+07
 0.27449999E+02 -0.41488E+07
 0.27499998E+02 -0.41499E+07
 0.27549997E+02 -0.46949E+07
 0.27599998E+02 -0.49339E+07
 0.27649998E+02 -0.50567E+07
 0.27699999E+02 -0.51316E+07
 0.27749998E+02 -0.51039E+07
 0.27799997E+02 -0.49496E+07
 0.27849998E+02 -0.47094E+07
 0.27899998E+02 -0.46774E+07
 0.27949999E+02 -0.49119E+07
 0.27999998E+02 -0.53069E+07
 0.28049997E+02 -0.54377E+07
 0.28099998E+02 -0.56442E+07
 0.28149998E+02 -0.59001E+07
 0.28199999E+02 -0.58817E+07
 0.28249998E+02 -0.55606E+07
 0.28299997E+02 -0.48867E+07
 0.28349998E+02 -0.43755E+07
 0.28399998E+02 -0.41773E+07
 0.28449999E+02 -0.42585E+07
 0.28499998E+02 -0.44541E+07
 0.28549997E+02 -0.43855E+07
 0.28599998E+02 -0.42174E+07
 0.28649998E+02 -0.38698E+07
 0.28699999E+02 -0.35949E+07
 0.28749998E+02 -0.31585E+07
 0.28799997E+02 -0.25929E+07
 0.28849998E+02 -0.24971E+07
 0.28899998E+02 -0.26777E+07
 0.28949999E+02 -0.30460E+07
 0.28999998E+02 -0.34657E+07
 0.29049997E+02 -0.38938E+07
 0.29099998E+02 -0.44701E+07
 0.29149998E+02 -0.49706E+07
 0.29199999E+02 -0.51776E+07
 0.29249998E+02 -0.52163E+07
 0.29299997E+02 -0.49080E+07
 0.29349998E+02 -0.43996E+07
 0.29399998E+02 -0.36192E+07
 0.29449999E+02 -0.26396E+07
 0.29499998E+02 -0.19759E+07
 0.29549997E+02 -0.14357E+07
 0.29599998E+02 -0.92099E+06
 0.29649998E+02 -0.55812E+06
 0.29699999E+02 -0.40791E+06
 0.29749998E+02 -0.50032E+06
 0.29799997E+02 -0.77305E+06
 0.29849998E+02 -0.11447E+07
 0.29899998E+02 -0.16482E+07
 0.29949999E+02 -0.21675E+07
 0.29999998E+02 -0.25540E+07
 0.30049999E+02 -0.28210E+07
 0.30099998E+02 -0.29615E+07
 0.30149998E+02 -0.29254E+07
 0.30199997E+02 -0.28020E+07
 0.30249996E+02 -0.26201E+07
 0.30299999E+02 -0.22353E+07
 0.30349998E+02 -0.17221E+07
 0.30399998E+02 -0.12723E+07
 0.30449997E+02 -0.10744E+07
 0.30499996E+02 -0.10174E+07
 0.30549999E+02 -0.10908E+07
 0.30599998E+02 -0.13503E+07
 0.30649998E+02 -0.16841E+07
 0.30699997E+02 -0.19683E+07
 0.30749996E+02 -0.24057E+07
 0.30799999E+02 -0.28403E+07
 0.30849998E+02 -0.31019E+07
 0.30899998E+02 -0.34678E+07
 0.30949997E+02 -0.38933E+07
 0.30999996E+02 -0.43487E+07
 0.31049999E+02 -0.45981E+07
 0.31099998E+02 -0.45875E+07
 0.31149998E+02 -0.43572E+07
 0.31199997E+02 -0.39349E+07
 0.31249996E+02 -0.33836E+07
 0.31299999E+02 -0.27804E+07
 0.31349998E+02 -0.22576E+07
 0.31399998E+02 -0.18150E+07
 0.31449997E+02 -0.14101E+07
 0.31499996E+02 -0.12106E+07
 0.31549999E+02 -0.10863E+07
 0.31599998E+02 -0.97196E+06
 0.31649998E+02 -0.10166E+07
 0.31699997E+02 -0.10429E+07
 0.31749996E+02 -0.10433E+07
 0.31799999E+02 -0.99698E+06
 0.31849998E+02 -0.78723E+06
 0.31899998E+02 -0.46668E+06
 0.31949997E+02  0.49695E+05
 0.31999996E+02  0.65107E+06
 0.32049999E+02  0.10612E+07
 0.32099998E+02  0.14395E+07
 0.32149998E+02  0.17749E+07
 0.32199997E+02  0.18370E+07
 0.32249996E+02  0.16340E+07
 0.32299999E+02  0.13345E+07
 0.32349998E+02  0.86970E+06
 0.32399998E+02  0.46987E+06
 0.32449997E+02  0.14799E+06
 0.32499996E+02 -0.19318E+06
 0.32549999E+02 -0.41708E+06
 0.32599998E+02 -0.62344E+06
 0.32649998E+02 -0.69512E+06
 0.32699997E+02 -0.60576E+06
 0.32749996E+02 -0.51736E+06
 0.32799999E+02 -0.38614E+06
 0.32849998E+02 -0.10098E+06
 0.32899998E+02  0.42431E+05
 0.32949997E+02  0.20127E+06
 0.32999996E+02  0.43693E+06
 0.33049999E+02  0.65849E+06
 0.33099998E+02  0.88546E+06
 0.33149998E+02  0.10402E+07
 0.33199997E+02  0.12000E+07
 0.33249996E+02  0.12749E+07
 0.33299999E+02  0.12773E+07
 0.33349998E+02  0.12832E+07
 0.33399998E+02  0.14130E+07
 0.33449997E+02  0.15515E+07
 0.33499996E+02  0.17021E+07
 0.33549999E+02  0.19215E+07
 0.33599998E+02  0.21657E+07
 0.33649998E+02  0.23802E+07
 0.33699997E+02  0.25589E+07
 0.33749996E+02  0.27473E+07
 0.33799999E+02  0.29037E+07
 0.33849998E+02  0.28652E+07
 0.33899998E+02  0.27256E+07
 0.33949997E+02  0.26440E+07
 0.33999996E+02  0.23354E+07
 0.34049999E+02  0.18217E+07
 0.34099998E+02  0.12539E+07
 0.34149998E+02  0.79487E+06
 0.34199997E+02  0.51063E+06
 0.34249996E+02  0.35228E+06
 0.34299999E+02  0.35934E+06
 0.34349998E+02  0.56434E+06
 0.34399998E+02  0.89132E+06
 0.34449997E+02  0.11862E+07
 0.34499996E+02  0.13934E+07
 0.34549999E+02  0.14985E+07
 0.34599998E+02  0.16080E+07
 0.34649998E+02  0.16727E+07
 0.34699997E+02  0.16604E+07
 0.34749996E+02  0.16542E+07
 0.34799999E+02  0.16790E+07
 0.34849998E+02  0.17436E+07
 0.34899998E+02  0.17767E+07
 0.34949997E+02  0.16881E+07
 0.34999996E+02  0.15778E+07
 0.35049999E+02  0.15010E+07
 0.35099998E+02  0.14140E+07
 0.35149998E+02  0.14069E+07
 0.35199997E+02  0.14971E+07
 0.35249996E+02  0.17737E+07
 0.35299999E+02  0.22923E+07
 0.35349998E+02  0.29151E+07
 0.35399998E+02  0.34877E+07
 0.35449997E+02  0.39044E+07
 0.35499996E+02  0.41117E+07
 0.35549999E+02  0.41733E+07
 0.35599998E+02  0.40527E+07
 0.35649998E+02  0.37471E+07
 0.35699997E+02  0.34063E+07
 0.35749996E+02  0.31689E+07
 0.35799999E+02  0.31032E+07
 0.35849998E+02  0.31632E+07
 0.35899998E+02  0.34248E+07
 0.35949997E+02  0.37233E+07
 0.35999996E+02  0.39284E+07
 0.36049999E+02  0.40131E+07
 0.36099998E+02  0.39058E+07
 0.36149998E+02  0.36743E+07
 0.36199997E+02  0.33179E+07
 0.36249996E+02  0.28686E+07
 0.36299999E+02  0.24915E+07
 0.36349998E+02  0.22731E+07
 0.36399998E+02  0.22319E+07
 0.36449997E+02  0.24791E+07
 0.36499996E+02  0.29349E+07
 0.36549999E+02  0.35074E+07
 0.36599998E+02  0.41433E+07
 0.36649998E+02  0.46068E+07
 0.36699997E+02  0.48801E+07
 0.36749996E+02  0.49634E+07
 0.36799999E+02  0.48546E+07
 0.36849998E+02  0.45944E+07
 0.36899998E+02  0.42721E+07
 0.36949997E+02  0.40113E+07
 0.36999996E+02  0.38678E+07
 0.37049999E+02  0.38722E+07
 0.37099998E+02  0.39154E+07
 0.37149998E+02  0.40324E+07
 0.37199997E+02  0.41989E+07
 0.37249996E+02  0.43048E+07
 0.37299999E+02  0.44143E+07
 0.37349998E+02  0.45997E+07
 0.37399998E+02  0.48630E+07
 0.37449997E+02  0.51649E+07
 0.37499996E+02  0.54276E+07
 0.37549999E+02  0.56494E+07
 0.37599998E+02  0.58413E+07
 0.37649998E+02  0.57992E+07
 0.37699997E+02  0.54821E+07
 0.37749996E+02  0.50936E+07
 0.37799999E+02  0.46718E+07
 0.37849998E+02  0.42640E+07
 0.37899998E+02  0.39537E+07
 0.37949997E+02  0.37196E+07
 0.37999996E+02  0.35784E+07
 0.38049999E+02  0.35817E+07
 0.38099998E+02  0.36392E+07
 0.38149998E+02  0.37067E+07
 0.38199997E+02  0.37349E+07
 0.38249996E+02  0.37562E+07
 0.38299999E+02  0.37844E+07
 0.38349998E+02  0.37655E+07
 0.38399998E+02  0.38129E+07
 0.38449997E+02  0.39123E+07
 0.38499996E+02  0.39321E+07
 0.38549999E+02  0.38469E+07
 0.38599998E+02  0.37127E+07
 0.38649998E+02  0.35878E+07
 0.38699997E+02  0.35706E+07
 0.38749996E+02  0.35737E+07
 0.38799999E+02  0.36160E+07
 0.38849998E+02  0.37495E+07
 0.38899998E+02  0.39406E+07
 0.38949997E+02  0.42144E+07
 0.38999996E+02  0.45063E+07
 0.39049999E+02  0.48006E+07
 0.39099998E+02  0.51349E+07
 0.39149998E+02  0.54983E+07
 0.39199997E+02  0.58068E+07
 0.39249996E+02  0.60735E+07
 0.39299999E+02  0.62424E+07
 0.39349998E+02  0.62867E+07
 0.39399998E+02  0.62558E+07
 0.39449997E+02  0.61270E+07
 0.39499996E+02  0.59774E+07
 0.39549999E+02  0.58900E+07
 0.39599998E+02  0.58776E+07
 0.39649998E+02  0.59502E+07
 0.39699997E+02  0.60608E+07
 0.39749996E+02  0.62237E+07
 0.39799999E+02  0.63704E+07
 0.39849998E+02  0.63653E+07
 0.39899998E+02  0.62877E+07
 0.39949997E+02  0.61559E+07
 0.39999996E+02  0.59563E+07
 0.40049999E+02  0.57554E+07
 0.40099998E+02  0.55506E+07
 0.40149998E+02  0.53523E+07
 0.40199997E+02  0.52263E+07
 0.40249996E+02  0.52021E+07
 0.40299999E+02  0.52665E+07
 0.40349998E+02  0.54141E+07
 0.40399998E+02  0.56200E+07
 0.40449997E+02  0.58504E+07
 0.40499996E+02  0.61302E+07
 0.40549999E+02  0.64325E+07
 0.40599998E+02  0.67058E+07
 0.40649998E+02  0.68972E+07
 0.40699997E+02  0.69627E+07
 0.40749996E+02  0.69611E+07
 0.40799999E+02  0.68608E+07
 0.40849998E+02  0.66602E+07
 0.40899998E+02  0.64640E+07
 0.40949997E+02  0.62566E+07
 0.40999996E+02  0.60740E+07
 0.41049999E+02  0.59963E+07
 0.41099998E+02  0.60083E+07
 0.41149998E+02  0.60901E+07
 0.41199997E+02  0.62161E+07
 0.41249996E+02  0.63939E+07
 0.41299999E+02  0.66323E+07
 0.41349998E+02  0.68505E+07
 0.41399998E+02  0.69879E+07
 0.41449997E+02  0.70264E+07
 0.41499996E+02  0.69735E+07
 0.41549999E+02  0.68553E+07
 0.41599998E+02  0.67196E+07
 0.41649998E+02  0.66234E+07
 0.41699997E+02  0.66202E+07
 0.41749996E+02  0.66892E+07
 0.41799999E+02  0.68454E+07
 0.41849998E+02  0.70946E+07
 0.41899998E+02  0.73188E+07
 0.41949997E+02  0.74821E+07
 0.41999996E+02  0.75915E+07
 0.42049999E+02  0.76411E+07
 0.42099998E+02  0.76310E+07
 0.42149998E+02  0.75625E+07
 0.42199997E+02  0.74528E+07
 0.42249996E+02  0.73248E+07
 0.42299999E+02  0.71849E+07
 0.42349998E+02  0.69811E+07
 0.42399998E+02  0.66923E+07
 0.42449997E+02  0.63830E+07
 0.42499996E+02  0.60732E+07
 0.42549999E+02  0.58012E+07
 0.42599998E+02  0.56221E+07
 0.42649998E+02  0.55827E+07
 0.42699997E+02  0.56802E+07
 0.42749996E+02  0.58838E+07
 0.42799995E+02  0.60920E+07
 0.42849998E+02  0.62241E+07
 0.42899998E+02  0.63070E+07
 0.42949997E+02  0.63578E+07
 0.42999996E+02  0.63967E+07
 0.43049995E+02  0.63786E+07
 0.43099998E+02  0.63018E+07
 0.43149998E+02  0.62379E+07
 0.43199997E+02  0.62219E+07
 0.43249996E+02  0.63004E+07
 0.43299995E+02  0.65074E+07
 0.43349998E+02  0.67997E+07
 0.43399998E+02  0.71287E+07
 0.43449997E+02  0.74192E+07
 0.43499996E+02  0.76312E+07
 0.43549995E+02  0.77506E+07
 0.43599998E+02  0.77776E+07
 0.43649998E+02  0.77618E+07
 0.43699997E+02  0.77266E+07
 0.43749996E+02  0.77253E+07
 0.43799995E+02  0.77535E+07
 0.43849998E+02  0.78054E+07
 0.43899998E+02  0.79244E+07
 0.43949997E+02  0.80580E+07
 0.43999996E+02  0.82308E+07
 0.44049995E+02  0.83172E+07
 0.44099998E+02  0.83122E+07
 0.44149998E+02  0.83140E+07
 0.44199997E+02  0.83099E+07
 0.44249996E+02  0.83095E+07
 0.44299995E+02  0.83046E+07
 0.44349998E+02  0.82987E+07
 0.44399998E+02  0.80651E+07
 0.44449997E+02  0.77334E+07
 0.44499996E+02  0.74735E+07
 0.44549995E+02  0.72232E+07
 0.44599998E+02  0.70010E+07
 0.44649998E+02  0.68274E+07
 0.44699997E+02  0.67551E+07
 0.44749996E+02  0.67676E+07
 0.44799995E+02  0.68077E+07
 0.44849998E+02  0.68878E+07
 0.44899998E+02  0.70483E+07
 0.44949997E+02  0.72318E+07
 0.44999996E+02  0.74276E+07
 0.45049995E+02  0.75931E+07
 0.45099998E+02  0.77184E+07
 0.45149998E+02  0.78614E+07
 0.45199997E+02  0.79994E+07
 0.45249996E+02  0.81252E+07
 0.45299995E+02  0.81624E+07
 0.45349998E+02  0.81299E+07
 0.45399998E+02  0.80933E+07
 0.45449997E+02  0.80597E+07
 0.45499996E+02  0.80572E+07
 0.45549995E+02  0.80620E+07
 0.45599998E+02  0.80858E+07
 0.45649998E+02  0.80941E+07
 0.45699997E+02  0.80537E+07
 0.45749996E+02  0.79877E+07
 0.45799995E+02  0.79318E+07
 0.45849998E+02  0.78905E+07
 0.45899998E+02  0.78710E+07
 0.45949997E+02  0.78640E+07
 0.45999996E+02  0.78390E+07
 0.46049995E+02  0.78300E+07
 0.46099998E+02  0.78564E+07
 0.46149998E+02  0.79040E+07
 0.46199997E+02  0.79852E+07
 0.46249996E+02  0.80829E+07
 0.46299995E+02  0.81568E+07
 0.46349998E+02  0.82197E+07
 0.46399998E+02  0.82721E+07
 0.46449997E+02  0.82917E+07
 0.46499996E+02  0.82969E+07
 0.46549995E+02  0.82577E+07
 0.46599998E+02  0.81712E+07
 0.46649998E+02  0.80834E+07
 0.46699997E+02  0.80015E+07
 0.46749996E+02  0.79315E+07
 0.46799995E+02  0.78565E+07
 0.46849998E+02  0.78020E+07
 0.46899998E+02  0.77622E+07
 0.46949997E+02  0.77302E+07
 0.46999996E+02  0.77429E+07
 0.47049995E+02  0.77561E+07
 0.47099998E+02  0.77868E+07
 0.47149998E+02  0.78710E+07
 0.47199997E+02  0.79567E+07
 0.47249996E+02  0.80734E+07
 0.47299995E+02  0.82377E+07
 0.47349998E+02  0.83057E+07
 0.47399998E+02  0.82974E+07
 0.47449997E+02  0.83010E+07
 0.47499996E+02  0.82991E+07
 0.47549995E+02  0.83002E+07
 0.47599998E+02  0.83005E+07
 0.47649998E+02  0.83004E+07
 0.47699997E+02  0.83017E+07
 0.47749996E+02  0.83001E+07
 0.47799995E+02  0.83030E+07
 0.47849998E+02  0.82794E+07
 0.47899998E+02  0.81991E+07
 0.47949997E+02  0.81037E+07
 0.47999996E+02  0.79976E+07
 0.48049995E+02  0.78546E+07
 0.48099998E+02  0.77365E+07
 0.48149998E+02  0.76780E+07
 0.48199997E+02  0.77149E+07
 0.48249996E+02  0.78276E+07
 0.48299995E+02  0.79759E+07
 0.48349998E+02  0.82132E+07
 0.48399998E+02  0.83085E+07
 0.48449997E+02  0.82923E+07
 0.48499996E+02  0.83020E+07
 0.48549995E+02  0.82958E+07
 0.48599998E+02  0.83009E+07
 0.48649998E+02  0.82976E+07
 0.48699997E+02  0.83001E+07
 0.48749996E+02  0.82985E+07
 0.48799995E+02  0.82997E+07
 0.48849998E+02  0.82994E+07
 0.48899998E+02  0.83001E+07
 0.48949997E+02  0.83009E+07
 0.48999996E+02  0.83012E+07
 0.49049995E+02  0.83025E+07
 0.49099998E+02  0.83025E+07
 0.49149998E+02  0.83029E+07
 0.49199997E+02  0.83021E+07
 0.49249996E+02  0.83011E+07
 0.49299995E+02  0.83008E+07
 0.49349998E+02  0.82981E+07
 0.49399998E+02  0.82996E+07
 0.49449997E+02  0.82615E+07
 0.49499996E+02  0.82083E+07
 0.49549995E+02  0.81667E+07
 0.49599998E+02  0.81488E+07
 0.49649998E+02  0.81605E+07
 0.49699997E+02  0.81946E+07
 0.49749996E+02  0.82226E+07
 0.49799995E+02  0.82146E+07
 0.49849998E+02  0.81909E+07
 0.49899998E+02  0.81427E+07
 0.49949997E+02  0.80760E+07
 0.49999996E+02  0.79822E+07
 0.50049995E+02  0.78886E+07
 0.50099998E+02  0.78252E+07
 0.50149998E+02  0.78368E+07
 0.50199997E+02  0.78740E+07
 0.50249996E+02  0.79499E+07
 0.50299995E+02  0.80563E+07
 0.50349998E+02  0.81868E+07
 0.50399998E+02  0.82958E+07
 0.50449997E+02  0.82983E+07
 0.50499996E+02  0.82993E+07
 0.50549995E+02  0.82991E+07
 0.50599998E+02  0.82988E+07
 0.50649998E+02  0.82992E+07
 0.50699997E+02  0.82983E+07
 0.50749996E+02  0.82993E+07
 0.50799995E+02  0.82986E+07
 0.50849998E+02  0.83000E+07
 0.50899998E+02  0.82993E+07
 0.50949997E+02  0.83006E+07
 0.50999996E+02  0.83000E+07
 0.51049995E+02  0.83008E+07
 0.51099998E+02  0.83000E+07
 0.51149998E+02  0.83000E+07
 0.51199997E+02  0.82989E+07
 0.51249996E+02  0.82986E+07
 0.51299995E+02  0.82979E+07
 0.51349998E+02  0.82976E+07
 0.51399998E+02  0.82974E+07
 0.51449997E+02  0.82977E+07
 0.51499996E+02  0.82981E+07
 0.51549995E+02  0.82981E+07
 0.51599998E+02  0.82981E+07
 0.51649998E+02  0.82981E+07
 0.51699997E+02  0.82981E+07
 0.51749996E+02  0.82981E+07
 0.51799995E+02  0.82981E+07
 0.51849998E+02  0.82981E+07
 0.51899998E+02  0.82981E+07
 0.51949997E+02  0.82981E+07
 0.51999996E+02  0.82981E+07
 0.52049995E+02  0.82981E+07
 0.52099998E+02  0.82981E+07
 0.52149998E+02  0.82981E+07
 0.52199997E+02  0.82981E+07
 0.52249996E+02  0.82981E+07
 0.52299995E+02  0.82981E+07
 0.52349998E+02  0.82981E+07
 0.52399998E+02  0.82981E+07
 0.52449997E+02  0.82981E+07
 0.52499996E+02  0.82981E+07
 0.52549995E+02  0.82980E+07
 0.52599998E+02  0.82979E+07
 0.52649998E+02  0.82980E+07
 0.52699997E+02  0.82981E+07
 0.52749996E+02  0.82984E+07
 0.52799995E+02  0.82982E+07
 0.52849998E+02  0.82983E+07
 0.52899998E+02  0.82981E+07
 0.52949997E+02  0.82982E+07
 0.52999996E+02  0.82980E+07
 0.53049995E+02  0.82982E+07
 0.53099998E+02  0.82980E+07
 0.53149998E+02  0.82981E+07
 0.53199997E+02  0.82981E+07
 0.53249996E+02  0.82979E+07
 0.53299995E+02  0.82983E+07
 0.53349998E+02  0.82977E+07
 0.53399998E+02  0.82986E+07
 0.53449997E+02  0.82974E+07
 0.53499996E+02  0.82991E+07
 0.53549995E+02  0.82966E+07
 0.53599998E+02  0.83006E+07
 0.53649998E+02  0.82801E+07
 0.53699997E+02  0.82489E+07
 0.53749996E+02  0.82402E+07
 0.53799995E+02  0.82635E+07
 0.53849998E+02  0.82981E+07
 0.53899998E+02  0.82976E+07
 0.53949997E+02  0.82983E+07
 0.53999996E+02  0.82980E+07
 0.54049995E+02  0.82980E+07
 0.54099998E+02  0.82982E+07
 0.54149998E+02  0.82979E+07
 0.54199997E+02  0.82983E+07
 0.54249996E+02  0.82978E+07
 0.54299995E+02  0.82983E+07
 0.54349998E+02  0.82978E+07
 0.54399998E+02  0.82983E+07
 0.54449997E+02  0.82979E+07
 0.54499996E+02  0.82983E+07
 0.54549995E+02  0.82980E+07
 0.54599998E+02  0.82983E+07
 0.54649998E+02  0.82982E+07
 0.54699997E+02  0.82984E+07
 0.54749996E+02  0.82982E+07
 0.54799995E+02  0.82981E+07
 0.54849998E+02  0.82979E+07
 0.54899998E+02  0.82979E+07
 0.54949997E+02  0.82981E+07
 0.54999996E+02  0.82981E+07
 0.55049995E+02  0.82981E+07
 0.55099998E+02  0.82981E+07
 0.55149998E+02  0.82981E+07
 0.55199997E+02  0.82981E+07
 0.55249996E+02  0.82981E+07
 0.55299995E+02  0.82981E+07
 0.55349998E+02  0.82981E+07
 0.55399998E+02  0.82981E+07
 0.55449997E+02  0.82981E+07
 0.55499996E+02  0.82981E+07
 0.55549995E+02  0.82981E+07
 0.55599998E+02  0.82981E+07
 0.55649998E+02  0.82981E+07
 0.55699997E+02  0.82981E+07
 0.55749996E+02  0.82981E+07
 0.55799995E+02  0.82981E+07
 0.55849995E+02  0.82981E+07
 0.55899998E+02  0.82981E+07
 0.55949997E+02  0.82981E+07
 0.55999996E+02  0.82981E+07
 0.56049995E+02  0.82981E+07
 0.56099995E+02  0.82981E+07
 0.56149998E+02  0.82981E+07
 0.56199997E+02  0.82981E+07
 0.56249996E+02  0.82981E+07
 0.56299995E+02  0.82981E+07
 0.56349995E+02  0.82981E+07
 0.56399998E+02  0.82981E+07
 0.56449997E+02  0.82981E+07
 0.56499996E+02  0.82981E+07
 0.56549995E+02  0.82981E+07
 0.56599995E+02  0.82981E+07
 0.56649998E+02  0.82981E+07
 0.56699997E+02  0.82981E+07
 0.56749996E+02  0.82981E+07
 0.56799995E+02  0.82981E+07
 0.56849995E+02  0.82981E+07
 0.56899998E+02  0.82981E+07
 0.56949997E+02  0.82981E+07
 0.56999996E+02  0.82981E+07
 0.57049995E+02  0.82981E+07
 0.57099995E+02  0.82979E+07
 0.57149998E+02  0.82977E+07
 0.57199997E+02  0.82978E+07
 0.57249996E+02  0.82980E+07
 0.57299995E+02  0.82985E+07
 0.57349995E+02  0.82986E+07
 0.57399998E+02  0.82988E+07
 0.57449997E+02  0.82987E+07
 0.57499996E+02  0.82990E+07
 0.57549995E+02  0.82988E+07
 0.57599995E+02  0.82991E+07
 0.57649998E+02  0.82991E+07
 0.57699997E+02  0.82994E+07
 0.57749996E+02  0.82995E+07
 0.57799995E+02  0.82992E+07
 0.57849995E+02  0.82991E+07
 0.57899998E+02  0.82984E+07
 0.57949997E+02  0.82989E+07
 0.57999996E+02  0.82978E+07
 0.58049995E+02  0.82991E+07
 0.58099995E+02  0.82968E+07
 0.58149998E+02  0.83006E+07
 0.58199997E+02  0.82593E+07
 0.58249996E+02  0.81780E+07
 0.58299995E+02  0.81223E+07
 0.58349995E+02  0.80967E+07
 0.58399998E+02  0.81050E+07
 0.58449997E+02  0.81132E+07
 0.58499996E+02  0.81090E+07
 0.58549995E+02  0.81030E+07
 0.58599995E+02  0.80941E+07
 0.58649998E+02  0.80879E+07
 0.58699997E+02  0.80943E+07
 0.58749996E+02  0.81254E+07
 0.58799995E+02  0.81855E+07
 0.58849995E+02  0.82617E+07
 0.58899998E+02  0.83006E+07
 0.58949997E+02  0.82982E+07
 0.58999996E+02  0.82994E+07
 0.59049995E+02  0.82983E+07
 0.59099995E+02  0.82992E+07
 0.59149998E+02  0.82984E+07
 0.59199997E+02  0.82996E+07
 0.59249996E+02  0.82988E+07
 0.59299995E+02  0.83002E+07
 0.59349995E+02  0.82985E+07
 0.59399998E+02  0.83003E+07
 0.59449997E+02  0.82975E+07
 0.59499996E+02  0.83019E+07
 0.59549995E+02  0.82807E+07
 0.59599995E+02  0.81816E+07
 0.59649998E+02  0.80965E+07
 0.59699997E+02  0.80502E+07
 0.59749996E+02  0.80576E+07
 0.59799995E+02  0.80944E+07
 0.59849995E+02  0.81378E+07
 0.59899998E+02  0.81826E+07
 0.59949997E+02  0.82456E+07
 0.59999996E+02  0.82977E+07
 0.60049995E+02  0.82977E+07
 0.60099995E+02  0.82987E+07
 0.60149998E+02  0.82979E+07
 0.60199997E+02  0.82984E+07
 0.60249996E+02  0.82981E+07
 0.60299995E+02  0.82982E+07
 0.60349995E+02  0.82983E+07
 0.60399998E+02  0.82983E+07
 0.60449997E+02  0.82985E+07
 0.60499996E+02  0.82987E+07
 0.60549995E+02  0.82988E+07
 0.60599995E+02  0.82994E+07
 0.60649998E+02  0.82991E+07
 0.60699997E+02  0.83003E+07
 0.60749996E+02  0.82790E+07
 0.60799995E+02  0.82394E+07
 0.60849995E+02  0.82181E+07
 0.60899998E+02  0.82173E+07
 0.60949997E+02  0.82647E+07
 0.60999996E+02  0.82993E+07
 0.61049995E+02  0.82969E+07
 0.61099995E+02  0.82986E+07
 0.61149998E+02  0.82977E+07
 0.61199997E+02  0.82983E+07
 0.61249996E+02  0.82979E+07
 0.61299995E+02  0.82981E+07
 0.61349995E+02  0.82978E+07
 0.61399998E+02  0.82979E+07
 0.61449997E+02  0.82979E+07
 0.61499996E+02  0.82980E+07
 0.61549995E+02  0.82982E+07
 0.61599995E+02  0.82983E+07
 0.61649998E+02  0.82986E+07
 0.61699997E+02  0.82990E+07
 0.61749996E+02  0.82995E+07
 0.61799995E+02  0.82999E+07
 0.61849995E+02  0.83002E+07
 0.61899998E+02  0.83002E+07
 0.61949997E+02  0.83002E+07
 0.61999996E+02  0.83001E+07
 0.62049995E+02  0.83004E+07
 0.62099998E+02  0.83005E+07
 0.62149994E+02  0.83009E+07
 0.62199997E+02  0.83007E+07
 0.62249992E+02  0.83015E+07
 0.62299995E+02  0.83008E+07
 0.62349998E+02  0.83026E+07
 0.62399994E+02  0.82817E+07
 0.62449997E+02  0.82407E+07
 0.62499992E+02  0.82025E+07
 0.62549995E+02  0.81510E+07
 0.62599998E+02  0.80906E+07
 0.62649994E+02  0.80286E+07
 0.62699997E+02  0.79667E+07
 0.62749992E+02  0.79045E+07
 0.62799995E+02  0.78550E+07
 0.62849998E+02  0.78240E+07
 0.62899994E+02  0.78076E+07
 0.62949997E+02  0.77946E+07
 0.62999992E+02  0.77741E+07
 0.63049995E+02  0.77508E+07
 0.63099998E+02  0.77207E+07
 0.63149994E+02  0.76872E+07
 0.63199997E+02  0.76494E+07
 0.63249992E+02  0.76088E+07
 0.63299995E+02  0.75810E+07
 0.63349998E+02  0.75619E+07
 0.63399994E+02  0.75475E+07
 0.63449997E+02  0.75392E+07
 0.63499992E+02  0.75246E+07
 0.63549995E+02  0.74975E+07
 0.63599998E+02  0.74679E+07
 0.63649994E+02  0.74469E+07
 0.63699997E+02  0.74361E+07
 0.63749992E+02  0.74244E+07
 0.63799995E+02  0.74108E+07
 0.63849998E+02  0.74076E+07
 0.63899994E+02  0.74076E+07
 0.63949997E+02  0.74001E+07
 0.63999992E+02  0.73879E+07
 0.64049995E+02  0.73772E+07
 0.64099998E+02  0.73765E+07
 0.64149994E+02  0.73840E+07
 0.64199997E+02  0.73914E+07
 0.64249992E+02  0.74009E+07
 0.64299995E+02  0.74140E+07
 0.64349998E+02  0.74241E+07
 0.64399994E+02  0.74286E+07
 0.64449997E+02  0.74401E+07
 0.64499992E+02  0.74658E+07
 0.64549995E+02  0.75068E+07
 0.64599998E+02  0.75592E+07
 0.64649994E+02  0.76012E+07
 0.64699997E+02  0.76378E+07
 0.64749992E+02  0.76879E+07
 0.64799995E+02  0.77470E+07
 0.64849998E+02  0.78138E+07
 0.64899994E+02  0.78874E+07
 0.64949997E+02  0.79666E+07
 0.64999992E+02  0.80481E+07
 0.65049995E+02  0.81224E+07
 0.65099998E+02  0.81769E+07
 0.65149994E+02  0.82002E+07
 0.65199997E+02  0.82016E+07
 0.65249992E+02  0.81790E+07
 0.65299995E+02  0.81154E+07
 0.65349998E+02  0.80220E+07
 0.65399994E+02  0.79288E+07
 0.65449997E+02  0.78526E+07
 0.65499992E+02  0.78007E+07
 0.65549995E+02  0.77704E+07
 0.65599998E+02  0.77593E+07
 0.65649994E+02  0.77646E+07
 0.65699997E+02  0.77699E+07
 0.65749992E+02  0.77606E+07
 0.65799995E+02  0.77387E+07
 0.65849998E+02  0.77017E+07
 0.65899994E+02  0.76471E+07
 0.65949997E+02  0.75858E+07
 0.65999992E+02  0.75277E+07
 0.66049995E+02  0.74738E+07
 0.66099998E+02  0.74189E+07
 0.66149994E+02  0.73691E+07
 0.66199997E+02  0.73446E+07
 0.66249992E+02  0.73551E+07
 0.66299995E+02  0.73793E+07
 0.66349998E+02  0.74043E+07
 0.66399994E+02  0.74392E+07
 0.66449997E+02  0.74835E+07
 0.66499992E+02  0.75280E+07
 0.66549995E+02  0.75626E+07
 0.66599998E+02  0.75786E+07
 0.66649994E+02  0.75836E+07
 0.66699997E+02  0.75878E+07
 0.66749992E+02  0.75784E+07
 0.66799995E+02  0.75503E+07
 0.66849998E+02  0.75139E+07
 0.66899994E+02  0.74761E+07
 0.66949997E+02  0.74308E+07
 0.66999992E+02  0.73738E+07
 0.67049995E+02  0.73070E+07
 0.67099998E+02  0.72263E+07
 0.67149994E+02  0.71325E+07
 0.67199997E+02  0.70383E+07
 0.67249992E+02  0.69597E+07
 0.67299995E+02  0.69026E+07
 0.67349998E+02  0.68686E+07
 0.67399994E+02  0.68513E+07
 0.67449997E+02  0.68515E+07
 0.67499992E+02  0.68771E+07
 0.67549995E+02  0.69153E+07
 0.67599998E+02  0.69461E+07
 0.67649994E+02  0.69625E+07
 0.67699997E+02  0.69634E+07
 0.67749992E+02  0.69535E+07
 0.67799995E+02  0.69293E+07
 0.67849998E+02  0.68909E+07
 0.67899994E+02  0.68582E+07
 0.67949997E+02  0.68422E+07
 0.67999992E+02  0.68403E+07
 0.68049995E+02  0.68482E+07
 0.68099998E+02  0.68612E+07
 0.68149994E+02  0.68808E+07
 0.68199997E+02  0.69130E+07
 0.68249992E+02  0.69522E+07
 0.68299995E+02  0.69907E+07
 0.68349998E+02  0.70268E+07
 0.68399994E+02  0.70656E+07
 0.68449997E+02  0.71090E+07
 0.68499992E+02  0.71465E+07
 0.68549995E+02  0.71657E+07
 0.68599998E+02  0.71621E+07
 0.68649994E+02  0.71491E+07
 0.68699997E+02  0.71374E+07
 0.68749992E+02  0.71307E+07
 0.68799995E+02  0.71317E+07
 0.68849998E+02  0.71446E+07
 0.68899994E+02  0.71715E+07
 0.68949997E+02  0.72010E+07
 0.68999992E+02  0.72252E+07
 0.69049995E+02  0.72458E+07
 0.69099998E+02  0.72575E+07
 0.69149994E+02  0.72553E+07
 0.69199997E+02  0.72483E+07
 0.69249992E+02  0.72347E+07
 0.69299995E+02  0.71980E+07
 0.69349998E+02  0.71443E+07
 0.69399994E+02  0.70884E+07
 0.69449997E+02  0.70237E+07
 0.69499992E+02  0.69474E+07
 0.69549995E+02  0.68698E+07
 0.69599998E+02  0.68072E+07
 0.69649994E+02  0.67631E+07
 0.69699997E+02  0.67247E+07
 0.69749992E+02  0.66892E+07
 0.69799995E+02  0.66584E+07
 0.69849998E+02  0.66397E+07
 0.69899994E+02  0.66447E+07
 0.69949997E+02  0.66701E+07
 0.69999992E+02  0.67055E+07
 0.70049995E+02  0.67513E+07
 0.70099998E+02  0.68001E+07
 0.70149994E+02  0.68316E+07
 0.70199997E+02  0.68394E+07
 0.70249992E+02  0.68306E+07
 0.70299995E+02  0.68142E+07
 0.70349998E+02  0.67855E+07
 0.70399994E+02  0.67414E+07
 0.70449997E+02  0.66880E+07
 0.70499992E+02  0.66344E+07
 0.70549995E+02  0.65801E+07
 0.70599998E+02  0.65272E+07
 0.70649994E+02  0.64874E+07
 0.70699997E+02  0.64667E+07
 0.70749992E+02  0.64639E+07
 0.70799995E+02  0.64599E+07
 0.70849998E+02  0.64446E+07
 0.70899994E+02  0.64166E+07
 0.70949997E+02  0.63743E+07
 0.70999992E+02  0.63166E+07
 0.71049995E+02  0.62528E+07
 0.71099998E+02  0.61976E+07
 0.71149994E+02  0.61626E+07
 0.71199997E+02  0.61438E+07
 0.71249992E+02  0.61234E+07
 0.71299995E+02  0.60976E+07
 0.71349998E+02  0.60758E+07
 0.71399994E+02  0.60718E+07
 0.71449997E+02  0.60868E+07
 0.71499992E+02  0.61221E+07
 0.71549995E+02  0.61833E+07
 0.71599998E+02  0.62625E+07
 0.71649994E+02  0.63427E+07
 0.71699997E+02  0.64182E+07
 0.71749992E+02  0.64860E+07
 0.71799995E+02  0.65455E+07
 0.71849998E+02  0.65976E+07
 0.71899994E+02  0.66388E+07
 0.71949997E+02  0.66712E+07
 0.71999992E+02  0.66977E+07
 0.72049995E+02  0.67221E+07
 0.72099998E+02  0.67358E+07
 0.72149994E+02  0.67300E+07
 0.72199997E+02  0.67038E+07
 0.72249992E+02  0.66675E+07
 0.72299995E+02  0.66388E+07
 0.72349998E+02  0.66195E+07
 0.72399994E+02  0.66080E+07
 0.72449997E+02  0.66052E+07
 0.72499992E+02  0.66015E+07
 0.72549995E+02  0.65878E+07
 0.72599998E+02  0.65585E+07
 0.72649994E+02  0.65109E+07
 0.72699997E+02  0.64516E+07
 0.72749992E+02  0.63876E+07
 0.72799995E+02  0.63213E+07
 0.72849998E+02  0.62483E+07
 0.72899994E+02  0.61624E+07
 0.72949997E+02  0.60656E+07
 0.72999992E+02  0.59754E+07
 0.73049995E+02  0.59034E+07
 0.73099998E+02  0.58408E+07
 0.73149994E+02  0.57898E+07
 0.73199997E+02  0.57546E+07
 0.73249992E+02  0.57320E+07
 0.73299995E+02  0.57203E+07
 0.73349998E+02  0.57196E+07
 0.73399994E+02  0.57311E+07
 0.73449997E+02  0.57458E+07
 0.73499992E+02  0.57660E+07
 0.73549995E+02  0.57912E+07
 0.73599998E+02  0.58195E+07
 0.73649994E+02  0.58513E+07
 0.73699997E+02  0.58842E+07
 0.73749992E+02  0.59200E+07
 0.73799995E+02  0.59613E+07
 0.73849998E+02  0.60027E+07
 0.73899994E+02  0.60385E+07
 0.73949997E+02  0.60666E+07
 0.73999992E+02  0.60826E+07
 0.74049995E+02  0.60876E+07
 0.74099998E+02  0.60828E+07
 0.74149994E+02  0.60768E+07
 0.74199997E+02  0.60683E+07
 0.74249992E+02  0.60582E+07
 0.74299995E+02  0.60459E+07
 0.74349998E+02  0.60200E+07
 0.74399994E+02  0.59817E+07
 0.74449997E+02  0.59324E+07
 0.74499992E+02  0.58695E+07
 0.74549995E+02  0.57969E+07
 0.74599998E+02  0.57205E+07
 0.74649994E+02  0.56510E+07
 0.74699997E+02  0.55976E+07
 0.74749992E+02  0.55523E+07
 0.74799995E+02  0.55109E+07
 0.74849998E+02  0.54770E+07
 0.74899994E+02  0.54478E+07
 0.74949997E+02  0.54157E+07
 0.74999992E+02  0.53805E+07
 0.75049995E+02  0.53555E+07
 0.75099998E+02  0.53492E+07
 0.75149994E+02  0.53593E+07
 0.75199997E+02  0.53846E+07
 0.75249992E+02  0.54238E+07
 0.75299995E+02  0.54697E+07
 0.75349998E+02  0.55136E+07
 0.75399994E+02  0.55513E+07
 0.75449997E+02  0.55871E+07
 0.75499992E+02  0.56246E+07
 0.75549995E+02  0.56591E+07
 0.75599998E+02  0.56905E+07
 0.75649994E+02  0.57174E+07
 0.75699997E+02  0.57336E+07
 0.75749992E+02  0.57363E+07
 0.75799995E+02  0.57269E+07
 0.75849998E+02  0.57166E+07
 0.75899994E+02  0.57174E+07
 0.75949997E+02  0.57294E+07
 0.75999992E+02  0.57475E+07
 0.76049995E+02  0.57688E+07
 0.76099998E+02  0.57836E+07
 0.76149994E+02  0.57804E+07
 0.76199997E+02  0.57578E+07
 0.76249992E+02  0.57243E+07
 0.76299995E+02  0.56861E+07
 0.76349998E+02  0.56488E+07
 0.76399994E+02  0.56142E+07
 0.76449997E+02  0.55777E+07
 0.76499992E+02  0.55391E+07
 0.76549995E+02  0.54959E+07
 0.76599998E+02  0.54505E+07
 0.76649994E+02  0.54013E+07
 0.76699997E+02  0.53454E+07
 0.76749992E+02  0.52828E+07
 0.76799995E+02  0.52192E+07
 0.76849998E+02  0.51631E+07
 0.76899994E+02  0.51111E+07
 0.76949997E+02  0.50617E+07
 0.76999992E+02  0.50270E+07
 0.77049995E+02  0.50164E+07
 0.77099998E+02  0.50273E+07
 0.77149994E+02  0.50511E+07
 0.77199997E+02  0.50774E+07
 0.77249992E+02  0.51119E+07
 0.77299995E+02  0.51533E+07
 0.77349998E+02  0.51914E+07
 0.77399994E+02  0.52201E+07
 0.77449997E+02  0.52327E+07
 0.77499992E+02  0.52316E+07
 0.77549995E+02  0.52156E+07
 0.77599998E+02  0.51874E+07
 0.77649994E+02  0.51535E+07
 0.77699997E+02  0.51192E+07
 0.77749992E+02  0.50877E+07
 0.77799995E+02  0.50570E+07
 0.77849998E+02  0.50288E+07
 0.77899994E+02  0.50097E+07
 0.77949997E+02  0.50054E+07
 0.77999992E+02  0.50131E+07
 0.78049995E+02  0.50304E+07
 0.78099998E+02  0.50581E+07
 0.78149994E+02  0.50876E+07
 0.78199997E+02  0.51123E+07
 0.78249992E+02  0.51298E+07
 0.78299995E+02  0.51437E+07
 0.78349998E+02  0.51616E+07
 0.78399994E+02  0.51814E+07
 0.78449997E+02  0.51998E+07
 0.78499992E+02  0.52112E+07
 0.78549995E+02  0.52132E+07
 0.78599998E+02  0.52018E+07
 0.78649994E+02  0.51786E+07
 0.78699997E+02  0.51466E+07
 0.78749992E+02  0.51057E+07
 0.78799995E+02  0.50574E+07
 0.78849998E+02  0.50048E+07
 0.78899994E+02  0.49489E+07
 0.78949997E+02  0.48853E+07
 0.78999992E+02  0.48100E+07
 0.79049995E+02  0.47273E+07
 0.79099998E+02  0.46507E+07
 0.79149994E+02  0.45849E+07
 0.79199997E+02  0.45326E+07
 0.79249992E+02  0.44923E+07
 0.79299995E+02  0.44626E+07
 0.79349998E+02  0.44434E+07
 0.79399994E+02  0.44334E+07
 0.79449997E+02  0.44302E+07
 0.79499992E+02  0.44333E+07
 0.79549995E+02  0.44461E+07
 0.79599998E+02  0.44703E+07
 0.79649994E+02  0.45076E+07
 0.79699997E+02  0.45492E+07
 0.79749992E+02  0.45929E+07
 0.79799995E+02  0.46361E+07
 0.79849998E+02  0.46710E+07
 0.79899994E+02  0.46959E+07
 0.79949997E+02  0.47165E+07
 0.79999992E+02  0.47334E+07
 0.80049995E+02  0.47358E+07
 0.80099998E+02  0.47212E+07
 0.80149994E+02  0.46950E+07
 0.80199997E+02  0.46597E+07
 0.80249992E+02  0.46167E+07
 0.80299995E+02  0.45685E+07
 0.80349998E+02  0.45217E+07
 0.80399994E+02  0.44798E+07
 0.80449997E+02  0.44412E+07
 0.80499992E+02  0.44076E+07
 0.80549995E+02  0.43790E+07
 0.80599998E+02  0.43611E+07
 0.80649994E+02  0.43548E+07
 0.80699997E+02  0.43556E+07
 0.80749992E+02  0.43646E+07
 0.80799995E+02  0.43773E+07
 0.80849998E+02  0.43834E+07
 0.80899994E+02  0.43811E+07
 0.80949997E+02  0.43763E+07
 0.80999992E+02  0.43717E+07
 0.81049995E+02  0.43648E+07
 0.81099998E+02  0.43581E+07
 0.81149994E+02  0.43572E+07
 0.81199997E+02  0.43628E+07
 0.81249992E+02  0.43744E+07
 0.81299995E+02  0.43844E+07
 0.81349998E+02  0.43852E+07
 0.81399994E+02  0.43753E+07
 0.81449997E+02  0.43585E+07
 0.81499992E+02  0.43437E+07
 0.81549995E+02  0.43379E+07
 0.81599998E+02  0.43483E+07
 0.81649994E+02  0.43744E+07
 0.81699997E+02  0.44101E+07
 0.81749992E+02  0.44508E+07
 0.81799995E+02  0.44876E+07
 0.81849998E+02  0.45142E+07
 0.81899994E+02  0.45309E+07
 0.81949997E+02  0.45434E+07
 0.81999992E+02  0.45595E+07
 0.82049995E+02  0.45802E+07
 0.82099998E+02  0.46015E+07
 0.82149994E+02  0.46212E+07
 0.82199997E+02  0.46371E+07
 0.82249992E+02  0.46495E+07
 0.82299995E+02  0.46595E+07
 0.82349998E+02  0.46657E+07
 0.82399994E+02  0.46656E+07
 0.82449997E+02  0.46593E+07
 0.82499992E+02  0.46498E+07
 0.82549995E+02  0.46341E+07
 0.82599998E+02  0.46057E+07
 0.82649994E+02  0.45587E+07
 0.82699997E+02  0.44906E+07
 0.82749992E+02  0.44102E+07
 0.82799995E+02  0.43243E+07
 0.82849998E+02  0.42400E+07
 0.82899994E+02  0.41678E+07
 0.82949997E+02  0.41056E+07
 0.82999992E+02  0.40499E+07
 0.83049995E+02  0.40023E+07
 0.83099998E+02  0.39585E+07
 0.83149994E+02  0.39166E+07
 0.83199997E+02  0.38778E+07
 0.83249992E+02  0.38454E+07
 0.83299995E+02  0.38225E+07
 0.83349998E+02  0.38072E+07
 0.83399994E+02  0.37973E+07
 0.83449997E+02  0.37947E+07
 0.83499992E+02  0.37998E+07
 0.83549995E+02  0.38083E+07
 0.83599998E+02  0.38196E+07
 0.83649994E+02  0.38323E+07
 0.83699997E+02  0.38414E+07
 0.83749992E+02  0.38421E+07
 0.83799995E+02  0.38335E+07
 0.83849998E+02  0.38163E+07
 0.83899994E+02  0.37887E+07
 0.83949997E+02  0.37526E+07
 0.83999992E+02  0.37146E+07
 0.84049995E+02  0.36784E+07
 0.84099998E+02  0.36457E+07
 0.84149994E+02  0.36166E+07
 0.84199997E+02  0.35948E+07
 0.84249992E+02  0.35840E+07
 0.84299995E+02  0.35817E+07
 0.84349998E+02  0.35854E+07
 0.84399994E+02  0.35936E+07
 0.84449997E+02  0.36039E+07
 0.84499992E+02  0.36132E+07
 0.84549995E+02  0.36241E+07
 0.84599998E+02  0.36400E+07
 0.84649994E+02  0.36566E+07
 0.84699997E+02  0.36725E+07
 0.84749992E+02  0.36924E+07
 0.84799995E+02  0.37181E+07
 0.84849998E+02  0.37456E+07
 0.84899994E+02  0.37700E+07
 0.84949997E+02  0.37942E+07
 0.84999992E+02  0.38208E+07
 0.85049995E+02  0.38437E+07
 0.85099998E+02  0.38609E+07
 0.85149994E+02  0.38740E+07
 0.85199997E+02  0.38808E+07
 0.85249992E+02  0.38776E+07
 0.85299995E+02  0.38618E+07
 0.85349998E+02  0.38389E+07
 0.85399994E+02  0.38159E+07
 0.85449997E+02  0.37954E+07
 0.85499992E+02  0.37770E+07
 0.85549995E+02  0.37579E+07
 0.85599998E+02  0.37360E+07
 0.85649994E+02  0.37099E+07
 0.85699997E+02  0.36813E+07
 0.85749992E+02  0.36496E+07
 0.85799995E+02  0.36146E+07
 0.85849998E+02  0.35818E+07
 0.85899994E+02  0.35525E+07
 0.85949997E+02  0.35235E+07
 0.85999992E+02  0.34930E+07
 0.86049995E+02  0.34620E+07
 0.86099998E+02  0.34363E+07
 0.86149994E+02  0.34173E+07
 0.86199997E+02  0.34008E+07
 0.86249992E+02  0.33905E+07
 0.86299995E+02  0.33895E+07
 0.86349998E+02  0.33952E+07
 0.86399994E+02  0.34032E+07
 0.86449997E+02  0.34118E+07
 0.86499992E+02  0.34217E+07
 0.86549995E+02  0.34367E+07
 0.86599998E+02  0.34539E+07
 0.86649994E+02  0.34696E+07
 0.86699997E+02  0.34836E+07
 0.86749992E+02  0.34914E+07
 0.86799995E+02  0.34886E+07
 0.86849998E+02  0.34726E+07
 0.86899994E+02  0.34460E+07
 0.86949997E+02  0.34102E+07
 0.86999992E+02  0.33667E+07
 0.87049995E+02  0.33197E+07
 0.87099998E+02  0.32715E+07
 0.87149994E+02  0.32247E+07
 0.87199997E+02  0.31852E+07
 0.87249992E+02  0.31529E+07
 0.87299995E+02  0.31231E+07
 0.87349998E+02  0.30962E+07
 0.87399994E+02  0.30698E+07
 0.87449997E+02  0.30386E+07
 0.87499992E+02  0.30032E+07
 0.87549995E+02  0.29688E+07
 0.87599991E+02  0.29388E+07
 0.87649994E+02  0.29147E+07
 0.87699997E+02  0.28961E+07
 0.87749992E+02  0.28820E+07
 0.87799995E+02  0.28662E+07
 0.87849991E+02  0.28448E+07
 0.87899994E+02  0.28188E+07
 0.87949997E+02  0.27912E+07
 0.87999992E+02  0.27626E+07
 0.88049995E+02  0.27333E+07
 0.88099991E+02  0.27121E+07
 0.88149994E+02  0.27041E+07
 0.88199997E+02  0.27089E+07
 0.88249992E+02  0.27210E+07
 0.88299995E+02  0.27398E+07
 0.88349991E+02  0.27688E+07
 0.88399994E+02  0.28060E+07
 0.88449997E+02  0.28497E+07
 0.88499992E+02  0.28945E+07
 0.88549995E+02  0.29364E+07
 0.88599991E+02  0.29781E+07
 0.88649994E+02  0.30221E+07
 0.88699997E+02  0.30651E+07
 0.88749992E+02  0.31032E+07
 0.88799995E+02  0.31346E+07
 0.88849991E+02  0.31601E+07
 0.88899994E+02  0.31839E+07
 0.88949997E+02  0.32032E+07
 0.88999992E+02  0.32137E+07
 0.89049995E+02  0.32132E+07
 0.89099991E+02  0.32052E+07
 0.89149994E+02  0.31943E+07
 0.89199997E+02  0.31841E+07
 0.89249992E+02  0.31756E+07
 0.89299995E+02  0.31656E+07
 0.89349991E+02  0.31531E+07
 0.89399994E+02  0.31400E+07
 0.89449997E+02  0.31263E+07
 0.89499992E+02  0.31098E+07
 0.89549995E+02  0.30925E+07
 0.89599991E+02  0.30713E+07
 0.89649994E+02  0.30421E+07
 0.89699997E+02  0.30069E+07
 0.89749992E+02  0.29675E+07
 0.89799995E+02  0.29262E+07
 0.89849991E+02  0.28874E+07
 0.89899994E+02  0.28567E+07
 0.89949997E+02  0.28374E+07
 0.89999992E+02  0.28272E+07
 0.90049995E+02  0.28225E+07
 0.90099991E+02  0.28179E+07
 0.90149994E+02  0.28084E+07
 0.90199997E+02  0.27939E+07
 0.90249992E+02  0.27779E+07
 0.90299995E+02  0.27607E+07
 0.90349991E+02  0.27426E+07
 0.90399994E+02  0.27238E+07
 0.90449997E+02  0.27059E+07
 0.90499992E+02  0.26914E+07
 0.90549995E+02  0.26783E+07
 0.90599991E+02  0.26652E+07
 0.90649994E+02  0.26527E+07
 0.90699997E+02  0.26417E+07
 0.90749992E+02  0.26308E+07
 0.90799995E+02  0.26208E+07
 0.90849991E+02  0.26132E+07
 0.90899994E+02  0.26050E+07
 0.90949997E+02  0.25915E+07
 0.90999992E+02  0.25725E+07
 0.91049995E+02  0.25511E+07
 0.91099991E+02  0.25293E+07
 0.91149994E+02  0.25089E+07
 0.91199997E+02  0.24941E+07
 0.91249992E+02  0.24909E+07
 0.91299995E+02  0.25013E+07
 0.91349991E+02  0.25226E+07
 0.91399994E+02  0.25464E+07
 0.91449997E+02  0.25673E+07
 0.91499992E+02  0.25834E+07
 0.91549995E+02  0.25908E+07
 0.91599991E+02  0.25902E+07
 0.91649994E+02  0.25847E+07
 0.91699997E+02  0.25763E+07
 0.91749992E+02  0.25672E+07
 0.91799995E+02  0.25605E+07
 0.91849991E+02  0.25595E+07
 0.91899994E+02  0.25637E+07
 0.91949997E+02  0.25678E+07
 0.91999992E+02  0.25682E+07
 0.92049995E+02  0.25658E+07
 0.92099991E+02  0.25626E+07
 0.92149994E+02  0.25602E+07
 0.92199997E+02  0.25590E+07
 0.92249992E+02  0.25588E+07
 0.92299995E+02  0.25587E+07
 0.92349991E+02  0.25574E+07
 0.92399994E+02  0.25521E+07
 0.92449997E+02  0.25429E+07
 0.92499992E+02  0.25310E+07
 0.92549995E+02  0.25169E+07
 0.92599991E+02  0.25014E+07
 0.92649994E+02  0.24861E+07
 0.92699997E+02  0.24710E+07
 0.92749992E+02  0.24553E+07
 0.92799995E+02  0.24423E+07
 0.92849991E+02  0.24338E+07
 0.92899994E+02  0.24274E+07
 0.92949997E+02  0.24216E+07
 0.92999992E+02  0.24144E+07
 0.93049995E+02  0.24041E+07
 0.93099991E+02  0.23903E+07
 0.93149994E+02  0.23722E+07
 0.93199997E+02  0.23492E+07
 0.93249992E+02  0.23239E+07
 0.93299995E+02  0.22999E+07
 0.93349991E+02  0.22799E+07
 0.93399994E+02  0.22634E+07
 0.93449997E+02  0.22472E+07
 0.93499992E+02  0.22339E+07
 0.93549995E+02  0.22285E+07
 0.93599991E+02  0.22329E+07
 0.93649994E+02  0.22410E+07
 0.93699997E+02  0.22423E+07
 0.93749992E+02  0.22328E+07
 0.93799995E+02  0.22133E+07
 0.93849991E+02  0.21829E+07
 0.93899994E+02  0.21413E+07
 0.93949997E+02  0.20936E+07
 0.93999992E+02  0.20472E+07
 0.94049995E+02  0.20106E+07
 0.94099991E+02  0.19884E+07
 0.94149994E+02  0.19772E+07
 0.94199997E+02  0.19709E+07
 0.94249992E+02  0.19643E+07
 0.94299995E+02  0.19535E+07
 0.94349991E+02  0.19346E+07
 0.94399994E+02  0.19054E+07
 0.94449997E+02  0.18680E+07
 0.94499992E+02  0.18276E+07
 0.94549995E+02  0.17917E+07
 0.94599991E+02  0.17651E+07
 0.94649994E+02  0.17466E+07
 0.94699997E+02  0.17340E+07
 0.94749992E+02  0.17277E+07
 0.94799995E+02  0.17303E+07
 0.94849991E+02  0.17435E+07
 0.94899994E+02  0.17664E+07
 0.94949997E+02  0.17981E+07
 0.94999992E+02  0.18360E+07
 0.95049995E+02  0.18786E+07
 0.95099991E+02  0.19259E+07
 0.95149994E+02  0.19753E+07
 0.95199997E+02  0.20213E+07
 0.95249992E+02  0.20609E+07
 0.95299995E+02  0.20919E+07
 0.95349991E+02  0.21138E+07
 0.95399994E+02  0.21277E+07
 0.95449997E+02  0.21340E+07
 0.95499992E+02  0.21342E+07
 0.95549995E+02  0.21306E+07
 0.95599991E+02  0.21271E+07
 0.95649994E+02  0.21246E+07
 0.95699997E+02  0.21201E+07
 0.95749992E+02  0.21118E+07
 0.95799995E+02  0.20986E+07
 0.95849991E+02  0.20783E+07
 0.95899994E+02  0.20555E+07
 0.95949997E+02  0.20352E+07
 0.95999992E+02  0.20188E+07
 0.96049995E+02  0.20045E+07
 0.96099991E+02  0.19912E+07
 0.96149994E+02  0.19805E+07
 0.96199997E+02  0.19713E+07
 0.96249992E+02  0.19574E+07
 0.96299995E+02  0.19383E+07
 0.96349991E+02  0.19191E+07
 0.96399994E+02  0.18989E+07
 0.96449997E+02  0.18744E+07
 0.96499992E+02  0.18449E+07
 0.96549995E+02  0.18100E+07
 0.96599991E+02  0.17722E+07
 0.96649994E+02  0.17355E+07
 0.96699997E+02  0.17013E+07
 0.96749992E+02  0.16724E+07
 0.96799995E+02  0.16527E+07
 0.96849991E+02  0.16438E+07
 0.96899994E+02  0.16425E+07
 0.96949997E+02  0.16416E+07
 0.96999992E+02  0.16355E+07
 0.97049995E+02  0.16248E+07
 0.97099991E+02  0.16116E+07
 0.97149994E+02  0.15987E+07
 0.97199997E+02  0.15896E+07
 0.97249992E+02  0.15846E+07
 0.97299995E+02  0.15854E+07
 0.97349991E+02  0.15936E+07
 0.97399994E+02  0.16080E+07
 0.97449997E+02  0.16254E+07
 0.97499992E+02  0.16397E+07
 0.97549995E+02  0.16496E+07
 0.97599991E+02  0.16574E+07
 0.97649994E+02  0.16633E+07
 0.97699997E+02  0.16666E+07
 0.97749992E+02  0.16644E+07
 0.97799995E+02  0.16546E+07
 0.97849991E+02  0.16377E+07
 0.97899994E+02  0.16127E+07
 0.97949997E+02  0.15830E+07
 0.97999992E+02  0.15526E+07
