-0.20000000E+01  0.24673E+05
-0.19500000E+01  0.24558E+05
-0.19000000E+01  0.24708E+05
-0.18500000E+01  0.24810E+05
-0.18000000E+01  0.24930E+05
-0.17500000E+01  0.25068E+05
-0.17000000E+01  0.25179E+05
-0.16500001E+01  0.25223E+05
-0.16000000E+01  0.25279E+05
-0.15500000E+01  0.25285E+05
-0.15000000E+01  0.25248E+05
-0.14500000E+01  0.25214E+05
-0.14000001E+01  0.25177E+05
-0.13500000E+01  0.25165E+05
-0.13000001E+01  0.25180E+05
-0.12500000E+01  0.25222E+05
-0.12000000E+01  0.25279E+05
-0.11500001E+01  0.25342E+05
-0.11000000E+01  0.25454E+05
-0.10500001E+01  0.25601E+05
-0.10000000E+01  0.25781E+05
-0.95000005E+00  0.25971E+05
-0.90000010E+00  0.26069E+05
-0.85000002E+00  0.26041E+05
-0.80000007E+00  0.25991E+05
-0.75000012E+00  0.25942E+05
-0.70000005E+00  0.25874E+05
-0.65000010E+00  0.25812E+05
-0.60000014E+00  0.25766E+05
-0.55000007E+00  0.25698E+05
-0.50000012E+00  0.25589E+05
-0.45000005E+00  0.25494E+05
-0.40000010E+00  0.25406E+05
-0.35000014E+00  0.25317E+05
-0.30000007E+00  0.25240E+05
-0.25000012E+00  0.25163E+05
-0.20000005E+00  0.25064E+05
-0.15000010E+00  0.25000E+05
-0.10000014E+00  0.24987E+05
-0.50000072E-01  0.24992E+05
-0.11920929E-06  0.24991E+05
 0.49999952E-01  0.24992E+05
 0.99999905E-01  0.24994E+05
 0.14999986E+00  0.25010E+05
 0.19999981E+00  0.25007E+05
 0.24999976E+00  0.24988E+05
 0.29999995E+00  0.24988E+05
 0.34999990E+00  0.25055E+05
 0.39999986E+00  0.25171E+05
 0.44999981E+00  0.25266E+05
 0.49999976E+00  0.25363E+05
 0.54999995E+00  0.25448E+05
 0.59999990E+00  0.25515E+05
 0.64999986E+00  0.25525E+05
 0.69999981E+00  0.25481E+05
 0.74999976E+00  0.25414E+05
 0.79999971E+00  0.25391E+05
 0.84999990E+00  0.25430E+05
 0.89999986E+00  0.25432E+05
 0.94999981E+00  0.25397E+05
 0.99999976E+00  0.25344E+05
 0.10499997E+01  0.25250E+05
 0.10999999E+01  0.25081E+05
 0.11499999E+01  0.24934E+05
 0.11999998E+01  0.24784E+05
 0.12499998E+01  0.24631E+05
 0.12999997E+01  0.24532E+05
 0.13499999E+01  0.24450E+05
 0.13999999E+01  0.24373E+05
 0.14499998E+01  0.24343E+05
 0.14999998E+01  0.24353E+05
 0.15499997E+01  0.24379E+05
 0.15999999E+01  0.24423E+05
 0.16499999E+01  0.24464E+05
 0.16999998E+01  0.24536E+05
 0.17499998E+01  0.24613E+05
 0.17999997E+01  0.24717E+05
 0.18499997E+01  0.24847E+05
 0.18999999E+01  0.25008E+05
 0.19499998E+01  0.25185E+05
 0.19999998E+01  0.25384E+05
 0.20499997E+01  0.25559E+05
 0.20999999E+01  0.25665E+05
 0.21499996E+01  0.25786E+05
 0.21999998E+01  0.25890E+05
 0.22499995E+01  0.25948E+05
 0.22999997E+01  0.25998E+05
 0.23499999E+01  0.25986E+05
 0.23999996E+01  0.25945E+05
 0.24499998E+01  0.25950E+05
 0.24999995E+01  0.25947E+05
 0.25499997E+01  0.25884E+05
 0.25999999E+01  0.25785E+05
 0.26499996E+01  0.25694E+05
 0.26999998E+01  0.25578E+05
 0.27499995E+01  0.25456E+05
 0.27999997E+01  0.25380E+05
 0.28499999E+01  0.25311E+05
 0.28999996E+01  0.25199E+05
 0.29499998E+01  0.25064E+05
 0.29999995E+01  0.24973E+05
 0.30499997E+01  0.24982E+05
 0.30999999E+01  0.25038E+05
 0.31499996E+01  0.25109E+05
 0.31999998E+01  0.25184E+05
 0.32499995E+01  0.25281E+05
 0.32999997E+01  0.25418E+05
 0.33499999E+01  0.25536E+05
 0.33999996E+01  0.25650E+05
 0.34499998E+01  0.25844E+05
 0.34999995E+01  0.26075E+05
 0.35499997E+01  0.26242E+05
 0.35999994E+01  0.26314E+05
 0.36499996E+01  0.26347E+05
 0.36999998E+01  0.26384E+05
 0.37499995E+01  0.26351E+05
 0.37999997E+01  0.26242E+05
 0.38499994E+01  0.26093E+05
 0.38999996E+01  0.25944E+05
 0.39499998E+01  0.25784E+05
 0.39999995E+01  0.25638E+05
 0.40499997E+01  0.25452E+05
 0.40999994E+01  0.25202E+05
 0.41499996E+01  0.24987E+05
 0.41999998E+01  0.24787E+05
 0.42499995E+01  0.24593E+05
 0.42999997E+01  0.24434E+05
 0.43499994E+01  0.24293E+05
 0.43999996E+01  0.24131E+05
 0.44499998E+01  0.23982E+05
 0.44999995E+01  0.23852E+05
 0.45499997E+01  0.23767E+05
 0.45999994E+01  0.23704E+05
 0.46499996E+01  0.23661E+05
 0.46999998E+01  0.23680E+05
 0.47499995E+01  0.23760E+05
 0.47999997E+01  0.23858E+05
 0.48499994E+01  0.24028E+05
 0.48999996E+01  0.24220E+05
 0.49499998E+01  0.24366E+05
 0.49999995E+01  0.24576E+05
 0.50499997E+01  0.24821E+05
 0.50999994E+01  0.25077E+05
 0.51499996E+01  0.25296E+05
 0.51999998E+01  0.25441E+05
 0.52499995E+01  0.25593E+05
 0.52999997E+01  0.25734E+05
 0.53499994E+01  0.25899E+05
 0.53999996E+01  0.26083E+05
 0.54499993E+01  0.26224E+05
 0.54999995E+01  0.26353E+05
 0.55499997E+01  0.26447E+05
 0.55999994E+01  0.26517E+05
 0.56499996E+01  0.26511E+05
 0.56999993E+01  0.26436E+05
 0.57499995E+01  0.26334E+05
 0.57999997E+01  0.26246E+05
 0.58499994E+01  0.26146E+05
 0.58999996E+01  0.25977E+05
 0.59499993E+01  0.25814E+05
 0.59999995E+01  0.25696E+05
 0.60499992E+01  0.25586E+05
 0.60999994E+01  0.25443E+05
 0.61499996E+01  0.25286E+05
 0.61999998E+01  0.25166E+05
 0.62499990E+01  0.25100E+05
 0.62999992E+01  0.25047E+05
 0.63499994E+01  0.25041E+05
 0.63999996E+01  0.25065E+05
 0.64499998E+01  0.25132E+05
 0.64999990E+01  0.25258E+05
 0.65499992E+01  0.25352E+05
 0.65999994E+01  0.25456E+05
 0.66499996E+01  0.25559E+05
 0.66999998E+01  0.25641E+05
 0.67499990E+01  0.25710E+05
 0.67999992E+01  0.25816E+05
 0.68499994E+01  0.25939E+05
 0.68999996E+01  0.26017E+05
 0.69499998E+01  0.26095E+05
 0.69999990E+01  0.26136E+05
 0.70499992E+01  0.26181E+05
 0.70999994E+01  0.26190E+05
 0.71499996E+01  0.26137E+05
 0.71999998E+01  0.26068E+05
 0.72499990E+01  0.25985E+05
 0.72999992E+01  0.25926E+05
 0.73499994E+01  0.25851E+05
 0.73999996E+01  0.25818E+05
 0.74499998E+01  0.25834E+05
 0.74999990E+01  0.25781E+05
 0.75499992E+01  0.25696E+05
 0.75999994E+01  0.25606E+05
 0.76499996E+01  0.25528E+05
 0.76999998E+01  0.25459E+05
 0.77499990E+01  0.25414E+05
 0.77999992E+01  0.25424E+05
 0.78499994E+01  0.25440E+05
 0.78999996E+01  0.25476E+05
 0.79499998E+01  0.25522E+05
 0.79999990E+01  0.25548E+05
 0.80499992E+01  0.25569E+05
 0.80999994E+01  0.25563E+05
 0.81499996E+01  0.25534E+05
 0.81999998E+01  0.25500E+05
 0.82499990E+01  0.25469E+05
 0.82999992E+01  0.25444E+05
 0.83499994E+01  0.25318E+05
 0.83999996E+01  0.25155E+05
 0.84499998E+01  0.25025E+05
 0.84999990E+01  0.24875E+05
 0.85499992E+01  0.24691E+05
 0.85999994E+01  0.24564E+05
 0.86499996E+01  0.24468E+05
 0.86999998E+01  0.24323E+05
 0.87499990E+01  0.24202E+05
 0.87999992E+01  0.24111E+05
 0.88499994E+01  0.24003E+05
 0.88999996E+01  0.23842E+05
 0.89499998E+01  0.23708E+05
 0.89999990E+01  0.23634E+05
 0.90499992E+01  0.23610E+05
 0.90999994E+01  0.23586E+05
 0.91499996E+01  0.23555E+05
 0.91999989E+01  0.23623E+05
 0.92499990E+01  0.23780E+05
 0.92999992E+01  0.23940E+05
 0.93499994E+01  0.24106E+05
 0.93999996E+01  0.24246E+05
 0.94499989E+01  0.24298E+05
 0.94999990E+01  0.24358E+05
 0.95499992E+01  0.24509E+05
 0.95999994E+01  0.24656E+05
 0.96499996E+01  0.24748E+05
 0.96999989E+01  0.24837E+05
 0.97499990E+01  0.24903E+05
 0.97999992E+01  0.24952E+05
 0.98499994E+01  0.24994E+05
 0.98999996E+01  0.25019E+05
 0.99499989E+01  0.25000E+05
 0.99999990E+01  0.24978E+05
 0.10049999E+02  0.24977E+05
 0.10099999E+02  0.24966E+05
 0.10150000E+02  0.24943E+05
 0.10199999E+02  0.24939E+05
 0.10249999E+02  0.24948E+05
 0.10299999E+02  0.24967E+05
 0.10349999E+02  0.25091E+05
 0.10400000E+02  0.25276E+05
 0.10449999E+02  0.25440E+05
 0.10499999E+02  0.25598E+05
 0.10549999E+02  0.25742E+05
 0.10599999E+02  0.25828E+05
 0.10650000E+02  0.25892E+05
 0.10699999E+02  0.25957E+05
 0.10749999E+02  0.26046E+05
 0.10799999E+02  0.26122E+05
 0.10849999E+02  0.26207E+05
 0.10900000E+02  0.26331E+05
 0.10949999E+02  0.26429E+05
 0.10999999E+02  0.26595E+05
 0.11049999E+02  0.26780E+05
 0.11099999E+02  0.26886E+05
 0.11150000E+02  0.26967E+05
 0.11199999E+02  0.27031E+05
 0.11249999E+02  0.27041E+05
 0.11299999E+02  0.27038E+05
 0.11349999E+02  0.27033E+05
 0.11400000E+02  0.27026E+05
 0.11449999E+02  0.26944E+05
 0.11499999E+02  0.26814E+05
 0.11549999E+02  0.26706E+05
 0.11599999E+02  0.26574E+05
 0.11650000E+02  0.26444E+05
 0.11699999E+02  0.26281E+05
 0.11749999E+02  0.26099E+05
 0.11799999E+02  0.25946E+05
 0.11849999E+02  0.25852E+05
 0.11900000E+02  0.25816E+05
 0.11949999E+02  0.25802E+05
 0.11999999E+02  0.25743E+05
 0.12049999E+02  0.25653E+05
 0.12099999E+02  0.25570E+05
 0.12150000E+02  0.25488E+05
 0.12199999E+02  0.25361E+05
 0.12249999E+02  0.25206E+05
 0.12299999E+02  0.25069E+05
 0.12349999E+02  0.24935E+05
 0.12400000E+02  0.24804E+05
 0.12449999E+02  0.24705E+05
 0.12499999E+02  0.24615E+05
 0.12549999E+02  0.24507E+05
 0.12599999E+02  0.24439E+05
 0.12649999E+02  0.24384E+05
 0.12699999E+02  0.24349E+05
 0.12749999E+02  0.24344E+05
 0.12799999E+02  0.24348E+05
 0.12849999E+02  0.24359E+05
 0.12899999E+02  0.24403E+05
 0.12949999E+02  0.24441E+05
 0.12999999E+02  0.24437E+05
 0.13049999E+02  0.24424E+05
 0.13099999E+02  0.24396E+05
 0.13149999E+02  0.24364E+05
 0.13199999E+02  0.24336E+05
 0.13249999E+02  0.24337E+05
 0.13299999E+02  0.24343E+05
 0.13349999E+02  0.24367E+05
 0.13399999E+02  0.24407E+05
 0.13449999E+02  0.24505E+05
 0.13499999E+02  0.24602E+05
 0.13549999E+02  0.24700E+05
 0.13599999E+02  0.24823E+05
 0.13649999E+02  0.24910E+05
 0.13699999E+02  0.24988E+05
 0.13749999E+02  0.25108E+05
 0.13799999E+02  0.25293E+05
 0.13849999E+02  0.25422E+05
 0.13899999E+02  0.25531E+05
 0.13949999E+02  0.25632E+05
 0.13999999E+02  0.25726E+05
 0.14049999E+02  0.25810E+05
 0.14099998E+02  0.25902E+05
 0.14150000E+02  0.25965E+05
 0.14199999E+02  0.25908E+05
 0.14249998E+02  0.25853E+05
 0.14299999E+02  0.25787E+05
 0.14349998E+02  0.25683E+05
 0.14400000E+02  0.25609E+05
 0.14449999E+02  0.25577E+05
 0.14499998E+02  0.25559E+05
 0.14549999E+02  0.25513E+05
 0.14599998E+02  0.25404E+05
 0.14650000E+02  0.25256E+05
 0.14699999E+02  0.25138E+05
 0.14749998E+02  0.25075E+05
 0.14799999E+02  0.25013E+05
 0.14849998E+02  0.24954E+05
 0.14900000E+02  0.24947E+05
 0.14949999E+02  0.24987E+05
 0.14999998E+02  0.25037E+05
 0.15049999E+02  0.25042E+05
 0.15099998E+02  0.25023E+05
 0.15150000E+02  0.25002E+05
 0.15199999E+02  0.25084E+05
 0.15249998E+02  0.25257E+05
 0.15299999E+02  0.25408E+05
 0.15349998E+02  0.25546E+05
 0.15400000E+02  0.25648E+05
 0.15449999E+02  0.25733E+05
 0.15499998E+02  0.25840E+05
 0.15549999E+02  0.25902E+05
 0.15599998E+02  0.25913E+05
 0.15650000E+02  0.25899E+05
 0.15699999E+02  0.25876E+05
 0.15749998E+02  0.25866E+05
 0.15799999E+02  0.25836E+05
 0.15849998E+02  0.25780E+05
 0.15900000E+02  0.25712E+05
 0.15949999E+02  0.25620E+05
 0.15999998E+02  0.25498E+05
 0.16049999E+02  0.25392E+05
 0.16099998E+02  0.25264E+05
 0.16150000E+02  0.25090E+05
 0.16199999E+02  0.24877E+05
 0.16249998E+02  0.24753E+05
 0.16299999E+02  0.24712E+05
 0.16349998E+02  0.24654E+05
 0.16400000E+02  0.24560E+05
 0.16449999E+02  0.24425E+05
 0.16499998E+02  0.24341E+05
 0.16549999E+02  0.24320E+05
 0.16599998E+02  0.24319E+05
 0.16650000E+02  0.24344E+05
 0.16699999E+02  0.24408E+05
 0.16749998E+02  0.24436E+05
 0.16799999E+02  0.24450E+05
 0.16849998E+02  0.24488E+05
 0.16900000E+02  0.24542E+05
 0.16949999E+02  0.24575E+05
 0.16999998E+02  0.24622E+05
 0.17049999E+02  0.24707E+05
 0.17099998E+02  0.24800E+05
 0.17150000E+02  0.24904E+05
 0.17199999E+02  0.25011E+05
 0.17249998E+02  0.25085E+05
 0.17299999E+02  0.25188E+05
 0.17349998E+02  0.25352E+05
 0.17400000E+02  0.25468E+05
 0.17449999E+02  0.25567E+05
 0.17499998E+02  0.25704E+05
 0.17549999E+02  0.25839E+05
 0.17599998E+02  0.25902E+05
 0.17650000E+02  0.25984E+05
 0.17699999E+02  0.26092E+05
 0.17749998E+02  0.26153E+05
 0.17799999E+02  0.26239E+05
 0.17849998E+02  0.26313E+05
 0.17900000E+02  0.26272E+05
 0.17949999E+02  0.26153E+05
 0.17999998E+02  0.26041E+05
 0.18049999E+02  0.25938E+05
 0.18099998E+02  0.25776E+05
 0.18150000E+02  0.25635E+05
 0.18199999E+02  0.25545E+05
 0.18249998E+02  0.25429E+05
 0.18299999E+02  0.25373E+05
 0.18349998E+02  0.25326E+05
 0.18400000E+02  0.25221E+05
 0.18449999E+02  0.25137E+05
 0.18499998E+02  0.25093E+05
 0.18549999E+02  0.25039E+05
 0.18599998E+02  0.24981E+05
 0.18650000E+02  0.24971E+05
 0.18699999E+02  0.25033E+05
 0.18749998E+02  0.25160E+05
 0.18799999E+02  0.25305E+05
 0.18849998E+02  0.25410E+05
 0.18900000E+02  0.25484E+05
 0.18949999E+02  0.25502E+05
 0.18999998E+02  0.25461E+05
 0.19049999E+02  0.25422E+05
 0.19099998E+02  0.25384E+05
 0.19150000E+02  0.25340E+05
 0.19199999E+02  0.25285E+05
 0.19249998E+02  0.25219E+05
 0.19299999E+02  0.25183E+05
 0.19349998E+02  0.25118E+05
 0.19400000E+02  0.25018E+05
 0.19449999E+02  0.24980E+05
 0.19499998E+02  0.24890E+05
 0.19549999E+02  0.24769E+05
 0.19599998E+02  0.24739E+05
 0.19650000E+02  0.24731E+05
 0.19699999E+02  0.24738E+05
 0.19749998E+02  0.24789E+05
 0.19799999E+02  0.24852E+05
 0.19849998E+02  0.24919E+05
 0.19900000E+02  0.25052E+05
 0.19949999E+02  0.25289E+05
 0.19999998E+02  0.25488E+05
 0.20049999E+02  0.25637E+05
 0.20099998E+02  0.25812E+05
 0.20150000E+02  0.25942E+05
 0.20199999E+02  0.25976E+05
 0.20249998E+02  0.25994E+05
 0.20299999E+02  0.26042E+05
 0.20349998E+02  0.26071E+05
 0.20399998E+02  0.26109E+05
 0.20449999E+02  0.26178E+05
 0.20499998E+02  0.26194E+05
 0.20549999E+02  0.26132E+05
 0.20599998E+02  0.26056E+05
 0.20649998E+02  0.25960E+05
 0.20699999E+02  0.25835E+05
 0.20749998E+02  0.25670E+05
 0.20799999E+02  0.25552E+05
 0.20849998E+02  0.25467E+05
 0.20899998E+02  0.25382E+05
 0.20949999E+02  0.25369E+05
 0.20999998E+02  0.25350E+05
 0.21049999E+02  0.25309E+05
 0.21099998E+02  0.25274E+05
 0.21149998E+02  0.25300E+05
 0.21199999E+02  0.25360E+05
 0.21249998E+02  0.25350E+05
 0.21299999E+02  0.25300E+05
 0.21349998E+02  0.25229E+05
 0.21399998E+02  0.25189E+05
 0.21449999E+02  0.25155E+05
 0.21499998E+02  0.25116E+05
 0.21549999E+02  0.25061E+05
 0.21599998E+02  0.24988E+05
 0.21649998E+02  0.24913E+05
 0.21699999E+02  0.24821E+05
 0.21749998E+02  0.24732E+05
 0.21799999E+02  0.24670E+05
 0.21849998E+02  0.24634E+05
 0.21899998E+02  0.24597E+05
 0.21949999E+02  0.24629E+05
 0.21999998E+02  0.24655E+05
 0.22049999E+02  0.24656E+05
 0.22099998E+02  0.24622E+05
 0.22149998E+02  0.24580E+05
 0.22199999E+02  0.24617E+05
 0.22249998E+02  0.24670E+05
 0.22299999E+02  0.24747E+05
 0.22349998E+02  0.24832E+05
 0.22399998E+02  0.24877E+05
 0.22449999E+02  0.24897E+05
 0.22499998E+02  0.24946E+05
 0.22549999E+02  0.25013E+05
 0.22599998E+02  0.25047E+05
 0.22649998E+02  0.25059E+05
 0.22699999E+02  0.25067E+05
 0.22749998E+02  0.25094E+05
 0.22799999E+02  0.25187E+05
 0.22849998E+02  0.25329E+05
 0.22899998E+02  0.25450E+05
 0.22949999E+02  0.25545E+05
 0.22999998E+02  0.25669E+05
 0.23049999E+02  0.25794E+05
 0.23099998E+02  0.25863E+05
 0.23149998E+02  0.25903E+05
 0.23199999E+02  0.25932E+05
 0.23249998E+02  0.25931E+05
 0.23299999E+02  0.25955E+05
 0.23349998E+02  0.26023E+05
 0.23399998E+02  0.26088E+05
 0.23449999E+02  0.26091E+05
 0.23499998E+02  0.26093E+05
 0.23549999E+02  0.26064E+05
 0.23599998E+02  0.25983E+05
 0.23649998E+02  0.25957E+05
 0.23699999E+02  0.25964E+05
 0.23749998E+02  0.25954E+05
 0.23799999E+02  0.25952E+05
 0.23849998E+02  0.25993E+05
 0.23899998E+02  0.26036E+05
 0.23949999E+02  0.26086E+05
 0.23999998E+02  0.26076E+05
 0.24049999E+02  0.26006E+05
 0.24099998E+02  0.25927E+05
 0.24149998E+02  0.25890E+05
 0.24199999E+02  0.25850E+05
 0.24249998E+02  0.25770E+05
 0.24299999E+02  0.25713E+05
 0.24349998E+02  0.25656E+05
 0.24399998E+02  0.25599E+05
 0.24449999E+02  0.25539E+05
 0.24499998E+02  0.25421E+05
 0.24549999E+02  0.25239E+05
 0.24599998E+02  0.25038E+05
 0.24649998E+02  0.24844E+05
 0.24699999E+02  0.24639E+05
 0.24749998E+02  0.24442E+05
 0.24799999E+02  0.24271E+05
 0.24849998E+02  0.24069E+05
 0.24899998E+02  0.23876E+05
 0.24949999E+02  0.23696E+05
 0.24999998E+02  0.23543E+05
 0.25049999E+02  0.23396E+05
 0.25099998E+02  0.23287E+05
 0.25149998E+02  0.23278E+05
 0.25199999E+02  0.23336E+05
 0.25249998E+02  0.23481E+05
 0.25299999E+02  0.23627E+05
 0.25349998E+02  0.23743E+05
 0.25399998E+02  0.23871E+05
 0.25449999E+02  0.23995E+05
 0.25499998E+02  0.24138E+05
 0.25549999E+02  0.24350E+05
 0.25599998E+02  0.24579E+05
 0.25649998E+02  0.24747E+05
 0.25699999E+02  0.24900E+05
 0.25749998E+02  0.25058E+05
 0.25799999E+02  0.25202E+05
 0.25849998E+02  0.25330E+05
 0.25899998E+02  0.25465E+05
 0.25949999E+02  0.25546E+05
 0.25999998E+02  0.25566E+05
 0.26049999E+02  0.25647E+05
 0.26099998E+02  0.25764E+05
 0.26149998E+02  0.25861E+05
 0.26199999E+02  0.25957E+05
 0.26249998E+02  0.26067E+05
 0.26299999E+02  0.26150E+05
 0.26349998E+02  0.26197E+05
 0.26399998E+02  0.26223E+05
 0.26449999E+02  0.26243E+05
 0.26499998E+02  0.26236E+05
 0.26549999E+02  0.26234E+05
 0.26599998E+02  0.26210E+05
 0.26649998E+02  0.26139E+05
 0.26699999E+02  0.26097E+05
 0.26749998E+02  0.26057E+05
 0.26799999E+02  0.25922E+05
 0.26849998E+02  0.25738E+05
 0.26899998E+02  0.25598E+05
 0.26949999E+02  0.25444E+05
 0.26999998E+02  0.25303E+05
 0.27049997E+02  0.25164E+05
 0.27099998E+02  0.25043E+05
 0.27149998E+02  0.24971E+05
 0.27199999E+02  0.24955E+05
 0.27249998E+02  0.25008E+05
 0.27299997E+02  0.25068E+05
 0.27349998E+02  0.25146E+05
 0.27399998E+02  0.25230E+05
 0.27449999E+02  0.25315E+05
 0.27499998E+02  0.25432E+05
 0.27549997E+02  0.25564E+05
 0.27599998E+02  0.25648E+05
 0.27649998E+02  0.25695E+05
 0.27699999E+02  0.25744E+05
 0.27749998E+02  0.25800E+05
 0.27799997E+02  0.25868E+05
 0.27849998E+02  0.25903E+05
 0.27899998E+02  0.25923E+05
 0.27949999E+02  0.25886E+05
 0.27999998E+02  0.25793E+05
 0.28049997E+02  0.25635E+05
 0.28099998E+02  0.25439E+05
 0.28149998E+02  0.25281E+05
 0.28199999E+02  0.25113E+05
 0.28249998E+02  0.24961E+05
 0.28299997E+02  0.24836E+05
 0.28349998E+02  0.24750E+05
 0.28399998E+02  0.24721E+05
 0.28449999E+02  0.24766E+05
 0.28499998E+02  0.24847E+05
 0.28549997E+02  0.24906E+05
 0.28599998E+02  0.24937E+05
 0.28649998E+02  0.24987E+05
 0.28699999E+02  0.25031E+05
 0.28749998E+02  0.25100E+05
 0.28799997E+02  0.25228E+05
 0.28849998E+02  0.25367E+05
 0.28899998E+02  0.25471E+05
 0.28949999E+02  0.25612E+05
 0.28999998E+02  0.25794E+05
 0.29049997E+02  0.25911E+05
 0.29099998E+02  0.25993E+05
 0.29149998E+02  0.26064E+05
 0.29199999E+02  0.26121E+05
 0.29249998E+02  0.26161E+05
 0.29299997E+02  0.26258E+05
 0.29349998E+02  0.26354E+05
 0.29399998E+02  0.26417E+05
 0.29449999E+02  0.26457E+05
 0.29499998E+02  0.26442E+05
 0.29549997E+02  0.26402E+05
 0.29599998E+02  0.26351E+05
 0.29649998E+02  0.26302E+05
 0.29699999E+02  0.26234E+05
 0.29749998E+02  0.26176E+05
 0.29799997E+02  0.26146E+05
 0.29849998E+02  0.26063E+05
 0.29899998E+02  0.25894E+05
 0.29949999E+02  0.25677E+05
 0.29999998E+02  0.25476E+05
 0.30049999E+02  0.25304E+05
 0.30099998E+02  0.25096E+05
 0.30149998E+02  0.24892E+05
 0.30199997E+02  0.24703E+05
 0.30249996E+02  0.24540E+05
 0.30299999E+02  0.24379E+05
 0.30349998E+02  0.24185E+05
 0.30399998E+02  0.24014E+05
 0.30449997E+02  0.23869E+05
 0.30499996E+02  0.23737E+05
 0.30549999E+02  0.23633E+05
 0.30599998E+02  0.23510E+05
 0.30649998E+02  0.23387E+05
 0.30699997E+02  0.23381E+05
 0.30749996E+02  0.23435E+05
 0.30799999E+02  0.23479E+05
 0.30849998E+02  0.23542E+05
 0.30899998E+02  0.23638E+05
 0.30949997E+02  0.23788E+05
 0.30999996E+02  0.23968E+05
 0.31049999E+02  0.24157E+05
 0.31099998E+02  0.24372E+05
 0.31149998E+02  0.24581E+05
 0.31199997E+02  0.24814E+05
 0.31249996E+02  0.25103E+05
 0.31299999E+02  0.25380E+05
 0.31349998E+02  0.25622E+05
 0.31399998E+02  0.25833E+05
 0.31449997E+02  0.26024E+05
 0.31499996E+02  0.26169E+05
 0.31549999E+02  0.26281E+05
 0.31599998E+02  0.26381E+05
 0.31649998E+02  0.26400E+05
 0.31699997E+02  0.26382E+05
 0.31749996E+02  0.26327E+05
 0.31799999E+02  0.26231E+05
 0.31849998E+02  0.26174E+05
 0.31899998E+02  0.26120E+05
 0.31949997E+02  0.26054E+05
 0.31999996E+02  0.25958E+05
 0.32049999E+02  0.25894E+05
 0.32099998E+02  0.25801E+05
 0.32149998E+02  0.25626E+05
 0.32199997E+02  0.25495E+05
 0.32249996E+02  0.25374E+05
 0.32299999E+02  0.25328E+05
 0.32349998E+02  0.25296E+05
 0.32399998E+02  0.25342E+05
 0.32449997E+02  0.25375E+05
 0.32499996E+02  0.25342E+05
 0.32549999E+02  0.25290E+05
 0.32599998E+02  0.25266E+05
 0.32649998E+02  0.25301E+05
 0.32699997E+02  0.25265E+05
 0.32749996E+02  0.25254E+05
 0.32799999E+02  0.25242E+05
 0.32849998E+02  0.25203E+05
 0.32899998E+02  0.25102E+05
 0.32949997E+02  0.25095E+05
 0.32999996E+02  0.25090E+05
 0.33049999E+02  0.25025E+05
 0.33099998E+02  0.25001E+05
 0.33149998E+02  0.25012E+05
 0.33199997E+02  0.24920E+05
 0.33249996E+02  0.24882E+05
 0.33299999E+02  0.24872E+05
 0.33349998E+02  0.24828E+05
 0.33399998E+02  0.24871E+05
 0.33449997E+02  0.24843E+05
 0.33499996E+02  0.24940E+05
 0.33549999E+02  0.24941E+05
 0.33599998E+02  0.24943E+05
 0.33649998E+02  0.25014E+05
 0.33699997E+02  0.25049E+05
 0.33749996E+02  0.25183E+05
 0.33799999E+02  0.25270E+05
 0.33849998E+02  0.25240E+05
 0.33899998E+02  0.25440E+05
 0.33949997E+02  0.25394E+05
 0.33999996E+02  0.25472E+05
 0.34049999E+02  0.25393E+05
 0.34099998E+02  0.25392E+05
 0.34149998E+02  0.25361E+05
 0.34199997E+02  0.25230E+05
 0.34249996E+02  0.25406E+05
 0.34299999E+02  0.25357E+05
 0.34349998E+02  0.25376E+05
 0.34399998E+02  0.25268E+05
 0.34449997E+02  0.25308E+05
 0.34499996E+02  0.25161E+05
 0.34549999E+02  0.25306E+05
 0.34599998E+02  0.25101E+05
 0.34649998E+02  0.25173E+05
 0.34699997E+02  0.25276E+05
 0.34749996E+02  0.25228E+05
 0.34799999E+02  0.25294E+05
 0.34849998E+02  0.25484E+05
 0.34899998E+02  0.25587E+05
 0.34949997E+02  0.25413E+05
 0.34999996E+02  0.25494E+05
 0.35049999E+02  0.25460E+05
 0.35099998E+02  0.25710E+05
 0.35149998E+02  0.25852E+05
 0.35199997E+02  0.25823E+05
 0.35249996E+02  0.25799E+05
 0.35299999E+02  0.25966E+05
 0.35349998E+02  0.25777E+05
 0.35399998E+02  0.25850E+05
 0.35449997E+02  0.25930E+05
 0.35499996E+02  0.26251E+05
 0.35549999E+02  0.26006E+05
 0.35599998E+02  0.25887E+05
 0.35649998E+02  0.25817E+05
 0.35699997E+02  0.25707E+05
 0.35749996E+02  0.25523E+05
 0.35799999E+02  0.25160E+05
 0.35849998E+02  0.25718E+05
 0.35899998E+02  0.25708E+05
 0.35949997E+02  0.25480E+05
 0.35999996E+02  0.25187E+05
 0.36049999E+02  0.25480E+05
 0.36099998E+02  0.25282E+05
 0.36149998E+02  0.24744E+05
 0.36199997E+02  0.24394E+05
 0.36249996E+02  0.25252E+05
 0.36299999E+02  0.24916E+05
 0.36349998E+02  0.23660E+05
 0.36399998E+02  0.24500E+05
 0.36449997E+02  0.25071E+05
 0.36499996E+02  0.24380E+05
 0.36549999E+02  0.24247E+05
 0.36599998E+02  0.24592E+05
 0.36649998E+02  0.23948E+05
 0.36699997E+02  0.24030E+05
 0.36749996E+02  0.24306E+05
 0.36799999E+02  0.24225E+05
 0.36849998E+02  0.24508E+05
 0.36899998E+02  0.24364E+05
 0.36949997E+02  0.23957E+05
 0.36999996E+02  0.24957E+05
 0.37049999E+02  0.25751E+05
 0.37099998E+02  0.24804E+05
 0.37149998E+02  0.25085E+05
 0.37199997E+02  0.25802E+05
 0.37249996E+02  0.25085E+05
 0.37299999E+02  0.25955E+05
 0.37349998E+02  0.26655E+05
 0.37399998E+02  0.25752E+05
 0.37449997E+02  0.25738E+05
 0.37499996E+02  0.26316E+05
 0.37549999E+02  0.26337E+05
 0.37599998E+02  0.25779E+05
 0.37649998E+02  0.26261E+05
 0.37699997E+02  0.26947E+05
 0.37749996E+02  0.27268E+05
 0.37799999E+02  0.25921E+05
 0.37849998E+02  0.24696E+05
 0.37899998E+02  0.25493E+05
 0.37949997E+02  0.25694E+05
 0.37999996E+02  0.25520E+05
 0.38049999E+02  0.25407E+05
 0.38099998E+02  0.25385E+05
 0.38149998E+02  0.24731E+05
 0.38199997E+02  0.23522E+05
 0.38249996E+02  0.23942E+05
 0.38299999E+02  0.25027E+05
 0.38349998E+02  0.24448E+05
 0.38399998E+02  0.23925E+05
 0.38449997E+02  0.24286E+05
 0.38499996E+02  0.24434E+05
 0.38549999E+02  0.24896E+05
 0.38599998E+02  0.25502E+05
 0.38649998E+02  0.23521E+05
 0.38699997E+02  0.22513E+05
 0.38749996E+02  0.23729E+05
 0.38799999E+02  0.25189E+05
 0.38849998E+02  0.23741E+05
 0.38899998E+02  0.24400E+05
 0.38949997E+02  0.25921E+05
 0.38999996E+02  0.25762E+05
 0.39049999E+02  0.25722E+05
 0.39099998E+02  0.26687E+05
 0.39149998E+02  0.28172E+05
 0.39199997E+02  0.25441E+05
 0.39249996E+02  0.26050E+05
 0.39299999E+02  0.25205E+05
 0.39349998E+02  0.26152E+05
 0.39399998E+02  0.26551E+05
 0.39449997E+02  0.24969E+05
 0.39499996E+02  0.25925E+05
 0.39549999E+02  0.26421E+05
 0.39599998E+02  0.25797E+05
 0.39649998E+02  0.23902E+05
 0.39699997E+02  0.25975E+05
 0.39749996E+02  0.25819E+05
 0.39799999E+02  0.22330E+05
 0.39849998E+02  0.22277E+05
 0.39899998E+02  0.26964E+05
 0.39949997E+02  0.25582E+05
 0.39999996E+02  0.21189E+05
 0.40049999E+02  0.25280E+05
 0.40099998E+02  0.28758E+05
 0.40149998E+02  0.25725E+05
 0.40199997E+02  0.22162E+05
 0.40249996E+02  0.25071E+05
 0.40299999E+02  0.25593E+05
 0.40349998E+02  0.22829E+05
 0.40399998E+02  0.23952E+05
 0.40449997E+02  0.28409E+05
 0.40499996E+02  0.28313E+05
 0.40549999E+02  0.24132E+05
 0.40599998E+02  0.26782E+05
 0.40649998E+02  0.24769E+05
 0.40699997E+02  0.24359E+05
 0.40749996E+02  0.24831E+05
 0.40799999E+02  0.27846E+05
 0.40849998E+02  0.29374E+05
 0.40899998E+02  0.23637E+05
 0.40949997E+02  0.24994E+05
 0.40999996E+02  0.26344E+05
 0.41049999E+02  0.23526E+05
 0.41099998E+02  0.21667E+05
 0.41149998E+02  0.23056E+05
 0.41199997E+02  0.24264E+05
 0.41249996E+02  0.27906E+05
 0.41299999E+02  0.27742E+05
 0.41349998E+02  0.25212E+05
 0.41399998E+02  0.23464E+05
 0.41449997E+02  0.24216E+05
 0.41499996E+02  0.27122E+05
 0.41549999E+02  0.26166E+05
 0.41599998E+02  0.20580E+05
 0.41649998E+02  0.21287E+05
 0.41699997E+02  0.24318E+05
 0.41749996E+02  0.18532E+05
 0.41799999E+02  0.19182E+05
 0.41849998E+02  0.23516E+05
 0.41899998E+02  0.25227E+05
 0.41949997E+02  0.27688E+05
 0.41999996E+02  0.24141E+05
 0.42049999E+02  0.20316E+05
 0.42099998E+02  0.22926E+05
 0.42149998E+02  0.25836E+05
 0.42199997E+02  0.26233E+05
 0.42249996E+02  0.24937E+05
 0.42299999E+02  0.26802E+05
 0.42349998E+02  0.26655E+05
 0.42399998E+02  0.24002E+05
 0.42449997E+02  0.25336E+05
 0.42499996E+02  0.23250E+05
 0.42549999E+02  0.20530E+05
 0.42599998E+02  0.24398E+05
 0.42649998E+02  0.24084E+05
 0.42699997E+02  0.21499E+05
 0.42749996E+02  0.22632E+05
 0.42799995E+02  0.22417E+05
 0.42849998E+02  0.22390E+05
 0.42899998E+02  0.24700E+05
 0.42949997E+02  0.25286E+05
 0.42999996E+02  0.26019E+05
 0.43049995E+02  0.22504E+05
 0.43099998E+02  0.18413E+05
 0.43149998E+02  0.20141E+05
 0.43199997E+02  0.20543E+05
 0.43249996E+02  0.21443E+05
 0.43299995E+02  0.28684E+05
 0.43349998E+02  0.31353E+05
 0.43399998E+02  0.25054E+05
 0.43449997E+02  0.21706E+05
 0.43499996E+02  0.27682E+05
 0.43549995E+02  0.32695E+05
 0.43599998E+02  0.25305E+05
 0.43649998E+02  0.19870E+05
 0.43699997E+02  0.18213E+05
 0.43749996E+02  0.22015E+05
 0.43799995E+02  0.28906E+05
 0.43849998E+02  0.31722E+05
 0.43899998E+02  0.32336E+05
 0.43949997E+02  0.28585E+05
 0.43999996E+02  0.21233E+05
 0.44049995E+02  0.19889E+05
 0.44099998E+02  0.17661E+05
 0.44149998E+02  0.15220E+05
 0.44199997E+02  0.21349E+05
 0.44249996E+02  0.24259E+05
 0.44299995E+02  0.24925E+05
 0.44349998E+02  0.24630E+05
 0.44399998E+02  0.19423E+05
 0.44449997E+02  0.18095E+05
 0.44499996E+02  0.24111E+05
 0.44549995E+02  0.28625E+05
 0.44599998E+02  0.26022E+05
 0.44649998E+02  0.23334E+05
 0.44699997E+02  0.29146E+05
 0.44749996E+02  0.32326E+05
 0.44799995E+02  0.30844E+05
 0.44849998E+02  0.29800E+05
 0.44899998E+02  0.24897E+05
 0.44949997E+02  0.23401E+05
 0.44999996E+02  0.21362E+05
 0.45049995E+02  0.17178E+05
 0.45099998E+02  0.14884E+05
 0.45149998E+02  0.14508E+05
 0.45199997E+02  0.17830E+05
 0.45249996E+02  0.19339E+05
 0.45299995E+02  0.19998E+05
 0.45349998E+02  0.14872E+05
 0.45399998E+02  0.16022E+05
 0.45449997E+02  0.17095E+05
 0.45499996E+02  0.16191E+05
 0.45549995E+02  0.15238E+05
 0.45599998E+02  0.17581E+05
 0.45649998E+02  0.26090E+05
 0.45699997E+02  0.18656E+05
 0.45749996E+02  0.19611E+05
 0.45799995E+02  0.27016E+05
 0.45849998E+02  0.25840E+05
 0.45899998E+02  0.26874E+05
 0.45949997E+02  0.22887E+05
 0.45999996E+02  0.22774E+05
 0.46049995E+02  0.24804E+05
 0.46099998E+02  0.24238E+05
 0.46149998E+02  0.26257E+05
 0.46199997E+02  0.24450E+05
 0.46249996E+02  0.21071E+05
 0.46299995E+02  0.25199E+05
 0.46349998E+02  0.26365E+05
 0.46399998E+02  0.20727E+05
 0.46449997E+02  0.23660E+05
 0.46499996E+02  0.22458E+05
 0.46549995E+02  0.16572E+05
 0.46599998E+02  0.16335E+05
 0.46649998E+02  0.25890E+05
 0.46699997E+02  0.33678E+05
 0.46749996E+02  0.32104E+05
 0.46799995E+02  0.28932E+05
 0.46849998E+02  0.22478E+05
 0.46899998E+02  0.16414E+05
 0.46949997E+02  0.17689E+05
 0.46999996E+02  0.25456E+05
 0.47049995E+02  0.30590E+05
 0.47099998E+02  0.24255E+05
 0.47149998E+02  0.18858E+05
 0.47199997E+02  0.19229E+05
 0.47249996E+02  0.15584E+05
 0.47299995E+02  0.14927E+05
 0.47349998E+02  0.22570E+05
 0.47399998E+02  0.28873E+05
 0.47449997E+02  0.22963E+05
 0.47499996E+02  0.20178E+05
 0.47549995E+02  0.24255E+05
 0.47599998E+02  0.28851E+05
 0.47649998E+02  0.24667E+05
 0.47699997E+02  0.19287E+05
 0.47749996E+02  0.18574E+05
 0.47799995E+02  0.18993E+05
 0.47849998E+02  0.22909E+05
 0.47899998E+02  0.24751E+05
 0.47949997E+02  0.27470E+05
 0.47999996E+02  0.27056E+05
 0.48049995E+02  0.24307E+05
 0.48099998E+02  0.21589E+05
 0.48149998E+02  0.20690E+05
 0.48199997E+02  0.24254E+05
 0.48249996E+02  0.30109E+05
 0.48299995E+02  0.31802E+05
 0.48349998E+02  0.25145E+05
 0.48399998E+02  0.20730E+05
 0.48449997E+02  0.18035E+05
 0.48499996E+02  0.13876E+05
 0.48549995E+02  0.21587E+05
 0.48599998E+02  0.28867E+05
 0.48649998E+02  0.31754E+05
 0.48699997E+02  0.32724E+05
 0.48749996E+02  0.29915E+05
 0.48799995E+02  0.31265E+05
 0.48849998E+02  0.28543E+05
 0.48899998E+02  0.28061E+05
 0.48949997E+02  0.26637E+05
 0.48999996E+02  0.25393E+05
 0.49049995E+02  0.31132E+05
 0.49099998E+02  0.30797E+05
 0.49149998E+02  0.28648E+05
 0.49199997E+02  0.27459E+05
 0.49249996E+02  0.23639E+05
 0.49299995E+02  0.21523E+05
 0.49349998E+02  0.17294E+05
 0.49399998E+02  0.16786E+05
 0.49449997E+02  0.21248E+05
 0.49499996E+02  0.21771E+05
 0.49549995E+02  0.21355E+05
 0.49599998E+02  0.21754E+05
 0.49649998E+02  0.26440E+05
 0.49699997E+02  0.28422E+05
 0.49749996E+02  0.22687E+05
 0.49799995E+02  0.20584E+05
 0.49849998E+02  0.21668E+05
 0.49899998E+02  0.25696E+05
 0.49949997E+02  0.27799E+05
 0.49999996E+02  0.26195E+05
 0.50049995E+02  0.27196E+05
 0.50099998E+02  0.27791E+05
 0.50149998E+02  0.25806E+05
 0.50199997E+02  0.24180E+05
 0.50249996E+02  0.23189E+05
 0.50299995E+02  0.18974E+05
 0.50349998E+02  0.16209E+05
 0.50399998E+02  0.16424E+05
 0.50449997E+02  0.16778E+05
 0.50499996E+02  0.21702E+05
 0.50549995E+02  0.28504E+05
 0.50599998E+02  0.25626E+05
 0.50649998E+02  0.23288E+05
 0.50699997E+02  0.25467E+05
 0.50749996E+02  0.27688E+05
 0.50799995E+02  0.24431E+05
 0.50849998E+02  0.24583E+05
 0.50899998E+02  0.31516E+05
 0.50949997E+02  0.34727E+05
 0.50999996E+02  0.35650E+05
 0.51049995E+02  0.27275E+05
 0.51099998E+02  0.16121E+05
 0.51149998E+02  0.11030E+05
 0.51199997E+02  0.12459E+05
 0.51249996E+02  0.18821E+05
 0.51299995E+02  0.23296E+05
 0.51349998E+02  0.20837E+05
 0.51399998E+02  0.20638E+05
 0.51449997E+02  0.28198E+05
 0.51499996E+02  0.33850E+05
 0.51549995E+02  0.31956E+05
 0.51599998E+02  0.28217E+05
 0.51649998E+02  0.23828E+05
 0.51699997E+02  0.22545E+05
 0.51749996E+02  0.23562E+05
 0.51799995E+02  0.25265E+05
 0.51849998E+02  0.28376E+05
 0.51899998E+02  0.28053E+05
 0.51949997E+02  0.26681E+05
 0.51999996E+02  0.24184E+05
 0.52049995E+02  0.24723E+05
 0.52099998E+02  0.26340E+05
 0.52149998E+02  0.24249E+05
 0.52199997E+02  0.20347E+05
 0.52249996E+02  0.19224E+05
 0.52299995E+02  0.18777E+05
 0.52349998E+02  0.24331E+05
 0.52399998E+02  0.30864E+05
 0.52449997E+02  0.31449E+05
 0.52499996E+02  0.26512E+05
 0.52549995E+02  0.18200E+05
 0.52599998E+02  0.15033E+05
 0.52649998E+02  0.15533E+05
 0.52699997E+02  0.24139E+05
 0.52749996E+02  0.27171E+05
 0.52799995E+02  0.24748E+05
 0.52849998E+02  0.28575E+05
 0.52899998E+02  0.30642E+05
 0.52949997E+02  0.26138E+05
 0.52999996E+02  0.20499E+05
 0.53049995E+02  0.19094E+05
 0.53099998E+02  0.22524E+05
 0.53149998E+02  0.31410E+05
 0.53199997E+02  0.37773E+05
 0.53249996E+02  0.35353E+05
 0.53299995E+02  0.27623E+05
 0.53349998E+02  0.23980E+05
 0.53399998E+02  0.26983E+05
 0.53449997E+02  0.28581E+05
 0.53499996E+02  0.26327E+05
 0.53549995E+02  0.22454E+05
 0.53599998E+02  0.19788E+05
 0.53649998E+02  0.17768E+05
 0.53699997E+02  0.20074E+05
 0.53749996E+02  0.22741E+05
 0.53799995E+02  0.19632E+05
 0.53849998E+02  0.18193E+05
 0.53899998E+02  0.19968E+05
 0.53949997E+02  0.22949E+05
 0.53999996E+02  0.26122E+05
 0.54049995E+02  0.29294E+05
 0.54099998E+02  0.25985E+05
 0.54149998E+02  0.19179E+05
 0.54199997E+02  0.14480E+05
 0.54249996E+02  0.17954E+05
 0.54299995E+02  0.25551E+05
 0.54349998E+02  0.26917E+05
 0.54399998E+02  0.25149E+05
 0.54449997E+02  0.25182E+05
 0.54499996E+02  0.28837E+05
 0.54549995E+02  0.31651E+05
 0.54599998E+02  0.31059E+05
 0.54649998E+02  0.25370E+05
 0.54699997E+02  0.25308E+05
 0.54749996E+02  0.30402E+05
 0.54799995E+02  0.31609E+05
 0.54849998E+02  0.28955E+05
 0.54899998E+02  0.25851E+05
 0.54949997E+02  0.29190E+05
 0.54999996E+02  0.28192E+05
 0.55049995E+02  0.21882E+05
 0.55099998E+02  0.17880E+05
 0.55149998E+02  0.16926E+05
 0.55199997E+02  0.19706E+05
 0.55249996E+02  0.21937E+05
 0.55299995E+02  0.26229E+05
 0.55349998E+02  0.30595E+05
 0.55399998E+02  0.29678E+05
 0.55449997E+02  0.27388E+05
 0.55499996E+02  0.20238E+05
 0.55549995E+02  0.12397E+05
 0.55599998E+02  0.11611E+05
 0.55649998E+02  0.16306E+05
 0.55699997E+02  0.21708E+05
 0.55749996E+02  0.24695E+05
 0.55799995E+02  0.28717E+05
 0.55849995E+02  0.28027E+05
 0.55899998E+02  0.27192E+05
 0.55949997E+02  0.28074E+05
 0.55999996E+02  0.28451E+05
 0.56049995E+02  0.28284E+05
 0.56099995E+02  0.28660E+05
 0.56149998E+02  0.31162E+05
 0.56199997E+02  0.28893E+05
 0.56249996E+02  0.28205E+05
 0.56299995E+02  0.27840E+05
 0.56349995E+02  0.25714E+05
 0.56399998E+02  0.26266E+05
 0.56449997E+02  0.23798E+05
 0.56499996E+02  0.21066E+05
 0.56549995E+02  0.19996E+05
 0.56599995E+02  0.19505E+05
 0.56649998E+02  0.22729E+05
 0.56699997E+02  0.24635E+05
 0.56749996E+02  0.22959E+05
 0.56799995E+02  0.21253E+05
 0.56849995E+02  0.21495E+05
 0.56899998E+02  0.21920E+05
 0.56949997E+02  0.20961E+05
 0.56999996E+02  0.18316E+05
 0.57049995E+02  0.15934E+05
 0.57099995E+02  0.17207E+05
 0.57149998E+02  0.22057E+05
 0.57199997E+02  0.29963E+05
 0.57249996E+02  0.34641E+05
 0.57299995E+02  0.30771E+05
 0.57349995E+02  0.27147E+05
 0.57399998E+02  0.26217E+05
 0.57449997E+02  0.27921E+05
 0.57499996E+02  0.30821E+05
 0.57549995E+02  0.28391E+05
 0.57599995E+02  0.27024E+05
 0.57649998E+02  0.23306E+05
 0.57699997E+02  0.17871E+05
 0.57749996E+02  0.19201E+05
 0.57799995E+02  0.22550E+05
 0.57849995E+02  0.25401E+05
 0.57899998E+02  0.24123E+05
 0.57949997E+02  0.18529E+05
 0.57999996E+02  0.18124E+05
 0.58049995E+02  0.21556E+05
 0.58099995E+02  0.21645E+05
 0.58149998E+02  0.21385E+05
 0.58199997E+02  0.19548E+05
 0.58249996E+02  0.15821E+05
 0.58299995E+02  0.18789E+05
 0.58349995E+02  0.25634E+05
 0.58399998E+02  0.30409E+05
 0.58449997E+02  0.31763E+05
 0.58499996E+02  0.29820E+05
 0.58549995E+02  0.29437E+05
 0.58599995E+02  0.26384E+05
 0.58649998E+02  0.25823E+05
 0.58699997E+02  0.28412E+05
 0.58749996E+02  0.24980E+05
 0.58799995E+02  0.29104E+05
 0.58849995E+02  0.36802E+05
 0.58899998E+02  0.37887E+05
 0.58949997E+02  0.33750E+05
 0.58999996E+02  0.28310E+05
 0.59049995E+02  0.24111E+05
 0.59099995E+02  0.16721E+05
 0.59149998E+02  0.12790E+05
 0.59199997E+02  0.18138E+05
 0.59249996E+02  0.22521E+05
 0.59299995E+02  0.20696E+05
 0.59349995E+02  0.26208E+05
 0.59399998E+02  0.29096E+05
 0.59449997E+02  0.29355E+05
 0.59499996E+02  0.27783E+05
 0.59549995E+02  0.24900E+05
 0.59599995E+02  0.25915E+05
 0.59649998E+02  0.19332E+05
 0.59699997E+02  0.23676E+05
 0.59749996E+02  0.27752E+05
 0.59799995E+02  0.27491E+05
 0.59849995E+02  0.30006E+05
 0.59899998E+02  0.30862E+05
 0.59949997E+02  0.28683E+05
 0.59999996E+02  0.19908E+05
 0.60049995E+02  0.17653E+05
 0.60099995E+02  0.17891E+05
 0.60149998E+02  0.20709E+05
 0.60199997E+02  0.19999E+05
 0.60249996E+02  0.16583E+05
 0.60299995E+02  0.20588E+05
 0.60349995E+02  0.18921E+05
 0.60399998E+02  0.17000E+05
 0.60449997E+02  0.19924E+05
 0.60499996E+02  0.25683E+05
 0.60549995E+02  0.30526E+05
 0.60599995E+02  0.29809E+05
 0.60649998E+02  0.27672E+05
 0.60699997E+02  0.26352E+05
 0.60749996E+02  0.24456E+05
 0.60799995E+02  0.18984E+05
 0.60849995E+02  0.23986E+05
 0.60899998E+02  0.28097E+05
 0.60949997E+02  0.30174E+05
 0.60999996E+02  0.36018E+05
 0.61049995E+02  0.35058E+05
 0.61099995E+02  0.31596E+05
 0.61149998E+02  0.23497E+05
 0.61199997E+02  0.16528E+05
 0.61249996E+02  0.18956E+05
 0.61299995E+02  0.26491E+05
 0.61349995E+02  0.26506E+05
 0.61399998E+02  0.26099E+05
 0.61449997E+02  0.22620E+05
 0.61499996E+02  0.20306E+05
 0.61549995E+02  0.29456E+05
 0.61599995E+02  0.28710E+05
 0.61649998E+02  0.20986E+05
 0.61699997E+02  0.20290E+05
 0.61749996E+02  0.26706E+05
 0.61799995E+02  0.23289E+05
 0.61849995E+02  0.17821E+05
 0.61899998E+02  0.25464E+05
 0.61949997E+02  0.31082E+05
 0.61999996E+02  0.32277E+05
 0.62049995E+02  0.29152E+05
 0.62099998E+02  0.22185E+05
 0.62149994E+02  0.22075E+05
 0.62199997E+02  0.26859E+05
 0.62249992E+02  0.27688E+05
 0.62299995E+02  0.26604E+05
 0.62349998E+02  0.22355E+05
 0.62399994E+02  0.24433E+05
 0.62449997E+02  0.31385E+05
 0.62499992E+02  0.30870E+05
 0.62549995E+02  0.25607E+05
 0.62599998E+02  0.14868E+05
 0.62649994E+02  0.15253E+05
 0.62699997E+02  0.20179E+05
 0.62749992E+02  0.17635E+05
 0.62799995E+02  0.21768E+05
 0.62849998E+02  0.22275E+05
 0.62899994E+02  0.19950E+05
 0.62949997E+02  0.20666E+05
 0.62999992E+02  0.17186E+05
 0.63049995E+02  0.15050E+05
 0.63099998E+02  0.18277E+05
 0.63149994E+02  0.19202E+05
 0.63199997E+02  0.19111E+05
 0.63249992E+02  0.22015E+05
 0.63299995E+02  0.27288E+05
 0.63349998E+02  0.30280E+05
 0.63399994E+02  0.31173E+05
 0.63449997E+02  0.27522E+05
 0.63499992E+02  0.24026E+05
 0.63549995E+02  0.25630E+05
 0.63599998E+02  0.24296E+05
 0.63649994E+02  0.30779E+05
 0.63699997E+02  0.32018E+05
 0.63749992E+02  0.30057E+05
 0.63799995E+02  0.31394E+05
 0.63849998E+02  0.32417E+05
 0.63899994E+02  0.34121E+05
 0.63949997E+02  0.33662E+05
 0.63999992E+02  0.29778E+05
 0.64049995E+02  0.26333E+05
 0.64099998E+02  0.30355E+05
 0.64149994E+02  0.30646E+05
 0.64199997E+02  0.28247E+05
 0.64249992E+02  0.24679E+05
 0.64299995E+02  0.20925E+05
 0.64349998E+02  0.22941E+05
 0.64399994E+02  0.26616E+05
 0.64449997E+02  0.23106E+05
 0.64499992E+02  0.26893E+05
 0.64549995E+02  0.29064E+05
 0.64599998E+02  0.22444E+05
 0.64649994E+02  0.16004E+05
 0.64699997E+02  0.10006E+05
 0.64749992E+02  0.15536E+05
 0.64799995E+02  0.24602E+05
 0.64849998E+02  0.28538E+05
 0.64899994E+02  0.22581E+05
 0.64949997E+02  0.11234E+05
 0.64999992E+02  0.62523E+04
 0.65049995E+02  0.90389E+04
 0.65099998E+02  0.16446E+05
 0.65149994E+02  0.29386E+05
 0.65199997E+02  0.31104E+05
 0.65249992E+02  0.17815E+05
 0.65299995E+02  0.96462E+04
 0.65349998E+02  0.15506E+05
 0.65399994E+02  0.22413E+05
 0.65449997E+02  0.16946E+05
 0.65499992E+02  0.13967E+05
 0.65549995E+02  0.16472E+05
 0.65599998E+02  0.25180E+05
 0.65649994E+02  0.33585E+05
 0.65699997E+02  0.32524E+05
 0.65749992E+02  0.29190E+05
 0.65799995E+02  0.28466E+05
 0.65849998E+02  0.27426E+05
 0.65899994E+02  0.23296E+05
 0.65949997E+02  0.20704E+05
 0.65999992E+02  0.18879E+05
 0.66049995E+02  0.20868E+05
 0.66099998E+02  0.23729E+05
 0.66149994E+02  0.24330E+05
 0.66199997E+02  0.27537E+05
 0.66249992E+02  0.29712E+05
 0.66299995E+02  0.30398E+05
 0.66349998E+02  0.21904E+05
 0.66399994E+02  0.15536E+05
 0.66449997E+02  0.20304E+05
 0.66499992E+02  0.23110E+05
 0.66549995E+02  0.26616E+05
 0.66599998E+02  0.20838E+05
 0.66649994E+02  0.18761E+05
 0.66699997E+02  0.27702E+05
 0.66749992E+02  0.23619E+05
 0.66799995E+02  0.17639E+05
 0.66849998E+02  0.14687E+05
 0.66899994E+02  0.14320E+05
 0.66949997E+02  0.12946E+05
 0.66999992E+02  0.10017E+05
 0.67049995E+02  0.16062E+05
 0.67099998E+02  0.23793E+05
 0.67149994E+02  0.30159E+05
 0.67199997E+02  0.31629E+05
 0.67249992E+02  0.32333E+05
 0.67299995E+02  0.31184E+05
 0.67349998E+02  0.20926E+05
 0.67399994E+02  0.17915E+05
 0.67449997E+02  0.19394E+05
 0.67499992E+02  0.15922E+05
 0.67549995E+02  0.20976E+05
 0.67599998E+02  0.24142E+05
 0.67649994E+02  0.22050E+05
 0.67699997E+02  0.19455E+05
 0.67749992E+02  0.18877E+05
 0.67799995E+02  0.21411E+05
 0.67849998E+02  0.17667E+05
 0.67899994E+02  0.16724E+05
 0.67949997E+02  0.19667E+05
 0.67999992E+02  0.17144E+05
 0.68049995E+02  0.16052E+05
 0.68099998E+02  0.22150E+05
 0.68149994E+02  0.22052E+05
 0.68199997E+02  0.23325E+05
 0.68249992E+02  0.28840E+05
 0.68299995E+02  0.28272E+05
 0.68349998E+02  0.28587E+05
 0.68399994E+02  0.28849E+05
 0.68449997E+02  0.26837E+05
 0.68499992E+02  0.20228E+05
 0.68549995E+02  0.14235E+05
 0.68599998E+02  0.19492E+05
 0.68649994E+02  0.24698E+05
 0.68699997E+02  0.21866E+05
 0.68749992E+02  0.18573E+05
 0.68799995E+02  0.16211E+05
 0.68849998E+02  0.19014E+05
 0.68899994E+02  0.24795E+05
 0.68949997E+02  0.24766E+05
 0.68999992E+02  0.23650E+05
 0.69049995E+02  0.25804E+05
 0.69099998E+02  0.30605E+05
 0.69149994E+02  0.33859E+05
 0.69199997E+02  0.31576E+05
 0.69249992E+02  0.27964E+05
 0.69299995E+02  0.25813E+05
 0.69349998E+02  0.26832E+05
 0.69399994E+02  0.30655E+05
 0.69449997E+02  0.34751E+05
 0.69499992E+02  0.37784E+05
 0.69549995E+02  0.37089E+05
 0.69599998E+02  0.33153E+05
 0.69649994E+02  0.23360E+05
 0.69699997E+02  0.14930E+05
 0.69749992E+02  0.15771E+05
 0.69799995E+02  0.23256E+05
 0.69849998E+02  0.33005E+05
 0.69899994E+02  0.31240E+05
 0.69949997E+02  0.21221E+05
 0.69999992E+02  0.19438E+05
 0.70049995E+02  0.27258E+05
 0.70099998E+02  0.32167E+05
 0.70149994E+02  0.32733E+05
 0.70199997E+02  0.24626E+05
 0.70249992E+02  0.13865E+05
 0.70299995E+02  0.80293E+04
 0.70349998E+02  0.67871E+04
 0.70399994E+02  0.15699E+05
 0.70449997E+02  0.22129E+05
 0.70499992E+02  0.28600E+05
 0.70549995E+02  0.34368E+05
 0.70599998E+02  0.30704E+05
 0.70649994E+02  0.27552E+05
 0.70699997E+02  0.31473E+05
 0.70749992E+02  0.36170E+05
 0.70799995E+02  0.31124E+05
 0.70849998E+02  0.21563E+05
 0.70899994E+02  0.13553E+05
 0.70949997E+02  0.60460E+04
 0.70999992E+02 -0.33337E+03
 0.71049995E+02 -0.25037E+04
 0.71099998E+02  0.28250E+04
 0.71149994E+02  0.11755E+05
 0.71199997E+02  0.20762E+05
 0.71249992E+02  0.24628E+05
 0.71299995E+02  0.19858E+05
 0.71349998E+02  0.10689E+05
 0.71399994E+02 -0.17075E+04
 0.71449997E+02 -0.16700E+05
 0.71499992E+02 -0.24298E+05
 0.71549995E+02 -0.17043E+05
 0.71599998E+02 -0.25856E+04
 0.71649994E+02  0.89768E+04
 0.71699997E+02  0.19489E+05
 0.71749992E+02  0.31659E+05
 0.71799995E+02  0.37171E+05
 0.71849998E+02  0.40657E+05
 0.71899994E+02  0.33505E+05
 0.71949997E+02  0.18124E+05
 0.71999992E+02  0.19978E+05
 0.72049995E+02  0.24480E+05
 0.72099998E+02  0.21105E+05
 0.72149994E+02  0.21214E+05
 0.72199997E+02  0.27948E+05
 0.72249992E+02  0.29485E+05
 0.72299995E+02  0.27799E+05
 0.72349998E+02  0.24976E+05
 0.72399994E+02  0.22680E+05
 0.72449997E+02  0.20926E+05
 0.72499992E+02  0.15759E+05
 0.72549995E+02  0.10302E+05
 0.72599998E+02  0.39377E+04
 0.72649994E+02  0.29843E+04
 0.72699997E+02  0.59617E+04
 0.72749992E+02  0.73848E+04
 0.72799995E+02  0.12352E+05
 0.72849998E+02  0.26728E+05
 0.72899994E+02  0.40348E+05
 0.72949997E+02  0.43100E+05
 0.72999992E+02  0.42197E+05
 0.73049995E+02  0.40532E+05
 0.73099998E+02  0.37550E+05
 0.73149994E+02  0.36951E+05
 0.73199997E+02  0.33938E+05
 0.73249992E+02  0.33421E+05
 0.73299995E+02  0.35936E+05
 0.73349998E+02  0.39481E+05
 0.73399994E+02  0.41248E+05
 0.73449997E+02  0.42308E+05
 0.73499992E+02  0.43807E+05
 0.73549995E+02  0.43979E+05
 0.73599998E+02  0.40700E+05
 0.73649994E+02  0.30909E+05
 0.73699997E+02  0.27862E+05
 0.73749992E+02  0.29616E+05
 0.73799995E+02  0.29835E+05
 0.73849998E+02  0.24301E+05
 0.73899994E+02  0.16845E+05
 0.73949997E+02  0.13064E+05
 0.73999992E+02  0.11372E+05
 0.74049995E+02  0.87099E+04
 0.74099998E+02  0.30945E+04
 0.74149994E+02 -0.21538E+02
 0.74199997E+02  0.41030E+04
 0.74249992E+02  0.75297E+04
 0.74299995E+02  0.54931E+04
 0.74349998E+02  0.78646E+04
 0.74399994E+02  0.10096E+05
 0.74449997E+02  0.12718E+05
 0.74499992E+02  0.19986E+05
 0.74549995E+02  0.23831E+05
 0.74599998E+02  0.23202E+05
 0.74649994E+02  0.22201E+05
 0.74699997E+02  0.22313E+05
 0.74749992E+02  0.23709E+05
 0.74799995E+02  0.24175E+05
 0.74849998E+02  0.22413E+05
 0.74899994E+02  0.27690E+05
 0.74949997E+02  0.35296E+05
 0.74999992E+02  0.31036E+05
 0.75049995E+02  0.21084E+05
 0.75099998E+02  0.96731E+04
 0.75149994E+02 -0.81628E+03
 0.75199997E+02 -0.82708E+04
 0.75249992E+02 -0.52465E+04
 0.75299995E+02  0.33089E+04
 0.75349998E+02  0.11444E+05
 0.75399994E+02  0.22391E+05
 0.75449997E+02  0.23361E+05
 0.75499992E+02  0.21217E+05
 0.75549995E+02  0.18380E+05
 0.75599998E+02  0.71784E+04
 0.75649994E+02 -0.22611E+04
 0.75699997E+02 -0.42237E+04
 0.75749992E+02 -0.25166E+03
 0.75799995E+02  0.87427E+04
 0.75849998E+02  0.17015E+05
 0.75899994E+02  0.20950E+05
 0.75949997E+02  0.22192E+05
 0.75999992E+02  0.23198E+05
 0.76049995E+02  0.23480E+05
 0.76099998E+02  0.17035E+05
 0.76149994E+02  0.80900E+04
 0.76199997E+02  0.15337E+04
 0.76249992E+02 -0.59789E+04
 0.76299995E+02 -0.11057E+05
 0.76349998E+02 -0.58528E+04
 0.76399994E+02  0.78838E+04
 0.76449997E+02  0.24282E+05
 0.76499992E+02  0.36427E+05
 0.76549995E+02  0.38487E+05
 0.76599998E+02  0.34072E+05
 0.76649994E+02  0.26158E+05
 0.76699997E+02  0.17502E+05
 0.76749992E+02  0.10238E+05
 0.76799995E+02  0.38437E+04
 0.76849998E+02  0.17235E+04
 0.76899994E+02  0.52616E+04
 0.76949997E+02  0.13428E+05
 0.76999992E+02  0.24704E+05
 0.77049995E+02  0.35293E+05
 0.77099998E+02  0.41104E+05
 0.77149994E+02  0.40307E+05
 0.77199997E+02  0.32466E+05
 0.77249992E+02  0.23933E+05
 0.77299995E+02  0.20560E+05
 0.77349998E+02  0.17488E+05
 0.77399994E+02  0.16554E+05
 0.77449997E+02  0.21046E+05
 0.77499992E+02  0.29032E+05
 0.77549995E+02  0.36652E+05
 0.77599998E+02  0.40509E+05
 0.77649994E+02  0.40774E+05
 0.77699997E+02  0.37330E+05
 0.77749992E+02  0.27306E+05
 0.77799995E+02  0.18116E+05
 0.77849998E+02  0.17254E+05
 0.77899994E+02  0.21471E+05
 0.77949997E+02  0.25275E+05
 0.77999992E+02  0.25637E+05
 0.78049995E+02  0.25192E+05
 0.78099998E+02  0.23846E+05
 0.78149994E+02  0.21392E+05
 0.78199997E+02  0.16695E+05
 0.78249992E+02  0.87349E+04
 0.78299995E+02  0.23996E+04
 0.78349998E+02  0.20815E+04
 0.78399994E+02  0.39901E+04
 0.78449997E+02  0.27591E+04
 0.78499992E+02 -0.41874E+02
 0.78549995E+02 -0.18446E+04
 0.78599998E+02 -0.67556E+04
 0.78649994E+02 -0.96651E+04
 0.78699997E+02 -0.58609E+04
 0.78749992E+02  0.52726E+04
 0.78799995E+02  0.22321E+05
 0.78849998E+02  0.37199E+05
 0.78899994E+02  0.43396E+05
 0.78949997E+02  0.43180E+05
 0.78999992E+02  0.43428E+05
 0.79049995E+02  0.43399E+05
 0.79099998E+02  0.43211E+05
 0.79149994E+02  0.40291E+05
 0.79199997E+02  0.35952E+05
 0.79249992E+02  0.32176E+05
 0.79299995E+02  0.29118E+05
 0.79349998E+02  0.31035E+05
 0.79399994E+02  0.34008E+05
 0.79449997E+02  0.35391E+05
 0.79499992E+02  0.36267E+05
 0.79549995E+02  0.34810E+05
 0.79599998E+02  0.31685E+05
 0.79649994E+02  0.27004E+05
 0.79699997E+02  0.22842E+05
 0.79749992E+02  0.19775E+05
 0.79799995E+02  0.15352E+05
 0.79849998E+02  0.10990E+05
 0.79899994E+02  0.60911E+04
 0.79949997E+02  0.36861E+04
 0.79999992E+02  0.68704E+04
 0.80049995E+02  0.12891E+05
 0.80099998E+02  0.18610E+05
 0.80149994E+02  0.20569E+05
 0.80199997E+02  0.20383E+05
 0.80249992E+02  0.18701E+05
 0.80299995E+02  0.14871E+05
 0.80349998E+02  0.11780E+05
 0.80399994E+02  0.11696E+05
 0.80449997E+02  0.13630E+05
 0.80499992E+02  0.14615E+05
 0.80549995E+02  0.15684E+05
 0.80599998E+02  0.16620E+05
 0.80649994E+02  0.18255E+05
 0.80699997E+02  0.20358E+05
 0.80749992E+02  0.20331E+05
 0.80799995E+02  0.19308E+05
 0.80849998E+02  0.18946E+05
 0.80899994E+02  0.20082E+05
 0.80949997E+02  0.26394E+05
 0.80999992E+02  0.32701E+05
 0.81049995E+02  0.31158E+05
 0.81099998E+02  0.28695E+05
 0.81149994E+02  0.26107E+05
 0.81199997E+02  0.21610E+05
 0.81249992E+02  0.17365E+05
 0.81299995E+02  0.13894E+05
 0.81349998E+02  0.10943E+05
 0.81399994E+02  0.10140E+05
 0.81449997E+02  0.10499E+05
 0.81499992E+02  0.87325E+04
 0.81549995E+02  0.76035E+04
 0.81599998E+02  0.10099E+05
 0.81649994E+02  0.14118E+05
 0.81699997E+02  0.12512E+05
 0.81749992E+02  0.96448E+04
 0.81799995E+02  0.88017E+04
 0.81849998E+02  0.98593E+04
 0.81899994E+02  0.12664E+05
 0.81949997E+02  0.12993E+05
 0.81999992E+02  0.11493E+05
 0.82049995E+02  0.11711E+05
 0.82099998E+02  0.15593E+05
 0.82149994E+02  0.17665E+05
 0.82199997E+02  0.17250E+05
 0.82249992E+02  0.17434E+05
 0.82299995E+02  0.18125E+05
 0.82349998E+02  0.18471E+05
 0.82399994E+02  0.18893E+05
 0.82449997E+02  0.16878E+05
 0.82499992E+02  0.13667E+05
 0.82549995E+02  0.12306E+05
 0.82599998E+02  0.10778E+05
 0.82649994E+02  0.11720E+05
 0.82699997E+02  0.16057E+05
 0.82749992E+02  0.19754E+05
 0.82799995E+02  0.19717E+05
 0.82849998E+02  0.17678E+05
 0.82899994E+02  0.15246E+05
 0.82949997E+02  0.12020E+05
 0.82999992E+02  0.94383E+04
 0.83049995E+02  0.10236E+05
 0.83099998E+02  0.12231E+05
 0.83149994E+02  0.14841E+05
 0.83199997E+02  0.22200E+05
 0.83249992E+02  0.31770E+05
 0.83299995E+02  0.37615E+05
 0.83349998E+02  0.40067E+05
 0.83399994E+02  0.41641E+05
 0.83449997E+02  0.41764E+05
 0.83499992E+02  0.39914E+05
 0.83549995E+02  0.36037E+05
 0.83599998E+02  0.32478E+05
 0.83649994E+02  0.31168E+05
 0.83699997E+02  0.31940E+05
 0.83749992E+02  0.32755E+05
 0.83799995E+02  0.32856E+05
 0.83849998E+02  0.33845E+05
 0.83899994E+02  0.34588E+05
 0.83949997E+02  0.34551E+05
 0.83999992E+02  0.35037E+05
 0.84049995E+02  0.33786E+05
 0.84099998E+02  0.30999E+05
 0.84149994E+02  0.28886E+05
 0.84199997E+02  0.27311E+05
 0.84249992E+02  0.26843E+05
 0.84299995E+02  0.26996E+05
 0.84349998E+02  0.27414E+05
 0.84399994E+02  0.26341E+05
 0.84449997E+02  0.22405E+05
 0.84499992E+02  0.18766E+05
 0.84549995E+02  0.17352E+05
 0.84599998E+02  0.15615E+05
 0.84649994E+02  0.12972E+05
 0.84699997E+02  0.10080E+05
 0.84749992E+02  0.78281E+04
 0.84799995E+02  0.82278E+04
 0.84849998E+02  0.13015E+05
 0.84899994E+02  0.20238E+05
 0.84949997E+02  0.23119E+05
 0.84999992E+02  0.22147E+05
 0.85049995E+02  0.20861E+05
 0.85099998E+02  0.19763E+05
 0.85149994E+02  0.20075E+05
 0.85199997E+02  0.20829E+05
 0.85249992E+02  0.21002E+05
 0.85299995E+02  0.21672E+05
 0.85349998E+02  0.22138E+05
 0.85399994E+02  0.21525E+05
 0.85449997E+02  0.21407E+05
 0.85499992E+02  0.21703E+05
 0.85549995E+02  0.21572E+05
 0.85599998E+02  0.19525E+05
 0.85649994E+02  0.15395E+05
 0.85699997E+02  0.12897E+05
 0.85749992E+02  0.11856E+05
 0.85799995E+02  0.10523E+05
 0.85849998E+02  0.89001E+04
 0.85899994E+02  0.91960E+04
 0.85949997E+02  0.11033E+05
 0.85999992E+02  0.12187E+05
 0.86049995E+02  0.13214E+05
 0.86099998E+02  0.12757E+05
 0.86149994E+02  0.12104E+05
 0.86199997E+02  0.11719E+05
 0.86249992E+02  0.11166E+05
 0.86299995E+02  0.12498E+05
 0.86349998E+02  0.15555E+05
 0.86399994E+02  0.19224E+05
 0.86449997E+02  0.22970E+05
 0.86499992E+02  0.27200E+05
 0.86549995E+02  0.30728E+05
 0.86599998E+02  0.32284E+05
 0.86649994E+02  0.32068E+05
 0.86699997E+02  0.30802E+05
 0.86749992E+02  0.27901E+05
 0.86799995E+02  0.24936E+05
 0.86849998E+02  0.24862E+05
 0.86899994E+02  0.25964E+05
 0.86949997E+02  0.28019E+05
 0.86999992E+02  0.30285E+05
 0.87049995E+02  0.32401E+05
 0.87099998E+02  0.34407E+05
 0.87149994E+02  0.35901E+05
 0.87199997E+02  0.37081E+05
 0.87249992E+02  0.36539E+05
 0.87299995E+02  0.34114E+05
 0.87349998E+02  0.32087E+05
 0.87399994E+02  0.30363E+05
 0.87449997E+02  0.26695E+05
 0.87499992E+02  0.22867E+05
 0.87549995E+02  0.20769E+05
 0.87599991E+02  0.19591E+05
 0.87649994E+02  0.18484E+05
 0.87699997E+02  0.19087E+05
 0.87749992E+02  0.20234E+05
 0.87799995E+02  0.20498E+05
 0.87849991E+02  0.19950E+05
 0.87899994E+02  0.19721E+05
 0.87949997E+02  0.20581E+05
 0.87999992E+02  0.20884E+05
 0.88049995E+02  0.22232E+05
 0.88099991E+02  0.23516E+05
 0.88149994E+02  0.24473E+05
 0.88199997E+02  0.26241E+05
 0.88249992E+02  0.27783E+05
 0.88299995E+02  0.29294E+05
 0.88349991E+02  0.31011E+05
 0.88399994E+02  0.32116E+05
 0.88449997E+02  0.31227E+05
 0.88499992E+02  0.29565E+05
 0.88549995E+02  0.29101E+05
 0.88599991E+02  0.29330E+05
 0.88649994E+02  0.30266E+05
 0.88699997E+02  0.31886E+05
 0.88749992E+02  0.32600E+05
 0.88799995E+02  0.31509E+05
 0.88849991E+02  0.29113E+05
 0.88899994E+02  0.26813E+05
 0.88949997E+02  0.26253E+05
 0.88999992E+02  0.26422E+05
 0.89049995E+02  0.26026E+05
 0.89099991E+02  0.25463E+05
 0.89149994E+02  0.25875E+05
 0.89199997E+02  0.26968E+05
 0.89249992E+02  0.27152E+05
 0.89299995E+02  0.28153E+05
 0.89349991E+02  0.29995E+05
 0.89399994E+02  0.31683E+05
 0.89449997E+02  0.33629E+05
 0.89499992E+02  0.34601E+05
 0.89549995E+02  0.33746E+05
 0.89599991E+02  0.32091E+05
 0.89649994E+02  0.30077E+05
 0.89699997E+02  0.27443E+05
 0.89749992E+02  0.24069E+05
 0.89799995E+02  0.21558E+05
 0.89849991E+02  0.21465E+05
 0.89899994E+02  0.23060E+05
 0.89949997E+02  0.24198E+05
 0.89999992E+02  0.23682E+05
 0.90049995E+02  0.21133E+05
 0.90099991E+02  0.17597E+05
 0.90149994E+02  0.14822E+05
 0.90199997E+02  0.13310E+05
 0.90249992E+02  0.12369E+05
 0.90299995E+02  0.11268E+05
 0.90349991E+02  0.11988E+05
 0.90399994E+02  0.14093E+05
 0.90449997E+02  0.16382E+05
 0.90499992E+02  0.18787E+05
 0.90549995E+02  0.20389E+05
 0.90599991E+02  0.19500E+05
 0.90649994E+02  0.17484E+05
 0.90699997E+02  0.16997E+05
 0.90749992E+02  0.18937E+05
 0.90799995E+02  0.21858E+05
 0.90849991E+02  0.24196E+05
 0.90899994E+02  0.27396E+05
 0.90949997E+02  0.29551E+05
 0.90999992E+02  0.28532E+05
 0.91049995E+02  0.27678E+05
 0.91099991E+02  0.27540E+05
 0.91149994E+02  0.25947E+05
 0.91199997E+02  0.24302E+05
 0.91249992E+02  0.24138E+05
 0.91299995E+02  0.25218E+05
 0.91349991E+02  0.25646E+05
 0.91399994E+02  0.25888E+05
 0.91449997E+02  0.26361E+05
 0.91499992E+02  0.25672E+05
 0.91549995E+02  0.24315E+05
 0.91599991E+02  0.23998E+05
 0.91649994E+02  0.23404E+05
 0.91699997E+02  0.22047E+05
 0.91749992E+02  0.21287E+05
 0.91799995E+02  0.21124E+05
 0.91849991E+02  0.20865E+05
 0.91899994E+02  0.20807E+05
 0.91949997E+02  0.21974E+05
 0.91999992E+02  0.21639E+05
 0.92049995E+02  0.20728E+05
 0.92099991E+02  0.21392E+05
 0.92149994E+02  0.23193E+05
 0.92199997E+02  0.25028E+05
 0.92249992E+02  0.27413E+05
 0.92299995E+02  0.29260E+05
 0.92349991E+02  0.28328E+05
 0.92399994E+02  0.26906E+05
 0.92449997E+02  0.24658E+05
 0.92499992E+02  0.22097E+05
 0.92549995E+02  0.21271E+05
 0.92599991E+02  0.22550E+05
 0.92649994E+02  0.24968E+05
 0.92699997E+02  0.28127E+05
 0.92749992E+02  0.30686E+05
 0.92799995E+02  0.30602E+05
 0.92849991E+02  0.29103E+05
 0.92899994E+02  0.27273E+05
 0.92949997E+02  0.24560E+05
 0.92999992E+02  0.21610E+05
 0.93049995E+02  0.20135E+05
 0.93099991E+02  0.19518E+05
 0.93149994E+02  0.20016E+05
 0.93199997E+02  0.21897E+05
 0.93249992E+02  0.25097E+05
 0.93299995E+02  0.28970E+05
 0.93349991E+02  0.31870E+05
 0.93399994E+02  0.32686E+05
 0.93449997E+02  0.31247E+05
 0.93499992E+02  0.28497E+05
 0.93549995E+02  0.24995E+05
 0.93599991E+02  0.22645E+05
 0.93649994E+02  0.21688E+05
 0.93699997E+02  0.21795E+05
 0.93749992E+02  0.23938E+05
 0.93799995E+02  0.27174E+05
 0.93849991E+02  0.30718E+05
 0.93899994E+02  0.34289E+05
 0.93949997E+02  0.36120E+05
 0.93999992E+02  0.36175E+05
 0.94049995E+02  0.35372E+05
 0.94099991E+02  0.32449E+05
 0.94149994E+02  0.27313E+05
 0.94199997E+02  0.22701E+05
 0.94249992E+02  0.21066E+05
 0.94299995E+02  0.22113E+05
 0.94349991E+02  0.24381E+05
 0.94399994E+02  0.27650E+05
 0.94449997E+02  0.30571E+05
 0.94499992E+02  0.31833E+05
 0.94549995E+02  0.31829E+05
 0.94599991E+02  0.29706E+05
 0.94649994E+02  0.26309E+05
 0.94699997E+02  0.23734E+05
 0.94749992E+02  0.23399E+05
 0.94799995E+02  0.24322E+05
 0.94849991E+02  0.24930E+05
 0.94899994E+02  0.25642E+05
 0.94949997E+02  0.25048E+05
 0.94999992E+02  0.23720E+05
 0.95049995E+02  0.24250E+05
 0.95099991E+02  0.25755E+05
 0.95149994E+02  0.25878E+05
 0.95199997E+02  0.24929E+05
 0.95249992E+02  0.23733E+05
 0.95299995E+02  0.21401E+05
 0.95349991E+02  0.18289E+05
 0.95399994E+02  0.15641E+05
 0.95449997E+02  0.12704E+05
 0.95499992E+02  0.97193E+04
 0.95549995E+02  0.77262E+04
 0.95599991E+02  0.69342E+04
 0.95649994E+02  0.76159E+04
 0.95699997E+02  0.89575E+04
 0.95749992E+02  0.10706E+05
 0.95799995E+02  0.11755E+05
 0.95849991E+02  0.11431E+05
 0.95899994E+02  0.11115E+05
 0.95949997E+02  0.11559E+05
 0.95999992E+02  0.12262E+05
 0.96049995E+02  0.13238E+05
 0.96099991E+02  0.15239E+05
 0.96149994E+02  0.17647E+05
 0.96199997E+02  0.20406E+05
 0.96249992E+02  0.24441E+05
 0.96299995E+02  0.28834E+05
 0.96349991E+02  0.32114E+05
 0.96399994E+02  0.34611E+05
 0.96449997E+02  0.36613E+05
 0.96499992E+02  0.37380E+05
 0.96549995E+02  0.37359E+05
 0.96599991E+02  0.37414E+05
 0.96649994E+02  0.36830E+05
 0.96699997E+02  0.35697E+05
 0.96749992E+02  0.34798E+05
 0.96799995E+02  0.34093E+05
 0.96849991E+02  0.34291E+05
 0.96899994E+02  0.34453E+05
 0.96949997E+02  0.34498E+05
 0.96999992E+02  0.34904E+05
 0.97049995E+02  0.34779E+05
 0.97099991E+02  0.34162E+05
 0.97149994E+02  0.33169E+05
 0.97199997E+02  0.31655E+05
 0.97249992E+02  0.29208E+05
 0.97299995E+02  0.26722E+05
 0.97349991E+02  0.24371E+05
 0.97399994E+02  0.21619E+05
 0.97449997E+02  0.18454E+05
 0.97499992E+02  0.14887E+05
 0.97549995E+02  0.12559E+05
 0.97599991E+02  0.11983E+05
 0.97649994E+02  0.11847E+05
 0.97699997E+02  0.11623E+05
 0.97749992E+02  0.11825E+05
 0.97799995E+02  0.14284E+05
 0.97849991E+02  0.18099E+05
 0.97899994E+02  0.21624E+05
 0.97949997E+02  0.24799E+05
 0.97999992E+02  0.26290E+05
