-0.20000000E+01 -0.18899E+05
-0.19500000E+01 -0.18791E+05
-0.19000000E+01 -0.18862E+05
-0.18500000E+01 -0.18860E+05
-0.18000000E+01 -0.18863E+05
-0.17500000E+01 -0.18871E+05
-0.17000000E+01 -0.18876E+05
-0.16500001E+01 -0.18881E+05
-0.16000000E+01 -0.18884E+05
-0.15500000E+01 -0.18889E+05
-0.15000000E+01 -0.18888E+05
-0.14500000E+01 -0.18885E+05
-0.14000001E+01 -0.18885E+05
-0.13500000E+01 -0.18883E+05
-0.13000001E+01 -0.18883E+05
-0.12500000E+01 -0.18887E+05
-0.12000000E+01 -0.18886E+05
-0.11500001E+01 -0.18882E+05
-0.11000000E+01 -0.18874E+05
-0.10500001E+01 -0.18864E+05
-0.10000000E+01 -0.18861E+05
-0.95000005E+00 -0.18864E+05
-0.90000010E+00 -0.18870E+05
-0.85000002E+00 -0.18878E+05
-0.80000007E+00 -0.18883E+05
-0.75000012E+00 -0.18882E+05
-0.70000005E+00 -0.18879E+05
-0.65000010E+00 -0.18879E+05
-0.60000014E+00 -0.18877E+05
-0.55000007E+00 -0.18877E+05
-0.50000012E+00 -0.18877E+05
-0.45000005E+00 -0.18872E+05
-0.40000010E+00 -0.18870E+05
-0.35000014E+00 -0.18863E+05
-0.30000007E+00 -0.18854E+05
-0.25000012E+00 -0.18851E+05
-0.20000005E+00 -0.18853E+05
-0.15000010E+00 -0.18858E+05
-0.10000014E+00 -0.18864E+05
-0.50000072E-01 -0.18870E+05
-0.11920929E-06 -0.18875E+05
 0.49999952E-01 -0.18877E+05
 0.99999905E-01 -0.18880E+05
 0.14999986E+00 -0.18882E+05
 0.19999981E+00 -0.18879E+05
 0.24999976E+00 -0.18878E+05
 0.29999995E+00 -0.18880E+05
 0.34999990E+00 -0.18885E+05
 0.39999986E+00 -0.18879E+05
 0.44999981E+00 -0.18872E+05
 0.49999976E+00 -0.18866E+05
 0.54999995E+00 -0.18859E+05
 0.59999990E+00 -0.18855E+05
 0.64999986E+00 -0.18855E+05
 0.69999981E+00 -0.18856E+05
 0.74999976E+00 -0.18862E+05
 0.79999971E+00 -0.18869E+05
 0.84999990E+00 -0.18874E+05
 0.89999986E+00 -0.18884E+05
 0.94999981E+00 -0.18893E+05
 0.99999976E+00 -0.18901E+05
 0.10499997E+01 -0.18906E+05
 0.10999999E+01 -0.18905E+05
 0.11499999E+01 -0.18909E+05
 0.11999998E+01 -0.18912E+05
 0.12499998E+01 -0.18908E+05
 0.12999997E+01 -0.18909E+05
 0.13499999E+01 -0.18907E+05
 0.13999999E+01 -0.18907E+05
 0.14499998E+01 -0.18904E+05
 0.14999998E+01 -0.18901E+05
 0.15499997E+01 -0.18902E+05
 0.15999999E+01 -0.18899E+05
 0.16499999E+01 -0.18895E+05
 0.16999998E+01 -0.18890E+05
 0.17499998E+01 -0.18879E+05
 0.17999997E+01 -0.18860E+05
 0.18499997E+01 -0.18847E+05
 0.18999999E+01 -0.18841E+05
 0.19499998E+01 -0.18841E+05
 0.19999998E+01 -0.18847E+05
 0.20499997E+01 -0.18855E+05
 0.20999999E+01 -0.18858E+05
 0.21499996E+01 -0.18859E+05
 0.21999998E+01 -0.18861E+05
 0.22499995E+01 -0.18860E+05
 0.22999997E+01 -0.18863E+05
 0.23499999E+01 -0.18865E+05
 0.23999996E+01 -0.18863E+05
 0.24499998E+01 -0.18862E+05
 0.24999995E+01 -0.18862E+05
 0.25499997E+01 -0.18864E+05
 0.25999999E+01 -0.18863E+05
 0.26499996E+01 -0.18860E+05
 0.26999998E+01 -0.18858E+05
 0.27499995E+01 -0.18860E+05
 0.27999997E+01 -0.18862E+05
 0.28499999E+01 -0.18866E+05
 0.28999996E+01 -0.18867E+05
 0.29499998E+01 -0.18866E+05
 0.29999995E+01 -0.18869E+05
 0.30499997E+01 -0.18869E+05
 0.30999999E+01 -0.18869E+05
 0.31499996E+01 -0.18872E+05
 0.31999998E+01 -0.18870E+05
 0.32499995E+01 -0.18873E+05
 0.32999997E+01 -0.18872E+05
 0.33499999E+01 -0.18866E+05
 0.33999996E+01 -0.18864E+05
 0.34499998E+01 -0.18862E+05
 0.34999995E+01 -0.18861E+05
 0.35499997E+01 -0.18869E+05
 0.35999994E+01 -0.18879E+05
 0.36499996E+01 -0.18886E+05
 0.36999998E+01 -0.18895E+05
 0.37499995E+01 -0.18907E+05
 0.37999997E+01 -0.18914E+05
 0.38499994E+01 -0.18919E+05
 0.38999996E+01 -0.18924E+05
 0.39499998E+01 -0.18923E+05
 0.39999995E+01 -0.18919E+05
 0.40499997E+01 -0.18909E+05
 0.40999994E+01 -0.18896E+05
 0.41499996E+01 -0.18887E+05
 0.41999998E+01 -0.18882E+05
 0.42499995E+01 -0.18877E+05
 0.42999997E+01 -0.18874E+05
 0.43499994E+01 -0.18868E+05
 0.43999996E+01 -0.18865E+05
 0.44499998E+01 -0.18869E+05
 0.44999995E+01 -0.18872E+05
 0.45499997E+01 -0.18870E+05
 0.45999994E+01 -0.18864E+05
 0.46499996E+01 -0.18857E+05
 0.46999998E+01 -0.18855E+05
 0.47499995E+01 -0.18856E+05
 0.47999997E+01 -0.18861E+05
 0.48499994E+01 -0.18866E+05
 0.48999996E+01 -0.18868E+05
 0.49499998E+01 -0.18862E+05
 0.49999995E+01 -0.18860E+05
 0.50499997E+01 -0.18862E+05
 0.50999994E+01 -0.18860E+05
 0.51499996E+01 -0.18864E+05
 0.51999998E+01 -0.18865E+05
 0.52499995E+01 -0.18865E+05
 0.52999997E+01 -0.18869E+05
 0.53499994E+01 -0.18873E+05
 0.53999996E+01 -0.18871E+05
 0.54499993E+01 -0.18871E+05
 0.54999995E+01 -0.18873E+05
 0.55499997E+01 -0.18875E+05
 0.55999994E+01 -0.18882E+05
 0.56499996E+01 -0.18891E+05
 0.56999993E+01 -0.18900E+05
 0.57499995E+01 -0.18904E+05
 0.57999997E+01 -0.18903E+05
 0.58499994E+01 -0.18893E+05
 0.58999996E+01 -0.18884E+05
 0.59499993E+01 -0.18880E+05
 0.59999995E+01 -0.18880E+05
 0.60499992E+01 -0.18885E+05
 0.60999994E+01 -0.18890E+05
 0.61499996E+01 -0.18892E+05
 0.61999998E+01 -0.18893E+05
 0.62499990E+01 -0.18897E+05
 0.62999992E+01 -0.18898E+05
 0.63499994E+01 -0.18895E+05
 0.63999996E+01 -0.18890E+05
 0.64499998E+01 -0.18882E+05
 0.64999990E+01 -0.18872E+05
 0.65499992E+01 -0.18865E+05
 0.65999994E+01 -0.18864E+05
 0.66499996E+01 -0.18866E+05
 0.66999998E+01 -0.18867E+05
 0.67499990E+01 -0.18866E+05
 0.67999992E+01 -0.18858E+05
 0.68499994E+01 -0.18850E+05
 0.68999996E+01 -0.18843E+05
 0.69499998E+01 -0.18838E+05
 0.69999990E+01 -0.18838E+05
 0.70499992E+01 -0.18834E+05
 0.70999994E+01 -0.18837E+05
 0.71499996E+01 -0.18844E+05
 0.71999998E+01 -0.18859E+05
 0.72499990E+01 -0.18874E+05
 0.72999992E+01 -0.18881E+05
 0.73499994E+01 -0.18882E+05
 0.73999996E+01 -0.18878E+05
 0.74499998E+01 -0.18875E+05
 0.74999990E+01 -0.18872E+05
 0.75499992E+01 -0.18873E+05
 0.75999994E+01 -0.18877E+05
 0.76499996E+01 -0.18877E+05
 0.76999998E+01 -0.18880E+05
 0.77499990E+01 -0.18882E+05
 0.77999992E+01 -0.18883E+05
 0.78499994E+01 -0.18884E+05
 0.78999996E+01 -0.18881E+05
 0.79499998E+01 -0.18876E+05
 0.79999990E+01 -0.18872E+05
 0.80499992E+01 -0.18870E+05
 0.80999994E+01 -0.18870E+05
 0.81499996E+01 -0.18871E+05
 0.81999998E+01 -0.18867E+05
 0.82499990E+01 -0.18866E+05
 0.82999992E+01 -0.18863E+05
 0.83499994E+01 -0.18859E+05
 0.83999996E+01 -0.18856E+05
 0.84499998E+01 -0.18857E+05
 0.84999990E+01 -0.18864E+05
 0.85499992E+01 -0.18870E+05
 0.85999994E+01 -0.18870E+05
 0.86499996E+01 -0.18870E+05
 0.86999998E+01 -0.18869E+05
 0.87499990E+01 -0.18867E+05
 0.87999992E+01 -0.18867E+05
 0.88499994E+01 -0.18865E+05
 0.88999996E+01 -0.18867E+05
 0.89499998E+01 -0.18872E+05
 0.89999990E+01 -0.18876E+05
 0.90499992E+01 -0.18881E+05
 0.90999994E+01 -0.18881E+05
 0.91499996E+01 -0.18882E+05
 0.91999989E+01 -0.18877E+05
 0.92499990E+01 -0.18871E+05
 0.92999992E+01 -0.18869E+05
 0.93499994E+01 -0.18869E+05
 0.93999996E+01 -0.18871E+05
 0.94499989E+01 -0.18876E+05
 0.94999990E+01 -0.18878E+05
 0.95499992E+01 -0.18884E+05
 0.95999994E+01 -0.18890E+05
 0.96499996E+01 -0.18888E+05
 0.96999989E+01 -0.18887E+05
 0.97499990E+01 -0.18887E+05
 0.97999992E+01 -0.18880E+05
 0.98499994E+01 -0.18878E+05
 0.98999996E+01 -0.18878E+05
 0.99499989E+01 -0.18879E+05
 0.99999990E+01 -0.18885E+05
 0.10049999E+02 -0.18888E+05
 0.10099999E+02 -0.18895E+05
 0.10150000E+02 -0.18898E+05
 0.10199999E+02 -0.18898E+05
 0.10249999E+02 -0.18893E+05
 0.10299999E+02 -0.18890E+05
 0.10349999E+02 -0.18886E+05
 0.10400000E+02 -0.18885E+05
 0.10449999E+02 -0.18888E+05
 0.10499999E+02 -0.18888E+05
 0.10549999E+02 -0.18893E+05
 0.10599999E+02 -0.18890E+05
 0.10650000E+02 -0.18884E+05
 0.10699999E+02 -0.18875E+05
 0.10749999E+02 -0.18867E+05
 0.10799999E+02 -0.18865E+05
 0.10849999E+02 -0.18862E+05
 0.10900000E+02 -0.18868E+05
 0.10949999E+02 -0.18867E+05
 0.10999999E+02 -0.18862E+05
 0.11049999E+02 -0.18856E+05
 0.11099999E+02 -0.18852E+05
 0.11150000E+02 -0.18853E+05
 0.11199999E+02 -0.18859E+05
 0.11249999E+02 -0.18867E+05
 0.11299999E+02 -0.18876E+05
 0.11349999E+02 -0.18883E+05
 0.11400000E+02 -0.18886E+05
 0.11449999E+02 -0.18886E+05
 0.11499999E+02 -0.18883E+05
 0.11549999E+02 -0.18878E+05
 0.11599999E+02 -0.18874E+05
 0.11650000E+02 -0.18873E+05
 0.11699999E+02 -0.18872E+05
 0.11749999E+02 -0.18869E+05
 0.11799999E+02 -0.18865E+05
 0.11849999E+02 -0.18858E+05
 0.11900000E+02 -0.18852E+05
 0.11949999E+02 -0.18849E+05
 0.11999999E+02 -0.18850E+05
 0.12049999E+02 -0.18848E+05
 0.12099999E+02 -0.18844E+05
 0.12150000E+02 -0.18848E+05
 0.12199999E+02 -0.18855E+05
 0.12249999E+02 -0.18862E+05
 0.12299999E+02 -0.18868E+05
 0.12349999E+02 -0.18870E+05
 0.12400000E+02 -0.18871E+05
 0.12449999E+02 -0.18873E+05
 0.12499999E+02 -0.18870E+05
 0.12549999E+02 -0.18863E+05
 0.12599999E+02 -0.18859E+05
 0.12649999E+02 -0.18861E+05
 0.12699999E+02 -0.18867E+05
 0.12749999E+02 -0.18873E+05
 0.12799999E+02 -0.18875E+05
 0.12849999E+02 -0.18876E+05
 0.12899999E+02 -0.18874E+05
 0.12949999E+02 -0.18877E+05
 0.12999999E+02 -0.18887E+05
 0.13049999E+02 -0.18896E+05
 0.13099999E+02 -0.18900E+05
 0.13149999E+02 -0.18904E+05
 0.13199999E+02 -0.18903E+05
 0.13249999E+02 -0.18905E+05
 0.13299999E+02 -0.18901E+05
 0.13349999E+02 -0.18907E+05
 0.13399999E+02 -0.18898E+05
 0.13449999E+02 -0.18906E+05
 0.13499999E+02 -0.18888E+05
 0.13549999E+02 -0.18884E+05
 0.13599999E+02 -0.18880E+05
 0.13649999E+02 -0.18897E+05
 0.13699999E+02 -0.18889E+05
 0.13749999E+02 -0.18999E+05
 0.13799999E+02 -0.19398E+05
 0.13849999E+02 -0.19691E+05
 0.13899999E+02 -0.19567E+05
 0.13949999E+02 -0.19201E+05
 0.13999999E+02 -0.18610E+05
 0.14049999E+02 -0.17880E+05
 0.14099998E+02 -0.18324E+05
 0.14150000E+02 -0.18501E+05
 0.14199999E+02 -0.18640E+05
 0.14249998E+02 -0.19181E+05
 0.14299999E+02 -0.19676E+05
 0.14349998E+02 -0.19668E+05
 0.14400000E+02 -0.19572E+05
 0.14449999E+02 -0.19764E+05
 0.14499998E+02 -0.20191E+05
 0.14549999E+02 -0.21481E+05
 0.14599998E+02 -0.20877E+05
 0.14650000E+02 -0.18908E+05
 0.14699999E+02 -0.17959E+05
 0.14749998E+02 -0.19149E+05
 0.14799999E+02 -0.15960E+05
 0.14849998E+02 -0.14384E+05
 0.14900000E+02 -0.15829E+05
 0.14949999E+02 -0.16619E+05
 0.14999998E+02 -0.19050E+05
 0.15049999E+02 -0.20018E+05
 0.15099998E+02 -0.19158E+05
 0.15150000E+02 -0.18831E+05
 0.15199999E+02 -0.19940E+05
 0.15249998E+02 -0.17382E+05
 0.15299999E+02 -0.18055E+05
 0.15349998E+02 -0.16975E+05
 0.15400000E+02 -0.19335E+05
 0.15449999E+02 -0.20329E+05
 0.15499998E+02 -0.18174E+05
 0.15549999E+02 -0.19421E+05
 0.15599998E+02 -0.20131E+05
 0.15650000E+02 -0.20749E+05
 0.15699999E+02 -0.22312E+05
 0.15749998E+02 -0.20920E+05
 0.15799999E+02 -0.16641E+05
 0.15849998E+02 -0.21336E+05
 0.15900000E+02 -0.17026E+05
 0.15949999E+02 -0.15662E+05
 0.15999998E+02 -0.18780E+05
 0.16049999E+02 -0.15929E+05
 0.16099998E+02 -0.18440E+05
 0.16150000E+02 -0.20304E+05
 0.16199999E+02 -0.19063E+05
 0.16249998E+02 -0.16472E+05
 0.16299999E+02 -0.22819E+05
 0.16349998E+02 -0.19664E+05
 0.16400000E+02 -0.16648E+05
 0.16449999E+02 -0.24394E+05
 0.16499998E+02 -0.18259E+05
 0.16549999E+02 -0.19312E+05
 0.16599998E+02 -0.20468E+05
 0.16650000E+02 -0.18411E+05
 0.16699999E+02 -0.15370E+05
 0.16749998E+02 -0.17236E+05
 0.16799999E+02 -0.17711E+05
 0.16849998E+02 -0.19967E+05
 0.16900000E+02 -0.22119E+05
 0.16949999E+02 -0.16677E+05
 0.16999998E+02 -0.21617E+05
 0.17049999E+02 -0.17888E+05
 0.17099998E+02 -0.19065E+05
 0.17150000E+02 -0.18538E+05
 0.17199999E+02 -0.16278E+05
 0.17249998E+02 -0.18301E+05
 0.17299999E+02 -0.14589E+05
 0.17349998E+02 -0.16765E+05
 0.17400000E+02 -0.18199E+05
 0.17449999E+02 -0.15504E+05
 0.17499998E+02 -0.15154E+05
 0.17549999E+02 -0.21990E+05
 0.17599998E+02 -0.19435E+05
 0.17650000E+02 -0.18475E+05
 0.17699999E+02 -0.23895E+05
 0.17749998E+02 -0.22421E+05
 0.17799999E+02 -0.24459E+05
 0.17849998E+02 -0.20907E+05
 0.17900000E+02 -0.18921E+05
 0.17949999E+02 -0.16790E+05
 0.17999998E+02 -0.18233E+05
 0.18049999E+02 -0.12157E+05
 0.18099998E+02 -0.15975E+05
 0.18150000E+02 -0.17779E+05
 0.18199999E+02 -0.19972E+05
 0.18249998E+02 -0.25321E+05
 0.18299999E+02 -0.18054E+05
 0.18349998E+02 -0.23712E+05
 0.18400000E+02 -0.20444E+05
 0.18449999E+02 -0.21678E+05
 0.18499998E+02 -0.13968E+05
 0.18549999E+02 -0.22140E+05
 0.18599998E+02 -0.20342E+05
 0.18650000E+02 -0.13548E+05
 0.18699999E+02 -0.20777E+05
 0.18749998E+02 -0.14570E+05
 0.18799999E+02 -0.15317E+05
 0.18849998E+02 -0.17327E+05
 0.18900000E+02 -0.22991E+05
 0.18949999E+02 -0.15408E+05
 0.18999998E+02 -0.23631E+05
 0.19049999E+02 -0.21252E+05
 0.19099998E+02 -0.17835E+05
 0.19150000E+02 -0.20696E+05
 0.19199999E+02 -0.17213E+05
 0.19249998E+02 -0.20607E+05
 0.19299999E+02 -0.16172E+05
 0.19349998E+02 -0.18802E+05
 0.19400000E+02 -0.13986E+05
 0.19449999E+02 -0.17693E+05
 0.19499998E+02 -0.23585E+05
 0.19549999E+02 -0.21894E+05
 0.19599998E+02 -0.20287E+05
 0.19650000E+02 -0.20963E+05
 0.19699999E+02 -0.19267E+05
 0.19749998E+02 -0.13989E+05
 0.19799999E+02 -0.20626E+05
 0.19849998E+02 -0.14926E+05
 0.19900000E+02 -0.14450E+05
 0.19949999E+02 -0.19404E+05
 0.19999998E+02 -0.15977E+05
 0.20049999E+02 -0.22108E+05
 0.20099998E+02 -0.23219E+05
 0.20150000E+02 -0.23093E+05
 0.20199999E+02 -0.21103E+05
 0.20249998E+02 -0.19759E+05
 0.20299999E+02 -0.15998E+05
 0.20349998E+02 -0.19383E+05
 0.20399998E+02 -0.18261E+05
 0.20449999E+02 -0.16945E+05
 0.20499998E+02 -0.16261E+05
 0.20549999E+02 -0.18658E+05
 0.20599998E+02 -0.21808E+05
 0.20649998E+02 -0.18969E+05
 0.20699999E+02 -0.22220E+05
 0.20749998E+02 -0.17036E+05
 0.20799999E+02 -0.16900E+05
 0.20849998E+02 -0.10765E+05
 0.20899998E+02 -0.14700E+05
 0.20949999E+02 -0.16460E+05
 0.20999998E+02 -0.20403E+05
 0.21049999E+02 -0.21281E+05
 0.21099998E+02 -0.17886E+05
 0.21149998E+02 -0.22034E+05
 0.21199999E+02 -0.21817E+05
 0.21249998E+02 -0.22713E+05
 0.21299999E+02 -0.16525E+05
 0.21349998E+02 -0.18493E+05
 0.21399998E+02 -0.20400E+05
 0.21449999E+02 -0.19110E+05
 0.21499998E+02 -0.18005E+05
 0.21549999E+02 -0.19772E+05
 0.21599998E+02 -0.19270E+05
 0.21649998E+02 -0.16256E+05
 0.21699999E+02 -0.14173E+05
 0.21749998E+02 -0.15223E+05
 0.21799999E+02 -0.20032E+05
 0.21849998E+02 -0.20913E+05
 0.21899998E+02 -0.18542E+05
 0.21949999E+02 -0.16081E+05
 0.21999998E+02 -0.20610E+05
 0.22049999E+02 -0.22203E+05
 0.22099998E+02 -0.20201E+05
 0.22149998E+02 -0.18836E+05
 0.22199999E+02 -0.22201E+05
 0.22249998E+02 -0.20719E+05
 0.22299999E+02 -0.18881E+05
 0.22349998E+02 -0.21786E+05
 0.22399998E+02 -0.15707E+05
 0.22449999E+02 -0.18216E+05
 0.22499998E+02 -0.21265E+05
 0.22549999E+02 -0.18730E+05
 0.22599998E+02 -0.17637E+05
 0.22649998E+02 -0.17865E+05
 0.22699999E+02 -0.22866E+05
 0.22749998E+02 -0.20533E+05
 0.22799999E+02 -0.16255E+05
 0.22849998E+02 -0.15816E+05
 0.22899998E+02 -0.17121E+05
 0.22949999E+02 -0.20221E+05
 0.22999998E+02 -0.14987E+05
 0.23049999E+02 -0.16588E+05
 0.23099998E+02 -0.20652E+05
 0.23149998E+02 -0.21880E+05
 0.23199999E+02 -0.22076E+05
 0.23249998E+02 -0.20659E+05
 0.23299999E+02 -0.23427E+05
 0.23349998E+02 -0.20606E+05
 0.23399998E+02 -0.19737E+05
 0.23449999E+02 -0.17539E+05
 0.23499998E+02 -0.14856E+05
 0.23549999E+02 -0.14073E+05
 0.23599998E+02 -0.19921E+05
 0.23649998E+02 -0.24885E+05
 0.23699999E+02 -0.20267E+05
 0.23749998E+02 -0.24006E+05
 0.23799999E+02 -0.25890E+05
 0.23849998E+02 -0.17072E+05
 0.23899998E+02 -0.12408E+05
 0.23949999E+02 -0.16919E+05
 0.23999998E+02 -0.19583E+05
 0.24049999E+02 -0.21796E+05
 0.24099998E+02 -0.20703E+05
 0.24149998E+02 -0.19542E+05
 0.24199999E+02 -0.25082E+05
 0.24249998E+02 -0.20736E+05
 0.24299999E+02 -0.15835E+05
 0.24349998E+02 -0.13708E+05
 0.24399998E+02 -0.11513E+05
 0.24449999E+02 -0.13741E+05
 0.24499998E+02 -0.15809E+05
 0.24549999E+02 -0.21547E+05
 0.24599998E+02 -0.19810E+05
 0.24649998E+02 -0.16412E+05
 0.24699999E+02 -0.19915E+05
 0.24749998E+02 -0.21727E+05
 0.24799999E+02 -0.19798E+05
 0.24849998E+02 -0.15020E+05
 0.24899998E+02 -0.16368E+05
 0.24949999E+02 -0.18899E+05
 0.24999998E+02 -0.21649E+05
 0.25049999E+02 -0.22756E+05
 0.25099998E+02 -0.19300E+05
 0.25149998E+02 -0.21780E+05
 0.25199999E+02 -0.16865E+05
 0.25249998E+02 -0.15825E+05
 0.25299999E+02 -0.15916E+05
 0.25349998E+02 -0.15090E+05
 0.25399998E+02 -0.18453E+05
 0.25449999E+02 -0.18855E+05
 0.25499998E+02 -0.19080E+05
 0.25549999E+02 -0.18131E+05
 0.25599998E+02 -0.23544E+05
 0.25649998E+02 -0.21158E+05
 0.25699999E+02 -0.17437E+05
 0.25749998E+02 -0.21966E+05
 0.25799999E+02 -0.20654E+05
 0.25849998E+02 -0.15173E+05
 0.25899998E+02 -0.15543E+05
 0.25949999E+02 -0.14726E+05
 0.25999998E+02 -0.16352E+05
 0.26049999E+02 -0.19192E+05
 0.26099998E+02 -0.20057E+05
 0.26149998E+02 -0.22208E+05
 0.26199999E+02 -0.24021E+05
 0.26249998E+02 -0.22825E+05
 0.26299999E+02 -0.21648E+05
 0.26349998E+02 -0.18762E+05
 0.26399998E+02 -0.14901E+05
 0.26449999E+02 -0.19632E+05
 0.26499998E+02 -0.22400E+05
 0.26549999E+02 -0.26347E+05
 0.26599998E+02 -0.22807E+05
 0.26649998E+02 -0.18690E+05
 0.26699999E+02 -0.19363E+05
 0.26749998E+02 -0.15126E+05
 0.26799999E+02 -0.95652E+04
 0.26849998E+02 -0.73343E+04
 0.26899998E+02 -0.11598E+05
 0.26949999E+02 -0.13541E+05
 0.26999998E+02 -0.17398E+05
 0.27049997E+02 -0.21707E+05
 0.27099998E+02 -0.23598E+05
 0.27149998E+02 -0.18995E+05
 0.27199999E+02 -0.16496E+05
 0.27249998E+02 -0.18060E+05
 0.27299997E+02 -0.19119E+05
 0.27349998E+02 -0.24225E+05
 0.27399998E+02 -0.25566E+05
 0.27449999E+02 -0.25999E+05
 0.27499998E+02 -0.20880E+05
 0.27549997E+02 -0.15727E+05
 0.27599998E+02 -0.13800E+05
 0.27649998E+02 -0.74398E+04
 0.27699999E+02 -0.75888E+04
 0.27749998E+02 -0.15094E+05
 0.27799997E+02 -0.19682E+05
 0.27849998E+02 -0.22632E+05
 0.27899998E+02 -0.25910E+05
 0.27949999E+02 -0.20842E+05
 0.27999998E+02 -0.17344E+05
 0.28049997E+02 -0.17827E+05
 0.28099998E+02 -0.16114E+05
 0.28149998E+02 -0.15308E+05
 0.28199999E+02 -0.17268E+05
 0.28249998E+02 -0.22118E+05
 0.28299997E+02 -0.22829E+05
 0.28349998E+02 -0.21465E+05
 0.28399998E+02 -0.18536E+05
 0.28449999E+02 -0.13661E+05
 0.28499998E+02 -0.13881E+05
 0.28549997E+02 -0.23033E+05
 0.28599998E+02 -0.31234E+05
 0.28649998E+02 -0.29389E+05
 0.28699999E+02 -0.24361E+05
 0.28749998E+02 -0.18902E+05
 0.28799997E+02 -0.14500E+05
 0.28849998E+02 -0.12062E+05
 0.28899998E+02 -0.15074E+05
 0.28949999E+02 -0.21805E+05
 0.28999998E+02 -0.22221E+05
 0.29049997E+02 -0.24844E+05
 0.29099998E+02 -0.26792E+05
 0.29149998E+02 -0.21754E+05
 0.29199999E+02 -0.15362E+05
 0.29249998E+02 -0.90303E+04
 0.29299997E+02 -0.81753E+04
 0.29349998E+02 -0.10941E+05
 0.29399998E+02 -0.16188E+05
 0.29449999E+02 -0.19895E+05
 0.29499998E+02 -0.21465E+05
 0.29549997E+02 -0.21870E+05
 0.29599998E+02 -0.25145E+05
 0.29649998E+02 -0.23625E+05
 0.29699999E+02 -0.16916E+05
 0.29749998E+02 -0.15757E+05
 0.29799997E+02 -0.13060E+05
 0.29849998E+02 -0.14985E+05
 0.29899998E+02 -0.17968E+05
 0.29949999E+02 -0.23049E+05
 0.29999998E+02 -0.24312E+05
 0.30049999E+02 -0.25509E+05
 0.30099998E+02 -0.23175E+05
 0.30149998E+02 -0.17290E+05
 0.30199997E+02 -0.17205E+05
 0.30249996E+02 -0.13006E+05
 0.30299999E+02 -0.10844E+05
 0.30349998E+02 -0.15368E+05
 0.30399998E+02 -0.21686E+05
 0.30449997E+02 -0.23570E+05
 0.30499996E+02 -0.23504E+05
 0.30549999E+02 -0.22979E+05
 0.30599998E+02 -0.20959E+05
 0.30649998E+02 -0.15324E+05
 0.30699997E+02 -0.11570E+05
 0.30749996E+02 -0.13996E+05
 0.30799999E+02 -0.17882E+05
 0.30849998E+02 -0.19784E+05
 0.30899998E+02 -0.21457E+05
 0.30949997E+02 -0.24447E+05
 0.30999996E+02 -0.22127E+05
 0.31049999E+02 -0.20430E+05
 0.31099998E+02 -0.21344E+05
 0.31149998E+02 -0.18720E+05
 0.31199997E+02 -0.21088E+05
 0.31249996E+02 -0.19918E+05
 0.31299999E+02 -0.17447E+05
 0.31349998E+02 -0.21809E+05
 0.31399998E+02 -0.23338E+05
 0.31449997E+02 -0.18009E+05
 0.31499996E+02 -0.17299E+05
 0.31549999E+02 -0.18550E+05
 0.31599998E+02 -0.19024E+05
 0.31649998E+02 -0.19891E+05
 0.31699997E+02 -0.19740E+05
 0.31749996E+02 -0.19121E+05
 0.31799999E+02 -0.17153E+05
 0.31849998E+02 -0.17408E+05
 0.31899998E+02 -0.19588E+05
 0.31949997E+02 -0.22006E+05
 0.31999996E+02 -0.19214E+05
 0.32049999E+02 -0.19076E+05
 0.32099998E+02 -0.19163E+05
 0.32149998E+02 -0.19464E+05
 0.32199997E+02 -0.17890E+05
 0.32249996E+02 -0.15006E+05
 0.32299999E+02 -0.16651E+05
 0.32349998E+02 -0.17424E+05
 0.32399998E+02 -0.18842E+05
 0.32449997E+02 -0.19508E+05
 0.32499996E+02 -0.20197E+05
 0.32549999E+02 -0.18190E+05
 0.32599998E+02 -0.13931E+05
 0.32649998E+02 -0.14249E+05
 0.32699997E+02 -0.18168E+05
 0.32749996E+02 -0.22286E+05
 0.32799999E+02 -0.22101E+05
 0.32849998E+02 -0.23619E+05
 0.32899998E+02 -0.25229E+05
 0.32949997E+02 -0.23119E+05
 0.32999996E+02 -0.19176E+05
 0.33049999E+02 -0.14017E+05
 0.33099998E+02 -0.11578E+05
 0.33149998E+02 -0.11860E+05
 0.33199997E+02 -0.16643E+05
 0.33249996E+02 -0.22564E+05
 0.33299999E+02 -0.21400E+05
 0.33349998E+02 -0.20111E+05
 0.33399998E+02 -0.20094E+05
 0.33449997E+02 -0.19430E+05
 0.33499996E+02 -0.19393E+05
 0.33549999E+02 -0.16212E+05
 0.33599998E+02 -0.16256E+05
 0.33649998E+02 -0.17636E+05
 0.33699997E+02 -0.19581E+05
 0.33749996E+02 -0.21454E+05
 0.33799999E+02 -0.21514E+05
 0.33849998E+02 -0.20581E+05
 0.33899998E+02 -0.16929E+05
 0.33949997E+02 -0.16623E+05
 0.33999996E+02 -0.19497E+05
 0.34049999E+02 -0.19270E+05
 0.34099998E+02 -0.18667E+05
 0.34149998E+02 -0.20024E+05
 0.34199997E+02 -0.17736E+05
 0.34249996E+02 -0.17639E+05
 0.34299999E+02 -0.20077E+05
 0.34349998E+02 -0.18248E+05
 0.34399998E+02 -0.18713E+05
 0.34449997E+02 -0.17921E+05
 0.34499996E+02 -0.17110E+05
 0.34549999E+02 -0.18624E+05
 0.34599998E+02 -0.21466E+05
 0.34649998E+02 -0.24766E+05
 0.34699997E+02 -0.24286E+05
 0.34749996E+02 -0.19723E+05
 0.34799999E+02 -0.16162E+05
 0.34849998E+02 -0.15250E+05
 0.34899998E+02 -0.13515E+05
 0.34949997E+02 -0.15571E+05
 0.34999996E+02 -0.18626E+05
 0.35049999E+02 -0.19249E+05
 0.35099998E+02 -0.18956E+05
 0.35149998E+02 -0.18989E+05
 0.35199997E+02 -0.19486E+05
 0.35249996E+02 -0.19555E+05
 0.35299999E+02 -0.20319E+05
 0.35349998E+02 -0.18693E+05
 0.35399998E+02 -0.17403E+05
 0.35449997E+02 -0.16658E+05
 0.35499996E+02 -0.17668E+05
 0.35549999E+02 -0.20231E+05
 0.35599998E+02 -0.18347E+05
 0.35649998E+02 -0.18421E+05
 0.35699997E+02 -0.18191E+05
 0.35749996E+02 -0.17366E+05
 0.35799999E+02 -0.15943E+05
 0.35849998E+02 -0.15672E+05
 0.35899998E+02 -0.17598E+05
 0.35949997E+02 -0.20276E+05
 0.35999996E+02 -0.20620E+05
 0.36049999E+02 -0.18388E+05
 0.36099998E+02 -0.16642E+05
 0.36149998E+02 -0.16385E+05
 0.36199997E+02 -0.17402E+05
 0.36249996E+02 -0.16876E+05
 0.36299999E+02 -0.19479E+05
 0.36349998E+02 -0.21649E+05
 0.36399998E+02 -0.23045E+05
 0.36449997E+02 -0.22738E+05
 0.36499996E+02 -0.22668E+05
 0.36549999E+02 -0.22427E+05
 0.36599998E+02 -0.21967E+05
 0.36649998E+02 -0.22104E+05
 0.36699997E+02 -0.17834E+05
 0.36749996E+02 -0.15232E+05
 0.36799999E+02 -0.15531E+05
 0.36849998E+02 -0.16533E+05
 0.36899998E+02 -0.20373E+05
 0.36949997E+02 -0.23924E+05
 0.36999996E+02 -0.23185E+05
 0.37049999E+02 -0.18413E+05
 0.37099998E+02 -0.16772E+05
 0.37149998E+02 -0.16223E+05
 0.37199997E+02 -0.17713E+05
 0.37249996E+02 -0.19203E+05
 0.37299999E+02 -0.18886E+05
 0.37349998E+02 -0.20422E+05
 0.37399998E+02 -0.20802E+05
 0.37449997E+02 -0.20822E+05
 0.37499996E+02 -0.20775E+05
 0.37549999E+02 -0.20926E+05
 0.37599998E+02 -0.20323E+05
 0.37649998E+02 -0.19739E+05
 0.37699997E+02 -0.18493E+05
 0.37749996E+02 -0.17765E+05
 0.37799999E+02 -0.16494E+05
 0.37849998E+02 -0.16848E+05
 0.37899998E+02 -0.17777E+05
 0.37949997E+02 -0.17194E+05
 0.37999996E+02 -0.15139E+05
 0.38049999E+02 -0.14544E+05
 0.38099998E+02 -0.16686E+05
 0.38149998E+02 -0.18459E+05
 0.38199997E+02 -0.19731E+05
 0.38249996E+02 -0.20743E+05
 0.38299999E+02 -0.19912E+05
 0.38349998E+02 -0.19994E+05
 0.38399998E+02 -0.19968E+05
 0.38449997E+02 -0.18898E+05
 0.38499996E+02 -0.18715E+05
 0.38549999E+02 -0.18217E+05
 0.38599998E+02 -0.19984E+05
 0.38649998E+02 -0.19545E+05
 0.38699997E+02 -0.18672E+05
 0.38749996E+02 -0.18626E+05
 0.38799999E+02 -0.19434E+05
 0.38849998E+02 -0.19414E+05
 0.38899998E+02 -0.17598E+05
 0.38949997E+02 -0.17813E+05
 0.38999996E+02 -0.17135E+05
 0.39049999E+02 -0.16418E+05
 0.39099998E+02 -0.17945E+05
 0.39149998E+02 -0.18345E+05
 0.39199997E+02 -0.18604E+05
 0.39249996E+02 -0.19742E+05
 0.39299999E+02 -0.20664E+05
 0.39349998E+02 -0.19714E+05
 0.39399998E+02 -0.17432E+05
 0.39449997E+02 -0.17719E+05
 0.39499996E+02 -0.19180E+05
 0.39549999E+02 -0.19871E+05
 0.39599998E+02 -0.21197E+05
 0.39649998E+02 -0.21018E+05
 0.39699997E+02 -0.18599E+05
 0.39749996E+02 -0.18402E+05
 0.39799999E+02 -0.18403E+05
 0.39849998E+02 -0.18002E+05
 0.39899998E+02 -0.17670E+05
 0.39949997E+02 -0.17547E+05
 0.39999996E+02 -0.17694E+05
 0.40049999E+02 -0.18357E+05
 0.40099998E+02 -0.19584E+05
 0.40149998E+02 -0.19117E+05
 0.40199997E+02 -0.19113E+05
 0.40249996E+02 -0.18524E+05
 0.40299999E+02 -0.19049E+05
 0.40349998E+02 -0.19489E+05
 0.40399998E+02 -0.18160E+05
 0.40449997E+02 -0.18921E+05
 0.40499996E+02 -0.20231E+05
 0.40549999E+02 -0.20054E+05
 0.40599998E+02 -0.18968E+05
 0.40649998E+02 -0.19544E+05
 0.40699997E+02 -0.18618E+05
 0.40749996E+02 -0.17482E+05
 0.40799999E+02 -0.18554E+05
 0.40849998E+02 -0.19133E+05
 0.40899998E+02 -0.20316E+05
 0.40949997E+02 -0.20346E+05
 0.40999996E+02 -0.19504E+05
 0.41049999E+02 -0.19481E+05
 0.41099998E+02 -0.18090E+05
 0.41149998E+02 -0.17060E+05
 0.41199997E+02 -0.19943E+05
 0.41249996E+02 -0.21295E+05
 0.41299999E+02 -0.20318E+05
 0.41349998E+02 -0.20384E+05
 0.41399998E+02 -0.18389E+05
 0.41449997E+02 -0.17170E+05
 0.41499996E+02 -0.16800E+05
 0.41549999E+02 -0.15784E+05
 0.41599998E+02 -0.15563E+05
 0.41649998E+02 -0.16221E+05
 0.41699997E+02 -0.19243E+05
 0.41749996E+02 -0.20456E+05
 0.41799999E+02 -0.21307E+05
 0.41849998E+02 -0.22585E+05
 0.41899998E+02 -0.20842E+05
 0.41949997E+02 -0.18948E+05
 0.41999996E+02 -0.18032E+05
 0.42049999E+02 -0.17545E+05
 0.42099998E+02 -0.17662E+05
 0.42149998E+02 -0.18680E+05
 0.42199997E+02 -0.19070E+05
 0.42249996E+02 -0.18966E+05
 0.42299999E+02 -0.19489E+05
 0.42349998E+02 -0.20649E+05
 0.42399998E+02 -0.20389E+05
 0.42449997E+02 -0.18586E+05
 0.42499996E+02 -0.17583E+05
 0.42549999E+02 -0.18776E+05
 0.42599998E+02 -0.20277E+05
 0.42649998E+02 -0.20154E+05
 0.42699997E+02 -0.20219E+05
 0.42749996E+02 -0.20639E+05
 0.42799995E+02 -0.20631E+05
 0.42849998E+02 -0.20194E+05
 0.42899998E+02 -0.18985E+05
 0.42949997E+02 -0.17050E+05
 0.42999996E+02 -0.16258E+05
 0.43049995E+02 -0.15554E+05
 0.43099998E+02 -0.16557E+05
 0.43149998E+02 -0.18443E+05
 0.43199997E+02 -0.19131E+05
 0.43249996E+02 -0.19641E+05
 0.43299995E+02 -0.19463E+05
 0.43349998E+02 -0.19028E+05
 0.43399998E+02 -0.19185E+05
 0.43449997E+02 -0.20215E+05
 0.43499996E+02 -0.19325E+05
 0.43549995E+02 -0.18323E+05
 0.43599998E+02 -0.17783E+05
 0.43649998E+02 -0.16885E+05
 0.43699997E+02 -0.16683E+05
 0.43749996E+02 -0.17537E+05
 0.43799995E+02 -0.18556E+05
 0.43849998E+02 -0.18218E+05
 0.43899998E+02 -0.17929E+05
 0.43949997E+02 -0.18113E+05
 0.43999996E+02 -0.18333E+05
 0.44049995E+02 -0.19501E+05
 0.44099998E+02 -0.21039E+05
 0.44149998E+02 -0.21046E+05
 0.44199997E+02 -0.20143E+05
 0.44249996E+02 -0.19284E+05
 0.44299995E+02 -0.19453E+05
 0.44349998E+02 -0.18785E+05
 0.44399998E+02 -0.17250E+05
 0.44449997E+02 -0.17197E+05
 0.44499996E+02 -0.17332E+05
 0.44549995E+02 -0.18057E+05
 0.44599998E+02 -0.17701E+05
 0.44649998E+02 -0.19006E+05
 0.44699997E+02 -0.19608E+05
 0.44749996E+02 -0.19564E+05
 0.44799995E+02 -0.19303E+05
 0.44849998E+02 -0.19221E+05
 0.44899998E+02 -0.20916E+05
 0.44949997E+02 -0.21051E+05
 0.44999996E+02 -0.21782E+05
 0.45049995E+02 -0.21145E+05
 0.45099998E+02 -0.20685E+05
 0.45149998E+02 -0.20274E+05
 0.45199997E+02 -0.20214E+05
 0.45249996E+02 -0.19156E+05
 0.45299995E+02 -0.18753E+05
 0.45349998E+02 -0.18965E+05
 0.45399998E+02 -0.16779E+05
 0.45449997E+02 -0.16160E+05
 0.45499996E+02 -0.16882E+05
 0.45549995E+02 -0.18726E+05
 0.45599998E+02 -0.19115E+05
 0.45649998E+02 -0.19522E+05
 0.45699997E+02 -0.19910E+05
 0.45749996E+02 -0.18929E+05
 0.45799995E+02 -0.18388E+05
 0.45849998E+02 -0.17466E+05
 0.45899998E+02 -0.16770E+05
 0.45949997E+02 -0.17571E+05
 0.45999996E+02 -0.18541E+05
 0.46049995E+02 -0.18644E+05
 0.46099998E+02 -0.19253E+05
 0.46149998E+02 -0.18222E+05
 0.46199997E+02 -0.17644E+05
 0.46249996E+02 -0.18585E+05
 0.46299995E+02 -0.18149E+05
 0.46349998E+02 -0.17409E+05
 0.46399998E+02 -0.18811E+05
 0.46449997E+02 -0.19653E+05
 0.46499996E+02 -0.19580E+05
 0.46549995E+02 -0.19886E+05
 0.46599998E+02 -0.19452E+05
 0.46649998E+02 -0.19169E+05
 0.46699997E+02 -0.18417E+05
 0.46749996E+02 -0.18489E+05
 0.46799995E+02 -0.18188E+05
 0.46849998E+02 -0.18538E+05
 0.46899998E+02 -0.19283E+05
 0.46949997E+02 -0.19475E+05
 0.46999996E+02 -0.20261E+05
 0.47049995E+02 -0.19718E+05
 0.47099998E+02 -0.19050E+05
 0.47149998E+02 -0.19522E+05
 0.47199997E+02 -0.20902E+05
 0.47249996E+02 -0.20920E+05
 0.47299995E+02 -0.19701E+05
 0.47349998E+02 -0.19100E+05
 0.47399998E+02 -0.18754E+05
 0.47449997E+02 -0.18303E+05
 0.47499996E+02 -0.17856E+05
 0.47549995E+02 -0.17686E+05
 0.47599998E+02 -0.18063E+05
 0.47649998E+02 -0.18396E+05
 0.47699997E+02 -0.19704E+05
 0.47749996E+02 -0.19864E+05
 0.47799995E+02 -0.18763E+05
 0.47849998E+02 -0.18400E+05
 0.47899998E+02 -0.18291E+05
 0.47949997E+02 -0.18208E+05
 0.47999996E+02 -0.17860E+05
 0.48049995E+02 -0.18902E+05
 0.48099998E+02 -0.19636E+05
 0.48149998E+02 -0.19681E+05
 0.48199997E+02 -0.18256E+05
 0.48249996E+02 -0.17397E+05
 0.48299995E+02 -0.18160E+05
 0.48349998E+02 -0.17209E+05
 0.48399998E+02 -0.16738E+05
 0.48449997E+02 -0.17446E+05
 0.48499996E+02 -0.18513E+05
 0.48549995E+02 -0.19852E+05
 0.48599998E+02 -0.20571E+05
 0.48649998E+02 -0.21534E+05
 0.48699997E+02 -0.21408E+05
 0.48749996E+02 -0.20488E+05
 0.48799995E+02 -0.19733E+05
 0.48849998E+02 -0.18765E+05
 0.48899998E+02 -0.18033E+05
 0.48949997E+02 -0.17305E+05
 0.48999996E+02 -0.17927E+05
 0.49049995E+02 -0.18920E+05
 0.49099998E+02 -0.19534E+05
 0.49149998E+02 -0.19709E+05
 0.49199997E+02 -0.19633E+05
 0.49249996E+02 -0.19051E+05
 0.49299995E+02 -0.18349E+05
 0.49349998E+02 -0.17446E+05
 0.49399998E+02 -0.17373E+05
 0.49449997E+02 -0.18576E+05
 0.49499996E+02 -0.18743E+05
 0.49549995E+02 -0.19354E+05
 0.49599998E+02 -0.19974E+05
 0.49649998E+02 -0.19657E+05
 0.49699997E+02 -0.19618E+05
 0.49749996E+02 -0.19713E+05
 0.49799995E+02 -0.19278E+05
 0.49849998E+02 -0.19515E+05
 0.49899998E+02 -0.19560E+05
 0.49949997E+02 -0.19089E+05
 0.49999996E+02 -0.18810E+05
 0.50049995E+02 -0.18361E+05
 0.50099998E+02 -0.17801E+05
 0.50149998E+02 -0.17691E+05
 0.50199997E+02 -0.18625E+05
 0.50249996E+02 -0.19337E+05
 0.50299995E+02 -0.19678E+05
 0.50349998E+02 -0.19895E+05
 0.50399998E+02 -0.20144E+05
 0.50449997E+02 -0.20005E+05
 0.50499996E+02 -0.19072E+05
 0.50549995E+02 -0.18260E+05
 0.50599998E+02 -0.17815E+05
 0.50649998E+02 -0.17577E+05
 0.50699997E+02 -0.17745E+05
 0.50749996E+02 -0.18244E+05
 0.50799995E+02 -0.18897E+05
 0.50849998E+02 -0.19695E+05
 0.50899998E+02 -0.19453E+05
 0.50949997E+02 -0.18067E+05
 0.50999996E+02 -0.17309E+05
 0.51049995E+02 -0.17717E+05
 0.51099998E+02 -0.18555E+05
 0.51149998E+02 -0.19331E+05
 0.51199997E+02 -0.19674E+05
 0.51249996E+02 -0.19597E+05
 0.51299995E+02 -0.19063E+05
 0.51349998E+02 -0.17811E+05
 0.51399998E+02 -0.16744E+05
 0.51449997E+02 -0.16352E+05
 0.51499996E+02 -0.16422E+05
 0.51549995E+02 -0.17271E+05
 0.51599998E+02 -0.18944E+05
 0.51649998E+02 -0.19727E+05
 0.51699997E+02 -0.20628E+05
 0.51749996E+02 -0.21072E+05
 0.51799995E+02 -0.20642E+05
 0.51849998E+02 -0.19960E+05
 0.51899998E+02 -0.19036E+05
 0.51949997E+02 -0.18424E+05
 0.51999996E+02 -0.18115E+05
 0.52049995E+02 -0.19259E+05
 0.52099998E+02 -0.19801E+05
 0.52149998E+02 -0.19768E+05
 0.52199997E+02 -0.19993E+05
 0.52249996E+02 -0.19821E+05
 0.52299995E+02 -0.19685E+05
 0.52349998E+02 -0.18850E+05
 0.52399998E+02 -0.18266E+05
 0.52449997E+02 -0.18412E+05
 0.52499996E+02 -0.18397E+05
 0.52549995E+02 -0.18905E+05
 0.52599998E+02 -0.19682E+05
 0.52649998E+02 -0.20193E+05
 0.52699997E+02 -0.19889E+05
 0.52749996E+02 -0.18397E+05
 0.52799995E+02 -0.17587E+05
 0.52849998E+02 -0.17556E+05
 0.52899998E+02 -0.17358E+05
 0.52949997E+02 -0.17766E+05
 0.52999996E+02 -0.18191E+05
 0.53049995E+02 -0.19038E+05
 0.53099998E+02 -0.19542E+05
 0.53149998E+02 -0.19629E+05
 0.53199997E+02 -0.19957E+05
 0.53249996E+02 -0.20426E+05
 0.53299995E+02 -0.20157E+05
 0.53349998E+02 -0.19025E+05
 0.53399998E+02 -0.18980E+05
 0.53449997E+02 -0.18378E+05
 0.53499996E+02 -0.17957E+05
 0.53549995E+02 -0.18362E+05
 0.53599998E+02 -0.18333E+05
 0.53649998E+02 -0.17644E+05
 0.53699997E+02 -0.16509E+05
 0.53749996E+02 -0.16501E+05
 0.53799995E+02 -0.17442E+05
 0.53849998E+02 -0.18883E+05
 0.53899998E+02 -0.19855E+05
 0.53949997E+02 -0.19934E+05
 0.53999996E+02 -0.19566E+05
 0.54049995E+02 -0.19163E+05
 0.54099998E+02 -0.19307E+05
 0.54149998E+02 -0.19086E+05
 0.54199997E+02 -0.19264E+05
 0.54249996E+02 -0.20067E+05
 0.54299995E+02 -0.20426E+05
 0.54349998E+02 -0.20395E+05
 0.54399998E+02 -0.19682E+05
 0.54449997E+02 -0.19551E+05
 0.54499996E+02 -0.19561E+05
 0.54549995E+02 -0.19563E+05
 0.54599998E+02 -0.18961E+05
 0.54649998E+02 -0.17725E+05
 0.54699997E+02 -0.18025E+05
 0.54749996E+02 -0.18537E+05
 0.54799995E+02 -0.18772E+05
 0.54849998E+02 -0.19403E+05
 0.54899998E+02 -0.19908E+05
 0.54949997E+02 -0.19924E+05
 0.54999996E+02 -0.19116E+05
 0.55049995E+02 -0.18244E+05
 0.55099998E+02 -0.17937E+05
 0.55149998E+02 -0.17723E+05
 0.55199997E+02 -0.17744E+05
 0.55249996E+02 -0.17649E+05
 0.55299995E+02 -0.17807E+05
 0.55349998E+02 -0.18302E+05
 0.55399998E+02 -0.18337E+05
 0.55449997E+02 -0.18075E+05
 0.55499996E+02 -0.18388E+05
 0.55549995E+02 -0.19281E+05
 0.55599998E+02 -0.20194E+05
 0.55649998E+02 -0.20395E+05
 0.55699997E+02 -0.19550E+05
 0.55749996E+02 -0.18514E+05
 0.55799995E+02 -0.18202E+05
 0.55849995E+02 -0.18357E+05
 0.55899998E+02 -0.18482E+05
 0.55949997E+02 -0.18917E+05
 0.55999996E+02 -0.19307E+05
 0.56049995E+02 -0.19367E+05
 0.56099995E+02 -0.18636E+05
 0.56149998E+02 -0.17963E+05
 0.56199997E+02 -0.18042E+05
 0.56249996E+02 -0.18403E+05
 0.56299995E+02 -0.19027E+05
 0.56349995E+02 -0.18819E+05
 0.56399998E+02 -0.18517E+05
 0.56449997E+02 -0.18872E+05
 0.56499996E+02 -0.19057E+05
 0.56549995E+02 -0.18914E+05
 0.56599995E+02 -0.18629E+05
 0.56649998E+02 -0.18590E+05
 0.56699997E+02 -0.18956E+05
 0.56749996E+02 -0.18936E+05
 0.56799995E+02 -0.19118E+05
 0.56849995E+02 -0.19185E+05
 0.56899998E+02 -0.19324E+05
 0.56949997E+02 -0.20111E+05
 0.56999996E+02 -0.19812E+05
 0.57049995E+02 -0.19202E+05
 0.57099995E+02 -0.18627E+05
 0.57149998E+02 -0.18538E+05
 0.57199997E+02 -0.18566E+05
 0.57249996E+02 -0.18840E+05
 0.57299995E+02 -0.19509E+05
 0.57349995E+02 -0.19569E+05
 0.57399998E+02 -0.18895E+05
 0.57449997E+02 -0.18257E+05
 0.57499996E+02 -0.18054E+05
 0.57549995E+02 -0.17872E+05
 0.57599995E+02 -0.18027E+05
 0.57649998E+02 -0.18306E+05
 0.57699997E+02 -0.19064E+05
 0.57749996E+02 -0.19733E+05
 0.57799995E+02 -0.20094E+05
 0.57849995E+02 -0.20086E+05
 0.57899998E+02 -0.19632E+05
 0.57949997E+02 -0.19133E+05
 0.57999996E+02 -0.18695E+05
 0.58049995E+02 -0.18523E+05
 0.58099995E+02 -0.18700E+05
 0.58149998E+02 -0.18991E+05
 0.58199997E+02 -0.18779E+05
 0.58249996E+02 -0.18442E+05
 0.58299995E+02 -0.17717E+05
 0.58349995E+02 -0.17725E+05
 0.58399998E+02 -0.18403E+05
 0.58449997E+02 -0.18736E+05
 0.58499996E+02 -0.18894E+05
 0.58549995E+02 -0.18547E+05
 0.58599995E+02 -0.18787E+05
 0.58649998E+02 -0.19316E+05
 0.58699997E+02 -0.19920E+05
 0.58749996E+02 -0.19710E+05
 0.58799995E+02 -0.19511E+05
 0.58849995E+02 -0.19336E+05
 0.58899998E+02 -0.19083E+05
 0.58949997E+02 -0.19306E+05
 0.58999996E+02 -0.19370E+05
 0.59049995E+02 -0.19193E+05
 0.59099995E+02 -0.19146E+05
 0.59149998E+02 -0.19408E+05
 0.59199997E+02 -0.19565E+05
 0.59249996E+02 -0.20117E+05
 0.59299995E+02 -0.19568E+05
 0.59349995E+02 -0.18416E+05
 0.59399998E+02 -0.17098E+05
 0.59449997E+02 -0.16433E+05
 0.59499996E+02 -0.16623E+05
 0.59549995E+02 -0.16998E+05
 0.59599995E+02 -0.18122E+05
 0.59649998E+02 -0.18819E+05
 0.59699997E+02 -0.19149E+05
 0.59749996E+02 -0.19619E+05
 0.59799995E+02 -0.20219E+05
 0.59849995E+02 -0.20221E+05
 0.59899998E+02 -0.19789E+05
 0.59949997E+02 -0.19631E+05
 0.59999996E+02 -0.19186E+05
 0.60049995E+02 -0.18974E+05
 0.60099995E+02 -0.18787E+05
 0.60149998E+02 -0.19067E+05
 0.60199997E+02 -0.19295E+05
 0.60249996E+02 -0.18491E+05
 0.60299995E+02 -0.18096E+05
 0.60349995E+02 -0.18300E+05
 0.60399998E+02 -0.18599E+05
 0.60449997E+02 -0.18867E+05
 0.60499996E+02 -0.19055E+05
 0.60549995E+02 -0.18578E+05
 0.60599995E+02 -0.18246E+05
 0.60649998E+02 -0.18339E+05
 0.60699997E+02 -0.18668E+05
 0.60749996E+02 -0.19250E+05
 0.60799995E+02 -0.19451E+05
 0.60849995E+02 -0.19582E+05
 0.60899998E+02 -0.19355E+05
 0.60949997E+02 -0.19126E+05
 0.60999996E+02 -0.19267E+05
 0.61049995E+02 -0.19452E+05
 0.61099995E+02 -0.18996E+05
 0.61149998E+02 -0.18502E+05
 0.61199997E+02 -0.18123E+05
 0.61249996E+02 -0.18280E+05
 0.61299995E+02 -0.18615E+05
 0.61349995E+02 -0.18318E+05
 0.61399998E+02 -0.17991E+05
 0.61449997E+02 -0.17663E+05
 0.61499996E+02 -0.18014E+05
 0.61549995E+02 -0.18350E+05
 0.61599995E+02 -0.18572E+05
 0.61649998E+02 -0.18930E+05
 0.61699997E+02 -0.19232E+05
 0.61749996E+02 -0.19641E+05
 0.61799995E+02 -0.19773E+05
 0.61849995E+02 -0.19331E+05
 0.61899998E+02 -0.19280E+05
 0.61949997E+02 -0.19407E+05
 0.61999996E+02 -0.19328E+05
 0.62049995E+02 -0.19228E+05
 0.62099998E+02 -0.19057E+05
 0.62149994E+02 -0.19252E+05
 0.62199997E+02 -0.19405E+05
 0.62249992E+02 -0.19296E+05
 0.62299995E+02 -0.18881E+05
 0.62349998E+02 -0.18458E+05
 0.62399994E+02 -0.18493E+05
 0.62449997E+02 -0.18980E+05
 0.62499992E+02 -0.19308E+05
 0.62549995E+02 -0.19432E+05
 0.62599998E+02 -0.19494E+05
 0.62649994E+02 -0.19214E+05
 0.62699997E+02 -0.18873E+05
 0.62749992E+02 -0.18753E+05
 0.62799995E+02 -0.18514E+05
 0.62849998E+02 -0.18481E+05
 0.62899994E+02 -0.18750E+05
 0.62949997E+02 -0.18832E+05
 0.62999992E+02 -0.19069E+05
 0.63049995E+02 -0.19353E+05
 0.63099998E+02 -0.19561E+05
 0.63149994E+02 -0.19403E+05
 0.63199997E+02 -0.18965E+05
 0.63249992E+02 -0.18734E+05
 0.63299995E+02 -0.18657E+05
 0.63349998E+02 -0.18643E+05
 0.63399994E+02 -0.18607E+05
 0.63449997E+02 -0.18843E+05
 0.63499992E+02 -0.19077E+05
 0.63549995E+02 -0.18718E+05
 0.63599998E+02 -0.18159E+05
 0.63649994E+02 -0.17913E+05
 0.63699997E+02 -0.17923E+05
 0.63749992E+02 -0.18492E+05
 0.63799995E+02 -0.18934E+05
 0.63849998E+02 -0.19014E+05
 0.63899994E+02 -0.18955E+05
 0.63949997E+02 -0.18528E+05
 0.63999992E+02 -0.18039E+05
 0.64049995E+02 -0.17839E+05
 0.64099998E+02 -0.18066E+05
 0.64149994E+02 -0.18593E+05
 0.64199997E+02 -0.19146E+05
 0.64249992E+02 -0.19082E+05
 0.64299995E+02 -0.19134E+05
 0.64349998E+02 -0.19223E+05
 0.64399994E+02 -0.19159E+05
 0.64449997E+02 -0.19242E+05
 0.64499992E+02 -0.19181E+05
 0.64549995E+02 -0.19206E+05
 0.64599998E+02 -0.19219E+05
 0.64649994E+02 -0.19013E+05
 0.64699997E+02 -0.18475E+05
 0.64749992E+02 -0.18312E+05
 0.64799995E+02 -0.18645E+05
 0.64849998E+02 -0.18911E+05
 0.64899994E+02 -0.18983E+05
 0.64949997E+02 -0.18967E+05
 0.64999992E+02 -0.18848E+05
 0.65049995E+02 -0.18747E+05
 0.65099998E+02 -0.18995E+05
 0.65149994E+02 -0.19502E+05
 0.65199997E+02 -0.19794E+05
 0.65249992E+02 -0.19592E+05
 0.65299995E+02 -0.19258E+05
 0.65349998E+02 -0.18976E+05
 0.65399994E+02 -0.18866E+05
 0.65449997E+02 -0.19265E+05
 0.65499992E+02 -0.19703E+05
 0.65549995E+02 -0.19448E+05
 0.65599998E+02 -0.19374E+05
 0.65649994E+02 -0.19147E+05
 0.65699997E+02 -0.18838E+05
 0.65749992E+02 -0.18857E+05
 0.65799995E+02 -0.18765E+05
 0.65849998E+02 -0.18966E+05
 0.65899994E+02 -0.18852E+05
 0.65949997E+02 -0.18371E+05
 0.65999992E+02 -0.17804E+05
 0.66049995E+02 -0.17717E+05
 0.66099998E+02 -0.18256E+05
 0.66149994E+02 -0.18557E+05
 0.66199997E+02 -0.18217E+05
 0.66249992E+02 -0.17833E+05
 0.66299995E+02 -0.17695E+05
 0.66349998E+02 -0.17846E+05
 0.66399994E+02 -0.18421E+05
 0.66449997E+02 -0.18509E+05
 0.66499992E+02 -0.18404E+05
 0.66549995E+02 -0.18650E+05
 0.66599998E+02 -0.18958E+05
 0.66649994E+02 -0.19288E+05
 0.66699997E+02 -0.19481E+05
 0.66749992E+02 -0.19504E+05
 0.66799995E+02 -0.19204E+05
 0.66849998E+02 -0.19025E+05
 0.66899994E+02 -0.19160E+05
 0.66949997E+02 -0.19053E+05
 0.66999992E+02 -0.19118E+05
 0.67049995E+02 -0.19483E+05
 0.67099998E+02 -0.19791E+05
 0.67149994E+02 -0.19649E+05
 0.67199997E+02 -0.19177E+05
 0.67249992E+02 -0.18831E+05
 0.67299995E+02 -0.18706E+05
 0.67349998E+02 -0.18764E+05
 0.67399994E+02 -0.18951E+05
 0.67449997E+02 -0.19280E+05
 0.67499992E+02 -0.19269E+05
 0.67549995E+02 -0.18970E+05
 0.67599998E+02 -0.18752E+05
 0.67649994E+02 -0.18674E+05
 0.67699997E+02 -0.18757E+05
 0.67749992E+02 -0.18949E+05
 0.67799995E+02 -0.19173E+05
 0.67849998E+02 -0.19330E+05
 0.67899994E+02 -0.19483E+05
 0.67949997E+02 -0.19466E+05
 0.67999992E+02 -0.19128E+05
 0.68049995E+02 -0.18733E+05
 0.68099998E+02 -0.18606E+05
 0.68149994E+02 -0.18804E+05
 0.68199997E+02 -0.19136E+05
 0.68249992E+02 -0.19165E+05
 0.68299995E+02 -0.18988E+05
 0.68349998E+02 -0.18706E+05
 0.68399994E+02 -0.18255E+05
 0.68449997E+02 -0.18005E+05
 0.68499992E+02 -0.18135E+05
 0.68549995E+02 -0.18556E+05
 0.68599998E+02 -0.19058E+05
 0.68649994E+02 -0.19288E+05
 0.68699997E+02 -0.19127E+05
 0.68749992E+02 -0.19041E+05
 0.68799995E+02 -0.19037E+05
 0.68849998E+02 -0.18773E+05
 0.68899994E+02 -0.18411E+05
 0.68949997E+02 -0.18740E+05
 0.68999992E+02 -0.19156E+05
 0.69049995E+02 -0.19117E+05
 0.69099998E+02 -0.19192E+05
 0.69149994E+02 -0.19179E+05
 0.69199997E+02 -0.18923E+05
 0.69249992E+02 -0.18492E+05
 0.69299995E+02 -0.17925E+05
 0.69349998E+02 -0.17590E+05
 0.69399994E+02 -0.17889E+05
 0.69449997E+02 -0.18280E+05
 0.69499992E+02 -0.18431E+05
 0.69549995E+02 -0.18393E+05
 0.69599998E+02 -0.18458E+05
 0.69649994E+02 -0.18816E+05
 0.69699997E+02 -0.19383E+05
 0.69749992E+02 -0.19702E+05
 0.69799995E+02 -0.19805E+05
 0.69849998E+02 -0.19741E+05
 0.69899994E+02 -0.19155E+05
 0.69949997E+02 -0.18773E+05
 0.69999992E+02 -0.18591E+05
 0.70049995E+02 -0.18489E+05
 0.70099998E+02 -0.18518E+05
 0.70149994E+02 -0.18704E+05
 0.70199997E+02 -0.18837E+05
 0.70249992E+02 -0.18686E+05
 0.70299995E+02 -0.18706E+05
 0.70349998E+02 -0.18810E+05
 0.70399994E+02 -0.18943E+05
 0.70449997E+02 -0.19058E+05
 0.70499992E+02 -0.19243E+05
 0.70549995E+02 -0.19347E+05
 0.70599998E+02 -0.19385E+05
 0.70649994E+02 -0.19276E+05
 0.70699997E+02 -0.18978E+05
 0.70749992E+02 -0.18764E+05
 0.70799995E+02 -0.18729E+05
 0.70849998E+02 -0.18908E+05
 0.70899994E+02 -0.18810E+05
 0.70949997E+02 -0.18914E+05
 0.70999992E+02 -0.19305E+05
 0.71049995E+02 -0.19674E+05
 0.71099998E+02 -0.19686E+05
 0.71149994E+02 -0.19329E+05
 0.71199997E+02 -0.19079E+05
 0.71249992E+02 -0.18635E+05
 0.71299995E+02 -0.18232E+05
 0.71349998E+02 -0.18143E+05
 0.71399994E+02 -0.18155E+05
 0.71449997E+02 -0.18450E+05
 0.71499992E+02 -0.18887E+05
 0.71549995E+02 -0.19083E+05
 0.71599998E+02 -0.19254E+05
 0.71649994E+02 -0.19228E+05
 0.71699997E+02 -0.19117E+05
 0.71749992E+02 -0.19172E+05
 0.71799995E+02 -0.19276E+05
 0.71849998E+02 -0.19341E+05
 0.71899994E+02 -0.19083E+05
 0.71949997E+02 -0.18728E+05
 0.71999992E+02 -0.18608E+05
 0.72049995E+02 -0.18584E+05
 0.72099998E+02 -0.18646E+05
 0.72149994E+02 -0.18849E+05
 0.72199997E+02 -0.19104E+05
 0.72249992E+02 -0.19149E+05
 0.72299995E+02 -0.19096E+05
 0.72349998E+02 -0.19084E+05
 0.72399994E+02 -0.19214E+05
 0.72449997E+02 -0.19165E+05
 0.72499992E+02 -0.18815E+05
 0.72549995E+02 -0.18497E+05
 0.72599998E+02 -0.18239E+05
 0.72649994E+02 -0.18189E+05
 0.72699997E+02 -0.18403E+05
 0.72749992E+02 -0.18653E+05
 0.72799995E+02 -0.18706E+05
 0.72849998E+02 -0.18713E+05
 0.72899994E+02 -0.18824E+05
 0.72949997E+02 -0.18911E+05
 0.72999992E+02 -0.19010E+05
 0.73049995E+02 -0.19180E+05
 0.73099998E+02 -0.19279E+05
 0.73149994E+02 -0.19450E+05
 0.73199997E+02 -0.19577E+05
 0.73249992E+02 -0.19613E+05
 0.73299995E+02 -0.19355E+05
 0.73349998E+02 -0.18864E+05
 0.73399994E+02 -0.18381E+05
 0.73449997E+02 -0.18174E+05
 0.73499992E+02 -0.18204E+05
 0.73549995E+02 -0.18177E+05
 0.73599998E+02 -0.18022E+05
 0.73649994E+02 -0.17782E+05
 0.73699997E+02 -0.17943E+05
 0.73749992E+02 -0.18360E+05
 0.73799995E+02 -0.18693E+05
 0.73849998E+02 -0.19144E+05
 0.73899994E+02 -0.19647E+05
 0.73949997E+02 -0.19916E+05
 0.73999992E+02 -0.19996E+05
 0.74049995E+02 -0.19667E+05
 0.74099998E+02 -0.19310E+05
 0.74149994E+02 -0.19100E+05
 0.74199997E+02 -0.19007E+05
 0.74249992E+02 -0.18911E+05
 0.74299995E+02 -0.18438E+05
 0.74349998E+02 -0.18052E+05
 0.74399994E+02 -0.18033E+05
 0.74449997E+02 -0.18433E+05
 0.74499992E+02 -0.18832E+05
 0.74549995E+02 -0.18742E+05
 0.74599998E+02 -0.18556E+05
 0.74649994E+02 -0.18637E+05
 0.74699997E+02 -0.18785E+05
 0.74749992E+02 -0.18950E+05
 0.74799995E+02 -0.18991E+05
 0.74849998E+02 -0.18946E+05
 0.74899994E+02 -0.19018E+05
 0.74949997E+02 -0.18928E+05
 0.74999992E+02 -0.18746E+05
 0.75049995E+02 -0.18873E+05
 0.75099998E+02 -0.18977E+05
 0.75149994E+02 -0.18811E+05
 0.75199997E+02 -0.18722E+05
 0.75249992E+02 -0.18509E+05
 0.75299995E+02 -0.18194E+05
 0.75349998E+02 -0.18176E+05
 0.75399994E+02 -0.18457E+05
 0.75449997E+02 -0.18880E+05
 0.75499992E+02 -0.19378E+05
 0.75549995E+02 -0.19604E+05
 0.75599998E+02 -0.19708E+05
 0.75649994E+02 -0.19687E+05
 0.75699997E+02 -0.19204E+05
 0.75749992E+02 -0.18747E+05
 0.75799995E+02 -0.18632E+05
 0.75849998E+02 -0.18811E+05
 0.75899994E+02 -0.18931E+05
 0.75949997E+02 -0.19004E+05
 0.75999992E+02 -0.19073E+05
 0.76049995E+02 -0.19144E+05
 0.76099998E+02 -0.19250E+05
 0.76149994E+02 -0.19063E+05
 0.76199997E+02 -0.18962E+05
 0.76249992E+02 -0.18976E+05
 0.76299995E+02 -0.18859E+05
 0.76349998E+02 -0.18880E+05
 0.76399994E+02 -0.19068E+05
 0.76449997E+02 -0.19086E+05
 0.76499992E+02 -0.19056E+05
 0.76549995E+02 -0.18931E+05
 0.76599998E+02 -0.18628E+05
 0.76649994E+02 -0.18571E+05
 0.76699997E+02 -0.18722E+05
 0.76749992E+02 -0.18941E+05
 0.76799995E+02 -0.19085E+05
 0.76849998E+02 -0.19228E+05
 0.76899994E+02 -0.19256E+05
 0.76949997E+02 -0.19242E+05
 0.76999992E+02 -0.19190E+05
 0.77049995E+02 -0.18959E+05
 0.77099998E+02 -0.18556E+05
 0.77149994E+02 -0.17958E+05
 0.77199997E+02 -0.17702E+05
 0.77249992E+02 -0.17879E+05
 0.77299995E+02 -0.18278E+05
 0.77349998E+02 -0.18587E+05
 0.77399994E+02 -0.18915E+05
 0.77449997E+02 -0.19302E+05
 0.77499992E+02 -0.19519E+05
 0.77549995E+02 -0.19514E+05
 0.77599998E+02 -0.19244E+05
 0.77649994E+02 -0.19048E+05
 0.77699997E+02 -0.18769E+05
 0.77749992E+02 -0.18640E+05
 0.77799995E+02 -0.18677E+05
 0.77849998E+02 -0.18807E+05
 0.77899994E+02 -0.19085E+05
 0.77949997E+02 -0.19263E+05
 0.77999992E+02 -0.19278E+05
 0.78049995E+02 -0.19081E+05
 0.78099998E+02 -0.18933E+05
 0.78149994E+02 -0.18788E+05
 0.78199997E+02 -0.18664E+05
 0.78249992E+02 -0.18612E+05
 0.78299995E+02 -0.18675E+05
 0.78349998E+02 -0.18916E+05
 0.78399994E+02 -0.19161E+05
 0.78449997E+02 -0.19160E+05
 0.78499992E+02 -0.19094E+05
 0.78549995E+02 -0.19021E+05
 0.78599998E+02 -0.18824E+05
 0.78649994E+02 -0.18778E+05
 0.78699997E+02 -0.18881E+05
 0.78749992E+02 -0.18956E+05
 0.78799995E+02 -0.18913E+05
 0.78849998E+02 -0.18729E+05
 0.78899994E+02 -0.18627E+05
 0.78949997E+02 -0.18771E+05
 0.78999992E+02 -0.18877E+05
 0.79049995E+02 -0.18899E+05
 0.79099998E+02 -0.18839E+05
 0.79149994E+02 -0.18683E+05
 0.79199997E+02 -0.18590E+05
 0.79249992E+02 -0.18621E+05
 0.79299995E+02 -0.18651E+05
 0.79349998E+02 -0.18821E+05
 0.79399994E+02 -0.18932E+05
 0.79449997E+02 -0.18990E+05
 0.79499992E+02 -0.19161E+05
 0.79549995E+02 -0.19149E+05
 0.79599998E+02 -0.19044E+05
 0.79649994E+02 -0.18783E+05
 0.79699997E+02 -0.18445E+05
 0.79749992E+02 -0.18411E+05
 0.79799995E+02 -0.18617E+05
 0.79849998E+02 -0.18804E+05
 0.79899994E+02 -0.18960E+05
 0.79949997E+02 -0.19097E+05
 0.79999992E+02 -0.19036E+05
 0.80049995E+02 -0.18838E+05
 0.80099998E+02 -0.18638E+05
 0.80149994E+02 -0.18518E+05
 0.80199997E+02 -0.18617E+05
 0.80249992E+02 -0.18699E+05
 0.80299995E+02 -0.18760E+05
 0.80349998E+02 -0.18839E+05
 0.80399994E+02 -0.18985E+05
 0.80449997E+02 -0.19219E+05
 0.80499992E+02 -0.19357E+05
 0.80549995E+02 -0.19324E+05
 0.80599998E+02 -0.19146E+05
 0.80649994E+02 -0.18816E+05
 0.80699997E+02 -0.18450E+05
 0.80749992E+02 -0.18256E+05
 0.80799995E+02 -0.18136E+05
 0.80849998E+02 -0.18184E+05
 0.80899994E+02 -0.18357E+05
 0.80949997E+02 -0.18646E+05
 0.80999992E+02 -0.19040E+05
 0.81049995E+02 -0.19222E+05
 0.81099998E+02 -0.19192E+05
 0.81149994E+02 -0.18982E+05
 0.81199997E+02 -0.18838E+05
 0.81249992E+02 -0.18838E+05
 0.81299995E+02 -0.18915E+05
 0.81349998E+02 -0.19099E+05
 0.81399994E+02 -0.19314E+05
 0.81449997E+02 -0.19424E+05
 0.81499992E+02 -0.19341E+05
 0.81549995E+02 -0.19094E+05
 0.81599998E+02 -0.18967E+05
 0.81649994E+02 -0.19084E+05
 0.81699997E+02 -0.19135E+05
 0.81749992E+02 -0.19161E+05
 0.81799995E+02 -0.19090E+05
 0.81849998E+02 -0.18913E+05
 0.81899994E+02 -0.18864E+05
 0.81949997E+02 -0.18948E+05
 0.81999992E+02 -0.19159E+05
 0.82049995E+02 -0.19391E+05
 0.82099998E+02 -0.19449E+05
 0.82149994E+02 -0.19214E+05
 0.82199997E+02 -0.18932E+05
 0.82249992E+02 -0.18809E+05
 0.82299995E+02 -0.18766E+05
 0.82349998E+02 -0.18737E+05
 0.82399994E+02 -0.18551E+05
 0.82449997E+02 -0.18281E+05
 0.82499992E+02 -0.18206E+05
 0.82549995E+02 -0.18476E+05
 0.82599998E+02 -0.18914E+05
 0.82649994E+02 -0.19189E+05
 0.82699997E+02 -0.19150E+05
 0.82749992E+02 -0.19023E+05
 0.82799995E+02 -0.18932E+05
 0.82849998E+02 -0.18813E+05
 0.82899994E+02 -0.18668E+05
 0.82949997E+02 -0.18612E+05
 0.82999992E+02 -0.18762E+05
 0.83049995E+02 -0.18791E+05
 0.83099998E+02 -0.18751E+05
 0.83149994E+02 -0.18800E+05
 0.83199997E+02 -0.18860E+05
 0.83249992E+02 -0.18910E+05
 0.83299995E+02 -0.19028E+05
 0.83349998E+02 -0.19188E+05
 0.83399994E+02 -0.19183E+05
 0.83449997E+02 -0.19049E+05
 0.83499992E+02 -0.18810E+05
 0.83549995E+02 -0.18636E+05
 0.83599998E+02 -0.18494E+05
 0.83649994E+02 -0.18485E+05
 0.83699997E+02 -0.18684E+05
 0.83749992E+02 -0.18794E+05
 0.83799995E+02 -0.18716E+05
 0.83849998E+02 -0.18559E+05
 0.83899994E+02 -0.18522E+05
 0.83949997E+02 -0.18534E+05
 0.83999992E+02 -0.18733E+05
 0.84049995E+02 -0.19044E+05
 0.84099998E+02 -0.19235E+05
 0.84149994E+02 -0.19292E+05
 0.84199997E+02 -0.19235E+05
 0.84249992E+02 -0.19083E+05
 0.84299995E+02 -0.18893E+05
 0.84349998E+02 -0.18809E+05
 0.84399994E+02 -0.18732E+05
 0.84449997E+02 -0.18731E+05
 0.84499992E+02 -0.18807E+05
 0.84549995E+02 -0.18952E+05
 0.84599998E+02 -0.19105E+05
 0.84649994E+02 -0.19150E+05
 0.84699997E+02 -0.19057E+05
 0.84749992E+02 -0.18903E+05
 0.84799995E+02 -0.18919E+05
 0.84849998E+02 -0.18841E+05
 0.84899994E+02 -0.18781E+05
 0.84949997E+02 -0.18841E+05
 0.84999992E+02 -0.18866E+05
 0.85049995E+02 -0.18898E+05
 0.85099998E+02 -0.18879E+05
 0.85149994E+02 -0.18791E+05
 0.85199997E+02 -0.18864E+05
 0.85249992E+02 -0.18977E+05
 0.85299995E+02 -0.18876E+05
 0.85349998E+02 -0.18813E+05
 0.85399994E+02 -0.18855E+05
 0.85449997E+02 -0.19003E+05
 0.85499992E+02 -0.19124E+05
 0.85549995E+02 -0.19183E+05
 0.85599998E+02 -0.19078E+05
 0.85649994E+02 -0.18812E+05
 0.85699997E+02 -0.18570E+05
 0.85749992E+02 -0.18379E+05
 0.85799995E+02 -0.18287E+05
 0.85849998E+02 -0.18454E+05
 0.85899994E+02 -0.18685E+05
 0.85949997E+02 -0.18752E+05
 0.85999992E+02 -0.18788E+05
 0.86049995E+02 -0.18779E+05
 0.86099998E+02 -0.18683E+05
 0.86149994E+02 -0.18664E+05
 0.86199997E+02 -0.18735E+05
 0.86249992E+02 -0.18814E+05
 0.86299995E+02 -0.18943E+05
 0.86349998E+02 -0.19077E+05
 0.86399994E+02 -0.19210E+05
 0.86449997E+02 -0.19230E+05
 0.86499992E+02 -0.19156E+05
 0.86549995E+02 -0.19033E+05
 0.86599998E+02 -0.18829E+05
 0.86649994E+02 -0.18714E+05
 0.86699997E+02 -0.18757E+05
 0.86749992E+02 -0.18834E+05
 0.86799995E+02 -0.18997E+05
 0.86849998E+02 -0.19208E+05
 0.86899994E+02 -0.19337E+05
 0.86949997E+02 -0.19417E+05
 0.86999992E+02 -0.19355E+05
 0.87049995E+02 -0.19141E+05
 0.87099998E+02 -0.18948E+05
 0.87149994E+02 -0.18856E+05
 0.87199997E+02 -0.18833E+05
 0.87249992E+02 -0.18797E+05
 0.87299995E+02 -0.18786E+05
 0.87349998E+02 -0.18814E+05
 0.87399994E+02 -0.18791E+05
 0.87449997E+02 -0.18676E+05
 0.87499992E+02 -0.18618E+05
 0.87549995E+02 -0.18685E+05
 0.87599991E+02 -0.18773E+05
 0.87649994E+02 -0.19014E+05
 0.87699997E+02 -0.19250E+05
 0.87749992E+02 -0.19367E+05
 0.87799995E+02 -0.19384E+05
 0.87849991E+02 -0.19347E+05
 0.87899994E+02 -0.19244E+05
 0.87949997E+02 -0.19099E+05
 0.87999992E+02 -0.19016E+05
 0.88049995E+02 -0.18879E+05
 0.88099991E+02 -0.18739E+05
 0.88149994E+02 -0.18711E+05
 0.88199997E+02 -0.18731E+05
 0.88249992E+02 -0.18680E+05
 0.88299995E+02 -0.18631E+05
 0.88349991E+02 -0.18562E+05
 0.88399994E+02 -0.18573E+05
 0.88449997E+02 -0.18710E+05
 0.88499992E+02 -0.18895E+05
 0.88549995E+02 -0.19100E+05
 0.88599991E+02 -0.19179E+05
 0.88649994E+02 -0.19095E+05
 0.88699997E+02 -0.18937E+05
 0.88749992E+02 -0.18827E+05
 0.88799995E+02 -0.18743E+05
 0.88849991E+02 -0.18691E+05
 0.88899994E+02 -0.18724E+05
 0.88949997E+02 -0.18792E+05
 0.88999992E+02 -0.18797E+05
 0.89049995E+02 -0.18736E+05
 0.89099991E+02 -0.18639E+05
 0.89149994E+02 -0.18526E+05
 0.89199997E+02 -0.18360E+05
 0.89249992E+02 -0.18344E+05
 0.89299995E+02 -0.18546E+05
 0.89349991E+02 -0.18830E+05
 0.89399994E+02 -0.19120E+05
 0.89449997E+02 -0.19026E+05
 0.89499992E+02 -0.18649E+05
 0.89549995E+02 -0.18351E+05
 0.89599991E+02 -0.18269E+05
 0.89649994E+02 -0.18422E+05
 0.89699997E+02 -0.18742E+05
 0.89749992E+02 -0.19081E+05
 0.89799995E+02 -0.19331E+05
 0.89849991E+02 -0.19496E+05
 0.89899994E+02 -0.19459E+05
 0.89949997E+02 -0.19272E+05
 0.89999992E+02 -0.19007E+05
 0.90049995E+02 -0.18708E+05
 0.90099991E+02 -0.18487E+05
 0.90149994E+02 -0.18315E+05
 0.90199997E+02 -0.18266E+05
 0.90249992E+02 -0.18445E+05
 0.90299995E+02 -0.18792E+05
 0.90349991E+02 -0.19132E+05
 0.90399994E+02 -0.19322E+05
 0.90449997E+02 -0.19350E+05
 0.90499992E+02 -0.19228E+05
 0.90549995E+02 -0.19040E+05
 0.90599991E+02 -0.18867E+05
 0.90649994E+02 -0.18908E+05
 0.90699997E+02 -0.18992E+05
 0.90749992E+02 -0.18973E+05
 0.90799995E+02 -0.18983E+05
 0.90849991E+02 -0.18978E+05
 0.90899994E+02 -0.18962E+05
 0.90949997E+02 -0.18893E+05
 0.90999992E+02 -0.18788E+05
 0.91049995E+02 -0.18740E+05
 0.91099991E+02 -0.18827E+05
 0.91149994E+02 -0.19046E+05
 0.91199997E+02 -0.19363E+05
 0.91249992E+02 -0.19556E+05
 0.91299995E+02 -0.19552E+05
 0.91349991E+02 -0.19375E+05
 0.91399994E+02 -0.19188E+05
 0.91449997E+02 -0.19147E+05
 0.91499992E+02 -0.19082E+05
 0.91549995E+02 -0.18945E+05
 0.91599991E+02 -0.18722E+05
 0.91649994E+02 -0.18549E+05
 0.91699997E+02 -0.18526E+05
 0.91749992E+02 -0.18593E+05
 0.91799995E+02 -0.18655E+05
 0.91849991E+02 -0.18574E+05
 0.91899994E+02 -0.18399E+05
 0.91949997E+02 -0.18309E+05
 0.91999992E+02 -0.18403E+05
 0.92049995E+02 -0.18580E+05
 0.92099991E+02 -0.18715E+05
 0.92149994E+02 -0.18834E+05
 0.92199997E+02 -0.18920E+05
 0.92249992E+02 -0.18978E+05
 0.92299995E+02 -0.19046E+05
 0.92349991E+02 -0.19055E+05
 0.92399994E+02 -0.19097E+05
 0.92449997E+02 -0.19205E+05
 0.92499992E+02 -0.19181E+05
 0.92549995E+02 -0.19100E+05
 0.92599991E+02 -0.18981E+05
 0.92649994E+02 -0.18772E+05
 0.92699997E+02 -0.18621E+05
 0.92749992E+02 -0.18533E+05
 0.92799995E+02 -0.18581E+05
 0.92849991E+02 -0.18637E+05
 0.92899994E+02 -0.18623E+05
 0.92949997E+02 -0.18628E+05
 0.92999992E+02 -0.18657E+05
 0.93049995E+02 -0.18683E+05
 0.93099991E+02 -0.18707E+05
 0.93149994E+02 -0.18710E+05
 0.93199997E+02 -0.18675E+05
 0.93249992E+02 -0.18743E+05
 0.93299995E+02 -0.18894E+05
 0.93349991E+02 -0.19060E+05
 0.93399994E+02 -0.19109E+05
 0.93449997E+02 -0.19091E+05
 0.93499992E+02 -0.19075E+05
 0.93549995E+02 -0.19031E+05
 0.93599991E+02 -0.18978E+05
 0.93649994E+02 -0.18914E+05
 0.93699997E+02 -0.18883E+05
 0.93749992E+02 -0.18859E+05
 0.93799995E+02 -0.18825E+05
 0.93849991E+02 -0.18785E+05
 0.93899994E+02 -0.18813E+05
 0.93949997E+02 -0.18930E+05
 0.93999992E+02 -0.19069E+05
 0.94049995E+02 -0.19198E+05
 0.94099991E+02 -0.19244E+05
 0.94149994E+02 -0.19186E+05
 0.94199997E+02 -0.19109E+05
 0.94249992E+02 -0.18968E+05
 0.94299995E+02 -0.18811E+05
 0.94349991E+02 -0.18789E+05
 0.94399994E+02 -0.18883E+05
 0.94449997E+02 -0.18950E+05
 0.94499992E+02 -0.18957E+05
 0.94549995E+02 -0.18924E+05
 0.94599991E+02 -0.18861E+05
 0.94649994E+02 -0.18814E+05
 0.94699997E+02 -0.18802E+05
 0.94749992E+02 -0.18824E+05
 0.94799995E+02 -0.18872E+05
 0.94849991E+02 -0.18946E+05
 0.94899994E+02 -0.18956E+05
 0.94949997E+02 -0.18806E+05
 0.94999992E+02 -0.18597E+05
 0.95049995E+02 -0.18517E+05
 0.95099991E+02 -0.18591E+05
 0.95149994E+02 -0.18737E+05
 0.95199997E+02 -0.18919E+05
 0.95249992E+02 -0.19100E+05
 0.95299995E+02 -0.19220E+05
 0.95349991E+02 -0.19261E+05
 0.95399994E+02 -0.19131E+05
 0.95449997E+02 -0.18855E+05
 0.95499992E+02 -0.18626E+05
 0.95549995E+02 -0.18497E+05
 0.95599991E+02 -0.18455E+05
 0.95649994E+02 -0.18458E+05
 0.95699997E+02 -0.18503E+05
 0.95749992E+02 -0.18739E+05
 0.95799995E+02 -0.19049E+05
 0.95849991E+02 -0.19246E+05
 0.95899994E+02 -0.19261E+05
 0.95949997E+02 -0.19122E+05
 0.95999992E+02 -0.18974E+05
 0.96049995E+02 -0.18855E+05
 0.96099991E+02 -0.18801E+05
 0.96149994E+02 -0.18811E+05
 0.96199997E+02 -0.18928E+05
 0.96249992E+02 -0.19139E+05
 0.96299995E+02 -0.19324E+05
 0.96349991E+02 -0.19336E+05
 0.96399994E+02 -0.19221E+05
 0.96449997E+02 -0.19099E+05
 0.96499992E+02 -0.18942E+05
 0.96549995E+02 -0.18775E+05
 0.96599991E+02 -0.18674E+05
 0.96649994E+02 -0.18689E+05
 0.96699997E+02 -0.18766E+05
 0.96749992E+02 -0.18838E+05
 0.96799995E+02 -0.18889E+05
 0.96849991E+02 -0.18837E+05
 0.96899994E+02 -0.18766E+05
 0.96949997E+02 -0.18684E+05
 0.96999992E+02 -0.18612E+05
 0.97049995E+02 -0.18723E+05
 0.97099991E+02 -0.18847E+05
 0.97149994E+02 -0.18836E+05
 0.97199997E+02 -0.18815E+05
 0.97249992E+02 -0.18864E+05
 0.97299995E+02 -0.18876E+05
 0.97349991E+02 -0.18839E+05
 0.97399994E+02 -0.18765E+05
 0.97449997E+02 -0.18729E+05
 0.97499992E+02 -0.18762E+05
 0.97549995E+02 -0.18774E+05
 0.97599991E+02 -0.18801E+05
 0.97649994E+02 -0.18815E+05
 0.97699997E+02 -0.18814E+05
 0.97749992E+02 -0.18817E+05
 0.97799995E+02 -0.18723E+05
 0.97849991E+02 -0.18704E+05
 0.97899994E+02 -0.18776E+05
 0.97949997E+02 -0.18872E+05
 0.97999992E+02 -0.18995E+05
