-0.20000000E+01 -0.47774E+05
-0.19500000E+01 -0.51618E+05
-0.19000000E+01 -0.52539E+05
-0.18500000E+01 -0.51749E+05
-0.18000000E+01 -0.49336E+05
-0.17500000E+01 -0.45868E+05
-0.17000000E+01 -0.41485E+05
-0.16500001E+01 -0.36228E+05
-0.16000000E+01 -0.30410E+05
-0.15500000E+01 -0.24615E+05
-0.15000000E+01 -0.18410E+05
-0.14500000E+01 -0.11978E+05
-0.14000001E+01 -0.56845E+04
-0.13500000E+01 -0.90930E+02
-0.13000001E+01  0.46834E+04
-0.12500000E+01  0.84424E+04
-0.12000000E+01  0.11087E+05
-0.11500001E+01  0.12564E+05
-0.11000000E+01  0.13607E+05
-0.10500001E+01  0.14334E+05
-0.10000000E+01  0.14808E+05
-0.95000005E+00  0.14979E+05
-0.90000010E+00  0.15019E+05
-0.85000002E+00  0.15475E+05
-0.80000007E+00  0.15706E+05
-0.75000012E+00  0.16167E+05
-0.70000005E+00  0.16334E+05
-0.65000010E+00  0.16454E+05
-0.60000014E+00  0.16999E+05
-0.55000007E+00  0.18204E+05
-0.50000012E+00  0.19737E+05
-0.45000005E+00  0.21780E+05
-0.40000010E+00  0.24126E+05
-0.35000014E+00  0.26570E+05
-0.30000007E+00  0.28451E+05
-0.25000012E+00  0.29531E+05
-0.20000005E+00  0.29491E+05
-0.15000010E+00  0.28010E+05
-0.10000014E+00  0.25891E+05
-0.50000072E-01  0.22990E+05
-0.11920929E-06  0.20072E+05
 0.49999952E-01  0.16577E+05
 0.99999905E-01  0.12818E+05
 0.14999986E+00  0.89855E+04
 0.19999981E+00  0.48556E+04
 0.24999976E+00  0.61349E+03
 0.29999995E+00 -0.39083E+04
 0.34999990E+00 -0.83491E+04
 0.39999986E+00 -0.12489E+05
 0.44999981E+00 -0.16658E+05
 0.49999976E+00 -0.20773E+05
 0.54999995E+00 -0.24925E+05
 0.59999990E+00 -0.28903E+05
 0.64999986E+00 -0.32483E+05
 0.69999981E+00 -0.35485E+05
 0.74999976E+00 -0.37907E+05
 0.79999971E+00 -0.40169E+05
 0.84999990E+00 -0.41991E+05
 0.89999986E+00 -0.43782E+05
 0.94999981E+00 -0.44881E+05
 0.99999976E+00 -0.44857E+05
 0.10499997E+01 -0.43602E+05
 0.10999999E+01 -0.41085E+05
 0.11499999E+01 -0.38246E+05
 0.11999998E+01 -0.34991E+05
 0.12499998E+01 -0.31950E+05
 0.12999997E+01 -0.28765E+05
 0.13499999E+01 -0.25554E+05
 0.13999999E+01 -0.22098E+05
 0.14499998E+01 -0.17773E+05
 0.14999998E+01 -0.12941E+05
 0.15499997E+01 -0.75013E+04
 0.15999999E+01 -0.13863E+04
 0.16499999E+01  0.49455E+04
 0.16999998E+01  0.11640E+05
 0.17499998E+01  0.18863E+05
 0.17999997E+01  0.25792E+05
 0.18499997E+01  0.32620E+05
 0.18999999E+01  0.38858E+05
 0.19499998E+01  0.44078E+05
 0.19999998E+01  0.48171E+05
 0.20499997E+01  0.51450E+05
 0.20999999E+01  0.54062E+05
 0.21499996E+01  0.55421E+05
 0.21999998E+01  0.55682E+05
 0.22499995E+01  0.54747E+05
 0.22999997E+01  0.52389E+05
 0.23499999E+01  0.48545E+05
 0.23999996E+01  0.43258E+05
 0.24499998E+01  0.36797E+05
 0.24999995E+01  0.29782E+05
 0.25499997E+01  0.22831E+05
 0.25999999E+01  0.16206E+05
 0.26499996E+01  0.10158E+05
 0.26999998E+01  0.48143E+04
 0.27499995E+01  0.38907E+02
 0.27999997E+01 -0.39315E+04
 0.28499999E+01 -0.70411E+04
 0.28999996E+01 -0.98371E+04
 0.29499998E+01 -0.11764E+05
 0.29999995E+01 -0.13102E+05
 0.30499997E+01 -0.13548E+05
 0.30999999E+01 -0.13516E+05
 0.31499996E+01 -0.12806E+05
 0.31999998E+01 -0.11216E+05
 0.32499995E+01 -0.89926E+04
 0.32999997E+01 -0.58915E+04
 0.33499999E+01 -0.25159E+04
 0.33999996E+01  0.85991E+03
 0.34499998E+01  0.38396E+04
 0.34999995E+01  0.66507E+04
 0.35499997E+01  0.94842E+04
 0.35999994E+01  0.11887E+05
 0.36499996E+01  0.14074E+05
 0.36999998E+01  0.16039E+05
 0.37499995E+01  0.17871E+05
 0.37999997E+01  0.19809E+05
 0.38499994E+01  0.21164E+05
 0.38999996E+01  0.22080E+05
 0.39499998E+01  0.22350E+05
 0.39999995E+01  0.22006E+05
 0.40499997E+01  0.21184E+05
 0.40999994E+01  0.20251E+05
 0.41499996E+01  0.18903E+05
 0.41999998E+01  0.17131E+05
 0.42499995E+01  0.15118E+05
 0.42999997E+01  0.12850E+05
 0.43499994E+01  0.10538E+05
 0.43999996E+01  0.80119E+04
 0.44499998E+01  0.53391E+04
 0.44999995E+01  0.25601E+04
 0.45499997E+01 -0.16933E+03
 0.45999994E+01 -0.30109E+04
 0.46499996E+01 -0.56952E+04
 0.46999998E+01 -0.80885E+04
 0.47499995E+01 -0.10424E+05
 0.47999997E+01 -0.12477E+05
 0.48499994E+01 -0.14108E+05
 0.48999996E+01 -0.15019E+05
 0.49499998E+01 -0.15063E+05
 0.49999995E+01 -0.14636E+05
 0.50499997E+01 -0.14344E+05
 0.50999994E+01 -0.14225E+05
 0.51499996E+01 -0.14616E+05
 0.51999998E+01 -0.15643E+05
 0.52499995E+01 -0.16811E+05
 0.52999997E+01 -0.17443E+05
 0.53499994E+01 -0.17179E+05
 0.53999996E+01 -0.16444E+05
 0.54499993E+01 -0.16084E+05
 0.54999995E+01 -0.16381E+05
 0.55499997E+01 -0.16844E+05
 0.55999994E+01 -0.17088E+05
 0.56499996E+01 -0.16942E+05
 0.56999993E+01 -0.16213E+05
 0.57499995E+01 -0.15130E+05
 0.57999997E+01 -0.13940E+05
 0.58499994E+01 -0.12738E+05
 0.58999996E+01 -0.11665E+05
 0.59499993E+01 -0.10432E+05
 0.59999995E+01 -0.92349E+04
 0.60499992E+01 -0.79067E+04
 0.60999994E+01 -0.66116E+04
 0.61499996E+01 -0.49820E+04
 0.61999998E+01 -0.33301E+04
 0.62499990E+01 -0.15295E+04
 0.62999992E+01  0.45462E+02
 0.63499994E+01  0.12840E+04
 0.63999996E+01  0.27461E+04
 0.64499998E+01  0.39951E+04
 0.64999990E+01  0.55409E+04
 0.65499992E+01  0.74655E+04
 0.65999994E+01  0.96974E+04
 0.66499996E+01  0.12557E+05
 0.66999998E+01  0.15404E+05
 0.67499990E+01  0.18666E+05
 0.67999992E+01  0.21809E+05
 0.68499994E+01  0.24606E+05
 0.68999996E+01  0.27092E+05
 0.69499998E+01  0.29048E+05
 0.69999990E+01  0.30295E+05
 0.70499992E+01  0.30692E+05
 0.70999994E+01  0.30629E+05
 0.71499996E+01  0.30286E+05
 0.71999998E+01  0.30221E+05
 0.72499990E+01  0.30102E+05
 0.72999992E+01  0.30564E+05
 0.73499994E+01  0.31249E+05
 0.73999996E+01  0.32216E+05
 0.74499998E+01  0.33297E+05
 0.74999990E+01  0.34037E+05
 0.75499992E+01  0.34296E+05
 0.75999994E+01  0.33859E+05
 0.76499996E+01  0.33416E+05
 0.76999998E+01  0.32612E+05
 0.77499990E+01  0.31349E+05
 0.77999992E+01  0.29868E+05
 0.78499994E+01  0.28149E+05
 0.78999996E+01  0.26043E+05
 0.79499998E+01  0.23569E+05
 0.79999990E+01  0.20507E+05
 0.80499992E+01  0.17108E+05
 0.80999994E+01  0.13050E+05
 0.81499996E+01  0.82038E+04
 0.81999998E+01  0.34784E+04
 0.82499990E+01 -0.14069E+04
 0.82999992E+01 -0.58410E+04
 0.83499994E+01 -0.10071E+05
 0.83999996E+01 -0.14021E+05
 0.84499998E+01 -0.17713E+05
 0.84999990E+01 -0.21382E+05
 0.85499992E+01 -0.25141E+05
 0.85999994E+01 -0.28918E+05
 0.86499996E+01 -0.32499E+05
 0.86999998E+01 -0.35761E+05
 0.87499990E+01 -0.38260E+05
 0.87999992E+01 -0.40062E+05
 0.88499994E+01 -0.40989E+05
 0.88999996E+01 -0.41412E+05
 0.89499998E+01 -0.41255E+05
 0.89999990E+01 -0.40569E+05
 0.90499992E+01 -0.40058E+05
 0.90999994E+01 -0.39442E+05
 0.91499996E+01 -0.38427E+05
 0.91999989E+01 -0.36271E+05
 0.92499990E+01 -0.32666E+05
 0.92999992E+01 -0.28315E+05
 0.93499994E+01 -0.22839E+05
 0.93999996E+01 -0.17257E+05
 0.94499989E+01 -0.11563E+05
 0.94999990E+01 -0.57458E+04
 0.95499992E+01  0.40123E+01
 0.95999994E+01  0.64325E+04
 0.96499996E+01  0.13064E+05
 0.96999989E+01  0.19399E+05
 0.97499990E+01  0.24943E+05
 0.97999992E+01  0.30077E+05
 0.98499994E+01  0.34927E+05
 0.98999996E+01  0.39703E+05
 0.99499989E+01  0.44225E+05
 0.99999990E+01  0.48238E+05
 0.10049999E+02  0.51802E+05
 0.10099999E+02  0.54328E+05
 0.10150000E+02  0.55775E+05
 0.10199999E+02  0.56200E+05
 0.10249999E+02  0.56127E+05
 0.10299999E+02  0.55283E+05
 0.10349999E+02  0.53669E+05
 0.10400000E+02  0.51041E+05
 0.10449999E+02  0.47735E+05
 0.10499999E+02  0.43576E+05
 0.10549999E+02  0.38634E+05
 0.10599999E+02  0.33067E+05
 0.10650000E+02  0.27342E+05
 0.10699999E+02  0.21849E+05
 0.10749999E+02  0.16512E+05
 0.10799999E+02  0.11797E+05
 0.10849999E+02  0.74381E+04
 0.10900000E+02  0.39658E+04
 0.10949999E+02  0.11688E+04
 0.10999999E+02 -0.74888E+03
 0.11049999E+02 -0.21192E+04
 0.11099999E+02 -0.30210E+04
 0.11150000E+02 -0.38527E+04
 0.11199999E+02 -0.42388E+04
 0.11249999E+02 -0.42085E+04
 0.11299999E+02 -0.41639E+04
 0.11349999E+02 -0.34862E+04
 0.11400000E+02 -0.23581E+04
 0.11449999E+02 -0.69398E+03
 0.11499999E+02  0.12236E+04
 0.11549999E+02  0.29381E+04
 0.11599999E+02  0.39134E+04
 0.11650000E+02  0.40898E+04
 0.11699999E+02  0.37019E+04
 0.11749999E+02  0.25966E+04
 0.11799999E+02  0.75553E+03
 0.11849999E+02 -0.17180E+04
 0.11900000E+02 -0.49025E+04
 0.11949999E+02 -0.85998E+04
 0.11999999E+02 -0.12585E+05
 0.12049999E+02 -0.16941E+05
 0.12099999E+02 -0.21195E+05
 0.12150000E+02 -0.25421E+05
 0.12199999E+02 -0.29530E+05
 0.12249999E+02 -0.33694E+05
 0.12299999E+02 -0.37323E+05
 0.12349999E+02 -0.40064E+05
 0.12400000E+02 -0.41941E+05
 0.12449999E+02 -0.42829E+05
 0.12499999E+02 -0.42630E+05
 0.12549999E+02 -0.40737E+05
 0.12599999E+02 -0.37486E+05
 0.12649999E+02 -0.32952E+05
 0.12699999E+02 -0.27581E+05
 0.12749999E+02 -0.21961E+05
 0.12799999E+02 -0.16358E+05
 0.12849999E+02 -0.11100E+05
 0.12899999E+02 -0.59014E+04
 0.12949999E+02 -0.87111E+03
 0.12999999E+02  0.36216E+04
 0.13049999E+02  0.77693E+04
 0.13099999E+02  0.11430E+05
 0.13149999E+02  0.14521E+05
 0.13199999E+02  0.16880E+05
 0.13249999E+02  0.18883E+05
 0.13299999E+02  0.20596E+05
 0.13349999E+02  0.21866E+05
 0.13399999E+02  0.22691E+05
 0.13449999E+02  0.23166E+05
 0.13499999E+02  0.23065E+05
 0.13549999E+02  0.22060E+05
 0.13599999E+02  0.20464E+05
 0.13649999E+02  0.18146E+05
 0.13699999E+02  0.15040E+05
 0.13749999E+02  0.11410E+05
 0.13799999E+02  0.69183E+04
 0.13849999E+02  0.18917E+04
 0.13899999E+02 -0.37132E+04
 0.13949999E+02 -0.98660E+04
 0.13999999E+02 -0.15909E+05
 0.14049999E+02 -0.21521E+05
 0.14099998E+02 -0.26109E+05
 0.14150000E+02 -0.29880E+05
 0.14199999E+02 -0.32543E+05
 0.14249998E+02 -0.34069E+05
 0.14299999E+02 -0.34426E+05
 0.14349998E+02 -0.33951E+05
 0.14400000E+02 -0.32923E+05
 0.14449999E+02 -0.31380E+05
 0.14499998E+02 -0.29545E+05
 0.14549999E+02 -0.27018E+05
 0.14599998E+02 -0.23677E+05
 0.14650000E+02 -0.19521E+05
 0.14699999E+02 -0.14747E+05
 0.14749998E+02 -0.97577E+04
 0.14799999E+02 -0.47195E+04
 0.14849998E+02  0.28615E+03
 0.14900000E+02  0.52388E+04
 0.14949999E+02  0.10272E+05
 0.14999998E+02  0.15254E+05
 0.15049999E+02  0.20186E+05
 0.15099998E+02  0.24413E+05
 0.15150000E+02  0.27758E+05
 0.15199999E+02  0.30506E+05
 0.15249998E+02  0.32739E+05
 0.15299999E+02  0.34602E+05
 0.15349998E+02  0.35963E+05
 0.15400000E+02  0.37276E+05
 0.15449999E+02  0.38166E+05
 0.15499998E+02  0.38600E+05
 0.15549999E+02  0.38409E+05
 0.15599998E+02  0.38005E+05
 0.15650000E+02  0.37210E+05
 0.15699999E+02  0.36009E+05
 0.15749998E+02  0.34377E+05
 0.15799999E+02  0.32048E+05
 0.15849998E+02  0.29035E+05
 0.15900000E+02  0.25714E+05
 0.15949999E+02  0.22011E+05
 0.15999998E+02  0.18250E+05
 0.16049999E+02  0.14630E+05
 0.16099998E+02  0.10855E+05
 0.16150000E+02  0.73542E+04
 0.16199999E+02  0.39375E+04
 0.16249998E+02  0.12848E+04
 0.16299999E+02 -0.11075E+04
 0.16349998E+02 -0.28637E+04
 0.16400000E+02 -0.42863E+04
 0.16449999E+02 -0.53817E+04
 0.16499998E+02 -0.64907E+04
 0.16549999E+02 -0.75576E+04
 0.16599998E+02 -0.83898E+04
 0.16650000E+02 -0.91144E+04
 0.16699999E+02 -0.93942E+04
 0.16749998E+02 -0.95771E+04
 0.16799999E+02 -0.92441E+04
 0.16849998E+02 -0.88876E+04
 0.16900000E+02 -0.77496E+04
 0.16949999E+02 -0.61015E+04
 0.16999998E+02 -0.38133E+04
 0.17049999E+02 -0.99271E+03
 0.17099998E+02  0.21692E+04
 0.17150000E+02  0.58891E+04
 0.17199999E+02  0.92799E+04
 0.17249998E+02  0.12808E+05
 0.17299999E+02  0.15643E+05
 0.17349998E+02  0.17626E+05
 0.17400000E+02  0.19005E+05
 0.17449999E+02  0.19767E+05
 0.17499998E+02  0.20071E+05
 0.17549999E+02  0.20031E+05
 0.17599998E+02  0.19229E+05
 0.17650000E+02  0.17876E+05
 0.17699999E+02  0.16027E+05
 0.17749998E+02  0.13610E+05
 0.17799999E+02  0.10774E+05
 0.17849998E+02  0.78372E+04
 0.17900000E+02  0.48415E+04
 0.17949999E+02  0.15813E+04
 0.17999998E+02 -0.16097E+04
 0.18049999E+02 -0.48132E+04
 0.18099998E+02 -0.81450E+04
 0.18150000E+02 -0.11373E+05
 0.18199999E+02 -0.13867E+05
 0.18249998E+02 -0.15901E+05
 0.18299999E+02 -0.17249E+05
 0.18349998E+02 -0.18603E+05
 0.18400000E+02 -0.19818E+05
 0.18449999E+02 -0.20702E+05
 0.18499998E+02 -0.21549E+05
 0.18549999E+02 -0.22233E+05
 0.18599998E+02 -0.22867E+05
 0.18650000E+02 -0.23232E+05
 0.18699999E+02 -0.23482E+05
 0.18749998E+02 -0.23210E+05
 0.18799999E+02 -0.22636E+05
 0.18849998E+02 -0.21649E+05
 0.18900000E+02 -0.20287E+05
 0.18949999E+02 -0.18544E+05
 0.18999998E+02 -0.16150E+05
 0.19049999E+02 -0.13595E+05
 0.19099998E+02 -0.10769E+05
 0.19150000E+02 -0.75825E+04
 0.19199999E+02 -0.37555E+04
 0.19249998E+02  0.98054E+02
 0.19299999E+02  0.37950E+04
 0.19349998E+02  0.72672E+04
 0.19400000E+02  0.10656E+05
 0.19449999E+02  0.13670E+05
 0.19499998E+02  0.16434E+05
 0.19549999E+02  0.18896E+05
 0.19599998E+02  0.20934E+05
 0.19650000E+02  0.22448E+05
 0.19699999E+02  0.23340E+05
 0.19749998E+02  0.23454E+05
 0.19799999E+02  0.22769E+05
 0.19849998E+02  0.21884E+05
 0.19900000E+02  0.20417E+05
 0.19949999E+02  0.18900E+05
 0.19999998E+02  0.16925E+05
 0.20049999E+02  0.14698E+05
 0.20099998E+02  0.11693E+05
 0.20150000E+02  0.81018E+04
 0.20199999E+02  0.45847E+04
 0.20249998E+02  0.14379E+04
 0.20299999E+02 -0.15033E+04
 0.20349998E+02 -0.42723E+04
 0.20399998E+02 -0.65078E+04
 0.20449999E+02 -0.80116E+04
 0.20499998E+02 -0.86610E+04
 0.20549999E+02 -0.84558E+04
 0.20599998E+02 -0.70730E+04
 0.20649998E+02 -0.45030E+04
 0.20699999E+02 -0.77781E+03
 0.20749998E+02  0.36761E+04
 0.20799999E+02  0.86865E+04
 0.20849998E+02  0.13826E+05
 0.20899998E+02  0.18820E+05
 0.20949999E+02  0.23037E+05
 0.20999998E+02  0.26984E+05
 0.21049999E+02  0.29908E+05
 0.21099998E+02  0.32994E+05
 0.21149998E+02  0.29579E+05
 0.21199999E+02  0.13693E+05
 0.21249998E+02 -0.51750E+04
 0.21299999E+02 -0.10132E+04
 0.21349998E+02  0.28963E+05
 0.21399998E+02  0.49443E+05
 0.21449999E+02  0.30692E+05
 0.21499998E+02 -0.63442E+04
 0.21549999E+02 -0.30297E+05
 0.21599998E+02 -0.48274E+05
 0.21649998E+02 -0.36784E+05
 0.21699999E+02 -0.20444E+05
 0.21749998E+02 -0.59283E+04
 0.21799999E+02 -0.12942E+05
 0.21849998E+02 -0.70628E+05
 0.21899998E+02 -0.13903E+06
 0.21949999E+02 -0.15457E+06
 0.21999998E+02 -0.11730E+06
 0.22049999E+02 -0.39109E+05
 0.22099998E+02  0.49766E+05
 0.22149998E+02  0.79806E+04
 0.22199999E+02 -0.58355E+05
 0.22249998E+02 -0.11540E+06
 0.22299999E+02 -0.18659E+06
 0.22349998E+02 -0.17823E+06
 0.22399998E+02 -0.58342E+05
 0.22449999E+02  0.18872E+05
 0.22499998E+02  0.29578E+05
 0.22549999E+02 -0.58012E+05
 0.22599998E+02 -0.93953E+05
 0.22649998E+02  0.13701E+05
 0.22699999E+02  0.56079E+05
 0.22749998E+02  0.95425E+05
 0.22799999E+02  0.17848E+06
 0.22849998E+02  0.24418E+06
 0.22899998E+02  0.14377E+06
 0.22949999E+02  0.48749E+05
 0.22999998E+02  0.61866E+05
 0.23049999E+02  0.18545E+06
 0.23099998E+02  0.27988E+06
 0.23149998E+02  0.32501E+06
 0.23199999E+02  0.34456E+06
 0.23249998E+02  0.17317E+06
 0.23299999E+02  0.97792E+04
 0.23349998E+02  0.42625E+05
 0.23399998E+02  0.84693E+05
 0.23449999E+02  0.68355E+05
 0.23499998E+02  0.11528E+06
 0.23549999E+02  0.12011E+06
 0.23599998E+02  0.10310E+06
 0.23649998E+02 -0.64689E+05
 0.23699999E+02 -0.25278E+06
 0.23749998E+02 -0.15692E+06
 0.23799999E+02 -0.22225E+06
 0.23849998E+02 -0.26876E+06
 0.23899998E+02 -0.18443E+06
 0.23949999E+02 -0.20491E+06
 0.23999998E+02 -0.25449E+06
 0.24049999E+02 -0.23297E+06
 0.24099998E+02 -0.12392E+06
 0.24149998E+02  0.99982E+04
 0.24199999E+02 -0.83674E+05
 0.24249998E+02 -0.13133E+06
 0.24299999E+02  0.52403E+05
 0.24349998E+02 -0.12303E+06
 0.24399998E+02 -0.38216E+06
 0.24449999E+02 -0.46061E+06
 0.24499998E+02 -0.20021E+06
 0.24549999E+02  0.40925E+05
 0.24599998E+02  0.64778E+05
 0.24649998E+02  0.12346E+06
 0.24699999E+02  0.39100E+06
 0.24749998E+02  0.32137E+06
 0.24799999E+02  0.56519E+05
 0.24849998E+02  0.38578E+05
 0.24899998E+02  0.66028E+05
 0.24949999E+02  0.10458E+05
 0.24999998E+02 -0.16909E+06
 0.25049999E+02  0.70129E+05
 0.25099998E+02  0.47685E+06
 0.25149998E+02  0.61530E+06
 0.25199999E+02  0.49380E+06
 0.25249998E+02  0.63231E+06
 0.25299999E+02  0.36816E+06
 0.25349998E+02 -0.21270E+06
 0.25399998E+02 -0.34138E+06
 0.25449999E+02 -0.20942E+06
 0.25499998E+02  0.13582E+06
 0.25549999E+02  0.12820E+06
 0.25599998E+02 -0.68345E+05
 0.25649998E+02  0.12992E+06
 0.25699999E+02  0.19661E+06
 0.25749998E+02 -0.47958E+05
 0.25799999E+02 -0.13670E+06
 0.25849998E+02 -0.11963E+06
 0.25899998E+02  0.69935E+04
 0.25949999E+02 -0.11237E+06
 0.25999998E+02 -0.57174E+06
 0.26049999E+02 -0.62337E+06
 0.26099998E+02 -0.34712E+06
 0.26149998E+02  0.79219E+05
 0.26199999E+02  0.31119E+06
 0.26249998E+02  0.97221E+05
 0.26299999E+02  0.16643E+06
 0.26349998E+02  0.32831E+06
 0.26399998E+02  0.12027E+06
 0.26449999E+02  0.16960E+06
 0.26499998E+02  0.43653E+06
 0.26549999E+02  0.76716E+06
 0.26599998E+02  0.91972E+06
 0.26649998E+02  0.57412E+06
 0.26699999E+02  0.36070E+06
 0.26749998E+02  0.36821E+06
 0.26799999E+02  0.30184E+06
 0.26849998E+02  0.16407E+06
 0.26899998E+02  0.23257E+06
 0.26949999E+02  0.30304E+06
 0.26999998E+02  0.35178E+06
 0.27049997E+02  0.35029E+06
 0.27099998E+02 -0.15329E+05
 0.27149998E+02 -0.42163E+06
 0.27199999E+02 -0.36840E+06
 0.27249998E+02 -0.57365E+06
 0.27299997E+02 -0.86577E+06
 0.27349998E+02 -0.78795E+06
 0.27399998E+02 -0.63488E+06
 0.27449999E+02 -0.11786E+06
 0.27499998E+02  0.17152E+06
 0.27549997E+02  0.42753E+05
 0.27599998E+02  0.76961E+05
 0.27649998E+02  0.12652E+06
 0.27699999E+02  0.24353E+05
 0.27749998E+02  0.55899E+05
 0.27799997E+02  0.11053E+06
 0.27849998E+02  0.21319E+06
 0.27899998E+02  0.22199E+06
 0.27949999E+02  0.51697E+04
 0.27999998E+02 -0.24489E+06
 0.28049997E+02 -0.35868E+06
 0.28099998E+02 -0.34323E+06
 0.28149998E+02 -0.38507E+06
 0.28199999E+02 -0.30729E+06
 0.28249998E+02 -0.19138E+06
 0.28299997E+02 -0.24530E+06
 0.28349998E+02 -0.20884E+06
 0.28399998E+02 -0.22380E+06
 0.28449999E+02 -0.13915E+06
 0.28499998E+02 -0.19791E+05
 0.28549997E+02 -0.11146E+05
 0.28599998E+02  0.90456E+05
 0.28649998E+02  0.78028E+05
 0.28699999E+02 -0.10422E+06
 0.28749998E+02 -0.44448E+05
 0.28799997E+02  0.30726E+06
 0.28849998E+02  0.58216E+06
 0.28899998E+02  0.59933E+06
 0.28949999E+02  0.50081E+06
 0.28999998E+02  0.64135E+06
 0.29049997E+02  0.53241E+06
 0.29099998E+02  0.80571E+05
 0.29149998E+02 -0.20205E+06
 0.29199999E+02 -0.10609E+06
 0.29249998E+02 -0.43356E+05
 0.29299997E+02 -0.24527E+05
 0.29349998E+02  0.16576E+06
 0.29399998E+02  0.30033E+06
 0.29449999E+02  0.24268E+06
 0.29499998E+02  0.12365E+06
 0.29549997E+02  0.91681E+05
 0.29599998E+02 -0.85284E+05
 0.29649998E+02 -0.20282E+06
 0.29699999E+02 -0.15632E+06
 0.29749998E+02  0.48713E+04
 0.29799997E+02  0.16782E+05
 0.29849998E+02 -0.64729E+05
 0.29899998E+02  0.29738E+05
 0.29949999E+02  0.12530E+06
 0.29999998E+02  0.20973E+06
 0.30049999E+02  0.95748E+05
 0.30099998E+02 -0.88955E+05
 0.30149998E+02 -0.21767E+06
 0.30199997E+02 -0.39326E+06
 0.30249996E+02 -0.45265E+06
 0.30299999E+02 -0.39158E+06
 0.30349998E+02 -0.25605E+06
 0.30399998E+02 -0.13390E+06
 0.30449997E+02 -0.17984E+06
 0.30499996E+02 -0.23190E+06
 0.30549999E+02 -0.16822E+06
 0.30599998E+02 -0.24478E+06
 0.30649998E+02 -0.29271E+06
 0.30699997E+02 -0.15599E+06
 0.30749996E+02 -0.48204E+05
 0.30799999E+02  0.98021E+05
 0.30849998E+02  0.33461E+06
 0.30899998E+02  0.46365E+06
 0.30949997E+02  0.53941E+06
 0.30999996E+02  0.45047E+06
 0.31049999E+02  0.18274E+06
 0.31099998E+02  0.11151E+06
 0.31149998E+02  0.13026E+06
 0.31199997E+02  0.28566E+06
 0.31249996E+02  0.41212E+06
 0.31299999E+02  0.37725E+06
 0.31349998E+02  0.30171E+06
 0.31399998E+02  0.12643E+06
 0.31449997E+02 -0.52822E+05
 0.31499996E+02 -0.20978E+05
 0.31549999E+02  0.58624E+05
 0.31599998E+02  0.86705E+05
 0.31649998E+02  0.12324E+06
 0.31699997E+02  0.73352E+05
 0.31749996E+02 -0.64455E+04
 0.31799999E+02 -0.32199E+05
 0.31849998E+02 -0.52396E+04
 0.31899998E+02  0.10669E+06
 0.31949997E+02  0.33908E+06
 0.31999996E+02  0.37982E+06
 0.32049999E+02  0.30601E+06
 0.32099998E+02  0.32389E+06
 0.32149998E+02  0.32732E+06
 0.32199997E+02  0.31592E+06
 0.32249996E+02  0.24803E+06
 0.32299999E+02  0.18765E+06
 0.32349998E+02  0.29069E+06
 0.32399998E+02  0.32812E+06
 0.32449997E+02  0.28268E+06
 0.32499996E+02  0.44074E+06
 0.32549999E+02  0.63474E+06
 0.32599998E+02  0.60537E+06
 0.32649998E+02  0.41813E+06
 0.32699997E+02  0.17902E+06
 0.32749996E+02  0.25395E+05
 0.32799999E+02 -0.43176E+05
 0.32849998E+02 -0.37630E+05
 0.32899998E+02  0.69894E+04
 0.32949997E+02  0.12320E+06
 0.32999996E+02  0.22274E+06
 0.33049999E+02  0.84210E+05
 0.33099998E+02 -0.18618E+06
 0.33149998E+02 -0.26742E+06
 0.33199997E+02 -0.29756E+06
 0.33249996E+02 -0.34537E+06
 0.33299999E+02 -0.23775E+06
 0.33349998E+02 -0.92264E+05
 0.33399998E+02  0.44545E+05
 0.33449997E+02  0.66373E+05
 0.33499996E+02  0.14782E+05
 0.33549999E+02 -0.11308E+06
 0.33599998E+02 -0.17543E+06
 0.33649998E+02 -0.13258E+06
 0.33699997E+02  0.57059E+05
 0.33749996E+02  0.24461E+06
 0.33799999E+02  0.19620E+06
 0.33849998E+02  0.14979E+06
 0.33899998E+02  0.19659E+06
 0.33949997E+02  0.30500E+06
 0.33999996E+02  0.26935E+06
 0.34049999E+02  0.10564E+06
 0.34099998E+02 -0.16804E+05
 0.34149998E+02 -0.16376E+06
 0.34199997E+02 -0.28677E+06
 0.34249996E+02 -0.24371E+06
 0.34299999E+02 -0.12167E+06
 0.34349998E+02 -0.10285E+06
 0.34399998E+02 -0.23011E+06
 0.34449997E+02 -0.37690E+06
 0.34499996E+02 -0.48265E+06
 0.34549999E+02 -0.63656E+06
 0.34599998E+02 -0.74982E+06
 0.34649998E+02 -0.59898E+06
 0.34699997E+02 -0.32197E+06
 0.34749996E+02 -0.27365E+06
 0.34799999E+02 -0.37261E+06
 0.34849998E+02 -0.41155E+06
 0.34899998E+02 -0.25124E+06
 0.34949997E+02 -0.13024E+05
 0.34999996E+02  0.13742E+06
 0.35049999E+02  0.27556E+06
 0.35099998E+02  0.48961E+06
 0.35149998E+02  0.55400E+06
 0.35199997E+02  0.43203E+06
 0.35249996E+02  0.26849E+06
 0.35299999E+02  0.18404E+06
 0.35349998E+02  0.22209E+06
 0.35399998E+02  0.27543E+06
 0.35449997E+02  0.24296E+06
 0.35499996E+02  0.11364E+06
 0.35549999E+02  0.43509E+05
 0.35599998E+02 -0.63369E+05
 0.35649998E+02 -0.19518E+06
 0.35699997E+02 -0.25665E+06
 0.35749996E+02 -0.15763E+06
 0.35799999E+02 -0.23742E+05
 0.35849998E+02 -0.10378E+05
 0.35899998E+02 -0.12307E+06
 0.35949997E+02 -0.32673E+06
 0.35999996E+02 -0.40907E+06
 0.36049999E+02 -0.21133E+06
 0.36099998E+02  0.11248E+06
 0.36149998E+02  0.20880E+06
 0.36199997E+02 -0.82749E+05
 0.36249996E+02 -0.37368E+06
 0.36299999E+02 -0.25640E+06
 0.36349998E+02  0.10823E+06
 0.36399998E+02  0.40643E+06
 0.36449997E+02  0.31948E+06
 0.36499996E+02 -0.90887E+05
 0.36549999E+02 -0.53018E+06
 0.36599998E+02 -0.64349E+06
 0.36649998E+02 -0.33684E+06
 0.36699997E+02  0.20067E+06
 0.36749996E+02  0.62026E+06
 0.36799999E+02  0.62114E+06
 0.36849998E+02  0.34224E+06
 0.36899998E+02  0.11888E+06
 0.36949997E+02  0.26752E+05
 0.36999996E+02  0.15588E+06
 0.37049999E+02  0.55102E+06
 0.37099998E+02  0.83994E+06
 0.37149998E+02  0.72784E+06
 0.37199997E+02  0.33950E+06
 0.37249996E+02  0.31102E+06
 0.37299999E+02  0.56982E+06
 0.37349998E+02  0.73426E+06
 0.37399998E+02  0.72544E+06
 0.37449997E+02  0.55182E+06
 0.37499996E+02  0.33478E+06
 0.37549999E+02  0.15680E+06
 0.37599998E+02 -0.68418E+04
 0.37649998E+02  0.16743E+06
 0.37699997E+02  0.45938E+06
 0.37749996E+02  0.41354E+06
 0.37799999E+02  0.15928E+06
 0.37849998E+02 -0.24125E+06
 0.37899998E+02 -0.46963E+06
 0.37949997E+02 -0.28107E+06
 0.37999996E+02 -0.51166E+05
 0.38049999E+02 -0.26355E+05
 0.38099998E+02 -0.10501E+06
 0.38149998E+02 -0.28284E+06
 0.38199997E+02 -0.47515E+06
 0.38249996E+02 -0.67855E+06
 0.38299999E+02 -0.62332E+06
 0.38349998E+02 -0.25645E+06
 0.38399998E+02  0.98866E+03
 0.38449997E+02 -0.32448E+05
 0.38499996E+02 -0.24889E+06
 0.38549999E+02 -0.56880E+06
 0.38599998E+02 -0.64272E+06
 0.38649998E+02 -0.56633E+06
 0.38699997E+02 -0.47602E+06
 0.38749996E+02 -0.30321E+06
 0.38799999E+02 -0.29160E+06
 0.38849998E+02 -0.57896E+06
 0.38899998E+02 -0.89916E+06
 0.38949997E+02 -0.95881E+06
 0.38999996E+02 -0.90930E+06
 0.39049999E+02 -0.80908E+06
 0.39099998E+02 -0.61621E+06
 0.39149998E+02 -0.24531E+06
 0.39199997E+02  0.86081E+05
 0.39249996E+02  0.39785E+06
 0.39299999E+02  0.79076E+06
 0.39349998E+02  0.89217E+06
 0.39399998E+02  0.56500E+06
 0.39449997E+02 -0.33040E+05
 0.39499996E+02 -0.31391E+06
 0.39549999E+02 -0.98458E+05
 0.39599998E+02  0.13433E+06
 0.39649998E+02  0.12556E+06
 0.39699997E+02 -0.18497E+06
 0.39749996E+02 -0.41480E+06
 0.39799999E+02 -0.47822E+06
 0.39849998E+02 -0.68785E+06
 0.39899998E+02 -0.84513E+06
 0.39949997E+02 -0.10582E+07
 0.39999996E+02 -0.11395E+07
 0.40049999E+02 -0.75998E+06
 0.40099998E+02 -0.37079E+06
 0.40149998E+02 -0.71624E+05
 0.40199997E+02  0.16549E+06
 0.40249996E+02  0.42852E+06
 0.40299999E+02  0.56048E+06
 0.40349998E+02  0.28452E+06
 0.40399998E+02  0.18536E+06
 0.40449997E+02  0.39322E+06
 0.40499996E+02  0.79228E+06
 0.40549999E+02  0.10857E+07
 0.40599998E+02  0.92870E+06
 0.40649998E+02  0.55499E+06
 0.40699997E+02  0.72793E+05
 0.40749996E+02 -0.52261E+05
 0.40799999E+02  0.18214E+06
 0.40849998E+02  0.46985E+06
 0.40899998E+02  0.63882E+06
 0.40949997E+02  0.76152E+06
 0.40999996E+02  0.81382E+06
 0.41049999E+02  0.63190E+06
 0.41099998E+02  0.57331E+06
 0.41149998E+02  0.90658E+06
 0.41199997E+02  0.13983E+07
 0.41249996E+02  0.17236E+07
 0.41299999E+02  0.16651E+07
 0.41349998E+02  0.14837E+07
 0.41399998E+02  0.12285E+07
 0.41449997E+02  0.75622E+06
 0.41499996E+02  0.46198E+06
 0.41549999E+02  0.36379E+06
 0.41599998E+02  0.57288E+06
 0.41649998E+02  0.86449E+06
 0.41699997E+02  0.81553E+06
 0.41749996E+02  0.63704E+06
 0.41799999E+02  0.58898E+06
 0.41849998E+02  0.56728E+06
 0.41899998E+02  0.51424E+06
 0.41949997E+02  0.45967E+06
 0.41999996E+02  0.39293E+06
 0.42049999E+02  0.42365E+06
 0.42099998E+02  0.63332E+06
 0.42149998E+02  0.81109E+06
 0.42199997E+02  0.90131E+06
 0.42249996E+02  0.76091E+06
 0.42299999E+02  0.41798E+06
 0.42349998E+02  0.11410E+06
 0.42399998E+02 -0.15275E+06
 0.42449997E+02 -0.18290E+06
 0.42499996E+02  0.16612E+05
 0.42549999E+02  0.15733E+06
 0.42599998E+02  0.12795E+06
 0.42649998E+02  0.29799E+04
 0.42699997E+02 -0.10163E+06
 0.42749996E+02 -0.10057E+06
 0.42799995E+02 -0.10021E+05
 0.42849998E+02  0.84835E+05
 0.42899998E+02 -0.54194E+03
 0.42949997E+02 -0.24200E+06
 0.42999996E+02 -0.49514E+06
 0.43049995E+02 -0.62602E+06
 0.43099998E+02 -0.62396E+06
 0.43149998E+02 -0.35143E+06
 0.43199997E+02  0.14849E+06
 0.43249996E+02  0.54039E+06
 0.43299995E+02  0.72713E+06
 0.43349998E+02  0.73573E+06
 0.43399998E+02  0.68945E+06
 0.43449997E+02  0.63227E+06
 0.43499996E+02  0.33133E+06
 0.43549995E+02 -0.67870E+05
 0.43599998E+02 -0.26602E+06
 0.43649998E+02 -0.26864E+06
 0.43699997E+02 -0.14891E+06
 0.43749996E+02 -0.16145E+06
 0.43799995E+02 -0.18842E+06
 0.43849998E+02 -0.18436E+06
 0.43899998E+02 -0.31242E+06
 0.43949997E+02 -0.40336E+06
 0.43999996E+02 -0.44428E+06
 0.44049995E+02 -0.68071E+06
 0.44099998E+02 -0.92340E+06
 0.44149998E+02 -0.85740E+06
 0.44199997E+02 -0.57032E+06
 0.44249996E+02 -0.40709E+06
 0.44299995E+02 -0.38171E+06
 0.44349998E+02 -0.20947E+06
 0.44399998E+02 -0.82692E+05
 0.44449997E+02 -0.14963E+06
 0.44499996E+02 -0.33494E+06
 0.44549995E+02 -0.62222E+06
 0.44599998E+02 -0.79271E+06
 0.44649998E+02 -0.64420E+06
 0.44699997E+02 -0.30831E+06
 0.44749996E+02 -0.11057E+06
 0.44799995E+02 -0.80544E+05
 0.44849998E+02 -0.26072E+05
 0.44899998E+02  0.49637E+05
 0.44949997E+02  0.61234E+03
 0.44999996E+02 -0.19494E+06
 0.45049995E+02 -0.16918E+06
 0.45099998E+02  0.54035E+05
 0.45149998E+02  0.33071E+06
 0.45199997E+02  0.62116E+06
 0.45249996E+02  0.65077E+06
 0.45299995E+02  0.53425E+06
 0.45349998E+02  0.40532E+06
 0.45399998E+02  0.26534E+06
 0.45449997E+02  0.13597E+06
 0.45499996E+02 -0.33333E+05
 0.45549995E+02 -0.11168E+06
 0.45599998E+02 -0.54388E+05
 0.45649998E+02 -0.11185E+06
 0.45699997E+02 -0.18221E+06
 0.45749996E+02 -0.10383E+06
 0.45799995E+02 -0.28295E+05
 0.45849998E+02  0.40956E+05
 0.45899998E+02  0.10143E+06
 0.45949997E+02  0.70682E+05
 0.45999996E+02  0.97496E+05
 0.46049995E+02  0.11273E+06
 0.46099998E+02  0.93609E+05
 0.46149998E+02  0.17997E+06
 0.46199997E+02  0.28566E+06
 0.46249996E+02  0.37672E+06
 0.46299995E+02  0.44521E+06
 0.46349998E+02  0.49571E+06
 0.46399998E+02  0.57127E+06
 0.46449997E+02  0.70781E+06
 0.46499996E+02  0.78112E+06
 0.46549995E+02  0.55258E+06
 0.46599998E+02  0.37326E+05
 0.46649998E+02 -0.37899E+06
 0.46699997E+02 -0.31832E+06
 0.46749996E+02  0.14570E+05
 0.46799995E+02  0.17648E+06
 0.46849998E+02  0.21002E+06
 0.46899998E+02  0.24937E+06
 0.46949997E+02  0.30609E+06
 0.46999996E+02  0.23891E+06
 0.47049995E+02  0.14549E+05
 0.47099998E+02 -0.17169E+06
 0.47149998E+02 -0.35180E+06
 0.47199997E+02 -0.68345E+06
 0.47249996E+02 -0.11114E+07
 0.47299995E+02 -0.13195E+07
 0.47349998E+02 -0.11628E+07
 0.47399998E+02 -0.98730E+06
 0.47449997E+02 -0.10215E+07
 0.47499996E+02 -0.12012E+07
 0.47549995E+02 -0.14196E+07
 0.47599998E+02 -0.16900E+07
 0.47649998E+02 -0.20123E+07
 0.47699997E+02 -0.21310E+07
 0.47749996E+02 -0.19902E+07
 0.47799995E+02 -0.17555E+07
 0.47849998E+02 -0.16378E+07
 0.47899998E+02 -0.16591E+07
 0.47949997E+02 -0.15906E+07
 0.47999996E+02 -0.14444E+07
 0.48049995E+02 -0.13290E+07
 0.48099998E+02 -0.12843E+07
 0.48149998E+02 -0.13624E+07
 0.48199997E+02 -0.14422E+07
 0.48249996E+02 -0.15356E+07
 0.48299995E+02 -0.16058E+07
 0.48349998E+02 -0.15403E+07
 0.48399998E+02 -0.12705E+07
 0.48449997E+02 -0.79178E+06
 0.48499996E+02 -0.26543E+06
 0.48549995E+02  0.22794E+06
 0.48599998E+02  0.48605E+06
 0.48649998E+02  0.46736E+06
 0.48699997E+02  0.29156E+06
 0.48749996E+02  0.22660E+05
 0.48799995E+02 -0.91867E+05
 0.48849998E+02 -0.11081E+04
 0.48899998E+02  0.21389E+06
 0.48949997E+02  0.38259E+06
 0.48999996E+02  0.40206E+06
 0.49049995E+02  0.33990E+06
 0.49099998E+02  0.34193E+06
 0.49149998E+02  0.50795E+06
 0.49199997E+02  0.65941E+06
 0.49249996E+02  0.72644E+06
 0.49299995E+02  0.65734E+06
 0.49349998E+02  0.50809E+06
 0.49399998E+02  0.50437E+06
 0.49449997E+02  0.72062E+06
 0.49499996E+02  0.93371E+06
 0.49549995E+02  0.10427E+07
 0.49599998E+02  0.97309E+06
 0.49649998E+02  0.66506E+06
 0.49699997E+02  0.34086E+06
 0.49749996E+02  0.18556E+06
 0.49799995E+02  0.22157E+06
 0.49849998E+02  0.22487E+06
 0.49899998E+02  0.10163E+06
 0.49949997E+02  0.78666E+05
 0.49999996E+02  0.26276E+06
 0.50049995E+02  0.49805E+06
 0.50099998E+02  0.75496E+06
 0.50149998E+02  0.97226E+06
 0.50199997E+02  0.10991E+07
 0.50249996E+02  0.10307E+07
 0.50299995E+02  0.70618E+06
 0.50349998E+02  0.39336E+06
 0.50399998E+02  0.12989E+06
 0.50449997E+02 -0.58461E+05
 0.50499996E+02 -0.13900E+06
 0.50549995E+02 -0.16918E+06
 0.50599998E+02 -0.97779E+05
 0.50649998E+02  0.30107E+05
 0.50699997E+02  0.49166E+05
 0.50749996E+02 -0.80597E+05
 0.50799995E+02 -0.25135E+06
 0.50849998E+02 -0.36285E+06
 0.50899998E+02 -0.31297E+06
 0.50949997E+02 -0.11078E+06
 0.50999996E+02  0.16003E+06
 0.51049995E+02  0.45715E+06
 0.51099998E+02  0.74060E+06
 0.51149998E+02  0.94662E+06
 0.51199997E+02  0.10386E+07
 0.51249996E+02  0.10658E+07
 0.51299995E+02  0.99743E+06
 0.51349998E+02  0.80549E+06
 0.51399998E+02  0.57057E+06
 0.51449997E+02  0.43737E+06
 0.51499996E+02  0.61190E+06
 0.51549995E+02  0.10013E+07
 0.51599998E+02  0.12460E+07
 0.51649998E+02  0.13177E+07
 0.51699997E+02  0.13378E+07
 0.51749996E+02  0.12743E+07
 0.51799995E+02  0.11047E+07
 0.51849998E+02  0.90343E+06
 0.51899998E+02  0.77368E+06
 0.51949997E+02  0.69866E+06
 0.51999996E+02  0.63409E+06
 0.52049995E+02  0.65442E+06
 0.52099998E+02  0.79182E+06
 0.52149998E+02  0.83548E+06
 0.52199997E+02  0.75970E+06
 0.52249996E+02  0.69380E+06
 0.52299995E+02  0.68430E+06
 0.52349998E+02  0.75342E+06
 0.52399998E+02  0.88230E+06
 0.52449997E+02  0.10059E+07
 0.52499996E+02  0.10413E+07
 0.52549995E+02  0.10012E+07
 0.52599998E+02  0.99598E+06
 0.52649998E+02  0.98960E+06
 0.52699997E+02  0.81259E+06
 0.52749996E+02  0.51795E+06
 0.52799995E+02  0.35137E+06
 0.52849998E+02  0.39132E+06
 0.52899998E+02  0.54864E+06
 0.52949997E+02  0.79154E+06
 0.52999996E+02  0.10900E+07
 0.53049995E+02  0.12321E+07
 0.53099998E+02  0.10975E+07
 0.53149998E+02  0.97045E+06
 0.53199997E+02  0.90145E+06
 0.53249996E+02  0.72943E+06
 0.53299995E+02  0.52043E+06
 0.53349998E+02  0.31287E+06
 0.53399998E+02  0.16680E+06
 0.53449997E+02  0.55413E+05
 0.53499996E+02 -0.76534E+05
 0.53549995E+02 -0.12852E+06
 0.53599998E+02 -0.88685E+05
 0.53649998E+02 -0.70700E+04
 0.53699997E+02  0.28924E+05
 0.53749996E+02 -0.59296E+03
 0.53799995E+02  0.29865E+05
 0.53849998E+02  0.14864E+06
 0.53899998E+02  0.20715E+06
 0.53949997E+02  0.22853E+06
 0.53999996E+02  0.30063E+06
 0.54049995E+02  0.38924E+06
 0.54099998E+02  0.47575E+06
 0.54149998E+02  0.48514E+06
 0.54199997E+02  0.42730E+06
 0.54249996E+02  0.37840E+06
 0.54299995E+02  0.36172E+06
 0.54349998E+02  0.28591E+06
 0.54399998E+02  0.21093E+06
 0.54449997E+02  0.14394E+06
 0.54499996E+02  0.13412E+05
 0.54549995E+02 -0.12218E+06
 0.54599998E+02 -0.26220E+06
 0.54649998E+02 -0.36913E+06
 0.54699997E+02 -0.53556E+06
 0.54749996E+02 -0.76877E+06
 0.54799995E+02 -0.96220E+06
 0.54849998E+02 -0.10565E+07
 0.54899998E+02 -0.11206E+07
 0.54949997E+02 -0.12157E+07
 0.54999996E+02 -0.13032E+07
 0.55049995E+02 -0.14101E+07
 0.55099998E+02 -0.15133E+07
 0.55149998E+02 -0.15914E+07
 0.55199997E+02 -0.15680E+07
 0.55249996E+02 -0.14436E+07
 0.55299995E+02 -0.13242E+07
 0.55349998E+02 -0.11955E+07
 0.55399998E+02 -0.10348E+07
 0.55449997E+02 -0.83672E+06
 0.55499996E+02 -0.62948E+06
 0.55549995E+02 -0.39841E+06
 0.55599998E+02 -0.17534E+06
 0.55649998E+02 -0.83568E+04
 0.55699997E+02  0.12103E+06
 0.55749996E+02  0.26910E+06
 0.55799995E+02  0.49217E+06
 0.55849995E+02  0.80247E+06
 0.55899998E+02  0.11519E+07
 0.55949997E+02  0.13725E+07
 0.55999996E+02  0.14811E+07
 0.56049995E+02  0.15447E+07
 0.56099995E+02  0.15721E+07
 0.56149998E+02  0.15700E+07
 0.56199997E+02  0.15174E+07
 0.56249996E+02  0.13320E+07
 0.56299995E+02  0.10169E+07
 0.56349995E+02  0.66710E+06
 0.56399998E+02  0.31973E+06
 0.56449997E+02  0.26657E+05
 0.56499996E+02 -0.22897E+06
 0.56549995E+02 -0.44759E+06
 0.56599995E+02 -0.58566E+06
 0.56649998E+02 -0.64676E+06
 0.56699997E+02 -0.56906E+06
 0.56749996E+02 -0.34970E+06
 0.56799995E+02 -0.11582E+06
 0.56849995E+02  0.88874E+05
 0.56899998E+02  0.24301E+06
 0.56949997E+02  0.33780E+06
 0.56999996E+02  0.38887E+06
 0.57049995E+02  0.44535E+06
 0.57099995E+02  0.54361E+06
 0.57149998E+02  0.63522E+06
 0.57199997E+02  0.64515E+06
 0.57249996E+02  0.57159E+06
 0.57299995E+02  0.46850E+06
 0.57349995E+02  0.37489E+06
 0.57399998E+02  0.34906E+06
 0.57449997E+02  0.38998E+06
 0.57499996E+02  0.43816E+06
 0.57549995E+02  0.49028E+06
 0.57599995E+02  0.56261E+06
 0.57649998E+02  0.60403E+06
 0.57699997E+02  0.61521E+06
 0.57749996E+02  0.62868E+06
 0.57799995E+02  0.60085E+06
 0.57849995E+02  0.56207E+06
 0.57899998E+02  0.54318E+06
 0.57949997E+02  0.46226E+06
 0.57999996E+02  0.32298E+06
 0.58049995E+02  0.16046E+06
 0.58099995E+02 -0.21311E+05
 0.58149998E+02 -0.24733E+06
 0.58199997E+02 -0.51899E+06
 0.58249996E+02 -0.75367E+06
 0.58299995E+02 -0.89074E+06
 0.58349995E+02 -0.95757E+06
 0.58399998E+02 -0.10126E+07
 0.58449997E+02 -0.10447E+07
 0.58499996E+02 -0.10445E+07
 0.58549995E+02 -0.94402E+06
 0.58599995E+02 -0.72495E+06
 0.58649998E+02 -0.42415E+06
 0.58699997E+02 -0.56402E+05
 0.58749996E+02  0.32256E+06
 0.58799995E+02  0.64932E+06
 0.58849995E+02  0.85019E+06
 0.58899998E+02  0.94090E+06
 0.58949997E+02  0.92666E+06
 0.58999996E+02  0.81959E+06
 0.59049995E+02  0.70298E+06
 0.59099995E+02  0.61486E+06
 0.59149998E+02  0.54369E+06
 0.59199997E+02  0.44391E+06
 0.59249996E+02  0.31505E+06
 0.59299995E+02  0.16876E+06
 0.59349995E+02  0.41976E+05
 0.59399998E+02 -0.37244E+05
 0.59449997E+02 -0.77237E+05
 0.59499996E+02 -0.55787E+05
 0.59549995E+02  0.11137E+05
 0.59599995E+02  0.34635E+05
 0.59649998E+02 -0.22807E+05
 0.59699997E+02 -0.16960E+06
 0.59749996E+02 -0.47997E+06
 0.59799995E+02 -0.85759E+06
 0.59849995E+02 -0.11579E+07
 0.59899998E+02 -0.13389E+07
 0.59949997E+02 -0.13404E+07
 0.59999996E+02 -0.12113E+07
 0.60049995E+02 -0.98155E+06
 0.60099995E+02 -0.66196E+06
 0.60149998E+02 -0.31987E+06
 0.60199997E+02  0.26643E+05
 0.60249996E+02  0.38552E+06
 0.60299995E+02  0.73165E+06
 0.60349995E+02  0.97939E+06
 0.60399998E+02  0.10485E+07
 0.60449997E+02  0.98483E+06
 0.60499996E+02  0.86435E+06
 0.60549995E+02  0.70566E+06
 0.60599995E+02  0.54506E+06
 0.60649998E+02  0.41350E+06
 0.60699997E+02  0.35277E+06
 0.60749996E+02  0.33254E+06
 0.60799995E+02  0.34682E+06
 0.60849995E+02  0.41331E+06
 0.60899998E+02  0.51716E+06
 0.60949997E+02  0.62014E+06
 0.60999996E+02  0.69168E+06
 0.61049995E+02  0.71877E+06
 0.61099995E+02  0.65635E+06
 0.61149998E+02  0.49920E+06
 0.61199997E+02  0.29363E+06
 0.61249996E+02  0.14237E+06
 0.61299995E+02  0.69159E+05
 0.61349995E+02  0.55641E+05
 0.61399998E+02  0.82125E+05
 0.61449997E+02  0.48769E+05
 0.61499996E+02 -0.53654E+05
 0.61549995E+02 -0.16462E+06
 0.61599995E+02 -0.24247E+06
 0.61649998E+02 -0.24505E+06
 0.61699997E+02 -0.19410E+06
 0.61749996E+02 -0.76482E+05
 0.61799995E+02  0.92956E+05
 0.61849995E+02  0.21389E+06
 0.61899998E+02  0.23243E+06
 0.61949997E+02  0.19699E+06
 0.61999996E+02  0.17558E+06
 0.62049995E+02  0.18244E+06
 0.62099998E+02  0.23468E+06
 0.62149994E+02  0.30515E+06
 0.62199997E+02  0.35757E+06
 0.62249992E+02  0.42428E+06
 0.62299995E+02  0.49688E+06
 0.62349998E+02  0.53525E+06
 0.62399994E+02  0.54223E+06
 0.62449997E+02  0.50374E+06
 0.62499992E+02  0.40822E+06
 0.62549995E+02  0.23164E+06
 0.62599998E+02  0.10981E+04
 0.62649994E+02 -0.14355E+06
 0.62699997E+02 -0.16847E+06
 0.62749992E+02 -0.11351E+06
 0.62799995E+02  0.27578E+05
 0.62849998E+02  0.19051E+06
 0.62899994E+02  0.32295E+06
 0.62949997E+02  0.36695E+06
 0.62999992E+02  0.33443E+06
 0.63049995E+02  0.27068E+06
 0.63099998E+02  0.17946E+06
 0.63149994E+02  0.10052E+06
 0.63199997E+02 -0.13641E+05
 0.63249992E+02 -0.16725E+06
 0.63299995E+02 -0.36235E+06
 0.63349998E+02 -0.60684E+06
 0.63399994E+02 -0.85036E+06
 0.63449997E+02 -0.10525E+07
 0.63499992E+02 -0.12092E+07
 0.63549995E+02 -0.13242E+07
 0.63599998E+02 -0.13754E+07
 0.63649994E+02 -0.13379E+07
 0.63699997E+02 -0.11988E+07
 0.63749992E+02 -0.10053E+07
 0.63799995E+02 -0.82780E+06
 0.63849998E+02 -0.70949E+06
 0.63899994E+02 -0.60830E+06
 0.63949997E+02 -0.52741E+06
 0.63999992E+02 -0.48051E+06
 0.64049995E+02 -0.38612E+06
 0.64099998E+02 -0.18459E+06
 0.64149994E+02  0.97070E+05
 0.64199997E+02  0.38818E+06
 0.64249992E+02  0.65212E+06
 0.64299995E+02  0.89986E+06
 0.64349998E+02  0.11262E+07
 0.64399994E+02  0.13090E+07
 0.64449997E+02  0.14264E+07
 0.64499992E+02  0.14519E+07
 0.64549995E+02  0.13827E+07
 0.64599998E+02  0.12342E+07
 0.64649994E+02  0.10716E+07
 0.64699997E+02  0.93178E+06
 0.64749992E+02  0.78509E+06
 0.64799995E+02  0.63298E+06
 0.64849998E+02  0.44892E+06
 0.64899994E+02  0.19487E+06
 0.64949997E+02 -0.10345E+06
 0.64999992E+02 -0.37123E+06
 0.65049995E+02 -0.53422E+06
 0.65099998E+02 -0.59825E+06
 0.65149994E+02 -0.60766E+06
 0.65199997E+02 -0.61306E+06
 0.65249992E+02 -0.60325E+06
 0.65299995E+02 -0.56870E+06
 0.65349998E+02 -0.51204E+06
 0.65399994E+02 -0.42931E+06
 0.65449997E+02 -0.31963E+06
 0.65499992E+02 -0.18467E+06
 0.65549995E+02 -0.70237E+05
 0.65599998E+02  0.40838E+05
 0.65649994E+02  0.16108E+06
 0.65699997E+02  0.30809E+06
 0.65749992E+02  0.48863E+06
 0.65799995E+02  0.68786E+06
 0.65849998E+02  0.86331E+06
 0.65899994E+02  0.99753E+06
 0.65949997E+02  0.11114E+07
 0.65999992E+02  0.11817E+07
 0.66049995E+02  0.11972E+07
 0.66099998E+02  0.11797E+07
 0.66149994E+02  0.11589E+07
 0.66199997E+02  0.11353E+07
 0.66249992E+02  0.11183E+07
 0.66299995E+02  0.11001E+07
 0.66349998E+02  0.11010E+07
 0.66399994E+02  0.11133E+07
 0.66449997E+02  0.11009E+07
 0.66499992E+02  0.10421E+07
 0.66549995E+02  0.93177E+06
 0.66599998E+02  0.80016E+06
 0.66649994E+02  0.68183E+06
 0.66699997E+02  0.58634E+06
 0.66749992E+02  0.48841E+06
 0.66799995E+02  0.30734E+06
 0.66849998E+02  0.28164E+05
 0.66899994E+02 -0.26828E+06
 0.66949997E+02 -0.55635E+06
 0.66999992E+02 -0.78884E+06
 0.67049995E+02 -0.95891E+06
 0.67099998E+02 -0.10841E+07
 0.67149994E+02 -0.11479E+07
 0.67199997E+02 -0.11489E+07
 0.67249992E+02 -0.11162E+07
 0.67299995E+02 -0.10933E+07
 0.67349998E+02 -0.11081E+07
 0.67399994E+02 -0.11287E+07
 0.67449997E+02 -0.10945E+07
 0.67499992E+02 -0.99977E+06
 0.67549995E+02 -0.84928E+06
 0.67599998E+02 -0.62271E+06
 0.67649994E+02 -0.33719E+06
 0.67699997E+02 -0.61937E+05
 0.67749992E+02  0.17965E+06
 0.67799995E+02  0.37059E+06
 0.67849998E+02  0.53721E+06
 0.67899994E+02  0.70479E+06
 0.67949997E+02  0.86955E+06
 0.67999992E+02  0.10196E+07
 0.68049995E+02  0.11337E+07
 0.68099998E+02  0.11987E+07
 0.68149994E+02  0.12065E+07
 0.68199997E+02  0.11530E+07
 0.68249992E+02  0.99029E+06
 0.68299995E+02  0.73582E+06
 0.68349998E+02  0.48061E+06
 0.68399994E+02  0.27416E+06
 0.68449997E+02  0.88427E+05
 0.68499992E+02 -0.89058E+05
 0.68549995E+02 -0.26420E+06
 0.68599998E+02 -0.46574E+06
 0.68649994E+02 -0.70168E+06
 0.68699997E+02 -0.94152E+06
 0.68749992E+02 -0.11260E+07
 0.68799995E+02 -0.12466E+07
 0.68849998E+02 -0.13410E+07
 0.68899994E+02 -0.13983E+07
 0.68949997E+02 -0.13990E+07
 0.68999992E+02 -0.13531E+07
 0.69049995E+02 -0.12569E+07
 0.69099998E+02 -0.11450E+07
 0.69149994E+02 -0.10327E+07
 0.69199997E+02 -0.88341E+06
 0.69249992E+02 -0.66599E+06
 0.69299995E+02 -0.39705E+06
 0.69349998E+02 -0.12584E+06
 0.69399994E+02  0.96064E+05
 0.69449997E+02  0.26342E+06
 0.69499992E+02  0.41060E+06
 0.69549995E+02  0.53757E+06
 0.69599998E+02  0.63948E+06
 0.69649994E+02  0.70910E+06
 0.69699997E+02  0.75599E+06
 0.69749992E+02  0.79889E+06
 0.69799995E+02  0.86980E+06
 0.69849998E+02  0.98268E+06
 0.69899994E+02  0.11066E+07
 0.69949997E+02  0.12071E+07
 0.69999992E+02  0.12297E+07
 0.70049995E+02  0.11431E+07
 0.70099998E+02  0.98543E+06
 0.70149994E+02  0.81985E+06
 0.70199997E+02  0.66689E+06
 0.70249992E+02  0.52697E+06
 0.70299995E+02  0.40755E+06
 0.70349998E+02  0.32909E+06
 0.70399994E+02  0.27618E+06
 0.70449997E+02  0.20741E+06
 0.70499992E+02  0.13243E+06
 0.70549995E+02  0.57561E+05
 0.70599998E+02 -0.12194E+05
 0.70649994E+02 -0.81254E+05
 0.70699997E+02 -0.17430E+06
 0.70749992E+02 -0.27882E+06
 0.70799995E+02 -0.37637E+06
 0.70849998E+02 -0.45064E+06
 0.70899994E+02 -0.46903E+06
 0.70949997E+02 -0.42453E+06
 0.70999992E+02 -0.32903E+06
 0.71049995E+02 -0.20051E+06
 0.71099998E+02 -0.85626E+05
 0.71149994E+02  0.13187E+05
 0.71199997E+02  0.10253E+06
 0.71249992E+02  0.17324E+06
 0.71299995E+02  0.23010E+06
 0.71349998E+02  0.27382E+06
 0.71399994E+02  0.30924E+06
 0.71449997E+02  0.35845E+06
 0.71499992E+02  0.42478E+06
 0.71549995E+02  0.48086E+06
 0.71599998E+02  0.50759E+06
 0.71649994E+02  0.48994E+06
 0.71699997E+02  0.44246E+06
 0.71749992E+02  0.38663E+06
 0.71799995E+02  0.33098E+06
 0.71849998E+02  0.26295E+06
 0.71899994E+02  0.17204E+06
 0.71949997E+02  0.47989E+05
 0.71999992E+02 -0.10242E+06
 0.72049995E+02 -0.26116E+06
 0.72099998E+02 -0.40859E+06
 0.72149994E+02 -0.51288E+06
 0.72199997E+02 -0.56203E+06
 0.72249992E+02 -0.57498E+06
 0.72299995E+02 -0.59526E+06
 0.72349998E+02 -0.62805E+06
 0.72399994E+02 -0.65032E+06
 0.72449997E+02 -0.65562E+06
 0.72499992E+02 -0.64929E+06
 0.72549995E+02 -0.63546E+06
 0.72599998E+02 -0.60728E+06
 0.72649994E+02 -0.57367E+06
 0.72699997E+02 -0.54719E+06
 0.72749992E+02 -0.52643E+06
 0.72799995E+02 -0.50771E+06
 0.72849998E+02 -0.47890E+06
 0.72899994E+02 -0.42155E+06
 0.72949997E+02 -0.33366E+06
 0.72999992E+02 -0.24024E+06
 0.73049995E+02 -0.15882E+06
 0.73099998E+02 -0.78036E+05
 0.73149994E+02  0.27080E+05
 0.73199997E+02  0.14542E+06
 0.73249992E+02  0.25132E+06
 0.73299995E+02  0.32760E+06
 0.73349998E+02  0.37564E+06
 0.73399994E+02  0.38290E+06
 0.73449997E+02  0.34549E+06
 0.73499992E+02  0.31501E+06
 0.73549995E+02  0.32757E+06
 0.73599998E+02  0.36647E+06
 0.73649994E+02  0.39778E+06
 0.73699997E+02  0.42080E+06
 0.73749992E+02  0.42221E+06
 0.73799995E+02  0.38068E+06
 0.73849998E+02  0.30862E+06
 0.73899994E+02  0.20890E+06
 0.73949997E+02  0.76871E+05
 0.73999992E+02 -0.58855E+05
 0.74049995E+02 -0.17564E+06
 0.74099998E+02 -0.26230E+06
 0.74149994E+02 -0.32314E+06
 0.74199997E+02 -0.37322E+06
 0.74249992E+02 -0.41943E+06
 0.74299995E+02 -0.45612E+06
 0.74349998E+02 -0.46909E+06
 0.74399994E+02 -0.45138E+06
 0.74449997E+02 -0.40937E+06
 0.74499992E+02 -0.34153E+06
 0.74549995E+02 -0.22758E+06
 0.74599998E+02 -0.94085E+05
 0.74649994E+02  0.13306E+05
 0.74699997E+02  0.85312E+05
 0.74749992E+02  0.16832E+06
 0.74799995E+02  0.27301E+06
 0.74849998E+02  0.35941E+06
 0.74899994E+02  0.40490E+06
 0.74949997E+02  0.43433E+06
 0.74999992E+02  0.48096E+06
 0.75049995E+02  0.53348E+06
 0.75099998E+02  0.58865E+06
 0.75149994E+02  0.64634E+06
 0.75199997E+02  0.68858E+06
 0.75249992E+02  0.68088E+06
 0.75299995E+02  0.64192E+06
 0.75349998E+02  0.58947E+06
 0.75399994E+02  0.51986E+06
 0.75449997E+02  0.45514E+06
 0.75499992E+02  0.39883E+06
 0.75549995E+02  0.33619E+06
 0.75599998E+02  0.24686E+06
 0.75649994E+02  0.14152E+06
 0.75699997E+02  0.33935E+05
 0.75749992E+02 -0.81486E+05
 0.75799995E+02 -0.20406E+06
 0.75849998E+02 -0.32629E+06
 0.75899994E+02 -0.43724E+06
 0.75949997E+02 -0.51670E+06
 0.75999992E+02 -0.55268E+06
 0.76049995E+02 -0.54139E+06
 0.76099998E+02 -0.47204E+06
 0.76149994E+02 -0.35485E+06
 0.76199997E+02 -0.20839E+06
 0.76249992E+02 -0.40978E+05
 0.76299995E+02  0.13428E+06
 0.76349998E+02  0.28986E+06
 0.76399994E+02  0.42056E+06
 0.76449997E+02  0.54099E+06
 0.76499992E+02  0.64352E+06
 0.76549995E+02  0.70583E+06
 0.76599998E+02  0.70829E+06
 0.76649994E+02  0.65051E+06
 0.76699997E+02  0.54015E+06
 0.76749992E+02  0.39441E+06
 0.76799995E+02  0.23266E+06
 0.76849998E+02  0.77912E+05
 0.76899994E+02 -0.53434E+05
 0.76949997E+02 -0.16610E+06
 0.76999992E+02 -0.25028E+06
 0.77049995E+02 -0.28541E+06
 0.77099998E+02 -0.27761E+06
 0.77149994E+02 -0.23105E+06
 0.77199997E+02 -0.14622E+06
 0.77249992E+02 -0.40238E+05
 0.77299995E+02  0.70115E+05
 0.77349998E+02  0.15745E+06
 0.77399994E+02  0.22400E+06
 0.77449997E+02  0.29996E+06
 0.77499992E+02  0.38259E+06
 0.77549995E+02  0.43489E+06
 0.77599998E+02  0.45131E+06
 0.77649994E+02  0.44369E+06
 0.77699997E+02  0.40945E+06
 0.77749992E+02  0.33766E+06
 0.77799995E+02  0.23494E+06
 0.77849998E+02  0.12527E+06
 0.77899994E+02  0.93480E+04
 0.77949997E+02 -0.10032E+06
 0.77999992E+02 -0.19042E+06
 0.78049995E+02 -0.25062E+06
 0.78099998E+02 -0.26940E+06
 0.78149994E+02 -0.25903E+06
 0.78199997E+02 -0.23589E+06
 0.78249992E+02 -0.21548E+06
 0.78299995E+02 -0.19623E+06
 0.78349998E+02 -0.16017E+06
 0.78399994E+02 -0.10856E+06
 0.78449997E+02 -0.36959E+05
 0.78499992E+02  0.57264E+05
 0.78549995E+02  0.14502E+06
 0.78599998E+02  0.19920E+06
 0.78649994E+02  0.21641E+06
 0.78699997E+02  0.20900E+06
 0.78749992E+02  0.19276E+06
 0.78799995E+02  0.18286E+06
 0.78849998E+02  0.19436E+06
 0.78899994E+02  0.23615E+06
 0.78949997E+02  0.29042E+06
 0.78999992E+02  0.33991E+06
 0.79049995E+02  0.37407E+06
 0.79099998E+02  0.38089E+06
 0.79149994E+02  0.37254E+06
 0.79199997E+02  0.35692E+06
 0.79249992E+02  0.31452E+06
 0.79299995E+02  0.22755E+06
 0.79349998E+02  0.10752E+06
 0.79399994E+02 -0.30638E+05
 0.79449997E+02 -0.17328E+06
 0.79499992E+02 -0.31149E+06
 0.79549995E+02 -0.44798E+06
 0.79599998E+02 -0.57951E+06
 0.79649994E+02 -0.68381E+06
 0.79699997E+02 -0.74548E+06
 0.79749992E+02 -0.78541E+06
 0.79799995E+02 -0.82198E+06
 0.79849998E+02 -0.85808E+06
 0.79899994E+02 -0.89192E+06
 0.79949997E+02 -0.89195E+06
 0.79999992E+02 -0.83050E+06
 0.80049995E+02 -0.71930E+06
 0.80099998E+02 -0.58353E+06
 0.80149994E+02 -0.45847E+06
 0.80199997E+02 -0.35514E+06
 0.80249992E+02 -0.24811E+06
 0.80299995E+02 -0.12101E+06
 0.80349998E+02  0.34919E+05
 0.80399994E+02  0.20465E+06
 0.80449997E+02  0.35732E+06
 0.80499992E+02  0.48250E+06
 0.80549995E+02  0.57398E+06
 0.80599998E+02  0.62741E+06
 0.80649994E+02  0.63210E+06
 0.80699997E+02  0.59343E+06
 0.80749992E+02  0.53730E+06
 0.80799995E+02  0.47239E+06
 0.80849998E+02  0.38549E+06
 0.80899994E+02  0.25826E+06
 0.80949997E+02  0.89262E+05
 0.80999992E+02 -0.11110E+06
 0.81049995E+02 -0.32150E+06
 0.81099998E+02 -0.52267E+06
 0.81149994E+02 -0.70809E+06
 0.81199997E+02 -0.87346E+06
 0.81249992E+02 -0.10124E+07
 0.81299995E+02 -0.11188E+07
 0.81349998E+02 -0.12017E+07
 0.81399994E+02 -0.12546E+07
 0.81449997E+02 -0.12695E+07
 0.81499992E+02 -0.12587E+07
 0.81549995E+02 -0.12154E+07
 0.81599998E+02 -0.11216E+07
 0.81649994E+02 -0.96331E+06
 0.81699997E+02 -0.75701E+06
 0.81749992E+02 -0.53263E+06
 0.81799995E+02 -0.30134E+06
 0.81849998E+02 -0.81061E+05
 0.81899994E+02  0.11923E+06
 0.81949997E+02  0.31065E+06
 0.81999992E+02  0.49765E+06
 0.82049995E+02  0.67848E+06
 0.82099998E+02  0.83422E+06
 0.82149994E+02  0.94294E+06
 0.82199997E+02  0.10036E+07
 0.82249992E+02  0.10207E+07
 0.82299995E+02  0.99249E+06
 0.82349998E+02  0.91644E+06
 0.82399994E+02  0.81261E+06
 0.82449997E+02  0.70633E+06
 0.82499992E+02  0.60027E+06
 0.82549995E+02  0.49972E+06
 0.82599998E+02  0.40208E+06
 0.82649994E+02  0.30100E+06
 0.82699997E+02  0.22145E+06
 0.82749992E+02  0.17255E+06
 0.82799995E+02  0.14394E+06
 0.82849998E+02  0.12534E+06
 0.82899994E+02  0.99936E+05
 0.82949997E+02  0.69377E+05
 0.82999992E+02  0.45598E+05
 0.83049995E+02  0.40706E+05
 0.83099998E+02  0.67108E+05
 0.83149994E+02  0.12367E+06
 0.83199997E+02  0.19324E+06
 0.83249992E+02  0.27308E+06
 0.83299995E+02  0.36040E+06
 0.83349998E+02  0.43071E+06
 0.83399994E+02  0.47360E+06
 0.83449997E+02  0.49618E+06
 0.83499992E+02  0.49078E+06
 0.83549995E+02  0.45334E+06
 0.83599998E+02  0.39017E+06
 0.83649994E+02  0.31186E+06
 0.83699997E+02  0.23200E+06
 0.83749992E+02  0.15440E+06
 0.83799995E+02  0.97287E+05
 0.83849998E+02  0.62777E+05
 0.83899994E+02  0.22405E+05
 0.83949997E+02 -0.36299E+05
 0.83999992E+02 -0.10422E+06
 0.84049995E+02 -0.17397E+06
 0.84099998E+02 -0.24923E+06
 0.84149994E+02 -0.33846E+06
 0.84199997E+02 -0.43673E+06
 0.84249992E+02 -0.53233E+06
 0.84299995E+02 -0.61209E+06
 0.84349998E+02 -0.66645E+06
 0.84399994E+02 -0.69233E+06
 0.84449997E+02 -0.69335E+06
 0.84499992E+02 -0.68714E+06
 0.84549995E+02 -0.68012E+06
 0.84599998E+02 -0.66816E+06
 0.84649994E+02 -0.64751E+06
 0.84699997E+02 -0.61158E+06
 0.84749992E+02 -0.56458E+06
 0.84799995E+02 -0.51855E+06
 0.84849998E+02 -0.46794E+06
 0.84899994E+02 -0.40949E+06
 0.84949997E+02 -0.35511E+06
 0.84999992E+02 -0.32638E+06
 0.85049995E+02 -0.33592E+06
 0.85099998E+02 -0.36528E+06
 0.85149994E+02 -0.38901E+06
 0.85199997E+02 -0.38612E+06
 0.85249992E+02 -0.35356E+06
 0.85299995E+02 -0.29396E+06
 0.85349998E+02 -0.20889E+06
 0.85399994E+02 -0.10590E+06
 0.85449997E+02  0.61116E+03
 0.85499992E+02  0.92824E+05
 0.85549995E+02  0.15714E+06
 0.85599998E+02  0.17945E+06
 0.85649994E+02  0.16578E+06
 0.85699997E+02  0.13047E+06
 0.85749992E+02  0.77694E+05
 0.85799995E+02  0.29827E+05
 0.85849998E+02  0.31802E+04
 0.85899994E+02  0.17018E+04
 0.85949997E+02  0.25022E+05
 0.85999992E+02  0.59630E+05
 0.86049995E+02  0.99828E+05
 0.86099998E+02  0.14502E+06
 0.86149994E+02  0.19654E+06
 0.86199997E+02  0.26162E+06
 0.86249992E+02  0.34239E+06
 0.86299995E+02  0.43310E+06
 0.86349998E+02  0.53063E+06
 0.86399994E+02  0.62501E+06
 0.86449997E+02  0.70146E+06
 0.86499992E+02  0.74624E+06
 0.86549995E+02  0.76123E+06
 0.86599998E+02  0.75924E+06
 0.86649994E+02  0.74709E+06
 0.86699997E+02  0.72394E+06
 0.86749992E+02  0.67517E+06
 0.86799995E+02  0.59161E+06
 0.86849998E+02  0.48655E+06
 0.86899994E+02  0.37657E+06
 0.86949997E+02  0.26870E+06
 0.86999992E+02  0.16498E+06
 0.87049995E+02  0.62556E+05
 0.87099998E+02 -0.50146E+05
 0.87149994E+02 -0.17691E+06
 0.87199997E+02 -0.30459E+06
 0.87249992E+02 -0.42447E+06
 0.87299995E+02 -0.53395E+06
 0.87349998E+02 -0.62278E+06
 0.87399994E+02 -0.68861E+06
 0.87449997E+02 -0.73325E+06
 0.87499992E+02 -0.75125E+06
 0.87549995E+02 -0.75068E+06
 0.87599991E+02 -0.73756E+06
 0.87649994E+02 -0.71225E+06
 0.87699997E+02 -0.67911E+06
 0.87749992E+02 -0.63908E+06
 0.87799995E+02 -0.58371E+06
 0.87849991E+02 -0.50224E+06
 0.87899994E+02 -0.39669E+06
 0.87949997E+02 -0.29821E+06
 0.87999992E+02 -0.22826E+06
 0.88049995E+02 -0.18186E+06
 0.88099991E+02 -0.16772E+06
 0.88149994E+02 -0.18134E+06
 0.88199997E+02 -0.20585E+06
 0.88249992E+02 -0.23191E+06
 0.88299995E+02 -0.25759E+06
 0.88349991E+02 -0.28469E+06
 0.88399994E+02 -0.31088E+06
 0.88449997E+02 -0.34030E+06
 0.88499992E+02 -0.36818E+06
 0.88549995E+02 -0.37822E+06
 0.88599991E+02 -0.36647E+06
 0.88649994E+02 -0.33630E+06
 0.88699997E+02 -0.28913E+06
 0.88749992E+02 -0.22055E+06
 0.88799995E+02 -0.13093E+06
 0.88849991E+02 -0.30529E+05
 0.88899994E+02  0.78545E+05
 0.88949997E+02  0.18841E+06
 0.88999992E+02  0.29434E+06
 0.89049995E+02  0.39901E+06
 0.89099991E+02  0.50219E+06
 0.89149994E+02  0.59534E+06
 0.89199997E+02  0.65648E+06
 0.89249992E+02  0.68560E+06
 0.89299995E+02  0.68909E+06
 0.89349991E+02  0.67204E+06
 0.89399994E+02  0.64760E+06
 0.89449997E+02  0.61790E+06
 0.89499992E+02  0.57818E+06
 0.89549995E+02  0.52577E+06
 0.89599991E+02  0.46172E+06
 0.89649994E+02  0.38717E+06
 0.89699997E+02  0.29916E+06
 0.89749992E+02  0.20087E+06
 0.89799995E+02  0.11264E+06
 0.89849991E+02  0.41315E+05
 0.89899994E+02 -0.24371E+05
 0.89949997E+02 -0.93724E+05
 0.89999992E+02 -0.16937E+06
 0.90049995E+02 -0.24555E+06
 0.90099991E+02 -0.31798E+06
 0.90149994E+02 -0.38099E+06
 0.90199997E+02 -0.42777E+06
 0.90249992E+02 -0.45685E+06
 0.90299995E+02 -0.46996E+06
 0.90349991E+02 -0.47715E+06
 0.90399994E+02 -0.48864E+06
 0.90449997E+02 -0.49298E+06
 0.90499992E+02 -0.47176E+06
 0.90549995E+02 -0.42430E+06
 0.90599991E+02 -0.36410E+06
 0.90649994E+02 -0.29481E+06
 0.90699997E+02 -0.21156E+06
 0.90749992E+02 -0.12643E+06
 0.90799995E+02 -0.55415E+05
 0.90849991E+02  0.25277E+04
 0.90899994E+02  0.54504E+05
 0.90949997E+02  0.10833E+06
 0.90999992E+02  0.16338E+06
 0.91049995E+02  0.21614E+06
 0.91099991E+02  0.25979E+06
 0.91149994E+02  0.28793E+06
 0.91199997E+02  0.30483E+06
 0.91249992E+02  0.31152E+06
 0.91299995E+02  0.31001E+06
 0.91349991E+02  0.30556E+06
 0.91399994E+02  0.29861E+06
 0.91449997E+02  0.28683E+06
 0.91499992E+02  0.27949E+06
 0.91549995E+02  0.27519E+06
 0.91599991E+02  0.26648E+06
 0.91649994E+02  0.25699E+06
 0.91699997E+02  0.24909E+06
 0.91749992E+02  0.24013E+06
 0.91799995E+02  0.22386E+06
 0.91849991E+02  0.19234E+06
 0.91899994E+02  0.14412E+06
 0.91949997E+02  0.86128E+05
 0.91999992E+02  0.36471E+05
 0.92049995E+02  0.97370E+04
 0.92099991E+02 -0.59920E+04
 0.92149994E+02 -0.36048E+05
 0.92199997E+02 -0.94778E+05
 0.92249992E+02 -0.17408E+06
 0.92299995E+02 -0.27238E+06
 0.92349991E+02 -0.39024E+06
 0.92399994E+02 -0.51273E+06
 0.92449997E+02 -0.61996E+06
 0.92499992E+02 -0.70805E+06
 0.92549995E+02 -0.78326E+06
 0.92599991E+02 -0.83865E+06
 0.92649994E+02 -0.86476E+06
 0.92699997E+02 -0.86295E+06
 0.92749992E+02 -0.83908E+06
 0.92799995E+02 -0.80264E+06
 0.92849991E+02 -0.75678E+06
 0.92899994E+02 -0.69647E+06
 0.92949997E+02 -0.62108E+06
 0.92999992E+02 -0.53549E+06
 0.93049995E+02 -0.45751E+06
 0.93099991E+02 -0.39643E+06
 0.93149994E+02 -0.34992E+06
 0.93199997E+02 -0.31594E+06
 0.93249992E+02 -0.29687E+06
 0.93299995E+02 -0.28624E+06
 0.93349991E+02 -0.27042E+06
 0.93399994E+02 -0.24115E+06
 0.93449997E+02 -0.19630E+06
 0.93499992E+02 -0.14090E+06
 0.93549995E+02 -0.77508E+05
 0.93599991E+02 -0.21994E+05
 0.93649994E+02  0.56739E+04
 0.93699997E+02 -0.37913E+03
 0.93749992E+02 -0.34336E+05
 0.93799995E+02 -0.76559E+05
 0.93849991E+02 -0.10622E+06
 0.93899994E+02 -0.11744E+06
 0.93949997E+02 -0.10981E+06
 0.93999992E+02 -0.81941E+05
 0.94049995E+02 -0.42838E+05
 0.94099991E+02 -0.14356E+05
 0.94149994E+02 -0.68765E+04
 0.94199997E+02 -0.45051E+04
 0.94249992E+02  0.12735E+05
 0.94299995E+02  0.49839E+05
 0.94349991E+02  0.98057E+05
 0.94399994E+02  0.14509E+06
 0.94449997E+02  0.18076E+06
 0.94499992E+02  0.19750E+06
 0.94549995E+02  0.19770E+06
 0.94599991E+02  0.19362E+06
 0.94649994E+02  0.19155E+06
 0.94699997E+02  0.19884E+06
 0.94749992E+02  0.21457E+06
 0.94799995E+02  0.22268E+06
 0.94849991E+02  0.21636E+06
 0.94899994E+02  0.19445E+06
 0.94949997E+02  0.16300E+06
 0.94999992E+02  0.13124E+06
 0.95049995E+02  0.10959E+06
 0.95099991E+02  0.10132E+06
 0.95149994E+02  0.98947E+05
 0.95199997E+02  0.91381E+05
 0.95249992E+02  0.83389E+05
 0.95299995E+02  0.89327E+05
 0.95349991E+02  0.10517E+06
 0.95399994E+02  0.12003E+06
 0.95449997E+02  0.12482E+06
 0.95499992E+02  0.12507E+06
 0.95549995E+02  0.12070E+06
 0.95599991E+02  0.98592E+05
 0.95649994E+02  0.55803E+05
 0.95699997E+02 -0.34743E+04
 0.95749992E+02 -0.62124E+05
 0.95799995E+02 -0.10361E+06
 0.95849991E+02 -0.13662E+06
 0.95899994E+02 -0.17460E+06
 0.95949997E+02 -0.21756E+06
 0.95999992E+02 -0.25361E+06
 0.96049995E+02 -0.27380E+06
 0.96099991E+02 -0.27481E+06
 0.96149994E+02 -0.25573E+06
 0.96199997E+02 -0.21663E+06
 0.96249992E+02 -0.16593E+06
 0.96299995E+02 -0.12396E+06
 0.96349991E+02 -0.10210E+06
 0.96399994E+02 -0.96066E+05
 0.96449997E+02 -0.94137E+05
 0.96499992E+02 -0.90312E+05
 0.96549995E+02 -0.86140E+05
 0.96599991E+02 -0.81674E+05
 0.96649994E+02 -0.82831E+05
 0.96699997E+02 -0.89673E+05
 0.96749992E+02 -0.95074E+05
 0.96799995E+02 -0.97181E+05
 0.96849991E+02 -0.95209E+05
 0.96899994E+02 -0.87905E+05
 0.96949997E+02 -0.69472E+05
 0.96999992E+02 -0.41949E+05
 0.97049995E+02 -0.13260E+05
 0.97099991E+02  0.12677E+05
 0.97149994E+02  0.36036E+05
 0.97199997E+02  0.63130E+05
 0.97249992E+02  0.95539E+05
 0.97299995E+02  0.12461E+06
 0.97349991E+02  0.14083E+06
 0.97399994E+02  0.14084E+06
 0.97449997E+02  0.13030E+06
 0.97499992E+02  0.10343E+06
 0.97549995E+02  0.49235E+05
 0.97599991E+02 -0.34075E+05
 0.97649994E+02 -0.14010E+06
 0.97699997E+02 -0.25070E+06
 0.97749992E+02 -0.34634E+06
 0.97799995E+02 -0.41222E+06
 0.97849991E+02 -0.44776E+06
 0.97899994E+02 -0.46300E+06
 0.97949997E+02 -0.46467E+06
 0.97999992E+02 -0.45651E+06
