-0.20000000E+01 -0.18930E+05
-0.19500000E+01 -0.17093E+05
-0.19000000E+01 -0.14671E+05
-0.18500000E+01 -0.12126E+05
-0.18000000E+01 -0.99257E+04
-0.17500000E+01 -0.84212E+04
-0.17000000E+01 -0.74349E+04
-0.16500001E+01 -0.66694E+04
-0.16000000E+01 -0.64346E+04
-0.15500000E+01 -0.69163E+04
-0.15000000E+01 -0.80041E+04
-0.14500000E+01 -0.94349E+04
-0.14000001E+01 -0.11102E+05
-0.13500000E+01 -0.12866E+05
-0.13000001E+01 -0.14840E+05
-0.12500000E+01 -0.17093E+05
-0.12000000E+01 -0.19760E+05
-0.11500001E+01 -0.22844E+05
-0.11000000E+01 -0.25646E+05
-0.10500001E+01 -0.27992E+05
-0.10000000E+01 -0.29870E+05
-0.95000005E+00 -0.31078E+05
-0.90000010E+00 -0.31669E+05
-0.85000002E+00 -0.31686E+05
-0.80000007E+00 -0.30889E+05
-0.75000012E+00 -0.28978E+05
-0.70000005E+00 -0.26051E+05
-0.65000010E+00 -0.22428E+05
-0.60000014E+00 -0.18519E+05
-0.55000007E+00 -0.14701E+05
-0.50000012E+00 -0.10815E+05
-0.45000005E+00 -0.66898E+04
-0.40000010E+00 -0.28245E+04
-0.35000014E+00  0.66937E+03
-0.30000007E+00  0.39735E+04
-0.25000012E+00  0.68745E+04
-0.20000005E+00  0.90575E+04
-0.15000010E+00  0.10660E+05
-0.10000014E+00  0.11981E+05
-0.50000072E-01  0.12794E+05
-0.11920929E-06  0.12893E+05
 0.49999952E-01  0.12483E+05
 0.99999905E-01  0.11845E+05
 0.14999986E+00  0.10879E+05
 0.19999981E+00  0.97766E+04
 0.24999976E+00  0.85691E+04
 0.29999995E+00  0.72727E+04
 0.34999990E+00  0.61737E+04
 0.39999986E+00  0.55700E+04
 0.44999981E+00  0.55139E+04
 0.49999976E+00  0.58142E+04
 0.54999995E+00  0.65310E+04
 0.59999990E+00  0.76324E+04
 0.64999986E+00  0.93728E+04
 0.69999981E+00  0.11752E+05
 0.74999976E+00  0.14387E+05
 0.79999971E+00  0.16881E+05
 0.84999990E+00  0.19094E+05
 0.89999986E+00  0.21224E+05
 0.94999981E+00  0.23427E+05
 0.99999976E+00  0.25773E+05
 0.10499997E+01  0.28147E+05
 0.10999999E+01  0.29955E+05
 0.11499999E+01  0.31016E+05
 0.11999998E+01  0.31720E+05
 0.12499998E+01  0.32114E+05
 0.12999997E+01  0.31885E+05
 0.13499999E+01  0.31016E+05
 0.13999999E+01  0.29899E+05
 0.14499998E+01  0.28718E+05
 0.14999998E+01  0.27256E+05
 0.15499997E+01  0.25455E+05
 0.15999999E+01  0.23217E+05
 0.16499999E+01  0.20527E+05
 0.16999998E+01  0.17360E+05
 0.17499998E+01  0.13965E+05
 0.17999997E+01  0.10643E+05
 0.18499997E+01  0.70403E+04
 0.18999999E+01  0.32148E+04
 0.19499998E+01 -0.65699E+03
 0.19999998E+01 -0.44652E+04
 0.20499997E+01 -0.79055E+04
 0.20999999E+01 -0.11017E+05
 0.21499996E+01 -0.13903E+05
 0.21999998E+01 -0.16749E+05
 0.22499995E+01 -0.19744E+05
 0.22999997E+01 -0.22631E+05
 0.23499999E+01 -0.25328E+05
 0.23999996E+01 -0.27932E+05
 0.24499998E+01 -0.30381E+05
 0.24999995E+01 -0.32252E+05
 0.25499997E+01 -0.33625E+05
 0.25999999E+01 -0.34671E+05
 0.26499996E+01 -0.35291E+05
 0.26999998E+01 -0.35419E+05
 0.27499995E+01 -0.35161E+05
 0.27999997E+01 -0.34476E+05
 0.28499999E+01 -0.33242E+05
 0.28999996E+01 -0.31398E+05
 0.29499998E+01 -0.29170E+05
 0.29999995E+01 -0.26708E+05
 0.30499997E+01 -0.23562E+05
 0.30999999E+01 -0.20112E+05
 0.31499996E+01 -0.16685E+05
 0.31999998E+01 -0.13176E+05
 0.32499995E+01 -0.96976E+04
 0.32999997E+01 -0.62934E+04
 0.33499999E+01 -0.30757E+04
 0.33999996E+01 -0.36635E+03
 0.34499998E+01  0.18685E+04
 0.34999995E+01  0.37729E+04
 0.35499997E+01  0.53302E+04
 0.35999994E+01  0.68552E+04
 0.36499996E+01  0.82620E+04
 0.36999998E+01  0.93078E+04
 0.37499995E+01  0.99651E+04
 0.37999997E+01  0.10658E+05
 0.38499994E+01  0.11464E+05
 0.38999996E+01  0.12273E+05
 0.39499998E+01  0.13279E+05
 0.39999995E+01  0.14373E+05
 0.40499997E+01  0.15266E+05
 0.40999994E+01  0.16066E+05
 0.41499996E+01  0.17180E+05
 0.41999998E+01  0.18421E+05
 0.42499995E+01  0.19619E+05
 0.42999997E+01  0.20527E+05
 0.43499994E+01  0.21356E+05
 0.43999996E+01  0.22231E+05
 0.44499998E+01  0.22805E+05
 0.44999995E+01  0.22973E+05
 0.45499997E+01  0.22515E+05
 0.45999994E+01  0.21466E+05
 0.46499996E+01  0.19975E+05
 0.46999998E+01  0.18372E+05
 0.47499995E+01  0.16822E+05
 0.47999997E+01  0.15288E+05
 0.48499994E+01  0.13830E+05
 0.48999996E+01  0.12592E+05
 0.49499998E+01  0.11500E+05
 0.49999995E+01  0.10348E+05
 0.50499997E+01  0.94298E+04
 0.50999994E+01  0.88015E+04
 0.51499996E+01  0.78232E+04
 0.51999998E+01  0.63212E+04
 0.52499995E+01  0.47812E+04
 0.52999997E+01  0.31845E+04
 0.53499994E+01  0.14470E+04
 0.53999996E+01 -0.23910E+03
 0.54499993E+01 -0.20550E+04
 0.54999995E+01 -0.39370E+04
 0.55499997E+01 -0.56758E+04
 0.55999994E+01 -0.70331E+04
 0.56499996E+01 -0.81178E+04
 0.56999993E+01 -0.92538E+04
 0.57499995E+01 -0.10125E+05
 0.57999997E+01 -0.10880E+05
 0.58499994E+01 -0.11537E+05
 0.58999996E+01 -0.12179E+05
 0.59499993E+01 -0.12681E+05
 0.59999995E+01 -0.12982E+05
 0.60499992E+01 -0.13471E+05
 0.60999994E+01 -0.13838E+05
 0.61499996E+01 -0.13865E+05
 0.61999998E+01 -0.13888E+05
 0.62499990E+01 -0.13977E+05
 0.62999992E+01 -0.13972E+05
 0.63499994E+01 -0.14120E+05
 0.63999996E+01 -0.14304E+05
 0.64499998E+01 -0.14485E+05
 0.64999990E+01 -0.14838E+05
 0.65499992E+01 -0.15325E+05
 0.65999994E+01 -0.15848E+05
 0.66499996E+01 -0.16356E+05
 0.66999998E+01 -0.16914E+05
 0.67499990E+01 -0.17512E+05
 0.67999992E+01 -0.18120E+05
 0.68499994E+01 -0.18690E+05
 0.68999996E+01 -0.19119E+05
 0.69499998E+01 -0.19516E+05
 0.69999990E+01 -0.20110E+05
 0.70499992E+01 -0.20763E+05
 0.70999994E+01 -0.21417E+05
 0.71499996E+01 -0.22073E+05
 0.71999998E+01 -0.22603E+05
 0.72499990E+01 -0.23046E+05
 0.72999992E+01 -0.23599E+05
 0.73499994E+01 -0.24149E+05
 0.73999996E+01 -0.24189E+05
 0.74499998E+01 -0.23914E+05
 0.74999990E+01 -0.23444E+05
 0.75499992E+01 -0.22505E+05
 0.75999994E+01 -0.21111E+05
 0.76499996E+01 -0.19155E+05
 0.76999998E+01 -0.16837E+05
 0.77499990E+01 -0.14333E+05
 0.77999992E+01 -0.11322E+05
 0.78499994E+01 -0.78397E+04
 0.78999996E+01 -0.40292E+04
 0.79499998E+01  0.12609E+03
 0.79999990E+01  0.46134E+04
 0.80499992E+01  0.94446E+04
 0.80999994E+01  0.14109E+05
 0.81499996E+01  0.18491E+05
 0.81999998E+01  0.22648E+05
 0.82499990E+01  0.26731E+05
 0.82999992E+01  0.30798E+05
 0.83499994E+01  0.34414E+05
 0.83999996E+01  0.37297E+05
 0.84499998E+01  0.39492E+05
 0.84999990E+01  0.41261E+05
 0.85499992E+01  0.42428E+05
 0.85999994E+01  0.42914E+05
 0.86499996E+01  0.42646E+05
 0.86999998E+01  0.41876E+05
 0.87499990E+01  0.40894E+05
 0.87999992E+01  0.39274E+05
 0.88499994E+01  0.36894E+05
 0.88999996E+01  0.34074E+05
 0.89499998E+01  0.30955E+05
 0.89999990E+01  0.27629E+05
 0.90499992E+01  0.24252E+05
 0.90999994E+01  0.21104E+05
 0.91499996E+01  0.18169E+05
 0.91999989E+01  0.15187E+05
 0.92499990E+01  0.12183E+05
 0.92999992E+01  0.93346E+04
 0.93499994E+01  0.71108E+04
 0.93999996E+01  0.52552E+04
 0.94499989E+01  0.36347E+04
 0.94999990E+01  0.25084E+04
 0.95499992E+01  0.16086E+04
 0.95999994E+01  0.96233E+03
 0.96499996E+01  0.73254E+03
 0.96999989E+01  0.61220E+03
 0.97499990E+01  0.56040E+03
 0.97999992E+01  0.74014E+03
 0.98499994E+01  0.79878E+03
 0.98999996E+01  0.65050E+03
 0.99499989E+01  0.20075E+03
 0.99999990E+01 -0.57217E+03
 0.10049999E+02 -0.16754E+04
 0.10099999E+02 -0.31144E+04
 0.10150000E+02 -0.45496E+04
 0.10199999E+02 -0.59739E+04
 0.10249999E+02 -0.76561E+04
 0.10299999E+02 -0.96982E+04
 0.10349999E+02 -0.12010E+05
 0.10400000E+02 -0.14237E+05
 0.10449999E+02 -0.16351E+05
 0.10499999E+02 -0.18482E+05
 0.10549999E+02 -0.20313E+05
 0.10599999E+02 -0.21756E+05
 0.10650000E+02 -0.22935E+05
 0.10699999E+02 -0.23538E+05
 0.10749999E+02 -0.23296E+05
 0.10799999E+02 -0.22527E+05
 0.10849999E+02 -0.21352E+05
 0.10900000E+02 -0.19849E+05
 0.10949999E+02 -0.18237E+05
 0.10999999E+02 -0.16296E+05
 0.11049999E+02 -0.14085E+05
 0.11099999E+02 -0.11850E+05
 0.11150000E+02 -0.96845E+04
 0.11199999E+02 -0.79282E+04
 0.11249999E+02 -0.67956E+04
 0.11299999E+02 -0.58830E+04
 0.11349999E+02 -0.48912E+04
 0.11400000E+02 -0.39226E+04
 0.11449999E+02 -0.31754E+04
 0.11499999E+02 -0.27515E+04
 0.11549999E+02 -0.26168E+04
 0.11599999E+02 -0.27740E+04
 0.11650000E+02 -0.31807E+04
 0.11699999E+02 -0.38423E+04
 0.11749999E+02 -0.45082E+04
 0.11799999E+02 -0.50906E+04
 0.11849999E+02 -0.56608E+04
 0.11900000E+02 -0.61206E+04
 0.11949999E+02 -0.66356E+04
 0.11999999E+02 -0.72402E+04
 0.12049999E+02 -0.78117E+04
 0.12099999E+02 -0.81449E+04
 0.12150000E+02 -0.81575E+04
 0.12199999E+02 -0.79352E+04
 0.12249999E+02 -0.75094E+04
 0.12299999E+02 -0.68457E+04
 0.12349999E+02 -0.57374E+04
 0.12400000E+02 -0.40990E+04
 0.12449999E+02 -0.22558E+04
 0.12499999E+02 -0.54411E+03
 0.12549999E+02  0.11275E+04
 0.12599999E+02  0.25728E+04
 0.12649999E+02  0.36943E+04
 0.12699999E+02  0.46738E+04
 0.12749999E+02  0.56013E+04
 0.12799999E+02  0.63833E+04
 0.12849999E+02  0.68846E+04
 0.12899999E+02  0.71234E+04
 0.12949999E+02  0.73956E+04
 0.12999999E+02  0.76897E+04
 0.13049999E+02  0.78826E+04
 0.13099999E+02  0.79882E+04
 0.13149999E+02  0.79244E+04
 0.13199999E+02  0.78750E+04
 0.13249999E+02  0.77401E+04
 0.13299999E+02  0.71082E+04
 0.13349999E+02  0.60536E+04
 0.13399999E+02  0.49533E+04
 0.13449999E+02  0.36800E+04
 0.13499999E+02  0.22162E+04
 0.13549999E+02  0.75407E+03
 0.13599999E+02 -0.78507E+03
 0.13649999E+02 -0.26520E+04
 0.13699999E+02 -0.47059E+04
 0.13749999E+02 -0.64893E+04
 0.13799999E+02 -0.80104E+04
 0.13849999E+02 -0.93660E+04
 0.13899999E+02 -0.10714E+05
 0.13949999E+02 -0.12042E+05
 0.13999999E+02 -0.13025E+05
 0.14049999E+02 -0.13716E+05
 0.14099998E+02 -0.14263E+05
 0.14150000E+02 -0.14834E+05
 0.14199999E+02 -0.15529E+05
 0.14249998E+02 -0.16378E+05
 0.14299999E+02 -0.17550E+05
 0.14349998E+02 -0.19069E+05
 0.14400000E+02 -0.20694E+05
 0.14449999E+02 -0.22183E+05
 0.14499998E+02 -0.23522E+05
 0.14549999E+02 -0.24874E+05
 0.14599998E+02 -0.25962E+05
 0.14650000E+02 -0.26557E+05
 0.14699999E+02 -0.26727E+05
 0.14749998E+02 -0.26465E+05
 0.14799999E+02 -0.25870E+05
 0.14849998E+02 -0.24730E+05
 0.14900000E+02 -0.22745E+05
 0.14949999E+02 -0.19960E+05
 0.14999998E+02 -0.16579E+05
 0.15049999E+02 -0.12645E+05
 0.15099998E+02 -0.82586E+04
 0.15150000E+02 -0.33733E+04
 0.15199999E+02  0.18761E+04
 0.15249998E+02  0.73264E+04
 0.15299999E+02  0.12992E+05
 0.15349998E+02  0.18568E+05
 0.15400000E+02  0.24200E+05
 0.15449999E+02  0.29826E+05
 0.15499998E+02  0.35348E+05
 0.15549999E+02  0.40531E+05
 0.15599998E+02  0.45273E+05
 0.15650000E+02  0.49616E+05
 0.15699999E+02  0.53251E+05
 0.15749998E+02  0.56058E+05
 0.15799999E+02  0.58096E+05
 0.15849998E+02  0.59504E+05
 0.15900000E+02  0.60163E+05
 0.15949999E+02  0.59950E+05
 0.15999998E+02  0.58972E+05
 0.16049999E+02  0.57329E+05
 0.16099998E+02  0.55134E+05
 0.16150000E+02  0.52760E+05
 0.16199999E+02  0.49930E+05
 0.16249998E+02  0.46661E+05
 0.16299999E+02  0.42872E+05
 0.16349998E+02  0.38955E+05
 0.16400000E+02  0.34773E+05
 0.16449999E+02  0.30662E+05
 0.16499998E+02  0.26254E+05
 0.16549999E+02  0.21872E+05
 0.16599998E+02  0.16274E+05
 0.16650000E+02  0.11461E+05
 0.16699999E+02  0.65249E+04
 0.16749998E+02  0.10618E+04
 0.16799999E+02 -0.30304E+04
 0.16849998E+02 -0.80647E+04
 0.16900000E+02 -0.11438E+05
 0.16949999E+02 -0.18027E+05
 0.16999998E+02 -0.22766E+05
 0.17049999E+02 -0.29398E+05
 0.17099998E+02 -0.35642E+05
 0.17150000E+02 -0.38702E+05
 0.17199999E+02 -0.43072E+05
 0.17249998E+02 -0.48814E+05
 0.17299999E+02 -0.53461E+05
 0.17349998E+02 -0.58204E+05
 0.17400000E+02 -0.61891E+05
 0.17449999E+02 -0.63862E+05
 0.17499998E+02 -0.65999E+05
 0.17549999E+02 -0.65946E+05
 0.17599998E+02 -0.68934E+05
 0.17650000E+02 -0.71391E+05
 0.17699999E+02 -0.70763E+05
 0.17749998E+02 -0.71776E+05
 0.17799999E+02 -0.75047E+05
 0.17849998E+02 -0.59668E+05
 0.17900000E+02 -0.54228E+05
 0.17949999E+02 -0.56262E+05
 0.17999998E+02 -0.67467E+05
 0.18049999E+02 -0.68753E+05
 0.18099998E+02 -0.60627E+05
 0.18150000E+02 -0.59603E+05
 0.18199999E+02 -0.57183E+05
 0.18249998E+02 -0.45605E+05
 0.18299999E+02 -0.49834E+05
 0.18349998E+02 -0.62372E+05
 0.18400000E+02 -0.49292E+05
 0.18449999E+02 -0.60515E+05
 0.18499998E+02 -0.61709E+05
 0.18549999E+02 -0.48314E+05
 0.18599998E+02 -0.30763E+05
 0.18650000E+02 -0.31937E+05
 0.18699999E+02 -0.48138E+05
 0.18749998E+02 -0.55183E+05
 0.18799999E+02 -0.16944E+05
 0.18849998E+02  0.15473E+05
 0.18900000E+02  0.46363E+04
 0.18949999E+02  0.77119E+04
 0.18999998E+02  0.21255E+05
 0.19049999E+02  0.74072E+04
 0.19099998E+02 -0.12220E+04
 0.19150000E+02  0.20144E+05
 0.19199999E+02  0.37679E+05
 0.19249998E+02  0.54733E+05
 0.19299999E+02  0.41995E+05
 0.19349998E+02  0.35944E+05
 0.19400000E+02  0.38823E+05
 0.19449999E+02  0.26420E+05
 0.19499998E+02  0.23942E+05
 0.19549999E+02  0.53986E+05
 0.19599998E+02  0.60777E+05
 0.19650000E+02  0.36105E+05
 0.19699999E+02  0.29084E+05
 0.19749998E+02  0.37137E+05
 0.19799999E+02  0.53807E+05
 0.19849998E+02  0.64096E+05
 0.19900000E+02  0.50974E+05
 0.19949999E+02  0.50208E+05
 0.19999998E+02  0.67491E+05
 0.20049999E+02  0.45458E+05
 0.20099998E+02  0.19233E+05
 0.20150000E+02  0.17496E+05
 0.20199999E+02  0.31120E+05
 0.20249998E+02  0.37810E+05
 0.20299999E+02  0.24215E+05
 0.20349998E+02 -0.17994E+03
 0.20399998E+02 -0.17521E+05
 0.20449999E+02 -0.27401E+05
 0.20499998E+02 -0.16872E+05
 0.20549999E+02 -0.67066E+04
 0.20599998E+02 -0.41243E+05
 0.20649998E+02 -0.41952E+05
 0.20699999E+02 -0.28005E+05
 0.20749998E+02 -0.67314E+05
 0.20799999E+02 -0.84348E+05
 0.20849998E+02 -0.53854E+05
 0.20899998E+02 -0.53736E+05
 0.20949999E+02 -0.75773E+05
 0.20999998E+02 -0.55635E+05
 0.21049999E+02 -0.17087E+05
 0.21099998E+02 -0.51510E+04
 0.21149998E+02  0.56213E+04
 0.21199999E+02  0.53725E+05
 0.21249998E+02  0.11246E+06
 0.21299999E+02  0.10789E+06
 0.21349998E+02  0.93926E+05
 0.21399998E+02  0.13087E+06
 0.21449999E+02  0.18274E+06
 0.21499998E+02  0.20524E+06
 0.21549999E+02  0.17786E+06
 0.21599998E+02  0.14141E+06
 0.21649998E+02  0.13244E+06
 0.21699999E+02  0.13751E+06
 0.21749998E+02  0.89518E+05
 0.21799999E+02  0.62009E+05
 0.21849998E+02  0.74573E+05
 0.21899998E+02  0.11868E+06
 0.21949999E+02  0.10366E+06
 0.21999998E+02  0.47448E+05
 0.22049999E+02  0.32070E+05
 0.22099998E+02  0.36977E+05
 0.22149998E+02  0.21667E+05
 0.22199999E+02 -0.52937E+05
 0.22249998E+02 -0.10918E+06
 0.22299999E+02 -0.11412E+06
 0.22349998E+02 -0.88595E+05
 0.22399998E+02 -0.63900E+05
 0.22449999E+02 -0.25614E+05
 0.22499998E+02  0.70986E+04
 0.22549999E+02  0.85988E+05
 0.22599998E+02  0.17534E+06
 0.22649998E+02  0.14372E+06
 0.22699999E+02 -0.11509E+04
 0.22749998E+02 -0.64032E+05
 0.22799999E+02 -0.17777E+05
 0.22849998E+02 -0.39602E+05
 0.22899998E+02 -0.11522E+06
 0.22949999E+02 -0.11893E+06
 0.22999998E+02 -0.73671E+05
 0.23049999E+02  0.19343E+05
 0.23099998E+02  0.82316E+05
 0.23149998E+02  0.63607E+05
 0.23199999E+02  0.54264E+05
 0.23249998E+02  0.78662E+05
 0.23299999E+02  0.66524E+05
 0.23349998E+02  0.10007E+05
 0.23399998E+02 -0.20603E+05
 0.23449999E+02 -0.87513E+05
 0.23499998E+02 -0.14193E+06
 0.23549999E+02 -0.13245E+06
 0.23599998E+02 -0.10982E+06
 0.23649998E+02 -0.12263E+06
 0.23699999E+02 -0.12052E+06
 0.23749998E+02 -0.15213E+06
 0.23799999E+02 -0.23588E+06
 0.23849998E+02 -0.26152E+06
 0.23899998E+02 -0.18508E+06
 0.23949999E+02 -0.13276E+06
 0.23999998E+02 -0.10109E+06
 0.24049999E+02 -0.19133E+05
 0.24099998E+02  0.12720E+05
 0.24149998E+02  0.90006E+04
 0.24199999E+02 -0.11356E+04
 0.24249998E+02 -0.94212E+04
 0.24299999E+02 -0.68782E+05
 0.24349998E+02 -0.10527E+06
 0.24399998E+02 -0.13231E+06
 0.24449999E+02 -0.16670E+06
 0.24499998E+02 -0.18162E+06
 0.24549999E+02 -0.18913E+06
 0.24599998E+02 -0.16971E+06
 0.24649998E+02 -0.13066E+06
 0.24699999E+02 -0.88115E+05
 0.24749998E+02 -0.63196E+05
 0.24799999E+02 -0.72533E+05
 0.24849998E+02 -0.15139E+06
 0.24899998E+02 -0.18233E+06
 0.24949999E+02 -0.17394E+06
 0.24999998E+02 -0.90062E+05
 0.25049999E+02  0.63434E+05
 0.25099998E+02  0.11472E+06
 0.25149998E+02  0.99956E+05
 0.25199999E+02  0.10647E+06
 0.25249998E+02  0.14801E+06
 0.25299999E+02  0.12986E+06
 0.25349998E+02  0.86235E+05
 0.25399998E+02  0.46160E+05
 0.25449999E+02 -0.14087E+05
 0.25499998E+02 -0.51581E+05
 0.25549999E+02 -0.92186E+05
 0.25599998E+02 -0.12430E+06
 0.25649998E+02 -0.31550E+05
 0.25699999E+02  0.14986E+06
 0.25749998E+02  0.23978E+06
 0.25799999E+02  0.25696E+06
 0.25849998E+02  0.20101E+06
 0.25899998E+02  0.87151E+05
 0.25949999E+02  0.51806E+05
 0.25999998E+02  0.83897E+05
 0.26049999E+02  0.12308E+06
 0.26099998E+02  0.17343E+06
 0.26149998E+02  0.21550E+06
 0.26199999E+02  0.21173E+06
 0.26249998E+02  0.16134E+06
 0.26299999E+02  0.19459E+06
 0.26349998E+02  0.25879E+06
 0.26399998E+02  0.26182E+06
 0.26449999E+02  0.24908E+06
 0.26499998E+02  0.19165E+06
 0.26549999E+02  0.53968E+05
 0.26599998E+02 -0.19913E+05
 0.26649998E+02  0.34923E+05
 0.26699999E+02  0.13117E+06
 0.26749998E+02  0.16114E+06
 0.26799999E+02  0.11312E+06
 0.26849998E+02  0.70841E+05
 0.26899998E+02  0.44758E+05
 0.26949999E+02  0.55990E+05
 0.26999998E+02  0.49627E+05
 0.27049997E+02  0.34798E+05
 0.27099998E+02  0.31728E+05
 0.27149998E+02  0.19785E+05
 0.27199999E+02 -0.28017E+04
 0.27249998E+02  0.19722E+05
 0.27299997E+02  0.46034E+05
 0.27349998E+02  0.31072E+05
 0.27399998E+02  0.18601E+05
 0.27449999E+02  0.16085E+05
 0.27499998E+02  0.67102E+05
 0.27549997E+02  0.10047E+06
 0.27599998E+02  0.10799E+06
 0.27649998E+02  0.79880E+05
 0.27699999E+02  0.56263E+05
 0.27749998E+02  0.65905E+05
 0.27799997E+02  0.68428E+05
 0.27849998E+02  0.12072E+06
 0.27899998E+02  0.15062E+06
 0.27949999E+02  0.17424E+06
 0.27999998E+02  0.18349E+06
 0.28049997E+02  0.21147E+06
 0.28099998E+02  0.23773E+06
 0.28149998E+02  0.25012E+06
 0.28199999E+02  0.26514E+06
 0.28249998E+02  0.21143E+06
 0.28299997E+02  0.14182E+06
 0.28349998E+02  0.87978E+05
 0.28399998E+02  0.16755E+05
 0.28449999E+02 -0.68956E+05
 0.28499998E+02 -0.54856E+05
 0.28549997E+02  0.76118E+04
 0.28599998E+02  0.20021E+05
 0.28649998E+02  0.78906E+03
 0.28699999E+02  0.28626E+05
 0.28749998E+02  0.83437E+05
 0.28799997E+02  0.13475E+06
 0.28849998E+02  0.17546E+06
 0.28899998E+02  0.18167E+06
 0.28949999E+02  0.19152E+06
 0.28999998E+02  0.20760E+06
 0.29049997E+02  0.20583E+06
 0.29099998E+02  0.17572E+06
 0.29149998E+02  0.14958E+06
 0.29199999E+02  0.97313E+05
 0.29249998E+02  0.61042E+05
 0.29299997E+02  0.52263E+05
 0.29349998E+02  0.13957E+05
 0.29399998E+02 -0.49877E+05
 0.29449999E+02 -0.11742E+06
 0.29499998E+02 -0.14436E+06
 0.29549997E+02 -0.12388E+06
 0.29599998E+02 -0.93153E+05
 0.29649998E+02 -0.12539E+06
 0.29699999E+02 -0.20686E+06
 0.29749998E+02 -0.27017E+06
 0.29799997E+02 -0.28564E+06
 0.29849998E+02 -0.30348E+06
 0.29899998E+02 -0.33307E+06
 0.29949999E+02 -0.30319E+06
 0.29999998E+02 -0.24793E+06
 0.30049999E+02 -0.22256E+06
 0.30099998E+02 -0.18394E+06
 0.30149998E+02 -0.11138E+06
 0.30199997E+02 -0.80606E+05
 0.30249996E+02 -0.78982E+05
 0.30299999E+02 -0.74554E+05
 0.30349998E+02 -0.73553E+05
 0.30399998E+02 -0.10134E+06
 0.30449997E+02 -0.12745E+06
 0.30499996E+02 -0.74896E+05
 0.30549999E+02  0.18840E+05
 0.30599998E+02  0.50907E+05
 0.30649998E+02  0.39145E+05
 0.30699997E+02  0.25942E+05
 0.30749996E+02 -0.18523E+04
 0.30799999E+02 -0.32317E+05
 0.30849998E+02 -0.71394E+05
 0.30899998E+02 -0.87062E+05
 0.30949997E+02 -0.72098E+05
 0.30999996E+02 -0.86929E+05
 0.31049999E+02 -0.13831E+06
 0.31099998E+02 -0.15339E+06
 0.31149998E+02 -0.12978E+06
 0.31199997E+02 -0.12838E+06
 0.31249996E+02 -0.17737E+06
 0.31299999E+02 -0.18867E+06
 0.31349998E+02 -0.16497E+06
 0.31399998E+02 -0.17015E+06
 0.31449997E+02 -0.19284E+06
 0.31499996E+02 -0.20323E+06
 0.31549999E+02 -0.22155E+06
 0.31599998E+02 -0.25715E+06
 0.31649998E+02 -0.22733E+06
 0.31699997E+02 -0.16324E+06
 0.31749996E+02 -0.12033E+06
 0.31799999E+02 -0.11340E+06
 0.31849998E+02 -0.88171E+05
 0.31899998E+02 -0.82794E+05
 0.31949997E+02 -0.70911E+05
 0.31999996E+02 -0.49759E+04
 0.32049999E+02  0.33688E+05
 0.32099998E+02  0.11478E+05
 0.32149998E+02 -0.47775E+05
 0.32199997E+02 -0.12073E+05
 0.32249996E+02  0.61632E+05
 0.32299999E+02  0.67343E+05
 0.32349998E+02  0.46520E+05
 0.32399998E+02  0.63949E+05
 0.32449997E+02  0.10206E+06
 0.32499996E+02  0.33801E+05
 0.32549999E+02 -0.69762E+05
 0.32599998E+02 -0.59101E+05
 0.32649998E+02 -0.25205E+05
 0.32699997E+02 -0.12129E+06
 0.32749996E+02 -0.24128E+06
 0.32799999E+02 -0.27676E+06
 0.32849998E+02 -0.30088E+06
 0.32899998E+02 -0.31804E+06
 0.32949997E+02 -0.28692E+06
 0.32999996E+02 -0.23823E+06
 0.33049999E+02 -0.24736E+06
 0.33099998E+02 -0.31027E+06
 0.33149998E+02 -0.38282E+06
 0.33199997E+02 -0.40668E+06
 0.33249996E+02 -0.36859E+06
 0.33299999E+02 -0.35447E+06
 0.33349998E+02 -0.37982E+06
 0.33399998E+02 -0.36572E+06
 0.33449997E+02 -0.31251E+06
 0.33499996E+02 -0.23024E+06
 0.33549999E+02 -0.19563E+06
 0.33599998E+02 -0.20369E+06
 0.33649998E+02 -0.14767E+06
 0.33699997E+02 -0.57502E+05
 0.33749996E+02 -0.33964E+05
 0.33799999E+02 -0.83671E+05
 0.33849998E+02 -0.91348E+05
 0.33899998E+02 -0.10307E+06
 0.33949997E+02 -0.12547E+06
 0.33999996E+02 -0.15285E+06
 0.34049999E+02 -0.17479E+06
 0.34099998E+02 -0.17298E+06
 0.34149998E+02 -0.16697E+06
 0.34199997E+02 -0.17284E+06
 0.34249996E+02 -0.21136E+06
 0.34299999E+02 -0.21679E+06
 0.34349998E+02 -0.26446E+06
 0.34399998E+02 -0.26201E+06
 0.34449997E+02 -0.21069E+06
 0.34499996E+02 -0.12091E+06
 0.34549999E+02 -0.56609E+05
 0.34599998E+02 -0.10621E+06
 0.34649998E+02 -0.88161E+05
 0.34699997E+02 -0.50597E+04
 0.34749996E+02  0.14625E+06
 0.34799999E+02  0.27025E+06
 0.34849998E+02  0.27535E+06
 0.34899998E+02  0.21527E+06
 0.34949997E+02  0.21616E+06
 0.34999996E+02  0.24081E+06
 0.35049999E+02  0.16262E+06
 0.35099998E+02  0.37674E+05
 0.35149998E+02 -0.92241E+04
 0.35199997E+02 -0.37617E+05
 0.35249996E+02 -0.11649E+06
 0.35299999E+02 -0.16679E+06
 0.35349998E+02 -0.21090E+06
 0.35399998E+02 -0.20281E+06
 0.35449997E+02 -0.17042E+06
 0.35499996E+02 -0.19597E+06
 0.35549999E+02 -0.20123E+06
 0.35599998E+02 -0.15435E+06
 0.35649998E+02 -0.15650E+06
 0.35699997E+02 -0.15277E+06
 0.35749996E+02 -0.96503E+05
 0.35799999E+02  0.10929E+05
 0.35849998E+02  0.20508E+06
 0.35899998E+02  0.40668E+06
 0.35949997E+02  0.49414E+06
 0.35999996E+02  0.42781E+06
 0.36049999E+02  0.39307E+06
 0.36099998E+02  0.52523E+06
 0.36149998E+02  0.65078E+06
 0.36199997E+02  0.65255E+06
 0.36249996E+02  0.54496E+06
 0.36299999E+02  0.43781E+06
 0.36349998E+02  0.43372E+06
 0.36399998E+02  0.42959E+06
 0.36449997E+02  0.34878E+06
 0.36499996E+02  0.19878E+06
 0.36549999E+02  0.12189E+06
 0.36599998E+02  0.28785E+06
 0.36649998E+02  0.59226E+06
 0.36699997E+02  0.82123E+06
 0.36749996E+02  0.95163E+06
 0.36799999E+02  0.97388E+06
 0.36849998E+02  0.89979E+06
 0.36899998E+02  0.86538E+06
 0.36949997E+02  0.88813E+06
 0.36999996E+02  0.84145E+06
 0.37049999E+02  0.69910E+06
 0.37099998E+02  0.62485E+06
 0.37149998E+02  0.69363E+06
 0.37199997E+02  0.75589E+06
 0.37249996E+02  0.69560E+06
 0.37299999E+02  0.50478E+06
 0.37349998E+02  0.29586E+06
 0.37399998E+02  0.22241E+06
 0.37449997E+02  0.31839E+06
 0.37499996E+02  0.41903E+06
 0.37549999E+02  0.43212E+06
 0.37599998E+02  0.35879E+06
 0.37649998E+02  0.26371E+06
 0.37699997E+02  0.31621E+06
 0.37749996E+02  0.48742E+06
 0.37799999E+02  0.57166E+06
 0.37849998E+02  0.50629E+06
 0.37899998E+02  0.42056E+06
 0.37949997E+02  0.34709E+06
 0.37999996E+02  0.34187E+06
 0.38049999E+02  0.44178E+06
 0.38099998E+02  0.49667E+06
 0.38149998E+02  0.45353E+06
 0.38199997E+02  0.34334E+06
 0.38249996E+02  0.19381E+06
 0.38299999E+02  0.77504E+05
 0.38349998E+02  0.38438E+05
 0.38399998E+02  0.45895E+05
 0.38449997E+02  0.24202E+05
 0.38499996E+02  0.19048E+05
 0.38549999E+02  0.14365E+05
 0.38599998E+02  0.10524E+05
 0.38649998E+02 -0.48206E+04
 0.38699997E+02 -0.19479E+05
 0.38749996E+02 -0.55095E+05
 0.38799999E+02 -0.12673E+06
 0.38849998E+02 -0.13116E+06
 0.38899998E+02 -0.11825E+06
 0.38949997E+02 -0.12385E+06
 0.38999996E+02 -0.20956E+06
 0.39049999E+02 -0.33074E+06
 0.39099998E+02 -0.40536E+06
 0.39149998E+02 -0.44408E+06
 0.39199997E+02 -0.45317E+06
 0.39249996E+02 -0.41690E+06
 0.39299999E+02 -0.35429E+06
 0.39349998E+02 -0.30540E+06
 0.39399998E+02 -0.30902E+06
 0.39449997E+02 -0.34090E+06
 0.39499996E+02 -0.43679E+06
 0.39549999E+02 -0.58625E+06
 0.39599998E+02 -0.69107E+06
 0.39649998E+02 -0.72207E+06
 0.39699997E+02 -0.71890E+06
 0.39749996E+02 -0.74684E+06
 0.39799999E+02 -0.72106E+06
 0.39849998E+02 -0.63010E+06
 0.39899998E+02 -0.49269E+06
 0.39949997E+02 -0.39623E+06
 0.39999996E+02 -0.38425E+06
 0.40049999E+02 -0.45257E+06
 0.40099998E+02 -0.54686E+06
 0.40149998E+02 -0.55452E+06
 0.40199997E+02 -0.51659E+06
 0.40249996E+02 -0.43463E+06
 0.40299999E+02 -0.32786E+06
 0.40349998E+02 -0.26346E+06
 0.40399998E+02 -0.29866E+06
 0.40449997E+02 -0.36841E+06
 0.40499996E+02 -0.41624E+06
 0.40549999E+02 -0.41265E+06
 0.40599998E+02 -0.36597E+06
 0.40649998E+02 -0.33541E+06
 0.40699997E+02 -0.30980E+06
 0.40749996E+02 -0.29013E+06
 0.40799999E+02 -0.28409E+06
 0.40849998E+02 -0.27352E+06
 0.40899998E+02 -0.23000E+06
 0.40949997E+02 -0.18891E+06
 0.40999996E+02 -0.15956E+06
 0.41049999E+02 -0.83717E+05
 0.41099998E+02  0.32059E+05
 0.41149998E+02  0.11141E+06
 0.41199997E+02  0.13648E+06
 0.41249996E+02  0.11408E+06
 0.41299999E+02  0.10301E+06
 0.41349998E+02  0.13006E+06
 0.41399998E+02  0.18775E+06
 0.41449997E+02  0.24511E+06
 0.41499996E+02  0.25466E+06
 0.41549999E+02  0.22350E+06
 0.41599998E+02  0.17231E+06
 0.41649998E+02  0.93341E+05
 0.41699997E+02 -0.24518E+05
 0.41749996E+02 -0.19074E+06
 0.41799999E+02 -0.40102E+06
 0.41849998E+02 -0.59720E+06
 0.41899998E+02 -0.77109E+06
 0.41949997E+02 -0.87672E+06
 0.41999996E+02 -0.90585E+06
 0.42049999E+02 -0.89433E+06
 0.42099998E+02 -0.84063E+06
 0.42149998E+02 -0.75680E+06
 0.42199997E+02 -0.64150E+06
 0.42249996E+02 -0.50883E+06
 0.42299999E+02 -0.44451E+06
 0.42349998E+02 -0.48473E+06
 0.42399998E+02 -0.55779E+06
 0.42449997E+02 -0.63446E+06
 0.42499996E+02 -0.68351E+06
 0.42549999E+02 -0.73004E+06
 0.42599998E+02 -0.77220E+06
 0.42649998E+02 -0.77686E+06
 0.42699997E+02 -0.71816E+06
 0.42749996E+02 -0.58289E+06
 0.42799995E+02 -0.42687E+06
 0.42849998E+02 -0.26192E+06
 0.42899998E+02 -0.92518E+05
 0.42949997E+02  0.78382E+05
 0.42999996E+02  0.22170E+06
 0.43049995E+02  0.34969E+06
 0.43099998E+02  0.46771E+06
 0.43149998E+02  0.52357E+06
 0.43199997E+02  0.54445E+06
 0.43249996E+02  0.56494E+06
 0.43299995E+02  0.57550E+06
 0.43349998E+02  0.57553E+06
 0.43399998E+02  0.57135E+06
 0.43449997E+02  0.57178E+06
 0.43499996E+02  0.58077E+06
 0.43549995E+02  0.57771E+06
 0.43599998E+02  0.60222E+06
 0.43649998E+02  0.66956E+06
 0.43699997E+02  0.68086E+06
 0.43749996E+02  0.66436E+06
 0.43799995E+02  0.65931E+06
 0.43849998E+02  0.66786E+06
 0.43899998E+02  0.67983E+06
 0.43949997E+02  0.63836E+06
 0.43999996E+02  0.57049E+06
 0.44049995E+02  0.54560E+06
 0.44099998E+02  0.55677E+06
 0.44149998E+02  0.52125E+06
 0.44199997E+02  0.44702E+06
 0.44249996E+02  0.37595E+06
 0.44299995E+02  0.31030E+06
 0.44349998E+02  0.24513E+06
 0.44399998E+02  0.20185E+06
 0.44449997E+02  0.18021E+06
 0.44499996E+02  0.14586E+06
 0.44549995E+02  0.67562E+05
 0.44599998E+02 -0.52504E+05
 0.44649998E+02 -0.18960E+06
 0.44699997E+02 -0.33591E+06
 0.44749996E+02 -0.42800E+06
 0.44799995E+02 -0.46078E+06
 0.44849998E+02 -0.49445E+06
 0.44899998E+02 -0.53743E+06
 0.44949997E+02 -0.57440E+06
 0.44999996E+02 -0.61702E+06
 0.45049995E+02 -0.65174E+06
 0.45099998E+02 -0.62722E+06
 0.45149998E+02 -0.55079E+06
 0.45199997E+02 -0.47629E+06
 0.45249996E+02 -0.43852E+06
 0.45299995E+02 -0.45870E+06
 0.45349998E+02 -0.51985E+06
 0.45399998E+02 -0.55615E+06
 0.45449997E+02 -0.54556E+06
 0.45499996E+02 -0.51053E+06
 0.45549995E+02 -0.48659E+06
 0.45599998E+02 -0.45104E+06
 0.45649998E+02 -0.40588E+06
 0.45699997E+02 -0.39622E+06
 0.45749996E+02 -0.40039E+06
 0.45799995E+02 -0.40268E+06
 0.45849998E+02 -0.40122E+06
 0.45899998E+02 -0.40143E+06
 0.45949997E+02 -0.37245E+06
 0.45999996E+02 -0.28058E+06
 0.46049995E+02 -0.16901E+06
 0.46099998E+02 -0.63181E+05
 0.46149998E+02  0.59864E+05
 0.46199997E+02  0.21076E+06
 0.46249996E+02  0.37649E+06
 0.46299995E+02  0.54567E+06
 0.46349998E+02  0.70665E+06
 0.46399998E+02  0.86027E+06
 0.46449997E+02  0.98102E+06
 0.46499996E+02  0.10435E+07
 0.46549995E+02  0.10443E+07
 0.46599998E+02  0.99201E+06
 0.46649998E+02  0.90646E+06
 0.46699997E+02  0.79392E+06
 0.46749996E+02  0.68912E+06
 0.46799995E+02  0.59586E+06
 0.46849998E+02  0.52581E+06
 0.46899998E+02  0.52136E+06
 0.46949997E+02  0.58621E+06
 0.46999996E+02  0.68429E+06
 0.47049995E+02  0.81282E+06
 0.47099998E+02  0.90147E+06
 0.47149998E+02  0.87938E+06
 0.47199997E+02  0.78287E+06
 0.47249996E+02  0.65496E+06
 0.47299995E+02  0.53545E+06
 0.47349998E+02  0.40288E+06
 0.47399998E+02  0.26245E+06
 0.47449997E+02  0.15051E+06
 0.47499996E+02  0.87243E+05
 0.47549995E+02  0.62651E+05
 0.47599998E+02  0.83138E+05
 0.47649998E+02  0.14315E+06
 0.47699997E+02  0.20057E+06
 0.47749996E+02  0.23777E+06
 0.47799995E+02  0.24639E+06
 0.47849998E+02  0.24615E+06
 0.47899998E+02  0.23216E+06
 0.47949997E+02  0.19862E+06
 0.47999996E+02  0.16562E+06
 0.48049995E+02  0.15869E+06
 0.48099998E+02  0.17551E+06
 0.48149998E+02  0.16092E+06
 0.48199997E+02  0.12181E+06
 0.48249996E+02  0.89400E+05
 0.48299995E+02  0.70668E+05
 0.48349998E+02  0.82534E+05
 0.48399998E+02  0.11079E+06
 0.48449997E+02  0.12510E+06
 0.48499996E+02  0.11426E+06
 0.48549995E+02  0.89565E+05
 0.48599998E+02  0.94996E+05
 0.48649998E+02  0.15827E+06
 0.48699997E+02  0.24853E+06
 0.48749996E+02  0.33010E+06
 0.48799995E+02  0.38836E+06
 0.48849998E+02  0.40426E+06
 0.48899998E+02  0.37938E+06
 0.48949997E+02  0.34375E+06
 0.48999996E+02  0.34016E+06
 0.49049995E+02  0.37830E+06
 0.49099998E+02  0.41946E+06
 0.49149998E+02  0.46153E+06
 0.49199997E+02  0.49740E+06
 0.49249996E+02  0.52619E+06
 0.49299995E+02  0.52995E+06
 0.49349998E+02  0.49942E+06
 0.49399998E+02  0.43393E+06
 0.49449997E+02  0.31746E+06
 0.49499996E+02  0.17803E+06
 0.49549995E+02  0.48909E+05
 0.49599998E+02 -0.40815E+05
 0.49649998E+02 -0.78673E+05
 0.49699997E+02 -0.97446E+05
 0.49749996E+02 -0.12484E+06
 0.49799995E+02 -0.16706E+06
 0.49849998E+02 -0.21516E+06
 0.49899998E+02 -0.24718E+06
 0.49949997E+02 -0.27572E+06
 0.49999996E+02 -0.32480E+06
 0.50049995E+02 -0.40496E+06
 0.50099998E+02 -0.52122E+06
 0.50149998E+02 -0.66359E+06
 0.50199997E+02 -0.79191E+06
 0.50249996E+02 -0.87395E+06
 0.50299995E+02 -0.92808E+06
 0.50349998E+02 -0.96318E+06
 0.50399998E+02 -0.95614E+06
 0.50449997E+02 -0.92119E+06
 0.50499996E+02 -0.88674E+06
 0.50549995E+02 -0.84110E+06
 0.50599998E+02 -0.75690E+06
 0.50649998E+02 -0.65211E+06
 0.50699997E+02 -0.53339E+06
 0.50749996E+02 -0.40728E+06
 0.50799995E+02 -0.29102E+06
 0.50849998E+02 -0.17832E+06
 0.50899998E+02 -0.10263E+06
 0.50949997E+02 -0.80672E+05
 0.50999996E+02 -0.87539E+05
 0.51049995E+02 -0.12436E+06
 0.51099998E+02 -0.18244E+06
 0.51149998E+02 -0.22748E+06
 0.51199997E+02 -0.23852E+06
 0.51249996E+02 -0.22065E+06
 0.51299995E+02 -0.18766E+06
 0.51349998E+02 -0.14605E+06
 0.51399998E+02 -0.10163E+06
 0.51449997E+02 -0.64443E+05
 0.51499996E+02 -0.17350E+05
 0.51549995E+02  0.25476E+05
 0.51599998E+02  0.42650E+05
 0.51649998E+02  0.22799E+05
 0.51699997E+02 -0.34781E+05
 0.51749996E+02 -0.11037E+06
 0.51799995E+02 -0.20196E+06
 0.51849998E+02 -0.28168E+06
 0.51899998E+02 -0.33317E+06
 0.51949997E+02 -0.34964E+06
 0.51999996E+02 -0.34151E+06
 0.52049995E+02 -0.32205E+06
 0.52099998E+02 -0.29543E+06
 0.52149998E+02 -0.27137E+06
 0.52199997E+02 -0.26144E+06
 0.52249996E+02 -0.26662E+06
 0.52299995E+02 -0.29610E+06
 0.52349998E+02 -0.36161E+06
 0.52399998E+02 -0.42442E+06
 0.52449997E+02 -0.47388E+06
 0.52499996E+02 -0.54370E+06
 0.52549995E+02 -0.63481E+06
 0.52599998E+02 -0.72531E+06
 0.52649998E+02 -0.79304E+06
 0.52699997E+02 -0.83936E+06
 0.52749996E+02 -0.88241E+06
 0.52799995E+02 -0.90527E+06
 0.52849998E+02 -0.87451E+06
 0.52899998E+02 -0.78107E+06
 0.52949997E+02 -0.63274E+06
 0.52999996E+02 -0.45581E+06
 0.53049995E+02 -0.28274E+06
 0.53099998E+02 -0.14159E+06
 0.53149998E+02 -0.25232E+05
 0.53199997E+02  0.81272E+05
 0.53249996E+02  0.18013E+06
 0.53299995E+02  0.26540E+06
 0.53349998E+02  0.34398E+06
 0.53399998E+02  0.42374E+06
 0.53449997E+02  0.50038E+06
 0.53499996E+02  0.57720E+06
 0.53549995E+02  0.66202E+06
 0.53599998E+02  0.75690E+06
 0.53649998E+02  0.83897E+06
 0.53699997E+02  0.91207E+06
 0.53749996E+02  0.95845E+06
 0.53799995E+02  0.95315E+06
 0.53849998E+02  0.89617E+06
 0.53899998E+02  0.79645E+06
 0.53949997E+02  0.67729E+06
 0.53999996E+02  0.55131E+06
 0.54049995E+02  0.41533E+06
 0.54099998E+02  0.27056E+06
 0.54149998E+02  0.13035E+06
 0.54199997E+02  0.24743E+04
 0.54249996E+02 -0.10251E+06
 0.54299995E+02 -0.16621E+06
 0.54349998E+02 -0.19515E+06
 0.54399998E+02 -0.19909E+06
 0.54449997E+02 -0.17337E+06
 0.54499996E+02 -0.13186E+06
 0.54549995E+02 -0.10091E+06
 0.54599998E+02 -0.85344E+05
 0.54649998E+02 -0.77320E+05
 0.54699997E+02 -0.78966E+05
 0.54749996E+02 -0.90315E+05
 0.54799995E+02 -0.10073E+06
 0.54849998E+02 -0.10911E+06
 0.54899998E+02 -0.11853E+06
 0.54949997E+02 -0.13623E+06
 0.54999996E+02 -0.16578E+06
 0.55049995E+02 -0.19215E+06
 0.55099998E+02 -0.22408E+06
 0.55149998E+02 -0.27318E+06
 0.55199997E+02 -0.34175E+06
 0.55249996E+02 -0.42334E+06
 0.55299995E+02 -0.48933E+06
 0.55349998E+02 -0.52565E+06
 0.55399998E+02 -0.52974E+06
 0.55449997E+02 -0.49348E+06
 0.55499996E+02 -0.41782E+06
 0.55549995E+02 -0.29550E+06
 0.55599998E+02 -0.14286E+06
 0.55649998E+02  0.64327E+04
 0.55699997E+02  0.13813E+06
 0.55749996E+02  0.25118E+06
 0.55799995E+02  0.33856E+06
 0.55849995E+02  0.38233E+06
 0.55899998E+02  0.39325E+06
 0.55949997E+02  0.38976E+06
 0.55999996E+02  0.38327E+06
 0.56049995E+02  0.37558E+06
 0.56099995E+02  0.38023E+06
 0.56149998E+02  0.40072E+06
 0.56199997E+02  0.44143E+06
 0.56249996E+02  0.50270E+06
 0.56299995E+02  0.56479E+06
 0.56349995E+02  0.61449E+06
 0.56399998E+02  0.64368E+06
 0.56449997E+02  0.65307E+06
 0.56499996E+02  0.62950E+06
 0.56549995E+02  0.58174E+06
 0.56599995E+02  0.52712E+06
 0.56649998E+02  0.48855E+06
 0.56699997E+02  0.47620E+06
 0.56749996E+02  0.49609E+06
 0.56799995E+02  0.54007E+06
 0.56849995E+02  0.59017E+06
 0.56899998E+02  0.64850E+06
 0.56949997E+02  0.68934E+06
 0.56999996E+02  0.70247E+06
 0.57049995E+02  0.69151E+06
 0.57099995E+02  0.66026E+06
 0.57149998E+02  0.61686E+06
 0.57199997E+02  0.56096E+06
 0.57249996E+02  0.49422E+06
 0.57299995E+02  0.41488E+06
 0.57349995E+02  0.33021E+06
 0.57399998E+02  0.25385E+06
 0.57449997E+02  0.17571E+06
 0.57499996E+02  0.83272E+05
 0.57549995E+02 -0.16899E+05
 0.57599995E+02 -0.12472E+06
 0.57649998E+02 -0.23496E+06
 0.57699997E+02 -0.32795E+06
 0.57749996E+02 -0.40263E+06
 0.57799995E+02 -0.47746E+06
 0.57849995E+02 -0.56605E+06
 0.57899998E+02 -0.65721E+06
 0.57949997E+02 -0.74713E+06
 0.57999996E+02 -0.84307E+06
 0.58049995E+02 -0.94131E+06
 0.58099995E+02 -0.10416E+07
 0.58149998E+02 -0.11333E+07
 0.58199997E+02 -0.12023E+07
 0.58249996E+02 -0.12410E+07
 0.58299995E+02 -0.12506E+07
 0.58349995E+02 -0.12338E+07
 0.58399998E+02 -0.11768E+07
 0.58449997E+02 -0.10617E+07
 0.58499996E+02 -0.89937E+06
 0.58549995E+02 -0.70914E+06
 0.58599995E+02 -0.50841E+06
 0.58649998E+02 -0.31424E+06
 0.58699997E+02 -0.13348E+06
 0.58749996E+02  0.29230E+05
 0.58799995E+02  0.16682E+06
 0.58849995E+02  0.28475E+06
 0.58899998E+02  0.37759E+06
 0.58949997E+02  0.43562E+06
 0.58999996E+02  0.47196E+06
 0.59049995E+02  0.49238E+06
 0.59099995E+02  0.49806E+06
 0.59149998E+02  0.48178E+06
 0.59199997E+02  0.46217E+06
 0.59249996E+02  0.44233E+06
 0.59299995E+02  0.41314E+06
 0.59349995E+02  0.39260E+06
 0.59399998E+02  0.38723E+06
 0.59449997E+02  0.40755E+06
 0.59499996E+02  0.46289E+06
 0.59549995E+02  0.54140E+06
 0.59599995E+02  0.60458E+06
 0.59649998E+02  0.64896E+06
 0.59699997E+02  0.68181E+06
 0.59749996E+02  0.70066E+06
 0.59799995E+02  0.71150E+06
 0.59849995E+02  0.71711E+06
 0.59899998E+02  0.71628E+06
 0.59949997E+02  0.69844E+06
 0.59999996E+02  0.67626E+06
 0.60049995E+02  0.65285E+06
 0.60099995E+02  0.62514E+06
 0.60149998E+02  0.60058E+06
 0.60199997E+02  0.57870E+06
 0.60249996E+02  0.54335E+06
 0.60299995E+02  0.49235E+06
 0.60349995E+02  0.43086E+06
 0.60399998E+02  0.35212E+06
 0.60449997E+02  0.25836E+06
 0.60499996E+02  0.15830E+06
 0.60549995E+02  0.61748E+05
 0.60599995E+02 -0.24509E+05
 0.60649998E+02 -0.93354E+05
 0.60699997E+02 -0.14675E+06
 0.60749996E+02 -0.18200E+06
 0.60799995E+02 -0.19438E+06
 0.60849995E+02 -0.19549E+06
 0.60899998E+02 -0.20138E+06
 0.60949997E+02 -0.21978E+06
 0.60999996E+02 -0.25386E+06
 0.61049995E+02 -0.29396E+06
 0.61099995E+02 -0.33196E+06
 0.61149998E+02 -0.36262E+06
 0.61199997E+02 -0.38401E+06
 0.61249996E+02 -0.40199E+06
 0.61299995E+02 -0.41804E+06
 0.61349995E+02 -0.44277E+06
 0.61399998E+02 -0.46693E+06
 0.61449997E+02 -0.47633E+06
 0.61499996E+02 -0.47262E+06
 0.61549995E+02 -0.46021E+06
 0.61599995E+02 -0.44412E+06
 0.61649998E+02 -0.42490E+06
 0.61699997E+02 -0.40509E+06
 0.61749996E+02 -0.38805E+06
 0.61799995E+02 -0.37181E+06
 0.61849995E+02 -0.35838E+06
 0.61899998E+02 -0.35233E+06
 0.61949997E+02 -0.35594E+06
 0.61999996E+02 -0.35766E+06
 0.62049995E+02 -0.35033E+06
 0.62099998E+02 -0.34267E+06
 0.62149994E+02 -0.32847E+06
 0.62199997E+02 -0.29735E+06
 0.62249992E+02 -0.25322E+06
 0.62299995E+02 -0.20812E+06
 0.62349998E+02 -0.16023E+06
 0.62399994E+02 -0.10887E+06
 0.62449997E+02 -0.63474E+05
 0.62499992E+02 -0.23415E+05
 0.62549995E+02  0.10533E+05
 0.62599998E+02  0.32851E+05
 0.62649994E+02  0.42253E+05
 0.62699997E+02  0.40153E+05
 0.62749992E+02  0.33215E+05
 0.62799995E+02  0.26373E+05
 0.62849998E+02  0.20399E+05
 0.62899994E+02  0.19233E+05
 0.62949997E+02  0.21137E+05
 0.62999992E+02  0.19815E+05
 0.63049995E+02  0.19012E+05
 0.63099998E+02  0.36251E+05
 0.63149994E+02  0.73637E+05
 0.63199997E+02  0.11953E+06
 0.63249992E+02  0.16106E+06
 0.63299995E+02  0.19087E+06
 0.63349998E+02  0.20266E+06
 0.63399994E+02  0.19008E+06
 0.63449997E+02  0.15750E+06
 0.63499992E+02  0.10393E+06
 0.63549995E+02  0.39176E+05
 0.63599998E+02 -0.30818E+05
 0.63649994E+02 -0.10381E+06
 0.63699997E+02 -0.17423E+06
 0.63749992E+02 -0.23188E+06
 0.63799995E+02 -0.27676E+06
 0.63849998E+02 -0.31627E+06
 0.63899994E+02 -0.34438E+06
 0.63949997E+02 -0.35418E+06
 0.63999992E+02 -0.34916E+06
 0.64049995E+02 -0.33677E+06
 0.64099998E+02 -0.31951E+06
 0.64149994E+02 -0.30507E+06
 0.64199997E+02 -0.29586E+06
 0.64249992E+02 -0.29543E+06
 0.64299995E+02 -0.30299E+06
 0.64349998E+02 -0.31955E+06
 0.64399994E+02 -0.33465E+06
 0.64449997E+02 -0.33752E+06
 0.64499992E+02 -0.32318E+06
 0.64549995E+02 -0.28967E+06
 0.64599998E+02 -0.24473E+06
 0.64649994E+02 -0.19139E+06
 0.64699997E+02 -0.13590E+06
 0.64749992E+02 -0.83882E+05
 0.64799995E+02 -0.42346E+05
 0.64849998E+02 -0.11510E+05
 0.64899994E+02  0.88358E+04
 0.64949997E+02  0.28879E+05
 0.64999992E+02  0.55752E+05
 0.65049995E+02  0.94141E+05
 0.65099998E+02  0.15163E+06
 0.65149994E+02  0.22710E+06
 0.65199997E+02  0.31530E+06
 0.65249992E+02  0.40685E+06
 0.65299995E+02  0.49470E+06
 0.65349998E+02  0.57298E+06
 0.65399994E+02  0.63992E+06
 0.65449997E+02  0.69043E+06
 0.65499992E+02  0.72320E+06
 0.65549995E+02  0.73681E+06
 0.65599998E+02  0.72824E+06
 0.65649994E+02  0.70216E+06
 0.65699997E+02  0.66389E+06
 0.65749992E+02  0.61681E+06
 0.65799995E+02  0.55879E+06
 0.65849998E+02  0.49270E+06
 0.65899994E+02  0.43057E+06
 0.65949997E+02  0.37635E+06
 0.65999992E+02  0.32199E+06
 0.66049995E+02  0.26630E+06
 0.66099998E+02  0.21559E+06
 0.66149994E+02  0.16539E+06
 0.66199997E+02  0.11773E+06
 0.66249992E+02  0.78823E+05
 0.66299995E+02  0.41028E+05
 0.66349998E+02 -0.42752E+04
 0.66399994E+02 -0.51011E+05
 0.66449997E+02 -0.89811E+05
 0.66499992E+02 -0.11866E+06
 0.66549995E+02 -0.14129E+06
 0.66599998E+02 -0.15969E+06
 0.66649994E+02 -0.17479E+06
 0.66699997E+02 -0.18937E+06
 0.66749992E+02 -0.20809E+06
 0.66799995E+02 -0.23111E+06
 0.66849998E+02 -0.25294E+06
 0.66899994E+02 -0.27466E+06
 0.66949997E+02 -0.29482E+06
 0.66999992E+02 -0.31071E+06
 0.67049995E+02 -0.32589E+06
 0.67099998E+02 -0.34658E+06
 0.67149994E+02 -0.37038E+06
 0.67199997E+02 -0.38833E+06
 0.67249992E+02 -0.39188E+06
 0.67299995E+02 -0.38275E+06
 0.67349998E+02 -0.36631E+06
 0.67399994E+02 -0.33747E+06
 0.67449997E+02 -0.28776E+06
 0.67499992E+02 -0.21799E+06
 0.67549995E+02 -0.14042E+06
 0.67599998E+02 -0.71615E+05
 0.67649994E+02 -0.25515E+05
 0.67699997E+02 -0.35788E+04
 0.67749992E+02  0.52498E+04
 0.67799995E+02  0.11033E+05
 0.67849998E+02  0.13216E+05
 0.67899994E+02  0.10831E+05
 0.67949997E+02  0.11778E+05
 0.67999992E+02  0.24624E+05
 0.68049995E+02  0.49717E+05
 0.68099998E+02  0.82294E+05
 0.68149994E+02  0.11890E+06
 0.68199997E+02  0.15267E+06
 0.68249992E+02  0.17930E+06
 0.68299995E+02  0.20248E+06
 0.68349998E+02  0.22437E+06
 0.68399994E+02  0.24466E+06
 0.68449997E+02  0.26222E+06
 0.68499992E+02  0.27218E+06
 0.68549995E+02  0.27353E+06
 0.68599998E+02  0.26747E+06
 0.68649994E+02  0.25348E+06
 0.68699997E+02  0.23593E+06
 0.68749992E+02  0.21745E+06
 0.68799995E+02  0.20185E+06
 0.68849998E+02  0.19141E+06
 0.68899994E+02  0.18228E+06
 0.68949997E+02  0.16852E+06
 0.68999992E+02  0.14911E+06
 0.69049995E+02  0.12417E+06
 0.69099998E+02  0.91685E+05
 0.69149994E+02  0.58571E+05
 0.69199997E+02  0.30121E+05
 0.69249992E+02 -0.28631E+02
 0.69299995E+02 -0.28963E+05
 0.69349998E+02 -0.49000E+05
 0.69399994E+02 -0.58717E+05
 0.69449997E+02 -0.62487E+05
 0.69499992E+02 -0.61319E+05
 0.69549995E+02 -0.53117E+05
 0.69599998E+02 -0.41947E+05
 0.69649994E+02 -0.25003E+05
 0.69699997E+02 -0.18549E+04
 0.69749992E+02  0.25664E+05
 0.69799995E+02  0.55383E+05
 0.69849998E+02  0.81397E+05
 0.69899994E+02  0.10262E+06
 0.69949997E+02  0.12169E+06
 0.69999992E+02  0.13746E+06
 0.70049995E+02  0.14510E+06
 0.70099998E+02  0.14030E+06
 0.70149994E+02  0.11833E+06
 0.70199997E+02  0.79702E+05
 0.70249992E+02  0.30673E+05
 0.70299995E+02 -0.20717E+05
 0.70349998E+02 -0.69031E+05
 0.70399994E+02 -0.11047E+06
 0.70449997E+02 -0.14188E+06
 0.70499992E+02 -0.16521E+06
 0.70549995E+02 -0.18175E+06
 0.70599998E+02 -0.19233E+06
 0.70649994E+02 -0.19749E+06
 0.70699997E+02 -0.20407E+06
 0.70749992E+02 -0.21894E+06
 0.70799995E+02 -0.24248E+06
 0.70849998E+02 -0.27398E+06
 0.70899994E+02 -0.31227E+06
 0.70949997E+02 -0.35406E+06
 0.70999992E+02 -0.39332E+06
 0.71049995E+02 -0.42853E+06
 0.71099998E+02 -0.46209E+06
 0.71149994E+02 -0.49452E+06
 0.71199997E+02 -0.52015E+06
 0.71249992E+02 -0.53853E+06
 0.71299995E+02 -0.54892E+06
 0.71349998E+02 -0.55212E+06
 0.71399994E+02 -0.55022E+06
 0.71449997E+02 -0.53861E+06
 0.71499992E+02 -0.51746E+06
 0.71549995E+02 -0.48741E+06
 0.71599998E+02 -0.44838E+06
 0.71649994E+02 -0.39710E+06
 0.71699997E+02 -0.33187E+06
 0.71749992E+02 -0.25200E+06
 0.71799995E+02 -0.16195E+06
 0.71849998E+02 -0.69767E+05
 0.71899994E+02  0.19687E+05
 0.71949997E+02  0.10244E+06
 0.71999992E+02  0.17760E+06
 0.72049995E+02  0.24229E+06
 0.72099998E+02  0.29692E+06
 0.72149994E+02  0.34096E+06
 0.72199997E+02  0.37582E+06
 0.72249992E+02  0.40243E+06
 0.72299995E+02  0.42809E+06
 0.72349998E+02  0.46226E+06
 0.72399994E+02  0.50722E+06
 0.72449997E+02  0.56226E+06
 0.72499992E+02  0.62119E+06
 0.72549995E+02  0.67333E+06
 0.72599998E+02  0.70636E+06
 0.72649994E+02  0.71983E+06
 0.72699997E+02  0.71448E+06
 0.72749992E+02  0.68745E+06
 0.72799995E+02  0.63876E+06
 0.72849998E+02  0.57896E+06
 0.72899994E+02  0.51327E+06
 0.72949997E+02  0.44104E+06
 0.72999992E+02  0.36838E+06
 0.73049995E+02  0.29872E+06
 0.73099998E+02  0.23465E+06
 0.73149994E+02  0.18234E+06
 0.73199997E+02  0.14299E+06
 0.73249992E+02  0.11590E+06
 0.73299995E+02  0.10145E+06
 0.73349998E+02  0.94568E+05
 0.73399994E+02  0.91115E+05
 0.73449997E+02  0.91158E+05
 0.73499992E+02  0.88470E+05
 0.73549995E+02  0.71194E+05
 0.73599998E+02  0.38338E+05
 0.73649994E+02 -0.45335E+04
 0.73699997E+02 -0.52550E+05
 0.73749992E+02 -0.10225E+06
 0.73799995E+02 -0.14986E+06
 0.73849998E+02 -0.19464E+06
 0.73899994E+02 -0.23600E+06
 0.73949997E+02 -0.26828E+06
 0.73999992E+02 -0.28769E+06
 0.74049995E+02 -0.29642E+06
 0.74099998E+02 -0.29506E+06
 0.74149994E+02 -0.28600E+06
 0.74199997E+02 -0.27394E+06
 0.74249992E+02 -0.26450E+06
 0.74299995E+02 -0.25981E+06
 0.74349998E+02 -0.25683E+06
 0.74399994E+02 -0.25412E+06
 0.74449997E+02 -0.24641E+06
 0.74499992E+02 -0.23213E+06
 0.74549995E+02 -0.21017E+06
 0.74599998E+02 -0.17784E+06
 0.74649994E+02 -0.13432E+06
 0.74699997E+02 -0.81353E+05
 0.74749992E+02 -0.25465E+05
 0.74799995E+02  0.26890E+05
 0.74849998E+02  0.71429E+05
 0.74899994E+02  0.10052E+06
 0.74949997E+02  0.10947E+06
 0.74999992E+02  0.10521E+06
 0.75049995E+02  0.92831E+05
 0.75099998E+02  0.71588E+05
 0.75149994E+02  0.41329E+05
 0.75199997E+02  0.81087E+04
 0.75249992E+02 -0.20433E+05
 0.75299995E+02 -0.41182E+05
 0.75349998E+02 -0.57469E+05
 0.75399994E+02 -0.73192E+05
 0.75449997E+02 -0.93182E+05
 0.75499992E+02 -0.11871E+06
 0.75549995E+02 -0.14470E+06
 0.75599998E+02 -0.16726E+06
 0.75649994E+02 -0.18407E+06
 0.75699997E+02 -0.19755E+06
 0.75749992E+02 -0.21055E+06
 0.75799995E+02 -0.22084E+06
 0.75849998E+02 -0.22726E+06
 0.75899994E+02 -0.23255E+06
 0.75949997E+02 -0.23410E+06
 0.75999992E+02 -0.23225E+06
 0.76049995E+02 -0.22568E+06
 0.76099998E+02 -0.20828E+06
 0.76149994E+02 -0.17753E+06
 0.76199997E+02 -0.13366E+06
 0.76249992E+02 -0.76664E+05
 0.76299995E+02 -0.75805E+04
 0.76349998E+02  0.68296E+05
 0.76399994E+02  0.14522E+06
 0.76449997E+02  0.21845E+06
 0.76499992E+02  0.28730E+06
 0.76549995E+02  0.34425E+06
 0.76599998E+02  0.38439E+06
 0.76649994E+02  0.40862E+06
 0.76699997E+02  0.41958E+06
 0.76749992E+02  0.41731E+06
 0.76799995E+02  0.39970E+06
 0.76849998E+02  0.36545E+06
 0.76899994E+02  0.31512E+06
 0.76949997E+02  0.25567E+06
 0.76999992E+02  0.18687E+06
 0.77049995E+02  0.11408E+06
 0.77099998E+02  0.37846E+05
 0.77149994E+02 -0.39237E+05
 0.77199997E+02 -0.10763E+06
 0.77249992E+02 -0.16507E+06
 0.77299995E+02 -0.21075E+06
 0.77349998E+02 -0.24519E+06
 0.77399994E+02 -0.26332E+06
 0.77449997E+02 -0.26597E+06
 0.77499992E+02 -0.25510E+06
 0.77549995E+02 -0.22961E+06
 0.77599998E+02 -0.19509E+06
 0.77649994E+02 -0.15833E+06
 0.77699997E+02 -0.12204E+06
 0.77749992E+02 -0.87183E+05
 0.77799995E+02 -0.53113E+05
 0.77849998E+02 -0.18311E+05
 0.77899994E+02  0.15109E+05
 0.77949997E+02  0.44915E+05
 0.77999992E+02  0.63029E+05
 0.78049995E+02  0.66828E+05
 0.78099998E+02  0.63366E+05
 0.78149994E+02  0.53238E+05
 0.78199997E+02  0.36918E+05
 0.78249992E+02  0.13906E+05
 0.78299995E+02 -0.15029E+05
 0.78349998E+02 -0.48665E+05
 0.78399994E+02 -0.80194E+05
 0.78449997E+02 -0.10411E+06
 0.78499992E+02 -0.11912E+06
 0.78549995E+02 -0.11997E+06
 0.78599998E+02 -0.10674E+06
 0.78649994E+02 -0.83069E+05
 0.78699997E+02 -0.54596E+05
 0.78749992E+02 -0.25137E+05
 0.78799995E+02 -0.76285E+03
 0.78849998E+02  0.16059E+05
 0.78899994E+02  0.27722E+05
 0.78949997E+02  0.35862E+05
 0.78999992E+02  0.38630E+05
 0.79049995E+02  0.34442E+05
 0.79099998E+02  0.25117E+05
 0.79149994E+02  0.10627E+05
 0.79199997E+02 -0.10483E+05
 0.79249992E+02 -0.38226E+05
 0.79299995E+02 -0.66127E+05
 0.79349998E+02 -0.87579E+05
 0.79399994E+02 -0.10174E+06
 0.79449997E+02 -0.10927E+06
 0.79499992E+02 -0.10949E+06
 0.79549995E+02 -0.10241E+06
 0.79599998E+02 -0.87180E+05
 0.79649994E+02 -0.66991E+05
 0.79699997E+02 -0.47387E+05
 0.79749992E+02 -0.30504E+05
 0.79799995E+02 -0.16688E+05
 0.79849998E+02 -0.53252E+04
 0.79899994E+02  0.41362E+04
 0.79949997E+02  0.11348E+05
 0.79999992E+02  0.14809E+05
 0.80049995E+02  0.13053E+05
 0.80099998E+02  0.74485E+04
 0.80149994E+02  0.17453E+04
 0.80199997E+02 -0.19197E+04
 0.80249992E+02 -0.25842E+04
 0.80299995E+02 -0.20902E+04
 0.80349998E+02 -0.39049E+04
 0.80399994E+02 -0.81162E+04
 0.80449997E+02 -0.13404E+05
 0.80499992E+02 -0.20227E+05
 0.80549995E+02 -0.30186E+05
 0.80599998E+02 -0.40348E+05
 0.80649994E+02 -0.46042E+05
 0.80699997E+02 -0.47188E+05
 0.80749992E+02 -0.43108E+05
 0.80799995E+02 -0.33759E+05
 0.80849998E+02 -0.18704E+05
 0.80899994E+02  0.55364E+04
 0.80949997E+02  0.38378E+05
 0.80999992E+02  0.76796E+05
 0.81049995E+02  0.11984E+06
 0.81099998E+02  0.16994E+06
 0.81149994E+02  0.22681E+06
 0.81199997E+02  0.28449E+06
 0.81249992E+02  0.33474E+06
 0.81299995E+02  0.37386E+06
 0.81349998E+02  0.40315E+06
 0.81399994E+02  0.42202E+06
 0.81449997E+02  0.42974E+06
 0.81499992E+02  0.42679E+06
 0.81549995E+02  0.41225E+06
 0.81599998E+02  0.38803E+06
 0.81649994E+02  0.35606E+06
 0.81699997E+02  0.31474E+06
 0.81749992E+02  0.26787E+06
 0.81799995E+02  0.21890E+06
 0.81849998E+02  0.17199E+06
 0.81899994E+02  0.13144E+06
 0.81949997E+02  0.93424E+05
 0.81999992E+02  0.56152E+05
 0.82049995E+02  0.21036E+05
 0.82099998E+02 -0.99302E+04
 0.82149994E+02 -0.33155E+05
 0.82199997E+02 -0.48465E+05
 0.82249992E+02 -0.58831E+05
 0.82299995E+02 -0.67884E+05
 0.82349998E+02 -0.79714E+05
 0.82399994E+02 -0.96526E+05
 0.82449997E+02 -0.11886E+06
 0.82499992E+02 -0.14726E+06
 0.82549995E+02 -0.17936E+06
 0.82599998E+02 -0.20909E+06
 0.82649994E+02 -0.23220E+06
 0.82699997E+02 -0.24742E+06
 0.82749992E+02 -0.25354E+06
 0.82799995E+02 -0.25279E+06
 0.82849998E+02 -0.24826E+06
 0.82899994E+02 -0.24180E+06
 0.82949997E+02 -0.23372E+06
 0.82999992E+02 -0.22169E+06
 0.83049995E+02 -0.20716E+06
 0.83099998E+02 -0.19088E+06
 0.83149994E+02 -0.17052E+06
 0.83199997E+02 -0.14501E+06
 0.83249992E+02 -0.11676E+06
 0.83299995E+02 -0.89475E+05
 0.83349998E+02 -0.64384E+05
 0.83399994E+02 -0.44310E+05
 0.83449997E+02 -0.29641E+05
 0.83499992E+02 -0.19085E+05
 0.83549995E+02 -0.12523E+05
 0.83599998E+02 -0.10808E+05
 0.83649994E+02 -0.12892E+05
 0.83699997E+02 -0.18229E+05
 0.83749992E+02 -0.26373E+05
 0.83799995E+02 -0.32276E+05
 0.83849998E+02 -0.37422E+05
 0.83899994E+02 -0.47858E+05
 0.83949997E+02 -0.61501E+05
 0.83999992E+02 -0.73460E+05
 0.84049995E+02 -0.82238E+05
 0.84099998E+02 -0.88245E+05
 0.84149994E+02 -0.94000E+05
 0.84199997E+02 -0.98900E+05
 0.84249992E+02 -0.10102E+06
 0.84299995E+02 -0.99631E+05
 0.84349998E+02 -0.94160E+05
 0.84399994E+02 -0.85997E+05
 0.84449997E+02 -0.72739E+05
 0.84499992E+02 -0.55628E+05
 0.84549995E+02 -0.38210E+05
 0.84599998E+02 -0.17671E+05
 0.84649994E+02  0.77742E+04
 0.84699997E+02  0.34265E+05
 0.84749992E+02  0.59832E+05
 0.84799995E+02  0.83953E+05
 0.84849998E+02  0.10274E+06
 0.84899994E+02  0.11770E+06
 0.84949997E+02  0.13091E+06
 0.84999992E+02  0.13936E+06
 0.85049995E+02  0.14111E+06
 0.85099998E+02  0.13783E+06
 0.85149994E+02  0.13128E+06
 0.85199997E+02  0.12481E+06
 0.85249992E+02  0.12009E+06
 0.85299995E+02  0.11454E+06
 0.85349998E+02  0.10591E+06
 0.85399994E+02  0.95792E+05
 0.85449997E+02  0.87099E+05
 0.85499992E+02  0.79143E+05
 0.85549995E+02  0.69367E+05
 0.85599998E+02  0.57201E+05
 0.85649994E+02  0.40860E+05
 0.85699997E+02  0.16999E+05
 0.85749992E+02 -0.13626E+05
 0.85799995E+02 -0.47505E+05
 0.85849998E+02 -0.82246E+05
 0.85899994E+02 -0.11352E+06
 0.85949997E+02 -0.13693E+06
 0.85999992E+02 -0.15029E+06
 0.86049995E+02 -0.15341E+06
 0.86099998E+02 -0.14927E+06
 0.86149994E+02 -0.13990E+06
 0.86199997E+02 -0.12557E+06
 0.86249992E+02 -0.10724E+06
 0.86299995E+02 -0.87504E+05
 0.86349998E+02 -0.68933E+05
 0.86399994E+02 -0.50496E+05
 0.86449997E+02 -0.30052E+05
 0.86499992E+02 -0.81956E+04
 0.86549995E+02  0.13287E+05
 0.86599998E+02  0.31056E+05
 0.86649994E+02  0.43341E+05
 0.86699997E+02  0.48688E+05
 0.86749992E+02  0.44626E+05
 0.86799995E+02  0.30408E+05
 0.86849998E+02  0.72632E+04
 0.86899994E+02 -0.24072E+05
 0.86949997E+02 -0.61846E+05
 0.86999992E+02 -0.10354E+06
 0.87049995E+02 -0.14648E+06
 0.87099998E+02 -0.18755E+06
 0.87149994E+02 -0.22301E+06
 0.87199997E+02 -0.24775E+06
 0.87249992E+02 -0.25788E+06
 0.87299995E+02 -0.25314E+06
 0.87349998E+02 -0.23308E+06
 0.87399994E+02 -0.19871E+06
 0.87449997E+02 -0.15601E+06
 0.87499992E+02 -0.10974E+06
 0.87549995E+02 -0.61553E+05
 0.87599991E+02 -0.12979E+05
 0.87649994E+02  0.32199E+05
 0.87699997E+02  0.71029E+05
 0.87749992E+02  0.10064E+06
 0.87799995E+02  0.12240E+06
 0.87849991E+02  0.13777E+06
 0.87899994E+02  0.14553E+06
 0.87949997E+02  0.14700E+06
 0.87999992E+02  0.14255E+06
 0.88049995E+02  0.13164E+06
 0.88099991E+02  0.11719E+06
 0.88149994E+02  0.10029E+06
 0.88199997E+02  0.81434E+05
 0.88249992E+02  0.65243E+05
 0.88299995E+02  0.52680E+05
 0.88349991E+02  0.46350E+05
 0.88399994E+02  0.47997E+05
 0.88449997E+02  0.57808E+05
 0.88499992E+02  0.75089E+05
 0.88549995E+02  0.94404E+05
 0.88599991E+02  0.11098E+06
 0.88649994E+02  0.12488E+06
 0.88699997E+02  0.13806E+06
 0.88749992E+02  0.14809E+06
 0.88799995E+02  0.15123E+06
 0.88849991E+02  0.14746E+06
 0.88899994E+02  0.14000E+06
 0.88949997E+02  0.13270E+06
 0.88999992E+02  0.12811E+06
 0.89049995E+02  0.12862E+06
 0.89099991E+02  0.13522E+06
 0.89149994E+02  0.14752E+06
 0.89199997E+02  0.16468E+06
 0.89249992E+02  0.18246E+06
 0.89299995E+02  0.19502E+06
 0.89349991E+02  0.19702E+06
 0.89399994E+02  0.18539E+06
 0.89449997E+02  0.15999E+06
 0.89499992E+02  0.12078E+06
 0.89549995E+02  0.71616E+05
 0.89599991E+02  0.18902E+05
 0.89649994E+02 -0.34557E+05
 0.89699997E+02 -0.84481E+05
 0.89749992E+02 -0.12753E+06
 0.89799995E+02 -0.16182E+06
 0.89849991E+02 -0.18833E+06
 0.89899994E+02 -0.20942E+06
 0.89949997E+02 -0.22662E+06
 0.89999992E+02 -0.24127E+06
 0.90049995E+02 -0.25043E+06
 0.90099991E+02 -0.25351E+06
 0.90149994E+02 -0.25189E+06
 0.90199997E+02 -0.24350E+06
 0.90249992E+02 -0.22919E+06
 0.90299995E+02 -0.21247E+06
 0.90349991E+02 -0.19561E+06
 0.90399994E+02 -0.18102E+06
 0.90449997E+02 -0.16877E+06
 0.90499992E+02 -0.15784E+06
 0.90549995E+02 -0.14654E+06
 0.90599991E+02 -0.13132E+06
 0.90649994E+02 -0.11095E+06
 0.90699997E+02 -0.86499E+05
 0.90749992E+02 -0.58661E+05
 0.90799995E+02 -0.29156E+05
 0.90849991E+02  0.12334E+04
 0.90899994E+02  0.32977E+05
 0.90949997E+02  0.66883E+05
 0.90999992E+02  0.10201E+06
 0.91049995E+02  0.13555E+06
 0.91099991E+02  0.16659E+06
 0.91149994E+02  0.19346E+06
 0.91199997E+02  0.21570E+06
 0.91249992E+02  0.23548E+06
 0.91299995E+02  0.25111E+06
 0.91349991E+02  0.26056E+06
 0.91399994E+02  0.26619E+06
 0.91449997E+02  0.26911E+06
 0.91499992E+02  0.26747E+06
 0.91549995E+02  0.26237E+06
 0.91599991E+02  0.25537E+06
 0.91649994E+02  0.24586E+06
 0.91699997E+02  0.23310E+06
 0.91749992E+02  0.21674E+06
 0.91799995E+02  0.19787E+06
 0.91849991E+02  0.17738E+06
 0.91899994E+02  0.15693E+06
 0.91949997E+02  0.13789E+06
 0.91999992E+02  0.11975E+06
 0.92049995E+02  0.10275E+06
 0.92099991E+02  0.89239E+05
 0.92149994E+02  0.80284E+05
 0.92199997E+02  0.73490E+05
 0.92249992E+02  0.66760E+05
 0.92299995E+02  0.61181E+05
 0.92349991E+02  0.58060E+05
 0.92399994E+02  0.57465E+05
 0.92449997E+02  0.60458E+05
 0.92499992E+02  0.68645E+05
 0.92549995E+02  0.80753E+05
 0.92599991E+02  0.95069E+05
 0.92649994E+02  0.10969E+06
 0.92699997E+02  0.12146E+06
 0.92749992E+02  0.12597E+06
 0.92799995E+02  0.12098E+06
 0.92849991E+02  0.10890E+06
 0.92899994E+02  0.89451E+05
 0.92949997E+02  0.61899E+05
 0.92999992E+02  0.25223E+05
 0.93049995E+02 -0.20331E+05
 0.93099991E+02 -0.71447E+05
 0.93149994E+02 -0.12355E+06
 0.93199997E+02 -0.17584E+06
 0.93249992E+02 -0.22851E+06
 0.93299995E+02 -0.27898E+06
 0.93349991E+02 -0.32478E+06
 0.93399994E+02 -0.36342E+06
 0.93449997E+02 -0.39271E+06
 0.93499992E+02 -0.41228E+06
 0.93549995E+02 -0.42493E+06
 0.93599991E+02 -0.43360E+06
 0.93649994E+02 -0.43935E+06
 0.93699997E+02 -0.44258E+06
 0.93749992E+02 -0.44349E+06
 0.93799995E+02 -0.44146E+06
 0.93849991E+02 -0.43558E+06
 0.93899994E+02 -0.42194E+06
 0.93949997E+02 -0.39813E+06
 0.93999992E+02 -0.36312E+06
 0.94049995E+02 -0.31913E+06
 0.94099991E+02 -0.27113E+06
 0.94149994E+02 -0.22091E+06
 0.94199997E+02 -0.16983E+06
 0.94249992E+02 -0.12191E+06
 0.94299995E+02 -0.79115E+05
 0.94349991E+02 -0.40793E+05
 0.94399994E+02 -0.82746E+04
 0.94449997E+02  0.18269E+05
 0.94499992E+02  0.40255E+05
 0.94549995E+02  0.56198E+05
 0.94599991E+02  0.64077E+05
 0.94649994E+02  0.62990E+05
 0.94699997E+02  0.52727E+05
 0.94749992E+02  0.35603E+05
 0.94799995E+02  0.15359E+05
 0.94849991E+02 -0.37185E+04
 0.94899994E+02 -0.18441E+05
 0.94949997E+02 -0.25796E+05
 0.94999992E+02 -0.25175E+05
 0.95049995E+02 -0.17565E+05
 0.95099991E+02 -0.55220E+04
 0.95149994E+02  0.10155E+05
 0.95199997E+02  0.28795E+05
 0.95249992E+02  0.48173E+05
 0.95299995E+02  0.68502E+05
 0.95349991E+02  0.90637E+05
 0.95399994E+02  0.11592E+06
 0.95449997E+02  0.14480E+06
 0.95499992E+02  0.17834E+06
 0.95549995E+02  0.21427E+06
 0.95599991E+02  0.24804E+06
 0.95649994E+02  0.27779E+06
 0.95699997E+02  0.30280E+06
 0.95749992E+02  0.32264E+06
 0.95799995E+02  0.33574E+06
 0.95849991E+02  0.34043E+06
 0.95899994E+02  0.33727E+06
 0.95949997E+02  0.32871E+06
 0.95999992E+02  0.31737E+06
 0.96049995E+02  0.30577E+06
 0.96099991E+02  0.29707E+06
 0.96149994E+02  0.29164E+06
 0.96199997E+02  0.28861E+06
 0.96249992E+02  0.28719E+06
 0.96299995E+02  0.28510E+06
 0.96349991E+02  0.28284E+06
 0.96399994E+02  0.27959E+06
 0.96449997E+02  0.27481E+06
 0.96499992E+02  0.26842E+06
 0.96549995E+02  0.26089E+06
 0.96599991E+02  0.25342E+06
 0.96649994E+02  0.24475E+06
 0.96699997E+02  0.23419E+06
 0.96749992E+02  0.21985E+06
 0.96799995E+02  0.19975E+06
 0.96849991E+02  0.17290E+06
 0.96899994E+02  0.13963E+06
 0.96949997E+02  0.10038E+06
 0.96999992E+02  0.56582E+05
 0.97049995E+02  0.10740E+05
 0.97099991E+02 -0.36343E+05
 0.97149994E+02 -0.84433E+05
 0.97199997E+02 -0.13322E+06
 0.97249992E+02 -0.18309E+06
 0.97299995E+02 -0.23221E+06
 0.97349991E+02 -0.27831E+06
 0.97399994E+02 -0.32179E+06
 0.97449997E+02 -0.36166E+06
 0.97499992E+02 -0.39602E+06
 0.97549995E+02 -0.42321E+06
 0.97599991E+02 -0.44374E+06
 0.97649994E+02 -0.45654E+06
 0.97699997E+02 -0.45965E+06
 0.97749992E+02 -0.45550E+06
 0.97799995E+02 -0.44542E+06
 0.97849991E+02 -0.42961E+06
 0.97899994E+02 -0.40729E+06
 0.97949997E+02 -0.37835E+06
 0.97999992E+02 -0.34498E+06
