-0.19800000E+01  0.56334E+05
-0.19300001E+01  0.57279E+05
-0.18800000E+01  0.57071E+05
-0.18300000E+01  0.56140E+05
-0.17800000E+01  0.54652E+05
-0.17300000E+01  0.52735E+05
-0.16800001E+01  0.50734E+05
-0.16300000E+01  0.48945E+05
-0.15800000E+01  0.47418E+05
-0.15300000E+01  0.46532E+05
-0.14800000E+01  0.46878E+05
-0.14300001E+01  0.48751E+05
-0.13800000E+01  0.51785E+05
-0.13299999E+01  0.55531E+05
-0.12800000E+01  0.60029E+05
-0.12300000E+01  0.64893E+05
-0.11800001E+01  0.69855E+05
-0.11300000E+01  0.74820E+05
-0.10799999E+01  0.79036E+05
-0.10300000E+01  0.81714E+05
-0.98000002E+00  0.82929E+05
-0.92999995E+00  0.83036E+05
-0.88000000E+00  0.81679E+05
-0.83000004E+00  0.78734E+05
-0.77999997E+00  0.74356E+05
-0.73000002E+00  0.68588E+05
-0.67999995E+00  0.61796E+05
-0.63000000E+00  0.54126E+05
-0.58000004E+00  0.45823E+05
-0.52999997E+00  0.37141E+05
-0.48000002E+00  0.28197E+05
-0.42999995E+00  0.19530E+05
-0.38000000E+00  0.11640E+05
-0.33000004E+00  0.51090E+04
-0.27999997E+00 -0.11900E+03
-0.23000002E+00 -0.43580E+04
-0.17999995E+00 -0.73900E+04
-0.13000000E+00 -0.92250E+04
-0.80000043E-01 -0.96170E+04
-0.29999971E-01 -0.86590E+04
 0.19999981E-01 -0.68310E+04
 0.69999933E-01 -0.42380E+04
 0.12000012E+00 -0.87200E+03
 0.17000008E+00  0.28010E+04
 0.22000003E+00  0.60540E+04
 0.26999998E+00  0.88300E+04
 0.31999993E+00  0.10826E+05
 0.37000012E+00  0.11563E+05
 0.42000008E+00  0.10652E+05
 0.47000003E+00  0.78260E+04
 0.51999998E+00  0.31590E+04
 0.56999993E+00 -0.33290E+04
 0.62000012E+00 -0.11316E+05
 0.67000008E+00 -0.20495E+05
 0.72000003E+00 -0.30448E+05
 0.76999998E+00 -0.40646E+05
 0.81999993E+00 -0.50873E+05
 0.87000012E+00 -0.61148E+05
 0.92000008E+00 -0.71085E+05
 0.97000003E+00 -0.80111E+05
 0.10200000E+01 -0.88078E+05
 0.10699999E+01 -0.94727E+05
 0.11200001E+01 -0.99937E+05
 0.11700001E+01 -0.10339E+06
 0.12200000E+01 -0.10471E+06
 0.12700000E+01 -0.10398E+06
 0.13199999E+01 -0.10149E+06
 0.13700001E+01 -0.97612E+05
 0.14200001E+01 -0.92445E+05
 0.14700000E+01 -0.86359E+05
 0.15200000E+01 -0.79883E+05
 0.15699999E+01 -0.73620E+05
 0.16200001E+01 -0.68301E+05
 0.16700001E+01 -0.64047E+05
 0.17200000E+01 -0.60296E+05
 0.17700000E+01 -0.56992E+05
 0.18199999E+01 -0.54240E+05
 0.18700001E+01 -0.51987E+05
 0.19200001E+01 -0.50481E+05
 0.19700000E+01 -0.48926E+05
 0.20200000E+01 -0.46563E+05
 0.20700002E+01 -0.42992E+05
 0.21199999E+01 -0.37926E+05
 0.21700001E+01 -0.32030E+05
 0.22200003E+01 -0.25507E+05
 0.22700000E+01 -0.18290E+05
 0.23200002E+01 -0.10021E+05
 0.23699999E+01 -0.29700E+03
 0.24200001E+01  0.10434E+05
 0.24700003E+01  0.21596E+05
 0.25200000E+01  0.32564E+05
 0.25700002E+01  0.42814E+05
 0.26199999E+01  0.52259E+05
 0.26700001E+01  0.60946E+05
 0.27200003E+01  0.68630E+05
 0.27700000E+01  0.75325E+05
 0.28200002E+01  0.81281E+05
 0.28699999E+01  0.86401E+05
 0.29200001E+01  0.90196E+05
 0.29700003E+01  0.92079E+05
 0.30200000E+01  0.91955E+05
 0.30700002E+01  0.89908E+05
 0.31199999E+01  0.86289E+05
 0.31700001E+01  0.81471E+05
 0.32200003E+01  0.75076E+05
 0.32700000E+01  0.66964E+05
 0.33200002E+01  0.57602E+05
 0.33699999E+01  0.47653E+05
 0.34200001E+01  0.37799E+05
 0.34700003E+01  0.28370E+05
 0.35200000E+01  0.19341E+05
 0.35700002E+01  0.10661E+05
 0.36199999E+01  0.29890E+04
 0.36700001E+01 -0.27170E+04
 0.37200003E+01 -0.61330E+04
 0.37700000E+01 -0.76470E+04
 0.38200002E+01 -0.76880E+04
 0.38699999E+01 -0.65170E+04
 0.39200001E+01 -0.43810E+04
 0.39700003E+01 -0.12070E+04
 0.40200000E+01  0.28890E+04
 0.40700002E+01  0.74370E+04
 0.41199999E+01  0.11981E+05
 0.41700001E+01  0.16001E+05
 0.42200003E+01  0.19042E+05
 0.42700000E+01  0.20921E+05
 0.43200002E+01  0.21371E+05
 0.43699999E+01  0.20252E+05
 0.44200001E+01  0.17979E+05
 0.44700003E+01  0.15101E+05
 0.45200000E+01  0.11977E+05
 0.45700002E+01  0.84480E+04
 0.46199999E+01  0.44200E+04
 0.46700001E+01  0.44500E+03
 0.47200003E+01 -0.28210E+04
 0.47700000E+01 -0.48730E+04
 0.48200002E+01 -0.54980E+04
 0.48699999E+01 -0.47110E+04
 0.49200001E+01 -0.31450E+04
 0.49700003E+01 -0.14210E+04
 0.50200000E+01  0.82800E+03
 0.50700002E+01  0.40190E+04
 0.51199999E+01  0.86350E+04
 0.51700001E+01  0.15079E+05
 0.52200003E+01  0.22794E+05
 0.52700000E+01  0.30692E+05
 0.53200002E+01  0.38073E+05
 0.53699999E+01  0.44695E+05
 0.54200001E+01  0.49963E+05
 0.54700003E+01  0.53405E+05
 0.55200000E+01  0.55127E+05
 0.55700002E+01  0.55228E+05
 0.56199999E+01  0.54209E+05
 0.56700001E+01  0.52774E+05
 0.57200003E+01  0.51260E+05
 0.57700000E+01  0.49472E+05
 0.58200002E+01  0.47144E+05
 0.58699999E+01  0.44473E+05
 0.59200001E+01  0.42062E+05
 0.59700003E+01  0.40442E+05
 0.60200000E+01  0.39406E+05
 0.60700002E+01  0.38894E+05
 0.61200004E+01  0.38902E+05
 0.61700006E+01  0.39617E+05
 0.62199998E+01  0.41162E+05
 0.62700000E+01  0.43300E+05
 0.63200002E+01  0.46129E+05
 0.63700004E+01  0.49345E+05
 0.64200006E+01  0.52772E+05
 0.64699998E+01  0.55881E+05
 0.65200000E+01  0.58365E+05
 0.65700002E+01  0.60516E+05
 0.66200004E+01  0.61953E+05
 0.66700006E+01  0.62351E+05
 0.67199998E+01  0.61664E+05
 0.67700000E+01  0.60270E+05
 0.68200002E+01  0.58363E+05
 0.68700004E+01  0.55625E+05
 0.69200006E+01  0.51962E+05
 0.69699998E+01  0.47157E+05
 0.70200000E+01  0.41068E+05
 0.70700002E+01  0.34141E+05
 0.71200004E+01  0.26973E+05
 0.71700006E+01  0.19754E+05
 0.72199998E+01  0.12211E+05
 0.72700000E+01  0.39810E+04
 0.73200002E+01 -0.50680E+04
 0.73700004E+01 -0.14614E+05
 0.74200006E+01 -0.24549E+05
 0.74699998E+01 -0.35155E+05
 0.75200000E+01 -0.45916E+05
 0.75700002E+01 -0.56093E+05
 0.76200004E+01 -0.65175E+05
 0.76700006E+01 -0.72811E+05
 0.77199998E+01 -0.79201E+05
 0.77700000E+01 -0.84595E+05
 0.78200002E+01 -0.89656E+05
 0.78700004E+01 -0.95067E+05
 0.79200006E+01 -0.10074E+06
 0.79699998E+01 -0.10608E+06
 0.80200005E+01 -0.11058E+06
 0.80699997E+01 -0.11393E+06
 0.81200008E+01 -0.11597E+06
 0.81700001E+01 -0.11697E+06
 0.82199993E+01 -0.11655E+06
 0.82700005E+01 -0.11439E+06
 0.83199997E+01 -0.11102E+06
 0.83700008E+01 -0.10688E+06
 0.84200001E+01 -0.10208E+06
 0.84699993E+01 -0.96859E+05
 0.85200005E+01 -0.91262E+05
 0.85699997E+01 -0.84978E+05
 0.86200008E+01 -0.78320E+05
 0.86700001E+01 -0.71741E+05
 0.87199993E+01 -0.64975E+05
 0.87700005E+01 -0.57438E+05
 0.88199997E+01 -0.48942E+05
 0.88700008E+01 -0.39593E+05
 0.89200001E+01 -0.29640E+05
 0.89699993E+01 -0.19645E+05
 0.90200005E+01 -0.99040E+04
 0.90699997E+01 -0.54300E+03
 0.91200008E+01  0.85680E+04
 0.91700001E+01  0.17159E+05
 0.92199993E+01  0.24619E+05
 0.92700005E+01  0.31046E+05
 0.93199997E+01  0.36708E+05
 0.93700008E+01  0.42011E+05
 0.94200001E+01  0.47357E+05
 0.94699993E+01  0.52861E+05
 0.95200005E+01  0.58379E+05
 0.95699997E+01  0.63283E+05
 0.96200008E+01  0.67113E+05
 0.96700001E+01  0.69802E+05
 0.97199993E+01  0.71192E+05
 0.97700005E+01  0.71425E+05
 0.98199997E+01  0.70415E+05
 0.98700008E+01  0.67862E+05
 0.99200001E+01  0.63872E+05
 0.99699993E+01  0.58751E+05
 0.10020000E+02  0.52421E+05
 0.10070000E+02  0.44665E+05
 0.10120001E+02  0.35805E+05
 0.10170000E+02  0.25591E+05
 0.10219999E+02  0.14470E+05
 0.10270000E+02  0.31240E+04
 0.10320000E+02 -0.83670E+04
 0.10370001E+02 -0.19509E+05
 0.10420000E+02 -0.29850E+05
 0.10469999E+02 -0.38710E+05
 0.10520000E+02 -0.46284E+05
 0.10570000E+02 -0.52910E+05
 0.10620001E+02 -0.58616E+05
 0.10670000E+02 -0.63557E+05
 0.10719999E+02 -0.66890E+05
 0.10770000E+02 -0.68308E+05
 0.10820000E+02 -0.68437E+05
 0.10870001E+02 -0.67146E+05
 0.10920000E+02 -0.64316E+05
 0.10969999E+02 -0.60020E+05
 0.11020000E+02 -0.54843E+05
 0.11070000E+02 -0.49526E+05
 0.11120001E+02 -0.44026E+05
 0.11170000E+02 -0.38773E+05
 0.11219999E+02 -0.33929E+05
 0.11270000E+02 -0.29381E+05
 0.11320000E+02 -0.24770E+05
 0.11370001E+02 -0.19856E+05
 0.11420000E+02 -0.15334E+05
 0.11469999E+02 -0.11632E+05
 0.11520000E+02 -0.84730E+04
 0.11570000E+02 -0.57570E+04
 0.11620001E+02 -0.37970E+04
 0.11670000E+02 -0.20120E+04
 0.11719999E+02  0.99000E+02
 0.11770000E+02  0.21430E+04
 0.11820000E+02  0.43350E+04
 0.11870001E+02  0.70850E+04
 0.11920000E+02  0.10182E+05
 0.11969999E+02  0.13829E+05
 0.12020000E+02  0.18463E+05
 0.12070000E+02  0.24402E+05
 0.12120001E+02  0.31207E+05
 0.12170000E+02  0.37931E+05
 0.12219999E+02  0.44716E+05
 0.12270000E+02  0.51455E+05
 0.12320000E+02  0.57799E+05
 0.12370001E+02  0.63977E+05
 0.12420000E+02  0.69473E+05
 0.12469999E+02  0.73981E+05
 0.12520000E+02  0.77749E+05
 0.12570000E+02  0.80849E+05
 0.12620001E+02  0.82962E+05
 0.12670000E+02  0.83437E+05
 0.12719999E+02  0.83159E+05
 0.12770000E+02  0.82151E+05
 0.12820000E+02  0.80071E+05
 0.12870001E+02  0.78133E+05
 0.12920000E+02  0.75837E+05
 0.12969999E+02  0.72692E+05
 0.13020000E+02  0.68976E+05
 0.13070000E+02  0.64420E+05
 0.13120001E+02  0.58482E+05
 0.13170000E+02  0.50852E+05
 0.13219999E+02  0.42263E+05
 0.13270000E+02  0.32701E+05
 0.13320000E+02  0.21830E+05
 0.13370001E+02  0.99080E+04
 0.13420000E+02 -0.33800E+04
 0.13469999E+02 -0.18258E+05
 0.13520000E+02 -0.34270E+05
 0.13570000E+02 -0.50496E+05
 0.13620001E+02 -0.66267E+05
 0.13670000E+02 -0.81511E+05
 0.13719999E+02 -0.96283E+05
 0.13770000E+02 -0.11084E+06
 0.13820000E+02 -0.12481E+06
 0.13870001E+02 -0.13714E+06
 0.13920000E+02 -0.14736E+06
 0.13969999E+02 -0.15547E+06
 0.14020000E+02 -0.16156E+06
 0.14070002E+02 -0.16509E+06
 0.14120001E+02 -0.16574E+06
 0.14170000E+02 -0.16413E+06
 0.14220001E+02 -0.16029E+06
 0.14270000E+02 -0.15396E+06
 0.14320002E+02 -0.14518E+06
 0.14370001E+02 -0.13428E+06
 0.14420000E+02 -0.12212E+06
 0.14470001E+02 -0.10960E+06
 0.14520000E+02 -0.96800E+05
 0.14570002E+02 -0.83638E+05
 0.14620001E+02 -0.71044E+05
 0.14670000E+02 -0.59437E+05
 0.14720001E+02 -0.48434E+05
 0.14770000E+02 -0.37998E+05
 0.14820002E+02 -0.28136E+05
 0.14870001E+02 -0.18909E+05
 0.14920000E+02 -0.10256E+05
 0.14970001E+02 -0.23560E+04
 0.15020000E+02  0.46810E+04
 0.15070002E+02  0.11395E+05
 0.15120001E+02  0.18232E+05
 0.15170000E+02  0.25219E+05
 0.15220001E+02  0.32035E+05
 0.15270000E+02  0.37854E+05
 0.15320002E+02  0.42463E+05
 0.15370001E+02  0.46313E+05
 0.15420000E+02  0.49640E+05
 0.15470001E+02  0.52571E+05
 0.15520000E+02  0.55022E+05
 0.15570002E+02  0.57245E+05
 0.15620001E+02  0.59094E+05
 0.15670000E+02  0.60282E+05
 0.15720001E+02  0.61159E+05
 0.15770000E+02  0.61833E+05
 0.15820002E+02  0.62212E+05
 0.15870001E+02  0.62484E+05
 0.15920000E+02  0.62729E+05
 0.15970001E+02  0.62699E+05
 0.16020000E+02  0.62503E+05
 0.16070002E+02  0.61941E+05
 0.16120001E+02  0.60776E+05
 0.16170000E+02  0.59670E+05
 0.16220001E+02  0.59034E+05
 0.16270000E+02  0.58506E+05
 0.16320002E+02  0.57854E+05
 0.16370001E+02  0.57175E+05
 0.16420000E+02  0.56219E+05
 0.16470001E+02  0.54710E+05
 0.16520000E+02  0.53131E+05
 0.16570002E+02  0.52243E+05
 0.16620001E+02  0.52123E+05
 0.16670000E+02  0.52610E+05
 0.16720001E+02  0.53280E+05
 0.16770000E+02  0.53306E+05
 0.16820002E+02  0.52426E+05
 0.16870001E+02  0.50209E+05
 0.16920000E+02  0.46830E+05
 0.16970001E+02  0.42811E+05
 0.17020000E+02  0.37930E+05
 0.17070002E+02  0.32367E+05
 0.17120001E+02  0.25680E+05
 0.17170000E+02  0.18083E+05
 0.17220001E+02  0.10749E+05
 0.17270000E+02  0.36080E+04
 0.17320002E+02 -0.36040E+04
 0.17370001E+02 -0.10653E+05
 0.17420000E+02 -0.17128E+05
 0.17470001E+02 -0.22913E+05
 0.17520000E+02 -0.28048E+05
 0.17570002E+02 -0.32544E+05
 0.17620001E+02 -0.36248E+05
 0.17670000E+02 -0.38773E+05
 0.17720001E+02 -0.39964E+05
 0.17770000E+02 -0.39804E+05
 0.17820002E+02 -0.38793E+05
 0.17870001E+02 -0.37335E+05
 0.17920000E+02 -0.35751E+05
 0.17970001E+02 -0.33978E+05
 0.18020000E+02 -0.31143E+05
 0.18070002E+02 -0.26855E+05
 0.18120001E+02 -0.21178E+05
 0.18170000E+02 -0.14730E+05
 0.18220001E+02 -0.82540E+04
 0.18270000E+02 -0.22530E+04
 0.18320002E+02  0.30000E+04
 0.18370001E+02  0.76700E+04
 0.18420000E+02  0.11871E+05
 0.18470001E+02  0.15516E+05
 0.18520000E+02  0.18572E+05
 0.18570002E+02  0.21137E+05
 0.18620001E+02  0.23051E+05
 0.18670000E+02  0.24404E+05
 0.18720001E+02  0.25677E+05
 0.18770000E+02  0.27118E+05
 0.18820002E+02  0.28425E+05
 0.18870001E+02  0.29359E+05
 0.18920000E+02  0.30078E+05
 0.18970001E+02  0.30680E+05
 0.19020000E+02  0.31237E+05
 0.19070002E+02  0.31637E+05
 0.19120001E+02  0.31657E+05
 0.19170000E+02  0.30819E+05
 0.19220001E+02  0.29196E+05
 0.19270000E+02  0.26961E+05
 0.19320002E+02  0.23717E+05
 0.19370001E+02  0.19707E+05
 0.19420000E+02  0.15260E+05
 0.19470001E+02  0.10608E+05
 0.19520000E+02  0.60060E+04
 0.19570002E+02  0.15110E+04
 0.19620001E+02 -0.27710E+04
 0.19670000E+02 -0.67900E+04
 0.19720001E+02 -0.10402E+05
 0.19770000E+02 -0.13167E+05
 0.19820002E+02 -0.14962E+05
 0.19870001E+02 -0.16246E+05
 0.19920000E+02 -0.17332E+05
 0.19970001E+02 -0.18529E+05
 0.20020000E+02 -0.20099E+05
 0.20070002E+02 -0.21667E+05
 0.20120001E+02 -0.22927E+05
 0.20170000E+02 -0.24266E+05
 0.20220001E+02 -0.26049E+05
 0.20270000E+02 -0.28055E+05
 0.20320002E+02 -0.29979E+05
 0.20370001E+02 -0.31967E+05
 0.20420000E+02 -0.34172E+05
 0.20470001E+02 -0.36368E+05
 0.20520000E+02 -0.38601E+05
 0.20570002E+02 -0.40955E+05
 0.20620001E+02 -0.43202E+05
 0.20670000E+02 -0.45303E+05
 0.20720001E+02 -0.47106E+05
 0.20770000E+02 -0.48127E+05
 0.20820002E+02 -0.47984E+05
 0.20870001E+02 -0.46670E+05
 0.20920000E+02 -0.44225E+05
 0.20970001E+02 -0.40489E+05
 0.21020000E+02 -0.35423E+05
 0.21070002E+02 -0.29158E+05
 0.21120001E+02 -0.21955E+05
 0.21170000E+02 -0.13912E+05
 0.21220001E+02 -0.50330E+04
 0.21270000E+02  0.44700E+04
 0.21320002E+02  0.14067E+05
 0.21370001E+02  0.23062E+05
 0.21420000E+02  0.31347E+05
 0.21470001E+02  0.38892E+05
 0.21520000E+02  0.45335E+05
 0.21570002E+02  0.50716E+05
 0.21620001E+02  0.55313E+05
 0.21670000E+02  0.58728E+05
 0.21720001E+02  0.60611E+05
 0.21770000E+02  0.61486E+05
 0.21820002E+02  0.61665E+05
 0.21870001E+02  0.61272E+05
 0.21920000E+02  0.60389E+05
 0.21970001E+02  0.59104E+05
 0.22020000E+02  0.57516E+05
 0.22070002E+02  0.55313E+05
 0.22120001E+02  0.52580E+05
 0.22170000E+02  0.49456E+05
 0.22220001E+02  0.45944E+05
 0.22270000E+02  0.42394E+05
 0.22320002E+02  0.38886E+05
 0.22370001E+02  0.35402E+05
 0.22420000E+02  0.32264E+05
 0.22470001E+02  0.29727E+05
 0.22520000E+02  0.27331E+05
 0.22570002E+02  0.24659E+05
 0.22620001E+02  0.22125E+05
 0.22670000E+02  0.19522E+05
 0.22720001E+02  0.16466E+05
 0.22770000E+02  0.13263E+05
 0.22820002E+02  0.99410E+04
 0.22870001E+02  0.67640E+04
 0.22920000E+02  0.42710E+04
 0.22970001E+02  0.27870E+04
 0.23020000E+02  0.22660E+04
 0.23070002E+02  0.26030E+04
 0.23120001E+02  0.36240E+04
 0.23170000E+02  0.50910E+04
 0.23220001E+02  0.72880E+04
 0.23270000E+02  0.99310E+04
 0.23320002E+02  0.12406E+05
 0.23370001E+02  0.14225E+05
 0.23420000E+02  0.15015E+05
 0.23470001E+02  0.15097E+05
 0.23520000E+02  0.14614E+05
 0.23570002E+02  0.13673E+05
 0.23620001E+02  0.12551E+05
 0.23670000E+02  0.11234E+05
 0.23720001E+02  0.96940E+04
 0.23770000E+02  0.78110E+04
 0.23820002E+02  0.54910E+04
 0.23870001E+02  0.27540E+04
 0.23920000E+02 -0.45700E+03
 0.23970001E+02 -0.42790E+04
 0.24020000E+02 -0.86800E+04
 0.24070002E+02 -0.13251E+05
 0.24120001E+02 -0.17842E+05
 0.24170000E+02 -0.22708E+05
 0.24220001E+02 -0.27514E+05
 0.24270000E+02 -0.31969E+05
 0.24320002E+02 -0.36272E+05
 0.24370001E+02 -0.40347E+05
 0.24420000E+02 -0.44437E+05
 0.24470001E+02 -0.48929E+05
 0.24520000E+02 -0.53610E+05
 0.24570002E+02 -0.57804E+05
 0.24620001E+02 -0.61190E+05
 0.24670000E+02 -0.63773E+05
 0.24720001E+02 -0.65671E+05
 0.24770000E+02 -0.67464E+05
 0.24820002E+02 -0.69397E+05
 0.24870001E+02 -0.71681E+05
 0.24920000E+02 -0.74223E+05
 0.24970001E+02 -0.76493E+05
 0.25020000E+02 -0.78556E+05
 0.25070002E+02 -0.80144E+05
 0.25120001E+02 -0.81159E+05
 0.25170000E+02 -0.81826E+05
 0.25220001E+02 -0.82168E+05
 0.25270000E+02 -0.82458E+05
 0.25320002E+02 -0.82738E+05
 0.25370001E+02 -0.83000E+05
 0.25420000E+02 -0.83092E+05
 0.25470001E+02 -0.83004E+05
 0.25520000E+02 -0.82233E+05
 0.25570002E+02 -0.79602E+05
 0.25620001E+02 -0.75062E+05
 0.25670000E+02 -0.69026E+05
 0.25720001E+02 -0.61322E+05
 0.25770000E+02 -0.52081E+05
 0.25820002E+02 -0.42131E+05
 0.25870001E+02 -0.31835E+05
 0.25920000E+02 -0.21294E+05
 0.25970001E+02 -0.10613E+05
 0.26020000E+02  0.13200E+03
 0.26070002E+02  0.10430E+05
 0.26120001E+02  0.19674E+05
 0.26170000E+02  0.27159E+05
 0.26220001E+02  0.32617E+05
 0.26270000E+02  0.36371E+05
 0.26320002E+02  0.38770E+05
 0.26370001E+02  0.40116E+05
 0.26420000E+02  0.40520E+05
 0.26470001E+02  0.39950E+05
 0.26520000E+02  0.38588E+05
 0.26570002E+02  0.36648E+05
 0.26620001E+02  0.34455E+05
 0.26670000E+02  0.31898E+05
 0.26720001E+02  0.28900E+05
 0.26770000E+02  0.25787E+05
 0.26820002E+02  0.23061E+05
 0.26870001E+02  0.21415E+05
 0.26920000E+02  0.20060E+05
 0.26970001E+02  0.18401E+05
 0.27020000E+02  0.16446E+05
 0.27070002E+02  0.14377E+05
 0.27120001E+02  0.12601E+05
 0.27170000E+02  0.10809E+05
 0.27220001E+02  0.92580E+04
 0.27270000E+02  0.80850E+04
 0.27320002E+02  0.74050E+04
 0.27370001E+02  0.72240E+04
 0.27420000E+02  0.71320E+04
 0.27470001E+02  0.70980E+04
 0.27520000E+02  0.74400E+04
 0.27570002E+02  0.88390E+04
 0.27620001E+02  0.11140E+05
 0.27670000E+02  0.14092E+05
 0.27720001E+02  0.17876E+05
 0.27770000E+02  0.22083E+05
 0.27820002E+02  0.26377E+05
 0.27870001E+02  0.30638E+05
 0.27920000E+02  0.34256E+05
 0.27970001E+02  0.36403E+05
 0.28020000E+02  0.37013E+05
 0.28070002E+02  0.36440E+05
 0.28120001E+02  0.34997E+05
 0.28170000E+02  0.33102E+05
 0.28220001E+02  0.31011E+05
 0.28270000E+02  0.28662E+05
 0.28320002E+02  0.26086E+05
 0.28370001E+02  0.23587E+05
 0.28420000E+02  0.21322E+05
 0.28470001E+02  0.18977E+05
 0.28520000E+02  0.16246E+05
 0.28570002E+02  0.13454E+05
 0.28620001E+02  0.10907E+05
 0.28670000E+02  0.89330E+04
 0.28720001E+02  0.77270E+04
 0.28770000E+02  0.66440E+04
 0.28820002E+02  0.53060E+04
 0.28870001E+02  0.35280E+04
 0.28920000E+02  0.10540E+04
 0.28970001E+02 -0.18540E+04
 0.29020000E+02 -0.51510E+04
 0.29070002E+02 -0.85240E+04
 0.29120001E+02 -0.11910E+05
 0.29170000E+02 -0.15603E+05
 0.29220001E+02 -0.19412E+05
 0.29270000E+02 -0.23272E+05
 0.29320002E+02 -0.26762E+05
 0.29370001E+02 -0.29732E+05
 0.29420000E+02 -0.32501E+05
 0.29470001E+02 -0.35014E+05
 0.29520000E+02 -0.36485E+05
 0.29570002E+02 -0.36079E+05
 0.29620001E+02 -0.33724E+05
 0.29670000E+02 -0.29722E+05
 0.29720001E+02 -0.24922E+05
 0.29770000E+02 -0.19854E+05
 0.29820002E+02 -0.14646E+05
 0.29870001E+02 -0.93540E+04
 0.29920000E+02 -0.36730E+04
 0.29970001E+02  0.20700E+04
 0.30020000E+02  0.72260E+04
 0.30070000E+02  0.11730E+05
 0.30120003E+02  0.15513E+05
 0.30170002E+02  0.18020E+05
 0.30220001E+02  0.18824E+05
 0.30270000E+02  0.17753E+05
 0.30320000E+02  0.15206E+05
 0.30370003E+02  0.11818E+05
 0.30420002E+02  0.80660E+04
 0.30470001E+02  0.44260E+04
 0.30520000E+02  0.57700E+03
 0.30570000E+02 -0.33730E+04
 0.30620003E+02 -0.71520E+04
 0.30670002E+02 -0.10800E+05
 0.30720001E+02 -0.13520E+05
 0.30770000E+02 -0.15183E+05
 0.30820000E+02 -0.16146E+05
 0.30870003E+02 -0.16299E+05
 0.30920002E+02 -0.15858E+05
 0.30970001E+02 -0.14916E+05
 0.31020000E+02 -0.13456E+05
 0.31070000E+02 -0.11685E+05
 0.31120003E+02 -0.97250E+04
 0.31170002E+02 -0.77980E+04
 0.31220001E+02 -0.57310E+04
 0.31270000E+02 -0.32610E+04
 0.31320000E+02 -0.61000E+03
 0.31370003E+02  0.19640E+04
 0.31420002E+02  0.45360E+04
 0.31470001E+02  0.71810E+04
 0.31520000E+02  0.10035E+05
 0.31570000E+02  0.13080E+05
 0.31620003E+02  0.15718E+05
 0.31670002E+02  0.17721E+05
 0.31720001E+02  0.19263E+05
 0.31770000E+02  0.20657E+05
 0.31820000E+02  0.21784E+05
 0.31870003E+02  0.22693E+05
 0.31920002E+02  0.23925E+05
 0.31970001E+02  0.25170E+05
 0.32020000E+02  0.25726E+05
 0.32070000E+02  0.25582E+05
 0.32120003E+02  0.24853E+05
 0.32170002E+02  0.23196E+05
 0.32220001E+02  0.20627E+05
 0.32270000E+02  0.17588E+05
 0.32320000E+02  0.14560E+05
 0.32370003E+02  0.11936E+05
 0.32420002E+02  0.99720E+04
 0.32470001E+02  0.87610E+04
 0.32520000E+02  0.80680E+04
 0.32570000E+02  0.73140E+04
 0.32620003E+02  0.63400E+04
 0.32670002E+02  0.54020E+04
 0.32720001E+02  0.42850E+04
 0.32770000E+02  0.32100E+04
 0.32820000E+02  0.22470E+04
 0.32870003E+02  0.97900E+03
 0.32920002E+02 -0.27800E+03
 0.32970001E+02 -0.90600E+03
 0.33020000E+02 -0.73000E+03
 0.33070000E+02 -0.13000E+02
 0.33120003E+02  0.10960E+04
 0.33170002E+02  0.17590E+04
 0.33220001E+02  0.21640E+04
 0.33270000E+02  0.31780E+04
 0.33320000E+02  0.38240E+04
 0.33370003E+02  0.40950E+04
 0.33420002E+02  0.41900E+04
 0.33470001E+02  0.37230E+04
 0.33520000E+02  0.30390E+04
 0.33570000E+02  0.20200E+04
 0.33620003E+02  0.81900E+03
 0.33670002E+02 -0.11600E+03
 0.33720001E+02 -0.73000E+03
 0.33770000E+02 -0.10950E+04
 0.33820000E+02 -0.12270E+04
 0.33870003E+02 -0.10370E+04
 0.33920002E+02 -0.38000E+03
 0.33970001E+02  0.52900E+03
 0.34020000E+02  0.12130E+04
 0.34070000E+02  0.24320E+04
 0.34120003E+02  0.41610E+04
 0.34170002E+02  0.55460E+04
 0.34220001E+02  0.68680E+04
 0.34270000E+02  0.78440E+04
 0.34320000E+02  0.92960E+04
 0.34370003E+02  0.10979E+05
 0.34420002E+02  0.11921E+05
 0.34470001E+02  0.13770E+05
 0.34520000E+02  0.15457E+05
 0.34570000E+02  0.16575E+05
 0.34620003E+02  0.18511E+05
 0.34670002E+02  0.20029E+05
 0.34720001E+02  0.20113E+05
 0.34770000E+02  0.19189E+05
 0.34820000E+02  0.18344E+05
 0.34870003E+02  0.16871E+05
 0.34920002E+02  0.14376E+05
 0.34970001E+02  0.12071E+05
 0.35020000E+02  0.96320E+04
 0.35070000E+02  0.64580E+04
 0.35120003E+02  0.19630E+04
 0.35170002E+02 -0.36700E+04
 0.35220001E+02 -0.84690E+04
 0.35270000E+02 -0.13146E+05
 0.35320000E+02 -0.18777E+05
 0.35370003E+02 -0.24424E+05
 0.35420002E+02 -0.28115E+05
 0.35470001E+02 -0.29078E+05
 0.35520000E+02 -0.31500E+05
 0.35570000E+02 -0.33799E+05
 0.35620003E+02 -0.34587E+05
 0.35670002E+02 -0.41412E+05
 0.35720001E+02 -0.51302E+05
 0.35770000E+02 -0.57239E+05
 0.35820000E+02 -0.62872E+05
 0.35870003E+02 -0.69396E+05
 0.35920002E+02 -0.73084E+05
 0.35970001E+02 -0.72638E+05
 0.36020000E+02 -0.70503E+05
 0.36070000E+02 -0.71623E+05
 0.36120003E+02 -0.73558E+05
 0.36170002E+02 -0.69675E+05
 0.36220001E+02 -0.66124E+05
 0.36270000E+02 -0.62677E+05
 0.36320000E+02 -0.52340E+05
 0.36370003E+02 -0.43069E+05
 0.36420002E+02 -0.36757E+05
 0.36470001E+02 -0.32484E+05
 0.36520000E+02 -0.33507E+05
 0.36570000E+02 -0.36118E+05
 0.36620003E+02 -0.39809E+05
 0.36670002E+02 -0.40567E+05
 0.36720001E+02 -0.37313E+05
 0.36770000E+02 -0.38546E+05
 0.36820000E+02 -0.42696E+05
 0.36870003E+02 -0.46758E+05
 0.36920002E+02 -0.47483E+05
 0.36970001E+02 -0.45716E+05
 0.37020000E+02 -0.48995E+05
 0.37070000E+02 -0.57092E+05
 0.37120003E+02 -0.67304E+05
 0.37170002E+02 -0.72213E+05
 0.37220001E+02 -0.69914E+05
 0.37270000E+02 -0.68636E+05
 0.37320000E+02 -0.67106E+05
 0.37370003E+02 -0.64388E+05
 0.37420002E+02 -0.66176E+05
 0.37470001E+02 -0.67835E+05
 0.37520000E+02 -0.71604E+05
 0.37570000E+02 -0.75624E+05
 0.37620003E+02 -0.70031E+05
 0.37670002E+02 -0.62190E+05
 0.37720001E+02 -0.50375E+05
 0.37770000E+02 -0.32128E+05
 0.37820000E+02 -0.16628E+05
 0.37870003E+02 -0.63570E+04
 0.37920002E+02 -0.47300E+03
 0.37970001E+02  0.25900E+03
 0.38020000E+02  0.51880E+04
 0.38070000E+02  0.17805E+05
 0.38120003E+02  0.28318E+05
 0.38170002E+02  0.35438E+05
 0.38220001E+02  0.38949E+05
 0.38270000E+02  0.43330E+05
 0.38320000E+02  0.47703E+05
 0.38370003E+02  0.48720E+05
 0.38420002E+02  0.52038E+05
 0.38470001E+02  0.49582E+05
 0.38520000E+02  0.35522E+05
 0.38570000E+02  0.25346E+05
 0.38620003E+02  0.22432E+05
 0.38670002E+02  0.23100E+05
 0.38720001E+02  0.26771E+05
 0.38770000E+02  0.24906E+05
 0.38820000E+02  0.25514E+05
 0.38870003E+02  0.31459E+05
 0.38920002E+02  0.37888E+05
 0.38970001E+02  0.42755E+05
 0.39020000E+02  0.39130E+05
 0.39070000E+02  0.37837E+05
 0.39120003E+02  0.46756E+05
 0.39170002E+02  0.52145E+05
 0.39220001E+02  0.46366E+05
 0.39270000E+02  0.42720E+05
 0.39320000E+02  0.44142E+05
 0.39370003E+02  0.42282E+05
 0.39420002E+02  0.45325E+05
 0.39470001E+02  0.55830E+05
 0.39520000E+02  0.59349E+05
 0.39570000E+02  0.60380E+05
 0.39620003E+02  0.74856E+05
 0.39670002E+02  0.94415E+05
 0.39720001E+02  0.10998E+06
 0.39770000E+02  0.11939E+06
 0.39820000E+02  0.11827E+06
 0.39870003E+02  0.10051E+06
 0.39920002E+02  0.75060E+05
 0.39970001E+02  0.49691E+05
 0.40020000E+02  0.20768E+05
 0.40070000E+02  0.18911E+05
 0.40120003E+02  0.43290E+05
 0.40170002E+02  0.45737E+05
 0.40220001E+02  0.47889E+05
 0.40270000E+02  0.76421E+05
 0.40320000E+02  0.93931E+05
 0.40370003E+02  0.10808E+06
 0.40420002E+02  0.11666E+06
 0.40470001E+02  0.10964E+06
 0.40520000E+02  0.11672E+06
 0.40570000E+02  0.12025E+06
 0.40620003E+02  0.10717E+06
 0.40670002E+02  0.65413E+05
 0.40720001E+02 -0.42900E+04
 0.40770000E+02 -0.48753E+05
 0.40820000E+02 -0.61433E+05
 0.40870003E+02 -0.72123E+05
 0.40920002E+02 -0.78339E+05
 0.40970001E+02 -0.71781E+05
 0.41020000E+02 -0.53274E+05
 0.41070000E+02 -0.23085E+05
 0.41120003E+02 -0.51170E+04
 0.41170002E+02 -0.39450E+04
 0.41220001E+02  0.25520E+04
 0.41270000E+02 -0.16010E+04
 0.41320000E+02 -0.19631E+05
 0.41370003E+02 -0.28377E+05
 0.41420002E+02 -0.32687E+05
 0.41470001E+02 -0.27658E+05
 0.41520000E+02 -0.63160E+04
 0.41570000E+02  0.12099E+05
 0.41620003E+02  0.32109E+05
 0.41670002E+02  0.61530E+05
 0.41720001E+02  0.77541E+05
 0.41770000E+02  0.70786E+05
 0.41820000E+02  0.43969E+05
 0.41870003E+02  0.56290E+04
 0.41920002E+02 -0.18359E+05
 0.41970001E+02 -0.32976E+05
 0.42020000E+02 -0.35920E+05
 0.42070000E+02 -0.40709E+05
 0.42120003E+02 -0.73224E+05
 0.42170002E+02 -0.75511E+05
 0.42220001E+02 -0.33510E+05
 0.42270000E+02  0.17711E+05
 0.42320000E+02  0.10121E+06
 0.42370003E+02  0.18872E+06
 0.42420002E+02  0.19324E+06
 0.42470001E+02  0.12845E+06
 0.42520000E+02  0.58607E+05
 0.42570000E+02  0.26447E+05
 0.42620003E+02  0.71834E+05
 0.42670002E+02  0.12932E+06
 0.42720001E+02  0.11284E+06
 0.42770000E+02  0.72402E+05
 0.42820000E+02  0.26491E+05
 0.42870003E+02 -0.36409E+05
 0.42920002E+02 -0.43318E+05
 0.42970001E+02 -0.13292E+05
 0.43020000E+02 -0.82250E+04
 0.43070000E+02 -0.36900E+03
 0.43120003E+02  0.12791E+05
 0.43170002E+02 -0.76920E+04
 0.43220001E+02 -0.25087E+05
 0.43270000E+02 -0.73910E+04
 0.43320000E+02 -0.10877E+05
 0.43370003E+02 -0.24963E+05
 0.43420002E+02  0.50000E+04
 0.43470001E+02  0.36970E+05
 0.43520000E+02  0.98020E+04
 0.43570000E+02 -0.81360E+05
 0.43620003E+02 -0.20528E+06
 0.43670002E+02 -0.28909E+06
 0.43720001E+02 -0.30378E+06
 0.43770000E+02 -0.27059E+06
 0.43820000E+02 -0.17460E+06
 0.43870003E+02 -0.63550E+05
 0.43920002E+02 -0.21879E+05
 0.43970001E+02 -0.19288E+05
 0.44020000E+02 -0.22580E+05
 0.44070000E+02 -0.36608E+05
 0.44120003E+02 -0.39280E+05
 0.44170002E+02 -0.29485E+05
 0.44220001E+02 -0.37922E+05
 0.44270000E+02 -0.83293E+05
 0.44320000E+02 -0.14700E+06
 0.44370003E+02 -0.24407E+06
 0.44420002E+02 -0.35385E+06
 0.44470001E+02 -0.39528E+06
 0.44520000E+02 -0.36810E+06
 0.44570000E+02 -0.32839E+06
 0.44620003E+02 -0.29369E+06
 0.44670002E+02 -0.23104E+06
 0.44720001E+02 -0.11954E+06
 0.44770000E+02  0.63100E+03
 0.44820000E+02  0.96011E+05
 0.44870003E+02  0.18070E+06
 0.44920002E+02  0.21003E+06
 0.44970001E+02  0.15611E+06
 0.45020000E+02  0.11117E+06
 0.45070000E+02  0.15233E+06
 0.45120003E+02  0.24148E+06
 0.45170002E+02  0.28062E+06
 0.45220001E+02  0.24818E+06
 0.45270000E+02  0.20060E+06
 0.45320000E+02  0.16536E+06
 0.45370003E+02  0.10871E+06
 0.45420002E+02  0.32396E+05
 0.45470001E+02 -0.11780E+04
 0.45520000E+02  0.45340E+04
 0.45570000E+02  0.34697E+05
 0.45620003E+02  0.83261E+05
 0.45670002E+02  0.73645E+05
 0.45720001E+02 -0.11698E+05
 0.45770000E+02 -0.91145E+05
 0.45820000E+02 -0.10943E+06
 0.45870003E+02 -0.50959E+05
 0.45920002E+02  0.52519E+05
 0.45970001E+02  0.17749E+06
 0.46020000E+02  0.34574E+06
 0.46070000E+02  0.44393E+06
 0.46120003E+02  0.37831E+06
 0.46170002E+02  0.22291E+06
 0.46220001E+02  0.38799E+05
 0.46270000E+02 -0.51652E+05
 0.46320000E+02  0.20572E+05
 0.46370003E+02  0.13140E+06
 0.46420002E+02  0.18748E+06
 0.46470001E+02  0.16638E+06
 0.46520000E+02  0.87649E+05
 0.46570000E+02  0.38650E+04
 0.46620003E+02 -0.52232E+05
 0.46670002E+02 -0.30991E+05
 0.46720001E+02  0.36555E+05
 0.46770000E+02  0.13784E+05
 0.46820000E+02 -0.13074E+06
 0.46870003E+02 -0.32705E+06
 0.46920002E+02 -0.50147E+06
 0.46970001E+02 -0.60054E+06
 0.47020000E+02 -0.59972E+06
 0.47070000E+02 -0.47606E+06
 0.47120003E+02 -0.27042E+06
 0.47170002E+02 -0.92888E+05
 0.47220001E+02  0.81310E+04
 0.47270000E+02  0.22890E+05
 0.47320000E+02 -0.65856E+05
 0.47370003E+02 -0.16318E+06
 0.47420002E+02 -0.18812E+06
 0.47470001E+02 -0.16361E+06
 0.47520000E+02 -0.75577E+05
 0.47570000E+02  0.61901E+05
 0.47620003E+02  0.21167E+06
 0.47670002E+02  0.36812E+06
 0.47720001E+02  0.49675E+06
 0.47770000E+02  0.57034E+06
 0.47820000E+02  0.60575E+06
 0.47870003E+02  0.67515E+06
 0.47920002E+02  0.82883E+06
 0.47970001E+02  0.99364E+06
 0.48020000E+02  0.10122E+07
 0.48070000E+02  0.83851E+06
 0.48120003E+02  0.59793E+06
 0.48170002E+02  0.40343E+06
 0.48220001E+02  0.28620E+06
 0.48270000E+02  0.21182E+06
 0.48320000E+02  0.14933E+06
 0.48370003E+02  0.67833E+05
 0.48420002E+02 -0.46080E+05
 0.48470001E+02 -0.14912E+06
 0.48520000E+02 -0.19381E+06
 0.48570000E+02 -0.16124E+06
 0.48620003E+02 -0.11450E+06
 0.48670002E+02 -0.13556E+06
 0.48720001E+02 -0.25518E+06
 0.48770000E+02 -0.40545E+06
 0.48820000E+02 -0.49199E+06
 0.48870003E+02 -0.48042E+06
 0.48920002E+02 -0.40817E+06
 0.48970001E+02 -0.36120E+06
 0.49020000E+02 -0.36158E+06
 0.49070000E+02 -0.40631E+06
 0.49120003E+02 -0.45003E+06
 0.49170002E+02 -0.44499E+06
 0.49220001E+02 -0.38747E+06
 0.49270000E+02 -0.21224E+06
 0.49320000E+02  0.10905E+06
 0.49370003E+02  0.48391E+06
 0.49420002E+02  0.77568E+06
 0.49470001E+02  0.92927E+06
 0.49520000E+02  0.99359E+06
 0.49570000E+02  0.10063E+07
 0.49620003E+02  0.99434E+06
 0.49670002E+02  0.94732E+06
 0.49720001E+02  0.78787E+06
 0.49770000E+02  0.52609E+06
 0.49820000E+02  0.26484E+06
 0.49870003E+02  0.35667E+05
 0.49920002E+02 -0.14980E+06
 0.49970001E+02 -0.25599E+06
 0.50020000E+02 -0.34374E+06
 0.50070000E+02 -0.46514E+06
 0.50120003E+02 -0.57005E+06
 0.50170002E+02 -0.59623E+06
 0.50220001E+02 -0.53330E+06
 0.50270000E+02 -0.45737E+06
 0.50320000E+02 -0.42735E+06
 0.50370003E+02 -0.40851E+06
 0.50420002E+02 -0.32383E+06
 0.50470001E+02 -0.14524E+06
 0.50520000E+02  0.66040E+05
 0.50570000E+02  0.23408E+06
 0.50620003E+02  0.28028E+06
 0.50670002E+02  0.19167E+06
 0.50720001E+02  0.85657E+05
 0.50770000E+02  0.48065E+05
 0.50820000E+02  0.72927E+05
 0.50870003E+02  0.13154E+06
 0.50920002E+02  0.16958E+06
 0.50970001E+02  0.16798E+06
 0.51020000E+02  0.15209E+06
 0.51070000E+02  0.13005E+06
 0.51120003E+02  0.90568E+05
 0.51170002E+02 -0.11913E+05
 0.51220001E+02 -0.17516E+06
 0.51270000E+02 -0.33383E+06
 0.51320000E+02 -0.44227E+06
 0.51370003E+02 -0.48018E+06
 0.51420002E+02 -0.45027E+06
 0.51470001E+02 -0.34896E+06
 0.51520000E+02 -0.19982E+06
 0.51570000E+02 -0.72984E+05
 0.51620003E+02 -0.46690E+04
 0.51670002E+02  0.31620E+05
 0.51720001E+02  0.45069E+05
 0.51770000E+02  0.20553E+05
 0.51820000E+02 -0.22771E+05
 0.51870003E+02 -0.84718E+05
 0.51920002E+02 -0.16298E+06
 0.51970001E+02 -0.23633E+06
 0.52020000E+02 -0.33151E+06
 0.52070000E+02 -0.44133E+06
 0.52120003E+02 -0.49904E+06
 0.52170002E+02 -0.49144E+06
 0.52220001E+02 -0.43941E+06
 0.52270000E+02 -0.36988E+06
 0.52320000E+02 -0.31789E+06
 0.52370003E+02 -0.26946E+06
 0.52420002E+02 -0.21300E+06
 0.52470001E+02 -0.17561E+06
 0.52520000E+02 -0.15600E+06
 0.52570000E+02 -0.12608E+06
 0.52620003E+02 -0.86477E+05
 0.52670002E+02 -0.51235E+05
 0.52720001E+02 -0.22334E+05
 0.52770000E+02 -0.17211E+05
 0.52820000E+02 -0.24888E+05
 0.52870003E+02 -0.43910E+04
 0.52920002E+02  0.32099E+05
 0.52970001E+02  0.60036E+05
 0.53020000E+02  0.83260E+05
 0.53070000E+02  0.94686E+05
 0.53120003E+02  0.80710E+05
 0.53170002E+02  0.55204E+05
 0.53220001E+02  0.49582E+05
 0.53270000E+02  0.79349E+05
 0.53320000E+02  0.14467E+06
 0.53370003E+02  0.23587E+06
 0.53420002E+02  0.32516E+06
 0.53470001E+02  0.35742E+06
 0.53520000E+02  0.30657E+06
 0.53570000E+02  0.18898E+06
 0.53620003E+02  0.53177E+05
 0.53670002E+02 -0.30232E+05
 0.53720001E+02 -0.43141E+05
 0.53770000E+02  0.61270E+04
 0.53820000E+02  0.76531E+05
 0.53870003E+02  0.12828E+06
 0.53920002E+02  0.16539E+06
 0.53970001E+02  0.17436E+06
 0.54020000E+02  0.14916E+06
 0.54070000E+02  0.88830E+05
 0.54120003E+02  0.73830E+04
 0.54170002E+02 -0.63042E+05
 0.54220001E+02 -0.95891E+05
 0.54270000E+02 -0.70691E+05
 0.54320000E+02  0.56230E+04
 0.54370003E+02  0.10082E+06
 0.54420002E+02  0.15908E+06
 0.54470001E+02  0.15383E+06
 0.54520000E+02  0.13065E+06
 0.54570000E+02  0.12003E+06
 0.54620003E+02  0.78704E+05
 0.54670002E+02 -0.20372E+05
 0.54720001E+02 -0.14740E+06
 0.54770000E+02 -0.24121E+06
 0.54820000E+02 -0.25461E+06
 0.54870003E+02 -0.21275E+06
 0.54920002E+02 -0.16164E+06
 0.54970001E+02 -0.12011E+06
 0.55020000E+02 -0.91165E+05
 0.55070000E+02 -0.78601E+05
 0.55120003E+02 -0.82088E+05
 0.55170002E+02 -0.85084E+05
 0.55220001E+02 -0.99896E+05
 0.55270000E+02 -0.14849E+06
 0.55320000E+02 -0.19693E+06
 0.55370003E+02 -0.21738E+06
 0.55420002E+02 -0.20553E+06
 0.55470001E+02 -0.17024E+06
 0.55520000E+02 -0.16729E+06
 0.55570000E+02 -0.19674E+06
 0.55620003E+02 -0.20645E+06
 0.55670002E+02 -0.19294E+06
 0.55720001E+02 -0.17423E+06
 0.55770000E+02 -0.17777E+06
 0.55820000E+02 -0.21966E+06
 0.55870003E+02 -0.28122E+06
 0.55920002E+02 -0.35789E+06
 0.55970001E+02 -0.41796E+06
 0.56020000E+02 -0.40313E+06
 0.56070000E+02 -0.33916E+06
 0.56120003E+02 -0.27250E+06
 0.56170002E+02 -0.21483E+06
 0.56220001E+02 -0.17813E+06
 0.56270000E+02 -0.15565E+06
 0.56320000E+02 -0.12455E+06
 0.56370003E+02 -0.89867E+05
 0.56420002E+02 -0.81075E+05
 0.56470001E+02 -0.91855E+05
 0.56520000E+02 -0.11550E+06
 0.56570000E+02 -0.14176E+06
 0.56620003E+02 -0.14271E+06
 0.56670002E+02 -0.14889E+06
 0.56720001E+02 -0.19113E+06
 0.56770000E+02 -0.23705E+06
 0.56820000E+02 -0.27744E+06
 0.56870003E+02 -0.33091E+06
 0.56920002E+02 -0.38522E+06
 0.56970001E+02 -0.41750E+06
 0.57020000E+02 -0.39801E+06
 0.57070000E+02 -0.34605E+06
 0.57120003E+02 -0.29415E+06
 0.57170002E+02 -0.23059E+06
 0.57220001E+02 -0.17145E+06
 0.57270000E+02 -0.12831E+06
 0.57320000E+02 -0.12104E+06
 0.57370003E+02 -0.17949E+06
 0.57420002E+02 -0.26162E+06
 0.57470001E+02 -0.30156E+06
 0.57520000E+02 -0.29414E+06
 0.57570000E+02 -0.26368E+06
 0.57620003E+02 -0.24082E+06
 0.57670002E+02 -0.24004E+06
 0.57720001E+02 -0.22952E+06
 0.57770000E+02 -0.20100E+06
 0.57820000E+02 -0.13352E+06
 0.57870003E+02 -0.19040E+05
 0.57920002E+02  0.85615E+05
 0.57970001E+02  0.18768E+06
 0.58020000E+02  0.31909E+06
 0.58070000E+02  0.45133E+06
 0.58120003E+02  0.56200E+06
 0.58170002E+02  0.63509E+06
 0.58220001E+02  0.65046E+06
 0.58270000E+02  0.60868E+06
 0.58320000E+02  0.52018E+06
 0.58370003E+02  0.41811E+06
 0.58420002E+02  0.34040E+06
 0.58470001E+02  0.30438E+06
 0.58520000E+02  0.32109E+06
 0.58570000E+02  0.36829E+06
 0.58620003E+02  0.38664E+06
 0.58670002E+02  0.36073E+06
 0.58720001E+02  0.30894E+06
 0.58770000E+02  0.23573E+06
 0.58820000E+02  0.15080E+06
 0.58870003E+02  0.48068E+05
 0.58920002E+02 -0.77841E+05
 0.58970001E+02 -0.20992E+06
 0.59020000E+02 -0.30448E+06
 0.59070000E+02 -0.32212E+06
 0.59120003E+02 -0.28237E+06
 0.59170002E+02 -0.21202E+06
 0.59220001E+02 -0.13840E+06
 0.59270000E+02 -0.88167E+05
 0.59320000E+02 -0.43763E+05
 0.59370003E+02  0.89880E+04
 0.59420002E+02  0.74807E+05
 0.59470001E+02  0.16427E+06
 0.59520000E+02  0.26206E+06
 0.59570000E+02  0.33595E+06
 0.59620003E+02  0.37061E+06
 0.59670002E+02  0.37224E+06
 0.59720001E+02  0.35491E+06
 0.59770000E+02  0.34505E+06
 0.59820000E+02  0.34047E+06
 0.59870003E+02  0.29930E+06
 0.59920002E+02  0.21412E+06
 0.59970001E+02  0.11489E+06
 0.60020000E+02  0.20011E+05
 0.60070000E+02 -0.73285E+05
 0.60120003E+02 -0.16697E+06
 0.60170002E+02 -0.25245E+06
 0.60220001E+02 -0.31248E+06
 0.60270000E+02 -0.33444E+06
 0.60320000E+02 -0.33230E+06
 0.60370003E+02 -0.30986E+06
 0.60420002E+02 -0.26024E+06
 0.60470001E+02 -0.19048E+06
 0.60520000E+02 -0.80459E+05
 0.60570000E+02  0.56191E+05
 0.60620003E+02  0.16907E+06
 0.60670002E+02  0.26023E+06
 0.60720001E+02  0.30865E+06
 0.60770000E+02  0.32749E+06
 0.60820000E+02  0.36986E+06
 0.60870003E+02  0.40242E+06
 0.60920002E+02  0.39489E+06
 0.60970001E+02  0.34280E+06
 0.61020000E+02  0.27814E+06
 0.61070000E+02  0.24656E+06
 0.61120003E+02  0.23348E+06
 0.61170002E+02  0.21416E+06
 0.61220001E+02  0.17538E+06
 0.61270000E+02  0.11058E+06
 0.61320000E+02  0.20633E+05
 0.61370003E+02 -0.69041E+05
 0.61420002E+02 -0.12738E+06
 0.61470001E+02 -0.13619E+06
 0.61520000E+02 -0.87659E+05
 0.61570000E+02  0.21810E+04
 0.61620003E+02  0.10330E+06
 0.61670002E+02  0.17796E+06
 0.61720001E+02  0.20925E+06
 0.61770000E+02  0.21968E+06
 0.61820000E+02  0.21954E+06
 0.61870003E+02  0.19228E+06
 0.61920002E+02  0.15124E+06
 0.61970001E+02  0.13112E+06
 0.62020000E+02  0.12994E+06
 0.62070004E+02  0.13159E+06
 0.62119999E+02  0.13341E+06
 0.62170002E+02  0.10930E+06
 0.62220005E+02  0.38549E+05
 0.62270000E+02 -0.56964E+05
 0.62320004E+02 -0.15251E+06
 0.62369999E+02 -0.24481E+06
 0.62420002E+02 -0.32260E+06
 0.62470005E+02 -0.35027E+06
 0.62520000E+02 -0.30721E+06
 0.62570004E+02 -0.20932E+06
 0.62619999E+02 -0.94442E+05
 0.62670002E+02  0.34240E+04
 0.62720005E+02  0.84092E+05
 0.62770000E+02  0.16611E+06
 0.62820004E+02  0.22126E+06
 0.62869999E+02  0.22838E+06
 0.62920002E+02  0.21788E+06
 0.62970005E+02  0.19217E+06
 0.63020000E+02  0.15715E+06
 0.63070004E+02  0.12385E+06
 0.63119999E+02  0.99685E+05
 0.63170002E+02  0.10067E+06
 0.63220005E+02  0.10783E+06
 0.63270000E+02  0.10159E+06
 0.63320004E+02  0.64987E+05
 0.63369999E+02  0.14226E+05
 0.63420002E+02 -0.11109E+05
 0.63470005E+02 -0.23611E+05
 0.63520000E+02 -0.45510E+05
 0.63570004E+02 -0.75879E+05
 0.63619999E+02 -0.10775E+06
 0.63670002E+02 -0.14168E+06
 0.63720005E+02 -0.15639E+06
 0.63770000E+02 -0.13007E+06
 0.63820004E+02 -0.85164E+05
 0.63869999E+02 -0.56630E+05
 0.63920002E+02 -0.55650E+05
 0.63970005E+02 -0.53155E+05
 0.64019997E+02 -0.39960E+05
 0.64070000E+02 -0.43547E+05
 0.64119995E+02 -0.71276E+05
 0.64169998E+02 -0.97935E+05
 0.64220001E+02 -0.11684E+06
 0.64269997E+02 -0.15586E+06
 0.64320000E+02 -0.22679E+06
 0.64369995E+02 -0.32076E+06
 0.64419998E+02 -0.39729E+06
 0.64470001E+02 -0.43043E+06
 0.64519997E+02 -0.44539E+06
 0.64570000E+02 -0.46133E+06
 0.64619995E+02 -0.49010E+06
 0.64669998E+02 -0.54136E+06
 0.64720001E+02 -0.59366E+06
 0.64769997E+02 -0.60674E+06
 0.64820000E+02 -0.56125E+06
 0.64869995E+02 -0.45006E+06
 0.64919998E+02 -0.30089E+06
 0.64970001E+02 -0.18521E+06
 0.65019997E+02 -0.12044E+06
 0.65070000E+02 -0.66184E+05
 0.65119995E+02  0.35520E+04
 0.65169998E+02  0.81232E+05
 0.65220001E+02  0.14321E+06
 0.65269997E+02  0.19195E+06
 0.65320000E+02  0.22440E+06
 0.65369995E+02  0.22207E+06
 0.65419998E+02  0.21101E+06
 0.65470001E+02  0.21196E+06
 0.65519997E+02  0.20613E+06
 0.65570000E+02  0.17796E+06
 0.65619995E+02  0.13884E+06
 0.65669998E+02  0.12118E+06
 0.65720001E+02  0.12226E+06
 0.65769997E+02  0.11088E+06
 0.65820000E+02  0.87872E+05
 0.65869995E+02  0.82267E+05
 0.65919998E+02  0.10943E+06
 0.65970001E+02  0.15470E+06
 0.66019997E+02  0.16421E+06
 0.66070000E+02  0.96826E+05
 0.66119995E+02 -0.11707E+05
 0.66169998E+02 -0.11581E+06
 0.66220001E+02 -0.20633E+06
 0.66269997E+02 -0.28832E+06
 0.66320000E+02 -0.34884E+06
 0.66369995E+02 -0.35262E+06
 0.66419998E+02 -0.30467E+06
 0.66470001E+02 -0.23108E+06
 0.66519997E+02 -0.12745E+06
 0.66570000E+02  0.88420E+04
 0.66619995E+02  0.16745E+06
 0.66669998E+02  0.31991E+06
 0.66720001E+02  0.44894E+06
 0.66769997E+02  0.56786E+06
 0.66820000E+02  0.65997E+06
 0.66869995E+02  0.68774E+06
 0.66919998E+02  0.65689E+06
 0.66970001E+02  0.60804E+06
 0.67019997E+02  0.57285E+06
 0.67070000E+02  0.58817E+06
 0.67119995E+02  0.64955E+06
 0.67169998E+02  0.71538E+06
 0.67220001E+02  0.76503E+06
 0.67269997E+02  0.79002E+06
 0.67320000E+02  0.80448E+06
 0.67369995E+02  0.79371E+06
 0.67419998E+02  0.73910E+06
 0.67470001E+02  0.63940E+06
 0.67519997E+02  0.49049E+06
 0.67570000E+02  0.32142E+06
 0.67619995E+02  0.15279E+06
 0.67669998E+02 -0.10416E+05
 0.67720001E+02 -0.17048E+06
 0.67769997E+02 -0.32962E+06
 0.67820000E+02 -0.45318E+06
 0.67869995E+02 -0.50005E+06
 0.67919998E+02 -0.48085E+06
 0.67970001E+02 -0.43033E+06
 0.68019997E+02 -0.33017E+06
 0.68070000E+02 -0.15103E+06
 0.68119995E+02  0.74666E+05
 0.68169998E+02  0.27856E+06
 0.68220001E+02  0.41099E+06
 0.68269997E+02  0.49067E+06
 0.68320000E+02  0.56739E+06
 0.68369995E+02  0.63452E+06
 0.68419998E+02  0.66932E+06
 0.68470001E+02  0.69103E+06
 0.68519997E+02  0.71042E+06
 0.68570000E+02  0.71151E+06
 0.68619995E+02  0.67855E+06
 0.68669998E+02  0.60913E+06
 0.68720001E+02  0.52517E+06
 0.68769997E+02  0.44305E+06
 0.68820000E+02  0.38359E+06
 0.68869995E+02  0.35011E+06
 0.68919998E+02  0.32309E+06
 0.68970001E+02  0.30553E+06
 0.69019997E+02  0.27146E+06
 0.69070000E+02  0.21679E+06
 0.69119995E+02  0.15720E+06
 0.69169998E+02  0.69712E+05
 0.69220001E+02 -0.49192E+05
 0.69269997E+02 -0.15498E+06
 0.69320000E+02 -0.18030E+06
 0.69369995E+02 -0.12309E+06
 0.69419998E+02 -0.40461E+05
 0.69470001E+02  0.72430E+04
 0.69519997E+02  0.18806E+05
 0.69570000E+02  0.49238E+05
 0.69619995E+02  0.94582E+05
 0.69669998E+02  0.12701E+06
 0.69720001E+02  0.13264E+06
 0.69769997E+02  0.93832E+05
 0.69820000E+02  0.37240E+04
 0.69869995E+02 -0.14040E+06
 0.69919998E+02 -0.31507E+06
 0.69970001E+02 -0.47159E+06
 0.70019997E+02 -0.57591E+06
 0.70070000E+02 -0.61928E+06
 0.70119995E+02 -0.60309E+06
 0.70169998E+02 -0.54974E+06
 0.70220001E+02 -0.49493E+06
 0.70269997E+02 -0.46753E+06
 0.70320000E+02 -0.46645E+06
 0.70369995E+02 -0.44498E+06
 0.70419998E+02 -0.38590E+06
 0.70470001E+02 -0.33087E+06
 0.70519997E+02 -0.32372E+06
 0.70570000E+02 -0.36838E+06
 0.70619995E+02 -0.43538E+06
 0.70669998E+02 -0.50224E+06
 0.70720001E+02 -0.55116E+06
 0.70769997E+02 -0.57147E+06
 0.70820000E+02 -0.57704E+06
 0.70869995E+02 -0.58774E+06
 0.70919998E+02 -0.60757E+06
 0.70970001E+02 -0.62974E+06
 0.71019997E+02 -0.63998E+06
 0.71070000E+02 -0.61322E+06
 0.71119995E+02 -0.55215E+06
 0.71169998E+02 -0.47055E+06
 0.71220001E+02 -0.36715E+06
 0.71269997E+02 -0.26762E+06
 0.71320000E+02 -0.19119E+06
 0.71369995E+02 -0.13784E+06
 0.71419998E+02 -0.11708E+06
 0.71470001E+02 -0.12347E+06
 0.71519997E+02 -0.15518E+06
 0.71570000E+02 -0.22575E+06
 0.71619995E+02 -0.34000E+06
 0.71669998E+02 -0.50365E+06
 0.71720001E+02 -0.70394E+06
 0.71769997E+02 -0.88150E+06
 0.71820000E+02 -0.98132E+06
 0.71869995E+02 -0.10006E+07
 0.71919998E+02 -0.95544E+06
 0.71970001E+02 -0.86713E+06
 0.72019997E+02 -0.75784E+06
 0.72070000E+02 -0.63006E+06
 0.72119995E+02 -0.50236E+06
 0.72169998E+02 -0.38481E+06
 0.72220001E+02 -0.24260E+06
 0.72269997E+02 -0.59353E+05
 0.72320000E+02  0.14021E+06
 0.72369995E+02  0.30925E+06
 0.72419998E+02  0.40605E+06
 0.72470001E+02  0.43702E+06
 0.72519997E+02  0.45436E+06
 0.72570000E+02  0.50844E+06
 0.72619995E+02  0.59535E+06
 0.72669998E+02  0.67654E+06
 0.72720001E+02  0.72021E+06
 0.72769997E+02  0.70958E+06
 0.72820000E+02  0.64611E+06
 0.72869995E+02  0.53479E+06
 0.72919998E+02  0.39286E+06
 0.72970001E+02  0.25042E+06
 0.73019997E+02  0.12613E+06
 0.73070000E+02  0.24192E+05
 0.73119995E+02 -0.52596E+05
 0.73169998E+02 -0.10988E+06
 0.73220001E+02 -0.17088E+06
 0.73269997E+02 -0.22995E+06
 0.73320000E+02 -0.26538E+06
 0.73369995E+02 -0.29713E+06
 0.73419998E+02 -0.32720E+06
 0.73470001E+02 -0.32428E+06
 0.73519997E+02 -0.30237E+06
 0.73570000E+02 -0.30822E+06
 0.73619995E+02 -0.36804E+06
 0.73669998E+02 -0.46414E+06
 0.73720001E+02 -0.55195E+06
 0.73769997E+02 -0.59227E+06
 0.73820000E+02 -0.57577E+06
 0.73869995E+02 -0.52458E+06
 0.73919998E+02 -0.45663E+06
 0.73970001E+02 -0.39867E+06
 0.74019997E+02 -0.37270E+06
 0.74070000E+02 -0.35429E+06
 0.74119995E+02 -0.30472E+06
 0.74169998E+02 -0.21662E+06
 0.74220001E+02 -0.12038E+06
 0.74269997E+02 -0.37162E+05
 0.74320000E+02  0.43000E+05
 0.74369995E+02  0.12464E+06
 0.74419998E+02  0.17770E+06
 0.74470001E+02  0.16332E+06
 0.74519997E+02  0.85472E+05
 0.74570000E+02 -0.10207E+05
 0.74619995E+02 -0.92472E+05
 0.74669998E+02 -0.18843E+06
 0.74720001E+02 -0.33834E+06
 0.74769997E+02 -0.52483E+06
 0.74820000E+02 -0.67646E+06
 0.74869995E+02 -0.72490E+06
 0.74919998E+02 -0.64903E+06
 0.74970001E+02 -0.47718E+06
 0.75019997E+02 -0.25414E+06
 0.75070000E+02 -0.14747E+05
 0.75119995E+02  0.21089E+06
 0.75169998E+02  0.40496E+06
 0.75220001E+02  0.57053E+06
 0.75269997E+02  0.71975E+06
 0.75320000E+02  0.84033E+06
 0.75369995E+02  0.90445E+06
 0.75419998E+02  0.90984E+06
 0.75470001E+02  0.86936E+06
 0.75519997E+02  0.79410E+06
 0.75570000E+02  0.69135E+06
 0.75619995E+02  0.57182E+06
 0.75669998E+02  0.45270E+06
 0.75720001E+02  0.34937E+06
 0.75769997E+02  0.26901E+06
 0.75820000E+02  0.21174E+06
 0.75869995E+02  0.19454E+06
 0.75919998E+02  0.25432E+06
 0.75970001E+02  0.39331E+06
 0.76019997E+02  0.57260E+06
 0.76070000E+02  0.75720E+06
 0.76119995E+02  0.92075E+06
 0.76169998E+02  0.10426E+07
 0.76220001E+02  0.11129E+07
 0.76269997E+02  0.11354E+07
 0.76320000E+02  0.11197E+07
 0.76369995E+02  0.10790E+07
 0.76419998E+02  0.10285E+07
 0.76470001E+02  0.97674E+06
 0.76519997E+02  0.91924E+06
 0.76570000E+02  0.83681E+06
 0.76619995E+02  0.73731E+06
 0.76669998E+02  0.66960E+06
 0.76720001E+02  0.67228E+06
 0.76769997E+02  0.73400E+06
 0.76820000E+02  0.80803E+06
 0.76869995E+02  0.85854E+06
 0.76919998E+02  0.86164E+06
 0.76970001E+02  0.80968E+06
 0.77019997E+02  0.72137E+06
 0.77070000E+02  0.60643E+06
 0.77119995E+02  0.47134E+06
 0.77169998E+02  0.33945E+06
 0.77220001E+02  0.23628E+06
 0.77269997E+02  0.16274E+06
 0.77320000E+02  0.11186E+06
 0.77369995E+02  0.93309E+05
 0.77419998E+02  0.96167E+05
 0.77470001E+02  0.97753E+05
 0.77519997E+02  0.79885E+05
 0.77570000E+02  0.44833E+05
 0.77619995E+02  0.31145E+05
 0.77669998E+02  0.41466E+05
 0.77720001E+02  0.22516E+05
 0.77769997E+02 -0.79455E+05
 0.77820000E+02 -0.26172E+06
 0.77869995E+02 -0.46971E+06
 0.77919998E+02 -0.66522E+06
 0.77970001E+02 -0.81628E+06
 0.78019997E+02 -0.87835E+06
 0.78070000E+02 -0.81754E+06
 0.78119995E+02 -0.63296E+06
 0.78169998E+02 -0.38532E+06
 0.78220001E+02 -0.15679E+06
 0.78269997E+02  0.10042E+05
 0.78320000E+02  0.12438E+06
 0.78369995E+02  0.22040E+06
 0.78419998E+02  0.32096E+06
 0.78470001E+02  0.42402E+06
 0.78519997E+02  0.50277E+06
 0.78570000E+02  0.52240E+06
 0.78619995E+02  0.45822E+06
 0.78669998E+02  0.30340E+06
 0.78720001E+02  0.57180E+05
 0.78769997E+02 -0.26343E+06
 0.78820000E+02 -0.59565E+06
 0.78869995E+02 -0.85791E+06
 0.78919998E+02 -0.10052E+07
 0.78970001E+02 -0.10515E+07
 0.79019997E+02 -0.10439E+07
 0.79070000E+02 -0.10130E+07
 0.79119995E+02 -0.96166E+06
 0.79169998E+02 -0.90269E+06
 0.79220001E+02 -0.85414E+06
 0.79269997E+02 -0.82708E+06
 0.79320000E+02 -0.82857E+06
 0.79369995E+02 -0.84884E+06
 0.79419998E+02 -0.87252E+06
 0.79470001E+02 -0.88875E+06
 0.79519997E+02 -0.87816E+06
 0.79570000E+02 -0.82452E+06
 0.79619995E+02 -0.73673E+06
 0.79669998E+02 -0.62761E+06
 0.79720001E+02 -0.50080E+06
 0.79769997E+02 -0.35724E+06
 0.79820000E+02 -0.19416E+06
 0.79869995E+02 -0.16377E+05
 0.79919998E+02  0.14859E+06
 0.79970001E+02  0.26510E+06
 0.80019997E+02  0.32518E+06
 0.80070000E+02  0.35221E+06
 0.80119995E+02  0.37412E+06
 0.80169998E+02  0.39489E+06
 0.80220001E+02  0.40688E+06
 0.80269997E+02  0.41996E+06
 0.80320000E+02  0.45107E+06
 0.80369995E+02  0.50246E+06
 0.80419998E+02  0.55520E+06
 0.80470001E+02  0.58477E+06
 0.80519997E+02  0.57784E+06
 0.80570000E+02  0.54130E+06
 0.80619995E+02  0.49928E+06
 0.80669998E+02  0.46493E+06
 0.80720001E+02  0.42144E+06
 0.80769997E+02  0.34954E+06
 0.80820000E+02  0.25016E+06
 0.80869995E+02  0.13888E+06
 0.80919998E+02  0.44674E+05
 0.80970001E+02 -0.11897E+05
 0.81019997E+02 -0.24557E+05
 0.81070000E+02  0.55090E+04
 0.81119995E+02  0.50769E+05
 0.81169998E+02  0.64144E+05
 0.81220001E+02  0.10438E+05
 0.81269997E+02 -0.11042E+06
 0.81320000E+02 -0.27003E+06
 0.81369995E+02 -0.44436E+06
 0.81419998E+02 -0.61508E+06
 0.81470001E+02 -0.74955E+06
 0.81519997E+02 -0.82018E+06
 0.81570000E+02 -0.83930E+06
 0.81619995E+02 -0.85114E+06
 0.81669998E+02 -0.88897E+06
 0.81720001E+02 -0.95887E+06
 0.81769997E+02 -0.10531E+07
 0.81820000E+02 -0.11541E+07
 0.81869995E+02 -0.12400E+07
 0.81919998E+02 -0.12899E+07
 0.81970001E+02 -0.12839E+07
 0.82019997E+02 -0.12194E+07
 0.82070000E+02 -0.11280E+07
 0.82119995E+02 -0.10548E+07
 0.82169998E+02 -0.10152E+07
 0.82220001E+02 -0.98137E+06
 0.82269997E+02 -0.90926E+06
 0.82320000E+02 -0.77125E+06
 0.82369995E+02 -0.57199E+06
 0.82419998E+02 -0.34450E+06
 0.82470001E+02 -0.13356E+06
 0.82519997E+02  0.22505E+05
 0.82570000E+02  0.10809E+06
 0.82619995E+02  0.14278E+06
 0.82669998E+02  0.16467E+06
 0.82720001E+02  0.20124E+06
 0.82769997E+02  0.25688E+06
 0.82820000E+02  0.31752E+06
 0.82869995E+02  0.36798E+06
 0.82919998E+02  0.39917E+06
 0.82970001E+02  0.39371E+06
 0.83019997E+02  0.33830E+06
 0.83070000E+02  0.24867E+06
 0.83119995E+02  0.15777E+06
 0.83169998E+02  0.10860E+06
 0.83220001E+02  0.12437E+06
 0.83269997E+02  0.17980E+06
 0.83320000E+02  0.24052E+06
 0.83369995E+02  0.29109E+06
 0.83419998E+02  0.32235E+06
 0.83470001E+02  0.32120E+06
 0.83519997E+02  0.28259E+06
 0.83570000E+02  0.23003E+06
 0.83619995E+02  0.20549E+06
 0.83669998E+02  0.24282E+06
 0.83720001E+02  0.35008E+06
 0.83769997E+02  0.50535E+06
 0.83820000E+02  0.66964E+06
 0.83869995E+02  0.81005E+06
 0.83919998E+02  0.91228E+06
 0.83970001E+02  0.96359E+06
 0.84019997E+02  0.94772E+06
 0.84070000E+02  0.87013E+06
 0.84119995E+02  0.75560E+06
 0.84169998E+02  0.62628E+06
 0.84220001E+02  0.48562E+06
 0.84269997E+02  0.31956E+06
 0.84320000E+02  0.13018E+06
 0.84369995E+02 -0.61483E+05
 0.84419998E+02 -0.23302E+06
 0.84470001E+02 -0.35874E+06
 0.84519997E+02 -0.42082E+06
 0.84570000E+02 -0.41510E+06
 0.84619995E+02 -0.35768E+06
 0.84669998E+02 -0.28463E+06
 0.84720001E+02 -0.22444E+06
 0.84769997E+02 -0.18448E+06
 0.84820000E+02 -0.15237E+06
 0.84869995E+02 -0.11188E+06
 0.84919998E+02 -0.52950E+05
 0.84970001E+02  0.41596E+05
 0.85019997E+02  0.18310E+06
 0.85070000E+02  0.35998E+06
 0.85119995E+02  0.54813E+06
 0.85169998E+02  0.71834E+06
 0.85220001E+02  0.84197E+06
 0.85269997E+02  0.90629E+06
 0.85320000E+02  0.91735E+06
 0.85369995E+02  0.89034E+06
 0.85419998E+02  0.84151E+06
 0.85470001E+02  0.78319E+06
 0.85519997E+02  0.72288E+06
 0.85570000E+02  0.65808E+06
 0.85619995E+02  0.57875E+06
 0.85669998E+02  0.47611E+06
 0.85720001E+02  0.35513E+06
 0.85769997E+02  0.23847E+06
 0.85820000E+02  0.14663E+06
 0.85869995E+02  0.93831E+05
 0.85919998E+02  0.84555E+05
 0.85970001E+02  0.94315E+05
 0.86019997E+02  0.82965E+05
 0.86070000E+02  0.29187E+05
 0.86119995E+02 -0.62840E+05
 0.86169998E+02 -0.17415E+06
 0.86220001E+02 -0.27599E+06
 0.86269997E+02 -0.34000E+06
 0.86320000E+02 -0.35155E+06
 0.86369995E+02 -0.30253E+06
 0.86419998E+02 -0.18099E+06
 0.86470001E+02  0.66390E+04
 0.86519997E+02  0.22098E+06
 0.86570000E+02  0.40875E+06
 0.86619995E+02  0.52858E+06
 0.86669998E+02  0.57329E+06
 0.86720001E+02  0.56909E+06
 0.86769997E+02  0.55281E+06
 0.86820000E+02  0.54459E+06
 0.86869995E+02  0.53934E+06
 0.86919998E+02  0.52563E+06
 0.86970001E+02  0.49068E+06
 0.87019997E+02  0.42104E+06
 0.87070000E+02  0.32074E+06
 0.87119995E+02  0.20968E+06
 0.87169998E+02  0.10477E+06
 0.87220001E+02  0.14519E+05
 0.87269997E+02 -0.57612E+05
 0.87320000E+02 -0.11332E+06
 0.87369995E+02 -0.16189E+06
 0.87419998E+02 -0.21648E+06
 0.87470001E+02 -0.28640E+06
 0.87519997E+02 -0.37384E+06
 0.87570000E+02 -0.47417E+06
 0.87619995E+02 -0.58304E+06
 0.87669998E+02 -0.70369E+06
 0.87720001E+02 -0.84358E+06
 0.87769997E+02 -0.10116E+07
 0.87820000E+02 -0.12093E+07
 0.87869995E+02 -0.14155E+07
 0.87919998E+02 -0.15852E+07
 0.87970001E+02 -0.16703E+07
 0.88019997E+02 -0.16404E+07
 0.88070000E+02 -0.14963E+07
 0.88119995E+02 -0.12739E+07
 0.88169998E+02 -0.10211E+07
 0.88220001E+02 -0.76996E+06
 0.88269997E+02 -0.53925E+06
 0.88320000E+02 -0.34752E+06
 0.88369995E+02 -0.20446E+06
 0.88419998E+02 -0.10664E+06
 0.88470001E+02 -0.49912E+05
 0.88519997E+02 -0.27251E+05
 0.88570000E+02 -0.30437E+05
 0.88619995E+02 -0.57949E+05
 0.88669998E+02 -0.10442E+06
 0.88720001E+02 -0.15065E+06
 0.88769997E+02 -0.18134E+06
 0.88820000E+02 -0.19437E+06
 0.88869995E+02 -0.19245E+06
 0.88919998E+02 -0.18003E+06
 0.88970001E+02 -0.15694E+06
 0.89019997E+02 -0.13082E+06
 0.89070000E+02 -0.12029E+06
 0.89119995E+02 -0.13156E+06
 0.89169998E+02 -0.15685E+06
 0.89220001E+02 -0.18355E+06
 0.89269997E+02 -0.19944E+06
 0.89320000E+02 -0.19928E+06
 0.89369995E+02 -0.18398E+06
 0.89419998E+02 -0.16560E+06
 0.89470001E+02 -0.16589E+06
 0.89519997E+02 -0.19212E+06
 0.89570000E+02 -0.22481E+06
 0.89619995E+02 -0.23491E+06
 0.89669998E+02 -0.20559E+06
 0.89720001E+02 -0.13108E+06
 0.89769997E+02 -0.11161E+05
 0.89820000E+02  0.14053E+06
 0.89869995E+02  0.29703E+06
 0.89919998E+02  0.43101E+06
 0.89970001E+02  0.52501E+06
 0.90019997E+02  0.57029E+06
 0.90070000E+02  0.56569E+06
 0.90119995E+02  0.52486E+06
 0.90169998E+02  0.47256E+06
 0.90220001E+02  0.42970E+06
 0.90269997E+02  0.40610E+06
 0.90320000E+02  0.40091E+06
 0.90369995E+02  0.40644E+06
 0.90419998E+02  0.41957E+06
 0.90470001E+02  0.44332E+06
 0.90519997E+02  0.47581E+06
 0.90570000E+02  0.51417E+06
 0.90619995E+02  0.55510E+06
 0.90669998E+02  0.59436E+06
 0.90720001E+02  0.63303E+06
 0.90769997E+02  0.66345E+06
 0.90820000E+02  0.67345E+06
 0.90869995E+02  0.67017E+06
 0.90919998E+02  0.66913E+06
 0.90970001E+02  0.67835E+06
 0.91019997E+02  0.69627E+06
 0.91070000E+02  0.70923E+06
 0.91119995E+02  0.70178E+06
 0.91169998E+02  0.66616E+06
 0.91220001E+02  0.60434E+06
 0.91269997E+02  0.52743E+06
 0.91320000E+02  0.44338E+06
 0.91369995E+02  0.35111E+06
 0.91419998E+02  0.24869E+06
 0.91470001E+02  0.14480E+06
 0.91519997E+02  0.60745E+05
 0.91570000E+02  0.15541E+05
 0.91619995E+02  0.14478E+05
 0.91669998E+02  0.52767E+05
 0.91720001E+02  0.12106E+06
 0.91769997E+02  0.20556E+06
 0.91820000E+02  0.29204E+06
 0.91869995E+02  0.36476E+06
 0.91919998E+02  0.40245E+06
 0.91970001E+02  0.38873E+06
 0.92019997E+02  0.31560E+06
 0.92070000E+02  0.18687E+06
 0.92119995E+02  0.22977E+05
 0.92169998E+02 -0.15331E+06
 0.92220001E+02 -0.32304E+06
 0.92269997E+02 -0.46350E+06
 0.92320000E+02 -0.55786E+06
 0.92369995E+02 -0.60760E+06
 0.92419998E+02 -0.62714E+06
 0.92470001E+02 -0.62850E+06
 0.92519997E+02 -0.61020E+06
 0.92570000E+02 -0.56408E+06
 0.92619995E+02 -0.48240E+06
 0.92669998E+02 -0.36142E+06
 0.92720001E+02 -0.21087E+06
 0.92769997E+02 -0.55488E+05
 0.92820000E+02  0.80072E+05
 0.92869995E+02  0.18166E+06
 0.92919998E+02  0.24153E+06
 0.92970001E+02  0.25983E+06
 0.93019997E+02  0.24414E+06
 0.93070000E+02  0.20112E+06
 0.93119995E+02  0.13967E+06
 0.93169998E+02  0.76629E+05
 0.93220001E+02  0.22872E+05
 0.93269997E+02 -0.20353E+05
 0.93320000E+02 -0.54805E+05
 0.93369995E+02 -0.95734E+05
 0.93419998E+02 -0.15792E+06
 0.93470001E+02 -0.23757E+06
 0.93519997E+02 -0.32740E+06
 0.93570000E+02 -0.42207E+06
 0.93619995E+02 -0.51606E+06
 0.93669998E+02 -0.60684E+06
 0.93720001E+02 -0.69288E+06
 0.93769997E+02 -0.76863E+06
 0.93820000E+02 -0.81944E+06
 0.93869995E+02 -0.83226E+06
 0.93919998E+02 -0.80749E+06
 0.93970001E+02 -0.75133E+06
 0.94019997E+02 -0.66835E+06
 0.94070000E+02 -0.56304E+06
 0.94119995E+02 -0.44723E+06
 0.94169998E+02 -0.33922E+06
 0.94220001E+02 -0.25252E+06
 0.94269997E+02 -0.19044E+06
 0.94320000E+02 -0.14309E+06
 0.94369995E+02 -0.10099E+06
 0.94419998E+02 -0.63622E+05
 0.94470001E+02 -0.28367E+05
 0.94519997E+02  0.35330E+04
 0.94570000E+02  0.27478E+05
 0.94619995E+02  0.42100E+05
 0.94669998E+02  0.44883E+05
 0.94720001E+02  0.38358E+05
 0.94769997E+02  0.34108E+05
 0.94820000E+02  0.42420E+05
 0.94869995E+02  0.63520E+05
 0.94919998E+02  0.97419E+05
 0.94970001E+02  0.14639E+06
 0.95019997E+02  0.20577E+06
 0.95070000E+02  0.27047E+06
 0.95119995E+02  0.33481E+06
 0.95169998E+02  0.39007E+06
 0.95220001E+02  0.42928E+06
 0.95269997E+02  0.45094E+06
 0.95320000E+02  0.46229E+06
 0.95369995E+02  0.47234E+06
 0.95419998E+02  0.48549E+06
 0.95470001E+02  0.49916E+06
 0.95519997E+02  0.50528E+06
 0.95570000E+02  0.49801E+06
 0.95619995E+02  0.47932E+06
 0.95669998E+02  0.45329E+06
 0.95720001E+02  0.42038E+06
 0.95769997E+02  0.38228E+06
 0.95820000E+02  0.34298E+06
 0.95869995E+02  0.30394E+06
 0.95919998E+02  0.25799E+06
 0.95970001E+02  0.19898E+06
 0.96019997E+02  0.13552E+06
 0.96070000E+02  0.82011E+05
 0.96119995E+02  0.48565E+05
 0.96169998E+02  0.36988E+05
 0.96220001E+02  0.39437E+05
 0.96269997E+02  0.48220E+05
 0.96320000E+02  0.60531E+05
 0.96369995E+02  0.72228E+05
 0.96419998E+02  0.75357E+05
 0.96470001E+02  0.63939E+05
 0.96519997E+02  0.37073E+05
 0.96570000E+02 -0.58060E+04
 0.96619995E+02 -0.66059E+05
 0.96669998E+02 -0.14635E+06
 0.96720001E+02 -0.25190E+06
 0.96769997E+02 -0.37956E+06
 0.96820000E+02 -0.51649E+06
 0.96869995E+02 -0.65116E+06
 0.96919998E+02 -0.77078E+06
 0.96970001E+02 -0.86356E+06
 0.97019997E+02 -0.92332E+06
 0.97070000E+02 -0.94554E+06
 0.97119995E+02 -0.93012E+06
 0.97169998E+02 -0.88382E+06
 0.97220001E+02 -0.81915E+06
 0.97269997E+02 -0.74998E+06
 0.97320000E+02 -0.68292E+06
 0.97369995E+02 -0.61329E+06
 0.97419998E+02 -0.52884E+06
 0.97470001E+02 -0.42226E+06
 0.97519997E+02 -0.29460E+06
 0.97570000E+02 -0.15154E+06
 0.97619995E+02 -0.44920E+04
 0.97669998E+02  0.13358E+06
 0.97720001E+02  0.25164E+06
 0.97769997E+02  0.34182E+06
 0.97820000E+02  0.39914E+06
 0.97869995E+02  0.41865E+06
 0.97919998E+02  0.39469E+06
 0.97970001E+02  0.32724E+06
 0.98019997E+02  0.22748E+06
