-0.20000000E+01 -0.64951E+04
-0.19500000E+01 -0.64700E+04
-0.19000000E+01 -0.64853E+04
-0.18500000E+01 -0.64775E+04
-0.18000000E+01 -0.64761E+04
-0.17500000E+01 -0.64867E+04
-0.17000000E+01 -0.65004E+04
-0.16500001E+01 -0.64985E+04
-0.16000000E+01 -0.64813E+04
-0.15500000E+01 -0.64794E+04
-0.15000000E+01 -0.64859E+04
-0.14500000E+01 -0.64915E+04
-0.14000001E+01 -0.64901E+04
-0.13500000E+01 -0.64880E+04
-0.13000001E+01 -0.64893E+04
-0.12500000E+01 -0.64937E+04
-0.12000000E+01 -0.65014E+04
-0.11500001E+01 -0.65027E+04
-0.11000000E+01 -0.65055E+04
-0.10500001E+01 -0.65189E+04
-0.10000000E+01 -0.65216E+04
-0.95000005E+00 -0.65084E+04
-0.90000010E+00 -0.65067E+04
-0.85000002E+00 -0.65175E+04
-0.80000007E+00 -0.65263E+04
-0.75000012E+00 -0.65374E+04
-0.70000005E+00 -0.65474E+04
-0.65000010E+00 -0.65515E+04
-0.60000014E+00 -0.65450E+04
-0.55000007E+00 -0.65433E+04
-0.50000012E+00 -0.65487E+04
-0.45000005E+00 -0.65557E+04
-0.40000010E+00 -0.65592E+04
-0.35000014E+00 -0.65632E+04
-0.30000007E+00 -0.65717E+04
-0.25000012E+00 -0.65647E+04
-0.20000005E+00 -0.65496E+04
-0.15000010E+00 -0.65346E+04
-0.10000014E+00 -0.65307E+04
-0.50000072E-01 -0.65214E+04
-0.11920929E-06 -0.65061E+04
 0.49999952E-01 -0.64963E+04
 0.99999905E-01 -0.64937E+04
 0.14999986E+00 -0.64978E+04
 0.19999981E+00 -0.64924E+04
 0.24999976E+00 -0.64840E+04
 0.29999995E+00 -0.64708E+04
 0.34999990E+00 -0.64620E+04
 0.39999986E+00 -0.64625E+04
 0.44999981E+00 -0.64716E+04
 0.49999976E+00 -0.64773E+04
 0.54999995E+00 -0.64785E+04
 0.59999990E+00 -0.64751E+04
 0.64999986E+00 -0.64630E+04
 0.69999981E+00 -0.64696E+04
 0.74999976E+00 -0.64767E+04
 0.79999971E+00 -0.64819E+04
 0.84999990E+00 -0.64766E+04
 0.89999986E+00 -0.64836E+04
 0.94999981E+00 -0.64777E+04
 0.99999976E+00 -0.64690E+04
 0.10499997E+01 -0.64749E+04
 0.10999999E+01 -0.64817E+04
 0.11499999E+01 -0.65035E+04
 0.11999998E+01 -0.65039E+04
 0.12499998E+01 -0.65130E+04
 0.12999997E+01 -0.65161E+04
 0.13499999E+01 -0.65235E+04
 0.13999999E+01 -0.65177E+04
 0.14499998E+01 -0.65167E+04
 0.14999998E+01 -0.65275E+04
 0.15499997E+01 -0.65366E+04
 0.15999999E+01 -0.65476E+04
 0.16499999E+01 -0.65381E+04
 0.16999998E+01 -0.65395E+04
 0.17499998E+01 -0.65411E+04
 0.17999997E+01 -0.65494E+04
 0.18499997E+01 -0.65450E+04
 0.18999999E+01 -0.65262E+04
 0.19499998E+01 -0.65205E+04
 0.19999998E+01 -0.65322E+04
 0.20499997E+01 -0.65355E+04
 0.20999999E+01 -0.65372E+04
 0.21499996E+01 -0.65490E+04
 0.21999998E+01 -0.65382E+04
 0.22499995E+01 -0.65373E+04
 0.22999997E+01 -0.65377E+04
 0.23499999E+01 -0.65344E+04
 0.23999996E+01 -0.65434E+04
 0.24499998E+01 -0.65377E+04
 0.24999995E+01 -0.65374E+04
 0.25499997E+01 -0.65306E+04
 0.25999999E+01 -0.65359E+04
 0.26499996E+01 -0.65412E+04
 0.26999998E+01 -0.65395E+04
 0.27499995E+01 -0.65384E+04
 0.27999997E+01 -0.65275E+04
 0.28499999E+01 -0.65354E+04
 0.28999996E+01 -0.65361E+04
 0.29499998E+01 -0.65325E+04
 0.29999995E+01 -0.65267E+04
 0.30499997E+01 -0.65171E+04
 0.30999999E+01 -0.65133E+04
 0.31499996E+01 -0.65097E+04
 0.31999998E+01 -0.65006E+04
 0.32499995E+01 -0.64813E+04
 0.32999997E+01 -0.64795E+04
 0.33499999E+01 -0.64888E+04
 0.33999996E+01 -0.64895E+04
 0.34499998E+01 -0.64758E+04
 0.34999995E+01 -0.64786E+04
 0.35499997E+01 -0.64912E+04
 0.35999994E+01 -0.64939E+04
 0.36499996E+01 -0.64966E+04
 0.36999998E+01 -0.64896E+04
 0.37499995E+01 -0.64943E+04
 0.37999997E+01 -0.64968E+04
 0.38499994E+01 -0.64932E+04
 0.38999996E+01 -0.64976E+04
 0.39499998E+01 -0.65074E+04
 0.39999995E+01 -0.65082E+04
 0.40499997E+01 -0.65025E+04
 0.40999994E+01 -0.64995E+04
 0.41499996E+01 -0.64933E+04
 0.41999998E+01 -0.64924E+04
 0.42499995E+01 -0.64990E+04
 0.42999997E+01 -0.64958E+04
 0.43499994E+01 -0.64946E+04
 0.43999996E+01 -0.64929E+04
 0.44499998E+01 -0.64899E+04
 0.44999995E+01 -0.64914E+04
 0.45499997E+01 -0.64888E+04
 0.45999994E+01 -0.64858E+04
 0.46499996E+01 -0.64888E+04
 0.46999998E+01 -0.64975E+04
 0.47499995E+01 -0.65043E+04
 0.47999997E+01 -0.65060E+04
 0.48499994E+01 -0.65061E+04
 0.48999996E+01 -0.65175E+04
 0.49499998E+01 -0.65285E+04
 0.49999995E+01 -0.65369E+04
 0.50499997E+01 -0.65358E+04
 0.50999994E+01 -0.65307E+04
 0.51499996E+01 -0.65331E+04
 0.51999998E+01 -0.65292E+04
 0.52499995E+01 -0.65303E+04
 0.52999997E+01 -0.65396E+04
 0.53499994E+01 -0.65423E+04
 0.53999996E+01 -0.65443E+04
 0.54499993E+01 -0.65398E+04
 0.54999995E+01 -0.65327E+04
 0.55499997E+01 -0.65287E+04
 0.55999994E+01 -0.65211E+04
 0.56499996E+01 -0.65238E+04
 0.56999993E+01 -0.65237E+04
 0.57499995E+01 -0.65181E+04
 0.57999997E+01 -0.65177E+04
 0.58499994E+01 -0.65132E+04
 0.58999996E+01 -0.65088E+04
 0.59499993E+01 -0.65015E+04
 0.59999995E+01 -0.64985E+04
 0.60499992E+01 -0.65030E+04
 0.60999994E+01 -0.64947E+04
 0.61499996E+01 -0.64942E+04
 0.61999998E+01 -0.64940E+04
 0.62499990E+01 -0.64938E+04
 0.62999992E+01 -0.65015E+04
 0.63499994E+01 -0.65003E+04
 0.63999996E+01 -0.64992E+04
 0.64499998E+01 -0.65008E+04
 0.64999990E+01 -0.65070E+04
 0.65499992E+01 -0.65192E+04
 0.65999994E+01 -0.65209E+04
 0.66499996E+01 -0.65081E+04
 0.66999998E+01 -0.65042E+04
 0.67499990E+01 -0.64967E+04
 0.67999992E+01 -0.64885E+04
 0.68499994E+01 -0.64897E+04
 0.68999996E+01 -0.64970E+04
 0.69499998E+01 -0.64928E+04
 0.69999990E+01 -0.64823E+04
 0.70499992E+01 -0.64658E+04
 0.70999994E+01 -0.64771E+04
 0.71499996E+01 -0.64928E+04
 0.71999998E+01 -0.65063E+04
 0.72499990E+01 -0.65050E+04
 0.72999992E+01 -0.64904E+04
 0.73499994E+01 -0.65005E+04
 0.73999996E+01 -0.65013E+04
 0.74499998E+01 -0.65098E+04
 0.74999990E+01 -0.65088E+04
 0.75499992E+01 -0.64580E+04
 0.75999994E+01 -0.65124E+04
 0.76499996E+01 -0.66429E+04
 0.76999998E+01 -0.64798E+04
 0.77499990E+01 -0.63879E+04
 0.77999992E+01 -0.66591E+04
 0.78499994E+01 -0.64468E+04
 0.78999996E+01 -0.64936E+04
 0.79499998E+01 -0.65313E+04
 0.79999990E+01 -0.66016E+04
 0.80499992E+01 -0.64139E+04
 0.80999994E+01 -0.65330E+04
 0.81499996E+01 -0.66644E+04
 0.81999998E+01 -0.62693E+04
 0.82499990E+01 -0.68717E+04
 0.82999992E+01 -0.67739E+04
 0.83499994E+01 -0.68422E+04
 0.83999996E+01 -0.63210E+04
 0.84499998E+01 -0.68985E+04
 0.84999990E+01 -0.62928E+04
 0.85499992E+01 -0.74351E+04
 0.85999994E+01 -0.58731E+04
 0.86499996E+01  0.40393E+04
 0.86999998E+01 -0.97771E+03
 0.87499990E+01 -0.30972E+05
 0.87999992E+01 -0.65762E+04
 0.88499994E+01  0.15444E+05
 0.88999996E+01 -0.28998E+05
 0.89499998E+01 -0.38613E+04
 0.89999990E+01  0.94775E+04
 0.90499992E+01 -0.15210E+05
 0.90999994E+01 -0.13363E+05
 0.91499996E+01  0.86010E+04
 0.91999989E+01 -0.10745E+05
 0.92499990E+01 -0.31499E+05
 0.92999992E+01  0.23771E+05
 0.93499994E+01 -0.10995E+05
 0.93999996E+01 -0.20286E+04
 0.94499989E+01  0.57330E+04
 0.94999990E+01 -0.23643E+05
 0.95499992E+01 -0.15969E+05
 0.95999994E+01 -0.25659E+05
 0.96499996E+01  0.10003E+05
 0.96999989E+01  0.47973E+04
 0.97499990E+01 -0.39803E+04
 0.97999992E+01  0.62352E+04
 0.98499994E+01 -0.91896E+02
 0.98999996E+01 -0.44218E+05
 0.99499989E+01 -0.52067E+04
 0.99999990E+01 -0.13947E+05
 0.10049999E+02 -0.74431E+04
 0.10099999E+02  0.49080E+05
 0.10150000E+02 -0.15540E+05
 0.10199999E+02 -0.53772E+05
 0.10249999E+02 -0.35218E+05
 0.10299999E+02  0.47825E+05
 0.10349999E+02 -0.16813E+04
 0.10400000E+02 -0.17389E+05
 0.10449999E+02  0.34408E+04
 0.10499999E+02  0.83765E+04
 0.10549999E+02 -0.72752E+04
 0.10599999E+02 -0.43598E+05
 0.10650000E+02  0.10062E+05
 0.10699999E+02 -0.50227E+05
 0.10749999E+02  0.15031E+05
 0.10799999E+02 -0.10052E+05
 0.10849999E+02  0.21801E+05
 0.10900000E+02  0.53828E+05
 0.10949999E+02 -0.89703E+05
 0.10999999E+02  0.67568E+04
 0.11049999E+02 -0.10609E+05
 0.11099999E+02 -0.38591E+05
 0.11150000E+02  0.21707E+05
 0.11199999E+02  0.22059E+05
 0.11249999E+02 -0.31491E+05
 0.11299999E+02  0.21098E+04
 0.11349999E+02  0.48183E+04
 0.11400000E+02 -0.41038E+05
 0.11449999E+02  0.88183E+04
 0.11499999E+02 -0.20365E+05
 0.11549999E+02 -0.14889E+04
 0.11599999E+02  0.27990E+05
 0.11650000E+02 -0.16612E+05
 0.11699999E+02 -0.30362E+05
 0.11749999E+02 -0.38255E+03
 0.11799999E+02 -0.22024E+05
 0.11849999E+02  0.51140E+04
 0.11900000E+02  0.24412E+05
 0.11949999E+02 -0.20398E+05
 0.11999999E+02 -0.14568E+05
 0.12049999E+02 -0.35018E+04
 0.12099999E+02 -0.13539E+05
 0.12150000E+02 -0.13264E+04
 0.12199999E+02  0.99402E+04
 0.12249999E+02 -0.22020E+05
 0.12299999E+02 -0.47428E+04
 0.12349999E+02 -0.14032E+05
 0.12400000E+02 -0.48624E+04
 0.12449999E+02 -0.10520E+04
 0.12499999E+02 -0.13895E+05
 0.12549999E+02 -0.64551E+04
 0.12599999E+02 -0.12164E+05
 0.12649999E+02  0.30350E+02
 0.12699999E+02 -0.19212E+04
 0.12749999E+02  0.10459E+05
 0.12799999E+02 -0.14696E+05
 0.12849999E+02 -0.21839E+05
 0.12899999E+02 -0.90307E+04
 0.12949999E+02 -0.10121E+05
 0.12999999E+02  0.35453E+04
 0.13049999E+02 -0.17209E+03
 0.13099999E+02 -0.11318E+05
 0.13149999E+02 -0.10161E+05
 0.13199999E+02  0.27975E+03
 0.13249999E+02 -0.10115E+05
 0.13299999E+02  0.16011E+04
 0.13349999E+02 -0.20997E+05
 0.13399999E+02 -0.80273E+04
 0.13449999E+02  0.99074E+04
 0.13499999E+02 -0.85192E+04
 0.13549999E+02 -0.17006E+05
 0.13599999E+02 -0.18176E+05
 0.13649999E+02  0.80202E+04
 0.13699999E+02  0.44431E+04
 0.13749999E+02 -0.34569E+04
 0.13799999E+02 -0.23128E+05
 0.13849999E+02  0.93404E+04
 0.13899999E+02 -0.11956E+05
 0.13949999E+02 -0.47019E+04
 0.13999999E+02 -0.52735E+04
 0.14049999E+02 -0.26158E+05
 0.14099998E+02  0.16976E+04
 0.14150000E+02  0.46336E+04
 0.14199999E+02 -0.64766E+04
 0.14249998E+02 -0.13637E+05
 0.14299999E+02  0.96287E+04
 0.14349998E+02 -0.22658E+05
 0.14400000E+02  0.54520E+04
 0.14449999E+02 -0.60782E+04
 0.14499998E+02 -0.33551E+05
 0.14549999E+02  0.26210E+05
 0.14599998E+02 -0.35262E+05
 0.14650000E+02 -0.13168E+05
 0.14699999E+02  0.34740E+05
 0.14749998E+02 -0.72507E+04
 0.14799999E+02 -0.46101E+04
 0.14849998E+02 -0.30644E+05
 0.14900000E+02  0.25823E+05
 0.14949999E+02 -0.32507E+05
 0.14999998E+02 -0.29810E+05
 0.15049999E+02  0.37136E+05
 0.15099998E+02 -0.15453E+05
 0.15150000E+02 -0.56155E+05
 0.15199999E+02  0.21560E+05
 0.15249998E+02  0.41353E+05
 0.15299999E+02 -0.57856E+05
 0.15349998E+02  0.15503E+05
 0.15400000E+02 -0.24994E+05
 0.15449999E+02 -0.98106E+03
 0.15499998E+02  0.69168E+03
 0.15549999E+02  0.17481E+05
 0.15599998E+02 -0.32573E+05
 0.15650000E+02 -0.14661E+05
 0.15699999E+02  0.21708E+05
 0.15749998E+02 -0.73550E+05
 0.15799999E+02  0.63931E+05
 0.15849998E+02 -0.49168E+04
 0.15900000E+02 -0.38712E+05
 0.15949999E+02 -0.15802E+05
 0.15999998E+02  0.54008E+05
 0.16049999E+02 -0.60616E+03
 0.16099998E+02 -0.73196E+05
 0.16150000E+02  0.31188E+05
 0.16199999E+02 -0.58557E+04
 0.16249998E+02 -0.32232E+05
 0.16299999E+02  0.38315E+05
 0.16349998E+02  0.16477E+05
 0.16400000E+02 -0.11536E+06
 0.16449999E+02 -0.28955E+05
 0.16499998E+02  0.21357E+05
 0.16549999E+02  0.87612E+03
 0.16599998E+02  0.40998E+05
 0.16650000E+02  0.25065E+05
 0.16699999E+02 -0.21529E+05
 0.16749998E+02 -0.26363E+05
 0.16799999E+02  0.11706E+05
 0.16849998E+02 -0.47060E+04
 0.16900000E+02  0.27178E+05
 0.16949999E+02  0.19326E+05
 0.16999998E+02 -0.66756E+05
 0.17049999E+02 -0.32612E+05
 0.17099998E+02 -0.42562E+04
 0.17150000E+02 -0.77449E+04
 0.17199999E+02  0.16565E+05
 0.17249998E+02 -0.12567E+05
 0.17299999E+02 -0.31655E+05
 0.17349998E+02 -0.69338E+05
 0.17400000E+02 -0.49785E+05
 0.17449999E+02  0.17427E+05
 0.17499998E+02  0.64106E+05
 0.17549999E+02  0.45151E+05
 0.17599998E+02 -0.17182E+05
 0.17650000E+02 -0.13304E+05
 0.17699999E+02 -0.32460E+05
 0.17749998E+02  0.12941E+05
 0.17799999E+02  0.20306E+05
 0.17849998E+02 -0.73789E+03
 0.17900000E+02 -0.22425E+05
 0.17949999E+02 -0.45959E+05
 0.17999998E+02 -0.19906E+05
 0.18049999E+02  0.23478E+04
 0.18099998E+02 -0.15693E+05
 0.18150000E+02 -0.10644E+05
 0.18199999E+02 -0.46066E+04
 0.18249998E+02 -0.10351E+05
 0.18299999E+02  0.25547E+05
 0.18349998E+02  0.16330E+05
 0.18400000E+02 -0.48646E+04
 0.18449999E+02 -0.27185E+05
 0.18499998E+02 -0.99424E+04
 0.18549999E+02  0.18924E+04
 0.18599998E+02 -0.37913E+05
 0.18650000E+02 -0.20681E+05
 0.18699999E+02 -0.19872E+05
 0.18749998E+02 -0.17702E+05
 0.18799999E+02  0.32430E+05
 0.18849998E+02  0.33849E+05
 0.18900000E+02  0.67924E+04
 0.18949999E+02 -0.36533E+05
 0.18999998E+02 -0.15913E+05
 0.19049999E+02 -0.22444E+05
 0.19099998E+02 -0.26623E+05
 0.19150000E+02  0.39551E+05
 0.19199999E+02  0.36829E+05
 0.19249998E+02 -0.24420E+05
 0.19299999E+02 -0.46624E+05
 0.19349998E+02 -0.20515E+05
 0.19400000E+02 -0.15600E+05
 0.19449999E+02 -0.25530E+05
 0.19499998E+02  0.88921E+03
 0.19549999E+02  0.11523E+05
 0.19599998E+02  0.21757E+05
 0.19650000E+02  0.28061E+05
 0.19699999E+02 -0.23201E+05
 0.19749998E+02 -0.22537E+05
 0.19799999E+02 -0.55686E+04
 0.19849998E+02 -0.25106E+05
 0.19900000E+02 -0.80162E+04
 0.19949999E+02  0.58092E+04
 0.19999998E+02 -0.50936E+04
 0.20049999E+02 -0.17677E+05
 0.20099998E+02 -0.78741E+04
 0.20150000E+02  0.10969E+05
 0.20199999E+02 -0.80077E+04
 0.20249998E+02 -0.19664E+05
 0.20299999E+02 -0.21347E+05
 0.20349998E+02 -0.17394E+05
 0.20399998E+02  0.21320E+05
 0.20449999E+02  0.30888E+04
 0.20499998E+02 -0.14470E+05
 0.20549999E+02 -0.21838E+05
 0.20599998E+02 -0.11456E+05
 0.20649998E+02  0.15746E+05
 0.20699999E+02 -0.21714E+05
 0.20749998E+02 -0.23047E+05
 0.20799999E+02 -0.18626E+05
 0.20849998E+02 -0.22790E+05
 0.20899998E+02  0.15445E+04
 0.20949999E+02  0.18624E+05
 0.20999998E+02  0.48010E+04
 0.21049999E+02  0.12828E+04
 0.21099998E+02  0.14324E+05
 0.21149998E+02 -0.16702E+04
 0.21199999E+02  0.12535E+04
 0.21249998E+02 -0.46127E+04
 0.21299999E+02 -0.21180E+05
 0.21349998E+02 -0.22051E+05
 0.21399998E+02 -0.28043E+05
 0.21449999E+02 -0.24858E+05
 0.21499998E+02 -0.26647E+04
 0.21549999E+02  0.18650E+05
 0.21599998E+02 -0.76051E+04
 0.21649998E+02 -0.10347E+05
 0.21699999E+02  0.27030E+04
 0.21749998E+02 -0.95221E+04
 0.21799999E+02 -0.31622E+04
 0.21849998E+02 -0.54066E+04
 0.21899998E+02 -0.44417E+04
 0.21949999E+02  0.66454E+04
 0.21999998E+02  0.16234E+05
 0.22049999E+02 -0.12179E+04
 0.22099998E+02 -0.23107E+05
 0.22149998E+02 -0.15143E+05
 0.22199999E+02 -0.19007E+05
 0.22249998E+02 -0.22437E+05
 0.22299999E+02 -0.23807E+05
 0.22349998E+02 -0.87486E+04
 0.22399998E+02  0.16885E+05
 0.22449999E+02  0.77857E+04
 0.22499998E+02 -0.68792E+04
 0.22549999E+02 -0.14072E+04
 0.22599998E+02 -0.39584E+04
 0.22649998E+02 -0.26737E+05
 0.22699999E+02 -0.25000E+05
 0.22749998E+02  0.21434E+04
 0.22799999E+02 -0.22511E+03
 0.22849998E+02  0.33129E+03
 0.22899998E+02  0.93214E+04
 0.22949999E+02 -0.37680E+03
 0.22999998E+02 -0.90575E+04
 0.23049999E+02 -0.80853E+04
 0.23099998E+02 -0.41936E+04
 0.23149998E+02 -0.51412E+04
 0.23199999E+02 -0.11911E+05
 0.23249998E+02 -0.13579E+05
 0.23299999E+02 -0.89439E+04
 0.23349998E+02 -0.25660E+05
 0.23399998E+02 -0.18619E+05
 0.23449999E+02 -0.11314E+04
 0.23499998E+02 -0.66750E+04
 0.23549999E+02  0.38277E+04
 0.23599998E+02  0.64356E+04
 0.23649998E+02  0.10880E+05
 0.23699999E+02  0.14130E+05
 0.23749998E+02  0.42786E+02
 0.23799999E+02 -0.21253E+05
 0.23849998E+02 -0.28044E+05
 0.23899998E+02 -0.20924E+05
 0.23949999E+02 -0.17452E+05
 0.23999998E+02 -0.68792E+04
 0.24049999E+02 -0.22030E+04
 0.24099998E+02  0.80011E+02
 0.24149998E+02 -0.29379E+04
 0.24199999E+02 -0.87969E+04
 0.24249998E+02 -0.12216E+05
 0.24299999E+02  0.55605E+04
 0.24349998E+02  0.17453E+05
 0.24399998E+02  0.11150E+03
 0.24449999E+02 -0.11834E+05
 0.24499998E+02 -0.17857E+05
 0.24549999E+02 -0.26163E+05
 0.24599998E+02 -0.18944E+05
 0.24649998E+02  0.46067E+04
 0.24699999E+02  0.13700E+05
 0.24749998E+02  0.34797E+04
 0.24799999E+02 -0.71915E+04
 0.24849998E+02 -0.16278E+05
 0.24899998E+02 -0.14848E+05
 0.24949999E+02  0.59226E+04
 0.24999998E+02  0.52520E+04
 0.25049999E+02 -0.97117E+04
 0.25099998E+02 -0.13397E+05
 0.25149998E+02 -0.10136E+05
 0.25199999E+02 -0.13118E+05
 0.25249998E+02 -0.49828E+04
 0.25299999E+02  0.15743E+04
 0.25349998E+02 -0.15747E+04
 0.25399998E+02 -0.19642E+04
 0.25449999E+02 -0.11598E+05
 0.25499998E+02 -0.11114E+05
 0.25549999E+02 -0.49780E+04
 0.25599998E+02 -0.48424E+04
 0.25649998E+02 -0.50820E+04
 0.25699999E+02 -0.10844E+05
 0.25749998E+02 -0.13919E+05
 0.25799999E+02 -0.65949E+04
 0.25849998E+02 -0.83334E+03
 0.25899998E+02 -0.77296E+04
 0.25949999E+02 -0.11084E+05
 0.25999998E+02 -0.86185E+04
 0.26049999E+02 -0.55426E+04
 0.26099998E+02 -0.15158E+04
 0.26149998E+02 -0.93672E+04
 0.26199999E+02 -0.85798E+04
 0.26249998E+02 -0.79200E+04
 0.26299999E+02 -0.63845E+04
 0.26349998E+02 -0.10386E+05
 0.26399998E+02 -0.13668E+05
 0.26449999E+02 -0.10389E+05
 0.26499998E+02 -0.10548E+05
 0.26549999E+02 -0.10807E+05
 0.26599998E+02 -0.57669E+04
 0.26649998E+02 -0.63092E+03
 0.26699999E+02 -0.30942E+03
 0.26749998E+02 -0.64423E+03
 0.26799999E+02 -0.78865E+04
 0.26849998E+02 -0.11363E+05
 0.26899998E+02 -0.11738E+05
 0.26949999E+02 -0.28036E+04
 0.26999998E+02  0.22840E+04
 0.27049997E+02  0.11998E+04
 0.27099998E+02 -0.81095E+04
 0.27149998E+02 -0.53970E+04
 0.27199999E+02 -0.16423E+04
 0.27249998E+02 -0.55303E+04
 0.27299997E+02 -0.51434E+02
 0.27349998E+02 -0.11864E+04
 0.27399998E+02 -0.27008E+04
 0.27449999E+02 -0.10636E+05
 0.27499998E+02 -0.15911E+05
 0.27549997E+02 -0.12791E+05
 0.27599998E+02 -0.75477E+04
 0.27649998E+02 -0.12526E+05
 0.27699999E+02 -0.99679E+04
 0.27749998E+02 -0.14029E+04
 0.27799997E+02 -0.25307E+04
 0.27849998E+02 -0.35575E+04
 0.27899998E+02 -0.35764E+04
 0.27949999E+02 -0.84292E+04
 0.27999998E+02 -0.12099E+05
 0.28049997E+02 -0.97099E+04
 0.28099998E+02 -0.12911E+05
 0.28149998E+02 -0.99574E+04
 0.28199999E+02 -0.56265E+04
 0.28249998E+02 -0.10964E+05
 0.28299997E+02 -0.13067E+04
 0.28349998E+02  0.65703E+04
 0.28399998E+02 -0.38121E+04
 0.28449999E+02 -0.99889E+04
 0.28499998E+02 -0.86698E+04
 0.28549997E+02 -0.89876E+04
 0.28599998E+02 -0.87233E+04
 0.28649998E+02  0.16289E+04
 0.28699999E+02 -0.17188E+04
 0.28749998E+02 -0.65810E+04
 0.28799997E+02 -0.34743E+04
 0.28849998E+02 -0.75594E+04
 0.28899998E+02 -0.10610E+05
 0.28949999E+02 -0.11211E+05
 0.28999998E+02 -0.10674E+05
 0.29049997E+02 -0.75308E+04
 0.29099998E+02 -0.84568E+04
 0.29149998E+02 -0.13552E+05
 0.29199999E+02 -0.15621E+05
 0.29249998E+02 -0.90419E+04
 0.29299997E+02  0.16556E+04
 0.29349998E+02  0.18505E+04
 0.29399998E+02  0.25397E+03
 0.29449999E+02  0.37123E+04
 0.29499998E+02  0.10646E+04
 0.29549997E+02 -0.36802E+04
 0.29599998E+02 -0.40748E+04
 0.29649998E+02 -0.62154E+04
 0.29699999E+02 -0.72906E+04
 0.29749998E+02 -0.30559E+04
 0.29799997E+02 -0.74347E+04
 0.29849998E+02 -0.17271E+05
 0.29899998E+02 -0.16054E+05
 0.29949999E+02 -0.12359E+05
 0.29999998E+02 -0.12211E+05
 0.30049999E+02 -0.87282E+04
 0.30099998E+02 -0.64063E+04
 0.30149998E+02 -0.36634E+04
 0.30199997E+02 -0.22456E+04
 0.30249996E+02 -0.52209E+04
 0.30299999E+02 -0.76619E+04
 0.30349998E+02 -0.66553E+04
 0.30399998E+02  0.74347E+03
 0.30449997E+02 -0.15425E+04
 0.30499996E+02 -0.75636E+04
 0.30549999E+02 -0.74331E+04
 0.30599998E+02 -0.10216E+05
 0.30649998E+02 -0.12147E+05
 0.30699997E+02 -0.78711E+04
 0.30749996E+02 -0.92510E+04
 0.30799999E+02 -0.12556E+05
 0.30849998E+02 -0.11679E+05
 0.30899998E+02 -0.12215E+05
 0.30949997E+02 -0.85367E+04
 0.30999996E+02 -0.79916E+04
 0.31049999E+02 -0.77813E+04
 0.31099998E+02 -0.58842E+04
 0.31149998E+02 -0.63304E+04
 0.31199997E+02 -0.58474E+04
 0.31249996E+02 -0.46728E+04
 0.31299999E+02 -0.33182E+04
 0.31349998E+02 -0.46652E+03
 0.31399998E+02  0.11087E+04
 0.31449997E+02 -0.13354E+04
 0.31499996E+02 -0.31983E+04
 0.31549999E+02 -0.57068E+04
 0.31599998E+02 -0.90029E+04
 0.31649998E+02 -0.80092E+04
 0.31699997E+02 -0.87352E+04
 0.31749996E+02 -0.11009E+05
 0.31799999E+02 -0.90498E+04
 0.31849998E+02 -0.49534E+04
 0.31899998E+02 -0.20084E+04
 0.31949997E+02  0.63108E+03
 0.31999996E+02  0.32613E+04
 0.32049999E+02 -0.56054E+03
 0.32099998E+02 -0.51507E+04
 0.32149998E+02 -0.60693E+04
 0.32199997E+02 -0.51094E+04
 0.32249996E+02 -0.78311E+04
 0.32299999E+02 -0.11640E+05
 0.32349998E+02 -0.16098E+05
 0.32399998E+02 -0.14744E+05
 0.32449997E+02 -0.11276E+05
 0.32499996E+02 -0.88132E+04
 0.32549999E+02 -0.49585E+04
 0.32599998E+02 -0.81099E+04
 0.32649998E+02 -0.86652E+04
 0.32699997E+02 -0.54763E+04
 0.32749996E+02 -0.25898E+04
 0.32799999E+02 -0.40642E+04
 0.32849998E+02 -0.44483E+04
 0.32899998E+02 -0.78830E+04
 0.32949997E+02 -0.95185E+04
 0.32999996E+02 -0.62137E+04
 0.33049999E+02 -0.46957E+04
 0.33099998E+02 -0.28436E+04
 0.33149998E+02 -0.33577E+04
 0.33199997E+02 -0.74832E+04
 0.33249996E+02 -0.92942E+04
 0.33299999E+02 -0.70950E+04
 0.33349998E+02 -0.75091E+04
 0.33399998E+02 -0.58225E+04
 0.33449997E+02 -0.29934E+04
 0.33499996E+02 -0.31429E+04
 0.33549999E+02 -0.51088E+04
 0.33599998E+02 -0.33682E+04
 0.33649998E+02 -0.31962E+04
 0.33699997E+02 -0.34765E+04
 0.33749996E+02 -0.35060E+04
 0.33799999E+02 -0.68665E+04
 0.33849998E+02 -0.79814E+04
 0.33899998E+02 -0.10725E+05
 0.33949997E+02 -0.10317E+05
 0.33999996E+02 -0.10831E+05
 0.34049999E+02 -0.12942E+05
 0.34099998E+02 -0.10403E+05
 0.34149998E+02 -0.12670E+05
 0.34199997E+02 -0.11749E+05
 0.34249996E+02 -0.69874E+04
 0.34299999E+02 -0.35275E+04
 0.34349998E+02 -0.19986E+04
 0.34399998E+02 -0.29251E+04
 0.34449997E+02 -0.89753E+03
 0.34499996E+02 -0.22165E+04
 0.34549999E+02 -0.58295E+04
 0.34599998E+02 -0.88707E+04
 0.34649998E+02 -0.92009E+04
 0.34699997E+02 -0.65988E+04
 0.34749996E+02 -0.72029E+04
 0.34799999E+02 -0.78753E+04
 0.34849998E+02 -0.64701E+04
 0.34899998E+02 -0.80724E+04
 0.34949997E+02 -0.92325E+04
 0.34999996E+02 -0.70842E+04
 0.35049999E+02 -0.73549E+04
 0.35099998E+02 -0.80115E+04
 0.35149998E+02 -0.76007E+04
 0.35199997E+02 -0.34598E+04
 0.35249996E+02 -0.18447E+04
 0.35299999E+02 -0.26918E+04
 0.35349998E+02 -0.10742E+04
 0.35399998E+02 -0.21742E+04
 0.35449997E+02 -0.49265E+04
 0.35499996E+02 -0.55981E+04
 0.35549999E+02 -0.64186E+04
 0.35599998E+02 -0.11348E+05
 0.35649998E+02 -0.11846E+05
 0.35699997E+02 -0.10888E+05
 0.35749996E+02 -0.98515E+04
 0.35799999E+02 -0.52363E+04
 0.35849998E+02 -0.34228E+04
 0.35899998E+02 -0.28511E+04
 0.35949997E+02 -0.15403E+04
 0.35999996E+02 -0.48261E+04
 0.36049999E+02 -0.54596E+04
 0.36099998E+02 -0.66603E+04
 0.36149998E+02 -0.11896E+05
 0.36199997E+02 -0.12552E+05
 0.36249996E+02 -0.11907E+05
 0.36299999E+02 -0.11239E+05
 0.36349998E+02 -0.79411E+04
 0.36399998E+02 -0.53432E+04
 0.36449997E+02 -0.27120E+04
 0.36499996E+02  0.10255E+04
 0.36549999E+02  0.35722E+03
 0.36599998E+02 -0.86935E+03
 0.36649998E+02 -0.26458E+04
 0.36699997E+02 -0.70283E+04
 0.36749996E+02 -0.10219E+05
 0.36799999E+02 -0.89750E+04
 0.36849998E+02 -0.11154E+05
 0.36899998E+02 -0.98743E+04
 0.36949997E+02 -0.76475E+04
 0.36999996E+02 -0.98010E+04
 0.37049999E+02 -0.76128E+04
 0.37099998E+02 -0.42593E+04
 0.37149998E+02 -0.15359E+04
 0.37199997E+02 -0.38233E+04
 0.37249996E+02 -0.63358E+04
 0.37299999E+02 -0.80812E+04
 0.37349998E+02 -0.89251E+04
 0.37399998E+02 -0.74514E+04
 0.37449997E+02 -0.19626E+04
 0.37499996E+02  0.59541E+03
 0.37549999E+02 -0.41650E+04
 0.37599998E+02 -0.58449E+04
 0.37649998E+02 -0.79536E+04
 0.37699997E+02 -0.11680E+05
 0.37749996E+02 -0.13605E+05
 0.37799999E+02 -0.11945E+05
 0.37849998E+02 -0.96107E+04
 0.37899998E+02 -0.80799E+04
 0.37949997E+02 -0.74631E+04
 0.37999996E+02 -0.64432E+04
 0.38049999E+02 -0.62621E+04
 0.38099998E+02 -0.62619E+04
 0.38149998E+02 -0.50411E+04
 0.38199997E+02 -0.71202E+04
 0.38249996E+02 -0.84070E+04
 0.38299999E+02 -0.63844E+04
 0.38349998E+02 -0.53702E+04
 0.38399998E+02 -0.75478E+04
 0.38449997E+02 -0.57753E+04
 0.38499996E+02 -0.52513E+04
 0.38549999E+02 -0.82157E+04
 0.38599998E+02 -0.11094E+05
 0.38649998E+02 -0.99771E+04
 0.38699997E+02 -0.62392E+04
 0.38749996E+02 -0.54557E+04
 0.38799999E+02 -0.53163E+04
 0.38849998E+02 -0.51316E+04
 0.38899998E+02 -0.53909E+04
 0.38949997E+02 -0.47469E+04
 0.38999996E+02 -0.15617E+04
 0.39049999E+02 -0.25931E+04
 0.39099998E+02 -0.42137E+04
 0.39149998E+02 -0.39728E+04
 0.39199997E+02 -0.38766E+04
 0.39249996E+02 -0.42665E+04
 0.39299999E+02 -0.43342E+04
 0.39349998E+02 -0.40812E+04
 0.39399998E+02 -0.66839E+04
 0.39449997E+02 -0.98790E+04
 0.39499996E+02 -0.10990E+05
 0.39549999E+02 -0.88088E+04
 0.39599998E+02 -0.77668E+04
 0.39649998E+02 -0.61141E+04
 0.39699997E+02 -0.37198E+04
 0.39749996E+02 -0.57357E+04
 0.39799999E+02 -0.71966E+04
 0.39849998E+02 -0.68637E+04
 0.39899998E+02 -0.76635E+04
 0.39949997E+02 -0.73741E+04
 0.39999996E+02 -0.66836E+04
 0.40049999E+02 -0.78796E+04
 0.40099998E+02 -0.89811E+04
 0.40149998E+02 -0.88276E+04
 0.40199997E+02 -0.81393E+04
 0.40249996E+02 -0.59664E+04
 0.40299999E+02 -0.44727E+04
 0.40349998E+02 -0.62588E+04
 0.40399998E+02 -0.53676E+04
 0.40449997E+02 -0.35341E+04
 0.40499996E+02 -0.38827E+04
 0.40549999E+02 -0.45232E+04
 0.40599998E+02 -0.51039E+04
 0.40649998E+02 -0.52312E+04
 0.40699997E+02 -0.74919E+04
 0.40749996E+02 -0.80234E+04
 0.40799999E+02 -0.75866E+04
 0.40849998E+02 -0.87531E+04
 0.40899998E+02 -0.94976E+04
 0.40949997E+02 -0.90340E+04
 0.40999996E+02 -0.63095E+04
 0.41049999E+02 -0.57656E+04
 0.41099998E+02 -0.60657E+04
 0.41149998E+02 -0.46962E+04
 0.41199997E+02 -0.48457E+04
 0.41249996E+02 -0.55477E+04
 0.41299999E+02 -0.52245E+04
 0.41349998E+02 -0.51472E+04
 0.41399998E+02 -0.52673E+04
 0.41449997E+02 -0.59303E+04
 0.41499996E+02 -0.88370E+04
 0.41549999E+02 -0.83244E+04
 0.41599998E+02 -0.67658E+04
 0.41649998E+02 -0.83538E+04
 0.41699997E+02 -0.67441E+04
 0.41749996E+02 -0.56898E+04
 0.41799999E+02 -0.52265E+04
 0.41849998E+02 -0.37024E+04
 0.41899998E+02 -0.43895E+04
 0.41949997E+02 -0.56895E+04
 0.41999996E+02 -0.53374E+04
 0.42049999E+02 -0.53651E+04
 0.42099998E+02 -0.70450E+04
 0.42149998E+02 -0.70975E+04
 0.42199997E+02 -0.75318E+04
 0.42249996E+02 -0.83071E+04
 0.42299999E+02 -0.73155E+04
 0.42349998E+02 -0.80314E+04
 0.42399998E+02 -0.10002E+05
 0.42449997E+02 -0.11462E+05
 0.42499996E+02 -0.11367E+05
 0.42549999E+02 -0.10738E+05
 0.42599998E+02 -0.87613E+04
 0.42649998E+02 -0.53039E+04
 0.42699997E+02 -0.42495E+04
 0.42749996E+02 -0.34287E+04
 0.42799995E+02 -0.40849E+04
 0.42849998E+02 -0.49607E+04
 0.42899998E+02 -0.64245E+04
 0.42949997E+02 -0.79110E+04
 0.42999996E+02 -0.66834E+04
 0.43049995E+02 -0.60539E+04
 0.43099998E+02 -0.70122E+04
 0.43149998E+02 -0.78748E+04
 0.43199997E+02 -0.82380E+04
 0.43249996E+02 -0.81937E+04
 0.43299995E+02 -0.38607E+04
 0.43349998E+02 -0.19621E+04
 0.43399998E+02 -0.27584E+04
 0.43449997E+02 -0.25244E+04
 0.43499996E+02 -0.52822E+04
 0.43549995E+02 -0.76499E+04
 0.43599998E+02 -0.77398E+04
 0.43649998E+02 -0.57770E+04
 0.43699997E+02 -0.57671E+04
 0.43749996E+02 -0.58779E+04
 0.43799995E+02 -0.61296E+04
 0.43849998E+02 -0.62487E+04
 0.43899998E+02 -0.59898E+04
 0.43949997E+02 -0.55182E+04
 0.43999996E+02 -0.49492E+04
 0.44049995E+02 -0.63951E+04
 0.44099998E+02 -0.58618E+04
 0.44149998E+02 -0.47668E+04
 0.44199997E+02 -0.51709E+04
 0.44249996E+02 -0.66962E+04
 0.44299995E+02 -0.86289E+04
 0.44349998E+02 -0.10132E+05
 0.44399998E+02 -0.94571E+04
 0.44449997E+02 -0.80418E+04
 0.44499996E+02 -0.78245E+04
 0.44549995E+02 -0.86648E+04
 0.44599998E+02 -0.77204E+04
 0.44649998E+02 -0.79912E+04
 0.44699997E+02 -0.82419E+04
 0.44749996E+02 -0.65899E+04
 0.44799995E+02 -0.60745E+04
 0.44849998E+02 -0.61732E+04
 0.44899998E+02 -0.61946E+04
 0.44949997E+02 -0.52418E+04
 0.44999996E+02 -0.57343E+04
 0.45049995E+02 -0.42056E+04
 0.45099998E+02 -0.37037E+04
 0.45149998E+02 -0.52439E+04
 0.45199997E+02 -0.49682E+04
 0.45249996E+02 -0.60851E+04
 0.45299995E+02 -0.66223E+04
 0.45349998E+02 -0.73583E+04
 0.45399998E+02 -0.85677E+04
 0.45449997E+02 -0.78680E+04
 0.45499996E+02 -0.64283E+04
 0.45549995E+02 -0.54297E+04
 0.45599998E+02 -0.56057E+04
 0.45649998E+02 -0.57294E+04
 0.45699997E+02 -0.76287E+04
 0.45749996E+02 -0.91286E+04
 0.45799995E+02 -0.75242E+04
 0.45849998E+02 -0.69465E+04
 0.45899998E+02 -0.64929E+04
 0.45949997E+02 -0.57151E+04
 0.45999996E+02 -0.60499E+04
 0.46049995E+02 -0.74978E+04
 0.46099998E+02 -0.78253E+04
 0.46149998E+02 -0.62202E+04
 0.46199997E+02 -0.56634E+04
 0.46249996E+02 -0.51761E+04
 0.46299995E+02 -0.54101E+04
 0.46349998E+02 -0.64673E+04
 0.46399998E+02 -0.58155E+04
 0.46449997E+02 -0.54569E+04
 0.46499996E+02 -0.63134E+04
 0.46549995E+02 -0.80774E+04
 0.46599998E+02 -0.79444E+04
 0.46649998E+02 -0.75066E+04
 0.46699997E+02 -0.82634E+04
 0.46749996E+02 -0.75341E+04
 0.46799995E+02 -0.67107E+04
 0.46849998E+02 -0.62201E+04
 0.46899998E+02 -0.68008E+04
 0.46949997E+02 -0.75033E+04
 0.46999996E+02 -0.67250E+04
 0.47049995E+02 -0.53212E+04
 0.47099998E+02 -0.55938E+04
 0.47149998E+02 -0.60058E+04
 0.47199997E+02 -0.50378E+04
 0.47249996E+02 -0.49341E+04
 0.47299995E+02 -0.52276E+04
 0.47349998E+02 -0.48371E+04
 0.47399998E+02 -0.56010E+04
 0.47449997E+02 -0.71253E+04
 0.47499996E+02 -0.74330E+04
 0.47549995E+02 -0.68691E+04
 0.47599998E+02 -0.67401E+04
 0.47649998E+02 -0.72964E+04
 0.47699997E+02 -0.71052E+04
 0.47749996E+02 -0.64457E+04
 0.47799995E+02 -0.68799E+04
 0.47849998E+02 -0.68667E+04
 0.47899998E+02 -0.63849E+04
 0.47949997E+02 -0.75289E+04
 0.47999996E+02 -0.88182E+04
 0.48049995E+02 -0.82639E+04
 0.48099998E+02 -0.77793E+04
 0.48149998E+02 -0.79502E+04
 0.48199997E+02 -0.64976E+04
 0.48249996E+02 -0.52656E+04
 0.48299995E+02 -0.51263E+04
 0.48349998E+02 -0.44507E+04
 0.48399998E+02 -0.36204E+04
 0.48449997E+02 -0.40919E+04
 0.48499996E+02 -0.51055E+04
 0.48549995E+02 -0.53985E+04
 0.48599998E+02 -0.49218E+04
 0.48649998E+02 -0.52354E+04
 0.48699997E+02 -0.64695E+04
 0.48749996E+02 -0.71876E+04
 0.48799995E+02 -0.73430E+04
 0.48849998E+02 -0.71484E+04
 0.48899998E+02 -0.61874E+04
 0.48949997E+02 -0.55745E+04
 0.48999996E+02 -0.67968E+04
 0.49049995E+02 -0.79796E+04
 0.49099998E+02 -0.84102E+04
 0.49149998E+02 -0.74939E+04
 0.49199997E+02 -0.75092E+04
 0.49249996E+02 -0.75060E+04
 0.49299995E+02 -0.69645E+04
 0.49349998E+02 -0.71802E+04
 0.49399998E+02 -0.63729E+04
 0.49449997E+02 -0.64837E+04
 0.49499996E+02 -0.79985E+04
 0.49549995E+02 -0.80980E+04
 0.49599998E+02 -0.64614E+04
 0.49649998E+02 -0.59304E+04
 0.49699997E+02 -0.59218E+04
 0.49749996E+02 -0.57494E+04
 0.49799995E+02 -0.66320E+04
 0.49849998E+02 -0.76144E+04
 0.49899998E+02 -0.74958E+04
 0.49949997E+02 -0.74813E+04
 0.49999996E+02 -0.79225E+04
 0.50049995E+02 -0.79753E+04
 0.50099998E+02 -0.72702E+04
 0.50149998E+02 -0.59480E+04
 0.50199997E+02 -0.52374E+04
 0.50249996E+02 -0.50179E+04
 0.50299995E+02 -0.55405E+04
 0.50349998E+02 -0.64252E+04
 0.50399998E+02 -0.65425E+04
 0.50449997E+02 -0.59947E+04
 0.50499996E+02 -0.55754E+04
 0.50549995E+02 -0.59096E+04
 0.50599998E+02 -0.62791E+04
 0.50649998E+02 -0.63939E+04
 0.50699997E+02 -0.57012E+04
 0.50749996E+02 -0.63587E+04
 0.50799995E+02 -0.66729E+04
 0.50849998E+02 -0.56310E+04
 0.50899998E+02 -0.56261E+04
 0.50949997E+02 -0.51243E+04
 0.50999996E+02 -0.51935E+04
 0.51049995E+02 -0.58731E+04
 0.51099998E+02 -0.63213E+04
 0.51149998E+02 -0.60495E+04
 0.51199997E+02 -0.60527E+04
 0.51249996E+02 -0.65757E+04
 0.51299995E+02 -0.69473E+04
 0.51349998E+02 -0.75835E+04
 0.51399998E+02 -0.75329E+04
 0.51449997E+02 -0.68804E+04
 0.51499996E+02 -0.64045E+04
 0.51549995E+02 -0.71063E+04
 0.51599998E+02 -0.76107E+04
 0.51649998E+02 -0.69756E+04
 0.51699997E+02 -0.65969E+04
 0.51749996E+02 -0.62721E+04
 0.51799995E+02 -0.67257E+04
 0.51849998E+02 -0.79367E+04
 0.51899998E+02 -0.68586E+04
 0.51949997E+02 -0.48044E+04
 0.51999996E+02 -0.54299E+04
 0.52049995E+02 -0.61327E+04
 0.52099998E+02 -0.61565E+04
 0.52149998E+02 -0.64657E+04
 0.52199997E+02 -0.66928E+04
 0.52249996E+02 -0.68850E+04
 0.52299995E+02 -0.66587E+04
 0.52349998E+02 -0.63887E+04
 0.52399998E+02 -0.59551E+04
 0.52449997E+02 -0.62155E+04
 0.52499996E+02 -0.63318E+04
 0.52549995E+02 -0.58825E+04
 0.52599998E+02 -0.56168E+04
 0.52649998E+02 -0.59994E+04
 0.52699997E+02 -0.64554E+04
 0.52749996E+02 -0.75352E+04
 0.52799995E+02 -0.85310E+04
 0.52849998E+02 -0.80840E+04
 0.52899998E+02 -0.80224E+04
 0.52949997E+02 -0.75904E+04
 0.52999996E+02 -0.70623E+04
 0.53049995E+02 -0.71657E+04
 0.53099998E+02 -0.69800E+04
 0.53149998E+02 -0.67496E+04
 0.53199997E+02 -0.60898E+04
 0.53249996E+02 -0.49024E+04
 0.53299995E+02 -0.43352E+04
 0.53349998E+02 -0.52791E+04
 0.53399998E+02 -0.68011E+04
 0.53449997E+02 -0.70589E+04
 0.53499996E+02 -0.72003E+04
 0.53549995E+02 -0.75662E+04
 0.53599998E+02 -0.74584E+04
 0.53649998E+02 -0.72149E+04
 0.53699997E+02 -0.69334E+04
 0.53749996E+02 -0.66660E+04
 0.53799995E+02 -0.64549E+04
 0.53849998E+02 -0.64233E+04
 0.53899998E+02 -0.57006E+04
 0.53949997E+02 -0.48997E+04
 0.53999996E+02 -0.47042E+04
 0.54049995E+02 -0.44474E+04
 0.54099998E+02 -0.41843E+04
 0.54149998E+02 -0.53200E+04
 0.54199997E+02 -0.67621E+04
 0.54249996E+02 -0.72796E+04
 0.54299995E+02 -0.78611E+04
 0.54349998E+02 -0.78644E+04
 0.54399998E+02 -0.76532E+04
 0.54449997E+02 -0.80288E+04
 0.54499996E+02 -0.80848E+04
 0.54549995E+02 -0.69129E+04
 0.54599998E+02 -0.55506E+04
 0.54649998E+02 -0.49679E+04
 0.54699997E+02 -0.51078E+04
 0.54749996E+02 -0.51708E+04
 0.54799995E+02 -0.52428E+04
 0.54849998E+02 -0.52387E+04
 0.54899998E+02 -0.53069E+04
 0.54949997E+02 -0.58796E+04
 0.54999996E+02 -0.64656E+04
 0.55049995E+02 -0.72138E+04
 0.55099998E+02 -0.77889E+04
 0.55149998E+02 -0.82836E+04
 0.55199997E+02 -0.82546E+04
 0.55249996E+02 -0.79920E+04
 0.55299995E+02 -0.76598E+04
 0.55349998E+02 -0.79508E+04
 0.55399998E+02 -0.78780E+04
 0.55449997E+02 -0.68098E+04
 0.55499996E+02 -0.63188E+04
 0.55549995E+02 -0.59528E+04
 0.55599998E+02 -0.58937E+04
 0.55649998E+02 -0.62518E+04
 0.55699997E+02 -0.65596E+04
 0.55749996E+02 -0.60819E+04
 0.55799995E+02 -0.59627E+04
 0.55849995E+02 -0.56931E+04
 0.55899998E+02 -0.42671E+04
 0.55949997E+02 -0.41240E+04
 0.55999996E+02 -0.47180E+04
 0.56049995E+02 -0.51786E+04
 0.56099995E+02 -0.62245E+04
 0.56149998E+02 -0.73836E+04
 0.56199997E+02 -0.79504E+04
 0.56249996E+02 -0.75216E+04
 0.56299995E+02 -0.71620E+04
 0.56349995E+02 -0.71222E+04
 0.56399998E+02 -0.74116E+04
 0.56449997E+02 -0.77883E+04
 0.56499996E+02 -0.72748E+04
 0.56549995E+02 -0.67268E+04
 0.56599995E+02 -0.63506E+04
 0.56649998E+02 -0.64012E+04
 0.56699997E+02 -0.68877E+04
 0.56749996E+02 -0.65574E+04
 0.56799995E+02 -0.65273E+04
 0.56849995E+02 -0.69969E+04
 0.56899998E+02 -0.70611E+04
 0.56949997E+02 -0.70796E+04
 0.56999996E+02 -0.67897E+04
 0.57049995E+02 -0.60053E+04
 0.57099995E+02 -0.55561E+04
 0.57149998E+02 -0.60518E+04
 0.57199997E+02 -0.63156E+04
 0.57249996E+02 -0.64796E+04
 0.57299995E+02 -0.68639E+04
 0.57349995E+02 -0.69471E+04
 0.57399998E+02 -0.71682E+04
 0.57449997E+02 -0.69672E+04
 0.57499996E+02 -0.62905E+04
 0.57549995E+02 -0.61741E+04
 0.57599995E+02 -0.60167E+04
 0.57649998E+02 -0.53912E+04
 0.57699997E+02 -0.50513E+04
 0.57749996E+02 -0.52550E+04
 0.57799995E+02 -0.55255E+04
 0.57849995E+02 -0.58791E+04
 0.57899998E+02 -0.66106E+04
 0.57949997E+02 -0.74147E+04
 0.57999996E+02 -0.81325E+04
 0.58049995E+02 -0.80893E+04
 0.58099995E+02 -0.75137E+04
 0.58149998E+02 -0.73545E+04
 0.58199997E+02 -0.74827E+04
 0.58249996E+02 -0.72035E+04
 0.58299995E+02 -0.66731E+04
 0.58349995E+02 -0.65431E+04
 0.58399998E+02 -0.63874E+04
 0.58449997E+02 -0.62963E+04
 0.58499996E+02 -0.67076E+04
 0.58549995E+02 -0.70959E+04
 0.58599995E+02 -0.70671E+04
 0.58649998E+02 -0.69239E+04
 0.58699997E+02 -0.62076E+04
 0.58749996E+02 -0.58288E+04
 0.58799995E+02 -0.58817E+04
 0.58849995E+02 -0.58040E+04
 0.58899998E+02 -0.60517E+04
 0.58949997E+02 -0.60067E+04
 0.58999996E+02 -0.59300E+04
 0.59049995E+02 -0.55798E+04
 0.59099995E+02 -0.52945E+04
 0.59149998E+02 -0.58451E+04
 0.59199997E+02 -0.65606E+04
 0.59249996E+02 -0.66903E+04
 0.59299995E+02 -0.64002E+04
 0.59349995E+02 -0.64970E+04
 0.59399998E+02 -0.69998E+04
 0.59449997E+02 -0.73946E+04
 0.59499996E+02 -0.77383E+04
 0.59549995E+02 -0.76231E+04
 0.59599995E+02 -0.70011E+04
 0.59649998E+02 -0.64161E+04
 0.59699997E+02 -0.60486E+04
 0.59749996E+02 -0.62045E+04
 0.59799995E+02 -0.61187E+04
 0.59849995E+02 -0.56761E+04
 0.59899998E+02 -0.58451E+04
 0.59949997E+02 -0.60537E+04
 0.59999996E+02 -0.59106E+04
 0.60049995E+02 -0.59862E+04
 0.60099995E+02 -0.61817E+04
 0.60149998E+02 -0.58183E+04
 0.60199997E+02 -0.60443E+04
 0.60249996E+02 -0.65450E+04
 0.60299995E+02 -0.62815E+04
 0.60349995E+02 -0.65106E+04
 0.60399998E+02 -0.72917E+04
 0.60449997E+02 -0.72952E+04
 0.60499996E+02 -0.69502E+04
 0.60549995E+02 -0.68364E+04
 0.60599995E+02 -0.65552E+04
 0.60649998E+02 -0.66728E+04
 0.60699997E+02 -0.67828E+04
 0.60749996E+02 -0.69957E+04
 0.60799995E+02 -0.67889E+04
 0.60849995E+02 -0.66117E+04
 0.60899998E+02 -0.66954E+04
 0.60949997E+02 -0.60430E+04
 0.60999996E+02 -0.54632E+04
 0.61049995E+02 -0.54920E+04
 0.61099995E+02 -0.59654E+04
 0.61149998E+02 -0.58618E+04
 0.61199997E+02 -0.56827E+04
 0.61249996E+02 -0.59364E+04
 0.61299995E+02 -0.62233E+04
 0.61349995E+02 -0.62546E+04
 0.61399998E+02 -0.59595E+04
 0.61449997E+02 -0.62004E+04
 0.61499996E+02 -0.62501E+04
 0.61549995E+02 -0.59942E+04
 0.61599995E+02 -0.61034E+04
 0.61649998E+02 -0.60315E+04
 0.61699997E+02 -0.62280E+04
 0.61749996E+02 -0.69479E+04
 0.61799995E+02 -0.73148E+04
 0.61849995E+02 -0.74821E+04
 0.61899998E+02 -0.75759E+04
 0.61949997E+02 -0.72866E+04
 0.61999996E+02 -0.71901E+04
 0.62049995E+02 -0.67674E+04
 0.62099998E+02 -0.63923E+04
 0.62149994E+02 -0.65214E+04
 0.62199997E+02 -0.68232E+04
 0.62249992E+02 -0.70824E+04
 0.62299995E+02 -0.70945E+04
 0.62349998E+02 -0.67284E+04
 0.62399994E+02 -0.63482E+04
 0.62449997E+02 -0.63722E+04
 0.62499992E+02 -0.62804E+04
 0.62549995E+02 -0.67113E+04
 0.62599998E+02 -0.72736E+04
 0.62649994E+02 -0.74713E+04
 0.62699997E+02 -0.74587E+04
 0.62749992E+02 -0.68477E+04
 0.62799995E+02 -0.64407E+04
 0.62849998E+02 -0.65845E+04
 0.62899994E+02 -0.64811E+04
 0.62949997E+02 -0.62328E+04
 0.62999992E+02 -0.62821E+04
 0.63049995E+02 -0.65109E+04
 0.63099998E+02 -0.66306E+04
 0.63149994E+02 -0.68295E+04
 0.63199997E+02 -0.67746E+04
 0.63249992E+02 -0.68081E+04
 0.63299995E+02 -0.71019E+04
 0.63349998E+02 -0.69423E+04
 0.63399994E+02 -0.67744E+04
 0.63449997E+02 -0.67225E+04
 0.63499992E+02 -0.65512E+04
 0.63549995E+02 -0.65495E+04
 0.63599998E+02 -0.66641E+04
 0.63649994E+02 -0.65603E+04
 0.63699997E+02 -0.64874E+04
 0.63749992E+02 -0.65089E+04
 0.63799995E+02 -0.63019E+04
 0.63849998E+02 -0.61140E+04
 0.63899994E+02 -0.67324E+04
 0.63949997E+02 -0.66947E+04
 0.63999992E+02 -0.62774E+04
 0.64049995E+02 -0.67894E+04
 0.64099998E+02 -0.65831E+04
 0.64149994E+02 -0.59944E+04
 0.64199997E+02 -0.60074E+04
 0.64249992E+02 -0.62583E+04
 0.64299995E+02 -0.61359E+04
 0.64349998E+02 -0.62464E+04
 0.64399994E+02 -0.66502E+04
 0.64449997E+02 -0.64484E+04
 0.64499992E+02 -0.61185E+04
 0.64549995E+02 -0.60561E+04
 0.64599998E+02 -0.59136E+04
 0.64649994E+02 -0.61916E+04
 0.64699997E+02 -0.65374E+04
 0.64749992E+02 -0.64014E+04
 0.64799995E+02 -0.61236E+04
 0.64849998E+02 -0.58454E+04
 0.64899994E+02 -0.56755E+04
 0.64949997E+02 -0.55872E+04
 0.64999992E+02 -0.58387E+04
 0.65049995E+02 -0.58698E+04
 0.65099998E+02 -0.59284E+04
 0.65149994E+02 -0.63117E+04
 0.65199997E+02 -0.66087E+04
 0.65249992E+02 -0.69201E+04
 0.65299995E+02 -0.71809E+04
 0.65349998E+02 -0.75116E+04
 0.65399994E+02 -0.74707E+04
 0.65449997E+02 -0.69140E+04
 0.65499992E+02 -0.62477E+04
 0.65549995E+02 -0.58535E+04
 0.65599998E+02 -0.61858E+04
 0.65649994E+02 -0.61857E+04
 0.65699997E+02 -0.63035E+04
 0.65749992E+02 -0.68785E+04
 0.65799995E+02 -0.71279E+04
 0.65849998E+02 -0.71217E+04
 0.65899994E+02 -0.66968E+04
 0.65949997E+02 -0.64929E+04
 0.65999992E+02 -0.66545E+04
 0.66049995E+02 -0.68165E+04
 0.66099998E+02 -0.69292E+04
 0.66149994E+02 -0.67790E+04
 0.66199997E+02 -0.65441E+04
 0.66249992E+02 -0.62714E+04
 0.66299995E+02 -0.60718E+04
 0.66349998E+02 -0.60268E+04
 0.66399994E+02 -0.60091E+04
 0.66449997E+02 -0.61257E+04
 0.66499992E+02 -0.63934E+04
 0.66549995E+02 -0.63179E+04
 0.66599998E+02 -0.61327E+04
 0.66649994E+02 -0.64632E+04
 0.66699997E+02 -0.65887E+04
 0.66749992E+02 -0.65441E+04
 0.66799995E+02 -0.66430E+04
 0.66849998E+02 -0.66360E+04
 0.66899994E+02 -0.64737E+04
 0.66949997E+02 -0.65611E+04
 0.66999992E+02 -0.68592E+04
 0.67049995E+02 -0.72404E+04
 0.67099998E+02 -0.75537E+04
 0.67149994E+02 -0.75153E+04
 0.67199997E+02 -0.74689E+04
 0.67249992E+02 -0.72783E+04
 0.67299995E+02 -0.71476E+04
 0.67349998E+02 -0.69060E+04
 0.67399994E+02 -0.65645E+04
 0.67449997E+02 -0.63395E+04
 0.67499992E+02 -0.60042E+04
 0.67549995E+02 -0.61475E+04
 0.67599998E+02 -0.62371E+04
 0.67649994E+02 -0.59365E+04
 0.67699997E+02 -0.62575E+04
 0.67749992E+02 -0.68034E+04
 0.67799995E+02 -0.69415E+04
 0.67849998E+02 -0.69887E+04
 0.67899994E+02 -0.66917E+04
 0.67949997E+02 -0.63202E+04
 0.67999992E+02 -0.61246E+04
 0.68049995E+02 -0.61844E+04
 0.68099998E+02 -0.62554E+04
 0.68149994E+02 -0.60958E+04
 0.68199997E+02 -0.60400E+04
 0.68249992E+02 -0.59172E+04
 0.68299995E+02 -0.60490E+04
 0.68349998E+02 -0.61784E+04
 0.68399994E+02 -0.60534E+04
 0.68449997E+02 -0.61067E+04
 0.68499992E+02 -0.61402E+04
 0.68549995E+02 -0.60374E+04
 0.68599998E+02 -0.63602E+04
 0.68649994E+02 -0.68331E+04
 0.68699997E+02 -0.69875E+04
 0.68749992E+02 -0.66706E+04
 0.68799995E+02 -0.62671E+04
 0.68849998E+02 -0.61919E+04
 0.68899994E+02 -0.60084E+04
 0.68949997E+02 -0.58577E+04
 0.68999992E+02 -0.60929E+04
 0.69049995E+02 -0.63255E+04
 0.69099998E+02 -0.63229E+04
 0.69149994E+02 -0.63601E+04
 0.69199997E+02 -0.64916E+04
 0.69249992E+02 -0.65348E+04
 0.69299995E+02 -0.65895E+04
 0.69349998E+02 -0.69267E+04
 0.69399994E+02 -0.71332E+04
 0.69449997E+02 -0.72522E+04
 0.69499992E+02 -0.73776E+04
 0.69549995E+02 -0.73003E+04
 0.69599998E+02 -0.70294E+04
 0.69649994E+02 -0.65769E+04
 0.69699997E+02 -0.63896E+04
 0.69749992E+02 -0.64690E+04
 0.69799995E+02 -0.66597E+04
 0.69849998E+02 -0.68717E+04
 0.69899994E+02 -0.65103E+04
 0.69949997E+02 -0.58314E+04
 0.69999992E+02 -0.55731E+04
 0.70049995E+02 -0.57487E+04
 0.70099998E+02 -0.60651E+04
 0.70149994E+02 -0.65074E+04
 0.70199997E+02 -0.68549E+04
 0.70249992E+02 -0.67637E+04
 0.70299995E+02 -0.66851E+04
 0.70349998E+02 -0.66221E+04
 0.70399994E+02 -0.65044E+04
 0.70449997E+02 -0.67270E+04
 0.70499992E+02 -0.69742E+04
 0.70549995E+02 -0.72240E+04
 0.70599998E+02 -0.72120E+04
 0.70649994E+02 -0.67642E+04
 0.70699997E+02 -0.65228E+04
 0.70749992E+02 -0.61400E+04
 0.70799995E+02 -0.60315E+04
 0.70849998E+02 -0.65151E+04
 0.70899994E+02 -0.69715E+04
 0.70949997E+02 -0.74390E+04
 0.70999992E+02 -0.76801E+04
 0.71049995E+02 -0.71106E+04
 0.71099998E+02 -0.64259E+04
 0.71149994E+02 -0.62701E+04
 0.71199997E+02 -0.63004E+04
 0.71249992E+02 -0.65147E+04
 0.71299995E+02 -0.67850E+04
 0.71349998E+02 -0.70771E+04
 0.71399994E+02 -0.66351E+04
 0.71449997E+02 -0.60291E+04
 0.71499992E+02 -0.57528E+04
 0.71549995E+02 -0.55334E+04
 0.71599998E+02 -0.56471E+04
 0.71649994E+02 -0.56243E+04
 0.71699997E+02 -0.54138E+04
 0.71749992E+02 -0.54692E+04
 0.71799995E+02 -0.59637E+04
 0.71849998E+02 -0.62624E+04
 0.71899994E+02 -0.62237E+04
 0.71949997E+02 -0.61966E+04
 0.71999992E+02 -0.61968E+04
 0.72049995E+02 -0.61550E+04
 0.72099998E+02 -0.62484E+04
 0.72149994E+02 -0.65004E+04
 0.72199997E+02 -0.69880E+04
 0.72249992E+02 -0.71023E+04
 0.72299995E+02 -0.67197E+04
 0.72349998E+02 -0.64914E+04
 0.72399994E+02 -0.63804E+04
 0.72449997E+02 -0.64265E+04
 0.72499992E+02 -0.65429E+04
 0.72549995E+02 -0.66138E+04
 0.72599998E+02 -0.68020E+04
 0.72649994E+02 -0.70164E+04
 0.72699997E+02 -0.69244E+04
 0.72749992E+02 -0.67497E+04
 0.72799995E+02 -0.68265E+04
 0.72849998E+02 -0.72485E+04
 0.72899994E+02 -0.74732E+04
 0.72949997E+02 -0.74112E+04
 0.72999992E+02 -0.71554E+04
 0.73049995E+02 -0.69231E+04
 0.73099998E+02 -0.68258E+04
 0.73149994E+02 -0.66405E+04
 0.73199997E+02 -0.65632E+04
 0.73249992E+02 -0.63988E+04
 0.73299995E+02 -0.63700E+04
 0.73349998E+02 -0.65917E+04
 0.73399994E+02 -0.64135E+04
 0.73449997E+02 -0.62428E+04
 0.73499992E+02 -0.63846E+04
 0.73549995E+02 -0.61548E+04
 0.73599998E+02 -0.59773E+04
 0.73649994E+02 -0.60048E+04
 0.73699997E+02 -0.60831E+04
 0.73749992E+02 -0.63063E+04
 0.73799995E+02 -0.63422E+04
 0.73849998E+02 -0.61280E+04
 0.73899994E+02 -0.59696E+04
 0.73949997E+02 -0.60623E+04
 0.73999992E+02 -0.62257E+04
 0.74049995E+02 -0.64189E+04
 0.74099998E+02 -0.65700E+04
 0.74149994E+02 -0.64368E+04
 0.74199997E+02 -0.63715E+04
 0.74249992E+02 -0.65020E+04
 0.74299995E+02 -0.66371E+04
 0.74349998E+02 -0.67787E+04
 0.74399994E+02 -0.66223E+04
 0.74449997E+02 -0.65293E+04
 0.74499992E+02 -0.68773E+04
 0.74549995E+02 -0.71394E+04
 0.74599998E+02 -0.72273E+04
 0.74649994E+02 -0.72545E+04
 0.74699997E+02 -0.70217E+04
 0.74749992E+02 -0.66823E+04
 0.74799995E+02 -0.64378E+04
 0.74849998E+02 -0.64923E+04
 0.74899994E+02 -0.66502E+04
 0.74949997E+02 -0.67627E+04
 0.74999992E+02 -0.69543E+04
 0.75049995E+02 -0.68832E+04
 0.75099998E+02 -0.65981E+04
 0.75149994E+02 -0.63031E+04
 0.75199997E+02 -0.60679E+04
 0.75249992E+02 -0.59488E+04
 0.75299995E+02 -0.59930E+04
 0.75349998E+02 -0.60319E+04
 0.75399994E+02 -0.61469E+04
 0.75449997E+02 -0.64248E+04
 0.75499992E+02 -0.62383E+04
 0.75549995E+02 -0.60388E+04
 0.75599998E+02 -0.59911E+04
 0.75649994E+02 -0.59061E+04
 0.75699997E+02 -0.61283E+04
 0.75749992E+02 -0.64965E+04
 0.75799995E+02 -0.66883E+04
 0.75849998E+02 -0.66093E+04
 0.75899994E+02 -0.63935E+04
 0.75949997E+02 -0.60885E+04
 0.75999992E+02 -0.58772E+04
 0.76049995E+02 -0.59611E+04
 0.76099998E+02 -0.63485E+04
 0.76149994E+02 -0.64609E+04
 0.76199997E+02 -0.64187E+04
 0.76249992E+02 -0.66235E+04
 0.76299995E+02 -0.68119E+04
 0.76349998E+02 -0.67977E+04
 0.76399994E+02 -0.67324E+04
 0.76449997E+02 -0.66845E+04
 0.76499992E+02 -0.65735E+04
 0.76549995E+02 -0.68077E+04
 0.76599998E+02 -0.70961E+04
 0.76649994E+02 -0.71707E+04
 0.76699997E+02 -0.70331E+04
 0.76749992E+02 -0.69639E+04
 0.76799995E+02 -0.70248E+04
 0.76849998E+02 -0.70106E+04
 0.76899994E+02 -0.70473E+04
 0.76949997E+02 -0.69720E+04
 0.76999992E+02 -0.68992E+04
 0.77049995E+02 -0.66616E+04
 0.77099998E+02 -0.63721E+04
 0.77149994E+02 -0.61087E+04
 0.77199997E+02 -0.60584E+04
 0.77249992E+02 -0.62798E+04
 0.77299995E+02 -0.61522E+04
 0.77349998E+02 -0.57579E+04
 0.77399994E+02 -0.57640E+04
 0.77449997E+02 -0.62121E+04
 0.77499992E+02 -0.66291E+04
 0.77549995E+02 -0.68804E+04
 0.77599998E+02 -0.68370E+04
 0.77649994E+02 -0.66363E+04
 0.77699997E+02 -0.65266E+04
 0.77749992E+02 -0.66361E+04
 0.77799995E+02 -0.68261E+04
 0.77849998E+02 -0.66794E+04
 0.77899994E+02 -0.65275E+04
 0.77949997E+02 -0.63965E+04
 0.77999992E+02 -0.61475E+04
 0.78049995E+02 -0.61185E+04
 0.78099998E+02 -0.62396E+04
 0.78149994E+02 -0.63136E+04
 0.78199997E+02 -0.63685E+04
 0.78249992E+02 -0.64921E+04
 0.78299995E+02 -0.64848E+04
 0.78349998E+02 -0.64588E+04
 0.78399994E+02 -0.63299E+04
 0.78449997E+02 -0.61350E+04
 0.78499992E+02 -0.61017E+04
 0.78549995E+02 -0.62103E+04
 0.78599998E+02 -0.64776E+04
 0.78649994E+02 -0.66612E+04
 0.78699997E+02 -0.67367E+04
 0.78749992E+02 -0.68292E+04
 0.78799995E+02 -0.67818E+04
 0.78849998E+02 -0.67548E+04
 0.78899994E+02 -0.68402E+04
 0.78949997E+02 -0.69166E+04
 0.78999992E+02 -0.71026E+04
 0.79049995E+02 -0.72764E+04
 0.79099998E+02 -0.72828E+04
 0.79149994E+02 -0.69324E+04
 0.79199997E+02 -0.65772E+04
 0.79249992E+02 -0.64462E+04
 0.79299995E+02 -0.64134E+04
 0.79349998E+02 -0.64180E+04
 0.79399994E+02 -0.65057E+04
 0.79449997E+02 -0.66750E+04
 0.79499992E+02 -0.65634E+04
 0.79549995E+02 -0.64615E+04
 0.79599998E+02 -0.63008E+04
 0.79649994E+02 -0.60314E+04
 0.79699997E+02 -0.59663E+04
 0.79749992E+02 -0.59737E+04
 0.79799995E+02 -0.61053E+04
 0.79849998E+02 -0.61568E+04
 0.79899994E+02 -0.61767E+04
 0.79949997E+02 -0.63531E+04
 0.79999992E+02 -0.64046E+04
 0.80049995E+02 -0.62741E+04
 0.80099998E+02 -0.64398E+04
 0.80149994E+02 -0.67835E+04
 0.80199997E+02 -0.68961E+04
 0.80249992E+02 -0.69052E+04
 0.80299995E+02 -0.67342E+04
 0.80349998E+02 -0.66324E+04
 0.80399994E+02 -0.67817E+04
 0.80449997E+02 -0.69246E+04
 0.80499992E+02 -0.68492E+04
 0.80549995E+02 -0.67330E+04
 0.80599998E+02 -0.67520E+04
 0.80649994E+02 -0.65802E+04
 0.80699997E+02 -0.62339E+04
 0.80749992E+02 -0.61303E+04
 0.80799995E+02 -0.61951E+04
 0.80849998E+02 -0.61401E+04
 0.80899994E+02 -0.63008E+04
 0.80949997E+02 -0.66042E+04
 0.80999992E+02 -0.65624E+04
 0.81049995E+02 -0.64763E+04
 0.81099998E+02 -0.64740E+04
 0.81149994E+02 -0.63867E+04
 0.81199997E+02 -0.63159E+04
 0.81249992E+02 -0.62983E+04
 0.81299995E+02 -0.62869E+04
 0.81349998E+02 -0.63777E+04
 0.81399994E+02 -0.66828E+04
 0.81449997E+02 -0.67980E+04
 0.81499992E+02 -0.66645E+04
 0.81549995E+02 -0.64263E+04
 0.81599998E+02 -0.61843E+04
 0.81649994E+02 -0.60133E+04
 0.81699997E+02 -0.58737E+04
 0.81749992E+02 -0.59784E+04
 0.81799995E+02 -0.62702E+04
 0.81849998E+02 -0.64842E+04
 0.81899994E+02 -0.64499E+04
 0.81949997E+02 -0.62625E+04
 0.81999992E+02 -0.62287E+04
 0.82049995E+02 -0.62826E+04
 0.82099998E+02 -0.62424E+04
 0.82149994E+02 -0.62875E+04
 0.82199997E+02 -0.63682E+04
 0.82249992E+02 -0.63418E+04
 0.82299995E+02 -0.63687E+04
 0.82349998E+02 -0.64751E+04
 0.82399994E+02 -0.65284E+04
 0.82449997E+02 -0.65598E+04
 0.82499992E+02 -0.65969E+04
 0.82549995E+02 -0.66310E+04
 0.82599998E+02 -0.66880E+04
 0.82649994E+02 -0.68232E+04
 0.82699997E+02 -0.70899E+04
 0.82749992E+02 -0.72441E+04
 0.82799995E+02 -0.72122E+04
 0.82849998E+02 -0.70688E+04
 0.82899994E+02 -0.67842E+04
 0.82949997E+02 -0.67907E+04
 0.82999992E+02 -0.68663E+04
 0.83049995E+02 -0.67937E+04
 0.83099998E+02 -0.68022E+04
 0.83149994E+02 -0.67519E+04
 0.83199997E+02 -0.66817E+04
 0.83249992E+02 -0.65591E+04
 0.83299995E+02 -0.65186E+04
 0.83349998E+02 -0.64774E+04
 0.83399994E+02 -0.64850E+04
 0.83449997E+02 -0.65376E+04
 0.83499992E+02 -0.64495E+04
 0.83549995E+02 -0.63765E+04
 0.83599998E+02 -0.63460E+04
 0.83649994E+02 -0.64326E+04
 0.83699997E+02 -0.64064E+04
 0.83749992E+02 -0.64766E+04
 0.83799995E+02 -0.66711E+04
 0.83849998E+02 -0.67413E+04
 0.83899994E+02 -0.67430E+04
 0.83949997E+02 -0.66174E+04
 0.83999992E+02 -0.66101E+04
 0.84049995E+02 -0.66820E+04
 0.84099998E+02 -0.67491E+04
 0.84149994E+02 -0.66385E+04
 0.84199997E+02 -0.64594E+04
 0.84249992E+02 -0.63805E+04
 0.84299995E+02 -0.62910E+04
 0.84349998E+02 -0.63001E+04
 0.84399994E+02 -0.64154E+04
 0.84449997E+02 -0.64356E+04
 0.84499992E+02 -0.62258E+04
 0.84549995E+02 -0.61870E+04
 0.84599998E+02 -0.63106E+04
 0.84649994E+02 -0.63454E+04
 0.84699997E+02 -0.63322E+04
 0.84749992E+02 -0.62874E+04
 0.84799995E+02 -0.61990E+04
 0.84849998E+02 -0.61129E+04
 0.84899994E+02 -0.61947E+04
 0.84949997E+02 -0.62490E+04
 0.84999992E+02 -0.62170E+04
 0.85049995E+02 -0.61458E+04
 0.85099998E+02 -0.60609E+04
 0.85149994E+02 -0.61512E+04
 0.85199997E+02 -0.63607E+04
 0.85249992E+02 -0.65316E+04
 0.85299995E+02 -0.66205E+04
 0.85349998E+02 -0.66811E+04
 0.85399994E+02 -0.66517E+04
 0.85449997E+02 -0.65640E+04
 0.85499992E+02 -0.65583E+04
 0.85549995E+02 -0.65868E+04
 0.85599998E+02 -0.65543E+04
 0.85649994E+02 -0.65059E+04
 0.85699997E+02 -0.66522E+04
 0.85749992E+02 -0.67402E+04
 0.85799995E+02 -0.67340E+04
 0.85849998E+02 -0.68109E+04
 0.85899994E+02 -0.67240E+04
 0.85949997E+02 -0.67016E+04
 0.85999992E+02 -0.67270E+04
 0.86049995E+02 -0.67611E+04
 0.86099998E+02 -0.67883E+04
 0.86149994E+02 -0.68200E+04
 0.86199997E+02 -0.67714E+04
 0.86249992E+02 -0.65620E+04
 0.86299995E+02 -0.64256E+04
 0.86349998E+02 -0.63001E+04
 0.86399994E+02 -0.62976E+04
 0.86449997E+02 -0.63010E+04
 0.86499992E+02 -0.64137E+04
 0.86549995E+02 -0.64109E+04
 0.86599998E+02 -0.63040E+04
 0.86649994E+02 -0.63984E+04
 0.86699997E+02 -0.65223E+04
 0.86749992E+02 -0.65289E+04
 0.86799995E+02 -0.64466E+04
 0.86849998E+02 -0.65417E+04
 0.86899994E+02 -0.65964E+04
 0.86949997E+02 -0.66344E+04
 0.86999992E+02 -0.67443E+04
 0.87049995E+02 -0.69392E+04
 0.87099998E+02 -0.70265E+04
 0.87149994E+02 -0.69448E+04
 0.87199997E+02 -0.68138E+04
 0.87249992E+02 -0.65576E+04
 0.87299995E+02 -0.64362E+04
 0.87349998E+02 -0.65297E+04
 0.87399994E+02 -0.66485E+04
 0.87449997E+02 -0.67857E+04
 0.87499992E+02 -0.68908E+04
 0.87549995E+02 -0.68037E+04
 0.87599991E+02 -0.66180E+04
 0.87649994E+02 -0.65244E+04
 0.87699997E+02 -0.65161E+04
 0.87749992E+02 -0.66111E+04
 0.87799995E+02 -0.66398E+04
 0.87849991E+02 -0.65263E+04
 0.87899994E+02 -0.66635E+04
 0.87949997E+02 -0.68588E+04
 0.87999992E+02 -0.68107E+04
 0.88049995E+02 -0.66218E+04
 0.88099991E+02 -0.65433E+04
 0.88149994E+02 -0.64759E+04
 0.88199997E+02 -0.63381E+04
 0.88249992E+02 -0.62219E+04
 0.88299995E+02 -0.60442E+04
 0.88349991E+02 -0.59900E+04
 0.88399994E+02 -0.60706E+04
 0.88449997E+02 -0.60720E+04
 0.88499992E+02 -0.60523E+04
 0.88549995E+02 -0.60879E+04
 0.88599991E+02 -0.60669E+04
 0.88649994E+02 -0.59622E+04
 0.88699997E+02 -0.59422E+04
 0.88749992E+02 -0.60911E+04
 0.88799995E+02 -0.62077E+04
 0.88849991E+02 -0.61804E+04
 0.88899994E+02 -0.61584E+04
 0.88949997E+02 -0.61772E+04
 0.88999992E+02 -0.63263E+04
 0.89049995E+02 -0.65529E+04
 0.89099991E+02 -0.66087E+04
 0.89149994E+02 -0.64932E+04
 0.89199997E+02 -0.64256E+04
 0.89249992E+02 -0.64299E+04
 0.89299995E+02 -0.64258E+04
 0.89349991E+02 -0.65376E+04
 0.89399994E+02 -0.65962E+04
 0.89449997E+02 -0.65657E+04
 0.89499992E+02 -0.65828E+04
 0.89549995E+02 -0.66357E+04
 0.89599991E+02 -0.65983E+04
 0.89649994E+02 -0.65413E+04
 0.89699997E+02 -0.66855E+04
 0.89749992E+02 -0.69579E+04
 0.89799995E+02 -0.71239E+04
 0.89849991E+02 -0.69656E+04
 0.89899994E+02 -0.66491E+04
 0.89949997E+02 -0.64524E+04
 0.89999992E+02 -0.63922E+04
 0.90049995E+02 -0.64081E+04
 0.90099991E+02 -0.64858E+04
 0.90149994E+02 -0.66628E+04
 0.90199997E+02 -0.67851E+04
 0.90249992E+02 -0.67386E+04
 0.90299995E+02 -0.67673E+04
 0.90349991E+02 -0.67542E+04
 0.90399994E+02 -0.66093E+04
 0.90449997E+02 -0.65841E+04
 0.90499992E+02 -0.65710E+04
 0.90549995E+02 -0.65522E+04
 0.90599991E+02 -0.65392E+04
 0.90649994E+02 -0.65257E+04
 0.90699997E+02 -0.64977E+04
 0.90749992E+02 -0.64778E+04
 0.90799995E+02 -0.64832E+04
 0.90849991E+02 -0.64613E+04
 0.90899994E+02 -0.64893E+04
 0.90949997E+02 -0.65985E+04
 0.90999992E+02 -0.67034E+04
 0.91049995E+02 -0.67285E+04
 0.91099991E+02 -0.66509E+04
 0.91149994E+02 -0.65227E+04
 0.91199997E+02 -0.64256E+04
 0.91249992E+02 -0.63169E+04
 0.91299995E+02 -0.62342E+04
 0.91349991E+02 -0.61326E+04
 0.91399994E+02 -0.60575E+04
 0.91449997E+02 -0.61498E+04
 0.91499992E+02 -0.62204E+04
 0.91549995E+02 -0.62551E+04
 0.91599991E+02 -0.63769E+04
 0.91649994E+02 -0.65631E+04
 0.91699997E+02 -0.66522E+04
 0.91749992E+02 -0.65379E+04
 0.91799995E+02 -0.63880E+04
 0.91849991E+02 -0.62999E+04
 0.91899994E+02 -0.62922E+04
 0.91949997E+02 -0.63526E+04
 0.91999992E+02 -0.64606E+04
 0.92049995E+02 -0.65738E+04
 0.92099991E+02 -0.65937E+04
 0.92149994E+02 -0.65646E+04
 0.92199997E+02 -0.64379E+04
 0.92249992E+02 -0.63199E+04
 0.92299995E+02 -0.63515E+04
 0.92349991E+02 -0.64405E+04
 0.92399994E+02 -0.65890E+04
 0.92449997E+02 -0.66536E+04
 0.92499992E+02 -0.65583E+04
 0.92549995E+02 -0.65105E+04
 0.92599991E+02 -0.65552E+04
 0.92649994E+02 -0.65853E+04
 0.92699997E+02 -0.66950E+04
 0.92749992E+02 -0.67363E+04
 0.92799995E+02 -0.66375E+04
 0.92849991E+02 -0.64622E+04
 0.92899994E+02 -0.63842E+04
 0.92949997E+02 -0.64481E+04
 0.92999992E+02 -0.64800E+04
 0.93049995E+02 -0.66040E+04
 0.93099991E+02 -0.66991E+04
 0.93149994E+02 -0.67123E+04
 0.93199997E+02 -0.66971E+04
 0.93249992E+02 -0.66702E+04
 0.93299995E+02 -0.66423E+04
 0.93349991E+02 -0.66056E+04
 0.93399994E+02 -0.65987E+04
 0.93449997E+02 -0.65184E+04
 0.93499992E+02 -0.64432E+04
 0.93549995E+02 -0.63992E+04
 0.93599991E+02 -0.63743E+04
 0.93649994E+02 -0.63843E+04
 0.93699997E+02 -0.64063E+04
 0.93749992E+02 -0.64658E+04
 0.93799995E+02 -0.65685E+04
 0.93849991E+02 -0.67101E+04
 0.93899994E+02 -0.67973E+04
 0.93949997E+02 -0.68456E+04
 0.93999992E+02 -0.68953E+04
 0.94049995E+02 -0.68671E+04
 0.94099991E+02 -0.66858E+04
 0.94149994E+02 -0.64665E+04
 0.94199997E+02 -0.62852E+04
 0.94249992E+02 -0.62853E+04
 0.94299995E+02 -0.64808E+04
 0.94349991E+02 -0.66729E+04
 0.94399994E+02 -0.68443E+04
 0.94449997E+02 -0.69502E+04
 0.94499992E+02 -0.68827E+04
 0.94549995E+02 -0.67670E+04
 0.94599991E+02 -0.67070E+04
 0.94649994E+02 -0.65182E+04
 0.94699997E+02 -0.64669E+04
 0.94749992E+02 -0.65376E+04
 0.94799995E+02 -0.64163E+04
 0.94849991E+02 -0.63287E+04
 0.94899994E+02 -0.63448E+04
 0.94949997E+02 -0.62425E+04
 0.94999992E+02 -0.60901E+04
 0.95049995E+02 -0.60443E+04
 0.95099991E+02 -0.59862E+04
 0.95149994E+02 -0.59652E+04
 0.95199997E+02 -0.59372E+04
 0.95249992E+02 -0.59707E+04
 0.95299995E+02 -0.61717E+04
 0.95349991E+02 -0.63961E+04
 0.95399994E+02 -0.65363E+04
 0.95449997E+02 -0.65305E+04
 0.95499992E+02 -0.65114E+04
 0.95549995E+02 -0.65712E+04
 0.95599991E+02 -0.65594E+04
 0.95649994E+02 -0.63590E+04
 0.95699997E+02 -0.62333E+04
 0.95749992E+02 -0.63385E+04
 0.95799995E+02 -0.65191E+04
 0.95849991E+02 -0.66987E+04
 0.95899994E+02 -0.67551E+04
 0.95949997E+02 -0.66770E+04
 0.95999992E+02 -0.65281E+04
 0.96049995E+02 -0.63746E+04
 0.96099991E+02 -0.63623E+04
 0.96149994E+02 -0.65249E+04
 0.96199997E+02 -0.66159E+04
 0.96249992E+02 -0.65304E+04
 0.96299995E+02 -0.65082E+04
 0.96349991E+02 -0.65752E+04
 0.96399994E+02 -0.66786E+04
 0.96449997E+02 -0.67841E+04
 0.96499992E+02 -0.68334E+04
 0.96549995E+02 -0.68580E+04
 0.96599991E+02 -0.68942E+04
 0.96649994E+02 -0.68633E+04
 0.96699997E+02 -0.67923E+04
 0.96749992E+02 -0.66974E+04
 0.96799995E+02 -0.65482E+04
 0.96849991E+02 -0.64282E+04
 0.96899994E+02 -0.64062E+04
 0.96949997E+02 -0.64212E+04
 0.96999992E+02 -0.64725E+04
 0.97049995E+02 -0.65610E+04
 0.97099991E+02 -0.66086E+04
 0.97149994E+02 -0.66349E+04
 0.97199997E+02 -0.66050E+04
 0.97249992E+02 -0.65072E+04
 0.97299995E+02 -0.63640E+04
 0.97349991E+02 -0.62950E+04
 0.97399994E+02 -0.62792E+04
 0.97449997E+02 -0.63210E+04
 0.97499992E+02 -0.64166E+04
 0.97549995E+02 -0.64406E+04
 0.97599991E+02 -0.63843E+04
 0.97649994E+02 -0.63163E+04
 0.97699997E+02 -0.62989E+04
 0.97749992E+02 -0.63582E+04
 0.97799995E+02 -0.65357E+04
 0.97849991E+02 -0.67330E+04
 0.97899994E+02 -0.68752E+04
 0.97949997E+02 -0.69206E+04
 0.97999992E+02 -0.68776E+04
