-0.19969940E+01 -0.21921E+05
-0.19469941E+01 -0.21805E+05
-0.18969940E+01 -0.21895E+05
-0.18469940E+01 -0.21888E+05
-0.17969940E+01 -0.21875E+05
-0.17469940E+01 -0.21879E+05
-0.16969941E+01 -0.21868E+05
-0.16469941E+01 -0.21868E+05
-0.15969940E+01 -0.21873E+05
-0.15469940E+01 -0.21869E+05
-0.14969940E+01 -0.21872E+05
-0.14469941E+01 -0.21876E+05
-0.13969941E+01 -0.21889E+05
-0.13469940E+01 -0.21897E+05
-0.12969941E+01 -0.21908E+05
-0.12469940E+01 -0.21911E+05
-0.11969941E+01 -0.21916E+05
-0.11469941E+01 -0.21915E+05
-0.10969940E+01 -0.21916E+05
-0.10469941E+01 -0.21923E+05
-0.99699408E+00 -0.21926E+05
-0.94699407E+00 -0.21927E+05
-0.89699411E+00 -0.21924E+05
-0.84699404E+00 -0.21921E+05
-0.79699409E+00 -0.21925E+05
-0.74699414E+00 -0.21923E+05
-0.69699407E+00 -0.21923E+05
-0.64699411E+00 -0.21920E+05
-0.59699416E+00 -0.21918E+05
-0.54699409E+00 -0.21922E+05
-0.49699414E+00 -0.21914E+05
-0.44699407E+00 -0.21915E+05
-0.39699411E+00 -0.21909E+05
-0.34699416E+00 -0.21911E+05
-0.29699409E+00 -0.21915E+05
-0.24699414E+00 -0.21930E+05
-0.19699407E+00 -0.21935E+05
-0.14699411E+00 -0.21931E+05
-0.96994162E-01 -0.21945E+05
-0.46994090E-01 -0.21934E+05
 0.30058622E-02 -0.21940E+05
 0.53005934E-01 -0.21941E+05
 0.10300589E+00 -0.21934E+05
 0.15300584E+00 -0.21921E+05
 0.20300579E+00 -0.21915E+05
 0.25300574E+00 -0.21905E+05
 0.30300593E+00 -0.21887E+05
 0.35300589E+00 -0.21903E+05
 0.40300584E+00 -0.21893E+05
 0.45300579E+00 -0.21901E+05
 0.50300574E+00 -0.21906E+05
 0.55300593E+00 -0.21906E+05
 0.60300589E+00 -0.21910E+05
 0.65300584E+00 -0.21907E+05
 0.70300579E+00 -0.21904E+05
 0.75300574E+00 -0.21903E+05
 0.80300570E+00 -0.21904E+05
 0.85300589E+00 -0.21898E+05
 0.90300584E+00 -0.21900E+05
 0.95300579E+00 -0.21903E+05
 0.10030057E+01 -0.21897E+05
 0.10530057E+01 -0.21896E+05
 0.11030059E+01 -0.21900E+05
 0.11530058E+01 -0.21888E+05
 0.12030058E+01 -0.21899E+05
 0.12530057E+01 -0.21903E+05
 0.13030057E+01 -0.21909E+05
 0.13530059E+01 -0.21910E+05
 0.14030058E+01 -0.21915E+05
 0.14530058E+01 -0.21921E+05
 0.15030057E+01 -0.21911E+05
 0.15530057E+01 -0.21919E+05
 0.16030059E+01 -0.21916E+05
 0.16530058E+01 -0.21908E+05
 0.17030058E+01 -0.21908E+05
 0.17530057E+01 -0.21907E+05
 0.18030057E+01 -0.21903E+05
 0.18530056E+01 -0.21905E+05
 0.19030058E+01 -0.21910E+05
 0.19530058E+01 -0.21907E+05
 0.20030057E+01 -0.21901E+05
 0.20530057E+01 -0.21894E+05
 0.21030059E+01 -0.21889E+05
 0.21530056E+01 -0.21886E+05
 0.22030058E+01 -0.21882E+05
 0.22530055E+01 -0.21886E+05
 0.23030057E+01 -0.21892E+05
 0.23530059E+01 -0.21900E+05
 0.24030056E+01 -0.21901E+05
 0.24530058E+01 -0.21908E+05
 0.25030055E+01 -0.21908E+05
 0.25530057E+01 -0.21908E+05
 0.26030059E+01 -0.21908E+05
 0.26530056E+01 -0.21900E+05
 0.27030058E+01 -0.21897E+05
 0.27530055E+01 -0.21892E+05
 0.28030057E+01 -0.21901E+05
 0.28530059E+01 -0.21908E+05
 0.29030056E+01 -0.21915E+05
 0.29530058E+01 -0.21922E+05
 0.30030055E+01 -0.21924E+05
 0.30530057E+01 -0.21927E+05
 0.31030059E+01 -0.21930E+05
 0.31530056E+01 -0.21936E+05
 0.32030058E+01 -0.21940E+05
 0.32530055E+01 -0.21935E+05
 0.33030057E+01 -0.21931E+05
 0.33530059E+01 -0.21924E+05
 0.34030056E+01 -0.21924E+05
 0.34530058E+01 -0.21919E+05
 0.35030055E+01 -0.21916E+05
 0.35530057E+01 -0.21914E+05
 0.36030054E+01 -0.21908E+05
 0.36530056E+01 -0.21910E+05
 0.37030058E+01 -0.21911E+05
 0.37530055E+01 -0.21900E+05
 0.38030057E+01 -0.21901E+05
 0.38530054E+01 -0.21911E+05
 0.39030056E+01 -0.21914E+05
 0.39530058E+01 -0.21917E+05
 0.40030055E+01 -0.21921E+05
 0.40530057E+01 -0.21917E+05
 0.41030054E+01 -0.21918E+05
 0.41530056E+01 -0.21922E+05
 0.42030058E+01 -0.21917E+05
 0.42530055E+01 -0.21909E+05
 0.43030057E+01 -0.21909E+05
 0.43530054E+01 -0.21903E+05
 0.44030056E+01 -0.21904E+05
 0.44530058E+01 -0.21906E+05
 0.45030055E+01 -0.21893E+05
 0.45530057E+01 -0.21894E+05
 0.46030054E+01 -0.21887E+05
 0.46530056E+01 -0.21875E+05
 0.47030058E+01 -0.21876E+05
 0.47530055E+01 -0.21879E+05
 0.48030057E+01 -0.21871E+05
 0.48530054E+01 -0.21880E+05
 0.49030056E+01 -0.21878E+05
 0.49530058E+01 -0.21877E+05
 0.50030055E+01 -0.21879E+05
 0.50530057E+01 -0.21886E+05
 0.51030054E+01 -0.21890E+05
 0.51530056E+01 -0.21890E+05
 0.52030058E+01 -0.21901E+05
 0.52530055E+01 -0.21906E+05
 0.53030057E+01 -0.21915E+05
 0.53530054E+01 -0.21927E+05
 0.54030056E+01 -0.21939E+05
 0.54530053E+01 -0.21945E+05
 0.55030055E+01 -0.21956E+05
 0.55530057E+01 -0.21956E+05
 0.56030054E+01 -0.21954E+05
 0.56530056E+01 -0.21946E+05
 0.57030053E+01 -0.21938E+05
 0.57530055E+01 -0.21925E+05
 0.58030057E+01 -0.21915E+05
 0.58530054E+01 -0.21902E+05
 0.59030056E+01 -0.21880E+05
 0.59530053E+01 -0.21881E+05
 0.60030055E+01 -0.21869E+05
 0.60530052E+01 -0.21871E+05
 0.61030054E+01 -0.21876E+05
 0.61530056E+01 -0.21877E+05
 0.62030058E+01 -0.21884E+05
 0.62530050E+01 -0.21886E+05
 0.63030052E+01 -0.21890E+05
 0.63530054E+01 -0.21896E+05
 0.64030056E+01 -0.21898E+05
 0.64530058E+01 -0.21904E+05
 0.65030050E+01 -0.21907E+05
 0.65530052E+01 -0.21906E+05
 0.66030054E+01 -0.21910E+05
 0.66530056E+01 -0.21900E+05
 0.67030058E+01 -0.21903E+05
 0.67530050E+01 -0.21904E+05
 0.68030052E+01 -0.21909E+05
 0.68530054E+01 -0.21917E+05
 0.69030056E+01 -0.21922E+05
 0.69530058E+01 -0.21930E+05
 0.70030050E+01 -0.21929E+05
 0.70530052E+01 -0.21928E+05
 0.71030054E+01 -0.21923E+05
 0.71530056E+01 -0.21922E+05
 0.72030058E+01 -0.21924E+05
 0.72530050E+01 -0.21919E+05
 0.73030052E+01 -0.21918E+05
 0.73530054E+01 -0.21914E+05
 0.74030056E+01 -0.21906E+05
 0.74530058E+01 -0.21905E+05
 0.75030050E+01 -0.21896E+05
 0.75530052E+01 -0.21886E+05
 0.76030054E+01 -0.21879E+05
 0.76530056E+01 -0.21873E+05
 0.77030058E+01 -0.21881E+05
 0.77530050E+01 -0.21885E+05
 0.78030052E+01 -0.21890E+05
 0.78530054E+01 -0.21885E+05
 0.79030056E+01 -0.21891E+05
 0.79530058E+01 -0.21891E+05
 0.80030050E+01 -0.21893E+05
 0.80530052E+01 -0.21893E+05
 0.81030054E+01 -0.21890E+05
 0.81530056E+01 -0.21901E+05
 0.82030058E+01 -0.21899E+05
 0.82530050E+01 -0.21903E+05
 0.83030052E+01 -0.21909E+05
 0.83530054E+01 -0.21912E+05
 0.84030056E+01 -0.21910E+05
 0.84530058E+01 -0.21912E+05
 0.85030050E+01 -0.21915E+05
 0.85530052E+01 -0.21917E+05
 0.86030054E+01 -0.21917E+05
 0.86530056E+01 -0.21917E+05
 0.87030058E+01 -0.21923E+05
 0.87530050E+01 -0.21925E+05
 0.88030052E+01 -0.21931E+05
 0.88530054E+01 -0.21929E+05
 0.89030056E+01 -0.21928E+05
 0.89530058E+01 -0.21924E+05
 0.90030050E+01 -0.21927E+05
 0.90530052E+01 -0.21923E+05
 0.91030054E+01 -0.21924E+05
 0.91530056E+01 -0.21928E+05
 0.92030048E+01 -0.21921E+05
 0.92530050E+01 -0.21921E+05
 0.93030052E+01 -0.21918E+05
 0.93530054E+01 -0.21915E+05
 0.94030056E+01 -0.21913E+05
 0.94530048E+01 -0.21910E+05
 0.95030050E+01 -0.21910E+05
 0.95530052E+01 -0.21910E+05
 0.96030054E+01 -0.21906E+05
 0.96530056E+01 -0.21905E+05
 0.97030048E+01 -0.21898E+05
 0.97530050E+01 -0.21897E+05
 0.98030052E+01 -0.21900E+05
 0.98530054E+01 -0.21900E+05
 0.99030056E+01 -0.21912E+05
 0.99530048E+01 -0.21902E+05
 0.10003005E+02 -0.21903E+05
 0.10053005E+02 -0.21901E+05
 0.10103005E+02 -0.21890E+05
 0.10153006E+02 -0.21890E+05
 0.10203005E+02 -0.21886E+05
 0.10253005E+02 -0.21884E+05
 0.10303005E+02 -0.21885E+05
 0.10353005E+02 -0.21881E+05
 0.10403006E+02 -0.21882E+05
 0.10453005E+02 -0.21884E+05
 0.10503005E+02 -0.21886E+05
 0.10553005E+02 -0.21893E+05
 0.10603005E+02 -0.21888E+05
 0.10653006E+02 -0.21897E+05
 0.10703005E+02 -0.21893E+05
 0.10753005E+02 -0.21896E+05
 0.10803005E+02 -0.21900E+05
 0.10853005E+02 -0.21898E+05
 0.10903006E+02 -0.21908E+05
 0.10953005E+02 -0.21909E+05
 0.11003005E+02 -0.21913E+05
 0.11053005E+02 -0.21915E+05
 0.11103005E+02 -0.21916E+05
 0.11153006E+02 -0.21920E+05
 0.11203005E+02 -0.21926E+05
 0.11253005E+02 -0.21926E+05
 0.11303005E+02 -0.21928E+05
 0.11353005E+02 -0.21923E+05
 0.11403006E+02 -0.21926E+05
 0.11453005E+02 -0.21927E+05
 0.11503005E+02 -0.21924E+05
 0.11553005E+02 -0.21924E+05
 0.11603005E+02 -0.21918E+05
 0.11653006E+02 -0.21916E+05
 0.11703005E+02 -0.21913E+05
 0.11753005E+02 -0.21920E+05
 0.11803005E+02 -0.21917E+05
 0.11853005E+02 -0.21917E+05
 0.11903006E+02 -0.21908E+05
 0.11953005E+02 -0.21904E+05
 0.12003005E+02 -0.21891E+05
 0.12053005E+02 -0.21885E+05
 0.12103005E+02 -0.21890E+05
 0.12153006E+02 -0.21886E+05
 0.12203005E+02 -0.21902E+05
 0.12253005E+02 -0.21901E+05
 0.12303005E+02 -0.21909E+05
 0.12353005E+02 -0.21910E+05
 0.12403006E+02 -0.21911E+05
 0.12453005E+02 -0.21911E+05
 0.12503005E+02 -0.21913E+05
 0.12553005E+02 -0.21918E+05
 0.12603005E+02 -0.21914E+05
 0.12653005E+02 -0.21915E+05
 0.12703005E+02 -0.21904E+05
 0.12753005E+02 -0.21910E+05
 0.12803005E+02 -0.21902E+05
 0.12853005E+02 -0.21899E+05
 0.12903005E+02 -0.21895E+05
 0.12953005E+02 -0.21892E+05
 0.13003005E+02 -0.21890E+05
 0.13053005E+02 -0.21887E+05
 0.13103005E+02 -0.21891E+05
 0.13153005E+02 -0.21887E+05
 0.13203005E+02 -0.21893E+05
 0.13253005E+02 -0.21893E+05
 0.13303005E+02 -0.21903E+05
 0.13353005E+02 -0.21902E+05
 0.13403005E+02 -0.21916E+05
 0.13453005E+02 -0.21917E+05
 0.13503005E+02 -0.21916E+05
 0.13553005E+02 -0.21921E+05
 0.13603005E+02 -0.21917E+05
 0.13653005E+02 -0.21920E+05
 0.13703005E+02 -0.21922E+05
 0.13753005E+02 -0.21921E+05
 0.13803005E+02 -0.21913E+05
 0.13853005E+02 -0.21916E+05
 0.13903005E+02 -0.21910E+05
 0.13953005E+02 -0.21916E+05
 0.14003005E+02 -0.21913E+05
 0.14053005E+02 -0.21912E+05
 0.14103004E+02 -0.21907E+05
 0.14153006E+02 -0.21906E+05
 0.14203005E+02 -0.21909E+05
 0.14253004E+02 -0.21901E+05
 0.14303005E+02 -0.21899E+05
 0.14353004E+02 -0.21893E+05
 0.14403006E+02 -0.21896E+05
 0.14453005E+02 -0.21892E+05
 0.14503004E+02 -0.21893E+05
 0.14553005E+02 -0.21887E+05
 0.14603004E+02 -0.21894E+05
 0.14653006E+02 -0.21892E+05
 0.14703005E+02 -0.21900E+05
 0.14753004E+02 -0.21904E+05
 0.14803005E+02 -0.21900E+05
 0.14853004E+02 -0.21909E+05
 0.14903006E+02 -0.21898E+05
 0.14953005E+02 -0.21906E+05
 0.15003004E+02 -0.21900E+05
 0.15053005E+02 -0.21908E+05
 0.15103004E+02 -0.21910E+05
 0.15153006E+02 -0.21909E+05
 0.15203005E+02 -0.21910E+05
 0.15253004E+02 -0.21909E+05
 0.15303005E+02 -0.21909E+05
 0.15353004E+02 -0.21905E+05
 0.15403006E+02 -0.21904E+05
 0.15453005E+02 -0.21900E+05
 0.15503004E+02 -0.21906E+05
 0.15553005E+02 -0.21905E+05
 0.15603004E+02 -0.21909E+05
 0.15653006E+02 -0.21905E+05
 0.15703005E+02 -0.21904E+05
 0.15753004E+02 -0.21900E+05
 0.15803005E+02 -0.21897E+05
 0.15853004E+02 -0.21898E+05
 0.15903006E+02 -0.21899E+05
 0.15953005E+02 -0.21904E+05
 0.16003004E+02 -0.21898E+05
 0.16053005E+02 -0.21902E+05
 0.16103004E+02 -0.21909E+05
 0.16153006E+02 -0.21918E+05
 0.16203005E+02 -0.21912E+05
 0.16253004E+02 -0.21921E+05
 0.16303005E+02 -0.21918E+05
 0.16353004E+02 -0.21916E+05
 0.16403006E+02 -0.21922E+05
 0.16453005E+02 -0.21916E+05
 0.16503004E+02 -0.21914E+05
 0.16553005E+02 -0.21908E+05
 0.16603004E+02 -0.21906E+05
 0.16653006E+02 -0.21898E+05
 0.16703005E+02 -0.21895E+05
 0.16753004E+02 -0.21894E+05
 0.16803005E+02 -0.21894E+05
 0.16853004E+02 -0.21896E+05
 0.16903006E+02 -0.21904E+05
 0.16953005E+02 -0.21902E+05
 0.17003004E+02 -0.21907E+05
 0.17053005E+02 -0.21906E+05
 0.17103004E+02 -0.21898E+05
 0.17153006E+02 -0.21909E+05
 0.17203005E+02 -0.21904E+05
 0.17253004E+02 -0.21910E+05
 0.17303005E+02 -0.21914E+05
 0.17353004E+02 -0.21916E+05
 0.17403006E+02 -0.21924E+05
 0.17453005E+02 -0.21927E+05
 0.17503004E+02 -0.21929E+05
 0.17553005E+02 -0.21924E+05
 0.17603004E+02 -0.21924E+05
 0.17653006E+02 -0.21920E+05
 0.17703005E+02 -0.21921E+05
 0.17753004E+02 -0.21920E+05
 0.17803005E+02 -0.21922E+05
 0.17853004E+02 -0.21908E+05
 0.17903006E+02 -0.21917E+05
 0.17953005E+02 -0.21909E+05
 0.18003004E+02 -0.21909E+05
 0.18053005E+02 -0.21911E+05
 0.18103004E+02 -0.21903E+05
 0.18153006E+02 -0.21908E+05
 0.18203005E+02 -0.21896E+05
 0.18253004E+02 -0.21898E+05
 0.18303005E+02 -0.21889E+05
 0.18353004E+02 -0.21898E+05
 0.18403006E+02 -0.21890E+05
 0.18453005E+02 -0.21890E+05
 0.18503004E+02 -0.21886E+05
 0.18553005E+02 -0.21885E+05
 0.18603004E+02 -0.21883E+05
 0.18653006E+02 -0.21882E+05
 0.18703005E+02 -0.21890E+05
 0.18753004E+02 -0.21883E+05
 0.18803005E+02 -0.21886E+05
 0.18853004E+02 -0.21884E+05
 0.18903006E+02 -0.21893E+05
 0.18953005E+02 -0.21890E+05
 0.19003004E+02 -0.21893E+05
 0.19053005E+02 -0.21898E+05
 0.19103004E+02 -0.21899E+05
 0.19153006E+02 -0.21906E+05
 0.19203005E+02 -0.21905E+05
 0.19253004E+02 -0.21905E+05
 0.19303005E+02 -0.21903E+05
 0.19353004E+02 -0.21900E+05
 0.19403006E+02 -0.21897E+05
 0.19453005E+02 -0.21898E+05
 0.19503004E+02 -0.21890E+05
 0.19553005E+02 -0.21888E+05
 0.19603004E+02 -0.21890E+05
 0.19653006E+02 -0.21892E+05
 0.19703005E+02 -0.21898E+05
 0.19753004E+02 -0.21902E+05
 0.19803005E+02 -0.21906E+05
 0.19853004E+02 -0.21912E+05
 0.19903006E+02 -0.21914E+05
 0.19953005E+02 -0.21924E+05
 0.20003004E+02 -0.21926E+05
 0.20053005E+02 -0.21923E+05
 0.20103004E+02 -0.21928E+05
 0.20153006E+02 -0.21921E+05
 0.20203005E+02 -0.21925E+05
 0.20253004E+02 -0.21925E+05
 0.20303005E+02 -0.21920E+05
 0.20353004E+02 -0.21916E+05
 0.20403004E+02 -0.21911E+05
 0.20453005E+02 -0.21906E+05
 0.20503004E+02 -0.21904E+05
 0.20553005E+02 -0.21904E+05
 0.20603004E+02 -0.21900E+05
 0.20653004E+02 -0.21900E+05
 0.20703005E+02 -0.21904E+05
 0.20753004E+02 -0.21899E+05
 0.20803005E+02 -0.21896E+05
 0.20853004E+02 -0.21896E+05
 0.20903004E+02 -0.21889E+05
 0.20953005E+02 -0.21886E+05
 0.21003004E+02 -0.21883E+05
 0.21053005E+02 -0.21887E+05
 0.21103004E+02 -0.21886E+05
 0.21153004E+02 -0.21882E+05
 0.21203005E+02 -0.21886E+05
 0.21253004E+02 -0.21887E+05
 0.21303005E+02 -0.21896E+05
 0.21353004E+02 -0.21902E+05
 0.21403004E+02 -0.21904E+05
 0.21453005E+02 -0.21908E+05
 0.21503004E+02 -0.21906E+05
 0.21553005E+02 -0.21899E+05
 0.21603004E+02 -0.21904E+05
 0.21653004E+02 -0.21903E+05
 0.21703005E+02 -0.21895E+05
 0.21753004E+02 -0.21902E+05
 0.21803005E+02 -0.21901E+05
 0.21853004E+02 -0.21900E+05
 0.21903004E+02 -0.21904E+05
 0.21953005E+02 -0.21906E+05
 0.22003004E+02 -0.21905E+05
 0.22053005E+02 -0.21906E+05
 0.22103004E+02 -0.21905E+05
 0.22153004E+02 -0.21906E+05
 0.22203005E+02 -0.21904E+05
 0.22253004E+02 -0.21901E+05
 0.22303005E+02 -0.21903E+05
 0.22353004E+02 -0.21898E+05
 0.22403004E+02 -0.21910E+05
 0.22453005E+02 -0.21903E+05
 0.22503004E+02 -0.21906E+05
 0.22553005E+02 -0.21912E+05
 0.22603004E+02 -0.21911E+05
 0.22653004E+02 -0.21917E+05
 0.22703005E+02 -0.21914E+05
 0.22753004E+02 -0.21919E+05
 0.22803005E+02 -0.21912E+05
 0.22853004E+02 -0.21919E+05
 0.22903004E+02 -0.21910E+05
 0.22953005E+02 -0.21908E+05
 0.23003004E+02 -0.21901E+05
 0.23053005E+02 -0.21891E+05
 0.23103004E+02 -0.21889E+05
 0.23153004E+02 -0.21883E+05
 0.23203005E+02 -0.21885E+05
 0.23253004E+02 -0.21889E+05
 0.23303005E+02 -0.21892E+05
 0.23353004E+02 -0.21892E+05
 0.23403004E+02 -0.21897E+05
 0.23453005E+02 -0.21893E+05
 0.23503004E+02 -0.21904E+05
 0.23553005E+02 -0.21899E+05
 0.23603004E+02 -0.21910E+05
 0.23653004E+02 -0.21903E+05
 0.23703005E+02 -0.21901E+05
 0.23753004E+02 -0.21882E+05
 0.23803005E+02 -0.21867E+05
 0.23853004E+02 -0.21884E+05
 0.23903004E+02 -0.21910E+05
 0.23953005E+02 -0.21939E+05
 0.24003004E+02 -0.21956E+05
 0.24053005E+02 -0.21900E+05
 0.24103004E+02 -0.21867E+05
 0.24153004E+02 -0.21932E+05
 0.24203005E+02 -0.21941E+05
 0.24253004E+02 -0.21897E+05
 0.24303005E+02 -0.21911E+05
 0.24353004E+02 -0.21802E+05
 0.24403004E+02 -0.21861E+05
 0.24453005E+02 -0.21899E+05
 0.24503004E+02 -0.21844E+05
 0.24553005E+02 -0.21726E+05
 0.24603004E+02 -0.21778E+05
 0.24653004E+02 -0.21931E+05
 0.24703005E+02 -0.21981E+05
 0.24753004E+02 -0.21993E+05
 0.24803005E+02 -0.21726E+05
 0.24853004E+02 -0.21708E+05
 0.24903004E+02 -0.21733E+05
 0.24953005E+02 -0.22334E+05
 0.25003004E+02 -0.22073E+05
 0.25053005E+02 -0.21649E+05
 0.25103004E+02 -0.22109E+05
 0.25153004E+02 -0.21982E+05
 0.25203005E+02 -0.21466E+05
 0.25253004E+02 -0.22168E+05
 0.25303005E+02 -0.22123E+05
 0.25353004E+02 -0.21373E+05
 0.25403004E+02 -0.22023E+05
 0.25453005E+02 -0.22068E+05
 0.25503004E+02 -0.21660E+05
 0.25553005E+02 -0.21553E+05
 0.25603004E+02 -0.22152E+05
 0.25653004E+02 -0.22524E+05
 0.25703005E+02 -0.21688E+05
 0.25753004E+02 -0.21988E+05
 0.25803005E+02 -0.22454E+05
 0.25853004E+02 -0.21235E+05
 0.25903004E+02 -0.21787E+05
 0.25953005E+02 -0.22525E+05
 0.26003004E+02 -0.22123E+05
 0.26053005E+02 -0.22194E+05
 0.26103004E+02 -0.21822E+05
 0.26153004E+02 -0.21352E+05
 0.26203005E+02 -0.21722E+05
 0.26253004E+02 -0.22407E+05
 0.26303005E+02 -0.22970E+05
 0.26353004E+02 -0.22765E+05
 0.26403004E+02 -0.22863E+05
 0.26453005E+02 -0.21423E+05
 0.26503004E+02 -0.21137E+05
 0.26553005E+02 -0.23652E+05
 0.26603004E+02 -0.22580E+05
 0.26653004E+02 -0.21194E+05
 0.26703005E+02 -0.21855E+05
 0.26753004E+02 -0.21308E+05
 0.26803005E+02 -0.21225E+05
 0.26853004E+02 -0.21574E+05
 0.26903004E+02 -0.21389E+05
 0.26953005E+02 -0.19806E+05
 0.27003004E+02 -0.19691E+05
 0.27053003E+02 -0.21887E+05
 0.27103004E+02 -0.23010E+05
 0.27153004E+02 -0.20554E+05
 0.27203005E+02 -0.19407E+05
 0.27253004E+02 -0.22634E+05
 0.27303003E+02 -0.22615E+05
 0.27353004E+02 -0.22666E+05
 0.27403004E+02 -0.23882E+05
 0.27453005E+02 -0.23827E+05
 0.27503004E+02 -0.22489E+05
 0.27553003E+02 -0.21991E+05
 0.27603004E+02 -0.22303E+05
 0.27653004E+02 -0.23220E+05
 0.27703005E+02 -0.22366E+05
 0.27753004E+02 -0.19486E+05
 0.27803003E+02 -0.21878E+05
 0.27853004E+02 -0.21109E+05
 0.27903004E+02 -0.19112E+05
 0.27953005E+02 -0.23942E+05
 0.28003004E+02 -0.22642E+05
 0.28053003E+02 -0.20941E+05
 0.28103004E+02 -0.23832E+05
 0.28153004E+02 -0.22239E+05
 0.28203005E+02 -0.18583E+05
 0.28253004E+02 -0.19514E+05
 0.28303003E+02 -0.26730E+05
 0.28353004E+02 -0.24289E+05
 0.28403004E+02 -0.17546E+05
 0.28453005E+02 -0.24015E+05
 0.28503004E+02 -0.21887E+05
 0.28553003E+02 -0.18606E+05
 0.28603004E+02 -0.24791E+05
 0.28653004E+02 -0.22342E+05
 0.28703005E+02 -0.21633E+05
 0.28753004E+02 -0.20849E+05
 0.28803003E+02 -0.24175E+05
 0.28853004E+02 -0.22737E+05
 0.28903004E+02 -0.18731E+05
 0.28953005E+02 -0.25320E+05
 0.29003004E+02 -0.23385E+05
 0.29053003E+02 -0.22209E+05
 0.29103004E+02 -0.23747E+05
 0.29153004E+02 -0.19933E+05
 0.29203005E+02 -0.19615E+05
 0.29253004E+02 -0.21225E+05
 0.29303003E+02 -0.22710E+05
 0.29353004E+02 -0.25132E+05
 0.29403004E+02 -0.20638E+05
 0.29453005E+02 -0.20649E+05
 0.29503004E+02 -0.23228E+05
 0.29553003E+02 -0.18064E+05
 0.29603004E+02 -0.18595E+05
 0.29653004E+02 -0.23730E+05
 0.29703005E+02 -0.21322E+05
 0.29753004E+02 -0.19485E+05
 0.29803003E+02 -0.24144E+05
 0.29853004E+02 -0.25226E+05
 0.29903004E+02 -0.18906E+05
 0.29953005E+02 -0.24940E+05
 0.30003004E+02 -0.26379E+05
 0.30053005E+02 -0.18160E+05
 0.30103004E+02 -0.18435E+05
 0.30153004E+02 -0.20715E+05
 0.30203003E+02 -0.18829E+05
 0.30253002E+02 -0.20775E+05
 0.30303005E+02 -0.26166E+05
 0.30353004E+02 -0.22286E+05
 0.30403004E+02 -0.21386E+05
 0.30453003E+02 -0.25561E+05
 0.30503002E+02 -0.24067E+05
 0.30553005E+02 -0.21545E+05
 0.30603004E+02 -0.20944E+05
 0.30653004E+02 -0.19041E+05
 0.30703003E+02 -0.20914E+05
 0.30753002E+02 -0.22784E+05
 0.30803005E+02 -0.25923E+05
 0.30853004E+02 -0.24431E+05
 0.30903004E+02 -0.19274E+05
 0.30953003E+02 -0.22447E+05
 0.31003002E+02 -0.20608E+05
 0.31053005E+02 -0.16855E+05
 0.31103004E+02 -0.21732E+05
 0.31153004E+02 -0.21651E+05
 0.31203003E+02 -0.22926E+05
 0.31253002E+02 -0.20146E+05
 0.31303005E+02 -0.23715E+05
 0.31353004E+02 -0.24428E+05
 0.31403004E+02 -0.23514E+05
 0.31453003E+02 -0.24027E+05
 0.31503002E+02 -0.21412E+05
 0.31553005E+02 -0.22581E+05
 0.31603004E+02 -0.20827E+05
 0.31653004E+02 -0.21491E+05
 0.31703003E+02 -0.24644E+05
 0.31753002E+02 -0.22866E+05
 0.31803005E+02 -0.20670E+05
 0.31853004E+02 -0.23477E+05
 0.31903004E+02 -0.16804E+05
 0.31953003E+02 -0.19354E+05
 0.32003002E+02 -0.19556E+05
 0.32053005E+02 -0.17382E+05
 0.32103004E+02 -0.19930E+05
 0.32153004E+02 -0.23432E+05
 0.32203003E+02 -0.24913E+05
 0.32253002E+02 -0.22547E+05
 0.32303005E+02 -0.21605E+05
 0.32353004E+02 -0.23008E+05
 0.32403004E+02 -0.23865E+05
 0.32453003E+02 -0.20673E+05
 0.32503002E+02 -0.23376E+05
 0.32553005E+02 -0.23409E+05
 0.32603004E+02 -0.21822E+05
 0.32653004E+02 -0.23969E+05
 0.32703003E+02 -0.26461E+05
 0.32753002E+02 -0.22482E+05
 0.32803005E+02 -0.18546E+05
 0.32853004E+02 -0.24884E+05
 0.32903004E+02 -0.20265E+05
 0.32953003E+02 -0.16087E+05
 0.33003002E+02 -0.25678E+05
 0.33053005E+02 -0.21641E+05
 0.33103004E+02 -0.18136E+05
 0.33153004E+02 -0.24833E+05
 0.33203003E+02 -0.21995E+05
 0.33253002E+02 -0.18909E+05
 0.33303005E+02 -0.22887E+05
 0.33353004E+02 -0.19663E+05
 0.33403004E+02 -0.18155E+05
 0.33453003E+02 -0.24848E+05
 0.33503002E+02 -0.21223E+05
 0.33553005E+02 -0.19659E+05
 0.33603004E+02 -0.22449E+05
 0.33653004E+02 -0.19629E+05
 0.33703003E+02 -0.22005E+05
 0.33753002E+02 -0.24083E+05
 0.33803005E+02 -0.22497E+05
 0.33853004E+02 -0.19176E+05
 0.33903004E+02 -0.22952E+05
 0.33953003E+02 -0.23934E+05
 0.34003002E+02 -0.21541E+05
 0.34053005E+02 -0.26486E+05
 0.34103004E+02 -0.23573E+05
 0.34153004E+02 -0.17975E+05
 0.34203003E+02 -0.23843E+05
 0.34253002E+02 -0.22450E+05
 0.34303005E+02 -0.22062E+05
 0.34353004E+02 -0.26780E+05
 0.34403004E+02 -0.20466E+05
 0.34453003E+02 -0.17657E+05
 0.34503002E+02 -0.22013E+05
 0.34553005E+02 -0.21070E+05
 0.34603004E+02 -0.19299E+05
 0.34653004E+02 -0.25490E+05
 0.34703003E+02 -0.21725E+05
 0.34753002E+02 -0.19952E+05
 0.34803005E+02 -0.24764E+05
 0.34853004E+02 -0.21563E+05
 0.34903004E+02 -0.20349E+05
 0.34953003E+02 -0.21401E+05
 0.35003002E+02 -0.20484E+05
 0.35053005E+02 -0.22554E+05
 0.35103004E+02 -0.22369E+05
 0.35153004E+02 -0.21822E+05
 0.35203003E+02 -0.22913E+05
 0.35253002E+02 -0.20958E+05
 0.35303005E+02 -0.20631E+05
 0.35353004E+02 -0.24027E+05
 0.35403004E+02 -0.25339E+05
 0.35453003E+02 -0.21337E+05
 0.35503002E+02 -0.21539E+05
 0.35553005E+02 -0.22916E+05
 0.35603004E+02 -0.21342E+05
 0.35653004E+02 -0.22202E+05
 0.35703003E+02 -0.23848E+05
 0.35753002E+02 -0.20965E+05
 0.35803005E+02 -0.22162E+05
 0.35853004E+02 -0.22465E+05
 0.35903004E+02 -0.19226E+05
 0.35953003E+02 -0.21092E+05
 0.36003002E+02 -0.19776E+05
 0.36053005E+02 -0.19249E+05
 0.36103004E+02 -0.21049E+05
 0.36153004E+02 -0.20973E+05
 0.36203003E+02 -0.23769E+05
 0.36253002E+02 -0.21279E+05
 0.36303005E+02 -0.20607E+05
 0.36353004E+02 -0.25078E+05
 0.36403004E+02 -0.22084E+05
 0.36453003E+02 -0.21392E+05
 0.36503002E+02 -0.24729E+05
 0.36553005E+02 -0.22260E+05
 0.36603004E+02 -0.23080E+05
 0.36653004E+02 -0.23771E+05
 0.36703003E+02 -0.21233E+05
 0.36753002E+02 -0.22095E+05
 0.36803005E+02 -0.21586E+05
 0.36853004E+02 -0.21366E+05
 0.36903004E+02 -0.22725E+05
 0.36953003E+02 -0.23119E+05
 0.37003002E+02 -0.21340E+05
 0.37053005E+02 -0.21155E+05
 0.37103004E+02 -0.21037E+05
 0.37153004E+02 -0.21606E+05
 0.37203003E+02 -0.20082E+05
 0.37253002E+02 -0.22079E+05
 0.37303005E+02 -0.23097E+05
 0.37353004E+02 -0.20165E+05
 0.37403004E+02 -0.22466E+05
 0.37453003E+02 -0.20614E+05
 0.37503002E+02 -0.21705E+05
 0.37553005E+02 -0.22495E+05
 0.37603004E+02 -0.22138E+05
 0.37653004E+02 -0.24810E+05
 0.37703003E+02 -0.22965E+05
 0.37753002E+02 -0.21334E+05
 0.37803005E+02 -0.21805E+05
 0.37853004E+02 -0.21840E+05
 0.37903004E+02 -0.21067E+05
 0.37953003E+02 -0.21044E+05
 0.38003002E+02 -0.24482E+05
 0.38053005E+02 -0.22835E+05
 0.38103004E+02 -0.20072E+05
 0.38153004E+02 -0.21941E+05
 0.38203003E+02 -0.22239E+05
 0.38253002E+02 -0.21757E+05
 0.38303005E+02 -0.20335E+05
 0.38353004E+02 -0.23664E+05
 0.38403004E+02 -0.22230E+05
 0.38453003E+02 -0.20753E+05
 0.38503002E+02 -0.23749E+05
 0.38553005E+02 -0.20124E+05
 0.38603004E+02 -0.20314E+05
 0.38653004E+02 -0.23135E+05
 0.38703003E+02 -0.21788E+05
 0.38753002E+02 -0.21240E+05
 0.38803005E+02 -0.22568E+05
 0.38853004E+02 -0.23059E+05
 0.38903004E+02 -0.20878E+05
 0.38953003E+02 -0.22205E+05
 0.39003002E+02 -0.22600E+05
 0.39053005E+02 -0.20367E+05
 0.39103004E+02 -0.22604E+05
 0.39153004E+02 -0.21594E+05
 0.39203003E+02 -0.22055E+05
 0.39253002E+02 -0.21714E+05
 0.39303005E+02 -0.21559E+05
 0.39353004E+02 -0.22390E+05
 0.39403004E+02 -0.21496E+05
 0.39453003E+02 -0.20302E+05
 0.39503002E+02 -0.20563E+05
 0.39553005E+02 -0.22576E+05
 0.39603004E+02 -0.21927E+05
 0.39653004E+02 -0.21652E+05
 0.39703003E+02 -0.23860E+05
 0.39753002E+02 -0.23624E+05
 0.39803005E+02 -0.21752E+05
 0.39853004E+02 -0.24250E+05
 0.39903004E+02 -0.22447E+05
 0.39953003E+02 -0.20389E+05
 0.40003002E+02 -0.22467E+05
 0.40053005E+02 -0.20624E+05
 0.40103004E+02 -0.20200E+05
 0.40153004E+02 -0.22891E+05
 0.40203003E+02 -0.22484E+05
 0.40253002E+02 -0.22023E+05
 0.40303005E+02 -0.23853E+05
 0.40353004E+02 -0.21564E+05
 0.40403004E+02 -0.19500E+05
 0.40453003E+02 -0.22074E+05
 0.40503002E+02 -0.20181E+05
 0.40553005E+02 -0.19869E+05
 0.40603004E+02 -0.23152E+05
 0.40653004E+02 -0.22101E+05
 0.40703003E+02 -0.22199E+05
 0.40753002E+02 -0.23706E+05
 0.40803005E+02 -0.20925E+05
 0.40853004E+02 -0.21796E+05
 0.40903004E+02 -0.22507E+05
 0.40953003E+02 -0.21534E+05
 0.41003002E+02 -0.22538E+05
 0.41053005E+02 -0.22250E+05
 0.41103004E+02 -0.21639E+05
 0.41153004E+02 -0.20455E+05
 0.41203003E+02 -0.22376E+05
 0.41253002E+02 -0.22688E+05
 0.41303005E+02 -0.20203E+05
 0.41353004E+02 -0.22155E+05
 0.41403004E+02 -0.22462E+05
 0.41453003E+02 -0.21657E+05
 0.41503002E+02 -0.21237E+05
 0.41553005E+02 -0.21499E+05
 0.41603004E+02 -0.21622E+05
 0.41653004E+02 -0.21195E+05
 0.41703003E+02 -0.22463E+05
 0.41753002E+02 -0.22659E+05
 0.41803005E+02 -0.22357E+05
 0.41853004E+02 -0.22682E+05
 0.41903004E+02 -0.23139E+05
 0.41953003E+02 -0.22071E+05
 0.42003002E+02 -0.21662E+05
 0.42053005E+02 -0.22731E+05
 0.42103004E+02 -0.21102E+05
 0.42153004E+02 -0.20881E+05
 0.42203003E+02 -0.21071E+05
 0.42253002E+02 -0.20975E+05
 0.42303005E+02 -0.21830E+05
 0.42353004E+02 -0.21376E+05
 0.42403004E+02 -0.21877E+05
 0.42453003E+02 -0.21771E+05
 0.42503002E+02 -0.21994E+05
 0.42553005E+02 -0.22369E+05
 0.42603004E+02 -0.22134E+05
 0.42653004E+02 -0.22080E+05
 0.42703003E+02 -0.23549E+05
 0.42753002E+02 -0.22454E+05
 0.42803001E+02 -0.22371E+05
 0.42853004E+02 -0.20069E+05
 0.42903004E+02 -0.21690E+05
 0.42953003E+02 -0.23678E+05
 0.43003002E+02 -0.20983E+05
 0.43053001E+02 -0.21494E+05
 0.43103004E+02 -0.22922E+05
 0.43153004E+02 -0.22208E+05
 0.43203003E+02 -0.20600E+05
 0.43253002E+02 -0.23111E+05
 0.43303001E+02 -0.21330E+05
 0.43353004E+02 -0.20919E+05
 0.43403004E+02 -0.22854E+05
 0.43453003E+02 -0.22003E+05
 0.43503002E+02 -0.19640E+05
 0.43553001E+02 -0.21643E+05
 0.43603004E+02 -0.23705E+05
 0.43653004E+02 -0.19534E+05
 0.43703003E+02 -0.21026E+05
 0.43753002E+02 -0.22503E+05
 0.43803001E+02 -0.20467E+05
 0.43853004E+02 -0.23313E+05
 0.43903004E+02 -0.25126E+05
 0.43953003E+02 -0.23178E+05
 0.44003002E+02 -0.23166E+05
 0.44053001E+02 -0.22796E+05
 0.44103004E+02 -0.20886E+05
 0.44153004E+02 -0.19950E+05
 0.44203003E+02 -0.22150E+05
 0.44253002E+02 -0.22732E+05
 0.44303001E+02 -0.21741E+05
 0.44353004E+02 -0.22218E+05
 0.44403004E+02 -0.21208E+05
 0.44453003E+02 -0.20579E+05
 0.44503002E+02 -0.19534E+05
 0.44553001E+02 -0.21291E+05
 0.44603004E+02 -0.22829E+05
 0.44653004E+02 -0.21343E+05
 0.44703003E+02 -0.22328E+05
 0.44753002E+02 -0.24472E+05
 0.44803001E+02 -0.24978E+05
 0.44853004E+02 -0.24527E+05
 0.44903004E+02 -0.23534E+05
 0.44953003E+02 -0.21325E+05
 0.45003002E+02 -0.18864E+05
 0.45053001E+02 -0.19796E+05
 0.45103004E+02 -0.21984E+05
 0.45153004E+02 -0.21095E+05
 0.45203003E+02 -0.22009E+05
 0.45253002E+02 -0.22221E+05
 0.45303001E+02 -0.21170E+05
 0.45353004E+02 -0.22141E+05
 0.45403004E+02 -0.20116E+05
 0.45453003E+02 -0.17546E+05
 0.45503002E+02 -0.20492E+05
 0.45553001E+02 -0.20934E+05
 0.45603004E+02 -0.20460E+05
 0.45653004E+02 -0.21790E+05
 0.45703003E+02 -0.25912E+05
 0.45753002E+02 -0.27785E+05
 0.45803001E+02 -0.24227E+05
 0.45853004E+02 -0.23363E+05
 0.45903004E+02 -0.20297E+05
 0.45953003E+02 -0.19910E+05
 0.46003002E+02 -0.19840E+05
 0.46053001E+02 -0.20537E+05
 0.46103004E+02 -0.20486E+05
 0.46153004E+02 -0.20655E+05
 0.46203003E+02 -0.24532E+05
 0.46253002E+02 -0.24259E+05
 0.46303001E+02 -0.24047E+05
 0.46353004E+02 -0.23614E+05
 0.46403004E+02 -0.20895E+05
 0.46453003E+02 -0.21413E+05
 0.46503002E+02 -0.22231E+05
 0.46553001E+02 -0.20529E+05
 0.46603004E+02 -0.23657E+05
 0.46653004E+02 -0.24025E+05
 0.46703003E+02 -0.20018E+05
 0.46753002E+02 -0.20654E+05
 0.46803001E+02 -0.22666E+05
 0.46853004E+02 -0.21735E+05
 0.46903004E+02 -0.18797E+05
 0.46953003E+02 -0.21571E+05
 0.47003002E+02 -0.24948E+05
 0.47053001E+02 -0.21878E+05
 0.47103004E+02 -0.20583E+05
 0.47153004E+02 -0.20597E+05
 0.47203003E+02 -0.20426E+05
 0.47253002E+02 -0.20946E+05
 0.47303001E+02 -0.24189E+05
 0.47353004E+02 -0.23525E+05
 0.47403004E+02 -0.18700E+05
 0.47453003E+02 -0.22651E+05
 0.47503002E+02 -0.22786E+05
 0.47553001E+02 -0.23181E+05
 0.47603004E+02 -0.20887E+05
 0.47653004E+02 -0.18187E+05
 0.47703003E+02 -0.20597E+05
 0.47753002E+02 -0.21730E+05
 0.47803001E+02 -0.22573E+05
 0.47853004E+02 -0.20885E+05
 0.47903004E+02 -0.23026E+05
 0.47953003E+02 -0.22894E+05
 0.48003002E+02 -0.23620E+05
 0.48053001E+02 -0.27299E+05
 0.48103004E+02 -0.22872E+05
 0.48153004E+02 -0.19999E+05
 0.48203003E+02 -0.22583E+05
 0.48253002E+02 -0.22564E+05
 0.48303001E+02 -0.22816E+05
 0.48353004E+02 -0.19657E+05
 0.48403004E+02 -0.19193E+05
 0.48453003E+02 -0.20813E+05
 0.48503002E+02 -0.22025E+05
 0.48553001E+02 -0.20751E+05
 0.48603004E+02 -0.22275E+05
 0.48653004E+02 -0.23013E+05
 0.48703003E+02 -0.23008E+05
 0.48753002E+02 -0.25980E+05
 0.48803001E+02 -0.20695E+05
 0.48853004E+02 -0.19958E+05
 0.48903004E+02 -0.20071E+05
 0.48953003E+02 -0.19808E+05
 0.49003002E+02 -0.21354E+05
 0.49053001E+02 -0.20928E+05
 0.49103004E+02 -0.25203E+05
 0.49153004E+02 -0.25284E+05
 0.49203003E+02 -0.23150E+05
 0.49253002E+02 -0.24190E+05
 0.49303001E+02 -0.21504E+05
 0.49353004E+02 -0.19965E+05
 0.49403004E+02 -0.21066E+05
 0.49453003E+02 -0.19663E+05
 0.49503002E+02 -0.19335E+05
 0.49553001E+02 -0.22664E+05
 0.49603004E+02 -0.21737E+05
 0.49653004E+02 -0.20657E+05
 0.49703003E+02 -0.22789E+05
 0.49753002E+02 -0.21269E+05
 0.49803001E+02 -0.21881E+05
 0.49853004E+02 -0.24426E+05
 0.49903004E+02 -0.22105E+05
 0.49953003E+02 -0.20255E+05
 0.50003002E+02 -0.20591E+05
 0.50053001E+02 -0.23503E+05
 0.50103004E+02 -0.22427E+05
 0.50153004E+02 -0.20979E+05
 0.50203003E+02 -0.23832E+05
 0.50253002E+02 -0.21676E+05
 0.50303001E+02 -0.22293E+05
 0.50353004E+02 -0.22903E+05
 0.50403004E+02 -0.22127E+05
 0.50453003E+02 -0.21308E+05
 0.50503002E+02 -0.20187E+05
 0.50553001E+02 -0.20460E+05
 0.50603004E+02 -0.18907E+05
 0.50653004E+02 -0.22786E+05
 0.50703003E+02 -0.23642E+05
 0.50753002E+02 -0.23577E+05
 0.50803001E+02 -0.23673E+05
 0.50853004E+02 -0.20211E+05
 0.50903004E+02 -0.21969E+05
 0.50953003E+02 -0.21283E+05
 0.51003002E+02 -0.22395E+05
 0.51053001E+02 -0.23426E+05
 0.51103004E+02 -0.21074E+05
 0.51153004E+02 -0.22483E+05
 0.51203003E+02 -0.24087E+05
 0.51253002E+02 -0.21899E+05
 0.51303001E+02 -0.20835E+05
 0.51353004E+02 -0.21906E+05
 0.51403004E+02 -0.19022E+05
 0.51453003E+02 -0.19627E+05
 0.51503002E+02 -0.24944E+05
 0.51553001E+02 -0.23558E+05
 0.51603004E+02 -0.22567E+05
 0.51653004E+02 -0.22552E+05
 0.51703003E+02 -0.21370E+05
 0.51753002E+02 -0.21003E+05
 0.51803001E+02 -0.20526E+05
 0.51853004E+02 -0.21845E+05
 0.51903004E+02 -0.22644E+05
 0.51953003E+02 -0.23071E+05
 0.52003002E+02 -0.22636E+05
 0.52053001E+02 -0.21937E+05
 0.52103004E+02 -0.22338E+05
 0.52153004E+02 -0.22547E+05
 0.52203003E+02 -0.19776E+05
 0.52253002E+02 -0.20224E+05
 0.52303001E+02 -0.19870E+05
 0.52353004E+02 -0.19989E+05
 0.52403004E+02 -0.21479E+05
 0.52453003E+02 -0.22002E+05
 0.52503002E+02 -0.22936E+05
 0.52553001E+02 -0.21702E+05
 0.52603004E+02 -0.23671E+05
 0.52653004E+02 -0.23885E+05
 0.52703003E+02 -0.20996E+05
 0.52753002E+02 -0.21186E+05
 0.52803001E+02 -0.22948E+05
 0.52853004E+02 -0.22257E+05
 0.52903004E+02 -0.21419E+05
 0.52953003E+02 -0.22846E+05
 0.53003002E+02 -0.22349E+05
 0.53053001E+02 -0.20072E+05
 0.53103004E+02 -0.20262E+05
 0.53153004E+02 -0.19879E+05
 0.53203003E+02 -0.21676E+05
 0.53253002E+02 -0.23714E+05
 0.53303001E+02 -0.20555E+05
 0.53353004E+02 -0.21724E+05
 0.53403004E+02 -0.22467E+05
 0.53453003E+02 -0.20509E+05
 0.53503002E+02 -0.21839E+05
 0.53553001E+02 -0.22695E+05
 0.53603004E+02 -0.22402E+05
 0.53653004E+02 -0.22650E+05
 0.53703003E+02 -0.22358E+05
 0.53753002E+02 -0.22764E+05
 0.53803001E+02 -0.22960E+05
 0.53853004E+02 -0.21131E+05
 0.53903004E+02 -0.21800E+05
 0.53953003E+02 -0.22160E+05
 0.54003002E+02 -0.22018E+05
 0.54053001E+02 -0.22824E+05
 0.54103004E+02 -0.22531E+05
 0.54153004E+02 -0.21996E+05
 0.54203003E+02 -0.21373E+05
 0.54253002E+02 -0.20766E+05
 0.54303001E+02 -0.21685E+05
 0.54353004E+02 -0.21703E+05
 0.54403004E+02 -0.22230E+05
 0.54453003E+02 -0.22457E+05
 0.54503002E+02 -0.21799E+05
 0.54553001E+02 -0.21876E+05
 0.54603004E+02 -0.22206E+05
 0.54653004E+02 -0.22482E+05
 0.54703003E+02 -0.21876E+05
 0.54753002E+02 -0.22437E+05
 0.54803001E+02 -0.21677E+05
 0.54853004E+02 -0.21345E+05
 0.54903004E+02 -0.21888E+05
 0.54953003E+02 -0.20730E+05
 0.55003002E+02 -0.21870E+05
 0.55053001E+02 -0.21597E+05
 0.55103004E+02 -0.20116E+05
 0.55153004E+02 -0.22099E+05
 0.55203003E+02 -0.21097E+05
 0.55253002E+02 -0.21307E+05
 0.55303001E+02 -0.22495E+05
 0.55353004E+02 -0.22414E+05
 0.55403004E+02 -0.22209E+05
 0.55453003E+02 -0.21689E+05
 0.55503002E+02 -0.23212E+05
 0.55553001E+02 -0.22413E+05
 0.55603004E+02 -0.21621E+05
 0.55653004E+02 -0.23505E+05
 0.55703003E+02 -0.22825E+05
 0.55753002E+02 -0.22548E+05
 0.55803001E+02 -0.23164E+05
 0.55853001E+02 -0.22216E+05
 0.55903004E+02 -0.22171E+05
 0.55953003E+02 -0.22048E+05
 0.56003002E+02 -0.21526E+05
 0.56053001E+02 -0.20614E+05
 0.56103001E+02 -0.20949E+05
 0.56153004E+02 -0.22090E+05
 0.56203003E+02 -0.21624E+05
 0.56253002E+02 -0.21479E+05
 0.56303001E+02 -0.22113E+05
 0.56353001E+02 -0.23382E+05
 0.56403004E+02 -0.22001E+05
 0.56453003E+02 -0.21891E+05
 0.56503002E+02 -0.23200E+05
 0.56553001E+02 -0.21184E+05
 0.56603001E+02 -0.21776E+05
 0.56653004E+02 -0.22863E+05
 0.56703003E+02 -0.22198E+05
 0.56753002E+02 -0.21837E+05
 0.56803001E+02 -0.21907E+05
 0.56853001E+02 -0.21157E+05
 0.56903004E+02 -0.21285E+05
 0.56953003E+02 -0.21916E+05
 0.57003002E+02 -0.21214E+05
 0.57053001E+02 -0.21241E+05
 0.57103001E+02 -0.21026E+05
 0.57153004E+02 -0.20558E+05
 0.57203003E+02 -0.20763E+05
 0.57253002E+02 -0.21562E+05
 0.57303001E+02 -0.22188E+05
 0.57353001E+02 -0.21689E+05
 0.57403004E+02 -0.22902E+05
 0.57453003E+02 -0.23144E+05
 0.57503002E+02 -0.21856E+05
 0.57553001E+02 -0.22153E+05
 0.57603001E+02 -0.21435E+05
 0.57653004E+02 -0.21510E+05
 0.57703003E+02 -0.22046E+05
 0.57753002E+02 -0.22099E+05
 0.57803001E+02 -0.22284E+05
 0.57853001E+02 -0.22133E+05
 0.57903004E+02 -0.22663E+05
 0.57953003E+02 -0.21960E+05
 0.58003002E+02 -0.21626E+05
 0.58053001E+02 -0.22784E+05
 0.58103001E+02 -0.22895E+05
 0.58153004E+02 -0.22222E+05
 0.58203003E+02 -0.22868E+05
 0.58253002E+02 -0.22182E+05
 0.58303001E+02 -0.20161E+05
 0.58353001E+02 -0.21736E+05
 0.58403004E+02 -0.22414E+05
 0.58453003E+02 -0.21733E+05
 0.58503002E+02 -0.22699E+05
 0.58553001E+02 -0.23073E+05
 0.58603001E+02 -0.22955E+05
 0.58653004E+02 -0.23577E+05
 0.58703003E+02 -0.23650E+05
 0.58753002E+02 -0.22600E+05
 0.58803001E+02 -0.22479E+05
 0.58853001E+02 -0.21324E+05
 0.58903004E+02 -0.20921E+05
 0.58953003E+02 -0.20676E+05
 0.59003002E+02 -0.19670E+05
 0.59053001E+02 -0.20029E+05
 0.59103001E+02 -0.20721E+05
 0.59153004E+02 -0.21747E+05
 0.59203003E+02 -0.22802E+05
 0.59253002E+02 -0.22622E+05
 0.59303001E+02 -0.22113E+05
 0.59353001E+02 -0.22218E+05
 0.59403004E+02 -0.21901E+05
 0.59453003E+02 -0.21895E+05
 0.59503002E+02 -0.21895E+05
 0.59553001E+02 -0.21319E+05
 0.59603001E+02 -0.20936E+05
 0.59653004E+02 -0.21426E+05
 0.59703003E+02 -0.21896E+05
 0.59753002E+02 -0.22567E+05
 0.59803001E+02 -0.23147E+05
 0.59853001E+02 -0.23095E+05
 0.59903004E+02 -0.22074E+05
 0.59953003E+02 -0.21885E+05
 0.60003002E+02 -0.21720E+05
 0.60053001E+02 -0.21397E+05
 0.60103001E+02 -0.22218E+05
 0.60153004E+02 -0.21807E+05
 0.60203003E+02 -0.22012E+05
 0.60253002E+02 -0.22683E+05
 0.60303001E+02 -0.22032E+05
 0.60353001E+02 -0.22277E+05
 0.60403004E+02 -0.21758E+05
 0.60453003E+02 -0.21153E+05
 0.60503002E+02 -0.21466E+05
 0.60553001E+02 -0.20982E+05
 0.60603001E+02 -0.20844E+05
 0.60653004E+02 -0.20290E+05
 0.60703003E+02 -0.20382E+05
 0.60753002E+02 -0.21196E+05
 0.60803001E+02 -0.21196E+05
 0.60853001E+02 -0.21831E+05
 0.60903004E+02 -0.22935E+05
 0.60953003E+02 -0.23171E+05
 0.61003002E+02 -0.22612E+05
 0.61053001E+02 -0.22584E+05
 0.61103001E+02 -0.22440E+05
 0.61153004E+02 -0.21258E+05
 0.61203003E+02 -0.20917E+05
 0.61253002E+02 -0.21431E+05
 0.61303001E+02 -0.21860E+05
 0.61353001E+02 -0.21800E+05
 0.61403004E+02 -0.21701E+05
 0.61453003E+02 -0.22048E+05
 0.61503002E+02 -0.22147E+05
 0.61553001E+02 -0.21837E+05
 0.61603001E+02 -0.22341E+05
 0.61653004E+02 -0.22559E+05
 0.61703003E+02 -0.22587E+05
 0.61753002E+02 -0.22169E+05
 0.61803001E+02 -0.21745E+05
 0.61853001E+02 -0.21858E+05
 0.61903004E+02 -0.21963E+05
 0.61953003E+02 -0.22204E+05
 0.62003002E+02 -0.22001E+05
 0.62053001E+02 -0.21998E+05
 0.62103004E+02 -0.21924E+05
 0.62153000E+02 -0.21210E+05
 0.62203003E+02 -0.21362E+05
 0.62252998E+02 -0.21251E+05
 0.62303001E+02 -0.20592E+05
 0.62353004E+02 -0.21259E+05
 0.62403000E+02 -0.21616E+05
 0.62453003E+02 -0.22096E+05
 0.62502998E+02 -0.22069E+05
 0.62553001E+02 -0.21799E+05
 0.62603004E+02 -0.21998E+05
 0.62653000E+02 -0.22094E+05
 0.62703003E+02 -0.22000E+05
 0.62752998E+02 -0.21654E+05
 0.62803001E+02 -0.21753E+05
 0.62853004E+02 -0.21551E+05
 0.62903000E+02 -0.21422E+05
 0.62953003E+02 -0.21988E+05
 0.63002998E+02 -0.22097E+05
 0.63053001E+02 -0.22144E+05
 0.63103004E+02 -0.22317E+05
 0.63153000E+02 -0.22732E+05
 0.63203003E+02 -0.22339E+05
 0.63252998E+02 -0.22163E+05
 0.63303001E+02 -0.22072E+05
 0.63353004E+02 -0.21476E+05
 0.63403000E+02 -0.21689E+05
 0.63453003E+02 -0.21401E+05
 0.63502998E+02 -0.21179E+05
 0.63553001E+02 -0.21954E+05
 0.63603004E+02 -0.22337E+05
 0.63653000E+02 -0.21839E+05
 0.63703003E+02 -0.21953E+05
 0.63752998E+02 -0.22032E+05
 0.63803001E+02 -0.21804E+05
 0.63853004E+02 -0.21965E+05
 0.63903000E+02 -0.22159E+05
 0.63953003E+02 -0.21785E+05
 0.64002998E+02 -0.21874E+05
 0.64053001E+02 -0.22265E+05
 0.64103004E+02 -0.21910E+05
 0.64153000E+02 -0.21976E+05
 0.64203003E+02 -0.22009E+05
 0.64252998E+02 -0.21778E+05
 0.64303001E+02 -0.21819E+05
 0.64353004E+02 -0.22132E+05
 0.64403000E+02 -0.21891E+05
 0.64453003E+02 -0.21876E+05
 0.64502998E+02 -0.22277E+05
 0.64553001E+02 -0.21959E+05
 0.64603004E+02 -0.22011E+05
 0.64653000E+02 -0.22392E+05
 0.64703003E+02 -0.22661E+05
 0.64752998E+02 -0.21970E+05
 0.64803001E+02 -0.21618E+05
 0.64853004E+02 -0.22085E+05
 0.64903000E+02 -0.21978E+05
 0.64953003E+02 -0.21916E+05
 0.65002998E+02 -0.22286E+05
 0.65053001E+02 -0.22353E+05
 0.65103004E+02 -0.22370E+05
 0.65153000E+02 -0.22466E+05
 0.65203003E+02 -0.22225E+05
 0.65252998E+02 -0.21692E+05
 0.65303001E+02 -0.21523E+05
 0.65353004E+02 -0.21818E+05
 0.65403000E+02 -0.21875E+05
 0.65453003E+02 -0.22151E+05
 0.65502998E+02 -0.21995E+05
 0.65553001E+02 -0.21366E+05
 0.65603004E+02 -0.21284E+05
 0.65653000E+02 -0.21293E+05
 0.65703003E+02 -0.20988E+05
 0.65752998E+02 -0.20947E+05
 0.65803001E+02 -0.21175E+05
 0.65853004E+02 -0.21483E+05
 0.65903000E+02 -0.21335E+05
 0.65953003E+02 -0.21488E+05
 0.66002998E+02 -0.21714E+05
 0.66053001E+02 -0.21980E+05
 0.66103004E+02 -0.22493E+05
 0.66153000E+02 -0.22866E+05
 0.66203003E+02 -0.23152E+05
 0.66252998E+02 -0.22970E+05
 0.66303001E+02 -0.22762E+05
 0.66353004E+02 -0.22330E+05
 0.66403000E+02 -0.22054E+05
 0.66453003E+02 -0.22062E+05
 0.66502998E+02 -0.21642E+05
 0.66553001E+02 -0.21583E+05
 0.66603004E+02 -0.21807E+05
 0.66653000E+02 -0.21558E+05
 0.66703003E+02 -0.21898E+05
 0.66752998E+02 -0.21991E+05
 0.66803001E+02 -0.21565E+05
 0.66853004E+02 -0.21842E+05
 0.66903000E+02 -0.21992E+05
 0.66953003E+02 -0.21795E+05
 0.67002998E+02 -0.21618E+05
 0.67053001E+02 -0.21679E+05
 0.67103004E+02 -0.21445E+05
 0.67153000E+02 -0.21188E+05
 0.67203003E+02 -0.21076E+05
 0.67252998E+02 -0.20722E+05
 0.67303001E+02 -0.21163E+05
 0.67353004E+02 -0.21484E+05
 0.67403000E+02 -0.21586E+05
 0.67453003E+02 -0.21968E+05
 0.67502998E+02 -0.22219E+05
 0.67553001E+02 -0.22125E+05
 0.67603004E+02 -0.22225E+05
 0.67653000E+02 -0.22643E+05
 0.67703003E+02 -0.22604E+05
 0.67752998E+02 -0.22477E+05
 0.67803001E+02 -0.22202E+05
 0.67853004E+02 -0.21655E+05
 0.67903000E+02 -0.21314E+05
 0.67953003E+02 -0.20980E+05
 0.68002998E+02 -0.20687E+05
 0.68053001E+02 -0.20921E+05
 0.68103004E+02 -0.21418E+05
 0.68153000E+02 -0.21879E+05
 0.68203003E+02 -0.22055E+05
 0.68252998E+02 -0.22113E+05
 0.68303001E+02 -0.22145E+05
 0.68353004E+02 -0.22329E+05
 0.68403000E+02 -0.22563E+05
 0.68453003E+02 -0.22447E+05
 0.68502998E+02 -0.22511E+05
 0.68553001E+02 -0.22523E+05
 0.68603004E+02 -0.22617E+05
 0.68653000E+02 -0.22441E+05
 0.68703003E+02 -0.22243E+05
 0.68752998E+02 -0.22170E+05
 0.68803001E+02 -0.22074E+05
 0.68853004E+02 -0.22447E+05
 0.68903000E+02 -0.22266E+05
 0.68953003E+02 -0.22133E+05
 0.69002998E+02 -0.22243E+05
 0.69053001E+02 -0.22075E+05
 0.69103004E+02 -0.22035E+05
 0.69153000E+02 -0.22033E+05
 0.69203003E+02 -0.21952E+05
 0.69252998E+02 -0.22243E+05
 0.69303001E+02 -0.22101E+05
 0.69353004E+02 -0.22068E+05
 0.69403000E+02 -0.22176E+05
 0.69453003E+02 -0.21999E+05
 0.69502998E+02 -0.22253E+05
 0.69553001E+02 -0.22482E+05
 0.69603004E+02 -0.22101E+05
 0.69653000E+02 -0.21654E+05
 0.69703003E+02 -0.21544E+05
 0.69752998E+02 -0.21198E+05
 0.69803001E+02 -0.21190E+05
 0.69853004E+02 -0.21455E+05
 0.69903000E+02 -0.21358E+05
 0.69953003E+02 -0.21185E+05
 0.70002998E+02 -0.21217E+05
 0.70053001E+02 -0.21225E+05
 0.70103004E+02 -0.21207E+05
 0.70153000E+02 -0.21322E+05
 0.70203003E+02 -0.21299E+05
 0.70252998E+02 -0.21322E+05
 0.70303001E+02 -0.21847E+05
 0.70353004E+02 -0.22184E+05
 0.70403000E+02 -0.22440E+05
 0.70453003E+02 -0.23023E+05
 0.70502998E+02 -0.22939E+05
 0.70553001E+02 -0.22571E+05
 0.70603004E+02 -0.22533E+05
 0.70653000E+02 -0.22125E+05
 0.70703003E+02 -0.22093E+05
 0.70752998E+02 -0.22077E+05
 0.70803001E+02 -0.21805E+05
 0.70853004E+02 -0.21799E+05
 0.70903000E+02 -0.21509E+05
 0.70953003E+02 -0.21077E+05
 0.71002998E+02 -0.21251E+05
 0.71053001E+02 -0.21791E+05
 0.71103004E+02 -0.22029E+05
 0.71153000E+02 -0.22023E+05
 0.71203003E+02 -0.22078E+05
 0.71252998E+02 -0.22047E+05
 0.71303001E+02 -0.21812E+05
 0.71353004E+02 -0.22017E+05
 0.71403000E+02 -0.22118E+05
 0.71453003E+02 -0.21924E+05
 0.71502998E+02 -0.22023E+05
 0.71553001E+02 -0.22070E+05
 0.71603004E+02 -0.21693E+05
 0.71653000E+02 -0.21519E+05
 0.71703003E+02 -0.21568E+05
 0.71752998E+02 -0.21453E+05
 0.71803001E+02 -0.21739E+05
 0.71853004E+02 -0.21927E+05
 0.71903000E+02 -0.21733E+05
 0.71953003E+02 -0.21550E+05
 0.72002998E+02 -0.21512E+05
 0.72053001E+02 -0.21698E+05
 0.72103004E+02 -0.21688E+05
 0.72153000E+02 -0.22114E+05
 0.72203003E+02 -0.22320E+05
 0.72252998E+02 -0.21854E+05
 0.72303001E+02 -0.22135E+05
 0.72353004E+02 -0.22321E+05
 0.72403000E+02 -0.22214E+05
 0.72453003E+02 -0.22159E+05
 0.72502998E+02 -0.21936E+05
 0.72553001E+02 -0.22129E+05
 0.72603004E+02 -0.22252E+05
 0.72653000E+02 -0.22294E+05
 0.72703003E+02 -0.22229E+05
 0.72752998E+02 -0.22102E+05
 0.72803001E+02 -0.22087E+05
 0.72853004E+02 -0.21960E+05
 0.72903000E+02 -0.21731E+05
 0.72953003E+02 -0.21529E+05
 0.73002998E+02 -0.21374E+05
 0.73053001E+02 -0.21242E+05
 0.73103004E+02 -0.21211E+05
 0.73153000E+02 -0.21521E+05
 0.73203003E+02 -0.21751E+05
 0.73252998E+02 -0.21993E+05
 0.73303001E+02 -0.22498E+05
 0.73353004E+02 -0.22546E+05
 0.73403000E+02 -0.22673E+05
 0.73453003E+02 -0.22519E+05
 0.73502998E+02 -0.22319E+05
 0.73553001E+02 -0.22343E+05
 0.73603004E+02 -0.22142E+05
 0.73653000E+02 -0.22243E+05
 0.73703003E+02 -0.22104E+05
 0.73752998E+02 -0.21693E+05
 0.73803001E+02 -0.21720E+05
 0.73853004E+02 -0.21865E+05
 0.73903000E+02 -0.21993E+05
 0.73953003E+02 -0.22043E+05
 0.74002998E+02 -0.21957E+05
 0.74053001E+02 -0.21854E+05
 0.74103004E+02 -0.21687E+05
 0.74153000E+02 -0.21754E+05
 0.74203003E+02 -0.21836E+05
 0.74252998E+02 -0.22002E+05
 0.74303001E+02 -0.21922E+05
 0.74353004E+02 -0.21683E+05
 0.74403000E+02 -0.21803E+05
 0.74453003E+02 -0.21787E+05
 0.74502998E+02 -0.21809E+05
 0.74553001E+02 -0.22075E+05
 0.74603004E+02 -0.22124E+05
 0.74653000E+02 -0.22006E+05
 0.74703003E+02 -0.22113E+05
 0.74752998E+02 -0.22070E+05
 0.74803001E+02 -0.21968E+05
 0.74853004E+02 -0.21939E+05
 0.74903000E+02 -0.21742E+05
 0.74953003E+02 -0.21696E+05
 0.75002998E+02 -0.21601E+05
 0.75053001E+02 -0.21366E+05
 0.75103004E+02 -0.21370E+05
 0.75153000E+02 -0.21272E+05
 0.75203003E+02 -0.21183E+05
 0.75252998E+02 -0.21369E+05
 0.75303001E+02 -0.21632E+05
 0.75353004E+02 -0.21895E+05
 0.75403000E+02 -0.21969E+05
 0.75453003E+02 -0.21941E+05
 0.75502998E+02 -0.21948E+05
 0.75553001E+02 -0.21739E+05
 0.75603004E+02 -0.22002E+05
 0.75653000E+02 -0.22083E+05
 0.75703003E+02 -0.21883E+05
 0.75752998E+02 -0.22020E+05
 0.75803001E+02 -0.22019E+05
 0.75853004E+02 -0.22138E+05
 0.75903000E+02 -0.22005E+05
 0.75953003E+02 -0.21810E+05
 0.76002998E+02 -0.21722E+05
 0.76053001E+02 -0.21515E+05
 0.76103004E+02 -0.21355E+05
 0.76153000E+02 -0.21470E+05
 0.76203003E+02 -0.21769E+05
 0.76252998E+02 -0.21929E+05
 0.76303001E+02 -0.22083E+05
 0.76353004E+02 -0.22323E+05
 0.76403000E+02 -0.22276E+05
 0.76453003E+02 -0.22370E+05
 0.76502998E+02 -0.22490E+05
 0.76553001E+02 -0.22517E+05
 0.76603004E+02 -0.22461E+05
 0.76653000E+02 -0.22138E+05
 0.76703003E+02 -0.21873E+05
 0.76752998E+02 -0.21538E+05
 0.76803001E+02 -0.21474E+05
 0.76853004E+02 -0.21427E+05
 0.76903000E+02 -0.21318E+05
 0.76953003E+02 -0.21554E+05
 0.77002998E+02 -0.21586E+05
 0.77053001E+02 -0.21537E+05
 0.77103004E+02 -0.21875E+05
 0.77153000E+02 -0.22023E+05
 0.77203003E+02 -0.22289E+05
 0.77252998E+02 -0.22518E+05
 0.77303001E+02 -0.22374E+05
 0.77353004E+02 -0.22298E+05
 0.77403000E+02 -0.22084E+05
 0.77453003E+02 -0.21904E+05
 0.77502998E+02 -0.21932E+05
 0.77553001E+02 -0.22005E+05
 0.77603004E+02 -0.21878E+05
 0.77653000E+02 -0.21861E+05
 0.77703003E+02 -0.21942E+05
 0.77752998E+02 -0.21968E+05
 0.77803001E+02 -0.22097E+05
 0.77853004E+02 -0.22087E+05
 0.77903000E+02 -0.21923E+05
 0.77953003E+02 -0.21929E+05
 0.78002998E+02 -0.21800E+05
 0.78053001E+02 -0.21657E+05
 0.78103004E+02 -0.21881E+05
 0.78153000E+02 -0.21908E+05
 0.78203003E+02 -0.22006E+05
 0.78252998E+02 -0.22144E+05
 0.78303001E+02 -0.21941E+05
 0.78353004E+02 -0.21805E+05
 0.78403000E+02 -0.21963E+05
 0.78453003E+02 -0.21972E+05
 0.78502998E+02 -0.21811E+05
 0.78553001E+02 -0.21734E+05
 0.78603004E+02 -0.21609E+05
 0.78653000E+02 -0.21602E+05
 0.78703003E+02 -0.21571E+05
 0.78752998E+02 -0.21523E+05
 0.78803001E+02 -0.21790E+05
 0.78853004E+02 -0.22019E+05
 0.78903000E+02 -0.21936E+05
 0.78953003E+02 -0.21953E+05
 0.79002998E+02 -0.21962E+05
 0.79053001E+02 -0.21890E+05
 0.79103004E+02 -0.21762E+05
 0.79153000E+02 -0.21652E+05
 0.79203003E+02 -0.21632E+05
 0.79252998E+02 -0.21618E+05
 0.79303001E+02 -0.21766E+05
 0.79353004E+02 -0.21970E+05
 0.79403000E+02 -0.22212E+05
 0.79453003E+02 -0.22276E+05
 0.79502998E+02 -0.22326E+05
 0.79553001E+02 -0.22299E+05
 0.79603004E+02 -0.22250E+05
 0.79653000E+02 -0.22135E+05
 0.79703003E+02 -0.21941E+05
 0.79752998E+02 -0.21981E+05
 0.79803001E+02 -0.21832E+05
 0.79853004E+02 -0.21697E+05
 0.79903000E+02 -0.21758E+05
 0.79953003E+02 -0.21774E+05
 0.80002998E+02 -0.21921E+05
 0.80053001E+02 -0.21939E+05
 0.80103004E+02 -0.21659E+05
 0.80153000E+02 -0.21560E+05
 0.80203003E+02 -0.21562E+05
 0.80252998E+02 -0.21608E+05
 0.80303001E+02 -0.21838E+05
 0.80353004E+02 -0.22036E+05
 0.80403000E+02 -0.21968E+05
 0.80453003E+02 -0.21956E+05
 0.80502998E+02 -0.21922E+05
 0.80553001E+02 -0.21910E+05
 0.80603004E+02 -0.21965E+05
 0.80653000E+02 -0.21872E+05
 0.80703003E+02 -0.21934E+05
 0.80752998E+02 -0.22039E+05
 0.80803001E+02 -0.21956E+05
 0.80853004E+02 -0.22123E+05
 0.80903000E+02 -0.22039E+05
 0.80953003E+02 -0.21802E+05
 0.81002998E+02 -0.21778E+05
 0.81053001E+02 -0.21635E+05
 0.81103004E+02 -0.21628E+05
 0.81153000E+02 -0.21754E+05
 0.81203003E+02 -0.21998E+05
 0.81252998E+02 -0.22061E+05
 0.81303001E+02 -0.22057E+05
 0.81353004E+02 -0.22175E+05
 0.81403000E+02 -0.22086E+05
 0.81453003E+02 -0.21918E+05
 0.81502998E+02 -0.21931E+05
 0.81553001E+02 -0.21945E+05
 0.81603004E+02 -0.21934E+05
 0.81653000E+02 -0.22017E+05
 0.81703003E+02 -0.21884E+05
 0.81752998E+02 -0.21633E+05
 0.81803001E+02 -0.21896E+05
 0.81853004E+02 -0.22014E+05
 0.81903000E+02 -0.22067E+05
 0.81953003E+02 -0.22238E+05
 0.82002998E+02 -0.22222E+05
 0.82053001E+02 -0.22178E+05
 0.82103004E+02 -0.22182E+05
 0.82153000E+02 -0.22163E+05
 0.82203003E+02 -0.21957E+05
 0.82252998E+02 -0.21778E+05
 0.82303001E+02 -0.21638E+05
 0.82353004E+02 -0.21610E+05
 0.82403000E+02 -0.21449E+05
 0.82453003E+02 -0.21519E+05
 0.82502998E+02 -0.21698E+05
 0.82553001E+02 -0.21627E+05
 0.82603004E+02 -0.21763E+05
 0.82653000E+02 -0.21939E+05
 0.82703003E+02 -0.22166E+05
 0.82752998E+02 -0.22171E+05
 0.82803001E+02 -0.22162E+05
 0.82853004E+02 -0.22212E+05
 0.82903000E+02 -0.22102E+05
 0.82953003E+02 -0.21975E+05
 0.83002998E+02 -0.21788E+05
 0.83053001E+02 -0.21614E+05
 0.83103004E+02 -0.21510E+05
 0.83153000E+02 -0.21452E+05
 0.83203003E+02 -0.21277E+05
 0.83252998E+02 -0.21309E+05
 0.83303001E+02 -0.21327E+05
 0.83353004E+02 -0.21398E+05
 0.83403000E+02 -0.21652E+05
 0.83453003E+02 -0.21926E+05
 0.83502998E+02 -0.22290E+05
 0.83553001E+02 -0.22427E+05
 0.83603004E+02 -0.22388E+05
 0.83653000E+02 -0.22236E+05
 0.83703003E+02 -0.22050E+05
 0.83752998E+02 -0.21883E+05
 0.83803001E+02 -0.21727E+05
 0.83853004E+02 -0.21846E+05
 0.83903000E+02 -0.21965E+05
 0.83953003E+02 -0.21981E+05
 0.84002998E+02 -0.22143E+05
 0.84053001E+02 -0.22208E+05
 0.84103004E+02 -0.22201E+05
 0.84153000E+02 -0.22156E+05
 0.84203003E+02 -0.22160E+05
 0.84252998E+02 -0.22031E+05
 0.84303001E+02 -0.21896E+05
 0.84353004E+02 -0.21900E+05
 0.84403000E+02 -0.21769E+05
 0.84453003E+02 -0.21807E+05
 0.84502998E+02 -0.21844E+05
 0.84553001E+02 -0.21813E+05
 0.84603004E+02 -0.21842E+05
 0.84653000E+02 -0.21815E+05
 0.84703003E+02 -0.21845E+05
 0.84752998E+02 -0.21913E+05
 0.84803001E+02 -0.21994E+05
 0.84853004E+02 -0.22065E+05
 0.84903000E+02 -0.22030E+05
 0.84953003E+02 -0.22075E+05
 0.85002998E+02 -0.21956E+05
 0.85053001E+02 -0.21965E+05
 0.85103004E+02 -0.21943E+05
 0.85153000E+02 -0.21785E+05
 0.85203003E+02 -0.21793E+05
 0.85252998E+02 -0.21772E+05
 0.85303001E+02 -0.21703E+05
 0.85353004E+02 -0.21572E+05
 0.85403000E+02 -0.21595E+05
 0.85453003E+02 -0.21620E+05
 0.85502998E+02 -0.21713E+05
 0.85553001E+02 -0.21816E+05
 0.85603004E+02 -0.21861E+05
 0.85653000E+02 -0.21931E+05
 0.85703003E+02 -0.22024E+05
 0.85752998E+02 -0.22112E+05
 0.85803001E+02 -0.22093E+05
 0.85853004E+02 -0.22079E+05
 0.85903000E+02 -0.22196E+05
 0.85953003E+02 -0.22201E+05
 0.86002998E+02 -0.22164E+05
 0.86053001E+02 -0.22095E+05
 0.86103004E+02 -0.21965E+05
 0.86153000E+02 -0.21875E+05
 0.86203003E+02 -0.21782E+05
 0.86252998E+02 -0.21725E+05
 0.86303001E+02 -0.21697E+05
 0.86353004E+02 -0.21889E+05
 0.86403000E+02 -0.22023E+05
 0.86453003E+02 -0.21980E+05
 0.86502998E+02 -0.22102E+05
 0.86553001E+02 -0.22023E+05
 0.86603004E+02 -0.21755E+05
 0.86653000E+02 -0.21858E+05
 0.86703003E+02 -0.21846E+05
 0.86752998E+02 -0.21721E+05
 0.86803001E+02 -0.21803E+05
 0.86853004E+02 -0.21816E+05
 0.86903000E+02 -0.21959E+05
 0.86953003E+02 -0.22075E+05
 0.87002998E+02 -0.22010E+05
 0.87053001E+02 -0.22027E+05
 0.87103004E+02 -0.22122E+05
 0.87153000E+02 -0.22033E+05
 0.87203003E+02 -0.21906E+05
 0.87252998E+02 -0.21956E+05
 0.87303001E+02 -0.22043E+05
 0.87353004E+02 -0.22019E+05
 0.87403000E+02 -0.22030E+05
 0.87453003E+02 -0.22064E+05
 0.87502998E+02 -0.21940E+05
 0.87553001E+02 -0.21842E+05
 0.87602997E+02 -0.21722E+05
 0.87653000E+02 -0.21617E+05
 0.87703003E+02 -0.21504E+05
 0.87752998E+02 -0.21445E+05
 0.87803001E+02 -0.21517E+05
 0.87852997E+02 -0.21618E+05
 0.87903000E+02 -0.21729E+05
 0.87953003E+02 -0.21760E+05
 0.88002998E+02 -0.21808E+05
 0.88053001E+02 -0.21869E+05
 0.88102997E+02 -0.21796E+05
 0.88153000E+02 -0.21820E+05
 0.88203003E+02 -0.21896E+05
 0.88252998E+02 -0.21815E+05
 0.88303001E+02 -0.21722E+05
 0.88352997E+02 -0.21724E+05
 0.88403000E+02 -0.21666E+05
 0.88453003E+02 -0.21808E+05
 0.88502998E+02 -0.22096E+05
 0.88553001E+02 -0.22154E+05
 0.88602997E+02 -0.22207E+05
 0.88653000E+02 -0.22306E+05
 0.88703003E+02 -0.22258E+05
 0.88752998E+02 -0.22187E+05
 0.88803001E+02 -0.22143E+05
 0.88852997E+02 -0.22127E+05
 0.88903000E+02 -0.22078E+05
 0.88953003E+02 -0.21976E+05
 0.89002998E+02 -0.21955E+05
 0.89053001E+02 -0.21896E+05
 0.89102997E+02 -0.21862E+05
 0.89153000E+02 -0.21898E+05
 0.89203003E+02 -0.21916E+05
 0.89252998E+02 -0.21957E+05
 0.89303001E+02 -0.22089E+05
 0.89352997E+02 -0.22026E+05
 0.89403000E+02 -0.21915E+05
 0.89453003E+02 -0.21810E+05
 0.89502998E+02 -0.21774E+05
 0.89553001E+02 -0.21898E+05
 0.89602997E+02 -0.21915E+05
 0.89653000E+02 -0.21951E+05
 0.89703003E+02 -0.21880E+05
 0.89752998E+02 -0.21692E+05
 0.89803001E+02 -0.21581E+05
 0.89852997E+02 -0.21541E+05
 0.89903000E+02 -0.21539E+05
 0.89953003E+02 -0.21663E+05
 0.90002998E+02 -0.21621E+05
 0.90053001E+02 -0.21575E+05
 0.90102997E+02 -0.21651E+05
 0.90153000E+02 -0.21652E+05
 0.90203003E+02 -0.21863E+05
 0.90252998E+02 -0.22020E+05
 0.90303001E+02 -0.22181E+05
 0.90352997E+02 -0.22288E+05
 0.90403000E+02 -0.22206E+05
 0.90453003E+02 -0.22163E+05
 0.90502998E+02 -0.22078E+05
 0.90553001E+02 -0.21996E+05
 0.90602997E+02 -0.21967E+05
 0.90653000E+02 -0.22026E+05
 0.90703003E+02 -0.22103E+05
 0.90752998E+02 -0.22126E+05
 0.90803001E+02 -0.22196E+05
 0.90852997E+02 -0.22179E+05
 0.90903000E+02 -0.22033E+05
 0.90953003E+02 -0.21929E+05
 0.91002998E+02 -0.21926E+05
 0.91053001E+02 -0.21939E+05
 0.91102997E+02 -0.21833E+05
 0.91153000E+02 -0.21740E+05
 0.91203003E+02 -0.21687E+05
 0.91252998E+02 -0.21626E+05
 0.91303001E+02 -0.21562E+05
 0.91352997E+02 -0.21589E+05
 0.91403000E+02 -0.21696E+05
 0.91453003E+02 -0.21772E+05
 0.91502998E+02 -0.21809E+05
 0.91553001E+02 -0.21809E+05
 0.91602997E+02 -0.21837E+05
 0.91653000E+02 -0.21948E+05
 0.91703003E+02 -0.21948E+05
 0.91752998E+02 -0.21931E+05
 0.91803001E+02 -0.21905E+05
 0.91852997E+02 -0.21777E+05
 0.91903000E+02 -0.21712E+05
 0.91953003E+02 -0.21745E+05
 0.92002998E+02 -0.21844E+05
 0.92053001E+02 -0.21912E+05
 0.92102997E+02 -0.22001E+05
 0.92153000E+02 -0.22090E+05
 0.92203003E+02 -0.22043E+05
 0.92252998E+02 -0.22075E+05
 0.92303001E+02 -0.22111E+05
 0.92352997E+02 -0.22016E+05
 0.92403000E+02 -0.22124E+05
 0.92453003E+02 -0.22146E+05
 0.92502998E+02 -0.22109E+05
 0.92553001E+02 -0.22148E+05
 0.92602997E+02 -0.22206E+05
 0.92653000E+02 -0.22228E+05
 0.92703003E+02 -0.22139E+05
 0.92752998E+02 -0.22112E+05
 0.92803001E+02 -0.22038E+05
 0.92852997E+02 -0.21961E+05
 0.92903000E+02 -0.21914E+05
 0.92953003E+02 -0.21755E+05
 0.93002998E+02 -0.21704E+05
 0.93053001E+02 -0.21678E+05
 0.93102997E+02 -0.21498E+05
 0.93153000E+02 -0.21428E+05
 0.93203003E+02 -0.21492E+05
 0.93252998E+02 -0.21673E+05
 0.93303001E+02 -0.21926E+05
 0.93352997E+02 -0.21982E+05
 0.93403000E+02 -0.21910E+05
 0.93453003E+02 -0.21881E+05
 0.93502998E+02 -0.21860E+05
 0.93553001E+02 -0.21835E+05
 0.93602997E+02 -0.21839E+05
 0.93653000E+02 -0.21907E+05
 0.93703003E+02 -0.21943E+05
 0.93752998E+02 -0.22001E+05
 0.93803001E+02 -0.21992E+05
 0.93852997E+02 -0.21896E+05
 0.93903000E+02 -0.21886E+05
 0.93953003E+02 -0.21860E+05
 0.94002998E+02 -0.21735E+05
 0.94053001E+02 -0.21704E+05
 0.94102997E+02 -0.21746E+05
 0.94153000E+02 -0.21744E+05
 0.94203003E+02 -0.21805E+05
 0.94252998E+02 -0.21827E+05
 0.94303001E+02 -0.21821E+05
 0.94352997E+02 -0.21795E+05
 0.94403000E+02 -0.21783E+05
 0.94453003E+02 -0.21835E+05
 0.94502998E+02 -0.21895E+05
 0.94553001E+02 -0.22090E+05
 0.94602997E+02 -0.22229E+05
 0.94653000E+02 -0.22263E+05
 0.94703003E+02 -0.22207E+05
 0.94752998E+02 -0.22082E+05
 0.94803001E+02 -0.22074E+05
 0.94852997E+02 -0.22027E+05
 0.94903000E+02 -0.22049E+05
 0.94953003E+02 -0.22105E+05
 0.95002998E+02 -0.22033E+05
 0.95053001E+02 -0.22085E+05
 0.95102997E+02 -0.22079E+05
 0.95153000E+02 -0.22017E+05
 0.95203003E+02 -0.21995E+05
 0.95252998E+02 -0.21954E+05
 0.95303001E+02 -0.21940E+05
 0.95352997E+02 -0.21856E+05
 0.95403000E+02 -0.21806E+05
 0.95453003E+02 -0.21636E+05
 0.95502998E+02 -0.21478E+05
 0.95553001E+02 -0.21454E+05
 0.95602997E+02 -0.21494E+05
 0.95653000E+02 -0.21683E+05
 0.95703003E+02 -0.21833E+05
 0.95752998E+02 -0.21901E+05
 0.95803001E+02 -0.21894E+05
 0.95852997E+02 -0.21931E+05
 0.95903000E+02 -0.21904E+05
 0.95953003E+02 -0.21714E+05
 0.96002998E+02 -0.21597E+05
 0.96053001E+02 -0.21535E+05
 0.96102997E+02 -0.21573E+05
 0.96153000E+02 -0.21704E+05
 0.96203003E+02 -0.21800E+05
 0.96252998E+02 -0.21842E+05
 0.96303001E+02 -0.21888E+05
 0.96352997E+02 -0.21960E+05
 0.96403000E+02 -0.22026E+05
 0.96453003E+02 -0.22074E+05
 0.96502998E+02 -0.22142E+05
 0.96553001E+02 -0.22152E+05
 0.96602997E+02 -0.22190E+05
 0.96653000E+02 -0.22168E+05
 0.96703003E+02 -0.22099E+05
 0.96752998E+02 -0.22091E+05
 0.96803001E+02 -0.22041E+05
 0.96852997E+02 -0.22015E+05
 0.96903000E+02 -0.22014E+05
 0.96953003E+02 -0.22006E+05
 0.97002998E+02 -0.21871E+05
 0.97053001E+02 -0.21801E+05
 0.97102997E+02 -0.21678E+05
 0.97153000E+02 -0.21595E+05
 0.97203003E+02 -0.21604E+05
 0.97252998E+02 -0.21675E+05
 0.97303001E+02 -0.21815E+05
 0.97352997E+02 -0.21916E+05
 0.97403000E+02 -0.21994E+05
 0.97453003E+02 -0.22005E+05
 0.97502998E+02 -0.22039E+05
 0.97553001E+02 -0.22029E+05
 0.97602997E+02 -0.22079E+05
 0.97653000E+02 -0.22179E+05
 0.97703003E+02 -0.22213E+05
 0.97752998E+02 -0.22185E+05
 0.97803001E+02 -0.22208E+05
 0.97852997E+02 -0.22150E+05
 0.97903000E+02 -0.21991E+05
 0.97953003E+02 -0.21859E+05
 0.98002998E+02 -0.21717E+05
