-0.20000000E+01  0.51222E+04
-0.19500000E+01  0.33692E+04
-0.19000000E+01  0.21869E+04
-0.18500000E+01  0.10285E+04
-0.18000000E+01 -0.10523E+03
-0.17500000E+01 -0.15516E+04
-0.17000000E+01 -0.33928E+04
-0.16500001E+01 -0.53870E+04
-0.16000000E+01 -0.73654E+04
-0.15500000E+01 -0.91972E+04
-0.15000000E+01 -0.10657E+05
-0.14500000E+01 -0.11518E+05
-0.14000001E+01 -0.11857E+05
-0.13500000E+01 -0.11859E+05
-0.13000001E+01 -0.11651E+05
-0.12500000E+01 -0.11310E+05
-0.12000000E+01 -0.10882E+05
-0.11500001E+01 -0.10619E+05
-0.11000000E+01 -0.10558E+05
-0.10500001E+01 -0.10620E+05
-0.10000000E+01 -0.10682E+05
-0.95000005E+00 -0.10616E+05
-0.90000010E+00 -0.10405E+05
-0.85000002E+00 -0.10010E+05
-0.80000007E+00 -0.94694E+04
-0.75000012E+00 -0.87863E+04
-0.70000005E+00 -0.79493E+04
-0.65000010E+00 -0.70277E+04
-0.60000014E+00 -0.62194E+04
-0.55000007E+00 -0.55286E+04
-0.50000012E+00 -0.50610E+04
-0.45000005E+00 -0.49844E+04
-0.40000010E+00 -0.52753E+04
-0.35000014E+00 -0.59804E+04
-0.30000007E+00 -0.71066E+04
-0.25000012E+00 -0.87315E+04
-0.20000005E+00 -0.10689E+05
-0.15000010E+00 -0.12759E+05
-0.10000014E+00 -0.14941E+05
-0.50000072E-01 -0.17146E+05
-0.11920929E-06 -0.19216E+05
 0.49999952E-01 -0.20964E+05
 0.99999905E-01 -0.22218E+05
 0.14999986E+00 -0.22877E+05
 0.19999981E+00 -0.22915E+05
 0.24999976E+00 -0.22448E+05
 0.29999995E+00 -0.21600E+05
 0.34999990E+00 -0.20303E+05
 0.39999986E+00 -0.18622E+05
 0.44999981E+00 -0.16541E+05
 0.49999976E+00 -0.14188E+05
 0.54999995E+00 -0.11754E+05
 0.59999990E+00 -0.91880E+04
 0.64999986E+00 -0.66009E+04
 0.69999981E+00 -0.40762E+04
 0.74999976E+00 -0.18211E+04
 0.79999971E+00  0.11751E+03
 0.84999990E+00  0.18042E+04
 0.89999986E+00  0.32364E+04
 0.94999981E+00  0.46054E+04
 0.99999976E+00  0.60217E+04
 0.10499997E+01  0.75050E+04
 0.10999999E+01  0.89400E+04
 0.11499999E+01  0.10258E+05
 0.11999998E+01  0.11543E+05
 0.12499998E+01  0.12896E+05
 0.12999997E+01  0.14311E+05
 0.13499999E+01  0.15654E+05
 0.13999999E+01  0.16671E+05
 0.14499998E+01  0.17318E+05
 0.14999998E+01  0.17509E+05
 0.15499997E+01  0.17224E+05
 0.15999999E+01  0.16575E+05
 0.16499999E+01  0.15781E+05
 0.16999998E+01  0.15037E+05
 0.17499998E+01  0.14314E+05
 0.17999997E+01  0.13774E+05
 0.18499997E+01  0.13601E+05
 0.18999999E+01  0.13899E+05
 0.19499998E+01  0.14538E+05
 0.19999998E+01  0.15654E+05
 0.20499997E+01  0.17298E+05
 0.20999999E+01  0.19232E+05
 0.21499996E+01  0.21057E+05
 0.21999998E+01  0.22566E+05
 0.22499995E+01  0.23878E+05
 0.22999997E+01  0.24862E+05
 0.23499999E+01  0.25324E+05
 0.23999996E+01  0.25101E+05
 0.24499998E+01  0.24358E+05
 0.24999995E+01  0.23336E+05
 0.25499997E+01  0.22116E+05
 0.25999999E+01  0.20666E+05
 0.26499996E+01  0.18988E+05
 0.26999998E+01  0.17128E+05
 0.27499995E+01  0.15077E+05
 0.27999997E+01  0.12867E+05
 0.28499999E+01  0.10411E+05
 0.28999996E+01  0.77542E+04
 0.29499998E+01  0.50775E+04
 0.29999995E+01  0.26222E+04
 0.30499997E+01  0.41343E+03
 0.30999999E+01 -0.17172E+04
 0.31499996E+01 -0.38448E+04
 0.31999998E+01 -0.59890E+04
 0.32499995E+01 -0.82389E+04
 0.32999997E+01 -0.10681E+05
 0.33499999E+01 -0.13224E+05
 0.33999996E+01 -0.15806E+05
 0.34499998E+01 -0.18374E+05
 0.34999995E+01 -0.20906E+05
 0.35499997E+01 -0.23235E+05
 0.35999994E+01 -0.25276E+05
 0.36499996E+01 -0.26993E+05
 0.36999998E+01 -0.28419E+05
 0.37499995E+01 -0.29620E+05
 0.37999997E+01 -0.30466E+05
 0.38499994E+01 -0.30959E+05
 0.38999996E+01 -0.30984E+05
 0.39499998E+01 -0.30363E+05
 0.39999995E+01 -0.29087E+05
 0.40499997E+01 -0.27237E+05
 0.40999994E+01 -0.24815E+05
 0.41499996E+01 -0.21797E+05
 0.41999998E+01 -0.18189E+05
 0.42499995E+01 -0.14441E+05
 0.42999997E+01 -0.10913E+05
 0.43499994E+01 -0.75758E+04
 0.43999996E+01 -0.43847E+04
 0.44499998E+01 -0.13601E+04
 0.44999995E+01  0.13794E+04
 0.45499997E+01  0.38723E+04
 0.45999994E+01  0.61158E+04
 0.46499996E+01  0.79309E+04
 0.46999998E+01  0.90783E+04
 0.47499995E+01  0.96747E+04
 0.47999997E+01  0.99098E+04
 0.48499994E+01  0.97185E+04
 0.48999996E+01  0.90434E+04
 0.49499998E+01  0.79488E+04
 0.49999995E+01  0.64764E+04
 0.50499997E+01  0.47379E+04
 0.50999994E+01  0.29329E+04
 0.51499996E+01  0.11667E+04
 0.51999998E+01 -0.61956E+03
 0.52499995E+01 -0.24212E+04
 0.52999997E+01 -0.41265E+04
 0.53499994E+01 -0.55022E+04
 0.53999996E+01 -0.63673E+04
 0.54499993E+01 -0.70446E+04
 0.54999995E+01 -0.78945E+04
 0.55499997E+01 -0.90451E+04
 0.55999994E+01 -0.10402E+05
 0.56499996E+01 -0.11732E+05
 0.56999993E+01 -0.12908E+05
 0.57499995E+01 -0.14056E+05
 0.57999997E+01 -0.15291E+05
 0.58499994E+01 -0.16446E+05
 0.58999996E+01 -0.17320E+05
 0.59499993E+01 -0.17680E+05
 0.59999995E+01 -0.17471E+05
 0.60499992E+01 -0.16627E+05
 0.60999994E+01 -0.15149E+05
 0.61499996E+01 -0.13449E+05
 0.61999998E+01 -0.11618E+05
 0.62499990E+01 -0.95766E+04
 0.62999992E+01 -0.73864E+04
 0.63499994E+01 -0.52311E+04
 0.63999996E+01 -0.31616E+04
 0.64499998E+01 -0.10200E+04
 0.64999990E+01  0.11851E+04
 0.65499992E+01  0.34105E+04
 0.65999994E+01  0.56599E+04
 0.66499996E+01  0.78983E+04
 0.66999998E+01  0.10234E+05
 0.67499990E+01  0.12774E+05
 0.67999992E+01  0.15498E+05
 0.68499994E+01  0.18372E+05
 0.68999996E+01  0.21132E+05
 0.69499998E+01  0.23698E+05
 0.69999990E+01  0.26133E+05
 0.70499992E+01  0.28443E+05
 0.70999994E+01  0.30501E+05
 0.71499996E+01  0.32102E+05
 0.71999998E+01  0.33113E+05
 0.72499990E+01  0.33401E+05
 0.72999992E+01  0.33008E+05
 0.73499994E+01  0.32077E+05
 0.73999996E+01  0.30715E+05
 0.74499998E+01  0.28985E+05
 0.74999990E+01  0.26990E+05
 0.75499992E+01  0.24941E+05
 0.75999994E+01  0.23049E+05
 0.76499996E+01  0.21270E+05
 0.76999998E+01  0.19545E+05
 0.77499990E+01  0.18060E+05
 0.77999992E+01  0.16735E+05
 0.78499994E+01  0.15346E+05
 0.78999996E+01  0.13848E+05
 0.79499998E+01  0.12249E+05
 0.79999990E+01  0.10558E+05
 0.80499992E+01  0.85875E+04
 0.80999994E+01  0.62716E+04
 0.81499996E+01  0.37740E+04
 0.81999998E+01  0.13680E+04
 0.82499990E+01 -0.71130E+03
 0.82999992E+01 -0.24358E+04
 0.83499994E+01 -0.38719E+04
 0.83999996E+01 -0.50939E+04
 0.84499998E+01 -0.62046E+04
 0.84999990E+01 -0.71295E+04
 0.85499992E+01 -0.78491E+04
 0.85999994E+01 -0.83785E+04
 0.86499996E+01 -0.87349E+04
 0.86999998E+01 -0.91688E+04
 0.87499990E+01 -0.98030E+04
 0.87999992E+01 -0.10549E+05
 0.88499994E+01 -0.11209E+05
 0.88999996E+01 -0.11754E+05
 0.89499998E+01 -0.12168E+05
 0.89999990E+01 -0.12471E+05
 0.90499992E+01 -0.12636E+05
 0.90999994E+01 -0.12533E+05
 0.91499996E+01 -0.12195E+05
 0.91999989E+01 -0.11578E+05
 0.92499990E+01 -0.10631E+05
 0.92999992E+01 -0.94928E+04
 0.93499994E+01 -0.81382E+04
 0.93999996E+01 -0.64582E+04
 0.94499989E+01 -0.45446E+04
 0.94999990E+01 -0.25370E+04
 0.95499992E+01 -0.46780E+03
 0.95999994E+01  0.18090E+04
 0.96499996E+01  0.41533E+04
 0.96999989E+01  0.63430E+04
 0.97499990E+01  0.82619E+04
 0.97999992E+01  0.96446E+04
 0.98499994E+01  0.10514E+05
 0.98999996E+01  0.10925E+05
 0.99499989E+01  0.10930E+05
 0.99999990E+01  0.10517E+05
 0.10049999E+02  0.97096E+04
 0.10099999E+02  0.87011E+04
 0.10150000E+02  0.75088E+04
 0.10199999E+02  0.61739E+04
 0.10249999E+02  0.46840E+04
 0.10299999E+02  0.30277E+04
 0.10349999E+02  0.12466E+04
 0.10400000E+02 -0.53402E+03
 0.10449999E+02 -0.21974E+04
 0.10499999E+02 -0.37458E+04
 0.10549999E+02 -0.51737E+04
 0.10599999E+02 -0.63102E+04
 0.10650000E+02 -0.71333E+04
 0.10699999E+02 -0.77300E+04
 0.10749999E+02 -0.79848E+04
 0.10799999E+02 -0.78767E+04
 0.10849999E+02 -0.75407E+04
 0.10900000E+02 -0.71474E+04
 0.10949999E+02 -0.65984E+04
 0.10999999E+02 -0.58758E+04
 0.11049999E+02 -0.50024E+04
 0.11099999E+02 -0.38886E+04
 0.11150000E+02 -0.26331E+04
 0.11199999E+02 -0.13566E+04
 0.11249999E+02 -0.76162E+02
 0.11299999E+02  0.12768E+04
 0.11349999E+02  0.25666E+04
 0.11400000E+02  0.35596E+04
 0.11449999E+02  0.41378E+04
 0.11499999E+02  0.43770E+04
 0.11549999E+02  0.42684E+04
 0.11599999E+02  0.37331E+04
 0.11650000E+02  0.28285E+04
 0.11699999E+02  0.15732E+04
 0.11749999E+02 -0.51420E+02
 0.11799999E+02 -0.19984E+04
 0.11849999E+02 -0.41349E+04
 0.11900000E+02 -0.62793E+04
 0.11949999E+02 -0.83137E+04
 0.11999999E+02 -0.10254E+05
 0.12049999E+02 -0.11868E+05
 0.12099999E+02 -0.13135E+05
 0.12150000E+02 -0.14021E+05
 0.12199999E+02 -0.14470E+05
 0.12249999E+02 -0.14615E+05
 0.12299999E+02 -0.14512E+05
 0.12349999E+02 -0.14312E+05
 0.12400000E+02 -0.13974E+05
 0.12449999E+02 -0.13516E+05
 0.12499999E+02 -0.12906E+05
 0.12549999E+02 -0.12193E+05
 0.12599999E+02 -0.11373E+05
 0.12649999E+02 -0.10367E+05
 0.12699999E+02 -0.93040E+04
 0.12749999E+02 -0.82794E+04
 0.12799999E+02 -0.72496E+04
 0.12849999E+02 -0.62327E+04
 0.12899999E+02 -0.54704E+04
 0.12949999E+02 -0.48401E+04
 0.12999999E+02 -0.42386E+04
 0.13049999E+02 -0.36112E+04
 0.13099999E+02 -0.29124E+04
 0.13149999E+02 -0.21806E+04
 0.13199999E+02 -0.13410E+04
 0.13249999E+02 -0.34950E+03
 0.13299999E+02  0.84155E+03
 0.13349999E+02  0.22518E+04
 0.13399999E+02  0.38955E+04
 0.13449999E+02  0.56024E+04
 0.13499999E+02  0.73253E+04
 0.13549999E+02  0.89182E+04
 0.13599999E+02  0.10287E+05
 0.13649999E+02  0.11473E+05
 0.13699999E+02  0.12651E+05
 0.13749999E+02  0.14034E+05
 0.13799999E+02  0.15458E+05
 0.13849999E+02  0.16766E+05
 0.13899999E+02  0.18012E+05
 0.13949999E+02  0.19445E+05
 0.13999999E+02  0.20924E+05
 0.14049999E+02  0.22268E+05
 0.14099998E+02  0.23512E+05
 0.14150000E+02  0.24625E+05
 0.14199999E+02  0.25549E+05
 0.14249998E+02  0.26046E+05
 0.14299999E+02  0.26061E+05
 0.14349998E+02  0.25619E+05
 0.14400000E+02  0.24623E+05
 0.14449999E+02  0.22999E+05
 0.14499998E+02  0.20804E+05
 0.14549999E+02  0.18068E+05
 0.14599998E+02  0.14693E+05
 0.14650000E+02  0.10624E+05
 0.14699999E+02  0.60472E+04
 0.14749998E+02  0.12890E+04
 0.14799999E+02 -0.34393E+04
 0.14849998E+02 -0.79897E+04
 0.14900000E+02 -0.12265E+05
 0.14949999E+02 -0.16173E+05
 0.14999998E+02 -0.19517E+05
 0.15049999E+02 -0.22187E+05
 0.15099998E+02 -0.24214E+05
 0.15150000E+02 -0.25562E+05
 0.15199999E+02 -0.26226E+05
 0.15249998E+02 -0.26025E+05
 0.15299999E+02 -0.25027E+05
 0.15349998E+02 -0.23232E+05
 0.15400000E+02 -0.20395E+05
 0.15449999E+02 -0.16214E+05
 0.15499998E+02 -0.11017E+05
 0.15549999E+02 -0.58730E+04
 0.15599998E+02 -0.12806E+04
 0.15650000E+02  0.29390E+04
 0.15699999E+02  0.73122E+04
 0.15749998E+02  0.12478E+05
 0.15799999E+02  0.18514E+05
 0.15849998E+02  0.23748E+05
 0.15900000E+02  0.29628E+05
 0.15949999E+02  0.37722E+05
 0.15999998E+02  0.44708E+05
 0.16049999E+02  0.46455E+05
 0.16099998E+02  0.45343E+05
 0.16150000E+02  0.51044E+05
 0.16199999E+02  0.65992E+05
 0.16249998E+02  0.86503E+05
 0.16299999E+02  0.10687E+06
 0.16349998E+02  0.11851E+06
 0.16400000E+02  0.11136E+06
 0.16449999E+02  0.81589E+05
 0.16499998E+02  0.49874E+05
 0.16549999E+02  0.16262E+05
 0.16599998E+02 -0.51693E+04
 0.16650000E+02  0.88687E+04
 0.16699999E+02  0.63774E+05
 0.16749998E+02  0.13445E+06
 0.16799999E+02  0.18737E+06
 0.16849998E+02  0.21319E+06
 0.16900000E+02  0.22034E+06
 0.16949999E+02  0.19059E+06
 0.16999998E+02  0.13486E+06
 0.17049999E+02  0.92795E+05
 0.17099998E+02  0.41840E+05
 0.17150000E+02  0.48938E+04
 0.17199999E+02 -0.74798E+05
 0.17249998E+02 -0.16333E+06
 0.17299999E+02 -0.27249E+06
 0.17349998E+02 -0.38775E+06
 0.17400000E+02 -0.46997E+06
 0.17449999E+02 -0.49963E+06
 0.17499998E+02 -0.46190E+06
 0.17549999E+02 -0.43214E+06
 0.17599998E+02 -0.33364E+06
 0.17650000E+02 -0.24499E+06
 0.17699999E+02 -0.15146E+06
 0.17749998E+02 -0.51709E+05
 0.17799999E+02  0.79109E+05
 0.17849998E+02  0.18677E+06
 0.17900000E+02  0.29183E+06
 0.17949999E+02  0.35871E+06
 0.17999998E+02  0.23723E+06
 0.18049999E+02  0.19560E+06
 0.18099998E+02  0.92290E+05
 0.18150000E+02  0.56672E+05
 0.18199999E+02  0.36293E+05
 0.18249998E+02  0.41612E+04
 0.18299999E+02  0.17671E+06
 0.18349998E+02  0.18332E+06
 0.18400000E+02  0.15300E+06
 0.18449999E+02  0.12443E+06
 0.18499998E+02  0.17523E+06
 0.18549999E+02  0.21336E+06
 0.18599998E+02  0.15325E+06
 0.18650000E+02  0.76153E+05
 0.18699999E+02 -0.15613E+06
 0.18749998E+02 -0.25861E+06
 0.18799999E+02 -0.39924E+06
 0.18849998E+02 -0.52847E+06
 0.18900000E+02 -0.47655E+06
 0.18949999E+02 -0.41177E+06
 0.18999998E+02 -0.35010E+06
 0.19049999E+02 -0.25090E+06
 0.19099998E+02 -0.11176E+06
 0.19150000E+02  0.48092E+04
 0.19199999E+02  0.15493E+06
 0.19249998E+02  0.22771E+06
 0.19299999E+02  0.28325E+06
 0.19349998E+02  0.31629E+06
 0.19400000E+02  0.27827E+06
 0.19449999E+02  0.35302E+06
 0.19499998E+02  0.35778E+06
 0.19549999E+02  0.25456E+06
 0.19599998E+02  0.16405E+06
 0.19650000E+02  0.14753E+06
 0.19699999E+02  0.19801E+06
 0.19749998E+02  0.11029E+06
 0.19799999E+02 -0.50111E+05
 0.19849998E+02 -0.26829E+06
 0.19900000E+02 -0.23264E+06
 0.19949999E+02 -0.17198E+06
 0.19999998E+02 -0.21463E+06
 0.20049999E+02 -0.16079E+06
 0.20099998E+02 -0.13473E+06
 0.20150000E+02  0.76066E+04
 0.20199999E+02 -0.10693E+06
 0.20249998E+02 -0.17982E+06
 0.20299999E+02 -0.16937E+06
 0.20349998E+02 -0.10152E+06
 0.20399998E+02 -0.64249E+05
 0.20449999E+02 -0.75827E+05
 0.20499998E+02  0.80244E+05
 0.20549999E+02  0.15333E+05
 0.20599998E+02 -0.76613E+05
 0.20649998E+02 -0.28579E+05
 0.20699999E+02  0.11102E+06
 0.20749998E+02  0.15891E+06
 0.20799999E+02  0.16113E+06
 0.20849998E+02  0.85831E+05
 0.20899998E+02  0.55547E+05
 0.20949999E+02  0.10811E+06
 0.20999998E+02  0.39898E+04
 0.21049999E+02 -0.93146E+05
 0.21099998E+02 -0.16803E+06
 0.21149998E+02 -0.13673E+06
 0.21199999E+02 -0.76291E+04
 0.21249998E+02 -0.70694E+05
 0.21299999E+02 -0.28028E+06
 0.21349998E+02 -0.34026E+06
 0.21399998E+02 -0.15008E+06
 0.21449999E+02 -0.79783E+05
 0.21499998E+02 -0.14952E+06
 0.21549999E+02 -0.37456E+05
 0.21599998E+02  0.18959E+06
 0.21649998E+02  0.25425E+06
 0.21699999E+02  0.15792E+06
 0.21749998E+02  0.13987E+06
 0.21799999E+02  0.11869E+06
 0.21849998E+02  0.22408E+06
 0.21899998E+02  0.23114E+06
 0.21949999E+02  0.18931E+06
 0.21999998E+02  0.21640E+06
 0.22049999E+02  0.17255E+06
 0.22099998E+02  0.27627E+06
 0.22149998E+02  0.31259E+06
 0.22199999E+02  0.28470E+06
 0.22249998E+02  0.19791E+06
 0.22299999E+02  0.15496E+06
 0.22349998E+02  0.88411E+05
 0.22399998E+02 -0.12066E+05
 0.22449999E+02 -0.16895E+06
 0.22499998E+02 -0.29206E+06
 0.22549999E+02 -0.21791E+06
 0.22599998E+02 -0.22505E+06
 0.22649998E+02 -0.19955E+06
 0.22699999E+02 -0.20274E+06
 0.22749998E+02 -0.27157E+06
 0.22799999E+02 -0.30364E+06
 0.22849998E+02 -0.34674E+06
 0.22899998E+02 -0.35094E+06
 0.22949999E+02 -0.22183E+06
 0.22999998E+02 -0.38325E+05
 0.23049999E+02  0.21673E+05
 0.23099998E+02  0.18754E+06
 0.23149998E+02  0.23618E+06
 0.23199999E+02  0.66966E+05
 0.23249998E+02  0.10857E+06
 0.23299999E+02  0.16052E+06
 0.23349998E+02  0.18955E+06
 0.23399998E+02  0.19048E+06
 0.23449999E+02  0.26119E+06
 0.23499998E+02  0.31950E+06
 0.23549999E+02  0.20130E+06
 0.23599998E+02  0.13112E+06
 0.23649998E+02  0.20917E+06
 0.23699999E+02  0.41260E+06
 0.23749998E+02  0.46137E+06
 0.23799999E+02  0.46012E+06
 0.23849998E+02  0.34594E+06
 0.23899998E+02  0.33053E+06
 0.23949999E+02  0.40507E+06
 0.23999998E+02  0.37661E+06
 0.24049999E+02  0.43281E+06
 0.24099998E+02  0.41394E+06
 0.24149998E+02  0.38332E+06
 0.24199999E+02  0.33270E+06
 0.24249998E+02  0.27217E+06
 0.24299999E+02  0.11934E+06
 0.24349998E+02  0.10389E+05
 0.24399998E+02 -0.95301E+05
 0.24449999E+02 -0.99356E+05
 0.24499998E+02 -0.55053E+05
 0.24549999E+02 -0.40382E+05
 0.24599998E+02  0.55302E+05
 0.24649998E+02  0.23844E+05
 0.24699999E+02 -0.46608E+05
 0.24749998E+02 -0.51611E+05
 0.24799999E+02 -0.61921E+04
 0.24849998E+02 -0.54201E+05
 0.24899998E+02 -0.14008E+06
 0.24949999E+02 -0.18613E+06
 0.24999998E+02 -0.88586E+05
 0.25049999E+02  0.22431E+05
 0.25099998E+02  0.94864E+05
 0.25149998E+02  0.69192E+05
 0.25199999E+02  0.50145E+05
 0.25249998E+02  0.13994E+06
 0.25299999E+02  0.13168E+06
 0.25349998E+02  0.51815E+05
 0.25399998E+02  0.38196E+05
 0.25449999E+02  0.12842E+06
 0.25499998E+02  0.16158E+06
 0.25549999E+02  0.12810E+06
 0.25599998E+02  0.11059E+06
 0.25649998E+02  0.19676E+06
 0.25699999E+02  0.17433E+06
 0.25749998E+02  0.82645E+05
 0.25799999E+02  0.16591E+05
 0.25849998E+02 -0.57556E+05
 0.25899998E+02 -0.77642E+05
 0.25949999E+02 -0.15227E+06
 0.25999998E+02 -0.26832E+06
 0.26049999E+02 -0.27880E+06
 0.26099998E+02 -0.28095E+06
 0.26149998E+02 -0.29989E+06
 0.26199999E+02 -0.33202E+06
 0.26249998E+02 -0.31297E+06
 0.26299999E+02 -0.24100E+06
 0.26349998E+02 -0.32660E+06
 0.26399998E+02 -0.32541E+06
 0.26449999E+02 -0.29559E+06
 0.26499998E+02 -0.22848E+06
 0.26549999E+02 -0.20481E+06
 0.26599998E+02 -0.19727E+06
 0.26649998E+02 -0.15024E+06
 0.26699999E+02 -0.18667E+06
 0.26749998E+02 -0.13881E+06
 0.26799999E+02 -0.11205E+06
 0.26849998E+02 -0.12943E+06
 0.26899998E+02 -0.15062E+06
 0.26949999E+02 -0.21597E+06
 0.26999998E+02 -0.32661E+06
 0.27049997E+02 -0.46504E+06
 0.27099998E+02 -0.53359E+06
 0.27149998E+02 -0.57547E+06
 0.27199999E+02 -0.61517E+06
 0.27249998E+02 -0.42208E+06
 0.27299997E+02 -0.18504E+06
 0.27349998E+02 -0.63915E+05
 0.27399998E+02 -0.46560E+05
 0.27449999E+02 -0.27035E+06
 0.27499998E+02 -0.46836E+06
 0.27549997E+02 -0.61128E+06
 0.27599998E+02 -0.66997E+06
 0.27649998E+02 -0.43804E+06
 0.27699999E+02 -0.14597E+06
 0.27749998E+02 -0.47937E+05
 0.27799997E+02 -0.21004E+06
 0.27849998E+02 -0.29425E+06
 0.27899998E+02 -0.17027E+06
 0.27949999E+02  0.12220E+06
 0.27999998E+02  0.35987E+06
 0.28049997E+02  0.42670E+06
 0.28099998E+02  0.42392E+06
 0.28149998E+02  0.21791E+06
 0.28199999E+02 -0.24348E+06
 0.28249998E+02 -0.42054E+06
 0.28299997E+02 -0.17917E+05
 0.28349998E+02  0.52380E+06
 0.28399998E+02  0.86345E+06
 0.28449999E+02  0.71794E+06
 0.28499998E+02  0.24761E+06
 0.28549997E+02 -0.15393E+05
 0.28599998E+02 -0.23214E+05
 0.28649998E+02 -0.22208E+06
 0.28699999E+02 -0.46673E+06
 0.28749998E+02 -0.66578E+06
 0.28799997E+02 -0.89283E+06
 0.28849998E+02 -0.76024E+06
 0.28899998E+02 -0.58631E+06
 0.28949999E+02 -0.70810E+06
 0.28999998E+02 -0.63218E+06
 0.29049997E+02 -0.38265E+06
 0.29099998E+02  0.11126E+06
 0.29149998E+02  0.29320E+06
 0.29199999E+02 -0.14037E+06
 0.29249998E+02 -0.37643E+06
 0.29299997E+02 -0.39916E+06
 0.29349998E+02 -0.53563E+06
 0.29399998E+02 -0.73543E+06
 0.29449999E+02 -0.37468E+06
 0.29499998E+02  0.54969E+05
 0.29549997E+02  0.41609E+06
 0.29599998E+02  0.50629E+06
 0.29649998E+02  0.30825E+06
 0.29699999E+02  0.24306E+06
 0.29749998E+02  0.35344E+05
 0.29799997E+02  0.96040E+04
 0.29849998E+02  0.61327E+05
 0.29899998E+02  0.86131E+05
 0.29949999E+02  0.68702E+05
 0.29999998E+02 -0.68177E+05
 0.30049999E+02 -0.16291E+06
 0.30099998E+02  0.25790E+03
 0.30149998E+02  0.61470E+05
 0.30199997E+02 -0.16516E+06
 0.30249996E+02 -0.27599E+06
 0.30299999E+02 -0.37730E+06
 0.30349998E+02 -0.59709E+06
 0.30399998E+02 -0.73476E+06
 0.30449997E+02 -0.42550E+06
 0.30499996E+02 -0.13223E+06
 0.30549999E+02 -0.25767E+06
 0.30599998E+02 -0.43553E+06
 0.30649998E+02 -0.44220E+06
 0.30699997E+02 -0.22635E+06
 0.30749996E+02 -0.18499E+06
 0.30799999E+02 -0.30437E+06
 0.30849998E+02 -0.41486E+06
 0.30899998E+02 -0.13839E+06
 0.30949997E+02  0.30839E+06
 0.30999996E+02  0.48488E+06
 0.31049999E+02  0.39016E+06
 0.31099998E+02 -0.80514E+04
 0.31149998E+02 -0.13483E+06
 0.31199997E+02  0.28673E+06
 0.31249996E+02  0.74125E+06
 0.31299999E+02  0.84075E+06
 0.31349998E+02  0.71931E+06
 0.31399998E+02  0.54519E+06
 0.31449997E+02  0.27973E+06
 0.31499996E+02 -0.10294E+06
 0.31549999E+02 -0.37630E+06
 0.31599998E+02 -0.57861E+06
 0.31649998E+02 -0.64094E+06
 0.31699997E+02 -0.55662E+06
 0.31749996E+02 -0.40258E+06
 0.31799999E+02 -0.14684E+06
 0.31849998E+02 -0.28228E+05
 0.31899998E+02  0.41040E+04
 0.31949997E+02  0.15358E+06
 0.31999996E+02  0.25003E+06
 0.32049999E+02  0.15403E+05
 0.32099998E+02 -0.41601E+06
 0.32149998E+02 -0.58699E+06
 0.32199997E+02 -0.45886E+06
 0.32249996E+02 -0.19591E+06
 0.32299999E+02  0.19434E+06
 0.32349998E+02  0.46713E+06
 0.32399998E+02  0.32110E+06
 0.32449997E+02  0.43548E+05
 0.32499996E+02  0.91553E+05
 0.32549999E+02  0.73778E+05
 0.32599998E+02 -0.21062E+06
 0.32649998E+02 -0.25715E+06
 0.32699997E+02 -0.12302E+06
 0.32749996E+02  0.25419E+05
 0.32799999E+02  0.16292E+06
 0.32849998E+02  0.20758E+06
 0.32899998E+02  0.30594E+06
 0.32949997E+02  0.28902E+06
 0.32999996E+02  0.24402E+06
 0.33049999E+02  0.22791E+06
 0.33099998E+02  0.27128E+05
 0.33149998E+02 -0.26709E+06
 0.33199997E+02 -0.31326E+06
 0.33249996E+02 -0.10110E+06
 0.33299999E+02  0.48394E+04
 0.33349998E+02  0.15541E+06
 0.33399998E+02  0.34201E+06
 0.33449997E+02  0.43861E+06
 0.33499996E+02  0.52471E+06
 0.33549999E+02  0.71672E+06
 0.33599998E+02  0.88789E+06
 0.33649998E+02  0.92546E+06
 0.33699997E+02  0.97973E+06
 0.33749996E+02  0.89410E+06
 0.33799999E+02  0.78638E+06
 0.33849998E+02  0.74582E+06
 0.33899998E+02  0.79396E+06
 0.33949997E+02  0.87185E+06
 0.33999996E+02  0.79654E+06
 0.34049999E+02  0.68548E+06
 0.34099998E+02  0.50620E+06
 0.34149998E+02  0.36282E+06
 0.34199997E+02  0.20899E+06
 0.34249996E+02 -0.76427E+05
 0.34299999E+02 -0.27457E+06
 0.34349998E+02 -0.21554E+06
 0.34399998E+02 -0.69188E+05
 0.34449997E+02  0.25839E+04
 0.34499996E+02  0.11751E+05
 0.34549999E+02 -0.25449E+04
 0.34599998E+02 -0.91397E+05
 0.34649998E+02 -0.17496E+06
 0.34699997E+02 -0.12711E+06
 0.34749996E+02 -0.23874E+05
 0.34799999E+02  0.83950E+05
 0.34849998E+02  0.14837E+06
 0.34899998E+02  0.20565E+06
 0.34949997E+02  0.27768E+06
 0.34999996E+02  0.48324E+06
 0.35049999E+02  0.72996E+06
 0.35099998E+02  0.76490E+06
 0.35149998E+02  0.61953E+06
 0.35199997E+02  0.45838E+06
 0.35249996E+02  0.31995E+06
 0.35299999E+02  0.28068E+06
 0.35349998E+02  0.41467E+06
 0.35399998E+02  0.57596E+06
 0.35449997E+02  0.56964E+06
 0.35499996E+02  0.47274E+06
 0.35549999E+02  0.44032E+06
 0.35599998E+02  0.34123E+06
 0.35649998E+02  0.15042E+06
 0.35699997E+02 -0.44706E+05
 0.35749996E+02 -0.19331E+06
 0.35799999E+02 -0.33863E+06
 0.35849998E+02 -0.36441E+06
 0.35899998E+02 -0.21156E+06
 0.35949997E+02 -0.78466E+05
 0.35999996E+02  0.40889E+05
 0.36049999E+02  0.10194E+06
 0.36099998E+02  0.89109E+05
 0.36149998E+02  0.41460E+05
 0.36199997E+02  0.94764E+05
 0.36249996E+02  0.24038E+06
 0.36299999E+02  0.24941E+06
 0.36349998E+02  0.21224E+06
 0.36399998E+02  0.32015E+06
 0.36449997E+02  0.53989E+06
 0.36499996E+02  0.65321E+06
 0.36549999E+02  0.59063E+06
 0.36599998E+02  0.60179E+06
 0.36649998E+02  0.66474E+06
 0.36699997E+02  0.74127E+06
 0.36749996E+02  0.83152E+06
 0.36799999E+02  0.90573E+06
 0.36849998E+02  0.87596E+06
 0.36899998E+02  0.75249E+06
 0.36949997E+02  0.59326E+06
 0.36999996E+02  0.34526E+06
 0.37049999E+02  0.21814E+06
 0.37099998E+02  0.22101E+06
 0.37149998E+02  0.27171E+06
 0.37199997E+02  0.25565E+06
 0.37249996E+02  0.35195E+06
 0.37299999E+02  0.57622E+06
 0.37349998E+02  0.76314E+06
 0.37399998E+02  0.92423E+06
 0.37449997E+02  0.84726E+06
 0.37499996E+02  0.60276E+06
 0.37549999E+02  0.24941E+06
 0.37599998E+02 -0.11211E+06
 0.37649998E+02 -0.27590E+06
 0.37699997E+02 -0.37533E+06
 0.37749996E+02 -0.44510E+06
 0.37799999E+02 -0.43082E+06
 0.37849998E+02 -0.33238E+06
 0.37899998E+02 -0.26165E+06
 0.37949997E+02 -0.27107E+06
 0.37999996E+02 -0.30513E+06
 0.38049999E+02 -0.31218E+06
 0.38099998E+02 -0.10232E+06
 0.38149998E+02  0.23671E+06
 0.38199997E+02  0.37213E+06
 0.38249996E+02  0.26932E+06
 0.38299999E+02  0.10452E+06
 0.38349998E+02 -0.39584E+05
 0.38399998E+02 -0.15334E+06
 0.38449997E+02 -0.31454E+06
 0.38499996E+02 -0.58750E+06
 0.38549999E+02 -0.90766E+06
 0.38599998E+02 -0.11881E+07
 0.38649998E+02 -0.13583E+07
 0.38699997E+02 -0.14285E+07
 0.38749996E+02 -0.14686E+07
 0.38799999E+02 -0.14721E+07
 0.38849998E+02 -0.14155E+07
 0.38899998E+02 -0.12748E+07
 0.38949997E+02 -0.10613E+07
 0.38999996E+02 -0.85299E+06
 0.39049999E+02 -0.68730E+06
 0.39099998E+02 -0.54333E+06
 0.39149998E+02 -0.46007E+06
 0.39199997E+02 -0.42494E+06
 0.39249996E+02 -0.44569E+06
 0.39299999E+02 -0.47086E+06
 0.39349998E+02 -0.41500E+06
 0.39399998E+02 -0.35322E+06
 0.39449997E+02 -0.24481E+06
 0.39499996E+02 -0.11860E+06
 0.39549999E+02 -0.57760E+05
 0.39599998E+02 -0.34518E+05
 0.39649998E+02 -0.96913E+05
 0.39699997E+02 -0.31869E+06
 0.39749996E+02 -0.55541E+06
 0.39799999E+02 -0.70114E+06
 0.39849998E+02 -0.75562E+06
 0.39899998E+02 -0.67481E+06
 0.39949997E+02 -0.53764E+06
 0.39999996E+02 -0.45587E+06
 0.40049999E+02 -0.42476E+06
 0.40099998E+02 -0.32624E+06
 0.40149998E+02 -0.17421E+06
 0.40199997E+02 -0.11141E+06
 0.40249996E+02 -0.16503E+06
 0.40299999E+02 -0.28452E+06
 0.40349998E+02 -0.39042E+06
 0.40399998E+02 -0.39993E+06
 0.40449997E+02 -0.29703E+06
 0.40499996E+02 -0.15544E+06
 0.40549999E+02 -0.73537E+05
 0.40599998E+02 -0.77224E+05
 0.40649998E+02 -0.57998E+05
 0.40699997E+02  0.67904E+05
 0.40749996E+02  0.24928E+06
 0.40799999E+02  0.47430E+06
 0.40849998E+02  0.66181E+06
 0.40899998E+02  0.64826E+06
 0.40949997E+02  0.52992E+06
 0.40999996E+02  0.45402E+06
 0.41049999E+02  0.43787E+06
 0.41099998E+02  0.36804E+06
 0.41149998E+02  0.26186E+06
 0.41199997E+02  0.13049E+06
 0.41249996E+02  0.65273E+05
 0.41299999E+02  0.13887E+06
 0.41349998E+02  0.15050E+06
 0.41399998E+02  0.44348E+05
 0.41449997E+02 -0.11177E+06
 0.41499996E+02 -0.19887E+06
 0.41549999E+02 -0.17943E+06
 0.41599998E+02 -0.26996E+05
 0.41649998E+02  0.15511E+06
 0.41699997E+02  0.24292E+06
 0.41749996E+02  0.28922E+06
 0.41799999E+02  0.34046E+06
 0.41849998E+02  0.40101E+06
 0.41899998E+02  0.41843E+06
 0.41949997E+02  0.38781E+06
 0.41999996E+02  0.32669E+06
 0.42049999E+02  0.18571E+06
 0.42099998E+02  0.32622E+05
 0.42149998E+02 -0.42358E+05
 0.42199997E+02 -0.11796E+06
 0.42249996E+02 -0.19786E+06
 0.42299999E+02 -0.22617E+06
 0.42349998E+02 -0.29379E+06
 0.42399998E+02 -0.35657E+06
 0.42449997E+02 -0.37728E+06
 0.42499996E+02 -0.37215E+06
 0.42549999E+02 -0.40883E+06
 0.42599998E+02 -0.42269E+06
 0.42649998E+02 -0.33051E+06
 0.42699997E+02 -0.23267E+06
 0.42749996E+02 -0.16866E+06
 0.42799995E+02 -0.17101E+06
 0.42849998E+02 -0.16496E+06
 0.42899998E+02 -0.74981E+05
 0.42949997E+02 -0.24625E+05
 0.42999996E+02 -0.23460E+05
 0.43049995E+02  0.13817E+05
 0.43099998E+02  0.31146E+05
 0.43149998E+02  0.51501E+05
 0.43199997E+02  0.67034E+05
 0.43249996E+02  0.70217E+05
 0.43299995E+02  0.11963E+05
 0.43349998E+02 -0.46200E+05
 0.43399998E+02 -0.51927E+05
 0.43449997E+02 -0.74454E+05
 0.43499996E+02 -0.14884E+06
 0.43549995E+02 -0.21445E+06
 0.43599998E+02 -0.22026E+06
 0.43649998E+02 -0.18914E+06
 0.43699997E+02 -0.16782E+06
 0.43749996E+02 -0.17678E+06
 0.43799995E+02 -0.18379E+06
 0.43849998E+02 -0.20699E+06
 0.43899998E+02 -0.17400E+06
 0.43949997E+02 -0.10625E+06
 0.43999996E+02 -0.39528E+05
 0.44049995E+02  0.77296E+04
 0.44099998E+02  0.68540E+02
 0.44149998E+02 -0.54229E+05
 0.44199997E+02 -0.13042E+06
 0.44249996E+02 -0.23760E+06
 0.44299995E+02 -0.31951E+06
 0.44349998E+02 -0.31732E+06
 0.44399998E+02 -0.24299E+06
 0.44449997E+02 -0.93798E+05
 0.44499996E+02  0.47955E+05
 0.44549995E+02  0.10153E+06
 0.44599998E+02  0.15030E+06
 0.44649998E+02  0.21122E+06
 0.44699997E+02  0.20927E+06
 0.44749996E+02  0.15194E+06
 0.44799995E+02  0.46039E+05
 0.44849998E+02 -0.51777E+05
 0.44899998E+02 -0.89888E+05
 0.44949997E+02 -0.32694E+05
 0.44999996E+02  0.68981E+05
 0.45049995E+02  0.15660E+06
 0.45099998E+02  0.24632E+06
 0.45149998E+02  0.31043E+06
 0.45199997E+02  0.31741E+06
 0.45249996E+02  0.28175E+06
 0.45299995E+02  0.22414E+06
 0.45349998E+02  0.13410E+06
 0.45399998E+02  0.23328E+05
 0.45449997E+02 -0.35851E+05
 0.45499996E+02 -0.31350E+05
 0.45549995E+02 -0.71091E+04
 0.45599998E+02 -0.31460E+05
 0.45649998E+02 -0.88009E+05
 0.45699997E+02 -0.13435E+06
 0.45749996E+02 -0.16320E+06
 0.45799995E+02 -0.18978E+06
 0.45849998E+02 -0.19674E+06
 0.45899998E+02 -0.15549E+06
 0.45949997E+02 -0.10081E+06
 0.45999996E+02 -0.67497E+04
 0.46049995E+02  0.12657E+06
 0.46099998E+02  0.25522E+06
 0.46149998E+02  0.30255E+06
 0.46199997E+02  0.27523E+06
 0.46249996E+02  0.26055E+06
 0.46299995E+02  0.23284E+06
 0.46349998E+02  0.15857E+06
 0.46399998E+02  0.99617E+05
 0.46449997E+02  0.93606E+05
 0.46499996E+02  0.14212E+06
 0.46549995E+02  0.19183E+06
 0.46599998E+02  0.18932E+06
 0.46649998E+02  0.15190E+06
 0.46699997E+02  0.14663E+06
 0.46749996E+02  0.18047E+06
 0.46799995E+02  0.20914E+06
 0.46849998E+02  0.17156E+06
 0.46899998E+02  0.92898E+05
 0.46949997E+02  0.12906E+05
 0.46999996E+02 -0.29595E+05
 0.47049995E+02 -0.75395E+04
 0.47099998E+02 -0.31767E+05
 0.47149998E+02 -0.65294E+05
 0.47199997E+02 -0.76012E+05
 0.47249996E+02 -0.41834E+05
 0.47299995E+02  0.38269E+05
 0.47349998E+02  0.10848E+06
 0.47399998E+02  0.13815E+06
 0.47449997E+02  0.12890E+06
 0.47499996E+02  0.12130E+06
 0.47549995E+02  0.96379E+05
 0.47599998E+02  0.74915E+05
 0.47649998E+02  0.65244E+05
 0.47699997E+02  0.99121E+05
 0.47749996E+02  0.15462E+06
 0.47799995E+02  0.19726E+06
 0.47849998E+02  0.25956E+06
 0.47899998E+02  0.30805E+06
 0.47949997E+02  0.28764E+06
 0.47999996E+02  0.19470E+06
 0.48049995E+02  0.71815E+05
 0.48099998E+02 -0.43400E+05
 0.48149998E+02 -0.12112E+06
 0.48199997E+02 -0.18103E+06
 0.48249996E+02 -0.24872E+06
 0.48299995E+02 -0.31588E+06
 0.48349998E+02 -0.38706E+06
 0.48399998E+02 -0.42770E+06
 0.48449997E+02 -0.39730E+06
 0.48499996E+02 -0.34775E+06
 0.48549995E+02 -0.30834E+06
 0.48599998E+02 -0.24214E+06
 0.48649998E+02 -0.14662E+06
 0.48699997E+02 -0.57963E+05
 0.48749996E+02  0.44136E+05
 0.48799995E+02  0.17362E+06
 0.48849998E+02  0.32122E+06
 0.48899998E+02  0.46263E+06
 0.48949997E+02  0.56501E+06
 0.48999996E+02  0.64611E+06
 0.49049995E+02  0.71590E+06
 0.49099998E+02  0.76501E+06
 0.49149998E+02  0.75380E+06
 0.49199997E+02  0.65097E+06
 0.49249996E+02  0.50187E+06
 0.49299995E+02  0.36825E+06
 0.49349998E+02  0.24921E+06
 0.49399998E+02  0.15330E+06
 0.49449997E+02  0.96295E+05
 0.49499996E+02  0.62144E+05
 0.49549995E+02  0.23413E+05
 0.49599998E+02 -0.35691E+05
 0.49649998E+02 -0.11628E+06
 0.49699997E+02 -0.21990E+06
 0.49749996E+02 -0.32571E+06
 0.49799995E+02 -0.39129E+06
 0.49849998E+02 -0.40432E+06
 0.49899998E+02 -0.38603E+06
 0.49949997E+02 -0.38061E+06
 0.49999996E+02 -0.37102E+06
 0.50049995E+02 -0.33617E+06
 0.50099998E+02 -0.29673E+06
 0.50149998E+02 -0.23215E+06
 0.50199997E+02 -0.15404E+06
 0.50249996E+02 -0.65881E+05
 0.50299995E+02  0.13966E+05
 0.50349998E+02  0.87076E+05
 0.50399998E+02  0.16180E+06
 0.50449997E+02  0.23971E+06
 0.50499996E+02  0.31383E+06
 0.50549995E+02  0.36236E+06
 0.50599998E+02  0.40121E+06
 0.50649998E+02  0.41361E+06
 0.50699997E+02  0.39812E+06
 0.50749996E+02  0.36347E+06
 0.50799995E+02  0.32120E+06
 0.50849998E+02  0.27384E+06
 0.50899998E+02  0.21465E+06
 0.50949997E+02  0.15609E+06
 0.50999996E+02  0.12481E+06
 0.51049995E+02  0.93038E+05
 0.51099998E+02  0.45463E+05
 0.51149998E+02 -0.46116E+04
 0.51199997E+02 -0.86157E+05
 0.51249996E+02 -0.17350E+06
 0.51299995E+02 -0.22863E+06
 0.51349998E+02 -0.25283E+06
 0.51399998E+02 -0.26833E+06
 0.51449997E+02 -0.29049E+06
 0.51499996E+02 -0.29646E+06
 0.51549995E+02 -0.26801E+06
 0.51599998E+02 -0.22948E+06
 0.51649998E+02 -0.20224E+06
 0.51699997E+02 -0.15863E+06
 0.51749996E+02 -0.11581E+06
 0.51799995E+02 -0.12134E+06
 0.51849998E+02 -0.14177E+06
 0.51899998E+02 -0.14984E+06
 0.51949997E+02 -0.16777E+06
 0.51999996E+02 -0.20177E+06
 0.52049995E+02 -0.23989E+06
 0.52099998E+02 -0.29952E+06
 0.52149998E+02 -0.37104E+06
 0.52199997E+02 -0.42929E+06
 0.52249996E+02 -0.46672E+06
 0.52299995E+02 -0.49457E+06
 0.52349998E+02 -0.53936E+06
 0.52399998E+02 -0.58597E+06
 0.52449997E+02 -0.59885E+06
 0.52499996E+02 -0.53940E+06
 0.52549995E+02 -0.44191E+06
 0.52599998E+02 -0.34355E+06
 0.52649998E+02 -0.23946E+06
 0.52699997E+02 -0.11488E+06
 0.52749996E+02  0.11464E+05
 0.52799995E+02  0.12499E+06
 0.52849998E+02  0.19844E+06
 0.52899998E+02  0.22393E+06
 0.52949997E+02  0.23631E+06
 0.52999996E+02  0.23245E+06
 0.53049995E+02  0.22473E+06
 0.53099998E+02  0.21033E+06
 0.53149998E+02  0.18369E+06
 0.53199997E+02  0.14035E+06
 0.53249996E+02  0.12246E+06
 0.53299995E+02  0.13045E+06
 0.53349998E+02  0.15374E+06
 0.53399998E+02  0.20948E+06
 0.53449997E+02  0.27365E+06
 0.53499996E+02  0.33754E+06
 0.53549995E+02  0.39544E+06
 0.53599998E+02  0.45076E+06
 0.53649998E+02  0.48958E+06
 0.53699997E+02  0.48708E+06
 0.53749996E+02  0.46260E+06
 0.53799995E+02  0.43595E+06
 0.53849998E+02  0.40457E+06
 0.53899998E+02  0.36936E+06
 0.53949997E+02  0.30818E+06
 0.53999996E+02  0.21620E+06
 0.54049995E+02  0.94424E+05
 0.54099998E+02 -0.25540E+05
 0.54149998E+02 -0.10516E+06
 0.54199997E+02 -0.14953E+06
 0.54249996E+02 -0.17994E+06
 0.54299995E+02 -0.20963E+06
 0.54349998E+02 -0.21024E+06
 0.54399998E+02 -0.17284E+06
 0.54449997E+02 -0.12538E+06
 0.54499996E+02 -0.97687E+05
 0.54549995E+02 -0.77775E+05
 0.54599998E+02 -0.49994E+05
 0.54649998E+02 -0.35741E+05
 0.54699997E+02 -0.36961E+05
 0.54749996E+02 -0.42484E+05
 0.54799995E+02 -0.40052E+05
 0.54849998E+02 -0.40386E+05
 0.54899998E+02 -0.66764E+05
 0.54949997E+02 -0.10874E+06
 0.54999996E+02 -0.16931E+06
 0.55049995E+02 -0.23962E+06
 0.55099998E+02 -0.28961E+06
 0.55149998E+02 -0.29733E+06
 0.55199997E+02 -0.26814E+06
 0.55249996E+02 -0.22321E+06
 0.55299995E+02 -0.16323E+06
 0.55349998E+02 -0.74466E+05
 0.55399998E+02  0.42634E+05
 0.55449997E+02  0.14648E+06
 0.55499996E+02  0.23104E+06
 0.55549995E+02  0.30800E+06
 0.55599998E+02  0.36363E+06
 0.55649998E+02  0.40153E+06
 0.55699997E+02  0.39855E+06
 0.55749996E+02  0.35920E+06
 0.55799995E+02  0.31714E+06
 0.55849995E+02  0.27832E+06
 0.55899998E+02  0.23904E+06
 0.55949997E+02  0.18765E+06
 0.55999996E+02  0.14040E+06
 0.56049995E+02  0.10495E+06
 0.56099995E+02  0.89389E+05
 0.56149998E+02  0.75716E+05
 0.56199997E+02  0.36408E+05
 0.56249996E+02 -0.55883E+04
 0.56299995E+02 -0.40840E+05
 0.56349995E+02 -0.63820E+05
 0.56399998E+02 -0.89365E+05
 0.56449997E+02 -0.11621E+06
 0.56499996E+02 -0.13461E+06
 0.56549995E+02 -0.13285E+06
 0.56599995E+02 -0.12516E+06
 0.56649998E+02 -0.12812E+06
 0.56699997E+02 -0.12912E+06
 0.56749996E+02 -0.12120E+06
 0.56799995E+02 -0.90075E+05
 0.56849995E+02 -0.53688E+05
 0.56899998E+02 -0.12201E+05
 0.56949997E+02  0.23447E+05
 0.56999996E+02  0.53991E+05
 0.57049995E+02  0.64518E+05
 0.57099995E+02  0.48951E+05
 0.57149998E+02  0.11693E+05
 0.57199997E+02 -0.47800E+05
 0.57249996E+02 -0.10714E+06
 0.57299995E+02 -0.15000E+06
 0.57349995E+02 -0.18216E+06
 0.57399998E+02 -0.21916E+06
 0.57449997E+02 -0.23161E+06
 0.57499996E+02 -0.21796E+06
 0.57549995E+02 -0.18803E+06
 0.57599995E+02 -0.15906E+06
 0.57649998E+02 -0.13211E+06
 0.57699997E+02 -0.12385E+06
 0.57749996E+02 -0.13627E+06
 0.57799995E+02 -0.14966E+06
 0.57849995E+02 -0.15418E+06
 0.57899998E+02 -0.12511E+06
 0.57949997E+02 -0.88590E+05
 0.57999996E+02 -0.48590E+05
 0.58049995E+02 -0.42427E+04
 0.58099995E+02  0.50119E+05
 0.58149998E+02  0.11594E+06
 0.58199997E+02  0.19193E+06
 0.58249996E+02  0.27726E+06
 0.58299995E+02  0.32682E+06
 0.58349995E+02  0.34077E+06
 0.58399998E+02  0.33382E+06
 0.58449997E+02  0.30666E+06
 0.58499996E+02  0.24928E+06
 0.58549995E+02  0.16685E+06
 0.58599995E+02  0.61130E+05
 0.58649998E+02 -0.58887E+05
 0.58699997E+02 -0.16548E+06
 0.58749996E+02 -0.26013E+06
 0.58799995E+02 -0.34399E+06
 0.58849995E+02 -0.38938E+06
 0.58899998E+02 -0.38754E+06
 0.58949997E+02 -0.34706E+06
 0.58999996E+02 -0.26757E+06
 0.59049995E+02 -0.17450E+06
 0.59099995E+02 -0.93454E+05
 0.59149998E+02 -0.47291E+05
 0.59199997E+02 -0.18513E+05
 0.59249996E+02  0.61284E+04
 0.59299995E+02  0.22200E+05
 0.59349995E+02  0.27086E+05
 0.59399998E+02  0.24195E+05
 0.59449997E+02  0.54748E+05
 0.59499996E+02  0.12274E+06
 0.59549995E+02  0.19947E+06
 0.59599995E+02  0.26688E+06
 0.59649998E+02  0.31648E+06
 0.59699997E+02  0.35271E+06
 0.59749996E+02  0.37066E+06
 0.59799995E+02  0.38089E+06
 0.59849995E+02  0.36932E+06
 0.59899998E+02  0.33783E+06
 0.59949997E+02  0.30306E+06
 0.59999996E+02  0.25239E+06
 0.60049995E+02  0.19854E+06
 0.60099995E+02  0.13088E+06
 0.60149998E+02  0.43769E+05
 0.60199997E+02 -0.44073E+05
 0.60249996E+02 -0.12710E+06
 0.60299995E+02 -0.19945E+06
 0.60349995E+02 -0.27100E+06
 0.60399998E+02 -0.33683E+06
 0.60449997E+02 -0.37870E+06
 0.60499996E+02 -0.38313E+06
 0.60549995E+02 -0.34419E+06
 0.60599995E+02 -0.29707E+06
 0.60649998E+02 -0.26078E+06
 0.60699997E+02 -0.22930E+06
 0.60749996E+02 -0.19619E+06
 0.60799995E+02 -0.15921E+06
 0.60849995E+02 -0.10623E+06
 0.60899998E+02 -0.34807E+05
 0.60949997E+02  0.41661E+05
 0.60999996E+02  0.11390E+06
 0.61049995E+02  0.17002E+06
 0.61099995E+02  0.20801E+06
 0.61149998E+02  0.24410E+06
 0.61199997E+02  0.27788E+06
 0.61249996E+02  0.29225E+06
 0.61299995E+02  0.27164E+06
 0.61349995E+02  0.21198E+06
 0.61399998E+02  0.13991E+06
 0.61449997E+02  0.88329E+05
 0.61499996E+02  0.69962E+05
 0.61549995E+02  0.56843E+05
 0.61599995E+02  0.36240E+05
 0.61649998E+02  0.92564E+04
 0.61699997E+02 -0.23778E+05
 0.61749996E+02 -0.40913E+05
 0.61799995E+02 -0.57617E+05
 0.61849995E+02 -0.98965E+05
 0.61899998E+02 -0.14874E+06
 0.61949997E+02 -0.19693E+06
 0.61999996E+02 -0.23172E+06
 0.62049995E+02 -0.25297E+06
 0.62099998E+02 -0.26345E+06
 0.62149994E+02 -0.26041E+06
 0.62199997E+02 -0.25031E+06
 0.62249992E+02 -0.22514E+06
 0.62299995E+02 -0.18731E+06
 0.62349998E+02 -0.14592E+06
 0.62399994E+02 -0.97343E+05
 0.62449997E+02 -0.37927E+05
 0.62499992E+02  0.32865E+05
 0.62549995E+02  0.10721E+06
 0.62599998E+02  0.17493E+06
 0.62649994E+02  0.23999E+06
 0.62699997E+02  0.30937E+06
 0.62749992E+02  0.37585E+06
 0.62799995E+02  0.42606E+06
 0.62849998E+02  0.45261E+06
 0.62899994E+02  0.46141E+06
 0.62949997E+02  0.46256E+06
 0.62999992E+02  0.45423E+06
 0.63049995E+02  0.43420E+06
 0.63099998E+02  0.39861E+06
 0.63149994E+02  0.35909E+06
 0.63199997E+02  0.31779E+06
 0.63249992E+02  0.26941E+06
 0.63299995E+02  0.21511E+06
 0.63349998E+02  0.15057E+06
 0.63399994E+02  0.78478E+05
 0.63449997E+02  0.65668E+03
 0.63499992E+02 -0.89657E+05
 0.63549995E+02 -0.19113E+06
 0.63599998E+02 -0.28519E+06
 0.63649994E+02 -0.36889E+06
 0.63699997E+02 -0.44646E+06
 0.63749992E+02 -0.51601E+06
 0.63799995E+02 -0.55682E+06
 0.63849998E+02 -0.56271E+06
 0.63899994E+02 -0.54511E+06
 0.63949997E+02 -0.50581E+06
 0.63999992E+02 -0.45375E+06
 0.64049995E+02 -0.38622E+06
 0.64099998E+02 -0.30539E+06
 0.64149994E+02 -0.22183E+06
 0.64199997E+02 -0.14034E+06
 0.64249992E+02 -0.57591E+05
 0.64299995E+02  0.25949E+05
 0.64349998E+02  0.93146E+05
 0.64399994E+02  0.12520E+06
 0.64449997E+02  0.12538E+06
 0.64499992E+02  0.11467E+06
 0.64549995E+02  0.11328E+06
 0.64599998E+02  0.11507E+06
 0.64649994E+02  0.10983E+06
 0.64699997E+02  0.10403E+06
 0.64749992E+02  0.91968E+05
 0.64799995E+02  0.81720E+05
 0.64849998E+02  0.79768E+05
 0.64899994E+02  0.70336E+05
 0.64949997E+02  0.38379E+05
 0.64999992E+02 -0.88303E+04
 0.65049995E+02 -0.53070E+05
 0.65099998E+02 -0.84430E+05
 0.65149994E+02 -0.96707E+05
 0.65199997E+02 -0.93785E+05
 0.65249992E+02 -0.72653E+05
 0.65299995E+02 -0.39496E+05
 0.65349998E+02 -0.13731E+05
 0.65399994E+02  0.76050E+03
 0.65449997E+02  0.38460E+04
 0.65499992E+02 -0.31334E+04
 0.65549995E+02 -0.14659E+05
 0.65599998E+02 -0.32081E+05
 0.65649994E+02 -0.46816E+05
 0.65699997E+02 -0.53869E+05
 0.65749992E+02 -0.53878E+05
 0.65799995E+02 -0.49711E+05
 0.65849998E+02 -0.41746E+05
 0.65899994E+02 -0.30897E+05
 0.65949997E+02 -0.29157E+05
 0.65999992E+02 -0.34294E+05
 0.66049995E+02 -0.40461E+05
 0.66099998E+02 -0.44163E+05
 0.66149994E+02 -0.56662E+05
 0.66199997E+02 -0.84153E+05
 0.66249992E+02 -0.10974E+06
 0.66299995E+02 -0.11745E+06
 0.66349998E+02 -0.11275E+06
 0.66399994E+02 -0.99983E+05
 0.66449997E+02 -0.68525E+05
 0.66499992E+02 -0.17566E+05
 0.66549995E+02  0.39731E+05
 0.66599998E+02  0.92915E+05
 0.66649994E+02  0.13926E+06
 0.66699997E+02  0.17690E+06
 0.66749992E+02  0.20556E+06
 0.66799995E+02  0.22514E+06
 0.66849998E+02  0.23887E+06
 0.66899994E+02  0.25051E+06
 0.66949997E+02  0.24800E+06
 0.66999992E+02  0.22624E+06
 0.67049995E+02  0.19782E+06
 0.67099998E+02  0.15865E+06
 0.67149994E+02  0.11513E+06
 0.67199997E+02  0.80701E+05
 0.67249992E+02  0.52338E+05
 0.67299995E+02  0.31077E+05
 0.67349998E+02  0.18882E+05
 0.67399994E+02  0.15545E+05
 0.67449997E+02  0.23978E+05
 0.67499992E+02  0.41768E+05
 0.67549995E+02  0.57802E+05
 0.67599998E+02  0.53209E+05
 0.67649994E+02  0.31337E+05
 0.67699997E+02 -0.18527E+04
 0.67749992E+02 -0.48030E+05
 0.67799995E+02 -0.90318E+05
 0.67849998E+02 -0.12161E+06
 0.67899994E+02 -0.14157E+06
 0.67949997E+02 -0.15666E+06
 0.67999992E+02 -0.17130E+06
 0.68049995E+02 -0.18670E+06
 0.68099998E+02 -0.20475E+06
 0.68149994E+02 -0.21292E+06
 0.68199997E+02 -0.20361E+06
 0.68249992E+02 -0.18603E+06
 0.68299995E+02 -0.17297E+06
 0.68349998E+02 -0.16521E+06
 0.68399994E+02 -0.15803E+06
 0.68449997E+02 -0.14937E+06
 0.68499992E+02 -0.13493E+06
 0.68549995E+02 -0.11335E+06
 0.68599998E+02 -0.91917E+05
 0.68649994E+02 -0.74479E+05
 0.68699997E+02 -0.63346E+05
 0.68749992E+02 -0.57321E+05
 0.68799995E+02 -0.49558E+05
 0.68849998E+02 -0.28072E+05
 0.68899994E+02  0.16498E+05
 0.68949997E+02  0.70503E+05
 0.68999992E+02  0.13523E+06
 0.69049995E+02  0.21458E+06
 0.69099998E+02  0.29469E+06
 0.69149994E+02  0.36329E+06
 0.69199997E+02  0.41131E+06
 0.69249992E+02  0.43829E+06
 0.69299995E+02  0.44007E+06
 0.69349998E+02  0.42346E+06
 0.69399994E+02  0.39835E+06
 0.69449997E+02  0.36092E+06
 0.69499992E+02  0.30934E+06
 0.69549995E+02  0.24730E+06
 0.69599998E+02  0.18816E+06
 0.69649994E+02  0.13996E+06
 0.69699997E+02  0.99583E+05
 0.69749992E+02  0.57627E+05
 0.69799995E+02  0.96434E+04
 0.69849998E+02 -0.33868E+05
 0.69899994E+02 -0.73176E+05
 0.69949997E+02 -0.11465E+06
 0.69999992E+02 -0.15694E+06
 0.70049995E+02 -0.19536E+06
 0.70099998E+02 -0.22382E+06
 0.70149994E+02 -0.24126E+06
 0.70199997E+02 -0.24745E+06
 0.70249992E+02 -0.24930E+06
 0.70299995E+02 -0.24677E+06
 0.70349998E+02 -0.22970E+06
 0.70399994E+02 -0.20110E+06
 0.70449997E+02 -0.17299E+06
 0.70499992E+02 -0.15201E+06
 0.70549995E+02 -0.13612E+06
 0.70599998E+02 -0.12811E+06
 0.70649994E+02 -0.12394E+06
 0.70699997E+02 -0.11245E+06
 0.70749992E+02 -0.90338E+05
 0.70799995E+02 -0.59934E+05
 0.70849998E+02 -0.22443E+05
 0.70899994E+02  0.21347E+05
 0.70949997E+02  0.67306E+05
 0.70999992E+02  0.11551E+06
 0.71049995E+02  0.15860E+06
 0.71099998E+02  0.18945E+06
 0.71149994E+02  0.21190E+06
 0.71199997E+02  0.23028E+06
 0.71249992E+02  0.24736E+06
 0.71299995E+02  0.25550E+06
 0.71349998E+02  0.24492E+06
 0.71399994E+02  0.22261E+06
 0.71449997E+02  0.20093E+06
 0.71499992E+02  0.17706E+06
 0.71549995E+02  0.15027E+06
 0.71599998E+02  0.12598E+06
 0.71649994E+02  0.10426E+06
 0.71699997E+02  0.77914E+05
 0.71749992E+02  0.46868E+05
 0.71799995E+02  0.21318E+05
 0.71849998E+02  0.25449E+04
 0.71899994E+02 -0.16561E+05
 0.71949997E+02 -0.41192E+05
 0.71999992E+02 -0.66769E+05
 0.72049995E+02 -0.92352E+05
 0.72099998E+02 -0.11678E+06
 0.72149994E+02 -0.13426E+06
 0.72199997E+02 -0.14719E+06
 0.72249992E+02 -0.15739E+06
 0.72299995E+02 -0.16381E+06
 0.72349998E+02 -0.16276E+06
 0.72399994E+02 -0.15690E+06
 0.72449997E+02 -0.14838E+06
 0.72499992E+02 -0.13632E+06
 0.72549995E+02 -0.12726E+06
 0.72599998E+02 -0.12415E+06
 0.72649994E+02 -0.12537E+06
 0.72699997E+02 -0.12500E+06
 0.72749992E+02 -0.12328E+06
 0.72799995E+02 -0.11363E+06
 0.72849998E+02 -0.94952E+05
 0.72899994E+02 -0.77463E+05
 0.72949997E+02 -0.57572E+05
 0.72999992E+02 -0.30308E+05
 0.73049995E+02 -0.13289E+04
 0.73099998E+02  0.23277E+05
 0.73149994E+02  0.38557E+05
 0.73199997E+02  0.52637E+05
 0.73249992E+02  0.76791E+05
 0.73299995E+02  0.10842E+06
 0.73349998E+02  0.14155E+06
 0.73399994E+02  0.17172E+06
 0.73449997E+02  0.20039E+06
 0.73499992E+02  0.22739E+06
 0.73549995E+02  0.25593E+06
 0.73599998E+02  0.28012E+06
 0.73649994E+02  0.29164E+06
 0.73699997E+02  0.28657E+06
 0.73749992E+02  0.26415E+06
 0.73799995E+02  0.22983E+06
 0.73849998E+02  0.19074E+06
 0.73899994E+02  0.15103E+06
 0.73949997E+02  0.10910E+06
 0.73999992E+02  0.72008E+05
 0.74049995E+02  0.48186E+05
 0.74099998E+02  0.33377E+05
 0.74149994E+02  0.18320E+05
 0.74199997E+02  0.10800E+04
 0.74249992E+02 -0.11973E+05
 0.74299995E+02 -0.20527E+05
 0.74349998E+02 -0.31597E+05
 0.74399994E+02 -0.44988E+05
 0.74449997E+02 -0.54518E+05
 0.74499992E+02 -0.59022E+05
 0.74549995E+02 -0.64264E+05
 0.74599998E+02 -0.70362E+05
 0.74649994E+02 -0.73103E+05
 0.74699997E+02 -0.72600E+05
 0.74749992E+02 -0.69906E+05
 0.74799995E+02 -0.68627E+05
 0.74849998E+02 -0.70221E+05
 0.74899994E+02 -0.72353E+05
 0.74949997E+02 -0.79003E+05
 0.74999992E+02 -0.92737E+05
 0.75049995E+02 -0.11205E+06
 0.75099998E+02 -0.13239E+06
 0.75149994E+02 -0.15271E+06
 0.75199997E+02 -0.17192E+06
 0.75249992E+02 -0.18903E+06
 0.75299995E+02 -0.20242E+06
 0.75349998E+02 -0.20824E+06
 0.75399994E+02 -0.20166E+06
 0.75449997E+02 -0.18272E+06
 0.75499992E+02 -0.15717E+06
 0.75549995E+02 -0.12372E+06
 0.75599998E+02 -0.85603E+05
 0.75649994E+02 -0.48626E+05
 0.75699997E+02 -0.16166E+05
 0.75749992E+02  0.13614E+05
 0.75799995E+02  0.42102E+05
 0.75849998E+02  0.66864E+05
 0.75899994E+02  0.84788E+05
 0.75949997E+02  0.91274E+05
 0.75999992E+02  0.84130E+05
 0.76049995E+02  0.74686E+05
 0.76099998E+02  0.75167E+05
 0.76149994E+02  0.82328E+05
 0.76199997E+02  0.88228E+05
 0.76249992E+02  0.87715E+05
 0.76299995E+02  0.82147E+05
 0.76349998E+02  0.71448E+05
 0.76399994E+02  0.54407E+05
 0.76449997E+02  0.37467E+05
 0.76499992E+02  0.22242E+05
 0.76549995E+02  0.57992E+04
 0.76599998E+02 -0.12004E+05
 0.76649994E+02 -0.32373E+05
 0.76699997E+02 -0.54996E+05
 0.76749992E+02 -0.79486E+05
 0.76799995E+02 -0.10716E+06
 0.76849998E+02 -0.14076E+06
 0.76899994E+02 -0.17789E+06
 0.76949997E+02 -0.21461E+06
 0.76999992E+02 -0.24721E+06
 0.77049995E+02 -0.27471E+06
 0.77099998E+02 -0.29467E+06
 0.77149994E+02 -0.30117E+06
 0.77199997E+02 -0.29398E+06
 0.77249992E+02 -0.27783E+06
 0.77299995E+02 -0.26104E+06
 0.77349998E+02 -0.24470E+06
 0.77399994E+02 -0.22702E+06
 0.77449997E+02 -0.20853E+06
 0.77499992E+02 -0.18717E+06
 0.77549995E+02 -0.15926E+06
 0.77599998E+02 -0.12336E+06
 0.77649994E+02 -0.87387E+05
 0.77699997E+02 -0.57667E+05
 0.77749992E+02 -0.35210E+05
 0.77799995E+02 -0.15705E+05
 0.77849998E+02  0.24015E+04
 0.77899994E+02  0.17396E+05
 0.77949997E+02  0.34480E+05
 0.77999992E+02  0.58153E+05
 0.78049995E+02  0.86070E+05
 0.78099998E+02  0.11339E+06
 0.78149994E+02  0.13428E+06
 0.78199997E+02  0.14813E+06
 0.78249992E+02  0.15984E+06
 0.78299995E+02  0.16743E+06
 0.78349998E+02  0.17227E+06
 0.78399994E+02  0.17912E+06
 0.78449997E+02  0.19228E+06
 0.78499992E+02  0.21092E+06
 0.78549995E+02  0.23189E+06
 0.78599998E+02  0.25370E+06
 0.78649994E+02  0.26916E+06
 0.78699997E+02  0.27526E+06
 0.78749992E+02  0.27631E+06
 0.78799995E+02  0.27363E+06
 0.78849998E+02  0.26645E+06
 0.78899994E+02  0.24851E+06
 0.78949997E+02  0.21940E+06
 0.78999992E+02  0.18627E+06
 0.79049995E+02  0.15222E+06
 0.79099998E+02  0.11885E+06
 0.79149994E+02  0.87763E+05
 0.79199997E+02  0.62536E+05
 0.79249992E+02  0.39185E+05
 0.79299995E+02  0.13767E+05
 0.79349998E+02 -0.12607E+05
 0.79399994E+02 -0.41427E+05
 0.79449997E+02 -0.72796E+05
 0.79499992E+02 -0.10276E+06
 0.79549995E+02 -0.12801E+06
 0.79599998E+02 -0.15248E+06
 0.79649994E+02 -0.17921E+06
 0.79699997E+02 -0.21003E+06
 0.79749992E+02 -0.24690E+06
 0.79799995E+02 -0.28257E+06
 0.79849998E+02 -0.30716E+06
 0.79899994E+02 -0.31354E+06
 0.79949997E+02 -0.30212E+06
 0.79999992E+02 -0.27689E+06
 0.80049995E+02 -0.24505E+06
 0.80099998E+02 -0.21368E+06
 0.80149994E+02 -0.18746E+06
 0.80199997E+02 -0.16920E+06
 0.80249992E+02 -0.15583E+06
 0.80299995E+02 -0.14591E+06
 0.80349998E+02 -0.13918E+06
 0.80399994E+02 -0.13133E+06
 0.80449997E+02 -0.11969E+06
 0.80499992E+02 -0.10562E+06
 0.80549995E+02 -0.85278E+05
 0.80599998E+02 -0.53149E+05
 0.80649994E+02 -0.41049E+04
 0.80699997E+02  0.58778E+05
 0.80749992E+02  0.12698E+06
 0.80799995E+02  0.19541E+06
 0.80849998E+02  0.25828E+06
 0.80899994E+02  0.31323E+06
 0.80949997E+02  0.35605E+06
 0.80999992E+02  0.38430E+06
 0.81049995E+02  0.39821E+06
 0.81099998E+02  0.40112E+06
 0.81149994E+02  0.39565E+06
 0.81199997E+02  0.38375E+06
 0.81249992E+02  0.36913E+06
 0.81299995E+02  0.35559E+06
 0.81349998E+02  0.34347E+06
 0.81399994E+02  0.32422E+06
 0.81449997E+02  0.29958E+06
 0.81499992E+02  0.27298E+06
 0.81549995E+02  0.24414E+06
 0.81599998E+02  0.21232E+06
 0.81649994E+02  0.18048E+06
 0.81699997E+02  0.15383E+06
 0.81749992E+02  0.13229E+06
 0.81799995E+02  0.11441E+06
 0.81849998E+02  0.96296E+05
 0.81899994E+02  0.77173E+05
 0.81949997E+02  0.56033E+05
 0.81999992E+02  0.34490E+05
 0.82049995E+02  0.16040E+05
 0.82099998E+02  0.17730E+04
 0.82149994E+02 -0.70726E+04
 0.82199997E+02 -0.11227E+05
 0.82249992E+02 -0.14014E+05
 0.82299995E+02 -0.16489E+05
 0.82349998E+02 -0.20760E+05
 0.82399994E+02 -0.25893E+05
 0.82449997E+02 -0.27523E+05
 0.82499992E+02 -0.28897E+05
 0.82549995E+02 -0.33527E+05
 0.82599998E+02 -0.42135E+05
 0.82649994E+02 -0.52836E+05
 0.82699997E+02 -0.61783E+05
 0.82749992E+02 -0.68415E+05
 0.82799995E+02 -0.76182E+05
 0.82849998E+02 -0.83358E+05
 0.82899994E+02 -0.82287E+05
 0.82949997E+02 -0.68480E+05
 0.82999992E+02 -0.47028E+05
 0.83049995E+02 -0.25621E+05
 0.83099998E+02 -0.10780E+05
 0.83149994E+02 -0.63996E+04
 0.83199997E+02 -0.12309E+05
 0.83249992E+02 -0.25233E+05
 0.83299995E+02 -0.39513E+05
 0.83349998E+02 -0.57016E+05
 0.83399994E+02 -0.79002E+05
 0.83449997E+02 -0.10534E+06
 0.83499992E+02 -0.13035E+06
 0.83549995E+02 -0.14545E+06
 0.83599998E+02 -0.15085E+06
 0.83649994E+02 -0.14702E+06
 0.83699997E+02 -0.13682E+06
 0.83749992E+02 -0.12353E+06
 0.83799995E+02 -0.10701E+06
 0.83849998E+02 -0.87597E+05
 0.83899994E+02 -0.68221E+05
 0.83949997E+02 -0.53625E+05
 0.83999992E+02 -0.46355E+05
 0.84049995E+02 -0.47255E+05
 0.84099998E+02 -0.52813E+05
 0.84149994E+02 -0.60883E+05
 0.84199997E+02 -0.70449E+05
 0.84249992E+02 -0.78291E+05
 0.84299995E+02 -0.88060E+05
 0.84349998E+02 -0.10326E+06
 0.84399994E+02 -0.11857E+06
 0.84449997E+02 -0.12697E+06
 0.84499992E+02 -0.12822E+06
 0.84549995E+02 -0.12375E+06
 0.84599998E+02 -0.11429E+06
 0.84649994E+02 -0.10193E+06
 0.84699997E+02 -0.88250E+05
 0.84749992E+02 -0.74573E+05
 0.84799995E+02 -0.61953E+05
 0.84849998E+02 -0.52599E+05
 0.84899994E+02 -0.48771E+05
 0.84949997E+02 -0.49907E+05
 0.84999992E+02 -0.54773E+05
 0.85049995E+02 -0.60652E+05
 0.85099998E+02 -0.62191E+05
 0.85149994E+02 -0.57580E+05
 0.85199997E+02 -0.51333E+05
 0.85249992E+02 -0.45457E+05
 0.85299995E+02 -0.40505E+05
 0.85349998E+02 -0.38134E+05
 0.85399994E+02 -0.36857E+05
 0.85449997E+02 -0.36253E+05
 0.85499992E+02 -0.37039E+05
 0.85549995E+02 -0.37065E+05
 0.85599998E+02 -0.33102E+05
 0.85649994E+02 -0.26616E+05
 0.85699997E+02 -0.16047E+05
 0.85749992E+02 -0.11082E+04
 0.85799995E+02  0.15862E+05
 0.85849998E+02  0.34370E+05
 0.85899994E+02  0.52065E+05
 0.85949997E+02  0.62882E+05
 0.85999992E+02  0.61178E+05
 0.86049995E+02  0.53132E+05
 0.86099998E+02  0.46342E+05
 0.86149994E+02  0.42871E+05
 0.86199997E+02  0.43167E+05
 0.86249992E+02  0.49199E+05
 0.86299995E+02  0.61196E+05
 0.86349998E+02  0.78372E+05
 0.86399994E+02  0.10107E+06
 0.86449997E+02  0.12912E+06
 0.86499992E+02  0.16075E+06
 0.86549995E+02  0.19322E+06
 0.86599998E+02  0.22257E+06
 0.86649994E+02  0.24401E+06
 0.86699997E+02  0.25452E+06
 0.86749992E+02  0.25144E+06
 0.86799995E+02  0.23708E+06
 0.86849998E+02  0.21480E+06
 0.86899994E+02  0.18563E+06
 0.86949997E+02  0.15027E+06
 0.86999992E+02  0.11217E+06
 0.87049995E+02  0.75602E+05
 0.87099998E+02  0.43418E+05
 0.87149994E+02  0.14512E+05
 0.87199997E+02 -0.11681E+05
 0.87249992E+02 -0.32630E+05
 0.87299995E+02 -0.49377E+05
 0.87349998E+02 -0.62424E+05
 0.87399994E+02 -0.74028E+05
 0.87449997E+02 -0.83701E+05
 0.87499992E+02 -0.90963E+05
 0.87549995E+02 -0.96677E+05
 0.87599991E+02 -0.10017E+06
 0.87649994E+02 -0.10393E+06
 0.87699997E+02 -0.10443E+06
 0.87749992E+02 -0.98906E+05
 0.87799995E+02 -0.93162E+05
 0.87849991E+02 -0.93101E+05
 0.87899994E+02 -0.97553E+05
 0.87949997E+02 -0.99718E+05
 0.87999992E+02 -0.98229E+05
 0.88049995E+02 -0.94711E+05
 0.88099991E+02 -0.88446E+05
 0.88149994E+02 -0.82408E+05
 0.88199997E+02 -0.78064E+05
 0.88249992E+02 -0.75600E+05
 0.88299995E+02 -0.77141E+05
 0.88349991E+02 -0.83756E+05
 0.88399994E+02 -0.92744E+05
 0.88449997E+02 -0.98420E+05
 0.88499992E+02 -0.97860E+05
 0.88549995E+02 -0.92221E+05
 0.88599991E+02 -0.78871E+05
 0.88649994E+02 -0.55604E+05
 0.88699997E+02 -0.25896E+05
 0.88749992E+02  0.66354E+04
 0.88799995E+02  0.37608E+05
 0.88849991E+02  0.65751E+05
 0.88899994E+02  0.91639E+05
 0.88949997E+02  0.11540E+06
 0.88999992E+02  0.13500E+06
 0.89049995E+02  0.14836E+06
 0.89099991E+02  0.15680E+06
 0.89149994E+02  0.16465E+06
 0.89199997E+02  0.17437E+06
 0.89249992E+02  0.18245E+06
 0.89299995E+02  0.18492E+06
 0.89349991E+02  0.18441E+06
 0.89399994E+02  0.18536E+06
 0.89449997E+02  0.18528E+06
 0.89499992E+02  0.17923E+06
 0.89549995E+02  0.16722E+06
 0.89599991E+02  0.15328E+06
 0.89649994E+02  0.13948E+06
 0.89699997E+02  0.12499E+06
 0.89749992E+02  0.10886E+06
 0.89799995E+02  0.90373E+05
 0.89849991E+02  0.68737E+05
 0.89899994E+02  0.45417E+05
 0.89949997E+02  0.20789E+05
 0.89999992E+02 -0.22377E+04
 0.90049995E+02 -0.19935E+05
 0.90099991E+02 -0.33728E+05
 0.90149994E+02 -0.45340E+05
 0.90199997E+02 -0.57660E+05
 0.90249992E+02 -0.70284E+05
 0.90299995E+02 -0.81644E+05
 0.90349991E+02 -0.90928E+05
 0.90399994E+02 -0.95868E+05
 0.90449997E+02 -0.96211E+05
 0.90499992E+02 -0.93163E+05
 0.90549995E+02 -0.89059E+05
 0.90599991E+02 -0.85281E+05
 0.90649994E+02 -0.84165E+05
 0.90699997E+02 -0.86209E+05
 0.90749992E+02 -0.89287E+05
 0.90799995E+02 -0.95722E+05
 0.90849991E+02 -0.10795E+06
 0.90899994E+02 -0.12516E+06
 0.90949997E+02 -0.14215E+06
 0.90999992E+02 -0.15250E+06
 0.91049995E+02 -0.15520E+06
 0.91099991E+02 -0.15078E+06
 0.91149994E+02 -0.14206E+06
 0.91199997E+02 -0.13209E+06
 0.91249992E+02 -0.12075E+06
 0.91299995E+02 -0.11011E+06
 0.91349991E+02 -0.10267E+06
 0.91399994E+02 -0.97332E+05
 0.91449997E+02 -0.93521E+05
 0.91499992E+02 -0.90429E+05
 0.91549995E+02 -0.83873E+05
 0.91599991E+02 -0.71195E+05
 0.91649994E+02 -0.50146E+05
 0.91699997E+02 -0.21927E+05
 0.91749992E+02  0.92198E+04
 0.91799995E+02  0.43396E+05
 0.91849991E+02  0.77925E+05
 0.91899994E+02  0.10774E+06
 0.91949997E+02  0.12724E+06
 0.91999992E+02  0.13584E+06
 0.92049995E+02  0.13830E+06
 0.92099991E+02  0.13531E+06
 0.92149994E+02  0.12964E+06
 0.92199997E+02  0.12409E+06
 0.92249992E+02  0.11837E+06
 0.92299995E+02  0.11149E+06
 0.92349991E+02  0.10188E+06
 0.92399994E+02  0.89702E+05
 0.92449997E+02  0.79871E+05
 0.92499992E+02  0.77288E+05
 0.92549995E+02  0.79193E+05
 0.92599991E+02  0.79608E+05
 0.92649994E+02  0.76579E+05
 0.92699997E+02  0.72122E+05
 0.92749992E+02  0.67142E+05
 0.92799995E+02  0.61887E+05
 0.92849991E+02  0.56214E+05
 0.92899994E+02  0.49026E+05
 0.92949997E+02  0.40940E+05
 0.92999992E+02  0.31798E+05
 0.93049995E+02  0.21194E+05
 0.93099991E+02  0.95783E+04
 0.93149994E+02 -0.24712E+04
 0.93199997E+02 -0.14664E+05
 0.93249992E+02 -0.27336E+05
 0.93299995E+02 -0.38780E+05
 0.93349991E+02 -0.49427E+05
 0.93399994E+02 -0.58884E+05
 0.93449997E+02 -0.66992E+05
 0.93499992E+02 -0.74579E+05
 0.93549995E+02 -0.79362E+05
 0.93599991E+02 -0.80236E+05
 0.93649994E+02 -0.76705E+05
 0.93699997E+02 -0.70101E+05
 0.93749992E+02 -0.62150E+05
 0.93799995E+02 -0.52095E+05
 0.93849991E+02 -0.37752E+05
 0.93899994E+02 -0.18365E+05
 0.93949997E+02  0.44791E+04
 0.93999992E+02  0.29968E+05
 0.94049995E+02  0.54979E+05
 0.94099991E+02  0.77713E+05
 0.94149994E+02  0.98993E+05
 0.94199997E+02  0.11677E+06
 0.94249992E+02  0.12541E+06
 0.94299995E+02  0.12243E+06
 0.94349991E+02  0.11181E+06
 0.94399994E+02  0.97309E+05
 0.94449997E+02  0.81772E+05
 0.94499992E+02  0.66153E+05
 0.94549995E+02  0.51957E+05
 0.94599991E+02  0.35664E+05
 0.94649994E+02  0.16588E+05
 0.94699997E+02  0.33967E+03
 0.94749992E+02 -0.11444E+05
 0.94799995E+02 -0.19466E+05
 0.94849991E+02 -0.24329E+05
 0.94899994E+02 -0.25879E+05
 0.94949997E+02 -0.23852E+05
 0.94999992E+02 -0.18338E+05
 0.95049995E+02 -0.98587E+04
 0.95099991E+02  0.16461E+04
 0.95149994E+02  0.13094E+05
 0.95199997E+02  0.23853E+05
 0.95249992E+02  0.32642E+05
 0.95299995E+02  0.37302E+05
 0.95349991E+02  0.38417E+05
 0.95399994E+02  0.36490E+05
 0.95449997E+02  0.35210E+05
 0.95499992E+02  0.37056E+05
 0.95549995E+02  0.41413E+05
 0.95599991E+02  0.46348E+05
 0.95649994E+02  0.47590E+05
 0.95699997E+02  0.43750E+05
 0.95749992E+02  0.35254E+05
 0.95799995E+02  0.21673E+05
 0.95849991E+02  0.31736E+04
 0.95899994E+02 -0.19814E+05
 0.95949997E+02 -0.45540E+05
 0.95999992E+02 -0.72139E+05
 0.96049995E+02 -0.97324E+05
 0.96099991E+02 -0.12074E+06
 0.96149994E+02 -0.14328E+06
 0.96199997E+02 -0.16276E+06
 0.96249992E+02 -0.17701E+06
 0.96299995E+02 -0.18508E+06
 0.96349991E+02 -0.18858E+06
 0.96399994E+02 -0.19320E+06
 0.96449997E+02 -0.19957E+06
 0.96499992E+02 -0.20493E+06
 0.96549995E+02 -0.20610E+06
 0.96599991E+02 -0.20208E+06
 0.96649994E+02 -0.19435E+06
 0.96699997E+02 -0.18241E+06
 0.96749992E+02 -0.16595E+06
 0.96799995E+02 -0.14471E+06
 0.96849991E+02 -0.12062E+06
 0.96899994E+02 -0.98738E+05
 0.96949997E+02 -0.81460E+05
 0.96999992E+02 -0.68924E+05
 0.97049995E+02 -0.60895E+05
 0.97099991E+02 -0.55934E+05
 0.97149994E+02 -0.53166E+05
 0.97199997E+02 -0.53050E+05
 0.97249992E+02 -0.56918E+05
 0.97299995E+02 -0.66100E+05
 0.97349991E+02 -0.80771E+05
 0.97399994E+02 -0.95779E+05
 0.97449997E+02 -0.10704E+06
 0.97499992E+02 -0.11534E+06
 0.97549995E+02 -0.12031E+06
 0.97599991E+02 -0.12074E+06
 0.97649994E+02 -0.11802E+06
 0.97699997E+02 -0.11495E+06
 0.97749992E+02 -0.10991E+06
 0.97799995E+02 -0.10168E+06
 0.97849991E+02 -0.91639E+05
 0.97899994E+02 -0.80744E+05
 0.97949997E+02 -0.67926E+05
 0.97999992E+02 -0.52182E+05
