-0.20000000E+01 -0.20078E+05
-0.19500000E+01 -0.19495E+05
-0.19000000E+01 -0.19164E+05
-0.18500000E+01 -0.18941E+05
-0.18000000E+01 -0.19068E+05
-0.17500000E+01 -0.19541E+05
-0.17000000E+01 -0.20126E+05
-0.16500001E+01 -0.20575E+05
-0.16000000E+01 -0.20563E+05
-0.15500000E+01 -0.20058E+05
-0.15000000E+01 -0.19290E+05
-0.14500000E+01 -0.18416E+05
-0.14000001E+01 -0.17530E+05
-0.13500000E+01 -0.16662E+05
-0.13000001E+01 -0.15829E+05
-0.12500000E+01 -0.14871E+05
-0.12000000E+01 -0.13674E+05
-0.11500001E+01 -0.12168E+05
-0.11000000E+01 -0.10304E+05
-0.10500001E+01 -0.81677E+04
-0.10000000E+01 -0.58033E+04
-0.95000005E+00 -0.32867E+04
-0.90000010E+00 -0.69083E+03
-0.85000002E+00  0.19378E+04
-0.80000007E+00  0.45320E+04
-0.75000012E+00  0.69475E+04
-0.70000005E+00  0.92070E+04
-0.65000010E+00  0.11358E+05
-0.60000014E+00  0.13405E+05
-0.55000007E+00  0.15343E+05
-0.50000012E+00  0.16951E+05
-0.45000005E+00  0.18012E+05
-0.40000010E+00  0.18403E+05
-0.35000014E+00  0.18194E+05
-0.30000007E+00  0.17627E+05
-0.25000012E+00  0.16857E+05
-0.20000005E+00  0.15969E+05
-0.15000010E+00  0.15125E+05
-0.10000014E+00  0.14271E+05
-0.50000072E-01  0.13337E+05
-0.11920929E-06  0.12360E+05
 0.49999952E-01  0.11431E+05
 0.99999905E-01  0.10737E+05
 0.14999986E+00  0.10247E+05
 0.19999981E+00  0.99967E+04
 0.24999976E+00  0.98593E+04
 0.29999995E+00  0.97144E+04
 0.34999990E+00  0.95889E+04
 0.39999986E+00  0.94195E+04
 0.44999981E+00  0.91648E+04
 0.49999976E+00  0.87934E+04
 0.54999995E+00  0.84197E+04
 0.59999990E+00  0.80729E+04
 0.64999986E+00  0.78261E+04
 0.69999981E+00  0.75848E+04
 0.74999976E+00  0.72383E+04
 0.79999971E+00  0.67512E+04
 0.84999990E+00  0.59619E+04
 0.89999986E+00  0.47944E+04
 0.94999981E+00  0.31751E+04
 0.99999976E+00  0.11645E+04
 0.10499997E+01 -0.11873E+04
 0.10999999E+01 -0.37587E+04
 0.11499999E+01 -0.64299E+04
 0.11999998E+01 -0.90870E+04
 0.12499998E+01 -0.11679E+05
 0.12999997E+01 -0.14299E+05
 0.13499999E+01 -0.16850E+05
 0.13999999E+01 -0.19175E+05
 0.14499998E+01 -0.21118E+05
 0.14999998E+01 -0.22533E+05
 0.15499997E+01 -0.23313E+05
 0.15999999E+01 -0.23450E+05
 0.16499999E+01 -0.22863E+05
 0.16999998E+01 -0.21563E+05
 0.17499998E+01 -0.19732E+05
 0.17999997E+01 -0.17531E+05
 0.18499997E+01 -0.15159E+05
 0.18999999E+01 -0.12884E+05
 0.19499998E+01 -0.10815E+05
 0.19999998E+01 -0.89037E+04
 0.20499997E+01 -0.71191E+04
 0.20999999E+01 -0.56200E+04
 0.21499996E+01 -0.46930E+04
 0.21999998E+01 -0.43787E+04
 0.22499995E+01 -0.45315E+04
 0.22999997E+01 -0.49088E+04
 0.23499999E+01 -0.52321E+04
 0.23999996E+01 -0.51962E+04
 0.24499998E+01 -0.46519E+04
 0.24999995E+01 -0.37429E+04
 0.25499997E+01 -0.28232E+04
 0.25999999E+01 -0.21069E+04
 0.26499996E+01 -0.15734E+04
 0.26999998E+01 -0.10761E+04
 0.27499995E+01 -0.42281E+03
 0.27999997E+01  0.48401E+03
 0.28499999E+01  0.16680E+04
 0.28999996E+01  0.30324E+04
 0.29499998E+01  0.45221E+04
 0.29999995E+01  0.61857E+04
 0.30499997E+01  0.80020E+04
 0.30999999E+01  0.98939E+04
 0.31499996E+01  0.11749E+05
 0.31999998E+01  0.13441E+05
 0.32499995E+01  0.14889E+05
 0.32999997E+01  0.16104E+05
 0.33499999E+01  0.17094E+05
 0.33999996E+01  0.17880E+05
 0.34499998E+01  0.18347E+05
 0.34999995E+01  0.18510E+05
 0.35499997E+01  0.18558E+05
 0.35999994E+01  0.18432E+05
 0.36499996E+01  0.18111E+05
 0.36999998E+01  0.17479E+05
 0.37499995E+01  0.16552E+05
 0.37999997E+01  0.15482E+05
 0.38499994E+01  0.14363E+05
 0.38999996E+01  0.13350E+05
 0.39499998E+01  0.12421E+05
 0.39999995E+01  0.11574E+05
 0.40499997E+01  0.10775E+05
 0.40999994E+01  0.98471E+04
 0.41499996E+01  0.86774E+04
 0.41999998E+01  0.73731E+04
 0.42499995E+01  0.61320E+04
 0.42999997E+01  0.51440E+04
 0.43499994E+01  0.45809E+04
 0.43999996E+01  0.44876E+04
 0.44499998E+01  0.47896E+04
 0.44999995E+01  0.52326E+04
 0.45499997E+01  0.57189E+04
 0.45999994E+01  0.64115E+04
 0.46499996E+01  0.74801E+04
 0.46999998E+01  0.90546E+04
 0.47499995E+01  0.11094E+05
 0.47999997E+01  0.13376E+05
 0.48499994E+01  0.15769E+05
 0.48999996E+01  0.18062E+05
 0.49499998E+01  0.19974E+05
 0.49999995E+01  0.21400E+05
 0.50499997E+01  0.22430E+05
 0.50999994E+01  0.23176E+05
 0.51499996E+01  0.23702E+05
 0.51999998E+01  0.23988E+05
 0.52499995E+01  0.23947E+05
 0.52999997E+01  0.23585E+05
 0.53499994E+01  0.22797E+05
 0.53999996E+01  0.21535E+05
 0.54499993E+01  0.19961E+05
 0.54999995E+01  0.18295E+05
 0.55499997E+01  0.16692E+05
 0.55999994E+01  0.15151E+05
 0.56499996E+01  0.13543E+05
 0.56999993E+01  0.11726E+05
 0.57499995E+01  0.95754E+04
 0.57999997E+01  0.70558E+04
 0.58499994E+01  0.43081E+04
 0.58999996E+01  0.15167E+04
 0.59499993E+01 -0.11830E+04
 0.59999995E+01 -0.37021E+04
 0.60499992E+01 -0.59620E+04
 0.60999994E+01 -0.79385E+04
 0.61499996E+01 -0.96868E+04
 0.61999998E+01 -0.11341E+05
 0.62499990E+01 -0.12913E+05
 0.62999992E+01 -0.14281E+05
 0.63499994E+01 -0.15315E+05
 0.63999996E+01 -0.16055E+05
 0.64499998E+01 -0.16664E+05
 0.64999990E+01 -0.17224E+05
 0.65499992E+01 -0.17680E+05
 0.65999994E+01 -0.17975E+05
 0.66499996E+01 -0.18215E+05
 0.66999998E+01 -0.18480E+05
 0.67499990E+01 -0.18802E+05
 0.67999992E+01 -0.19150E+05
 0.68499994E+01 -0.19525E+05
 0.68999996E+01 -0.19763E+05
 0.69499998E+01 -0.19639E+05
 0.69999990E+01 -0.19087E+05
 0.70499992E+01 -0.18159E+05
 0.70999994E+01 -0.17013E+05
 0.71499996E+01 -0.15794E+05
 0.71999998E+01 -0.14451E+05
 0.72499990E+01 -0.12908E+05
 0.72999992E+01 -0.11314E+05
 0.73499994E+01 -0.98405E+04
 0.73999996E+01 -0.86148E+04
 0.74499998E+01 -0.76167E+04
 0.74999990E+01 -0.66809E+04
 0.75499992E+01 -0.56690E+04
 0.75999994E+01 -0.45068E+04
 0.76499996E+01 -0.31720E+04
 0.76999998E+01 -0.16610E+04
 0.77499990E+01 -0.28142E+02
 0.77999992E+01  0.15633E+04
 0.78499994E+01  0.29543E+04
 0.78999996E+01  0.40550E+04
 0.79499998E+01  0.48600E+04
 0.79999990E+01  0.53012E+04
 0.80499992E+01  0.53763E+04
 0.80999994E+01  0.51602E+04
 0.81499996E+01  0.48157E+04
 0.81999998E+01  0.45987E+04
 0.82499990E+01  0.46424E+04
 0.82999992E+01  0.50442E+04
 0.83499994E+01  0.58736E+04
 0.83999996E+01  0.70833E+04
 0.84499998E+01  0.84821E+04
 0.84999990E+01  0.99547E+04
 0.85499992E+01  0.11519E+05
 0.85999994E+01  0.13165E+05
 0.86499996E+01  0.14833E+05
 0.86999998E+01  0.16469E+05
 0.87499990E+01  0.17994E+05
 0.87999992E+01  0.19378E+05
 0.88499994E+01  0.20564E+05
 0.88999996E+01  0.21436E+05
 0.89499998E+01  0.22111E+05
 0.89999990E+01  0.22762E+05
 0.90499992E+01  0.23454E+05
 0.90999994E+01  0.24208E+05
 0.91499996E+01  0.24989E+05
 0.91999989E+01  0.25641E+05
 0.92499990E+01  0.25946E+05
 0.92999992E+01  0.25725E+05
 0.93499994E+01  0.24963E+05
 0.93999996E+01  0.23806E+05
 0.94499989E+01  0.22374E+05
 0.94999990E+01  0.20638E+05
 0.95499992E+01  0.18578E+05
 0.95999994E+01  0.16286E+05
 0.96499996E+01  0.13812E+05
 0.96999989E+01  0.11275E+05
 0.97499990E+01  0.87230E+04
 0.97999992E+01  0.61919E+04
 0.98499994E+01  0.37960E+04
 0.98999996E+01  0.16281E+04
 0.99499989E+01 -0.20868E+03
 0.99999990E+01 -0.16969E+04
 0.10049999E+02 -0.29161E+04
 0.10099999E+02 -0.37726E+04
 0.10150000E+02 -0.40770E+04
 0.10199999E+02 -0.38747E+04
 0.10249999E+02 -0.34179E+04
 0.10299999E+02 -0.30054E+04
 0.10349999E+02 -0.27046E+04
 0.10400000E+02 -0.22870E+04
 0.10449999E+02 -0.15865E+04
 0.10499999E+02 -0.67324E+03
 0.10549999E+02  0.15926E+03
 0.10599999E+02  0.57026E+03
 0.10650000E+02  0.52890E+03
 0.10699999E+02  0.18315E+03
 0.10749999E+02 -0.40529E+03
 0.10799999E+02 -0.11473E+04
 0.10849999E+02 -0.17890E+04
 0.10900000E+02 -0.21328E+04
 0.10949999E+02 -0.20681E+04
 0.10999999E+02 -0.15656E+04
 0.11049999E+02 -0.76770E+03
 0.11099999E+02  0.16588E+03
 0.11150000E+02  0.11195E+04
 0.11199999E+02  0.20162E+04
 0.11249999E+02  0.27578E+04
 0.11299999E+02  0.32389E+04
 0.11349999E+02  0.34585E+04
 0.11400000E+02  0.35282E+04
 0.11449999E+02  0.34355E+04
 0.11499999E+02  0.30448E+04
 0.11549999E+02  0.22659E+04
 0.11599999E+02  0.12633E+04
 0.11650000E+02  0.28670E+03
 0.11699999E+02 -0.51723E+03
 0.11749999E+02 -0.11647E+04
 0.11799999E+02 -0.18341E+04
 0.11849999E+02 -0.26541E+04
 0.11900000E+02 -0.36767E+04
 0.11949999E+02 -0.48627E+04
 0.11999999E+02 -0.62173E+04
 0.12049999E+02 -0.76196E+04
 0.12099999E+02 -0.89508E+04
 0.12150000E+02 -0.10128E+05
 0.12199999E+02 -0.11070E+05
 0.12249999E+02 -0.11849E+05
 0.12299999E+02 -0.12629E+05
 0.12349999E+02 -0.13561E+05
 0.12400000E+02 -0.14561E+05
 0.12449999E+02 -0.15567E+05
 0.12499999E+02 -0.16579E+05
 0.12549999E+02 -0.17458E+05
 0.12599999E+02 -0.18098E+05
 0.12649999E+02 -0.18507E+05
 0.12699999E+02 -0.18823E+05
 0.12749999E+02 -0.19085E+05
 0.12799999E+02 -0.19213E+05
 0.12849999E+02 -0.19313E+05
 0.12899999E+02 -0.19599E+05
 0.12949999E+02 -0.20043E+05
 0.12999999E+02 -0.20575E+05
 0.13049999E+02 -0.21143E+05
 0.13099999E+02 -0.21555E+05
 0.13149999E+02 -0.21795E+05
 0.13199999E+02 -0.21872E+05
 0.13249999E+02 -0.21647E+05
 0.13299999E+02 -0.21025E+05
 0.13349999E+02 -0.19960E+05
 0.13399999E+02 -0.18538E+05
 0.13449999E+02 -0.16956E+05
 0.13499999E+02 -0.15339E+05
 0.13549999E+02 -0.13661E+05
 0.13599999E+02 -0.11793E+05
 0.13649999E+02 -0.97364E+04
 0.13699999E+02 -0.75449E+04
 0.13749999E+02 -0.53237E+04
 0.13799999E+02 -0.31406E+04
 0.13849999E+02 -0.99142E+03
 0.13899999E+02  0.12491E+04
 0.13949999E+02  0.36376E+04
 0.13999999E+02  0.59693E+04
 0.14049999E+02  0.81274E+04
 0.14099998E+02  0.10073E+05
 0.14150000E+02  0.11806E+05
 0.14199999E+02  0.13197E+05
 0.14249998E+02  0.14120E+05
 0.14299999E+02  0.14575E+05
 0.14349998E+02  0.14608E+05
 0.14400000E+02  0.14367E+05
 0.14449999E+02  0.13974E+05
 0.14499998E+02  0.13494E+05
 0.14549999E+02  0.13063E+05
 0.14599998E+02  0.12841E+05
 0.14650000E+02  0.12873E+05
 0.14699999E+02  0.13165E+05
 0.14749998E+02  0.13676E+05
 0.14799999E+02  0.14296E+05
 0.14849998E+02  0.14852E+05
 0.14900000E+02  0.15157E+05
 0.14949999E+02  0.15098E+05
 0.14999998E+02  0.14703E+05
 0.15049999E+02  0.14088E+05
 0.15099998E+02  0.13374E+05
 0.15150000E+02  0.12591E+05
 0.15199999E+02  0.11619E+05
 0.15249998E+02  0.10333E+05
 0.15299999E+02  0.86549E+04
 0.15349998E+02  0.66459E+04
 0.15400000E+02  0.44394E+04
 0.15449999E+02  0.22380E+04
 0.15499998E+02  0.17420E+03
 0.15549999E+02 -0.17596E+04
 0.15599998E+02 -0.35018E+04
 0.15650000E+02 -0.50099E+04
 0.15699999E+02 -0.61665E+04
 0.15749998E+02 -0.68752E+04
 0.15799999E+02 -0.71910E+04
 0.15849998E+02 -0.71067E+04
 0.15900000E+02 -0.67245E+04
 0.15949999E+02 -0.60973E+04
 0.15999998E+02 -0.51921E+04
 0.16049999E+02 -0.39832E+04
 0.16099998E+02 -0.24627E+04
 0.16150000E+02 -0.78051E+03
 0.16199999E+02  0.88811E+03
 0.16249998E+02  0.23105E+04
 0.16299999E+02  0.33514E+04
 0.16349998E+02  0.39902E+04
 0.16400000E+02  0.42900E+04
 0.16449999E+02  0.44039E+04
 0.16499998E+02  0.44551E+04
 0.16549999E+02  0.44815E+04
 0.16599998E+02  0.44613E+04
 0.16650000E+02  0.43723E+04
 0.16699999E+02  0.42450E+04
 0.16749998E+02  0.41920E+04
 0.16799999E+02  0.43009E+04
 0.16849998E+02  0.46188E+04
 0.16900000E+02  0.51050E+04
 0.16949999E+02  0.57756E+04
 0.16999998E+02  0.66421E+04
 0.17049999E+02  0.75406E+04
 0.17099998E+02  0.82050E+04
 0.17150000E+02  0.85103E+04
 0.17199999E+02  0.85133E+04
 0.17249998E+02  0.82793E+04
 0.17299999E+02  0.78795E+04
 0.17349998E+02  0.73273E+04
 0.17400000E+02  0.67553E+04
 0.17449999E+02  0.62846E+04
 0.17499998E+02  0.59365E+04
 0.17549999E+02  0.55813E+04
 0.17599998E+02  0.50293E+04
 0.17650000E+02  0.42894E+04
 0.17699999E+02  0.33841E+04
 0.17749998E+02  0.23085E+04
 0.17799999E+02  0.10788E+04
 0.17849998E+02 -0.16047E+03
 0.17900000E+02 -0.12125E+04
 0.17949999E+02 -0.19911E+04
 0.17999998E+02 -0.25557E+04
 0.18049999E+02 -0.29083E+04
 0.18099998E+02 -0.30173E+04
 0.18150000E+02 -0.27986E+04
 0.18199999E+02 -0.21842E+04
 0.18249998E+02 -0.12142E+04
 0.18299999E+02  0.12921E+03
 0.18349998E+02  0.16694E+04
 0.18400000E+02  0.32635E+04
 0.18449999E+02  0.47524E+04
 0.18499998E+02  0.59572E+04
 0.18549999E+02  0.62558E+04
 0.18599998E+02  0.53070E+04
 0.18650000E+02  0.35280E+04
 0.18699999E+02  0.13898E+04
 0.18749998E+02 -0.56008E+03
 0.18799999E+02 -0.13752E+04
 0.18849998E+02 -0.17184E+04
 0.18900000E+02 -0.36363E+04
 0.18949999E+02 -0.76040E+04
 0.18999998E+02 -0.13587E+05
 0.19049999E+02 -0.18554E+05
 0.19099998E+02 -0.17955E+05
 0.19150000E+02 -0.86861E+04
 0.19199999E+02  0.18436E+04
 0.19249998E+02  0.89400E+04
 0.19299999E+02  0.25949E+05
 0.19349998E+02  0.59061E+05
 0.19400000E+02  0.94186E+05
 0.19449999E+02  0.10614E+06
 0.19499998E+02  0.74407E+05
 0.19549999E+02  0.15232E+05
 0.19599998E+02 -0.31316E+05
 0.19650000E+02 -0.60311E+05
 0.19699999E+02 -0.84008E+05
 0.19749998E+02 -0.92411E+05
 0.19799999E+02 -0.62958E+05
 0.19849998E+02  0.48549E+05
 0.19900000E+02  0.22754E+06
 0.19949999E+02  0.39594E+06
 0.19999998E+02  0.50907E+06
 0.20049999E+02  0.53335E+06
 0.20099998E+02  0.43613E+06
 0.20150000E+02  0.21853E+06
 0.20199999E+02 -0.38913E+05
 0.20249998E+02 -0.23247E+06
 0.20299999E+02 -0.32218E+06
 0.20349998E+02 -0.34876E+06
 0.20399998E+02 -0.34066E+06
 0.20449999E+02 -0.30459E+06
 0.20499998E+02 -0.26291E+06
 0.20549999E+02 -0.22195E+06
 0.20599998E+02 -0.94506E+05
 0.20649998E+02  0.10798E+06
 0.20699999E+02  0.29146E+06
 0.20749998E+02  0.38064E+06
 0.20799999E+02  0.26682E+06
 0.20849998E+02  0.27121E+05
 0.20899998E+02 -0.24716E+06
 0.20949999E+02 -0.40588E+06
 0.20999998E+02 -0.32740E+06
 0.21049999E+02 -0.11380E+06
 0.21099998E+02 -0.57751E+04
 0.21149998E+02 -0.38560E+05
 0.21199999E+02 -0.10321E+05
 0.21249998E+02  0.52740E+05
 0.21299999E+02  0.18184E+06
 0.21349998E+02  0.42888E+06
 0.21399998E+02  0.64182E+06
 0.21449999E+02  0.63496E+06
 0.21499998E+02  0.44734E+06
 0.21549999E+02  0.26553E+06
 0.21599998E+02  0.17355E+06
 0.21649998E+02  0.14814E+06
 0.21699999E+02  0.23598E+04
 0.21749998E+02 -0.30603E+06
 0.21799999E+02 -0.68644E+06
 0.21849998E+02 -0.87163E+06
 0.21899998E+02 -0.77565E+06
 0.21949999E+02 -0.58224E+06
 0.21999998E+02 -0.30153E+06
 0.22049999E+02 -0.40809E+05
 0.22099998E+02  0.13324E+06
 0.22149998E+02  0.28873E+06
 0.22199999E+02  0.45747E+06
 0.22249998E+02  0.52401E+06
 0.22299999E+02  0.37336E+06
 0.22349998E+02  0.17984E+06
 0.22399998E+02  0.51136E+05
 0.22449999E+02 -0.52138E+05
 0.22499998E+02 -0.18512E+06
 0.22549999E+02 -0.30073E+06
 0.22599998E+02 -0.31827E+06
 0.22649998E+02 -0.28506E+06
 0.22699999E+02 -0.21818E+06
 0.22749998E+02 -0.46882E+05
 0.22799999E+02  0.19430E+06
 0.22849998E+02  0.34107E+06
 0.22899998E+02  0.38746E+06
 0.22949999E+02  0.24933E+06
 0.22999998E+02  0.46954E+05
 0.23049999E+02 -0.11175E+06
 0.23099998E+02 -0.18900E+06
 0.23149998E+02 -0.14043E+06
 0.23199999E+02 -0.84310E+05
 0.23249998E+02 -0.85561E+05
 0.23299999E+02 -0.97992E+05
 0.23349998E+02 -0.89657E+05
 0.23399998E+02 -0.19549E+06
 0.23449999E+02 -0.14272E+06
 0.23499998E+02  0.10319E+06
 0.23549999E+02  0.33554E+06
 0.23599998E+02  0.39700E+06
 0.23649998E+02  0.11838E+06
 0.23699999E+02 -0.18133E+06
 0.23749998E+02 -0.28231E+06
 0.23799999E+02 -0.16640E+06
 0.23849998E+02  0.15550E+04
 0.23899998E+02 -0.85578E+05
 0.23949999E+02 -0.28233E+06
 0.23999998E+02 -0.45195E+06
 0.24049999E+02 -0.41237E+06
 0.24099998E+02 -0.20467E+06
 0.24149998E+02 -0.91338E+05
 0.24199999E+02  0.18653E+05
 0.24249998E+02  0.17354E+05
 0.24299999E+02 -0.12014E+06
 0.24349998E+02 -0.25152E+06
 0.24399998E+02 -0.26137E+06
 0.24449999E+02 -0.18671E+06
 0.24499998E+02 -0.18898E+06
 0.24549999E+02 -0.26363E+06
 0.24599998E+02 -0.40738E+06
 0.24649998E+02 -0.51222E+06
 0.24699999E+02 -0.39537E+06
 0.24749998E+02 -0.15071E+06
 0.24799999E+02  0.22609E+05
 0.24849998E+02  0.14912E+06
 0.24899998E+02  0.20887E+06
 0.24949999E+02  0.12705E+06
 0.24999998E+02  0.74582E+05
 0.25049999E+02  0.79845E+05
 0.25099998E+02  0.47019E+05
 0.25149998E+02  0.45518E+05
 0.25199999E+02  0.10359E+06
 0.25249998E+02  0.77501E+05
 0.25299999E+02  0.94036E+05
 0.25349998E+02  0.11126E+06
 0.25399998E+02  0.15908E+06
 0.25449999E+02  0.29046E+06
 0.25499998E+02  0.23267E+06
 0.25549999E+02  0.11879E+06
 0.25599998E+02  0.79020E+04
 0.25649998E+02  0.53206E+05
 0.25699999E+02  0.22552E+06
 0.25749998E+02  0.31345E+06
 0.25799999E+02  0.26032E+06
 0.25849998E+02  0.15433E+06
 0.25899998E+02  0.47199E+05
 0.25949999E+02 -0.12394E+06
 0.25999998E+02 -0.27590E+06
 0.26049999E+02 -0.31947E+06
 0.26099998E+02 -0.18811E+06
 0.26149998E+02 -0.86675E+05
 0.26199999E+02  0.38284E+05
 0.26249998E+02  0.16101E+06
 0.26299999E+02  0.24463E+06
 0.26349998E+02  0.33229E+06
 0.26399998E+02  0.39930E+06
 0.26449999E+02  0.40711E+06
 0.26499998E+02  0.33294E+06
 0.26549999E+02  0.35092E+06
 0.26599998E+02  0.36085E+06
 0.26649998E+02  0.22536E+06
 0.26699999E+02 -0.66371E+05
 0.26749998E+02 -0.34066E+06
 0.26799999E+02 -0.41522E+06
 0.26849998E+02 -0.32122E+06
 0.26899998E+02 -0.16475E+06
 0.26949999E+02  0.49359E+05
 0.26999998E+02  0.20250E+06
 0.27049997E+02  0.25536E+06
 0.27099998E+02  0.18820E+06
 0.27149998E+02  0.11847E+05
 0.27199999E+02 -0.13546E+06
 0.27249998E+02 -0.14530E+06
 0.27299997E+02 -0.51935E+05
 0.27349998E+02 -0.68219E+05
 0.27399998E+02 -0.16827E+06
 0.27449999E+02 -0.18673E+06
 0.27499998E+02 -0.58424E+05
 0.27549997E+02  0.19410E+05
 0.27599998E+02 -0.18132E+05
 0.27649998E+02 -0.79959E+05
 0.27699999E+02 -0.18136E+06
 0.27749998E+02 -0.24905E+06
 0.27799997E+02 -0.17055E+06
 0.27849998E+02  0.29153E+05
 0.27899998E+02  0.28606E+06
 0.27949999E+02  0.37076E+06
 0.27999998E+02  0.23999E+06
 0.28049997E+02  0.82817E+05
 0.28099998E+02 -0.12621E+06
 0.28149998E+02 -0.25321E+06
 0.28199999E+02 -0.26094E+06
 0.28249998E+02 -0.23539E+06
 0.28299997E+02 -0.22432E+06
 0.28349998E+02 -0.28666E+06
 0.28399998E+02 -0.29224E+06
 0.28449999E+02 -0.22330E+06
 0.28499998E+02 -0.13347E+06
 0.28549997E+02 -0.68811E+05
 0.28599998E+02 -0.31908E+05
 0.28649998E+02  0.74496E+05
 0.28699999E+02  0.96294E+05
 0.28749998E+02  0.41775E+05
 0.28799997E+02 -0.44068E+05
 0.28849998E+02 -0.10271E+06
 0.28899998E+02 -0.58006E+05
 0.28949999E+02  0.44620E+05
 0.28999998E+02  0.16004E+06
 0.29049997E+02  0.15532E+06
 0.29099998E+02  0.13944E+06
 0.29149998E+02  0.14206E+06
 0.29199999E+02  0.13057E+06
 0.29249998E+02  0.61857E+05
 0.29299997E+02 -0.16685E+05
 0.29349998E+02  0.24141E+05
 0.29399998E+02  0.10841E+06
 0.29449999E+02  0.79125E+05
 0.29499998E+02 -0.52774E+05
 0.29549997E+02 -0.20066E+06
 0.29599998E+02 -0.33020E+06
 0.29649998E+02 -0.31334E+06
 0.29699999E+02 -0.22471E+06
 0.29749998E+02 -0.17262E+06
 0.29799997E+02 -0.73026E+05
 0.29849998E+02  0.18424E+04
 0.29899998E+02  0.15384E+05
 0.29949999E+02  0.20380E+05
 0.29999998E+02 -0.29374E+05
 0.30049999E+02 -0.45259E+05
 0.30099998E+02  0.13503E+05
 0.30149998E+02  0.29366E+05
 0.30199997E+02 -0.86953E+05
 0.30249996E+02 -0.18618E+06
 0.30299999E+02 -0.18748E+06
 0.30349998E+02 -0.58482E+05
 0.30399998E+02  0.11108E+06
 0.30449997E+02  0.13187E+06
 0.30499996E+02  0.81029E+05
 0.30549999E+02 -0.21973E+05
 0.30599998E+02 -0.10732E+06
 0.30649998E+02 -0.12966E+06
 0.30699997E+02 -0.87699E+05
 0.30749996E+02 -0.23135E+05
 0.30799999E+02  0.11441E+06
 0.30849998E+02  0.18484E+06
 0.30899998E+02  0.12279E+06
 0.30949997E+02  0.97348E+05
 0.30999996E+02  0.43064E+05
 0.31049999E+02  0.12247E+06
 0.31099998E+02  0.28456E+06
 0.31149998E+02  0.26149E+06
 0.31199997E+02  0.68047E+05
 0.31249996E+02 -0.24400E+06
 0.31299999E+02 -0.47166E+06
 0.31349998E+02 -0.43683E+06
 0.31399998E+02 -0.23361E+06
 0.31449997E+02 -0.12410E+05
 0.31499996E+02  0.13097E+06
 0.31549999E+02  0.17748E+06
 0.31599998E+02  0.23469E+06
 0.31649998E+02  0.29898E+06
 0.31699997E+02  0.24361E+06
 0.31749996E+02  0.14049E+06
 0.31799999E+02  0.76813E+04
 0.31849998E+02 -0.18922E+06
 0.31899998E+02 -0.36271E+06
 0.31949997E+02 -0.40452E+06
 0.31999996E+02 -0.34046E+06
 0.32049999E+02 -0.22299E+06
 0.32099998E+02 -0.15212E+06
 0.32149998E+02 -0.33994E+05
 0.32199997E+02  0.15971E+06
 0.32249996E+02  0.32029E+06
 0.32299999E+02  0.44633E+06
 0.32349998E+02  0.33411E+06
 0.32399998E+02  0.19268E+06
 0.32449997E+02  0.14555E+06
 0.32499996E+02  0.52091E+05
 0.32549999E+02 -0.43560E+05
 0.32599998E+02 -0.18785E+06
 0.32649998E+02 -0.30784E+06
 0.32699997E+02 -0.27422E+06
 0.32749996E+02 -0.18594E+06
 0.32799999E+02 -0.81718E+05
 0.32849998E+02 -0.11765E+05
 0.32899998E+02 -0.71190E+05
 0.32949997E+02 -0.44020E+05
 0.32999996E+02 -0.19040E+05
 0.33049999E+02 -0.10867E+06
 0.33099998E+02 -0.26742E+06
 0.33149998E+02 -0.51552E+06
 0.33199997E+02 -0.49841E+06
 0.33249996E+02 -0.39691E+06
 0.33299999E+02 -0.46785E+06
 0.33349998E+02 -0.52325E+06
 0.33399998E+02 -0.71064E+06
 0.33449997E+02 -0.10293E+07
 0.33499996E+02 -0.13689E+07
 0.33549999E+02 -0.14963E+07
 0.33599998E+02 -0.12864E+07
 0.33649998E+02 -0.94644E+06
 0.33699997E+02 -0.54935E+06
 0.33749996E+02 -0.12431E+06
 0.33799999E+02  0.32365E+06
 0.33849998E+02  0.70638E+06
 0.33899998E+02  0.73243E+06
 0.33949997E+02  0.74742E+06
 0.33999996E+02  0.90794E+06
 0.34049999E+02  0.97970E+06
 0.34099998E+02  0.93245E+06
 0.34149998E+02  0.64524E+06
 0.34199997E+02  0.54390E+06
 0.34249996E+02  0.71002E+06
 0.34299999E+02  0.86160E+06
 0.34349998E+02  0.88573E+06
 0.34399998E+02  0.79377E+06
 0.34449997E+02  0.45764E+06
 0.34499996E+02 -0.16025E+06
 0.34549999E+02 -0.72641E+06
 0.34599998E+02 -0.95869E+06
 0.34649998E+02 -0.89992E+06
 0.34699997E+02 -0.86788E+06
 0.34749996E+02 -0.84025E+06
 0.34799999E+02 -0.51962E+06
 0.34849998E+02  0.28837E+06
 0.34899998E+02  0.11066E+07
 0.34949997E+02  0.13839E+07
 0.34999996E+02  0.12638E+07
 0.35049999E+02  0.10053E+07
 0.35099998E+02  0.71620E+06
 0.35149998E+02  0.59028E+06
 0.35199997E+02  0.60144E+06
 0.35249996E+02  0.87196E+06
 0.35299999E+02  0.98734E+06
 0.35349998E+02  0.52810E+06
 0.35399998E+02 -0.13476E+06
 0.35449997E+02 -0.68314E+06
 0.35499996E+02 -0.60493E+06
 0.35549999E+02 -0.18626E+06
 0.35599998E+02  0.21416E+06
 0.35649998E+02  0.51722E+06
 0.35699997E+02  0.52877E+06
 0.35749996E+02  0.29753E+06
 0.35799999E+02 -0.16687E+05
 0.35849998E+02 -0.84544E+05
 0.35899998E+02  0.24536E+06
 0.35949997E+02  0.78350E+06
 0.35999996E+02  0.10946E+07
 0.36049999E+02  0.10986E+07
 0.36099998E+02  0.99711E+06
 0.36149998E+02  0.95199E+06
 0.36199997E+02  0.80886E+06
 0.36249996E+02  0.54623E+06
 0.36299999E+02  0.42203E+06
 0.36349998E+02  0.41503E+06
 0.36399998E+02  0.39999E+06
 0.36449997E+02  0.27542E+06
 0.36499996E+02  0.28469E+06
 0.36549999E+02  0.29987E+06
 0.36599998E+02  0.56299E+04
 0.36649998E+02 -0.40688E+06
 0.36699997E+02 -0.69283E+06
 0.36749996E+02 -0.42700E+06
 0.36799999E+02  0.16651E+06
 0.36849998E+02  0.55436E+06
 0.36899998E+02  0.69950E+06
 0.36949997E+02  0.89657E+06
 0.36999996E+02  0.13235E+07
 0.37049999E+02  0.16212E+07
 0.37099998E+02  0.17537E+07
 0.37149998E+02  0.17343E+07
 0.37199997E+02  0.15454E+07
 0.37249996E+02  0.14588E+07
 0.37299999E+02  0.15242E+07
 0.37349998E+02  0.16808E+07
 0.37399998E+02  0.17295E+07
 0.37449997E+02  0.14330E+07
 0.37499996E+02  0.88163E+06
 0.37549999E+02  0.24184E+06
 0.37599998E+02 -0.28275E+06
 0.37649998E+02 -0.50920E+06
 0.37699997E+02 -0.40029E+06
 0.37749996E+02 -0.14110E+06
 0.37799999E+02  0.10952E+06
 0.37849998E+02  0.41255E+06
 0.37899998E+02  0.67110E+06
 0.37949997E+02  0.90509E+06
 0.37999996E+02  0.11121E+07
 0.38049999E+02  0.11766E+07
 0.38099998E+02  0.11145E+07
 0.38149998E+02  0.89378E+06
 0.38199997E+02  0.78447E+06
 0.38249996E+02  0.88351E+06
 0.38299999E+02  0.92079E+06
 0.38349998E+02  0.65227E+06
 0.38399998E+02  0.14523E+06
 0.38449997E+02 -0.22090E+06
 0.38499996E+02 -0.26083E+06
 0.38549999E+02 -0.25896E+06
 0.38599998E+02 -0.45025E+06
 0.38649998E+02 -0.54158E+06
 0.38699997E+02 -0.37324E+06
 0.38749996E+02 -0.76890E+05
 0.38799999E+02  0.23460E+06
 0.38849998E+02  0.44127E+06
 0.38899998E+02  0.39753E+06
 0.38949997E+02  0.12749E+06
 0.38999996E+02 -0.20331E+06
 0.39049999E+02 -0.43943E+06
 0.39099998E+02 -0.55361E+06
 0.39149998E+02 -0.58284E+06
 0.39199997E+02 -0.61649E+06
 0.39249996E+02 -0.63540E+06
 0.39299999E+02 -0.66086E+06
 0.39349998E+02 -0.89089E+06
 0.39399998E+02 -0.12220E+07
 0.39449997E+02 -0.14150E+07
 0.39499996E+02 -0.13561E+07
 0.39549999E+02 -0.12193E+07
 0.39599998E+02 -0.12476E+07
 0.39649998E+02 -0.13257E+07
 0.39699997E+02 -0.13662E+07
 0.39749996E+02 -0.13199E+07
 0.39799999E+02 -0.12325E+07
 0.39849998E+02 -0.11880E+07
 0.39899998E+02 -0.10267E+07
 0.39949997E+02 -0.68746E+06
 0.39999996E+02 -0.34326E+06
 0.40049999E+02 -0.24079E+06
 0.40099998E+02 -0.34174E+06
 0.40149998E+02 -0.47221E+06
 0.40199997E+02 -0.62494E+06
 0.40249996E+02 -0.81218E+06
 0.40299999E+02 -0.89055E+06
 0.40349998E+02 -0.78426E+06
 0.40399998E+02 -0.58125E+06
 0.40449997E+02 -0.31574E+06
 0.40499996E+02 -0.83125E+05
 0.40549999E+02 -0.76356E+05
 0.40599998E+02 -0.37651E+06
 0.40649998E+02 -0.80659E+06
 0.40699997E+02 -0.10941E+07
 0.40749996E+02 -0.12131E+07
 0.40799999E+02 -0.12631E+07
 0.40849998E+02 -0.12874E+07
 0.40899998E+02 -0.13152E+07
 0.40949997E+02 -0.12211E+07
 0.40999996E+02 -0.10656E+07
 0.41049999E+02 -0.91261E+06
 0.41099998E+02 -0.75621E+06
 0.41149998E+02 -0.76081E+06
 0.41199997E+02 -0.85518E+06
 0.41249996E+02 -0.86763E+06
 0.41299999E+02 -0.79019E+06
 0.41349998E+02 -0.72004E+06
 0.41399998E+02 -0.73546E+06
 0.41449997E+02 -0.80164E+06
 0.41499996E+02 -0.87540E+06
 0.41549999E+02 -0.86668E+06
 0.41599998E+02 -0.82060E+06
 0.41649998E+02 -0.81050E+06
 0.41699997E+02 -0.67310E+06
 0.41749996E+02 -0.40692E+06
 0.41799999E+02 -0.15999E+06
 0.41849998E+02 -0.12036E+05
 0.41899998E+02  0.18249E+03
 0.41949997E+02 -0.13067E+06
 0.41999996E+02 -0.31022E+06
 0.42049999E+02 -0.48543E+06
 0.42099998E+02 -0.62281E+06
 0.42149998E+02 -0.62001E+06
 0.42199997E+02 -0.59477E+06
 0.42249996E+02 -0.63772E+06
 0.42299999E+02 -0.75045E+06
 0.42349998E+02 -0.94549E+06
 0.42399998E+02 -0.10613E+07
 0.42449997E+02 -0.10076E+07
 0.42499996E+02 -0.80759E+06
 0.42549999E+02 -0.49388E+06
 0.42599998E+02 -0.12740E+06
 0.42649998E+02  0.20417E+06
 0.42699997E+02  0.45440E+06
 0.42749996E+02  0.57397E+06
 0.42799995E+02  0.61043E+06
 0.42849998E+02  0.70019E+06
 0.42899998E+02  0.80584E+06
 0.42949997E+02  0.87614E+06
 0.42999996E+02  0.90539E+06
 0.43049995E+02  0.90337E+06
 0.43099998E+02  0.92964E+06
 0.43149998E+02  0.10477E+07
 0.43199997E+02  0.12656E+07
 0.43249996E+02  0.14467E+07
 0.43299995E+02  0.14623E+07
 0.43349998E+02  0.12842E+07
 0.43399998E+02  0.11310E+07
 0.43449997E+02  0.11236E+07
 0.43499996E+02  0.10927E+07
 0.43549995E+02  0.98316E+06
 0.43599998E+02  0.73119E+06
 0.43649998E+02  0.38260E+06
 0.43699997E+02  0.12942E+06
 0.43749996E+02  0.16720E+05
 0.43799995E+02 -0.92071E+04
 0.43849998E+02  0.43885E+05
 0.43899998E+02  0.11462E+06
 0.43949997E+02  0.18314E+06
 0.43999996E+02  0.29445E+06
 0.44049995E+02  0.45198E+06
 0.44099998E+02  0.59936E+06
 0.44149998E+02  0.64551E+06
 0.44199997E+02  0.62774E+06
 0.44249996E+02  0.49142E+06
 0.44299995E+02  0.24159E+06
 0.44349998E+02  0.38101E+05
 0.44399998E+02 -0.59462E+05
 0.44449997E+02 -0.69390E+05
 0.44499996E+02 -0.60013E+05
 0.44549995E+02 -0.47230E+05
 0.44599998E+02 -0.40721E+05
 0.44649998E+02 -0.55201E+05
 0.44699997E+02 -0.15982E+06
 0.44749996E+02 -0.34343E+06
 0.44799995E+02 -0.50420E+06
 0.44849998E+02 -0.55561E+06
 0.44899998E+02 -0.49774E+06
 0.44949997E+02 -0.43876E+06
 0.44999996E+02 -0.45917E+06
 0.45049995E+02 -0.53471E+06
 0.45099998E+02 -0.62321E+06
 0.45149998E+02 -0.73165E+06
 0.45199997E+02 -0.87442E+06
 0.45249996E+02 -0.10405E+07
 0.45299995E+02 -0.11318E+07
 0.45349998E+02 -0.10803E+07
 0.45399998E+02 -0.90839E+06
 0.45449997E+02 -0.74891E+06
 0.45499996E+02 -0.64366E+06
 0.45549995E+02 -0.52952E+06
 0.45599998E+02 -0.40017E+06
 0.45649998E+02 -0.25271E+06
 0.45699997E+02 -0.76837E+05
 0.45749996E+02  0.85635E+05
 0.45799995E+02  0.18112E+06
 0.45849998E+02  0.14031E+06
 0.45899998E+02 -0.69410E+03
 0.45949997E+02 -0.11882E+06
 0.45999996E+02 -0.18508E+06
 0.46049995E+02 -0.20249E+06
 0.46099998E+02 -0.21021E+06
 0.46149998E+02 -0.20485E+06
 0.46199997E+02 -0.12984E+06
 0.46249996E+02  0.19144E+05
 0.46299995E+02  0.16691E+06
 0.46349998E+02  0.27495E+06
 0.46399998E+02  0.33384E+06
 0.46449997E+02  0.29624E+06
 0.46499996E+02  0.21058E+06
 0.46549995E+02  0.11134E+06
 0.46599998E+02  0.69786E+05
 0.46649998E+02  0.11105E+06
 0.46699997E+02  0.10602E+06
 0.46749996E+02  0.61073E+05
 0.46799995E+02  0.26093E+05
 0.46849998E+02  0.27988E+05
 0.46899998E+02  0.40299E+05
 0.46949997E+02  0.35831E+05
 0.46999996E+02  0.64724E+05
 0.47049995E+02  0.15798E+06
 0.47099998E+02  0.28510E+06
 0.47149998E+02  0.41354E+06
 0.47199997E+02  0.52831E+06
 0.47249996E+02  0.59945E+06
 0.47299995E+02  0.64143E+06
 0.47349998E+02  0.64358E+06
 0.47399998E+02  0.61128E+06
 0.47449997E+02  0.49637E+06
 0.47499996E+02  0.27241E+06
 0.47549995E+02 -0.22891E+05
 0.47599998E+02 -0.30386E+06
 0.47649998E+02 -0.50539E+06
 0.47699997E+02 -0.61106E+06
 0.47749996E+02 -0.60409E+06
 0.47799995E+02 -0.56327E+06
 0.47849998E+02 -0.51653E+06
 0.47899998E+02 -0.44468E+06
 0.47949997E+02 -0.34010E+06
 0.47999996E+02 -0.20567E+06
 0.48049995E+02 -0.61826E+05
 0.48099998E+02  0.18541E+05
 0.48149998E+02  0.46723E+05
 0.48199997E+02  0.84249E+05
 0.48249996E+02  0.15145E+06
 0.48299995E+02  0.28918E+06
 0.48349998E+02  0.45780E+06
 0.48399998E+02  0.57566E+06
 0.48449997E+02  0.63500E+06
 0.48499996E+02  0.67345E+06
 0.48549995E+02  0.73690E+06
 0.48599998E+02  0.82541E+06
 0.48649998E+02  0.85336E+06
 0.48699997E+02  0.83099E+06
 0.48749996E+02  0.83610E+06
 0.48799995E+02  0.88831E+06
 0.48849998E+02  0.96957E+06
 0.48899998E+02  0.10456E+07
 0.48949997E+02  0.10609E+07
 0.48999996E+02  0.10158E+07
 0.49049995E+02  0.95292E+06
 0.49099998E+02  0.90087E+06
 0.49149998E+02  0.88807E+06
 0.49199997E+02  0.84037E+06
 0.49249996E+02  0.74501E+06
 0.49299995E+02  0.65774E+06
 0.49349998E+02  0.60057E+06
 0.49399998E+02  0.59639E+06
 0.49449997E+02  0.62069E+06
 0.49499996E+02  0.64837E+06
 0.49549995E+02  0.62209E+06
 0.49599998E+02  0.51262E+06
 0.49649998E+02  0.37292E+06
 0.49699997E+02  0.25826E+06
 0.49749996E+02  0.21107E+06
 0.49799995E+02  0.23426E+06
 0.49849998E+02  0.32295E+06
 0.49899998E+02  0.43649E+06
 0.49949997E+02  0.47472E+06
 0.49999996E+02  0.37104E+06
 0.50049995E+02  0.18422E+06
 0.50099998E+02  0.66339E+03
 0.50149998E+02 -0.12539E+06
 0.50199997E+02 -0.20270E+06
 0.50249996E+02 -0.28089E+06
 0.50299995E+02 -0.38451E+06
 0.50349998E+02 -0.52622E+06
 0.50399998E+02 -0.67346E+06
 0.50449997E+02 -0.78038E+06
 0.50499996E+02 -0.80136E+06
 0.50549995E+02 -0.73558E+06
 0.50599998E+02 -0.62483E+06
 0.50649998E+02 -0.54636E+06
 0.50699997E+02 -0.49768E+06
 0.50749996E+02 -0.45939E+06
 0.50799995E+02 -0.41443E+06
 0.50849998E+02 -0.33692E+06
 0.50899998E+02 -0.25384E+06
 0.50949997E+02 -0.19365E+06
 0.50999996E+02 -0.18417E+06
 0.51049995E+02 -0.19638E+06
 0.51099998E+02 -0.22826E+06
 0.51149998E+02 -0.26354E+06
 0.51199997E+02 -0.30899E+06
 0.51249996E+02 -0.34830E+06
 0.51299995E+02 -0.32435E+06
 0.51349998E+02 -0.25471E+06
 0.51399998E+02 -0.14928E+06
 0.51449997E+02 -0.26305E+05
 0.51499996E+02  0.86711E+05
 0.51549995E+02  0.17302E+06
 0.51599998E+02  0.17681E+06
 0.51649998E+02  0.68426E+05
 0.51699997E+02 -0.12183E+06
 0.51749996E+02 -0.35174E+06
 0.51799995E+02 -0.55152E+06
 0.51849998E+02 -0.66692E+06
 0.51899998E+02 -0.69361E+06
 0.51949997E+02 -0.67678E+06
 0.51999996E+02 -0.62804E+06
 0.52049995E+02 -0.53616E+06
 0.52099998E+02 -0.41266E+06
 0.52149998E+02 -0.28317E+06
 0.52199997E+02 -0.17358E+06
 0.52249996E+02 -0.89826E+05
 0.52299995E+02 -0.20970E+05
 0.52349998E+02  0.54922E+05
 0.52399998E+02  0.18831E+06
 0.52449997E+02  0.34865E+06
 0.52499996E+02  0.45165E+06
 0.52549995E+02  0.50455E+06
 0.52599998E+02  0.52576E+06
 0.52649998E+02  0.55351E+06
 0.52699997E+02  0.59442E+06
 0.52749996E+02  0.64894E+06
 0.52799995E+02  0.70224E+06
 0.52849998E+02  0.72418E+06
 0.52899998E+02  0.71373E+06
 0.52949997E+02  0.67786E+06
 0.52999996E+02  0.63195E+06
 0.53049995E+02  0.57175E+06
 0.53099998E+02  0.51044E+06
 0.53149998E+02  0.46557E+06
 0.53199997E+02  0.43184E+06
 0.53249996E+02  0.42270E+06
 0.53299995E+02  0.46252E+06
 0.53349998E+02  0.53382E+06
 0.53399998E+02  0.58413E+06
 0.53449997E+02  0.57058E+06
 0.53499996E+02  0.48355E+06
 0.53549995E+02  0.32775E+06
 0.53599998E+02  0.11642E+06
 0.53649998E+02 -0.12423E+06
 0.53699997E+02 -0.33657E+06
 0.53749996E+02 -0.49037E+06
 0.53799995E+02 -0.56823E+06
 0.53849998E+02 -0.57158E+06
 0.53899998E+02 -0.56051E+06
 0.53949997E+02 -0.55999E+06
 0.53999996E+02 -0.54676E+06
 0.54049995E+02 -0.48078E+06
 0.54099998E+02 -0.37657E+06
 0.54149998E+02 -0.27079E+06
 0.54199997E+02 -0.17430E+06
 0.54249996E+02 -0.12160E+06
 0.54299995E+02 -0.10352E+06
 0.54349998E+02 -0.10531E+06
 0.54399998E+02 -0.13752E+06
 0.54449997E+02 -0.18395E+06
 0.54499996E+02 -0.23462E+06
 0.54549995E+02 -0.27484E+06
 0.54599998E+02 -0.29129E+06
 0.54649998E+02 -0.28640E+06
 0.54699997E+02 -0.26559E+06
 0.54749996E+02 -0.22504E+06
 0.54799995E+02 -0.16379E+06
 0.54849998E+02 -0.11573E+06
 0.54899998E+02 -0.10047E+06
 0.54949997E+02 -0.11258E+06
 0.54999996E+02 -0.11967E+06
 0.55049995E+02 -0.11276E+06
 0.55099998E+02 -0.10497E+06
 0.55149998E+02 -0.11072E+06
 0.55199997E+02 -0.13794E+06
 0.55249996E+02 -0.15999E+06
 0.55299995E+02 -0.17775E+06
 0.55349998E+02 -0.19266E+06
 0.55399998E+02 -0.22007E+06
 0.55449997E+02 -0.24430E+06
 0.55499996E+02 -0.25050E+06
 0.55549995E+02 -0.22028E+06
 0.55599998E+02 -0.13108E+06
 0.55649998E+02 -0.26870E+05
 0.55699997E+02  0.70209E+05
 0.55749996E+02  0.16002E+06
 0.55799995E+02  0.25670E+06
 0.55849995E+02  0.35107E+06
 0.55899998E+02  0.40928E+06
 0.55949997E+02  0.39939E+06
 0.55999996E+02  0.32435E+06
 0.56049995E+02  0.22461E+06
 0.56099995E+02  0.14396E+06
 0.56149998E+02  0.12820E+06
 0.56199997E+02  0.16362E+06
 0.56249996E+02  0.21180E+06
 0.56299995E+02  0.24163E+06
 0.56349995E+02  0.23469E+06
 0.56399998E+02  0.20053E+06
 0.56449997E+02  0.15637E+06
 0.56499996E+02  0.12560E+06
 0.56549995E+02  0.98245E+05
 0.56599995E+02  0.50150E+05
 0.56649998E+02  0.19341E+04
 0.56699997E+02 -0.22538E+05
 0.56749996E+02 -0.10355E+05
 0.56799995E+02  0.33088E+05
 0.56849995E+02  0.91340E+05
 0.56899998E+02  0.15382E+06
 0.56949997E+02  0.19279E+06
 0.56999996E+02  0.21493E+06
 0.57049995E+02  0.23020E+06
 0.57099995E+02  0.24118E+06
 0.57149998E+02  0.23672E+06
 0.57199997E+02  0.19117E+06
 0.57249996E+02  0.11642E+06
 0.57299995E+02  0.37821E+05
 0.57349995E+02 -0.17758E+05
 0.57399998E+02 -0.56962E+05
 0.57449997E+02 -0.75678E+05
 0.57499996E+02 -0.76400E+05
 0.57549995E+02 -0.67574E+05
 0.57599995E+02 -0.43527E+05
 0.57649998E+02 -0.25356E+05
 0.57699997E+02 -0.69082E+04
 0.57749996E+02  0.76236E+04
 0.57799995E+02  0.61890E+04
 0.57849995E+02  0.58630E+04
 0.57899998E+02  0.61523E+04
 0.57949997E+02 -0.11235E+05
 0.57999996E+02 -0.56546E+05
 0.58049995E+02 -0.11572E+06
 0.58099995E+02 -0.16208E+06
 0.58149998E+02 -0.18535E+06
 0.58199997E+02 -0.18949E+06
 0.58249996E+02 -0.17439E+06
 0.58299995E+02 -0.14034E+06
 0.58349995E+02 -0.83081E+05
 0.58399998E+02  0.50104E+03
 0.58449997E+02  0.87879E+05
 0.58499996E+02  0.13868E+06
 0.58549995E+02  0.11975E+06
 0.58599995E+02  0.36470E+05
 0.58649998E+02 -0.91983E+05
 0.58699997E+02 -0.22019E+06
 0.58749996E+02 -0.30727E+06
 0.58799995E+02 -0.35893E+06
 0.58849995E+02 -0.38900E+06
 0.58899998E+02 -0.40597E+06
 0.58949997E+02 -0.39939E+06
 0.58999996E+02 -0.36215E+06
 0.59049995E+02 -0.30804E+06
 0.59099995E+02 -0.27156E+06
 0.59149998E+02 -0.27128E+06
 0.59199997E+02 -0.28987E+06
 0.59249996E+02 -0.28357E+06
 0.59299995E+02 -0.22049E+06
 0.59349995E+02 -0.12203E+06
 0.59399998E+02 -0.29818E+05
 0.59449997E+02  0.21474E+05
 0.59499996E+02  0.25641E+05
 0.59549995E+02  0.64439E+04
 0.59599995E+02  0.54856E+04
 0.59649998E+02  0.28143E+05
 0.59699997E+02  0.46600E+05
 0.59749996E+02  0.63945E+05
 0.59799995E+02  0.85296E+05
 0.59849995E+02  0.11465E+06
 0.59899998E+02  0.15321E+06
 0.59949997E+02  0.19912E+06
 0.59999996E+02  0.25519E+06
 0.60049995E+02  0.31772E+06
 0.60099995E+02  0.36920E+06
 0.60149998E+02  0.40200E+06
 0.60199997E+02  0.44297E+06
 0.60249996E+02  0.49825E+06
 0.60299995E+02  0.54685E+06
 0.60349995E+02  0.56967E+06
 0.60399998E+02  0.55764E+06
 0.60449997E+02  0.51457E+06
 0.60499996E+02  0.46113E+06
 0.60549995E+02  0.40197E+06
 0.60599995E+02  0.32614E+06
 0.60649998E+02  0.24182E+06
 0.60699997E+02  0.15898E+06
 0.60749996E+02  0.78855E+05
 0.60799995E+02  0.74842E+04
 0.60849995E+02 -0.36558E+05
 0.60899998E+02 -0.47756E+05
 0.60949997E+02 -0.26033E+05
 0.60999996E+02  0.51094E+04
 0.61049995E+02  0.13770E+05
 0.61099995E+02 -0.17794E+05
 0.61149998E+02 -0.93828E+05
 0.61199997E+02 -0.19329E+06
 0.61249996E+02 -0.29265E+06
 0.61299995E+02 -0.37644E+06
 0.61349995E+02 -0.44427E+06
 0.61399998E+02 -0.47933E+06
 0.61449997E+02 -0.46154E+06
 0.61499996E+02 -0.41051E+06
 0.61549995E+02 -0.36479E+06
 0.61599995E+02 -0.34980E+06
 0.61649998E+02 -0.36587E+06
 0.61699997E+02 -0.37919E+06
 0.61749996E+02 -0.36126E+06
 0.61799995E+02 -0.32354E+06
 0.61849995E+02 -0.29392E+06
 0.61899998E+02 -0.29636E+06
 0.61949997E+02 -0.31700E+06
 0.61999996E+02 -0.32595E+06
 0.62049995E+02 -0.31630E+06
 0.62099998E+02 -0.30760E+06
 0.62149994E+02 -0.31373E+06
 0.62199997E+02 -0.32186E+06
 0.62249992E+02 -0.32303E+06
 0.62299995E+02 -0.31046E+06
 0.62349998E+02 -0.27052E+06
 0.62399994E+02 -0.19174E+06
 0.62449997E+02 -0.82454E+05
 0.62499992E+02  0.26936E+05
 0.62549995E+02  0.88138E+05
 0.62599998E+02  0.72491E+05
 0.62649994E+02 -0.56077E+04
 0.62699997E+02 -0.10021E+06
 0.62749992E+02 -0.18755E+06
 0.62799995E+02 -0.26460E+06
 0.62849998E+02 -0.31995E+06
 0.62899994E+02 -0.36137E+06
 0.62949997E+02 -0.39302E+06
 0.62999992E+02 -0.41487E+06
 0.63049995E+02 -0.42420E+06
 0.63099998E+02 -0.39808E+06
 0.63149994E+02 -0.32243E+06
 0.63199997E+02 -0.20550E+06
 0.63249992E+02 -0.60436E+05
 0.63299995E+02  0.83386E+05
 0.63349998E+02  0.20135E+06
 0.63399994E+02  0.27447E+06
 0.63449997E+02  0.31168E+06
 0.63499992E+02  0.34783E+06
 0.63549995E+02  0.40975E+06
 0.63599998E+02  0.50418E+06
 0.63649994E+02  0.61730E+06
 0.63699997E+02  0.72760E+06
 0.63749992E+02  0.79964E+06
 0.63799995E+02  0.81460E+06
 0.63849998E+02  0.78420E+06
 0.63899994E+02  0.73326E+06
 0.63949997E+02  0.68984E+06
 0.63999992E+02  0.66401E+06
 0.64049995E+02  0.64672E+06
 0.64099998E+02  0.63075E+06
 0.64149994E+02  0.59699E+06
 0.64199997E+02  0.53166E+06
 0.64249992E+02  0.44756E+06
 0.64299995E+02  0.36593E+06
 0.64349998E+02  0.28975E+06
 0.64399994E+02  0.21832E+06
 0.64449997E+02  0.15328E+06
 0.64499992E+02  0.84897E+05
 0.64549995E+02  0.39261E+04
 0.64599998E+02 -0.90333E+05
 0.64649994E+02 -0.18283E+06
 0.64699997E+02 -0.26163E+06
 0.64749992E+02 -0.31948E+06
 0.64799995E+02 -0.34455E+06
 0.64849998E+02 -0.33857E+06
 0.64899994E+02 -0.30424E+06
 0.64949997E+02 -0.24496E+06
 0.64999992E+02 -0.16398E+06
 0.65049995E+02 -0.73448E+05
 0.65099998E+02 -0.33149E+04
 0.65149994E+02  0.22835E+05
 0.65199997E+02 -0.18701E+04
 0.65249992E+02 -0.64618E+05
 0.65299995E+02 -0.14669E+06
 0.65349998E+02 -0.23739E+06
 0.65399994E+02 -0.33437E+06
 0.65449997E+02 -0.43158E+06
 0.65499992E+02 -0.50258E+06
 0.65549995E+02 -0.52780E+06
 0.65599998E+02 -0.51716E+06
 0.65649994E+02 -0.48352E+06
 0.65699997E+02 -0.44204E+06
 0.65749992E+02 -0.41133E+06
 0.65799995E+02 -0.39706E+06
 0.65849998E+02 -0.39653E+06
 0.65899994E+02 -0.40305E+06
 0.65949997E+02 -0.40396E+06
 0.65999992E+02 -0.39622E+06
 0.66049995E+02 -0.36944E+06
 0.66099998E+02 -0.31614E+06
 0.66149994E+02 -0.25034E+06
 0.66199997E+02 -0.19175E+06
 0.66249992E+02 -0.15570E+06
 0.66299995E+02 -0.13836E+06
 0.66349998E+02 -0.12109E+06
 0.66399994E+02 -0.90079E+05
 0.66449997E+02 -0.38513E+05
 0.66499992E+02  0.30939E+05
 0.66549995E+02  0.10730E+06
 0.66599998E+02  0.18592E+06
 0.66649994E+02  0.25232E+06
 0.66699997E+02  0.30090E+06
 0.66749992E+02  0.34171E+06
 0.66799995E+02  0.38367E+06
 0.66849998E+02  0.42655E+06
 0.66899994E+02  0.45854E+06
 0.66949997E+02  0.46658E+06
 0.66999992E+02  0.45144E+06
 0.67049995E+02  0.42231E+06
 0.67099998E+02  0.37614E+06
 0.67149994E+02  0.32193E+06
 0.67199997E+02  0.27332E+06
 0.67249992E+02  0.24099E+06
 0.67299995E+02  0.22539E+06
 0.67349998E+02  0.21705E+06
 0.67399994E+02  0.20306E+06
 0.67449997E+02  0.18108E+06
 0.67499992E+02  0.16637E+06
 0.67549995E+02  0.15813E+06
 0.67599998E+02  0.15503E+06
 0.67649994E+02  0.15367E+06
 0.67699997E+02  0.15703E+06
 0.67749992E+02  0.17322E+06
 0.67799995E+02  0.18753E+06
 0.67849998E+02  0.17696E+06
 0.67899994E+02  0.13546E+06
 0.67949997E+02  0.85038E+05
 0.67999992E+02  0.53180E+05
 0.68049995E+02  0.46317E+05
 0.68099998E+02  0.58929E+05
 0.68149994E+02  0.82524E+05
 0.68199997E+02  0.10303E+06
 0.68249992E+02  0.11527E+06
 0.68299995E+02  0.12461E+06
 0.68349998E+02  0.14042E+06
 0.68399994E+02  0.15987E+06
 0.68449997E+02  0.16888E+06
 0.68499992E+02  0.15720E+06
 0.68549995E+02  0.12783E+06
 0.68599998E+02  0.92910E+05
 0.68649994E+02  0.62766E+05
 0.68699997E+02  0.48328E+05
 0.68749992E+02  0.35557E+05
 0.68799995E+02  0.24592E+04
 0.68849998E+02 -0.54456E+05
 0.68899994E+02 -0.12322E+06
 0.68949997E+02 -0.17461E+06
 0.68999992E+02 -0.19278E+06
 0.69049995E+02 -0.17948E+06
 0.69099998E+02 -0.14664E+06
 0.69149994E+02 -0.12450E+06
 0.69199997E+02 -0.12533E+06
 0.69249992E+02 -0.14496E+06
 0.69299995E+02 -0.17681E+06
 0.69349998E+02 -0.20359E+06
 0.69399994E+02 -0.22104E+06
 0.69449997E+02 -0.23325E+06
 0.69499992E+02 -0.23817E+06
 0.69549995E+02 -0.23635E+06
 0.69599998E+02 -0.22974E+06
 0.69649994E+02 -0.21597E+06
 0.69699997E+02 -0.19564E+06
 0.69749992E+02 -0.16909E+06
 0.69799995E+02 -0.14683E+06
 0.69849998E+02 -0.13825E+06
 0.69899994E+02 -0.14170E+06
 0.69949997E+02 -0.15408E+06
 0.69999992E+02 -0.16941E+06
 0.70049995E+02 -0.18270E+06
 0.70099998E+02 -0.19552E+06
 0.70149994E+02 -0.20819E+06
 0.70199997E+02 -0.21177E+06
 0.70249992E+02 -0.20761E+06
 0.70299995E+02 -0.19603E+06
 0.70349998E+02 -0.17622E+06
 0.70399994E+02 -0.15266E+06
 0.70449997E+02 -0.11899E+06
 0.70499992E+02 -0.64047E+05
 0.70549995E+02  0.43061E+04
 0.70599998E+02  0.70033E+05
 0.70649994E+02  0.12866E+06
 0.70699997E+02  0.17490E+06
 0.70749992E+02  0.20208E+06
 0.70799995E+02  0.20625E+06
 0.70849998E+02  0.18993E+06
 0.70899994E+02  0.17140E+06
 0.70949997E+02  0.15691E+06
 0.70999992E+02  0.13467E+06
 0.71049995E+02  0.11209E+06
 0.71099998E+02  0.10590E+06
 0.71149994E+02  0.11911E+06
 0.71199997E+02  0.13419E+06
 0.71249992E+02  0.13674E+06
 0.71299995E+02  0.12438E+06
 0.71349998E+02  0.10285E+06
 0.71399994E+02  0.75243E+05
 0.71449997E+02  0.35245E+05
 0.71499992E+02 -0.17558E+05
 0.71549995E+02 -0.74292E+05
 0.71599998E+02 -0.12173E+06
 0.71649994E+02 -0.15884E+06
 0.71699997E+02 -0.19043E+06
 0.71749992E+02 -0.22454E+06
 0.71799995E+02 -0.25768E+06
 0.71849998E+02 -0.27380E+06
 0.71899994E+02 -0.26269E+06
 0.71949997E+02 -0.23787E+06
 0.71999992E+02 -0.22199E+06
 0.72049995E+02 -0.22200E+06
 0.72099998E+02 -0.23824E+06
 0.72149994E+02 -0.26259E+06
 0.72199997E+02 -0.28316E+06
 0.72249992E+02 -0.29106E+06
 0.72299995E+02 -0.28004E+06
 0.72349998E+02 -0.24954E+06
 0.72399994E+02 -0.21093E+06
 0.72449997E+02 -0.17968E+06
 0.72499992E+02 -0.15739E+06
 0.72549995E+02 -0.13146E+06
 0.72599998E+02 -0.92663E+05
 0.72649994E+02 -0.52243E+05
 0.72699997E+02 -0.22897E+05
 0.72749992E+02 -0.45733E+04
 0.72799995E+02  0.86891E+04
 0.72849998E+02  0.25330E+05
 0.72899994E+02  0.42758E+05
 0.72949997E+02  0.65591E+05
 0.72999992E+02  0.96027E+05
 0.73049995E+02  0.13210E+06
 0.73099998E+02  0.17195E+06
 0.73149994E+02  0.20972E+06
 0.73199997E+02  0.24601E+06
 0.73249992E+02  0.27622E+06
 0.73299995E+02  0.29528E+06
 0.73349998E+02  0.29747E+06
 0.73399994E+02  0.28883E+06
 0.73449997E+02  0.27922E+06
 0.73499992E+02  0.26863E+06
 0.73549995E+02  0.25141E+06
 0.73599998E+02  0.22492E+06
 0.73649994E+02  0.19999E+06
 0.73699997E+02  0.18389E+06
 0.73749992E+02  0.18002E+06
 0.73799995E+02  0.18608E+06
 0.73849998E+02  0.20173E+06
 0.73899994E+02  0.23500E+06
 0.73949997E+02  0.29293E+06
 0.73999992E+02  0.36746E+06
 0.74049995E+02  0.43819E+06
 0.74099998E+02  0.48145E+06
 0.74149994E+02  0.48158E+06
 0.74199997E+02  0.44587E+06
 0.74249992E+02  0.38342E+06
 0.74299995E+02  0.30791E+06
 0.74349998E+02  0.23856E+06
 0.74399994E+02  0.19153E+06
 0.74449997E+02  0.16224E+06
 0.74499992E+02  0.13402E+06
 0.74549995E+02  0.10152E+06
 0.74599998E+02  0.63031E+05
 0.74649994E+02  0.25509E+05
 0.74699997E+02 -0.42451E+04
 0.74749992E+02 -0.27896E+05
 0.74799995E+02 -0.47291E+05
 0.74849998E+02 -0.72185E+05
 0.74899994E+02 -0.11372E+06
 0.74949997E+02 -0.16604E+06
 0.74999992E+02 -0.22144E+06
 0.75049995E+02 -0.26612E+06
 0.75099998E+02 -0.28532E+06
 0.75149994E+02 -0.27915E+06
 0.75199997E+02 -0.25432E+06
 0.75249992E+02 -0.22314E+06
 0.75299995E+02 -0.19640E+06
 0.75349998E+02 -0.17547E+06
 0.75399994E+02 -0.15610E+06
 0.75449997E+02 -0.13097E+06
 0.75499992E+02 -0.10028E+06
 0.75549995E+02 -0.80410E+05
 0.75599998E+02 -0.86106E+05
 0.75649994E+02 -0.11701E+06
 0.75699997E+02 -0.15860E+06
 0.75749992E+02 -0.19236E+06
 0.75799995E+02 -0.20211E+06
 0.75849998E+02 -0.19427E+06
 0.75899994E+02 -0.18640E+06
 0.75949997E+02 -0.17636E+06
 0.75999992E+02 -0.15619E+06
 0.76049995E+02 -0.12703E+06
 0.76099998E+02 -0.94739E+05
 0.76149994E+02 -0.60706E+05
 0.76199997E+02 -0.26130E+05
 0.76249992E+02  0.78808E+04
 0.76299995E+02  0.38700E+05
 0.76349998E+02  0.63509E+05
 0.76399994E+02  0.82212E+05
 0.76449997E+02  0.96827E+05
 0.76499992E+02  0.10803E+06
 0.76549995E+02  0.11667E+06
 0.76599998E+02  0.11895E+06
 0.76649994E+02  0.11103E+06
 0.76699997E+02  0.95835E+05
 0.76749992E+02  0.79540E+05
 0.76799995E+02  0.67728E+05
 0.76849998E+02  0.56210E+05
 0.76899994E+02  0.39950E+05
 0.76949997E+02  0.21771E+05
 0.76999992E+02  0.10186E+05
 0.77049995E+02  0.11528E+05
 0.77099998E+02  0.27371E+05
 0.77149994E+02  0.52660E+05
 0.77199997E+02  0.81283E+05
 0.77249992E+02  0.11011E+06
 0.77299995E+02  0.13480E+06
 0.77349998E+02  0.14763E+06
 0.77399994E+02  0.14754E+06
 0.77449997E+02  0.14568E+06
 0.77499992E+02  0.14665E+06
 0.77549995E+02  0.14632E+06
 0.77599998E+02  0.13844E+06
 0.77649994E+02  0.12498E+06
 0.77699997E+02  0.11960E+06
 0.77749992E+02  0.12295E+06
 0.77799995E+02  0.12713E+06
 0.77849998E+02  0.12386E+06
 0.77899994E+02  0.10920E+06
 0.77949997E+02  0.93052E+05
 0.77999992E+02  0.82215E+05
 0.78049995E+02  0.73855E+05
 0.78099998E+02  0.63324E+05
 0.78149994E+02  0.46800E+05
 0.78199997E+02  0.23547E+05
 0.78249992E+02 -0.55177E+04
 0.78299995E+02 -0.39846E+05
 0.78349998E+02 -0.76802E+05
 0.78399994E+02 -0.11136E+06
 0.78449997E+02 -0.13467E+06
 0.78499992E+02 -0.14377E+06
 0.78549995E+02 -0.14223E+06
 0.78599998E+02 -0.13742E+06
 0.78649994E+02 -0.13604E+06
 0.78699997E+02 -0.13958E+06
 0.78749992E+02 -0.14963E+06
 0.78799995E+02 -0.16477E+06
 0.78849998E+02 -0.18161E+06
 0.78899994E+02 -0.19478E+06
 0.78949997E+02 -0.20158E+06
 0.78999992E+02 -0.20000E+06
 0.79049995E+02 -0.19429E+06
 0.79099998E+02 -0.19198E+06
 0.79149994E+02 -0.19671E+06
 0.79199997E+02 -0.20600E+06
 0.79249992E+02 -0.20486E+06
 0.79299995E+02 -0.18567E+06
 0.79349998E+02 -0.14834E+06
 0.79399994E+02 -0.96916E+05
 0.79449997E+02 -0.40689E+05
 0.79499992E+02  0.77126E+04
 0.79549995E+02  0.38537E+05
 0.79599998E+02  0.46007E+05
 0.79649994E+02  0.31869E+05
 0.79699997E+02  0.35534E+04
 0.79749992E+02 -0.31254E+05
 0.79799995E+02 -0.57796E+05
 0.79849998E+02 -0.70298E+05
 0.79899994E+02 -0.72099E+05
 0.79949997E+02 -0.67510E+05
 0.79999992E+02 -0.60468E+05
 0.80049995E+02 -0.49562E+05
 0.80099998E+02 -0.34264E+05
 0.80149994E+02 -0.20454E+05
 0.80199997E+02 -0.93526E+04
 0.80249992E+02 -0.23561E+04
 0.80299995E+02 -0.23538E+04
 0.80349998E+02 -0.10894E+05
 0.80399994E+02 -0.27534E+05
 0.80449997E+02 -0.43758E+05
 0.80499992E+02 -0.46441E+05
 0.80549995E+02 -0.26914E+05
 0.80599998E+02  0.71176E+04
 0.80649994E+02  0.40073E+05
 0.80699997E+02  0.55169E+05
 0.80749992E+02  0.47917E+05
 0.80799995E+02  0.24329E+05
 0.80849998E+02 -0.13203E+05
 0.80899994E+02 -0.56581E+05
 0.80949997E+02 -0.98969E+05
 0.80999992E+02 -0.13984E+06
 0.81049995E+02 -0.17834E+06
 0.81099998E+02 -0.20933E+06
 0.81149994E+02 -0.23139E+06
 0.81199997E+02 -0.25026E+06
 0.81249992E+02 -0.26722E+06
 0.81299995E+02 -0.27490E+06
 0.81349998E+02 -0.26525E+06
 0.81399994E+02 -0.24010E+06
 0.81449997E+02 -0.20619E+06
 0.81499992E+02 -0.16878E+06
 0.81549995E+02 -0.12735E+06
 0.81599998E+02 -0.78174E+05
 0.81649994E+02 -0.23696E+05
 0.81699997E+02  0.28341E+05
 0.81749992E+02  0.71972E+05
 0.81799995E+02  0.10451E+06
 0.81849998E+02  0.12501E+06
 0.81899994E+02  0.12662E+06
 0.81949997E+02  0.10964E+06
 0.81999992E+02  0.82418E+05
 0.82049995E+02  0.52969E+05
 0.82099998E+02  0.33858E+05
 0.82149994E+02  0.29119E+05
 0.82199997E+02  0.33137E+05
 0.82249992E+02  0.37884E+05
 0.82299995E+02  0.43248E+05
 0.82349998E+02  0.49975E+05
 0.82399994E+02  0.52116E+05
 0.82449997E+02  0.44918E+05
 0.82499992E+02  0.26402E+05
 0.82549995E+02  0.72814E+04
 0.82599998E+02  0.52093E+04
 0.82649994E+02  0.19963E+05
 0.82699997E+02  0.32664E+05
 0.82749992E+02  0.28646E+05
 0.82799995E+02  0.73624E+04
 0.82849998E+02 -0.23171E+05
 0.82899994E+02 -0.53067E+05
 0.82949997E+02 -0.75421E+05
 0.82999992E+02 -0.86496E+05
 0.83049995E+02 -0.88913E+05
 0.83099998E+02 -0.88284E+05
 0.83149994E+02 -0.85776E+05
 0.83199997E+02 -0.78095E+05
 0.83249992E+02 -0.64017E+05
 0.83299995E+02 -0.46458E+05
 0.83349998E+02 -0.27972E+05
 0.83399994E+02 -0.12103E+05
 0.83449997E+02 -0.36171E+04
 0.83499992E+02  0.45370E+03
 0.83549995E+02  0.61227E+04
 0.83599998E+02  0.12551E+05
 0.83649994E+02  0.16155E+05
 0.83699997E+02  0.17637E+05
 0.83749992E+02  0.23588E+05
 0.83799995E+02  0.38596E+05
 0.83849998E+02  0.60899E+05
 0.83899994E+02  0.84332E+05
 0.83949997E+02  0.10553E+06
 0.83999992E+02  0.12395E+06
 0.84049995E+02  0.13963E+06
 0.84099998E+02  0.15157E+06
 0.84149994E+02  0.15785E+06
 0.84199997E+02  0.15795E+06
 0.84249992E+02  0.15408E+06
 0.84299995E+02  0.14920E+06
 0.84349998E+02  0.14604E+06
 0.84399994E+02  0.15083E+06
 0.84449997E+02  0.16910E+06
 0.84499992E+02  0.20366E+06
 0.84549995E+02  0.24701E+06
 0.84599998E+02  0.28720E+06
 0.84649994E+02  0.31413E+06
 0.84699997E+02  0.32233E+06
 0.84749992E+02  0.31169E+06
 0.84799995E+02  0.28526E+06
 0.84849998E+02  0.25504E+06
 0.84899994E+02  0.23594E+06
 0.84949997E+02  0.23209E+06
 0.84999992E+02  0.23517E+06
 0.85049995E+02  0.23885E+06
 0.85099998E+02  0.24299E+06
 0.85149994E+02  0.24885E+06
 0.85199997E+02  0.25358E+06
 0.85249992E+02  0.25452E+06
 0.85299995E+02  0.24986E+06
 0.85349998E+02  0.23904E+06
 0.85399994E+02  0.22428E+06
 0.85449997E+02  0.20705E+06
 0.85499992E+02  0.18799E+06
 0.85549995E+02  0.16843E+06
 0.85599998E+02  0.15085E+06
 0.85649994E+02  0.13593E+06
 0.85699997E+02  0.11982E+06
 0.85749992E+02  0.10155E+06
 0.85799995E+02  0.81528E+05
 0.85849998E+02  0.61666E+05
 0.85899994E+02  0.46672E+05
 0.85949997E+02  0.36178E+05
 0.85999992E+02  0.31798E+05
 0.86049995E+02  0.31046E+05
 0.86099998E+02  0.26074E+05
 0.86149994E+02  0.12002E+05
 0.86199997E+02 -0.79268E+04
 0.86249992E+02 -0.26922E+05
 0.86299995E+02 -0.41230E+05
 0.86349998E+02 -0.51686E+05
 0.86399994E+02 -0.64590E+05
 0.86449997E+02 -0.82398E+05
 0.86499992E+02 -0.99913E+05
 0.86549995E+02 -0.11385E+06
 0.86599998E+02 -0.12675E+06
 0.86649994E+02 -0.14365E+06
 0.86699997E+02 -0.16646E+06
 0.86749992E+02 -0.19007E+06
 0.86799995E+02 -0.21044E+06
 0.86849998E+02 -0.22610E+06
 0.86899994E+02 -0.23511E+06
 0.86949997E+02 -0.23360E+06
 0.86999992E+02 -0.22434E+06
 0.87049995E+02 -0.21527E+06
 0.87099998E+02 -0.20372E+06
 0.87149994E+02 -0.17920E+06
 0.87199997E+02 -0.13975E+06
 0.87249992E+02 -0.95397E+05
 0.87299995E+02 -0.55453E+05
 0.87349998E+02 -0.21211E+05
 0.87399994E+02  0.57761E+04
 0.87449997E+02  0.16437E+05
 0.87499992E+02  0.55983E+04
 0.87549995E+02 -0.23919E+05
 0.87599991E+02 -0.65071E+05
 0.87649994E+02 -0.10897E+06
 0.87699997E+02 -0.14551E+06
 0.87749992E+02 -0.17113E+06
 0.87799995E+02 -0.18860E+06
 0.87849991E+02 -0.20266E+06
 0.87899994E+02 -0.21714E+06
 0.87949997E+02 -0.22562E+06
 0.87999992E+02 -0.22327E+06
 0.88049995E+02 -0.21022E+06
 0.88099991E+02 -0.19356E+06
 0.88149994E+02 -0.18093E+06
 0.88199997E+02 -0.17260E+06
 0.88249992E+02 -0.16487E+06
 0.88299995E+02 -0.15585E+06
 0.88349991E+02 -0.14668E+06
 0.88399994E+02 -0.13459E+06
 0.88449997E+02 -0.12290E+06
 0.88499992E+02 -0.11658E+06
 0.88549995E+02 -0.11703E+06
 0.88599991E+02 -0.12313E+06
 0.88649994E+02 -0.12954E+06
 0.88699997E+02 -0.13460E+06
 0.88749992E+02 -0.13666E+06
 0.88799995E+02 -0.13413E+06
 0.88849991E+02 -0.12754E+06
 0.88899994E+02 -0.11575E+06
 0.88949997E+02 -0.98995E+05
 0.88999992E+02 -0.79297E+05
 0.89049995E+02 -0.59396E+05
 0.89099991E+02 -0.41293E+05
 0.89149994E+02 -0.25602E+05
 0.89199997E+02 -0.10278E+05
 0.89249992E+02  0.69255E+04
 0.89299995E+02  0.24363E+05
 0.89349991E+02  0.38342E+05
 0.89399994E+02  0.51219E+05
 0.89449997E+02  0.66471E+05
 0.89499992E+02  0.82466E+05
 0.89549995E+02  0.92161E+05
 0.89599991E+02  0.87231E+05
 0.89649994E+02  0.70412E+05
 0.89699997E+02  0.54101E+05
 0.89749992E+02  0.47386E+05
 0.89799995E+02  0.49909E+05
 0.89849991E+02  0.57155E+05
 0.89899994E+02  0.63229E+05
 0.89949997E+02  0.63412E+05
 0.89999992E+02  0.56821E+05
 0.90049995E+02  0.45562E+05
 0.90099991E+02  0.29535E+05
 0.90149994E+02  0.73055E+04
 0.90199997E+02 -0.22158E+05
 0.90249992E+02 -0.54229E+05
 0.90299995E+02 -0.83590E+05
 0.90349991E+02 -0.10964E+06
 0.90399994E+02 -0.12987E+06
 0.90449997E+02 -0.14187E+06
 0.90499992E+02 -0.14299E+06
 0.90549995E+02 -0.13283E+06
 0.90599991E+02 -0.11688E+06
 0.90649994E+02 -0.10101E+06
 0.90699997E+02 -0.88304E+05
 0.90749992E+02 -0.77772E+05
 0.90799995E+02 -0.64791E+05
 0.90849991E+02 -0.44249E+05
 0.90899994E+02 -0.13563E+05
 0.90949997E+02  0.24929E+05
 0.90999992E+02  0.67061E+05
 0.91049995E+02  0.10722E+06
 0.91099991E+02  0.13749E+06
 0.91149994E+02  0.15346E+06
 0.91199997E+02  0.15782E+06
 0.91249992E+02  0.15479E+06
 0.91299995E+02  0.14713E+06
 0.91349991E+02  0.13656E+06
 0.91399994E+02  0.12513E+06
 0.91449997E+02  0.11575E+06
 0.91499992E+02  0.11106E+06
 0.91549995E+02  0.10961E+06
 0.91599991E+02  0.10485E+06
 0.91649994E+02  0.92336E+05
 0.91699997E+02  0.74978E+05
 0.91749992E+02  0.60116E+05
 0.91799995E+02  0.51382E+05
 0.91849991E+02  0.46233E+05
 0.91899994E+02  0.39562E+05
 0.91949997E+02  0.29813E+05
 0.91999992E+02  0.21399E+05
 0.92049995E+02  0.18673E+05
 0.92099991E+02  0.22254E+05
 0.92149994E+02  0.29701E+05
 0.92199997E+02  0.35731E+05
 0.92249992E+02  0.36004E+05
 0.92299995E+02  0.28035E+05
 0.92349991E+02  0.10525E+05
 0.92399994E+02 -0.13527E+05
 0.92449997E+02 -0.37523E+05
 0.92499992E+02 -0.53744E+05
 0.92549995E+02 -0.57362E+05
 0.92599991E+02 -0.50293E+05
 0.92649994E+02 -0.37466E+05
 0.92699997E+02 -0.21544E+05
 0.92749992E+02 -0.46893E+04
 0.92799995E+02  0.10533E+05
 0.92849991E+02  0.26417E+05
 0.92899994E+02  0.48988E+05
 0.92949997E+02  0.81519E+05
 0.92999992E+02  0.12075E+06
 0.93049995E+02  0.15987E+06
 0.93099991E+02  0.19320E+06
 0.93149994E+02  0.21441E+06
 0.93199997E+02  0.21760E+06
 0.93249992E+02  0.20122E+06
 0.93299995E+02  0.16923E+06
 0.93349991E+02  0.12971E+06
 0.93399994E+02  0.90027E+05
 0.93449997E+02  0.54384E+05
 0.93499992E+02  0.23190E+05
 0.93549995E+02 -0.30037E+04
 0.93599991E+02 -0.18845E+05
 0.93649994E+02 -0.23027E+05
 0.93699997E+02 -0.17167E+05
 0.93749992E+02 -0.16443E+04
 0.93799995E+02  0.20754E+05
 0.93849991E+02  0.45092E+05
 0.93899994E+02  0.66721E+05
 0.93949997E+02  0.83621E+05
 0.93999992E+02  0.94304E+05
 0.94049995E+02  0.98773E+05
 0.94099991E+02  0.98036E+05
 0.94149994E+02  0.92938E+05
 0.94199997E+02  0.85417E+05
 0.94249992E+02  0.78219E+05
 0.94299995E+02  0.74194E+05
 0.94349991E+02  0.74369E+05
 0.94399994E+02  0.77002E+05
 0.94449997E+02  0.79275E+05
 0.94499992E+02  0.79753E+05
 0.94549995E+02  0.79988E+05
 0.94599991E+02  0.83018E+05
 0.94649994E+02  0.91240E+05
 0.94699997E+02  0.10551E+06
 0.94749992E+02  0.12538E+06
 0.94799995E+02  0.14680E+06
 0.94849991E+02  0.16156E+06
 0.94899994E+02  0.16452E+06
 0.94949997E+02  0.15638E+06
 0.94999992E+02  0.13927E+06
 0.95049995E+02  0.11499E+06
 0.95099991E+02  0.84927E+05
 0.95149994E+02  0.49467E+05
 0.95199997E+02  0.88854E+04
 0.95249992E+02 -0.37420E+05
 0.95299995E+02 -0.91830E+05
 0.95349991E+02 -0.15033E+06
 0.95399994E+02 -0.20282E+06
 0.95449997E+02 -0.24021E+06
 0.95499992E+02 -0.25683E+06
 0.95549995E+02 -0.25537E+06
 0.95599991E+02 -0.24282E+06
 0.95649994E+02 -0.22667E+06
 0.95699997E+02 -0.21171E+06
 0.95749992E+02 -0.19768E+06
 0.95799995E+02 -0.18427E+06
 0.95849991E+02 -0.17079E+06
 0.95899994E+02 -0.15528E+06
 0.95949997E+02 -0.13824E+06
 0.95999992E+02 -0.12508E+06
 0.96049995E+02 -0.12056E+06
 0.96099991E+02 -0.12690E+06
 0.96149994E+02 -0.14196E+06
 0.96199997E+02 -0.15807E+06
 0.96249992E+02 -0.16955E+06
 0.96299995E+02 -0.17509E+06
 0.96349991E+02 -0.17508E+06
 0.96399994E+02 -0.17034E+06
 0.96449997E+02 -0.16291E+06
 0.96499992E+02 -0.15252E+06
 0.96549995E+02 -0.13981E+06
 0.96599991E+02 -0.12910E+06
 0.96649994E+02 -0.12314E+06
 0.96699997E+02 -0.11928E+06
 0.96749992E+02 -0.11240E+06
 0.96799995E+02 -0.10147E+06
 0.96849991E+02 -0.87251E+05
 0.96899994E+02 -0.69444E+05
 0.96949997E+02 -0.44914E+05
 0.96999992E+02 -0.11627E+05
 0.97049995E+02  0.28524E+05
 0.97099991E+02  0.70644E+05
 0.97149994E+02  0.10750E+06
 0.97199997E+02  0.13483E+06
 0.97249992E+02  0.15257E+06
 0.97299995E+02  0.16313E+06
 0.97349991E+02  0.16963E+06
 0.97399994E+02  0.17233E+06
 0.97449997E+02  0.16698E+06
 0.97499992E+02  0.15112E+06
 0.97549995E+02  0.13026E+06
 0.97599991E+02  0.11136E+06
 0.97649994E+02  0.94227E+05
 0.97699997E+02  0.75280E+05
 0.97749992E+02  0.55175E+05
 0.97799995E+02  0.35937E+05
 0.97849991E+02  0.17325E+05
 0.97899994E+02 -0.37595E+04
 0.97949997E+02 -0.30695E+05
 0.97999992E+02 -0.60658E+05
