-0.19800000E+01  0.89134E+05
-0.19300001E+01  0.87887E+05
-0.18800000E+01  0.86119E+05
-0.18300000E+01  0.84065E+05
-0.17800000E+01  0.81762E+05
-0.17300000E+01  0.78047E+05
-0.16800001E+01  0.72850E+05
-0.16300000E+01  0.66340E+05
-0.15800000E+01  0.58627E+05
-0.15300000E+01  0.51487E+05
-0.14800000E+01  0.46057E+05
-0.14300001E+01  0.41933E+05
-0.13800000E+01  0.38492E+05
-0.13299999E+01  0.35879E+05
-0.12800000E+01  0.34445E+05
-0.12300000E+01  0.33538E+05
-0.11800001E+01  0.32804E+05
-0.11300000E+01  0.33124E+05
-0.10799999E+01  0.35034E+05
-0.10300000E+01  0.38579E+05
-0.98000002E+00  0.43923E+05
-0.92999995E+00  0.50865E+05
-0.88000000E+00  0.58579E+05
-0.83000004E+00  0.66330E+05
-0.77999997E+00  0.73926E+05
-0.73000002E+00  0.81091E+05
-0.67999995E+00  0.86974E+05
-0.63000000E+00  0.90393E+05
-0.58000004E+00  0.91552E+05
-0.52999997E+00  0.91174E+05
-0.48000002E+00  0.88938E+05
-0.42999995E+00  0.85262E+05
-0.38000000E+00  0.81719E+05
-0.33000004E+00  0.78592E+05
-0.27999997E+00  0.75346E+05
-0.23000002E+00  0.72899E+05
-0.17999995E+00  0.71235E+05
-0.13000000E+00  0.69130E+05
-0.80000043E-01  0.65729E+05
-0.29999971E-01  0.60488E+05
 0.19999981E-01  0.54052E+05
 0.69999933E-01  0.46579E+05
 0.12000012E+00  0.37863E+05
 0.17000008E+00  0.28616E+05
 0.22000003E+00  0.18784E+05
 0.26999998E+00  0.81020E+04
 0.31999993E+00 -0.26590E+04
 0.37000012E+00 -0.12514E+05
 0.42000008E+00 -0.21336E+05
 0.47000003E+00 -0.29856E+05
 0.51999998E+00 -0.37806E+05
 0.56999993E+00 -0.44444E+05
 0.62000012E+00 -0.50238E+05
 0.67000008E+00 -0.55435E+05
 0.72000003E+00 -0.60496E+05
 0.76999998E+00 -0.66136E+05
 0.81999993E+00 -0.71941E+05
 0.87000012E+00 -0.77460E+05
 0.92000008E+00 -0.82616E+05
 0.97000003E+00 -0.87455E+05
 0.10200000E+01 -0.91701E+05
 0.10699999E+01 -0.95536E+05
 0.11200001E+01 -0.99069E+05
 0.11700001E+01 -0.10120E+06
 0.12200000E+01 -0.10186E+06
 0.12700000E+01 -0.10084E+06
 0.13199999E+01 -0.97461E+05
 0.13700001E+01 -0.92250E+05
 0.14200001E+01 -0.85370E+05
 0.14700000E+01 -0.76898E+05
 0.15200000E+01 -0.66133E+05
 0.15699999E+01 -0.52985E+05
 0.16200001E+01 -0.38703E+05
 0.16700001E+01 -0.23509E+05
 0.17200000E+01 -0.84410E+04
 0.17700000E+01  0.57030E+04
 0.18199999E+01  0.18868E+05
 0.18700001E+01  0.29909E+05
 0.19200001E+01  0.38581E+05
 0.19700000E+01  0.44966E+05
 0.20200000E+01  0.49056E+05
 0.20700002E+01  0.51395E+05
 0.21199999E+01  0.52225E+05
 0.21700001E+01  0.51744E+05
 0.22200003E+01  0.50147E+05
 0.22700000E+01  0.47453E+05
 0.23200002E+01  0.43032E+05
 0.23699999E+01  0.36483E+05
 0.24200001E+01  0.28998E+05
 0.24700003E+01  0.21867E+05
 0.25200000E+01  0.15705E+05
 0.25700002E+01  0.10565E+05
 0.26199999E+01  0.58870E+04
 0.26700001E+01  0.13830E+04
 0.27200003E+01 -0.30800E+04
 0.27700000E+01 -0.76250E+04
 0.28200002E+01 -0.12246E+05
 0.28699999E+01 -0.17073E+05
 0.29200001E+01 -0.21521E+05
 0.29700003E+01 -0.25140E+05
 0.30200000E+01 -0.28940E+05
 0.30700002E+01 -0.32768E+05
 0.31199999E+01 -0.35956E+05
 0.31700001E+01 -0.39435E+05
 0.32200003E+01 -0.43521E+05
 0.32700000E+01 -0.48218E+05
 0.33200002E+01 -0.54012E+05
 0.33699999E+01 -0.60566E+05
 0.34200001E+01 -0.67068E+05
 0.34700003E+01 -0.73282E+05
 0.35200000E+01 -0.78934E+05
 0.35700002E+01 -0.83369E+05
 0.36199999E+01 -0.86882E+05
 0.36700001E+01 -0.89691E+05
 0.37200003E+01 -0.90918E+05
 0.37700000E+01 -0.90483E+05
 0.38200002E+01 -0.89520E+05
 0.38699999E+01 -0.88942E+05
 0.39200001E+01 -0.88072E+05
 0.39700003E+01 -0.86109E+05
 0.40200000E+01 -0.83778E+05
 0.40700002E+01 -0.82086E+05
 0.41199999E+01 -0.81745E+05
 0.41700001E+01 -0.82322E+05
 0.42200003E+01 -0.82549E+05
 0.42700000E+01 -0.82051E+05
 0.43200002E+01 -0.80760E+05
 0.43699999E+01 -0.78388E+05
 0.44200001E+01 -0.74809E+05
 0.44700003E+01 -0.69068E+05
 0.45200000E+01 -0.60086E+05
 0.45700002E+01 -0.48996E+05
 0.46199999E+01 -0.37158E+05
 0.46700001E+01 -0.24304E+05
 0.47200003E+01 -0.10453E+05
 0.47700000E+01  0.39330E+04
 0.48200002E+01  0.18952E+05
 0.48699999E+01  0.34325E+05
 0.49200001E+01  0.48995E+05
 0.49700003E+01  0.62184E+05
 0.50200000E+01  0.73676E+05
 0.50700002E+01  0.83629E+05
 0.51199999E+01  0.92352E+05
 0.51700001E+01  0.10048E+06
 0.52200003E+01  0.10799E+06
 0.52700000E+01  0.11383E+06
 0.53200002E+01  0.11774E+06
 0.53699999E+01  0.12003E+06
 0.54200001E+01  0.12121E+06
 0.54700003E+01  0.12186E+06
 0.55200000E+01  0.12193E+06
 0.55700002E+01  0.12140E+06
 0.56199999E+01  0.12056E+06
 0.56700001E+01  0.11914E+06
 0.57200003E+01  0.11636E+06
 0.57700000E+01  0.11233E+06
 0.58200002E+01  0.10694E+06
 0.58699999E+01  0.10007E+06
 0.59200001E+01  0.92727E+05
 0.59700003E+01  0.85444E+05
 0.60200000E+01  0.77847E+05
 0.60700002E+01  0.69631E+05
 0.61200004E+01  0.61118E+05
 0.61700006E+01  0.53018E+05
 0.62199998E+01  0.45980E+05
 0.62700000E+01  0.40016E+05
 0.63200002E+01  0.34223E+05
 0.63700004E+01  0.28093E+05
 0.64200006E+01  0.21305E+05
 0.64699998E+01  0.13566E+05
 0.65200000E+01  0.49720E+04
 0.65700002E+01 -0.43950E+04
 0.66200004E+01 -0.14496E+05
 0.66700006E+01 -0.25686E+05
 0.67199998E+01 -0.38284E+05
 0.67700000E+01 -0.51405E+05
 0.68200002E+01 -0.64159E+05
 0.68700004E+01 -0.76687E+05
 0.69200006E+01 -0.88698E+05
 0.69699998E+01 -0.10014E+06
 0.70200000E+01 -0.11100E+06
 0.70700002E+01 -0.12021E+06
 0.71200004E+01 -0.12715E+06
 0.71700006E+01 -0.13122E+06
 0.72199998E+01 -0.13155E+06
 0.72700000E+01 -0.12811E+06
 0.73200002E+01 -0.12166E+06
 0.73700004E+01 -0.11236E+06
 0.74200006E+01 -0.10024E+06
 0.74699998E+01 -0.86311E+05
 0.75200000E+01 -0.71114E+05
 0.75700002E+01 -0.54440E+05
 0.76200004E+01 -0.36457E+05
 0.76700006E+01 -0.18228E+05
 0.77199998E+01 -0.79100E+03
 0.77700000E+01  0.15827E+05
 0.78200002E+01  0.31176E+05
 0.78700004E+01  0.45063E+05
 0.79200006E+01  0.58198E+05
 0.79699998E+01  0.70312E+05
 0.80200005E+01  0.80359E+05
 0.80699997E+01  0.88011E+05
 0.81200008E+01  0.93520E+05
 0.81700001E+01  0.97342E+05
 0.82199993E+01  0.10014E+06
 0.82700005E+01  0.10208E+06
 0.83199997E+01  0.10338E+06
 0.83700008E+01  0.10423E+06
 0.84200001E+01  0.10465E+06
 0.84699993E+01  0.10436E+06
 0.85200005E+01  0.10258E+06
 0.85699997E+01  0.99822E+05
 0.86200008E+01  0.96799E+05
 0.86700001E+01  0.93776E+05
 0.87199993E+01  0.90880E+05
 0.87700005E+01  0.88165E+05
 0.88199997E+01  0.85126E+05
 0.88700008E+01  0.80323E+05
 0.89200001E+01  0.73683E+05
 0.89699993E+01  0.65350E+05
 0.90200005E+01  0.55066E+05
 0.90699997E+01  0.43545E+05
 0.91200008E+01  0.31141E+05
 0.91700001E+01  0.17511E+05
 0.92199993E+01  0.24760E+04
 0.92700005E+01 -0.13251E+05
 0.93199997E+01 -0.28504E+05
 0.93700008E+01 -0.42681E+05
 0.94200001E+01 -0.55537E+05
 0.94699993E+01 -0.66712E+05
 0.95200005E+01 -0.76224E+05
 0.95699997E+01 -0.84320E+05
 0.96200008E+01 -0.90981E+05
 0.96700001E+01 -0.95743E+05
 0.97199993E+01 -0.97240E+05
 0.97700005E+01 -0.94696E+05
 0.98199997E+01 -0.88416E+05
 0.98700008E+01 -0.79587E+05
 0.99200001E+01 -0.69339E+05
 0.99699993E+01 -0.57637E+05
 0.10020000E+02 -0.45862E+05
 0.10070000E+02 -0.35352E+05
 0.10120001E+02 -0.26401E+05
 0.10170000E+02 -0.20137E+05
 0.10219999E+02 -0.16178E+05
 0.10270000E+02 -0.13116E+05
 0.10320000E+02 -0.10616E+05
 0.10370001E+02 -0.95000E+04
 0.10420000E+02 -0.10613E+05
 0.10469999E+02 -0.13088E+05
 0.10520000E+02 -0.16199E+05
 0.10570000E+02 -0.20047E+05
 0.10620001E+02 -0.24874E+05
 0.10670000E+02 -0.31073E+05
 0.10719999E+02 -0.38076E+05
 0.10770000E+02 -0.45334E+05
 0.10820000E+02 -0.52451E+05
 0.10870001E+02 -0.58912E+05
 0.10920000E+02 -0.64458E+05
 0.10969999E+02 -0.68139E+05
 0.11020000E+02 -0.69289E+05
 0.11070000E+02 -0.68019E+05
 0.11120001E+02 -0.64626E+05
 0.11170000E+02 -0.59814E+05
 0.11219999E+02 -0.54343E+05
 0.11270000E+02 -0.48843E+05
 0.11320000E+02 -0.43706E+05
 0.11370001E+02 -0.38609E+05
 0.11420000E+02 -0.32823E+05
 0.11469999E+02 -0.25742E+05
 0.11520000E+02 -0.17277E+05
 0.11570000E+02 -0.82030E+04
 0.11620001E+02  0.10060E+04
 0.11670000E+02  0.10939E+05
 0.11719999E+02  0.21978E+05
 0.11770000E+02  0.33639E+05
 0.11820000E+02  0.45068E+05
 0.11870001E+02  0.55609E+05
 0.11920000E+02  0.64484E+05
 0.11969999E+02  0.70879E+05
 0.12020000E+02  0.75396E+05
 0.12070000E+02  0.78594E+05
 0.12120001E+02  0.79573E+05
 0.12170000E+02  0.77740E+05
 0.12219999E+02  0.73085E+05
 0.12270000E+02  0.66360E+05
 0.12320000E+02  0.59046E+05
 0.12370001E+02  0.52185E+05
 0.12420000E+02  0.46338E+05
 0.12469999E+02  0.41168E+05
 0.12520000E+02  0.36318E+05
 0.12570000E+02  0.32438E+05
 0.12620001E+02  0.30011E+05
 0.12670000E+02  0.28738E+05
 0.12719999E+02  0.27296E+05
 0.12770000E+02  0.25430E+05
 0.12820000E+02  0.24608E+05
 0.12870001E+02  0.25039E+05
 0.12920000E+02  0.25748E+05
 0.12969999E+02  0.25751E+05
 0.13020000E+02  0.24398E+05
 0.13070000E+02  0.20996E+05
 0.13120001E+02  0.15036E+05
 0.13170000E+02  0.70390E+04
 0.13219999E+02 -0.25040E+04
 0.13270000E+02 -0.13322E+05
 0.13320000E+02 -0.24936E+05
 0.13370001E+02 -0.36489E+05
 0.13420000E+02 -0.47366E+05
 0.13469999E+02 -0.57872E+05
 0.13520000E+02 -0.67638E+05
 0.13570000E+02 -0.75808E+05
 0.13620001E+02 -0.81980E+05
 0.13670000E+02 -0.85780E+05
 0.13719999E+02 -0.87272E+05
 0.13770000E+02 -0.86088E+05
 0.13820000E+02 -0.81935E+05
 0.13870001E+02 -0.75057E+05
 0.13920000E+02 -0.65269E+05
 0.13969999E+02 -0.53281E+05
 0.14020000E+02 -0.40120E+05
 0.14070002E+02 -0.26789E+05
 0.14120001E+02 -0.13700E+05
 0.14170000E+02 -0.61700E+03
 0.14220001E+02  0.11509E+05
 0.14270000E+02  0.21893E+05
 0.14320002E+02  0.30059E+05
 0.14370001E+02  0.35870E+05
 0.14420000E+02  0.39775E+05
 0.14470001E+02  0.42011E+05
 0.14520000E+02  0.43341E+05
 0.14570002E+02  0.44567E+05
 0.14620001E+02  0.46322E+05
 0.14670000E+02  0.49409E+05
 0.14720001E+02  0.53553E+05
 0.14770000E+02  0.57607E+05
 0.14820002E+02  0.61322E+05
 0.14870001E+02  0.65058E+05
 0.14920000E+02  0.69016E+05
 0.14970001E+02  0.73054E+05
 0.15020000E+02  0.76752E+05
 0.15070002E+02  0.80150E+05
 0.15120001E+02  0.83346E+05
 0.15170000E+02  0.86389E+05
 0.15220001E+02  0.89066E+05
 0.15270000E+02  0.90943E+05
 0.15320002E+02  0.91454E+05
 0.15370001E+02  0.89680E+05
 0.15420000E+02  0.85251E+05
 0.15470001E+02  0.78011E+05
 0.15520000E+02  0.68594E+05
 0.15570002E+02  0.58115E+05
 0.15620001E+02  0.46640E+05
 0.15670000E+02  0.34808E+05
 0.15720001E+02  0.23359E+05
 0.15770000E+02  0.12455E+05
 0.15820002E+02  0.22170E+04
 0.15870001E+02 -0.74230E+04
 0.15920000E+02 -0.15857E+05
 0.15970001E+02 -0.22947E+05
 0.16020000E+02 -0.28356E+05
 0.16070002E+02 -0.30932E+05
 0.16120001E+02 -0.30945E+05
 0.16170000E+02 -0.28948E+05
 0.16220001E+02 -0.24452E+05
 0.16270000E+02 -0.17402E+05
 0.16320002E+02 -0.84080E+04
 0.16370001E+02  0.20190E+04
 0.16420000E+02  0.13661E+05
 0.16470001E+02  0.25982E+05
 0.16520000E+02  0.38042E+05
 0.16570002E+02  0.49415E+05
 0.16620001E+02  0.59343E+05
 0.16670000E+02  0.67168E+05
 0.16720001E+02  0.72908E+05
 0.16770000E+02  0.76266E+05
 0.16820002E+02  0.77237E+05
 0.16870001E+02  0.76164E+05
 0.16920000E+02  0.73563E+05
 0.16970001E+02  0.69319E+05
 0.17020000E+02  0.63017E+05
 0.17070002E+02  0.55330E+05
 0.17120001E+02  0.46904E+05
 0.17170000E+02  0.37851E+05
 0.17220001E+02  0.28261E+05
 0.17270000E+02  0.18327E+05
 0.17320002E+02  0.84730E+04
 0.17370001E+02 -0.70700E+03
 0.17420000E+02 -0.90430E+04
 0.17470001E+02 -0.16512E+05
 0.17520000E+02 -0.22963E+05
 0.17570002E+02 -0.28714E+05
 0.17620001E+02 -0.33624E+05
 0.17670000E+02 -0.37604E+05
 0.17720001E+02 -0.40790E+05
 0.17770000E+02 -0.42932E+05
 0.17820002E+02 -0.45033E+05
 0.17870001E+02 -0.47839E+05
 0.17920000E+02 -0.51198E+05
 0.17970001E+02 -0.55213E+05
 0.18020000E+02 -0.59840E+05
 0.18070002E+02 -0.65082E+05
 0.18120001E+02 -0.70205E+05
 0.18170000E+02 -0.74521E+05
 0.18220001E+02 -0.77854E+05
 0.18270000E+02 -0.80095E+05
 0.18320002E+02 -0.81619E+05
 0.18370001E+02 -0.82535E+05
 0.18420000E+02 -0.82719E+05
 0.18470001E+02 -0.82222E+05
 0.18520000E+02 -0.81100E+05
 0.18570002E+02 -0.79579E+05
 0.18620001E+02 -0.77972E+05
 0.18670000E+02 -0.75993E+05
 0.18720001E+02 -0.73450E+05
 0.18770000E+02 -0.70558E+05
 0.18820002E+02 -0.67210E+05
 0.18870001E+02 -0.63279E+05
 0.18920000E+02 -0.58618E+05
 0.18970001E+02 -0.53086E+05
 0.19020000E+02 -0.46676E+05
 0.19070002E+02 -0.39596E+05
 0.19120001E+02 -0.31862E+05
 0.19170000E+02 -0.22839E+05
 0.19220001E+02 -0.12579E+05
 0.19270000E+02 -0.20280E+04
 0.19320002E+02  0.83100E+04
 0.19370001E+02  0.18130E+05
 0.19420000E+02  0.26471E+05
 0.19470001E+02  0.32553E+05
 0.19520000E+02  0.36924E+05
 0.19570002E+02  0.39731E+05
 0.19620001E+02  0.39915E+05
 0.19670000E+02  0.38105E+05
 0.19720001E+02  0.35054E+05
 0.19770000E+02  0.29312E+05
 0.19820002E+02  0.20746E+05
 0.19870001E+02  0.10558E+05
 0.19920000E+02 -0.23200E+03
 0.19970001E+02 -0.11023E+05
 0.20020000E+02 -0.22018E+05
 0.20070002E+02 -0.32423E+05
 0.20120001E+02 -0.41943E+05
 0.20170000E+02 -0.50929E+05
 0.20220001E+02 -0.58614E+05
 0.20270000E+02 -0.64982E+05
 0.20320002E+02 -0.70364E+05
 0.20370001E+02 -0.74251E+05
 0.20420000E+02 -0.76447E+05
 0.20470001E+02 -0.77441E+05
 0.20520000E+02 -0.77725E+05
 0.20570002E+02 -0.77490E+05
 0.20620001E+02 -0.76925E+05
 0.20670000E+02 -0.75980E+05
 0.20720001E+02 -0.74618E+05
 0.20770000E+02 -0.73357E+05
 0.20820002E+02 -0.72177E+05
 0.20870001E+02 -0.70740E+05
 0.20920000E+02 -0.68276E+05
 0.20970001E+02 -0.63632E+05
 0.21020000E+02 -0.57456E+05
 0.21070002E+02 -0.50607E+05
 0.21120001E+02 -0.43043E+05
 0.21170000E+02 -0.35007E+05
 0.21220001E+02 -0.26747E+05
 0.21270000E+02 -0.18683E+05
 0.21320002E+02 -0.11004E+05
 0.21370001E+02 -0.37170E+04
 0.21420000E+02  0.31710E+04
 0.21470001E+02  0.97970E+04
 0.21520000E+02  0.16123E+05
 0.21570002E+02  0.22111E+05
 0.21620001E+02  0.27327E+05
 0.21670000E+02  0.31925E+05
 0.21720001E+02  0.36886E+05
 0.21770000E+02  0.41876E+05
 0.21820002E+02  0.46020E+05
 0.21870001E+02  0.49506E+05
 0.21920000E+02  0.53131E+05
 0.21970001E+02  0.57401E+05
 0.22020000E+02  0.62167E+05
 0.22070002E+02  0.67154E+05
 0.22120001E+02  0.71782E+05
 0.22170000E+02  0.75550E+05
 0.22220001E+02  0.78942E+05
 0.22270000E+02  0.82851E+05
 0.22320002E+02  0.87127E+05
 0.22370001E+02  0.90600E+05
 0.22420000E+02  0.93107E+05
 0.22470001E+02  0.95177E+05
 0.22520000E+02  0.96883E+05
 0.22570002E+02  0.98369E+05
 0.22620001E+02  0.99523E+05
 0.22670000E+02  0.99683E+05
 0.22720001E+02  0.98048E+05
 0.22770000E+02  0.94601E+05
 0.22820002E+02  0.89752E+05
 0.22870001E+02  0.83493E+05
 0.22920000E+02  0.76113E+05
 0.22970001E+02  0.67950E+05
 0.23020000E+02  0.58879E+05
 0.23070002E+02  0.48843E+05
 0.23120001E+02  0.38355E+05
 0.23170000E+02  0.27380E+05
 0.23220001E+02  0.15747E+05
 0.23270000E+02  0.46890E+04
 0.23320002E+02 -0.49890E+04
 0.23370001E+02 -0.13126E+05
 0.23420000E+02 -0.19508E+05
 0.23470001E+02 -0.24271E+05
 0.23520000E+02 -0.27660E+05
 0.23570002E+02 -0.29523E+05
 0.23620001E+02 -0.29061E+05
 0.23670000E+02 -0.27068E+05
 0.23720001E+02 -0.25237E+05
 0.23770000E+02 -0.23556E+05
 0.23820002E+02 -0.21719E+05
 0.23870001E+02 -0.19550E+05
 0.23920000E+02 -0.16715E+05
 0.23970001E+02 -0.13584E+05
 0.24020000E+02 -0.10423E+05
 0.24070002E+02 -0.71130E+04
 0.24120001E+02 -0.38950E+04
 0.24170000E+02 -0.85200E+03
 0.24220001E+02  0.16510E+04
 0.24270000E+02  0.28420E+04
 0.24320002E+02  0.27800E+04
 0.24370001E+02  0.19180E+04
 0.24420000E+02  0.27500E+03
 0.24470001E+02 -0.26610E+04
 0.24520000E+02 -0.64360E+04
 0.24570002E+02 -0.10062E+05
 0.24620001E+02 -0.13610E+05
 0.24670000E+02 -0.16606E+05
 0.24720001E+02 -0.18399E+05
 0.24770000E+02 -0.19073E+05
 0.24820002E+02 -0.18843E+05
 0.24870001E+02 -0.17547E+05
 0.24920000E+02 -0.14807E+05
 0.24970001E+02 -0.11163E+05
 0.25020000E+02 -0.70480E+04
 0.25070002E+02 -0.24780E+04
 0.25120001E+02  0.24070E+04
 0.25170000E+02  0.73760E+04
 0.25220001E+02  0.12120E+05
 0.25270000E+02  0.16682E+05
 0.25320002E+02  0.20802E+05
 0.25370001E+02  0.24149E+05
 0.25420000E+02  0.26000E+05
 0.25470001E+02  0.25897E+05
 0.25520000E+02  0.24286E+05
 0.25570002E+02  0.21766E+05
 0.25620001E+02  0.19028E+05
 0.25670000E+02  0.15744E+05
 0.25720001E+02  0.11955E+05
 0.25770000E+02  0.82060E+04
 0.25820002E+02  0.50270E+04
 0.25870001E+02  0.24740E+04
 0.25920000E+02  0.37800E+03
 0.25970001E+02 -0.49700E+03
 0.26020000E+02  0.16100E+03
 0.26070002E+02  0.16500E+04
 0.26120001E+02  0.21190E+04
 0.26170000E+02  0.24640E+04
 0.26220001E+02  0.30690E+04
 0.26270000E+02  0.17130E+04
 0.26320002E+02 -0.97100E+03
 0.26370001E+02 -0.30560E+04
 0.26420000E+02 -0.65460E+04
 0.26470001E+02 -0.12062E+05
 0.26520000E+02 -0.14908E+05
 0.26570002E+02 -0.18332E+05
 0.26620001E+02 -0.24000E+05
 0.26670000E+02 -0.25392E+05
 0.26720001E+02 -0.25033E+05
 0.26770000E+02 -0.25646E+05
 0.26820002E+02 -0.24287E+05
 0.26870001E+02 -0.25647E+05
 0.26920000E+02 -0.28334E+05
 0.26970001E+02 -0.21867E+05
 0.27020000E+02 -0.11486E+05
 0.27070002E+02 -0.74940E+04
 0.27120001E+02 -0.10431E+05
 0.27170000E+02 -0.16608E+05
 0.27220001E+02 -0.17155E+05
 0.27270000E+02 -0.20139E+05
 0.27320002E+02 -0.30205E+05
 0.27370001E+02 -0.28801E+05
 0.27420000E+02 -0.26736E+05
 0.27470001E+02 -0.32628E+05
 0.27520000E+02 -0.40144E+05
 0.27570002E+02 -0.53301E+05
 0.27620001E+02 -0.56307E+05
 0.27670000E+02 -0.49553E+05
 0.27720001E+02 -0.51581E+05
 0.27770000E+02 -0.60531E+05
 0.27820002E+02 -0.77804E+05
 0.27870001E+02 -0.98813E+05
 0.27920000E+02 -0.10182E+06
 0.27970001E+02 -0.90239E+05
 0.28020000E+02 -0.76344E+05
 0.28070002E+02 -0.62491E+05
 0.28120001E+02 -0.52382E+05
 0.28170000E+02 -0.40110E+05
 0.28220001E+02 -0.24050E+05
 0.28270000E+02 -0.16149E+05
 0.28320002E+02 -0.24360E+04
 0.28370001E+02  0.30831E+05
 0.28420000E+02  0.38862E+05
 0.28470001E+02  0.19353E+05
 0.28520000E+02  0.67280E+04
 0.28570002E+02  0.34242E+05
 0.28620001E+02  0.10598E+06
 0.28670000E+02  0.12278E+06
 0.28720001E+02  0.67833E+05
 0.28770000E+02  0.29334E+05
 0.28820002E+02  0.24403E+05
 0.28870001E+02  0.44654E+05
 0.28920000E+02  0.10701E+06
 0.28970001E+02  0.13028E+06
 0.29020000E+02  0.69788E+05
 0.29070002E+02  0.21716E+05
 0.29120001E+02 -0.50252E+05
 0.29170000E+02 -0.13186E+06
 0.29220001E+02 -0.89761E+05
 0.29270000E+02 -0.82840E+04
 0.29320002E+02  0.63216E+05
 0.29370001E+02  0.13015E+06
 0.29420000E+02  0.13524E+06
 0.29470001E+02  0.13360E+06
 0.29520000E+02  0.12532E+06
 0.29570002E+02  0.19705E+06
 0.29620001E+02  0.28466E+06
 0.29670000E+02  0.16676E+06
 0.29720001E+02 -0.50323E+05
 0.29770000E+02 -0.25956E+06
 0.29820002E+02 -0.32381E+06
 0.29870001E+02 -0.18071E+06
 0.29920000E+02  0.65260E+04
 0.29970001E+02  0.15471E+06
 0.30020000E+02  0.24161E+06
 0.30070000E+02  0.18353E+06
 0.30120003E+02  0.89123E+05
 0.30170002E+02  0.12415E+06
 0.30220001E+02  0.35065E+05
 0.30270000E+02 -0.16720E+06
 0.30320000E+02 -0.12850E+06
 0.30370003E+02  0.56227E+05
 0.30420002E+02  0.15309E+06
 0.30470001E+02  0.18599E+06
 0.30520000E+02  0.12664E+06
 0.30570000E+02 -0.60960E+04
 0.30620003E+02 -0.13390E+06
 0.30670002E+02 -0.15500E+06
 0.30720001E+02  0.35551E+05
 0.30770000E+02  0.14448E+06
 0.30820000E+02  0.54513E+05
 0.30870003E+02  0.14074E+05
 0.30920002E+02  0.12630E+06
 0.30970001E+02  0.13275E+06
 0.31020000E+02 -0.34072E+05
 0.31070000E+02  0.69774E+05
 0.31120003E+02  0.20743E+06
 0.31170002E+02  0.17600E+06
 0.31220001E+02  0.32760E+06
 0.31270000E+02  0.34916E+06
 0.31320000E+02  0.10480E+06
 0.31370003E+02 -0.90219E+05
 0.31420002E+02 -0.52680E+05
 0.31470001E+02  0.79572E+05
 0.31520000E+02  0.10952E+05
 0.31570000E+02  0.17223E+06
 0.31620003E+02  0.35568E+06
 0.31670002E+02  0.18971E+06
 0.31720001E+02  0.11899E+06
 0.31770000E+02 -0.45700E+05
 0.31820000E+02 -0.12178E+06
 0.31870003E+02 -0.10037E+06
 0.31920002E+02 -0.28485E+06
 0.31970001E+02 -0.24884E+06
 0.32020000E+02  0.92153E+05
 0.32070000E+02  0.30219E+06
 0.32120003E+02 -0.48856E+05
 0.32170002E+02 -0.28650E+06
 0.32220001E+02  0.84472E+05
 0.32270000E+02  0.23851E+06
 0.32320000E+02  0.25739E+05
 0.32370003E+02 -0.93680E+04
 0.32420002E+02 -0.20596E+05
 0.32470001E+02  0.46950E+04
 0.32520000E+02  0.32064E+06
 0.32570000E+02  0.37421E+06
 0.32620003E+02  0.57572E+05
 0.32670002E+02 -0.17431E+06
 0.32720001E+02  0.76734E+05
 0.32770000E+02  0.33974E+06
 0.32820000E+02 -0.12851E+06
 0.32870003E+02 -0.80542E+06
 0.32920002E+02 -0.10978E+07
 0.32970001E+02 -0.64419E+06
 0.33020000E+02  0.41201E+05
 0.33070000E+02  0.27948E+06
 0.33120003E+02  0.41635E+06
 0.33170002E+02  0.65607E+06
 0.33220001E+02  0.60371E+06
 0.33270000E+02  0.97379E+05
 0.33320000E+02 -0.21153E+06
 0.33370003E+02 -0.48076E+06
 0.33420002E+02 -0.96440E+06
 0.33470001E+02 -0.99722E+06
 0.33520000E+02 -0.28760E+06
 0.33570000E+02  0.30444E+06
 0.33620003E+02  0.13787E+06
 0.33670002E+02  0.13294E+06
 0.33720001E+02  0.47107E+05
 0.33770000E+02  0.68508E+05
 0.33820000E+02  0.40967E+06
 0.33870003E+02  0.14409E+06
 0.33920002E+02  0.18875E+06
 0.33970001E+02 -0.60662E+05
 0.34020000E+02 -0.78629E+06
 0.34070000E+02 -0.75662E+06
 0.34120003E+02 -0.27802E+06
 0.34170002E+02  0.15117E+06
 0.34220001E+02 -0.31051E+05
 0.34270000E+02 -0.27428E+06
 0.34320000E+02 -0.33383E+06
 0.34370003E+02 -0.79638E+06
 0.34420002E+02 -0.90904E+06
 0.34470001E+02 -0.39931E+06
 0.34520000E+02 -0.16607E+06
 0.34570000E+02 -0.17058E+06
 0.34620003E+02 -0.61056E+05
 0.34670002E+02  0.43684E+05
 0.34720001E+02 -0.16076E+06
 0.34770000E+02 -0.16357E+06
 0.34820000E+02  0.15129E+06
 0.34870003E+02 -0.64553E+05
 0.34920002E+02 -0.25988E+06
 0.34970001E+02 -0.14560E+06
 0.35020000E+02 -0.19324E+05
 0.35070000E+02 -0.20484E+05
 0.35120003E+02 -0.12621E+06
 0.35170002E+02 -0.12254E+06
 0.35220001E+02 -0.93956E+05
 0.35270000E+02 -0.44289E+05
 0.35320000E+02 -0.52188E+05
 0.35370003E+02 -0.34475E+05
 0.35420002E+02  0.26142E+06
 0.35470001E+02  0.47479E+06
 0.35520000E+02  0.14692E+06
 0.35570000E+02 -0.10376E+06
 0.35620003E+02  0.72710E+04
 0.35670002E+02  0.18547E+06
 0.35720001E+02  0.59837E+06
 0.35770000E+02  0.10617E+07
 0.35820000E+02  0.91988E+06
 0.35870003E+02  0.19094E+06
 0.35920002E+02 -0.20040E+06
 0.35970001E+02  0.16233E+06
 0.36020000E+02  0.47868E+06
 0.36070000E+02  0.47473E+06
 0.36120003E+02  0.52662E+06
 0.36170002E+02  0.27387E+06
 0.36220001E+02  0.12078E+06
 0.36270000E+02  0.28723E+06
 0.36320000E+02  0.22611E+06
 0.36370003E+02  0.37329E+05
 0.36420002E+02  0.55593E+05
 0.36470001E+02  0.43971E+06
 0.36520000E+02  0.74682E+06
 0.36570000E+02  0.81749E+06
 0.36620003E+02  0.32523E+06
 0.36670002E+02 -0.43343E+06
 0.36720001E+02 -0.53140E+06
 0.36770000E+02 -0.60152E+06
 0.36820000E+02 -0.84996E+06
 0.36870003E+02 -0.72653E+06
 0.36920002E+02 -0.59102E+06
 0.36970001E+02 -0.34777E+06
 0.37020000E+02 -0.14457E+05
 0.37070000E+02 -0.16888E+06
 0.37120003E+02 -0.35690E+06
 0.37170002E+02 -0.54434E+06
 0.37220001E+02 -0.56034E+06
 0.37270000E+02 -0.31132E+06
 0.37320000E+02 -0.21650E+06
 0.37370003E+02 -0.22881E+06
 0.37420002E+02 -0.55019E+06
 0.37470001E+02 -0.40484E+06
 0.37520000E+02 -0.12156E+05
 0.37570000E+02 -0.10682E+06
 0.37620003E+02  0.52901E+05
 0.37670002E+02  0.32544E+06
 0.37720001E+02  0.39710E+06
 0.37770000E+02  0.38636E+06
 0.37820000E+02  0.30995E+06
 0.37870003E+02  0.51263E+06
 0.37920002E+02  0.83911E+06
 0.37970001E+02  0.77235E+06
 0.38020000E+02  0.44338E+06
 0.38070000E+02  0.20311E+05
 0.38120003E+02 -0.48925E+06
 0.38170002E+02 -0.91001E+06
 0.38220001E+02 -0.89023E+06
 0.38270000E+02 -0.60011E+06
 0.38320000E+02 -0.72555E+06
 0.38370003E+02 -0.87733E+06
 0.38420002E+02 -0.61292E+06
 0.38470001E+02 -0.44084E+06
 0.38520000E+02 -0.49125E+06
 0.38570000E+02 -0.53099E+06
 0.38620003E+02 -0.52630E+06
 0.38670002E+02 -0.16363E+06
 0.38720001E+02  0.46885E+06
 0.38770000E+02  0.82764E+06
 0.38820000E+02  0.79530E+06
 0.38870003E+02  0.55968E+06
 0.38920002E+02  0.57385E+06
 0.38970001E+02  0.52236E+06
 0.39020000E+02  0.29524E+06
 0.39070000E+02  0.27367E+06
 0.39120003E+02  0.56915E+05
 0.39170002E+02 -0.31366E+06
 0.39220001E+02 -0.38489E+06
 0.39270000E+02 -0.58765E+05
 0.39320000E+02  0.35963E+06
 0.39370003E+02  0.62187E+06
 0.39420002E+02  0.60504E+06
 0.39470001E+02  0.23714E+06
 0.39520000E+02 -0.52353E+05
 0.39570000E+02 -0.10352E+06
 0.39620003E+02 -0.50331E+05
 0.39670002E+02  0.12002E+06
 0.39720001E+02  0.20430E+06
 0.39770000E+02  0.22049E+06
 0.39820000E+02  0.37655E+06
 0.39870003E+02  0.54989E+06
 0.39920002E+02  0.46023E+06
 0.39970001E+02  0.93200E+04
 0.40020000E+02 -0.34554E+06
 0.40070000E+02 -0.30123E+06
 0.40120003E+02 -0.20912E+06
 0.40170002E+02 -0.32746E+06
 0.40220001E+02 -0.55382E+06
 0.40270000E+02 -0.61716E+06
 0.40320000E+02 -0.35986E+06
 0.40370003E+02 -0.39480E+04
 0.40420002E+02  0.15588E+06
 0.40470001E+02  0.18500E+06
 0.40520000E+02  0.25694E+06
 0.40570000E+02  0.34543E+06
 0.40620003E+02  0.29478E+06
 0.40670002E+02  0.23823E+06
 0.40720001E+02  0.41703E+06
 0.40770000E+02  0.65686E+06
 0.40820000E+02  0.59609E+06
 0.40870003E+02  0.29042E+06
 0.40920002E+02  0.28768E+05
 0.40970001E+02 -0.65808E+05
 0.41020000E+02  0.15868E+05
 0.41070000E+02  0.12552E+06
 0.41120003E+02  0.29048E+06
 0.41170002E+02  0.33593E+06
 0.41220001E+02  0.13654E+06
 0.41270000E+02 -0.10194E+06
 0.41320000E+02 -0.32223E+06
 0.41370003E+02 -0.60555E+06
 0.41420002E+02 -0.82484E+06
 0.41470001E+02 -0.73947E+06
 0.41520000E+02 -0.64300E+06
 0.41570000E+02 -0.59932E+06
 0.41620003E+02 -0.53187E+06
 0.41670002E+02 -0.30042E+06
 0.41720001E+02  0.10300E+06
 0.41770000E+02  0.23818E+06
 0.41820000E+02  0.14097E+06
 0.41870003E+02 -0.46689E+05
 0.41920002E+02 -0.11769E+06
 0.41970001E+02 -0.41730E+05
 0.42020000E+02  0.56738E+05
 0.42070000E+02  0.21797E+06
 0.42120003E+02  0.23650E+06
 0.42170002E+02  0.18856E+06
 0.42220001E+02  0.17842E+06
 0.42270000E+02  0.61504E+05
 0.42320000E+02 -0.97917E+05
 0.42370003E+02 -0.25619E+06
 0.42420002E+02 -0.34458E+06
 0.42470001E+02 -0.26699E+06
 0.42520000E+02 -0.78779E+05
 0.42570000E+02  0.11258E+06
 0.42620003E+02  0.17202E+06
 0.42670002E+02  0.28630E+06
 0.42720001E+02  0.42508E+06
 0.42770000E+02  0.22622E+06
 0.42820000E+02 -0.10710E+05
 0.42870003E+02 -0.13810E+06
 0.42920002E+02 -0.28960E+06
 0.42970001E+02 -0.29161E+06
 0.43020000E+02 -0.30587E+06
 0.43070000E+02 -0.40199E+06
 0.43120003E+02 -0.44718E+06
 0.43170002E+02 -0.43075E+06
 0.43220001E+02 -0.15567E+06
 0.43270000E+02  0.13310E+06
 0.43320000E+02  0.93467E+05
 0.43370003E+02 -0.34541E+05
 0.43420002E+02 -0.17613E+06
 0.43470001E+02 -0.19870E+06
 0.43520000E+02  0.32854E+05
 0.43570000E+02  0.15183E+06
 0.43620003E+02  0.22697E+06
 0.43670002E+02  0.36574E+06
 0.43720001E+02  0.26186E+06
 0.43770000E+02  0.18358E+06
 0.43820000E+02  0.18012E+06
 0.43870003E+02  0.68434E+05
 0.43920002E+02  0.13667E+06
 0.43970001E+02  0.27006E+06
 0.44020000E+02  0.19228E+06
 0.44070000E+02 -0.31114E+05
 0.44120003E+02 -0.15089E+06
 0.44170002E+02 -0.50498E+05
 0.44220001E+02 -0.36700E+04
 0.44270000E+02 -0.17810E+06
 0.44320000E+02 -0.49565E+06
 0.44370003E+02 -0.60826E+06
 0.44420002E+02 -0.40094E+06
 0.44470001E+02 -0.24889E+06
 0.44520000E+02 -0.23807E+06
 0.44570000E+02 -0.27758E+06
 0.44620003E+02 -0.14792E+06
 0.44670002E+02  0.36198E+05
 0.44720001E+02  0.14671E+06
 0.44770000E+02  0.29664E+06
 0.44820000E+02  0.21113E+06
 0.44870003E+02  0.52259E+05
 0.44920002E+02 -0.69792E+05
 0.44970001E+02 -0.25387E+06
 0.45020000E+02 -0.29616E+06
 0.45070000E+02 -0.31276E+06
 0.45120003E+02 -0.51486E+06
 0.45170002E+02 -0.63389E+06
 0.45220001E+02 -0.47479E+06
 0.45270000E+02 -0.38572E+06
 0.45320000E+02 -0.38944E+06
 0.45370003E+02 -0.19270E+06
 0.45420002E+02  0.52954E+05
 0.45470001E+02  0.17215E+06
 0.45520000E+02  0.17503E+06
 0.45570000E+02  0.28000E+04
 0.45620003E+02 -0.12625E+06
 0.45670002E+02  0.39657E+05
 0.45720001E+02  0.32776E+06
 0.45770000E+02  0.53480E+06
 0.45820000E+02  0.64005E+06
 0.45870003E+02  0.56533E+06
 0.45920002E+02  0.36429E+06
 0.45970001E+02  0.16333E+06
 0.46020000E+02 -0.73435E+05
 0.46070000E+02 -0.32191E+06
 0.46120003E+02 -0.51226E+06
 0.46170002E+02 -0.55491E+06
 0.46220001E+02 -0.53733E+06
 0.46270000E+02 -0.56048E+06
 0.46320000E+02 -0.48416E+06
 0.46370003E+02 -0.22524E+06
 0.46420002E+02  0.18631E+06
 0.46470001E+02  0.40600E+06
 0.46520000E+02  0.28551E+06
 0.46570000E+02  0.11611E+06
 0.46620003E+02 -0.75549E+05
 0.46670002E+02 -0.19400E+06
 0.46720001E+02 -0.20628E+06
 0.46770000E+02 -0.24969E+06
 0.46820000E+02 -0.44062E+06
 0.46870003E+02 -0.61088E+06
 0.46920002E+02 -0.37850E+06
 0.46970001E+02 -0.74763E+05
 0.47020000E+02  0.96935E+05
 0.47070000E+02  0.21871E+06
 0.47120003E+02  0.27567E+06
 0.47170002E+02  0.33906E+06
 0.47220001E+02  0.22082E+06
 0.47270000E+02  0.39394E+05
 0.47320000E+02  0.45327E+05
 0.47370003E+02 -0.97350E+04
 0.47420002E+02 -0.28535E+06
 0.47470001E+02 -0.54546E+06
 0.47520000E+02 -0.68311E+06
 0.47570000E+02 -0.69279E+06
 0.47620003E+02 -0.67997E+06
 0.47670002E+02 -0.78595E+06
 0.47720001E+02 -0.80779E+06
 0.47770000E+02 -0.70826E+06
 0.47820000E+02 -0.59452E+06
 0.47870003E+02 -0.43451E+06
 0.47920002E+02 -0.14046E+06
 0.47970001E+02  0.25275E+06
 0.48020000E+02  0.54974E+06
 0.48070000E+02  0.77889E+06
 0.48120003E+02  0.96634E+06
 0.48170002E+02  0.11692E+07
 0.48220001E+02  0.15392E+07
 0.48270000E+02  0.18348E+07
 0.48320000E+02  0.18606E+07
 0.48370003E+02  0.17909E+07
 0.48420002E+02  0.17158E+07
 0.48470001E+02  0.17030E+07
 0.48520000E+02  0.16939E+07
 0.48570000E+02  0.16295E+07
 0.48620003E+02  0.16100E+07
 0.48670002E+02  0.14455E+07
 0.48720001E+02  0.95157E+06
 0.48770000E+02  0.59504E+06
 0.48820000E+02  0.80189E+06
 0.48870003E+02  0.10257E+07
 0.48920002E+02  0.99516E+06
 0.48970001E+02  0.78477E+06
 0.49020000E+02  0.26203E+06
 0.49070000E+02 -0.23665E+06
 0.49120003E+02 -0.47304E+06
 0.49170002E+02 -0.56597E+06
 0.49220001E+02 -0.62508E+06
 0.49270000E+02 -0.69241E+06
 0.49320000E+02 -0.73777E+06
 0.49370003E+02 -0.59445E+06
 0.49420002E+02 -0.48102E+06
 0.49470001E+02 -0.49124E+06
 0.49520000E+02 -0.43426E+06
 0.49570000E+02 -0.54863E+06
 0.49620003E+02 -0.77107E+06
 0.49670002E+02 -0.99532E+06
 0.49720001E+02 -0.12361E+07
 0.49770000E+02 -0.15885E+07
 0.49820000E+02 -0.18916E+07
 0.49870003E+02 -0.18679E+07
 0.49920002E+02 -0.18631E+07
 0.49970001E+02 -0.19105E+07
 0.50020000E+02 -0.18674E+07
 0.50070000E+02 -0.17344E+07
 0.50120003E+02 -0.14578E+07
 0.50170002E+02 -0.11385E+07
 0.50220001E+02 -0.77336E+06
 0.50270000E+02 -0.35639E+06
 0.50320000E+02 -0.57507E+05
 0.50370003E+02  0.26380E+06
 0.50420002E+02  0.69274E+06
 0.50470001E+02  0.93831E+06
 0.50520000E+02  0.96357E+06
 0.50570000E+02  0.86121E+06
 0.50620003E+02  0.61097E+06
 0.50670002E+02  0.42648E+06
 0.50720001E+02  0.56413E+06
 0.50770000E+02  0.54256E+06
 0.50820000E+02  0.13911E+06
 0.50870003E+02 -0.10048E+06
 0.50920002E+02 -0.37273E+05
 0.50970001E+02 -0.17082E+06
 0.51020000E+02 -0.90678E+06
 0.51070000E+02 -0.17171E+07
 0.51120003E+02 -0.21635E+07
 0.51170002E+02 -0.22225E+07
 0.51220001E+02 -0.18581E+07
 0.51270000E+02 -0.16252E+07
 0.51320000E+02 -0.17182E+07
 0.51370003E+02 -0.16714E+07
 0.51420002E+02 -0.13889E+07
 0.51470001E+02 -0.12038E+07
 0.51520000E+02 -0.12240E+07
 0.51570000E+02 -0.15128E+07
 0.51620003E+02 -0.21599E+07
 0.51670002E+02 -0.25703E+07
 0.51720001E+02 -0.24379E+07
 0.51770000E+02 -0.21728E+07
 0.51820000E+02 -0.19776E+07
 0.51870003E+02 -0.16427E+07
 0.51920002E+02 -0.12404E+07
 0.51970001E+02 -0.11424E+07
 0.52020000E+02 -0.93451E+06
 0.52070000E+02 -0.37495E+06
 0.52120003E+02  0.87000E+03
 0.52170002E+02 -0.99475E+05
 0.52220001E+02 -0.44003E+06
 0.52270000E+02 -0.70539E+06
 0.52320000E+02 -0.78179E+06
 0.52370003E+02 -0.50480E+06
 0.52420002E+02 -0.28388E+06
 0.52470001E+02 -0.34324E+06
 0.52520000E+02 -0.42992E+06
 0.52570000E+02 -0.58585E+06
 0.52620003E+02 -0.52920E+06
 0.52670002E+02 -0.43383E+06
 0.52720001E+02 -0.61414E+06
 0.52770000E+02 -0.42877E+06
 0.52820000E+02  0.65805E+06
 0.52870003E+02  0.19988E+07
 0.52920002E+02  0.27891E+07
 0.52970001E+02  0.30657E+07
 0.53020000E+02  0.27605E+07
 0.53070000E+02  0.21493E+07
 0.53120003E+02  0.16841E+07
 0.53170002E+02  0.11756E+07
 0.53220001E+02  0.70406E+06
 0.53270000E+02  0.24022E+06
 0.53320000E+02 -0.46347E+06
 0.53370003E+02 -0.11642E+07
 0.53420002E+02 -0.16156E+07
 0.53470001E+02 -0.18249E+07
 0.53520000E+02 -0.17531E+07
 0.53570000E+02 -0.16781E+07
 0.53620003E+02 -0.14897E+07
 0.53670002E+02 -0.57842E+06
 0.53720001E+02  0.63611E+06
 0.53770000E+02  0.16594E+07
 0.53820000E+02  0.24330E+07
 0.53870003E+02  0.29308E+07
 0.53920002E+02  0.35414E+07
 0.53970001E+02  0.44051E+07
 0.54020000E+02  0.51654E+07
 0.54070000E+02  0.55771E+07
 0.54120003E+02  0.58419E+07
 0.54170002E+02  0.59871E+07
 0.54220001E+02  0.56977E+07
 0.54270000E+02  0.50839E+07
 0.54320000E+02  0.42574E+07
 0.54370003E+02  0.33204E+07
 0.54420002E+02  0.27033E+07
 0.54470001E+02  0.24033E+07
 0.54520000E+02  0.23107E+07
 0.54570000E+02  0.23040E+07
 0.54620003E+02  0.21318E+07
 0.54670002E+02  0.17016E+07
 0.54720001E+02  0.10603E+07
 0.54770000E+02  0.78273E+06
 0.54820000E+02  0.92810E+06
 0.54870003E+02  0.90726E+06
 0.54920002E+02  0.88737E+06
 0.54970001E+02  0.12495E+07
 0.55020000E+02  0.18438E+07
 0.55070000E+02  0.23231E+07
 0.55120003E+02  0.26742E+07
 0.55170002E+02  0.29242E+07
 0.55220001E+02  0.30824E+07
 0.55270000E+02  0.33440E+07
 0.55320000E+02  0.34439E+07
 0.55370003E+02  0.33234E+07
 0.55420002E+02  0.30974E+07
 0.55470001E+02  0.26453E+07
 0.55520000E+02  0.23833E+07
 0.55570000E+02  0.26477E+07
 0.55620003E+02  0.30958E+07
 0.55670002E+02  0.31783E+07
 0.55720001E+02  0.29669E+07
 0.55770000E+02  0.28483E+07
 0.55820000E+02  0.29000E+07
 0.55870003E+02  0.30678E+07
 0.55920002E+02  0.30406E+07
 0.55970001E+02  0.26597E+07
 0.56020000E+02  0.20472E+07
 0.56070000E+02  0.13278E+07
 0.56120003E+02  0.55557E+06
 0.56170002E+02  0.93975E+05
 0.56220001E+02  0.39618E+06
 0.56270000E+02  0.69973E+06
 0.56320000E+02  0.37283E+06
 0.56370003E+02 -0.12561E+06
 0.56420002E+02 -0.49415E+06
 0.56470001E+02 -0.51659E+06
 0.56520000E+02 -0.39603E+06
 0.56570000E+02 -0.56944E+06
 0.56620003E+02 -0.10274E+07
 0.56670002E+02 -0.16468E+07
 0.56720001E+02 -0.21973E+07
 0.56770000E+02 -0.25584E+07
 0.56820000E+02 -0.27809E+07
 0.56870003E+02 -0.29743E+07
 0.56920002E+02 -0.31251E+07
 0.56970001E+02 -0.29842E+07
 0.57020000E+02 -0.25049E+07
 0.57070000E+02 -0.16893E+07
 0.57120003E+02 -0.77583E+06
 0.57170002E+02 -0.25238E+06
 0.57220001E+02 -0.99857E+05
 0.57270000E+02 -0.20557E+06
 0.57320000E+02 -0.50138E+06
 0.57370003E+02 -0.80923E+06
 0.57420002E+02 -0.10300E+07
 0.57470001E+02 -0.11902E+07
 0.57520000E+02 -0.13541E+07
 0.57570000E+02 -0.12681E+07
 0.57620003E+02 -0.84724E+06
 0.57670002E+02 -0.35084E+06
 0.57720001E+02  0.14294E+06
 0.57770000E+02  0.77178E+06
 0.57820000E+02  0.14458E+07
 0.57870003E+02  0.18316E+07
 0.57920002E+02  0.18886E+07
 0.57970001E+02  0.17492E+07
 0.58020000E+02  0.16440E+07
 0.58070000E+02  0.17169E+07
 0.58120003E+02  0.16434E+07
 0.58170002E+02  0.13300E+07
 0.58220001E+02  0.79009E+06
 0.58270000E+02 -0.41473E+05
 0.58320000E+02 -0.74488E+06
 0.58370003E+02 -0.10242E+07
 0.58420002E+02 -0.90326E+06
 0.58470001E+02 -0.77686E+06
 0.58520000E+02 -0.99299E+06
 0.58570000E+02 -0.13210E+07
 0.58620003E+02 -0.15840E+07
 0.58670002E+02 -0.17689E+07
 0.58720001E+02 -0.18404E+07
 0.58770000E+02 -0.17464E+07
 0.58820000E+02 -0.15681E+07
 0.58870003E+02 -0.14308E+07
 0.58920002E+02 -0.14162E+07
 0.58970001E+02 -0.14007E+07
 0.59020000E+02 -0.11832E+07
 0.59070000E+02 -0.84852E+06
 0.59120003E+02 -0.56948E+06
 0.59170002E+02 -0.48598E+06
 0.59220001E+02 -0.33057E+06
 0.59270000E+02  0.63420E+04
 0.59320000E+02  0.16241E+06
 0.59370003E+02  0.22634E+06
 0.59420002E+02  0.42794E+06
 0.59470001E+02  0.62607E+06
 0.59520000E+02  0.62072E+06
 0.59570000E+02  0.57085E+06
 0.59620003E+02  0.58104E+06
 0.59670002E+02  0.46478E+06
 0.59720001E+02  0.38834E+06
 0.59770000E+02  0.50843E+06
 0.59820000E+02  0.55999E+06
 0.59870003E+02  0.29186E+06
 0.59920002E+02 -0.30308E+06
 0.59970001E+02 -0.10993E+07
 0.60020000E+02 -0.19350E+07
 0.60070000E+02 -0.27224E+07
 0.60120003E+02 -0.35096E+07
 0.60170002E+02 -0.41666E+07
 0.60220001E+02 -0.44415E+07
 0.60270000E+02 -0.45116E+07
 0.60320000E+02 -0.47270E+07
 0.60370003E+02 -0.50822E+07
 0.60420002E+02 -0.53756E+07
 0.60470001E+02 -0.54589E+07
 0.60520000E+02 -0.52820E+07
 0.60570000E+02 -0.50030E+07
 0.60620003E+02 -0.49159E+07
 0.60670002E+02 -0.49911E+07
 0.60720001E+02 -0.50937E+07
 0.60770000E+02 -0.52432E+07
 0.60820000E+02 -0.53617E+07
 0.60870003E+02 -0.52604E+07
 0.60920002E+02 -0.49243E+07
 0.60970001E+02 -0.46335E+07
 0.61020000E+02 -0.44077E+07
 0.61070000E+02 -0.40831E+07
 0.61120003E+02 -0.37025E+07
 0.61170002E+02 -0.33943E+07
 0.61220001E+02 -0.33317E+07
 0.61270000E+02 -0.35372E+07
 0.61320000E+02 -0.38454E+07
 0.61370003E+02 -0.39703E+07
 0.61420002E+02 -0.37686E+07
 0.61470001E+02 -0.34913E+07
 0.61520000E+02 -0.32682E+07
 0.61570000E+02 -0.30169E+07
 0.61620003E+02 -0.27990E+07
 0.61670002E+02 -0.27087E+07
 0.61720001E+02 -0.26205E+07
 0.61770000E+02 -0.22888E+07
 0.61820000E+02 -0.18480E+07
 0.61870003E+02 -0.15524E+07
 0.61920002E+02 -0.13705E+07
 0.61970001E+02 -0.11727E+07
 0.62020000E+02 -0.87887E+06
 0.62070004E+02 -0.69678E+06
 0.62119999E+02 -0.83247E+06
 0.62170002E+02 -0.11999E+07
 0.62220005E+02 -0.15362E+07
 0.62270000E+02 -0.14994E+07
 0.62320004E+02 -0.94567E+06
 0.62369999E+02 -0.11915E+06
 0.62420002E+02  0.49267E+06
 0.62470005E+02  0.69926E+06
 0.62520000E+02  0.67138E+06
 0.62570004E+02  0.59691E+06
 0.62619999E+02  0.57367E+06
 0.62670002E+02  0.64000E+06
 0.62720005E+02  0.86583E+06
 0.62770000E+02  0.11933E+07
 0.62820004E+02  0.14963E+07
 0.62869999E+02  0.17034E+07
 0.62920002E+02  0.17347E+07
 0.62970005E+02  0.17033E+07
 0.63020000E+02  0.17673E+07
 0.63070004E+02  0.18323E+07
 0.63119999E+02  0.17851E+07
 0.63170002E+02  0.15522E+07
 0.63220005E+02  0.11418E+07
 0.63270000E+02  0.82300E+06
 0.63320004E+02  0.78098E+06
 0.63369999E+02  0.10066E+07
 0.63420002E+02  0.14004E+07
 0.63470005E+02  0.17924E+07
 0.63520000E+02  0.20795E+07
 0.63570004E+02  0.21936E+07
 0.63619999E+02  0.22638E+07
 0.63670002E+02  0.24180E+07
 0.63720005E+02  0.24874E+07
 0.63770000E+02  0.24047E+07
 0.63820004E+02  0.22452E+07
 0.63869999E+02  0.19775E+07
 0.63920002E+02  0.16225E+07
 0.63970005E+02  0.14359E+07
 0.64019997E+02  0.15873E+07
 0.64070000E+02  0.18507E+07
 0.64119995E+02  0.19786E+07
 0.64169998E+02  0.19840E+07
 0.64220001E+02  0.18957E+07
 0.64269997E+02  0.17759E+07
 0.64320000E+02  0.17583E+07
 0.64369995E+02  0.17522E+07
 0.64419998E+02  0.16326E+07
 0.64470001E+02  0.14448E+07
 0.64519997E+02  0.13389E+07
 0.64570000E+02  0.13285E+07
 0.64619995E+02  0.12900E+07
 0.64669998E+02  0.12625E+07
 0.64720001E+02  0.11316E+07
 0.64769997E+02  0.78490E+06
 0.64820000E+02  0.29717E+06
 0.64869995E+02 -0.21886E+06
 0.64919998E+02 -0.58644E+06
 0.64970001E+02 -0.77105E+06
 0.65019997E+02 -0.75782E+06
 0.65070000E+02 -0.59468E+06
 0.65119995E+02 -0.43294E+06
 0.65169998E+02 -0.32678E+06
 0.65220001E+02 -0.28477E+06
 0.65269997E+02 -0.20660E+06
 0.65320000E+02  0.33361E+05
 0.65369995E+02  0.44055E+06
 0.65419998E+02  0.10165E+07
 0.65470001E+02  0.16539E+07
 0.65519997E+02  0.21588E+07
 0.65570000E+02  0.24749E+07
 0.65619995E+02  0.25494E+07
 0.65669998E+02  0.23772E+07
 0.65720001E+02  0.20915E+07
 0.65769997E+02  0.18619E+07
 0.65820000E+02  0.18298E+07
 0.65869995E+02  0.19368E+07
 0.65919998E+02  0.20191E+07
 0.65970001E+02  0.20441E+07
 0.66019997E+02  0.20127E+07
 0.66070000E+02  0.18109E+07
 0.66119995E+02  0.14875E+07
 0.66169998E+02  0.12304E+07
 0.66220001E+02  0.97638E+06
 0.66269997E+02  0.68737E+06
 0.66320000E+02  0.43957E+06
 0.66369995E+02  0.23645E+06
 0.66419998E+02  0.12286E+06
 0.66470001E+02  0.13657E+06
 0.66519997E+02  0.29254E+06
 0.66570000E+02  0.51285E+06
 0.66619995E+02  0.64300E+06
 0.66669998E+02  0.66333E+06
 0.66720001E+02  0.65138E+06
 0.66769997E+02  0.64495E+06
 0.66820000E+02  0.58830E+06
 0.66869995E+02  0.45277E+06
 0.66919998E+02  0.29373E+06
 0.66970001E+02  0.12998E+06
 0.67019997E+02 -0.13065E+05
 0.67070000E+02 -0.15117E+06
 0.67119995E+02 -0.37999E+06
 0.67169998E+02 -0.64389E+06
 0.67220001E+02 -0.75829E+06
 0.67269997E+02 -0.68437E+06
 0.67320000E+02 -0.55149E+06
 0.67369995E+02 -0.51992E+06
 0.67419998E+02 -0.68471E+06
 0.67470001E+02 -0.98051E+06
 0.67519997E+02 -0.13103E+07
 0.67570000E+02 -0.15512E+07
 0.67619995E+02 -0.15403E+07
 0.67669998E+02 -0.12989E+07
 0.67720001E+02 -0.99823E+06
 0.67769997E+02 -0.78595E+06
 0.67820000E+02 -0.60347E+06
 0.67869995E+02 -0.38921E+06
 0.67919998E+02 -0.21401E+06
 0.67970001E+02 -0.12014E+06
 0.68019997E+02 -0.16515E+06
 0.68070000E+02 -0.29467E+06
 0.68119995E+02 -0.37144E+06
 0.68169998E+02 -0.38928E+06
 0.68220001E+02 -0.39478E+06
 0.68269997E+02 -0.35269E+06
 0.68320000E+02 -0.25512E+06
 0.68369995E+02 -0.15870E+06
 0.68419998E+02 -0.13646E+06
 0.68470001E+02 -0.20049E+06
 0.68519997E+02 -0.26636E+06
 0.68570000E+02 -0.30987E+06
 0.68619995E+02 -0.33799E+06
 0.68669998E+02 -0.35542E+06
 0.68720001E+02 -0.30373E+06
 0.68769997E+02 -0.16988E+06
 0.68820000E+02 -0.38785E+05
 0.68869995E+02  0.12130E+06
 0.68919998E+02  0.29584E+06
 0.68970001E+02  0.45804E+06
 0.69019997E+02  0.54234E+06
 0.69070000E+02  0.43310E+06
 0.69119995E+02  0.23912E+06
 0.69169998E+02  0.81851E+05
 0.69220001E+02 -0.23944E+05
 0.69269997E+02 -0.13996E+06
 0.69320000E+02 -0.29522E+06
 0.69369995E+02 -0.38458E+06
 0.69419998E+02 -0.33300E+06
 0.69470001E+02 -0.12708E+06
 0.69519997E+02  0.15515E+06
 0.69570000E+02  0.42727E+06
 0.69619995E+02  0.65988E+06
 0.69669998E+02  0.88462E+06
 0.69720001E+02  0.11628E+07
 0.69769997E+02  0.14540E+07
 0.69820000E+02  0.16965E+07
 0.69869995E+02  0.18486E+07
 0.69919998E+02  0.18635E+07
 0.69970001E+02  0.16878E+07
 0.70019997E+02  0.13601E+07
 0.70070000E+02  0.10145E+07
 0.70119995E+02  0.72382E+06
 0.70169998E+02  0.49578E+06
 0.70220001E+02  0.27387E+06
 0.70269997E+02  0.61380E+04
 0.70320000E+02 -0.28354E+06
 0.70369995E+02 -0.51262E+06
 0.70419998E+02 -0.63484E+06
 0.70470001E+02 -0.68037E+06
 0.70519997E+02 -0.60812E+06
 0.70570000E+02 -0.35707E+06
 0.70619995E+02  0.67995E+05
 0.70669998E+02  0.59416E+06
 0.70720001E+02  0.10351E+07
 0.70769997E+02  0.12819E+07
 0.70820000E+02  0.13322E+07
 0.70869995E+02  0.11977E+07
 0.70919998E+02  0.96758E+06
 0.70970001E+02  0.77367E+06
 0.71019997E+02  0.71603E+06
 0.71070000E+02  0.73108E+06
 0.71119995E+02  0.76525E+06
 0.71169998E+02  0.85190E+06
 0.71220001E+02  0.94175E+06
 0.71269997E+02  0.10219E+07
 0.71320000E+02  0.11055E+07
 0.71369995E+02  0.12313E+07
 0.71419998E+02  0.14628E+07
 0.71470001E+02  0.17672E+07
 0.71519997E+02  0.20559E+07
 0.71570000E+02  0.23077E+07
 0.71619995E+02  0.25460E+07
 0.71669998E+02  0.27374E+07
 0.71720001E+02  0.27832E+07
 0.71769997E+02  0.26482E+07
 0.71820000E+02  0.24586E+07
 0.71869995E+02  0.23541E+07
 0.71919998E+02  0.24021E+07
 0.71970001E+02  0.25111E+07
 0.72019997E+02  0.25156E+07
 0.72070000E+02  0.23812E+07
 0.72119995E+02  0.21488E+07
 0.72169998E+02  0.18948E+07
 0.72220001E+02  0.16479E+07
 0.72269997E+02  0.13910E+07
 0.72320000E+02  0.11306E+07
 0.72369995E+02  0.85655E+06
 0.72419998E+02  0.59735E+06
 0.72470001E+02  0.33251E+06
 0.72519997E+02 -0.29594E+05
 0.72570000E+02 -0.44621E+06
 0.72619995E+02 -0.84622E+06
 0.72669998E+02 -0.11999E+07
 0.72720001E+02 -0.14547E+07
 0.72769997E+02 -0.15827E+07
 0.72820000E+02 -0.15918E+07
 0.72869995E+02 -0.15419E+07
 0.72919998E+02 -0.14853E+07
 0.72970001E+02 -0.14206E+07
 0.73019997E+02 -0.13129E+07
 0.73070000E+02 -0.11183E+07
 0.73119995E+02 -0.83893E+06
 0.73169998E+02 -0.55830E+06
 0.73220001E+02 -0.36619E+06
 0.73269997E+02 -0.27391E+06
 0.73320000E+02 -0.22634E+06
 0.73369995E+02 -0.17149E+06
 0.73419998E+02 -0.12117E+06
 0.73470001E+02 -0.74110E+05
 0.73519997E+02 -0.17276E+05
 0.73570000E+02  0.16300E+05
 0.73619995E+02  0.14756E+05
 0.73669998E+02  0.25083E+05
 0.73720001E+02  0.87842E+05
 0.73769997E+02  0.14183E+06
 0.73820000E+02  0.13298E+06
 0.73869995E+02  0.55744E+05
 0.73919998E+02 -0.53977E+05
 0.73970001E+02 -0.93136E+05
 0.74019997E+02 -0.57124E+05
 0.74070000E+02 -0.13793E+05
 0.74119995E+02 -0.21955E+05
 0.74169998E+02 -0.77891E+05
 0.74220001E+02 -0.17914E+06
 0.74269997E+02 -0.36339E+06
 0.74320000E+02 -0.59178E+06
 0.74369995E+02 -0.83091E+06
 0.74419998E+02 -0.10079E+07
 0.74470001E+02 -0.10942E+07
 0.74519997E+02 -0.11439E+07
 0.74570000E+02 -0.11502E+07
 0.74619995E+02 -0.11145E+07
 0.74669998E+02 -0.10356E+07
 0.74720001E+02 -0.92210E+06
 0.74769997E+02 -0.77970E+06
 0.74820000E+02 -0.64073E+06
 0.74869995E+02 -0.61659E+06
 0.74919998E+02 -0.75926E+06
 0.74970001E+02 -0.99602E+06
 0.75019997E+02 -0.12302E+07
 0.75070000E+02 -0.14167E+07
 0.75119995E+02 -0.15233E+07
 0.75169998E+02 -0.15802E+07
 0.75220001E+02 -0.16223E+07
 0.75269997E+02 -0.16120E+07
 0.75320000E+02 -0.15475E+07
 0.75369995E+02 -0.14680E+07
 0.75419998E+02 -0.14067E+07
 0.75470001E+02 -0.13782E+07
 0.75519997E+02 -0.13799E+07
 0.75570000E+02 -0.13607E+07
 0.75619995E+02 -0.12880E+07
 0.75669998E+02 -0.12035E+07
 0.75720001E+02 -0.11049E+07
 0.75769997E+02 -0.96929E+06
 0.75820000E+02 -0.82142E+06
 0.75869995E+02 -0.67724E+06
 0.75919998E+02 -0.53735E+06
 0.75970001E+02 -0.45536E+06
 0.76019997E+02 -0.48164E+06
 0.76070000E+02 -0.59416E+06
 0.76119995E+02 -0.71776E+06
 0.76169998E+02 -0.78491E+06
 0.76220001E+02 -0.80815E+06
 0.76269997E+02 -0.81805E+06
 0.76320000E+02 -0.82945E+06
 0.76369995E+02 -0.84113E+06
 0.76419998E+02 -0.83697E+06
 0.76470001E+02 -0.83713E+06
 0.76519997E+02 -0.87922E+06
 0.76570000E+02 -0.98229E+06
 0.76619995E+02 -0.11306E+07
 0.76669998E+02 -0.12331E+07
 0.76720001E+02 -0.12117E+07
 0.76769997E+02 -0.11232E+07
 0.76820000E+02 -0.10624E+07
 0.76869995E+02 -0.10487E+07
 0.76919998E+02 -0.10398E+07
 0.76970001E+02 -0.10226E+07
 0.77019997E+02 -0.10023E+07
 0.77070000E+02 -0.96012E+06
 0.77119995E+02 -0.90655E+06
 0.77169998E+02 -0.87140E+06
 0.77220001E+02 -0.86292E+06
 0.77269997E+02 -0.87579E+06
 0.77320000E+02 -0.89050E+06
 0.77369995E+02 -0.87884E+06
 0.77419998E+02 -0.82470E+06
 0.77470001E+02 -0.69894E+06
 0.77519997E+02 -0.51828E+06
 0.77570000E+02 -0.31955E+06
 0.77619995E+02 -0.10074E+06
 0.77669998E+02  0.11579E+06
 0.77720001E+02  0.31870E+06
 0.77769997E+02  0.51910E+06
 0.77820000E+02  0.70994E+06
 0.77869995E+02  0.84812E+06
 0.77919998E+02  0.88366E+06
 0.77970001E+02  0.80913E+06
 0.78019997E+02  0.65123E+06
 0.78070000E+02  0.47093E+06
 0.78119995E+02  0.34313E+06
 0.78169998E+02  0.30527E+06
 0.78220001E+02  0.32900E+06
 0.78269997E+02  0.36615E+06
 0.78320000E+02  0.39249E+06
 0.78369995E+02  0.39841E+06
 0.78419998E+02  0.40708E+06
 0.78470001E+02  0.43167E+06
 0.78519997E+02  0.46807E+06
 0.78570000E+02  0.53283E+06
 0.78619995E+02  0.63216E+06
 0.78669998E+02  0.76885E+06
 0.78720001E+02  0.94703E+06
 0.78769997E+02  0.11326E+07
 0.78820000E+02  0.12823E+07
 0.78869995E+02  0.13701E+07
 0.78919998E+02  0.13620E+07
 0.78970001E+02  0.12985E+07
 0.79019997E+02  0.12393E+07
 0.79070000E+02  0.11650E+07
 0.79119995E+02  0.10680E+07
 0.79169998E+02  0.97508E+06
 0.79220001E+02  0.93375E+06
 0.79269997E+02  0.95817E+06
 0.79320000E+02  0.10050E+07
 0.79369995E+02  0.10176E+07
 0.79419998E+02  0.98162E+06
 0.79470001E+02  0.93411E+06
 0.79519997E+02  0.89132E+06
 0.79570000E+02  0.85537E+06
 0.79619995E+02  0.82693E+06
 0.79669998E+02  0.81670E+06
 0.79720001E+02  0.83021E+06
 0.79769997E+02  0.84715E+06
 0.79820000E+02  0.86452E+06
 0.79869995E+02  0.87855E+06
 0.79919998E+02  0.87314E+06
 0.79970001E+02  0.80422E+06
 0.80019997E+02  0.62835E+06
 0.80070000E+02  0.38527E+06
 0.80119995E+02  0.13858E+06
 0.80169998E+02 -0.83716E+05
 0.80220001E+02 -0.26977E+06
 0.80269997E+02 -0.42610E+06
 0.80320000E+02 -0.57583E+06
 0.80369995E+02 -0.72255E+06
 0.80419998E+02 -0.81652E+06
 0.80470001E+02 -0.81894E+06
 0.80519997E+02 -0.73708E+06
 0.80570000E+02 -0.59937E+06
 0.80619995E+02 -0.46505E+06
 0.80669998E+02 -0.36897E+06
 0.80720001E+02 -0.32429E+06
 0.80769997E+02 -0.31511E+06
 0.80820000E+02 -0.29662E+06
 0.80869995E+02 -0.26948E+06
 0.80919998E+02 -0.22640E+06
 0.80970001E+02 -0.17730E+06
 0.81019997E+02 -0.16984E+06
 0.81070000E+02 -0.22328E+06
 0.81119995E+02 -0.30847E+06
 0.81169998E+02 -0.36799E+06
 0.81220001E+02 -0.40532E+06
 0.81269997E+02 -0.44516E+06
 0.81320000E+02 -0.48832E+06
 0.81369995E+02 -0.54568E+06
 0.81419998E+02 -0.59584E+06
 0.81470001E+02 -0.61141E+06
 0.81519997E+02 -0.59061E+06
 0.81570000E+02 -0.55476E+06
 0.81619995E+02 -0.56108E+06
 0.81669998E+02 -0.63964E+06
 0.81720001E+02 -0.78919E+06
 0.81769997E+02 -0.10026E+07
 0.81820000E+02 -0.12500E+07
 0.81869995E+02 -0.14712E+07
 0.81919998E+02 -0.16123E+07
 0.81970001E+02 -0.16853E+07
 0.82019997E+02 -0.17196E+07
 0.82070000E+02 -0.17155E+07
 0.82119995E+02 -0.16741E+07
 0.82169998E+02 -0.16481E+07
 0.82220001E+02 -0.16517E+07
 0.82269997E+02 -0.16351E+07
 0.82320000E+02 -0.15875E+07
 0.82369995E+02 -0.14987E+07
 0.82419998E+02 -0.13883E+07
 0.82470001E+02 -0.12933E+07
 0.82519997E+02 -0.11977E+07
 0.82570000E+02 -0.10885E+07
 0.82619995E+02 -0.98276E+06
 0.82669998E+02 -0.89134E+06
 0.82720001E+02 -0.79631E+06
 0.82769997E+02 -0.67452E+06
 0.82820000E+02 -0.51437E+06
 0.82869995E+02 -0.33738E+06
 0.82919998E+02 -0.18061E+06
 0.82970001E+02 -0.40923E+05
 0.83019997E+02  0.83137E+05
 0.83070000E+02  0.18197E+06
 0.83119995E+02  0.29050E+06
 0.83169998E+02  0.42716E+06
 0.83220001E+02  0.56013E+06
 0.83269997E+02  0.65643E+06
 0.83320000E+02  0.69954E+06
 0.83369995E+02  0.74023E+06
 0.83419998E+02  0.84404E+06
 0.83470001E+02  0.10107E+07
 0.83519997E+02  0.12250E+07
 0.83570000E+02  0.14635E+07
 0.83619995E+02  0.16782E+07
 0.83669998E+02  0.18150E+07
 0.83720001E+02  0.18491E+07
 0.83769997E+02  0.17898E+07
 0.83820000E+02  0.16767E+07
 0.83869995E+02  0.15664E+07
 0.83919998E+02  0.14501E+07
 0.83970001E+02  0.12821E+07
 0.84019997E+02  0.10758E+07
 0.84070000E+02  0.87676E+06
 0.84119995E+02  0.70835E+06
 0.84169998E+02  0.57726E+06
 0.84220001E+02  0.49374E+06
 0.84269997E+02  0.47789E+06
 0.84320000E+02  0.54534E+06
 0.84369995E+02  0.66254E+06
 0.84419998E+02  0.75646E+06
 0.84470001E+02  0.79000E+06
 0.84519997E+02  0.77791E+06
 0.84570000E+02  0.74264E+06
 0.84619995E+02  0.68855E+06
 0.84669998E+02  0.61283E+06
 0.84720001E+02  0.55151E+06
 0.84769997E+02  0.55679E+06
 0.84820000E+02  0.62116E+06
 0.84869995E+02  0.70218E+06
 0.84919998E+02  0.77159E+06
 0.84970001E+02  0.82290E+06
 0.85019997E+02  0.85520E+06
 0.85070000E+02  0.86648E+06
 0.85119995E+02  0.87829E+06
 0.85169998E+02  0.90669E+06
 0.85220001E+02  0.93231E+06
 0.85269997E+02  0.95563E+06
 0.85320000E+02  0.99461E+06
 0.85369995E+02  0.10332E+07
 0.85419998E+02  0.10583E+07
 0.85470001E+02  0.10710E+07
 0.85519997E+02  0.10734E+07
 0.85570000E+02  0.10640E+07
 0.85619995E+02  0.10334E+07
 0.85669998E+02  0.98688E+06
 0.85720001E+02  0.91952E+06
 0.85769997E+02  0.82892E+06
 0.85820000E+02  0.73288E+06
 0.85869995E+02  0.63700E+06
 0.85919998E+02  0.54239E+06
 0.85970001E+02  0.44584E+06
 0.86019997E+02  0.35045E+06
 0.86070000E+02  0.27196E+06
 0.86119995E+02  0.22203E+06
 0.86169998E+02  0.19752E+06
 0.86220001E+02  0.18511E+06
 0.86269997E+02  0.17875E+06
 0.86320000E+02  0.15475E+06
 0.86369995E+02  0.91203E+05
 0.86419998E+02 -0.32490E+04
 0.86470001E+02 -0.11340E+06
 0.86519997E+02 -0.22220E+06
 0.86570000E+02 -0.31071E+06
 0.86619995E+02 -0.37330E+06
 0.86669998E+02 -0.42429E+06
 0.86720001E+02 -0.48603E+06
 0.86769997E+02 -0.57280E+06
 0.86820000E+02 -0.66802E+06
 0.86869995E+02 -0.76676E+06
 0.86919998E+02 -0.87488E+06
 0.86970001E+02 -0.98202E+06
 0.87019997E+02 -0.11087E+07
 0.87070000E+02 -0.12516E+07
 0.87119995E+02 -0.13728E+07
 0.87169998E+02 -0.14656E+07
 0.87220001E+02 -0.15198E+07
 0.87269997E+02 -0.15059E+07
 0.87320000E+02 -0.14278E+07
 0.87369995E+02 -0.13376E+07
 0.87419998E+02 -0.12752E+07
 0.87470001E+02 -0.12303E+07
 0.87519997E+02 -0.11764E+07
 0.87570000E+02 -0.10978E+07
 0.87619995E+02 -0.98831E+06
 0.87669998E+02 -0.86248E+06
 0.87720001E+02 -0.73399E+06
 0.87769997E+02 -0.59310E+06
 0.87820000E+02 -0.42817E+06
 0.87869995E+02 -0.25323E+06
 0.87919998E+02 -0.89228E+05
 0.87970001E+02  0.63961E+05
 0.88019997E+02  0.18343E+06
 0.88070000E+02  0.24380E+06
 0.88119995E+02  0.25843E+06
 0.88169998E+02  0.23146E+06
 0.88220001E+02  0.14987E+06
 0.88269997E+02 -0.52210E+04
 0.88320000E+02 -0.21437E+06
 0.88369995E+02 -0.38760E+06
 0.88419998E+02 -0.46197E+06
 0.88470001E+02 -0.44448E+06
 0.88519997E+02 -0.35563E+06
 0.88570000E+02 -0.22959E+06
 0.88619995E+02 -0.11431E+06
 0.88669998E+02 -0.12340E+05
 0.88720001E+02  0.10186E+06
 0.88769997E+02  0.23062E+06
 0.88820000E+02  0.36386E+06
 0.88869995E+02  0.49130E+06
 0.88919998E+02  0.60328E+06
 0.88970001E+02  0.70541E+06
 0.89019997E+02  0.82068E+06
 0.89070000E+02  0.93416E+06
 0.89119995E+02  0.10135E+07
 0.89169998E+02  0.10608E+07
 0.89220001E+02  0.11103E+07
 0.89269997E+02  0.11878E+07
 0.89320000E+02  0.12660E+07
 0.89369995E+02  0.13184E+07
 0.89419998E+02  0.13306E+07
 0.89470001E+02  0.12896E+07
 0.89519997E+02  0.11934E+07
 0.89570000E+02  0.10370E+07
 0.89619995E+02  0.84242E+06
 0.89669998E+02  0.64456E+06
 0.89720001E+02  0.46222E+06
 0.89769997E+02  0.30844E+06
 0.89820000E+02  0.17804E+06
 0.89869995E+02  0.77779E+05
 0.89919998E+02  0.36156E+05
 0.89970001E+02  0.51363E+05
 0.90019997E+02  0.91998E+05
 0.90070000E+02  0.13444E+06
 0.90119995E+02  0.17468E+06
 0.90169998E+02  0.20636E+06
 0.90220001E+02  0.22145E+06
 0.90269997E+02  0.21966E+06
 0.90320000E+02  0.21175E+06
 0.90369995E+02  0.20144E+06
 0.90419998E+02  0.16697E+06
 0.90470001E+02  0.11296E+06
 0.90519997E+02  0.59780E+05
 0.90570000E+02  0.98450E+04
 0.90619995E+02 -0.35316E+05
 0.90669998E+02 -0.85228E+05
 0.90720001E+02 -0.14334E+06
 0.90769997E+02 -0.21201E+06
 0.90820000E+02 -0.30321E+06
 0.90869995E+02 -0.41566E+06
 0.90919998E+02 -0.56558E+06
 0.90970001E+02 -0.77458E+06
 0.91019997E+02 -0.10142E+07
 0.91070000E+02 -0.12283E+07
 0.91119995E+02 -0.13799E+07
 0.91169998E+02 -0.14608E+07
 0.91220001E+02 -0.14843E+07
 0.91269997E+02 -0.14659E+07
 0.91320000E+02 -0.14117E+07
 0.91369995E+02 -0.13300E+07
 0.91419998E+02 -0.12297E+07
 0.91470001E+02 -0.11283E+07
 0.91519997E+02 -0.10412E+07
 0.91570000E+02 -0.95998E+06
 0.91619995E+02 -0.85858E+06
 0.91669998E+02 -0.72675E+06
 0.91720001E+02 -0.59992E+06
 0.91769997E+02 -0.51016E+06
 0.91820000E+02 -0.46626E+06
 0.91869995E+02 -0.45144E+06
 0.91919998E+02 -0.41493E+06
 0.91970001E+02 -0.33285E+06
 0.92019997E+02 -0.22044E+06
 0.92070000E+02 -0.95916E+05
 0.92119995E+02  0.35670E+05
 0.92169998E+02  0.17455E+06
 0.92220001E+02  0.32889E+06
 0.92269997E+02  0.51380E+06
 0.92320000E+02  0.72191E+06
 0.92369995E+02  0.93396E+06
 0.92419998E+02  0.11229E+07
 0.92470001E+02  0.12785E+07
 0.92519997E+02  0.14161E+07
 0.92570000E+02  0.15236E+07
 0.92619995E+02  0.15957E+07
 0.92669998E+02  0.16361E+07
 0.92720001E+02  0.16208E+07
 0.92769997E+02  0.15480E+07
 0.92820000E+02  0.14359E+07
 0.92869995E+02  0.12981E+07
 0.92919998E+02  0.11429E+07
 0.92970001E+02  0.96859E+06
 0.93019997E+02  0.78031E+06
 0.93070000E+02  0.57817E+06
 0.93119995E+02  0.35672E+06
 0.93169998E+02  0.11930E+06
 0.93220001E+02 -0.12924E+06
 0.93269997E+02 -0.37271E+06
 0.93320000E+02 -0.58378E+06
 0.93369995E+02 -0.74072E+06
 0.93419998E+02 -0.85806E+06
 0.93470001E+02 -0.97767E+06
 0.93519997E+02 -0.11056E+07
 0.93570000E+02 -0.12205E+07
 0.93619995E+02 -0.13104E+07
 0.93669998E+02 -0.13807E+07
 0.93720001E+02 -0.14574E+07
 0.93769997E+02 -0.15486E+07
 0.93820000E+02 -0.16409E+07
 0.93869995E+02 -0.17193E+07
 0.93919998E+02 -0.17795E+07
 0.93970001E+02 -0.18471E+07
 0.94019997E+02 -0.19325E+07
 0.94070000E+02 -0.20247E+07
 0.94119995E+02 -0.21116E+07
 0.94169998E+02 -0.21770E+07
 0.94220001E+02 -0.22157E+07
 0.94269997E+02 -0.22193E+07
 0.94320000E+02 -0.21781E+07
 0.94369995E+02 -0.20862E+07
 0.94419998E+02 -0.19419E+07
 0.94470001E+02 -0.17662E+07
 0.94519997E+02 -0.15958E+07
 0.94570000E+02 -0.14597E+07
 0.94619995E+02 -0.13683E+07
 0.94669998E+02 -0.13177E+07
 0.94720001E+02 -0.12740E+07
 0.94769997E+02 -0.11835E+07
 0.94820000E+02 -0.10321E+07
 0.94869995E+02 -0.84463E+06
 0.94919998E+02 -0.64477E+06
 0.94970001E+02 -0.44503E+06
 0.95019997E+02 -0.24126E+06
 0.95070000E+02 -0.27053E+05
 0.95119995E+02  0.18498E+06
 0.95169998E+02  0.37819E+06
 0.95220001E+02  0.55742E+06
 0.95269997E+02  0.73138E+06
 0.95320000E+02  0.89201E+06
 0.95369995E+02  0.10225E+07
 0.95419998E+02  0.11126E+07
 0.95470001E+02  0.11852E+07
 0.95519997E+02  0.12818E+07
 0.95570000E+02  0.14149E+07
 0.95619995E+02  0.15589E+07
 0.95669998E+02  0.16880E+07
 0.95720001E+02  0.17971E+07
 0.95769997E+02  0.18780E+07
 0.95820000E+02  0.19295E+07
 0.95869995E+02  0.19681E+07
 0.95919998E+02  0.20027E+07
 0.95970001E+02  0.20395E+07
 0.96019997E+02  0.20944E+07
 0.96070000E+02  0.21682E+07
 0.96119995E+02  0.22395E+07
 0.96169998E+02  0.22821E+07
 0.96220001E+02  0.22820E+07
 0.96269997E+02  0.22427E+07
 0.96320000E+02  0.21722E+07
 0.96369995E+02  0.20825E+07
 0.96419998E+02  0.19892E+07
 0.96470001E+02  0.18956E+07
 0.96519997E+02  0.17826E+07
 0.96570000E+02  0.16389E+07
 0.96619995E+02  0.14713E+07
 0.96669998E+02  0.12686E+07
 0.96720001E+02  0.10279E+07
 0.96769997E+02  0.77591E+06
 0.96820000E+02  0.53709E+06
 0.96869995E+02  0.32312E+06
 0.96919998E+02  0.13930E+06
 0.96970001E+02 -0.13668E+05
 0.97019997E+02 -0.12101E+06
 0.97070000E+02 -0.16532E+06
 0.97119995E+02 -0.16978E+06
 0.97169998E+02 -0.17008E+06
 0.97220001E+02 -0.18039E+06
 0.97269997E+02 -0.19382E+06
 0.97320000E+02 -0.19537E+06
 0.97369995E+02 -0.18910E+06
 0.97419998E+02 -0.17700E+06
 0.97470001E+02 -0.15644E+06
 0.97519997E+02 -0.13641E+06
 0.97570000E+02 -0.12131E+06
 0.97619995E+02 -0.11129E+06
 0.97669998E+02 -0.11019E+06
 0.97720001E+02 -0.13148E+06
 0.97769997E+02 -0.17080E+06
 0.97820000E+02 -0.19810E+06
 0.97869995E+02 -0.20193E+06
 0.97919998E+02 -0.18863E+06
 0.97970001E+02 -0.17968E+06
 0.98019997E+02 -0.20434E+06
