-0.19969940E+01  0.40506E+05
-0.19469941E+01  0.40292E+05
-0.18969940E+01  0.40460E+05
-0.18469940E+01  0.40464E+05
-0.17969940E+01  0.40472E+05
-0.17469940E+01  0.40476E+05
-0.16969941E+01  0.40482E+05
-0.16469941E+01  0.40484E+05
-0.15969940E+01  0.40486E+05
-0.15469940E+01  0.40480E+05
-0.14969940E+01  0.40467E+05
-0.14469941E+01  0.40458E+05
-0.13969941E+01  0.40447E+05
-0.13469940E+01  0.40450E+05
-0.12969941E+01  0.40456E+05
-0.12469940E+01  0.40462E+05
-0.11969941E+01  0.40467E+05
-0.11469941E+01  0.40463E+05
-0.10969940E+01  0.40465E+05
-0.10469941E+01  0.40462E+05
-0.99699408E+00  0.40456E+05
-0.94699407E+00  0.40450E+05
-0.89699411E+00  0.40449E+05
-0.84699404E+00  0.40447E+05
-0.79699409E+00  0.40438E+05
-0.74699414E+00  0.40435E+05
-0.69699407E+00  0.40428E+05
-0.64699411E+00  0.40426E+05
-0.59699416E+00  0.40424E+05
-0.54699409E+00  0.40424E+05
-0.49699414E+00  0.40428E+05
-0.44699407E+00  0.40432E+05
-0.39699411E+00  0.40431E+05
-0.34699416E+00  0.40430E+05
-0.29699409E+00  0.40430E+05
-0.24699414E+00  0.40424E+05
-0.19699407E+00  0.40426E+05
-0.14699411E+00  0.40423E+05
-0.96994162E-01  0.40417E+05
-0.46994090E-01  0.40413E+05
 0.30058622E-02  0.40410E+05
 0.53005934E-01  0.40416E+05
 0.10300589E+00  0.40421E+05
 0.15300584E+00  0.40419E+05
 0.20300579E+00  0.40420E+05
 0.25300574E+00  0.40415E+05
 0.30300593E+00  0.40405E+05
 0.35300589E+00  0.40406E+05
 0.40300584E+00  0.40397E+05
 0.45300579E+00  0.40394E+05
 0.50300574E+00  0.40400E+05
 0.55300593E+00  0.40408E+05
 0.60300589E+00  0.40416E+05
 0.65300584E+00  0.40416E+05
 0.70300579E+00  0.40413E+05
 0.75300574E+00  0.40410E+05
 0.80300570E+00  0.40413E+05
 0.85300589E+00  0.40411E+05
 0.90300584E+00  0.40407E+05
 0.95300579E+00  0.40399E+05
 0.10030057E+01  0.40395E+05
 0.10530057E+01  0.40393E+05
 0.11030059E+01  0.40396E+05
 0.11530058E+01  0.40403E+05
 0.12030058E+01  0.40406E+05
 0.12530057E+01  0.40419E+05
 0.13030057E+01  0.40436E+05
 0.13530059E+01  0.40450E+05
 0.14030058E+01  0.40463E+05
 0.14530058E+01  0.40466E+05
 0.15030057E+01  0.40463E+05
 0.15530057E+01  0.40454E+05
 0.16030059E+01  0.40452E+05
 0.16530058E+01  0.40449E+05
 0.17030058E+01  0.40440E+05
 0.17530057E+01  0.40436E+05
 0.18030057E+01  0.40428E+05
 0.18530056E+01  0.40420E+05
 0.19030058E+01  0.40415E+05
 0.19530058E+01  0.40408E+05
 0.20030057E+01  0.40407E+05
 0.20530057E+01  0.40406E+05
 0.21030059E+01  0.40407E+05
 0.21530056E+01  0.40415E+05
 0.22030058E+01  0.40427E+05
 0.22530055E+01  0.40442E+05
 0.23030057E+01  0.40452E+05
 0.23530059E+01  0.40465E+05
 0.24030056E+01  0.40474E+05
 0.24530058E+01  0.40479E+05
 0.25030055E+01  0.40486E+05
 0.25530057E+01  0.40493E+05
 0.26030059E+01  0.40497E+05
 0.26530056E+01  0.40497E+05
 0.27030058E+01  0.40486E+05
 0.27530055E+01  0.40468E+05
 0.28030057E+01  0.40452E+05
 0.28530059E+01  0.40435E+05
 0.29030056E+01  0.40432E+05
 0.29530058E+01  0.40421E+05
 0.30030055E+01  0.40421E+05
 0.30530057E+01  0.40424E+05
 0.31030059E+01  0.40428E+05
 0.31530056E+01  0.40433E+05
 0.32030058E+01  0.40430E+05
 0.32530055E+01  0.40426E+05
 0.33030057E+01  0.40419E+05
 0.33530059E+01  0.40420E+05
 0.34030056E+01  0.40423E+05
 0.34530058E+01  0.40425E+05
 0.35030055E+01  0.40425E+05
 0.35530057E+01  0.40429E+05
 0.36030054E+01  0.40435E+05
 0.36530056E+01  0.40440E+05
 0.37030058E+01  0.40438E+05
 0.37530055E+01  0.40437E+05
 0.38030057E+01  0.40431E+05
 0.38530054E+01  0.40427E+05
 0.39030056E+01  0.40424E+05
 0.39530058E+01  0.40419E+05
 0.40030055E+01  0.40419E+05
 0.40530057E+01  0.40418E+05
 0.41030054E+01  0.40422E+05
 0.41530056E+01  0.40424E+05
 0.42030058E+01  0.40425E+05
 0.42530055E+01  0.40429E+05
 0.43030057E+01  0.40425E+05
 0.43530054E+01  0.40423E+05
 0.44030056E+01  0.40419E+05
 0.44530058E+01  0.40411E+05
 0.45030055E+01  0.40408E+05
 0.45530057E+01  0.40400E+05
 0.46030054E+01  0.40398E+05
 0.46530056E+01  0.40405E+05
 0.47030058E+01  0.40408E+05
 0.47530055E+01  0.40416E+05
 0.48030057E+01  0.40424E+05
 0.48530054E+01  0.40423E+05
 0.49030056E+01  0.40428E+05
 0.49530058E+01  0.40436E+05
 0.50030055E+01  0.40438E+05
 0.50530057E+01  0.40438E+05
 0.51030054E+01  0.40439E+05
 0.51530056E+01  0.40441E+05
 0.52030058E+01  0.40441E+05
 0.52530055E+01  0.40447E+05
 0.53030057E+01  0.40455E+05
 0.53530054E+01  0.40460E+05
 0.54030056E+01  0.40466E+05
 0.54530053E+01  0.40465E+05
 0.55030055E+01  0.40461E+05
 0.55530057E+01  0.40459E+05
 0.56030054E+01  0.40456E+05
 0.56530056E+01  0.40454E+05
 0.57030053E+01  0.40446E+05
 0.57530055E+01  0.40441E+05
 0.58030057E+01  0.40434E+05
 0.58530054E+01  0.40433E+05
 0.59030056E+01  0.40432E+05
 0.59530053E+01  0.40429E+05
 0.60030055E+01  0.40435E+05
 0.60530052E+01  0.40440E+05
 0.61030054E+01  0.40450E+05
 0.61530056E+01  0.40448E+05
 0.62030058E+01  0.40450E+05
 0.62530050E+01  0.40446E+05
 0.63030052E+01  0.40441E+05
 0.63530054E+01  0.40433E+05
 0.64030056E+01  0.40428E+05
 0.64530058E+01  0.40432E+05
 0.65030050E+01  0.40436E+05
 0.65530052E+01  0.40445E+05
 0.66030054E+01  0.40433E+05
 0.66530056E+01  0.40425E+05
 0.67030058E+01  0.40413E+05
 0.67530050E+01  0.40404E+05
 0.68030052E+01  0.40398E+05
 0.68530054E+01  0.40394E+05
 0.69030056E+01  0.40395E+05
 0.69530058E+01  0.40390E+05
 0.70030050E+01  0.40398E+05
 0.70530052E+01  0.40401E+05
 0.71030054E+01  0.40403E+05
 0.71530056E+01  0.40403E+05
 0.72030058E+01  0.40402E+05
 0.72530050E+01  0.40404E+05
 0.73030052E+01  0.40400E+05
 0.73530054E+01  0.40399E+05
 0.74030056E+01  0.40401E+05
 0.74530058E+01  0.40406E+05
 0.75030050E+01  0.40413E+05
 0.75530052E+01  0.40418E+05
 0.76030054E+01  0.40426E+05
 0.76530056E+01  0.40434E+05
 0.77030058E+01  0.40444E+05
 0.77530050E+01  0.40453E+05
 0.78030052E+01  0.40456E+05
 0.78530054E+01  0.40460E+05
 0.79030056E+01  0.40462E+05
 0.79530058E+01  0.40458E+05
 0.80030050E+01  0.40457E+05
 0.80530052E+01  0.40453E+05
 0.81030054E+01  0.40453E+05
 0.81530056E+01  0.40453E+05
 0.82030058E+01  0.40454E+05
 0.82530050E+01  0.40462E+05
 0.83030052E+01  0.40456E+05
 0.83530054E+01  0.40453E+05
 0.84030056E+01  0.40450E+05
 0.84530058E+01  0.40447E+05
 0.85030050E+01  0.40444E+05
 0.85530052E+01  0.40440E+05
 0.86030054E+01  0.40441E+05
 0.86530056E+01  0.40438E+05
 0.87030058E+01  0.40440E+05
 0.87530050E+01  0.40441E+05
 0.88030052E+01  0.40445E+05
 0.88530054E+01  0.40449E+05
 0.89030056E+01  0.40449E+05
 0.89530058E+01  0.40449E+05
 0.90030050E+01  0.40444E+05
 0.90530052E+01  0.40440E+05
 0.91030054E+01  0.40437E+05
 0.91530056E+01  0.40438E+05
 0.92030048E+01  0.40436E+05
 0.92530050E+01  0.40434E+05
 0.93030052E+01  0.40432E+05
 0.93530054E+01  0.40430E+05
 0.94030056E+01  0.40434E+05
 0.94530048E+01  0.40435E+05
 0.95030050E+01  0.40432E+05
 0.95530052E+01  0.40427E+05
 0.96030054E+01  0.40418E+05
 0.96530056E+01  0.40406E+05
 0.97030048E+01  0.40396E+05
 0.97530050E+01  0.40385E+05
 0.98030052E+01  0.40386E+05
 0.98530054E+01  0.40392E+05
 0.99030056E+01  0.40404E+05
 0.99530048E+01  0.40415E+05
 0.10003005E+02  0.40423E+05
 0.10053005E+02  0.40440E+05
 0.10103005E+02  0.40450E+05
 0.10153006E+02  0.40449E+05
 0.10203005E+02  0.40444E+05
 0.10253005E+02  0.40436E+05
 0.10303005E+02  0.40432E+05
 0.10353005E+02  0.40425E+05
 0.10403006E+02  0.40423E+05
 0.10453005E+02  0.40414E+05
 0.10503005E+02  0.40401E+05
 0.10553005E+02  0.40400E+05
 0.10603005E+02  0.40392E+05
 0.10653006E+02  0.40393E+05
 0.10703005E+02  0.40398E+05
 0.10753005E+02  0.40397E+05
 0.10803005E+02  0.40398E+05
 0.10853005E+02  0.40399E+05
 0.10903006E+02  0.40399E+05
 0.10953005E+02  0.40397E+05
 0.11003005E+02  0.40408E+05
 0.11053005E+02  0.40423E+05
 0.11103005E+02  0.40445E+05
 0.11153006E+02  0.40458E+05
 0.11203005E+02  0.40464E+05
 0.11253005E+02  0.40464E+05
 0.11303005E+02  0.40464E+05
 0.11353005E+02  0.40463E+05
 0.11403006E+02  0.40456E+05
 0.11453005E+02  0.40452E+05
 0.11503005E+02  0.40445E+05
 0.11553005E+02  0.40446E+05
 0.11603005E+02  0.40444E+05
 0.11653006E+02  0.40439E+05
 0.11703005E+02  0.40439E+05
 0.11753005E+02  0.40440E+05
 0.11803005E+02  0.40446E+05
 0.11853005E+02  0.40451E+05
 0.11903006E+02  0.40454E+05
 0.11953005E+02  0.40456E+05
 0.12003005E+02  0.40455E+05
 0.12053005E+02  0.40460E+05
 0.12103005E+02  0.40456E+05
 0.12153006E+02  0.40460E+05
 0.12203005E+02  0.40458E+05
 0.12253005E+02  0.40446E+05
 0.12303005E+02  0.40438E+05
 0.12353005E+02  0.40431E+05
 0.12403006E+02  0.40429E+05
 0.12453005E+02  0.40428E+05
 0.12503005E+02  0.40428E+05
 0.12553005E+02  0.40435E+05
 0.12603005E+02  0.40444E+05
 0.12653005E+02  0.40446E+05
 0.12703005E+02  0.40452E+05
 0.12753005E+02  0.40448E+05
 0.12803005E+02  0.40447E+05
 0.12853005E+02  0.40447E+05
 0.12903005E+02  0.40448E+05
 0.12953005E+02  0.40448E+05
 0.13003005E+02  0.40444E+05
 0.13053005E+02  0.40442E+05
 0.13103005E+02  0.40431E+05
 0.13153005E+02  0.40424E+05
 0.13203005E+02  0.40415E+05
 0.13253005E+02  0.40412E+05
 0.13303005E+02  0.40410E+05
 0.13353005E+02  0.40412E+05
 0.13403005E+02  0.40411E+05
 0.13453005E+02  0.40414E+05
 0.13503005E+02  0.40411E+05
 0.13553005E+02  0.40409E+05
 0.13603005E+02  0.40410E+05
 0.13653005E+02  0.40411E+05
 0.13703005E+02  0.40419E+05
 0.13753005E+02  0.40417E+05
 0.13803005E+02  0.40415E+05
 0.13853005E+02  0.40409E+05
 0.13903005E+02  0.40405E+05
 0.13953005E+02  0.40403E+05
 0.14003005E+02  0.40398E+05
 0.14053005E+02  0.40395E+05
 0.14103004E+02  0.40394E+05
 0.14153006E+02  0.40395E+05
 0.14203005E+02  0.40393E+05
 0.14253004E+02  0.40392E+05
 0.14303005E+02  0.40391E+05
 0.14353004E+02  0.40392E+05
 0.14403006E+02  0.40399E+05
 0.14453005E+02  0.40409E+05
 0.14503004E+02  0.40417E+05
 0.14553005E+02  0.40430E+05
 0.14603004E+02  0.40443E+05
 0.14653006E+02  0.40450E+05
 0.14703005E+02  0.40460E+05
 0.14753004E+02  0.40467E+05
 0.14803005E+02  0.40466E+05
 0.14853004E+02  0.40463E+05
 0.14903006E+02  0.40465E+05
 0.14953005E+02  0.40459E+05
 0.15003004E+02  0.40442E+05
 0.15053005E+02  0.40419E+05
 0.15103004E+02  0.40396E+05
 0.15153006E+02  0.40390E+05
 0.15203005E+02  0.40363E+05
 0.15253004E+02  0.40328E+05
 0.15303005E+02  0.40347E+05
 0.15353004E+02  0.40413E+05
 0.15403006E+02  0.40415E+05
 0.15453005E+02  0.40367E+05
 0.15503004E+02  0.40434E+05
 0.15553005E+02  0.40436E+05
 0.15603004E+02  0.40323E+05
 0.15653006E+02  0.40249E+05
 0.15703005E+02  0.40209E+05
 0.15753004E+02  0.39743E+05
 0.15803005E+02  0.39373E+05
 0.15853004E+02  0.39296E+05
 0.15903006E+02  0.39694E+05
 0.15953005E+02  0.40405E+05
 0.16003004E+02  0.41600E+05
 0.16053005E+02  0.43088E+05
 0.16103004E+02  0.43033E+05
 0.16153006E+02  0.41104E+05
 0.16203005E+02  0.38104E+05
 0.16253004E+02  0.36693E+05
 0.16303005E+02  0.36961E+05
 0.16353004E+02  0.37919E+05
 0.16403006E+02  0.39430E+05
 0.16453005E+02  0.40890E+05
 0.16503004E+02  0.41586E+05
 0.16553005E+02  0.40689E+05
 0.16603004E+02  0.43538E+05
 0.16653006E+02  0.48647E+05
 0.16703005E+02  0.47455E+05
 0.16753004E+02  0.46525E+05
 0.16803005E+02  0.44803E+05
 0.16853004E+02  0.39125E+05
 0.16903006E+02  0.38843E+05
 0.16953005E+02  0.36202E+05
 0.17003004E+02  0.29961E+05
 0.17053005E+02  0.35005E+05
 0.17103004E+02  0.36065E+05
 0.17153006E+02  0.39683E+05
 0.17203005E+02  0.46591E+05
 0.17253004E+02  0.41682E+05
 0.17303005E+02  0.42012E+05
 0.17353004E+02  0.40483E+05
 0.17403006E+02  0.40178E+05
 0.17453005E+02  0.41854E+05
 0.17503004E+02  0.43499E+05
 0.17553005E+02  0.39176E+05
 0.17603004E+02  0.34937E+05
 0.17653006E+02  0.43413E+05
 0.17703005E+02  0.44452E+05
 0.17753004E+02  0.36223E+05
 0.17803005E+02  0.35877E+05
 0.17853004E+02  0.37596E+05
 0.17903006E+02  0.36760E+05
 0.17953005E+02  0.44046E+05
 0.18003004E+02  0.41517E+05
 0.18053005E+02  0.40019E+05
 0.18103004E+02  0.44581E+05
 0.18153006E+02  0.37756E+05
 0.18203005E+02  0.39710E+05
 0.18253004E+02  0.41548E+05
 0.18303005E+02  0.40402E+05
 0.18353004E+02  0.46458E+05
 0.18403006E+02  0.42863E+05
 0.18453005E+02  0.40727E+05
 0.18503004E+02  0.39950E+05
 0.18553005E+02  0.36654E+05
 0.18603004E+02  0.38602E+05
 0.18653006E+02  0.45937E+05
 0.18703005E+02  0.43496E+05
 0.18753004E+02  0.36880E+05
 0.18803005E+02  0.41392E+05
 0.18853004E+02  0.39343E+05
 0.18903006E+02  0.41281E+05
 0.18953005E+02  0.42811E+05
 0.19003004E+02  0.39360E+05
 0.19053005E+02  0.41535E+05
 0.19103004E+02  0.41764E+05
 0.19153006E+02  0.39839E+05
 0.19203005E+02  0.39342E+05
 0.19253004E+02  0.35513E+05
 0.19303005E+02  0.30170E+05
 0.19353004E+02  0.37108E+05
 0.19403006E+02  0.42374E+05
 0.19453005E+02  0.43785E+05
 0.19503004E+02  0.45015E+05
 0.19553005E+02  0.40593E+05
 0.19603004E+02  0.39891E+05
 0.19653006E+02  0.41389E+05
 0.19703005E+02  0.42518E+05
 0.19753004E+02  0.36985E+05
 0.19803005E+02  0.39384E+05
 0.19853004E+02  0.46669E+05
 0.19903006E+02  0.43755E+05
 0.19953005E+02  0.41821E+05
 0.20003004E+02  0.39079E+05
 0.20053005E+02  0.38644E+05
 0.20103004E+02  0.43762E+05
 0.20153006E+02  0.37992E+05
 0.20203005E+02  0.35152E+05
 0.20253004E+02  0.39520E+05
 0.20303005E+02  0.42627E+05
 0.20353004E+02  0.47436E+05
 0.20403004E+02  0.40201E+05
 0.20453005E+02  0.37505E+05
 0.20503004E+02  0.34431E+05
 0.20553005E+02  0.34845E+05
 0.20603004E+02  0.39630E+05
 0.20653004E+02  0.37556E+05
 0.20703005E+02  0.37947E+05
 0.20753004E+02  0.39752E+05
 0.20803005E+02  0.40026E+05
 0.20853004E+02  0.43625E+05
 0.20903004E+02  0.43904E+05
 0.20953005E+02  0.36861E+05
 0.21003004E+02  0.39925E+05
 0.21053005E+02  0.42947E+05
 0.21103004E+02  0.44198E+05
 0.21153004E+02  0.43903E+05
 0.21203005E+02  0.41086E+05
 0.21253004E+02  0.39925E+05
 0.21303005E+02  0.37178E+05
 0.21353004E+02  0.39698E+05
 0.21403004E+02  0.43619E+05
 0.21453005E+02  0.39732E+05
 0.21503004E+02  0.39546E+05
 0.21553005E+02  0.45830E+05
 0.21603004E+02  0.43192E+05
 0.21653004E+02  0.41336E+05
 0.21703005E+02  0.39890E+05
 0.21753004E+02  0.37441E+05
 0.21803005E+02  0.40102E+05
 0.21853004E+02  0.42963E+05
 0.21903004E+02  0.37578E+05
 0.21953005E+02  0.32801E+05
 0.22003004E+02  0.39576E+05
 0.22053005E+02  0.44710E+05
 0.22103004E+02  0.45383E+05
 0.22153004E+02  0.41352E+05
 0.22203005E+02  0.37619E+05
 0.22253004E+02  0.39267E+05
 0.22303005E+02  0.36542E+05
 0.22353004E+02  0.36501E+05
 0.22403004E+02  0.44801E+05
 0.22453005E+02  0.46401E+05
 0.22503004E+02  0.43025E+05
 0.22553005E+02  0.37485E+05
 0.22603004E+02  0.37759E+05
 0.22653004E+02  0.40015E+05
 0.22703005E+02  0.38456E+05
 0.22753004E+02  0.41866E+05
 0.22803005E+02  0.42712E+05
 0.22853004E+02  0.41421E+05
 0.22903004E+02  0.41870E+05
 0.22953005E+02  0.41848E+05
 0.23003004E+02  0.42566E+05
 0.23053005E+02  0.42114E+05
 0.23103004E+02  0.43609E+05
 0.23153004E+02  0.40666E+05
 0.23203005E+02  0.36535E+05
 0.23253004E+02  0.37083E+05
 0.23303005E+02  0.40769E+05
 0.23353004E+02  0.43539E+05
 0.23403004E+02  0.44055E+05
 0.23453005E+02  0.41990E+05
 0.23503004E+02  0.36652E+05
 0.23553005E+02  0.37720E+05
 0.23603004E+02  0.40934E+05
 0.23653004E+02  0.42324E+05
 0.23703005E+02  0.39489E+05
 0.23753004E+02  0.39798E+05
 0.23803005E+02  0.40485E+05
 0.23853004E+02  0.40104E+05
 0.23903004E+02  0.41797E+05
 0.23953005E+02  0.43042E+05
 0.24003004E+02  0.42211E+05
 0.24053005E+02  0.38073E+05
 0.24103004E+02  0.36864E+05
 0.24153004E+02  0.37026E+05
 0.24203005E+02  0.37906E+05
 0.24253004E+02  0.38916E+05
 0.24303005E+02  0.41044E+05
 0.24353004E+02  0.43480E+05
 0.24403004E+02  0.43996E+05
 0.24453005E+02  0.42129E+05
 0.24503004E+02  0.37587E+05
 0.24553005E+02  0.38165E+05
 0.24603004E+02  0.40242E+05
 0.24653004E+02  0.39685E+05
 0.24703005E+02  0.39511E+05
 0.24753004E+02  0.37251E+05
 0.24803005E+02  0.40088E+05
 0.24853004E+02  0.42029E+05
 0.24903004E+02  0.40476E+05
 0.24953005E+02  0.39065E+05
 0.25003004E+02  0.40972E+05
 0.25053005E+02  0.42839E+05
 0.25103004E+02  0.40783E+05
 0.25153004E+02  0.39730E+05
 0.25203005E+02  0.36473E+05
 0.25253004E+02  0.37988E+05
 0.25303005E+02  0.38870E+05
 0.25353004E+02  0.40388E+05
 0.25403004E+02  0.42023E+05
 0.25453005E+02  0.41453E+05
 0.25503004E+02  0.38223E+05
 0.25553005E+02  0.37831E+05
 0.25603004E+02  0.41050E+05
 0.25653004E+02  0.39753E+05
 0.25703005E+02  0.37936E+05
 0.25753004E+02  0.39460E+05
 0.25803005E+02  0.45000E+05
 0.25853004E+02  0.44515E+05
 0.25903004E+02  0.40454E+05
 0.25953005E+02  0.37706E+05
 0.26003004E+02  0.36808E+05
 0.26053005E+02  0.38163E+05
 0.26103004E+02  0.39307E+05
 0.26153004E+02  0.39312E+05
 0.26203005E+02  0.40633E+05
 0.26253004E+02  0.40788E+05
 0.26303005E+02  0.42967E+05
 0.26353004E+02  0.42024E+05
 0.26403004E+02  0.41173E+05
 0.26453005E+02  0.44166E+05
 0.26503004E+02  0.41173E+05
 0.26553005E+02  0.40494E+05
 0.26603004E+02  0.43075E+05
 0.26653004E+02  0.48304E+05
 0.26703005E+02  0.49622E+05
 0.26753004E+02  0.47497E+05
 0.26803005E+02  0.44763E+05
 0.26853004E+02  0.39220E+05
 0.26903004E+02  0.35574E+05
 0.26953005E+02  0.32607E+05
 0.27003004E+02  0.33926E+05
 0.27053003E+02  0.35153E+05
 0.27103004E+02  0.36657E+05
 0.27153004E+02  0.38647E+05
 0.27203005E+02  0.39420E+05
 0.27253004E+02  0.40760E+05
 0.27303003E+02  0.37156E+05
 0.27353004E+02  0.33144E+05
 0.27403004E+02  0.37388E+05
 0.27453005E+02  0.45818E+05
 0.27503004E+02  0.51754E+05
 0.27553003E+02  0.52106E+05
 0.27603004E+02  0.46716E+05
 0.27653004E+02  0.40584E+05
 0.27703005E+02  0.34783E+05
 0.27753004E+02  0.38112E+05
 0.27803003E+02  0.46320E+05
 0.27853004E+02  0.46460E+05
 0.27903004E+02  0.38769E+05
 0.27953005E+02  0.37202E+05
 0.28003004E+02  0.39005E+05
 0.28053003E+02  0.33035E+05
 0.28103004E+02  0.25390E+05
 0.28153004E+02  0.26679E+05
 0.28203005E+02  0.35619E+05
 0.28253004E+02  0.38104E+05
 0.28303003E+02  0.33803E+05
 0.28353004E+02  0.32830E+05
 0.28403004E+02  0.42849E+05
 0.28453005E+02  0.58080E+05
 0.28503004E+02  0.72237E+05
 0.28553003E+02  0.66409E+05
 0.28603004E+02  0.55151E+05
 0.28653004E+02  0.48653E+05
 0.28703005E+02  0.38959E+05
 0.28753004E+02  0.32665E+05
 0.28803003E+02  0.20688E+05
 0.28853004E+02  0.22253E+05
 0.28903004E+02  0.44633E+05
 0.28953005E+02  0.52731E+05
 0.29003004E+02  0.39274E+05
 0.29053003E+02  0.28970E+05
 0.29103004E+02  0.25336E+05
 0.29153004E+02  0.27005E+05
 0.29203005E+02  0.24481E+05
 0.29253004E+02  0.25789E+05
 0.29303003E+02  0.39851E+05
 0.29353004E+02  0.52329E+05
 0.29403004E+02  0.58842E+05
 0.29453005E+02  0.53984E+05
 0.29503004E+02  0.47768E+05
 0.29553003E+02  0.47677E+05
 0.29603004E+02  0.42409E+05
 0.29653004E+02  0.30053E+05
 0.29703005E+02  0.31560E+05
 0.29753004E+02  0.46007E+05
 0.29803003E+02  0.49463E+05
 0.29853004E+02  0.35292E+05
 0.29903004E+02  0.18902E+05
 0.29953005E+02  0.23323E+05
 0.30003004E+02  0.34189E+05
 0.30053005E+02  0.35465E+05
 0.30103004E+02  0.44534E+05
 0.30153004E+02  0.61348E+05
 0.30203003E+02  0.74311E+05
 0.30253002E+02  0.72951E+05
 0.30303005E+02  0.56168E+05
 0.30353004E+02  0.37494E+05
 0.30403004E+02  0.30548E+05
 0.30453003E+02  0.38437E+05
 0.30503002E+02  0.43041E+05
 0.30553005E+02  0.35122E+05
 0.30603004E+02  0.21748E+05
 0.30653004E+02  0.17106E+05
 0.30703003E+02  0.21531E+05
 0.30753002E+02  0.25785E+05
 0.30803005E+02  0.37343E+05
 0.30853004E+02  0.52038E+05
 0.30903004E+02  0.59824E+05
 0.30953003E+02  0.56354E+05
 0.31003002E+02  0.45743E+05
 0.31053005E+02  0.38860E+05
 0.31103004E+02  0.37538E+05
 0.31153004E+02  0.37373E+05
 0.31203003E+02  0.39090E+05
 0.31253002E+02  0.42655E+05
 0.31303005E+02  0.41224E+05
 0.31353004E+02  0.37475E+05
 0.31403004E+02  0.37292E+05
 0.31453003E+02  0.44377E+05
 0.31503002E+02  0.44735E+05
 0.31553005E+02  0.38805E+05
 0.31603004E+02  0.38250E+05
 0.31653004E+02  0.40106E+05
 0.31703003E+02  0.40957E+05
 0.31753002E+02  0.39962E+05
 0.31803005E+02  0.39560E+05
 0.31853004E+02  0.38633E+05
 0.31903004E+02  0.40759E+05
 0.31953003E+02  0.44253E+05
 0.32003002E+02  0.48821E+05
 0.32053005E+02  0.49954E+05
 0.32103004E+02  0.43781E+05
 0.32153004E+02  0.37345E+05
 0.32203003E+02  0.34842E+05
 0.32253002E+02  0.34336E+05
 0.32303005E+02  0.37174E+05
 0.32353004E+02  0.37125E+05
 0.32403004E+02  0.34761E+05
 0.32453003E+02  0.33947E+05
 0.32503002E+02  0.30907E+05
 0.32553005E+02  0.35473E+05
 0.32603004E+02  0.39381E+05
 0.32653004E+02  0.41442E+05
 0.32703003E+02  0.46158E+05
 0.32753002E+02  0.51521E+05
 0.32803005E+02  0.53552E+05
 0.32853004E+02  0.48687E+05
 0.32903004E+02  0.36868E+05
 0.32953003E+02  0.25511E+05
 0.33003002E+02  0.26181E+05
 0.33053005E+02  0.34276E+05
 0.33103004E+02  0.42627E+05
 0.33153004E+02  0.40113E+05
 0.33203003E+02  0.39039E+05
 0.33253002E+02  0.43794E+05
 0.33303005E+02  0.45591E+05
 0.33353004E+02  0.45594E+05
 0.33403004E+02  0.42822E+05
 0.33453003E+02  0.41435E+05
 0.33503002E+02  0.40201E+05
 0.33553005E+02  0.39053E+05
 0.33603004E+02  0.37994E+05
 0.33653004E+02  0.39199E+05
 0.33703003E+02  0.42740E+05
 0.33753002E+02  0.37907E+05
 0.33803005E+02  0.28816E+05
 0.33853004E+02  0.25346E+05
 0.33903004E+02  0.30518E+05
 0.33953003E+02  0.43066E+05
 0.34003002E+02  0.54953E+05
 0.34053005E+02  0.56015E+05
 0.34103004E+02  0.47263E+05
 0.34153004E+02  0.42006E+05
 0.34203003E+02  0.40366E+05
 0.34253002E+02  0.40932E+05
 0.34303005E+02  0.39189E+05
 0.34353004E+02  0.35107E+05
 0.34403004E+02  0.33352E+05
 0.34453003E+02  0.30588E+05
 0.34503002E+02  0.30841E+05
 0.34553005E+02  0.40667E+05
 0.34603004E+02  0.51736E+05
 0.34653004E+02  0.56554E+05
 0.34703003E+02  0.53075E+05
 0.34753002E+02  0.43646E+05
 0.34803005E+02  0.39021E+05
 0.34853004E+02  0.37393E+05
 0.34903004E+02  0.36055E+05
 0.34953003E+02  0.32235E+05
 0.35003002E+02  0.32087E+05
 0.35053005E+02  0.38537E+05
 0.35103004E+02  0.42812E+05
 0.35153004E+02  0.42100E+05
 0.35203003E+02  0.39351E+05
 0.35253002E+02  0.37472E+05
 0.35303005E+02  0.35268E+05
 0.35353004E+02  0.37507E+05
 0.35403004E+02  0.43058E+05
 0.35453003E+02  0.46447E+05
 0.35503002E+02  0.44223E+05
 0.35553005E+02  0.38914E+05
 0.35603004E+02  0.31945E+05
 0.35653004E+02  0.28604E+05
 0.35703003E+02  0.33541E+05
 0.35753002E+02  0.43172E+05
 0.35803005E+02  0.52199E+05
 0.35853004E+02  0.51594E+05
 0.35903004E+02  0.48814E+05
 0.35953003E+02  0.45823E+05
 0.36003002E+02  0.44377E+05
 0.36053005E+02  0.44621E+05
 0.36103004E+02  0.44493E+05
 0.36153004E+02  0.44598E+05
 0.36203003E+02  0.41158E+05
 0.36253002E+02  0.37892E+05
 0.36303005E+02  0.35324E+05
 0.36353004E+02  0.34781E+05
 0.36403004E+02  0.34422E+05
 0.36453003E+02  0.32260E+05
 0.36503002E+02  0.31979E+05
 0.36553005E+02  0.38139E+05
 0.36603004E+02  0.47046E+05
 0.36653004E+02  0.53270E+05
 0.36703003E+02  0.53670E+05
 0.36753002E+02  0.50629E+05
 0.36803005E+02  0.44525E+05
 0.36853004E+02  0.36802E+05
 0.36903004E+02  0.34374E+05
 0.36953003E+02  0.34226E+05
 0.37003002E+02  0.35322E+05
 0.37053005E+02  0.39823E+05
 0.37103004E+02  0.42702E+05
 0.37153004E+02  0.39627E+05
 0.37203003E+02  0.37275E+05
 0.37253002E+02  0.34873E+05
 0.37303005E+02  0.34308E+05
 0.37353004E+02  0.38282E+05
 0.37403004E+02  0.44162E+05
 0.37453003E+02  0.49238E+05
 0.37503002E+02  0.48431E+05
 0.37553005E+02  0.45132E+05
 0.37603004E+02  0.40705E+05
 0.37653004E+02  0.39977E+05
 0.37703003E+02  0.41376E+05
 0.37753002E+02  0.41809E+05
 0.37803005E+02  0.41754E+05
 0.37853004E+02  0.42946E+05
 0.37903004E+02  0.45382E+05
 0.37953003E+02  0.42204E+05
 0.38003002E+02  0.37103E+05
 0.38053005E+02  0.34548E+05
 0.38103004E+02  0.34604E+05
 0.38153004E+02  0.34758E+05
 0.38203003E+02  0.36796E+05
 0.38253002E+02  0.37884E+05
 0.38303005E+02  0.36548E+05
 0.38353004E+02  0.37269E+05
 0.38403004E+02  0.39993E+05
 0.38453003E+02  0.43937E+05
 0.38503002E+02  0.45818E+05
 0.38553005E+02  0.44840E+05
 0.38603004E+02  0.42529E+05
 0.38653004E+02  0.40811E+05
 0.38703003E+02  0.39226E+05
 0.38753002E+02  0.37184E+05
 0.38803005E+02  0.37887E+05
 0.38853004E+02  0.38794E+05
 0.38903004E+02  0.40440E+05
 0.38953003E+02  0.43550E+05
 0.39003002E+02  0.43319E+05
 0.39053005E+02  0.43528E+05
 0.39103004E+02  0.43569E+05
 0.39153004E+02  0.41187E+05
 0.39203003E+02  0.39506E+05
 0.39253002E+02  0.41308E+05
 0.39303005E+02  0.42683E+05
 0.39353004E+02  0.42351E+05
 0.39403004E+02  0.40075E+05
 0.39453003E+02  0.37127E+05
 0.39503002E+02  0.37823E+05
 0.39553005E+02  0.35295E+05
 0.39603004E+02  0.32780E+05
 0.39653004E+02  0.35714E+05
 0.39703003E+02  0.39212E+05
 0.39753002E+02  0.43567E+05
 0.39803005E+02  0.44997E+05
 0.39853004E+02  0.42886E+05
 0.39903004E+02  0.40779E+05
 0.39953003E+02  0.39780E+05
 0.40003002E+02  0.38365E+05
 0.40053005E+02  0.38736E+05
 0.40103004E+02  0.43095E+05
 0.40153004E+02  0.45378E+05
 0.40203003E+02  0.44777E+05
 0.40253002E+02  0.40608E+05
 0.40303005E+02  0.39755E+05
 0.40353004E+02  0.41518E+05
 0.40403004E+02  0.44091E+05
 0.40453003E+02  0.45413E+05
 0.40503002E+02  0.43477E+05
 0.40553005E+02  0.42009E+05
 0.40603004E+02  0.41084E+05
 0.40653004E+02  0.41190E+05
 0.40703003E+02  0.39457E+05
 0.40753002E+02  0.37725E+05
 0.40803005E+02  0.35073E+05
 0.40853004E+02  0.32449E+05
 0.40903004E+02  0.31059E+05
 0.40953003E+02  0.31957E+05
 0.41003002E+02  0.34255E+05
 0.41053005E+02  0.35293E+05
 0.41103004E+02  0.37763E+05
 0.41153004E+02  0.41081E+05
 0.41203003E+02  0.43027E+05
 0.41253002E+02  0.44381E+05
 0.41303005E+02  0.44492E+05
 0.41353004E+02  0.42708E+05
 0.41403004E+02  0.41211E+05
 0.41453003E+02  0.38308E+05
 0.41503002E+02  0.34174E+05
 0.41553005E+02  0.33162E+05
 0.41603004E+02  0.35122E+05
 0.41653004E+02  0.38336E+05
 0.41703003E+02  0.39532E+05
 0.41753002E+02  0.42648E+05
 0.41803005E+02  0.48063E+05
 0.41853004E+02  0.49716E+05
 0.41903004E+02  0.50599E+05
 0.41953003E+02  0.49514E+05
 0.42003002E+02  0.46343E+05
 0.42053005E+02  0.43445E+05
 0.42103004E+02  0.42467E+05
 0.42153004E+02  0.41079E+05
 0.42203003E+02  0.42065E+05
 0.42253002E+02  0.45466E+05
 0.42303005E+02  0.42449E+05
 0.42353004E+02  0.38447E+05
 0.42403004E+02  0.37605E+05
 0.42453003E+02  0.36906E+05
 0.42503002E+02  0.36735E+05
 0.42553005E+02  0.37557E+05
 0.42603004E+02  0.37391E+05
 0.42653004E+02  0.38405E+05
 0.42703003E+02  0.39007E+05
 0.42753002E+02  0.38202E+05
 0.42803001E+02  0.40442E+05
 0.42853004E+02  0.42200E+05
 0.42903004E+02  0.44309E+05
 0.42953003E+02  0.45600E+05
 0.43003002E+02  0.43826E+05
 0.43053001E+02  0.39275E+05
 0.43103004E+02  0.33633E+05
 0.43153004E+02  0.30690E+05
 0.43203003E+02  0.31039E+05
 0.43253002E+02  0.33151E+05
 0.43303001E+02  0.35462E+05
 0.43353004E+02  0.40038E+05
 0.43403004E+02  0.44747E+05
 0.43453003E+02  0.46461E+05
 0.43503002E+02  0.46789E+05
 0.43553001E+02  0.49499E+05
 0.43603004E+02  0.49368E+05
 0.43653004E+02  0.45133E+05
 0.43703003E+02  0.43870E+05
 0.43753002E+02  0.42966E+05
 0.43803001E+02  0.40570E+05
 0.43853004E+02  0.39319E+05
 0.43903004E+02  0.39403E+05
 0.43953003E+02  0.40979E+05
 0.44003002E+02  0.39866E+05
 0.44053001E+02  0.36212E+05
 0.44103004E+02  0.34607E+05
 0.44153004E+02  0.33675E+05
 0.44203003E+02  0.34352E+05
 0.44253002E+02  0.35076E+05
 0.44303001E+02  0.35602E+05
 0.44353004E+02  0.38274E+05
 0.44403004E+02  0.40953E+05
 0.44453003E+02  0.43144E+05
 0.44503002E+02  0.44649E+05
 0.44553001E+02  0.45614E+05
 0.44603004E+02  0.43989E+05
 0.44653004E+02  0.44259E+05
 0.44703003E+02  0.45010E+05
 0.44753002E+02  0.42546E+05
 0.44803001E+02  0.41056E+05
 0.44853004E+02  0.38307E+05
 0.44903004E+02  0.35126E+05
 0.44953003E+02  0.34807E+05
 0.45003002E+02  0.35717E+05
 0.45053001E+02  0.37581E+05
 0.45103004E+02  0.38962E+05
 0.45153004E+02  0.40173E+05
 0.45203003E+02  0.41726E+05
 0.45253002E+02  0.43191E+05
 0.45303001E+02  0.44956E+05
 0.45353004E+02  0.43838E+05
 0.45403004E+02  0.43655E+05
 0.45453003E+02  0.44626E+05
 0.45503002E+02  0.45575E+05
 0.45553001E+02  0.45362E+05
 0.45603004E+02  0.43378E+05
 0.45653004E+02  0.41247E+05
 0.45703003E+02  0.39879E+05
 0.45753002E+02  0.39476E+05
 0.45803001E+02  0.38073E+05
 0.45853004E+02  0.37157E+05
 0.45903004E+02  0.35458E+05
 0.45953003E+02  0.35341E+05
 0.46003002E+02  0.34893E+05
 0.46053001E+02  0.34059E+05
 0.46103004E+02  0.36521E+05
 0.46153004E+02  0.37852E+05
 0.46203003E+02  0.37345E+05
 0.46253002E+02  0.38757E+05
 0.46303001E+02  0.41268E+05
 0.46353004E+02  0.42889E+05
 0.46403004E+02  0.45738E+05
 0.46453003E+02  0.46236E+05
 0.46503002E+02  0.45653E+05
 0.46553001E+02  0.44137E+05
 0.46603004E+02  0.42193E+05
 0.46653004E+02  0.40746E+05
 0.46703003E+02  0.39422E+05
 0.46753002E+02  0.39398E+05
 0.46803001E+02  0.38727E+05
 0.46853004E+02  0.38429E+05
 0.46903004E+02  0.38288E+05
 0.46953003E+02  0.37691E+05
 0.47003002E+02  0.38438E+05
 0.47053001E+02  0.40426E+05
 0.47103004E+02  0.41740E+05
 0.47153004E+02  0.43952E+05
 0.47203003E+02  0.45326E+05
 0.47253002E+02  0.45723E+05
 0.47303001E+02  0.45066E+05
 0.47353004E+02  0.43349E+05
 0.47403004E+02  0.42814E+05
 0.47453003E+02  0.41887E+05
 0.47503002E+02  0.38925E+05
 0.47553001E+02  0.34926E+05
 0.47603004E+02  0.33141E+05
 0.47653004E+02  0.33214E+05
 0.47703003E+02  0.35097E+05
 0.47753002E+02  0.36970E+05
 0.47803001E+02  0.38417E+05
 0.47853004E+02  0.39524E+05
 0.47903004E+02  0.40027E+05
 0.47953003E+02  0.42652E+05
 0.48003002E+02  0.45889E+05
 0.48053001E+02  0.47185E+05
 0.48103004E+02  0.44815E+05
 0.48153004E+02  0.41561E+05
 0.48203003E+02  0.40092E+05
 0.48253002E+02  0.38618E+05
 0.48303001E+02  0.37815E+05
 0.48353004E+02  0.37547E+05
 0.48403004E+02  0.36442E+05
 0.48453003E+02  0.37550E+05
 0.48503002E+02  0.39335E+05
 0.48553001E+02  0.40120E+05
 0.48603004E+02  0.40044E+05
 0.48653004E+02  0.39625E+05
 0.48703003E+02  0.40466E+05
 0.48753002E+02  0.40988E+05
 0.48803001E+02  0.41820E+05
 0.48853004E+02  0.44354E+05
 0.48903004E+02  0.45794E+05
 0.48953003E+02  0.45789E+05
 0.49003002E+02  0.46433E+05
 0.49053001E+02  0.46032E+05
 0.49103004E+02  0.43686E+05
 0.49153004E+02  0.40624E+05
 0.49203003E+02  0.38289E+05
 0.49253002E+02  0.35565E+05
 0.49303001E+02  0.33244E+05
 0.49353004E+02  0.32383E+05
 0.49403004E+02  0.33701E+05
 0.49453003E+02  0.34543E+05
 0.49503002E+02  0.34729E+05
 0.49553001E+02  0.37562E+05
 0.49603004E+02  0.40152E+05
 0.49653004E+02  0.44115E+05
 0.49703003E+02  0.47919E+05
 0.49753002E+02  0.48666E+05
 0.49803001E+02  0.48213E+05
 0.49853004E+02  0.45626E+05
 0.49903004E+02  0.41274E+05
 0.49953003E+02  0.38123E+05
 0.50003002E+02  0.36205E+05
 0.50053001E+02  0.34713E+05
 0.50103004E+02  0.35018E+05
 0.50153004E+02  0.36003E+05
 0.50203003E+02  0.37653E+05
 0.50253002E+02  0.39264E+05
 0.50303001E+02  0.40154E+05
 0.50353004E+02  0.41080E+05
 0.50403004E+02  0.41900E+05
 0.50453003E+02  0.42550E+05
 0.50503002E+02  0.43343E+05
 0.50553001E+02  0.44142E+05
 0.50603004E+02  0.44417E+05
 0.50653004E+02  0.43960E+05
 0.50703003E+02  0.43403E+05
 0.50753002E+02  0.43412E+05
 0.50803001E+02  0.43438E+05
 0.50853004E+02  0.42561E+05
 0.50903004E+02  0.41128E+05
 0.50953003E+02  0.41278E+05
 0.51003002E+02  0.41475E+05
 0.51053001E+02  0.41072E+05
 0.51103004E+02  0.40426E+05
 0.51153004E+02  0.39916E+05
 0.51203003E+02  0.39497E+05
 0.51253002E+02  0.38383E+05
 0.51303001E+02  0.37614E+05
 0.51353004E+02  0.36908E+05
 0.51403004E+02  0.36587E+05
 0.51453003E+02  0.37643E+05
 0.51503002E+02  0.38957E+05
 0.51553001E+02  0.39409E+05
 0.51603004E+02  0.39228E+05
 0.51653004E+02  0.40622E+05
 0.51703003E+02  0.41771E+05
 0.51753002E+02  0.41435E+05
 0.51803001E+02  0.40429E+05
 0.51853004E+02  0.38466E+05
 0.51903004E+02  0.38254E+05
 0.51953003E+02  0.38755E+05
 0.52003002E+02  0.40042E+05
 0.52053001E+02  0.41633E+05
 0.52103004E+02  0.41158E+05
 0.52153004E+02  0.40524E+05
 0.52203003E+02  0.40668E+05
 0.52253002E+02  0.41159E+05
 0.52303001E+02  0.41280E+05
 0.52353004E+02  0.41319E+05
 0.52403004E+02  0.42012E+05
 0.52453003E+02  0.42779E+05
 0.52503002E+02  0.43059E+05
 0.52553001E+02  0.42654E+05
 0.52603004E+02  0.42688E+05
 0.52653004E+02  0.42371E+05
 0.52703003E+02  0.41270E+05
 0.52753002E+02  0.40644E+05
 0.52803001E+02  0.39480E+05
 0.52853004E+02  0.38330E+05
 0.52903004E+02  0.38482E+05
 0.52953003E+02  0.38643E+05
 0.53003002E+02  0.38313E+05
 0.53053001E+02  0.38932E+05
 0.53103004E+02  0.39457E+05
 0.53153004E+02  0.39389E+05
 0.53203003E+02  0.39156E+05
 0.53253002E+02  0.38989E+05
 0.53303001E+02  0.39283E+05
 0.53353004E+02  0.40802E+05
 0.53403004E+02  0.42597E+05
 0.53453003E+02  0.43023E+05
 0.53503002E+02  0.42186E+05
 0.53553001E+02  0.40723E+05
 0.53603004E+02  0.40127E+05
 0.53653004E+02  0.39987E+05
 0.53703003E+02  0.39805E+05
 0.53753002E+02  0.39550E+05
 0.53803001E+02  0.39925E+05
 0.53853004E+02  0.39615E+05
 0.53903004E+02  0.38829E+05
 0.53953003E+02  0.39396E+05
 0.54003002E+02  0.40308E+05
 0.54053001E+02  0.40548E+05
 0.54103004E+02  0.41275E+05
 0.54153004E+02  0.42108E+05
 0.54203003E+02  0.42266E+05
 0.54253002E+02  0.42610E+05
 0.54303001E+02  0.42392E+05
 0.54353004E+02  0.42513E+05
 0.54403004E+02  0.41943E+05
 0.54453003E+02  0.40312E+05
 0.54503002E+02  0.39687E+05
 0.54553001E+02  0.39172E+05
 0.54603004E+02  0.38283E+05
 0.54653004E+02  0.37492E+05
 0.54703003E+02  0.37405E+05
 0.54753002E+02  0.38149E+05
 0.54803001E+02  0.39349E+05
 0.54853004E+02  0.40548E+05
 0.54903004E+02  0.41935E+05
 0.54953003E+02  0.43146E+05
 0.55003002E+02  0.43403E+05
 0.55053001E+02  0.43161E+05
 0.55103004E+02  0.41823E+05
 0.55153004E+02  0.40694E+05
 0.55203003E+02  0.39249E+05
 0.55253002E+02  0.37145E+05
 0.55303001E+02  0.36468E+05
 0.55353004E+02  0.36528E+05
 0.55403004E+02  0.37939E+05
 0.55453003E+02  0.39456E+05
 0.55503002E+02  0.40226E+05
 0.55553001E+02  0.40875E+05
 0.55603004E+02  0.41465E+05
 0.55653004E+02  0.42210E+05
 0.55703003E+02  0.42901E+05
 0.55753002E+02  0.43394E+05
 0.55803001E+02  0.42250E+05
 0.55853001E+02  0.40851E+05
 0.55903004E+02  0.40385E+05
 0.55953003E+02  0.39580E+05
 0.56003002E+02  0.39070E+05
 0.56053001E+02  0.39436E+05
 0.56103001E+02  0.39402E+05
 0.56153004E+02  0.39908E+05
 0.56203003E+02  0.40438E+05
 0.56253002E+02  0.40418E+05
 0.56303001E+02  0.41129E+05
 0.56353001E+02  0.41649E+05
 0.56403004E+02  0.42009E+05
 0.56453003E+02  0.42052E+05
 0.56503002E+02  0.42239E+05
 0.56553001E+02  0.42618E+05
 0.56603001E+02  0.42200E+05
 0.56653004E+02  0.41297E+05
 0.56703003E+02  0.40404E+05
 0.56753002E+02  0.39726E+05
 0.56803001E+02  0.39029E+05
 0.56853001E+02  0.38440E+05
 0.56903004E+02  0.38187E+05
 0.56953003E+02  0.38608E+05
 0.57003002E+02  0.38881E+05
 0.57053001E+02  0.39568E+05
 0.57103001E+02  0.39979E+05
 0.57153004E+02  0.39646E+05
 0.57203003E+02  0.40488E+05
 0.57253002E+02  0.41409E+05
 0.57303001E+02  0.41911E+05
 0.57353001E+02  0.41827E+05
 0.57403004E+02  0.41066E+05
 0.57453003E+02  0.40430E+05
 0.57503002E+02  0.40713E+05
 0.57553001E+02  0.40649E+05
 0.57603001E+02  0.40171E+05
 0.57653004E+02  0.39861E+05
 0.57703003E+02  0.39280E+05
 0.57753002E+02  0.39085E+05
 0.57803001E+02  0.39154E+05
 0.57853001E+02  0.39861E+05
 0.57903004E+02  0.39831E+05
 0.57953003E+02  0.39710E+05
 0.58003002E+02  0.39996E+05
 0.58053001E+02  0.40789E+05
 0.58103001E+02  0.42390E+05
 0.58153004E+02  0.42592E+05
 0.58203003E+02  0.42755E+05
 0.58253002E+02  0.42879E+05
 0.58303001E+02  0.42702E+05
 0.58353001E+02  0.42550E+05
 0.58403004E+02  0.41906E+05
 0.58453003E+02  0.41112E+05
 0.58503002E+02  0.40739E+05
 0.58553001E+02  0.40750E+05
 0.58603001E+02  0.40714E+05
 0.58653004E+02  0.40664E+05
 0.58703003E+02  0.39745E+05
 0.58753002E+02  0.38570E+05
 0.58803001E+02  0.37566E+05
 0.58853001E+02  0.37127E+05
 0.58903004E+02  0.37066E+05
 0.58953003E+02  0.37202E+05
 0.59003002E+02  0.37403E+05
 0.59053001E+02  0.37965E+05
 0.59103001E+02  0.38933E+05
 0.59153004E+02  0.39876E+05
 0.59203003E+02  0.41124E+05
 0.59253002E+02  0.42182E+05
 0.59303001E+02  0.42743E+05
 0.59353001E+02  0.42934E+05
 0.59403004E+02  0.42897E+05
 0.59453003E+02  0.42407E+05
 0.59503002E+02  0.41813E+05
 0.59553001E+02  0.41401E+05
 0.59603001E+02  0.40915E+05
 0.59653004E+02  0.40311E+05
 0.59703003E+02  0.40199E+05
 0.59753002E+02  0.40413E+05
 0.59803001E+02  0.41033E+05
 0.59853001E+02  0.41648E+05
 0.59903004E+02  0.41106E+05
 0.59953003E+02  0.40096E+05
 0.60003002E+02  0.39597E+05
 0.60053001E+02  0.39470E+05
 0.60103001E+02  0.39170E+05
 0.60153004E+02  0.38873E+05
 0.60203003E+02  0.38879E+05
 0.60253002E+02  0.39098E+05
 0.60303001E+02  0.39823E+05
 0.60353001E+02  0.40377E+05
 0.60403004E+02  0.40505E+05
 0.60453003E+02  0.40644E+05
 0.60503002E+02  0.40680E+05
 0.60553001E+02  0.40355E+05
 0.60603001E+02  0.39956E+05
 0.60653004E+02  0.40321E+05
 0.60703003E+02  0.41125E+05
 0.60753002E+02  0.41395E+05
 0.60803001E+02  0.41287E+05
 0.60853001E+02  0.41321E+05
 0.60903004E+02  0.40693E+05
 0.60953003E+02  0.40246E+05
 0.61003002E+02  0.40261E+05
 0.61053001E+02  0.40024E+05
 0.61103001E+02  0.40147E+05
 0.61153004E+02  0.40365E+05
 0.61203003E+02  0.40338E+05
 0.61253002E+02  0.40561E+05
 0.61303001E+02  0.40627E+05
 0.61353001E+02  0.40486E+05
 0.61403004E+02  0.40213E+05
 0.61453003E+02  0.39547E+05
 0.61503002E+02  0.39833E+05
 0.61553001E+02  0.40955E+05
 0.61603001E+02  0.41899E+05
 0.61653004E+02  0.42251E+05
 0.61703003E+02  0.41490E+05
 0.61753002E+02  0.40457E+05
 0.61803001E+02  0.40104E+05
 0.61853001E+02  0.40271E+05
 0.61903004E+02  0.40263E+05
 0.61953003E+02  0.39733E+05
 0.62003002E+02  0.39837E+05
 0.62053001E+02  0.39724E+05
 0.62103004E+02  0.39338E+05
 0.62153000E+02  0.39358E+05
 0.62203003E+02  0.39171E+05
 0.62252998E+02  0.39499E+05
 0.62303001E+02  0.40193E+05
 0.62353004E+02  0.40815E+05
 0.62403000E+02  0.41402E+05
 0.62453003E+02  0.42476E+05
 0.62502998E+02  0.43032E+05
 0.62553001E+02  0.42823E+05
 0.62603004E+02  0.42405E+05
 0.62653000E+02  0.41793E+05
 0.62703003E+02  0.41596E+05
 0.62752998E+02  0.41311E+05
 0.62803001E+02  0.40745E+05
 0.62853004E+02  0.40121E+05
 0.62903000E+02  0.40016E+05
 0.62953003E+02  0.40276E+05
 0.63002998E+02  0.40325E+05
 0.63053001E+02  0.40160E+05
 0.63103004E+02  0.39868E+05
 0.63153000E+02  0.39738E+05
 0.63203003E+02  0.39493E+05
 0.63252998E+02  0.38802E+05
 0.63303001E+02  0.38277E+05
 0.63353004E+02  0.38331E+05
 0.63403000E+02  0.38328E+05
 0.63453003E+02  0.38554E+05
 0.63502998E+02  0.39049E+05
 0.63553001E+02  0.39442E+05
 0.63603004E+02  0.40043E+05
 0.63653000E+02  0.40629E+05
 0.63703003E+02  0.40999E+05
 0.63752998E+02  0.41158E+05
 0.63803001E+02  0.40995E+05
 0.63853004E+02  0.40915E+05
 0.63903000E+02  0.40991E+05
 0.63953003E+02  0.40732E+05
 0.64002998E+02  0.40833E+05
 0.64053001E+02  0.41145E+05
 0.64103004E+02  0.41458E+05
 0.64153000E+02  0.41241E+05
 0.64203003E+02  0.40862E+05
 0.64252998E+02  0.40863E+05
 0.64303001E+02  0.40751E+05
 0.64353004E+02  0.40793E+05
 0.64403000E+02  0.40220E+05
 0.64453003E+02  0.39609E+05
 0.64502998E+02  0.39573E+05
 0.64553001E+02  0.40324E+05
 0.64603004E+02  0.41192E+05
 0.64653000E+02  0.41312E+05
 0.64703003E+02  0.41056E+05
 0.64752998E+02  0.40490E+05
 0.64803001E+02  0.39827E+05
 0.64853004E+02  0.39557E+05
 0.64903000E+02  0.39828E+05
 0.64953003E+02  0.40140E+05
 0.65002998E+02  0.40591E+05
 0.65053001E+02  0.41058E+05
 0.65103004E+02  0.41317E+05
 0.65153000E+02  0.41362E+05
 0.65203003E+02  0.41327E+05
 0.65252998E+02  0.40868E+05
 0.65303001E+02  0.40287E+05
 0.65353004E+02  0.40056E+05
 0.65403000E+02  0.39594E+05
 0.65453003E+02  0.39314E+05
 0.65502998E+02  0.39525E+05
 0.65553001E+02  0.39605E+05
 0.65603004E+02  0.39627E+05
 0.65653000E+02  0.39728E+05
 0.65703003E+02  0.39447E+05
 0.65752998E+02  0.39135E+05
 0.65803001E+02  0.39054E+05
 0.65853004E+02  0.39038E+05
 0.65903000E+02  0.39148E+05
 0.65953003E+02  0.39348E+05
 0.66002998E+02  0.39855E+05
 0.66053001E+02  0.40650E+05
 0.66103004E+02  0.41426E+05
 0.66153000E+02  0.42289E+05
 0.66203003E+02  0.42738E+05
 0.66252998E+02  0.42615E+05
 0.66303001E+02  0.42423E+05
 0.66353004E+02  0.42116E+05
 0.66403000E+02  0.41849E+05
 0.66453003E+02  0.41638E+05
 0.66502998E+02  0.41316E+05
 0.66553001E+02  0.40824E+05
 0.66603004E+02  0.40488E+05
 0.66653000E+02  0.40871E+05
 0.66703003E+02  0.41371E+05
 0.66752998E+02  0.41482E+05
 0.66803001E+02  0.41911E+05
 0.66853004E+02  0.42019E+05
 0.66903000E+02  0.40878E+05
 0.66953003E+02  0.39565E+05
 0.67002998E+02  0.38585E+05
 0.67053001E+02  0.38157E+05
 0.67103004E+02  0.37872E+05
 0.67153000E+02  0.37682E+05
 0.67203003E+02  0.38203E+05
 0.67252998E+02  0.39206E+05
 0.67303001E+02  0.40388E+05
 0.67353004E+02  0.41229E+05
 0.67403000E+02  0.41515E+05
 0.67453003E+02  0.41349E+05
 0.67502998E+02  0.41116E+05
 0.67553001E+02  0.40778E+05
 0.67603004E+02  0.40489E+05
 0.67653000E+02  0.40258E+05
 0.67703003E+02  0.40188E+05
 0.67752998E+02  0.40002E+05
 0.67803001E+02  0.39491E+05
 0.67853004E+02  0.39020E+05
 0.67903000E+02  0.39162E+05
 0.67953003E+02  0.39729E+05
 0.68002998E+02  0.40203E+05
 0.68053001E+02  0.40749E+05
 0.68103004E+02  0.40928E+05
 0.68153000E+02  0.41226E+05
 0.68203003E+02  0.41725E+05
 0.68252998E+02  0.41875E+05
 0.68303001E+02  0.41857E+05
 0.68353004E+02  0.41801E+05
 0.68403000E+02  0.41646E+05
 0.68453003E+02  0.41549E+05
 0.68502998E+02  0.41382E+05
 0.68553001E+02  0.40886E+05
 0.68603004E+02  0.40521E+05
 0.68653000E+02  0.40075E+05
 0.68703003E+02  0.39594E+05
 0.68752998E+02  0.39700E+05
 0.68803001E+02  0.39657E+05
 0.68853004E+02  0.39471E+05
 0.68903000E+02  0.39546E+05
 0.68953003E+02  0.39895E+05
 0.69002998E+02  0.40063E+05
 0.69053001E+02  0.40220E+05
 0.69103004E+02  0.40534E+05
 0.69153000E+02  0.40564E+05
 0.69203003E+02  0.40702E+05
 0.69252998E+02  0.40735E+05
 0.69303001E+02  0.40486E+05
 0.69353004E+02  0.40033E+05
 0.69403000E+02  0.39660E+05
 0.69453003E+02  0.39715E+05
 0.69502998E+02  0.40029E+05
 0.69553001E+02  0.40199E+05
 0.69603004E+02  0.40154E+05
 0.69653000E+02  0.39997E+05
 0.69703003E+02  0.39831E+05
 0.69752998E+02  0.39859E+05
 0.69803001E+02  0.40215E+05
 0.69853004E+02  0.40836E+05
 0.69903000E+02  0.41399E+05
 0.69953003E+02  0.41744E+05
 0.70002998E+02  0.41941E+05
 0.70053001E+02  0.41660E+05
 0.70103004E+02  0.41283E+05
 0.70153000E+02  0.41099E+05
 0.70203003E+02  0.40691E+05
 0.70252998E+02  0.40316E+05
 0.70303001E+02  0.40058E+05
 0.70353004E+02  0.39978E+05
 0.70403000E+02  0.40049E+05
 0.70453003E+02  0.40089E+05
 0.70502998E+02  0.39652E+05
 0.70553001E+02  0.39136E+05
 0.70603004E+02  0.39143E+05
 0.70653000E+02  0.39494E+05
 0.70703003E+02  0.39646E+05
 0.70752998E+02  0.39490E+05
 0.70803001E+02  0.39473E+05
 0.70853004E+02  0.39570E+05
 0.70903000E+02  0.39694E+05
 0.70953003E+02  0.40089E+05
 0.71002998E+02  0.40608E+05
 0.71053001E+02  0.40740E+05
 0.71103004E+02  0.41050E+05
 0.71153000E+02  0.41314E+05
 0.71203003E+02  0.41171E+05
 0.71252998E+02  0.41158E+05
 0.71303001E+02  0.41080E+05
 0.71353004E+02  0.40646E+05
 0.71403000E+02  0.40497E+05
 0.71453003E+02  0.40755E+05
 0.71502998E+02  0.40961E+05
 0.71553001E+02  0.40999E+05
 0.71603004E+02  0.41346E+05
 0.71653000E+02  0.41660E+05
 0.71703003E+02  0.41184E+05
 0.71752998E+02  0.40667E+05
 0.71803001E+02  0.40541E+05
 0.71853004E+02  0.40669E+05
 0.71903000E+02  0.40860E+05
 0.71953003E+02  0.40731E+05
 0.72002998E+02  0.40515E+05
 0.72053001E+02  0.40426E+05
 0.72103004E+02  0.40236E+05
 0.72153000E+02  0.39946E+05
 0.72203003E+02  0.39729E+05
 0.72252998E+02  0.39558E+05
 0.72303001E+02  0.39304E+05
 0.72353004E+02  0.39182E+05
 0.72403000E+02  0.39391E+05
 0.72453003E+02  0.39696E+05
 0.72502998E+02  0.39875E+05
 0.72553001E+02  0.40146E+05
 0.72603004E+02  0.40319E+05
 0.72653000E+02  0.40458E+05
 0.72703003E+02  0.40841E+05
 0.72752998E+02  0.41231E+05
 0.72803001E+02  0.41407E+05
 0.72853004E+02  0.41506E+05
 0.72903000E+02  0.41270E+05
 0.72953003E+02  0.40634E+05
 0.73002998E+02  0.40245E+05
 0.73053001E+02  0.40142E+05
 0.73103004E+02  0.40110E+05
 0.73153000E+02  0.39994E+05
 0.73203003E+02  0.39954E+05
 0.73252998E+02  0.39973E+05
 0.73303001E+02  0.40021E+05
 0.73353004E+02  0.40023E+05
 0.73403000E+02  0.40168E+05
 0.73453003E+02  0.40669E+05
 0.73502998E+02  0.40994E+05
 0.73553001E+02  0.41445E+05
 0.73603004E+02  0.41998E+05
 0.73653000E+02  0.41976E+05
 0.73703003E+02  0.41535E+05
 0.73752998E+02  0.41011E+05
 0.73803001E+02  0.40405E+05
 0.73853004E+02  0.39954E+05
 0.73903000E+02  0.40025E+05
 0.73953003E+02  0.40042E+05
 0.74002998E+02  0.39970E+05
 0.74053001E+02  0.40085E+05
 0.74103004E+02  0.40083E+05
 0.74153000E+02  0.40241E+05
 0.74203003E+02  0.40694E+05
 0.74252998E+02  0.40982E+05
 0.74303001E+02  0.40981E+05
 0.74353004E+02  0.40800E+05
 0.74403000E+02  0.40547E+05
 0.74453003E+02  0.40083E+05
 0.74502998E+02  0.39545E+05
 0.74553001E+02  0.39293E+05
 0.74603004E+02  0.39079E+05
 0.74653000E+02  0.39136E+05
 0.74703003E+02  0.39395E+05
 0.74752998E+02  0.39699E+05
 0.74803001E+02  0.40039E+05
 0.74853004E+02  0.40129E+05
 0.74903000E+02  0.40269E+05
 0.74953003E+02  0.40628E+05
 0.75002998E+02  0.40689E+05
 0.75053001E+02  0.40587E+05
 0.75103004E+02  0.40694E+05
 0.75153000E+02  0.40624E+05
 0.75203003E+02  0.40429E+05
 0.75252998E+02  0.40229E+05
 0.75303001E+02  0.40162E+05
 0.75353004E+02  0.40432E+05
 0.75403000E+02  0.40691E+05
 0.75453003E+02  0.40950E+05
 0.75502998E+02  0.41447E+05
 0.75553001E+02  0.41594E+05
 0.75603004E+02  0.41289E+05
 0.75653000E+02  0.41085E+05
 0.75703003E+02  0.40864E+05
 0.75752998E+02  0.40778E+05
 0.75803001E+02  0.40746E+05
 0.75853004E+02  0.40517E+05
 0.75903000E+02  0.39983E+05
 0.75953003E+02  0.39570E+05
 0.76002998E+02  0.39615E+05
 0.76053001E+02  0.40054E+05
 0.76103004E+02  0.40506E+05
 0.76153000E+02  0.40637E+05
 0.76203003E+02  0.40732E+05
 0.76252998E+02  0.40801E+05
 0.76303001E+02  0.40751E+05
 0.76353004E+02  0.40558E+05
 0.76403000E+02  0.40612E+05
 0.76453003E+02  0.40975E+05
 0.76502998E+02  0.41524E+05
 0.76553001E+02  0.41820E+05
 0.76603004E+02  0.41676E+05
 0.76653000E+02  0.41337E+05
 0.76703003E+02  0.40955E+05
 0.76752998E+02  0.40614E+05
 0.76803001E+02  0.40410E+05
 0.76853004E+02  0.40331E+05
 0.76903000E+02  0.40121E+05
 0.76953003E+02  0.39792E+05
 0.77002998E+02  0.39352E+05
 0.77053001E+02  0.39116E+05
 0.77103004E+02  0.39357E+05
 0.77153000E+02  0.39609E+05
 0.77203003E+02  0.39655E+05
 0.77252998E+02  0.39426E+05
 0.77303001E+02  0.39260E+05
 0.77353004E+02  0.39491E+05
 0.77403000E+02  0.39816E+05
 0.77453003E+02  0.40393E+05
 0.77502998E+02  0.40825E+05
 0.77553001E+02  0.40958E+05
 0.77603004E+02  0.40949E+05
 0.77653000E+02  0.40617E+05
 0.77703003E+02  0.40297E+05
 0.77752998E+02  0.40303E+05
 0.77803001E+02  0.40541E+05
 0.77853004E+02  0.40647E+05
 0.77903000E+02  0.40609E+05
 0.77953003E+02  0.40833E+05
 0.78002998E+02  0.41063E+05
 0.78053001E+02  0.40997E+05
 0.78103004E+02  0.40722E+05
 0.78153000E+02  0.40416E+05
 0.78203003E+02  0.40246E+05
 0.78252998E+02  0.40131E+05
 0.78303001E+02  0.40270E+05
 0.78353004E+02  0.40407E+05
 0.78403000E+02  0.40267E+05
 0.78453003E+02  0.40060E+05
 0.78502998E+02  0.39761E+05
 0.78553001E+02  0.39393E+05
 0.78603004E+02  0.39228E+05
 0.78653000E+02  0.39234E+05
 0.78703003E+02  0.39571E+05
 0.78752998E+02  0.40281E+05
 0.78803001E+02  0.40778E+05
 0.78853004E+02  0.41024E+05
 0.78903000E+02  0.40997E+05
 0.78953003E+02  0.40827E+05
 0.79002998E+02  0.40836E+05
 0.79053001E+02  0.40876E+05
 0.79103004E+02  0.40859E+05
 0.79153000E+02  0.40813E+05
 0.79203003E+02  0.40935E+05
 0.79252998E+02  0.41045E+05
 0.79303001E+02  0.41143E+05
 0.79353004E+02  0.41345E+05
 0.79403000E+02  0.41440E+05
 0.79453003E+02  0.41113E+05
 0.79502998E+02  0.40597E+05
 0.79553001E+02  0.40317E+05
 0.79603004E+02  0.40051E+05
 0.79653000E+02  0.39870E+05
 0.79703003E+02  0.39953E+05
 0.79752998E+02  0.40227E+05
 0.79803001E+02  0.40443E+05
 0.79853004E+02  0.40622E+05
 0.79903000E+02  0.40754E+05
 0.79953003E+02  0.40898E+05
 0.80002998E+02  0.40842E+05
 0.80053001E+02  0.40656E+05
 0.80103004E+02  0.40479E+05
 0.80153000E+02  0.40022E+05
 0.80203003E+02  0.39704E+05
 0.80252998E+02  0.39850E+05
 0.80303001E+02  0.40206E+05
 0.80353004E+02  0.40415E+05
 0.80403000E+02  0.40406E+05
 0.80453003E+02  0.40458E+05
 0.80502998E+02  0.40410E+05
 0.80553001E+02  0.40267E+05
 0.80603004E+02  0.40259E+05
 0.80653000E+02  0.40148E+05
 0.80703003E+02  0.40105E+05
 0.80752998E+02  0.40189E+05
 0.80803001E+02  0.40150E+05
 0.80853004E+02  0.40004E+05
 0.80903000E+02  0.39821E+05
 0.80953003E+02  0.39684E+05
 0.81002998E+02  0.40106E+05
 0.81053001E+02  0.40818E+05
 0.81103004E+02  0.41254E+05
 0.81153000E+02  0.41278E+05
 0.81203003E+02  0.40962E+05
 0.81252998E+02  0.40727E+05
 0.81303001E+02  0.40655E+05
 0.81353004E+02  0.40717E+05
 0.81403000E+02  0.40825E+05
 0.81453003E+02  0.40863E+05
 0.81502998E+02  0.40869E+05
 0.81553001E+02  0.40862E+05
 0.81603004E+02  0.40687E+05
 0.81653000E+02  0.40468E+05
 0.81703003E+02  0.40302E+05
 0.81752998E+02  0.40123E+05
 0.81803001E+02  0.40217E+05
 0.81853004E+02  0.40427E+05
 0.81903000E+02  0.40428E+05
 0.81953003E+02  0.40418E+05
 0.82002998E+02  0.40346E+05
 0.82053001E+02  0.40276E+05
 0.82103004E+02  0.40247E+05
 0.82153000E+02  0.40151E+05
 0.82203003E+02  0.40201E+05
 0.82252998E+02  0.40250E+05
 0.82303001E+02  0.40055E+05
 0.82353004E+02  0.39899E+05
 0.82403000E+02  0.39957E+05
 0.82453003E+02  0.40079E+05
 0.82502998E+02  0.40266E+05
 0.82553001E+02  0.40550E+05
 0.82603004E+02  0.40710E+05
 0.82653000E+02  0.40675E+05
 0.82703003E+02  0.40471E+05
 0.82752998E+02  0.40194E+05
 0.82803001E+02  0.40183E+05
 0.82853004E+02  0.40273E+05
 0.82903000E+02  0.40109E+05
 0.82953003E+02  0.39872E+05
 0.83002998E+02  0.39634E+05
 0.83053001E+02  0.39528E+05
 0.83103004E+02  0.39861E+05
 0.83153000E+02  0.40357E+05
 0.83203003E+02  0.40782E+05
 0.83252998E+02  0.41085E+05
 0.83303001E+02  0.41123E+05
 0.83353004E+02  0.40823E+05
 0.83403000E+02  0.40462E+05
 0.83453003E+02  0.40248E+05
 0.83502998E+02  0.40247E+05
 0.83553001E+02  0.40334E+05
 0.83603004E+02  0.40417E+05
 0.83653000E+02  0.40608E+05
 0.83703003E+02  0.40808E+05
 0.83752998E+02  0.40911E+05
 0.83803001E+02  0.40792E+05
 0.83853004E+02  0.40600E+05
 0.83903000E+02  0.40324E+05
 0.83953003E+02  0.40118E+05
 0.84002998E+02  0.40113E+05
 0.84053001E+02  0.40333E+05
 0.84103004E+02  0.40558E+05
 0.84153000E+02  0.40621E+05
 0.84203003E+02  0.40853E+05
 0.84252998E+02  0.41074E+05
 0.84303001E+02  0.41154E+05
 0.84353004E+02  0.41064E+05
 0.84403000E+02  0.40965E+05
 0.84453003E+02  0.40909E+05
 0.84502998E+02  0.40715E+05
 0.84553001E+02  0.40537E+05
 0.84603004E+02  0.40254E+05
 0.84653000E+02  0.40082E+05
 0.84703003E+02  0.39991E+05
 0.84752998E+02  0.39923E+05
 0.84803001E+02  0.40036E+05
 0.84853004E+02  0.40138E+05
 0.84903000E+02  0.40237E+05
 0.84953003E+02  0.40291E+05
 0.85002998E+02  0.40471E+05
 0.85053001E+02  0.40485E+05
 0.85103004E+02  0.40278E+05
 0.85153000E+02  0.40031E+05
 0.85203003E+02  0.39946E+05
 0.85252998E+02  0.40216E+05
 0.85303001E+02  0.40346E+05
 0.85353004E+02  0.40343E+05
 0.85403000E+02  0.40336E+05
 0.85453003E+02  0.40270E+05
 0.85502998E+02  0.40272E+05
 0.85553001E+02  0.40380E+05
 0.85603004E+02  0.40510E+05
 0.85653000E+02  0.40523E+05
 0.85703003E+02  0.40377E+05
 0.85752998E+02  0.40249E+05
 0.85803001E+02  0.40388E+05
 0.85853004E+02  0.40700E+05
 0.85903000E+02  0.40991E+05
 0.85953003E+02  0.41037E+05
 0.86002998E+02  0.40824E+05
 0.86053001E+02  0.40650E+05
 0.86103004E+02  0.40514E+05
 0.86153000E+02  0.40364E+05
 0.86203003E+02  0.40373E+05
 0.86252998E+02  0.40406E+05
 0.86303001E+02  0.40467E+05
 0.86353004E+02  0.40527E+05
 0.86403000E+02  0.40555E+05
 0.86453003E+02  0.40613E+05
 0.86502998E+02  0.40618E+05
 0.86553001E+02  0.40686E+05
 0.86603004E+02  0.40599E+05
 0.86653000E+02  0.40500E+05
 0.86703003E+02  0.40534E+05
 0.86752998E+02  0.40655E+05
 0.86803001E+02  0.40781E+05
 0.86853004E+02  0.40803E+05
 0.86903000E+02  0.40812E+05
 0.86953003E+02  0.40842E+05
 0.87002998E+02  0.40763E+05
 0.87053001E+02  0.40480E+05
 0.87103004E+02  0.40213E+05
 0.87153000E+02  0.40127E+05
 0.87203003E+02  0.40309E+05
 0.87252998E+02  0.40506E+05
 0.87303001E+02  0.40513E+05
 0.87353004E+02  0.40405E+05
 0.87403000E+02  0.40469E+05
 0.87453003E+02  0.40685E+05
 0.87502998E+02  0.40795E+05
 0.87553001E+02  0.40795E+05
 0.87602997E+02  0.40655E+05
 0.87653000E+02  0.40434E+05
 0.87703003E+02  0.40386E+05
 0.87752998E+02  0.40505E+05
 0.87803001E+02  0.40480E+05
 0.87852997E+02  0.40326E+05
 0.87903000E+02  0.40129E+05
 0.87953003E+02  0.40025E+05
 0.88002998E+02  0.39854E+05
 0.88053001E+02  0.39600E+05
 0.88102997E+02  0.39681E+05
 0.88153000E+02  0.39938E+05
 0.88203003E+02  0.40106E+05
 0.88252998E+02  0.40123E+05
 0.88303001E+02  0.40087E+05
 0.88352997E+02  0.40239E+05
 0.88403000E+02  0.40412E+05
 0.88453003E+02  0.40573E+05
 0.88502998E+02  0.40789E+05
 0.88553001E+02  0.40753E+05
 0.88602997E+02  0.40486E+05
 0.88653000E+02  0.40238E+05
 0.88703003E+02  0.40038E+05
 0.88752998E+02  0.40058E+05
 0.88803001E+02  0.40247E+05
 0.88852997E+02  0.40266E+05
 0.88903000E+02  0.40290E+05
 0.88953003E+02  0.40394E+05
 0.89002998E+02  0.40510E+05
 0.89053001E+02  0.40581E+05
 0.89102997E+02  0.40560E+05
 0.89153000E+02  0.40450E+05
 0.89203003E+02  0.40220E+05
 0.89252998E+02  0.40195E+05
 0.89303001E+02  0.40339E+05
 0.89352997E+02  0.40444E+05
 0.89403000E+02  0.40508E+05
 0.89453003E+02  0.40561E+05
 0.89502998E+02  0.40583E+05
 0.89553001E+02  0.40510E+05
 0.89602997E+02  0.40237E+05
 0.89653000E+02  0.39890E+05
 0.89703003E+02  0.39733E+05
 0.89752998E+02  0.39795E+05
 0.89803001E+02  0.39944E+05
 0.89852997E+02  0.40027E+05
 0.89903000E+02  0.39996E+05
 0.89953003E+02  0.40017E+05
 0.90002998E+02  0.40310E+05
 0.90053001E+02  0.40523E+05
 0.90102997E+02  0.40497E+05
 0.90153000E+02  0.40491E+05
 0.90203003E+02  0.40594E+05
 0.90252998E+02  0.40705E+05
 0.90303001E+02  0.40797E+05
 0.90352997E+02  0.40787E+05
 0.90403000E+02  0.40670E+05
 0.90453003E+02  0.40687E+05
 0.90502998E+02  0.40816E+05
 0.90553001E+02  0.40914E+05
 0.90602997E+02  0.41104E+05
 0.90653000E+02  0.41242E+05
 0.90703003E+02  0.41077E+05
 0.90752998E+02  0.40785E+05
 0.90803001E+02  0.40469E+05
 0.90852997E+02  0.40242E+05
 0.90903000E+02  0.40117E+05
 0.90953003E+02  0.40031E+05
 0.91002998E+02  0.40035E+05
 0.91053001E+02  0.40089E+05
 0.91102997E+02  0.40144E+05
 0.91153000E+02  0.40283E+05
 0.91203003E+02  0.40442E+05
 0.91252998E+02  0.40530E+05
 0.91303001E+02  0.40532E+05
 0.91352997E+02  0.40629E+05
 0.91403000E+02  0.40809E+05
 0.91453003E+02  0.40907E+05
 0.91502998E+02  0.40901E+05
 0.91553001E+02  0.40686E+05
 0.91602997E+02  0.40410E+05
 0.91653000E+02  0.40279E+05
 0.91703003E+02  0.40392E+05
 0.91752998E+02  0.40636E+05
 0.91803001E+02  0.40692E+05
 0.91852997E+02  0.40578E+05
 0.91903000E+02  0.40474E+05
 0.91953003E+02  0.40363E+05
 0.92002998E+02  0.40417E+05
 0.92053001E+02  0.40438E+05
 0.92102997E+02  0.40419E+05
 0.92153000E+02  0.40554E+05
 0.92203003E+02  0.40734E+05
 0.92252998E+02  0.40671E+05
 0.92303001E+02  0.40318E+05
 0.92352997E+02  0.39969E+05
 0.92403000E+02  0.39776E+05
 0.92453003E+02  0.39729E+05
 0.92502998E+02  0.39723E+05
 0.92553001E+02  0.40023E+05
 0.92602997E+02  0.40338E+05
 0.92653000E+02  0.40355E+05
 0.92703003E+02  0.40222E+05
 0.92752998E+02  0.40190E+05
 0.92803001E+02  0.40330E+05
 0.92852997E+02  0.40435E+05
 0.92903000E+02  0.40476E+05
 0.92953003E+02  0.40487E+05
 0.93002998E+02  0.40516E+05
 0.93053001E+02  0.40485E+05
 0.93102997E+02  0.40458E+05
 0.93153000E+02  0.40451E+05
 0.93203003E+02  0.40399E+05
 0.93252998E+02  0.40389E+05
 0.93303001E+02  0.40543E+05
 0.93352997E+02  0.40675E+05
 0.93403000E+02  0.40774E+05
 0.93453003E+02  0.40759E+05
 0.93502998E+02  0.40530E+05
 0.93553001E+02  0.40397E+05
 0.93602997E+02  0.40327E+05
 0.93653000E+02  0.40316E+05
 0.93703003E+02  0.40373E+05
 0.93752998E+02  0.40388E+05
 0.93803001E+02  0.40389E+05
 0.93852997E+02  0.40263E+05
 0.93903000E+02  0.40171E+05
 0.93953003E+02  0.40222E+05
 0.94002998E+02  0.40359E+05
 0.94053001E+02  0.40655E+05
 0.94102997E+02  0.40847E+05
 0.94153000E+02  0.40807E+05
 0.94203003E+02  0.40678E+05
 0.94252998E+02  0.40678E+05
 0.94303001E+02  0.40778E+05
 0.94352997E+02  0.40829E+05
 0.94403000E+02  0.40698E+05
 0.94453003E+02  0.40404E+05
 0.94502998E+02  0.40276E+05
 0.94553001E+02  0.40257E+05
 0.94602997E+02  0.40191E+05
 0.94653000E+02  0.40163E+05
 0.94703003E+02  0.40252E+05
 0.94752998E+02  0.40501E+05
 0.94803001E+02  0.40774E+05
 0.94852997E+02  0.40880E+05
 0.94903000E+02  0.40856E+05
 0.94953003E+02  0.40792E+05
 0.95002998E+02  0.40674E+05
 0.95053001E+02  0.40609E+05
 0.95102997E+02  0.40674E+05
 0.95153000E+02  0.40683E+05
 0.95203003E+02  0.40599E+05
 0.95252998E+02  0.40573E+05
 0.95303001E+02  0.40498E+05
 0.95352997E+02  0.40406E+05
 0.95403000E+02  0.40375E+05
 0.95453003E+02  0.40278E+05
 0.95502998E+02  0.40203E+05
 0.95553001E+02  0.40160E+05
 0.95602997E+02  0.40092E+05
 0.95653000E+02  0.40061E+05
 0.95703003E+02  0.40113E+05
 0.95752998E+02  0.40185E+05
 0.95803001E+02  0.40278E+05
 0.95852997E+02  0.40364E+05
 0.95903000E+02  0.40392E+05
 0.95953003E+02  0.40427E+05
 0.96002998E+02  0.40438E+05
 0.96053001E+02  0.40387E+05
 0.96102997E+02  0.40334E+05
 0.96153000E+02  0.40296E+05
 0.96203003E+02  0.40233E+05
 0.96252998E+02  0.40212E+05
 0.96303001E+02  0.40239E+05
 0.96352997E+02  0.40356E+05
 0.96403000E+02  0.40526E+05
 0.96453003E+02  0.40568E+05
 0.96502998E+02  0.40494E+05
 0.96553001E+02  0.40449E+05
 0.96602997E+02  0.40567E+05
 0.96653000E+02  0.40654E+05
 0.96703003E+02  0.40587E+05
 0.96752998E+02  0.40540E+05
 0.96803001E+02  0.40513E+05
 0.96852997E+02  0.40482E+05
 0.96903000E+02  0.40478E+05
 0.96953003E+02  0.40498E+05
 0.97002998E+02  0.40617E+05
 0.97053001E+02  0.40675E+05
 0.97102997E+02  0.40714E+05
 0.97153000E+02  0.40819E+05
 0.97203003E+02  0.40846E+05
 0.97252998E+02  0.40841E+05
 0.97303001E+02  0.40679E+05
 0.97352997E+02  0.40380E+05
 0.97403000E+02  0.40180E+05
 0.97453003E+02  0.40121E+05
 0.97502998E+02  0.40203E+05
 0.97553001E+02  0.40252E+05
 0.97602997E+02  0.40064E+05
 0.97653000E+02  0.39904E+05
 0.97703003E+02  0.39896E+05
 0.97752998E+02  0.39962E+05
 0.97803001E+02  0.40005E+05
 0.97852997E+02  0.40011E+05
 0.97903000E+02  0.40098E+05
 0.97953003E+02  0.40216E+05
 0.98002998E+02  0.40363E+05
