-0.20000000E+01  0.19101E+04
-0.19500000E+01  0.18972E+04
-0.19000000E+01  0.19025E+04
-0.18500000E+01  0.19039E+04
-0.18000000E+01  0.19029E+04
-0.17500000E+01  0.19005E+04
-0.17000000E+01  0.18997E+04
-0.16500001E+01  0.19015E+04
-0.16000000E+01  0.18995E+04
-0.15500000E+01  0.18978E+04
-0.15000000E+01  0.18996E+04
-0.14500000E+01  0.18998E+04
-0.14000001E+01  0.18971E+04
-0.13500000E+01  0.18940E+04
-0.13000001E+01  0.18939E+04
-0.12500000E+01  0.18945E+04
-0.12000000E+01  0.18945E+04
-0.11500001E+01  0.18951E+04
-0.11000000E+01  0.18943E+04
-0.10500001E+01  0.18936E+04
-0.10000000E+01  0.18951E+04
-0.95000005E+00  0.18976E+04
-0.90000010E+00  0.19007E+04
-0.85000002E+00  0.19017E+04
-0.80000007E+00  0.19042E+04
-0.75000012E+00  0.19040E+04
-0.70000005E+00  0.19091E+04
-0.65000010E+00  0.19113E+04
-0.60000014E+00  0.19107E+04
-0.55000007E+00  0.19138E+04
-0.50000012E+00  0.19119E+04
-0.45000005E+00  0.19121E+04
-0.40000010E+00  0.19114E+04
-0.35000014E+00  0.19112E+04
-0.30000007E+00  0.19091E+04
-0.25000012E+00  0.19066E+04
-0.20000005E+00  0.19060E+04
-0.15000010E+00  0.19081E+04
-0.10000014E+00  0.19084E+04
-0.50000072E-01  0.19073E+04
-0.11920929E-06  0.19093E+04
 0.49999952E-01  0.19100E+04
 0.99999905E-01  0.19103E+04
 0.14999986E+00  0.19088E+04
 0.19999981E+00  0.19100E+04
 0.24999976E+00  0.19136E+04
 0.29999995E+00  0.19139E+04
 0.34999990E+00  0.19136E+04
 0.39999986E+00  0.19119E+04
 0.44999981E+00  0.19128E+04
 0.49999976E+00  0.19098E+04
 0.54999995E+00  0.19077E+04
 0.59999990E+00  0.19082E+04
 0.64999986E+00  0.19057E+04
 0.69999981E+00  0.19031E+04
 0.74999976E+00  0.18991E+04
 0.79999971E+00  0.18982E+04
 0.84999990E+00  0.18958E+04
 0.89999986E+00  0.18954E+04
 0.94999981E+00  0.18961E+04
 0.99999976E+00  0.18976E+04
 0.10499997E+01  0.18971E+04
 0.10999999E+01  0.18975E+04
 0.11499999E+01  0.18988E+04
 0.11999998E+01  0.18988E+04
 0.12499998E+01  0.18980E+04
 0.12999997E+01  0.18990E+04
 0.13499999E+01  0.19002E+04
 0.13999999E+01  0.18992E+04
 0.14499998E+01  0.18989E+04
 0.14999998E+01  0.18974E+04
 0.15499997E+01  0.18964E+04
 0.15999999E+01  0.18938E+04
 0.16499999E+01  0.18912E+04
 0.16999998E+01  0.18897E+04
 0.17499998E+01  0.18904E+04
 0.17999997E+01  0.18914E+04
 0.18499997E+01  0.18929E+04
 0.18999999E+01  0.18949E+04
 0.19499998E+01  0.18964E+04
 0.19999998E+01  0.19000E+04
 0.20499997E+01  0.19027E+04
 0.20999999E+01  0.19023E+04
 0.21499996E+01  0.19064E+04
 0.21999998E+01  0.19074E+04
 0.22499995E+01  0.19087E+04
 0.22999997E+01  0.19100E+04
 0.23499999E+01  0.19106E+04
 0.23999996E+01  0.19086E+04
 0.24499998E+01  0.19070E+04
 0.24999995E+01  0.19081E+04
 0.25499997E+01  0.19058E+04
 0.25999999E+01  0.19081E+04
 0.26499996E+01  0.19107E+04
 0.26999998E+01  0.19121E+04
 0.27499995E+01  0.19111E+04
 0.27999997E+01  0.19143E+04
 0.28499999E+01  0.19173E+04
 0.28999996E+01  0.19170E+04
 0.29499998E+01  0.19167E+04
 0.29999995E+01  0.19180E+04
 0.30499997E+01  0.19176E+04
 0.30999999E+01  0.19165E+04
 0.31499996E+01  0.19169E+04
 0.31999998E+01  0.19143E+04
 0.32499995E+01  0.19117E+04
 0.32999997E+01  0.19082E+04
 0.33499999E+01  0.19094E+04
 0.33999996E+01  0.19049E+04
 0.34499998E+01  0.19014E+04
 0.34999995E+01  0.18997E+04
 0.35499997E+01  0.18955E+04
 0.35999994E+01  0.18956E+04
 0.36499996E+01  0.18937E+04
 0.36999998E+01  0.18921E+04
 0.37499995E+01  0.18906E+04
 0.37999997E+01  0.18883E+04
 0.38499994E+01  0.18863E+04
 0.38999996E+01  0.18860E+04
 0.39499998E+01  0.18867E+04
 0.39999995E+01  0.18899E+04
 0.40499997E+01  0.18930E+04
 0.40999994E+01  0.18964E+04
 0.41499996E+01  0.18988E+04
 0.41999998E+01  0.19002E+04
 0.42499995E+01  0.19033E+04
 0.42999997E+01  0.19072E+04
 0.43499994E+01  0.19110E+04
 0.43999996E+01  0.19122E+04
 0.44499998E+01  0.19148E+04
 0.44999995E+01  0.19156E+04
 0.45499997E+01  0.19152E+04
 0.45999994E+01  0.19146E+04
 0.46499996E+01  0.19115E+04
 0.46999998E+01  0.19092E+04
 0.47499995E+01  0.19077E+04
 0.47999997E+01  0.19047E+04
 0.48499994E+01  0.19033E+04
 0.48999996E+01  0.19040E+04
 0.49499998E+01  0.19017E+04
 0.49999995E+01  0.19017E+04
 0.50499997E+01  0.18991E+04
 0.50999994E+01  0.18963E+04
 0.51499996E+01  0.18973E+04
 0.51999998E+01  0.18974E+04
 0.52499995E+01  0.18980E+04
 0.52999997E+01  0.18976E+04
 0.53499994E+01  0.18967E+04
 0.53999996E+01  0.18935E+04
 0.54499993E+01  0.18954E+04
 0.54999995E+01  0.18966E+04
 0.55499997E+01  0.18994E+04
 0.55999994E+01  0.19023E+04
 0.56499996E+01  0.19018E+04
 0.56999993E+01  0.19049E+04
 0.57499995E+01  0.19059E+04
 0.57999997E+01  0.19081E+04
 0.58499994E+01  0.19077E+04
 0.58999996E+01  0.19088E+04
 0.59499993E+01  0.19062E+04
 0.59999995E+01  0.19065E+04
 0.60499992E+01  0.19087E+04
 0.60999994E+01  0.19077E+04
 0.61499996E+01  0.19087E+04
 0.61999998E+01  0.19072E+04
 0.62499990E+01  0.19087E+04
 0.62999992E+01  0.19094E+04
 0.63499994E+01  0.19085E+04
 0.63999996E+01  0.19083E+04
 0.64499998E+01  0.19087E+04
 0.64999990E+01  0.19070E+04
 0.65499992E+01  0.19086E+04
 0.65999994E+01  0.19072E+04
 0.66499996E+01  0.19058E+04
 0.66999998E+01  0.19078E+04
 0.67499990E+01  0.19042E+04
 0.67999992E+01  0.19046E+04
 0.68499994E+01  0.19027E+04
 0.68999996E+01  0.19023E+04
 0.69499998E+01  0.19024E+04
 0.69999990E+01  0.19026E+04
 0.70499992E+01  0.19051E+04
 0.70999994E+01  0.19036E+04
 0.71499996E+01  0.19045E+04
 0.71999998E+01  0.19032E+04
 0.72499990E+01  0.19032E+04
 0.72999992E+01  0.19033E+04
 0.73499994E+01  0.19032E+04
 0.73999996E+01  0.19015E+04
 0.74499998E+01  0.19013E+04
 0.74999990E+01  0.19008E+04
 0.75499992E+01  0.19016E+04
 0.75999994E+01  0.19035E+04
 0.76499996E+01  0.19047E+04
 0.76999998E+01  0.19089E+04
 0.77499990E+01  0.19080E+04
 0.77999992E+01  0.19093E+04
 0.78499994E+01  0.19085E+04
 0.78999996E+01  0.19067E+04
 0.79499998E+01  0.19057E+04
 0.79999990E+01  0.19054E+04
 0.80499992E+01  0.19046E+04
 0.80999994E+01  0.19057E+04
 0.81499996E+01  0.19071E+04
 0.81999998E+01  0.19056E+04
 0.82499990E+01  0.19062E+04
 0.82999992E+01  0.19062E+04
 0.83499994E+01  0.19067E+04
 0.83999996E+01  0.19039E+04
 0.84499998E+01  0.19036E+04
 0.84999990E+01  0.19020E+04
 0.85499992E+01  0.18998E+04
 0.85999994E+01  0.19000E+04
 0.86499996E+01  0.18983E+04
 0.86999998E+01  0.18983E+04
 0.87499990E+01  0.18987E+04
 0.87999992E+01  0.18992E+04
 0.88499994E+01  0.18999E+04
 0.88999996E+01  0.19028E+04
 0.89499998E+01  0.19027E+04
 0.89999990E+01  0.19027E+04
 0.90499992E+01  0.19043E+04
 0.90999994E+01  0.19043E+04
 0.91499996E+01  0.19036E+04
 0.91999989E+01  0.19039E+04
 0.92499990E+01  0.19038E+04
 0.92999992E+01  0.19037E+04
 0.93499994E+01  0.19040E+04
 0.93999996E+01  0.19016E+04
 0.94499989E+01  0.19026E+04
 0.94999990E+01  0.19054E+04
 0.95499992E+01  0.19056E+04
 0.95999994E+01  0.19041E+04
 0.96499996E+01  0.19034E+04
 0.96999989E+01  0.19010E+04
 0.97499990E+01  0.19018E+04
 0.97999992E+01  0.19042E+04
 0.98499994E+01  0.19030E+04
 0.98999996E+01  0.19031E+04
 0.99499989E+01  0.19016E+04
 0.99999990E+01  0.19031E+04
 0.10049999E+02  0.19038E+04
 0.10099999E+02  0.19024E+04
 0.10150000E+02  0.19037E+04
 0.10199999E+02  0.19027E+04
 0.10249999E+02  0.19022E+04
 0.10299999E+02  0.19044E+04
 0.10349999E+02  0.19049E+04
 0.10400000E+02  0.19034E+04
 0.10449999E+02  0.19051E+04
 0.10499999E+02  0.19051E+04
 0.10549999E+02  0.19050E+04
 0.10599999E+02  0.19054E+04
 0.10650000E+02  0.19031E+04
 0.10699999E+02  0.19049E+04
 0.10749999E+02  0.19039E+04
 0.10799999E+02  0.19004E+04
 0.10849999E+02  0.18998E+04
 0.10900000E+02  0.18990E+04
 0.10949999E+02  0.19017E+04
 0.10999999E+02  0.19021E+04
 0.11049999E+02  0.19013E+04
 0.11099999E+02  0.19023E+04
 0.11150000E+02  0.19024E+04
 0.11199999E+02  0.19038E+04
 0.11249999E+02  0.19045E+04
 0.11299999E+02  0.19049E+04
 0.11349999E+02  0.19038E+04
 0.11400000E+02  0.19032E+04
 0.11449999E+02  0.19032E+04
 0.11499999E+02  0.19038E+04
 0.11549999E+02  0.19044E+04
 0.11599999E+02  0.19015E+04
 0.11650000E+02  0.19015E+04
 0.11699999E+02  0.18939E+04
 0.11749999E+02  0.18967E+04
 0.11799999E+02  0.18970E+04
 0.11849999E+02  0.19109E+04
 0.11900000E+02  0.18936E+04
 0.11949999E+02  0.19071E+04
 0.11999999E+02  0.19019E+04
 0.12049999E+02  0.19142E+04
 0.12099999E+02  0.18927E+04
 0.12150000E+02  0.19096E+04
 0.12199999E+02  0.18873E+04
 0.12249999E+02  0.19247E+04
 0.12299999E+02  0.19258E+04
 0.12349999E+02  0.19115E+04
 0.12400000E+02  0.17370E+04
 0.12449999E+02  0.14719E+04
 0.12499999E+02  0.15758E+04
 0.12549999E+02  0.16544E+04
 0.12599999E+02  0.22305E+04
 0.12649999E+02  0.24593E+04
 0.12699999E+02  0.27080E+04
 0.12749999E+02  0.24131E+04
 0.12799999E+02  0.16351E+04
 0.12849999E+02  0.66061E+03
 0.12899999E+02  0.14187E+04
 0.12949999E+02  0.24774E+04
 0.12999999E+02  0.14125E+04
 0.13049999E+02  0.10448E+04
 0.13099999E+02  0.27197E+04
 0.13149999E+02  0.26425E+04
 0.13199999E+02  0.11396E+04
 0.13249999E+02  0.73682E+02
 0.13299999E+02 -0.17893E+04
 0.13349999E+02  0.25480E+04
 0.13399999E+02  0.86816E+04
 0.13449999E+02  0.58208E+04
 0.13499999E+02 -0.29844E+04
 0.13549999E+02 -0.11233E+04
 0.13599999E+02  0.46833E+04
 0.13649999E+02  0.26463E+04
 0.13699999E+02  0.36966E+04
 0.13749999E+02  0.42416E+04
 0.13799999E+02 -0.22474E+04
 0.13849999E+02 -0.62879E+03
 0.13899999E+02  0.38129E+04
 0.13949999E+02  0.34050E+04
 0.13999999E+02  0.16829E+03
 0.14049999E+02  0.12086E+04
 0.14099998E+02  0.64386E+04
 0.14150000E+02  0.19854E+04
 0.14199999E+02 -0.17735E+04
 0.14249998E+02  0.27821E+04
 0.14299999E+02  0.55513E+04
 0.14349998E+02 -0.11314E+04
 0.14400000E+02 -0.19132E+04
 0.14449999E+02  0.36515E+04
 0.14499998E+02  0.39284E+04
 0.14549999E+02  0.19246E+04
 0.14599998E+02 -0.85459E+03
 0.14650000E+02  0.88087E+03
 0.14699999E+02  0.39802E+04
 0.14749998E+02  0.17538E+04
 0.14799999E+02  0.53325E+03
 0.14849998E+02  0.21473E+04
 0.14900000E+02  0.49689E+04
 0.14949999E+02  0.30960E+03
 0.14999998E+02 -0.16380E+03
 0.15049999E+02  0.30682E+04
 0.15099998E+02  0.23854E+04
 0.15150000E+02  0.20344E+04
 0.15199999E+02  0.45747E+03
 0.15249998E+02  0.30118E+04
 0.15299999E+02  0.32493E+04
 0.15349998E+02  0.32419E+04
 0.15400000E+02  0.38852E+04
 0.15449999E+02 -0.86346E+03
 0.15499998E+02 -0.23195E+02
 0.15549999E+02  0.17161E+04
 0.15599998E+02  0.14267E+04
 0.15650000E+02  0.38296E+04
 0.15699999E+02  0.25267E+04
 0.15749998E+02  0.17599E+03
 0.15799999E+02 -0.29416E+03
 0.15849998E+02  0.48360E+04
 0.15900000E+02  0.36156E+04
 0.15949999E+02  0.34092E+04
 0.15999998E+02  0.20160E+04
 0.16049999E+02 -0.69307E+03
 0.16099998E+02  0.18840E+04
 0.16150000E+02  0.20074E+04
 0.16199999E+02  0.54908E+04
 0.16249998E+02  0.24268E+04
 0.16299999E+02 -0.18484E+04
 0.16349998E+02  0.56833E+02
 0.16400000E+02  0.31014E+04
 0.16449999E+02  0.16159E+04
 0.16499998E+02  0.19914E+04
 0.16549999E+02  0.21607E+04
 0.16599998E+02 -0.72732E+03
 0.16650000E+02  0.13045E+04
 0.16699999E+02  0.96899E+03
 0.16749998E+02  0.39160E+04
 0.16799999E+02  0.38040E+04
 0.16849998E+02  0.15489E+04
 0.16900000E+02  0.20080E+04
 0.16949999E+02  0.18065E+04
 0.16999998E+02  0.36889E+04
 0.17049999E+02  0.16707E+04
 0.17099998E+02  0.33646E+01
 0.17150000E+02  0.31420E+04
 0.17199999E+02  0.11531E+04
 0.17249998E+02 -0.86646E+02
 0.17299999E+02  0.42104E+04
 0.17349998E+02  0.19353E+04
 0.17400000E+02  0.19386E+04
 0.17449999E+02  0.20412E+04
 0.17499998E+02  0.23623E+04
 0.17549999E+02  0.21817E+04
 0.17599998E+02  0.11937E+04
 0.17650000E+02  0.22513E+04
 0.17699999E+02  0.10840E+04
 0.17749998E+02  0.21165E+04
 0.17799999E+02  0.21675E+04
 0.17849998E+02  0.53240E+03
 0.17900000E+02  0.17594E+04
 0.17949999E+02  0.18956E+04
 0.17999998E+02  0.16674E+04
 0.18049999E+02  0.28128E+04
 0.18099998E+02  0.33756E+03
 0.18150000E+02  0.22072E+04
 0.18199999E+02  0.39866E+04
 0.18249998E+02  0.32528E+04
 0.18299999E+02  0.12534E+04
 0.18349998E+02  0.81981E+03
 0.18400000E+02  0.44624E+04
 0.18449999E+02  0.80730E+03
 0.18499998E+02  0.71487E+03
 0.18549999E+02  0.36739E+04
 0.18599998E+02  0.30737E+04
 0.18650000E+02  0.18069E+04
 0.18699999E+02  0.32532E+03
 0.18749998E+02  0.12656E+04
 0.18799999E+02  0.14798E+04
 0.18849998E+02  0.12042E+04
 0.18900000E+02  0.19882E+04
 0.18949999E+02  0.28972E+04
 0.18999998E+02  0.10884E+04
 0.19049999E+02 -0.11125E+04
 0.19099998E+02  0.16520E+04
 0.19150000E+02  0.49173E+04
 0.19199999E+02  0.28962E+04
 0.19249998E+02  0.20993E+04
 0.19299999E+02  0.27049E+04
 0.19349998E+02  0.12329E+04
 0.19400000E+02  0.16763E+04
 0.19449999E+02  0.19940E+04
 0.19499998E+02  0.33131E+04
 0.19549999E+02  0.37464E+04
 0.19599998E+02  0.21377E+03
 0.19650000E+02  0.14352E+04
 0.19699999E+02  0.25945E+04
 0.19749998E+02  0.16152E+04
 0.19799999E+02  0.12107E+04
 0.19849998E+02  0.55125E+03
 0.19900000E+02  0.18987E+04
 0.19949999E+02  0.15417E+04
 0.19999998E+02 -0.17460E+03
 0.20049999E+02  0.21932E+04
 0.20099998E+02  0.18014E+04
 0.20150000E+02  0.38731E+04
 0.20199999E+02  0.31498E+04
 0.20249998E+02  0.33829E+04
 0.20299999E+02  0.60590E+04
 0.20349998E+02 -0.24462E+04
 0.20399998E+02 -0.18045E+04
 0.20449999E+02 -0.33543E+04
 0.20499998E+02 -0.33746E+04
 0.20549999E+02  0.71500E+04
 0.20599998E+02  0.32245E+04
 0.20649998E+02  0.38855E+03
 0.20699999E+02  0.20566E+04
 0.20749998E+02 -0.18142E+04
 0.20799999E+02 -0.19282E+04
 0.20849998E+02 -0.15853E+04
 0.20899998E+02  0.30970E+04
 0.20949999E+02  0.17923E+05
 0.20999998E+02  0.15072E+05
 0.21049999E+02  0.18758E+04
 0.21099998E+02 -0.26732E+04
 0.21149998E+02 -0.57368E+04
 0.21199999E+02  0.53260E+04
 0.21249998E+02 -0.24753E+04
 0.21299999E+02  0.70684E+04
 0.21349998E+02  0.98927E+04
 0.21399998E+02  0.50841E+04
 0.21449999E+02 -0.13538E+04
 0.21499998E+02 -0.13906E+05
 0.21549999E+02  0.40560E+04
 0.21599998E+02 -0.53454E+04
 0.21649998E+02 -0.77538E+04
 0.21699999E+02  0.80040E+04
 0.21749998E+02  0.28119E+04
 0.21799999E+02 -0.44004E+04
 0.21849998E+02  0.24836E+04
 0.21899998E+02  0.30120E+04
 0.21949999E+02  0.62385E+04
 0.21999998E+02  0.82201E+04
 0.22049999E+02  0.14533E+05
 0.22099998E+02 -0.63980E+02
 0.22149998E+02 -0.61401E+04
 0.22199999E+02  0.54137E+04
 0.22249998E+02  0.16958E+04
 0.22299999E+02  0.43757E+04
 0.22349998E+02 -0.15329E+04
 0.22399998E+02  0.10484E+04
 0.22449999E+02 -0.13121E+04
 0.22499998E+02  0.37049E+04
 0.22549999E+02  0.22711E+04
 0.22599998E+02  0.82628E+03
 0.22649998E+02  0.78823E+04
 0.22699999E+02  0.23733E+04
 0.22749998E+02 -0.16410E+04
 0.22799999E+02 -0.58129E+04
 0.22849998E+02  0.17829E+04
 0.22899998E+02 -0.87418E+03
 0.22949999E+02  0.15756E+04
 0.22999998E+02  0.38751E+04
 0.23049999E+02  0.12892E+05
 0.23099998E+02  0.79263E+04
 0.23149998E+02 -0.42037E+04
 0.23199999E+02  0.69946E+03
 0.23249998E+02 -0.37375E+04
 0.23299999E+02 -0.10034E+04
 0.23349998E+02  0.98028E+03
 0.23399998E+02  0.42756E+04
 0.23449999E+02  0.31505E+04
 0.23499998E+02  0.27257E+04
 0.23549999E+02  0.33148E+04
 0.23599998E+02  0.46218E+04
 0.23649998E+02  0.37837E+04
 0.23699999E+02  0.28484E+04
 0.23749998E+02  0.37840E+04
 0.23799999E+02  0.19807E+04
 0.23849998E+02  0.30179E+04
 0.23899998E+02 -0.53506E+03
 0.23949999E+02 -0.42332E+04
 0.23999998E+02 -0.10607E+04
 0.24049999E+02  0.36836E+04
 0.24099998E+02  0.45384E+04
 0.24149998E+02 -0.97321E+02
 0.24199999E+02  0.29492E+04
 0.24249998E+02  0.31605E+04
 0.24299999E+02  0.11663E+04
 0.24349998E+02  0.91473E+03
 0.24399998E+02 -0.63401E+03
 0.24449999E+02  0.37341E+04
 0.24499998E+02  0.24018E+04
 0.24549999E+02  0.18041E+04
 0.24599998E+02  0.38908E+04
 0.24649998E+02  0.33260E+04
 0.24699999E+02  0.40534E+04
 0.24749998E+02  0.65898E+04
 0.24799999E+02  0.41041E+04
 0.24849998E+02  0.24329E+04
 0.24899998E+02  0.24406E+04
 0.24949999E+02  0.44552E+03
 0.24999998E+02 -0.35570E+04
 0.25049999E+02 -0.28559E+04
 0.25099998E+02  0.25869E+03
 0.25149998E+02  0.13088E+04
 0.25199999E+02  0.29488E+04
 0.25249998E+02  0.35879E+04
 0.25299999E+02  0.37994E+04
 0.25349998E+02  0.36183E+03
 0.25399998E+02  0.19732E+04
 0.25449999E+02  0.29142E+04
 0.25499998E+02  0.25205E+03
 0.25549999E+02  0.18705E+04
 0.25599998E+02  0.21434E+04
 0.25649998E+02  0.26460E+04
 0.25699999E+02  0.40291E+04
 0.25749998E+02  0.41494E+04
 0.25799999E+02  0.97691E+03
 0.25849998E+02  0.14499E+04
 0.25899998E+02  0.24346E+04
 0.25949999E+02  0.14150E+04
 0.25999998E+02  0.22669E+04
 0.26049999E+02  0.49269E+03
 0.26099998E+02  0.21855E+04
 0.26149998E+02  0.27050E+04
 0.26199999E+02  0.24719E+04
 0.26249998E+02  0.52318E+04
 0.26299999E+02  0.39955E+04
 0.26349998E+02  0.92266E+03
 0.26399998E+02  0.45820E+03
 0.26449999E+02  0.21573E+04
 0.26499998E+02  0.52040E+03
 0.26549999E+02 -0.12057E+04
 0.26599998E+02 -0.26263E+03
 0.26649998E+02  0.85256E+03
 0.26699999E+02  0.24472E+04
 0.26749998E+02  0.11312E+04
 0.26799999E+02 -0.34211E+02
 0.26849998E+02  0.17184E+04
 0.26899998E+02  0.53746E+04
 0.26949999E+02  0.39507E+04
 0.26999998E+02  0.10752E+04
 0.27049997E+02  0.59363E+03
 0.27099998E+02  0.10113E+03
 0.27149998E+02  0.36127E+04
 0.27199999E+02  0.24157E+04
 0.27249998E+02  0.30336E+04
 0.27299997E+02  0.35155E+04
 0.27349998E+02  0.11499E+04
 0.27399998E+02  0.23295E+04
 0.27449999E+02  0.26756E+04
 0.27499998E+02  0.29865E+04
 0.27549997E+02  0.13756E+04
 0.27599998E+02  0.96871E+02
 0.27649998E+02  0.94829E+03
 0.27699999E+02  0.22921E+04
 0.27749998E+02  0.25648E+04
 0.27799997E+02  0.16157E+04
 0.27849998E+02  0.39421E+04
 0.27899998E+02  0.30866E+04
 0.27949999E+02  0.20216E+04
 0.27999998E+02  0.20404E+04
 0.28049997E+02  0.73006E+03
 0.28099998E+02  0.16129E+04
 0.28149998E+02  0.12902E+04
 0.28199999E+02  0.17224E+04
 0.28249998E+02  0.18139E+04
 0.28299997E+02  0.39253E+04
 0.28349998E+02  0.28232E+04
 0.28399998E+02  0.47889E+03
 0.28449999E+02  0.12797E+04
 0.28499998E+02  0.85074E+03
 0.28549997E+02  0.23674E+04
 0.28599998E+02  0.24500E+03
 0.28649998E+02  0.39172E+03
 0.28699999E+02  0.10411E+04
 0.28749998E+02  0.21213E+03
 0.28799997E+02  0.16129E+04
 0.28849998E+02  0.13240E+04
 0.28899998E+02  0.20559E+04
 0.28949999E+02  0.27854E+03
 0.28999998E+02  0.12136E+04
 0.29049997E+02  0.13372E+04
 0.29099998E+02  0.24753E+04
 0.29149998E+02  0.14276E+04
 0.29199999E+02  0.19427E+03
 0.29249998E+02  0.31268E+04
 0.29299997E+02  0.20754E+04
 0.29349998E+02  0.27154E+04
 0.29399998E+02  0.19138E+04
 0.29449999E+02  0.17966E+04
 0.29499998E+02  0.29382E+04
 0.29549997E+02  0.21639E+04
 0.29599998E+02  0.20645E+04
 0.29649998E+02  0.12680E+04
 0.29699999E+02  0.25865E+04
 0.29749998E+02  0.39154E+04
 0.29799997E+02  0.27059E+04
 0.29849998E+02  0.27169E+04
 0.29899998E+02  0.15713E+04
 0.29949999E+02  0.42214E+03
 0.29999998E+02  0.22770E+04
 0.30049999E+02  0.25065E+04
 0.30099998E+02  0.12605E+04
 0.30149998E+02  0.13046E+04
 0.30199997E+02  0.19755E+04
 0.30249996E+02  0.25062E+04
 0.30299999E+02  0.24909E+04
 0.30349998E+02  0.23892E+04
 0.30399998E+02  0.21030E+04
 0.30449997E+02  0.14479E+04
 0.30499996E+02  0.14525E+04
 0.30549999E+02  0.18505E+04
 0.30599998E+02  0.23149E+04
 0.30649998E+02  0.11203E+04
 0.30699997E+02  0.10538E+04
 0.30749996E+02  0.20169E+04
 0.30799999E+02  0.16049E+04
 0.30849998E+02  0.15347E+04
 0.30899998E+02  0.17559E+04
 0.30949997E+02  0.19829E+04
 0.30999996E+02  0.17917E+04
 0.31049999E+02  0.24202E+04
 0.31099998E+02  0.27748E+04
 0.31149998E+02  0.25009E+04
 0.31199997E+02  0.25191E+04
 0.31249996E+02  0.30333E+04
 0.31299999E+02  0.25388E+04
 0.31349998E+02  0.20335E+04
 0.31399998E+02  0.17835E+04
 0.31449997E+02  0.19333E+04
 0.31499996E+02  0.91084E+03
 0.31549999E+02  0.10729E+04
 0.31599998E+02  0.15816E+04
 0.31649998E+02  0.13235E+04
 0.31699997E+02  0.13181E+04
 0.31749996E+02  0.43479E+03
 0.31799999E+02  0.36280E+03
 0.31849998E+02  0.12220E+04
 0.31899998E+02  0.17219E+04
 0.31949997E+02  0.15567E+04
 0.31999996E+02  0.25486E+04
 0.32049999E+02  0.25102E+04
 0.32099998E+02  0.22431E+04
 0.32149998E+02  0.18636E+04
 0.32199997E+02  0.17151E+04
 0.32249996E+02  0.24116E+04
 0.32299999E+02  0.18789E+04
 0.32349998E+02  0.18747E+04
 0.32399998E+02  0.31189E+04
 0.32449997E+02  0.24828E+04
 0.32499996E+02  0.23156E+04
 0.32549999E+02  0.21625E+04
 0.32599998E+02  0.20258E+04
 0.32649998E+02  0.25308E+04
 0.32699997E+02  0.17150E+04
 0.32749996E+02  0.16842E+04
 0.32799999E+02  0.11198E+04
 0.32849998E+02  0.19845E+04
 0.32899998E+02  0.22581E+04
 0.32949997E+02  0.11077E+04
 0.32999996E+02  0.23539E+04
 0.33049999E+02  0.25139E+04
 0.33099998E+02  0.23984E+04
 0.33149998E+02  0.33320E+04
 0.33199997E+02  0.26634E+04
 0.33249996E+02  0.27961E+04
 0.33299999E+02  0.30936E+04
 0.33349998E+02  0.23186E+04
 0.33399998E+02  0.30729E+04
 0.33449997E+02  0.35801E+04
 0.33499996E+02  0.31401E+04
 0.33549999E+02  0.19433E+04
 0.33599998E+02  0.81375E+03
 0.33649998E+02  0.48736E+03
 0.33699997E+02  0.11542E+04
 0.33749996E+02  0.98263E+03
 0.33799999E+02  0.11949E+04
 0.33849998E+02  0.20995E+04
 0.33899998E+02  0.14354E+04
 0.33949997E+02  0.11336E+04
 0.33999996E+02  0.42514E+03
 0.34049999E+02  0.29275E+02
 0.34099998E+02  0.84453E+03
 0.34149998E+02  0.13230E+04
 0.34199997E+02  0.14200E+03
 0.34249996E+02  0.61713E+03
 0.34299999E+02  0.12466E+04
 0.34349998E+02  0.96060E+03
 0.34399998E+02  0.15829E+04
 0.34449997E+02  0.21178E+04
 0.34499996E+02  0.32036E+04
 0.34549999E+02  0.27351E+04
 0.34599998E+02  0.23446E+04
 0.34649998E+02  0.21797E+04
 0.34699997E+02  0.21007E+04
 0.34749996E+02  0.24599E+04
 0.34799999E+02  0.27094E+04
 0.34849998E+02  0.33815E+04
 0.34899998E+02  0.35452E+04
 0.34949997E+02  0.23433E+04
 0.34999996E+02  0.27493E+04
 0.35049999E+02  0.29543E+04
 0.35099998E+02  0.24075E+04
 0.35149998E+02  0.19042E+04
 0.35199997E+02  0.12469E+04
 0.35249996E+02  0.18187E+04
 0.35299999E+02  0.16787E+04
 0.35349998E+02  0.18148E+04
 0.35399998E+02  0.12025E+04
 0.35449997E+02  0.10345E+04
 0.35499996E+02  0.12378E+04
 0.35549999E+02  0.17789E+04
 0.35599998E+02  0.20692E+04
 0.35649998E+02  0.18423E+04
 0.35699997E+02  0.23815E+04
 0.35749996E+02  0.25765E+04
 0.35799999E+02  0.24635E+04
 0.35849998E+02  0.21870E+04
 0.35899998E+02  0.21573E+04
 0.35949997E+02  0.25660E+04
 0.35999996E+02  0.26533E+04
 0.36049999E+02  0.23897E+04
 0.36099998E+02  0.23122E+04
 0.36149998E+02  0.21715E+04
 0.36199997E+02  0.21224E+04
 0.36249996E+02  0.18190E+04
 0.36299999E+02  0.16681E+04
 0.36349998E+02  0.12848E+04
 0.36399998E+02  0.66296E+03
 0.36449997E+02  0.86141E+03
 0.36499996E+02  0.88534E+03
 0.36549999E+02  0.94097E+03
 0.36599998E+02  0.16906E+04
 0.36649998E+02  0.15740E+04
 0.36699997E+02  0.19803E+04
 0.36749996E+02  0.18299E+04
 0.36799999E+02  0.14470E+04
 0.36849998E+02  0.21919E+04
 0.36899998E+02  0.24733E+04
 0.36949997E+02  0.28583E+04
 0.36999996E+02  0.21789E+04
 0.37049999E+02  0.15128E+04
 0.37099998E+02  0.12713E+04
 0.37149998E+02  0.15047E+04
 0.37199997E+02  0.20851E+04
 0.37249996E+02  0.16999E+04
 0.37299999E+02  0.21319E+04
 0.37349998E+02  0.19965E+04
 0.37399998E+02  0.16401E+04
 0.37449997E+02  0.18076E+04
 0.37499996E+02  0.14480E+04
 0.37549999E+02  0.16846E+04
 0.37599998E+02  0.16829E+04
 0.37649998E+02  0.18977E+04
 0.37699997E+02  0.21462E+04
 0.37749996E+02  0.20790E+04
 0.37799999E+02  0.15408E+04
 0.37849998E+02  0.16929E+04
 0.37899998E+02  0.21513E+04
 0.37949997E+02  0.24086E+04
 0.37999996E+02  0.24910E+04
 0.38049999E+02  0.25837E+04
 0.38099998E+02  0.29361E+04
 0.38149998E+02  0.23962E+04
 0.38199997E+02  0.15441E+04
 0.38249996E+02  0.16462E+04
 0.38299999E+02  0.18059E+04
 0.38349998E+02  0.17176E+04
 0.38399998E+02  0.22379E+04
 0.38449997E+02  0.18435E+04
 0.38499996E+02  0.20279E+04
 0.38549999E+02  0.25365E+04
 0.38599998E+02  0.29744E+04
 0.38649998E+02  0.25854E+04
 0.38699997E+02  0.23679E+04
 0.38749996E+02  0.22889E+04
 0.38799999E+02  0.14469E+04
 0.38849998E+02  0.10295E+04
 0.38899998E+02  0.10122E+04
 0.38949997E+02  0.12235E+04
 0.38999996E+02  0.74780E+03
 0.39049999E+02  0.10425E+04
 0.39099998E+02  0.14914E+04
 0.39149998E+02  0.16834E+04
 0.39199997E+02  0.18345E+04
 0.39249996E+02  0.17408E+04
 0.39299999E+02  0.19837E+04
 0.39349998E+02  0.19651E+04
 0.39399998E+02  0.16971E+04
 0.39449997E+02  0.21495E+04
 0.39499996E+02  0.23749E+04
 0.39549999E+02  0.23530E+04
 0.39599998E+02  0.25736E+04
 0.39649998E+02  0.29008E+04
 0.39699997E+02  0.25525E+04
 0.39749996E+02  0.21333E+04
 0.39799999E+02  0.22370E+04
 0.39849998E+02  0.16512E+04
 0.39899998E+02  0.17925E+04
 0.39949997E+02  0.18233E+04
 0.39999996E+02  0.15738E+04
 0.40049999E+02  0.22123E+04
 0.40099998E+02  0.21095E+04
 0.40149998E+02  0.17547E+04
 0.40199997E+02  0.16630E+04
 0.40249996E+02  0.12750E+04
 0.40299999E+02  0.12799E+04
 0.40349998E+02  0.15139E+04
 0.40399998E+02  0.12826E+04
 0.40449997E+02  0.99291E+03
 0.40499996E+02  0.13189E+04
 0.40549999E+02  0.14074E+04
 0.40599998E+02  0.16462E+04
 0.40649998E+02  0.15223E+04
 0.40699997E+02  0.14981E+04
 0.40749996E+02  0.18257E+04
 0.40799999E+02  0.17720E+04
 0.40849998E+02  0.19611E+04
 0.40899998E+02  0.24733E+04
 0.40949997E+02  0.26409E+04
 0.40999996E+02  0.22518E+04
 0.41049999E+02  0.21288E+04
 0.41099998E+02  0.25061E+04
 0.41149998E+02  0.26480E+04
 0.41199997E+02  0.24151E+04
 0.41249996E+02  0.28342E+04
 0.41299999E+02  0.26048E+04
 0.41349998E+02  0.23250E+04
 0.41399998E+02  0.22378E+04
 0.41449997E+02  0.26439E+04
 0.41499996E+02  0.26890E+04
 0.41549999E+02  0.21235E+04
 0.41599998E+02  0.19213E+04
 0.41649998E+02  0.19105E+04
 0.41699997E+02  0.18932E+04
 0.41749996E+02  0.12354E+04
 0.41799999E+02  0.11756E+04
 0.41849998E+02  0.12508E+04
 0.41899998E+02  0.14611E+04
 0.41949997E+02  0.16608E+04
 0.41999996E+02  0.14166E+04
 0.42049999E+02  0.15532E+04
 0.42099998E+02  0.20011E+04
 0.42149998E+02  0.18851E+04
 0.42199997E+02  0.17143E+04
 0.42249996E+02  0.17090E+04
 0.42299999E+02  0.15979E+04
 0.42349998E+02  0.19659E+04
 0.42399998E+02  0.19964E+04
 0.42449997E+02  0.14548E+04
 0.42499996E+02  0.14681E+04
 0.42549999E+02  0.18836E+04
 0.42599998E+02  0.17578E+04
 0.42649998E+02  0.15974E+04
 0.42699997E+02  0.19150E+04
 0.42749996E+02  0.18060E+04
 0.42799995E+02  0.15717E+04
 0.42849998E+02  0.15352E+04
 0.42899998E+02  0.16705E+04
 0.42949997E+02  0.19974E+04
 0.42999996E+02  0.20842E+04
 0.43049995E+02  0.21064E+04
 0.43099998E+02  0.20010E+04
 0.43149998E+02  0.19522E+04
 0.43199997E+02  0.18654E+04
 0.43249996E+02  0.15331E+04
 0.43299995E+02  0.14736E+04
 0.43349998E+02  0.14495E+04
 0.43399998E+02  0.17934E+04
 0.43449997E+02  0.24106E+04
 0.43499996E+02  0.29328E+04
 0.43549995E+02  0.25460E+04
 0.43599998E+02  0.18818E+04
 0.43649998E+02  0.18989E+04
 0.43699997E+02  0.21005E+04
 0.43749996E+02  0.25602E+04
 0.43799995E+02  0.24855E+04
 0.43849998E+02  0.21373E+04
 0.43899998E+02  0.20517E+04
 0.43949997E+02  0.24034E+04
 0.43999996E+02  0.22860E+04
 0.44049995E+02  0.20891E+04
 0.44099998E+02  0.21640E+04
 0.44149998E+02  0.21779E+04
 0.44199997E+02  0.21747E+04
 0.44249996E+02  0.17815E+04
 0.44299995E+02  0.16661E+04
 0.44349998E+02  0.15702E+04
 0.44399998E+02  0.11776E+04
 0.44449997E+02  0.11554E+04
 0.44499996E+02  0.12006E+04
 0.44549995E+02  0.12722E+04
 0.44599998E+02  0.15047E+04
 0.44649998E+02  0.16426E+04
 0.44699997E+02  0.19369E+04
 0.44749996E+02  0.19291E+04
 0.44799995E+02  0.19597E+04
 0.44849998E+02  0.19849E+04
 0.44899998E+02  0.19318E+04
 0.44949997E+02  0.19662E+04
 0.44999996E+02  0.21209E+04
 0.45049995E+02  0.21430E+04
 0.45099998E+02  0.18932E+04
 0.45149998E+02  0.20721E+04
 0.45199997E+02  0.23025E+04
 0.45249996E+02  0.23444E+04
 0.45299995E+02  0.23503E+04
 0.45349998E+02  0.23157E+04
 0.45399998E+02  0.22045E+04
 0.45449997E+02  0.19959E+04
 0.45499996E+02  0.16711E+04
 0.45549995E+02  0.17967E+04
 0.45599998E+02  0.19100E+04
 0.45649998E+02  0.18113E+04
 0.45699997E+02  0.19511E+04
 0.45749996E+02  0.19476E+04
 0.45799995E+02  0.18706E+04
 0.45849998E+02  0.20142E+04
 0.45899998E+02  0.20856E+04
 0.45949997E+02  0.18964E+04
 0.45999996E+02  0.18166E+04
 0.46049995E+02  0.18006E+04
 0.46099998E+02  0.15580E+04
 0.46149998E+02  0.15044E+04
 0.46199997E+02  0.17087E+04
 0.46249996E+02  0.16804E+04
 0.46299995E+02  0.14547E+04
 0.46349998E+02  0.14424E+04
 0.46399998E+02  0.18671E+04
 0.46449997E+02  0.20870E+04
 0.46499996E+02  0.19959E+04
 0.46549995E+02  0.17608E+04
 0.46599998E+02  0.17906E+04
 0.46649998E+02  0.19087E+04
 0.46699997E+02  0.15999E+04
 0.46749996E+02  0.15701E+04
 0.46799995E+02  0.17596E+04
 0.46849998E+02  0.16853E+04
 0.46899998E+02  0.16789E+04
 0.46949997E+02  0.16389E+04
 0.46999996E+02  0.18576E+04
 0.47049995E+02  0.21437E+04
 0.47099998E+02  0.20461E+04
 0.47149998E+02  0.19335E+04
 0.47199997E+02  0.17916E+04
 0.47249996E+02  0.18460E+04
 0.47299995E+02  0.18855E+04
 0.47349998E+02  0.16951E+04
 0.47399998E+02  0.16396E+04
 0.47449997E+02  0.19021E+04
 0.47499996E+02  0.22808E+04
 0.47549995E+02  0.24673E+04
 0.47599998E+02  0.24460E+04
 0.47649998E+02  0.23213E+04
 0.47699997E+02  0.22923E+04
 0.47749996E+02  0.22066E+04
 0.47799995E+02  0.24118E+04
 0.47849998E+02  0.27679E+04
 0.47899998E+02  0.24325E+04
 0.47949997E+02  0.23296E+04
 0.47999996E+02  0.23154E+04
 0.48049995E+02  0.19556E+04
 0.48099998E+02  0.19890E+04
 0.48149998E+02  0.21058E+04
 0.48199997E+02  0.20300E+04
 0.48249996E+02  0.19820E+04
 0.48299995E+02  0.19172E+04
 0.48349998E+02  0.17979E+04
 0.48399998E+02  0.16208E+04
 0.48449997E+02  0.14631E+04
 0.48499996E+02  0.16128E+04
 0.48549995E+02  0.18174E+04
 0.48599998E+02  0.17252E+04
 0.48649998E+02  0.16727E+04
 0.48699997E+02  0.17542E+04
 0.48749996E+02  0.16397E+04
 0.48799995E+02  0.15642E+04
 0.48849998E+02  0.15613E+04
 0.48899998E+02  0.15934E+04
 0.48949997E+02  0.15266E+04
 0.48999996E+02  0.14231E+04
 0.49049995E+02  0.15214E+04
 0.49099998E+02  0.16252E+04
 0.49149998E+02  0.16895E+04
 0.49199997E+02  0.16320E+04
 0.49249996E+02  0.16464E+04
 0.49299995E+02  0.18399E+04
 0.49349998E+02  0.19483E+04
 0.49399998E+02  0.19872E+04
 0.49449997E+02  0.21684E+04
 0.49499996E+02  0.20129E+04
 0.49549995E+02  0.17387E+04
 0.49599998E+02  0.19696E+04
 0.49649998E+02  0.19576E+04
 0.49699997E+02  0.19132E+04
 0.49749996E+02  0.19346E+04
 0.49799995E+02  0.18913E+04
 0.49849998E+02  0.19875E+04
 0.49899998E+02  0.19676E+04
 0.49949997E+02  0.19988E+04
 0.49999996E+02  0.20697E+04
 0.50049995E+02  0.18797E+04
 0.50099998E+02  0.19142E+04
 0.50149998E+02  0.21584E+04
 0.50199997E+02  0.21185E+04
 0.50249996E+02  0.21591E+04
 0.50299995E+02  0.21632E+04
 0.50349998E+02  0.21022E+04
 0.50399998E+02  0.19731E+04
 0.50449997E+02  0.20150E+04
 0.50499996E+02  0.21344E+04
 0.50549995E+02  0.19757E+04
 0.50599998E+02  0.17406E+04
 0.50649998E+02  0.17985E+04
 0.50699997E+02  0.17350E+04
 0.50749996E+02  0.17486E+04
 0.50799995E+02  0.20543E+04
 0.50849998E+02  0.20500E+04
 0.50899998E+02  0.20157E+04
 0.50949997E+02  0.19994E+04
 0.50999996E+02  0.18986E+04
 0.51049995E+02  0.19564E+04
 0.51099998E+02  0.19842E+04
 0.51149998E+02  0.19690E+04
 0.51199997E+02  0.19615E+04
 0.51249996E+02  0.18537E+04
 0.51299995E+02  0.19251E+04
 0.51349998E+02  0.18140E+04
 0.51399998E+02  0.18334E+04
 0.51449997E+02  0.18693E+04
 0.51499996E+02  0.15053E+04
 0.51549995E+02  0.14840E+04
 0.51599998E+02  0.15693E+04
 0.51649998E+02  0.16900E+04
 0.51699997E+02  0.18229E+04
 0.51749996E+02  0.18128E+04
 0.51799995E+02  0.19196E+04
 0.51849998E+02  0.20650E+04
 0.51899998E+02  0.20810E+04
 0.51949997E+02  0.20480E+04
 0.51999996E+02  0.21884E+04
 0.52049995E+02  0.20076E+04
 0.52099998E+02  0.18336E+04
 0.52149998E+02  0.19361E+04
 0.52199997E+02  0.18110E+04
 0.52249996E+02  0.16572E+04
 0.52299995E+02  0.16861E+04
 0.52349998E+02  0.18386E+04
 0.52399998E+02  0.18993E+04
 0.52449997E+02  0.18021E+04
 0.52499996E+02  0.18472E+04
 0.52549995E+02  0.20500E+04
 0.52599998E+02  0.20864E+04
 0.52649998E+02  0.18838E+04
 0.52699997E+02  0.19565E+04
 0.52749996E+02  0.19796E+04
 0.52799995E+02  0.19098E+04
 0.52849998E+02  0.20818E+04
 0.52899998E+02  0.20804E+04
 0.52949997E+02  0.21266E+04
 0.52999996E+02  0.22230E+04
 0.53049995E+02  0.22933E+04
 0.53099998E+02  0.21496E+04
 0.53149998E+02  0.20885E+04
 0.53199997E+02  0.21696E+04
 0.53249996E+02  0.19527E+04
 0.53299995E+02  0.18783E+04
 0.53349998E+02  0.18249E+04
 0.53399998E+02  0.17082E+04
 0.53449997E+02  0.16854E+04
 0.53499996E+02  0.17719E+04
 0.53549995E+02  0.18655E+04
 0.53599998E+02  0.16407E+04
 0.53649998E+02  0.16573E+04
 0.53699997E+02  0.18178E+04
 0.53749996E+02  0.19034E+04
 0.53799995E+02  0.19366E+04
 0.53849998E+02  0.16431E+04
 0.53899998E+02  0.15503E+04
 0.53949997E+02  0.15636E+04
 0.53999996E+02  0.15809E+04
 0.54049995E+02  0.17136E+04
 0.54099998E+02  0.18122E+04
 0.54149998E+02  0.19289E+04
 0.54199997E+02  0.20628E+04
 0.54249996E+02  0.19653E+04
 0.54299995E+02  0.19344E+04
 0.54349998E+02  0.20504E+04
 0.54399998E+02  0.21428E+04
 0.54449997E+02  0.21374E+04
 0.54499996E+02  0.21222E+04
 0.54549995E+02  0.22421E+04
 0.54599998E+02  0.20989E+04
 0.54649998E+02  0.19318E+04
 0.54699997E+02  0.18700E+04
 0.54749996E+02  0.18567E+04
 0.54799995E+02  0.18273E+04
 0.54849998E+02  0.18223E+04
 0.54899998E+02  0.17861E+04
 0.54949997E+02  0.18183E+04
 0.54999996E+02  0.17631E+04
 0.55049995E+02  0.16321E+04
 0.55099998E+02  0.16458E+04
 0.55149998E+02  0.17672E+04
 0.55199997E+02  0.20100E+04
 0.55249996E+02  0.19767E+04
 0.55299995E+02  0.19192E+04
 0.55349998E+02  0.21100E+04
 0.55399998E+02  0.21948E+04
 0.55449997E+02  0.20473E+04
 0.55499996E+02  0.18809E+04
 0.55549995E+02  0.17571E+04
 0.55599998E+02  0.16210E+04
 0.55649998E+02  0.15067E+04
 0.55699997E+02  0.15219E+04
 0.55749996E+02  0.18464E+04
 0.55799995E+02  0.20958E+04
 0.55849995E+02  0.22575E+04
 0.55899998E+02  0.23547E+04
 0.55949997E+02  0.21999E+04
 0.55999996E+02  0.20799E+04
 0.56049995E+02  0.20439E+04
 0.56099995E+02  0.20452E+04
 0.56149998E+02  0.20426E+04
 0.56199997E+02  0.19850E+04
 0.56249996E+02  0.19814E+04
 0.56299995E+02  0.20912E+04
 0.56349995E+02  0.19877E+04
 0.56399998E+02  0.19017E+04
 0.56449997E+02  0.18073E+04
 0.56499996E+02  0.16712E+04
 0.56549995E+02  0.16244E+04
 0.56599995E+02  0.16439E+04
 0.56649998E+02  0.17440E+04
 0.56699997E+02  0.18198E+04
 0.56749996E+02  0.19048E+04
 0.56799995E+02  0.18901E+04
 0.56849995E+02  0.19507E+04
 0.56899998E+02  0.20202E+04
 0.56949997E+02  0.20264E+04
 0.56999996E+02  0.19656E+04
 0.57049995E+02  0.21414E+04
 0.57099995E+02  0.23340E+04
 0.57149998E+02  0.22104E+04
 0.57199997E+02  0.20571E+04
 0.57249996E+02  0.18699E+04
 0.57299995E+02  0.18243E+04
 0.57349995E+02  0.18433E+04
 0.57399998E+02  0.18430E+04
 0.57449997E+02  0.17220E+04
 0.57499996E+02  0.16198E+04
 0.57549995E+02  0.15883E+04
 0.57599995E+02  0.15211E+04
 0.57649998E+02  0.15089E+04
 0.57699997E+02  0.16186E+04
 0.57749996E+02  0.17293E+04
 0.57799995E+02  0.18382E+04
 0.57849995E+02  0.19562E+04
 0.57899998E+02  0.19847E+04
 0.57949997E+02  0.21355E+04
 0.57999996E+02  0.21447E+04
 0.58049995E+02  0.21359E+04
 0.58099995E+02  0.20607E+04
 0.58149998E+02  0.19374E+04
 0.58199997E+02  0.19210E+04
 0.58249996E+02  0.18847E+04
 0.58299995E+02  0.19441E+04
 0.58349995E+02  0.19598E+04
 0.58399998E+02  0.18926E+04
 0.58449997E+02  0.18303E+04
 0.58499996E+02  0.18635E+04
 0.58549995E+02  0.18225E+04
 0.58599995E+02  0.18622E+04
 0.58649998E+02  0.19840E+04
 0.58699997E+02  0.19374E+04
 0.58749996E+02  0.18886E+04
 0.58799995E+02  0.19084E+04
 0.58849995E+02  0.18765E+04
 0.58899998E+02  0.18296E+04
 0.58949997E+02  0.17232E+04
 0.58999996E+02  0.16415E+04
 0.59049995E+02  0.16195E+04
 0.59099995E+02  0.16565E+04
 0.59149998E+02  0.17379E+04
 0.59199997E+02  0.17134E+04
 0.59249996E+02  0.17650E+04
 0.59299995E+02  0.19016E+04
 0.59349995E+02  0.19806E+04
 0.59399998E+02  0.20257E+04
 0.59449997E+02  0.20280E+04
 0.59499996E+02  0.19842E+04
 0.59549995E+02  0.19282E+04
 0.59599995E+02  0.18895E+04
 0.59649998E+02  0.18634E+04
 0.59699997E+02  0.18088E+04
 0.59749996E+02  0.18156E+04
 0.59799995E+02  0.19765E+04
 0.59849995E+02  0.21021E+04
 0.59899998E+02  0.21343E+04
 0.59949997E+02  0.21488E+04
 0.59999996E+02  0.20504E+04
 0.60049995E+02  0.20665E+04
 0.60099995E+02  0.21581E+04
 0.60149998E+02  0.21854E+04
 0.60199997E+02  0.21267E+04
 0.60249996E+02  0.20262E+04
 0.60299995E+02  0.20086E+04
 0.60349995E+02  0.19792E+04
 0.60399998E+02  0.19522E+04
 0.60449997E+02  0.19841E+04
 0.60499996E+02  0.19604E+04
 0.60549995E+02  0.20191E+04
 0.60599995E+02  0.20659E+04
 0.60649998E+02  0.20723E+04
 0.60699997E+02  0.21457E+04
 0.60749996E+02  0.20396E+04
 0.60799995E+02  0.18947E+04
 0.60849995E+02  0.18167E+04
 0.60899998E+02  0.17737E+04
 0.60949997E+02  0.16371E+04
 0.60999996E+02  0.14542E+04
 0.61049995E+02  0.14203E+04
 0.61099995E+02  0.14013E+04
 0.61149998E+02  0.13362E+04
 0.61199997E+02  0.14621E+04
 0.61249996E+02  0.16425E+04
 0.61299995E+02  0.18415E+04
 0.61349995E+02  0.19712E+04
 0.61399998E+02  0.20394E+04
 0.61449997E+02  0.21582E+04
 0.61499996E+02  0.21622E+04
 0.61549995E+02  0.21450E+04
 0.61599995E+02  0.20807E+04
 0.61649998E+02  0.20496E+04
 0.61699997E+02  0.20019E+04
 0.61749996E+02  0.19370E+04
 0.61799995E+02  0.18827E+04
 0.61849995E+02  0.18907E+04
 0.61899998E+02  0.18432E+04
 0.61949997E+02  0.17592E+04
 0.61999996E+02  0.17533E+04
 0.62049995E+02  0.18131E+04
 0.62099998E+02  0.18290E+04
 0.62149994E+02  0.17386E+04
 0.62199997E+02  0.17493E+04
 0.62249992E+02  0.17633E+04
 0.62299995E+02  0.19057E+04
 0.62349998E+02  0.20662E+04
 0.62399994E+02  0.21455E+04
 0.62449997E+02  0.21926E+04
 0.62499992E+02  0.21486E+04
 0.62549995E+02  0.20238E+04
 0.62599998E+02  0.18753E+04
 0.62649994E+02  0.17759E+04
 0.62699997E+02  0.17834E+04
 0.62749992E+02  0.18667E+04
 0.62799995E+02  0.18149E+04
 0.62849998E+02  0.17314E+04
 0.62899994E+02  0.17459E+04
 0.62949997E+02  0.17912E+04
 0.62999992E+02  0.18406E+04
 0.63049995E+02  0.18548E+04
 0.63099998E+02  0.19345E+04
 0.63149994E+02  0.20380E+04
 0.63199997E+02  0.20760E+04
 0.63249992E+02  0.21193E+04
 0.63299995E+02  0.20595E+04
 0.63349998E+02  0.19221E+04
 0.63399994E+02  0.18741E+04
 0.63449997E+02  0.19612E+04
 0.63499992E+02  0.19490E+04
 0.63549995E+02  0.18792E+04
 0.63599998E+02  0.18616E+04
 0.63649994E+02  0.18992E+04
 0.63699997E+02  0.19774E+04
 0.63749992E+02  0.19777E+04
 0.63799995E+02  0.19690E+04
 0.63849998E+02  0.19635E+04
 0.63899994E+02  0.19895E+04
 0.63949997E+02  0.19765E+04
 0.63999992E+02  0.19693E+04
 0.64049995E+02  0.20098E+04
 0.64099998E+02  0.20288E+04
 0.64149994E+02  0.20455E+04
 0.64199997E+02  0.20273E+04
 0.64249992E+02  0.18940E+04
 0.64299995E+02  0.18205E+04
 0.64349998E+02  0.18229E+04
 0.64399994E+02  0.18890E+04
 0.64449997E+02  0.19322E+04
 0.64499992E+02  0.18242E+04
 0.64549995E+02  0.17919E+04
 0.64599998E+02  0.17842E+04
 0.64649994E+02  0.18355E+04
 0.64699997E+02  0.18323E+04
 0.64749992E+02  0.17681E+04
 0.64799995E+02  0.17226E+04
 0.64849998E+02  0.17646E+04
 0.64899994E+02  0.18341E+04
 0.64949997E+02  0.18123E+04
 0.64999992E+02  0.18480E+04
 0.65049995E+02  0.19204E+04
 0.65099998E+02  0.20650E+04
 0.65149994E+02  0.21154E+04
 0.65199997E+02  0.20636E+04
 0.65249992E+02  0.20190E+04
 0.65299995E+02  0.19562E+04
 0.65349998E+02  0.19068E+04
 0.65399994E+02  0.19150E+04
 0.65449997E+02  0.19729E+04
 0.65499992E+02  0.19896E+04
 0.65549995E+02  0.20335E+04
 0.65599998E+02  0.19942E+04
 0.65649994E+02  0.19851E+04
 0.65699997E+02  0.20867E+04
 0.65749992E+02  0.20707E+04
 0.65799995E+02  0.19655E+04
 0.65849998E+02  0.18708E+04
 0.65899994E+02  0.18322E+04
 0.65949997E+02  0.18289E+04
 0.65999992E+02  0.18386E+04
 0.66049995E+02  0.18039E+04
 0.66099998E+02  0.17462E+04
 0.66149994E+02  0.17284E+04
 0.66199997E+02  0.18078E+04
 0.66249992E+02  0.18877E+04
 0.66299995E+02  0.19382E+04
 0.66349998E+02  0.19414E+04
 0.66399994E+02  0.18489E+04
 0.66449997E+02  0.17618E+04
 0.66499992E+02  0.16906E+04
 0.66549995E+02  0.16584E+04
 0.66599998E+02  0.17137E+04
 0.66649994E+02  0.17243E+04
 0.66699997E+02  0.17300E+04
 0.66749992E+02  0.17664E+04
 0.66799995E+02  0.18006E+04
 0.66849998E+02  0.19054E+04
 0.66899994E+02  0.19865E+04
 0.66949997E+02  0.20245E+04
 0.66999992E+02  0.20663E+04
 0.67049995E+02  0.21026E+04
 0.67099998E+02  0.20821E+04
 0.67149994E+02  0.20735E+04
 0.67199997E+02  0.20853E+04
 0.67249992E+02  0.20497E+04
 0.67299995E+02  0.19806E+04
 0.67349998E+02  0.18633E+04
 0.67399994E+02  0.18180E+04
 0.67449997E+02  0.18833E+04
 0.67499992E+02  0.18564E+04
 0.67549995E+02  0.18313E+04
 0.67599998E+02  0.17579E+04
 0.67649994E+02  0.16134E+04
 0.67699997E+02  0.16452E+04
 0.67749992E+02  0.17608E+04
 0.67799995E+02  0.18293E+04
 0.67849998E+02  0.18591E+04
 0.67899994E+02  0.18588E+04
 0.67949997E+02  0.18847E+04
 0.67999992E+02  0.19528E+04
 0.68049995E+02  0.20333E+04
 0.68099998E+02  0.21179E+04
 0.68149994E+02  0.21245E+04
 0.68199997E+02  0.21165E+04
 0.68249992E+02  0.20660E+04
 0.68299995E+02  0.19907E+04
 0.68349998E+02  0.19373E+04
 0.68399994E+02  0.19086E+04
 0.68449997E+02  0.19079E+04
 0.68499992E+02  0.19569E+04
 0.68549995E+02  0.19977E+04
 0.68599998E+02  0.19308E+04
 0.68649994E+02  0.18618E+04
 0.68699997E+02  0.17830E+04
 0.68749992E+02  0.18076E+04
 0.68799995E+02  0.18655E+04
 0.68849998E+02  0.18427E+04
 0.68899994E+02  0.17757E+04
 0.68949997E+02  0.17530E+04
 0.68999992E+02  0.18103E+04
 0.69049995E+02  0.18401E+04
 0.69099998E+02  0.18478E+04
 0.69149994E+02  0.18749E+04
 0.69199997E+02  0.18728E+04
 0.69249992E+02  0.18639E+04
 0.69299995E+02  0.18920E+04
 0.69349998E+02  0.19868E+04
 0.69399994E+02  0.20890E+04
 0.69449997E+02  0.20669E+04
 0.69499992E+02  0.20440E+04
 0.69549995E+02  0.20689E+04
 0.69599998E+02  0.20937E+04
 0.69649994E+02  0.21161E+04
 0.69699997E+02  0.21749E+04
 0.69749992E+02  0.21691E+04
 0.69799995E+02  0.21067E+04
 0.69849998E+02  0.19933E+04
 0.69899994E+02  0.18705E+04
 0.69949997E+02  0.18197E+04
 0.69999992E+02  0.17595E+04
 0.70049995E+02  0.17396E+04
 0.70099998E+02  0.17988E+04
 0.70149994E+02  0.19274E+04
 0.70199997E+02  0.19656E+04
 0.70249992E+02  0.19533E+04
 0.70299995E+02  0.19304E+04
 0.70349998E+02  0.18344E+04
 0.70399994E+02  0.17560E+04
 0.70449997E+02  0.17333E+04
 0.70499992E+02  0.17217E+04
 0.70549995E+02  0.17299E+04
 0.70599998E+02  0.17866E+04
 0.70649994E+02  0.17700E+04
 0.70699997E+02  0.17407E+04
 0.70749992E+02  0.17584E+04
 0.70799995E+02  0.17671E+04
 0.70849998E+02  0.17501E+04
 0.70899994E+02  0.17301E+04
 0.70949997E+02  0.17469E+04
 0.70999992E+02  0.17729E+04
 0.71049995E+02  0.17512E+04
 0.71099998E+02  0.17503E+04
 0.71149994E+02  0.18213E+04
 0.71199997E+02  0.18607E+04
 0.71249992E+02  0.18818E+04
 0.71299995E+02  0.18660E+04
 0.71349998E+02  0.18738E+04
 0.71399994E+02  0.19128E+04
 0.71449997E+02  0.19973E+04
 0.71499992E+02  0.20670E+04
 0.71549995E+02  0.20725E+04
 0.71599998E+02  0.21121E+04
 0.71649994E+02  0.20676E+04
 0.71699997E+02  0.19900E+04
 0.71749992E+02  0.19783E+04
 0.71799995E+02  0.19861E+04
 0.71849998E+02  0.20128E+04
 0.71899994E+02  0.20984E+04
 0.71949997E+02  0.21180E+04
 0.71999992E+02  0.20905E+04
 0.72049995E+02  0.21144E+04
 0.72099998E+02  0.20980E+04
 0.72149994E+02  0.20562E+04
 0.72199997E+02  0.20190E+04
 0.72249992E+02  0.19810E+04
 0.72299995E+02  0.19592E+04
 0.72349998E+02  0.19164E+04
 0.72399994E+02  0.18779E+04
 0.72449997E+02  0.18545E+04
 0.72499992E+02  0.17888E+04
 0.72549995E+02  0.17258E+04
 0.72599998E+02  0.17175E+04
 0.72649994E+02  0.17184E+04
 0.72699997E+02  0.17195E+04
 0.72749992E+02  0.17646E+04
 0.72799995E+02  0.17848E+04
 0.72849998E+02  0.17611E+04
 0.72899994E+02  0.17613E+04
 0.72949997E+02  0.18007E+04
 0.72999992E+02  0.18409E+04
 0.73049995E+02  0.18284E+04
 0.73099998E+02  0.18381E+04
 0.73149994E+02  0.19119E+04
 0.73199997E+02  0.19162E+04
 0.73249992E+02  0.18634E+04
 0.73299995E+02  0.18600E+04
 0.73349998E+02  0.18607E+04
 0.73399994E+02  0.18735E+04
 0.73449997E+02  0.19177E+04
 0.73499992E+02  0.19397E+04
 0.73549995E+02  0.19689E+04
 0.73599998E+02  0.19955E+04
 0.73649994E+02  0.19867E+04
 0.73699997E+02  0.19987E+04
 0.73749992E+02  0.20151E+04
 0.73799995E+02  0.20175E+04
 0.73849998E+02  0.19956E+04
 0.73899994E+02  0.19888E+04
 0.73949997E+02  0.20295E+04
 0.73999992E+02  0.19838E+04
 0.74049995E+02  0.19114E+04
 0.74099998E+02  0.18963E+04
 0.74149994E+02  0.18983E+04
 0.74199997E+02  0.19148E+04
 0.74249992E+02  0.19366E+04
 0.74299995E+02  0.19381E+04
 0.74349998E+02  0.19360E+04
 0.74399994E+02  0.19391E+04
 0.74449997E+02  0.19283E+04
 0.74499992E+02  0.18822E+04
 0.74549995E+02  0.18279E+04
 0.74599998E+02  0.18007E+04
 0.74649994E+02  0.18043E+04
 0.74699997E+02  0.18587E+04
 0.74749992E+02  0.18902E+04
 0.74799995E+02  0.18670E+04
 0.74849998E+02  0.18685E+04
 0.74899994E+02  0.18507E+04
 0.74949997E+02  0.17956E+04
 0.74999992E+02  0.17862E+04
 0.75049995E+02  0.18067E+04
 0.75099998E+02  0.18536E+04
 0.75149994E+02  0.19086E+04
 0.75199997E+02  0.19771E+04
 0.75249992E+02  0.20173E+04
 0.75299995E+02  0.20132E+04
 0.75349998E+02  0.19894E+04
 0.75399994E+02  0.19875E+04
 0.75449997E+02  0.19979E+04
 0.75499992E+02  0.19872E+04
 0.75549995E+02  0.20124E+04
 0.75599998E+02  0.20410E+04
 0.75649994E+02  0.20457E+04
 0.75699997E+02  0.20247E+04
 0.75749992E+02  0.20171E+04
 0.75799995E+02  0.20104E+04
 0.75849998E+02  0.19694E+04
 0.75899994E+02  0.19272E+04
 0.75949997E+02  0.19179E+04
 0.75999992E+02  0.19206E+04
 0.76049995E+02  0.18914E+04
 0.76099998E+02  0.18661E+04
 0.76149994E+02  0.18245E+04
 0.76199997E+02  0.17804E+04
 0.76249992E+02  0.17740E+04
 0.76299995E+02  0.17849E+04
 0.76349998E+02  0.18161E+04
 0.76399994E+02  0.18401E+04
 0.76449997E+02  0.18403E+04
 0.76499992E+02  0.18218E+04
 0.76549995E+02  0.18133E+04
 0.76599998E+02  0.18113E+04
 0.76649994E+02  0.18440E+04
 0.76699997E+02  0.18919E+04
 0.76749992E+02  0.19045E+04
 0.76799995E+02  0.19071E+04
 0.76849998E+02  0.18911E+04
 0.76899994E+02  0.18829E+04
 0.76949997E+02  0.18703E+04
 0.76999992E+02  0.18734E+04
 0.77049995E+02  0.19284E+04
 0.77099998E+02  0.19837E+04
 0.77149994E+02  0.20105E+04
 0.77199997E+02  0.20127E+04
 0.77249992E+02  0.20021E+04
 0.77299995E+02  0.19774E+04
 0.77349998E+02  0.19418E+04
 0.77399994E+02  0.19466E+04
 0.77449997E+02  0.19927E+04
 0.77499992E+02  0.19766E+04
 0.77549995E+02  0.18936E+04
 0.77599998E+02  0.18573E+04
 0.77649994E+02  0.18513E+04
 0.77699997E+02  0.18608E+04
 0.77749992E+02  0.18945E+04
 0.77799995E+02  0.18686E+04
 0.77849998E+02  0.18052E+04
 0.77899994E+02  0.18037E+04
 0.77949997E+02  0.18374E+04
 0.77999992E+02  0.18411E+04
 0.78049995E+02  0.18048E+04
 0.78099998E+02  0.17742E+04
 0.78149994E+02  0.17973E+04
 0.78199997E+02  0.18108E+04
 0.78249992E+02  0.18265E+04
 0.78299995E+02  0.18984E+04
 0.78349998E+02  0.19246E+04
 0.78399994E+02  0.19070E+04
 0.78449997E+02  0.19461E+04
 0.78499992E+02  0.19781E+04
 0.78549995E+02  0.19610E+04
 0.78599998E+02  0.19171E+04
 0.78649994E+02  0.18967E+04
 0.78699997E+02  0.19081E+04
 0.78749992E+02  0.19063E+04
 0.78799995E+02  0.18999E+04
 0.78849998E+02  0.19235E+04
 0.78899994E+02  0.19561E+04
 0.78949997E+02  0.19540E+04
 0.78999992E+02  0.19692E+04
 0.79049995E+02  0.20152E+04
 0.79099998E+02  0.20165E+04
 0.79149994E+02  0.20025E+04
 0.79199997E+02  0.20185E+04
 0.79249992E+02  0.20176E+04
 0.79299995E+02  0.19571E+04
 0.79349998E+02  0.18820E+04
 0.79399994E+02  0.18729E+04
 0.79449997E+02  0.19112E+04
 0.79499992E+02  0.18991E+04
 0.79549995E+02  0.18558E+04
 0.79599998E+02  0.18418E+04
 0.79649994E+02  0.18489E+04
 0.79699997E+02  0.18561E+04
 0.79749992E+02  0.18006E+04
 0.79799995E+02  0.17265E+04
 0.79849998E+02  0.16882E+04
 0.79899994E+02  0.16969E+04
 0.79949997E+02  0.17182E+04
 0.79999992E+02  0.17274E+04
 0.80049995E+02  0.17591E+04
 0.80099998E+02  0.17902E+04
 0.80149994E+02  0.17928E+04
 0.80199997E+02  0.17933E+04
 0.80249992E+02  0.18322E+04
 0.80299995E+02  0.18632E+04
 0.80349998E+02  0.18766E+04
 0.80399994E+02  0.18869E+04
 0.80449997E+02  0.18953E+04
 0.80499992E+02  0.19091E+04
 0.80549995E+02  0.19201E+04
 0.80599998E+02  0.19421E+04
 0.80649994E+02  0.19814E+04
 0.80699997E+02  0.20453E+04
 0.80749992E+02  0.20757E+04
 0.80799995E+02  0.20479E+04
 0.80849998E+02  0.19988E+04
 0.80899994E+02  0.19786E+04
 0.80949997E+02  0.20046E+04
 0.80999992E+02  0.20244E+04
 0.81049995E+02  0.19993E+04
 0.81099998E+02  0.19717E+04
 0.81149994E+02  0.19812E+04
 0.81199997E+02  0.19956E+04
 0.81249992E+02  0.20162E+04
 0.81299995E+02  0.20536E+04
 0.81349998E+02  0.20718E+04
 0.81399994E+02  0.20243E+04
 0.81449997E+02  0.19631E+04
 0.81499992E+02  0.19527E+04
 0.81549995E+02  0.19296E+04
 0.81599998E+02  0.18553E+04
 0.81649994E+02  0.18116E+04
 0.81699997E+02  0.18228E+04
 0.81749992E+02  0.18125E+04
 0.81799995E+02  0.17924E+04
 0.81849998E+02  0.18103E+04
 0.81899994E+02  0.18408E+04
 0.81949997E+02  0.18741E+04
 0.81999992E+02  0.19262E+04
 0.82049995E+02  0.19750E+04
 0.82099998E+02  0.19921E+04
 0.82149994E+02  0.19809E+04
 0.82199997E+02  0.19581E+04
 0.82249992E+02  0.19445E+04
 0.82299995E+02  0.18932E+04
 0.82349998E+02  0.18569E+04
 0.82399994E+02  0.18578E+04
 0.82449997E+02  0.18445E+04
 0.82499992E+02  0.18654E+04
 0.82549995E+02  0.18998E+04
 0.82599998E+02  0.19269E+04
 0.82649994E+02  0.19282E+04
 0.82699997E+02  0.19207E+04
 0.82749992E+02  0.19416E+04
 0.82799995E+02  0.19473E+04
 0.82849998E+02  0.19168E+04
 0.82899994E+02  0.18659E+04
 0.82949997E+02  0.18320E+04
 0.82999992E+02  0.18300E+04
 0.83049995E+02  0.18296E+04
 0.83099998E+02  0.18491E+04
 0.83149994E+02  0.18757E+04
 0.83199997E+02  0.18956E+04
 0.83249992E+02  0.19430E+04
 0.83299995E+02  0.19353E+04
 0.83349998E+02  0.18956E+04
 0.83399994E+02  0.18843E+04
 0.83449997E+02  0.18939E+04
 0.83499992E+02  0.18907E+04
 0.83549995E+02  0.18704E+04
 0.83599998E+02  0.18825E+04
 0.83649994E+02  0.19010E+04
 0.83699997E+02  0.19258E+04
 0.83749992E+02  0.19214E+04
 0.83799995E+02  0.19143E+04
 0.83849998E+02  0.19318E+04
 0.83899994E+02  0.19421E+04
 0.83949997E+02  0.19520E+04
 0.83999992E+02  0.19392E+04
 0.84049995E+02  0.19053E+04
 0.84099998E+02  0.18736E+04
 0.84149994E+02  0.18236E+04
 0.84199997E+02  0.17813E+04
 0.84249992E+02  0.17878E+04
 0.84299995E+02  0.18247E+04
 0.84349998E+02  0.18858E+04
 0.84399994E+02  0.19335E+04
 0.84449997E+02  0.19897E+04
 0.84499992E+02  0.20352E+04
 0.84549995E+02  0.20366E+04
 0.84599998E+02  0.20073E+04
 0.84649994E+02  0.19476E+04
 0.84699997E+02  0.19216E+04
 0.84749992E+02  0.19003E+04
 0.84799995E+02  0.18749E+04
 0.84849998E+02  0.18602E+04
 0.84899994E+02  0.18433E+04
 0.84949997E+02  0.18370E+04
 0.84999992E+02  0.18728E+04
 0.85049995E+02  0.19278E+04
 0.85099998E+02  0.19493E+04
 0.85149994E+02  0.19385E+04
 0.85199997E+02  0.19212E+04
 0.85249992E+02  0.19070E+04
 0.85299995E+02  0.18553E+04
 0.85349998E+02  0.18040E+04
 0.85399994E+02  0.18283E+04
 0.85449997E+02  0.18714E+04
 0.85499992E+02  0.18951E+04
 0.85549995E+02  0.19331E+04
 0.85599998E+02  0.19717E+04
 0.85649994E+02  0.20044E+04
 0.85699997E+02  0.20330E+04
 0.85749992E+02  0.20620E+04
 0.85799995E+02  0.20684E+04
 0.85849998E+02  0.20512E+04
 0.85899994E+02  0.20008E+04
 0.85949997E+02  0.19522E+04
 0.85999992E+02  0.19101E+04
 0.86049995E+02  0.18694E+04
 0.86099998E+02  0.18677E+04
 0.86149994E+02  0.18851E+04
 0.86199997E+02  0.18917E+04
 0.86249992E+02  0.18469E+04
 0.86299995E+02  0.18019E+04
 0.86349998E+02  0.17932E+04
 0.86399994E+02  0.18067E+04
 0.86449997E+02  0.18214E+04
 0.86499992E+02  0.18407E+04
 0.86549995E+02  0.18944E+04
 0.86599998E+02  0.19252E+04
 0.86649994E+02  0.19161E+04
 0.86699997E+02  0.19070E+04
 0.86749992E+02  0.18919E+04
 0.86799995E+02  0.18620E+04
 0.86849998E+02  0.18326E+04
 0.86899994E+02  0.18449E+04
 0.86949997E+02  0.18645E+04
 0.86999992E+02  0.18626E+04
 0.87049995E+02  0.18797E+04
 0.87099998E+02  0.18997E+04
 0.87149994E+02  0.19292E+04
 0.87199997E+02  0.19511E+04
 0.87249992E+02  0.19479E+04
 0.87299995E+02  0.19419E+04
 0.87349998E+02  0.19153E+04
 0.87399994E+02  0.18830E+04
 0.87449997E+02  0.18487E+04
 0.87499992E+02  0.18362E+04
 0.87549995E+02  0.18421E+04
 0.87599991E+02  0.18249E+04
 0.87649994E+02  0.18162E+04
 0.87699997E+02  0.18345E+04
 0.87749992E+02  0.18765E+04
 0.87799995E+02  0.19107E+04
 0.87849991E+02  0.19305E+04
 0.87899994E+02  0.19376E+04
 0.87949997E+02  0.19091E+04
 0.87999992E+02  0.18770E+04
 0.88049995E+02  0.18665E+04
 0.88099991E+02  0.18904E+04
 0.88149994E+02  0.19131E+04
 0.88199997E+02  0.19124E+04
 0.88249992E+02  0.19254E+04
 0.88299995E+02  0.19300E+04
 0.88349991E+02  0.19071E+04
 0.88399994E+02  0.18863E+04
 0.88449997E+02  0.18798E+04
 0.88499992E+02  0.18622E+04
 0.88549995E+02  0.18325E+04
 0.88599991E+02  0.18354E+04
 0.88649994E+02  0.18631E+04
 0.88699997E+02  0.18839E+04
 0.88749992E+02  0.18718E+04
 0.88799995E+02  0.18393E+04
 0.88849991E+02  0.18377E+04
 0.88899994E+02  0.18363E+04
 0.88949997E+02  0.18502E+04
 0.88999992E+02  0.19025E+04
 0.89049995E+02  0.19446E+04
 0.89099991E+02  0.19552E+04
 0.89149994E+02  0.19513E+04
 0.89199997E+02  0.19568E+04
 0.89249992E+02  0.19674E+04
 0.89299995E+02  0.19805E+04
 0.89349991E+02  0.19726E+04
 0.89399994E+02  0.19372E+04
 0.89449997E+02  0.19131E+04
 0.89499992E+02  0.19061E+04
 0.89549995E+02  0.18962E+04
 0.89599991E+02  0.19009E+04
 0.89649994E+02  0.19196E+04
 0.89699997E+02  0.19175E+04
 0.89749992E+02  0.18978E+04
 0.89799995E+02  0.19017E+04
 0.89849991E+02  0.19121E+04
 0.89899994E+02  0.18966E+04
 0.89949997E+02  0.19039E+04
 0.89999992E+02  0.19276E+04
 0.90049995E+02  0.19384E+04
 0.90099991E+02  0.19353E+04
 0.90149994E+02  0.19285E+04
 0.90199997E+02  0.18894E+04
 0.90249992E+02  0.18343E+04
 0.90299995E+02  0.18207E+04
 0.90349991E+02  0.18139E+04
 0.90399994E+02  0.18026E+04
 0.90449997E+02  0.18115E+04
 0.90499992E+02  0.18315E+04
 0.90549995E+02  0.18427E+04
 0.90599991E+02  0.18651E+04
 0.90649994E+02  0.19181E+04
 0.90699997E+02  0.19460E+04
 0.90749992E+02  0.19411E+04
 0.90799995E+02  0.19434E+04
 0.90849991E+02  0.19584E+04
 0.90899994E+02  0.19662E+04
 0.90949997E+02  0.19517E+04
 0.90999992E+02  0.19525E+04
 0.91049995E+02  0.19565E+04
 0.91099991E+02  0.19572E+04
 0.91149994E+02  0.19522E+04
 0.91199997E+02  0.19418E+04
 0.91249992E+02  0.19533E+04
 0.91299995E+02  0.19751E+04
 0.91349991E+02  0.19969E+04
 0.91399994E+02  0.20182E+04
 0.91449997E+02  0.20491E+04
 0.91499992E+02  0.20564E+04
 0.91549995E+02  0.20220E+04
 0.91599991E+02  0.19786E+04
 0.91649994E+02  0.19417E+04
 0.91699997E+02  0.19188E+04
 0.91749992E+02  0.19158E+04
 0.91799995E+02  0.19326E+04
 0.91849991E+02  0.19332E+04
 0.91899994E+02  0.19361E+04
 0.91949997E+02  0.19413E+04
 0.91999992E+02  0.19472E+04
 0.92049995E+02  0.19720E+04
 0.92099991E+02  0.19940E+04
 0.92149994E+02  0.19851E+04
 0.92199997E+02  0.19637E+04
 0.92249992E+02  0.19669E+04
 0.92299995E+02  0.19892E+04
 0.92349991E+02  0.19897E+04
 0.92399994E+02  0.19482E+04
 0.92449997E+02  0.19295E+04
 0.92499992E+02  0.19164E+04
 0.92549995E+02  0.18924E+04
 0.92599991E+02  0.18967E+04
 0.92649994E+02  0.18929E+04
 0.92699997E+02  0.18748E+04
 0.92749992E+02  0.18805E+04
 0.92799995E+02  0.18752E+04
 0.92849991E+02  0.18472E+04
 0.92899994E+02  0.18319E+04
 0.92949997E+02  0.18196E+04
 0.92999992E+02  0.17952E+04
 0.93049995E+02  0.17725E+04
 0.93099991E+02  0.17580E+04
 0.93149994E+02  0.17427E+04
 0.93199997E+02  0.17467E+04
 0.93249992E+02  0.17609E+04
 0.93299995E+02  0.17764E+04
 0.93349991E+02  0.18224E+04
 0.93399994E+02  0.18516E+04
 0.93449997E+02  0.18697E+04
 0.93499992E+02  0.18896E+04
 0.93549995E+02  0.19040E+04
 0.93599991E+02  0.19087E+04
 0.93649994E+02  0.19002E+04
 0.93699997E+02  0.19105E+04
 0.93749992E+02  0.19136E+04
 0.93799995E+02  0.19126E+04
 0.93849991E+02  0.19188E+04
 0.93899994E+02  0.19324E+04
 0.93949997E+02  0.19494E+04
 0.93999992E+02  0.19707E+04
 0.94049995E+02  0.19774E+04
 0.94099991E+02  0.19834E+04
 0.94149994E+02  0.19844E+04
 0.94199997E+02  0.19712E+04
 0.94249992E+02  0.19594E+04
 0.94299995E+02  0.19360E+04
 0.94349991E+02  0.19317E+04
 0.94399994E+02  0.19454E+04
 0.94449997E+02  0.19572E+04
 0.94499992E+02  0.19383E+04
 0.94549995E+02  0.19006E+04
 0.94599991E+02  0.18787E+04
 0.94649994E+02  0.18731E+04
 0.94699997E+02  0.18727E+04
 0.94749992E+02  0.18707E+04
 0.94799995E+02  0.18533E+04
 0.94849991E+02  0.18401E+04
 0.94899994E+02  0.18459E+04
 0.94949997E+02  0.18510E+04
 0.94999992E+02  0.18435E+04
 0.95049995E+02  0.18203E+04
 0.95099991E+02  0.18157E+04
 0.95149994E+02  0.18222E+04
 0.95199997E+02  0.18200E+04
 0.95249992E+02  0.18094E+04
 0.95299995E+02  0.18189E+04
 0.95349991E+02  0.18511E+04
 0.95399994E+02  0.18788E+04
 0.95449997E+02  0.18841E+04
 0.95499992E+02  0.18809E+04
 0.95549995E+02  0.18854E+04
 0.95599991E+02  0.18954E+04
 0.95649994E+02  0.18931E+04
 0.95699997E+02  0.18727E+04
 0.95749992E+02  0.18671E+04
 0.95799995E+02  0.18541E+04
 0.95849991E+02  0.18353E+04
 0.95899994E+02  0.18214E+04
 0.95949997E+02  0.18507E+04
 0.95999992E+02  0.19134E+04
 0.96049995E+02  0.19513E+04
 0.96099991E+02  0.19741E+04
 0.96149994E+02  0.19856E+04
 0.96199997E+02  0.19627E+04
 0.96249992E+02  0.19295E+04
 0.96299995E+02  0.19252E+04
 0.96349991E+02  0.19222E+04
 0.96399994E+02  0.19012E+04
 0.96449997E+02  0.18998E+04
 0.96499992E+02  0.19113E+04
 0.96549995E+02  0.19122E+04
 0.96599991E+02  0.19137E+04
 0.96649994E+02  0.19146E+04
 0.96699997E+02  0.19114E+04
 0.96749992E+02  0.19176E+04
 0.96799995E+02  0.19472E+04
 0.96849991E+02  0.19741E+04
 0.96899994E+02  0.19944E+04
 0.96949997E+02  0.20078E+04
 0.96999992E+02  0.20044E+04
 0.97049995E+02  0.19899E+04
 0.97099991E+02  0.19735E+04
 0.97149994E+02  0.19743E+04
 0.97199997E+02  0.19787E+04
 0.97249992E+02  0.19760E+04
 0.97299995E+02  0.19786E+04
 0.97349991E+02  0.19729E+04
 0.97399994E+02  0.19645E+04
 0.97449997E+02  0.19578E+04
 0.97499992E+02  0.19391E+04
 0.97549995E+02  0.19102E+04
 0.97599991E+02  0.19083E+04
 0.97649994E+02  0.19035E+04
 0.97699997E+02  0.18841E+04
 0.97749992E+02  0.18959E+04
 0.97799995E+02  0.18947E+04
 0.97849991E+02  0.18784E+04
 0.97899994E+02  0.18529E+04
 0.97949997E+02  0.18225E+04
 0.97999992E+02  0.18114E+04
