-0.20000000E+01 -0.32907E+04
-0.19500000E+01 -0.32890E+04
-0.19000000E+01 -0.33091E+04
-0.18500000E+01 -0.33363E+04
-0.18000000E+01 -0.33286E+04
-0.17500000E+01 -0.33584E+04
-0.17000000E+01 -0.33840E+04
-0.16500001E+01 -0.34108E+04
-0.16000000E+01 -0.34809E+04
-0.15500000E+01 -0.34801E+04
-0.15000000E+01 -0.35150E+04
-0.14500000E+01 -0.35404E+04
-0.14000001E+01 -0.35492E+04
-0.13500000E+01 -0.35767E+04
-0.13000001E+01 -0.35783E+04
-0.12500000E+01 -0.35640E+04
-0.12000000E+01 -0.35599E+04
-0.11500001E+01 -0.35480E+04
-0.11000000E+01 -0.35348E+04
-0.10500001E+01 -0.35539E+04
-0.10000000E+01 -0.35365E+04
-0.95000005E+00 -0.35514E+04
-0.90000010E+00 -0.35631E+04
-0.85000002E+00 -0.35706E+04
-0.80000007E+00 -0.35878E+04
-0.75000012E+00 -0.35991E+04
-0.70000005E+00 -0.36219E+04
-0.65000010E+00 -0.36139E+04
-0.60000014E+00 -0.36173E+04
-0.55000007E+00 -0.35998E+04
-0.50000012E+00 -0.35556E+04
-0.45000005E+00 -0.35210E+04
-0.40000010E+00 -0.34791E+04
-0.35000014E+00 -0.34368E+04
-0.30000007E+00 -0.33893E+04
-0.25000012E+00 -0.33225E+04
-0.20000005E+00 -0.32813E+04
-0.15000010E+00 -0.32615E+04
-0.10000014E+00 -0.32219E+04
-0.50000072E-01 -0.31824E+04
-0.11920929E-06 -0.31563E+04
 0.49999952E-01 -0.31624E+04
 0.99999905E-01 -0.31753E+04
 0.14999986E+00 -0.31657E+04
 0.19999981E+00 -0.31702E+04
 0.24999976E+00 -0.31940E+04
 0.29999995E+00 -0.32128E+04
 0.34999990E+00 -0.32181E+04
 0.39999986E+00 -0.31976E+04
 0.44999981E+00 -0.31931E+04
 0.49999976E+00 -0.31670E+04
 0.54999995E+00 -0.31298E+04
 0.59999990E+00 -0.31060E+04
 0.64999986E+00 -0.30687E+04
 0.69999981E+00 -0.30784E+04
 0.74999976E+00 -0.30663E+04
 0.79999971E+00 -0.30725E+04
 0.84999990E+00 -0.30930E+04
 0.89999986E+00 -0.30976E+04
 0.94999981E+00 -0.31297E+04
 0.99999976E+00 -0.31247E+04
 0.10499997E+01 -0.31850E+04
 0.10999999E+01 -0.32286E+04
 0.11499999E+01 -0.32475E+04
 0.11999998E+01 -0.32611E+04
 0.12499998E+01 -0.32371E+04
 0.12999997E+01 -0.32486E+04
 0.13499999E+01 -0.32100E+04
 0.13999999E+01 -0.31852E+04
 0.14499998E+01 -0.31589E+04
 0.14999998E+01 -0.31541E+04
 0.15499997E+01 -0.31669E+04
 0.15999999E+01 -0.31403E+04
 0.16499999E+01 -0.31376E+04
 0.16999998E+01 -0.31274E+04
 0.17499998E+01 -0.31291E+04
 0.17999997E+01 -0.31428E+04
 0.18499997E+01 -0.31370E+04
 0.18999999E+01 -0.31629E+04
 0.19499998E+01 -0.32060E+04
 0.19999998E+01 -0.32495E+04
 0.20499997E+01 -0.33088E+04
 0.20999999E+01 -0.33700E+04
 0.21499996E+01 -0.34475E+04
 0.21999998E+01 -0.35169E+04
 0.22499995E+01 -0.35687E+04
 0.22999997E+01 -0.36333E+04
 0.23499999E+01 -0.36794E+04
 0.23999996E+01 -0.37002E+04
 0.24499998E+01 -0.37234E+04
 0.24999995E+01 -0.37340E+04
 0.25499997E+01 -0.37372E+04
 0.25999999E+01 -0.37297E+04
 0.26499996E+01 -0.36952E+04
 0.26999998E+01 -0.36858E+04
 0.27499995E+01 -0.36477E+04
 0.27999997E+01 -0.36071E+04
 0.28499999E+01 -0.35654E+04
 0.28999996E+01 -0.35057E+04
 0.29499998E+01 -0.34827E+04
 0.29999995E+01 -0.34257E+04
 0.30499997E+01 -0.33988E+04
 0.30999999E+01 -0.33793E+04
 0.31499996E+01 -0.33372E+04
 0.31999998E+01 -0.33361E+04
 0.32499995E+01 -0.33075E+04
 0.32999997E+01 -0.33045E+04
 0.33499999E+01 -0.32775E+04
 0.33999996E+01 -0.32480E+04
 0.34499998E+01 -0.32570E+04
 0.34999995E+01 -0.32275E+04
 0.35499997E+01 -0.32034E+04
 0.35999994E+01 -0.31802E+04
 0.36499996E+01 -0.31367E+04
 0.36999998E+01 -0.31314E+04
 0.37499995E+01 -0.31188E+04
 0.37999997E+01 -0.31128E+04
 0.38499994E+01 -0.31217E+04
 0.38999996E+01 -0.31056E+04
 0.39499998E+01 -0.31217E+04
 0.39999995E+01 -0.31036E+04
 0.40499997E+01 -0.31063E+04
 0.40999994E+01 -0.31292E+04
 0.41499996E+01 -0.31506E+04
 0.41999998E+01 -0.31844E+04
 0.42499995E+01 -0.32127E+04
 0.42999997E+01 -0.32374E+04
 0.43499994E+01 -0.32650E+04
 0.43999996E+01 -0.32974E+04
 0.44499998E+01 -0.33129E+04
 0.44999995E+01 -0.33395E+04
 0.45499997E+01 -0.33297E+04
 0.45999994E+01 -0.33367E+04
 0.46499996E+01 -0.33318E+04
 0.46999998E+01 -0.33379E+04
 0.47499995E+01 -0.33352E+04
 0.47999997E+01 -0.32905E+04
 0.48499994E+01 -0.32837E+04
 0.48999996E+01 -0.32445E+04
 0.49499998E+01 -0.32102E+04
 0.49999995E+01 -0.32028E+04
 0.50499997E+01 -0.31805E+04
 0.50999994E+01 -0.31836E+04
 0.51499996E+01 -0.32035E+04
 0.51999998E+01 -0.32155E+04
 0.52499995E+01 -0.32768E+04
 0.52999997E+01 -0.33296E+04
 0.53499994E+01 -0.33804E+04
 0.53999996E+01 -0.34257E+04
 0.54499993E+01 -0.34276E+04
 0.54999995E+01 -0.34593E+04
 0.55499997E+01 -0.34658E+04
 0.55999994E+01 -0.34601E+04
 0.56499996E+01 -0.34426E+04
 0.56999993E+01 -0.34039E+04
 0.57499995E+01 -0.33891E+04
 0.57999997E+01 -0.33666E+04
 0.58499994E+01 -0.33168E+04
 0.58999996E+01 -0.32906E+04
 0.59499993E+01 -0.32661E+04
 0.59999995E+01 -0.32442E+04
 0.60499992E+01 -0.32450E+04
 0.60999994E+01 -0.32184E+04
 0.61499996E+01 -0.32535E+04
 0.61999998E+01 -0.32657E+04
 0.62499990E+01 -0.32981E+04
 0.62999992E+01 -0.33511E+04
 0.63499994E+01 -0.33632E+04
 0.63999996E+01 -0.34242E+04
 0.64499998E+01 -0.34431E+04
 0.64999990E+01 -0.34508E+04
 0.65499992E+01 -0.34575E+04
 0.65999994E+01 -0.34483E+04
 0.66499996E+01 -0.34651E+04
 0.66999998E+01 -0.34665E+04
 0.67499990E+01 -0.34594E+04
 0.67999992E+01 -0.34773E+04
 0.68499994E+01 -0.34642E+04
 0.68999996E+01 -0.34456E+04
 0.69499998E+01 -0.34372E+04
 0.69999990E+01 -0.34086E+04
 0.70499992E+01 -0.33919E+04
 0.70999994E+01 -0.33466E+04
 0.71499996E+01 -0.33007E+04
 0.71999998E+01 -0.32864E+04
 0.72499990E+01 -0.32407E+04
 0.72999992E+01 -0.32099E+04
 0.73499994E+01 -0.32083E+04
 0.73999996E+01 -0.31831E+04
 0.74499998E+01 -0.31956E+04
 0.74999990E+01 -0.31969E+04
 0.75499992E+01 -0.31873E+04
 0.75999994E+01 -0.31940E+04
 0.76499996E+01 -0.31605E+04
 0.76999998E+01 -0.31586E+04
 0.77499990E+01 -0.31532E+04
 0.77999992E+01 -0.31212E+04
 0.78499994E+01 -0.31513E+04
 0.78999996E+01 -0.31614E+04
 0.79499998E+01 -0.32016E+04
 0.79999990E+01 -0.32307E+04
 0.80499992E+01 -0.32536E+04
 0.80999994E+01 -0.33059E+04
 0.81499996E+01 -0.33233E+04
 0.81999998E+01 -0.33606E+04
 0.82499990E+01 -0.33722E+04
 0.82999992E+01 -0.33804E+04
 0.83499994E+01 -0.33806E+04
 0.83999996E+01 -0.33740E+04
 0.84499998E+01 -0.33644E+04
 0.84999990E+01 -0.33492E+04
 0.85499992E+01 -0.33349E+04
 0.85999994E+01 -0.33383E+04
 0.86499996E+01 -0.33519E+04
 0.86999998E+01 -0.33054E+04
 0.87499990E+01 -0.33250E+04
 0.87999992E+01 -0.33264E+04
 0.88499994E+01 -0.33435E+04
 0.88999996E+01 -0.33701E+04
 0.89499998E+01 -0.33339E+04
 0.89999990E+01 -0.33668E+04
 0.90499992E+01 -0.33564E+04
 0.90999994E+01 -0.33488E+04
 0.91499996E+01 -0.33564E+04
 0.91999989E+01 -0.33133E+04
 0.92499990E+01 -0.33070E+04
 0.92999992E+01 -0.32713E+04
 0.93499994E+01 -0.32632E+04
 0.93999996E+01 -0.32988E+04
 0.94499989E+01 -0.32882E+04
 0.94999990E+01 -0.33216E+04
 0.95499992E+01 -0.33521E+04
 0.95999994E+01 -0.33826E+04
 0.96499996E+01 -0.34014E+04
 0.96999989E+01 -0.34211E+04
 0.97499990E+01 -0.34504E+04
 0.97999992E+01 -0.34731E+04
 0.98499994E+01 -0.34798E+04
 0.98999996E+01 -0.34748E+04
 0.99499989E+01 -0.34859E+04
 0.99999990E+01 -0.34534E+04
 0.10049999E+02 -0.34355E+04
 0.10099999E+02 -0.33983E+04
 0.10150000E+02 -0.33737E+04
 0.10199999E+02 -0.33419E+04
 0.10249999E+02 -0.32853E+04
 0.10299999E+02 -0.32545E+04
 0.10349999E+02 -0.31671E+04
 0.10400000E+02 -0.31311E+04
 0.10449999E+02 -0.30999E+04
 0.10499999E+02 -0.30744E+04
 0.10549999E+02 -0.30720E+04
 0.10599999E+02 -0.30551E+04
 0.10650000E+02 -0.30824E+04
 0.10699999E+02 -0.31097E+04
 0.10749999E+02 -0.31477E+04
 0.10799999E+02 -0.32183E+04
 0.10849999E+02 -0.32920E+04
 0.10900000E+02 -0.33482E+04
 0.10949999E+02 -0.33914E+04
 0.10999999E+02 -0.34115E+04
 0.11049999E+02 -0.34735E+04
 0.11099999E+02 -0.34805E+04
 0.11150000E+02 -0.34599E+04
 0.11199999E+02 -0.34430E+04
 0.11249999E+02 -0.34309E+04
 0.11299999E+02 -0.34314E+04
 0.11349999E+02 -0.33879E+04
 0.11400000E+02 -0.33715E+04
 0.11449999E+02 -0.33414E+04
 0.11499999E+02 -0.33161E+04
 0.11549999E+02 -0.33136E+04
 0.11599999E+02 -0.32839E+04
 0.11650000E+02 -0.32500E+04
 0.11699999E+02 -0.32451E+04
 0.11749999E+02 -0.32046E+04
 0.11799999E+02 -0.31825E+04
 0.11849999E+02 -0.31596E+04
 0.11900000E+02 -0.31375E+04
 0.11949999E+02 -0.31443E+04
 0.11999999E+02 -0.31232E+04
 0.12049999E+02 -0.31281E+04
 0.12099999E+02 -0.31401E+04
 0.12150000E+02 -0.31462E+04
 0.12199999E+02 -0.31917E+04
 0.12249999E+02 -0.32140E+04
 0.12299999E+02 -0.32432E+04
 0.12349999E+02 -0.32760E+04
 0.12400000E+02 -0.32996E+04
 0.12449999E+02 -0.33492E+04
 0.12499999E+02 -0.33715E+04
 0.12549999E+02 -0.33883E+04
 0.12599999E+02 -0.33902E+04
 0.12649999E+02 -0.33903E+04
 0.12699999E+02 -0.33992E+04
 0.12749999E+02 -0.33870E+04
 0.12799999E+02 -0.33561E+04
 0.12849999E+02 -0.33430E+04
 0.12899999E+02 -0.33223E+04
 0.12949999E+02 -0.33076E+04
 0.12999999E+02 -0.33181E+04
 0.13049999E+02 -0.33191E+04
 0.13099999E+02 -0.33601E+04
 0.13149999E+02 -0.33998E+04
 0.13199999E+02 -0.34232E+04
 0.13249999E+02 -0.34646E+04
 0.13299999E+02 -0.34864E+04
 0.13349999E+02 -0.35153E+04
 0.13399999E+02 -0.35373E+04
 0.13449999E+02 -0.35150E+04
 0.13499999E+02 -0.35071E+04
 0.13549999E+02 -0.34755E+04
 0.13599999E+02 -0.34683E+04
 0.13649999E+02 -0.34565E+04
 0.13699999E+02 -0.34040E+04
 0.13749999E+02 -0.33875E+04
 0.13799999E+02 -0.33332E+04
 0.13849999E+02 -0.32776E+04
 0.13899999E+02 -0.32381E+04
 0.13949999E+02 -0.31900E+04
 0.13999999E+02 -0.31703E+04
 0.14049999E+02 -0.31538E+04
 0.14099998E+02 -0.31538E+04
 0.14150000E+02 -0.31740E+04
 0.14199999E+02 -0.31685E+04
 0.14249998E+02 -0.31989E+04
 0.14299999E+02 -0.32292E+04
 0.14349998E+02 -0.32511E+04
 0.14400000E+02 -0.32914E+04
 0.14449999E+02 -0.32992E+04
 0.14499998E+02 -0.33170E+04
 0.14549999E+02 -0.33576E+04
 0.14599998E+02 -0.33881E+04
 0.14650000E+02 -0.34182E+04
 0.14699999E+02 -0.34149E+04
 0.14749998E+02 -0.34172E+04
 0.14799999E+02 -0.34329E+04
 0.14849998E+02 -0.34072E+04
 0.14900000E+02 -0.34212E+04
 0.14949999E+02 -0.34132E+04
 0.14999998E+02 -0.34044E+04
 0.15049999E+02 -0.34233E+04
 0.15099998E+02 -0.33955E+04
 0.15150000E+02 -0.34006E+04
 0.15199999E+02 -0.33778E+04
 0.15249998E+02 -0.33633E+04
 0.15299999E+02 -0.33469E+04
 0.15349998E+02 -0.32955E+04
 0.15400000E+02 -0.32627E+04
 0.15449999E+02 -0.32015E+04
 0.15499998E+02 -0.31427E+04
 0.15549999E+02 -0.30932E+04
 0.15599998E+02 -0.30457E+04
 0.15650000E+02 -0.30284E+04
 0.15699999E+02 -0.30139E+04
 0.15749998E+02 -0.30081E+04
 0.15799999E+02 -0.30143E+04
 0.15849998E+02 -0.30091E+04
 0.15900000E+02 -0.30520E+04
 0.15949999E+02 -0.30742E+04
 0.15999998E+02 -0.31013E+04
 0.16049999E+02 -0.31532E+04
 0.16099998E+02 -0.31964E+04
 0.16150000E+02 -0.32579E+04
 0.16199999E+02 -0.32928E+04
 0.16249998E+02 -0.33339E+04
 0.16299999E+02 -0.34091E+04
 0.16349998E+02 -0.34560E+04
 0.16400000E+02 -0.34916E+04
 0.16449999E+02 -0.35418E+04
 0.16499998E+02 -0.35472E+04
 0.16549999E+02 -0.35859E+04
 0.16599998E+02 -0.36196E+04
 0.16650000E+02 -0.36169E+04
 0.16699999E+02 -0.36180E+04
 0.16749998E+02 -0.35910E+04
 0.16799999E+02 -0.35631E+04
 0.16849998E+02 -0.35373E+04
 0.16900000E+02 -0.34952E+04
 0.16949999E+02 -0.34603E+04
 0.16999998E+02 -0.34207E+04
 0.17049999E+02 -0.33713E+04
 0.17099998E+02 -0.33244E+04
 0.17150000E+02 -0.32894E+04
 0.17199999E+02 -0.32717E+04
 0.17249998E+02 -0.32452E+04
 0.17299999E+02 -0.32315E+04
 0.17349998E+02 -0.32312E+04
 0.17400000E+02 -0.32206E+04
 0.17449999E+02 -0.32278E+04
 0.17499998E+02 -0.32367E+04
 0.17549999E+02 -0.32523E+04
 0.17599998E+02 -0.32767E+04
 0.17650000E+02 -0.32870E+04
 0.17699999E+02 -0.33066E+04
 0.17749998E+02 -0.32861E+04
 0.17799999E+02 -0.32815E+04
 0.17849998E+02 -0.32893E+04
 0.17900000E+02 -0.32686E+04
 0.17949999E+02 -0.32805E+04
 0.17999998E+02 -0.32626E+04
 0.18049999E+02 -0.32384E+04
 0.18099998E+02 -0.32217E+04
 0.18150000E+02 -0.31972E+04
 0.18199999E+02 -0.31697E+04
 0.18249998E+02 -0.31699E+04
 0.18299999E+02 -0.31804E+04
 0.18349998E+02 -0.31920E+04
 0.18400000E+02 -0.32387E+04
 0.18449999E+02 -0.32289E+04
 0.18499998E+02 -0.32420E+04
 0.18549999E+02 -0.32468E+04
 0.18599998E+02 -0.32344E+04
 0.18650000E+02 -0.32514E+04
 0.18699999E+02 -0.32453E+04
 0.18749998E+02 -0.32571E+04
 0.18799999E+02 -0.32546E+04
 0.18849998E+02 -0.32470E+04
 0.18900000E+02 -0.32670E+04
 0.18949999E+02 -0.32793E+04
 0.18999998E+02 -0.33081E+04
 0.19049999E+02 -0.33431E+04
 0.19099998E+02 -0.33476E+04
 0.19150000E+02 -0.33815E+04
 0.19199999E+02 -0.33862E+04
 0.19249998E+02 -0.34007E+04
 0.19299999E+02 -0.34214E+04
 0.19349998E+02 -0.34270E+04
 0.19400000E+02 -0.34665E+04
 0.19449999E+02 -0.34838E+04
 0.19499998E+02 -0.34774E+04
 0.19549999E+02 -0.34752E+04
 0.19599998E+02 -0.34779E+04
 0.19650000E+02 -0.34379E+04
 0.19699999E+02 -0.34098E+04
 0.19749998E+02 -0.33831E+04
 0.19799999E+02 -0.33776E+04
 0.19849998E+02 -0.33525E+04
 0.19900000E+02 -0.32995E+04
 0.19949999E+02 -0.32724E+04
 0.19999998E+02 -0.32306E+04
 0.20049999E+02 -0.32240E+04
 0.20099998E+02 -0.32088E+04
 0.20150000E+02 -0.32090E+04
 0.20199999E+02 -0.32101E+04
 0.20249998E+02 -0.32056E+04
 0.20299999E+02 -0.32139E+04
 0.20349998E+02 -0.32436E+04
 0.20399998E+02 -0.32775E+04
 0.20449999E+02 -0.33476E+04
 0.20499998E+02 -0.33921E+04
 0.20549999E+02 -0.34195E+04
 0.20599998E+02 -0.34572E+04
 0.20649998E+02 -0.34448E+04
 0.20699999E+02 -0.34566E+04
 0.20749998E+02 -0.34547E+04
 0.20799999E+02 -0.34553E+04
 0.20849998E+02 -0.34418E+04
 0.20899998E+02 -0.34154E+04
 0.20949999E+02 -0.33948E+04
 0.20999998E+02 -0.33592E+04
 0.21049999E+02 -0.33227E+04
 0.21099998E+02 -0.32842E+04
 0.21149998E+02 -0.32704E+04
 0.21199999E+02 -0.32835E+04
 0.21249998E+02 -0.32684E+04
 0.21299999E+02 -0.32608E+04
 0.21349998E+02 -0.32462E+04
 0.21399998E+02 -0.32404E+04
 0.21449999E+02 -0.32356E+04
 0.21499998E+02 -0.32436E+04
 0.21549999E+02 -0.32474E+04
 0.21599998E+02 -0.32147E+04
 0.21649998E+02 -0.31912E+04
 0.21699999E+02 -0.31479E+04
 0.21749998E+02 -0.31289E+04
 0.21799999E+02 -0.30960E+04
 0.21849998E+02 -0.30883E+04
 0.21899998E+02 -0.30758E+04
 0.21949999E+02 -0.30733E+04
 0.21999998E+02 -0.30628E+04
 0.22049999E+02 -0.30624E+04
 0.22099998E+02 -0.30859E+04
 0.22149998E+02 -0.31124E+04
 0.22199999E+02 -0.31551E+04
 0.22249998E+02 -0.32050E+04
 0.22299999E+02 -0.32651E+04
 0.22349998E+02 -0.32833E+04
 0.22399998E+02 -0.33548E+04
 0.22449999E+02 -0.33978E+04
 0.22499998E+02 -0.34223E+04
 0.22549999E+02 -0.34742E+04
 0.22599998E+02 -0.34980E+04
 0.22649998E+02 -0.35128E+04
 0.22699999E+02 -0.34902E+04
 0.22749998E+02 -0.34716E+04
 0.22799999E+02 -0.34763E+04
 0.22849998E+02 -0.34449E+04
 0.22899998E+02 -0.34541E+04
 0.22949999E+02 -0.34213E+04
 0.22999998E+02 -0.34245E+04
 0.23049999E+02 -0.34089E+04
 0.23099998E+02 -0.33993E+04
 0.23149998E+02 -0.34025E+04
 0.23199999E+02 -0.33864E+04
 0.23249998E+02 -0.34013E+04
 0.23299999E+02 -0.33860E+04
 0.23349998E+02 -0.33848E+04
 0.23399998E+02 -0.33850E+04
 0.23449999E+02 -0.33568E+04
 0.23499998E+02 -0.33500E+04
 0.23549999E+02 -0.33734E+04
 0.23599998E+02 -0.33566E+04
 0.23649998E+02 -0.33891E+04
 0.23699999E+02 -0.33875E+04
 0.23749998E+02 -0.33899E+04
 0.23799999E+02 -0.33674E+04
 0.23849998E+02 -0.33643E+04
 0.23899998E+02 -0.33577E+04
 0.23949999E+02 -0.33241E+04
 0.23999998E+02 -0.33210E+04
 0.24049999E+02 -0.33045E+04
 0.24099998E+02 -0.32818E+04
 0.24149998E+02 -0.32600E+04
 0.24199999E+02 -0.32317E+04
 0.24249998E+02 -0.32198E+04
 0.24299999E+02 -0.32044E+04
 0.24349998E+02 -0.31758E+04
 0.24399998E+02 -0.31881E+04
 0.24449999E+02 -0.31795E+04
 0.24499998E+02 -0.31855E+04
 0.24549999E+02 -0.32084E+04
 0.24599998E+02 -0.32322E+04
 0.24649998E+02 -0.32310E+04
 0.24699999E+02 -0.32368E+04
 0.24749998E+02 -0.32752E+04
 0.24799999E+02 -0.32864E+04
 0.24849998E+02 -0.32996E+04
 0.24899998E+02 -0.33001E+04
 0.24949999E+02 -0.33140E+04
 0.24999998E+02 -0.33014E+04
 0.25049999E+02 -0.32917E+04
 0.25099998E+02 -0.33086E+04
 0.25149998E+02 -0.32596E+04
 0.25199999E+02 -0.32854E+04
 0.25249998E+02 -0.32308E+04
 0.25299999E+02 -0.32260E+04
 0.25349998E+02 -0.32317E+04
 0.25399998E+02 -0.32042E+04
 0.25449999E+02 -0.32383E+04
 0.25499998E+02 -0.32255E+04
 0.25549999E+02 -0.32342E+04
 0.25599998E+02 -0.32285E+04
 0.25649998E+02 -0.32350E+04
 0.25699999E+02 -0.32369E+04
 0.25749998E+02 -0.32206E+04
 0.25799999E+02 -0.32278E+04
 0.25849998E+02 -0.32620E+04
 0.25899998E+02 -0.32596E+04
 0.25949999E+02 -0.32857E+04
 0.25999998E+02 -0.33180E+04
 0.26049999E+02 -0.33639E+04
 0.26099998E+02 -0.33861E+04
 0.26149998E+02 -0.34146E+04
 0.26199999E+02 -0.34562E+04
 0.26249998E+02 -0.34818E+04
 0.26299999E+02 -0.35007E+04
 0.26349998E+02 -0.35106E+04
 0.26399998E+02 -0.35392E+04
 0.26449999E+02 -0.35499E+04
 0.26499998E+02 -0.35377E+04
 0.26549999E+02 -0.35358E+04
 0.26599998E+02 -0.35467E+04
 0.26649998E+02 -0.35174E+04
 0.26699999E+02 -0.35092E+04
 0.26749998E+02 -0.35001E+04
 0.26799999E+02 -0.34560E+04
 0.26849998E+02 -0.33929E+04
 0.26899998E+02 -0.33254E+04
 0.26949999E+02 -0.32990E+04
 0.26999998E+02 -0.32514E+04
 0.27049997E+02 -0.32005E+04
 0.27099998E+02 -0.31812E+04
 0.27149998E+02 -0.31521E+04
 0.27199999E+02 -0.31437E+04
 0.27249998E+02 -0.31655E+04
 0.27299997E+02 -0.31667E+04
 0.27349998E+02 -0.32030E+04
 0.27399998E+02 -0.32456E+04
 0.27449999E+02 -0.32543E+04
 0.27499998E+02 -0.33054E+04
 0.27549997E+02 -0.33380E+04
 0.27599998E+02 -0.33597E+04
 0.27649998E+02 -0.33660E+04
 0.27699999E+02 -0.33458E+04
 0.27749998E+02 -0.33306E+04
 0.27799997E+02 -0.33353E+04
 0.27849998E+02 -0.33972E+04
 0.27899998E+02 -0.34526E+04
 0.27949999E+02 -0.32810E+04
 0.27999998E+02 -0.30877E+04
 0.28049997E+02 -0.31069E+04
 0.28099998E+02 -0.32132E+04
 0.28149998E+02 -0.32302E+04
 0.28199999E+02 -0.32760E+04
 0.28249998E+02 -0.34116E+04
 0.28299997E+02 -0.32779E+04
 0.28349998E+02 -0.29818E+04
 0.28399998E+02 -0.31192E+04
 0.28449999E+02 -0.34710E+04
 0.28499998E+02 -0.35078E+04
 0.28549997E+02 -0.32396E+04
 0.28599998E+02 -0.31040E+04
 0.28649998E+02 -0.31324E+04
 0.28699999E+02 -0.33513E+04
 0.28749998E+02 -0.36980E+04
 0.28799997E+02 -0.36143E+04
 0.28849998E+02 -0.32404E+04
 0.28899998E+02 -0.28410E+04
 0.28949999E+02 -0.27844E+04
 0.28999998E+02 -0.35382E+04
 0.29049997E+02 -0.38942E+04
 0.29099998E+02 -0.35724E+04
 0.29149998E+02 -0.32363E+04
 0.29199999E+02 -0.23453E+04
 0.29249998E+02 -0.23917E+04
 0.29299997E+02 -0.27675E+04
 0.29349998E+02 -0.37773E+04
 0.29399998E+02 -0.40141E+04
 0.29449999E+02 -0.30239E+04
 0.29499998E+02 -0.33066E+04
 0.29549997E+02 -0.28996E+04
 0.29599998E+02 -0.23107E+04
 0.29649998E+02 -0.35946E+04
 0.29699999E+02 -0.40290E+04
 0.29749998E+02 -0.37832E+04
 0.29799997E+02 -0.36045E+04
 0.29849998E+02 -0.29583E+04
 0.29899998E+02 -0.34799E+04
 0.29949999E+02 -0.31257E+04
 0.29999998E+02 -0.30445E+04
 0.30049999E+02 -0.44030E+04
 0.30099998E+02 -0.39615E+04
 0.30149998E+02 -0.23943E+04
 0.30199997E+02 -0.35905E+04
 0.30249996E+02 -0.42316E+04
 0.30299999E+02 -0.26299E+04
 0.30349998E+02 -0.38617E+04
 0.30399998E+02 -0.43464E+04
 0.30449997E+02 -0.26757E+04
 0.30499996E+02 -0.44341E+04
 0.30549999E+02 -0.42702E+04
 0.30599998E+02 -0.23864E+04
 0.30649998E+02 -0.32293E+04
 0.30699997E+02 -0.19117E+04
 0.30749996E+02 -0.24935E+04
 0.30799999E+02 -0.52578E+04
 0.30849998E+02 -0.15919E+04
 0.30899998E+02 -0.23663E+04
 0.30949997E+02 -0.50527E+04
 0.30999996E+02 -0.30220E+04
 0.31049999E+02 -0.43314E+04
 0.31099998E+02 -0.56040E+04
 0.31149998E+02 -0.29794E+04
 0.31199997E+02 -0.19233E+04
 0.31249996E+02 -0.36414E+04
 0.31299999E+02 -0.15309E+04
 0.31349998E+02 -0.22594E+04
 0.31399998E+02 -0.37203E+04
 0.31449997E+02 -0.30389E+04
 0.31499996E+02 -0.40589E+04
 0.31549999E+02 -0.41704E+04
 0.31599998E+02 -0.29086E+04
 0.31649998E+02 -0.31769E+04
 0.31699997E+02 -0.23914E+04
 0.31749996E+02 -0.30349E+04
 0.31799999E+02 -0.53217E+04
 0.31849998E+02 -0.34759E+04
 0.31899998E+02 -0.36001E+04
 0.31949997E+02 -0.44512E+04
 0.31999996E+02 -0.70145E+03
 0.32049999E+02 -0.18353E+04
 0.32099998E+02 -0.50700E+04
 0.32149998E+02 -0.27932E+04
 0.32199997E+02 -0.25767E+04
 0.32249996E+02 -0.31393E+04
 0.32299999E+02 -0.26185E+04
 0.32349998E+02 -0.32806E+04
 0.32399998E+02 -0.32833E+04
 0.32449997E+02 -0.21631E+04
 0.32499996E+02 -0.33527E+04
 0.32549999E+02 -0.42843E+04
 0.32599998E+02 -0.24879E+04
 0.32649998E+02 -0.14405E+04
 0.32699997E+02 -0.34759E+04
 0.32749996E+02 -0.46798E+04
 0.32799999E+02 -0.54988E+04
 0.32849998E+02 -0.53338E+04
 0.32899998E+02 -0.20248E+04
 0.32949997E+02 -0.43455E+04
 0.32999996E+02 -0.36787E+04
 0.33049999E+02 -0.95931E+03
 0.33099998E+02 -0.52416E+04
 0.33149998E+02 -0.46088E+04
 0.33199997E+02 -0.23658E+04
 0.33249996E+02 -0.18122E+04
 0.33299999E+02 -0.11674E+04
 0.33349998E+02 -0.23347E+04
 0.33399998E+02 -0.45924E+04
 0.33449997E+02 -0.47184E+04
 0.33499996E+02 -0.28879E+04
 0.33549999E+02 -0.21538E+03
 0.33599998E+02 -0.13713E+04
 0.33649998E+02 -0.39279E+04
 0.33699997E+02 -0.41234E+04
 0.33749996E+02 -0.65089E+04
 0.33799999E+02 -0.53533E+04
 0.33849998E+02 -0.28800E+04
 0.33899998E+02 -0.23102E+04
 0.33949997E+02 -0.38920E+04
 0.33999996E+02 -0.33878E+04
 0.34049999E+02 -0.20123E+04
 0.34099998E+02 -0.37516E+04
 0.34149998E+02 -0.43601E+04
 0.34199997E+02 -0.37356E+04
 0.34249996E+02 -0.43442E+04
 0.34299999E+02 -0.22669E+04
 0.34349998E+02 -0.26760E+04
 0.34399998E+02 -0.45197E+04
 0.34449997E+02 -0.27211E+04
 0.34499996E+02 -0.29466E+04
 0.34549999E+02 -0.39038E+04
 0.34599998E+02 -0.40381E+04
 0.34649998E+02 -0.25644E+04
 0.34699997E+02 -0.12525E+04
 0.34749996E+02 -0.24747E+04
 0.34799999E+02 -0.51470E+04
 0.34849998E+02 -0.50834E+04
 0.34899998E+02 -0.34693E+04
 0.34949997E+02 -0.36927E+04
 0.34999996E+02 -0.31580E+04
 0.35049999E+02 -0.18725E+04
 0.35099998E+02 -0.40751E+04
 0.35149998E+02 -0.34375E+04
 0.35199997E+02 -0.38046E+04
 0.35249996E+02 -0.59836E+04
 0.35299999E+02 -0.20958E+04
 0.35349998E+02 -0.40315E+03
 0.35399998E+02 -0.38052E+04
 0.35449997E+02 -0.37008E+04
 0.35499996E+02 -0.38749E+04
 0.35549999E+02 -0.29965E+04
 0.35599998E+02 -0.20018E+04
 0.35649998E+02 -0.39758E+04
 0.35699997E+02 -0.26624E+04
 0.35749996E+02 -0.36116E+04
 0.35799999E+02 -0.24132E+04
 0.35849998E+02 -0.25062E+04
 0.35899998E+02 -0.31764E+04
 0.35949997E+02 -0.21435E+04
 0.35999996E+02 -0.19984E+04
 0.36049999E+02 -0.27307E+04
 0.36099998E+02 -0.45663E+04
 0.36149998E+02 -0.39331E+04
 0.36199997E+02 -0.24331E+04
 0.36249996E+02 -0.34169E+04
 0.36299999E+02 -0.40980E+04
 0.36349998E+02 -0.36867E+04
 0.36399998E+02 -0.47825E+04
 0.36449997E+02 -0.29238E+04
 0.36499996E+02 -0.29523E+04
 0.36549999E+02 -0.52257E+04
 0.36599998E+02 -0.38119E+04
 0.36649998E+02 -0.23877E+04
 0.36699997E+02 -0.38556E+04
 0.36749996E+02 -0.41654E+04
 0.36799999E+02 -0.33474E+04
 0.36849998E+02 -0.43579E+04
 0.36899998E+02 -0.27940E+04
 0.36949997E+02 -0.19671E+04
 0.36999996E+02 -0.53673E+04
 0.37049999E+02 -0.23104E+04
 0.37099998E+02 -0.27759E+04
 0.37149998E+02 -0.34842E+04
 0.37199997E+02 -0.20502E+04
 0.37249996E+02 -0.46876E+04
 0.37299999E+02 -0.29458E+04
 0.37349998E+02 -0.13060E+04
 0.37399998E+02 -0.14051E+04
 0.37449997E+02 -0.25639E+04
 0.37499996E+02 -0.34048E+04
 0.37549999E+02 -0.37675E+04
 0.37599998E+02 -0.37742E+04
 0.37649998E+02 -0.39452E+04
 0.37699997E+02 -0.36950E+04
 0.37749996E+02 -0.57507E+04
 0.37799999E+02 -0.43252E+04
 0.37849998E+02 -0.32334E+04
 0.37899998E+02 -0.34919E+04
 0.37949997E+02 -0.10950E+04
 0.37999996E+02 -0.32583E+04
 0.38049999E+02 -0.44044E+04
 0.38099998E+02 -0.32264E+04
 0.38149998E+02 -0.37632E+04
 0.38199997E+02 -0.49896E+04
 0.38249996E+02 -0.48977E+04
 0.38299999E+02 -0.30464E+04
 0.38349998E+02 -0.74333E+03
 0.38399998E+02 -0.13733E+04
 0.38449997E+02 -0.35238E+04
 0.38499996E+02 -0.28632E+04
 0.38549999E+02 -0.18618E+04
 0.38599998E+02 -0.41193E+04
 0.38649998E+02 -0.34165E+04
 0.38699997E+02 -0.26793E+04
 0.38749996E+02 -0.23519E+04
 0.38799999E+02 -0.21267E+04
 0.38849998E+02 -0.47230E+04
 0.38899998E+02 -0.57300E+04
 0.38949997E+02 -0.40796E+04
 0.38999996E+02 -0.26940E+04
 0.39049999E+02 -0.42922E+04
 0.39099998E+02 -0.45877E+04
 0.39149998E+02 -0.31642E+04
 0.39199997E+02 -0.36946E+04
 0.39249996E+02 -0.44737E+04
 0.39299999E+02 -0.21743E+04
 0.39349998E+02 -0.20082E+04
 0.39399998E+02 -0.34118E+04
 0.39449997E+02 -0.22577E+04
 0.39499996E+02 -0.28776E+04
 0.39549999E+02 -0.29941E+04
 0.39599998E+02 -0.34780E+04
 0.39649998E+02 -0.32431E+04
 0.39699997E+02 -0.28243E+04
 0.39749996E+02 -0.31880E+04
 0.39799999E+02 -0.33069E+04
 0.39849998E+02 -0.20392E+04
 0.39899998E+02 -0.24307E+04
 0.39949997E+02 -0.47913E+04
 0.39999996E+02 -0.15255E+04
 0.40049999E+02 -0.25978E+04
 0.40099998E+02 -0.39871E+04
 0.40149998E+02 -0.21401E+04
 0.40199997E+02 -0.31049E+04
 0.40249996E+02 -0.43394E+04
 0.40299999E+02 -0.39862E+04
 0.40349998E+02 -0.40529E+04
 0.40399998E+02 -0.44373E+04
 0.40449997E+02 -0.30434E+04
 0.40499996E+02 -0.27273E+04
 0.40549999E+02 -0.31067E+04
 0.40599998E+02 -0.35781E+04
 0.40649998E+02 -0.47320E+04
 0.40699997E+02 -0.63392E+04
 0.40749996E+02 -0.35222E+04
 0.40799999E+02 -0.19819E+04
 0.40849998E+02 -0.29527E+04
 0.40899998E+02 -0.37789E+04
 0.40949997E+02 -0.40986E+04
 0.40999996E+02 -0.33815E+04
 0.41049999E+02 -0.20005E+04
 0.41099998E+02 -0.18826E+04
 0.41149998E+02 -0.34600E+04
 0.41199997E+02 -0.20136E+04
 0.41249996E+02 -0.35836E+04
 0.41299999E+02 -0.35650E+04
 0.41349998E+02 -0.32939E+04
 0.41399998E+02 -0.41091E+04
 0.41449997E+02 -0.35919E+04
 0.41499996E+02 -0.38888E+04
 0.41549999E+02 -0.41780E+04
 0.41599998E+02 -0.28041E+04
 0.41649998E+02 -0.22910E+04
 0.41699997E+02 -0.42931E+04
 0.41749996E+02 -0.42993E+04
 0.41799999E+02 -0.24428E+04
 0.41849998E+02 -0.25839E+04
 0.41899998E+02 -0.35212E+04
 0.41949997E+02 -0.24981E+04
 0.41999996E+02 -0.32530E+04
 0.42049999E+02 -0.23183E+04
 0.42099998E+02 -0.21699E+04
 0.42149998E+02 -0.39566E+04
 0.42199997E+02 -0.53801E+04
 0.42249996E+02 -0.42758E+04
 0.42299999E+02 -0.39115E+04
 0.42349998E+02 -0.37346E+04
 0.42399998E+02 -0.33573E+04
 0.42449997E+02 -0.44484E+04
 0.42499996E+02 -0.33260E+04
 0.42549999E+02 -0.17661E+04
 0.42599998E+02 -0.20648E+04
 0.42649998E+02 -0.32734E+04
 0.42699997E+02 -0.23461E+04
 0.42749996E+02 -0.29617E+04
 0.42799995E+02 -0.33496E+04
 0.42849998E+02 -0.44796E+04
 0.42899998E+02 -0.39298E+04
 0.42949997E+02 -0.10650E+04
 0.42999996E+02 -0.16442E+04
 0.43049995E+02 -0.24861E+04
 0.43099998E+02 -0.59120E+03
 0.43149998E+02 -0.16781E+04
 0.43199997E+02 -0.40343E+04
 0.43249996E+02 -0.37166E+04
 0.43299995E+02 -0.46019E+04
 0.43349998E+02 -0.46688E+04
 0.43399998E+02 -0.32452E+04
 0.43449997E+02 -0.39716E+04
 0.43499996E+02 -0.47349E+04
 0.43549995E+02 -0.30692E+04
 0.43599998E+02 -0.29108E+04
 0.43649998E+02 -0.34051E+04
 0.43699997E+02 -0.43360E+04
 0.43749996E+02 -0.38749E+04
 0.43799995E+02 -0.42015E+04
 0.43849998E+02 -0.44442E+04
 0.43899998E+02 -0.30288E+04
 0.43949997E+02 -0.40208E+04
 0.43999996E+02 -0.44312E+04
 0.44049995E+02 -0.26654E+04
 0.44099998E+02 -0.30430E+04
 0.44149998E+02 -0.40270E+04
 0.44199997E+02 -0.21272E+04
 0.44249996E+02 -0.92039E+03
 0.44299995E+02 -0.11583E+04
 0.44349998E+02 -0.31397E+04
 0.44399998E+02 -0.26688E+04
 0.44449997E+02 -0.25782E+04
 0.44499996E+02 -0.40180E+04
 0.44549995E+02 -0.40750E+04
 0.44599998E+02 -0.53712E+04
 0.44649998E+02 -0.52733E+04
 0.44699997E+02 -0.39414E+04
 0.44749996E+02 -0.31549E+04
 0.44799995E+02 -0.37725E+04
 0.44849998E+02 -0.31672E+04
 0.44899998E+02 -0.27038E+04
 0.44949997E+02 -0.41310E+04
 0.44999996E+02 -0.34574E+04
 0.45049995E+02 -0.25729E+04
 0.45099998E+02 -0.19595E+04
 0.45149998E+02 -0.21015E+04
 0.45199997E+02 -0.33201E+04
 0.45249996E+02 -0.31232E+04
 0.45299995E+02 -0.30514E+04
 0.45349998E+02 -0.38887E+04
 0.45399998E+02 -0.35461E+04
 0.45449997E+02 -0.30813E+04
 0.45499996E+02 -0.34564E+04
 0.45549995E+02 -0.38435E+04
 0.45599998E+02 -0.45093E+04
 0.45649998E+02 -0.40365E+04
 0.45699997E+02 -0.33088E+04
 0.45749996E+02 -0.29136E+04
 0.45799995E+02 -0.22788E+04
 0.45849998E+02 -0.27786E+04
 0.45899998E+02 -0.31214E+04
 0.45949997E+02 -0.36180E+04
 0.45999996E+02 -0.43591E+04
 0.46049995E+02 -0.33279E+04
 0.46099998E+02 -0.26906E+04
 0.46149998E+02 -0.34888E+04
 0.46199997E+02 -0.31089E+04
 0.46249996E+02 -0.29597E+04
 0.46299995E+02 -0.31741E+04
 0.46349998E+02 -0.23022E+04
 0.46399998E+02 -0.36708E+04
 0.46449997E+02 -0.35630E+04
 0.46499996E+02 -0.30020E+04
 0.46549995E+02 -0.34953E+04
 0.46599998E+02 -0.34566E+04
 0.46649998E+02 -0.42199E+04
 0.46699997E+02 -0.41509E+04
 0.46749996E+02 -0.35547E+04
 0.46799995E+02 -0.32449E+04
 0.46849998E+02 -0.28984E+04
 0.46899998E+02 -0.26099E+04
 0.46949997E+02 -0.30609E+04
 0.46999996E+02 -0.25166E+04
 0.47049995E+02 -0.35664E+04
 0.47099998E+02 -0.42654E+04
 0.47149998E+02 -0.35998E+04
 0.47199997E+02 -0.34889E+04
 0.47249996E+02 -0.37540E+04
 0.47299995E+02 -0.33931E+04
 0.47349998E+02 -0.23301E+04
 0.47399998E+02 -0.29748E+04
 0.47449997E+02 -0.37636E+04
 0.47499996E+02 -0.21613E+04
 0.47549995E+02 -0.19239E+04
 0.47599998E+02 -0.30956E+04
 0.47649998E+02 -0.27615E+04
 0.47699997E+02 -0.33857E+04
 0.47749996E+02 -0.47477E+04
 0.47799995E+02 -0.60975E+04
 0.47849998E+02 -0.38690E+04
 0.47899998E+02 -0.39377E+04
 0.47949997E+02 -0.44454E+04
 0.47999996E+02 -0.32602E+04
 0.48049995E+02 -0.32627E+04
 0.48099998E+02 -0.27387E+04
 0.48149998E+02 -0.27840E+04
 0.48199997E+02 -0.30697E+04
 0.48249996E+02 -0.34498E+04
 0.48299995E+02 -0.32267E+04
 0.48349998E+02 -0.29618E+04
 0.48399998E+02 -0.21242E+04
 0.48449997E+02 -0.27171E+04
 0.48499996E+02 -0.32062E+04
 0.48549995E+02 -0.25336E+04
 0.48599998E+02 -0.20653E+04
 0.48649998E+02 -0.28223E+04
 0.48699997E+02 -0.39388E+04
 0.48749996E+02 -0.29915E+04
 0.48799995E+02 -0.21645E+04
 0.48849998E+02 -0.26365E+04
 0.48899998E+02 -0.36569E+04
 0.48949997E+02 -0.38168E+04
 0.48999996E+02 -0.46835E+04
 0.49049995E+02 -0.46722E+04
 0.49099998E+02 -0.24534E+04
 0.49149998E+02 -0.30740E+04
 0.49199997E+02 -0.41646E+04
 0.49249996E+02 -0.51658E+04
 0.49299995E+02 -0.47708E+04
 0.49349998E+02 -0.26839E+04
 0.49399998E+02 -0.19340E+04
 0.49449997E+02 -0.22546E+04
 0.49499996E+02 -0.37265E+04
 0.49549995E+02 -0.34661E+04
 0.49599998E+02 -0.30493E+04
 0.49649998E+02 -0.43784E+04
 0.49699997E+02 -0.45941E+04
 0.49749996E+02 -0.37670E+04
 0.49799995E+02 -0.27676E+04
 0.49849998E+02 -0.29051E+04
 0.49899998E+02 -0.34676E+04
 0.49949997E+02 -0.27838E+04
 0.49999996E+02 -0.27911E+04
 0.50049995E+02 -0.21863E+04
 0.50099998E+02 -0.11844E+04
 0.50149998E+02 -0.28303E+04
 0.50199997E+02 -0.39804E+04
 0.50249996E+02 -0.29036E+04
 0.50299995E+02 -0.22482E+04
 0.50349998E+02 -0.30739E+04
 0.50399998E+02 -0.44643E+04
 0.50449997E+02 -0.59561E+04
 0.50499996E+02 -0.58813E+04
 0.50549995E+02 -0.17060E+04
 0.50599998E+02 -0.13224E+04
 0.50649998E+02 -0.41496E+04
 0.50699997E+02 -0.41120E+04
 0.50749996E+02 -0.34812E+04
 0.50799995E+02 -0.19282E+04
 0.50849998E+02 -0.12283E+04
 0.50899998E+02 -0.75820E+03
 0.50949997E+02 -0.36659E+04
 0.50999996E+02 -0.44148E+04
 0.51049995E+02 -0.24663E+04
 0.51099998E+02 -0.18569E+04
 0.51149998E+02 -0.27787E+04
 0.51199997E+02 -0.64094E+04
 0.51249996E+02 -0.53328E+04
 0.51299995E+02 -0.40677E+04
 0.51349998E+02 -0.48243E+04
 0.51399998E+02 -0.47091E+04
 0.51449997E+02 -0.22199E+04
 0.51499996E+02 -0.29288E+04
 0.51549995E+02 -0.29595E+04
 0.51599998E+02 -0.96595E+03
 0.51649998E+02 -0.27605E+04
 0.51699997E+02 -0.38682E+04
 0.51749996E+02 -0.32256E+04
 0.51799995E+02 -0.75230E+03
 0.51849998E+02 -0.50131E+04
 0.51899998E+02 -0.50519E+04
 0.51949997E+02 -0.41605E+04
 0.51999996E+02 -0.35407E+04
 0.52049995E+02 -0.29427E+04
 0.52099998E+02 -0.67986E+04
 0.52149998E+02 -0.38949E+04
 0.52199997E+02 -0.37965E+04
 0.52249996E+02 -0.15494E+04
 0.52299995E+02 -0.73460E+03
 0.52349998E+02 -0.14375E+04
 0.52399998E+02 -0.31591E+04
 0.52449997E+02 -0.54486E+04
 0.52499996E+02 -0.17765E+04
 0.52549995E+02 -0.12835E+04
 0.52599998E+02 -0.21156E+04
 0.52649998E+02 -0.18572E+04
 0.52699997E+02 -0.40511E+04
 0.52749996E+02 -0.62141E+04
 0.52799995E+02 -0.37243E+04
 0.52849998E+02 -0.26106E+04
 0.52899998E+02 -0.50201E+04
 0.52949997E+02 -0.18434E+04
 0.52999996E+02 -0.29894E+04
 0.53049995E+02 -0.53620E+04
 0.53099998E+02 -0.34605E+04
 0.53149998E+02 -0.43929E+04
 0.53199997E+02 -0.19142E+04
 0.53249996E+02 -0.24211E+04
 0.53299995E+02 -0.43338E+04
 0.53349998E+02 -0.32057E+04
 0.53399998E+02 -0.38312E+04
 0.53449997E+02 -0.38328E+04
 0.53499996E+02 -0.90384E+03
 0.53549995E+02 -0.10042E+04
 0.53599998E+02 -0.38905E+04
 0.53649998E+02 -0.46153E+04
 0.53699997E+02 -0.48957E+04
 0.53749996E+02 -0.50740E+04
 0.53799995E+02 -0.19120E+04
 0.53849998E+02 -0.25156E+04
 0.53899998E+02 -0.29354E+04
 0.53949997E+02 -0.28200E+04
 0.53999996E+02 -0.44709E+04
 0.54049995E+02 -0.48228E+04
 0.54099998E+02 -0.34268E+04
 0.54149998E+02 -0.20371E+04
 0.54199997E+02 -0.25425E+04
 0.54249996E+02 -0.39644E+04
 0.54299995E+02 -0.35604E+04
 0.54349998E+02 -0.16701E+04
 0.54399998E+02 -0.39413E+04
 0.54449997E+02 -0.12798E+04
 0.54499996E+02 -0.19401E+04
 0.54549995E+02 -0.47340E+04
 0.54599998E+02 -0.50672E+04
 0.54649998E+02 -0.65956E+04
 0.54699997E+02 -0.40556E+04
 0.54749996E+02 -0.20189E+04
 0.54799995E+02 -0.12132E+04
 0.54849998E+02 -0.38102E+04
 0.54899998E+02 -0.48707E+04
 0.54949997E+02 -0.21690E+04
 0.54999996E+02 -0.29291E+04
 0.55049995E+02 -0.18844E+04
 0.55099998E+02 -0.17792E+04
 0.55149998E+02 -0.45052E+04
 0.55199997E+02 -0.67167E+04
 0.55249996E+02 -0.33953E+04
 0.55299995E+02 -0.17223E+04
 0.55349998E+02 -0.30710E+04
 0.55399998E+02 -0.40092E+04
 0.55449997E+02 -0.48086E+04
 0.55499996E+02 -0.38700E+04
 0.55549995E+02 -0.17289E+04
 0.55599998E+02 -0.13849E+04
 0.55649998E+02 -0.43142E+04
 0.55699997E+02 -0.44745E+04
 0.55749996E+02 -0.25222E+04
 0.55799995E+02 -0.11855E+04
 0.55849995E+02 -0.26919E+04
 0.55899998E+02 -0.28883E+04
 0.55949997E+02 -0.24443E+04
 0.55999996E+02 -0.34198E+04
 0.56049995E+02 -0.46170E+04
 0.56099995E+02 -0.18968E+04
 0.56149998E+02 -0.34258E+04
 0.56199997E+02 -0.65059E+04
 0.56249996E+02 -0.28577E+04
 0.56299995E+02 -0.10598E+04
 0.56349995E+02 -0.35612E+04
 0.56399998E+02 -0.39319E+04
 0.56449997E+02 -0.16765E+04
 0.56499996E+02 -0.47207E+04
 0.56549995E+02 -0.61558E+04
 0.56599995E+02 -0.29547E+04
 0.56649998E+02 -0.13278E+04
 0.56699997E+02 -0.39259E+04
 0.56749996E+02 -0.67449E+04
 0.56799995E+02 -0.52483E+04
 0.56849995E+02 -0.33730E+04
 0.56899998E+02 -0.36649E+04
 0.56949997E+02 -0.41097E+04
 0.56999996E+02 -0.19968E+03
 0.57049995E+02 -0.97006E+03
 0.57099995E+02 -0.48762E+04
 0.57149998E+02 -0.51041E+04
 0.57199997E+02 -0.49419E+04
 0.57249996E+02 -0.47753E+04
 0.57299995E+02 -0.34321E+04
 0.57349995E+02 -0.63605E+03
 0.57399998E+02 -0.73975E+03
 0.57449997E+02 -0.50905E+03
 0.57499996E+02 -0.18961E+04
 0.57549995E+02 -0.26362E+04
 0.57599995E+02 -0.29085E+04
 0.57649998E+02 -0.47394E+04
 0.57699997E+02 -0.19870E+04
 0.57749996E+02 -0.35725E+03
 0.57799995E+02 -0.39749E+04
 0.57849995E+02 -0.38480E+04
 0.57899998E+02 -0.46723E+04
 0.57949997E+02 -0.49041E+04
 0.57999996E+02 -0.18268E+04
 0.58049995E+02 -0.23016E+04
 0.58099995E+02 -0.36835E+04
 0.58149998E+02 -0.62732E+04
 0.58199997E+02 -0.25716E+04
 0.58249996E+02 -0.67290E+02
 0.58299995E+02 -0.40983E+03
 0.58349995E+02 -0.18678E+04
 0.58399998E+02 -0.55302E+04
 0.58449997E+02 -0.39498E+04
 0.58499996E+02 -0.47898E+04
 0.58549995E+02 -0.55220E+04
 0.58599995E+02 -0.29044E+04
 0.58649998E+02 -0.27463E+04
 0.58699997E+02 -0.40605E+04
 0.58749996E+02 -0.31498E+04
 0.58799995E+02 -0.43590E+04
 0.58849995E+02 -0.62400E+04
 0.58899998E+02 -0.40782E+04
 0.58949997E+02 -0.33318E+04
 0.58999996E+02 -0.38547E+04
 0.59049995E+02 -0.37764E+04
 0.59099995E+02 -0.40745E+04
 0.59149998E+02 -0.36340E+04
 0.59199997E+02 -0.28693E+04
 0.59249996E+02 -0.14510E+04
 0.59299995E+02 -0.11505E+04
 0.59349995E+02 -0.33832E+04
 0.59399998E+02 -0.60704E+04
 0.59449997E+02 -0.54397E+04
 0.59499996E+02 -0.22595E+04
 0.59549995E+02 -0.37293E+04
 0.59599995E+02 -0.44400E+04
 0.59649998E+02 -0.30082E+04
 0.59699997E+02 -0.29261E+04
 0.59749996E+02 -0.17244E+04
 0.59799995E+02 -0.16700E+04
 0.59849995E+02 -0.43585E+04
 0.59899998E+02 -0.45596E+04
 0.59949997E+02 -0.88176E+03
 0.59999996E+02 -0.14387E+04
 0.60049995E+02 -0.43731E+04
 0.60099995E+02 -0.49090E+04
 0.60149998E+02 -0.43535E+04
 0.60199997E+02 -0.31419E+04
 0.60249996E+02 -0.32866E+04
 0.60299995E+02 -0.37083E+04
 0.60349995E+02 -0.33867E+04
 0.60399998E+02 -0.61747E+04
 0.60449997E+02 -0.51626E+04
 0.60499996E+02 -0.15866E+04
 0.60549995E+02 -0.32929E+04
 0.60599995E+02 -0.34875E+04
 0.60649998E+02 -0.27064E+04
 0.60699997E+02 -0.22304E+04
 0.60749996E+02 -0.14447E+04
 0.60799995E+02 -0.23049E+04
 0.60849995E+02 -0.27151E+04
 0.60899998E+02 -0.45892E+04
 0.60949997E+02 -0.40743E+04
 0.60999996E+02 -0.12615E+04
 0.61049995E+02 -0.95535E+03
 0.61099995E+02 -0.37260E+04
 0.61149998E+02 -0.55187E+04
 0.61199997E+02 -0.36681E+04
 0.61249996E+02 -0.40944E+04
 0.61299995E+02 -0.56130E+04
 0.61349995E+02 -0.49909E+04
 0.61399998E+02 -0.20080E+04
 0.61449997E+02 -0.14876E+04
 0.61499996E+02 -0.13636E+04
 0.61549995E+02 -0.17043E+04
 0.61599995E+02 -0.30829E+04
 0.61649998E+02 -0.33616E+04
 0.61699997E+02 -0.29036E+04
 0.61749996E+02 -0.35980E+04
 0.61799995E+02 -0.38518E+04
 0.61849995E+02 -0.22707E+04
 0.61899998E+02 -0.29435E+04
 0.61949997E+02 -0.35992E+04
 0.61999996E+02 -0.37081E+04
 0.62049995E+02 -0.32972E+04
 0.62099998E+02 -0.29578E+04
 0.62149994E+02 -0.28642E+04
 0.62199997E+02 -0.43030E+04
 0.62249992E+02 -0.37170E+04
 0.62299995E+02 -0.25007E+04
 0.62349998E+02 -0.33721E+04
 0.62399994E+02 -0.44841E+04
 0.62449997E+02 -0.41946E+04
 0.62499992E+02 -0.53041E+04
 0.62549995E+02 -0.53998E+04
 0.62599998E+02 -0.34684E+04
 0.62649994E+02 -0.26299E+04
 0.62699997E+02 -0.26822E+04
 0.62749992E+02 -0.22305E+04
 0.62799995E+02  0.51404E+02
 0.62849998E+02 -0.22811E+04
 0.62899994E+02 -0.38369E+04
 0.62949997E+02 -0.40375E+04
 0.62999992E+02 -0.30809E+04
 0.63049995E+02 -0.18087E+04
 0.63099998E+02 -0.30632E+04
 0.63149994E+02 -0.14658E+04
 0.63199997E+02 -0.22676E+04
 0.63249992E+02 -0.43620E+04
 0.63299995E+02 -0.33113E+04
 0.63349998E+02 -0.37506E+04
 0.63399994E+02 -0.47730E+04
 0.63449997E+02 -0.37669E+04
 0.63499992E+02 -0.19956E+04
 0.63549995E+02 -0.20545E+04
 0.63599998E+02 -0.35654E+04
 0.63649994E+02 -0.48304E+04
 0.63699997E+02 -0.41089E+04
 0.63749992E+02 -0.37787E+04
 0.63799995E+02 -0.36127E+04
 0.63849998E+02 -0.29999E+04
 0.63899994E+02 -0.28726E+04
 0.63949997E+02 -0.30734E+04
 0.63999992E+02 -0.29414E+04
 0.64049995E+02 -0.36119E+04
 0.64099998E+02 -0.47429E+04
 0.64149994E+02 -0.40868E+04
 0.64199997E+02 -0.29318E+04
 0.64249992E+02 -0.26115E+04
 0.64299995E+02 -0.46154E+04
 0.64349998E+02 -0.39351E+04
 0.64399994E+02 -0.32838E+04
 0.64449997E+02 -0.39683E+04
 0.64499992E+02 -0.37500E+04
 0.64549995E+02 -0.39357E+04
 0.64599998E+02 -0.49731E+04
 0.64649994E+02 -0.40243E+04
 0.64699997E+02 -0.24742E+04
 0.64749992E+02 -0.32814E+04
 0.64799995E+02 -0.36909E+04
 0.64849998E+02 -0.38578E+04
 0.64899994E+02 -0.28466E+04
 0.64949997E+02 -0.21680E+04
 0.64999992E+02 -0.20993E+04
 0.65049995E+02 -0.32183E+04
 0.65099998E+02 -0.46160E+04
 0.65149994E+02 -0.39549E+04
 0.65199997E+02 -0.25526E+04
 0.65249992E+02 -0.36224E+04
 0.65299995E+02 -0.55684E+04
 0.65349998E+02 -0.46503E+04
 0.65399994E+02 -0.26880E+04
 0.65449997E+02 -0.17189E+04
 0.65499992E+02 -0.17528E+04
 0.65549995E+02 -0.21045E+04
 0.65599998E+02 -0.34655E+04
 0.65649994E+02 -0.24628E+04
 0.65699997E+02 -0.25787E+04
 0.65749992E+02 -0.33527E+04
 0.65799995E+02 -0.40023E+04
 0.65849998E+02 -0.49647E+04
 0.65899994E+02 -0.36355E+04
 0.65949997E+02 -0.32624E+04
 0.65999992E+02 -0.30291E+04
 0.66049995E+02 -0.32406E+04
 0.66099998E+02 -0.36217E+04
 0.66149994E+02 -0.37853E+04
 0.66199997E+02 -0.23124E+04
 0.66249992E+02 -0.19501E+04
 0.66299995E+02 -0.23682E+04
 0.66349998E+02 -0.28075E+04
 0.66399994E+02 -0.34501E+04
 0.66449997E+02 -0.33187E+04
 0.66499992E+02 -0.40816E+04
 0.66549995E+02 -0.42193E+04
 0.66599998E+02 -0.32405E+04
 0.66649994E+02 -0.23286E+04
 0.66699997E+02 -0.34846E+04
 0.66749992E+02 -0.49545E+04
 0.66799995E+02 -0.45089E+04
 0.66849998E+02 -0.21873E+04
 0.66899994E+02 -0.10735E+04
 0.66949997E+02 -0.13530E+04
 0.66999992E+02 -0.27725E+04
 0.67049995E+02 -0.46191E+04
 0.67099998E+02 -0.44429E+04
 0.67149994E+02 -0.41377E+04
 0.67199997E+02 -0.37250E+04
 0.67249992E+02 -0.41142E+04
 0.67299995E+02 -0.39113E+04
 0.67349998E+02 -0.34687E+04
 0.67399994E+02 -0.29878E+04
 0.67449997E+02 -0.21179E+04
 0.67499992E+02 -0.26539E+04
 0.67549995E+02 -0.39088E+04
 0.67599998E+02 -0.48792E+04
 0.67649994E+02 -0.42997E+04
 0.67699997E+02 -0.26562E+04
 0.67749992E+02 -0.20090E+04
 0.67799995E+02 -0.24671E+04
 0.67849998E+02 -0.18550E+04
 0.67899994E+02 -0.96981E+03
 0.67949997E+02 -0.11258E+04
 0.67999992E+02 -0.21097E+04
 0.68049995E+02 -0.26276E+04
 0.68099998E+02 -0.33804E+04
 0.68149994E+02 -0.34600E+04
 0.68199997E+02 -0.36257E+04
 0.68249992E+02 -0.54415E+04
 0.68299995E+02 -0.57610E+04
 0.68349998E+02 -0.41783E+04
 0.68399994E+02 -0.25428E+04
 0.68449997E+02 -0.31029E+04
 0.68499992E+02 -0.40605E+04
 0.68549995E+02 -0.36501E+04
 0.68599998E+02 -0.40393E+04
 0.68649994E+02 -0.43015E+04
 0.68699997E+02 -0.32048E+04
 0.68749992E+02 -0.27692E+04
 0.68799995E+02 -0.34074E+04
 0.68849998E+02 -0.34991E+04
 0.68899994E+02 -0.25371E+04
 0.68949997E+02 -0.16641E+04
 0.68999992E+02 -0.19903E+04
 0.69049995E+02 -0.23186E+04
 0.69099998E+02 -0.29949E+04
 0.69149994E+02 -0.32414E+04
 0.69199997E+02 -0.30882E+04
 0.69249992E+02 -0.31302E+04
 0.69299995E+02 -0.25974E+04
 0.69349998E+02 -0.26202E+04
 0.69399994E+02 -0.31737E+04
 0.69449997E+02 -0.35760E+04
 0.69499992E+02 -0.39487E+04
 0.69549995E+02 -0.28451E+04
 0.69599998E+02 -0.10110E+04
 0.69649994E+02 -0.11024E+04
 0.69699997E+02 -0.12872E+04
 0.69749992E+02 -0.13772E+04
 0.69799995E+02 -0.24932E+04
 0.69849998E+02 -0.34132E+04
 0.69899994E+02 -0.39271E+04
 0.69949997E+02 -0.42699E+04
 0.69999992E+02 -0.38942E+04
 0.70049995E+02 -0.34526E+04
 0.70099998E+02 -0.32475E+04
 0.70149994E+02 -0.38856E+04
 0.70199997E+02 -0.38531E+04
 0.70249992E+02 -0.24195E+04
 0.70299995E+02 -0.24700E+04
 0.70349998E+02 -0.35328E+04
 0.70399994E+02 -0.39292E+04
 0.70449997E+02 -0.28572E+04
 0.70499992E+02 -0.24267E+04
 0.70549995E+02 -0.41516E+04
 0.70599998E+02 -0.41656E+04
 0.70649994E+02 -0.39174E+04
 0.70699997E+02 -0.47470E+04
 0.70749992E+02 -0.54488E+04
 0.70799995E+02 -0.59500E+04
 0.70849998E+02 -0.57977E+04
 0.70899994E+02 -0.48274E+04
 0.70949997E+02 -0.31017E+04
 0.70999992E+02 -0.21373E+04
 0.71049995E+02 -0.23078E+04
 0.71099998E+02 -0.34126E+04
 0.71149994E+02 -0.33585E+04
 0.71199997E+02 -0.34735E+04
 0.71249992E+02 -0.44279E+04
 0.71299995E+02 -0.40913E+04
 0.71349998E+02 -0.31906E+04
 0.71399994E+02 -0.31216E+04
 0.71449997E+02 -0.44570E+04
 0.71499992E+02 -0.44371E+04
 0.71549995E+02 -0.39477E+04
 0.71599998E+02 -0.43822E+04
 0.71649994E+02 -0.42497E+04
 0.71699997E+02 -0.35716E+04
 0.71749992E+02 -0.27697E+04
 0.71799995E+02 -0.30728E+04
 0.71849998E+02 -0.39549E+04
 0.71899994E+02 -0.37951E+04
 0.71949997E+02 -0.23774E+04
 0.71999992E+02 -0.26762E+04
 0.72049995E+02 -0.37634E+04
 0.72099998E+02 -0.34169E+04
 0.72149994E+02 -0.30532E+04
 0.72199997E+02 -0.29436E+04
 0.72249992E+02 -0.43143E+04
 0.72299995E+02 -0.52138E+04
 0.72349998E+02 -0.46943E+04
 0.72399994E+02 -0.43860E+04
 0.72449997E+02 -0.44645E+04
 0.72499992E+02 -0.40902E+04
 0.72549995E+02 -0.36841E+04
 0.72599998E+02 -0.32780E+04
 0.72649994E+02 -0.20262E+04
 0.72699997E+02 -0.22223E+04
 0.72749992E+02 -0.28665E+04
 0.72799995E+02 -0.27598E+04
 0.72849998E+02 -0.24036E+04
 0.72899994E+02 -0.25572E+04
 0.72949997E+02 -0.25478E+04
 0.72999992E+02 -0.21198E+04
 0.73049995E+02 -0.22355E+04
 0.73099998E+02 -0.27664E+04
 0.73149994E+02 -0.31287E+04
 0.73199997E+02 -0.31525E+04
 0.73249992E+02 -0.26982E+04
 0.73299995E+02 -0.22030E+04
 0.73349998E+02 -0.27457E+04
 0.73399994E+02 -0.30911E+04
 0.73449997E+02 -0.27873E+04
 0.73499992E+02 -0.31318E+04
 0.73549995E+02 -0.32258E+04
 0.73599998E+02 -0.29147E+04
 0.73649994E+02 -0.26512E+04
 0.73699997E+02 -0.26687E+04
 0.73749992E+02 -0.31253E+04
 0.73799995E+02 -0.25299E+04
 0.73849998E+02 -0.22840E+04
 0.73899994E+02 -0.23855E+04
 0.73949997E+02 -0.30250E+04
 0.73999992E+02 -0.30381E+04
 0.74049995E+02 -0.22588E+04
 0.74099998E+02 -0.21260E+04
 0.74149994E+02 -0.25526E+04
 0.74199997E+02 -0.33886E+04
 0.74249992E+02 -0.25875E+04
 0.74299995E+02 -0.18876E+04
 0.74349998E+02 -0.33279E+04
 0.74399994E+02 -0.49551E+04
 0.74449997E+02 -0.48700E+04
 0.74499992E+02 -0.40425E+04
 0.74549995E+02 -0.36112E+04
 0.74599998E+02 -0.40620E+04
 0.74649994E+02 -0.49412E+04
 0.74699997E+02 -0.50220E+04
 0.74749992E+02 -0.45109E+04
 0.74799995E+02 -0.31310E+04
 0.74849998E+02 -0.23968E+04
 0.74899994E+02 -0.29091E+04
 0.74949997E+02 -0.36852E+04
 0.74999992E+02 -0.37137E+04
 0.75049995E+02 -0.31943E+04
 0.75099998E+02 -0.34370E+04
 0.75149994E+02 -0.33249E+04
 0.75199997E+02 -0.37128E+04
 0.75249992E+02 -0.33858E+04
 0.75299995E+02 -0.30914E+04
 0.75349998E+02 -0.33811E+04
 0.75399994E+02 -0.32361E+04
 0.75449997E+02 -0.41229E+04
 0.75499992E+02 -0.50736E+04
 0.75549995E+02 -0.49178E+04
 0.75599998E+02 -0.36319E+04
 0.75649994E+02 -0.32773E+04
 0.75699997E+02 -0.34498E+04
 0.75749992E+02 -0.33583E+04
 0.75799995E+02 -0.32938E+04
 0.75849998E+02 -0.28031E+04
 0.75899994E+02 -0.23890E+04
 0.75949997E+02 -0.29013E+04
 0.75999992E+02 -0.39687E+04
 0.76049995E+02 -0.48924E+04
 0.76099998E+02 -0.53850E+04
 0.76149994E+02 -0.52455E+04
 0.76199997E+02 -0.43530E+04
 0.76249992E+02 -0.31627E+04
 0.76299995E+02 -0.23591E+04
 0.76349998E+02 -0.20696E+04
 0.76399994E+02 -0.32509E+04
 0.76449997E+02 -0.34717E+04
 0.76499992E+02 -0.30205E+04
 0.76549995E+02 -0.32487E+04
 0.76599998E+02 -0.31591E+04
 0.76649994E+02 -0.24633E+04
 0.76699997E+02 -0.15539E+04
 0.76749992E+02 -0.20003E+04
 0.76799995E+02 -0.29128E+04
 0.76849998E+02 -0.41139E+04
 0.76899994E+02 -0.46534E+04
 0.76949997E+02 -0.48655E+04
 0.76999992E+02 -0.49954E+04
 0.77049995E+02 -0.42937E+04
 0.77099998E+02 -0.27967E+04
 0.77149994E+02 -0.12250E+04
 0.77199997E+02 -0.13652E+04
 0.77249992E+02 -0.26655E+04
 0.77299995E+02 -0.37934E+04
 0.77349998E+02 -0.37703E+04
 0.77399994E+02 -0.35008E+04
 0.77449997E+02 -0.25946E+04
 0.77499992E+02 -0.19013E+04
 0.77549995E+02 -0.21575E+04
 0.77599998E+02 -0.22970E+04
 0.77649994E+02 -0.26703E+04
 0.77699997E+02 -0.34264E+04
 0.77749992E+02 -0.36991E+04
 0.77799995E+02 -0.31906E+04
 0.77849998E+02 -0.34741E+04
 0.77899994E+02 -0.29297E+04
 0.77949997E+02 -0.29125E+04
 0.77999992E+02 -0.38200E+04
 0.78049995E+02 -0.33077E+04
 0.78099998E+02 -0.27872E+04
 0.78149994E+02 -0.32508E+04
 0.78199997E+02 -0.36973E+04
 0.78249992E+02 -0.32762E+04
 0.78299995E+02 -0.29399E+04
 0.78349998E+02 -0.29328E+04
 0.78399994E+02 -0.33280E+04
 0.78449997E+02 -0.29617E+04
 0.78499992E+02 -0.26009E+04
 0.78549995E+02 -0.30614E+04
 0.78599998E+02 -0.31800E+04
 0.78649994E+02 -0.31847E+04
 0.78699997E+02 -0.36097E+04
 0.78749992E+02 -0.38853E+04
 0.78799995E+02 -0.30190E+04
 0.78849998E+02 -0.27138E+04
 0.78899994E+02 -0.32314E+04
 0.78949997E+02 -0.35369E+04
 0.78999992E+02 -0.34386E+04
 0.79049995E+02 -0.34242E+04
 0.79099998E+02 -0.33785E+04
 0.79149994E+02 -0.29792E+04
 0.79199997E+02 -0.27058E+04
 0.79249992E+02 -0.23703E+04
 0.79299995E+02 -0.19305E+04
 0.79349998E+02 -0.18572E+04
 0.79399994E+02 -0.26522E+04
 0.79449997E+02 -0.41014E+04
 0.79499992E+02 -0.51875E+04
 0.79549995E+02 -0.50650E+04
 0.79599998E+02 -0.41935E+04
 0.79649994E+02 -0.35038E+04
 0.79699997E+02 -0.32430E+04
 0.79749992E+02 -0.26964E+04
 0.79799995E+02 -0.32776E+04
 0.79849998E+02 -0.43007E+04
 0.79899994E+02 -0.37104E+04
 0.79949997E+02 -0.30168E+04
 0.79999992E+02 -0.34471E+04
 0.80049995E+02 -0.46117E+04
 0.80099998E+02 -0.49348E+04
 0.80149994E+02 -0.41521E+04
 0.80199997E+02 -0.32037E+04
 0.80249992E+02 -0.29102E+04
 0.80299995E+02 -0.32109E+04
 0.80349998E+02 -0.39772E+04
 0.80399994E+02 -0.45635E+04
 0.80449997E+02 -0.38243E+04
 0.80499992E+02 -0.32871E+04
 0.80549995E+02 -0.33671E+04
 0.80599998E+02 -0.31249E+04
 0.80649994E+02 -0.28837E+04
 0.80699997E+02 -0.32243E+04
 0.80749992E+02 -0.36808E+04
 0.80799995E+02 -0.35033E+04
 0.80849998E+02 -0.28640E+04
 0.80899994E+02 -0.22407E+04
 0.80949997E+02 -0.20846E+04
 0.80999992E+02 -0.23764E+04
 0.81049995E+02 -0.26946E+04
 0.81099998E+02 -0.30390E+04
 0.81149994E+02 -0.34222E+04
 0.81199997E+02 -0.40976E+04
 0.81249992E+02 -0.34450E+04
 0.81299995E+02 -0.18900E+04
 0.81349998E+02 -0.24090E+04
 0.81399994E+02 -0.35267E+04
 0.81449997E+02 -0.39013E+04
 0.81499992E+02 -0.34970E+04
 0.81549995E+02 -0.30895E+04
 0.81599998E+02 -0.27301E+04
 0.81649994E+02 -0.29654E+04
 0.81699997E+02 -0.31586E+04
 0.81749992E+02 -0.26480E+04
 0.81799995E+02 -0.26172E+04
 0.81849998E+02 -0.27056E+04
 0.81899994E+02 -0.32562E+04
 0.81949997E+02 -0.35425E+04
 0.81999992E+02 -0.35574E+04
 0.82049995E+02 -0.36263E+04
 0.82099998E+02 -0.39285E+04
 0.82149994E+02 -0.40007E+04
 0.82199997E+02 -0.33901E+04
 0.82249992E+02 -0.28671E+04
 0.82299995E+02 -0.28146E+04
 0.82349998E+02 -0.29190E+04
 0.82399994E+02 -0.24645E+04
 0.82449997E+02 -0.21575E+04
 0.82499992E+02 -0.23613E+04
 0.82549995E+02 -0.29833E+04
 0.82599998E+02 -0.35723E+04
 0.82649994E+02 -0.38462E+04
 0.82699997E+02 -0.41240E+04
 0.82749992E+02 -0.39835E+04
 0.82799995E+02 -0.42883E+04
 0.82849998E+02 -0.48456E+04
 0.82899994E+02 -0.41925E+04
 0.82949997E+02 -0.32323E+04
 0.82999992E+02 -0.31015E+04
 0.83049995E+02 -0.34228E+04
 0.83099998E+02 -0.37144E+04
 0.83149994E+02 -0.35215E+04
 0.83199997E+02 -0.30129E+04
 0.83249992E+02 -0.27911E+04
 0.83299995E+02 -0.32184E+04
 0.83349998E+02 -0.39658E+04
 0.83399994E+02 -0.41747E+04
 0.83449997E+02 -0.37601E+04
 0.83499992E+02 -0.35723E+04
 0.83549995E+02 -0.37126E+04
 0.83599998E+02 -0.42741E+04
 0.83649994E+02 -0.45799E+04
 0.83699997E+02 -0.38460E+04
 0.83749992E+02 -0.27233E+04
 0.83799995E+02 -0.22586E+04
 0.83849998E+02 -0.21457E+04
 0.83899994E+02 -0.22939E+04
 0.83949997E+02 -0.28351E+04
 0.83999992E+02 -0.30239E+04
 0.84049995E+02 -0.36277E+04
 0.84099998E+02 -0.44769E+04
 0.84149994E+02 -0.47084E+04
 0.84199997E+02 -0.39729E+04
 0.84249992E+02 -0.33615E+04
 0.84299995E+02 -0.31217E+04
 0.84349998E+02 -0.34687E+04
 0.84399994E+02 -0.40827E+04
 0.84449997E+02 -0.42334E+04
 0.84499992E+02 -0.36797E+04
 0.84549995E+02 -0.29201E+04
 0.84599998E+02 -0.25761E+04
 0.84649994E+02 -0.25228E+04
 0.84699997E+02 -0.29492E+04
 0.84749992E+02 -0.30839E+04
 0.84799995E+02 -0.32720E+04
 0.84849998E+02 -0.33904E+04
 0.84899994E+02 -0.30960E+04
 0.84949997E+02 -0.25917E+04
 0.84999992E+02 -0.27691E+04
 0.85049995E+02 -0.28166E+04
 0.85099998E+02 -0.26569E+04
 0.85149994E+02 -0.29809E+04
 0.85199997E+02 -0.34054E+04
 0.85249992E+02 -0.32827E+04
 0.85299995E+02 -0.24566E+04
 0.85349998E+02 -0.26339E+04
 0.85399994E+02 -0.30701E+04
 0.85449997E+02 -0.31446E+04
 0.85499992E+02 -0.31302E+04
 0.85549995E+02 -0.29605E+04
 0.85599998E+02 -0.28698E+04
 0.85649994E+02 -0.29967E+04
 0.85699997E+02 -0.32969E+04
 0.85749992E+02 -0.36162E+04
 0.85799995E+02 -0.35166E+04
 0.85849998E+02 -0.31548E+04
 0.85899994E+02 -0.27418E+04
 0.85949997E+02 -0.27536E+04
 0.85999992E+02 -0.30439E+04
 0.86049995E+02 -0.30260E+04
 0.86099998E+02 -0.33461E+04
 0.86149994E+02 -0.40036E+04
 0.86199997E+02 -0.47129E+04
 0.86249992E+02 -0.44336E+04
 0.86299995E+02 -0.36189E+04
 0.86349998E+02 -0.29640E+04
 0.86399994E+02 -0.25591E+04
 0.86449997E+02 -0.25856E+04
 0.86499992E+02 -0.27347E+04
 0.86549995E+02 -0.30024E+04
 0.86599998E+02 -0.33320E+04
 0.86649994E+02 -0.37178E+04
 0.86699997E+02 -0.34892E+04
 0.86749992E+02 -0.28376E+04
 0.86799995E+02 -0.24567E+04
 0.86849998E+02 -0.24818E+04
 0.86899994E+02 -0.28513E+04
 0.86949997E+02 -0.31084E+04
 0.86999992E+02 -0.30652E+04
 0.87049995E+02 -0.29686E+04
 0.87099998E+02 -0.30896E+04
 0.87149994E+02 -0.36776E+04
 0.87199997E+02 -0.44143E+04
 0.87249992E+02 -0.44017E+04
 0.87299995E+02 -0.39519E+04
 0.87349998E+02 -0.34186E+04
 0.87399994E+02 -0.25736E+04
 0.87449997E+02 -0.22786E+04
 0.87499992E+02 -0.28299E+04
 0.87549995E+02 -0.37121E+04
 0.87599991E+02 -0.39265E+04
 0.87649994E+02 -0.37063E+04
 0.87699997E+02 -0.38391E+04
 0.87749992E+02 -0.37683E+04
 0.87799995E+02 -0.34928E+04
 0.87849991E+02 -0.30171E+04
 0.87899994E+02 -0.29057E+04
 0.87949997E+02 -0.32759E+04
 0.87999992E+02 -0.36344E+04
 0.88049995E+02 -0.40205E+04
 0.88099991E+02 -0.42391E+04
 0.88149994E+02 -0.37820E+04
 0.88199997E+02 -0.31297E+04
 0.88249992E+02 -0.31613E+04
 0.88299995E+02 -0.33293E+04
 0.88349991E+02 -0.33845E+04
 0.88399994E+02 -0.37980E+04
 0.88449997E+02 -0.43767E+04
 0.88499992E+02 -0.43651E+04
 0.88549995E+02 -0.35766E+04
 0.88599991E+02 -0.29630E+04
 0.88649994E+02 -0.29892E+04
 0.88699997E+02 -0.34372E+04
 0.88749992E+02 -0.38065E+04
 0.88799995E+02 -0.38979E+04
 0.88849991E+02 -0.39537E+04
 0.88899994E+02 -0.34633E+04
 0.88949997E+02 -0.31822E+04
 0.88999992E+02 -0.35551E+04
 0.89049995E+02 -0.39507E+04
 0.89099991E+02 -0.37432E+04
 0.89149994E+02 -0.33400E+04
 0.89199997E+02 -0.34729E+04
 0.89249992E+02 -0.34937E+04
 0.89299995E+02 -0.30199E+04
 0.89349991E+02 -0.27179E+04
 0.89399994E+02 -0.31344E+04
 0.89449997E+02 -0.38659E+04
 0.89499992E+02 -0.42922E+04
 0.89549995E+02 -0.40864E+04
 0.89599991E+02 -0.34899E+04
 0.89649994E+02 -0.29556E+04
 0.89699997E+02 -0.29810E+04
 0.89749992E+02 -0.34078E+04
 0.89799995E+02 -0.31201E+04
 0.89849991E+02 -0.20808E+04
 0.89899994E+02 -0.13430E+04
 0.89949997E+02 -0.14229E+04
 0.89999992E+02 -0.22760E+04
 0.90049995E+02 -0.32805E+04
 0.90099991E+02 -0.34866E+04
 0.90149994E+02 -0.34749E+04
 0.90199997E+02 -0.32504E+04
 0.90249992E+02 -0.30561E+04
 0.90299995E+02 -0.34190E+04
 0.90349991E+02 -0.32672E+04
 0.90399994E+02 -0.28969E+04
 0.90449997E+02 -0.29545E+04
 0.90499992E+02 -0.32687E+04
 0.90549995E+02 -0.36833E+04
 0.90599991E+02 -0.38665E+04
 0.90649994E+02 -0.34169E+04
 0.90699997E+02 -0.28051E+04
 0.90749992E+02 -0.25451E+04
 0.90799995E+02 -0.27417E+04
 0.90849991E+02 -0.29681E+04
 0.90899994E+02 -0.24912E+04
 0.90949997E+02 -0.18254E+04
 0.90999992E+02 -0.19214E+04
 0.91049995E+02 -0.28732E+04
 0.91099991E+02 -0.36185E+04
 0.91149994E+02 -0.36860E+04
 0.91199997E+02 -0.34008E+04
 0.91249992E+02 -0.31694E+04
 0.91299995E+02 -0.30036E+04
 0.91349991E+02 -0.26167E+04
 0.91399994E+02 -0.26643E+04
 0.91449997E+02 -0.27434E+04
 0.91499992E+02 -0.29926E+04
 0.91549995E+02 -0.35601E+04
 0.91599991E+02 -0.39080E+04
 0.91649994E+02 -0.37391E+04
 0.91699997E+02 -0.35433E+04
 0.91749992E+02 -0.35037E+04
 0.91799995E+02 -0.32547E+04
 0.91849991E+02 -0.33944E+04
 0.91899994E+02 -0.36015E+04
 0.91949997E+02 -0.37808E+04
 0.91999992E+02 -0.39533E+04
 0.92049995E+02 -0.40351E+04
 0.92099991E+02 -0.39093E+04
 0.92149994E+02 -0.34923E+04
 0.92199997E+02 -0.33207E+04
 0.92249992E+02 -0.33503E+04
 0.92299995E+02 -0.33053E+04
 0.92349991E+02 -0.31699E+04
 0.92399994E+02 -0.33971E+04
 0.92449997E+02 -0.39854E+04
 0.92499992E+02 -0.42465E+04
 0.92549995E+02 -0.42741E+04
 0.92599991E+02 -0.43731E+04
 0.92649994E+02 -0.42556E+04
 0.92699997E+02 -0.37916E+04
 0.92749992E+02 -0.34152E+04
 0.92799995E+02 -0.29564E+04
 0.92849991E+02 -0.26445E+04
 0.92899994E+02 -0.28609E+04
 0.92949997E+02 -0.33245E+04
 0.92999992E+02 -0.35807E+04
 0.93049995E+02 -0.34737E+04
 0.93099991E+02 -0.33982E+04
 0.93149994E+02 -0.32234E+04
 0.93199997E+02 -0.27886E+04
 0.93249992E+02 -0.24697E+04
 0.93299995E+02 -0.25715E+04
 0.93349991E+02 -0.28655E+04
 0.93399994E+02 -0.31194E+04
 0.93449997E+02 -0.30898E+04
 0.93499992E+02 -0.32020E+04
 0.93549995E+02 -0.35951E+04
 0.93599991E+02 -0.41254E+04
 0.93649994E+02 -0.44434E+04
 0.93699997E+02 -0.42112E+04
 0.93749992E+02 -0.37855E+04
 0.93799995E+02 -0.34899E+04
 0.93849991E+02 -0.35134E+04
 0.93899994E+02 -0.34671E+04
 0.93949997E+02 -0.36570E+04
 0.93999992E+02 -0.37740E+04
 0.94049995E+02 -0.33191E+04
 0.94099991E+02 -0.29317E+04
 0.94149994E+02 -0.29591E+04
 0.94199997E+02 -0.32302E+04
 0.94249992E+02 -0.34832E+04
 0.94299995E+02 -0.36318E+04
 0.94349991E+02 -0.36507E+04
 0.94399994E+02 -0.31251E+04
 0.94449997E+02 -0.24845E+04
 0.94499992E+02 -0.24817E+04
 0.94549995E+02 -0.24044E+04
 0.94599991E+02 -0.23852E+04
 0.94649994E+02 -0.27134E+04
 0.94699997E+02 -0.31752E+04
 0.94749992E+02 -0.36509E+04
 0.94799995E+02 -0.36992E+04
 0.94849991E+02 -0.33472E+04
 0.94899994E+02 -0.27749E+04
 0.94949997E+02 -0.24266E+04
 0.94999992E+02 -0.24201E+04
 0.95049995E+02 -0.28006E+04
 0.95099991E+02 -0.31897E+04
 0.95149994E+02 -0.32318E+04
 0.95199997E+02 -0.32203E+04
 0.95249992E+02 -0.30819E+04
 0.95299995E+02 -0.30689E+04
 0.95349991E+02 -0.33048E+04
 0.95399994E+02 -0.35614E+04
 0.95449997E+02 -0.36469E+04
 0.95499992E+02 -0.35927E+04
 0.95549995E+02 -0.36771E+04
 0.95599991E+02 -0.37359E+04
 0.95649994E+02 -0.35444E+04
 0.95699997E+02 -0.34210E+04
 0.95749992E+02 -0.34956E+04
 0.95799995E+02 -0.37413E+04
 0.95849991E+02 -0.40615E+04
 0.95899994E+02 -0.41126E+04
 0.95949997E+02 -0.38957E+04
 0.95999992E+02 -0.38362E+04
 0.96049995E+02 -0.38042E+04
 0.96099991E+02 -0.37750E+04
 0.96149994E+02 -0.35962E+04
 0.96199997E+02 -0.34908E+04
 0.96249992E+02 -0.34259E+04
 0.96299995E+02 -0.29180E+04
 0.96349991E+02 -0.27713E+04
 0.96399994E+02 -0.29455E+04
 0.96449997E+02 -0.28834E+04
 0.96499992E+02 -0.28235E+04
 0.96549995E+02 -0.31386E+04
 0.96599991E+02 -0.32744E+04
 0.96649994E+02 -0.29995E+04
 0.96699997E+02 -0.28128E+04
 0.96749992E+02 -0.29362E+04
 0.96799995E+02 -0.29331E+04
 0.96849991E+02 -0.26744E+04
 0.96899994E+02 -0.25930E+04
 0.96949997E+02 -0.26357E+04
 0.96999992E+02 -0.26293E+04
 0.97049995E+02 -0.24324E+04
 0.97099991E+02 -0.23004E+04
 0.97149994E+02 -0.22116E+04
 0.97199997E+02 -0.21437E+04
 0.97249992E+02 -0.24053E+04
 0.97299995E+02 -0.26325E+04
 0.97349991E+02 -0.28700E+04
 0.97399994E+02 -0.33166E+04
 0.97449997E+02 -0.33785E+04
 0.97499992E+02 -0.30880E+04
 0.97549995E+02 -0.31725E+04
 0.97599991E+02 -0.35583E+04
 0.97649994E+02 -0.37509E+04
 0.97699997E+02 -0.38058E+04
 0.97749992E+02 -0.37507E+04
 0.97799995E+02 -0.38528E+04
 0.97849991E+02 -0.40183E+04
 0.97899994E+02 -0.40183E+04
 0.97949997E+02 -0.39746E+04
 0.97999992E+02 -0.39465E+04
