-0.20000000E+01  0.22742E+06
-0.19500000E+01  0.23117E+06
-0.19000000E+01  0.23363E+06
-0.18500000E+01  0.23482E+06
-0.18000000E+01  0.23465E+06
-0.17500000E+01  0.23297E+06
-0.17000000E+01  0.22955E+06
-0.16500001E+01  0.22413E+06
-0.16000000E+01  0.21695E+06
-0.15500000E+01  0.20806E+06
-0.15000000E+01  0.19767E+06
-0.14500000E+01  0.18620E+06
-0.14000001E+01  0.17397E+06
-0.13500000E+01  0.16140E+06
-0.13000001E+01  0.14845E+06
-0.12500000E+01  0.13464E+06
-0.12000000E+01  0.11964E+06
-0.11500001E+01  0.10314E+06
-0.11000000E+01  0.84623E+05
-0.10500001E+01  0.63585E+05
-0.10000000E+01  0.39560E+05
-0.95000005E+00  0.12251E+05
-0.90000010E+00 -0.18093E+05
-0.85000002E+00 -0.50954E+05
-0.80000007E+00 -0.85583E+05
-0.75000012E+00 -0.12100E+06
-0.70000005E+00 -0.15613E+06
-0.65000010E+00 -0.18994E+06
-0.60000014E+00 -0.22165E+06
-0.55000007E+00 -0.25053E+06
-0.50000012E+00 -0.27571E+06
-0.45000005E+00 -0.29620E+06
-0.40000010E+00 -0.31149E+06
-0.35000014E+00 -0.32156E+06
-0.30000007E+00 -0.32645E+06
-0.25000012E+00 -0.32654E+06
-0.20000005E+00 -0.32248E+06
-0.15000010E+00 -0.31490E+06
-0.10000014E+00 -0.30433E+06
-0.50000072E-01 -0.29106E+06
-0.11920929E-06 -0.27569E+06
 0.49999952E-01 -0.25886E+06
 0.99999905E-01 -0.24120E+06
 0.14999986E+00 -0.22306E+06
 0.19999981E+00 -0.20451E+06
 0.24999976E+00 -0.18555E+06
 0.29999995E+00 -0.16618E+06
 0.34999990E+00 -0.14635E+06
 0.39999986E+00 -0.12592E+06
 0.44999981E+00 -0.10464E+06
 0.49999976E+00 -0.82551E+05
 0.54999995E+00 -0.59886E+05
 0.59999990E+00 -0.36687E+05
 0.64999986E+00 -0.13233E+05
 0.69999981E+00  0.10140E+05
 0.74999976E+00  0.33086E+05
 0.79999971E+00  0.55019E+05
 0.84999990E+00  0.75541E+05
 0.89999986E+00  0.94447E+05
 0.94999981E+00  0.11160E+06
 0.99999976E+00  0.12693E+06
 0.10499997E+01  0.14004E+06
 0.10999999E+01  0.15050E+06
 0.11499999E+01  0.15822E+06
 0.11999998E+01  0.16339E+06
 0.12499998E+01  0.16620E+06
 0.12999997E+01  0.16714E+06
 0.13499999E+01  0.16718E+06
 0.13999999E+01  0.16721E+06
 0.14499998E+01  0.16769E+06
 0.14999998E+01  0.16865E+06
 0.15499997E+01  0.16988E+06
 0.15999999E+01  0.17132E+06
 0.16499999E+01  0.17291E+06
 0.16999998E+01  0.17412E+06
 0.17499998E+01  0.17462E+06
 0.17999997E+01  0.17405E+06
 0.18499997E+01  0.17173E+06
 0.18999999E+01  0.16713E+06
 0.19499998E+01  0.16023E+06
 0.19999998E+01  0.15147E+06
 0.20499997E+01  0.14137E+06
 0.20999999E+01  0.13031E+06
 0.21499996E+01  0.11878E+06
 0.21999998E+01  0.10730E+06
 0.22499995E+01  0.96114E+05
 0.22999997E+01  0.85041E+05
 0.23499999E+01  0.73603E+05
 0.23999996E+01  0.61651E+05
 0.24499998E+01  0.49362E+05
 0.24999995E+01  0.36777E+05
 0.25499997E+01  0.24151E+05
 0.25999999E+01  0.11722E+05
 0.26499996E+01 -0.55567E+03
 0.26999998E+01 -0.13013E+05
 0.27499995E+01 -0.26153E+05
 0.27999997E+01 -0.40002E+05
 0.28499999E+01 -0.54661E+05
 0.28999996E+01 -0.70092E+05
 0.29499998E+01 -0.86063E+05
 0.29999995E+01 -0.10204E+06
 0.30499997E+01 -0.11737E+06
 0.30999999E+01 -0.13134E+06
 0.31499996E+01 -0.14315E+06
 0.31999998E+01 -0.15225E+06
 0.32499995E+01 -0.15845E+06
 0.32999997E+01 -0.16180E+06
 0.33499999E+01 -0.16246E+06
 0.33999996E+01 -0.16087E+06
 0.34499998E+01 -0.15752E+06
 0.34999995E+01 -0.15281E+06
 0.35499997E+01 -0.14675E+06
 0.35999994E+01 -0.13913E+06
 0.36499996E+01 -0.12999E+06
 0.36999998E+01 -0.11961E+06
 0.37499995E+01 -0.10820E+06
 0.37999997E+01 -0.95636E+05
 0.38499994E+01 -0.81877E+05
 0.38999996E+01 -0.66904E+05
 0.39499998E+01 -0.50797E+05
 0.39999995E+01 -0.33969E+05
 0.40499997E+01 -0.17301E+05
 0.40999994E+01 -0.16436E+04
 0.41499996E+01  0.12492E+05
 0.41999998E+01  0.24732E+05
 0.42499995E+01  0.34577E+05
 0.42999997E+01  0.41547E+05
 0.43499994E+01  0.45628E+05
 0.43999996E+01  0.47073E+05
 0.44499998E+01  0.46155E+05
 0.44999995E+01  0.43043E+05
 0.45499997E+01  0.38202E+05
 0.45999994E+01  0.32400E+05
 0.46499996E+01  0.26282E+05
 0.46999998E+01  0.20449E+05
 0.47499995E+01  0.15347E+05
 0.47999997E+01  0.11350E+05
 0.48499994E+01  0.87979E+04
 0.48999996E+01  0.78165E+04
 0.49499998E+01  0.83497E+04
 0.49999995E+01  0.10115E+05
 0.50499997E+01  0.13071E+05
 0.50999994E+01  0.17427E+05
 0.51499996E+01  0.23162E+05
 0.51999998E+01  0.30042E+05
 0.52499995E+01  0.37580E+05
 0.52999997E+01  0.45252E+05
 0.53499994E+01  0.52401E+05
 0.53999996E+01  0.58395E+05
 0.54499993E+01  0.62961E+05
 0.54999995E+01  0.66184E+05
 0.55499997E+01  0.68379E+05
 0.55999994E+01  0.69810E+05
 0.56499996E+01  0.70636E+05
 0.56999993E+01  0.70939E+05
 0.57499995E+01  0.70835E+05
 0.57999997E+01  0.70474E+05
 0.58499994E+01  0.69955E+05
 0.58999996E+01  0.69284E+05
 0.59499993E+01  0.68576E+05
 0.59999995E+01  0.67859E+05
 0.60499992E+01  0.66734E+05
 0.60999994E+01  0.64681E+05
 0.61499996E+01  0.61423E+05
 0.61999998E+01  0.56939E+05
 0.62499990E+01  0.51268E+05
 0.62999992E+01  0.44621E+05
 0.63499994E+01  0.37283E+05
 0.63999996E+01  0.29678E+05
 0.64499998E+01  0.22158E+05
 0.64999990E+01  0.15090E+05
 0.65499992E+01  0.87140E+04
 0.65999994E+01  0.30605E+04
 0.66499996E+01 -0.18368E+04
 0.66999998E+01 -0.62667E+04
 0.67499990E+01 -0.10620E+05
 0.67999992E+01 -0.15484E+05
 0.68499994E+01 -0.21226E+05
 0.68999996E+01 -0.27870E+05
 0.69499998E+01 -0.35025E+05
 0.69999990E+01 -0.42341E+05
 0.70499992E+01 -0.49626E+05
 0.70999994E+01 -0.56748E+05
 0.71499996E+01 -0.63699E+05
 0.71999998E+01 -0.70183E+05
 0.72499990E+01 -0.75873E+05
 0.72999992E+01 -0.80423E+05
 0.73499994E+01 -0.83308E+05
 0.73999996E+01 -0.84060E+05
 0.74499998E+01 -0.82383E+05
 0.74999990E+01 -0.77918E+05
 0.75499992E+01 -0.70594E+05
 0.75999994E+01 -0.60583E+05
 0.76499996E+01 -0.48226E+05
 0.76999998E+01 -0.34048E+05
 0.77499990E+01 -0.18590E+05
 0.77999992E+01 -0.23266E+04
 0.78499994E+01  0.14335E+05
 0.78999996E+01  0.30859E+05
 0.79499998E+01  0.46534E+05
 0.79999990E+01  0.60446E+05
 0.80499992E+01  0.71971E+05
 0.80999994E+01  0.80663E+05
 0.81499996E+01  0.86195E+05
 0.81999998E+01  0.88545E+05
 0.82499990E+01  0.87930E+05
 0.82999992E+01  0.84750E+05
 0.83499994E+01  0.79167E+05
 0.83999996E+01  0.71370E+05
 0.84499998E+01  0.61713E+05
 0.84999990E+01  0.50688E+05
 0.85499992E+01  0.38985E+05
 0.85999994E+01  0.27040E+05
 0.86499996E+01  0.15209E+05
 0.86999998E+01  0.38207E+04
 0.87499990E+01 -0.69742E+04
 0.87999992E+01 -0.17200E+05
 0.88499994E+01 -0.26867E+05
 0.88999996E+01 -0.35692E+05
 0.89499998E+01 -0.43474E+05
 0.89999990E+01 -0.50089E+05
 0.90499992E+01 -0.55669E+05
 0.90999994E+01 -0.60615E+05
 0.91499996E+01 -0.65077E+05
 0.91999989E+01 -0.69141E+05
 0.92499990E+01 -0.72820E+05
 0.92999992E+01 -0.75986E+05
 0.93499994E+01 -0.78405E+05
 0.93999996E+01 -0.79876E+05
 0.94499989E+01 -0.80327E+05
 0.94999990E+01 -0.79656E+05
 0.95499992E+01 -0.78003E+05
 0.95999994E+01 -0.75877E+05
 0.96499996E+01 -0.73726E+05
 0.96999989E+01 -0.71806E+05
 0.97499990E+01 -0.70094E+05
 0.97999992E+01 -0.68189E+05
 0.98499994E+01 -0.65580E+05
 0.98999996E+01 -0.61975E+05
 0.99499989E+01 -0.57390E+05
 0.99999990E+01 -0.52068E+05
 0.10049999E+02 -0.46344E+05
 0.10099999E+02 -0.40426E+05
 0.10150000E+02 -0.34443E+05
 0.10199999E+02 -0.28111E+05
 0.10249999E+02 -0.21453E+05
 0.10299999E+02 -0.14815E+05
 0.10349999E+02 -0.83462E+04
 0.10400000E+02 -0.22047E+04
 0.10449999E+02  0.35580E+04
 0.10499999E+02  0.87015E+04
 0.10549999E+02  0.13065E+05
 0.10599999E+02  0.16491E+05
 0.10650000E+02  0.18812E+05
 0.10699999E+02  0.20148E+05
 0.10749999E+02  0.20739E+05
 0.10799999E+02  0.20852E+05
 0.10849999E+02  0.20760E+05
 0.10900000E+02  0.20592E+05
 0.10949999E+02  0.20510E+05
 0.10999999E+02  0.20611E+05
 0.11049999E+02  0.20734E+05
 0.11099999E+02  0.21059E+05
 0.11150000E+02  0.21714E+05
 0.11199999E+02  0.22757E+05
 0.11249999E+02  0.24264E+05
 0.11299999E+02  0.26150E+05
 0.11349999E+02  0.28448E+05
 0.11400000E+02  0.31086E+05
 0.11449999E+02  0.33796E+05
 0.11499999E+02  0.36371E+05
 0.11549999E+02  0.38666E+05
 0.11599999E+02  0.40614E+05
 0.11650000E+02  0.42268E+05
 0.11699999E+02  0.43679E+05
 0.11749999E+02  0.44836E+05
 0.11799999E+02  0.45753E+05
 0.11849999E+02  0.46779E+05
 0.11900000E+02  0.48087E+05
 0.11949999E+02  0.49969E+05
 0.11999999E+02  0.52812E+05
 0.12049999E+02  0.56765E+05
 0.12099999E+02  0.62017E+05
 0.12150000E+02  0.68442E+05
 0.12199999E+02  0.75587E+05
 0.12249999E+02  0.82800E+05
 0.12299999E+02  0.89288E+05
 0.12349999E+02  0.94315E+05
 0.12400000E+02  0.97302E+05
 0.12449999E+02  0.97904E+05
 0.12499999E+02  0.96191E+05
 0.12549999E+02  0.92458E+05
 0.12599999E+02  0.87175E+05
 0.12649999E+02  0.80812E+05
 0.12699999E+02  0.73799E+05
 0.12749999E+02  0.66608E+05
 0.12799999E+02  0.59532E+05
 0.12849999E+02  0.52602E+05
 0.12899999E+02  0.45417E+05
 0.12949999E+02  0.37495E+05
 0.12999999E+02  0.28803E+05
 0.13049999E+02  0.19267E+05
 0.13099999E+02  0.88881E+04
 0.13149999E+02 -0.19921E+04
 0.13199999E+02 -0.12989E+05
 0.13249999E+02 -0.23709E+05
 0.13299999E+02 -0.33926E+05
 0.13349999E+02 -0.43347E+05
 0.13399999E+02 -0.51393E+05
 0.13449999E+02 -0.57630E+05
 0.13499999E+02 -0.61790E+05
 0.13549999E+02 -0.63761E+05
 0.13599999E+02 -0.63598E+05
 0.13649999E+02 -0.61382E+05
 0.13699999E+02 -0.57383E+05
 0.13749999E+02 -0.51955E+05
 0.13799999E+02 -0.45471E+05
 0.13849999E+02 -0.38324E+05
 0.13899999E+02 -0.30902E+05
 0.13949999E+02 -0.23499E+05
 0.13999999E+02 -0.16398E+05
 0.14049999E+02 -0.98755E+04
 0.14099998E+02 -0.41610E+04
 0.14150000E+02  0.36969E+03
 0.14199999E+02  0.31815E+04
 0.14249998E+02  0.38574E+04
 0.14299999E+02  0.21238E+04
 0.14349998E+02 -0.19079E+04
 0.14400000E+02 -0.78158E+04
 0.14449999E+02 -0.15016E+05
 0.14499998E+02 -0.22900E+05
 0.14549999E+02 -0.31034E+05
 0.14599998E+02 -0.39178E+05
 0.14650000E+02 -0.47143E+05
 0.14699999E+02 -0.54588E+05
 0.14749998E+02 -0.61013E+05
 0.14799999E+02 -0.65863E+05
 0.14849998E+02 -0.68747E+05
 0.14900000E+02 -0.69400E+05
 0.14949999E+02 -0.67971E+05
 0.14999998E+02 -0.64826E+05
 0.15049999E+02 -0.60367E+05
 0.15099998E+02 -0.55140E+05
 0.15150000E+02 -0.49680E+05
 0.15199999E+02 -0.44396E+05
 0.15249998E+02 -0.39589E+05
 0.15299999E+02 -0.35500E+05
 0.15349998E+02 -0.32249E+05
 0.15400000E+02 -0.29771E+05
 0.15449999E+02 -0.27971E+05
 0.15499998E+02 -0.26686E+05
 0.15549999E+02 -0.25650E+05
 0.15599998E+02 -0.24546E+05
 0.15650000E+02 -0.22875E+05
 0.15699999E+02 -0.20285E+05
 0.15749998E+02 -0.16499E+05
 0.15799999E+02 -0.11028E+05
 0.15849998E+02 -0.36820E+04
 0.15900000E+02  0.55724E+04
 0.15949999E+02  0.16620E+05
 0.15999998E+02  0.29233E+05
 0.16049999E+02  0.43051E+05
 0.16099998E+02  0.57470E+05
 0.16150000E+02  0.71968E+05
 0.16199999E+02  0.85873E+05
 0.16249998E+02  0.98342E+05
 0.16299999E+02  0.10835E+06
 0.16349998E+02  0.11511E+06
 0.16400000E+02  0.11809E+06
 0.16449999E+02  0.11681E+06
 0.16499998E+02  0.11115E+06
 0.16549999E+02  0.10153E+06
 0.16599998E+02  0.88830E+05
 0.16650000E+02  0.74107E+05
 0.16699999E+02  0.58286E+05
 0.16749998E+02  0.41923E+05
 0.16799999E+02  0.25463E+05
 0.16849998E+02  0.92443E+04
 0.16900000E+02 -0.65956E+04
 0.16949999E+02 -0.21657E+05
 0.16999998E+02 -0.35603E+05
 0.17049999E+02 -0.48170E+05
 0.17099998E+02 -0.59220E+05
 0.17150000E+02 -0.68682E+05
 0.17199999E+02 -0.76540E+05
 0.17249998E+02 -0.83083E+05
 0.17299999E+02 -0.88452E+05
 0.17349998E+02 -0.92412E+05
 0.17400000E+02 -0.94538E+05
 0.17449999E+02 -0.94259E+05
 0.17499998E+02 -0.91290E+05
 0.17549999E+02 -0.85543E+05
 0.17599998E+02 -0.77036E+05
 0.17650000E+02 -0.66255E+05
 0.17699999E+02 -0.53927E+05
 0.17749998E+02 -0.40919E+05
 0.17799999E+02 -0.27811E+05
 0.17849998E+02 -0.15065E+05
 0.17900000E+02 -0.32647E+04
 0.17949999E+02  0.72693E+04
 0.17999998E+02  0.16132E+05
 0.18049999E+02  0.23046E+05
 0.18099998E+02  0.27902E+05
 0.18150000E+02  0.30736E+05
 0.18199999E+02  0.31986E+05
 0.18249998E+02  0.32237E+05
 0.18299999E+02  0.32394E+05
 0.18349998E+02  0.33361E+05
 0.18400000E+02  0.35686E+05
 0.18449999E+02  0.39728E+05
 0.18499998E+02  0.45516E+05
 0.18549999E+02  0.52698E+05
 0.18599998E+02  0.60939E+05
 0.18650000E+02  0.69757E+05
 0.18699999E+02  0.78720E+05
 0.18749998E+02  0.87391E+05
 0.18799999E+02  0.95155E+05
 0.18849998E+02  0.10168E+06
 0.18900000E+02  0.10662E+06
 0.18949999E+02  0.10956E+06
 0.18999998E+02  0.11014E+06
 0.19049999E+02  0.10815E+06
 0.19099998E+02  0.10352E+06
 0.19150000E+02  0.96257E+05
 0.19199999E+02  0.86526E+05
 0.19249998E+02  0.74594E+05
 0.19299999E+02  0.60897E+05
 0.19349998E+02  0.45770E+05
 0.19400000E+02  0.29312E+05
 0.19449999E+02  0.11630E+05
 0.19499998E+02 -0.69721E+04
 0.19549999E+02 -0.26048E+05
 0.19599998E+02 -0.44929E+05
 0.19650000E+02 -0.62956E+05
 0.19699999E+02 -0.79436E+05
 0.19749998E+02 -0.93765E+05
 0.19799999E+02 -0.10562E+06
 0.19849998E+02 -0.11478E+06
 0.19900000E+02 -0.12132E+06
 0.19949999E+02 -0.12513E+06
 0.19999998E+02 -0.12607E+06
 0.20049999E+02 -0.12420E+06
 0.20099998E+02 -0.11985E+06
 0.20150000E+02 -0.11349E+06
 0.20199999E+02 -0.10556E+06
 0.20249998E+02 -0.96566E+05
 0.20299999E+02 -0.87115E+05
 0.20349998E+02 -0.77895E+05
 0.20399998E+02 -0.69524E+05
 0.20449999E+02 -0.62170E+05
 0.20499998E+02 -0.55915E+05
 0.20549999E+02 -0.50915E+05
 0.20599998E+02 -0.47050E+05
 0.20649998E+02 -0.44076E+05
 0.20699999E+02 -0.41643E+05
 0.20749998E+02 -0.39411E+05
 0.20799999E+02 -0.37137E+05
 0.20849998E+02 -0.34595E+05
 0.20899998E+02 -0.31503E+05
 0.20949999E+02 -0.27664E+05
 0.20999998E+02 -0.22984E+05
 0.21049999E+02 -0.17476E+05
 0.21099998E+02 -0.11256E+05
 0.21149998E+02 -0.44277E+04
 0.21199999E+02  0.31339E+04
 0.21249998E+02  0.11520E+05
 0.21299999E+02  0.20552E+05
 0.21349998E+02  0.29928E+05
 0.21399998E+02  0.39213E+05
 0.21449999E+02  0.48148E+05
 0.21499998E+02  0.56698E+05
 0.21549999E+02  0.65003E+05
 0.21599998E+02  0.73243E+05
 0.21649998E+02  0.81530E+05
 0.21699999E+02  0.89909E+05
 0.21749998E+02  0.98167E+05
 0.21799999E+02  0.10592E+06
 0.21849998E+02  0.11272E+06
 0.21899998E+02  0.11823E+06
 0.21949999E+02  0.12230E+06
 0.21999998E+02  0.12464E+06
 0.22049999E+02  0.12524E+06
 0.22099998E+02  0.12415E+06
 0.22149998E+02  0.12123E+06
 0.22199999E+02  0.11635E+06
 0.22249998E+02  0.10956E+06
 0.22299999E+02  0.10108E+06
 0.22349998E+02  0.91170E+05
 0.22399998E+02  0.80220E+05
 0.22449999E+02  0.68624E+05
 0.22499998E+02  0.56772E+05
 0.22549999E+02  0.44916E+05
 0.22599998E+02  0.33268E+05
 0.22649998E+02  0.22216E+05
 0.22699999E+02  0.11988E+05
 0.22749998E+02  0.26322E+04
 0.22799999E+02 -0.58401E+04
 0.22849998E+02 -0.13471E+05
 0.22899998E+02 -0.20381E+05
 0.22949999E+02 -0.26599E+05
 0.22999998E+02 -0.32127E+05
 0.23049999E+02 -0.37149E+05
 0.23099998E+02 -0.41860E+05
 0.23149998E+02 -0.46276E+05
 0.23199999E+02 -0.50344E+05
 0.23249998E+02 -0.54022E+05
 0.23299999E+02 -0.57197E+05
 0.23349998E+02 -0.59642E+05
 0.23399998E+02 -0.61441E+05
 0.23449999E+02 -0.62803E+05
 0.23499998E+02 -0.63799E+05
 0.23549999E+02 -0.64411E+05
 0.23599998E+02 -0.64650E+05
 0.23649998E+02 -0.64594E+05
 0.23699999E+02 -0.64189E+05
 0.23749998E+02 -0.63410E+05
 0.23799999E+02 -0.62268E+05
 0.23849998E+02 -0.61029E+05
 0.23899998E+02 -0.60003E+05
 0.23949999E+02 -0.59376E+05
 0.23999998E+02 -0.59292E+05
 0.24049999E+02 -0.59809E+05
 0.24099998E+02 -0.60915E+05
 0.24149998E+02 -0.62314E+05
 0.24199999E+02 -0.63762E+05
 0.24249998E+02 -0.64953E+05
 0.24299999E+02 -0.65482E+05
 0.24349998E+02 -0.65049E+05
 0.24399998E+02 -0.63318E+05
 0.24449999E+02 -0.60020E+05
 0.24499998E+02 -0.55011E+05
 0.24549999E+02 -0.48153E+05
 0.24599998E+02 -0.39526E+05
 0.24649998E+02 -0.29426E+05
 0.24699999E+02 -0.17953E+05
 0.24749998E+02 -0.50220E+04
 0.24799999E+02  0.92613E+04
 0.24849998E+02  0.24672E+05
 0.24899998E+02  0.40883E+05
 0.24949999E+02  0.57325E+05
 0.24999998E+02  0.73594E+05
 0.25049999E+02  0.89134E+05
 0.25099998E+02  0.10330E+06
 0.25149998E+02  0.11536E+06
 0.25199999E+02  0.12467E+06
 0.25249998E+02  0.13081E+06
 0.25299999E+02  0.13357E+06
 0.25349998E+02  0.13310E+06
 0.25399998E+02  0.12959E+06
 0.25449999E+02  0.12358E+06
 0.25499998E+02  0.11573E+06
 0.25549999E+02  0.10662E+06
 0.25599998E+02  0.96788E+05
 0.25649998E+02  0.86642E+05
 0.25699999E+02  0.76350E+05
 0.25749998E+02  0.66056E+05
 0.25799999E+02  0.56023E+05
 0.25849998E+02  0.46422E+05
 0.25899998E+02  0.37165E+05
 0.25949999E+02  0.28080E+05
 0.25999998E+02  0.18996E+05
 0.26049999E+02  0.97411E+04
 0.26099998E+02  0.16061E+03
 0.26149998E+02 -0.99665E+04
 0.26199999E+02 -0.20742E+05
 0.26249998E+02 -0.32140E+05
 0.26299999E+02 -0.44037E+05
 0.26349998E+02 -0.56149E+05
 0.26399998E+02 -0.68134E+05
 0.26449999E+02 -0.79502E+05
 0.26499998E+02 -0.89626E+05
 0.26549999E+02 -0.98025E+05
 0.26599998E+02 -0.10421E+06
 0.26649998E+02 -0.10794E+06
 0.26699999E+02 -0.10925E+06
 0.26749998E+02 -0.10816E+06
 0.26799999E+02 -0.10499E+06
 0.26849998E+02 -0.99995E+05
 0.26899998E+02 -0.93385E+05
 0.26949999E+02 -0.85606E+05
 0.26999998E+02 -0.77024E+05
 0.27049997E+02 -0.67738E+05
 0.27099998E+02 -0.57978E+05
 0.27149998E+02 -0.48367E+05
 0.27199999E+02 -0.39481E+05
 0.27249998E+02 -0.31567E+05
 0.27299997E+02 -0.25177E+05
 0.27349998E+02 -0.20364E+05
 0.27399998E+02 -0.17354E+05
 0.27449999E+02 -0.15261E+05
 0.27499998E+02 -0.13902E+05
 0.27549997E+02 -0.12473E+05
 0.27599998E+02 -0.12518E+05
 0.27649998E+02 -0.16757E+05
 0.27699999E+02 -0.24681E+05
 0.27749998E+02 -0.25751E+05
 0.27799997E+02 -0.14876E+05
 0.27849998E+02 -0.25396E+04
 0.27899998E+02  0.36248E+04
 0.27949999E+02  0.90205E+04
 0.27999998E+02  0.17628E+05
 0.28049997E+02  0.20451E+05
 0.28099998E+02  0.21622E+05
 0.28149998E+02  0.33428E+05
 0.28199999E+02  0.51093E+05
 0.28249998E+02  0.55995E+05
 0.28299997E+02  0.49525E+05
 0.28349998E+02  0.51952E+05
 0.28399998E+02  0.64098E+05
 0.28449999E+02  0.68398E+05
 0.28499998E+02  0.51360E+05
 0.28549997E+02  0.26829E+05
 0.28599998E+02  0.16117E+05
 0.28649998E+02  0.13576E+05
 0.28699999E+02  0.17146E+05
 0.28749998E+02  0.23926E+05
 0.28799997E+02  0.72854E+04
 0.28849998E+02 -0.26372E+05
 0.28899998E+02 -0.48050E+05
 0.28949999E+02 -0.57515E+05
 0.28999998E+02 -0.36038E+05
 0.29049997E+02 -0.11322E+05
 0.29099998E+02  0.16442E+05
 0.29149998E+02  0.13371E+05
 0.29199999E+02 -0.24452E+04
 0.29249998E+02  0.56565E+03
 0.29299997E+02 -0.13631E+05
 0.29349998E+02 -0.34687E+04
 0.29399998E+02  0.49582E+05
 0.29449999E+02  0.97266E+05
 0.29499998E+02  0.10424E+06
 0.29549997E+02  0.89798E+05
 0.29599998E+02  0.61749E+05
 0.29649998E+02  0.63130E+05
 0.29699999E+02  0.61182E+05
 0.29749998E+02  0.64049E+05
 0.29799997E+02  0.10545E+06
 0.29849998E+02  0.99716E+05
 0.29899998E+02  0.42546E+05
 0.29949999E+02  0.42212E+05
 0.29999998E+02  0.28322E+05
 0.30049999E+02 -0.12117E+05
 0.30099998E+02  0.20413E+04
 0.30149998E+02 -0.11635E+05
 0.30199997E+02 -0.16824E+05
 0.30249996E+02 -0.11446E+05
 0.30299999E+02 -0.92126E+05
 0.30349998E+02 -0.13495E+06
 0.30399998E+02 -0.85634E+05
 0.30449997E+02 -0.72343E+05
 0.30499996E+02 -0.20255E+05
 0.30549999E+02  0.32890E+05
 0.30599998E+02 -0.65727E+05
 0.30649998E+02 -0.20802E+05
 0.30699997E+02  0.43137E+05
 0.30749996E+02 -0.51244E+05
 0.30799999E+02 -0.89529E+05
 0.30849998E+02 -0.11188E+06
 0.30899998E+02 -0.15415E+06
 0.30949997E+02 -0.10696E+06
 0.30999996E+02 -0.49245E+05
 0.31049999E+02 -0.57831E+05
 0.31099998E+02  0.58992E+05
 0.31149998E+02  0.85516E+05
 0.31199997E+02  0.76563E+05
 0.31249996E+02  0.69406E+05
 0.31299999E+02 -0.44607E+05
 0.31349998E+02 -0.13295E+06
 0.31399998E+02 -0.11947E+06
 0.31449997E+02 -0.69236E+05
 0.31499996E+02 -0.15817E+04
 0.31549999E+02  0.58394E+05
 0.31599998E+02  0.10704E+05
 0.31649998E+02 -0.35962E+04
 0.31699997E+02 -0.52605E+05
 0.31749996E+02 -0.11701E+06
 0.31799999E+02 -0.43996E+05
 0.31849998E+02  0.71837E+04
 0.31899998E+02 -0.15618E+05
 0.31949997E+02  0.24335E+05
 0.31999996E+02  0.83687E+04
 0.32049999E+02  0.64621E+04
 0.32099998E+02  0.23935E+05
 0.32149998E+02 -0.41794E+05
 0.32199997E+02 -0.17008E+05
 0.32249996E+02  0.13129E+06
 0.32299999E+02  0.16957E+06
 0.32349998E+02  0.83737E+05
 0.32399998E+02  0.10415E+06
 0.32449997E+02  0.20729E+06
 0.32499996E+02  0.27353E+06
 0.32549999E+02  0.19175E+06
 0.32599998E+02  0.56449E+05
 0.32649998E+02 -0.66558E+03
 0.32699997E+02  0.50402E+05
 0.32749996E+02  0.78275E+04
 0.32799999E+02 -0.73365E+05
 0.32849998E+02  0.35800E+05
 0.32899998E+02  0.66149E+05
 0.32949997E+02 -0.18784E+05
 0.32999996E+02 -0.12855E+06
 0.33049999E+02 -0.89365E+05
 0.33099998E+02 -0.21814E+05
 0.33149998E+02 -0.10936E+05
 0.33199997E+02 -0.93479E+05
 0.33249996E+02 -0.11405E+06
 0.33299999E+02 -0.16453E+05
 0.33349998E+02  0.68889E+05
 0.33399998E+02  0.15743E+06
 0.33449997E+02  0.18332E+06
 0.33499996E+02  0.25648E+06
 0.33549999E+02  0.18556E+06
 0.33599998E+02  0.10420E+06
 0.33649998E+02  0.89488E+05
 0.33699997E+02  0.12236E+06
 0.33749996E+02  0.12602E+06
 0.33799999E+02  0.22222E+06
 0.33849998E+02  0.36290E+06
 0.33899998E+02  0.37153E+06
 0.33949997E+02  0.23421E+06
 0.33999996E+02 -0.49894E+03
 0.34049999E+02 -0.80045E+05
 0.34099998E+02  0.86328E+04
 0.34149998E+02  0.60163E+05
 0.34199997E+02 -0.50271E+05
 0.34249996E+02 -0.26425E+05
 0.34299999E+02  0.56968E+05
 0.34349998E+02  0.32053E+05
 0.34399998E+02 -0.94614E+05
 0.34449997E+02 -0.12031E+06
 0.34499996E+02  0.65068E+04
 0.34549999E+02  0.83513E+05
 0.34599998E+02 -0.13488E+05
 0.34649998E+02 -0.15187E+06
 0.34699997E+02 -0.11251E+06
 0.34749996E+02 -0.12206E+06
 0.34799999E+02 -0.17557E+06
 0.34849998E+02 -0.17168E+06
 0.34899998E+02 -0.12325E+06
 0.34949997E+02 -0.44790E+05
 0.34999996E+02 -0.11715E+06
 0.35049999E+02 -0.28576E+06
 0.35099998E+02 -0.30538E+06
 0.35149998E+02 -0.22052E+06
 0.35199997E+02 -0.22413E+06
 0.35249996E+02 -0.22095E+06
 0.35299999E+02 -0.20277E+06
 0.35349998E+02 -0.19220E+06
 0.35399998E+02 -0.14332E+06
 0.35449997E+02 -0.21542E+06
 0.35499996E+02 -0.24651E+06
 0.35549999E+02 -0.15272E+06
 0.35599998E+02 -0.47497E+05
 0.35649998E+02  0.50709E+04
 0.35699997E+02  0.43305E+05
 0.35749996E+02  0.89175E+05
 0.35799999E+02  0.16865E+06
 0.35849998E+02  0.22315E+06
 0.35899998E+02  0.18777E+06
 0.35949997E+02  0.22272E+06
 0.35999996E+02  0.23410E+06
 0.36049999E+02  0.23965E+06
 0.36099998E+02  0.25885E+06
 0.36149998E+02  0.25649E+06
 0.36199997E+02  0.25089E+06
 0.36249996E+02  0.29626E+06
 0.36299999E+02  0.29866E+06
 0.36349998E+02  0.19262E+06
 0.36399998E+02  0.13474E+06
 0.36449997E+02  0.16964E+06
 0.36499996E+02  0.16904E+06
 0.36549999E+02  0.99525E+05
 0.36599998E+02 -0.33499E+04
 0.36649998E+02 -0.71710E+05
 0.36699997E+02 -0.34488E+05
 0.36749996E+02 -0.69457E+05
 0.36799999E+02 -0.17750E+06
 0.36849998E+02 -0.15813E+06
 0.36899998E+02 -0.11816E+06
 0.36949997E+02 -0.14790E+06
 0.36999996E+02 -0.16398E+06
 0.37049999E+02 -0.23600E+06
 0.37099998E+02 -0.24151E+06
 0.37149998E+02 -0.17278E+06
 0.37199997E+02 -0.61813E+05
 0.37249996E+02  0.22088E+04
 0.37299999E+02  0.92430E+04
 0.37349998E+02 -0.66015E+04
 0.37399998E+02 -0.24735E+05
 0.37449997E+02 -0.46962E+04
 0.37499996E+02 -0.36320E+05
 0.37549999E+02 -0.10777E+06
 0.37599998E+02 -0.13590E+06
 0.37649998E+02 -0.22902E+05
 0.37699997E+02  0.51438E+05
 0.37749996E+02  0.93665E+05
 0.37799999E+02  0.90529E+05
 0.37849998E+02  0.21992E+05
 0.37899998E+02 -0.25831E+05
 0.37949997E+02 -0.11128E+06
 0.37999996E+02 -0.27147E+06
 0.38049999E+02 -0.40172E+06
 0.38099998E+02 -0.40285E+06
 0.38149998E+02 -0.28261E+06
 0.38199997E+02 -0.97182E+05
 0.38249996E+02 -0.61513E+05
 0.38299999E+02 -0.86633E+05
 0.38349998E+02 -0.67160E+05
 0.38399998E+02 -0.94421E+05
 0.38449997E+02 -0.13654E+06
 0.38499996E+02 -0.14818E+06
 0.38549999E+02 -0.64884E+05
 0.38599998E+02  0.83931E+05
 0.38649998E+02  0.14038E+06
 0.38699997E+02  0.85526E+05
 0.38749996E+02  0.38815E+05
 0.38799999E+02  0.74278E+05
 0.38849998E+02  0.81989E+05
 0.38899998E+02  0.20848E+05
 0.38949997E+02 -0.11286E+04
 0.38999996E+02 -0.56866E+04
 0.39049999E+02 -0.21618E+05
 0.39099998E+02 -0.55940E+05
 0.39149998E+02 -0.10029E+06
 0.39199997E+02 -0.87637E+05
 0.39249996E+02 -0.33559E+05
 0.39299999E+02 -0.66580E+05
 0.39349998E+02 -0.11649E+06
 0.39399998E+02 -0.14324E+06
 0.39449997E+02 -0.18670E+06
 0.39499996E+02 -0.16780E+06
 0.39549999E+02 -0.10096E+06
 0.39599998E+02 -0.65248E+05
 0.39649998E+02 -0.61662E+04
 0.39699997E+02  0.84274E+05
 0.39749996E+02  0.11491E+06
 0.39799999E+02  0.16652E+06
 0.39849998E+02  0.18746E+06
 0.39899998E+02  0.18086E+06
 0.39949997E+02  0.23733E+06
 0.39999996E+02  0.27816E+06
 0.40049999E+02  0.28572E+06
 0.40099998E+02  0.27932E+06
 0.40149998E+02  0.25716E+06
 0.40199997E+02  0.20498E+06
 0.40249996E+02  0.22846E+06
 0.40299999E+02  0.25736E+06
 0.40349998E+02  0.27712E+06
 0.40399998E+02  0.30830E+06
 0.40449997E+02  0.23178E+06
 0.40499996E+02  0.57387E+05
 0.40549999E+02 -0.66803E+05
 0.40599998E+02 -0.39453E+05
 0.40649998E+02 -0.24521E+05
 0.40699997E+02 -0.50382E+05
 0.40749996E+02 -0.74982E+05
 0.40799999E+02 -0.74332E+05
 0.40849998E+02 -0.45309E+05
 0.40899998E+02 -0.51174E+05
 0.40949997E+02 -0.12712E+06
 0.40999996E+02 -0.11792E+06
 0.41049999E+02 -0.66070E+05
 0.41099998E+02 -0.51090E+05
 0.41149998E+02 -0.84507E+05
 0.41199997E+02 -0.13702E+06
 0.41249996E+02 -0.13711E+06
 0.41299999E+02 -0.11904E+06
 0.41349998E+02 -0.81889E+05
 0.41399998E+02 -0.37157E+05
 0.41449997E+02  0.26713E+05
 0.41499996E+02 -0.26655E+05
 0.41549999E+02 -0.97611E+05
 0.41599998E+02 -0.93636E+05
 0.41649998E+02 -0.36763E+05
 0.41699997E+02 -0.43348E+05
 0.41749996E+02 -0.10428E+06
 0.41799999E+02 -0.10476E+06
 0.41849998E+02 -0.15106E+05
 0.41899998E+02  0.37540E+05
 0.41949997E+02 -0.44035E+05
 0.41999996E+02 -0.14119E+06
 0.42049999E+02 -0.16677E+06
 0.42099998E+02 -0.15701E+06
 0.42149998E+02 -0.21714E+06
 0.42199997E+02 -0.22592E+06
 0.42249996E+02 -0.19600E+06
 0.42299999E+02 -0.13814E+06
 0.42349998E+02 -0.83894E+05
 0.42399998E+02 -0.68846E+05
 0.42449997E+02 -0.93354E+05
 0.42499996E+02 -0.10297E+06
 0.42549999E+02 -0.12216E+06
 0.42599998E+02 -0.18415E+06
 0.42649998E+02 -0.21532E+06
 0.42699997E+02 -0.23308E+06
 0.42749996E+02 -0.15083E+06
 0.42799995E+02 -0.25346E+05
 0.42849998E+02  0.94396E+05
 0.42899998E+02  0.23564E+06
 0.42949997E+02  0.34636E+06
 0.42999996E+02  0.35175E+06
 0.43049995E+02  0.29763E+06
 0.43099998E+02  0.23636E+06
 0.43149998E+02  0.20370E+06
 0.43199997E+02  0.25140E+06
 0.43249996E+02  0.30514E+06
 0.43299995E+02  0.34678E+06
 0.43349998E+02  0.39311E+06
 0.43399998E+02  0.45238E+06
 0.43449997E+02  0.46028E+06
 0.43499996E+02  0.39595E+06
 0.43549995E+02  0.28414E+06
 0.43599998E+02  0.18164E+06
 0.43649998E+02  0.11616E+06
 0.43699997E+02  0.48461E+05
 0.43749996E+02 -0.23035E+05
 0.43799995E+02 -0.64027E+05
 0.43849998E+02 -0.20860E+05
 0.43899998E+02 -0.16814E+05
 0.43949997E+02 -0.85785E+05
 0.43999996E+02 -0.94029E+05
 0.44049995E+02 -0.37164E+05
 0.44099998E+02  0.35395E+05
 0.44149998E+02  0.80867E+05
 0.44199997E+02  0.78154E+05
 0.44249996E+02  0.85442E+05
 0.44299995E+02  0.91668E+05
 0.44349998E+02  0.73991E+05
 0.44399998E+02  0.36855E+05
 0.44449997E+02 -0.91141E+04
 0.44499996E+02  0.50439E+04
 0.44549995E+02  0.45968E+05
 0.44599998E+02  0.51982E+05
 0.44649998E+02  0.73295E+05
 0.44699997E+02  0.56780E+05
 0.44749996E+02 -0.25760E+05
 0.44799995E+02 -0.77674E+05
 0.44849998E+02 -0.84926E+05
 0.44899998E+02 -0.86330E+05
 0.44949997E+02 -0.70968E+05
 0.44999996E+02 -0.67625E+05
 0.45049995E+02 -0.58962E+05
 0.45099998E+02 -0.63561E+04
 0.45149998E+02 -0.33144E+05
 0.45199997E+02 -0.93719E+05
 0.45249996E+02 -0.80917E+05
 0.45299995E+02 -0.27059E+05
 0.45349998E+02 -0.82726E+04
 0.45399998E+02 -0.17125E+05
 0.45449997E+02 -0.12537E+05
 0.45499996E+02  0.15194E+05
 0.45549995E+02  0.37857E+05
 0.45599998E+02  0.49770E+05
 0.45649998E+02  0.65065E+05
 0.45699997E+02  0.33267E+05
 0.45749996E+02 -0.13675E+05
 0.45799995E+02 -0.71058E+05
 0.45849998E+02 -0.12044E+06
 0.45899998E+02 -0.14472E+06
 0.45949997E+02 -0.15476E+06
 0.45999996E+02 -0.11873E+06
 0.46049995E+02 -0.38056E+05
 0.46099998E+02 -0.35489E+04
 0.46149998E+02 -0.80064E+04
 0.46199997E+02 -0.11706E+05
 0.46249996E+02 -0.28191E+05
 0.46299995E+02 -0.20243E+05
 0.46349998E+02  0.25327E+04
 0.46399998E+02  0.77940E+04
 0.46449997E+02 -0.50026E+04
 0.46499996E+02 -0.29114E+05
 0.46549995E+02 -0.50754E+05
 0.46599998E+02 -0.54739E+05
 0.46649998E+02 -0.59892E+05
 0.46699997E+02 -0.25360E+05
 0.46749996E+02  0.14536E+05
 0.46799995E+02  0.26342E+05
 0.46849998E+02  0.14374E+05
 0.46899998E+02 -0.49160E+05
 0.46949997E+02 -0.95712E+05
 0.46999996E+02 -0.12195E+06
 0.47049995E+02 -0.13658E+06
 0.47099998E+02 -0.12267E+06
 0.47149998E+02 -0.10099E+06
 0.47199997E+02 -0.39269E+05
 0.47249996E+02  0.52001E+04
 0.47299995E+02  0.14354E+05
 0.47349998E+02  0.36685E+05
 0.47399998E+02  0.62767E+05
 0.47449997E+02  0.67331E+05
 0.47499996E+02  0.26561E+05
 0.47549995E+02 -0.25230E+05
 0.47599998E+02 -0.88943E+05
 0.47649998E+02 -0.11081E+06
 0.47699997E+02 -0.11797E+06
 0.47749996E+02 -0.14390E+06
 0.47799995E+02 -0.13894E+06
 0.47849998E+02 -0.11369E+06
 0.47899998E+02 -0.83072E+05
 0.47949997E+02 -0.98201E+05
 0.47999996E+02 -0.16969E+06
 0.48049995E+02 -0.25382E+06
 0.48099998E+02 -0.29686E+06
 0.48149998E+02 -0.33740E+06
 0.48199997E+02 -0.36094E+06
 0.48249996E+02 -0.30412E+06
 0.48299995E+02 -0.21670E+06
 0.48349998E+02 -0.14710E+06
 0.48399998E+02 -0.10693E+06
 0.48449997E+02 -0.89440E+05
 0.48499996E+02 -0.37370E+05
 0.48549995E+02  0.98125E+04
 0.48599998E+02  0.53306E+05
 0.48649998E+02  0.14226E+06
 0.48699997E+02  0.18523E+06
 0.48749996E+02  0.16564E+06
 0.48799995E+02  0.12794E+06
 0.48849998E+02  0.10897E+06
 0.48899998E+02  0.12391E+06
 0.48949997E+02  0.17344E+06
 0.48999996E+02  0.19752E+06
 0.49049995E+02  0.15415E+06
 0.49099998E+02  0.81500E+05
 0.49149998E+02  0.44859E+05
 0.49199997E+02  0.54010E+05
 0.49249996E+02  0.63730E+05
 0.49299995E+02  0.66528E+05
 0.49349998E+02  0.36662E+05
 0.49399998E+02 -0.45005E+05
 0.49449997E+02 -0.16116E+06
 0.49499996E+02 -0.24661E+06
 0.49549995E+02 -0.27109E+06
 0.49599998E+02 -0.22129E+06
 0.49649998E+02 -0.12452E+06
 0.49699997E+02 -0.59509E+05
 0.49749996E+02 -0.63299E+05
 0.49799995E+02 -0.10676E+06
 0.49849998E+02 -0.11486E+06
 0.49899998E+02 -0.12086E+06
 0.49949997E+02 -0.13317E+06
 0.49999996E+02 -0.10752E+06
 0.50049995E+02 -0.77949E+05
 0.50099998E+02 -0.25219E+05
 0.50149998E+02  0.19683E+05
 0.50199997E+02 -0.14973E+05
 0.50249996E+02 -0.32247E+05
 0.50299995E+02 -0.32122E+05
 0.50349998E+02 -0.32366E+05
 0.50399998E+02 -0.17435E+05
 0.50449997E+02 -0.42516E+05
 0.50499996E+02 -0.63980E+05
 0.50549995E+02 -0.54778E+05
 0.50599998E+02 -0.30438E+05
 0.50649998E+02  0.58708E+05
 0.50699997E+02  0.15445E+06
 0.50749996E+02  0.18414E+06
 0.50799995E+02  0.18688E+06
 0.50849998E+02  0.13357E+06
 0.50899998E+02  0.13160E+06
 0.50949997E+02  0.21098E+06
 0.50999996E+02  0.22673E+06
 0.51049995E+02  0.17610E+06
 0.51099998E+02  0.13705E+06
 0.51149998E+02  0.85005E+05
 0.51199997E+02  0.63065E+05
 0.51249996E+02  0.10250E+06
 0.51299995E+02  0.13606E+06
 0.51349998E+02  0.18324E+06
 0.51399998E+02  0.18549E+06
 0.51449997E+02  0.14793E+06
 0.51499996E+02  0.90274E+05
 0.51549995E+02  0.19250E+05
 0.51599998E+02 -0.28037E+05
 0.51649998E+02 -0.33907E+05
 0.51699997E+02 -0.33810E+05
 0.51749996E+02 -0.59382E+05
 0.51799995E+02 -0.87785E+05
 0.51849998E+02 -0.10176E+06
 0.51899998E+02 -0.39622E+05
 0.51949997E+02  0.34472E+05
 0.51999996E+02  0.48711E+05
 0.52049995E+02  0.58078E+05
 0.52099998E+02  0.78003E+05
 0.52149998E+02  0.44870E+05
 0.52199997E+02 -0.32582E+05
 0.52249996E+02 -0.96137E+05
 0.52299995E+02 -0.16489E+06
 0.52349998E+02 -0.14640E+06
 0.52399998E+02  0.38338E+04
 0.52449997E+02  0.14543E+06
 0.52499996E+02  0.21798E+06
 0.52549995E+02  0.21951E+06
 0.52599998E+02  0.16762E+06
 0.52649998E+02  0.12102E+06
 0.52699997E+02  0.12218E+06
 0.52749996E+02  0.14031E+06
 0.52799995E+02  0.21329E+06
 0.52849998E+02  0.30673E+06
 0.52899998E+02  0.29685E+06
 0.52949997E+02  0.18229E+06
 0.52999996E+02  0.12554E+06
 0.53049995E+02  0.16571E+06
 0.53099998E+02  0.17679E+06
 0.53149998E+02  0.17038E+06
 0.53199997E+02  0.11841E+06
 0.53249996E+02  0.51132E+05
 0.53299995E+02  0.12110E+05
 0.53349998E+02  0.20658E+05
 0.53399998E+02  0.68805E+05
 0.53449997E+02  0.81117E+05
 0.53499996E+02  0.51449E+05
 0.53549995E+02  0.10024E+05
 0.53599998E+02 -0.93049E+04
 0.53649998E+02  0.23986E+05
 0.53699997E+02  0.10707E+06
 0.53749996E+02  0.12181E+06
 0.53799995E+02  0.11850E+06
 0.53849998E+02  0.10410E+06
 0.53899998E+02 -0.21486E+04
 0.53949997E+02 -0.81869E+05
 0.53999996E+02 -0.46901E+05
 0.54049995E+02  0.33750E+05
 0.54099998E+02  0.10061E+06
 0.54149998E+02  0.19276E+06
 0.54199997E+02  0.28689E+06
 0.54249996E+02  0.31870E+06
 0.54299995E+02  0.22796E+06
 0.54349998E+02  0.13221E+06
 0.54399998E+02  0.12174E+06
 0.54449997E+02  0.17279E+06
 0.54499996E+02  0.23657E+06
 0.54549995E+02  0.28210E+06
 0.54599998E+02  0.30201E+06
 0.54649998E+02  0.26760E+06
 0.54699997E+02  0.23862E+06
 0.54749996E+02  0.22173E+06
 0.54799995E+02  0.19913E+06
 0.54849998E+02  0.15550E+06
 0.54899998E+02  0.85029E+05
 0.54949997E+02  0.73664E+05
 0.54999996E+02  0.12185E+06
 0.55049995E+02  0.87495E+05
 0.55099998E+02  0.18181E+04
 0.55149998E+02 -0.12719E+05
 0.55199997E+02 -0.22609E+05
 0.55249996E+02 -0.45052E+05
 0.55299995E+02 -0.21810E+05
 0.55349998E+02 -0.28286E+05
 0.55399998E+02 -0.81200E+05
 0.55449997E+02 -0.12912E+06
 0.55499996E+02 -0.18158E+06
 0.55549995E+02 -0.19031E+06
 0.55599998E+02 -0.12751E+06
 0.55649998E+02 -0.80791E+05
 0.55699997E+02 -0.74545E+05
 0.55749996E+02 -0.44393E+05
 0.55799995E+02 -0.99905E+04
 0.55849995E+02  0.44610E+04
 0.55899998E+02 -0.21161E+05
 0.55949997E+02 -0.87163E+05
 0.55999996E+02 -0.10049E+06
 0.56049995E+02 -0.61541E+05
 0.56099995E+02 -0.51321E+05
 0.56149998E+02 -0.34249E+05
 0.56199997E+02  0.19565E+05
 0.56249996E+02  0.39740E+05
 0.56299995E+02  0.23401E+05
 0.56349995E+02 -0.18065E+05
 0.56399998E+02 -0.36923E+05
 0.56449997E+02 -0.38023E+05
 0.56499996E+02 -0.62761E+05
 0.56549995E+02 -0.12870E+06
 0.56599995E+02 -0.18045E+06
 0.56649998E+02 -0.20356E+06
 0.56699997E+02 -0.27190E+06
 0.56749996E+02 -0.35247E+06
 0.56799995E+02 -0.37468E+06
 0.56849995E+02 -0.30293E+06
 0.56899998E+02 -0.24666E+06
 0.56949997E+02 -0.27227E+06
 0.56999996E+02 -0.31857E+06
 0.57049995E+02 -0.32212E+06
 0.57099995E+02 -0.31717E+06
 0.57149998E+02 -0.33475E+06
 0.57199997E+02 -0.28484E+06
 0.57249996E+02 -0.17485E+06
 0.57299995E+02 -0.11182E+06
 0.57349995E+02 -0.58193E+05
 0.57399998E+02 -0.26796E+03
 0.57449997E+02  0.55635E+05
 0.57499996E+02  0.12003E+06
 0.57549995E+02  0.15067E+06
 0.57599995E+02  0.20750E+06
 0.57649998E+02  0.34074E+06
 0.57699997E+02  0.47840E+06
 0.57749996E+02  0.52003E+06
 0.57799995E+02  0.52283E+06
 0.57849995E+02  0.54028E+06
 0.57899998E+02  0.54352E+06
 0.57949997E+02  0.53519E+06
 0.57999996E+02  0.54336E+06
 0.58049995E+02  0.55935E+06
 0.58099995E+02  0.59820E+06
 0.58149998E+02  0.66015E+06
 0.58199997E+02  0.68989E+06
 0.58249996E+02  0.66304E+06
 0.58299995E+02  0.52332E+06
 0.58349995E+02  0.34671E+06
 0.58399998E+02  0.29716E+06
 0.58449997E+02  0.37558E+06
 0.58499996E+02  0.45081E+06
 0.58549995E+02  0.46271E+06
 0.58599995E+02  0.42627E+06
 0.58649998E+02  0.38467E+06
 0.58699997E+02  0.31926E+06
 0.58749996E+02  0.18877E+06
 0.58799995E+02  0.53167E+05
 0.58849995E+02 -0.20323E+05
 0.58899998E+02 -0.44685E+05
 0.58949997E+02 -0.17960E+05
 0.58999996E+02  0.31636E+05
 0.59049995E+02  0.50330E+05
 0.59099995E+02  0.16231E+05
 0.59149998E+02 -0.88468E+05
 0.59199997E+02 -0.19630E+06
 0.59249996E+02 -0.26182E+06
 0.59299995E+02 -0.29676E+06
 0.59349995E+02 -0.33038E+06
 0.59399998E+02 -0.32745E+06
 0.59449997E+02 -0.31673E+06
 0.59499996E+02 -0.32029E+06
 0.59549995E+02 -0.28974E+06
 0.59599995E+02 -0.24666E+06
 0.59649998E+02 -0.21989E+06
 0.59699997E+02 -0.21793E+06
 0.59749996E+02 -0.22850E+06
 0.59799995E+02 -0.23270E+06
 0.59849995E+02 -0.21020E+06
 0.59899998E+02 -0.14933E+06
 0.59949997E+02 -0.84701E+05
 0.59999996E+02 -0.45166E+05
 0.60049995E+02 -0.27108E+05
 0.60099995E+02 -0.46060E+05
 0.60149998E+02 -0.90910E+05
 0.60199997E+02 -0.13655E+06
 0.60249996E+02 -0.15790E+06
 0.60299995E+02 -0.19957E+06
 0.60349995E+02 -0.25895E+06
 0.60399998E+02 -0.30226E+06
 0.60449997E+02 -0.33629E+06
 0.60499996E+02 -0.34261E+06
 0.60549995E+02 -0.34822E+06
 0.60599995E+02 -0.36190E+06
 0.60649998E+02 -0.34762E+06
 0.60699997E+02 -0.28554E+06
 0.60749996E+02 -0.20853E+06
 0.60799995E+02 -0.16767E+06
 0.60849995E+02 -0.15166E+06
 0.60899998E+02 -0.15941E+06
 0.60949997E+02 -0.19974E+06
 0.60999996E+02 -0.25698E+06
 0.61049995E+02 -0.31054E+06
 0.61099995E+02 -0.34404E+06
 0.61149998E+02 -0.37018E+06
 0.61199997E+02 -0.32862E+06
 0.61249996E+02 -0.28167E+06
 0.61299995E+02 -0.29656E+06
 0.61349995E+02 -0.33357E+06
 0.61399998E+02 -0.34625E+06
 0.61449997E+02 -0.31180E+06
 0.61499996E+02 -0.32611E+06
 0.61549995E+02 -0.37504E+06
 0.61599995E+02 -0.35855E+06
 0.61649998E+02 -0.30977E+06
 0.61699997E+02 -0.26482E+06
 0.61749996E+02 -0.18391E+06
 0.61799995E+02 -0.96730E+05
 0.61849995E+02 -0.38018E+05
 0.61899998E+02  0.68581E+04
 0.61949997E+02  0.29075E+05
 0.61999996E+02  0.11256E+05
 0.62049995E+02 -0.29745E+05
 0.62099998E+02 -0.18902E+05
 0.62149994E+02  0.65568E+05
 0.62199997E+02  0.13644E+06
 0.62249992E+02  0.15017E+06
 0.62299995E+02  0.12843E+06
 0.62349998E+02  0.98867E+05
 0.62399994E+02  0.46848E+05
 0.62449997E+02 -0.67863E+04
 0.62499992E+02 -0.60935E+04
 0.62549995E+02  0.34548E+05
 0.62599998E+02  0.61305E+05
 0.62649994E+02  0.24839E+05
 0.62699997E+02 -0.52949E+05
 0.62749992E+02 -0.11664E+06
 0.62799995E+02 -0.15648E+06
 0.62849998E+02 -0.15022E+06
 0.62899994E+02 -0.69069E+05
 0.62949997E+02  0.52326E+05
 0.62999992E+02  0.17157E+06
 0.63049995E+02  0.25299E+06
 0.63099998E+02  0.29333E+06
 0.63149994E+02  0.29629E+06
 0.63199997E+02  0.28296E+06
 0.63249992E+02  0.30809E+06
 0.63299995E+02  0.35086E+06
 0.63349998E+02  0.40270E+06
 0.63399994E+02  0.48559E+06
 0.63449997E+02  0.55651E+06
 0.63499992E+02  0.57807E+06
 0.63549995E+02  0.53692E+06
 0.63599998E+02  0.44415E+06
 0.63649994E+02  0.36835E+06
 0.63699997E+02  0.33471E+06
 0.63749992E+02  0.30560E+06
 0.63799995E+02  0.25829E+06
 0.63849998E+02  0.21424E+06
 0.63899994E+02  0.16332E+06
 0.63949997E+02  0.66446E+05
 0.63999992E+02 -0.32800E+05
 0.64049995E+02 -0.78115E+05
 0.64099998E+02 -0.11301E+06
 0.64149994E+02 -0.17227E+06
 0.64199997E+02 -0.21355E+06
 0.64249992E+02 -0.23977E+06
 0.64299995E+02 -0.27376E+06
 0.64349998E+02 -0.31691E+06
 0.64399994E+02 -0.36566E+06
 0.64449997E+02 -0.41572E+06
 0.64499992E+02 -0.45879E+06
 0.64549995E+02 -0.47645E+06
 0.64599998E+02 -0.47672E+06
 0.64649994E+02 -0.46200E+06
 0.64699997E+02 -0.44933E+06
 0.64749992E+02 -0.44800E+06
 0.64799995E+02 -0.44708E+06
 0.64849998E+02 -0.44052E+06
 0.64899994E+02 -0.42644E+06
 0.64949997E+02 -0.45557E+06
 0.64999992E+02 -0.52242E+06
 0.65049995E+02 -0.55733E+06
 0.65099998E+02 -0.54888E+06
 0.65149994E+02 -0.53499E+06
 0.65199997E+02 -0.54245E+06
 0.65249992E+02 -0.56379E+06
 0.65299995E+02 -0.57507E+06
 0.65349998E+02 -0.56782E+06
 0.65399994E+02 -0.55175E+06
 0.65449997E+02 -0.55059E+06
 0.65499992E+02 -0.56298E+06
 0.65549995E+02 -0.58897E+06
 0.65599998E+02 -0.61962E+06
 0.65649994E+02 -0.63812E+06
 0.65699997E+02 -0.64166E+06
 0.65749992E+02 -0.61551E+06
 0.65799995E+02 -0.55463E+06
 0.65849998E+02 -0.44473E+06
 0.65899994E+02 -0.35189E+06
 0.65949997E+02 -0.30179E+06
 0.65999992E+02 -0.23696E+06
 0.66049995E+02 -0.14883E+06
 0.66099998E+02 -0.67651E+05
 0.66149994E+02 -0.38948E+05
 0.66199997E+02 -0.50641E+05
 0.66249992E+02 -0.58324E+05
 0.66299995E+02 -0.34940E+05
 0.66349998E+02  0.25229E+04
 0.66399994E+02  0.19049E+05
 0.66449997E+02  0.39694E+05
 0.66499992E+02  0.74269E+05
 0.66549995E+02  0.97905E+05
 0.66599998E+02  0.79692E+05
 0.66649994E+02  0.51043E+05
 0.66699997E+02  0.45536E+05
 0.66749992E+02  0.30736E+05
 0.66799995E+02  0.11294E+05
 0.66849998E+02 -0.72354E+04
 0.66899994E+02 -0.13168E+05
 0.66949997E+02 -0.92053E+04
 0.66999992E+02 -0.25807E+05
 0.67049995E+02 -0.62186E+05
 0.67099998E+02 -0.94593E+05
 0.67149994E+02 -0.11178E+06
 0.67199997E+02 -0.71624E+05
 0.67249992E+02  0.21170E+05
 0.67299995E+02  0.61333E+05
 0.67349998E+02  0.36222E+04
 0.67399994E+02 -0.83413E+05
 0.67449997E+02 -0.14970E+06
 0.67499992E+02 -0.20675E+06
 0.67549995E+02 -0.22903E+06
 0.67599998E+02 -0.19676E+06
 0.67649994E+02 -0.13415E+06
 0.67699997E+02 -0.77575E+05
 0.67749992E+02 -0.20090E+05
 0.67799995E+02  0.53147E+05
 0.67849998E+02  0.12900E+06
 0.67899994E+02  0.15766E+06
 0.67949997E+02  0.13808E+06
 0.67999992E+02  0.10848E+06
 0.68049995E+02  0.61115E+05
 0.68099998E+02  0.51191E+05
 0.68149994E+02  0.10778E+06
 0.68199997E+02  0.17196E+06
 0.68249992E+02  0.18816E+06
 0.68299995E+02  0.14915E+06
 0.68349998E+02  0.88141E+05
 0.68399994E+02  0.22352E+05
 0.68449997E+02 -0.54243E+05
 0.68499992E+02 -0.14873E+06
 0.68549995E+02 -0.21113E+06
 0.68599998E+02 -0.20777E+06
 0.68649994E+02 -0.16274E+06
 0.68699997E+02 -0.76110E+05
 0.68749992E+02  0.75491E+04
 0.68799995E+02  0.27925E+05
 0.68849998E+02 -0.29640E+05
 0.68899994E+02 -0.13591E+06
 0.68949997E+02 -0.21019E+06
 0.68999992E+02 -0.19869E+06
 0.69049995E+02 -0.13500E+06
 0.69099998E+02 -0.42873E+05
 0.69149994E+02  0.87336E+05
 0.69199997E+02  0.20634E+06
 0.69249992E+02  0.26921E+06
 0.69299995E+02  0.31008E+06
 0.69349998E+02  0.38398E+06
 0.69399994E+02  0.50947E+06
 0.69449997E+02  0.67418E+06
 0.69499992E+02  0.86217E+06
 0.69549995E+02  0.10225E+07
 0.69599998E+02  0.11243E+07
 0.69649994E+02  0.11848E+07
 0.69699997E+02  0.12202E+07
 0.69749992E+02  0.12274E+07
 0.69799995E+02  0.12146E+07
 0.69849998E+02  0.12249E+07
 0.69899994E+02  0.12952E+07
 0.69949997E+02  0.13915E+07
 0.69999992E+02  0.14126E+07
 0.70049995E+02  0.13550E+07
 0.70099998E+02  0.12804E+07
 0.70149994E+02  0.12138E+07
 0.70199997E+02  0.11962E+07
 0.70249992E+02  0.12284E+07
 0.70299995E+02  0.12682E+07
 0.70349998E+02  0.13109E+07
 0.70399994E+02  0.13446E+07
 0.70449997E+02  0.13399E+07
 0.70499992E+02  0.12990E+07
 0.70549995E+02  0.12420E+07
 0.70599998E+02  0.11732E+07
 0.70649994E+02  0.10967E+07
 0.70699997E+02  0.10132E+07
 0.70749992E+02  0.93467E+06
 0.70799995E+02  0.89538E+06
 0.70849998E+02  0.87775E+06
 0.70899994E+02  0.80816E+06
 0.70949997E+02  0.67254E+06
 0.70999992E+02  0.51736E+06
 0.71049995E+02  0.35403E+06
 0.71099998E+02  0.19637E+06
 0.71149994E+02  0.80367E+05
 0.71199997E+02 -0.78898E+04
 0.71249992E+02 -0.81458E+05
 0.71299995E+02 -0.11942E+06
 0.71349998E+02 -0.14044E+06
 0.71399994E+02 -0.17927E+06
 0.71449997E+02 -0.24632E+06
 0.71499992E+02 -0.32935E+06
 0.71549995E+02 -0.40815E+06
 0.71599998E+02 -0.46990E+06
 0.71649994E+02 -0.51231E+06
 0.71699997E+02 -0.52435E+06
 0.71749992E+02 -0.49451E+06
 0.71799995E+02 -0.47523E+06
 0.71849998E+02 -0.49613E+06
 0.71899994E+02 -0.53731E+06
 0.71949997E+02 -0.60268E+06
 0.71999992E+02 -0.67003E+06
 0.72049995E+02 -0.71318E+06
 0.72099998E+02 -0.73127E+06
 0.72149994E+02 -0.73456E+06
 0.72199997E+02 -0.72826E+06
 0.72249992E+02 -0.73291E+06
 0.72299995E+02 -0.75306E+06
 0.72349998E+02 -0.78847E+06
 0.72399994E+02 -0.84017E+06
 0.72449997E+02 -0.88472E+06
 0.72499992E+02 -0.91262E+06
 0.72549995E+02 -0.93760E+06
 0.72599998E+02 -0.97087E+06
 0.72649994E+02 -0.99673E+06
 0.72699997E+02 -0.99949E+06
 0.72749992E+02 -0.96884E+06
 0.72799995E+02 -0.90901E+06
 0.72849998E+02 -0.82699E+06
 0.72899994E+02 -0.73247E+06
 0.72949997E+02 -0.64402E+06
 0.72999992E+02 -0.57220E+06
 0.73049995E+02 -0.51595E+06
 0.73099998E+02 -0.46093E+06
 0.73149994E+02 -0.39018E+06
 0.73199997E+02 -0.29888E+06
 0.73249992E+02 -0.19238E+06
 0.73299995E+02 -0.10758E+06
 0.73349998E+02 -0.61827E+05
 0.73399994E+02 -0.42368E+05
 0.73449997E+02 -0.37848E+05
 0.73499992E+02 -0.35194E+05
 0.73549995E+02 -0.10508E+05
 0.73599998E+02  0.49294E+05
 0.73649994E+02  0.13210E+06
 0.73699997E+02  0.21274E+06
 0.73749992E+02  0.25862E+06
 0.73799995E+02  0.29675E+06
 0.73849998E+02  0.34439E+06
 0.73899994E+02  0.40477E+06
 0.73949997E+02  0.49101E+06
 0.73999992E+02  0.58211E+06
 0.74049995E+02  0.65644E+06
 0.74099998E+02  0.70516E+06
 0.74149994E+02  0.71488E+06
 0.74199997E+02  0.70669E+06
 0.74249992E+02  0.70892E+06
 0.74299995E+02  0.71467E+06
 0.74349998E+02  0.71645E+06
 0.74399994E+02  0.68804E+06
 0.74449997E+02  0.60723E+06
 0.74499992E+02  0.50319E+06
 0.74549995E+02  0.42991E+06
 0.74599998E+02  0.38724E+06
 0.74649994E+02  0.34487E+06
 0.74699997E+02  0.29177E+06
 0.74749992E+02  0.24328E+06
 0.74799995E+02  0.20564E+06
 0.74849998E+02  0.16720E+06
 0.74899994E+02  0.13114E+06
 0.74949997E+02  0.10588E+06
 0.74999992E+02  0.86034E+05
 0.75049995E+02  0.63737E+05
 0.75099998E+02  0.37326E+05
 0.75149994E+02 -0.62763E+04
 0.75199997E+02 -0.64196E+05
 0.75249992E+02 -0.10311E+06
 0.75299995E+02 -0.11922E+06
 0.75349998E+02 -0.13893E+06
 0.75399994E+02 -0.17807E+06
 0.75449997E+02 -0.21248E+06
 0.75499992E+02 -0.20911E+06
 0.75549995E+02 -0.17833E+06
 0.75599998E+02 -0.14915E+06
 0.75649994E+02 -0.13075E+06
 0.75699997E+02 -0.11831E+06
 0.75749992E+02 -0.14745E+06
 0.75799995E+02 -0.22079E+06
 0.75849998E+02 -0.31998E+06
 0.75899994E+02 -0.43284E+06
 0.75949997E+02 -0.53217E+06
 0.75999992E+02 -0.59436E+06
 0.76049995E+02 -0.59323E+06
 0.76099998E+02 -0.55317E+06
 0.76149994E+02 -0.52693E+06
 0.76199997E+02 -0.53999E+06
 0.76249992E+02 -0.60372E+06
 0.76299995E+02 -0.70147E+06
 0.76349998E+02 -0.78133E+06
 0.76399994E+02 -0.81941E+06
 0.76449997E+02 -0.82259E+06
 0.76499992E+02 -0.80075E+06
 0.76549995E+02 -0.75951E+06
 0.76599998E+02 -0.70587E+06
 0.76649994E+02 -0.66294E+06
 0.76699997E+02 -0.64829E+06
 0.76749992E+02 -0.64602E+06
 0.76799995E+02 -0.63194E+06
 0.76849998E+02 -0.60315E+06
 0.76899994E+02 -0.57310E+06
 0.76949997E+02 -0.53894E+06
 0.76999992E+02 -0.50646E+06
 0.77049995E+02 -0.51240E+06
 0.77099998E+02 -0.54854E+06
 0.77149994E+02 -0.58334E+06
 0.77199997E+02 -0.60621E+06
 0.77249992E+02 -0.60321E+06
 0.77299995E+02 -0.54659E+06
 0.77349998E+02 -0.42922E+06
 0.77399994E+02 -0.27425E+06
 0.77449997E+02 -0.12499E+06
 0.77499992E+02 -0.15025E+05
 0.77549995E+02  0.66479E+05
 0.77599998E+02  0.14788E+06
 0.77649994E+02  0.23206E+06
 0.77699997E+02  0.30140E+06
 0.77749992E+02  0.34681E+06
 0.77799995E+02  0.38030E+06
 0.77849998E+02  0.42857E+06
 0.77899994E+02  0.47592E+06
 0.77949997E+02  0.48288E+06
 0.77999992E+02  0.45106E+06
 0.78049995E+02  0.40911E+06
 0.78099998E+02  0.36477E+06
 0.78149994E+02  0.32243E+06
 0.78199997E+02  0.29292E+06
 0.78249992E+02  0.27952E+06
 0.78299995E+02  0.27976E+06
 0.78349998E+02  0.28999E+06
 0.78399994E+02  0.31112E+06
 0.78449997E+02  0.33176E+06
 0.78499992E+02  0.33604E+06
 0.78549995E+02  0.31814E+06
 0.78599998E+02  0.27828E+06
 0.78649994E+02  0.22590E+06
 0.78699997E+02  0.17443E+06
 0.78749992E+02  0.12804E+06
 0.78799995E+02  0.10088E+06
 0.78849998E+02  0.11449E+06
 0.78899994E+02  0.16865E+06
 0.78949997E+02  0.25187E+06
 0.78999992E+02  0.34553E+06
 0.79049995E+02  0.42902E+06
 0.79099998E+02  0.47886E+06
 0.79149994E+02  0.48583E+06
 0.79199997E+02  0.47538E+06
 0.79249992E+02  0.45654E+06
 0.79299995E+02  0.41909E+06
 0.79349998E+02  0.36680E+06
 0.79399994E+02  0.31256E+06
 0.79449997E+02  0.27204E+06
 0.79499992E+02  0.24062E+06
 0.79549995E+02  0.21331E+06
 0.79599998E+02  0.18858E+06
 0.79649994E+02  0.16042E+06
 0.79699997E+02  0.12999E+06
 0.79749992E+02  0.10236E+06
 0.79799995E+02  0.81746E+05
 0.79849998E+02  0.38894E+05
 0.79899994E+02 -0.38444E+05
 0.79949997E+02 -0.10429E+06
 0.79999992E+02 -0.10881E+06
 0.80049995E+02 -0.69039E+05
 0.80099998E+02 -0.31269E+05
 0.80149994E+02 -0.17561E+05
 0.80199997E+02 -0.41439E+05
 0.80249992E+02 -0.90593E+05
 0.80299995E+02 -0.14875E+06
 0.80349998E+02 -0.20372E+06
 0.80399994E+02 -0.23885E+06
 0.80449997E+02 -0.26155E+06
 0.80499992E+02 -0.27704E+06
 0.80549995E+02 -0.27495E+06
 0.80599998E+02 -0.25880E+06
 0.80649994E+02 -0.22216E+06
 0.80699997E+02 -0.15594E+06
 0.80749992E+02 -0.74005E+05
 0.80799995E+02 -0.11410E+05
 0.80849998E+02  0.80171E+04
 0.80899994E+02 -0.53493E+04
 0.80949997E+02 -0.20866E+05
 0.80999992E+02 -0.12514E+05
 0.81049995E+02  0.13060E+05
 0.81099998E+02  0.38694E+05
 0.81149994E+02  0.62045E+05
 0.81199997E+02  0.82436E+05
 0.81249992E+02  0.87158E+05
 0.81299995E+02  0.79916E+05
 0.81349998E+02  0.71927E+05
 0.81399994E+02  0.74672E+05
 0.81449997E+02  0.81378E+05
 0.81499992E+02  0.76644E+05
 0.81549995E+02  0.65025E+05
 0.81599998E+02  0.48223E+05
 0.81649994E+02  0.31253E+05
 0.81699997E+02  0.14318E+05
 0.81749992E+02  0.65461E+04
 0.81799995E+02  0.30145E+05
 0.81849998E+02  0.87489E+05
 0.81899994E+02  0.15117E+06
 0.81949997E+02  0.20339E+06
 0.81999992E+02  0.22915E+06
 0.82049995E+02  0.22468E+06
 0.82099998E+02  0.20562E+06
 0.82149994E+02  0.18125E+06
 0.82199997E+02  0.16975E+06
 0.82249992E+02  0.17901E+06
 0.82299995E+02  0.20839E+06
 0.82349998E+02  0.24879E+06
 0.82399994E+02  0.27900E+06
 0.82449997E+02  0.28211E+06
 0.82499992E+02  0.26554E+06
 0.82549995E+02  0.24270E+06
 0.82599998E+02  0.21952E+06
 0.82649994E+02  0.20803E+06
 0.82699997E+02  0.20747E+06
 0.82749992E+02  0.20965E+06
 0.82799995E+02  0.20266E+06
 0.82849998E+02  0.18507E+06
 0.82899994E+02  0.16047E+06
 0.82949997E+02  0.11418E+06
 0.82999992E+02  0.47349E+05
 0.83049995E+02 -0.19045E+05
 0.83099998E+02 -0.68802E+05
 0.83149994E+02 -0.10317E+06
 0.83199997E+02 -0.13117E+06
 0.83249992E+02 -0.15280E+06
 0.83299995E+02 -0.17315E+06
 0.83349998E+02 -0.19688E+06
 0.83399994E+02 -0.22755E+06
 0.83449997E+02 -0.25672E+06
 0.83499992E+02 -0.26810E+06
 0.83549995E+02 -0.27864E+06
 0.83599998E+02 -0.31085E+06
 0.83649994E+02 -0.36509E+06
 0.83699997E+02 -0.43509E+06
 0.83749992E+02 -0.49361E+06
 0.83799995E+02 -0.51832E+06
 0.83849998E+02 -0.51780E+06
 0.83899994E+02 -0.48822E+06
 0.83949997E+02 -0.43140E+06
 0.83999992E+02 -0.36308E+06
 0.84049995E+02 -0.30262E+06
 0.84099998E+02 -0.27728E+06
 0.84149994E+02 -0.29622E+06
 0.84199997E+02 -0.34461E+06
 0.84249992E+02 -0.39244E+06
 0.84299995E+02 -0.42589E+06
 0.84349998E+02 -0.44847E+06
 0.84399994E+02 -0.45103E+06
 0.84449997E+02 -0.44021E+06
 0.84499992E+02 -0.43894E+06
 0.84549995E+02 -0.45196E+06
 0.84599998E+02 -0.46740E+06
 0.84649994E+02 -0.46695E+06
 0.84699997E+02 -0.43260E+06
 0.84749992E+02 -0.36708E+06
 0.84799995E+02 -0.29576E+06
 0.84849998E+02 -0.23176E+06
 0.84899994E+02 -0.18138E+06
 0.84949997E+02 -0.14061E+06
 0.84999992E+02 -0.10082E+06
 0.85049995E+02 -0.64527E+05
 0.85099998E+02 -0.36115E+05
 0.85149994E+02 -0.24584E+05
 0.85199997E+02 -0.27176E+05
 0.85249992E+02 -0.23349E+05
 0.85299995E+02 -0.17508E+04
 0.85349998E+02  0.46460E+05
 0.85399994E+02  0.12832E+06
 0.85449997E+02  0.23059E+06
 0.85499992E+02  0.32974E+06
 0.85549995E+02  0.39766E+06
 0.85599998E+02  0.42179E+06
 0.85649994E+02  0.41268E+06
 0.85699997E+02  0.39053E+06
 0.85749992E+02  0.37790E+06
 0.85799995E+02  0.39392E+06
 0.85849998E+02  0.43653E+06
 0.85899994E+02  0.48010E+06
 0.85949997E+02  0.50501E+06
 0.85999992E+02  0.50218E+06
 0.86049995E+02  0.47266E+06
 0.86099998E+02  0.43306E+06
 0.86149994E+02  0.40456E+06
 0.86199997E+02  0.39450E+06
 0.86249992E+02  0.39904E+06
 0.86299995E+02  0.41346E+06
 0.86349998E+02  0.42485E+06
 0.86399994E+02  0.42593E+06
 0.86449997E+02  0.41813E+06
 0.86499992E+02  0.39777E+06
 0.86549995E+02  0.35792E+06
 0.86599998E+02  0.30392E+06
 0.86649994E+02  0.25470E+06
 0.86699997E+02  0.23271E+06
 0.86749992E+02  0.24653E+06
 0.86799995E+02  0.27781E+06
 0.86849998E+02  0.30381E+06
 0.86899994E+02  0.32093E+06
 0.86949997E+02  0.33778E+06
 0.86999992E+02  0.35228E+06
 0.87049995E+02  0.35746E+06
 0.87099998E+02  0.35518E+06
 0.87149994E+02  0.35433E+06
 0.87199997E+02  0.35640E+06
 0.87249992E+02  0.35937E+06
 0.87299995E+02  0.35708E+06
 0.87349998E+02  0.34117E+06
 0.87399994E+02  0.31642E+06
 0.87449997E+02  0.28777E+06
 0.87499992E+02  0.25658E+06
 0.87549995E+02  0.23606E+06
 0.87599991E+02  0.24047E+06
 0.87649994E+02  0.25868E+06
 0.87699997E+02  0.26266E+06
 0.87749992E+02  0.23890E+06
 0.87799995E+02  0.19937E+06
 0.87849991E+02  0.15585E+06
 0.87899994E+02  0.11688E+06
 0.87949997E+02  0.85121E+05
 0.87999992E+02  0.58448E+05
 0.88049995E+02  0.34630E+05
 0.88099991E+02  0.96534E+04
 0.88149994E+02 -0.15135E+05
 0.88199997E+02 -0.43327E+05
 0.88249992E+02 -0.80757E+05
 0.88299995E+02 -0.13554E+06
 0.88349991E+02 -0.19283E+06
 0.88399994E+02 -0.22619E+06
 0.88449997E+02 -0.23136E+06
 0.88499992E+02 -0.23339E+06
 0.88549995E+02 -0.25541E+06
 0.88599991E+02 -0.29312E+06
 0.88649994E+02 -0.34225E+06
 0.88699997E+02 -0.39579E+06
 0.88749992E+02 -0.44631E+06
 0.88799995E+02 -0.48895E+06
 0.88849991E+02 -0.51824E+06
 0.88899994E+02 -0.53743E+06
 0.88949997E+02 -0.55440E+06
 0.88999992E+02 -0.56710E+06
 0.89049995E+02 -0.58694E+06
 0.89099991E+02 -0.62433E+06
 0.89149994E+02 -0.66509E+06
 0.89199997E+02 -0.70472E+06
 0.89249992E+02 -0.74550E+06
 0.89299995E+02 -0.78616E+06
 0.89349991E+02 -0.81513E+06
 0.89399994E+02 -0.82349E+06
 0.89449997E+02 -0.82860E+06
 0.89499992E+02 -0.84769E+06
 0.89549995E+02 -0.88091E+06
 0.89599991E+02 -0.90890E+06
 0.89649994E+02 -0.90255E+06
 0.89699997E+02 -0.85594E+06
 0.89749992E+02 -0.77087E+06
 0.89799995E+02 -0.65079E+06
 0.89849991E+02 -0.52434E+06
 0.89899994E+02 -0.41877E+06
 0.89949997E+02 -0.33588E+06
 0.89999992E+02 -0.26761E+06
 0.90049995E+02 -0.20830E+06
 0.90099991E+02 -0.15373E+06
 0.90149994E+02 -0.10316E+06
 0.90199997E+02 -0.53929E+05
 0.90249992E+02 -0.78575E+04
 0.90299995E+02  0.25831E+05
 0.90349991E+02  0.45818E+05
 0.90399994E+02  0.55634E+05
 0.90449997E+02  0.58986E+05
 0.90499992E+02  0.66828E+05
 0.90549995E+02  0.90685E+05
 0.90599991E+02  0.13447E+06
 0.90649994E+02  0.19379E+06
 0.90699997E+02  0.25120E+06
 0.90749992E+02  0.29262E+06
 0.90799995E+02  0.31765E+06
 0.90849991E+02  0.32622E+06
 0.90899994E+02  0.32725E+06
 0.90949997E+02  0.33895E+06
 0.90999992E+02  0.37042E+06
 0.91049995E+02  0.41142E+06
 0.91099991E+02  0.44628E+06
 0.91149994E+02  0.47964E+06
 0.91199997E+02  0.52339E+06
 0.91249992E+02  0.57358E+06
 0.91299995E+02  0.61725E+06
 0.91349991E+02  0.65511E+06
 0.91399994E+02  0.69343E+06
 0.91449997E+02  0.73769E+06
 0.91499992E+02  0.78546E+06
 0.91549995E+02  0.81872E+06
 0.91599991E+02  0.82298E+06
 0.91649994E+02  0.79661E+06
 0.91699997E+02  0.75772E+06
 0.91749992E+02  0.71496E+06
 0.91799995E+02  0.66885E+06
 0.91849991E+02  0.63368E+06
 0.91899994E+02  0.61558E+06
 0.91949997E+02  0.61936E+06
 0.91999992E+02  0.64756E+06
 0.92049995E+02  0.68801E+06
 0.92099991E+02  0.72334E+06
 0.92149994E+02  0.73652E+06
 0.92199997E+02  0.71821E+06
 0.92249992E+02  0.66653E+06
 0.92299995E+02  0.59182E+06
 0.92349991E+02  0.51275E+06
 0.92399994E+02  0.43437E+06
 0.92449997E+02  0.34489E+06
 0.92499992E+02  0.23200E+06
 0.92549995E+02  0.10779E+06
 0.92599991E+02 -0.19211E+04
 0.92649994E+02 -0.84376E+05
 0.92699997E+02 -0.14688E+06
 0.92749992E+02 -0.19904E+06
 0.92799995E+02 -0.24136E+06
 0.92849991E+02 -0.27878E+06
 0.92899994E+02 -0.32592E+06
 0.92949997E+02 -0.38625E+06
 0.92999992E+02 -0.43996E+06
 0.93049995E+02 -0.47388E+06
 0.93099991E+02 -0.48475E+06
 0.93149994E+02 -0.47203E+06
 0.93199997E+02 -0.43806E+06
 0.93249992E+02 -0.39314E+06
 0.93299995E+02 -0.36015E+06
 0.93349991E+02 -0.35259E+06
 0.93399994E+02 -0.36332E+06
 0.93449997E+02 -0.37651E+06
 0.93499992E+02 -0.39148E+06
 0.93549995E+02 -0.40972E+06
 0.93599991E+02 -0.42211E+06
 0.93649994E+02 -0.42324E+06
 0.93699997E+02 -0.42343E+06
 0.93749992E+02 -0.43774E+06
 0.93799995E+02 -0.46962E+06
 0.93849991E+02 -0.51640E+06
 0.93899994E+02 -0.57040E+06
 0.93949997E+02 -0.61775E+06
 0.93999992E+02 -0.64045E+06
 0.94049995E+02 -0.62598E+06
 0.94099991E+02 -0.57499E+06
 0.94149994E+02 -0.50114E+06
 0.94199997E+02 -0.42076E+06
 0.94249992E+02 -0.34616E+06
 0.94299995E+02 -0.28382E+06
 0.94349991E+02 -0.22873E+06
 0.94399994E+02 -0.17179E+06
 0.94449997E+02 -0.11155E+06
 0.94499992E+02 -0.56549E+05
 0.94549995E+02 -0.93519E+04
 0.94599991E+02  0.34379E+05
 0.94649994E+02  0.72665E+05
 0.94699997E+02  0.10576E+06
 0.94749992E+02  0.13281E+06
 0.94799995E+02  0.15074E+06
 0.94849991E+02  0.15793E+06
 0.94899994E+02  0.15625E+06
 0.94949997E+02  0.15157E+06
 0.94999992E+02  0.14358E+06
 0.95049995E+02  0.13208E+06
 0.95099991E+02  0.11172E+06
 0.95149994E+02  0.76172E+05
 0.95199997E+02  0.32886E+05
 0.95249992E+02  0.12350E+03
 0.95299995E+02 -0.12298E+05
 0.95349991E+02 -0.73863E+04
 0.95399994E+02  0.12310E+05
 0.95449997E+02  0.40846E+05
 0.95499992E+02  0.66333E+05
 0.95549995E+02  0.75986E+05
 0.95599991E+02  0.69314E+05
 0.95649994E+02  0.50030E+05
 0.95699997E+02  0.27199E+05
 0.95749992E+02  0.72655E+04
 0.95799995E+02 -0.12043E+05
 0.95849991E+02 -0.35444E+05
 0.95899994E+02 -0.59533E+05
 0.95949997E+02 -0.71328E+05
 0.95999992E+02 -0.65973E+05
 0.96049995E+02 -0.50189E+05
 0.96099991E+02 -0.35634E+05
 0.96149994E+02 -0.21007E+05
 0.96199997E+02 -0.68942E+04
 0.96249992E+02  0.89452E+04
 0.96299995E+02  0.29838E+05
 0.96349991E+02  0.48258E+05
 0.96399994E+02  0.59745E+05
 0.96449997E+02  0.66141E+05
 0.96499992E+02  0.71685E+05
 0.96549995E+02  0.74204E+05
 0.96599991E+02  0.70573E+05
 0.96649994E+02  0.57245E+05
 0.96699997E+02  0.37404E+05
 0.96749992E+02  0.22176E+05
 0.96799995E+02  0.21159E+05
 0.96849991E+02  0.40984E+05
 0.96899994E+02  0.80614E+05
 0.96949997E+02  0.12965E+06
 0.96999992E+02  0.18049E+06
 0.97049995E+02  0.22623E+06
 0.97099991E+02  0.25711E+06
 0.97149994E+02  0.27924E+06
 0.97199997E+02  0.30547E+06
 0.97249992E+02  0.34193E+06
 0.97299995E+02  0.38502E+06
 0.97349991E+02  0.42576E+06
 0.97399994E+02  0.45803E+06
 0.97449997E+02  0.47772E+06
 0.97499992E+02  0.47972E+06
 0.97549995E+02  0.46082E+06
 0.97599991E+02  0.42310E+06
 0.97649994E+02  0.37767E+06
 0.97699997E+02  0.34019E+06
 0.97749992E+02  0.31656E+06
 0.97799995E+02  0.30392E+06
 0.97849991E+02  0.29666E+06
 0.97899994E+02  0.29124E+06
 0.97949997E+02  0.29217E+06
 0.97999992E+02  0.30818E+06
