-0.19969940E+01 -0.33008E+05
-0.19469941E+01 -0.32850E+05
-0.18969940E+01 -0.33002E+05
-0.18469940E+01 -0.33007E+05
-0.17969940E+01 -0.32995E+05
-0.17469940E+01 -0.33000E+05
-0.16969941E+01 -0.33003E+05
-0.16469941E+01 -0.33016E+05
-0.15969940E+01 -0.33016E+05
-0.15469940E+01 -0.33016E+05
-0.14969940E+01 -0.33013E+05
-0.14469941E+01 -0.33004E+05
-0.13969941E+01 -0.33003E+05
-0.13469940E+01 -0.32991E+05
-0.12969941E+01 -0.32985E+05
-0.12469940E+01 -0.32989E+05
-0.11969941E+01 -0.32977E+05
-0.11469941E+01 -0.32991E+05
-0.10969940E+01 -0.32978E+05
-0.10469941E+01 -0.32995E+05
-0.99699408E+00 -0.32986E+05
-0.94699407E+00 -0.32977E+05
-0.89699411E+00 -0.32974E+05
-0.84699404E+00 -0.32950E+05
-0.79699409E+00 -0.32948E+05
-0.74699414E+00 -0.32949E+05
-0.69699407E+00 -0.32952E+05
-0.64699411E+00 -0.32947E+05
-0.59699416E+00 -0.32958E+05
-0.54699409E+00 -0.32944E+05
-0.49699414E+00 -0.32979E+05
-0.44699407E+00 -0.32962E+05
-0.39699411E+00 -0.32962E+05
-0.34699416E+00 -0.32963E+05
-0.29699409E+00 -0.32976E+05
-0.24699414E+00 -0.32985E+05
-0.19699407E+00 -0.32984E+05
-0.14699411E+00 -0.32990E+05
-0.96994162E-01 -0.32991E+05
-0.46994090E-01 -0.33005E+05
 0.30058622E-02 -0.32998E+05
 0.53005934E-01 -0.33017E+05
 0.10300589E+00 -0.33021E+05
 0.15300584E+00 -0.33039E+05
 0.20300579E+00 -0.33022E+05
 0.25300574E+00 -0.33026E+05
 0.30300593E+00 -0.33010E+05
 0.35300589E+00 -0.33004E+05
 0.40300584E+00 -0.32984E+05
 0.45300579E+00 -0.32964E+05
 0.50300574E+00 -0.32955E+05
 0.55300593E+00 -0.32926E+05
 0.60300589E+00 -0.32938E+05
 0.65300584E+00 -0.32936E+05
 0.70300579E+00 -0.32933E+05
 0.75300574E+00 -0.32936E+05
 0.80300570E+00 -0.32928E+05
 0.85300589E+00 -0.32944E+05
 0.90300584E+00 -0.32945E+05
 0.95300579E+00 -0.32935E+05
 0.10030057E+01 -0.32940E+05
 0.10530057E+01 -0.32939E+05
 0.11030059E+01 -0.32930E+05
 0.11530058E+01 -0.32943E+05
 0.12030058E+01 -0.32944E+05
 0.12530057E+01 -0.32952E+05
 0.13030057E+01 -0.32975E+05
 0.13530059E+01 -0.32979E+05
 0.14030058E+01 -0.32973E+05
 0.14530058E+01 -0.32972E+05
 0.15030057E+01 -0.32977E+05
 0.15530057E+01 -0.32974E+05
 0.16030059E+01 -0.32994E+05
 0.16530058E+01 -0.33031E+05
 0.17030058E+01 -0.33006E+05
 0.17530057E+01 -0.33038E+05
 0.18030057E+01 -0.33046E+05
 0.18530056E+01 -0.33008E+05
 0.19030058E+01 -0.33018E+05
 0.19530058E+01 -0.32994E+05
 0.20030057E+01 -0.33006E+05
 0.20530057E+01 -0.32966E+05
 0.21030059E+01 -0.32974E+05
 0.21530056E+01 -0.32951E+05
 0.22030058E+01 -0.32921E+05
 0.22530055E+01 -0.32951E+05
 0.23030057E+01 -0.32930E+05
 0.23530059E+01 -0.32920E+05
 0.24030056E+01 -0.32914E+05
 0.24530058E+01 -0.32918E+05
 0.25030055E+01 -0.32953E+05
 0.25530057E+01 -0.32940E+05
 0.26030059E+01 -0.32955E+05
 0.26530056E+01 -0.32986E+05
 0.27030058E+01 -0.32988E+05
 0.27530055E+01 -0.32990E+05
 0.28030057E+01 -0.33008E+05
 0.28530059E+01 -0.33015E+05
 0.29030056E+01 -0.32991E+05
 0.29530058E+01 -0.33017E+05
 0.30030055E+01 -0.33024E+05
 0.30530057E+01 -0.33006E+05
 0.31030059E+01 -0.33021E+05
 0.31530056E+01 -0.33020E+05
 0.32030058E+01 -0.32995E+05
 0.32530055E+01 -0.33006E+05
 0.33030057E+01 -0.32998E+05
 0.33530059E+01 -0.33009E+05
 0.34030056E+01 -0.33020E+05
 0.34530058E+01 -0.33023E+05
 0.35030055E+01 -0.33032E+05
 0.35530057E+01 -0.33028E+05
 0.36030054E+01 -0.33036E+05
 0.36530056E+01 -0.33003E+05
 0.37030058E+01 -0.32999E+05
 0.37530055E+01 -0.32986E+05
 0.38030057E+01 -0.32963E+05
 0.38530054E+01 -0.32981E+05
 0.39030056E+01 -0.32966E+05
 0.39530058E+01 -0.32968E+05
 0.40030055E+01 -0.32961E+05
 0.40530057E+01 -0.32946E+05
 0.41030054E+01 -0.32920E+05
 0.41530056E+01 -0.32923E+05
 0.42030058E+01 -0.32916E+05
 0.42530055E+01 -0.32912E+05
 0.43030057E+01 -0.32900E+05
 0.43530054E+01 -0.32911E+05
 0.44030056E+01 -0.32906E+05
 0.44530058E+01 -0.32897E+05
 0.45030055E+01 -0.32901E+05
 0.45530057E+01 -0.32960E+05
 0.46030054E+01 -0.33042E+05
 0.46530056E+01 -0.32937E+05
 0.47030058E+01 -0.33078E+05
 0.47530055E+01 -0.32844E+05
 0.48030057E+01 -0.33031E+05
 0.48530054E+01 -0.33222E+05
 0.49030056E+01 -0.32892E+05
 0.49530058E+01 -0.33146E+05
 0.50030055E+01 -0.33199E+05
 0.50530057E+01 -0.32625E+05
 0.51030054E+01 -0.33180E+05
 0.51530056E+01 -0.32860E+05
 0.52030058E+01 -0.33109E+05
 0.52530055E+01 -0.32802E+05
 0.53030057E+01 -0.33095E+05
 0.53530054E+01 -0.32854E+05
 0.54030056E+01 -0.33278E+05
 0.54530053E+01 -0.32748E+05
 0.55030055E+01 -0.29057E+05
 0.55530057E+01 -0.28467E+05
 0.56030054E+01 -0.26436E+05
 0.56530056E+01 -0.32169E+05
 0.57030053E+01 -0.40443E+05
 0.57530055E+01 -0.32186E+05
 0.58030057E+01 -0.36388E+05
 0.58530054E+01 -0.22624E+05
 0.59030056E+01 -0.44199E+05
 0.59530053E+01 -0.57444E+05
 0.60030055E+01  0.17148E+04
 0.60530052E+01 -0.50773E+05
 0.61030054E+01 -0.60141E+05
 0.61530056E+01  0.60457E+04
 0.62030058E+01 -0.42210E+05
 0.62530050E+01 -0.38100E+05
 0.63030052E+01 -0.28284E+05
 0.63530054E+01 -0.17663E+05
 0.64030056E+01 -0.36672E+04
 0.64530058E+01 -0.48113E+05
 0.65030050E+01 -0.43772E+05
 0.65530052E+01 -0.32932E+05
 0.66030054E+01 -0.46465E+05
 0.66530056E+01 -0.37189E+05
 0.67030058E+01 -0.23754E+05
 0.67530050E+01 -0.49382E+05
 0.68030052E+01 -0.31553E+05
 0.68530054E+01 -0.11948E+05
 0.69030056E+01 -0.76490E+05
 0.69530058E+01 -0.68488E+04
 0.70030050E+01 -0.47132E+05
 0.70530052E+01  0.49434E+04
 0.71030054E+01 -0.51756E+05
 0.71530056E+01 -0.40177E+05
 0.72030058E+01 -0.16476E+04
 0.72530050E+01 -0.62495E+05
 0.73030052E+01  0.20206E+03
 0.73530054E+01 -0.96676E+05
 0.74030056E+01  0.72050E+04
 0.74530058E+01 -0.47033E+05
 0.75030050E+01  0.19531E+05
 0.75530052E+01 -0.16214E+05
 0.76030054E+01 -0.86569E+05
 0.76530056E+01 -0.15124E+05
 0.77030058E+01 -0.82212E+05
 0.77530050E+01  0.13888E+05
 0.78030052E+01 -0.12657E+06
 0.78530054E+01 -0.18699E+05
 0.79030056E+01  0.13528E+05
 0.79530058E+01 -0.10483E+06
 0.80030050E+01  0.18362E+05
 0.80530052E+01 -0.13044E+06
 0.81030054E+01  0.89564E+05
 0.81530056E+01 -0.10232E+06
 0.82030058E+01  0.12875E+05
 0.82530050E+01 -0.29647E+05
 0.83030052E+01 -0.40026E+05
 0.83530054E+01 -0.28730E+05
 0.84030056E+01 -0.84368E+05
 0.84530058E+01  0.62157E+05
 0.85030050E+01 -0.11460E+06
 0.85530052E+01  0.12348E+05
 0.86030054E+01 -0.69104E+05
 0.86530056E+01  0.11160E+05
 0.87030058E+01 -0.74424E+05
 0.87530050E+01  0.37359E+05
 0.88030052E+01 -0.48561E+05
 0.88530054E+01  0.39906E+05
 0.89030056E+01 -0.11531E+06
 0.89530058E+01  0.16387E+05
 0.90030050E+01 -0.44716E+05
 0.90530052E+01 -0.10156E+06
 0.91030054E+01  0.26189E+05
 0.91530056E+01 -0.16738E+06
 0.92030048E+01  0.11459E+06
 0.92530050E+01 -0.94040E+05
 0.93030052E+01  0.85539E+05
 0.93530054E+01 -0.13291E+06
 0.94030056E+01 -0.57341E+04
 0.94530048E+01  0.33824E+05
 0.95030050E+01 -0.12251E+06
 0.95530052E+01  0.74693E+05
 0.96030054E+01 -0.11524E+06
 0.96530056E+01  0.87770E+05
 0.97030048E+01 -0.14606E+06
 0.97530050E+01 -0.42180E+05
 0.98030052E+01 -0.67659E+05
 0.98530054E+01  0.20736E+04
 0.99030056E+01 -0.14152E+06
 0.99530048E+01  0.64711E+05
 0.10003005E+02  0.10358E+06
 0.10053005E+02 -0.12929E+06
 0.10103005E+02  0.14658E+06
 0.10153006E+02 -0.15150E+06
 0.10203005E+02  0.35872E+04
 0.10253005E+02 -0.21078E+05
 0.10303005E+02  0.21113E+05
 0.10353005E+02 -0.11915E+06
 0.10403006E+02 -0.55764E+05
 0.10453005E+02  0.90835E+04
 0.10503005E+02 -0.10384E+06
 0.10553005E+02 -0.16004E+06
 0.10603005E+02  0.47444E+05
 0.10653006E+02  0.99762E+05
 0.10703005E+02 -0.88939E+05
 0.10753005E+02 -0.13143E+06
 0.10803005E+02 -0.11874E+06
 0.10853005E+02  0.33287E+05
 0.10903006E+02 -0.15455E+05
 0.10953005E+02 -0.86353E+05
 0.11003005E+02 -0.54047E+05
 0.11053005E+02  0.30033E+05
 0.11103005E+02 -0.17293E+06
 0.11153006E+02  0.11645E+06
 0.11203005E+02  0.28841E+05
 0.11253005E+02 -0.86260E+05
 0.11303005E+02 -0.48015E+05
 0.11353005E+02 -0.12649E+06
 0.11403006E+02  0.73094E+05
 0.11453005E+02 -0.75729E+05
 0.11503005E+02 -0.57218E+05
 0.11553005E+02  0.25148E+05
 0.11603005E+02 -0.31206E+05
 0.11653006E+02  0.55444E+05
 0.11703005E+02  0.27083E+05
 0.11753005E+02 -0.15794E+05
 0.11803005E+02 -0.18423E+06
 0.11853005E+02 -0.19089E+06
 0.11903006E+02 -0.63838E+04
 0.11953005E+02 -0.10155E+06
 0.12003005E+02  0.78583E+03
 0.12053005E+02  0.50475E+05
 0.12103005E+02  0.21539E+05
 0.12153006E+02  0.63373E+05
 0.12203005E+02 -0.25046E+05
 0.12253005E+02 -0.65457E+05
 0.12303005E+02 -0.34018E+05
 0.12353005E+02 -0.58163E+05
 0.12403006E+02 -0.81813E+05
 0.12453005E+02 -0.14109E+05
 0.12503005E+02 -0.76962E+05
 0.12553005E+02 -0.38702E+05
 0.12603005E+02  0.78452E+05
 0.12653005E+02 -0.81888E+05
 0.12703005E+02 -0.65143E+05
 0.12753005E+02 -0.85476E+05
 0.12803005E+02 -0.91883E+05
 0.12853005E+02  0.16562E+05
 0.12903005E+02  0.12977E+05
 0.12953005E+02 -0.65916E+05
 0.13003005E+02  0.32825E+05
 0.13053005E+02 -0.39416E+05
 0.13103005E+02 -0.66185E+05
 0.13153005E+02 -0.53322E+04
 0.13203005E+02  0.29228E+04
 0.13253005E+02 -0.21562E+04
 0.13303005E+02 -0.63033E+05
 0.13353005E+02  0.72872E+04
 0.13403005E+02 -0.91555E+05
 0.13453005E+02 -0.50306E+05
 0.13503005E+02 -0.21667E+05
 0.13553005E+02  0.16261E+05
 0.13603005E+02 -0.37290E+05
 0.13653005E+02 -0.38561E+05
 0.13703005E+02 -0.51576E+05
 0.13753005E+02 -0.42304E+05
 0.13803005E+02 -0.57328E+05
 0.13853005E+02 -0.62123E+05
 0.13903005E+02 -0.39765E+05
 0.13953005E+02 -0.44802E+05
 0.14003005E+02 -0.16717E+05
 0.14053005E+02 -0.26539E+05
 0.14103004E+02  0.34666E+04
 0.14153006E+02 -0.32434E+05
 0.14203005E+02 -0.61085E+04
 0.14253004E+02 -0.85851E+05
 0.14303005E+02 -0.18102E+05
 0.14353004E+02 -0.44420E+05
 0.14403006E+02 -0.13959E+05
 0.14453005E+02 -0.69342E+03
 0.14503004E+02 -0.47218E+05
 0.14553005E+02 -0.28749E+05
 0.14603004E+02 -0.56734E+05
 0.14653006E+02 -0.15570E+04
 0.14703005E+02 -0.53050E+05
 0.14753004E+02 -0.44287E+05
 0.14803005E+02 -0.50699E+05
 0.14853004E+02 -0.35347E+05
 0.14903006E+02 -0.46610E+05
 0.14953005E+02 -0.45743E+05
 0.15003004E+02 -0.22714E+05
 0.15053005E+02 -0.51655E+05
 0.15103004E+02 -0.69575E+04
 0.15153006E+02 -0.25007E+05
 0.15203005E+02  0.14963E+04
 0.15253004E+02 -0.24889E+05
 0.15303005E+02 -0.43240E+05
 0.15353004E+02  0.71743E+03
 0.15403006E+02 -0.33651E+05
 0.15453005E+02 -0.86371E+05
 0.15503004E+02 -0.62539E+05
 0.15553005E+02 -0.47537E+05
 0.15603004E+02 -0.50058E+05
 0.15653006E+02 -0.43662E+05
 0.15703005E+02 -0.32828E+05
 0.15753004E+02 -0.30778E+05
 0.15803005E+02 -0.52664E+05
 0.15853004E+02  0.81241E+04
 0.15903006E+02 -0.59062E+04
 0.15953005E+02 -0.26906E+05
 0.16003004E+02 -0.15967E+05
 0.16053005E+02  0.25809E+05
 0.16103004E+02 -0.41463E+05
 0.16153006E+02 -0.11348E+05
 0.16203005E+02 -0.34816E+05
 0.16253004E+02 -0.61501E+05
 0.16303005E+02 -0.97022E+04
 0.16353004E+02 -0.54614E+05
 0.16403006E+02 -0.92050E+04
 0.16453005E+02 -0.54014E+05
 0.16503004E+02 -0.27775E+05
 0.16553005E+02 -0.39647E+05
 0.16603004E+02 -0.39375E+05
 0.16653006E+02 -0.11002E+04
 0.16703005E+02 -0.40185E+05
 0.16753004E+02 -0.30856E+05
 0.16803005E+02 -0.66562E+05
 0.16853004E+02 -0.90546E+05
 0.16903006E+02 -0.42427E+05
 0.16953005E+02 -0.29312E+05
 0.17003004E+02  0.23466E+03
 0.17053005E+02 -0.38788E+05
 0.17103004E+02 -0.34259E+05
 0.17153006E+02 -0.26324E+05
 0.17203005E+02 -0.55306E+05
 0.17253004E+02 -0.19449E+05
 0.17303005E+02 -0.19090E+05
 0.17353004E+02 -0.38338E+05
 0.17403006E+02 -0.45547E+05
 0.17453005E+02 -0.37001E+05
 0.17503004E+02 -0.70121E+04
 0.17553005E+02  0.18031E+04
 0.17603004E+02 -0.18575E+05
 0.17653006E+02 -0.13924E+05
 0.17703005E+02 -0.32500E+05
 0.17753004E+02 -0.26271E+05
 0.17803005E+02 -0.54653E+05
 0.17853004E+02 -0.53372E+05
 0.17903006E+02 -0.42105E+05
 0.17953005E+02 -0.57675E+05
 0.18003004E+02 -0.51617E+05
 0.18053005E+02 -0.46972E+05
 0.18103004E+02 -0.29024E+05
 0.18153006E+02 -0.44300E+05
 0.18203005E+02 -0.22122E+05
 0.18253004E+02 -0.23555E+05
 0.18303005E+02 -0.10664E+05
 0.18353004E+02 -0.10866E+05
 0.18403006E+02 -0.29612E+05
 0.18453005E+02 -0.34975E+05
 0.18503004E+02 -0.34795E+05
 0.18553005E+02 -0.31886E+05
 0.18603004E+02 -0.45094E+05
 0.18653006E+02 -0.43409E+05
 0.18703005E+02 -0.49865E+05
 0.18753004E+02 -0.31526E+05
 0.18803005E+02 -0.46366E+05
 0.18853004E+02 -0.31842E+05
 0.18903006E+02 -0.15438E+05
 0.18953005E+02 -0.23636E+05
 0.19003004E+02 -0.40795E+05
 0.19053005E+02 -0.37063E+05
 0.19103004E+02 -0.26384E+05
 0.19153006E+02 -0.20229E+05
 0.19203005E+02 -0.24713E+05
 0.19253004E+02 -0.32223E+05
 0.19303005E+02 -0.29681E+05
 0.19353004E+02 -0.33286E+05
 0.19403006E+02 -0.36680E+05
 0.19453005E+02 -0.49353E+05
 0.19503004E+02 -0.28605E+05
 0.19553005E+02 -0.33092E+05
 0.19603004E+02 -0.30193E+05
 0.19653006E+02 -0.31794E+05
 0.19703005E+02 -0.45048E+05
 0.19753004E+02 -0.44675E+05
 0.19803005E+02 -0.38684E+05
 0.19853004E+02 -0.25544E+05
 0.19903006E+02 -0.40086E+05
 0.19953005E+02 -0.20174E+05
 0.20003004E+02 -0.15686E+05
 0.20053005E+02 -0.33781E+05
 0.20103004E+02 -0.13632E+05
 0.20153006E+02 -0.22885E+05
 0.20203005E+02 -0.23691E+05
 0.20253004E+02 -0.34338E+05
 0.20303005E+02 -0.49484E+05
 0.20353004E+02 -0.35990E+05
 0.20403004E+02 -0.41672E+05
 0.20453005E+02 -0.29868E+05
 0.20503004E+02 -0.18774E+05
 0.20553005E+02 -0.10989E+05
 0.20603004E+02 -0.19916E+05
 0.20653004E+02 -0.23242E+05
 0.20703005E+02 -0.41274E+05
 0.20753004E+02 -0.51189E+05
 0.20803005E+02 -0.39943E+05
 0.20853004E+02 -0.46789E+05
 0.20903004E+02 -0.41367E+05
 0.20953005E+02 -0.44709E+05
 0.21003004E+02 -0.46723E+05
 0.21053005E+02 -0.31220E+05
 0.21103004E+02 -0.29862E+05
 0.21153004E+02 -0.35619E+05
 0.21203005E+02 -0.39268E+05
 0.21253004E+02 -0.40804E+05
 0.21303005E+02 -0.46461E+05
 0.21353004E+02 -0.47990E+05
 0.21403004E+02 -0.46454E+05
 0.21453005E+02 -0.45929E+05
 0.21503004E+02 -0.21460E+05
 0.21553005E+02 -0.23410E+05
 0.21603004E+02 -0.16822E+05
 0.21653004E+02 -0.38015E+05
 0.21703005E+02 -0.36023E+05
 0.21753004E+02 -0.25199E+05
 0.21803005E+02 -0.26929E+05
 0.21853004E+02 -0.23516E+05
 0.21903004E+02 -0.31121E+05
 0.21953005E+02 -0.19831E+05
 0.22003004E+02 -0.12829E+05
 0.22053005E+02 -0.90159E+04
 0.22103004E+02 -0.26900E+05
 0.22153004E+02 -0.26894E+05
 0.22203005E+02 -0.38815E+05
 0.22253004E+02 -0.26602E+05
 0.22303005E+02 -0.36982E+05
 0.22353004E+02 -0.49518E+05
 0.22403004E+02 -0.37518E+05
 0.22453005E+02 -0.39766E+05
 0.22503004E+02 -0.41938E+05
 0.22553005E+02 -0.29648E+05
 0.22603004E+02 -0.14531E+05
 0.22653004E+02 -0.26748E+05
 0.22703005E+02 -0.20771E+05
 0.22753004E+02 -0.30365E+05
 0.22803005E+02 -0.29778E+05
 0.22853004E+02 -0.32710E+05
 0.22903004E+02 -0.46817E+05
 0.22953005E+02 -0.50392E+05
 0.23003004E+02 -0.53065E+05
 0.23053005E+02 -0.49077E+05
 0.23103004E+02 -0.41827E+05
 0.23153004E+02 -0.49622E+05
 0.23203005E+02 -0.38194E+05
 0.23253004E+02 -0.41331E+05
 0.23303005E+02 -0.41562E+05
 0.23353004E+02 -0.24160E+05
 0.23403004E+02 -0.28104E+05
 0.23453005E+02 -0.31526E+05
 0.23503004E+02 -0.25517E+05
 0.23553005E+02 -0.33221E+05
 0.23603004E+02 -0.24746E+05
 0.23653004E+02 -0.24710E+05
 0.23703005E+02 -0.30764E+05
 0.23753004E+02 -0.27211E+05
 0.23803005E+02 -0.31867E+05
 0.23853004E+02 -0.12647E+05
 0.23903004E+02 -0.20899E+05
 0.23953005E+02 -0.22609E+05
 0.24003004E+02 -0.32835E+05
 0.24053005E+02 -0.38442E+05
 0.24103004E+02 -0.39550E+05
 0.24153004E+02 -0.34413E+05
 0.24203005E+02 -0.32459E+05
 0.24253004E+02 -0.34394E+05
 0.24303005E+02 -0.31110E+05
 0.24353004E+02 -0.34559E+05
 0.24403004E+02 -0.40862E+05
 0.24453005E+02 -0.40319E+05
 0.24503004E+02 -0.34844E+05
 0.24553005E+02 -0.35209E+05
 0.24603004E+02 -0.27218E+05
 0.24653004E+02 -0.25219E+05
 0.24703005E+02 -0.36713E+05
 0.24753004E+02 -0.38204E+05
 0.24803005E+02 -0.36101E+05
 0.24853004E+02 -0.48249E+05
 0.24903004E+02 -0.42224E+05
 0.24953005E+02 -0.36637E+05
 0.25003004E+02 -0.28925E+05
 0.25053005E+02 -0.34204E+05
 0.25103004E+02 -0.31738E+05
 0.25153004E+02 -0.24951E+05
 0.25203005E+02 -0.20229E+05
 0.25253004E+02 -0.16756E+05
 0.25303005E+02 -0.17893E+05
 0.25353004E+02 -0.15832E+05
 0.25403004E+02 -0.24478E+05
 0.25453005E+02 -0.35745E+05
 0.25503004E+02 -0.41082E+05
 0.25553005E+02 -0.37400E+05
 0.25603004E+02 -0.52246E+05
 0.25653004E+02 -0.49280E+05
 0.25703005E+02 -0.49152E+05
 0.25753004E+02 -0.43230E+05
 0.25803005E+02 -0.38366E+05
 0.25853004E+02 -0.39641E+05
 0.25903004E+02 -0.27446E+05
 0.25953005E+02 -0.26335E+05
 0.26003004E+02 -0.26317E+05
 0.26053005E+02 -0.26350E+05
 0.26103004E+02 -0.20191E+05
 0.26153004E+02 -0.27605E+05
 0.26203005E+02 -0.27235E+05
 0.26253004E+02 -0.35116E+05
 0.26303005E+02 -0.33741E+05
 0.26353004E+02 -0.40651E+05
 0.26403004E+02 -0.37436E+05
 0.26453005E+02 -0.39942E+05
 0.26503004E+02 -0.43521E+05
 0.26553005E+02 -0.29739E+05
 0.26603004E+02 -0.31988E+05
 0.26653004E+02 -0.20927E+05
 0.26703005E+02 -0.29998E+05
 0.26753004E+02 -0.29353E+05
 0.26803005E+02 -0.32868E+05
 0.26853004E+02 -0.29390E+05
 0.26903004E+02 -0.28135E+05
 0.26953005E+02 -0.27011E+05
 0.27003004E+02 -0.24781E+05
 0.27053003E+02 -0.33875E+05
 0.27103004E+02 -0.32985E+05
 0.27153004E+02 -0.31727E+05
 0.27203005E+02 -0.27196E+05
 0.27253004E+02 -0.34501E+05
 0.27303003E+02 -0.29947E+05
 0.27353004E+02 -0.33037E+05
 0.27403004E+02 -0.39746E+05
 0.27453005E+02 -0.41430E+05
 0.27503004E+02 -0.42070E+05
 0.27553003E+02 -0.42455E+05
 0.27603004E+02 -0.48378E+05
 0.27653004E+02 -0.50310E+05
 0.27703005E+02 -0.41631E+05
 0.27753004E+02 -0.34819E+05
 0.27803003E+02 -0.33873E+05
 0.27853004E+02 -0.26736E+05
 0.27903004E+02 -0.18905E+05
 0.27953005E+02 -0.18400E+05
 0.28003004E+02 -0.25960E+05
 0.28053003E+02 -0.20556E+05
 0.28103004E+02 -0.27051E+05
 0.28153004E+02 -0.25270E+05
 0.28203005E+02 -0.24112E+05
 0.28253004E+02 -0.32161E+05
 0.28303003E+02 -0.36295E+05
 0.28353004E+02 -0.33668E+05
 0.28403004E+02 -0.34019E+05
 0.28453005E+02 -0.42735E+05
 0.28503004E+02 -0.46968E+05
 0.28553003E+02 -0.43211E+05
 0.28603004E+02 -0.44157E+05
 0.28653004E+02 -0.51962E+05
 0.28703005E+02 -0.41641E+05
 0.28753004E+02 -0.41189E+05
 0.28803003E+02 -0.33987E+05
 0.28853004E+02 -0.28346E+05
 0.28903004E+02 -0.28959E+05
 0.28953005E+02 -0.23793E+05
 0.29003004E+02 -0.22840E+05
 0.29053003E+02 -0.23570E+05
 0.29103004E+02 -0.16459E+05
 0.29153004E+02 -0.15355E+05
 0.29203005E+02 -0.21939E+05
 0.29253004E+02 -0.28273E+05
 0.29303003E+02 -0.35594E+05
 0.29353004E+02 -0.32779E+05
 0.29403004E+02 -0.39853E+05
 0.29453005E+02 -0.40388E+05
 0.29503004E+02 -0.40065E+05
 0.29553003E+02 -0.45858E+05
 0.29603004E+02 -0.36780E+05
 0.29653004E+02 -0.34973E+05
 0.29703005E+02 -0.29638E+05
 0.29753004E+02 -0.26325E+05
 0.29803003E+02 -0.24606E+05
 0.29853004E+02 -0.25060E+05
 0.29903004E+02 -0.27741E+05
 0.29953005E+02 -0.27330E+05
 0.30003004E+02 -0.28045E+05
 0.30053005E+02 -0.32846E+05
 0.30103004E+02 -0.43750E+05
 0.30153004E+02 -0.42817E+05
 0.30203003E+02 -0.41496E+05
 0.30253002E+02 -0.41972E+05
 0.30303005E+02 -0.42846E+05
 0.30353004E+02 -0.37012E+05
 0.30403004E+02 -0.37574E+05
 0.30453003E+02 -0.32275E+05
 0.30503002E+02 -0.29361E+05
 0.30553005E+02 -0.27587E+05
 0.30603004E+02 -0.27174E+05
 0.30653004E+02 -0.29739E+05
 0.30703003E+02 -0.28578E+05
 0.30753002E+02 -0.33127E+05
 0.30803005E+02 -0.28869E+05
 0.30853004E+02 -0.31185E+05
 0.30903004E+02 -0.32668E+05
 0.30953003E+02 -0.32495E+05
 0.31003002E+02 -0.32556E+05
 0.31053005E+02 -0.29777E+05
 0.31103004E+02 -0.29936E+05
 0.31153004E+02 -0.32967E+05
 0.31203003E+02 -0.34968E+05
 0.31253002E+02 -0.35878E+05
 0.31303005E+02 -0.33603E+05
 0.31353004E+02 -0.31588E+05
 0.31403004E+02 -0.34642E+05
 0.31453003E+02 -0.36602E+05
 0.31503002E+02 -0.38730E+05
 0.31553005E+02 -0.34619E+05
 0.31603004E+02 -0.32199E+05
 0.31653004E+02 -0.29083E+05
 0.31703003E+02 -0.32674E+05
 0.31753002E+02 -0.27178E+05
 0.31803005E+02 -0.20105E+05
 0.31853004E+02 -0.26170E+05
 0.31903004E+02 -0.25867E+05
 0.31953003E+02 -0.34328E+05
 0.32003002E+02 -0.33424E+05
 0.32053005E+02 -0.38228E+05
 0.32103004E+02 -0.44783E+05
 0.32153004E+02 -0.44877E+05
 0.32203003E+02 -0.46189E+05
 0.32253002E+02 -0.39642E+05
 0.32303005E+02 -0.33024E+05
 0.32353004E+02 -0.26614E+05
 0.32403004E+02 -0.29058E+05
 0.32453003E+02 -0.29487E+05
 0.32503002E+02 -0.32189E+05
 0.32553005E+02 -0.30372E+05
 0.32603004E+02 -0.32097E+05
 0.32653004E+02 -0.38923E+05
 0.32703003E+02 -0.36347E+05
 0.32753002E+02 -0.38470E+05
 0.32803005E+02 -0.34203E+05
 0.32853004E+02 -0.37715E+05
 0.32903004E+02 -0.34908E+05
 0.32953003E+02 -0.33208E+05
 0.33003002E+02 -0.27153E+05
 0.33053005E+02 -0.24654E+05
 0.33103004E+02 -0.27753E+05
 0.33153004E+02 -0.25853E+05
 0.33203003E+02 -0.29317E+05
 0.33253002E+02 -0.28525E+05
 0.33303005E+02 -0.29521E+05
 0.33353004E+02 -0.27714E+05
 0.33403004E+02 -0.31295E+05
 0.33453003E+02 -0.34660E+05
 0.33503002E+02 -0.39837E+05
 0.33553005E+02 -0.39201E+05
 0.33603004E+02 -0.40456E+05
 0.33653004E+02 -0.43094E+05
 0.33703003E+02 -0.39404E+05
 0.33753002E+02 -0.35895E+05
 0.33803005E+02 -0.32298E+05
 0.33853004E+02 -0.29972E+05
 0.33903004E+02 -0.27945E+05
 0.33953003E+02 -0.25869E+05
 0.34003002E+02 -0.26738E+05
 0.34053005E+02 -0.26296E+05
 0.34103004E+02 -0.29195E+05
 0.34153004E+02 -0.33264E+05
 0.34203003E+02 -0.36421E+05
 0.34253002E+02 -0.37117E+05
 0.34303005E+02 -0.40655E+05
 0.34353004E+02 -0.39145E+05
 0.34403004E+02 -0.35247E+05
 0.34453003E+02 -0.37832E+05
 0.34503002E+02 -0.30813E+05
 0.34553005E+02 -0.33783E+05
 0.34603004E+02 -0.30248E+05
 0.34653004E+02 -0.31949E+05
 0.34703003E+02 -0.25861E+05
 0.34753002E+02 -0.24173E+05
 0.34803005E+02 -0.25892E+05
 0.34853004E+02 -0.23894E+05
 0.34903004E+02 -0.29909E+05
 0.34953003E+02 -0.28342E+05
 0.35003002E+02 -0.33346E+05
 0.35053005E+02 -0.30528E+05
 0.35103004E+02 -0.35396E+05
 0.35153004E+02 -0.40346E+05
 0.35203003E+02 -0.39941E+05
 0.35253002E+02 -0.38091E+05
 0.35303005E+02 -0.43346E+05
 0.35353004E+02 -0.45015E+05
 0.35403004E+02 -0.40621E+05
 0.35453003E+02 -0.38307E+05
 0.35503002E+02 -0.32479E+05
 0.35553005E+02 -0.31015E+05
 0.35603004E+02 -0.29682E+05
 0.35653004E+02 -0.30168E+05
 0.35703003E+02 -0.29755E+05
 0.35753002E+02 -0.31016E+05
 0.35803005E+02 -0.29800E+05
 0.35853004E+02 -0.34366E+05
 0.35903004E+02 -0.41128E+05
 0.35953003E+02 -0.34844E+05
 0.36003002E+02 -0.31032E+05
 0.36053005E+02 -0.27405E+05
 0.36103004E+02 -0.26341E+05
 0.36153004E+02 -0.22286E+05
 0.36203003E+02 -0.24171E+05
 0.36253002E+02 -0.30113E+05
 0.36303005E+02 -0.28372E+05
 0.36353004E+02 -0.32310E+05
 0.36403004E+02 -0.33547E+05
 0.36453003E+02 -0.35590E+05
 0.36503002E+02 -0.33161E+05
 0.36553005E+02 -0.32985E+05
 0.36603004E+02 -0.33566E+05
 0.36653004E+02 -0.31422E+05
 0.36703003E+02 -0.32044E+05
 0.36753002E+02 -0.33515E+05
 0.36803005E+02 -0.39060E+05
 0.36853004E+02 -0.39920E+05
 0.36903004E+02 -0.40655E+05
 0.36953003E+02 -0.42084E+05
 0.37003002E+02 -0.39781E+05
 0.37053005E+02 -0.33882E+05
 0.37103004E+02 -0.31897E+05
 0.37153004E+02 -0.30272E+05
 0.37203003E+02 -0.28915E+05
 0.37253002E+02 -0.29680E+05
 0.37303005E+02 -0.30045E+05
 0.37353004E+02 -0.31843E+05
 0.37403004E+02 -0.32642E+05
 0.37453003E+02 -0.33103E+05
 0.37503002E+02 -0.29079E+05
 0.37553005E+02 -0.26329E+05
 0.37603004E+02 -0.26013E+05
 0.37653004E+02 -0.27770E+05
 0.37703003E+02 -0.30438E+05
 0.37753002E+02 -0.32992E+05
 0.37803005E+02 -0.34814E+05
 0.37853004E+02 -0.36187E+05
 0.37903004E+02 -0.38979E+05
 0.37953003E+02 -0.41778E+05
 0.38003002E+02 -0.39161E+05
 0.38053005E+02 -0.37211E+05
 0.38103004E+02 -0.36347E+05
 0.38153004E+02 -0.35387E+05
 0.38203003E+02 -0.34759E+05
 0.38253002E+02 -0.32795E+05
 0.38303005E+02 -0.30854E+05
 0.38353004E+02 -0.28341E+05
 0.38403004E+02 -0.29556E+05
 0.38453003E+02 -0.30532E+05
 0.38503002E+02 -0.29365E+05
 0.38553005E+02 -0.28580E+05
 0.38603004E+02 -0.32672E+05
 0.38653004E+02 -0.33226E+05
 0.38703003E+02 -0.32944E+05
 0.38753002E+02 -0.33981E+05
 0.38803005E+02 -0.35586E+05
 0.38853004E+02 -0.35973E+05
 0.38903004E+02 -0.35509E+05
 0.38953003E+02 -0.37412E+05
 0.39003002E+02 -0.35078E+05
 0.39053005E+02 -0.33244E+05
 0.39103004E+02 -0.30991E+05
 0.39153004E+02 -0.29409E+05
 0.39203003E+02 -0.27112E+05
 0.39253002E+02 -0.26091E+05
 0.39303005E+02 -0.24942E+05
 0.39353004E+02 -0.26175E+05
 0.39403004E+02 -0.30090E+05
 0.39453003E+02 -0.30056E+05
 0.39503002E+02 -0.32609E+05
 0.39553005E+02 -0.36905E+05
 0.39603004E+02 -0.38289E+05
 0.39653004E+02 -0.41151E+05
 0.39703003E+02 -0.40946E+05
 0.39753002E+02 -0.36724E+05
 0.39803005E+02 -0.37433E+05
 0.39853004E+02 -0.36019E+05
 0.39903004E+02 -0.37032E+05
 0.39953003E+02 -0.34945E+05
 0.40003002E+02 -0.31807E+05
 0.40053005E+02 -0.30383E+05
 0.40103004E+02 -0.29880E+05
 0.40153004E+02 -0.30703E+05
 0.40203003E+02 -0.30657E+05
 0.40253002E+02 -0.31782E+05
 0.40303005E+02 -0.31556E+05
 0.40353004E+02 -0.32466E+05
 0.40403004E+02 -0.32195E+05
 0.40453003E+02 -0.33620E+05
 0.40503002E+02 -0.31884E+05
 0.40553005E+02 -0.31457E+05
 0.40603004E+02 -0.32157E+05
 0.40653004E+02 -0.33282E+05
 0.40703003E+02 -0.34095E+05
 0.40753002E+02 -0.32851E+05
 0.40803005E+02 -0.36450E+05
 0.40853004E+02 -0.35622E+05
 0.40903004E+02 -0.35474E+05
 0.40953003E+02 -0.34431E+05
 0.41003002E+02 -0.31943E+05
 0.41053005E+02 -0.32224E+05
 0.41103004E+02 -0.31373E+05
 0.41153004E+02 -0.32442E+05
 0.41203003E+02 -0.31451E+05
 0.41253002E+02 -0.30354E+05
 0.41303005E+02 -0.29287E+05
 0.41353004E+02 -0.30798E+05
 0.41403004E+02 -0.31573E+05
 0.41453003E+02 -0.32031E+05
 0.41503002E+02 -0.32995E+05
 0.41553005E+02 -0.31024E+05
 0.41603004E+02 -0.31256E+05
 0.41653004E+02 -0.29473E+05
 0.41703003E+02 -0.30902E+05
 0.41753002E+02 -0.35035E+05
 0.41803005E+02 -0.34376E+05
 0.41853004E+02 -0.36808E+05
 0.41903004E+02 -0.37620E+05
 0.41953003E+02 -0.38106E+05
 0.42003002E+02 -0.35680E+05
 0.42053005E+02 -0.33572E+05
 0.42103004E+02 -0.36969E+05
 0.42153004E+02 -0.35167E+05
 0.42203003E+02 -0.34699E+05
 0.42253002E+02 -0.30710E+05
 0.42303005E+02 -0.29869E+05
 0.42353004E+02 -0.30430E+05
 0.42403004E+02 -0.29631E+05
 0.42453003E+02 -0.31956E+05
 0.42503002E+02 -0.32828E+05
 0.42553005E+02 -0.32886E+05
 0.42603004E+02 -0.32850E+05
 0.42653004E+02 -0.32402E+05
 0.42703003E+02 -0.32927E+05
 0.42753002E+02 -0.33399E+05
 0.42803001E+02 -0.33245E+05
 0.42853004E+02 -0.36235E+05
 0.42903004E+02 -0.33929E+05
 0.42953003E+02 -0.31378E+05
 0.43003002E+02 -0.29741E+05
 0.43053001E+02 -0.30260E+05
 0.43103004E+02 -0.30657E+05
 0.43153004E+02 -0.29870E+05
 0.43203003E+02 -0.31288E+05
 0.43253002E+02 -0.31109E+05
 0.43303001E+02 -0.32182E+05
 0.43353004E+02 -0.34834E+05
 0.43403004E+02 -0.35598E+05
 0.43453003E+02 -0.35411E+05
 0.43503002E+02 -0.36278E+05
 0.43553001E+02 -0.36883E+05
 0.43603004E+02 -0.35409E+05
 0.43653004E+02 -0.35106E+05
 0.43703003E+02 -0.35702E+05
 0.43753002E+02 -0.35602E+05
 0.43803001E+02 -0.34367E+05
 0.43853004E+02 -0.32159E+05
 0.43903004E+02 -0.30181E+05
 0.43953003E+02 -0.28895E+05
 0.44003002E+02 -0.29592E+05
 0.44053001E+02 -0.29907E+05
 0.44103004E+02 -0.30310E+05
 0.44153004E+02 -0.31411E+05
 0.44203003E+02 -0.33123E+05
 0.44253002E+02 -0.33324E+05
 0.44303001E+02 -0.34731E+05
 0.44353004E+02 -0.37048E+05
 0.44403004E+02 -0.36532E+05
 0.44453003E+02 -0.35678E+05
 0.44503002E+02 -0.35802E+05
 0.44553001E+02 -0.34871E+05
 0.44603004E+02 -0.34368E+05
 0.44653004E+02 -0.32823E+05
 0.44703003E+02 -0.33202E+05
 0.44753002E+02 -0.31722E+05
 0.44803001E+02 -0.28335E+05
 0.44853004E+02 -0.28161E+05
 0.44903004E+02 -0.27960E+05
 0.44953003E+02 -0.28559E+05
 0.45003002E+02 -0.30584E+05
 0.45053001E+02 -0.32993E+05
 0.45103004E+02 -0.33863E+05
 0.45153004E+02 -0.33834E+05
 0.45203003E+02 -0.35277E+05
 0.45253002E+02 -0.34921E+05
 0.45303001E+02 -0.34646E+05
 0.45353004E+02 -0.33605E+05
 0.45403004E+02 -0.32379E+05
 0.45453003E+02 -0.31658E+05
 0.45503002E+02 -0.31907E+05
 0.45553001E+02 -0.32766E+05
 0.45603004E+02 -0.32585E+05
 0.45653004E+02 -0.33831E+05
 0.45703003E+02 -0.33438E+05
 0.45753002E+02 -0.34815E+05
 0.45803001E+02 -0.36046E+05
 0.45853004E+02 -0.36114E+05
 0.45903004E+02 -0.35957E+05
 0.45953003E+02 -0.34850E+05
 0.46003002E+02 -0.33759E+05
 0.46053001E+02 -0.33353E+05
 0.46103004E+02 -0.31691E+05
 0.46153004E+02 -0.30741E+05
 0.46203003E+02 -0.31609E+05
 0.46253002E+02 -0.33560E+05
 0.46303001E+02 -0.32634E+05
 0.46353004E+02 -0.32408E+05
 0.46403004E+02 -0.34234E+05
 0.46453003E+02 -0.33666E+05
 0.46503002E+02 -0.33932E+05
 0.46553001E+02 -0.33712E+05
 0.46603004E+02 -0.34381E+05
 0.46653004E+02 -0.33305E+05
 0.46703003E+02 -0.33309E+05
 0.46753002E+02 -0.32708E+05
 0.46803001E+02 -0.30805E+05
 0.46853004E+02 -0.29830E+05
 0.46903004E+02 -0.27990E+05
 0.46953003E+02 -0.27283E+05
 0.47003002E+02 -0.25723E+05
 0.47053001E+02 -0.27611E+05
 0.47103004E+02 -0.29239E+05
 0.47153004E+02 -0.30975E+05
 0.47203003E+02 -0.33646E+05
 0.47253002E+02 -0.35817E+05
 0.47303001E+02 -0.38939E+05
 0.47353004E+02 -0.39847E+05
 0.47403004E+02 -0.39489E+05
 0.47453003E+02 -0.39165E+05
 0.47503002E+02 -0.37654E+05
 0.47553001E+02 -0.34299E+05
 0.47603004E+02 -0.33045E+05
 0.47653004E+02 -0.31482E+05
 0.47703003E+02 -0.30984E+05
 0.47753002E+02 -0.31958E+05
 0.47803001E+02 -0.32070E+05
 0.47853004E+02 -0.33463E+05
 0.47903004E+02 -0.34284E+05
 0.47953003E+02 -0.34130E+05
 0.48003002E+02 -0.35690E+05
 0.48053001E+02 -0.36403E+05
 0.48103004E+02 -0.35274E+05
 0.48153004E+02 -0.35632E+05
 0.48203003E+02 -0.34330E+05
 0.48253002E+02 -0.32067E+05
 0.48303001E+02 -0.30061E+05
 0.48353004E+02 -0.28904E+05
 0.48403004E+02 -0.28853E+05
 0.48453003E+02 -0.28004E+05
 0.48503002E+02 -0.28691E+05
 0.48553001E+02 -0.29538E+05
 0.48603004E+02 -0.30626E+05
 0.48653004E+02 -0.32220E+05
 0.48703003E+02 -0.33868E+05
 0.48753002E+02 -0.34441E+05
 0.48803001E+02 -0.34351E+05
 0.48853004E+02 -0.34682E+05
 0.48903004E+02 -0.33883E+05
 0.48953003E+02 -0.32867E+05
 0.49003002E+02 -0.32883E+05
 0.49053001E+02 -0.31544E+05
 0.49103004E+02 -0.30484E+05
 0.49153004E+02 -0.30934E+05
 0.49203003E+02 -0.31079E+05
 0.49253002E+02 -0.31824E+05
 0.49303001E+02 -0.32990E+05
 0.49353004E+02 -0.34211E+05
 0.49403004E+02 -0.35185E+05
 0.49453003E+02 -0.36194E+05
 0.49503002E+02 -0.36785E+05
 0.49553001E+02 -0.37220E+05
 0.49603004E+02 -0.36537E+05
 0.49653004E+02 -0.35193E+05
 0.49703003E+02 -0.33116E+05
 0.49753002E+02 -0.32058E+05
 0.49803001E+02 -0.30938E+05
 0.49853004E+02 -0.29871E+05
 0.49903004E+02 -0.30389E+05
 0.49953003E+02 -0.30492E+05
 0.50003002E+02 -0.31210E+05
 0.50053001E+02 -0.30750E+05
 0.50103004E+02 -0.30391E+05
 0.50153004E+02 -0.30773E+05
 0.50203003E+02 -0.31114E+05
 0.50253002E+02 -0.31709E+05
 0.50303001E+02 -0.33386E+05
 0.50353004E+02 -0.33696E+05
 0.50403004E+02 -0.33897E+05
 0.50453003E+02 -0.33975E+05
 0.50503002E+02 -0.32646E+05
 0.50553001E+02 -0.32842E+05
 0.50603004E+02 -0.33236E+05
 0.50653004E+02 -0.33944E+05
 0.50703003E+02 -0.34224E+05
 0.50753002E+02 -0.34297E+05
 0.50803001E+02 -0.34275E+05
 0.50853004E+02 -0.34408E+05
 0.50903004E+02 -0.34254E+05
 0.50953003E+02 -0.34165E+05
 0.51003002E+02 -0.34363E+05
 0.51053001E+02 -0.34034E+05
 0.51103004E+02 -0.32220E+05
 0.51153004E+02 -0.32156E+05
 0.51203003E+02 -0.33456E+05
 0.51253002E+02 -0.33781E+05
 0.51303001E+02 -0.33500E+05
 0.51353004E+02 -0.32798E+05
 0.51403004E+02 -0.32621E+05
 0.51453003E+02 -0.32720E+05
 0.51503002E+02 -0.32198E+05
 0.51553001E+02 -0.31862E+05
 0.51603004E+02 -0.31451E+05
 0.51653004E+02 -0.31239E+05
 0.51703003E+02 -0.31697E+05
 0.51753002E+02 -0.32616E+05
 0.51803001E+02 -0.33540E+05
 0.51853004E+02 -0.34449E+05
 0.51903004E+02 -0.35772E+05
 0.51953003E+02 -0.35692E+05
 0.52003002E+02 -0.35466E+05
 0.52053001E+02 -0.34904E+05
 0.52103004E+02 -0.33935E+05
 0.52153004E+02 -0.33483E+05
 0.52203003E+02 -0.33713E+05
 0.52253002E+02 -0.33382E+05
 0.52303001E+02 -0.32811E+05
 0.52353004E+02 -0.32747E+05
 0.52403004E+02 -0.32050E+05
 0.52453003E+02 -0.30980E+05
 0.52503002E+02 -0.31375E+05
 0.52553001E+02 -0.31936E+05
 0.52603004E+02 -0.31861E+05
 0.52653004E+02 -0.32000E+05
 0.52703003E+02 -0.32223E+05
 0.52753002E+02 -0.33011E+05
 0.52803001E+02 -0.34484E+05
 0.52853004E+02 -0.33708E+05
 0.52903004E+02 -0.32516E+05
 0.52953003E+02 -0.32381E+05
 0.53003002E+02 -0.32224E+05
 0.53053001E+02 -0.31812E+05
 0.53103004E+02 -0.31217E+05
 0.53153004E+02 -0.31537E+05
 0.53203003E+02 -0.30484E+05
 0.53253002E+02 -0.30948E+05
 0.53303001E+02 -0.32375E+05
 0.53353004E+02 -0.32674E+05
 0.53403004E+02 -0.33416E+05
 0.53453003E+02 -0.33940E+05
 0.53503002E+02 -0.34705E+05
 0.53553001E+02 -0.35284E+05
 0.53603004E+02 -0.35263E+05
 0.53653004E+02 -0.34817E+05
 0.53703003E+02 -0.34679E+05
 0.53753002E+02 -0.34389E+05
 0.53803001E+02 -0.33799E+05
 0.53853004E+02 -0.33021E+05
 0.53903004E+02 -0.32832E+05
 0.53953003E+02 -0.33007E+05
 0.54003002E+02 -0.32757E+05
 0.54053001E+02 -0.32399E+05
 0.54103004E+02 -0.32337E+05
 0.54153004E+02 -0.31997E+05
 0.54203003E+02 -0.31213E+05
 0.54253002E+02 -0.30942E+05
 0.54303001E+02 -0.30781E+05
 0.54353004E+02 -0.30942E+05
 0.54403004E+02 -0.31490E+05
 0.54453003E+02 -0.32040E+05
 0.54503002E+02 -0.33386E+05
 0.54553001E+02 -0.34509E+05
 0.54603004E+02 -0.34837E+05
 0.54653004E+02 -0.34480E+05
 0.54703003E+02 -0.34573E+05
 0.54753002E+02 -0.34654E+05
 0.54803001E+02 -0.33754E+05
 0.54853004E+02 -0.32817E+05
 0.54903004E+02 -0.31847E+05
 0.54953003E+02 -0.31562E+05
 0.55003002E+02 -0.31578E+05
 0.55053001E+02 -0.31675E+05
 0.55103004E+02 -0.31930E+05
 0.55153004E+02 -0.33006E+05
 0.55203003E+02 -0.33737E+05
 0.55253002E+02 -0.33663E+05
 0.55303001E+02 -0.33767E+05
 0.55353004E+02 -0.33889E+05
 0.55403004E+02 -0.33794E+05
 0.55453003E+02 -0.34158E+05
 0.55503002E+02 -0.34502E+05
 0.55553001E+02 -0.34671E+05
 0.55603004E+02 -0.34726E+05
 0.55653004E+02 -0.33926E+05
 0.55703003E+02 -0.33218E+05
 0.55753002E+02 -0.32719E+05
 0.55803001E+02 -0.32191E+05
 0.55853001E+02 -0.31767E+05
 0.55903004E+02 -0.31709E+05
 0.55953003E+02 -0.31752E+05
 0.56003002E+02 -0.31786E+05
 0.56053001E+02 -0.31980E+05
 0.56103001E+02 -0.32203E+05
 0.56153004E+02 -0.32581E+05
 0.56203003E+02 -0.32199E+05
 0.56253002E+02 -0.32715E+05
 0.56303001E+02 -0.33186E+05
 0.56353001E+02 -0.33139E+05
 0.56403004E+02 -0.33381E+05
 0.56453003E+02 -0.34132E+05
 0.56503002E+02 -0.34393E+05
 0.56553001E+02 -0.33620E+05
 0.56603001E+02 -0.33408E+05
 0.56653004E+02 -0.33198E+05
 0.56703003E+02 -0.33581E+05
 0.56753002E+02 -0.33702E+05
 0.56803001E+02 -0.33846E+05
 0.56853001E+02 -0.33419E+05
 0.56903004E+02 -0.32550E+05
 0.56953003E+02 -0.32201E+05
 0.57003002E+02 -0.32203E+05
 0.57053001E+02 -0.32715E+05
 0.57103001E+02 -0.33295E+05
 0.57153004E+02 -0.33119E+05
 0.57203003E+02 -0.32712E+05
 0.57253002E+02 -0.32617E+05
 0.57303001E+02 -0.32612E+05
 0.57353001E+02 -0.32491E+05
 0.57403004E+02 -0.32054E+05
 0.57453003E+02 -0.32094E+05
 0.57503002E+02 -0.31518E+05
 0.57553001E+02 -0.32232E+05
 0.57603001E+02 -0.32718E+05
 0.57653004E+02 -0.32691E+05
 0.57703003E+02 -0.33064E+05
 0.57753002E+02 -0.32919E+05
 0.57803001E+02 -0.33721E+05
 0.57853001E+02 -0.34205E+05
 0.57903004E+02 -0.35122E+05
 0.57953003E+02 -0.35273E+05
 0.58003002E+02 -0.34856E+05
 0.58053001E+02 -0.33839E+05
 0.58103001E+02 -0.32825E+05
 0.58153004E+02 -0.32683E+05
 0.58203003E+02 -0.31967E+05
 0.58253002E+02 -0.32077E+05
 0.58303001E+02 -0.32409E+05
 0.58353001E+02 -0.32789E+05
 0.58403004E+02 -0.32807E+05
 0.58453003E+02 -0.33019E+05
 0.58503002E+02 -0.32835E+05
 0.58553001E+02 -0.32588E+05
 0.58603001E+02 -0.32430E+05
 0.58653004E+02 -0.32096E+05
 0.58703003E+02 -0.32592E+05
 0.58753002E+02 -0.32884E+05
 0.58803001E+02 -0.32398E+05
 0.58853001E+02 -0.31940E+05
 0.58903004E+02 -0.31003E+05
 0.58953003E+02 -0.30062E+05
 0.59003002E+02 -0.30091E+05
 0.59053001E+02 -0.29902E+05
 0.59103001E+02 -0.30774E+05
 0.59153004E+02 -0.31462E+05
 0.59203003E+02 -0.32539E+05
 0.59253002E+02 -0.33688E+05
 0.59303001E+02 -0.33799E+05
 0.59353001E+02 -0.34154E+05
 0.59403004E+02 -0.34447E+05
 0.59453003E+02 -0.35585E+05
 0.59503002E+02 -0.36515E+05
 0.59553001E+02 -0.36920E+05
 0.59603001E+02 -0.37263E+05
 0.59653004E+02 -0.36868E+05
 0.59703003E+02 -0.36420E+05
 0.59753002E+02 -0.35136E+05
 0.59803001E+02 -0.33882E+05
 0.59853001E+02 -0.33117E+05
 0.59903004E+02 -0.32626E+05
 0.59953003E+02 -0.32457E+05
 0.60003002E+02 -0.32282E+05
 0.60053001E+02 -0.32400E+05
 0.60103001E+02 -0.32618E+05
 0.60153004E+02 -0.32485E+05
 0.60203003E+02 -0.32295E+05
 0.60253002E+02 -0.32682E+05
 0.60303001E+02 -0.32007E+05
 0.60353001E+02 -0.31348E+05
 0.60403004E+02 -0.30999E+05
 0.60453003E+02 -0.30360E+05
 0.60503002E+02 -0.30296E+05
 0.60553001E+02 -0.30371E+05
 0.60603001E+02 -0.30443E+05
 0.60653004E+02 -0.30425E+05
 0.60703003E+02 -0.30717E+05
 0.60753002E+02 -0.31022E+05
 0.60803001E+02 -0.32293E+05
 0.60853001E+02 -0.33512E+05
 0.60903004E+02 -0.34038E+05
 0.60953003E+02 -0.35032E+05
 0.61003002E+02 -0.35313E+05
 0.61053001E+02 -0.35455E+05
 0.61103001E+02 -0.35568E+05
 0.61153004E+02 -0.34730E+05
 0.61203003E+02 -0.34230E+05
 0.61253002E+02 -0.34108E+05
 0.61303001E+02 -0.34272E+05
 0.61353001E+02 -0.34473E+05
 0.61403004E+02 -0.33641E+05
 0.61453003E+02 -0.33271E+05
 0.61503002E+02 -0.32812E+05
 0.61553001E+02 -0.32276E+05
 0.61603001E+02 -0.32228E+05
 0.61653004E+02 -0.32118E+05
 0.61703003E+02 -0.32149E+05
 0.61753002E+02 -0.32666E+05
 0.61803001E+02 -0.33158E+05
 0.61853001E+02 -0.33358E+05
 0.61903004E+02 -0.33398E+05
 0.61953003E+02 -0.32560E+05
 0.62003002E+02 -0.32060E+05
 0.62053001E+02 -0.32008E+05
 0.62103004E+02 -0.31975E+05
 0.62153000E+02 -0.32225E+05
 0.62203003E+02 -0.32596E+05
 0.62252998E+02 -0.32637E+05
 0.62303001E+02 -0.32786E+05
 0.62353004E+02 -0.33139E+05
 0.62403000E+02 -0.33189E+05
 0.62453003E+02 -0.33115E+05
 0.62502998E+02 -0.33412E+05
 0.62553001E+02 -0.33981E+05
 0.62603004E+02 -0.34037E+05
 0.62653000E+02 -0.34020E+05
 0.62703003E+02 -0.33731E+05
 0.62752998E+02 -0.33212E+05
 0.62803001E+02 -0.33232E+05
 0.62853004E+02 -0.32520E+05
 0.62903000E+02 -0.32200E+05
 0.62953003E+02 -0.32190E+05
 0.63002998E+02 -0.31868E+05
 0.63053001E+02 -0.31783E+05
 0.63103004E+02 -0.31706E+05
 0.63153000E+02 -0.31464E+05
 0.63203003E+02 -0.31045E+05
 0.63252998E+02 -0.31963E+05
 0.63303001E+02 -0.32982E+05
 0.63353004E+02 -0.33948E+05
 0.63403000E+02 -0.34943E+05
 0.63453003E+02 -0.35592E+05
 0.63502998E+02 -0.35264E+05
 0.63553001E+02 -0.34552E+05
 0.63603004E+02 -0.34232E+05
 0.63653000E+02 -0.33706E+05
 0.63703003E+02 -0.33089E+05
 0.63752998E+02 -0.32419E+05
 0.63803001E+02 -0.32221E+05
 0.63853004E+02 -0.31631E+05
 0.63903000E+02 -0.31304E+05
 0.63953003E+02 -0.31027E+05
 0.64002998E+02 -0.30573E+05
 0.64053001E+02 -0.30887E+05
 0.64103004E+02 -0.31426E+05
 0.64153000E+02 -0.32596E+05
 0.64203003E+02 -0.33206E+05
 0.64252998E+02 -0.33570E+05
 0.64303001E+02 -0.34154E+05
 0.64353004E+02 -0.34379E+05
 0.64403000E+02 -0.34484E+05
 0.64453003E+02 -0.34384E+05
 0.64502998E+02 -0.33798E+05
 0.64553001E+02 -0.33361E+05
 0.64603004E+02 -0.33520E+05
 0.64653000E+02 -0.33363E+05
 0.64703003E+02 -0.33552E+05
 0.64752998E+02 -0.33552E+05
 0.64803001E+02 -0.33144E+05
 0.64853004E+02 -0.32644E+05
 0.64903000E+02 -0.32144E+05
 0.64953003E+02 -0.32172E+05
 0.65002998E+02 -0.32367E+05
 0.65053001E+02 -0.32566E+05
 0.65103004E+02 -0.32839E+05
 0.65153000E+02 -0.32780E+05
 0.65203003E+02 -0.32708E+05
 0.65252998E+02 -0.32604E+05
 0.65303001E+02 -0.32612E+05
 0.65353004E+02 -0.32605E+05
 0.65403000E+02 -0.32516E+05
 0.65453003E+02 -0.32441E+05
 0.65502998E+02 -0.32271E+05
 0.65553001E+02 -0.32294E+05
 0.65603004E+02 -0.32512E+05
 0.65653000E+02 -0.33149E+05
 0.65703003E+02 -0.33665E+05
 0.65752998E+02 -0.34508E+05
 0.65803001E+02 -0.34976E+05
 0.65853004E+02 -0.34806E+05
 0.65903000E+02 -0.34914E+05
 0.65953003E+02 -0.34476E+05
 0.66002998E+02 -0.33559E+05
 0.66053001E+02 -0.32920E+05
 0.66103004E+02 -0.32699E+05
 0.66153000E+02 -0.32304E+05
 0.66203003E+02 -0.32204E+05
 0.66252998E+02 -0.31781E+05
 0.66303001E+02 -0.31344E+05
 0.66353004E+02 -0.31404E+05
 0.66403000E+02 -0.31722E+05
 0.66453003E+02 -0.32522E+05
 0.66502998E+02 -0.32741E+05
 0.66553001E+02 -0.33109E+05
 0.66603004E+02 -0.33303E+05
 0.66653000E+02 -0.33646E+05
 0.66703003E+02 -0.33861E+05
 0.66752998E+02 -0.33632E+05
 0.66803001E+02 -0.33467E+05
 0.66853004E+02 -0.32998E+05
 0.66903000E+02 -0.32815E+05
 0.66953003E+02 -0.33088E+05
 0.67002998E+02 -0.33453E+05
 0.67053001E+02 -0.33413E+05
 0.67103004E+02 -0.33497E+05
 0.67153000E+02 -0.33663E+05
 0.67203003E+02 -0.33499E+05
 0.67252998E+02 -0.33356E+05
 0.67303001E+02 -0.33165E+05
 0.67353004E+02 -0.33247E+05
 0.67403000E+02 -0.33376E+05
 0.67453003E+02 -0.33475E+05
 0.67502998E+02 -0.33792E+05
 0.67553001E+02 -0.33645E+05
 0.67603004E+02 -0.33294E+05
 0.67653000E+02 -0.33116E+05
 0.67703003E+02 -0.32876E+05
 0.67752998E+02 -0.32330E+05
 0.67803001E+02 -0.31704E+05
 0.67853004E+02 -0.31686E+05
 0.67903000E+02 -0.32032E+05
 0.67953003E+02 -0.32224E+05
 0.68002998E+02 -0.32495E+05
 0.68053001E+02 -0.32634E+05
 0.68103004E+02 -0.32581E+05
 0.68153000E+02 -0.32587E+05
 0.68203003E+02 -0.33022E+05
 0.68252998E+02 -0.33402E+05
 0.68303001E+02 -0.33861E+05
 0.68353004E+02 -0.33890E+05
 0.68403000E+02 -0.33703E+05
 0.68453003E+02 -0.33652E+05
 0.68502998E+02 -0.32933E+05
 0.68553001E+02 -0.32404E+05
 0.68603004E+02 -0.31510E+05
 0.68653000E+02 -0.31564E+05
 0.68703003E+02 -0.31746E+05
 0.68752998E+02 -0.31554E+05
 0.68803001E+02 -0.32198E+05
 0.68853004E+02 -0.32347E+05
 0.68903000E+02 -0.32808E+05
 0.68953003E+02 -0.33016E+05
 0.69002998E+02 -0.33226E+05
 0.69053001E+02 -0.33316E+05
 0.69103004E+02 -0.33595E+05
 0.69153000E+02 -0.34058E+05
 0.69203003E+02 -0.33534E+05
 0.69252998E+02 -0.33025E+05
 0.69303001E+02 -0.32777E+05
 0.69353004E+02 -0.32668E+05
 0.69403000E+02 -0.32474E+05
 0.69453003E+02 -0.32426E+05
 0.69502998E+02 -0.32757E+05
 0.69553001E+02 -0.33294E+05
 0.69603004E+02 -0.33940E+05
 0.69653000E+02 -0.33996E+05
 0.69703003E+02 -0.33563E+05
 0.69752998E+02 -0.33226E+05
 0.69803001E+02 -0.32959E+05
 0.69853004E+02 -0.33045E+05
 0.69903000E+02 -0.32965E+05
 0.69953003E+02 -0.33085E+05
 0.70002998E+02 -0.33257E+05
 0.70053001E+02 -0.33497E+05
 0.70103004E+02 -0.33510E+05
 0.70153000E+02 -0.33314E+05
 0.70203003E+02 -0.33191E+05
 0.70252998E+02 -0.33081E+05
 0.70303001E+02 -0.33160E+05
 0.70353004E+02 -0.33072E+05
 0.70403000E+02 -0.32808E+05
 0.70453003E+02 -0.32718E+05
 0.70502998E+02 -0.32572E+05
 0.70553001E+02 -0.31885E+05
 0.70603004E+02 -0.31375E+05
 0.70653000E+02 -0.30645E+05
 0.70703003E+02 -0.30245E+05
 0.70752998E+02 -0.30682E+05
 0.70803001E+02 -0.31655E+05
 0.70853004E+02 -0.32599E+05
 0.70903000E+02 -0.33482E+05
 0.70953003E+02 -0.34391E+05
 0.71002998E+02 -0.34912E+05
 0.71053001E+02 -0.35116E+05
 0.71103004E+02 -0.34942E+05
 0.71153000E+02 -0.34777E+05
 0.71203003E+02 -0.34433E+05
 0.71252998E+02 -0.34150E+05
 0.71303001E+02 -0.33846E+05
 0.71353004E+02 -0.33060E+05
 0.71403000E+02 -0.32563E+05
 0.71453003E+02 -0.32271E+05
 0.71502998E+02 -0.31956E+05
 0.71553001E+02 -0.31641E+05
 0.71603004E+02 -0.31572E+05
 0.71653000E+02 -0.31636E+05
 0.71703003E+02 -0.31748E+05
 0.71752998E+02 -0.32491E+05
 0.71803001E+02 -0.32961E+05
 0.71853004E+02 -0.33363E+05
 0.71903000E+02 -0.33947E+05
 0.71953003E+02 -0.34138E+05
 0.72002998E+02 -0.34166E+05
 0.72053001E+02 -0.34052E+05
 0.72103004E+02 -0.33440E+05
 0.72153000E+02 -0.32901E+05
 0.72203003E+02 -0.32824E+05
 0.72252998E+02 -0.32622E+05
 0.72303001E+02 -0.32608E+05
 0.72353004E+02 -0.32748E+05
 0.72403000E+02 -0.33007E+05
 0.72453003E+02 -0.33276E+05
 0.72502998E+02 -0.33199E+05
 0.72553001E+02 -0.33026E+05
 0.72603004E+02 -0.32823E+05
 0.72653000E+02 -0.32658E+05
 0.72703003E+02 -0.32563E+05
 0.72752998E+02 -0.32494E+05
 0.72803001E+02 -0.32622E+05
 0.72853004E+02 -0.32814E+05
 0.72903000E+02 -0.32731E+05
 0.72953003E+02 -0.32503E+05
 0.73002998E+02 -0.32365E+05
 0.73053001E+02 -0.32538E+05
 0.73103004E+02 -0.32946E+05
 0.73153000E+02 -0.33146E+05
 0.73203003E+02 -0.33411E+05
 0.73252998E+02 -0.33912E+05
 0.73303001E+02 -0.34177E+05
 0.73353004E+02 -0.34195E+05
 0.73403000E+02 -0.34062E+05
 0.73453003E+02 -0.33435E+05
 0.73502998E+02 -0.32804E+05
 0.73553001E+02 -0.32445E+05
 0.73603004E+02 -0.31838E+05
 0.73653000E+02 -0.31605E+05
 0.73703003E+02 -0.31842E+05
 0.73752998E+02 -0.32300E+05
 0.73803001E+02 -0.32910E+05
 0.73853004E+02 -0.33169E+05
 0.73903000E+02 -0.33302E+05
 0.73953003E+02 -0.33453E+05
 0.74002998E+02 -0.33667E+05
 0.74053001E+02 -0.33754E+05
 0.74103004E+02 -0.34025E+05
 0.74153000E+02 -0.34183E+05
 0.74203003E+02 -0.34096E+05
 0.74252998E+02 -0.34130E+05
 0.74303001E+02 -0.33690E+05
 0.74353004E+02 -0.33032E+05
 0.74403000E+02 -0.32606E+05
 0.74453003E+02 -0.32294E+05
 0.74502998E+02 -0.32196E+05
 0.74553001E+02 -0.32271E+05
 0.74603004E+02 -0.32337E+05
 0.74653000E+02 -0.32122E+05
 0.74703003E+02 -0.31986E+05
 0.74752998E+02 -0.32382E+05
 0.74803001E+02 -0.32719E+05
 0.74853004E+02 -0.32683E+05
 0.74903000E+02 -0.32493E+05
 0.74953003E+02 -0.32315E+05
 0.75002998E+02 -0.32101E+05
 0.75053001E+02 -0.32164E+05
 0.75103004E+02 -0.32442E+05
 0.75153000E+02 -0.32664E+05
 0.75203003E+02 -0.32670E+05
 0.75252998E+02 -0.32723E+05
 0.75303001E+02 -0.32696E+05
 0.75353004E+02 -0.32882E+05
 0.75403000E+02 -0.33203E+05
 0.75453003E+02 -0.33294E+05
 0.75502998E+02 -0.33303E+05
 0.75553001E+02 -0.33538E+05
 0.75603004E+02 -0.33685E+05
 0.75653000E+02 -0.33999E+05
 0.75703003E+02 -0.34165E+05
 0.75752998E+02 -0.34135E+05
 0.75803001E+02 -0.34352E+05
 0.75853004E+02 -0.34100E+05
 0.75903000E+02 -0.33763E+05
 0.75953003E+02 -0.33293E+05
 0.76002998E+02 -0.33140E+05
 0.76053001E+02 -0.33001E+05
 0.76103004E+02 -0.33049E+05
 0.76153000E+02 -0.32751E+05
 0.76203003E+02 -0.32395E+05
 0.76252998E+02 -0.32247E+05
 0.76303001E+02 -0.32214E+05
 0.76353004E+02 -0.32460E+05
 0.76403000E+02 -0.32448E+05
 0.76453003E+02 -0.32646E+05
 0.76502998E+02 -0.32899E+05
 0.76553001E+02 -0.33234E+05
 0.76603004E+02 -0.33111E+05
 0.76653000E+02 -0.33144E+05
 0.76703003E+02 -0.33229E+05
 0.76752998E+02 -0.33199E+05
 0.76803001E+02 -0.33358E+05
 0.76853004E+02 -0.33249E+05
 0.76903000E+02 -0.32946E+05
 0.76953003E+02 -0.32640E+05
 0.77002998E+02 -0.32641E+05
 0.77053001E+02 -0.32810E+05
 0.77103004E+02 -0.33062E+05
 0.77153000E+02 -0.33256E+05
 0.77203003E+02 -0.33116E+05
 0.77252998E+02 -0.32964E+05
 0.77303001E+02 -0.33072E+05
 0.77353004E+02 -0.33044E+05
 0.77403000E+02 -0.32842E+05
 0.77453003E+02 -0.32713E+05
 0.77502998E+02 -0.32492E+05
 0.77553001E+02 -0.32169E+05
 0.77603004E+02 -0.32205E+05
 0.77653000E+02 -0.32312E+05
 0.77703003E+02 -0.32616E+05
 0.77752998E+02 -0.32865E+05
 0.77803001E+02 -0.32898E+05
 0.77853004E+02 -0.33117E+05
 0.77903000E+02 -0.33059E+05
 0.77953003E+02 -0.33122E+05
 0.78002998E+02 -0.33156E+05
 0.78053001E+02 -0.33075E+05
 0.78103004E+02 -0.33125E+05
 0.78153000E+02 -0.33007E+05
 0.78203003E+02 -0.32924E+05
 0.78252998E+02 -0.32963E+05
 0.78303001E+02 -0.33129E+05
 0.78353004E+02 -0.33325E+05
 0.78403000E+02 -0.33391E+05
 0.78453003E+02 -0.33367E+05
 0.78502998E+02 -0.33407E+05
 0.78553001E+02 -0.33509E+05
 0.78603004E+02 -0.33657E+05
 0.78653000E+02 -0.33579E+05
 0.78703003E+02 -0.33371E+05
 0.78752998E+02 -0.33091E+05
 0.78803001E+02 -0.32749E+05
 0.78853004E+02 -0.32455E+05
 0.78903000E+02 -0.32071E+05
 0.78953003E+02 -0.31793E+05
 0.79002998E+02 -0.31749E+05
 0.79053001E+02 -0.31798E+05
 0.79103004E+02 -0.31955E+05
 0.79153000E+02 -0.32197E+05
 0.79203003E+02 -0.32451E+05
 0.79252998E+02 -0.32768E+05
 0.79303001E+02 -0.33000E+05
 0.79353004E+02 -0.33391E+05
 0.79403000E+02 -0.33892E+05
 0.79453003E+02 -0.34173E+05
 0.79502998E+02 -0.34445E+05
 0.79553001E+02 -0.34485E+05
 0.79603004E+02 -0.34486E+05
 0.79653000E+02 -0.34410E+05
 0.79703003E+02 -0.34029E+05
 0.79752998E+02 -0.33607E+05
 0.79803001E+02 -0.33165E+05
 0.79853004E+02 -0.32508E+05
 0.79903000E+02 -0.32031E+05
 0.79953003E+02 -0.31964E+05
 0.80002998E+02 -0.32083E+05
 0.80053001E+02 -0.32181E+05
 0.80103004E+02 -0.32257E+05
 0.80153000E+02 -0.32421E+05
 0.80203003E+02 -0.32530E+05
 0.80252998E+02 -0.32829E+05
 0.80303001E+02 -0.32994E+05
 0.80353004E+02 -0.33090E+05
 0.80403000E+02 -0.33262E+05
 0.80453003E+02 -0.33403E+05
 0.80502998E+02 -0.33152E+05
 0.80553001E+02 -0.32960E+05
 0.80603004E+02 -0.32833E+05
 0.80653000E+02 -0.32797E+05
 0.80703003E+02 -0.32738E+05
 0.80752998E+02 -0.32506E+05
 0.80803001E+02 -0.32521E+05
 0.80853004E+02 -0.32515E+05
 0.80903000E+02 -0.32601E+05
 0.80953003E+02 -0.32596E+05
 0.81002998E+02 -0.32667E+05
 0.81053001E+02 -0.32700E+05
 0.81103004E+02 -0.32645E+05
 0.81153000E+02 -0.32566E+05
 0.81203003E+02 -0.32530E+05
 0.81252998E+02 -0.32648E+05
 0.81303001E+02 -0.32620E+05
 0.81353004E+02 -0.32637E+05
 0.81403000E+02 -0.32987E+05
 0.81453003E+02 -0.33308E+05
 0.81502998E+02 -0.33334E+05
 0.81553001E+02 -0.33391E+05
 0.81603004E+02 -0.33597E+05
 0.81653000E+02 -0.33671E+05
 0.81703003E+02 -0.33645E+05
 0.81752998E+02 -0.33690E+05
 0.81803001E+02 -0.33651E+05
 0.81853004E+02 -0.33494E+05
 0.81903000E+02 -0.33301E+05
 0.81953003E+02 -0.33097E+05
 0.82002998E+02 -0.32838E+05
 0.82053001E+02 -0.32515E+05
 0.82103004E+02 -0.32418E+05
 0.82153000E+02 -0.32233E+05
 0.82203003E+02 -0.32109E+05
 0.82252998E+02 -0.32084E+05
 0.82303001E+02 -0.32167E+05
 0.82353004E+02 -0.32625E+05
 0.82403000E+02 -0.33096E+05
 0.82453003E+02 -0.33382E+05
 0.82502998E+02 -0.33531E+05
 0.82553001E+02 -0.33542E+05
 0.82603004E+02 -0.33324E+05
 0.82653000E+02 -0.33063E+05
 0.82703003E+02 -0.32651E+05
 0.82752998E+02 -0.32448E+05
 0.82803001E+02 -0.32572E+05
 0.82853004E+02 -0.32710E+05
 0.82903000E+02 -0.32835E+05
 0.82953003E+02 -0.32903E+05
 0.83002998E+02 -0.32858E+05
 0.83053001E+02 -0.33007E+05
 0.83103004E+02 -0.33345E+05
 0.83153000E+02 -0.33588E+05
 0.83203003E+02 -0.33896E+05
 0.83252998E+02 -0.34060E+05
 0.83303001E+02 -0.34025E+05
 0.83353004E+02 -0.33939E+05
 0.83403000E+02 -0.33807E+05
 0.83453003E+02 -0.33553E+05
 0.83502998E+02 -0.33233E+05
 0.83553001E+02 -0.32827E+05
 0.83603004E+02 -0.32248E+05
 0.83653000E+02 -0.31979E+05
 0.83703003E+02 -0.32031E+05
 0.83752998E+02 -0.32060E+05
 0.83803001E+02 -0.32150E+05
 0.83853004E+02 -0.32350E+05
 0.83903000E+02 -0.32615E+05
 0.83953003E+02 -0.32834E+05
 0.84002998E+02 -0.32978E+05
 0.84053001E+02 -0.33121E+05
 0.84103004E+02 -0.33343E+05
 0.84153000E+02 -0.33388E+05
 0.84203003E+02 -0.33421E+05
 0.84252998E+02 -0.33410E+05
 0.84303001E+02 -0.33080E+05
 0.84353004E+02 -0.32778E+05
 0.84403000E+02 -0.32698E+05
 0.84453003E+02 -0.32827E+05
 0.84502998E+02 -0.32873E+05
 0.84553001E+02 -0.32860E+05
 0.84603004E+02 -0.32896E+05
 0.84653000E+02 -0.32913E+05
 0.84703003E+02 -0.33019E+05
 0.84752998E+02 -0.33279E+05
 0.84803001E+02 -0.33484E+05
 0.84853004E+02 -0.33567E+05
 0.84903000E+02 -0.33770E+05
 0.84953003E+02 -0.33928E+05
 0.85002998E+02 -0.33883E+05
 0.85053001E+02 -0.33778E+05
 0.85103004E+02 -0.33678E+05
 0.85153000E+02 -0.33564E+05
 0.85203003E+02 -0.33251E+05
 0.85252998E+02 -0.32971E+05
 0.85303001E+02 -0.32696E+05
 0.85353004E+02 -0.32500E+05
 0.85403000E+02 -0.32392E+05
 0.85453003E+02 -0.32390E+05
 0.85502998E+02 -0.32502E+05
 0.85553001E+02 -0.32557E+05
 0.85603004E+02 -0.32755E+05
 0.85653000E+02 -0.32887E+05
 0.85703003E+02 -0.32837E+05
 0.85752998E+02 -0.32670E+05
 0.85803001E+02 -0.32597E+05
 0.85853004E+02 -0.32402E+05
 0.85903000E+02 -0.32196E+05
 0.85953003E+02 -0.32117E+05
 0.86002998E+02 -0.32058E+05
 0.86053001E+02 -0.32287E+05
 0.86103004E+02 -0.32584E+05
 0.86153000E+02 -0.32887E+05
 0.86203003E+02 -0.33197E+05
 0.86252998E+02 -0.33361E+05
 0.86303001E+02 -0.33527E+05
 0.86353004E+02 -0.33687E+05
 0.86403000E+02 -0.33732E+05
 0.86453003E+02 -0.33559E+05
 0.86502998E+02 -0.33407E+05
 0.86553001E+02 -0.33335E+05
 0.86603004E+02 -0.33032E+05
 0.86653000E+02 -0.32793E+05
 0.86703003E+02 -0.32676E+05
 0.86752998E+02 -0.32585E+05
 0.86803001E+02 -0.32608E+05
 0.86853004E+02 -0.32520E+05
 0.86903000E+02 -0.32527E+05
 0.86953003E+02 -0.32790E+05
 0.87002998E+02 -0.32903E+05
 0.87053001E+02 -0.32886E+05
 0.87103004E+02 -0.33076E+05
 0.87153000E+02 -0.33268E+05
 0.87203003E+02 -0.33261E+05
 0.87252998E+02 -0.33153E+05
 0.87303001E+02 -0.33093E+05
 0.87353004E+02 -0.32892E+05
 0.87403000E+02 -0.32844E+05
 0.87453003E+02 -0.32884E+05
 0.87502998E+02 -0.32771E+05
 0.87553001E+02 -0.32708E+05
 0.87602997E+02 -0.32665E+05
 0.87653000E+02 -0.32650E+05
 0.87703003E+02 -0.32676E+05
 0.87752998E+02 -0.32771E+05
 0.87803001E+02 -0.32843E+05
 0.87852997E+02 -0.32850E+05
 0.87903000E+02 -0.33099E+05
 0.87953003E+02 -0.33473E+05
 0.88002998E+02 -0.33681E+05
 0.88053001E+02 -0.33820E+05
 0.88102997E+02 -0.33892E+05
 0.88153000E+02 -0.33962E+05
 0.88203003E+02 -0.33800E+05
 0.88252998E+02 -0.33640E+05
 0.88303001E+02 -0.33413E+05
 0.88352997E+02 -0.33216E+05
 0.88403000E+02 -0.33084E+05
 0.88453003E+02 -0.32938E+05
 0.88502998E+02 -0.32726E+05
 0.88553001E+02 -0.32532E+05
 0.88602997E+02 -0.32616E+05
 0.88653000E+02 -0.32731E+05
 0.88703003E+02 -0.32921E+05
 0.88752998E+02 -0.33065E+05
 0.88803001E+02 -0.33078E+05
 0.88852997E+02 -0.33080E+05
 0.88903000E+02 -0.33097E+05
 0.88953003E+02 -0.32969E+05
 0.89002998E+02 -0.32805E+05
 0.89053001E+02 -0.32806E+05
 0.89102997E+02 -0.32657E+05
 0.89153000E+02 -0.32413E+05
 0.89203003E+02 -0.32269E+05
 0.89252998E+02 -0.32182E+05
 0.89303001E+02 -0.32097E+05
 0.89352997E+02 -0.32002E+05
 0.89403000E+02 -0.32103E+05
 0.89453003E+02 -0.32210E+05
 0.89502998E+02 -0.32286E+05
 0.89553001E+02 -0.32447E+05
 0.89602997E+02 -0.32658E+05
 0.89653000E+02 -0.32769E+05
 0.89703003E+02 -0.32949E+05
 0.89752998E+02 -0.33097E+05
 0.89803001E+02 -0.33140E+05
 0.89852997E+02 -0.33088E+05
 0.89903000E+02 -0.33045E+05
 0.89953003E+02 -0.33059E+05
 0.90002998E+02 -0.33020E+05
 0.90053001E+02 -0.33021E+05
 0.90102997E+02 -0.32970E+05
 0.90153000E+02 -0.33014E+05
 0.90203003E+02 -0.33130E+05
 0.90252998E+02 -0.33284E+05
 0.90303001E+02 -0.33315E+05
 0.90352997E+02 -0.33243E+05
 0.90403000E+02 -0.33243E+05
 0.90453003E+02 -0.33195E+05
 0.90502998E+02 -0.33196E+05
 0.90553001E+02 -0.33187E+05
 0.90602997E+02 -0.33124E+05
 0.90653000E+02 -0.33006E+05
 0.90703003E+02 -0.33069E+05
 0.90752998E+02 -0.33191E+05
 0.90803001E+02 -0.33286E+05
 0.90852997E+02 -0.33401E+05
 0.90903000E+02 -0.33343E+05
 0.90953003E+02 -0.33255E+05
 0.91002998E+02 -0.33075E+05
 0.91053001E+02 -0.33003E+05
 0.91102997E+02 -0.32891E+05
 0.91153000E+02 -0.32943E+05
 0.91203003E+02 -0.33078E+05
 0.91252998E+02 -0.33234E+05
 0.91303001E+02 -0.33240E+05
 0.91352997E+02 -0.33092E+05
 0.91403000E+02 -0.33098E+05
 0.91453003E+02 -0.33054E+05
 0.91502998E+02 -0.33023E+05
 0.91553001E+02 -0.32901E+05
 0.91602997E+02 -0.32846E+05
 0.91653000E+02 -0.32848E+05
 0.91703003E+02 -0.32930E+05
 0.91752998E+02 -0.32827E+05
 0.91803001E+02 -0.32851E+05
 0.91852997E+02 -0.32976E+05
 0.91903000E+02 -0.33026E+05
 0.91953003E+02 -0.33167E+05
 0.92002998E+02 -0.33192E+05
 0.92053001E+02 -0.33145E+05
 0.92102997E+02 -0.33034E+05
 0.92153000E+02 -0.32914E+05
 0.92203003E+02 -0.32708E+05
 0.92252998E+02 -0.32612E+05
 0.92303001E+02 -0.32651E+05
 0.92352997E+02 -0.32722E+05
 0.92403000E+02 -0.32733E+05
 0.92453003E+02 -0.32684E+05
 0.92502998E+02 -0.32616E+05
 0.92553001E+02 -0.32646E+05
 0.92602997E+02 -0.32765E+05
 0.92653000E+02 -0.32712E+05
 0.92703003E+02 -0.32607E+05
 0.92752998E+02 -0.32592E+05
 0.92803001E+02 -0.32618E+05
 0.92852997E+02 -0.32679E+05
 0.92903000E+02 -0.32892E+05
 0.92953003E+02 -0.33124E+05
 0.93002998E+02 -0.33208E+05
 0.93053001E+02 -0.33211E+05
 0.93102997E+02 -0.33180E+05
 0.93153000E+02 -0.33261E+05
 0.93203003E+02 -0.33245E+05
 0.93252998E+02 -0.33176E+05
 0.93303001E+02 -0.33219E+05
 0.93352997E+02 -0.33282E+05
 0.93403000E+02 -0.33315E+05
 0.93453003E+02 -0.33178E+05
 0.93502998E+02 -0.33162E+05
 0.93553001E+02 -0.33181E+05
 0.93602997E+02 -0.33162E+05
 0.93653000E+02 -0.33150E+05
 0.93703003E+02 -0.33176E+05
 0.93752998E+02 -0.33250E+05
 0.93803001E+02 -0.33270E+05
 0.93852997E+02 -0.33250E+05
 0.93903000E+02 -0.33229E+05
 0.93953003E+02 -0.33159E+05
 0.94002998E+02 -0.33113E+05
 0.94053001E+02 -0.33305E+05
 0.94102997E+02 -0.33436E+05
 0.94153000E+02 -0.33317E+05
 0.94203003E+02 -0.33171E+05
 0.94252998E+02 -0.33124E+05
 0.94303001E+02 -0.32941E+05
 0.94352997E+02 -0.32762E+05
 0.94403000E+02 -0.32640E+05
 0.94453003E+02 -0.32554E+05
 0.94502998E+02 -0.32610E+05
 0.94553001E+02 -0.32653E+05
 0.94602997E+02 -0.32692E+05
 0.94653000E+02 -0.32725E+05
 0.94703003E+02 -0.32874E+05
 0.94752998E+02 -0.33136E+05
 0.94803001E+02 -0.33312E+05
 0.94852997E+02 -0.33327E+05
 0.94903000E+02 -0.33262E+05
 0.94953003E+02 -0.33396E+05
 0.95002998E+02 -0.33364E+05
 0.95053001E+02 -0.33374E+05
 0.95102997E+02 -0.33246E+05
 0.95153000E+02 -0.32996E+05
 0.95203003E+02 -0.32756E+05
 0.95252998E+02 -0.32517E+05
 0.95303001E+02 -0.32452E+05
 0.95352997E+02 -0.32310E+05
 0.95403000E+02 -0.32357E+05
 0.95453003E+02 -0.32368E+05
 0.95502998E+02 -0.32366E+05
 0.95553001E+02 -0.32378E+05
 0.95602997E+02 -0.32221E+05
 0.95653000E+02 -0.32274E+05
 0.95703003E+02 -0.32359E+05
 0.95752998E+02 -0.32458E+05
 0.95803001E+02 -0.32637E+05
 0.95852997E+02 -0.32788E+05
 0.95903000E+02 -0.33016E+05
 0.95953003E+02 -0.33173E+05
 0.96002998E+02 -0.33347E+05
 0.96053001E+02 -0.33399E+05
 0.96102997E+02 -0.33368E+05
 0.96153000E+02 -0.33295E+05
 0.96203003E+02 -0.33466E+05
 0.96252998E+02 -0.33376E+05
 0.96303001E+02 -0.33526E+05
 0.96352997E+02 -0.33502E+05
 0.96403000E+02 -0.33392E+05
 0.96453003E+02 -0.33345E+05
 0.96502998E+02 -0.33260E+05
 0.96553001E+02 -0.33292E+05
 0.96602997E+02 -0.33133E+05
 0.96653000E+02 -0.33069E+05
 0.96703003E+02 -0.32813E+05
 0.96752998E+02 -0.32905E+05
 0.96803001E+02 -0.32830E+05
 0.96852997E+02 -0.32917E+05
 0.96903000E+02 -0.32840E+05
 0.96953003E+02 -0.32826E+05
 0.97002998E+02 -0.32756E+05
 0.97053001E+02 -0.32583E+05
 0.97102997E+02 -0.32634E+05
 0.97153000E+02 -0.32530E+05
 0.97203003E+02 -0.32601E+05
 0.97252998E+02 -0.32619E+05
 0.97303001E+02 -0.32907E+05
 0.97352997E+02 -0.33084E+05
 0.97403000E+02 -0.33215E+05
 0.97453003E+02 -0.33224E+05
 0.97502998E+02 -0.33232E+05
 0.97553001E+02 -0.33147E+05
 0.97602997E+02 -0.33126E+05
 0.97653000E+02 -0.33131E+05
 0.97703003E+02 -0.33005E+05
 0.97752998E+02 -0.32888E+05
 0.97803001E+02 -0.32713E+05
 0.97852997E+02 -0.32675E+05
 0.97903000E+02 -0.32609E+05
 0.97953003E+02 -0.32552E+05
 0.98002998E+02 -0.32709E+05
