-0.20000000E+01  0.35484E+04
-0.19500000E+01  0.35258E+04
-0.19000000E+01  0.35440E+04
-0.18500000E+01  0.35480E+04
-0.18000000E+01  0.35397E+04
-0.17500000E+01  0.35321E+04
-0.17000000E+01  0.35285E+04
-0.16500001E+01  0.35298E+04
-0.16000000E+01  0.35337E+04
-0.15500000E+01  0.35292E+04
-0.15000000E+01  0.35365E+04
-0.14500000E+01  0.35494E+04
-0.14000001E+01  0.35581E+04
-0.13500000E+01  0.35633E+04
-0.13000001E+01  0.35657E+04
-0.12500000E+01  0.35622E+04
-0.12000000E+01  0.35490E+04
-0.11500001E+01  0.35470E+04
-0.11000000E+01  0.35446E+04
-0.10500001E+01  0.35473E+04
-0.10000000E+01  0.35596E+04
-0.95000005E+00  0.35670E+04
-0.90000010E+00  0.35677E+04
-0.85000002E+00  0.35618E+04
-0.80000007E+00  0.35622E+04
-0.75000012E+00  0.35589E+04
-0.70000005E+00  0.35602E+04
-0.65000010E+00  0.35676E+04
-0.60000014E+00  0.35668E+04
-0.55000007E+00  0.35639E+04
-0.50000012E+00  0.35602E+04
-0.45000005E+00  0.35586E+04
-0.40000010E+00  0.35512E+04
-0.35000014E+00  0.35510E+04
-0.30000007E+00  0.35566E+04
-0.25000012E+00  0.35458E+04
-0.20000005E+00  0.35337E+04
-0.15000010E+00  0.35349E+04
-0.10000014E+00  0.35270E+04
-0.50000072E-01  0.35247E+04
-0.11920929E-06  0.35347E+04
 0.49999952E-01  0.35421E+04
 0.99999905E-01  0.35492E+04
 0.14999986E+00  0.35510E+04
 0.19999981E+00  0.35581E+04
 0.24999976E+00  0.35614E+04
 0.29999995E+00  0.35676E+04
 0.34999990E+00  0.35716E+04
 0.39999986E+00  0.35679E+04
 0.44999981E+00  0.35634E+04
 0.49999976E+00  0.35649E+04
 0.54999995E+00  0.35740E+04
 0.59999990E+00  0.35719E+04
 0.64999986E+00  0.35770E+04
 0.69999981E+00  0.35852E+04
 0.74999976E+00  0.35801E+04
 0.79999971E+00  0.35742E+04
 0.84999990E+00  0.35699E+04
 0.89999986E+00  0.35630E+04
 0.94999981E+00  0.35633E+04
 0.99999976E+00  0.35693E+04
 0.10499997E+01  0.35748E+04
 0.10999999E+01  0.35773E+04
 0.11499999E+01  0.35746E+04
 0.11999998E+01  0.35682E+04
 0.12499998E+01  0.35576E+04
 0.12999997E+01  0.35676E+04
 0.13499999E+01  0.35793E+04
 0.13999999E+01  0.35733E+04
 0.14499998E+01  0.35615E+04
 0.14999998E+01  0.35470E+04
 0.15499997E+01  0.35406E+04
 0.15999999E+01  0.35420E+04
 0.16499999E+01  0.35457E+04
 0.16999998E+01  0.35522E+04
 0.17499998E+01  0.35592E+04
 0.17999997E+01  0.35581E+04
 0.18499997E+01  0.35542E+04
 0.18999999E+01  0.35544E+04
 0.19499998E+01  0.35632E+04
 0.19999998E+01  0.35702E+04
 0.20499997E+01  0.35642E+04
 0.20999999E+01  0.35618E+04
 0.21499996E+01  0.35711E+04
 0.21999998E+01  0.35772E+04
 0.22499995E+01  0.35674E+04
 0.22999997E+01  0.35681E+04
 0.23499999E+01  0.35700E+04
 0.23999996E+01  0.35599E+04
 0.24499998E+01  0.35543E+04
 0.24999995E+01  0.35498E+04
 0.25499997E+01  0.35384E+04
 0.25999999E+01  0.35358E+04
 0.26499996E+01  0.35426E+04
 0.26999998E+01  0.35409E+04
 0.27499995E+01  0.35422E+04
 0.27999997E+01  0.35370E+04
 0.28499999E+01  0.35338E+04
 0.28999996E+01  0.35251E+04
 0.29499998E+01  0.35317E+04
 0.29999995E+01  0.35319E+04
 0.30499997E+01  0.35338E+04
 0.30999999E+01  0.35446E+04
 0.31499996E+01  0.35370E+04
 0.31999998E+01  0.35293E+04
 0.32499995E+01  0.35180E+04
 0.32999997E+01  0.35252E+04
 0.33499999E+01  0.35270E+04
 0.33999996E+01  0.35237E+04
 0.34499998E+01  0.35351E+04
 0.34999995E+01  0.35365E+04
 0.35499997E+01  0.35456E+04
 0.35999994E+01  0.35572E+04
 0.36499996E+01  0.35485E+04
 0.36999998E+01  0.35392E+04
 0.37499995E+01  0.35323E+04
 0.37999997E+01  0.35403E+04
 0.38499994E+01  0.35541E+04
 0.38999996E+01  0.35623E+04
 0.39499998E+01  0.35703E+04
 0.39999995E+01  0.35735E+04
 0.40499997E+01  0.35782E+04
 0.40999994E+01  0.35913E+04
 0.41499996E+01  0.35951E+04
 0.41999998E+01  0.35867E+04
 0.42499995E+01  0.35903E+04
 0.42999997E+01  0.35934E+04
 0.43499994E+01  0.35800E+04
 0.43999996E+01  0.35692E+04
 0.44499998E+01  0.35775E+04
 0.44999995E+01  0.35823E+04
 0.45499997E+01  0.35756E+04
 0.45999994E+01  0.35812E+04
 0.46499996E+01  0.35763E+04
 0.46999998E+01  0.35692E+04
 0.47499995E+01  0.35663E+04
 0.47999997E+01  0.35508E+04
 0.48499994E+01  0.35439E+04
 0.48999996E+01  0.35490E+04
 0.49499998E+01  0.35503E+04
 0.49999995E+01  0.35486E+04
 0.50499997E+01  0.35530E+04
 0.50999994E+01  0.35487E+04
 0.51499996E+01  0.35348E+04
 0.51999998E+01  0.35331E+04
 0.52499995E+01  0.35458E+04
 0.52999997E+01  0.35480E+04
 0.53499994E+01  0.35455E+04
 0.53999996E+01  0.35389E+04
 0.54499993E+01  0.35433E+04
 0.54999995E+01  0.35534E+04
 0.55499997E+01  0.35510E+04
 0.55999994E+01  0.35485E+04
 0.56499996E+01  0.35393E+04
 0.56999993E+01  0.35418E+04
 0.57499995E+01  0.35445E+04
 0.57999997E+01  0.35357E+04
 0.58499994E+01  0.35395E+04
 0.58999996E+01  0.35454E+04
 0.59499993E+01  0.35580E+04
 0.59999995E+01  0.35655E+04
 0.60499992E+01  0.35691E+04
 0.60999994E+01  0.35648E+04
 0.61499996E+01  0.35674E+04
 0.61999998E+01  0.35815E+04
 0.62499990E+01  0.35731E+04
 0.62999992E+01  0.35682E+04
 0.63499994E+01  0.35686E+04
 0.63999996E+01  0.35683E+04
 0.64499998E+01  0.35623E+04
 0.64999990E+01  0.35739E+04
 0.65499992E+01  0.35837E+04
 0.65999994E+01  0.35814E+04
 0.66499996E+01  0.35910E+04
 0.66999998E+01  0.35918E+04
 0.67499990E+01  0.35843E+04
 0.67999992E+01  0.35808E+04
 0.68499994E+01  0.35872E+04
 0.68999996E+01  0.35839E+04
 0.69499998E+01  0.35834E+04
 0.69999990E+01  0.35818E+04
 0.70499992E+01  0.35690E+04
 0.70999994E+01  0.35676E+04
 0.71499996E+01  0.35695E+04
 0.71999998E+01  0.35704E+04
 0.72499990E+01  0.35662E+04
 0.72999992E+01  0.35532E+04
 0.73499994E+01  0.35434E+04
 0.73999996E+01  0.35325E+04
 0.74499998E+01  0.35369E+04
 0.74999990E+01  0.35458E+04
 0.75499992E+01  0.35432E+04
 0.75999994E+01  0.35407E+04
 0.76499996E+01  0.35381E+04
 0.76999998E+01  0.35361E+04
 0.77499990E+01  0.35274E+04
 0.77999992E+01  0.35358E+04
 0.78499994E+01  0.35506E+04
 0.78999996E+01  0.35543E+04
 0.79499998E+01  0.35537E+04
 0.79999990E+01  0.35476E+04
 0.80499992E+01  0.35306E+04
 0.80999994E+01  0.35255E+04
 0.81499996E+01  0.35396E+04
 0.81999998E+01  0.35398E+04
 0.82499990E+01  0.35444E+04
 0.82999992E+01  0.35478E+04
 0.83499994E+01  0.35416E+04
 0.83999996E+01  0.35443E+04
 0.84499998E+01  0.35563E+04
 0.84999990E+01  0.35595E+04
 0.85499992E+01  0.35556E+04
 0.85999994E+01  0.35556E+04
 0.86499996E+01  0.35489E+04
 0.86999998E+01  0.35459E+04
 0.87499990E+01  0.35557E+04
 0.87999992E+01  0.35588E+04
 0.88499994E+01  0.35512E+04
 0.88999996E+01  0.35410E+04
 0.89499998E+01  0.35396E+04
 0.89999990E+01  0.35445E+04
 0.90499992E+01  0.35473E+04
 0.90999994E+01  0.35560E+04
 0.91499996E+01  0.35557E+04
 0.91999989E+01  0.35506E+04
 0.92499990E+01  0.35587E+04
 0.92999992E+01  0.35693E+04
 0.93499994E+01  0.35719E+04
 0.93999996E+01  0.35700E+04
 0.94499989E+01  0.35752E+04
 0.94999990E+01  0.35709E+04
 0.95499992E+01  0.35624E+04
 0.95999994E+01  0.35653E+04
 0.96499996E+01  0.35659E+04
 0.96999989E+01  0.35750E+04
 0.97499990E+01  0.35795E+04
 0.97999992E+01  0.35744E+04
 0.98499994E+01  0.35658E+04
 0.98999996E+01  0.35577E+04
 0.99499989E+01  0.35474E+04
 0.99999990E+01  0.35455E+04
 0.10049999E+02  0.35502E+04
 0.10099999E+02  0.35518E+04
 0.10150000E+02  0.35465E+04
 0.10199999E+02  0.35429E+04
 0.10249999E+02  0.35422E+04
 0.10299999E+02  0.35379E+04
 0.10349999E+02  0.35443E+04
 0.10400000E+02  0.35451E+04
 0.10449999E+02  0.35384E+04
 0.10499999E+02  0.35428E+04
 0.10549999E+02  0.35459E+04
 0.10599999E+02  0.35376E+04
 0.10650000E+02  0.35405E+04
 0.10699999E+02  0.35551E+04
 0.10749999E+02  0.35583E+04
 0.10799999E+02  0.35525E+04
 0.10849999E+02  0.35593E+04
 0.10900000E+02  0.35576E+04
 0.10949999E+02  0.35589E+04
 0.10999999E+02  0.35672E+04
 0.11049999E+02  0.35702E+04
 0.11099999E+02  0.35647E+04
 0.11150000E+02  0.35595E+04
 0.11199999E+02  0.35726E+04
 0.11249999E+02  0.35664E+04
 0.11299999E+02  0.35621E+04
 0.11349999E+02  0.35673E+04
 0.11400000E+02  0.35687E+04
 0.11449999E+02  0.35603E+04
 0.11499999E+02  0.35480E+04
 0.11549999E+02  0.35419E+04
 0.11599999E+02  0.35381E+04
 0.11650000E+02  0.35477E+04
 0.11699999E+02  0.35500E+04
 0.11749999E+02  0.35462E+04
 0.11799999E+02  0.35388E+04
 0.11849999E+02  0.35279E+04
 0.11900000E+02  0.35191E+04
 0.11949999E+02  0.35221E+04
 0.11999999E+02  0.35339E+04
 0.12049999E+02  0.35348E+04
 0.12099999E+02  0.35462E+04
 0.12150000E+02  0.35550E+04
 0.12199999E+02  0.35474E+04
 0.12249999E+02  0.35529E+04
 0.12299999E+02  0.35654E+04
 0.12349999E+02  0.35645E+04
 0.12400000E+02  0.35546E+04
 0.12449999E+02  0.35526E+04
 0.12499999E+02  0.35474E+04
 0.12549999E+02  0.35548E+04
 0.12599999E+02  0.35703E+04
 0.12649999E+02  0.35691E+04
 0.12699999E+02  0.35697E+04
 0.12749999E+02  0.35710E+04
 0.12799999E+02  0.35622E+04
 0.12849999E+02  0.35550E+04
 0.12899999E+02  0.35556E+04
 0.12949999E+02  0.35568E+04
 0.12999999E+02  0.35595E+04
 0.13049999E+02  0.35602E+04
 0.13099999E+02  0.35632E+04
 0.13149999E+02  0.35625E+04
 0.13199999E+02  0.35590E+04
 0.13249999E+02  0.35601E+04
 0.13299999E+02  0.35648E+04
 0.13349999E+02  0.35677E+04
 0.13399999E+02  0.35790E+04
 0.13449999E+02  0.35782E+04
 0.13499999E+02  0.35717E+04
 0.13549999E+02  0.35791E+04
 0.13599999E+02  0.35713E+04
 0.13649999E+02  0.35634E+04
 0.13699999E+02  0.35598E+04
 0.13749999E+02  0.35603E+04
 0.13799999E+02  0.35607E+04
 0.13849999E+02  0.35703E+04
 0.13899999E+02  0.35720E+04
 0.13949999E+02  0.35640E+04
 0.13999999E+02  0.35643E+04
 0.14049999E+02  0.35671E+04
 0.14099998E+02  0.35629E+04
 0.14150000E+02  0.35584E+04
 0.14199999E+02  0.35639E+04
 0.14249998E+02  0.35622E+04
 0.14299999E+02  0.35580E+04
 0.14349998E+02  0.35550E+04
 0.14400000E+02  0.35492E+04
 0.14449999E+02  0.35390E+04
 0.14499998E+02  0.35326E+04
 0.14549999E+02  0.35313E+04
 0.14599998E+02  0.35284E+04
 0.14650000E+02  0.35181E+04
 0.14699999E+02  0.35108E+04
 0.14749998E+02  0.35002E+04
 0.14799999E+02  0.35021E+04
 0.14849998E+02  0.35161E+04
 0.14900000E+02  0.35300E+04
 0.14949999E+02  0.35347E+04
 0.14999998E+02  0.35338E+04
 0.15049999E+02  0.35305E+04
 0.15099998E+02  0.35292E+04
 0.15150000E+02  0.35441E+04
 0.15199999E+02  0.35578E+04
 0.15249998E+02  0.35636E+04
 0.15299999E+02  0.35651E+04
 0.15349998E+02  0.35693E+04
 0.15400000E+02  0.35708E+04
 0.15449999E+02  0.35866E+04
 0.15499998E+02  0.36096E+04
 0.15549999E+02  0.36307E+04
 0.15599998E+02  0.36229E+04
 0.15650000E+02  0.35793E+04
 0.15699999E+02  0.35479E+04
 0.15749998E+02  0.35632E+04
 0.15799999E+02  0.36153E+04
 0.15849998E+02  0.36790E+04
 0.15900000E+02  0.36643E+04
 0.15949999E+02  0.35492E+04
 0.15999998E+02  0.35912E+04
 0.16049999E+02  0.36707E+04
 0.16099998E+02  0.35631E+04
 0.16150000E+02  0.34270E+04
 0.16199999E+02  0.35163E+04
 0.16249998E+02  0.39052E+04
 0.16299999E+02  0.40491E+04
 0.16349998E+02  0.39625E+04
 0.16400000E+02  0.36369E+04
 0.16449999E+02  0.30298E+04
 0.16499998E+02  0.24754E+04
 0.16549999E+02  0.25566E+04
 0.16599998E+02  0.35962E+04
 0.16650000E+02  0.37594E+04
 0.16699999E+02  0.43549E+04
 0.16749998E+02  0.53668E+04
 0.16799999E+02  0.49234E+04
 0.16849998E+02  0.39771E+04
 0.16900000E+02  0.30068E+04
 0.16949999E+02  0.24719E+04
 0.16999998E+02  0.28576E+04
 0.17049999E+02  0.18169E+04
 0.17099998E+02  0.28100E+04
 0.17150000E+02  0.37439E+04
 0.17199999E+02  0.31639E+04
 0.17249998E+02  0.41505E+04
 0.17299999E+02  0.20454E+04
 0.17349998E+02  0.20966E+04
 0.17400000E+02  0.15169E+04
 0.17449999E+02  0.19639E+04
 0.17499998E+02  0.44088E+04
 0.17549999E+02  0.58637E+04
 0.17599998E+02  0.47487E+04
 0.17650000E+02  0.37496E+04
 0.17699999E+02  0.65458E+04
 0.17749998E+02  0.42269E+04
 0.17799999E+02  0.51375E+04
 0.17849998E+02  0.67884E+04
 0.17900000E+02  0.40165E+04
 0.17949999E+02 -0.15580E+03
 0.17999998E+02  0.35970E+04
 0.18049999E+02  0.16667E+04
 0.18099998E+02 -0.22782E+04
 0.18150000E+02  0.10502E+05
 0.18199999E+02  0.39558E+04
 0.18249998E+02  0.32302E+04
 0.18299999E+02  0.31170E+04
 0.18349998E+02  0.43741E+03
 0.18400000E+02  0.97561E+04
 0.18449999E+02 -0.59547E+03
 0.18499998E+02  0.28358E+04
 0.18549999E+02  0.44541E+04
 0.18599998E+02  0.45147E+04
 0.18650000E+02  0.62238E+04
 0.18699999E+02 -0.37798E+02
 0.18749998E+02 -0.31930E+03
 0.18799999E+02 -0.28011E+04
 0.18849998E+02  0.54018E+04
 0.18900000E+02  0.33936E+04
 0.18949999E+02  0.53896E+04
 0.18999998E+02  0.12915E+05
 0.19049999E+02  0.47069E+04
 0.19099998E+02  0.71824E+03
 0.19150000E+02  0.15767E+04
 0.19199999E+02  0.16911E+04
 0.19249998E+02  0.43034E+04
 0.19299999E+02  0.10756E+05
 0.19349998E+02  0.74581E+04
 0.19400000E+02  0.20853E+04
 0.19449999E+02 -0.26894E+04
 0.19499998E+02 -0.42614E+04
 0.19549999E+02  0.10712E+05
 0.19599998E+02  0.76463E+04
 0.19650000E+02  0.16015E+04
 0.19699999E+02  0.24988E+04
 0.19749998E+02 -0.65029E+02
 0.19799999E+02  0.27227E+04
 0.19849998E+02 -0.39727E+03
 0.19900000E+02  0.44083E+04
 0.19949999E+02  0.35273E+04
 0.19999998E+02  0.11383E+05
 0.20049999E+02  0.59756E+04
 0.20099998E+02 -0.28063E+04
 0.20150000E+02  0.59315E+04
 0.20199999E+02  0.33010E+04
 0.20249998E+02  0.62180E+04
 0.20299999E+02 -0.43432E+04
 0.20349998E+02 -0.10690E+04
 0.20399998E+02  0.97718E+04
 0.20449999E+02  0.83683E+04
 0.20499998E+02  0.59556E+04
 0.20549999E+02  0.41350E+04
 0.20599998E+02  0.21279E+04
 0.20649998E+02 -0.78149E+04
 0.20699999E+02  0.37296E+04
 0.20749998E+02  0.15919E+05
 0.20799999E+02  0.73569E+04
 0.20849998E+02  0.12534E+04
 0.20899998E+02 -0.35664E+04
 0.20949999E+02 -0.41476E+04
 0.20999998E+02  0.89138E+04
 0.21049999E+02  0.12081E+05
 0.21099998E+02  0.23890E+04
 0.21149998E+02 -0.56709E+03
 0.21199999E+02  0.14623E+03
 0.21249998E+02  0.32773E+04
 0.21299999E+02  0.60397E+04
 0.21349998E+02  0.26576E+04
 0.21399998E+02 -0.25305E+03
 0.21449999E+02  0.84811E+04
 0.21499998E+02  0.11020E+05
 0.21549999E+02 -0.35951E+04
 0.21599998E+02  0.32670E+04
 0.21649998E+02  0.11886E+05
 0.21699999E+02  0.29070E+04
 0.21749998E+02 -0.97017E+03
 0.21799999E+02 -0.21144E+04
 0.21849998E+02  0.17601E+04
 0.21899998E+02  0.90328E+04
 0.21949999E+02  0.16108E+05
 0.21999998E+02  0.21662E+04
 0.22049999E+02 -0.81115E+04
 0.22099998E+02 -0.55212E+04
 0.22149998E+02  0.23767E+04
 0.22199999E+02  0.18700E+05
 0.22249998E+02  0.14491E+05
 0.22299999E+02 -0.32527E+04
 0.22349998E+02 -0.60790E+04
 0.22399998E+02  0.14189E+04
 0.22449999E+02  0.31553E+04
 0.22499998E+02  0.53320E+04
 0.22549999E+02 -0.97765E+03
 0.22599998E+02  0.66886E+04
 0.22649998E+02  0.12380E+05
 0.22699999E+02 -0.26522E+04
 0.22749998E+02  0.15882E+04
 0.22799999E+02  0.22435E+04
 0.22849998E+02  0.27830E+04
 0.22899998E+02  0.42483E+04
 0.22949999E+02  0.24784E+03
 0.22999998E+02  0.11695E+05
 0.23049999E+02  0.83651E+04
 0.23099998E+02 -0.11214E+04
 0.23149998E+02  0.36256E+04
 0.23199999E+02  0.92833E+04
 0.23249998E+02 -0.33038E+04
 0.23299999E+02  0.81316E+03
 0.23349998E+02  0.14762E+05
 0.23399998E+02  0.20179E+04
 0.23449999E+02 -0.34350E+04
 0.23499998E+02 -0.21012E+04
 0.23549999E+02  0.70862E+04
 0.23599998E+02  0.89375E+04
 0.23649998E+02  0.54740E+04
 0.23699999E+02  0.78270E+04
 0.23749998E+02  0.26214E+04
 0.23799999E+02  0.44056E+03
 0.23849998E+02 -0.22154E+04
 0.23899998E+02  0.23940E+04
 0.23949999E+02  0.45694E+04
 0.23999998E+02  0.85707E+04
 0.24049999E+02  0.88591E+04
 0.24099998E+02  0.20730E+04
 0.24149998E+02  0.58513E+04
 0.24199999E+02 -0.31675E+04
 0.24249998E+02 -0.56862E+04
 0.24299999E+02  0.56213E+04
 0.24349998E+02  0.52423E+04
 0.24399998E+02  0.17379E+04
 0.24449999E+02  0.83765E+04
 0.24499998E+02  0.81554E+04
 0.24549999E+02  0.26437E+04
 0.24599998E+02 -0.63713E+03
 0.24649998E+02 -0.60507E+03
 0.24699999E+02  0.64273E+04
 0.24749998E+02  0.18746E+04
 0.24799999E+02  0.36585E+04
 0.24849998E+02  0.98050E+04
 0.24899998E+02 -0.68305E+03
 0.24949999E+02  0.16066E+04
 0.24999998E+02  0.52117E+04
 0.25049999E+02  0.34399E+04
 0.25099998E+02  0.69650E+04
 0.25149998E+02  0.37213E+04
 0.25199999E+02  0.41059E+04
 0.25249998E+02 -0.28264E+03
 0.25299999E+02  0.30071E+04
 0.25349998E+02  0.68248E+04
 0.25399998E+02  0.11233E+04
 0.25449999E+02  0.11605E+04
 0.25499998E+02  0.76959E+04
 0.25549999E+02  0.69961E+04
 0.25599998E+02 -0.64731E+03
 0.25649998E+02  0.27102E+04
 0.25699999E+02  0.32575E+04
 0.25749998E+02  0.44207E+04
 0.25799999E+02  0.42693E+04
 0.25849998E+02  0.27207E+04
 0.25899998E+02  0.15697E+04
 0.25949999E+02  0.70738E+03
 0.25999998E+02  0.76465E+04
 0.26049999E+02  0.17601E+04
 0.26099998E+02  0.15845E+04
 0.26149998E+02  0.10396E+05
 0.26199999E+02 -0.34701E+04
 0.26249998E+02  0.40102E+04
 0.26299999E+02  0.50100E+04
 0.26349998E+02 -0.27694E+03
 0.26399998E+02  0.85787E+04
 0.26449999E+02  0.12444E+04
 0.26499998E+02  0.46674E+04
 0.26549999E+02  0.54939E+04
 0.26599998E+02  0.24877E+04
 0.26649998E+02  0.44599E+04
 0.26699999E+02  0.47061E+04
 0.26749998E+02  0.34082E+04
 0.26799999E+02 -0.37298E+03
 0.26849998E+02  0.41341E+04
 0.26899998E+02  0.61394E+04
 0.26949999E+02  0.17041E+04
 0.26999998E+02  0.37547E+04
 0.27049997E+02  0.16945E+04
 0.27099998E+02 -0.57724E+03
 0.27149998E+02  0.85639E+03
 0.27199999E+02  0.82824E+04
 0.27249998E+02  0.33226E+04
 0.27299997E+02  0.19823E+04
 0.27349998E+02  0.14207E+05
 0.27399998E+02  0.45219E+04
 0.27449999E+02 -0.19221E+04
 0.27499998E+02  0.20817E+04
 0.27549997E+02 -0.68733E+02
 0.27599998E+02  0.65720E+04
 0.27649998E+02  0.33227E+04
 0.27699999E+02  0.25360E+04
 0.27749998E+02  0.12596E+05
 0.27799997E+02  0.35793E+04
 0.27849998E+02 -0.60103E+03
 0.27899998E+02  0.47575E+03
 0.27949999E+02 -0.23638E+04
 0.27999998E+02  0.91061E+03
 0.28049997E+02  0.12431E+05
 0.28099998E+02  0.12038E+05
 0.28149998E+02  0.85263E+04
 0.28199999E+02  0.88626E+04
 0.28249998E+02 -0.23378E+04
 0.28299997E+02 -0.71311E+04
 0.28349998E+02 -0.11589E+04
 0.28399998E+02 -0.79579E+02
 0.28449999E+02  0.12168E+05
 0.28499998E+02  0.16047E+05
 0.28549997E+02 -0.44549E+02
 0.28599998E+02  0.58124E+03
 0.28649998E+02  0.51100E+03
 0.28699999E+02  0.23102E+03
 0.28749998E+02 -0.16800E+04
 0.28799997E+02 -0.47346E+04
 0.28849998E+02 -0.57871E+04
 0.28899998E+02  0.57302E+04
 0.28949999E+02  0.17849E+05
 0.28999998E+02  0.11477E+05
 0.29049997E+02  0.39344E+04
 0.29099998E+02  0.95705E+03
 0.29149998E+02  0.52121E+04
 0.29199999E+02  0.13762E+05
 0.29249998E+02  0.27904E+04
 0.29299997E+02 -0.75750E+04
 0.29349998E+02  0.27176E+04
 0.29399998E+02 -0.74840E+04
 0.29449999E+02 -0.19097E+04
 0.29499998E+02  0.14809E+05
 0.29549997E+02  0.11552E+05
 0.29599998E+02  0.73595E+04
 0.29649998E+02  0.59705E+04
 0.29699999E+02 -0.10507E+04
 0.29749998E+02  0.67324E+04
 0.29799997E+02  0.10735E+05
 0.29849998E+02 -0.49110E+04
 0.29899998E+02  0.15930E+04
 0.29949999E+02 -0.15596E+04
 0.29999998E+02  0.29087E+03
 0.30049999E+02  0.35187E+04
 0.30099998E+02  0.44863E+03
 0.30149998E+02  0.15161E+05
 0.30199997E+02  0.77971E+04
 0.30249996E+02 -0.58190E+04
 0.30299999E+02 -0.15811E+04
 0.30349998E+02  0.10283E+05
 0.30399998E+02  0.31253E+04
 0.30449997E+02  0.16449E+04
 0.30499996E+02  0.51501E+04
 0.30549999E+02 -0.11588E+03
 0.30599998E+02  0.23641E+03
 0.30649998E+02  0.56350E+04
 0.30699997E+02  0.41281E+04
 0.30749996E+02  0.32459E+04
 0.30799999E+02  0.14386E+05
 0.30849998E+02  0.99864E+04
 0.30899998E+02  0.34016E+04
 0.30949997E+02 -0.51149E+04
 0.30999996E+02  0.60419E+04
 0.31049999E+02  0.65650E+04
 0.31099998E+02 -0.10251E+05
 0.31149998E+02 -0.11911E+03
 0.31199997E+02  0.65897E+04
 0.31249996E+02  0.94769E+04
 0.31299999E+02  0.12915E+05
 0.31349998E+02  0.11288E+05
 0.31399998E+02  0.88839E+04
 0.31449997E+02 -0.58711E+04
 0.31499996E+02 -0.11943E+05
 0.31549999E+02 -0.84757E+04
 0.31599998E+02 -0.19082E+04
 0.31649998E+02  0.18071E+05
 0.31699997E+02  0.11716E+05
 0.31749996E+02 -0.17520E+04
 0.31799999E+02  0.95894E+04
 0.31849998E+02  0.10738E+05
 0.31899998E+02 -0.15538E+04
 0.31949997E+02 -0.91009E+03
 0.31999996E+02 -0.61346E+03
 0.32049999E+02 -0.49542E+04
 0.32099998E+02  0.26847E+04
 0.32149998E+02  0.99417E+04
 0.32199997E+02  0.11468E+05
 0.32249996E+02  0.66121E+04
 0.32299999E+02  0.48424E+04
 0.32349998E+02  0.14124E+05
 0.32399998E+02  0.77449E+04
 0.32449997E+02 -0.97650E+04
 0.32499996E+02 -0.83787E+04
 0.32549999E+02  0.44083E+03
 0.32599998E+02  0.80840E+03
 0.32649998E+02  0.98456E+03
 0.32699997E+02  0.84110E+04
 0.32749996E+02  0.16977E+05
 0.32799999E+02  0.92127E+04
 0.32849998E+02  0.44178E+04
 0.32899998E+02  0.44086E+04
 0.32949997E+02 -0.28504E+04
 0.32999996E+02 -0.44163E+04
 0.33049999E+02 -0.98410E+03
 0.33099998E+02  0.60731E+04
 0.33149998E+02  0.75950E+04
 0.33199997E+02  0.54946E+04
 0.33249996E+02  0.39454E+04
 0.33299999E+02 -0.23601E+03
 0.33349998E+02  0.27697E+04
 0.33399998E+02  0.10007E+05
 0.33449997E+02  0.90882E+04
 0.33499996E+02  0.74686E+04
 0.33549999E+02  0.23547E+04
 0.33599998E+02 -0.49012E+03
 0.33649998E+02  0.61657E+04
 0.33699997E+02  0.20385E+04
 0.33749996E+02 -0.29921E+04
 0.33799999E+02  0.22489E+04
 0.33849998E+02  0.51699E+04
 0.33899998E+02  0.54748E+04
 0.33949997E+02  0.28226E+04
 0.33999996E+02  0.39460E+04
 0.34049999E+02  0.64310E+04
 0.34099998E+02  0.31809E+04
 0.34149998E+02  0.12304E+04
 0.34199997E+02  0.10409E+04
 0.34249996E+02  0.39165E+04
 0.34299999E+02  0.35533E+04
 0.34349998E+02 -0.46631E+03
 0.34399998E+02  0.40253E+04
 0.34449997E+02  0.85007E+04
 0.34499996E+02  0.55506E+04
 0.34549999E+02  0.22707E+04
 0.34599998E+02  0.65904E+03
 0.34649998E+02  0.24862E+03
 0.34699997E+02  0.80396E+03
 0.34749996E+02  0.17267E+04
 0.34799999E+02  0.65175E+04
 0.34849998E+02  0.68072E+04
 0.34899998E+02  0.70573E+04
 0.34949997E+02  0.82480E+04
 0.34999996E+02  0.49354E+04
 0.35049999E+02  0.31694E+03
 0.35099998E+02  0.28974E+04
 0.35149998E+02  0.75813E+04
 0.35199997E+02  0.15208E+04
 0.35249996E+02  0.30233E+04
 0.35299999E+02  0.38479E+04
 0.35349998E+02 -0.35379E+04
 0.35399998E+02 -0.15917E+04
 0.35449997E+02  0.98618E+04
 0.35499996E+02  0.92498E+04
 0.35549999E+02  0.30188E+04
 0.35599998E+02  0.38477E+04
 0.35649998E+02  0.58281E+03
 0.35699997E+02 -0.11431E+04
 0.35749996E+02  0.16663E+03
 0.35799999E+02  0.10526E+04
 0.35849998E+02  0.37108E+04
 0.35899998E+02  0.67084E+04
 0.35949997E+02  0.98759E+04
 0.35999996E+02  0.62991E+04
 0.36049999E+02 -0.41824E+03
 0.36099998E+02  0.12455E+04
 0.36149998E+02  0.67399E+04
 0.36199997E+02  0.41623E+04
 0.36249996E+02  0.20628E+04
 0.36299999E+02  0.72286E+04
 0.36349998E+02  0.40329E+04
 0.36399998E+02  0.12666E+04
 0.36449997E+02  0.65183E+04
 0.36499996E+02  0.40818E+04
 0.36549999E+02  0.23410E+04
 0.36599998E+02  0.49681E+04
 0.36649998E+02  0.40426E+04
 0.36699997E+02  0.27510E+04
 0.36749996E+02  0.62495E+03
 0.36799999E+02  0.33932E+04
 0.36849998E+02  0.55316E+04
 0.36899998E+02  0.71695E+04
 0.36949997E+02  0.39841E+04
 0.36999996E+02  0.39033E+04
 0.37049999E+02 -0.12601E+03
 0.37099998E+02 -0.45654E+04
 0.37149998E+02  0.35089E+04
 0.37199997E+02  0.66066E+04
 0.37249996E+02  0.55813E+04
 0.37299999E+02  0.68809E+04
 0.37349998E+02  0.10871E+05
 0.37399998E+02  0.41641E+04
 0.37449997E+02  0.79243E+02
 0.37499996E+02 -0.26401E+04
 0.37549999E+02 -0.51478E+04
 0.37599998E+02  0.20808E+03
 0.37649998E+02  0.42854E+04
 0.37699997E+02  0.67312E+04
 0.37749996E+02  0.79457E+04
 0.37799999E+02  0.39228E+04
 0.37849998E+02  0.39605E+03
 0.37899998E+02  0.20041E+04
 0.37949997E+02  0.47166E+04
 0.37999996E+02  0.51007E+04
 0.38049999E+02  0.29052E+04
 0.38099998E+02  0.39726E+04
 0.38149998E+02  0.57659E+04
 0.38199997E+02  0.55408E+04
 0.38249996E+02  0.36409E+04
 0.38299999E+02  0.19909E+04
 0.38349998E+02  0.61854E+02
 0.38399998E+02  0.99344E+03
 0.38449997E+02  0.22615E+04
 0.38499996E+02  0.64428E+04
 0.38549999E+02  0.57598E+04
 0.38599998E+02 -0.45690E+04
 0.38649998E+02 -0.99352E+03
 0.38699997E+02  0.47580E+04
 0.38749996E+02  0.38819E+04
 0.38799999E+02  0.25495E+04
 0.38849998E+02  0.65448E+03
 0.38899998E+02  0.34603E+04
 0.38949997E+02  0.45089E+04
 0.38999996E+02  0.83864E+04
 0.39049999E+02  0.10600E+05
 0.39099998E+02  0.62068E+04
 0.39149998E+02  0.21585E+04
 0.39199997E+02  0.31534E+04
 0.39249996E+02  0.36764E+04
 0.39299999E+02  0.13551E+04
 0.39349998E+02  0.31153E+04
 0.39399998E+02  0.62987E+04
 0.39449997E+02  0.70343E+04
 0.39499996E+02  0.51221E+04
 0.39549999E+02  0.36269E+04
 0.39599998E+02 -0.54885E+03
 0.39649998E+02 -0.83689E+03
 0.39699997E+02  0.32629E+04
 0.39749996E+02  0.39405E+03
 0.39799999E+02  0.13920E+04
 0.39849998E+02  0.52191E+04
 0.39899998E+02  0.53309E+04
 0.39949997E+02  0.66691E+04
 0.39999996E+02  0.83739E+04
 0.40049999E+02  0.56794E+04
 0.40099998E+02  0.81264E+03
 0.40149998E+02  0.53319E+03
 0.40199997E+02  0.36178E+04
 0.40249996E+02  0.52471E+04
 0.40299999E+02  0.37605E+04
 0.40349998E+02  0.24896E+04
 0.40399998E+02  0.32499E+03
 0.40449997E+02  0.23566E+04
 0.40499996E+02  0.61423E+04
 0.40549999E+02  0.81847E+04
 0.40599998E+02  0.66327E+04
 0.40649998E+02  0.13154E+04
 0.40699997E+02  0.14222E+04
 0.40749996E+02  0.30839E+04
 0.40799999E+02  0.56390E+04
 0.40849998E+02  0.95502E+04
 0.40899998E+02  0.76981E+04
 0.40949997E+02  0.20688E+04
 0.40999996E+02 -0.20634E+04
 0.41049999E+02 -0.13362E+04
 0.41099998E+02  0.32792E+04
 0.41149998E+02  0.54445E+04
 0.41199997E+02  0.56730E+04
 0.41249996E+02  0.38843E+04
 0.41299999E+02  0.70393E+03
 0.41349998E+02  0.52949E+03
 0.41399998E+02  0.25710E+04
 0.41449997E+02  0.45007E+04
 0.41499996E+02  0.35166E+04
 0.41549999E+02  0.34388E+04
 0.41599998E+02  0.35516E+04
 0.41649998E+02  0.64471E+04
 0.41699997E+02  0.93895E+04
 0.41749996E+02  0.72003E+04
 0.41799999E+02  0.38273E+04
 0.41849998E+02  0.13120E+04
 0.41899998E+02  0.25734E+03
 0.41949997E+02  0.40845E+03
 0.41999996E+02  0.95525E+03
 0.42049999E+02  0.23457E+04
 0.42099998E+02  0.42308E+04
 0.42149998E+02  0.46339E+04
 0.42199997E+02  0.59569E+04
 0.42249996E+02  0.53007E+04
 0.42299999E+02  0.21886E+04
 0.42349998E+02 -0.43468E+03
 0.42399998E+02 -0.10315E+04
 0.42449997E+02  0.76101E+03
 0.42499996E+02  0.47191E+04
 0.42549999E+02  0.82517E+04
 0.42599998E+02  0.75272E+04
 0.42649998E+02  0.46983E+04
 0.42699997E+02  0.34964E+04
 0.42749996E+02  0.38276E+04
 0.42799995E+02  0.35623E+04
 0.42849998E+02  0.15076E+04
 0.42899998E+02  0.14970E+04
 0.42949997E+02  0.23971E+04
 0.42999996E+02  0.34548E+04
 0.43049995E+02  0.43983E+04
 0.43099998E+02  0.50843E+04
 0.43149998E+02  0.42124E+04
 0.43199997E+02  0.26466E+04
 0.43249996E+02  0.41203E+04
 0.43299995E+02  0.56589E+04
 0.43349998E+02  0.52111E+04
 0.43399998E+02  0.33056E+04
 0.43449997E+02  0.57192E+03
 0.43499996E+02  0.11615E+04
 0.43549995E+02  0.30018E+04
 0.43599998E+02  0.34421E+04
 0.43649998E+02  0.50899E+04
 0.43699997E+02  0.46626E+04
 0.43749996E+02  0.47803E+04
 0.43799995E+02  0.30082E+04
 0.43849998E+02  0.64960E+03
 0.43899998E+02  0.11991E+04
 0.43949997E+02  0.40351E+04
 0.43999996E+02  0.69907E+04
 0.44049995E+02  0.65568E+04
 0.44099998E+02  0.40065E+04
 0.44149998E+02  0.21621E+04
 0.44199997E+02  0.23378E+04
 0.44249996E+02  0.20345E+04
 0.44299995E+02  0.25611E+04
 0.44349998E+02  0.48327E+04
 0.44399998E+02  0.46368E+04
 0.44449997E+02  0.41960E+04
 0.44499996E+02  0.53436E+04
 0.44549995E+02  0.51723E+04
 0.44599998E+02  0.32699E+04
 0.44649998E+02  0.16425E+04
 0.44699997E+02  0.25075E+04
 0.44749996E+02  0.13828E+04
 0.44799995E+02  0.15166E+04
 0.44849998E+02  0.32452E+04
 0.44899998E+02  0.43663E+04
 0.44949997E+02  0.64696E+04
 0.44999996E+02  0.73939E+04
 0.45049995E+02  0.50384E+04
 0.45099998E+02  0.20086E+04
 0.45149998E+02  0.30387E+04
 0.45199997E+02  0.37628E+04
 0.45249996E+02  0.33841E+04
 0.45299995E+02  0.38741E+04
 0.45349998E+02  0.33792E+04
 0.45399998E+02  0.25889E+04
 0.45449997E+02  0.21712E+04
 0.45499996E+02  0.23858E+04
 0.45549995E+02  0.25672E+04
 0.45599998E+02  0.37521E+04
 0.45649998E+02  0.52819E+04
 0.45699997E+02  0.39815E+04
 0.45749996E+02  0.19455E+04
 0.45799995E+02  0.83170E+03
 0.45849998E+02  0.19126E+04
 0.45899998E+02  0.41326E+04
 0.45949997E+02  0.65298E+04
 0.45999996E+02  0.72299E+04
 0.46049995E+02  0.55722E+04
 0.46099998E+02  0.53188E+04
 0.46149998E+02  0.46101E+04
 0.46199997E+02  0.10889E+04
 0.46249996E+02  0.15970E+03
 0.46299995E+02  0.13026E+04
 0.46349998E+02  0.28635E+04
 0.46399998E+02  0.37148E+04
 0.46449997E+02  0.45820E+04
 0.46499996E+02  0.50781E+04
 0.46549995E+02  0.37093E+04
 0.46599998E+02  0.56496E+04
 0.46649998E+02  0.52612E+04
 0.46699997E+02  0.24210E+04
 0.46749996E+02  0.53672E+03
 0.46799995E+02  0.13236E+04
 0.46849998E+02  0.28657E+04
 0.46899998E+02  0.46819E+04
 0.46949997E+02  0.61553E+04
 0.46999996E+02  0.56881E+04
 0.47049995E+02  0.31389E+04
 0.47099998E+02  0.16913E+04
 0.47149998E+02  0.20757E+04
 0.47199997E+02  0.13174E+04
 0.47249996E+02  0.26075E+04
 0.47299995E+02  0.46739E+04
 0.47349998E+02  0.67910E+04
 0.47399998E+02  0.58741E+04
 0.47449997E+02  0.46503E+04
 0.47499996E+02  0.22938E+04
 0.47549995E+02  0.13571E+04
 0.47599998E+02  0.22479E+04
 0.47649998E+02  0.25322E+04
 0.47699997E+02  0.39830E+04
 0.47749996E+02  0.39823E+04
 0.47799995E+02  0.53243E+04
 0.47849998E+02  0.50099E+04
 0.47899998E+02  0.34651E+04
 0.47949997E+02  0.31849E+04
 0.47999996E+02  0.20197E+04
 0.48049995E+02  0.17315E+04
 0.48099998E+02  0.24919E+04
 0.48149998E+02  0.36796E+04
 0.48199997E+02  0.45561E+04
 0.48249996E+02  0.44911E+04
 0.48299995E+02  0.34141E+04
 0.48349998E+02  0.21687E+04
 0.48399998E+02  0.16388E+04
 0.48449997E+02  0.15811E+04
 0.48499996E+02  0.30320E+04
 0.48549995E+02  0.48688E+04
 0.48599998E+02  0.61245E+04
 0.48649998E+02  0.62202E+04
 0.48699997E+02  0.53776E+04
 0.48749996E+02  0.45325E+04
 0.48799995E+02  0.29314E+04
 0.48849998E+02  0.25983E+04
 0.48899998E+02  0.37390E+04
 0.48949997E+02  0.46755E+04
 0.48999996E+02  0.54105E+04
 0.49049995E+02  0.39402E+04
 0.49099998E+02  0.36498E+04
 0.49149998E+02  0.34493E+04
 0.49199997E+02  0.20183E+04
 0.49249996E+02  0.11189E+04
 0.49299995E+02  0.73493E+03
 0.49349998E+02  0.32995E+04
 0.49399998E+02  0.51103E+04
 0.49449997E+02  0.47640E+04
 0.49499996E+02  0.37946E+04
 0.49549995E+02  0.34850E+04
 0.49599998E+02  0.33144E+04
 0.49649998E+02  0.27854E+04
 0.49699997E+02  0.21212E+04
 0.49749996E+02  0.23337E+04
 0.49799995E+02  0.27766E+04
 0.49849998E+02  0.26440E+04
 0.49899998E+02  0.30230E+04
 0.49949997E+02  0.32093E+04
 0.49999996E+02  0.43997E+04
 0.50049995E+02  0.42832E+04
 0.50099998E+02  0.35836E+04
 0.50149998E+02  0.42736E+04
 0.50199997E+02  0.41323E+04
 0.50249996E+02  0.42998E+04
 0.50299995E+02  0.42753E+04
 0.50349998E+02  0.36927E+04
 0.50399998E+02  0.39507E+04
 0.50449997E+02  0.48448E+04
 0.50499996E+02  0.45859E+04
 0.50549995E+02  0.43813E+04
 0.50599998E+02  0.40654E+04
 0.50649998E+02  0.32057E+04
 0.50699997E+02  0.32926E+04
 0.50749996E+02  0.29446E+04
 0.50799995E+02  0.18843E+04
 0.50849998E+02  0.28333E+04
 0.50899998E+02  0.39015E+04
 0.50949997E+02  0.34770E+04
 0.50999996E+02  0.33040E+04
 0.51049995E+02  0.30587E+04
 0.51099998E+02  0.25372E+04
 0.51149998E+02  0.25568E+04
 0.51199997E+02  0.35943E+04
 0.51249996E+02  0.34166E+04
 0.51299995E+02  0.27696E+04
 0.51349998E+02  0.36310E+04
 0.51399998E+02  0.41769E+04
 0.51449997E+02  0.38516E+04
 0.51499996E+02  0.33379E+04
 0.51549995E+02  0.30589E+04
 0.51599998E+02  0.29497E+04
 0.51649998E+02  0.34416E+04
 0.51699997E+02  0.44807E+04
 0.51749996E+02  0.40293E+04
 0.51799995E+02  0.41473E+04
 0.51849998E+02  0.30393E+04
 0.51899998E+02  0.18265E+04
 0.51949997E+02  0.28417E+04
 0.51999996E+02  0.34494E+04
 0.52049995E+02  0.39089E+04
 0.52099998E+02  0.38784E+04
 0.52149998E+02  0.36990E+04
 0.52199997E+02  0.38153E+04
 0.52249996E+02  0.34768E+04
 0.52299995E+02  0.28997E+04
 0.52349998E+02  0.28233E+04
 0.52399998E+02  0.21358E+04
 0.52449997E+02  0.26880E+04
 0.52499996E+02  0.36887E+04
 0.52549995E+02  0.44785E+04
 0.52599998E+02  0.52558E+04
 0.52649998E+02  0.47510E+04
 0.52699997E+02  0.51005E+04
 0.52749996E+02  0.50840E+04
 0.52799995E+02  0.49289E+04
 0.52849998E+02  0.50238E+04
 0.52899998E+02  0.44893E+04
 0.52949997E+02  0.30557E+04
 0.52999996E+02  0.18554E+04
 0.53049995E+02  0.12899E+04
 0.53099998E+02  0.17449E+04
 0.53149998E+02  0.31220E+04
 0.53199997E+02  0.38571E+04
 0.53249996E+02  0.42549E+04
 0.53299995E+02  0.45646E+04
 0.53349998E+02  0.45371E+04
 0.53399998E+02  0.42142E+04
 0.53449997E+02  0.44590E+04
 0.53499996E+02  0.44346E+04
 0.53549995E+02  0.40972E+04
 0.53599998E+02  0.37537E+04
 0.53649998E+02  0.33618E+04
 0.53699997E+02  0.26878E+04
 0.53749996E+02  0.27181E+04
 0.53799995E+02  0.36502E+04
 0.53849998E+02  0.38263E+04
 0.53899998E+02  0.37422E+04
 0.53949997E+02  0.29801E+04
 0.53999996E+02  0.21444E+04
 0.54049995E+02  0.27035E+04
 0.54099998E+02  0.28311E+04
 0.54149998E+02  0.26340E+04
 0.54199997E+02  0.35369E+04
 0.54249996E+02  0.38959E+04
 0.54299995E+02  0.41839E+04
 0.54349998E+02  0.37445E+04
 0.54399998E+02  0.24530E+04
 0.54449997E+02  0.35386E+04
 0.54499996E+02  0.43250E+04
 0.54549995E+02  0.31163E+04
 0.54599998E+02  0.27631E+04
 0.54649998E+02  0.34267E+04
 0.54699997E+02  0.31731E+04
 0.54749996E+02  0.28390E+04
 0.54799995E+02  0.38923E+04
 0.54849998E+02  0.50294E+04
 0.54899998E+02  0.47614E+04
 0.54949997E+02  0.34356E+04
 0.54999996E+02  0.30708E+04
 0.55049995E+02  0.23933E+04
 0.55099998E+02  0.22232E+04
 0.55149998E+02  0.26908E+04
 0.55199997E+02  0.32445E+04
 0.55249996E+02  0.42011E+04
 0.55299995E+02  0.39766E+04
 0.55349998E+02  0.43478E+04
 0.55399998E+02  0.50184E+04
 0.55449997E+02  0.49482E+04
 0.55499996E+02  0.43719E+04
 0.55549995E+02  0.37928E+04
 0.55599998E+02  0.37302E+04
 0.55649998E+02  0.37729E+04
 0.55699997E+02  0.39755E+04
 0.55749996E+02  0.40658E+04
 0.55799995E+02  0.38526E+04
 0.55849995E+02  0.29734E+04
 0.55899998E+02  0.18779E+04
 0.55949997E+02  0.24772E+04
 0.55999996E+02  0.33297E+04
 0.56049995E+02  0.31598E+04
 0.56099995E+02  0.37775E+04
 0.56149998E+02  0.35152E+04
 0.56199997E+02  0.34611E+04
 0.56249996E+02  0.42328E+04
 0.56299995E+02  0.33047E+04
 0.56349995E+02  0.24804E+04
 0.56399998E+02  0.26342E+04
 0.56449997E+02  0.32339E+04
 0.56499996E+02  0.31652E+04
 0.56549995E+02  0.36260E+04
 0.56599995E+02  0.39115E+04
 0.56649998E+02  0.30082E+04
 0.56699997E+02  0.25391E+04
 0.56749996E+02  0.31753E+04
 0.56799995E+02  0.36309E+04
 0.56849995E+02  0.39197E+04
 0.56899998E+02  0.46790E+04
 0.56949997E+02  0.45628E+04
 0.56999996E+02  0.44392E+04
 0.57049995E+02  0.40990E+04
 0.57099995E+02  0.32926E+04
 0.57149998E+02  0.27592E+04
 0.57199997E+02  0.28603E+04
 0.57249996E+02  0.25947E+04
 0.57299995E+02  0.27869E+04
 0.57349995E+02  0.33111E+04
 0.57399998E+02  0.34651E+04
 0.57449997E+02  0.38224E+04
 0.57499996E+02  0.37026E+04
 0.57549995E+02  0.35643E+04
 0.57599995E+02  0.36419E+04
 0.57649998E+02  0.36839E+04
 0.57699997E+02  0.34342E+04
 0.57749996E+02  0.32656E+04
 0.57799995E+02  0.30165E+04
 0.57849995E+02  0.34605E+04
 0.57899998E+02  0.41291E+04
 0.57949997E+02  0.43245E+04
 0.57999996E+02  0.39113E+04
 0.58049995E+02  0.35682E+04
 0.58099995E+02  0.38272E+04
 0.58149998E+02  0.42248E+04
 0.58199997E+02  0.48520E+04
 0.58249996E+02  0.45841E+04
 0.58299995E+02  0.42559E+04
 0.58349995E+02  0.34751E+04
 0.58399998E+02  0.25144E+04
 0.58449997E+02  0.21458E+04
 0.58499996E+02  0.25255E+04
 0.58549995E+02  0.32491E+04
 0.58599995E+02  0.34251E+04
 0.58649998E+02  0.28892E+04
 0.58699997E+02  0.23511E+04
 0.58749996E+02  0.27872E+04
 0.58799995E+02  0.32238E+04
 0.58849995E+02  0.32728E+04
 0.58899998E+02  0.32748E+04
 0.58949997E+02  0.32008E+04
 0.58999996E+02  0.34692E+04
 0.59049995E+02  0.41200E+04
 0.59099995E+02  0.46857E+04
 0.59149998E+02  0.51503E+04
 0.59199997E+02  0.45724E+04
 0.59249996E+02  0.34686E+04
 0.59299995E+02  0.28358E+04
 0.59349995E+02  0.33727E+04
 0.59399998E+02  0.43428E+04
 0.59449997E+02  0.43082E+04
 0.59499996E+02  0.40114E+04
 0.59549995E+02  0.42527E+04
 0.59599995E+02  0.37538E+04
 0.59649998E+02  0.29829E+04
 0.59699997E+02  0.30238E+04
 0.59749996E+02  0.35211E+04
 0.59799995E+02  0.41218E+04
 0.59849995E+02  0.42923E+04
 0.59899998E+02  0.36635E+04
 0.59949997E+02  0.27686E+04
 0.59999996E+02  0.27454E+04
 0.60049995E+02  0.28283E+04
 0.60099995E+02  0.29333E+04
 0.60149998E+02  0.32422E+04
 0.60199997E+02  0.29990E+04
 0.60249996E+02  0.21080E+04
 0.60299995E+02  0.22537E+04
 0.60349995E+02  0.26927E+04
 0.60399998E+02  0.31950E+04
 0.60449997E+02  0.31954E+04
 0.60499996E+02  0.33653E+04
 0.60549995E+02  0.43465E+04
 0.60599995E+02  0.46955E+04
 0.60649998E+02  0.47046E+04
 0.60699997E+02  0.36936E+04
 0.60749996E+02  0.28560E+04
 0.60799995E+02  0.29985E+04
 0.60849995E+02  0.35664E+04
 0.60899998E+02  0.44483E+04
 0.60949997E+02  0.51774E+04
 0.60999996E+02  0.47838E+04
 0.61049995E+02  0.40675E+04
 0.61099995E+02  0.35848E+04
 0.61149998E+02  0.31178E+04
 0.61199997E+02  0.29977E+04
 0.61249996E+02  0.34288E+04
 0.61299995E+02  0.35999E+04
 0.61349995E+02  0.30778E+04
 0.61399998E+02  0.30772E+04
 0.61449997E+02  0.34644E+04
 0.61499996E+02  0.36091E+04
 0.61549995E+02  0.38557E+04
 0.61599995E+02  0.41475E+04
 0.61649998E+02  0.38337E+04
 0.61699997E+02  0.30256E+04
 0.61749996E+02  0.23227E+04
 0.61799995E+02  0.24053E+04
 0.61849995E+02  0.27442E+04
 0.61899998E+02  0.23388E+04
 0.61949997E+02  0.24408E+04
 0.61999996E+02  0.35121E+04
 0.62049995E+02  0.44070E+04
 0.62099998E+02  0.47477E+04
 0.62149994E+02  0.44787E+04
 0.62199997E+02  0.37079E+04
 0.62249992E+02  0.28204E+04
 0.62299995E+02  0.27924E+04
 0.62349998E+02  0.35967E+04
 0.62399994E+02  0.39277E+04
 0.62449997E+02  0.41208E+04
 0.62499992E+02  0.44183E+04
 0.62549995E+02  0.43053E+04
 0.62599998E+02  0.44705E+04
 0.62649994E+02  0.45621E+04
 0.62699997E+02  0.39750E+04
 0.62749992E+02  0.39745E+04
 0.62799995E+02  0.40495E+04
 0.62849998E+02  0.38902E+04
 0.62899994E+02  0.44073E+04
 0.62949997E+02  0.38264E+04
 0.62999992E+02  0.28316E+04
 0.63049995E+02  0.23579E+04
 0.63099998E+02  0.23031E+04
 0.63149994E+02  0.28621E+04
 0.63199997E+02  0.27160E+04
 0.63249992E+02  0.28992E+04
 0.63299995E+02  0.36682E+04
 0.63349998E+02  0.35992E+04
 0.63399994E+02  0.32487E+04
 0.63449997E+02  0.31281E+04
 0.63499992E+02  0.25814E+04
 0.63549995E+02  0.22828E+04
 0.63599998E+02  0.22814E+04
 0.63649994E+02  0.25769E+04
 0.63699997E+02  0.34430E+04
 0.63749992E+02  0.37640E+04
 0.63799995E+02  0.36469E+04
 0.63849998E+02  0.31847E+04
 0.63899994E+02  0.27422E+04
 0.63949997E+02  0.30049E+04
 0.63999992E+02  0.37563E+04
 0.64049995E+02  0.44362E+04
 0.64099998E+02  0.46862E+04
 0.64149994E+02  0.46069E+04
 0.64199997E+02  0.44321E+04
 0.64249992E+02  0.43843E+04
 0.64299995E+02  0.43998E+04
 0.64349998E+02  0.42922E+04
 0.64399994E+02  0.42215E+04
 0.64449997E+02  0.36078E+04
 0.64499992E+02  0.28497E+04
 0.64549995E+02  0.27590E+04
 0.64599998E+02  0.26862E+04
 0.64649994E+02  0.32525E+04
 0.64699997E+02  0.39211E+04
 0.64749992E+02  0.42589E+04
 0.64799995E+02  0.42975E+04
 0.64849998E+02  0.38306E+04
 0.64899994E+02  0.34967E+04
 0.64949997E+02  0.33082E+04
 0.64999992E+02  0.27607E+04
 0.65049995E+02  0.19948E+04
 0.65099998E+02  0.20814E+04
 0.65149994E+02  0.29419E+04
 0.65199997E+02  0.40723E+04
 0.65249992E+02  0.44990E+04
 0.65299995E+02  0.41260E+04
 0.65349998E+02  0.40441E+04
 0.65399994E+02  0.37715E+04
 0.65449997E+02  0.33816E+04
 0.65499992E+02  0.34609E+04
 0.65549995E+02  0.33594E+04
 0.65599998E+02  0.30139E+04
 0.65649994E+02  0.30260E+04
 0.65699997E+02  0.34107E+04
 0.65749992E+02  0.35601E+04
 0.65799995E+02  0.36335E+04
 0.65849998E+02  0.40263E+04
 0.65899994E+02  0.41097E+04
 0.65949997E+02  0.40023E+04
 0.65999992E+02  0.36251E+04
 0.66049995E+02  0.32357E+04
 0.66099998E+02  0.30319E+04
 0.66149994E+02  0.28177E+04
 0.66199997E+02  0.30343E+04
 0.66249992E+02  0.31918E+04
 0.66299995E+02  0.32877E+04
 0.66349998E+02  0.37888E+04
 0.66399994E+02  0.42484E+04
 0.66449997E+02  0.38998E+04
 0.66499992E+02  0.39281E+04
 0.66549995E+02  0.43307E+04
 0.66599998E+02  0.39286E+04
 0.66649994E+02  0.35653E+04
 0.66699997E+02  0.36011E+04
 0.66749992E+02  0.37064E+04
 0.66799995E+02  0.37596E+04
 0.66849998E+02  0.34658E+04
 0.66899994E+02  0.33636E+04
 0.66949997E+02  0.36710E+04
 0.66999992E+02  0.35651E+04
 0.67049995E+02  0.31127E+04
 0.67099998E+02  0.31936E+04
 0.67149994E+02  0.33406E+04
 0.67199997E+02  0.27848E+04
 0.67249992E+02  0.30204E+04
 0.67299995E+02  0.35631E+04
 0.67349998E+02  0.35106E+04
 0.67399994E+02  0.37501E+04
 0.67449997E+02  0.40150E+04
 0.67499992E+02  0.38268E+04
 0.67549995E+02  0.35461E+04
 0.67599998E+02  0.34560E+04
 0.67649994E+02  0.34585E+04
 0.67699997E+02  0.32708E+04
 0.67749992E+02  0.31744E+04
 0.67799995E+02  0.30900E+04
 0.67849998E+02  0.29462E+04
 0.67899994E+02  0.32515E+04
 0.67949997E+02  0.33145E+04
 0.67999992E+02  0.33024E+04
 0.68049995E+02  0.33824E+04
 0.68099998E+02  0.35675E+04
 0.68149994E+02  0.38109E+04
 0.68199997E+02  0.37641E+04
 0.68249992E+02  0.36919E+04
 0.68299995E+02  0.35652E+04
 0.68349998E+02  0.32719E+04
 0.68399994E+02  0.31013E+04
 0.68449997E+02  0.32794E+04
 0.68499992E+02  0.37550E+04
 0.68549995E+02  0.41806E+04
 0.68599998E+02  0.42370E+04
 0.68649994E+02  0.39799E+04
 0.68699997E+02  0.35194E+04
 0.68749992E+02  0.34164E+04
 0.68799995E+02  0.32905E+04
 0.68849998E+02  0.32314E+04
 0.68899994E+02  0.36103E+04
 0.68949997E+02  0.42175E+04
 0.68999992E+02  0.49769E+04
 0.69049995E+02  0.50509E+04
 0.69099998E+02  0.46564E+04
 0.69149994E+02  0.38468E+04
 0.69199997E+02  0.29451E+04
 0.69249992E+02  0.29185E+04
 0.69299995E+02  0.34597E+04
 0.69349998E+02  0.38070E+04
 0.69399994E+02  0.37301E+04
 0.69449997E+02  0.35264E+04
 0.69499992E+02  0.32270E+04
 0.69549995E+02  0.29902E+04
 0.69599998E+02  0.28223E+04
 0.69649994E+02  0.27159E+04
 0.69699997E+02  0.27277E+04
 0.69749992E+02  0.28977E+04
 0.69799995E+02  0.31246E+04
 0.69849998E+02  0.33327E+04
 0.69899994E+02  0.32769E+04
 0.69949997E+02  0.32763E+04
 0.69999992E+02  0.34384E+04
 0.70049995E+02  0.33309E+04
 0.70099998E+02  0.33319E+04
 0.70149994E+02  0.31952E+04
 0.70199997E+02  0.31884E+04
 0.70249992E+02  0.35887E+04
 0.70299995E+02  0.41210E+04
 0.70349998E+02  0.42787E+04
 0.70399994E+02  0.38532E+04
 0.70449997E+02  0.36303E+04
 0.70499992E+02  0.35230E+04
 0.70549995E+02  0.31617E+04
 0.70599998E+02  0.30953E+04
 0.70649994E+02  0.35412E+04
 0.70699997E+02  0.39148E+04
 0.70749992E+02  0.41184E+04
 0.70799995E+02  0.40802E+04
 0.70849998E+02  0.38755E+04
 0.70899994E+02  0.38590E+04
 0.70949997E+02  0.37151E+04
 0.70999992E+02  0.36678E+04
 0.71049995E+02  0.39365E+04
 0.71099998E+02  0.42044E+04
 0.71149994E+02  0.39615E+04
 0.71199997E+02  0.34754E+04
 0.71249992E+02  0.33282E+04
 0.71299995E+02  0.30774E+04
 0.71349998E+02  0.31298E+04
 0.71399994E+02  0.35297E+04
 0.71449997E+02  0.35487E+04
 0.71499992E+02  0.33703E+04
 0.71549995E+02  0.32476E+04
 0.71599998E+02  0.32747E+04
 0.71649994E+02  0.34848E+04
 0.71699997E+02  0.35378E+04
 0.71749992E+02  0.33831E+04
 0.71799995E+02  0.31822E+04
 0.71849998E+02  0.31286E+04
 0.71899994E+02  0.33523E+04
 0.71949997E+02  0.35406E+04
 0.71999992E+02  0.35589E+04
 0.72049995E+02  0.35093E+04
 0.72099998E+02  0.33091E+04
 0.72149994E+02  0.29838E+04
 0.72199997E+02  0.31209E+04
 0.72249992E+02  0.33658E+04
 0.72299995E+02  0.33114E+04
 0.72349998E+02  0.35392E+04
 0.72399994E+02  0.37081E+04
 0.72449997E+02  0.38829E+04
 0.72499992E+02  0.40001E+04
 0.72549995E+02  0.39305E+04
 0.72599998E+02  0.36271E+04
 0.72649994E+02  0.30975E+04
 0.72699997E+02  0.30468E+04
 0.72749992E+02  0.34325E+04
 0.72799995E+02  0.37702E+04
 0.72849998E+02  0.39614E+04
 0.72899994E+02  0.41946E+04
 0.72949997E+02  0.40554E+04
 0.72999992E+02  0.35921E+04
 0.73049995E+02  0.34384E+04
 0.73099998E+02  0.36074E+04
 0.73149994E+02  0.37333E+04
 0.73199997E+02  0.37729E+04
 0.73249992E+02  0.35737E+04
 0.73299995E+02  0.36556E+04
 0.73349998E+02  0.39647E+04
 0.73399994E+02  0.39531E+04
 0.73449997E+02  0.39517E+04
 0.73499992E+02  0.38119E+04
 0.73549995E+02  0.34291E+04
 0.73599998E+02  0.33742E+04
 0.73649994E+02  0.38031E+04
 0.73699997E+02  0.39487E+04
 0.73749992E+02  0.37673E+04
 0.73799995E+02  0.34492E+04
 0.73849998E+02  0.28626E+04
 0.73899994E+02  0.26070E+04
 0.73949997E+02  0.29000E+04
 0.73999992E+02  0.31851E+04
 0.74049995E+02  0.32843E+04
 0.74099998E+02  0.34677E+04
 0.74149994E+02  0.37694E+04
 0.74199997E+02  0.36636E+04
 0.74249992E+02  0.33288E+04
 0.74299995E+02  0.32784E+04
 0.74349998E+02  0.34893E+04
 0.74399994E+02  0.34371E+04
 0.74449997E+02  0.33248E+04
 0.74499992E+02  0.35445E+04
 0.74549995E+02  0.36401E+04
 0.74599998E+02  0.36887E+04
 0.74649994E+02  0.34531E+04
 0.74699997E+02  0.31996E+04
 0.74749992E+02  0.35141E+04
 0.74799995E+02  0.36920E+04
 0.74849998E+02  0.36152E+04
 0.74899994E+02  0.35704E+04
 0.74949997E+02  0.35660E+04
 0.74999992E+02  0.34522E+04
 0.75049995E+02  0.33313E+04
 0.75099998E+02  0.33127E+04
 0.75149994E+02  0.32882E+04
 0.75199997E+02  0.33228E+04
 0.75249992E+02  0.32915E+04
 0.75299995E+02  0.34049E+04
 0.75349998E+02  0.34767E+04
 0.75399994E+02  0.35708E+04
 0.75449997E+02  0.37159E+04
 0.75499992E+02  0.37286E+04
 0.75549995E+02  0.37670E+04
 0.75599998E+02  0.40048E+04
 0.75649994E+02  0.40931E+04
 0.75699997E+02  0.37472E+04
 0.75749992E+02  0.36265E+04
 0.75799995E+02  0.37901E+04
 0.75849998E+02  0.39050E+04
 0.75899994E+02  0.38886E+04
 0.75949997E+02  0.37623E+04
 0.75999992E+02  0.35497E+04
 0.76049995E+02  0.32664E+04
 0.76099998E+02  0.31349E+04
 0.76149994E+02  0.33784E+04
 0.76199997E+02  0.36971E+04
 0.76249992E+02  0.37441E+04
 0.76299995E+02  0.36310E+04
 0.76349998E+02  0.35482E+04
 0.76399994E+02  0.33345E+04
 0.76449997E+02  0.31783E+04
 0.76499992E+02  0.33337E+04
 0.76549995E+02  0.35232E+04
 0.76599998E+02  0.35893E+04
 0.76649994E+02  0.36069E+04
 0.76699997E+02  0.35791E+04
 0.76749992E+02  0.33648E+04
 0.76799995E+02  0.31734E+04
 0.76849998E+02  0.30333E+04
 0.76899994E+02  0.28828E+04
 0.76949997E+02  0.29448E+04
 0.76999992E+02  0.31915E+04
 0.77049995E+02  0.33040E+04
 0.77099998E+02  0.32480E+04
 0.77149994E+02  0.34515E+04
 0.77199997E+02  0.37688E+04
 0.77249992E+02  0.37450E+04
 0.77299995E+02  0.36211E+04
 0.77349998E+02  0.35127E+04
 0.77399994E+02  0.34198E+04
 0.77449997E+02  0.37324E+04
 0.77499992E+02  0.40053E+04
 0.77549995E+02  0.39902E+04
 0.77599998E+02  0.39812E+04
 0.77649994E+02  0.38878E+04
 0.77699997E+02  0.37195E+04
 0.77749992E+02  0.36092E+04
 0.77799995E+02  0.36132E+04
 0.77849998E+02  0.36474E+04
 0.77899994E+02  0.38126E+04
 0.77949997E+02  0.38640E+04
 0.77999992E+02  0.38206E+04
 0.78049995E+02  0.37185E+04
 0.78099998E+02  0.35353E+04
 0.78149994E+02  0.34779E+04
 0.78199997E+02  0.36286E+04
 0.78249992E+02  0.36898E+04
 0.78299995E+02  0.36757E+04
 0.78349998E+02  0.37015E+04
 0.78399994E+02  0.36465E+04
 0.78449997E+02  0.37286E+04
 0.78499992E+02  0.38168E+04
 0.78549995E+02  0.38727E+04
 0.78599998E+02  0.37720E+04
 0.78649994E+02  0.38087E+04
 0.78699997E+02  0.39575E+04
 0.78749992E+02  0.36080E+04
 0.78799995E+02  0.30849E+04
 0.78849998E+02  0.28916E+04
 0.78899994E+02  0.30128E+04
 0.78949997E+02  0.32005E+04
 0.78999992E+02  0.31778E+04
 0.79049995E+02  0.32984E+04
 0.79099998E+02  0.35849E+04
 0.79149994E+02  0.36445E+04
 0.79199997E+02  0.34752E+04
 0.79249992E+02  0.32973E+04
 0.79299995E+02  0.32849E+04
 0.79349998E+02  0.31752E+04
 0.79399994E+02  0.31457E+04
 0.79449997E+02  0.32940E+04
 0.79499992E+02  0.32226E+04
 0.79549995E+02  0.31649E+04
 0.79599998E+02  0.33694E+04
 0.79649994E+02  0.34493E+04
 0.79699997E+02  0.32740E+04
 0.79749992E+02  0.30856E+04
 0.79799995E+02  0.29886E+04
 0.79849998E+02  0.31975E+04
 0.79899994E+02  0.36176E+04
 0.79949997E+02  0.38628E+04
 0.79999992E+02  0.39288E+04
 0.80049995E+02  0.39067E+04
 0.80099998E+02  0.39381E+04
 0.80149994E+02  0.38844E+04
 0.80199997E+02  0.36020E+04
 0.80249992E+02  0.32602E+04
 0.80299995E+02  0.32511E+04
 0.80349998E+02  0.35442E+04
 0.80399994E+02  0.37711E+04
 0.80449997E+02  0.39232E+04
 0.80499992E+02  0.39513E+04
 0.80549995E+02  0.37847E+04
 0.80599998E+02  0.36190E+04
 0.80649994E+02  0.36300E+04
 0.80699997E+02  0.39291E+04
 0.80749992E+02  0.44358E+04
 0.80799995E+02  0.45391E+04
 0.80849998E+02  0.42220E+04
 0.80899994E+02  0.37860E+04
 0.80949997E+02  0.34730E+04
 0.80999992E+02  0.35045E+04
 0.81049995E+02  0.36919E+04
 0.81099998E+02  0.37369E+04
 0.81149994E+02  0.35626E+04
 0.81199997E+02  0.34818E+04
 0.81249992E+02  0.34913E+04
 0.81299995E+02  0.35228E+04
 0.81349998E+02  0.35299E+04
 0.81399994E+02  0.34923E+04
 0.81449997E+02  0.33261E+04
 0.81499992E+02  0.31400E+04
 0.81549995E+02  0.31408E+04
 0.81599998E+02  0.31741E+04
 0.81649994E+02  0.32625E+04
 0.81699997E+02  0.34519E+04
 0.81749992E+02  0.36007E+04
 0.81799995E+02  0.34970E+04
 0.81849998E+02  0.33955E+04
 0.81899994E+02  0.32812E+04
 0.81949997E+02  0.31401E+04
 0.81999992E+02  0.32333E+04
 0.82049995E+02  0.33568E+04
 0.82099998E+02  0.34887E+04
 0.82149994E+02  0.34860E+04
 0.82199997E+02  0.34831E+04
 0.82249992E+02  0.35628E+04
 0.82299995E+02  0.35200E+04
 0.82349998E+02  0.35083E+04
 0.82399994E+02  0.35521E+04
 0.82449997E+02  0.35970E+04
 0.82499992E+02  0.36443E+04
 0.82549995E+02  0.35940E+04
 0.82599998E+02  0.34067E+04
 0.82649994E+02  0.31519E+04
 0.82699997E+02  0.30494E+04
 0.82749992E+02  0.32322E+04
 0.82799995E+02  0.34767E+04
 0.82849998E+02  0.37396E+04
 0.82899994E+02  0.38792E+04
 0.82949997E+02  0.39751E+04
 0.82999992E+02  0.39607E+04
 0.83049995E+02  0.36979E+04
 0.83099998E+02  0.33939E+04
 0.83149994E+02  0.34137E+04
 0.83199997E+02  0.35291E+04
 0.83249992E+02  0.34090E+04
 0.83299995E+02  0.33181E+04
 0.83349998E+02  0.32626E+04
 0.83399994E+02  0.33059E+04
 0.83449997E+02  0.33539E+04
 0.83499992E+02  0.34550E+04
 0.83549995E+02  0.34523E+04
 0.83599998E+02  0.34091E+04
 0.83649994E+02  0.33987E+04
 0.83699997E+02  0.34812E+04
 0.83749992E+02  0.37945E+04
 0.83799995E+02  0.39091E+04
 0.83849998E+02  0.38345E+04
 0.83899994E+02  0.37127E+04
 0.83949997E+02  0.36323E+04
 0.83999992E+02  0.35808E+04
 0.84049995E+02  0.34543E+04
 0.84099998E+02  0.33682E+04
 0.84149994E+02  0.33972E+04
 0.84199997E+02  0.34563E+04
 0.84249992E+02  0.34371E+04
 0.84299995E+02  0.34451E+04
 0.84349998E+02  0.35068E+04
 0.84399994E+02  0.35494E+04
 0.84449997E+02  0.35852E+04
 0.84499992E+02  0.35626E+04
 0.84549995E+02  0.35079E+04
 0.84599998E+02  0.35344E+04
 0.84649994E+02  0.36379E+04
 0.84699997E+02  0.37827E+04
 0.84749992E+02  0.38836E+04
 0.84799995E+02  0.38199E+04
 0.84849998E+02  0.36179E+04
 0.84899994E+02  0.32635E+04
 0.84949997E+02  0.30994E+04
 0.84999992E+02  0.33458E+04
 0.85049995E+02  0.36132E+04
 0.85099998E+02  0.37305E+04
 0.85149994E+02  0.38235E+04
 0.85199997E+02  0.37397E+04
 0.85249992E+02  0.35026E+04
 0.85299995E+02  0.33780E+04
 0.85349998E+02  0.34760E+04
 0.85399994E+02  0.35632E+04
 0.85449997E+02  0.35487E+04
 0.85499992E+02  0.35569E+04
 0.85549995E+02  0.35164E+04
 0.85599998E+02  0.34961E+04
 0.85649994E+02  0.35673E+04
 0.85699997E+02  0.36873E+04
 0.85749992E+02  0.37909E+04
 0.85799995E+02  0.38747E+04
 0.85849998E+02  0.38069E+04
 0.85899994E+02  0.37583E+04
 0.85949997E+02  0.36251E+04
 0.85999992E+02  0.33097E+04
 0.86049995E+02  0.31744E+04
 0.86099998E+02  0.32301E+04
 0.86149994E+02  0.34491E+04
 0.86199997E+02  0.37340E+04
 0.86249992E+02  0.38548E+04
 0.86299995E+02  0.38481E+04
 0.86349998E+02  0.37878E+04
 0.86399994E+02  0.37492E+04
 0.86449997E+02  0.37292E+04
 0.86499992E+02  0.36600E+04
 0.86549995E+02  0.37182E+04
 0.86599998E+02  0.37885E+04
 0.86649994E+02  0.37257E+04
 0.86699997E+02  0.36988E+04
 0.86749992E+02  0.37141E+04
 0.86799995E+02  0.35123E+04
 0.86849998E+02  0.31837E+04
 0.86899994E+02  0.30976E+04
 0.86949997E+02  0.31414E+04
 0.86999992E+02  0.31524E+04
 0.87049995E+02  0.31247E+04
 0.87099998E+02  0.31743E+04
 0.87149994E+02  0.33152E+04
 0.87199997E+02  0.33844E+04
 0.87249992E+02  0.33447E+04
 0.87299995E+02  0.33600E+04
 0.87349998E+02  0.34683E+04
 0.87399994E+02  0.35246E+04
 0.87449997E+02  0.35642E+04
 0.87499992E+02  0.34606E+04
 0.87549995E+02  0.33807E+04
 0.87599991E+02  0.34703E+04
 0.87649994E+02  0.35410E+04
 0.87699997E+02  0.36073E+04
 0.87749992E+02  0.36370E+04
 0.87799995E+02  0.36853E+04
 0.87849991E+02  0.37834E+04
 0.87899994E+02  0.36829E+04
 0.87949997E+02  0.34171E+04
 0.87999992E+02  0.32676E+04
 0.88049995E+02  0.33820E+04
 0.88099991E+02  0.35980E+04
 0.88149994E+02  0.36882E+04
 0.88199997E+02  0.35890E+04
 0.88249992E+02  0.34113E+04
 0.88299995E+02  0.33964E+04
 0.88349991E+02  0.34169E+04
 0.88399994E+02  0.34744E+04
 0.88449997E+02  0.35376E+04
 0.88499992E+02  0.35678E+04
 0.88549995E+02  0.36890E+04
 0.88599991E+02  0.37957E+04
 0.88649994E+02  0.38443E+04
 0.88699997E+02  0.38617E+04
 0.88749992E+02  0.38904E+04
 0.88799995E+02  0.38718E+04
 0.88849991E+02  0.37886E+04
 0.88899994E+02  0.37001E+04
 0.88949997E+02  0.36693E+04
 0.88999992E+02  0.36659E+04
 0.89049995E+02  0.36840E+04
 0.89099991E+02  0.36750E+04
 0.89149994E+02  0.36249E+04
 0.89199997E+02  0.35323E+04
 0.89249992E+02  0.35430E+04
 0.89299995E+02  0.36041E+04
 0.89349991E+02  0.35308E+04
 0.89399994E+02  0.34797E+04
 0.89449997E+02  0.33923E+04
 0.89499992E+02  0.34796E+04
 0.89549995E+02  0.36022E+04
 0.89599991E+02  0.35242E+04
 0.89649994E+02  0.33488E+04
 0.89699997E+02  0.31568E+04
 0.89749992E+02  0.31262E+04
 0.89799995E+02  0.31814E+04
 0.89849991E+02  0.33694E+04
 0.89899994E+02  0.35727E+04
 0.89949997E+02  0.35645E+04
 0.89999992E+02  0.35001E+04
 0.90049995E+02  0.34419E+04
 0.90099991E+02  0.33971E+04
 0.90149994E+02  0.34207E+04
 0.90199997E+02  0.34065E+04
 0.90249992E+02  0.34165E+04
 0.90299995E+02  0.34522E+04
 0.90349991E+02  0.34307E+04
 0.90399994E+02  0.34256E+04
 0.90449997E+02  0.35772E+04
 0.90499992E+02  0.36848E+04
 0.90549995E+02  0.36380E+04
 0.90599991E+02  0.36635E+04
 0.90649994E+02  0.36884E+04
 0.90699997E+02  0.36243E+04
 0.90749992E+02  0.35258E+04
 0.90799995E+02  0.34773E+04
 0.90849991E+02  0.34112E+04
 0.90899994E+02  0.33028E+04
 0.90949997E+02  0.32874E+04
 0.90999992E+02  0.33356E+04
 0.91049995E+02  0.33637E+04
 0.91099991E+02  0.34527E+04
 0.91149994E+02  0.35475E+04
 0.91199997E+02  0.36217E+04
 0.91249992E+02  0.36878E+04
 0.91299995E+02  0.37020E+04
 0.91349991E+02  0.36642E+04
 0.91399994E+02  0.35505E+04
 0.91449997E+02  0.34223E+04
 0.91499992E+02  0.34084E+04
 0.91549995E+02  0.35770E+04
 0.91599991E+02  0.37847E+04
 0.91649994E+02  0.39631E+04
 0.91699997E+02  0.40233E+04
 0.91749992E+02  0.39790E+04
 0.91799995E+02  0.37979E+04
 0.91849991E+02  0.36003E+04
 0.91899994E+02  0.36194E+04
 0.91949997E+02  0.36667E+04
 0.91999992E+02  0.36773E+04
 0.92049995E+02  0.36351E+04
 0.92099991E+02  0.35456E+04
 0.92149994E+02  0.35143E+04
 0.92199997E+02  0.35244E+04
 0.92249992E+02  0.34568E+04
 0.92299995E+02  0.34093E+04
 0.92349991E+02  0.33966E+04
 0.92399994E+02  0.33798E+04
 0.92449997E+02  0.34506E+04
 0.92499992E+02  0.35073E+04
 0.92549995E+02  0.35327E+04
 0.92599991E+02  0.35540E+04
 0.92649994E+02  0.35583E+04
 0.92699997E+02  0.35908E+04
 0.92749992E+02  0.35416E+04
 0.92799995E+02  0.34751E+04
 0.92849991E+02  0.35125E+04
 0.92899994E+02  0.34804E+04
 0.92949997E+02  0.34204E+04
 0.92999992E+02  0.34222E+04
 0.93049995E+02  0.34427E+04
 0.93099991E+02  0.33820E+04
 0.93149994E+02  0.33084E+04
 0.93199997E+02  0.33907E+04
 0.93249992E+02  0.35215E+04
 0.93299995E+02  0.35612E+04
 0.93349991E+02  0.35288E+04
 0.93399994E+02  0.35030E+04
 0.93449997E+02  0.34651E+04
 0.93499992E+02  0.34577E+04
 0.93549995E+02  0.35572E+04
 0.93599991E+02  0.37027E+04
 0.93649994E+02  0.37056E+04
 0.93699997E+02  0.35467E+04
 0.93749992E+02  0.34274E+04
 0.93799995E+02  0.33769E+04
 0.93849991E+02  0.34493E+04
 0.93899994E+02  0.36653E+04
 0.93949997E+02  0.38706E+04
 0.93999992E+02  0.40009E+04
 0.94049995E+02  0.40039E+04
 0.94099991E+02  0.38858E+04
 0.94149994E+02  0.36948E+04
 0.94199997E+02  0.34970E+04
 0.94249992E+02  0.33585E+04
 0.94299995E+02  0.33101E+04
 0.94349991E+02  0.33345E+04
 0.94399994E+02  0.33752E+04
 0.94449997E+02  0.33930E+04
 0.94499992E+02  0.33988E+04
 0.94549995E+02  0.34077E+04
 0.94599991E+02  0.34302E+04
 0.94649994E+02  0.34498E+04
 0.94699997E+02  0.34421E+04
 0.94749992E+02  0.34806E+04
 0.94799995E+02  0.35754E+04
 0.94849991E+02  0.36351E+04
 0.94899994E+02  0.36059E+04
 0.94949997E+02  0.35698E+04
 0.94999992E+02  0.34874E+04
 0.95049995E+02  0.35096E+04
 0.95099991E+02  0.36621E+04
 0.95149994E+02  0.37699E+04
 0.95199997E+02  0.37929E+04
 0.95249992E+02  0.36854E+04
 0.95299995E+02  0.35904E+04
 0.95349991E+02  0.34903E+04
 0.95399994E+02  0.34058E+04
 0.95449997E+02  0.33776E+04
 0.95499992E+02  0.33445E+04
 0.95549995E+02  0.34069E+04
 0.95599991E+02  0.35795E+04
 0.95649994E+02  0.37002E+04
 0.95699997E+02  0.36559E+04
 0.95749992E+02  0.35085E+04
 0.95799995E+02  0.34290E+04
 0.95849991E+02  0.33427E+04
 0.95899994E+02  0.32261E+04
 0.95949997E+02  0.32617E+04
 0.95999992E+02  0.33078E+04
 0.96049995E+02  0.32815E+04
 0.96099991E+02  0.33129E+04
 0.96149994E+02  0.33687E+04
 0.96199997E+02  0.34350E+04
 0.96249992E+02  0.34393E+04
 0.96299995E+02  0.34559E+04
 0.96349991E+02  0.35676E+04
 0.96399994E+02  0.36287E+04
 0.96449997E+02  0.36019E+04
 0.96499992E+02  0.35240E+04
 0.96549995E+02  0.34322E+04
 0.96599991E+02  0.34185E+04
 0.96649994E+02  0.34892E+04
 0.96699997E+02  0.35877E+04
 0.96749992E+02  0.37410E+04
 0.96799995E+02  0.38469E+04
 0.96849991E+02  0.38368E+04
 0.96899994E+02  0.37808E+04
 0.96949997E+02  0.37063E+04
 0.96999992E+02  0.36777E+04
 0.97049995E+02  0.36842E+04
 0.97099991E+02  0.36206E+04
 0.97149994E+02  0.36107E+04
 0.97199997E+02  0.36265E+04
 0.97249992E+02  0.35449E+04
 0.97299995E+02  0.34105E+04
 0.97349991E+02  0.33180E+04
 0.97399994E+02  0.33232E+04
 0.97449997E+02  0.34368E+04
 0.97499992E+02  0.36085E+04
 0.97549995E+02  0.36177E+04
 0.97599991E+02  0.35417E+04
 0.97649994E+02  0.34652E+04
 0.97699997E+02  0.33785E+04
 0.97749992E+02  0.34379E+04
 0.97799995E+02  0.35400E+04
 0.97849991E+02  0.36390E+04
 0.97899994E+02  0.37195E+04
 0.97949997E+02  0.37050E+04
 0.97999992E+02  0.37060E+04
