-0.20000000E+01  0.15493E+06
-0.19500000E+01  0.15540E+06
-0.19000000E+01  0.15693E+06
-0.18500000E+01  0.15798E+06
-0.18000000E+01  0.15888E+06
-0.17500000E+01  0.15954E+06
-0.17000000E+01  0.15986E+06
-0.16500001E+01  0.15979E+06
-0.16000000E+01  0.15947E+06
-0.15500000E+01  0.15908E+06
-0.15000000E+01  0.15863E+06
-0.14500000E+01  0.15820E+06
-0.14000001E+01  0.15777E+06
-0.13500000E+01  0.15732E+06
-0.13000001E+01  0.15665E+06
-0.12500000E+01  0.15578E+06
-0.12000000E+01  0.15493E+06
-0.11500001E+01  0.15410E+06
-0.11000000E+01  0.15333E+06
-0.10500001E+01  0.15274E+06
-0.10000000E+01  0.15230E+06
-0.95000005E+00  0.15206E+06
-0.90000010E+00  0.15216E+06
-0.85000002E+00  0.15259E+06
-0.80000007E+00  0.15332E+06
-0.75000012E+00  0.15423E+06
-0.70000005E+00  0.15529E+06
-0.65000010E+00  0.15648E+06
-0.60000014E+00  0.15773E+06
-0.55000007E+00  0.15903E+06
-0.50000012E+00  0.16032E+06
-0.45000005E+00  0.16169E+06
-0.40000010E+00  0.16314E+06
-0.35000014E+00  0.16452E+06
-0.30000007E+00  0.16573E+06
-0.25000012E+00  0.16668E+06
-0.20000005E+00  0.16722E+06
-0.15000010E+00  0.16735E+06
-0.10000014E+00  0.16722E+06
-0.50000072E-01  0.16690E+06
-0.11920929E-06  0.16656E+06
 0.49999952E-01  0.16640E+06
 0.99999905E-01  0.16656E+06
 0.14999986E+00  0.16700E+06
 0.19999981E+00  0.16771E+06
 0.24999976E+00  0.16868E+06
 0.29999995E+00  0.16987E+06
 0.34999990E+00  0.17131E+06
 0.39999986E+00  0.17301E+06
 0.44999981E+00  0.17496E+06
 0.49999976E+00  0.17714E+06
 0.54999995E+00  0.17941E+06
 0.59999990E+00  0.18161E+06
 0.64999986E+00  0.18376E+06
 0.69999981E+00  0.18583E+06
 0.74999976E+00  0.18770E+06
 0.79999971E+00  0.18928E+06
 0.84999990E+00  0.19048E+06
 0.89999986E+00  0.19126E+06
 0.94999981E+00  0.19150E+06
 0.99999976E+00  0.19120E+06
 0.10499997E+01  0.19040E+06
 0.10999999E+01  0.18919E+06
 0.11499999E+01  0.18759E+06
 0.11999998E+01  0.18567E+06
 0.12499998E+01  0.18369E+06
 0.12999997E+01  0.18186E+06
 0.13499999E+01  0.18023E+06
 0.13999999E+01  0.17872E+06
 0.14499998E+01  0.17746E+06
 0.14999998E+01  0.17652E+06
 0.15499997E+01  0.17582E+06
 0.15999999E+01  0.17534E+06
 0.16499999E+01  0.17509E+06
 0.16999998E+01  0.17503E+06
 0.17499998E+01  0.17514E+06
 0.17999997E+01  0.17541E+06
 0.18499997E+01  0.17580E+06
 0.18999999E+01  0.17638E+06
 0.19499998E+01  0.17725E+06
 0.19999998E+01  0.17853E+06
 0.20499997E+01  0.18014E+06
 0.20999999E+01  0.18205E+06
 0.21499996E+01  0.18419E+06
 0.21999998E+01  0.18635E+06
 0.22499995E+01  0.18854E+06
 0.22999997E+01  0.19067E+06
 0.23499999E+01  0.19283E+06
 0.23999996E+01  0.19510E+06
 0.24499998E+01  0.19725E+06
 0.24999995E+01  0.19920E+06
 0.25499997E+01  0.20085E+06
 0.25999999E+01  0.20213E+06
 0.26499996E+01  0.20308E+06
 0.26999998E+01  0.20374E+06
 0.27499995E+01  0.20413E+06
 0.27999997E+01  0.20436E+06
 0.28499999E+01  0.20455E+06
 0.28999996E+01  0.20490E+06
 0.29499998E+01  0.20539E+06
 0.29999995E+01  0.20599E+06
 0.30499997E+01  0.20646E+06
 0.30999999E+01  0.20672E+06
 0.31499996E+01  0.20692E+06
 0.31999998E+01  0.20705E+06
 0.32499995E+01  0.20706E+06
 0.32999997E+01  0.20693E+06
 0.33499999E+01  0.20678E+06
 0.33999996E+01  0.20664E+06
 0.34499998E+01  0.20668E+06
 0.34999995E+01  0.20672E+06
 0.35499997E+01  0.20663E+06
 0.35999994E+01  0.20643E+06
 0.36499996E+01  0.20607E+06
 0.36999998E+01  0.20556E+06
 0.37499995E+01  0.20487E+06
 0.37999997E+01  0.20398E+06
 0.38499994E+01  0.20305E+06
 0.38999996E+01  0.20219E+06
 0.39499998E+01  0.20144E+06
 0.39999995E+01  0.20090E+06
 0.40499997E+01  0.20054E+06
 0.40999994E+01  0.20035E+06
 0.41499996E+01  0.20023E+06
 0.41999998E+01  0.20022E+06
 0.42499995E+01  0.20024E+06
 0.42999997E+01  0.20031E+06
 0.43499994E+01  0.20051E+06
 0.43999996E+01  0.20092E+06
 0.44499998E+01  0.20160E+06
 0.44999995E+01  0.20253E+06
 0.45499997E+01  0.20366E+06
 0.45999994E+01  0.20487E+06
 0.46499996E+01  0.20620E+06
 0.46999998E+01  0.20754E+06
 0.47499995E+01  0.20885E+06
 0.47999997E+01  0.21015E+06
 0.48499994E+01  0.21144E+06
 0.48999996E+01  0.21267E+06
 0.49499998E+01  0.21381E+06
 0.49999995E+01  0.21488E+06
 0.50499997E+01  0.21595E+06
 0.50999994E+01  0.21700E+06
 0.51499996E+01  0.21806E+06
 0.51999998E+01  0.21920E+06
 0.52499995E+01  0.22035E+06
 0.52999997E+01  0.22153E+06
 0.53499994E+01  0.22270E+06
 0.53999996E+01  0.22373E+06
 0.54499993E+01  0.22454E+06
 0.54999995E+01  0.22518E+06
 0.55499997E+01  0.22575E+06
 0.55999994E+01  0.22628E+06
 0.56499996E+01  0.22679E+06
 0.56999993E+01  0.22748E+06
 0.57499995E+01  0.22837E+06
 0.57999997E+01  0.22929E+06
 0.58499994E+01  0.23027E+06
 0.58999996E+01  0.23119E+06
 0.59499993E+01  0.23192E+06
 0.59999995E+01  0.23239E+06
 0.60499992E+01  0.23248E+06
 0.60999994E+01  0.23218E+06
 0.61499996E+01  0.23161E+06
 0.61999998E+01  0.23084E+06
 0.62499990E+01  0.22997E+06
 0.62999992E+01  0.22913E+06
 0.63499994E+01  0.22849E+06
 0.63999996E+01  0.22813E+06
 0.64499998E+01  0.22803E+06
 0.64999990E+01  0.22814E+06
 0.65499992E+01  0.22832E+06
 0.65999994E+01  0.22851E+06
 0.66499996E+01  0.22871E+06
 0.66999998E+01  0.22888E+06
 0.67499990E+01  0.22898E+06
 0.67999992E+01  0.22915E+06
 0.68499994E+01  0.22940E+06
 0.68999996E+01  0.22978E+06
 0.69499998E+01  0.23034E+06
 0.69999990E+01  0.23097E+06
 0.70499992E+01  0.23164E+06
 0.70999994E+01  0.23229E+06
 0.71499996E+01  0.23290E+06
 0.71999998E+01  0.23348E+06
 0.72499990E+01  0.23392E+06
 0.72999992E+01  0.23415E+06
 0.73499994E+01  0.23415E+06
 0.73999996E+01  0.23392E+06
 0.74499998E+01  0.23334E+06
 0.74999990E+01  0.23245E+06
 0.75499992E+01  0.23125E+06
 0.75999994E+01  0.22968E+06
 0.76499996E+01  0.22799E+06
 0.76999998E+01  0.22623E+06
 0.77499990E+01  0.22446E+06
 0.77999992E+01  0.22263E+06
 0.78499994E+01  0.22092E+06
 0.78999996E+01  0.21944E+06
 0.79499998E+01  0.21812E+06
 0.79999990E+01  0.21709E+06
 0.80499992E+01  0.21638E+06
 0.80999994E+01  0.21604E+06
 0.81499996E+01  0.21612E+06
 0.81999998E+01  0.21665E+06
 0.82499990E+01  0.21760E+06
 0.82999992E+01  0.21896E+06
 0.83499994E+01  0.22052E+06
 0.83999996E+01  0.22217E+06
 0.84499998E+01  0.22397E+06
 0.84999990E+01  0.22575E+06
 0.85499992E+01  0.22739E+06
 0.85999994E+01  0.22871E+06
 0.86499996E+01  0.22975E+06
 0.86999998E+01  0.23054E+06
 0.87499990E+01  0.23109E+06
 0.87999992E+01  0.23145E+06
 0.88499994E+01  0.23162E+06
 0.88999996E+01  0.23173E+06
 0.89499998E+01  0.23175E+06
 0.89999990E+01  0.23177E+06
 0.90499992E+01  0.23180E+06
 0.90999994E+01  0.23207E+06
 0.91499996E+01  0.23256E+06
 0.91999989E+01  0.23322E+06
 0.92499990E+01  0.23412E+06
 0.92999992E+01  0.23525E+06
 0.93499994E+01  0.23639E+06
 0.93999996E+01  0.23721E+06
 0.94499989E+01  0.23813E+06
 0.94999990E+01  0.23834E+06
 0.95499992E+01  0.23941E+06
 0.95999994E+01  0.24123E+06
 0.96499996E+01  0.24239E+06
 0.96999989E+01  0.24354E+06
 0.97499990E+01  0.24473E+06
 0.97999992E+01  0.24520E+06
 0.98499994E+01  0.24497E+06
 0.98999996E+01  0.24451E+06
 0.99499989E+01  0.24411E+06
 0.99999990E+01  0.24452E+06
 0.10049999E+02  0.22733E+06
 0.10099999E+02  0.16988E+06
 0.10150000E+02  0.74639E+05
 0.10199999E+02 -0.38747E+04
 0.10249999E+02 -0.50471E+05
 0.10299999E+02 -0.75516E+05
 0.10349999E+02 -0.23807E+05
 0.10400000E+02  0.79565E+05
 0.10449999E+02  0.18954E+06
 0.10499999E+02  0.25211E+06
 0.10549999E+02  0.27395E+06
 0.10599999E+02  0.93116E+05
 0.10650000E+02 -0.33176E+05
 0.10699999E+02 -0.14007E+05
 0.10749999E+02 -0.10964E+06
 0.10799999E+02 -0.17486E+06
 0.10849999E+02 -0.14936E+06
 0.10900000E+02 -0.25066E+06
 0.10949999E+02 -0.51692E+06
 0.10999999E+02 -0.85918E+06
 0.11049999E+02 -0.11745E+07
 0.11099999E+02 -0.95604E+06
 0.11150000E+02 -0.38272E+06
 0.11199999E+02  0.22250E+05
 0.11249999E+02 -0.44395E+06
 0.11299999E+02 -0.19944E+06
 0.11349999E+02  0.37532E+06
 0.11400000E+02 -0.73251E+05
 0.11449999E+02  0.35652E+06
 0.11499999E+02  0.10658E+07
 0.11549999E+02  0.11969E+07
 0.11599999E+02  0.12040E+07
 0.11650000E+02  0.10007E+07
 0.11699999E+02  0.11007E+07
 0.11749999E+02  0.16395E+07
 0.11799999E+02  0.12538E+07
 0.11849999E+02  0.10745E+07
 0.11900000E+02  0.13823E+07
 0.11949999E+02  0.12148E+07
 0.11999999E+02  0.61888E+06
 0.12049999E+02  0.30029E+06
 0.12099999E+02  0.43003E+06
 0.12150000E+02  0.92854E+05
 0.12199999E+02 -0.85190E+05
 0.12249999E+02 -0.28369E+06
 0.12299999E+02 -0.45309E+06
 0.12349999E+02 -0.54476E+06
 0.12400000E+02 -0.75182E+06
 0.12449999E+02 -0.63541E+06
 0.12499999E+02 -0.10678E+06
 0.12549999E+02 -0.13641E+06
 0.12599999E+02  0.12854E+06
 0.12649999E+02  0.24095E+06
 0.12699999E+02  0.30599E+06
 0.12749999E+02  0.73996E+06
 0.12799999E+02  0.40888E+06
 0.12849999E+02  0.44561E+06
 0.12899999E+02  0.39528E+06
 0.12949999E+02  0.36772E+06
 0.12999999E+02  0.41412E+06
 0.13049999E+02  0.56373E+06
 0.13099999E+02  0.67925E+06
 0.13149999E+02  0.55346E+06
 0.13199999E+02  0.58635E+06
 0.13249999E+02  0.70086E+06
 0.13299999E+02  0.50746E+06
 0.13349999E+02 -0.15786E+05
 0.13399999E+02 -0.40454E+06
 0.13449999E+02 -0.61145E+06
 0.13499999E+02 -0.35892E+06
 0.13549999E+02 -0.43136E+06
 0.13599999E+02 -0.33189E+06
 0.13649999E+02 -0.19322E+06
 0.13699999E+02 -0.12599E+06
 0.13749999E+02  0.22875E+06
 0.13799999E+02  0.45718E+06
 0.13849999E+02  0.38364E+06
 0.13899999E+02  0.57293E+06
 0.13949999E+02  0.91648E+06
 0.13999999E+02  0.10535E+07
 0.14049999E+02  0.12577E+07
 0.14099998E+02  0.11703E+07
 0.14150000E+02  0.99365E+06
 0.14199999E+02  0.99997E+06
 0.14249998E+02  0.12473E+07
 0.14299999E+02  0.11264E+07
 0.14349998E+02  0.94629E+06
 0.14400000E+02  0.60994E+06
 0.14449999E+02  0.46790E+06
 0.14499998E+02  0.53890E+06
 0.14549999E+02  0.15613E+06
 0.14599998E+02 -0.70936E+05
 0.14650000E+02  0.48304E+04
 0.14699999E+02 -0.24808E+06
 0.14749998E+02 -0.46054E+06
 0.14799999E+02 -0.42246E+06
 0.14849998E+02 -0.52029E+06
 0.14900000E+02 -0.64984E+06
 0.14949999E+02 -0.40789E+06
 0.14999998E+02 -0.35627E+05
 0.15049999E+02 -0.23483E+06
 0.15099998E+02 -0.47000E+06
 0.15150000E+02 -0.29455E+06
 0.15199999E+02  0.15989E+06
 0.15249998E+02  0.53323E+06
 0.15299999E+02  0.31263E+06
 0.15349998E+02  0.22113E+06
 0.15400000E+02  0.70089E+06
 0.15449999E+02  0.65047E+06
 0.15499998E+02  0.55454E+06
 0.15549999E+02  0.50133E+06
 0.15599998E+02  0.29768E+06
 0.15650000E+02  0.27634E+06
 0.15699999E+02  0.27693E+06
 0.15749998E+02  0.10011E+06
 0.15799999E+02  0.20387E+06
 0.15849998E+02  0.10840E+06
 0.15900000E+02 -0.94353E+05
 0.15949999E+02  0.87271E+05
 0.15999998E+02  0.11422E+06
 0.16049999E+02  0.86209E+05
 0.16099998E+02  0.57535E+05
 0.16150000E+02 -0.32268E+04
 0.16199999E+02 -0.26888E+06
 0.16249998E+02 -0.30614E+06
 0.16299999E+02 -0.48413E+06
 0.16349998E+02 -0.32766E+06
 0.16400000E+02 -0.29707E+06
 0.16449999E+02 -0.40050E+06
 0.16499998E+02  0.59012E+05
 0.16549999E+02  0.47686E+06
 0.16599998E+02  0.70611E+06
 0.16650000E+02  0.58271E+06
 0.16699999E+02  0.59139E+06
 0.16749998E+02 -0.28472E+05
 0.16799999E+02 -0.23858E+06
 0.16849998E+02  0.31860E+06
 0.16900000E+02  0.56239E+06
 0.16949999E+02  0.38745E+06
 0.16999998E+02 -0.26319E+06
 0.17049999E+02 -0.13360E+06
 0.17099998E+02  0.72304E+06
 0.17150000E+02  0.96859E+06
 0.17199999E+02  0.70438E+06
 0.17249998E+02  0.15090E+07
 0.17299999E+02  0.24005E+07
 0.17349998E+02  0.21752E+07
 0.17400000E+02  0.12571E+07
 0.17449999E+02  0.75235E+06
 0.17499998E+02  0.92905E+06
 0.17549999E+02  0.14120E+07
 0.17599998E+02  0.10216E+07
 0.17650000E+02  0.68229E+06
 0.17699999E+02  0.75782E+06
 0.17749998E+02  0.76306E+06
 0.17799999E+02  0.12404E+07
 0.17849998E+02  0.10389E+07
 0.17900000E+02  0.65312E+06
 0.17949999E+02 -0.53362E+06
 0.17999998E+02 -0.14462E+07
 0.18049999E+02 -0.22599E+07
 0.18099998E+02 -0.29440E+07
 0.18150000E+02 -0.24896E+07
 0.18199999E+02 -0.25029E+07
 0.18249998E+02 -0.33935E+07
 0.18299999E+02 -0.38236E+07
 0.18349998E+02 -0.36491E+07
 0.18400000E+02 -0.27957E+07
 0.18449999E+02 -0.16848E+07
 0.18499998E+02 -0.66889E+06
 0.18549999E+02  0.36817E+05
 0.18599998E+02 -0.23896E+05
 0.18650000E+02  0.84190E+06
 0.18699999E+02  0.19636E+07
 0.18749998E+02  0.29872E+07
 0.18799999E+02  0.31000E+07
 0.18849998E+02  0.23422E+07
 0.18900000E+02  0.15614E+07
 0.18949999E+02  0.62678E+06
 0.18999998E+02  0.20437E+06
 0.19049999E+02  0.38238E+06
 0.19099998E+02  0.14682E+06
 0.19150000E+02 -0.55442E+06
 0.19199999E+02 -0.25399E+06
 0.19249998E+02  0.10053E+07
 0.19299999E+02  0.23713E+07
 0.19349998E+02  0.32727E+07
 0.19400000E+02  0.40445E+07
 0.19449999E+02  0.47194E+07
 0.19499998E+02  0.46499E+07
 0.19549999E+02  0.44767E+07
 0.19599998E+02  0.38040E+07
 0.19650000E+02  0.26276E+07
 0.19699999E+02  0.12637E+07
 0.19749998E+02 -0.33420E+06
 0.19799999E+02 -0.13109E+07
 0.19849998E+02 -0.19988E+07
 0.19900000E+02 -0.25815E+07
 0.19949999E+02 -0.30036E+07
 0.19999998E+02 -0.35238E+07
 0.20049999E+02 -0.39713E+07
 0.20099998E+02 -0.40942E+07
 0.20150000E+02 -0.39742E+07
 0.20199999E+02 -0.38730E+07
 0.20249998E+02 -0.35343E+07
 0.20299999E+02 -0.30001E+07
 0.20349998E+02 -0.25742E+07
 0.20399998E+02 -0.18751E+07
 0.20449999E+02 -0.12315E+07
 0.20499998E+02 -0.34316E+06
 0.20549999E+02  0.41824E+06
 0.20599998E+02  0.71058E+06
 0.20649998E+02  0.10448E+07
 0.20699999E+02  0.15834E+07
 0.20749998E+02  0.23652E+07
 0.20799999E+02  0.27779E+07
 0.20849998E+02  0.28774E+07
 0.20899998E+02  0.29600E+07
 0.20949999E+02  0.30259E+07
 0.20999998E+02  0.29196E+07
 0.21049999E+02  0.25289E+07
 0.21099998E+02  0.23902E+07
 0.21149998E+02  0.22746E+07
 0.21199999E+02  0.21729E+07
 0.21249998E+02  0.22709E+07
 0.21299999E+02  0.21247E+07
 0.21349998E+02  0.22659E+07
 0.21399998E+02  0.22662E+07
 0.21449999E+02  0.20941E+07
 0.21499998E+02  0.16501E+07
 0.21549999E+02  0.10887E+07
 0.21599998E+02  0.87101E+06
 0.21649998E+02  0.61081E+06
 0.21699999E+02  0.18901E+06
 0.21749998E+02 -0.23097E+06
 0.21799999E+02 -0.33562E+06
 0.21849998E+02 -0.35357E+06
 0.21899998E+02 -0.49927E+06
 0.21949999E+02 -0.45551E+06
 0.21999998E+02  0.19903E+06
 0.22049999E+02  0.57448E+06
 0.22099998E+02  0.83849E+06
 0.22149998E+02  0.11424E+07
 0.22199999E+02  0.12101E+07
 0.22249998E+02  0.12322E+07
 0.22299999E+02  0.99949E+06
 0.22349998E+02  0.54685E+06
 0.22399998E+02  0.18428E+06
 0.22449999E+02  0.18672E+06
 0.22499998E+02  0.34311E+06
 0.22549999E+02  0.68999E+06
 0.22599998E+02  0.83785E+06
 0.22649998E+02  0.85925E+06
 0.22699999E+02  0.61654E+06
 0.22749998E+02 -0.13113E+05
 0.22799999E+02 -0.47369E+06
 0.22849998E+02 -0.88028E+06
 0.22899998E+02 -0.12420E+07
 0.22949999E+02 -0.11936E+07
 0.22999998E+02 -0.68491E+06
 0.23049999E+02 -0.20345E+06
 0.23099998E+02  0.21042E+06
 0.23149998E+02  0.52204E+06
 0.23199999E+02  0.86582E+06
 0.23249998E+02  0.11087E+07
 0.23299999E+02  0.12315E+07
 0.23349998E+02  0.12617E+07
 0.23399998E+02  0.12595E+07
 0.23449999E+02  0.13345E+07
 0.23499998E+02  0.13135E+07
 0.23549999E+02  0.12332E+07
 0.23599998E+02  0.11749E+07
 0.23649998E+02  0.10418E+07
 0.23699999E+02  0.78334E+06
 0.23749998E+02  0.38321E+06
 0.23799999E+02  0.19436E+05
 0.23849998E+02 -0.87881E+05
 0.23899998E+02 -0.19326E+06
 0.23949999E+02 -0.23345E+06
 0.23999998E+02 -0.32744E+06
 0.24049999E+02 -0.28057E+06
 0.24099998E+02 -0.12999E+06
 0.24149998E+02 -0.10862E+06
 0.24199999E+02 -0.12219E+06
 0.24249998E+02 -0.15352E+06
 0.24299999E+02 -0.19155E+06
 0.24349998E+02 -0.19772E+06
 0.24399998E+02 -0.92457E+05
 0.24449999E+02 -0.15754E+05
 0.24499998E+02 -0.57854E+05
 0.24549999E+02 -0.16554E+06
 0.24599998E+02 -0.54905E+04
 0.24649998E+02  0.24987E+06
 0.24699999E+02  0.31926E+05
 0.24749998E+02 -0.49171E+06
 0.24799999E+02 -0.84698E+06
 0.24849998E+02 -0.89576E+06
 0.24899998E+02 -0.89491E+06
 0.24949999E+02 -0.88533E+06
 0.24999998E+02 -0.80492E+06
 0.25049999E+02 -0.68456E+06
 0.25099998E+02 -0.53073E+06
 0.25149998E+02 -0.30773E+06
 0.25199999E+02 -0.42060E+05
 0.25249998E+02 -0.10846E+05
 0.25299999E+02 -0.18537E+06
 0.25349998E+02 -0.35208E+06
 0.25399998E+02 -0.51359E+06
 0.25449999E+02 -0.69931E+06
 0.25499998E+02 -0.91765E+06
 0.25549999E+02 -0.11953E+07
 0.25599998E+02 -0.12635E+07
 0.25649998E+02 -0.10562E+07
 0.25699999E+02 -0.79799E+06
 0.25749998E+02 -0.57230E+06
 0.25799999E+02 -0.42955E+06
 0.25849998E+02 -0.36470E+06
 0.25899998E+02 -0.23987E+06
 0.25949999E+02 -0.72174E+05
 0.25999998E+02  0.62202E+05
 0.26049999E+02  0.20520E+06
 0.26099998E+02  0.29682E+06
 0.26149998E+02  0.26419E+06
 0.26199999E+02  0.16571E+06
 0.26249998E+02  0.81182E+05
 0.26299999E+02 -0.34049E+05
 0.26349998E+02 -0.96768E+05
 0.26399998E+02 -0.10990E+06
 0.26449999E+02 -0.22432E+04
 0.26499998E+02  0.18314E+06
 0.26549999E+02  0.28942E+06
 0.26599998E+02  0.35516E+06
 0.26649998E+02  0.48937E+06
 0.26699999E+02  0.64485E+06
 0.26749998E+02  0.77532E+06
 0.26799999E+02  0.79120E+06
 0.26849998E+02  0.58753E+06
 0.26899998E+02  0.52424E+06
 0.26949999E+02  0.59114E+06
 0.26999998E+02  0.57576E+06
 0.27049997E+02  0.53979E+06
 0.27099998E+02  0.71754E+06
 0.27149998E+02  0.99999E+06
 0.27199999E+02  0.12026E+07
 0.27249998E+02  0.13969E+07
 0.27299997E+02  0.14269E+07
 0.27349998E+02  0.13219E+07
 0.27399998E+02  0.12373E+07
 0.27449999E+02  0.11350E+07
 0.27499998E+02  0.94275E+06
 0.27549997E+02  0.74104E+06
 0.27599998E+02  0.58501E+06
 0.27649998E+02  0.51110E+06
 0.27699999E+02  0.51618E+06
 0.27749998E+02  0.66544E+06
 0.27799997E+02  0.69374E+06
 0.27849998E+02  0.59625E+06
 0.27899998E+02  0.53805E+06
 0.27949999E+02  0.35101E+06
 0.27999998E+02  0.18258E+06
 0.28049997E+02  0.16811E+06
 0.28099998E+02  0.36078E+05
 0.28149998E+02 -0.62541E+06
 0.28199999E+02 -0.11692E+07
 0.28249998E+02 -0.14998E+07
 0.28299997E+02 -0.18830E+07
 0.28349998E+02 -0.22540E+07
 0.28399998E+02 -0.26480E+07
 0.28449999E+02 -0.28640E+07
 0.28499998E+02 -0.28492E+07
 0.28549997E+02 -0.25310E+07
 0.28599998E+02 -0.19841E+07
 0.28649998E+02 -0.15059E+07
 0.28699999E+02 -0.11450E+07
 0.28749998E+02 -0.80355E+06
 0.28799997E+02 -0.43378E+06
 0.28849998E+02 -0.10547E+06
 0.28899998E+02  0.78756E+05
 0.28949999E+02  0.13231E+06
 0.28999998E+02  0.28401E+03
 0.29049997E+02 -0.12776E+06
 0.29099998E+02 -0.15981E+06
 0.29149998E+02 -0.18594E+05
 0.29199999E+02  0.61342E+05
 0.29249998E+02  0.15785E+06
 0.29299997E+02  0.18336E+06
 0.29349998E+02  0.47383E+05
 0.29399998E+02 -0.93340E+05
 0.29449999E+02 -0.21448E+06
 0.29499998E+02 -0.31543E+06
 0.29549997E+02 -0.50841E+06
 0.29599998E+02 -0.56153E+06
 0.29649998E+02 -0.58463E+06
 0.29699999E+02 -0.65033E+06
 0.29749998E+02 -0.71303E+06
 0.29799997E+02 -0.79689E+06
 0.29849998E+02 -0.92843E+06
 0.29899998E+02 -0.11007E+07
 0.29949999E+02 -0.12308E+07
 0.29999998E+02 -0.11848E+07
 0.30049999E+02 -0.10917E+07
 0.30099998E+02 -0.98085E+06
 0.30149998E+02 -0.84236E+06
 0.30199997E+02 -0.78984E+06
 0.30249996E+02 -0.71586E+06
 0.30299999E+02 -0.65657E+06
 0.30349998E+02 -0.66339E+06
 0.30399998E+02 -0.68166E+06
 0.30449997E+02 -0.66961E+06
 0.30499996E+02 -0.71925E+06
 0.30549999E+02 -0.71016E+06
 0.30599998E+02 -0.76027E+06
 0.30649998E+02 -0.86183E+06
 0.30699997E+02 -0.90843E+06
 0.30749996E+02 -0.93499E+06
 0.30799999E+02 -0.96934E+06
 0.30849998E+02 -0.99301E+06
 0.30899998E+02 -0.97834E+06
 0.30949997E+02 -0.94113E+06
 0.30999996E+02 -0.87436E+06
 0.31049999E+02 -0.10041E+07
 0.31099998E+02 -0.10517E+07
 0.31149998E+02 -0.10404E+07
 0.31199997E+02 -0.10905E+07
 0.31249996E+02 -0.11055E+07
 0.31299999E+02 -0.99098E+06
 0.31349998E+02 -0.83545E+06
 0.31399998E+02 -0.77038E+06
 0.31449997E+02 -0.69452E+06
 0.31499996E+02 -0.63010E+06
 0.31549999E+02 -0.56865E+06
 0.31599998E+02 -0.61050E+06
 0.31649998E+02 -0.74142E+06
 0.31699997E+02 -0.92361E+06
 0.31749996E+02 -0.11588E+07
 0.31799999E+02 -0.14526E+07
 0.31849998E+02 -0.17160E+07
 0.31899998E+02 -0.19034E+07
 0.31949997E+02 -0.19791E+07
 0.31999996E+02 -0.19639E+07
 0.32049999E+02 -0.19218E+07
 0.32099998E+02 -0.19000E+07
 0.32149998E+02 -0.19040E+07
 0.32199997E+02 -0.19059E+07
 0.32249996E+02 -0.18249E+07
 0.32299999E+02 -0.17237E+07
 0.32349998E+02 -0.16781E+07
 0.32399998E+02 -0.16059E+07
 0.32449997E+02 -0.15609E+07
 0.32499996E+02 -0.15096E+07
 0.32549999E+02 -0.14725E+07
 0.32599998E+02 -0.14441E+07
 0.32649998E+02 -0.14462E+07
 0.32699997E+02 -0.14360E+07
 0.32749996E+02 -0.14394E+07
 0.32799999E+02 -0.13669E+07
 0.32849998E+02 -0.11685E+07
 0.32899998E+02 -0.98775E+06
 0.32949997E+02 -0.80218E+06
 0.32999996E+02 -0.61992E+06
 0.33049999E+02 -0.43840E+06
 0.33099998E+02 -0.30795E+06
 0.33149998E+02 -0.20848E+06
 0.33199997E+02 -0.20262E+06
 0.33249996E+02 -0.26532E+06
 0.33299999E+02 -0.34252E+06
 0.33349998E+02 -0.39849E+06
 0.33399998E+02 -0.46848E+06
 0.33449997E+02 -0.58921E+06
 0.33499996E+02 -0.64197E+06
 0.33549999E+02 -0.68861E+06
 0.33599998E+02 -0.70214E+06
 0.33649998E+02 -0.68197E+06
 0.33699997E+02 -0.63378E+06
 0.33749996E+02 -0.56793E+06
 0.33799999E+02 -0.52282E+06
 0.33849998E+02 -0.52921E+06
 0.33899998E+02 -0.62803E+06
 0.33949997E+02 -0.81166E+06
 0.33999996E+02 -0.98164E+06
 0.34049999E+02 -0.10301E+07
 0.34099998E+02 -0.10727E+07
 0.34149998E+02 -0.11395E+07
 0.34199997E+02 -0.11981E+07
 0.34249996E+02 -0.12735E+07
 0.34299999E+02 -0.13057E+07
 0.34349998E+02 -0.12340E+07
 0.34399998E+02 -0.11171E+07
 0.34449997E+02 -0.94770E+06
 0.34499996E+02 -0.75426E+06
 0.34549999E+02 -0.62449E+06
 0.34599998E+02 -0.50311E+06
 0.34649998E+02 -0.41112E+06
 0.34699997E+02 -0.30804E+06
 0.34749996E+02 -0.46221E+06
 0.34799999E+02 -0.71684E+06
 0.34849998E+02 -0.81569E+06
 0.34899998E+02 -0.95942E+06
 0.34949997E+02 -0.10265E+07
 0.34999996E+02 -0.10332E+07
 0.35049999E+02 -0.10017E+07
 0.35099998E+02 -0.99828E+06
 0.35149998E+02 -0.10561E+07
 0.35199997E+02 -0.11090E+07
 0.35249996E+02 -0.11400E+07
 0.35299999E+02 -0.11675E+07
 0.35349998E+02 -0.12004E+07
 0.35399998E+02 -0.12532E+07
 0.35449997E+02 -0.13268E+07
 0.35499996E+02 -0.13953E+07
 0.35549999E+02 -0.14654E+07
 0.35599998E+02 -0.15220E+07
 0.35649998E+02 -0.15408E+07
 0.35699997E+02 -0.15073E+07
 0.35749996E+02 -0.14460E+07
 0.35799999E+02 -0.14479E+07
 0.35849998E+02 -0.15030E+07
 0.35899998E+02 -0.16014E+07
 0.35949997E+02 -0.17336E+07
 0.35999996E+02 -0.18002E+07
 0.36049999E+02 -0.17878E+07
 0.36099998E+02 -0.17270E+07
 0.36149998E+02 -0.17065E+07
 0.36199997E+02 -0.17012E+07
 0.36249996E+02 -0.16828E+07
 0.36299999E+02 -0.16993E+07
 0.36349998E+02 -0.17474E+07
 0.36399998E+02 -0.17837E+07
 0.36449997E+02 -0.17656E+07
 0.36499996E+02 -0.16431E+07
 0.36549999E+02 -0.15479E+07
 0.36599998E+02 -0.13211E+07
 0.36649998E+02 -0.13502E+07
 0.36699997E+02 -0.15278E+07
 0.36749996E+02 -0.14215E+07
 0.36799999E+02 -0.13903E+07
 0.36849998E+02 -0.13372E+07
 0.36899998E+02 -0.13237E+07
 0.36949997E+02 -0.13595E+07
 0.36999996E+02 -0.14368E+07
 0.37049999E+02 -0.15115E+07
 0.37099998E+02 -0.15740E+07
 0.37149998E+02 -0.16915E+07
 0.37199997E+02 -0.18363E+07
 0.37249996E+02 -0.19390E+07
 0.37299999E+02 -0.20451E+07
 0.37349998E+02 -0.22326E+07
 0.37399998E+02 -0.24056E+07
 0.37449997E+02 -0.25043E+07
 0.37499996E+02 -0.25432E+07
 0.37549999E+02 -0.25937E+07
 0.37599998E+02 -0.26327E+07
 0.37649998E+02 -0.26550E+07
 0.37699997E+02 -0.26601E+07
 0.37749996E+02 -0.26005E+07
 0.37799999E+02 -0.25333E+07
 0.37849998E+02 -0.24710E+07
 0.37899998E+02 -0.23619E+07
 0.37949997E+02 -0.21888E+07
 0.37999996E+02 -0.20113E+07
 0.38049999E+02 -0.18822E+07
 0.38099998E+02 -0.17661E+07
 0.38149998E+02 -0.16848E+07
 0.38199997E+02 -0.16704E+07
 0.38249996E+02 -0.17203E+07
 0.38299999E+02 -0.17897E+07
 0.38349998E+02 -0.18712E+07
 0.38399998E+02 -0.19341E+07
 0.38449997E+02 -0.19701E+07
 0.38499996E+02 -0.19667E+07
 0.38549999E+02 -0.18995E+07
 0.38599998E+02 -0.18329E+07
 0.38649998E+02 -0.17993E+07
 0.38699997E+02 -0.17569E+07
 0.38749996E+02 -0.16729E+07
 0.38799999E+02 -0.15707E+07
 0.38849998E+02 -0.14464E+07
 0.38899998E+02 -0.13400E+07
 0.38949997E+02 -0.12973E+07
 0.38999996E+02 -0.12911E+07
 0.39049999E+02 -0.12763E+07
 0.39099998E+02 -0.13065E+07
 0.39149998E+02 -0.13932E+07
 0.39199997E+02 -0.14602E+07
 0.39249996E+02 -0.15263E+07
 0.39299999E+02 -0.16119E+07
 0.39349998E+02 -0.16815E+07
 0.39399998E+02 -0.17539E+07
 0.39449997E+02 -0.18476E+07
 0.39499996E+02 -0.19306E+07
 0.39549999E+02 -0.19801E+07
 0.39599998E+02 -0.19570E+07
 0.39649998E+02 -0.18869E+07
 0.39699997E+02 -0.18340E+07
 0.39749996E+02 -0.18211E+07
 0.39799999E+02 -0.18018E+07
 0.39849998E+02 -0.17516E+07
 0.39899998E+02 -0.17476E+07
 0.39949997E+02 -0.17904E+07
 0.39999996E+02 -0.18386E+07
 0.40049999E+02 -0.18832E+07
 0.40099998E+02 -0.19046E+07
 0.40149998E+02 -0.18918E+07
 0.40199997E+02 -0.18582E+07
 0.40249996E+02 -0.17597E+07
 0.40299999E+02 -0.16202E+07
 0.40349998E+02 -0.14727E+07
 0.40399998E+02 -0.13389E+07
 0.40449997E+02 -0.12617E+07
 0.40499996E+02 -0.12224E+07
 0.40549999E+02 -0.11649E+07
 0.40599998E+02 -0.10872E+07
 0.40649998E+02 -0.10375E+07
 0.40699997E+02 -0.10304E+07
 0.40749996E+02 -0.10469E+07
 0.40799999E+02 -0.10779E+07
 0.40849998E+02 -0.11402E+07
 0.40899998E+02 -0.12493E+07
 0.40949997E+02 -0.13121E+07
 0.40999996E+02 -0.13506E+07
 0.41049999E+02 -0.13809E+07
 0.41099998E+02 -0.13683E+07
 0.41149998E+02 -0.13931E+07
 0.41199997E+02 -0.14061E+07
 0.41249996E+02 -0.17222E+07
 0.41299999E+02 -0.19702E+07
 0.41349998E+02 -0.19934E+07
 0.41399998E+02 -0.20219E+07
 0.41449997E+02 -0.19862E+07
 0.41499996E+02 -0.20007E+07
 0.41549999E+02 -0.19711E+07
 0.41599998E+02 -0.19338E+07
 0.41649998E+02 -0.18632E+07
 0.41699997E+02 -0.17758E+07
 0.41749996E+02 -0.16863E+07
 0.41799999E+02 -0.16149E+07
 0.41849998E+02 -0.15613E+07
 0.41899998E+02 -0.15314E+07
 0.41949997E+02 -0.15117E+07
 0.41999996E+02 -0.14490E+07
 0.42049999E+02 -0.13594E+07
 0.42099998E+02 -0.12708E+07
 0.42149998E+02 -0.11850E+07
 0.42199997E+02 -0.11176E+07
 0.42249996E+02 -0.10612E+07
 0.42299999E+02 -0.99719E+06
 0.42349998E+02 -0.99516E+06
 0.42399998E+02 -0.11130E+07
 0.42449997E+02 -0.13191E+07
 0.42499996E+02 -0.15171E+07
 0.42549999E+02 -0.17199E+07
 0.42599998E+02 -0.18965E+07
 0.42649998E+02 -0.20175E+07
 0.42699997E+02 -0.20653E+07
 0.42749996E+02 -0.20645E+07
 0.42799995E+02 -0.20239E+07
 0.42849998E+02 -0.19538E+07
 0.42899998E+02 -0.18296E+07
 0.42949997E+02 -0.17190E+07
 0.42999996E+02 -0.16473E+07
 0.43049995E+02 -0.14395E+07
 0.43099998E+02 -0.12419E+07
 0.43149998E+02 -0.10879E+07
 0.43199997E+02 -0.97923E+06
 0.43249996E+02 -0.88270E+06
 0.43299995E+02 -0.76789E+06
 0.43349998E+02 -0.69228E+06
 0.43399998E+02 -0.64982E+06
 0.43449997E+02 -0.66207E+06
 0.43499996E+02 -0.72626E+06
 0.43549995E+02 -0.86063E+06
 0.43599998E+02 -0.10103E+07
 0.43649998E+02 -0.11454E+07
 0.43699997E+02 -0.12806E+07
 0.43749996E+02 -0.14106E+07
 0.43799995E+02 -0.15264E+07
 0.43849998E+02 -0.16207E+07
 0.43899998E+02 -0.16835E+07
 0.43949997E+02 -0.16935E+07
 0.43999996E+02 -0.16703E+07
 0.44049995E+02 -0.16319E+07
 0.44099998E+02 -0.15635E+07
 0.44149998E+02 -0.14603E+07
 0.44199997E+02 -0.13245E+07
 0.44249996E+02 -0.11780E+07
 0.44299995E+02 -0.10388E+07
 0.44349998E+02 -0.10323E+07
 0.44399998E+02 -0.11523E+07
 0.44449997E+02 -0.12676E+07
 0.44499996E+02 -0.14029E+07
 0.44549995E+02 -0.15229E+07
 0.44599998E+02 -0.16340E+07
 0.44649998E+02 -0.17004E+07
 0.44699997E+02 -0.17858E+07
 0.44749996E+02 -0.17883E+07
 0.44799995E+02 -0.18203E+07
 0.44849998E+02 -0.19656E+07
 0.44899998E+02 -0.19676E+07
 0.44949997E+02 -0.19699E+07
 0.44999996E+02 -0.19715E+07
 0.45049995E+02 -0.19779E+07
 0.45099998E+02 -0.19926E+07
 0.45149998E+02 -0.19812E+07
 0.45199997E+02 -0.19736E+07
 0.45249996E+02 -0.19852E+07
 0.45299995E+02 -0.20048E+07
 0.45349998E+02 -0.20107E+07
 0.45399998E+02 -0.19788E+07
 0.45449997E+02 -0.19073E+07
 0.45499996E+02 -0.18323E+07
 0.45549995E+02 -0.17707E+07
 0.45599998E+02 -0.17214E+07
 0.45649998E+02 -0.16697E+07
 0.45699997E+02 -0.16503E+07
 0.45749996E+02 -0.16656E+07
 0.45799995E+02 -0.16734E+07
 0.45849998E+02 -0.16639E+07
 0.45899998E+02 -0.16810E+07
 0.45949997E+02 -0.17572E+07
 0.45999996E+02 -0.18758E+07
 0.46049995E+02 -0.19730E+07
 0.46099998E+02 -0.20291E+07
 0.46149998E+02 -0.20444E+07
 0.46199997E+02 -0.20051E+07
 0.46249996E+02 -0.19162E+07
 0.46299995E+02 -0.18089E+07
 0.46349998E+02 -0.17128E+07
 0.46399998E+02 -0.16399E+07
 0.46449997E+02 -0.16010E+07
 0.46499996E+02 -0.15980E+07
 0.46549995E+02 -0.16276E+07
 0.46599998E+02 -0.16932E+07
 0.46649998E+02 -0.17926E+07
 0.46699997E+02 -0.19178E+07
 0.46749996E+02 -0.20453E+07
 0.46799995E+02 -0.21440E+07
 0.46849998E+02 -0.21837E+07
 0.46899998E+02 -0.21449E+07
 0.46949997E+02 -0.20389E+07
 0.46999996E+02 -0.18777E+07
 0.47049995E+02 -0.16912E+07
 0.47099998E+02 -0.15225E+07
 0.47149998E+02 -0.13906E+07
 0.47199997E+02 -0.13076E+07
 0.47249996E+02 -0.12768E+07
 0.47299995E+02 -0.12749E+07
 0.47349998E+02 -0.12712E+07
 0.47399998E+02 -0.12572E+07
 0.47449997E+02 -0.12323E+07
 0.47499996E+02 -0.12168E+07
 0.47549995E+02 -0.12243E+07
 0.47599998E+02 -0.12254E+07
 0.47649998E+02 -0.12276E+07
 0.47699997E+02 -0.12470E+07
 0.47749996E+02 -0.12413E+07
 0.47799995E+02 -0.11992E+07
 0.47849998E+02 -0.11519E+07
 0.47899998E+02 -0.10971E+07
 0.47949997E+02 -0.10402E+07
 0.47999996E+02 -0.10247E+07
 0.48049995E+02 -0.10490E+07
 0.48099998E+02 -0.11015E+07
 0.48149998E+02 -0.11831E+07
 0.48199997E+02 -0.12765E+07
 0.48249996E+02 -0.13817E+07
 0.48299995E+02 -0.15010E+07
 0.48349998E+02 -0.15987E+07
 0.48399998E+02 -0.16406E+07
 0.48449997E+02 -0.16550E+07
 0.48499996E+02 -0.16725E+07
 0.48549995E+02 -0.16576E+07
 0.48599998E+02 -0.15891E+07
 0.48649998E+02 -0.14925E+07
 0.48699997E+02 -0.13706E+07
 0.48749996E+02 -0.12412E+07
 0.48799995E+02 -0.11277E+07
 0.48849998E+02 -0.10241E+07
 0.48899998E+02 -0.93426E+06
 0.48949997E+02 -0.86724E+06
 0.48999996E+02 -0.81399E+06
 0.49049995E+02 -0.77919E+06
 0.49099998E+02 -0.76376E+06
 0.49149998E+02 -0.75041E+06
 0.49199997E+02 -0.74937E+06
 0.49249996E+02 -0.75299E+06
 0.49299995E+02 -0.74135E+06
 0.49349998E+02 -0.72148E+06
 0.49399998E+02 -0.70164E+06
 0.49449997E+02 -0.68731E+06
 0.49499996E+02 -0.67230E+06
 0.49549995E+02 -0.66333E+06
 0.49599998E+02 -0.68348E+06
 0.49649998E+02 -0.73992E+06
 0.49699997E+02 -0.81212E+06
 0.49749996E+02 -0.90115E+06
 0.49799995E+02 -0.10026E+07
 0.49849998E+02 -0.10888E+07
 0.49899998E+02 -0.11596E+07
 0.49949997E+02 -0.12169E+07
 0.49999996E+02 -0.12735E+07
 0.50049995E+02 -0.13323E+07
 0.50099998E+02 -0.13870E+07
 0.50149998E+02 -0.14295E+07
 0.50199997E+02 -0.14533E+07
 0.50249996E+02 -0.14626E+07
 0.50299995E+02 -0.14500E+07
 0.50349998E+02 -0.14147E+07
 0.50399998E+02 -0.13472E+07
 0.50449997E+02 -0.12361E+07
 0.50499996E+02 -0.10973E+07
 0.50549995E+02 -0.94075E+06
 0.50599998E+02 -0.77586E+06
 0.50649998E+02 -0.62206E+06
 0.50699997E+02 -0.49840E+06
 0.50749996E+02 -0.38947E+06
 0.50799995E+02 -0.29650E+06
 0.50849998E+02 -0.23923E+06
 0.50899998E+02 -0.22250E+06
 0.50949997E+02 -0.24707E+06
 0.50999996E+02 -0.29509E+06
 0.51049995E+02 -0.38884E+06
 0.51099998E+02 -0.51391E+06
 0.51149998E+02 -0.62955E+06
 0.51199997E+02 -0.73827E+06
 0.51249996E+02 -0.83474E+06
 0.51299995E+02 -0.89498E+06
 0.51349998E+02 -0.91850E+06
 0.51399998E+02 -0.92876E+06
 0.51449997E+02 -0.91797E+06
 0.51499996E+02 -0.88885E+06
 0.51549995E+02 -0.87183E+06
 0.51599998E+02 -0.87501E+06
 0.51649998E+02 -0.89319E+06
 0.51699997E+02 -0.92520E+06
 0.51749996E+02 -0.94385E+06
 0.51799995E+02 -0.91371E+06
 0.51849998E+02 -0.86040E+06
 0.51899998E+02 -0.81188E+06
 0.51949997E+02 -0.75975E+06
 0.51999996E+02 -0.70539E+06
 0.52049995E+02 -0.64405E+06
 0.52099998E+02 -0.57165E+06
 0.52149998E+02 -0.50449E+06
 0.52199997E+02 -0.44302E+06
 0.52249996E+02 -0.37864E+06
 0.52299995E+02 -0.31473E+06
 0.52349998E+02 -0.25194E+06
 0.52399998E+02 -0.19158E+06
 0.52449997E+02 -0.13741E+06
 0.52499996E+02 -0.10707E+06
 0.52549995E+02 -0.98823E+05
 0.52599998E+02 -0.10093E+06
 0.52649998E+02 -0.11284E+06
 0.52699997E+02 -0.12768E+06
 0.52749996E+02 -0.14193E+06
 0.52799995E+02 -0.17616E+06
 0.52849998E+02 -0.24087E+06
 0.52899998E+02 -0.31167E+06
 0.52949997E+02 -0.37569E+06
 0.52999996E+02 -0.43916E+06
 0.53049995E+02 -0.50556E+06
 0.53099998E+02 -0.57333E+06
 0.53149998E+02 -0.64589E+06
 0.53199997E+02 -0.70495E+06
 0.53249996E+02 -0.74726E+06
 0.53299995E+02 -0.77910E+06
 0.53349998E+02 -0.77298E+06
 0.53399998E+02 -0.71868E+06
 0.53449997E+02 -0.64469E+06
 0.53499996E+02 -0.56869E+06
 0.53549995E+02 -0.49007E+06
 0.53599998E+02 -0.41377E+06
 0.53649998E+02 -0.33813E+06
 0.53699997E+02 -0.26695E+06
 0.53749996E+02 -0.20460E+06
 0.53799995E+02 -0.15066E+06
 0.53849998E+02 -0.10708E+06
 0.53899998E+02 -0.69498E+05
 0.53949997E+02 -0.31271E+05
 0.53999996E+02  0.50041E+04
 0.54049995E+02  0.43822E+05
 0.54099998E+02  0.82388E+05
 0.54149998E+02  0.10391E+06
 0.54199997E+02  0.10061E+06
 0.54249996E+02  0.78220E+05
 0.54299995E+02  0.43842E+05
 0.54349998E+02 -0.60137E+04
 0.54399998E+02 -0.66859E+05
 0.54449997E+02 -0.14468E+06
 0.54499996E+02 -0.24817E+06
 0.54549995E+02 -0.36265E+06
 0.54599998E+02 -0.47386E+06
 0.54649998E+02 -0.57228E+06
 0.54699997E+02 -0.65305E+06
 0.54749996E+02 -0.72124E+06
 0.54799995E+02 -0.76473E+06
 0.54849998E+02 -0.77932E+06
 0.54899998E+02 -0.76656E+06
 0.54949997E+02 -0.72488E+06
 0.54999996E+02 -0.66494E+06
 0.55049995E+02 -0.58009E+06
 0.55099998E+02 -0.47327E+06
 0.55149998E+02 -0.35443E+06
 0.55199997E+02 -0.22913E+06
 0.55249996E+02 -0.97413E+05
 0.55299995E+02  0.30033E+05
 0.55349998E+02  0.13308E+06
 0.55399998E+02  0.20727E+06
 0.55449997E+02  0.24905E+06
 0.55499996E+02  0.24643E+06
 0.55549995E+02  0.19372E+06
 0.55599998E+02  0.12527E+06
 0.55649998E+02  0.66983E+05
 0.55699997E+02  0.33574E+04
 0.55749996E+02 -0.64022E+05
 0.55799995E+02 -0.11179E+06
 0.55849995E+02 -0.14944E+06
 0.55899998E+02 -0.19117E+06
 0.55949997E+02 -0.21866E+06
 0.55999996E+02 -0.22522E+06
 0.56049995E+02 -0.21852E+06
 0.56099995E+02 -0.20848E+06
 0.56149998E+02 -0.20139E+06
 0.56199997E+02 -0.19865E+06
 0.56249996E+02 -0.19742E+06
 0.56299995E+02 -0.18766E+06
 0.56349995E+02 -0.16682E+06
 0.56399998E+02 -0.13325E+06
 0.56449997E+02 -0.84915E+05
 0.56499996E+02 -0.26584E+05
 0.56549995E+02  0.35309E+05
 0.56599995E+02  0.90012E+05
 0.56649998E+02  0.12865E+06
 0.56699997E+02  0.15002E+06
 0.56749996E+02  0.15108E+06
 0.56799995E+02  0.14339E+06
 0.56849995E+02  0.14233E+06
 0.56899998E+02  0.14799E+06
 0.56949997E+02  0.15000E+06
 0.56999996E+02  0.14697E+06
 0.57049995E+02  0.15126E+06
 0.57099995E+02  0.16508E+06
 0.57149998E+02  0.17429E+06
 0.57199997E+02  0.17205E+06
 0.57249996E+02  0.15894E+06
 0.57299995E+02  0.13934E+06
 0.57349995E+02  0.12360E+06
 0.57399998E+02  0.11136E+06
 0.57449997E+02  0.99828E+05
 0.57499996E+02  0.90812E+05
 0.57549995E+02  0.82519E+05
 0.57599995E+02  0.72051E+05
 0.57649998E+02  0.61053E+05
 0.57699997E+02  0.48236E+05
 0.57749996E+02  0.40476E+05
 0.57799995E+02  0.38401E+05
 0.57849995E+02  0.35518E+05
 0.57899998E+02  0.25237E+05
 0.57949997E+02  0.11246E+05
 0.57999996E+02 -0.15107E+03
 0.58049995E+02  0.16669E+04
 0.58099995E+02  0.28496E+05
 0.58149998E+02  0.68934E+05
 0.58199997E+02  0.11568E+06
 0.58249996E+02  0.17127E+06
 0.58299995E+02  0.23127E+06
 0.58349995E+02  0.28343E+06
 0.58399998E+02  0.32357E+06
 0.58449997E+02  0.34209E+06
 0.58499996E+02  0.33405E+06
 0.58549995E+02  0.31034E+06
 0.58599995E+02  0.27721E+06
 0.58649998E+02  0.24391E+06
 0.58699997E+02  0.21706E+06
 0.58749996E+02  0.19776E+06
 0.58799995E+02  0.19127E+06
 0.58849995E+02  0.19664E+06
 0.58899998E+02  0.21782E+06
 0.58949997E+02  0.25712E+06
 0.58999996E+02  0.31819E+06
 0.59049995E+02  0.39199E+06
 0.59099995E+02  0.45547E+06
 0.59149998E+02  0.50570E+06
 0.59199997E+02  0.53403E+06
 0.59249996E+02  0.53949E+06
 0.59299995E+02  0.52057E+06
 0.59349995E+02  0.47050E+06
 0.59399998E+02  0.40942E+06
 0.59449997E+02  0.34924E+06
 0.59499996E+02  0.29800E+06
 0.59549995E+02  0.27515E+06
 0.59599995E+02  0.27994E+06
 0.59649998E+02  0.29183E+06
 0.59699997E+02  0.29717E+06
 0.59749996E+02  0.29969E+06
 0.59799995E+02  0.31004E+06
 0.59849995E+02  0.31961E+06
 0.59899998E+02  0.32077E+06
 0.59949997E+02  0.31581E+06
 0.59999996E+02  0.30002E+06
 0.60049995E+02  0.28086E+06
 0.60099995E+02  0.27218E+06
 0.60149998E+02  0.27881E+06
 0.60199997E+02  0.30450E+06
 0.60249996E+02  0.35617E+06
 0.60299995E+02  0.42706E+06
 0.60349995E+02  0.50502E+06
 0.60399998E+02  0.58685E+06
 0.60449997E+02  0.65736E+06
 0.60499996E+02  0.70701E+06
 0.60549995E+02  0.74637E+06
 0.60599995E+02  0.76681E+06
 0.60649998E+02  0.75807E+06
 0.60699997E+02  0.72743E+06
 0.60749996E+02  0.69068E+06
 0.60799995E+02  0.66004E+06
 0.60849995E+02  0.62695E+06
 0.60899998E+02  0.58607E+06
 0.60949997E+02  0.54047E+06
 0.60999996E+02  0.49790E+06
 0.61049995E+02  0.45888E+06
 0.61099995E+02  0.42805E+06
 0.61149998E+02  0.42077E+06
 0.61199997E+02  0.42945E+06
 0.61249996E+02  0.43734E+06
 0.61299995E+02  0.45152E+06
 0.61349995E+02  0.47189E+06
 0.61399998E+02  0.48853E+06
 0.61449997E+02  0.51025E+06
 0.61499996E+02  0.53957E+06
 0.61549995E+02  0.56907E+06
 0.61599995E+02  0.58807E+06
 0.61649998E+02  0.59210E+06
 0.61699997E+02  0.57473E+06
 0.61749996E+02  0.53525E+06
 0.61799995E+02  0.48199E+06
 0.61849995E+02  0.42945E+06
 0.61899998E+02  0.39646E+06
 0.61949997E+02  0.38441E+06
 0.61999996E+02  0.38403E+06
 0.62049995E+02  0.39156E+06
 0.62099998E+02  0.40218E+06
 0.62149994E+02  0.41101E+06
 0.62199997E+02  0.41676E+06
 0.62249992E+02  0.41618E+06
 0.62299995E+02  0.41285E+06
 0.62349998E+02  0.40668E+06
 0.62399994E+02  0.40072E+06
 0.62449997E+02  0.40325E+06
 0.62499992E+02  0.41366E+06
 0.62549995E+02  0.43610E+06
 0.62599998E+02  0.47384E+06
 0.62649994E+02  0.51436E+06
 0.62699997E+02  0.54863E+06
 0.62749992E+02  0.58264E+06
 0.62799995E+02  0.61884E+06
 0.62849998E+02  0.64736E+06
 0.62899994E+02  0.67156E+06
 0.62949997E+02  0.69940E+06
 0.62999992E+02  0.72716E+06
 0.63049995E+02  0.74434E+06
 0.63099998E+02  0.74070E+06
 0.63149994E+02  0.71772E+06
 0.63199997E+02  0.68313E+06
 0.63249992E+02  0.64070E+06
 0.63299995E+02  0.59608E+06
 0.63349998E+02  0.56542E+06
 0.63399994E+02  0.55605E+06
 0.63449997E+02  0.55808E+06
 0.63499992E+02  0.56797E+06
 0.63549995E+02  0.58315E+06
 0.63599998E+02  0.59013E+06
 0.63649994E+02  0.58991E+06
 0.63699997E+02  0.58436E+06
 0.63749992E+02  0.57495E+06
 0.63799995E+02  0.56973E+06
 0.63849998E+02  0.57039E+06
 0.63899994E+02  0.57373E+06
 0.63949997E+02  0.57585E+06
 0.63999992E+02  0.58206E+06
 0.64049995E+02  0.59135E+06
 0.64099998E+02  0.59800E+06
 0.64149994E+02  0.60019E+06
 0.64199997E+02  0.60237E+06
 0.64249992E+02  0.61178E+06
 0.64299995E+02  0.63109E+06
 0.64349998E+02  0.66082E+06
 0.64399994E+02  0.70059E+06
 0.64449997E+02  0.74263E+06
 0.64499992E+02  0.78518E+06
 0.64549995E+02  0.83887E+06
 0.64599998E+02  0.90324E+06
 0.64649994E+02  0.96887E+06
 0.64699997E+02  0.10288E+07
 0.64749992E+02  0.10889E+07
 0.64799995E+02  0.11435E+07
 0.64849998E+02  0.11803E+07
 0.64899994E+02  0.12005E+07
 0.64949997E+02  0.12090E+07
 0.64999992E+02  0.12084E+07
 0.65049995E+02  0.12009E+07
 0.65099998E+02  0.11877E+07
 0.65149994E+02  0.11639E+07
 0.65199997E+02  0.11248E+07
 0.65249992E+02  0.10708E+07
 0.65299995E+02  0.10044E+07
 0.65349998E+02  0.92571E+06
 0.65399994E+02  0.84484E+06
 0.65449997E+02  0.76679E+06
 0.65499992E+02  0.68962E+06
 0.65549995E+02  0.61602E+06
 0.65599998E+02  0.55052E+06
 0.65649994E+02  0.49649E+06
 0.65699997E+02  0.45163E+06
 0.65749992E+02  0.41958E+06
 0.65799995E+02  0.40349E+06
 0.65849998E+02  0.39750E+06
 0.65899994E+02  0.39810E+06
 0.65949997E+02  0.40715E+06
 0.65999992E+02  0.42745E+06
 0.66049995E+02  0.45928E+06
 0.66099998E+02  0.49718E+06
 0.66149994E+02  0.54169E+06
 0.66199997E+02  0.59127E+06
 0.66249992E+02  0.64080E+06
 0.66299995E+02  0.69501E+06
 0.66349998E+02  0.75352E+06
 0.66399994E+02  0.81428E+06
 0.66449997E+02  0.87628E+06
 0.66499992E+02  0.93496E+06
 0.66549995E+02  0.99042E+06
 0.66599998E+02  0.10446E+07
 0.66649994E+02  0.10958E+07
 0.66699997E+02  0.11380E+07
 0.66749992E+02  0.11640E+07
 0.66799995E+02  0.11664E+07
 0.66849998E+02  0.11454E+07
 0.66899994E+02  0.11112E+07
 0.66949997E+02  0.10720E+07
 0.66999992E+02  0.10295E+07
 0.67049995E+02  0.99097E+06
 0.67099998E+02  0.96873E+06
 0.67149994E+02  0.96086E+06
 0.67199997E+02  0.95961E+06
 0.67249992E+02  0.95962E+06
 0.67299995E+02  0.96071E+06
 0.67349998E+02  0.96044E+06
 0.67399994E+02  0.95141E+06
 0.67449997E+02  0.93165E+06
 0.67499992E+02  0.90665E+06
 0.67549995E+02  0.87821E+06
 0.67599998E+02  0.84618E+06
 0.67649994E+02  0.80906E+06
 0.67699997E+02  0.76678E+06
 0.67749992E+02  0.72471E+06
 0.67799995E+02  0.68391E+06
 0.67849998E+02  0.65063E+06
 0.67899994E+02  0.63110E+06
 0.67949997E+02  0.62439E+06
 0.67999992E+02  0.62297E+06
 0.68049995E+02  0.62794E+06
 0.68099998E+02  0.64067E+06
 0.68149994E+02  0.65910E+06
 0.68199997E+02  0.68173E+06
 0.68249992E+02  0.70678E+06
 0.68299995E+02  0.72751E+06
 0.68349998E+02  0.73907E+06
 0.68399994E+02  0.74591E+06
 0.68449997E+02  0.74202E+06
 0.68499992E+02  0.72525E+06
 0.68549995E+02  0.70299E+06
 0.68599998E+02  0.68531E+06
 0.68649994E+02  0.67979E+06
 0.68699997E+02  0.68225E+06
 0.68749992E+02  0.69078E+06
 0.68799995E+02  0.70822E+06
 0.68849998E+02  0.72952E+06
 0.68899994E+02  0.75507E+06
 0.68949997E+02  0.78782E+06
 0.68999992E+02  0.82417E+06
 0.69049995E+02  0.86124E+06
 0.69099998E+02  0.89762E+06
 0.69149994E+02  0.93153E+06
 0.69199997E+02  0.96197E+06
 0.69249992E+02  0.98564E+06
 0.69299995E+02  0.10020E+07
 0.69349998E+02  0.10186E+07
 0.69399994E+02  0.10396E+07
 0.69449997E+02  0.10651E+07
 0.69499992E+02  0.10910E+07
 0.69549995E+02  0.11134E+07
 0.69599998E+02  0.11375E+07
 0.69649994E+02  0.11600E+07
 0.69699997E+02  0.11722E+07
 0.69749992E+02  0.11703E+07
 0.69799995E+02  0.11538E+07
 0.69849998E+02  0.11266E+07
 0.69899994E+02  0.10968E+07
 0.69949997E+02  0.10710E+07
 0.69999992E+02  0.10439E+07
 0.70049995E+02  0.10106E+07
 0.70099998E+02  0.97639E+06
 0.70149994E+02  0.94838E+06
 0.70199997E+02  0.92803E+06
 0.70249992E+02  0.91269E+06
 0.70299995E+02  0.89560E+06
 0.70349998E+02  0.87578E+06
 0.70399994E+02  0.85514E+06
 0.70449997E+02  0.83551E+06
 0.70499992E+02  0.82423E+06
 0.70549995E+02  0.82388E+06
 0.70599998E+02  0.82811E+06
 0.70649994E+02  0.83308E+06
 0.70699997E+02  0.84588E+06
 0.70749992E+02  0.86618E+06
 0.70799995E+02  0.88991E+06
 0.70849998E+02  0.91954E+06
 0.70899994E+02  0.95696E+06
 0.70949997E+02  0.10016E+07
 0.70999992E+02  0.10530E+07
 0.71049995E+02  0.11064E+07
 0.71099998E+02  0.11539E+07
 0.71149994E+02  0.11927E+07
 0.71199997E+02  0.12207E+07
 0.71249992E+02  0.12370E+07
 0.71299995E+02  0.12411E+07
 0.71349998E+02  0.12304E+07
 0.71399994E+02  0.12080E+07
 0.71449997E+02  0.11784E+07
 0.71499992E+02  0.11432E+07
 0.71549995E+02  0.11079E+07
 0.71599998E+02  0.10824E+07
 0.71649994E+02  0.10695E+07
 0.71699997E+02  0.10619E+07
 0.71749992E+02  0.10514E+07
 0.71799995E+02  0.10388E+07
 0.71849998E+02  0.10260E+07
 0.71899994E+02  0.10058E+07
 0.71949997E+02  0.97837E+06
 0.71999992E+02  0.94567E+06
 0.72049995E+02  0.90528E+06
 0.72099998E+02  0.86520E+06
 0.72149994E+02  0.83075E+06
 0.72199997E+02  0.79855E+06
 0.72249992E+02  0.77216E+06
 0.72299995E+02  0.75841E+06
 0.72349998E+02  0.76087E+06
 0.72399994E+02  0.78080E+06
 0.72449997E+02  0.81579E+06
 0.72499992E+02  0.85651E+06
 0.72549995E+02  0.88924E+06
 0.72599998E+02  0.90693E+06
 0.72649994E+02  0.91358E+06
 0.72699997E+02  0.91644E+06
 0.72749992E+02  0.91774E+06
 0.72799995E+02  0.91664E+06
 0.72849998E+02  0.91588E+06
 0.72899994E+02  0.92027E+06
 0.72949997E+02  0.92926E+06
 0.72999992E+02  0.94408E+06
 0.73049995E+02  0.96465E+06
 0.73099998E+02  0.98460E+06
 0.73149994E+02  0.10022E+07
 0.73199997E+02  0.10186E+07
 0.73249992E+02  0.10318E+07
 0.73299995E+02  0.10434E+07
 0.73349998E+02  0.10625E+07
 0.73399994E+02  0.10925E+07
 0.73449997E+02  0.11284E+07
 0.73499992E+02  0.11654E+07
 0.73549995E+02  0.11971E+07
 0.73599998E+02  0.12223E+07
 0.73649994E+02  0.12462E+07
 0.73699997E+02  0.12677E+07
 0.73749992E+02  0.12792E+07
 0.73799995E+02  0.12781E+07
 0.73849998E+02  0.12703E+07
 0.73899994E+02  0.12594E+07
 0.73949997E+02  0.12425E+07
 0.73999992E+02  0.12164E+07
 0.74049995E+02  0.11861E+07
 0.74099998E+02  0.11546E+07
 0.74149994E+02  0.11212E+07
 0.74199997E+02  0.10927E+07
 0.74249992E+02  0.10738E+07
 0.74299995E+02  0.10602E+07
 0.74349998E+02  0.10451E+07
 0.74399994E+02  0.10271E+07
 0.74449997E+02  0.10056E+07
 0.74499992E+02  0.97969E+06
 0.74549995E+02  0.95544E+06
 0.74599998E+02  0.93345E+06
 0.74649994E+02  0.91334E+06
 0.74699997E+02  0.90269E+06
 0.74749992E+02  0.90344E+06
 0.74799995E+02  0.91425E+06
 0.74849998E+02  0.93489E+06
 0.74899994E+02  0.96229E+06
 0.74949997E+02  0.99398E+06
 0.74999992E+02  0.10292E+07
 0.75049995E+02  0.10637E+07
 0.75099998E+02  0.10955E+07
 0.75149994E+02  0.11235E+07
 0.75199997E+02  0.11464E+07
 0.75249992E+02  0.11687E+07
 0.75299995E+02  0.11920E+07
 0.75349998E+02  0.12133E+07
 0.75399994E+02  0.12295E+07
 0.75449997E+02  0.12365E+07
 0.75499992E+02  0.12332E+07
 0.75549995E+02  0.12249E+07
 0.75599998E+02  0.12140E+07
 0.75649994E+02  0.11989E+07
 0.75699997E+02  0.11804E+07
 0.75749992E+02  0.11612E+07
 0.75799995E+02  0.11384E+07
 0.75849998E+02  0.11099E+07
 0.75899994E+02  0.10822E+07
 0.75949997E+02  0.10540E+07
 0.75999992E+02  0.10200E+07
 0.76049995E+02  0.98218E+06
 0.76099998E+02  0.94659E+06
 0.76149994E+02  0.91670E+06
 0.76199997E+02  0.89424E+06
 0.76249992E+02  0.88461E+06
 0.76299995E+02  0.89049E+06
 0.76349998E+02  0.90620E+06
 0.76399994E+02  0.92318E+06
 0.76449997E+02  0.94017E+06
 0.76499992E+02  0.95920E+06
 0.76549995E+02  0.97627E+06
 0.76599998E+02  0.98521E+06
 0.76649994E+02  0.98476E+06
 0.76699997E+02  0.97546E+06
 0.76749992E+02  0.95960E+06
 0.76799995E+02  0.94156E+06
 0.76849998E+02  0.92261E+06
 0.76899994E+02  0.90398E+06
 0.76949997E+02  0.89069E+06
 0.76999992E+02  0.87931E+06
 0.77049995E+02  0.86546E+06
 0.77099998E+02  0.85171E+06
 0.77149994E+02  0.84049E+06
 0.77199997E+02  0.83313E+06
 0.77249992E+02  0.82822E+06
 0.77299995E+02  0.82877E+06
 0.77349998E+02  0.83848E+06
 0.77399994E+02  0.85797E+06
 0.77449997E+02  0.88644E+06
 0.77499992E+02  0.91885E+06
 0.77549995E+02  0.94711E+06
 0.77599998E+02  0.96686E+06
 0.77649994E+02  0.98028E+06
 0.77699997E+02  0.98802E+06
 0.77749992E+02  0.99107E+06
 0.77799995E+02  0.98942E+06
 0.77849998E+02  0.98692E+06
 0.77899994E+02  0.99004E+06
 0.77949997E+02  0.99972E+06
 0.77999992E+02  0.10144E+07
 0.78049995E+02  0.10354E+07
 0.78099998E+02  0.10649E+07
 0.78149994E+02  0.11006E+07
 0.78199997E+02  0.11418E+07
 0.78249992E+02  0.11839E+07
 0.78299995E+02  0.12196E+07
 0.78349998E+02  0.12465E+07
 0.78399994E+02  0.12673E+07
 0.78449997E+02  0.12844E+07
 0.78499992E+02  0.12983E+07
 0.78549995E+02  0.13104E+07
 0.78599998E+02  0.13198E+07
 0.78649994E+02  0.13248E+07
 0.78699997E+02  0.13234E+07
 0.78749992E+02  0.13161E+07
 0.78799995E+02  0.13029E+07
 0.78849998E+02  0.12847E+07
 0.78899994E+02  0.12638E+07
 0.78949997E+02  0.12420E+07
 0.78999992E+02  0.12205E+07
 0.79049995E+02  0.11989E+07
 0.79099998E+02  0.11780E+07
 0.79149994E+02  0.11545E+07
 0.79199997E+02  0.11225E+07
 0.79249992E+02  0.10843E+07
 0.79299995E+02  0.10451E+07
 0.79349998E+02  0.10059E+07
 0.79399994E+02  0.96797E+06
 0.79449997E+02  0.93336E+06
 0.79499992E+02  0.90207E+06
 0.79549995E+02  0.87560E+06
 0.79599998E+02  0.85803E+06
 0.79649994E+02  0.85042E+06
 0.79699997E+02  0.85386E+06
 0.79749992E+02  0.86883E+06
 0.79799995E+02  0.89217E+06
 0.79849998E+02  0.92079E+06
 0.79899994E+02  0.94993E+06
 0.79949997E+02  0.97687E+06
 0.79999992E+02  0.10017E+07
 0.80049995E+02  0.10255E+07
 0.80099998E+02  0.10487E+07
 0.80149994E+02  0.10697E+07
 0.80199997E+02  0.10859E+07
 0.80249992E+02  0.10960E+07
 0.80299995E+02  0.11007E+07
 0.80349998E+02  0.11018E+07
 0.80399994E+02  0.11007E+07
 0.80449997E+02  0.10970E+07
 0.80499992E+02  0.10899E+07
 0.80549995E+02  0.10785E+07
 0.80599998E+02  0.10634E+07
 0.80649994E+02  0.10478E+07
 0.80699997E+02  0.10342E+07
 0.80749992E+02  0.10265E+07
 0.80799995E+02  0.10253E+07
 0.80849998E+02  0.10286E+07
 0.80899994E+02  0.10360E+07
 0.80949997E+02  0.10469E+07
 0.80999992E+02  0.10606E+07
 0.81049995E+02  0.10749E+07
 0.81099998E+02  0.10894E+07
 0.81149994E+02  0.11070E+07
 0.81199997E+02  0.11252E+07
 0.81249992E+02  0.11413E+07
 0.81299995E+02  0.11546E+07
 0.81349998E+02  0.11650E+07
 0.81399994E+02  0.11763E+07
 0.81449997E+02  0.11890E+07
 0.81499992E+02  0.12011E+07
 0.81549995E+02  0.12099E+07
 0.81599998E+02  0.12129E+07
 0.81649994E+02  0.12079E+07
 0.81699997E+02  0.11950E+07
 0.81749992E+02  0.11750E+07
 0.81799995E+02  0.11506E+07
 0.81849998E+02  0.11237E+07
 0.81899994E+02  0.10939E+07
 0.81949997E+02  0.10633E+07
 0.81999992E+02  0.10368E+07
 0.82049995E+02  0.10158E+07
 0.82099998E+02  0.99859E+06
 0.82149994E+02  0.98416E+06
 0.82199997E+02  0.96866E+06
 0.82249992E+02  0.94937E+06
 0.82299995E+02  0.92691E+06
 0.82349998E+02  0.90199E+06
 0.82399994E+02  0.87512E+06
 0.82449997E+02  0.84657E+06
 0.82499992E+02  0.81851E+06
 0.82549995E+02  0.79606E+06
 0.82599998E+02  0.77967E+06
 0.82649994E+02  0.76814E+06
 0.82699997E+02  0.76503E+06
 0.82749992E+02  0.77316E+06
 0.82799995E+02  0.79136E+06
 0.82849998E+02  0.81401E+06
 0.82899994E+02  0.83568E+06
 0.82949997E+02  0.85623E+06
 0.82999992E+02  0.87451E+06
 0.83049995E+02  0.88778E+06
 0.83099998E+02  0.89811E+06
 0.83149994E+02  0.90712E+06
 0.83199997E+02  0.91429E+06
 0.83249992E+02  0.91839E+06
 0.83299995E+02  0.91856E+06
 0.83349998E+02  0.91726E+06
 0.83399994E+02  0.91764E+06
 0.83449997E+02  0.92087E+06
 0.83499992E+02  0.92651E+06
 0.83549995E+02  0.93525E+06
 0.83599998E+02  0.94642E+06
 0.83649994E+02  0.95828E+06
 0.83699997E+02  0.97075E+06
 0.83749992E+02  0.98348E+06
 0.83799995E+02  0.99638E+06
 0.83849998E+02  0.10096E+07
 0.83899994E+02  0.10244E+07
 0.83949997E+02  0.10422E+07
 0.83999992E+02  0.10632E+07
 0.84049995E+02  0.10857E+07
 0.84099998E+02  0.11080E+07
 0.84149994E+02  0.11284E+07
 0.84199997E+02  0.11437E+07
 0.84249992E+02  0.11486E+07
 0.84299995E+02  0.11405E+07
 0.84349998E+02  0.11219E+07
 0.84399994E+02  0.10965E+07
 0.84449997E+02  0.10688E+07
 0.84499992E+02  0.10462E+07
 0.84549995E+02  0.10343E+07
 0.84599998E+02  0.10324E+07
 0.84649994E+02  0.10383E+07
 0.84699997E+02  0.10474E+07
 0.84749992E+02  0.10553E+07
 0.84799995E+02  0.10617E+07
 0.84849998E+02  0.10675E+07
 0.84899994E+02  0.10732E+07
 0.84949997E+02  0.10779E+07
 0.84999992E+02  0.10824E+07
 0.85049995E+02  0.10878E+07
 0.85099998E+02  0.10923E+07
 0.85149994E+02  0.10929E+07
 0.85199997E+02  0.10882E+07
 0.85249992E+02  0.10806E+07
 0.85299995E+02  0.10719E+07
 0.85349998E+02  0.10595E+07
 0.85399994E+02  0.10432E+07
 0.85449997E+02  0.10262E+07
 0.85499992E+02  0.10108E+07
 0.85549995E+02  0.99598E+06
 0.85599998E+02  0.98014E+06
 0.85649994E+02  0.96309E+06
 0.85699997E+02  0.94793E+06
 0.85749992E+02  0.93960E+06
 0.85799995E+02  0.93962E+06
 0.85849998E+02  0.94779E+06
 0.85899994E+02  0.96410E+06
 0.85949997E+02  0.98770E+06
 0.85999992E+02  0.10144E+07
 0.86049995E+02  0.10380E+07
 0.86099998E+02  0.10554E+07
 0.86149994E+02  0.10650E+07
 0.86199997E+02  0.10688E+07
 0.86249992E+02  0.10703E+07
 0.86299995E+02  0.10698E+07
 0.86349998E+02  0.10688E+07
 0.86399994E+02  0.10688E+07
 0.86449997E+02  0.10697E+07
 0.86499992E+02  0.10715E+07
 0.86549995E+02  0.10732E+07
 0.86599998E+02  0.10690E+07
 0.86649994E+02  0.10555E+07
 0.86699997E+02  0.10345E+07
 0.86749992E+02  0.10074E+07
 0.86799995E+02  0.97504E+06
 0.86849998E+02  0.94162E+06
 0.86899994E+02  0.91282E+06
 0.86949997E+02  0.89185E+06
 0.86999992E+02  0.87989E+06
 0.87049995E+02  0.87552E+06
 0.87099998E+02  0.87769E+06
 0.87149994E+02  0.88588E+06
 0.87199997E+02  0.89598E+06
 0.87249992E+02  0.90412E+06
 0.87299995E+02  0.90676E+06
 0.87349998E+02  0.90080E+06
 0.87399994E+02  0.88836E+06
 0.87449997E+02  0.87164E+06
 0.87499992E+02  0.85139E+06
 0.87549995E+02  0.82903E+06
 0.87599991E+02  0.80709E+06
 0.87649994E+02  0.78698E+06
 0.87699997E+02  0.76972E+06
 0.87749992E+02  0.75840E+06
 0.87799995E+02  0.75508E+06
 0.87849991E+02  0.76090E+06
 0.87899994E+02  0.77349E+06
 0.87949997E+02  0.78760E+06
 0.87999992E+02  0.80092E+06
 0.88049995E+02  0.81339E+06
 0.88099991E+02  0.82422E+06
 0.88149994E+02  0.83269E+06
 0.88199997E+02  0.83923E+06
 0.88249992E+02  0.84526E+06
 0.88299995E+02  0.85133E+06
 0.88349991E+02  0.85985E+06
 0.88399994E+02  0.87089E+06
 0.88449997E+02  0.88155E+06
 0.88499992E+02  0.88877E+06
 0.88549995E+02  0.89225E+06
 0.88599991E+02  0.89571E+06
 0.88649994E+02  0.89951E+06
 0.88699997E+02  0.90464E+06
 0.88749992E+02  0.91219E+06
 0.88799995E+02  0.92171E+06
 0.88849991E+02  0.93429E+06
 0.88899994E+02  0.95100E+06
 0.88949997E+02  0.96898E+06
 0.88999992E+02  0.98609E+06
 0.89049995E+02  0.10033E+07
 0.89099991E+02  0.10194E+07
 0.89149994E+02  0.10346E+07
 0.89199997E+02  0.10526E+07
 0.89249992E+02  0.10748E+07
 0.89299995E+02  0.11000E+07
 0.89349991E+02  0.11272E+07
 0.89399994E+02  0.11526E+07
 0.89449997E+02  0.11721E+07
 0.89499992E+02  0.11832E+07
 0.89549995E+02  0.11851E+07
 0.89599991E+02  0.11811E+07
 0.89649994E+02  0.11731E+07
 0.89699997E+02  0.11617E+07
 0.89749992E+02  0.11490E+07
 0.89799995E+02  0.11348E+07
 0.89849991E+02  0.11155E+07
 0.89899994E+02  0.10889E+07
 0.89949997E+02  0.10572E+07
 0.89999992E+02  0.10243E+07
 0.90049995E+02  0.99362E+06
 0.90099991E+02  0.96689E+06
 0.90149994E+02  0.94381E+06
 0.90199997E+02  0.92184E+06
 0.90249992E+02  0.89884E+06
 0.90299995E+02  0.87448E+06
 0.90349991E+02  0.84956E+06
 0.90399994E+02  0.82536E+06
 0.90449997E+02  0.80208E+06
 0.90499992E+02  0.78307E+06
 0.90549995E+02  0.77150E+06
 0.90599991E+02  0.76618E+06
 0.90649994E+02  0.76634E+06
 0.90699997E+02  0.77257E+06
 0.90749992E+02  0.78433E+06
 0.90799995E+02  0.80000E+06
 0.90849991E+02  0.81867E+06
 0.90899994E+02  0.83852E+06
 0.90949997E+02  0.85739E+06
 0.90999992E+02  0.87311E+06
 0.91049995E+02  0.88320E+06
 0.91099991E+02  0.88477E+06
 0.91149994E+02  0.87710E+06
 0.91199997E+02  0.86265E+06
 0.91249992E+02  0.84532E+06
 0.91299995E+02  0.82864E+06
 0.91349991E+02  0.81405E+06
 0.91399994E+02  0.80140E+06
 0.91449997E+02  0.79146E+06
 0.91499992E+02  0.78569E+06
 0.91549995E+02  0.78367E+06
 0.91599991E+02  0.78270E+06
 0.91649994E+02  0.78011E+06
 0.91699997E+02  0.77623E+06
 0.91749992E+02  0.77227E+06
 0.91799995E+02  0.76932E+06
 0.91849991E+02  0.76616E+06
 0.91899994E+02  0.76234E+06
 0.91949997E+02  0.75793E+06
 0.91999992E+02  0.75287E+06
 0.92049995E+02  0.75095E+06
 0.92099991E+02  0.75302E+06
 0.92149994E+02  0.75739E+06
 0.92199997E+02  0.76279E+06
 0.92249992E+02  0.76765E+06
 0.92299995E+02  0.77232E+06
 0.92349991E+02  0.77666E+06
 0.92399994E+02  0.78037E+06
 0.92449997E+02  0.78481E+06
 0.92499992E+02  0.79303E+06
 0.92549995E+02  0.80618E+06
 0.92599991E+02  0.82275E+06
 0.92649994E+02  0.84164E+06
 0.92699997E+02  0.86042E+06
 0.92749992E+02  0.87656E+06
 0.92799995E+02  0.88899E+06
 0.92849991E+02  0.89710E+06
 0.92899994E+02  0.89990E+06
 0.92949997E+02  0.89714E+06
 0.92999992E+02  0.88930E+06
 0.93049995E+02  0.87958E+06
 0.93099991E+02  0.87277E+06
 0.93149994E+02  0.87263E+06
 0.93199997E+02  0.88022E+06
 0.93249992E+02  0.89209E+06
 0.93299995E+02  0.90351E+06
 0.93349991E+02  0.91236E+06
 0.93399994E+02  0.91875E+06
 0.93449997E+02  0.92085E+06
 0.93499992E+02  0.91750E+06
 0.93549995E+02  0.90866E+06
 0.93599991E+02  0.89283E+06
 0.93649994E+02  0.87164E+06
 0.93699997E+02  0.84787E+06
 0.93749992E+02  0.82113E+06
 0.93799995E+02  0.79307E+06
 0.93849991E+02  0.76758E+06
 0.93899994E+02  0.74825E+06
 0.93949997E+02  0.73712E+06
 0.93999992E+02  0.73263E+06
 0.94049995E+02  0.73286E+06
 0.94099991E+02  0.73557E+06
 0.94149994E+02  0.73816E+06
 0.94199997E+02  0.73842E+06
 0.94249992E+02  0.73566E+06
 0.94299995E+02  0.73326E+06
 0.94349991E+02  0.73370E+06
 0.94399994E+02  0.73492E+06
 0.94449997E+02  0.73565E+06
 0.94499992E+02  0.73720E+06
 0.94549995E+02  0.73996E+06
 0.94599991E+02  0.74233E+06
 0.94649994E+02  0.74317E+06
 0.94699997E+02  0.74370E+06
 0.94749992E+02  0.74681E+06
 0.94799995E+02  0.75312E+06
 0.94849991E+02  0.75977E+06
 0.94899994E+02  0.76430E+06
 0.94949997E+02  0.76572E+06
 0.94999992E+02  0.76476E+06
 0.95049995E+02  0.76287E+06
 0.95099991E+02  0.76078E+06
 0.95149994E+02  0.75973E+06
 0.95199997E+02  0.76239E+06
 0.95249992E+02  0.76837E+06
 0.95299995E+02  0.77385E+06
 0.95349991E+02  0.77837E+06
 0.95399994E+02  0.78375E+06
 0.95449997E+02  0.78870E+06
 0.95499992E+02  0.79125E+06
 0.95549995E+02  0.79201E+06
 0.95599991E+02  0.79124E+06
 0.95649994E+02  0.78702E+06
 0.95699997E+02  0.77745E+06
 0.95749992E+02  0.76605E+06
 0.95799995E+02  0.75639E+06
 0.95849991E+02  0.74616E+06
 0.95899994E+02  0.73291E+06
 0.95949997E+02  0.71713E+06
 0.95999992E+02  0.70033E+06
 0.96049995E+02  0.68299E+06
 0.96099991E+02  0.66764E+06
 0.96149994E+02  0.65670E+06
 0.96199997E+02  0.64813E+06
 0.96249992E+02  0.63932E+06
 0.96299995E+02  0.63159E+06
 0.96349991E+02  0.62715E+06
 0.96399994E+02  0.62628E+06
 0.96449997E+02  0.62896E+06
 0.96499992E+02  0.63472E+06
 0.96549995E+02  0.64271E+06
 0.96599991E+02  0.65225E+06
 0.96649994E+02  0.66316E+06
 0.96699997E+02  0.67422E+06
 0.96749992E+02  0.68358E+06
 0.96799995E+02  0.69284E+06
 0.96849991E+02  0.70400E+06
 0.96899994E+02  0.71788E+06
 0.96949997E+02  0.73590E+06
 0.96999992E+02  0.75819E+06
 0.97049995E+02  0.78233E+06
 0.97099991E+02  0.80542E+06
 0.97149994E+02  0.82888E+06
 0.97199997E+02  0.85451E+06
 0.97249992E+02  0.88139E+06
 0.97299995E+02  0.90814E+06
 0.97349991E+02  0.93170E+06
 0.97399994E+02  0.94874E+06
 0.97449997E+02  0.95795E+06
 0.97499992E+02  0.95884E+06
 0.97549995E+02  0.95127E+06
 0.97599991E+02  0.93763E+06
 0.97649994E+02  0.92161E+06
 0.97699997E+02  0.90605E+06
 0.97749992E+02  0.89315E+06
 0.97799995E+02  0.88349E+06
 0.97849991E+02  0.87632E+06
 0.97899994E+02  0.86866E+06
 0.97949997E+02  0.85883E+06
 0.97999992E+02  0.84580E+06
