-0.20000000E+01  0.38067E+04
-0.19500000E+01  0.93646E+04
-0.19000000E+01  0.15669E+05
-0.18500000E+01  0.22271E+05
-0.18000000E+01  0.28945E+05
-0.17500000E+01  0.35355E+05
-0.17000000E+01  0.41422E+05
-0.16500001E+01  0.47374E+05
-0.16000000E+01  0.53159E+05
-0.15500000E+01  0.58284E+05
-0.15000000E+01  0.62145E+05
-0.14500000E+01  0.64486E+05
-0.14000001E+01  0.65293E+05
-0.13500000E+01  0.64890E+05
-0.13000001E+01  0.63958E+05
-0.12500000E+01  0.62231E+05
-0.12000000E+01  0.59286E+05
-0.11500001E+01  0.54826E+05
-0.11000000E+01  0.48586E+05
-0.10500001E+01  0.41165E+05
-0.10000000E+01  0.32946E+05
-0.95000005E+00  0.23846E+05
-0.90000010E+00  0.13817E+05
-0.85000002E+00  0.28600E+04
-0.80000007E+00 -0.84817E+04
-0.75000012E+00 -0.19883E+05
-0.70000005E+00 -0.31621E+05
-0.65000010E+00 -0.43056E+05
-0.60000014E+00 -0.53639E+05
-0.55000007E+00 -0.63308E+05
-0.50000012E+00 -0.71493E+05
-0.45000005E+00 -0.77974E+05
-0.40000010E+00 -0.83167E+05
-0.35000014E+00 -0.86837E+05
-0.30000007E+00 -0.88882E+05
-0.25000012E+00 -0.89559E+05
-0.20000005E+00 -0.88184E+05
-0.15000010E+00 -0.85199E+05
-0.10000014E+00 -0.81056E+05
-0.50000072E-01 -0.75686E+05
-0.11920929E-06 -0.69593E+05
 0.49999952E-01 -0.62568E+05
 0.99999905E-01 -0.54960E+05
 0.14999986E+00 -0.47102E+05
 0.19999981E+00 -0.39179E+05
 0.24999976E+00 -0.31338E+05
 0.29999995E+00 -0.23821E+05
 0.34999990E+00 -0.16782E+05
 0.39999986E+00 -0.10516E+05
 0.44999981E+00 -0.55155E+04
 0.49999976E+00 -0.19083E+04
 0.54999995E+00  0.80167E+03
 0.59999990E+00  0.24315E+04
 0.64999986E+00  0.30809E+04
 0.69999981E+00  0.35323E+04
 0.74999976E+00  0.35900E+04
 0.79999971E+00  0.28005E+04
 0.84999990E+00  0.10565E+04
 0.89999986E+00 -0.70694E+03
 0.94999981E+00 -0.28565E+04
 0.99999976E+00 -0.48272E+04
 0.10499997E+01 -0.65810E+04
 0.10999999E+01 -0.82536E+04
 0.11499999E+01 -0.96843E+04
 0.11999998E+01 -0.10792E+05
 0.12499998E+01 -0.10892E+05
 0.12999997E+01 -0.10688E+05
 0.13499999E+01 -0.10083E+05
 0.13999999E+01 -0.86832E+04
 0.14499998E+01 -0.69914E+04
 0.14999998E+01 -0.52200E+04
 0.15499997E+01 -0.30484E+04
 0.15999999E+01 -0.77434E+03
 0.16499999E+01  0.15613E+04
 0.16999998E+01  0.39308E+04
 0.17499998E+01  0.62573E+04
 0.17999997E+01  0.81233E+04
 0.18499997E+01  0.99109E+04
 0.18999999E+01  0.11551E+05
 0.19499998E+01  0.12494E+05
 0.19999998E+01  0.13098E+05
 0.20499997E+01  0.13709E+05
 0.20999999E+01  0.14046E+05
 0.21499996E+01  0.14042E+05
 0.21999998E+01  0.14018E+05
 0.22499995E+01  0.13690E+05
 0.22999997E+01  0.12905E+05
 0.23499999E+01  0.11863E+05
 0.23999996E+01  0.11115E+05
 0.24499998E+01  0.10295E+05
 0.24999995E+01  0.97750E+04
 0.25499997E+01  0.99162E+04
 0.25999999E+01  0.10350E+05
 0.26499996E+01  0.11023E+05
 0.26999998E+01  0.12000E+05
 0.27499995E+01  0.13331E+05
 0.27999997E+01  0.15156E+05
 0.28499999E+01  0.17408E+05
 0.28999996E+01  0.19896E+05
 0.29499998E+01  0.22571E+05
 0.29999995E+01  0.25438E+05
 0.30499997E+01  0.28411E+05
 0.30999999E+01  0.30861E+05
 0.31499996E+01  0.33079E+05
 0.31999998E+01  0.34637E+05
 0.32499995E+01  0.35429E+05
 0.32999997E+01  0.35880E+05
 0.33499999E+01  0.35336E+05
 0.33999996E+01  0.34168E+05
 0.34499998E+01  0.32592E+05
 0.34999995E+01  0.30428E+05
 0.35499997E+01  0.27329E+05
 0.35999994E+01  0.23108E+05
 0.36499996E+01  0.18228E+05
 0.36999998E+01  0.12967E+05
 0.37499995E+01  0.75132E+04
 0.37999997E+01  0.17689E+04
 0.38499994E+01 -0.42680E+04
 0.38999996E+01 -0.10606E+05
 0.39499998E+01 -0.17023E+05
 0.39999995E+01 -0.23528E+05
 0.40499997E+01 -0.29571E+05
 0.40999994E+01 -0.35053E+05
 0.41499996E+01 -0.40095E+05
 0.41999998E+01 -0.44624E+05
 0.42499995E+01 -0.48223E+05
 0.42999997E+01 -0.50610E+05
 0.43499994E+01 -0.52285E+05
 0.43999996E+01 -0.52373E+05
 0.44499998E+01 -0.51238E+05
 0.44999995E+01 -0.49370E+05
 0.45499997E+01 -0.46740E+05
 0.45999994E+01 -0.43799E+05
 0.46499996E+01 -0.39635E+05
 0.46999998E+01 -0.34777E+05
 0.47499995E+01 -0.29854E+05
 0.47999997E+01 -0.24609E+05
 0.48499994E+01 -0.19567E+05
 0.48999996E+01 -0.14487E+05
 0.49499998E+01 -0.98472E+04
 0.49999995E+01 -0.54914E+04
 0.50499997E+01 -0.20776E+04
 0.50999994E+01  0.30644E+03
 0.51499996E+01  0.21945E+04
 0.51999998E+01  0.32049E+04
 0.52499995E+01  0.33307E+04
 0.52999997E+01  0.22665E+04
 0.53499994E+01  0.36686E+03
 0.53999996E+01 -0.27787E+04
 0.54499993E+01 -0.64848E+04
 0.54999995E+01 -0.10333E+05
 0.55499997E+01 -0.14735E+05
 0.55999994E+01 -0.19377E+05
 0.56499996E+01 -0.24319E+05
 0.56999993E+01 -0.29343E+05
 0.57499995E+01 -0.33879E+05
 0.57999997E+01 -0.37422E+05
 0.58499994E+01 -0.40131E+05
 0.58999996E+01 -0.41725E+05
 0.59499993E+01 -0.41924E+05
 0.59999995E+01 -0.40579E+05
 0.60499992E+01 -0.37595E+05
 0.60999994E+01 -0.33226E+05
 0.61499996E+01 -0.27885E+05
 0.61999998E+01 -0.21496E+05
 0.62499990E+01 -0.14299E+05
 0.62999992E+01 -0.68535E+04
 0.63499994E+01  0.94086E+03
 0.63999996E+01  0.85411E+04
 0.64499998E+01  0.15617E+05
 0.64999990E+01  0.22100E+05
 0.65499992E+01  0.27751E+05
 0.65999994E+01  0.32656E+05
 0.66499996E+01  0.37066E+05
 0.66999998E+01  0.40918E+05
 0.67499990E+01  0.44124E+05
 0.67999992E+01  0.46638E+05
 0.68499994E+01  0.48726E+05
 0.68999996E+01  0.50254E+05
 0.69499998E+01  0.51333E+05
 0.69999990E+01  0.52150E+05
 0.70499992E+01  0.52727E+05
 0.70999994E+01  0.52837E+05
 0.71499996E+01  0.52712E+05
 0.71999998E+01  0.52596E+05
 0.72499990E+01  0.52510E+05
 0.72999992E+01  0.52997E+05
 0.73499994E+01  0.53275E+05
 0.73999996E+01  0.53056E+05
 0.74499998E+01  0.52636E+05
 0.74999990E+01  0.51931E+05
 0.75499992E+01  0.50918E+05
 0.75999994E+01  0.49902E+05
 0.76499996E+01  0.48489E+05
 0.76999998E+01  0.46383E+05
 0.77499990E+01  0.43797E+05
 0.77999992E+01  0.40725E+05
 0.78499994E+01  0.37547E+05
 0.78999996E+01  0.34268E+05
 0.79499998E+01  0.30595E+05
 0.79999990E+01  0.26544E+05
 0.80499992E+01  0.22134E+05
 0.80999994E+01  0.17489E+05
 0.81499996E+01  0.12800E+05
 0.81999998E+01  0.79596E+04
 0.82499990E+01  0.30108E+04
 0.82999992E+01 -0.19670E+04
 0.83499994E+01 -0.69059E+04
 0.83999996E+01 -0.11767E+05
 0.84499998E+01 -0.16386E+05
 0.84999990E+01 -0.20693E+05
 0.85499992E+01 -0.25122E+05
 0.85999994E+01 -0.29345E+05
 0.86499996E+01 -0.33113E+05
 0.86999998E+01 -0.36365E+05
 0.87499990E+01 -0.39185E+05
 0.87999992E+01 -0.41582E+05
 0.88499994E+01 -0.43287E+05
 0.88999996E+01 -0.44218E+05
 0.89499998E+01 -0.44103E+05
 0.89999990E+01 -0.43052E+05
 0.90499992E+01 -0.41242E+05
 0.90999994E+01 -0.38927E+05
 0.91499996E+01 -0.36342E+05
 0.91999989E+01 -0.33305E+05
 0.92499990E+01 -0.29845E+05
 0.92999992E+01 -0.26136E+05
 0.93499994E+01 -0.22351E+05
 0.93999996E+01 -0.18428E+05
 0.94499989E+01 -0.14582E+05
 0.94999990E+01 -0.10717E+05
 0.95499992E+01 -0.66972E+04
 0.95999994E+01 -0.29438E+04
 0.96499996E+01  0.82016E+03
 0.96999989E+01  0.45923E+04
 0.97499990E+01  0.86872E+04
 0.97999992E+01  0.13232E+05
 0.98499994E+01  0.17644E+05
 0.98999996E+01  0.21897E+05
 0.99499989E+01  0.26225E+05
 0.99999990E+01  0.30435E+05
 0.10049999E+02  0.34822E+05
 0.10099999E+02  0.39270E+05
 0.10150000E+02  0.43372E+05
 0.10199999E+02  0.47147E+05
 0.10249999E+02  0.50484E+05
 0.10299999E+02  0.53351E+05
 0.10349999E+02  0.55676E+05
 0.10400000E+02  0.57189E+05
 0.10449999E+02  0.57687E+05
 0.10499999E+02  0.57026E+05
 0.10549999E+02  0.55360E+05
 0.10599999E+02  0.52967E+05
 0.10650000E+02  0.49566E+05
 0.10699999E+02  0.45307E+05
 0.10749999E+02  0.40220E+05
 0.10799999E+02  0.34570E+05
 0.10849999E+02  0.28094E+05
 0.10900000E+02  0.21223E+05
 0.10949999E+02  0.14446E+05
 0.10999999E+02  0.78663E+04
 0.11049999E+02  0.14740E+04
 0.11099999E+02 -0.48665E+04
 0.11150000E+02 -0.10643E+05
 0.11199999E+02 -0.16184E+05
 0.11249999E+02 -0.21186E+05
 0.11299999E+02 -0.25633E+05
 0.11349999E+02 -0.29598E+05
 0.11400000E+02 -0.33068E+05
 0.11449999E+02 -0.36281E+05
 0.11499999E+02 -0.39042E+05
 0.11549999E+02 -0.41619E+05
 0.11599999E+02 -0.44076E+05
 0.11650000E+02 -0.46210E+05
 0.11699999E+02 -0.48395E+05
 0.11749999E+02 -0.50332E+05
 0.11799999E+02 -0.52257E+05
 0.11849999E+02 -0.53812E+05
 0.11900000E+02 -0.54860E+05
 0.11949999E+02 -0.55847E+05
 0.11999999E+02 -0.56185E+05
 0.12049999E+02 -0.56218E+05
 0.12099999E+02 -0.55416E+05
 0.12150000E+02 -0.54180E+05
 0.12199999E+02 -0.53182E+05
 0.12249999E+02 -0.51671E+05
 0.12299999E+02 -0.50004E+05
 0.12349999E+02 -0.47880E+05
 0.12400000E+02 -0.44944E+05
 0.12449999E+02 -0.41238E+05
 0.12499999E+02 -0.36594E+05
 0.12549999E+02 -0.31352E+05
 0.12599999E+02 -0.25813E+05
 0.12649999E+02 -0.20023E+05
 0.12699999E+02 -0.13855E+05
 0.12749999E+02 -0.74920E+04
 0.12799999E+02 -0.14278E+04
 0.12849999E+02  0.42428E+04
 0.12899999E+02  0.92480E+04
 0.12949999E+02  0.13227E+05
 0.12999999E+02  0.16381E+05
 0.13049999E+02  0.18486E+05
 0.13099999E+02  0.19437E+05
 0.13149999E+02  0.19383E+05
 0.13199999E+02  0.17998E+05
 0.13249999E+02  0.15296E+05
 0.13299999E+02  0.11989E+05
 0.13349999E+02  0.82564E+04
 0.13399999E+02  0.42418E+04
 0.13449999E+02  0.13014E+03
 0.13499999E+02 -0.40922E+04
 0.13549999E+02 -0.82146E+04
 0.13599999E+02 -0.12072E+05
 0.13649999E+02 -0.15900E+05
 0.13699999E+02 -0.19210E+05
 0.13749999E+02 -0.21897E+05
 0.13799999E+02 -0.23734E+05
 0.13849999E+02 -0.24781E+05
 0.13899999E+02 -0.25296E+05
 0.13949999E+02 -0.24901E+05
 0.13999999E+02 -0.23843E+05
 0.14049999E+02 -0.22009E+05
 0.14099998E+02 -0.19316E+05
 0.14150000E+02 -0.15872E+05
 0.14199999E+02 -0.11917E+05
 0.14249998E+02 -0.76192E+04
 0.14299999E+02 -0.34194E+04
 0.14349998E+02  0.65092E+03
 0.14400000E+02  0.46659E+04
 0.14449999E+02  0.87557E+04
 0.14499998E+02  0.13005E+05
 0.14549999E+02  0.17276E+05
 0.14599998E+02  0.21621E+05
 0.14650000E+02  0.25850E+05
 0.14699999E+02  0.30318E+05
 0.14749998E+02  0.34938E+05
 0.14799999E+02  0.39428E+05
 0.14849998E+02  0.43909E+05
 0.14900000E+02  0.47663E+05
 0.14949999E+02  0.50697E+05
 0.14999998E+02  0.53616E+05
 0.15049999E+02  0.56102E+05
 0.15099998E+02  0.57343E+05
 0.15150000E+02  0.57489E+05
 0.15199999E+02  0.56711E+05
 0.15249998E+02  0.54342E+05
 0.15299999E+02  0.51105E+05
 0.15349998E+02  0.47266E+05
 0.15400000E+02  0.42867E+05
 0.15449999E+02  0.37850E+05
 0.15499998E+02  0.31530E+05
 0.15549999E+02  0.25011E+05
 0.15599998E+02  0.17839E+05
 0.15650000E+02  0.10035E+05
 0.15699999E+02  0.19605E+04
 0.15749998E+02 -0.65199E+04
 0.15799999E+02 -0.14976E+05
 0.15849998E+02 -0.23788E+05
 0.15900000E+02 -0.32761E+05
 0.15949999E+02 -0.41867E+05
 0.15999998E+02 -0.50753E+05
 0.16049999E+02 -0.59018E+05
 0.16099998E+02 -0.67067E+05
 0.16150000E+02 -0.74836E+05
 0.16199999E+02 -0.81710E+05
 0.16249998E+02 -0.87509E+05
 0.16299999E+02 -0.92206E+05
 0.16349998E+02 -0.95798E+05
 0.16400000E+02 -0.97868E+05
 0.16449999E+02 -0.98653E+05
 0.16499998E+02 -0.98345E+05
 0.16549999E+02 -0.97144E+05
 0.16599998E+02 -0.95320E+05
 0.16650000E+02 -0.92308E+05
 0.16699999E+02 -0.88277E+05
 0.16749998E+02 -0.83262E+05
 0.16799999E+02 -0.77420E+05
 0.16849998E+02 -0.70702E+05
 0.16900000E+02 -0.62577E+05
 0.16949999E+02 -0.53679E+05
 0.16999998E+02 -0.44184E+05
 0.17049999E+02 -0.34244E+05
 0.17099998E+02 -0.24476E+05
 0.17150000E+02 -0.14644E+05
 0.17199999E+02 -0.50721E+04
 0.17249998E+02  0.40952E+04
 0.17299999E+02  0.12887E+05
 0.17349998E+02  0.21296E+05
 0.17400000E+02  0.29090E+05
 0.17449999E+02  0.35919E+05
 0.17499998E+02  0.41978E+05
 0.17549999E+02  0.46602E+05
 0.17599998E+02  0.49878E+05
 0.17650000E+02  0.52440E+05
 0.17699999E+02  0.54217E+05
 0.17749998E+02  0.55202E+05
 0.17799999E+02  0.55415E+05
 0.17849998E+02  0.55211E+05
 0.17900000E+02  0.55312E+05
 0.17949999E+02  0.55224E+05
 0.17999998E+02  0.54534E+05
 0.18049999E+02  0.53493E+05
 0.18099998E+02  0.52078E+05
 0.18150000E+02  0.50364E+05
 0.18199999E+02  0.48487E+05
 0.18249998E+02  0.46691E+05
 0.18299999E+02  0.44845E+05
 0.18349998E+02  0.43344E+05
 0.18400000E+02  0.42183E+05
 0.18449999E+02  0.41254E+05
 0.18499998E+02  0.40684E+05
 0.18549999E+02  0.40139E+05
 0.18599998E+02  0.39717E+05
 0.18650000E+02  0.39182E+05
 0.18699999E+02  0.38589E+05
 0.18749998E+02  0.38112E+05
 0.18799999E+02  0.37792E+05
 0.18849998E+02  0.37449E+05
 0.18900000E+02  0.36605E+05
 0.18949999E+02  0.35201E+05
 0.18999998E+02  0.33663E+05
 0.19049999E+02  0.32135E+05
 0.19099998E+02  0.30350E+05
 0.19150000E+02  0.28340E+05
 0.19199999E+02  0.26312E+05
 0.19249998E+02  0.24429E+05
 0.19299999E+02  0.22633E+05
 0.19349998E+02  0.20820E+05
 0.19400000E+02  0.19104E+05
 0.19449999E+02  0.17873E+05
 0.19499998E+02  0.16979E+05
 0.19549999E+02  0.15966E+05
 0.19599998E+02  0.14631E+05
 0.19650000E+02  0.13112E+05
 0.19699999E+02  0.11254E+05
 0.19749998E+02  0.91421E+04
 0.19799999E+02  0.65926E+04
 0.19849998E+02  0.32239E+04
 0.19900000E+02 -0.78835E+03
 0.19949999E+02 -0.50741E+04
 0.19999998E+02 -0.95655E+04
 0.20049999E+02 -0.14045E+05
 0.20099998E+02 -0.17972E+05
 0.20150000E+02 -0.21861E+05
 0.20199999E+02 -0.25829E+05
 0.20249998E+02 -0.29731E+05
 0.20299999E+02 -0.33010E+05
 0.20349998E+02 -0.36394E+05
 0.20399998E+02 -0.39447E+05
 0.20449999E+02 -0.42036E+05
 0.20499998E+02 -0.44315E+05
 0.20549999E+02 -0.46230E+05
 0.20599998E+02 -0.47134E+05
 0.20649998E+02 -0.46814E+05
 0.20699999E+02 -0.46262E+05
 0.20749998E+02 -0.43884E+05
 0.20799999E+02 -0.40975E+05
 0.20849998E+02 -0.37755E+05
 0.20899998E+02 -0.33185E+05
 0.20949999E+02 -0.27968E+05
 0.20999998E+02 -0.23662E+05
 0.21049999E+02 -0.17181E+05
 0.21099998E+02 -0.99804E+04
 0.21149998E+02 -0.32405E+04
 0.21199999E+02  0.43866E+04
 0.21249998E+02  0.10995E+05
 0.21299999E+02  0.16954E+05
 0.21349998E+02  0.23546E+05
 0.21399998E+02  0.30224E+05
 0.21449999E+02  0.35785E+05
 0.21499998E+02  0.41244E+05
 0.21549999E+02  0.43853E+05
 0.21599998E+02  0.45316E+05
 0.21649998E+02  0.47279E+05
 0.21699999E+02  0.46397E+05
 0.21749998E+02  0.43730E+05
 0.21799999E+02  0.42610E+05
 0.21849998E+02  0.39107E+05
 0.21899998E+02  0.37074E+05
 0.21949999E+02  0.34198E+05
 0.21999998E+02  0.29536E+05
 0.22049999E+02  0.25973E+05
 0.22099998E+02  0.20341E+05
 0.22149998E+02  0.16908E+05
 0.22199999E+02  0.14114E+05
 0.22249998E+02  0.88610E+04
 0.22299999E+02  0.31769E+04
 0.22349998E+02 -0.15193E+04
 0.22399998E+02 -0.88671E+04
 0.22449999E+02 -0.15733E+05
 0.22499998E+02 -0.23860E+05
 0.22549999E+02 -0.32685E+05
 0.22599998E+02 -0.35934E+05
 0.22649998E+02 -0.39771E+05
 0.22699999E+02 -0.47918E+05
 0.22749998E+02 -0.59985E+05
 0.22799999E+02 -0.72389E+05
 0.22849998E+02 -0.81415E+05
 0.22899998E+02 -0.85093E+05
 0.22949999E+02 -0.86794E+05
 0.22999998E+02 -0.92289E+05
 0.23049999E+02 -0.98858E+05
 0.23099998E+02 -0.10834E+06
 0.23149998E+02 -0.11910E+06
 0.23199999E+02 -0.12295E+06
 0.23249998E+02 -0.12168E+06
 0.23299999E+02 -0.11769E+06
 0.23349998E+02 -0.11130E+06
 0.23399998E+02 -0.10849E+06
 0.23449999E+02 -0.11421E+06
 0.23499998E+02 -0.11843E+06
 0.23549999E+02 -0.10779E+06
 0.23599998E+02 -0.93534E+05
 0.23649998E+02 -0.78011E+05
 0.23699999E+02 -0.68252E+05
 0.23749998E+02 -0.67866E+05
 0.23799999E+02 -0.61732E+05
 0.23849998E+02 -0.46341E+05
 0.23899998E+02 -0.31749E+05
 0.23949999E+02 -0.11545E+05
 0.23999998E+02  0.23259E+04
 0.24049999E+02 -0.67606E+03
 0.24099998E+02  0.79855E+04
 0.24149998E+02  0.23251E+05
 0.24199999E+02  0.23015E+05
 0.24249998E+02  0.25734E+05
 0.24299999E+02  0.35074E+05
 0.24349998E+02  0.27875E+05
 0.24399998E+02  0.22355E+05
 0.24449999E+02  0.18821E+05
 0.24499998E+02  0.12937E+05
 0.24549999E+02  0.19343E+05
 0.24599998E+02  0.26492E+05
 0.24649998E+02  0.23012E+05
 0.24699999E+02  0.30770E+05
 0.24749998E+02  0.33756E+05
 0.24799999E+02  0.40910E+05
 0.24849998E+02  0.60550E+05
 0.24899998E+02  0.58121E+05
 0.24949999E+02  0.48713E+05
 0.24999998E+02  0.46257E+05
 0.25049999E+02  0.41181E+05
 0.25099998E+02  0.42800E+05
 0.25149998E+02  0.37511E+05
 0.25199999E+02  0.86737E+04
 0.25249998E+02 -0.96980E+04
 0.25299999E+02 -0.21429E+05
 0.25349998E+02 -0.26930E+05
 0.25399998E+02 -0.31630E+05
 0.25449999E+02 -0.40740E+05
 0.25499998E+02 -0.39998E+05
 0.25549999E+02 -0.20039E+05
 0.25599998E+02  0.59361E+03
 0.25649998E+02  0.58852E+04
 0.25699999E+02  0.34029E+05
 0.25749998E+02  0.69212E+05
 0.25799999E+02  0.97479E+05
 0.25849998E+02  0.12577E+06
 0.25899998E+02  0.15131E+06
 0.25949999E+02  0.17394E+06
 0.25999998E+02  0.19945E+06
 0.26049999E+02  0.21576E+06
 0.26099998E+02  0.22986E+06
 0.26149998E+02  0.22772E+06
 0.26199999E+02  0.23176E+06
 0.26249998E+02  0.24081E+06
 0.26299999E+02  0.19450E+06
 0.26349998E+02  0.15222E+06
 0.26399998E+02  0.13626E+06
 0.26449999E+02  0.98311E+05
 0.26499998E+02  0.62985E+05
 0.26549999E+02  0.37862E+05
 0.26599998E+02 -0.14578E+04
 0.26649998E+02 -0.25152E+05
 0.26699999E+02 -0.47730E+05
 0.26749998E+02 -0.73587E+05
 0.26799999E+02 -0.93315E+05
 0.26849998E+02 -0.78813E+05
 0.26899998E+02 -0.59167E+05
 0.26949999E+02 -0.35093E+05
 0.26999998E+02 -0.34264E+04
 0.27049997E+02  0.12181E+05
 0.27099998E+02  0.19967E+05
 0.27149998E+02  0.65840E+05
 0.27199999E+02  0.10240E+06
 0.27249998E+02  0.61003E+05
 0.27299997E+02  0.37353E+05
 0.27349998E+02  0.28204E+05
 0.27399998E+02  0.16810E+05
 0.27449999E+02  0.17842E+05
 0.27499998E+02 -0.18869E+05
 0.27549997E+02 -0.78602E+05
 0.27599998E+02 -0.87248E+05
 0.27649998E+02 -0.62674E+05
 0.27699999E+02 -0.53554E+05
 0.27749998E+02 -0.58678E+05
 0.27799997E+02 -0.64076E+05
 0.27849998E+02 -0.64841E+05
 0.27899998E+02 -0.38429E+05
 0.27949999E+02  0.10503E+05
 0.27999998E+02  0.39682E+05
 0.28049997E+02  0.52107E+05
 0.28099998E+02  0.79411E+05
 0.28149998E+02  0.63898E+05
 0.28199999E+02  0.45948E+05
 0.28249998E+02  0.50283E+05
 0.28299997E+02  0.62149E+05
 0.28349998E+02  0.91571E+05
 0.28399998E+02  0.10073E+06
 0.28449999E+02  0.39128E+05
 0.28499998E+02 -0.59796E+05
 0.28549997E+02 -0.12414E+06
 0.28599998E+02 -0.15173E+06
 0.28649998E+02 -0.11403E+06
 0.28699999E+02 -0.74843E+05
 0.28749998E+02 -0.77472E+05
 0.28799997E+02 -0.15100E+06
 0.28849998E+02 -0.22206E+06
 0.28899998E+02 -0.25255E+06
 0.28949999E+02 -0.22594E+06
 0.28999998E+02 -0.14518E+06
 0.29049997E+02 -0.74055E+05
 0.29099998E+02 -0.54018E+05
 0.29149998E+02 -0.83694E+05
 0.29199999E+02 -0.12570E+06
 0.29249998E+02 -0.16827E+06
 0.29299997E+02 -0.15714E+06
 0.29349998E+02 -0.93903E+05
 0.29399998E+02 -0.37925E+04
 0.29449999E+02  0.12939E+05
 0.29499998E+02 -0.29441E+05
 0.29549997E+02 -0.90190E+05
 0.29599998E+02 -0.15234E+06
 0.29649998E+02 -0.15879E+06
 0.29699999E+02 -0.10418E+06
 0.29749998E+02 -0.28335E+05
 0.29799997E+02  0.38874E+05
 0.29849998E+02  0.16405E+05
 0.29899998E+02 -0.73993E+05
 0.29949999E+02 -0.12427E+06
 0.29999998E+02 -0.12059E+06
 0.30049999E+02 -0.52345E+05
 0.30099998E+02  0.95185E+04
 0.30149998E+02 -0.29275E+04
 0.30199997E+02 -0.37749E+05
 0.30249996E+02 -0.28418E+05
 0.30299999E+02  0.13091E+03
 0.30349998E+02  0.73663E+05
 0.30399998E+02  0.13445E+06
 0.30449997E+02  0.15418E+06
 0.30499996E+02  0.14634E+06
 0.30549999E+02  0.11879E+06
 0.30599998E+02  0.10100E+06
 0.30649998E+02  0.10277E+06
 0.30699997E+02  0.10611E+06
 0.30749996E+02  0.78731E+05
 0.30799999E+02  0.65075E+05
 0.30849998E+02  0.78899E+05
 0.30899998E+02  0.93718E+05
 0.30949997E+02  0.11213E+06
 0.30999996E+02  0.17096E+06
 0.31049999E+02  0.18472E+06
 0.31099998E+02  0.18127E+06
 0.31149998E+02  0.21084E+06
 0.31199997E+02  0.22689E+06
 0.31249996E+02  0.24919E+06
 0.31299999E+02  0.22987E+06
 0.31349998E+02  0.16978E+06
 0.31399998E+02  0.11039E+06
 0.31449997E+02  0.70554E+05
 0.31499996E+02  0.72381E+05
 0.31549999E+02  0.45950E+05
 0.31599998E+02 -0.30239E+05
 0.31649998E+02 -0.84488E+05
 0.31699997E+02 -0.11893E+06
 0.31749996E+02 -0.11598E+06
 0.31799999E+02 -0.67726E+05
 0.31849998E+02 -0.71420E+05
 0.31899998E+02 -0.12117E+06
 0.31949997E+02 -0.15425E+06
 0.31999996E+02 -0.13997E+06
 0.32049999E+02 -0.79648E+05
 0.32099998E+02  0.41006E+03
 0.32149998E+02  0.54687E+05
 0.32199997E+02  0.80691E+05
 0.32249996E+02  0.98814E+05
 0.32299999E+02  0.89402E+05
 0.32349998E+02  0.10807E+06
 0.32399998E+02  0.15461E+06
 0.32449997E+02  0.18161E+06
 0.32499996E+02  0.16930E+06
 0.32549999E+02  0.12447E+06
 0.32599998E+02  0.82309E+05
 0.32649998E+02  0.74057E+05
 0.32699997E+02  0.79129E+05
 0.32749996E+02  0.54890E+05
 0.32799999E+02  0.21046E+05
 0.32849998E+02 -0.24764E+04
 0.32899998E+02  0.19562E+04
 0.32949997E+02  0.25490E+05
 0.32999996E+02  0.35969E+05
 0.33049999E+02  0.48685E+05
 0.33099998E+02  0.79856E+05
 0.33149998E+02  0.10533E+06
 0.33199997E+02  0.13167E+06
 0.33249996E+02  0.14788E+06
 0.33299999E+02  0.10143E+06
 0.33349998E+02  0.87226E+05
 0.33399998E+02  0.11205E+06
 0.33449997E+02  0.13802E+06
 0.33499996E+02  0.17365E+06
 0.33549999E+02  0.17836E+06
 0.33599998E+02  0.14272E+06
 0.33649998E+02  0.12400E+06
 0.33699997E+02  0.14429E+06
 0.33749996E+02  0.13881E+06
 0.33799999E+02  0.12735E+06
 0.33849998E+02  0.94529E+05
 0.33899998E+02  0.31953E+05
 0.33949997E+02 -0.13717E+05
 0.33999996E+02 -0.44649E+05
 0.34049999E+02 -0.84517E+05
 0.34099998E+02 -0.11211E+06
 0.34149998E+02 -0.12400E+06
 0.34199997E+02 -0.13997E+06
 0.34249996E+02 -0.14474E+06
 0.34299999E+02 -0.15746E+06
 0.34349998E+02 -0.18629E+06
 0.34399998E+02 -0.19675E+06
 0.34449997E+02 -0.17122E+06
 0.34499996E+02 -0.13507E+06
 0.34549999E+02 -0.12691E+06
 0.34599998E+02 -0.14282E+06
 0.34649998E+02 -0.17191E+06
 0.34699997E+02 -0.16844E+06
 0.34749996E+02 -0.12162E+06
 0.34799999E+02 -0.49058E+05
 0.34849998E+02 -0.10003E+05
 0.34899998E+02  0.32507E+04
 0.34949997E+02  0.22769E+05
 0.34999996E+02  0.46412E+05
 0.35049999E+02  0.12273E+06
 0.35099998E+02  0.21169E+06
 0.35149998E+02  0.25508E+06
 0.35199997E+02  0.25604E+06
 0.35249996E+02  0.22576E+06
 0.35299999E+02  0.16625E+06
 0.35349998E+02  0.15736E+06
 0.35399998E+02  0.20595E+06
 0.35449997E+02  0.26313E+06
 0.35499996E+02  0.26762E+06
 0.35549999E+02  0.22019E+06
 0.35599998E+02  0.14885E+06
 0.35649998E+02  0.91170E+05
 0.35699997E+02  0.83551E+05
 0.35749996E+02  0.10035E+06
 0.35799999E+02  0.98756E+05
 0.35849998E+02  0.44548E+05
 0.35899998E+02 -0.35659E+05
 0.35949997E+02 -0.74568E+05
 0.35999996E+02 -0.20560E+05
 0.36049999E+02  0.16639E+05
 0.36099998E+02  0.48696E+05
 0.36149998E+02  0.89549E+05
 0.36199997E+02  0.62154E+05
 0.36249996E+02  0.55583E+05
 0.36299999E+02  0.69962E+05
 0.36349998E+02  0.76344E+05
 0.36399998E+02  0.97558E+05
 0.36449997E+02  0.14145E+06
 0.36499996E+02  0.19051E+06
 0.36549999E+02  0.19517E+06
 0.36599998E+02  0.18326E+06
 0.36649998E+02  0.15440E+06
 0.36699997E+02  0.12509E+06
 0.36749996E+02  0.13967E+06
 0.36799999E+02  0.15355E+06
 0.36849998E+02  0.13034E+06
 0.36899998E+02  0.85481E+05
 0.36949997E+02  0.24564E+05
 0.36999996E+02 -0.17821E+05
 0.37049999E+02 -0.64439E+05
 0.37099998E+02 -0.13604E+06
 0.37149998E+02 -0.17727E+06
 0.37199997E+02 -0.21267E+06
 0.37249996E+02 -0.25647E+06
 0.37299999E+02 -0.24218E+06
 0.37349998E+02 -0.22671E+06
 0.37399998E+02 -0.27050E+06
 0.37449997E+02 -0.29923E+06
 0.37499996E+02 -0.31787E+06
 0.37549999E+02 -0.35776E+06
 0.37599998E+02 -0.37887E+06
 0.37649998E+02 -0.38137E+06
 0.37699997E+02 -0.37205E+06
 0.37749996E+02 -0.35477E+06
 0.37799999E+02 -0.36896E+06
 0.37849998E+02 -0.36401E+06
 0.37899998E+02 -0.33495E+06
 0.37949997E+02 -0.32915E+06
 0.37999996E+02 -0.28804E+06
 0.38049999E+02 -0.24172E+06
 0.38099998E+02 -0.24683E+06
 0.38149998E+02 -0.24831E+06
 0.38199997E+02 -0.26158E+06
 0.38249996E+02 -0.28951E+06
 0.38299999E+02 -0.29107E+06
 0.38349998E+02 -0.26957E+06
 0.38399998E+02 -0.23078E+06
 0.38449997E+02 -0.19597E+06
 0.38499996E+02 -0.19467E+06
 0.38549999E+02 -0.17522E+06
 0.38599998E+02 -0.13818E+06
 0.38649998E+02 -0.15728E+06
 0.38699997E+02 -0.21985E+06
 0.38749996E+02 -0.27289E+06
 0.38799999E+02 -0.27368E+06
 0.38849998E+02 -0.20814E+06
 0.38899998E+02 -0.13836E+06
 0.38949997E+02 -0.13685E+06
 0.38999996E+02 -0.17748E+06
 0.39049999E+02 -0.23171E+06
 0.39099998E+02 -0.22681E+06
 0.39149998E+02 -0.15431E+06
 0.39199997E+02 -0.12692E+06
 0.39249996E+02 -0.15848E+06
 0.39299999E+02 -0.20890E+06
 0.39349998E+02 -0.27054E+06
 0.39399998E+02 -0.28913E+06
 0.39449997E+02 -0.28460E+06
 0.39499996E+02 -0.32571E+06
 0.39549999E+02 -0.36300E+06
 0.39599998E+02 -0.37290E+06
 0.39649998E+02 -0.38451E+06
 0.39699997E+02 -0.39304E+06
 0.39749996E+02 -0.38579E+06
 0.39799999E+02 -0.40015E+06
 0.39849998E+02 -0.44702E+06
 0.39899998E+02 -0.48198E+06
 0.39949997E+02 -0.49067E+06
 0.39999996E+02 -0.46050E+06
 0.40049999E+02 -0.41905E+06
 0.40099998E+02 -0.38802E+06
 0.40149998E+02 -0.34613E+06
 0.40199997E+02 -0.30740E+06
 0.40249996E+02 -0.25552E+06
 0.40299999E+02 -0.19030E+06
 0.40349998E+02 -0.14822E+06
 0.40399998E+02 -0.14405E+06
 0.40449997E+02 -0.17266E+06
 0.40499996E+02 -0.19634E+06
 0.40549999E+02 -0.20374E+06
 0.40599998E+02 -0.23872E+06
 0.40649998E+02 -0.30824E+06
 0.40699997E+02 -0.37581E+06
 0.40749996E+02 -0.42731E+06
 0.40799999E+02 -0.40824E+06
 0.40849998E+02 -0.31662E+06
 0.40899998E+02 -0.21519E+06
 0.40949997E+02 -0.12873E+06
 0.40999996E+02 -0.55537E+05
 0.41049999E+02  0.28858E+05
 0.41099998E+02  0.12467E+06
 0.41149998E+02  0.19636E+06
 0.41199997E+02  0.22476E+06
 0.41249996E+02  0.24247E+06
 0.41299999E+02  0.27464E+06
 0.41349998E+02  0.29139E+06
 0.41399998E+02  0.26975E+06
 0.41449997E+02  0.23154E+06
 0.41499996E+02  0.19051E+06
 0.41549999E+02  0.13943E+06
 0.41599998E+02  0.12044E+06
 0.41649998E+02  0.13825E+06
 0.41699997E+02  0.15026E+06
 0.41749996E+02  0.14910E+06
 0.41799999E+02  0.15164E+06
 0.41849998E+02  0.16187E+06
 0.41899998E+02  0.14537E+06
 0.41949997E+02  0.10859E+06
 0.41999996E+02  0.88812E+05
 0.42049999E+02  0.87098E+05
 0.42099998E+02  0.82260E+05
 0.42149998E+02  0.56553E+05
 0.42199997E+02  0.27315E+05
 0.42249996E+02  0.29724E+05
 0.42299999E+02  0.56468E+05
 0.42349998E+02  0.72707E+05
 0.42399998E+02  0.71071E+05
 0.42449997E+02  0.46748E+05
 0.42499996E+02 -0.12726E+05
 0.42549999E+02 -0.67377E+05
 0.42599998E+02 -0.69483E+05
 0.42649998E+02  0.15603E+04
 0.42699997E+02  0.93368E+05
 0.42749996E+02  0.17784E+06
 0.42799995E+02  0.24132E+06
 0.42849998E+02  0.27766E+06
 0.42899998E+02  0.32010E+06
 0.42949997E+02  0.36103E+06
 0.42999996E+02  0.42669E+06
 0.43049995E+02  0.50194E+06
 0.43099998E+02  0.53570E+06
 0.43149998E+02  0.54269E+06
 0.43199997E+02  0.56269E+06
 0.43249996E+02  0.58879E+06
 0.43299995E+02  0.61809E+06
 0.43349998E+02  0.66199E+06
 0.43399998E+02  0.70963E+06
 0.43449997E+02  0.77250E+06
 0.43499996E+02  0.84651E+06
 0.43549995E+02  0.87481E+06
 0.43599998E+02  0.81877E+06
 0.43649998E+02  0.72277E+06
 0.43699997E+02  0.62574E+06
 0.43749996E+02  0.54263E+06
 0.43799995E+02  0.49259E+06
 0.43849998E+02  0.45122E+06
 0.43899998E+02  0.40426E+06
 0.43949997E+02  0.36779E+06
 0.43999996E+02  0.33153E+06
 0.44049995E+02  0.31861E+06
 0.44099998E+02  0.33518E+06
 0.44149998E+02  0.32338E+06
 0.44199997E+02  0.28473E+06
 0.44249996E+02  0.27935E+06
 0.44299995E+02  0.30659E+06
 0.44349998E+02  0.34837E+06
 0.44399998E+02  0.36974E+06
 0.44449997E+02  0.35235E+06
 0.44499996E+02  0.34586E+06
 0.44549995E+02  0.37283E+06
 0.44599998E+02  0.40279E+06
 0.44649998E+02  0.40690E+06
 0.44699997E+02  0.39690E+06
 0.44749996E+02  0.36564E+06
 0.44799995E+02  0.36024E+06
 0.44849998E+02  0.38270E+06
 0.44899998E+02  0.40224E+06
 0.44949997E+02  0.40624E+06
 0.44999996E+02  0.42191E+06
 0.45049995E+02  0.47693E+06
 0.45099998E+02  0.54177E+06
 0.45149998E+02  0.60084E+06
 0.45199997E+02  0.62072E+06
 0.45249996E+02  0.58342E+06
 0.45299995E+02  0.47476E+06
 0.45349998E+02  0.32230E+06
 0.45399998E+02  0.18501E+06
 0.45449997E+02  0.12335E+06
 0.45499996E+02  0.10171E+06
 0.45549995E+02  0.84715E+05
 0.45599998E+02  0.51341E+05
 0.45649998E+02  0.17121E+05
 0.45699997E+02  0.64802E+04
 0.45749996E+02  0.10395E+05
 0.45799995E+02  0.28381E+05
 0.45849998E+02  0.40135E+05
 0.45899998E+02  0.58867E+05
 0.45949997E+02  0.37052E+05
 0.45999996E+02 -0.23145E+05
 0.46049995E+02 -0.58540E+05
 0.46099998E+02 -0.36821E+05
 0.46149998E+02  0.42441E+05
 0.46199997E+02  0.12377E+06
 0.46249996E+02  0.15216E+06
 0.46299995E+02  0.13379E+06
 0.46349998E+02  0.99566E+05
 0.46399998E+02  0.11529E+06
 0.46449997E+02  0.21944E+06
 0.46499996E+02  0.33697E+06
 0.46549995E+02  0.38709E+06
 0.46599998E+02  0.34211E+06
 0.46649998E+02  0.25612E+06
 0.46699997E+02  0.22550E+06
 0.46749996E+02  0.27676E+06
 0.46799995E+02  0.36053E+06
 0.46849998E+02  0.41443E+06
 0.46899998E+02  0.44263E+06
 0.46949997E+02  0.45500E+06
 0.46999996E+02  0.47361E+06
 0.47049995E+02  0.48484E+06
 0.47099998E+02  0.45632E+06
 0.47149998E+02  0.43367E+06
 0.47199997E+02  0.43933E+06
 0.47249996E+02  0.41797E+06
 0.47299995E+02  0.31683E+06
 0.47349998E+02  0.22404E+06
 0.47399998E+02  0.18671E+06
 0.47449997E+02  0.13833E+06
 0.47499996E+02  0.38412E+05
 0.47549995E+02 -0.10059E+06
 0.47599998E+02 -0.22824E+06
 0.47649998E+02 -0.33630E+06
 0.47699997E+02 -0.41132E+06
 0.47749996E+02 -0.46096E+06
 0.47799995E+02 -0.53234E+06
 0.47849998E+02 -0.61011E+06
 0.47899998E+02 -0.64449E+06
 0.47949997E+02 -0.62948E+06
 0.47999996E+02 -0.61496E+06
 0.48049995E+02 -0.65623E+06
 0.48099998E+02 -0.73332E+06
 0.48149998E+02 -0.77197E+06
 0.48199997E+02 -0.77316E+06
 0.48249996E+02 -0.76334E+06
 0.48299995E+02 -0.77084E+06
 0.48349998E+02 -0.76648E+06
 0.48399998E+02 -0.69143E+06
 0.48449997E+02 -0.56294E+06
 0.48499996E+02 -0.44512E+06
 0.48549995E+02 -0.36406E+06
 0.48599998E+02 -0.30577E+06
 0.48649998E+02 -0.28522E+06
 0.48699997E+02 -0.27060E+06
 0.48749996E+02 -0.21014E+06
 0.48799995E+02 -0.12527E+06
 0.48849998E+02 -0.84408E+05
 0.48899998E+02 -0.11335E+06
 0.48949997E+02 -0.20657E+06
 0.48999996E+02 -0.33174E+06
 0.49049995E+02 -0.45861E+06
 0.49099998E+02 -0.57744E+06
 0.49149998E+02 -0.66405E+06
 0.49199997E+02 -0.73616E+06
 0.49249996E+02 -0.80522E+06
 0.49299995E+02 -0.85457E+06
 0.49349998E+02 -0.91745E+06
 0.49399998E+02 -0.98703E+06
 0.49449997E+02 -0.10567E+07
 0.49499996E+02 -0.11218E+07
 0.49549995E+02 -0.11413E+07
 0.49599998E+02 -0.11161E+07
 0.49649998E+02 -0.10423E+07
 0.49699997E+02 -0.92859E+06
 0.49749996E+02 -0.80249E+06
 0.49799995E+02 -0.67683E+06
 0.49849998E+02 -0.55277E+06
 0.49899998E+02 -0.43880E+06
 0.49949997E+02 -0.32208E+06
 0.49999996E+02 -0.16579E+06
 0.50049995E+02  0.65604E+03
 0.50099998E+02  0.14071E+06
 0.50149998E+02  0.24216E+06
 0.50199997E+02  0.31600E+06
 0.50249996E+02  0.38240E+06
 0.50299995E+02  0.41864E+06
 0.50349998E+02  0.42325E+06
 0.50399998E+02  0.40404E+06
 0.50449997E+02  0.38524E+06
 0.50499996E+02  0.37036E+06
 0.50549995E+02  0.31420E+06
 0.50599998E+02  0.19286E+06
 0.50649998E+02  0.33184E+05
 0.50699997E+02 -0.13135E+06
 0.50749996E+02 -0.30267E+06
 0.50799995E+02 -0.45619E+06
 0.50849998E+02 -0.57817E+06
 0.50899998E+02 -0.69179E+06
 0.50949997E+02 -0.80102E+06
 0.50999996E+02 -0.88867E+06
 0.51049995E+02 -0.93817E+06
 0.51099998E+02 -0.98238E+06
 0.51149998E+02 -0.10550E+07
 0.51199997E+02 -0.11209E+07
 0.51249996E+02 -0.11129E+07
 0.51299995E+02 -0.10249E+07
 0.51349998E+02 -0.89302E+06
 0.51399998E+02 -0.75071E+06
 0.51449997E+02 -0.65750E+06
 0.51499996E+02 -0.59719E+06
 0.51549995E+02 -0.48693E+06
 0.51599998E+02 -0.34809E+06
 0.51649998E+02 -0.21881E+06
 0.51699997E+02 -0.56470E+05
 0.51749996E+02  0.13629E+06
 0.51799995E+02  0.29338E+06
 0.51849998E+02  0.40322E+06
 0.51899998E+02  0.49836E+06
 0.51949997E+02  0.57805E+06
 0.51999996E+02  0.62999E+06
 0.52049995E+02  0.65835E+06
 0.52099998E+02  0.66654E+06
 0.52149998E+02  0.65337E+06
 0.52199997E+02  0.62228E+06
 0.52249996E+02  0.53647E+06
 0.52299995E+02  0.37828E+06
 0.52349998E+02  0.18347E+06
 0.52399998E+02  0.45576E+04
 0.52449997E+02 -0.11424E+06
 0.52499996E+02 -0.21363E+06
 0.52549995E+02 -0.34349E+06
 0.52599998E+02 -0.47688E+06
 0.52649998E+02 -0.55444E+06
 0.52699997E+02 -0.55871E+06
 0.52749996E+02 -0.52611E+06
 0.52799995E+02 -0.46999E+06
 0.52849998E+02 -0.36720E+06
 0.52899998E+02 -0.21856E+06
 0.52949997E+02 -0.10757E+06
 0.52999996E+02 -0.11490E+06
 0.53049995E+02 -0.23117E+06
 0.53099998E+02 -0.39983E+06
 0.53149998E+02 -0.55342E+06
 0.53199997E+02 -0.65652E+06
 0.53249996E+02 -0.73286E+06
 0.53299995E+02 -0.79913E+06
 0.53349998E+02 -0.80247E+06
 0.53399998E+02 -0.72687E+06
 0.53449997E+02 -0.62347E+06
 0.53499996E+02 -0.53037E+06
 0.53549995E+02 -0.44139E+06
 0.53599998E+02 -0.34280E+06
 0.53649998E+02 -0.23066E+06
 0.53699997E+02 -0.13724E+06
 0.53749996E+02 -0.11209E+06
 0.53799995E+02 -0.12211E+06
 0.53849998E+02 -0.11160E+06
 0.53899998E+02 -0.58017E+05
 0.53949997E+02  0.42450E+05
 0.53999996E+02  0.16776E+06
 0.54049995E+02  0.28699E+06
 0.54099998E+02  0.38015E+06
 0.54149998E+02  0.45968E+06
 0.54199997E+02  0.55177E+06
 0.54249996E+02  0.66355E+06
 0.54299995E+02  0.77257E+06
 0.54349998E+02  0.81706E+06
 0.54399998E+02  0.77292E+06
 0.54449997E+02  0.67171E+06
 0.54499996E+02  0.55183E+06
 0.54549995E+02  0.43210E+06
 0.54599998E+02  0.32977E+06
 0.54649998E+02  0.26963E+06
 0.54699997E+02  0.24455E+06
 0.54749996E+02  0.24012E+06
 0.54799995E+02  0.23299E+06
 0.54849998E+02  0.20165E+06
 0.54899998E+02  0.16309E+06
 0.54949997E+02  0.12740E+06
 0.54999996E+02  0.13059E+06
 0.55049995E+02  0.18949E+06
 0.55099998E+02  0.27732E+06
 0.55149998E+02  0.36591E+06
 0.55199997E+02  0.42632E+06
 0.55249996E+02  0.48303E+06
 0.55299995E+02  0.52615E+06
 0.55349998E+02  0.55162E+06
 0.55399998E+02  0.57907E+06
 0.55449997E+02  0.59555E+06
 0.55499996E+02  0.61300E+06
 0.55549995E+02  0.62181E+06
 0.55599998E+02  0.58731E+06
 0.55649998E+02  0.54760E+06
 0.55699997E+02  0.53958E+06
 0.55749996E+02  0.54450E+06
 0.55799995E+02  0.55000E+06
 0.55849995E+02  0.54737E+06
 0.55899998E+02  0.55097E+06
 0.55949997E+02  0.58046E+06
 0.55999996E+02  0.65062E+06
 0.56049995E+02  0.77206E+06
 0.56099995E+02  0.91906E+06
 0.56149998E+02  0.10533E+07
 0.56199997E+02  0.11640E+07
 0.56249996E+02  0.12618E+07
 0.56299995E+02  0.13662E+07
 0.56349995E+02  0.14877E+07
 0.56399998E+02  0.16349E+07
 0.56449997E+02  0.17871E+07
 0.56499996E+02  0.18813E+07
 0.56549995E+02  0.18976E+07
 0.56599995E+02  0.18553E+07
 0.56649998E+02  0.17834E+07
 0.56699997E+02  0.17054E+07
 0.56749996E+02  0.16419E+07
 0.56799995E+02  0.16029E+07
 0.56849995E+02  0.15530E+07
 0.56899998E+02  0.14718E+07
 0.56949997E+02  0.13768E+07
 0.56999996E+02  0.12931E+07
 0.57049995E+02  0.12008E+07
 0.57099995E+02  0.10597E+07
 0.57149998E+02  0.87823E+06
 0.57199997E+02  0.68353E+06
 0.57249996E+02  0.51154E+06
 0.57299995E+02  0.36719E+06
 0.57349995E+02  0.23696E+06
 0.57399998E+02  0.10723E+06
 0.57449997E+02 -0.37675E+05
 0.57499996E+02 -0.19332E+06
 0.57549995E+02 -0.35262E+06
 0.57599995E+02 -0.48903E+06
 0.57649998E+02 -0.60610E+06
 0.57699997E+02 -0.68963E+06
 0.57749996E+02 -0.71961E+06
 0.57799995E+02 -0.72559E+06
 0.57849995E+02 -0.72595E+06
 0.57899998E+02 -0.74317E+06
 0.57949997E+02 -0.77467E+06
 0.57999996E+02 -0.80261E+06
 0.58049995E+02 -0.82199E+06
 0.58099995E+02 -0.82566E+06
 0.58149998E+02 -0.79455E+06
 0.58199997E+02 -0.71696E+06
 0.58249996E+02 -0.61140E+06
 0.58299995E+02 -0.50669E+06
 0.58349995E+02 -0.41945E+06
 0.58399998E+02 -0.33718E+06
 0.58449997E+02 -0.25463E+06
 0.58499996E+02 -0.18710E+06
 0.58549995E+02 -0.14546E+06
 0.58599995E+02 -0.13000E+06
 0.58649998E+02 -0.16250E+06
 0.58699997E+02 -0.25033E+06
 0.58749996E+02 -0.35902E+06
 0.58799995E+02 -0.47620E+06
 0.58849995E+02 -0.60648E+06
 0.58899998E+02 -0.74599E+06
 0.58949997E+02 -0.87714E+06
 0.58999996E+02 -0.99288E+06
 0.59049995E+02 -0.10840E+07
 0.59099995E+02 -0.11418E+07
 0.59149998E+02 -0.11633E+07
 0.59199997E+02 -0.11490E+07
 0.59249996E+02 -0.11281E+07
 0.59299995E+02 -0.11348E+07
 0.59349995E+02 -0.11712E+07
 0.59399998E+02 -0.12006E+07
 0.59449997E+02 -0.11731E+07
 0.59499996E+02 -0.10589E+07
 0.59549995E+02 -0.86248E+06
 0.59599995E+02 -0.61204E+06
 0.59649998E+02 -0.33402E+06
 0.59699997E+02 -0.48786E+05
 0.59749996E+02  0.21618E+06
 0.59799995E+02  0.44038E+06
 0.59849995E+02  0.60387E+06
 0.59899998E+02  0.70613E+06
 0.59949997E+02  0.77335E+06
 0.59999996E+02  0.81818E+06
 0.60049995E+02  0.83188E+06
 0.60099995E+02  0.81499E+06
 0.60149998E+02  0.78132E+06
 0.60199997E+02  0.72838E+06
 0.60249996E+02  0.65720E+06
 0.60299995E+02  0.56141E+06
 0.60349995E+02  0.43289E+06
 0.60399998E+02  0.28378E+06
 0.60449997E+02  0.12385E+06
 0.60499996E+02 -0.25942E+05
 0.60549995E+02 -0.14841E+06
 0.60599995E+02 -0.24044E+06
 0.60649998E+02 -0.29458E+06
 0.60699997E+02 -0.30682E+06
 0.60749996E+02 -0.29573E+06
 0.60799995E+02 -0.27493E+06
 0.60849995E+02 -0.25435E+06
 0.60899998E+02 -0.24010E+06
 0.60949997E+02 -0.19993E+06
 0.60999996E+02 -0.12169E+06
 0.61049995E+02 -0.34433E+05
 0.61099995E+02  0.50976E+05
 0.61149998E+02  0.13196E+06
 0.61199997E+02  0.18257E+06
 0.61249996E+02  0.18303E+06
 0.61299995E+02  0.12941E+06
 0.61349995E+02  0.44943E+05
 0.61399998E+02 -0.52614E+05
 0.61449997E+02 -0.16732E+06
 0.61499996E+02 -0.28105E+06
 0.61549995E+02 -0.36490E+06
 0.61599995E+02 -0.40757E+06
 0.61649998E+02 -0.42906E+06
 0.61699997E+02 -0.45669E+06
 0.61749996E+02 -0.50143E+06
 0.61799995E+02 -0.54834E+06
 0.61849995E+02 -0.58168E+06
 0.61899998E+02 -0.60507E+06
 0.61949997E+02 -0.62678E+06
 0.61999996E+02 -0.65667E+06
 0.62049995E+02 -0.69399E+06
 0.62099998E+02 -0.73998E+06
 0.62149994E+02 -0.80173E+06
 0.62199997E+02 -0.86096E+06
 0.62249992E+02 -0.89780E+06
 0.62299995E+02 -0.92490E+06
 0.62349998E+02 -0.95851E+06
 0.62399994E+02 -0.99904E+06
 0.62449997E+02 -0.10387E+07
 0.62499992E+02 -0.10803E+07
 0.62549995E+02 -0.11344E+07
 0.62599998E+02 -0.11899E+07
 0.62649994E+02 -0.12440E+07
 0.62699997E+02 -0.12741E+07
 0.62749992E+02 -0.12415E+07
 0.62799995E+02 -0.11448E+07
 0.62849998E+02 -0.10159E+07
 0.62899994E+02 -0.89317E+06
 0.62949997E+02 -0.77797E+06
 0.62999992E+02 -0.67098E+06
 0.63049995E+02 -0.56953E+06
 0.63099998E+02 -0.45328E+06
 0.63149994E+02 -0.32546E+06
 0.63199997E+02 -0.22227E+06
 0.63249992E+02 -0.16220E+06
 0.63299995E+02 -0.14703E+06
 0.63349998E+02 -0.16798E+06
 0.63399994E+02 -0.19753E+06
 0.63449997E+02 -0.22752E+06
 0.63499992E+02 -0.25357E+06
 0.63549995E+02 -0.27145E+06
 0.63599998E+02 -0.27274E+06
 0.63649994E+02 -0.24614E+06
 0.63699997E+02 -0.18455E+06
 0.63749992E+02 -0.83223E+05
 0.63799995E+02  0.57423E+05
 0.63849998E+02  0.22579E+06
 0.63899994E+02  0.39528E+06
 0.63949997E+02  0.54434E+06
 0.63999992E+02  0.66474E+06
 0.64049995E+02  0.75909E+06
 0.64099998E+02  0.83079E+06
 0.64149994E+02  0.88767E+06
 0.64199997E+02  0.92911E+06
 0.64249992E+02  0.95636E+06
 0.64299995E+02  0.96711E+06
 0.64349998E+02  0.95097E+06
 0.64399994E+02  0.91793E+06
 0.64449997E+02  0.88283E+06
 0.64499992E+02  0.85015E+06
 0.64549995E+02  0.81195E+06
 0.64599998E+02  0.75533E+06
 0.64649994E+02  0.65889E+06
 0.64699997E+02  0.52743E+06
 0.64749992E+02  0.39747E+06
 0.64799995E+02  0.29825E+06
 0.64849998E+02  0.23741E+06
 0.64899994E+02  0.21150E+06
 0.64949997E+02  0.21928E+06
 0.64999992E+02  0.25129E+06
 0.65049995E+02  0.29582E+06
 0.65099998E+02  0.33884E+06
 0.65149994E+02  0.37363E+06
 0.65199997E+02  0.40687E+06
 0.65249992E+02  0.43887E+06
 0.65299995E+02  0.48154E+06
 0.65349998E+02  0.54139E+06
 0.65399994E+02  0.60149E+06
 0.65449997E+02  0.64143E+06
 0.65499992E+02  0.64199E+06
 0.65549995E+02  0.58466E+06
 0.65599998E+02  0.46790E+06
 0.65649994E+02  0.31874E+06
 0.65699997E+02  0.17502E+06
 0.65749992E+02  0.62724E+05
 0.65799995E+02 -0.14428E+05
 0.65849998E+02 -0.58491E+05
 0.65899994E+02 -0.76568E+05
 0.65949997E+02 -0.83950E+05
 0.65999992E+02 -0.83280E+05
 0.66049995E+02 -0.64144E+05
 0.66099998E+02 -0.31952E+05
 0.66149994E+02 -0.10676E+04
 0.66199997E+02  0.21353E+05
 0.66249992E+02  0.33153E+05
 0.66299995E+02  0.39435E+05
 0.66349998E+02  0.51165E+05
 0.66399994E+02  0.76011E+05
 0.66449997E+02  0.11769E+06
 0.66499992E+02  0.16685E+06
 0.66549995E+02  0.21172E+06
 0.66599998E+02  0.25189E+06
 0.66649994E+02  0.28522E+06
 0.66699997E+02  0.30856E+06
 0.66749992E+02  0.32799E+06
 0.66799995E+02  0.34046E+06
 0.66849998E+02  0.33585E+06
 0.66899994E+02  0.30815E+06
 0.66949997E+02  0.25077E+06
 0.66999992E+02  0.17384E+06
 0.67049995E+02  0.85607E+05
 0.67099998E+02 -0.29509E+04
 0.67149994E+02 -0.69080E+05
 0.67199997E+02 -0.10014E+06
 0.67249992E+02 -0.10430E+06
 0.67299995E+02 -0.90639E+05
 0.67349998E+02 -0.60384E+05
 0.67399994E+02 -0.23475E+05
 0.67449997E+02  0.65038E+04
 0.67499992E+02  0.29998E+05
 0.67549995E+02  0.45652E+05
 0.67599998E+02  0.50883E+05
 0.67649994E+02  0.49896E+05
 0.67699997E+02  0.47706E+05
 0.67749992E+02  0.56713E+05
 0.67799995E+02  0.77718E+05
 0.67849998E+02  0.97862E+05
 0.67899994E+02  0.10590E+06
 0.67949997E+02  0.10265E+06
 0.67999992E+02  0.91665E+05
 0.68049995E+02  0.74658E+05
 0.68099998E+02  0.51132E+05
 0.68149994E+02  0.22417E+05
 0.68199997E+02 -0.10785E+05
 0.68249992E+02 -0.40043E+05
 0.68299995E+02 -0.49090E+05
 0.68349998E+02 -0.35078E+05
 0.68399994E+02 -0.49945E+04
 0.68449997E+02  0.26661E+05
 0.68499992E+02  0.46033E+05
 0.68549995E+02  0.50954E+05
 0.68599998E+02  0.46539E+05
 0.68649994E+02  0.40972E+05
 0.68699997E+02  0.40780E+05
 0.68749992E+02  0.46587E+05
 0.68799995E+02  0.48780E+05
 0.68849998E+02  0.33420E+05
 0.68899994E+02 -0.10438E+05
 0.68949997E+02 -0.83104E+05
 0.68999992E+02 -0.16934E+06
 0.69049995E+02 -0.25575E+06
 0.69099998E+02 -0.33038E+06
 0.69149994E+02 -0.37534E+06
 0.69199997E+02 -0.37589E+06
 0.69249992E+02 -0.31929E+06
 0.69299995E+02 -0.20410E+06
 0.69349998E+02 -0.43715E+05
 0.69399994E+02  0.14392E+06
 0.69449997E+02  0.32864E+06
 0.69499992E+02  0.48324E+06
 0.69549995E+02  0.60246E+06
 0.69599998E+02  0.68843E+06
 0.69649994E+02  0.74363E+06
 0.69699997E+02  0.77323E+06
 0.69749992E+02  0.78645E+06
 0.69799995E+02  0.80596E+06
 0.69849998E+02  0.84499E+06
 0.69899994E+02  0.89631E+06
 0.69949997E+02  0.94305E+06
 0.69999992E+02  0.96251E+06
 0.70049995E+02  0.93876E+06
 0.70099998E+02  0.87405E+06
 0.70149994E+02  0.78036E+06
 0.70199997E+02  0.66659E+06
 0.70249992E+02  0.54647E+06
 0.70299995E+02  0.44461E+06
 0.70349998E+02  0.36263E+06
 0.70399994E+02  0.29299E+06
 0.70449997E+02  0.23862E+06
 0.70499992E+02  0.19822E+06
 0.70549995E+02  0.18114E+06
 0.70599998E+02  0.19056E+06
 0.70649994E+02  0.20944E+06
 0.70699997E+02  0.21269E+06
 0.70749992E+02  0.18711E+06
 0.70799995E+02  0.12732E+06
 0.70849998E+02  0.36258E+05
 0.70899994E+02 -0.75238E+05
 0.70949997E+02 -0.20627E+06
 0.70999992E+02 -0.36236E+06
 0.71049995E+02 -0.54079E+06
 0.71099998E+02 -0.72304E+06
 0.71149994E+02 -0.88953E+06
 0.71199997E+02 -0.10298E+07
 0.71249992E+02 -0.11446E+07
 0.71299995E+02 -0.12372E+07
 0.71349998E+02 -0.13026E+07
 0.71399994E+02 -0.13282E+07
 0.71449997E+02 -0.13166E+07
 0.71499992E+02 -0.12831E+07
 0.71549995E+02 -0.12328E+07
 0.71599998E+02 -0.11673E+07
 0.71649994E+02 -0.10869E+07
 0.71699997E+02 -0.99316E+06
 0.71749992E+02 -0.88535E+06
 0.71799995E+02 -0.75886E+06
 0.71849998E+02 -0.61254E+06
 0.71899994E+02 -0.45040E+06
 0.71949997E+02 -0.27903E+06
 0.71999992E+02 -0.10658E+06
 0.72049995E+02  0.57434E+05
 0.72099998E+02  0.20276E+06
 0.72149994E+02  0.31935E+06
 0.72199997E+02  0.40010E+06
 0.72249992E+02  0.45523E+06
 0.72299995E+02  0.50549E+06
 0.72349998E+02  0.55159E+06
 0.72399994E+02  0.58255E+06
 0.72449997E+02  0.59739E+06
 0.72499992E+02  0.60840E+06
 0.72549995E+02  0.62340E+06
 0.72599998E+02  0.63858E+06
 0.72649994E+02  0.64022E+06
 0.72699997E+02  0.61370E+06
 0.72749992E+02  0.56077E+06
 0.72799995E+02  0.48518E+06
 0.72849998E+02  0.38338E+06
 0.72899994E+02  0.26145E+06
 0.72949997E+02  0.12752E+06
 0.72999992E+02 -0.18146E+05
 0.73049995E+02 -0.16484E+06
 0.73099998E+02 -0.29598E+06
 0.73149994E+02 -0.39756E+06
 0.73199997E+02 -0.45715E+06
 0.73249992E+02 -0.47338E+06
 0.73299995E+02 -0.46095E+06
 0.73349998E+02 -0.43919E+06
 0.73399994E+02 -0.42158E+06
 0.73449997E+02 -0.41498E+06
 0.73499992E+02 -0.42233E+06
 0.73549995E+02 -0.44815E+06
 0.73599998E+02 -0.49645E+06
 0.73649994E+02 -0.56453E+06
 0.73699997E+02 -0.64516E+06
 0.73749992E+02 -0.72973E+06
 0.73799995E+02 -0.80801E+06
 0.73849998E+02 -0.87527E+06
 0.73899994E+02 -0.92693E+06
 0.73949997E+02 -0.95114E+06
 0.73999992E+02 -0.94030E+06
 0.74049995E+02 -0.90013E+06
 0.74099998E+02 -0.84743E+06
 0.74149994E+02 -0.79660E+06
 0.74199997E+02 -0.74643E+06
 0.74249992E+02 -0.68714E+06
 0.74299995E+02 -0.62017E+06
 0.74349998E+02 -0.55893E+06
 0.74399994E+02 -0.51260E+06
 0.74449997E+02 -0.48534E+06
 0.74499992E+02 -0.47894E+06
 0.74549995E+02 -0.48782E+06
 0.74599998E+02 -0.49960E+06
 0.74649994E+02 -0.50040E+06
 0.74699997E+02 -0.48122E+06
 0.74749992E+02 -0.44018E+06
 0.74799995E+02 -0.37468E+06
 0.74849998E+02 -0.28772E+06
 0.74899994E+02 -0.18872E+06
 0.74949997E+02 -0.85493E+05
 0.74999992E+02  0.11404E+05
 0.75049995E+02  0.95386E+05
 0.75099998E+02  0.16365E+06
 0.75149994E+02  0.21474E+06
 0.75199997E+02  0.24548E+06
 0.75249992E+02  0.25580E+06
 0.75299995E+02  0.24592E+06
 0.75349998E+02  0.21955E+06
 0.75399994E+02  0.19171E+06
 0.75449997E+02  0.17285E+06
 0.75499992E+02  0.17306E+06
 0.75549995E+02  0.19858E+06
 0.75599998E+02  0.24675E+06
 0.75649994E+02  0.31392E+06
 0.75699997E+02  0.40235E+06
 0.75749992E+02  0.50521E+06
 0.75799995E+02  0.59745E+06
 0.75849998E+02  0.66622E+06
 0.75899994E+02  0.71560E+06
 0.75949997E+02  0.75071E+06
 0.75999992E+02  0.77172E+06
 0.76049995E+02  0.77436E+06
 0.76099998E+02  0.76033E+06
 0.76149994E+02  0.73741E+06
 0.76199997E+02  0.71062E+06
 0.76249992E+02  0.68111E+06
 0.76299995E+02  0.64913E+06
 0.76349998E+02  0.61666E+06
 0.76399994E+02  0.58607E+06
 0.76449997E+02  0.56198E+06
 0.76499992E+02  0.55076E+06
 0.76549995E+02  0.55681E+06
 0.76599998E+02  0.58058E+06
 0.76649994E+02  0.61613E+06
 0.76699997E+02  0.65657E+06
 0.76749992E+02  0.69119E+06
 0.76799995E+02  0.71247E+06
 0.76849998E+02  0.72273E+06
 0.76899994E+02  0.72419E+06
 0.76949997E+02  0.72185E+06
 0.76999992E+02  0.72083E+06
 0.77049995E+02  0.72267E+06
 0.77099998E+02  0.73225E+06
 0.77149994E+02  0.75757E+06
 0.77199997E+02  0.79938E+06
 0.77249992E+02  0.84521E+06
 0.77299995E+02  0.87875E+06
 0.77349998E+02  0.89180E+06
 0.77399994E+02  0.88060E+06
 0.77449997E+02  0.84507E+06
 0.77499992E+02  0.78209E+06
 0.77549995E+02  0.69118E+06
 0.77599998E+02  0.57922E+06
 0.77649994E+02  0.45670E+06
 0.77699997E+02  0.33457E+06
 0.77749992E+02  0.21866E+06
 0.77799995E+02  0.10944E+06
 0.77849998E+02  0.63800E+04
 0.77899994E+02 -0.89325E+05
 0.77949997E+02 -0.18354E+06
 0.77999992E+02 -0.28040E+06
 0.78049995E+02 -0.37689E+06
 0.78099998E+02 -0.47179E+06
 0.78149994E+02 -0.56724E+06
 0.78199997E+02 -0.66122E+06
 0.78249992E+02 -0.75263E+06
 0.78299995E+02 -0.83588E+06
 0.78349998E+02 -0.90003E+06
 0.78399994E+02 -0.93710E+06
 0.78449997E+02 -0.94562E+06
 0.78499992E+02 -0.92989E+06
 0.78549995E+02 -0.89117E+06
 0.78599998E+02 -0.83021E+06
 0.78649994E+02 -0.75040E+06
 0.78699997E+02 -0.65598E+06
 0.78749992E+02 -0.55512E+06
 0.78799995E+02 -0.46021E+06
 0.78849998E+02 -0.38055E+06
 0.78899994E+02 -0.32388E+06
 0.78949997E+02 -0.29115E+06
 0.78999992E+02 -0.27698E+06
 0.79049995E+02 -0.27583E+06
 0.79099998E+02 -0.27983E+06
 0.79149994E+02 -0.27671E+06
 0.79199997E+02 -0.25555E+06
 0.79249992E+02 -0.21738E+06
 0.79299995E+02 -0.17259E+06
 0.79349998E+02 -0.13509E+06
 0.79399994E+02 -0.11432E+06
 0.79449997E+02 -0.11036E+06
 0.79499992E+02 -0.11780E+06
 0.79549995E+02 -0.13073E+06
 0.79599998E+02 -0.14632E+06
 0.79649994E+02 -0.16184E+06
 0.79699997E+02 -0.17535E+06
 0.79749992E+02 -0.18401E+06
 0.79799995E+02 -0.18404E+06
 0.79849998E+02 -0.17643E+06
 0.79899994E+02 -0.16741E+06
 0.79949997E+02 -0.16197E+06
 0.79999992E+02 -0.16175E+06
 0.80049995E+02 -0.16250E+06
 0.80099998E+02 -0.15782E+06
 0.80149994E+02 -0.14896E+06
 0.80199997E+02 -0.14305E+06
 0.80249992E+02 -0.15139E+06
 0.80299995E+02 -0.17633E+06
 0.80349998E+02 -0.21016E+06
 0.80399994E+02 -0.24615E+06
 0.80449997E+02 -0.28318E+06
 0.80499992E+02 -0.31944E+06
 0.80549995E+02 -0.35362E+06
 0.80599998E+02 -0.38444E+06
 0.80649994E+02 -0.40942E+06
 0.80699997E+02 -0.43043E+06
 0.80749992E+02 -0.45449E+06
 0.80799995E+02 -0.48277E+06
 0.80849998E+02 -0.51055E+06
 0.80899994E+02 -0.53701E+06
 0.80949997E+02 -0.55594E+06
 0.80999992E+02 -0.56713E+06
 0.81049995E+02 -0.57414E+06
 0.81099998E+02 -0.57008E+06
 0.81149994E+02 -0.54679E+06
 0.81199997E+02 -0.49915E+06
 0.81249992E+02 -0.42450E+06
 0.81299995E+02 -0.32674E+06
 0.81349998E+02 -0.21584E+06
 0.81399994E+02 -0.97299E+05
 0.81449997E+02  0.31810E+05
 0.81499992E+02  0.16858E+06
 0.81549995E+02  0.30605E+06
 0.81599998E+02  0.44206E+06
 0.81649994E+02  0.57424E+06
 0.81699997E+02  0.69715E+06
 0.81749992E+02  0.80803E+06
 0.81799995E+02  0.90440E+06
 0.81849998E+02  0.98202E+06
 0.81899994E+02  0.10403E+07
 0.81949997E+02  0.10804E+07
 0.81999992E+02  0.11035E+07
 0.82049995E+02  0.11119E+07
 0.82099998E+02  0.11034E+07
 0.82149994E+02  0.10781E+07
 0.82199997E+02  0.10420E+07
 0.82249992E+02  0.99793E+06
 0.82299995E+02  0.94975E+06
 0.82349998E+02  0.89969E+06
 0.82399994E+02  0.84880E+06
 0.82449997E+02  0.80333E+06
 0.82499992E+02  0.76400E+06
 0.82549995E+02  0.72370E+06
 0.82599998E+02  0.67937E+06
 0.82649994E+02  0.62641E+06
 0.82699997E+02  0.56029E+06
 0.82749992E+02  0.48262E+06
 0.82799995E+02  0.39621E+06
 0.82849998E+02  0.30698E+06
 0.82899994E+02  0.21952E+06
 0.82949997E+02  0.13849E+06
 0.82999992E+02  0.70073E+05
 0.83049995E+02  0.18061E+05
 0.83099998E+02 -0.20335E+05
 0.83149994E+02 -0.54248E+05
 0.83199997E+02 -0.89302E+05
 0.83249992E+02 -0.12573E+06
 0.83299995E+02 -0.15874E+06
 0.83349998E+02 -0.18180E+06
 0.83399994E+02 -0.19285E+06
 0.83449997E+02 -0.19782E+06
 0.83499992E+02 -0.20424E+06
 0.83549995E+02 -0.21455E+06
 0.83599998E+02 -0.22736E+06
 0.83649994E+02 -0.23915E+06
 0.83699997E+02 -0.24635E+06
 0.83749992E+02 -0.25104E+06
 0.83799995E+02 -0.25985E+06
 0.83849998E+02 -0.27795E+06
 0.83899994E+02 -0.30879E+06
 0.83949997E+02 -0.35332E+06
 0.83999992E+02 -0.41184E+06
 0.84049995E+02 -0.48252E+06
 0.84099998E+02 -0.56237E+06
 0.84149994E+02 -0.64502E+06
 0.84199997E+02 -0.72420E+06
 0.84249992E+02 -0.79379E+06
 0.84299995E+02 -0.84693E+06
 0.84349998E+02 -0.88064E+06
 0.84399994E+02 -0.89430E+06
 0.84449997E+02 -0.89565E+06
 0.84499992E+02 -0.88910E+06
 0.84549995E+02 -0.87313E+06
 0.84599998E+02 -0.85096E+06
 0.84649994E+02 -0.82559E+06
 0.84699997E+02 -0.79652E+06
 0.84749992E+02 -0.76540E+06
 0.84799995E+02 -0.73449E+06
 0.84849998E+02 -0.70119E+06
 0.84899994E+02 -0.65808E+06
 0.84949997E+02 -0.59702E+06
 0.84999992E+02 -0.51614E+06
 0.85049995E+02 -0.41956E+06
 0.85099998E+02 -0.31528E+06
 0.85149994E+02 -0.21124E+06
 0.85199997E+02 -0.11336E+06
 0.85249992E+02 -0.17840E+05
 0.85299995E+02  0.81550E+05
 0.85349998E+02  0.18411E+06
 0.85399994E+02  0.28459E+06
 0.85449997E+02  0.37598E+06
 0.85499992E+02  0.45096E+06
 0.85549995E+02  0.50703E+06
 0.85599998E+02  0.54534E+06
 0.85649994E+02  0.56391E+06
 0.85699997E+02  0.56154E+06
 0.85749992E+02  0.53738E+06
 0.85799995E+02  0.49393E+06
 0.85849998E+02  0.43744E+06
 0.85899994E+02  0.38148E+06
 0.85949997E+02  0.33261E+06
 0.85999992E+02  0.29412E+06
 0.86049995E+02  0.26946E+06
 0.86099998E+02  0.25653E+06
 0.86149994E+02  0.25996E+06
 0.86199997E+02  0.28667E+06
 0.86249992E+02  0.33905E+06
 0.86299995E+02  0.41009E+06
 0.86349998E+02  0.49012E+06
 0.86399994E+02  0.56974E+06
 0.86449997E+02  0.64078E+06
 0.86499992E+02  0.69596E+06
 0.86549995E+02  0.73318E+06
 0.86599998E+02  0.75240E+06
 0.86649994E+02  0.74837E+06
 0.86699997E+02  0.71924E+06
 0.86749992E+02  0.66821E+06
 0.86799995E+02  0.60500E+06
 0.86849998E+02  0.53566E+06
 0.86899994E+02  0.46679E+06
 0.86949997E+02  0.40334E+06
 0.86999992E+02  0.34465E+06
 0.87049995E+02  0.29385E+06
 0.87099998E+02  0.25202E+06
 0.87149994E+02  0.22195E+06
 0.87199997E+02  0.20181E+06
 0.87249992E+02  0.18747E+06
 0.87299995E+02  0.17537E+06
 0.87349998E+02  0.16067E+06
 0.87399994E+02  0.14079E+06
 0.87449997E+02  0.11532E+06
 0.87499992E+02  0.84772E+05
 0.87549995E+02  0.47645E+05
 0.87599991E+02  0.14892E+04
 0.87649994E+02 -0.54114E+05
 0.87699997E+02 -0.11634E+06
 0.87749992E+02 -0.17930E+06
 0.87799995E+02 -0.23915E+06
 0.87849991E+02 -0.29459E+06
 0.87899994E+02 -0.34651E+06
 0.87949997E+02 -0.39636E+06
 0.87999992E+02 -0.44425E+06
 0.88049995E+02 -0.49289E+06
 0.88099991E+02 -0.54426E+06
 0.88149994E+02 -0.59742E+06
 0.88199997E+02 -0.65099E+06
 0.88249992E+02 -0.70653E+06
 0.88299995E+02 -0.76461E+06
 0.88349991E+02 -0.82017E+06
 0.88399994E+02 -0.86613E+06
 0.88449997E+02 -0.89961E+06
 0.88499992E+02 -0.91897E+06
 0.88549995E+02 -0.92217E+06
 0.88599991E+02 -0.90917E+06
 0.88649994E+02 -0.87997E+06
 0.88699997E+02 -0.83539E+06
 0.88749992E+02 -0.77906E+06
 0.88799995E+02 -0.71400E+06
 0.88849991E+02 -0.64776E+06
 0.88899994E+02 -0.58539E+06
 0.88949997E+02 -0.52783E+06
 0.88999992E+02 -0.47636E+06
 0.89049995E+02 -0.42525E+06
 0.89099991E+02 -0.36988E+06
 0.89149994E+02 -0.30588E+06
 0.89199997E+02 -0.22855E+06
 0.89249992E+02 -0.13574E+06
 0.89299995E+02 -0.26738E+05
 0.89349991E+02  0.91463E+05
 0.89399994E+02  0.21170E+06
 0.89449997E+02  0.33277E+06
 0.89499992E+02  0.45260E+06
 0.89549995E+02  0.56549E+06
 0.89599991E+02  0.66248E+06
 0.89649994E+02  0.73444E+06
 0.89699997E+02  0.77609E+06
 0.89749992E+02  0.78794E+06
 0.89799995E+02  0.77234E+06
 0.89849991E+02  0.72950E+06
 0.89899994E+02  0.65773E+06
 0.89949997E+02  0.55828E+06
 0.89999992E+02  0.44070E+06
 0.90049995E+02  0.31654E+06
 0.90099991E+02  0.19415E+06
 0.90149994E+02  0.82954E+05
 0.90199997E+02 -0.95141E+04
 0.90249992E+02 -0.82347E+05
 0.90299995E+02 -0.13589E+06
 0.90349991E+02 -0.16553E+06
 0.90399994E+02 -0.16611E+06
 0.90449997E+02 -0.13685E+06
 0.90499992E+02 -0.82094E+05
 0.90549995E+02 -0.84651E+04
 0.90599991E+02  0.76976E+05
 0.90649994E+02  0.16650E+06
 0.90699997E+02  0.25411E+06
 0.90749992E+02  0.33509E+06
 0.90799995E+02  0.40258E+06
 0.90849991E+02  0.44867E+06
 0.90899994E+02  0.46803E+06
 0.90949997E+02  0.46061E+06
 0.90999992E+02  0.42946E+06
 0.91049995E+02  0.37757E+06
 0.91099991E+02  0.30908E+06
 0.91149994E+02  0.23017E+06
 0.91199997E+02  0.14963E+06
 0.91249992E+02  0.76841E+05
 0.91299995E+02  0.20585E+05
 0.91349991E+02 -0.13896E+05
 0.91399994E+02 -0.23577E+05
 0.91449997E+02 -0.60541E+04
 0.91499992E+02  0.36388E+05
 0.91549995E+02  0.94763E+05
 0.91599991E+02  0.16017E+06
 0.91649994E+02  0.22695E+06
 0.91699997E+02  0.28978E+06
 0.91749992E+02  0.34570E+06
 0.91799995E+02  0.39246E+06
 0.91849991E+02  0.42754E+06
 0.91899994E+02  0.44734E+06
 0.91949997E+02  0.44875E+06
 0.91999992E+02  0.43101E+06
 0.92049995E+02  0.39605E+06
 0.92099991E+02  0.34686E+06
 0.92149994E+02  0.28594E+06
 0.92199997E+02  0.21901E+06
 0.92249992E+02  0.14733E+06
 0.92299995E+02  0.68655E+05
 0.92349991E+02 -0.14974E+05
 0.92399994E+02 -0.10148E+06
 0.92449997E+02 -0.19191E+06
 0.92499992E+02 -0.28866E+06
 0.92549995E+02 -0.38880E+06
 0.92599991E+02 -0.48587E+06
 0.92649994E+02 -0.57279E+06
 0.92699997E+02 -0.64155E+06
 0.92749992E+02 -0.68670E+06
 0.92799995E+02 -0.70899E+06
 0.92849991E+02 -0.70977E+06
 0.92899994E+02 -0.68809E+06
 0.92949997E+02 -0.64776E+06
 0.92999992E+02 -0.59200E+06
 0.93049995E+02 -0.52537E+06
 0.93099991E+02 -0.45574E+06
 0.93149994E+02 -0.39089E+06
 0.93199997E+02 -0.33588E+06
 0.93249992E+02 -0.29126E+06
 0.93299995E+02 -0.25522E+06
 0.93349991E+02 -0.22735E+06
 0.93399994E+02 -0.20977E+06
 0.93449997E+02 -0.20141E+06
 0.93499992E+02 -0.19601E+06
 0.93549995E+02 -0.18701E+06
 0.93599991E+02 -0.16890E+06
 0.93649994E+02 -0.13722E+06
 0.93699997E+02 -0.93083E+05
 0.93749992E+02 -0.40493E+05
 0.93799995E+02  0.13622E+05
 0.93849991E+02  0.62900E+05
 0.93899994E+02  0.10134E+06
 0.93949997E+02  0.12370E+06
 0.93999992E+02  0.12668E+06
 0.94049995E+02  0.10961E+06
 0.94099991E+02  0.76060E+05
 0.94149994E+02  0.27821E+05
 0.94199997E+02 -0.33048E+05
 0.94249992E+02 -0.10424E+06
 0.94299995E+02 -0.18170E+06
 0.94349991E+02 -0.26024E+06
 0.94399994E+02 -0.33518E+06
 0.94449997E+02 -0.39944E+06
 0.94499992E+02 -0.44733E+06
 0.94549995E+02 -0.47574E+06
 0.94599991E+02 -0.48088E+06
 0.94649994E+02 -0.46010E+06
 0.94699997E+02 -0.41416E+06
 0.94749992E+02 -0.34471E+06
 0.94799995E+02 -0.25673E+06
 0.94849991E+02 -0.15725E+06
 0.94899994E+02 -0.50687E+05
 0.94949997E+02  0.56835E+05
 0.94999992E+02  0.15875E+06
 0.95049995E+02  0.25102E+06
 0.95099991E+02  0.33165E+06
 0.95149994E+02  0.39951E+06
 0.95199997E+02  0.45360E+06
 0.95249992E+02  0.49129E+06
 0.95299995E+02  0.51062E+06
 0.95349991E+02  0.51643E+06
 0.95399994E+02  0.51429E+06
 0.95449997E+02  0.50855E+06
 0.95499992E+02  0.50359E+06
 0.95549995E+02  0.50025E+06
 0.95599991E+02  0.49873E+06
 0.95649994E+02  0.49905E+06
 0.95699997E+02  0.49875E+06
 0.95749992E+02  0.49680E+06
 0.95799995E+02  0.49230E+06
 0.95849991E+02  0.48176E+06
 0.95899994E+02  0.46367E+06
 0.95949997E+02  0.43947E+06
 0.95999992E+02  0.41194E+06
 0.96049995E+02  0.38461E+06
 0.96099991E+02  0.36182E+06
 0.96149994E+02  0.34544E+06
 0.96199997E+02  0.33472E+06
 0.96249992E+02  0.32908E+06
 0.96299995E+02  0.32579E+06
 0.96349991E+02  0.32105E+06
 0.96399994E+02  0.31330E+06
 0.96449997E+02  0.30215E+06
 0.96499992E+02  0.28592E+06
 0.96549995E+02  0.26497E+06
 0.96599991E+02  0.24098E+06
 0.96649994E+02  0.21300E+06
 0.96699997E+02  0.18064E+06
 0.96749992E+02  0.14566E+06
 0.96799995E+02  0.10961E+06
 0.96849991E+02  0.75503E+05
 0.96899994E+02  0.44184E+05
 0.96949997E+02  0.14091E+05
 0.96999992E+02 -0.15137E+05
 0.97049995E+02 -0.44938E+05
 0.97099991E+02 -0.76322E+05
 0.97149994E+02 -0.10944E+06
 0.97199997E+02 -0.14533E+06
 0.97249992E+02 -0.18261E+06
 0.97299995E+02 -0.21975E+06
 0.97349991E+02 -0.25476E+06
 0.97399994E+02 -0.28462E+06
 0.97449997E+02 -0.31087E+06
 0.97499992E+02 -0.33588E+06
 0.97549995E+02 -0.36125E+06
 0.97599991E+02 -0.38517E+06
 0.97649994E+02 -0.40483E+06
 0.97699997E+02 -0.41947E+06
 0.97749992E+02 -0.42850E+06
 0.97799995E+02 -0.43472E+06
 0.97849991E+02 -0.44258E+06
 0.97899994E+02 -0.45332E+06
 0.97949997E+02 -0.46364E+06
 0.97999992E+02 -0.46939E+06
