-0.20000000E+01 -0.22319E+05
-0.19500000E+01 -0.22952E+05
-0.19000000E+01 -0.23443E+05
-0.18500000E+01 -0.23770E+05
-0.18000000E+01 -0.24124E+05
-0.17500000E+01 -0.24873E+05
-0.17000000E+01 -0.26023E+05
-0.16500001E+01 -0.27234E+05
-0.16000000E+01 -0.28134E+05
-0.15500000E+01 -0.27923E+05
-0.15000000E+01 -0.26009E+05
-0.14500000E+01 -0.22557E+05
-0.14000001E+01 -0.18053E+05
-0.13500000E+01 -0.13103E+05
-0.13000001E+01 -0.78670E+04
-0.12500000E+01 -0.24874E+04
-0.12000000E+01  0.24838E+04
-0.11500001E+01  0.66920E+04
-0.11000000E+01  0.98938E+04
-0.10500001E+01  0.11929E+05
-0.10000000E+01  0.12988E+05
-0.95000005E+00  0.13419E+05
-0.90000010E+00  0.13610E+05
-0.85000002E+00  0.13963E+05
-0.80000007E+00  0.14565E+05
-0.75000012E+00  0.15312E+05
-0.70000005E+00  0.16125E+05
-0.65000010E+00  0.17082E+05
-0.60000014E+00  0.18185E+05
-0.55000007E+00  0.19310E+05
-0.50000012E+00  0.20349E+05
-0.45000005E+00  0.21054E+05
-0.40000010E+00  0.21073E+05
-0.35000014E+00  0.20252E+05
-0.30000007E+00  0.18821E+05
-0.25000012E+00  0.17040E+05
-0.20000005E+00  0.15003E+05
-0.15000010E+00  0.12857E+05
-0.10000014E+00  0.10757E+05
-0.50000072E-01  0.87805E+04
-0.11920929E-06  0.68225E+04
 0.49999952E-01  0.48698E+04
 0.99999905E-01  0.27101E+04
 0.14999986E+00  0.11834E+03
 0.19999981E+00 -0.28155E+04
 0.24999976E+00 -0.58945E+04
 0.29999995E+00 -0.88446E+04
 0.34999990E+00 -0.11518E+05
 0.39999986E+00 -0.13530E+05
 0.44999981E+00 -0.14536E+05
 0.49999976E+00 -0.14587E+05
 0.54999995E+00 -0.13885E+05
 0.59999990E+00 -0.12663E+05
 0.64999986E+00 -0.11195E+05
 0.69999981E+00 -0.98204E+04
 0.74999976E+00 -0.88319E+04
 0.79999971E+00 -0.82783E+04
 0.84999990E+00 -0.79873E+04
 0.89999986E+00 -0.74059E+04
 0.94999981E+00 -0.58960E+04
 0.99999976E+00 -0.34946E+04
 0.10499997E+01 -0.43641E+03
 0.10999999E+01  0.30914E+04
 0.11499999E+01  0.67630E+04
 0.11999998E+01  0.10197E+05
 0.12499998E+01  0.12991E+05
 0.12999997E+01  0.15009E+05
 0.13499999E+01  0.16213E+05
 0.13999999E+01  0.16682E+05
 0.14499998E+01  0.16465E+05
 0.14999998E+01  0.15588E+05
 0.15499997E+01  0.14127E+05
 0.15999999E+01  0.12073E+05
 0.16499999E+01  0.95662E+04
 0.16999998E+01  0.69329E+04
 0.17499998E+01  0.43509E+04
 0.17999997E+01  0.19385E+04
 0.18499997E+01 -0.15078E+03
 0.18999999E+01 -0.18472E+04
 0.19499998E+01 -0.31048E+04
 0.19999998E+01 -0.37382E+04
 0.20499997E+01 -0.36481E+04
 0.20999999E+01 -0.30333E+04
 0.21499996E+01 -0.18994E+04
 0.21999998E+01 -0.21148E+03
 0.22499995E+01  0.19712E+04
 0.22999997E+01  0.43976E+04
 0.23499999E+01  0.68316E+04
 0.23999996E+01  0.92028E+04
 0.24499998E+01  0.11661E+05
 0.24999995E+01  0.14366E+05
 0.25499997E+01  0.16961E+05
 0.25999999E+01  0.18827E+05
 0.26499996E+01  0.19686E+05
 0.26999998E+01  0.19540E+05
 0.27499995E+01  0.18518E+05
 0.27999997E+01  0.16992E+05
 0.28499999E+01  0.15440E+05
 0.28999996E+01  0.14304E+05
 0.29499998E+01  0.13453E+05
 0.29999995E+01  0.12671E+05
 0.30499997E+01  0.11960E+05
 0.30999999E+01  0.11255E+05
 0.31499996E+01  0.10745E+05
 0.31999998E+01  0.10425E+05
 0.32499995E+01  0.10308E+05
 0.32999997E+01  0.10478E+05
 0.33499999E+01  0.10810E+05
 0.33999996E+01  0.10936E+05
 0.34499998E+01  0.10506E+05
 0.34999995E+01  0.95406E+04
 0.35499997E+01  0.81716E+04
 0.35999994E+01  0.65023E+04
 0.36499996E+01  0.45863E+04
 0.36999998E+01  0.24019E+04
 0.37499995E+01 -0.28681E+03
 0.37999997E+01 -0.32319E+04
 0.38499994E+01 -0.60951E+04
 0.38999996E+01 -0.86008E+04
 0.39499998E+01 -0.10364E+05
 0.39999995E+01 -0.11037E+05
 0.40499997E+01 -0.10450E+05
 0.40999994E+01 -0.90360E+04
 0.41499996E+01 -0.73363E+04
 0.41999998E+01 -0.56308E+04
 0.42499995E+01 -0.41920E+04
 0.42999997E+01 -0.31890E+04
 0.43499994E+01 -0.24748E+04
 0.43999996E+01 -0.20086E+04
 0.44499998E+01 -0.16583E+04
 0.44999995E+01 -0.12057E+04
 0.45499997E+01 -0.54411E+03
 0.45999994E+01  0.17122E+03
 0.46499996E+01  0.59812E+03
 0.46999998E+01  0.80998E+03
 0.47499995E+01  0.91092E+03
 0.47999997E+01  0.83900E+03
 0.48499994E+01  0.53402E+03
 0.48999996E+01 -0.36596E+02
 0.49499998E+01 -0.96980E+03
 0.49999995E+01 -0.22495E+04
 0.50499997E+01 -0.38600E+04
 0.50999994E+01 -0.58983E+04
 0.51499996E+01 -0.82567E+04
 0.51999998E+01 -0.10706E+05
 0.52499995E+01 -0.12927E+05
 0.52999997E+01 -0.14746E+05
 0.53499994E+01 -0.15896E+05
 0.53999996E+01 -0.16229E+05
 0.54499993E+01 -0.15997E+05
 0.54999995E+01 -0.15319E+05
 0.55499997E+01 -0.14126E+05
 0.55999994E+01 -0.12352E+05
 0.56499996E+01 -0.98462E+04
 0.56999993E+01 -0.67674E+04
 0.57499995E+01 -0.31588E+04
 0.57999997E+01  0.81878E+03
 0.58499994E+01  0.48324E+04
 0.58999996E+01  0.86936E+04
 0.59499993E+01  0.12010E+05
 0.59999995E+01  0.14650E+05
 0.60499992E+01  0.16508E+05
 0.60999994E+01  0.17444E+05
 0.61499996E+01  0.17087E+05
 0.61999998E+01  0.15439E+05
 0.62499990E+01  0.12777E+05
 0.62999992E+01  0.93951E+04
 0.63499994E+01  0.59053E+04
 0.63999996E+01  0.28628E+04
 0.64499998E+01  0.71602E+03
 0.64999990E+01 -0.58099E+03
 0.65499992E+01 -0.12568E+04
 0.65999994E+01 -0.14226E+04
 0.66499996E+01 -0.12422E+04
 0.66999998E+01 -0.10247E+04
 0.67499990E+01 -0.10488E+04
 0.67999992E+01 -0.12078E+04
 0.68499994E+01 -0.15275E+04
 0.68999996E+01 -0.21635E+04
 0.69499998E+01 -0.29617E+04
 0.69999990E+01 -0.36188E+04
 0.70499992E+01 -0.40228E+04
 0.70999994E+01 -0.43228E+04
 0.71499996E+01 -0.46909E+04
 0.71999998E+01 -0.50849E+04
 0.72499990E+01 -0.54091E+04
 0.72999992E+01 -0.54084E+04
 0.73499994E+01 -0.47250E+04
 0.73999996E+01 -0.35226E+04
 0.74499998E+01 -0.19597E+04
 0.74999990E+01 -0.13043E+03
 0.75499992E+01  0.16071E+04
 0.75999994E+01  0.27487E+04
 0.76499996E+01  0.30898E+04
 0.76999998E+01  0.28916E+04
 0.77499990E+01  0.23953E+04
 0.77999992E+01  0.18923E+04
 0.78499994E+01  0.15779E+04
 0.78999996E+01  0.12528E+04
 0.79499998E+01  0.87138E+03
 0.79999990E+01  0.51255E+03
 0.80499992E+01  0.31580E+03
 0.80999994E+01  0.38274E+03
 0.81499996E+01  0.67722E+03
 0.81999998E+01  0.12075E+04
 0.82499990E+01  0.19278E+04
 0.82999992E+01  0.28586E+04
 0.83499994E+01  0.39720E+04
 0.83999996E+01  0.50425E+04
 0.84499998E+01  0.60210E+04
 0.84999990E+01  0.69510E+04
 0.85499992E+01  0.77807E+04
 0.85999994E+01  0.85143E+04
 0.86499996E+01  0.90947E+04
 0.86999998E+01  0.96863E+04
 0.87499990E+01  0.10365E+05
 0.87999992E+01  0.11123E+05
 0.88499994E+01  0.11823E+05
 0.88999996E+01  0.12186E+05
 0.89499998E+01  0.11972E+05
 0.89999990E+01  0.10958E+05
 0.90499992E+01  0.91254E+04
 0.90999994E+01  0.65350E+04
 0.91499996E+01  0.35693E+04
 0.91999989E+01  0.13937E+03
 0.92499990E+01 -0.36306E+04
 0.92999992E+01 -0.73912E+04
 0.93499994E+01 -0.11060E+05
 0.93999996E+01 -0.14389E+05
 0.94499989E+01 -0.17166E+05
 0.94999990E+01 -0.19050E+05
 0.95499992E+01 -0.20042E+05
 0.95999994E+01 -0.20440E+05
 0.96499996E+01 -0.20582E+05
 0.96999989E+01 -0.20670E+05
 0.97499990E+01 -0.20869E+05
 0.97999992E+01 -0.21028E+05
 0.98499994E+01 -0.21034E+05
 0.98999996E+01 -0.20752E+05
 0.99499989E+01 -0.20103E+05
 0.99999990E+01 -0.19241E+05
 0.10049999E+02 -0.18094E+05
 0.10099999E+02 -0.16712E+05
 0.10150000E+02 -0.15093E+05
 0.10199999E+02 -0.13123E+05
 0.10249999E+02 -0.10952E+05
 0.10299999E+02 -0.87486E+04
 0.10349999E+02 -0.65804E+04
 0.10400000E+02 -0.45999E+04
 0.10449999E+02 -0.28968E+04
 0.10499999E+02 -0.16201E+04
 0.10549999E+02 -0.97639E+03
 0.10599999E+02 -0.11916E+04
 0.10650000E+02 -0.22700E+04
 0.10699999E+02 -0.42262E+04
 0.10749999E+02 -0.69399E+04
 0.10799999E+02 -0.10069E+05
 0.10849999E+02 -0.13170E+05
 0.10900000E+02 -0.15599E+05
 0.10949999E+02 -0.16670E+05
 0.10999999E+02 -0.16088E+05
 0.11049999E+02 -0.13886E+05
 0.11099999E+02 -0.10019E+05
 0.11150000E+02 -0.45564E+04
 0.11199999E+02  0.19261E+04
 0.11249999E+02  0.86553E+04
 0.11299999E+02  0.15227E+05
 0.11349999E+02  0.21173E+05
 0.11400000E+02  0.26163E+05
 0.11449999E+02  0.29949E+05
 0.11499999E+02  0.32536E+05
 0.11549999E+02  0.34201E+05
 0.11599999E+02  0.35193E+05
 0.11650000E+02  0.35659E+05
 0.11699999E+02  0.35550E+05
 0.11749999E+02  0.34860E+05
 0.11799999E+02  0.33697E+05
 0.11849999E+02  0.32256E+05
 0.11900000E+02  0.30881E+05
 0.11949999E+02  0.29786E+05
 0.11999999E+02  0.28927E+05
 0.12049999E+02  0.28129E+05
 0.12099999E+02  0.27072E+05
 0.12150000E+02  0.25975E+05
 0.12199999E+02  0.24985E+05
 0.12249999E+02  0.24170E+05
 0.12299999E+02  0.23507E+05
 0.12349999E+02  0.22914E+05
 0.12400000E+02  0.22389E+05
 0.12449999E+02  0.21823E+05
 0.12499999E+02  0.21359E+05
 0.12549999E+02  0.21093E+05
 0.12599999E+02  0.21104E+05
 0.12649999E+02  0.21211E+05
 0.12699999E+02  0.21081E+05
 0.12749999E+02  0.20293E+05
 0.12799999E+02  0.18610E+05
 0.12849999E+02  0.16103E+05
 0.12899999E+02  0.12914E+05
 0.12949999E+02  0.94300E+04
 0.12999999E+02  0.60556E+04
 0.13049999E+02  0.30055E+04
 0.13099999E+02  0.38517E+03
 0.13149999E+02 -0.15805E+04
 0.13199999E+02 -0.29801E+04
 0.13249999E+02 -0.39665E+04
 0.13299999E+02 -0.45794E+04
 0.13349999E+02 -0.50378E+04
 0.13399999E+02 -0.52700E+04
 0.13449999E+02 -0.53440E+04
 0.13499999E+02 -0.56088E+04
 0.13549999E+02 -0.61668E+04
 0.13599999E+02 -0.71549E+04
 0.13649999E+02 -0.86333E+04
 0.13699999E+02 -0.10215E+05
 0.13749999E+02 -0.11636E+05
 0.13799999E+02 -0.12777E+05
 0.13849999E+02 -0.13608E+05
 0.13899999E+02 -0.14375E+05
 0.13949999E+02 -0.15014E+05
 0.13999999E+02 -0.15438E+05
 0.14049999E+02 -0.15422E+05
 0.14099998E+02 -0.14579E+05
 0.14150000E+02 -0.12855E+05
 0.14199999E+02 -0.10339E+05
 0.14249998E+02 -0.73709E+04
 0.14299999E+02 -0.40249E+04
 0.14349998E+02 -0.46274E+03
 0.14400000E+02  0.31578E+04
 0.14449999E+02  0.68024E+04
 0.14499998E+02  0.10328E+05
 0.14549999E+02  0.13582E+05
 0.14599998E+02  0.16442E+05
 0.14650000E+02  0.19071E+05
 0.14699999E+02  0.21400E+05
 0.14749998E+02  0.23226E+05
 0.14799999E+02  0.24361E+05
 0.14849998E+02  0.24895E+05
 0.14900000E+02  0.24799E+05
 0.14949999E+02  0.23919E+05
 0.14999998E+02  0.22627E+05
 0.15049999E+02  0.21058E+05
 0.15099998E+02  0.19157E+05
 0.15150000E+02  0.16969E+05
 0.15199999E+02  0.14578E+05
 0.15249998E+02  0.12219E+05
 0.15299999E+02  0.10160E+05
 0.15349998E+02  0.84550E+04
 0.15400000E+02  0.71367E+04
 0.15449999E+02  0.58352E+04
 0.15499998E+02  0.41982E+04
 0.15549999E+02  0.22179E+04
 0.15599998E+02 -0.33714E+02
 0.15650000E+02 -0.23030E+04
 0.15699999E+02 -0.45409E+04
 0.15749998E+02 -0.67443E+04
 0.15799999E+02 -0.90104E+04
 0.15849998E+02 -0.11114E+05
 0.15900000E+02 -0.12868E+05
 0.15949999E+02 -0.14301E+05
 0.15999998E+02 -0.15397E+05
 0.16049999E+02 -0.16206E+05
 0.16099998E+02 -0.16882E+05
 0.16150000E+02 -0.17648E+05
 0.16199999E+02 -0.18488E+05
 0.16249998E+02 -0.19086E+05
 0.16299999E+02 -0.19195E+05
 0.16349998E+02 -0.18594E+05
 0.16400000E+02 -0.17127E+05
 0.16449999E+02 -0.14884E+05
 0.16499998E+02 -0.12240E+05
 0.16549999E+02 -0.95160E+04
 0.16599998E+02 -0.68076E+04
 0.16650000E+02 -0.43007E+04
 0.16699999E+02 -0.21308E+04
 0.16749998E+02 -0.65675E+03
 0.16799999E+02 -0.46420E+02
 0.16849998E+02 -0.20597E+03
 0.16900000E+02 -0.92314E+03
 0.16949999E+02 -0.18203E+04
 0.16999998E+02 -0.24993E+04
 0.17049999E+02 -0.27616E+04
 0.17099998E+02 -0.25329E+04
 0.17150000E+02 -0.16650E+04
 0.17199999E+02 -0.40108E+03
 0.17249998E+02  0.11086E+04
 0.17299999E+02  0.26897E+04
 0.17349998E+02  0.41101E+04
 0.17400000E+02  0.53965E+04
 0.17449999E+02  0.65206E+04
 0.17499998E+02  0.76593E+04
 0.17549999E+02  0.89498E+04
 0.17599998E+02  0.10207E+05
 0.17650000E+02  0.11040E+05
 0.17699999E+02  0.11083E+05
 0.17749998E+02  0.10220E+05
 0.17799999E+02  0.85219E+04
 0.17849998E+02  0.62464E+04
 0.17900000E+02  0.35647E+04
 0.17949999E+02  0.60150E+03
 0.17999998E+02 -0.24154E+04
 0.18049999E+02 -0.52315E+04
 0.18099998E+02 -0.74130E+04
 0.18150000E+02 -0.86612E+04
 0.18199999E+02 -0.89750E+04
 0.18249998E+02 -0.85022E+04
 0.18299999E+02 -0.76848E+04
 0.18349998E+02 -0.68487E+04
 0.18400000E+02 -0.60073E+04
 0.18449999E+02 -0.53360E+04
 0.18499998E+02 -0.48470E+04
 0.18549999E+02 -0.47772E+04
 0.18599998E+02 -0.53561E+04
 0.18650000E+02 -0.64595E+04
 0.18699999E+02 -0.80499E+04
 0.18749998E+02 -0.97934E+04
 0.18799999E+02 -0.11748E+05
 0.18849998E+02 -0.13811E+05
 0.18900000E+02 -0.15884E+05
 0.18949999E+02 -0.17786E+05
 0.18999998E+02 -0.19714E+05
 0.19049999E+02 -0.21812E+05
 0.19099998E+02 -0.24659E+05
 0.19150000E+02 -0.28508E+05
 0.19199999E+02 -0.32513E+05
 0.19249998E+02 -0.34050E+05
 0.19299999E+02 -0.33348E+05
 0.19349998E+02 -0.39617E+05
 0.19400000E+02 -0.57840E+05
 0.19449999E+02 -0.76636E+05
 0.19499998E+02 -0.77964E+05
 0.19549999E+02 -0.46812E+05
 0.19599998E+02  0.91619E+04
 0.19650000E+02  0.54249E+05
 0.19699999E+02  0.55530E+05
 0.19749998E+02  0.57495E+04
 0.19799999E+02 -0.61950E+05
 0.19849998E+02 -0.77902E+05
 0.19900000E+02 -0.38484E+05
 0.19949999E+02  0.21596E+05
 0.19999998E+02  0.64849E+05
 0.20049999E+02  0.37147E+05
 0.20099998E+02 -0.39872E+05
 0.20150000E+02 -0.10218E+06
 0.20199999E+02 -0.96622E+05
 0.20249998E+02 -0.87495E+04
 0.20299999E+02  0.13918E+06
 0.20349998E+02  0.19674E+06
 0.20399998E+02  0.13358E+06
 0.20449999E+02  0.48374E+04
 0.20499998E+02 -0.87941E+05
 0.20549999E+02 -0.60604E+05
 0.20599998E+02  0.57678E+05
 0.20649998E+02  0.24716E+06
 0.20699999E+02  0.29548E+06
 0.20749998E+02  0.23325E+06
 0.20799999E+02  0.10134E+06
 0.20849998E+02 -0.23950E+05
 0.20899998E+02 -0.20644E+05
 0.20949999E+02  0.69517E+05
 0.20999998E+02  0.19449E+06
 0.21049999E+02  0.31626E+06
 0.21099998E+02  0.29691E+06
 0.21149998E+02  0.18298E+06
 0.21199999E+02  0.54198E+05
 0.21249998E+02 -0.69476E+05
 0.21299999E+02 -0.24214E+06
 0.21349998E+02 -0.39590E+06
 0.21399998E+02 -0.38407E+06
 0.21449999E+02 -0.40371E+06
 0.21499998E+02 -0.42908E+06
 0.21549999E+02 -0.44629E+06
 0.21599998E+02 -0.31025E+06
 0.21649998E+02  0.17738E+05
 0.21699999E+02  0.38749E+06
 0.21749998E+02  0.55882E+06
 0.21799999E+02  0.57607E+06
 0.21849998E+02  0.45186E+06
 0.21899998E+02  0.36520E+06
 0.21949999E+02  0.29900E+06
 0.21999998E+02  0.13492E+06
 0.22049999E+02  0.14036E+06
 0.22099998E+02  0.15175E+06
 0.22149998E+02  0.58777E+05
 0.22199999E+02 -0.80081E+05
 0.22249998E+02 -0.10421E+06
 0.22299999E+02 -0.16920E+06
 0.22349998E+02 -0.15104E+06
 0.22399998E+02 -0.11326E+06
 0.22449999E+02 -0.21165E+06
 0.22499998E+02 -0.22908E+06
 0.22549999E+02 -0.25136E+06
 0.22599998E+02 -0.26613E+06
 0.22649998E+02 -0.26513E+06
 0.22699999E+02 -0.41608E+06
 0.22749998E+02 -0.41745E+06
 0.22799999E+02 -0.21788E+06
 0.22849998E+02 -0.17843E+06
 0.22899998E+02  0.53031E+05
 0.22949999E+02  0.26575E+06
 0.22999998E+02  0.26383E+06
 0.23049999E+02  0.37368E+06
 0.23099998E+02  0.37589E+06
 0.23149998E+02  0.34061E+06
 0.23199999E+02  0.31260E+06
 0.23249998E+02  0.24342E+06
 0.23299999E+02  0.24068E+06
 0.23349998E+02  0.13408E+06
 0.23399998E+02  0.72922E+05
 0.23449999E+02 -0.11426E+06
 0.23499998E+02 -0.16232E+06
 0.23549999E+02 -0.38939E+05
 0.23599998E+02 -0.11238E+06
 0.23649998E+02  0.15112E+06
 0.23699999E+02  0.25496E+06
 0.23749998E+02  0.18505E+06
 0.23799999E+02  0.15066E+06
 0.23849998E+02 -0.17162E+06
 0.23899998E+02 -0.41887E+06
 0.23949999E+02 -0.49739E+06
 0.23999998E+02 -0.51940E+06
 0.24049999E+02 -0.41599E+06
 0.24099998E+02 -0.31535E+06
 0.24149998E+02 -0.36274E+06
 0.24199999E+02 -0.28637E+06
 0.24249998E+02 -0.34046E+06
 0.24299999E+02 -0.39088E+06
 0.24349998E+02 -0.10961E+06
 0.24399998E+02  0.31894E+06
 0.24449999E+02  0.60435E+06
 0.24499998E+02  0.70547E+06
 0.24549999E+02  0.64752E+06
 0.24599998E+02  0.43184E+06
 0.24649998E+02  0.21662E+06
 0.24699999E+02 -0.13505E+06
 0.24749998E+02 -0.26057E+06
 0.24799999E+02 -0.22447E+06
 0.24849998E+02 -0.16536E+06
 0.24899998E+02 -0.78626E+05
 0.24949999E+02  0.97046E+05
 0.24999998E+02  0.17415E+06
 0.25049999E+02  0.50956E+05
 0.25099998E+02 -0.98179E+05
 0.25149998E+02 -0.25598E+06
 0.25199999E+02 -0.38447E+06
 0.25249998E+02 -0.62196E+06
 0.25299999E+02 -0.69330E+06
 0.25349998E+02 -0.72560E+06
 0.25399998E+02 -0.88999E+06
 0.25449999E+02 -0.92151E+06
 0.25499998E+02 -0.65953E+06
 0.25549999E+02 -0.36050E+06
 0.25599998E+02 -0.11376E+06
 0.25649998E+02  0.48358E+05
 0.25699999E+02  0.95968E+05
 0.25749998E+02  0.16203E+06
 0.25799999E+02  0.20729E+06
 0.25849998E+02  0.15486E+06
 0.25899998E+02  0.77655E+05
 0.25949999E+02  0.13509E+06
 0.25999998E+02  0.30598E+06
 0.26049999E+02  0.61749E+06
 0.26099998E+02  0.86668E+06
 0.26149998E+02  0.81045E+06
 0.26199999E+02  0.74026E+06
 0.26249998E+02  0.56184E+06
 0.26299999E+02  0.34176E+06
 0.26349998E+02  0.27217E+06
 0.26399998E+02  0.21770E+06
 0.26449999E+02  0.12695E+06
 0.26499998E+02 -0.38548E+05
 0.26549999E+02 -0.21632E+06
 0.26599998E+02 -0.39935E+06
 0.26649998E+02 -0.45790E+06
 0.26699999E+02 -0.38444E+06
 0.26749998E+02 -0.16379E+06
 0.26799999E+02  0.42634E+05
 0.26849998E+02  0.73316E+05
 0.26899998E+02  0.11450E+06
 0.26949999E+02  0.16457E+06
 0.26999998E+02  0.14241E+06
 0.27049997E+02  0.32289E+05
 0.27099998E+02 -0.15121E+06
 0.27149998E+02 -0.24705E+06
 0.27199999E+02 -0.39729E+06
 0.27249998E+02 -0.29971E+06
 0.27299997E+02  0.11214E+05
 0.27349998E+02  0.32779E+05
 0.27399998E+02  0.74069E+05
 0.27449999E+02  0.17985E+06
 0.27499998E+02  0.19691E+06
 0.27549997E+02  0.30056E+06
 0.27599998E+02  0.31405E+06
 0.27649998E+02  0.24137E+06
 0.27699999E+02  0.24265E+06
 0.27749998E+02  0.28361E+06
 0.27799997E+02  0.35383E+06
 0.27849998E+02  0.28419E+06
 0.27899998E+02  0.18741E+06
 0.27949999E+02  0.12953E+06
 0.27999998E+02  0.18667E+06
 0.28049997E+02  0.20692E+06
 0.28099998E+02  0.16871E+06
 0.28149998E+02  0.91367E+05
 0.28199999E+02 -0.33006E+05
 0.28249998E+02 -0.23613E+06
 0.28299997E+02 -0.35060E+06
 0.28349998E+02 -0.21510E+06
 0.28399998E+02 -0.15596E+06
 0.28449999E+02 -0.22250E+06
 0.28499998E+02 -0.35227E+06
 0.28549997E+02 -0.29418E+06
 0.28599998E+02 -0.24020E+06
 0.28649998E+02 -0.30329E+06
 0.28699999E+02 -0.35668E+06
 0.28749998E+02 -0.41824E+06
 0.28799997E+02 -0.34424E+06
 0.28849998E+02 -0.14381E+05
 0.28899998E+02  0.38334E+06
 0.28949999E+02  0.64342E+06
 0.28999998E+02  0.71393E+06
 0.29049997E+02  0.61018E+06
 0.29099998E+02  0.46483E+06
 0.29149998E+02  0.44074E+06
 0.29199999E+02  0.39095E+06
 0.29249998E+02  0.24913E+06
 0.29299997E+02  0.21171E+06
 0.29349998E+02  0.57474E+05
 0.29399998E+02 -0.14316E+06
 0.29449999E+02 -0.22487E+06
 0.29499998E+02 -0.28103E+06
 0.29549997E+02 -0.20720E+06
 0.29599998E+02 -0.18816E+06
 0.29649998E+02 -0.25964E+06
 0.29699999E+02 -0.27250E+06
 0.29749998E+02 -0.29553E+06
 0.29799997E+02 -0.31861E+06
 0.29849998E+02 -0.29674E+06
 0.29899998E+02 -0.20008E+06
 0.29949999E+02 -0.20374E+06
 0.29999998E+02 -0.24065E+06
 0.30049999E+02 -0.17527E+06
 0.30099998E+02 -0.12379E+06
 0.30149998E+02 -0.18393E+06
 0.30199997E+02 -0.25292E+06
 0.30249996E+02 -0.38336E+06
 0.30299999E+02 -0.52256E+06
 0.30349998E+02 -0.48806E+06
 0.30399998E+02 -0.41571E+06
 0.30449997E+02 -0.21336E+06
 0.30499996E+02  0.17450E+06
 0.30549999E+02  0.49425E+06
 0.30599998E+02  0.54293E+06
 0.30649998E+02  0.53355E+06
 0.30699997E+02  0.42309E+06
 0.30749996E+02  0.26221E+06
 0.30799999E+02  0.25262E+06
 0.30849998E+02  0.18775E+06
 0.30899998E+02  0.22375E+06
 0.30949997E+02  0.26448E+06
 0.30999996E+02  0.20599E+06
 0.31049999E+02 -0.16781E+05
 0.31099998E+02 -0.29463E+06
 0.31149998E+02 -0.41852E+06
 0.31199997E+02 -0.40734E+06
 0.31249996E+02 -0.27620E+06
 0.31299999E+02 -0.30015E+06
 0.31349998E+02 -0.36185E+06
 0.31399998E+02 -0.42200E+06
 0.31449997E+02 -0.52089E+06
 0.31499996E+02 -0.52233E+06
 0.31549999E+02 -0.49733E+06
 0.31599998E+02 -0.37565E+06
 0.31649998E+02 -0.75495E+05
 0.31699997E+02  0.17419E+06
 0.31749996E+02  0.27104E+06
 0.31799999E+02  0.38263E+06
 0.31849998E+02  0.54681E+06
 0.31899998E+02  0.61312E+06
 0.31949997E+02  0.61206E+06
 0.31999996E+02  0.49585E+06
 0.32049999E+02  0.36203E+06
 0.32099998E+02  0.25556E+06
 0.32149998E+02  0.13491E+06
 0.32199997E+02  0.18151E+05
 0.32249996E+02 -0.12492E+06
 0.32299999E+02 -0.13800E+06
 0.32349998E+02 -0.82411E+05
 0.32399998E+02 -0.17079E+05
 0.32449997E+02  0.17845E+05
 0.32499996E+02  0.23954E+05
 0.32549999E+02  0.10661E+06
 0.32599998E+02  0.27578E+06
 0.32649998E+02  0.30277E+06
 0.32699997E+02  0.20668E+06
 0.32749996E+02 -0.59482E+05
 0.32799999E+02 -0.40114E+06
 0.32849998E+02 -0.61253E+06
 0.32899998E+02 -0.72308E+06
 0.32949997E+02 -0.68645E+06
 0.32999996E+02 -0.50680E+06
 0.33049999E+02 -0.24597E+06
 0.33099998E+02 -0.18504E+06
 0.33149998E+02 -0.40067E+06
 0.33199997E+02 -0.87131E+06
 0.33249996E+02 -0.13467E+07
 0.33299999E+02 -0.14554E+07
 0.33349998E+02 -0.11769E+07
 0.33399998E+02 -0.90741E+06
 0.33449997E+02 -0.70406E+06
 0.33499996E+02 -0.30973E+06
 0.33549999E+02  0.19951E+06
 0.33599998E+02  0.92920E+06
 0.33649998E+02  0.16966E+07
 0.33699997E+02  0.22904E+07
 0.33749996E+02  0.26727E+07
 0.33799999E+02  0.27349E+07
 0.33849998E+02  0.22718E+07
 0.33899998E+02  0.12385E+07
 0.33949997E+02  0.11452E+06
 0.33999996E+02 -0.55549E+06
 0.34049999E+02 -0.59859E+06
 0.34099998E+02 -0.33626E+06
 0.34149998E+02 -0.16429E+06
 0.34199997E+02 -0.25617E+06
 0.34249996E+02 -0.34938E+06
 0.34299999E+02 -0.21151E+06
 0.34349998E+02 -0.11311E+06
 0.34399998E+02 -0.44239E+06
 0.34449997E+02 -0.92181E+06
 0.34499996E+02 -0.11032E+07
 0.34549999E+02 -0.11379E+07
 0.34599998E+02 -0.14128E+07
 0.34649998E+02 -0.16681E+07
 0.34699997E+02 -0.15665E+07
 0.34749996E+02 -0.14769E+07
 0.34799999E+02 -0.16093E+07
 0.34849998E+02 -0.18167E+07
 0.34899998E+02 -0.19918E+07
 0.34949997E+02 -0.19705E+07
 0.34999996E+02 -0.16159E+07
 0.35049999E+02 -0.98112E+06
 0.35099998E+02 -0.49438E+06
 0.35149998E+02 -0.14915E+06
 0.35199997E+02  0.42276E+06
 0.35249996E+02  0.10166E+07
 0.35299999E+02  0.16260E+07
 0.35349998E+02  0.21182E+07
 0.35399998E+02  0.25073E+07
 0.35449997E+02  0.27649E+07
 0.35499996E+02  0.29070E+07
 0.35549999E+02  0.27358E+07
 0.35599998E+02  0.18266E+07
 0.35649998E+02  0.75084E+06
 0.35699997E+02 -0.35507E+05
 0.35749996E+02 -0.50956E+06
 0.35799999E+02 -0.10294E+07
 0.35849998E+02 -0.12638E+07
 0.35899998E+02 -0.39154E+06
 0.35949997E+02  0.77110E+06
 0.35999996E+02  0.13309E+07
 0.36049999E+02  0.16603E+07
 0.36099998E+02  0.20542E+07
 0.36149998E+02  0.24706E+07
 0.36199997E+02  0.21660E+07
 0.36249996E+02  0.13074E+07
 0.36299999E+02  0.64995E+06
 0.36349998E+02  0.12819E+06
 0.36399998E+02 -0.12524E+06
 0.36449997E+02 -0.26284E+06
 0.36499996E+02 -0.30794E+06
 0.36549999E+02 -0.16672E+06
 0.36599998E+02 -0.10606E+06
 0.36649998E+02 -0.57258E+06
 0.36699997E+02 -0.12148E+07
 0.36749996E+02 -0.16148E+07
 0.36799999E+02 -0.15803E+07
 0.36849998E+02 -0.11799E+07
 0.36899998E+02 -0.70115E+06
 0.36949997E+02 -0.14476E+05
 0.36999996E+02  0.95950E+06
 0.37049999E+02  0.20108E+07
 0.37099998E+02  0.24472E+07
 0.37149998E+02  0.23786E+07
 0.37199997E+02  0.21428E+07
 0.37249996E+02  0.17615E+07
 0.37299999E+02  0.15579E+07
 0.37349998E+02  0.14287E+07
 0.37399998E+02  0.14186E+07
 0.37449997E+02  0.16498E+07
 0.37499996E+02  0.18795E+07
 0.37549999E+02  0.17419E+07
 0.37599998E+02  0.12030E+07
 0.37649998E+02  0.35524E+06
 0.37699997E+02 -0.62366E+06
 0.37749996E+02 -0.13431E+07
 0.37799999E+02 -0.17531E+07
 0.37849998E+02 -0.18302E+07
 0.37899998E+02 -0.17577E+07
 0.37949997E+02 -0.12422E+07
 0.37999996E+02 -0.45782E+06
 0.38049999E+02  0.29541E+05
 0.38099998E+02  0.69482E+05
 0.38149998E+02 -0.13001E+06
 0.38199997E+02 -0.25324E+06
 0.38249996E+02 -0.46412E+06
 0.38299999E+02 -0.60287E+06
 0.38349998E+02 -0.77203E+06
 0.38399998E+02 -0.95652E+06
 0.38449997E+02 -0.10430E+07
 0.38499996E+02 -0.81812E+06
 0.38549999E+02 -0.20055E+06
 0.38599998E+02  0.52182E+06
 0.38649998E+02  0.14352E+07
 0.38699997E+02  0.23917E+07
 0.38749996E+02  0.31828E+07
 0.38799999E+02  0.36925E+07
 0.38849998E+02  0.37038E+07
 0.38899998E+02  0.32629E+07
 0.38949997E+02  0.27882E+07
 0.38999996E+02  0.23704E+07
 0.39049999E+02  0.15938E+07
 0.39099998E+02  0.57461E+06
 0.39149998E+02 -0.47927E+05
 0.39199997E+02 -0.39022E+06
 0.39249996E+02 -0.72694E+06
 0.39299999E+02 -0.93137E+06
 0.39349998E+02 -0.13909E+07
 0.39399998E+02 -0.22647E+07
 0.39449997E+02 -0.33137E+07
 0.39499996E+02 -0.41789E+07
 0.39549999E+02 -0.44900E+07
 0.39599998E+02 -0.41994E+07
 0.39649998E+02 -0.34706E+07
 0.39699997E+02 -0.28318E+07
 0.39749996E+02 -0.24339E+07
 0.39799999E+02 -0.20085E+07
 0.39849998E+02 -0.15956E+07
 0.39899998E+02 -0.13789E+07
 0.39949997E+02 -0.14172E+07
 0.39999996E+02 -0.14294E+07
 0.40049999E+02 -0.11187E+07
 0.40099998E+02 -0.56388E+06
 0.40149998E+02  0.14448E+06
 0.40199997E+02  0.80231E+06
 0.40249996E+02  0.12491E+07
 0.40299999E+02  0.18208E+07
 0.40349998E+02  0.24363E+07
 0.40399998E+02  0.28828E+07
 0.40449997E+02  0.29446E+07
 0.40499996E+02  0.25434E+07
 0.40549999E+02  0.17449E+07
 0.40599998E+02  0.64800E+06
 0.40649998E+02 -0.17035E+06
 0.40699997E+02 -0.66966E+06
 0.40749996E+02 -0.81161E+06
 0.40799999E+02 -0.75395E+06
 0.40849998E+02 -0.54600E+06
 0.40899998E+02 -0.37505E+06
 0.40949997E+02 -0.49538E+06
 0.40999996E+02 -0.75604E+06
 0.41049999E+02 -0.13447E+07
 0.41099998E+02 -0.20072E+07
 0.41149998E+02 -0.25852E+07
 0.41199997E+02 -0.31420E+07
 0.41249996E+02 -0.35584E+07
 0.41299999E+02 -0.36140E+07
 0.41349998E+02 -0.33642E+07
 0.41399998E+02 -0.27595E+07
 0.41449997E+02 -0.19534E+07
 0.41499996E+02 -0.16220E+07
 0.41549999E+02 -0.16849E+07
 0.41599998E+02 -0.18178E+07
 0.41649998E+02 -0.20061E+07
 0.41699997E+02 -0.21348E+07
 0.41749996E+02 -0.19800E+07
 0.41799999E+02 -0.15269E+07
 0.41849998E+02 -0.98752E+06
 0.41899998E+02 -0.41929E+06
 0.41949997E+02  0.20271E+06
 0.41999996E+02  0.73797E+06
 0.42049999E+02  0.10522E+07
 0.42099998E+02  0.11762E+07
 0.42149998E+02  0.10204E+07
 0.42199997E+02  0.61257E+06
 0.42249996E+02  0.98046E+05
 0.42299999E+02 -0.47412E+06
 0.42349998E+02 -0.94272E+06
 0.42399998E+02 -0.12258E+07
 0.42449997E+02 -0.13954E+07
 0.42499996E+02 -0.14942E+07
 0.42549999E+02 -0.15103E+07
 0.42599998E+02 -0.14785E+07
 0.42649998E+02 -0.14753E+07
 0.42699997E+02 -0.14923E+07
 0.42749996E+02 -0.14413E+07
 0.42799995E+02 -0.12635E+07
 0.42849998E+02 -0.84861E+06
 0.42899998E+02 -0.38307E+06
 0.42949997E+02 -0.13591E+05
 0.42999996E+02  0.11868E+06
 0.43049995E+02  0.89532E+05
 0.43099998E+02  0.17400E+06
 0.43149998E+02  0.19203E+06
 0.43199997E+02  0.23731E+06
 0.43249996E+02  0.33512E+06
 0.43299995E+02  0.48680E+06
 0.43349998E+02  0.84942E+06
 0.43399998E+02  0.13483E+07
 0.43449997E+02  0.16568E+07
 0.43499996E+02  0.14873E+07
 0.43549995E+02  0.97338E+06
 0.43599998E+02  0.31269E+06
 0.43649998E+02 -0.40984E+06
 0.43699997E+02 -0.94933E+06
 0.43749996E+02 -0.11567E+07
 0.43799995E+02 -0.12466E+07
 0.43849998E+02 -0.10560E+07
 0.43899998E+02 -0.70216E+06
 0.43949997E+02 -0.44821E+06
 0.43999996E+02 -0.35800E+06
 0.44049995E+02 -0.49877E+06
 0.44099998E+02 -0.60457E+06
 0.44149998E+02 -0.57750E+06
 0.44199997E+02 -0.33069E+06
 0.44249996E+02  0.18767E+05
 0.44299995E+02  0.44639E+06
 0.44349998E+02  0.90388E+06
 0.44399998E+02  0.12265E+07
 0.44449997E+02  0.11784E+07
 0.44499996E+02  0.75553E+06
 0.44549995E+02  0.30825E+06
 0.44599998E+02 -0.63075E+05
 0.44649998E+02 -0.42261E+06
 0.44699997E+02 -0.62157E+06
 0.44749996E+02 -0.42994E+06
 0.44799995E+02 -0.86812E+05
 0.44849998E+02  0.14964E+06
 0.44899998E+02  0.29324E+06
 0.44949997E+02  0.41200E+06
 0.44999996E+02  0.40701E+06
 0.45049995E+02  0.17135E+06
 0.45099998E+02  0.12268E+05
 0.45149998E+02  0.71044E+05
 0.45199997E+02  0.10738E+06
 0.45249996E+02  0.19970E+06
 0.45299995E+02  0.42587E+06
 0.45349998E+02  0.77531E+06
 0.45399998E+02  0.10189E+07
 0.45449997E+02  0.10101E+07
 0.45499996E+02  0.10342E+07
 0.45549995E+02  0.11139E+07
 0.45599998E+02  0.10559E+07
 0.45649998E+02  0.89722E+06
 0.45699997E+02  0.81990E+06
 0.45749996E+02  0.83412E+06
 0.45799995E+02  0.87496E+06
 0.45849998E+02  0.98484E+06
 0.45899998E+02  0.10409E+07
 0.45949997E+02  0.89354E+06
 0.45999996E+02  0.62991E+06
 0.46049995E+02  0.36668E+06
 0.46099998E+02  0.21448E+06
 0.46149998E+02  0.17168E+06
 0.46199997E+02  0.19907E+06
 0.46249996E+02  0.28472E+06
 0.46299995E+02  0.16765E+06
 0.46349998E+02 -0.28856E+06
 0.46399998E+02 -0.78261E+06
 0.46449997E+02 -0.11232E+07
 0.46499996E+02 -0.12815E+07
 0.46549995E+02 -0.11527E+07
 0.46599998E+02 -0.73446E+06
 0.46649998E+02 -0.20163E+06
 0.46699997E+02  0.22130E+06
 0.46749996E+02  0.34983E+06
 0.46799995E+02  0.19208E+06
 0.46849998E+02 -0.67765E+05
 0.46899998E+02 -0.34770E+06
 0.46949997E+02 -0.46902E+06
 0.46999996E+02 -0.34999E+06
 0.47049995E+02 -0.12080E+06
 0.47099998E+02  0.18652E+06
 0.47149998E+02  0.48284E+06
 0.47199997E+02  0.70323E+06
 0.47249996E+02  0.85902E+06
 0.47299995E+02  0.89332E+06
 0.47349998E+02  0.71344E+06
 0.47399998E+02  0.42458E+06
 0.47449997E+02  0.22392E+06
 0.47499996E+02  0.18595E+06
 0.47549995E+02  0.15364E+06
 0.47599998E+02  0.68784E+05
 0.47649998E+02 -0.35275E+05
 0.47699997E+02 -0.17454E+06
 0.47749996E+02 -0.31400E+06
 0.47799995E+02 -0.42380E+06
 0.47849998E+02 -0.43995E+06
 0.47899998E+02 -0.43364E+06
 0.47949997E+02 -0.47265E+06
 0.47999996E+02 -0.49760E+06
 0.48049995E+02 -0.48650E+06
 0.48099998E+02 -0.55554E+06
 0.48149998E+02 -0.67033E+06
 0.48199997E+02 -0.73073E+06
 0.48249996E+02 -0.77361E+06
 0.48299995E+02 -0.81929E+06
 0.48349998E+02 -0.81750E+06
 0.48399998E+02 -0.75778E+06
 0.48449997E+02 -0.67241E+06
 0.48499996E+02 -0.59654E+06
 0.48549995E+02 -0.49263E+06
 0.48599998E+02 -0.29269E+06
 0.48649998E+02 -0.60060E+05
 0.48699997E+02  0.19208E+06
 0.48749996E+02  0.54099E+06
 0.48799995E+02  0.91808E+06
 0.48849998E+02  0.11889E+07
 0.48899998E+02  0.12136E+07
 0.48949997E+02  0.10337E+07
 0.48999996E+02  0.66282E+06
 0.49049995E+02  0.75989E+05
 0.49099998E+02 -0.35942E+06
 0.49149998E+02 -0.44023E+06
 0.49199997E+02 -0.19451E+06
 0.49249996E+02  0.22506E+06
 0.49299995E+02  0.57740E+06
 0.49349998E+02  0.74391E+06
 0.49399998E+02  0.73771E+06
 0.49449997E+02  0.58449E+06
 0.49499996E+02  0.35597E+06
 0.49549995E+02  0.22975E+06
 0.49599998E+02  0.29004E+06
 0.49649998E+02  0.46688E+06
 0.49699997E+02  0.66319E+06
 0.49749996E+02  0.81925E+06
 0.49799995E+02  0.85106E+06
 0.49849998E+02  0.70968E+06
 0.49899998E+02  0.47489E+06
 0.49949997E+02  0.30028E+06
 0.49999996E+02  0.26285E+06
 0.50049995E+02  0.31010E+06
 0.50099998E+02  0.34594E+06
 0.50149998E+02  0.36772E+06
 0.50199997E+02  0.31619E+06
 0.50249996E+02  0.19162E+06
 0.50299995E+02  0.14623E+06
 0.50349998E+02  0.26853E+06
 0.50399998E+02  0.50786E+06
 0.50449997E+02  0.83200E+06
 0.50499996E+02  0.11796E+07
 0.50549995E+02  0.14417E+07
 0.50599998E+02  0.15655E+07
 0.50649998E+02  0.14577E+07
 0.50699997E+02  0.11080E+07
 0.50749996E+02  0.68829E+06
 0.50799995E+02  0.34424E+06
 0.50849998E+02  0.95241E+05
 0.50899998E+02 -0.28484E+05
 0.50949997E+02 -0.88919E+05
 0.50999996E+02 -0.94260E+05
 0.51049995E+02 -0.84730E+05
 0.51099998E+02 -0.19064E+06
 0.51149998E+02 -0.41275E+06
 0.51199997E+02 -0.76755E+06
 0.51249996E+02 -0.12491E+07
 0.51299995E+02 -0.17530E+07
 0.51349998E+02 -0.21669E+07
 0.51399998E+02 -0.24020E+07
 0.51449997E+02 -0.23351E+07
 0.51499996E+02 -0.20141E+07
 0.51549995E+02 -0.15655E+07
 0.51599998E+02 -0.10294E+07
 0.51649998E+02 -0.56059E+06
 0.51699997E+02 -0.27293E+06
 0.51749996E+02 -0.19483E+06
 0.51799995E+02 -0.26283E+06
 0.51849998E+02 -0.36391E+06
 0.51899998E+02 -0.43385E+06
 0.51949997E+02 -0.51221E+06
 0.51999996E+02 -0.62734E+06
 0.52049995E+02 -0.75999E+06
 0.52099998E+02 -0.96209E+06
 0.52149998E+02 -0.12037E+07
 0.52199997E+02 -0.14538E+07
 0.52249996E+02 -0.15566E+07
 0.52299995E+02 -0.14887E+07
 0.52349998E+02 -0.13280E+07
 0.52399998E+02 -0.10499E+07
 0.52449997E+02 -0.69517E+06
 0.52499996E+02 -0.35355E+06
 0.52549995E+02 -0.12398E+06
 0.52599998E+02  0.31661E+05
 0.52649998E+02  0.99376E+05
 0.52699997E+02  0.10520E+06
 0.52749996E+02  0.14426E+06
 0.52799995E+02  0.23607E+06
 0.52849998E+02  0.34399E+06
 0.52899998E+02  0.44622E+06
 0.52949997E+02  0.57823E+06
 0.52999996E+02  0.68638E+06
 0.53049995E+02  0.69280E+06
 0.53099998E+02  0.60294E+06
 0.53149998E+02  0.43957E+06
 0.53199997E+02  0.17265E+06
 0.53249996E+02 -0.93554E+05
 0.53299995E+02 -0.19969E+06
 0.53349998E+02 -0.10281E+06
 0.53399998E+02  0.17773E+06
 0.53449997E+02  0.44542E+06
 0.53499996E+02  0.56374E+06
 0.53549995E+02  0.45856E+06
 0.53599998E+02  0.12770E+06
 0.53649998E+02 -0.31032E+06
 0.53699997E+02 -0.71068E+06
 0.53749996E+02 -0.10011E+07
 0.53799995E+02 -0.11899E+07
 0.53849998E+02 -0.11618E+07
 0.53899998E+02 -0.85060E+06
 0.53949997E+02 -0.37332E+06
 0.53999996E+02  0.57756E+05
 0.54049995E+02  0.38824E+06
 0.54099998E+02  0.60965E+06
 0.54149998E+02  0.65833E+06
 0.54199997E+02  0.51594E+06
 0.54249996E+02  0.28753E+06
 0.54299995E+02  0.95373E+05
 0.54349998E+02 -0.53576E+05
 0.54399998E+02 -0.13605E+06
 0.54449997E+02 -0.10284E+06
 0.54499996E+02  0.52104E+05
 0.54549995E+02  0.19584E+06
 0.54599998E+02  0.25466E+06
 0.54649998E+02  0.23163E+06
 0.54699997E+02  0.14972E+06
 0.54749996E+02  0.10183E+06
 0.54799995E+02  0.17552E+06
 0.54849998E+02  0.37157E+06
 0.54899998E+02  0.54958E+06
 0.54949997E+02  0.59145E+06
 0.54999996E+02  0.51975E+06
 0.55049995E+02  0.42336E+06
 0.55099998E+02  0.28390E+06
 0.55149998E+02  0.13366E+06
 0.55199997E+02  0.32586E+05
 0.55249996E+02 -0.77293E+05
 0.55299995E+02 -0.23863E+06
 0.55349998E+02 -0.38500E+06
 0.55399998E+02 -0.46680E+06
 0.55449997E+02 -0.52313E+06
 0.55499996E+02 -0.52679E+06
 0.55549995E+02 -0.47469E+06
 0.55599998E+02 -0.42311E+06
 0.55649998E+02 -0.40622E+06
 0.55699997E+02 -0.38274E+06
 0.55749996E+02 -0.36406E+06
 0.55799995E+02 -0.42195E+06
 0.55849995E+02 -0.53812E+06
 0.55899998E+02 -0.64539E+06
 0.55949997E+02 -0.70396E+06
 0.55999996E+02 -0.68672E+06
 0.56049995E+02 -0.55610E+06
 0.56099995E+02 -0.36240E+06
 0.56149998E+02 -0.17327E+06
 0.56199997E+02 -0.46763E+05
 0.56249996E+02  0.60173E+04
 0.56299995E+02 -0.33156E+05
 0.56349995E+02 -0.12151E+06
 0.56399998E+02 -0.16872E+06
 0.56449997E+02 -0.20342E+06
 0.56499996E+02 -0.20038E+06
 0.56549995E+02 -0.11193E+06
 0.56599995E+02 -0.97059E+03
 0.56649998E+02  0.68936E+05
 0.56699997E+02  0.74671E+05
 0.56749996E+02 -0.53694E+04
 0.56799995E+02 -0.14526E+06
 0.56849995E+02 -0.28312E+06
 0.56899998E+02 -0.38696E+06
 0.56949997E+02 -0.49287E+06
 0.56999996E+02 -0.56560E+06
 0.57049995E+02 -0.58381E+06
 0.57099995E+02 -0.54424E+06
 0.57149998E+02 -0.43338E+06
 0.57199997E+02 -0.28671E+06
 0.57249996E+02 -0.13981E+06
 0.57299995E+02 -0.39458E+05
 0.57349995E+02 -0.39669E+04
 0.57399998E+02 -0.44507E+05
 0.57449997E+02 -0.13389E+06
 0.57499996E+02 -0.13290E+06
 0.57549995E+02 -0.94932E+04
 0.57599995E+02  0.15602E+06
 0.57649998E+02  0.32170E+06
 0.57699997E+02  0.44495E+06
 0.57749996E+02  0.53745E+06
 0.57799995E+02  0.60026E+06
 0.57849995E+02  0.63542E+06
 0.57899998E+02  0.64115E+06
 0.57949997E+02  0.61884E+06
 0.57999996E+02  0.56638E+06
 0.58049995E+02  0.49313E+06
 0.58099995E+02  0.42911E+06
 0.58149998E+02  0.36425E+06
 0.58199997E+02  0.33023E+06
 0.58249996E+02  0.33168E+06
 0.58299995E+02  0.34826E+06
 0.58349995E+02  0.36859E+06
 0.58399998E+02  0.40704E+06
 0.58449997E+02  0.46285E+06
 0.58499996E+02  0.48114E+06
 0.58549995E+02  0.43476E+06
 0.58599995E+02  0.33550E+06
 0.58649998E+02  0.24074E+06
 0.58699997E+02  0.16841E+06
 0.58749996E+02  0.87631E+05
 0.58799995E+02  0.12878E+05
 0.58849995E+02  0.14097E+05
 0.58899998E+02  0.63193E+05
 0.58949997E+02  0.10923E+06
 0.58999996E+02  0.13546E+06
 0.59049995E+02  0.92302E+05
 0.59099995E+02 -0.25722E+05
 0.59149998E+02 -0.21229E+06
 0.59199997E+02 -0.42269E+06
 0.59249996E+02 -0.60181E+06
 0.59299995E+02 -0.66532E+06
 0.59349995E+02 -0.57996E+06
 0.59399998E+02 -0.38973E+06
 0.59449997E+02 -0.16308E+06
 0.59499996E+02 -0.45479E+04
 0.59549995E+02  0.27559E+05
 0.59599995E+02 -0.63565E+05
 0.59649998E+02 -0.24989E+06
 0.59699997E+02 -0.53305E+06
 0.59749996E+02 -0.83911E+06
 0.59799995E+02 -0.10950E+07
 0.59849995E+02 -0.12770E+07
 0.59899998E+02 -0.13337E+07
 0.59949997E+02 -0.12279E+07
 0.59999996E+02 -0.96659E+06
 0.60049995E+02 -0.57616E+06
 0.60099995E+02 -0.12183E+06
 0.60149998E+02  0.25761E+06
 0.60199997E+02  0.45425E+06
 0.60249996E+02  0.44006E+06
 0.60299995E+02  0.29585E+06
 0.60349995E+02  0.95820E+05
 0.60399998E+02 -0.10409E+06
 0.60449997E+02 -0.20341E+06
 0.60499996E+02 -0.15136E+06
 0.60549995E+02  0.10513E+05
 0.60599995E+02  0.22557E+06
 0.60649998E+02  0.43716E+06
 0.60699997E+02  0.57608E+06
 0.60749996E+02  0.60779E+06
 0.60799995E+02  0.52200E+06
 0.60849995E+02  0.34819E+06
 0.60899998E+02  0.15152E+06
 0.60949997E+02 -0.71977E+04
 0.60999996E+02 -0.12345E+06
 0.61049995E+02 -0.20264E+06
 0.61099995E+02 -0.25047E+06
 0.61149998E+02 -0.26369E+06
 0.61199997E+02 -0.25712E+06
 0.61249996E+02 -0.25228E+06
 0.61299995E+02 -0.24584E+06
 0.61349995E+02 -0.20114E+06
 0.61399998E+02 -0.11182E+06
 0.61449997E+02 -0.60193E+04
 0.61499996E+02  0.12998E+06
 0.61549995E+02  0.30351E+06
 0.61599995E+02  0.49344E+06
 0.61649998E+02  0.66202E+06
 0.61699997E+02  0.79759E+06
 0.61749996E+02  0.88029E+06
 0.61799995E+02  0.91053E+06
 0.61849995E+02  0.91768E+06
 0.61899998E+02  0.92611E+06
 0.61949997E+02  0.93223E+06
 0.61999996E+02  0.92703E+06
 0.62049995E+02  0.89267E+06
 0.62099998E+02  0.80160E+06
 0.62149994E+02  0.66643E+06
 0.62199997E+02  0.52997E+06
 0.62249992E+02  0.44487E+06
 0.62299995E+02  0.41386E+06
 0.62349998E+02  0.39706E+06
 0.62399994E+02  0.33123E+06
 0.62449997E+02  0.19376E+06
 0.62499992E+02  0.12999E+05
 0.62549995E+02 -0.18421E+06
 0.62599998E+02 -0.35274E+06
 0.62649994E+02 -0.47441E+06
 0.62699997E+02 -0.57637E+06
 0.62749992E+02 -0.68080E+06
 0.62799995E+02 -0.77891E+06
 0.62849998E+02 -0.87262E+06
 0.62899994E+02 -0.93371E+06
 0.62949997E+02 -0.92361E+06
 0.62999992E+02 -0.86299E+06
 0.63049995E+02 -0.76278E+06
 0.63099998E+02 -0.61172E+06
 0.63149994E+02 -0.41804E+06
 0.63199997E+02 -0.23079E+06
 0.63249992E+02 -0.96212E+05
 0.63299995E+02 -0.27470E+05
 0.63349998E+02 -0.48784E+05
 0.63399994E+02 -0.16355E+06
 0.63449997E+02 -0.31718E+06
 0.63499992E+02 -0.50069E+06
 0.63549995E+02 -0.69766E+06
 0.63599998E+02 -0.84308E+06
 0.63649994E+02 -0.90993E+06
 0.63699997E+02 -0.89388E+06
 0.63749992E+02 -0.83098E+06
 0.63799995E+02 -0.72415E+06
 0.63849998E+02 -0.57359E+06
 0.63899994E+02 -0.39576E+06
 0.63949997E+02 -0.22057E+06
 0.63999992E+02 -0.69484E+05
 0.64049995E+02  0.55398E+05
 0.64099998E+02  0.12371E+06
 0.64149994E+02  0.15231E+06
 0.64199997E+02  0.15573E+06
 0.64249992E+02  0.14636E+06
 0.64299995E+02  0.13737E+06
 0.64349998E+02  0.14518E+06
 0.64399994E+02  0.15626E+06
 0.64449997E+02  0.15177E+06
 0.64499992E+02  0.12468E+06
 0.64549995E+02  0.83310E+05
 0.64599998E+02  0.52691E+05
 0.64649994E+02 -0.38208E+04
 0.64699997E+02 -0.75261E+05
 0.64749992E+02 -0.13126E+06
 0.64799995E+02 -0.14514E+06
 0.64849998E+02 -0.10290E+06
 0.64899994E+02 -0.36848E+05
 0.64949997E+02  0.40873E+05
 0.64999992E+02  0.12957E+06
 0.65049995E+02  0.23088E+06
 0.65099998E+02  0.33483E+06
 0.65149994E+02  0.43157E+06
 0.65199997E+02  0.50002E+06
 0.65249992E+02  0.50598E+06
 0.65299995E+02  0.44286E+06
 0.65349998E+02  0.33491E+06
 0.65399994E+02  0.20151E+06
 0.65449997E+02  0.56407E+05
 0.65499992E+02 -0.46704E+05
 0.65549995E+02 -0.73787E+05
 0.65599998E+02 -0.57806E+05
 0.65649994E+02 -0.32523E+05
 0.65699997E+02 -0.16012E+05
 0.65749992E+02 -0.24843E+05
 0.65799995E+02 -0.69995E+05
 0.65849998E+02 -0.11206E+06
 0.65899994E+02 -0.12292E+06
 0.65949997E+02 -0.12958E+06
 0.65999992E+02 -0.13892E+06
 0.66049995E+02 -0.16399E+06
 0.66099998E+02 -0.20108E+06
 0.66149994E+02 -0.24177E+06
 0.66199997E+02 -0.28373E+06
 0.66249992E+02 -0.31228E+06
 0.66299995E+02 -0.30798E+06
 0.66349998E+02 -0.26480E+06
 0.66399994E+02 -0.19198E+06
 0.66449997E+02 -0.11827E+06
 0.66499992E+02 -0.68669E+05
 0.66549995E+02 -0.35503E+05
 0.66599998E+02 -0.43130E+05
 0.66649994E+02 -0.87579E+05
 0.66699997E+02 -0.13451E+06
 0.66749992E+02 -0.13118E+06
 0.66799995E+02 -0.75067E+05
 0.66849998E+02 -0.10414E+05
 0.66899994E+02  0.39431E+05
 0.66949997E+02  0.48287E+05
 0.66999992E+02  0.89714E+04
 0.67049995E+02 -0.71251E+05
 0.67099998E+02 -0.15640E+06
 0.67149994E+02 -0.21918E+06
 0.67199997E+02 -0.24043E+06
 0.67249992E+02 -0.21596E+06
 0.67299995E+02 -0.19351E+06
 0.67349998E+02 -0.22200E+06
 0.67399994E+02 -0.31212E+06
 0.67449997E+02 -0.44785E+06
 0.67499992E+02 -0.60061E+06
 0.67549995E+02 -0.74027E+06
 0.67599998E+02 -0.80460E+06
 0.67649994E+02 -0.74682E+06
 0.67699997E+02 -0.58224E+06
 0.67749992E+02 -0.39215E+06
 0.67799995E+02 -0.24836E+06
 0.67849998E+02 -0.15817E+06
 0.67899994E+02 -0.12603E+06
 0.67949997E+02 -0.11742E+06
 0.67999992E+02 -0.76083E+05
 0.68049995E+02  0.96254E+04
 0.68099998E+02  0.12252E+06
 0.68149994E+02  0.23231E+06
 0.68199997E+02  0.30359E+06
 0.68249992E+02  0.31370E+06
 0.68299995E+02  0.27455E+06
 0.68349998E+02  0.19572E+06
 0.68399994E+02  0.86873E+05
 0.68449997E+02 -0.32744E+05
 0.68499992E+02 -0.14941E+06
 0.68549995E+02 -0.24440E+06
 0.68599998E+02 -0.28267E+06
 0.68649994E+02 -0.25798E+06
 0.68699997E+02 -0.20461E+06
 0.68749992E+02 -0.12921E+06
 0.68799995E+02 -0.56163E+05
 0.68849998E+02  0.31447E+05
 0.68899994E+02  0.16715E+06
 0.68949997E+02  0.33648E+06
 0.68999992E+02  0.51396E+06
 0.69049995E+02  0.64908E+06
 0.69099998E+02  0.69668E+06
 0.69149994E+02  0.67234E+06
 0.69199997E+02  0.60427E+06
 0.69249992E+02  0.51138E+06
 0.69299995E+02  0.42442E+06
 0.69349998E+02  0.36599E+06
 0.69399994E+02  0.34277E+06
 0.69449997E+02  0.34232E+06
 0.69499992E+02  0.35856E+06
 0.69549995E+02  0.38760E+06
 0.69599998E+02  0.40956E+06
 0.69649994E+02  0.41839E+06
 0.69699997E+02  0.43831E+06
 0.69749992E+02  0.47065E+06
 0.69799995E+02  0.51494E+06
 0.69849998E+02  0.54003E+06
 0.69899994E+02  0.53303E+06
 0.69949997E+02  0.51079E+06
 0.69999992E+02  0.44388E+06
 0.70049995E+02  0.32887E+06
 0.70099998E+02  0.17931E+06
 0.70149994E+02  0.14640E+05
 0.70199997E+02 -0.12024E+06
 0.70249992E+02 -0.19949E+06
 0.70299995E+02 -0.22533E+06
 0.70349998E+02 -0.21377E+06
 0.70399994E+02 -0.17668E+06
 0.70449997E+02 -0.12885E+06
 0.70499992E+02 -0.75206E+05
 0.70549995E+02 -0.17185E+05
 0.70599998E+02  0.32604E+05
 0.70649994E+02  0.79629E+05
 0.70699997E+02  0.12400E+06
 0.70749992E+02  0.15666E+06
 0.70799995E+02  0.14133E+06
 0.70849998E+02  0.76666E+05
 0.70899994E+02  0.11156E+04
 0.70949997E+02 -0.75559E+05
 0.70999992E+02 -0.15147E+06
 0.71049995E+02 -0.22192E+06
 0.71099998E+02 -0.27824E+06
 0.71149994E+02 -0.34205E+06
 0.71199997E+02 -0.41138E+06
 0.71249992E+02 -0.45347E+06
 0.71299995E+02 -0.46917E+06
 0.71349998E+02 -0.46764E+06
 0.71399994E+02 -0.44150E+06
 0.71449997E+02 -0.38384E+06
 0.71499992E+02 -0.30080E+06
 0.71549995E+02 -0.17726E+06
 0.71599998E+02 -0.32680E+05
 0.71649994E+02  0.92349E+05
 0.71699997E+02  0.19548E+06
 0.71749992E+02  0.27663E+06
 0.71799995E+02  0.30864E+06
 0.71849998E+02  0.26721E+06
 0.71899994E+02  0.17277E+06
 0.71949997E+02  0.59003E+05
 0.71999992E+02 -0.53065E+05
 0.72049995E+02 -0.14889E+06
 0.72099998E+02 -0.22820E+06
 0.72149994E+02 -0.30102E+06
 0.72199997E+02 -0.37436E+06
 0.72249992E+02 -0.44431E+06
 0.72299995E+02 -0.48198E+06
 0.72349998E+02 -0.47382E+06
 0.72399994E+02 -0.42776E+06
 0.72449997E+02 -0.37020E+06
 0.72499992E+02 -0.32447E+06
 0.72549995E+02 -0.29777E+06
 0.72599998E+02 -0.26887E+06
 0.72649994E+02 -0.21400E+06
 0.72699997E+02 -0.14696E+06
 0.72749992E+02 -0.77023E+05
 0.72799995E+02 -0.28753E+05
 0.72849998E+02 -0.95825E+04
 0.72899994E+02 -0.28814E+04
 0.72949997E+02  0.13987E+05
 0.72999992E+02  0.63569E+05
 0.73049995E+02  0.15268E+06
 0.73099998E+02  0.27783E+06
 0.73149994E+02  0.40226E+06
 0.73199997E+02  0.48883E+06
 0.73249992E+02  0.52982E+06
 0.73299995E+02  0.52853E+06
 0.73349998E+02  0.49448E+06
 0.73399994E+02  0.44464E+06
 0.73449997E+02  0.37446E+06
 0.73499992E+02  0.28068E+06
 0.73549995E+02  0.19082E+06
 0.73599998E+02  0.13225E+06
 0.73649994E+02  0.10831E+06
 0.73699997E+02  0.10422E+06
 0.73749992E+02  0.86297E+05
 0.73799995E+02  0.40915E+05
 0.73849998E+02 -0.19440E+05
 0.73899994E+02 -0.81510E+05
 0.73949997E+02 -0.13943E+06
 0.73999992E+02 -0.18211E+06
 0.74049995E+02 -0.19673E+06
 0.74099998E+02 -0.18628E+06
 0.74149994E+02 -0.14700E+06
 0.74199997E+02 -0.84884E+05
 0.74249992E+02 -0.27740E+05
 0.74299995E+02 -0.75994E+04
 0.74349998E+02 -0.15390E+05
 0.74399994E+02 -0.29134E+05
 0.74449997E+02 -0.29183E+05
 0.74499992E+02  0.81541E+04
 0.74549995E+02  0.10472E+06
 0.74599998E+02  0.26503E+06
 0.74649994E+02  0.44655E+06
 0.74699997E+02  0.59848E+06
 0.74749992E+02  0.68820E+06
 0.74799995E+02  0.69605E+06
 0.74849998E+02  0.61777E+06
 0.74899994E+02  0.47825E+06
 0.74949997E+02  0.31033E+06
 0.74999992E+02  0.13102E+06
 0.75049995E+02 -0.26093E+05
 0.75099998E+02 -0.13642E+06
 0.75149994E+02 -0.19715E+06
 0.75199997E+02 -0.22852E+06
 0.75249992E+02 -0.24738E+06
 0.75299995E+02 -0.25395E+06
 0.75349998E+02 -0.26345E+06
 0.75399994E+02 -0.27050E+06
 0.75449997E+02 -0.26444E+06
 0.75499992E+02 -0.24354E+06
 0.75549995E+02 -0.21583E+06
 0.75599998E+02 -0.18360E+06
 0.75649994E+02 -0.15181E+06
 0.75699997E+02 -0.14065E+06
 0.75749992E+02 -0.16133E+06
 0.75799995E+02 -0.20363E+06
 0.75849998E+02 -0.25040E+06
 0.75899994E+02 -0.30313E+06
 0.75949997E+02 -0.35489E+06
 0.75999992E+02 -0.38212E+06
 0.76049995E+02 -0.37352E+06
 0.76099998E+02 -0.32710E+06
 0.76149994E+02 -0.26156E+06
 0.76199997E+02 -0.20182E+06
 0.76249992E+02 -0.14639E+06
 0.76299995E+02 -0.10257E+06
 0.76349998E+02 -0.73673E+05
 0.76399994E+02 -0.65985E+05
 0.76449997E+02 -0.83517E+05
 0.76499992E+02 -0.95564E+05
 0.76549995E+02 -0.88823E+05
 0.76599998E+02 -0.62448E+05
 0.76649994E+02 -0.24867E+05
 0.76699997E+02  0.59344E+04
 0.76749992E+02  0.28214E+05
 0.76799995E+02  0.43120E+05
 0.76849998E+02  0.54906E+05
 0.76899994E+02  0.62612E+05
 0.76949997E+02  0.74206E+05
 0.76999992E+02  0.99925E+05
 0.77049995E+02  0.12405E+06
 0.77099998E+02  0.13806E+06
 0.77149994E+02  0.14538E+06
 0.77199997E+02  0.14586E+06
 0.77249992E+02  0.13389E+06
 0.77299995E+02  0.92928E+05
 0.77349998E+02  0.22406E+05
 0.77399994E+02 -0.50383E+05
 0.77449997E+02 -0.11668E+06
 0.77499992E+02 -0.17775E+06
 0.77549995E+02 -0.22933E+06
 0.77599998E+02 -0.26739E+06
 0.77649994E+02 -0.28675E+06
 0.77699997E+02 -0.29257E+06
 0.77749992E+02 -0.27451E+06
 0.77799995E+02 -0.20927E+06
 0.77849998E+02 -0.97172E+05
 0.77899994E+02  0.49139E+05
 0.77949997E+02  0.20749E+06
 0.77999992E+02  0.34783E+06
 0.78049995E+02  0.44907E+06
 0.78099998E+02  0.50105E+06
 0.78149994E+02  0.49857E+06
 0.78199997E+02  0.44739E+06
 0.78249992E+02  0.37659E+06
 0.78299995E+02  0.30721E+06
 0.78349998E+02  0.25669E+06
 0.78399994E+02  0.21849E+06
 0.78449997E+02  0.16748E+06
 0.78499992E+02  0.10327E+06
 0.78549995E+02  0.28204E+05
 0.78599998E+02 -0.56995E+05
 0.78649994E+02 -0.13965E+06
 0.78699997E+02 -0.21081E+06
 0.78749992E+02 -0.26769E+06
 0.78799995E+02 -0.30352E+06
 0.78849998E+02 -0.32330E+06
 0.78899994E+02 -0.35208E+06
 0.78949997E+02 -0.40809E+06
 0.78999992E+02 -0.47799E+06
 0.79049995E+02 -0.54309E+06
 0.79099998E+02 -0.58905E+06
 0.79149994E+02 -0.60225E+06
 0.79199997E+02 -0.56777E+06
 0.79249992E+02 -0.49141E+06
 0.79299995E+02 -0.40899E+06
 0.79349998E+02 -0.35124E+06
 0.79399994E+02 -0.33183E+06
 0.79449997E+02 -0.34587E+06
 0.79499992E+02 -0.37344E+06
 0.79549995E+02 -0.38483E+06
 0.79599998E+02 -0.36737E+06
 0.79649994E+02 -0.32278E+06
 0.79699997E+02 -0.25195E+06
 0.79749992E+02 -0.16555E+06
 0.79799995E+02 -0.82577E+05
 0.79849998E+02 -0.14635E+05
 0.79899994E+02  0.39001E+05
 0.79949997E+02  0.62633E+05
 0.79999992E+02  0.51911E+05
 0.80049995E+02  0.12436E+05
 0.80099998E+02 -0.47575E+05
 0.80149994E+02 -0.10980E+06
 0.80199997E+02 -0.17362E+06
 0.80249992E+02 -0.23233E+06
 0.80299995E+02 -0.26520E+06
 0.80349998E+02 -0.26295E+06
 0.80399994E+02 -0.23800E+06
 0.80449997E+02 -0.20586E+06
 0.80499992E+02 -0.16600E+06
 0.80549995E+02 -0.11199E+06
 0.80599998E+02 -0.37558E+05
 0.80649994E+02  0.72396E+05
 0.80699997E+02  0.21238E+06
 0.80749992E+02  0.35262E+06
 0.80799995E+02  0.46846E+06
 0.80849998E+02  0.54615E+06
 0.80899994E+02  0.58395E+06
 0.80949997E+02  0.59470E+06
 0.80999992E+02  0.58728E+06
 0.81049995E+02  0.56580E+06
 0.81099998E+02  0.54191E+06
 0.81149994E+02  0.52335E+06
 0.81199997E+02  0.51706E+06
 0.81249992E+02  0.52378E+06
 0.81299995E+02  0.54550E+06
 0.81349998E+02  0.59685E+06
 0.81399994E+02  0.67507E+06
 0.81449997E+02  0.75005E+06
 0.81499992E+02  0.79043E+06
 0.81549995E+02  0.77816E+06
 0.81599998E+02  0.70301E+06
 0.81649994E+02  0.56722E+06
 0.81699997E+02  0.40830E+06
 0.81749992E+02  0.27243E+06
 0.81799995E+02  0.17802E+06
 0.81849998E+02  0.11758E+06
 0.81899994E+02  0.84357E+05
 0.81949997E+02  0.76142E+05
 0.81999992E+02  0.70010E+05
 0.82049995E+02  0.42591E+05
 0.82099998E+02 -0.52234E+04
 0.82149994E+02 -0.66204E+05
 0.82199997E+02 -0.13297E+06
 0.82249992E+02 -0.19780E+06
 0.82299995E+02 -0.25882E+06
 0.82349998E+02 -0.30163E+06
 0.82399994E+02 -0.31874E+06
 0.82449997E+02 -0.31748E+06
 0.82499992E+02 -0.29773E+06
 0.82549995E+02 -0.26216E+06
 0.82599998E+02 -0.22485E+06
 0.82649994E+02 -0.20179E+06
 0.82699997E+02 -0.19019E+06
 0.82749992E+02 -0.17429E+06
 0.82799995E+02 -0.14069E+06
 0.82849998E+02 -0.83546E+05
 0.82899994E+02 -0.56315E+04
 0.82949997E+02  0.78264E+05
 0.82999992E+02  0.15057E+06
 0.83049995E+02  0.20253E+06
 0.83099998E+02  0.23113E+06
 0.83149994E+02  0.24038E+06
 0.83199997E+02  0.23787E+06
 0.83249992E+02  0.23358E+06
 0.83299995E+02  0.22968E+06
 0.83349998E+02  0.22844E+06
 0.83399994E+02  0.21998E+06
 0.83449997E+02  0.19179E+06
 0.83499992E+02  0.14901E+06
 0.83549995E+02  0.93025E+05
 0.83599998E+02  0.25879E+05
 0.83649994E+02 -0.42441E+05
 0.83699997E+02 -0.10186E+06
 0.83749992E+02 -0.14678E+06
 0.83799995E+02 -0.17483E+06
 0.83849998E+02 -0.19266E+06
 0.83899994E+02 -0.20150E+06
 0.83949997E+02 -0.19302E+06
 0.83999992E+02 -0.17250E+06
 0.84049995E+02 -0.14945E+06
 0.84099998E+02 -0.11997E+06
 0.84149994E+02 -0.79390E+05
 0.84199997E+02 -0.28195E+05
 0.84249992E+02  0.32664E+05
 0.84299995E+02  0.96034E+05
 0.84349998E+02  0.14241E+06
 0.84399994E+02  0.15625E+06
 0.84449997E+02  0.14190E+06
 0.84499992E+02  0.11323E+06
 0.84549995E+02  0.81484E+05
 0.84599998E+02  0.55911E+05
 0.84649994E+02  0.36732E+05
 0.84699997E+02  0.22828E+05
 0.84749992E+02  0.16949E+05
 0.84799995E+02  0.18754E+05
 0.84849998E+02  0.20779E+05
 0.84899994E+02  0.23140E+05
 0.84949997E+02  0.28913E+05
 0.84999992E+02  0.23843E+05
 0.85049995E+02  0.58854E+02
 0.85099998E+02 -0.44618E+05
 0.85149994E+02 -0.10357E+06
 0.85199997E+02 -0.16211E+06
 0.85249992E+02 -0.21689E+06
 0.85299995E+02 -0.26235E+06
 0.85349998E+02 -0.28319E+06
 0.85399994E+02 -0.27609E+06
 0.85449997E+02 -0.24278E+06
 0.85499992E+02 -0.19276E+06
 0.85549995E+02 -0.14456E+06
 0.85599998E+02 -0.10610E+06
 0.85649994E+02 -0.87136E+05
 0.85699997E+02 -0.83441E+05
 0.85749992E+02 -0.80177E+05
 0.85799995E+02 -0.73671E+05
 0.85849998E+02 -0.56594E+05
 0.85899994E+02 -0.29550E+05
 0.85949997E+02 -0.82186E+04
 0.85999992E+02 -0.21427E+04
 0.86049995E+02 -0.14613E+05
 0.86099998E+02 -0.42540E+05
 0.86149994E+02 -0.78097E+05
 0.86199997E+02 -0.11394E+06
 0.86249992E+02 -0.13245E+06
 0.86299995E+02 -0.11632E+06
 0.86349998E+02 -0.71751E+05
 0.86399994E+02 -0.17557E+05
 0.86449997E+02  0.30151E+05
 0.86499992E+02  0.55037E+05
 0.86549995E+02  0.54991E+05
 0.86599998E+02  0.43983E+05
 0.86649994E+02  0.32865E+05
 0.86699997E+02  0.28251E+05
 0.86749992E+02  0.30447E+05
 0.86799995E+02  0.33572E+05
 0.86849998E+02  0.32752E+05
 0.86899994E+02  0.19749E+05
 0.86949997E+02 -0.29656E+04
 0.86999992E+02 -0.17531E+05
 0.87049995E+02 -0.91947E+04
 0.87099998E+02  0.15804E+05
 0.87149994E+02  0.42562E+05
 0.87199997E+02  0.66973E+05
 0.87249992E+02  0.91784E+05
 0.87299995E+02  0.11345E+06
 0.87349998E+02  0.12906E+06
 0.87399994E+02  0.14034E+06
 0.87449997E+02  0.15068E+06
 0.87499992E+02  0.16232E+06
 0.87549995E+02  0.16018E+06
 0.87599991E+02  0.14166E+06
 0.87649994E+02  0.11266E+06
 0.87699997E+02  0.74702E+05
 0.87749992E+02  0.36855E+05
 0.87799995E+02  0.73130E+04
 0.87849991E+02 -0.14348E+05
 0.87899994E+02 -0.37995E+05
 0.87949997E+02 -0.67054E+05
 0.87999992E+02 -0.96853E+05
 0.88049995E+02 -0.12417E+06
 0.88099991E+02 -0.14670E+06
 0.88149994E+02 -0.15788E+06
 0.88199997E+02 -0.15400E+06
 0.88249992E+02 -0.14197E+06
 0.88299995E+02 -0.13397E+06
 0.88349991E+02 -0.13521E+06
 0.88399994E+02 -0.14399E+06
 0.88449997E+02 -0.15539E+06
 0.88499992E+02 -0.16512E+06
 0.88549995E+02 -0.17125E+06
 0.88599991E+02 -0.16959E+06
 0.88649994E+02 -0.15998E+06
 0.88699997E+02 -0.14188E+06
 0.88749992E+02 -0.12271E+06
 0.88799995E+02 -0.10727E+06
 0.88849991E+02 -0.89558E+05
 0.88899994E+02 -0.71414E+05
 0.88949997E+02 -0.54267E+05
 0.88999992E+02 -0.35661E+05
 0.89049995E+02 -0.22934E+05
 0.89099991E+02 -0.31387E+05
 0.89149994E+02 -0.75162E+05
 0.89199997E+02 -0.15328E+06
 0.89249992E+02 -0.23976E+06
 0.89299995E+02 -0.30871E+06
 0.89349991E+02 -0.34274E+06
 0.89399994E+02 -0.33432E+06
 0.89449997E+02 -0.29007E+06
 0.89499992E+02 -0.22002E+06
 0.89549995E+02 -0.14342E+06
 0.89599991E+02 -0.87960E+05
 0.89649994E+02 -0.63774E+05
 0.89699997E+02 -0.61081E+05
 0.89749992E+02 -0.65306E+05
 0.89799995E+02 -0.66482E+05
 0.89849991E+02 -0.63115E+05
 0.89899994E+02 -0.48307E+05
 0.89949997E+02 -0.18351E+05
 0.89999992E+02  0.21933E+05
 0.90049995E+02  0.65652E+05
 0.90099991E+02  0.10953E+06
 0.90149994E+02  0.15748E+06
 0.90199997E+02  0.20568E+06
 0.90249992E+02  0.24078E+06
 0.90299995E+02  0.25688E+06
 0.90349991E+02  0.25900E+06
 0.90399994E+02  0.26137E+06
 0.90449997E+02  0.26924E+06
 0.90499992E+02  0.26653E+06
 0.90549995E+02  0.25467E+06
 0.90599991E+02  0.24800E+06
 0.90649994E+02  0.25042E+06
 0.90699997E+02  0.26718E+06
 0.90749992E+02  0.30066E+06
 0.90799995E+02  0.34835E+06
 0.90849991E+02  0.40176E+06
 0.90899994E+02  0.44722E+06
 0.90949997E+02  0.48052E+06
 0.90999992E+02  0.50008E+06
 0.91049995E+02  0.50358E+06
 0.91099991E+02  0.49037E+06
 0.91149994E+02  0.45949E+06
 0.91199997E+02  0.41168E+06
 0.91249992E+02  0.34904E+06
 0.91299995E+02  0.27301E+06
 0.91349991E+02  0.18520E+06
 0.91399994E+02  0.10433E+06
 0.91449997E+02  0.51786E+05
 0.91499992E+02  0.27344E+05
 0.91549995E+02  0.18714E+05
 0.91599991E+02  0.10833E+05
 0.91649994E+02 -0.10585E+05
 0.91699997E+02 -0.44713E+05
 0.91749992E+02 -0.76615E+05
 0.91799995E+02 -0.95130E+05
 0.91849991E+02 -0.91870E+05
 0.91899994E+02 -0.56468E+05
 0.91949997E+02  0.84272E+04
 0.91999992E+02  0.77504E+05
 0.92049995E+02  0.13191E+06
 0.92099991E+02  0.16981E+06
 0.92149994E+02  0.18292E+06
 0.92199997E+02  0.16327E+06
 0.92249992E+02  0.11855E+06
 0.92299995E+02  0.61939E+05
 0.92349991E+02  0.20632E+04
 0.92399994E+02 -0.51863E+05
 0.92449997E+02 -0.88615E+05
 0.92499992E+02 -0.10139E+06
 0.92549995E+02 -0.90368E+05
 0.92599991E+02 -0.65694E+05
 0.92649994E+02 -0.42361E+05
 0.92699997E+02 -0.28400E+05
 0.92749992E+02 -0.27812E+05
 0.92799995E+02 -0.44360E+05
 0.92849991E+02 -0.73196E+05
 0.92899994E+02 -0.10823E+06
 0.92949997E+02 -0.13758E+06
 0.92999992E+02 -0.14509E+06
 0.93049995E+02 -0.12708E+06
 0.93099991E+02 -0.96433E+05
 0.93149994E+02 -0.72553E+05
 0.93199997E+02 -0.62504E+05
 0.93249992E+02 -0.71047E+05
 0.93299995E+02 -0.99919E+05
 0.93349991E+02 -0.14065E+06
 0.93399994E+02 -0.17845E+06
 0.93449997E+02 -0.20487E+06
 0.93499992E+02 -0.21708E+06
 0.93549995E+02 -0.20805E+06
 0.93599991E+02 -0.17787E+06
 0.93649994E+02 -0.13591E+06
 0.93699997E+02 -0.95220E+05
 0.93749992E+02 -0.68376E+05
 0.93799995E+02 -0.61213E+05
 0.93849991E+02 -0.66864E+05
 0.93899994E+02 -0.70406E+05
 0.93949997E+02 -0.60562E+05
 0.93999992E+02 -0.38710E+05
 0.94049995E+02 -0.82241E+04
 0.94099991E+02  0.25672E+05
 0.94149994E+02  0.56114E+05
 0.94199997E+02  0.82272E+05
 0.94249992E+02  0.10172E+06
 0.94299995E+02  0.11297E+06
 0.94349991E+02  0.11988E+06
 0.94399994E+02  0.12459E+06
 0.94449997E+02  0.12572E+06
 0.94499992E+02  0.11893E+06
 0.94549995E+02  0.10133E+06
 0.94599991E+02  0.77189E+05
 0.94649994E+02  0.55587E+05
 0.94699997E+02  0.42517E+05
 0.94749992E+02  0.31388E+05
 0.94799995E+02  0.10387E+05
 0.94849991E+02 -0.20918E+05
 0.94899994E+02 -0.61876E+05
 0.94949997E+02 -0.11171E+06
 0.94999992E+02 -0.16161E+06
 0.95049995E+02 -0.20345E+06
 0.95099991E+02 -0.22820E+06
 0.95149994E+02 -0.23312E+06
 0.95199997E+02 -0.22176E+06
 0.95249992E+02 -0.19174E+06
 0.95299995E+02 -0.14412E+06
 0.95349991E+02 -0.90769E+05
 0.95399994E+02 -0.45845E+05
 0.95449997E+02 -0.20816E+05
 0.95499992E+02 -0.15832E+05
 0.95549995E+02 -0.23913E+05
 0.95599991E+02 -0.37467E+05
 0.95649994E+02 -0.53047E+05
 0.95699997E+02 -0.62272E+05
 0.95749992E+02 -0.52597E+05
 0.95799995E+02 -0.22301E+05
 0.95849991E+02  0.23962E+05
 0.95899994E+02  0.76518E+05
 0.95949997E+02  0.12105E+06
 0.95999992E+02  0.14802E+06
 0.96049995E+02  0.16018E+06
 0.96099991E+02  0.16294E+06
 0.96149994E+02  0.16088E+06
 0.96199997E+02  0.16252E+06
 0.96249992E+02  0.17412E+06
 0.96299995E+02  0.19373E+06
 0.96349991E+02  0.21134E+06
 0.96399994E+02  0.22030E+06
 0.96449997E+02  0.22589E+06
 0.96499992E+02  0.22991E+06
 0.96549995E+02  0.22681E+06
 0.96599991E+02  0.21409E+06
 0.96649994E+02  0.19695E+06
 0.96699997E+02  0.18469E+06
 0.96749992E+02  0.18241E+06
 0.96799995E+02  0.19391E+06
 0.96849991E+02  0.21696E+06
 0.96899994E+02  0.23656E+06
 0.96949997E+02  0.23743E+06
 0.96999992E+02  0.21474E+06
 0.97049995E+02  0.17136E+06
 0.97099991E+02  0.11583E+06
 0.97149994E+02  0.59704E+05
 0.97199997E+02  0.80444E+04
 0.97249992E+02 -0.31666E+05
 0.97299995E+02 -0.52962E+05
 0.97349991E+02 -0.61918E+05
 0.97399994E+02 -0.69527E+05
 0.97449997E+02 -0.88744E+05
 0.97499992E+02 -0.12225E+06
 0.97549995E+02 -0.16312E+06
 0.97599991E+02 -0.20580E+06
 0.97649994E+02 -0.24154E+06
 0.97699997E+02 -0.25607E+06
 0.97749992E+02 -0.24511E+06
 0.97799995E+02 -0.21574E+06
 0.97849991E+02 -0.17634E+06
 0.97899994E+02 -0.13505E+06
 0.97949997E+02 -0.99111E+05
 0.97999992E+02 -0.71946E+05
