-0.19800000E+01 -0.26174E+05
-0.19300001E+01 -0.20967E+05
-0.18800000E+01 -0.13976E+05
-0.18300000E+01 -0.75960E+04
-0.17800000E+01 -0.43460E+04
-0.17300000E+01 -0.47570E+04
-0.16800001E+01 -0.72470E+04
-0.16300000E+01 -0.10897E+05
-0.15800000E+01 -0.15866E+05
-0.15300000E+01 -0.22117E+05
-0.14800000E+01 -0.29418E+05
-0.14300001E+01 -0.36978E+05
-0.13800000E+01 -0.43428E+05
-0.13299999E+01 -0.47250E+05
-0.12800000E+01 -0.48256E+05
-0.12300000E+01 -0.48159E+05
-0.11800001E+01 -0.47818E+05
-0.11300000E+01 -0.46399E+05
-0.10799999E+01 -0.43196E+05
-0.10300000E+01 -0.37998E+05
-0.98000002E+00 -0.30731E+05
-0.92999995E+00 -0.21942E+05
-0.88000000E+00 -0.12883E+05
-0.83000004E+00 -0.44840E+04
-0.77999997E+00  0.33290E+04
-0.73000002E+00  0.10884E+05
-0.67999995E+00  0.17750E+05
-0.63000000E+00  0.23036E+05
-0.58000004E+00  0.26586E+05
-0.52999997E+00  0.29198E+05
-0.48000002E+00  0.30821E+05
-0.42999995E+00  0.30596E+05
-0.38000000E+00  0.28378E+05
-0.33000004E+00  0.24389E+05
-0.27999997E+00  0.19350E+05
-0.23000002E+00  0.14218E+05
-0.17999995E+00  0.10037E+05
-0.13000000E+00  0.69880E+04
-0.80000043E-01  0.38810E+04
-0.29999971E-01  0.37400E+03
 0.19999981E-01 -0.33410E+04
 0.69999933E-01 -0.65480E+04
 0.12000012E+00 -0.85200E+04
 0.17000008E+00 -0.98270E+04
 0.22000003E+00 -0.11145E+05
 0.26999998E+00 -0.12713E+05
 0.31999993E+00 -0.13791E+05
 0.37000012E+00 -0.13756E+05
 0.42000008E+00 -0.13304E+05
 0.47000003E+00 -0.13674E+05
 0.51999998E+00 -0.15348E+05
 0.56999993E+00 -0.17899E+05
 0.62000012E+00 -0.21525E+05
 0.67000008E+00 -0.26300E+05
 0.72000003E+00 -0.31651E+05
 0.76999998E+00 -0.37180E+05
 0.81999993E+00 -0.42332E+05
 0.87000012E+00 -0.46977E+05
 0.92000008E+00 -0.51050E+05
 0.97000003E+00 -0.54000E+05
 0.10200000E+01 -0.55807E+05
 0.10699999E+01 -0.56577E+05
 0.11200001E+01 -0.56293E+05
 0.11700001E+01 -0.55316E+05
 0.12200000E+01 -0.53864E+05
 0.12700000E+01 -0.52005E+05
 0.13199999E+01 -0.49899E+05
 0.13700001E+01 -0.47718E+05
 0.14200001E+01 -0.45692E+05
 0.14700000E+01 -0.43433E+05
 0.15200000E+01 -0.40482E+05
 0.15699999E+01 -0.36814E+05
 0.16200001E+01 -0.32669E+05
 0.16700001E+01 -0.29397E+05
 0.17200000E+01 -0.27657E+05
 0.17700000E+01 -0.26746E+05
 0.18199999E+01 -0.26201E+05
 0.18700001E+01 -0.25185E+05
 0.19200001E+01 -0.22932E+05
 0.19700000E+01 -0.19479E+05
 0.20200000E+01 -0.14381E+05
 0.20700002E+01 -0.70350E+04
 0.21199999E+01  0.20780E+04
 0.21700001E+01  0.12031E+05
 0.22200003E+01  0.21552E+05
 0.22700000E+01  0.29699E+05
 0.23200002E+01  0.36805E+05
 0.23699999E+01  0.43077E+05
 0.24200001E+01  0.48061E+05
 0.24700003E+01  0.51856E+05
 0.25200000E+01  0.55314E+05
 0.25700002E+01  0.58541E+05
 0.26199999E+01  0.61020E+05
 0.26700001E+01  0.62817E+05
 0.27200003E+01  0.63873E+05
 0.27700000E+01  0.63665E+05
 0.28200002E+01  0.62618E+05
 0.28699999E+01  0.61970E+05
 0.29200001E+01  0.61519E+05
 0.29700003E+01  0.59750E+05
 0.30200000E+01  0.55888E+05
 0.30700002E+01  0.50195E+05
 0.31199999E+01  0.43228E+05
 0.31700001E+01  0.35583E+05
 0.32200003E+01  0.27915E+05
 0.32700000E+01  0.20227E+05
 0.33200002E+01  0.11820E+05
 0.33699999E+01  0.26120E+04
 0.34200001E+01 -0.65770E+04
 0.34700003E+01 -0.14286E+05
 0.35200000E+01 -0.19315E+05
 0.35700002E+01 -0.21798E+05
 0.36199999E+01 -0.22962E+05
 0.36700001E+01 -0.24186E+05
 0.37200003E+01 -0.26197E+05
 0.37700000E+01 -0.29000E+05
 0.38200002E+01 -0.31372E+05
 0.38699999E+01 -0.31317E+05
 0.39200001E+01 -0.28172E+05
 0.39700003E+01 -0.23595E+05
 0.40200000E+01 -0.19324E+05
 0.40700002E+01 -0.15634E+05
 0.41199999E+01 -0.12860E+05
 0.41700001E+01 -0.11075E+05
 0.42200003E+01 -0.10356E+05
 0.42700000E+01 -0.10938E+05
 0.43200002E+01 -0.12288E+05
 0.43699999E+01 -0.14153E+05
 0.44200001E+01 -0.15917E+05
 0.44700003E+01 -0.16870E+05
 0.45200000E+01 -0.16870E+05
 0.45700002E+01 -0.14987E+05
 0.46199999E+01 -0.10467E+05
 0.46700001E+01 -0.31460E+04
 0.47200003E+01  0.69980E+04
 0.47700000E+01  0.18795E+05
 0.48200002E+01  0.30524E+05
 0.48699999E+01  0.40750E+05
 0.49200001E+01  0.48002E+05
 0.49700003E+01  0.51919E+05
 0.50200000E+01  0.53594E+05
 0.50700002E+01  0.53649E+05
 0.51199999E+01  0.51559E+05
 0.51700001E+01  0.46790E+05
 0.52200003E+01  0.39516E+05
 0.52700000E+01  0.30362E+05
 0.53200002E+01  0.20272E+05
 0.53699999E+01  0.98490E+04
 0.54200001E+01 -0.22000E+03
 0.54700003E+01 -0.81260E+04
 0.55200000E+01 -0.13213E+05
 0.55700002E+01 -0.15963E+05
 0.56199999E+01 -0.16329E+05
 0.56700001E+01 -0.15174E+05
 0.57200003E+01 -0.13598E+05
 0.57700000E+01 -0.11767E+05
 0.58200002E+01 -0.99170E+04
 0.58699999E+01 -0.78750E+04
 0.59200001E+01 -0.44340E+04
 0.59700003E+01  0.92200E+03
 0.60200000E+01  0.74270E+04
 0.60700002E+01  0.14101E+05
 0.61200004E+01  0.19686E+05
 0.61700006E+01  0.23237E+05
 0.62199998E+01  0.24641E+05
 0.62700000E+01  0.24946E+05
 0.63200002E+01  0.26731E+05
 0.63700004E+01  0.31180E+05
 0.64200006E+01  0.36640E+05
 0.64699998E+01  0.40983E+05
 0.65200000E+01  0.43259E+05
 0.65700002E+01  0.43764E+05
 0.66200004E+01  0.43297E+05
 0.66700006E+01  0.42739E+05
 0.67199998E+01  0.42589E+05
 0.67700000E+01  0.42461E+05
 0.68200002E+01  0.41174E+05
 0.68700004E+01  0.37808E+05
 0.69200006E+01  0.32571E+05
 0.69699998E+01  0.25766E+05
 0.70200000E+01  0.17896E+05
 0.70700002E+01  0.10120E+05
 0.71200004E+01  0.24580E+04
 0.71700006E+01 -0.53960E+04
 0.72199998E+01 -0.12966E+05
 0.72700000E+01 -0.20516E+05
 0.73200002E+01 -0.28282E+05
 0.73700004E+01 -0.35660E+05
 0.74200006E+01 -0.41930E+05
 0.74699998E+01 -0.46598E+05
 0.75200000E+01 -0.49137E+05
 0.75700002E+01 -0.49384E+05
 0.76200004E+01 -0.48091E+05
 0.76700006E+01 -0.45851E+05
 0.77199998E+01 -0.42726E+05
 0.77700000E+01 -0.38539E+05
 0.78200002E+01 -0.33222E+05
 0.78700004E+01 -0.26921E+05
 0.79200006E+01 -0.19860E+05
 0.79699998E+01 -0.12440E+05
 0.80200005E+01 -0.48020E+04
 0.80699997E+01  0.25680E+04
 0.81200008E+01  0.85370E+04
 0.81700001E+01  0.12390E+05
 0.82199993E+01  0.14194E+05
 0.82700005E+01  0.14193E+05
 0.83199997E+01  0.12818E+05
 0.83700008E+01  0.11015E+05
 0.84200001E+01  0.93400E+04
 0.84699993E+01  0.73290E+04
 0.85200005E+01  0.42940E+04
 0.85699997E+01  0.53200E+03
 0.86200008E+01 -0.28710E+04
 0.86700001E+01 -0.48200E+04
 0.87199993E+01 -0.51680E+04
 0.87700005E+01 -0.52930E+04
 0.88199997E+01 -0.65780E+04
 0.88700008E+01 -0.90250E+04
 0.89200001E+01 -0.11413E+05
 0.89699993E+01 -0.12494E+05
 0.90200005E+01 -0.11601E+05
 0.90699997E+01 -0.91400E+04
 0.91200008E+01 -0.68740E+04
 0.91700001E+01 -0.54250E+04
 0.92199993E+01 -0.38830E+04
 0.92700005E+01 -0.22440E+04
 0.93199997E+01 -0.88200E+03
 0.93700008E+01 -0.52000E+02
 0.94200001E+01 -0.20300E+03
 0.94699993E+01 -0.80200E+03
 0.95200005E+01 -0.11920E+04
 0.95699997E+01 -0.16110E+04
 0.96200008E+01 -0.18940E+04
 0.96700001E+01 -0.19250E+04
 0.97199993E+01 -0.23220E+04
 0.97700005E+01 -0.27690E+04
 0.98199997E+01 -0.25390E+04
 0.98700008E+01 -0.19420E+04
 0.99200001E+01 -0.20710E+04
 0.99699993E+01 -0.42720E+04
 0.10020000E+02 -0.88060E+04
 0.10070000E+02 -0.14412E+05
 0.10120001E+02 -0.19631E+05
 0.10170000E+02 -0.24026E+05
 0.10219999E+02 -0.27664E+05
 0.10270000E+02 -0.30738E+05
 0.10320000E+02 -0.33349E+05
 0.10370001E+02 -0.34899E+05
 0.10420000E+02 -0.35060E+05
 0.10469999E+02 -0.33552E+05
 0.10520000E+02 -0.29853E+05
 0.10570000E+02 -0.24057E+05
 0.10620001E+02 -0.17026E+05
 0.10670000E+02 -0.10109E+05
 0.10719999E+02 -0.41030E+04
 0.10770000E+02  0.13790E+04
 0.10820000E+02  0.71030E+04
 0.10870001E+02  0.12922E+05
 0.10920000E+02  0.18160E+05
 0.10969999E+02  0.22509E+05
 0.11020000E+02  0.25639E+05
 0.11070000E+02  0.27405E+05
 0.11120001E+02  0.28164E+05
 0.11170000E+02  0.28498E+05
 0.11219999E+02  0.29319E+05
 0.11270000E+02  0.31446E+05
 0.11320000E+02  0.34604E+05
 0.11370001E+02  0.37832E+05
 0.11420000E+02  0.40304E+05
 0.11469999E+02  0.41282E+05
 0.11520000E+02  0.40204E+05
 0.11570000E+02  0.36966E+05
 0.11620001E+02  0.31746E+05
 0.11670000E+02  0.25040E+05
 0.11719999E+02  0.17965E+05
 0.11770000E+02  0.11166E+05
 0.11820000E+02  0.45250E+04
 0.11870001E+02 -0.17470E+04
 0.11920000E+02 -0.69600E+04
 0.11969999E+02 -0.10717E+05
 0.12020000E+02 -0.13255E+05
 0.12070000E+02 -0.14743E+05
 0.12120001E+02 -0.15352E+05
 0.12170000E+02 -0.15167E+05
 0.12219999E+02 -0.13820E+05
 0.12270000E+02 -0.11448E+05
 0.12320000E+02 -0.85820E+04
 0.12370001E+02 -0.52750E+04
 0.12420000E+02 -0.10020E+04
 0.12469999E+02  0.45960E+04
 0.12520000E+02  0.10471E+05
 0.12570000E+02  0.15080E+05
 0.12620001E+02  0.17742E+05
 0.12670000E+02  0.18616E+05
 0.12719999E+02  0.18385E+05
 0.12770000E+02  0.17405E+05
 0.12820000E+02  0.15520E+05
 0.12870001E+02  0.12548E+05
 0.12920000E+02  0.87950E+04
 0.12969999E+02  0.52070E+04
 0.13020000E+02  0.23840E+04
 0.13070000E+02 -0.97000E+02
 0.13120001E+02 -0.33670E+04
 0.13170000E+02 -0.85220E+04
 0.13219999E+02 -0.15029E+05
 0.13270000E+02 -0.21015E+05
 0.13320000E+02 -0.25929E+05
 0.13370001E+02 -0.30072E+05
 0.13420000E+02 -0.33569E+05
 0.13469999E+02 -0.36712E+05
 0.13520000E+02 -0.38866E+05
 0.13570000E+02 -0.39855E+05
 0.13620001E+02 -0.40961E+05
 0.13670000E+02 -0.42383E+05
 0.13719999E+02 -0.43441E+05
 0.13770000E+02 -0.43854E+05
 0.13820000E+02 -0.43568E+05
 0.13870001E+02 -0.43468E+05
 0.13920000E+02 -0.43724E+05
 0.13969999E+02 -0.43165E+05
 0.14020000E+02 -0.41436E+05
 0.14070002E+02 -0.38898E+05
 0.14120001E+02 -0.36199E+05
 0.14170000E+02 -0.33478E+05
 0.14220001E+02 -0.30655E+05
 0.14270000E+02 -0.28457E+05
 0.14320002E+02 -0.27256E+05
 0.14370001E+02 -0.26794E+05
 0.14420000E+02 -0.26165E+05
 0.14470001E+02 -0.24168E+05
 0.14520000E+02 -0.20870E+05
 0.14570002E+02 -0.16871E+05
 0.14620001E+02 -0.12238E+05
 0.14670000E+02 -0.69050E+04
 0.14720001E+02 -0.69200E+03
 0.14770000E+02  0.61870E+04
 0.14820002E+02  0.13272E+05
 0.14870001E+02  0.20391E+05
 0.14920000E+02  0.27104E+05
 0.14970001E+02  0.33329E+05
 0.15020000E+02  0.39642E+05
 0.15070002E+02  0.45855E+05
 0.15120001E+02  0.51025E+05
 0.15170000E+02  0.54730E+05
 0.15220001E+02  0.56922E+05
 0.15270000E+02  0.57569E+05
 0.15320002E+02  0.56986E+05
 0.15370001E+02  0.54847E+05
 0.15420000E+02  0.50548E+05
 0.15470001E+02  0.44336E+05
 0.15520000E+02  0.37257E+05
 0.15570002E+02  0.30843E+05
 0.15620001E+02  0.25824E+05
 0.15670000E+02  0.22178E+05
 0.15720001E+02  0.19760E+05
 0.15770000E+02  0.18442E+05
 0.15820002E+02  0.17981E+05
 0.15870001E+02  0.17513E+05
 0.15920000E+02  0.16318E+05
 0.15970001E+02  0.14909E+05
 0.16020000E+02  0.14123E+05
 0.16070002E+02  0.13886E+05
 0.16120001E+02  0.14093E+05
 0.16170000E+02  0.14630E+05
 0.16220001E+02  0.15247E+05
 0.16270000E+02  0.15999E+05
 0.16320002E+02  0.16814E+05
 0.16370001E+02  0.17530E+05
 0.16420000E+02  0.17962E+05
 0.16470001E+02  0.18453E+05
 0.16520000E+02  0.19536E+05
 0.16570002E+02  0.20788E+05
 0.16620001E+02  0.21312E+05
 0.16670000E+02  0.20578E+05
 0.16720001E+02  0.18620E+05
 0.16770000E+02  0.16057E+05
 0.16820002E+02  0.13817E+05
 0.16870001E+02  0.11937E+05
 0.16920000E+02  0.95820E+04
 0.16970001E+02  0.66160E+04
 0.17020000E+02  0.36820E+04
 0.17070002E+02  0.12300E+04
 0.17120001E+02 -0.11210E+04
 0.17170000E+02 -0.39250E+04
 0.17220001E+02 -0.65990E+04
 0.17270000E+02 -0.82360E+04
 0.17320002E+02 -0.86520E+04
 0.17370001E+02 -0.79780E+04
 0.17420000E+02 -0.67060E+04
 0.17470001E+02 -0.53840E+04
 0.17520000E+02 -0.39050E+04
 0.17570002E+02 -0.18260E+04
 0.17620001E+02  0.13420E+04
 0.17670000E+02  0.59660E+04
 0.17720001E+02  0.11394E+05
 0.17770000E+02  0.16399E+05
 0.17820002E+02  0.20323E+05
 0.17870001E+02  0.22428E+05
 0.17920000E+02  0.22441E+05
 0.17970001E+02  0.20917E+05
 0.18020000E+02  0.17529E+05
 0.18070002E+02  0.12050E+05
 0.18120001E+02  0.53500E+04
 0.18170000E+02 -0.22340E+04
 0.18220001E+02 -0.10373E+05
 0.18270000E+02 -0.18287E+05
 0.18320002E+02 -0.26145E+05
 0.18370001E+02 -0.34401E+05
 0.18420000E+02 -0.42981E+05
 0.18470001E+02 -0.51382E+05
 0.18520000E+02 -0.58809E+05
 0.18570002E+02 -0.65240E+05
 0.18620001E+02 -0.70423E+05
 0.18670000E+02 -0.73526E+05
 0.18720001E+02 -0.74111E+05
 0.18770000E+02 -0.71997E+05
 0.18820002E+02 -0.67776E+05
 0.18870001E+02 -0.61828E+05
 0.18920000E+02 -0.54719E+05
 0.18970001E+02 -0.46821E+05
 0.19020000E+02 -0.36903E+05
 0.19070002E+02 -0.22628E+05
 0.19120001E+02 -0.10070E+04
 0.19170000E+02  0.30734E+05
 0.19220001E+02  0.69482E+05
 0.19270000E+02  0.10847E+06
 0.19320002E+02  0.14104E+06
 0.19370001E+02  0.15542E+06
 0.19420000E+02  0.14887E+06
 0.19470001E+02  0.11536E+06
 0.19520000E+02  0.47731E+05
 0.19570002E+02 -0.35202E+05
 0.19620001E+02 -0.96564E+05
 0.19670000E+02 -0.10332E+06
 0.19720001E+02 -0.72637E+05
 0.19770000E+02 -0.29415E+05
 0.19820002E+02  0.11074E+05
 0.19870001E+02  0.64610E+04
 0.19920000E+02  0.78240E+04
 0.19970001E+02  0.89906E+05
 0.20020000E+02  0.13091E+06
 0.20070002E+02  0.16778E+06
 0.20120001E+02  0.40056E+06
 0.20170000E+02  0.61286E+06
 0.20220001E+02  0.69468E+06
 0.20270000E+02  0.61186E+06
 0.20320002E+02  0.13781E+06
 0.20370001E+02 -0.37081E+06
 0.20420000E+02 -0.64456E+06
 0.20470001E+02 -0.80610E+06
 0.20520000E+02 -0.94651E+06
 0.20570002E+02 -0.12463E+07
 0.20620001E+02 -0.15016E+07
 0.20670000E+02 -0.14090E+07
 0.20720001E+02 -0.11072E+07
 0.20770000E+02 -0.87540E+06
 0.20820002E+02 -0.71641E+06
 0.20870001E+02 -0.52621E+06
 0.20920000E+02 -0.73082E+05
 0.20970001E+02  0.74573E+06
 0.21020000E+02  0.11610E+07
 0.21070002E+02  0.13556E+07
 0.21120001E+02  0.15069E+07
 0.21170000E+02  0.10484E+07
 0.21220001E+02  0.99587E+06
 0.21270000E+02  0.81605E+06
 0.21320002E+02  0.98923E+05
 0.21370001E+02  0.39900E+04
 0.21420000E+02 -0.10882E+06
 0.21470001E+02  0.34925E+05
 0.21520000E+02  0.15714E+06
 0.21570002E+02 -0.25784E+06
 0.21620001E+02 -0.90874E+05
 0.21670000E+02  0.83389E+05
 0.21720001E+02  0.44251E+06
 0.21770000E+02  0.11165E+07
 0.21820002E+02  0.90710E+06
 0.21870001E+02  0.45972E+06
 0.21920000E+02  0.21836E+06
 0.21970001E+02 -0.71211E+05
 0.22020000E+02 -0.19018E+06
 0.22070002E+02 -0.34483E+06
 0.22120001E+02 -0.66298E+06
 0.22170000E+02 -0.11122E+07
 0.22220001E+02 -0.17415E+07
 0.22270000E+02 -0.19988E+07
 0.22320002E+02 -0.17189E+07
 0.22370001E+02 -0.12046E+07
 0.22420000E+02 -0.54265E+06
 0.22470001E+02 -0.11332E+06
 0.22520000E+02 -0.23632E+06
 0.22570002E+02 -0.51516E+06
 0.22620001E+02 -0.30127E+06
 0.22670000E+02 -0.42540E+04
 0.22720001E+02  0.34161E+06
 0.22770000E+02  0.43036E+06
 0.22820002E+02  0.15388E+05
 0.22870001E+02  0.23453E+06
 0.22920000E+02  0.46802E+06
 0.22970001E+02  0.27074E+06
 0.23020000E+02  0.19092E+06
 0.23070002E+02  0.27601E+06
 0.23120001E+02  0.25814E+06
 0.23170000E+02  0.13312E+06
 0.23220001E+02  0.15515E+06
 0.23270000E+02 -0.38657E+05
 0.23320002E+02  0.59893E+06
 0.23370001E+02  0.15319E+07
 0.23420000E+02  0.14337E+07
 0.23470001E+02  0.11875E+07
 0.23520000E+02  0.65301E+06
 0.23570002E+02  0.32442E+06
 0.23620001E+02  0.59138E+06
 0.23670000E+02  0.32196E+05
 0.23720001E+02 -0.11235E+07
 0.23770000E+02 -0.16046E+07
 0.23820002E+02 -0.18549E+07
 0.23870001E+02 -0.17951E+07
 0.23920000E+02 -0.15123E+07
 0.23970001E+02 -0.14173E+07
 0.24020000E+02  0.71938E+06
 0.24070002E+02  0.16516E+07
 0.24120001E+02  0.12904E+05
 0.24170000E+02  0.77754E+06
 0.24220001E+02  0.95102E+06
 0.24270000E+02  0.32559E+06
 0.24320002E+02  0.11004E+07
 0.24370001E+02  0.33951E+06
 0.24420000E+02 -0.18974E+06
 0.24470001E+02  0.37600E+06
 0.24520000E+02 -0.22568E+06
 0.24570002E+02 -0.10907E+07
 0.24620001E+02 -0.81526E+06
 0.24670000E+02 -0.17759E+05
 0.24720001E+02 -0.30271E+06
 0.24770000E+02 -0.11128E+07
 0.24820002E+02 -0.69793E+06
 0.24870001E+02 -0.17986E+06
 0.24920000E+02  0.80838E+06
 0.24970001E+02  0.24250E+07
 0.25020000E+02  0.14967E+07
 0.25070002E+02 -0.94185E+06
 0.25120001E+02 -0.20111E+07
 0.25170000E+02 -0.22763E+07
 0.25220001E+02 -0.17507E+07
 0.25270000E+02  0.21216E+05
 0.25320002E+02  0.69584E+06
 0.25370001E+02 -0.20761E+06
 0.25420000E+02 -0.80493E+06
 0.25470001E+02 -0.61067E+06
 0.25520000E+02  0.34043E+06
 0.25570002E+02  0.98986E+06
 0.25620001E+02  0.92638E+06
 0.25670000E+02  0.20800E+06
 0.25720001E+02 -0.44318E+06
 0.25770000E+02  0.41817E+06
 0.25820002E+02  0.15426E+07
 0.25870001E+02  0.24087E+07
 0.25920000E+02  0.33075E+07
 0.25970001E+02  0.22375E+07
 0.26020000E+02  0.38068E+06
 0.26070002E+02 -0.39739E+06
 0.26120001E+02 -0.12859E+07
 0.26170000E+02 -0.16424E+07
 0.26220001E+02 -0.15535E+07
 0.26270000E+02 -0.14126E+07
 0.26320002E+02 -0.14398E+07
 0.26370001E+02 -0.18631E+07
 0.26420000E+02 -0.90423E+06
 0.26470001E+02  0.28560E+05
 0.26520000E+02 -0.82414E+05
 0.26570002E+02  0.34282E+06
 0.26620001E+02  0.49376E+06
 0.26670000E+02  0.21795E+06
 0.26720001E+02  0.16842E+06
 0.26770000E+02 -0.41483E+05
 0.26820002E+02 -0.74580E+04
 0.26870001E+02  0.25057E+06
 0.26920000E+02  0.57797E+06
 0.26970001E+02  0.14053E+07
 0.27020000E+02  0.23279E+07
 0.27070002E+02  0.25991E+07
 0.27120001E+02  0.24446E+07
 0.27170000E+02  0.24390E+07
 0.27220001E+02  0.24289E+07
 0.27270000E+02  0.23763E+07
 0.27320002E+02  0.18750E+07
 0.27370001E+02  0.11170E+07
 0.27420000E+02  0.72916E+06
 0.27470001E+02  0.71632E+06
 0.27520000E+02  0.78205E+06
 0.27570002E+02  0.44556E+05
 0.27620001E+02 -0.41780E+06
 0.27670000E+02  0.64932E+05
 0.27720001E+02  0.21159E+06
 0.27770000E+02 -0.44162E+05
 0.27820002E+02 -0.43868E+06
 0.27870001E+02 -0.56757E+06
 0.27920000E+02 -0.65081E+06
 0.27970001E+02 -0.13756E+07
 0.28020000E+02 -0.16991E+07
 0.28070002E+02 -0.12029E+07
 0.28120001E+02 -0.28860E+06
 0.28170000E+02  0.83594E+06
 0.28220001E+02  0.14391E+07
 0.28270000E+02  0.16712E+07
 0.28320002E+02  0.15797E+07
 0.28370001E+02  0.11299E+07
 0.28420000E+02  0.78949E+06
 0.28470001E+02  0.49856E+06
 0.28520000E+02  0.76091E+05
 0.28570002E+02 -0.39046E+06
 0.28620001E+02 -0.65687E+06
 0.28670000E+02 -0.10525E+07
 0.28720001E+02 -0.88159E+06
 0.28770000E+02  0.35600E+06
 0.28820002E+02  0.97782E+06
 0.28870001E+02  0.76584E+06
 0.28920000E+02  0.49496E+06
 0.28970001E+02  0.25174E+06
 0.29020000E+02  0.65731E+06
 0.29070002E+02  0.11642E+07
 0.29120001E+02  0.96071E+06
 0.29170000E+02  0.75293E+06
 0.29220001E+02  0.55110E+06
 0.29270000E+02  0.70454E+06
 0.29320002E+02  0.16676E+07
 0.29370001E+02  0.25500E+07
 0.29420000E+02  0.26797E+07
 0.29470001E+02  0.17777E+07
 0.29520000E+02  0.41139E+06
 0.29570002E+02 -0.69613E+06
 0.29620001E+02 -0.10296E+07
 0.29670000E+02 -0.77651E+06
 0.29720001E+02 -0.65783E+06
 0.29770000E+02 -0.67731E+06
 0.29820002E+02 -0.11307E+07
 0.29870001E+02 -0.15427E+07
 0.29920000E+02 -0.13469E+07
 0.29970001E+02 -0.58399E+06
 0.30020000E+02  0.35371E+06
 0.30070000E+02  0.33878E+06
 0.30120003E+02  0.38271E+05
 0.30170002E+02  0.15822E+06
 0.30220001E+02  0.37494E+06
 0.30270000E+02  0.66149E+06
 0.30320000E+02  0.29179E+06
 0.30370003E+02 -0.88552E+06
 0.30420002E+02 -0.20349E+07
 0.30470001E+02 -0.25978E+07
 0.30520000E+02 -0.23197E+07
 0.30570000E+02 -0.14118E+07
 0.30620003E+02 -0.66295E+06
 0.30670002E+02 -0.45337E+05
 0.30720001E+02  0.49459E+06
 0.30770000E+02  0.64465E+06
 0.30820000E+02  0.58487E+06
 0.30870003E+02  0.14776E+06
 0.30920002E+02 -0.55598E+06
 0.30970001E+02 -0.10727E+07
 0.31020000E+02 -0.11982E+07
 0.31070000E+02 -0.11840E+07
 0.31120003E+02 -0.11174E+07
 0.31170002E+02 -0.79379E+06
 0.31220001E+02 -0.63155E+06
 0.31270000E+02 -0.72993E+06
 0.31320000E+02 -0.86642E+06
 0.31370003E+02 -0.11364E+07
 0.31420002E+02 -0.13004E+07
 0.31470001E+02 -0.88176E+06
 0.31520000E+02 -0.45970E+06
 0.31570000E+02 -0.52528E+06
 0.31620003E+02 -0.27910E+06
 0.31670002E+02 -0.11054E+06
 0.31720001E+02 -0.24571E+06
 0.31770000E+02 -0.15654E+06
 0.31820000E+02 -0.57864E+06
 0.31870003E+02 -0.96957E+06
 0.31920002E+02 -0.66700E+06
 0.31970001E+02 -0.70197E+06
 0.32020000E+02 -0.92726E+06
 0.32070000E+02 -0.97416E+06
 0.32120003E+02 -0.14210E+07
 0.32170002E+02 -0.14310E+07
 0.32220001E+02 -0.29438E+06
 0.32270000E+02  0.14360E+07
 0.32320000E+02  0.35060E+07
 0.32370003E+02  0.49828E+07
 0.32420002E+02  0.53102E+07
 0.32470001E+02  0.45500E+07
 0.32520000E+02  0.28500E+07
 0.32570000E+02  0.14847E+07
 0.32620003E+02  0.36834E+06
 0.32670002E+02 -0.14095E+07
 0.32720001E+02 -0.31894E+07
 0.32770000E+02 -0.46862E+07
 0.32820000E+02 -0.62613E+07
 0.32870003E+02 -0.70724E+07
 0.32920002E+02 -0.63817E+07
 0.32970001E+02 -0.44846E+07
 0.33020000E+02 -0.10761E+07
 0.33070000E+02  0.28110E+07
 0.33120003E+02  0.42478E+07
 0.33170002E+02  0.24152E+07
 0.33220001E+02 -0.95852E+06
 0.33270000E+02 -0.46705E+07
 0.33320000E+02 -0.74873E+07
 0.33370003E+02 -0.81168E+07
 0.33420002E+02 -0.72768E+07
 0.33470001E+02 -0.56562E+07
 0.33520000E+02 -0.41337E+07
 0.33570000E+02 -0.32520E+07
 0.33620003E+02 -0.14275E+07
 0.33670002E+02  0.17315E+07
 0.33720001E+02  0.52422E+07
 0.33770000E+02  0.87451E+07
 0.33820000E+02  0.11509E+08
 0.33870003E+02  0.12100E+08
 0.33920002E+02  0.10278E+08
 0.33970001E+02  0.77725E+07
 0.34020000E+02  0.57060E+07
 0.34070000E+02  0.45455E+07
 0.34120003E+02  0.48486E+07
 0.34170002E+02  0.48336E+07
 0.34220001E+02  0.28707E+07
 0.34270000E+02  0.69973E+06
 0.34320000E+02 -0.31252E+06
 0.34370003E+02 -0.18895E+07
 0.34420002E+02 -0.50320E+07
 0.34470001E+02 -0.84051E+07
 0.34520000E+02 -0.10655E+08
 0.34570000E+02 -0.11308E+08
 0.34620003E+02 -0.10942E+08
 0.34670002E+02 -0.90270E+07
 0.34720001E+02 -0.53918E+07
 0.34770000E+02 -0.21625E+07
 0.34820000E+02 -0.52840E+06
 0.34870003E+02 -0.44893E+06
 0.34920002E+02 -0.14096E+07
 0.34970001E+02 -0.17850E+07
 0.35020000E+02 -0.21306E+06
 0.35070000E+02  0.19767E+07
 0.35120003E+02  0.30713E+07
 0.35170002E+02  0.35279E+07
 0.35220001E+02  0.33305E+07
 0.35270000E+02  0.19707E+07
 0.35320000E+02  0.41583E+06
 0.35370003E+02  0.10432E+07
 0.35420002E+02  0.45619E+07
 0.35470001E+02  0.76326E+07
 0.35520000E+02  0.78274E+07
 0.35570000E+02  0.58221E+07
 0.35620003E+02  0.23408E+07
 0.35670002E+02 -0.17990E+07
 0.35720001E+02 -0.45487E+07
 0.35770000E+02 -0.43974E+07
 0.35820000E+02 -0.28761E+07
 0.35870003E+02 -0.14970E+07
 0.35920002E+02 -0.39283E+06
 0.35970001E+02 -0.17435E+06
 0.36020000E+02 -0.79275E+06
 0.36070000E+02 -0.17914E+07
 0.36120003E+02 -0.26667E+07
 0.36170002E+02 -0.30025E+07
 0.36220001E+02 -0.32888E+07
 0.36270000E+02 -0.36767E+07
 0.36320000E+02 -0.37578E+07
 0.36370003E+02 -0.39883E+07
 0.36420002E+02 -0.42716E+07
 0.36470001E+02 -0.37341E+07
 0.36520000E+02 -0.30656E+07
 0.36570000E+02 -0.26837E+07
 0.36620003E+02 -0.18683E+07
 0.36670002E+02 -0.90471E+06
 0.36720001E+02  0.24119E+06
 0.36770000E+02  0.20072E+07
 0.36820000E+02  0.37347E+07
 0.36870003E+02  0.47805E+07
 0.36920002E+02  0.46659E+07
 0.36970001E+02  0.36359E+07
 0.37020000E+02  0.30088E+07
 0.37070000E+02  0.30463E+07
 0.37120003E+02  0.31649E+07
 0.37170002E+02  0.30638E+07
 0.37220001E+02  0.24978E+07
 0.37270000E+02  0.10118E+07
 0.37320000E+02 -0.18816E+07
 0.37370003E+02 -0.51578E+07
 0.37420002E+02 -0.67918E+07
 0.37470001E+02 -0.59777E+07
 0.37520000E+02 -0.35615E+07
 0.37570000E+02 -0.13547E+07
 0.37620003E+02 -0.38701E+06
 0.37670002E+02 -0.26114E+06
 0.37720001E+02 -0.66510E+06
 0.37770000E+02 -0.15954E+07
 0.37820000E+02 -0.24399E+07
 0.37870003E+02 -0.20367E+07
 0.37920002E+02 -0.38582E+06
 0.37970001E+02  0.12647E+07
 0.38020000E+02  0.28389E+07
 0.38070000E+02  0.45024E+07
 0.38120003E+02  0.52843E+07
 0.38170002E+02  0.48683E+07
 0.38220001E+02  0.40517E+07
 0.38270000E+02  0.33309E+07
 0.38320000E+02  0.24655E+07
 0.38370003E+02  0.14957E+07
 0.38420002E+02  0.89484E+06
 0.38470001E+02  0.52901E+06
 0.38520000E+02  0.54138E+05
 0.38570000E+02 -0.34824E+06
 0.38620003E+02 -0.84648E+06
 0.38670002E+02 -0.18469E+07
 0.38720001E+02 -0.33062E+07
 0.38770000E+02 -0.46104E+07
 0.38820000E+02 -0.46677E+07
 0.38870003E+02 -0.32001E+07
 0.38920002E+02 -0.10960E+07
 0.38970001E+02  0.53541E+06
 0.39020000E+02  0.13120E+07
 0.39070000E+02  0.16017E+07
 0.39120003E+02  0.18037E+07
 0.39170002E+02  0.23294E+07
 0.39220001E+02  0.29735E+07
 0.39270000E+02  0.30747E+07
 0.39320000E+02  0.25447E+07
 0.39370003E+02  0.13840E+07
 0.39420002E+02  0.14961E+06
 0.39470001E+02 -0.49688E+06
 0.39520000E+02 -0.10230E+07
 0.39570000E+02 -0.16510E+07
 0.39620003E+02 -0.25688E+07
 0.39670002E+02 -0.38095E+07
 0.39720001E+02 -0.42776E+07
 0.39770000E+02 -0.33968E+07
 0.39820000E+02 -0.16020E+07
 0.39870003E+02  0.60185E+06
 0.39920002E+02  0.28191E+07
 0.39970001E+02  0.47187E+07
 0.40020000E+02  0.60282E+07
 0.40070000E+02  0.63864E+07
 0.40120003E+02  0.58239E+07
 0.40170002E+02  0.46848E+07
 0.40220001E+02  0.32569E+07
 0.40270000E+02  0.20844E+07
 0.40320000E+02  0.12960E+07
 0.40370003E+02  0.51512E+06
 0.40420002E+02 -0.74468E+06
 0.40470001E+02 -0.23203E+07
 0.40520000E+02 -0.30949E+07
 0.40570000E+02 -0.24321E+07
 0.40620003E+02 -0.20307E+06
 0.40670002E+02  0.27495E+07
 0.40720001E+02  0.45898E+07
 0.40770000E+02  0.49839E+07
 0.40820000E+02  0.48273E+07
 0.40870003E+02  0.43540E+07
 0.40920002E+02  0.35652E+07
 0.40970001E+02  0.27530E+07
 0.41020000E+02  0.18967E+07
 0.41070000E+02  0.67731E+06
 0.41120003E+02 -0.90779E+06
 0.41170002E+02 -0.24123E+07
 0.41220001E+02 -0.34029E+07
 0.41270000E+02 -0.33806E+07
 0.41320000E+02 -0.15162E+07
 0.41370003E+02  0.18004E+07
 0.41420002E+02  0.44060E+07
 0.41470001E+02  0.48222E+07
 0.41520000E+02  0.35246E+07
 0.41570000E+02  0.17109E+07
 0.41620003E+02  0.28315E+06
 0.41670002E+02 -0.30032E+06
 0.41720001E+02 -0.29700E+06
 0.41770000E+02 -0.63720E+06
 0.41820000E+02 -0.16352E+07
 0.41870003E+02 -0.23490E+07
 0.41920002E+02 -0.17917E+07
 0.41970001E+02 -0.14435E+06
 0.42020000E+02  0.17509E+07
 0.42070000E+02  0.33811E+07
 0.42120003E+02  0.44631E+07
 0.42170002E+02  0.48859E+07
 0.42220001E+02  0.47977E+07
 0.42270000E+02  0.45364E+07
 0.42320000E+02  0.42284E+07
 0.42370003E+02  0.33509E+07
 0.42420002E+02  0.16343E+07
 0.42470001E+02 -0.19999E+06
 0.42520000E+02 -0.14508E+07
 0.42570000E+02 -0.18728E+07
 0.42620003E+02 -0.16010E+07
 0.42670002E+02 -0.14629E+07
 0.42720001E+02 -0.17018E+07
 0.42770000E+02 -0.18023E+07
 0.42820000E+02 -0.16640E+07
 0.42870003E+02 -0.96623E+06
 0.42920002E+02  0.47013E+06
 0.42970001E+02  0.14955E+07
 0.43020000E+02  0.10102E+07
 0.43070000E+02 -0.19180E+06
 0.43120003E+02 -0.36677E+06
 0.43170002E+02  0.85059E+06
 0.43220001E+02  0.23209E+07
 0.43270000E+02  0.30766E+07
 0.43320000E+02  0.27194E+07
 0.43370003E+02  0.12168E+07
 0.43420002E+02 -0.63672E+06
 0.43470001E+02 -0.17010E+07
 0.43520000E+02 -0.17210E+07
 0.43570000E+02 -0.11418E+07
 0.43620003E+02 -0.26512E+06
 0.43670002E+02  0.63557E+06
 0.43720001E+02  0.14874E+07
 0.43770000E+02  0.23586E+07
 0.43820000E+02  0.26814E+07
 0.43870003E+02  0.20179E+07
 0.43920002E+02  0.78876E+06
 0.43970001E+02 -0.36144E+06
 0.44020000E+02 -0.10402E+07
 0.44070000E+02 -0.14604E+07
 0.44120003E+02 -0.20009E+07
 0.44170002E+02 -0.27298E+07
 0.44220001E+02 -0.36396E+07
 0.44270000E+02 -0.44526E+07
 0.44320000E+02 -0.46823E+07
 0.44370003E+02 -0.42828E+07
 0.44420002E+02 -0.36327E+07
 0.44470001E+02 -0.29933E+07
 0.44520000E+02 -0.25188E+07
 0.44570000E+02 -0.22355E+07
 0.44620003E+02 -0.20122E+07
 0.44670002E+02 -0.17611E+07
 0.44720001E+02 -0.13783E+07
 0.44770000E+02 -0.83707E+06
 0.44820000E+02 -0.17948E+06
 0.44870003E+02  0.38099E+06
 0.44920002E+02  0.35095E+06
 0.44970001E+02 -0.35598E+06
 0.45020000E+02 -0.13849E+07
 0.45070000E+02 -0.22335E+07
 0.45120003E+02 -0.24222E+07
 0.45170002E+02 -0.23472E+07
 0.45220001E+02 -0.26221E+07
 0.45270000E+02 -0.32329E+07
 0.45320000E+02 -0.38614E+07
 0.45370003E+02 -0.39055E+07
 0.45420002E+02 -0.31024E+07
 0.45470001E+02 -0.17557E+07
 0.45520000E+02 -0.20313E+06
 0.45570000E+02  0.10326E+07
 0.45620003E+02  0.13710E+07
 0.45670002E+02  0.10074E+07
 0.45720001E+02  0.57729E+06
 0.45770000E+02  0.30903E+06
 0.45820000E+02  0.21813E+06
 0.45870003E+02  0.27929E+06
 0.45920002E+02  0.45850E+06
 0.45970001E+02  0.55695E+06
 0.46020000E+02  0.43247E+06
 0.46070000E+02  0.36261E+06
 0.46120003E+02  0.45160E+06
 0.46170002E+02  0.71193E+06
 0.46220001E+02  0.11900E+07
 0.46270000E+02  0.16736E+07
 0.46320000E+02  0.19701E+07
 0.46370003E+02  0.19203E+07
 0.46420002E+02  0.13811E+07
 0.46470001E+02  0.45331E+06
 0.46520000E+02 -0.55182E+06
 0.46570000E+02 -0.13521E+07
 0.46620003E+02 -0.18769E+07
 0.46670002E+02 -0.22978E+07
 0.46720001E+02 -0.28331E+07
 0.46770000E+02 -0.36413E+07
 0.46820000E+02 -0.44718E+07
 0.46870003E+02 -0.47403E+07
 0.46920002E+02 -0.43314E+07
 0.46970001E+02 -0.34790E+07
 0.47020000E+02 -0.25263E+07
 0.47070000E+02 -0.17775E+07
 0.47120003E+02 -0.11999E+07
 0.47170002E+02 -0.73998E+06
 0.47220001E+02 -0.29707E+06
 0.47270000E+02  0.30979E+05
 0.47320000E+02 -0.13078E+06
 0.47370003E+02 -0.64739E+06
 0.47420002E+02 -0.13004E+07
 0.47470001E+02 -0.20461E+07
 0.47520000E+02 -0.25556E+07
 0.47570000E+02 -0.25737E+07
 0.47620003E+02 -0.22328E+07
 0.47670002E+02 -0.16802E+07
 0.47720001E+02 -0.71281E+06
 0.47770000E+02  0.55034E+06
 0.47820000E+02  0.16353E+07
 0.47870003E+02  0.23569E+07
 0.47920002E+02  0.26628E+07
 0.47970001E+02  0.26287E+07
 0.48020000E+02  0.22749E+07
 0.48070000E+02  0.16037E+07
 0.48120003E+02  0.92718E+06
 0.48170002E+02  0.52360E+06
 0.48220001E+02  0.32631E+06
 0.48270000E+02  0.25164E+06
 0.48320000E+02  0.38460E+06
 0.48370003E+02  0.60564E+06
 0.48420002E+02  0.71918E+06
 0.48470001E+02  0.69246E+06
 0.48520000E+02  0.59624E+06
 0.48570000E+02  0.58436E+06
 0.48620003E+02  0.62029E+06
 0.48670002E+02  0.59781E+06
 0.48720001E+02  0.57469E+06
 0.48770000E+02  0.51695E+06
 0.48820000E+02  0.44991E+06
 0.48870003E+02  0.55575E+06
 0.48920002E+02  0.91943E+06
 0.48970001E+02  0.13758E+07
 0.49020000E+02  0.15300E+07
 0.49070000E+02  0.12516E+07
 0.49120003E+02  0.75320E+06
 0.49170002E+02  0.26552E+06
 0.49220001E+02 -0.33646E+05
 0.49270000E+02 -0.27387E+06
 0.49320000E+02 -0.57287E+06
 0.49370003E+02 -0.69484E+06
 0.49420002E+02 -0.61838E+06
 0.49470001E+02 -0.36886E+06
 0.49520000E+02 -0.64795E+05
 0.49570000E+02 -0.96440E+05
 0.49620003E+02 -0.44580E+06
 0.49670002E+02 -0.89507E+06
 0.49720001E+02 -0.13081E+07
 0.49770000E+02 -0.14751E+07
 0.49820000E+02 -0.13794E+07
 0.49870003E+02 -0.12891E+07
 0.49920002E+02 -0.13032E+07
 0.49970001E+02 -0.12304E+07
 0.50020000E+02 -0.88620E+06
 0.50070000E+02 -0.22426E+06
 0.50120003E+02  0.64229E+06
 0.50170002E+02  0.14305E+07
 0.50220001E+02  0.18653E+07
 0.50270000E+02  0.19907E+07
 0.50320000E+02  0.19968E+07
 0.50370003E+02  0.19652E+07
 0.50420002E+02  0.17879E+07
 0.50470001E+02  0.14301E+07
 0.50520000E+02  0.10209E+07
 0.50570000E+02  0.46779E+06
 0.50620003E+02 -0.97203E+05
 0.50670002E+02 -0.40276E+06
 0.50720001E+02 -0.64055E+06
 0.50770000E+02 -0.96581E+06
 0.50820000E+02 -0.13119E+07
 0.50870003E+02 -0.15492E+07
 0.50920002E+02 -0.14162E+07
 0.50970001E+02 -0.90888E+06
 0.51020000E+02 -0.26339E+06
 0.51070000E+02  0.42198E+06
 0.51120003E+02  0.99712E+06
 0.51170002E+02  0.13811E+07
 0.51220001E+02  0.16369E+07
 0.51270000E+02  0.17554E+07
 0.51320000E+02  0.16190E+07
 0.51370003E+02  0.10375E+07
 0.51420002E+02  0.21400E+06
 0.51470001E+02 -0.46828E+06
 0.51520000E+02 -0.88792E+06
 0.51570000E+02 -0.11059E+07
 0.51620003E+02 -0.12488E+07
 0.51670002E+02 -0.12592E+07
 0.51720001E+02 -0.11866E+07
 0.51770000E+02 -0.11172E+07
 0.51820000E+02 -0.94895E+06
 0.51870003E+02 -0.73913E+06
 0.51920002E+02 -0.59355E+06
 0.51970001E+02 -0.32519E+06
 0.52020000E+02  0.29070E+06
 0.52070000E+02  0.10484E+07
 0.52120003E+02  0.15773E+07
 0.52170002E+02  0.16810E+07
 0.52220001E+02  0.15179E+07
 0.52270000E+02  0.13434E+07
 0.52320000E+02  0.12124E+07
 0.52370003E+02  0.11788E+07
 0.52420002E+02  0.10434E+07
 0.52470001E+02  0.64437E+06
 0.52520000E+02  0.23554E+06
 0.52570000E+02  0.30266E+05
 0.52620003E+02  0.79182E+05
 0.52670002E+02  0.36942E+06
 0.52720001E+02  0.72561E+06
 0.52770000E+02  0.10077E+07
 0.52820000E+02  0.12620E+07
 0.52870003E+02  0.15344E+07
 0.52920002E+02  0.17713E+07
 0.52970001E+02  0.19525E+07
 0.53020000E+02  0.21457E+07
 0.53070000E+02  0.22359E+07
 0.53120003E+02  0.21613E+07
 0.53170002E+02  0.19857E+07
 0.53220001E+02  0.16658E+07
 0.53270000E+02  0.13304E+07
 0.53320000E+02  0.10604E+07
 0.53370003E+02  0.82849E+06
 0.53420002E+02  0.62861E+06
 0.53470001E+02  0.34370E+06
 0.53520000E+02  0.15394E+05
 0.53570000E+02 -0.33146E+06
 0.53620003E+02 -0.79464E+06
 0.53670002E+02 -0.13113E+07
 0.53720001E+02 -0.17575E+07
 0.53770000E+02 -0.21065E+07
 0.53820000E+02 -0.23422E+07
 0.53870003E+02 -0.23424E+07
 0.53920002E+02 -0.20503E+07
 0.53970001E+02 -0.15366E+07
 0.54020000E+02 -0.10083E+07
 0.54070000E+02 -0.69850E+06
 0.54120003E+02 -0.67178E+06
 0.54170002E+02 -0.83336E+06
 0.54220001E+02 -0.97451E+06
 0.54270000E+02 -0.11112E+07
 0.54320000E+02 -0.12482E+07
 0.54370003E+02 -0.12071E+07
 0.54420002E+02 -0.11088E+07
 0.54470001E+02 -0.90686E+06
 0.54520000E+02 -0.44022E+06
 0.54570000E+02  0.10379E+06
 0.54620003E+02  0.64548E+06
 0.54670002E+02  0.10947E+07
 0.54720001E+02  0.13083E+07
 0.54770000E+02  0.13726E+07
 0.54820000E+02  0.14831E+07
 0.54870003E+02  0.17220E+07
 0.54920002E+02  0.19776E+07
 0.54970001E+02  0.20966E+07
 0.55020000E+02  0.20003E+07
 0.55070000E+02  0.17930E+07
 0.55120003E+02  0.15676E+07
 0.55170002E+02  0.13187E+07
 0.55220001E+02  0.10219E+07
 0.55270000E+02  0.60894E+06
 0.55320000E+02  0.16068E+06
 0.55370003E+02 -0.17030E+06
 0.55420002E+02 -0.36339E+06
 0.55470001E+02 -0.42949E+06
 0.55520000E+02 -0.28603E+06
 0.55570000E+02  0.11832E+05
 0.55620003E+02  0.27496E+06
 0.55670002E+02  0.39793E+06
 0.55720001E+02  0.36293E+06
 0.55770000E+02  0.24129E+06
 0.55820000E+02 -0.36280E+04
 0.55870003E+02 -0.25172E+06
 0.55920002E+02 -0.27295E+06
 0.55970001E+02 -0.13267E+06
 0.56020000E+02  0.79785E+05
 0.56070000E+02  0.22256E+06
 0.56120003E+02  0.12568E+06
 0.56170002E+02 -0.15390E+06
 0.56220001E+02 -0.43021E+06
 0.56270000E+02 -0.53875E+06
 0.56320000E+02 -0.44296E+06
 0.56370003E+02 -0.30705E+06
 0.56420002E+02 -0.27106E+06
 0.56470001E+02 -0.34538E+06
 0.56520000E+02 -0.55190E+06
 0.56570000E+02 -0.74217E+06
 0.56620003E+02 -0.74662E+06
 0.56670002E+02 -0.57558E+06
 0.56720001E+02 -0.28268E+06
 0.56770000E+02  0.50868E+05
 0.56820000E+02  0.38366E+06
 0.56870003E+02  0.67461E+06
 0.56920002E+02  0.88126E+06
 0.56970001E+02  0.99833E+06
 0.57020000E+02  0.10323E+07
 0.57070000E+02  0.10126E+07
 0.57120003E+02  0.97545E+06
 0.57170002E+02  0.97779E+06
 0.57220001E+02  0.10025E+07
 0.57270000E+02  0.94636E+06
 0.57320000E+02  0.76299E+06
 0.57370003E+02  0.45502E+06
 0.57420002E+02  0.56563E+05
 0.57470001E+02 -0.29128E+06
 0.57520000E+02 -0.54748E+06
 0.57570000E+02 -0.81313E+06
 0.57620003E+02 -0.10252E+07
 0.57670002E+02 -0.11304E+07
 0.57720001E+02 -0.11805E+07
 0.57770000E+02 -0.12084E+07
 0.57820000E+02 -0.12699E+07
 0.57870003E+02 -0.13034E+07
 0.57920002E+02 -0.11982E+07
 0.57970001E+02 -0.97646E+06
 0.58020000E+02 -0.74113E+06
 0.58070000E+02 -0.58468E+06
 0.58120003E+02 -0.57215E+06
 0.58170002E+02 -0.62517E+06
 0.58220001E+02 -0.55367E+06
 0.58270000E+02 -0.33893E+06
 0.58320000E+02 -0.34291E+05
 0.58370003E+02  0.32574E+06
 0.58420002E+02  0.63473E+06
 0.58470001E+02  0.77890E+06
 0.58520000E+02  0.74132E+06
 0.58570000E+02  0.65700E+06
 0.58620003E+02  0.65974E+06
 0.58670002E+02  0.79159E+06
 0.58720001E+02  0.96874E+06
 0.58770000E+02  0.10344E+07
 0.58820000E+02  0.94834E+06
 0.58870003E+02  0.76288E+06
 0.58920002E+02  0.58769E+06
 0.58970001E+02  0.44607E+06
 0.59020000E+02  0.27008E+06
 0.59070000E+02 -0.18980E+04
 0.59120003E+02 -0.40954E+06
 0.59170002E+02 -0.79053E+06
 0.59220001E+02 -0.10110E+07
 0.59270000E+02 -0.11010E+07
 0.59320000E+02 -0.10705E+07
 0.59370003E+02 -0.99411E+06
 0.59420002E+02 -0.96514E+06
 0.59470001E+02 -0.93909E+06
 0.59520000E+02 -0.80401E+06
 0.59570000E+02 -0.54636E+06
 0.59620003E+02 -0.27701E+06
 0.59670002E+02 -0.35346E+05
 0.59720001E+02  0.18193E+06
 0.59770000E+02  0.26164E+06
 0.59820000E+02  0.18508E+06
 0.59870003E+02  0.43986E+05
 0.59920002E+02 -0.12539E+06
 0.59970001E+02 -0.31002E+06
 0.60020000E+02 -0.55084E+06
 0.60070000E+02 -0.85596E+06
 0.60120003E+02 -0.11785E+07
 0.60170002E+02 -0.15466E+07
 0.60220001E+02 -0.18717E+07
 0.60270000E+02 -0.19849E+07
 0.60320000E+02 -0.18441E+07
 0.60370003E+02 -0.14555E+07
 0.60420002E+02 -0.96037E+06
 0.60470001E+02 -0.58008E+06
 0.60520000E+02 -0.39808E+06
 0.60570000E+02 -0.29387E+06
 0.60620003E+02 -0.16114E+06
 0.60670002E+02 -0.61532E+05
 0.60720001E+02  0.22226E+05
 0.60770000E+02  0.12121E+06
 0.60820000E+02  0.20956E+06
 0.60870003E+02  0.27928E+06
 0.60920002E+02  0.33334E+06
 0.60970001E+02  0.44382E+06
 0.61020000E+02  0.61091E+06
 0.61070000E+02  0.73120E+06
 0.61120003E+02  0.75649E+06
 0.61170002E+02  0.73170E+06
 0.61220001E+02  0.68062E+06
 0.61270000E+02  0.57308E+06
 0.61320000E+02  0.38871E+06
 0.61370003E+02  0.14179E+06
 0.61420002E+02 -0.56459E+05
 0.61470001E+02 -0.11538E+06
 0.61520000E+02 -0.68770E+05
 0.61570000E+02  0.19243E+05
 0.61620003E+02  0.15502E+06
 0.61670002E+02  0.36946E+06
 0.61720001E+02  0.55133E+06
 0.61770000E+02  0.57545E+06
 0.61820000E+02  0.45838E+06
 0.61870003E+02  0.29405E+06
 0.61920002E+02  0.18963E+06
 0.61970001E+02  0.21006E+06
 0.62020000E+02  0.36390E+06
 0.62070004E+02  0.61165E+06
 0.62119999E+02  0.87533E+06
 0.62170002E+02  0.10381E+07
 0.62220005E+02  0.10869E+07
 0.62270000E+02  0.11081E+07
 0.62320004E+02  0.10794E+07
 0.62369999E+02  0.88809E+06
 0.62420002E+02  0.45645E+06
 0.62470005E+02 -0.11578E+06
 0.62520000E+02 -0.66153E+06
 0.62570004E+02 -0.10617E+07
 0.62619999E+02 -0.11411E+07
 0.62670002E+02 -0.87928E+06
 0.62720005E+02 -0.47217E+06
 0.62770000E+02 -0.12285E+06
 0.62820004E+02  0.56039E+05
 0.62869999E+02  0.14481E+06
 0.62920002E+02  0.25337E+06
 0.62970005E+02  0.36375E+06
 0.63020000E+02  0.40788E+06
 0.63070004E+02  0.35298E+06
 0.63119999E+02  0.24959E+06
 0.63170002E+02  0.96609E+05
 0.63220005E+02 -0.68123E+05
 0.63270000E+02 -0.13143E+06
 0.63320004E+02 -0.12334E+06
 0.63369999E+02 -0.72556E+05
 0.63420002E+02  0.13326E+05
 0.63470005E+02  0.10529E+06
 0.63520000E+02  0.26354E+06
 0.63570004E+02  0.46779E+06
 0.63619999E+02  0.61108E+06
 0.63670002E+02  0.68690E+06
 0.63720005E+02  0.71584E+06
 0.63770000E+02  0.65939E+06
 0.63820004E+02  0.52845E+06
 0.63869999E+02  0.35645E+06
 0.63920002E+02  0.13252E+06
 0.63970005E+02 -0.78882E+05
 0.64019997E+02 -0.21216E+06
 0.64070000E+02 -0.26284E+06
 0.64119995E+02 -0.19074E+06
 0.64169998E+02 -0.53286E+05
 0.64220001E+02  0.58086E+05
 0.64269997E+02  0.15454E+06
 0.64320000E+02  0.19637E+06
 0.64369995E+02  0.16120E+06
 0.64419998E+02  0.68520E+05
 0.64470001E+02 -0.52602E+05
 0.64519997E+02 -0.11766E+06
 0.64570000E+02 -0.96146E+05
 0.64619995E+02  0.97290E+04
 0.64669998E+02  0.13974E+06
 0.64720001E+02  0.20047E+06
 0.64769997E+02  0.18507E+06
 0.64820000E+02  0.13924E+06
 0.64869995E+02  0.13338E+06
 0.64919998E+02  0.15655E+06
 0.64970001E+02  0.13580E+06
 0.65019997E+02  0.37567E+05
 0.65070000E+02 -0.15422E+06
 0.65119995E+02 -0.40909E+06
 0.65169998E+02 -0.67808E+06
 0.65220001E+02 -0.91333E+06
 0.65269997E+02 -0.10403E+07
 0.65320000E+02 -0.10339E+07
 0.65369995E+02 -0.94645E+06
 0.65419998E+02 -0.78179E+06
 0.65470001E+02 -0.54058E+06
 0.65519997E+02 -0.29425E+06
 0.65570000E+02 -0.38087E+05
 0.65619995E+02  0.20177E+06
 0.65669998E+02  0.33373E+06
 0.65720001E+02  0.36800E+06
 0.65769997E+02  0.34260E+06
 0.65820000E+02  0.27351E+06
 0.65869995E+02  0.13992E+06
 0.65919998E+02 -0.57911E+05
 0.65970001E+02 -0.22383E+06
 0.66019997E+02 -0.30508E+06
 0.66070000E+02 -0.33392E+06
 0.66119995E+02 -0.33241E+06
 0.66169998E+02 -0.33703E+06
 0.66220001E+02 -0.37688E+06
 0.66269997E+02 -0.36991E+06
 0.66320000E+02 -0.24047E+06
 0.66369995E+02 -0.60969E+05
 0.66419998E+02  0.47988E+05
 0.66470001E+02  0.39115E+05
 0.66519997E+02 -0.61036E+05
 0.66570000E+02 -0.23173E+06
 0.66619995E+02 -0.45757E+06
 0.66669998E+02 -0.68678E+06
 0.66720001E+02 -0.85979E+06
 0.66769997E+02 -0.92773E+06
 0.66820000E+02 -0.89903E+06
 0.66869995E+02 -0.78408E+06
 0.66919998E+02 -0.56679E+06
 0.66970001E+02 -0.27167E+06
 0.67019997E+02  0.44560E+05
 0.67070000E+02  0.31548E+06
 0.67119995E+02  0.54436E+06
 0.67169998E+02  0.75824E+06
 0.67220001E+02  0.95329E+06
 0.67269997E+02  0.11033E+07
 0.67320000E+02  0.11781E+07
 0.67369995E+02  0.11956E+07
 0.67419998E+02  0.11661E+07
 0.67470001E+02  0.10950E+07
 0.67519997E+02  0.97425E+06
 0.67570000E+02  0.80279E+06
 0.67619995E+02  0.61908E+06
 0.67669998E+02  0.45318E+06
 0.67720001E+02  0.35326E+06
 0.67769997E+02  0.31351E+06
 0.67820000E+02  0.26185E+06
 0.67869995E+02  0.20803E+06
 0.67919998E+02  0.17113E+06
 0.67970001E+02  0.14217E+06
 0.68019997E+02  0.16879E+06
 0.68070000E+02  0.24907E+06
 0.68119995E+02  0.31795E+06
 0.68169998E+02  0.33336E+06
 0.68220001E+02  0.29302E+06
 0.68269997E+02  0.18428E+06
 0.68320000E+02 -0.95900E+03
 0.68369995E+02 -0.22378E+06
 0.68419998E+02 -0.47984E+06
 0.68470001E+02 -0.78726E+06
 0.68519997E+02 -0.11045E+07
 0.68570000E+02 -0.13200E+07
 0.68619995E+02 -0.13873E+07
 0.68669998E+02 -0.13023E+07
 0.68720001E+02 -0.10581E+07
 0.68769997E+02 -0.76972E+06
 0.68820000E+02 -0.52474E+06
 0.68869995E+02 -0.34752E+06
 0.68919998E+02 -0.26271E+06
 0.68970001E+02 -0.24264E+06
 0.69019997E+02 -0.27596E+06
 0.69070000E+02 -0.30333E+06
 0.69119995E+02 -0.27513E+06
 0.69169998E+02 -0.24466E+06
 0.69220001E+02 -0.19794E+06
 0.69269997E+02 -0.72615E+05
 0.69320000E+02  0.11786E+06
 0.69369995E+02  0.27540E+06
 0.69419998E+02  0.29735E+06
 0.69470001E+02  0.17123E+06
 0.69519997E+02 -0.48179E+05
 0.69570000E+02 -0.27664E+06
 0.69619995E+02 -0.43106E+06
 0.69669998E+02 -0.48165E+06
 0.69720001E+02 -0.43575E+06
 0.69769997E+02 -0.27649E+06
 0.69820000E+02 -0.69480E+04
 0.69869995E+02  0.33965E+06
 0.69919998E+02  0.70143E+06
 0.69970001E+02  0.96182E+06
 0.70019997E+02  0.10790E+07
 0.70070000E+02  0.10885E+07
 0.70119995E+02  0.10125E+07
 0.70169998E+02  0.87450E+06
 0.70220001E+02  0.72277E+06
 0.70269997E+02  0.59031E+06
 0.70320000E+02  0.46410E+06
 0.70369995E+02  0.36134E+06
 0.70419998E+02  0.28392E+06
 0.70470001E+02  0.19597E+06
 0.70519997E+02  0.85656E+05
 0.70570000E+02 -0.55833E+05
 0.70619995E+02 -0.19413E+06
 0.70669998E+02 -0.30378E+06
 0.70720001E+02 -0.39912E+06
 0.70769997E+02 -0.46180E+06
 0.70820000E+02 -0.49172E+06
 0.70869995E+02 -0.50261E+06
 0.70919998E+02 -0.49135E+06
 0.70970001E+02 -0.46502E+06
 0.71019997E+02 -0.44664E+06
 0.71070000E+02 -0.44376E+06
 0.71119995E+02 -0.41866E+06
 0.71169998E+02 -0.34662E+06
 0.71220001E+02 -0.25436E+06
 0.71269997E+02 -0.19500E+06
 0.71320000E+02 -0.18326E+06
 0.71369995E+02 -0.16990E+06
 0.71419998E+02 -0.98996E+05
 0.71470001E+02  0.56487E+05
 0.71519997E+02  0.26640E+06
 0.71570000E+02  0.47063E+06
 0.71619995E+02  0.63607E+06
 0.71669998E+02  0.73592E+06
 0.71720001E+02  0.76000E+06
 0.71769997E+02  0.74314E+06
 0.71820000E+02  0.71852E+06
 0.71869995E+02  0.68902E+06
 0.71919998E+02  0.64187E+06
 0.71970001E+02  0.56703E+06
 0.72019997E+02  0.44854E+06
 0.72070000E+02  0.28045E+06
 0.72119995E+02  0.98910E+05
 0.72169998E+02 -0.95843E+05
 0.72220001E+02 -0.30225E+06
 0.72269997E+02 -0.46370E+06
 0.72320000E+02 -0.56066E+06
 0.72369995E+02 -0.59749E+06
 0.72419998E+02 -0.59629E+06
 0.72470001E+02 -0.57704E+06
 0.72519997E+02 -0.51540E+06
 0.72570000E+02 -0.39960E+06
 0.72619995E+02 -0.26085E+06
 0.72669998E+02 -0.16226E+06
 0.72720001E+02 -0.14446E+06
 0.72769997E+02 -0.18152E+06
 0.72820000E+02 -0.22488E+06
 0.72869995E+02 -0.24655E+06
 0.72919998E+02 -0.24100E+06
 0.72970001E+02 -0.19866E+06
 0.73019997E+02 -0.10273E+06
 0.73070000E+02  0.21493E+05
 0.73119995E+02  0.12422E+06
 0.73169998E+02  0.17940E+06
 0.73220001E+02  0.17841E+06
 0.73269997E+02  0.14221E+06
 0.73320000E+02  0.12376E+06
 0.73369995E+02  0.16615E+06
 0.73419998E+02  0.25850E+06
 0.73470001E+02  0.34089E+06
 0.73519997E+02  0.37622E+06
 0.73570000E+02  0.36075E+06
 0.73619995E+02  0.29858E+06
 0.73669998E+02  0.20732E+06
 0.73720001E+02  0.83329E+05
 0.73769997E+02 -0.56544E+05
 0.73820000E+02 -0.13168E+06
 0.73869995E+02 -0.10590E+06
 0.73919998E+02 -0.47539E+05
 0.73970001E+02 -0.32316E+05
 0.74019997E+02 -0.57116E+05
 0.74070000E+02 -0.63093E+05
 0.74119995E+02  0.17237E+05
 0.74169998E+02  0.18678E+06
 0.74220001E+02  0.37738E+06
 0.74269997E+02  0.53896E+06
 0.74320000E+02  0.63091E+06
 0.74369995E+02  0.60887E+06
 0.74419998E+02  0.48576E+06
 0.74470001E+02  0.30207E+06
 0.74519997E+02  0.67707E+05
 0.74570000E+02 -0.18953E+06
 0.74619995E+02 -0.43724E+06
 0.74669998E+02 -0.64300E+06
 0.74720001E+02 -0.73476E+06
 0.74769997E+02 -0.72177E+06
 0.74820000E+02 -0.65797E+06
 0.74869995E+02 -0.56867E+06
 0.74919998E+02 -0.50934E+06
 0.74970001E+02 -0.45571E+06
 0.75019997E+02 -0.35626E+06
 0.75070000E+02 -0.21632E+06
 0.75119995E+02 -0.37306E+05
 0.75169998E+02  0.12500E+06
 0.75220001E+02  0.21678E+06
 0.75269997E+02  0.21858E+06
 0.75320000E+02  0.11258E+06
 0.75369995E+02 -0.48615E+05
 0.75419998E+02 -0.19010E+06
 0.75470001E+02 -0.26038E+06
 0.75519997E+02 -0.21630E+06
 0.75570000E+02 -0.76649E+05
 0.75619995E+02  0.12467E+06
 0.75669998E+02  0.36917E+06
 0.75720001E+02  0.60616E+06
 0.75769997E+02  0.80416E+06
 0.75820000E+02  0.92738E+06
 0.75869995E+02  0.95466E+06
 0.75919998E+02  0.92500E+06
 0.75970001E+02  0.85014E+06
 0.76019997E+02  0.72633E+06
 0.76070000E+02  0.57844E+06
 0.76119995E+02  0.44171E+06
 0.76169998E+02  0.31506E+06
 0.76220001E+02  0.18354E+06
 0.76269997E+02  0.70733E+05
 0.76320000E+02 -0.22564E+05
 0.76369995E+02 -0.13403E+06
 0.76419998E+02 -0.27944E+06
 0.76470001E+02 -0.44188E+06
 0.76519997E+02 -0.60259E+06
 0.76570000E+02 -0.74185E+06
 0.76619995E+02 -0.84273E+06
 0.76669998E+02 -0.89756E+06
 0.76720001E+02 -0.91393E+06
 0.76769997E+02 -0.90441E+06
 0.76820000E+02 -0.84004E+06
 0.76869995E+02 -0.70437E+06
 0.76919998E+02 -0.53543E+06
 0.76970001E+02 -0.38170E+06
 0.77019997E+02 -0.27289E+06
 0.77070000E+02 -0.17419E+06
 0.77119995E+02 -0.43613E+05
 0.77169998E+02  0.91052E+05
 0.77220001E+02  0.18935E+06
 0.77269997E+02  0.23449E+06
 0.77320000E+02  0.24895E+06
 0.77369995E+02  0.25778E+06
 0.77419998E+02  0.27937E+06
 0.77470001E+02  0.34134E+06
 0.77519997E+02  0.41108E+06
 0.77570000E+02  0.47313E+06
 0.77619995E+02  0.54941E+06
 0.77669998E+02  0.62666E+06
 0.77720001E+02  0.67210E+06
 0.77769997E+02  0.62377E+06
 0.77820000E+02  0.44853E+06
 0.77869995E+02  0.19418E+06
 0.77919998E+02 -0.36874E+05
 0.77970001E+02 -0.18915E+06
 0.78019997E+02 -0.28191E+06
 0.78070000E+02 -0.36080E+06
 0.78119995E+02 -0.49204E+06
 0.78169998E+02 -0.65825E+06
 0.78220001E+02 -0.78058E+06
 0.78269997E+02 -0.85128E+06
 0.78320000E+02 -0.89152E+06
 0.78369995E+02 -0.88730E+06
 0.78419998E+02 -0.86060E+06
 0.78470001E+02 -0.85279E+06
 0.78519997E+02 -0.83498E+06
 0.78570000E+02 -0.76333E+06
 0.78619995E+02 -0.61824E+06
 0.78669998E+02 -0.43209E+06
 0.78720001E+02 -0.27135E+06
 0.78769997E+02 -0.14478E+06
 0.78820000E+02 -0.31570E+05
 0.78869995E+02  0.73889E+05
 0.78919998E+02  0.17582E+06
 0.78970001E+02  0.27497E+06
 0.79019997E+02  0.36570E+06
 0.79070000E+02  0.44330E+06
 0.79119995E+02  0.49905E+06
 0.79169998E+02  0.52556E+06
 0.79220001E+02  0.52545E+06
 0.79269997E+02  0.47710E+06
 0.79320000E+02  0.35518E+06
 0.79369995E+02  0.19020E+06
 0.79419998E+02  0.20372E+05
 0.79470001E+02 -0.12795E+06
 0.79519997E+02 -0.21185E+06
 0.79570000E+02 -0.21272E+06
 0.79619995E+02 -0.16143E+06
 0.79669998E+02 -0.12226E+06
 0.79720001E+02 -0.13614E+06
 0.79769997E+02 -0.17175E+06
 0.79820000E+02 -0.16662E+06
 0.79869995E+02 -0.10277E+06
 0.79919998E+02 -0.11256E+05
 0.79970001E+02  0.87865E+05
 0.80019997E+02  0.18853E+06
 0.80070000E+02  0.28315E+06
 0.80119995E+02  0.36420E+06
 0.80169998E+02  0.41333E+06
 0.80220001E+02  0.42849E+06
 0.80269997E+02  0.40341E+06
 0.80320000E+02  0.36106E+06
 0.80369995E+02  0.36783E+06
 0.80419998E+02  0.41876E+06
 0.80470001E+02  0.49351E+06
 0.80519997E+02  0.57578E+06
 0.80570000E+02  0.59884E+06
 0.80619995E+02  0.54578E+06
 0.80669998E+02  0.44688E+06
 0.80720001E+02  0.31124E+06
 0.80769997E+02  0.14930E+06
 0.80820000E+02 -0.16565E+05
 0.80869995E+02 -0.14976E+06
 0.80919998E+02 -0.22613E+06
 0.80970001E+02 -0.24725E+06
 0.81019997E+02 -0.21647E+06
 0.81070000E+02 -0.17403E+06
 0.81119995E+02 -0.17210E+06
 0.81169998E+02 -0.23310E+06
 0.81220001E+02 -0.34557E+06
 0.81269997E+02 -0.44593E+06
 0.81320000E+02 -0.47837E+06
 0.81369995E+02 -0.43149E+06
 0.81419998E+02 -0.31207E+06
 0.81470001E+02 -0.15074E+06
 0.81519997E+02 -0.76000E+02
 0.81570000E+02  0.12142E+06
 0.81619995E+02  0.22464E+06
 0.81669998E+02  0.29538E+06
 0.81720001E+02  0.31552E+06
 0.81769997E+02  0.29020E+06
 0.81820000E+02  0.24437E+06
 0.81869995E+02  0.21706E+06
 0.81919998E+02  0.24316E+06
 0.81970001E+02  0.30940E+06
 0.82019997E+02  0.36802E+06
 0.82070000E+02  0.40046E+06
 0.82119995E+02  0.41270E+06
 0.82169998E+02  0.41151E+06
 0.82220001E+02  0.39544E+06
 0.82269997E+02  0.37244E+06
 0.82320000E+02  0.37238E+06
 0.82369995E+02  0.40557E+06
 0.82419998E+02  0.47907E+06
 0.82470001E+02  0.60414E+06
 0.82519997E+02  0.73682E+06
 0.82570000E+02  0.81329E+06
 0.82619995E+02  0.81337E+06
 0.82669998E+02  0.74982E+06
 0.82720001E+02  0.64785E+06
 0.82769997E+02  0.53633E+06
 0.82820000E+02  0.45043E+06
 0.82869995E+02  0.40082E+06
 0.82919998E+02  0.35283E+06
 0.82970001E+02  0.29741E+06
 0.83019997E+02  0.26298E+06
 0.83070000E+02  0.25675E+06
 0.83119995E+02  0.25072E+06
 0.83169998E+02  0.19097E+06
 0.83220001E+02  0.67844E+05
 0.83269997E+02 -0.67409E+05
 0.83320000E+02 -0.18891E+06
 0.83369995E+02 -0.29317E+06
 0.83419998E+02 -0.36997E+06
 0.83470001E+02 -0.41974E+06
 0.83519997E+02 -0.45874E+06
 0.83570000E+02 -0.51075E+06
 0.83619995E+02 -0.57186E+06
 0.83669998E+02 -0.62506E+06
 0.83720001E+02 -0.67150E+06
 0.83769997E+02 -0.71992E+06
 0.83820000E+02 -0.78112E+06
 0.83869995E+02 -0.83996E+06
 0.83919998E+02 -0.86964E+06
 0.83970001E+02 -0.86313E+06
 0.84019997E+02 -0.82310E+06
 0.84070000E+02 -0.75703E+06
 0.84119995E+02 -0.67126E+06
 0.84169998E+02 -0.56407E+06
 0.84220001E+02 -0.43004E+06
 0.84269997E+02 -0.27735E+06
 0.84320000E+02 -0.12250E+06
 0.84369995E+02  0.29050E+04
 0.84419998E+02  0.72832E+05
 0.84470001E+02  0.99917E+05
 0.84519997E+02  0.96261E+05
 0.84570000E+02  0.67163E+05
 0.84619995E+02  0.19113E+05
 0.84669998E+02 -0.32348E+05
 0.84720001E+02 -0.51377E+05
 0.84769997E+02 -0.21706E+05
 0.84820000E+02  0.33321E+05
 0.84869995E+02  0.77391E+05
 0.84919998E+02  0.91049E+05
 0.84970001E+02  0.83723E+05
 0.85019997E+02  0.78608E+05
 0.85070000E+02  0.97480E+05
 0.85119995E+02  0.14175E+06
 0.85169998E+02  0.17402E+06
 0.85220001E+02  0.16584E+06
 0.85269997E+02  0.13358E+06
 0.85320000E+02  0.11762E+06
 0.85369995E+02  0.14568E+06
 0.85419998E+02  0.19378E+06
 0.85470001E+02  0.22426E+06
 0.85519997E+02  0.22869E+06
 0.85570000E+02  0.19826E+06
 0.85619995E+02  0.12913E+06
 0.85669998E+02  0.43351E+05
 0.85720001E+02 -0.35468E+05
 0.85769997E+02 -0.84705E+05
 0.85820000E+02 -0.10052E+06
 0.85869995E+02 -0.12494E+06
 0.85919998E+02 -0.19013E+06
 0.85970001E+02 -0.28472E+06
 0.86019997E+02 -0.38914E+06
 0.86070000E+02 -0.48868E+06
 0.86119995E+02 -0.57399E+06
 0.86169998E+02 -0.64550E+06
 0.86220001E+02 -0.68086E+06
 0.86269997E+02 -0.64477E+06
 0.86320000E+02 -0.54337E+06
 0.86369995E+02 -0.40485E+06
 0.86419998E+02 -0.26235E+06
 0.86470001E+02 -0.13364E+06
 0.86519997E+02 -0.84750E+04
 0.86570000E+02  0.10627E+06
 0.86619995E+02  0.19203E+06
 0.86669998E+02  0.23878E+06
 0.86720001E+02  0.23948E+06
 0.86769997E+02  0.21240E+06
 0.86820000E+02  0.21116E+06
 0.86869995E+02  0.25071E+06
 0.86919998E+02  0.28436E+06
 0.86970001E+02  0.27324E+06
 0.87019997E+02  0.22077E+06
 0.87070000E+02  0.15478E+06
 0.87119995E+02  0.86045E+05
 0.87169998E+02  0.89650E+04
 0.87220001E+02 -0.82609E+05
 0.87269997E+02 -0.17060E+06
 0.87320000E+02 -0.22749E+06
 0.87369995E+02 -0.27443E+06
 0.87419998E+02 -0.34767E+06
 0.87470001E+02 -0.44979E+06
 0.87519997E+02 -0.56038E+06
 0.87570000E+02 -0.64735E+06
 0.87619995E+02 -0.68763E+06
 0.87669998E+02 -0.70056E+06
 0.87720001E+02 -0.71335E+06
 0.87769997E+02 -0.70996E+06
 0.87820000E+02 -0.65793E+06
 0.87869995E+02 -0.55729E+06
 0.87919998E+02 -0.43954E+06
 0.87970001E+02 -0.33252E+06
 0.88019997E+02 -0.24149E+06
 0.88070000E+02 -0.14399E+06
 0.88119995E+02 -0.21663E+05
 0.88169998E+02  0.11723E+06
 0.88220001E+02  0.26295E+06
 0.88269997E+02  0.38968E+06
 0.88320000E+02  0.46091E+06
 0.88369995E+02  0.48827E+06
 0.88419998E+02  0.50776E+06
 0.88470001E+02  0.51691E+06
 0.88519997E+02  0.48980E+06
 0.88570000E+02  0.40998E+06
 0.88619995E+02  0.28933E+06
 0.88669998E+02  0.16293E+06
 0.88720001E+02  0.45584E+05
 0.88769997E+02 -0.53899E+05
 0.88820000E+02 -0.11179E+06
 0.88869995E+02 -0.12627E+06
 0.88919998E+02 -0.11413E+06
 0.88970001E+02 -0.78650E+05
 0.89019997E+02 -0.20077E+05
 0.89070000E+02  0.37179E+05
 0.89119995E+02  0.82424E+05
 0.89169998E+02  0.12470E+06
 0.89220001E+02  0.16818E+06
 0.89269997E+02  0.23331E+06
 0.89320000E+02  0.31584E+06
 0.89369995E+02  0.38300E+06
 0.89419998E+02  0.41699E+06
 0.89470001E+02  0.40971E+06
 0.89519997E+02  0.36310E+06
 0.89570000E+02  0.28032E+06
 0.89619995E+02  0.15551E+06
 0.89669998E+02 -0.10000E+03
 0.89720001E+02 -0.14153E+06
 0.89769997E+02 -0.24478E+06
 0.89820000E+02 -0.32422E+06
 0.89869995E+02 -0.38770E+06
 0.89919998E+02 -0.43984E+06
 0.89970001E+02 -0.46001E+06
 0.90019997E+02 -0.41507E+06
 0.90070000E+02 -0.31834E+06
 0.90119995E+02 -0.19385E+06
 0.90169998E+02 -0.55617E+05
 0.90220001E+02  0.80155E+05
 0.90269997E+02  0.19955E+06
 0.90320000E+02  0.28523E+06
 0.90369995E+02  0.33133E+06
 0.90419998E+02  0.34279E+06
 0.90470001E+02  0.32073E+06
 0.90519997E+02  0.26815E+06
 0.90570000E+02  0.20256E+06
 0.90619995E+02  0.15526E+06
 0.90669998E+02  0.14504E+06
 0.90720001E+02  0.17353E+06
 0.90769997E+02  0.22299E+06
 0.90820000E+02  0.25286E+06
 0.90869995E+02  0.25166E+06
 0.90919998E+02  0.24646E+06
 0.90970001E+02  0.25388E+06
 0.91019997E+02  0.27431E+06
 0.91070000E+02  0.29371E+06
 0.91119995E+02  0.30422E+06
 0.91169998E+02  0.32112E+06
 0.91220001E+02  0.33921E+06
 0.91269997E+02  0.34838E+06
 0.91320000E+02  0.35902E+06
 0.91369995E+02  0.36975E+06
 0.91419998E+02  0.37209E+06
 0.91470001E+02  0.37593E+06
 0.91519997E+02  0.39846E+06
 0.91570000E+02  0.42277E+06
 0.91619995E+02  0.42246E+06
 0.91669998E+02  0.40372E+06
 0.91720001E+02  0.37495E+06
 0.91769997E+02  0.32902E+06
 0.91820000E+02  0.24759E+06
 0.91869995E+02  0.11570E+06
 0.91919998E+02 -0.39106E+05
 0.91970001E+02 -0.15396E+06
 0.92019997E+02 -0.19355E+06
 0.92070000E+02 -0.16635E+06
 0.92119995E+02 -0.98519E+05
 0.92169998E+02 -0.26246E+05
 0.92220001E+02  0.37244E+05
 0.92269997E+02  0.99509E+05
 0.92320000E+02  0.14583E+06
 0.92369995E+02  0.16427E+06
 0.92419998E+02  0.16341E+06
 0.92470001E+02  0.17116E+06
 0.92519997E+02  0.22281E+06
 0.92570000E+02  0.32450E+06
 0.92619995E+02  0.44838E+06
 0.92669998E+02  0.54102E+06
 0.92720001E+02  0.56518E+06
 0.92769997E+02  0.51854E+06
 0.92820000E+02  0.40928E+06
 0.92869995E+02  0.26268E+06
 0.92919998E+02  0.11433E+06
 0.92970001E+02 -0.15387E+05
 0.93019997E+02 -0.11670E+06
 0.93070000E+02 -0.18457E+06
 0.93119995E+02 -0.22894E+06
 0.93169998E+02 -0.26103E+06
 0.93220001E+02 -0.28969E+06
 0.93269997E+02 -0.31592E+06
 0.93320000E+02 -0.32673E+06
 0.93369995E+02 -0.32055E+06
 0.93419998E+02 -0.29406E+06
 0.93470001E+02 -0.24566E+06
 0.93519997E+02 -0.19652E+06
 0.93570000E+02 -0.15931E+06
 0.93619995E+02 -0.13552E+06
 0.93669998E+02 -0.13192E+06
 0.93720001E+02 -0.14839E+06
 0.93769997E+02 -0.17352E+06
 0.93820000E+02 -0.18725E+06
 0.93869995E+02 -0.16218E+06
 0.93919998E+02 -0.88232E+05
 0.93970001E+02  0.92020E+04
 0.94019997E+02  0.10221E+06
 0.94070000E+02  0.17305E+06
 0.94119995E+02  0.20768E+06
 0.94169998E+02  0.21301E+06
 0.94220001E+02  0.19781E+06
 0.94269997E+02  0.16396E+06
 0.94320000E+02  0.11694E+06
 0.94369995E+02  0.60907E+05
 0.94419998E+02  0.28550E+04
 0.94470001E+02 -0.57565E+05
 0.94519997E+02 -0.11360E+06
 0.94570000E+02 -0.15125E+06
 0.94619995E+02 -0.17286E+06
 0.94669998E+02 -0.17625E+06
 0.94720001E+02 -0.16301E+06
 0.94769997E+02 -0.14352E+06
 0.94820000E+02 -0.11303E+06
 0.94869995E+02 -0.62429E+05
 0.94919998E+02  0.47990E+04
 0.94970001E+02  0.65999E+05
 0.95019997E+02  0.98007E+05
 0.95070000E+02  0.85729E+05
 0.95119995E+02  0.16457E+05
 0.95169998E+02 -0.92841E+05
 0.95220001E+02 -0.20738E+06
 0.95269997E+02 -0.30747E+06
 0.95320000E+02 -0.37740E+06
 0.95369995E+02 -0.41346E+06
 0.95419998E+02 -0.42518E+06
 0.95470001E+02 -0.40864E+06
 0.95519997E+02 -0.36806E+06
 0.95570000E+02 -0.31924E+06
 0.95619995E+02 -0.25495E+06
 0.95669998E+02 -0.15931E+06
 0.95720001E+02 -0.48658E+05
 0.95769997E+02  0.35342E+05
 0.95820000E+02  0.76229E+05
 0.95869995E+02  0.74245E+05
 0.95919998E+02  0.38418E+05
 0.95970001E+02  0.20000E+01
 0.96019997E+02 -0.31894E+05
 0.96070000E+02 -0.64106E+05
 0.96119995E+02 -0.92649E+05
 0.96169998E+02 -0.11262E+06
 0.96220001E+02 -0.11465E+06
 0.96269997E+02 -0.98714E+05
 0.96320000E+02 -0.81601E+05
 0.96369995E+02 -0.75058E+05
 0.96419998E+02 -0.80457E+05
 0.96470001E+02 -0.88971E+05
 0.96519997E+02 -0.81302E+05
 0.96570000E+02 -0.63243E+05
 0.96619995E+02 -0.60041E+05
 0.96669998E+02 -0.79848E+05
 0.96720001E+02 -0.12293E+06
 0.96769997E+02 -0.16771E+06
 0.96820000E+02 -0.17771E+06
 0.96869995E+02 -0.14390E+06
 0.96919998E+02 -0.83799E+05
 0.96970001E+02 -0.28131E+05
 0.97019997E+02 -0.25050E+04
 0.97070000E+02 -0.66670E+04
 0.97119995E+02 -0.22908E+05
 0.97169998E+02 -0.42920E+05
 0.97220001E+02 -0.73355E+05
 0.97269997E+02 -0.12380E+06
 0.97320000E+02 -0.18840E+06
 0.97369995E+02 -0.24189E+06
 0.97419998E+02 -0.25931E+06
 0.97470001E+02 -0.23716E+06
 0.97519997E+02 -0.20043E+06
 0.97570000E+02 -0.16197E+06
 0.97619995E+02 -0.12051E+06
 0.97669998E+02 -0.92907E+05
 0.97720001E+02 -0.94609E+05
 0.97769997E+02 -0.12814E+06
 0.97820000E+02 -0.18890E+06
 0.97869995E+02 -0.25912E+06
 0.97919998E+02 -0.31563E+06
 0.97970001E+02 -0.34621E+06
 0.98019997E+02 -0.34203E+06
