-0.20000000E+01 -0.12239E+05
-0.19500000E+01 -0.89873E+04
-0.19000000E+01 -0.47230E+04
-0.18500000E+01  0.30973E+03
-0.18000000E+01  0.49993E+04
-0.17500000E+01  0.95919E+04
-0.17000000E+01  0.13601E+05
-0.16500001E+01  0.17405E+05
-0.16000000E+01  0.20814E+05
-0.15500000E+01  0.23640E+05
-0.15000000E+01  0.26304E+05
-0.14500000E+01  0.28755E+05
-0.14000001E+01  0.31066E+05
-0.13500000E+01  0.32245E+05
-0.13000001E+01  0.31844E+05
-0.12500000E+01  0.30198E+05
-0.12000000E+01  0.27709E+05
-0.11500001E+01  0.24285E+05
-0.11000000E+01  0.20361E+05
-0.10500001E+01  0.15699E+05
-0.10000000E+01  0.10555E+05
-0.95000005E+00  0.50660E+04
-0.90000010E+00 -0.52877E+03
-0.85000002E+00 -0.50762E+04
-0.80000007E+00 -0.88975E+04
-0.75000012E+00 -0.12441E+05
-0.70000005E+00 -0.16314E+05
-0.65000010E+00 -0.20390E+05
-0.60000014E+00 -0.23707E+05
-0.55000007E+00 -0.26396E+05
-0.50000012E+00 -0.30062E+05
-0.45000005E+00 -0.34732E+05
-0.40000010E+00 -0.38725E+05
-0.35000014E+00 -0.42094E+05
-0.30000007E+00 -0.45369E+05
-0.25000012E+00 -0.48118E+05
-0.20000005E+00 -0.49507E+05
-0.15000010E+00 -0.50145E+05
-0.10000014E+00 -0.50468E+05
-0.50000072E-01 -0.49764E+05
-0.11920929E-06 -0.47741E+05
 0.49999952E-01 -0.44836E+05
 0.99999905E-01 -0.41249E+05
 0.14999986E+00 -0.37118E+05
 0.19999981E+00 -0.32866E+05
 0.24999976E+00 -0.28048E+05
 0.29999995E+00 -0.22891E+05
 0.34999990E+00 -0.17273E+05
 0.39999986E+00 -0.11169E+05
 0.44999981E+00 -0.43185E+04
 0.49999976E+00  0.24415E+04
 0.54999995E+00  0.87004E+04
 0.59999990E+00  0.15314E+05
 0.64999986E+00  0.22052E+05
 0.69999981E+00  0.27516E+05
 0.74999976E+00  0.31717E+05
 0.79999971E+00  0.36548E+05
 0.84999990E+00  0.39765E+05
 0.89999986E+00  0.40663E+05
 0.94999981E+00  0.41028E+05
 0.99999976E+00  0.41630E+05
 0.10499997E+01  0.41649E+05
 0.10999999E+01  0.40151E+05
 0.11499999E+01  0.38271E+05
 0.11999998E+01  0.35484E+05
 0.12499998E+01  0.31083E+05
 0.12999997E+01  0.26498E+05
 0.13499999E+01  0.22695E+05
 0.13999999E+01  0.19094E+05
 0.14499998E+01  0.14778E+05
 0.14999998E+01  0.98984E+04
 0.15499997E+01  0.48084E+04
 0.15999999E+01  0.51716E+03
 0.16499999E+01 -0.25144E+04
 0.16999998E+01 -0.41390E+04
 0.17499998E+01 -0.43207E+04
 0.17999997E+01 -0.34687E+04
 0.18499997E+01 -0.16314E+04
 0.18999999E+01  0.29069E+03
 0.19499998E+01  0.32135E+04
 0.19999998E+01  0.68164E+04
 0.20499997E+01  0.93546E+04
 0.20999999E+01  0.11559E+05
 0.21499996E+01  0.14463E+05
 0.21999998E+01  0.17521E+05
 0.22499995E+01  0.19592E+05
 0.22999997E+01  0.20008E+05
 0.23499999E+01  0.18954E+05
 0.23999996E+01  0.16396E+05
 0.24499998E+01  0.12171E+05
 0.24999995E+01  0.70511E+04
 0.25499997E+01  0.24355E+04
 0.25999999E+01 -0.56136E+03
 0.26499996E+01 -0.31910E+04
 0.26999998E+01 -0.68567E+04
 0.27499995E+01 -0.10183E+05
 0.27999997E+01 -0.12553E+05
 0.28499999E+01 -0.14783E+05
 0.28999996E+01 -0.16766E+05
 0.29499998E+01 -0.17683E+05
 0.29999995E+01 -0.17640E+05
 0.30499997E+01 -0.17598E+05
 0.30999999E+01 -0.17598E+05
 0.31499996E+01 -0.17109E+05
 0.31999998E+01 -0.16111E+05
 0.32499995E+01 -0.15666E+05
 0.32999997E+01 -0.15173E+05
 0.33499999E+01 -0.13410E+05
 0.33999996E+01 -0.11296E+05
 0.34499998E+01 -0.96128E+04
 0.34999995E+01 -0.77831E+04
 0.35499997E+01 -0.63763E+04
 0.35999994E+01 -0.66380E+04
 0.36499996E+01 -0.78313E+04
 0.36999998E+01 -0.89709E+04
 0.37499995E+01 -0.10211E+05
 0.37999997E+01 -0.11234E+05
 0.38499994E+01 -0.11905E+05
 0.38999996E+01 -0.13013E+05
 0.39499998E+01 -0.14181E+05
 0.39999995E+01 -0.15438E+05
 0.40499997E+01 -0.16858E+05
 0.40999994E+01 -0.18054E+05
 0.41499996E+01 -0.18334E+05
 0.41999998E+01 -0.17800E+05
 0.42499995E+01 -0.17186E+05
 0.42999997E+01 -0.16644E+05
 0.43499994E+01 -0.16306E+05
 0.43999996E+01 -0.15855E+05
 0.44499998E+01 -0.14355E+05
 0.44999995E+01 -0.12092E+05
 0.45499997E+01 -0.10378E+05
 0.45999994E+01 -0.88576E+04
 0.46499996E+01 -0.83722E+04
 0.46999998E+01 -0.85946E+04
 0.47499995E+01 -0.82032E+04
 0.47999997E+01 -0.70564E+04
 0.48499994E+01 -0.51433E+04
 0.48999996E+01 -0.20410E+04
 0.49499998E+01  0.20529E+04
 0.49999995E+01  0.55671E+04
 0.50499997E+01  0.74262E+04
 0.50999994E+01  0.80440E+04
 0.51499996E+01  0.82560E+04
 0.51999998E+01  0.84541E+04
 0.52499995E+01  0.88304E+04
 0.52999997E+01  0.90725E+04
 0.53499994E+01  0.95342E+04
 0.53999996E+01  0.10189E+05
 0.54499993E+01  0.10474E+05
 0.54999995E+01  0.11205E+05
 0.55499997E+01  0.13471E+05
 0.55999994E+01  0.15929E+05
 0.56499996E+01  0.17644E+05
 0.56999993E+01  0.19164E+05
 0.57499995E+01  0.21089E+05
 0.57999997E+01  0.22710E+05
 0.58499994E+01  0.23393E+05
 0.58999996E+01  0.23614E+05
 0.59499993E+01  0.23467E+05
 0.59999995E+01  0.23235E+05
 0.60499992E+01  0.22211E+05
 0.60999994E+01  0.21300E+05
 0.61499996E+01  0.20751E+05
 0.61999998E+01  0.19853E+05
 0.62499990E+01  0.17983E+05
 0.62999992E+01  0.15212E+05
 0.63499994E+01  0.13910E+05
 0.63999996E+01  0.12789E+05
 0.64499998E+01  0.10997E+05
 0.64999990E+01  0.99403E+04
 0.65499992E+01  0.91318E+04
 0.65999994E+01  0.79555E+04
 0.66499996E+01  0.76942E+04
 0.66999998E+01  0.85179E+04
 0.67499990E+01  0.86972E+04
 0.67999992E+01  0.78154E+04
 0.68499994E+01  0.66946E+04
 0.68999996E+01  0.58580E+04
 0.69499998E+01  0.43178E+04
 0.69999990E+01  0.18466E+04
 0.70499992E+01 -0.11384E+04
 0.70999994E+01 -0.51478E+04
 0.71499996E+01 -0.99751E+04
 0.71999998E+01 -0.14908E+05
 0.72499990E+01 -0.19113E+05
 0.72999992E+01 -0.22120E+05
 0.73499994E+01 -0.25412E+05
 0.73999996E+01 -0.28852E+05
 0.74499998E+01 -0.31123E+05
 0.74999990E+01 -0.32229E+05
 0.75499992E+01 -0.32641E+05
 0.75999994E+01 -0.31191E+05
 0.76499996E+01 -0.27781E+05
 0.76999998E+01 -0.24398E+05
 0.77499990E+01 -0.20411E+05
 0.77999992E+01 -0.15460E+05
 0.78499994E+01 -0.10746E+05
 0.78999996E+01 -0.69189E+04
 0.79499998E+01 -0.38825E+04
 0.79999990E+01 -0.13573E+04
 0.80499992E+01  0.16670E+04
 0.80999994E+01  0.48951E+04
 0.81499996E+01  0.73274E+04
 0.81999998E+01  0.90615E+04
 0.82499990E+01  0.10978E+05
 0.82999992E+01  0.14057E+05
 0.83499994E+01  0.16575E+05
 0.83999996E+01  0.17547E+05
 0.84499998E+01  0.18259E+05
 0.84999990E+01  0.18586E+05
 0.85499992E+01  0.17391E+05
 0.85999994E+01  0.16183E+05
 0.86499996E+01  0.15836E+05
 0.86999998E+01  0.14924E+05
 0.87499990E+01  0.13225E+05
 0.87999992E+01  0.11465E+05
 0.88499994E+01  0.99614E+04
 0.88999996E+01  0.85456E+04
 0.89499998E+01  0.64528E+04
 0.89999990E+01  0.39781E+04
 0.90499992E+01  0.18812E+04
 0.90999994E+01 -0.59024E+03
 0.91499996E+01 -0.30868E+04
 0.91999989E+01 -0.49500E+04
 0.92499990E+01 -0.68010E+04
 0.92999992E+01 -0.97598E+04
 0.93499994E+01 -0.12926E+05
 0.93999996E+01 -0.15601E+05
 0.94499989E+01 -0.18250E+05
 0.94999990E+01 -0.20981E+05
 0.95499992E+01 -0.23089E+05
 0.95999994E+01 -0.24362E+05
 0.96499996E+01 -0.24638E+05
 0.96999989E+01 -0.23787E+05
 0.97499990E+01 -0.22480E+05
 0.97999992E+01 -0.20418E+05
 0.98499994E+01 -0.19150E+05
 0.98999996E+01 -0.17945E+05
 0.99499989E+01 -0.15836E+05
 0.99999990E+01 -0.13886E+05
 0.10049999E+02 -0.11944E+05
 0.10099999E+02 -0.94959E+04
 0.10150000E+02 -0.61986E+04
 0.10199999E+02 -0.27035E+04
 0.10249999E+02  0.71030E+03
 0.10299999E+02  0.29441E+04
 0.10349999E+02  0.44975E+04
 0.10400000E+02  0.58078E+04
 0.10449999E+02  0.65207E+04
 0.10499999E+02  0.70431E+04
 0.10549999E+02  0.74663E+04
 0.10599999E+02  0.73435E+04
 0.10650000E+02  0.60581E+04
 0.10699999E+02  0.43158E+04
 0.10749999E+02  0.25278E+04
 0.10799999E+02  0.89540E+03
 0.10849999E+02 -0.15619E+04
 0.10900000E+02 -0.42406E+04
 0.10949999E+02 -0.62340E+04
 0.10999999E+02 -0.78468E+04
 0.11049999E+02 -0.91434E+04
 0.11099999E+02 -0.10891E+05
 0.11150000E+02 -0.12301E+05
 0.11199999E+02 -0.13753E+05
 0.11249999E+02 -0.15426E+05
 0.11299999E+02 -0.15942E+05
 0.11349999E+02 -0.15042E+05
 0.11400000E+02 -0.13752E+05
 0.11449999E+02 -0.12624E+05
 0.11499999E+02 -0.10845E+05
 0.11549999E+02 -0.83382E+04
 0.11599999E+02 -0.57195E+04
 0.11650000E+02 -0.37068E+04
 0.11699999E+02 -0.21485E+04
 0.11749999E+02 -0.23176E+03
 0.11799999E+02  0.20048E+04
 0.11849999E+02  0.40651E+04
 0.11900000E+02  0.56995E+04
 0.11949999E+02  0.80288E+04
 0.11999999E+02  0.11550E+05
 0.12049999E+02  0.14670E+05
 0.12099999E+02  0.16875E+05
 0.12150000E+02  0.19385E+05
 0.12199999E+02  0.22056E+05
 0.12249999E+02  0.24261E+05
 0.12299999E+02  0.25914E+05
 0.12349999E+02  0.26197E+05
 0.12400000E+02  0.25651E+05
 0.12449999E+02  0.24434E+05
 0.12499999E+02  0.23210E+05
 0.12549999E+02  0.21794E+05
 0.12599999E+02  0.19249E+05
 0.12649999E+02  0.16331E+05
 0.12699999E+02  0.13693E+05
 0.12749999E+02  0.11451E+05
 0.12799999E+02  0.93117E+04
 0.12849999E+02  0.79952E+04
 0.12899999E+02  0.70715E+04
 0.12949999E+02  0.55925E+04
 0.12999999E+02  0.34483E+04
 0.13049999E+02  0.16739E+04
 0.13099999E+02  0.13856E+04
 0.13149999E+02  0.22612E+04
 0.13199999E+02  0.36961E+04
 0.13249999E+02  0.51442E+04
 0.13299999E+02  0.64834E+04
 0.13349999E+02  0.71932E+04
 0.13399999E+02  0.78497E+04
 0.13449999E+02  0.94280E+04
 0.13499999E+02  0.11468E+05
 0.13549999E+02  0.12473E+05
 0.13599999E+02  0.12086E+05
 0.13649999E+02  0.11658E+05
 0.13699999E+02  0.11224E+05
 0.13749999E+02  0.92092E+04
 0.13799999E+02  0.62940E+04
 0.13849999E+02  0.40246E+04
 0.13899999E+02  0.14400E+04
 0.13949999E+02 -0.14923E+04
 0.13999999E+02 -0.37625E+04
 0.14049999E+02 -0.50728E+04
 0.14099998E+02 -0.57626E+04
 0.14150000E+02 -0.57359E+04
 0.14199999E+02 -0.49836E+04
 0.14249998E+02 -0.35498E+04
 0.14299999E+02 -0.18526E+04
 0.14349998E+02 -0.53919E+03
 0.14400000E+02  0.38407E+03
 0.14449999E+02  0.96638E+03
 0.14499998E+02  0.16573E+04
 0.14549999E+02  0.21908E+04
 0.14599998E+02  0.20621E+04
 0.14650000E+02  0.12869E+04
 0.14699999E+02  0.39350E+03
 0.14749998E+02 -0.27852E+03
 0.14799999E+02 -0.14787E+04
 0.14849998E+02 -0.26969E+04
 0.14900000E+02 -0.38841E+04
 0.14949999E+02 -0.62757E+04
 0.14999998E+02 -0.97140E+04
 0.15049999E+02 -0.13640E+05
 0.15099998E+02 -0.17590E+05
 0.15150000E+02 -0.20904E+05
 0.15199999E+02 -0.23739E+05
 0.15249998E+02 -0.26420E+05
 0.15299999E+02 -0.27579E+05
 0.15349998E+02 -0.27241E+05
 0.15400000E+02 -0.27122E+05
 0.15449999E+02 -0.26142E+05
 0.15499998E+02 -0.23663E+05
 0.15549999E+02 -0.20850E+05
 0.15599998E+02 -0.17120E+05
 0.15650000E+02 -0.12099E+05
 0.15699999E+02 -0.64196E+04
 0.15749998E+02 -0.13018E+04
 0.15799999E+02  0.29680E+04
 0.15849998E+02  0.72875E+04
 0.15900000E+02  0.11536E+05
 0.15949999E+02  0.14839E+05
 0.15999998E+02  0.17016E+05
 0.16049999E+02  0.18075E+05
 0.16099998E+02  0.18198E+05
 0.16150000E+02  0.18349E+05
 0.16199999E+02  0.18513E+05
 0.16249998E+02  0.17986E+05
 0.16299999E+02  0.17170E+05
 0.16349998E+02  0.16704E+05
 0.16400000E+02  0.15920E+05
 0.16449999E+02  0.14401E+05
 0.16499998E+02  0.12319E+05
 0.16549999E+02  0.10082E+05
 0.16599998E+02  0.79162E+04
 0.16650000E+02  0.52276E+04
 0.16699999E+02  0.22057E+04
 0.16749998E+02 -0.24181E+03
 0.16799999E+02 -0.20736E+04
 0.16849998E+02 -0.34118E+04
 0.16900000E+02 -0.39379E+04
 0.16949999E+02 -0.39075E+04
 0.16999998E+02 -0.39598E+04
 0.17049999E+02 -0.43152E+04
 0.17099998E+02 -0.45466E+04
 0.17150000E+02 -0.47372E+04
 0.17199999E+02 -0.50885E+04
 0.17249998E+02 -0.60245E+04
 0.17299999E+02 -0.77241E+04
 0.17349998E+02 -0.93472E+04
 0.17400000E+02 -0.10757E+05
 0.17449999E+02 -0.12028E+05
 0.17499998E+02 -0.13258E+05
 0.17549999E+02 -0.14524E+05
 0.17599998E+02 -0.15549E+05
 0.17650000E+02 -0.16227E+05
 0.17699999E+02 -0.16792E+05
 0.17749998E+02 -0.17722E+05
 0.17799999E+02 -0.17713E+05
 0.17849998E+02 -0.16571E+05
 0.17900000E+02 -0.15264E+05
 0.17949999E+02 -0.13001E+05
 0.17999998E+02 -0.98252E+04
 0.18049999E+02 -0.65202E+04
 0.18099998E+02 -0.31239E+04
 0.18150000E+02  0.45699E+03
 0.18199999E+02  0.38698E+04
 0.18249998E+02  0.69343E+04
 0.18299999E+02  0.94839E+04
 0.18349998E+02  0.11862E+05
 0.18400000E+02  0.14426E+05
 0.18449999E+02  0.16453E+05
 0.18499998E+02  0.17969E+05
 0.18549999E+02  0.20015E+05
 0.18599998E+02  0.21791E+05
 0.18650000E+02  0.22397E+05
 0.18699999E+02  0.22414E+05
 0.18749998E+02  0.22643E+05
 0.18799999E+02  0.21896E+05
 0.18849998E+02  0.19407E+05
 0.18900000E+02  0.16192E+05
 0.18949999E+02  0.13055E+05
 0.18999998E+02  0.10165E+05
 0.19049999E+02  0.68201E+04
 0.19099998E+02  0.35506E+04
 0.19150000E+02  0.84467E+03
 0.19199999E+02 -0.10218E+04
 0.19249998E+02 -0.20092E+04
 0.19299999E+02 -0.24387E+04
 0.19349998E+02 -0.23304E+04
 0.19400000E+02 -0.21378E+04
 0.19449999E+02 -0.20729E+04
 0.19499998E+02 -0.17473E+04
 0.19549999E+02 -0.11470E+04
 0.19599998E+02 -0.52226E+03
 0.19650000E+02 -0.32944E+03
 0.19699999E+02 -0.12863E+04
 0.19749998E+02 -0.31902E+04
 0.19799999E+02 -0.47756E+04
 0.19849998E+02 -0.57687E+04
 0.19900000E+02 -0.65370E+04
 0.19949999E+02 -0.70753E+04
 0.19999998E+02 -0.71286E+04
 0.20049999E+02 -0.69573E+04
 0.20099998E+02 -0.67889E+04
 0.20150000E+02 -0.60922E+04
 0.20199999E+02 -0.44786E+04
 0.20249998E+02 -0.32481E+04
 0.20299999E+02 -0.27011E+04
 0.20349998E+02 -0.19658E+04
 0.20399998E+02 -0.12270E+04
 0.20449999E+02 -0.86231E+03
 0.20499998E+02 -0.61588E+03
 0.20549999E+02 -0.94921E+03
 0.20599998E+02 -0.29630E+03
 0.20649998E+02 -0.12465E+03
 0.20699999E+02 -0.17672E+04
 0.20749998E+02 -0.42407E+04
 0.20799999E+02 -0.42524E+04
 0.20849998E+02 -0.26867E+04
 0.20899998E+02 -0.92311E+04
 0.20949999E+02 -0.13029E+05
 0.20999998E+02 -0.14197E+05
 0.21049999E+02 -0.20188E+05
 0.21099998E+02 -0.28006E+05
 0.21149998E+02 -0.34603E+05
 0.21199999E+02 -0.42157E+05
 0.21249998E+02 -0.49375E+05
 0.21299999E+02 -0.57593E+05
 0.21349998E+02 -0.63000E+05
 0.21399998E+02 -0.67645E+05
 0.21449999E+02 -0.77622E+05
 0.21499998E+02 -0.76817E+05
 0.21549999E+02 -0.65487E+05
 0.21599998E+02 -0.61467E+05
 0.21649998E+02 -0.64562E+05
 0.21699999E+02 -0.54261E+05
 0.21749998E+02 -0.38019E+05
 0.21799999E+02 -0.30403E+05
 0.21849998E+02 -0.28521E+05
 0.21899998E+02 -0.22657E+05
 0.21949999E+02 -0.14664E+05
 0.21999998E+02 -0.78654E+04
 0.22049999E+02 -0.72436E+04
 0.22099998E+02 -0.72375E+04
 0.22149998E+02 -0.24513E+04
 0.22199999E+02 -0.70781E+04
 0.22249998E+02 -0.51033E+04
 0.22299999E+02  0.60005E+03
 0.22349998E+02 -0.18494E+04
 0.22399998E+02 -0.64224E+04
 0.22449999E+02 -0.77335E+04
 0.22499998E+02 -0.48521E+04
 0.22549999E+02  0.12897E+04
 0.22599998E+02  0.39218E+03
 0.22649998E+02  0.28945E+03
 0.22699999E+02  0.75514E+04
 0.22749998E+02  0.73466E+04
 0.22799999E+02  0.52076E+04
 0.22849998E+02  0.18265E+04
 0.22899998E+02 -0.26901E+04
 0.22949999E+02 -0.43641E+04
 0.22999998E+02  0.20170E+04
 0.23049999E+02 -0.24709E+04
 0.23099998E+02 -0.48838E+04
 0.23149998E+02 -0.24032E+04
 0.23199999E+02 -0.32526E+04
 0.23249998E+02  0.65087E+04
 0.23299999E+02  0.13915E+05
 0.23349998E+02  0.57660E+04
 0.23399998E+02  0.12401E+05
 0.23449999E+02  0.22206E+05
 0.23499998E+02  0.12024E+05
 0.23549999E+02  0.13209E+05
 0.23599998E+02  0.18414E+05
 0.23649998E+02  0.96526E+04
 0.23699999E+02 -0.38985E+04
 0.23749998E+02 -0.84130E+04
 0.23799999E+02 -0.27302E+04
 0.23849998E+02 -0.12338E+05
 0.23899998E+02 -0.24985E+05
 0.23949999E+02 -0.22801E+05
 0.23999998E+02 -0.14526E+05
 0.24049999E+02 -0.69956E+04
 0.24099998E+02 -0.75756E+03
 0.24149998E+02  0.10277E+05
 0.24199999E+02  0.14203E+05
 0.24249998E+02  0.69718E+04
 0.24299999E+02  0.20373E+05
 0.24349998E+02  0.36356E+05
 0.24399998E+02  0.11474E+05
 0.24449999E+02 -0.29056E+04
 0.24499998E+02 -0.28428E+04
 0.24549999E+02 -0.62271E+04
 0.24599998E+02 -0.15529E+05
 0.24649998E+02 -0.11413E+05
 0.24699999E+02  0.47025E+04
 0.24749998E+02  0.81181E+04
 0.24799999E+02  0.17282E+05
 0.24849998E+02  0.41721E+05
 0.24899998E+02  0.58408E+05
 0.24949999E+02  0.50277E+05
 0.24999998E+02  0.43033E+05
 0.25049999E+02  0.48118E+05
 0.25099998E+02  0.73005E+05
 0.25149998E+02  0.82265E+05
 0.25199999E+02  0.60634E+05
 0.25249998E+02  0.49551E+05
 0.25299999E+02  0.80191E+05
 0.25349998E+02  0.11741E+06
 0.25399998E+02  0.95195E+05
 0.25449999E+02  0.44000E+05
 0.25499998E+02  0.42774E+05
 0.25549999E+02  0.68595E+05
 0.25599998E+02  0.41701E+05
 0.25649998E+02 -0.84024E+04
 0.25699999E+02 -0.28819E+05
 0.25749998E+02 -0.23151E+05
 0.25799999E+02 -0.27369E+05
 0.25849998E+02 -0.45000E+05
 0.25899998E+02 -0.58341E+05
 0.25949999E+02 -0.49617E+05
 0.25999998E+02 -0.25164E+05
 0.26049999E+02  0.41294E+03
 0.26099998E+02  0.18616E+05
 0.26149998E+02  0.22678E+05
 0.26199999E+02  0.34232E+05
 0.26249998E+02  0.48428E+05
 0.26299999E+02  0.40657E+05
 0.26349998E+02  0.30943E+05
 0.26399998E+02  0.33032E+05
 0.26449999E+02  0.24768E+05
 0.26499998E+02  0.30316E+05
 0.26549999E+02  0.31272E+05
 0.26599998E+02  0.36435E+05
 0.26649998E+02  0.58361E+05
 0.26699999E+02  0.50029E+05
 0.26749998E+02  0.24312E+05
 0.26799999E+02  0.31417E+05
 0.26849998E+02  0.44409E+05
 0.26899998E+02  0.22186E+05
 0.26949999E+02 -0.79153E+04
 0.26999998E+02 -0.89109E+04
 0.27049997E+02  0.12197E+05
 0.27099998E+02 -0.19429E+04
 0.27149998E+02 -0.25337E+05
 0.27199999E+02 -0.39306E+05
 0.27249998E+02 -0.29605E+05
 0.27299997E+02 -0.66964E+04
 0.27349998E+02 -0.32306E+04
 0.27399998E+02 -0.17716E+05
 0.27449999E+02 -0.13855E+05
 0.27499998E+02  0.34668E+05
 0.27549997E+02  0.52549E+05
 0.27599998E+02  0.15447E+05
 0.27649998E+02 -0.45926E+04
 0.27699999E+02 -0.27836E+04
 0.27749998E+02 -0.22673E+05
 0.27799997E+02 -0.38254E+05
 0.27849998E+02 -0.30022E+05
 0.27899998E+02 -0.26588E+05
 0.27949999E+02 -0.36931E+05
 0.27999998E+02 -0.34565E+05
 0.28049997E+02 -0.16079E+05
 0.28099998E+02 -0.17766E+05
 0.28149998E+02 -0.52270E+05
 0.28199999E+02 -0.55617E+05
 0.28249998E+02 -0.32343E+05
 0.28299997E+02 -0.15860E+05
 0.28349998E+02  0.37397E+04
 0.28399998E+02  0.14083E+05
 0.28449999E+02  0.27756E+04
 0.28499998E+02  0.64943E+04
 0.28549997E+02  0.12123E+05
 0.28599998E+02  0.14866E+05
 0.28649998E+02  0.28824E+05
 0.28699999E+02  0.22389E+04
 0.28749998E+02 -0.15925E+05
 0.28799997E+02 -0.10309E+05
 0.28849998E+02 -0.80448E+04
 0.28899998E+02 -0.62039E+04
 0.28949999E+02 -0.32218E+05
 0.28999998E+02 -0.53526E+05
 0.29049997E+02 -0.41199E+05
 0.29099998E+02 -0.37148E+04
 0.29149998E+02  0.17853E+04
 0.29199999E+02 -0.24866E+05
 0.29249998E+02  0.96011E+04
 0.29299997E+02  0.58453E+05
 0.29349998E+02  0.51692E+05
 0.29399998E+02  0.32067E+05
 0.29449999E+02  0.32921E+05
 0.29499998E+02  0.55125E+05
 0.29549997E+02  0.73061E+05
 0.29599998E+02  0.71104E+05
 0.29649998E+02  0.66454E+05
 0.29699999E+02  0.66661E+05
 0.29749998E+02  0.96108E+05
 0.29799997E+02  0.12423E+06
 0.29849998E+02  0.95765E+05
 0.29899998E+02  0.79949E+05
 0.29949999E+02  0.82024E+05
 0.29999998E+02  0.57200E+05
 0.30049999E+02  0.40088E+05
 0.30099998E+02  0.50976E+05
 0.30149998E+02  0.61637E+05
 0.30199997E+02  0.43165E+05
 0.30249996E+02  0.43711E+05
 0.30299999E+02  0.59561E+05
 0.30349998E+02  0.53135E+05
 0.30399998E+02  0.46565E+05
 0.30449997E+02  0.40755E+05
 0.30499996E+02  0.52480E+05
 0.30549999E+02  0.52879E+05
 0.30599998E+02  0.20940E+05
 0.30649998E+02  0.98321E+04
 0.30699997E+02  0.10990E+05
 0.30749996E+02 -0.10310E+05
 0.30799999E+02 -0.19459E+05
 0.30849998E+02  0.76300E+04
 0.30899998E+02  0.31329E+05
 0.30949997E+02  0.50814E+05
 0.30999996E+02  0.61044E+05
 0.31049999E+02  0.45650E+05
 0.31099998E+02  0.39153E+05
 0.31149998E+02  0.41162E+05
 0.31199997E+02  0.79546E+04
 0.31249996E+02 -0.50853E+05
 0.31299999E+02 -0.66382E+05
 0.31349998E+02 -0.11159E+05
 0.31399998E+02 -0.44251E+04
 0.31449997E+02 -0.46230E+05
 0.31499996E+02 -0.35961E+05
 0.31549999E+02  0.26074E+05
 0.31599998E+02  0.68239E+05
 0.31649998E+02  0.55348E+05
 0.31699997E+02  0.54396E+05
 0.31749996E+02  0.85716E+05
 0.31799999E+02  0.10445E+06
 0.31849998E+02  0.70819E+05
 0.31899998E+02  0.29205E+05
 0.31949997E+02 -0.42154E+04
 0.31999996E+02 -0.25473E+05
 0.32049999E+02 -0.38467E+05
 0.32099998E+02 -0.27570E+05
 0.32149998E+02 -0.36607E+05
 0.32199997E+02 -0.65060E+05
 0.32249996E+02 -0.43134E+05
 0.32299999E+02  0.20646E+04
 0.32349998E+02  0.21705E+05
 0.32399998E+02  0.10635E+05
 0.32449997E+02 -0.37483E+04
 0.32499996E+02 -0.13546E+03
 0.32549999E+02  0.13492E+05
 0.32599998E+02  0.23568E+05
 0.32649998E+02  0.52693E+05
 0.32699997E+02  0.50457E+05
 0.32749996E+02  0.44197E+05
 0.32799999E+02  0.49972E+05
 0.32849998E+02  0.24610E+05
 0.32899998E+02 -0.15455E+05
 0.32949997E+02 -0.33291E+05
 0.32999996E+02 -0.24380E+05
 0.33049999E+02 -0.12476E+03
 0.33099998E+02 -0.83091E+04
 0.33149998E+02 -0.36007E+05
 0.33199997E+02 -0.41089E+05
 0.33249996E+02 -0.35792E+05
 0.33299999E+02 -0.41299E+05
 0.33349998E+02 -0.51840E+05
 0.33399998E+02 -0.52102E+05
 0.33449997E+02 -0.72213E+05
 0.33499996E+02 -0.10636E+06
 0.33549999E+02 -0.12094E+06
 0.33599998E+02 -0.11846E+06
 0.33649998E+02 -0.11295E+06
 0.33699997E+02 -0.83140E+05
 0.33749996E+02 -0.54173E+05
 0.33799999E+02 -0.19514E+05
 0.33849998E+02  0.19529E+05
 0.33899998E+02  0.43165E+05
 0.33949997E+02  0.57958E+05
 0.33999996E+02  0.58278E+05
 0.34049999E+02  0.64430E+05
 0.34099998E+02  0.66431E+05
 0.34149998E+02  0.46453E+05
 0.34199997E+02  0.29966E+05
 0.34249996E+02  0.32874E+05
 0.34299999E+02  0.56708E+05
 0.34349998E+02  0.86108E+05
 0.34399998E+02  0.98901E+05
 0.34449997E+02  0.10732E+06
 0.34499996E+02  0.12342E+06
 0.34549999E+02  0.12287E+06
 0.34599998E+02  0.10828E+06
 0.34649998E+02  0.90808E+05
 0.34699997E+02  0.68111E+05
 0.34749996E+02  0.40387E+05
 0.34799999E+02  0.32844E+05
 0.34849998E+02  0.38809E+05
 0.34899998E+02  0.36985E+05
 0.34949997E+02  0.33634E+05
 0.34999996E+02  0.30386E+05
 0.35049999E+02  0.29960E+05
 0.35099998E+02  0.21303E+05
 0.35149998E+02  0.44988E+04
 0.35199997E+02 -0.10618E+05
 0.35249996E+02 -0.22274E+05
 0.35299999E+02 -0.28010E+05
 0.35349998E+02 -0.42963E+05
 0.35399998E+02 -0.63544E+05
 0.35449997E+02 -0.89594E+05
 0.35499996E+02 -0.83844E+05
 0.35549999E+02 -0.62917E+05
 0.35599998E+02 -0.59823E+05
 0.35649998E+02 -0.37623E+05
 0.35699997E+02 -0.30202E+04
 0.35749996E+02  0.19436E+05
 0.35799999E+02  0.40180E+03
 0.35849998E+02 -0.10861E+05
 0.35899998E+02 -0.82654E+04
 0.35949997E+02 -0.74989E+03
 0.35999996E+02  0.36253E+03
 0.36049999E+02 -0.13218E+05
 0.36099998E+02 -0.13158E+05
 0.36149998E+02  0.67407E+03
 0.36199997E+02 -0.94144E+04
 0.36249996E+02 -0.31776E+05
 0.36299999E+02 -0.51809E+05
 0.36349998E+02 -0.85248E+05
 0.36399998E+02 -0.11103E+06
 0.36449997E+02 -0.12769E+06
 0.36499996E+02 -0.16191E+06
 0.36549999E+02 -0.18019E+06
 0.36599998E+02 -0.14971E+06
 0.36649998E+02 -0.11410E+06
 0.36699997E+02 -0.10456E+06
 0.36749996E+02 -0.71309E+05
 0.36799999E+02 -0.37822E+04
 0.36849998E+02  0.47032E+05
 0.36899998E+02  0.72688E+05
 0.36949997E+02  0.72056E+05
 0.36999996E+02  0.45084E+05
 0.37049999E+02 -0.30387E+04
 0.37099998E+02 -0.27606E+05
 0.37149998E+02 -0.53228E+05
 0.37199997E+02 -0.94273E+05
 0.37249996E+02 -0.13436E+06
 0.37299999E+02 -0.15534E+06
 0.37349998E+02 -0.17644E+06
 0.37399998E+02 -0.19924E+06
 0.37449997E+02 -0.19943E+06
 0.37499996E+02 -0.18206E+06
 0.37549999E+02 -0.14894E+06
 0.37599998E+02 -0.11972E+06
 0.37649998E+02 -0.10660E+06
 0.37699997E+02 -0.98732E+05
 0.37749996E+02 -0.77506E+05
 0.37799999E+02 -0.66902E+05
 0.37849998E+02 -0.95871E+05
 0.37899998E+02 -0.14730E+06
 0.37949997E+02 -0.16774E+06
 0.37999996E+02 -0.19513E+06
 0.38049999E+02 -0.22675E+06
 0.38099998E+02 -0.24304E+06
 0.38149998E+02 -0.21660E+06
 0.38199997E+02 -0.18087E+06
 0.38249996E+02 -0.21117E+06
 0.38299999E+02 -0.22408E+06
 0.38349998E+02 -0.19504E+06
 0.38399998E+02 -0.15419E+06
 0.38449997E+02 -0.14035E+06
 0.38499996E+02 -0.15973E+06
 0.38549999E+02 -0.16724E+06
 0.38599998E+02 -0.15288E+06
 0.38649998E+02 -0.11741E+06
 0.38699997E+02 -0.89684E+05
 0.38749996E+02 -0.80797E+05
 0.38799999E+02 -0.59478E+05
 0.38849998E+02 -0.39601E+05
 0.38899998E+02 -0.44342E+05
 0.38949997E+02 -0.56629E+05
 0.38999996E+02 -0.85143E+05
 0.39049999E+02 -0.11932E+06
 0.39099998E+02 -0.14090E+06
 0.39149998E+02 -0.14555E+06
 0.39199997E+02 -0.13536E+06
 0.39249996E+02 -0.14858E+06
 0.39299999E+02 -0.17728E+06
 0.39349998E+02 -0.19093E+06
 0.39399998E+02 -0.15335E+06
 0.39449997E+02 -0.11275E+06
 0.39499996E+02 -0.12453E+06
 0.39549999E+02 -0.13121E+06
 0.39599998E+02 -0.12765E+06
 0.39649998E+02 -0.13811E+06
 0.39699997E+02 -0.15968E+06
 0.39749996E+02 -0.16648E+06
 0.39799999E+02 -0.13724E+06
 0.39849998E+02 -0.78184E+05
 0.39899998E+02 -0.21434E+05
 0.39949997E+02 -0.24682E+04
 0.39999996E+02  0.23660E+04
 0.40049999E+02  0.34043E+05
 0.40099998E+02  0.79567E+05
 0.40149998E+02  0.81450E+05
 0.40199997E+02  0.33713E+05
 0.40249996E+02  0.38991E+04
 0.40299999E+02  0.36911E+05
 0.40349998E+02  0.63933E+05
 0.40399998E+02  0.56674E+05
 0.40449997E+02  0.60178E+05
 0.40499996E+02  0.72600E+05
 0.40549999E+02  0.11110E+06
 0.40599998E+02  0.14869E+06
 0.40649998E+02  0.16707E+06
 0.40699997E+02  0.14350E+06
 0.40749996E+02  0.12279E+06
 0.40799999E+02  0.14401E+06
 0.40849998E+02  0.13986E+06
 0.40899998E+02  0.12942E+06
 0.40949997E+02  0.10373E+06
 0.40999996E+02  0.10044E+06
 0.41049999E+02  0.96526E+05
 0.41099998E+02  0.68027E+05
 0.41149998E+02  0.44022E+05
 0.41199997E+02  0.19193E+05
 0.41249996E+02 -0.64063E+04
 0.41299999E+02 -0.95088E+03
 0.41349998E+02  0.13012E+05
 0.41399998E+02  0.42755E+05
 0.41449997E+02  0.82472E+05
 0.41499996E+02  0.77259E+05
 0.41549999E+02  0.97732E+05
 0.41599998E+02  0.14356E+06
 0.41649998E+02  0.20496E+06
 0.41699997E+02  0.23791E+06
 0.41749996E+02  0.25837E+06
 0.41799999E+02  0.28179E+06
 0.41849998E+02  0.29336E+06
 0.41899998E+02  0.30075E+06
 0.41949997E+02  0.29942E+06
 0.41999996E+02  0.25833E+06
 0.42049999E+02  0.22813E+06
 0.42099998E+02  0.22295E+06
 0.42149998E+02  0.18927E+06
 0.42199997E+02  0.14377E+06
 0.42249996E+02  0.11757E+06
 0.42299999E+02  0.11856E+06
 0.42349998E+02  0.10886E+06
 0.42399998E+02  0.12192E+06
 0.42449997E+02  0.13783E+06
 0.42499996E+02  0.10386E+06
 0.42549999E+02  0.68256E+05
 0.42599998E+02  0.55622E+05
 0.42649998E+02  0.57557E+05
 0.42699997E+02  0.93991E+05
 0.42749996E+02  0.94836E+05
 0.42799995E+02  0.10444E+06
 0.42849998E+02  0.12770E+06
 0.42899998E+02  0.10952E+06
 0.42949997E+02  0.13119E+06
 0.42999996E+02  0.17715E+06
 0.43049995E+02  0.24405E+06
 0.43099998E+02  0.30575E+06
 0.43149998E+02  0.31369E+06
 0.43199997E+02  0.29078E+06
 0.43249996E+02  0.23489E+06
 0.43299995E+02  0.18063E+06
 0.43349998E+02  0.17043E+06
 0.43399998E+02  0.20638E+06
 0.43449997E+02  0.22086E+06
 0.43499996E+02  0.18208E+06
 0.43549995E+02  0.11487E+06
 0.43599998E+02  0.53436E+05
 0.43649998E+02  0.15152E+05
 0.43699997E+02  0.11545E+05
 0.43749996E+02  0.62097E+05
 0.43799995E+02  0.10526E+06
 0.43849998E+02  0.12245E+06
 0.43899998E+02  0.86780E+05
 0.43949997E+02  0.63114E+05
 0.43999996E+02  0.10678E+06
 0.44049995E+02  0.15323E+06
 0.44099998E+02  0.20178E+06
 0.44149998E+02  0.22920E+06
 0.44199997E+02  0.22595E+06
 0.44249996E+02  0.23964E+06
 0.44299995E+02  0.23160E+06
 0.44349998E+02  0.20599E+06
 0.44399998E+02  0.20475E+06
 0.44449997E+02  0.17451E+06
 0.44499996E+02  0.12521E+06
 0.44549995E+02  0.48786E+05
 0.44599998E+02 -0.48788E+05
 0.44649998E+02 -0.11182E+06
 0.44699997E+02 -0.12716E+06
 0.44749996E+02 -0.13813E+06
 0.44799995E+02 -0.14661E+06
 0.44849998E+02 -0.11658E+06
 0.44899998E+02 -0.85773E+05
 0.44949997E+02 -0.10730E+06
 0.44999996E+02 -0.17254E+06
 0.45049995E+02 -0.20679E+06
 0.45099998E+02 -0.21633E+06
 0.45149998E+02 -0.21911E+06
 0.45199997E+02 -0.19559E+06
 0.45249996E+02 -0.12820E+06
 0.45299995E+02 -0.32489E+05
 0.45349998E+02  0.18659E+05
 0.45399998E+02  0.55283E+04
 0.45449997E+02 -0.37990E+05
 0.45499996E+02 -0.78070E+05
 0.45549995E+02 -0.99094E+05
 0.45599998E+02 -0.90814E+05
 0.45649998E+02 -0.38061E+05
 0.45699997E+02  0.49886E+05
 0.45749996E+02  0.10415E+06
 0.45799995E+02  0.71691E+05
 0.45849998E+02 -0.73437E+03
 0.45899998E+02 -0.48197E+05
 0.45949997E+02 -0.81064E+05
 0.45999996E+02 -0.96929E+05
 0.46049995E+02 -0.94558E+05
 0.46099998E+02 -0.97517E+05
 0.46149998E+02 -0.96173E+05
 0.46199997E+02 -0.10459E+06
 0.46249996E+02 -0.16143E+06
 0.46299995E+02 -0.22186E+06
 0.46349998E+02 -0.22494E+06
 0.46399998E+02 -0.16906E+06
 0.46449997E+02 -0.86075E+05
 0.46499996E+02 -0.44692E+05
 0.46549995E+02 -0.23823E+05
 0.46599998E+02 -0.12320E+05
 0.46649998E+02 -0.18723E+05
 0.46699997E+02 -0.15895E+05
 0.46749996E+02 -0.11277E+05
 0.46799995E+02 -0.23700E+05
 0.46849998E+02 -0.13934E+05
 0.46899998E+02  0.43419E+05
 0.46949997E+02  0.63163E+05
 0.46999996E+02  0.23496E+05
 0.47049995E+02 -0.22222E+05
 0.47099998E+02 -0.53824E+05
 0.47149998E+02 -0.67460E+05
 0.47199997E+02 -0.95969E+05
 0.47249996E+02 -0.12683E+06
 0.47299995E+02 -0.11801E+06
 0.47349998E+02 -0.12898E+06
 0.47399998E+02 -0.17499E+06
 0.47449997E+02 -0.23284E+06
 0.47499996E+02 -0.28320E+06
 0.47549995E+02 -0.32170E+06
 0.47599998E+02 -0.33173E+06
 0.47649998E+02 -0.29830E+06
 0.47699997E+02 -0.23520E+06
 0.47749996E+02 -0.17443E+06
 0.47799995E+02 -0.14655E+06
 0.47849998E+02 -0.10768E+06
 0.47899998E+02 -0.46197E+05
 0.47949997E+02 -0.23560E+04
 0.47999996E+02  0.10838E+05
 0.48049995E+02  0.49127E+05
 0.48099998E+02  0.10032E+06
 0.48149998E+02  0.14818E+06
 0.48199997E+02  0.19450E+06
 0.48249996E+02  0.21287E+06
 0.48299995E+02  0.23763E+06
 0.48349998E+02  0.25254E+06
 0.48399998E+02  0.21853E+06
 0.48449997E+02  0.14310E+06
 0.48499996E+02  0.10144E+06
 0.48549995E+02  0.66395E+05
 0.48599998E+02  0.18112E+05
 0.48649998E+02 -0.22457E+05
 0.48699997E+02 -0.45048E+05
 0.48749996E+02  0.23522E+04
 0.48799995E+02  0.61619E+05
 0.48849998E+02  0.12936E+06
 0.48899998E+02  0.14953E+06
 0.48949997E+02  0.12560E+06
 0.48999996E+02  0.59395E+05
 0.49049995E+02 -0.45240E+05
 0.49099998E+02 -0.10613E+06
 0.49149998E+02 -0.13180E+06
 0.49199997E+02 -0.89503E+05
 0.49249996E+02  0.16040E+04
 0.49299995E+02  0.64951E+05
 0.49349998E+02  0.80306E+05
 0.49399998E+02  0.11072E+06
 0.49449997E+02  0.14503E+06
 0.49499996E+02  0.15568E+06
 0.49549995E+02  0.16943E+06
 0.49599998E+02  0.18030E+06
 0.49649998E+02  0.19532E+06
 0.49699997E+02  0.19381E+06
 0.49749996E+02  0.12668E+06
 0.49799995E+02  0.11750E+05
 0.49849998E+02 -0.67214E+05
 0.49899998E+02 -0.10348E+06
 0.49949997E+02 -0.13347E+06
 0.49999996E+02 -0.15866E+06
 0.50049995E+02 -0.20096E+06
 0.50099998E+02 -0.25181E+06
 0.50149998E+02 -0.30208E+06
 0.50199997E+02 -0.31764E+06
 0.50249996E+02 -0.31757E+06
 0.50299995E+02 -0.31129E+06
 0.50349998E+02 -0.25994E+06
 0.50399998E+02 -0.20199E+06
 0.50449997E+02 -0.13579E+06
 0.50499996E+02 -0.87725E+05
 0.50549995E+02 -0.86308E+05
 0.50599998E+02 -0.11275E+06
 0.50649998E+02 -0.14060E+06
 0.50699997E+02 -0.14366E+06
 0.50749996E+02 -0.14753E+06
 0.50799995E+02 -0.16672E+06
 0.50849998E+02 -0.15201E+06
 0.50899998E+02 -0.10587E+06
 0.50949997E+02 -0.64159E+05
 0.50999996E+02 -0.39951E+05
 0.51049995E+02 -0.24780E+05
 0.51099998E+02  0.52071E+04
 0.51149998E+02 -0.86778E+04
 0.51199997E+02 -0.59754E+05
 0.51249996E+02 -0.11269E+06
 0.51299995E+02 -0.14557E+06
 0.51349998E+02 -0.15353E+06
 0.51399998E+02 -0.16806E+06
 0.51449997E+02 -0.15025E+06
 0.51499996E+02 -0.97733E+05
 0.51549995E+02 -0.41300E+05
 0.51599998E+02  0.89564E+04
 0.51649998E+02  0.29251E+05
 0.51699997E+02  0.22316E+05
 0.51749996E+02  0.11439E+05
 0.51799995E+02  0.18207E+04
 0.51849998E+02  0.24558E+04
 0.51899998E+02 -0.14699E+04
 0.51949997E+02 -0.27839E+05
 0.51999996E+02 -0.63629E+05
 0.52049995E+02 -0.78868E+05
 0.52099998E+02 -0.95105E+05
 0.52149998E+02 -0.14944E+06
 0.52199997E+02 -0.23599E+06
 0.52249996E+02 -0.29784E+06
 0.52299995E+02 -0.26381E+06
 0.52349998E+02 -0.13014E+06
 0.52399998E+02  0.34389E+05
 0.52449997E+02  0.16788E+06
 0.52499996E+02  0.27868E+06
 0.52549995E+02  0.34271E+06
 0.52599998E+02  0.33122E+06
 0.52649998E+02  0.27660E+06
 0.52699997E+02  0.22884E+06
 0.52749996E+02  0.21804E+06
 0.52799995E+02  0.19970E+06
 0.52849998E+02  0.14686E+06
 0.52899998E+02  0.85469E+05
 0.52949997E+02  0.32138E+05
 0.52999996E+02 -0.14889E+05
 0.53049995E+02 -0.97802E+05
 0.53099998E+02 -0.19725E+06
 0.53149998E+02 -0.26822E+06
 0.53199997E+02 -0.30927E+06
 0.53249996E+02 -0.31046E+06
 0.53299995E+02 -0.26643E+06
 0.53349998E+02 -0.20345E+06
 0.53399998E+02 -0.15313E+06
 0.53449997E+02 -0.90386E+05
 0.53499996E+02 -0.25152E+05
 0.53549995E+02 -0.74751E+04
 0.53599998E+02 -0.20725E+05
 0.53649998E+02 -0.33384E+05
 0.53699997E+02 -0.46842E+05
 0.53749996E+02 -0.66463E+05
 0.53799995E+02 -0.10537E+06
 0.53849998E+02 -0.14235E+06
 0.53899998E+02 -0.16807E+06
 0.53949997E+02 -0.20847E+06
 0.53999996E+02 -0.24462E+06
 0.54049995E+02 -0.24741E+06
 0.54099998E+02 -0.23131E+06
 0.54149998E+02 -0.21772E+06
 0.54199997E+02 -0.22504E+06
 0.54249996E+02 -0.24574E+06
 0.54299995E+02 -0.20862E+06
 0.54349998E+02 -0.12334E+06
 0.54399998E+02 -0.66278E+05
 0.54449997E+02 -0.44695E+05
 0.54499996E+02 -0.31619E+05
 0.54549995E+02 -0.30123E+05
 0.54599998E+02 -0.30698E+05
 0.54649998E+02 -0.13876E+05
 0.54699997E+02  0.33526E+05
 0.54749996E+02  0.10097E+06
 0.54799995E+02  0.12631E+06
 0.54849998E+02  0.10649E+06
 0.54899998E+02  0.65421E+05
 0.54949997E+02  0.73889E+04
 0.54999996E+02 -0.45112E+05
 0.55049995E+02 -0.88174E+05
 0.55099998E+02 -0.11550E+06
 0.55149998E+02 -0.12585E+06
 0.55199997E+02 -0.13248E+06
 0.55249996E+02 -0.12854E+06
 0.55299995E+02 -0.11845E+06
 0.55349998E+02 -0.10581E+06
 0.55399998E+02 -0.64792E+05
 0.55449997E+02  0.14477E+05
 0.55499996E+02  0.10871E+06
 0.55549995E+02  0.18849E+06
 0.55599998E+02  0.23390E+06
 0.55649998E+02  0.26259E+06
 0.55699997E+02  0.27782E+06
 0.55749996E+02  0.26989E+06
 0.55799995E+02  0.25878E+06
 0.55849995E+02  0.26368E+06
 0.55899998E+02  0.27843E+06
 0.55949997E+02  0.26604E+06
 0.55999996E+02  0.23325E+06
 0.56049995E+02  0.20316E+06
 0.56099995E+02  0.18734E+06
 0.56149998E+02  0.19467E+06
 0.56199997E+02  0.22811E+06
 0.56249996E+02  0.27133E+06
 0.56299995E+02  0.28565E+06
 0.56349995E+02  0.26108E+06
 0.56399998E+02  0.22819E+06
 0.56449997E+02  0.20636E+06
 0.56499996E+02  0.18898E+06
 0.56549995E+02  0.19581E+06
 0.56599995E+02  0.24223E+06
 0.56649998E+02  0.31474E+06
 0.56699997E+02  0.38580E+06
 0.56749996E+02  0.42878E+06
 0.56799995E+02  0.43216E+06
 0.56849995E+02  0.40319E+06
 0.56899998E+02  0.34314E+06
 0.56949997E+02  0.28402E+06
 0.56999996E+02  0.24672E+06
 0.57049995E+02  0.23347E+06
 0.57099995E+02  0.22178E+06
 0.57149998E+02  0.18121E+06
 0.57199997E+02  0.14150E+06
 0.57249996E+02  0.11161E+06
 0.57299995E+02  0.97027E+05
 0.57349995E+02  0.10436E+06
 0.57399998E+02  0.14249E+06
 0.57449997E+02  0.19217E+06
 0.57499996E+02  0.21446E+06
 0.57549995E+02  0.21798E+06
 0.57599995E+02  0.22218E+06
 0.57649998E+02  0.23005E+06
 0.57699997E+02  0.24110E+06
 0.57749996E+02  0.26723E+06
 0.57799995E+02  0.30608E+06
 0.57849995E+02  0.32695E+06
 0.57899998E+02  0.33134E+06
 0.57949997E+02  0.30747E+06
 0.57999996E+02  0.25957E+06
 0.58049995E+02  0.21739E+06
 0.58099995E+02  0.16838E+06
 0.58149998E+02  0.10316E+06
 0.58199997E+02  0.23808E+05
 0.58249996E+02 -0.50520E+05
 0.58299995E+02 -0.11543E+06
 0.58349995E+02 -0.16317E+06
 0.58399998E+02 -0.19129E+06
 0.58449997E+02 -0.18247E+06
 0.58499996E+02 -0.14318E+06
 0.58549995E+02 -0.96866E+05
 0.58599995E+02 -0.61257E+05
 0.58649998E+02 -0.46177E+05
 0.58699997E+02 -0.31019E+05
 0.58749996E+02 -0.12835E+05
 0.58799995E+02  0.19745E+05
 0.58849995E+02  0.62183E+05
 0.58899998E+02  0.10934E+06
 0.58949997E+02  0.12608E+06
 0.58999996E+02  0.10095E+06
 0.59049995E+02  0.59984E+05
 0.59099995E+02  0.77541E+04
 0.59149998E+02 -0.38793E+05
 0.59199997E+02 -0.76159E+05
 0.59249996E+02 -0.91089E+05
 0.59299995E+02 -0.82942E+05
 0.59349995E+02 -0.80386E+05
 0.59399998E+02 -0.86907E+05
 0.59449997E+02 -0.90313E+05
 0.59499996E+02 -0.96683E+05
 0.59549995E+02 -0.12791E+06
 0.59599995E+02 -0.17490E+06
 0.59649998E+02 -0.21480E+06
 0.59699997E+02 -0.24652E+06
 0.59749996E+02 -0.26770E+06
 0.59799995E+02 -0.26373E+06
 0.59849995E+02 -0.21875E+06
 0.59899998E+02 -0.13509E+06
 0.59949997E+02 -0.48279E+05
 0.59999996E+02 -0.80471E+04
 0.60049995E+02 -0.14772E+05
 0.60099995E+02 -0.29814E+05
 0.60149998E+02 -0.34017E+05
 0.60199997E+02 -0.27613E+05
 0.60249996E+02 -0.78478E+04
 0.60299995E+02  0.10202E+05
 0.60349995E+02  0.21646E+04
 0.60399998E+02 -0.19848E+05
 0.60449997E+02 -0.42266E+05
 0.60499996E+02 -0.74134E+05
 0.60549995E+02 -0.11072E+06
 0.60599995E+02 -0.12810E+06
 0.60649998E+02 -0.13329E+06
 0.60699997E+02 -0.14562E+06
 0.60749996E+02 -0.17243E+06
 0.60799995E+02 -0.20338E+06
 0.60849995E+02 -0.20688E+06
 0.60899998E+02 -0.20240E+06
 0.60949997E+02 -0.20357E+06
 0.60999996E+02 -0.18409E+06
 0.61049995E+02 -0.15065E+06
 0.61099995E+02 -0.13483E+06
 0.61149998E+02 -0.15430E+06
 0.61199997E+02 -0.18740E+06
 0.61249996E+02 -0.22130E+06
 0.61299995E+02 -0.24534E+06
 0.61349995E+02 -0.23115E+06
 0.61399998E+02 -0.18371E+06
 0.61449997E+02 -0.11250E+06
 0.61499996E+02 -0.31061E+05
 0.61549995E+02  0.39643E+05
 0.61599995E+02  0.98655E+05
 0.61649998E+02  0.15004E+06
 0.61699997E+02  0.17417E+06
 0.61749996E+02  0.14814E+06
 0.61799995E+02  0.89069E+05
 0.61849995E+02  0.10416E+05
 0.61899998E+02 -0.88847E+05
 0.61949997E+02 -0.18812E+06
 0.61999996E+02 -0.27962E+06
 0.62049995E+02 -0.36888E+06
 0.62099998E+02 -0.44447E+06
 0.62149994E+02 -0.49975E+06
 0.62199997E+02 -0.54640E+06
 0.62249992E+02 -0.58662E+06
 0.62299995E+02 -0.60237E+06
 0.62349998E+02 -0.59520E+06
 0.62399994E+02 -0.56947E+06
 0.62449997E+02 -0.53027E+06
 0.62499992E+02 -0.48778E+06
 0.62549995E+02 -0.45147E+06
 0.62599998E+02 -0.43016E+06
 0.62649994E+02 -0.41843E+06
 0.62699997E+02 -0.41296E+06
 0.62749992E+02 -0.40811E+06
 0.62799995E+02 -0.38331E+06
 0.62849998E+02 -0.32162E+06
 0.62899994E+02 -0.23660E+06
 0.62949997E+02 -0.14921E+06
 0.62999992E+02 -0.67505E+05
 0.63049995E+02 -0.51302E+04
 0.63099998E+02  0.15510E+05
 0.63149994E+02  0.79232E+04
 0.63199997E+02  0.18972E+04
 0.63249992E+02  0.15323E+05
 0.63299995E+02  0.57723E+05
 0.63349998E+02  0.10977E+06
 0.63399994E+02  0.14558E+06
 0.63449997E+02  0.15928E+06
 0.63499992E+02  0.15276E+06
 0.63549995E+02  0.15041E+06
 0.63599998E+02  0.17570E+06
 0.63649994E+02  0.20900E+06
 0.63699997E+02  0.23586E+06
 0.63749992E+02  0.25416E+06
 0.63799995E+02  0.26410E+06
 0.63849998E+02  0.27610E+06
 0.63899994E+02  0.29058E+06
 0.63949997E+02  0.31262E+06
 0.63999992E+02  0.34843E+06
 0.64049995E+02  0.38026E+06
 0.64099998E+02  0.38356E+06
 0.64149994E+02  0.37512E+06
 0.64199997E+02  0.37666E+06
 0.64249992E+02  0.36996E+06
 0.64299995E+02  0.35213E+06
 0.64349998E+02  0.33937E+06
 0.64399994E+02  0.33842E+06
 0.64449997E+02  0.34949E+06
 0.64499992E+02  0.36543E+06
 0.64549995E+02  0.38194E+06
 0.64599998E+02  0.38998E+06
 0.64649994E+02  0.37085E+06
 0.64699997E+02  0.33493E+06
 0.64749992E+02  0.29067E+06
 0.64799995E+02  0.22900E+06
 0.64849998E+02  0.16833E+06
 0.64899994E+02  0.13496E+06
 0.64949997E+02  0.12235E+06
 0.64999992E+02  0.13285E+06
 0.65049995E+02  0.16436E+06
 0.65099998E+02  0.18637E+06
 0.65149994E+02  0.19310E+06
 0.65199997E+02  0.19127E+06
 0.65249992E+02  0.17796E+06
 0.65299995E+02  0.15621E+06
 0.65349998E+02  0.12989E+06
 0.65399994E+02  0.93032E+05
 0.65449997E+02  0.44138E+05
 0.65499992E+02 -0.19179E+05
 0.65549995E+02 -0.77405E+05
 0.65599998E+02 -0.13473E+06
 0.65649994E+02 -0.20001E+06
 0.65699997E+02 -0.25725E+06
 0.65749992E+02 -0.28931E+06
 0.65799995E+02 -0.29378E+06
 0.65849998E+02 -0.29739E+06
 0.65899994E+02 -0.29108E+06
 0.65949997E+02 -0.27612E+06
 0.65999992E+02 -0.27029E+06
 0.66049995E+02 -0.26076E+06
 0.66099998E+02 -0.24623E+06
 0.66149994E+02 -0.23231E+06
 0.66199997E+02 -0.21634E+06
 0.66249992E+02 -0.20026E+06
 0.66299995E+02 -0.16204E+06
 0.66349998E+02 -0.94675E+05
 0.66399994E+02 -0.17704E+05
 0.66449997E+02  0.53938E+05
 0.66499992E+02  0.10432E+06
 0.66549995E+02  0.13911E+06
 0.66599998E+02  0.16985E+06
 0.66649994E+02  0.19770E+06
 0.66699997E+02  0.21520E+06
 0.66749992E+02  0.21636E+06
 0.66799995E+02  0.20965E+06
 0.66849998E+02  0.20316E+06
 0.66899994E+02  0.19277E+06
 0.66949997E+02  0.17658E+06
 0.66999992E+02  0.15692E+06
 0.67049995E+02  0.13655E+06
 0.67099998E+02  0.12876E+06
 0.67149994E+02  0.13361E+06
 0.67199997E+02  0.14763E+06
 0.67249992E+02  0.16941E+06
 0.67299995E+02  0.18787E+06
 0.67349998E+02  0.20867E+06
 0.67399994E+02  0.23570E+06
 0.67449997E+02  0.25745E+06
 0.67499992E+02  0.26770E+06
 0.67549995E+02  0.27101E+06
 0.67599998E+02  0.26060E+06
 0.67649994E+02  0.23137E+06
 0.67699997E+02  0.18634E+06
 0.67749992E+02  0.12945E+06
 0.67799995E+02  0.65324E+05
 0.67849998E+02  0.51713E+04
 0.67899994E+02 -0.36535E+05
 0.67949997E+02 -0.57520E+05
 0.67999992E+02 -0.52255E+05
 0.68049995E+02 -0.20240E+05
 0.68099998E+02  0.19921E+05
 0.68149994E+02  0.57112E+05
 0.68199997E+02  0.93245E+05
 0.68249992E+02  0.11489E+06
 0.68299995E+02  0.13194E+06
 0.68349998E+02  0.14675E+06
 0.68399994E+02  0.15167E+06
 0.68449997E+02  0.14549E+06
 0.68499992E+02  0.12489E+06
 0.68549995E+02  0.10291E+06
 0.68599998E+02  0.82407E+05
 0.68649994E+02  0.57306E+05
 0.68699997E+02  0.18812E+05
 0.68749992E+02 -0.19075E+05
 0.68799995E+02 -0.52724E+05
 0.68849998E+02 -0.90151E+05
 0.68899994E+02 -0.12217E+06
 0.68949997E+02 -0.14944E+06
 0.68999992E+02 -0.17645E+06
 0.69049995E+02 -0.20554E+06
 0.69099998E+02 -0.23412E+06
 0.69149994E+02 -0.26491E+06
 0.69199997E+02 -0.29398E+06
 0.69249992E+02 -0.31118E+06
 0.69299995E+02 -0.31934E+06
 0.69349998E+02 -0.32009E+06
 0.69399994E+02 -0.32034E+06
 0.69449997E+02 -0.31780E+06
 0.69499992E+02 -0.30219E+06
 0.69549995E+02 -0.27486E+06
 0.69599998E+02 -0.24451E+06
 0.69649994E+02 -0.21678E+06
 0.69699997E+02 -0.18056E+06
 0.69749992E+02 -0.13323E+06
 0.69799995E+02 -0.91051E+05
 0.69849998E+02 -0.57387E+05
 0.69899994E+02 -0.29812E+05
 0.69949997E+02 -0.84084E+04
 0.69999992E+02  0.37529E+04
 0.70049995E+02 -0.21502E+04
 0.70099998E+02 -0.22862E+05
 0.70149994E+02 -0.47567E+05
 0.70199997E+02 -0.75893E+05
 0.70249992E+02 -0.10346E+06
 0.70299995E+02 -0.12509E+06
 0.70349998E+02 -0.14765E+06
 0.70399994E+02 -0.16305E+06
 0.70449997E+02 -0.16946E+06
 0.70499992E+02 -0.17020E+06
 0.70549995E+02 -0.16061E+06
 0.70599998E+02 -0.14640E+06
 0.70649994E+02 -0.13777E+06
 0.70699997E+02 -0.13515E+06
 0.70749992E+02 -0.13656E+06
 0.70799995E+02 -0.13954E+06
 0.70849998E+02 -0.13477E+06
 0.70899994E+02 -0.12429E+06
 0.70949997E+02 -0.11303E+06
 0.70999992E+02 -0.10647E+06
 0.71049995E+02 -0.11209E+06
 0.71099998E+02 -0.12948E+06
 0.71149994E+02 -0.14470E+06
 0.71199997E+02 -0.14140E+06
 0.71249992E+02 -0.10897E+06
 0.71299995E+02 -0.65129E+05
 0.71349998E+02 -0.24130E+05
 0.71399994E+02  0.15303E+05
 0.71449997E+02  0.47185E+05
 0.71499992E+02  0.69810E+05
 0.71549995E+02  0.85569E+05
 0.71599998E+02  0.10373E+06
 0.71649994E+02  0.11944E+06
 0.71699997E+02  0.13415E+06
 0.71749992E+02  0.14382E+06
 0.71799995E+02  0.14675E+06
 0.71849998E+02  0.15564E+06
 0.71899994E+02  0.16085E+06
 0.71949997E+02  0.15517E+06
 0.71999992E+02  0.14398E+06
 0.72049995E+02  0.13366E+06
 0.72099998E+02  0.12289E+06
 0.72149994E+02  0.10781E+06
 0.72199997E+02  0.10117E+06
 0.72249992E+02  0.10151E+06
 0.72299995E+02  0.97793E+05
 0.72349998E+02  0.96522E+05
 0.72399994E+02  0.10249E+06
 0.72449997E+02  0.11408E+06
 0.72499992E+02  0.13047E+06
 0.72549995E+02  0.14490E+06
 0.72599998E+02  0.15481E+06
 0.72649994E+02  0.15505E+06
 0.72699997E+02  0.14784E+06
 0.72749992E+02  0.13867E+06
 0.72799995E+02  0.12555E+06
 0.72849998E+02  0.10453E+06
 0.72899994E+02  0.78988E+05
 0.72949997E+02  0.60846E+05
 0.72999992E+02  0.45428E+05
 0.73049995E+02  0.31062E+05
 0.73099998E+02  0.13101E+05
 0.73149994E+02 -0.75740E+04
 0.73199997E+02 -0.24159E+05
 0.73249992E+02 -0.30975E+05
 0.73299995E+02 -0.27333E+05
 0.73349998E+02 -0.14466E+05
 0.73399994E+02  0.10736E+05
 0.73449997E+02  0.39298E+05
 0.73499992E+02  0.50753E+05
 0.73549995E+02  0.38284E+05
 0.73599998E+02  0.13241E+05
 0.73649994E+02 -0.21791E+05
 0.73699997E+02 -0.62551E+05
 0.73749992E+02 -0.10203E+06
 0.73799995E+02 -0.14019E+06
 0.73849998E+02 -0.16878E+06
 0.73899994E+02 -0.19196E+06
 0.73949997E+02 -0.21353E+06
 0.73999992E+02 -0.22064E+06
 0.74049995E+02 -0.21721E+06
 0.74099998E+02 -0.20437E+06
 0.74149994E+02 -0.18214E+06
 0.74199997E+02 -0.15630E+06
 0.74249992E+02 -0.12687E+06
 0.74299995E+02 -0.94237E+05
 0.74349998E+02 -0.56905E+05
 0.74399994E+02 -0.49907E+04
 0.74449997E+02  0.52050E+05
 0.74499992E+02  0.80625E+05
 0.74549995E+02  0.84104E+05
 0.74599998E+02  0.78584E+05
 0.74649994E+02  0.63173E+05
 0.74699997E+02  0.27503E+05
 0.74749992E+02 -0.29038E+05
 0.74799995E+02 -0.97711E+05
 0.74849998E+02 -0.16868E+06
 0.74899994E+02 -0.23231E+06
 0.74949997E+02 -0.28138E+06
 0.74999992E+02 -0.29611E+06
 0.75049995E+02 -0.27760E+06
 0.75099998E+02 -0.23232E+06
 0.75149994E+02 -0.17198E+06
 0.75199997E+02 -0.11004E+06
 0.75249992E+02 -0.56274E+05
 0.75299995E+02 -0.16535E+05
 0.75349998E+02  0.15914E+05
 0.75399994E+02  0.45660E+05
 0.75449997E+02  0.77502E+05
 0.75499992E+02  0.10638E+06
 0.75549995E+02  0.12095E+06
 0.75599998E+02  0.11458E+06
 0.75649994E+02  0.89615E+05
 0.75699997E+02  0.55953E+05
 0.75749992E+02  0.31036E+05
 0.75799995E+02  0.25561E+05
 0.75849998E+02  0.39150E+05
 0.75899994E+02  0.66267E+05
 0.75949997E+02  0.11321E+06
 0.75999992E+02  0.18205E+06
 0.76049995E+02  0.25344E+06
 0.76099998E+02  0.32463E+06
 0.76149994E+02  0.39762E+06
 0.76199997E+02  0.46062E+06
 0.76249992E+02  0.49952E+06
 0.76299995E+02  0.51838E+06
 0.76349998E+02  0.51909E+06
 0.76399994E+02  0.49492E+06
 0.76449997E+02  0.45873E+06
 0.76499992E+02  0.41251E+06
 0.76549995E+02  0.35216E+06
 0.76599998E+02  0.28353E+06
 0.76649994E+02  0.21840E+06
 0.76699997E+02  0.15612E+06
 0.76749992E+02  0.88469E+05
 0.76799995E+02  0.27030E+05
 0.76849998E+02 -0.18253E+05
 0.76899994E+02 -0.44882E+05
 0.76949997E+02 -0.57747E+05
 0.76999992E+02 -0.54129E+05
 0.77049995E+02 -0.31432E+05
 0.77099998E+02  0.80269E+04
 0.77149994E+02  0.59417E+05
 0.77199997E+02  0.11285E+06
 0.77249992E+02  0.17074E+06
 0.77299995E+02  0.22476E+06
 0.77349998E+02  0.26888E+06
 0.77399994E+02  0.30312E+06
 0.77449997E+02  0.31509E+06
 0.77499992E+02  0.29366E+06
 0.77549995E+02  0.24767E+06
 0.77599998E+02  0.18237E+06
 0.77649994E+02  0.10159E+06
 0.77699997E+02  0.18560E+05
 0.77749992E+02 -0.62006E+05
 0.77799995E+02 -0.13989E+06
 0.77849998E+02 -0.21743E+06
 0.77899994E+02 -0.27835E+06
 0.77949997E+02 -0.31077E+06
 0.77999992E+02 -0.31550E+06
 0.78049995E+02 -0.29673E+06
 0.78099998E+02 -0.25276E+06
 0.78149994E+02 -0.19142E+06
 0.78199997E+02 -0.13220E+06
 0.78249992E+02 -0.81316E+05
 0.78299995E+02 -0.32934E+05
 0.78349998E+02  0.14840E+05
 0.78399994E+02  0.48883E+05
 0.78449997E+02  0.63468E+05
 0.78499992E+02  0.62532E+05
 0.78549995E+02  0.45465E+05
 0.78599998E+02  0.85282E+04
 0.78649994E+02 -0.40390E+05
 0.78699997E+02 -0.92322E+05
 0.78749992E+02 -0.14327E+06
 0.78799995E+02 -0.19536E+06
 0.78849998E+02 -0.25322E+06
 0.78899994E+02 -0.31745E+06
 0.78949997E+02 -0.37729E+06
 0.78999992E+02 -0.43016E+06
 0.79049995E+02 -0.47357E+06
 0.79099998E+02 -0.49205E+06
 0.79149994E+02 -0.48279E+06
 0.79199997E+02 -0.45104E+06
 0.79249992E+02 -0.40652E+06
 0.79299995E+02 -0.34575E+06
 0.79349998E+02 -0.27592E+06
 0.79399994E+02 -0.20607E+06
 0.79449997E+02 -0.13818E+06
 0.79499992E+02 -0.85028E+05
 0.79549995E+02 -0.41085E+05
 0.79599998E+02 -0.69204E+04
 0.79649994E+02  0.15263E+05
 0.79699997E+02  0.34799E+05
 0.79749992E+02  0.55711E+05
 0.79799995E+02  0.71839E+05
 0.79849998E+02  0.83177E+05
 0.79899994E+02  0.92953E+05
 0.79949997E+02  0.10069E+06
 0.79999992E+02  0.10284E+06
 0.80049995E+02  0.91458E+05
 0.80099998E+02  0.72818E+05
 0.80149994E+02  0.52160E+05
 0.80199997E+02  0.25003E+05
 0.80249992E+02 -0.15274E+04
 0.80299995E+02 -0.18627E+05
 0.80349998E+02 -0.29707E+05
 0.80399994E+02 -0.33083E+05
 0.80449997E+02 -0.26025E+05
 0.80499992E+02 -0.12852E+05
 0.80549995E+02 -0.56666E+03
 0.80599998E+02  0.15670E+05
 0.80649994E+02  0.35938E+05
 0.80699997E+02  0.50342E+05
 0.80749992E+02  0.55102E+05
 0.80799995E+02  0.65479E+05
 0.80849998E+02  0.91078E+05
 0.80899994E+02  0.10472E+06
 0.80949997E+02  0.11196E+06
 0.80999992E+02  0.12116E+06
 0.81049995E+02  0.11432E+06
 0.81099998E+02  0.10581E+06
 0.81149994E+02  0.10770E+06
 0.81199997E+02  0.10892E+06
 0.81249992E+02  0.89482E+05
 0.81299995E+02  0.52081E+05
 0.81349998E+02  0.15605E+05
 0.81399994E+02 -0.16212E+05
 0.81449997E+02 -0.55226E+05
 0.81499992E+02 -0.91517E+05
 0.81549995E+02 -0.11038E+06
 0.81599998E+02 -0.13016E+06
 0.81649994E+02 -0.15741E+06
 0.81699997E+02 -0.18060E+06
 0.81749992E+02 -0.19781E+06
 0.81799995E+02 -0.21416E+06
 0.81849998E+02 -0.22886E+06
 0.81899994E+02 -0.23323E+06
 0.81949997E+02 -0.22758E+06
 0.81999992E+02 -0.21763E+06
 0.82049995E+02 -0.20414E+06
 0.82099998E+02 -0.19436E+06
 0.82149994E+02 -0.18990E+06
 0.82199997E+02 -0.18692E+06
 0.82249992E+02 -0.16956E+06
 0.82299995E+02 -0.13860E+06
 0.82349998E+02 -0.10282E+06
 0.82399994E+02 -0.66013E+05
 0.82449997E+02 -0.18320E+05
 0.82499992E+02  0.45245E+05
 0.82549995E+02  0.93623E+05
 0.82599998E+02  0.12980E+06
 0.82649994E+02  0.17555E+06
 0.82699997E+02  0.21650E+06
 0.82749992E+02  0.23378E+06
 0.82799995E+02  0.23853E+06
 0.82849998E+02  0.23270E+06
 0.82899994E+02  0.20774E+06
 0.82949997E+02  0.16112E+06
 0.82999992E+02  0.11176E+06
 0.83049995E+02  0.78168E+05
 0.83099998E+02  0.54208E+05
 0.83149994E+02  0.31843E+05
 0.83199997E+02  0.91275E+04
 0.83249992E+02 -0.66395E+04
 0.83299995E+02 -0.92194E+04
 0.83349998E+02 -0.29820E+04
 0.83399994E+02 -0.16089E+03
 0.83449997E+02 -0.69705E+04
 0.83499992E+02 -0.19491E+05
 0.83549995E+02 -0.17443E+05
 0.83599998E+02 -0.36301E+04
 0.83649994E+02 -0.14729E+04
 0.83699997E+02  0.38573E+04
 0.83749992E+02  0.11890E+05
 0.83799995E+02 -0.16161E+04
 0.83849998E+02 -0.21349E+05
 0.83899994E+02 -0.16818E+05
 0.83949997E+02  0.71398E+04
 0.83999992E+02  0.28247E+05
 0.84049995E+02  0.42905E+05
 0.84099998E+02  0.58930E+05
 0.84149994E+02  0.81535E+05
 0.84199997E+02  0.99013E+05
 0.84249992E+02  0.10887E+06
 0.84299995E+02  0.12307E+06
 0.84349998E+02  0.13422E+06
 0.84399994E+02  0.12181E+06
 0.84449997E+02  0.10124E+06
 0.84499992E+02  0.80887E+05
 0.84549995E+02  0.54918E+05
 0.84599998E+02  0.43016E+05
 0.84649994E+02  0.40040E+05
 0.84699997E+02  0.34551E+05
 0.84749992E+02  0.37320E+05
 0.84799995E+02  0.56121E+05
 0.84849998E+02  0.91556E+05
 0.84899994E+02  0.14000E+06
 0.84949997E+02  0.18536E+06
 0.84999992E+02  0.21591E+06
 0.85049995E+02  0.23022E+06
 0.85099998E+02  0.23314E+06
 0.85149994E+02  0.23888E+06
 0.85199997E+02  0.23979E+06
 0.85249992E+02  0.22702E+06
 0.85299995E+02  0.20394E+06
 0.85349998E+02  0.17386E+06
 0.85399994E+02  0.15034E+06
 0.85449997E+02  0.13672E+06
 0.85499992E+02  0.12497E+06
 0.85549995E+02  0.10632E+06
 0.85599998E+02  0.74016E+05
 0.85649994E+02  0.30280E+05
 0.85699997E+02 -0.82202E+04
 0.85749992E+02 -0.31031E+05
 0.85799995E+02 -0.45942E+05
 0.85849998E+02 -0.69767E+05
 0.85899994E+02 -0.98821E+05
 0.85949997E+02 -0.11836E+06
 0.85999992E+02 -0.12692E+06
 0.86049995E+02 -0.12342E+06
 0.86099998E+02 -0.10718E+06
 0.86149994E+02 -0.85782E+05
 0.86199997E+02 -0.62071E+05
 0.86249992E+02 -0.35023E+05
 0.86299995E+02 -0.12255E+05
 0.86349998E+02  0.55303E+04
 0.86399994E+02  0.14646E+05
 0.86449997E+02  0.15113E+05
 0.86499992E+02  0.88259E+04
 0.86549995E+02 -0.47371E+04
 0.86599998E+02 -0.22775E+05
 0.86649994E+02 -0.45343E+05
 0.86699997E+02 -0.63533E+05
 0.86749992E+02 -0.71002E+05
 0.86799995E+02 -0.85101E+05
 0.86849998E+02 -0.99979E+05
 0.86899994E+02 -0.10172E+06
 0.86949997E+02 -0.97023E+05
 0.86999992E+02 -0.84849E+05
 0.87049995E+02 -0.70656E+05
 0.87099998E+02 -0.52278E+05
 0.87149994E+02 -0.32139E+05
 0.87199997E+02 -0.26183E+05
 0.87249992E+02 -0.36742E+05
 0.87299995E+02 -0.39819E+05
 0.87349998E+02 -0.21607E+05
 0.87399994E+02 -0.11489E+04
 0.87449997E+02  0.16129E+05
 0.87499992E+02  0.28781E+05
 0.87549995E+02  0.29709E+05
 0.87599991E+02  0.12487E+05
 0.87649994E+02 -0.16445E+05
 0.87699997E+02 -0.38191E+05
 0.87749992E+02 -0.60697E+05
 0.87799995E+02 -0.93123E+05
 0.87849991E+02 -0.13030E+06
 0.87899994E+02 -0.16523E+06
 0.87949997E+02 -0.19049E+06
 0.87999992E+02 -0.20660E+06
 0.88049995E+02 -0.21109E+06
 0.88099991E+02 -0.19663E+06
 0.88149994E+02 -0.17071E+06
 0.88199997E+02 -0.15064E+06
 0.88249992E+02 -0.13029E+06
 0.88299995E+02 -0.10370E+06
 0.88349991E+02 -0.80596E+05
 0.88399994E+02 -0.71581E+05
 0.88449997E+02 -0.77238E+05
 0.88499992E+02 -0.76557E+05
 0.88549995E+02 -0.66759E+05
 0.88599991E+02 -0.61821E+05
 0.88649994E+02 -0.61474E+05
 0.88699997E+02 -0.49962E+05
 0.88749992E+02 -0.27836E+05
 0.88799995E+02 -0.10937E+05
 0.88849991E+02  0.67748E+04
 0.88899994E+02  0.32549E+05
 0.88949997E+02  0.61824E+05
 0.88999992E+02  0.83093E+05
 0.89049995E+02  0.97474E+05
 0.89099991E+02  0.12041E+06
 0.89149994E+02  0.14505E+06
 0.89199997E+02  0.15497E+06
 0.89249992E+02  0.15225E+06
 0.89299995E+02  0.14609E+06
 0.89349991E+02  0.14156E+06
 0.89399994E+02  0.13548E+06
 0.89449997E+02  0.12469E+06
 0.89499992E+02  0.11723E+06
 0.89549995E+02  0.11346E+06
 0.89599991E+02  0.10921E+06
 0.89649994E+02  0.10701E+06
 0.89699997E+02  0.11181E+06
 0.89749992E+02  0.12180E+06
 0.89799995E+02  0.13547E+06
 0.89849991E+02  0.15219E+06
 0.89899994E+02  0.16546E+06
 0.89949997E+02  0.17292E+06
 0.89999992E+02  0.17044E+06
 0.90049995E+02  0.16120E+06
 0.90099991E+02  0.15030E+06
 0.90149994E+02  0.13900E+06
 0.90199997E+02  0.12110E+06
 0.90249992E+02  0.91176E+05
 0.90299995E+02  0.59237E+05
 0.90349991E+02  0.33147E+05
 0.90399994E+02  0.70687E+04
 0.90449997E+02 -0.24261E+05
 0.90499992E+02 -0.59014E+05
 0.90549995E+02 -0.87756E+05
 0.90599991E+02 -0.10407E+06
 0.90649994E+02 -0.10908E+06
 0.90699997E+02 -0.10769E+06
 0.90749992E+02 -0.10795E+06
 0.90799995E+02 -0.11594E+06
 0.90849991E+02 -0.12875E+06
 0.90899994E+02 -0.13771E+06
 0.90949997E+02 -0.14452E+06
 0.90999992E+02 -0.15766E+06
 0.91049995E+02 -0.18101E+06
 0.91099991E+02 -0.20989E+06
 0.91149994E+02 -0.24139E+06
 0.91199997E+02 -0.26490E+06
 0.91249992E+02 -0.27716E+06
 0.91299995E+02 -0.28758E+06
 0.91349991E+02 -0.29576E+06
 0.91399994E+02 -0.29875E+06
 0.91449997E+02 -0.29527E+06
 0.91499992E+02 -0.28146E+06
 0.91549995E+02 -0.26015E+06
 0.91599991E+02 -0.23785E+06
 0.91649994E+02 -0.21628E+06
 0.91699997E+02 -0.19380E+06
 0.91749992E+02 -0.16863E+06
 0.91799995E+02 -0.13522E+06
 0.91849991E+02 -0.95658E+05
 0.91899994E+02 -0.59219E+05
 0.91949997E+02 -0.23729E+05
 0.91999992E+02  0.12941E+05
 0.92049995E+02  0.47863E+05
 0.92099991E+02  0.78493E+05
 0.92149994E+02  0.11018E+06
 0.92199997E+02  0.14408E+06
 0.92249992E+02  0.17429E+06
 0.92299995E+02  0.18845E+06
 0.92349991E+02  0.18778E+06
 0.92399994E+02  0.18180E+06
 0.92449997E+02  0.17129E+06
 0.92499992E+02  0.15809E+06
 0.92549995E+02  0.14084E+06
 0.92599991E+02  0.12516E+06
 0.92649994E+02  0.11376E+06
 0.92699997E+02  0.10806E+06
 0.92749992E+02  0.10674E+06
 0.92799995E+02  0.10894E+06
 0.92849991E+02  0.11648E+06
 0.92899994E+02  0.13175E+06
 0.92949997E+02  0.14800E+06
 0.92999992E+02  0.15926E+06
 0.93049995E+02  0.17227E+06
 0.93099991E+02  0.18412E+06
 0.93149994E+02  0.18843E+06
 0.93199997E+02  0.18769E+06
 0.93249992E+02  0.18831E+06
 0.93299995E+02  0.18688E+06
 0.93349991E+02  0.17865E+06
 0.93399994E+02  0.16541E+06
 0.93449997E+02  0.14939E+06
 0.93499992E+02  0.13301E+06
 0.93549995E+02  0.11278E+06
 0.93599991E+02  0.88072E+05
 0.93649994E+02  0.63240E+05
 0.93699997E+02  0.43754E+05
 0.93749992E+02  0.24968E+05
 0.93799995E+02  0.67340E+04
 0.93849991E+02 -0.29318E+04
 0.93899994E+02 -0.10981E+05
 0.93949997E+02 -0.18078E+05
 0.93999992E+02 -0.23871E+05
 0.94049995E+02 -0.29661E+05
 0.94099991E+02 -0.32049E+05
 0.94149994E+02 -0.31420E+05
 0.94199997E+02 -0.30807E+05
 0.94249992E+02 -0.30139E+05
 0.94299995E+02 -0.32551E+05
 0.94349991E+02 -0.38952E+05
 0.94399994E+02 -0.50603E+05
 0.94449997E+02 -0.65843E+05
 0.94499992E+02 -0.81450E+05
 0.94549995E+02 -0.94619E+05
 0.94599991E+02 -0.10608E+06
 0.94649994E+02 -0.12118E+06
 0.94699997E+02 -0.13596E+06
 0.94749992E+02 -0.15165E+06
 0.94799995E+02 -0.17006E+06
 0.94849991E+02 -0.18692E+06
 0.94899994E+02 -0.19848E+06
 0.94949997E+02 -0.20558E+06
 0.94999992E+02 -0.21165E+06
 0.95049995E+02 -0.21821E+06
 0.95099991E+02 -0.22278E+06
 0.95149994E+02 -0.21923E+06
 0.95199997E+02 -0.20443E+06
 0.95249992E+02 -0.18213E+06
 0.95299995E+02 -0.15561E+06
 0.95349991E+02 -0.12444E+06
 0.95399994E+02 -0.88989E+05
 0.95449997E+02 -0.51788E+05
 0.95499992E+02 -0.13081E+05
 0.95549995E+02  0.28004E+05
 0.95599991E+02  0.72405E+05
 0.95649994E+02  0.11633E+06
 0.95699997E+02  0.15408E+06
 0.95749992E+02  0.18652E+06
 0.95799995E+02  0.21414E+06
 0.95849991E+02  0.23050E+06
 0.95899994E+02  0.23112E+06
 0.95949997E+02  0.22024E+06
 0.95999992E+02  0.20718E+06
 0.96049995E+02  0.19187E+06
 0.96099991E+02  0.16827E+06
 0.96149994E+02  0.14153E+06
 0.96199997E+02  0.11581E+06
 0.96249992E+02  0.92922E+05
 0.96299995E+02  0.71693E+05
 0.96349991E+02  0.52436E+05
 0.96399994E+02  0.39784E+05
 0.96449997E+02  0.34520E+05
 0.96499992E+02  0.31806E+05
 0.96549995E+02  0.29720E+05
 0.96599991E+02  0.28490E+05
 0.96649994E+02  0.26344E+05
 0.96699997E+02  0.19448E+05
 0.96749992E+02  0.75407E+04
 0.96799995E+02 -0.12445E+04
 0.96849991E+02 -0.28583E+04
 0.96899994E+02 -0.64266E+04
 0.96949997E+02 -0.14249E+05
 0.96999992E+02 -0.17647E+05
 0.97049995E+02 -0.19201E+05
 0.97099991E+02 -0.17125E+05
 0.97149994E+02 -0.80246E+04
 0.97199997E+02  0.41300E+04
 0.97249992E+02  0.16915E+05
 0.97299995E+02  0.32382E+05
 0.97349991E+02  0.47427E+05
 0.97399994E+02  0.56275E+05
 0.97449997E+02  0.63913E+05
 0.97499992E+02  0.70205E+05
 0.97549995E+02  0.71668E+05
 0.97599991E+02  0.68772E+05
 0.97649994E+02  0.61299E+05
 0.97699997E+02  0.52160E+05
 0.97749992E+02  0.44816E+05
 0.97799995E+02  0.34846E+05
 0.97849991E+02  0.21060E+05
 0.97899994E+02  0.63547E+04
 0.97949997E+02 -0.11124E+05
 0.97999992E+02 -0.31936E+05
