-0.29800000E+01  0.21557E+05
-0.29300001E+01  0.21061E+05
-0.28800001E+01  0.20362E+05
-0.28299999E+01  0.19650E+05
-0.27800000E+01  0.18782E+05
-0.27300000E+01  0.17459E+05
-0.26800001E+01  0.15015E+05
-0.26300001E+01  0.99940E+04
-0.25799999E+01  0.26290E+04
-0.25300000E+01 -0.52790E+04
-0.24800000E+01 -0.11247E+05
-0.24300001E+01 -0.14661E+05
-0.23800001E+01 -0.17576E+05
-0.23299999E+01 -0.20785E+05
-0.22800000E+01 -0.24651E+05
-0.22300000E+01 -0.29844E+05
-0.21800001E+01 -0.35583E+05
-0.21300001E+01 -0.40544E+05
-0.20799999E+01 -0.44621E+05
-0.20300000E+01 -0.48848E+05
-0.19800000E+01 -0.53074E+05
-0.19299999E+01 -0.56514E+05
-0.18800000E+01 -0.58319E+05
-0.18300000E+01 -0.57371E+05
-0.17800000E+01 -0.54945E+05
-0.17300000E+01 -0.52826E+05
-0.16799999E+01 -0.50165E+05
-0.16300000E+01 -0.46083E+05
-0.15800000E+01 -0.40641E+05
-0.15300000E+01 -0.33874E+05
-0.14800000E+01 -0.27049E+05
-0.14299999E+01 -0.20999E+05
-0.13800000E+01 -0.15822E+05
-0.13300000E+01 -0.11702E+05
-0.12800000E+01 -0.79000E+04
-0.12300000E+01 -0.39590E+04
-0.11799999E+01  0.15840E+04
-0.11300000E+01  0.88330E+04
-0.10800000E+01  0.14829E+05
-0.10300000E+01  0.18289E+05
-0.98000002E+00  0.19765E+05
-0.93000007E+00  0.20138E+05
-0.87999988E+00  0.18844E+05
-0.82999992E+00  0.15460E+05
-0.77999997E+00  0.11034E+05
-0.73000002E+00  0.50890E+04
-0.68000007E+00 -0.20860E+04
-0.62999988E+00 -0.87670E+04
-0.57999992E+00 -0.14401E+05
-0.52999997E+00 -0.18944E+05
-0.48000002E+00 -0.20907E+05
-0.43000007E+00 -0.19560E+05
-0.37999988E+00 -0.16872E+05
-0.32999992E+00 -0.14232E+05
-0.27999997E+00 -0.11597E+05
-0.23000002E+00 -0.94060E+04
-0.18000007E+00 -0.83900E+04
-0.12999988E+00 -0.79790E+04
-0.79999924E-01 -0.73990E+04
-0.29999971E-01 -0.69570E+04
 0.19999981E-01 -0.63600E+04
 0.69999933E-01 -0.43020E+04
 0.12000012E+00 -0.14630E+04
 0.17000008E+00  0.58200E+03
 0.22000003E+00  0.21430E+04
 0.26999998E+00  0.29750E+04
 0.31999993E+00  0.34730E+04
 0.37000012E+00  0.51110E+04
 0.42000008E+00  0.76190E+04
 0.47000003E+00  0.99580E+04
 0.51999998E+00  0.11645E+05
 0.56999993E+00  0.12762E+05
 0.62000012E+00  0.13182E+05
 0.67000008E+00  0.12340E+05
 0.72000003E+00  0.10572E+05
 0.76999998E+00  0.90290E+04
 0.81999993E+00  0.82100E+04
 0.87000012E+00  0.77570E+04
 0.92000008E+00  0.70910E+04
 0.97000003E+00  0.66480E+04
 0.10200000E+01  0.67700E+04
 0.10700002E+01  0.66290E+04
 0.11199999E+01  0.56920E+04
 0.11700001E+01  0.37640E+04
 0.12200003E+01  0.82500E+03
 0.12700000E+01 -0.28610E+04
 0.13200002E+01 -0.69770E+04
 0.13699999E+01 -0.11836E+05
 0.14200001E+01 -0.17811E+05
 0.14700003E+01 -0.24134E+05
 0.15200000E+01 -0.29356E+05
 0.15700002E+01 -0.32086E+05
 0.16199999E+01 -0.32501E+05
 0.16700001E+01 -0.31717E+05
 0.17200003E+01 -0.30563E+05
 0.17700000E+01 -0.30355E+05
 0.18200002E+01 -0.30924E+05
 0.18699999E+01 -0.30686E+05
 0.19200001E+01 -0.29800E+05
 0.19700003E+01 -0.29401E+05
 0.20200000E+01 -0.29217E+05
 0.20700002E+01 -0.27563E+05
 0.21199999E+01 -0.23541E+05
 0.21700001E+01 -0.17526E+05
 0.22200003E+01 -0.10287E+05
 0.22700000E+01 -0.29200E+04
 0.23200002E+01  0.39750E+04
 0.23699999E+01  0.10194E+05
 0.24200001E+01  0.15599E+05
 0.24700003E+01  0.20588E+05
 0.25200000E+01  0.25977E+05
 0.25700002E+01  0.32755E+05
 0.26199999E+01  0.40535E+05
 0.26700001E+01  0.48055E+05
 0.27200003E+01  0.55279E+05
 0.27700000E+01  0.61731E+05
 0.28200002E+01  0.66440E+05
 0.28699999E+01  0.69204E+05
 0.29200001E+01  0.70369E+05
 0.29700003E+01  0.71099E+05
 0.30200000E+01  0.71925E+05
 0.30700002E+01  0.72790E+05
 0.31199999E+01  0.74246E+05
 0.31700001E+01  0.76638E+05
 0.32200003E+01  0.79787E+05
 0.32700000E+01  0.83059E+05
 0.33200002E+01  0.85282E+05
 0.33699999E+01  0.85322E+05
 0.34200001E+01  0.83128E+05
 0.34700003E+01  0.79815E+05
 0.35200000E+01  0.76083E+05
 0.35700002E+01  0.71602E+05
 0.36199999E+01  0.66242E+05
 0.36700001E+01  0.60540E+05
 0.37200003E+01  0.54360E+05
 0.37700000E+01  0.46654E+05
 0.38200002E+01  0.37516E+05
 0.38699999E+01  0.27610E+05
 0.39200001E+01  0.17318E+05
 0.39700003E+01  0.76440E+04
 0.40200000E+01 -0.92700E+03
 0.40700002E+01 -0.94570E+04
 0.41199999E+01 -0.18509E+05
 0.41700001E+01 -0.27467E+05
 0.42200003E+01 -0.36173E+05
 0.42700000E+01 -0.43891E+05
 0.43200002E+01 -0.50765E+05
 0.43699999E+01 -0.57970E+05
 0.44200001E+01 -0.65076E+05
 0.44700003E+01 -0.71298E+05
 0.45200000E+01 -0.75922E+05
 0.45700002E+01 -0.78265E+05
 0.46199999E+01 -0.78524E+05
 0.46700001E+01 -0.77284E+05
 0.47200003E+01 -0.74608E+05
 0.47700000E+01 -0.70177E+05
 0.48200002E+01 -0.64267E+05
 0.48699999E+01 -0.57290E+05
 0.49200001E+01 -0.48481E+05
 0.49700003E+01 -0.37674E+05
 0.50200000E+01 -0.25804E+05
 0.50700002E+01 -0.13961E+05
 0.51200004E+01 -0.35340E+04
 0.51700006E+01  0.54380E+04
 0.52199998E+01  0.13128E+05
 0.52700000E+01  0.19299E+05
 0.53200002E+01  0.24105E+05
 0.53700004E+01  0.27579E+05
 0.54200006E+01  0.29694E+05
 0.54699998E+01  0.30127E+05
 0.55200000E+01  0.29077E+05
 0.55700002E+01  0.27349E+05
 0.56200004E+01  0.26152E+05
 0.56700006E+01  0.26228E+05
 0.57199998E+01  0.26844E+05
 0.57700000E+01  0.26746E+05
 0.58200002E+01  0.25429E+05
 0.58700004E+01  0.23931E+05
 0.59200006E+01  0.23321E+05
 0.59699998E+01  0.23590E+05
 0.60200000E+01  0.24319E+05
 0.60700002E+01  0.24651E+05
 0.61200004E+01  0.24489E+05
 0.61700006E+01  0.25139E+05
 0.62199998E+01  0.27232E+05
 0.62700000E+01  0.29982E+05
 0.63200002E+01  0.32288E+05
 0.63700004E+01  0.33370E+05
 0.64200006E+01  0.32777E+05
 0.64699998E+01  0.31117E+05
 0.65200000E+01  0.29189E+05
 0.65700002E+01  0.26958E+05
 0.66200004E+01  0.24821E+05
 0.66700006E+01  0.22719E+05
 0.67199998E+01  0.19362E+05
 0.67700000E+01  0.13834E+05
 0.68200002E+01  0.65340E+04
 0.68700004E+01 -0.15730E+04
 0.69200006E+01 -0.85710E+04
 0.69699998E+01 -0.13264E+05
 0.70200000E+01 -0.17508E+05
 0.70700002E+01 -0.22533E+05
 0.71200004E+01 -0.27724E+05
 0.71700006E+01 -0.32690E+05
 0.72199998E+01 -0.37413E+05
 0.72700000E+01 -0.41843E+05
 0.73200002E+01 -0.45765E+05
 0.73700004E+01 -0.48971E+05
 0.74200006E+01 -0.51348E+05
 0.74699998E+01 -0.53138E+05
 0.75200000E+01 -0.54304E+05
 0.75700002E+01 -0.54946E+05
 0.76200004E+01 -0.56140E+05
 0.76700006E+01 -0.58104E+05
 0.77199998E+01 -0.59723E+05
 0.77700000E+01 -0.61625E+05
 0.78200002E+01 -0.64731E+05
 0.78700004E+01 -0.67993E+05
 0.79200006E+01 -0.70746E+05
 0.79699998E+01 -0.72256E+05
 0.80200005E+01 -0.70921E+05
 0.80699997E+01 -0.65660E+05
 0.81200008E+01 -0.57162E+05
 0.81700001E+01 -0.47655E+05
 0.82199993E+01 -0.38565E+05
 0.82700005E+01 -0.29713E+05
 0.83199997E+01 -0.20766E+05
 0.83700008E+01 -0.10928E+05
 0.84200001E+01  0.56200E+03
 0.84699993E+01  0.12360E+05
 0.85200005E+01  0.22203E+05
 0.85699997E+01  0.29991E+05
 0.86200008E+01  0.37775E+05
 0.86700001E+01  0.45905E+05
 0.87199993E+01  0.53546E+05
 0.87700005E+01  0.61035E+05
 0.88199997E+01  0.68973E+05
 0.88700008E+01  0.76374E+05
 0.89200001E+01  0.81449E+05
 0.89699993E+01  0.84518E+05
 0.90200005E+01  0.86297E+05
 0.90699997E+01  0.87250E+05
 0.91200008E+01  0.87341E+05
 0.91700001E+01  0.86092E+05
 0.92199993E+01  0.83317E+05
 0.92700005E+01  0.78603E+05
 0.93199997E+01  0.72853E+05
 0.93700008E+01  0.67737E+05
 0.94200001E+01  0.63681E+05
 0.94699993E+01  0.60129E+05
 0.95200005E+01  0.57538E+05
 0.95699997E+01  0.56699E+05
 0.96200008E+01  0.57482E+05
 0.96700001E+01  0.58534E+05
 0.97199993E+01  0.58269E+05
 0.97700005E+01  0.56521E+05
 0.98199997E+01  0.53559E+05
 0.98700008E+01  0.49969E+05
 0.99200001E+01  0.45568E+05
 0.99699993E+01  0.39898E+05
 0.10020000E+02  0.33961E+05
 0.10070000E+02  0.28592E+05
 0.10120001E+02  0.24798E+05
 0.10170000E+02  0.22344E+05
 0.10219999E+02  0.20069E+05
 0.10270000E+02  0.18041E+05
 0.10320000E+02  0.15383E+05
 0.10370001E+02  0.11882E+05
 0.10420000E+02  0.78250E+04
 0.10469999E+02  0.28700E+04
 0.10520000E+02 -0.21850E+04
 0.10570000E+02 -0.72620E+04
 0.10620001E+02 -0.12581E+05
 0.10670000E+02 -0.17029E+05
 0.10719999E+02 -0.20185E+05
 0.10770000E+02 -0.22322E+05
 0.10820000E+02 -0.24072E+05
 0.10870001E+02 -0.26461E+05
 0.10920000E+02 -0.29168E+05
 0.10969999E+02 -0.31930E+05
 0.11020000E+02 -0.35272E+05
 0.11070000E+02 -0.39408E+05
 0.11120001E+02 -0.44270E+05
 0.11170000E+02 -0.49174E+05
 0.11219999E+02 -0.54232E+05
 0.11270000E+02 -0.59097E+05
 0.11320000E+02 -0.63100E+05
 0.11370001E+02 -0.67580E+05
 0.11420000E+02 -0.73907E+05
 0.11469999E+02 -0.81833E+05
 0.11520000E+02 -0.89470E+05
 0.11570000E+02 -0.95648E+05
 0.11620001E+02 -0.10088E+06
 0.11670000E+02 -0.10533E+06
 0.11719999E+02 -0.10891E+06
 0.11770000E+02 -0.11178E+06
 0.11820000E+02 -0.11413E+06
 0.11870001E+02 -0.11609E+06
 0.11920000E+02 -0.11636E+06
 0.11969999E+02 -0.11456E+06
 0.12020000E+02 -0.11256E+06
 0.12070000E+02 -0.11015E+06
 0.12120001E+02 -0.10597E+06
 0.12170000E+02 -0.10032E+06
 0.12219999E+02 -0.94578E+05
 0.12270000E+02 -0.88655E+05
 0.12320000E+02 -0.81229E+05
 0.12370001E+02 -0.72244E+05
 0.12420000E+02 -0.62229E+05
 0.12469999E+02 -0.52028E+05
 0.12520000E+02 -0.41806E+05
 0.12570000E+02 -0.31374E+05
 0.12620001E+02 -0.21253E+05
 0.12670000E+02 -0.11307E+05
 0.12719999E+02 -0.18000E+04
 0.12770000E+02  0.66510E+04
 0.12820000E+02  0.14445E+05
 0.12870001E+02  0.22427E+05
 0.12920000E+02  0.30674E+05
 0.12969999E+02  0.38600E+05
 0.13020000E+02  0.45673E+05
 0.13070002E+02  0.51677E+05
 0.13120001E+02  0.56983E+05
 0.13170000E+02  0.61389E+05
 0.13220001E+02  0.64944E+05
 0.13270000E+02  0.68110E+05
 0.13320002E+02  0.70491E+05
 0.13370001E+02  0.72795E+05
 0.13420000E+02  0.75667E+05
 0.13470001E+02  0.78493E+05
 0.13520000E+02  0.80847E+05
 0.13570002E+02  0.82331E+05
 0.13620001E+02  0.82455E+05
 0.13670000E+02  0.81155E+05
 0.13720001E+02  0.79264E+05
 0.13770000E+02  0.77350E+05
 0.13820002E+02  0.75461E+05
 0.13870001E+02  0.72946E+05
 0.13920000E+02  0.69458E+05
 0.13970001E+02  0.66017E+05
 0.14020000E+02  0.63095E+05
 0.14070002E+02  0.60262E+05
 0.14120001E+02  0.57053E+05
 0.14170000E+02  0.53519E+05
 0.14220001E+02  0.49980E+05
 0.14270000E+02  0.45656E+05
 0.14320002E+02  0.39765E+05
 0.14370001E+02  0.33012E+05
 0.14420000E+02  0.25765E+05
 0.14470001E+02  0.17856E+05
 0.14520000E+02  0.93100E+04
 0.14570002E+02  0.13130E+04
 0.14620001E+02 -0.52010E+04
 0.14670000E+02 -0.10728E+05
 0.14720001E+02 -0.14998E+05
 0.14770000E+02 -0.18504E+05
 0.14820002E+02 -0.22131E+05
 0.14870001E+02 -0.25654E+05
 0.14920000E+02 -0.28084E+05
 0.14970001E+02 -0.27627E+05
 0.15020000E+02 -0.24152E+05
 0.15070002E+02 -0.20389E+05
 0.15120001E+02 -0.18172E+05
 0.15170000E+02 -0.16458E+05
 0.15220001E+02 -0.14574E+05
 0.15270000E+02 -0.12603E+05
 0.15320002E+02 -0.10015E+05
 0.15370001E+02 -0.68740E+04
 0.15420000E+02 -0.39240E+04
 0.15470001E+02 -0.16100E+04
 0.15520000E+02  0.51400E+03
 0.15570002E+02  0.25980E+04
 0.15620001E+02  0.37310E+04
 0.15670000E+02  0.37120E+04
 0.15720001E+02  0.25230E+04
 0.15770000E+02  0.32800E+03
 0.15820002E+02 -0.21390E+04
 0.15870001E+02 -0.48740E+04
 0.15920000E+02 -0.73330E+04
 0.15970001E+02 -0.87990E+04
 0.16020000E+02 -0.88700E+04
 0.16070002E+02 -0.81860E+04
 0.16120001E+02 -0.84880E+04
 0.16170000E+02 -0.91900E+04
 0.16220001E+02 -0.10520E+05
 0.16270000E+02 -0.11637E+05
 0.16320002E+02 -0.11858E+05
 0.16370001E+02 -0.10432E+05
 0.16420000E+02 -0.55570E+04
 0.16470001E+02  0.82700E+03
 0.16520000E+02  0.13859E+05
 0.16570002E+02  0.33895E+05
 0.16620001E+02  0.64836E+05
 0.16670000E+02  0.10119E+06
 0.16720001E+02  0.14097E+06
 0.16770000E+02  0.16423E+06
 0.16820002E+02  0.14494E+06
 0.16870001E+02  0.83290E+05
 0.16920000E+02 -0.51866E+05
 0.16970001E+02 -0.22942E+06
 0.17020000E+02 -0.49978E+06
 0.17070002E+02 -0.89889E+06
 0.17120001E+02 -0.11290E+07
 0.17170000E+02 -0.92420E+06
 0.17220001E+02 -0.18569E+06
 0.17270000E+02  0.75679E+06
 0.17320002E+02  0.13258E+07
 0.17370001E+02  0.13103E+07
 0.17420000E+02  0.47166E+06
 0.17470001E+02 -0.19046E+06
 0.17520000E+02  0.29677E+05
 0.17570002E+02 -0.42365E+06
 0.17620001E+02 -0.15293E+07
 0.17670000E+02 -0.17079E+07
 0.17720001E+02 -0.65000E+06
 0.17770000E+02 -0.19306E+06
 0.17820002E+02 -0.12934E+07
 0.17870001E+02 -0.21666E+07
 0.17920000E+02 -0.20940E+07
 0.17970001E+02 -0.90210E+06
 0.18020000E+02 -0.21506E+06
 0.18070002E+02 -0.45299E+06
 0.18120001E+02 -0.32822E+06
 0.18170000E+02 -0.34213E+06
 0.18220001E+02  0.95059E+06
 0.18270000E+02  0.18699E+07
 0.18320002E+02  0.99901E+06
 0.18370001E+02  0.98105E+06
 0.18420000E+02  0.21731E+07
 0.18470001E+02  0.36146E+07
 0.18520000E+02  0.31697E+07
 0.18570002E+02  0.25895E+06
 0.18620001E+02 -0.96114E+06
 0.18670000E+02  0.19675E+06
 0.18720001E+02  0.16123E+07
 0.18770000E+02  0.19345E+07
 0.18820002E+02  0.15545E+06
 0.18870001E+02 -0.10938E+07
 0.18920000E+02 -0.71996E+06
 0.18970001E+02  0.60961E+06
 0.19020000E+02  0.33563E+06
 0.19070002E+02 -0.11714E+07
 0.19120001E+02 -0.83802E+06
 0.19170000E+02 -0.32762E+06
 0.19220001E+02 -0.88148E+06
 0.19270000E+02 -0.24541E+07
 0.19320002E+02 -0.40028E+07
 0.19370001E+02 -0.39973E+07
 0.19420000E+02 -0.22988E+07
 0.19470001E+02  0.91125E+05
 0.19520000E+02  0.15342E+07
 0.19570002E+02  0.16654E+07
 0.19620001E+02  0.10160E+07
 0.19670000E+02  0.35096E+06
 0.19720001E+02  0.71648E+06
 0.19770000E+02  0.81604E+06
 0.19820002E+02  0.64921E+06
 0.19870001E+02  0.12853E+06
 0.19920000E+02  0.56915E+06
 0.19970001E+02  0.29129E+07
 0.20020000E+02  0.26913E+07
 0.20070002E+02  0.18584E+07
 0.20120001E+02  0.17494E+07
 0.20170000E+02  0.73824E+06
 0.20220001E+02 -0.29501E+06
 0.20270000E+02 -0.14932E+07
 0.20320002E+02 -0.13956E+07
 0.20370001E+02 -0.15042E+07
 0.20420000E+02 -0.19017E+07
 0.20470001E+02  0.18808E+06
 0.20520000E+02  0.12153E+07
 0.20570002E+02  0.22897E+06
 0.20620001E+02 -0.33829E+06
 0.20670000E+02 -0.60181E+06
 0.20720001E+02  0.20131E+06
 0.20770000E+02  0.88834E+06
 0.20820002E+02  0.32903E+06
 0.20870001E+02 -0.13190E+07
 0.20920000E+02 -0.16728E+07
 0.20970001E+02 -0.35081E+06
 0.21020000E+02 -0.49080E+06
 0.21070002E+02 -0.50740E+05
 0.21120001E+02  0.10049E+07
 0.21170000E+02  0.71808E+06
 0.21220001E+02  0.82964E+06
 0.21270000E+02 -0.84224E+05
 0.21320002E+02 -0.17530E+07
 0.21370001E+02 -0.16493E+07
 0.21420000E+02 -0.16394E+07
 0.21470001E+02 -0.11452E+07
 0.21520000E+02  0.44177E+05
 0.21570002E+02  0.58175E+06
 0.21620001E+02  0.16354E+07
 0.21670000E+02  0.13204E+07
 0.21720001E+02  0.33987E+06
 0.21770000E+02  0.11894E+07
 0.21820002E+02  0.21199E+07
 0.21870001E+02  0.25768E+07
 0.21920000E+02  0.10837E+07
 0.21970001E+02 -0.15617E+07
 0.22020000E+02 -0.11100E+07
 0.22070002E+02 -0.11764E+06
 0.22120001E+02 -0.78490E+06
 0.22170000E+02 -0.56747E+06
 0.22220001E+02  0.48066E+06
 0.22270000E+02  0.85080E+05
 0.22320002E+02 -0.13078E+07
 0.22370001E+02 -0.15544E+07
 0.22420000E+02 -0.12018E+07
 0.22470001E+02 -0.46041E+06
 0.22520000E+02 -0.37245E+06
 0.22570002E+02 -0.10212E+07
 0.22620001E+02 -0.14325E+07
 0.22670000E+02 -0.15093E+07
 0.22720001E+02 -0.32521E+06
 0.22770000E+02  0.86183E+06
 0.22820002E+02  0.77797E+06
 0.22870001E+02  0.48897E+06
 0.22920000E+02  0.17373E+07
 0.22970001E+02  0.31767E+07
 0.23020000E+02  0.28388E+07
 0.23070002E+02  0.21353E+07
 0.23120001E+02  0.11776E+07
 0.23170000E+02 -0.16269E+06
 0.23220001E+02  0.29642E+06
 0.23270000E+02  0.13956E+07
 0.23320002E+02  0.17178E+07
 0.23370001E+02  0.72534E+06
 0.23420000E+02 -0.45872E+06
 0.23470001E+02  0.62286E+05
 0.23520000E+02 -0.11129E+07
 0.23570002E+02 -0.25936E+07
 0.23620001E+02 -0.17513E+07
 0.23670000E+02 -0.10901E+07
 0.23720001E+02 -0.17585E+07
 0.23770000E+02 -0.22833E+07
 0.23820002E+02 -0.16121E+07
 0.23870001E+02 -0.93980E+06
 0.23920000E+02 -0.29738E+06
 0.23970001E+02  0.47776E+06
 0.24020000E+02  0.88084E+06
 0.24070002E+02  0.12277E+07
 0.24120001E+02  0.19593E+07
 0.24170000E+02  0.17497E+07
 0.24220001E+02  0.11538E+07
 0.24270000E+02  0.10755E+07
 0.24320002E+02  0.14206E+07
 0.24370001E+02  0.31385E+07
 0.24420000E+02  0.35985E+07
 0.24470001E+02  0.25014E+07
 0.24520000E+02  0.13836E+07
 0.24570002E+02  0.40249E+06
 0.24620001E+02  0.10342E+07
 0.24670000E+02  0.13951E+07
 0.24720001E+02  0.48120E+06
 0.24770000E+02  0.43316E+06
 0.24820002E+02  0.10698E+06
 0.24870001E+02 -0.77357E+06
 0.24920000E+02 -0.81395E+06
 0.24970001E+02 -0.11533E+07
 0.25020000E+02 -0.10631E+07
 0.25070002E+02 -0.28958E+06
 0.25120001E+02  0.13898E+06
 0.25170000E+02  0.10874E+06
 0.25220001E+02 -0.18397E+06
 0.25270000E+02  0.21802E+06
 0.25320002E+02  0.51756E+06
 0.25370001E+02  0.85605E+06
 0.25420000E+02  0.14958E+07
 0.25470001E+02  0.21033E+07
 0.25520000E+02  0.24065E+07
 0.25570002E+02  0.17230E+07
 0.25620001E+02  0.99617E+06
 0.25670000E+02  0.69023E+06
 0.25720001E+02  0.39740E+06
 0.25770000E+02  0.10164E+07
 0.25820002E+02  0.20167E+07
 0.25870001E+02  0.17187E+07
 0.25920000E+02  0.11287E+07
 0.25970001E+02 -0.11693E+06
 0.26020000E+02 -0.10756E+07
 0.26070002E+02 -0.11750E+07
 0.26120001E+02 -0.16469E+07
 0.26170000E+02 -0.17647E+07
 0.26220001E+02 -0.19159E+07
 0.26270000E+02 -0.80753E+06
 0.26320002E+02  0.25126E+06
 0.26370001E+02  0.21059E+06
 0.26420000E+02  0.74431E+06
 0.26470001E+02  0.57246E+06
 0.26520000E+02  0.94772E+06
 0.26570002E+02  0.11166E+07
 0.26620001E+02 -0.10245E+07
 0.26670000E+02 -0.24964E+07
 0.26720001E+02 -0.23194E+07
 0.26770000E+02 -0.11154E+07
 0.26820002E+02  0.21126E+06
 0.26870001E+02  0.41442E+06
 0.26920000E+02  0.98597E+06
 0.26970001E+02  0.18981E+07
 0.27020000E+02  0.24122E+07
 0.27070002E+02  0.28939E+07
 0.27120001E+02  0.24437E+07
 0.27170000E+02  0.96349E+06
 0.27220001E+02 -0.95059E+06
 0.27270000E+02 -0.26866E+07
 0.27320002E+02 -0.36125E+07
 0.27370001E+02 -0.43104E+07
 0.27420000E+02 -0.48171E+07
 0.27470001E+02 -0.48094E+07
 0.27520000E+02 -0.39491E+07
 0.27570002E+02 -0.21362E+07
 0.27620001E+02 -0.27977E+06
 0.27670000E+02  0.24404E+07
 0.27720001E+02  0.64684E+07
 0.27770000E+02  0.96844E+07
 0.27820002E+02  0.97861E+07
 0.27870001E+02  0.73784E+07
 0.27920000E+02  0.43570E+07
 0.27970001E+02  0.10452E+07
 0.28020000E+02 -0.14318E+07
 0.28070002E+02 -0.34606E+07
 0.28120001E+02 -0.51724E+07
 0.28170000E+02 -0.63407E+07
 0.28220001E+02 -0.87876E+07
 0.28270000E+02 -0.95591E+07
 0.28320002E+02 -0.85826E+07
 0.28370001E+02 -0.83987E+07
 0.28420000E+02 -0.62717E+07
 0.28470001E+02 -0.35882E+07
 0.28520000E+02 -0.24475E+07
 0.28570002E+02 -0.15025E+07
 0.28620001E+02 -0.14940E+07
 0.28670000E+02 -0.34727E+07
 0.28720001E+02 -0.24877E+07
 0.28770000E+02  0.25833E+07
 0.28820002E+02  0.42402E+07
 0.28870001E+02  0.29288E+07
 0.28920000E+02  0.14440E+07
 0.28970001E+02 -0.80996E+06
 0.29020000E+02 -0.10195E+07
 0.29070000E+02  0.18471E+07
 0.29120003E+02  0.43122E+07
 0.29170002E+02  0.41257E+07
 0.29220001E+02  0.41627E+07
 0.29270000E+02  0.37397E+07
 0.29320000E+02  0.50358E+06
 0.29370003E+02 -0.18783E+07
 0.29420002E+02 -0.47412E+07
 0.29470001E+02 -0.72120E+07
 0.29520000E+02 -0.53626E+07
 0.29570000E+02 -0.30989E+07
 0.29620003E+02 -0.51277E+06
 0.29670002E+02  0.21891E+07
 0.29720001E+02  0.35961E+07
 0.29770000E+02  0.52879E+07
 0.29820000E+02  0.74214E+07
 0.29870003E+02  0.88762E+07
 0.29920002E+02  0.69173E+07
 0.29970001E+02  0.37881E+07
 0.30020000E+02  0.17623E+06
 0.30070000E+02 -0.52325E+07
 0.30120003E+02 -0.92266E+07
 0.30170002E+02 -0.11626E+08
 0.30220001E+02 -0.11046E+08
 0.30270000E+02 -0.74474E+07
 0.30320000E+02 -0.58149E+07
 0.30370003E+02 -0.57108E+07
 0.30420002E+02 -0.45391E+07
 0.30470001E+02 -0.27893E+07
 0.30520000E+02 -0.54017E+06
 0.30570000E+02  0.21450E+07
 0.30620003E+02  0.28512E+07
 0.30670002E+02 -0.19765E+05
 0.30720001E+02 -0.28541E+07
 0.30770000E+02 -0.25447E+07
 0.30820000E+02 -0.10743E+07
 0.30870003E+02 -0.21398E+06
 0.30920002E+02 -0.43381E+05
 0.30970001E+02 -0.83077E+06
 0.31020000E+02 -0.66290E+06
 0.31070000E+02 -0.59905E+06
 0.31120003E+02 -0.23129E+07
 0.31170002E+02 -0.31216E+07
 0.31220001E+02 -0.37468E+07
 0.31270000E+02 -0.26830E+07
 0.31320000E+02  0.10913E+07
 0.31370003E+02  0.28414E+07
 0.31420002E+02  0.14370E+07
 0.31470001E+02 -0.58424E+06
 0.31520000E+02 -0.51543E+06
 0.31570000E+02  0.12394E+07
 0.31620003E+02  0.29845E+07
 0.31670002E+02  0.43747E+07
 0.31720001E+02  0.46483E+07
 0.31770000E+02  0.28310E+07
 0.31820000E+02  0.37229E+06
 0.31870003E+02  0.38865E+06
 0.31920002E+02  0.19792E+07
 0.31970001E+02  0.23801E+07
 0.32020000E+02  0.63536E+06
 0.32070000E+02 -0.25040E+07
 0.32120003E+02 -0.49167E+07
 0.32170002E+02 -0.41897E+07
 0.32220001E+02 -0.73435E+06
 0.32270000E+02  0.18058E+07
 0.32320000E+02  0.15566E+07
 0.32370003E+02 -0.41053E+06
 0.32420002E+02 -0.12469E+07
 0.32470001E+02 -0.32503E+06
 0.32520000E+02  0.12735E+07
 0.32570000E+02  0.30959E+07
 0.32620003E+02  0.33138E+07
 0.32670002E+02  0.10554E+07
 0.32720001E+02 -0.21259E+07
 0.32770000E+02 -0.35526E+07
 0.32820000E+02 -0.41770E+07
 0.32870003E+02 -0.47594E+07
 0.32920002E+02 -0.34023E+07
 0.32970001E+02 -0.16613E+07
 0.33020000E+02 -0.10926E+07
 0.33070000E+02 -0.11506E+07
 0.33120003E+02 -0.12813E+06
 0.33170002E+02  0.11030E+07
 0.33220001E+02  0.10492E+07
 0.33270000E+02  0.20146E+07
 0.33320000E+02  0.38378E+07
 0.33370003E+02  0.47647E+07
 0.33420002E+02  0.56195E+07
 0.33470001E+02  0.54148E+07
 0.33520000E+02  0.25790E+07
 0.33570000E+02 -0.40367E+06
 0.33620003E+02 -0.20745E+07
 0.33670002E+02 -0.35043E+07
 0.33720001E+02 -0.38280E+07
 0.33770000E+02 -0.14985E+07
 0.33820000E+02  0.17372E+07
 0.33870003E+02  0.33192E+07
 0.33920002E+02  0.31795E+07
 0.33970001E+02  0.27354E+07
 0.34020000E+02  0.39079E+07
 0.34070000E+02  0.55240E+07
 0.34120003E+02  0.56893E+07
 0.34170002E+02  0.43248E+07
 0.34220001E+02  0.18722E+07
 0.34270000E+02  0.13529E+06
 0.34320000E+02 -0.67395E+05
 0.34370003E+02  0.10672E+07
 0.34420002E+02  0.17940E+07
 0.34470001E+02  0.14101E+07
 0.34520000E+02  0.12028E+07
 0.34570000E+02  0.16073E+07
 0.34620003E+02  0.17395E+07
 0.34670002E+02  0.64120E+06
 0.34720001E+02  0.20300E+04
 0.34770000E+02 -0.63774E+06
 0.34820000E+02 -0.16168E+07
 0.34870003E+02 -0.13199E+07
 0.34920002E+02  0.73154E+05
 0.34970001E+02  0.17784E+07
 0.35020000E+02  0.23913E+07
 0.35070000E+02  0.21855E+07
 0.35120003E+02  0.18031E+07
 0.35170002E+02  0.15352E+07
 0.35220001E+02  0.17935E+07
 0.35270000E+02  0.18428E+07
 0.35320000E+02  0.19786E+07
 0.35370003E+02  0.19546E+07
 0.35420002E+02  0.12450E+07
 0.35470001E+02  0.14691E+07
 0.35520000E+02  0.28685E+07
 0.35570000E+02  0.36979E+07
 0.35620003E+02  0.34950E+07
 0.35670002E+02  0.30105E+07
 0.35720001E+02  0.25688E+07
 0.35770000E+02  0.18313E+07
 0.35820000E+02  0.15120E+07
 0.35870003E+02  0.19809E+07
 0.35920002E+02  0.18530E+07
 0.35970001E+02  0.16691E+07
 0.36020000E+02  0.17153E+07
 0.36070000E+02  0.12131E+07
 0.36120003E+02  0.12474E+07
 0.36170002E+02  0.20285E+07
 0.36220001E+02  0.28761E+07
 0.36270000E+02  0.24560E+07
 0.36320000E+02  0.92195E+06
 0.36370003E+02  0.55879E+06
 0.36420002E+02  0.10043E+07
 0.36470001E+02  0.10059E+07
 0.36520000E+02  0.10243E+07
 0.36570000E+02  0.10740E+07
 0.36620003E+02 -0.12036E+06
 0.36670002E+02 -0.22977E+07
 0.36720001E+02 -0.38642E+07
 0.36770000E+02 -0.43402E+07
 0.36820000E+02 -0.37655E+07
 0.36870003E+02 -0.23173E+07
 0.36920002E+02 -0.10677E+07
 0.36970001E+02 -0.27072E+06
 0.37020000E+02  0.11970E+07
 0.37070000E+02  0.29590E+07
 0.37120003E+02  0.44779E+07
 0.37170002E+02  0.47035E+07
 0.37220001E+02  0.37825E+07
 0.37270000E+02  0.40692E+07
 0.37320000E+02  0.46423E+07
 0.37370003E+02  0.42535E+07
 0.37420002E+02  0.34524E+07
 0.37470001E+02  0.26887E+07
 0.37520000E+02  0.18855E+07
 0.37570000E+02  0.67357E+06
 0.37620003E+02 -0.59980E+06
 0.37670002E+02 -0.15767E+07
 0.37720001E+02 -0.19481E+07
 0.37770000E+02 -0.15196E+07
 0.37820000E+02 -0.47156E+06
 0.37870003E+02  0.74156E+06
 0.37920002E+02  0.21198E+07
 0.37970001E+02  0.30851E+07
 0.38020000E+02  0.29747E+07
 0.38070000E+02  0.24075E+07
 0.38120003E+02  0.20088E+07
 0.38170002E+02  0.12368E+07
 0.38220001E+02 -0.99403E+05
 0.38270000E+02 -0.15549E+07
 0.38320000E+02 -0.35913E+07
 0.38370003E+02 -0.53413E+07
 0.38420002E+02 -0.62969E+07
 0.38470001E+02 -0.64173E+07
 0.38520000E+02 -0.54488E+07
 0.38570000E+02 -0.46605E+07
 0.38620003E+02 -0.38164E+07
 0.38670002E+02 -0.26009E+07
 0.38720001E+02 -0.16288E+07
 0.38770000E+02 -0.79968E+06
 0.38820000E+02  0.12452E+06
 0.38870003E+02  0.15659E+07
 0.38920002E+02  0.26819E+07
 0.38970001E+02  0.23318E+07
 0.39020000E+02  0.80069E+06
 0.39070000E+02 -0.70115E+06
 0.39120003E+02 -0.67078E+06
 0.39170002E+02  0.62330E+06
 0.39220001E+02  0.14930E+07
 0.39270000E+02  0.11799E+07
 0.39320000E+02 -0.24060E+06
 0.39370003E+02 -0.19992E+07
 0.39420002E+02 -0.23193E+07
 0.39470001E+02 -0.11530E+07
 0.39520000E+02 -0.73129E+06
 0.39570000E+02 -0.14432E+07
 0.39620003E+02 -0.17200E+07
 0.39670002E+02 -0.15734E+07
 0.39720001E+02 -0.22465E+07
 0.39770000E+02 -0.35554E+07
 0.39820000E+02 -0.44245E+07
 0.39870003E+02 -0.42088E+07
 0.39920002E+02 -0.32220E+07
 0.39970001E+02 -0.25829E+07
 0.40020000E+02 -0.29615E+07
 0.40070000E+02 -0.43308E+07
 0.40120003E+02 -0.53351E+07
 0.40170002E+02 -0.46990E+07
 0.40220001E+02 -0.33329E+07
 0.40270000E+02 -0.25750E+07
 0.40320000E+02 -0.27282E+07
 0.40370003E+02 -0.32978E+07
 0.40420002E+02 -0.31240E+07
 0.40470001E+02 -0.20190E+07
 0.40520000E+02 -0.10294E+07
 0.40570000E+02 -0.27036E+06
 0.40620003E+02 -0.37834E+06
 0.40670002E+02 -0.15022E+07
 0.40720001E+02 -0.22881E+07
 0.40770000E+02 -0.22752E+07
 0.40820000E+02 -0.15732E+07
 0.40870003E+02 -0.76825E+06
 0.40920002E+02 -0.24493E+06
 0.40970001E+02 -0.23037E+06
 0.41020000E+02 -0.62188E+06
 0.41070000E+02 -0.10715E+07
 0.41120003E+02 -0.13368E+07
 0.41170002E+02 -0.98619E+06
 0.41220001E+02 -0.31758E+06
 0.41270000E+02  0.21954E+06
 0.41320000E+02  0.22303E+06
 0.41370003E+02 -0.14947E+06
 0.41420002E+02 -0.58942E+06
 0.41470001E+02 -0.11554E+07
 0.41520000E+02 -0.13971E+07
 0.41570000E+02 -0.13169E+07
 0.41620003E+02 -0.12393E+07
 0.41670002E+02 -0.11588E+07
 0.41720001E+02 -0.11479E+07
 0.41770000E+02 -0.12950E+07
 0.41820000E+02 -0.11191E+07
 0.41870003E+02 -0.47553E+06
 0.41920002E+02 -0.23180E+04
 0.41970001E+02  0.13800E+06
 0.42020000E+02 -0.50386E+05
 0.42070000E+02 -0.20068E+06
 0.42120003E+02 -0.20988E+06
 0.42170002E+02 -0.33388E+06
 0.42220001E+02 -0.36506E+05
 0.42270000E+02  0.51517E+06
 0.42320000E+02  0.90027E+06
 0.42370003E+02  0.11270E+07
 0.42420002E+02  0.11894E+07
 0.42470001E+02  0.12843E+07
 0.42520000E+02  0.14570E+07
 0.42570000E+02  0.20343E+07
 0.42620003E+02  0.25927E+07
 0.42670002E+02  0.24959E+07
 0.42720001E+02  0.20806E+07
 0.42770000E+02  0.14254E+07
 0.42820000E+02  0.58272E+06
 0.42870003E+02 -0.20864E+06
 0.42920002E+02 -0.50506E+06
 0.42970001E+02 -0.24136E+06
 0.43020000E+02  0.64180E+05
 0.43070000E+02  0.26715E+06
 0.43120003E+02  0.24088E+06
 0.43170002E+02 -0.46577E+05
 0.43220001E+02 -0.44708E+06
 0.43270000E+02 -0.98442E+06
 0.43320000E+02 -0.14387E+07
 0.43370003E+02 -0.14850E+07
 0.43420002E+02 -0.13450E+07
 0.43470001E+02 -0.13523E+07
 0.43520000E+02 -0.13960E+07
 0.43570000E+02 -0.10329E+07
 0.43620003E+02 -0.50158E+06
 0.43670002E+02 -0.41632E+06
 0.43720001E+02 -0.55275E+06
 0.43770000E+02 -0.88018E+06
 0.43820000E+02 -0.11921E+07
 0.43870003E+02 -0.10146E+07
 0.43920002E+02 -0.38404E+06
 0.43970001E+02  0.47415E+06
 0.44020000E+02  0.12046E+07
 0.44070000E+02  0.16029E+07
 0.44120003E+02  0.16874E+07
 0.44170002E+02  0.18965E+07
 0.44220001E+02  0.22526E+07
 0.44270000E+02  0.23050E+07
 0.44320000E+02  0.20991E+07
 0.44370003E+02  0.16561E+07
 0.44420002E+02  0.11822E+07
 0.44470001E+02  0.13034E+07
 0.44520000E+02  0.17358E+07
 0.44570000E+02  0.18607E+07
 0.44620003E+02  0.16657E+07
 0.44670002E+02  0.12572E+07
 0.44720001E+02  0.79202E+06
 0.44770000E+02  0.96300E+03
 0.44820000E+02 -0.84272E+06
 0.44870003E+02 -0.12535E+07
 0.44920002E+02 -0.14461E+07
 0.44970001E+02 -0.16040E+07
 0.45020000E+02 -0.15699E+07
 0.45070000E+02 -0.10111E+07
 0.45120003E+02 -0.30877E+06
 0.45170002E+02  0.19789E+06
 0.45220001E+02  0.39040E+06
 0.45270000E+02  0.26460E+06
 0.45320000E+02  0.10516E+06
 0.45370003E+02  0.59709E+05
 0.45420002E+02  0.41097E+05
 0.45470001E+02 -0.13115E+05
 0.45520000E+02 -0.18966E+05
 0.45570000E+02 -0.62575E+05
 0.45620003E+02  0.15669E+06
 0.45670002E+02  0.61949E+06
 0.45720001E+02  0.10607E+07
 0.45770000E+02  0.16144E+07
 0.45820000E+02  0.20826E+07
 0.45870003E+02  0.20974E+07
 0.45920002E+02  0.17324E+07
 0.45970001E+02  0.11866E+07
 0.46020000E+02  0.67655E+06
 0.46070000E+02  0.39310E+06
 0.46120003E+02  0.10939E+06
 0.46170002E+02  0.12218E+06
 0.46220001E+02  0.53772E+06
 0.46270000E+02  0.88915E+06
 0.46320000E+02  0.10033E+07
 0.46370003E+02  0.59974E+06
 0.46420002E+02  0.19128E+05
 0.46470001E+02 -0.41734E+06
 0.46520000E+02 -0.67765E+06
 0.46570000E+02 -0.78628E+06
 0.46620003E+02 -0.12943E+07
 0.46670002E+02 -0.18265E+07
 0.46720001E+02 -0.19697E+07
 0.46770000E+02 -0.17621E+07
 0.46820000E+02 -0.11793E+07
 0.46870003E+02 -0.51895E+06
 0.46920002E+02  0.45802E+05
 0.46970001E+02  0.32855E+06
 0.47020000E+02  0.51364E+06
 0.47070000E+02  0.62523E+06
 0.47120003E+02  0.55918E+06
 0.47170002E+02  0.69037E+06
 0.47220001E+02  0.75210E+06
 0.47270000E+02  0.53836E+06
 0.47320000E+02  0.58934E+06
 0.47370003E+02  0.88620E+06
 0.47420002E+02  0.11988E+07
 0.47470001E+02  0.16169E+07
 0.47520000E+02  0.18934E+07
 0.47570000E+02  0.18847E+07
 0.47620003E+02  0.17613E+07
 0.47670002E+02  0.14928E+07
 0.47720001E+02  0.93926E+06
 0.47770000E+02  0.21678E+06
 0.47820000E+02 -0.32498E+06
 0.47870003E+02 -0.90144E+06
 0.47920002E+02 -0.17290E+07
 0.47970001E+02 -0.22235E+07
 0.48020000E+02 -0.24111E+07
 0.48070000E+02 -0.26594E+07
 0.48120003E+02 -0.27404E+07
 0.48170002E+02 -0.24999E+07
 0.48220001E+02 -0.19026E+07
 0.48270000E+02 -0.10218E+07
 0.48320000E+02  0.66170E+04
 0.48370003E+02  0.87552E+06
 0.48420002E+02  0.13389E+07
 0.48470001E+02  0.14414E+07
 0.48520000E+02  0.12574E+07
 0.48570000E+02  0.10741E+07
 0.48620003E+02  0.81521E+06
 0.48670002E+02  0.49278E+06
 0.48720001E+02  0.47276E+06
 0.48770000E+02  0.71866E+06
 0.48820000E+02  0.99632E+06
 0.48870003E+02  0.11898E+07
 0.48920002E+02  0.12236E+07
 0.48970001E+02  0.10197E+07
 0.49020000E+02  0.80539E+06
 0.49070000E+02  0.63960E+06
 0.49120003E+02  0.66971E+06
 0.49170002E+02  0.76992E+06
 0.49220001E+02  0.70043E+06
 0.49270000E+02  0.67342E+06
 0.49320000E+02  0.51564E+06
 0.49370003E+02  0.31938E+06
 0.49420002E+02  0.25058E+06
 0.49470001E+02  0.35621E+06
 0.49520000E+02  0.56091E+06
 0.49570000E+02  0.75811E+06
 0.49620003E+02  0.85903E+06
 0.49670002E+02  0.68177E+06
 0.49720001E+02  0.51866E+06
 0.49770000E+02  0.49158E+06
 0.49820000E+02  0.52259E+06
 0.49870003E+02  0.41700E+06
 0.49920002E+02  0.17534E+06
 0.49970001E+02  0.11136E+06
 0.50020000E+02  0.86257E+05
 0.50070000E+02 -0.20758E+06
 0.50120003E+02 -0.61290E+06
 0.50170002E+02 -0.82918E+06
 0.50220001E+02 -0.10435E+07
 0.50270000E+02 -0.13382E+07
 0.50320000E+02 -0.14946E+07
 0.50370003E+02 -0.14214E+07
 0.50420002E+02 -0.10272E+07
 0.50470001E+02 -0.40947E+06
 0.50520000E+02  0.70081E+05
 0.50570000E+02  0.36871E+06
 0.50620003E+02  0.50005E+06
 0.50670002E+02  0.27212E+06
 0.50720001E+02 -0.57597E+05
 0.50770000E+02 -0.69429E+05
 0.50820000E+02  0.20295E+06
 0.50870003E+02  0.55093E+06
 0.50920002E+02  0.89302E+06
 0.50970001E+02  0.11491E+07
 0.51020000E+02  0.12334E+07
 0.51070000E+02  0.10603E+07
 0.51120003E+02  0.74290E+06
 0.51170002E+02  0.54326E+06
 0.51220001E+02  0.48430E+06
 0.51270000E+02  0.33788E+06
 0.51320000E+02  0.98549E+05
 0.51370003E+02 -0.46806E+05
 0.51420002E+02 -0.60516E+05
 0.51470001E+02  0.24210E+06
 0.51520000E+02  0.59548E+06
 0.51570000E+02  0.58653E+06
 0.51620003E+02  0.40959E+06
 0.51670002E+02  0.14729E+06
 0.51720001E+02 -0.20336E+06
 0.51770000E+02 -0.48430E+06
 0.51820000E+02 -0.63670E+06
 0.51870003E+02 -0.75683E+06
 0.51920002E+02 -0.81607E+06
 0.51970001E+02 -0.80882E+06
 0.52020000E+02 -0.76090E+06
 0.52070000E+02 -0.48735E+06
 0.52120003E+02 -0.21619E+06
 0.52170002E+02 -0.12709E+06
 0.52220001E+02  0.12414E+06
 0.52270000E+02  0.56076E+06
 0.52320000E+02  0.88324E+06
 0.52370003E+02  0.96870E+06
 0.52420002E+02  0.86186E+06
 0.52470001E+02  0.54802E+06
 0.52520000E+02  0.22348E+06
 0.52570000E+02  0.20022E+06
 0.52620003E+02  0.47168E+06
 0.52670002E+02  0.75087E+06
 0.52720001E+02  0.61081E+06
 0.52770000E+02  0.11609E+06
 0.52820000E+02 -0.36272E+06
 0.52870003E+02 -0.63672E+06
 0.52920002E+02 -0.54487E+06
 0.52970001E+02 -0.24956E+06
 0.53020000E+02 -0.33014E+05
 0.53070000E+02  0.10458E+06
 0.53120003E+02  0.19215E+06
 0.53170002E+02  0.19586E+06
 0.53220001E+02  0.89604E+05
 0.53270000E+02 -0.78281E+05
 0.53320000E+02 -0.17354E+06
 0.53370003E+02 -0.24507E+06
 0.53420002E+02 -0.37707E+06
 0.53470001E+02 -0.50800E+06
 0.53520000E+02 -0.61443E+06
 0.53570000E+02 -0.68695E+06
 0.53620003E+02 -0.63132E+06
 0.53670002E+02 -0.45200E+06
 0.53720001E+02 -0.25457E+06
 0.53770000E+02 -0.11781E+06
 0.53820000E+02 -0.12790E+06
 0.53870003E+02 -0.23846E+06
 0.53920002E+02 -0.37145E+06
 0.53970001E+02 -0.47994E+06
 0.54020000E+02 -0.68875E+06
 0.54070000E+02 -0.10522E+07
 0.54120003E+02 -0.13897E+07
 0.54170002E+02 -0.15625E+07
 0.54220001E+02 -0.14206E+07
 0.54270000E+02 -0.12369E+07
 0.54320000E+02 -0.12878E+07
 0.54370003E+02 -0.14133E+07
 0.54420002E+02 -0.14918E+07
 0.54470001E+02 -0.14515E+07
 0.54520000E+02 -0.13308E+07
 0.54570000E+02 -0.11826E+07
 0.54620003E+02 -0.10648E+07
 0.54670002E+02 -0.91475E+06
 0.54720001E+02 -0.64767E+06
 0.54770000E+02 -0.31108E+06
 0.54820000E+02  0.24791E+06
 0.54870003E+02  0.94800E+06
 0.54920002E+02  0.15130E+07
 0.54970001E+02  0.18532E+07
 0.55020000E+02  0.19744E+07
 0.55070000E+02  0.19845E+07
 0.55120003E+02  0.20110E+07
 0.55170002E+02  0.21232E+07
 0.55220001E+02  0.21582E+07
 0.55270000E+02  0.19130E+07
 0.55320000E+02  0.13972E+07
 0.55370003E+02  0.83723E+06
 0.55420002E+02  0.43447E+06
 0.55470001E+02  0.82690E+05
 0.55520000E+02 -0.23545E+06
 0.55570000E+02 -0.42238E+06
 0.55620003E+02 -0.35183E+06
 0.55670002E+02  0.11416E+06
 0.55720001E+02  0.66029E+06
 0.55770000E+02  0.10174E+07
 0.55820000E+02  0.11364E+07
 0.55870003E+02  0.98422E+06
 0.55920002E+02  0.87024E+06
 0.55970001E+02  0.80794E+06
 0.56020000E+02  0.66859E+06
 0.56070000E+02  0.54846E+06
 0.56120003E+02  0.34409E+06
 0.56170002E+02 -0.47043E+05
 0.56220001E+02 -0.56519E+06
 0.56270000E+02 -0.99312E+06
 0.56320000E+02 -0.12998E+07
 0.56370003E+02 -0.16175E+07
 0.56420002E+02 -0.18616E+07
 0.56470001E+02 -0.18904E+07
 0.56520000E+02 -0.17145E+07
 0.56570000E+02 -0.14807E+07
 0.56620003E+02 -0.13354E+07
 0.56670002E+02 -0.14061E+07
 0.56720001E+02 -0.16645E+07
 0.56770000E+02 -0.18897E+07
 0.56820000E+02 -0.19818E+07
 0.56870003E+02 -0.20095E+07
 0.56920002E+02 -0.19813E+07
 0.56970001E+02 -0.18805E+07
 0.57020000E+02 -0.16285E+07
 0.57070000E+02 -0.10493E+07
 0.57120003E+02 -0.40880E+06
 0.57170002E+02 -0.76018E+05
 0.57220001E+02  0.87406E+05
 0.57270000E+02  0.21101E+06
 0.57320000E+02  0.31909E+06
 0.57370003E+02  0.43487E+06
 0.57420002E+02  0.54628E+06
 0.57470001E+02  0.64821E+06
 0.57520000E+02  0.71564E+06
 0.57570000E+02  0.76995E+06
 0.57620003E+02  0.80223E+06
 0.57670002E+02  0.92895E+06
 0.57720001E+02  0.12077E+07
 0.57770000E+02  0.14767E+07
 0.57820000E+02  0.16665E+07
 0.57870003E+02  0.17876E+07
 0.57920002E+02  0.18633E+07
 0.57970001E+02  0.18273E+07
 0.58020000E+02  0.17436E+07
 0.58070000E+02  0.17455E+07
 0.58120003E+02  0.17357E+07
 0.58170002E+02  0.17720E+07
 0.58220001E+02  0.18328E+07
 0.58270000E+02  0.17628E+07
 0.58320000E+02  0.16452E+07
 0.58370003E+02  0.14688E+07
 0.58420002E+02  0.12365E+07
 0.58470001E+02  0.10059E+07
 0.58520000E+02  0.68390E+06
 0.58570000E+02  0.31758E+06
 0.58620003E+02  0.11924E+06
 0.58670002E+02  0.15728E+06
 0.58720001E+02  0.28849E+06
 0.58770000E+02  0.30113E+06
 0.58820000E+02  0.84182E+05
 0.58870003E+02 -0.15757E+06
 0.58920002E+02 -0.14696E+06
 0.58970001E+02 -0.23225E+05
 0.59020000E+02 -0.11495E+05
 0.59070000E+02 -0.95410E+05
 0.59120003E+02 -0.26633E+06
 0.59170002E+02 -0.44016E+06
 0.59220001E+02 -0.57371E+06
 0.59270000E+02 -0.69665E+06
 0.59320000E+02 -0.75470E+06
 0.59370003E+02 -0.87438E+06
 0.59420002E+02 -0.10739E+07
 0.59470001E+02 -0.11402E+07
 0.59520000E+02 -0.11130E+07
 0.59570000E+02 -0.11956E+07
 0.59620003E+02 -0.13250E+07
 0.59670002E+02 -0.12997E+07
 0.59720001E+02 -0.11906E+07
 0.59770000E+02 -0.11351E+07
 0.59820000E+02 -0.11216E+07
 0.59870003E+02 -0.10430E+07
 0.59920002E+02 -0.77530E+06
 0.59970001E+02 -0.42096E+06
 0.60020000E+02 -0.79017E+05
 0.60070000E+02  0.21371E+06
 0.60120003E+02  0.26611E+06
 0.60170002E+02  0.12192E+06
 0.60220001E+02  0.46700E+05
 0.60270000E+02  0.10630E+06
 0.60320000E+02  0.16361E+06
 0.60370003E+02  0.18200E+06
 0.60420002E+02  0.31439E+06
 0.60470001E+02  0.55128E+06
 0.60520000E+02  0.75172E+06
 0.60570000E+02  0.82432E+06
 0.60620003E+02  0.79925E+06
 0.60670002E+02  0.77114E+06
 0.60720001E+02  0.66297E+06
 0.60770000E+02  0.38357E+06
 0.60820000E+02  0.57431E+05
 0.60870003E+02 -0.22248E+06
 0.60920002E+02 -0.50252E+06
 0.60970001E+02 -0.71494E+06
 0.61020000E+02 -0.85633E+06
 0.61070004E+02 -0.96036E+06
 0.61119999E+02 -0.10521E+07
 0.61170002E+02 -0.11696E+07
 0.61220005E+02 -0.12784E+07
 0.61270000E+02 -0.13556E+07
 0.61320004E+02 -0.12718E+07
 0.61369999E+02 -0.10053E+07
 0.61420002E+02 -0.63679E+06
 0.61470005E+02 -0.18670E+06
 0.61520000E+02  0.26869E+06
 0.61570004E+02  0.69052E+06
 0.61619999E+02  0.10436E+07
 0.61670002E+02  0.12344E+07
 0.61720005E+02  0.13244E+07
 0.61770000E+02  0.14090E+07
 0.61820004E+02  0.15148E+07
 0.61869999E+02  0.16181E+07
 0.61920002E+02  0.15672E+07
 0.61970005E+02  0.13884E+07
 0.62020000E+02  0.11595E+07
 0.62070004E+02  0.97027E+06
 0.62119999E+02  0.91070E+06
 0.62170002E+02  0.79932E+06
 0.62220005E+02  0.51788E+06
 0.62270000E+02  0.16259E+06
 0.62320004E+02 -0.12417E+06
 0.62369999E+02 -0.35585E+06
 0.62420002E+02 -0.56852E+06
 0.62470005E+02 -0.76015E+06
 0.62520000E+02 -0.98886E+06
 0.62570004E+02 -0.11139E+07
 0.62619999E+02 -0.10686E+07
 0.62670002E+02 -0.99532E+06
 0.62720005E+02 -0.94274E+06
 0.62770000E+02 -0.83798E+06
 0.62820004E+02 -0.65029E+06
 0.62869999E+02 -0.49405E+06
 0.62920002E+02 -0.36381E+06
 0.62970005E+02 -0.21898E+06
 0.63020000E+02 -0.72306E+05
 0.63070004E+02  0.14951E+06
 0.63119999E+02  0.43223E+06
 0.63170002E+02  0.68230E+06
 0.63220005E+02  0.81997E+06
 0.63270000E+02  0.90569E+06
 0.63320004E+02  0.10023E+07
 0.63369999E+02  0.10081E+07
 0.63420002E+02  0.83340E+06
 0.63470005E+02  0.52844E+06
 0.63520000E+02  0.18455E+06
 0.63570004E+02 -0.17419E+06
 0.63619999E+02 -0.45937E+06
 0.63670002E+02 -0.75870E+06
 0.63720005E+02 -0.11961E+07
 0.63770000E+02 -0.16639E+07
 0.63820004E+02 -0.20721E+07
 0.63869999E+02 -0.23445E+07
 0.63920002E+02 -0.24720E+07
 0.63970005E+02 -0.24617E+07
 0.64019997E+02 -0.23044E+07
 0.64070000E+02 -0.20523E+07
 0.64119995E+02 -0.17223E+07
 0.64169998E+02 -0.12818E+07
 0.64220001E+02 -0.82161E+06
 0.64269997E+02 -0.49694E+06
 0.64320000E+02 -0.23553E+06
 0.64369995E+02  0.52482E+05
 0.64419998E+02  0.31175E+06
 0.64470001E+02  0.49332E+06
 0.64519997E+02  0.61481E+06
 0.64570000E+02  0.72491E+06
 0.64619995E+02  0.81158E+06
 0.64669998E+02  0.84100E+06
 0.64720001E+02  0.78719E+06
 0.64769997E+02  0.71304E+06
 0.64820000E+02  0.69740E+06
 0.64869995E+02  0.73400E+06
 0.64919998E+02  0.80055E+06
 0.64970001E+02  0.79804E+06
 0.65019997E+02  0.68431E+06
 0.65070000E+02  0.58422E+06
 0.65119995E+02  0.49739E+06
 0.65169998E+02  0.30095E+06
 0.65220001E+02  0.50450E+05
 0.65269997E+02 -0.16488E+06
 0.65320000E+02 -0.31967E+06
 0.65369995E+02 -0.34814E+06
 0.65419998E+02 -0.25957E+06
 0.65470001E+02 -0.94740E+05
 0.65519997E+02  0.98330E+05
 0.65570000E+02  0.23052E+06
 0.65619995E+02  0.32146E+06
 0.65669998E+02  0.40231E+06
 0.65720001E+02  0.39943E+06
 0.65769997E+02  0.24858E+06
 0.65820000E+02  0.11737E+05
 0.65869995E+02 -0.15865E+06
 0.65919998E+02 -0.17676E+06
 0.65970001E+02 -0.71853E+05
 0.66019997E+02  0.35153E+05
 0.66070000E+02  0.75516E+05
 0.66119995E+02  0.13575E+06
 0.66169998E+02  0.29779E+06
 0.66220001E+02  0.49775E+06
 0.66269997E+02  0.68799E+06
 0.66320000E+02  0.87797E+06
 0.66369995E+02  0.10139E+07
 0.66419998E+02  0.10909E+07
 0.66470001E+02  0.11654E+07
 0.66519997E+02  0.12533E+07
 0.66570000E+02  0.13333E+07
 0.66619995E+02  0.13914E+07
 0.66669998E+02  0.13945E+07
 0.66720001E+02  0.12957E+07
 0.66769997E+02  0.11020E+07
 0.66820000E+02  0.82744E+06
 0.66869995E+02  0.51622E+06
 0.66919998E+02  0.28130E+06
 0.66970001E+02  0.14364E+06
 0.67019997E+02  0.49339E+05
 0.67070000E+02 -0.33750E+04
 0.67119995E+02 -0.73606E+05
 0.67169998E+02 -0.20604E+06
 0.67220001E+02 -0.36385E+06
 0.67269997E+02 -0.52810E+06
 0.67320000E+02 -0.60401E+06
 0.67369995E+02 -0.62544E+06
 0.67419998E+02 -0.72950E+06
 0.67470001E+02 -0.80239E+06
 0.67519997E+02 -0.80385E+06
 0.67570000E+02 -0.80915E+06
 0.67619995E+02 -0.78417E+06
 0.67669998E+02 -0.74632E+06
 0.67720001E+02 -0.70565E+06
 0.67769997E+02 -0.63650E+06
 0.67820000E+02 -0.55137E+06
 0.67869995E+02 -0.46726E+06
 0.67919998E+02 -0.39228E+06
 0.67970001E+02 -0.32825E+06
 0.68019997E+02 -0.26783E+06
 0.68070000E+02 -0.19410E+06
 0.68119995E+02 -0.71028E+05
 0.68169998E+02  0.95319E+05
 0.68220001E+02  0.20306E+06
 0.68269997E+02  0.20442E+06
 0.68320000E+02  0.86757E+05
 0.68369995E+02 -0.65349E+05
 0.68419998E+02 -0.82538E+05
 0.68470001E+02 -0.54611E+05
 0.68519997E+02 -0.48810E+05
 0.68570000E+02 -0.32969E+05
 0.68619995E+02 -0.72919E+05
 0.68669998E+02 -0.11174E+06
 0.68720001E+02 -0.79079E+05
 0.68769997E+02  0.27951E+05
 0.68820000E+02  0.14613E+06
 0.68869995E+02  0.21654E+06
 0.68919998E+02  0.28444E+06
 0.68970001E+02  0.37444E+06
 0.69019997E+02  0.48831E+06
 0.69070000E+02  0.56410E+06
 0.69119995E+02  0.50897E+06
 0.69169998E+02  0.34405E+06
 0.69220001E+02  0.19432E+06
 0.69269997E+02  0.10619E+06
 0.69320000E+02  0.26794E+05
 0.69369995E+02 -0.36711E+05
 0.69419998E+02 -0.92477E+05
 0.69470001E+02 -0.17432E+06
 0.69519997E+02 -0.29153E+06
 0.69570000E+02 -0.45263E+06
 0.69619995E+02 -0.58592E+06
 0.69669998E+02 -0.61386E+06
 0.69720001E+02 -0.53892E+06
 0.69769997E+02 -0.48021E+06
 0.69820000E+02 -0.50812E+06
 0.69869995E+02 -0.51580E+06
 0.69919998E+02 -0.48594E+06
 0.69970001E+02 -0.42075E+06
 0.70019997E+02 -0.28901E+06
 0.70070000E+02 -0.13130E+06
 0.70119995E+02 -0.13048E+05
 0.70169998E+02  0.53379E+05
 0.70220001E+02  0.13081E+06
 0.70269997E+02  0.21524E+06
 0.70320000E+02  0.26257E+06
 0.70369995E+02  0.28752E+06
 0.70419998E+02  0.33612E+06
 0.70470001E+02  0.36714E+06
 0.70519997E+02  0.35778E+06
 0.70570000E+02  0.35163E+06
 0.70619995E+02  0.38824E+06
 0.70669998E+02  0.48753E+06
 0.70720001E+02  0.57204E+06
 0.70769997E+02  0.61088E+06
 0.70820000E+02  0.59370E+06
 0.70869995E+02  0.49479E+06
 0.70919998E+02  0.34399E+06
 0.70970001E+02  0.18718E+06
 0.71019997E+02  0.88237E+05
 0.71070000E+02  0.65815E+05
 0.71119995E+02  0.94415E+05
 0.71169998E+02  0.13357E+06
 0.71220001E+02  0.14570E+06
 0.71269997E+02  0.15282E+06
 0.71320000E+02  0.20081E+06
 0.71369995E+02  0.32451E+06
 0.71419998E+02  0.49501E+06
 0.71470001E+02  0.57035E+06
 0.71519997E+02  0.49811E+06
 0.71570000E+02  0.37446E+06
 0.71619995E+02  0.27415E+06
 0.71669998E+02  0.23516E+06
 0.71720001E+02  0.24629E+06
 0.71769997E+02  0.24219E+06
 0.71820000E+02  0.18669E+06
 0.71869995E+02  0.91799E+05
 0.71919998E+02 -0.56410E+05
 0.71970001E+02 -0.25281E+06
 0.72019997E+02 -0.42194E+06
 0.72070000E+02 -0.53845E+06
 0.72119995E+02 -0.64983E+06
 0.72169998E+02 -0.76771E+06
 0.72220001E+02 -0.85298E+06
 0.72269997E+02 -0.91533E+06
 0.72320000E+02 -0.95854E+06
 0.72369995E+02 -0.94222E+06
 0.72419998E+02 -0.88950E+06
 0.72470001E+02 -0.82517E+06
 0.72519997E+02 -0.71924E+06
 0.72570000E+02 -0.55908E+06
 0.72619995E+02 -0.38706E+06
 0.72669998E+02 -0.22012E+06
 0.72720001E+02 -0.49100E+05
 0.72769997E+02  0.10727E+06
 0.72820000E+02  0.24968E+06
 0.72869995E+02  0.35579E+06
 0.72919998E+02  0.35212E+06
 0.72970001E+02  0.19985E+06
 0.73019997E+02  0.52000E+02
 0.73070000E+02 -0.11053E+06
 0.73119995E+02 -0.10195E+06
 0.73169998E+02 -0.52822E+05
 0.73220001E+02 -0.49784E+05
 0.73269997E+02 -0.11599E+05
 0.73320000E+02  0.11992E+06
 0.73369995E+02  0.27432E+06
 0.73419998E+02  0.40399E+06
 0.73470001E+02  0.45592E+06
 0.73519997E+02  0.39277E+06
 0.73570000E+02  0.27758E+06
 0.73619995E+02  0.19478E+06
 0.73669998E+02  0.12882E+06
 0.73720001E+02  0.98352E+05
 0.73769997E+02  0.13245E+06
 0.73820000E+02  0.15865E+06
 0.73869995E+02  0.14357E+06
 0.73919998E+02  0.88803E+05
 0.73970001E+02  0.19997E+05
 0.74019997E+02 -0.17290E+04
 0.74070000E+02 -0.24400E+03
 0.74119995E+02 -0.31055E+05
 0.74169998E+02 -0.87214E+05
 0.74220001E+02 -0.16815E+06
 0.74269997E+02 -0.27922E+06
 0.74320000E+02 -0.35814E+06
 0.74369995E+02 -0.36613E+06
 0.74419998E+02 -0.36448E+06
 0.74470001E+02 -0.37423E+06
 0.74519997E+02 -0.35062E+06
 0.74570000E+02 -0.26761E+06
 0.74619995E+02 -0.19094E+06
 0.74669998E+02 -0.19926E+06
 0.74720001E+02 -0.27546E+06
 0.74769997E+02 -0.38988E+06
 0.74820000E+02 -0.47635E+06
 0.74869995E+02 -0.49639E+06
 0.74919998E+02 -0.47536E+06
 0.74970001E+02 -0.43738E+06
 0.75019997E+02 -0.40700E+06
 0.75070000E+02 -0.32772E+06
 0.75119995E+02 -0.16298E+06
 0.75169998E+02 -0.20914E+05
 0.75220001E+02  0.42798E+05
 0.75269997E+02  0.82899E+05
 0.75320000E+02  0.10959E+06
 0.75369995E+02  0.12732E+06
 0.75419998E+02  0.14977E+06
 0.75470001E+02  0.19296E+06
 0.75519997E+02  0.25970E+06
 0.75570000E+02  0.30024E+06
 0.75619995E+02  0.30677E+06
 0.75669998E+02  0.30136E+06
 0.75720001E+02  0.28168E+06
 0.75769997E+02  0.25311E+06
 0.75820000E+02  0.25044E+06
 0.75869995E+02  0.28565E+06
 0.75919998E+02  0.31505E+06
 0.75970001E+02  0.34138E+06
 0.76019997E+02  0.37981E+06
 0.76070000E+02  0.38989E+06
 0.76119995E+02  0.36291E+06
 0.76169998E+02  0.31847E+06
 0.76220001E+02  0.27052E+06
 0.76269997E+02  0.17662E+06
 0.76320000E+02 -0.77000E+02
 0.76369995E+02 -0.19386E+06
 0.76419998E+02 -0.34526E+06
 0.76470001E+02 -0.41710E+06
 0.76519997E+02 -0.37961E+06
 0.76570000E+02 -0.27162E+06
 0.76619995E+02 -0.17853E+06
 0.76669998E+02 -0.12840E+06
 0.76720001E+02 -0.81147E+05
 0.76769997E+02 -0.33158E+05
 0.76820000E+02 -0.54490E+04
 0.76869995E+02  0.38050E+04
 0.76919998E+02 -0.18493E+05
 0.76970001E+02 -0.63943E+05
 0.77019997E+02 -0.94618E+05
 0.77070000E+02 -0.10662E+06
 0.77119995E+02 -0.98562E+05
 0.77169998E+02 -0.61564E+05
 0.77220001E+02 -0.14375E+05
 0.77269997E+02  0.29541E+05
 0.77320000E+02  0.10517E+06
 0.77369995E+02  0.21118E+06
 0.77419998E+02  0.27803E+06
 0.77470001E+02  0.24052E+06
 0.77519997E+02  0.11772E+06
 0.77570000E+02  0.20880E+04
 0.77619995E+02 -0.81336E+05
 0.77669998E+02 -0.12140E+06
 0.77720001E+02 -0.11441E+06
 0.77769997E+02 -0.72390E+05
 0.77820000E+02  0.16974E+05
 0.77869995E+02  0.92675E+05
 0.77919998E+02  0.13652E+06
 0.77970001E+02  0.15380E+06
 0.78019997E+02  0.12587E+06
 0.78070000E+02  0.11688E+06
 0.78119995E+02  0.16128E+06
 0.78169998E+02  0.25736E+06
 0.78220001E+02  0.38151E+06
 0.78269997E+02  0.49140E+06
 0.78320000E+02  0.58558E+06
 0.78369995E+02  0.66658E+06
 0.78419998E+02  0.72666E+06
 0.78470001E+02  0.75798E+06
 0.78519997E+02  0.77083E+06
 0.78570000E+02  0.76671E+06
 0.78619995E+02  0.74850E+06
 0.78669998E+02  0.72093E+06
 0.78720001E+02  0.68104E+06
 0.78769997E+02  0.66291E+06
 0.78820000E+02  0.67801E+06
 0.78869995E+02  0.69074E+06
 0.78919998E+02  0.67093E+06
 0.78970001E+02  0.59684E+06
 0.79019997E+02  0.47383E+06
 0.79070000E+02  0.31990E+06
 0.79119995E+02  0.16541E+06
 0.79169998E+02  0.55979E+05
 0.79220001E+02 -0.45532E+05
 0.79269997E+02 -0.18400E+06
 0.79320000E+02 -0.31310E+06
 0.79369995E+02 -0.36073E+06
 0.79419998E+02 -0.32204E+06
 0.79470001E+02 -0.25910E+06
 0.79519997E+02 -0.21490E+06
 0.79570000E+02 -0.21530E+06
 0.79619995E+02 -0.21804E+06
 0.79669998E+02 -0.19622E+06
 0.79720001E+02 -0.17432E+06
 0.79769997E+02 -0.13106E+06
 0.79820000E+02 -0.94601E+05
 0.79869995E+02 -0.11059E+06
 0.79919998E+02 -0.16711E+06
 0.79970001E+02 -0.22658E+06
 0.80019997E+02 -0.25199E+06
 0.80070000E+02 -0.25848E+06
 0.80119995E+02 -0.29549E+06
 0.80169998E+02 -0.36759E+06
 0.80220001E+02 -0.46245E+06
 0.80269997E+02 -0.56768E+06
 0.80320000E+02 -0.65994E+06
 0.80369995E+02 -0.72114E+06
 0.80419998E+02 -0.74822E+06
 0.80470001E+02 -0.75617E+06
 0.80519997E+02 -0.74094E+06
 0.80570000E+02 -0.70792E+06
 0.80619995E+02 -0.67608E+06
 0.80669998E+02 -0.68006E+06
 0.80720001E+02 -0.71403E+06
 0.80769997E+02 -0.71665E+06
 0.80820000E+02 -0.71098E+06
 0.80869995E+02 -0.72534E+06
 0.80919998E+02 -0.70395E+06
 0.80970001E+02 -0.61255E+06
 0.81019997E+02 -0.48960E+06
 0.81070000E+02 -0.38501E+06
 0.81119995E+02 -0.29998E+06
 0.81169998E+02 -0.21706E+06
 0.81220001E+02 -0.14144E+06
 0.81269997E+02 -0.11483E+06
 0.81320000E+02 -0.14587E+06
 0.81369995E+02 -0.17658E+06
 0.81419998E+02 -0.19279E+06
 0.81470001E+02 -0.22705E+06
 0.81519997E+02 -0.25900E+06
 0.81570000E+02 -0.23778E+06
 0.81619995E+02 -0.16900E+06
 0.81669998E+02 -0.87206E+05
 0.81720001E+02 -0.16914E+05
 0.81769997E+02  0.52071E+05
 0.81820000E+02  0.16213E+06
 0.81869995E+02  0.29952E+06
 0.81919998E+02  0.42324E+06
 0.81970001E+02  0.51812E+06
 0.82019997E+02  0.57588E+06
 0.82070000E+02  0.59079E+06
 0.82119995E+02  0.56744E+06
 0.82169998E+02  0.53575E+06
 0.82220001E+02  0.52194E+06
 0.82269997E+02  0.52339E+06
 0.82320000E+02  0.53105E+06
 0.82369995E+02  0.54955E+06
 0.82419998E+02  0.55749E+06
 0.82470001E+02  0.52559E+06
 0.82519997E+02  0.46396E+06
 0.82570000E+02  0.38675E+06
 0.82619995E+02  0.31573E+06
 0.82669998E+02  0.24974E+06
 0.82720001E+02  0.16434E+06
 0.82769997E+02  0.61206E+05
 0.82820000E+02 -0.46098E+05
 0.82869995E+02 -0.13473E+06
 0.82919998E+02 -0.19339E+06
 0.82970001E+02 -0.23703E+06
 0.83019997E+02 -0.28257E+06
 0.83070000E+02 -0.31628E+06
 0.83119995E+02 -0.30792E+06
 0.83169998E+02 -0.25980E+06
 0.83220001E+02 -0.19832E+06
 0.83269997E+02 -0.14657E+06
 0.83320000E+02 -0.10589E+06
 0.83369995E+02 -0.72487E+05
 0.83419998E+02 -0.39123E+05
 0.83470001E+02  0.13970E+05
 0.83519997E+02  0.92091E+05
 0.83570000E+02  0.19235E+06
 0.83619995E+02  0.29008E+06
 0.83669998E+02  0.36695E+06
 0.83720001E+02  0.39976E+06
 0.83769997E+02  0.34828E+06
 0.83820000E+02  0.23652E+06
 0.83869995E+02  0.13160E+06
 0.83919998E+02  0.57373E+05
 0.83970001E+02 -0.13393E+05
 0.84019997E+02 -0.95942E+05
 0.84070000E+02 -0.20490E+06
 0.84119995E+02 -0.31354E+06
 0.84169998E+02 -0.37211E+06
 0.84220001E+02 -0.40208E+06
 0.84269997E+02 -0.42621E+06
 0.84320000E+02 -0.44234E+06
 0.84369995E+02 -0.42607E+06
 0.84419998E+02 -0.34407E+06
 0.84470001E+02 -0.21317E+06
 0.84519997E+02 -0.91594E+05
 0.84570000E+02 -0.10493E+05
 0.84619995E+02  0.42640E+05
 0.84669998E+02  0.86647E+05
 0.84720001E+02  0.12294E+06
 0.84769997E+02  0.10559E+06
 0.84820000E+02  0.56770E+04
 0.84869995E+02 -0.12927E+06
 0.84919998E+02 -0.22499E+06
 0.84970001E+02 -0.25094E+06
 0.85019997E+02 -0.22840E+06
 0.85070000E+02 -0.18866E+06
 0.85119995E+02 -0.15034E+06
 0.85169998E+02 -0.91212E+05
 0.85220001E+02 -0.22152E+05
 0.85269997E+02  0.27029E+05
 0.85320000E+02  0.86153E+05
 0.85369995E+02  0.17718E+06
 0.85419998E+02  0.30789E+06
 0.85470001E+02  0.45286E+06
 0.85519997E+02  0.54662E+06
 0.85570000E+02  0.56844E+06
 0.85619995E+02  0.55458E+06
 0.85669998E+02  0.55524E+06
 0.85720001E+02  0.57473E+06
 0.85769997E+02  0.56237E+06
 0.85820000E+02  0.48845E+06
 0.85869995E+02  0.36761E+06
 0.85919998E+02  0.27115E+06
 0.85970001E+02  0.26327E+06
 0.86019997E+02  0.30980E+06
 0.86070000E+02  0.35880E+06
 0.86119995E+02  0.38618E+06
 0.86169998E+02  0.38171E+06
 0.86220001E+02  0.36958E+06
 0.86269997E+02  0.38420E+06
 0.86320000E+02  0.40577E+06
 0.86369995E+02  0.39654E+06
 0.86419998E+02  0.35520E+06
 0.86470001E+02  0.29343E+06
 0.86519997E+02  0.24188E+06
 0.86570000E+02  0.20219E+06
 0.86619995E+02  0.14682E+06
 0.86669998E+02  0.86199E+05
 0.86720001E+02  0.45378E+05
 0.86769997E+02  0.26608E+05
 0.86820000E+02  0.10149E+05
 0.86869995E+02 -0.16639E+05
 0.86919998E+02 -0.64893E+05
 0.86970001E+02 -0.13227E+06
 0.87019997E+02 -0.21635E+06
 0.87070000E+02 -0.33385E+06
 0.87119995E+02 -0.46373E+06
 0.87169998E+02 -0.59120E+06
 0.87220001E+02 -0.69946E+06
 0.87269997E+02 -0.75017E+06
 0.87320000E+02 -0.75532E+06
 0.87369995E+02 -0.74792E+06
 0.87419998E+02 -0.73072E+06
 0.87470001E+02 -0.68650E+06
 0.87519997E+02 -0.62726E+06
 0.87570000E+02 -0.57324E+06
 0.87619995E+02 -0.53464E+06
 0.87669998E+02 -0.50541E+06
 0.87720001E+02 -0.45787E+06
 0.87769997E+02 -0.41606E+06
 0.87820000E+02 -0.39909E+06
 0.87869995E+02 -0.37233E+06
 0.87919998E+02 -0.30567E+06
 0.87970001E+02 -0.20653E+06
 0.88019997E+02 -0.11900E+06
 0.88070000E+02 -0.41420E+05
 0.88119995E+02  0.76930E+05
 0.88169998E+02  0.25132E+06
 0.88220001E+02  0.42977E+06
 0.88269997E+02  0.55433E+06
 0.88320000E+02  0.63703E+06
 0.88369995E+02  0.69943E+06
 0.88419998E+02  0.74163E+06
 0.88470001E+02  0.75345E+06
 0.88519997E+02  0.70959E+06
 0.88570000E+02  0.64690E+06
 0.88619995E+02  0.61992E+06
 0.88669998E+02  0.63544E+06
 0.88720001E+02  0.66938E+06
 0.88769997E+02  0.67603E+06
 0.88820000E+02  0.63271E+06
 0.88869995E+02  0.52754E+06
 0.88919998E+02  0.39585E+06
 0.88970001E+02  0.26674E+06
 0.89019997E+02  0.12747E+06
 0.89070000E+02 -0.34970E+04
 0.89119995E+02 -0.11038E+06
 0.89169998E+02 -0.16969E+06
 0.89220001E+02 -0.18977E+06
 0.89269997E+02 -0.20022E+06
 0.89320000E+02 -0.22998E+06
 0.89369995E+02 -0.30979E+06
 0.89419998E+02 -0.41145E+06
 0.89470001E+02 -0.48574E+06
 0.89519997E+02 -0.49981E+06
 0.89570000E+02 -0.46041E+06
 0.89619995E+02 -0.37903E+06
 0.89669998E+02 -0.25038E+06
 0.89720001E+02 -0.11226E+06
 0.89769997E+02 -0.23300E+05
 0.89820000E+02  0.16346E+05
 0.89869995E+02  0.67816E+05
 0.89919998E+02  0.16322E+06
 0.89970001E+02  0.26644E+06
 0.90019997E+02  0.33123E+06
 0.90070000E+02  0.35455E+06
 0.90119995E+02  0.37669E+06
 0.90169998E+02  0.42340E+06
 0.90220001E+02  0.47239E+06
 0.90269997E+02  0.48550E+06
 0.90320000E+02  0.44176E+06
 0.90369995E+02  0.36294E+06
 0.90419998E+02  0.26521E+06
 0.90470001E+02  0.14447E+06
 0.90519997E+02  0.15755E+05
 0.90570000E+02 -0.99682E+05
 0.90619995E+02 -0.18723E+06
 0.90669998E+02 -0.23969E+06
 0.90720001E+02 -0.25955E+06
 0.90769997E+02 -0.29100E+06
 0.90820000E+02 -0.33836E+06
 0.90869995E+02 -0.36218E+06
 0.90919998E+02 -0.36764E+06
 0.90970001E+02 -0.35655E+06
 0.91019997E+02 -0.33422E+06
 0.91070000E+02 -0.32210E+06
 0.91119995E+02 -0.32462E+06
 0.91169998E+02 -0.33345E+06
 0.91220001E+02 -0.34874E+06
 0.91269997E+02 -0.35522E+06
 0.91320000E+02 -0.33368E+06
 0.91369995E+02 -0.29381E+06
 0.91419998E+02 -0.25304E+06
 0.91470001E+02 -0.22755E+06
 0.91519997E+02 -0.20102E+06
 0.91570000E+02 -0.14804E+06
 0.91619995E+02 -0.65989E+05
 0.91669998E+02  0.48118E+05
 0.91720001E+02  0.18280E+06
 0.91769997E+02  0.29907E+06
 0.91820000E+02  0.36850E+06
 0.91869995E+02  0.38868E+06
 0.91919998E+02  0.36407E+06
 0.91970001E+02  0.31687E+06
 0.92019997E+02  0.27044E+06
 0.92070000E+02  0.23067E+06
 0.92119995E+02  0.19988E+06
 0.92169998E+02  0.18164E+06
 0.92220001E+02  0.17820E+06
 0.92269997E+02  0.17763E+06
 0.92320000E+02  0.16136E+06
 0.92369995E+02  0.11198E+06
 0.92419998E+02  0.21558E+05
 0.92470001E+02 -0.98775E+05
 0.92519997E+02 -0.21707E+06
 0.92570000E+02 -0.29720E+06
 0.92619995E+02 -0.35006E+06
 0.92669998E+02 -0.39215E+06
 0.92720001E+02 -0.41769E+06
 0.92769997E+02 -0.44904E+06
 0.92820000E+02 -0.49830E+06
 0.92869995E+02 -0.53151E+06
 0.92919998E+02 -0.51930E+06
 0.92970001E+02 -0.46507E+06
 0.93019997E+02 -0.38104E+06
 0.93070000E+02 -0.29645E+06
 0.93119995E+02 -0.22937E+06
 0.93169998E+02 -0.16100E+06
 0.93220001E+02 -0.72995E+05
 0.93269997E+02  0.33510E+05
 0.93320000E+02  0.12099E+06
 0.93369995E+02  0.14704E+06
 0.93419998E+02  0.10137E+06
 0.93470001E+02  0.18711E+05
 0.93519997E+02 -0.52701E+05
 0.93570000E+02 -0.94028E+05
 0.93619995E+02 -0.10533E+06
 0.93669998E+02 -0.10149E+06
 0.93720001E+02 -0.85538E+05
 0.93769997E+02 -0.57798E+05
 0.93820000E+02 -0.36492E+05
 0.93869995E+02 -0.29397E+05
 0.93919998E+02 -0.17791E+05
 0.93970001E+02  0.59920E+04
 0.94019997E+02  0.34485E+05
 0.94070000E+02  0.76676E+05
 0.94119995E+02  0.11201E+06
 0.94169998E+02  0.12398E+06
 0.94220001E+02  0.13794E+06
 0.94269997E+02  0.15994E+06
 0.94320000E+02  0.18826E+06
 0.94369995E+02  0.21465E+06
 0.94419998E+02  0.22867E+06
 0.94470001E+02  0.24166E+06
 0.94519997E+02  0.24409E+06
 0.94570000E+02  0.21980E+06
 0.94619995E+02  0.16005E+06
 0.94669998E+02  0.81835E+05
 0.94720001E+02  0.28015E+05
 0.94769997E+02  0.78790E+04
 0.94820000E+02  0.22016E+05
 0.94869995E+02  0.69219E+05
 0.94919998E+02  0.15126E+06
 0.94970001E+02  0.25518E+06
 0.95019997E+02  0.33791E+06
 0.95070000E+02  0.38642E+06
 0.95119995E+02  0.39477E+06
 0.95169998E+02  0.36169E+06
 0.95220001E+02  0.31635E+06
 0.95269997E+02  0.28126E+06
 0.95320000E+02  0.25712E+06
 0.95369995E+02  0.24065E+06
 0.95419998E+02  0.21076E+06
 0.95470001E+02  0.13833E+06
 0.95519997E+02  0.38482E+05
 0.95570000E+02 -0.70685E+05
 0.95619995E+02 -0.18114E+06
 0.95669998E+02 -0.26323E+06
 0.95720001E+02 -0.29762E+06
 0.95769997E+02 -0.28993E+06
 0.95820000E+02 -0.28273E+06
 0.95869995E+02 -0.31415E+06
 0.95919998E+02 -0.36020E+06
 0.95970001E+02 -0.38268E+06
 0.96019997E+02 -0.38202E+06
 0.96070000E+02 -0.36960E+06
 0.96119995E+02 -0.34476E+06
 0.96169998E+02 -0.32066E+06
 0.96220001E+02 -0.30671E+06
 0.96269997E+02 -0.29192E+06
 0.96320000E+02 -0.26188E+06
 0.96369995E+02 -0.20942E+06
 0.96419998E+02 -0.13608E+06
 0.96470001E+02 -0.40178E+05
 0.96519997E+02  0.61996E+05
 0.96570000E+02  0.13982E+06
 0.96619995E+02  0.17877E+06
 0.96669998E+02  0.18068E+06
 0.96720001E+02  0.16045E+06
 0.96769997E+02  0.12384E+06
 0.96820000E+02  0.63531E+05
 0.96869995E+02 -0.24695E+05
 0.96919998E+02 -0.13298E+06
 0.96970001E+02 -0.21891E+06
 0.97019997E+02 -0.26426E+06
 0.97070000E+02 -0.30368E+06
 0.97119995E+02 -0.35181E+06
 0.97169998E+02 -0.39016E+06
 0.97220001E+02 -0.38548E+06
 0.97269997E+02 -0.33791E+06
 0.97320000E+02 -0.28304E+06
 0.97369995E+02 -0.24495E+06
 0.97419998E+02 -0.22019E+06
 0.97470001E+02 -0.18381E+06
 0.97519997E+02 -0.14671E+06
 0.97570000E+02 -0.14006E+06
 0.97619995E+02 -0.15191E+06
 0.97669998E+02 -0.13667E+06
 0.97720001E+02 -0.93233E+05
 0.97769997E+02 -0.59188E+05
 0.97820000E+02 -0.28087E+05
 0.97869995E+02  0.21952E+05
 0.97919998E+02  0.89388E+05
 0.97970001E+02  0.14455E+06
 0.98019997E+02  0.15660E+06
 0.98070000E+02  0.12885E+06
 0.98119995E+02  0.81755E+05
 0.98169998E+02  0.50897E+05
 0.98220001E+02  0.73316E+05
 0.98269997E+02  0.14453E+06
 0.98320000E+02  0.22785E+06
 0.98369995E+02  0.29298E+06
 0.98419998E+02  0.32651E+06
 0.98470001E+02  0.33490E+06
 0.98519997E+02  0.33212E+06
 0.98570000E+02  0.33050E+06
 0.98619995E+02  0.32882E+06
 0.98669998E+02  0.31528E+06
 0.98720001E+02  0.29071E+06
 0.98769997E+02  0.25616E+06
 0.98820000E+02  0.22711E+06
 0.98869995E+02  0.22843E+06
 0.98919998E+02  0.25845E+06
 0.98970001E+02  0.29233E+06
 0.99019997E+02  0.29537E+06
 0.99070000E+02  0.26253E+06
 0.99119995E+02  0.21473E+06
 0.99169998E+02  0.16382E+06
 0.99220001E+02  0.10811E+06
 0.99269997E+02  0.40404E+05
 0.99320000E+02 -0.24252E+05
 0.99369995E+02 -0.74447E+05
 0.99419998E+02 -0.12086E+06
 0.99470001E+02 -0.17228E+06
 0.99519997E+02 -0.22536E+06
 0.99570000E+02 -0.26455E+06
 0.99619995E+02 -0.28526E+06
 0.99669998E+02 -0.28606E+06
 0.99720001E+02 -0.27826E+06
 0.99769997E+02 -0.28090E+06
 0.99820000E+02 -0.28386E+06
 0.99869995E+02 -0.26533E+06
 0.99919998E+02 -0.21526E+06
 0.99970001E+02 -0.15247E+06
 0.10002000E+03 -0.10639E+06
 0.10007000E+03 -0.80055E+05
 0.10012000E+03 -0.46350E+05
 0.10017000E+03  0.50060E+04
 0.10022000E+03  0.47422E+05
 0.10027000E+03  0.72063E+05
 0.10032000E+03  0.96301E+05
 0.10037000E+03  0.13724E+06
 0.10042000E+03  0.20420E+06
 0.10047000E+03  0.28864E+06
 0.10052000E+03  0.36201E+06
 0.10057000E+03  0.39390E+06
 0.10062000E+03  0.38488E+06
 0.10067000E+03  0.35178E+06
 0.10072000E+03  0.29644E+06
 0.10077000E+03  0.23447E+06
 0.10082000E+03  0.18919E+06
 0.10087000E+03  0.16026E+06
 0.10092000E+03  0.13486E+06
 0.10097000E+03  0.10097E+06
 0.10102000E+03  0.62825E+05
 0.10107000E+03  0.52107E+05
 0.10112000E+03  0.10615E+06
 0.10117000E+03  0.21655E+06
 0.10122000E+03  0.33522E+06
 0.10127000E+03  0.43427E+06
 0.10132000E+03  0.50699E+06
 0.10137000E+03  0.54823E+06
 0.10142000E+03  0.56597E+06
 0.10147000E+03  0.57220E+06
 0.10152000E+03  0.56589E+06
 0.10157000E+03  0.55070E+06
 0.10162000E+03  0.53304E+06
 0.10167000E+03  0.50656E+06
 0.10172000E+03  0.46255E+06
 0.10177000E+03  0.40960E+06
 0.10182000E+03  0.37206E+06
 0.10187000E+03  0.34762E+06
 0.10192000E+03  0.30773E+06
 0.10197000E+03  0.23269E+06
 0.10202000E+03  0.12755E+06
 0.10207000E+03  0.29085E+05
 0.10212000E+03 -0.26066E+05
 0.10217000E+03 -0.40794E+05
 0.10222000E+03 -0.44123E+05
 0.10227000E+03 -0.48800E+05
 0.10232000E+03 -0.38435E+05
 0.10237000E+03  0.41850E+04
 0.10242000E+03  0.65669E+05
 0.10247000E+03  0.11789E+06
 0.10252000E+03  0.14464E+06
 0.10257000E+03  0.14164E+06
 0.10262000E+03  0.11444E+06
 0.10267000E+03  0.67786E+05
 0.10272000E+03  0.43520E+04
 0.10277000E+03 -0.64958E+05
 0.10282000E+03 -0.12449E+06
 0.10287000E+03 -0.17234E+06
 0.10292000E+03 -0.21845E+06
 0.10297000E+03 -0.26894E+06
 0.10302000E+03 -0.32996E+06
 0.10307000E+03 -0.39518E+06
 0.10312000E+03 -0.45706E+06
 0.10317000E+03 -0.51905E+06
 0.10322000E+03 -0.57945E+06
 0.10327000E+03 -0.62638E+06
 0.10332000E+03 -0.63472E+06
 0.10337000E+03 -0.60728E+06
 0.10342000E+03 -0.57513E+06
 0.10347000E+03 -0.54400E+06
 0.10352000E+03 -0.50627E+06
 0.10357000E+03 -0.47646E+06
 0.10362000E+03 -0.46235E+06
 0.10367000E+03 -0.44147E+06
 0.10372000E+03 -0.41176E+06
 0.10377000E+03 -0.38720E+06
 0.10382000E+03 -0.36167E+06
 0.10387000E+03 -0.32201E+06
 0.10392000E+03 -0.27235E+06
 0.10397000E+03 -0.22863E+06
 0.10402000E+03 -0.19328E+06
 0.10407000E+03 -0.16686E+06
 0.10412000E+03 -0.15825E+06
 0.10417000E+03 -0.17668E+06
 0.10422000E+03 -0.21271E+06
 0.10427000E+03 -0.24612E+06
 0.10432000E+03 -0.27055E+06
 0.10437000E+03 -0.28264E+06
 0.10442000E+03 -0.28375E+06
 0.10447000E+03 -0.27656E+06
 0.10452000E+03 -0.26015E+06
 0.10457000E+03 -0.24422E+06
 0.10462000E+03 -0.23609E+06
 0.10467000E+03 -0.21744E+06
 0.10472000E+03 -0.17181E+06
 0.10477000E+03 -0.12277E+06
 0.10482000E+03 -0.96166E+05
 0.10487000E+03 -0.74813E+05
 0.10492000E+03 -0.31321E+05
 0.10497000E+03  0.20514E+05
 0.10502000E+03  0.50069E+05
 0.10507000E+03  0.66137E+05
 0.10512000E+03  0.86811E+05
 0.10517000E+03  0.10118E+06
 0.10522000E+03  0.10800E+06
 0.10527000E+03  0.11952E+06
 0.10532000E+03  0.13108E+06
 0.10537000E+03  0.13386E+06
 0.10542000E+03  0.13181E+06
 0.10547000E+03  0.13472E+06
 0.10552000E+03  0.14010E+06
 0.10557000E+03  0.13358E+06
 0.10562000E+03  0.11390E+06
 0.10567000E+03  0.93895E+05
 0.10572000E+03  0.76788E+05
 0.10577000E+03  0.56787E+05
 0.10582000E+03  0.20478E+05
 0.10587000E+03 -0.34650E+05
 0.10592000E+03 -0.83055E+05
 0.10597000E+03 -0.11526E+06
 0.10602000E+03 -0.14420E+06
 0.10607000E+03 -0.16758E+06
 0.10612000E+03 -0.17106E+06
 0.10617000E+03 -0.15124E+06
 0.10622000E+03 -0.11952E+06
 0.10627000E+03 -0.85615E+05
 0.10632000E+03 -0.61703E+05
 0.10637000E+03 -0.68924E+05
 0.10642000E+03 -0.98771E+05
 0.10647000E+03 -0.12078E+06
 0.10652000E+03 -0.12786E+06
 0.10657000E+03 -0.12155E+06
 0.10662000E+03 -0.98544E+05
 0.10667000E+03 -0.51654E+05
 0.10672000E+03  0.24543E+05
 0.10677000E+03  0.11976E+06
 0.10682000E+03  0.21871E+06
 0.10687000E+03  0.30628E+06
 0.10692000E+03  0.36573E+06
 0.10697000E+03  0.38554E+06
 0.10702000E+03  0.37660E+06
 0.10707000E+03  0.37290E+06
 0.10712000E+03  0.38185E+06
 0.10717000E+03  0.38948E+06
 0.10722000E+03  0.39434E+06
 0.10727000E+03  0.38519E+06
 0.10732000E+03  0.36197E+06
 0.10737000E+03  0.34532E+06
 0.10742000E+03  0.34400E+06
 0.10747000E+03  0.35000E+06
 0.10752000E+03  0.34740E+06
 0.10757000E+03  0.33289E+06
 0.10762000E+03  0.30778E+06
 0.10767000E+03  0.27028E+06
 0.10772000E+03  0.22311E+06
 0.10777000E+03  0.17065E+06
 0.10782000E+03  0.12011E+06
 0.10787000E+03  0.71260E+05
 0.10792000E+03  0.27808E+05
 0.10797000E+03 -0.33280E+04
 0.10802000E+03 -0.27325E+05
 0.10807000E+03 -0.48898E+05
 0.10812000E+03 -0.68904E+05
 0.10817000E+03 -0.74746E+05
 0.10822000E+03 -0.56823E+05
 0.10827000E+03 -0.30145E+05
 0.10832000E+03 -0.12710E+04
 0.10837000E+03  0.31075E+05
 0.10842000E+03  0.54321E+05
 0.10847000E+03  0.52776E+05
 0.10852000E+03  0.28530E+05
 0.10857000E+03  0.74830E+04
 0.10862000E+03  0.65500E+03
 0.10867000E+03  0.64230E+04
 0.10872000E+03  0.25086E+05
 0.10877000E+03  0.47681E+05
 0.10882000E+03  0.72516E+05
 0.10887000E+03  0.97454E+05
 0.10892000E+03  0.11632E+06
 0.10897000E+03  0.12317E+06
 0.10902000E+03  0.11993E+06
 0.10907000E+03  0.11893E+06
 0.10912000E+03  0.12583E+06
 0.10917000E+03  0.14344E+06
 0.10922000E+03  0.16063E+06
 0.10927000E+03  0.15503E+06
 0.10932000E+03  0.11944E+06
 0.10937000E+03  0.65160E+05
 0.10942000E+03  0.76650E+04
 0.10947000E+03 -0.44942E+05
 0.10952000E+03 -0.94253E+05
 0.10957000E+03 -0.14086E+06
 0.10962000E+03 -0.16851E+06
 0.10967000E+03 -0.16929E+06
 0.10972000E+03 -0.15008E+06
 0.10977000E+03 -0.12381E+06
 0.10982000E+03 -0.11647E+06
 0.10987000E+03 -0.12994E+06
 0.10992000E+03 -0.15059E+06
 0.10997000E+03 -0.18696E+06
 0.11002000E+03 -0.23936E+06
 0.11007000E+03 -0.29617E+06
 0.11012000E+03 -0.34820E+06
 0.11017000E+03 -0.37297E+06
 0.11022000E+03 -0.36820E+06
 0.11027000E+03 -0.35936E+06
 0.11032000E+03 -0.36294E+06
 0.11037000E+03 -0.37763E+06
 0.11042000E+03 -0.37820E+06
 0.11047000E+03 -0.34363E+06
 0.11052000E+03 -0.28314E+06
 0.11057000E+03 -0.22218E+06
 0.11062000E+03 -0.17372E+06
 0.11067000E+03 -0.12856E+06
 0.11072000E+03 -0.75028E+05
 0.11077000E+03 -0.11002E+05
 0.11082000E+03  0.54348E+05
 0.11087000E+03  0.11087E+06
 0.11092000E+03  0.15433E+06
 0.11097000E+03  0.18323E+06
 0.11102000E+03  0.19614E+06
 0.11107000E+03  0.19272E+06
 0.11112000E+03  0.18608E+06
 0.11117000E+03  0.19165E+06
 0.11122000E+03  0.20833E+06
 0.11127000E+03  0.23297E+06
 0.11132000E+03  0.26207E+06
 0.11137000E+03  0.28362E+06
 0.11142000E+03  0.29464E+06
 0.11147000E+03  0.30305E+06
 0.11152000E+03  0.30936E+06
 0.11157000E+03  0.31026E+06
 0.11162000E+03  0.30660E+06
 0.11167000E+03  0.30137E+06
 0.11172000E+03  0.29485E+06
 0.11177000E+03  0.27678E+06
 0.11182000E+03  0.24178E+06
 0.11187000E+03  0.20698E+06
 0.11192000E+03  0.18980E+06
 0.11197000E+03  0.18670E+06
 0.11202000E+03  0.18836E+06
 0.11207000E+03  0.19392E+06
 0.11212000E+03  0.20652E+06
 0.11217000E+03  0.22836E+06
 0.11222000E+03  0.25352E+06
 0.11227000E+03  0.27452E+06
 0.11232000E+03  0.30213E+06
 0.11237000E+03  0.34706E+06
 0.11242000E+03  0.40146E+06
 0.11247000E+03  0.44453E+06
 0.11252000E+03  0.45027E+06
 0.11257000E+03  0.40876E+06
 0.11262000E+03  0.32458E+06
 0.11267000E+03  0.20545E+06
 0.11272000E+03  0.68115E+05
 0.11277000E+03 -0.60154E+05
 0.11282000E+03 -0.16753E+06
 0.11287000E+03 -0.26231E+06
 0.11292000E+03 -0.34262E+06
 0.11297000E+03 -0.41291E+06
 0.11302000E+03 -0.47758E+06
 0.11307000E+03 -0.52328E+06
 0.11312000E+03 -0.54166E+06
 0.11317000E+03 -0.53592E+06
 0.11322000E+03 -0.51213E+06
 0.11327000E+03 -0.46660E+06
 0.11332000E+03 -0.40374E+06
 0.11337000E+03 -0.33814E+06
 0.11342000E+03 -0.27617E+06
 0.11347000E+03 -0.22005E+06
 0.11352000E+03 -0.17617E+06
 0.11357000E+03 -0.15213E+06
 0.11362000E+03 -0.14461E+06
 0.11367000E+03 -0.14253E+06
 0.11372000E+03 -0.13618E+06
 0.11377000E+03 -0.12345E+06
 0.11382000E+03 -0.11112E+06
 0.11387000E+03 -0.10936E+06
 0.11392000E+03 -0.11967E+06
 0.11397000E+03 -0.13197E+06
 0.11402000E+03 -0.13383E+06
 0.11407000E+03 -0.12440E+06
 0.11412000E+03 -0.12060E+06
 0.11417000E+03 -0.13483E+06
 0.11422000E+03 -0.15763E+06
 0.11427000E+03 -0.17078E+06
 0.11432000E+03 -0.16498E+06
 0.11437000E+03 -0.14682E+06
 0.11442000E+03 -0.12416E+06
 0.11447000E+03 -0.98390E+05
 0.11452000E+03 -0.78349E+05
 0.11457000E+03 -0.66926E+05
 0.11462000E+03 -0.58009E+05
 0.11467000E+03 -0.38087E+05
 0.11472000E+03  0.99300E+03
 0.11477000E+03  0.38238E+05
 0.11482000E+03  0.63354E+05
 0.11487000E+03  0.88174E+05
 0.11492000E+03  0.11481E+06
 0.11497000E+03  0.14168E+06
 0.11502000E+03  0.16613E+06
 0.11507000E+03  0.16575E+06
 0.11512000E+03  0.12144E+06
 0.11517000E+03  0.51395E+05
 0.11522000E+03 -0.74830E+04
 0.11527000E+03 -0.36433E+05
 0.11532000E+03 -0.47521E+05
 0.11537000E+03 -0.56661E+05
 0.11542000E+03 -0.63431E+05
 0.11547000E+03 -0.66316E+05
 0.11552000E+03 -0.70835E+05
 0.11557000E+03 -0.78553E+05
 0.11562000E+03 -0.87019E+05
 0.11567000E+03 -0.90094E+05
 0.11572000E+03 -0.80301E+05
 0.11577000E+03 -0.64352E+05
 0.11582000E+03 -0.54812E+05
 0.11587000E+03 -0.63336E+05
 0.11592000E+03 -0.94920E+05
 0.11597000E+03 -0.13076E+06
 0.11602000E+03 -0.15129E+06
 0.11607000E+03 -0.15631E+06
 0.11612000E+03 -0.15255E+06
 0.11617000E+03 -0.14638E+06
 0.11622000E+03 -0.13751E+06
 0.11627000E+03 -0.11700E+06
 0.11632000E+03 -0.77853E+05
 0.11637000E+03 -0.30722E+05
 0.11642000E+03  0.36200E+03
 0.11647000E+03  0.26220E+04
 0.11652000E+03 -0.17858E+05
 0.11657000E+03 -0.47795E+05
 0.11662000E+03 -0.84636E+05
 0.11667000E+03 -0.12633E+06
 0.11672000E+03 -0.15702E+06
 0.11677000E+03 -0.17234E+06
 0.11682000E+03 -0.18052E+06
 0.11687000E+03 -0.18928E+06
 0.11692000E+03 -0.20387E+06
 0.11697000E+03 -0.21461E+06
 0.11702000E+03 -0.21275E+06
 0.11707000E+03 -0.20727E+06
 0.11712000E+03 -0.19728E+06
 0.11717000E+03 -0.17469E+06
 0.11722000E+03 -0.15140E+06
 0.11727000E+03 -0.13694E+06
 0.11732000E+03 -0.12604E+06
 0.11737000E+03 -0.11329E+06
 0.11742000E+03 -0.10124E+06
 0.11747000E+03 -0.93198E+05
 0.11752000E+03 -0.78879E+05
 0.11757000E+03 -0.55417E+05
 0.11762000E+03 -0.32186E+05
 0.11767000E+03 -0.14648E+05
 0.11772000E+03 -0.67220E+04
 0.11777000E+03 -0.46350E+04
 0.11782000E+03  0.27100E+03
 0.11787000E+03  0.14730E+04
 0.11792000E+03 -0.16988E+05
 0.11797000E+03 -0.53667E+05
 0.11802000E+03 -0.94758E+05
 0.11807000E+03 -0.13370E+06
 0.11812000E+03 -0.17640E+06
 0.11817000E+03 -0.23322E+06
 0.11822000E+03 -0.29497E+06
 0.11827000E+03 -0.34162E+06
 0.11832000E+03 -0.36748E+06
 0.11837000E+03 -0.36872E+06
 0.11842000E+03 -0.34069E+06
 0.11847000E+03 -0.29184E+06
 0.11852000E+03 -0.22921E+06
 0.11857000E+03 -0.15177E+06
 0.11862000E+03 -0.63969E+05
 0.11867000E+03  0.24397E+05
 0.11872000E+03  0.10229E+06
 0.11877000E+03  0.16567E+06
 0.11882000E+03  0.22382E+06
 0.11887000E+03  0.28629E+06
 0.11892000E+03  0.34695E+06
 0.11897000E+03  0.39221E+06
 0.11902000E+03  0.42494E+06
 0.11907000E+03  0.46105E+06
 0.11912000E+03  0.50626E+06
 0.11917000E+03  0.55791E+06
 0.11922000E+03  0.60548E+06
 0.11927000E+03  0.63984E+06
 0.11932000E+03  0.67287E+06
 0.11937000E+03  0.70684E+06
 0.11942000E+03  0.72268E+06
 0.11947000E+03  0.71259E+06
 0.11952000E+03  0.68289E+06
 0.11957000E+03  0.64174E+06
 0.11962000E+03  0.59886E+06
 0.11967000E+03  0.56342E+06
 0.11972000E+03  0.53906E+06
 0.11977000E+03  0.52372E+06
 0.11982000E+03  0.51514E+06
 0.11987000E+03  0.50792E+06
 0.11992000E+03  0.48953E+06
 0.11997000E+03  0.45607E+06
 0.12002000E+03  0.41428E+06
 0.12007000E+03  0.36378E+06
 0.12012000E+03  0.30672E+06
 0.12017000E+03  0.25415E+06
 0.12022000E+03  0.21498E+06
 0.12027000E+03  0.18667E+06
 0.12032000E+03  0.14771E+06
 0.12037000E+03  0.90683E+05
 0.12042000E+03  0.33177E+05
 0.12047000E+03 -0.71180E+04
 0.12052000E+03 -0.24658E+05
 0.12057000E+03 -0.29527E+05
 0.12062000E+03 -0.27298E+05
 0.12067000E+03 -0.20698E+05
 0.12072000E+03 -0.15483E+05
 0.12077000E+03 -0.84490E+04
 0.12082000E+03  0.67040E+04
 0.12087000E+03  0.28445E+05
 0.12092000E+03  0.53832E+05
 0.12097000E+03  0.85809E+05
 0.12102000E+03  0.11810E+06
 0.12107000E+03  0.14077E+06
 0.12112000E+03  0.14997E+06
 0.12117000E+03  0.14528E+06
 0.12122000E+03  0.13601E+06
 0.12127000E+03  0.12957E+06
 0.12132000E+03  0.12676E+06
 0.12137000E+03  0.12717E+06
 0.12142000E+03  0.12778E+06
 0.12147000E+03  0.12108E+06
 0.12152000E+03  0.98483E+05
 0.12157000E+03  0.68144E+05
 0.12162000E+03  0.40489E+05
 0.12167000E+03  0.95640E+04
 0.12172000E+03 -0.31864E+05
 0.12177000E+03 -0.86469E+05
 0.12182000E+03 -0.14796E+06
 0.12187000E+03 -0.20512E+06
 0.12192000E+03 -0.25008E+06
 0.12197000E+03 -0.27837E+06
 0.12202000E+03 -0.28770E+06
 0.12207000E+03 -0.27616E+06
 0.12212000E+03 -0.24870E+06
 0.12217000E+03 -0.21354E+06
 0.12222000E+03 -0.17711E+06
 0.12227000E+03 -0.14949E+06
 0.12232000E+03 -0.13413E+06
 0.12237000E+03 -0.12383E+06
 0.12242000E+03 -0.11363E+06
 0.12247000E+03 -0.99482E+05
 0.12252000E+03 -0.77945E+05
 0.12257000E+03 -0.47237E+05
 0.12262000E+03 -0.96860E+04
 0.12267000E+03  0.25350E+05
 0.12272000E+03  0.48110E+05
 0.12277000E+03  0.55119E+05
 0.12282000E+03  0.53315E+05
 0.12287000E+03  0.46056E+05
 0.12292000E+03  0.24366E+05
 0.12297000E+03 -0.13472E+05
 0.12302000E+03 -0.54193E+05
 0.12307000E+03 -0.83223E+05
 0.12312000E+03 -0.95758E+05
 0.12317000E+03 -0.10451E+06
 0.12322000E+03 -0.12544E+06
 0.12327000E+03 -0.15776E+06
 0.12332000E+03 -0.19201E+06
 0.12337000E+03 -0.22044E+06
 0.12342000E+03 -0.24827E+06
 0.12347000E+03 -0.28149E+06
 0.12352000E+03 -0.30663E+06
 0.12357000E+03 -0.31726E+06
 0.12362000E+03 -0.32276E+06
 0.12367000E+03 -0.32966E+06
 0.12372000E+03 -0.33636E+06
 0.12377000E+03 -0.34019E+06
 0.12382000E+03 -0.34029E+06
 0.12387000E+03 -0.33170E+06
 0.12392000E+03 -0.32082E+06
 0.12397000E+03 -0.31939E+06
 0.12402000E+03 -0.32344E+06
 0.12407000E+03 -0.32322E+06
 0.12412000E+03 -0.31471E+06
 0.12417000E+03 -0.30424E+06
 0.12422000E+03 -0.29983E+06
 0.12427000E+03 -0.29793E+06
 0.12432000E+03 -0.29069E+06
 0.12437000E+03 -0.27916E+06
 0.12442000E+03 -0.26454E+06
 0.12447000E+03 -0.24242E+06
 0.12452000E+03 -0.21704E+06
 0.12457000E+03 -0.19787E+06
 0.12462000E+03 -0.19127E+06
 0.12467000E+03 -0.19880E+06
 0.12472000E+03 -0.21293E+06
 0.12477000E+03 -0.22220E+06
 0.12482000E+03 -0.22299E+06
 0.12487000E+03 -0.21719E+06
 0.12492000E+03 -0.20784E+06
 0.12497000E+03 -0.20127E+06
 0.12502000E+03 -0.19497E+06
 0.12507000E+03 -0.18467E+06
 0.12512000E+03 -0.17589E+06
 0.12517001E+03 -0.17322E+06
 0.12521999E+03 -0.17301E+06
 0.12527000E+03 -0.16938E+06
 0.12532000E+03 -0.15983E+06
 0.12537000E+03 -0.14192E+06
 0.12542001E+03 -0.11940E+06
 0.12546999E+03 -0.96503E+05
 0.12552000E+03 -0.76503E+05
 0.12557000E+03 -0.62946E+05
 0.12562000E+03 -0.51587E+05
 0.12567001E+03 -0.41723E+05
 0.12571999E+03 -0.39766E+05
 0.12577000E+03 -0.42144E+05
 0.12582000E+03 -0.31923E+05
 0.12587000E+03 -0.39610E+04
 0.12592001E+03  0.29777E+05
 0.12596999E+03  0.56992E+05
 0.12602000E+03  0.75174E+05
 0.12607000E+03  0.87579E+05
 0.12612000E+03  0.96780E+05
 0.12617001E+03  0.11032E+06
 0.12621999E+03  0.13186E+06
 0.12627000E+03  0.15651E+06
 0.12632000E+03  0.17555E+06
 0.12637000E+03  0.18252E+06
 0.12642001E+03  0.17456E+06
 0.12646999E+03  0.15602E+06
 0.12652000E+03  0.13530E+06
 0.12657000E+03  0.11387E+06
 0.12662000E+03  0.96807E+05
 0.12667001E+03  0.84805E+05
 0.12671999E+03  0.72518E+05
 0.12677000E+03  0.57134E+05
 0.12682000E+03  0.38094E+05
 0.12687000E+03  0.16448E+05
 0.12692001E+03 -0.75290E+04
 0.12696999E+03 -0.28635E+05
 0.12702000E+03 -0.42141E+05
 0.12707000E+03 -0.44236E+05
 0.12712000E+03 -0.29642E+05
 0.12717001E+03  0.26210E+04
 0.12721999E+03  0.42534E+05
 0.12727000E+03  0.80523E+05
 0.12732000E+03  0.11287E+06
 0.12737000E+03  0.13402E+06
 0.12742001E+03  0.14396E+06
 0.12746999E+03  0.14381E+06
 0.12752000E+03  0.13968E+06
 0.12757000E+03  0.14007E+06
 0.12762000E+03  0.14839E+06
 0.12767001E+03  0.16803E+06
 0.12771999E+03  0.19065E+06
 0.12777000E+03  0.20507E+06
 0.12782000E+03  0.21470E+06
 0.12787000E+03  0.22404E+06
 0.12792001E+03  0.23041E+06
 0.12796999E+03  0.23404E+06
 0.12802000E+03  0.23933E+06
 0.12807001E+03  0.24855E+06
 0.12812001E+03  0.25775E+06
 0.12817001E+03  0.25876E+06
 0.12822000E+03  0.25027E+06
 0.12827000E+03  0.23463E+06
 0.12832001E+03  0.21440E+06
 0.12837001E+03  0.20019E+06
 0.12842001E+03  0.19629E+06
 0.12847000E+03  0.19732E+06
 0.12852000E+03  0.20581E+06
 0.12857001E+03  0.22388E+06
 0.12862001E+03  0.24301E+06
 0.12867001E+03  0.25456E+06
 0.12872000E+03  0.25977E+06
 0.12877000E+03  0.26116E+06
 0.12882001E+03  0.25975E+06
 0.12887001E+03  0.26250E+06
 0.12892001E+03  0.26576E+06
 0.12897000E+03  0.26366E+06
 0.12902000E+03  0.26044E+06
 0.12907001E+03  0.25568E+06
 0.12912001E+03  0.24647E+06
 0.12917001E+03  0.22935E+06
 0.12922000E+03  0.20452E+06
 0.12927000E+03  0.17814E+06
 0.12932001E+03  0.15824E+06
 0.12937001E+03  0.14704E+06
 0.12942001E+03  0.13877E+06
 0.12947000E+03  0.12772E+06
 0.12952000E+03  0.11372E+06
 0.12957001E+03  0.10477E+06
 0.12962001E+03  0.10328E+06
 0.12967001E+03  0.10607E+06
 0.12972000E+03  0.11176E+06
 0.12977000E+03  0.12171E+06
 0.12982001E+03  0.13853E+06
 0.12987001E+03  0.15199E+06
 0.12992001E+03  0.14678E+06
 0.12997000E+03  0.12224E+06
 0.13002000E+03  0.91548E+05
 0.13007001E+03  0.61451E+05
 0.13012001E+03  0.29038E+05
 0.13017001E+03 -0.31360E+04
 0.13022000E+03 -0.28330E+05
 0.13027000E+03 -0.41218E+05
 0.13032001E+03 -0.42094E+05
 0.13037001E+03 -0.34524E+05
 0.13042001E+03 -0.25532E+05
 0.13047000E+03 -0.23551E+05
 0.13052000E+03 -0.29334E+05
 0.13057001E+03 -0.41140E+05
 0.13062001E+03 -0.57613E+05
 0.13067001E+03 -0.77545E+05
 0.13072000E+03 -0.10402E+06
 0.13077000E+03 -0.14115E+06
 0.13082001E+03 -0.18681E+06
 0.13087001E+03 -0.23178E+06
 0.13092001E+03 -0.26780E+06
 0.13097000E+03 -0.28959E+06
 0.13102000E+03 -0.29131E+06
 0.13107001E+03 -0.27618E+06
 0.13112001E+03 -0.25780E+06
 0.13117001E+03 -0.24630E+06
 0.13122000E+03 -0.24506E+06
 0.13127000E+03 -0.24992E+06
 0.13132001E+03 -0.25546E+06
 0.13137001E+03 -0.26314E+06
 0.13142001E+03 -0.27039E+06
 0.13147000E+03 -0.27405E+06
 0.13152000E+03 -0.27710E+06
 0.13157001E+03 -0.27900E+06
 0.13162001E+03 -0.27923E+06
 0.13167001E+03 -0.28452E+06
 0.13172000E+03 -0.29704E+06
 0.13177000E+03 -0.30934E+06
 0.13182001E+03 -0.31750E+06
 0.13187001E+03 -0.32110E+06
 0.13192001E+03 -0.32226E+06
 0.13197000E+03 -0.31981E+06
 0.13202000E+03 -0.30885E+06
 0.13207001E+03 -0.29579E+06
 0.13212001E+03 -0.28588E+06
 0.13217001E+03 -0.27661E+06
 0.13222000E+03 -0.26438E+06
 0.13227000E+03 -0.24206E+06
 0.13232001E+03 -0.20972E+06
 0.13237001E+03 -0.17666E+06
 0.13242001E+03 -0.15027E+06
 0.13247000E+03 -0.13244E+06
 0.13252000E+03 -0.11792E+06
 0.13257001E+03 -0.99881E+05
 0.13262001E+03 -0.77898E+05
 0.13267001E+03 -0.53192E+05
 0.13272000E+03 -0.24451E+05
 0.13277000E+03  0.72980E+04
 0.13282001E+03  0.37679E+05
 0.13287001E+03  0.65162E+05
 0.13292001E+03  0.96255E+05
 0.13297000E+03  0.13976E+06
 0.13302000E+03  0.19377E+06
 0.13307001E+03  0.24840E+06
 0.13312001E+03  0.29393E+06
 0.13317001E+03  0.32190E+06
 0.13322000E+03  0.32753E+06
 0.13327000E+03  0.31202E+06
 0.13332001E+03  0.28861E+06
 0.13337001E+03  0.27139E+06
 0.13342001E+03  0.26196E+06
 0.13347000E+03  0.25777E+06
 0.13352000E+03  0.25198E+06
 0.13357001E+03  0.23903E+06
 0.13362001E+03  0.22729E+06
 0.13367001E+03  0.22119E+06
 0.13372000E+03  0.21521E+06
 0.13377000E+03  0.21413E+06
 0.13382001E+03  0.22041E+06
 0.13387001E+03  0.22841E+06
 0.13392001E+03  0.23602E+06
 0.13397000E+03  0.23580E+06
 0.13402000E+03  0.22116E+06
 0.13407001E+03  0.19333E+06
 0.13412001E+03  0.15477E+06
 0.13417001E+03  0.11426E+06
 0.13422000E+03  0.82069E+05
 0.13427000E+03  0.54733E+05
 0.13432001E+03  0.25193E+05
 0.13437001E+03 -0.67040E+04
 0.13442001E+03 -0.42936E+05
 0.13447000E+03 -0.85357E+05
 0.13452000E+03 -0.13249E+06
 0.13457001E+03 -0.18068E+06
 0.13462001E+03 -0.22358E+06
 0.13467001E+03 -0.25540E+06
 0.13472000E+03 -0.27432E+06
 0.13477000E+03 -0.28056E+06
 0.13482001E+03 -0.27034E+06
 0.13487001E+03 -0.24403E+06
 0.13492001E+03 -0.21282E+06
 0.13497000E+03 -0.18530E+06
 0.13502000E+03 -0.16007E+06
 0.13507001E+03 -0.13476E+06
 0.13512001E+03 -0.11319E+06
 0.13517001E+03 -0.10107E+06
 0.13522000E+03 -0.95636E+05
 0.13527000E+03 -0.88941E+05
 0.13532001E+03 -0.78927E+05
 0.13537001E+03 -0.67257E+05
 0.13542001E+03 -0.58858E+05
 0.13547000E+03 -0.54868E+05
 0.13552000E+03 -0.46259E+05
 0.13557001E+03 -0.28406E+05
 0.13562001E+03 -0.10886E+05
 0.13567001E+03 -0.57560E+04
 0.13572000E+03 -0.10915E+05
 0.13577000E+03 -0.14736E+05
 0.13582001E+03 -0.11117E+05
 0.13587001E+03 -0.14000E+04
 0.13592001E+03  0.14644E+05
 0.13597000E+03  0.35159E+05
 0.13602000E+03  0.52539E+05
 0.13607001E+03  0.64262E+05
 0.13612001E+03  0.72301E+05
 0.13617001E+03  0.78984E+05
 0.13622000E+03  0.87738E+05
 0.13627000E+03  0.10031E+06
 0.13632001E+03  0.11132E+06
 0.13637001E+03  0.11119E+06
 0.13642001E+03  0.95825E+05
 0.13647000E+03  0.70467E+05
 0.13652000E+03  0.47548E+05
 0.13657001E+03  0.32815E+05
 0.13662001E+03  0.23372E+05
 0.13667001E+03  0.20867E+05
 0.13672000E+03  0.28634E+05
 0.13677000E+03  0.47254E+05
 0.13682001E+03  0.73973E+05
 0.13687001E+03  0.10517E+06
 0.13692001E+03  0.13930E+06
 0.13697000E+03  0.17310E+06
 0.13702000E+03  0.20163E+06
 0.13707001E+03  0.21815E+06
 0.13712001E+03  0.21995E+06
 0.13717001E+03  0.21120E+06
 0.13722000E+03  0.19805E+06
 0.13727000E+03  0.18203E+06
 0.13732001E+03  0.16090E+06
 0.13737001E+03  0.13665E+06
 0.13742001E+03  0.10950E+06
 0.13747000E+03  0.80591E+05
 0.13752000E+03  0.56874E+05
 0.13757001E+03  0.45248E+05
 0.13762001E+03  0.46628E+05
 0.13767001E+03  0.51766E+05
 0.13772000E+03  0.52892E+05
 0.13777000E+03  0.47149E+05
 0.13782001E+03  0.32837E+05
 0.13787001E+03  0.15157E+05
 0.13792001E+03  0.24400E+04
 0.13797000E+03 -0.18910E+04
 0.13802000E+03 -0.66600E+03
 0.13807001E+03  0.46810E+04
 0.13812001E+03  0.14765E+05
 0.13817001E+03  0.25474E+05
 0.13822000E+03  0.34922E+05
 0.13827000E+03  0.44513E+05
 0.13832001E+03  0.49606E+05
 0.13837001E+03  0.43765E+05
 0.13842001E+03  0.27729E+05
 0.13847000E+03  0.99100E+04
 0.13852000E+03 -0.89600E+03
 0.13857001E+03 -0.51230E+04
 0.13862001E+03 -0.79300E+04
 0.13867001E+03 -0.10463E+05
 0.13872000E+03 -0.12603E+05
 0.13877000E+03 -0.14965E+05
 0.13882001E+03 -0.16822E+05
 0.13887001E+03 -0.15742E+05
 0.13892001E+03 -0.11459E+05
 0.13897000E+03 -0.37090E+04
 0.13902000E+03  0.10594E+05
 0.13907001E+03  0.29964E+05
 0.13912001E+03  0.46563E+05
 0.13917001E+03  0.54930E+05
 0.13922000E+03  0.59964E+05
 0.13927000E+03  0.69505E+05
 0.13932001E+03  0.87211E+05
 0.13937001E+03  0.11593E+06
 0.13942001E+03  0.15314E+06
 0.13947000E+03  0.18906E+06
 0.13952000E+03  0.21542E+06
 0.13957001E+03  0.23286E+06
 0.13962001E+03  0.24762E+06
 0.13967001E+03  0.26286E+06
 0.13972000E+03  0.27390E+06
 0.13977000E+03  0.27310E+06
 0.13982001E+03  0.25930E+06
 0.13987001E+03  0.23391E+06
 0.13992001E+03  0.20240E+06
 0.13997000E+03  0.17418E+06
 0.14002000E+03  0.15218E+06
 0.14007001E+03  0.13398E+06
 0.14012001E+03  0.11504E+06
 0.14017001E+03  0.92851E+05
 0.14022000E+03  0.66855E+05
 0.14027000E+03  0.35506E+05
 0.14032001E+03 -0.21880E+04
 0.14037001E+03 -0.44066E+05
 0.14042001E+03 -0.86542E+05
 0.14047000E+03 -0.12703E+06
 0.14052000E+03 -0.16168E+06
 0.14057001E+03 -0.19319E+06
 0.14062001E+03 -0.22891E+06
 0.14067001E+03 -0.26713E+06
 0.14072000E+03 -0.30359E+06
 0.14077000E+03 -0.34054E+06
 0.14082001E+03 -0.37726E+06
 0.14087001E+03 -0.40813E+06
 0.14092001E+03 -0.43194E+06
 0.14097000E+03 -0.45313E+06
 0.14102000E+03 -0.47784E+06
 0.14107001E+03 -0.50816E+06
 0.14112001E+03 -0.54093E+06
 0.14117001E+03 -0.57197E+06
 0.14122000E+03 -0.59688E+06
 0.14127000E+03 -0.61236E+06
 0.14132001E+03 -0.61801E+06
 0.14137001E+03 -0.61125E+06
 0.14142001E+03 -0.59220E+06
 0.14147000E+03 -0.56628E+06
 0.14152000E+03 -0.53477E+06
 0.14157001E+03 -0.49976E+06
 0.14162001E+03 -0.46606E+06
 0.14167001E+03 -0.43352E+06
 0.14172000E+03 -0.39884E+06
 0.14177000E+03 -0.36284E+06
 0.14182001E+03 -0.33049E+06
 0.14187001E+03 -0.30466E+06
 0.14192001E+03 -0.28640E+06
 0.14197000E+03 -0.27626E+06
 0.14202000E+03 -0.26848E+06
 0.14207001E+03 -0.25471E+06
 0.14212001E+03 -0.23466E+06
 0.14217001E+03 -0.21423E+06
 0.14222000E+03 -0.20099E+06
 0.14227000E+03 -0.20042E+06
 0.14232001E+03 -0.20747E+06
 0.14237001E+03 -0.21004E+06
 0.14242001E+03 -0.20084E+06
 0.14247000E+03 -0.17786E+06
 0.14252000E+03 -0.14219E+06
 0.14257001E+03 -0.10085E+06
 0.14262001E+03 -0.62107E+05
 0.14267001E+03 -0.29660E+05
 0.14272000E+03 -0.32300E+04
 0.14277000E+03  0.19441E+05
 0.14282001E+03  0.43338E+05
 0.14287001E+03  0.74782E+05
 0.14292001E+03  0.11303E+06
 0.14297000E+03  0.15335E+06
 0.14302000E+03  0.19377E+06
 0.14307001E+03  0.23184E+06
 0.14312001E+03  0.26426E+06
 0.14317001E+03  0.28993E+06
 0.14322000E+03  0.31101E+06
 0.14327000E+03  0.32613E+06
 0.14332001E+03  0.33353E+06
 0.14337001E+03  0.33863E+06
 0.14342001E+03  0.34538E+06
 0.14347000E+03  0.35005E+06
 0.14352000E+03  0.34854E+06
 0.14357001E+03  0.34530E+06
 0.14362001E+03  0.34630E+06
 0.14367001E+03  0.35061E+06
 0.14372000E+03  0.35186E+06
 0.14377000E+03  0.34442E+06
 0.14382001E+03  0.32510E+06
 0.14387001E+03  0.29477E+06
 0.14392001E+03  0.26428E+06
 0.14397000E+03  0.23930E+06
 0.14402000E+03  0.21486E+06
 0.14407001E+03  0.19200E+06
 0.14412001E+03  0.17712E+06
 0.14417001E+03  0.17156E+06
 0.14422000E+03  0.17535E+06
 0.14427000E+03  0.19098E+06
 0.14432001E+03  0.21370E+06
 0.14437001E+03  0.23324E+06
 0.14442001E+03  0.24692E+06
 0.14447000E+03  0.25572E+06
 0.14452000E+03  0.25590E+06
 0.14457001E+03  0.24619E+06
 0.14462001E+03  0.23418E+06
 0.14467001E+03  0.22799E+06
 0.14472000E+03  0.22759E+06
 0.14477000E+03  0.22986E+06
 0.14482001E+03  0.23304E+06
 0.14487001E+03  0.23568E+06
 0.14492001E+03  0.23743E+06
 0.14497000E+03  0.23633E+06
 0.14502000E+03  0.23190E+06
 0.14507001E+03  0.22554E+06
 0.14512001E+03  0.21512E+06
 0.14517001E+03  0.19722E+06
 0.14522000E+03  0.17138E+06
 0.14527000E+03  0.14190E+06
 0.14532001E+03  0.11360E+06
 0.14537001E+03  0.90869E+05
 0.14542001E+03  0.74865E+05
 0.14547000E+03  0.60039E+05
 0.14552000E+03  0.42231E+05
 0.14557001E+03  0.26545E+05
 0.14562001E+03  0.19382E+05
 0.14567001E+03  0.20863E+05
 0.14572000E+03  0.29278E+05
 0.14577000E+03  0.36599E+05
 0.14582001E+03  0.34658E+05
 0.14587001E+03  0.27307E+05
 0.14592001E+03  0.21212E+05
 0.14597000E+03  0.16328E+05
 0.14602000E+03  0.10889E+05
 0.14607001E+03  0.59260E+04
 0.14612001E+03  0.22190E+04
 0.14617001E+03 -0.68900E+03
 0.14622000E+03 -0.66920E+04
 0.14627000E+03 -0.20151E+05
 0.14632001E+03 -0.39597E+05
 0.14637001E+03 -0.57620E+05
 0.14642001E+03 -0.65373E+05
 0.14647000E+03 -0.60427E+05
 0.14652000E+03 -0.47098E+05
 0.14657001E+03 -0.31776E+05
 0.14662001E+03 -0.18643E+05
 0.14667001E+03 -0.70790E+04
 0.14672000E+03  0.25510E+04
 0.14677000E+03  0.91100E+04
 0.14682001E+03  0.16839E+05
 0.14687001E+03  0.30679E+05
 0.14692001E+03  0.49057E+05
 0.14697000E+03  0.65258E+05
 0.14702000E+03  0.75648E+05
 0.14707001E+03  0.77841E+05
 0.14712001E+03  0.71123E+05
 0.14717001E+03  0.60281E+05
 0.14722000E+03  0.46775E+05
 0.14727000E+03  0.30973E+05
 0.14732001E+03  0.11768E+05
 0.14737001E+03 -0.12376E+05
 0.14742001E+03 -0.36814E+05
 0.14747000E+03 -0.61066E+05
 0.14752000E+03 -0.87342E+05
 0.14757001E+03 -0.11304E+06
 0.14762001E+03 -0.13358E+06
 0.14767001E+03 -0.14599E+06
 0.14772000E+03 -0.14936E+06
 0.14777000E+03 -0.14137E+06
 0.14782001E+03 -0.12336E+06
 0.14787001E+03 -0.10158E+06
 0.14792001E+03 -0.79141E+05
 0.14797000E+03 -0.61050E+05
 0.14802000E+03 -0.52011E+05
 0.14807001E+03 -0.47152E+05
 0.14812001E+03 -0.42797E+05
 0.14817001E+03 -0.39866E+05
 0.14822000E+03 -0.38184E+05
 0.14827000E+03 -0.35632E+05
 0.14832001E+03 -0.32362E+05
 0.14837001E+03 -0.36376E+05
 0.14842001E+03 -0.53941E+05
 0.14847000E+03 -0.81921E+05
 0.14852000E+03 -0.11158E+06
 0.14857001E+03 -0.13336E+06
 0.14862001E+03 -0.14141E+06
 0.14867001E+03 -0.13675E+06
 0.14872000E+03 -0.12456E+06
 0.14877000E+03 -0.10798E+06
 0.14882001E+03 -0.90550E+05
 0.14887001E+03 -0.77860E+05
 0.14892001E+03 -0.70988E+05
 0.14897000E+03 -0.65735E+05
 0.14902000E+03 -0.59450E+05
 0.14907001E+03 -0.54061E+05
 0.14912001E+03 -0.50553E+05
 0.14917001E+03 -0.44692E+05
 0.14922000E+03 -0.31835E+05
 0.14927000E+03 -0.12999E+05
 0.14932001E+03  0.65510E+04
 0.14937001E+03  0.23859E+05
 0.14942001E+03  0.37534E+05
 0.14947000E+03  0.43811E+05
 0.14952000E+03  0.40696E+05
 0.14957001E+03  0.29772E+05
 0.14962001E+03  0.14271E+05
 0.14967001E+03 -0.17950E+04
 0.14972000E+03 -0.19916E+05
 0.14977000E+03 -0.42914E+05
 0.14982001E+03 -0.69752E+05
 0.14987001E+03 -0.97992E+05
 0.14992001E+03 -0.12207E+06
 0.14997000E+03 -0.13982E+06
