-0.29800000E+01 -0.13804E+05
-0.29300001E+01 -0.26375E+05
-0.28800001E+01 -0.38099E+05
-0.28299999E+01 -0.48448E+05
-0.27800000E+01 -0.55882E+05
-0.27300000E+01 -0.58843E+05
-0.26800001E+01 -0.58997E+05
-0.26300001E+01 -0.57778E+05
-0.25799999E+01 -0.55091E+05
-0.25300000E+01 -0.52242E+05
-0.24800000E+01 -0.48767E+05
-0.24300001E+01 -0.42611E+05
-0.23800001E+01 -0.35035E+05
-0.23299999E+01 -0.26552E+05
-0.22800000E+01 -0.15535E+05
-0.22300000E+01 -0.24080E+04
-0.21800001E+01  0.11315E+05
-0.21300001E+01  0.24555E+05
-0.20799999E+01  0.36523E+05
-0.20300000E+01  0.45297E+05
-0.19800000E+01  0.51205E+05
-0.19299999E+01  0.56351E+05
-0.18800000E+01  0.60590E+05
-0.18300000E+01  0.62295E+05
-0.17800000E+01  0.60498E+05
-0.17300000E+01  0.56999E+05
-0.16799999E+01  0.53743E+05
-0.16300000E+01  0.50532E+05
-0.15800000E+01  0.48300E+05
-0.15300000E+01  0.49528E+05
-0.14800000E+01  0.52210E+05
-0.14299999E+01  0.53077E+05
-0.13800000E+01  0.53099E+05
-0.13300000E+01  0.53350E+05
-0.12800000E+01  0.52202E+05
-0.12300000E+01  0.49225E+05
-0.11799999E+01  0.47430E+05
-0.11300000E+01  0.47416E+05
-0.10800000E+01  0.47847E+05
-0.10300000E+01  0.49985E+05
-0.98000002E+00  0.54980E+05
-0.93000007E+00  0.60447E+05
-0.87999988E+00  0.63446E+05
-0.82999992E+00  0.64465E+05
-0.77999997E+00  0.63758E+05
-0.73000002E+00  0.60247E+05
-0.68000007E+00  0.54347E+05
-0.62999988E+00  0.47197E+05
-0.57999992E+00  0.40346E+05
-0.52999997E+00  0.34141E+05
-0.48000002E+00  0.26981E+05
-0.43000007E+00  0.19302E+05
-0.37999988E+00  0.12418E+05
-0.32999992E+00  0.64070E+04
-0.27999997E+00  0.17370E+04
-0.23000002E+00 -0.12390E+04
-0.18000007E+00 -0.26430E+04
-0.12999988E+00 -0.26070E+04
-0.79999924E-01 -0.11500E+04
-0.29999971E-01  0.99700E+03
 0.19999981E-01  0.42360E+04
 0.69999933E-01  0.87120E+04
 0.12000012E+00  0.13026E+05
 0.17000008E+00  0.16355E+05
 0.22000003E+00  0.17317E+05
 0.26999998E+00  0.15841E+05
 0.31999993E+00  0.12522E+05
 0.37000012E+00  0.78750E+04
 0.42000008E+00  0.44780E+04
 0.47000003E+00  0.22350E+04
 0.51999998E+00  0.11000E+02
 0.56999993E+00 -0.10250E+04
 0.62000012E+00 -0.22200E+03
 0.67000008E+00  0.28930E+04
 0.72000003E+00  0.65960E+04
 0.76999998E+00  0.91900E+04
 0.81999993E+00  0.11130E+05
 0.87000012E+00  0.12106E+05
 0.92000008E+00  0.10707E+05
 0.97000003E+00  0.72210E+04
 0.10200000E+01  0.25290E+04
 0.10700002E+01 -0.26510E+04
 0.11199999E+01 -0.71360E+04
 0.11700001E+01 -0.11641E+05
 0.12200003E+01 -0.15944E+05
 0.12700000E+01 -0.19967E+05
 0.13200002E+01 -0.25245E+05
 0.13699999E+01 -0.32248E+05
 0.14200001E+01 -0.39443E+05
 0.14700003E+01 -0.46164E+05
 0.15200000E+01 -0.52353E+05
 0.15700002E+01 -0.54925E+05
 0.16199999E+01 -0.52676E+05
 0.16700001E+01 -0.48374E+05
 0.17200003E+01 -0.42495E+05
 0.17700000E+01 -0.33976E+05
 0.18200002E+01 -0.23843E+05
 0.18699999E+01 -0.11864E+05
 0.19200001E+01  0.13520E+04
 0.19700003E+01  0.14066E+05
 0.20200000E+01  0.26373E+05
 0.20700002E+01  0.38240E+05
 0.21199999E+01  0.48093E+05
 0.21700001E+01  0.53419E+05
 0.22200003E+01  0.55101E+05
 0.22700000E+01  0.55360E+05
 0.23200002E+01  0.53656E+05
 0.23699999E+01  0.49471E+05
 0.24200001E+01  0.44428E+05
 0.24700003E+01  0.36877E+05
 0.25200000E+01  0.26589E+05
 0.25700002E+01  0.16738E+05
 0.26199999E+01  0.72440E+04
 0.26700001E+01 -0.12000E+04
 0.27200003E+01 -0.10113E+05
 0.27700000E+01 -0.18830E+05
 0.28200002E+01 -0.25372E+05
 0.28699999E+01 -0.30068E+05
 0.29200001E+01 -0.33666E+05
 0.29700003E+01 -0.38656E+05
 0.30200000E+01 -0.43880E+05
 0.30700002E+01 -0.46874E+05
 0.31199999E+01 -0.45980E+05
 0.31700001E+01 -0.44382E+05
 0.32200003E+01 -0.43780E+05
 0.32700000E+01 -0.42071E+05
 0.33200002E+01 -0.38804E+05
 0.33699999E+01 -0.34058E+05
 0.34200001E+01 -0.30021E+05
 0.34700003E+01 -0.24552E+05
 0.35200000E+01 -0.17044E+05
 0.35700002E+01 -0.11949E+05
 0.36199999E+01 -0.76380E+04
 0.36700001E+01  0.53300E+03
 0.37200003E+01  0.11247E+05
 0.37700000E+01  0.21136E+05
 0.38200002E+01  0.29237E+05
 0.38699999E+01  0.36472E+05
 0.39200001E+01  0.43327E+05
 0.39700003E+01  0.48125E+05
 0.40200000E+01  0.50276E+05
 0.40700002E+01  0.52034E+05
 0.41199999E+01  0.53359E+05
 0.41700001E+01  0.52503E+05
 0.42200003E+01  0.51642E+05
 0.42700000E+01  0.50995E+05
 0.43200002E+01  0.49259E+05
 0.43699999E+01  0.47066E+05
 0.44200001E+01  0.44689E+05
 0.44700003E+01  0.41073E+05
 0.45200000E+01  0.36352E+05
 0.45700002E+01  0.32364E+05
 0.46199999E+01  0.30854E+05
 0.46700001E+01  0.31194E+05
 0.47200003E+01  0.31158E+05
 0.47700000E+01  0.31765E+05
 0.48200002E+01  0.32182E+05
 0.48699999E+01  0.31490E+05
 0.49200001E+01  0.30088E+05
 0.49700003E+01  0.28366E+05
 0.50200000E+01  0.27280E+05
 0.50700002E+01  0.25861E+05
 0.51200004E+01  0.24327E+05
 0.51700006E+01  0.22220E+05
 0.52199998E+01  0.19075E+05
 0.52700000E+01  0.16058E+05
 0.53200002E+01  0.11927E+05
 0.53700004E+01  0.59650E+04
 0.54200006E+01 -0.91100E+03
 0.54699998E+01 -0.70030E+04
 0.55200000E+01 -0.97050E+04
 0.55700002E+01 -0.99370E+04
 0.56200004E+01 -0.77540E+04
 0.56700006E+01 -0.15430E+04
 0.57199998E+01  0.54470E+04
 0.57700000E+01  0.11724E+05
 0.58200002E+01  0.19835E+05
 0.58700004E+01  0.26025E+05
 0.59200006E+01  0.30955E+05
 0.59699998E+01  0.37471E+05
 0.60200000E+01  0.42295E+05
 0.60700002E+01  0.48174E+05
 0.61200004E+01  0.52274E+05
 0.61700006E+01  0.52649E+05
 0.62199998E+01  0.53088E+05
 0.62700000E+01  0.52118E+05
 0.63200002E+01  0.51305E+05
 0.63700004E+01  0.51892E+05
 0.64200006E+01  0.52206E+05
 0.64699998E+01  0.51813E+05
 0.65200000E+01  0.50343E+05
 0.65700002E+01  0.47196E+05
 0.66200004E+01  0.44419E+05
 0.66700006E+01  0.40959E+05
 0.67199998E+01  0.36203E+05
 0.67700000E+01  0.35904E+05
 0.68200002E+01  0.33515E+05
 0.68700004E+01  0.26286E+05
 0.69200006E+01  0.20603E+05
 0.69699998E+01  0.14761E+05
 0.70200000E+01  0.96290E+04
 0.70700002E+01  0.52640E+04
 0.71200004E+01  0.10530E+04
 0.71700006E+01 -0.34410E+04
 0.72199998E+01 -0.80930E+04
 0.72700000E+01 -0.13382E+05
 0.73200002E+01 -0.18095E+05
 0.73700004E+01 -0.21717E+05
 0.74200006E+01 -0.25634E+05
 0.74699998E+01 -0.27622E+05
 0.75200000E+01 -0.28843E+05
 0.75700002E+01 -0.30722E+05
 0.76200004E+01 -0.35046E+05
 0.76700006E+01 -0.39284E+05
 0.77199998E+01 -0.42044E+05
 0.77700000E+01 -0.43667E+05
 0.78200002E+01 -0.42681E+05
 0.78700004E+01 -0.38801E+05
 0.79200006E+01 -0.34678E+05
 0.79699998E+01 -0.31063E+05
 0.80200005E+01 -0.29796E+05
 0.80699997E+01 -0.26194E+05
 0.81200008E+01 -0.21574E+05
 0.81700001E+01 -0.13522E+05
 0.82199993E+01 -0.25340E+04
 0.82700005E+01  0.59920E+04
 0.83199997E+01  0.18943E+05
 0.83700008E+01  0.17402E+05
 0.84200001E+01  0.24899E+05
 0.84699993E+01  0.44020E+04
 0.85200005E+01 -0.41291E+05
 0.85699997E+01 -0.30563E+05
 0.86200008E+01 -0.75871E+06
 0.86700001E+01 -0.27162E+07
 0.87199993E+01 -0.34318E+07
 0.87700005E+01 -0.19470E+07
 0.88199997E+01 -0.54474E+06
 0.88700008E+01  0.69243E+06
 0.89200001E+01  0.98447E+06
 0.89699993E+01 -0.92049E+06
 0.90200005E+01 -0.33445E+07
 0.90699997E+01 -0.50352E+07
 0.91200008E+01 -0.41903E+07
 0.91700001E+01 -0.14554E+07
 0.92199993E+01 -0.42316E+05
 0.92700005E+01  0.67518E+06
 0.93199997E+01 -0.43830E+05
 0.93700008E+01 -0.35739E+07
 0.94200001E+01 -0.89943E+07
 0.94699993E+01 -0.97810E+07
 0.95200005E+01 -0.59251E+07
 0.95699997E+01 -0.71075E+07
 0.96200008E+01 -0.58540E+07
 0.96700001E+01 -0.24540E+07
 0.97199993E+01  0.15819E+07
 0.97700005E+01  0.72037E+07
 0.98199997E+01  0.24121E+06
 0.98700008E+01 -0.66503E+07
 0.99200001E+01 -0.23801E+07
 0.99699993E+01  0.37520E+07
 0.10020000E+02  0.48284E+07
 0.10070000E+02  0.83243E+07
 0.10120001E+02  0.12172E+08
 0.10170000E+02  0.49167E+07
 0.10219999E+02  0.74492E+07
 0.10270000E+02  0.65953E+07
 0.10320000E+02 -0.15803E+07
 0.10370001E+02  0.48030E+06
 0.10420000E+02 -0.13681E+07
 0.10469999E+02  0.25108E+06
 0.10520000E+02 -0.37637E+07
 0.10570000E+02  0.19334E+06
 0.10620001E+02  0.10957E+08
 0.10670000E+02 -0.51473E+07
 0.10719999E+02 -0.18014E+08
 0.10770000E+02 -0.93408E+07
 0.10820000E+02 -0.98571E+06
 0.10870001E+02 -0.79599E+07
 0.10920000E+02 -0.58029E+07
 0.10969999E+02  0.34458E+07
 0.11020000E+02  0.36880E+07
 0.11070000E+02 -0.96109E+06
 0.11120001E+02 -0.85791E+07
 0.11170000E+02 -0.95384E+06
 0.11219999E+02 -0.21833E+07
 0.11270000E+02 -0.74670E+07
 0.11320000E+02  0.31648E+07
 0.11370001E+02  0.66836E+07
 0.11420000E+02  0.33642E+07
 0.11469999E+02  0.19657E+06
 0.11520000E+02 -0.17305E+07
 0.11570000E+02 -0.21252E+07
 0.11620001E+02 -0.15386E+07
 0.11670000E+02  0.25933E+06
 0.11719999E+02  0.36981E+07
 0.11770000E+02  0.18619E+07
 0.11820000E+02  0.88923E+06
 0.11870001E+02  0.37718E+07
 0.11920000E+02  0.28695E+07
 0.11969999E+02  0.97337E+06
 0.12020000E+02 -0.47480E+07
 0.12070000E+02 -0.25060E+07
 0.12120001E+02  0.45343E+07
 0.12170000E+02  0.56810E+07
 0.12219999E+02  0.66875E+07
 0.12270000E+02  0.63095E+07
 0.12320000E+02  0.70585E+07
 0.12370001E+02  0.67093E+07
 0.12420000E+02 -0.33673E+06
 0.12469999E+02 -0.54718E+07
 0.12520000E+02 -0.19653E+07
 0.12570000E+02  0.19375E+07
 0.12620001E+02  0.17431E+07
 0.12670000E+02 -0.40197E+07
 0.12719999E+02 -0.50870E+06
 0.12770000E+02  0.27055E+07
 0.12820000E+02 -0.78247E+07
 0.12870001E+02 -0.10866E+08
 0.12920000E+02 -0.74966E+07
 0.12969999E+02 -0.35871E+07
 0.13020000E+02 -0.55246E+07
 0.13070002E+02 -0.56241E+07
 0.13120001E+02  0.49705E+06
 0.13170000E+02 -0.14650E+07
 0.13220001E+02 -0.78073E+07
 0.13270000E+02 -0.66928E+07
 0.13320002E+02 -0.13406E+07
 0.13370001E+02 -0.10762E+07
 0.13420000E+02  0.36866E+06
 0.13470001E+02  0.37087E+07
 0.13520000E+02  0.46954E+07
 0.13570002E+02  0.21745E+07
 0.13620001E+02  0.20801E+07
 0.13670000E+02  0.81369E+06
 0.13720001E+02 -0.50121E+07
 0.13770000E+02 -0.23059E+06
 0.13820002E+02  0.17647E+07
 0.13870001E+02 -0.50231E+07
 0.13920000E+02 -0.40525E+07
 0.13970001E+02 -0.91618E+06
 0.14020000E+02 -0.32421E+07
 0.14070002E+02 -0.54402E+07
 0.14120001E+02  0.88763E+06
 0.14170000E+02  0.91018E+07
 0.14220001E+02  0.11487E+08
 0.14270000E+02  0.17423E+08
 0.14320002E+02  0.25183E+08
 0.14370001E+02  0.19837E+08
 0.14420000E+02  0.13912E+08
 0.14470001E+02  0.11090E+08
 0.14520000E+02  0.32174E+07
 0.14570002E+02  0.58062E+07
 0.14620001E+02  0.89577E+07
 0.14670000E+02  0.39370E+07
 0.14720001E+02 -0.59926E+07
 0.14770000E+02 -0.20698E+08
 0.14820002E+02 -0.22556E+08
 0.14870001E+02 -0.14773E+08
 0.14920000E+02 -0.16684E+08
 0.14970001E+02 -0.16361E+08
 0.15020000E+02 -0.36605E+07
 0.15070002E+02  0.18185E+06
 0.15120001E+02 -0.37149E+07
 0.15170000E+02 -0.22913E+07
 0.15220001E+02  0.88164E+07
 0.15270000E+02  0.19415E+08
 0.15320002E+02  0.12599E+08
 0.15370001E+02  0.79941E+07
 0.15420000E+02  0.65149E+07
 0.15470001E+02  0.39020E+04
 0.15520000E+02 -0.12280E+08
 0.15570002E+02 -0.21293E+08
 0.15620001E+02 -0.13989E+08
 0.15670000E+02 -0.64971E+07
 0.15720001E+02  0.94932E+07
 0.15770000E+02  0.23467E+08
 0.15820002E+02  0.23119E+08
 0.15870001E+02  0.22451E+08
 0.15920000E+02  0.24462E+08
 0.15970001E+02  0.17995E+08
 0.16020000E+02  0.96983E+07
 0.16070002E+02  0.18272E+08
 0.16120001E+02  0.27390E+08
 0.16170000E+02  0.24094E+08
 0.16220001E+02  0.12374E+08
 0.16270000E+02  0.17796E+08
 0.16320002E+02  0.15321E+08
 0.16370001E+02 -0.64053E+07
 0.16420000E+02 -0.62027E+07
 0.16470001E+02 -0.46949E+07
 0.16520000E+02 -0.73757E+07
 0.16570002E+02 -0.70532E+07
 0.16620001E+02 -0.14158E+08
 0.16670000E+02 -0.17416E+08
 0.16720001E+02 -0.19685E+08
 0.16770000E+02 -0.21591E+08
 0.16820002E+02 -0.10359E+08
 0.16870001E+02  0.56899E+07
 0.16920000E+02  0.14311E+08
 0.16970001E+02  0.58467E+07
 0.17020000E+02 -0.38054E+07
 0.17070002E+02  0.22420E+07
 0.17120001E+02 -0.22896E+07
 0.17170000E+02 -0.18134E+08
 0.17220001E+02 -0.22585E+08
 0.17270000E+02 -0.17013E+08
 0.17320002E+02 -0.20508E+08
 0.17370001E+02 -0.15556E+08
 0.17420000E+02 -0.55385E+07
 0.17470001E+02 -0.14857E+08
 0.17520000E+02 -0.48765E+07
 0.17570002E+02  0.25609E+06
 0.17620001E+02 -0.87130E+07
 0.17670000E+02  0.56317E+06
 0.17720001E+02 -0.51306E+06
 0.17770000E+02 -0.28670E+07
 0.17820002E+02  0.23527E+07
 0.17870001E+02  0.14050E+07
 0.17920000E+02  0.80796E+06
 0.17970001E+02  0.25824E+07
 0.18020000E+02  0.32048E+07
 0.18070002E+02  0.44909E+07
 0.18120001E+02  0.83774E+07
 0.18170000E+02 -0.33277E+07
 0.18220001E+02 -0.15216E+08
 0.18270000E+02 -0.11771E+08
 0.18320002E+02 -0.14218E+08
 0.18370001E+02 -0.17429E+08
 0.18420000E+02 -0.18705E+08
 0.18470001E+02 -0.18239E+08
 0.18520000E+02 -0.19560E+08
 0.18570002E+02 -0.17326E+08
 0.18620001E+02 -0.18752E+08
 0.18670000E+02 -0.16545E+08
 0.18720001E+02  0.35716E+07
 0.18770000E+02  0.61709E+07
 0.18820002E+02  0.10454E+08
 0.18870001E+02  0.19762E+08
 0.18920000E+02  0.20554E+08
 0.18970001E+02  0.24141E+08
 0.19020000E+02  0.17334E+08
 0.19070002E+02  0.10416E+08
 0.19120001E+02  0.62608E+07
 0.19170000E+02  0.24156E+06
 0.19220001E+02 -0.25724E+07
 0.19270000E+02  0.51803E+05
 0.19320002E+02  0.29342E+07
 0.19370001E+02 -0.28213E+07
 0.19420000E+02 -0.67296E+07
 0.19470001E+02 -0.86282E+07
 0.19520000E+02 -0.93373E+07
 0.19570002E+02 -0.10655E+08
 0.19620001E+02 -0.11495E+08
 0.19670000E+02 -0.63992E+05
 0.19720001E+02  0.92382E+07
 0.19770000E+02  0.15756E+08
 0.19820002E+02  0.16042E+08
 0.19870001E+02  0.10668E+08
 0.19920000E+02  0.58874E+07
 0.19970001E+02 -0.26697E+07
 0.20020000E+02 -0.17976E+07
 0.20070002E+02  0.95398E+06
 0.20120001E+02  0.27550E+04
 0.20170000E+02 -0.79060E+06
 0.20220001E+02  0.25057E+06
 0.20270000E+02  0.78835E+07
 0.20320002E+02  0.15624E+08
 0.20370001E+02  0.20166E+08
 0.20420000E+02  0.22737E+08
 0.20470001E+02  0.21767E+08
 0.20520000E+02  0.20003E+08
 0.20570002E+02  0.16104E+08
 0.20620001E+02  0.83105E+07
 0.20670000E+02  0.24822E+07
 0.20720001E+02 -0.20783E+07
 0.20770000E+02 -0.84686E+07
 0.20820002E+02 -0.15242E+08
 0.20870001E+02 -0.15489E+08
 0.20920000E+02 -0.12888E+08
 0.20970001E+02 -0.12380E+08
 0.21020000E+02 -0.10241E+08
 0.21070002E+02 -0.10977E+08
 0.21120001E+02 -0.10781E+08
 0.21170000E+02 -0.75291E+07
 0.21220001E+02 -0.52653E+07
 0.21270000E+02 -0.32257E+06
 0.21320002E+02  0.46945E+07
 0.21370001E+02  0.67434E+07
 0.21420000E+02  0.69322E+07
 0.21470001E+02  0.70199E+07
 0.21520000E+02  0.65312E+07
 0.21570002E+02  0.31096E+07
 0.21620001E+02  0.20977E+07
 0.21670000E+02  0.34051E+07
 0.21720001E+02  0.18644E+07
 0.21770000E+02  0.53656E+06
 0.21820002E+02 -0.13094E+07
 0.21870001E+02 -0.32437E+07
 0.21920000E+02 -0.12955E+07
 0.21970001E+02  0.32373E+07
 0.22020000E+02  0.65747E+07
 0.22070002E+02  0.88365E+07
 0.22120001E+02  0.11668E+08
 0.22170000E+02  0.11636E+08
 0.22220001E+02  0.10394E+08
 0.22270000E+02  0.99385E+07
 0.22320002E+02  0.90945E+07
 0.22370001E+02  0.82801E+07
 0.22420000E+02  0.96125E+07
 0.22470001E+02  0.10618E+08
 0.22520000E+02  0.72984E+07
 0.22570002E+02  0.46758E+07
 0.22620001E+02  0.24054E+07
 0.22670000E+02 -0.13498E+07
 0.22720001E+02 -0.16741E+07
 0.22770000E+02  0.32383E+06
 0.22820002E+02  0.38207E+06
 0.22870001E+02  0.16655E+07
 0.22920000E+02  0.43845E+07
 0.22970001E+02  0.60035E+07
 0.23020000E+02  0.83329E+07
 0.23070002E+02  0.92319E+07
 0.23120001E+02  0.82267E+07
 0.23170000E+02  0.72827E+07
 0.23220001E+02  0.67265E+07
 0.23270000E+02  0.79657E+07
 0.23320002E+02  0.10617E+08
 0.23370001E+02  0.11591E+08
 0.23420000E+02  0.87935E+07
 0.23470001E+02  0.60241E+07
 0.23520000E+02  0.38253E+07
 0.23570002E+02 -0.26311E+06
 0.23620001E+02 -0.43225E+06
 0.23670000E+02  0.11568E+07
 0.23720001E+02  0.11115E+07
 0.23770000E+02  0.23042E+07
 0.23820002E+02  0.18754E+07
 0.23870001E+02  0.14004E+07
 0.23920000E+02  0.36168E+07
 0.23970001E+02  0.67079E+07
 0.24020000E+02  0.10139E+08
 0.24070002E+02  0.12199E+08
 0.24120001E+02  0.10268E+08
 0.24170000E+02  0.10560E+08
 0.24220001E+02  0.11663E+08
 0.24270000E+02  0.98250E+07
 0.24320002E+02  0.10452E+08
 0.24370001E+02  0.11076E+08
 0.24420000E+02  0.12144E+08
 0.24470001E+02  0.10020E+08
 0.24520000E+02  0.59562E+07
 0.24570002E+02  0.70225E+07
 0.24620001E+02  0.71751E+07
 0.24670000E+02  0.43109E+07
 0.24720001E+02  0.13358E+07
 0.24770000E+02 -0.24114E+06
 0.24820002E+02 -0.23520E+07
 0.24870001E+02 -0.43604E+07
 0.24920000E+02 -0.41100E+07
 0.24970001E+02 -0.29801E+07
 0.25020000E+02 -0.22394E+07
 0.25070002E+02 -0.41823E+07
 0.25120001E+02 -0.59844E+07
 0.25170000E+02 -0.51392E+07
 0.25220001E+02 -0.47809E+07
 0.25270000E+02 -0.29876E+07
 0.25320002E+02  0.24969E+07
 0.25370001E+02  0.77594E+07
 0.25420000E+02  0.10753E+08
 0.25470001E+02  0.11352E+08
 0.25520000E+02  0.77742E+07
 0.25570002E+02  0.37796E+07
 0.25620001E+02  0.33207E+07
 0.25670000E+02  0.19976E+07
 0.25720001E+02  0.19174E+07
 0.25770000E+02  0.45747E+07
 0.25820002E+02  0.55580E+07
 0.25870001E+02  0.54953E+07
 0.25920000E+02  0.40307E+07
 0.25970001E+02  0.21073E+07
 0.26020000E+02  0.17936E+07
 0.26070002E+02  0.31386E+07
 0.26120001E+02  0.55318E+07
 0.26170000E+02  0.75642E+07
 0.26220001E+02  0.88566E+07
 0.26270000E+02  0.95166E+07
 0.26320002E+02  0.92175E+07
 0.26370001E+02  0.78379E+07
 0.26420000E+02  0.75109E+07
 0.26470001E+02  0.90185E+07
 0.26520000E+02  0.93479E+07
 0.26570002E+02  0.88764E+07
 0.26620001E+02  0.93392E+07
 0.26670000E+02  0.95574E+07
 0.26720001E+02  0.76427E+07
 0.26770000E+02  0.43339E+07
 0.26820002E+02  0.14090E+07
 0.26870001E+02 -0.16592E+07
 0.26920000E+02 -0.36090E+07
 0.26970001E+02 -0.25215E+07
 0.27020000E+02 -0.10660E+06
 0.27070002E+02  0.15811E+07
 0.27120001E+02  0.34678E+07
 0.27170000E+02  0.36172E+07
 0.27220001E+02  0.18081E+07
 0.27270000E+02  0.39123E+06
 0.27320002E+02 -0.16299E+07
 0.27370001E+02 -0.24565E+07
 0.27420000E+02 -0.18054E+07
 0.27470001E+02 -0.20936E+06
 0.27520000E+02  0.17255E+07
 0.27570002E+02  0.24541E+07
 0.27620001E+02  0.34367E+07
 0.27670000E+02  0.29056E+07
 0.27720001E+02  0.21362E+07
 0.27770000E+02  0.30723E+07
 0.27820002E+02  0.38327E+07
 0.27870001E+02  0.44419E+07
 0.27920000E+02  0.53239E+07
 0.27970001E+02  0.61448E+07
 0.28020000E+02  0.69141E+07
 0.28070002E+02  0.86640E+07
 0.28120001E+02  0.93465E+07
 0.28170000E+02  0.98880E+07
 0.28220001E+02  0.10785E+08
 0.28270000E+02  0.11640E+08
 0.28320002E+02  0.12488E+08
 0.28370001E+02  0.10785E+08
 0.28420000E+02  0.91630E+07
 0.28470001E+02  0.79467E+07
 0.28520000E+02  0.53566E+07
 0.28570002E+02  0.23291E+07
 0.28620001E+02  0.19990E+07
 0.28670000E+02  0.27182E+07
 0.28720001E+02  0.17583E+07
 0.28770000E+02  0.16547E+07
 0.28820002E+02  0.91526E+06
 0.28870001E+02  0.82820E+06
 0.28920000E+02  0.17823E+07
 0.28970001E+02  0.27288E+07
 0.29020000E+02  0.38673E+07
 0.29070000E+02  0.42694E+07
 0.29120003E+02  0.47547E+07
 0.29170002E+02  0.55794E+07
 0.29220001E+02  0.62114E+07
 0.29270000E+02  0.44421E+07
 0.29320000E+02  0.23560E+07
 0.29370003E+02  0.12410E+07
 0.29420002E+02  0.11635E+07
 0.29470001E+02  0.19403E+07
 0.29520000E+02  0.28226E+07
 0.29570000E+02  0.53865E+07
 0.29620003E+02  0.77233E+07
 0.29670002E+02  0.85304E+07
 0.29720001E+02  0.73590E+07
 0.29770000E+02  0.49579E+07
 0.29820000E+02  0.39396E+07
 0.29870003E+02  0.48396E+07
 0.29920002E+02  0.55137E+07
 0.29970001E+02  0.65846E+07
 0.30020000E+02  0.83581E+07
 0.30070000E+02  0.83628E+07
 0.30120003E+02  0.71335E+07
 0.30170002E+02  0.57125E+07
 0.30220001E+02  0.43529E+07
 0.30270000E+02  0.32489E+07
 0.30320000E+02  0.24325E+07
 0.30370003E+02  0.13396E+07
 0.30420002E+02  0.14830E+07
 0.30470001E+02  0.33345E+07
 0.30520000E+02  0.37027E+07
 0.30570000E+02  0.28031E+07
 0.30620003E+02  0.20551E+07
 0.30670002E+02  0.94756E+06
 0.30720001E+02  0.65381E+06
 0.30770000E+02  0.13063E+07
 0.30820000E+02  0.21022E+07
 0.30870003E+02  0.31202E+07
 0.30920002E+02  0.37335E+07
 0.30970001E+02  0.42803E+07
 0.31020000E+02  0.51396E+07
 0.31070000E+02  0.57783E+07
 0.31120003E+02  0.59106E+07
 0.31170002E+02  0.57961E+07
 0.31220001E+02  0.53599E+07
 0.31270000E+02  0.44773E+07
 0.31320000E+02  0.38594E+07
 0.31370003E+02  0.34787E+07
 0.31420002E+02  0.37518E+07
 0.31470001E+02  0.40053E+07
 0.31520000E+02  0.31141E+07
 0.31570000E+02  0.25648E+07
 0.31620003E+02  0.22497E+07
 0.31670002E+02  0.13331E+07
 0.31720001E+02  0.12788E+07
 0.31770000E+02  0.22859E+07
 0.31820000E+02  0.30904E+07
 0.31870003E+02  0.44381E+07
 0.31920002E+02  0.61361E+07
 0.31970001E+02  0.72997E+07
 0.32020000E+02  0.75465E+07
 0.32070000E+02  0.60436E+07
 0.32120003E+02  0.42447E+07
 0.32170002E+02  0.34743E+07
 0.32220001E+02  0.26146E+07
 0.32270000E+02  0.12784E+07
 0.32320000E+02  0.78334E+06
 0.32370003E+02  0.13523E+07
 0.32420002E+02  0.26901E+07
 0.32470001E+02  0.38215E+07
 0.32520000E+02  0.40242E+07
 0.32570000E+02  0.40439E+07
 0.32620003E+02  0.32091E+07
 0.32670002E+02  0.28676E+07
 0.32720001E+02  0.41005E+07
 0.32770000E+02  0.37748E+07
 0.32820000E+02  0.21794E+07
 0.32870003E+02  0.19429E+07
 0.32920002E+02  0.23299E+07
 0.32970001E+02  0.30631E+07
 0.33020000E+02  0.44104E+07
 0.33070000E+02  0.54744E+07
 0.33120003E+02  0.64163E+07
 0.33170002E+02  0.66016E+07
 0.33220001E+02  0.59920E+07
 0.33270000E+02  0.59471E+07
 0.33320000E+02  0.58178E+07
 0.33370003E+02  0.51578E+07
 0.33420002E+02  0.45209E+07
 0.33470001E+02  0.42044E+07
 0.33520000E+02  0.43439E+07
 0.33570000E+02  0.44357E+07
 0.33620003E+02  0.38436E+07
 0.33670002E+02  0.30956E+07
 0.33720001E+02  0.28607E+07
 0.33770000E+02  0.25131E+07
 0.33820000E+02  0.21560E+07
 0.33870003E+02  0.17966E+07
 0.33920002E+02  0.17703E+07
 0.33970001E+02  0.24306E+07
 0.34020000E+02  0.30260E+07
 0.34070000E+02  0.37222E+07
 0.34120003E+02  0.38333E+07
 0.34170002E+02  0.40240E+07
 0.34220001E+02  0.39844E+07
 0.34270000E+02  0.25984E+07
 0.34320000E+02  0.14221E+07
 0.34370003E+02  0.55484E+06
 0.34420002E+02  0.79891E+06
 0.34470001E+02  0.12184E+07
 0.34520000E+02  0.57294E+06
 0.34570000E+02  0.59702E+06
 0.34620003E+02  0.87450E+06
 0.34670002E+02  0.11533E+07
 0.34720001E+02  0.16166E+07
 0.34770000E+02  0.24613E+07
 0.34820000E+02  0.41908E+07
 0.34870003E+02  0.53004E+07
 0.34920002E+02  0.57160E+07
 0.34970001E+02  0.59627E+07
 0.35020000E+02  0.60581E+07
 0.35070000E+02  0.65993E+07
 0.35120003E+02  0.63570E+07
 0.35170002E+02  0.50735E+07
 0.35220001E+02  0.34291E+07
 0.35270000E+02  0.18408E+07
 0.35320000E+02  0.70056E+06
 0.35370003E+02  0.23030E+05
 0.35420002E+02 -0.35654E+05
 0.35470001E+02 -0.36274E+06
 0.35520000E+02 -0.60837E+06
 0.35570000E+02 -0.33495E+06
 0.35620003E+02  0.20127E+06
 0.35670002E+02  0.15098E+07
 0.35720001E+02  0.34689E+07
 0.35770000E+02  0.54844E+07
 0.35820000E+02  0.65333E+07
 0.35870003E+02  0.66119E+07
 0.35920002E+02  0.65917E+07
 0.35970001E+02  0.63735E+07
 0.36020000E+02  0.59402E+07
 0.36070000E+02  0.60540E+07
 0.36120003E+02  0.65576E+07
 0.36170002E+02  0.67915E+07
 0.36220001E+02  0.61856E+07
 0.36270000E+02  0.52672E+07
 0.36320000E+02  0.51411E+07
 0.36370003E+02  0.54545E+07
 0.36420002E+02  0.52933E+07
 0.36470001E+02  0.46417E+07
 0.36520000E+02  0.48386E+07
 0.36570000E+02  0.45793E+07
 0.36620003E+02  0.37489E+07
 0.36670002E+02  0.40462E+07
 0.36720001E+02  0.43508E+07
 0.36770000E+02  0.37868E+07
 0.36820000E+02  0.27685E+07
 0.36870003E+02  0.23410E+07
 0.36920002E+02  0.18487E+07
 0.36970001E+02  0.11204E+07
 0.37020000E+02  0.84466E+06
 0.37070000E+02  0.98541E+06
 0.37120003E+02  0.12279E+07
 0.37170002E+02  0.12944E+07
 0.37220001E+02  0.13144E+07
 0.37270000E+02  0.13871E+07
 0.37320000E+02  0.19935E+07
 0.37370003E+02  0.21645E+07
 0.37420002E+02  0.21461E+07
 0.37470001E+02  0.22492E+07
 0.37520000E+02  0.15637E+07
 0.37570000E+02  0.67004E+06
 0.37620003E+02  0.32071E+06
 0.37670002E+02  0.90539E+06
 0.37720001E+02  0.14791E+07
 0.37770000E+02  0.13814E+07
 0.37820000E+02  0.90906E+06
 0.37870003E+02  0.60601E+06
 0.37920002E+02  0.64848E+06
 0.37970001E+02  0.90358E+06
 0.38020000E+02  0.13832E+07
 0.38070000E+02  0.20299E+07
 0.38120003E+02  0.26637E+07
 0.38170002E+02  0.23147E+07
 0.38220001E+02  0.16838E+07
 0.38270000E+02  0.14354E+07
 0.38320000E+02  0.12879E+07
 0.38370003E+02  0.13962E+07
 0.38420002E+02  0.12823E+07
 0.38470001E+02  0.15281E+07
 0.38520000E+02  0.24626E+07
 0.38570000E+02  0.26449E+07
 0.38620003E+02  0.21742E+07
 0.38670002E+02  0.26509E+07
 0.38720001E+02  0.36766E+07
 0.38770000E+02  0.42051E+07
 0.38820000E+02  0.45991E+07
 0.38870003E+02  0.48666E+07
 0.38920002E+02  0.50077E+07
 0.38970001E+02  0.49795E+07
 0.39020000E+02  0.46696E+07
 0.39070000E+02  0.43320E+07
 0.39120003E+02  0.32586E+07
 0.39170002E+02  0.16261E+07
 0.39220001E+02 -0.25352E+06
 0.39270000E+02 -0.20851E+07
 0.39320000E+02 -0.30551E+07
 0.39370003E+02 -0.29350E+07
 0.39420002E+02 -0.19433E+07
 0.39470001E+02 -0.10025E+07
 0.39520000E+02  0.33300E+06
 0.39570000E+02  0.12789E+07
 0.39620003E+02  0.72638E+06
 0.39670002E+02  0.46663E+06
 0.39720001E+02  0.13309E+07
 0.39770000E+02  0.22944E+07
 0.39820000E+02  0.26401E+07
 0.39870003E+02  0.30185E+07
 0.39920002E+02  0.37339E+07
 0.39970001E+02  0.44012E+07
 0.40020000E+02  0.47627E+07
 0.40070000E+02  0.50348E+07
 0.40120003E+02  0.54993E+07
 0.40170002E+02  0.56953E+07
 0.40220001E+02  0.57678E+07
 0.40270000E+02  0.57629E+07
 0.40320000E+02  0.54251E+07
 0.40370003E+02  0.48201E+07
 0.40420002E+02  0.41809E+07
 0.40470001E+02  0.43051E+07
 0.40520000E+02  0.47781E+07
 0.40570000E+02  0.40237E+07
 0.40620003E+02  0.25447E+07
 0.40670002E+02  0.16625E+07
 0.40720001E+02  0.11432E+07
 0.40770000E+02  0.89393E+06
 0.40820000E+02  0.10548E+07
 0.40870003E+02  0.15976E+07
 0.40920002E+02  0.24148E+07
 0.40970001E+02  0.28713E+07
 0.41020000E+02  0.32481E+07
 0.41070000E+02  0.37903E+07
 0.41120003E+02  0.37622E+07
 0.41170002E+02  0.37494E+07
 0.41220001E+02  0.42921E+07
 0.41270000E+02  0.41939E+07
 0.41320000E+02  0.34627E+07
 0.41370003E+02  0.32086E+07
 0.41420002E+02  0.26998E+07
 0.41470001E+02  0.13397E+07
 0.41520000E+02  0.31851E+05
 0.41570000E+02 -0.67441E+06
 0.41620003E+02 -0.72795E+06
 0.41670002E+02 -0.47615E+06
 0.41720001E+02 -0.81467E+05
 0.41770000E+02  0.32105E+06
 0.41820000E+02  0.62374E+06
 0.41870003E+02  0.10549E+07
 0.41920002E+02  0.12094E+07
 0.41970001E+02  0.11359E+07
 0.42020000E+02  0.13293E+07
 0.42070000E+02  0.15717E+07
 0.42120003E+02  0.17266E+07
 0.42170002E+02  0.17568E+07
 0.42220001E+02  0.18085E+07
 0.42270000E+02  0.21233E+07
 0.42320000E+02  0.22336E+07
 0.42370003E+02  0.18743E+07
 0.42420002E+02  0.15601E+07
 0.42470001E+02  0.15557E+07
 0.42520000E+02  0.12387E+07
 0.42570000E+02  0.60996E+06
 0.42620003E+02  0.22694E+06
 0.42670002E+02  0.31578E+06
 0.42720001E+02  0.11698E+07
 0.42770000E+02  0.21380E+07
 0.42820000E+02  0.24591E+07
 0.42870003E+02  0.23504E+07
 0.42920002E+02  0.23402E+07
 0.42970001E+02  0.21594E+07
 0.43020000E+02  0.16467E+07
 0.43070000E+02  0.17938E+07
 0.43120003E+02  0.24381E+07
 0.43170002E+02  0.25999E+07
 0.43220001E+02  0.23191E+07
 0.43270000E+02  0.23998E+07
 0.43320000E+02  0.27667E+07
 0.43370003E+02  0.26722E+07
 0.43420002E+02  0.29016E+07
 0.43470001E+02  0.36360E+07
 0.43520000E+02  0.41907E+07
 0.43570000E+02  0.46960E+07
 0.43620003E+02  0.49191E+07
 0.43670002E+02  0.47844E+07
 0.43720001E+02  0.43162E+07
 0.43770000E+02  0.36758E+07
 0.43820000E+02  0.31080E+07
 0.43870003E+02  0.21173E+07
 0.43920002E+02  0.58390E+06
 0.43970001E+02 -0.32238E+06
 0.44020000E+02 -0.22834E+06
 0.44070000E+02  0.47349E+06
 0.44120003E+02  0.15920E+07
 0.44170002E+02  0.23464E+07
 0.44220001E+02  0.26782E+07
 0.44270000E+02  0.23238E+07
 0.44320000E+02  0.18242E+07
 0.44370003E+02  0.18992E+07
 0.44420002E+02  0.19436E+07
 0.44470001E+02  0.21123E+07
 0.44520000E+02  0.24423E+07
 0.44570000E+02  0.25910E+07
 0.44620003E+02  0.21608E+07
 0.44670002E+02  0.17990E+07
 0.44720001E+02  0.18929E+07
 0.44770000E+02  0.18353E+07
 0.44820000E+02  0.15263E+07
 0.44870003E+02  0.11166E+07
 0.44920002E+02  0.98186E+06
 0.44970001E+02  0.95648E+06
 0.45020000E+02  0.12738E+07
 0.45070000E+02  0.20576E+07
 0.45120003E+02  0.28810E+07
 0.45170002E+02  0.34905E+07
 0.45220001E+02  0.36470E+07
 0.45270000E+02  0.35400E+07
 0.45320000E+02  0.33350E+07
 0.45370003E+02  0.28387E+07
 0.45420002E+02  0.22255E+07
 0.45470001E+02  0.18316E+07
 0.45520000E+02  0.14953E+07
 0.45570000E+02  0.16871E+07
 0.45620003E+02  0.23810E+07
 0.45670002E+02  0.28861E+07
 0.45720001E+02  0.30314E+07
 0.45770000E+02  0.24728E+07
 0.45820000E+02  0.13776E+07
 0.45870003E+02  0.61532E+06
 0.45920002E+02  0.44041E+06
 0.45970001E+02  0.41329E+06
 0.46020000E+02  0.55716E+06
 0.46070000E+02  0.10982E+07
 0.46120003E+02  0.15828E+07
 0.46170002E+02  0.16728E+07
 0.46220001E+02  0.17042E+07
 0.46270000E+02  0.14343E+07
 0.46320000E+02  0.10117E+07
 0.46370003E+02  0.10084E+07
 0.46420002E+02  0.13200E+07
 0.46470001E+02  0.20318E+07
 0.46520000E+02  0.26503E+07
 0.46570000E+02  0.28940E+07
 0.46620003E+02  0.28904E+07
 0.46670002E+02  0.25020E+07
 0.46720001E+02  0.21293E+07
 0.46770000E+02  0.18851E+07
 0.46820000E+02  0.16601E+07
 0.46870003E+02  0.15086E+07
 0.46920002E+02  0.13420E+07
 0.46970001E+02  0.13578E+07
 0.47020000E+02  0.16630E+07
 0.47070000E+02  0.21179E+07
 0.47120003E+02  0.26322E+07
 0.47170002E+02  0.26318E+07
 0.47220001E+02  0.20270E+07
 0.47270000E+02  0.16155E+07
 0.47320000E+02  0.13207E+07
 0.47370003E+02  0.10707E+07
 0.47420002E+02  0.12324E+07
 0.47470001E+02  0.11968E+07
 0.47520000E+02  0.83868E+06
 0.47570000E+02  0.69246E+06
 0.47620003E+02  0.75810E+06
 0.47670002E+02  0.83893E+06
 0.47720001E+02  0.99436E+06
 0.47770000E+02  0.11298E+07
 0.47820000E+02  0.10688E+07
 0.47870003E+02  0.11395E+07
 0.47920002E+02  0.10412E+07
 0.47970001E+02  0.83825E+06
 0.48020000E+02  0.96852E+06
 0.48070000E+02  0.10575E+07
 0.48120003E+02  0.10669E+07
 0.48170002E+02  0.10917E+07
 0.48220001E+02  0.12666E+07
 0.48270000E+02  0.15653E+07
 0.48320000E+02  0.14926E+07
 0.48370003E+02  0.12767E+07
 0.48420002E+02  0.12496E+07
 0.48470001E+02  0.88990E+06
 0.48520000E+02  0.46257E+06
 0.48570000E+02  0.58126E+06
 0.48620003E+02  0.10427E+07
 0.48670002E+02  0.15861E+07
 0.48720001E+02  0.23581E+07
 0.48770000E+02  0.32202E+07
 0.48820000E+02  0.34003E+07
 0.48870003E+02  0.28455E+07
 0.48920002E+02  0.19444E+07
 0.48970001E+02  0.11146E+07
 0.49020000E+02  0.84202E+06
 0.49070000E+02  0.98557E+06
 0.49120003E+02  0.13635E+07
 0.49170002E+02  0.18609E+07
 0.49220001E+02  0.19674E+07
 0.49270000E+02  0.17169E+07
 0.49320000E+02  0.16277E+07
 0.49370003E+02  0.19193E+07
 0.49420002E+02  0.25760E+07
 0.49470001E+02  0.30252E+07
 0.49520000E+02  0.29056E+07
 0.49570000E+02  0.25875E+07
 0.49620003E+02  0.22866E+07
 0.49670002E+02  0.18971E+07
 0.49720001E+02  0.16413E+07
 0.49770000E+02  0.17320E+07
 0.49820000E+02  0.18721E+07
 0.49870003E+02  0.16951E+07
 0.49920002E+02  0.12598E+07
 0.49970001E+02  0.66866E+06
 0.50020000E+02 -0.20375E+06
 0.50070000E+02 -0.68904E+06
 0.50120003E+02 -0.54716E+06
 0.50170002E+02 -0.12225E+06
 0.50220001E+02  0.43759E+06
 0.50270000E+02  0.77074E+06
 0.50320000E+02  0.96507E+06
 0.50370003E+02  0.97758E+06
 0.50420002E+02  0.10310E+07
 0.50470001E+02  0.11042E+07
 0.50520000E+02  0.10095E+07
 0.50570000E+02  0.11798E+07
 0.50620003E+02  0.12543E+07
 0.50670002E+02  0.11936E+07
 0.50720001E+02  0.97633E+06
 0.50770000E+02  0.46074E+06
 0.50820000E+02  0.20244E+06
 0.50870003E+02  0.64997E+05
 0.50920002E+02  0.97115E+05
 0.50970001E+02  0.37710E+06
 0.51020000E+02  0.57232E+06
 0.51070000E+02  0.58112E+06
 0.51120003E+02  0.40629E+06
 0.51170002E+02  0.33189E+06
 0.51220001E+02  0.37726E+06
 0.51270000E+02  0.33146E+06
 0.51320000E+02  0.41416E+06
 0.51370003E+02  0.11330E+07
 0.51420002E+02  0.19462E+07
 0.51470001E+02  0.24516E+07
 0.51520000E+02  0.29190E+07
 0.51570000E+02  0.30525E+07
 0.51620003E+02  0.27856E+07
 0.51670002E+02  0.21408E+07
 0.51720001E+02  0.15603E+07
 0.51770000E+02  0.13124E+07
 0.51820000E+02  0.12275E+07
 0.51870003E+02  0.13265E+07
 0.51920002E+02  0.13485E+07
 0.51970001E+02  0.12174E+07
 0.52020000E+02  0.11217E+07
 0.52070000E+02  0.11894E+07
 0.52120003E+02  0.13932E+07
 0.52170002E+02  0.14061E+07
 0.52220001E+02  0.11866E+07
 0.52270000E+02  0.10606E+07
 0.52320000E+02  0.91367E+06
 0.52370003E+02  0.75665E+06
 0.52420002E+02  0.70872E+06
 0.52470001E+02  0.84295E+06
 0.52520000E+02  0.10559E+07
 0.52570000E+02  0.11047E+07
 0.52620003E+02  0.11274E+07
 0.52670002E+02  0.10838E+07
 0.52720001E+02  0.95572E+06
 0.52770000E+02  0.70200E+06
 0.52820000E+02  0.37984E+06
 0.52870003E+02  0.10171E+06
 0.52920002E+02 -0.16676E+06
 0.52970001E+02 -0.41508E+06
 0.53020000E+02 -0.56986E+06
 0.53070000E+02 -0.40972E+06
 0.53120003E+02 -0.11595E+06
 0.53170002E+02  0.19029E+06
 0.53220001E+02  0.81798E+06
 0.53270000E+02  0.14784E+07
 0.53320000E+02  0.17406E+07
 0.53370003E+02  0.19426E+07
 0.53420002E+02  0.21866E+07
 0.53470001E+02  0.23980E+07
 0.53520000E+02  0.26786E+07
 0.53570000E+02  0.27227E+07
 0.53620003E+02  0.24523E+07
 0.53670002E+02  0.21412E+07
 0.53720001E+02  0.18395E+07
 0.53770000E+02  0.15077E+07
 0.53820000E+02  0.12157E+07
 0.53870003E+02  0.10461E+07
 0.53920002E+02  0.96949E+06
 0.53970001E+02  0.84974E+06
 0.54020000E+02  0.72168E+06
 0.54070000E+02  0.75261E+06
 0.54120003E+02  0.90332E+06
 0.54170002E+02  0.96760E+06
 0.54220001E+02  0.92087E+06
 0.54270000E+02  0.76978E+06
 0.54320000E+02  0.38384E+06
 0.54370003E+02  0.56772E+05
 0.54420002E+02 -0.87590E+05
 0.54470001E+02 -0.21536E+06
 0.54520000E+02 -0.32170E+06
 0.54570000E+02 -0.42314E+06
 0.54620003E+02 -0.22926E+06
 0.54670002E+02  0.21329E+06
 0.54720001E+02  0.64171E+06
 0.54770000E+02  0.10644E+07
 0.54820000E+02  0.13502E+07
 0.54870003E+02  0.14280E+07
 0.54920002E+02  0.14476E+07
 0.54970001E+02  0.15485E+07
 0.55020000E+02  0.14177E+07
 0.55070000E+02  0.98260E+06
 0.55120003E+02  0.59068E+06
 0.55170002E+02  0.36162E+06
 0.55220001E+02  0.17097E+06
 0.55270000E+02 -0.10054E+06
 0.55320000E+02 -0.34426E+06
 0.55370003E+02 -0.62914E+06
 0.55420002E+02 -0.81742E+06
 0.55470001E+02 -0.70843E+06
 0.55520000E+02 -0.48557E+06
 0.55570000E+02 -0.15611E+06
 0.55620003E+02  0.14951E+06
 0.55670002E+02  0.17617E+06
 0.55720001E+02  0.35103E+05
 0.55770000E+02 -0.51018E+05
 0.55820000E+02 -0.31914E+05
 0.55870003E+02  0.34675E+05
 0.55920002E+02  0.10959E+06
 0.55970001E+02  0.28468E+06
 0.56020000E+02  0.55949E+06
 0.56070000E+02  0.72474E+06
 0.56120003E+02  0.87393E+06
 0.56170002E+02  0.11720E+07
 0.56220001E+02  0.15636E+07
 0.56270000E+02  0.20531E+07
 0.56320000E+02  0.24566E+07
 0.56370003E+02  0.25699E+07
 0.56420002E+02  0.24471E+07
 0.56470001E+02  0.20753E+07
 0.56520000E+02  0.16246E+07
 0.56570000E+02  0.13129E+07
 0.56620003E+02  0.10863E+07
 0.56670002E+02  0.84722E+06
 0.56720001E+02  0.62948E+06
 0.56770000E+02  0.66853E+06
 0.56820000E+02  0.75290E+06
 0.56870003E+02  0.66392E+06
 0.56920002E+02  0.56817E+06
 0.56970001E+02  0.52204E+06
 0.57020000E+02  0.47341E+06
 0.57070000E+02  0.47921E+06
 0.57120003E+02  0.75675E+06
 0.57170002E+02  0.12754E+07
 0.57220001E+02  0.16841E+07
 0.57270000E+02  0.16223E+07
 0.57320000E+02  0.12629E+07
 0.57370003E+02  0.86174E+06
 0.57420002E+02  0.46151E+06
 0.57470001E+02  0.58597E+05
 0.57520000E+02 -0.29095E+06
 0.57570000E+02 -0.30141E+06
 0.57620003E+02 -0.88952E+05
 0.57670002E+02  0.15879E+06
 0.57720001E+02  0.54821E+06
 0.57770000E+02  0.11045E+07
 0.57820000E+02  0.17491E+07
 0.57870003E+02  0.22042E+07
 0.57920002E+02  0.22858E+07
 0.57970001E+02  0.22464E+07
 0.58020000E+02  0.22168E+07
 0.58070000E+02  0.21764E+07
 0.58120003E+02  0.22276E+07
 0.58170002E+02  0.22448E+07
 0.58220001E+02  0.21016E+07
 0.58270000E+02  0.18407E+07
 0.58320000E+02  0.15492E+07
 0.58370003E+02  0.13746E+07
 0.58420002E+02  0.13631E+07
 0.58470001E+02  0.14057E+07
 0.58520000E+02  0.14587E+07
 0.58570000E+02  0.15498E+07
 0.58620003E+02  0.15029E+07
 0.58670002E+02  0.11140E+07
 0.58720001E+02  0.61678E+06
 0.58770000E+02  0.24206E+06
 0.58820000E+02  0.19891E+05
 0.58870003E+02  0.67605E+05
 0.58920002E+02  0.18421E+06
 0.58970001E+02  0.21269E+06
 0.59020000E+02  0.15174E+06
 0.59070000E+02  0.13220E+04
 0.59120003E+02 -0.10658E+06
 0.59170002E+02 -0.20848E+06
 0.59220001E+02 -0.41599E+06
 0.59270000E+02 -0.65264E+06
 0.59320000E+02 -0.66378E+06
 0.59370003E+02 -0.47148E+06
 0.59420002E+02 -0.23259E+06
 0.59470001E+02  0.14820E+04
 0.59520000E+02  0.13818E+06
 0.59570000E+02  0.19522E+06
 0.59620003E+02  0.85227E+05
 0.59670002E+02 -0.19570E+06
 0.59720001E+02 -0.45327E+06
 0.59770000E+02 -0.69102E+06
 0.59820000E+02 -0.85250E+06
 0.59870003E+02 -0.91968E+06
 0.59920002E+02 -0.98184E+06
 0.59970001E+02 -0.95379E+06
 0.60020000E+02 -0.84077E+06
 0.60070000E+02 -0.67922E+06
 0.60120003E+02 -0.38417E+06
 0.60170002E+02 -0.68900E+04
 0.60220001E+02  0.30335E+06
 0.60270000E+02  0.48429E+06
 0.60320000E+02  0.56153E+06
 0.60370003E+02  0.70234E+06
 0.60420002E+02  0.88554E+06
 0.60470001E+02  0.10004E+07
 0.60520000E+02  0.11518E+07
 0.60570000E+02  0.11558E+07
 0.60620003E+02  0.11231E+07
 0.60670002E+02  0.14122E+07
 0.60720001E+02  0.16174E+07
 0.60770000E+02  0.14812E+07
 0.60820000E+02  0.12899E+07
 0.60870003E+02  0.11449E+07
 0.60920002E+02  0.95676E+06
 0.60970001E+02  0.75629E+06
 0.61020000E+02  0.48711E+06
 0.61070004E+02  0.77082E+05
 0.61119999E+02 -0.19210E+06
 0.61170002E+02 -0.26148E+06
 0.61220005E+02 -0.20238E+06
 0.61270000E+02 -0.55835E+05
 0.61320004E+02 -0.10240E+06
 0.61369999E+02 -0.30641E+06
 0.61420002E+02 -0.40195E+06
 0.61470005E+02 -0.39350E+06
 0.61520000E+02 -0.17041E+06
 0.61570004E+02  0.21990E+06
 0.61619999E+02  0.36844E+06
 0.61670002E+02  0.32550E+06
 0.61720005E+02  0.33152E+06
 0.61770000E+02  0.39313E+06
 0.61820004E+02  0.40768E+06
 0.61869999E+02  0.38608E+06
 0.61920002E+02  0.47258E+06
 0.61970005E+02  0.59806E+06
 0.62020000E+02  0.77818E+06
 0.62070004E+02  0.11202E+07
 0.62119999E+02  0.14848E+07
 0.62170002E+02  0.17368E+07
 0.62220005E+02  0.18267E+07
 0.62270000E+02  0.18278E+07
 0.62320004E+02  0.17664E+07
 0.62369999E+02  0.15904E+07
 0.62420002E+02  0.13205E+07
 0.62470005E+02  0.10012E+07
 0.62520000E+02  0.76463E+06
 0.62570004E+02  0.46070E+06
 0.62619999E+02  0.12041E+06
 0.62670002E+02 -0.43917E+05
 0.62720005E+02 -0.22636E+06
 0.62770000E+02 -0.43119E+06
 0.62820004E+02 -0.43000E+06
 0.62869999E+02 -0.30158E+06
 0.62920002E+02 -0.29647E+06
 0.62970005E+02 -0.33754E+06
 0.63020000E+02 -0.32186E+06
 0.63070004E+02 -0.32775E+06
 0.63119999E+02 -0.39083E+06
 0.63170002E+02 -0.44103E+06
 0.63220005E+02 -0.27881E+06
 0.63270000E+02  0.23227E+05
 0.63320004E+02  0.26775E+06
 0.63369999E+02  0.36464E+06
 0.63420002E+02  0.25520E+06
 0.63470005E+02  0.44897E+05
 0.63520000E+02 -0.22421E+06
 0.63570004E+02 -0.51309E+06
 0.63619999E+02 -0.62963E+06
 0.63670002E+02 -0.61048E+06
 0.63720005E+02 -0.52859E+06
 0.63770000E+02 -0.26396E+06
 0.63820004E+02 -0.82251E+05
 0.63869999E+02 -0.55772E+05
 0.63920002E+02  0.20278E+05
 0.63970005E+02  0.10648E+06
 0.64019997E+02  0.27046E+06
 0.64070000E+02  0.27269E+06
 0.64119995E+02  0.74345E+05
 0.64169998E+02  0.63910E+04
 0.64220001E+02 -0.17682E+05
 0.64269997E+02 -0.91155E+05
 0.64320000E+02 -0.59278E+05
 0.64369995E+02  0.55733E+05
 0.64419998E+02  0.13987E+06
 0.64470001E+02  0.17248E+06
 0.64519997E+02  0.17018E+06
 0.64570000E+02  0.31474E+06
 0.64619995E+02  0.65246E+06
 0.64669998E+02  0.10292E+07
 0.64720001E+02  0.12776E+07
 0.64769997E+02  0.14018E+07
 0.64820000E+02  0.14421E+07
 0.64869995E+02  0.13696E+07
 0.64919998E+02  0.12831E+07
 0.64970001E+02  0.11771E+07
 0.65019997E+02  0.10101E+07
 0.65070000E+02  0.75399E+06
 0.65119995E+02  0.42237E+06
 0.65169998E+02  0.34913E+05
 0.65220001E+02 -0.41274E+06
 0.65269997E+02 -0.71491E+06
 0.65320000E+02 -0.86233E+06
 0.65369995E+02 -0.10727E+07
 0.65419998E+02 -0.13235E+07
 0.65470001E+02 -0.15334E+07
 0.65519997E+02 -0.16644E+07
 0.65570000E+02 -0.16002E+07
 0.65619995E+02 -0.13024E+07
 0.65669998E+02 -0.10251E+07
 0.65720001E+02 -0.87443E+06
 0.65769997E+02 -0.68616E+06
 0.65820000E+02 -0.46144E+06
 0.65869995E+02 -0.18614E+06
 0.65919998E+02  0.11364E+06
 0.65970001E+02  0.35117E+06
 0.66019997E+02  0.60182E+06
 0.66070000E+02  0.81368E+06
 0.66119995E+02  0.84268E+06
 0.66169998E+02  0.86576E+06
 0.66220001E+02  0.97093E+06
 0.66269997E+02  0.10336E+07
 0.66320000E+02  0.11767E+07
 0.66369995E+02  0.13149E+07
 0.66419998E+02  0.12357E+07
 0.66470001E+02  0.10502E+07
 0.66519997E+02  0.84798E+06
 0.66570000E+02  0.67194E+06
 0.66619995E+02  0.54756E+06
 0.66669998E+02  0.43912E+06
 0.66720001E+02  0.29840E+06
 0.66769997E+02  0.48014E+05
 0.66820000E+02 -0.24637E+06
 0.66869995E+02 -0.52541E+06
 0.66919998E+02 -0.86831E+06
 0.66970001E+02 -0.11968E+07
 0.67019997E+02 -0.14116E+07
 0.67070000E+02 -0.16029E+07
 0.67119995E+02 -0.17185E+07
 0.67169998E+02 -0.16493E+07
 0.67220001E+02 -0.14810E+07
 0.67269997E+02 -0.13503E+07
 0.67320000E+02 -0.13630E+07
 0.67369995E+02 -0.13953E+07
 0.67419998E+02 -0.13803E+07
 0.67470001E+02 -0.14002E+07
 0.67519997E+02 -0.12709E+07
 0.67570000E+02 -0.89110E+06
 0.67619995E+02 -0.34126E+06
 0.67669998E+02  0.31525E+06
 0.67720001E+02  0.86100E+06
 0.67769997E+02  0.11394E+07
 0.67820000E+02  0.12996E+07
 0.67869995E+02  0.14098E+07
 0.67919998E+02  0.14182E+07
 0.67970001E+02  0.13559E+07
 0.68019997E+02  0.12240E+07
 0.68070000E+02  0.10772E+07
 0.68119995E+02  0.94422E+06
 0.68169998E+02  0.76949E+06
 0.68220001E+02  0.54979E+06
 0.68269997E+02  0.45396E+06
 0.68320000E+02  0.59751E+06
 0.68369995E+02  0.85562E+06
 0.68419998E+02  0.11205E+07
 0.68470001E+02  0.13133E+07
 0.68519997E+02  0.13952E+07
 0.68570000E+02  0.13709E+07
 0.68619995E+02  0.12074E+07
 0.68669998E+02  0.92585E+06
 0.68720001E+02  0.64668E+06
 0.68769997E+02  0.48029E+06
 0.68820000E+02  0.41765E+06
 0.68869995E+02  0.28890E+06
 0.68919998E+02 -0.12817E+05
 0.68970001E+02 -0.34204E+06
 0.69019997E+02 -0.53641E+06
 0.69070000E+02 -0.58360E+06
 0.69119995E+02 -0.60075E+06
 0.69169998E+02 -0.62892E+06
 0.69220001E+02 -0.57800E+06
 0.69269997E+02 -0.42067E+06
 0.69320000E+02 -0.23878E+06
 0.69369995E+02 -0.16841E+06
 0.69419998E+02 -0.20551E+06
 0.69470001E+02 -0.24107E+06
 0.69519997E+02 -0.23187E+06
 0.69570000E+02 -0.13633E+06
 0.69619995E+02  0.13010E+05
 0.69669998E+02  0.11814E+06
 0.69720001E+02  0.11980E+06
 0.69769997E+02  0.16728E+05
 0.69820000E+02 -0.10294E+06
 0.69869995E+02 -0.17155E+06
 0.69919998E+02 -0.22288E+06
 0.69970001E+02 -0.30219E+06
 0.70019997E+02 -0.44772E+06
 0.70070000E+02 -0.67231E+06
 0.70119995E+02 -0.91727E+06
 0.70169998E+02 -0.11896E+07
 0.70220001E+02 -0.14817E+07
 0.70269997E+02 -0.15964E+07
 0.70320000E+02 -0.14906E+07
 0.70369995E+02 -0.13802E+07
 0.70419998E+02 -0.12949E+07
 0.70470001E+02 -0.11734E+07
 0.70519997E+02 -0.10494E+07
 0.70570000E+02 -0.82150E+06
 0.70619995E+02 -0.49928E+06
 0.70669998E+02 -0.29726E+06
 0.70720001E+02 -0.21619E+06
 0.70769997E+02 -0.16612E+06
 0.70820000E+02 -0.13997E+06
 0.70869995E+02 -0.12284E+06
 0.70919998E+02 -0.58416E+05
 0.70970001E+02  0.14330E+05
 0.71019997E+02  0.19345E+05
 0.71070000E+02  0.18580E+04
 0.71119995E+02 -0.63465E+05
 0.71169998E+02 -0.74181E+05
 0.71220001E+02  0.11140E+04
 0.71269997E+02  0.30611E+05
 0.71320000E+02  0.35436E+05
 0.71369995E+02 -0.48550E+04
 0.71419998E+02 -0.41248E+05
 0.71470001E+02 -0.48922E+05
 0.71519997E+02 -0.61412E+05
 0.71570000E+02 -0.16764E+05
 0.71619995E+02  0.69841E+05
 0.71669998E+02  0.14639E+06
 0.71720001E+02  0.98100E+05
 0.71769997E+02 -0.73074E+05
 0.71820000E+02 -0.24297E+06
 0.71869995E+02 -0.45014E+06
 0.71919998E+02 -0.66244E+06
 0.71970001E+02 -0.79223E+06
 0.72019997E+02 -0.88200E+06
 0.72070000E+02 -0.91698E+06
 0.72119995E+02 -0.82813E+06
 0.72169998E+02 -0.65767E+06
 0.72220001E+02 -0.46205E+06
 0.72269997E+02 -0.22735E+06
 0.72320000E+02 -0.38124E+05
 0.72369995E+02  0.57647E+05
 0.72419998E+02  0.11790E+06
 0.72470001E+02  0.11793E+06
 0.72519997E+02  0.10671E+06
 0.72570000E+02  0.16376E+06
 0.72619995E+02  0.23033E+06
 0.72669998E+02  0.22851E+06
 0.72720001E+02  0.16563E+06
 0.72769997E+02  0.67603E+05
 0.72820000E+02 -0.47475E+05
 0.72869995E+02 -0.14232E+06
 0.72919998E+02 -0.14788E+06
 0.72970001E+02  0.35340E+05
 0.73019997E+02  0.31516E+06
 0.73070000E+02  0.53035E+06
 0.73119995E+02  0.66672E+06
 0.73169998E+02  0.66253E+06
 0.73220001E+02  0.49372E+06
 0.73269997E+02  0.25757E+06
 0.73320000E+02  0.75482E+05
 0.73369995E+02 -0.23259E+05
 0.73419998E+02 -0.14966E+06
 0.73470001E+02 -0.34395E+06
 0.73519997E+02 -0.54726E+06
 0.73570000E+02 -0.72581E+06
 0.73619995E+02 -0.86938E+06
 0.73669998E+02 -0.97231E+06
 0.73720001E+02 -0.10809E+07
 0.73769997E+02 -0.11512E+07
 0.73820000E+02 -0.11373E+07
 0.73869995E+02 -0.10726E+07
 0.73919998E+02 -0.99374E+06
 0.73970001E+02 -0.97234E+06
 0.74019997E+02 -0.96863E+06
 0.74070000E+02 -0.95921E+06
 0.74119995E+02 -0.95418E+06
 0.74169998E+02 -0.95269E+06
 0.74220001E+02 -0.91215E+06
 0.74269997E+02 -0.76283E+06
 0.74320000E+02 -0.58378E+06
 0.74369995E+02 -0.40722E+06
 0.74419998E+02 -0.20578E+06
 0.74470001E+02 -0.73407E+05
 0.74519997E+02 -0.49111E+05
 0.74570000E+02 -0.80357E+05
 0.74619995E+02 -0.13540E+06
 0.74669998E+02 -0.16322E+06
 0.74720001E+02 -0.14289E+06
 0.74769997E+02 -0.11087E+06
 0.74820000E+02 -0.11574E+06
 0.74869995E+02 -0.14414E+06
 0.74919998E+02 -0.19051E+06
 0.74970001E+02 -0.29373E+06
 0.75019997E+02 -0.46339E+06
 0.75070000E+02 -0.62265E+06
 0.75119995E+02 -0.71634E+06
 0.75169998E+02 -0.78258E+06
 0.75220001E+02 -0.79557E+06
 0.75269997E+02 -0.75719E+06
 0.75320000E+02 -0.64102E+06
 0.75369995E+02 -0.41251E+06
 0.75419998E+02 -0.18448E+06
 0.75470001E+02 -0.80879E+05
 0.75519997E+02 -0.12816E+06
 0.75570000E+02 -0.23903E+06
 0.75619995E+02 -0.31695E+06
 0.75669998E+02 -0.34420E+06
 0.75720001E+02 -0.31136E+06
 0.75769997E+02 -0.23578E+06
 0.75820000E+02 -0.17431E+06
 0.75869995E+02 -0.88450E+05
 0.75919998E+02  0.55028E+05
 0.75970001E+02  0.20270E+06
 0.76019997E+02  0.26861E+06
 0.76070000E+02  0.24680E+06
 0.76119995E+02  0.22112E+06
 0.76169998E+02  0.16067E+06
 0.76220001E+02  0.51196E+05
 0.76269997E+02 -0.95480E+05
 0.76320000E+02 -0.30132E+06
 0.76369995E+02 -0.48217E+06
 0.76419998E+02 -0.55162E+06
 0.76470001E+02 -0.51512E+06
 0.76519997E+02 -0.45278E+06
 0.76570000E+02 -0.48092E+06
 0.76619995E+02 -0.65774E+06
 0.76669998E+02 -0.88481E+06
 0.76720001E+02 -0.10028E+07
 0.76769997E+02 -0.99051E+06
 0.76820000E+02 -0.90624E+06
 0.76869995E+02 -0.78453E+06
 0.76919998E+02 -0.71144E+06
 0.76970001E+02 -0.73160E+06
 0.77019997E+02 -0.78904E+06
 0.77070000E+02 -0.82234E+06
 0.77119995E+02 -0.74688E+06
 0.77169998E+02 -0.54938E+06
 0.77220001E+02 -0.30332E+06
 0.77269997E+02 -0.48546E+05
 0.77320000E+02  0.17805E+06
 0.77369995E+02  0.35229E+06
 0.77419998E+02  0.44158E+06
 0.77470001E+02  0.41958E+06
 0.77519997E+02  0.33877E+06
 0.77570000E+02  0.21724E+06
 0.77619995E+02  0.96239E+05
 0.77669998E+02 -0.18576E+05
 0.77720001E+02 -0.22092E+06
 0.77769997E+02 -0.49290E+06
 0.77820000E+02 -0.72740E+06
 0.77869995E+02 -0.82637E+06
 0.77919998E+02 -0.83992E+06
 0.77970001E+02 -0.91124E+06
 0.78019997E+02 -0.10720E+07
 0.78070000E+02 -0.12848E+07
 0.78119995E+02 -0.14554E+07
 0.78169998E+02 -0.14971E+07
 0.78220001E+02 -0.14867E+07
 0.78269997E+02 -0.15018E+07
 0.78320000E+02 -0.14844E+07
 0.78369995E+02 -0.14458E+07
 0.78419998E+02 -0.14681E+07
 0.78470001E+02 -0.15075E+07
 0.78519997E+02 -0.15111E+07
 0.78570000E+02 -0.15582E+07
 0.78619995E+02 -0.15605E+07
 0.78669998E+02 -0.13615E+07
 0.78720001E+02 -0.10944E+07
 0.78769997E+02 -0.84076E+06
 0.78820000E+02 -0.61273E+06
 0.78869995E+02 -0.49760E+06
 0.78919998E+02 -0.48912E+06
 0.78970001E+02 -0.59146E+06
 0.79019997E+02 -0.70587E+06
 0.79070000E+02 -0.71712E+06
 0.79119995E+02 -0.68804E+06
 0.79169998E+02 -0.63456E+06
 0.79220001E+02 -0.58220E+06
 0.79269997E+02 -0.56201E+06
 0.79320000E+02 -0.51330E+06
 0.79369995E+02 -0.41656E+06
 0.79419998E+02 -0.25166E+06
 0.79470001E+02 -0.73067E+05
 0.79519997E+02  0.17000E+04
 0.79570000E+02 -0.24645E+05
 0.79619995E+02 -0.13083E+06
 0.79669998E+02 -0.29037E+06
 0.79720001E+02 -0.40164E+06
 0.79769997E+02 -0.45883E+06
 0.79820000E+02 -0.51394E+06
 0.79869995E+02 -0.53590E+06
 0.79919998E+02 -0.56362E+06
 0.79970001E+02 -0.60672E+06
 0.80019997E+02 -0.60931E+06
 0.80070000E+02 -0.58798E+06
 0.80119995E+02 -0.55795E+06
 0.80169998E+02 -0.50911E+06
 0.80220001E+02 -0.46976E+06
 0.80269997E+02 -0.42991E+06
 0.80320000E+02 -0.38890E+06
 0.80369995E+02 -0.43350E+06
 0.80419998E+02 -0.50185E+06
 0.80470001E+02 -0.51513E+06
 0.80519997E+02 -0.48950E+06
 0.80570000E+02 -0.46860E+06
 0.80619995E+02 -0.48926E+06
 0.80669998E+02 -0.53121E+06
 0.80720001E+02 -0.59306E+06
 0.80769997E+02 -0.61907E+06
 0.80820000E+02 -0.61861E+06
 0.80869995E+02 -0.64560E+06
 0.80919998E+02 -0.66837E+06
 0.80970001E+02 -0.66550E+06
 0.81019997E+02 -0.65782E+06
 0.81070000E+02 -0.67360E+06
 0.81119995E+02 -0.69920E+06
 0.81169998E+02 -0.71770E+06
 0.81220001E+02 -0.69581E+06
 0.81269997E+02 -0.66627E+06
 0.81320000E+02 -0.69740E+06
 0.81369995E+02 -0.74934E+06
 0.81419998E+02 -0.79700E+06
 0.81470001E+02 -0.87416E+06
 0.81519997E+02 -0.93764E+06
 0.81570000E+02 -0.91597E+06
 0.81619995E+02 -0.82116E+06
 0.81669998E+02 -0.71301E+06
 0.81720001E+02 -0.63850E+06
 0.81769997E+02 -0.55992E+06
 0.81820000E+02 -0.49192E+06
 0.81869995E+02 -0.50877E+06
 0.81919998E+02 -0.60011E+06
 0.81970001E+02 -0.72004E+06
 0.82019997E+02 -0.79295E+06
 0.82070000E+02 -0.79403E+06
 0.82119995E+02 -0.75138E+06
 0.82169998E+02 -0.66491E+06
 0.82220001E+02 -0.59337E+06
 0.82269997E+02 -0.63617E+06
 0.82320000E+02 -0.77105E+06
 0.82369995E+02 -0.85543E+06
 0.82419998E+02 -0.83496E+06
 0.82470001E+02 -0.71117E+06
 0.82519997E+02 -0.47052E+06
 0.82570000E+02 -0.21094E+06
 0.82619995E+02 -0.12083E+05
 0.82669998E+02  0.10428E+06
 0.82720001E+02  0.79616E+05
 0.82769997E+02 -0.38610E+05
 0.82820000E+02 -0.13308E+06
 0.82869995E+02 -0.19964E+06
 0.82919998E+02 -0.23395E+06
 0.82970001E+02 -0.22338E+06
 0.83019997E+02 -0.22238E+06
 0.83070000E+02 -0.24045E+06
 0.83119995E+02 -0.27219E+06
 0.83169998E+02 -0.30233E+06
 0.83220001E+02 -0.33381E+06
 0.83269997E+02 -0.38933E+06
 0.83320000E+02 -0.45307E+06
 0.83369995E+02 -0.54850E+06
 0.83419998E+02 -0.67626E+06
 0.83470001E+02 -0.81884E+06
 0.83519997E+02 -0.95043E+06
 0.83570000E+02 -0.98352E+06
 0.83619995E+02 -0.90885E+06
 0.83669998E+02 -0.82872E+06
 0.83720001E+02 -0.74253E+06
 0.83769997E+02 -0.59116E+06
 0.83820000E+02 -0.47946E+06
 0.83869995E+02 -0.45916E+06
 0.83919998E+02 -0.48848E+06
 0.83970001E+02 -0.59522E+06
 0.84019997E+02 -0.78028E+06
 0.84070000E+02 -0.97937E+06
 0.84119995E+02 -0.10939E+07
 0.84169998E+02 -0.10848E+07
 0.84220001E+02 -0.98634E+06
 0.84269997E+02 -0.83063E+06
 0.84320000E+02 -0.70596E+06
 0.84369995E+02 -0.70268E+06
 0.84419998E+02 -0.77764E+06
 0.84470001E+02 -0.88875E+06
 0.84519997E+02 -0.10089E+07
 0.84570000E+02 -0.11180E+07
 0.84619995E+02 -0.12722E+07
 0.84669998E+02 -0.14529E+07
 0.84720001E+02 -0.15954E+07
 0.84769997E+02 -0.16800E+07
 0.84820000E+02 -0.17180E+07
 0.84869995E+02 -0.17204E+07
 0.84919998E+02 -0.17126E+07
 0.84970001E+02 -0.16943E+07
 0.85019997E+02 -0.16376E+07
 0.85070000E+02 -0.15600E+07
 0.85119995E+02 -0.14342E+07
 0.85169998E+02 -0.12762E+07
 0.85220001E+02 -0.11310E+07
 0.85269997E+02 -0.99685E+06
 0.85320000E+02 -0.89039E+06
 0.85369995E+02 -0.79365E+06
 0.85419998E+02 -0.70644E+06
 0.85470001E+02 -0.63538E+06
 0.85519997E+02 -0.56303E+06
 0.85570000E+02 -0.47629E+06
 0.85619995E+02 -0.39696E+06
 0.85669998E+02 -0.35384E+06
 0.85720001E+02 -0.29784E+06
 0.85769997E+02 -0.22412E+06
 0.85820000E+02 -0.14318E+06
 0.85869995E+02 -0.28783E+05
 0.85919998E+02  0.10435E+06
 0.85970001E+02  0.25193E+06
 0.86019997E+02  0.34692E+06
 0.86070000E+02  0.36090E+06
 0.86119995E+02  0.38589E+06
 0.86169998E+02  0.41038E+06
 0.86220001E+02  0.35930E+06
 0.86269997E+02  0.23055E+06
 0.86320000E+02  0.52055E+05
 0.86369995E+02 -0.13672E+06
 0.86419998E+02 -0.27240E+06
 0.86470001E+02 -0.34811E+06
 0.86519997E+02 -0.42152E+06
 0.86570000E+02 -0.49921E+06
 0.86619995E+02 -0.55519E+06
 0.86669998E+02 -0.59401E+06
 0.86720001E+02 -0.61322E+06
 0.86769997E+02 -0.59352E+06
 0.86820000E+02 -0.59157E+06
 0.86869995E+02 -0.70992E+06
 0.86919998E+02 -0.90703E+06
 0.86970001E+02 -0.10944E+07
 0.87019997E+02 -0.12468E+07
 0.87070000E+02 -0.13250E+07
 0.87119995E+02 -0.13079E+07
 0.87169998E+02 -0.12064E+07
 0.87220001E+02 -0.10777E+07
 0.87269997E+02 -0.94799E+06
 0.87320000E+02 -0.83454E+06
 0.87369995E+02 -0.76792E+06
 0.87419998E+02 -0.69468E+06
 0.87470001E+02 -0.66001E+06
 0.87519997E+02 -0.70544E+06
 0.87570000E+02 -0.74535E+06
 0.87619995E+02 -0.78337E+06
 0.87669998E+02 -0.82452E+06
 0.87720001E+02 -0.86592E+06
 0.87769997E+02 -0.89647E+06
 0.87820000E+02 -0.87966E+06
 0.87869995E+02 -0.89351E+06
 0.87919998E+02 -0.91611E+06
 0.87970001E+02 -0.88637E+06
 0.88019997E+02 -0.86207E+06
 0.88070000E+02 -0.82183E+06
 0.88119995E+02 -0.76823E+06
 0.88169998E+02 -0.73415E+06
 0.88220001E+02 -0.67426E+06
 0.88269997E+02 -0.59170E+06
 0.88320000E+02 -0.56055E+06
 0.88369995E+02 -0.61498E+06
 0.88419998E+02 -0.69743E+06
 0.88470001E+02 -0.78435E+06
 0.88519997E+02 -0.88136E+06
 0.88570000E+02 -0.99289E+06
 0.88619995E+02 -0.11702E+07
 0.88669998E+02 -0.13604E+07
 0.88720001E+02 -0.14754E+07
 0.88769997E+02 -0.15264E+07
 0.88820000E+02 -0.15559E+07
 0.88869995E+02 -0.16118E+07
 0.88919998E+02 -0.16445E+07
 0.88970001E+02 -0.15820E+07
 0.89019997E+02 -0.14548E+07
 0.89070000E+02 -0.12680E+07
 0.89119995E+02 -0.10895E+07
 0.89169998E+02 -0.10352E+07
 0.89220001E+02 -0.10872E+07
 0.89269997E+02 -0.11833E+07
 0.89320000E+02 -0.12796E+07
 0.89369995E+02 -0.13136E+07
 0.89419998E+02 -0.12527E+07
 0.89470001E+02 -0.11410E+07
 0.89519997E+02 -0.10356E+07
 0.89570000E+02 -0.96804E+06
 0.89619995E+02 -0.94628E+06
 0.89669998E+02 -0.96734E+06
 0.89720001E+02 -0.99870E+06
 0.89769997E+02 -0.97669E+06
 0.89820000E+02 -0.87753E+06
 0.89869995E+02 -0.74783E+06
 0.89919998E+02 -0.60769E+06
 0.89970001E+02 -0.42300E+06
 0.90019997E+02 -0.23186E+06
 0.90070000E+02 -0.76894E+05
 0.90119995E+02  0.19574E+05
 0.90169998E+02  0.24387E+05
 0.90220001E+02 -0.65526E+05
 0.90269997E+02 -0.24269E+06
 0.90320000E+02 -0.45477E+06
 0.90369995E+02 -0.62003E+06
 0.90419998E+02 -0.71808E+06
 0.90470001E+02 -0.83604E+06
 0.90519997E+02 -0.10252E+07
 0.90570000E+02 -0.11956E+07
 0.90619995E+02 -0.12683E+07
 0.90669998E+02 -0.12512E+07
 0.90720001E+02 -0.11518E+07
 0.90769997E+02 -0.99571E+06
 0.90820000E+02 -0.83838E+06
 0.90869995E+02 -0.72317E+06
 0.90919998E+02 -0.69413E+06
 0.90970001E+02 -0.72990E+06
 0.91019997E+02 -0.79649E+06
 0.91070000E+02 -0.90437E+06
 0.91119995E+02 -0.10147E+07
 0.91169998E+02 -0.10864E+07
 0.91220001E+02 -0.11288E+07
 0.91269997E+02 -0.11594E+07
 0.91320000E+02 -0.11853E+07
 0.91369995E+02 -0.11958E+07
 0.91419998E+02 -0.11859E+07
 0.91470001E+02 -0.11667E+07
 0.91519997E+02 -0.11462E+07
 0.91570000E+02 -0.11423E+07
 0.91619995E+02 -0.11885E+07
 0.91669998E+02 -0.12962E+07
 0.91720001E+02 -0.14372E+07
 0.91769997E+02 -0.15725E+07
 0.91820000E+02 -0.16517E+07
 0.91869995E+02 -0.16175E+07
 0.91919998E+02 -0.15031E+07
 0.91970001E+02 -0.13921E+07
 0.92019997E+02 -0.12880E+07
 0.92070000E+02 -0.11964E+07
 0.92119995E+02 -0.11480E+07
 0.92169998E+02 -0.11048E+07
 0.92220001E+02 -0.10514E+07
 0.92269997E+02 -0.10114E+07
 0.92320000E+02 -0.10211E+07
 0.92369995E+02 -0.10908E+07
 0.92419998E+02 -0.11135E+07
 0.92470001E+02 -0.10442E+07
 0.92519997E+02 -0.91303E+06
 0.92570000E+02 -0.75051E+06
 0.92619995E+02 -0.62525E+06
 0.92669998E+02 -0.57409E+06
 0.92720001E+02 -0.61449E+06
 0.92769997E+02 -0.69670E+06
 0.92820000E+02 -0.74861E+06
 0.92869995E+02 -0.76897E+06
 0.92919998E+02 -0.74550E+06
 0.92970001E+02 -0.66756E+06
 0.93019997E+02 -0.56011E+06
 0.93070000E+02 -0.47191E+06
 0.93119995E+02 -0.44889E+06
 0.93169998E+02 -0.48016E+06
 0.93220001E+02 -0.53433E+06
 0.93269997E+02 -0.57007E+06
 0.93320000E+02 -0.56437E+06
 0.93369995E+02 -0.51580E+06
 0.93419998E+02 -0.44229E+06
 0.93470001E+02 -0.39883E+06
 0.93519997E+02 -0.37789E+06
 0.93570000E+02 -0.38894E+06
 0.93619995E+02 -0.45261E+06
 0.93669998E+02 -0.50769E+06
 0.93720001E+02 -0.54247E+06
 0.93769997E+02 -0.57245E+06
 0.93820000E+02 -0.56474E+06
 0.93869995E+02 -0.51208E+06
 0.93919998E+02 -0.47947E+06
 0.93970001E+02 -0.54611E+06
 0.94019997E+02 -0.68320E+06
 0.94070000E+02 -0.82389E+06
 0.94119995E+02 -0.93085E+06
 0.94169998E+02 -0.10014E+07
 0.94220001E+02 -0.10557E+07
 0.94269997E+02 -0.10601E+07
 0.94320000E+02 -0.10343E+07
 0.94369995E+02 -0.10250E+07
 0.94419998E+02 -0.10586E+07
 0.94470001E+02 -0.11251E+07
 0.94519997E+02 -0.11771E+07
 0.94570000E+02 -0.12137E+07
 0.94619995E+02 -0.12225E+07
 0.94669998E+02 -0.11824E+07
 0.94720001E+02 -0.11054E+07
 0.94769997E+02 -0.10298E+07
 0.94820000E+02 -0.10042E+07
 0.94869995E+02 -0.10613E+07
 0.94919998E+02 -0.11365E+07
 0.94970001E+02 -0.11689E+07
 0.95019997E+02 -0.11945E+07
 0.95070000E+02 -0.12187E+07
 0.95119995E+02 -0.12412E+07
 0.95169998E+02 -0.12461E+07
 0.95220001E+02 -0.12067E+07
 0.95269997E+02 -0.11407E+07
 0.95320000E+02 -0.10709E+07
 0.95369995E+02 -0.10051E+07
 0.95419998E+02 -0.95471E+06
 0.95470001E+02 -0.94346E+06
 0.95519997E+02 -0.97066E+06
 0.95570000E+02 -0.10076E+07
 0.95619995E+02 -0.10177E+07
 0.95669998E+02 -0.99905E+06
 0.95720001E+02 -0.96986E+06
 0.95769997E+02 -0.95754E+06
 0.95820000E+02 -0.99094E+06
 0.95869995E+02 -0.10483E+07
 0.95919998E+02 -0.10943E+07
 0.95970001E+02 -0.11315E+07
 0.96019997E+02 -0.11714E+07
 0.96070000E+02 -0.12062E+07
 0.96119995E+02 -0.12188E+07
 0.96169998E+02 -0.11761E+07
 0.96220001E+02 -0.10967E+07
 0.96269997E+02 -0.10260E+07
 0.96320000E+02 -0.96705E+06
 0.96369995E+02 -0.91793E+06
 0.96419998E+02 -0.86824E+06
 0.96470001E+02 -0.81845E+06
 0.96519997E+02 -0.75401E+06
 0.96570000E+02 -0.66024E+06
 0.96619995E+02 -0.56016E+06
 0.96669998E+02 -0.48783E+06
 0.96720001E+02 -0.47223E+06
 0.96769997E+02 -0.50686E+06
 0.96820000E+02 -0.57541E+06
 0.96869995E+02 -0.66388E+06
 0.96919998E+02 -0.75233E+06
 0.96970001E+02 -0.83245E+06
 0.97019997E+02 -0.91406E+06
 0.97070000E+02 -0.98624E+06
 0.97119995E+02 -0.10375E+07
 0.97169998E+02 -0.10583E+07
 0.97220001E+02 -0.10305E+07
 0.97269997E+02 -0.97550E+06
 0.97320000E+02 -0.88553E+06
 0.97369995E+02 -0.76661E+06
 0.97419998E+02 -0.65411E+06
 0.97470001E+02 -0.55028E+06
 0.97519997E+02 -0.46833E+06
 0.97570000E+02 -0.40949E+06
 0.97619995E+02 -0.38901E+06
 0.97669998E+02 -0.40742E+06
 0.97720001E+02 -0.44028E+06
 0.97769997E+02 -0.50634E+06
 0.97820000E+02 -0.59181E+06
 0.97869995E+02 -0.65758E+06
 0.97919998E+02 -0.67976E+06
 0.97970001E+02 -0.66101E+06
 0.98019997E+02 -0.63809E+06
 0.98070000E+02 -0.62029E+06
 0.98119995E+02 -0.62335E+06
 0.98169998E+02 -0.67623E+06
 0.98220001E+02 -0.76114E+06
 0.98269997E+02 -0.82046E+06
 0.98320000E+02 -0.82125E+06
 0.98369995E+02 -0.80792E+06
 0.98419998E+02 -0.82863E+06
 0.98470001E+02 -0.86842E+06
 0.98519997E+02 -0.91679E+06
 0.98570000E+02 -0.97469E+06
 0.98619995E+02 -0.10271E+07
 0.98669998E+02 -0.10953E+07
 0.98720001E+02 -0.12044E+07
 0.98769997E+02 -0.13236E+07
 0.98820000E+02 -0.13953E+07
 0.98869995E+02 -0.13983E+07
 0.98919998E+02 -0.13535E+07
 0.98970001E+02 -0.12927E+07
 0.99019997E+02 -0.12389E+07
 0.99070000E+02 -0.11962E+07
 0.99119995E+02 -0.11788E+07
 0.99169998E+02 -0.11899E+07
 0.99220001E+02 -0.12041E+07
 0.99269997E+02 -0.12209E+07
 0.99320000E+02 -0.12665E+07
 0.99369995E+02 -0.13388E+07
 0.99419998E+02 -0.13954E+07
 0.99470001E+02 -0.14160E+07
 0.99519997E+02 -0.14155E+07
 0.99570000E+02 -0.13794E+07
 0.99619995E+02 -0.12863E+07
 0.99669998E+02 -0.11728E+07
 0.99720001E+02 -0.10842E+07
 0.99769997E+02 -0.10143E+07
 0.99820000E+02 -0.96233E+06
 0.99869995E+02 -0.97357E+06
 0.99919998E+02 -0.10560E+07
 0.99970001E+02 -0.11657E+07
 0.10002000E+03 -0.12821E+07
 0.10007000E+03 -0.13690E+07
 0.10012000E+03 -0.13720E+07
 0.10017000E+03 -0.13144E+07
 0.10022000E+03 -0.12496E+07
 0.10027000E+03 -0.12082E+07
 0.10032000E+03 -0.11879E+07
 0.10037000E+03 -0.11691E+07
 0.10042000E+03 -0.11528E+07
 0.10047000E+03 -0.11274E+07
 0.10052000E+03 -0.10928E+07
 0.10057000E+03 -0.10508E+07
 0.10062000E+03 -0.10195E+07
 0.10067000E+03 -0.10373E+07
 0.10072000E+03 -0.11182E+07
 0.10077000E+03 -0.12461E+07
 0.10082000E+03 -0.13803E+07
 0.10087000E+03 -0.15129E+07
 0.10092000E+03 -0.16322E+07
 0.10097000E+03 -0.17267E+07
 0.10102000E+03 -0.18050E+07
 0.10107000E+03 -0.18439E+07
 0.10112000E+03 -0.18254E+07
 0.10117000E+03 -0.17849E+07
 0.10122000E+03 -0.17536E+07
 0.10127000E+03 -0.17256E+07
 0.10132000E+03 -0.16916E+07
 0.10137000E+03 -0.16392E+07
 0.10142000E+03 -0.15492E+07
 0.10147000E+03 -0.14075E+07
 0.10152000E+03 -0.12388E+07
 0.10157000E+03 -0.10773E+07
 0.10162000E+03 -0.96037E+06
 0.10167000E+03 -0.91295E+06
 0.10172000E+03 -0.91086E+06
 0.10177000E+03 -0.94593E+06
 0.10182000E+03 -0.10080E+07
 0.10187000E+03 -0.10746E+07
 0.10192000E+03 -0.11324E+07
 0.10197000E+03 -0.11801E+07
 0.10202000E+03 -0.12329E+07
 0.10207000E+03 -0.12563E+07
 0.10212000E+03 -0.12327E+07
 0.10217000E+03 -0.11933E+07
 0.10222000E+03 -0.11434E+07
 0.10227000E+03 -0.10874E+07
 0.10232000E+03 -0.10252E+07
 0.10237000E+03 -0.98068E+06
 0.10242000E+03 -0.97282E+06
 0.10247000E+03 -0.97765E+06
 0.10252000E+03 -0.99453E+06
 0.10257000E+03 -0.10162E+07
 0.10262000E+03 -0.10255E+07
 0.10267000E+03 -0.10051E+07
 0.10272000E+03 -0.94486E+06
 0.10277000E+03 -0.88107E+06
 0.10282000E+03 -0.85498E+06
 0.10287000E+03 -0.87490E+06
 0.10292000E+03 -0.92804E+06
 0.10297000E+03 -0.97468E+06
 0.10302000E+03 -0.96027E+06
 0.10307000E+03 -0.89052E+06
 0.10312000E+03 -0.80926E+06
 0.10317000E+03 -0.72604E+06
 0.10322000E+03 -0.64094E+06
 0.10327000E+03 -0.55072E+06
 0.10332000E+03 -0.45662E+06
 0.10337000E+03 -0.39326E+06
 0.10342000E+03 -0.37909E+06
 0.10347000E+03 -0.38055E+06
 0.10352000E+03 -0.37164E+06
 0.10357000E+03 -0.34647E+06
 0.10362000E+03 -0.32090E+06
 0.10367000E+03 -0.29976E+06
 0.10372000E+03 -0.27494E+06
 0.10377000E+03 -0.27507E+06
 0.10382000E+03 -0.29480E+06
 0.10387000E+03 -0.32528E+06
 0.10392000E+03 -0.36817E+06
 0.10397000E+03 -0.40941E+06
 0.10402000E+03 -0.44018E+06
 0.10407000E+03 -0.45583E+06
 0.10412000E+03 -0.46884E+06
 0.10417000E+03 -0.48330E+06
 0.10422000E+03 -0.50410E+06
 0.10427000E+03 -0.53621E+06
 0.10432000E+03 -0.59063E+06
 0.10437000E+03 -0.66497E+06
 0.10442000E+03 -0.72689E+06
 0.10447000E+03 -0.77918E+06
 0.10452000E+03 -0.84279E+06
 0.10457000E+03 -0.89644E+06
 0.10462000E+03 -0.93601E+06
 0.10467000E+03 -0.99260E+06
 0.10472000E+03 -0.10575E+07
 0.10477000E+03 -0.11306E+07
 0.10482000E+03 -0.12167E+07
 0.10487000E+03 -0.12954E+07
 0.10492000E+03 -0.13430E+07
 0.10497000E+03 -0.13181E+07
 0.10502000E+03 -0.12515E+07
 0.10507000E+03 -0.11894E+07
 0.10512000E+03 -0.11327E+07
 0.10517000E+03 -0.10977E+07
 0.10522000E+03 -0.10817E+07
 0.10527000E+03 -0.11135E+07
 0.10532000E+03 -0.12037E+07
 0.10537000E+03 -0.13054E+07
 0.10542000E+03 -0.13867E+07
 0.10547000E+03 -0.14216E+07
 0.10552000E+03 -0.14235E+07
 0.10557000E+03 -0.14147E+07
 0.10562000E+03 -0.13916E+07
 0.10567000E+03 -0.13583E+07
 0.10572000E+03 -0.13114E+07
 0.10577000E+03 -0.12544E+07
 0.10582000E+03 -0.11984E+07
 0.10587000E+03 -0.11529E+07
 0.10592000E+03 -0.11355E+07
 0.10597000E+03 -0.11316E+07
 0.10602000E+03 -0.11336E+07
 0.10607000E+03 -0.11607E+07
 0.10612000E+03 -0.12065E+07
 0.10617000E+03 -0.12405E+07
 0.10622000E+03 -0.12453E+07
 0.10627000E+03 -0.12558E+07
 0.10632000E+03 -0.12824E+07
 0.10637000E+03 -0.12984E+07
 0.10642000E+03 -0.13010E+07
 0.10647000E+03 -0.12856E+07
 0.10652000E+03 -0.12499E+07
 0.10657000E+03 -0.12071E+07
 0.10662000E+03 -0.11634E+07
 0.10667000E+03 -0.10994E+07
 0.10672000E+03 -0.10306E+07
 0.10677000E+03 -0.97958E+06
 0.10682000E+03 -0.93111E+06
 0.10687000E+03 -0.88870E+06
 0.10692000E+03 -0.85415E+06
 0.10697000E+03 -0.82646E+06
 0.10702000E+03 -0.80349E+06
 0.10707000E+03 -0.77992E+06
 0.10712000E+03 -0.76237E+06
 0.10717000E+03 -0.74971E+06
 0.10722000E+03 -0.74411E+06
 0.10727000E+03 -0.75204E+06
 0.10732000E+03 -0.76484E+06
 0.10737000E+03 -0.79220E+06
 0.10742000E+03 -0.83085E+06
 0.10747000E+03 -0.84910E+06
 0.10752000E+03 -0.84444E+06
 0.10757000E+03 -0.82542E+06
 0.10762000E+03 -0.81700E+06
 0.10767000E+03 -0.83480E+06
 0.10772000E+03 -0.87582E+06
 0.10777000E+03 -0.94046E+06
 0.10782000E+03 -0.10106E+07
 0.10787000E+03 -0.10627E+07
 0.10792000E+03 -0.10782E+07
 0.10797000E+03 -0.10594E+07
 0.10802000E+03 -0.10283E+07
 0.10807000E+03 -0.98978E+06
 0.10812000E+03 -0.94861E+06
 0.10817000E+03 -0.93886E+06
 0.10822000E+03 -0.96460E+06
 0.10827000E+03 -0.99882E+06
 0.10832000E+03 -0.10151E+07
 0.10837000E+03 -0.10088E+07
 0.10842000E+03 -0.10052E+07
 0.10847000E+03 -0.10065E+07
 0.10852000E+03 -0.10166E+07
 0.10857000E+03 -0.10471E+07
 0.10862000E+03 -0.10966E+07
 0.10867000E+03 -0.11738E+07
 0.10872000E+03 -0.12804E+07
 0.10877000E+03 -0.13838E+07
 0.10882000E+03 -0.14513E+07
 0.10887000E+03 -0.14728E+07
 0.10892000E+03 -0.14465E+07
 0.10897000E+03 -0.14041E+07
 0.10902000E+03 -0.13845E+07
 0.10907000E+03 -0.13986E+07
 0.10912000E+03 -0.14365E+07
 0.10917000E+03 -0.14635E+07
 0.10922000E+03 -0.14702E+07
 0.10927000E+03 -0.14723E+07
 0.10932000E+03 -0.14369E+07
 0.10937000E+03 -0.13601E+07
 0.10942000E+03 -0.12975E+07
 0.10947000E+03 -0.12849E+07
 0.10952000E+03 -0.13415E+07
 0.10957000E+03 -0.14421E+07
 0.10962000E+03 -0.15401E+07
 0.10967000E+03 -0.16040E+07
 0.10972000E+03 -0.16170E+07
 0.10977000E+03 -0.15770E+07
 0.10982000E+03 -0.14859E+07
 0.10987000E+03 -0.13857E+07
 0.10992000E+03 -0.13305E+07
 0.10997000E+03 -0.13223E+07
 0.11002000E+03 -0.13213E+07
 0.11007000E+03 -0.13067E+07
 0.11012000E+03 -0.12848E+07
 0.11017000E+03 -0.12463E+07
 0.11022000E+03 -0.11849E+07
 0.11027000E+03 -0.11148E+07
 0.11032000E+03 -0.10492E+07
 0.11037000E+03 -0.99754E+06
 0.11042000E+03 -0.97629E+06
 0.11047000E+03 -0.98893E+06
 0.11052000E+03 -0.10188E+07
 0.11057000E+03 -0.10393E+07
 0.11062000E+03 -0.10334E+07
 0.11067000E+03 -0.10053E+07
 0.11072000E+03 -0.95716E+06
 0.11077000E+03 -0.90058E+06
 0.11082000E+03 -0.85652E+06
 0.11087000E+03 -0.83348E+06
 0.11092000E+03 -0.83219E+06
 0.11097000E+03 -0.84528E+06
 0.11102000E+03 -0.86150E+06
 0.11107000E+03 -0.88838E+06
 0.11112000E+03 -0.94486E+06
 0.11117000E+03 -0.10171E+07
 0.11122000E+03 -0.10748E+07
 0.11127000E+03 -0.11042E+07
 0.11132000E+03 -0.10829E+07
 0.11137000E+03 -0.10033E+07
 0.11142000E+03 -0.89240E+06
 0.11147000E+03 -0.78313E+06
 0.11152000E+03 -0.72468E+06
 0.11157000E+03 -0.72183E+06
 0.11162000E+03 -0.73491E+06
 0.11167000E+03 -0.75965E+06
 0.11172000E+03 -0.80442E+06
 0.11177000E+03 -0.85703E+06
 0.11182000E+03 -0.88374E+06
 0.11187000E+03 -0.88055E+06
 0.11192000E+03 -0.87075E+06
 0.11197000E+03 -0.86143E+06
 0.11202000E+03 -0.86768E+06
 0.11207000E+03 -0.90026E+06
 0.11212000E+03 -0.93153E+06
 0.11217000E+03 -0.92914E+06
 0.11222000E+03 -0.88785E+06
 0.11227000E+03 -0.83537E+06
 0.11232000E+03 -0.82111E+06
 0.11237000E+03 -0.85637E+06
 0.11242000E+03 -0.91981E+06
 0.11247000E+03 -0.98661E+06
 0.11252000E+03 -0.10335E+07
 0.11257000E+03 -0.10616E+07
 0.11262000E+03 -0.10698E+07
 0.11267000E+03 -0.10498E+07
 0.11272000E+03 -0.10081E+07
 0.11277000E+03 -0.95834E+06
 0.11282000E+03 -0.91419E+06
 0.11287000E+03 -0.86934E+06
 0.11292000E+03 -0.83984E+06
 0.11297000E+03 -0.85455E+06
 0.11302000E+03 -0.88739E+06
 0.11307000E+03 -0.91757E+06
 0.11312000E+03 -0.94124E+06
 0.11317000E+03 -0.95253E+06
 0.11322000E+03 -0.95856E+06
 0.11327000E+03 -0.95428E+06
 0.11332000E+03 -0.93511E+06
 0.11337000E+03 -0.91899E+06
 0.11342000E+03 -0.91447E+06
 0.11347000E+03 -0.92185E+06
 0.11352000E+03 -0.96124E+06
 0.11357000E+03 -0.10262E+07
 0.11362000E+03 -0.10852E+07
 0.11367000E+03 -0.11258E+07
 0.11372000E+03 -0.11497E+07
 0.11377000E+03 -0.11619E+07
 0.11382000E+03 -0.11704E+07
 0.11387000E+03 -0.11915E+07
 0.11392000E+03 -0.12268E+07
 0.11397000E+03 -0.12638E+07
 0.11402000E+03 -0.12869E+07
 0.11407000E+03 -0.12891E+07
 0.11412000E+03 -0.12760E+07
 0.11417000E+03 -0.12488E+07
 0.11422000E+03 -0.12149E+07
 0.11427000E+03 -0.11784E+07
 0.11432000E+03 -0.11433E+07
 0.11437000E+03 -0.11313E+07
 0.11442000E+03 -0.11323E+07
 0.11447000E+03 -0.11138E+07
 0.11452000E+03 -0.10828E+07
 0.11457000E+03 -0.10485E+07
 0.11462000E+03 -0.10144E+07
 0.11467000E+03 -0.10015E+07
 0.11472000E+03 -0.10233E+07
 0.11477000E+03 -0.10761E+07
 0.11482000E+03 -0.11350E+07
 0.11487000E+03 -0.11855E+07
 0.11492000E+03 -0.12282E+07
 0.11497000E+03 -0.12716E+07
 0.11502000E+03 -0.13234E+07
 0.11507000E+03 -0.13739E+07
 0.11512000E+03 -0.14217E+07
 0.11517000E+03 -0.14570E+07
 0.11522000E+03 -0.14675E+07
 0.11527000E+03 -0.14465E+07
 0.11532000E+03 -0.13932E+07
 0.11537000E+03 -0.13243E+07
 0.11542000E+03 -0.12552E+07
 0.11547000E+03 -0.11921E+07
 0.11552000E+03 -0.11290E+07
 0.11557000E+03 -0.10591E+07
 0.11562000E+03 -0.98957E+06
 0.11567000E+03 -0.92917E+06
 0.11572000E+03 -0.88490E+06
 0.11577000E+03 -0.85314E+06
 0.11582000E+03 -0.82678E+06
 0.11587000E+03 -0.81075E+06
 0.11592000E+03 -0.78565E+06
 0.11597000E+03 -0.73829E+06
 0.11602000E+03 -0.69681E+06
 0.11607000E+03 -0.67868E+06
 0.11612000E+03 -0.67974E+06
 0.11617000E+03 -0.68952E+06
 0.11622000E+03 -0.70951E+06
 0.11627000E+03 -0.73440E+06
 0.11632000E+03 -0.73611E+06
 0.11637000E+03 -0.71691E+06
 0.11642000E+03 -0.70148E+06
 0.11647000E+03 -0.69976E+06
 0.11652000E+03 -0.70149E+06
 0.11657000E+03 -0.70527E+06
 0.11662000E+03 -0.72784E+06
 0.11667000E+03 -0.75842E+06
 0.11672000E+03 -0.78398E+06
 0.11677000E+03 -0.81004E+06
 0.11682000E+03 -0.83790E+06
 0.11687000E+03 -0.85738E+06
 0.11692000E+03 -0.85944E+06
 0.11697000E+03 -0.85480E+06
 0.11702000E+03 -0.85897E+06
 0.11707000E+03 -0.87343E+06
 0.11712000E+03 -0.89178E+06
 0.11717000E+03 -0.91842E+06
 0.11722000E+03 -0.96009E+06
 0.11727000E+03 -0.10055E+07
 0.11732000E+03 -0.10346E+07
 0.11737000E+03 -0.10378E+07
 0.11742000E+03 -0.10176E+07
 0.11747000E+03 -0.98173E+06
 0.11752000E+03 -0.94477E+06
 0.11757000E+03 -0.93095E+06
 0.11762000E+03 -0.95372E+06
 0.11767000E+03 -0.99521E+06
 0.11772000E+03 -0.10306E+07
 0.11777000E+03 -0.10512E+07
 0.11782000E+03 -0.10494E+07
 0.11787000E+03 -0.10236E+07
 0.11792000E+03 -0.97943E+06
 0.11797000E+03 -0.91624E+06
 0.11802000E+03 -0.84567E+06
 0.11807000E+03 -0.79035E+06
 0.11812000E+03 -0.77517E+06
 0.11817000E+03 -0.81440E+06
 0.11822000E+03 -0.89135E+06
 0.11827000E+03 -0.96703E+06
 0.11832000E+03 -0.10167E+07
 0.11837000E+03 -0.10353E+07
 0.11842000E+03 -0.10230E+07
 0.11847000E+03 -0.99599E+06
 0.11852000E+03 -0.97293E+06
 0.11857000E+03 -0.96459E+06
 0.11862000E+03 -0.98181E+06
 0.11867000E+03 -0.10341E+07
 0.11872000E+03 -0.11112E+07
 0.11877000E+03 -0.11805E+07
 0.11882000E+03 -0.12277E+07
 0.11887000E+03 -0.12544E+07
 0.11892000E+03 -0.12607E+07
 0.11897000E+03 -0.12634E+07
 0.11902000E+03 -0.12766E+07
 0.11907000E+03 -0.13056E+07
 0.11912000E+03 -0.13507E+07
 0.11917000E+03 -0.13997E+07
 0.11922000E+03 -0.14443E+07
 0.11927000E+03 -0.14810E+07
 0.11932000E+03 -0.15015E+07
 0.11937000E+03 -0.15042E+07
 0.11942000E+03 -0.14978E+07
 0.11947000E+03 -0.14880E+07
 0.11952000E+03 -0.14776E+07
 0.11957000E+03 -0.14671E+07
 0.11962000E+03 -0.14586E+07
 0.11967000E+03 -0.14549E+07
 0.11972000E+03 -0.14408E+07
 0.11977000E+03 -0.14116E+07
 0.11982000E+03 -0.13851E+07
 0.11987000E+03 -0.13608E+07
 0.11992000E+03 -0.13380E+07
 0.11997000E+03 -0.13206E+07
 0.12002000E+03 -0.13093E+07
 0.12007000E+03 -0.13208E+07
 0.12012000E+03 -0.13614E+07
 0.12017000E+03 -0.14153E+07
 0.12022000E+03 -0.14586E+07
 0.12027000E+03 -0.14805E+07
 0.12032000E+03 -0.14877E+07
 0.12037000E+03 -0.14821E+07
 0.12042000E+03 -0.14571E+07
 0.12047000E+03 -0.14105E+07
 0.12052000E+03 -0.13465E+07
 0.12057000E+03 -0.12674E+07
 0.12062000E+03 -0.11813E+07
 0.12067000E+03 -0.10984E+07
 0.12072000E+03 -0.10337E+07
 0.12077000E+03 -0.98638E+06
 0.12082000E+03 -0.94489E+06
 0.12087000E+03 -0.91543E+06
 0.12092000E+03 -0.89503E+06
 0.12097000E+03 -0.88053E+06
 0.12102000E+03 -0.87538E+06
 0.12107000E+03 -0.88405E+06
 0.12112000E+03 -0.90396E+06
 0.12117000E+03 -0.93177E+06
 0.12122000E+03 -0.96976E+06
 0.12127000E+03 -0.10029E+07
 0.12132000E+03 -0.10270E+07
 0.12137000E+03 -0.10507E+07
 0.12142000E+03 -0.10763E+07
 0.12147000E+03 -0.10950E+07
 0.12152000E+03 -0.10964E+07
 0.12157000E+03 -0.10910E+07
 0.12162000E+03 -0.10744E+07
 0.12167000E+03 -0.10310E+07
 0.12172000E+03 -0.98353E+06
 0.12177000E+03 -0.94485E+06
 0.12182000E+03 -0.90623E+06
 0.12187000E+03 -0.87833E+06
 0.12192000E+03 -0.86930E+06
 0.12197000E+03 -0.87496E+06
 0.12202000E+03 -0.88053E+06
 0.12207000E+03 -0.87271E+06
 0.12212000E+03 -0.85901E+06
 0.12217000E+03 -0.85309E+06
 0.12222000E+03 -0.85994E+06
 0.12227000E+03 -0.87407E+06
 0.12232000E+03 -0.88783E+06
 0.12237000E+03 -0.90679E+06
 0.12242000E+03 -0.93077E+06
 0.12247000E+03 -0.95184E+06
 0.12252000E+03 -0.97171E+06
 0.12257000E+03 -0.99225E+06
 0.12262000E+03 -0.10136E+07
 0.12267000E+03 -0.10370E+07
 0.12272000E+03 -0.10627E+07
 0.12277000E+03 -0.10764E+07
 0.12282000E+03 -0.10721E+07
 0.12287000E+03 -0.10463E+07
 0.12292000E+03 -0.98699E+06
 0.12297000E+03 -0.89811E+06
 0.12302000E+03 -0.79674E+06
 0.12307000E+03 -0.71235E+06
 0.12312000E+03 -0.65480E+06
 0.12317000E+03 -0.61613E+06
 0.12322000E+03 -0.58906E+06
 0.12327000E+03 -0.56283E+06
 0.12332000E+03 -0.53024E+06
 0.12337000E+03 -0.49218E+06
 0.12342000E+03 -0.46087E+06
 0.12347000E+03 -0.44245E+06
 0.12352000E+03 -0.44052E+06
 0.12357000E+03 -0.45710E+06
 0.12362000E+03 -0.48150E+06
 0.12367000E+03 -0.50600E+06
 0.12372000E+03 -0.52002E+06
 0.12377000E+03 -0.51540E+06
 0.12382000E+03 -0.49056E+06
 0.12387000E+03 -0.44416E+06
 0.12392000E+03 -0.40176E+06
 0.12397000E+03 -0.39245E+06
 0.12402000E+03 -0.41129E+06
 0.12407000E+03 -0.45255E+06
 0.12412000E+03 -0.52206E+06
 0.12417000E+03 -0.60410E+06
 0.12422000E+03 -0.68218E+06
 0.12427000E+03 -0.75024E+06
 0.12432000E+03 -0.80103E+06
 0.12437000E+03 -0.83754E+06
 0.12442000E+03 -0.86642E+06
 0.12447000E+03 -0.89669E+06
 0.12452000E+03 -0.93152E+06
 0.12457000E+03 -0.98112E+06
 0.12462000E+03 -0.10501E+07
 0.12467000E+03 -0.11184E+07
 0.12472000E+03 -0.11776E+07
 0.12477000E+03 -0.12292E+07
 0.12482000E+03 -0.12747E+07
 0.12487000E+03 -0.13129E+07
 0.12492000E+03 -0.13518E+07
 0.12497000E+03 -0.13932E+07
 0.12502000E+03 -0.14099E+07
 0.12507000E+03 -0.14004E+07
 0.12512000E+03 -0.13870E+07
 0.12517001E+03 -0.13797E+07
 0.12521999E+03 -0.13784E+07
 0.12527000E+03 -0.13771E+07
 0.12532000E+03 -0.13765E+07
 0.12537000E+03 -0.13741E+07
 0.12542001E+03 -0.13616E+07
 0.12546999E+03 -0.13441E+07
 0.12552000E+03 -0.13419E+07
 0.12557000E+03 -0.13589E+07
 0.12562000E+03 -0.13768E+07
 0.12567001E+03 -0.13926E+07
 0.12571999E+03 -0.14055E+07
 0.12577000E+03 -0.14097E+07
 0.12582000E+03 -0.14159E+07
 0.12587000E+03 -0.14379E+07
 0.12592001E+03 -0.14611E+07
 0.12596999E+03 -0.14653E+07
 0.12602000E+03 -0.14544E+07
 0.12607000E+03 -0.14297E+07
 0.12612000E+03 -0.13881E+07
 0.12617001E+03 -0.13346E+07
 0.12621999E+03 -0.12839E+07
 0.12627000E+03 -0.12466E+07
 0.12632000E+03 -0.12291E+07
 0.12637000E+03 -0.12277E+07
 0.12642001E+03 -0.12230E+07
 0.12646999E+03 -0.12095E+07
 0.12652000E+03 -0.11925E+07
 0.12657000E+03 -0.11716E+07
 0.12662000E+03 -0.11493E+07
 0.12667001E+03 -0.11368E+07
 0.12671999E+03 -0.11328E+07
 0.12677000E+03 -0.11261E+07
 0.12682000E+03 -0.11169E+07
 0.12687000E+03 -0.11059E+07
 0.12692001E+03 -0.10875E+07
 0.12696999E+03 -0.10494E+07
 0.12702000E+03 -0.98839E+06
 0.12707000E+03 -0.92254E+06
 0.12712000E+03 -0.86909E+06
 0.12717001E+03 -0.82631E+06
 0.12721999E+03 -0.78828E+06
 0.12727000E+03 -0.76799E+06
 0.12732000E+03 -0.77195E+06
 0.12737000E+03 -0.78964E+06
 0.12742001E+03 -0.81160E+06
 0.12746999E+03 -0.83222E+06
 0.12752000E+03 -0.86025E+06
 0.12757000E+03 -0.90170E+06
 0.12762000E+03 -0.94600E+06
 0.12767001E+03 -0.98284E+06
 0.12771999E+03 -0.10124E+07
 0.12777000E+03 -0.10344E+07
 0.12782000E+03 -0.10523E+07
 0.12787000E+03 -0.10679E+07
 0.12792001E+03 -0.10749E+07
 0.12796999E+03 -0.10737E+07
 0.12802000E+03 -0.10585E+07
 0.12807001E+03 -0.10296E+07
 0.12812001E+03 -0.99374E+06
 0.12817001E+03 -0.96468E+06
 0.12822000E+03 -0.95457E+06
 0.12827000E+03 -0.96060E+06
 0.12832001E+03 -0.99046E+06
 0.12837001E+03 -0.10407E+07
 0.12842001E+03 -0.10869E+07
 0.12847000E+03 -0.11125E+07
 0.12852000E+03 -0.11193E+07
 0.12857001E+03 -0.11062E+07
 0.12862001E+03 -0.10665E+07
 0.12867001E+03 -0.10132E+07
 0.12872000E+03 -0.96295E+06
 0.12877000E+03 -0.91917E+06
 0.12882001E+03 -0.87582E+06
 0.12887001E+03 -0.83185E+06
 0.12892001E+03 -0.78982E+06
 0.12897000E+03 -0.74963E+06
 0.12902000E+03 -0.70941E+06
 0.12907001E+03 -0.66803E+06
 0.12912001E+03 -0.63458E+06
 0.12917001E+03 -0.61067E+06
 0.12922000E+03 -0.59772E+06
 0.12927000E+03 -0.60340E+06
 0.12932001E+03 -0.62447E+06
 0.12937001E+03 -0.65000E+06
 0.12942001E+03 -0.67338E+06
 0.12947000E+03 -0.69320E+06
 0.12952000E+03 -0.70850E+06
 0.12957001E+03 -0.72211E+06
 0.12962001E+03 -0.73116E+06
 0.12967001E+03 -0.73516E+06
 0.12972000E+03 -0.74189E+06
 0.12977000E+03 -0.75587E+06
 0.12982001E+03 -0.77430E+06
 0.12987001E+03 -0.79187E+06
 0.12992001E+03 -0.80761E+06
 0.12997000E+03 -0.81657E+06
 0.13002000E+03 -0.81028E+06
 0.13007001E+03 -0.79237E+06
 0.13012001E+03 -0.77565E+06
 0.13017001E+03 -0.77252E+06
 0.13022000E+03 -0.78896E+06
 0.13027000E+03 -0.81666E+06
 0.13032001E+03 -0.84489E+06
 0.13037001E+03 -0.86925E+06
 0.13042001E+03 -0.88380E+06
 0.13047000E+03 -0.88574E+06
 0.13052000E+03 -0.88533E+06
 0.13057001E+03 -0.88969E+06
 0.13062001E+03 -0.89809E+06
 0.13067001E+03 -0.90803E+06
 0.13072000E+03 -0.91591E+06
 0.13077000E+03 -0.92141E+06
 0.13082001E+03 -0.91746E+06
 0.13087001E+03 -0.90221E+06
 0.13092001E+03 -0.88872E+06
 0.13097000E+03 -0.88473E+06
 0.13102000E+03 -0.89318E+06
 0.13107001E+03 -0.91172E+06
 0.13112001E+03 -0.93166E+06
 0.13117001E+03 -0.95762E+06
 0.13122000E+03 -0.99032E+06
 0.13127000E+03 -0.10220E+07
 0.13132001E+03 -0.10594E+07
 0.13137001E+03 -0.11123E+07
 0.13142001E+03 -0.11747E+07
 0.13147000E+03 -0.12274E+07
 0.13152000E+03 -0.12569E+07
 0.13157001E+03 -0.12577E+07
 0.13162001E+03 -0.12350E+07
 0.13167001E+03 -0.12027E+07
 0.13172000E+03 -0.11669E+07
 0.13177000E+03 -0.11269E+07
 0.13182001E+03 -0.10861E+07
 0.13187001E+03 -0.10519E+07
 0.13192001E+03 -0.10238E+07
 0.13197000E+03 -0.10059E+07
 0.13202000E+03 -0.10059E+07
 0.13207001E+03 -0.10206E+07
 0.13212001E+03 -0.10383E+07
 0.13217001E+03 -0.10482E+07
 0.13222000E+03 -0.10502E+07
 0.13227000E+03 -0.10456E+07
 0.13232001E+03 -0.10377E+07
 0.13237001E+03 -0.10292E+07
 0.13242001E+03 -0.10168E+07
 0.13247000E+03 -0.10030E+07
 0.13252000E+03 -0.98903E+06
 0.13257001E+03 -0.97196E+06
 0.13262001E+03 -0.94942E+06
 0.13267001E+03 -0.92576E+06
 0.13272000E+03 -0.91127E+06
 0.13277000E+03 -0.90967E+06
 0.13282001E+03 -0.92314E+06
 0.13287001E+03 -0.95753E+06
 0.13292001E+03 -0.10028E+07
 0.13297000E+03 -0.10362E+07
 0.13302000E+03 -0.10466E+07
 0.13307001E+03 -0.10349E+07
 0.13312001E+03 -0.10090E+07
 0.13317001E+03 -0.97762E+06
 0.13322000E+03 -0.95376E+06
 0.13327000E+03 -0.94766E+06
 0.13332001E+03 -0.95940E+06
 0.13337001E+03 -0.98452E+06
 0.13342001E+03 -0.10110E+07
 0.13347000E+03 -0.10327E+07
 0.13352000E+03 -0.10471E+07
 0.13357001E+03 -0.10516E+07
 0.13362001E+03 -0.10455E+07
 0.13367001E+03 -0.10293E+07
 0.13372000E+03 -0.10124E+07
 0.13377000E+03 -0.10069E+07
 0.13382001E+03 -0.10144E+07
 0.13387001E+03 -0.10227E+07
 0.13392001E+03 -0.10249E+07
 0.13397000E+03 -0.10119E+07
 0.13402000E+03 -0.97431E+06
 0.13407001E+03 -0.93038E+06
 0.13412001E+03 -0.89569E+06
 0.13417001E+03 -0.86842E+06
 0.13422000E+03 -0.85380E+06
 0.13427000E+03 -0.85306E+06
 0.13432001E+03 -0.85813E+06
 0.13437001E+03 -0.86220E+06
 0.13442001E+03 -0.85641E+06
 0.13447000E+03 -0.83932E+06
 0.13452000E+03 -0.81601E+06
 0.13457001E+03 -0.78868E+06
 0.13462001E+03 -0.75738E+06
 0.13467001E+03 -0.72998E+06
 0.13472000E+03 -0.71848E+06
 0.13477000E+03 -0.71274E+06
 0.13482001E+03 -0.70752E+06
 0.13487001E+03 -0.70732E+06
 0.13492001E+03 -0.70293E+06
 0.13497000E+03 -0.69337E+06
 0.13502000E+03 -0.68108E+06
 0.13507001E+03 -0.66496E+06
 0.13512001E+03 -0.64768E+06
 0.13517001E+03 -0.63196E+06
 0.13522000E+03 -0.62237E+06
 0.13527000E+03 -0.62248E+06
 0.13532001E+03 -0.63113E+06
 0.13537001E+03 -0.64799E+06
 0.13542001E+03 -0.67108E+06
 0.13547000E+03 -0.69746E+06
 0.13552000E+03 -0.73613E+06
 0.13557001E+03 -0.79021E+06
 0.13562001E+03 -0.84596E+06
 0.13567001E+03 -0.89477E+06
 0.13572000E+03 -0.93396E+06
 0.13577000E+03 -0.95732E+06
 0.13582001E+03 -0.96345E+06
 0.13587001E+03 -0.96125E+06
 0.13592001E+03 -0.95634E+06
 0.13597000E+03 -0.95397E+06
 0.13602000E+03 -0.96760E+06
 0.13607001E+03 -0.10022E+07
 0.13612001E+03 -0.10500E+07
 0.13617001E+03 -0.10980E+07
 0.13622000E+03 -0.11384E+07
 0.13627000E+03 -0.11702E+07
 0.13632001E+03 -0.11946E+07
 0.13637001E+03 -0.12141E+07
 0.13642001E+03 -0.12321E+07
 0.13647000E+03 -0.12523E+07
 0.13652000E+03 -0.12679E+07
 0.13657001E+03 -0.12716E+07
 0.13662001E+03 -0.12719E+07
 0.13667001E+03 -0.12734E+07
 0.13672000E+03 -0.12700E+07
 0.13677000E+03 -0.12628E+07
 0.13682001E+03 -0.12560E+07
 0.13687001E+03 -0.12444E+07
 0.13692001E+03 -0.12238E+07
 0.13697000E+03 -0.11924E+07
 0.13702000E+03 -0.11593E+07
 0.13707001E+03 -0.11347E+07
 0.13712001E+03 -0.11093E+07
 0.13717001E+03 -0.10792E+07
 0.13722000E+03 -0.10514E+07
 0.13727000E+03 -0.10265E+07
 0.13732001E+03 -0.10039E+07
 0.13737001E+03 -0.99062E+06
 0.13742001E+03 -0.99444E+06
 0.13747000E+03 -0.10104E+07
 0.13752000E+03 -0.10273E+07
 0.13757001E+03 -0.10371E+07
 0.13762001E+03 -0.10319E+07
 0.13767001E+03 -0.10063E+07
 0.13772000E+03 -0.97101E+06
 0.13777000E+03 -0.94446E+06
 0.13782001E+03 -0.92817E+06
 0.13787001E+03 -0.91378E+06
 0.13792001E+03 -0.89803E+06
 0.13797000E+03 -0.87502E+06
 0.13802000E+03 -0.83689E+06
 0.13807001E+03 -0.78845E+06
 0.13812001E+03 -0.74011E+06
 0.13817001E+03 -0.69364E+06
 0.13822000E+03 -0.65169E+06
 0.13827000E+03 -0.61748E+06
 0.13832001E+03 -0.58408E+06
 0.13837001E+03 -0.54618E+06
 0.13842001E+03 -0.50933E+06
 0.13847000E+03 -0.47849E+06
 0.13852000E+03 -0.44974E+06
 0.13857001E+03 -0.42557E+06
 0.13862001E+03 -0.41251E+06
 0.13867001E+03 -0.40730E+06
 0.13872000E+03 -0.40803E+06
 0.13877000E+03 -0.42021E+06
 0.13882001E+03 -0.44890E+06
 0.13887001E+03 -0.48938E+06
 0.13892001E+03 -0.53128E+06
 0.13897000E+03 -0.56765E+06
 0.13902000E+03 -0.59670E+06
 0.13907001E+03 -0.61529E+06
 0.13912001E+03 -0.61991E+06
 0.13917001E+03 -0.62039E+06
 0.13922000E+03 -0.62862E+06
 0.13927000E+03 -0.64420E+06
 0.13932001E+03 -0.66769E+06
 0.13937001E+03 -0.70516E+06
 0.13942001E+03 -0.75407E+06
 0.13947000E+03 -0.80824E+06
 0.13952000E+03 -0.86680E+06
 0.13957001E+03 -0.92728E+06
 0.13962001E+03 -0.98619E+06
 0.13967001E+03 -0.10390E+07
 0.13972000E+03 -0.10894E+07
 0.13977000E+03 -0.11401E+07
 0.13982001E+03 -0.11829E+07
 0.13987001E+03 -0.12211E+07
 0.13992001E+03 -0.12553E+07
 0.13997000E+03 -0.12793E+07
 0.14002000E+03 -0.12920E+07
 0.14007001E+03 -0.12892E+07
 0.14012001E+03 -0.12708E+07
 0.14017001E+03 -0.12423E+07
 0.14022000E+03 -0.12079E+07
 0.14027000E+03 -0.11692E+07
 0.14032001E+03 -0.11301E+07
 0.14037001E+03 -0.10986E+07
 0.14042001E+03 -0.10750E+07
 0.14047000E+03 -0.10542E+07
 0.14052000E+03 -0.10333E+07
 0.14057001E+03 -0.10126E+07
 0.14062001E+03 -0.99631E+06
 0.14067001E+03 -0.99272E+06
 0.14072000E+03 -0.10008E+07
 0.14077000E+03 -0.10089E+07
 0.14082001E+03 -0.10182E+07
 0.14087001E+03 -0.10270E+07
 0.14092001E+03 -0.10267E+07
 0.14097000E+03 -0.10204E+07
 0.14102000E+03 -0.10072E+07
 0.14107001E+03 -0.98520E+06
 0.14112001E+03 -0.96253E+06
 0.14117001E+03 -0.94992E+06
 0.14122000E+03 -0.95481E+06
 0.14127000E+03 -0.97504E+06
 0.14132001E+03 -0.10051E+07
 0.14137001E+03 -0.10382E+07
 0.14142001E+03 -0.10699E+07
 0.14147000E+03 -0.10966E+07
 0.14152000E+03 -0.11089E+07
 0.14157001E+03 -0.11043E+07
 0.14162001E+03 -0.10888E+07
 0.14167001E+03 -0.10668E+07
 0.14172000E+03 -0.10376E+07
 0.14177000E+03 -0.10015E+07
 0.14182001E+03 -0.96340E+06
 0.14187001E+03 -0.92886E+06
 0.14192001E+03 -0.89501E+06
 0.14197000E+03 -0.86324E+06
 0.14202000E+03 -0.83922E+06
 0.14207001E+03 -0.81630E+06
 0.14212001E+03 -0.78780E+06
 0.14217001E+03 -0.75288E+06
 0.14222000E+03 -0.71707E+06
 0.14227000E+03 -0.68160E+06
 0.14232001E+03 -0.63904E+06
 0.14237001E+03 -0.59200E+06
 0.14242001E+03 -0.55003E+06
 0.14247000E+03 -0.51934E+06
 0.14252000E+03 -0.50675E+06
 0.14257001E+03 -0.51192E+06
 0.14262001E+03 -0.52322E+06
 0.14267001E+03 -0.53394E+06
 0.14272000E+03 -0.54169E+06
 0.14277000E+03 -0.54303E+06
 0.14282001E+03 -0.53695E+06
 0.14287001E+03 -0.52746E+06
 0.14292001E+03 -0.51668E+06
 0.14297000E+03 -0.50495E+06
 0.14302000E+03 -0.50092E+06
 0.14307001E+03 -0.50496E+06
 0.14312001E+03 -0.51286E+06
 0.14317001E+03 -0.52325E+06
 0.14322000E+03 -0.53308E+06
 0.14327000E+03 -0.54610E+06
 0.14332001E+03 -0.56169E+06
 0.14337001E+03 -0.58355E+06
 0.14342001E+03 -0.61287E+06
 0.14347000E+03 -0.64327E+06
 0.14352000E+03 -0.67450E+06
 0.14357001E+03 -0.69548E+06
 0.14362001E+03 -0.69526E+06
 0.14367001E+03 -0.67973E+06
 0.14372000E+03 -0.65767E+06
 0.14377000E+03 -0.62950E+06
 0.14382001E+03 -0.59932E+06
 0.14387001E+03 -0.57742E+06
 0.14392001E+03 -0.57288E+06
 0.14397000E+03 -0.58991E+06
 0.14402000E+03 -0.62443E+06
 0.14407001E+03 -0.66512E+06
 0.14412001E+03 -0.69407E+06
 0.14417001E+03 -0.70785E+06
 0.14422000E+03 -0.71454E+06
 0.14427000E+03 -0.71506E+06
 0.14432001E+03 -0.70882E+06
 0.14437001E+03 -0.69750E+06
 0.14442001E+03 -0.68578E+06
 0.14447000E+03 -0.68062E+06
 0.14452000E+03 -0.68716E+06
 0.14457001E+03 -0.70465E+06
 0.14462001E+03 -0.72687E+06
 0.14467001E+03 -0.74625E+06
 0.14472000E+03 -0.76744E+06
 0.14477000E+03 -0.80083E+06
 0.14482001E+03 -0.83844E+06
 0.14487001E+03 -0.86689E+06
 0.14492001E+03 -0.88296E+06
 0.14497000E+03 -0.88800E+06
 0.14502000E+03 -0.88561E+06
 0.14507001E+03 -0.87882E+06
 0.14512001E+03 -0.86855E+06
 0.14517001E+03 -0.85429E+06
 0.14522000E+03 -0.83732E+06
 0.14527000E+03 -0.81714E+06
 0.14532001E+03 -0.79224E+06
 0.14537001E+03 -0.77491E+06
 0.14542001E+03 -0.77884E+06
 0.14547000E+03 -0.79969E+06
 0.14552000E+03 -0.83154E+06
 0.14557001E+03 -0.86627E+06
 0.14562001E+03 -0.89126E+06
 0.14567001E+03 -0.90776E+06
 0.14572000E+03 -0.92312E+06
 0.14577000E+03 -0.94512E+06
 0.14582001E+03 -0.98243E+06
 0.14587001E+03 -0.10280E+07
 0.14592001E+03 -0.10652E+07
 0.14597000E+03 -0.10878E+07
 0.14602000E+03 -0.10909E+07
 0.14607001E+03 -0.10789E+07
 0.14612001E+03 -0.10666E+07
 0.14617001E+03 -0.10608E+07
 0.14622000E+03 -0.10666E+07
 0.14627000E+03 -0.10766E+07
 0.14632001E+03 -0.10773E+07
 0.14637001E+03 -0.10661E+07
 0.14642001E+03 -0.10441E+07
 0.14647000E+03 -0.10190E+07
 0.14652000E+03 -0.10005E+07
 0.14657001E+03 -0.99318E+06
 0.14662001E+03 -0.10003E+07
 0.14667001E+03 -0.10212E+07
 0.14672000E+03 -0.10442E+07
 0.14677000E+03 -0.10617E+07
 0.14682001E+03 -0.10737E+07
 0.14687001E+03 -0.10738E+07
 0.14692001E+03 -0.10584E+07
 0.14697000E+03 -0.10298E+07
 0.14702000E+03 -0.99178E+06
 0.14707001E+03 -0.95276E+06
 0.14712001E+03 -0.91501E+06
 0.14717001E+03 -0.87731E+06
 0.14722000E+03 -0.84856E+06
 0.14727000E+03 -0.83285E+06
 0.14732001E+03 -0.82173E+06
 0.14737001E+03 -0.81536E+06
 0.14742001E+03 -0.81378E+06
 0.14747000E+03 -0.80966E+06
 0.14752000E+03 -0.80313E+06
 0.14757001E+03 -0.79229E+06
 0.14762001E+03 -0.77556E+06
 0.14767001E+03 -0.75654E+06
 0.14772000E+03 -0.73536E+06
 0.14777000E+03 -0.71107E+06
 0.14782001E+03 -0.69022E+06
 0.14787001E+03 -0.68083E+06
 0.14792001E+03 -0.67694E+06
 0.14797000E+03 -0.67412E+06
 0.14802000E+03 -0.67831E+06
 0.14807001E+03 -0.68946E+06
 0.14812001E+03 -0.70029E+06
 0.14817001E+03 -0.70747E+06
 0.14822000E+03 -0.71345E+06
 0.14827000E+03 -0.71783E+06
 0.14832001E+03 -0.71985E+06
 0.14837001E+03 -0.72249E+06
 0.14842001E+03 -0.72765E+06
 0.14847000E+03 -0.73149E+06
 0.14852000E+03 -0.73243E+06
 0.14857001E+03 -0.73001E+06
 0.14862001E+03 -0.71744E+06
 0.14867001E+03 -0.69737E+06
 0.14872000E+03 -0.67831E+06
 0.14877000E+03 -0.66330E+06
 0.14882001E+03 -0.65468E+06
 0.14887001E+03 -0.65292E+06
 0.14892001E+03 -0.65480E+06
 0.14897000E+03 -0.65494E+06
 0.14902000E+03 -0.65189E+06
 0.14907001E+03 -0.64783E+06
 0.14912001E+03 -0.64775E+06
 0.14917001E+03 -0.65410E+06
 0.14922000E+03 -0.66456E+06
 0.14927000E+03 -0.67672E+06
 0.14932001E+03 -0.68250E+06
 0.14937001E+03 -0.67796E+06
 0.14942001E+03 -0.66979E+06
 0.14947000E+03 -0.66564E+06
 0.14952000E+03 -0.66852E+06
 0.14957001E+03 -0.67531E+06
 0.14962001E+03 -0.68251E+06
 0.14967001E+03 -0.69410E+06
 0.14972000E+03 -0.71161E+06
 0.14977000E+03 -0.72793E+06
 0.14982001E+03 -0.74397E+06
 0.14987001E+03 -0.76452E+06
 0.14992001E+03 -0.78444E+06
 0.14997000E+03 -0.79782E+06
