-0.29800000E+01 -0.70859E+05
-0.29300001E+01 -0.68497E+05
-0.28800001E+01 -0.64588E+05
-0.28299999E+01 -0.60071E+05
-0.27800000E+01 -0.55208E+05
-0.27300000E+01 -0.49708E+05
-0.26800001E+01 -0.42780E+05
-0.26300001E+01 -0.33347E+05
-0.25799999E+01 -0.23020E+05
-0.25300000E+01 -0.13038E+05
-0.24800000E+01 -0.33750E+04
-0.24300001E+01  0.54600E+04
-0.23800001E+01  0.14219E+05
-0.23299999E+01  0.23459E+05
-0.22800000E+01  0.33883E+05
-0.22300000E+01  0.45354E+05
-0.21800001E+01  0.56714E+05
-0.21300001E+01  0.68151E+05
-0.20799999E+01  0.78472E+05
-0.20300000E+01  0.86330E+05
-0.19800000E+01  0.92145E+05
-0.19299999E+01  0.96285E+05
-0.18800000E+01  0.98592E+05
-0.18300000E+01  0.98886E+05
-0.17800000E+01  0.97866E+05
-0.17300000E+01  0.95361E+05
-0.16799999E+01  0.90165E+05
-0.16300000E+01  0.82059E+05
-0.15800000E+01  0.71529E+05
-0.15300000E+01  0.59526E+05
-0.14800000E+01  0.47376E+05
-0.14299999E+01  0.35403E+05
-0.13800000E+01  0.23138E+05
-0.13300000E+01  0.11721E+05
-0.12800000E+01  0.19020E+04
-0.12300000E+01 -0.64470E+04
-0.11799999E+01 -0.12998E+05
-0.11300000E+01 -0.18833E+05
-0.10800000E+01 -0.23804E+05
-0.10300000E+01 -0.27815E+05
-0.98000002E+00 -0.31398E+05
-0.93000007E+00 -0.33791E+05
-0.87999988E+00 -0.36480E+05
-0.82999992E+00 -0.39707E+05
-0.77999997E+00 -0.42487E+05
-0.73000002E+00 -0.45810E+05
-0.68000007E+00 -0.49255E+05
-0.62999988E+00 -0.52453E+05
-0.57999992E+00 -0.55807E+05
-0.52999997E+00 -0.58733E+05
-0.48000002E+00 -0.60774E+05
-0.43000007E+00 -0.61791E+05
-0.37999988E+00 -0.61525E+05
-0.32999992E+00 -0.59097E+05
-0.27999997E+00 -0.53877E+05
-0.23000002E+00 -0.47199E+05
-0.18000007E+00 -0.40135E+05
-0.12999988E+00 -0.33215E+05
-0.79999924E-01 -0.27682E+05
-0.29999971E-01 -0.23638E+05
 0.19999981E-01 -0.21256E+05
 0.69999933E-01 -0.20080E+05
 0.12000012E+00 -0.19101E+05
 0.17000008E+00 -0.18361E+05
 0.22000003E+00 -0.17294E+05
 0.26999998E+00 -0.16858E+05
 0.31999993E+00 -0.18332E+05
 0.37000012E+00 -0.21882E+05
 0.42000008E+00 -0.27556E+05
 0.47000003E+00 -0.33365E+05
 0.51999998E+00 -0.38140E+05
 0.56999993E+00 -0.41906E+05
 0.62000012E+00 -0.43880E+05
 0.67000008E+00 -0.44534E+05
 0.72000003E+00 -0.44325E+05
 0.76999998E+00 -0.43631E+05
 0.81999993E+00 -0.44060E+05
 0.87000012E+00 -0.45346E+05
 0.92000008E+00 -0.45774E+05
 0.97000003E+00 -0.44703E+05
 0.10200000E+01 -0.42168E+05
 0.10700002E+01 -0.38876E+05
 0.11199999E+01 -0.35006E+05
 0.11700001E+01 -0.29120E+05
 0.12200003E+01 -0.20183E+05
 0.12700000E+01 -0.92000E+04
 0.13200002E+01  0.28000E+04
 0.13699999E+01  0.15778E+05
 0.14200001E+01  0.29347E+05
 0.14700003E+01  0.43118E+05
 0.15200000E+01  0.57010E+05
 0.15700002E+01  0.70390E+05
 0.16199999E+01  0.82638E+05
 0.16700001E+01  0.93953E+05
 0.17200003E+01  0.10377E+06
 0.17700000E+01  0.11212E+06
 0.18200002E+01  0.11867E+06
 0.18699999E+01  0.12144E+06
 0.19200001E+01  0.12102E+06
 0.19700003E+01  0.11816E+06
 0.20200000E+01  0.11294E+06
 0.20700002E+01  0.10665E+06
 0.21199999E+01  0.98916E+05
 0.21700001E+01  0.89457E+05
 0.22200003E+01  0.79238E+05
 0.22700000E+01  0.68750E+05
 0.23200002E+01  0.58676E+05
 0.23699999E+01  0.49185E+05
 0.24200001E+01  0.40084E+05
 0.24700003E+01  0.31157E+05
 0.25200000E+01  0.21393E+05
 0.25700002E+01  0.10966E+05
 0.26199999E+01  0.52400E+03
 0.26700001E+01 -0.10037E+05
 0.27200003E+01 -0.19386E+05
 0.27700000E+01 -0.26932E+05
 0.28200002E+01 -0.33935E+05
 0.28699999E+01 -0.40394E+05
 0.29200001E+01 -0.46227E+05
 0.29700003E+01 -0.51253E+05
 0.30200000E+01 -0.55443E+05
 0.30700002E+01 -0.59715E+05
 0.31199999E+01 -0.63928E+05
 0.31700001E+01 -0.68550E+05
 0.32200003E+01 -0.73483E+05
 0.32700000E+01 -0.77436E+05
 0.33200002E+01 -0.80323E+05
 0.33699999E+01 -0.81537E+05
 0.34200001E+01 -0.80332E+05
 0.34700003E+01 -0.77814E+05
 0.35200000E+01 -0.75494E+05
 0.35700002E+01 -0.73594E+05
 0.36199999E+01 -0.71683E+05
 0.36700001E+01 -0.68976E+05
 0.37200003E+01 -0.64661E+05
 0.37700000E+01 -0.58804E+05
 0.38200002E+01 -0.52257E+05
 0.38699999E+01 -0.45891E+05
 0.39200001E+01 -0.40293E+05
 0.39700003E+01 -0.36270E+05
 0.40200000E+01 -0.33499E+05
 0.40700002E+01 -0.31135E+05
 0.41199999E+01 -0.29453E+05
 0.41700001E+01 -0.28287E+05
 0.42200003E+01 -0.26807E+05
 0.42700000E+01 -0.24031E+05
 0.43200002E+01 -0.19915E+05
 0.43699999E+01 -0.15871E+05
 0.44200001E+01 -0.12988E+05
 0.44700003E+01 -0.11048E+05
 0.45200000E+01 -0.89460E+04
 0.45700002E+01 -0.63950E+04
 0.46199999E+01 -0.28830E+04
 0.46700001E+01  0.21210E+04
 0.47200003E+01  0.77380E+04
 0.47700000E+01  0.13839E+05
 0.48200002E+01  0.19667E+05
 0.48699999E+01  0.24340E+05
 0.49200001E+01  0.27804E+05
 0.49700003E+01  0.29852E+05
 0.50200000E+01  0.31207E+05
 0.50700002E+01  0.31841E+05
 0.51200004E+01  0.31646E+05
 0.51700006E+01  0.30515E+05
 0.52199998E+01  0.28224E+05
 0.52700000E+01  0.26475E+05
 0.53200002E+01  0.26108E+05
 0.53700004E+01  0.26355E+05
 0.54200006E+01  0.26446E+05
 0.54699998E+01  0.26046E+05
 0.55200000E+01  0.25370E+05
 0.55700002E+01  0.24031E+05
 0.56200004E+01  0.22232E+05
 0.56700006E+01  0.20557E+05
 0.57199998E+01  0.18849E+05
 0.57700000E+01  0.17764E+05
 0.58200002E+01  0.17989E+05
 0.58700004E+01  0.19356E+05
 0.59200006E+01  0.22061E+05
 0.59699998E+01  0.26185E+05
 0.60200000E+01  0.30514E+05
 0.60700002E+01  0.34267E+05
 0.61200004E+01  0.37369E+05
 0.61700006E+01  0.39626E+05
 0.62199998E+01  0.41672E+05
 0.62700000E+01  0.43342E+05
 0.63200002E+01  0.44282E+05
 0.63700004E+01  0.44461E+05
 0.64200006E+01  0.42541E+05
 0.64699998E+01  0.38554E+05
 0.65200000E+01  0.34508E+05
 0.65700002E+01  0.31918E+05
 0.66200004E+01  0.30808E+05
 0.66700006E+01  0.30400E+05
 0.67199998E+01  0.29502E+05
 0.67700000E+01  0.27492E+05
 0.68200002E+01  0.24267E+05
 0.68700004E+01  0.19548E+05
 0.69200006E+01  0.14785E+05
 0.69699998E+01  0.10689E+05
 0.70200000E+01  0.78360E+04
 0.70700002E+01  0.66530E+04
 0.71200004E+01  0.54500E+04
 0.71700006E+01  0.51140E+04
 0.72199998E+01  0.58370E+04
 0.72700000E+01  0.67740E+04
 0.73200002E+01  0.87810E+04
 0.73700004E+01  0.11189E+05
 0.74200006E+01  0.13788E+05
 0.74699998E+01  0.16336E+05
 0.75200000E+01  0.18673E+05
 0.75700002E+01  0.21346E+05
 0.76200004E+01  0.23674E+05
 0.76700006E+01  0.24543E+05
 0.77199998E+01  0.23026E+05
 0.77700000E+01  0.19138E+05
 0.78200002E+01  0.13868E+05
 0.78700004E+01  0.90360E+04
 0.79200006E+01  0.41990E+04
 0.79699998E+01 -0.12470E+04
 0.80200005E+01 -0.62200E+04
 0.80699997E+01 -0.11644E+05
 0.81200008E+01 -0.16954E+05
 0.81700001E+01 -0.20713E+05
 0.82199993E+01 -0.22542E+05
 0.82700005E+01 -0.22584E+05
 0.83199997E+01 -0.21471E+05
 0.83700008E+01 -0.19359E+05
 0.84200001E+01 -0.18123E+05
 0.84699993E+01 -0.18617E+05
 0.85200005E+01 -0.20354E+05
 0.85699997E+01 -0.23982E+05
 0.86200008E+01 -0.28327E+05
 0.86700001E+01 -0.32200E+05
 0.87199993E+01 -0.35152E+05
 0.87700005E+01 -0.36218E+05
 0.88199997E+01 -0.35518E+05
 0.88700008E+01 -0.33342E+05
 0.89200001E+01 -0.29870E+05
 0.89699993E+01 -0.24539E+05
 0.90200005E+01 -0.17744E+05
 0.90699997E+01 -0.11422E+05
 0.91200008E+01 -0.63110E+04
 0.91700001E+01 -0.22880E+04
 0.92199993E+01  0.16190E+04
 0.92700005E+01  0.53760E+04
 0.93199997E+01  0.82570E+04
 0.93700008E+01  0.10350E+05
 0.94200001E+01  0.10814E+05
 0.94699993E+01  0.96200E+04
 0.95200005E+01  0.71100E+04
 0.95699997E+01  0.20180E+04
 0.96200008E+01 -0.56240E+04
 0.96700001E+01 -0.14791E+05
 0.97199993E+01 -0.25027E+05
 0.97700005E+01 -0.35511E+05
 0.98199997E+01 -0.46051E+05
 0.98700008E+01 -0.56526E+05
 0.99200001E+01 -0.66019E+05
 0.99699993E+01 -0.73951E+05
 0.10020000E+02 -0.80112E+05
 0.10070000E+02 -0.83313E+05
 0.10120001E+02 -0.82993E+05
 0.10170000E+02 -0.80353E+05
 0.10219999E+02 -0.75336E+05
 0.10270000E+02 -0.68639E+05
 0.10320000E+02 -0.60893E+05
 0.10370001E+02 -0.51684E+05
 0.10420000E+02 -0.42433E+05
 0.10469999E+02 -0.33197E+05
 0.10520000E+02 -0.23347E+05
 0.10570000E+02 -0.13604E+05
 0.10620001E+02 -0.54190E+04
 0.10670000E+02  0.11570E+04
 0.10719999E+02  0.69130E+04
 0.10770000E+02  0.10939E+05
 0.10820000E+02  0.13364E+05
 0.10870001E+02  0.14630E+05
 0.10920000E+02  0.14917E+05
 0.10969999E+02  0.14840E+05
 0.11020000E+02  0.14747E+05
 0.11070000E+02  0.15204E+05
 0.11120001E+02  0.16511E+05
 0.11170000E+02  0.18290E+05
 0.11219999E+02  0.19432E+05
 0.11270000E+02  0.19316E+05
 0.11320000E+02  0.18775E+05
 0.11370001E+02  0.18614E+05
 0.11420000E+02  0.18586E+05
 0.11469999E+02  0.18791E+05
 0.11520000E+02  0.19010E+05
 0.11570000E+02  0.18443E+05
 0.11620001E+02  0.17079E+05
 0.11670000E+02  0.15047E+05
 0.11719999E+02  0.13173E+05
 0.11770000E+02  0.12727E+05
 0.11820000E+02  0.13918E+05
 0.11870001E+02  0.15532E+05
 0.11920000E+02  0.16512E+05
 0.11969999E+02  0.16507E+05
 0.12020000E+02  0.15636E+05
 0.12070000E+02  0.15489E+05
 0.12120001E+02  0.16826E+05
 0.12170000E+02  0.19047E+05
 0.12219999E+02  0.21120E+05
 0.12270000E+02  0.21812E+05
 0.12320000E+02  0.21471E+05
 0.12370001E+02  0.20579E+05
 0.12420000E+02  0.18711E+05
 0.12469999E+02  0.16081E+05
 0.12520000E+02  0.13021E+05
 0.12570000E+02  0.93400E+04
 0.12620001E+02  0.49510E+04
 0.12670000E+02  0.85000E+02
 0.12719999E+02 -0.48690E+04
 0.12770000E+02 -0.98160E+04
 0.12820000E+02 -0.15560E+05
 0.12870001E+02 -0.22756E+05
 0.12920000E+02 -0.30074E+05
 0.12969999E+02 -0.36250E+05
 0.13020000E+02 -0.40602E+05
 0.13070002E+02 -0.42700E+05
 0.13120001E+02 -0.44066E+05
 0.13170000E+02 -0.44788E+05
 0.13220001E+02 -0.44283E+05
 0.13270000E+02 -0.42853E+05
 0.13320002E+02 -0.39307E+05
 0.13370001E+02 -0.33986E+05
 0.13420000E+02 -0.26643E+05
 0.13470001E+02 -0.16091E+05
 0.13520000E+02 -0.48410E+04
 0.13570002E+02  0.58670E+04
 0.13620001E+02  0.15526E+05
 0.13670000E+02  0.23404E+05
 0.13720001E+02  0.30398E+05
 0.13770000E+02  0.41719E+05
 0.13820002E+02  0.62416E+05
 0.13870001E+02  0.10514E+06
 0.13920000E+02  0.19503E+06
 0.13970001E+02  0.35664E+06
 0.14020000E+02  0.53590E+06
 0.14070002E+02  0.62471E+06
 0.14120001E+02  0.52832E+06
 0.14170000E+02  0.17506E+06
 0.14220001E+02 -0.34473E+06
 0.14270000E+02 -0.85436E+06
 0.14320002E+02 -0.11618E+07
 0.14370001E+02 -0.13003E+07
 0.14420000E+02 -0.11214E+07
 0.14470001E+02 -0.42026E+06
 0.14520000E+02  0.45964E+06
 0.14570002E+02  0.12507E+07
 0.14620001E+02  0.15203E+07
 0.14670000E+02  0.14590E+07
 0.14720001E+02  0.12049E+07
 0.14770000E+02  0.77500E+06
 0.14820002E+02  0.77384E+06
 0.14870001E+02  0.90029E+06
 0.14920000E+02  0.71337E+06
 0.14970001E+02 -0.46771E+06
 0.15020000E+02 -0.18223E+07
 0.15070002E+02 -0.26590E+07
 0.15120001E+02 -0.39265E+07
 0.15170000E+02 -0.45222E+07
 0.15220001E+02 -0.34196E+07
 0.15270000E+02 -0.14248E+07
 0.15320002E+02 -0.34311E+06
 0.15370001E+02 -0.10186E+07
 0.15420000E+02 -0.12253E+07
 0.15470001E+02  0.67792E+06
 0.15520000E+02  0.23475E+07
 0.15570002E+02  0.28479E+07
 0.15620001E+02  0.34140E+07
 0.15670000E+02  0.35881E+07
 0.15720001E+02  0.30698E+07
 0.15770000E+02  0.14273E+07
 0.15820002E+02  0.18992E+06
 0.15870001E+02  0.30652E+06
 0.15920000E+02  0.80628E+06
 0.15970001E+02  0.10534E+07
 0.16020000E+02 -0.63796E+06
 0.16070002E+02 -0.88124E+06
 0.16120001E+02  0.47397E+06
 0.16170000E+02 -0.18183E+06
 0.16220001E+02 -0.18797E+06
 0.16270000E+02  0.20429E+06
 0.16320002E+02  0.52228E+06
 0.16370001E+02  0.74061E+06
 0.16420000E+02  0.26765E+06
 0.16470001E+02  0.73299E+05
 0.16520000E+02 -0.11997E+07
 0.16570002E+02 -0.25019E+07
 0.16620001E+02 -0.29616E+07
 0.16670000E+02 -0.21677E+07
 0.16720001E+02 -0.15783E+07
 0.16770000E+02 -0.19811E+07
 0.16820002E+02 -0.11448E+07
 0.16870001E+02 -0.69948E+06
 0.16920000E+02 -0.48238E+05
 0.16970001E+02  0.46700E+06
 0.17020000E+02  0.12881E+06
 0.17070002E+02 -0.10460E+06
 0.17120001E+02 -0.20395E+06
 0.17170000E+02  0.79954E+06
 0.17220001E+02  0.10038E+07
 0.17270000E+02  0.88507E+06
 0.17320002E+02  0.15682E+07
 0.17370001E+02  0.17634E+07
 0.17420000E+02  0.13733E+07
 0.17470001E+02  0.12116E+07
 0.17520000E+02  0.83579E+06
 0.17570002E+02 -0.11664E+06
 0.17620001E+02 -0.50203E+06
 0.17670000E+02 -0.99437E+06
 0.17720001E+02 -0.10703E+07
 0.17770000E+02 -0.19631E+06
 0.17820002E+02  0.10435E+07
 0.17870001E+02  0.21907E+07
 0.17920000E+02  0.22973E+07
 0.17970001E+02  0.12046E+07
 0.18020000E+02  0.66231E+06
 0.18070002E+02  0.13045E+07
 0.18120001E+02  0.10521E+07
 0.18170000E+02 -0.59939E+05
 0.18220001E+02 -0.38843E+06
 0.18270000E+02 -0.10743E+05
 0.18320002E+02 -0.79248E+06
 0.18370001E+02 -0.54315E+06
 0.18420000E+02  0.73754E+06
 0.18470001E+02  0.28408E+06
 0.18520000E+02  0.14796E+06
 0.18570002E+02 -0.45565E+06
 0.18620001E+02 -0.12345E+07
 0.18670000E+02 -0.10301E+07
 0.18720001E+02 -0.15989E+07
 0.18770000E+02 -0.23624E+07
 0.18820002E+02 -0.18542E+07
 0.18870001E+02 -0.12806E+07
 0.18920000E+02 -0.90079E+06
 0.18970001E+02  0.37404E+06
 0.19020000E+02  0.57268E+06
 0.19070002E+02  0.15013E+06
 0.19120001E+02  0.41793E+06
 0.19170000E+02  0.72461E+06
 0.19220001E+02  0.12687E+07
 0.19270000E+02  0.15933E+07
 0.19320002E+02  0.57698E+06
 0.19370001E+02 -0.24931E+06
 0.19420000E+02  0.11001E+06
 0.19470001E+02  0.14102E+06
 0.19520000E+02  0.58255E+06
 0.19570002E+02  0.57236E+06
 0.19620001E+02  0.57683E+06
 0.19670000E+02  0.47172E+06
 0.19720001E+02 -0.74609E+06
 0.19770000E+02  0.51073E+06
 0.19820002E+02  0.40200E+06
 0.19870001E+02 -0.12032E+07
 0.19920000E+02 -0.68248E+06
 0.19970001E+02 -0.90764E+06
 0.20020000E+02  0.61183E+06
 0.20070002E+02  0.16627E+07
 0.20120001E+02  0.12325E+07
 0.20170000E+02  0.17391E+07
 0.20220001E+02  0.10806E+07
 0.20270000E+02  0.10913E+07
 0.20320002E+02  0.10695E+07
 0.20370001E+02  0.44178E+06
 0.20420000E+02 -0.20064E+06
 0.20470001E+02 -0.98338E+06
 0.20520000E+02 -0.10034E+07
 0.20570002E+02 -0.36359E+06
 0.20620001E+02 -0.36177E+06
 0.20670000E+02 -0.10766E+07
 0.20720001E+02 -0.42426E+06
 0.20770000E+02 -0.64817E+06
 0.20820002E+02 -0.11636E+06
 0.20870001E+02  0.17328E+07
 0.20920000E+02  0.15574E+07
 0.20970001E+02  0.17423E+07
 0.21020000E+02  0.98137E+06
 0.21070002E+02  0.12249E+06
 0.21120001E+02  0.12858E+07
 0.21170000E+02  0.14618E+07
 0.21220001E+02  0.77636E+06
 0.21270000E+02  0.62029E+05
 0.21320002E+02 -0.38474E+06
 0.21370001E+02 -0.27163E+06
 0.21420000E+02  0.32932E+06
 0.21470001E+02  0.11413E+07
 0.21520000E+02  0.13938E+07
 0.21570002E+02  0.24013E+06
 0.21620001E+02 -0.10644E+07
 0.21670000E+02 -0.32391E+06
 0.21720001E+02 -0.22633E+06
 0.21770000E+02 -0.79209E+06
 0.21820002E+02  0.45612E+06
 0.21870001E+02  0.94326E+06
 0.21920000E+02  0.14383E+06
 0.21970001E+02 -0.55995E+05
 0.22020000E+02  0.69556E+06
 0.22070002E+02  0.20350E+07
 0.22120001E+02  0.25440E+07
 0.22170000E+02  0.21696E+07
 0.22220001E+02  0.13089E+07
 0.22270000E+02  0.76324E+06
 0.22320002E+02  0.85725E+06
 0.22370001E+02  0.42468E+06
 0.22420000E+02  0.89572E+06
 0.22470001E+02  0.10348E+07
 0.22520000E+02  0.19469E+06
 0.22570002E+02 -0.40464E+06
 0.22620001E+02 -0.16156E+07
 0.22670000E+02 -0.10569E+07
 0.22720001E+02  0.56265E+05
 0.22770000E+02 -0.17696E+05
 0.22820002E+02  0.73186E+05
 0.22870001E+02 -0.48417E+06
 0.22920000E+02 -0.77494E+06
 0.22970001E+02 -0.57301E+06
 0.23020000E+02 -0.43948E+06
 0.23070002E+02  0.18531E+06
 0.23120001E+02  0.61058E+06
 0.23170000E+02  0.20458E+06
 0.23220001E+02 -0.32248E+06
 0.23270000E+02 -0.47562E+06
 0.23320002E+02 -0.11065E+07
 0.23370001E+02 -0.25327E+07
 0.23420000E+02 -0.31199E+07
 0.23470001E+02 -0.24936E+07
 0.23520000E+02 -0.18198E+07
 0.23570002E+02 -0.67998E+06
 0.23620001E+02  0.11048E+07
 0.23670000E+02  0.16328E+07
 0.23720001E+02  0.16523E+06
 0.23770000E+02 -0.14141E+06
 0.23820002E+02  0.11961E+07
 0.23870001E+02  0.20451E+07
 0.23920000E+02  0.11071E+07
 0.23970001E+02 -0.35607E+06
 0.24020000E+02 -0.40553E+06
 0.24070002E+02 -0.32504E+07
 0.24120001E+02 -0.64498E+07
 0.24170000E+02 -0.65156E+07
 0.24220001E+02 -0.70988E+07
 0.24270000E+02 -0.78973E+07
 0.24320002E+02 -0.81323E+07
 0.24370001E+02 -0.90161E+07
 0.24420000E+02 -0.93039E+07
 0.24470001E+02 -0.58334E+07
 0.24520000E+02 -0.32461E+07
 0.24570002E+02 -0.10459E+07
 0.24620001E+02  0.64241E+07
 0.24670000E+02  0.12827E+08
 0.24720001E+02  0.16931E+08
 0.24770000E+02  0.18977E+08
 0.24820002E+02  0.15044E+08
 0.24870001E+02  0.98308E+07
 0.24920000E+02  0.47763E+07
 0.24970001E+02  0.15147E+07
 0.25020000E+02  0.17368E+07
 0.25070002E+02 -0.11102E+07
 0.25120001E+02 -0.49427E+07
 0.25170000E+02 -0.48110E+07
 0.25220001E+02 -0.31253E+07
 0.25270000E+02 -0.31239E+06
 0.25320002E+02  0.22762E+07
 0.25370001E+02  0.34805E+07
 0.25420000E+02  0.42472E+07
 0.25470001E+02  0.16371E+07
 0.25520000E+02 -0.30990E+07
 0.25570002E+02 -0.12949E+07
 0.25620001E+02  0.67858E+07
 0.25670000E+02  0.10424E+08
 0.25720001E+02  0.10398E+08
 0.25770000E+02  0.84319E+07
 0.25820002E+02  0.34742E+07
 0.25870001E+02 -0.96662E+06
 0.25920000E+02 -0.11045E+07
 0.25970001E+02  0.64328E+07
 0.26020000E+02  0.10562E+08
 0.26070002E+02  0.74089E+07
 0.26120001E+02  0.24860E+07
 0.26170000E+02 -0.13167E+07
 0.26220001E+02 -0.18547E+07
 0.26270000E+02 -0.44218E+07
 0.26320002E+02 -0.45555E+07
 0.26370001E+02 -0.16486E+07
 0.26420000E+02 -0.19419E+07
 0.26470001E+02 -0.13379E+07
 0.26520000E+02 -0.17912E+06
 0.26570002E+02 -0.65324E+06
 0.26620001E+02 -0.19701E+07
 0.26670000E+02 -0.25852E+07
 0.26720001E+02 -0.96218E+06
 0.26770000E+02 -0.10816E+07
 0.26820002E+02 -0.24343E+07
 0.26870001E+02 -0.15649E+07
 0.26920000E+02 -0.10215E+07
 0.26970001E+02 -0.17211E+06
 0.27020000E+02  0.24171E+07
 0.27070002E+02  0.41422E+07
 0.27120001E+02  0.41287E+07
 0.27170000E+02  0.28699E+07
 0.27220001E+02  0.59794E+06
 0.27270000E+02 -0.26234E+07
 0.27320002E+02 -0.34537E+07
 0.27370001E+02  0.19828E+06
 0.27420000E+02  0.35338E+07
 0.27470001E+02  0.49738E+07
 0.27520000E+02  0.49517E+07
 0.27570002E+02  0.15312E+07
 0.27620001E+02 -0.32354E+07
 0.27670000E+02 -0.51400E+07
 0.27720001E+02 -0.43658E+07
 0.27770000E+02 -0.42634E+07
 0.27820002E+02 -0.40396E+07
 0.27870001E+02 -0.33970E+07
 0.27920000E+02 -0.43051E+07
 0.27970001E+02 -0.58548E+07
 0.28020000E+02 -0.61757E+07
 0.28070002E+02 -0.40443E+07
 0.28120001E+02 -0.20186E+07
 0.28170000E+02 -0.70191E+06
 0.28220001E+02  0.19415E+07
 0.28270000E+02  0.38645E+07
 0.28320002E+02  0.32838E+07
 0.28370001E+02  0.10201E+07
 0.28420000E+02  0.54775E+06
 0.28470001E+02  0.29382E+07
 0.28520000E+02  0.67609E+07
 0.28570002E+02  0.10849E+08
 0.28620001E+02  0.11494E+08
 0.28670000E+02  0.93286E+07
 0.28720001E+02  0.64790E+07
 0.28770000E+02  0.30615E+07
 0.28820002E+02  0.74336E+06
 0.28870001E+02 -0.90857E+06
 0.28920000E+02 -0.18940E+07
 0.28970001E+02 -0.18401E+07
 0.29020000E+02 -0.12333E+07
 0.29070000E+02 -0.41084E+06
 0.29120003E+02 -0.97246E+06
 0.29170002E+02 -0.99036E+06
 0.29220001E+02  0.10027E+07
 0.29270000E+02  0.24326E+07
 0.29320000E+02  0.34937E+07
 0.29370003E+02  0.40133E+07
 0.29420002E+02  0.26251E+07
 0.29470001E+02  0.11773E+07
 0.29520000E+02  0.15777E+07
 0.29570000E+02  0.26791E+07
 0.29620003E+02  0.27495E+07
 0.29670002E+02  0.18867E+07
 0.29720001E+02  0.36298E+05
 0.29770000E+02 -0.17749E+07
 0.29820000E+02 -0.22002E+07
 0.29870003E+02 -0.18013E+07
 0.29920002E+02  0.97134E+05
 0.29970001E+02  0.23480E+07
 0.30020000E+02  0.30520E+07
 0.30070000E+02  0.30247E+07
 0.30120003E+02  0.30580E+07
 0.30170002E+02  0.38069E+07
 0.30220001E+02  0.43933E+07
 0.30270000E+02  0.47510E+07
 0.30320000E+02  0.50133E+07
 0.30370003E+02  0.40465E+07
 0.30420002E+02  0.25793E+07
 0.30470001E+02  0.50404E+06
 0.30520000E+02 -0.16060E+07
 0.30570000E+02 -0.20431E+07
 0.30620003E+02 -0.20823E+07
 0.30670002E+02 -0.22795E+07
 0.30720001E+02 -0.19665E+07
 0.30770000E+02 -0.28831E+07
 0.30820000E+02 -0.41591E+07
 0.30870003E+02 -0.31942E+07
 0.30920002E+02 -0.54310E+06
 0.30970001E+02  0.19705E+07
 0.31020000E+02  0.22322E+07
 0.31070000E+02  0.82358E+06
 0.31120003E+02 -0.58442E+06
 0.31170002E+02 -0.12901E+07
 0.31220001E+02 -0.12555E+07
 0.31270000E+02 -0.64055E+06
 0.31320000E+02  0.12995E+07
 0.31370003E+02  0.32544E+07
 0.31420002E+02  0.45686E+07
 0.31470001E+02  0.46449E+07
 0.31520000E+02  0.28502E+07
 0.31570000E+02  0.93172E+06
 0.31620003E+02 -0.63371E+05
 0.31670002E+02  0.42179E+06
 0.31720001E+02  0.21062E+07
 0.31770000E+02  0.37968E+07
 0.31820000E+02  0.44863E+07
 0.31870003E+02  0.43881E+07
 0.31920002E+02  0.36936E+07
 0.31970001E+02  0.24167E+07
 0.32020000E+02  0.22602E+07
 0.32070000E+02  0.29804E+07
 0.32120003E+02  0.25735E+07
 0.32170002E+02  0.84272E+06
 0.32220001E+02 -0.13235E+07
 0.32270000E+02 -0.31913E+07
 0.32320000E+02 -0.39531E+07
 0.32370003E+02 -0.31319E+07
 0.32420002E+02 -0.20882E+07
 0.32470001E+02 -0.14221E+07
 0.32520000E+02 -0.62704E+06
 0.32570000E+02  0.44450E+06
 0.32620003E+02  0.17898E+07
 0.32670002E+02  0.20491E+07
 0.32720001E+02  0.16059E+07
 0.32770000E+02  0.93791E+06
 0.32820000E+02 -0.37790E+06
 0.32870003E+02 -0.14993E+07
 0.32920002E+02 -0.23300E+07
 0.32970001E+02 -0.20455E+07
 0.33020000E+02 -0.78177E+06
 0.33070000E+02  0.77367E+06
 0.33120003E+02  0.26155E+07
 0.33170002E+02  0.31185E+07
 0.33220001E+02  0.24692E+07
 0.33270000E+02  0.21103E+07
 0.33320000E+02  0.20152E+07
 0.33370003E+02  0.26085E+07
 0.33420002E+02  0.36702E+07
 0.33470001E+02  0.34150E+07
 0.33520000E+02  0.16725E+07
 0.33570000E+02  0.45410E+04
 0.33620003E+02 -0.12352E+07
 0.33670002E+02 -0.31786E+07
 0.33720001E+02 -0.47650E+07
 0.33770000E+02 -0.46838E+07
 0.33820000E+02 -0.53618E+07
 0.33870003E+02 -0.63587E+07
 0.33920002E+02 -0.63972E+07
 0.33970001E+02 -0.73744E+07
 0.34020000E+02 -0.79034E+07
 0.34070000E+02 -0.72864E+07
 0.34120003E+02 -0.69982E+07
 0.34170002E+02 -0.63514E+07
 0.34220001E+02 -0.57019E+07
 0.34270000E+02 -0.50437E+07
 0.34320000E+02 -0.33089E+07
 0.34370003E+02 -0.16439E+07
 0.34420002E+02 -0.36913E+06
 0.34470001E+02  0.29820E+06
 0.34520000E+02 -0.11286E+07
 0.34570000E+02 -0.30008E+07
 0.34620003E+02 -0.31678E+07
 0.34670002E+02 -0.22066E+07
 0.34720001E+02 -0.14272E+07
 0.34770000E+02 -0.13872E+07
 0.34820000E+02 -0.16094E+07
 0.34870003E+02 -0.19843E+07
 0.34920002E+02 -0.26533E+07
 0.34970001E+02 -0.27602E+07
 0.35020000E+02 -0.14488E+07
 0.35070000E+02  0.36916E+06
 0.35120003E+02  0.16171E+07
 0.35170002E+02  0.17715E+07
 0.35220001E+02  0.72979E+06
 0.35270000E+02 -0.95048E+05
 0.35320000E+02 -0.21354E+06
 0.35370003E+02 -0.56287E+06
 0.35420002E+02 -0.12667E+07
 0.35470001E+02 -0.22325E+07
 0.35520000E+02 -0.32781E+07
 0.35570000E+02 -0.29236E+07
 0.35620003E+02 -0.19783E+07
 0.35670002E+02 -0.25864E+07
 0.35720001E+02 -0.32792E+07
 0.35770000E+02 -0.34180E+07
 0.35820000E+02 -0.37625E+07
 0.35870003E+02 -0.28648E+07
 0.35920002E+02 -0.11820E+07
 0.35970001E+02 -0.38542E+06
 0.36020000E+02  0.74821E+06
 0.36070000E+02  0.21409E+07
 0.36120003E+02  0.19253E+07
 0.36170002E+02  0.12732E+07
 0.36220001E+02  0.13259E+07
 0.36270000E+02  0.64298E+06
 0.36320000E+02 -0.38749E+06
 0.36370003E+02 -0.10415E+07
 0.36420002E+02 -0.16094E+07
 0.36470001E+02 -0.16601E+07
 0.36520000E+02 -0.12589E+07
 0.36570000E+02  0.29813E+06
 0.36620003E+02  0.22999E+07
 0.36670002E+02  0.33604E+07
 0.36720001E+02  0.44556E+07
 0.36770000E+02  0.51262E+07
 0.36820000E+02  0.43880E+07
 0.36870003E+02  0.25951E+07
 0.36920002E+02  0.87542E+06
 0.36970001E+02  0.69588E+06
 0.37020000E+02  0.17424E+07
 0.37070000E+02  0.23395E+07
 0.37120003E+02  0.20514E+07
 0.37170002E+02  0.14978E+07
 0.37220001E+02  0.36895E+06
 0.37270000E+02 -0.69262E+06
 0.37320000E+02 -0.10869E+07
 0.37370003E+02 -0.12792E+07
 0.37420002E+02 -0.89390E+06
 0.37470001E+02 -0.62532E+06
 0.37520000E+02 -0.73516E+06
 0.37570000E+02 -0.56461E+06
 0.37620003E+02 -0.45149E+06
 0.37670002E+02 -0.13367E+05
 0.37720001E+02  0.71441E+06
 0.37770000E+02  0.10008E+07
 0.37820000E+02  0.11045E+07
 0.37870003E+02  0.72759E+06
 0.37920002E+02 -0.13755E+06
 0.37970001E+02 -0.89656E+06
 0.38020000E+02 -0.16383E+07
 0.38070000E+02 -0.18372E+07
 0.38120003E+02 -0.12293E+07
 0.38170002E+02 -0.47008E+06
 0.38220001E+02  0.28990E+06
 0.38270000E+02  0.90342E+06
 0.38320000E+02  0.59840E+06
 0.38370003E+02 -0.15299E+06
 0.38420002E+02 -0.54281E+06
 0.38470001E+02 -0.11283E+07
 0.38520000E+02 -0.16497E+07
 0.38570000E+02 -0.15545E+07
 0.38620003E+02 -0.98627E+06
 0.38670002E+02 -0.20161E+05
 0.38720001E+02  0.57800E+06
 0.38770000E+02  0.44648E+06
 0.38820000E+02  0.90385E+05
 0.38870003E+02 -0.74241E+06
 0.38920002E+02 -0.14304E+07
 0.38970001E+02 -0.14453E+07
 0.39020000E+02 -0.14678E+07
 0.39070000E+02 -0.12990E+07
 0.39120003E+02 -0.12278E+07
 0.39170002E+02 -0.15256E+07
 0.39220001E+02 -0.16828E+07
 0.39270000E+02 -0.15197E+07
 0.39320000E+02 -0.11750E+07
 0.39370003E+02 -0.78226E+06
 0.39420002E+02 -0.57272E+06
 0.39470001E+02 -0.95466E+06
 0.39520000E+02 -0.14919E+07
 0.39570000E+02 -0.17565E+07
 0.39620003E+02 -0.18339E+07
 0.39670002E+02 -0.15444E+07
 0.39720001E+02 -0.84405E+06
 0.39770000E+02 -0.16470E+06
 0.39820000E+02  0.24569E+06
 0.39870003E+02  0.52713E+06
 0.39920002E+02  0.56610E+06
 0.39970001E+02  0.47780E+06
 0.40020000E+02  0.66769E+06
 0.40070000E+02  0.61523E+06
 0.40120003E+02  0.15353E+06
 0.40170002E+02 -0.64683E+05
 0.40220001E+02 -0.24800E+06
 0.40270000E+02 -0.11920E+06
 0.40320000E+02  0.45146E+06
 0.40370003E+02  0.13252E+07
 0.40420002E+02  0.25299E+07
 0.40470001E+02  0.31762E+07
 0.40520000E+02  0.33970E+07
 0.40570000E+02  0.30940E+07
 0.40620003E+02  0.24198E+07
 0.40670002E+02  0.24431E+07
 0.40720001E+02  0.28107E+07
 0.40770000E+02  0.32096E+07
 0.40820000E+02  0.34567E+07
 0.40870003E+02  0.36242E+07
 0.40920002E+02  0.37479E+07
 0.40970001E+02  0.33285E+07
 0.41020000E+02  0.26927E+07
 0.41070000E+02  0.19965E+07
 0.41120003E+02  0.92427E+06
 0.41170002E+02 -0.32290E+06
 0.41220001E+02 -0.11711E+07
 0.41270000E+02 -0.17249E+07
 0.41320000E+02 -0.20476E+07
 0.41370003E+02 -0.18610E+07
 0.41420002E+02 -0.13873E+07
 0.41470001E+02 -0.75252E+06
 0.41520000E+02 -0.66475E+06
 0.41570000E+02 -0.98184E+06
 0.41620003E+02 -0.94172E+06
 0.41670002E+02 -0.13316E+07
 0.41720001E+02 -0.20876E+07
 0.41770000E+02 -0.24469E+07
 0.41820000E+02 -0.25195E+07
 0.41870003E+02 -0.23564E+07
 0.41920002E+02 -0.18649E+07
 0.41970001E+02 -0.14477E+07
 0.42020000E+02 -0.14849E+07
 0.42070000E+02 -0.14432E+07
 0.42120003E+02 -0.10861E+07
 0.42170002E+02 -0.88458E+06
 0.42220001E+02 -0.95693E+06
 0.42270000E+02 -0.10847E+07
 0.42320000E+02 -0.13606E+07
 0.42370003E+02 -0.16325E+07
 0.42420002E+02 -0.12390E+07
 0.42470001E+02 -0.63063E+06
 0.42520000E+02 -0.31564E+06
 0.42570000E+02  0.17478E+06
 0.42620003E+02  0.69809E+06
 0.42670002E+02  0.80014E+06
 0.42720001E+02  0.66117E+06
 0.42770000E+02  0.65089E+06
 0.42820000E+02  0.50262E+06
 0.42870003E+02 -0.37825E+05
 0.42920002E+02 -0.40108E+06
 0.42970001E+02 -0.62812E+06
 0.43020000E+02 -0.79132E+06
 0.43070000E+02 -0.43704E+06
 0.43120003E+02 -0.39179E+05
 0.43170002E+02  0.28010E+06
 0.43220001E+02  0.69472E+06
 0.43270000E+02  0.99420E+06
 0.43320000E+02  0.10806E+07
 0.43370003E+02  0.70473E+06
 0.43420002E+02  0.16541E+05
 0.43470001E+02 -0.65580E+06
 0.43520000E+02 -0.10365E+07
 0.43570000E+02 -0.10809E+07
 0.43620003E+02 -0.10936E+07
 0.43670002E+02 -0.11869E+07
 0.43720001E+02 -0.12134E+07
 0.43770000E+02 -0.11025E+07
 0.43820000E+02 -0.97033E+06
 0.43870003E+02 -0.69861E+06
 0.43920002E+02 -0.42890E+06
 0.43970001E+02 -0.17657E+06
 0.44020000E+02  0.40811E+05
 0.44070000E+02 -0.22624E+06
 0.44120003E+02 -0.54430E+06
 0.44170002E+02 -0.55655E+06
 0.44220001E+02 -0.32227E+06
 0.44270000E+02  0.23262E+06
 0.44320000E+02  0.81875E+06
 0.44370003E+02  0.14037E+07
 0.44420002E+02  0.17813E+07
 0.44470001E+02  0.17198E+07
 0.44520000E+02  0.15239E+07
 0.44570000E+02  0.12402E+07
 0.44620003E+02  0.91874E+06
 0.44670002E+02  0.58085E+06
 0.44720001E+02  0.21547E+06
 0.44770000E+02  0.18032E+06
 0.44820000E+02  0.37585E+06
 0.44870003E+02  0.48526E+06
 0.44920002E+02  0.33743E+06
 0.44970001E+02 -0.23133E+06
 0.45020000E+02 -0.80173E+06
 0.45070000E+02 -0.90956E+06
 0.45120003E+02 -0.58853E+06
 0.45170002E+02 -0.22776E+06
 0.45220001E+02 -0.11759E+06
 0.45270000E+02 -0.30671E+06
 0.45320000E+02 -0.29109E+06
 0.45370003E+02  0.18464E+06
 0.45420002E+02  0.55576E+06
 0.45470001E+02  0.80470E+06
 0.45520000E+02  0.73131E+06
 0.45570000E+02  0.33601E+06
 0.45620003E+02  0.78705E+05
 0.45670002E+02 -0.95465E+05
 0.45720001E+02 -0.11650E+05
 0.45770000E+02  0.29878E+06
 0.45820000E+02  0.32804E+06
 0.45870003E+02  0.32030E+06
 0.45920002E+02  0.63054E+06
 0.45970001E+02  0.73794E+06
 0.46020000E+02  0.66943E+06
 0.46070000E+02  0.75873E+06
 0.46120003E+02  0.93393E+06
 0.46170002E+02  0.11121E+07
 0.46220001E+02  0.13134E+07
 0.46270000E+02  0.15370E+07
 0.46320000E+02  0.13121E+07
 0.46370003E+02  0.80519E+06
 0.46420002E+02  0.48530E+06
 0.46470001E+02  0.25098E+06
 0.46520000E+02  0.20169E+06
 0.46570000E+02  0.27205E+06
 0.46620003E+02 -0.22540E+04
 0.46670002E+02 -0.46331E+06
 0.46720001E+02 -0.62998E+06
 0.46770000E+02 -0.84788E+06
 0.46820000E+02 -0.11787E+07
 0.46870003E+02 -0.14313E+07
 0.46920002E+02 -0.17813E+07
 0.46970001E+02 -0.19278E+07
 0.47020000E+02 -0.19156E+07
 0.47070000E+02 -0.21236E+07
 0.47120003E+02 -0.24148E+07
 0.47170002E+02 -0.26138E+07
 0.47220001E+02 -0.26914E+07
 0.47270000E+02 -0.26049E+07
 0.47320000E+02 -0.24054E+07
 0.47370003E+02 -0.21722E+07
 0.47420002E+02 -0.18868E+07
 0.47470001E+02 -0.14172E+07
 0.47520000E+02 -0.89604E+06
 0.47570000E+02 -0.58983E+06
 0.47620003E+02 -0.16007E+06
 0.47670002E+02  0.36941E+06
 0.47720001E+02  0.68384E+06
 0.47770000E+02  0.96404E+06
 0.47820000E+02  0.98757E+06
 0.47870003E+02  0.87546E+06
 0.47920002E+02  0.88551E+06
 0.47970001E+02  0.52849E+06
 0.48020000E+02  0.33188E+05
 0.48070000E+02 -0.90028E+05
 0.48120003E+02  0.11504E+05
 0.48170002E+02  0.15444E+06
 0.48220001E+02  0.19698E+06
 0.48270000E+02  0.10390E+06
 0.48320000E+02  0.10600E+06
 0.48370003E+02  0.34805E+06
 0.48420002E+02  0.64394E+06
 0.48470001E+02  0.91950E+06
 0.48520000E+02  0.10691E+07
 0.48570000E+02  0.11823E+07
 0.48620003E+02  0.14582E+07
 0.48670002E+02  0.14709E+07
 0.48720001E+02  0.11751E+07
 0.48770000E+02  0.77560E+06
 0.48820000E+02  0.25168E+06
 0.48870003E+02 -0.26667E+06
 0.48920002E+02 -0.55061E+06
 0.48970001E+02 -0.53122E+06
 0.49020000E+02 -0.56523E+06
 0.49070000E+02 -0.68660E+06
 0.49120003E+02 -0.92100E+06
 0.49170002E+02 -0.13168E+07
 0.49220001E+02 -0.15018E+07
 0.49270000E+02 -0.15148E+07
 0.49320000E+02 -0.15336E+07
 0.49370003E+02 -0.15919E+07
 0.49420002E+02 -0.17136E+07
 0.49470001E+02 -0.17355E+07
 0.49520000E+02 -0.16885E+07
 0.49570000E+02 -0.16285E+07
 0.49620003E+02 -0.14577E+07
 0.49670002E+02 -0.12504E+07
 0.49720001E+02 -0.11051E+07
 0.49770000E+02 -0.10739E+07
 0.49820000E+02 -0.10703E+07
 0.49870003E+02 -0.96298E+06
 0.49920002E+02 -0.74096E+06
 0.49970001E+02 -0.49142E+06
 0.50020000E+02 -0.22932E+06
 0.50070000E+02  0.61385E+05
 0.50120003E+02  0.30996E+06
 0.50170002E+02  0.58752E+06
 0.50220001E+02  0.86821E+06
 0.50270000E+02  0.11120E+07
 0.50320000E+02  0.12107E+07
 0.50370003E+02  0.11995E+07
 0.50420002E+02  0.13371E+07
 0.50470001E+02  0.15103E+07
 0.50520000E+02  0.17989E+07
 0.50570000E+02  0.22186E+07
 0.50620003E+02  0.25203E+07
 0.50670002E+02  0.27077E+07
 0.50720001E+02  0.27173E+07
 0.50770000E+02  0.26230E+07
 0.50820000E+02  0.24863E+07
 0.50870003E+02  0.21031E+07
 0.50920002E+02  0.14387E+07
 0.50970001E+02  0.78068E+06
 0.51020000E+02  0.29414E+06
 0.51070000E+02 -0.95818E+05
 0.51120003E+02 -0.37918E+06
 0.51170002E+02 -0.63963E+06
 0.51220001E+02 -0.87732E+06
 0.51270000E+02 -0.10468E+07
 0.51320000E+02 -0.11716E+07
 0.51370003E+02 -0.12393E+07
 0.51420002E+02 -0.13542E+07
 0.51470001E+02 -0.14796E+07
 0.51520000E+02 -0.15117E+07
 0.51570000E+02 -0.14604E+07
 0.51620003E+02 -0.12814E+07
 0.51670002E+02 -0.10845E+07
 0.51720001E+02 -0.11189E+07
 0.51770000E+02 -0.10931E+07
 0.51820000E+02 -0.82017E+06
 0.51870003E+02 -0.64982E+06
 0.51920002E+02 -0.50781E+06
 0.51970001E+02 -0.35213E+06
 0.52020000E+02 -0.18816E+06
 0.52070000E+02  0.11077E+06
 0.52120003E+02  0.43344E+06
 0.52170002E+02  0.77501E+06
 0.52220001E+02  0.10271E+07
 0.52270000E+02  0.10834E+07
 0.52320000E+02  0.10384E+07
 0.52370003E+02  0.95363E+06
 0.52420002E+02  0.77161E+06
 0.52470001E+02  0.61401E+06
 0.52520000E+02  0.51299E+06
 0.52570000E+02  0.33131E+06
 0.52620003E+02  0.24505E+06
 0.52670002E+02  0.95391E+05
 0.52720001E+02 -0.15749E+06
 0.52770000E+02 -0.38653E+06
 0.52820000E+02 -0.64512E+06
 0.52870003E+02 -0.83834E+06
 0.52920002E+02 -0.10514E+07
 0.52970001E+02 -0.12582E+07
 0.53020000E+02 -0.14930E+07
 0.53070000E+02 -0.15863E+07
 0.53120003E+02 -0.14171E+07
 0.53170002E+02 -0.12155E+07
 0.53220001E+02 -0.94600E+06
 0.53270000E+02 -0.80038E+06
 0.53320000E+02 -0.69161E+06
 0.53370003E+02 -0.41589E+06
 0.53420002E+02 -0.19558E+06
 0.53470001E+02 -0.21701E+05
 0.53520000E+02 -0.15901E+05
 0.53570000E+02 -0.20318E+06
 0.53620003E+02 -0.25420E+06
 0.53670002E+02 -0.15995E+06
 0.53720001E+02 -0.71171E+05
 0.53770000E+02  0.12917E+05
 0.53820000E+02  0.44867E+05
 0.53870003E+02 -0.56138E+05
 0.53920002E+02 -0.25134E+06
 0.53970001E+02 -0.53329E+06
 0.54020000E+02 -0.77345E+06
 0.54070000E+02 -0.94319E+06
 0.54120003E+02 -0.12289E+07
 0.54170002E+02 -0.14354E+07
 0.54220001E+02 -0.14462E+07
 0.54270000E+02 -0.13021E+07
 0.54320000E+02 -0.10399E+07
 0.54370003E+02 -0.89990E+06
 0.54420002E+02 -0.88959E+06
 0.54470001E+02 -0.81613E+06
 0.54520000E+02 -0.49978E+06
 0.54570000E+02  0.15397E+05
 0.54620003E+02  0.56413E+06
 0.54670002E+02  0.11000E+07
 0.54720001E+02  0.14865E+07
 0.54770000E+02  0.16778E+07
 0.54820000E+02  0.17746E+07
 0.54870003E+02  0.17993E+07
 0.54920002E+02  0.18285E+07
 0.54970001E+02  0.19282E+07
 0.55020000E+02  0.20684E+07
 0.55070000E+02  0.22443E+07
 0.55120003E+02  0.24231E+07
 0.55170002E+02  0.24986E+07
 0.55220001E+02  0.23279E+07
 0.55270000E+02  0.19202E+07
 0.55320000E+02  0.14220E+07
 0.55370003E+02  0.85661E+06
 0.55420002E+02  0.28645E+06
 0.55470001E+02 -0.15203E+06
 0.55520000E+02 -0.63290E+06
 0.55570000E+02 -0.12382E+07
 0.55620003E+02 -0.17386E+07
 0.55670002E+02 -0.21480E+07
 0.55720001E+02 -0.25154E+07
 0.55770000E+02 -0.26935E+07
 0.55820000E+02 -0.27829E+07
 0.55870003E+02 -0.30087E+07
 0.55920002E+02 -0.32869E+07
 0.55970001E+02 -0.34839E+07
 0.56020000E+02 -0.35537E+07
 0.56070000E+02 -0.33982E+07
 0.56120003E+02 -0.29472E+07
 0.56170002E+02 -0.22949E+07
 0.56220001E+02 -0.17242E+07
 0.56270000E+02 -0.13011E+07
 0.56320000E+02 -0.94900E+06
 0.56370003E+02 -0.69433E+06
 0.56420002E+02 -0.40860E+06
 0.56470001E+02 -0.65435E+05
 0.56520000E+02  0.26457E+06
 0.56570000E+02  0.61360E+06
 0.56620003E+02  0.96498E+06
 0.56670002E+02  0.13005E+07
 0.56720001E+02  0.15673E+07
 0.56770000E+02  0.18239E+07
 0.56820000E+02  0.21307E+07
 0.56870003E+02  0.22864E+07
 0.56920002E+02  0.22791E+07
 0.56970001E+02  0.23117E+07
 0.57020000E+02  0.23364E+07
 0.57070000E+02  0.23129E+07
 0.57120003E+02  0.23220E+07
 0.57170002E+02  0.21785E+07
 0.57220001E+02  0.18136E+07
 0.57270000E+02  0.14193E+07
 0.57320000E+02  0.98048E+06
 0.57370003E+02  0.56798E+06
 0.57420002E+02  0.26378E+06
 0.57470001E+02 -0.87047E+05
 0.57520000E+02 -0.52416E+06
 0.57570000E+02 -0.11068E+07
 0.57620003E+02 -0.17516E+07
 0.57670002E+02 -0.21087E+07
 0.57720001E+02 -0.21752E+07
 0.57770000E+02 -0.22100E+07
 0.57820000E+02 -0.22937E+07
 0.57870003E+02 -0.23347E+07
 0.57920002E+02 -0.23022E+07
 0.57970001E+02 -0.22173E+07
 0.58020000E+02 -0.20000E+07
 0.58070000E+02 -0.16609E+07
 0.58120003E+02 -0.12739E+07
 0.58170002E+02 -0.86599E+06
 0.58220001E+02 -0.43290E+06
 0.58270000E+02  0.40200E+03
 0.58320000E+02  0.29022E+06
 0.58370003E+02  0.44731E+06
 0.58420002E+02  0.50842E+06
 0.58470001E+02  0.43039E+06
 0.58520000E+02  0.44413E+06
 0.58570000E+02  0.56579E+06
 0.58620003E+02  0.67088E+06
 0.58670002E+02  0.94211E+06
 0.58720001E+02  0.12926E+07
 0.58770000E+02  0.15356E+07
 0.58820000E+02  0.16473E+07
 0.58870003E+02  0.16353E+07
 0.58920002E+02  0.15383E+07
 0.58970001E+02  0.13297E+07
 0.59020000E+02  0.11503E+07
 0.59070000E+02  0.10555E+07
 0.59120003E+02  0.90654E+06
 0.59170002E+02  0.73040E+06
 0.59220001E+02  0.56636E+06
 0.59270000E+02  0.39475E+06
 0.59320000E+02  0.20269E+06
 0.59370003E+02  0.10613E+06
 0.59420002E+02  0.21319E+06
 0.59470001E+02  0.30874E+06
 0.59520000E+02  0.30498E+06
 0.59570000E+02  0.26578E+06
 0.59620003E+02  0.10457E+06
 0.59670002E+02 -0.10312E+06
 0.59720001E+02 -0.23608E+06
 0.59770000E+02 -0.34120E+06
 0.59820000E+02 -0.41722E+06
 0.59870003E+02 -0.42973E+06
 0.59920002E+02 -0.53448E+06
 0.59970001E+02 -0.79771E+06
 0.60020000E+02 -0.10688E+07
 0.60070000E+02 -0.12325E+07
 0.60120003E+02 -0.12616E+07
 0.60170002E+02 -0.12363E+07
 0.60220001E+02 -0.11447E+07
 0.60270000E+02 -0.97839E+06
 0.60320000E+02 -0.85675E+06
 0.60370003E+02 -0.82241E+06
 0.60420002E+02 -0.86062E+06
 0.60470001E+02 -0.92058E+06
 0.60520000E+02 -0.99557E+06
 0.60570000E+02 -0.10929E+07
 0.60620003E+02 -0.11200E+07
 0.60670002E+02 -0.10545E+07
 0.60720001E+02 -0.83086E+06
 0.60770000E+02 -0.39238E+06
 0.60820000E+02  0.67843E+05
 0.60870003E+02  0.43799E+06
 0.60920002E+02  0.69018E+06
 0.60970001E+02  0.82039E+06
 0.61020000E+02  0.88923E+06
 0.61070004E+02  0.83798E+06
 0.61119999E+02  0.67789E+06
 0.61170002E+02  0.52846E+06
 0.61220005E+02  0.42200E+06
 0.61270000E+02  0.30266E+06
 0.61320004E+02  0.12353E+06
 0.61369999E+02 -0.11624E+06
 0.61420002E+02 -0.31063E+06
 0.61470005E+02 -0.45828E+06
 0.61520000E+02 -0.66188E+06
 0.61570004E+02 -0.74290E+06
 0.61619999E+02 -0.63275E+06
 0.61670002E+02 -0.48359E+06
 0.61720005E+02 -0.39550E+06
 0.61770000E+02 -0.45039E+06
 0.61820004E+02 -0.59229E+06
 0.61869999E+02 -0.63353E+06
 0.61920002E+02 -0.52916E+06
 0.61970005E+02 -0.44886E+06
 0.62020000E+02 -0.40888E+06
 0.62070004E+02 -0.34138E+06
 0.62119999E+02 -0.25297E+06
 0.62170002E+02 -0.15604E+06
 0.62220005E+02 -0.12763E+06
 0.62270000E+02 -0.23112E+06
 0.62320004E+02 -0.42939E+06
 0.62369999E+02 -0.57618E+06
 0.62420002E+02 -0.66072E+06
 0.62470005E+02 -0.70135E+06
 0.62520000E+02 -0.59493E+06
 0.62570004E+02 -0.39380E+06
 0.62619999E+02 -0.13133E+06
 0.62670002E+02  0.15778E+06
 0.62720005E+02  0.31288E+06
 0.62770000E+02  0.37187E+06
 0.62820004E+02  0.43663E+06
 0.62869999E+02  0.45410E+06
 0.62920002E+02  0.45392E+06
 0.62970005E+02  0.50404E+06
 0.63020000E+02  0.53868E+06
 0.63070004E+02  0.49614E+06
 0.63119999E+02  0.37947E+06
 0.63170002E+02  0.21010E+06
 0.63220005E+02  0.31493E+05
 0.63270000E+02 -0.86796E+05
 0.63320004E+02 -0.13342E+06
 0.63369999E+02 -0.97028E+05
 0.63420002E+02  0.58424E+05
 0.63470005E+02  0.23272E+06
 0.63520000E+02  0.41681E+06
 0.63570004E+02  0.63421E+06
 0.63619999E+02  0.77302E+06
 0.63670002E+02  0.82956E+06
 0.63720005E+02  0.75151E+06
 0.63770000E+02  0.53435E+06
 0.63820004E+02  0.27101E+06
 0.63869999E+02 -0.64124E+05
 0.63920002E+02 -0.43802E+06
 0.63970005E+02 -0.74680E+06
 0.64019997E+02 -0.94886E+06
 0.64070000E+02 -0.10670E+07
 0.64119995E+02 -0.10765E+07
 0.64169998E+02 -0.10107E+07
 0.64220001E+02 -0.96844E+06
 0.64269997E+02 -0.93926E+06
 0.64320000E+02 -0.82701E+06
 0.64369995E+02 -0.57516E+06
 0.64419998E+02 -0.27309E+06
 0.64470001E+02 -0.21971E+05
 0.64519997E+02  0.17520E+06
 0.64570000E+02  0.34435E+06
 0.64619995E+02  0.52660E+06
 0.64669998E+02  0.80434E+06
 0.64720001E+02  0.10473E+07
 0.64769997E+02  0.10739E+07
 0.64820000E+02  0.95236E+06
 0.64869995E+02  0.69551E+06
 0.64919998E+02  0.40728E+06
 0.64970001E+02  0.25633E+06
 0.65019997E+02  0.16734E+06
 0.65070000E+02  0.92045E+05
 0.65119995E+02  0.16509E+05
 0.65169998E+02 -0.87188E+05
 0.65220001E+02 -0.13575E+06
 0.65269997E+02 -0.78469E+05
 0.65320000E+02  0.46023E+05
 0.65369995E+02  0.14329E+06
 0.65419998E+02  0.17737E+06
 0.65470001E+02  0.16258E+06
 0.65519997E+02  0.57751E+05
 0.65570000E+02 -0.81951E+05
 0.65619995E+02 -0.25855E+06
 0.65669998E+02 -0.51455E+06
 0.65720001E+02 -0.72677E+06
 0.65769997E+02 -0.86781E+06
 0.65820000E+02 -0.97535E+06
 0.65869995E+02 -0.97757E+06
 0.65919998E+02 -0.86958E+06
 0.65970001E+02 -0.73109E+06
 0.66019997E+02 -0.53681E+06
 0.66070000E+02 -0.29758E+06
 0.66119995E+02 -0.11836E+06
 0.66169998E+02 -0.14973E+05
 0.66220001E+02  0.19662E+05
 0.66269997E+02  0.42920E+05
 0.66320000E+02  0.13157E+06
 0.66369995E+02  0.22913E+06
 0.66419998E+02  0.29275E+06
 0.66470001E+02  0.37589E+06
 0.66519997E+02  0.44889E+06
 0.66570000E+02  0.44188E+06
 0.66619995E+02  0.39414E+06
 0.66669998E+02  0.32715E+06
 0.66720001E+02  0.26918E+06
 0.66769997E+02  0.30523E+06
 0.66820000E+02  0.42007E+06
 0.66869995E+02  0.53336E+06
 0.66919998E+02  0.59057E+06
 0.66970001E+02  0.59187E+06
 0.67019997E+02  0.55248E+06
 0.67070000E+02  0.48014E+06
 0.67119995E+02  0.38545E+06
 0.67169998E+02  0.23622E+06
 0.67220001E+02  0.37993E+05
 0.67269997E+02 -0.17294E+06
 0.67320000E+02 -0.33082E+06
 0.67369995E+02 -0.35969E+06
 0.67419998E+02 -0.33787E+06
 0.67470001E+02 -0.33006E+06
 0.67519997E+02 -0.33379E+06
 0.67570000E+02 -0.37821E+06
 0.67619995E+02 -0.41387E+06
 0.67669998E+02 -0.40346E+06
 0.67720001E+02 -0.35473E+06
 0.67769997E+02 -0.27014E+06
 0.67820000E+02 -0.18953E+06
 0.67869995E+02 -0.14471E+06
 0.67919998E+02 -0.19397E+06
 0.67970001E+02 -0.45050E+06
 0.68019997E+02 -0.81826E+06
 0.68070000E+02 -0.10753E+07
 0.68119995E+02 -0.12250E+07
 0.68169998E+02 -0.12824E+07
 0.68220001E+02 -0.12213E+07
 0.68269997E+02 -0.11374E+07
 0.68320000E+02 -0.10677E+07
 0.68369995E+02 -0.97840E+06
 0.68419998E+02 -0.89780E+06
 0.68470001E+02 -0.84042E+06
 0.68519997E+02 -0.76918E+06
 0.68570000E+02 -0.64189E+06
 0.68619995E+02 -0.44120E+06
 0.68669998E+02 -0.23084E+06
 0.68720001E+02 -0.87657E+05
 0.68769997E+02 -0.64560E+04
 0.68820000E+02  0.38398E+05
 0.68869995E+02  0.80424E+05
 0.68919998E+02  0.16757E+06
 0.68970001E+02  0.27454E+06
 0.69019997E+02  0.38641E+06
 0.69070000E+02  0.51110E+06
 0.69119995E+02  0.61853E+06
 0.69169998E+02  0.68639E+06
 0.69220001E+02  0.67524E+06
 0.69269997E+02  0.62223E+06
 0.69320000E+02  0.56662E+06
 0.69369995E+02  0.50670E+06
 0.69419998E+02  0.48427E+06
 0.69470001E+02  0.44690E+06
 0.69519997E+02  0.37534E+06
 0.69570000E+02  0.31103E+06
 0.69619995E+02  0.19172E+06
 0.69669998E+02 -0.32220E+04
 0.69720001E+02 -0.16801E+06
 0.69769997E+02 -0.24971E+06
 0.69820000E+02 -0.28994E+06
 0.69869995E+02 -0.25779E+06
 0.69919998E+02 -0.12549E+06
 0.69970001E+02  0.63852E+05
 0.70019997E+02  0.26835E+06
 0.70070000E+02  0.42139E+06
 0.70119995E+02  0.48050E+06
 0.70169998E+02  0.46279E+06
 0.70220001E+02  0.40108E+06
 0.70269997E+02  0.31899E+06
 0.70320000E+02  0.26136E+06
 0.70369995E+02  0.26749E+06
 0.70419998E+02  0.30829E+06
 0.70470001E+02  0.37179E+06
 0.70519997E+02  0.46040E+06
 0.70570000E+02  0.54558E+06
 0.70619995E+02  0.63877E+06
 0.70669998E+02  0.74392E+06
 0.70720001E+02  0.85132E+06
 0.70769997E+02  0.94010E+06
 0.70820000E+02  0.95771E+06
 0.70869995E+02  0.89740E+06
 0.70919998E+02  0.76522E+06
 0.70970001E+02  0.59597E+06
 0.71019997E+02  0.41070E+06
 0.71070000E+02  0.17580E+06
 0.71119995E+02 -0.10285E+06
 0.71169998E+02 -0.39863E+06
 0.71220001E+02 -0.65376E+06
 0.71269997E+02 -0.82316E+06
 0.71320000E+02 -0.88198E+06
 0.71369995E+02 -0.82346E+06
 0.71419998E+02 -0.72846E+06
 0.71470001E+02 -0.64604E+06
 0.71519997E+02 -0.58104E+06
 0.71570000E+02 -0.54029E+06
 0.71619995E+02 -0.47977E+06
 0.71669998E+02 -0.39774E+06
 0.71720001E+02 -0.34874E+06
 0.71769997E+02 -0.33124E+06
 0.71820000E+02 -0.35158E+06
 0.71869995E+02 -0.42644E+06
 0.71919998E+02 -0.48277E+06
 0.71970001E+02 -0.52710E+06
 0.72019997E+02 -0.60757E+06
 0.72070000E+02 -0.68908E+06
 0.72119995E+02 -0.74317E+06
 0.72169998E+02 -0.72430E+06
 0.72220001E+02 -0.66907E+06
 0.72269997E+02 -0.58630E+06
 0.72320000E+02 -0.42573E+06
 0.72369995E+02 -0.22839E+06
 0.72419998E+02 -0.33513E+05
 0.72470001E+02  0.12936E+06
 0.72519997E+02  0.25573E+06
 0.72570000E+02  0.30928E+06
 0.72619995E+02  0.29938E+06
 0.72669998E+02  0.28475E+06
 0.72720001E+02  0.22879E+06
 0.72769997E+02  0.16293E+06
 0.72820000E+02  0.10334E+06
 0.72869995E+02  0.27969E+05
 0.72919998E+02  0.20545E+05
 0.72970001E+02  0.64652E+05
 0.73019997E+02  0.72630E+05
 0.73070000E+02  0.61086E+05
 0.73119995E+02  0.50028E+05
 0.73169998E+02  0.45873E+05
 0.73220001E+02  0.71537E+05
 0.73269997E+02  0.10126E+06
 0.73320000E+02  0.13768E+06
 0.73369995E+02  0.18333E+06
 0.73419998E+02  0.17874E+06
 0.73470001E+02  0.13261E+06
 0.73519997E+02  0.74908E+05
 0.73570000E+02 -0.37090E+04
 0.73619995E+02 -0.10518E+06
 0.73669998E+02 -0.21153E+06
 0.73720001E+02 -0.33148E+06
 0.73769997E+02 -0.49737E+06
 0.73820000E+02 -0.66190E+06
 0.73869995E+02 -0.76687E+06
 0.73919998E+02 -0.80878E+06
 0.73970001E+02 -0.77891E+06
 0.74019997E+02 -0.69027E+06
 0.74070000E+02 -0.58707E+06
 0.74119995E+02 -0.52559E+06
 0.74169998E+02 -0.53537E+06
 0.74220001E+02 -0.57948E+06
 0.74269997E+02 -0.60527E+06
 0.74320000E+02 -0.53924E+06
 0.74369995E+02 -0.37284E+06
 0.74419998E+02 -0.17734E+06
 0.74470001E+02 -0.34980E+04
 0.74519997E+02  0.79474E+05
 0.74570000E+02  0.97719E+05
 0.74619995E+02  0.95358E+05
 0.74669998E+02  0.29443E+05
 0.74720001E+02 -0.10436E+06
 0.74769997E+02 -0.26964E+06
 0.74820000E+02 -0.34826E+06
 0.74869995E+02 -0.29907E+06
 0.74919998E+02 -0.18776E+06
 0.74970001E+02 -0.35110E+05
 0.75019997E+02  0.11602E+06
 0.75070000E+02  0.21524E+06
 0.75119995E+02  0.25528E+06
 0.75169998E+02  0.26851E+06
 0.75220001E+02  0.27802E+06
 0.75269997E+02  0.30142E+06
 0.75320000E+02  0.33414E+06
 0.75369995E+02  0.34715E+06
 0.75419998E+02  0.32518E+06
 0.75470001E+02  0.24299E+06
 0.75519997E+02  0.94668E+05
 0.75570000E+02 -0.11620E+06
 0.75619995E+02 -0.33362E+06
 0.75669998E+02 -0.48920E+06
 0.75720001E+02 -0.55723E+06
 0.75769997E+02 -0.53915E+06
 0.75820000E+02 -0.51565E+06
 0.75869995E+02 -0.49753E+06
 0.75919998E+02 -0.46157E+06
 0.75970001E+02 -0.47844E+06
 0.76019997E+02 -0.52974E+06
 0.76070000E+02 -0.56242E+06
 0.76119995E+02 -0.61176E+06
 0.76169998E+02 -0.68512E+06
 0.76220001E+02 -0.75822E+06
 0.76269997E+02 -0.82056E+06
 0.76320000E+02 -0.86859E+06
 0.76369995E+02 -0.91108E+06
 0.76419998E+02 -0.95407E+06
 0.76470001E+02 -0.96218E+06
 0.76519997E+02 -0.87883E+06
 0.76570000E+02 -0.70598E+06
 0.76619995E+02 -0.47766E+06
 0.76669998E+02 -0.22994E+06
 0.76720001E+02 -0.96880E+04
 0.76769997E+02  0.16515E+06
 0.76820000E+02  0.29193E+06
 0.76869995E+02  0.35698E+06
 0.76919998E+02  0.34676E+06
 0.76970001E+02  0.28437E+06
 0.77019997E+02  0.22285E+06
 0.77070000E+02  0.19702E+06
 0.77119995E+02  0.19573E+06
 0.77169998E+02  0.19589E+06
 0.77220001E+02  0.22555E+06
 0.77269997E+02  0.28692E+06
 0.77320000E+02  0.34749E+06
 0.77369995E+02  0.38878E+06
 0.77419998E+02  0.40131E+06
 0.77470001E+02  0.43439E+06
 0.77519997E+02  0.53106E+06
 0.77570000E+02  0.66439E+06
 0.77619995E+02  0.78876E+06
 0.77669998E+02  0.89500E+06
 0.77720001E+02  0.96848E+06
 0.77769997E+02  0.98110E+06
 0.77820000E+02  0.96521E+06
 0.77869995E+02  0.93291E+06
 0.77919998E+02  0.88229E+06
 0.77970001E+02  0.84166E+06
 0.78019997E+02  0.80969E+06
 0.78070000E+02  0.78218E+06
 0.78119995E+02  0.76068E+06
 0.78169998E+02  0.74724E+06
 0.78220001E+02  0.73457E+06
 0.78269997E+02  0.72856E+06
 0.78320000E+02  0.75613E+06
 0.78369995E+02  0.78522E+06
 0.78419998E+02  0.76253E+06
 0.78470001E+02  0.66926E+06
 0.78519997E+02  0.51940E+06
 0.78570000E+02  0.34086E+06
 0.78619995E+02  0.14754E+06
 0.78669998E+02 -0.26231E+05
 0.78720001E+02 -0.17587E+06
 0.78769997E+02 -0.32132E+06
 0.78820000E+02 -0.43265E+06
 0.78869995E+02 -0.52857E+06
 0.78919998E+02 -0.63115E+06
 0.78970001E+02 -0.68800E+06
 0.79019997E+02 -0.71442E+06
 0.79070000E+02 -0.75612E+06
 0.79119995E+02 -0.79971E+06
 0.79169998E+02 -0.82843E+06
 0.79220001E+02 -0.84219E+06
 0.79269997E+02 -0.83400E+06
 0.79320000E+02 -0.79268E+06
 0.79369995E+02 -0.73740E+06
 0.79419998E+02 -0.68700E+06
 0.79470001E+02 -0.62147E+06
 0.79519997E+02 -0.48480E+06
 0.79570000E+02 -0.26780E+06
 0.79619995E+02 -0.49202E+05
 0.79669998E+02  0.11779E+06
 0.79720001E+02  0.23109E+06
 0.79769997E+02  0.29277E+06
 0.79820000E+02  0.32503E+06
 0.79869995E+02  0.34662E+06
 0.79919998E+02  0.36126E+06
 0.79970001E+02  0.38419E+06
 0.80019997E+02  0.43159E+06
 0.80070000E+02  0.51586E+06
 0.80119995E+02  0.59052E+06
 0.80169998E+02  0.59914E+06
 0.80220001E+02  0.55915E+06
 0.80269997E+02  0.49752E+06
 0.80320000E+02  0.42182E+06
 0.80369995E+02  0.32806E+06
 0.80419998E+02  0.21620E+06
 0.80470001E+02  0.11324E+06
 0.80519997E+02  0.40638E+05
 0.80570000E+02 -0.21158E+05
 0.80619995E+02 -0.78082E+05
 0.80669998E+02 -0.13484E+06
 0.80720001E+02 -0.20031E+06
 0.80769997E+02 -0.25591E+06
 0.80820000E+02 -0.33079E+06
 0.80869995E+02 -0.43425E+06
 0.80919998E+02 -0.52304E+06
 0.80970001E+02 -0.57303E+06
 0.81019997E+02 -0.56256E+06
 0.81070000E+02 -0.51818E+06
 0.81119995E+02 -0.47642E+06
 0.81169998E+02 -0.44659E+06
 0.81220001E+02 -0.46909E+06
 0.81269997E+02 -0.51138E+06
 0.81320000E+02 -0.49489E+06
 0.81369995E+02 -0.42713E+06
 0.81419998E+02 -0.33277E+06
 0.81470001E+02 -0.24428E+06
 0.81519997E+02 -0.19402E+06
 0.81570000E+02 -0.19785E+06
 0.81619995E+02 -0.27810E+06
 0.81669998E+02 -0.40770E+06
 0.81720001E+02 -0.53105E+06
 0.81769997E+02 -0.59290E+06
 0.81820000E+02 -0.56342E+06
 0.81869995E+02 -0.44864E+06
 0.81919998E+02 -0.27764E+06
 0.81970001E+02 -0.97860E+05
 0.82019997E+02  0.69308E+05
 0.82070000E+02  0.21202E+06
 0.82119995E+02  0.34771E+06
 0.82169998E+02  0.48230E+06
 0.82220001E+02  0.57894E+06
 0.82269997E+02  0.62705E+06
 0.82320000E+02  0.63067E+06
 0.82369995E+02  0.64124E+06
 0.82419998E+02  0.68112E+06
 0.82470001E+02  0.69901E+06
 0.82519997E+02  0.68241E+06
 0.82570000E+02  0.61397E+06
 0.82619995E+02  0.48758E+06
 0.82669998E+02  0.35048E+06
 0.82720001E+02  0.20848E+06
 0.82769997E+02  0.74506E+05
 0.82820000E+02 -0.20619E+05
 0.82869995E+02 -0.92051E+05
 0.82919998E+02 -0.13278E+06
 0.82970001E+02 -0.17502E+06
 0.83019997E+02 -0.24567E+06
 0.83070000E+02 -0.28120E+06
 0.83119995E+02 -0.27705E+06
 0.83169998E+02 -0.24673E+06
 0.83220001E+02 -0.19555E+06
 0.83269997E+02 -0.17520E+06
 0.83320000E+02 -0.17945E+06
 0.83369995E+02 -0.19200E+06
 0.83419998E+02 -0.24698E+06
 0.83470001E+02 -0.33894E+06
 0.83519997E+02 -0.42950E+06
 0.83570000E+02 -0.48448E+06
 0.83619995E+02 -0.49342E+06
 0.83669998E+02 -0.46571E+06
 0.83720001E+02 -0.40004E+06
 0.83769997E+02 -0.31187E+06
 0.83820000E+02 -0.22915E+06
 0.83869995E+02 -0.16623E+06
 0.83919998E+02 -0.13427E+06
 0.83970001E+02 -0.14622E+06
 0.84019997E+02 -0.18048E+06
 0.84070000E+02 -0.18545E+06
 0.84119995E+02 -0.13802E+06
 0.84169998E+02 -0.60623E+05
 0.84220001E+02  0.25518E+05
 0.84269997E+02  0.11744E+06
 0.84320000E+02  0.19292E+06
 0.84369995E+02  0.24895E+06
 0.84419998E+02  0.30366E+06
 0.84470001E+02  0.35371E+06
 0.84519997E+02  0.39454E+06
 0.84570000E+02  0.42976E+06
 0.84619995E+02  0.45309E+06
 0.84669998E+02  0.46073E+06
 0.84720001E+02  0.45920E+06
 0.84769997E+02  0.42529E+06
 0.84820000E+02  0.35538E+06
 0.84869995E+02  0.28501E+06
 0.84919998E+02  0.23258E+06
 0.84970001E+02  0.20831E+06
 0.85019997E+02  0.18542E+06
 0.85070000E+02  0.13629E+06
 0.85119995E+02  0.10179E+06
 0.85169998E+02  0.10319E+06
 0.85220001E+02  0.11310E+06
 0.85269997E+02  0.12379E+06
 0.85320000E+02  0.12410E+06
 0.85369995E+02  0.95492E+05
 0.85419998E+02  0.43588E+05
 0.85470001E+02 -0.33544E+05
 0.85519997E+02 -0.13726E+06
 0.85570000E+02 -0.26169E+06
 0.85619995E+02 -0.41806E+06
 0.85669998E+02 -0.57849E+06
 0.85720001E+02 -0.68839E+06
 0.85769997E+02 -0.72131E+06
 0.85820000E+02 -0.68977E+06
 0.85869995E+02 -0.63554E+06
 0.85919998E+02 -0.57091E+06
 0.85970001E+02 -0.50447E+06
 0.86019997E+02 -0.44595E+06
 0.86070000E+02 -0.39758E+06
 0.86119995E+02 -0.36587E+06
 0.86169998E+02 -0.33587E+06
 0.86220001E+02 -0.29122E+06
 0.86269997E+02 -0.22731E+06
 0.86320000E+02 -0.15548E+06
 0.86369995E+02 -0.85358E+05
 0.86419998E+02 -0.24869E+05
 0.86470001E+02  0.22013E+05
 0.86519997E+02  0.55306E+05
 0.86570000E+02  0.71532E+05
 0.86619995E+02  0.89488E+05
 0.86669998E+02  0.11905E+06
 0.86720001E+02  0.16476E+06
 0.86769997E+02  0.22984E+06
 0.86820000E+02  0.28962E+06
 0.86869995E+02  0.34656E+06
 0.86919998E+02  0.41310E+06
 0.86970001E+02  0.46149E+06
 0.87019997E+02  0.48594E+06
 0.87070000E+02  0.49797E+06
 0.87119995E+02  0.50110E+06
 0.87169998E+02  0.49600E+06
 0.87220001E+02  0.45839E+06
 0.87269997E+02  0.38991E+06
 0.87320000E+02  0.30625E+06
 0.87369995E+02  0.22394E+06
 0.87419998E+02  0.16776E+06
 0.87470001E+02  0.12466E+06
 0.87519997E+02  0.10061E+06
 0.87570000E+02  0.10762E+06
 0.87619995E+02  0.12012E+06
 0.87669998E+02  0.13106E+06
 0.87720001E+02  0.13535E+06
 0.87769997E+02  0.11860E+06
 0.87820000E+02  0.85781E+05
 0.87869995E+02  0.61470E+05
 0.87919998E+02  0.68910E+05
 0.87970001E+02  0.91535E+05
 0.88019997E+02  0.11261E+06
 0.88070000E+02  0.13117E+06
 0.88119995E+02  0.12282E+06
 0.88169998E+02  0.85682E+05
 0.88220001E+02  0.41378E+05
 0.88269997E+02  0.10949E+05
 0.88320000E+02  0.29716E+05
 0.88369995E+02  0.89195E+05
 0.88419998E+02  0.15174E+06
 0.88470001E+02  0.19562E+06
 0.88519997E+02  0.20172E+06
 0.88570000E+02  0.20514E+06
 0.88619995E+02  0.22753E+06
 0.88669998E+02  0.23124E+06
 0.88720001E+02  0.21533E+06
 0.88769997E+02  0.19794E+06
 0.88820000E+02  0.18623E+06
 0.88869995E+02  0.19346E+06
 0.88919998E+02  0.23250E+06
 0.88970001E+02  0.29365E+06
 0.89019997E+02  0.34341E+06
 0.89070000E+02  0.36308E+06
 0.89119995E+02  0.36258E+06
 0.89169998E+02  0.35073E+06
 0.89220001E+02  0.32404E+06
 0.89269997E+02  0.27687E+06
 0.89320000E+02  0.18947E+06
 0.89369995E+02  0.36649E+05
 0.89419998E+02 -0.16100E+06
 0.89470001E+02 -0.36061E+06
 0.89519997E+02 -0.54909E+06
 0.89570000E+02 -0.70207E+06
 0.89619995E+02 -0.83468E+06
 0.89669998E+02 -0.98272E+06
 0.89720001E+02 -0.11017E+07
 0.89769997E+02 -0.11809E+07
 0.89820000E+02 -0.12425E+07
 0.89869995E+02 -0.12858E+07
 0.89919998E+02 -0.13221E+07
 0.89970001E+02 -0.13274E+07
 0.90019997E+02 -0.12985E+07
 0.90070000E+02 -0.12521E+07
 0.90119995E+02 -0.11736E+07
 0.90169998E+02 -0.10763E+07
 0.90220001E+02 -0.99173E+06
 0.90269997E+02 -0.94043E+06
 0.90320000E+02 -0.90571E+06
 0.90369995E+02 -0.86818E+06
 0.90419998E+02 -0.82453E+06
 0.90470001E+02 -0.74269E+06
 0.90519997E+02 -0.62616E+06
 0.90570000E+02 -0.50980E+06
 0.90619995E+02 -0.39197E+06
 0.90669998E+02 -0.27779E+06
 0.90720001E+02 -0.19494E+06
 0.90769997E+02 -0.12524E+06
 0.90820000E+02 -0.26733E+05
 0.90869995E+02  0.85836E+05
 0.90919998E+02  0.17694E+06
 0.90970001E+02  0.23699E+06
 0.91019997E+02  0.26545E+06
 0.91070000E+02  0.26919E+06
 0.91119995E+02  0.27068E+06
 0.91169998E+02  0.29104E+06
 0.91220001E+02  0.32160E+06
 0.91269997E+02  0.33769E+06
 0.91320000E+02  0.32819E+06
 0.91369995E+02  0.30082E+06
 0.91419998E+02  0.27375E+06
 0.91470001E+02  0.27240E+06
 0.91519997E+02  0.31505E+06
 0.91570000E+02  0.38681E+06
 0.91619995E+02  0.46354E+06
 0.91669998E+02  0.52763E+06
 0.91720001E+02  0.56836E+06
 0.91769997E+02  0.59840E+06
 0.91820000E+02  0.63683E+06
 0.91869995E+02  0.68001E+06
 0.91919998E+02  0.70737E+06
 0.91970001E+02  0.71736E+06
 0.92019997E+02  0.70703E+06
 0.92070000E+02  0.67478E+06
 0.92119995E+02  0.63786E+06
 0.92169998E+02  0.59108E+06
 0.92220001E+02  0.54024E+06
 0.92269997E+02  0.49490E+06
 0.92320000E+02  0.43392E+06
 0.92369995E+02  0.35489E+06
 0.92419998E+02  0.27201E+06
 0.92470001E+02  0.20386E+06
 0.92519997E+02  0.16038E+06
 0.92570000E+02  0.10768E+06
 0.92619995E+02  0.34336E+05
 0.92669998E+02 -0.33332E+05
 0.92720001E+02 -0.94985E+05
 0.92769997E+02 -0.15140E+06
 0.92820000E+02 -0.20400E+06
 0.92869995E+02 -0.25634E+06
 0.92919998E+02 -0.31038E+06
 0.92970001E+02 -0.37182E+06
 0.93019997E+02 -0.41282E+06
 0.93070000E+02 -0.41130E+06
 0.93119995E+02 -0.36860E+06
 0.93169998E+02 -0.29268E+06
 0.93220001E+02 -0.21326E+06
 0.93269997E+02 -0.14278E+06
 0.93320000E+02 -0.85775E+05
 0.93369995E+02 -0.42076E+05
 0.93419998E+02  0.10010E+04
 0.93470001E+02  0.32690E+05
 0.93519997E+02  0.59696E+05
 0.93570000E+02  0.82017E+05
 0.93619995E+02  0.75594E+05
 0.93669998E+02  0.47913E+05
 0.93720001E+02 -0.26220E+04
 0.93769997E+02 -0.77077E+05
 0.93820000E+02 -0.15616E+06
 0.93869995E+02 -0.24037E+06
 0.93919998E+02 -0.32680E+06
 0.93970001E+02 -0.39325E+06
 0.94019997E+02 -0.42401E+06
 0.94070000E+02 -0.42408E+06
 0.94119995E+02 -0.40641E+06
 0.94169998E+02 -0.37058E+06
 0.94220001E+02 -0.31780E+06
 0.94269997E+02 -0.27394E+06
 0.94320000E+02 -0.24824E+06
 0.94369995E+02 -0.22611E+06
 0.94419998E+02 -0.20089E+06
 0.94470001E+02 -0.15145E+06
 0.94519997E+02 -0.62664E+05
 0.94570000E+02  0.45713E+05
 0.94619995E+02  0.15798E+06
 0.94669998E+02  0.27639E+06
 0.94720001E+02  0.39290E+06
 0.94769997E+02  0.50844E+06
 0.94820000E+02  0.62559E+06
 0.94869995E+02  0.72538E+06
 0.94919998E+02  0.80068E+06
 0.94970001E+02  0.85200E+06
 0.95019997E+02  0.88401E+06
 0.95070000E+02  0.89476E+06
 0.95119995E+02  0.87433E+06
 0.95169998E+02  0.82534E+06
 0.95220001E+02  0.75226E+06
 0.95269997E+02  0.66580E+06
 0.95320000E+02  0.58484E+06
 0.95369995E+02  0.51640E+06
 0.95419998E+02  0.44947E+06
 0.95470001E+02  0.38919E+06
 0.95519997E+02  0.34329E+06
 0.95570000E+02  0.30435E+06
 0.95619995E+02  0.27296E+06
 0.95669998E+02  0.22810E+06
 0.95720001E+02  0.16028E+06
 0.95769997E+02  0.95649E+05
 0.95820000E+02  0.38823E+05
 0.95869995E+02 -0.10626E+05
 0.95919998E+02 -0.61217E+05
 0.95970001E+02 -0.13561E+06
 0.96019997E+02 -0.22612E+06
 0.96070000E+02 -0.32509E+06
 0.96119995E+02 -0.42790E+06
 0.96169998E+02 -0.50865E+06
 0.96220001E+02 -0.56925E+06
 0.96269997E+02 -0.62363E+06
 0.96320000E+02 -0.66832E+06
 0.96369995E+02 -0.71389E+06
 0.96419998E+02 -0.75020E+06
 0.96470001E+02 -0.75303E+06
 0.96519997E+02 -0.73252E+06
 0.96570000E+02 -0.68390E+06
 0.96619995E+02 -0.60133E+06
 0.96669998E+02 -0.51634E+06
 0.96720001E+02 -0.44290E+06
 0.96769997E+02 -0.38156E+06
 0.96820000E+02 -0.33597E+06
 0.96869995E+02 -0.29524E+06
 0.96919998E+02 -0.25975E+06
 0.96970001E+02 -0.23191E+06
 0.97019997E+02 -0.21110E+06
 0.97070000E+02 -0.21661E+06
 0.97119995E+02 -0.25581E+06
 0.97169998E+02 -0.30999E+06
 0.97220001E+02 -0.35708E+06
 0.97269997E+02 -0.38087E+06
 0.97320000E+02 -0.37355E+06
 0.97369995E+02 -0.33344E+06
 0.97419998E+02 -0.25471E+06
 0.97470001E+02 -0.13652E+06
 0.97519997E+02 -0.29200E+03
 0.97570000E+02  0.12566E+06
 0.97619995E+02  0.22146E+06
 0.97669998E+02  0.28120E+06
 0.97720001E+02  0.31565E+06
 0.97769997E+02  0.33684E+06
 0.97820000E+02  0.35135E+06
 0.97869995E+02  0.36090E+06
 0.97919998E+02  0.35846E+06
 0.97970001E+02  0.33794E+06
 0.98019997E+02  0.29908E+06
 0.98070000E+02  0.24741E+06
 0.98119995E+02  0.19825E+06
 0.98169998E+02  0.16598E+06
 0.98220001E+02  0.15220E+06
 0.98269997E+02  0.15034E+06
 0.98320000E+02  0.15076E+06
 0.98369995E+02  0.14752E+06
 0.98419998E+02  0.13724E+06
 0.98470001E+02  0.11923E+06
 0.98519997E+02  0.10166E+06
 0.98570000E+02  0.81654E+05
 0.98619995E+02  0.66616E+05
 0.98669998E+02  0.78149E+05
 0.98720001E+02  0.10627E+06
 0.98769997E+02  0.14357E+06
 0.98820000E+02  0.19562E+06
 0.98869995E+02  0.24361E+06
 0.98919998E+02  0.28187E+06
 0.98970001E+02  0.30746E+06
 0.99019997E+02  0.29706E+06
 0.99070000E+02  0.25606E+06
 0.99119995E+02  0.19006E+06
 0.99169998E+02  0.99638E+05
 0.99220001E+02  0.45480E+04
 0.99269997E+02 -0.81167E+05
 0.99320000E+02 -0.14884E+06
 0.99369995E+02 -0.20926E+06
 0.99419998E+02 -0.27615E+06
 0.99470001E+02 -0.35586E+06
 0.99519997E+02 -0.45096E+06
 0.99570000E+02 -0.53190E+06
 0.99619995E+02 -0.57997E+06
 0.99669998E+02 -0.59622E+06
 0.99720001E+02 -0.58382E+06
 0.99769997E+02 -0.56998E+06
 0.99820000E+02 -0.56394E+06
 0.99869995E+02 -0.56564E+06
 0.99919998E+02 -0.57193E+06
 0.99970001E+02 -0.55454E+06
 0.10002000E+03 -0.50960E+06
 0.10007000E+03 -0.44977E+06
 0.10012000E+03 -0.37531E+06
 0.10017000E+03 -0.27907E+06
 0.10022000E+03 -0.15661E+06
 0.10027000E+03 -0.19585E+05
 0.10032000E+03  0.11014E+06
 0.10037000E+03  0.21040E+06
 0.10042000E+03  0.27111E+06
 0.10047000E+03  0.29560E+06
 0.10052000E+03  0.29077E+06
 0.10057000E+03  0.26714E+06
 0.10062000E+03  0.23499E+06
 0.10067000E+03  0.20022E+06
 0.10072000E+03  0.16524E+06
 0.10077000E+03  0.11796E+06
 0.10082000E+03  0.55872E+05
 0.10087000E+03 -0.14720E+04
 0.10092000E+03 -0.48546E+05
 0.10097000E+03 -0.91245E+05
 0.10102000E+03 -0.13443E+06
 0.10107000E+03 -0.16743E+06
 0.10112000E+03 -0.17834E+06
 0.10117000E+03 -0.16979E+06
 0.10122000E+03 -0.12919E+06
 0.10127000E+03 -0.70515E+05
 0.10132000E+03 -0.26269E+05
 0.10137000E+03  0.96610E+04
 0.10142000E+03  0.51477E+05
 0.10147000E+03  0.11379E+06
 0.10152000E+03  0.19628E+06
 0.10157000E+03  0.26974E+06
 0.10162000E+03  0.32768E+06
 0.10167000E+03  0.38466E+06
 0.10172000E+03  0.44353E+06
 0.10177000E+03  0.50166E+06
 0.10182000E+03  0.55680E+06
 0.10187000E+03  0.60898E+06
 0.10192000E+03  0.65572E+06
 0.10197000E+03  0.68348E+06
 0.10202000E+03  0.67836E+06
 0.10207000E+03  0.63823E+06
 0.10212000E+03  0.57208E+06
 0.10217000E+03  0.50034E+06
 0.10222000E+03  0.42235E+06
 0.10227000E+03  0.31104E+06
 0.10232000E+03  0.16596E+06
 0.10237000E+03  0.62080E+04
 0.10242000E+03 -0.14332E+06
 0.10247000E+03 -0.25369E+06
 0.10252000E+03 -0.31778E+06
 0.10257000E+03 -0.34507E+06
 0.10262000E+03 -0.34978E+06
 0.10267000E+03 -0.34034E+06
 0.10272000E+03 -0.31635E+06
 0.10277000E+03 -0.26727E+06
 0.10282000E+03 -0.18245E+06
 0.10287000E+03 -0.69839E+05
 0.10292000E+03  0.47596E+05
 0.10297000E+03  0.14046E+06
 0.10302000E+03  0.19624E+06
 0.10307000E+03  0.22857E+06
 0.10312000E+03  0.26064E+06
 0.10317000E+03  0.30210E+06
 0.10322000E+03  0.34685E+06
 0.10327000E+03  0.39277E+06
 0.10332000E+03  0.43036E+06
 0.10337000E+03  0.44681E+06
 0.10342000E+03  0.45296E+06
 0.10347000E+03  0.46043E+06
 0.10352000E+03  0.46116E+06
 0.10357000E+03  0.44454E+06
 0.10362000E+03  0.41458E+06
 0.10367000E+03  0.38993E+06
 0.10372000E+03  0.37600E+06
 0.10377000E+03  0.37348E+06
 0.10382000E+03  0.38130E+06
 0.10387000E+03  0.38026E+06
 0.10392000E+03  0.37153E+06
 0.10397000E+03  0.35547E+06
 0.10402000E+03  0.31720E+06
 0.10407000E+03  0.26437E+06
 0.10412000E+03  0.20130E+06
 0.10417000E+03  0.12696E+06
 0.10422000E+03  0.47362E+05
 0.10427000E+03 -0.36341E+05
 0.10432000E+03 -0.12000E+06
 0.10437000E+03 -0.19800E+06
 0.10442000E+03 -0.26431E+06
 0.10447000E+03 -0.30404E+06
 0.10452000E+03 -0.31671E+06
 0.10457000E+03 -0.32266E+06
 0.10462000E+03 -0.33074E+06
 0.10467000E+03 -0.34851E+06
 0.10472000E+03 -0.38059E+06
 0.10477000E+03 -0.40558E+06
 0.10482000E+03 -0.40816E+06
 0.10487000E+03 -0.39558E+06
 0.10492000E+03 -0.38053E+06
 0.10497000E+03 -0.37571E+06
 0.10502000E+03 -0.38136E+06
 0.10507000E+03 -0.37612E+06
 0.10512000E+03 -0.34405E+06
 0.10517000E+03 -0.29309E+06
 0.10522000E+03 -0.23608E+06
 0.10527000E+03 -0.18289E+06
 0.10532000E+03 -0.13667E+06
 0.10537000E+03 -0.10334E+06
 0.10542000E+03 -0.98917E+05
 0.10547000E+03 -0.12185E+06
 0.10552000E+03 -0.15206E+06
 0.10557000E+03 -0.17675E+06
 0.10562000E+03 -0.19052E+06
 0.10567000E+03 -0.19284E+06
 0.10572000E+03 -0.19860E+06
 0.10577000E+03 -0.22177E+06
 0.10582000E+03 -0.24837E+06
 0.10587000E+03 -0.25704E+06
 0.10592000E+03 -0.25425E+06
 0.10597000E+03 -0.25553E+06
 0.10602000E+03 -0.26712E+06
 0.10607000E+03 -0.27882E+06
 0.10612000E+03 -0.26996E+06
 0.10617000E+03 -0.24493E+06
 0.10622000E+03 -0.21583E+06
 0.10627000E+03 -0.18256E+06
 0.10632000E+03 -0.14097E+06
 0.10637000E+03 -0.86541E+05
 0.10642000E+03 -0.24452E+05
 0.10647000E+03  0.28541E+05
 0.10652000E+03  0.61015E+05
 0.10657000E+03  0.77492E+05
 0.10662000E+03  0.77254E+05
 0.10667000E+03  0.60908E+05
 0.10672000E+03  0.32577E+05
 0.10677000E+03 -0.12342E+05
 0.10682000E+03 -0.69737E+05
 0.10687000E+03 -0.12748E+06
 0.10692000E+03 -0.17797E+06
 0.10697000E+03 -0.21384E+06
 0.10702000E+03 -0.23044E+06
 0.10707000E+03 -0.23740E+06
 0.10712000E+03 -0.23406E+06
 0.10717000E+03 -0.21343E+06
 0.10722000E+03 -0.18139E+06
 0.10727000E+03 -0.13963E+06
 0.10732000E+03 -0.99028E+05
 0.10737000E+03 -0.74811E+05
 0.10742000E+03 -0.73004E+05
 0.10747000E+03 -0.80850E+05
 0.10752000E+03 -0.74989E+05
 0.10757000E+03 -0.64946E+05
 0.10762000E+03 -0.62228E+05
 0.10767000E+03 -0.59230E+05
 0.10772000E+03 -0.53713E+05
 0.10777000E+03 -0.38639E+05
 0.10782000E+03 -0.56120E+04
 0.10787000E+03  0.40781E+05
 0.10792000E+03  0.89614E+05
 0.10797000E+03  0.13284E+06
 0.10802000E+03  0.17418E+06
 0.10807000E+03  0.22564E+06
 0.10812000E+03  0.28265E+06
 0.10817000E+03  0.33319E+06
 0.10822000E+03  0.36911E+06
 0.10827000E+03  0.38268E+06
 0.10832000E+03  0.36981E+06
 0.10837000E+03  0.33341E+06
 0.10842000E+03  0.28654E+06
 0.10847000E+03  0.23684E+06
 0.10852000E+03  0.19112E+06
 0.10857000E+03  0.15214E+06
 0.10862000E+03  0.10709E+06
 0.10867000E+03  0.49492E+05
 0.10872000E+03 -0.12184E+05
 0.10877000E+03 -0.73032E+05
 0.10882000E+03 -0.13191E+06
 0.10887000E+03 -0.17730E+06
 0.10892000E+03 -0.20372E+06
 0.10897000E+03 -0.21686E+06
 0.10902000E+03 -0.22260E+06
 0.10907000E+03 -0.22451E+06
 0.10912000E+03 -0.22070E+06
 0.10917000E+03 -0.21201E+06
 0.10922000E+03 -0.20005E+06
 0.10927000E+03 -0.17856E+06
 0.10932000E+03 -0.14428E+06
 0.10937000E+03 -0.10471E+06
 0.10942000E+03 -0.68639E+05
 0.10947000E+03 -0.42399E+05
 0.10952000E+03 -0.22748E+05
 0.10957000E+03 -0.19920E+04
 0.10962000E+03  0.19369E+05
 0.10967000E+03  0.32698E+05
 0.10972000E+03  0.26194E+05
 0.10977000E+03  0.65120E+04
 0.10982000E+03 -0.15837E+05
 0.10987000E+03 -0.44631E+05
 0.10992000E+03 -0.74019E+05
 0.10997000E+03 -0.95529E+05
 0.11002000E+03 -0.11576E+06
 0.11007000E+03 -0.13351E+06
 0.11012000E+03 -0.13552E+06
 0.11017000E+03 -0.11802E+06
 0.11022000E+03 -0.89013E+05
 0.11027000E+03 -0.68648E+05
 0.11032000E+03 -0.66456E+05
 0.11037000E+03 -0.66742E+05
 0.11042000E+03 -0.60487E+05
 0.11047000E+03 -0.53218E+05
 0.11052000E+03 -0.43644E+05
 0.11057000E+03 -0.25900E+05
 0.11062000E+03 -0.14740E+04
 0.11067000E+03  0.33019E+05
 0.11072000E+03  0.74685E+05
 0.11077000E+03  0.10644E+06
 0.11082000E+03  0.12753E+06
 0.11087000E+03  0.14032E+06
 0.11092000E+03  0.13916E+06
 0.11097000E+03  0.12815E+06
 0.11102000E+03  0.10912E+06
 0.11107000E+03  0.84624E+05
 0.11112000E+03  0.58530E+05
 0.11117000E+03  0.28426E+05
 0.11122000E+03  0.31130E+04
 0.11127000E+03 -0.11646E+05
 0.11132000E+03 -0.20221E+05
 0.11137000E+03 -0.20081E+05
 0.11142000E+03 -0.14900E+05
 0.11147000E+03 -0.16831E+05
 0.11152000E+03 -0.32057E+05
 0.11157000E+03 -0.65341E+05
 0.11162000E+03 -0.10905E+06
 0.11167000E+03 -0.14032E+06
 0.11172000E+03 -0.15826E+06
 0.11177000E+03 -0.16767E+06
 0.11182000E+03 -0.16341E+06
 0.11187000E+03 -0.15595E+06
 0.11192000E+03 -0.15150E+06
 0.11197000E+03 -0.14368E+06
 0.11202000E+03 -0.12472E+06
 0.11207000E+03 -0.93811E+05
 0.11212000E+03 -0.56644E+05
 0.11217000E+03 -0.10821E+05
 0.11222000E+03  0.38976E+05
 0.11227000E+03  0.87589E+05
 0.11232000E+03  0.14245E+06
 0.11237000E+03  0.19698E+06
 0.11242000E+03  0.23635E+06
 0.11247000E+03  0.25570E+06
 0.11252000E+03  0.24570E+06
 0.11257000E+03  0.20672E+06
 0.11262000E+03  0.15976E+06
 0.11267000E+03  0.12051E+06
 0.11272000E+03  0.10301E+06
 0.11277000E+03  0.11413E+06
 0.11282000E+03  0.13890E+06
 0.11287000E+03  0.15892E+06
 0.11292000E+03  0.16746E+06
 0.11297000E+03  0.16412E+06
 0.11302000E+03  0.15156E+06
 0.11307000E+03  0.14229E+06
 0.11312000E+03  0.14117E+06
 0.11317000E+03  0.14669E+06
 0.11322000E+03  0.15957E+06
 0.11327000E+03  0.16938E+06
 0.11332000E+03  0.17268E+06
 0.11337000E+03  0.17278E+06
 0.11342000E+03  0.16582E+06
 0.11347000E+03  0.15311E+06
 0.11352000E+03  0.14031E+06
 0.11357000E+03  0.13166E+06
 0.11362000E+03  0.13215E+06
 0.11367000E+03  0.13850E+06
 0.11372000E+03  0.14549E+06
 0.11377000E+03  0.15539E+06
 0.11382000E+03  0.16122E+06
 0.11387000E+03  0.15641E+06
 0.11392000E+03  0.13968E+06
 0.11397000E+03  0.10875E+06
 0.11402000E+03  0.76081E+05
 0.11407000E+03  0.52708E+05
 0.11412000E+03  0.29054E+05
 0.11417000E+03  0.21300E+03
 0.11422000E+03 -0.21011E+05
 0.11427000E+03 -0.36324E+05
 0.11432000E+03 -0.56018E+05
 0.11437000E+03 -0.73616E+05
 0.11442000E+03 -0.84478E+05
 0.11447000E+03 -0.88133E+05
 0.11452000E+03 -0.76283E+05
 0.11457000E+03 -0.42823E+05
 0.11462000E+03 -0.23430E+04
 0.11467000E+03  0.27641E+05
 0.11472000E+03  0.45646E+05
 0.11477000E+03  0.50576E+05
 0.11482000E+03  0.48589E+05
 0.11487000E+03  0.48698E+05
 0.11492000E+03  0.45814E+05
 0.11497000E+03  0.40486E+05
 0.11502000E+03  0.47516E+05
 0.11507000E+03  0.79475E+05
 0.11512000E+03  0.14273E+06
 0.11517000E+03  0.23413E+06
 0.11522000E+03  0.33903E+06
 0.11527000E+03  0.43467E+06
 0.11532000E+03  0.50058E+06
 0.11537000E+03  0.53874E+06
 0.11542000E+03  0.55929E+06
 0.11547000E+03  0.56152E+06
 0.11552000E+03  0.54875E+06
 0.11557000E+03  0.52934E+06
 0.11562000E+03  0.50149E+06
 0.11567000E+03  0.46440E+06
 0.11572000E+03  0.41394E+06
 0.11577000E+03  0.34753E+06
 0.11582000E+03  0.28830E+06
 0.11587000E+03  0.24683E+06
 0.11592000E+03  0.21597E+06
 0.11597000E+03  0.18770E+06
 0.11602000E+03  0.14702E+06
 0.11607000E+03  0.94695E+05
 0.11612000E+03  0.41493E+05
 0.11617000E+03 -0.65830E+04
 0.11622000E+03 -0.51531E+05
 0.11627000E+03 -0.10388E+06
 0.11632000E+03 -0.16690E+06
 0.11637000E+03 -0.23453E+06
 0.11642000E+03 -0.30275E+06
 0.11647000E+03 -0.36425E+06
 0.11652000E+03 -0.41150E+06
 0.11657000E+03 -0.44776E+06
 0.11662000E+03 -0.47499E+06
 0.11667000E+03 -0.49131E+06
 0.11672000E+03 -0.49310E+06
 0.11677000E+03 -0.47747E+06
 0.11682000E+03 -0.44562E+06
 0.11687000E+03 -0.40451E+06
 0.11692000E+03 -0.36497E+06
 0.11697000E+03 -0.33126E+06
 0.11702000E+03 -0.30557E+06
 0.11707000E+03 -0.28308E+06
 0.11712000E+03 -0.25765E+06
 0.11717000E+03 -0.23907E+06
 0.11722000E+03 -0.23362E+06
 0.11727000E+03 -0.23050E+06
 0.11732000E+03 -0.22926E+06
 0.11737000E+03 -0.23803E+06
 0.11742000E+03 -0.25633E+06
 0.11747000E+03 -0.28659E+06
 0.11752000E+03 -0.32150E+06
 0.11757000E+03 -0.35316E+06
 0.11762000E+03 -0.38379E+06
 0.11767000E+03 -0.40913E+06
 0.11772000E+03 -0.43008E+06
 0.11777000E+03 -0.45030E+06
 0.11782000E+03 -0.46857E+06
 0.11787000E+03 -0.48322E+06
 0.11792000E+03 -0.48861E+06
 0.11797000E+03 -0.48606E+06
 0.11802000E+03 -0.48168E+06
 0.11807000E+03 -0.46747E+06
 0.11812000E+03 -0.43668E+06
 0.11817000E+03 -0.39498E+06
 0.11822000E+03 -0.34666E+06
 0.11827000E+03 -0.29172E+06
 0.11832000E+03 -0.22550E+06
 0.11837000E+03 -0.14483E+06
 0.11842000E+03 -0.60379E+05
 0.11847000E+03  0.14467E+05
 0.11852000E+03  0.78495E+05
 0.11857000E+03  0.13204E+06
 0.11862000E+03  0.17536E+06
 0.11867000E+03  0.20392E+06
 0.11872000E+03  0.21225E+06
 0.11877000E+03  0.21302E+06
 0.11882000E+03  0.21347E+06
 0.11887000E+03  0.21052E+06
 0.11892000E+03  0.20625E+06
 0.11897000E+03  0.19740E+06
 0.11902000E+03  0.18142E+06
 0.11907000E+03  0.16121E+06
 0.11912000E+03  0.13368E+06
 0.11917000E+03  0.98257E+05
 0.11922000E+03  0.63554E+05
 0.11927000E+03  0.34188E+05
 0.11932000E+03  0.12674E+05
 0.11937000E+03 -0.53670E+04
 0.11942000E+03 -0.22244E+05
 0.11947000E+03 -0.21436E+05
 0.11952000E+03  0.77550E+04
 0.11957000E+03  0.62493E+05
 0.11962000E+03  0.13510E+06
 0.11967000E+03  0.20821E+06
 0.11972000E+03  0.26604E+06
 0.11977000E+03  0.31350E+06
 0.11982000E+03  0.35742E+06
 0.11987000E+03  0.38878E+06
 0.11992000E+03  0.40326E+06
 0.11997000E+03  0.40292E+06
 0.12002000E+03  0.38997E+06
 0.12007000E+03  0.37148E+06
 0.12012000E+03  0.35525E+06
 0.12017000E+03  0.33924E+06
 0.12022000E+03  0.31878E+06
 0.12027000E+03  0.29745E+06
 0.12032000E+03  0.27304E+06
 0.12037000E+03  0.24512E+06
 0.12042000E+03  0.22025E+06
 0.12047000E+03  0.20360E+06
 0.12052000E+03  0.19981E+06
 0.12057000E+03  0.20256E+06
 0.12062000E+03  0.20380E+06
 0.12067000E+03  0.19972E+06
 0.12072000E+03  0.18667E+06
 0.12077000E+03  0.16708E+06
 0.12082000E+03  0.13794E+06
 0.12087000E+03  0.93119E+05
 0.12092000E+03  0.38453E+05
 0.12097000E+03 -0.13006E+05
 0.12102000E+03 -0.57620E+05
 0.12107000E+03 -0.99203E+05
 0.12112000E+03 -0.13136E+06
 0.12117000E+03 -0.14819E+06
 0.12122000E+03 -0.14935E+06
 0.12127000E+03 -0.13587E+06
 0.12132000E+03 -0.11405E+06
 0.12137000E+03 -0.89955E+05
 0.12142000E+03 -0.70779E+05
 0.12147000E+03 -0.57679E+05
 0.12152000E+03 -0.43598E+05
 0.12157000E+03 -0.20798E+05
 0.12162000E+03  0.16527E+05
 0.12167000E+03  0.65138E+05
 0.12172000E+03  0.12140E+06
 0.12177000E+03  0.18254E+06
 0.12182000E+03  0.23609E+06
 0.12187000E+03  0.27441E+06
 0.12192000E+03  0.29789E+06
 0.12197000E+03  0.30864E+06
 0.12202000E+03  0.31148E+06
 0.12207000E+03  0.30793E+06
 0.12212000E+03  0.30383E+06
 0.12217000E+03  0.29914E+06
 0.12222000E+03  0.28241E+06
 0.12227000E+03  0.25250E+06
 0.12232000E+03  0.21362E+06
 0.12237000E+03  0.17077E+06
 0.12242000E+03  0.12605E+06
 0.12247000E+03  0.76059E+05
 0.12252000E+03  0.22504E+05
 0.12257000E+03 -0.32913E+05
 0.12262000E+03 -0.86488E+05
 0.12267000E+03 -0.13235E+06
 0.12272000E+03 -0.16998E+06
 0.12277000E+03 -0.20174E+06
 0.12282000E+03 -0.23334E+06
 0.12287000E+03 -0.26735E+06
 0.12292000E+03 -0.29735E+06
 0.12297000E+03 -0.31737E+06
 0.12302000E+03 -0.32572E+06
 0.12307000E+03 -0.32046E+06
 0.12312000E+03 -0.30149E+06
 0.12317000E+03 -0.26839E+06
 0.12322000E+03 -0.21986E+06
 0.12327000E+03 -0.15779E+06
 0.12332000E+03 -0.87446E+05
 0.12337000E+03 -0.18659E+05
 0.12342000E+03  0.37806E+05
 0.12347000E+03  0.80718E+05
 0.12352000E+03  0.11856E+06
 0.12357000E+03  0.15206E+06
 0.12362000E+03  0.18078E+06
 0.12367000E+03  0.20901E+06
 0.12372000E+03  0.23100E+06
 0.12377000E+03  0.24568E+06
 0.12382000E+03  0.25565E+06
 0.12387000E+03  0.25436E+06
 0.12392000E+03  0.23316E+06
 0.12397000E+03  0.19011E+06
 0.12402000E+03  0.13658E+06
 0.12407000E+03  0.80717E+05
 0.12412000E+03  0.31121E+05
 0.12417000E+03 -0.54150E+04
 0.12422000E+03 -0.38755E+05
 0.12427000E+03 -0.69784E+05
 0.12432000E+03 -0.92250E+05
 0.12437000E+03 -0.11396E+06
 0.12442000E+03 -0.14414E+06
 0.12447000E+03 -0.18168E+06
 0.12452000E+03 -0.22096E+06
 0.12457000E+03 -0.25206E+06
 0.12462000E+03 -0.26052E+06
 0.12467000E+03 -0.23959E+06
 0.12472000E+03 -0.19662E+06
 0.12477000E+03 -0.14524E+06
 0.12482000E+03 -0.95717E+05
 0.12487000E+03 -0.52979E+05
 0.12492000E+03 -0.16905E+05
 0.12497000E+03  0.14921E+05
 0.12502000E+03  0.42743E+05
 0.12507000E+03  0.64878E+05
 0.12512000E+03  0.76553E+05
 0.12517001E+03  0.74736E+05
 0.12521999E+03  0.57935E+05
 0.12527000E+03  0.27589E+05
 0.12532000E+03 -0.57700E+04
 0.12537000E+03 -0.34497E+05
 0.12542001E+03 -0.52856E+05
 0.12546999E+03 -0.64850E+05
 0.12552000E+03 -0.86987E+05
 0.12557000E+03 -0.12084E+06
 0.12562000E+03 -0.16297E+06
 0.12567001E+03 -0.21187E+06
 0.12571999E+03 -0.26014E+06
 0.12577000E+03 -0.30637E+06
 0.12582000E+03 -0.34462E+06
 0.12587000E+03 -0.36730E+06
 0.12592001E+03 -0.37721E+06
 0.12596999E+03 -0.37823E+06
 0.12602000E+03 -0.38193E+06
 0.12607000E+03 -0.39547E+06
 0.12612000E+03 -0.41343E+06
 0.12617001E+03 -0.42820E+06
 0.12621999E+03 -0.43014E+06
 0.12627000E+03 -0.42214E+06
 0.12632000E+03 -0.41168E+06
 0.12637000E+03 -0.39668E+06
 0.12642001E+03 -0.37443E+06
 0.12646999E+03 -0.34771E+06
 0.12652000E+03 -0.32794E+06
 0.12657000E+03 -0.31762E+06
 0.12662000E+03 -0.30315E+06
 0.12667001E+03 -0.27882E+06
 0.12671999E+03 -0.24430E+06
 0.12677000E+03 -0.19598E+06
 0.12682000E+03 -0.13686E+06
 0.12687000E+03 -0.69997E+05
 0.12692001E+03 -0.15300E+03
 0.12696999E+03  0.59568E+05
 0.12702000E+03  0.10230E+06
 0.12707000E+03  0.13022E+06
 0.12712000E+03  0.14697E+06
 0.12717001E+03  0.16000E+06
 0.12721999E+03  0.18128E+06
 0.12727000E+03  0.21656E+06
 0.12732000E+03  0.26018E+06
 0.12737000E+03  0.30470E+06
 0.12742001E+03  0.34137E+06
 0.12746999E+03  0.36716E+06
 0.12752000E+03  0.38776E+06
 0.12757000E+03  0.40166E+06
 0.12762000E+03  0.40667E+06
 0.12767001E+03  0.40535E+06
 0.12771999E+03  0.40123E+06
 0.12777000E+03  0.39919E+06
 0.12782000E+03  0.40180E+06
 0.12787000E+03  0.40611E+06
 0.12792001E+03  0.40348E+06
 0.12796999E+03  0.39206E+06
 0.12802000E+03  0.37725E+06
 0.12807001E+03  0.35889E+06
 0.12812001E+03  0.33800E+06
 0.12817001E+03  0.31742E+06
 0.12822000E+03  0.29594E+06
 0.12827000E+03  0.27442E+06
 0.12832001E+03  0.24711E+06
 0.12837001E+03  0.20693E+06
 0.12842001E+03  0.15765E+06
 0.12847000E+03  0.99718E+05
 0.12852000E+03  0.30500E+05
 0.12857001E+03 -0.49269E+05
 0.12862001E+03 -0.13189E+06
 0.12867001E+03 -0.20580E+06
 0.12872000E+03 -0.26636E+06
 0.12877000E+03 -0.31476E+06
 0.12882001E+03 -0.35922E+06
 0.12887001E+03 -0.40276E+06
 0.12892001E+03 -0.43790E+06
 0.12897000E+03 -0.46085E+06
 0.12902000E+03 -0.47069E+06
 0.12907001E+03 -0.46861E+06
 0.12912001E+03 -0.45550E+06
 0.12917001E+03 -0.43128E+06
 0.12922000E+03 -0.39944E+06
 0.12927000E+03 -0.36098E+06
 0.12932001E+03 -0.31760E+06
 0.12937001E+03 -0.27422E+06
 0.12942001E+03 -0.23242E+06
 0.12947000E+03 -0.19205E+06
 0.12952000E+03 -0.15136E+06
 0.12957001E+03 -0.10694E+06
 0.12962001E+03 -0.55786E+05
 0.12967001E+03  0.34820E+04
 0.12972000E+03  0.65567E+05
 0.12977000E+03  0.12122E+06
 0.12982001E+03  0.16564E+06
 0.12987001E+03  0.20160E+06
 0.12992001E+03  0.23484E+06
 0.12997000E+03  0.26564E+06
 0.13002000E+03  0.29080E+06
 0.13007001E+03  0.30756E+06
 0.13012001E+03  0.31562E+06
 0.13017001E+03  0.31916E+06
 0.13022000E+03  0.32530E+06
 0.13027000E+03  0.34254E+06
 0.13032001E+03  0.37218E+06
 0.13037001E+03  0.40853E+06
 0.13042001E+03  0.44601E+06
 0.13047000E+03  0.47728E+06
 0.13052000E+03  0.49829E+06
 0.13057001E+03  0.50689E+06
 0.13062001E+03  0.49922E+06
 0.13067001E+03  0.47926E+06
 0.13072000E+03  0.45118E+06
 0.13077000E+03  0.41303E+06
 0.13082001E+03  0.36706E+06
 0.13087001E+03  0.31534E+06
 0.13092001E+03  0.25992E+06
 0.13097000E+03  0.20578E+06
 0.13102000E+03  0.15309E+06
 0.13107001E+03  0.10465E+06
 0.13112001E+03  0.66354E+05
 0.13117001E+03  0.36878E+05
 0.13122000E+03  0.11724E+05
 0.13127000E+03 -0.75170E+04
 0.13132001E+03 -0.16453E+05
 0.13137001E+03 -0.15298E+05
 0.13142001E+03 -0.79230E+04
 0.13147000E+03  0.24140E+04
 0.13152000E+03  0.17359E+05
 0.13157001E+03  0.31891E+05
 0.13162001E+03  0.38495E+05
 0.13167001E+03  0.42092E+05
 0.13172000E+03  0.48592E+05
 0.13177000E+03  0.63978E+05
 0.13182001E+03  0.92990E+05
 0.13187001E+03  0.12857E+06
 0.13192001E+03  0.15737E+06
 0.13197000E+03  0.17202E+06
 0.13202000E+03  0.17122E+06
 0.13207001E+03  0.15459E+06
 0.13212001E+03  0.12705E+06
 0.13217001E+03  0.95161E+05
 0.13222000E+03  0.62917E+05
 0.13227000E+03  0.31005E+05
 0.13232001E+03 -0.17080E+04
 0.13237001E+03 -0.31303E+05
 0.13242001E+03 -0.60622E+05
 0.13247000E+03 -0.99115E+05
 0.13252000E+03 -0.14536E+06
 0.13257001E+03 -0.19623E+06
 0.13262001E+03 -0.25082E+06
 0.13267001E+03 -0.30461E+06
 0.13272000E+03 -0.35595E+06
 0.13277000E+03 -0.40408E+06
 0.13282001E+03 -0.44602E+06
 0.13287001E+03 -0.47828E+06
 0.13292001E+03 -0.49829E+06
 0.13297000E+03 -0.50374E+06
 0.13302000E+03 -0.48824E+06
 0.13307001E+03 -0.45110E+06
 0.13312001E+03 -0.40338E+06
 0.13317001E+03 -0.35622E+06
 0.13322000E+03 -0.31174E+06
 0.13327000E+03 -0.26636E+06
 0.13332001E+03 -0.21895E+06
 0.13337001E+03 -0.16643E+06
 0.13342001E+03 -0.10717E+06
 0.13347000E+03 -0.43988E+05
 0.13352000E+03  0.22062E+05
 0.13357001E+03  0.83940E+05
 0.13362001E+03  0.13122E+06
 0.13367001E+03  0.15890E+06
 0.13372000E+03  0.16855E+06
 0.13377000E+03  0.16906E+06
 0.13382001E+03  0.16714E+06
 0.13387001E+03  0.16577E+06
 0.13392001E+03  0.16984E+06
 0.13397000E+03  0.17826E+06
 0.13402000E+03  0.18587E+06
 0.13407001E+03  0.18767E+06
 0.13412001E+03  0.17892E+06
 0.13417001E+03  0.16135E+06
 0.13422000E+03  0.14207E+06
 0.13427000E+03  0.12681E+06
 0.13432001E+03  0.11532E+06
 0.13437001E+03  0.10576E+06
 0.13442001E+03  0.96344E+05
 0.13447000E+03  0.84540E+05
 0.13452000E+03  0.68603E+05
 0.13457001E+03  0.45870E+05
 0.13462001E+03  0.17010E+05
 0.13467001E+03 -0.11172E+05
 0.13472000E+03 -0.33002E+05
 0.13477000E+03 -0.45011E+05
 0.13482001E+03 -0.46148E+05
 0.13487001E+03 -0.41961E+05
 0.13492001E+03 -0.36705E+05
 0.13497000E+03 -0.28840E+05
 0.13502000E+03 -0.15371E+05
 0.13507001E+03  0.43340E+04
 0.13512001E+03  0.26489E+05
 0.13517001E+03  0.42271E+05
 0.13522000E+03  0.45623E+05
 0.13527000E+03  0.41318E+05
 0.13532001E+03  0.34126E+05
 0.13537001E+03  0.25570E+05
 0.13542001E+03  0.15482E+05
 0.13547000E+03  0.14970E+04
 0.13552000E+03 -0.13920E+05
 0.13557001E+03 -0.33051E+05
 0.13562001E+03 -0.63334E+05
 0.13567001E+03 -0.10504E+06
 0.13572000E+03 -0.15419E+06
 0.13577000E+03 -0.20222E+06
 0.13582001E+03 -0.23942E+06
 0.13587001E+03 -0.26360E+06
 0.13592001E+03 -0.28275E+06
 0.13597000E+03 -0.31015E+06
 0.13602000E+03 -0.34825E+06
 0.13607001E+03 -0.38838E+06
 0.13612001E+03 -0.42258E+06
 0.13617001E+03 -0.44226E+06
 0.13622000E+03 -0.44566E+06
 0.13627000E+03 -0.44128E+06
 0.13632001E+03 -0.43227E+06
 0.13637001E+03 -0.41792E+06
 0.13642001E+03 -0.40155E+06
 0.13647000E+03 -0.38421E+06
 0.13652000E+03 -0.36347E+06
 0.13657001E+03 -0.33645E+06
 0.13662001E+03 -0.30052E+06
 0.13667001E+03 -0.25678E+06
 0.13672000E+03 -0.20618E+06
 0.13677000E+03 -0.14825E+06
 0.13682001E+03 -0.88997E+05
 0.13687001E+03 -0.36163E+05
 0.13692001E+03  0.75370E+04
 0.13697000E+03  0.41184E+05
 0.13702000E+03  0.67947E+05
 0.13707001E+03  0.96688E+05
 0.13712001E+03  0.13154E+06
 0.13717001E+03  0.17043E+06
 0.13722000E+03  0.20815E+06
 0.13727000E+03  0.23853E+06
 0.13732001E+03  0.26008E+06
 0.13737001E+03  0.27174E+06
 0.13742001E+03  0.27648E+06
 0.13747000E+03  0.28285E+06
 0.13752000E+03  0.29187E+06
 0.13757001E+03  0.30163E+06
 0.13762001E+03  0.31221E+06
 0.13767001E+03  0.31838E+06
 0.13772000E+03  0.31945E+06
 0.13777000E+03  0.32246E+06
 0.13782001E+03  0.32953E+06
 0.13787001E+03  0.33831E+06
 0.13792001E+03  0.34429E+06
 0.13797000E+03  0.34308E+06
 0.13802000E+03  0.33578E+06
 0.13807001E+03  0.32438E+06
 0.13812001E+03  0.31113E+06
 0.13817001E+03  0.30136E+06
 0.13822000E+03  0.29313E+06
 0.13827000E+03  0.27948E+06
 0.13832001E+03  0.26096E+06
 0.13837001E+03  0.23850E+06
 0.13842001E+03  0.21032E+06
 0.13847000E+03  0.17750E+06
 0.13852000E+03  0.14018E+06
 0.13857001E+03  0.10171E+06
 0.13862001E+03  0.69399E+05
 0.13867001E+03  0.45242E+05
 0.13872000E+03  0.28383E+05
 0.13877000E+03  0.18327E+05
 0.13882001E+03  0.10671E+05
 0.13887001E+03  0.91700E+03
 0.13892001E+03 -0.10617E+05
 0.13897000E+03 -0.20772E+05
 0.13902000E+03 -0.23902E+05
 0.13907001E+03 -0.19697E+05
 0.13912001E+03 -0.11571E+05
 0.13917001E+03  0.14850E+04
 0.13922000E+03  0.15361E+05
 0.13927000E+03  0.24172E+05
 0.13932001E+03  0.26265E+05
 0.13937001E+03  0.19093E+05
 0.13942001E+03  0.50340E+04
 0.13947000E+03 -0.84080E+04
 0.13952000E+03 -0.16177E+05
 0.13957001E+03 -0.17118E+05
 0.13962001E+03 -0.10838E+05
 0.13967001E+03 -0.59400E+03
 0.13972000E+03  0.50960E+04
 0.13977000E+03  0.24090E+04
 0.13982001E+03 -0.79600E+04
 0.13987001E+03 -0.22704E+05
 0.13992001E+03 -0.35586E+05
 0.13997000E+03 -0.43244E+05
 0.14002000E+03 -0.42945E+05
 0.14007001E+03 -0.32165E+05
 0.14012001E+03 -0.12561E+05
 0.14017001E+03  0.12946E+05
 0.14022000E+03  0.40094E+05
 0.14027000E+03  0.62056E+05
 0.14032001E+03  0.76517E+05
 0.14037001E+03  0.84058E+05
 0.14042001E+03  0.84981E+05
 0.14047000E+03  0.82610E+05
 0.14052000E+03  0.78973E+05
 0.14057001E+03  0.72496E+05
 0.14062001E+03  0.61053E+05
 0.14067001E+03  0.43865E+05
 0.14072000E+03  0.25892E+05
 0.14077000E+03  0.15340E+05
 0.14082001E+03  0.13626E+05
 0.14087001E+03  0.15793E+05
 0.14092001E+03  0.12470E+05
 0.14097000E+03 -0.24060E+04
 0.14102000E+03 -0.25263E+05
 0.14107001E+03 -0.54162E+05
 0.14112001E+03 -0.85611E+05
 0.14117001E+03 -0.11053E+06
 0.14122000E+03 -0.12599E+06
 0.14127000E+03 -0.13157E+06
 0.14132001E+03 -0.12681E+06
 0.14137001E+03 -0.11638E+06
 0.14142001E+03 -0.10214E+06
 0.14147000E+03 -0.82416E+05
 0.14152000E+03 -0.55964E+05
 0.14157001E+03 -0.22169E+05
 0.14162001E+03  0.15426E+05
 0.14167001E+03  0.50083E+05
 0.14172000E+03  0.74305E+05
 0.14177000E+03  0.85600E+05
 0.14182001E+03  0.87857E+05
 0.14187001E+03  0.85359E+05
 0.14192001E+03  0.81172E+05
 0.14197000E+03  0.78114E+05
 0.14202000E+03  0.77829E+05
 0.14207001E+03  0.80131E+05
 0.14212001E+03  0.85501E+05
 0.14217001E+03  0.93785E+05
 0.14222000E+03  0.10125E+06
 0.14227000E+03  0.10493E+06
 0.14232001E+03  0.10750E+06
 0.14237001E+03  0.11245E+06
 0.14242001E+03  0.11941E+06
 0.14247000E+03  0.12614E+06
 0.14252000E+03  0.13141E+06
 0.14257001E+03  0.13554E+06
 0.14262001E+03  0.13853E+06
 0.14267001E+03  0.13975E+06
 0.14272000E+03  0.13918E+06
 0.14277000E+03  0.13647E+06
 0.14282001E+03  0.12953E+06
 0.14287001E+03  0.11852E+06
 0.14292001E+03  0.10468E+06
 0.14297000E+03  0.89800E+05
 0.14302000E+03  0.76574E+05
 0.14307001E+03  0.64048E+05
 0.14312001E+03  0.51666E+05
 0.14317001E+03  0.35481E+05
 0.14322000E+03  0.10918E+05
 0.14327000E+03 -0.18410E+05
 0.14332001E+03 -0.49172E+05
 0.14337001E+03 -0.76035E+05
 0.14342001E+03 -0.92343E+05
 0.14347000E+03 -0.10012E+06
 0.14352000E+03 -0.10312E+06
 0.14357001E+03 -0.10371E+06
 0.14362001E+03 -0.10612E+06
 0.14367001E+03 -0.11390E+06
 0.14372000E+03 -0.13032E+06
 0.14377000E+03 -0.15368E+06
 0.14382001E+03 -0.17779E+06
 0.14387001E+03 -0.19681E+06
 0.14392001E+03 -0.20657E+06
 0.14397000E+03 -0.20866E+06
 0.14402000E+03 -0.20423E+06
 0.14407001E+03 -0.19428E+06
 0.14412001E+03 -0.18279E+06
 0.14417001E+03 -0.16829E+06
 0.14422000E+03 -0.14832E+06
 0.14427000E+03 -0.12581E+06
 0.14432001E+03 -0.10412E+06
 0.14437001E+03 -0.87009E+05
 0.14442001E+03 -0.78529E+05
 0.14447000E+03 -0.76287E+05
 0.14452000E+03 -0.77168E+05
 0.14457001E+03 -0.82437E+05
 0.14462001E+03 -0.90332E+05
 0.14467001E+03 -0.99513E+05
 0.14472000E+03 -0.10982E+06
 0.14477000E+03 -0.11992E+06
 0.14482001E+03 -0.13354E+06
 0.14487001E+03 -0.15298E+06
 0.14492001E+03 -0.17403E+06
 0.14497000E+03 -0.19398E+06
 0.14502000E+03 -0.21341E+06
 0.14507001E+03 -0.23397E+06
 0.14512001E+03 -0.25614E+06
 0.14517001E+03 -0.27973E+06
 0.14522000E+03 -0.30242E+06
 0.14527000E+03 -0.31996E+06
 0.14532001E+03 -0.33253E+06
 0.14537001E+03 -0.34150E+06
 0.14542001E+03 -0.34792E+06
 0.14547000E+03 -0.35335E+06
 0.14552000E+03 -0.35904E+06
 0.14557001E+03 -0.36539E+06
 0.14562001E+03 -0.36950E+06
 0.14567001E+03 -0.37148E+06
 0.14572000E+03 -0.37096E+06
 0.14577000E+03 -0.36487E+06
 0.14582001E+03 -0.35303E+06
 0.14587001E+03 -0.33237E+06
 0.14592001E+03 -0.30193E+06
 0.14597000E+03 -0.26531E+06
 0.14602000E+03 -0.22354E+06
 0.14607001E+03 -0.17916E+06
 0.14612001E+03 -0.13755E+06
 0.14617001E+03 -0.10100E+06
 0.14622000E+03 -0.69572E+05
 0.14627000E+03 -0.42177E+05
 0.14632001E+03 -0.15621E+05
 0.14637001E+03  0.12888E+05
 0.14642001E+03  0.43815E+05
 0.14647000E+03  0.76123E+05
 0.14652000E+03  0.10973E+06
 0.14657001E+03  0.14452E+06
 0.14662001E+03  0.17694E+06
 0.14667001E+03  0.20454E+06
 0.14672000E+03  0.22670E+06
 0.14677000E+03  0.24096E+06
 0.14682001E+03  0.25121E+06
 0.14687001E+03  0.26482E+06
 0.14692001E+03  0.28392E+06
 0.14697000E+03  0.30832E+06
 0.14702000E+03  0.33378E+06
 0.14707001E+03  0.35255E+06
 0.14712001E+03  0.36016E+06
 0.14717001E+03  0.35656E+06
 0.14722000E+03  0.34470E+06
 0.14727000E+03  0.32827E+06
 0.14732001E+03  0.31086E+06
 0.14737001E+03  0.29591E+06
 0.14742001E+03  0.28521E+06
 0.14747000E+03  0.28100E+06
 0.14752000E+03  0.28194E+06
 0.14757001E+03  0.28568E+06
 0.14762001E+03  0.29151E+06
 0.14767001E+03  0.29434E+06
 0.14772000E+03  0.29416E+06
 0.14777000E+03  0.29171E+06
 0.14782001E+03  0.28292E+06
 0.14787001E+03  0.27110E+06
 0.14792001E+03  0.26059E+06
 0.14797000E+03  0.25290E+06
 0.14802000E+03  0.24910E+06
 0.14807001E+03  0.24392E+06
 0.14812001E+03  0.23144E+06
 0.14817001E+03  0.21090E+06
 0.14822000E+03  0.18179E+06
 0.14827000E+03  0.14515E+06
 0.14832001E+03  0.10578E+06
 0.14837001E+03  0.68364E+05
 0.14842001E+03  0.35094E+05
 0.14847000E+03  0.37100E+04
 0.14852000E+03 -0.27031E+05
 0.14857001E+03 -0.55217E+05
 0.14862001E+03 -0.79471E+05
 0.14867001E+03 -0.96770E+05
 0.14872000E+03 -0.10797E+06
 0.14877000E+03 -0.11570E+06
 0.14882001E+03 -0.11782E+06
 0.14887001E+03 -0.11613E+06
 0.14892001E+03 -0.11461E+06
 0.14897000E+03 -0.11642E+06
 0.14902000E+03 -0.12400E+06
 0.14907001E+03 -0.13293E+06
 0.14912001E+03 -0.13751E+06
 0.14917001E+03 -0.13377E+06
 0.14922000E+03 -0.11954E+06
 0.14927000E+03 -0.96748E+05
 0.14932001E+03 -0.67107E+05
 0.14937001E+03 -0.32357E+05
 0.14942001E+03  0.52270E+04
 0.14947000E+03  0.41994E+05
 0.14952000E+03  0.74083E+05
 0.14957001E+03  0.10104E+06
 0.14962001E+03  0.11962E+06
 0.14967001E+03  0.12956E+06
 0.14972000E+03  0.13635E+06
 0.14977000E+03  0.14034E+06
 0.14982001E+03  0.14465E+06
 0.14987001E+03  0.15378E+06
 0.14992001E+03  0.16438E+06
 0.14997000E+03  0.17604E+06
