-0.29800000E+01 -0.16927E+06
-0.29300001E+01 -0.16358E+06
-0.28800001E+01 -0.16026E+06
-0.28299999E+01 -0.15905E+06
-0.27800000E+01 -0.15914E+06
-0.27300000E+01 -0.16171E+06
-0.26800001E+01 -0.16770E+06
-0.26300001E+01 -0.17390E+06
-0.25799999E+01 -0.18082E+06
-0.25300000E+01 -0.18911E+06
-0.24800000E+01 -0.19642E+06
-0.24300001E+01 -0.20307E+06
-0.23800001E+01 -0.20633E+06
-0.23299999E+01 -0.20705E+06
-0.22800000E+01 -0.20851E+06
-0.22300000E+01 -0.20879E+06
-0.21800001E+01 -0.20735E+06
-0.21300001E+01 -0.20498E+06
-0.20799999E+01 -0.20410E+06
-0.20300000E+01 -0.20303E+06
-0.19800000E+01 -0.20050E+06
-0.19299999E+01 -0.19995E+06
-0.18800000E+01 -0.20173E+06
-0.18300000E+01 -0.20470E+06
-0.17800000E+01 -0.20650E+06
-0.17300000E+01 -0.20844E+06
-0.16799999E+01 -0.21140E+06
-0.16300000E+01 -0.21194E+06
-0.15800000E+01 -0.20959E+06
-0.15300000E+01 -0.20587E+06
-0.14800000E+01 -0.20125E+06
-0.14299999E+01 -0.19549E+06
-0.13800000E+01 -0.18945E+06
-0.13300000E+01 -0.18417E+06
-0.12800000E+01 -0.17971E+06
-0.12300000E+01 -0.17672E+06
-0.11799999E+01 -0.17560E+06
-0.11300000E+01 -0.17532E+06
-0.10800000E+01 -0.17610E+06
-0.10300000E+01 -0.17718E+06
-0.98000002E+00 -0.17854E+06
-0.93000007E+00 -0.18103E+06
-0.87999988E+00 -0.18392E+06
-0.82999992E+00 -0.18783E+06
-0.77999997E+00 -0.19197E+06
-0.73000002E+00 -0.19596E+06
-0.68000007E+00 -0.19849E+06
-0.62999988E+00 -0.20140E+06
-0.57999992E+00 -0.20519E+06
-0.52999997E+00 -0.20455E+06
-0.48000002E+00 -0.20348E+06
-0.43000007E+00 -0.20247E+06
-0.37999988E+00 -0.19913E+06
-0.32999992E+00 -0.19644E+06
-0.27999997E+00 -0.19583E+06
-0.23000002E+00 -0.19548E+06
-0.18000007E+00 -0.19356E+06
-0.12999988E+00 -0.19118E+06
-0.79999924E-01 -0.18456E+06
-0.29999971E-01 -0.18301E+06
 0.19999981E-01 -0.18419E+06
 0.69999933E-01 -0.17968E+06
 0.12000012E+00 -0.18135E+06
 0.17000008E+00 -0.18501E+06
 0.22000003E+00 -0.19025E+06
 0.26999998E+00 -0.19611E+06
 0.31999993E+00 -0.20176E+06
 0.37000012E+00 -0.21133E+06
 0.42000008E+00 -0.21862E+06
 0.47000003E+00 -0.22371E+06
 0.51999998E+00 -0.22372E+06
 0.56999993E+00 -0.22334E+06
 0.62000012E+00 -0.22458E+06
 0.67000008E+00 -0.22132E+06
 0.72000003E+00 -0.22041E+06
 0.76999998E+00 -0.22092E+06
 0.81999993E+00 -0.21559E+06
 0.87000012E+00 -0.20997E+06
 0.92000008E+00 -0.20696E+06
 0.97000003E+00 -0.20087E+06
 0.10200000E+01 -0.19203E+06
 0.10700002E+01 -0.18479E+06
 0.11199999E+01 -0.17839E+06
 0.11700001E+01 -0.17579E+06
 0.12200003E+01 -0.17577E+06
 0.12700000E+01 -0.17214E+06
 0.13200002E+01 -0.17035E+06
 0.13699999E+01 -0.16914E+06
 0.14200001E+01 -0.16849E+06
 0.14700003E+01 -0.17026E+06
 0.15200000E+01 -0.17210E+06
 0.15700002E+01 -0.17574E+06
 0.16199999E+01 -0.17839E+06
 0.16700001E+01 -0.18313E+06
 0.17200003E+01 -0.18905E+06
 0.17700000E+01 -0.19272E+06
 0.18200002E+01 -0.19726E+06
 0.18699999E+01 -0.20056E+06
 0.19200001E+01 -0.20398E+06
 0.19700003E+01 -0.20846E+06
 0.20200000E+01 -0.20996E+06
 0.20700002E+01 -0.21108E+06
 0.21199999E+01 -0.21294E+06
 0.21700001E+01 -0.21261E+06
 0.22200003E+01 -0.21273E+06
 0.22700000E+01 -0.21248E+06
 0.23200002E+01 -0.20993E+06
 0.23699999E+01 -0.20832E+06
 0.24200001E+01 -0.20690E+06
 0.24700003E+01 -0.20687E+06
 0.25200000E+01 -0.20542E+06
 0.25700002E+01 -0.20012E+06
 0.26199999E+01 -0.19702E+06
 0.26700001E+01 -0.19462E+06
 0.27200003E+01 -0.19192E+06
 0.27700000E+01 -0.18937E+06
 0.28200002E+01 -0.18718E+06
 0.28699999E+01 -0.18571E+06
 0.29200001E+01 -0.18335E+06
 0.29700003E+01 -0.17944E+06
 0.30200000E+01 -0.17575E+06
 0.30700002E+01 -0.17304E+06
 0.31199999E+01 -0.16804E+06
 0.31700001E+01 -0.16306E+06
 0.32200003E+01 -0.15727E+06
 0.32700000E+01 -0.15184E+06
 0.33200002E+01 -0.14767E+06
 0.33699999E+01 -0.14065E+06
 0.34200001E+01 -0.13558E+06
 0.34700003E+01 -0.13186E+06
 0.35200000E+01 -0.12861E+06
 0.35700002E+01 -0.12755E+06
 0.36199999E+01 -0.12643E+06
 0.36700001E+01 -0.12557E+06
 0.37200003E+01 -0.12498E+06
 0.37700000E+01 -0.12533E+06
 0.38200002E+01 -0.12781E+06
 0.38699999E+01 -0.12840E+06
 0.39200001E+01 -0.12689E+06
 0.39700003E+01 -0.13036E+06
 0.40200000E+01 -0.13205E+06
 0.40700002E+01 -0.14220E+06
 0.41199999E+01 -0.13380E+06
 0.41700001E+01 -0.14916E+06
 0.42200003E+01 -0.14460E+06
 0.42700000E+01 -0.14921E+06
 0.43200002E+01 -0.16252E+06
 0.43699999E+01 -0.14412E+06
 0.44200001E+01 -0.18437E+06
 0.44700003E+01 -0.13116E+06
 0.45200000E+01 -0.20181E+06
 0.45700002E+01 -0.13657E+06
 0.46199999E+01 -0.22336E+06
 0.46700001E+01 -0.20076E+06
 0.47200003E+01 -0.16989E+06
 0.47700000E+01 -0.26628E+06
 0.48200002E+01 -0.14489E+05
 0.48699999E+01 -0.32700E+03
 0.49200001E+01  0.36984E+07
 0.49700003E+01  0.89959E+07
 0.50200000E+01  0.72575E+07
 0.50700002E+01  0.19524E+06
 0.51200004E+01 -0.38880E+06
 0.51700006E+01  0.67861E+07
 0.52199998E+01  0.41230E+07
 0.52700000E+01 -0.32514E+07
 0.53200002E+01  0.97900E+06
 0.53700004E+01 -0.22891E+06
 0.54200006E+01 -0.56225E+07
 0.54699998E+01  0.18108E+06
 0.55200000E+01  0.21532E+07
 0.55700002E+01 -0.11988E+07
 0.56200004E+01  0.15052E+07
 0.56700006E+01  0.44310E+07
 0.57199998E+01  0.63647E+07
 0.57700000E+01  0.18373E+08
 0.58200002E+01  0.23217E+08
 0.58700004E+01  0.12000E+08
 0.59200006E+01  0.91135E+07
 0.59699998E+01  0.53151E+05
 0.60200000E+01 -0.47277E+07
 0.60700002E+01  0.89129E+07
 0.61200004E+01  0.58394E+07
 0.61700006E+01 -0.19013E+07
 0.62199998E+01  0.26190E+07
 0.62700000E+01  0.10852E+08
 0.63200002E+01  0.18684E+07
 0.63700004E+01 -0.11463E+08
 0.64200006E+01 -0.42879E+07
 0.64699998E+01 -0.11735E+07
 0.65200000E+01 -0.27878E+07
 0.65700002E+01 -0.15974E+07
 0.66200004E+01  0.11635E+08
 0.66700006E+01  0.32713E+07
 0.67199998E+01 -0.17382E+08
 0.67700000E+01 -0.33195E+07
 0.68200002E+01 -0.28055E+07
 0.68700004E+01  0.61487E+06
 0.69200006E+01  0.77896E+07
 0.69699998E+01  0.31418E+07
 0.70200000E+01  0.91474E+07
 0.70700002E+01 -0.82570E+06
 0.71200004E+01 -0.80640E+07
 0.71700006E+01 -0.11036E+08
 0.72199998E+01 -0.14420E+08
 0.72700000E+01 -0.41756E+07
 0.73200002E+01  0.65322E+07
 0.73700004E+01  0.64947E+07
 0.74200006E+01 -0.95948E+07
 0.74699998E+01 -0.71764E+07
 0.75200000E+01  0.43529E+06
 0.75700002E+01 -0.12915E+08
 0.76200004E+01 -0.18278E+07
 0.76700006E+01  0.63088E+07
 0.77199998E+01 -0.12249E+08
 0.77700000E+01 -0.94833E+07
 0.78200002E+01 -0.26204E+07
 0.78700004E+01 -0.74038E+07
 0.79200006E+01 -0.35576E+07
 0.79699998E+01  0.40860E+07
 0.80200005E+01  0.36159E+07
 0.80699997E+01  0.33305E+07
 0.81200008E+01  0.33398E+07
 0.81700001E+01 -0.12943E+08
 0.82199993E+01 -0.10483E+08
 0.82700005E+01  0.65613E+07
 0.83199997E+01  0.10736E+07
 0.83700008E+01  0.15923E+07
 0.84200001E+01  0.72788E+07
 0.84699993E+01 -0.52368E+07
 0.85200005E+01 -0.22817E+08
 0.85699997E+01 -0.24764E+08
 0.86200008E+01 -0.18670E+08
 0.86700001E+01 -0.17172E+08
 0.87199993E+01 -0.12261E+08
 0.87700005E+01 -0.12630E+08
 0.88199997E+01 -0.25159E+08
 0.88700008E+01 -0.27833E+08
 0.89200001E+01 -0.31394E+08
 0.89699993E+01 -0.33650E+08
 0.90200005E+01 -0.25330E+08
 0.90699997E+01 -0.32425E+08
 0.91200008E+01 -0.28435E+08
 0.91700001E+01 -0.15674E+08
 0.92199993E+01 -0.15867E+08
 0.92700005E+01 -0.11841E+08
 0.93199997E+01 -0.66396E+07
 0.93700008E+01 -0.47335E+07
 0.94200001E+01 -0.34412E+07
 0.94699993E+01 -0.78860E+07
 0.95200005E+01 -0.14013E+08
 0.95699997E+01 -0.83922E+07
 0.96200008E+01 -0.32385E+06
 0.96700001E+01 -0.27551E+07
 0.97199993E+01 -0.12194E+08
 0.97700005E+01 -0.16992E+08
 0.98199997E+01 -0.18050E+08
 0.98700008E+01 -0.18335E+08
 0.99200001E+01 -0.14888E+08
 0.99699993E+01 -0.13205E+08
 0.10020000E+02 -0.35649E+07
 0.10070000E+02  0.37593E+07
 0.10120001E+02  0.48572E+07
 0.10170000E+02  0.92619E+07
 0.10219999E+02 -0.80182E+07
 0.10270000E+02 -0.14228E+08
 0.10320000E+02 -0.64337E+06
 0.10370001E+02 -0.27417E+07
 0.10420000E+02 -0.79524E+07
 0.10469999E+02 -0.15600E+08
 0.10520000E+02 -0.19247E+08
 0.10570000E+02 -0.23581E+08
 0.10620001E+02 -0.28970E+08
 0.10670000E+02 -0.21749E+08
 0.10719999E+02 -0.14354E+08
 0.10770000E+02 -0.14681E+08
 0.10820000E+02 -0.19783E+08
 0.10870001E+02 -0.19337E+08
 0.10920000E+02 -0.19239E+08
 0.10969999E+02 -0.22327E+08
 0.11020000E+02 -0.23002E+08
 0.11070000E+02 -0.25511E+08
 0.11120001E+02 -0.23466E+08
 0.11170000E+02 -0.33034E+08
 0.11219999E+02 -0.31394E+08
 0.11270000E+02 -0.18995E+08
 0.11320000E+02 -0.34358E+08
 0.11370001E+02 -0.36462E+08
 0.11420000E+02 -0.35125E+08
 0.11469999E+02 -0.34209E+08
 0.11520000E+02 -0.27882E+08
 0.11570000E+02 -0.37703E+08
 0.11620001E+02 -0.38907E+08
 0.11670000E+02 -0.38274E+08
 0.11719999E+02 -0.39184E+08
 0.11770000E+02 -0.38237E+08
 0.11820000E+02 -0.39134E+08
 0.11870001E+02 -0.38393E+08
 0.11920000E+02 -0.38952E+08
 0.11969999E+02 -0.38598E+08
 0.12020000E+02 -0.38736E+08
 0.12070000E+02 -0.38810E+08
 0.12120001E+02 -0.38665E+08
 0.12170000E+02 -0.38796E+08
 0.12219999E+02 -0.38728E+08
 0.12270000E+02 -0.38821E+08
 0.12320000E+02 -0.38707E+08
 0.12370001E+02 -0.38842E+08
 0.12420000E+02 -0.38910E+08
 0.12469999E+02 -0.38885E+08
 0.12520000E+02 -0.38782E+08
 0.12570000E+02 -0.38773E+08
 0.12620001E+02 -0.38620E+08
 0.12670000E+02 -0.38695E+08
 0.12719999E+02 -0.38771E+08
 0.12770000E+02 -0.38670E+08
 0.12820000E+02 -0.38896E+08
 0.12870001E+02 -0.38552E+08
 0.12920000E+02 -0.39150E+08
 0.12969999E+02 -0.37942E+08
 0.13020000E+02 -0.36740E+08
 0.13070002E+02 -0.38773E+08
 0.13120001E+02 -0.38842E+08
 0.13170000E+02 -0.38631E+08
 0.13220001E+02 -0.38885E+08
 0.13270000E+02 -0.38681E+08
 0.13320002E+02 -0.38885E+08
 0.13370001E+02 -0.38584E+08
 0.13420000E+02 -0.38802E+08
 0.13470001E+02 -0.38736E+08
 0.13520000E+02 -0.38899E+08
 0.13570002E+02 -0.38956E+08
 0.13620001E+02 -0.38791E+08
 0.13670000E+02 -0.39101E+08
 0.13720001E+02 -0.35086E+08
 0.13770000E+02 -0.33967E+08
 0.13820002E+02 -0.38395E+08
 0.13870001E+02 -0.38906E+08
 0.13920000E+02 -0.38695E+08
 0.13970001E+02 -0.38953E+08
 0.14020000E+02 -0.38870E+08
 0.14070002E+02 -0.38978E+08
 0.14120001E+02 -0.38827E+08
 0.14170000E+02 -0.38853E+08
 0.14220001E+02 -0.38931E+08
 0.14270000E+02 -0.38831E+08
 0.14320002E+02 -0.36416E+08
 0.14370001E+02 -0.36466E+08
 0.14420000E+02 -0.38973E+08
 0.14470001E+02 -0.38868E+08
 0.14520000E+02 -0.38572E+08
 0.14570002E+02 -0.38951E+08
 0.14620001E+02 -0.38994E+08
 0.14670000E+02 -0.38994E+08
 0.14720001E+02 -0.38930E+08
 0.14770000E+02 -0.38823E+08
 0.14820002E+02 -0.39003E+08
 0.14870001E+02 -0.38938E+08
 0.14920000E+02 -0.39050E+08
 0.14970001E+02 -0.38694E+08
 0.15020000E+02 -0.38819E+08
 0.15070002E+02 -0.38746E+08
 0.15120001E+02 -0.38576E+08
 0.15170000E+02 -0.39315E+08
 0.15220001E+02 -0.36499E+08
 0.15270000E+02 -0.36895E+08
 0.15320002E+02 -0.39440E+08
 0.15370001E+02 -0.38556E+08
 0.15420000E+02 -0.38883E+08
 0.15470001E+02 -0.38849E+08
 0.15520000E+02 -0.38939E+08
 0.15570002E+02 -0.39044E+08
 0.15620001E+02 -0.38857E+08
 0.15670000E+02 -0.38934E+08
 0.15720001E+02 -0.38809E+08
 0.15770000E+02 -0.38996E+08
 0.15820002E+02 -0.38890E+08
 0.15870001E+02 -0.38841E+08
 0.15920000E+02 -0.38804E+08
 0.15970001E+02 -0.38845E+08
 0.16020000E+02 -0.38925E+08
 0.16070002E+02 -0.38930E+08
 0.16120001E+02 -0.38900E+08
 0.16170000E+02 -0.38908E+08
 0.16220001E+02 -0.38864E+08
 0.16270000E+02 -0.38912E+08
 0.16320002E+02 -0.38908E+08
 0.16370001E+02 -0.38559E+08
 0.16420000E+02 -0.38801E+08
 0.16470001E+02 -0.38965E+08
 0.16520000E+02 -0.38822E+08
 0.16570002E+02 -0.38826E+08
 0.16620001E+02 -0.38738E+08
 0.16670000E+02 -0.38786E+08
 0.16720001E+02 -0.38755E+08
 0.16770000E+02 -0.38781E+08
 0.16820002E+02 -0.38804E+08
 0.16870001E+02 -0.38935E+08
 0.16920000E+02 -0.38909E+08
 0.16970001E+02 -0.39111E+08
 0.17020000E+02 -0.37951E+08
 0.17070002E+02 -0.34768E+08
 0.17120001E+02 -0.33776E+08
 0.17170000E+02 -0.32504E+08
 0.17220001E+02 -0.32854E+08
 0.17270000E+02 -0.37247E+08
 0.17320002E+02 -0.38664E+08
 0.17370001E+02 -0.39171E+08
 0.17420000E+02 -0.38368E+08
 0.17470001E+02 -0.36274E+08
 0.17520000E+02 -0.38032E+08
 0.17570002E+02 -0.39162E+08
 0.17620001E+02 -0.38878E+08
 0.17670000E+02 -0.39025E+08
 0.17720001E+02 -0.38865E+08
 0.17770000E+02 -0.38997E+08
 0.17820002E+02 -0.38999E+08
 0.17870001E+02 -0.39024E+08
 0.17920000E+02 -0.38925E+08
 0.17970001E+02 -0.38925E+08
 0.18020000E+02 -0.38959E+08
 0.18070002E+02 -0.38982E+08
 0.18120001E+02 -0.38956E+08
 0.18170000E+02 -0.38903E+08
 0.18220001E+02 -0.38954E+08
 0.18270000E+02 -0.38830E+08
 0.18320002E+02 -0.39058E+08
 0.18370001E+02 -0.38805E+08
 0.18420000E+02 -0.39188E+08
 0.18470001E+02 -0.37756E+08
 0.18520000E+02 -0.34502E+08
 0.18570002E+02 -0.35257E+08
 0.18620001E+02 -0.37051E+08
 0.18670000E+02 -0.37956E+08
 0.18720001E+02 -0.38583E+08
 0.18770000E+02 -0.38740E+08
 0.18820002E+02 -0.39043E+08
 0.18870001E+02 -0.38909E+08
 0.18920000E+02 -0.38891E+08
 0.18970001E+02 -0.38901E+08
 0.19020000E+02 -0.38885E+08
 0.19070002E+02 -0.38872E+08
 0.19120001E+02 -0.39004E+08
 0.19170000E+02 -0.38575E+08
 0.19220001E+02 -0.35930E+08
 0.19270000E+02 -0.34191E+08
 0.19320002E+02 -0.37037E+08
 0.19370001E+02 -0.39129E+08
 0.19420000E+02 -0.39022E+08
 0.19470001E+02 -0.38606E+08
 0.19520000E+02 -0.35806E+08
 0.19570002E+02 -0.34007E+08
 0.19620001E+02 -0.32087E+08
 0.19670000E+02 -0.29076E+08
 0.19720001E+02 -0.29492E+08
 0.19770000E+02 -0.31022E+08
 0.19820002E+02 -0.31934E+08
 0.19870001E+02 -0.33209E+08
 0.19920000E+02 -0.34708E+08
 0.19970001E+02 -0.37144E+08
 0.20020000E+02 -0.36880E+08
 0.20070002E+02 -0.33977E+08
 0.20120001E+02 -0.34051E+08
 0.20170000E+02 -0.34610E+08
 0.20220001E+02 -0.33641E+08
 0.20270000E+02 -0.33817E+08
 0.20320002E+02 -0.35537E+08
 0.20370001E+02 -0.36644E+08
 0.20420000E+02 -0.37074E+08
 0.20470001E+02 -0.38365E+08
 0.20520000E+02 -0.39013E+08
 0.20570002E+02 -0.38954E+08
 0.20620001E+02 -0.38896E+08
 0.20670000E+02 -0.37985E+08
 0.20720001E+02 -0.36235E+08
 0.20770000E+02 -0.37068E+08
 0.20820002E+02 -0.39073E+08
 0.20870001E+02 -0.38980E+08
 0.20920000E+02 -0.39002E+08
 0.20970001E+02 -0.39060E+08
 0.21020000E+02 -0.38962E+08
 0.21070002E+02 -0.38973E+08
 0.21120001E+02 -0.38973E+08
 0.21170000E+02 -0.38969E+08
 0.21220001E+02 -0.38762E+08
 0.21270000E+02 -0.36155E+08
 0.21320002E+02 -0.33100E+08
 0.21370001E+02 -0.35469E+08
 0.21420000E+02 -0.38546E+08
 0.21470001E+02 -0.38909E+08
 0.21520000E+02 -0.38909E+08
 0.21570002E+02 -0.38881E+08
 0.21620001E+02 -0.39014E+08
 0.21670000E+02 -0.38970E+08
 0.21720001E+02 -0.39113E+08
 0.21770000E+02 -0.38869E+08
 0.21820002E+02 -0.39198E+08
 0.21870001E+02 -0.37598E+08
 0.21920000E+02 -0.33515E+08
 0.21970001E+02 -0.33086E+08
 0.22020000E+02 -0.35339E+08
 0.22070002E+02 -0.36193E+08
 0.22120001E+02 -0.33850E+08
 0.22170000E+02 -0.30271E+08
 0.22220001E+02 -0.27226E+08
 0.22270000E+02 -0.26741E+08
 0.22320002E+02 -0.29139E+08
 0.22370001E+02 -0.28281E+08
 0.22420000E+02 -0.27458E+08
 0.22470001E+02 -0.28626E+08
 0.22520000E+02 -0.27684E+08
 0.22570002E+02 -0.28439E+08
 0.22620001E+02 -0.31776E+08
 0.22670000E+02 -0.33450E+08
 0.22720001E+02 -0.33327E+08
 0.22770000E+02 -0.32914E+08
 0.22820002E+02 -0.31878E+08
 0.22870001E+02 -0.32408E+08
 0.22920000E+02 -0.32628E+08
 0.22970001E+02 -0.31544E+08
 0.23020000E+02 -0.33451E+08
 0.23070002E+02 -0.35497E+08
 0.23120001E+02 -0.35536E+08
 0.23170000E+02 -0.35657E+08
 0.23220001E+02 -0.36091E+08
 0.23270000E+02 -0.37040E+08
 0.23320002E+02 -0.38538E+08
 0.23370001E+02 -0.38987E+08
 0.23420000E+02 -0.38018E+08
 0.23470001E+02 -0.37385E+08
 0.23520000E+02 -0.36653E+08
 0.23570002E+02 -0.34960E+08
 0.23620001E+02 -0.33809E+08
 0.23670000E+02 -0.32060E+08
 0.23720001E+02 -0.29664E+08
 0.23770000E+02 -0.28468E+08
 0.23820002E+02 -0.27720E+08
 0.23870001E+02 -0.28336E+08
 0.23920000E+02 -0.28983E+08
 0.23970001E+02 -0.29704E+08
 0.24020000E+02 -0.29859E+08
 0.24070002E+02 -0.28517E+08
 0.24120001E+02 -0.29822E+08
 0.24170000E+02 -0.31960E+08
 0.24220001E+02 -0.33778E+08
 0.24270000E+02 -0.35505E+08
 0.24320002E+02 -0.35189E+08
 0.24370001E+02 -0.34104E+08
 0.24420000E+02 -0.32950E+08
 0.24470001E+02 -0.31514E+08
 0.24520000E+02 -0.30190E+08
 0.24570002E+02 -0.30645E+08
 0.24620001E+02 -0.32343E+08
 0.24670000E+02 -0.32372E+08
 0.24720001E+02 -0.32785E+08
 0.24770000E+02 -0.34370E+08
 0.24820002E+02 -0.33874E+08
 0.24870001E+02 -0.32946E+08
 0.24920000E+02 -0.33120E+08
 0.24970001E+02 -0.31867E+08
 0.25020000E+02 -0.29343E+08
 0.25070002E+02 -0.27913E+08
 0.25120001E+02 -0.27417E+08
 0.25170000E+02 -0.27198E+08
 0.25220001E+02 -0.27652E+08
 0.25270000E+02 -0.27570E+08
 0.25320002E+02 -0.26439E+08
 0.25370001E+02 -0.25929E+08
 0.25420000E+02 -0.26440E+08
 0.25470001E+02 -0.26635E+08
 0.25520000E+02 -0.25959E+08
 0.25570002E+02 -0.26578E+08
 0.25620001E+02 -0.27990E+08
 0.25670000E+02 -0.27485E+08
 0.25720001E+02 -0.27810E+08
 0.25770000E+02 -0.29628E+08
 0.25820002E+02 -0.30013E+08
 0.25870001E+02 -0.29761E+08
 0.25920000E+02 -0.30916E+08
 0.25970001E+02 -0.33284E+08
 0.26020000E+02 -0.34174E+08
 0.26070002E+02 -0.33989E+08
 0.26120001E+02 -0.33761E+08
 0.26170000E+02 -0.33018E+08
 0.26220001E+02 -0.32850E+08
 0.26270000E+02 -0.30936E+08
 0.26320002E+02 -0.29186E+08
 0.26370001E+02 -0.29262E+08
 0.26420000E+02 -0.27756E+08
 0.26470001E+02 -0.27036E+08
 0.26520000E+02 -0.26384E+08
 0.26570002E+02 -0.25794E+08
 0.26620001E+02 -0.26087E+08
 0.26670000E+02 -0.25103E+08
 0.26720001E+02 -0.26011E+08
 0.26770000E+02 -0.28432E+08
 0.26820002E+02 -0.29922E+08
 0.26870001E+02 -0.31162E+08
 0.26920000E+02 -0.32250E+08
 0.26970001E+02 -0.32189E+08
 0.27020000E+02 -0.31428E+08
 0.27070002E+02 -0.30747E+08
 0.27120001E+02 -0.29136E+08
 0.27170000E+02 -0.27943E+08
 0.27220001E+02 -0.27349E+08
 0.27270000E+02 -0.25810E+08
 0.27320002E+02 -0.23962E+08
 0.27370001E+02 -0.22721E+08
 0.27420000E+02 -0.21903E+08
 0.27470001E+02 -0.21573E+08
 0.27520000E+02 -0.22580E+08
 0.27570002E+02 -0.23358E+08
 0.27620001E+02 -0.23619E+08
 0.27670000E+02 -0.24752E+08
 0.27720001E+02 -0.26471E+08
 0.27770000E+02 -0.28821E+08
 0.27820002E+02 -0.28997E+08
 0.27870001E+02 -0.27792E+08
 0.27920000E+02 -0.28422E+08
 0.27970001E+02 -0.29738E+08
 0.28020000E+02 -0.31166E+08
 0.28070002E+02 -0.30743E+08
 0.28120001E+02 -0.29592E+08
 0.28170000E+02 -0.29614E+08
 0.28220001E+02 -0.28573E+08
 0.28270000E+02 -0.27086E+08
 0.28320002E+02 -0.26388E+08
 0.28370001E+02 -0.25843E+08
 0.28420000E+02 -0.25282E+08
 0.28470001E+02 -0.24346E+08
 0.28520000E+02 -0.23668E+08
 0.28570002E+02 -0.24134E+08
 0.28620001E+02 -0.24426E+08
 0.28670000E+02 -0.24791E+08
 0.28720001E+02 -0.25027E+08
 0.28770000E+02 -0.24706E+08
 0.28820002E+02 -0.24787E+08
 0.28870001E+02 -0.25098E+08
 0.28920000E+02 -0.25770E+08
 0.28970001E+02 -0.26443E+08
 0.29020000E+02 -0.26827E+08
 0.29070000E+02 -0.26530E+08
 0.29120003E+02 -0.26420E+08
 0.29170002E+02 -0.27157E+08
 0.29220001E+02 -0.27770E+08
 0.29270000E+02 -0.28482E+08
 0.29320000E+02 -0.28779E+08
 0.29370003E+02 -0.28515E+08
 0.29420002E+02 -0.29327E+08
 0.29470001E+02 -0.30411E+08
 0.29520000E+02 -0.30681E+08
 0.29570000E+02 -0.30949E+08
 0.29620003E+02 -0.30285E+08
 0.29670002E+02 -0.29025E+08
 0.29720001E+02 -0.28120E+08
 0.29770000E+02 -0.26844E+08
 0.29820000E+02 -0.25202E+08
 0.29870003E+02 -0.23559E+08
 0.29920002E+02 -0.22279E+08
 0.29970001E+02 -0.22245E+08
 0.30020000E+02 -0.22519E+08
 0.30070000E+02 -0.22267E+08
 0.30120003E+02 -0.22427E+08
 0.30170002E+02 -0.21568E+08
 0.30220001E+02 -0.20638E+08
 0.30270000E+02 -0.20783E+08
 0.30320000E+02 -0.20669E+08
 0.30370003E+02 -0.20668E+08
 0.30420002E+02 -0.21260E+08
 0.30470001E+02 -0.21807E+08
 0.30520000E+02 -0.21285E+08
 0.30570000E+02 -0.21608E+08
 0.30620003E+02 -0.22116E+08
 0.30670002E+02 -0.22314E+08
 0.30720001E+02 -0.23657E+08
 0.30770000E+02 -0.24313E+08
 0.30820000E+02 -0.24637E+08
 0.30870003E+02 -0.24740E+08
 0.30920002E+02 -0.25129E+08
 0.30970001E+02 -0.25433E+08
 0.31020000E+02 -0.24429E+08
 0.31070000E+02 -0.24383E+08
 0.31120003E+02 -0.24878E+08
 0.31170002E+02 -0.25394E+08
 0.31220001E+02 -0.25822E+08
 0.31270000E+02 -0.25614E+08
 0.31320000E+02 -0.25003E+08
 0.31370003E+02 -0.23419E+08
 0.31420002E+02 -0.22342E+08
 0.31470001E+02 -0.21770E+08
 0.31520000E+02 -0.21159E+08
 0.31570000E+02 -0.20859E+08
 0.31620003E+02 -0.20446E+08
 0.31670002E+02 -0.20075E+08
 0.31720001E+02 -0.20021E+08
 0.31770000E+02 -0.20525E+08
 0.31820000E+02 -0.20736E+08
 0.31870003E+02 -0.20771E+08
 0.31920002E+02 -0.20315E+08
 0.31970001E+02 -0.19371E+08
 0.32020000E+02 -0.19528E+08
 0.32070000E+02 -0.20063E+08
 0.32120003E+02 -0.20273E+08
 0.32170002E+02 -0.20121E+08
 0.32220001E+02 -0.19202E+08
 0.32270000E+02 -0.17975E+08
 0.32320000E+02 -0.17190E+08
 0.32370003E+02 -0.16638E+08
 0.32420002E+02 -0.15908E+08
 0.32470001E+02 -0.15324E+08
 0.32520000E+02 -0.15162E+08
 0.32570000E+02 -0.14975E+08
 0.32620003E+02 -0.14216E+08
 0.32670002E+02 -0.13930E+08
 0.32720001E+02 -0.14935E+08
 0.32770000E+02 -0.16932E+08
 0.32820000E+02 -0.18706E+08
 0.32870003E+02 -0.19333E+08
 0.32920002E+02 -0.20331E+08
 0.32970001E+02 -0.21116E+08
 0.33020000E+02 -0.20916E+08
 0.33070000E+02 -0.20493E+08
 0.33120003E+02 -0.19399E+08
 0.33170002E+02 -0.19269E+08
 0.33220001E+02 -0.19733E+08
 0.33270000E+02 -0.19597E+08
 0.33320000E+02 -0.20151E+08
 0.33370003E+02 -0.20563E+08
 0.33420002E+02 -0.20681E+08
 0.33470001E+02 -0.20968E+08
 0.33520000E+02 -0.21335E+08
 0.33570000E+02 -0.22112E+08
 0.33620003E+02 -0.22718E+08
 0.33670002E+02 -0.23167E+08
 0.33720001E+02 -0.23163E+08
 0.33770000E+02 -0.22680E+08
 0.33820000E+02 -0.22583E+08
 0.33870003E+02 -0.22335E+08
 0.33920002E+02 -0.21508E+08
 0.33970001E+02 -0.20517E+08
 0.34020000E+02 -0.19903E+08
 0.34070000E+02 -0.19767E+08
 0.34120003E+02 -0.19915E+08
 0.34170002E+02 -0.20487E+08
 0.34220001E+02 -0.20811E+08
 0.34270000E+02 -0.20474E+08
 0.34320000E+02 -0.20242E+08
 0.34370003E+02 -0.19653E+08
 0.34420002E+02 -0.18485E+08
 0.34470001E+02 -0.17844E+08
 0.34520000E+02 -0.17516E+08
 0.34570000E+02 -0.17064E+08
 0.34620003E+02 -0.16849E+08
 0.34670002E+02 -0.16818E+08
 0.34720001E+02 -0.16746E+08
 0.34770000E+02 -0.16740E+08
 0.34820000E+02 -0.16687E+08
 0.34870003E+02 -0.16701E+08
 0.34920002E+02 -0.16973E+08
 0.34970001E+02 -0.17124E+08
 0.35020000E+02 -0.16955E+08
 0.35070000E+02 -0.16672E+08
 0.35120003E+02 -0.16487E+08
 0.35170002E+02 -0.16500E+08
 0.35220001E+02 -0.16727E+08
 0.35270000E+02 -0.17003E+08
 0.35320000E+02 -0.17266E+08
 0.35370003E+02 -0.17468E+08
 0.35420002E+02 -0.17899E+08
 0.35470001E+02 -0.18155E+08
 0.35520000E+02 -0.18129E+08
 0.35570000E+02 -0.18350E+08
 0.35620003E+02 -0.18118E+08
 0.35670002E+02 -0.17416E+08
 0.35720001E+02 -0.16660E+08
 0.35770000E+02 -0.16094E+08
 0.35820000E+02 -0.15528E+08
 0.35870003E+02 -0.15002E+08
 0.35920002E+02 -0.14775E+08
 0.35970001E+02 -0.14517E+08
 0.36020000E+02 -0.14669E+08
 0.36070000E+02 -0.14990E+08
 0.36120003E+02 -0.15360E+08
 0.36170002E+02 -0.16416E+08
 0.36220001E+02 -0.17124E+08
 0.36270000E+02 -0.16947E+08
 0.36320000E+02 -0.17265E+08
 0.36370003E+02 -0.17603E+08
 0.36420002E+02 -0.17268E+08
 0.36470001E+02 -0.17100E+08
 0.36520000E+02 -0.16895E+08
 0.36570000E+02 -0.16600E+08
 0.36620003E+02 -0.16521E+08
 0.36670002E+02 -0.16924E+08
 0.36720001E+02 -0.17066E+08
 0.36770000E+02 -0.16446E+08
 0.36820000E+02 -0.15914E+08
 0.36870003E+02 -0.15683E+08
 0.36920002E+02 -0.15877E+08
 0.36970001E+02 -0.15614E+08
 0.37020000E+02 -0.15201E+08
 0.37070000E+02 -0.15309E+08
 0.37120003E+02 -0.15351E+08
 0.37170002E+02 -0.15774E+08
 0.37220001E+02 -0.16132E+08
 0.37270000E+02 -0.16338E+08
 0.37320000E+02 -0.16522E+08
 0.37370003E+02 -0.16577E+08
 0.37420002E+02 -0.16633E+08
 0.37470001E+02 -0.16501E+08
 0.37520000E+02 -0.16713E+08
 0.37570000E+02 -0.16999E+08
 0.37620003E+02 -0.17210E+08
 0.37670002E+02 -0.17645E+08
 0.37720001E+02 -0.17678E+08
 0.37770000E+02 -0.17274E+08
 0.37820000E+02 -0.17193E+08
 0.37870003E+02 -0.17326E+08
 0.37920002E+02 -0.17263E+08
 0.37970001E+02 -0.17191E+08
 0.38020000E+02 -0.16939E+08
 0.38070000E+02 -0.16593E+08
 0.38120003E+02 -0.16299E+08
 0.38170002E+02 -0.15526E+08
 0.38220001E+02 -0.14270E+08
 0.38270000E+02 -0.12802E+08
 0.38320000E+02 -0.11515E+08
 0.38370003E+02 -0.10939E+08
 0.38420002E+02 -0.10725E+08
 0.38470001E+02 -0.10862E+08
 0.38520000E+02 -0.11308E+08
 0.38570000E+02 -0.11689E+08
 0.38620003E+02 -0.11998E+08
 0.38670002E+02 -0.11854E+08
 0.38720001E+02 -0.11757E+08
 0.38770000E+02 -0.12037E+08
 0.38820000E+02 -0.12162E+08
 0.38870003E+02 -0.12233E+08
 0.38920002E+02 -0.12112E+08
 0.38970001E+02 -0.11819E+08
 0.39020000E+02 -0.11890E+08
 0.39070000E+02 -0.12532E+08
 0.39120003E+02 -0.13160E+08
 0.39170002E+02 -0.13326E+08
 0.39220001E+02 -0.13358E+08
 0.39270000E+02 -0.13124E+08
 0.39320000E+02 -0.12786E+08
 0.39370003E+02 -0.12748E+08
 0.39420002E+02 -0.12957E+08
 0.39470001E+02 -0.13131E+08
 0.39520000E+02 -0.13400E+08
 0.39570000E+02 -0.13631E+08
 0.39620003E+02 -0.13250E+08
 0.39670002E+02 -0.13160E+08
 0.39720001E+02 -0.13045E+08
 0.39770000E+02 -0.12607E+08
 0.39820000E+02 -0.12462E+08
 0.39870003E+02 -0.11806E+08
 0.39920002E+02 -0.11042E+08
 0.39970001E+02 -0.10635E+08
 0.40020000E+02 -0.10262E+08
 0.40070000E+02 -0.10206E+08
 0.40120003E+02 -0.10560E+08
 0.40170002E+02 -0.10733E+08
 0.40220001E+02 -0.10817E+08
 0.40270000E+02 -0.11234E+08
 0.40320000E+02 -0.11472E+08
 0.40370003E+02 -0.11736E+08
 0.40420002E+02 -0.12253E+08
 0.40470001E+02 -0.12517E+08
 0.40520000E+02 -0.12445E+08
 0.40570000E+02 -0.12441E+08
 0.40620003E+02 -0.12747E+08
 0.40670002E+02 -0.13037E+08
 0.40720001E+02 -0.13031E+08
 0.40770000E+02 -0.12884E+08
 0.40820000E+02 -0.12717E+08
 0.40870003E+02 -0.12691E+08
 0.40920002E+02 -0.12857E+08
 0.40970001E+02 -0.12906E+08
 0.41020000E+02 -0.12673E+08
 0.41070000E+02 -0.12609E+08
 0.41120003E+02 -0.12839E+08
 0.41170002E+02 -0.12675E+08
 0.41220001E+02 -0.12323E+08
 0.41270000E+02 -0.12172E+08
 0.41320000E+02 -0.11935E+08
 0.41370003E+02 -0.11775E+08
 0.41420002E+02 -0.11834E+08
 0.41470001E+02 -0.11686E+08
 0.41520000E+02 -0.11268E+08
 0.41570000E+02 -0.11252E+08
 0.41620003E+02 -0.11452E+08
 0.41670002E+02 -0.11041E+08
 0.41720001E+02 -0.10266E+08
 0.41770000E+02 -0.96755E+07
 0.41820000E+02 -0.94592E+07
 0.41870003E+02 -0.95247E+07
 0.41920002E+02 -0.96596E+07
 0.41970001E+02 -0.98420E+07
 0.42020000E+02 -0.10060E+08
 0.42070000E+02 -0.10135E+08
 0.42120003E+02 -0.99916E+07
 0.42170002E+02 -0.97978E+07
 0.42220001E+02 -0.95200E+07
 0.42270000E+02 -0.92133E+07
 0.42320000E+02 -0.87926E+07
 0.42370003E+02 -0.82178E+07
 0.42420002E+02 -0.76868E+07
 0.42470001E+02 -0.72722E+07
 0.42520000E+02 -0.71087E+07
 0.42570000E+02 -0.70785E+07
 0.42620003E+02 -0.71117E+07
 0.42670002E+02 -0.70310E+07
 0.42720001E+02 -0.67938E+07
 0.42770000E+02 -0.67944E+07
 0.42820000E+02 -0.73220E+07
 0.42870003E+02 -0.81642E+07
 0.42920002E+02 -0.87102E+07
 0.42970001E+02 -0.90833E+07
 0.43020000E+02 -0.94607E+07
 0.43070000E+02 -0.97997E+07
 0.43120003E+02 -0.10194E+08
 0.43170002E+02 -0.10442E+08
 0.43220001E+02 -0.10398E+08
 0.43270000E+02 -0.10158E+08
 0.43320000E+02 -0.99890E+07
 0.43370003E+02 -0.98755E+07
 0.43420002E+02 -0.97450E+07
 0.43470001E+02 -0.96859E+07
 0.43520000E+02 -0.97500E+07
 0.43570000E+02 -0.98854E+07
 0.43620003E+02 -0.10116E+08
 0.43670002E+02 -0.10592E+08
 0.43720001E+02 -0.10994E+08
 0.43770000E+02 -0.11031E+08
 0.43820000E+02 -0.10917E+08
 0.43870003E+02 -0.10656E+08
 0.43920002E+02 -0.98861E+07
 0.43970001E+02 -0.88872E+07
 0.44020000E+02 -0.82943E+07
 0.44070000E+02 -0.79400E+07
 0.44120003E+02 -0.76757E+07
 0.44170002E+02 -0.76735E+07
 0.44220001E+02 -0.77768E+07
 0.44270000E+02 -0.77899E+07
 0.44320000E+02 -0.77002E+07
 0.44370003E+02 -0.77984E+07
 0.44420002E+02 -0.80658E+07
 0.44470001E+02 -0.81967E+07
 0.44520000E+02 -0.81307E+07
 0.44570000E+02 -0.78752E+07
 0.44620003E+02 -0.77972E+07
 0.44670002E+02 -0.79347E+07
 0.44720001E+02 -0.78781E+07
 0.44770000E+02 -0.75991E+07
 0.44820000E+02 -0.73325E+07
 0.44870003E+02 -0.72088E+07
 0.44920002E+02 -0.69055E+07
 0.44970001E+02 -0.65629E+07
 0.45020000E+02 -0.66613E+07
 0.45070000E+02 -0.68471E+07
 0.45120003E+02 -0.71965E+07
 0.45170002E+02 -0.76915E+07
 0.45220001E+02 -0.75880E+07
 0.45270000E+02 -0.71216E+07
 0.45320000E+02 -0.68447E+07
 0.45370003E+02 -0.67456E+07
 0.45420002E+02 -0.65450E+07
 0.45470001E+02 -0.61189E+07
 0.45520000E+02 -0.56575E+07
 0.45570000E+02 -0.54404E+07
 0.45620003E+02 -0.56413E+07
 0.45670002E+02 -0.60779E+07
 0.45720001E+02 -0.65584E+07
 0.45770000E+02 -0.69990E+07
 0.45820000E+02 -0.72775E+07
 0.45870003E+02 -0.74416E+07
 0.45920002E+02 -0.74192E+07
 0.45970001E+02 -0.72664E+07
 0.46020000E+02 -0.71761E+07
 0.46070000E+02 -0.69360E+07
 0.46120003E+02 -0.66558E+07
 0.46170002E+02 -0.64373E+07
 0.46220001E+02 -0.63332E+07
 0.46270000E+02 -0.65369E+07
 0.46320000E+02 -0.66594E+07
 0.46370003E+02 -0.65218E+07
 0.46420002E+02 -0.64989E+07
 0.46470001E+02 -0.66534E+07
 0.46520000E+02 -0.68023E+07
 0.46570000E+02 -0.68926E+07
 0.46620003E+02 -0.70476E+07
 0.46670002E+02 -0.74518E+07
 0.46720001E+02 -0.77721E+07
 0.46770000E+02 -0.76646E+07
 0.46820000E+02 -0.73998E+07
 0.46870003E+02 -0.71255E+07
 0.46920002E+02 -0.68967E+07
 0.46970001E+02 -0.69483E+07
 0.47020000E+02 -0.69675E+07
 0.47070000E+02 -0.67899E+07
 0.47120003E+02 -0.67322E+07
 0.47170002E+02 -0.68431E+07
 0.47220001E+02 -0.70908E+07
 0.47270000E+02 -0.72960E+07
 0.47320000E+02 -0.73755E+07
 0.47370003E+02 -0.73371E+07
 0.47420002E+02 -0.72756E+07
 0.47470001E+02 -0.71722E+07
 0.47520000E+02 -0.68566E+07
 0.47570000E+02 -0.66368E+07
 0.47620003E+02 -0.64359E+07
 0.47670002E+02 -0.60600E+07
 0.47720001E+02 -0.57676E+07
 0.47770000E+02 -0.52772E+07
 0.47820000E+02 -0.46313E+07
 0.47870003E+02 -0.42311E+07
 0.47920002E+02 -0.38811E+07
 0.47970001E+02 -0.37138E+07
 0.48020000E+02 -0.37930E+07
 0.48070000E+02 -0.39719E+07
 0.48120003E+02 -0.40452E+07
 0.48170002E+02 -0.38048E+07
 0.48220001E+02 -0.36589E+07
 0.48270000E+02 -0.37106E+07
 0.48320000E+02 -0.37301E+07
 0.48370003E+02 -0.35381E+07
 0.48420002E+02 -0.32489E+07
 0.48470001E+02 -0.30436E+07
 0.48520000E+02 -0.28505E+07
 0.48570000E+02 -0.26511E+07
 0.48620003E+02 -0.24094E+07
 0.48670002E+02 -0.23481E+07
 0.48720001E+02 -0.25078E+07
 0.48770000E+02 -0.27524E+07
 0.48820000E+02 -0.29821E+07
 0.48870003E+02 -0.31237E+07
 0.48920002E+02 -0.33749E+07
 0.48970001E+02 -0.37973E+07
 0.49020000E+02 -0.41601E+07
 0.49070000E+02 -0.42345E+07
 0.49120003E+02 -0.43164E+07
 0.49170002E+02 -0.45426E+07
 0.49220001E+02 -0.45322E+07
 0.49270000E+02 -0.43973E+07
 0.49320000E+02 -0.43381E+07
 0.49370003E+02 -0.42493E+07
 0.49420002E+02 -0.41193E+07
 0.49470001E+02 -0.41249E+07
 0.49520000E+02 -0.42851E+07
 0.49570000E+02 -0.44266E+07
 0.49620003E+02 -0.47031E+07
 0.49670002E+02 -0.51303E+07
 0.49720001E+02 -0.57506E+07
 0.49770000E+02 -0.64732E+07
 0.49820000E+02 -0.68957E+07
 0.49870003E+02 -0.71828E+07
 0.49920002E+02 -0.73432E+07
 0.49970001E+02 -0.73388E+07
 0.50020000E+02 -0.71221E+07
 0.50070000E+02 -0.65514E+07
 0.50120003E+02 -0.60130E+07
 0.50170002E+02 -0.55155E+07
 0.50220001E+02 -0.50461E+07
 0.50270000E+02 -0.46431E+07
 0.50320000E+02 -0.40600E+07
 0.50370003E+02 -0.35280E+07
 0.50420002E+02 -0.31892E+07
 0.50470001E+02 -0.28083E+07
 0.50520000E+02 -0.23955E+07
 0.50570000E+02 -0.22921E+07
 0.50620003E+02 -0.24596E+07
 0.50670002E+02 -0.25447E+07
 0.50720001E+02 -0.26345E+07
 0.50770000E+02 -0.27914E+07
 0.50820000E+02 -0.29192E+07
 0.50870003E+02 -0.29430E+07
 0.50920002E+02 -0.28766E+07
 0.50970001E+02 -0.28613E+07
 0.51020000E+02 -0.27634E+07
 0.51070000E+02 -0.25702E+07
 0.51120003E+02 -0.23393E+07
 0.51170002E+02 -0.21370E+07
 0.51220001E+02 -0.20473E+07
 0.51270000E+02 -0.20392E+07
 0.51320000E+02 -0.20594E+07
 0.51370003E+02 -0.19639E+07
 0.51420002E+02 -0.18888E+07
 0.51470001E+02 -0.17817E+07
 0.51520000E+02 -0.17064E+07
 0.51570000E+02 -0.17766E+07
 0.51620003E+02 -0.18408E+07
 0.51670002E+02 -0.19660E+07
 0.51720001E+02 -0.20364E+07
 0.51770000E+02 -0.20810E+07
 0.51820000E+02 -0.22016E+07
 0.51870003E+02 -0.23091E+07
 0.51920002E+02 -0.22013E+07
 0.51970001E+02 -0.19086E+07
 0.52020000E+02 -0.16450E+07
 0.52070000E+02 -0.13282E+07
 0.52120003E+02 -0.10833E+07
 0.52170002E+02 -0.10354E+07
 0.52220001E+02 -0.11348E+07
 0.52270000E+02 -0.12664E+07
 0.52320000E+02 -0.13071E+07
 0.52370003E+02 -0.12494E+07
 0.52420002E+02 -0.12224E+07
 0.52470001E+02 -0.12814E+07
 0.52520000E+02 -0.10616E+07
 0.52570000E+02 -0.73408E+06
 0.52620003E+02 -0.64050E+06
 0.52670002E+02 -0.71650E+06
 0.52720001E+02 -0.10411E+07
 0.52770000E+02 -0.14190E+07
 0.52820000E+02 -0.15510E+07
 0.52870003E+02 -0.14349E+07
 0.52920002E+02 -0.14203E+07
 0.52970001E+02 -0.15816E+07
 0.53020000E+02 -0.17261E+07
 0.53070000E+02 -0.19982E+07
 0.53120003E+02 -0.22181E+07
 0.53170002E+02 -0.22295E+07
 0.53220001E+02 -0.21837E+07
 0.53270000E+02 -0.20948E+07
 0.53320000E+02 -0.20017E+07
 0.53370003E+02 -0.18528E+07
 0.53420002E+02 -0.15733E+07
 0.53470001E+02 -0.13207E+07
 0.53520000E+02 -0.12446E+07
 0.53570000E+02 -0.13482E+07
 0.53620003E+02 -0.15307E+07
 0.53670002E+02 -0.17061E+07
 0.53720001E+02 -0.20942E+07
 0.53770000E+02 -0.25053E+07
 0.53820000E+02 -0.25766E+07
 0.53870003E+02 -0.24887E+07
 0.53920002E+02 -0.22974E+07
 0.53970001E+02 -0.19747E+07
 0.54020000E+02 -0.16541E+07
 0.54070000E+02 -0.14423E+07
 0.54120003E+02 -0.12421E+07
 0.54170002E+02 -0.10520E+07
 0.54220001E+02 -0.84112E+06
 0.54270000E+02 -0.54034E+06
 0.54320000E+02 -0.33785E+06
 0.54370003E+02 -0.12953E+06
 0.54420002E+02  0.11411E+06
 0.54470001E+02  0.20042E+06
 0.54520000E+02  0.31447E+06
 0.54570000E+02  0.56648E+06
 0.54620003E+02  0.78523E+06
 0.54670002E+02  0.10009E+07
 0.54720001E+02  0.11710E+07
 0.54770000E+02  0.12224E+07
 0.54820000E+02  0.13208E+07
 0.54870003E+02  0.14127E+07
 0.54920002E+02  0.13513E+07
 0.54970001E+02  0.12342E+07
 0.55020000E+02  0.11450E+07
 0.55070000E+02  0.10618E+07
 0.55120003E+02  0.10281E+07
 0.55170002E+02  0.10816E+07
 0.55220001E+02  0.11903E+07
 0.55270000E+02  0.11944E+07
 0.55320000E+02  0.11212E+07
 0.55370003E+02  0.11130E+07
 0.55420002E+02  0.10460E+07
 0.55470001E+02  0.92907E+06
 0.55520000E+02  0.79527E+06
 0.55570000E+02  0.58664E+06
 0.55620003E+02  0.36293E+06
 0.55670002E+02  0.22933E+06
 0.55720001E+02  0.20924E+06
 0.55770000E+02  0.16410E+06
 0.55820000E+02  0.64071E+05
 0.55870003E+02 -0.53691E+05
 0.55920002E+02 -0.15872E+06
 0.55970001E+02 -0.23711E+06
 0.56020000E+02 -0.38483E+06
 0.56070000E+02 -0.47285E+06
 0.56120003E+02 -0.55272E+06
 0.56170002E+02 -0.73247E+06
 0.56220001E+02 -0.82857E+06
 0.56270000E+02 -0.85342E+06
 0.56320000E+02 -0.72050E+06
 0.56370003E+02 -0.41674E+06
 0.56420002E+02 -0.19997E+05
 0.56470001E+02  0.39355E+06
 0.56520000E+02  0.72370E+06
 0.56570000E+02  0.91961E+06
 0.56620003E+02  0.87311E+06
 0.56670002E+02  0.88434E+06
 0.56720001E+02  0.10743E+07
 0.56770000E+02  0.13154E+07
 0.56820000E+02  0.15718E+07
 0.56870003E+02  0.16929E+07
 0.56920002E+02  0.16629E+07
 0.56970001E+02  0.15653E+07
 0.57020000E+02  0.15301E+07
 0.57070000E+02  0.15636E+07
 0.57120003E+02  0.16313E+07
 0.57170002E+02  0.17816E+07
 0.57220001E+02  0.20486E+07
 0.57270000E+02  0.23408E+07
 0.57320000E+02  0.25947E+07
 0.57370003E+02  0.28046E+07
 0.57420002E+02  0.28820E+07
 0.57470001E+02  0.29532E+07
 0.57520000E+02  0.30022E+07
 0.57570000E+02  0.29344E+07
 0.57620003E+02  0.28085E+07
 0.57670002E+02  0.25792E+07
 0.57720001E+02  0.23778E+07
 0.57770000E+02  0.21980E+07
 0.57820000E+02  0.19433E+07
 0.57870003E+02  0.17651E+07
 0.57920002E+02  0.17128E+07
 0.57970001E+02  0.17174E+07
 0.58020000E+02  0.16542E+07
 0.58070000E+02  0.14797E+07
 0.58120003E+02  0.13465E+07
 0.58170002E+02  0.13411E+07
 0.58220001E+02  0.14314E+07
 0.58270000E+02  0.15029E+07
 0.58320000E+02  0.14367E+07
 0.58370003E+02  0.12789E+07
 0.58420002E+02  0.11160E+07
 0.58470001E+02  0.10513E+07
 0.58520000E+02  0.10091E+07
 0.58570000E+02  0.97270E+06
 0.58620003E+02  0.93610E+06
 0.58670002E+02  0.80600E+06
 0.58720001E+02  0.76638E+06
 0.58770000E+02  0.82290E+06
 0.58820000E+02  0.91131E+06
 0.58870003E+02  0.97893E+06
 0.58920002E+02  0.96274E+06
 0.58970001E+02  0.84702E+06
 0.59020000E+02  0.69884E+06
 0.59070000E+02  0.71676E+06
 0.59120003E+02  0.84280E+06
 0.59170002E+02  0.10051E+07
 0.59220001E+02  0.12344E+07
 0.59270000E+02  0.15474E+07
 0.59320000E+02  0.18903E+07
 0.59370003E+02  0.21612E+07
 0.59420002E+02  0.23737E+07
 0.59470001E+02  0.25165E+07
 0.59520000E+02  0.26465E+07
 0.59570000E+02  0.27792E+07
 0.59620003E+02  0.28520E+07
 0.59670002E+02  0.28930E+07
 0.59720001E+02  0.28773E+07
 0.59770000E+02  0.28586E+07
 0.59820000E+02  0.28577E+07
 0.59870003E+02  0.28918E+07
 0.59920002E+02  0.30225E+07
 0.59970001E+02  0.31074E+07
 0.60020000E+02  0.30611E+07
 0.60070000E+02  0.29023E+07
 0.60120003E+02  0.27316E+07
 0.60170002E+02  0.26833E+07
 0.60220001E+02  0.27025E+07
 0.60270000E+02  0.27144E+07
 0.60320000E+02  0.26978E+07
 0.60370003E+02  0.26432E+07
 0.60420002E+02  0.25602E+07
 0.60470001E+02  0.24325E+07
 0.60520000E+02  0.23186E+07
 0.60570000E+02  0.22165E+07
 0.60620003E+02  0.21131E+07
 0.60670002E+02  0.21591E+07
 0.60720001E+02  0.23290E+07
 0.60770000E+02  0.25073E+07
 0.60820000E+02  0.26278E+07
 0.60870003E+02  0.26728E+07
 0.60920002E+02  0.27082E+07
 0.60970001E+02  0.27906E+07
 0.61020000E+02  0.30086E+07
 0.61070004E+02  0.33026E+07
 0.61119999E+02  0.35784E+07
 0.61170002E+02  0.37794E+07
 0.61220005E+02  0.38997E+07
 0.61270000E+02  0.39937E+07
 0.61320004E+02  0.40590E+07
 0.61369999E+02  0.41863E+07
 0.61420002E+02  0.43339E+07
 0.61470005E+02  0.43526E+07
 0.61520000E+02  0.43245E+07
 0.61570004E+02  0.42904E+07
 0.61619999E+02  0.41376E+07
 0.61670002E+02  0.39318E+07
 0.61720005E+02  0.37497E+07
 0.61770000E+02  0.35747E+07
 0.61820004E+02  0.34812E+07
 0.61869999E+02  0.34912E+07
 0.61920002E+02  0.35295E+07
 0.61970005E+02  0.36368E+07
 0.62020000E+02  0.38355E+07
 0.62070004E+02  0.39929E+07
 0.62119999E+02  0.41392E+07
 0.62170002E+02  0.42870E+07
 0.62220005E+02  0.43933E+07
 0.62270000E+02  0.44666E+07
 0.62320004E+02  0.44026E+07
 0.62369999E+02  0.42187E+07
 0.62420002E+02  0.39983E+07
 0.62470005E+02  0.38129E+07
 0.62520000E+02  0.36814E+07
 0.62570004E+02  0.35456E+07
 0.62619999E+02  0.34161E+07
 0.62670002E+02  0.32830E+07
 0.62720005E+02  0.31661E+07
 0.62770000E+02  0.30829E+07
 0.62820004E+02  0.30038E+07
 0.62869999E+02  0.29312E+07
 0.62920002E+02  0.29769E+07
 0.62970005E+02  0.32292E+07
 0.63020000E+02  0.35500E+07
 0.63070004E+02  0.39018E+07
 0.63119999E+02  0.43285E+07
 0.63170002E+02  0.47242E+07
 0.63220005E+02  0.50306E+07
 0.63270000E+02  0.52664E+07
 0.63320004E+02  0.54906E+07
 0.63369999E+02  0.57118E+07
 0.63420002E+02  0.58227E+07
 0.63470005E+02  0.58682E+07
 0.63520000E+02  0.59071E+07
 0.63570004E+02  0.58848E+07
 0.63619999E+02  0.58788E+07
 0.63670002E+02  0.58510E+07
 0.63720005E+02  0.56917E+07
 0.63770000E+02  0.55020E+07
 0.63820004E+02  0.54006E+07
 0.63869999E+02  0.53601E+07
 0.63920002E+02  0.53064E+07
 0.63970005E+02  0.52219E+07
 0.64019997E+02  0.51233E+07
 0.64070000E+02  0.50099E+07
 0.64119995E+02  0.48657E+07
 0.64169998E+02  0.48025E+07
 0.64220001E+02  0.48041E+07
 0.64269997E+02  0.47305E+07
 0.64320000E+02  0.46486E+07
 0.64369995E+02  0.45590E+07
 0.64419998E+02  0.45146E+07
 0.64470001E+02  0.46330E+07
 0.64519997E+02  0.48292E+07
 0.64570000E+02  0.50702E+07
 0.64619995E+02  0.53310E+07
 0.64669998E+02  0.55554E+07
 0.64720001E+02  0.57228E+07
 0.64769997E+02  0.57763E+07
 0.64820000E+02  0.57570E+07
 0.64869995E+02  0.57517E+07
 0.64919998E+02  0.57896E+07
 0.64970001E+02  0.58278E+07
 0.65019997E+02  0.58324E+07
 0.65070000E+02  0.58818E+07
 0.65119995E+02  0.59784E+07
 0.65169998E+02  0.60535E+07
 0.65220001E+02  0.60987E+07
 0.65269997E+02  0.61549E+07
 0.65320000E+02  0.62040E+07
 0.65369995E+02  0.61809E+07
 0.65419998E+02  0.61226E+07
 0.65470001E+02  0.60451E+07
 0.65519997E+02  0.59401E+07
 0.65570000E+02  0.58342E+07
 0.65619995E+02  0.57792E+07
 0.65669998E+02  0.57570E+07
 0.65720001E+02  0.56774E+07
 0.65769997E+02  0.56003E+07
 0.65820000E+02  0.55069E+07
 0.65869995E+02  0.53617E+07
 0.65919998E+02  0.52933E+07
 0.65970001E+02  0.52654E+07
 0.66019997E+02  0.52079E+07
 0.66070000E+02  0.51438E+07
 0.66119995E+02  0.50082E+07
 0.66169998E+02  0.48117E+07
 0.66220001E+02  0.46221E+07
 0.66269997E+02  0.43904E+07
 0.66320000E+02  0.41498E+07
 0.66369995E+02  0.40346E+07
 0.66419998E+02  0.40675E+07
 0.66470001E+02  0.41762E+07
 0.66519997E+02  0.43066E+07
 0.66570000E+02  0.44530E+07
 0.66619995E+02  0.45848E+07
 0.66669998E+02  0.46750E+07
 0.66720001E+02  0.47226E+07
 0.66769997E+02  0.47446E+07
 0.66820000E+02  0.48211E+07
 0.66869995E+02  0.49697E+07
 0.66919998E+02  0.51663E+07
 0.66970001E+02  0.54348E+07
 0.67019997E+02  0.57999E+07
 0.67070000E+02  0.62365E+07
 0.67119995E+02  0.66252E+07
 0.67169998E+02  0.69399E+07
 0.67220001E+02  0.72500E+07
 0.67269997E+02  0.74743E+07
 0.67320000E+02  0.75807E+07
 0.67369995E+02  0.76380E+07
 0.67419998E+02  0.76211E+07
 0.67470001E+02  0.75544E+07
 0.67519997E+02  0.74822E+07
 0.67570000E+02  0.73633E+07
 0.67619995E+02  0.71713E+07
 0.67669998E+02  0.69832E+07
 0.67720001E+02  0.68244E+07
 0.67769997E+02  0.66519E+07
 0.67820000E+02  0.65304E+07
 0.67869995E+02  0.64096E+07
 0.67919998E+02  0.62483E+07
 0.67970001E+02  0.60943E+07
 0.68019997E+02  0.59058E+07
 0.68070000E+02  0.56974E+07
 0.68119995E+02  0.55057E+07
 0.68169998E+02  0.53562E+07
 0.68220001E+02  0.52430E+07
 0.68269997E+02  0.51962E+07
 0.68320000E+02  0.52058E+07
 0.68369995E+02  0.52206E+07
 0.68419998E+02  0.52652E+07
 0.68470001E+02  0.53015E+07
 0.68519997E+02  0.52999E+07
 0.68570000E+02  0.52527E+07
 0.68619995E+02  0.52070E+07
 0.68669998E+02  0.51825E+07
 0.68720001E+02  0.51840E+07
 0.68769997E+02  0.52305E+07
 0.68820000E+02  0.52656E+07
 0.68869995E+02  0.53169E+07
 0.68919998E+02  0.53842E+07
 0.68970001E+02  0.54501E+07
 0.69019997E+02  0.55408E+07
 0.69070000E+02  0.56589E+07
 0.69119995E+02  0.57952E+07
 0.69169998E+02  0.59364E+07
 0.69220001E+02  0.60935E+07
 0.69269997E+02  0.62376E+07
 0.69320000E+02  0.63542E+07
 0.69369995E+02  0.64659E+07
 0.69419998E+02  0.65725E+07
 0.69470001E+02  0.66665E+07
 0.69519997E+02  0.67671E+07
 0.69570000E+02  0.69017E+07
 0.69619995E+02  0.69930E+07
 0.69669998E+02  0.70123E+07
 0.69720001E+02  0.70677E+07
 0.69769997E+02  0.71732E+07
 0.69820000E+02  0.72810E+07
 0.69869995E+02  0.74178E+07
 0.69919998E+02  0.75694E+07
 0.69970001E+02  0.76560E+07
 0.70019997E+02  0.76990E+07
 0.70070000E+02  0.77471E+07
 0.70119995E+02  0.77629E+07
 0.70169998E+02  0.77306E+07
 0.70220001E+02  0.76624E+07
 0.70269997E+02  0.76015E+07
 0.70320000E+02  0.76219E+07
 0.70369995E+02  0.76855E+07
 0.70419998E+02  0.77148E+07
 0.70470001E+02  0.77307E+07
 0.70519997E+02  0.77512E+07
 0.70570000E+02  0.77727E+07
 0.70619995E+02  0.77816E+07
 0.70669998E+02  0.77766E+07
 0.70720001E+02  0.77805E+07
 0.70769997E+02  0.77599E+07
 0.70820000E+02  0.77050E+07
 0.70869995E+02  0.76270E+07
 0.70919998E+02  0.75329E+07
 0.70970001E+02  0.74871E+07
 0.71019997E+02  0.75092E+07
 0.71070000E+02  0.75608E+07
 0.71119995E+02  0.76326E+07
 0.71169998E+02  0.77135E+07
 0.71220001E+02  0.77846E+07
 0.71269997E+02  0.77948E+07
 0.71320000E+02  0.77151E+07
 0.71369995E+02  0.76420E+07
 0.71419998E+02  0.76222E+07
 0.71470001E+02  0.76179E+07
 0.71519997E+02  0.76213E+07
 0.71570000E+02  0.76343E+07
 0.71619995E+02  0.76721E+07
 0.71669998E+02  0.77166E+07
 0.71720001E+02  0.77542E+07
 0.71769997E+02  0.77850E+07
 0.71820000E+02  0.78117E+07
 0.71869995E+02  0.78624E+07
 0.71919998E+02  0.79114E+07
 0.71970001E+02  0.79465E+07
 0.72019997E+02  0.79773E+07
 0.72070000E+02  0.80048E+07
 0.72119995E+02  0.80717E+07
 0.72169998E+02  0.81556E+07
 0.72220001E+02  0.81916E+07
 0.72269997E+02  0.81912E+07
 0.72320000E+02  0.81862E+07
 0.72369995E+02  0.82004E+07
 0.72419998E+02  0.82752E+07
 0.72470001E+02  0.84053E+07
 0.72519997E+02  0.85175E+07
 0.72570000E+02  0.85823E+07
 0.72619995E+02  0.86464E+07
 0.72669998E+02  0.87310E+07
 0.72720001E+02  0.87827E+07
 0.72769997E+02  0.87778E+07
 0.72820000E+02  0.87376E+07
 0.72869995E+02  0.86395E+07
 0.72919998E+02  0.84899E+07
 0.72970001E+02  0.83649E+07
 0.73019997E+02  0.82942E+07
 0.73070000E+02  0.82232E+07
 0.73119995E+02  0.81375E+07
 0.73169998E+02  0.80739E+07
 0.73220001E+02  0.80883E+07
 0.73269997E+02  0.81870E+07
 0.73320000E+02  0.83158E+07
 0.73369995E+02  0.84622E+07
 0.73419998E+02  0.85877E+07
 0.73470001E+02  0.86769E+07
 0.73519997E+02  0.87501E+07
 0.73570000E+02  0.87932E+07
 0.73619995E+02  0.88057E+07
 0.73669998E+02  0.88213E+07
 0.73720001E+02  0.88415E+07
 0.73769997E+02  0.88253E+07
 0.73820000E+02  0.88226E+07
 0.73869995E+02  0.89005E+07
 0.73919998E+02  0.90153E+07
 0.73970001E+02  0.90890E+07
 0.74019997E+02  0.90837E+07
 0.74070000E+02  0.90322E+07
 0.74119995E+02  0.89912E+07
 0.74169998E+02  0.89666E+07
 0.74220001E+02  0.89534E+07
 0.74269997E+02  0.89264E+07
 0.74320000E+02  0.88557E+07
 0.74369995E+02  0.87880E+07
 0.74419998E+02  0.87878E+07
 0.74470001E+02  0.88327E+07
 0.74519997E+02  0.88663E+07
 0.74570000E+02  0.88494E+07
 0.74619995E+02  0.87367E+07
 0.74669998E+02  0.85621E+07
 0.74720001E+02  0.83833E+07
 0.74769997E+02  0.82260E+07
 0.74820000E+02  0.81213E+07
 0.74869995E+02  0.80722E+07
 0.74919998E+02  0.80928E+07
 0.74970001E+02  0.81413E+07
 0.75019997E+02  0.81460E+07
 0.75070000E+02  0.81171E+07
 0.75119995E+02  0.80854E+07
 0.75169998E+02  0.80702E+07
 0.75220001E+02  0.80517E+07
 0.75269997E+02  0.80083E+07
 0.75320000E+02  0.79553E+07
 0.75369995E+02  0.79208E+07
 0.75419998E+02  0.79140E+07
 0.75470001E+02  0.79548E+07
 0.75519997E+02  0.80377E+07
 0.75570000E+02  0.80975E+07
 0.75619995E+02  0.81420E+07
 0.75669998E+02  0.81376E+07
 0.75720001E+02  0.80804E+07
 0.75769997E+02  0.80742E+07
 0.75820000E+02  0.81324E+07
 0.75869995E+02  0.82327E+07
 0.75919998E+02  0.83319E+07
 0.75970001E+02  0.83947E+07
 0.76019997E+02  0.84468E+07
 0.76070000E+02  0.84970E+07
 0.76119995E+02  0.85311E+07
 0.76169998E+02  0.85664E+07
 0.76220001E+02  0.86027E+07
 0.76269997E+02  0.86054E+07
 0.76320000E+02  0.85654E+07
 0.76369995E+02  0.84913E+07
 0.76419998E+02  0.84365E+07
 0.76470001E+02  0.84307E+07
 0.76519997E+02  0.84593E+07
 0.76570000E+02  0.85443E+07
 0.76619995E+02  0.86594E+07
 0.76669998E+02  0.87288E+07
 0.76720001E+02  0.87347E+07
 0.76769997E+02  0.86877E+07
 0.76820000E+02  0.86337E+07
 0.76869995E+02  0.86478E+07
 0.76919998E+02  0.87140E+07
 0.76970001E+02  0.87910E+07
 0.77019997E+02  0.88874E+07
 0.77070000E+02  0.89919E+07
 0.77119995E+02  0.90899E+07
 0.77169998E+02  0.91712E+07
 0.77220001E+02  0.92406E+07
 0.77269997E+02  0.93098E+07
 0.77320000E+02  0.93766E+07
 0.77369995E+02  0.94497E+07
 0.77419998E+02  0.95373E+07
 0.77470001E+02  0.96637E+07
 0.77519997E+02  0.98078E+07
 0.77570000E+02  0.98924E+07
 0.77619995E+02  0.98727E+07
 0.77669998E+02  0.97760E+07
 0.77720001E+02  0.96899E+07
 0.77769997E+02  0.96617E+07
 0.77820000E+02  0.96435E+07
 0.77869995E+02  0.95809E+07
 0.77919998E+02  0.94888E+07
 0.77970001E+02  0.93893E+07
 0.78019997E+02  0.92785E+07
 0.78070000E+02  0.91553E+07
 0.78119995E+02  0.90211E+07
 0.78169998E+02  0.88981E+07
 0.78220001E+02  0.88079E+07
 0.78269997E+02  0.87767E+07
 0.78320000E+02  0.88271E+07
 0.78369995E+02  0.89411E+07
 0.78419998E+02  0.90843E+07
 0.78470001E+02  0.91942E+07
 0.78519997E+02  0.92493E+07
 0.78570000E+02  0.92764E+07
 0.78619995E+02  0.92549E+07
 0.78669998E+02  0.91885E+07
 0.78720001E+02  0.91197E+07
 0.78769997E+02  0.90586E+07
 0.78820000E+02  0.90377E+07
 0.78869995E+02  0.90880E+07
 0.78919998E+02  0.91601E+07
 0.78970001E+02  0.92152E+07
 0.79019997E+02  0.92643E+07
 0.79070000E+02  0.92850E+07
 0.79119995E+02  0.92588E+07
 0.79169998E+02  0.92094E+07
 0.79220001E+02  0.91483E+07
 0.79269997E+02  0.90809E+07
 0.79320000E+02  0.90502E+07
 0.79369995E+02  0.90574E+07
 0.79419998E+02  0.90473E+07
 0.79470001E+02  0.90115E+07
 0.79519997E+02  0.89761E+07
 0.79570000E+02  0.89294E+07
 0.79619995E+02  0.88525E+07
 0.79669998E+02  0.87850E+07
 0.79720001E+02  0.87510E+07
 0.79769997E+02  0.87647E+07
 0.79820000E+02  0.88219E+07
 0.79869995E+02  0.88907E+07
 0.79919998E+02  0.89642E+07
 0.79970001E+02  0.90297E+07
 0.80019997E+02  0.91270E+07
 0.80070000E+02  0.92966E+07
 0.80119995E+02  0.95017E+07
 0.80169998E+02  0.97038E+07
 0.80220001E+02  0.99137E+07
 0.80269997E+02  0.10120E+08
 0.80320000E+02  0.10276E+08
 0.80369995E+02  0.10422E+08
 0.80419998E+02  0.10590E+08
 0.80470001E+02  0.10721E+08
 0.80519997E+02  0.10805E+08
 0.80570000E+02  0.10849E+08
 0.80619995E+02  0.10837E+08
 0.80669998E+02  0.10796E+08
 0.80720001E+02  0.10780E+08
 0.80769997E+02  0.10810E+08
 0.80820000E+02  0.10850E+08
 0.80869995E+02  0.10875E+08
 0.80919998E+02  0.10847E+08
 0.80970001E+02  0.10767E+08
 0.81019997E+02  0.10711E+08
 0.81070000E+02  0.10691E+08
 0.81119995E+02  0.10708E+08
 0.81169998E+02  0.10742E+08
 0.81220001E+02  0.10751E+08
 0.81269997E+02  0.10721E+08
 0.81320000E+02  0.10644E+08
 0.81369995E+02  0.10541E+08
 0.81419998E+02  0.10447E+08
 0.81470001E+02  0.10373E+08
 0.81519997E+02  0.10306E+08
 0.81570000E+02  0.10246E+08
 0.81619995E+02  0.10156E+08
 0.81669998E+02  0.10017E+08
 0.81720001E+02  0.98882E+07
 0.81769997E+02  0.97638E+07
 0.81820000E+02  0.96595E+07
 0.81869995E+02  0.96245E+07
 0.81919998E+02  0.96342E+07
 0.81970001E+02  0.96783E+07
 0.82019997E+02  0.97623E+07
 0.82070000E+02  0.98421E+07
 0.82119995E+02  0.98875E+07
 0.82169998E+02  0.98779E+07
 0.82220001E+02  0.97981E+07
 0.82269997E+02  0.97232E+07
 0.82320000E+02  0.96945E+07
 0.82369995E+02  0.96889E+07
 0.82419998E+02  0.97174E+07
 0.82470001E+02  0.97812E+07
 0.82519997E+02  0.98785E+07
 0.82570000E+02  0.99945E+07
 0.82619995E+02  0.10107E+08
 0.82669998E+02  0.10197E+08
 0.82720001E+02  0.10257E+08
 0.82769997E+02  0.10343E+08
 0.82820000E+02  0.10487E+08
 0.82869995E+02  0.10642E+08
 0.82919998E+02  0.10788E+08
 0.82970001E+02  0.10924E+08
 0.83019997E+02  0.11014E+08
 0.83070000E+02  0.11068E+08
 0.83119995E+02  0.11118E+08
 0.83169998E+02  0.11138E+08
 0.83220001E+02  0.11120E+08
 0.83269997E+02  0.11072E+08
 0.83320000E+02  0.10977E+08
 0.83369995E+02  0.10857E+08
 0.83419998E+02  0.10764E+08
 0.83470001E+02  0.10699E+08
 0.83519997E+02  0.10639E+08
 0.83570000E+02  0.10603E+08
 0.83619995E+02  0.10597E+08
 0.83669998E+02  0.10630E+08
 0.83720001E+02  0.10664E+08
 0.83769997E+02  0.10661E+08
 0.83820000E+02  0.10679E+08
 0.83869995E+02  0.10712E+08
 0.83919998E+02  0.10726E+08
 0.83970001E+02  0.10723E+08
 0.84019997E+02  0.10701E+08
 0.84070000E+02  0.10681E+08
 0.84119995E+02  0.10687E+08
 0.84169998E+02  0.10726E+08
 0.84220001E+02  0.10802E+08
 0.84269997E+02  0.10917E+08
 0.84320000E+02  0.11052E+08
 0.84369995E+02  0.11162E+08
 0.84419998E+02  0.11220E+08
 0.84470001E+02  0.11250E+08
 0.84519997E+02  0.11296E+08
 0.84570000E+02  0.11335E+08
 0.84619995E+02  0.11328E+08
 0.84669998E+02  0.11306E+08
 0.84720001E+02  0.11285E+08
 0.84769997E+02  0.11258E+08
 0.84820000E+02  0.11249E+08
 0.84869995E+02  0.11231E+08
 0.84919998E+02  0.11155E+08
 0.84970001E+02  0.11014E+08
 0.85019997E+02  0.10829E+08
 0.85070000E+02  0.10630E+08
 0.85119995E+02  0.10439E+08
 0.85169998E+02  0.10245E+08
 0.85220001E+02  0.10069E+08
 0.85269997E+02  0.99420E+07
 0.85320000E+02  0.98539E+07
 0.85369995E+02  0.98149E+07
 0.85419998E+02  0.98265E+07
 0.85470001E+02  0.98615E+07
 0.85519997E+02  0.99106E+07
 0.85570000E+02  0.99606E+07
 0.85619995E+02  0.99994E+07
 0.85669998E+02  0.10021E+08
 0.85720001E+02  0.10025E+08
 0.85769997E+02  0.10015E+08
 0.85820000E+02  0.99762E+07
 0.85869995E+02  0.98973E+07
 0.85919998E+02  0.97856E+07
 0.85970001E+02  0.96762E+07
 0.86019997E+02  0.95926E+07
 0.86070000E+02  0.95525E+07
 0.86119995E+02  0.95709E+07
 0.86169998E+02  0.96123E+07
 0.86220001E+02  0.96585E+07
 0.86269997E+02  0.97230E+07
 0.86320000E+02  0.97863E+07
 0.86369995E+02  0.98365E+07
 0.86419998E+02  0.98784E+07
 0.86470001E+02  0.99136E+07
 0.86519997E+02  0.99415E+07
 0.86570000E+02  0.99667E+07
 0.86619995E+02  0.10005E+08
 0.86669998E+02  0.10077E+08
 0.86720001E+02  0.10181E+08
 0.86769997E+02  0.10281E+08
 0.86820000E+02  0.10380E+08
 0.86869995E+02  0.10484E+08
 0.86919998E+02  0.10563E+08
 0.86970001E+02  0.10608E+08
 0.87019997E+02  0.10613E+08
 0.87070000E+02  0.10612E+08
 0.87119995E+02  0.10644E+08
 0.87169998E+02  0.10719E+08
 0.87220001E+02  0.10824E+08
 0.87269997E+02  0.10947E+08
 0.87320000E+02  0.11081E+08
 0.87369995E+02  0.11168E+08
 0.87419998E+02  0.11184E+08
 0.87470001E+02  0.11178E+08
 0.87519997E+02  0.11179E+08
 0.87570000E+02  0.11182E+08
 0.87619995E+02  0.11196E+08
 0.87669998E+02  0.11231E+08
 0.87720001E+02  0.11290E+08
 0.87769997E+02  0.11373E+08
 0.87820000E+02  0.11448E+08
 0.87869995E+02  0.11498E+08
 0.87919998E+02  0.11520E+08
 0.87970001E+02  0.11517E+08
 0.88019997E+02  0.11499E+08
 0.88070000E+02  0.11473E+08
 0.88119995E+02  0.11429E+08
 0.88169998E+02  0.11360E+08
 0.88220001E+02  0.11287E+08
 0.88269997E+02  0.11242E+08
 0.88320000E+02  0.11221E+08
 0.88369995E+02  0.11205E+08
 0.88419998E+02  0.11208E+08
 0.88470001E+02  0.11227E+08
 0.88519997E+02  0.11249E+08
 0.88570000E+02  0.11265E+08
 0.88619995E+02  0.11275E+08
 0.88669998E+02  0.11266E+08
 0.88720001E+02  0.11221E+08
 0.88769997E+02  0.11163E+08
 0.88820000E+02  0.11128E+08
 0.88869995E+02  0.11140E+08
 0.88919998E+02  0.11176E+08
 0.88970001E+02  0.11214E+08
 0.89019997E+02  0.11238E+08
 0.89070000E+02  0.11243E+08
 0.89119995E+02  0.11244E+08
 0.89169998E+02  0.11226E+08
 0.89220001E+02  0.11205E+08
 0.89269997E+02  0.11178E+08
 0.89320000E+02  0.11119E+08
 0.89369995E+02  0.11025E+08
 0.89419998E+02  0.10881E+08
 0.89470001E+02  0.10720E+08
 0.89519997E+02  0.10576E+08
 0.89570000E+02  0.10458E+08
 0.89619995E+02  0.10352E+08
 0.89669998E+02  0.10258E+08
 0.89720001E+02  0.10220E+08
 0.89769997E+02  0.10242E+08
 0.89820000E+02  0.10279E+08
 0.89869995E+02  0.10321E+08
 0.89919998E+02  0.10386E+08
 0.89970001E+02  0.10466E+08
 0.90019997E+02  0.10565E+08
 0.90070000E+02  0.10675E+08
 0.90119995E+02  0.10783E+08
 0.90169998E+02  0.10872E+08
 0.90220001E+02  0.10942E+08
 0.90269997E+02  0.10997E+08
 0.90320000E+02  0.11028E+08
 0.90369995E+02  0.11062E+08
 0.90419998E+02  0.11104E+08
 0.90470001E+02  0.11175E+08
 0.90519997E+02  0.11302E+08
 0.90570000E+02  0.11469E+08
 0.90619995E+02  0.11629E+08
 0.90669998E+02  0.11745E+08
 0.90720001E+02  0.11814E+08
 0.90769997E+02  0.11845E+08
 0.90820000E+02  0.11866E+08
 0.90869995E+02  0.11880E+08
 0.90919998E+02  0.11883E+08
 0.90970001E+02  0.11871E+08
 0.91019997E+02  0.11841E+08
 0.91070000E+02  0.11805E+08
 0.91119995E+02  0.11769E+08
 0.91169998E+02  0.11757E+08
 0.91220001E+02  0.11756E+08
 0.91269997E+02  0.11745E+08
 0.91320000E+02  0.11727E+08
 0.91369995E+02  0.11682E+08
 0.91419998E+02  0.11614E+08
 0.91470001E+02  0.11542E+08
 0.91519997E+02  0.11470E+08
 0.91570000E+02  0.11410E+08
 0.91619995E+02  0.11353E+08
 0.91669998E+02  0.11294E+08
 0.91720001E+02  0.11235E+08
 0.91769997E+02  0.11163E+08
 0.91820000E+02  0.11072E+08
 0.91869995E+02  0.10964E+08
 0.91919998E+02  0.10855E+08
 0.91970001E+02  0.10763E+08
 0.92019997E+02  0.10685E+08
 0.92070000E+02  0.10638E+08
 0.92119995E+02  0.10616E+08
 0.92169998E+02  0.10583E+08
 0.92220001E+02  0.10559E+08
 0.92269997E+02  0.10585E+08
 0.92320000E+02  0.10633E+08
 0.92369995E+02  0.10669E+08
 0.92419998E+02  0.10703E+08
 0.92470001E+02  0.10740E+08
 0.92519997E+02  0.10782E+08
 0.92570000E+02  0.10846E+08
 0.92619995E+02  0.10941E+08
 0.92669998E+02  0.11056E+08
 0.92720001E+02  0.11183E+08
 0.92769997E+02  0.11310E+08
 0.92820000E+02  0.11414E+08
 0.92869995E+02  0.11493E+08
 0.92919998E+02  0.11537E+08
 0.92970001E+02  0.11548E+08
 0.93019997E+02  0.11550E+08
 0.93070000E+02  0.11554E+08
 0.93119995E+02  0.11552E+08
 0.93169998E+02  0.11547E+08
 0.93220001E+02  0.11557E+08
 0.93269997E+02  0.11572E+08
 0.93320000E+02  0.11594E+08
 0.93369995E+02  0.11623E+08
 0.93419998E+02  0.11638E+08
 0.93470001E+02  0.11643E+08
 0.93519997E+02  0.11648E+08
 0.93570000E+02  0.11670E+08
 0.93619995E+02  0.11710E+08
 0.93669998E+02  0.11752E+08
 0.93720001E+02  0.11792E+08
 0.93769997E+02  0.11822E+08
 0.93820000E+02  0.11830E+08
 0.93869995E+02  0.11823E+08
 0.93919998E+02  0.11812E+08
 0.93970001E+02  0.11794E+08
 0.94019997E+02  0.11772E+08
 0.94070000E+02  0.11743E+08
 0.94119995E+02  0.11706E+08
 0.94169998E+02  0.11662E+08
 0.94220001E+02  0.11600E+08
 0.94269997E+02  0.11527E+08
 0.94320000E+02  0.11460E+08
 0.94369995E+02  0.11429E+08
 0.94419998E+02  0.11445E+08
 0.94470001E+02  0.11500E+08
 0.94519997E+02  0.11578E+08
 0.94570000E+02  0.11641E+08
 0.94619995E+02  0.11704E+08
 0.94669998E+02  0.11763E+08
 0.94720001E+02  0.11778E+08
 0.94769997E+02  0.11786E+08
 0.94820000E+02  0.11804E+08
 0.94869995E+02  0.11832E+08
 0.94919998E+02  0.11875E+08
 0.94970001E+02  0.11900E+08
 0.95019997E+02  0.11875E+08
 0.95070000E+02  0.11815E+08
 0.95119995E+02  0.11759E+08
 0.95169998E+02  0.11701E+08
 0.95220001E+02  0.11637E+08
 0.95269997E+02  0.11567E+08
 0.95320000E+02  0.11478E+08
 0.95369995E+02  0.11382E+08
 0.95419998E+02  0.11289E+08
 0.95470001E+02  0.11219E+08
 0.95519997E+02  0.11152E+08
 0.95570000E+02  0.11086E+08
 0.95619995E+02  0.11048E+08
 0.95669998E+02  0.11026E+08
 0.95720001E+02  0.11021E+08
 0.95769997E+02  0.11029E+08
 0.95820000E+02  0.11046E+08
 0.95869995E+02  0.11063E+08
 0.95919998E+02  0.11069E+08
 0.95970001E+02  0.11060E+08
 0.96019997E+02  0.11021E+08
 0.96070000E+02  0.10959E+08
 0.96119995E+02  0.10878E+08
 0.96169998E+02  0.10794E+08
 0.96220001E+02  0.10736E+08
 0.96269997E+02  0.10714E+08
 0.96320000E+02  0.10737E+08
 0.96369995E+02  0.10769E+08
 0.96419998E+02  0.10791E+08
 0.96470001E+02  0.10796E+08
 0.96519997E+02  0.10790E+08
 0.96570000E+02  0.10773E+08
 0.96619995E+02  0.10735E+08
 0.96669998E+02  0.10707E+08
 0.96720001E+02  0.10686E+08
 0.96769997E+02  0.10664E+08
 0.96820000E+02  0.10637E+08
 0.96869995E+02  0.10588E+08
 0.96919998E+02  0.10542E+08
 0.96970001E+02  0.10511E+08
 0.97019997E+02  0.10493E+08
 0.97070000E+02  0.10530E+08
 0.97119995E+02  0.10572E+08
 0.97169998E+02  0.10574E+08
 0.97220001E+02  0.10585E+08
 0.97269997E+02  0.10599E+08
 0.97320000E+02  0.10632E+08
 0.97369995E+02  0.10694E+08
 0.97419998E+02  0.10773E+08
 0.97470001E+02  0.10853E+08
 0.97519997E+02  0.10937E+08
 0.97570000E+02  0.11010E+08
 0.97619995E+02  0.11034E+08
 0.97669998E+02  0.11057E+08
 0.97720001E+02  0.11067E+08
 0.97769997E+02  0.11092E+08
 0.97820000E+02  0.11160E+08
 0.97869995E+02  0.11254E+08
 0.97919998E+02  0.11361E+08
 0.97970001E+02  0.11461E+08
 0.98019997E+02  0.11574E+08
 0.98070000E+02  0.11677E+08
 0.98119995E+02  0.11744E+08
 0.98169998E+02  0.11793E+08
 0.98220001E+02  0.11845E+08
 0.98269997E+02  0.11917E+08
 0.98320000E+02  0.11982E+08
 0.98369995E+02  0.12040E+08
 0.98419998E+02  0.12095E+08
 0.98470001E+02  0.12114E+08
 0.98519997E+02  0.12105E+08
 0.98570000E+02  0.12080E+08
 0.98619995E+02  0.12035E+08
 0.98669998E+02  0.12026E+08
 0.98720001E+02  0.12046E+08
 0.98769997E+02  0.12037E+08
 0.98820000E+02  0.12021E+08
 0.98869995E+02  0.12000E+08
 0.98919998E+02  0.11974E+08
 0.98970001E+02  0.11978E+08
 0.99019997E+02  0.12001E+08
 0.99070000E+02  0.12025E+08
 0.99119995E+02  0.12049E+08
 0.99169998E+02  0.12070E+08
 0.99220001E+02  0.12073E+08
 0.99269997E+02  0.12070E+08
 0.99320000E+02  0.12059E+08
 0.99369995E+02  0.12034E+08
 0.99419998E+02  0.12009E+08
 0.99470001E+02  0.11969E+08
 0.99519997E+02  0.11925E+08
 0.99570000E+02  0.11875E+08
 0.99619995E+02  0.11824E+08
 0.99669998E+02  0.11769E+08
 0.99720001E+02  0.11698E+08
 0.99769997E+02  0.11618E+08
 0.99820000E+02  0.11527E+08
 0.99869995E+02  0.11453E+08
 0.99919998E+02  0.11412E+08
 0.99970001E+02  0.11413E+08
 0.10002000E+03  0.11450E+08
 0.10007000E+03  0.11503E+08
 0.10012000E+03  0.11566E+08
 0.10017000E+03  0.11631E+08
 0.10022000E+03  0.11667E+08
 0.10027000E+03  0.11666E+08
 0.10032000E+03  0.11640E+08
 0.10037000E+03  0.11604E+08
 0.10042000E+03  0.11595E+08
 0.10047000E+03  0.11603E+08
 0.10052000E+03  0.11607E+08
 0.10057000E+03  0.11620E+08
 0.10062000E+03  0.11646E+08
 0.10067000E+03  0.11688E+08
 0.10072000E+03  0.11743E+08
 0.10077000E+03  0.11800E+08
 0.10082000E+03  0.11848E+08
 0.10087000E+03  0.11874E+08
 0.10092000E+03  0.11882E+08
 0.10097000E+03  0.11883E+08
 0.10102000E+03  0.11873E+08
 0.10107000E+03  0.11853E+08
 0.10112000E+03  0.11833E+08
 0.10117000E+03  0.11798E+08
 0.10122000E+03  0.11737E+08
 0.10127000E+03  0.11651E+08
 0.10132000E+03  0.11549E+08
 0.10137000E+03  0.11447E+08
 0.10142000E+03  0.11357E+08
 0.10147000E+03  0.11288E+08
 0.10152000E+03  0.11236E+08
 0.10157000E+03  0.11180E+08
 0.10162000E+03  0.11125E+08
 0.10167000E+03  0.11083E+08
 0.10172000E+03  0.11057E+08
 0.10177000E+03  0.11059E+08
 0.10182000E+03  0.11068E+08
 0.10187000E+03  0.11079E+08
 0.10192000E+03  0.11097E+08
 0.10197000E+03  0.11116E+08
 0.10202000E+03  0.11143E+08
 0.10207000E+03  0.11180E+08
 0.10212000E+03  0.11225E+08
 0.10217000E+03  0.11280E+08
 0.10222000E+03  0.11346E+08
 0.10227000E+03  0.11398E+08
 0.10232000E+03  0.11438E+08
 0.10237000E+03  0.11467E+08
 0.10242000E+03  0.11479E+08
 0.10247000E+03  0.11484E+08
 0.10252000E+03  0.11492E+08
 0.10257000E+03  0.11527E+08
 0.10262000E+03  0.11587E+08
 0.10267000E+03  0.11659E+08
 0.10272000E+03  0.11747E+08
 0.10277000E+03  0.11827E+08
 0.10282000E+03  0.11896E+08
 0.10287000E+03  0.11966E+08
 0.10292000E+03  0.12013E+08
 0.10297000E+03  0.12014E+08
 0.10302000E+03  0.11978E+08
 0.10307000E+03  0.11932E+08
 0.10312000E+03  0.11890E+08
 0.10317000E+03  0.11867E+08
 0.10322000E+03  0.11864E+08
 0.10327000E+03  0.11874E+08
 0.10332000E+03  0.11882E+08
 0.10337000E+03  0.11876E+08
 0.10342000E+03  0.11855E+08
 0.10347000E+03  0.11818E+08
 0.10352000E+03  0.11769E+08
 0.10357000E+03  0.11698E+08
 0.10362000E+03  0.11614E+08
 0.10367000E+03  0.11527E+08
 0.10372000E+03  0.11439E+08
 0.10377000E+03  0.11369E+08
 0.10382000E+03  0.11313E+08
 0.10387000E+03  0.11278E+08
 0.10392000E+03  0.11259E+08
 0.10397000E+03  0.11237E+08
 0.10402000E+03  0.11215E+08
 0.10407000E+03  0.11206E+08
 0.10412000E+03  0.11195E+08
 0.10417000E+03  0.11158E+08
 0.10422000E+03  0.11116E+08
 0.10427000E+03  0.11066E+08
 0.10432000E+03  0.10998E+08
 0.10437000E+03  0.10935E+08
 0.10442000E+03  0.10874E+08
 0.10447000E+03  0.10828E+08
 0.10452000E+03  0.10801E+08
 0.10457000E+03  0.10777E+08
 0.10462000E+03  0.10764E+08
 0.10467000E+03  0.10771E+08
 0.10472000E+03  0.10797E+08
 0.10477000E+03  0.10836E+08
 0.10482000E+03  0.10881E+08
 0.10487000E+03  0.10916E+08
 0.10492000E+03  0.10933E+08
 0.10497000E+03  0.10922E+08
 0.10502000E+03  0.10902E+08
 0.10507000E+03  0.10888E+08
 0.10512000E+03  0.10880E+08
 0.10517000E+03  0.10907E+08
 0.10522000E+03  0.10966E+08
 0.10527000E+03  0.11045E+08
 0.10532000E+03  0.11137E+08
 0.10537000E+03  0.11228E+08
 0.10542000E+03  0.11318E+08
 0.10547000E+03  0.11404E+08
 0.10552000E+03  0.11482E+08
 0.10557000E+03  0.11552E+08
 0.10562000E+03  0.11602E+08
 0.10567000E+03  0.11614E+08
 0.10572000E+03  0.11596E+08
 0.10577000E+03  0.11568E+08
 0.10582000E+03  0.11537E+08
 0.10587000E+03  0.11497E+08
 0.10592000E+03  0.11451E+08
 0.10597000E+03  0.11403E+08
 0.10602000E+03  0.11355E+08
 0.10607000E+03  0.11324E+08
 0.10612000E+03  0.11309E+08
 0.10617000E+03  0.11293E+08
 0.10622000E+03  0.11263E+08
 0.10627000E+03  0.11222E+08
 0.10632000E+03  0.11176E+08
 0.10637000E+03  0.11132E+08
 0.10642000E+03  0.11096E+08
 0.10647000E+03  0.11059E+08
 0.10652000E+03  0.11027E+08
 0.10657000E+03  0.10996E+08
 0.10662000E+03  0.10949E+08
 0.10667000E+03  0.10892E+08
 0.10672000E+03  0.10838E+08
 0.10677000E+03  0.10799E+08
 0.10682000E+03  0.10783E+08
 0.10687000E+03  0.10792E+08
 0.10692000E+03  0.10817E+08
 0.10697000E+03  0.10844E+08
 0.10702000E+03  0.10873E+08
 0.10707000E+03  0.10907E+08
 0.10712000E+03  0.10945E+08
 0.10717000E+03  0.10981E+08
 0.10722000E+03  0.11013E+08
 0.10727000E+03  0.11047E+08
 0.10732000E+03  0.11088E+08
 0.10737000E+03  0.11138E+08
 0.10742000E+03  0.11198E+08
 0.10747000E+03  0.11262E+08
 0.10752000E+03  0.11323E+08
 0.10757000E+03  0.11386E+08
 0.10762000E+03  0.11451E+08
 0.10767000E+03  0.11517E+08
 0.10772000E+03  0.11583E+08
 0.10777000E+03  0.11627E+08
 0.10782000E+03  0.11640E+08
 0.10787000E+03  0.11640E+08
 0.10792000E+03  0.11642E+08
 0.10797000E+03  0.11649E+08
 0.10802000E+03  0.11664E+08
 0.10807000E+03  0.11677E+08
 0.10812000E+03  0.11683E+08
 0.10817000E+03  0.11679E+08
 0.10822000E+03  0.11663E+08
 0.10827000E+03  0.11658E+08
 0.10832000E+03  0.11672E+08
 0.10837000E+03  0.11702E+08
 0.10842000E+03  0.11747E+08
 0.10847000E+03  0.11791E+08
 0.10852000E+03  0.11832E+08
 0.10857000E+03  0.11881E+08
 0.10862000E+03  0.11922E+08
 0.10867000E+03  0.11938E+08
 0.10872000E+03  0.11914E+08
 0.10877000E+03  0.11866E+08
 0.10882000E+03  0.11809E+08
 0.10887000E+03  0.11743E+08
 0.10892000E+03  0.11678E+08
 0.10897000E+03  0.11606E+08
 0.10902000E+03  0.11530E+08
 0.10907000E+03  0.11449E+08
 0.10912000E+03  0.11361E+08
 0.10917000E+03  0.11278E+08
 0.10922000E+03  0.11209E+08
 0.10927000E+03  0.11149E+08
 0.10932000E+03  0.11088E+08
 0.10937000E+03  0.11036E+08
 0.10942000E+03  0.10991E+08
 0.10947000E+03  0.10947E+08
 0.10952000E+03  0.10911E+08
 0.10957000E+03  0.10883E+08
 0.10962000E+03  0.10869E+08
 0.10967000E+03  0.10865E+08
 0.10972000E+03  0.10860E+08
 0.10977000E+03  0.10852E+08
 0.10982000E+03  0.10840E+08
 0.10987000E+03  0.10832E+08
 0.10992000E+03  0.10841E+08
 0.10997000E+03  0.10867E+08
 0.11002000E+03  0.10900E+08
 0.11007000E+03  0.10940E+08
 0.11012000E+03  0.10974E+08
 0.11017000E+03  0.10996E+08
 0.11022000E+03  0.11021E+08
 0.11027000E+03  0.11051E+08
 0.11032000E+03  0.11078E+08
 0.11037000E+03  0.11100E+08
 0.11042000E+03  0.11115E+08
 0.11047000E+03  0.11113E+08
 0.11052000E+03  0.11091E+08
 0.11057000E+03  0.11059E+08
 0.11062000E+03  0.11034E+08
 0.11067000E+03  0.11026E+08
 0.11072000E+03  0.11025E+08
 0.11077000E+03  0.11027E+08
 0.11082000E+03  0.11038E+08
 0.11087000E+03  0.11053E+08
 0.11092000E+03  0.11072E+08
 0.11097000E+03  0.11083E+08
 0.11102000E+03  0.11077E+08
 0.11107000E+03  0.11063E+08
 0.11112000E+03  0.11038E+08
 0.11117000E+03  0.11008E+08
 0.11122000E+03  0.10977E+08
 0.11127000E+03  0.10950E+08
 0.11132000E+03  0.10927E+08
 0.11137000E+03  0.10908E+08
 0.11142000E+03  0.10899E+08
 0.11147000E+03  0.10899E+08
 0.11152000E+03  0.10904E+08
 0.11157000E+03  0.10924E+08
 0.11162000E+03  0.10966E+08
 0.11167000E+03  0.11013E+08
 0.11172000E+03  0.11049E+08
 0.11177000E+03  0.11070E+08
 0.11182000E+03  0.11072E+08
 0.11187000E+03  0.11065E+08
 0.11192000E+03  0.11059E+08
 0.11197000E+03  0.11062E+08
 0.11202000E+03  0.11082E+08
 0.11207000E+03  0.11121E+08
 0.11212000E+03  0.11171E+08
 0.11217000E+03  0.11221E+08
 0.11222000E+03  0.11258E+08
 0.11227000E+03  0.11276E+08
 0.11232000E+03  0.11283E+08
 0.11237000E+03  0.11287E+08
 0.11242000E+03  0.11291E+08
 0.11247000E+03  0.11304E+08
 0.11252000E+03  0.11337E+08
 0.11257000E+03  0.11374E+08
 0.11262000E+03  0.11387E+08
 0.11267000E+03  0.11384E+08
 0.11272000E+03  0.11360E+08
 0.11277000E+03  0.11311E+08
 0.11282000E+03  0.11255E+08
 0.11287000E+03  0.11198E+08
 0.11292000E+03  0.11137E+08
 0.11297000E+03  0.11068E+08
 0.11302000E+03  0.10991E+08
 0.11307000E+03  0.10912E+08
 0.11312000E+03  0.10828E+08
 0.11317000E+03  0.10741E+08
 0.11322000E+03  0.10670E+08
 0.11327000E+03  0.10622E+08
 0.11332000E+03  0.10594E+08
 0.11337000E+03  0.10582E+08
 0.11342000E+03  0.10579E+08
 0.11347000E+03  0.10578E+08
 0.11352000E+03  0.10576E+08
 0.11357000E+03  0.10576E+08
 0.11362000E+03  0.10579E+08
 0.11367000E+03  0.10592E+08
 0.11372000E+03  0.10621E+08
 0.11377000E+03  0.10661E+08
 0.11382000E+03  0.10703E+08
 0.11387000E+03  0.10738E+08
 0.11392000E+03  0.10761E+08
 0.11397000E+03  0.10783E+08
 0.11402000E+03  0.10811E+08
 0.11407000E+03  0.10837E+08
 0.11412000E+03  0.10863E+08
 0.11417000E+03  0.10895E+08
 0.11422000E+03  0.10929E+08
 0.11427000E+03  0.10965E+08
 0.11432000E+03  0.10990E+08
 0.11437000E+03  0.11002E+08
 0.11442000E+03  0.10999E+08
 0.11447000E+03  0.10981E+08
 0.11452000E+03  0.10953E+08
 0.11457000E+03  0.10920E+08
 0.11462000E+03  0.10890E+08
 0.11467000E+03  0.10862E+08
 0.11472000E+03  0.10833E+08
 0.11477000E+03  0.10791E+08
 0.11482000E+03  0.10739E+08
 0.11487000E+03  0.10678E+08
 0.11492000E+03  0.10609E+08
 0.11497000E+03  0.10554E+08
 0.11502000E+03  0.10508E+08
 0.11507000E+03  0.10482E+08
 0.11512000E+03  0.10485E+08
 0.11517000E+03  0.10497E+08
 0.11522000E+03  0.10501E+08
 0.11527000E+03  0.10504E+08
 0.11532000E+03  0.10499E+08
 0.11537000E+03  0.10482E+08
 0.11542000E+03  0.10493E+08
 0.11547000E+03  0.10507E+08
 0.11552000E+03  0.10531E+08
 0.11557000E+03  0.10570E+08
 0.11562000E+03  0.10598E+08
 0.11567000E+03  0.10629E+08
 0.11572000E+03  0.10652E+08
 0.11577000E+03  0.10669E+08
 0.11582000E+03  0.10674E+08
 0.11587000E+03  0.10677E+08
 0.11592000E+03  0.10675E+08
 0.11597000E+03  0.10661E+08
 0.11602000E+03  0.10650E+08
 0.11607000E+03  0.10625E+08
 0.11612000E+03  0.10597E+08
 0.11617000E+03  0.10572E+08
 0.11622000E+03  0.10561E+08
 0.11627000E+03  0.10564E+08
 0.11632000E+03  0.10570E+08
 0.11637000E+03  0.10577E+08
 0.11642000E+03  0.10579E+08
 0.11647000E+03  0.10591E+08
 0.11652000E+03  0.10601E+08
 0.11657000E+03  0.10596E+08
 0.11662000E+03  0.10586E+08
 0.11667000E+03  0.10572E+08
 0.11672000E+03  0.10551E+08
 0.11677000E+03  0.10536E+08
 0.11682000E+03  0.10533E+08
 0.11687000E+03  0.10543E+08
 0.11692000E+03  0.10579E+08
 0.11697000E+03  0.10625E+08
 0.11702000E+03  0.10678E+08
 0.11707000E+03  0.10743E+08
 0.11712000E+03  0.10811E+08
 0.11717000E+03  0.10884E+08
 0.11722000E+03  0.10956E+08
 0.11727000E+03  0.11024E+08
 0.11732000E+03  0.11077E+08
 0.11737000E+03  0.11113E+08
 0.11742000E+03  0.11141E+08
 0.11747000E+03  0.11153E+08
 0.11752000E+03  0.11156E+08
 0.11757000E+03  0.11157E+08
 0.11762000E+03  0.11153E+08
 0.11767000E+03  0.11137E+08
 0.11772000E+03  0.11114E+08
 0.11777000E+03  0.11078E+08
 0.11782000E+03  0.11022E+08
 0.11787000E+03  0.10959E+08
 0.11792000E+03  0.10902E+08
 0.11797000E+03  0.10849E+08
 0.11802000E+03  0.10787E+08
 0.11807000E+03  0.10712E+08
 0.11812000E+03  0.10632E+08
 0.11817000E+03  0.10559E+08
 0.11822000E+03  0.10492E+08
 0.11827000E+03  0.10414E+08
 0.11832000E+03  0.10328E+08
 0.11837000E+03  0.10246E+08
 0.11842000E+03  0.10176E+08
 0.11847000E+03  0.10120E+08
 0.11852000E+03  0.10074E+08
 0.11857000E+03  0.10035E+08
 0.11862000E+03  0.10005E+08
 0.11867000E+03  0.99898E+07
 0.11872000E+03  0.99902E+07
 0.11877000E+03  0.10008E+08
 0.11882000E+03  0.10038E+08
 0.11887000E+03  0.10077E+08
 0.11892000E+03  0.10114E+08
 0.11897000E+03  0.10137E+08
 0.11902000E+03  0.10153E+08
 0.11907000E+03  0.10173E+08
 0.11912000E+03  0.10201E+08
 0.11917000E+03  0.10237E+08
 0.11922000E+03  0.10281E+08
 0.11927000E+03  0.10333E+08
 0.11932000E+03  0.10387E+08
 0.11937000E+03  0.10445E+08
 0.11942000E+03  0.10500E+08
 0.11947000E+03  0.10545E+08
 0.11952000E+03  0.10582E+08
 0.11957000E+03  0.10612E+08
 0.11962000E+03  0.10637E+08
 0.11967000E+03  0.10663E+08
 0.11972000E+03  0.10696E+08
 0.11977000E+03  0.10730E+08
 0.11982000E+03  0.10763E+08
 0.11987000E+03  0.10790E+08
 0.11992000E+03  0.10802E+08
 0.11997000E+03  0.10798E+08
 0.12002000E+03  0.10786E+08
 0.12007000E+03  0.10767E+08
 0.12012000E+03  0.10745E+08
 0.12017000E+03  0.10713E+08
 0.12022000E+03  0.10675E+08
 0.12027000E+03  0.10640E+08
 0.12032000E+03  0.10600E+08
 0.12037000E+03  0.10550E+08
 0.12042000E+03  0.10493E+08
 0.12047000E+03  0.10442E+08
 0.12052000E+03  0.10395E+08
 0.12057000E+03  0.10339E+08
 0.12062000E+03  0.10277E+08
 0.12067000E+03  0.10218E+08
 0.12072000E+03  0.10163E+08
 0.12077000E+03  0.10106E+08
 0.12082000E+03  0.10051E+08
 0.12087000E+03  0.10005E+08
 0.12092000E+03  0.99683E+07
 0.12097000E+03  0.99465E+07
 0.12102000E+03  0.99300E+07
 0.12107000E+03  0.99093E+07
 0.12112000E+03  0.98844E+07
 0.12117000E+03  0.98547E+07
 0.12122000E+03  0.98228E+07
 0.12127000E+03  0.97886E+07
 0.12132000E+03  0.97516E+07
 0.12137000E+03  0.97120E+07
 0.12142000E+03  0.96727E+07
 0.12147000E+03  0.96377E+07
 0.12152000E+03  0.96120E+07
 0.12157000E+03  0.95953E+07
 0.12162000E+03  0.95840E+07
 0.12167000E+03  0.95779E+07
 0.12172000E+03  0.95702E+07
 0.12177000E+03  0.95610E+07
 0.12182000E+03  0.95567E+07
 0.12187000E+03  0.95665E+07
 0.12192000E+03  0.95927E+07
 0.12197000E+03  0.96229E+07
 0.12202000E+03  0.96554E+07
 0.12207000E+03  0.96874E+07
 0.12212000E+03  0.97235E+07
 0.12217000E+03  0.97738E+07
 0.12222000E+03  0.98293E+07
 0.12227000E+03  0.98868E+07
 0.12232000E+03  0.99423E+07
 0.12237000E+03  0.99894E+07
 0.12242000E+03  0.10028E+08
 0.12247000E+03  0.10058E+08
 0.12252000E+03  0.10087E+08
 0.12257000E+03  0.10116E+08
 0.12262000E+03  0.10145E+08
 0.12267000E+03  0.10179E+08
 0.12272000E+03  0.10211E+08
 0.12277000E+03  0.10233E+08
 0.12282000E+03  0.10248E+08
 0.12287000E+03  0.10264E+08
 0.12292000E+03  0.10278E+08
 0.12297000E+03  0.10284E+08
 0.12302000E+03  0.10282E+08
 0.12307000E+03  0.10271E+08
 0.12312000E+03  0.10251E+08
 0.12317000E+03  0.10227E+08
 0.12322000E+03  0.10204E+08
 0.12327000E+03  0.10185E+08
 0.12332000E+03  0.10179E+08
 0.12337000E+03  0.10185E+08
 0.12342000E+03  0.10191E+08
 0.12347000E+03  0.10190E+08
 0.12352000E+03  0.10186E+08
 0.12357000E+03  0.10187E+08
 0.12362000E+03  0.10204E+08
 0.12367000E+03  0.10229E+08
 0.12372000E+03  0.10246E+08
 0.12377000E+03  0.10250E+08
 0.12382000E+03  0.10245E+08
 0.12387000E+03  0.10246E+08
 0.12392000E+03  0.10257E+08
 0.12397000E+03  0.10271E+08
 0.12402000E+03  0.10283E+08
 0.12407000E+03  0.10291E+08
 0.12412000E+03  0.10290E+08
 0.12417000E+03  0.10277E+08
 0.12422000E+03  0.10262E+08
 0.12427000E+03  0.10253E+08
 0.12432000E+03  0.10246E+08
 0.12437000E+03  0.10234E+08
 0.12442000E+03  0.10218E+08
 0.12447000E+03  0.10197E+08
 0.12452000E+03  0.10168E+08
 0.12457000E+03  0.10127E+08
 0.12462000E+03  0.10077E+08
 0.12467000E+03  0.10026E+08
 0.12472000E+03  0.99749E+07
 0.12477000E+03  0.99281E+07
 0.12482000E+03  0.98846E+07
 0.12487000E+03  0.98348E+07
 0.12492000E+03  0.97717E+07
 0.12497000E+03  0.97043E+07
 0.12502000E+03  0.96386E+07
 0.12507000E+03  0.95737E+07
 0.12512000E+03  0.95134E+07
 0.12517001E+03  0.94610E+07
 0.12521999E+03  0.94207E+07
 0.12527000E+03  0.93947E+07
 0.12532000E+03  0.93801E+07
 0.12537000E+03  0.93733E+07
 0.12542001E+03  0.93793E+07
 0.12546999E+03  0.94031E+07
 0.12552000E+03  0.94416E+07
 0.12557000E+03  0.94877E+07
 0.12562000E+03  0.95338E+07
 0.12567001E+03  0.95728E+07
 0.12571999E+03  0.96016E+07
 0.12577000E+03  0.96260E+07
 0.12582000E+03  0.96472E+07
 0.12587000E+03  0.96667E+07
 0.12592001E+03  0.96881E+07
 0.12596999E+03  0.97108E+07
 0.12602000E+03  0.97345E+07
 0.12607000E+03  0.97569E+07
 0.12612000E+03  0.97772E+07
 0.12617001E+03  0.97924E+07
 0.12621999E+03  0.98001E+07
 0.12627000E+03  0.97978E+07
 0.12632000E+03  0.97852E+07
 0.12637000E+03  0.97678E+07
 0.12642001E+03  0.97516E+07
 0.12646999E+03  0.97400E+07
 0.12652000E+03  0.97306E+07
 0.12657000E+03  0.97207E+07
 0.12662000E+03  0.97101E+07
 0.12667001E+03  0.97003E+07
 0.12671999E+03  0.96872E+07
 0.12677000E+03  0.96647E+07
 0.12682000E+03  0.96360E+07
 0.12687000E+03  0.96065E+07
 0.12692001E+03  0.95803E+07
 0.12696999E+03  0.95596E+07
 0.12702000E+03  0.95399E+07
 0.12707000E+03  0.95160E+07
 0.12712000E+03  0.94822E+07
 0.12717001E+03  0.94368E+07
 0.12721999E+03  0.93912E+07
 0.12727000E+03  0.93544E+07
 0.12732000E+03  0.93264E+07
 0.12737000E+03  0.93092E+07
 0.12742001E+03  0.93050E+07
 0.12746999E+03  0.93063E+07
 0.12752000E+03  0.93086E+07
 0.12757000E+03  0.93141E+07
 0.12762000E+03  0.93249E+07
 0.12767001E+03  0.93453E+07
 0.12771999E+03  0.93693E+07
 0.12777000E+03  0.93926E+07
 0.12782000E+03  0.94156E+07
 0.12787000E+03  0.94398E+07
 0.12792001E+03  0.94718E+07
 0.12796999E+03  0.95089E+07
 0.12802000E+03  0.95406E+07
 0.12807001E+03  0.95609E+07
 0.12812001E+03  0.95747E+07
 0.12817001E+03  0.95874E+07
 0.12822000E+03  0.96032E+07
 0.12827000E+03  0.96256E+07
 0.12832001E+03  0.96504E+07
 0.12837001E+03  0.96756E+07
 0.12842001E+03  0.96976E+07
 0.12847000E+03  0.97081E+07
 0.12852000E+03  0.97038E+07
 0.12857001E+03  0.96824E+07
 0.12862001E+03  0.96504E+07
 0.12867001E+03  0.96238E+07
 0.12872000E+03  0.96042E+07
 0.12877000E+03  0.95855E+07
 0.12882001E+03  0.95663E+07
 0.12887001E+03  0.95458E+07
 0.12892001E+03  0.95210E+07
 0.12897000E+03  0.94876E+07
 0.12902000E+03  0.94483E+07
 0.12907001E+03  0.94093E+07
 0.12912001E+03  0.93742E+07
 0.12917001E+03  0.93379E+07
 0.12922000E+03  0.92998E+07
 0.12927000E+03  0.92649E+07
 0.12932001E+03  0.92356E+07
 0.12937001E+03  0.92172E+07
 0.12942001E+03  0.91995E+07
 0.12947000E+03  0.91754E+07
 0.12952000E+03  0.91487E+07
 0.12957001E+03  0.91166E+07
 0.12962001E+03  0.90831E+07
 0.12967001E+03  0.90537E+07
 0.12972000E+03  0.90280E+07
 0.12977000E+03  0.90010E+07
 0.12982001E+03  0.89669E+07
 0.12987001E+03  0.89266E+07
 0.12992001E+03  0.88921E+07
 0.12997000E+03  0.88659E+07
 0.13002000E+03  0.88434E+07
 0.13007001E+03  0.88285E+07
 0.13012001E+03  0.88185E+07
 0.13017001E+03  0.88108E+07
 0.13022000E+03  0.88085E+07
 0.13027000E+03  0.88129E+07
 0.13032001E+03  0.88212E+07
 0.13037001E+03  0.88271E+07
 0.13042001E+03  0.88322E+07
 0.13047000E+03  0.88423E+07
 0.13052000E+03  0.88534E+07
 0.13057001E+03  0.88673E+07
 0.13062001E+03  0.88915E+07
 0.13067001E+03  0.89232E+07
 0.13072000E+03  0.89626E+07
 0.13077000E+03  0.90088E+07
 0.13082001E+03  0.90577E+07
 0.13087001E+03  0.91077E+07
 0.13092001E+03  0.91523E+07
 0.13097000E+03  0.91889E+07
 0.13102000E+03  0.92204E+07
 0.13107001E+03  0.92508E+07
 0.13112001E+03  0.92817E+07
 0.13117001E+03  0.93079E+07
 0.13122000E+03  0.93280E+07
 0.13127000E+03  0.93437E+07
 0.13132001E+03  0.93541E+07
 0.13137001E+03  0.93557E+07
 0.13142001E+03  0.93502E+07
 0.13147000E+03  0.93414E+07
 0.13152000E+03  0.93272E+07
 0.13157001E+03  0.93081E+07
 0.13162001E+03  0.92839E+07
 0.13167001E+03  0.92549E+07
 0.13172000E+03  0.92243E+07
 0.13177000E+03  0.91912E+07
 0.13182001E+03  0.91516E+07
 0.13187001E+03  0.91043E+07
 0.13192001E+03  0.90583E+07
 0.13197000E+03  0.90175E+07
 0.13202000E+03  0.89786E+07
 0.13207001E+03  0.89488E+07
 0.13212001E+03  0.89345E+07
 0.13217001E+03  0.89342E+07
 0.13222000E+03  0.89429E+07
 0.13227000E+03  0.89564E+07
 0.13232001E+03  0.89689E+07
 0.13237001E+03  0.89740E+07
 0.13242001E+03  0.89706E+07
 0.13247000E+03  0.89631E+07
 0.13252000E+03  0.89595E+07
 0.13257001E+03  0.89618E+07
 0.13262001E+03  0.89642E+07
 0.13267001E+03  0.89617E+07
 0.13272000E+03  0.89526E+07
 0.13277000E+03  0.89400E+07
 0.13282001E+03  0.89278E+07
 0.13287001E+03  0.89115E+07
 0.13292001E+03  0.88925E+07
 0.13297000E+03  0.88793E+07
 0.13302000E+03  0.88684E+07
 0.13307001E+03  0.88573E+07
 0.13312001E+03  0.88501E+07
 0.13317001E+03  0.88483E+07
 0.13322000E+03  0.88538E+07
 0.13327000E+03  0.88618E+07
 0.13332001E+03  0.88669E+07
 0.13337001E+03  0.88704E+07
 0.13342001E+03  0.88738E+07
 0.13347000E+03  0.88782E+07
 0.13352000E+03  0.88814E+07
 0.13357001E+03  0.88834E+07
 0.13362001E+03  0.88837E+07
 0.13367001E+03  0.88762E+07
 0.13372000E+03  0.88612E+07
 0.13377000E+03  0.88417E+07
 0.13382001E+03  0.88211E+07
 0.13387001E+03  0.88067E+07
 0.13392001E+03  0.87993E+07
 0.13397000E+03  0.87948E+07
 0.13402000E+03  0.87946E+07
 0.13407001E+03  0.88030E+07
 0.13412001E+03  0.88203E+07
 0.13417001E+03  0.88444E+07
 0.13422000E+03  0.88658E+07
 0.13427000E+03  0.88796E+07
 0.13432001E+03  0.88895E+07
 0.13437001E+03  0.88949E+07
 0.13442001E+03  0.88957E+07
 0.13447000E+03  0.88861E+07
 0.13452000E+03  0.88640E+07
 0.13457001E+03  0.88346E+07
 0.13462001E+03  0.87990E+07
 0.13467001E+03  0.87576E+07
 0.13472000E+03  0.87121E+07
 0.13477000E+03  0.86679E+07
 0.13482001E+03  0.86284E+07
 0.13487001E+03  0.85960E+07
 0.13492001E+03  0.85675E+07
 0.13497000E+03  0.85398E+07
 0.13502000E+03  0.85141E+07
 0.13507001E+03  0.84846E+07
 0.13512001E+03  0.84511E+07
 0.13517001E+03  0.84136E+07
 0.13522000E+03  0.83762E+07
 0.13527000E+03  0.83482E+07
 0.13532001E+03  0.83318E+07
 0.13537001E+03  0.83256E+07
 0.13542001E+03  0.83247E+07
 0.13547000E+03  0.83255E+07
 0.13552000E+03  0.83235E+07
 0.13557001E+03  0.83174E+07
 0.13562001E+03  0.83075E+07
 0.13567001E+03  0.82914E+07
 0.13572000E+03  0.82713E+07
 0.13577000E+03  0.82504E+07
 0.13582001E+03  0.82265E+07
 0.13587001E+03  0.81948E+07
 0.13592001E+03  0.81550E+07
 0.13597000E+03  0.81123E+07
 0.13602000E+03  0.80739E+07
 0.13607001E+03  0.80477E+07
 0.13612001E+03  0.80353E+07
 0.13617001E+03  0.80311E+07
 0.13622000E+03  0.80296E+07
 0.13627000E+03  0.80315E+07
 0.13632001E+03  0.80356E+07
 0.13637001E+03  0.80367E+07
 0.13642001E+03  0.80357E+07
 0.13647000E+03  0.80372E+07
 0.13652000E+03  0.80386E+07
 0.13657001E+03  0.80386E+07
 0.13662001E+03  0.80379E+07
 0.13667001E+03  0.80368E+07
 0.13672000E+03  0.80382E+07
 0.13677000E+03  0.80424E+07
 0.13682001E+03  0.80485E+07
 0.13687001E+03  0.80537E+07
 0.13692001E+03  0.80574E+07
 0.13697000E+03  0.80585E+07
 0.13702000E+03  0.80551E+07
 0.13707001E+03  0.80532E+07
 0.13712001E+03  0.80541E+07
 0.13717001E+03  0.80570E+07
 0.13722000E+03  0.80687E+07
 0.13727000E+03  0.80902E+07
 0.13732001E+03  0.81223E+07
 0.13737001E+03  0.81681E+07
 0.13742001E+03  0.82249E+07
 0.13747000E+03  0.82883E+07
 0.13752000E+03  0.83541E+07
 0.13757001E+03  0.84204E+07
 0.13762001E+03  0.84857E+07
 0.13767001E+03  0.85496E+07
 0.13772000E+03  0.86063E+07
 0.13777000E+03  0.86522E+07
 0.13782001E+03  0.86989E+07
 0.13787001E+03  0.87496E+07
 0.13792001E+03  0.87968E+07
 0.13797000E+03  0.88374E+07
 0.13802000E+03  0.88741E+07
 0.13807001E+03  0.89024E+07
 0.13812001E+03  0.89138E+07
 0.13817001E+03  0.89146E+07
 0.13822000E+03  0.89074E+07
 0.13827000E+03  0.88864E+07
 0.13832001E+03  0.88544E+07
 0.13837001E+03  0.88187E+07
 0.13842001E+03  0.87787E+07
 0.13847000E+03  0.87337E+07
 0.13852000E+03  0.86864E+07
 0.13857001E+03  0.86345E+07
 0.13862001E+03  0.85782E+07
 0.13867001E+03  0.85202E+07
 0.13872000E+03  0.84604E+07
 0.13877000E+03  0.83948E+07
 0.13882001E+03  0.83214E+07
 0.13887001E+03  0.82442E+07
 0.13892001E+03  0.81677E+07
 0.13897000E+03  0.80959E+07
 0.13902000E+03  0.80300E+07
 0.13907001E+03  0.79706E+07
 0.13912001E+03  0.79154E+07
 0.13917001E+03  0.78612E+07
 0.13922000E+03  0.78097E+07
 0.13927000E+03  0.77636E+07
 0.13932001E+03  0.77246E+07
 0.13937001E+03  0.77006E+07
 0.13942001E+03  0.76950E+07
 0.13947000E+03  0.76972E+07
 0.13952000E+03  0.77027E+07
 0.13957001E+03  0.77089E+07
 0.13962001E+03  0.77136E+07
 0.13967001E+03  0.77192E+07
 0.13972000E+03  0.77273E+07
 0.13977000E+03  0.77389E+07
 0.13982001E+03  0.77552E+07
 0.13987001E+03  0.77735E+07
 0.13992001E+03  0.77903E+07
 0.13997000E+03  0.78111E+07
 0.14002000E+03  0.78332E+07
 0.14007001E+03  0.78540E+07
 0.14012001E+03  0.78761E+07
 0.14017001E+03  0.78956E+07
 0.14022000E+03  0.79150E+07
 0.14027000E+03  0.79362E+07
 0.14032001E+03  0.79527E+07
 0.14037001E+03  0.79665E+07
 0.14042001E+03  0.79783E+07
 0.14047000E+03  0.79790E+07
 0.14052000E+03  0.79780E+07
 0.14057001E+03  0.79826E+07
 0.14062001E+03  0.79865E+07
 0.14067001E+03  0.79913E+07
 0.14072000E+03  0.79924E+07
 0.14077000E+03  0.79861E+07
 0.14082001E+03  0.79753E+07
 0.14087001E+03  0.79554E+07
 0.14092001E+03  0.79293E+07
 0.14097000E+03  0.79050E+07
 0.14102000E+03  0.78835E+07
 0.14107001E+03  0.78707E+07
 0.14112001E+03  0.78683E+07
 0.14117001E+03  0.78688E+07
 0.14122000E+03  0.78705E+07
 0.14127000E+03  0.78731E+07
 0.14132001E+03  0.78782E+07
 0.14137001E+03  0.78867E+07
 0.14142001E+03  0.78954E+07
 0.14147000E+03  0.79047E+07
 0.14152000E+03  0.79114E+07
 0.14157001E+03  0.79107E+07
 0.14162001E+03  0.79039E+07
 0.14167001E+03  0.78911E+07
 0.14172000E+03  0.78692E+07
 0.14177000E+03  0.78395E+07
 0.14182001E+03  0.78029E+07
 0.14187001E+03  0.77643E+07
 0.14192001E+03  0.77325E+07
 0.14197000E+03  0.77064E+07
 0.14202000E+03  0.76813E+07
 0.14207001E+03  0.76580E+07
 0.14212001E+03  0.76407E+07
 0.14217001E+03  0.76282E+07
 0.14222000E+03  0.76184E+07
 0.14227000E+03  0.76149E+07
 0.14232001E+03  0.76183E+07
 0.14237001E+03  0.76289E+07
 0.14242001E+03  0.76420E+07
 0.14247000E+03  0.76539E+07
 0.14252000E+03  0.76706E+07
 0.14257001E+03  0.76886E+07
 0.14262001E+03  0.76968E+07
 0.14267001E+03  0.76957E+07
 0.14272000E+03  0.76901E+07
 0.14277000E+03  0.76815E+07
 0.14282001E+03  0.76673E+07
 0.14287001E+03  0.76509E+07
 0.14292001E+03  0.76360E+07
 0.14297000E+03  0.76253E+07
 0.14302000E+03  0.76211E+07
 0.14307001E+03  0.76200E+07
 0.14312001E+03  0.76258E+07
 0.14317001E+03  0.76431E+07
 0.14322000E+03  0.76710E+07
 0.14327000E+03  0.77049E+07
 0.14332001E+03  0.77419E+07
 0.14337001E+03  0.77736E+07
 0.14342001E+03  0.77933E+07
 0.14347000E+03  0.78048E+07
 0.14352000E+03  0.78049E+07
 0.14357001E+03  0.77967E+07
 0.14362001E+03  0.77846E+07
 0.14367001E+03  0.77665E+07
 0.14372000E+03  0.77434E+07
 0.14377000E+03  0.77138E+07
 0.14382001E+03  0.76796E+07
 0.14387001E+03  0.76446E+07
 0.14392001E+03  0.76073E+07
 0.14397000E+03  0.75690E+07
 0.14402000E+03  0.75348E+07
 0.14407001E+03  0.75070E+07
 0.14412001E+03  0.74813E+07
 0.14417001E+03  0.74572E+07
 0.14422000E+03  0.74322E+07
 0.14427000E+03  0.74022E+07
 0.14432001E+03  0.73724E+07
 0.14437001E+03  0.73465E+07
 0.14442001E+03  0.73264E+07
 0.14447000E+03  0.73067E+07
 0.14452000E+03  0.72853E+07
 0.14457001E+03  0.72697E+07
 0.14462001E+03  0.72552E+07
 0.14467001E+03  0.72417E+07
 0.14472000E+03  0.72360E+07
 0.14477000E+03  0.72377E+07
 0.14482001E+03  0.72435E+07
 0.14487001E+03  0.72504E+07
 0.14492001E+03  0.72572E+07
 0.14497000E+03  0.72631E+07
 0.14502000E+03  0.72675E+07
 0.14507001E+03  0.72692E+07
 0.14512001E+03  0.72690E+07
 0.14517001E+03  0.72686E+07
 0.14522000E+03  0.72722E+07
 0.14527000E+03  0.72813E+07
 0.14532001E+03  0.72900E+07
 0.14537001E+03  0.72947E+07
 0.14542001E+03  0.72971E+07
 0.14547000E+03  0.72959E+07
 0.14552000E+03  0.72873E+07
 0.14557001E+03  0.72747E+07
 0.14562001E+03  0.72646E+07
 0.14567001E+03  0.72561E+07
 0.14572000E+03  0.72449E+07
 0.14577000E+03  0.72286E+07
 0.14582001E+03  0.72059E+07
 0.14587001E+03  0.71795E+07
 0.14592001E+03  0.71516E+07
 0.14597000E+03  0.71223E+07
 0.14602000E+03  0.70930E+07
 0.14607001E+03  0.70608E+07
 0.14612001E+03  0.70239E+07
 0.14617001E+03  0.69845E+07
 0.14622000E+03  0.69442E+07
 0.14627000E+03  0.69039E+07
 0.14632001E+03  0.68641E+07
 0.14637001E+03  0.68260E+07
 0.14642001E+03  0.67903E+07
 0.14647000E+03  0.67572E+07
 0.14652000E+03  0.67299E+07
 0.14657001E+03  0.67106E+07
 0.14662001E+03  0.66966E+07
 0.14667001E+03  0.66824E+07
 0.14672000E+03  0.66699E+07
 0.14677000E+03  0.66648E+07
 0.14682001E+03  0.66645E+07
 0.14687001E+03  0.66693E+07
 0.14692001E+03  0.66831E+07
 0.14697000E+03  0.67035E+07
 0.14702000E+03  0.67264E+07
 0.14707001E+03  0.67481E+07
 0.14712001E+03  0.67666E+07
 0.14717001E+03  0.67792E+07
 0.14722000E+03  0.67855E+07
 0.14727000E+03  0.67901E+07
 0.14732001E+03  0.67916E+07
 0.14737001E+03  0.67923E+07
 0.14742001E+03  0.68039E+07
 0.14747000E+03  0.68294E+07
 0.14752000E+03  0.68605E+07
 0.14757001E+03  0.68900E+07
 0.14762001E+03  0.69146E+07
 0.14767001E+03  0.69334E+07
 0.14772000E+03  0.69480E+07
 0.14777000E+03  0.69595E+07
 0.14782001E+03  0.69704E+07
 0.14787001E+03  0.69805E+07
 0.14792001E+03  0.69895E+07
 0.14797000E+03  0.69984E+07
 0.14802000E+03  0.70057E+07
 0.14807001E+03  0.70077E+07
 0.14812001E+03  0.70007E+07
 0.14817001E+03  0.69886E+07
 0.14822000E+03  0.69757E+07
 0.14827000E+03  0.69576E+07
 0.14832001E+03  0.69320E+07
 0.14837001E+03  0.69070E+07
 0.14842001E+03  0.68838E+07
 0.14847000E+03  0.68585E+07
 0.14852000E+03  0.68319E+07
 0.14857001E+03  0.68050E+07
 0.14862001E+03  0.67778E+07
 0.14867001E+03  0.67495E+07
 0.14872000E+03  0.67207E+07
 0.14877000E+03  0.66906E+07
 0.14882001E+03  0.66612E+07
 0.14887001E+03  0.66354E+07
 0.14892001E+03  0.66115E+07
 0.14897000E+03  0.65932E+07
 0.14902000E+03  0.65833E+07
 0.14907001E+03  0.65810E+07
 0.14912001E+03  0.65820E+07
 0.14917001E+03  0.65821E+07
 0.14922000E+03  0.65823E+07
 0.14927000E+03  0.65824E+07
 0.14932001E+03  0.65814E+07
 0.14937001E+03  0.65794E+07
 0.14942001E+03  0.65721E+07
 0.14947000E+03  0.65616E+07
 0.14952000E+03  0.65492E+07
 0.14957001E+03  0.65354E+07
 0.14962001E+03  0.65301E+07
 0.14967001E+03  0.65306E+07
 0.14972000E+03  0.65354E+07
 0.14977000E+03  0.65480E+07
 0.14982001E+03  0.65680E+07
 0.14987001E+03  0.65845E+07
 0.14992001E+03  0.65927E+07
 0.14997000E+03  0.65894E+07
