-0.30000000E+01 -0.11463E+05
-0.29500000E+01 -0.95150E+04
-0.29000001E+01 -0.74220E+04
-0.28499999E+01 -0.49730E+04
-0.28000000E+01 -0.21700E+04
-0.27500000E+01  0.77000E+03
-0.27000000E+01  0.36710E+04
-0.26500001E+01  0.62780E+04
-0.25999999E+01  0.84580E+04
-0.25500000E+01  0.10132E+05
-0.25000000E+01  0.10808E+05
-0.24500000E+01  0.10365E+05
-0.24000001E+01  0.94210E+04
-0.23499999E+01  0.84130E+04
-0.23000000E+01  0.74110E+04
-0.22500000E+01  0.65550E+04
-0.22000000E+01  0.61590E+04
-0.21500001E+01  0.62760E+04
-0.20999999E+01  0.66400E+04
-0.20500000E+01  0.71730E+04
-0.20000000E+01  0.78490E+04
-0.19499999E+01  0.84650E+04
-0.19000000E+01  0.87440E+04
-0.18500000E+01  0.84700E+04
-0.18000000E+01  0.78800E+04
-0.17500000E+01  0.72860E+04
-0.16999999E+01  0.64890E+04
-0.16500000E+01  0.53360E+04
-0.16000000E+01  0.38230E+04
-0.15500000E+01  0.16910E+04
-0.15000000E+01 -0.10050E+04
-0.14499999E+01 -0.37750E+04
-0.14000000E+01 -0.64120E+04
-0.13500000E+01 -0.88580E+04
-0.13000000E+01 -0.10962E+05
-0.12500000E+01 -0.12684E+05
-0.11999999E+01 -0.14029E+05
-0.11500000E+01 -0.15035E+05
-0.11000000E+01 -0.15759E+05
-0.10500000E+01 -0.16093E+05
-0.10000000E+01 -0.15985E+05
-0.95000005E+00 -0.15612E+05
-0.89999986E+00 -0.15016E+05
-0.84999990E+00 -0.14170E+05
-0.79999995E+00 -0.13122E+05
-0.75000000E+00 -0.11692E+05
-0.70000005E+00 -0.96070E+04
-0.64999986E+00 -0.68200E+04
-0.59999990E+00 -0.37230E+04
-0.54999995E+00 -0.90700E+03
-0.50000000E+00  0.13290E+04
-0.45000005E+00  0.27940E+04
-0.39999986E+00  0.33880E+04
-0.34999990E+00  0.32990E+04
-0.29999995E+00  0.28770E+04
-0.25000000E+00  0.25560E+04
-0.20000005E+00  0.25740E+04
-0.14999986E+00  0.27860E+04
-0.99999905E-01  0.29310E+04
-0.49999952E-01  0.28510E+04
 0.00000000E+00  0.24740E+04
 0.49999952E-01  0.17640E+04
 0.10000014E+00  0.75300E+03
 0.15000010E+00 -0.43900E+03
 0.20000005E+00 -0.16260E+04
 0.25000000E+00 -0.25410E+04
 0.29999995E+00 -0.30170E+04
 0.35000014E+00 -0.32030E+04
 0.40000010E+00 -0.33340E+04
 0.45000005E+00 -0.34160E+04
 0.50000000E+00 -0.34770E+04
 0.54999995E+00 -0.35960E+04
 0.60000014E+00 -0.34660E+04
 0.65000010E+00 -0.28840E+04
 0.70000005E+00 -0.22420E+04
 0.75000000E+00 -0.19430E+04
 0.79999995E+00 -0.18370E+04
 0.85000014E+00 -0.14660E+04
 0.90000010E+00 -0.76000E+03
 0.95000005E+00 -0.86000E+02
 0.10000000E+01  0.48500E+03
 0.10500002E+01  0.14020E+04
 0.10999999E+01  0.30230E+04
 0.11500001E+01  0.51720E+04
 0.12000003E+01  0.73810E+04
 0.12500000E+01  0.93800E+04
 0.13000002E+01  0.10977E+05
 0.13499999E+01  0.11934E+05
 0.14000001E+01  0.12470E+05
 0.14500003E+01  0.12939E+05
 0.15000000E+01  0.13215E+05
 0.15500002E+01  0.13122E+05
 0.15999999E+01  0.12834E+05
 0.16500001E+01  0.12552E+05
 0.17000003E+01  0.12336E+05
 0.17500000E+01  0.12280E+05
 0.18000002E+01  0.12140E+05
 0.18499999E+01  0.11257E+05
 0.19000001E+01  0.94820E+04
 0.19500003E+01  0.73900E+04
 0.20000000E+01  0.53220E+04
 0.20500002E+01  0.32790E+04
 0.20999999E+01  0.15660E+04
 0.21500001E+01  0.36800E+03
 0.22000003E+01 -0.66600E+03
 0.22500000E+01 -0.18040E+04
 0.23000002E+01 -0.29500E+04
 0.23499999E+01 -0.39810E+04
 0.24000001E+01 -0.49210E+04
 0.24500003E+01 -0.57400E+04
 0.25000000E+01 -0.62460E+04
 0.25500002E+01 -0.64400E+04
 0.25999999E+01 -0.64980E+04
 0.26500001E+01 -0.65360E+04
 0.27000003E+01 -0.66560E+04
 0.27500000E+01 -0.68440E+04
 0.28000002E+01 -0.69020E+04
 0.28499999E+01 -0.66350E+04
 0.29000001E+01 -0.60870E+04
 0.29500003E+01 -0.55590E+04
 0.30000000E+01 -0.52520E+04
 0.30500002E+01 -0.50950E+04
 0.30999999E+01 -0.49620E+04
 0.31500001E+01 -0.48240E+04
 0.32000003E+01 -0.45720E+04
 0.32500000E+01 -0.39200E+04
 0.33000002E+01 -0.27930E+04
 0.33499999E+01 -0.16490E+04
 0.34000001E+01 -0.11070E+04
 0.34500003E+01 -0.12640E+04
 0.35000000E+01 -0.19010E+04
 0.35500002E+01 -0.27820E+04
 0.35999999E+01 -0.34420E+04
 0.36500001E+01 -0.37480E+04
 0.37000003E+01 -0.41230E+04
 0.37500000E+01 -0.47960E+04
 0.38000002E+01 -0.56890E+04
 0.38499999E+01 -0.65990E+04
 0.39000001E+01 -0.73070E+04
 0.39500003E+01 -0.76970E+04
 0.40000000E+01 -0.75290E+04
 0.40500002E+01 -0.65960E+04
 0.40999999E+01 -0.48470E+04
 0.41500001E+01 -0.23510E+04
 0.42000003E+01  0.40200E+03
 0.42500000E+01  0.27510E+04
 0.43000002E+01  0.44540E+04
 0.43499999E+01  0.55730E+04
 0.44000001E+01  0.61110E+04
 0.44500003E+01  0.60420E+04
 0.45000000E+01  0.53800E+04
 0.45500002E+01  0.43540E+04
 0.45999999E+01  0.34880E+04
 0.46500001E+01  0.29140E+04
 0.47000003E+01  0.22100E+04
 0.47500000E+01  0.13190E+04
 0.48000002E+01  0.65600E+03
 0.48499999E+01  0.41300E+03
 0.49000001E+01  0.47000E+03
 0.49500003E+01  0.63200E+03
 0.50000000E+01  0.65100E+03
 0.50500002E+01  0.39100E+03
 0.51000004E+01  0.22500E+03
 0.51500006E+01  0.71100E+03
 0.51999998E+01  0.17780E+04
 0.52500000E+01  0.29920E+04
 0.53000002E+01  0.40840E+04
 0.53500004E+01  0.49630E+04
 0.54000006E+01  0.56310E+04
 0.54499998E+01  0.60600E+04
 0.55000000E+01  0.64810E+04
 0.55500002E+01  0.70910E+04
 0.56000004E+01  0.76290E+04
 0.56500006E+01  0.78870E+04
 0.56999998E+01  0.77240E+04
 0.57500000E+01  0.70520E+04
 0.58000002E+01  0.60910E+04
 0.58500004E+01  0.49760E+04
 0.59000006E+01  0.35010E+04
 0.59499998E+01  0.17030E+04
 0.60000000E+01  0.17200E+03
 0.60500002E+01 -0.79100E+03
 0.61000004E+01 -0.13470E+04
 0.61500006E+01 -0.15230E+04
 0.61999998E+01 -0.14870E+04
 0.62500000E+01 -0.15230E+04
 0.63000002E+01 -0.16410E+04
 0.63500004E+01 -0.17350E+04
 0.64000006E+01 -0.17910E+04
 0.64499998E+01 -0.20950E+04
 0.65000000E+01 -0.29230E+04
 0.65500002E+01 -0.40530E+04
 0.66000004E+01 -0.51860E+04
 0.66500006E+01 -0.63620E+04
 0.66999998E+01 -0.76240E+04
 0.67500000E+01 -0.86900E+04
 0.68000002E+01 -0.91240E+04
 0.68500004E+01 -0.88450E+04
 0.69000006E+01 -0.82100E+04
 0.69499998E+01 -0.75480E+04
 0.70000000E+01 -0.70930E+04
 0.70500002E+01 -0.70900E+04
 0.71000004E+01 -0.75190E+04
 0.71500006E+01 -0.80690E+04
 0.71999998E+01 -0.85790E+04
 0.72500000E+01 -0.91120E+04
 0.73000002E+01 -0.95460E+04
 0.73500004E+01 -0.94550E+04
 0.74000006E+01 -0.87060E+04
 0.74499998E+01 -0.76090E+04
 0.75000000E+01 -0.63080E+04
 0.75500002E+01 -0.48100E+04
 0.76000004E+01 -0.32940E+04
 0.76500006E+01 -0.19350E+04
 0.76999998E+01 -0.82700E+03
 0.77500000E+01  0.57000E+02
 0.78000002E+01  0.67500E+03
 0.78500004E+01  0.81800E+03
 0.79000006E+01  0.87200E+03
 0.79499998E+01  0.15350E+04
 0.80000000E+01  0.26880E+04
 0.80500002E+01  0.38160E+04
 0.81000004E+01  0.48480E+04
 0.81500006E+01  0.59770E+04
 0.81999998E+01  0.71170E+04
 0.82500000E+01  0.80600E+04
 0.83000002E+01  0.87990E+04
 0.83500004E+01  0.92730E+04
 0.84000006E+01  0.92960E+04
 0.84499998E+01  0.88390E+04
 0.85000000E+01  0.80500E+04
 0.85500002E+01  0.69050E+04
 0.86000004E+01  0.53930E+04
 0.86500006E+01  0.38120E+04
 0.86999998E+01  0.25840E+04
 0.87500000E+01  0.19210E+04
 0.88000002E+01  0.15520E+04
 0.88500004E+01  0.12600E+04
 0.89000006E+01  0.11500E+04
 0.89499998E+01  0.12810E+04
 0.90000000E+01  0.18330E+04
 0.90500002E+01  0.29470E+04
 0.91000004E+01  0.42980E+04
 0.91500006E+01  0.55060E+04
 0.91999998E+01  0.66070E+04
 0.92500000E+01  0.75560E+04
 0.93000002E+01  0.81180E+04
 0.93500004E+01  0.82850E+04
 0.94000006E+01  0.81340E+04
 0.94499998E+01  0.78970E+04
 0.95000000E+01  0.78550E+04
 0.95500002E+01  0.80300E+04
 0.96000004E+01  0.83040E+04
 0.96500006E+01  0.85520E+04
 0.96999998E+01  0.86820E+04
 0.97500000E+01  0.85740E+04
 0.98000002E+01  0.83810E+04
 0.98500004E+01  0.85730E+04
 0.99000006E+01  0.92340E+04
 0.99499998E+01  0.99160E+04
 0.10000000E+02  0.10286E+05
 0.10050000E+02  0.10434E+05
 0.10100000E+02  0.10625E+05
 0.10150001E+02  0.11002E+05
 0.10200000E+02  0.11470E+05
 0.10250000E+02  0.11814E+05
 0.10300000E+02  0.11916E+05
 0.10350000E+02  0.11936E+05
 0.10400001E+02  0.12085E+05
 0.10450000E+02  0.12161E+05
 0.10500000E+02  0.11758E+05
 0.10550000E+02  0.10776E+05
 0.10600000E+02  0.95000E+04
 0.10650001E+02  0.82310E+04
 0.10700000E+02  0.68420E+04
 0.10750000E+02  0.49990E+04
 0.10800000E+02  0.27080E+04
 0.10850000E+02  0.32800E+03
 0.10900001E+02 -0.17750E+04
 0.10950000E+02 -0.33810E+04
 0.11000000E+02 -0.44870E+04
 0.11050000E+02 -0.52880E+04
 0.11100000E+02 -0.60030E+04
 0.11150001E+02 -0.67410E+04
 0.11200000E+02 -0.74170E+04
 0.11250000E+02 -0.79050E+04
 0.11300000E+02 -0.81750E+04
 0.11350000E+02 -0.83320E+04
 0.11400001E+02 -0.84060E+04
 0.11450000E+02 -0.83860E+04
 0.11500000E+02 -0.85010E+04
 0.11550000E+02 -0.88580E+04
 0.11600000E+02 -0.94740E+04
 0.11650001E+02 -0.10493E+05
 0.11700000E+02 -0.11968E+05
 0.11750000E+02 -0.13808E+05
 0.11800000E+02 -0.15705E+05
 0.11850000E+02 -0.17242E+05
 0.11900001E+02 -0.18274E+05
 0.11950000E+02 -0.18797E+05
 0.12000000E+02 -0.18673E+05
 0.12050000E+02 -0.17834E+05
 0.12100000E+02 -0.16306E+05
 0.12150001E+02 -0.14371E+05
 0.12200000E+02 -0.12512E+05
 0.12250000E+02 -0.10881E+05
 0.12300000E+02 -0.92270E+04
 0.12350000E+02 -0.73980E+04
 0.12400001E+02 -0.56700E+04
 0.12450000E+02 -0.43600E+04
 0.12500000E+02 -0.33970E+04
 0.12550000E+02 -0.24020E+04
 0.12600000E+02 -0.11620E+04
 0.12650001E+02  0.32000E+03
 0.12700000E+02  0.18050E+04
 0.12750000E+02  0.28240E+04
 0.12800000E+02  0.32940E+04
 0.12850000E+02  0.34020E+04
 0.12900001E+02  0.32780E+04
 0.12950000E+02  0.30270E+04
 0.13000000E+02  0.26680E+04
 0.13050001E+02  0.22500E+04
 0.13100000E+02  0.17440E+04
 0.13150000E+02  0.11850E+04
 0.13200001E+02  0.83700E+03
 0.13250000E+02  0.66300E+03
 0.13300001E+02  0.39100E+03
 0.13350000E+02 -0.43000E+02
 0.13400000E+02 -0.60200E+03
 0.13450001E+02 -0.11790E+04
 0.13500000E+02 -0.16200E+04
 0.13550001E+02 -0.18060E+04
 0.13600000E+02 -0.17000E+04
 0.13650000E+02 -0.12910E+04
 0.13700001E+02 -0.46700E+03
 0.13750000E+02  0.91700E+03
 0.13800001E+02  0.28560E+04
 0.13850000E+02  0.49770E+04
 0.13900000E+02  0.67200E+04
 0.13950001E+02  0.79140E+04
 0.14000000E+02  0.86780E+04
 0.14050001E+02  0.90400E+04
 0.14100000E+02  0.90380E+04
 0.14150000E+02  0.86630E+04
 0.14200001E+02  0.80200E+04
 0.14250000E+02  0.74930E+04
 0.14300001E+02  0.72420E+04
 0.14350000E+02  0.70350E+04
 0.14400000E+02  0.66150E+04
 0.14450001E+02  0.60120E+04
 0.14500000E+02  0.54830E+04
 0.14550001E+02  0.51860E+04
 0.14600000E+02  0.50180E+04
 0.14650000E+02  0.45900E+04
 0.14700001E+02  0.35200E+04
 0.14750000E+02  0.19480E+04
 0.14800001E+02  0.12800E+03
 0.14850000E+02 -0.20110E+04
 0.14900000E+02 -0.42310E+04
 0.14950001E+02 -0.62600E+04
 0.15000000E+02 -0.78870E+04
 0.15050001E+02 -0.89680E+04
 0.15100000E+02 -0.99110E+04
 0.15150000E+02 -0.10667E+05
 0.15200001E+02 -0.11598E+05
 0.15250000E+02 -0.12849E+05
 0.15300001E+02 -0.15042E+05
 0.15350000E+02 -0.18220E+05
 0.15400000E+02 -0.27390E+05
 0.15450001E+02 -0.66958E+05
 0.15500000E+02 -0.14612E+06
 0.15550001E+02 -0.24011E+06
 0.15600000E+02 -0.30505E+06
 0.15650000E+02 -0.28007E+06
 0.15700001E+02 -0.16353E+06
 0.15750000E+02 -0.37647E+05
 0.15800001E+02  0.46078E+05
 0.15850000E+02  0.11360E+06
 0.15900000E+02  0.15068E+06
 0.15950001E+02  0.92633E+05
 0.16000000E+02 -0.40938E+05
 0.16050001E+02 -0.17718E+06
 0.16100000E+02 -0.29957E+06
 0.16150000E+02 -0.46887E+06
 0.16200001E+02 -0.79318E+06
 0.16250000E+02 -0.12167E+07
 0.16300001E+02 -0.12754E+07
 0.16350000E+02 -0.72188E+06
 0.16400000E+02 -0.13603E+06
 0.16450001E+02 -0.29683E+05
 0.16500000E+02 -0.72261E+05
 0.16550001E+02  0.19529E+06
 0.16600000E+02  0.58849E+06
 0.16650000E+02  0.79398E+06
 0.16700001E+02  0.84268E+06
 0.16750000E+02  0.63826E+06
 0.16800001E+02  0.27272E+06
 0.16850000E+02  0.25763E+06
 0.16900000E+02  0.42758E+06
 0.16950001E+02  0.35317E+06
 0.17000000E+02  0.24952E+06
 0.17050001E+02  0.16260E+06
 0.17100000E+02 -0.10152E+05
 0.17150000E+02  0.16433E+06
 0.17200001E+02  0.72787E+06
 0.17250000E+02  0.62496E+06
 0.17300001E+02 -0.20224E+06
 0.17350000E+02 -0.47222E+06
 0.17400000E+02 -0.78338E+05
 0.17450001E+02  0.20558E+06
 0.17500000E+02  0.18452E+05
 0.17550001E+02 -0.34937E+06
 0.17600000E+02 -0.28569E+06
 0.17650000E+02  0.55370E+04
 0.17700001E+02  0.57480E+05
 0.17750000E+02 -0.15345E+05
 0.17800001E+02 -0.72022E+05
 0.17850000E+02  0.24105E+05
 0.17900000E+02 -0.92430E+04
 0.17950001E+02 -0.41638E+06
 0.18000000E+02 -0.56686E+06
 0.18050001E+02 -0.43720E+06
 0.18100000E+02 -0.48867E+06
 0.18150000E+02 -0.49732E+06
 0.18200001E+02 -0.20593E+06
 0.18250000E+02  0.35823E+05
 0.18300001E+02  0.29399E+05
 0.18350000E+02  0.17650E+06
 0.18400000E+02  0.32887E+06
 0.18450001E+02  0.26347E+06
 0.18500000E+02  0.15574E+06
 0.18550001E+02 -0.35813E+05
 0.18600000E+02 -0.17089E+06
 0.18650000E+02 -0.30494E+05
 0.18700001E+02  0.24649E+06
 0.18750000E+02  0.26705E+06
 0.18800001E+02  0.14370E+06
 0.18850000E+02  0.13510E+06
 0.18900000E+02 -0.54837E+05
 0.18950001E+02 -0.22310E+06
 0.19000000E+02  0.38640E+05
 0.19050001E+02  0.35297E+06
 0.19100000E+02  0.42307E+06
 0.19150000E+02  0.40148E+06
 0.19200001E+02  0.36063E+06
 0.19250000E+02  0.34087E+06
 0.19300001E+02  0.28301E+06
 0.19350000E+02  0.16062E+06
 0.19400000E+02  0.37157E+06
 0.19450001E+02  0.73566E+06
 0.19500000E+02  0.50276E+06
 0.19550001E+02  0.22845E+05
 0.19600000E+02  0.85029E+05
 0.19650000E+02  0.41489E+06
 0.19700001E+02  0.31835E+06
 0.19750000E+02  0.19949E+06
 0.19800001E+02  0.37849E+06
 0.19850000E+02  0.30859E+06
 0.19900000E+02  0.90518E+05
 0.19950001E+02 -0.20939E+06
 0.20000000E+02 -0.48633E+06
 0.20050001E+02 -0.55446E+06
 0.20100000E+02 -0.48923E+06
 0.20150000E+02 -0.23742E+06
 0.20200001E+02 -0.24096E+06
 0.20250000E+02 -0.38212E+06
 0.20300001E+02 -0.26003E+06
 0.20350000E+02 -0.36428E+06
 0.20400000E+02 -0.66378E+06
 0.20450001E+02 -0.61202E+06
 0.20500000E+02 -0.32786E+06
 0.20550001E+02 -0.37981E+05
 0.20600000E+02  0.32834E+05
 0.20650000E+02  0.57676E+05
 0.20700001E+02  0.32644E+06
 0.20750000E+02  0.17605E+06
 0.20800001E+02 -0.18965E+06
 0.20850000E+02 -0.54547E+05
 0.20900000E+02  0.16510E+06
 0.20950001E+02  0.18027E+06
 0.21000000E+02  0.20428E+06
 0.21050001E+02  0.12469E+06
 0.21100000E+02 -0.53815E+05
 0.21150000E+02  0.51577E+05
 0.21200001E+02  0.20350E+06
 0.21250000E+02  0.16263E+06
 0.21300001E+02  0.10157E+06
 0.21350000E+02  0.18144E+06
 0.21400000E+02  0.47805E+06
 0.21450001E+02  0.43011E+06
 0.21500000E+02  0.55543E+05
 0.21550001E+02 -0.66118E+05
 0.21600000E+02 -0.13151E+06
 0.21650000E+02 -0.31148E+06
 0.21700001E+02 -0.45768E+06
 0.21750000E+02 -0.26911E+06
 0.21800001E+02  0.17190E+06
 0.21850000E+02  0.21827E+06
 0.21900000E+02  0.76899E+05
 0.21950001E+02  0.12441E+06
 0.22000000E+02  0.53009E+05
 0.22050001E+02 -0.58568E+05
 0.22100000E+02 -0.11845E+06
 0.22150000E+02 -0.15768E+06
 0.22200001E+02 -0.25863E+06
 0.22250000E+02 -0.44773E+06
 0.22300001E+02 -0.23976E+06
 0.22350000E+02  0.81500E+04
 0.22400000E+02 -0.65281E+05
 0.22450001E+02  0.47589E+05
 0.22500000E+02  0.23748E+06
 0.22550001E+02  0.39695E+06
 0.22600000E+02  0.65478E+06
 0.22650000E+02  0.78778E+06
 0.22700001E+02  0.68194E+06
 0.22750000E+02  0.50228E+06
 0.22800001E+02  0.48293E+06
 0.22850000E+02  0.67517E+06
 0.22900000E+02  0.82702E+06
 0.22950001E+02  0.66325E+06
 0.23000000E+02  0.41753E+06
 0.23050001E+02  0.39981E+06
 0.23100000E+02  0.43413E+06
 0.23150000E+02  0.31518E+06
 0.23200001E+02  0.15679E+06
 0.23250000E+02  0.14592E+06
 0.23300001E+02  0.44243E+05
 0.23350000E+02 -0.11592E+06
 0.23400000E+02 -0.13230E+06
 0.23450001E+02 -0.27231E+06
 0.23500000E+02 -0.47652E+05
 0.23550001E+02  0.67634E+06
 0.23600000E+02  0.10266E+07
 0.23650000E+02  0.77320E+06
 0.23700001E+02  0.25861E+06
 0.23750000E+02 -0.44779E+05
 0.23800001E+02 -0.77312E+05
 0.23850000E+02 -0.46042E+05
 0.23900000E+02  0.63005E+05
 0.23950001E+02  0.97175E+05
 0.24000000E+02 -0.98953E+05
 0.24050001E+02 -0.23056E+06
 0.24100000E+02 -0.81904E+05
 0.24150000E+02 -0.14601E+05
 0.24200001E+02 -0.17520E+06
 0.24250000E+02 -0.18393E+06
 0.24300001E+02  0.94114E+05
 0.24350000E+02  0.32980E+06
 0.24400000E+02  0.33436E+06
 0.24450001E+02  0.32337E+06
 0.24500000E+02  0.44469E+06
 0.24550001E+02  0.46102E+06
 0.24600000E+02  0.31281E+06
 0.24650000E+02  0.22020E+06
 0.24700001E+02  0.91030E+05
 0.24750000E+02 -0.56818E+05
 0.24800001E+02 -0.31711E+05
 0.24850000E+02 -0.19312E+05
 0.24900000E+02 -0.14036E+06
 0.24950001E+02 -0.24516E+06
 0.25000000E+02 -0.22781E+06
 0.25050001E+02 -0.66234E+05
 0.25100000E+02  0.97978E+05
 0.25150000E+02  0.11139E+06
 0.25200001E+02 -0.12708E+06
 0.25250000E+02 -0.54410E+06
 0.25300001E+02 -0.65219E+06
 0.25350000E+02 -0.39058E+06
 0.25400000E+02 -0.29769E+06
 0.25450001E+02 -0.46571E+06
 0.25500000E+02 -0.71277E+06
 0.25550001E+02 -0.93143E+06
 0.25600000E+02 -0.84450E+06
 0.25650000E+02 -0.44054E+06
 0.25700001E+02  0.79810E+04
 0.25750000E+02  0.41612E+06
 0.25800001E+02  0.45021E+06
 0.25850000E+02 -0.19442E+06
 0.25900000E+02 -0.63877E+06
 0.25950001E+02 -0.27148E+06
 0.26000000E+02  0.47350E+05
 0.26050001E+02 -0.25549E+06
 0.26100000E+02 -0.90104E+06
 0.26150000E+02 -0.10956E+07
 0.26200001E+02 -0.60130E+06
 0.26250000E+02 -0.36734E+06
 0.26300001E+02 -0.64428E+06
 0.26350000E+02 -0.72830E+06
 0.26400000E+02 -0.40730E+06
 0.26450001E+02 -0.10304E+06
 0.26500000E+02 -0.14766E+06
 0.26550001E+02 -0.56903E+06
 0.26600000E+02 -0.86033E+06
 0.26650000E+02 -0.74970E+06
 0.26700001E+02 -0.88798E+06
 0.26750000E+02 -0.11380E+07
 0.26800001E+02 -0.68101E+06
 0.26850000E+02  0.36903E+06
 0.26900000E+02  0.12131E+07
 0.26950001E+02  0.11587E+07
 0.27000000E+02  0.18572E+06
 0.27050001E+02 -0.88641E+06
 0.27100000E+02 -0.11972E+07
 0.27150000E+02 -0.78661E+06
 0.27200001E+02 -0.67491E+06
 0.27250000E+02 -0.97902E+06
 0.27300001E+02 -0.70116E+06
 0.27350000E+02 -0.23982E+06
 0.27400000E+02 -0.53632E+05
 0.27450001E+02 -0.36901E+05
 0.27500000E+02 -0.53082E+06
 0.27550001E+02 -0.88662E+06
 0.27600000E+02 -0.81184E+06
 0.27650000E+02 -0.87671E+06
 0.27700001E+02 -0.43688E+06
 0.27750000E+02  0.87186E+06
 0.27800001E+02  0.14069E+07
 0.27850000E+02  0.55560E+06
 0.27900000E+02 -0.24595E+06
 0.27950001E+02 -0.28231E+06
 0.28000000E+02  0.36955E+06
 0.28050001E+02  0.81996E+06
 0.28100000E+02  0.33873E+06
 0.28150000E+02 -0.39138E+06
 0.28200001E+02 -0.10261E+07
 0.28250000E+02 -0.10306E+07
 0.28300001E+02 -0.16578E+06
 0.28350000E+02 -0.65895E+05
 0.28400000E+02 -0.10960E+07
 0.28450001E+02 -0.14419E+07
 0.28500000E+02 -0.72054E+06
 0.28550001E+02 -0.87838E+05
 0.28600000E+02  0.17609E+06
 0.28650000E+02  0.31423E+06
 0.28700001E+02  0.37992E+06
 0.28750000E+02  0.65189E+06
 0.28800001E+02  0.97184E+06
 0.28850000E+02  0.91763E+06
 0.28900000E+02  0.84715E+06
 0.28950001E+02  0.74680E+06
 0.29000000E+02  0.12822E+06
 0.29049999E+02 -0.67730E+06
 0.29100002E+02 -0.12417E+07
 0.29150002E+02 -0.14918E+07
 0.29200001E+02 -0.14268E+07
 0.29250000E+02 -0.12279E+07
 0.29299999E+02 -0.84011E+06
 0.29350002E+02 -0.11836E+06
 0.29400002E+02  0.47466E+06
 0.29450001E+02  0.67601E+06
 0.29500000E+02  0.62811E+06
 0.29549999E+02  0.26446E+06
 0.29600002E+02 -0.55138E+05
 0.29650002E+02 -0.29071E+05
 0.29700001E+02 -0.79000E+03
 0.29750000E+02 -0.18909E+06
 0.29799999E+02 -0.32130E+06
 0.29850002E+02 -0.26040E+06
 0.29900002E+02 -0.32053E+06
 0.29950001E+02 -0.32124E+06
 0.30000000E+02  0.10105E+06
 0.30049999E+02  0.70807E+06
 0.30100002E+02  0.96080E+06
 0.30150002E+02  0.68814E+06
 0.30200001E+02  0.67157E+06
 0.30250000E+02  0.12160E+07
 0.30299999E+02  0.15466E+07
 0.30350002E+02  0.13793E+07
 0.30400002E+02  0.10655E+07
 0.30450001E+02  0.89526E+06
 0.30500000E+02  0.78222E+06
 0.30549999E+02  0.63456E+06
 0.30600002E+02  0.63939E+06
 0.30650002E+02  0.68778E+06
 0.30700001E+02  0.45983E+06
 0.30750000E+02  0.16053E+06
 0.30799999E+02  0.21615E+06
 0.30850002E+02  0.27811E+06
 0.30900002E+02  0.15230E+06
 0.30950001E+02  0.32205E+06
 0.31000000E+02  0.75568E+06
 0.31049999E+02  0.11431E+07
 0.31100002E+02  0.11485E+07
 0.31150002E+02  0.54854E+06
 0.31200001E+02 -0.11478E+06
 0.31250000E+02 -0.20459E+06
 0.31299999E+02  0.27982E+05
 0.31350002E+02 -0.66062E+05
 0.31400002E+02 -0.32454E+06
 0.31450001E+02 -0.38257E+06
 0.31500000E+02 -0.52164E+06
 0.31549999E+02 -0.54656E+06
 0.31600002E+02 -0.27791E+06
 0.31650002E+02  0.10926E+06
 0.31700001E+02  0.76049E+06
 0.31750000E+02  0.10539E+07
 0.31799999E+02  0.74372E+06
 0.31850002E+02  0.52819E+06
 0.31900002E+02  0.39416E+06
 0.31950001E+02  0.31359E+06
 0.32000000E+02  0.35691E+06
 0.32049999E+02  0.16668E+06
 0.32100002E+02 -0.69485E+05
 0.32150002E+02  0.19056E+06
 0.32200001E+02  0.79027E+06
 0.32250000E+02  0.91888E+06
 0.32299999E+02  0.29430E+06
 0.32350002E+02 -0.20644E+06
 0.32400002E+02 -0.46611E+05
 0.32450001E+02  0.60787E+06
 0.32500000E+02  0.14340E+07
 0.32549999E+02  0.16171E+07
 0.32600002E+02  0.12185E+07
 0.32650002E+02  0.92153E+06
 0.32700001E+02  0.52204E+06
 0.32750000E+02  0.95428E+05
 0.32799999E+02 -0.98597E+05
 0.32850002E+02 -0.30874E+06
 0.32900002E+02 -0.50623E+06
 0.32950001E+02 -0.53552E+06
 0.33000000E+02 -0.33089E+06
 0.33049999E+02 -0.51120E+04
 0.33100002E+02  0.10967E+06
 0.33150002E+02  0.13589E+06
 0.33200001E+02  0.39142E+06
 0.33250000E+02  0.67483E+06
 0.33299999E+02  0.74102E+06
 0.33350002E+02  0.63810E+06
 0.33400002E+02  0.32711E+06
 0.33450001E+02 -0.40507E+05
 0.33500000E+02 -0.15838E+06
 0.33549999E+02 -0.15921E+06
 0.33600002E+02 -0.17421E+06
 0.33650002E+02 -0.12079E+06
 0.33700001E+02 -0.71823E+05
 0.33750000E+02 -0.22285E+06
 0.33799999E+02 -0.60520E+06
 0.33850002E+02 -0.78724E+06
 0.33900002E+02 -0.63674E+06
 0.33950001E+02 -0.44731E+06
 0.34000000E+02 -0.22973E+06
 0.34049999E+02 -0.88633E+05
 0.34100002E+02  0.47811E+05
 0.34150002E+02  0.31791E+06
 0.34200001E+02  0.43206E+06
 0.34250000E+02  0.26510E+06
 0.34299999E+02 -0.78196E+05
 0.34350002E+02 -0.26867E+06
 0.34400002E+02 -0.46969E+05
 0.34450001E+02  0.34050E+06
 0.34500000E+02  0.57649E+06
 0.34549999E+02  0.47545E+06
 0.34600002E+02 -0.57590E+04
 0.34650002E+02 -0.52091E+06
 0.34700001E+02 -0.53079E+06
 0.34750000E+02 -0.73271E+05
 0.34799999E+02  0.23179E+06
 0.34850002E+02  0.25811E+06
 0.34900002E+02  0.37517E+06
 0.34950001E+02  0.53215E+06
 0.35000000E+02  0.49751E+06
 0.35049999E+02  0.36555E+06
 0.35100002E+02  0.35975E+06
 0.35150002E+02  0.29404E+06
 0.35200001E+02 -0.21057E+06
 0.35250000E+02 -0.74017E+06
 0.35299999E+02 -0.87070E+06
 0.35350002E+02 -0.95749E+06
 0.35400002E+02 -0.10513E+07
 0.35450001E+02 -0.82618E+06
 0.35500000E+02 -0.35931E+06
 0.35549999E+02  0.52850E+05
 0.35600002E+02  0.26354E+06
 0.35650002E+02  0.24099E+06
 0.35700001E+02  0.10063E+06
 0.35750000E+02  0.42090E+04
 0.35799999E+02 -0.78382E+05
 0.35850002E+02 -0.31417E+06
 0.35900002E+02 -0.72192E+06
 0.35950001E+02 -0.10363E+07
 0.36000000E+02 -0.97870E+06
 0.36049999E+02 -0.63234E+06
 0.36100002E+02 -0.45631E+06
 0.36150002E+02 -0.68805E+06
 0.36200001E+02 -0.10560E+07
 0.36250000E+02 -0.11311E+07
 0.36299999E+02 -0.83357E+06
 0.36350002E+02 -0.46969E+06
 0.36400002E+02 -0.92221E+05
 0.36450001E+02  0.20944E+06
 0.36500000E+02  0.20766E+06
 0.36549999E+02  0.13737E+06
 0.36600002E+02  0.19222E+06
 0.36650002E+02  0.25855E+06
 0.36700001E+02  0.14796E+06
 0.36750000E+02 -0.18938E+06
 0.36799999E+02 -0.45838E+06
 0.36850002E+02 -0.55794E+06
 0.36900002E+02 -0.64114E+06
 0.36950001E+02 -0.66400E+06
 0.37000000E+02 -0.67893E+06
 0.37049999E+02 -0.84563E+06
 0.37100002E+02 -0.89897E+06
 0.37150002E+02 -0.56582E+06
 0.37200001E+02 -0.17799E+06
 0.37250000E+02 -0.23203E+05
 0.37299999E+02  0.25744E+05
 0.37350002E+02 -0.22529E+05
 0.37400002E+02 -0.23287E+06
 0.37450001E+02 -0.43650E+06
 0.37500000E+02 -0.44517E+06
 0.37549999E+02 -0.32348E+06
 0.37600002E+02 -0.16353E+06
 0.37650002E+02  0.71838E+05
 0.37700001E+02  0.25163E+06
 0.37750000E+02  0.23253E+06
 0.37799999E+02  0.13036E+06
 0.37850002E+02  0.13324E+06
 0.37900002E+02  0.26006E+06
 0.37950001E+02  0.38337E+06
 0.38000000E+02  0.47016E+06
 0.38049999E+02  0.53033E+06
 0.38100002E+02  0.50617E+06
 0.38150002E+02  0.25381E+06
 0.38200001E+02 -0.20463E+06
 0.38250000E+02 -0.53458E+06
 0.38299999E+02 -0.64514E+06
 0.38350002E+02 -0.62662E+06
 0.38400002E+02 -0.45559E+06
 0.38450001E+02 -0.21639E+06
 0.38500000E+02 -0.50723E+05
 0.38549999E+02 -0.22224E+05
 0.38600002E+02 -0.83859E+05
 0.38650002E+02 -0.15637E+06
 0.38700001E+02 -0.24946E+06
 0.38750000E+02 -0.41444E+06
 0.38799999E+02 -0.53359E+06
 0.38850002E+02 -0.51739E+06
 0.38900002E+02 -0.47224E+06
 0.38950001E+02 -0.31416E+06
 0.39000000E+02  0.58323E+05
 0.39049999E+02  0.44836E+06
 0.39100002E+02  0.66891E+06
 0.39150002E+02  0.63904E+06
 0.39200001E+02  0.35402E+06
 0.39250000E+02  0.30555E+05
 0.39299999E+02 -0.12823E+06
 0.39350002E+02  0.87640E+04
 0.39400002E+02  0.41234E+06
 0.39450001E+02  0.72200E+06
 0.39500000E+02  0.78465E+06
 0.39549999E+02  0.62082E+06
 0.39600002E+02  0.23926E+06
 0.39650002E+02 -0.16095E+06
 0.39700001E+02 -0.46015E+06
 0.39750000E+02 -0.65305E+06
 0.39799999E+02 -0.77695E+06
 0.39850002E+02 -0.83477E+06
 0.39900002E+02 -0.79648E+06
 0.39950001E+02 -0.76416E+06
 0.40000000E+02 -0.74114E+06
 0.40049999E+02 -0.66520E+06
 0.40100002E+02 -0.52672E+06
 0.40150002E+02 -0.31943E+06
 0.40200001E+02 -0.10251E+06
 0.40250000E+02  0.10139E+06
 0.40299999E+02  0.26291E+06
 0.40350002E+02  0.34024E+06
 0.40400002E+02  0.24909E+06
 0.40450001E+02 -0.60705E+05
 0.40500000E+02 -0.32959E+06
 0.40549999E+02 -0.35544E+06
 0.40600002E+02 -0.21455E+06
 0.40650002E+02 -0.10396E+06
 0.40700001E+02 -0.95361E+05
 0.40750000E+02  0.47336E+05
 0.40799999E+02  0.33732E+06
 0.40850002E+02  0.54801E+06
 0.40900002E+02  0.61676E+06
 0.40950001E+02  0.54987E+06
 0.41000000E+02  0.46728E+06
 0.41049999E+02  0.46262E+06
 0.41100002E+02  0.43199E+06
 0.41150002E+02  0.42722E+06
 0.41200001E+02  0.57572E+06
 0.41250000E+02  0.71922E+06
 0.41299999E+02  0.65717E+06
 0.41350002E+02  0.36668E+06
 0.41400002E+02 -0.25476E+05
 0.41450001E+02 -0.33210E+06
 0.41500000E+02 -0.45561E+06
 0.41549999E+02 -0.43822E+06
 0.41600002E+02 -0.42122E+06
 0.41650002E+02 -0.43816E+06
 0.41700001E+02 -0.41662E+06
 0.41750000E+02 -0.38137E+06
 0.41799999E+02 -0.30684E+06
 0.41850002E+02 -0.16001E+06
 0.41900002E+02 -0.10053E+06
 0.41950001E+02 -0.16891E+06
 0.42000000E+02 -0.25086E+06
 0.42049999E+02 -0.29172E+06
 0.42100002E+02 -0.22961E+06
 0.42150002E+02 -0.76910E+05
 0.42200001E+02  0.10353E+06
 0.42250000E+02  0.33185E+06
 0.42299999E+02  0.60377E+06
 0.42350002E+02  0.74576E+06
 0.42400002E+02  0.62761E+06
 0.42450001E+02  0.38372E+06
 0.42500000E+02  0.11763E+06
 0.42549999E+02 -0.15226E+06
 0.42600002E+02 -0.28117E+06
 0.42650002E+02 -0.17261E+06
 0.42700001E+02  0.28873E+05
 0.42750000E+02  0.19064E+06
 0.42799999E+02  0.31425E+06
 0.42850002E+02  0.31128E+06
 0.42900002E+02  0.21549E+06
 0.42950001E+02  0.18926E+06
 0.43000000E+02  0.27527E+06
 0.43049999E+02  0.46679E+06
 0.43100002E+02  0.63379E+06
 0.43150002E+02  0.66966E+06
 0.43200001E+02  0.60056E+06
 0.43250000E+02  0.43772E+06
 0.43299999E+02  0.24553E+06
 0.43350002E+02  0.15246E+06
 0.43400002E+02  0.18948E+06
 0.43450001E+02  0.24267E+06
 0.43500000E+02  0.26308E+06
 0.43549999E+02  0.32030E+06
 0.43600002E+02  0.42691E+06
 0.43650002E+02  0.44722E+06
 0.43700001E+02  0.29134E+06
 0.43750000E+02  0.95183E+05
 0.43799999E+02 -0.40062E+05
 0.43850002E+02 -0.11325E+06
 0.43900002E+02 -0.17138E+06
 0.43950001E+02 -0.27472E+06
 0.44000000E+02 -0.32898E+06
 0.44049999E+02 -0.31994E+06
 0.44100002E+02 -0.32330E+06
 0.44150002E+02 -0.35553E+06
 0.44200001E+02 -0.48697E+06
 0.44250000E+02 -0.64813E+06
 0.44299999E+02 -0.65454E+06
 0.44350002E+02 -0.47624E+06
 0.44400002E+02 -0.24680E+06
 0.44450001E+02 -0.10003E+06
 0.44500000E+02  0.21772E+05
 0.44549999E+02  0.19206E+06
 0.44600002E+02  0.37414E+06
 0.44650002E+02  0.58875E+06
 0.44700001E+02  0.79726E+06
 0.44750000E+02  0.85663E+06
 0.44799999E+02  0.70789E+06
 0.44850002E+02  0.37292E+06
 0.44900002E+02 -0.13690E+05
 0.44950001E+02 -0.25294E+06
 0.45000000E+02 -0.32294E+06
 0.45049999E+02 -0.32419E+06
 0.45100002E+02 -0.26220E+06
 0.45150002E+02 -0.10380E+06
 0.45200001E+02  0.40558E+05
 0.45250000E+02  0.10255E+06
 0.45299999E+02  0.16058E+06
 0.45350002E+02  0.18303E+06
 0.45400002E+02  0.16951E+06
 0.45450001E+02  0.17472E+06
 0.45500000E+02  0.95929E+05
 0.45549999E+02 -0.81244E+05
 0.45600002E+02 -0.19298E+06
 0.45650002E+02 -0.16245E+06
 0.45700001E+02 -0.91373E+05
 0.45750000E+02 -0.89754E+05
 0.45799999E+02 -0.14452E+06
 0.45850002E+02 -0.18682E+06
 0.45900002E+02 -0.20107E+06
 0.45950001E+02 -0.21490E+06
 0.46000000E+02 -0.20986E+06
 0.46049999E+02 -0.20613E+06
 0.46100002E+02 -0.25482E+06
 0.46150002E+02 -0.29280E+06
 0.46200001E+02 -0.29445E+06
 0.46250000E+02 -0.26495E+06
 0.46299999E+02 -0.12255E+06
 0.46350002E+02  0.90211E+05
 0.46400002E+02  0.27852E+06
 0.46450001E+02  0.43252E+06
 0.46500000E+02  0.49565E+06
 0.46549999E+02  0.46715E+06
 0.46600002E+02  0.45249E+06
 0.46650002E+02  0.49664E+06
 0.46700001E+02  0.52634E+06
 0.46750000E+02  0.46905E+06
 0.46799999E+02  0.35419E+06
 0.46850002E+02  0.23650E+06
 0.46900002E+02  0.98911E+05
 0.46950001E+02 -0.78399E+05
 0.47000000E+02 -0.22433E+06
 0.47049999E+02 -0.33481E+06
 0.47100002E+02 -0.45934E+06
 0.47150002E+02 -0.53048E+06
 0.47200001E+02 -0.51130E+06
 0.47250000E+02 -0.49550E+06
 0.47299999E+02 -0.52189E+06
 0.47350002E+02 -0.49961E+06
 0.47400002E+02 -0.36508E+06
 0.47450001E+02 -0.19352E+06
 0.47500000E+02 -0.11737E+06
 0.47549999E+02 -0.75410E+05
 0.47600002E+02  0.41320E+04
 0.47650002E+02  0.48021E+05
 0.47700001E+02  0.12150E+06
 0.47750000E+02  0.22418E+06
 0.47799999E+02  0.27395E+06
 0.47850002E+02  0.32674E+06
 0.47900002E+02  0.35301E+06
 0.47950001E+02  0.29893E+06
 0.48000000E+02  0.20636E+06
 0.48049999E+02  0.78455E+05
 0.48100002E+02 -0.26145E+05
 0.48150002E+02 -0.49815E+05
 0.48200001E+02 -0.61985E+05
 0.48250000E+02 -0.92318E+05
 0.48299999E+02 -0.14605E+06
 0.48350002E+02 -0.16557E+06
 0.48400002E+02 -0.83966E+05
 0.48450001E+02  0.19380E+05
 0.48500000E+02  0.11407E+06
 0.48549999E+02  0.15726E+06
 0.48600002E+02  0.10644E+06
 0.48650002E+02  0.53217E+05
 0.48700001E+02  0.35966E+05
 0.48750000E+02  0.72708E+05
 0.48799999E+02  0.16456E+06
 0.48850002E+02  0.23758E+06
 0.48900002E+02  0.29042E+06
 0.48950001E+02  0.34330E+06
 0.49000000E+02  0.34015E+06
 0.49049999E+02  0.25167E+06
 0.49100002E+02  0.12957E+06
 0.49150002E+02  0.52559E+05
 0.49200001E+02  0.35659E+05
 0.49250000E+02  0.35252E+05
 0.49299999E+02  0.60153E+05
 0.49350002E+02  0.98971E+05
 0.49400002E+02  0.14592E+06
 0.49450001E+02  0.23730E+06
 0.49500000E+02  0.28516E+06
 0.49549999E+02  0.23074E+06
 0.49600002E+02  0.15054E+06
 0.49650002E+02  0.11300E+06
 0.49700001E+02  0.12367E+06
 0.49750000E+02  0.13152E+06
 0.49799999E+02  0.92853E+05
 0.49850002E+02  0.34777E+05
 0.49900002E+02  0.22194E+05
 0.49950001E+02  0.27141E+05
 0.50000000E+02  0.78940E+04
 0.50049999E+02 -0.29008E+05
 0.50100002E+02 -0.12396E+06
 0.50150002E+02 -0.26298E+06
 0.50200001E+02 -0.35407E+06
 0.50250000E+02 -0.33276E+06
 0.50299999E+02 -0.22652E+06
 0.50350002E+02 -0.11684E+06
 0.50400002E+02 -0.33389E+05
 0.50450001E+02  0.12155E+05
 0.50500000E+02  0.39678E+05
 0.50549999E+02  0.10917E+06
 0.50600002E+02  0.20442E+06
 0.50650002E+02  0.26329E+06
 0.50700001E+02  0.25026E+06
 0.50750000E+02  0.17277E+06
 0.50799999E+02  0.82914E+05
 0.50850002E+02 -0.35830E+04
 0.50900002E+02 -0.10753E+06
 0.50950001E+02 -0.18759E+06
 0.51000000E+02 -0.18528E+06
 0.51049999E+02 -0.15624E+06
 0.51100002E+02 -0.15991E+06
 0.51150002E+02 -0.13958E+06
 0.51200001E+02 -0.98857E+05
 0.51250000E+02 -0.88867E+05
 0.51299999E+02 -0.65481E+05
 0.51350002E+02 -0.15546E+05
 0.51400002E+02  0.19800E+03
 0.51450001E+02 -0.63733E+05
 0.51500000E+02 -0.18988E+06
 0.51549999E+02 -0.31975E+06
 0.51600002E+02 -0.43717E+06
 0.51650002E+02 -0.54687E+06
 0.51700001E+02 -0.61141E+06
 0.51750000E+02 -0.57740E+06
 0.51799999E+02 -0.48211E+06
 0.51850002E+02 -0.39986E+06
 0.51900002E+02 -0.32866E+06
 0.51950001E+02 -0.25335E+06
 0.52000000E+02 -0.17493E+06
 0.52049999E+02 -0.86487E+05
 0.52100002E+02  0.42848E+05
 0.52150002E+02  0.20566E+06
 0.52200001E+02  0.31887E+06
 0.52250000E+02  0.35136E+06
 0.52299999E+02  0.34745E+06
 0.52350002E+02  0.31099E+06
 0.52400002E+02  0.24922E+06
 0.52450001E+02  0.21058E+06
 0.52500000E+02  0.20538E+06
 0.52549999E+02  0.23257E+06
 0.52600002E+02  0.26544E+06
 0.52650002E+02  0.25596E+06
 0.52700001E+02  0.17967E+06
 0.52750000E+02  0.30310E+05
 0.52799999E+02 -0.15140E+06
 0.52850002E+02 -0.28925E+06
 0.52900002E+02 -0.31742E+06
 0.52950001E+02 -0.27580E+06
 0.53000000E+02 -0.26517E+06
 0.53049999E+02 -0.27750E+06
 0.53100002E+02 -0.25855E+06
 0.53150002E+02 -0.21930E+06
 0.53200001E+02 -0.16751E+06
 0.53250000E+02 -0.59922E+05
 0.53299999E+02  0.90148E+05
 0.53350002E+02  0.18552E+06
 0.53400002E+02  0.22847E+06
 0.53450001E+02  0.28705E+06
 0.53500000E+02  0.30967E+06
 0.53549999E+02  0.22494E+06
 0.53600002E+02  0.81204E+05
 0.53650002E+02 -0.25171E+05
 0.53700001E+02 -0.96306E+05
 0.53750000E+02 -0.15411E+06
 0.53799999E+02 -0.13184E+06
 0.53850002E+02 -0.41319E+05
 0.53900002E+02  0.29250E+04
 0.53950001E+02  0.52530E+04
 0.54000000E+02  0.48292E+05
 0.54049999E+02  0.90564E+05
 0.54100002E+02  0.10937E+06
 0.54150002E+02  0.15180E+06
 0.54200001E+02  0.14912E+06
 0.54250000E+02  0.56552E+05
 0.54299999E+02 -0.32925E+05
 0.54350002E+02 -0.45430E+05
 0.54400002E+02  0.57360E+04
 0.54450001E+02  0.59159E+05
 0.54500000E+02  0.89097E+05
 0.54549999E+02  0.12570E+06
 0.54600002E+02  0.16579E+06
 0.54650002E+02  0.19927E+06
 0.54700001E+02  0.23870E+06
 0.54750000E+02  0.26324E+06
 0.54799999E+02  0.27224E+06
 0.54850002E+02  0.27946E+06
 0.54900002E+02  0.25640E+06
 0.54950001E+02  0.20394E+06
 0.55000000E+02  0.14370E+06
 0.55049999E+02  0.82970E+05
 0.55100002E+02  0.65326E+05
 0.55150002E+02  0.89540E+05
 0.55200001E+02  0.67306E+05
 0.55250000E+02 -0.22785E+05
 0.55299999E+02 -0.12072E+06
 0.55350002E+02 -0.18990E+06
 0.55400002E+02 -0.21100E+06
 0.55450001E+02 -0.18040E+06
 0.55500000E+02 -0.11623E+06
 0.55549999E+02 -0.24972E+05
 0.55600002E+02  0.74826E+05
 0.55650002E+02  0.13346E+06
 0.55700001E+02  0.14122E+06
 0.55750000E+02  0.14853E+06
 0.55799999E+02  0.15799E+06
 0.55850002E+02  0.12142E+06
 0.55900002E+02  0.46279E+05
 0.55950001E+02 -0.16743E+05
 0.56000000E+02 -0.43015E+05
 0.56049999E+02 -0.38468E+05
 0.56100002E+02 -0.18025E+05
 0.56150002E+02  0.27300E+04
 0.56200001E+02  0.27090E+04
 0.56250000E+02 -0.47104E+05
 0.56299999E+02 -0.13020E+06
 0.56350002E+02 -0.17490E+06
 0.56400002E+02 -0.15804E+06
 0.56450001E+02 -0.10723E+06
 0.56500000E+02 -0.20735E+05
 0.56549999E+02  0.73471E+05
 0.56600002E+02  0.10184E+06
 0.56650002E+02  0.69528E+05
 0.56700001E+02  0.47510E+05
 0.56750000E+02  0.69530E+05
 0.56799999E+02  0.11429E+06
 0.56850002E+02  0.16020E+06
 0.56900002E+02  0.20989E+06
 0.56950001E+02  0.23048E+06
 0.57000000E+02  0.17572E+06
 0.57049999E+02  0.43760E+05
 0.57100002E+02 -0.12430E+06
 0.57150002E+02 -0.26415E+06
 0.57200001E+02 -0.35764E+06
 0.57250000E+02 -0.43277E+06
 0.57299999E+02 -0.48971E+06
 0.57350002E+02 -0.50217E+06
 0.57400002E+02 -0.45744E+06
 0.57450001E+02 -0.37059E+06
 0.57500000E+02 -0.28214E+06
 0.57549999E+02 -0.21136E+06
 0.57600002E+02 -0.14659E+06
 0.57650002E+02 -0.99577E+05
 0.57700001E+02 -0.84045E+05
 0.57750000E+02 -0.10430E+06
 0.57799999E+02 -0.14974E+06
 0.57850002E+02 -0.17826E+06
 0.57900002E+02 -0.18624E+06
 0.57950001E+02 -0.19212E+06
 0.58000000E+02 -0.18941E+06
 0.58049999E+02 -0.17974E+06
 0.58100002E+02 -0.14674E+06
 0.58150002E+02 -0.77118E+05
 0.58200001E+02 -0.17159E+05
 0.58250000E+02  0.10177E+05
 0.58299999E+02  0.45491E+05
 0.58350002E+02  0.97265E+05
 0.58400002E+02  0.12427E+06
 0.58450001E+02  0.10316E+06
 0.58500000E+02  0.54611E+05
 0.58549999E+02  0.21916E+05
 0.58600002E+02  0.11689E+05
 0.58650002E+02  0.31734E+05
 0.58700001E+02  0.13189E+06
 0.58750000E+02  0.26977E+06
 0.58799999E+02  0.33983E+06
 0.58850002E+02  0.32193E+06
 0.58900002E+02  0.25675E+06
 0.58950001E+02  0.17445E+06
 0.59000000E+02  0.73288E+05
 0.59049999E+02 -0.28997E+05
 0.59100002E+02 -0.82586E+05
 0.59150002E+02 -0.62165E+05
 0.59200001E+02 -0.72780E+04
 0.59250000E+02  0.12605E+05
 0.59299999E+02  0.53200E+04
 0.59350002E+02  0.29356E+05
 0.59400002E+02  0.86483E+05
 0.59450001E+02  0.13875E+06
 0.59500000E+02  0.16409E+06
 0.59549999E+02  0.16452E+06
 0.59600002E+02  0.15327E+06
 0.59650002E+02  0.12718E+06
 0.59700001E+02  0.89580E+05
 0.59750000E+02  0.46286E+05
 0.59799999E+02 -0.21333E+05
 0.59850002E+02 -0.91031E+05
 0.59900002E+02 -0.12640E+06
 0.59950001E+02 -0.11700E+06
 0.60000000E+02 -0.51930E+05
 0.60049999E+02  0.43474E+05
 0.60100002E+02  0.11895E+06
 0.60150002E+02  0.14582E+06
 0.60200001E+02  0.14163E+06
 0.60250000E+02  0.14537E+06
 0.60299999E+02  0.16501E+06
 0.60350002E+02  0.18632E+06
 0.60400002E+02  0.18581E+06
 0.60450001E+02  0.14550E+06
 0.60500000E+02  0.66204E+05
 0.60549999E+02 -0.33646E+05
 0.60600002E+02 -0.11699E+06
 0.60650002E+02 -0.15958E+06
 0.60700001E+02 -0.15540E+06
 0.60750000E+02 -0.10464E+06
 0.60799999E+02 -0.35321E+05
 0.60850002E+02  0.29278E+05
 0.60900002E+02  0.95748E+05
 0.60950001E+02  0.15514E+06
 0.61000000E+02  0.18228E+06
 0.61050003E+02  0.17494E+06
 0.61099998E+02  0.15849E+06
 0.61150002E+02  0.14932E+06
 0.61200005E+02  0.13890E+06
 0.61250000E+02  0.11485E+06
 0.61300003E+02  0.67310E+05
 0.61349998E+02 -0.17550E+04
 0.61400002E+02 -0.59462E+05
 0.61450005E+02 -0.74191E+05
 0.61500000E+02 -0.65920E+05
 0.61550003E+02 -0.83103E+05
 0.61599998E+02 -0.13064E+06
 0.61650002E+02 -0.15480E+06
 0.61700005E+02 -0.13151E+06
 0.61750000E+02 -0.91369E+05
 0.61800003E+02 -0.58582E+05
 0.61849998E+02 -0.37403E+05
 0.61900002E+02 -0.84840E+04
 0.61950005E+02  0.45533E+05
 0.62000000E+02  0.11339E+06
 0.62050003E+02  0.16756E+06
 0.62099998E+02  0.20054E+06
 0.62150002E+02  0.22086E+06
 0.62200005E+02  0.20282E+06
 0.62250000E+02  0.13567E+06
 0.62300003E+02  0.43584E+05
 0.62349998E+02 -0.56513E+05
 0.62400002E+02 -0.15412E+06
 0.62450005E+02 -0.24455E+06
 0.62500000E+02 -0.30412E+06
 0.62550003E+02 -0.31080E+06
 0.62599998E+02 -0.27705E+06
 0.62650002E+02 -0.22472E+06
 0.62700005E+02 -0.17235E+06
 0.62750000E+02 -0.12606E+06
 0.62800003E+02 -0.78791E+05
 0.62849998E+02 -0.28192E+05
 0.62900002E+02  0.14296E+05
 0.62950005E+02  0.42958E+05
 0.63000000E+02  0.66115E+05
 0.63050003E+02  0.78205E+05
 0.63099998E+02  0.68504E+05
 0.63150002E+02  0.53384E+05
 0.63200005E+02  0.47473E+05
 0.63250000E+02  0.36509E+05
 0.63300003E+02  0.14860E+05
 0.63349998E+02 -0.16514E+05
 0.63400002E+02 -0.72420E+05
 0.63450005E+02 -0.14388E+06
 0.63500000E+02 -0.19362E+06
 0.63550003E+02 -0.19659E+06
 0.63599998E+02 -0.15901E+06
 0.63650002E+02 -0.10252E+06
 0.63700005E+02 -0.50890E+05
 0.63750000E+02 -0.19377E+05
 0.63800003E+02  0.21794E+05
 0.63849998E+02  0.99504E+05
 0.63900002E+02  0.18912E+06
 0.63950005E+02  0.25030E+06
 0.64000000E+02  0.26346E+06
 0.64050003E+02  0.24317E+06
 0.64099998E+02  0.20365E+06
 0.64150002E+02  0.14687E+06
 0.64200005E+02  0.74789E+05
 0.64250000E+02 -0.37010E+04
 0.64300003E+02 -0.68203E+05
 0.64349998E+02 -0.97089E+05
 0.64400002E+02 -0.85620E+05
 0.64450005E+02 -0.69969E+05
 0.64500000E+02 -0.77334E+05
 0.64550003E+02 -0.76763E+05
 0.64599998E+02 -0.57134E+05
 0.64650002E+02 -0.54632E+05
 0.64700005E+02 -0.56651E+05
 0.64750000E+02 -0.27133E+05
 0.64800003E+02  0.10371E+05
 0.64849998E+02  0.24109E+05
 0.64900002E+02  0.12491E+05
 0.64950005E+02 -0.23972E+05
 0.65000000E+02 -0.83158E+05
 0.65050003E+02 -0.14854E+06
 0.65099998E+02 -0.19399E+06
 0.65150002E+02 -0.20873E+06
 0.65200005E+02 -0.21049E+06
 0.65250000E+02 -0.20319E+06
 0.65300003E+02 -0.17746E+06
 0.65349998E+02 -0.15015E+06
 0.65400002E+02 -0.13838E+06
 0.65450005E+02 -0.13644E+06
 0.65500000E+02 -0.12156E+06
 0.65550003E+02 -0.93791E+05
 0.65599998E+02 -0.76312E+05
 0.65650002E+02 -0.61051E+05
 0.65700005E+02 -0.38035E+05
 0.65750000E+02 -0.14635E+05
 0.65800003E+02  0.47040E+04
 0.65849998E+02  0.70600E+03
 0.65900002E+02 -0.38191E+05
 0.65950005E+02 -0.94296E+05
 0.66000000E+02 -0.14171E+06
 0.66050003E+02 -0.15776E+06
 0.66099998E+02 -0.14204E+06
 0.66150002E+02 -0.98958E+05
 0.66200005E+02 -0.36436E+05
 0.66250000E+02  0.10658E+05
 0.66300003E+02  0.34057E+05
 0.66349998E+02  0.48170E+05
 0.66400002E+02  0.52246E+05
 0.66450005E+02  0.56841E+05
 0.66500000E+02  0.81976E+05
 0.66550003E+02  0.12025E+06
 0.66599998E+02  0.14750E+06
 0.66650002E+02  0.16092E+06
 0.66700005E+02  0.15241E+06
 0.66750000E+02  0.11854E+06
 0.66800003E+02  0.78141E+05
 0.66849998E+02  0.38949E+05
 0.66900002E+02  0.59940E+04
 0.66950005E+02 -0.25851E+05
 0.67000000E+02 -0.63161E+05
 0.67050003E+02 -0.10310E+06
 0.67099998E+02 -0.14796E+06
 0.67150002E+02 -0.18335E+06
 0.67200005E+02 -0.17824E+06
 0.67250000E+02 -0.12333E+06
 0.67300003E+02 -0.60955E+05
 0.67349998E+02 -0.35069E+05
 0.67400002E+02 -0.35644E+05
 0.67450005E+02 -0.36893E+05
 0.67500000E+02 -0.21466E+05
 0.67550003E+02  0.20001E+05
 0.67599998E+02  0.79634E+05
 0.67650002E+02  0.14444E+06
 0.67700005E+02  0.19759E+06
 0.67750000E+02  0.22373E+06
 0.67800003E+02  0.22345E+06
 0.67849998E+02  0.19516E+06
 0.67900002E+02  0.14310E+06
 0.67950005E+02  0.94540E+05
 0.68000000E+02  0.60135E+05
 0.68050003E+02  0.34463E+05
 0.68099998E+02  0.30894E+05
 0.68150002E+02  0.51137E+05
 0.68200005E+02  0.70946E+05
 0.68250000E+02  0.77443E+05
 0.68300003E+02  0.67767E+05
 0.68349998E+02  0.43267E+05
 0.68400002E+02  0.18576E+05
 0.68450005E+02  0.19830E+04
 0.68500000E+02 -0.68210E+04
 0.68550003E+02 -0.15318E+05
 0.68599998E+02 -0.39226E+05
 0.68650002E+02 -0.78819E+05
 0.68700005E+02 -0.11560E+06
 0.68750000E+02 -0.13294E+06
 0.68800003E+02 -0.13885E+06
 0.68849998E+02 -0.14686E+06
 0.68900002E+02 -0.15043E+06
 0.68950005E+02 -0.14838E+06
 0.69000000E+02 -0.14848E+06
 0.69050003E+02 -0.14598E+06
 0.69099998E+02 -0.12748E+06
 0.69150002E+02 -0.94382E+05
 0.69200005E+02 -0.55725E+05
 0.69250000E+02 -0.11300E+05
 0.69300003E+02  0.35747E+05
 0.69349998E+02  0.91543E+05
 0.69400002E+02  0.15843E+06
 0.69450005E+02  0.20884E+06
 0.69500000E+02  0.22928E+06
 0.69550003E+02  0.22891E+06
 0.69599998E+02  0.20513E+06
 0.69650002E+02  0.16750E+06
 0.69700005E+02  0.14801E+06
 0.69750000E+02  0.15936E+06
 0.69800003E+02  0.19049E+06
 0.69849998E+02  0.22726E+06
 0.69900002E+02  0.25125E+06
 0.69950005E+02  0.25369E+06
 0.70000000E+02  0.24081E+06
 0.70050003E+02  0.20576E+06
 0.70099998E+02  0.14278E+06
 0.70150002E+02  0.72403E+05
 0.70200005E+02  0.12966E+05
 0.70250000E+02 -0.34734E+05
 0.70300003E+02 -0.60560E+05
 0.70349998E+02 -0.58335E+05
 0.70400002E+02 -0.51562E+05
 0.70450005E+02 -0.57610E+05
 0.70500000E+02 -0.70978E+05
 0.70550003E+02 -0.70509E+05
 0.70599998E+02 -0.44610E+05
 0.70650002E+02 -0.15601E+05
 0.70700005E+02  0.27700E+04
 0.70750000E+02  0.14544E+05
 0.70800003E+02  0.21063E+05
 0.70849998E+02  0.31356E+05
 0.70900002E+02  0.48303E+05
 0.70950005E+02  0.52057E+05
 0.71000000E+02  0.32207E+05
 0.71050003E+02  0.30640E+04
 0.71099998E+02 -0.20872E+05
 0.71150002E+02 -0.21876E+05
 0.71200005E+02  0.71820E+04
 0.71250000E+02  0.50535E+05
 0.71300003E+02  0.95839E+05
 0.71349998E+02  0.12976E+06
 0.71400002E+02  0.14479E+06
 0.71450005E+02  0.15765E+06
 0.71500000E+02  0.18150E+06
 0.71550003E+02  0.20538E+06
 0.71599998E+02  0.20977E+06
 0.71650002E+02  0.19415E+06
 0.71700005E+02  0.17163E+06
 0.71750000E+02  0.14409E+06
 0.71800003E+02  0.10836E+06
 0.71849998E+02  0.59996E+05
 0.71900002E+02 -0.19330E+04
 0.71950005E+02 -0.66124E+05
 0.72000000E+02 -0.12036E+06
 0.72050003E+02 -0.15999E+06
 0.72099998E+02 -0.18668E+06
 0.72150002E+02 -0.19658E+06
 0.72200005E+02 -0.17999E+06
 0.72250000E+02 -0.14154E+06
 0.72300003E+02 -0.10439E+06
 0.72349998E+02 -0.89421E+05
 0.72400002E+02 -0.93168E+05
 0.72450005E+02 -0.10047E+06
 0.72500000E+02 -0.11022E+06
 0.72550003E+02 -0.13019E+06
 0.72599998E+02 -0.16304E+06
 0.72650002E+02 -0.20340E+06
 0.72700005E+02 -0.23989E+06
 0.72750000E+02 -0.26127E+06
 0.72800003E+02 -0.25806E+06
 0.72849998E+02 -0.22666E+06
 0.72900002E+02 -0.17845E+06
 0.72950005E+02 -0.12463E+06
 0.73000000E+02 -0.68316E+05
 0.73050003E+02 -0.10721E+05
 0.73099998E+02  0.51120E+05
 0.73150002E+02  0.10623E+06
 0.73200005E+02  0.13681E+06
 0.73250000E+02  0.14678E+06
 0.73300003E+02  0.14844E+06
 0.73349998E+02  0.14784E+06
 0.73400002E+02  0.14566E+06
 0.73450005E+02  0.14218E+06
 0.73500000E+02  0.14174E+06
 0.73550003E+02  0.13539E+06
 0.73599998E+02  0.10887E+06
 0.73650002E+02  0.75507E+05
 0.73700005E+02  0.54882E+05
 0.73750000E+02  0.39037E+05
 0.73800003E+02  0.93720E+04
 0.73849998E+02 -0.37230E+05
 0.73900002E+02 -0.83840E+05
 0.73950005E+02 -0.11340E+06
 0.74000000E+02 -0.12253E+06
 0.74050003E+02 -0.11329E+06
 0.74099998E+02 -0.98863E+05
 0.74150002E+02 -0.91191E+05
 0.74200005E+02 -0.86764E+05
 0.74250000E+02 -0.84458E+05
 0.74300003E+02 -0.80376E+05
 0.74349998E+02 -0.65359E+05
 0.74400002E+02 -0.43853E+05
 0.74450005E+02 -0.32399E+05
 0.74500000E+02 -0.36728E+05
 0.74550003E+02 -0.44689E+05
 0.74599998E+02 -0.46255E+05
 0.74650002E+02 -0.38854E+05
 0.74700005E+02 -0.25961E+05
 0.74750000E+02 -0.73700E+04
 0.74800003E+02  0.24770E+05
 0.74849998E+02  0.55251E+05
 0.74900002E+02  0.60544E+05
 0.74950005E+02  0.47368E+05
 0.75000000E+02  0.32876E+05
 0.75050003E+02  0.22367E+05
 0.75099998E+02  0.17199E+05
 0.75150002E+02  0.15277E+05
 0.75200005E+02  0.12139E+05
 0.75250000E+02  0.10055E+05
 0.75300003E+02  0.16017E+05
 0.75349998E+02  0.34606E+05
 0.75400002E+02  0.59841E+05
 0.75450005E+02  0.79833E+05
 0.75500000E+02  0.88990E+05
 0.75550003E+02  0.86834E+05
 0.75599998E+02  0.77745E+05
 0.75650002E+02  0.70000E+05
 0.75700005E+02  0.64595E+05
 0.75750000E+02  0.56787E+05
 0.75800003E+02  0.51895E+05
 0.75849998E+02  0.56777E+05
 0.75900002E+02  0.66280E+05
 0.75950005E+02  0.73977E+05
 0.76000000E+02  0.75630E+05
 0.76050003E+02  0.64073E+05
 0.76099998E+02  0.37406E+05
 0.76150002E+02  0.33960E+04
 0.76200005E+02 -0.27816E+05
 0.76250000E+02 -0.44565E+05
 0.76300003E+02 -0.40173E+05
 0.76349998E+02 -0.12449E+05
 0.76400002E+02  0.36946E+05
 0.76450005E+02  0.88388E+05
 0.76500000E+02  0.12628E+06
 0.76550003E+02  0.14997E+06
 0.76599998E+02  0.15684E+06
 0.76650002E+02  0.15147E+06
 0.76700005E+02  0.13457E+06
 0.76750000E+02  0.10281E+06
 0.76800003E+02  0.72046E+05
 0.76849998E+02  0.48370E+05
 0.76900002E+02  0.17521E+05
 0.76950005E+02 -0.21501E+05
 0.77000000E+02 -0.52671E+05
 0.77050003E+02 -0.64797E+05
 0.77099998E+02 -0.69833E+05
 0.77150002E+02 -0.85039E+05
 0.77200005E+02 -0.10658E+06
 0.77250000E+02 -0.12248E+06
 0.77300003E+02 -0.13180E+06
 0.77349998E+02 -0.13465E+06
 0.77400002E+02 -0.12490E+06
 0.77450005E+02 -0.11245E+06
 0.77500000E+02 -0.11188E+06
 0.77550003E+02 -0.11310E+06
 0.77599998E+02 -0.10934E+06
 0.77650002E+02 -0.10747E+06
 0.77700005E+02 -0.10320E+06
 0.77750000E+02 -0.97064E+05
 0.77800003E+02 -0.97640E+05
 0.77849998E+02 -0.10451E+06
 0.77900002E+02 -0.12264E+06
 0.77950005E+02 -0.14760E+06
 0.78000000E+02 -0.15238E+06
 0.78050003E+02 -0.12976E+06
 0.78099998E+02 -0.98244E+05
 0.78150002E+02 -0.72505E+05
 0.78200005E+02 -0.52856E+05
 0.78250000E+02 -0.25058E+05
 0.78300003E+02  0.22851E+05
 0.78349998E+02  0.82683E+05
 0.78400002E+02  0.12796E+06
 0.78450005E+02  0.15143E+06
 0.78500000E+02  0.17296E+06
 0.78550003E+02  0.19276E+06
 0.78599998E+02  0.20648E+06
 0.78650002E+02  0.22249E+06
 0.78700005E+02  0.23432E+06
 0.78750000E+02  0.23720E+06
 0.78800003E+02  0.23236E+06
 0.78849998E+02  0.20967E+06
 0.78900002E+02  0.16387E+06
 0.78950005E+02  0.10466E+06
 0.79000000E+02  0.48947E+05
 0.79050003E+02  0.88630E+04
 0.79099998E+02 -0.17725E+05
 0.79150002E+02 -0.41224E+05
 0.79200005E+02 -0.67696E+05
 0.79250000E+02 -0.87123E+05
 0.79300003E+02 -0.86555E+05
 0.79349998E+02 -0.73414E+05
 0.79400002E+02 -0.61558E+05
 0.79450005E+02 -0.56498E+05
 0.79500000E+02 -0.59765E+05
 0.79550003E+02 -0.72337E+05
 0.79599998E+02 -0.95362E+05
 0.79650002E+02 -0.12288E+06
 0.79700005E+02 -0.14667E+06
 0.79750000E+02 -0.16709E+06
 0.79800003E+02 -0.19114E+06
 0.79849998E+02 -0.22218E+06
 0.79900002E+02 -0.25181E+06
 0.79950005E+02 -0.26581E+06
 0.80000000E+02 -0.25260E+06
 0.80050003E+02 -0.22086E+06
 0.80099998E+02 -0.19404E+06
 0.80150002E+02 -0.17896E+06
 0.80200005E+02 -0.17204E+06
 0.80250000E+02 -0.16142E+06
 0.80300003E+02 -0.13060E+06
 0.80349998E+02 -0.93503E+05
 0.80400002E+02 -0.71615E+05
 0.80450005E+02 -0.57346E+05
 0.80500000E+02 -0.36715E+05
 0.80550003E+02 -0.10171E+05
 0.80599998E+02  0.99740E+04
 0.80650002E+02  0.21076E+05
 0.80700005E+02  0.31480E+05
 0.80750000E+02  0.41940E+05
 0.80800003E+02  0.50698E+05
 0.80849998E+02  0.54035E+05
 0.80900002E+02  0.50388E+05
 0.80950005E+02  0.44340E+05
 0.81000000E+02  0.41078E+05
 0.81050003E+02  0.52480E+05
 0.81099998E+02  0.87738E+05
 0.81150002E+02  0.13314E+06
 0.81200005E+02  0.16613E+06
 0.81250000E+02  0.18135E+06
 0.81300003E+02  0.18004E+06
 0.81349998E+02  0.15993E+06
 0.81400002E+02  0.12466E+06
 0.81450005E+02  0.80341E+05
 0.81500000E+02  0.30904E+05
 0.81550003E+02 -0.18274E+05
 0.81599998E+02 -0.60533E+05
 0.81650002E+02 -0.89690E+05
 0.81700005E+02 -0.10615E+06
 0.81750000E+02 -0.11987E+06
 0.81800003E+02 -0.12684E+06
 0.81849998E+02 -0.11156E+06
 0.81900002E+02 -0.80051E+05
 0.81950005E+02 -0.47648E+05
 0.82000000E+02 -0.15356E+05
 0.82050003E+02  0.23159E+05
 0.82099998E+02  0.64867E+05
 0.82150002E+02  0.94814E+05
 0.82200005E+02  0.10268E+06
 0.82250000E+02  0.93610E+05
 0.82300003E+02  0.82283E+05
 0.82349998E+02  0.75337E+05
 0.82400002E+02  0.65937E+05
 0.82450005E+02  0.50201E+05
 0.82500000E+02  0.38499E+05
 0.82550003E+02  0.40569E+05
 0.82599998E+02  0.47963E+05
 0.82650002E+02  0.50825E+05
 0.82700005E+02  0.51834E+05
 0.82750000E+02  0.52553E+05
 0.82800003E+02  0.49971E+05
 0.82849998E+02  0.39910E+05
 0.82900002E+02  0.21013E+05
 0.82950005E+02 -0.22210E+04
 0.83000000E+02 -0.26305E+05
 0.83050003E+02 -0.45042E+05
 0.83099998E+02 -0.49301E+05
 0.83150002E+02 -0.41383E+05
 0.83200005E+02 -0.31867E+05
 0.83250000E+02 -0.20523E+05
 0.83300003E+02  0.19470E+04
 0.83349998E+02  0.36328E+05
 0.83400002E+02  0.82108E+05
 0.83450005E+02  0.13927E+06
 0.83500000E+02  0.18906E+06
 0.83550003E+02  0.21074E+06
 0.83599998E+02  0.20504E+06
 0.83650002E+02  0.18529E+06
 0.83700005E+02  0.16462E+06
 0.83750000E+02  0.14436E+06
 0.83800003E+02  0.12304E+06
 0.83849998E+02  0.10739E+06
 0.83900002E+02  0.99162E+05
 0.83950005E+02  0.94496E+05
 0.84000000E+02  0.91434E+05
 0.84050003E+02  0.87342E+05
 0.84099998E+02  0.77797E+05
 0.84150002E+02  0.67757E+05
 0.84200005E+02  0.72275E+05
 0.84250000E+02  0.93579E+05
 0.84300003E+02  0.11944E+06
 0.84349998E+02  0.14005E+06
 0.84400002E+02  0.14651E+06
 0.84450005E+02  0.13455E+06
 0.84500000E+02  0.11296E+06
 0.84550003E+02  0.82869E+05
 0.84599998E+02  0.37403E+05
 0.84650002E+02 -0.17441E+05
 0.84700005E+02 -0.70267E+05
 0.84750000E+02 -0.10972E+06
 0.84800003E+02 -0.13462E+06
 0.84849998E+02 -0.15784E+06
 0.84900002E+02 -0.18265E+06
 0.84950005E+02 -0.19989E+06
 0.85000000E+02 -0.20369E+06
 0.85050003E+02 -0.19398E+06
 0.85099998E+02 -0.16992E+06
 0.85150002E+02 -0.13485E+06
 0.85200005E+02 -0.98779E+05
 0.85250000E+02 -0.71239E+05
 0.85300003E+02 -0.57974E+05
 0.85349998E+02 -0.56714E+05
 0.85400002E+02 -0.64650E+05
 0.85450005E+02 -0.82464E+05
 0.85500000E+02 -0.10424E+06
 0.85550003E+02 -0.11979E+06
 0.85599998E+02 -0.12297E+06
 0.85650002E+02 -0.11065E+06
 0.85700005E+02 -0.82092E+05
 0.85750000E+02 -0.42444E+05
 0.85800003E+02 -0.23420E+04
 0.85849998E+02  0.27750E+05
 0.85900002E+02  0.42771E+05
 0.85950005E+02  0.44036E+05
 0.86000000E+02  0.37418E+05
 0.86050003E+02  0.23400E+05
 0.86099998E+02 -0.96400E+03
 0.86150002E+02 -0.29317E+05
 0.86200005E+02 -0.51729E+05
 0.86250000E+02 -0.62935E+05
 0.86300003E+02 -0.62183E+05
 0.86349998E+02 -0.50880E+05
 0.86400002E+02 -0.35370E+05
 0.86450005E+02 -0.22702E+05
 0.86500000E+02 -0.13136E+05
 0.86550003E+02 -0.10592E+05
 0.86599998E+02 -0.17375E+05
 0.86650002E+02 -0.21602E+05
 0.86700005E+02 -0.15335E+05
 0.86750000E+02 -0.75060E+04
 0.86800003E+02 -0.87420E+04
 0.86849998E+02 -0.19966E+05
 0.86900002E+02 -0.34094E+05
 0.86950005E+02 -0.45004E+05
 0.87000000E+02 -0.54678E+05
 0.87050003E+02 -0.60758E+05
 0.87099998E+02 -0.52887E+05
 0.87150002E+02 -0.31403E+05
 0.87200005E+02 -0.10349E+05
 0.87250000E+02 -0.12320E+04
 0.87300003E+02 -0.33740E+04
 0.87349998E+02 -0.72830E+04
 0.87400002E+02 -0.54020E+04
 0.87450005E+02 -0.31500E+04
 0.87500000E+02 -0.10661E+05
 0.87550003E+02 -0.24995E+05
 0.87599998E+02 -0.39192E+05
 0.87650002E+02 -0.56506E+05
 0.87700005E+02 -0.82249E+05
 0.87750000E+02 -0.11345E+06
 0.87800003E+02 -0.14063E+06
 0.87849998E+02 -0.15973E+06
 0.87900002E+02 -0.16993E+06
 0.87950005E+02 -0.16413E+06
 0.88000000E+02 -0.13854E+06
 0.88050003E+02 -0.94705E+05
 0.88099998E+02 -0.40247E+05
 0.88150002E+02  0.11233E+05
 0.88200005E+02  0.57980E+05
 0.88250000E+02  0.10095E+06
 0.88300003E+02  0.12759E+06
 0.88349998E+02  0.12650E+06
 0.88400002E+02  0.10247E+06
 0.88450005E+02  0.73705E+05
 0.88500000E+02  0.51189E+05
 0.88550003E+02  0.29729E+05
 0.88599998E+02  0.64130E+04
 0.88650002E+02 -0.12153E+05
 0.88700005E+02 -0.24220E+05
 0.88750000E+02 -0.37051E+05
 0.88800003E+02 -0.51812E+05
 0.88849998E+02 -0.59679E+05
 0.88900002E+02 -0.57652E+05
 0.88950005E+02 -0.51101E+05
 0.89000000E+02 -0.40568E+05
 0.89050003E+02 -0.22174E+05
 0.89099998E+02  0.12320E+04
 0.89150002E+02  0.25741E+05
 0.89200005E+02  0.55138E+05
 0.89250000E+02  0.85683E+05
 0.89300003E+02  0.10139E+06
 0.89349998E+02  0.94194E+05
 0.89400002E+02  0.71302E+05
 0.89450005E+02  0.48533E+05
 0.89500000E+02  0.36250E+05
 0.89550003E+02  0.30297E+05
 0.89599998E+02  0.25299E+05
 0.89650002E+02  0.20595E+05
 0.89700005E+02  0.16920E+05
 0.89750000E+02  0.15174E+05
 0.89800003E+02  0.14171E+05
 0.89849998E+02  0.13867E+05
 0.89900002E+02  0.13953E+05
 0.89950005E+02  0.15398E+05
 0.90000000E+02  0.18491E+05
 0.90050003E+02  0.21440E+05
 0.90099998E+02  0.28755E+05
 0.90150002E+02  0.42462E+05
 0.90200005E+02  0.55061E+05
 0.90250000E+02  0.60704E+05
 0.90300003E+02  0.62069E+05
 0.90349998E+02  0.65938E+05
 0.90400002E+02  0.76450E+05
 0.90450005E+02  0.94406E+05
 0.90500000E+02  0.11738E+06
 0.90550003E+02  0.13580E+06
 0.90599998E+02  0.14195E+06
 0.90650002E+02  0.14178E+06
 0.90700005E+02  0.14208E+06
 0.90750000E+02  0.13802E+06
 0.90800003E+02  0.12088E+06
 0.90849998E+02  0.91041E+05
 0.90900002E+02  0.56658E+05
 0.90950005E+02  0.24072E+05
 0.91000000E+02 -0.33500E+04
 0.91050003E+02 -0.26234E+05
 0.91099998E+02 -0.47311E+05
 0.91150002E+02 -0.65810E+05
 0.91200005E+02 -0.74611E+05
 0.91250000E+02 -0.68201E+05
 0.91300003E+02 -0.53074E+05
 0.91349998E+02 -0.37982E+05
 0.91400002E+02 -0.26931E+05
 0.91450005E+02 -0.19207E+05
 0.91500000E+02 -0.67470E+04
 0.91550003E+02  0.16372E+05
 0.91599998E+02  0.49135E+05
 0.91650002E+02  0.83836E+05
 0.91700005E+02  0.10573E+06
 0.91750000E+02  0.10849E+06
 0.91800003E+02  0.98902E+05
 0.91849998E+02  0.79622E+05
 0.91900002E+02  0.50605E+05
 0.91950005E+02  0.21271E+05
 0.92000000E+02  0.21000E+03
 0.92050003E+02 -0.12401E+05
 0.92099998E+02 -0.16400E+05
 0.92150002E+02 -0.11183E+05
 0.92200005E+02 -0.14080E+04
 0.92250000E+02  0.52940E+04
 0.92300003E+02  0.72500E+04
 0.92349998E+02  0.92000E+04
 0.92400002E+02  0.13000E+05
 0.92450005E+02  0.18155E+05
 0.92500000E+02  0.22710E+05
 0.92550003E+02  0.19546E+05
 0.92599998E+02  0.67710E+04
 0.92650002E+02 -0.72080E+04
 0.92700005E+02 -0.14024E+05
 0.92750000E+02 -0.11789E+05
 0.92800003E+02 -0.20370E+04
 0.92849998E+02  0.14002E+05
 0.92900002E+02  0.31751E+05
 0.92950005E+02  0.44316E+05
 0.93000000E+02  0.48406E+05
 0.93050003E+02  0.47319E+05
 0.93099998E+02  0.49015E+05
 0.93150002E+02  0.55972E+05
 0.93200005E+02  0.60287E+05
 0.93250000E+02  0.52738E+05
 0.93300003E+02  0.33159E+05
 0.93349998E+02  0.87680E+04
 0.93400002E+02 -0.13112E+05
 0.93450005E+02 -0.29587E+05
 0.93500000E+02 -0.43022E+05
 0.93550003E+02 -0.52494E+05
 0.93599998E+02 -0.53676E+05
 0.93650002E+02 -0.50368E+05
 0.93700005E+02 -0.46993E+05
 0.93750000E+02 -0.40701E+05
 0.93800003E+02 -0.28632E+05
 0.93849998E+02 -0.10055E+05
 0.93900002E+02  0.11263E+05
 0.93950005E+02  0.25950E+05
 0.94000000E+02  0.26212E+05
 0.94050003E+02  0.14117E+05
 0.94099998E+02 -0.34510E+04
 0.94150002E+02 -0.23011E+05
 0.94200005E+02 -0.39989E+05
 0.94250000E+02 -0.49693E+05
 0.94300003E+02 -0.52676E+05
 0.94349998E+02 -0.54765E+05
 0.94400002E+02 -0.59667E+05
 0.94450005E+02 -0.61437E+05
 0.94500000E+02 -0.53526E+05
 0.94550003E+02 -0.38840E+05
 0.94599998E+02 -0.27534E+05
 0.94650002E+02 -0.25989E+05
 0.94700005E+02 -0.27843E+05
 0.94750000E+02 -0.27740E+05
 0.94800003E+02 -0.29706E+05
 0.94849998E+02 -0.32531E+05
 0.94900002E+02 -0.32162E+05
 0.94950005E+02 -0.26869E+05
 0.95000000E+02 -0.14232E+05
 0.95050003E+02  0.23500E+04
 0.95099998E+02  0.18855E+05
 0.95150002E+02  0.31755E+05
 0.95200005E+02  0.33965E+05
 0.95250000E+02  0.26980E+05
 0.95300003E+02  0.22820E+05
 0.95349998E+02  0.29960E+05
 0.95400002E+02  0.42921E+05
 0.95450005E+02  0.48686E+05
 0.95500000E+02  0.40568E+05
 0.95550003E+02  0.23100E+05
 0.95599998E+02  0.59900E+04
 0.95650002E+02 -0.75030E+04
 0.95700005E+02 -0.20427E+05
 0.95750000E+02 -0.33191E+05
 0.95800003E+02 -0.43389E+05
 0.95849998E+02 -0.48114E+05
 0.95900002E+02 -0.43960E+05
 0.95950005E+02 -0.31759E+05
 0.96000000E+02 -0.15080E+05
 0.96050003E+02  0.23420E+04
 0.96099998E+02  0.13104E+05
 0.96150002E+02  0.13603E+05
 0.96200005E+02  0.70370E+04
 0.96250000E+02 -0.18730E+04
 0.96300003E+02 -0.84450E+04
 0.96349998E+02 -0.13023E+05
 0.96400002E+02 -0.16258E+05
 0.96450005E+02 -0.13420E+05
 0.96500000E+02 -0.54610E+04
 0.96550003E+02  0.12790E+04
 0.96599998E+02  0.54860E+04
 0.96650002E+02  0.68840E+04
 0.96700005E+02  0.44550E+04
 0.96750000E+02 -0.33720E+04
 0.96800003E+02 -0.20187E+05
 0.96849998E+02 -0.41947E+05
 0.96900002E+02 -0.57809E+05
 0.96950005E+02 -0.64485E+05
 0.97000000E+02 -0.68692E+05
 0.97050003E+02 -0.76182E+05
 0.97099998E+02 -0.82762E+05
 0.97150002E+02 -0.80238E+05
 0.97200005E+02 -0.69840E+05
 0.97250000E+02 -0.62656E+05
 0.97300003E+02 -0.64793E+05
 0.97349998E+02 -0.68823E+05
 0.97400002E+02 -0.63653E+05
 0.97450005E+02 -0.48471E+05
 0.97500000E+02 -0.33204E+05
 0.97550003E+02 -0.26622E+05
 0.97599998E+02 -0.28020E+05
 0.97650002E+02 -0.29221E+05
 0.97700005E+02 -0.22847E+05
 0.97750000E+02 -0.10651E+05
 0.97800003E+02  0.75000E+03
 0.97849998E+02  0.11238E+05
 0.97900002E+02  0.23671E+05
 0.97950005E+02  0.33713E+05
 0.98000000E+02  0.31394E+05
 0.98050003E+02  0.10650E+05
 0.98099998E+02 -0.24092E+05
 0.98150002E+02 -0.64092E+05
 0.98200005E+02 -0.10324E+06
 0.98250000E+02 -0.13481E+06
 0.98300003E+02 -0.15368E+06
 0.98349998E+02 -0.16052E+06
 0.98400002E+02 -0.15728E+06
 0.98450005E+02 -0.14656E+06
 0.98500000E+02 -0.13254E+06
 0.98550003E+02 -0.11791E+06
 0.98599998E+02 -0.10285E+06
 0.98650002E+02 -0.84854E+05
 0.98700005E+02 -0.62215E+05
 0.98750000E+02 -0.36198E+05
 0.98800003E+02 -0.79540E+04
 0.98849998E+02  0.19074E+05
 0.98900002E+02  0.38499E+05
 0.98950005E+02  0.50132E+05
 0.99000000E+02  0.58714E+05
 0.99050003E+02  0.64274E+05
 0.99099998E+02  0.65289E+05
 0.99150002E+02  0.62752E+05
 0.99200005E+02  0.59978E+05
 0.99250000E+02  0.59956E+05
 0.99300003E+02  0.59512E+05
 0.99349998E+02  0.57313E+05
 0.99400002E+02  0.57315E+05
 0.99450005E+02  0.56441E+05
 0.99500000E+02  0.51951E+05
 0.99550003E+02  0.51187E+05
 0.99599998E+02  0.58145E+05
 0.99650002E+02  0.68501E+05
 0.99700005E+02  0.77811E+05
 0.99750000E+02  0.81762E+05
 0.99800003E+02  0.74917E+05
 0.99849998E+02  0.59647E+05
 0.99900002E+02  0.46839E+05
 0.99950005E+02  0.41562E+05
 0.10000000E+03  0.39075E+05
 0.10005000E+03  0.34304E+05
 0.10010000E+03  0.26979E+05
 0.10015000E+03  0.19193E+05
 0.10020000E+03  0.16207E+05
 0.10025000E+03  0.22966E+05
 0.10030000E+03  0.36889E+05
 0.10035000E+03  0.52297E+05
 0.10040000E+03  0.64008E+05
 0.10045000E+03  0.68566E+05
 0.10050000E+03  0.68559E+05
 0.10055000E+03  0.69290E+05
 0.10060000E+03  0.72657E+05
 0.10065000E+03  0.77181E+05
 0.10070000E+03  0.81203E+05
 0.10075000E+03  0.86216E+05
 0.10080000E+03  0.91677E+05
 0.10085000E+03  0.88711E+05
 0.10090000E+03  0.70316E+05
 0.10095000E+03  0.39963E+05
 0.10100000E+03  0.95890E+04
 0.10105000E+03 -0.90820E+04
 0.10110000E+03 -0.15087E+05
 0.10115000E+03 -0.12323E+05
 0.10120000E+03 -0.42280E+04
 0.10125000E+03  0.47690E+04
 0.10130000E+03  0.13480E+05
 0.10135000E+03  0.22035E+05
 0.10140000E+03  0.29056E+05
 0.10145000E+03  0.32293E+05
 0.10150000E+03  0.29375E+05
 0.10155000E+03  0.20602E+05
 0.10160000E+03  0.10983E+05
 0.10165000E+03  0.75000E+04
 0.10170000E+03  0.10778E+05
 0.10175000E+03  0.16319E+05
 0.10180000E+03  0.20687E+05
 0.10185000E+03  0.22654E+05
 0.10190000E+03  0.24124E+05
 0.10195000E+03  0.25432E+05
 0.10200000E+03  0.25609E+05
 0.10205000E+03  0.26058E+05
 0.10210000E+03  0.26215E+05
 0.10215000E+03  0.22953E+05
 0.10220000E+03  0.12857E+05
 0.10225000E+03 -0.56560E+04
 0.10230000E+03 -0.29438E+05
 0.10235000E+03 -0.52652E+05
 0.10240000E+03 -0.69616E+05
 0.10245000E+03 -0.78739E+05
 0.10250000E+03 -0.83514E+05
 0.10255000E+03 -0.86456E+05
 0.10260000E+03 -0.89642E+05
 0.10265000E+03 -0.94309E+05
 0.10270000E+03 -0.97011E+05
 0.10275000E+03 -0.95609E+05
 0.10280000E+03 -0.89477E+05
 0.10285000E+03 -0.76997E+05
 0.10290000E+03 -0.61832E+05
 0.10295000E+03 -0.49101E+05
 0.10300000E+03 -0.39429E+05
 0.10305000E+03 -0.31106E+05
 0.10310000E+03 -0.22902E+05
 0.10315000E+03 -0.18236E+05
 0.10320000E+03 -0.21161E+05
 0.10325000E+03 -0.31448E+05
 0.10330000E+03 -0.46640E+05
 0.10335000E+03 -0.62111E+05
 0.10340000E+03 -0.73928E+05
 0.10345000E+03 -0.79976E+05
 0.10350000E+03 -0.76195E+05
 0.10355000E+03 -0.61447E+05
 0.10360000E+03 -0.41406E+05
 0.10365000E+03 -0.21241E+05
 0.10370000E+03 -0.58180E+04
 0.10375000E+03 -0.11320E+04
 0.10380000E+03 -0.60220E+04
 0.10385000E+03 -0.14042E+05
 0.10390000E+03 -0.20524E+05
 0.10395000E+03 -0.22613E+05
 0.10400000E+03 -0.17896E+05
 0.10405000E+03 -0.29860E+04
 0.10410000E+03  0.23100E+05
 0.10415000E+03  0.51771E+05
 0.10420000E+03  0.68578E+05
 0.10425000E+03  0.70707E+05
 0.10430000E+03  0.71065E+05
 0.10435000E+03  0.79349E+05
 0.10440000E+03  0.90668E+05
 0.10445000E+03  0.97077E+05
 0.10450000E+03  0.10054E+06
 0.10455000E+03  0.10677E+06
 0.10460000E+03  0.11556E+06
 0.10465000E+03  0.12307E+06
 0.10470000E+03  0.12615E+06
 0.10475000E+03  0.12335E+06
 0.10480000E+03  0.11490E+06
 0.10485000E+03  0.10153E+06
 0.10490000E+03  0.82028E+05
 0.10495000E+03  0.56573E+05
 0.10500000E+03  0.30983E+05
 0.10505000E+03  0.11985E+05
 0.10510000E+03  0.28400E+03
 0.10515000E+03 -0.89250E+04
 0.10520000E+03 -0.17128E+05
 0.10525000E+03 -0.22007E+05
 0.10530000E+03 -0.24417E+05
 0.10535000E+03 -0.25358E+05
 0.10540000E+03 -0.23671E+05
 0.10545000E+03 -0.18347E+05
 0.10550000E+03 -0.12288E+05
 0.10555000E+03 -0.14662E+05
 0.10560000E+03 -0.29412E+05
 0.10565000E+03 -0.48742E+05
 0.10570000E+03 -0.63087E+05
 0.10575000E+03 -0.67772E+05
 0.10580000E+03 -0.62981E+05
 0.10585000E+03 -0.51282E+05
 0.10590000E+03 -0.35512E+05
 0.10595000E+03 -0.18828E+05
 0.10600000E+03 -0.32350E+04
 0.10605000E+03  0.10676E+05
 0.10610000E+03  0.22403E+05
 0.10615000E+03  0.30270E+05
 0.10620000E+03  0.30541E+05
 0.10625000E+03  0.24178E+05
 0.10630000E+03  0.19765E+05
 0.10635000E+03  0.21289E+05
 0.10640000E+03  0.25870E+05
 0.10645000E+03  0.32207E+05
 0.10650000E+03  0.38170E+05
 0.10655000E+03  0.41087E+05
 0.10660000E+03  0.41247E+05
 0.10665000E+03  0.38151E+05
 0.10670000E+03  0.29697E+05
 0.10675000E+03  0.16433E+05
 0.10680000E+03  0.37830E+04
 0.10685000E+03 -0.51520E+04
 0.10690000E+03 -0.14866E+05
 0.10695000E+03 -0.28363E+05
 0.10700000E+03 -0.42783E+05
 0.10705000E+03 -0.56032E+05
 0.10710000E+03 -0.65530E+05
 0.10715000E+03 -0.67678E+05
 0.10720000E+03 -0.65705E+05
 0.10725000E+03 -0.66116E+05
 0.10730000E+03 -0.69935E+05
 0.10735000E+03 -0.74889E+05
 0.10740000E+03 -0.79467E+05
 0.10745000E+03 -0.81247E+05
 0.10750000E+03 -0.79191E+05
 0.10755000E+03 -0.76684E+05
 0.10760000E+03 -0.75257E+05
 0.10765000E+03 -0.73208E+05
 0.10770000E+03 -0.72715E+05
 0.10775000E+03 -0.79090E+05
 0.10780000E+03 -0.92042E+05
 0.10785000E+03 -0.10659E+06
 0.10790000E+03 -0.12001E+06
 0.10795000E+03 -0.12668E+06
 0.10800000E+03 -0.11873E+06
 0.10805000E+03 -0.96563E+05
 0.10810000E+03 -0.64695E+05
 0.10815000E+03 -0.26656E+05
 0.10820000E+03  0.12870E+05
 0.10825000E+03  0.48882E+05
 0.10830000E+03  0.75515E+05
 0.10835000E+03  0.90181E+05
 0.10840000E+03  0.98167E+05
 0.10845000E+03  0.10473E+06
 0.10850000E+03  0.10832E+06
 0.10855000E+03  0.10455E+06
 0.10860000E+03  0.92348E+05
 0.10865000E+03  0.77587E+05
 0.10870000E+03  0.67938E+05
 0.10875000E+03  0.63858E+05
 0.10880000E+03  0.62312E+05
 0.10885000E+03  0.63428E+05
 0.10890000E+03  0.64939E+05
 0.10895000E+03  0.60377E+05
 0.10900000E+03  0.50397E+05
 0.10905000E+03  0.43087E+05
 0.10910000E+03  0.40826E+05
 0.10915000E+03  0.40511E+05
 0.10920000E+03  0.40869E+05
 0.10925000E+03  0.41420E+05
 0.10930000E+03  0.41765E+05
 0.10935000E+03  0.44003E+05
 0.10940000E+03  0.48872E+05
 0.10945000E+03  0.53432E+05
 0.10950000E+03  0.56446E+05
 0.10955000E+03  0.58695E+05
 0.10960000E+03  0.62001E+05
 0.10965000E+03  0.65927E+05
 0.10970000E+03  0.66206E+05
 0.10975000E+03  0.63976E+05
 0.10980000E+03  0.64644E+05
 0.10985000E+03  0.69149E+05
 0.10990000E+03  0.74663E+05
 0.10995000E+03  0.78395E+05
 0.11000000E+03  0.78784E+05
 0.11005000E+03  0.75220E+05
 0.11010000E+03  0.69471E+05
 0.11015000E+03  0.64727E+05
 0.11020000E+03  0.62116E+05
 0.11025000E+03  0.59910E+05
 0.11030000E+03  0.54199E+05
 0.11035000E+03  0.43040E+05
 0.11040000E+03  0.28448E+05
 0.11045000E+03  0.13943E+05
 0.11050000E+03  0.41780E+04
 0.11055000E+03  0.10580E+04
 0.11060000E+03  0.15310E+04
 0.11065000E+03  0.16430E+04
 0.11070000E+03 -0.25000E+02
 0.11075000E+03 -0.38100E+03
 0.11080000E+03  0.31200E+04
 0.11085000E+03  0.72330E+04
 0.11090000E+03  0.77920E+04
 0.11095000E+03  0.39320E+04
 0.11100000E+03 -0.20600E+04
 0.11105000E+03 -0.73820E+04
 0.11110000E+03 -0.11736E+05
 0.11115000E+03 -0.14640E+05
 0.11120000E+03 -0.16472E+05
 0.11125000E+03 -0.21139E+05
 0.11130000E+03 -0.31546E+05
 0.11135000E+03 -0.47126E+05
 0.11140000E+03 -0.63922E+05
 0.11145000E+03 -0.76517E+05
 0.11150000E+03 -0.83886E+05
 0.11155000E+03 -0.89102E+05
 0.11160000E+03 -0.92176E+05
 0.11165000E+03 -0.91259E+05
 0.11170000E+03 -0.86648E+05
 0.11175000E+03 -0.78132E+05
 0.11180000E+03 -0.67807E+05
 0.11185000E+03 -0.61850E+05
 0.11190000E+03 -0.62823E+05
 0.11195000E+03 -0.66806E+05
 0.11200000E+03 -0.68804E+05
 0.11205000E+03 -0.66876E+05
 0.11210000E+03 -0.61369E+05
 0.11215000E+03 -0.53138E+05
 0.11220000E+03 -0.44721E+05
 0.11225000E+03 -0.38608E+05
 0.11230000E+03 -0.33216E+05
 0.11235000E+03 -0.27408E+05
 0.11240000E+03 -0.22945E+05
 0.11245000E+03 -0.19305E+05
 0.11250000E+03 -0.14332E+05
 0.11255000E+03 -0.84120E+04
 0.11260000E+03 -0.31790E+04
 0.11265000E+03  0.23820E+04
 0.11270000E+03  0.97090E+04
 0.11275000E+03  0.17728E+05
 0.11280000E+03  0.24367E+05
 0.11285000E+03  0.28165E+05
 0.11290000E+03  0.29469E+05
 0.11295000E+03  0.28601E+05
 0.11300000E+03  0.26426E+05
 0.11305000E+03  0.26106E+05
 0.11310000E+03  0.29936E+05
 0.11315000E+03  0.37300E+05
 0.11320000E+03  0.44956E+05
 0.11325000E+03  0.49204E+05
 0.11330000E+03  0.48647E+05
 0.11335000E+03  0.44857E+05
 0.11340000E+03  0.39477E+05
 0.11345000E+03  0.31071E+05
 0.11350000E+03  0.17649E+05
 0.11355000E+03  0.49800E+03
 0.11360000E+03 -0.16945E+05
 0.11365000E+03 -0.31254E+05
 0.11370000E+03 -0.40020E+05
 0.11375000E+03 -0.45293E+05
 0.11380000E+03 -0.50724E+05
 0.11385000E+03 -0.55361E+05
 0.11390000E+03 -0.57670E+05
 0.11395000E+03 -0.59526E+05
 0.11400000E+03 -0.63329E+05
 0.11405000E+03 -0.69693E+05
 0.11410000E+03 -0.77601E+05
 0.11415000E+03 -0.85650E+05
 0.11420000E+03 -0.92776E+05
 0.11425000E+03 -0.96901E+05
 0.11430000E+03 -0.96897E+05
 0.11435000E+03 -0.93959E+05
 0.11440000E+03 -0.87607E+05
 0.11445000E+03 -0.77790E+05
 0.11450000E+03 -0.67468E+05
 0.11455000E+03 -0.59904E+05
 0.11460000E+03 -0.57242E+05
 0.11465000E+03 -0.59365E+05
 0.11470000E+03 -0.63704E+05
 0.11475000E+03 -0.67150E+05
 0.11480000E+03 -0.69336E+05
 0.11485000E+03 -0.72784E+05
 0.11490000E+03 -0.77398E+05
 0.11495000E+03 -0.79177E+05
 0.11500000E+03 -0.76951E+05
 0.11505000E+03 -0.71738E+05
 0.11510000E+03 -0.62193E+05
 0.11515000E+03 -0.49396E+05
 0.11520000E+03 -0.35880E+05
 0.11525000E+03 -0.20845E+05
 0.11530000E+03 -0.50970E+04
 0.11535000E+03  0.73420E+04
 0.11540000E+03  0.13100E+05
 0.11545000E+03  0.11620E+05
 0.11550000E+03  0.75540E+04
 0.11555000E+03  0.57190E+04
 0.11560000E+03  0.66760E+04
 0.11565000E+03  0.11849E+05
 0.11570000E+03  0.22290E+05
 0.11575000E+03  0.35246E+05
 0.11580000E+03  0.45685E+05
 0.11585000E+03  0.48100E+05
 0.11590000E+03  0.41847E+05
 0.11595000E+03  0.32980E+05
 0.11600000E+03  0.26384E+05
 0.11605000E+03  0.24167E+05
 0.11610000E+03  0.28015E+05
 0.11615000E+03  0.33475E+05
 0.11620000E+03  0.34561E+05
 0.11625000E+03  0.31600E+05
 0.11630000E+03  0.26710E+05
 0.11635000E+03  0.21054E+05
 0.11640000E+03  0.15965E+05
 0.11645000E+03  0.12701E+05
 0.11650000E+03  0.11790E+05
 0.11655000E+03  0.13531E+05
 0.11660000E+03  0.17718E+05
 0.11665000E+03  0.23957E+05
 0.11670000E+03  0.32511E+05
 0.11675000E+03  0.42670E+05
 0.11680000E+03  0.52273E+05
 0.11685000E+03  0.58749E+05
 0.11690000E+03  0.60042E+05
 0.11695000E+03  0.55494E+05
 0.11700000E+03  0.46691E+05
 0.11705000E+03  0.36624E+05
 0.11710000E+03  0.29041E+05
 0.11715000E+03  0.26916E+05
 0.11720000E+03  0.29018E+05
 0.11725000E+03  0.33412E+05
 0.11730000E+03  0.39715E+05
 0.11735000E+03  0.47378E+05
 0.11740000E+03  0.58283E+05
 0.11745000E+03  0.73665E+05
 0.11750000E+03  0.90575E+05
 0.11755000E+03  0.10498E+06
 0.11760000E+03  0.11334E+06
 0.11765000E+03  0.11501E+06
 0.11770000E+03  0.11129E+06
 0.11775000E+03  0.10147E+06
 0.11780000E+03  0.85280E+05
 0.11785000E+03  0.65474E+05
 0.11790000E+03  0.46067E+05
 0.11795000E+03  0.31329E+05
 0.11800000E+03  0.25395E+05
 0.11805000E+03  0.30112E+05
 0.11810000E+03  0.44470E+05
 0.11815000E+03  0.64893E+05
 0.11820000E+03  0.85336E+05
 0.11825000E+03  0.99421E+05
 0.11830000E+03  0.10224E+06
 0.11835000E+03  0.92751E+05
 0.11840000E+03  0.74126E+05
 0.11845000E+03  0.51769E+05
 0.11850000E+03  0.31467E+05
 0.11855000E+03  0.16232E+05
 0.11860000E+03  0.58100E+04
 0.11865000E+03 -0.31110E+04
 0.11870000E+03 -0.15612E+05
 0.11875000E+03 -0.33405E+05
 0.11880000E+03 -0.53311E+05
 0.11885000E+03 -0.70219E+05
 0.11890000E+03 -0.79210E+05
 0.11895000E+03 -0.77005E+05
 0.11900000E+03 -0.64888E+05
 0.11905000E+03 -0.49219E+05
 0.11910000E+03 -0.35216E+05
 0.11915000E+03 -0.24149E+05
 0.11920000E+03 -0.16076E+05
 0.11925000E+03 -0.97190E+04
 0.11930000E+03 -0.47640E+04
 0.11935000E+03 -0.29430E+04
 0.11940000E+03 -0.44390E+04
 0.11945000E+03 -0.82920E+04
 0.11950000E+03 -0.12350E+05
 0.11955000E+03 -0.13681E+05
 0.11960000E+03 -0.13466E+05
 0.11965000E+03 -0.15990E+05
 0.11970000E+03 -0.23526E+05
 0.11975000E+03 -0.35558E+05
 0.11980000E+03 -0.48819E+05
 0.11985000E+03 -0.59345E+05
 0.11990000E+03 -0.65755E+05
 0.11995000E+03 -0.67821E+05
 0.12000000E+03 -0.64503E+05
 0.12005000E+03 -0.54422E+05
 0.12010000E+03 -0.38074E+05
 0.12015000E+03 -0.18693E+05
 0.12020000E+03  0.86400E+03
 0.12025000E+03  0.18614E+05
 0.12030000E+03  0.31445E+05
 0.12035000E+03  0.38208E+05
 0.12040000E+03  0.40894E+05
 0.12045000E+03  0.39679E+05
 0.12050000E+03  0.33501E+05
 0.12055000E+03  0.23174E+05
 0.12060000E+03  0.11306E+05
 0.12065000E+03  0.94500E+03
 0.12070000E+03 -0.76980E+04
 0.12075000E+03 -0.14642E+05
 0.12080000E+03 -0.18618E+05
 0.12085000E+03 -0.20681E+05
 0.12090000E+03 -0.20550E+05
 0.12095000E+03 -0.15914E+05
 0.12100000E+03 -0.80310E+04
 0.12105000E+03 -0.14520E+04
 0.12110000E+03  0.21400E+03
 0.12115000E+03 -0.35170E+04
 0.12120000E+03 -0.11052E+05
 0.12125000E+03 -0.20767E+05
 0.12130000E+03 -0.31646E+05
 0.12135000E+03 -0.41370E+05
 0.12140000E+03 -0.46138E+05
 0.12145000E+03 -0.43424E+05
 0.12150000E+03 -0.33611E+05
 0.12155000E+03 -0.20548E+05
 0.12160000E+03 -0.78040E+04
 0.12165000E+03  0.48250E+04
 0.12170000E+03  0.15664E+05
 0.12175000E+03  0.18770E+05
 0.12180000E+03  0.11674E+05
 0.12185000E+03 -0.14500E+04
 0.12190000E+03 -0.15044E+05
 0.12195000E+03 -0.27217E+05
 0.12200000E+03 -0.38684E+05
 0.12205000E+03 -0.48856E+05
 0.12210000E+03 -0.56415E+05
 0.12215000E+03 -0.61460E+05
 0.12220000E+03 -0.64848E+05
 0.12225000E+03 -0.66548E+05
 0.12230000E+03 -0.65557E+05
 0.12235000E+03 -0.60733E+05
 0.12240000E+03 -0.51862E+05
 0.12245000E+03 -0.41544E+05
 0.12250000E+03 -0.32975E+05
 0.12255000E+03 -0.25598E+05
 0.12260000E+03 -0.18162E+05
 0.12265000E+03 -0.12825E+05
 0.12270000E+03 -0.12448E+05
 0.12275000E+03 -0.17091E+05
 0.12280000E+03 -0.23890E+05
 0.12285000E+03 -0.30118E+05
 0.12290000E+03 -0.34458E+05
 0.12295000E+03 -0.35769E+05
 0.12300000E+03 -0.35088E+05
 0.12305000E+03 -0.34820E+05
 0.12310000E+03 -0.33600E+05
 0.12315000E+03 -0.27874E+05
 0.12320000E+03 -0.17088E+05
 0.12325000E+03 -0.29140E+04
 0.12330000E+03  0.13121E+05
 0.12335000E+03  0.29583E+05
 0.12340000E+03  0.45206E+05
 0.12345000E+03  0.59088E+05
 0.12350000E+03  0.71291E+05
 0.12355000E+03  0.81442E+05
 0.12360000E+03  0.87111E+05
 0.12365000E+03  0.87308E+05
 0.12370000E+03  0.83642E+05
 0.12375000E+03  0.77962E+05
 0.12380000E+03  0.72623E+05
 0.12385000E+03  0.70653E+05
 0.12390000E+03  0.72986E+05
 0.12395000E+03  0.76409E+05
 0.12400000E+03  0.77105E+05
 0.12405000E+03  0.73942E+05
 0.12410000E+03  0.67317E+05
 0.12415000E+03  0.57964E+05
 0.12420000E+03  0.46877E+05
 0.12425000E+03  0.34975E+05
 0.12430000E+03  0.23655E+05
 0.12435000E+03  0.16820E+05
 0.12440000E+03  0.17833E+05
 0.12445000E+03  0.24791E+05
 0.12450000E+03  0.32560E+05
 0.12455000E+03  0.37047E+05
 0.12460000E+03  0.36625E+05
 0.12465000E+03  0.30945E+05
 0.12470000E+03  0.20394E+05
 0.12475000E+03  0.61480E+04
 0.12480000E+03 -0.93600E+04
 0.12485000E+03 -0.22258E+05
 0.12490000E+03 -0.30504E+05
 0.12495000E+03 -0.34737E+05
 0.12500000E+03 -0.36144E+05
 0.12505000E+03 -0.37038E+05
 0.12510001E+03 -0.39709E+05
 0.12515001E+03 -0.43837E+05
 0.12520000E+03 -0.47724E+05
 0.12525000E+03 -0.50139E+05
 0.12530000E+03 -0.51117E+05
 0.12535001E+03 -0.51350E+05
 0.12540001E+03 -0.50645E+05
 0.12545000E+03 -0.49224E+05
 0.12550000E+03 -0.47759E+05
 0.12555000E+03 -0.46089E+05
 0.12560001E+03 -0.43808E+05
 0.12565001E+03 -0.40894E+05
 0.12570000E+03 -0.39126E+05
 0.12575000E+03 -0.40153E+05
 0.12580000E+03 -0.42521E+05
 0.12585001E+03 -0.44585E+05
 0.12590001E+03 -0.46176E+05
 0.12595000E+03 -0.46419E+05
 0.12600000E+03 -0.44601E+05
 0.12605000E+03 -0.41119E+05
 0.12610001E+03 -0.35829E+05
 0.12615001E+03 -0.28419E+05
 0.12620000E+03 -0.18753E+05
 0.12625000E+03 -0.67540E+04
 0.12630000E+03  0.57970E+04
 0.12635001E+03  0.15921E+05
 0.12640001E+03  0.21893E+05
 0.12645000E+03  0.23151E+05
 0.12650000E+03  0.20919E+05
 0.12655000E+03  0.18524E+05
 0.12660001E+03  0.19069E+05
 0.12665001E+03  0.24903E+05
 0.12670000E+03  0.36984E+05
 0.12675000E+03  0.54040E+05
 0.12680000E+03  0.73018E+05
 0.12685001E+03  0.89218E+05
 0.12690001E+03  0.99560E+05
 0.12695000E+03  0.10437E+06
 0.12700000E+03  0.10502E+06
 0.12705000E+03  0.10295E+06
 0.12710001E+03  0.98139E+05
 0.12715001E+03  0.89818E+05
 0.12720000E+03  0.79979E+05
 0.12725000E+03  0.71251E+05
 0.12730000E+03  0.63488E+05
 0.12735001E+03  0.55538E+05
 0.12740001E+03  0.47620E+05
 0.12745000E+03  0.40605E+05
 0.12750000E+03  0.33922E+05
 0.12755000E+03  0.25419E+05
 0.12760001E+03  0.13725E+05
 0.12765001E+03 -0.78000E+02
 0.12770000E+03 -0.14003E+05
 0.12775000E+03 -0.26683E+05
 0.12780000E+03 -0.36482E+05
 0.12785001E+03 -0.42276E+05
 0.12790001E+03 -0.45526E+05
 0.12795000E+03 -0.48850E+05
 0.12800000E+03 -0.52705E+05
 0.12805000E+03 -0.55534E+05
 0.12810001E+03 -0.57014E+05
 0.12815001E+03 -0.57599E+05
 0.12820000E+03 -0.55711E+05
 0.12825000E+03 -0.50029E+05
 0.12830000E+03 -0.42097E+05
 0.12835001E+03 -0.34654E+05
 0.12840001E+03 -0.30100E+05
 0.12845000E+03 -0.29261E+05
 0.12850000E+03 -0.31177E+05
 0.12855000E+03 -0.36042E+05
 0.12860001E+03 -0.44270E+05
 0.12865001E+03 -0.52528E+05
 0.12870000E+03 -0.57333E+05
 0.12875000E+03 -0.59508E+05
 0.12880000E+03 -0.61858E+05
 0.12885001E+03 -0.65597E+05
 0.12890001E+03 -0.67833E+05
 0.12895000E+03 -0.64165E+05
 0.12900000E+03 -0.54372E+05
 0.12905000E+03 -0.41928E+05
 0.12910001E+03 -0.30571E+05
 0.12915001E+03 -0.22207E+05
 0.12920000E+03 -0.15381E+05
 0.12925000E+03 -0.78540E+04
 0.12930000E+03  0.24600E+03
 0.12935001E+03  0.84590E+04
 0.12940001E+03  0.17870E+05
 0.12945000E+03  0.29288E+05
 0.12950000E+03  0.40977E+05
 0.12955000E+03  0.50542E+05
 0.12960001E+03  0.58561E+05
 0.12965001E+03  0.66291E+05
 0.12970000E+03  0.73759E+05
 0.12975000E+03  0.81010E+05
 0.12980000E+03  0.87028E+05
 0.12985001E+03  0.90779E+05
 0.12990001E+03  0.92354E+05
 0.12995000E+03  0.92185E+05
 0.13000000E+03  0.91493E+05
 0.13005000E+03  0.90953E+05
 0.13010001E+03  0.90204E+05
 0.13015001E+03  0.89104E+05
 0.13020000E+03  0.86448E+05
 0.13025000E+03  0.80924E+05
 0.13030000E+03  0.72911E+05
 0.13035001E+03  0.62448E+05
 0.13040001E+03  0.48966E+05
 0.13045000E+03  0.32227E+05
 0.13050000E+03  0.13556E+05
 0.13055000E+03 -0.36990E+04
 0.13060001E+03 -0.16628E+05
 0.13065001E+03 -0.24094E+05
 0.13070000E+03 -0.27339E+05
 0.13075000E+03 -0.28582E+05
 0.13080000E+03 -0.29142E+05
 0.13085001E+03 -0.30269E+05
 0.13090001E+03 -0.33233E+05
 0.13095000E+03 -0.38380E+05
 0.13100000E+03 -0.44547E+05
 0.13105000E+03 -0.50266E+05
 0.13110001E+03 -0.55088E+05
 0.13115001E+03 -0.59367E+05
 0.13120000E+03 -0.63695E+05
 0.13125000E+03 -0.67654E+05
 0.13130000E+03 -0.70208E+05
 0.13135001E+03 -0.72003E+05
 0.13140001E+03 -0.73806E+05
 0.13145000E+03 -0.73946E+05
 0.13150000E+03 -0.71262E+05
 0.13155000E+03 -0.67364E+05
 0.13160001E+03 -0.64688E+05
 0.13165001E+03 -0.64007E+05
 0.13170000E+03 -0.63646E+05
 0.13175000E+03 -0.62530E+05
 0.13180000E+03 -0.61217E+05
 0.13185001E+03 -0.58508E+05
 0.13190001E+03 -0.52235E+05
 0.13195000E+03 -0.42748E+05
 0.13200000E+03 -0.32035E+05
 0.13205000E+03 -0.21776E+05
 0.13210001E+03 -0.13583E+05
 0.13215001E+03 -0.85350E+04
 0.13220000E+03 -0.62620E+04
 0.13225000E+03 -0.47380E+04
 0.13230000E+03 -0.11720E+04
 0.13235001E+03  0.49270E+04
 0.13240001E+03  0.11353E+05
 0.13245000E+03  0.16136E+05
 0.13250000E+03  0.19292E+05
 0.13255000E+03  0.22565E+05
 0.13260001E+03  0.26881E+05
 0.13265001E+03  0.31825E+05
 0.13270000E+03  0.37331E+05
 0.13275000E+03  0.41847E+05
 0.13280000E+03  0.41864E+05
 0.13285001E+03  0.36360E+05
 0.13290001E+03  0.28229E+05
 0.13295000E+03  0.21655E+05
 0.13300000E+03  0.19783E+05
 0.13305000E+03  0.22593E+05
 0.13310001E+03  0.27080E+05
 0.13315001E+03  0.29925E+05
 0.13320000E+03  0.29055E+05
 0.13325000E+03  0.24355E+05
 0.13330000E+03  0.18434E+05
 0.13335001E+03  0.14073E+05
 0.13340001E+03  0.11625E+05
 0.13345000E+03  0.11848E+05
 0.13350000E+03  0.16748E+05
 0.13355000E+03  0.25980E+05
 0.13360001E+03  0.36208E+05
 0.13365001E+03  0.43545E+05
 0.13370000E+03  0.45285E+05
 0.13375000E+03  0.41376E+05
 0.13380000E+03  0.34277E+05
 0.13385001E+03  0.26548E+05
 0.13390001E+03  0.19985E+05
 0.13395000E+03  0.16071E+05
 0.13400000E+03  0.16737E+05
 0.13405000E+03  0.22889E+05
 0.13410001E+03  0.31326E+05
 0.13415001E+03  0.36793E+05
 0.13420000E+03  0.36497E+05
 0.13425000E+03  0.31142E+05
 0.13430000E+03  0.23819E+05
 0.13435001E+03  0.17770E+05
 0.13440001E+03  0.13970E+05
 0.13445000E+03  0.12102E+05
 0.13450000E+03  0.12165E+05
 0.13455000E+03  0.14061E+05
 0.13460001E+03  0.17643E+05
 0.13465001E+03  0.22692E+05
 0.13470000E+03  0.27993E+05
 0.13475000E+03  0.30897E+05
 0.13480000E+03  0.29195E+05
 0.13485001E+03  0.22973E+05
 0.13490001E+03  0.14321E+05
 0.13495000E+03  0.60640E+04
 0.13500000E+03 -0.41300E+03
 0.13505000E+03 -0.54080E+04
 0.13510001E+03 -0.87190E+04
 0.13515001E+03 -0.97400E+04
 0.13520000E+03 -0.85930E+04
 0.13525000E+03 -0.61560E+04
 0.13530000E+03 -0.41100E+04
 0.13535001E+03 -0.36710E+04
 0.13540001E+03 -0.48390E+04
 0.13545000E+03 -0.78070E+04
 0.13550000E+03 -0.13433E+05
 0.13555000E+03 -0.21706E+05
 0.13560001E+03 -0.31028E+05
 0.13565001E+03 -0.39406E+05
 0.13570000E+03 -0.44674E+05
 0.13575000E+03 -0.46109E+05
 0.13580000E+03 -0.46353E+05
 0.13585001E+03 -0.48755E+05
 0.13590001E+03 -0.54226E+05
 0.13595000E+03 -0.60388E+05
 0.13600000E+03 -0.64122E+05
 0.13605000E+03 -0.64688E+05
 0.13610001E+03 -0.62455E+05
 0.13615001E+03 -0.58165E+05
 0.13620000E+03 -0.53007E+05
 0.13625000E+03 -0.46455E+05
 0.13630000E+03 -0.38040E+05
 0.13635001E+03 -0.30720E+05
 0.13640001E+03 -0.27237E+05
 0.13645000E+03 -0.27291E+05
 0.13650000E+03 -0.29885E+05
 0.13655000E+03 -0.33693E+05
 0.13660001E+03 -0.36725E+05
 0.13665001E+03 -0.36166E+05
 0.13670000E+03 -0.30448E+05
 0.13675000E+03 -0.23001E+05
 0.13680000E+03 -0.18527E+05
 0.13685001E+03 -0.17659E+05
 0.13690001E+03 -0.18842E+05
 0.13695000E+03 -0.20390E+05
 0.13700000E+03 -0.20389E+05
 0.13705000E+03 -0.19187E+05
 0.13710001E+03 -0.19085E+05
 0.13715001E+03 -0.20130E+05
 0.13720000E+03 -0.21297E+05
 0.13725000E+03 -0.22499E+05
 0.13730000E+03 -0.22087E+05
 0.13735001E+03 -0.18263E+05
 0.13740001E+03 -0.12585E+05
 0.13745000E+03 -0.70770E+04
 0.13750000E+03 -0.14630E+04
 0.13755000E+03  0.44070E+04
 0.13760001E+03  0.93180E+04
 0.13765001E+03  0.11801E+05
 0.13770000E+03  0.11888E+05
 0.13775000E+03  0.10883E+05
 0.13780000E+03  0.95860E+04
 0.13785001E+03  0.94140E+04
 0.13790001E+03  0.11691E+05
 0.13795000E+03  0.15118E+05
 0.13800000E+03  0.17607E+05
 0.13805000E+03  0.18963E+05
 0.13810001E+03  0.20354E+05
 0.13815001E+03  0.22811E+05
 0.13820000E+03  0.26460E+05
 0.13825000E+03  0.31568E+05
 0.13830000E+03  0.40223E+05
 0.13835001E+03  0.53389E+05
 0.13840001E+03  0.67609E+05
 0.13845000E+03  0.78663E+05
 0.13850000E+03  0.85785E+05
 0.13855000E+03  0.89559E+05
 0.13860001E+03  0.88954E+05
 0.13865001E+03  0.82232E+05
 0.13870000E+03  0.68635E+05
 0.13875000E+03  0.49823E+05
 0.13880000E+03  0.29444E+05
 0.13885001E+03  0.10709E+05
 0.13890001E+03 -0.41440E+04
 0.13895000E+03 -0.13943E+05
 0.13900000E+03 -0.19646E+05
 0.13905000E+03 -0.23191E+05
 0.13910001E+03 -0.25302E+05
 0.13915001E+03 -0.26737E+05
 0.13920000E+03 -0.29556E+05
 0.13925000E+03 -0.34779E+05
 0.13930000E+03 -0.41321E+05
 0.13935001E+03 -0.47910E+05
 0.13940001E+03 -0.54221E+05
 0.13945000E+03 -0.59883E+05
 0.13950000E+03 -0.63543E+05
 0.13955000E+03 -0.64016E+05
 0.13960001E+03 -0.61682E+05
 0.13965001E+03 -0.57301E+05
 0.13970000E+03 -0.51626E+05
 0.13975000E+03 -0.46679E+05
 0.13980000E+03 -0.43979E+05
 0.13985001E+03 -0.43070E+05
 0.13990001E+03 -0.43728E+05
 0.13995000E+03 -0.46228E+05
 0.14000000E+03 -0.48964E+05
 0.14005000E+03 -0.49033E+05
 0.14010001E+03 -0.44676E+05
 0.14015001E+03 -0.35525E+05
 0.14020000E+03 -0.22128E+05
 0.14025000E+03 -0.62650E+04
 0.14030000E+03  0.91310E+04
 0.14035001E+03  0.21495E+05
 0.14040001E+03  0.29998E+05
 0.14045000E+03  0.35262E+05
 0.14050000E+03  0.38175E+05
 0.14055000E+03  0.39420E+05
 0.14060001E+03  0.39864E+05
 0.14065001E+03  0.40317E+05
 0.14070000E+03  0.41319E+05
 0.14075000E+03  0.42710E+05
 0.14080000E+03  0.43011E+05
 0.14085001E+03  0.40930E+05
 0.14090001E+03  0.37386E+05
 0.14095000E+03  0.34896E+05
 0.14100000E+03  0.34621E+05
 0.14105000E+03  0.35823E+05
 0.14110001E+03  0.38291E+05
 0.14115001E+03  0.42162E+05
 0.14120000E+03  0.46993E+05
 0.14125000E+03  0.52402E+05
 0.14130000E+03  0.57563E+05
 0.14135001E+03  0.61373E+05
 0.14140001E+03  0.63328E+05
 0.14145000E+03  0.63220E+05
 0.14150000E+03  0.61569E+05
 0.14155000E+03  0.59568E+05
 0.14160001E+03  0.57736E+05
 0.14165001E+03  0.56462E+05
 0.14170000E+03  0.56135E+05
 0.14175000E+03  0.56023E+05
 0.14180000E+03  0.54606E+05
 0.14185001E+03  0.50029E+05
 0.14190001E+03  0.41331E+05
 0.14195000E+03  0.29031E+05
 0.14200000E+03  0.14354E+05
 0.14205000E+03 -0.39700E+03
 0.14210001E+03 -0.12720E+05
 0.14215001E+03 -0.21248E+05
 0.14220000E+03 -0.25745E+05
 0.14225000E+03 -0.26897E+05
 0.14230000E+03 -0.25887E+05
 0.14235001E+03 -0.23801E+05
 0.14240001E+03 -0.20718E+05
 0.14245000E+03 -0.16562E+05
 0.14250000E+03 -0.12421E+05
 0.14255000E+03 -0.90940E+04
 0.14260001E+03 -0.65570E+04
 0.14265001E+03 -0.51470E+04
 0.14270000E+03 -0.48380E+04
 0.14275000E+03 -0.47440E+04
 0.14280000E+03 -0.41990E+04
 0.14285001E+03 -0.24580E+04
 0.14290001E+03  0.11800E+04
 0.14295000E+03  0.61340E+04
 0.14300000E+03  0.10585E+05
 0.14305000E+03  0.13193E+05
 0.14310001E+03  0.14593E+05
 0.14315001E+03  0.15303E+05
 0.14320000E+03  0.14742E+05
 0.14325000E+03  0.13008E+05
 0.14330000E+03  0.94710E+04
 0.14335001E+03  0.20200E+04
 0.14340001E+03 -0.97300E+04
 0.14345000E+03 -0.23337E+05
 0.14350000E+03 -0.35827E+05
 0.14355000E+03 -0.45139E+05
 0.14360001E+03 -0.50888E+05
 0.14365001E+03 -0.54030E+05
 0.14370000E+03 -0.55270E+05
 0.14375000E+03 -0.54659E+05
 0.14380000E+03 -0.52617E+05
 0.14385001E+03 -0.50925E+05
 0.14390001E+03 -0.51149E+05
 0.14395000E+03 -0.52441E+05
 0.14400000E+03 -0.53112E+05
 0.14405000E+03 -0.53138E+05
 0.14410001E+03 -0.53314E+05
 0.14415001E+03 -0.54293E+05
 0.14420000E+03 -0.56141E+05
 0.14425000E+03 -0.56973E+05
 0.14430000E+03 -0.54371E+05
 0.14435001E+03 -0.47752E+05
 0.14440001E+03 -0.38659E+05
 0.14445000E+03 -0.29252E+05
 0.14450000E+03 -0.20541E+05
 0.14455000E+03 -0.13281E+05
 0.14460001E+03 -0.82010E+04
 0.14465001E+03 -0.47670E+04
 0.14470000E+03 -0.12650E+04
 0.14475000E+03  0.42880E+04
 0.14480000E+03  0.12445E+05
 0.14485001E+03  0.22587E+05
 0.14490001E+03  0.33971E+05
 0.14495000E+03  0.44843E+05
 0.14500000E+03  0.53531E+05
 0.14505000E+03  0.59894E+05
 0.14510001E+03  0.64059E+05
 0.14515001E+03  0.65689E+05
 0.14520000E+03  0.64904E+05
 0.14525000E+03  0.63303E+05
 0.14530000E+03  0.63157E+05
 0.14535001E+03  0.65366E+05
 0.14540001E+03  0.68803E+05
 0.14545000E+03  0.71767E+05
 0.14550000E+03  0.73374E+05
 0.14555000E+03  0.73232E+05
 0.14560001E+03  0.71695E+05
 0.14565001E+03  0.69264E+05
 0.14570000E+03  0.65348E+05
 0.14575000E+03  0.59376E+05
 0.14580000E+03  0.51542E+05
 0.14585001E+03  0.43174E+05
 0.14590001E+03  0.36095E+05
 0.14595000E+03  0.30814E+05
 0.14600000E+03  0.27039E+05
 0.14605000E+03  0.24137E+05
 0.14610001E+03  0.20772E+05
 0.14615001E+03  0.16005E+05
 0.14620000E+03  0.10084E+05
 0.14625000E+03  0.38170E+04
 0.14630000E+03 -0.29370E+04
 0.14635001E+03 -0.11347E+05
 0.14640001E+03 -0.21277E+05
 0.14645000E+03 -0.31008E+05
 0.14650000E+03 -0.39836E+05
 0.14655000E+03 -0.48161E+05
 0.14660001E+03 -0.55166E+05
 0.14665001E+03 -0.59451E+05
 0.14670000E+03 -0.60703E+05
 0.14675000E+03 -0.59643E+05
 0.14680000E+03 -0.57778E+05
 0.14685001E+03 -0.56546E+05
 0.14690001E+03 -0.56763E+05
 0.14695000E+03 -0.58527E+05
 0.14700000E+03 -0.60469E+05
 0.14705000E+03 -0.60908E+05
 0.14710001E+03 -0.59749E+05
 0.14715001E+03 -0.57309E+05
 0.14720000E+03 -0.53167E+05
 0.14725000E+03 -0.47526E+05
 0.14730000E+03 -0.41524E+05
 0.14735001E+03 -0.36178E+05
 0.14740001E+03 -0.31912E+05
 0.14745000E+03 -0.28330E+05
 0.14750000E+03 -0.24925E+05
 0.14755000E+03 -0.22328E+05
 0.14760001E+03 -0.21656E+05
 0.14765001E+03 -0.23277E+05
 0.14770000E+03 -0.26655E+05
 0.14775000E+03 -0.30437E+05
 0.14780000E+03 -0.33453E+05
 0.14785001E+03 -0.35109E+05
 0.14790001E+03 -0.34835E+05
 0.14795000E+03 -0.32904E+05
 0.14800000E+03 -0.30163E+05
 0.14805000E+03 -0.26780E+05
 0.14810001E+03 -0.23092E+05
 0.14815001E+03 -0.19485E+05
 0.14820000E+03 -0.15069E+05
 0.14825000E+03 -0.90890E+04
 0.14830000E+03 -0.24700E+04
 0.14835001E+03  0.34330E+04
 0.14840001E+03  0.85200E+04
 0.14845000E+03  0.13878E+05
 0.14850000E+03  0.20051E+05
 0.14855000E+03  0.26387E+05
 0.14860001E+03  0.31718E+05
 0.14865001E+03  0.34547E+05
 0.14870000E+03  0.34502E+05
 0.14875000E+03  0.32938E+05
 0.14880000E+03  0.31111E+05
 0.14885001E+03  0.29966E+05
 0.14890001E+03  0.30383E+05
 0.14895000E+03  0.32248E+05
 0.14900000E+03  0.34195E+05
 0.14905000E+03  0.34634E+05
 0.14910001E+03  0.33183E+05
 0.14915001E+03  0.30426E+05
 0.14920000E+03  0.27559E+05
 0.14925000E+03  0.26287E+05
 0.14930000E+03  0.26573E+05
 0.14935001E+03  0.26628E+05
 0.14940001E+03  0.25635E+05
 0.14945000E+03  0.23998E+05
 0.14950000E+03  0.22438E+05
 0.14955000E+03  0.20639E+05
 0.14960001E+03  0.17347E+05
 0.14965001E+03  0.12886E+05
 0.14970000E+03  0.85500E+04
 0.14975000E+03  0.42960E+04
 0.14980000E+03  0.22500E+03
 0.14985001E+03 -0.22340E+04
 0.14990001E+03 -0.28770E+04
 0.14995000E+03 -0.33090E+04
