-0.20000000E+01  0.24498E+05
-0.19500000E+01  0.22918E+05
-0.19000000E+01  0.20336E+05
-0.18500000E+01  0.17197E+05
-0.18000000E+01  0.14060E+05
-0.17500000E+01  0.11292E+05
-0.17000000E+01  0.89220E+04
-0.16500001E+01  0.71545E+04
-0.16000000E+01  0.61190E+04
-0.15500000E+01  0.58022E+04
-0.15000000E+01  0.59720E+04
-0.14500000E+01  0.63905E+04
-0.14000001E+01  0.69574E+04
-0.13500000E+01  0.73271E+04
-0.13000001E+01  0.72651E+04
-0.12500000E+01  0.71486E+04
-0.12000000E+01  0.74867E+04
-0.11500001E+01  0.79982E+04
-0.11000000E+01  0.82502E+04
-0.10500001E+01  0.84253E+04
-0.10000000E+01  0.85637E+04
-0.95000005E+00  0.83042E+04
-0.90000010E+00  0.74948E+04
-0.85000002E+00  0.66958E+04
-0.80000007E+00  0.62825E+04
-0.75000012E+00  0.59885E+04
-0.70000005E+00  0.52738E+04
-0.65000010E+00  0.35727E+04
-0.60000014E+00  0.67254E+03
-0.55000007E+00 -0.31391E+04
-0.50000012E+00 -0.69993E+04
-0.45000005E+00 -0.99650E+04
-0.40000010E+00 -0.11975E+05
-0.35000014E+00 -0.13367E+05
-0.30000007E+00 -0.14202E+05
-0.25000012E+00 -0.14656E+05
-0.20000005E+00 -0.15163E+05
-0.15000010E+00 -0.15943E+05
-0.10000014E+00 -0.16888E+05
-0.50000072E-01 -0.17704E+05
-0.11920929E-06 -0.17966E+05
 0.49999952E-01 -0.17248E+05
 0.99999905E-01 -0.15289E+05
 0.14999986E+00 -0.12463E+05
 0.19999981E+00 -0.97225E+04
 0.24999976E+00 -0.73555E+04
 0.29999995E+00 -0.48173E+04
 0.34999990E+00 -0.21284E+04
 0.39999986E+00  0.58975E+03
 0.44999981E+00  0.34269E+04
 0.49999976E+00  0.63314E+04
 0.54999995E+00  0.92970E+04
 0.59999990E+00  0.12330E+05
 0.64999986E+00  0.15287E+05
 0.69999981E+00  0.18277E+05
 0.74999976E+00  0.21452E+05
 0.79999971E+00  0.24630E+05
 0.84999990E+00  0.27488E+05
 0.89999986E+00  0.29683E+05
 0.94999981E+00  0.31478E+05
 0.99999976E+00  0.33443E+05
 0.10499997E+01  0.35463E+05
 0.10999999E+01  0.36709E+05
 0.11499999E+01  0.36652E+05
 0.11999998E+01  0.35610E+05
 0.12499998E+01  0.33774E+05
 0.12999997E+01  0.30982E+05
 0.13499999E+01  0.27373E+05
 0.13999999E+01  0.23680E+05
 0.14499998E+01  0.20583E+05
 0.14999998E+01  0.17897E+05
 0.15499997E+01  0.15080E+05
 0.15999999E+01  0.11896E+05
 0.16499999E+01  0.85478E+04
 0.16999998E+01  0.54128E+04
 0.17499998E+01  0.23852E+04
 0.17999997E+01 -0.11435E+04
 0.18499997E+01 -0.54618E+04
 0.18999999E+01 -0.10529E+05
 0.19499998E+01 -0.16092E+05
 0.19999998E+01 -0.21688E+05
 0.20499997E+01 -0.26997E+05
 0.20999999E+01 -0.31896E+05
 0.21499996E+01 -0.36181E+05
 0.21999998E+01 -0.39912E+05
 0.22499995E+01 -0.42997E+05
 0.22999997E+01 -0.45318E+05
 0.23499999E+01 -0.47102E+05
 0.23999996E+01 -0.48428E+05
 0.24499998E+01 -0.49336E+05
 0.24999995E+01 -0.49716E+05
 0.25499997E+01 -0.49584E+05
 0.25999999E+01 -0.49225E+05
 0.26499996E+01 -0.49182E+05
 0.26999998E+01 -0.49623E+05
 0.27499995E+01 -0.50059E+05
 0.27999997E+01 -0.49756E+05
 0.28499999E+01 -0.47966E+05
 0.28999996E+01 -0.44620E+05
 0.29499998E+01 -0.40405E+05
 0.29999995E+01 -0.35897E+05
 0.30499997E+01 -0.30743E+05
 0.30999999E+01 -0.24665E+05
 0.31499996E+01 -0.18068E+05
 0.31999998E+01 -0.11249E+05
 0.32499995E+01 -0.44960E+04
 0.32999997E+01  0.18463E+04
 0.33499999E+01  0.74848E+04
 0.33999996E+01  0.12665E+05
 0.34499998E+01  0.17907E+05
 0.34999995E+01  0.23270E+05
 0.35499997E+01  0.28570E+05
 0.35999994E+01  0.33629E+05
 0.36499996E+01  0.38143E+05
 0.36999998E+01  0.41851E+05
 0.37499995E+01  0.44563E+05
 0.37999997E+01  0.46403E+05
 0.38499994E+01  0.47880E+05
 0.38999996E+01  0.49222E+05
 0.39499998E+01  0.50106E+05
 0.39999995E+01  0.50122E+05
 0.40499997E+01  0.49300E+05
 0.40999994E+01  0.47682E+05
 0.41499996E+01  0.45287E+05
 0.41999998E+01  0.42023E+05
 0.42499995E+01  0.37903E+05
 0.42999997E+01  0.33442E+05
 0.43499994E+01  0.29177E+05
 0.43999996E+01  0.25339E+05
 0.44499998E+01  0.21840E+05
 0.44999995E+01  0.18734E+05
 0.45499997E+01  0.15941E+05
 0.45999994E+01  0.12993E+05
 0.46499996E+01  0.94050E+04
 0.46999998E+01  0.53071E+04
 0.47499995E+01  0.12683E+04
 0.47999997E+01 -0.23887E+04
 0.48499994E+01 -0.54957E+04
 0.48999996E+01 -0.81661E+04
 0.49499998E+01 -0.10402E+05
 0.49999995E+01 -0.12498E+05
 0.50499997E+01 -0.14751E+05
 0.50999994E+01 -0.17043E+05
 0.51499996E+01 -0.19180E+05
 0.51999998E+01 -0.21568E+05
 0.52499995E+01 -0.24927E+05
 0.52999997E+01 -0.29076E+05
 0.53499994E+01 -0.33263E+05
 0.53999996E+01 -0.36884E+05
 0.54499993E+01 -0.39882E+05
 0.54999995E+01 -0.42281E+05
 0.55499997E+01 -0.44095E+05
 0.55999994E+01 -0.45668E+05
 0.56499996E+01 -0.47332E+05
 0.56999993E+01 -0.48925E+05
 0.57499995E+01 -0.50239E+05
 0.57999997E+01 -0.51073E+05
 0.58499994E+01 -0.51313E+05
 0.58999996E+01 -0.51165E+05
 0.59499993E+01 -0.50782E+05
 0.59999995E+01 -0.50200E+05
 0.60499992E+01 -0.49372E+05
 0.60999994E+01 -0.48182E+05
 0.61499996E+01 -0.46360E+05
 0.61999998E+01 -0.44034E+05
 0.62499990E+01 -0.41416E+05
 0.62999992E+01 -0.38470E+05
 0.63499994E+01 -0.34947E+05
 0.63999996E+01 -0.30725E+05
 0.64499998E+01 -0.26021E+05
 0.64999990E+01 -0.20892E+05
 0.65499992E+01 -0.15395E+05
 0.65999994E+01 -0.96609E+04
 0.66499996E+01 -0.40151E+04
 0.66999998E+01  0.14830E+04
 0.67499990E+01  0.69832E+04
 0.67999992E+01  0.12479E+05
 0.68499994E+01  0.17802E+05
 0.68999996E+01  0.22878E+05
 0.69499998E+01  0.27791E+05
 0.69999990E+01  0.32549E+05
 0.70499992E+01  0.37062E+05
 0.70999994E+01  0.41198E+05
 0.71499996E+01  0.45063E+05
 0.71999998E+01  0.48762E+05
 0.72499990E+01  0.52246E+05
 0.72999992E+01  0.55298E+05
 0.73499994E+01  0.57488E+05
 0.73999996E+01  0.58640E+05
 0.74499998E+01  0.59298E+05
 0.74999990E+01  0.59831E+05
 0.75499992E+01  0.60139E+05
 0.75999994E+01  0.60341E+05
 0.76499996E+01  0.60764E+05
 0.76999998E+01  0.61655E+05
 0.77499990E+01  0.62787E+05
 0.77999992E+01  0.63806E+05
 0.78499994E+01  0.64560E+05
 0.78999996E+01  0.64678E+05
 0.79499998E+01  0.63807E+05
 0.79999990E+01  0.62263E+05
 0.80499992E+01  0.60401E+05
 0.80999994E+01  0.58160E+05
 0.81499996E+01  0.55612E+05
 0.81999998E+01  0.52740E+05
 0.82499990E+01  0.49386E+05
 0.82999992E+01  0.45307E+05
 0.83499994E+01  0.40217E+05
 0.83999996E+01  0.34397E+05
 0.84499998E+01  0.28007E+05
 0.84999990E+01  0.20868E+05
 0.85499992E+01  0.13258E+05
 0.85999994E+01  0.55744E+04
 0.86499996E+01 -0.21803E+04
 0.86999998E+01 -0.10086E+05
 0.87499990E+01 -0.18157E+05
 0.87999992E+01 -0.26418E+05
 0.88499994E+01 -0.34630E+05
 0.88999996E+01 -0.42568E+05
 0.89499998E+01 -0.50071E+05
 0.89999990E+01 -0.57118E+05
 0.90499992E+01 -0.63550E+05
 0.90999994E+01 -0.69011E+05
 0.91499996E+01 -0.73163E+05
 0.91999989E+01 -0.75927E+05
 0.92499990E+01 -0.77365E+05
 0.92999992E+01 -0.77406E+05
 0.93499994E+01 -0.76078E+05
 0.93999996E+01 -0.73435E+05
 0.94499989E+01 -0.69545E+05
 0.94999990E+01 -0.64262E+05
 0.95499992E+01 -0.57631E+05
 0.95999994E+01 -0.50133E+05
 0.96499996E+01 -0.42479E+05
 0.96999989E+01 -0.34892E+05
 0.97499990E+01 -0.27227E+05
 0.97999992E+01 -0.19852E+05
 0.98499994E+01 -0.13297E+05
 0.98999996E+01 -0.75183E+04
 0.99499989E+01 -0.23497E+04
 0.99999990E+01  0.19121E+04
 0.10049999E+02  0.48320E+04
 0.10099999E+02  0.61973E+04
 0.10150000E+02  0.66569E+04
 0.10199999E+02  0.70090E+04
 0.10249999E+02  0.73226E+04
 0.10299999E+02  0.74283E+04
 0.10349999E+02  0.73070E+04
 0.10400000E+02  0.70343E+04
 0.10449999E+02  0.66345E+04
 0.10499999E+02  0.63773E+04
 0.10549999E+02  0.64563E+04
 0.10599999E+02  0.67988E+04
 0.10650000E+02  0.73651E+04
 0.10699999E+02  0.81234E+04
 0.10749999E+02  0.89863E+04
 0.10799999E+02  0.97191E+04
 0.10849999E+02  0.10324E+05
 0.10900000E+02  0.10971E+05
 0.10949999E+02  0.11592E+05
 0.10999999E+02  0.12106E+05
 0.11049999E+02  0.12887E+05
 0.11099999E+02  0.14488E+05
 0.11150000E+02  0.16924E+05
 0.11199999E+02  0.19958E+05
 0.11249999E+02  0.23368E+05
 0.11299999E+02  0.26856E+05
 0.11349999E+02  0.29952E+05
 0.11400000E+02  0.32352E+05
 0.11449999E+02  0.34112E+05
 0.11499999E+02  0.35210E+05
 0.11549999E+02  0.35424E+05
 0.11599999E+02  0.34621E+05
 0.11650000E+02  0.32813E+05
 0.11699999E+02  0.29733E+05
 0.11749999E+02  0.24900E+05
 0.11799999E+02  0.18414E+05
 0.11849999E+02  0.11058E+05
 0.11900000E+02  0.32030E+04
 0.11949999E+02 -0.51172E+04
 0.11999999E+02 -0.13832E+05
 0.12049999E+02 -0.22809E+05
 0.12099999E+02 -0.31594E+05
 0.12150000E+02 -0.39498E+05
 0.12199999E+02 -0.46053E+05
 0.12249999E+02 -0.51067E+05
 0.12299999E+02 -0.54555E+05
 0.12349999E+02 -0.56588E+05
 0.12400000E+02 -0.57124E+05
 0.12449999E+02 -0.56333E+05
 0.12499999E+02 -0.54577E+05
 0.12549999E+02 -0.52524E+05
 0.12599999E+02 -0.49506E+05
 0.12649999E+02 -0.46030E+05
 0.12699999E+02 -0.41662E+05
 0.12749999E+02 -0.40337E+05
 0.12799999E+02 -0.42144E+05
 0.12849999E+02 -0.45666E+05
 0.12899999E+02 -0.42596E+05
 0.12949999E+02 -0.32963E+05
 0.12999999E+02 -0.22837E+05
 0.13049999E+02 -0.23898E+05
 0.13099999E+02 -0.36028E+05
 0.13149999E+02 -0.53807E+05
 0.13199999E+02 -0.76308E+05
 0.13249999E+02 -0.52292E+05
 0.13299999E+02  0.15445E+05
 0.13349999E+02  0.36879E+05
 0.13399999E+02 -0.22508E+05
 0.13449999E+02 -0.76408E+05
 0.13499999E+02 -0.10878E+06
 0.13549999E+02 -0.47021E+05
 0.13599999E+02  0.66092E+05
 0.13649999E+02  0.12621E+06
 0.13699999E+02  0.73749E+05
 0.13749999E+02 -0.27380E+05
 0.13799999E+02 -0.44025E+05
 0.13849999E+02  0.29131E+05
 0.13899999E+02  0.13430E+06
 0.13949999E+02  0.11769E+06
 0.13999999E+02  0.34646E+05
 0.14049999E+02 -0.10935E+06
 0.14099998E+02 -0.13858E+06
 0.14150000E+02  0.12709E+05
 0.14199999E+02  0.41858E+05
 0.14249998E+02 -0.68670E+05
 0.14299999E+02 -0.90913E+05
 0.14349998E+02 -0.52566E+05
 0.14400000E+02  0.70875E+04
 0.14449999E+02  0.77420E+05
 0.14499998E+02  0.17193E+06
 0.14549999E+02  0.16265E+06
 0.14599998E+02 -0.25154E+05
 0.14650000E+02 -0.16963E+06
 0.14699999E+02 -0.17456E+06
 0.14749998E+02  0.69589E+05
 0.14799999E+02  0.46821E+06
 0.14849998E+02  0.63967E+06
 0.14900000E+02  0.44740E+06
 0.14949999E+02  0.27077E+06
 0.14999998E+02  0.29359E+06
 0.15049999E+02  0.47111E+06
 0.15099998E+02  0.57826E+06
 0.15150000E+02  0.64518E+06
 0.15199999E+02  0.41204E+06
 0.15249998E+02  0.25437E+06
 0.15299999E+02  0.24309E+06
 0.15349998E+02  0.47006E+06
 0.15400000E+02  0.60938E+06
 0.15449999E+02  0.23945E+06
 0.15499998E+02  0.20333E+06
 0.15549999E+02  0.82693E+06
 0.15599998E+02  0.12966E+07
 0.15650000E+02  0.85985E+06
 0.15699999E+02  0.51147E+06
 0.15749998E+02  0.16568E+06
 0.15799999E+02  0.28368E+06
 0.15849998E+02  0.74881E+06
 0.15900000E+02  0.10947E+07
 0.15949999E+02  0.99820E+06
 0.15999998E+02  0.64081E+06
 0.16049999E+02  0.73517E+06
 0.16099998E+02  0.67751E+06
 0.16150000E+02  0.76575E+06
 0.16199999E+02  0.78402E+06
 0.16249998E+02  0.60717E+06
 0.16299999E+02  0.19626E+06
 0.16349998E+02 -0.69388E+04
 0.16400000E+02  0.59072E+05
 0.16449999E+02 -0.70822E+05
 0.16499998E+02 -0.39323E+05
 0.16549999E+02  0.91620E+05
 0.16599998E+02  0.26717E+06
 0.16650000E+02  0.18593E+06
 0.16699999E+02 -0.18894E+05
 0.16749998E+02  0.16452E+05
 0.16799999E+02  0.38465E+06
 0.16849998E+02  0.56798E+06
 0.16900000E+02  0.45200E+06
 0.16949999E+02  0.11341E+06
 0.16999998E+02 -0.23823E+05
 0.17049999E+02 -0.69972E+05
 0.17099998E+02  0.22803E+06
 0.17150000E+02  0.70247E+06
 0.17199999E+02  0.62434E+06
 0.17249998E+02  0.68641E+06
 0.17299999E+02  0.81118E+06
 0.17349998E+02  0.79105E+06
 0.17400000E+02  0.53186E+06
 0.17449999E+02  0.63787E+06
 0.17499998E+02  0.39380E+06
 0.17549999E+02 -0.52742E+05
 0.17599998E+02 -0.12259E+06
 0.17650000E+02  0.21636E+06
 0.17699999E+02  0.56475E+06
 0.17749998E+02  0.59935E+06
 0.17799999E+02  0.83110E+06
 0.17849998E+02  0.40401E+06
 0.17900000E+02 -0.15574E+06
 0.17949999E+02 -0.23896E+06
 0.17999998E+02  0.27436E+06
 0.18049999E+02  0.46578E+06
 0.18099998E+02  0.53208E+04
 0.18150000E+02 -0.19001E+06
 0.18199999E+02 -0.50408E+06
 0.18249998E+02 -0.60068E+06
 0.18299999E+02 -0.47180E+06
 0.18349998E+02 -0.40044E+06
 0.18400000E+02 -0.19829E+06
 0.18449999E+02 -0.34635E+05
 0.18499998E+02  0.10848E+06
 0.18549999E+02 -0.58559E+05
 0.18599998E+02 -0.36296E+06
 0.18650000E+02 -0.56851E+06
 0.18699999E+02 -0.56700E+06
 0.18749998E+02 -0.45548E+06
 0.18799999E+02 -0.24750E+06
 0.18849998E+02  0.15574E+06
 0.18900000E+02  0.26038E+06
 0.18949999E+02  0.21314E+05
 0.18999998E+02 -0.19515E+06
 0.19049999E+02 -0.25654E+06
 0.19099998E+02 -0.72268E+06
 0.19150000E+02 -0.10647E+07
 0.19199999E+02 -0.11665E+07
 0.19249998E+02 -0.11143E+07
 0.19299999E+02 -0.84240E+06
 0.19349998E+02 -0.11418E+07
 0.19400000E+02 -0.13294E+07
 0.19449999E+02 -0.13963E+07
 0.19499998E+02 -0.14261E+07
 0.19549999E+02 -0.91037E+06
 0.19599998E+02 -0.36437E+06
 0.19650000E+02 -0.89069E+05
 0.19699999E+02 -0.64490E+05
 0.19749998E+02 -0.25087E+06
 0.19799999E+02 -0.38817E+06
 0.19849998E+02 -0.25233E+06
 0.19900000E+02  0.14786E+06
 0.19949999E+02  0.47609E+06
 0.19999998E+02  0.66404E+06
 0.20049999E+02  0.53613E+06
 0.20099998E+02  0.20851E+06
 0.20150000E+02  0.40752E+06
 0.20199999E+02  0.63426E+06
 0.20249998E+02  0.77417E+06
 0.20299999E+02  0.79279E+06
 0.20349998E+02  0.69417E+06
 0.20399998E+02  0.84459E+06
 0.20449999E+02  0.95718E+06
 0.20499998E+02  0.11100E+07
 0.20549999E+02  0.11524E+07
 0.20599998E+02  0.10535E+07
 0.20649998E+02  0.10347E+07
 0.20699999E+02  0.70287E+06
 0.20749998E+02 -0.14109E+05
 0.20799999E+02 -0.49421E+06
 0.20849998E+02 -0.12690E+05
 0.20899998E+02  0.83714E+06
 0.20949999E+02  0.97101E+06
 0.20999998E+02  0.16292E+06
 0.21049999E+02 -0.49795E+06
 0.21099998E+02  0.49385E+05
 0.21149998E+02  0.90107E+06
 0.21199999E+02  0.13205E+07
 0.21249998E+02  0.93508E+06
 0.21299999E+02  0.57337E+06
 0.21349998E+02  0.89233E+06
 0.21399998E+02  0.14192E+07
 0.21449999E+02  0.10942E+07
 0.21499998E+02  0.24239E+06
 0.21549999E+02  0.10753E+06
 0.21599998E+02  0.29560E+06
 0.21649998E+02  0.82218E+06
 0.21699999E+02  0.92202E+06
 0.21749998E+02  0.21090E+06
 0.21799999E+02 -0.10741E+07
 0.21849998E+02 -0.25304E+07
 0.21899998E+02 -0.31230E+07
 0.21949999E+02 -0.29423E+07
 0.21999998E+02 -0.30329E+07
 0.22049999E+02 -0.36226E+07
 0.22099998E+02 -0.35606E+07
 0.22149998E+02 -0.41299E+07
 0.22199999E+02 -0.47344E+07
 0.22249998E+02 -0.41001E+07
 0.22299999E+02 -0.29073E+07
 0.22349998E+02 -0.51358E+06
 0.22399998E+02  0.11360E+07
 0.22449999E+02  0.98508E+05
 0.22499998E+02 -0.17941E+07
 0.22549999E+02 -0.24103E+07
 0.22599998E+02 -0.27058E+07
 0.22649998E+02 -0.24470E+07
 0.22699999E+02 -0.13522E+07
 0.22749998E+02 -0.59703E+06
 0.22799999E+02  0.55478E+06
 0.22849998E+02  0.25232E+07
 0.22899998E+02  0.30754E+07
 0.22949999E+02  0.13669E+07
 0.22999998E+02  0.58786E+06
 0.23049999E+02  0.45101E+06
 0.23099998E+02 -0.23484E+06
 0.23149998E+02 -0.36141E+06
 0.23199999E+02 -0.64153E+06
 0.23249998E+02 -0.47623E+06
 0.23299999E+02 -0.73851E+05
 0.23349998E+02 -0.14651E+06
 0.23399998E+02  0.40196E+06
 0.23449999E+02  0.85622E+06
 0.23499998E+02 -0.18779E+06
 0.23549999E+02 -0.20358E+07
 0.23599998E+02 -0.38393E+07
 0.23649998E+02 -0.55689E+07
 0.23699999E+02 -0.62508E+07
 0.23749998E+02 -0.64744E+07
 0.23799999E+02 -0.63200E+07
 0.23849998E+02 -0.55107E+07
 0.23899998E+02 -0.48709E+07
 0.23949999E+02 -0.40851E+07
 0.23999998E+02 -0.28158E+07
 0.24049999E+02 -0.15386E+07
 0.24099998E+02 -0.15865E+07
 0.24149998E+02 -0.13153E+07
 0.24199999E+02  0.11196E+07
 0.24249998E+02  0.32674E+07
 0.24299999E+02  0.43673E+07
 0.24349998E+02  0.53671E+07
 0.24399998E+02  0.61507E+07
 0.24449999E+02  0.51732E+07
 0.24499998E+02  0.40873E+07
 0.24549999E+02  0.58080E+07
 0.24599998E+02  0.65768E+07
 0.24649998E+02  0.65934E+07
 0.24699999E+02  0.53894E+07
 0.24749998E+02  0.38469E+07
 0.24799999E+02  0.40872E+07
 0.24849998E+02  0.24650E+07
 0.24899998E+02  0.36833E+06
 0.24949999E+02 -0.68348E+06
 0.24999998E+02 -0.38393E+06
 0.25049999E+02  0.91447E+06
 0.25099998E+02  0.17447E+07
 0.25149998E+02  0.10387E+07
 0.25199999E+02 -0.12232E+07
 0.25249998E+02 -0.23883E+07
 0.25299999E+02 -0.24713E+07
 0.25349998E+02 -0.24419E+07
 0.25399998E+02 -0.27139E+07
 0.25449999E+02 -0.29804E+07
 0.25499998E+02 -0.17599E+07
 0.25549999E+02 -0.70684E+06
 0.25599998E+02 -0.88281E+06
 0.25649998E+02 -0.13024E+07
 0.25699999E+02 -0.11970E+07
 0.25749998E+02 -0.31579E+06
 0.25799999E+02  0.11869E+07
 0.25849998E+02  0.23703E+07
 0.25899998E+02  0.23878E+07
 0.25949999E+02  0.18256E+07
 0.25999998E+02  0.19006E+07
 0.26049999E+02  0.31569E+07
 0.26099998E+02  0.41134E+07
 0.26149998E+02  0.39374E+07
 0.26199999E+02  0.36338E+07
 0.26249998E+02  0.34352E+07
 0.26299999E+02  0.24509E+07
 0.26349998E+02  0.46771E+06
 0.26399998E+02 -0.19882E+07
 0.26449999E+02 -0.29558E+07
 0.26499998E+02 -0.22722E+07
 0.26549999E+02 -0.15128E+07
 0.26599998E+02 -0.10999E+07
 0.26649998E+02 -0.10013E+07
 0.26699999E+02 -0.35462E+06
 0.26749998E+02  0.18174E+06
 0.26799999E+02  0.17752E+06
 0.26849998E+02 -0.33253E+06
 0.26899998E+02 -0.68684E+06
 0.26949999E+02  0.46790E+05
 0.26999998E+02  0.95131E+06
 0.27049997E+02  0.81810E+06
 0.27099998E+02 -0.35932E+06
 0.27149998E+02 -0.19664E+07
 0.27199999E+02 -0.33264E+07
 0.27249998E+02 -0.38271E+07
 0.27299997E+02 -0.39668E+07
 0.27349998E+02 -0.33140E+07
 0.27399998E+02 -0.19199E+07
 0.27449999E+02 -0.10501E+07
 0.27499998E+02 -0.11804E+07
 0.27549997E+02 -0.16885E+07
 0.27599998E+02 -0.17760E+07
 0.27649998E+02 -0.13867E+07
 0.27699999E+02 -0.84719E+06
 0.27749998E+02 -0.53238E+06
 0.27799997E+02 -0.45632E+06
 0.27849998E+02 -0.97295E+06
 0.27899998E+02 -0.18995E+07
 0.27949999E+02 -0.26519E+07
 0.27999998E+02 -0.25970E+07
 0.28049997E+02 -0.16149E+07
 0.28099998E+02 -0.97183E+06
 0.28149998E+02 -0.12183E+07
 0.28199999E+02 -0.17260E+07
 0.28249998E+02 -0.21938E+07
 0.28299997E+02 -0.24329E+07
 0.28349998E+02 -0.26717E+07
 0.28399998E+02 -0.23343E+07
 0.28449999E+02 -0.11603E+07
 0.28499998E+02 -0.41974E+06
 0.28549997E+02  0.14608E+06
 0.28599998E+02  0.74278E+06
 0.28649998E+02  0.12205E+07
 0.28699999E+02  0.13861E+07
 0.28749998E+02  0.13405E+07
 0.28799997E+02  0.13239E+07
 0.28849998E+02  0.15703E+07
 0.28899998E+02  0.17201E+07
 0.28949999E+02  0.11950E+07
 0.28999998E+02  0.70568E+06
 0.29049997E+02  0.36112E+06
 0.29099998E+02 -0.27706E+06
 0.29149998E+02 -0.10545E+07
 0.29199999E+02 -0.14759E+07
 0.29249998E+02 -0.18084E+07
 0.29299997E+02 -0.15726E+07
 0.29349998E+02 -0.10189E+07
 0.29399998E+02 -0.81282E+06
 0.29449999E+02 -0.67048E+06
 0.29499998E+02 -0.68058E+06
 0.29549997E+02 -0.41669E+06
 0.29599998E+02  0.32871E+05
 0.29649998E+02  0.17132E+06
 0.29699999E+02  0.91109E+05
 0.29749998E+02 -0.10695E+06
 0.29799997E+02 -0.45523E+06
 0.29849998E+02 -0.65689E+06
 0.29899998E+02 -0.42897E+06
 0.29949999E+02 -0.10410E+05
 0.29999998E+02  0.47133E+06
 0.30049999E+02  0.75958E+06
 0.30099998E+02  0.82590E+06
 0.30149998E+02  0.11591E+07
 0.30199997E+02  0.18842E+07
 0.30249996E+02  0.25185E+07
 0.30299999E+02  0.28261E+07
 0.30349998E+02  0.33838E+07
 0.30399998E+02  0.41353E+07
 0.30449997E+02  0.47457E+07
 0.30499996E+02  0.48124E+07
 0.30549999E+02  0.44301E+07
 0.30599998E+02  0.40487E+07
 0.30649998E+02  0.38798E+07
 0.30699997E+02  0.36909E+07
 0.30749996E+02  0.32727E+07
 0.30799999E+02  0.27844E+07
 0.30849998E+02  0.21256E+07
 0.30899998E+02  0.16025E+07
 0.30949997E+02  0.13753E+07
 0.30999996E+02  0.10842E+07
 0.31049999E+02  0.54330E+06
 0.31099998E+02  0.24983E+06
 0.31149998E+02 -0.17958E+04
 0.31199997E+02 -0.31933E+06
 0.31249996E+02 -0.35934E+06
 0.31299999E+02 -0.64256E+05
 0.31349998E+02  0.63968E+05
 0.31399998E+02 -0.49235E+06
 0.31449997E+02 -0.13799E+07
 0.31499996E+02 -0.20880E+07
 0.31549999E+02 -0.25925E+07
 0.31599998E+02 -0.31334E+07
 0.31649998E+02 -0.33750E+07
 0.31699997E+02 -0.32133E+07
 0.31749996E+02 -0.31271E+07
 0.31799999E+02 -0.31006E+07
 0.31849998E+02 -0.26619E+07
 0.31899998E+02 -0.20354E+07
 0.31949997E+02 -0.15812E+07
 0.31999996E+02 -0.12870E+07
 0.32049999E+02 -0.10109E+07
 0.32099998E+02 -0.63364E+06
 0.32149998E+02 -0.47905E+06
 0.32199997E+02 -0.27379E+06
 0.32249996E+02  0.20890E+06
 0.32299999E+02  0.77598E+06
 0.32349998E+02  0.10115E+07
 0.32399998E+02  0.62345E+06
 0.32449997E+02  0.19024E+05
 0.32499996E+02 -0.68088E+06
 0.32549999E+02 -0.12114E+07
 0.32599998E+02 -0.13793E+07
 0.32649998E+02 -0.12982E+07
 0.32699997E+02 -0.13267E+07
 0.32749996E+02 -0.14821E+07
 0.32799999E+02 -0.14144E+07
 0.32849998E+02 -0.86147E+06
 0.32899998E+02 -0.26983E+06
 0.32949997E+02 -0.17942E+06
 0.32999996E+02  0.19090E+06
 0.33049999E+02  0.96645E+06
 0.33099998E+02  0.16199E+07
 0.33149998E+02  0.20408E+07
 0.33199997E+02  0.21929E+07
 0.33249996E+02  0.21134E+07
 0.33299999E+02  0.16509E+07
 0.33349998E+02  0.86144E+06
 0.33399998E+02  0.13276E+06
 0.33449997E+02 -0.25120E+06
 0.33499996E+02 -0.58029E+06
 0.33549999E+02 -0.61374E+06
 0.33599998E+02 -0.13908E+06
 0.33649998E+02  0.11270E+06
 0.33699997E+02 -0.12186E+06
 0.33749996E+02 -0.66915E+06
 0.33799999E+02 -0.12072E+07
 0.33849998E+02 -0.12700E+07
 0.33899998E+02 -0.14023E+07
 0.33949997E+02 -0.21705E+07
 0.33999996E+02 -0.23909E+07
 0.34049999E+02 -0.20392E+07
 0.34099998E+02 -0.16644E+07
 0.34149998E+02 -0.10650E+07
 0.34199997E+02 -0.38715E+06
 0.34249996E+02  0.45283E+05
 0.34299999E+02  0.35092E+06
 0.34349998E+02  0.44343E+06
 0.34399998E+02  0.33243E+05
 0.34449997E+02 -0.34731E+06
 0.34499996E+02 -0.57674E+06
 0.34549999E+02 -0.78561E+06
 0.34599998E+02 -0.81030E+06
 0.34649998E+02 -0.33332E+06
 0.34699997E+02  0.24653E+06
 0.34749996E+02  0.89574E+06
 0.34799999E+02  0.16447E+07
 0.34849998E+02  0.22912E+07
 0.34899998E+02  0.27987E+07
 0.34949997E+02  0.31997E+07
 0.34999996E+02  0.35705E+07
 0.35049999E+02  0.36655E+07
 0.35099998E+02  0.38862E+07
 0.35149998E+02  0.35963E+07
 0.35199997E+02  0.28197E+07
 0.35249996E+02  0.22786E+07
 0.35299999E+02  0.20267E+07
 0.35349998E+02  0.22285E+07
 0.35399998E+02  0.25754E+07
 0.35449997E+02  0.28405E+07
 0.35499996E+02  0.28260E+07
 0.35549999E+02  0.25160E+07
 0.35599998E+02  0.17497E+07
 0.35649998E+02  0.61510E+06
 0.35699997E+02 -0.61515E+06
 0.35749996E+02 -0.16042E+07
 0.35799999E+02 -0.21551E+07
 0.35849998E+02 -0.24919E+07
 0.35899998E+02 -0.25376E+07
 0.35949997E+02 -0.22370E+07
 0.35999996E+02 -0.17563E+07
 0.36049999E+02 -0.13046E+07
 0.36099998E+02 -0.95664E+06
 0.36149998E+02 -0.39758E+06
 0.36199997E+02  0.23904E+06
 0.36249996E+02  0.74018E+06
 0.36299999E+02  0.11660E+07
 0.36349998E+02  0.14463E+07
 0.36399998E+02  0.11557E+07
 0.36449997E+02  0.22360E+06
 0.36499996E+02 -0.80600E+06
 0.36549999E+02 -0.14847E+07
 0.36599998E+02 -0.16146E+07
 0.36649998E+02 -0.14881E+07
 0.36699997E+02 -0.11335E+07
 0.36749996E+02 -0.76618E+06
 0.36799999E+02 -0.64498E+06
 0.36849998E+02 -0.82771E+06
 0.36899998E+02 -0.94031E+06
 0.36949997E+02 -0.74363E+06
 0.36999996E+02 -0.36753E+06
 0.37049999E+02  0.73963E+05
 0.37099998E+02  0.38725E+06
 0.37149998E+02  0.58143E+06
 0.37199997E+02  0.70921E+06
 0.37249996E+02  0.77111E+06
 0.37299999E+02  0.33924E+06
 0.37349998E+02 -0.34999E+06
 0.37399998E+02 -0.77749E+06
 0.37449997E+02 -0.11138E+07
 0.37499996E+02 -0.12748E+07
 0.37549999E+02 -0.11934E+07
 0.37599998E+02 -0.95092E+06
 0.37649998E+02 -0.46379E+06
 0.37699997E+02  0.15169E+06
 0.37749996E+02  0.59013E+06
 0.37799999E+02  0.79716E+06
 0.37849998E+02  0.89314E+06
 0.37899998E+02  0.11422E+07
 0.37949997E+02  0.15220E+07
 0.37999996E+02  0.20067E+07
 0.38049999E+02  0.24977E+07
 0.38099998E+02  0.28518E+07
 0.38149998E+02  0.29657E+07
 0.38199997E+02  0.26660E+07
 0.38249996E+02  0.21818E+07
 0.38299999E+02  0.14919E+07
 0.38349998E+02  0.86484E+06
 0.38399998E+02  0.47619E+06
 0.38449997E+02  0.25282E+06
 0.38499996E+02  0.19586E+02
 0.38549999E+02 -0.23386E+06
 0.38599998E+02 -0.16266E+06
 0.38649998E+02  0.14138E+06
 0.38699997E+02  0.59549E+06
 0.38749996E+02  0.89218E+06
 0.38799999E+02  0.11072E+07
 0.38849998E+02  0.12816E+07
 0.38899998E+02  0.11555E+07
 0.38949997E+02  0.90953E+06
 0.38999996E+02  0.66154E+06
 0.39049999E+02  0.17183E+06
 0.39099998E+02 -0.23964E+06
 0.39149998E+02 -0.42183E+06
 0.39199997E+02 -0.65915E+06
 0.39249996E+02 -0.90187E+06
 0.39299999E+02 -0.87591E+06
 0.39349998E+02 -0.70642E+06
 0.39399998E+02 -0.41965E+06
 0.39449997E+02 -0.17772E+06
 0.39499996E+02 -0.26280E+06
 0.39549999E+02 -0.18868E+06
 0.39599998E+02 -0.10199E+06
 0.39649998E+02 -0.51494E+05
 0.39699997E+02  0.12416E+06
 0.39749996E+02  0.36740E+06
 0.39799999E+02  0.38993E+06
 0.39849998E+02  0.24444E+06
 0.39899998E+02 -0.32111E+04
 0.39949997E+02 -0.40262E+06
 0.39999996E+02 -0.67697E+06
 0.40049999E+02 -0.10638E+07
 0.40099998E+02 -0.14505E+07
 0.40149998E+02 -0.14264E+07
 0.40199997E+02 -0.14506E+07
 0.40249996E+02 -0.17514E+07
 0.40299999E+02 -0.18930E+07
 0.40349998E+02 -0.19206E+07
 0.40399998E+02 -0.18943E+07
 0.40449997E+02 -0.17298E+07
 0.40499996E+02 -0.14450E+07
 0.40549999E+02 -0.94286E+06
 0.40599998E+02 -0.20297E+06
 0.40649998E+02  0.31062E+06
 0.40699997E+02  0.70675E+06
 0.40749996E+02  0.88077E+06
 0.40799999E+02  0.64975E+06
 0.40849998E+02  0.27185E+06
 0.40899998E+02 -0.14644E+06
 0.40949997E+02 -0.48180E+06
 0.40999996E+02 -0.73356E+06
 0.41049999E+02 -0.82988E+06
 0.41099998E+02 -0.10090E+07
 0.41149998E+02 -0.11454E+07
 0.41199997E+02 -0.11798E+07
 0.41249996E+02 -0.13478E+07
 0.41299999E+02 -0.13765E+07
 0.41349998E+02 -0.94306E+06
 0.41399998E+02 -0.53518E+06
 0.41449997E+02 -0.32043E+06
 0.41499996E+02 -0.14931E+06
 0.41549999E+02 -0.11821E+06
 0.41599998E+02  0.36995E+05
 0.41649998E+02  0.21819E+06
 0.41699997E+02  0.13851E+06
 0.41749996E+02  0.77859E+05
 0.41799999E+02 -0.14184E+05
 0.41849998E+02 -0.27025E+06
 0.41899998E+02 -0.46483E+06
 0.41949997E+02 -0.62224E+06
 0.41999996E+02 -0.60983E+06
 0.42049999E+02 -0.44276E+06
 0.42099998E+02 -0.21400E+06
 0.42149998E+02  0.14484E+06
 0.42199997E+02  0.50304E+06
 0.42249996E+02  0.59038E+06
 0.42299999E+02  0.51433E+06
 0.42349998E+02  0.41793E+06
 0.42399998E+02  0.33381E+06
 0.42449997E+02  0.33071E+06
 0.42499996E+02  0.43868E+06
 0.42549999E+02  0.55133E+06
 0.42599998E+02  0.75718E+06
 0.42649998E+02  0.10464E+07
 0.42699997E+02  0.12108E+07
 0.42749996E+02  0.12531E+07
 0.42799995E+02  0.11706E+07
 0.42849998E+02  0.10304E+07
 0.42899998E+02  0.92813E+06
 0.42949997E+02  0.87436E+06
 0.42999996E+02  0.72699E+06
 0.43049995E+02  0.61028E+06
 0.43099998E+02  0.61435E+06
 0.43149998E+02  0.52781E+06
 0.43199997E+02  0.37636E+06
 0.43249996E+02  0.30578E+06
 0.43299995E+02  0.26879E+06
 0.43349998E+02  0.16468E+06
 0.43399998E+02  0.19593E+06
 0.43449997E+02  0.45195E+06
 0.43499996E+02  0.71444E+06
 0.43549995E+02  0.82202E+06
 0.43599998E+02  0.62277E+06
 0.43649998E+02  0.38192E+06
 0.43699997E+02  0.29557E+06
 0.43749996E+02  0.63586E+05
 0.43799995E+02 -0.36279E+06
 0.43849998E+02 -0.66650E+06
 0.43899998E+02 -0.77299E+06
 0.43949997E+02 -0.75244E+06
 0.43999996E+02 -0.63366E+06
 0.44049995E+02 -0.61701E+06
 0.44099998E+02 -0.64566E+06
 0.44149998E+02 -0.42774E+06
 0.44199997E+02 -0.17492E+06
 0.44249996E+02 -0.96891E+05
 0.44299995E+02 -0.16486E+06
 0.44349998E+02 -0.33317E+06
 0.44399998E+02 -0.32715E+06
 0.44449997E+02 -0.16249E+06
 0.44499996E+02  0.29323E+05
 0.44549995E+02  0.28350E+06
 0.44599998E+02  0.49048E+06
 0.44649998E+02  0.55518E+06
 0.44699997E+02  0.51170E+06
 0.44749996E+02  0.26888E+06
 0.44799995E+02  0.32320E+05
 0.44849998E+02  0.15311E+06
 0.44899998E+02  0.32403E+06
 0.44949997E+02  0.32707E+06
 0.44999996E+02  0.29983E+06
 0.45049995E+02  0.88204E+05
 0.45099998E+02 -0.27792E+06
 0.45149998E+02 -0.59064E+06
 0.45199997E+02 -0.77793E+06
 0.45249996E+02 -0.92526E+06
 0.45299995E+02 -0.10862E+07
 0.45349998E+02 -0.12667E+07
 0.45399998E+02 -0.14179E+07
 0.45449997E+02 -0.15275E+07
 0.45499996E+02 -0.16274E+07
 0.45549995E+02 -0.15642E+07
 0.45599998E+02 -0.13864E+07
 0.45649998E+02 -0.11087E+07
 0.45699997E+02 -0.81687E+06
 0.45749996E+02 -0.66507E+06
 0.45799995E+02 -0.59859E+06
 0.45849998E+02 -0.60568E+06
 0.45899998E+02 -0.69087E+06
 0.45949997E+02 -0.64256E+06
 0.45999996E+02 -0.41925E+06
 0.46049995E+02 -0.11522E+06
 0.46099998E+02  0.31833E+06
 0.46149998E+02  0.64152E+06
 0.46199997E+02  0.74569E+06
 0.46249996E+02  0.72483E+06
 0.46299995E+02  0.67583E+06
 0.46349998E+02  0.54387E+06
 0.46399998E+02  0.47541E+06
 0.46449997E+02  0.56363E+06
 0.46499996E+02  0.66882E+06
 0.46549995E+02  0.77311E+06
 0.46599998E+02  0.84218E+06
 0.46649998E+02  0.94235E+06
 0.46699997E+02  0.96251E+06
 0.46749996E+02  0.90150E+06
 0.46799995E+02  0.66724E+06
 0.46849998E+02  0.29455E+06
 0.46899998E+02 -0.10661E+06
 0.46949997E+02 -0.42070E+06
 0.46999996E+02 -0.48122E+06
 0.47049995E+02 -0.40736E+06
 0.47099998E+02 -0.22160E+06
 0.47149998E+02 -0.22035E+05
 0.47199997E+02  0.15194E+06
 0.47249996E+02  0.27290E+06
 0.47299995E+02  0.34124E+06
 0.47349998E+02  0.40521E+06
 0.47399998E+02  0.36960E+06
 0.47449997E+02  0.22678E+06
 0.47499996E+02 -0.23402E+05
 0.47549995E+02 -0.31777E+06
 0.47599998E+02 -0.66939E+06
 0.47649998E+02 -0.98484E+06
 0.47699997E+02 -0.11707E+07
 0.47749996E+02 -0.11888E+07
 0.47799995E+02 -0.98412E+06
 0.47849998E+02 -0.73441E+06
 0.47899998E+02 -0.62665E+06
 0.47949997E+02 -0.52837E+06
 0.47999996E+02 -0.27169E+06
 0.48049995E+02 -0.52914E+04
 0.48099998E+02  0.26466E+06
 0.48149998E+02  0.50137E+06
 0.48199997E+02  0.65710E+06
 0.48249996E+02  0.76948E+06
 0.48299995E+02  0.81094E+06
 0.48349998E+02  0.76562E+06
 0.48399998E+02  0.62985E+06
 0.48449997E+02  0.45935E+06
 0.48499996E+02  0.37269E+06
 0.48549995E+02  0.38030E+06
 0.48599998E+02  0.26770E+06
 0.48649998E+02  0.44129E+05
 0.48699997E+02 -0.16275E+06
 0.48749996E+02 -0.32772E+06
 0.48799995E+02 -0.40817E+06
 0.48849998E+02 -0.43775E+06
 0.48899998E+02 -0.45328E+06
 0.48949997E+02 -0.52984E+06
 0.48999996E+02 -0.66296E+06
 0.49049995E+02 -0.88502E+06
 0.49099998E+02 -0.10063E+07
 0.49149998E+02 -0.10320E+07
 0.49199997E+02 -0.11972E+07
 0.49249996E+02 -0.13048E+07
 0.49299995E+02 -0.12678E+07
 0.49349998E+02 -0.11873E+07
 0.49399998E+02 -0.11216E+07
 0.49449997E+02 -0.89569E+06
 0.49499996E+02 -0.39303E+06
 0.49549995E+02  0.33248E+06
 0.49599998E+02  0.99447E+06
 0.49649998E+02  0.14370E+07
 0.49699997E+02  0.18468E+07
 0.49749996E+02  0.21627E+07
 0.49799995E+02  0.23753E+07
 0.49849998E+02  0.25670E+07
 0.49899998E+02  0.27027E+07
 0.49949997E+02  0.26785E+07
 0.49999996E+02  0.24524E+07
 0.50049995E+02  0.20289E+07
 0.50099998E+02  0.15301E+07
 0.50149998E+02  0.11094E+07
 0.50199997E+02  0.74046E+06
 0.50249996E+02  0.37996E+06
 0.50299995E+02  0.33991E+05
 0.50349998E+02 -0.25153E+06
 0.50399998E+02 -0.58144E+06
 0.50449997E+02 -0.93525E+06
 0.50499996E+02 -0.12228E+07
 0.50549995E+02 -0.13835E+07
 0.50599998E+02 -0.14089E+07
 0.50649998E+02 -0.14533E+07
 0.50699997E+02 -0.15474E+07
 0.50749996E+02 -0.14889E+07
 0.50799995E+02 -0.12926E+07
 0.50849998E+02 -0.11346E+07
 0.50899998E+02 -0.10268E+07
 0.50949997E+02 -0.10191E+07
 0.50999996E+02 -0.95292E+06
 0.51049995E+02 -0.81080E+06
 0.51099998E+02 -0.66948E+06
 0.51149998E+02 -0.47793E+06
 0.51199997E+02 -0.24107E+06
 0.51249996E+02  0.59920E+05
 0.51299995E+02  0.37194E+06
 0.51349998E+02  0.61077E+06
 0.51399998E+02  0.66627E+06
 0.51449997E+02  0.69958E+06
 0.51499996E+02  0.83440E+06
 0.51549995E+02  0.93546E+06
 0.51599998E+02  0.96542E+06
 0.51649998E+02  0.93187E+06
 0.51699997E+02  0.88882E+06
 0.51749996E+02  0.88091E+06
 0.51799995E+02  0.86964E+06
 0.51849998E+02  0.73383E+06
 0.51899998E+02  0.54089E+06
 0.51949997E+02  0.37168E+06
 0.51999996E+02  0.18808E+06
 0.52049995E+02 -0.15102E+05
 0.52099998E+02 -0.23912E+06
 0.52149998E+02 -0.43644E+06
 0.52199997E+02 -0.60172E+06
 0.52249996E+02 -0.69953E+06
 0.52299995E+02 -0.76832E+06
 0.52349998E+02 -0.78274E+06
 0.52399998E+02 -0.67806E+06
 0.52449997E+02 -0.50681E+06
 0.52499996E+02 -0.38521E+06
 0.52549995E+02 -0.31396E+06
 0.52599998E+02 -0.25987E+06
 0.52649998E+02 -0.31522E+06
 0.52699997E+02 -0.36628E+06
 0.52749996E+02 -0.33569E+06
 0.52799995E+02 -0.30008E+06
 0.52849998E+02 -0.19705E+06
 0.52899998E+02 -0.72380E+05
 0.52949997E+02 -0.47708E+05
 0.52999996E+02 -0.65422E+05
 0.53049995E+02 -0.61323E+05
 0.53099998E+02  0.36830E+05
 0.53149998E+02  0.24440E+06
 0.53199997E+02  0.45733E+06
 0.53249996E+02  0.55412E+06
 0.53299995E+02  0.60179E+06
 0.53349998E+02  0.58575E+06
 0.53399998E+02  0.40018E+06
 0.53449997E+02  0.13950E+06
 0.53499996E+02 -0.60496E+05
 0.53549995E+02 -0.22348E+06
 0.53599998E+02 -0.40370E+06
 0.53649998E+02 -0.53834E+06
 0.53699997E+02 -0.60311E+06
 0.53749996E+02 -0.59013E+06
 0.53799995E+02 -0.56378E+06
 0.53849998E+02 -0.54482E+06
 0.53899998E+02 -0.49326E+06
 0.53949997E+02 -0.39121E+06
 0.53999996E+02 -0.23565E+06
 0.54049995E+02 -0.47506E+05
 0.54099998E+02  0.14056E+06
 0.54149998E+02  0.28993E+06
 0.54199997E+02  0.38724E+06
 0.54249996E+02  0.47289E+06
 0.54299995E+02  0.60043E+06
 0.54349998E+02  0.69917E+06
 0.54399998E+02  0.71236E+06
 0.54449997E+02  0.66098E+06
 0.54499996E+02  0.59402E+06
 0.54549995E+02  0.56932E+06
 0.54599998E+02  0.56780E+06
 0.54649998E+02  0.55937E+06
 0.54699997E+02  0.45863E+06
 0.54749996E+02  0.31752E+06
 0.54799995E+02  0.23748E+06
 0.54849998E+02  0.15594E+06
 0.54899998E+02  0.10877E+06
 0.54949997E+02  0.11467E+06
 0.54999996E+02  0.11977E+06
 0.55049995E+02  0.14249E+06
 0.55099998E+02  0.16029E+06
 0.55149998E+02  0.64462E+05
 0.55199997E+02 -0.15073E+06
 0.55249996E+02 -0.36608E+06
 0.55299995E+02 -0.54802E+06
 0.55349998E+02 -0.69378E+06
 0.55399998E+02 -0.83031E+06
 0.55449997E+02 -0.10130E+07
 0.55499996E+02 -0.11242E+07
 0.55549995E+02 -0.11223E+07
 0.55599998E+02 -0.10607E+07
 0.55649998E+02 -0.93766E+06
 0.55699997E+02 -0.79709E+06
 0.55749996E+02 -0.68648E+06
 0.55799995E+02 -0.60578E+06
 0.55849995E+02 -0.49185E+06
 0.55899998E+02 -0.34387E+06
 0.55949997E+02 -0.10309E+06
 0.55999996E+02  0.22708E+06
 0.56049995E+02  0.54114E+06
 0.56099995E+02  0.78029E+06
 0.56149998E+02  0.94202E+06
 0.56199997E+02  0.10902E+07
 0.56249996E+02  0.11616E+07
 0.56299995E+02  0.11677E+07
 0.56349995E+02  0.11228E+07
 0.56399998E+02  0.10674E+07
 0.56449997E+02  0.10093E+07
 0.56499996E+02  0.92746E+06
 0.56549995E+02  0.82251E+06
 0.56599995E+02  0.73940E+06
 0.56649998E+02  0.69638E+06
 0.56699997E+02  0.64384E+06
 0.56749996E+02  0.58305E+06
 0.56799995E+02  0.43276E+06
 0.56849995E+02  0.24737E+06
 0.56899998E+02  0.59090E+05
 0.56949997E+02 -0.15517E+06
 0.56999996E+02 -0.42614E+06
 0.57049995E+02 -0.65567E+06
 0.57099995E+02 -0.83886E+06
 0.57149998E+02 -0.10321E+07
 0.57199997E+02 -0.12335E+07
 0.57249996E+02 -0.14728E+07
 0.57299995E+02 -0.16689E+07
 0.57349995E+02 -0.17716E+07
 0.57399998E+02 -0.17505E+07
 0.57449997E+02 -0.16245E+07
 0.57499996E+02 -0.13859E+07
 0.57549995E+02 -0.11486E+07
 0.57599995E+02 -0.99714E+06
 0.57649998E+02 -0.86182E+06
 0.57699997E+02 -0.70283E+06
 0.57749996E+02 -0.51596E+06
 0.57799995E+02 -0.27443E+06
 0.57849995E+02  0.15347E+05
 0.57899998E+02  0.28277E+06
 0.57949997E+02  0.46773E+06
 0.57999996E+02  0.57704E+06
 0.58049995E+02  0.64618E+06
 0.58099995E+02  0.61701E+06
 0.58149998E+02  0.60536E+06
 0.58199997E+02  0.66462E+06
 0.58249996E+02  0.73300E+06
 0.58299995E+02  0.79594E+06
 0.58349995E+02  0.74661E+06
 0.58399998E+02  0.62193E+06
 0.58449997E+02  0.49314E+06
 0.58499996E+02  0.33749E+06
 0.58549995E+02  0.15763E+06
 0.58599995E+02  0.29470E+05
 0.58649998E+02 -0.22954E+05
 0.58699997E+02 -0.30255E+05
 0.58749996E+02 -0.33480E+05
 0.58799995E+02 -0.67192E+05
 0.58849995E+02 -0.41353E+05
 0.58899998E+02  0.42095E+05
 0.58949997E+02  0.10374E+06
 0.58999996E+02  0.19427E+06
 0.59049995E+02  0.28089E+06
 0.59099995E+02  0.30070E+06
 0.59149998E+02  0.26255E+06
 0.59199997E+02  0.14842E+06
 0.59249996E+02  0.41814E+05
 0.59299995E+02 -0.13438E+05
 0.59349995E+02 -0.52808E+05
 0.59399998E+02 -0.79792E+05
 0.59449997E+02 -0.48715E+05
 0.59499996E+02  0.20775E+05
 0.59549995E+02  0.60029E+05
 0.59599995E+02  0.41102E+05
 0.59649998E+02 -0.14625E+05
 0.59699997E+02 -0.49176E+05
 0.59749996E+02 -0.63350E+05
 0.59799995E+02 -0.58861E+05
 0.59849995E+02 -0.57810E+05
 0.59899998E+02 -0.63940E+05
 0.59949997E+02 -0.75469E+05
 0.59999996E+02 -0.11356E+06
 0.60049995E+02 -0.22738E+06
 0.60099995E+02 -0.35938E+06
 0.60149998E+02 -0.42433E+06
 0.60199997E+02 -0.40943E+06
 0.60249996E+02 -0.30814E+06
 0.60299995E+02 -0.17224E+06
 0.60349995E+02  0.68477E+04
 0.60399998E+02  0.23400E+06
 0.60449997E+02  0.42731E+06
 0.60499996E+02  0.56182E+06
 0.60549995E+02  0.70993E+06
 0.60599995E+02  0.87421E+06
 0.60649998E+02  0.97728E+06
 0.60699997E+02  0.99729E+06
 0.60749996E+02  0.99614E+06
 0.60799995E+02  0.10126E+07
 0.60849995E+02  0.10234E+07
 0.60899998E+02  0.97460E+06
 0.60949997E+02  0.85033E+06
 0.60999996E+02  0.66653E+06
 0.61049995E+02  0.41965E+06
 0.61099995E+02  0.13912E+06
 0.61149998E+02 -0.14158E+06
 0.61199997E+02 -0.38359E+06
 0.61249996E+02 -0.56804E+06
 0.61299995E+02 -0.69820E+06
 0.61349995E+02 -0.76768E+06
 0.61399998E+02 -0.78335E+06
 0.61449997E+02 -0.73022E+06
 0.61499996E+02 -0.61192E+06
 0.61549995E+02 -0.49749E+06
 0.61599995E+02 -0.36241E+06
 0.61649998E+02 -0.16232E+06
 0.61699997E+02 -0.10047E+05
 0.61749996E+02  0.78768E+05
 0.61799995E+02  0.15744E+06
 0.61849995E+02  0.21820E+06
 0.61899998E+02  0.28134E+06
 0.61949997E+02  0.32847E+06
 0.61999996E+02  0.33951E+06
 0.62049995E+02  0.35133E+06
 0.62099998E+02  0.39453E+06
 0.62149994E+02  0.41094E+06
 0.62199997E+02  0.38922E+06
 0.62249992E+02  0.36814E+06
 0.62299995E+02  0.37386E+06
 0.62349998E+02  0.40006E+06
 0.62399994E+02  0.38223E+06
 0.62449997E+02  0.30729E+06
 0.62499992E+02  0.17754E+06
 0.62549995E+02  0.17716E+05
 0.62599998E+02 -0.14574E+06
 0.62649994E+02 -0.31886E+06
 0.62699997E+02 -0.47210E+06
 0.62749992E+02 -0.58573E+06
 0.62799995E+02 -0.69904E+06
 0.62849998E+02 -0.80858E+06
 0.62899994E+02 -0.88929E+06
 0.62949997E+02 -0.92163E+06
 0.62999992E+02 -0.87527E+06
 0.63049995E+02 -0.75746E+06
 0.63099998E+02 -0.61510E+06
 0.63149994E+02 -0.46281E+06
 0.63199997E+02 -0.28800E+06
 0.63249992E+02 -0.13452E+06
 0.63299995E+02 -0.20252E+05
 0.63349998E+02  0.63884E+05
 0.63399994E+02  0.10960E+06
 0.63449997E+02  0.13711E+06
 0.63499992E+02  0.14543E+06
 0.63549995E+02  0.10144E+06
 0.63599998E+02  0.31378E+05
 0.63649994E+02 -0.38087E+05
 0.63699997E+02 -0.88119E+05
 0.63749992E+02 -0.14545E+06
 0.63799995E+02 -0.26770E+06
 0.63849998E+02 -0.42877E+06
 0.63899994E+02 -0.58626E+06
 0.63949997E+02 -0.73596E+06
 0.63999992E+02 -0.85871E+06
 0.64049995E+02 -0.96377E+06
 0.64099998E+02 -0.10397E+07
 0.64149994E+02 -0.10174E+07
 0.64199997E+02 -0.94253E+06
 0.64249992E+02 -0.85673E+06
 0.64299995E+02 -0.75110E+06
 0.64349998E+02 -0.61710E+06
 0.64399994E+02 -0.42937E+06
 0.64449997E+02 -0.18952E+06
 0.64499992E+02  0.43176E+05
 0.64549995E+02  0.23222E+06
 0.64599998E+02  0.41295E+06
 0.64649994E+02  0.61040E+06
 0.64699997E+02  0.80738E+06
 0.64749992E+02  0.95491E+06
 0.64799995E+02  0.10449E+07
 0.64849998E+02  0.10859E+07
 0.64899994E+02  0.11024E+07
 0.64949997E+02  0.10635E+07
 0.64999992E+02  0.93473E+06
 0.65049995E+02  0.77757E+06
 0.65099998E+02  0.62975E+06
 0.65149994E+02  0.44784E+06
 0.65199997E+02  0.20764E+06
 0.65249992E+02 -0.37791E+05
 0.65299995E+02 -0.23019E+06
 0.65349998E+02 -0.34118E+06
 0.65399994E+02 -0.42708E+06
 0.65449997E+02 -0.51254E+06
 0.65499992E+02 -0.54857E+06
 0.65549995E+02 -0.55290E+06
 0.65599998E+02 -0.57221E+06
 0.65649994E+02 -0.55528E+06
 0.65699997E+02 -0.48056E+06
 0.65749992E+02 -0.37712E+06
 0.65799995E+02 -0.27857E+06
 0.65849998E+02 -0.21196E+06
 0.65899994E+02 -0.13652E+06
 0.65949997E+02 -0.37367E+05
 0.65999992E+02  0.58307E+05
 0.66049995E+02  0.12731E+06
 0.66099998E+02  0.19901E+06
 0.66149994E+02  0.22028E+06
 0.66199997E+02  0.18145E+06
 0.66249992E+02  0.12839E+06
 0.66299995E+02  0.88687E+05
 0.66349998E+02  0.63812E+05
 0.66399994E+02  0.11692E+05
 0.66449997E+02 -0.54669E+05
 0.66499992E+02 -0.12969E+06
 0.66549995E+02 -0.20524E+06
 0.66599998E+02 -0.27616E+06
 0.66649994E+02 -0.30810E+06
 0.66699997E+02 -0.30275E+06
 0.66749992E+02 -0.29589E+06
 0.66799995E+02 -0.31148E+06
 0.66849998E+02 -0.33989E+06
 0.66899994E+02 -0.37754E+06
 0.66949997E+02 -0.40215E+06
 0.66999992E+02 -0.35442E+06
 0.67049995E+02 -0.24591E+06
 0.67099998E+02 -0.12865E+06
 0.67149994E+02 -0.41527E+05
 0.67199997E+02  0.14536E+05
 0.67249992E+02  0.41757E+05
 0.67299995E+02  0.33870E+05
 0.67349998E+02 -0.16545E+05
 0.67399994E+02 -0.58136E+05
 0.67449997E+02 -0.47185E+05
 0.67499992E+02 -0.40815E+04
 0.67549995E+02  0.38679E+05
 0.67599998E+02  0.79323E+05
 0.67649994E+02  0.14018E+06
 0.67699997E+02  0.19612E+06
 0.67749992E+02  0.21923E+06
 0.67799995E+02  0.25652E+06
 0.67849998E+02  0.34895E+06
 0.67899994E+02  0.44330E+06
 0.67949997E+02  0.52022E+06
 0.67999992E+02  0.57794E+06
 0.68049995E+02  0.58998E+06
 0.68099998E+02  0.57396E+06
 0.68149994E+02  0.55127E+06
 0.68199997E+02  0.51434E+06
 0.68249992E+02  0.46336E+06
 0.68299995E+02  0.43821E+06
 0.68349998E+02  0.44526E+06
 0.68399994E+02  0.48179E+06
 0.68449997E+02  0.53737E+06
 0.68499992E+02  0.58522E+06
 0.68549995E+02  0.64768E+06
 0.68599998E+02  0.69071E+06
 0.68649994E+02  0.66851E+06
 0.68699997E+02  0.60268E+06
 0.68749992E+02  0.52539E+06
 0.68799995E+02  0.43053E+06
 0.68849998E+02  0.32633E+06
 0.68899994E+02  0.23349E+06
 0.68949997E+02  0.14423E+06
 0.68999992E+02  0.71489E+05
 0.69049995E+02  0.19307E+04
 0.69099998E+02 -0.73647E+05
 0.69149994E+02 -0.14161E+06
 0.69199997E+02 -0.18547E+06
 0.69249992E+02 -0.20610E+06
 0.69299995E+02 -0.19312E+06
 0.69349998E+02 -0.13838E+06
 0.69399994E+02 -0.10703E+06
 0.69449997E+02 -0.93621E+05
 0.69499992E+02 -0.86367E+05
 0.69549995E+02 -0.13557E+06
 0.69599998E+02 -0.20586E+06
 0.69649994E+02 -0.27039E+06
 0.69699997E+02 -0.32948E+06
 0.69749992E+02 -0.36284E+06
 0.69799995E+02 -0.38143E+06
 0.69849998E+02 -0.42271E+06
 0.69899994E+02 -0.48403E+06
 0.69949997E+02 -0.51210E+06
 0.69999992E+02 -0.50152E+06
 0.70049995E+02 -0.45312E+06
 0.70099998E+02 -0.36331E+06
 0.70149994E+02 -0.23685E+06
 0.70199997E+02 -0.96668E+05
 0.70249992E+02  0.16200E+05
 0.70299995E+02  0.10678E+06
 0.70349998E+02  0.19890E+06
 0.70399994E+02  0.30662E+06
 0.70449997E+02  0.41426E+06
 0.70499992E+02  0.51282E+06
 0.70549995E+02  0.61520E+06
 0.70599998E+02  0.71168E+06
 0.70649994E+02  0.78187E+06
 0.70699997E+02  0.81445E+06
 0.70749992E+02  0.81688E+06
 0.70799995E+02  0.80754E+06
 0.70849998E+02  0.78427E+06
 0.70899994E+02  0.74504E+06
 0.70949997E+02  0.68870E+06
 0.70999992E+02  0.61245E+06
 0.71049995E+02  0.51521E+06
 0.71099998E+02  0.39794E+06
 0.71149994E+02  0.28361E+06
 0.71199997E+02  0.17147E+06
 0.71249992E+02  0.61849E+05
 0.71299995E+02 -0.93767E+04
 0.71349998E+02 -0.41420E+05
 0.71399994E+02 -0.50477E+05
 0.71449997E+02 -0.71813E+05
 0.71499992E+02 -0.11355E+06
 0.71549995E+02 -0.17070E+06
 0.71599998E+02 -0.22428E+06
 0.71649994E+02 -0.24413E+06
 0.71699997E+02 -0.26139E+06
 0.71749992E+02 -0.26763E+06
 0.71799995E+02 -0.25579E+06
 0.71849998E+02 -0.23418E+06
 0.71899994E+02 -0.22219E+06
 0.71949997E+02 -0.22119E+06
 0.71999992E+02 -0.22110E+06
 0.72049995E+02 -0.22092E+06
 0.72099998E+02 -0.23276E+06
 0.72149994E+02 -0.26761E+06
 0.72199997E+02 -0.28212E+06
 0.72249992E+02 -0.27589E+06
 0.72299995E+02 -0.27995E+06
 0.72349998E+02 -0.30462E+06
 0.72399994E+02 -0.33160E+06
 0.72449997E+02 -0.34010E+06
 0.72499992E+02 -0.33841E+06
 0.72549995E+02 -0.35881E+06
 0.72599998E+02 -0.39225E+06
 0.72649994E+02 -0.40900E+06
 0.72699997E+02 -0.42696E+06
 0.72749992E+02 -0.47399E+06
 0.72799995E+02 -0.51751E+06
 0.72849998E+02 -0.51497E+06
 0.72899994E+02 -0.48150E+06
 0.72949997E+02 -0.45789E+06
 0.72999992E+02 -0.48239E+06
 0.73049995E+02 -0.53196E+06
 0.73099998E+02 -0.57038E+06
 0.73149994E+02 -0.59084E+06
 0.73199997E+02 -0.59970E+06
 0.73249992E+02 -0.57806E+06
 0.73299995E+02 -0.51862E+06
 0.73349998E+02 -0.46450E+06
 0.73399994E+02 -0.42624E+06
 0.73449997E+02 -0.39072E+06
 0.73499992E+02 -0.34883E+06
 0.73549995E+02 -0.29931E+06
 0.73599998E+02 -0.25089E+06
 0.73649994E+02 -0.21996E+06
 0.73699997E+02 -0.22021E+06
 0.73749992E+02 -0.23639E+06
 0.73799995E+02 -0.25066E+06
 0.73849998E+02 -0.25127E+06
 0.73899994E+02 -0.23417E+06
 0.73949997E+02 -0.19662E+06
 0.73999992E+02 -0.11339E+06
 0.74049995E+02  0.73937E+04
 0.74099998E+02  0.13641E+06
 0.74149994E+02  0.23843E+06
 0.74199997E+02  0.29865E+06
 0.74249992E+02  0.31316E+06
 0.74299995E+02  0.29022E+06
 0.74349998E+02  0.26391E+06
 0.74399994E+02  0.25663E+06
 0.74449997E+02  0.27396E+06
 0.74499992E+02  0.28515E+06
 0.74549995E+02  0.27790E+06
 0.74599998E+02  0.25849E+06
 0.74649994E+02  0.24105E+06
 0.74699997E+02  0.21318E+06
 0.74749992E+02  0.16544E+06
 0.74799995E+02  0.12527E+06
 0.74849998E+02  0.11099E+06
 0.74899994E+02  0.10213E+06
 0.74949997E+02  0.52822E+05
 0.74999992E+02 -0.43580E+04
 0.75049995E+02 -0.23034E+05
 0.75099998E+02 -0.26715E+05
 0.75149994E+02 -0.44616E+05
 0.75199997E+02 -0.74881E+05
 0.75249992E+02 -0.91832E+05
 0.75299995E+02 -0.77843E+05
 0.75349998E+02 -0.39181E+05
 0.75399994E+02  0.65324E+04
 0.75449997E+02  0.72739E+05
 0.75499992E+02  0.16202E+06
 0.75549995E+02  0.24007E+06
 0.75599998E+02  0.30834E+06
 0.75649994E+02  0.37554E+06
 0.75699997E+02  0.41794E+06
 0.75749992E+02  0.43397E+06
 0.75799995E+02  0.43849E+06
 0.75849998E+02  0.43633E+06
 0.75899994E+02  0.42485E+06
 0.75949997E+02  0.39619E+06
 0.75999992E+02  0.35649E+06
 0.76049995E+02  0.30847E+06
 0.76099998E+02  0.24144E+06
 0.76149994E+02  0.14862E+06
 0.76199997E+02  0.46354E+05
 0.76249992E+02 -0.50530E+05
 0.76299995E+02 -0.14608E+06
 0.76349998E+02 -0.23913E+06
 0.76399994E+02 -0.31971E+06
 0.76449997E+02 -0.37981E+06
 0.76499992E+02 -0.42872E+06
 0.76549995E+02 -0.47368E+06
 0.76599998E+02 -0.49799E+06
 0.76649994E+02 -0.49945E+06
 0.76699997E+02 -0.48214E+06
 0.76749992E+02 -0.43166E+06
 0.76799995E+02 -0.34071E+06
 0.76849998E+02 -0.23839E+06
 0.76899994E+02 -0.14436E+06
 0.76949997E+02 -0.54928E+05
 0.76999992E+02  0.29220E+05
 0.77049995E+02  0.10473E+06
 0.77099998E+02  0.15959E+06
 0.77149994E+02  0.19858E+06
 0.77199997E+02  0.25261E+06
 0.77249992E+02  0.33221E+06
 0.77299995E+02  0.40635E+06
 0.77349998E+02  0.44401E+06
 0.77399994E+02  0.43392E+06
 0.77449997E+02  0.38995E+06
 0.77499992E+02  0.34804E+06
 0.77549995E+02  0.31801E+06
 0.77599998E+02  0.28311E+06
 0.77649994E+02  0.25749E+06
 0.77699997E+02  0.26887E+06
 0.77749992E+02  0.31106E+06
 0.77799995E+02  0.35768E+06
 0.77849998E+02  0.38240E+06
 0.77899994E+02  0.36008E+06
 0.77949997E+02  0.30551E+06
 0.77999992E+02  0.24799E+06
 0.78049995E+02  0.18557E+06
 0.78099998E+02  0.10860E+06
 0.78149994E+02  0.22541E+05
 0.78199997E+02 -0.52251E+05
 0.78249992E+02 -0.10911E+06
 0.78299995E+02 -0.16508E+06
 0.78349998E+02 -0.22820E+06
 0.78399994E+02 -0.28297E+06
 0.78449997E+02 -0.31719E+06
 0.78499992E+02 -0.34397E+06
 0.78549995E+02 -0.36757E+06
 0.78599998E+02 -0.36843E+06
 0.78649994E+02 -0.35424E+06
 0.78699997E+02 -0.33546E+06
 0.78749992E+02 -0.30829E+06
 0.78799995E+02 -0.27339E+06
 0.78849998E+02 -0.22147E+06
 0.78899994E+02 -0.15322E+06
 0.78949997E+02 -0.93678E+05
 0.78999992E+02 -0.44589E+05
 0.79049995E+02  0.27428E+04
 0.79099998E+02  0.36337E+05
 0.79149994E+02  0.56143E+05
 0.79199997E+02  0.67844E+05
 0.79249992E+02  0.71727E+05
 0.79299995E+02  0.87224E+05
 0.79349998E+02  0.10765E+06
 0.79399994E+02  0.10348E+06
 0.79449997E+02  0.96777E+05
 0.79499992E+02  0.11149E+06
 0.79549995E+02  0.14950E+06
 0.79599998E+02  0.19405E+06
 0.79649994E+02  0.22694E+06
 0.79699997E+02  0.23701E+06
 0.79749992E+02  0.23233E+06
 0.79799995E+02  0.24387E+06
 0.79849998E+02  0.28158E+06
 0.79899994E+02  0.34639E+06
 0.79949997E+02  0.41742E+06
 0.79999992E+02  0.45854E+06
 0.80049995E+02  0.45203E+06
 0.80099998E+02  0.39183E+06
 0.80149994E+02  0.29051E+06
 0.80199997E+02  0.19320E+06
 0.80249992E+02  0.14619E+06
 0.80299995E+02  0.16162E+06
 0.80349998E+02  0.20302E+06
 0.80399994E+02  0.22652E+06
 0.80449997E+02  0.21355E+06
 0.80499992E+02  0.15766E+06
 0.80549995E+02  0.63419E+05
 0.80599998E+02 -0.50727E+05
 0.80649994E+02 -0.15786E+06
 0.80699997E+02 -0.23060E+06
 0.80749992E+02 -0.26909E+06
 0.80799995E+02 -0.29987E+06
 0.80849998E+02 -0.34041E+06
 0.80899994E+02 -0.36756E+06
 0.80949997E+02 -0.34891E+06
 0.80999992E+02 -0.30517E+06
 0.81049995E+02 -0.26261E+06
 0.81099998E+02 -0.21468E+06
 0.81149994E+02 -0.15541E+06
 0.81199997E+02 -0.10693E+06
 0.81249992E+02 -0.61480E+05
 0.81299995E+02 -0.58865E+04
 0.81349998E+02  0.51098E+05
 0.81399994E+02  0.10623E+06
 0.81449997E+02  0.15030E+06
 0.81499992E+02  0.18963E+06
 0.81549995E+02  0.22071E+06
 0.81599998E+02  0.22087E+06
 0.81649994E+02  0.18324E+06
 0.81699997E+02  0.10929E+06
 0.81749992E+02  0.85031E+03
 0.81799995E+02 -0.14215E+06
 0.81849998E+02 -0.27762E+06
 0.81899994E+02 -0.35809E+06
 0.81949997E+02 -0.39856E+06
 0.81999992E+02 -0.40973E+06
 0.82049995E+02 -0.40748E+06
 0.82099998E+02 -0.40140E+06
 0.82149994E+02 -0.39048E+06
 0.82199997E+02 -0.36751E+06
 0.82249992E+02 -0.33095E+06
 0.82299995E+02 -0.29951E+06
 0.82349998E+02 -0.28051E+06
 0.82399994E+02 -0.26223E+06
 0.82449997E+02 -0.22233E+06
 0.82499992E+02 -0.17710E+06
 0.82549995E+02 -0.14139E+06
 0.82599998E+02 -0.10873E+06
 0.82649994E+02 -0.81987E+05
 0.82699997E+02 -0.61060E+05
 0.82749992E+02 -0.41121E+05
 0.82799995E+02 -0.10509E+05
 0.82849998E+02  0.43423E+05
 0.82899994E+02  0.11078E+06
 0.82949997E+02  0.16044E+06
 0.82999992E+02  0.18342E+06
 0.83049995E+02  0.18514E+06
 0.83099998E+02  0.16926E+06
 0.83149994E+02  0.13610E+06
 0.83199997E+02  0.77053E+05
 0.83249992E+02  0.46392E+03
 0.83299995E+02 -0.75907E+05
 0.83349998E+02 -0.14014E+06
 0.83399994E+02 -0.18281E+06
 0.83449997E+02 -0.20185E+06
 0.83499992E+02 -0.19635E+06
 0.83549995E+02 -0.16907E+06
 0.83599998E+02 -0.13198E+06
 0.83649994E+02 -0.11292E+06
 0.83699997E+02 -0.11279E+06
 0.83749992E+02 -0.95100E+05
 0.83799995E+02 -0.45865E+05
 0.83849998E+02  0.13583E+04
 0.83899994E+02  0.10685E+05
 0.83949997E+02 -0.90065E+04
 0.83999992E+02 -0.46309E+05
 0.84049995E+02 -0.86076E+05
 0.84099998E+02 -0.12412E+06
 0.84149994E+02 -0.14966E+06
 0.84199997E+02 -0.14053E+06
 0.84249992E+02 -0.12254E+06
 0.84299995E+02 -0.11949E+06
 0.84349998E+02 -0.12097E+06
 0.84399994E+02 -0.10018E+06
 0.84449997E+02 -0.35942E+05
 0.84499992E+02  0.56025E+05
 0.84549995E+02  0.15021E+06
 0.84599998E+02  0.25156E+06
 0.84649994E+02  0.35850E+06
 0.84699997E+02  0.44946E+06
 0.84749992E+02  0.53263E+06
 0.84799995E+02  0.62204E+06
 0.84849998E+02  0.70261E+06
 0.84899994E+02  0.74925E+06
 0.84949997E+02  0.75885E+06
 0.84999992E+02  0.74988E+06
 0.85049995E+02  0.72650E+06
 0.85099998E+02  0.67698E+06
 0.85149994E+02  0.59419E+06
 0.85199997E+02  0.48728E+06
 0.85249992E+02  0.36248E+06
 0.85299995E+02  0.22092E+06
 0.85349998E+02  0.67942E+05
 0.85399994E+02 -0.79894E+05
 0.85449997E+02 -0.20880E+06
 0.85499992E+02 -0.31741E+06
 0.85549995E+02 -0.40604E+06
 0.85599998E+02 -0.47915E+06
 0.85649994E+02 -0.53836E+06
 0.85699997E+02 -0.57872E+06
 0.85749992E+02 -0.60116E+06
 0.85799995E+02 -0.61484E+06
 0.85849998E+02 -0.61332E+06
 0.85899994E+02 -0.57326E+06
 0.85949997E+02 -0.47899E+06
 0.85999992E+02 -0.34671E+06
 0.86049995E+02 -0.21890E+06
 0.86099998E+02 -0.12828E+06
 0.86149994E+02 -0.82917E+05
 0.86199997E+02 -0.72061E+05
 0.86249992E+02 -0.74312E+05
 0.86299995E+02 -0.75999E+05
 0.86349998E+02 -0.75643E+05
 0.86399994E+02 -0.64315E+05
 0.86449997E+02 -0.37465E+05
 0.86499992E+02 -0.78870E+04
 0.86549995E+02  0.38440E+04
 0.86599998E+02 -0.24229E+05
 0.86649994E+02 -0.88917E+05
 0.86699997E+02 -0.16438E+06
 0.86749992E+02 -0.22533E+06
 0.86799995E+02 -0.25422E+06
 0.86849998E+02 -0.24972E+06
 0.86899994E+02 -0.22468E+06
 0.86949997E+02 -0.20441E+06
 0.86999992E+02 -0.21719E+06
 0.87049995E+02 -0.27389E+06
 0.87099998E+02 -0.35961E+06
 0.87149994E+02 -0.44397E+06
 0.87199997E+02 -0.50112E+06
 0.87249992E+02 -0.52357E+06
 0.87299995E+02 -0.50890E+06
 0.87349998E+02 -0.44844E+06
 0.87399994E+02 -0.35631E+06
 0.87449997E+02 -0.27181E+06
 0.87499992E+02 -0.23129E+06
 0.87549995E+02 -0.22670E+06
 0.87599991E+02 -0.20900E+06
 0.87649994E+02 -0.15220E+06
 0.87699997E+02 -0.56545E+05
 0.87749992E+02  0.61430E+05
 0.87799995E+02  0.19037E+06
 0.87849991E+02  0.32001E+06
 0.87899994E+02  0.42604E+06
 0.87949997E+02  0.49469E+06
 0.87999992E+02  0.53743E+06
 0.88049995E+02  0.57336E+06
 0.88099991E+02  0.60725E+06
 0.88149994E+02  0.64382E+06
 0.88199997E+02  0.67625E+06
 0.88249992E+02  0.69172E+06
 0.88299995E+02  0.67430E+06
 0.88349991E+02  0.61099E+06
 0.88399994E+02  0.51930E+06
 0.88449997E+02  0.42674E+06
 0.88499992E+02  0.34331E+06
 0.88549995E+02  0.26878E+06
 0.88599991E+02  0.20221E+06
 0.88649994E+02  0.13647E+06
 0.88699997E+02  0.58440E+05
 0.88749992E+02 -0.36508E+05
 0.88799995E+02 -0.13955E+06
 0.88849991E+02 -0.22985E+06
 0.88899994E+02 -0.29875E+06
 0.88949997E+02 -0.35230E+06
 0.88999992E+02 -0.39244E+06
 0.89049995E+02 -0.41433E+06
 0.89099991E+02 -0.40831E+06
 0.89149994E+02 -0.38395E+06
 0.89199997E+02 -0.35286E+06
 0.89249992E+02 -0.31953E+06
 0.89299995E+02 -0.29379E+06
 0.89349991E+02 -0.25978E+06
 0.89399994E+02 -0.19319E+06
 0.89449997E+02 -0.10172E+06
 0.89499992E+02 -0.71629E+04
 0.89549995E+02  0.82752E+05
 0.89599991E+02  0.15751E+06
 0.89649994E+02  0.21635E+06
 0.89699997E+02  0.27023E+06
 0.89749992E+02  0.32167E+06
 0.89799995E+02  0.38523E+06
 0.89849991E+02  0.45781E+06
 0.89899994E+02  0.51715E+06
 0.89949997E+02  0.55434E+06
 0.89999992E+02  0.56611E+06
 0.90049995E+02  0.54083E+06
 0.90099991E+02  0.48540E+06
 0.90149994E+02  0.42191E+06
 0.90199997E+02  0.34244E+06
 0.90249992E+02  0.24467E+06
 0.90299995E+02  0.15638E+06
 0.90349991E+02  0.78740E+05
 0.90399994E+02 -0.52052E+04
 0.90449997E+02 -0.95504E+05
 0.90499992E+02 -0.19203E+06
 0.90549995E+02 -0.28546E+06
 0.90599991E+02 -0.35424E+06
 0.90649994E+02 -0.39073E+06
 0.90699997E+02 -0.39478E+06
 0.90749992E+02 -0.37207E+06
 0.90799995E+02 -0.34777E+06
 0.90849991E+02 -0.32729E+06
 0.90899994E+02 -0.30656E+06
 0.90949997E+02 -0.28850E+06
 0.90999992E+02 -0.26814E+06
 0.91049995E+02 -0.23902E+06
 0.91099991E+02 -0.20272E+06
 0.91149994E+02 -0.16168E+06
 0.91199997E+02 -0.11461E+06
 0.91249992E+02 -0.66357E+05
 0.91299995E+02 -0.20281E+05
 0.91349991E+02  0.19172E+04
 0.91399994E+02 -0.46466E+03
 0.91449997E+02 -0.29270E+04
 0.91499992E+02  0.32602E+03
 0.91549995E+02  0.35007E+04
 0.91599991E+02  0.43048E+04
 0.91649994E+02 -0.82307E+03
 0.91699997E+02 -0.16480E+05
 0.91749992E+02 -0.41943E+05
 0.91799995E+02 -0.80518E+05
 0.91849991E+02 -0.11989E+06
 0.91899994E+02 -0.14368E+06
 0.91949997E+02 -0.14757E+06
 0.91999992E+02 -0.11801E+06
 0.92049995E+02 -0.50596E+05
 0.92099991E+02  0.35184E+05
 0.92149994E+02  0.12105E+06
 0.92199997E+02  0.19012E+06
 0.92249992E+02  0.23602E+06
 0.92299995E+02  0.26492E+06
 0.92349991E+02  0.27948E+06
 0.92399994E+02  0.27678E+06
 0.92449997E+02  0.27142E+06
 0.92499992E+02  0.28559E+06
 0.92549995E+02  0.31694E+06
 0.92599991E+02  0.34425E+06
 0.92649994E+02  0.35706E+06
 0.92699997E+02  0.36187E+06
 0.92749992E+02  0.36449E+06
 0.92799995E+02  0.36415E+06
 0.92849991E+02  0.35549E+06
 0.92899994E+02  0.33846E+06
 0.92949997E+02  0.31741E+06
 0.92999992E+02  0.29214E+06
 0.93049995E+02  0.24478E+06
 0.93099991E+02  0.16712E+06
 0.93149994E+02  0.80170E+05
 0.93199997E+02  0.52833E+04
 0.93249992E+02 -0.57681E+05
 0.93299995E+02 -0.12134E+06
 0.93349991E+02 -0.19359E+06
 0.93399994E+02 -0.27109E+06
 0.93449997E+02 -0.34641E+06
 0.93499992E+02 -0.41570E+06
 0.93549995E+02 -0.46858E+06
 0.93599991E+02 -0.49092E+06
 0.93649994E+02 -0.47401E+06
 0.93699997E+02 -0.43947E+06
 0.93749992E+02 -0.40832E+06
 0.93799995E+02 -0.37940E+06
 0.93849991E+02 -0.35097E+06
 0.93899994E+02 -0.31751E+06
 0.93949997E+02 -0.27975E+06
 0.93999992E+02 -0.23921E+06
 0.94049995E+02 -0.19820E+06
 0.94099991E+02 -0.15791E+06
 0.94149994E+02 -0.13036E+06
 0.94199997E+02 -0.12364E+06
 0.94249992E+02 -0.13148E+06
 0.94299995E+02 -0.13839E+06
 0.94349991E+02 -0.13145E+06
 0.94399994E+02 -0.10733E+06
 0.94449997E+02 -0.69281E+05
 0.94499992E+02 -0.24102E+05
 0.94549995E+02  0.19340E+05
 0.94599991E+02  0.52181E+05
 0.94649994E+02  0.81560E+05
 0.94699997E+02  0.11312E+06
 0.94749992E+02  0.15978E+06
 0.94799995E+02  0.21984E+06
 0.94849991E+02  0.27620E+06
 0.94899994E+02  0.31866E+06
 0.94949997E+02  0.34073E+06
 0.94999992E+02  0.34217E+06
 0.95049995E+02  0.32542E+06
 0.95099991E+02  0.29469E+06
 0.95149994E+02  0.25501E+06
 0.95199997E+02  0.21675E+06
 0.95249992E+02  0.17829E+06
 0.95299995E+02  0.14028E+06
 0.95349991E+02  0.10346E+06
 0.95399994E+02  0.57895E+05
 0.95449997E+02  0.41563E+04
 0.95499992E+02 -0.48279E+05
 0.95549995E+02 -0.92350E+05
 0.95599991E+02 -0.12863E+06
 0.95649994E+02 -0.16574E+06
 0.95699997E+02 -0.20927E+06
 0.95749992E+02 -0.25226E+06
 0.95799995E+02 -0.28801E+06
 0.95849991E+02 -0.31758E+06
 0.95899994E+02 -0.34694E+06
 0.95949997E+02 -0.37478E+06
 0.95999992E+02 -0.39422E+06
 0.96049995E+02 -0.40180E+06
 0.96099991E+02 -0.39897E+06
 0.96149994E+02 -0.38542E+06
 0.96199997E+02 -0.35778E+06
 0.96249992E+02 -0.31930E+06
 0.96299995E+02 -0.26946E+06
 0.96349991E+02 -0.20412E+06
 0.96399994E+02 -0.12742E+06
 0.96449997E+02 -0.45110E+05
 0.96499992E+02  0.30782E+05
 0.96549995E+02  0.87749E+05
 0.96599991E+02  0.13161E+06
 0.96649994E+02  0.16366E+06
 0.96699997E+02  0.17518E+06
 0.96749992E+02  0.17272E+06
 0.96799995E+02  0.17152E+06
 0.96849991E+02  0.16630E+06
 0.96899994E+02  0.14635E+06
 0.96949997E+02  0.11389E+06
 0.96999992E+02  0.75945E+05
 0.97049995E+02  0.47827E+05
 0.97099991E+02  0.31842E+05
 0.97149994E+02  0.18035E+05
 0.97199997E+02  0.11906E+05
 0.97249992E+02  0.13681E+05
 0.97299995E+02  0.31321E+04
 0.97349991E+02 -0.25157E+05
 0.97399994E+02 -0.56289E+05
 0.97449997E+02 -0.82873E+05
 0.97499992E+02 -0.10704E+06
 0.97549995E+02 -0.12974E+06
 0.97599991E+02 -0.14630E+06
 0.97649994E+02 -0.14745E+06
 0.97699997E+02 -0.13473E+06
 0.97749992E+02 -0.12018E+06
 0.97799995E+02 -0.11352E+06
 0.97849991E+02 -0.11513E+06
 0.97899994E+02 -0.11851E+06
 0.97949997E+02 -0.11115E+06
 0.97999992E+02 -0.78368E+05
