-0.20000000E+01  0.85126E+04
-0.19500000E+01  0.10769E+05
-0.19000000E+01  0.14196E+05
-0.18500000E+01  0.18175E+05
-0.18000000E+01  0.22340E+05
-0.17500000E+01  0.26122E+05
-0.17000000E+01  0.28879E+05
-0.16500001E+01  0.30841E+05
-0.16000000E+01  0.32494E+05
-0.15500000E+01  0.34149E+05
-0.15000000E+01  0.35442E+05
-0.14500000E+01  0.36463E+05
-0.14000001E+01  0.36712E+05
-0.13500000E+01  0.36191E+05
-0.13000001E+01  0.35223E+05
-0.12500000E+01  0.33606E+05
-0.12000000E+01  0.30955E+05
-0.11500001E+01  0.27518E+05
-0.11000000E+01  0.24089E+05
-0.10500001E+01  0.20767E+05
-0.10000000E+01  0.17935E+05
-0.95000005E+00  0.15437E+05
-0.90000010E+00  0.13179E+05
-0.85000002E+00  0.10767E+05
-0.80000007E+00  0.81238E+04
-0.75000012E+00  0.54827E+04
-0.70000005E+00  0.28524E+04
-0.65000010E+00  0.42230E+03
-0.60000014E+00 -0.15752E+04
-0.55000007E+00 -0.27726E+04
-0.50000012E+00 -0.38754E+04
-0.45000005E+00 -0.51429E+04
-0.40000010E+00 -0.61717E+04
-0.35000014E+00 -0.71655E+04
-0.30000007E+00 -0.81945E+04
-0.25000012E+00 -0.91003E+04
-0.20000005E+00 -0.97566E+04
-0.15000010E+00 -0.96788E+04
-0.10000014E+00 -0.90108E+04
-0.50000072E-01 -0.81475E+04
-0.11920929E-06 -0.70440E+04
 0.49999952E-01 -0.57377E+04
 0.99999905E-01 -0.41845E+04
 0.14999986E+00 -0.24214E+04
 0.19999981E+00 -0.27425E+03
 0.24999976E+00  0.18082E+04
 0.29999995E+00  0.39333E+04
 0.34999990E+00  0.63876E+04
 0.39999986E+00  0.85378E+04
 0.44999981E+00  0.10130E+05
 0.49999976E+00  0.10980E+05
 0.54999995E+00  0.10863E+05
 0.59999990E+00  0.95988E+04
 0.64999986E+00  0.71921E+04
 0.69999981E+00  0.37338E+04
 0.74999976E+00 -0.29792E+03
 0.79999971E+00 -0.44015E+04
 0.84999990E+00 -0.81561E+04
 0.89999986E+00 -0.11231E+05
 0.94999981E+00 -0.13626E+05
 0.99999976E+00 -0.15670E+05
 0.10499997E+01 -0.17543E+05
 0.10999999E+01 -0.19094E+05
 0.11499999E+01 -0.20876E+05
 0.11999998E+01 -0.22695E+05
 0.12499998E+01 -0.24216E+05
 0.12999997E+01 -0.25122E+05
 0.13499999E+01 -0.25058E+05
 0.13999999E+01 -0.24020E+05
 0.14499998E+01 -0.21710E+05
 0.14999998E+01 -0.18361E+05
 0.15499997E+01 -0.14078E+05
 0.15999999E+01 -0.92657E+04
 0.16499999E+01 -0.42114E+04
 0.16999998E+01  0.11613E+04
 0.17499998E+01  0.65950E+04
 0.17999997E+01  0.12253E+05
 0.18499997E+01  0.17968E+05
 0.18999999E+01  0.23009E+05
 0.19499998E+01  0.26868E+05
 0.19999998E+01  0.29267E+05
 0.20499997E+01  0.29918E+05
 0.20999999E+01  0.29047E+05
 0.21499996E+01  0.27060E+05
 0.21999998E+01  0.24669E+05
 0.22499995E+01  0.22407E+05
 0.22999997E+01  0.20108E+05
 0.23499999E+01  0.17650E+05
 0.23999996E+01  0.15653E+05
 0.24499998E+01  0.13861E+05
 0.24999995E+01  0.11734E+05
 0.25499997E+01  0.97047E+04
 0.25999999E+01  0.78430E+04
 0.26499996E+01  0.64397E+04
 0.26999998E+01  0.54684E+04
 0.27499995E+01  0.49240E+04
 0.27999997E+01  0.45702E+04
 0.28499999E+01  0.44933E+04
 0.28999996E+01  0.38916E+04
 0.29499998E+01  0.28736E+04
 0.29999995E+01  0.20632E+04
 0.30499997E+01  0.13136E+04
 0.30999999E+01  0.97402E+03
 0.31499996E+01  0.94319E+03
 0.31999998E+01  0.67195E+03
 0.32499995E+01  0.14733E+03
 0.32999997E+01 -0.45534E+03
 0.33499999E+01 -0.12678E+04
 0.33999996E+01 -0.20990E+04
 0.34499998E+01 -0.29491E+04
 0.34999995E+01 -0.37586E+04
 0.35499997E+01 -0.43754E+04
 0.35999994E+01 -0.46334E+04
 0.36499996E+01 -0.48025E+04
 0.36999998E+01 -0.51876E+04
 0.37499995E+01 -0.57276E+04
 0.37999997E+01 -0.64727E+04
 0.38499994E+01 -0.74288E+04
 0.38999996E+01 -0.80590E+04
 0.39499998E+01 -0.83015E+04
 0.39999995E+01 -0.78101E+04
 0.40499997E+01 -0.66578E+04
 0.40999994E+01 -0.55713E+04
 0.41499996E+01 -0.44719E+04
 0.41999998E+01 -0.32027E+04
 0.42499995E+01 -0.20429E+04
 0.42999997E+01 -0.50138E+03
 0.43499994E+01  0.16127E+04
 0.43999996E+01  0.39249E+04
 0.44499998E+01  0.66880E+04
 0.44999995E+01  0.98521E+04
 0.45499997E+01  0.13069E+05
 0.45999994E+01  0.16024E+05
 0.46499996E+01  0.18632E+05
 0.46999998E+01  0.20886E+05
 0.47499995E+01  0.22951E+05
 0.47999997E+01  0.24801E+05
 0.48499994E+01  0.26131E+05
 0.48999996E+01  0.27213E+05
 0.49499998E+01  0.27378E+05
 0.49999995E+01  0.25771E+05
 0.50499997E+01  0.22480E+05
 0.50999994E+01  0.17877E+05
 0.51499996E+01  0.12460E+05
 0.51999998E+01  0.69512E+04
 0.52499995E+01  0.17583E+04
 0.52999997E+01 -0.33616E+04
 0.53499994E+01 -0.82064E+04
 0.53999996E+01 -0.12884E+05
 0.54499993E+01 -0.17600E+05
 0.54999995E+01 -0.21972E+05
 0.55499997E+01 -0.25924E+05
 0.55999994E+01 -0.29730E+05
 0.56499996E+01 -0.33272E+05
 0.56999993E+01 -0.36223E+05
 0.57499995E+01 -0.38572E+05
 0.57999997E+01 -0.40391E+05
 0.58499994E+01 -0.41610E+05
 0.58999996E+01 -0.42441E+05
 0.59499993E+01 -0.43304E+05
 0.59999995E+01 -0.44144E+05
 0.60499992E+01 -0.45174E+05
 0.60999994E+01 -0.46075E+05
 0.61499996E+01 -0.46381E+05
 0.61999998E+01 -0.46311E+05
 0.62499990E+01 -0.45593E+05
 0.62999992E+01 -0.44503E+05
 0.63499994E+01 -0.43163E+05
 0.63999996E+01 -0.41163E+05
 0.64499998E+01 -0.38807E+05
 0.64999990E+01 -0.36455E+05
 0.65499992E+01 -0.33986E+05
 0.65999994E+01 -0.31217E+05
 0.66499996E+01 -0.28104E+05
 0.66999998E+01 -0.24624E+05
 0.67499990E+01 -0.20577E+05
 0.67999992E+01 -0.16000E+05
 0.68499994E+01 -0.11163E+05
 0.68999996E+01 -0.63572E+04
 0.69499998E+01 -0.17591E+04
 0.69999990E+01  0.29110E+04
 0.70499992E+01  0.72449E+04
 0.70999994E+01  0.11033E+05
 0.71499996E+01  0.15013E+05
 0.71999998E+01  0.19061E+05
 0.72499990E+01  0.23293E+05
 0.72999992E+01  0.27333E+05
 0.73499994E+01  0.30774E+05
 0.73999996E+01  0.33686E+05
 0.74499998E+01  0.35780E+05
 0.74999990E+01  0.37340E+05
 0.75499992E+01  0.38288E+05
 0.75999994E+01  0.38500E+05
 0.76499996E+01  0.38791E+05
 0.76999998E+01  0.39198E+05
 0.77499990E+01  0.39797E+05
 0.77999992E+01  0.40157E+05
 0.78499994E+01  0.39467E+05
 0.78999996E+01  0.38009E+05
 0.79499998E+01  0.35799E+05
 0.79999990E+01  0.33067E+05
 0.80499992E+01  0.30136E+05
 0.80999994E+01  0.27126E+05
 0.81499996E+01  0.24153E+05
 0.81999998E+01  0.21126E+05
 0.82499990E+01  0.17923E+05
 0.82999992E+01  0.14719E+05
 0.83499994E+01  0.11811E+05
 0.83999996E+01  0.95145E+04
 0.84499998E+01  0.78632E+04
 0.84999990E+01  0.64535E+04
 0.85499992E+01  0.53125E+04
 0.85999994E+01  0.46862E+04
 0.86499996E+01  0.44146E+04
 0.86999998E+01  0.47622E+04
 0.87499990E+01  0.53212E+04
 0.87999992E+01  0.62777E+04
 0.88499994E+01  0.78481E+04
 0.88999996E+01  0.96640E+04
 0.89499998E+01  0.11551E+05
 0.89999990E+01  0.13367E+05
 0.90499992E+01  0.14972E+05
 0.90999994E+01  0.16094E+05
 0.91499996E+01  0.16938E+05
 0.91999989E+01  0.17003E+05
 0.92499990E+01  0.16265E+05
 0.92999992E+01  0.15035E+05
 0.93499994E+01  0.13379E+05
 0.93999996E+01  0.11523E+05
 0.94499989E+01  0.96858E+04
 0.94999990E+01  0.78404E+04
 0.95499992E+01  0.59998E+04
 0.95999994E+01  0.41648E+04
 0.96499996E+01  0.16890E+04
 0.96999989E+01 -0.15103E+04
 0.97499990E+01 -0.49037E+04
 0.97999992E+01 -0.83885E+04
 0.98499994E+01 -0.11820E+05
 0.98999996E+01 -0.14707E+05
 0.99499989E+01 -0.17383E+05
 0.99999990E+01 -0.19504E+05
 0.10049999E+02 -0.20428E+05
 0.10099999E+02 -0.20426E+05
 0.10150000E+02 -0.19489E+05
 0.10199999E+02 -0.17499E+05
 0.10249999E+02 -0.15120E+05
 0.10299999E+02 -0.12651E+05
 0.10349999E+02 -0.10328E+05
 0.10400000E+02 -0.84152E+04
 0.10449999E+02 -0.66227E+04
 0.10499999E+02 -0.51877E+04
 0.10549999E+02 -0.42196E+04
 0.10599999E+02 -0.38853E+04
 0.10650000E+02 -0.37706E+04
 0.10699999E+02 -0.42072E+04
 0.10749999E+02 -0.51688E+04
 0.10799999E+02 -0.61556E+04
 0.10849999E+02 -0.75056E+04
 0.10900000E+02 -0.88276E+04
 0.10949999E+02 -0.98444E+04
 0.10999999E+02 -0.10828E+05
 0.11049999E+02 -0.11700E+05
 0.11099999E+02 -0.12356E+05
 0.11150000E+02 -0.13001E+05
 0.11199999E+02 -0.13422E+05
 0.11249999E+02 -0.13770E+05
 0.11299999E+02 -0.13870E+05
 0.11349999E+02 -0.13873E+05
 0.11400000E+02 -0.13737E+05
 0.11449999E+02 -0.13674E+05
 0.11499999E+02 -0.13362E+05
 0.11549999E+02 -0.12314E+05
 0.11599999E+02 -0.11158E+05
 0.11650000E+02 -0.95457E+04
 0.11699999E+02 -0.76717E+04
 0.11749999E+02 -0.59555E+04
 0.11799999E+02 -0.42535E+04
 0.11849999E+02 -0.28449E+04
 0.11900000E+02 -0.19749E+04
 0.11949999E+02 -0.11910E+04
 0.11999999E+02 -0.25979E+03
 0.12049999E+02  0.89413E+03
 0.12099999E+02  0.26036E+04
 0.12150000E+02  0.48186E+04
 0.12199999E+02  0.67776E+04
 0.12249999E+02  0.81666E+04
 0.12299999E+02  0.91321E+04
 0.12349999E+02  0.95869E+04
 0.12400000E+02  0.97977E+04
 0.12449999E+02  0.10088E+05
 0.12499999E+02  0.98330E+04
 0.12549999E+02  0.95617E+04
 0.12599999E+02  0.94895E+04
 0.12649999E+02  0.93235E+04
 0.12699999E+02  0.91656E+04
 0.12749999E+02  0.85912E+04
 0.12799999E+02  0.79903E+04
 0.12849999E+02  0.73631E+04
 0.12899999E+02  0.67775E+04
 0.12949999E+02  0.61136E+04
 0.12999999E+02  0.57103E+04
 0.13049999E+02  0.52571E+04
 0.13099999E+02  0.46957E+04
 0.13149999E+02  0.44068E+04
 0.13199999E+02  0.41635E+04
 0.13249999E+02  0.39467E+04
 0.13299999E+02  0.32283E+04
 0.13349999E+02  0.25956E+04
 0.13399999E+02  0.21702E+04
 0.13449999E+02  0.25188E+04
 0.13499999E+02  0.31918E+04
 0.13549999E+02  0.37869E+04
 0.13599999E+02  0.44009E+04
 0.13649999E+02  0.46678E+04
 0.13699999E+02  0.50025E+04
 0.13749999E+02  0.51670E+04
 0.13799999E+02  0.55901E+04
 0.13849999E+02  0.59091E+04
 0.13899999E+02  0.65180E+04
 0.13949999E+02  0.76432E+04
 0.13999999E+02  0.89790E+04
 0.14049999E+02  0.10398E+05
 0.14099998E+02  0.11461E+05
 0.14150000E+02  0.12299E+05
 0.14199999E+02  0.13081E+05
 0.14249998E+02  0.14207E+05
 0.14299999E+02  0.15168E+05
 0.14349998E+02  0.16192E+05
 0.14400000E+02  0.17473E+05
 0.14449999E+02  0.19048E+05
 0.14499998E+02  0.20752E+05
 0.14549999E+02  0.22251E+05
 0.14599998E+02  0.23358E+05
 0.14650000E+02  0.24156E+05
 0.14699999E+02  0.24377E+05
 0.14749998E+02  0.23920E+05
 0.14799999E+02  0.23489E+05
 0.14849998E+02  0.22420E+05
 0.14900000E+02  0.20796E+05
 0.14949999E+02  0.18795E+05
 0.14999998E+02  0.16396E+05
 0.15049999E+02  0.13551E+05
 0.15099998E+02  0.10360E+05
 0.15150000E+02  0.68342E+04
 0.15199999E+02  0.28287E+04
 0.15249998E+02 -0.88709E+03
 0.15299999E+02 -0.45315E+04
 0.15349998E+02 -0.81776E+04
 0.15400000E+02 -0.11907E+05
 0.15449999E+02 -0.16020E+05
 0.15499998E+02 -0.20230E+05
 0.15549999E+02 -0.24415E+05
 0.15599998E+02 -0.28732E+05
 0.15650000E+02 -0.33200E+05
 0.15699999E+02 -0.37660E+05
 0.15749998E+02 -0.42099E+05
 0.15799999E+02 -0.46047E+05
 0.15849998E+02 -0.49427E+05
 0.15900000E+02 -0.52510E+05
 0.15949999E+02 -0.54822E+05
 0.15999998E+02 -0.56283E+05
 0.16049999E+02 -0.57026E+05
 0.16099998E+02 -0.56736E+05
 0.16150000E+02 -0.55815E+05
 0.16199999E+02 -0.54447E+05
 0.16249998E+02 -0.52690E+05
 0.16299999E+02 -0.50785E+05
 0.16349998E+02 -0.48642E+05
 0.16400000E+02 -0.46107E+05
 0.16449999E+02 -0.43152E+05
 0.16499998E+02 -0.39979E+05
 0.16549999E+02 -0.36651E+05
 0.16599998E+02 -0.33378E+05
 0.16650000E+02 -0.29922E+05
 0.16699999E+02 -0.25950E+05
 0.16749998E+02 -0.21624E+05
 0.16799999E+02 -0.16822E+05
 0.16849998E+02 -0.11581E+05
 0.16900000E+02 -0.61560E+04
 0.16949999E+02 -0.10775E+04
 0.16999998E+02  0.38825E+04
 0.17049999E+02  0.84086E+04
 0.17099998E+02  0.12249E+05
 0.17150000E+02  0.15721E+05
 0.17199999E+02  0.18554E+05
 0.17249998E+02  0.21128E+05
 0.17299999E+02  0.23446E+05
 0.17349998E+02  0.25867E+05
 0.17400000E+02  0.28350E+05
 0.17449999E+02  0.30872E+05
 0.17499998E+02  0.33025E+05
 0.17549999E+02  0.34896E+05
 0.17599998E+02  0.36719E+05
 0.17650000E+02  0.38276E+05
 0.17699999E+02  0.39821E+05
 0.17749998E+02  0.41410E+05
 0.17799999E+02  0.43170E+05
 0.17849998E+02  0.44579E+05
 0.17900000E+02  0.45667E+05
 0.17949999E+02  0.46256E+05
 0.17999998E+02  0.46498E+05
 0.18049999E+02  0.46560E+05
 0.18099998E+02  0.46610E+05
 0.18150000E+02  0.46597E+05
 0.18199999E+02  0.46369E+05
 0.18249998E+02  0.46092E+05
 0.18299999E+02  0.45203E+05
 0.18349998E+02  0.43526E+05
 0.18400000E+02  0.41345E+05
 0.18449999E+02  0.38696E+05
 0.18499998E+02  0.35314E+05
 0.18549999E+02  0.31312E+05
 0.18599998E+02  0.27162E+05
 0.18650000E+02  0.22958E+05
 0.18699999E+02  0.18813E+05
 0.18749998E+02  0.15393E+05
 0.18799999E+02  0.12543E+05
 0.18849998E+02  0.99224E+04
 0.18900000E+02  0.77098E+04
 0.18949999E+02  0.54966E+04
 0.18999998E+02  0.32418E+04
 0.19049999E+02  0.87069E+03
 0.19099998E+02 -0.15790E+04
 0.19150000E+02 -0.40271E+04
 0.19199999E+02 -0.67866E+04
 0.19249998E+02 -0.99877E+04
 0.19299999E+02 -0.13613E+05
 0.19349998E+02 -0.16990E+05
 0.19400000E+02 -0.20496E+05
 0.19449999E+02 -0.24055E+05
 0.19499998E+02 -0.27150E+05
 0.19549999E+02 -0.30178E+05
 0.19599998E+02 -0.32573E+05
 0.19650000E+02 -0.34341E+05
 0.19699999E+02 -0.35507E+05
 0.19749998E+02 -0.35776E+05
 0.19799999E+02 -0.35248E+05
 0.19849998E+02 -0.33989E+05
 0.19900000E+02 -0.31978E+05
 0.19949999E+02 -0.29724E+05
 0.19999998E+02 -0.27384E+05
 0.20049999E+02 -0.24929E+05
 0.20099998E+02 -0.22658E+05
 0.20150000E+02 -0.20502E+05
 0.20199999E+02 -0.18573E+05
 0.20249998E+02 -0.16828E+05
 0.20299999E+02 -0.15409E+05
 0.20349998E+02 -0.14127E+05
 0.20399998E+02 -0.12926E+05
 0.20449999E+02 -0.12174E+05
 0.20499998E+02 -0.11600E+05
 0.20549999E+02 -0.11197E+05
 0.20599998E+02 -0.11036E+05
 0.20649998E+02 -0.10380E+05
 0.20699999E+02 -0.93557E+04
 0.20749998E+02 -0.83414E+04
 0.20799999E+02 -0.70096E+04
 0.20849998E+02 -0.57152E+04
 0.20899998E+02 -0.43980E+04
 0.20949999E+02 -0.32596E+04
 0.20999998E+02 -0.24586E+04
 0.21049999E+02 -0.16598E+04
 0.21099998E+02 -0.10373E+04
 0.21149998E+02 -0.52025E+03
 0.21199999E+02 -0.34969E+03
 0.21249998E+02 -0.48318E+02
 0.21299999E+02  0.40217E+03
 0.21349998E+02  0.11071E+04
 0.21399998E+02  0.21077E+04
 0.21449999E+02  0.30853E+04
 0.21499998E+02  0.42902E+04
 0.21549999E+02  0.57649E+04
 0.21599998E+02  0.75153E+04
 0.21649998E+02  0.95344E+04
 0.21699999E+02  0.11593E+05
 0.21749998E+02  0.13238E+05
 0.21799999E+02  0.14523E+05
 0.21849998E+02  0.15721E+05
 0.21899998E+02  0.16716E+05
 0.21949999E+02  0.17675E+05
 0.21999998E+02  0.18964E+05
 0.22049999E+02  0.21057E+05
 0.22099998E+02  0.23598E+05
 0.22149998E+02  0.25472E+05
 0.22199999E+02  0.26636E+05
 0.22249998E+02  0.28516E+05
 0.22299999E+02  0.31441E+05
 0.22349998E+02  0.35553E+05
 0.22399998E+02  0.42312E+05
 0.22449999E+02  0.53517E+05
 0.22499998E+02  0.65679E+05
 0.22549999E+02  0.64904E+05
 0.22599998E+02  0.40291E+05
 0.22649998E+02  0.50867E+04
 0.22699999E+02 -0.33315E+04
 0.22749998E+02  0.30201E+05
 0.22799999E+02  0.83901E+05
 0.22849998E+02  0.12080E+06
 0.22899998E+02  0.13843E+06
 0.22949999E+02  0.16331E+06
 0.22999998E+02  0.19075E+06
 0.23049999E+02  0.19346E+06
 0.23099998E+02  0.17290E+06
 0.23149998E+02  0.17816E+06
 0.23199999E+02  0.23505E+06
 0.23249998E+02  0.21123E+06
 0.23299999E+02  0.58555E+05
 0.23349998E+02 -0.78210E+05
 0.23399998E+02 -0.74417E+05
 0.23449999E+02  0.93550E+05
 0.23499998E+02  0.19641E+06
 0.23549999E+02  0.19412E+06
 0.23599998E+02  0.22587E+06
 0.23649998E+02  0.25940E+06
 0.23699999E+02  0.21480E+06
 0.23749998E+02  0.16225E+06
 0.23799999E+02  0.19183E+06
 0.23849998E+02  0.15615E+06
 0.23899998E+02  0.54704E+05
 0.23949999E+02 -0.70906E+05
 0.23999998E+02 -0.13381E+06
 0.24049999E+02 -0.12410E+06
 0.24099998E+02 -0.88513E+05
 0.24149998E+02  0.10931E+04
 0.24199999E+02  0.67157E+05
 0.24249998E+02  0.17599E+05
 0.24299999E+02 -0.10437E+06
 0.24349998E+02 -0.14086E+06
 0.24399998E+02 -0.96847E+05
 0.24449999E+02 -0.86651E+05
 0.24499998E+02 -0.12460E+06
 0.24549999E+02 -0.12343E+06
 0.24599998E+02 -0.10789E+06
 0.24649998E+02 -0.10476E+06
 0.24699999E+02 -0.73041E+05
 0.24749998E+02  0.41387E+05
 0.24799999E+02  0.41629E+05
 0.24849998E+02 -0.94156E+05
 0.24899998E+02 -0.12125E+06
 0.24949999E+02 -0.88551E+05
 0.24999998E+02 -0.19414E+05
 0.25049999E+02  0.62075E+05
 0.25099998E+02  0.96942E+05
 0.25149998E+02  0.94989E+05
 0.25199999E+02  0.33579E+05
 0.25249998E+02  0.26167E+05
 0.25299999E+02 -0.98874E+05
 0.25349998E+02 -0.26837E+06
 0.25399998E+02 -0.88086E+05
 0.25449999E+02  0.17537E+06
 0.25499998E+02  0.17990E+06
 0.25549999E+02  0.10429E+06
 0.25599998E+02  0.10490E+06
 0.25649998E+02  0.15738E+06
 0.25699999E+02  0.29451E+06
 0.25749998E+02  0.36531E+06
 0.25799999E+02  0.35210E+06
 0.25849998E+02  0.33291E+06
 0.25899998E+02  0.21380E+06
 0.25949999E+02  0.61514E+05
 0.25999998E+02  0.77205E+05
 0.26049999E+02  0.70004E+05
 0.26099998E+02  0.12869E+05
 0.26149998E+02  0.41460E+05
 0.26199999E+02 -0.76777E+05
 0.26249998E+02 -0.87645E+05
 0.26299999E+02  0.17215E+05
 0.26349998E+02  0.98058E+05
 0.26399998E+02  0.27942E+06
 0.26449999E+02  0.38339E+06
 0.26499998E+02  0.35787E+06
 0.26549999E+02  0.34177E+06
 0.26599998E+02  0.34832E+06
 0.26649998E+02  0.21333E+06
 0.26699999E+02  0.14920E+06
 0.26749998E+02  0.10149E+06
 0.26799999E+02  0.88866E+04
 0.26849998E+02 -0.40270E+05
 0.26899998E+02 -0.13241E+06
 0.26949999E+02 -0.12145E+06
 0.26999998E+02 -0.11257E+06
 0.27049997E+02 -0.80990E+05
 0.27099998E+02 -0.61971E+04
 0.27149998E+02 -0.66194E+04
 0.27199999E+02  0.10122E+06
 0.27249998E+02  0.13018E+06
 0.27299997E+02 -0.14897E+06
 0.27349998E+02 -0.24646E+06
 0.27399998E+02 -0.75874E+05
 0.27449999E+02 -0.31255E+05
 0.27499998E+02 -0.18780E+06
 0.27549997E+02 -0.32622E+06
 0.27599998E+02 -0.19565E+06
 0.27649998E+02  0.54244E+05
 0.27699999E+02  0.14691E+06
 0.27749998E+02  0.13770E+06
 0.27799997E+02  0.11849E+06
 0.27849998E+02  0.64727E+05
 0.27899998E+02 -0.22272E+05
 0.27949999E+02 -0.32976E+05
 0.27999998E+02  0.82213E+05
 0.28049997E+02  0.86197E+05
 0.28099998E+02  0.34798E+05
 0.28149998E+02  0.12062E+06
 0.28199999E+02  0.13290E+06
 0.28249998E+02  0.40546E+05
 0.28299997E+02  0.66464E+05
 0.28349998E+02  0.12886E+06
 0.28399998E+02  0.17099E+06
 0.28449999E+02  0.31683E+06
 0.28499998E+02  0.38168E+06
 0.28549997E+02  0.28119E+06
 0.28599998E+02  0.18378E+06
 0.28649998E+02  0.17212E+06
 0.28699999E+02  0.20947E+06
 0.28749998E+02  0.17837E+06
 0.28799997E+02  0.22895E+06
 0.28849998E+02  0.21361E+06
 0.28899998E+02  0.37092E+05
 0.28949999E+02 -0.83824E+05
 0.28999998E+02 -0.75120E+05
 0.29049997E+02  0.38090E+05
 0.29099998E+02 -0.49346E+05
 0.29149998E+02 -0.14004E+06
 0.29199999E+02  0.14197E+05
 0.29249998E+02  0.35890E+05
 0.29299997E+02 -0.72915E+05
 0.29349998E+02 -0.67989E+05
 0.29399998E+02 -0.32742E+05
 0.29449999E+02  0.52487E+05
 0.29499998E+02  0.12650E+06
 0.29549997E+02  0.11816E+06
 0.29599998E+02  0.16795E+06
 0.29649998E+02  0.20921E+06
 0.29699999E+02  0.14801E+06
 0.29749998E+02 -0.85714E+04
 0.29799997E+02 -0.10269E+06
 0.29849998E+02  0.15203E+05
 0.29899998E+02  0.12711E+06
 0.29949999E+02  0.81769E+05
 0.29999998E+02 -0.69071E+05
 0.30049999E+02 -0.14177E+06
 0.30099998E+02 -0.91366E+05
 0.30149998E+02  0.13857E+05
 0.30199997E+02  0.14938E+06
 0.30249996E+02  0.16295E+06
 0.30299999E+02  0.10342E+06
 0.30349998E+02  0.11815E+06
 0.30399998E+02  0.21382E+06
 0.30449997E+02  0.22794E+06
 0.30499996E+02  0.15675E+06
 0.30549999E+02 -0.10577E+06
 0.30599998E+02 -0.45859E+06
 0.30649998E+02 -0.55464E+06
 0.30699997E+02 -0.49473E+06
 0.30749996E+02 -0.38766E+06
 0.30799999E+02 -0.36652E+06
 0.30849998E+02 -0.40694E+06
 0.30899998E+02 -0.48420E+06
 0.30949997E+02 -0.56741E+06
 0.30999996E+02 -0.59650E+06
 0.31049999E+02 -0.63242E+06
 0.31099998E+02 -0.61247E+06
 0.31149998E+02 -0.59496E+06
 0.31199997E+02 -0.49877E+06
 0.31249996E+02 -0.27966E+06
 0.31299999E+02 -0.14350E+06
 0.31349998E+02 -0.13951E+06
 0.31399998E+02 -0.18134E+06
 0.31449997E+02 -0.23295E+06
 0.31499996E+02 -0.24128E+06
 0.31549999E+02 -0.27504E+06
 0.31599998E+02 -0.46071E+06
 0.31649998E+02 -0.58014E+06
 0.31699997E+02 -0.60349E+06
 0.31749996E+02 -0.64706E+06
 0.31799999E+02 -0.55577E+06
 0.31849998E+02 -0.38642E+06
 0.31899998E+02 -0.21482E+06
 0.31949997E+02 -0.27386E+05
 0.31999996E+02  0.36471E+05
 0.32049999E+02 -0.34913E+05
 0.32099998E+02 -0.16020E+03
 0.32149998E+02  0.12491E+06
 0.32199997E+02  0.14850E+06
 0.32249996E+02  0.23490E+06
 0.32299999E+02  0.33318E+06
 0.32349998E+02  0.29355E+06
 0.32399998E+02  0.14248E+06
 0.32449997E+02 -0.12577E+06
 0.32499996E+02 -0.35434E+06
 0.32549999E+02 -0.46196E+06
 0.32599998E+02 -0.45550E+06
 0.32649998E+02 -0.41526E+06
 0.32699997E+02 -0.45923E+06
 0.32749996E+02 -0.48541E+06
 0.32799999E+02 -0.38680E+06
 0.32849998E+02 -0.22884E+06
 0.32899998E+02 -0.20486E+06
 0.32949997E+02 -0.27452E+06
 0.32999996E+02 -0.18374E+06
 0.33049999E+02 -0.83942E+05
 0.33099998E+02 -0.17710E+06
 0.33149998E+02 -0.34509E+06
 0.33199997E+02 -0.41089E+06
 0.33249996E+02 -0.43221E+06
 0.33299999E+02 -0.46081E+06
 0.33349998E+02 -0.46389E+06
 0.33399998E+02 -0.50301E+06
 0.33449997E+02 -0.49500E+06
 0.33499996E+02 -0.42956E+06
 0.33549999E+02 -0.41848E+06
 0.33599998E+02 -0.41204E+06
 0.33649998E+02 -0.41276E+06
 0.33699997E+02 -0.35863E+06
 0.33749996E+02 -0.27496E+06
 0.33799999E+02 -0.29707E+06
 0.33849998E+02 -0.28413E+06
 0.33899998E+02 -0.20198E+06
 0.33949997E+02 -0.13469E+06
 0.33999996E+02 -0.12119E+06
 0.34049999E+02 -0.11433E+06
 0.34099998E+02 -0.11229E+06
 0.34149998E+02 -0.11738E+06
 0.34199997E+02 -0.21741E+05
 0.34249996E+02  0.11449E+06
 0.34299999E+02  0.14800E+06
 0.34349998E+02  0.11159E+06
 0.34399998E+02  0.13376E+06
 0.34449997E+02  0.26751E+06
 0.34499996E+02  0.42728E+06
 0.34549999E+02  0.47048E+06
 0.34599998E+02  0.39700E+06
 0.34649998E+02  0.29503E+06
 0.34699997E+02  0.18987E+06
 0.34749996E+02  0.21608E+06
 0.34799999E+02  0.35835E+06
 0.34849998E+02  0.50129E+06
 0.34899998E+02  0.71815E+06
 0.34949997E+02  0.89452E+06
 0.34999996E+02  0.86678E+06
 0.35049999E+02  0.70215E+06
 0.35099998E+02  0.57859E+06
 0.35149998E+02  0.45324E+06
 0.35199997E+02  0.28870E+06
 0.35249996E+02  0.23870E+06
 0.35299999E+02  0.27053E+06
 0.35349998E+02  0.31382E+06
 0.35399998E+02  0.34234E+06
 0.35449997E+02  0.32748E+06
 0.35499996E+02  0.26624E+06
 0.35549999E+02  0.17279E+06
 0.35599998E+02  0.12802E+06
 0.35649998E+02  0.12992E+06
 0.35699997E+02  0.89229E+05
 0.35749996E+02  0.69005E+05
 0.35799999E+02  0.15654E+06
 0.35849998E+02  0.24061E+06
 0.35899998E+02  0.27361E+06
 0.35949997E+02  0.31662E+06
 0.35999996E+02  0.32096E+06
 0.36049999E+02  0.29464E+06
 0.36099998E+02  0.25354E+06
 0.36149998E+02  0.18020E+06
 0.36199997E+02  0.14871E+06
 0.36249996E+02  0.18099E+06
 0.36299999E+02  0.17826E+06
 0.36349998E+02  0.15642E+06
 0.36399998E+02  0.19940E+06
 0.36449997E+02  0.21951E+06
 0.36499996E+02  0.15821E+06
 0.36549999E+02  0.38905E+05
 0.36599998E+02 -0.59378E+05
 0.36649998E+02 -0.99719E+05
 0.36699997E+02 -0.71460E+05
 0.36749996E+02 -0.37534E+04
 0.36799999E+02  0.10744E+06
 0.36849998E+02  0.31440E+06
 0.36899998E+02  0.48522E+06
 0.36949997E+02  0.60643E+06
 0.36999996E+02  0.69303E+06
 0.37049999E+02  0.70999E+06
 0.37099998E+02  0.69839E+06
 0.37149998E+02  0.72421E+06
 0.37199997E+02  0.79353E+06
 0.37249996E+02  0.83396E+06
 0.37299999E+02  0.78671E+06
 0.37349998E+02  0.58453E+06
 0.37399998E+02  0.23975E+06
 0.37449997E+02 -0.25480E+06
 0.37499996E+02 -0.77764E+06
 0.37549999E+02 -0.10791E+07
 0.37599998E+02 -0.11071E+07
 0.37649998E+02 -0.95109E+06
 0.37699997E+02 -0.68764E+06
 0.37749996E+02 -0.39871E+06
 0.37799999E+02 -0.84931E+05
 0.37849998E+02  0.18684E+06
 0.37899998E+02  0.26365E+06
 0.37949997E+02  0.17576E+06
 0.37999996E+02  0.17634E+05
 0.38049999E+02 -0.22473E+06
 0.38099998E+02 -0.49345E+06
 0.38149998E+02 -0.75700E+06
 0.38199997E+02 -0.11213E+07
 0.38249996E+02 -0.15502E+07
 0.38299999E+02 -0.20637E+07
 0.38349998E+02 -0.25840E+07
 0.38399998E+02 -0.29394E+07
 0.38449997E+02 -0.30564E+07
 0.38499996E+02 -0.27709E+07
 0.38549999E+02 -0.21544E+07
 0.38599998E+02 -0.14931E+07
 0.38649998E+02 -0.10146E+07
 0.38699997E+02 -0.80682E+06
 0.38749996E+02 -0.81884E+06
 0.38799999E+02 -0.10051E+07
 0.38849998E+02 -0.12611E+07
 0.38899998E+02 -0.14893E+07
 0.38949997E+02 -0.16364E+07
 0.38999996E+02 -0.16282E+07
 0.39049999E+02 -0.14478E+07
 0.39099998E+02 -0.13378E+07
 0.39149998E+02 -0.12337E+07
 0.39199997E+02 -0.75081E+06
 0.39249996E+02  0.18457E+06
 0.39299999E+02  0.12851E+07
 0.39349998E+02  0.23876E+07
 0.39399998E+02  0.35389E+07
 0.39449997E+02  0.43050E+07
 0.39499996E+02  0.42844E+07
 0.39549999E+02  0.37486E+07
 0.39599998E+02  0.30225E+07
 0.39649998E+02  0.19616E+07
 0.39699997E+02  0.79249E+06
 0.39749996E+02 -0.26919E+05
 0.39799999E+02 -0.36272E+06
 0.39849998E+02 -0.28972E+06
 0.39899998E+02  0.79791E+05
 0.39949997E+02  0.51343E+06
 0.39999996E+02  0.75967E+06
 0.40049999E+02  0.91853E+06
 0.40099998E+02  0.99018E+06
 0.40149998E+02  0.89893E+06
 0.40199997E+02  0.10497E+07
 0.40249996E+02  0.17527E+07
 0.40299999E+02  0.24303E+07
 0.40349998E+02  0.24988E+07
 0.40399998E+02  0.22310E+07
 0.40449997E+02  0.19296E+07
 0.40499996E+02  0.12189E+07
 0.40549999E+02  0.20087E+06
 0.40599998E+02 -0.55860E+06
 0.40649998E+02 -0.10030E+07
 0.40699997E+02 -0.12745E+07
 0.40749996E+02 -0.13721E+07
 0.40799999E+02 -0.14567E+07
 0.40849998E+02 -0.14965E+07
 0.40899998E+02 -0.14980E+07
 0.40949997E+02 -0.15528E+07
 0.40999996E+02 -0.15356E+07
 0.41049999E+02 -0.12975E+07
 0.41099998E+02 -0.78455E+06
 0.41149998E+02 -0.26473E+06
 0.41199997E+02  0.11517E+05
 0.41249996E+02  0.40105E+05
 0.41299999E+02  0.70509E+05
 0.41349998E+02 -0.11385E+06
 0.41399998E+02 -0.66792E+06
 0.41449997E+02 -0.12029E+07
 0.41499996E+02 -0.13890E+07
 0.41549999E+02 -0.15188E+07
 0.41599998E+02 -0.16680E+07
 0.41649998E+02 -0.17833E+07
 0.41699997E+02 -0.19128E+07
 0.41749996E+02 -0.19627E+07
 0.41799999E+02 -0.18899E+07
 0.41849998E+02 -0.15225E+07
 0.41899998E+02 -0.11184E+07
 0.41949997E+02 -0.61863E+06
 0.41999996E+02 -0.67198E+05
 0.42049999E+02  0.36576E+06
 0.42099998E+02  0.54627E+06
 0.42149998E+02  0.37776E+06
 0.42199997E+02  0.54662E+05
 0.42249996E+02 -0.24204E+06
 0.42299999E+02 -0.50030E+06
 0.42349998E+02 -0.65655E+06
 0.42399998E+02 -0.63279E+06
 0.42449997E+02 -0.56850E+06
 0.42499996E+02 -0.30092E+06
 0.42549999E+02  0.11282E+06
 0.42599998E+02  0.61484E+06
 0.42649998E+02  0.94783E+06
 0.42699997E+02  0.95422E+06
 0.42749996E+02  0.95510E+06
 0.42799995E+02  0.12249E+07
 0.42849998E+02  0.17044E+07
 0.42899998E+02  0.20926E+07
 0.42949997E+02  0.23759E+07
 0.42999996E+02  0.24293E+07
 0.43049995E+02  0.22637E+07
 0.43099998E+02  0.19797E+07
 0.43149998E+02  0.17112E+07
 0.43199997E+02  0.14910E+07
 0.43249996E+02  0.13394E+07
 0.43299995E+02  0.11053E+07
 0.43349998E+02  0.69600E+06
 0.43399998E+02  0.31952E+06
 0.43449997E+02 -0.65597E+05
 0.43499996E+02 -0.25384E+06
 0.43549995E+02 -0.18716E+06
 0.43599998E+02 -0.75995E+05
 0.43649998E+02  0.21454E+05
 0.43699997E+02  0.11227E+06
 0.43749996E+02  0.13662E+06
 0.43799995E+02 -0.18462E+05
 0.43849998E+02 -0.35475E+06
 0.43899998E+02 -0.71616E+06
 0.43949997E+02 -0.11524E+07
 0.43999996E+02 -0.16996E+07
 0.44049995E+02 -0.21692E+07
 0.44099998E+02 -0.25551E+07
 0.44149998E+02 -0.27983E+07
 0.44199997E+02 -0.28983E+07
 0.44249996E+02 -0.28072E+07
 0.44299995E+02 -0.24910E+07
 0.44349998E+02 -0.21954E+07
 0.44399998E+02 -0.19400E+07
 0.44449997E+02 -0.15661E+07
 0.44499996E+02 -0.10414E+07
 0.44549995E+02 -0.49176E+06
 0.44599998E+02 -0.38105E+05
 0.44649998E+02  0.20112E+06
 0.44699997E+02  0.28220E+06
 0.44749996E+02  0.28266E+06
 0.44799995E+02  0.44839E+05
 0.44849998E+02 -0.41324E+06
 0.44899998E+02 -0.83798E+06
 0.44949997E+02 -0.99375E+06
 0.44999996E+02 -0.90313E+06
 0.45049995E+02 -0.69101E+06
 0.45099998E+02 -0.42174E+06
 0.45149998E+02 -0.10131E+06
 0.45199997E+02  0.25480E+06
 0.45249996E+02  0.53896E+06
 0.45299995E+02  0.67551E+06
 0.45349998E+02  0.74561E+06
 0.45399998E+02  0.78147E+06
 0.45449997E+02  0.79284E+06
 0.45499996E+02  0.83756E+06
 0.45549995E+02  0.80919E+06
 0.45599998E+02  0.62685E+06
 0.45649998E+02  0.30083E+06
 0.45699997E+02 -0.11607E+06
 0.45749996E+02 -0.46706E+06
 0.45799995E+02 -0.66262E+06
 0.45849998E+02 -0.65555E+06
 0.45899998E+02 -0.49132E+06
 0.45949997E+02 -0.26186E+06
 0.45999996E+02 -0.35496E+05
 0.46049995E+02  0.11200E+06
 0.46099998E+02  0.28606E+06
 0.46149998E+02  0.57015E+06
 0.46199997E+02  0.87516E+06
 0.46249996E+02  0.11756E+07
 0.46299995E+02  0.15293E+07
 0.46349998E+02  0.17898E+07
 0.46399998E+02  0.18108E+07
 0.46449997E+02  0.16792E+07
 0.46499996E+02  0.14603E+07
 0.46549995E+02  0.11752E+07
 0.46599998E+02  0.10104E+07
 0.46649998E+02  0.96020E+06
 0.46699997E+02  0.92854E+06
 0.46749996E+02  0.92447E+06
 0.46799995E+02  0.87571E+06
 0.46849998E+02  0.74554E+06
 0.46899998E+02  0.57916E+06
 0.46949997E+02  0.54448E+06
 0.46999996E+02  0.59899E+06
 0.47049995E+02  0.65770E+06
 0.47099998E+02  0.64370E+06
 0.47149998E+02  0.44060E+06
 0.47199997E+02  0.17676E+06
 0.47249996E+02 -0.68263E+05
 0.47299995E+02 -0.25858E+06
 0.47349998E+02 -0.36399E+06
 0.47399998E+02 -0.42090E+06
 0.47449997E+02 -0.40240E+06
 0.47499996E+02 -0.26934E+06
 0.47549995E+02 -0.40512E+05
 0.47599998E+02  0.24169E+06
 0.47649998E+02  0.43517E+06
 0.47699997E+02  0.40303E+06
 0.47749996E+02  0.23928E+06
 0.47799995E+02  0.15102E+06
 0.47849998E+02  0.20379E+06
 0.47899998E+02  0.30164E+06
 0.47949997E+02  0.38289E+06
 0.47999996E+02  0.39426E+06
 0.48049995E+02  0.24101E+06
 0.48099998E+02 -0.79238E+05
 0.48149998E+02 -0.39901E+06
 0.48199997E+02 -0.54919E+06
 0.48249996E+02 -0.52447E+06
 0.48299995E+02 -0.39399E+06
 0.48349998E+02 -0.18518E+06
 0.48399998E+02 -0.23108E+05
 0.48449997E+02  0.44621E+05
 0.48499996E+02  0.99193E+05
 0.48549995E+02  0.13348E+06
 0.48599998E+02  0.96405E+05
 0.48649998E+02  0.19653E+05
 0.48699997E+02  0.47930E+05
 0.48749996E+02  0.66296E+05
 0.48799995E+02 -0.24218E+05
 0.48849998E+02 -0.13467E+06
 0.48899998E+02 -0.20774E+06
 0.48949997E+02 -0.29148E+06
 0.48999996E+02 -0.40368E+06
 0.49049995E+02 -0.47456E+06
 0.49099998E+02 -0.58266E+06
 0.49149998E+02 -0.68477E+06
 0.49199997E+02 -0.69334E+06
 0.49249996E+02 -0.59598E+06
 0.49299995E+02 -0.43036E+06
 0.49349998E+02 -0.27166E+06
 0.49399998E+02 -0.16903E+06
 0.49449997E+02 -0.34093E+05
 0.49499996E+02  0.11003E+06
 0.49549995E+02  0.16946E+06
 0.49599998E+02  0.20524E+06
 0.49649998E+02  0.21699E+06
 0.49699997E+02  0.22124E+06
 0.49749996E+02  0.20245E+06
 0.49799995E+02  0.17450E+06
 0.49849998E+02  0.16993E+06
 0.49899998E+02  0.16690E+06
 0.49949997E+02  0.22857E+06
 0.49999996E+02  0.44569E+06
 0.50049995E+02  0.72788E+06
 0.50099998E+02  0.90075E+06
 0.50149998E+02  0.93226E+06
 0.50199997E+02  0.88909E+06
 0.50249996E+02  0.81039E+06
 0.50299995E+02  0.74588E+06
 0.50349998E+02  0.74472E+06
 0.50399998E+02  0.75046E+06
 0.50449997E+02  0.68999E+06
 0.50499996E+02  0.63834E+06
 0.50549995E+02  0.55890E+06
 0.50599998E+02  0.36107E+06
 0.50649998E+02  0.41685E+05
 0.50699997E+02 -0.37767E+06
 0.50749996E+02 -0.82266E+06
 0.50799995E+02 -0.12302E+07
 0.50849998E+02 -0.14716E+07
 0.50899998E+02 -0.15659E+07
 0.50949997E+02 -0.16269E+07
 0.50999996E+02 -0.16769E+07
 0.51049995E+02 -0.17184E+07
 0.51099998E+02 -0.17747E+07
 0.51149998E+02 -0.17820E+07
 0.51199997E+02 -0.17094E+07
 0.51249996E+02 -0.16153E+07
 0.51299995E+02 -0.14724E+07
 0.51349998E+02 -0.12672E+07
 0.51399998E+02 -0.10464E+07
 0.51449997E+02 -0.85371E+06
 0.51499996E+02 -0.75156E+06
 0.51549995E+02 -0.74847E+06
 0.51599998E+02 -0.75445E+06
 0.51649998E+02 -0.74351E+06
 0.51699997E+02 -0.71331E+06
 0.51749996E+02 -0.61705E+06
 0.51799995E+02 -0.48401E+06
 0.51849998E+02 -0.35456E+06
 0.51899998E+02 -0.22325E+06
 0.51949997E+02 -0.15235E+06
 0.51999996E+02 -0.14560E+06
 0.52049995E+02 -0.13331E+06
 0.52099998E+02 -0.12411E+06
 0.52149998E+02 -0.11321E+06
 0.52199997E+02 -0.54330E+05
 0.52249996E+02  0.51605E+05
 0.52299995E+02  0.16014E+06
 0.52349998E+02  0.19371E+06
 0.52399998E+02  0.10039E+06
 0.52449997E+02 -0.98778E+05
 0.52499996E+02 -0.29554E+06
 0.52549995E+02 -0.41943E+06
 0.52599998E+02 -0.46891E+06
 0.52649998E+02 -0.45524E+06
 0.52699997E+02 -0.47692E+06
 0.52749996E+02 -0.54226E+06
 0.52799995E+02 -0.57074E+06
 0.52849998E+02 -0.51701E+06
 0.52899998E+02 -0.38580E+06
 0.52949997E+02 -0.20421E+06
 0.52999996E+02 -0.72806E+05
 0.53049995E+02 -0.61345E+05
 0.53099998E+02 -0.14245E+06
 0.53149998E+02 -0.28648E+06
 0.53199997E+02 -0.44026E+06
 0.53249996E+02 -0.55525E+06
 0.53299995E+02 -0.67347E+06
 0.53349998E+02 -0.82406E+06
 0.53399998E+02 -0.91861E+06
 0.53449997E+02 -0.96272E+06
 0.53499996E+02 -0.92310E+06
 0.53549995E+02 -0.79620E+06
 0.53599998E+02 -0.70069E+06
 0.53649998E+02 -0.66696E+06
 0.53699997E+02 -0.60017E+06
 0.53749996E+02 -0.47635E+06
 0.53799995E+02 -0.32360E+06
 0.53849998E+02 -0.17732E+06
 0.53899998E+02 -0.80619E+05
 0.53949997E+02 -0.93107E+04
 0.53999996E+02  0.63661E+05
 0.54049995E+02  0.21027E+06
 0.54099998E+02  0.40626E+06
 0.54149998E+02  0.55716E+06
 0.54199997E+02  0.57252E+06
 0.54249996E+02  0.52716E+06
 0.54299995E+02  0.53371E+06
 0.54349998E+02  0.59883E+06
 0.54399998E+02  0.69638E+06
 0.54449997E+02  0.71705E+06
 0.54499996E+02  0.59428E+06
 0.54549995E+02  0.40292E+06
 0.54599998E+02  0.31179E+06
 0.54649998E+02  0.37105E+06
 0.54699997E+02  0.46284E+06
 0.54749996E+02  0.45236E+06
 0.54799995E+02  0.34705E+06
 0.54849998E+02  0.18704E+06
 0.54899998E+02  0.53223E+05
 0.54949997E+02 -0.27482E+05
 0.54999996E+02 -0.12372E+06
 0.55049995E+02 -0.24319E+06
 0.55099998E+02 -0.34533E+06
 0.55149998E+02 -0.40346E+06
 0.55199997E+02 -0.45752E+06
 0.55249996E+02 -0.53695E+06
 0.55299995E+02 -0.65840E+06
 0.55349998E+02 -0.77363E+06
 0.55399998E+02 -0.85515E+06
 0.55449997E+02 -0.94648E+06
 0.55499996E+02 -0.10358E+07
 0.55549995E+02 -0.10794E+07
 0.55599998E+02 -0.10795E+07
 0.55649998E+02 -0.10352E+07
 0.55699997E+02 -0.96491E+06
 0.55749996E+02 -0.90796E+06
 0.55799995E+02 -0.87043E+06
 0.55849995E+02 -0.84085E+06
 0.55899998E+02 -0.81158E+06
 0.55949997E+02 -0.76096E+06
 0.55999996E+02 -0.64531E+06
 0.56049995E+02 -0.54734E+06
 0.56099995E+02 -0.50434E+06
 0.56149998E+02 -0.49356E+06
 0.56199997E+02 -0.50389E+06
 0.56249996E+02 -0.46459E+06
 0.56299995E+02 -0.41144E+06
 0.56349995E+02 -0.39650E+06
 0.56399998E+02 -0.38245E+06
 0.56449997E+02 -0.35211E+06
 0.56499996E+02 -0.29622E+06
 0.56549995E+02 -0.16232E+06
 0.56599995E+02  0.33578E+05
 0.56649998E+02  0.24906E+06
 0.56699997E+02  0.42431E+06
 0.56749996E+02  0.51485E+06
 0.56799995E+02  0.57779E+06
 0.56849995E+02  0.61982E+06
 0.56899998E+02  0.62938E+06
 0.56949997E+02  0.63713E+06
 0.56999996E+02  0.59595E+06
 0.57049995E+02  0.48132E+06
 0.57099995E+02  0.34337E+06
 0.57149998E+02  0.20375E+06
 0.57199997E+02  0.84350E+05
 0.57249996E+02 -0.15330E+05
 0.57299995E+02 -0.11512E+06
 0.57349995E+02 -0.18553E+06
 0.57399998E+02 -0.18367E+06
 0.57449997E+02 -0.11866E+06
 0.57499996E+02 -0.29469E+05
 0.57549995E+02  0.91859E+04
 0.57599995E+02 -0.34699E+05
 0.57649998E+02 -0.11573E+06
 0.57699997E+02 -0.17995E+06
 0.57749996E+02 -0.18343E+06
 0.57799995E+02 -0.13295E+06
 0.57849995E+02 -0.89257E+05
 0.57899998E+02 -0.10102E+06
 0.57949997E+02 -0.14104E+06
 0.57999996E+02 -0.16616E+06
 0.58049995E+02 -0.16449E+06
 0.58099995E+02 -0.12363E+06
 0.58149998E+02 -0.68597E+05
 0.58199997E+02 -0.46871E+05
 0.58249996E+02 -0.45500E+05
 0.58299995E+02 -0.21300E+05
 0.58349995E+02  0.69445E+04
 0.58399998E+02  0.11772E+05
 0.58449997E+02 -0.24693E+05
 0.58499996E+02 -0.86674E+05
 0.58549995E+02 -0.14473E+06
 0.58599995E+02 -0.16095E+06
 0.58649998E+02 -0.10702E+06
 0.58699997E+02 -0.58208E+05
 0.58749996E+02 -0.83712E+05
 0.58799995E+02 -0.17511E+06
 0.58849995E+02 -0.26113E+06
 0.58899998E+02 -0.30299E+06
 0.58949997E+02 -0.33179E+06
 0.58999996E+02 -0.37623E+06
 0.59049995E+02 -0.43294E+06
 0.59099995E+02 -0.50259E+06
 0.59149998E+02 -0.57292E+06
 0.59199997E+02 -0.64172E+06
 0.59249996E+02 -0.68935E+06
 0.59299995E+02 -0.70229E+06
 0.59349995E+02 -0.68991E+06
 0.59399998E+02 -0.65130E+06
 0.59449997E+02 -0.60481E+06
 0.59499996E+02 -0.50686E+06
 0.59549995E+02 -0.34583E+06
 0.59599995E+02 -0.18397E+06
 0.59649998E+02 -0.55727E+05
 0.59699997E+02  0.64203E+05
 0.59749996E+02  0.19430E+06
 0.59799995E+02  0.34572E+06
 0.59849995E+02  0.51074E+06
 0.59899998E+02  0.68694E+06
 0.59949997E+02  0.85705E+06
 0.59999996E+02  0.98893E+06
 0.60049995E+02  0.10668E+07
 0.60099995E+02  0.10598E+07
 0.60149998E+02  0.95975E+06
 0.60199997E+02  0.75005E+06
 0.60249996E+02  0.47163E+06
 0.60299995E+02  0.19774E+06
 0.60349995E+02 -0.74614E+04
 0.60399998E+02 -0.11229E+06
 0.60449997E+02 -0.15900E+06
 0.60499996E+02 -0.20744E+06
 0.60549995E+02 -0.23361E+06
 0.60599995E+02 -0.21375E+06
 0.60649998E+02 -0.16655E+06
 0.60699997E+02 -0.92712E+05
 0.60749996E+02 -0.22006E+05
 0.60799995E+02  0.19052E+05
 0.60849995E+02  0.21487E+05
 0.60899998E+02  0.10206E+05
 0.60949997E+02 -0.43368E+04
 0.60999996E+02 -0.84469E+04
 0.61049995E+02  0.15134E+05
 0.61099995E+02  0.40208E+05
 0.61149998E+02  0.43907E+05
 0.61199997E+02  0.24129E+05
 0.61249996E+02  0.60525E+04
 0.61299995E+02 -0.18980E+04
 0.61349995E+02 -0.19481E+05
 0.61399998E+02 -0.48918E+05
 0.61449997E+02 -0.88660E+05
 0.61499996E+02 -0.16021E+06
 0.61549995E+02 -0.27110E+06
 0.61599995E+02 -0.39801E+06
 0.61649998E+02 -0.54538E+06
 0.61699997E+02 -0.69786E+06
 0.61749996E+02 -0.83927E+06
 0.61799995E+02 -0.97198E+06
 0.61849995E+02 -0.10632E+07
 0.61899998E+02 -0.11164E+07
 0.61949997E+02 -0.11465E+07
 0.61999996E+02 -0.11498E+07
 0.62049995E+02 -0.11284E+07
 0.62099998E+02 -0.10895E+07
 0.62149994E+02 -0.10288E+07
 0.62199997E+02 -0.96346E+06
 0.62249992E+02 -0.90489E+06
 0.62299995E+02 -0.86599E+06
 0.62349998E+02 -0.84392E+06
 0.62399994E+02 -0.82974E+06
 0.62449997E+02 -0.83758E+06
 0.62499992E+02 -0.83167E+06
 0.62549995E+02 -0.78293E+06
 0.62599998E+02 -0.69909E+06
 0.62649994E+02 -0.58175E+06
 0.62699997E+02 -0.42239E+06
 0.62749992E+02 -0.27357E+06
 0.62799995E+02 -0.14962E+06
 0.62849998E+02 -0.11264E+05
 0.62899994E+02  0.14315E+06
 0.62949997E+02  0.30534E+06
 0.62999992E+02  0.47193E+06
 0.63049995E+02  0.62652E+06
 0.63099998E+02  0.75052E+06
 0.63149994E+02  0.82650E+06
 0.63199997E+02  0.82836E+06
 0.63249992E+02  0.77036E+06
 0.63299995E+02  0.68142E+06
 0.63349998E+02  0.57668E+06
 0.63399994E+02  0.49149E+06
 0.63449997E+02  0.42427E+06
 0.63499992E+02  0.33926E+06
 0.63549995E+02  0.24400E+06
 0.63599998E+02  0.16816E+06
 0.63649994E+02  0.14003E+06
 0.63699997E+02  0.14104E+06
 0.63749992E+02  0.14182E+06
 0.63799995E+02  0.13139E+06
 0.63849998E+02  0.10312E+06
 0.63899994E+02  0.62243E+05
 0.63949997E+02  0.17527E+05
 0.63999992E+02 -0.34722E+05
 0.64049995E+02 -0.12767E+06
 0.64099998E+02 -0.26167E+06
 0.64149994E+02 -0.38995E+06
 0.64199997E+02 -0.49440E+06
 0.64249992E+02 -0.58066E+06
 0.64299995E+02 -0.64822E+06
 0.64349998E+02 -0.69621E+06
 0.64399994E+02 -0.72654E+06
 0.64449997E+02 -0.75441E+06
 0.64499992E+02 -0.78553E+06
 0.64549995E+02 -0.77592E+06
 0.64599998E+02 -0.70242E+06
 0.64649994E+02 -0.59818E+06
 0.64699997E+02 -0.49111E+06
 0.64749992E+02 -0.40730E+06
 0.64799995E+02 -0.37360E+06
 0.64849998E+02 -0.40291E+06
 0.64899994E+02 -0.47287E+06
 0.64949997E+02 -0.56073E+06
 0.64999992E+02 -0.62367E+06
 0.65049995E+02 -0.62713E+06
 0.65099998E+02 -0.56723E+06
 0.65149994E+02 -0.45177E+06
 0.65199997E+02 -0.32060E+06
 0.65249992E+02 -0.20707E+06
 0.65299995E+02 -0.14269E+06
 0.65349998E+02 -0.13215E+06
 0.65399994E+02 -0.17306E+06
 0.65449997E+02 -0.23642E+06
 0.65499992E+02 -0.28271E+06
 0.65549995E+02 -0.30875E+06
 0.65599998E+02 -0.31942E+06
 0.65649994E+02 -0.33157E+06
 0.65699997E+02 -0.35505E+06
 0.65749992E+02 -0.36247E+06
 0.65799995E+02 -0.34578E+06
 0.65849998E+02 -0.32537E+06
 0.65899994E+02 -0.29138E+06
 0.65949997E+02 -0.25213E+06
 0.65999992E+02 -0.19347E+06
 0.66049995E+02 -0.11746E+06
 0.66099998E+02 -0.32048E+05
 0.66149994E+02  0.66494E+05
 0.66199997E+02  0.13116E+06
 0.66249992E+02  0.14751E+06
 0.66299995E+02  0.13417E+06
 0.66349998E+02  0.12977E+06
 0.66399994E+02  0.14606E+06
 0.66449997E+02  0.16045E+06
 0.66499992E+02  0.13206E+06
 0.66549995E+02  0.48416E+05
 0.66599998E+02 -0.55944E+05
 0.66649994E+02 -0.14215E+06
 0.66699997E+02 -0.17678E+06
 0.66749992E+02 -0.15420E+06
 0.66799995E+02 -0.10252E+06
 0.66849998E+02 -0.72702E+05
 0.66899994E+02 -0.66352E+05
 0.66949997E+02 -0.62136E+05
 0.66999992E+02 -0.67223E+05
 0.67049995E+02 -0.84773E+05
 0.67099998E+02 -0.10707E+06
 0.67149994E+02 -0.14400E+06
 0.67199997E+02 -0.21886E+06
 0.67249992E+02 -0.33789E+06
 0.67299995E+02 -0.47953E+06
 0.67349998E+02 -0.60016E+06
 0.67399994E+02 -0.68018E+06
 0.67449997E+02 -0.73277E+06
 0.67499992E+02 -0.75028E+06
 0.67549995E+02 -0.71781E+06
 0.67599998E+02 -0.65567E+06
 0.67649994E+02 -0.57372E+06
 0.67699997E+02 -0.47851E+06
 0.67749992E+02 -0.39461E+06
 0.67799995E+02 -0.32829E+06
 0.67849998E+02 -0.28432E+06
 0.67899994E+02 -0.27979E+06
 0.67949997E+02 -0.31315E+06
 0.67999992E+02 -0.36004E+06
 0.68049995E+02 -0.39940E+06
 0.68099998E+02 -0.41359E+06
 0.68149994E+02 -0.41080E+06
 0.68199997E+02 -0.39346E+06
 0.68249992E+02 -0.35798E+06
 0.68299995E+02 -0.30622E+06
 0.68349998E+02 -0.23933E+06
 0.68399994E+02 -0.17554E+06
 0.68449997E+02 -0.12959E+06
 0.68499992E+02 -0.10910E+06
 0.68549995E+02 -0.98362E+05
 0.68599998E+02 -0.78558E+05
 0.68649994E+02 -0.69339E+05
 0.68699997E+02 -0.91890E+05
 0.68749992E+02 -0.12987E+06
 0.68799995E+02 -0.16726E+06
 0.68849998E+02 -0.19067E+06
 0.68899994E+02 -0.19649E+06
 0.68949997E+02 -0.18790E+06
 0.68999992E+02 -0.16313E+06
 0.69049995E+02 -0.12189E+06
 0.69099998E+02 -0.71737E+05
 0.69149994E+02 -0.24288E+05
 0.69199997E+02  0.36227E+05
 0.69249992E+02  0.10159E+06
 0.69299995E+02  0.13095E+06
 0.69349998E+02  0.10988E+06
 0.69399994E+02  0.57415E+05
 0.69449997E+02 -0.12090E+04
 0.69499992E+02 -0.58827E+05
 0.69549995E+02 -0.11682E+06
 0.69599998E+02 -0.17657E+06
 0.69649994E+02 -0.22544E+06
 0.69699997E+02 -0.25454E+06
 0.69749992E+02 -0.27477E+06
 0.69799995E+02 -0.30410E+06
 0.69849998E+02 -0.34464E+06
 0.69899994E+02 -0.39112E+06
 0.69949997E+02 -0.43032E+06
 0.69999992E+02 -0.44590E+06
 0.70049995E+02 -0.44065E+06
 0.70099998E+02 -0.40535E+06
 0.70149994E+02 -0.33933E+06
 0.70199997E+02 -0.26367E+06
 0.70249992E+02 -0.19791E+06
 0.70299995E+02 -0.15101E+06
 0.70349998E+02 -0.14085E+06
 0.70399994E+02 -0.17879E+06
 0.70449997E+02 -0.24311E+06
 0.70499992E+02 -0.30860E+06
 0.70549995E+02 -0.37377E+06
 0.70599998E+02 -0.42771E+06
 0.70649994E+02 -0.44164E+06
 0.70699997E+02 -0.39639E+06
 0.70749992E+02 -0.28941E+06
 0.70799995E+02 -0.15274E+06
 0.70849998E+02 -0.57120E+04
 0.70899994E+02  0.14989E+06
 0.70949997E+02  0.30559E+06
 0.70999992E+02  0.44632E+06
 0.71049995E+02  0.54429E+06
 0.71099998E+02  0.58885E+06
 0.71149994E+02  0.57203E+06
 0.71199997E+02  0.51695E+06
 0.71249992E+02  0.45859E+06
 0.71299995E+02  0.40998E+06
 0.71349998E+02  0.37540E+06
 0.71399994E+02  0.33668E+06
 0.71449997E+02  0.29245E+06
 0.71499992E+02  0.23958E+06
 0.71549995E+02  0.18993E+06
 0.71599998E+02  0.16064E+06
 0.71649994E+02  0.14873E+06
 0.71699997E+02  0.15218E+06
 0.71749992E+02  0.15321E+06
 0.71799995E+02  0.12930E+06
 0.71849998E+02  0.78458E+05
 0.71899994E+02  0.13876E+05
 0.71949997E+02 -0.65935E+05
 0.71999992E+02 -0.16240E+06
 0.72049995E+02 -0.27804E+06
 0.72099998E+02 -0.40693E+06
 0.72149994E+02 -0.51881E+06
 0.72199997E+02 -0.59525E+06
 0.72249992E+02 -0.64947E+06
 0.72299995E+02 -0.69109E+06
 0.72349998E+02 -0.72088E+06
 0.72399994E+02 -0.74895E+06
 0.72449997E+02 -0.77639E+06
 0.72499992E+02 -0.79857E+06
 0.72549995E+02 -0.81314E+06
 0.72599998E+02 -0.81290E+06
 0.72649994E+02 -0.79517E+06
 0.72699997E+02 -0.77860E+06
 0.72749992E+02 -0.76385E+06
 0.72799995E+02 -0.73570E+06
 0.72849998E+02 -0.69228E+06
 0.72899994E+02 -0.63316E+06
 0.72949997E+02 -0.56869E+06
 0.72999992E+02 -0.50220E+06
 0.73049995E+02 -0.42405E+06
 0.73099998E+02 -0.34041E+06
 0.73149994E+02 -0.25442E+06
 0.73199997E+02 -0.15336E+06
 0.73249992E+02 -0.45863E+05
 0.73299995E+02  0.49698E+05
 0.73349998E+02  0.12330E+06
 0.73399994E+02  0.16785E+06
 0.73449997E+02  0.17317E+06
 0.73499992E+02  0.14522E+06
 0.73549995E+02  0.11491E+06
 0.73599998E+02  0.90654E+05
 0.73649994E+02  0.57109E+05
 0.73699997E+02  0.13610E+05
 0.73749992E+02 -0.35270E+05
 0.73799995E+02 -0.95354E+05
 0.73849998E+02 -0.17917E+06
 0.73899994E+02 -0.29136E+06
 0.73949997E+02 -0.41132E+06
 0.73999992E+02 -0.52031E+06
 0.74049995E+02 -0.60638E+06
 0.74099998E+02 -0.65702E+06
 0.74149994E+02 -0.67090E+06
 0.74199997E+02 -0.65698E+06
 0.74249992E+02 -0.62004E+06
 0.74299995E+02 -0.58082E+06
 0.74349998E+02 -0.55421E+06
 0.74399994E+02 -0.53876E+06
 0.74449997E+02 -0.53016E+06
 0.74499992E+02 -0.50791E+06
 0.74549995E+02 -0.46903E+06
 0.74599998E+02 -0.41489E+06
 0.74649994E+02 -0.35286E+06
 0.74699997E+02 -0.29392E+06
 0.74749992E+02 -0.24384E+06
 0.74799995E+02 -0.20060E+06
 0.74849998E+02 -0.14727E+06
 0.74899994E+02 -0.80102E+05
 0.74949997E+02 -0.11456E+05
 0.74999992E+02  0.46206E+05
 0.75049995E+02  0.94717E+05
 0.75099998E+02  0.16220E+06
 0.75149994E+02  0.25590E+06
 0.75199997E+02  0.35127E+06
 0.75249992E+02  0.44495E+06
 0.75299995E+02  0.53076E+06
 0.75349998E+02  0.58127E+06
 0.75399994E+02  0.57849E+06
 0.75449997E+02  0.52647E+06
 0.75499992E+02  0.44560E+06
 0.75549995E+02  0.36283E+06
 0.75599998E+02  0.29377E+06
 0.75649994E+02  0.24371E+06
 0.75699997E+02  0.20700E+06
 0.75749992E+02  0.18299E+06
 0.75799995E+02  0.17309E+06
 0.75849998E+02  0.17687E+06
 0.75899994E+02  0.18626E+06
 0.75949997E+02  0.18422E+06
 0.75999992E+02  0.17106E+06
 0.76049995E+02  0.15253E+06
 0.76099998E+02  0.14651E+06
 0.76149994E+02  0.15244E+06
 0.76199997E+02  0.14022E+06
 0.76249992E+02  0.96237E+05
 0.76299995E+02  0.24955E+05
 0.76349998E+02 -0.63908E+05
 0.76399994E+02 -0.15004E+06
 0.76449997E+02 -0.22550E+06
 0.76499992E+02 -0.29910E+06
 0.76549995E+02 -0.37683E+06
 0.76599998E+02 -0.45810E+06
 0.76649994E+02 -0.54142E+06
 0.76699997E+02 -0.61833E+06
 0.76749992E+02 -0.67142E+06
 0.76799995E+02 -0.70427E+06
 0.76849998E+02 -0.73287E+06
 0.76899994E+02 -0.75392E+06
 0.76949997E+02 -0.74759E+06
 0.76999992E+02 -0.71334E+06
 0.77049995E+02 -0.66790E+06
 0.77099998E+02 -0.62613E+06
 0.77149994E+02 -0.59646E+06
 0.77199997E+02 -0.58724E+06
 0.77249992E+02 -0.59244E+06
 0.77299995E+02 -0.59070E+06
 0.77349998E+02 -0.57816E+06
 0.77399994E+02 -0.56225E+06
 0.77449997E+02 -0.54979E+06
 0.77499992E+02 -0.53889E+06
 0.77549995E+02 -0.52289E+06
 0.77599998E+02 -0.49954E+06
 0.77649994E+02 -0.46957E+06
 0.77699997E+02 -0.43681E+06
 0.77749992E+02 -0.40050E+06
 0.77799995E+02 -0.36206E+06
 0.77849998E+02 -0.33410E+06
 0.77899994E+02 -0.32890E+06
 0.77949997E+02 -0.33992E+06
 0.77999992E+02 -0.35167E+06
 0.78049995E+02 -0.36202E+06
 0.78099998E+02 -0.37189E+06
 0.78149994E+02 -0.37317E+06
 0.78199997E+02 -0.35931E+06
 0.78249992E+02 -0.32816E+06
 0.78299995E+02 -0.28426E+06
 0.78349998E+02 -0.23584E+06
 0.78399994E+02 -0.18540E+06
 0.78449997E+02 -0.13705E+06
 0.78499992E+02 -0.94546E+05
 0.78549995E+02 -0.58707E+05
 0.78599998E+02 -0.23799E+05
 0.78649994E+02  0.78171E+04
 0.78699997E+02  0.22610E+05
 0.78749992E+02  0.27626E+05
 0.78799995E+02  0.35599E+05
 0.78849998E+02  0.41000E+05
 0.78899994E+02  0.38142E+05
 0.78949997E+02  0.26781E+05
 0.78999992E+02  0.55500E+04
 0.79049995E+02 -0.31883E+05
 0.79099998E+02 -0.81035E+05
 0.79149994E+02 -0.13449E+06
 0.79199997E+02 -0.18799E+06
 0.79249992E+02 -0.23485E+06
 0.79299995E+02 -0.26266E+06
 0.79349998E+02 -0.26346E+06
 0.79399994E+02 -0.24710E+06
 0.79449997E+02 -0.23022E+06
 0.79499992E+02 -0.22757E+06
 0.79549995E+02 -0.24090E+06
 0.79599998E+02 -0.26718E+06
 0.79649994E+02 -0.30532E+06
 0.79699997E+02 -0.35461E+06
 0.79749992E+02 -0.40872E+06
 0.79799995E+02 -0.45771E+06
 0.79849998E+02 -0.48851E+06
 0.79899994E+02 -0.49909E+06
 0.79949997E+02 -0.48802E+06
 0.79999992E+02 -0.45903E+06
 0.80049995E+02 -0.41837E+06
 0.80099998E+02 -0.37419E+06
 0.80149994E+02 -0.33447E+06
 0.80199997E+02 -0.28936E+06
 0.80249992E+02 -0.23329E+06
 0.80299995E+02 -0.16294E+06
 0.80349998E+02 -0.81709E+05
 0.80399994E+02 -0.30622E+04
 0.80449997E+02  0.51091E+05
 0.80499992E+02  0.70827E+05
 0.80549995E+02  0.63732E+05
 0.80599998E+02  0.39638E+05
 0.80649994E+02  0.20806E+05
 0.80699997E+02  0.19770E+05
 0.80749992E+02  0.30265E+05
 0.80799995E+02  0.42298E+05
 0.80849998E+02  0.51257E+05
 0.80899994E+02  0.60517E+05
 0.80949997E+02  0.73368E+05
 0.80999992E+02  0.88227E+05
 0.81049995E+02  0.10502E+06
 0.81099998E+02  0.12627E+06
 0.81149994E+02  0.13970E+06
 0.81199997E+02  0.13633E+06
 0.81249992E+02  0.11024E+06
 0.81299995E+02  0.64829E+05
 0.81349998E+02  0.10641E+05
 0.81399994E+02 -0.44287E+05
 0.81449997E+02 -0.93921E+05
 0.81499992E+02 -0.13820E+06
 0.81549995E+02 -0.16135E+06
 0.81599998E+02 -0.15657E+06
 0.81649994E+02 -0.13850E+06
 0.81699997E+02 -0.11276E+06
 0.81749992E+02 -0.76196E+05
 0.81799995E+02 -0.38393E+05
 0.81849998E+02 -0.13402E+05
 0.81899994E+02 -0.15849E+05
 0.81949997E+02 -0.46769E+05
 0.81999992E+02 -0.91871E+05
 0.82049995E+02 -0.14612E+06
 0.82099998E+02 -0.20241E+06
 0.82149994E+02 -0.25276E+06
 0.82199997E+02 -0.29328E+06
 0.82249992E+02 -0.32608E+06
 0.82299995E+02 -0.34835E+06
 0.82349998E+02 -0.35221E+06
 0.82399994E+02 -0.33745E+06
 0.82449997E+02 -0.30934E+06
 0.82499992E+02 -0.27939E+06
 0.82549995E+02 -0.25314E+06
 0.82599998E+02 -0.22900E+06
 0.82649994E+02 -0.19888E+06
 0.82699997E+02 -0.16236E+06
 0.82749992E+02 -0.14375E+06
 0.82799995E+02 -0.15136E+06
 0.82849998E+02 -0.16922E+06
 0.82899994E+02 -0.19075E+06
 0.82949997E+02 -0.21664E+06
 0.82999992E+02 -0.25085E+06
 0.83049995E+02 -0.28672E+06
 0.83099998E+02 -0.32627E+06
 0.83149994E+02 -0.37423E+06
 0.83199997E+02 -0.40922E+06
 0.83249992E+02 -0.41432E+06
 0.83299995E+02 -0.39578E+06
 0.83349998E+02 -0.37418E+06
 0.83399994E+02 -0.35678E+06
 0.83449997E+02 -0.33702E+06
 0.83499992E+02 -0.30703E+06
 0.83549995E+02 -0.26619E+06
 0.83599998E+02 -0.23193E+06
 0.83649994E+02 -0.22093E+06
 0.83699997E+02 -0.22687E+06
 0.83749992E+02 -0.23503E+06
 0.83799995E+02 -0.23761E+06
 0.83849998E+02 -0.23478E+06
 0.83899994E+02 -0.22913E+06
 0.83949997E+02 -0.21807E+06
 0.83999992E+02 -0.20584E+06
 0.84049995E+02 -0.19150E+06
 0.84099998E+02 -0.17266E+06
 0.84149994E+02 -0.16111E+06
 0.84199997E+02 -0.16719E+06
 0.84249992E+02 -0.18082E+06
 0.84299995E+02 -0.18752E+06
 0.84349998E+02 -0.19256E+06
 0.84399994E+02 -0.19585E+06
 0.84449997E+02 -0.19053E+06
 0.84499992E+02 -0.18150E+06
 0.84549995E+02 -0.17002E+06
 0.84599998E+02 -0.15085E+06
 0.84649994E+02 -0.12522E+06
 0.84699997E+02 -0.98638E+05
 0.84749992E+02 -0.74483E+05
 0.84799995E+02 -0.54470E+05
 0.84849998E+02 -0.37958E+05
 0.84899994E+02 -0.13730E+05
 0.84949997E+02  0.25109E+05
 0.84999992E+02  0.71507E+05
 0.85049995E+02  0.12539E+06
 0.85099998E+02  0.17640E+06
 0.85149994E+02  0.20394E+06
 0.85199997E+02  0.20282E+06
 0.85249992E+02  0.17494E+06
 0.85299995E+02  0.13314E+06
 0.85349998E+02  0.92415E+05
 0.85399994E+02  0.63246E+05
 0.85449997E+02  0.46453E+05
 0.85499992E+02  0.42188E+05
 0.85549995E+02  0.60552E+05
 0.85599998E+02  0.95730E+05
 0.85649994E+02  0.12724E+06
 0.85699997E+02  0.13473E+06
 0.85749992E+02  0.10510E+06
 0.85799995E+02  0.43724E+05
 0.85849998E+02 -0.29908E+05
 0.85899994E+02 -0.99279E+05
 0.85949997E+02 -0.15609E+06
 0.85999992E+02 -0.19635E+06
 0.86049995E+02 -0.21312E+06
 0.86099998E+02 -0.20057E+06
 0.86149994E+02 -0.16520E+06
 0.86199997E+02 -0.11263E+06
 0.86249992E+02 -0.51558E+05
 0.86299995E+02  0.91681E+04
 0.86349998E+02  0.72152E+05
 0.86399994E+02  0.13491E+06
 0.86449997E+02  0.19161E+06
 0.86499992E+02  0.24079E+06
 0.86549995E+02  0.27426E+06
 0.86599998E+02  0.27725E+06
 0.86649994E+02  0.24557E+06
 0.86699997E+02  0.18713E+06
 0.86749992E+02  0.12255E+06
 0.86799995E+02  0.64510E+05
 0.86849998E+02  0.11573E+05
 0.86899994E+02 -0.37408E+05
 0.86949997E+02 -0.81113E+05
 0.86999992E+02 -0.11929E+06
 0.87049995E+02 -0.15485E+06
 0.87099998E+02 -0.18533E+06
 0.87149994E+02 -0.22143E+06
 0.87199997E+02 -0.27313E+06
 0.87249992E+02 -0.34219E+06
 0.87299995E+02 -0.42455E+06
 0.87349998E+02 -0.50851E+06
 0.87399994E+02 -0.59006E+06
 0.87449997E+02 -0.67092E+06
 0.87499992E+02 -0.74497E+06
 0.87549995E+02 -0.80118E+06
 0.87599991E+02 -0.83517E+06
 0.87649994E+02 -0.84021E+06
 0.87699997E+02 -0.82069E+06
 0.87749992E+02 -0.78763E+06
 0.87799995E+02 -0.74737E+06
 0.87849991E+02 -0.69636E+06
 0.87899994E+02 -0.62564E+06
 0.87949997E+02 -0.53174E+06
 0.87999992E+02 -0.41708E+06
 0.88049995E+02 -0.30022E+06
 0.88099991E+02 -0.20566E+06
 0.88149994E+02 -0.14407E+06
 0.88199997E+02 -0.10377E+06
 0.88249992E+02 -0.69389E+05
 0.88299995E+02 -0.40397E+05
 0.88349991E+02 -0.15708E+05
 0.88399994E+02  0.10517E+05
 0.88449997E+02  0.33807E+05
 0.88499992E+02  0.46777E+05
 0.88549995E+02  0.50632E+05
 0.88599991E+02  0.43605E+05
 0.88649994E+02  0.22857E+05
 0.88699997E+02 -0.11047E+04
 0.88749992E+02 -0.14424E+05
 0.88799995E+02 -0.10693E+05
 0.88849991E+02  0.91455E+04
 0.88899994E+02  0.34493E+05
 0.88949997E+02  0.51058E+05
 0.88999992E+02  0.48895E+05
 0.89049995E+02  0.27542E+05
 0.89099991E+02 -0.42938E+04
 0.89149994E+02 -0.35920E+05
 0.89199997E+02 -0.56926E+05
 0.89249992E+02 -0.67056E+05
 0.89299995E+02 -0.68558E+05
 0.89349991E+02 -0.65507E+05
 0.89399994E+02 -0.68737E+05
 0.89449997E+02 -0.77588E+05
 0.89499992E+02 -0.87794E+05
 0.89549995E+02 -0.96957E+05
 0.89599991E+02 -0.10047E+06
 0.89649994E+02 -0.97004E+05
 0.89699997E+02 -0.93259E+05
 0.89749992E+02 -0.88855E+05
 0.89799995E+02 -0.83603E+05
 0.89849991E+02 -0.92400E+05
 0.89899994E+02 -0.12394E+06
 0.89949997E+02 -0.16947E+06
 0.89999992E+02 -0.21051E+06
 0.90049995E+02 -0.23842E+06
 0.90099991E+02 -0.25204E+06
 0.90149994E+02 -0.25488E+06
 0.90199997E+02 -0.25137E+06
 0.90249992E+02 -0.24183E+06
 0.90299995E+02 -0.23324E+06
 0.90349991E+02 -0.23119E+06
 0.90399994E+02 -0.23536E+06
 0.90449997E+02 -0.24701E+06
 0.90499992E+02 -0.25755E+06
 0.90549995E+02 -0.25909E+06
 0.90599991E+02 -0.25983E+06
 0.90649994E+02 -0.26295E+06
 0.90699997E+02 -0.26417E+06
 0.90749992E+02 -0.26416E+06
 0.90799995E+02 -0.26585E+06
 0.90849991E+02 -0.27110E+06
 0.90899994E+02 -0.27708E+06
 0.90949997E+02 -0.27734E+06
 0.90999992E+02 -0.26877E+06
 0.91049995E+02 -0.24547E+06
 0.91099991E+02 -0.20736E+06
 0.91149994E+02 -0.16514E+06
 0.91199997E+02 -0.12113E+06
 0.91249992E+02 -0.73985E+05
 0.91299995E+02 -0.32995E+05
 0.91349991E+02 -0.46757E+04
 0.91399994E+02  0.14734E+05
 0.91449997E+02  0.31456E+05
 0.91499992E+02  0.45616E+05
 0.91549995E+02  0.57079E+05
 0.91599991E+02  0.67364E+05
 0.91649994E+02  0.76264E+05
 0.91699997E+02  0.81111E+05
 0.91749992E+02  0.72351E+05
 0.91799995E+02  0.44875E+05
 0.91849991E+02  0.18149E+03
 0.91899994E+02 -0.56117E+05
 0.91949997E+02 -0.11501E+06
 0.91999992E+02 -0.16458E+06
 0.92049995E+02 -0.20018E+06
 0.92099991E+02 -0.23036E+06
 0.92149994E+02 -0.26370E+06
 0.92199997E+02 -0.30102E+06
 0.92249992E+02 -0.33620E+06
 0.92299995E+02 -0.35767E+06
 0.92349991E+02 -0.35617E+06
 0.92399994E+02 -0.33346E+06
 0.92449997E+02 -0.30541E+06
 0.92499992E+02 -0.28659E+06
 0.92549995E+02 -0.27474E+06
 0.92599991E+02 -0.26857E+06
 0.92649994E+02 -0.26918E+06
 0.92699997E+02 -0.27268E+06
 0.92749992E+02 -0.26940E+06
 0.92799995E+02 -0.25607E+06
 0.92849991E+02 -0.23067E+06
 0.92899994E+02 -0.18501E+06
 0.92949997E+02 -0.12296E+06
 0.92999992E+02 -0.52788E+05
 0.93049995E+02  0.13193E+05
 0.93099991E+02  0.64963E+05
 0.93149994E+02  0.10525E+06
 0.93199997E+02  0.14059E+06
 0.93249992E+02  0.17186E+06
 0.93299995E+02  0.19096E+06
 0.93349991E+02  0.19388E+06
 0.93399994E+02  0.19064E+06
 0.93449997E+02  0.19107E+06
 0.93499992E+02  0.19684E+06
 0.93549995E+02  0.20682E+06
 0.93599991E+02  0.22096E+06
 0.93649994E+02  0.23866E+06
 0.93699997E+02  0.25449E+06
 0.93749992E+02  0.26107E+06
 0.93799995E+02  0.25337E+06
 0.93849991E+02  0.23691E+06
 0.93899994E+02  0.21648E+06
 0.93949997E+02  0.18987E+06
 0.93999992E+02  0.15560E+06
 0.94049995E+02  0.11150E+06
 0.94099991E+02  0.61412E+05
 0.94149994E+02  0.10269E+05
 0.94199997E+02 -0.40600E+05
 0.94249992E+02 -0.92812E+05
 0.94299995E+02 -0.15144E+06
 0.94349991E+02 -0.20963E+06
 0.94399994E+02 -0.25570E+06
 0.94449997E+02 -0.28584E+06
 0.94499992E+02 -0.29956E+06
 0.94549995E+02 -0.29469E+06
 0.94599991E+02 -0.27438E+06
 0.94649994E+02 -0.24822E+06
 0.94699997E+02 -0.22277E+06
 0.94749992E+02 -0.19990E+06
 0.94799995E+02 -0.18030E+06
 0.94849991E+02 -0.16854E+06
 0.94899994E+02 -0.17102E+06
 0.94949997E+02 -0.18937E+06
 0.94999992E+02 -0.21901E+06
 0.95049995E+02 -0.25580E+06
 0.95099991E+02 -0.29315E+06
 0.95149994E+02 -0.32234E+06
 0.95199997E+02 -0.34053E+06
 0.95249992E+02 -0.34811E+06
 0.95299995E+02 -0.34424E+06
 0.95349991E+02 -0.33067E+06
 0.95399994E+02 -0.31772E+06
 0.95449997E+02 -0.31577E+06
 0.95499992E+02 -0.32722E+06
 0.95549995E+02 -0.35101E+06
 0.95599991E+02 -0.38014E+06
 0.95649994E+02 -0.40730E+06
 0.95699997E+02 -0.42820E+06
 0.95749992E+02 -0.44379E+06
 0.95799995E+02 -0.45264E+06
 0.95849991E+02 -0.45000E+06
 0.95899994E+02 -0.43552E+06
 0.95949997E+02 -0.41132E+06
 0.95999992E+02 -0.38583E+06
 0.96049995E+02 -0.36212E+06
 0.96099991E+02 -0.33757E+06
 0.96149994E+02 -0.31364E+06
 0.96199997E+02 -0.29685E+06
 0.96249992E+02 -0.28488E+06
 0.96299995E+02 -0.27107E+06
 0.96349991E+02 -0.25497E+06
 0.96399994E+02 -0.24100E+06
 0.96449997E+02 -0.23911E+06
 0.96499992E+02 -0.25246E+06
 0.96549995E+02 -0.27960E+06
 0.96599991E+02 -0.30993E+06
 0.96649994E+02 -0.33009E+06
 0.96699997E+02 -0.33106E+06
 0.96749992E+02 -0.30952E+06
 0.96799995E+02 -0.27416E+06
 0.96849991E+02 -0.23278E+06
 0.96899994E+02 -0.18793E+06
 0.96949997E+02 -0.13827E+06
 0.96999992E+02 -0.88119E+05
 0.97049995E+02 -0.44560E+05
 0.97099991E+02 -0.96610E+04
 0.97149994E+02  0.20342E+05
 0.97199997E+02  0.49272E+05
 0.97249992E+02  0.80566E+05
 0.97299995E+02  0.12031E+06
 0.97349991E+02  0.16791E+06
 0.97399994E+02  0.21596E+06
 0.97449997E+02  0.26324E+06
 0.97499992E+02  0.31348E+06
 0.97549995E+02  0.35941E+06
 0.97599991E+02  0.39569E+06
 0.97649994E+02  0.42081E+06
 0.97699997E+02  0.43030E+06
 0.97749992E+02  0.42745E+06
 0.97799995E+02  0.41486E+06
 0.97849991E+02  0.39736E+06
 0.97899994E+02  0.38303E+06
 0.97949997E+02  0.36806E+06
 0.97999992E+02  0.34374E+06
