-0.20000000E+01  0.29208E+05
-0.19500000E+01  0.28630E+05
-0.19000000E+01  0.27325E+05
-0.18500000E+01  0.25704E+05
-0.18000000E+01  0.23861E+05
-0.17500000E+01  0.21962E+05
-0.17000000E+01  0.20175E+05
-0.16500001E+01  0.18731E+05
-0.16000000E+01  0.17672E+05
-0.15500000E+01  0.16974E+05
-0.15000000E+01  0.16471E+05
-0.14500000E+01  0.16011E+05
-0.14000001E+01  0.15675E+05
-0.13500000E+01  0.15567E+05
-0.13000001E+01  0.15625E+05
-0.12500000E+01  0.15762E+05
-0.12000000E+01  0.15897E+05
-0.11500001E+01  0.16010E+05
-0.11000000E+01  0.16099E+05
-0.10500001E+01  0.16071E+05
-0.10000000E+01  0.15978E+05
-0.95000005E+00  0.15724E+05
-0.90000010E+00  0.15253E+05
-0.85000002E+00  0.14555E+05
-0.80000007E+00  0.13622E+05
-0.75000012E+00  0.12530E+05
-0.70000005E+00  0.11169E+05
-0.65000010E+00  0.94993E+04
-0.60000014E+00  0.75026E+04
-0.55000007E+00  0.51960E+04
-0.50000012E+00  0.25812E+04
-0.45000005E+00 -0.31488E+03
-0.40000010E+00 -0.34456E+04
-0.35000014E+00 -0.67240E+04
-0.30000007E+00 -0.98362E+04
-0.25000012E+00 -0.12701E+05
-0.20000005E+00 -0.15229E+05
-0.15000010E+00 -0.17276E+05
-0.10000014E+00 -0.18737E+05
-0.50000072E-01 -0.19515E+05
-0.11920929E-06 -0.19700E+05
 0.49999952E-01 -0.19237E+05
 0.99999905E-01 -0.18178E+05
 0.14999986E+00 -0.16709E+05
 0.19999981E+00 -0.14966E+05
 0.24999976E+00 -0.12983E+05
 0.29999995E+00 -0.10775E+05
 0.34999990E+00 -0.85245E+04
 0.39999986E+00 -0.63865E+04
 0.44999981E+00 -0.45434E+04
 0.49999976E+00 -0.31222E+04
 0.54999995E+00 -0.20954E+04
 0.59999990E+00 -0.14423E+04
 0.64999986E+00 -0.11416E+04
 0.69999981E+00 -0.10817E+04
 0.74999976E+00 -0.12950E+04
 0.79999971E+00 -0.16114E+04
 0.84999990E+00 -0.19638E+04
 0.89999986E+00 -0.23838E+04
 0.94999981E+00 -0.25910E+04
 0.99999976E+00 -0.26930E+04
 0.10499997E+01 -0.26560E+04
 0.10999999E+01 -0.23549E+04
 0.11499999E+01 -0.17987E+04
 0.11999998E+01 -0.98862E+03
 0.12499998E+01 -0.36858E+02
 0.12999997E+01  0.99570E+03
 0.13499999E+01  0.19666E+04
 0.13999999E+01  0.27272E+04
 0.14499998E+01  0.32399E+04
 0.14999998E+01  0.35750E+04
 0.15499997E+01  0.37931E+04
 0.15999999E+01  0.39827E+04
 0.16499999E+01  0.41527E+04
 0.16999998E+01  0.43515E+04
 0.17499998E+01  0.46300E+04
 0.17999997E+01  0.48857E+04
 0.18499997E+01  0.51490E+04
 0.18999999E+01  0.52617E+04
 0.19499998E+01  0.50517E+04
 0.19999998E+01  0.46294E+04
 0.20499997E+01  0.39320E+04
 0.20999999E+01  0.30533E+04
 0.21499996E+01  0.22097E+04
 0.21999998E+01  0.15023E+04
 0.22499995E+01  0.10266E+04
 0.22999997E+01  0.81826E+03
 0.23499999E+01  0.71662E+03
 0.23999996E+01  0.48427E+03
 0.24499998E+01 -0.17460E+02
 0.24999995E+01 -0.89380E+03
 0.25499997E+01 -0.21101E+04
 0.25999999E+01 -0.36266E+04
 0.26499996E+01 -0.53217E+04
 0.26999998E+01 -0.70307E+04
 0.27499995E+01 -0.86556E+04
 0.27999997E+01 -0.10073E+05
 0.28499999E+01 -0.11157E+05
 0.28999996E+01 -0.11878E+05
 0.29499998E+01 -0.12216E+05
 0.29999995E+01 -0.12191E+05
 0.30499997E+01 -0.11732E+05
 0.30999999E+01 -0.10749E+05
 0.31499996E+01 -0.94238E+04
 0.31999998E+01 -0.78824E+04
 0.32499995E+01 -0.61790E+04
 0.32999997E+01 -0.43669E+04
 0.33499999E+01 -0.23976E+04
 0.33999996E+01 -0.38784E+03
 0.34499998E+01  0.15367E+04
 0.34999995E+01  0.33343E+04
 0.35499997E+01  0.48372E+04
 0.35999994E+01  0.59588E+04
 0.36499996E+01  0.67128E+04
 0.36999998E+01  0.72076E+04
 0.37499995E+01  0.75296E+04
 0.37999997E+01  0.77103E+04
 0.38499994E+01  0.79014E+04
 0.38999996E+01  0.79967E+04
 0.39499998E+01  0.78370E+04
 0.39999995E+01  0.75107E+04
 0.40499997E+01  0.70729E+04
 0.40999994E+01  0.65786E+04
 0.41499996E+01  0.62094E+04
 0.41999998E+01  0.59667E+04
 0.42499995E+01  0.57721E+04
 0.42999997E+01  0.56241E+04
 0.43499994E+01  0.52949E+04
 0.43999996E+01  0.47046E+04
 0.44499998E+01  0.40628E+04
 0.44999995E+01  0.35784E+04
 0.45499997E+01  0.32588E+04
 0.45999994E+01  0.31123E+04
 0.46499996E+01  0.31573E+04
 0.46999998E+01  0.33465E+04
 0.47499995E+01  0.37193E+04
 0.47999997E+01  0.43473E+04
 0.48499994E+01  0.52225E+04
 0.48999996E+01  0.62520E+04
 0.49499998E+01  0.73918E+04
 0.49999995E+01  0.85856E+04
 0.50499997E+01  0.98332E+04
 0.50999994E+01  0.11086E+05
 0.51499996E+01  0.12333E+05
 0.51999998E+01  0.13573E+05
 0.52499995E+01  0.14756E+05
 0.52999997E+01  0.15705E+05
 0.53499994E+01  0.16208E+05
 0.53999996E+01  0.16167E+05
 0.54499993E+01  0.15659E+05
 0.54999995E+01  0.14760E+05
 0.55499997E+01  0.13644E+05
 0.55999994E+01  0.12606E+05
 0.56499996E+01  0.11635E+05
 0.56999993E+01  0.10731E+05
 0.57499995E+01  0.98528E+04
 0.57999997E+01  0.89947E+04
 0.58499994E+01  0.81571E+04
 0.58999996E+01  0.74349E+04
 0.59499993E+01  0.69861E+04
 0.59999995E+01  0.67594E+04
 0.60499992E+01  0.65885E+04
 0.60999994E+01  0.63839E+04
 0.61499996E+01  0.60133E+04
 0.61999998E+01  0.53117E+04
 0.62499990E+01  0.42432E+04
 0.62999992E+01  0.28728E+04
 0.63499994E+01  0.13004E+04
 0.63999996E+01 -0.39703E+03
 0.64499998E+01 -0.19706E+04
 0.64999990E+01 -0.32542E+04
 0.65499992E+01 -0.40642E+04
 0.65999994E+01 -0.42244E+04
 0.66499996E+01 -0.37798E+04
 0.66999998E+01 -0.28861E+04
 0.67499990E+01 -0.17777E+04
 0.67999992E+01 -0.71809E+03
 0.68499994E+01  0.83585E+02
 0.68999996E+01  0.49788E+03
 0.69499998E+01  0.47362E+03
 0.69999990E+01  0.87554E+02
 0.70499992E+01 -0.57508E+03
 0.70999994E+01 -0.12702E+04
 0.71499996E+01 -0.19396E+04
 0.71999998E+01 -0.28025E+04
 0.72499990E+01 -0.37871E+04
 0.72999992E+01 -0.47896E+04
 0.73499994E+01 -0.58535E+04
 0.73999996E+01 -0.70303E+04
 0.74499998E+01 -0.81310E+04
 0.74999990E+01 -0.90630E+04
 0.75499992E+01 -0.10013E+05
 0.75999994E+01 -0.10863E+05
 0.76499996E+01 -0.11562E+05
 0.76999998E+01 -0.12271E+05
 0.77499990E+01 -0.12911E+05
 0.77999992E+01 -0.13488E+05
 0.78499994E+01 -0.14070E+05
 0.78999996E+01 -0.14692E+05
 0.79499998E+01 -0.15363E+05
 0.79999990E+01 -0.15937E+05
 0.80499992E+01 -0.16291E+05
 0.80999994E+01 -0.16344E+05
 0.81499996E+01 -0.15900E+05
 0.81999998E+01 -0.14717E+05
 0.82499990E+01 -0.12689E+05
 0.82999992E+01 -0.99624E+04
 0.83499994E+01 -0.68038E+04
 0.83999996E+01 -0.34528E+04
 0.84499998E+01 -0.15267E+03
 0.84999990E+01  0.30047E+04
 0.85499992E+01  0.59387E+04
 0.85999994E+01  0.85576E+04
 0.86499996E+01  0.10733E+05
 0.86999998E+01  0.12223E+05
 0.87499990E+01  0.12939E+05
 0.87999992E+01  0.12879E+05
 0.88499994E+01  0.11971E+05
 0.88999996E+01  0.10316E+05
 0.89499998E+01  0.81950E+04
 0.89999990E+01  0.58503E+04
 0.90499992E+01  0.34009E+04
 0.90999994E+01  0.94143E+03
 0.91499996E+01 -0.15250E+04
 0.91999989E+01 -0.40536E+04
 0.92499990E+01 -0.65525E+04
 0.92999992E+01 -0.89599E+04
 0.93499994E+01 -0.11087E+05
 0.93999996E+01 -0.12807E+05
 0.94499989E+01 -0.14168E+05
 0.94999990E+01 -0.15212E+05
 0.95499992E+01 -0.15989E+05
 0.95999994E+01 -0.16554E+05
 0.96499996E+01 -0.16910E+05
 0.96999989E+01 -0.16923E+05
 0.97499990E+01 -0.16641E+05
 0.97999992E+01 -0.16240E+05
 0.98499994E+01 -0.15753E+05
 0.98999996E+01 -0.15126E+05
 0.99499989E+01 -0.14266E+05
 0.99999990E+01 -0.13076E+05
 0.10049999E+02 -0.11640E+05
 0.10099999E+02 -0.99968E+04
 0.10150000E+02 -0.81532E+04
 0.10199999E+02 -0.61259E+04
 0.10249999E+02 -0.38141E+04
 0.10299999E+02 -0.13251E+04
 0.10349999E+02  0.11738E+04
 0.10400000E+02  0.35045E+04
 0.10449999E+02  0.54381E+04
 0.10499999E+02  0.69850E+04
 0.10549999E+02  0.81412E+04
 0.10599999E+02  0.90062E+04
 0.10650000E+02  0.98540E+04
 0.10699999E+02  0.10764E+05
 0.10749999E+02  0.11715E+05
 0.10799999E+02  0.12650E+05
 0.10849999E+02  0.13368E+05
 0.10900000E+02  0.13776E+05
 0.10949999E+02  0.13901E+05
 0.10999999E+02  0.13805E+05
 0.11049999E+02  0.13641E+05
 0.11099999E+02  0.13664E+05
 0.11150000E+02  0.14061E+05
 0.11199999E+02  0.14731E+05
 0.11249999E+02  0.15590E+05
 0.11299999E+02  0.16570E+05
 0.11349999E+02  0.17600E+05
 0.11400000E+02  0.18676E+05
 0.11449999E+02  0.19725E+05
 0.11499999E+02  0.20622E+05
 0.11549999E+02  0.21401E+05
 0.11599999E+02  0.22091E+05
 0.11650000E+02  0.22708E+05
 0.11699999E+02  0.23261E+05
 0.11749999E+02  0.23630E+05
 0.11799999E+02  0.23650E+05
 0.11849999E+02  0.23197E+05
 0.11900000E+02  0.22301E+05
 0.11949999E+02  0.20992E+05
 0.11999999E+02  0.19286E+05
 0.12049999E+02  0.17290E+05
 0.12099999E+02  0.15089E+05
 0.12150000E+02  0.12571E+05
 0.12199999E+02  0.98343E+04
 0.12249999E+02  0.71392E+04
 0.12299999E+02  0.45576E+04
 0.12349999E+02  0.22613E+04
 0.12400000E+02  0.35009E+03
 0.12449999E+02 -0.12745E+04
 0.12499999E+02 -0.26734E+04
 0.12549999E+02 -0.38251E+04
 0.12599999E+02 -0.47886E+04
 0.12649999E+02 -0.55607E+04
 0.12699999E+02 -0.59931E+04
 0.12749999E+02 -0.60740E+04
 0.12799999E+02 -0.58802E+04
 0.12849999E+02 -0.56046E+04
 0.12899999E+02 -0.52832E+04
 0.12949999E+02 -0.48947E+04
 0.12999999E+02 -0.46553E+04
 0.13049999E+02 -0.45450E+04
 0.13099999E+02 -0.43900E+04
 0.13149999E+02 -0.41102E+04
 0.13199999E+02 -0.35132E+04
 0.13249999E+02 -0.24794E+04
 0.13299999E+02 -0.10825E+04
 0.13349999E+02  0.55376E+03
 0.13399999E+02  0.21433E+04
 0.13449999E+02  0.34060E+04
 0.13499999E+02  0.42786E+04
 0.13549999E+02  0.47674E+04
 0.13599999E+02  0.49660E+04
 0.13649999E+02  0.50975E+04
 0.13699999E+02  0.52321E+04
 0.13749999E+02  0.51969E+04
 0.13799999E+02  0.49057E+04
 0.13849999E+02  0.43539E+04
 0.13899999E+02  0.36110E+04
 0.13949999E+02  0.28986E+04
 0.13999999E+02  0.23687E+04
 0.14049999E+02  0.19941E+04
 0.14099998E+02  0.17195E+04
 0.14150000E+02  0.15164E+04
 0.14199999E+02  0.13202E+04
 0.14249998E+02  0.10363E+04
 0.14299999E+02  0.63179E+03
 0.14349998E+02  0.19708E+03
 0.14400000E+02 -0.19984E+03
 0.14449999E+02 -0.46066E+03
 0.14499998E+02 -0.55922E+03
 0.14549999E+02 -0.58165E+03
 0.14599998E+02 -0.53368E+03
 0.14650000E+02 -0.33207E+03
 0.14699999E+02  0.52941E+02
 0.14749998E+02  0.58798E+03
 0.14799999E+02  0.11962E+04
 0.14849998E+02  0.16901E+04
 0.14900000E+02  0.18714E+04
 0.14949999E+02  0.16321E+04
 0.14999998E+02  0.10187E+04
 0.15049999E+02  0.62859E+02
 0.15099998E+02 -0.11449E+04
 0.15150000E+02 -0.23882E+04
 0.15199999E+02 -0.35868E+04
 0.15249998E+02 -0.48047E+04
 0.15299999E+02 -0.61224E+04
 0.15349998E+02 -0.74576E+04
 0.15400000E+02 -0.86327E+04
 0.15449999E+02 -0.96091E+04
 0.15499998E+02 -0.10361E+05
 0.15549999E+02 -0.10814E+05
 0.15599998E+02 -0.10943E+05
 0.15650000E+02 -0.10805E+05
 0.15699999E+02 -0.10534E+05
 0.15749998E+02 -0.10162E+05
 0.15799999E+02 -0.97054E+04
 0.15849998E+02 -0.92028E+04
 0.15900000E+02 -0.86597E+04
 0.15949999E+02 -0.81539E+04
 0.15999998E+02 -0.77554E+04
 0.16049999E+02 -0.76924E+04
 0.16099998E+02 -0.79848E+04
 0.16150000E+02 -0.83473E+04
 0.16199999E+02 -0.86282E+04
 0.16249998E+02 -0.87829E+04
 0.16299999E+02 -0.87642E+04
 0.16349998E+02 -0.85624E+04
 0.16400000E+02 -0.82009E+04
 0.16449999E+02 -0.75159E+04
 0.16499998E+02 -0.64337E+04
 0.16549999E+02 -0.50850E+04
 0.16599998E+02 -0.35269E+04
 0.16650000E+02 -0.18738E+04
 0.16699999E+02 -0.33149E+03
 0.16749998E+02  0.11801E+04
 0.16799999E+02  0.27308E+04
 0.16849998E+02  0.42993E+04
 0.16900000E+02  0.59060E+04
 0.16949999E+02  0.74678E+04
 0.16999998E+02  0.89862E+04
 0.17049999E+02  0.10413E+05
 0.17099998E+02  0.11643E+05
 0.17150000E+02  0.12680E+05
 0.17199999E+02  0.13539E+05
 0.17249998E+02  0.14101E+05
 0.17299999E+02  0.14337E+05
 0.17349998E+02  0.14283E+05
 0.17400000E+02  0.13944E+05
 0.17449999E+02  0.13328E+05
 0.17499998E+02  0.12420E+05
 0.17549999E+02  0.11333E+05
 0.17599998E+02  0.10175E+05
 0.17650000E+02  0.90085E+04
 0.17699999E+02  0.77941E+04
 0.17749998E+02  0.65563E+04
 0.17799999E+02  0.54457E+04
 0.17849998E+02  0.44885E+04
 0.17900000E+02  0.37233E+04
 0.17949999E+02  0.32391E+04
 0.17999998E+02  0.30907E+04
 0.18049999E+02  0.33051E+04
 0.18099998E+02  0.37750E+04
 0.18150000E+02  0.43282E+04
 0.18199999E+02  0.48912E+04
 0.18249998E+02  0.52851E+04
 0.18299999E+02  0.53869E+04
 0.18349998E+02  0.52858E+04
 0.18400000E+02  0.50842E+04
 0.18449999E+02  0.49421E+04
 0.18499998E+02  0.49521E+04
 0.18549999E+02  0.52245E+04
 0.18599998E+02  0.56103E+04
 0.18650000E+02  0.62791E+04
 0.18699999E+02  0.73317E+04
 0.18749998E+02  0.83676E+04
 0.18799999E+02  0.88004E+04
 0.18849998E+02  0.90914E+04
 0.18900000E+02  0.95355E+04
 0.18949999E+02  0.10218E+05
 0.18999998E+02  0.11763E+05
 0.19049999E+02  0.13755E+05
 0.19099998E+02  0.14999E+05
 0.19150000E+02  0.14653E+05
 0.19199999E+02  0.12611E+05
 0.19249998E+02  0.52055E+04
 0.19299999E+02 -0.76166E+04
 0.19349998E+02 -0.21248E+05
 0.19400000E+02 -0.37287E+05
 0.19449999E+02 -0.56960E+05
 0.19499998E+02 -0.67228E+05
 0.19549999E+02 -0.63581E+05
 0.19599998E+02 -0.42748E+05
 0.19650000E+02 -0.10669E+05
 0.19699999E+02  0.47875E+04
 0.19749998E+02  0.61593E+04
 0.19799999E+02  0.15140E+04
 0.19849998E+02 -0.21634E+05
 0.19900000E+02 -0.62326E+05
 0.19949999E+02 -0.13636E+06
 0.19999998E+02 -0.23042E+06
 0.20049999E+02 -0.28677E+06
 0.20099998E+02 -0.28861E+06
 0.20150000E+02 -0.25567E+06
 0.20199999E+02 -0.20226E+06
 0.20249998E+02 -0.10827E+06
 0.20299999E+02 -0.12442E+05
 0.20349998E+02  0.35757E+05
 0.20399998E+02  0.36800E+05
 0.20449999E+02  0.29664E+05
 0.20499998E+02  0.67328E+05
 0.20549999E+02  0.11792E+06
 0.20599998E+02  0.13445E+06
 0.20649998E+02  0.15387E+06
 0.20699999E+02  0.10518E+06
 0.20749998E+02  0.95746E+04
 0.20799999E+02 -0.58797E+05
 0.20849998E+02 -0.10086E+06
 0.20899998E+02 -0.49877E+05
 0.20949999E+02  0.99889E+04
 0.20999998E+02  0.49024E+05
 0.21049999E+02  0.65263E+05
 0.21099998E+02  0.55008E+05
 0.21149998E+02  0.19007E+05
 0.21199999E+02 -0.31526E+05
 0.21249998E+02 -0.34736E+05
 0.21299999E+02 -0.71383E+05
 0.21349998E+02 -0.20111E+06
 0.21399998E+02 -0.29336E+06
 0.21449999E+02 -0.28388E+06
 0.21499998E+02 -0.34634E+06
 0.21549999E+02 -0.39861E+06
 0.21599998E+02 -0.36476E+06
 0.21649998E+02 -0.31411E+06
 0.21699999E+02 -0.16373E+06
 0.21749998E+02  0.27255E+04
 0.21799999E+02  0.13917E+06
 0.21849998E+02  0.23797E+06
 0.21899998E+02  0.29685E+06
 0.21949999E+02  0.26209E+06
 0.21999998E+02  0.14233E+06
 0.22049999E+02  0.87471E+05
 0.22099998E+02  0.52477E+05
 0.22149998E+02 -0.62568E+05
 0.22199999E+02 -0.13531E+06
 0.22249998E+02 -0.17486E+06
 0.22299999E+02 -0.25851E+06
 0.22349998E+02 -0.25571E+06
 0.22399998E+02 -0.21495E+06
 0.22449999E+02 -0.20834E+06
 0.22499998E+02 -0.22359E+06
 0.22549999E+02 -0.16920E+06
 0.22599998E+02 -0.95949E+05
 0.22649998E+02  0.12562E+05
 0.22699999E+02  0.14502E+06
 0.22749998E+02  0.13124E+06
 0.22799999E+02  0.10965E+06
 0.22849998E+02 -0.30366E+05
 0.22899998E+02 -0.17726E+06
 0.22949999E+02 -0.16310E+06
 0.22999998E+02 -0.15103E+06
 0.23049999E+02 -0.87716E+05
 0.23099998E+02 -0.12742E+05
 0.23149998E+02  0.51482E+05
 0.23199999E+02  0.63453E+05
 0.23249998E+02  0.38469E+05
 0.23299999E+02  0.54908E+05
 0.23349998E+02  0.59127E+05
 0.23399998E+02  0.11707E+05
 0.23449999E+02 -0.59969E+05
 0.23499998E+02 -0.93614E+05
 0.23549999E+02 -0.19433E+06
 0.23599998E+02 -0.36225E+06
 0.23649998E+02 -0.48562E+06
 0.23699999E+02 -0.45839E+06
 0.23749998E+02 -0.24978E+06
 0.23799999E+02 -0.36388E+05
 0.23849998E+02  0.12804E+06
 0.23899998E+02  0.19085E+06
 0.23949999E+02  0.27113E+06
 0.23999998E+02  0.37420E+06
 0.24049999E+02  0.35365E+06
 0.24099998E+02  0.33916E+06
 0.24149998E+02  0.31958E+06
 0.24199999E+02  0.27548E+06
 0.24249998E+02  0.22539E+06
 0.24299999E+02  0.13554E+06
 0.24349998E+02  0.50231E+05
 0.24399998E+02  0.65006E+05
 0.24449999E+02  0.12610E+06
 0.24499998E+02  0.18548E+06
 0.24549999E+02  0.20475E+06
 0.24599998E+02  0.25175E+06
 0.24649998E+02  0.31587E+06
 0.24699999E+02  0.25616E+06
 0.24749998E+02  0.18278E+06
 0.24799999E+02  0.12334E+06
 0.24849998E+02  0.50679E+05
 0.24899998E+02  0.23571E+05
 0.24949999E+02  0.84952E+05
 0.24999998E+02  0.11563E+06
 0.25049999E+02  0.88680E+05
 0.25099998E+02  0.10571E+06
 0.25149998E+02  0.15699E+06
 0.25199999E+02  0.18257E+06
 0.25249998E+02  0.19031E+06
 0.25299999E+02  0.78472E+05
 0.25349998E+02 -0.71830E+05
 0.25399998E+02 -0.19199E+06
 0.25449999E+02 -0.21564E+06
 0.25499998E+02 -0.12395E+06
 0.25549999E+02 -0.84542E+05
 0.25599998E+02 -0.89167E+05
 0.25649998E+02 -0.12091E+06
 0.25699999E+02 -0.11644E+06
 0.25749998E+02 -0.18551E+06
 0.25799999E+02 -0.21077E+06
 0.25849998E+02 -0.12140E+06
 0.25899998E+02 -0.40999E+05
 0.25949999E+02 -0.43732E+05
 0.25999998E+02 -0.20314E+05
 0.26049999E+02  0.40683E+05
 0.26099998E+02  0.26677E+05
 0.26149998E+02  0.39367E+05
 0.26199999E+02 -0.18098E+05
 0.26249998E+02 -0.65469E+05
 0.26299999E+02 -0.58084E+05
 0.26349998E+02 -0.38599E+05
 0.26399998E+02 -0.69707E+05
 0.26449999E+02 -0.12308E+06
 0.26499998E+02 -0.71053E+05
 0.26549999E+02 -0.12083E+06
 0.26599998E+02 -0.15247E+06
 0.26649998E+02 -0.13791E+06
 0.26699999E+02 -0.13813E+06
 0.26749998E+02  0.84729E+04
 0.26799999E+02  0.11027E+06
 0.26849998E+02  0.18486E+06
 0.26899998E+02  0.13678E+06
 0.26949999E+02  0.11374E+05
 0.26999998E+02 -0.78555E+05
 0.27049997E+02 -0.13799E+06
 0.27099998E+02 -0.52726E+05
 0.27149998E+02  0.39910E+05
 0.27199999E+02  0.65423E+05
 0.27249998E+02  0.97803E+05
 0.27299997E+02  0.18928E+06
 0.27349998E+02  0.17147E+06
 0.27399998E+02  0.15698E+05
 0.27449999E+02 -0.55196E+05
 0.27499998E+02  0.22651E+05
 0.27549997E+02  0.34996E+05
 0.27599998E+02  0.65353E+05
 0.27649998E+02  0.91577E+05
 0.27699999E+02  0.29595E+05
 0.27749998E+02 -0.15549E+05
 0.27799997E+02 -0.69209E+05
 0.27849998E+02 -0.63068E+05
 0.27899998E+02 -0.43205E+05
 0.27949999E+02  0.23743E+05
 0.27999998E+02  0.17786E+05
 0.28049997E+02 -0.69119E+05
 0.28099998E+02 -0.63825E+05
 0.28149998E+02 -0.10964E+05
 0.28199999E+02 -0.38777E+05
 0.28249998E+02 -0.53353E+05
 0.28299997E+02  0.77529E+05
 0.28349998E+02  0.11039E+06
 0.28399998E+02  0.11312E+06
 0.28449999E+02  0.13782E+06
 0.28499998E+02  0.13757E+06
 0.28549997E+02  0.12752E+06
 0.28599998E+02  0.11089E+06
 0.28649998E+02  0.10477E+06
 0.28699999E+02  0.67366E+05
 0.28749998E+02  0.54489E+05
 0.28799997E+02  0.34098E+05
 0.28849998E+02  0.60347E+05
 0.28899998E+02  0.54831E+05
 0.28949999E+02 -0.26872E+05
 0.28999998E+02 -0.55371E+05
 0.29049997E+02 -0.71541E+05
 0.29099998E+02 -0.12731E+06
 0.29149998E+02 -0.17655E+06
 0.29199999E+02 -0.15621E+06
 0.29249998E+02 -0.66807E+05
 0.29299997E+02 -0.44601E+05
 0.29349998E+02 -0.12869E+04
 0.29399998E+02  0.13240E+06
 0.29449999E+02  0.16427E+06
 0.29499998E+02  0.17161E+06
 0.29549997E+02  0.15387E+06
 0.29599998E+02  0.44728E+05
 0.29649998E+02 -0.33047E+05
 0.29699999E+02 -0.57635E+05
 0.29749998E+02 -0.92279E+05
 0.29799997E+02 -0.19482E+06
 0.29849998E+02 -0.25031E+06
 0.29899998E+02 -0.17783E+06
 0.29949999E+02 -0.15320E+06
 0.29999998E+02 -0.59461E+05
 0.30049999E+02  0.77658E+05
 0.30099998E+02  0.11644E+06
 0.30149998E+02  0.12853E+06
 0.30199997E+02  0.84580E+05
 0.30249996E+02  0.53312E+05
 0.30299999E+02  0.72849E+05
 0.30349998E+02  0.97680E+05
 0.30399998E+02  0.65943E+05
 0.30449997E+02  0.34409E+05
 0.30499996E+02  0.10195E+06
 0.30549999E+02  0.14959E+06
 0.30599998E+02  0.11418E+06
 0.30649998E+02  0.80752E+05
 0.30699997E+02  0.10636E+06
 0.30749996E+02  0.91863E+05
 0.30799999E+02  0.40605E+05
 0.30849998E+02  0.24080E+05
 0.30899998E+02 -0.35066E+05
 0.30949997E+02 -0.63217E+05
 0.30999996E+02 -0.23366E+05
 0.31049999E+02 -0.40162E+05
 0.31099998E+02 -0.56726E+05
 0.31149998E+02 -0.10783E+06
 0.31199997E+02 -0.24579E+06
 0.31249996E+02 -0.29232E+06
 0.31299999E+02 -0.32932E+06
 0.31349998E+02 -0.33713E+06
 0.31399998E+02 -0.28014E+06
 0.31449997E+02 -0.25066E+06
 0.31499996E+02 -0.20349E+06
 0.31549999E+02 -0.14188E+06
 0.31599998E+02 -0.68972E+05
 0.31649998E+02 -0.77888E+04
 0.31699997E+02 -0.91584E+04
 0.31749996E+02 -0.82278E+05
 0.31799999E+02 -0.16046E+06
 0.31849998E+02 -0.23383E+06
 0.31899998E+02 -0.24886E+06
 0.31949997E+02 -0.22458E+06
 0.31999996E+02 -0.14608E+06
 0.32049999E+02  0.39008E+05
 0.32099998E+02  0.20495E+06
 0.32149998E+02  0.33454E+06
 0.32199997E+02  0.25965E+06
 0.32249996E+02  0.35487E+04
 0.32299999E+02 -0.17461E+06
 0.32349998E+02 -0.36440E+06
 0.32399998E+02 -0.50110E+06
 0.32449997E+02 -0.30318E+06
 0.32499996E+02 -0.31986E+05
 0.32549999E+02  0.20770E+06
 0.32599998E+02  0.51369E+06
 0.32649998E+02  0.68393E+06
 0.32699997E+02  0.63996E+06
 0.32749996E+02  0.34256E+06
 0.32799999E+02 -0.83559E+05
 0.32849998E+02 -0.30475E+06
 0.32899998E+02 -0.31186E+06
 0.32949997E+02 -0.18346E+06
 0.32999996E+02  0.12376E+06
 0.33049999E+02  0.40207E+06
 0.33099998E+02  0.47731E+06
 0.33149998E+02  0.31687E+06
 0.33199997E+02  0.25901E+06
 0.33249996E+02  0.27844E+06
 0.33299999E+02  0.79821E+05
 0.33349998E+02 -0.81668E+05
 0.33399998E+02 -0.67097E+05
 0.33449997E+02 -0.77130E+04
 0.33499996E+02  0.81825E+05
 0.33549999E+02  0.17289E+06
 0.33599998E+02  0.45590E+06
 0.33649998E+02  0.73167E+06
 0.33699997E+02  0.64939E+06
 0.33749996E+02  0.55046E+06
 0.33799999E+02  0.21934E+06
 0.33849998E+02 -0.41279E+06
 0.33899998E+02 -0.76576E+06
 0.33949997E+02 -0.10181E+07
 0.33999996E+02 -0.10230E+07
 0.34049999E+02 -0.67616E+06
 0.34099998E+02 -0.52085E+06
 0.34149998E+02 -0.21920E+06
 0.34199997E+02  0.82945E+05
 0.34249996E+02  0.70091E+05
 0.34299999E+02 -0.34920E+05
 0.34349998E+02 -0.21280E+06
 0.34399998E+02 -0.51144E+06
 0.34449997E+02 -0.80956E+06
 0.34499996E+02 -0.76234E+06
 0.34549999E+02 -0.32826E+06
 0.34599998E+02  0.14464E+06
 0.34649998E+02  0.36810E+06
 0.34699997E+02  0.31077E+06
 0.34749996E+02  0.21110E+06
 0.34799999E+02  0.54482E+05
 0.34849998E+02 -0.15406E+06
 0.34899998E+02 -0.10033E+06
 0.34949997E+02 -0.14369E+06
 0.34999996E+02 -0.13399E+06
 0.35049999E+02  0.21225E+05
 0.35099998E+02  0.40318E+05
 0.35149998E+02  0.14468E+06
 0.35199997E+02  0.28015E+06
 0.35249996E+02  0.39262E+06
 0.35299999E+02  0.39468E+06
 0.35349998E+02  0.39104E+06
 0.35399998E+02  0.43320E+06
 0.35449997E+02  0.42625E+06
 0.35499996E+02  0.63754E+06
 0.35549999E+02  0.82135E+06
 0.35599998E+02  0.10407E+07
 0.35649998E+02  0.12361E+07
 0.35699997E+02  0.98302E+06
 0.35749996E+02  0.64899E+06
 0.35799999E+02  0.33218E+06
 0.35849998E+02  0.15370E+05
 0.35899998E+02 -0.25240E+06
 0.35949997E+02 -0.24630E+06
 0.35999996E+02 -0.22516E+06
 0.36049999E+02 -0.49665E+06
 0.36099998E+02 -0.73830E+06
 0.36149998E+02 -0.81716E+06
 0.36199997E+02 -0.81844E+06
 0.36249996E+02 -0.78011E+06
 0.36299999E+02 -0.55997E+06
 0.36349998E+02 -0.31085E+06
 0.36399998E+02 -0.10508E+06
 0.36449997E+02  0.79087E+05
 0.36499996E+02  0.20458E+06
 0.36549999E+02  0.22013E+06
 0.36599998E+02  0.29701E+06
 0.36649998E+02  0.58281E+06
 0.36699997E+02  0.93280E+06
 0.36749996E+02  0.12574E+07
 0.36799999E+02  0.13747E+07
 0.36849998E+02  0.11906E+07
 0.36899998E+02  0.88873E+06
 0.36949997E+02  0.48268E+06
 0.36999996E+02  0.11799E+04
 0.37049999E+02 -0.36218E+06
 0.37099998E+02 -0.57541E+06
 0.37149998E+02 -0.52320E+06
 0.37199997E+02 -0.45387E+06
 0.37249996E+02 -0.39328E+06
 0.37299999E+02 -0.75082E+05
 0.37349998E+02  0.30733E+06
 0.37399998E+02  0.34943E+06
 0.37449997E+02  0.15091E+06
 0.37499996E+02  0.15269E+05
 0.37549999E+02 -0.15337E+06
 0.37599998E+02 -0.17471E+06
 0.37649998E+02 -0.13144E+06
 0.37699997E+02 -0.15622E+06
 0.37749996E+02  0.15928E+04
 0.37799999E+02  0.16610E+06
 0.37849998E+02  0.20397E+06
 0.37899998E+02  0.23205E+06
 0.37949997E+02  0.20487E+06
 0.37999996E+02  0.14841E+06
 0.38049999E+02  0.99970E+05
 0.38099998E+02  0.29501E+06
 0.38149998E+02  0.74291E+06
 0.38199997E+02  0.98335E+06
 0.38249996E+02  0.10776E+07
 0.38299999E+02  0.12557E+07
 0.38349998E+02  0.11365E+07
 0.38399998E+02  0.80595E+06
 0.38449997E+02  0.58434E+06
 0.38499996E+02  0.37021E+06
 0.38549999E+02  0.26397E+06
 0.38599998E+02  0.24700E+06
 0.38649998E+02  0.27435E+06
 0.38699997E+02  0.24941E+06
 0.38749996E+02  0.30175E+05
 0.38799999E+02 -0.15761E+06
 0.38849998E+02 -0.16953E+06
 0.38899998E+02 -0.52240E+05
 0.38949997E+02  0.97714E+05
 0.38999996E+02  0.13100E+06
 0.39049999E+02  0.14026E+06
 0.39099998E+02  0.24124E+06
 0.39149998E+02  0.32792E+06
 0.39199997E+02  0.27100E+06
 0.39249996E+02  0.23357E+06
 0.39299999E+02  0.23609E+06
 0.39349998E+02  0.27656E+06
 0.39399998E+02  0.47680E+06
 0.39449997E+02  0.48596E+06
 0.39499996E+02  0.42955E+06
 0.39549999E+02  0.60475E+06
 0.39599998E+02  0.79968E+06
 0.39649998E+02  0.78703E+06
 0.39699997E+02  0.56716E+06
 0.39749996E+02  0.35236E+06
 0.39799999E+02  0.93040E+05
 0.39849998E+02 -0.31211E+06
 0.39899998E+02 -0.49065E+06
 0.39949997E+02 -0.41201E+06
 0.39999996E+02 -0.37288E+06
 0.40049999E+02 -0.25464E+06
 0.40099998E+02 -0.53201E+05
 0.40149998E+02  0.77999E+05
 0.40199997E+02  0.12174E+06
 0.40249996E+02  0.84230E+05
 0.40299999E+02  0.29007E+04
 0.40349998E+02 -0.61662E+05
 0.40399998E+02 -0.18912E+06
 0.40449997E+02 -0.38891E+06
 0.40499996E+02 -0.45706E+06
 0.40549999E+02 -0.40368E+06
 0.40599998E+02 -0.32285E+06
 0.40649998E+02 -0.15061E+06
 0.40699997E+02 -0.72647E+05
 0.40749996E+02 -0.14765E+06
 0.40799999E+02 -0.33726E+06
 0.40849998E+02 -0.55607E+06
 0.40899998E+02 -0.67859E+06
 0.40949997E+02 -0.62283E+06
 0.40999996E+02 -0.39035E+06
 0.41049999E+02 -0.12547E+06
 0.41099998E+02  0.13632E+06
 0.41149998E+02  0.22704E+06
 0.41199997E+02  0.15036E+06
 0.41249996E+02 -0.11271E+06
 0.41299999E+02 -0.43414E+06
 0.41349998E+02 -0.51684E+06
 0.41399998E+02 -0.47699E+06
 0.41449997E+02 -0.36653E+06
 0.41499996E+02 -0.15278E+06
 0.41549999E+02 -0.66418E+05
 0.41599998E+02 -0.11660E+06
 0.41649998E+02 -0.23895E+06
 0.41699997E+02 -0.44167E+06
 0.41749996E+02 -0.54520E+06
 0.41799999E+02 -0.60844E+06
 0.41849998E+02 -0.68076E+06
 0.41899998E+02 -0.63422E+06
 0.41949997E+02 -0.47239E+06
 0.41999996E+02 -0.38066E+06
 0.42049999E+02 -0.35005E+06
 0.42099998E+02 -0.27165E+06
 0.42149998E+02 -0.24520E+06
 0.42199997E+02 -0.34075E+06
 0.42249996E+02 -0.43165E+06
 0.42299999E+02 -0.44577E+06
 0.42349998E+02 -0.49628E+06
 0.42399998E+02 -0.55353E+06
 0.42449997E+02 -0.57156E+06
 0.42499996E+02 -0.58647E+06
 0.42549999E+02 -0.60844E+06
 0.42599998E+02 -0.61536E+06
 0.42649998E+02 -0.62125E+06
 0.42699997E+02 -0.56644E+06
 0.42749996E+02 -0.56423E+06
 0.42799995E+02 -0.58016E+06
 0.42849998E+02 -0.44514E+06
 0.42899998E+02 -0.39851E+06
 0.42949997E+02 -0.47143E+06
 0.42999996E+02 -0.51310E+06
 0.43049995E+02 -0.47235E+06
 0.43099998E+02 -0.44015E+06
 0.43149998E+02 -0.46601E+06
 0.43199997E+02 -0.42660E+06
 0.43249996E+02 -0.32954E+06
 0.43299995E+02 -0.18075E+06
 0.43349998E+02  0.55968E+05
 0.43399998E+02  0.30887E+06
 0.43449997E+02  0.45506E+06
 0.43499996E+02  0.50901E+06
 0.43549995E+02  0.44699E+06
 0.43599998E+02  0.24989E+06
 0.43649998E+02  0.74981E+05
 0.43699997E+02 -0.46993E+05
 0.43749996E+02 -0.11036E+06
 0.43799995E+02 -0.17368E+05
 0.43849998E+02  0.26117E+06
 0.43899998E+02  0.46543E+06
 0.43949997E+02  0.59203E+06
 0.43999996E+02  0.73784E+06
 0.44049995E+02  0.77046E+06
 0.44099998E+02  0.73313E+06
 0.44149998E+02  0.69841E+06
 0.44199997E+02  0.67698E+06
 0.44249996E+02  0.61617E+06
 0.44299995E+02  0.56565E+06
 0.44349998E+02  0.45638E+06
 0.44399998E+02  0.34318E+06
 0.44449997E+02  0.27020E+06
 0.44499996E+02  0.10818E+06
 0.44549995E+02 -0.33172E+05
 0.44599998E+02 -0.17163E+06
 0.44649998E+02 -0.34574E+06
 0.44699997E+02 -0.48684E+06
 0.44749996E+02 -0.57369E+06
 0.44799995E+02 -0.59783E+06
 0.44849998E+02 -0.58837E+06
 0.44899998E+02 -0.64795E+06
 0.44949997E+02 -0.75304E+06
 0.44999996E+02 -0.75825E+06
 0.45049995E+02 -0.67783E+06
 0.45099998E+02 -0.53385E+06
 0.45149998E+02 -0.36033E+06
 0.45199997E+02 -0.20991E+06
 0.45249996E+02 -0.59458E+05
 0.45299995E+02  0.10514E+06
 0.45349998E+02  0.31306E+06
 0.45399998E+02  0.45557E+06
 0.45449997E+02  0.41164E+06
 0.45499996E+02  0.22028E+06
 0.45549995E+02 -0.78085E+05
 0.45599998E+02 -0.41893E+06
 0.45649998E+02 -0.53710E+06
 0.45699997E+02 -0.43980E+06
 0.45749996E+02 -0.34161E+06
 0.45799995E+02 -0.25525E+06
 0.45849998E+02 -0.19897E+06
 0.45899998E+02 -0.17451E+06
 0.45949997E+02 -0.16306E+06
 0.45999996E+02 -0.15893E+06
 0.46049995E+02 -0.12390E+06
 0.46099998E+02  0.56343E+04
 0.46149998E+02  0.93015E+05
 0.46199997E+02  0.86350E+05
 0.46249996E+02  0.92571E+05
 0.46299995E+02  0.90391E+05
 0.46349998E+02  0.45938E+05
 0.46399998E+02 -0.69601E+05
 0.46449997E+02 -0.20970E+06
 0.46499996E+02 -0.31813E+06
 0.46549995E+02 -0.41191E+06
 0.46599998E+02 -0.43621E+06
 0.46649998E+02 -0.34022E+06
 0.46699997E+02 -0.14688E+06
 0.46749996E+02  0.78165E+05
 0.46799995E+02  0.22338E+06
 0.46849998E+02  0.32581E+06
 0.46899998E+02  0.48101E+06
 0.46949997E+02  0.60936E+06
 0.46999996E+02  0.66188E+06
 0.47049995E+02  0.67130E+06
 0.47099998E+02  0.64039E+06
 0.47149998E+02  0.58260E+06
 0.47199997E+02  0.52908E+06
 0.47249996E+02  0.49566E+06
 0.47299995E+02  0.47181E+06
 0.47349998E+02  0.34174E+06
 0.47399998E+02  0.14271E+06
 0.47449997E+02 -0.67150E+04
 0.47499996E+02 -0.11820E+06
 0.47549995E+02 -0.12864E+06
 0.47599998E+02 -0.53442E+05
 0.47649998E+02  0.50673E+04
 0.47699997E+02  0.12960E+05
 0.47749996E+02  0.17499E+05
 0.47799995E+02  0.31997E+05
 0.47849998E+02  0.24545E+05
 0.47899998E+02  0.94307E+04
 0.47949997E+02  0.22295E+05
 0.47999996E+02  0.20766E+05
 0.48049995E+02 -0.82455E+04
 0.48099998E+02 -0.31226E+05
 0.48149998E+02 -0.64847E+05
 0.48199997E+02 -0.89053E+05
 0.48249996E+02 -0.10997E+06
 0.48299995E+02 -0.14437E+06
 0.48349998E+02 -0.11165E+06
 0.48399998E+02 -0.41418E+05
 0.48449997E+02 -0.32887E+05
 0.48499996E+02 -0.59402E+05
 0.48549995E+02 -0.11936E+06
 0.48599998E+02 -0.22809E+06
 0.48649998E+02 -0.35981E+06
 0.48699997E+02 -0.44301E+06
 0.48749996E+02 -0.47268E+06
 0.48799995E+02 -0.43701E+06
 0.48849998E+02 -0.39634E+06
 0.48899998E+02 -0.44291E+06
 0.48949997E+02 -0.48762E+06
 0.48999996E+02 -0.55079E+06
 0.49049995E+02 -0.62400E+06
 0.49099998E+02 -0.64147E+06
 0.49149998E+02 -0.65301E+06
 0.49199997E+02 -0.64757E+06
 0.49249996E+02 -0.63944E+06
 0.49299995E+02 -0.64834E+06
 0.49349998E+02 -0.64330E+06
 0.49399998E+02 -0.60970E+06
 0.49449997E+02 -0.50024E+06
 0.49499996E+02 -0.30502E+06
 0.49549995E+02 -0.84746E+05
 0.49599998E+02  0.74133E+05
 0.49649998E+02  0.18750E+06
 0.49699997E+02  0.31721E+06
 0.49749996E+02  0.40580E+06
 0.49799995E+02  0.44286E+06
 0.49849998E+02  0.46091E+06
 0.49899998E+02  0.44641E+06
 0.49949997E+02  0.42597E+06
 0.49999996E+02  0.42869E+06
 0.50049995E+02  0.50698E+06
 0.50099998E+02  0.61483E+06
 0.50149998E+02  0.73826E+06
 0.50199997E+02  0.90621E+06
 0.50249996E+02  0.99193E+06
 0.50299995E+02  0.10067E+07
 0.50349998E+02  0.98973E+06
 0.50399998E+02  0.94339E+06
 0.50449997E+02  0.94513E+06
 0.50499996E+02  0.10254E+07
 0.50549995E+02  0.10815E+07
 0.50599998E+02  0.10395E+07
 0.50649998E+02  0.89242E+06
 0.50699997E+02  0.62547E+06
 0.50749996E+02  0.31216E+06
 0.50799995E+02 -0.27764E+05
 0.50849998E+02 -0.37733E+06
 0.50899998E+02 -0.66170E+06
 0.50949997E+02 -0.86896E+06
 0.50999996E+02 -0.10436E+07
 0.51049995E+02 -0.11645E+07
 0.51099998E+02 -0.12073E+07
 0.51149998E+02 -0.11737E+07
 0.51199997E+02 -0.10343E+07
 0.51249996E+02 -0.85322E+06
 0.51299995E+02 -0.64762E+06
 0.51349998E+02 -0.40386E+06
 0.51399998E+02 -0.16906E+06
 0.51449997E+02  0.21058E+05
 0.51499996E+02  0.11968E+06
 0.51549995E+02  0.14796E+06
 0.51599998E+02  0.15301E+06
 0.51649998E+02  0.12733E+06
 0.51699997E+02  0.89509E+05
 0.51749996E+02  0.71106E+05
 0.51799995E+02  0.95882E+05
 0.51849998E+02  0.14700E+06
 0.51899998E+02  0.20023E+06
 0.51949997E+02  0.25476E+06
 0.51999996E+02  0.30611E+06
 0.52049995E+02  0.38588E+06
 0.52099998E+02  0.47605E+06
 0.52149998E+02  0.52329E+06
 0.52199997E+02  0.50510E+06
 0.52249996E+02  0.42698E+06
 0.52299995E+02  0.30952E+06
 0.52349998E+02  0.20540E+06
 0.52399998E+02  0.14198E+06
 0.52449997E+02  0.82198E+05
 0.52499996E+02  0.38264E+05
 0.52549995E+02  0.22646E+05
 0.52599998E+02  0.20654E+05
 0.52649998E+02  0.37652E+05
 0.52699997E+02  0.68987E+05
 0.52749996E+02  0.12159E+06
 0.52799995E+02  0.20040E+06
 0.52849998E+02  0.29025E+06
 0.52899998E+02  0.35833E+06
 0.52949997E+02  0.39296E+06
 0.52999996E+02  0.40812E+06
 0.53049995E+02  0.39301E+06
 0.53099998E+02  0.34346E+06
 0.53149998E+02  0.26711E+06
 0.53199997E+02  0.16246E+06
 0.53249996E+02  0.44164E+05
 0.53299995E+02 -0.74402E+05
 0.53349998E+02 -0.17416E+06
 0.53399998E+02 -0.24374E+06
 0.53449997E+02 -0.26720E+06
 0.53499996E+02 -0.20825E+06
 0.53549995E+02 -0.91669E+05
 0.53599998E+02  0.30299E+05
 0.53649998E+02  0.10776E+06
 0.53699997E+02  0.96274E+05
 0.53749996E+02  0.10898E+05
 0.53799995E+02 -0.87634E+05
 0.53849998E+02 -0.13407E+06
 0.53899998E+02 -0.12132E+06
 0.53949997E+02 -0.65545E+05
 0.53999996E+02  0.69702E+04
 0.54049995E+02  0.43052E+05
 0.54099998E+02  0.22576E+05
 0.54149998E+02 -0.73031E+05
 0.54199997E+02 -0.18613E+06
 0.54249996E+02 -0.24400E+06
 0.54299995E+02 -0.25704E+06
 0.54349998E+02 -0.20239E+06
 0.54399998E+02 -0.10871E+06
 0.54449997E+02 -0.28963E+05
 0.54499996E+02  0.50777E+05
 0.54549995E+02  0.12156E+06
 0.54599998E+02  0.14891E+06
 0.54649998E+02  0.14417E+06
 0.54699997E+02  0.15036E+06
 0.54749996E+02  0.16007E+06
 0.54799995E+02  0.18151E+06
 0.54849998E+02  0.21213E+06
 0.54899998E+02  0.22973E+06
 0.54949997E+02  0.23807E+06
 0.54999996E+02  0.21784E+06
 0.55049995E+02  0.17327E+06
 0.55099998E+02  0.10973E+06
 0.55149998E+02  0.16711E+05
 0.55199997E+02 -0.55084E+05
 0.55249996E+02 -0.77409E+05
 0.55299995E+02 -0.62254E+05
 0.55349998E+02 -0.11295E+05
 0.55399998E+02  0.52706E+05
 0.55449997E+02  0.11013E+06
 0.55499996E+02  0.17300E+06
 0.55549995E+02  0.26458E+06
 0.55599998E+02  0.38949E+06
 0.55649998E+02  0.51302E+06
 0.55699997E+02  0.57203E+06
 0.55749996E+02  0.57738E+06
 0.55799995E+02  0.54108E+06
 0.55849995E+02  0.47040E+06
 0.55899998E+02  0.41455E+06
 0.55949997E+02  0.37651E+06
 0.55999996E+02  0.33120E+06
 0.56049995E+02  0.29250E+06
 0.56099995E+02  0.26291E+06
 0.56149998E+02  0.23681E+06
 0.56199997E+02  0.24148E+06
 0.56249996E+02  0.26951E+06
 0.56299995E+02  0.28773E+06
 0.56349995E+02  0.25577E+06
 0.56399998E+02  0.21390E+06
 0.56449997E+02  0.17398E+06
 0.56499996E+02  0.13506E+06
 0.56549995E+02  0.13449E+06
 0.56599995E+02  0.14026E+06
 0.56649998E+02  0.12144E+06
 0.56699997E+02  0.63249E+05
 0.56749996E+02 -0.38339E+05
 0.56799995E+02 -0.15508E+06
 0.56849995E+02 -0.27255E+06
 0.56899998E+02 -0.38383E+06
 0.56949997E+02 -0.47541E+06
 0.56999996E+02 -0.55034E+06
 0.57049995E+02 -0.59826E+06
 0.57099995E+02 -0.63114E+06
 0.57149998E+02 -0.65561E+06
 0.57199997E+02 -0.67479E+06
 0.57249996E+02 -0.69453E+06
 0.57299995E+02 -0.72414E+06
 0.57349995E+02 -0.75031E+06
 0.57399998E+02 -0.74331E+06
 0.57449997E+02 -0.70572E+06
 0.57499996E+02 -0.63695E+06
 0.57549995E+02 -0.55159E+06
 0.57599995E+02 -0.46663E+06
 0.57649998E+02 -0.40215E+06
 0.57699997E+02 -0.34808E+06
 0.57749996E+02 -0.30225E+06
 0.57799995E+02 -0.27191E+06
 0.57849995E+02 -0.23045E+06
 0.57899998E+02 -0.17499E+06
 0.57949997E+02 -0.11565E+06
 0.57999996E+02 -0.95157E+05
 0.58049995E+02 -0.11924E+06
 0.58099995E+02 -0.15096E+06
 0.58149998E+02 -0.15949E+06
 0.58199997E+02 -0.14043E+06
 0.58249996E+02 -0.10473E+06
 0.58299995E+02 -0.62631E+05
 0.58349995E+02 -0.32083E+05
 0.58399998E+02 -0.39513E+04
 0.58449997E+02  0.22413E+05
 0.58499996E+02  0.67110E+05
 0.58549995E+02  0.14811E+06
 0.58599995E+02  0.21645E+06
 0.58649998E+02  0.25050E+06
 0.58699997E+02  0.25475E+06
 0.58749996E+02  0.23582E+06
 0.58799995E+02  0.22334E+06
 0.58849995E+02  0.21604E+06
 0.58899998E+02  0.22509E+06
 0.58949997E+02  0.26453E+06
 0.58999996E+02  0.31913E+06
 0.59049995E+02  0.36445E+06
 0.59099995E+02  0.39898E+06
 0.59149998E+02  0.42759E+06
 0.59199997E+02  0.43159E+06
 0.59249996E+02  0.38558E+06
 0.59299995E+02  0.29219E+06
 0.59349995E+02  0.20019E+06
 0.59399998E+02  0.14278E+06
 0.59449997E+02  0.11394E+06
 0.59499996E+02  0.10097E+06
 0.59549995E+02  0.91348E+05
 0.59599995E+02  0.66578E+05
 0.59649998E+02  0.24975E+05
 0.59699997E+02 -0.19615E+05
 0.59749996E+02 -0.44277E+05
 0.59799995E+02 -0.42863E+05
 0.59849995E+02 -0.24697E+05
 0.59899998E+02  0.96602E+04
 0.59949997E+02  0.64595E+05
 0.59999996E+02  0.13198E+06
 0.60049995E+02  0.18672E+06
 0.60099995E+02  0.21415E+06
 0.60149998E+02  0.20073E+06
 0.60199997E+02  0.14989E+06
 0.60249996E+02  0.81987E+05
 0.60299995E+02  0.30303E+05
 0.60349995E+02  0.56520E+04
 0.60399998E+02 -0.63591E+04
 0.60449997E+02 -0.96225E+04
 0.60499996E+02 -0.34899E+05
 0.60549995E+02 -0.81165E+05
 0.60599995E+02 -0.10667E+06
 0.60649998E+02 -0.11685E+06
 0.60699997E+02 -0.12151E+06
 0.60749996E+02 -0.10730E+06
 0.60799995E+02 -0.93915E+05
 0.60849995E+02 -0.76471E+05
 0.60899998E+02 -0.45507E+05
 0.60949997E+02 -0.31839E+05
 0.60999996E+02 -0.33948E+05
 0.61049995E+02 -0.60973E+05
 0.61099995E+02 -0.12418E+06
 0.61149998E+02 -0.19183E+06
 0.61199997E+02 -0.24047E+06
 0.61249996E+02 -0.27887E+06
 0.61299995E+02 -0.31239E+06
 0.61349995E+02 -0.32933E+06
 0.61399998E+02 -0.32868E+06
 0.61449997E+02 -0.31659E+06
 0.61499996E+02 -0.28698E+06
 0.61549995E+02 -0.24475E+06
 0.61599995E+02 -0.22124E+06
 0.61649998E+02 -0.20933E+06
 0.61699997E+02 -0.17945E+06
 0.61749996E+02 -0.12818E+06
 0.61799995E+02 -0.58903E+05
 0.61849995E+02  0.27471E+05
 0.61899998E+02  0.11039E+06
 0.61949997E+02  0.18766E+06
 0.61999996E+02  0.26445E+06
 0.62049995E+02  0.32977E+06
 0.62099998E+02  0.37586E+06
 0.62149994E+02  0.38698E+06
 0.62199997E+02  0.36220E+06
 0.62249992E+02  0.31854E+06
 0.62299995E+02  0.26973E+06
 0.62349998E+02  0.21731E+06
 0.62399994E+02  0.16831E+06
 0.62449997E+02  0.12149E+06
 0.62499992E+02  0.77774E+05
 0.62549995E+02  0.30412E+05
 0.62599998E+02 -0.37565E+05
 0.62649994E+02 -0.11809E+06
 0.62699997E+02 -0.20449E+06
 0.62749992E+02 -0.28547E+06
 0.62799995E+02 -0.35341E+06
 0.62849998E+02 -0.41970E+06
 0.62899994E+02 -0.47941E+06
 0.62949997E+02 -0.51384E+06
 0.62999992E+02 -0.53151E+06
 0.63049995E+02 -0.54811E+06
 0.63099998E+02 -0.54883E+06
 0.63149994E+02 -0.52839E+06
 0.63199997E+02 -0.48780E+06
 0.63249992E+02 -0.42716E+06
 0.63299995E+02 -0.34153E+06
 0.63349998E+02 -0.23953E+06
 0.63399994E+02 -0.14045E+06
 0.63449997E+02 -0.62548E+05
 0.63499992E+02 -0.19521E+05
 0.63549995E+02 -0.89670E+04
 0.63599998E+02 -0.30493E+05
 0.63649994E+02 -0.82599E+05
 0.63699997E+02 -0.15684E+06
 0.63749992E+02 -0.22135E+06
 0.63799995E+02 -0.26579E+06
 0.63849998E+02 -0.29475E+06
 0.63899994E+02 -0.29099E+06
 0.63949997E+02 -0.25309E+06
 0.63999992E+02 -0.19195E+06
 0.64049995E+02 -0.11697E+06
 0.64099998E+02 -0.47294E+05
 0.64149994E+02  0.25367E+05
 0.64199997E+02  0.10010E+06
 0.64249992E+02  0.15404E+06
 0.64299995E+02  0.20241E+06
 0.64349998E+02  0.24257E+06
 0.64399994E+02  0.25392E+06
 0.64449997E+02  0.23525E+06
 0.64499992E+02  0.20118E+06
 0.64549995E+02  0.18726E+06
 0.64599998E+02  0.21325E+06
 0.64649994E+02  0.27685E+06
 0.64699997E+02  0.35602E+06
 0.64749992E+02  0.42436E+06
 0.64799995E+02  0.48075E+06
 0.64849998E+02  0.52973E+06
 0.64899994E+02  0.57000E+06
 0.64949997E+02  0.60599E+06
 0.64999992E+02  0.63139E+06
 0.65049995E+02  0.63405E+06
 0.65099998E+02  0.61255E+06
 0.65149994E+02  0.57607E+06
 0.65199997E+02  0.52296E+06
 0.65249992E+02  0.45479E+06
 0.65299995E+02  0.38112E+06
 0.65349998E+02  0.28542E+06
 0.65399994E+02  0.19112E+06
 0.65449997E+02  0.12631E+06
 0.65499992E+02  0.86705E+05
 0.65549995E+02  0.73592E+05
 0.65599998E+02  0.74267E+05
 0.65649994E+02  0.69454E+05
 0.65699997E+02  0.43590E+05
 0.65749992E+02 -0.67285E+03
 0.65799995E+02 -0.51792E+05
 0.65849998E+02 -0.10558E+06
 0.65899994E+02 -0.15142E+06
 0.65949997E+02 -0.16957E+06
 0.65999992E+02 -0.15139E+06
 0.66049995E+02 -0.11107E+06
 0.66099998E+02 -0.62179E+05
 0.66149994E+02 -0.14839E+05
 0.66199997E+02  0.11758E+05
 0.66249992E+02  0.38098E+04
 0.66299995E+02 -0.46887E+05
 0.66349998E+02 -0.12349E+06
 0.66399994E+02 -0.20850E+06
 0.66449997E+02 -0.28834E+06
 0.66499992E+02 -0.34207E+06
 0.66549995E+02 -0.37434E+06
 0.66599998E+02 -0.38936E+06
 0.66649994E+02 -0.38788E+06
 0.66699997E+02 -0.39020E+06
 0.66749992E+02 -0.39966E+06
 0.66799995E+02 -0.39872E+06
 0.66849998E+02 -0.38540E+06
 0.66899994E+02 -0.36074E+06
 0.66949997E+02 -0.33824E+06
 0.66999992E+02 -0.32673E+06
 0.67049995E+02 -0.32654E+06
 0.67099998E+02 -0.33444E+06
 0.67149994E+02 -0.34423E+06
 0.67199997E+02 -0.34583E+06
 0.67249992E+02 -0.33993E+06
 0.67299995E+02 -0.35194E+06
 0.67349998E+02 -0.37138E+06
 0.67399994E+02 -0.36930E+06
 0.67449997E+02 -0.34458E+06
 0.67499992E+02 -0.30322E+06
 0.67549995E+02 -0.23820E+06
 0.67599998E+02 -0.15606E+06
 0.67649994E+02 -0.68726E+05
 0.67699997E+02  0.65154E+04
 0.67749992E+02  0.47638E+05
 0.67799995E+02  0.58349E+05
 0.67849998E+02  0.57091E+05
 0.67899994E+02  0.64749E+05
 0.67949997E+02  0.81628E+05
 0.67999992E+02  0.94440E+05
 0.68049995E+02  0.96742E+05
 0.68099998E+02  0.87135E+05
 0.68149994E+02  0.74697E+05
 0.68199997E+02  0.55955E+05
 0.68249992E+02  0.14510E+05
 0.68299995E+02 -0.44328E+05
 0.68349998E+02 -0.10259E+06
 0.68399994E+02 -0.14543E+06
 0.68449997E+02 -0.15844E+06
 0.68499992E+02 -0.14430E+06
 0.68549995E+02 -0.10636E+06
 0.68599998E+02 -0.55747E+05
 0.68649994E+02 -0.18711E+05
 0.68699997E+02  0.82965E+04
 0.68749992E+02  0.41354E+05
 0.68799995E+02  0.77641E+05
 0.68849998E+02  0.11277E+06
 0.68899994E+02  0.14562E+06
 0.68949997E+02  0.16551E+06
 0.68999992E+02  0.17302E+06
 0.69049995E+02  0.16225E+06
 0.69099998E+02  0.12071E+06
 0.69149994E+02  0.70692E+05
 0.69199997E+02  0.24963E+05
 0.69249992E+02 -0.51016E+04
 0.69299995E+02 -0.71228E+04
 0.69349998E+02  0.12226E+05
 0.69399994E+02  0.52352E+05
 0.69449997E+02  0.10469E+06
 0.69499992E+02  0.15586E+06
 0.69549995E+02  0.19485E+06
 0.69599998E+02  0.22671E+06
 0.69649994E+02  0.25880E+06
 0.69699997E+02  0.27887E+06
 0.69749992E+02  0.27379E+06
 0.69799995E+02  0.24913E+06
 0.69849998E+02  0.20869E+06
 0.69899994E+02  0.15524E+06
 0.69949997E+02  0.11022E+06
 0.69999992E+02  0.88541E+05
 0.70049995E+02  0.88858E+05
 0.70099998E+02  0.10585E+06
 0.70149994E+02  0.12820E+06
 0.70199997E+02  0.14889E+06
 0.70249992E+02  0.16161E+06
 0.70299995E+02  0.15725E+06
 0.70349998E+02  0.14131E+06
 0.70399994E+02  0.11321E+06
 0.70449997E+02  0.73797E+05
 0.70499992E+02  0.22684E+05
 0.70549995E+02 -0.38274E+05
 0.70599998E+02 -0.10256E+06
 0.70649994E+02 -0.16299E+06
 0.70699997E+02 -0.20727E+06
 0.70749992E+02 -0.23500E+06
 0.70799995E+02 -0.24868E+06
 0.70849998E+02 -0.24979E+06
 0.70899994E+02 -0.23888E+06
 0.70949997E+02 -0.21968E+06
 0.70999992E+02 -0.19640E+06
 0.71049995E+02 -0.17966E+06
 0.71099998E+02 -0.16703E+06
 0.71149994E+02 -0.13861E+06
 0.71199997E+02 -0.86331E+05
 0.71249992E+02 -0.99556E+04
 0.71299995E+02  0.76209E+05
 0.71349998E+02  0.15017E+06
 0.71399994E+02  0.20443E+06
 0.71449997E+02  0.24434E+06
 0.71499992E+02  0.27492E+06
 0.71549995E+02  0.30021E+06
 0.71599998E+02  0.32026E+06
 0.71649994E+02  0.33724E+06
 0.71699997E+02  0.35437E+06
 0.71749992E+02  0.36770E+06
 0.71799995E+02  0.37531E+06
 0.71849998E+02  0.38026E+06
 0.71899994E+02  0.38364E+06
 0.71949997E+02  0.38072E+06
 0.71999992E+02  0.37026E+06
 0.72049995E+02  0.34931E+06
 0.72099998E+02  0.31431E+06
 0.72149994E+02  0.27765E+06
 0.72199997E+02  0.25188E+06
 0.72249992E+02  0.23135E+06
 0.72299995E+02  0.20722E+06
 0.72349998E+02  0.17732E+06
 0.72399994E+02  0.14747E+06
 0.72449997E+02  0.11905E+06
 0.72499992E+02  0.94153E+05
 0.72549995E+02  0.80355E+05
 0.72599998E+02  0.69768E+05
 0.72649994E+02  0.63280E+05
 0.72699997E+02  0.77994E+05
 0.72749992E+02  0.10385E+06
 0.72799995E+02  0.11946E+06
 0.72849998E+02  0.12284E+06
 0.72899994E+02  0.10994E+06
 0.72949997E+02  0.85888E+05
 0.72999992E+02  0.65612E+05
 0.73049995E+02  0.50071E+05
 0.73099998E+02  0.40125E+05
 0.73149994E+02  0.44489E+05
 0.73199997E+02  0.66728E+05
 0.73249992E+02  0.92872E+05
 0.73299995E+02  0.10669E+06
 0.73349998E+02  0.10143E+06
 0.73399994E+02  0.75434E+05
 0.73449997E+02  0.34153E+05
 0.73499992E+02 -0.14165E+05
 0.73549995E+02 -0.62670E+05
 0.73599998E+02 -0.10763E+06
 0.73649994E+02 -0.14846E+06
 0.73699997E+02 -0.18031E+06
 0.73749992E+02 -0.20260E+06
 0.73799995E+02 -0.21379E+06
 0.73849998E+02 -0.21213E+06
 0.73899994E+02 -0.21032E+06
 0.73949997E+02 -0.20827E+06
 0.73999992E+02 -0.20321E+06
 0.74049995E+02 -0.20321E+06
 0.74099998E+02 -0.21052E+06
 0.74149994E+02 -0.21999E+06
 0.74199997E+02 -0.23085E+06
 0.74249992E+02 -0.24219E+06
 0.74299995E+02 -0.24463E+06
 0.74349998E+02 -0.23364E+06
 0.74399994E+02 -0.20585E+06
 0.74449997E+02 -0.16611E+06
 0.74499992E+02 -0.12757E+06
 0.74549995E+02 -0.89787E+05
 0.74599998E+02 -0.55651E+05
 0.74649994E+02 -0.37520E+05
 0.74699997E+02 -0.32998E+05
 0.74749992E+02 -0.34892E+05
 0.74799995E+02 -0.28704E+05
 0.74849998E+02 -0.74147E+04
 0.74899994E+02  0.18522E+05
 0.74949997E+02  0.48288E+05
 0.74999992E+02  0.71283E+05
 0.75049995E+02  0.77430E+05
 0.75099998E+02  0.75312E+05
 0.75149994E+02  0.68242E+05
 0.75199997E+02  0.53607E+05
 0.75249992E+02  0.34040E+05
 0.75299995E+02  0.15528E+05
 0.75349998E+02 -0.19649E+04
 0.75399994E+02 -0.15563E+05
 0.75449997E+02 -0.22924E+05
 0.75499992E+02 -0.29443E+05
 0.75549995E+02 -0.45346E+05
 0.75599998E+02 -0.70497E+05
 0.75649994E+02 -0.90351E+05
 0.75699997E+02 -0.10251E+06
 0.75749992E+02 -0.10431E+06
 0.75799995E+02 -0.89393E+05
 0.75849998E+02 -0.62899E+05
 0.75899994E+02 -0.37725E+05
 0.75949997E+02 -0.18569E+05
 0.75999992E+02  0.12232E+04
 0.76049995E+02  0.21181E+05
 0.76099998E+02  0.35714E+05
 0.76149994E+02  0.46296E+05
 0.76199997E+02  0.48327E+05
 0.76249992E+02  0.31650E+05
 0.76299995E+02  0.14480E+05
 0.76349998E+02  0.17943E+05
 0.76399994E+02  0.33695E+05
 0.76449997E+02  0.60528E+05
 0.76499992E+02  0.95918E+05
 0.76549995E+02  0.12098E+06
 0.76599998E+02  0.12604E+06
 0.76649994E+02  0.11581E+06
 0.76699997E+02  0.10344E+06
 0.76749992E+02  0.89618E+05
 0.76799995E+02  0.71679E+05
 0.76849998E+02  0.56681E+05
 0.76899994E+02  0.48804E+05
 0.76949997E+02  0.40599E+05
 0.76999992E+02  0.24621E+05
 0.77049995E+02 -0.91430E+03
 0.77099998E+02 -0.29237E+05
 0.77149994E+02 -0.51246E+05
 0.77199997E+02 -0.65911E+05
 0.77249992E+02 -0.71689E+05
 0.77299995E+02 -0.72812E+05
 0.77349998E+02 -0.66312E+05
 0.77399994E+02 -0.48573E+05
 0.77449997E+02 -0.21065E+05
 0.77499992E+02  0.94884E+04
 0.77549995E+02  0.33503E+05
 0.77599998E+02  0.50713E+05
 0.77649994E+02  0.60933E+05
 0.77699997E+02  0.67316E+05
 0.77749992E+02  0.70375E+05
 0.77799995E+02  0.71412E+05
 0.77849998E+02  0.78597E+05
 0.77899994E+02  0.92327E+05
 0.77949997E+02  0.11010E+06
 0.77999992E+02  0.12379E+06
 0.78049995E+02  0.12456E+06
 0.78099998E+02  0.11667E+06
 0.78149994E+02  0.99517E+05
 0.78199997E+02  0.70248E+05
 0.78249992E+02  0.32458E+05
 0.78299995E+02 -0.10980E+05
 0.78349998E+02 -0.62925E+05
 0.78399994E+02 -0.12499E+06
 0.78449997E+02 -0.19175E+06
 0.78499992E+02 -0.25581E+06
 0.78549995E+02 -0.30524E+06
 0.78599998E+02 -0.32899E+06
 0.78649994E+02 -0.33526E+06
 0.78699997E+02 -0.33267E+06
 0.78749992E+02 -0.31551E+06
 0.78799995E+02 -0.29330E+06
 0.78849998E+02 -0.27947E+06
 0.78899994E+02 -0.26520E+06
 0.78949997E+02 -0.24517E+06
 0.78999992E+02 -0.22261E+06
 0.79049995E+02 -0.19368E+06
 0.79099998E+02 -0.16096E+06
 0.79149994E+02 -0.13223E+06
 0.79199997E+02 -0.11469E+06
 0.79249992E+02 -0.11562E+06
 0.79299995E+02 -0.13372E+06
 0.79349998E+02 -0.15688E+06
 0.79399994E+02 -0.17217E+06
 0.79449997E+02 -0.17006E+06
 0.79499992E+02 -0.14929E+06
 0.79549995E+02 -0.11256E+06
 0.79599998E+02 -0.64456E+05
 0.79649994E+02 -0.93443E+04
 0.79699997E+02  0.49006E+05
 0.79749992E+02  0.10165E+06
 0.79799995E+02  0.14532E+06
 0.79849998E+02  0.18095E+06
 0.79899994E+02  0.20772E+06
 0.79949997E+02  0.22402E+06
 0.79999992E+02  0.22965E+06
 0.80049995E+02  0.22339E+06
 0.80099998E+02  0.19992E+06
 0.80149994E+02  0.16183E+06
 0.80199997E+02  0.12240E+06
 0.80249992E+02  0.95095E+05
 0.80299995E+02  0.81561E+05
 0.80349998E+02  0.75253E+05
 0.80399994E+02  0.81390E+05
 0.80449997E+02  0.10292E+06
 0.80499992E+02  0.12656E+06
 0.80549995E+02  0.14255E+06
 0.80599998E+02  0.15057E+06
 0.80649994E+02  0.14779E+06
 0.80699997E+02  0.12735E+06
 0.80749992E+02  0.96343E+05
 0.80799995E+02  0.64562E+05
 0.80849998E+02  0.36617E+05
 0.80899994E+02  0.13815E+05
 0.80949997E+02 -0.10767E+05
 0.80999992E+02 -0.40122E+05
 0.81049995E+02 -0.72533E+05
 0.81099998E+02 -0.95503E+05
 0.81149994E+02 -0.10382E+06
 0.81199997E+02 -0.98661E+05
 0.81249992E+02 -0.80043E+05
 0.81299995E+02 -0.59317E+05
 0.81349998E+02 -0.44461E+05
 0.81399994E+02 -0.28471E+05
 0.81449997E+02 -0.30936E+04
 0.81499992E+02  0.24706E+05
 0.81549995E+02  0.46075E+05
 0.81599998E+02  0.62826E+05
 0.81649994E+02  0.73802E+05
 0.81699997E+02  0.76560E+05
 0.81749992E+02  0.75293E+05
 0.81799995E+02  0.62336E+05
 0.81849998E+02  0.33136E+05
 0.81899994E+02  0.85749E+02
 0.81949997E+02 -0.22147E+05
 0.81999992E+02 -0.28959E+05
 0.82049995E+02 -0.25676E+05
 0.82099998E+02 -0.21889E+05
 0.82149994E+02 -0.28742E+05
 0.82199997E+02 -0.43407E+05
 0.82249992E+02 -0.59345E+05
 0.82299995E+02 -0.74731E+05
 0.82349998E+02 -0.83223E+05
 0.82399994E+02 -0.81624E+05
 0.82449997E+02 -0.73009E+05
 0.82499992E+02 -0.57273E+05
 0.82549995E+02 -0.41281E+05
 0.82599998E+02 -0.33226E+05
 0.82649994E+02 -0.28911E+05
 0.82699997E+02 -0.26225E+05
 0.82749992E+02 -0.22571E+05
 0.82799995E+02 -0.11377E+05
 0.82849998E+02  0.11916E+05
 0.82899994E+02  0.42446E+05
 0.82949997E+02  0.70182E+05
 0.82999992E+02  0.87594E+05
 0.83049995E+02  0.86671E+05
 0.83099998E+02  0.70003E+05
 0.83149994E+02  0.51983E+05
 0.83199997E+02  0.39857E+05
 0.83249992E+02  0.35843E+05
 0.83299995E+02  0.45625E+05
 0.83349998E+02  0.63249E+05
 0.83399994E+02  0.79889E+05
 0.83449997E+02  0.90983E+05
 0.83499992E+02  0.93668E+05
 0.83549995E+02  0.91252E+05
 0.83599998E+02  0.81174E+05
 0.83649994E+02  0.67051E+05
 0.83699997E+02  0.55376E+05
 0.83749992E+02  0.48739E+05
 0.83799995E+02  0.52438E+05
 0.83849998E+02  0.63480E+05
 0.83899994E+02  0.75375E+05
 0.83949997E+02  0.76554E+05
 0.83999992E+02  0.58194E+05
 0.84049995E+02  0.24915E+05
 0.84099998E+02 -0.13042E+05
 0.84149994E+02 -0.45723E+05
 0.84199997E+02 -0.66269E+05
 0.84249992E+02 -0.70522E+05
 0.84299995E+02 -0.63384E+05
 0.84349998E+02 -0.53845E+05
 0.84399994E+02 -0.43455E+05
 0.84449997E+02 -0.31211E+05
 0.84499992E+02 -0.17825E+05
 0.84549995E+02 -0.16194E+04
 0.84599998E+02  0.97044E+04
 0.84649994E+02  0.36140E+04
 0.84699997E+02 -0.15328E+05
 0.84749992E+02 -0.35735E+05
 0.84799995E+02 -0.48085E+05
 0.84849998E+02 -0.46107E+05
 0.84899994E+02 -0.33385E+05
 0.84949997E+02 -0.24545E+05
 0.84999992E+02 -0.32730E+05
 0.85049995E+02 -0.55375E+05
 0.85099998E+02 -0.83024E+05
 0.85149994E+02 -0.10619E+06
 0.85199997E+02 -0.11765E+06
 0.85249992E+02 -0.12289E+06
 0.85299995E+02 -0.13044E+06
 0.85349998E+02 -0.13907E+06
 0.85399994E+02 -0.14262E+06
 0.85449997E+02 -0.13803E+06
 0.85499992E+02 -0.12585E+06
 0.85549995E+02 -0.11107E+06
 0.85599998E+02 -0.10458E+06
 0.85649994E+02 -0.10482E+06
 0.85699997E+02 -0.10247E+06
 0.85749992E+02 -0.86564E+05
 0.85799995E+02 -0.51476E+05
 0.85849998E+02 -0.82271E+04
 0.85899994E+02  0.28655E+05
 0.85949997E+02  0.47021E+05
 0.85999992E+02  0.47525E+05
 0.86049995E+02  0.40135E+05
 0.86099998E+02  0.30738E+05
 0.86149994E+02  0.26580E+05
 0.86199997E+02  0.33845E+05
 0.86249992E+02  0.50915E+05
 0.86299995E+02  0.73681E+05
 0.86349998E+02  0.95621E+05
 0.86399994E+02  0.10948E+06
 0.86449997E+02  0.11240E+06
 0.86499992E+02  0.10602E+06
 0.86549995E+02  0.93427E+05
 0.86599998E+02  0.78291E+05
 0.86649994E+02  0.71793E+05
 0.86699997E+02  0.83694E+05
 0.86749992E+02  0.11261E+06
 0.86799995E+02  0.15002E+06
 0.86849998E+02  0.18551E+06
 0.86899994E+02  0.21129E+06
 0.86949997E+02  0.22066E+06
 0.86999992E+02  0.21676E+06
 0.87049995E+02  0.20525E+06
 0.87099998E+02  0.18645E+06
 0.87149994E+02  0.16465E+06
 0.87199997E+02  0.14064E+06
 0.87249992E+02  0.11401E+06
 0.87299995E+02  0.88862E+05
 0.87349998E+02  0.67707E+05
 0.87399994E+02  0.48506E+05
 0.87449997E+02  0.32486E+05
 0.87499992E+02  0.24403E+05
 0.87549995E+02  0.22424E+05
 0.87599991E+02  0.23082E+05
 0.87649994E+02  0.27545E+05
 0.87699997E+02  0.39238E+05
 0.87749992E+02  0.56113E+05
 0.87799995E+02  0.72587E+05
 0.87849991E+02  0.81195E+05
 0.87899994E+02  0.75644E+05
 0.87949997E+02  0.59971E+05
 0.87999992E+02  0.39369E+05
 0.88049995E+02  0.14588E+05
 0.88099991E+02 -0.13825E+05
 0.88149994E+02 -0.41753E+05
 0.88199997E+02 -0.68230E+05
 0.88249992E+02 -0.93910E+05
 0.88299995E+02 -0.11944E+06
 0.88349991E+02 -0.14887E+06
 0.88399994E+02 -0.17881E+06
 0.88449997E+02 -0.20611E+06
 0.88499992E+02 -0.23127E+06
 0.88549995E+02 -0.24798E+06
 0.88599991E+02 -0.24799E+06
 0.88649994E+02 -0.23462E+06
 0.88699997E+02 -0.21180E+06
 0.88749992E+02 -0.18084E+06
 0.88799995E+02 -0.14790E+06
 0.88849991E+02 -0.12258E+06
 0.88899994E+02 -0.11492E+06
 0.88949997E+02 -0.11900E+06
 0.88999992E+02 -0.12406E+06
 0.89049995E+02 -0.12266E+06
 0.89099991E+02 -0.11052E+06
 0.89149994E+02 -0.88237E+05
 0.89199997E+02 -0.59082E+05
 0.89249992E+02 -0.33983E+05
 0.89299995E+02 -0.19459E+05
 0.89349991E+02 -0.13838E+05
 0.89399994E+02 -0.13259E+05
 0.89449997E+02 -0.12051E+05
 0.89499992E+02 -0.73011E+04
 0.89549995E+02 -0.22347E+04
 0.89599991E+02  0.12727E+04
 0.89649994E+02  0.48172E+04
 0.89699997E+02  0.10248E+05
 0.89749992E+02  0.18719E+05
 0.89799995E+02  0.27139E+05
 0.89849991E+02  0.30745E+05
 0.89899994E+02  0.27970E+05
 0.89949997E+02  0.21063E+05
 0.89999992E+02  0.15194E+05
 0.90049995E+02  0.14316E+05
 0.90099991E+02  0.20734E+05
 0.90149994E+02  0.34009E+05
 0.90199997E+02  0.47451E+05
 0.90249992E+02  0.59022E+05
 0.90299995E+02  0.68952E+05
 0.90349991E+02  0.79008E+05
 0.90399994E+02  0.89504E+05
 0.90449997E+02  0.96754E+05
 0.90499992E+02  0.99056E+05
 0.90549995E+02  0.93193E+05
 0.90599991E+02  0.81199E+05
 0.90649994E+02  0.70252E+05
 0.90699997E+02  0.60351E+05
 0.90749992E+02  0.50358E+05
 0.90799995E+02  0.44189E+05
 0.90849991E+02  0.42000E+05
 0.90899994E+02  0.41295E+05
 0.90949997E+02  0.42108E+05
 0.90999992E+02  0.46547E+05
 0.91049995E+02  0.54102E+05
 0.91099991E+02  0.63691E+05
 0.91149994E+02  0.71622E+05
 0.91199997E+02  0.74692E+05
 0.91249992E+02  0.69252E+05
 0.91299995E+02  0.55389E+05
 0.91349991E+02  0.39995E+05
 0.91399994E+02  0.26860E+05
 0.91449997E+02  0.19472E+05
 0.91499992E+02  0.19166E+05
 0.91549995E+02  0.23841E+05
 0.91599991E+02  0.29672E+05
 0.91649994E+02  0.31044E+05
 0.91699997E+02  0.25411E+05
 0.91749992E+02  0.16467E+05
 0.91799995E+02  0.61816E+04
 0.91849991E+02 -0.49328E+04
 0.91899994E+02 -0.12993E+05
 0.91949997E+02 -0.12728E+05
 0.91999992E+02 -0.84884E+03
 0.92049995E+02  0.23040E+05
 0.92099991E+02  0.52280E+05
 0.92149994E+02  0.75049E+05
 0.92199997E+02  0.83047E+05
 0.92249992E+02  0.75103E+05
 0.92299995E+02  0.58985E+05
 0.92349991E+02  0.42451E+05
 0.92399994E+02  0.30784E+05
 0.92449997E+02  0.24908E+05
 0.92499992E+02  0.20930E+05
 0.92549995E+02  0.15060E+05
 0.92599991E+02  0.33406E+04
 0.92649994E+02 -0.15545E+05
 0.92699997E+02 -0.39758E+05
 0.92749992E+02 -0.65308E+05
 0.92799995E+02 -0.88115E+05
 0.92849991E+02 -0.10198E+06
 0.92899994E+02 -0.10433E+06
 0.92949997E+02 -0.97379E+05
 0.92999992E+02 -0.82824E+05
 0.93049995E+02 -0.64242E+05
 0.93099991E+02 -0.43467E+05
 0.93149994E+02 -0.21909E+05
 0.93199997E+02 -0.78636E+03
 0.93249992E+02  0.17438E+05
 0.93299995E+02  0.29254E+05
 0.93349991E+02  0.38619E+05
 0.93399994E+02  0.49753E+05
 0.93449997E+02  0.63222E+05
 0.93499992E+02  0.80639E+05
 0.93549995E+02  0.10128E+06
 0.93599991E+02  0.12153E+06
 0.93649994E+02  0.13932E+06
 0.93699997E+02  0.15383E+06
 0.93749992E+02  0.16171E+06
 0.93799995E+02  0.16250E+06
 0.93849991E+02  0.15584E+06
 0.93899994E+02  0.13750E+06
 0.93949997E+02  0.11056E+06
 0.93999992E+02  0.81570E+05
 0.94049995E+02  0.54042E+05
 0.94099991E+02  0.34940E+05
 0.94149994E+02  0.26162E+05
 0.94199997E+02  0.22374E+05
 0.94249992E+02  0.21660E+05
 0.94299995E+02  0.23253E+05
 0.94349991E+02  0.26633E+05
 0.94399994E+02  0.33051E+05
 0.94449997E+02  0.39881E+05
 0.94499992E+02  0.43255E+05
 0.94549995E+02  0.41809E+05
 0.94599991E+02  0.30881E+05
 0.94649994E+02  0.76491E+04
 0.94699997E+02 -0.22649E+05
 0.94749992E+02 -0.55047E+05
 0.94799995E+02 -0.82232E+05
 0.94849991E+02 -0.98526E+05
 0.94899994E+02 -0.10825E+06
 0.94949997E+02 -0.11668E+06
 0.94999992E+02 -0.12745E+06
 0.95049995E+02 -0.13958E+06
 0.95099991E+02 -0.14943E+06
 0.95149994E+02 -0.15435E+06
 0.95199997E+02 -0.15295E+06
 0.95249992E+02 -0.14390E+06
 0.95299995E+02 -0.12546E+06
 0.95349991E+02 -0.99958E+05
 0.95399994E+02 -0.70288E+05
 0.95449997E+02 -0.40312E+05
 0.95499992E+02 -0.16399E+05
 0.95549995E+02 -0.37188E+04
 0.95599991E+02 -0.59528E+04
 0.95649994E+02 -0.20403E+05
 0.95699997E+02 -0.38243E+05
 0.95749992E+02 -0.54990E+05
 0.95799995E+02 -0.67869E+05
 0.95849991E+02 -0.75860E+05
 0.95899994E+02 -0.83974E+05
 0.95949997E+02 -0.94906E+05
 0.95999992E+02 -0.10646E+06
 0.96049995E+02 -0.11187E+06
 0.96099991E+02 -0.10669E+06
 0.96149994E+02 -0.94274E+05
 0.96199997E+02 -0.76869E+05
 0.96249992E+02 -0.56009E+05
 0.96299995E+02 -0.37313E+05
 0.96349991E+02 -0.20231E+05
 0.96399994E+02  0.85771E+02
 0.96449997E+02  0.20909E+05
 0.96499992E+02  0.36935E+05
 0.96549995E+02  0.45336E+05
 0.96599991E+02  0.46063E+05
 0.96649994E+02  0.39696E+05
 0.96699997E+02  0.30188E+05
 0.96749992E+02  0.22619E+05
 0.96799995E+02  0.17594E+05
 0.96849991E+02  0.16715E+05
 0.96899994E+02  0.17699E+05
 0.96949997E+02  0.16191E+05
 0.96999992E+02  0.13966E+05
 0.97049995E+02  0.13728E+05
 0.97099991E+02  0.13990E+05
 0.97149994E+02  0.11421E+05
 0.97199997E+02  0.60156E+04
 0.97249992E+02 -0.30262E+03
 0.97299995E+02 -0.78330E+04
 0.97349991E+02 -0.14926E+05
 0.97399994E+02 -0.18821E+05
 0.97449997E+02 -0.21425E+05
 0.97499992E+02 -0.23311E+05
 0.97549995E+02 -0.22257E+05
 0.97599991E+02 -0.17213E+05
 0.97649994E+02 -0.93454E+04
 0.97699997E+02 -0.72916E+03
 0.97749992E+02  0.93845E+04
 0.97799995E+02  0.20251E+05
 0.97849991E+02  0.28030E+05
 0.97899994E+02  0.32971E+05
 0.97949997E+02  0.36843E+05
 0.97999992E+02  0.40748E+05
