-0.20000000E+01  0.61725E+04
-0.19500000E+01  0.76797E+04
-0.19000000E+01  0.89712E+04
-0.18500000E+01  0.10005E+05
-0.18000000E+01  0.10761E+05
-0.17500000E+01  0.11418E+05
-0.17000000E+01  0.11653E+05
-0.16500001E+01  0.11514E+05
-0.16000000E+01  0.11075E+05
-0.15500000E+01  0.10400E+05
-0.15000000E+01  0.95635E+04
-0.14500000E+01  0.87124E+04
-0.14000001E+01  0.78187E+04
-0.13500000E+01  0.68492E+04
-0.13000001E+01  0.56976E+04
-0.12500000E+01  0.44175E+04
-0.12000000E+01  0.31548E+04
-0.11500001E+01  0.16419E+04
-0.11000000E+01 -0.24271E+02
-0.10500001E+01 -0.17093E+04
-0.10000000E+01 -0.32327E+04
-0.95000005E+00 -0.45015E+04
-0.90000010E+00 -0.55117E+04
-0.85000002E+00 -0.62603E+04
-0.80000007E+00 -0.67075E+04
-0.75000012E+00 -0.69044E+04
-0.70000005E+00 -0.69181E+04
-0.65000010E+00 -0.68000E+04
-0.60000014E+00 -0.65601E+04
-0.55000007E+00 -0.61821E+04
-0.50000012E+00 -0.56454E+04
-0.45000005E+00 -0.48905E+04
-0.40000010E+00 -0.39026E+04
-0.35000014E+00 -0.26898E+04
-0.30000007E+00 -0.13559E+04
-0.25000012E+00 -0.16263E+03
-0.20000005E+00  0.81295E+03
-0.15000010E+00  0.15745E+04
-0.10000014E+00  0.21298E+04
-0.50000072E-01  0.25482E+04
-0.11920929E-06  0.27415E+04
 0.49999952E-01  0.27673E+04
 0.99999905E-01  0.27214E+04
 0.14999986E+00  0.26464E+04
 0.19999981E+00  0.25447E+04
 0.24999976E+00  0.23053E+04
 0.29999995E+00  0.21190E+04
 0.34999990E+00  0.20763E+04
 0.39999986E+00  0.20980E+04
 0.44999981E+00  0.22158E+04
 0.49999976E+00  0.23514E+04
 0.54999995E+00  0.25386E+04
 0.59999990E+00  0.27319E+04
 0.64999986E+00  0.29185E+04
 0.69999981E+00  0.30767E+04
 0.74999976E+00  0.31504E+04
 0.79999971E+00  0.30141E+04
 0.84999990E+00  0.25173E+04
 0.89999986E+00  0.16735E+04
 0.94999981E+00  0.52619E+03
 0.99999976E+00 -0.92287E+03
 0.10499997E+01 -0.27010E+04
 0.10999999E+01 -0.45717E+04
 0.11499999E+01 -0.64425E+04
 0.11999998E+01 -0.82635E+04
 0.12499998E+01 -0.98160E+04
 0.12999997E+01 -0.11041E+05
 0.13499999E+01 -0.11943E+05
 0.13999999E+01 -0.12522E+05
 0.14499998E+01 -0.12710E+05
 0.14999998E+01 -0.12458E+05
 0.15499997E+01 -0.11834E+05
 0.15999999E+01 -0.10899E+05
 0.16499999E+01 -0.96343E+04
 0.16999998E+01 -0.80525E+04
 0.17499998E+01 -0.63262E+04
 0.17999997E+01 -0.45925E+04
 0.18499997E+01 -0.27255E+04
 0.18999999E+01 -0.65505E+03
 0.19499998E+01  0.15139E+04
 0.19999998E+01  0.36090E+04
 0.20499997E+01  0.55860E+04
 0.20999999E+01  0.75495E+04
 0.21499996E+01  0.93979E+04
 0.21999998E+01  0.11016E+05
 0.22499995E+01  0.12358E+05
 0.22999997E+01  0.13320E+05
 0.23499999E+01  0.13854E+05
 0.23999996E+01  0.13878E+05
 0.24499998E+01  0.13427E+05
 0.24999995E+01  0.12568E+05
 0.25499997E+01  0.11375E+05
 0.25999999E+01  0.99608E+04
 0.26499996E+01  0.83778E+04
 0.26999998E+01  0.66725E+04
 0.27499995E+01  0.49055E+04
 0.27999997E+01  0.30709E+04
 0.28499999E+01  0.10510E+04
 0.28999996E+01 -0.10753E+04
 0.29499998E+01 -0.31123E+04
 0.29999995E+01 -0.50503E+04
 0.30499997E+01 -0.69747E+04
 0.30999999E+01 -0.87648E+04
 0.31499996E+01 -0.10293E+05
 0.31999998E+01 -0.11528E+05
 0.32499995E+01 -0.12471E+05
 0.32999997E+01 -0.13069E+05
 0.33499999E+01 -0.13289E+05
 0.33999996E+01 -0.13245E+05
 0.34499998E+01 -0.13027E+05
 0.34999995E+01 -0.12672E+05
 0.35499997E+01 -0.12266E+05
 0.35999994E+01 -0.11888E+05
 0.36499996E+01 -0.11599E+05
 0.36999998E+01 -0.11426E+05
 0.37499995E+01 -0.11262E+05
 0.37999997E+01 -0.11008E+05
 0.38499994E+01 -0.10615E+05
 0.38999996E+01 -0.10120E+05
 0.39499998E+01 -0.96281E+04
 0.39999995E+01 -0.91234E+04
 0.40499997E+01 -0.85579E+04
 0.40999994E+01 -0.80201E+04
 0.41499996E+01 -0.75185E+04
 0.41999998E+01 -0.70486E+04
 0.42499995E+01 -0.65724E+04
 0.42999997E+01 -0.60542E+04
 0.43499994E+01 -0.55653E+04
 0.43999996E+01 -0.50893E+04
 0.44499998E+01 -0.44884E+04
 0.44999995E+01 -0.37957E+04
 0.45499997E+01 -0.30773E+04
 0.45999994E+01 -0.22692E+04
 0.46499996E+01 -0.14116E+04
 0.46999998E+01 -0.62829E+03
 0.47499995E+01  0.16066E+02
 0.47999997E+01  0.57674E+03
 0.48499994E+01  0.96092E+03
 0.48999996E+01  0.10782E+04
 0.49499998E+01  0.90806E+03
 0.49999995E+01  0.43612E+03
 0.50499997E+01 -0.31534E+03
 0.50999994E+01 -0.13554E+04
 0.51499996E+01 -0.25802E+04
 0.51999998E+01 -0.39153E+04
 0.52499995E+01 -0.52948E+04
 0.52999997E+01 -0.66375E+04
 0.53499994E+01 -0.78560E+04
 0.53999996E+01 -0.89146E+04
 0.54499993E+01 -0.97916E+04
 0.54999995E+01 -0.10299E+05
 0.55499997E+01 -0.10442E+05
 0.55999994E+01 -0.10256E+05
 0.56499996E+01 -0.97084E+04
 0.56999993E+01 -0.89208E+04
 0.57499995E+01 -0.79044E+04
 0.57999997E+01 -0.67792E+04
 0.58499994E+01 -0.56580E+04
 0.58999996E+01 -0.45827E+04
 0.59499993E+01 -0.36211E+04
 0.59999995E+01 -0.27643E+04
 0.60499992E+01 -0.19808E+04
 0.60999994E+01 -0.13393E+04
 0.61499996E+01 -0.86513E+03
 0.61999998E+01 -0.37781E+03
 0.62499990E+01  0.15376E+03
 0.62999992E+01  0.67749E+03
 0.63499994E+01  0.11762E+04
 0.63999996E+01  0.16447E+04
 0.64499998E+01  0.20502E+04
 0.64999990E+01  0.25057E+04
 0.65499992E+01  0.29082E+04
 0.65999994E+01  0.31982E+04
 0.66499996E+01  0.34333E+04
 0.66999998E+01  0.36107E+04
 0.67499990E+01  0.36790E+04
 0.67999992E+01  0.36251E+04
 0.68499994E+01  0.36048E+04
 0.68999996E+01  0.36528E+04
 0.69499998E+01  0.38603E+04
 0.69999990E+01  0.43236E+04
 0.70499992E+01  0.50547E+04
 0.70999994E+01  0.59722E+04
 0.71499996E+01  0.69153E+04
 0.71999998E+01  0.79172E+04
 0.72499990E+01  0.89729E+04
 0.72999992E+01  0.98981E+04
 0.73499994E+01  0.10651E+05
 0.73999996E+01  0.11231E+05
 0.74499998E+01  0.11615E+05
 0.74999990E+01  0.11672E+05
 0.75499992E+01  0.11388E+05
 0.75999994E+01  0.10682E+05
 0.76499996E+01  0.96275E+04
 0.76999998E+01  0.83266E+04
 0.77499990E+01  0.67830E+04
 0.77999992E+01  0.50606E+04
 0.78499994E+01  0.30626E+04
 0.78999996E+01  0.77393E+03
 0.79499998E+01 -0.17851E+04
 0.79999990E+01 -0.45390E+04
 0.80499992E+01 -0.73419E+04
 0.80999994E+01 -0.10118E+05
 0.81499996E+01 -0.12757E+05
 0.81999998E+01 -0.15140E+05
 0.82499990E+01 -0.17184E+05
 0.82999992E+01 -0.18892E+05
 0.83499994E+01 -0.20299E+05
 0.83999996E+01 -0.21297E+05
 0.84499998E+01 -0.21971E+05
 0.84999990E+01 -0.22312E+05
 0.85499992E+01 -0.22329E+05
 0.85999994E+01 -0.22179E+05
 0.86499996E+01 -0.21941E+05
 0.86999998E+01 -0.21514E+05
 0.87499990E+01 -0.20830E+05
 0.87999992E+01 -0.19957E+05
 0.88499994E+01 -0.18771E+05
 0.88999996E+01 -0.17209E+05
 0.89499998E+01 -0.15321E+05
 0.89999990E+01 -0.13276E+05
 0.90499992E+01 -0.11232E+05
 0.90999994E+01 -0.93075E+04
 0.91499996E+01 -0.75146E+04
 0.91999989E+01 -0.57745E+04
 0.92499990E+01 -0.40703E+04
 0.92999992E+01 -0.25017E+04
 0.93499994E+01 -0.10938E+04
 0.93999996E+01  0.18485E+03
 0.94499989E+01  0.13044E+04
 0.94999990E+01  0.22177E+04
 0.95499992E+01  0.28578E+04
 0.95999994E+01  0.32599E+04
 0.96499996E+01  0.33949E+04
 0.96999989E+01  0.32246E+04
 0.97499990E+01  0.28115E+04
 0.97999992E+01  0.22719E+04
 0.98499994E+01  0.16548E+04
 0.98999996E+01  0.10856E+04
 0.99499989E+01  0.64513E+03
 0.99999990E+01  0.27378E+03
 0.10049999E+02  0.38293E+02
 0.10099999E+02 -0.50347E+02
 0.10150000E+02  0.89903E+02
 0.10199999E+02  0.55665E+03
 0.10249999E+02  0.13367E+04
 0.10299999E+02  0.24023E+04
 0.10349999E+02  0.36891E+04
 0.10400000E+02  0.50330E+04
 0.10449999E+02  0.63966E+04
 0.10499999E+02  0.78796E+04
 0.10549999E+02  0.94670E+04
 0.10599999E+02  0.11100E+05
 0.10650000E+02  0.12710E+05
 0.10699999E+02  0.14280E+05
 0.10749999E+02  0.15648E+05
 0.10799999E+02  0.16684E+05
 0.10849999E+02  0.17439E+05
 0.10900000E+02  0.17907E+05
 0.10949999E+02  0.17899E+05
 0.10999999E+02  0.17431E+05
 0.11049999E+02  0.16648E+05
 0.11099999E+02  0.15639E+05
 0.11150000E+02  0.14295E+05
 0.11199999E+02  0.12606E+05
 0.11249999E+02  0.10835E+05
 0.11299999E+02  0.90699E+04
 0.11349999E+02  0.74538E+04
 0.11400000E+02  0.58118E+04
 0.11449999E+02  0.40771E+04
 0.11499999E+02  0.21489E+04
 0.11549999E+02  0.52108E+03
 0.11599999E+02 -0.10175E+04
 0.11650000E+02 -0.22245E+04
 0.11699999E+02 -0.30436E+04
 0.11749999E+02 -0.35540E+04
 0.11799999E+02 -0.42031E+04
 0.11849999E+02 -0.48393E+04
 0.11900000E+02 -0.47087E+04
 0.11949999E+02 -0.56701E+04
 0.11999999E+02 -0.66451E+04
 0.12049999E+02 -0.81626E+04
 0.12099999E+02 -0.84164E+04
 0.12150000E+02 -0.97637E+04
 0.12199999E+02 -0.90376E+04
 0.12249999E+02 -0.11759E+05
 0.12299999E+02 -0.11323E+05
 0.12349999E+02 -0.92174E+04
 0.12400000E+02  0.14540E+05
 0.12449999E+02  0.46997E+05
 0.12499999E+02  0.83752E+05
 0.12549999E+02  0.11870E+06
 0.12599999E+02  0.12107E+06
 0.12649999E+02  0.11275E+06
 0.12699999E+02  0.75921E+05
 0.12749999E+02  0.34160E+05
 0.12799999E+02  0.29502E+05
 0.12849999E+02  0.53814E+05
 0.12899999E+02  0.66415E+04
 0.12949999E+02  0.16965E+05
 0.12999999E+02  0.15045E+06
 0.13049999E+02  0.18356E+06
 0.13099999E+02  0.16951E+06
 0.13149999E+02  0.23407E+06
 0.13199999E+02  0.31165E+06
 0.13249999E+02  0.49277E+06
 0.13299999E+02  0.73543E+06
 0.13349999E+02  0.57643E+06
 0.13399999E+02  0.34168E+06
 0.13449999E+02  0.48372E+06
 0.13499999E+02  0.64967E+06
 0.13549999E+02  0.43983E+06
 0.13599999E+02  0.24529E+06
 0.13649999E+02  0.14730E+06
 0.13699999E+02 -0.12355E+06
 0.13749999E+02  0.39070E+05
 0.13799999E+02  0.23419E+06
 0.13849999E+02  0.15817E+06
 0.13899999E+02  0.99001E+05
 0.13949999E+02  0.51511E+05
 0.13999999E+02  0.79303E+05
 0.14049999E+02  0.13691E+06
 0.14099998E+02  0.26081E+05
 0.14150000E+02  0.62386E+05
 0.14199999E+02  0.11159E+06
 0.14249998E+02 -0.19342E+06
 0.14299999E+02 -0.24776E+06
 0.14349998E+02  0.16965E+05
 0.14400000E+02  0.61510E+05
 0.14449999E+02 -0.20746E+06
 0.14499998E+02 -0.14720E+06
 0.14549999E+02  0.36597E+05
 0.14599998E+02  0.28727E+06
 0.14650000E+02  0.30873E+06
 0.14699999E+02  0.16382E+06
 0.14749998E+02  0.31955E+06
 0.14799999E+02  0.34026E+06
 0.14849998E+02  0.34254E+06
 0.14900000E+02  0.46936E+06
 0.14949999E+02  0.57707E+06
 0.14999998E+02  0.26025E+06
 0.15049999E+02  0.16823E+06
 0.15099998E+02  0.35781E+06
 0.15150000E+02  0.25054E+06
 0.15199999E+02  0.22063E+06
 0.15249998E+02  0.30414E+06
 0.15299999E+02  0.27839E+06
 0.15349998E+02  0.87515E+05
 0.15400000E+02  0.14434E+06
 0.15449999E+02  0.25673E+06
 0.15499998E+02  0.70569E+05
 0.15549999E+02  0.11591E+06
 0.15599998E+02  0.16211E+06
 0.15650000E+02 -0.94590E+05
 0.15699999E+02 -0.47109E+05
 0.15749998E+02  0.10196E+06
 0.15799999E+02  0.20224E+06
 0.15849998E+02  0.15955E+06
 0.15900000E+02  0.22680E+05
 0.15949999E+02 -0.83099E+05
 0.15999998E+02  0.11354E+06
 0.16049999E+02  0.28566E+06
 0.16099998E+02  0.20400E+06
 0.16150000E+02  0.17458E+06
 0.16199999E+02 -0.75018E+05
 0.16249998E+02 -0.13469E+06
 0.16299999E+02  0.10079E+05
 0.16349998E+02  0.20046E+05
 0.16400000E+02 -0.77576E+05
 0.16449999E+02 -0.44062E+05
 0.16499998E+02 -0.67982E+05
 0.16549999E+02  0.18892E+06
 0.16599998E+02  0.21486E+06
 0.16650000E+02  0.11728E+05
 0.16699999E+02  0.11411E+06
 0.16749998E+02  0.27523E+05
 0.16799999E+02  0.56222E+05
 0.16849998E+02  0.17921E+06
 0.16900000E+02  0.82934E+05
 0.16949999E+02  0.39625E+05
 0.16999998E+02  0.20189E+05
 0.17049999E+02  0.62838E+04
 0.17099998E+02  0.73360E+05
 0.17150000E+02  0.17357E+06
 0.17199999E+02  0.47824E+06
 0.17249998E+02  0.31188E+06
 0.17299999E+02  0.15328E+06
 0.17349998E+02  0.28475E+06
 0.17400000E+02  0.30673E+06
 0.17449999E+02  0.31732E+06
 0.17499998E+02  0.13016E+06
 0.17549999E+02  0.10056E+06
 0.17599998E+02  0.13233E+06
 0.17650000E+02  0.16583E+06
 0.17699999E+02  0.20199E+06
 0.17749998E+02  0.12699E+06
 0.17799999E+02  0.48075E+05
 0.17849998E+02  0.14038E+05
 0.17900000E+02 -0.47679E+05
 0.17949999E+02  0.28882E+05
 0.17999998E+02  0.24935E+05
 0.18049999E+02  0.31734E+05
 0.18099998E+02  0.19023E+06
 0.18150000E+02  0.11167E+06
 0.18199999E+02  0.29836E+06
 0.18249998E+02  0.41419E+06
 0.18299999E+02  0.29483E+06
 0.18349998E+02  0.27828E+06
 0.18400000E+02  0.23657E+06
 0.18449999E+02  0.27601E+06
 0.18499998E+02  0.21118E+06
 0.18549999E+02  0.19344E+06
 0.18599998E+02  0.19366E+06
 0.18650000E+02  0.22036E+06
 0.18699999E+02  0.32212E+06
 0.18749998E+02  0.20482E+06
 0.18799999E+02  0.87734E+05
 0.18849998E+02  0.23488E+06
 0.18900000E+02  0.31661E+06
 0.18949999E+02  0.15011E+06
 0.18999998E+02  0.10817E+06
 0.19049999E+02  0.23146E+06
 0.19099998E+02  0.21717E+06
 0.19150000E+02  0.10824E+06
 0.19199999E+02  0.11826E+06
 0.19249998E+02  0.10771E+06
 0.19299999E+02  0.14283E+06
 0.19349998E+02  0.13183E+06
 0.19400000E+02  0.95036E+05
 0.19449999E+02  0.85195E+05
 0.19499998E+02 -0.19877E+06
 0.19549999E+02 -0.41150E+06
 0.19599998E+02 -0.39740E+06
 0.19650000E+02 -0.53191E+06
 0.19699999E+02 -0.71948E+06
 0.19749998E+02 -0.61595E+06
 0.19799999E+02 -0.53228E+06
 0.19849998E+02 -0.69164E+06
 0.19900000E+02 -0.85895E+06
 0.19949999E+02 -0.83700E+06
 0.19999998E+02 -0.79168E+06
 0.20049999E+02 -0.68553E+06
 0.20099998E+02 -0.30304E+06
 0.20150000E+02 -0.38947E+06
 0.20199999E+02 -0.60454E+06
 0.20249998E+02 -0.90078E+06
 0.20299999E+02 -0.17656E+07
 0.20349998E+02 -0.30446E+07
 0.20399998E+02 -0.42489E+07
 0.20449999E+02 -0.45222E+07
 0.20499998E+02 -0.43721E+07
 0.20549999E+02 -0.39969E+07
 0.20599998E+02 -0.30663E+07
 0.20649998E+02 -0.21103E+07
 0.20699999E+02 -0.88416E+06
 0.20749998E+02  0.21703E+06
 0.20799999E+02  0.66339E+06
 0.20849998E+02  0.84081E+06
 0.20899998E+02  0.18275E+07
 0.20949999E+02  0.31100E+07
 0.20999998E+02  0.28720E+07
 0.21049999E+02  0.83314E+06
 0.21099998E+02  0.19724E+05
 0.21149998E+02  0.62647E+06
 0.21199999E+02 -0.48280E+06
 0.21249998E+02 -0.41799E+06
 0.21299999E+02  0.57089E+05
 0.21349998E+02  0.12574E+06
 0.21399998E+02  0.21970E+06
 0.21449999E+02 -0.24207E+06
 0.21499998E+02 -0.53175E+06
 0.21549999E+02 -0.11244E+07
 0.21599998E+02 -0.13210E+07
 0.21649998E+02 -0.13640E+07
 0.21699999E+02 -0.12509E+07
 0.21749998E+02 -0.44335E+06
 0.21799999E+02 -0.14906E+06
 0.21849998E+02 -0.95996E+06
 0.21899998E+02 -0.49694E+06
 0.21949999E+02  0.23444E+06
 0.21999998E+02 -0.67446E+06
 0.22049999E+02 -0.19543E+07
 0.22099998E+02 -0.20425E+07
 0.22149998E+02 -0.25807E+07
 0.22199999E+02 -0.28618E+07
 0.22249998E+02 -0.19196E+07
 0.22299999E+02 -0.21806E+07
 0.22349998E+02 -0.30886E+07
 0.22399998E+02 -0.32855E+07
 0.22449999E+02 -0.22900E+07
 0.22499998E+02 -0.19743E+07
 0.22549999E+02 -0.18206E+07
 0.22599998E+02 -0.22134E+07
 0.22649998E+02 -0.27968E+07
 0.22699999E+02 -0.21353E+07
 0.22749998E+02 -0.21684E+07
 0.22799999E+02 -0.26647E+07
 0.22849998E+02 -0.21861E+07
 0.22899998E+02 -0.14489E+07
 0.22949999E+02 -0.13749E+07
 0.22999998E+02 -0.56719E+06
 0.23049999E+02 -0.32506E+04
 0.23099998E+02  0.22844E+06
 0.23149998E+02  0.28412E+06
 0.23199999E+02 -0.16991E+06
 0.23249998E+02 -0.30754E+06
 0.23299999E+02 -0.20380E+06
 0.23349998E+02  0.34651E+06
 0.23399998E+02  0.68474E+06
 0.23449999E+02  0.67124E+06
 0.23499998E+02  0.11503E+07
 0.23549999E+02  0.14173E+07
 0.23599998E+02  0.12875E+07
 0.23649998E+02  0.16205E+07
 0.23699999E+02  0.15353E+07
 0.23749998E+02  0.98066E+06
 0.23799999E+02  0.73262E+06
 0.23849998E+02  0.41361E+06
 0.23899998E+02 -0.41647E+06
 0.23949999E+02 -0.91279E+06
 0.23999998E+02 -0.80213E+06
 0.24049999E+02 -0.84567E+06
 0.24099998E+02 -0.77982E+06
 0.24149998E+02 -0.82209E+06
 0.24199999E+02 -0.13452E+07
 0.24249998E+02 -0.16606E+07
 0.24299999E+02 -0.16476E+07
 0.24349998E+02 -0.15872E+07
 0.24399998E+02 -0.12388E+07
 0.24449999E+02 -0.12514E+07
 0.24499998E+02 -0.14518E+07
 0.24549999E+02 -0.10370E+07
 0.24599998E+02 -0.11734E+07
 0.24649998E+02 -0.10299E+07
 0.24699999E+02 -0.19815E+06
 0.24749998E+02 -0.17497E+06
 0.24799999E+02 -0.42694E+06
 0.24849998E+02 -0.39580E+06
 0.24899998E+02 -0.43089E+06
 0.24949999E+02 -0.61895E+06
 0.24999998E+02 -0.42967E+06
 0.25049999E+02 -0.10696E+06
 0.25099998E+02 -0.54262E+05
 0.25149998E+02 -0.18732E+06
 0.25199999E+02 -0.21266E+05
 0.25249998E+02  0.16995E+06
 0.25299999E+02 -0.89266E+05
 0.25349998E+02 -0.70602E+05
 0.25399998E+02  0.18441E+05
 0.25449999E+02 -0.26848E+06
 0.25499998E+02 -0.52836E+06
 0.25549999E+02 -0.34709E+06
 0.25599998E+02 -0.71630E+05
 0.25649998E+02  0.12897E+06
 0.25699999E+02 -0.95161E+05
 0.25749998E+02 -0.20485E+06
 0.25799999E+02 -0.59987E+05
 0.25849998E+02 -0.16963E+06
 0.25899998E+02 -0.31925E+06
 0.25949999E+02 -0.49433E+06
 0.25999998E+02 -0.53791E+06
 0.26049999E+02 -0.59862E+06
 0.26099998E+02 -0.49946E+06
 0.26149998E+02 -0.17772E+06
 0.26199999E+02  0.13330E+06
 0.26249998E+02  0.26127E+06
 0.26299999E+02  0.20608E+06
 0.26349998E+02  0.15791E+06
 0.26399998E+02  0.26442E+06
 0.26449999E+02  0.19913E+06
 0.26499998E+02 -0.26464E+05
 0.26549999E+02 -0.10972E+05
 0.26599998E+02  0.33178E+06
 0.26649998E+02  0.63175E+06
 0.26699999E+02  0.52899E+06
 0.26749998E+02  0.27972E+06
 0.26799999E+02  0.10395E+06
 0.26849998E+02  0.69627E+05
 0.26899998E+02 -0.13746E+05
 0.26949999E+02 -0.22288E+06
 0.26999998E+02 -0.51114E+06
 0.27049997E+02 -0.36449E+06
 0.27099998E+02 -0.14839E+06
 0.27149998E+02 -0.19569E+06
 0.27199999E+02 -0.54053E+05
 0.27249998E+02  0.70622E+05
 0.27299997E+02  0.30368E+06
 0.27349998E+02  0.48365E+06
 0.27399998E+02  0.48120E+06
 0.27449999E+02  0.31028E+06
 0.27499998E+02  0.14402E+06
 0.27549997E+02 -0.83959E+05
 0.27599998E+02 -0.38154E+06
 0.27649998E+02 -0.72335E+06
 0.27699999E+02 -0.10806E+07
 0.27749998E+02 -0.12124E+07
 0.27799997E+02 -0.11637E+07
 0.27849998E+02 -0.10567E+07
 0.27899998E+02 -0.10350E+07
 0.27949999E+02 -0.10049E+07
 0.27999998E+02 -0.64941E+06
 0.28049997E+02 -0.28039E+06
 0.28099998E+02 -0.14288E+06
 0.28149998E+02 -0.14197E+06
 0.28199999E+02 -0.66942E+05
 0.28249998E+02  0.26685E+06
 0.28299997E+02  0.35516E+06
 0.28349998E+02  0.34112E+06
 0.28399998E+02  0.43319E+06
 0.28449999E+02  0.54302E+06
 0.28499998E+02  0.56701E+06
 0.28549997E+02  0.42596E+06
 0.28599998E+02  0.19155E+06
 0.28649998E+02 -0.12113E+06
 0.28699999E+02 -0.29369E+06
 0.28749998E+02 -0.19576E+06
 0.28799997E+02  0.16350E+05
 0.28849998E+02  0.26517E+06
 0.28899998E+02  0.58448E+06
 0.28949999E+02  0.71889E+06
 0.28999998E+02  0.65187E+06
 0.29049997E+02  0.65490E+06
 0.29099998E+02  0.66917E+06
 0.29149998E+02  0.58512E+06
 0.29199999E+02  0.41949E+06
 0.29249998E+02  0.17489E+06
 0.29299997E+02 -0.10794E+05
 0.29349998E+02  0.25143E+06
 0.29399998E+02  0.41673E+06
 0.29449999E+02  0.36734E+06
 0.29499998E+02  0.47140E+06
 0.29549997E+02  0.39513E+06
 0.29599998E+02  0.23117E+06
 0.29649998E+02  0.10278E+06
 0.29699999E+02  0.17813E+06
 0.29749998E+02  0.15490E+06
 0.29799997E+02 -0.10007E+06
 0.29849998E+02 -0.19466E+06
 0.29899998E+02 -0.11110E+06
 0.29949999E+02 -0.17650E+05
 0.29999998E+02 -0.61765E+05
 0.30049999E+02 -0.69478E+05
 0.30099998E+02 -0.14232E+06
 0.30149998E+02 -0.30888E+06
 0.30199997E+02 -0.37860E+06
 0.30249996E+02 -0.45474E+06
 0.30299999E+02 -0.41518E+06
 0.30349998E+02 -0.28808E+06
 0.30399998E+02 -0.16208E+06
 0.30449997E+02 -0.76648E+05
 0.30499996E+02 -0.13370E+06
 0.30549999E+02 -0.31108E+06
 0.30599998E+02 -0.37650E+06
 0.30649998E+02 -0.39830E+06
 0.30699997E+02 -0.58611E+06
 0.30749996E+02 -0.81749E+06
 0.30799999E+02 -0.97988E+06
 0.30849998E+02 -0.94399E+06
 0.30899998E+02 -0.97981E+06
 0.30949997E+02 -0.11373E+07
 0.30999996E+02 -0.12299E+07
 0.31049999E+02 -0.11895E+07
 0.31099998E+02 -0.95076E+06
 0.31149998E+02 -0.66670E+06
 0.31199997E+02 -0.55509E+06
 0.31249996E+02 -0.57894E+06
 0.31299999E+02 -0.53134E+06
 0.31349998E+02 -0.62638E+06
 0.31399998E+02 -0.76820E+06
 0.31449997E+02 -0.85194E+06
 0.31499996E+02 -0.92197E+06
 0.31549999E+02 -0.76978E+06
 0.31599998E+02 -0.49793E+06
 0.31649998E+02 -0.26106E+06
 0.31699997E+02 -0.12226E+05
 0.31749996E+02  0.28965E+06
 0.31799999E+02  0.67879E+06
 0.31849998E+02  0.99001E+06
 0.31899998E+02  0.10066E+07
 0.31949997E+02  0.10347E+07
 0.31999996E+02  0.10366E+07
 0.32049999E+02  0.95576E+06
 0.32099998E+02  0.89393E+06
 0.32149998E+02  0.76319E+06
 0.32199997E+02  0.66367E+06
 0.32249996E+02  0.52036E+06
 0.32299999E+02  0.45160E+06
 0.32349998E+02  0.38722E+06
 0.32399998E+02  0.19841E+06
 0.32449997E+02  0.97412E+05
 0.32499996E+02 -0.32250E+05
 0.32549999E+02 -0.14494E+06
 0.32599998E+02 -0.24850E+06
 0.32649998E+02 -0.38826E+06
 0.32699997E+02 -0.49480E+06
 0.32749996E+02 -0.73466E+06
 0.32799999E+02 -0.91139E+06
 0.32849998E+02 -0.95966E+06
 0.32899998E+02 -0.96106E+06
 0.32949997E+02 -0.99938E+06
 0.32999996E+02 -0.10602E+07
 0.33049999E+02 -0.10644E+07
 0.33099998E+02 -0.10641E+07
 0.33149998E+02 -0.10287E+07
 0.33199997E+02 -0.94804E+06
 0.33249996E+02 -0.82899E+06
 0.33299999E+02 -0.82040E+06
 0.33349998E+02 -0.81671E+06
 0.33399998E+02 -0.76022E+06
 0.33449997E+02 -0.76692E+06
 0.33499996E+02 -0.79767E+06
 0.33549999E+02 -0.82026E+06
 0.33599998E+02 -0.77232E+06
 0.33649998E+02 -0.67538E+06
 0.33699997E+02 -0.69049E+06
 0.33749996E+02 -0.70033E+06
 0.33799999E+02 -0.54046E+06
 0.33849998E+02 -0.43997E+06
 0.33899998E+02 -0.37024E+06
 0.33949997E+02 -0.12650E+06
 0.33999996E+02  0.15036E+06
 0.34049999E+02  0.33912E+06
 0.34099998E+02  0.43350E+06
 0.34149998E+02  0.44990E+06
 0.34199997E+02  0.46459E+06
 0.34249996E+02  0.49837E+06
 0.34299999E+02  0.40918E+06
 0.34349998E+02  0.28175E+06
 0.34399998E+02  0.17874E+06
 0.34449997E+02  0.18110E+06
 0.34499996E+02  0.37063E+06
 0.34549999E+02  0.61669E+06
 0.34599998E+02  0.80241E+06
 0.34649998E+02  0.85436E+06
 0.34699997E+02  0.81274E+06
 0.34749996E+02  0.71507E+06
 0.34799999E+02  0.64136E+06
 0.34849998E+02  0.53624E+06
 0.34899998E+02  0.48011E+06
 0.34949997E+02  0.49240E+06
 0.34999996E+02  0.35928E+06
 0.35049999E+02  0.14779E+06
 0.35099998E+02  0.64982E+05
 0.35149998E+02 -0.16631E+05
 0.35199997E+02 -0.12419E+06
 0.35249996E+02 -0.18208E+06
 0.35299999E+02 -0.30504E+06
 0.35349998E+02 -0.39187E+06
 0.35399998E+02 -0.44767E+06
 0.35449997E+02 -0.57741E+06
 0.35499996E+02 -0.75846E+06
 0.35549999E+02 -0.95983E+06
 0.35599998E+02 -0.10782E+07
 0.35649998E+02 -0.11529E+07
 0.35699997E+02 -0.13148E+07
 0.35749996E+02 -0.13901E+07
 0.35799999E+02 -0.13482E+07
 0.35849998E+02 -0.12418E+07
 0.35899998E+02 -0.10981E+07
 0.35949997E+02 -0.10019E+07
 0.35999996E+02 -0.82697E+06
 0.36049999E+02 -0.52294E+06
 0.36099998E+02 -0.19321E+06
 0.36149998E+02  0.51698E+05
 0.36199997E+02  0.21826E+06
 0.36249996E+02  0.36152E+06
 0.36299999E+02  0.39646E+06
 0.36349998E+02  0.34852E+06
 0.36399998E+02  0.29698E+06
 0.36449997E+02  0.29351E+06
 0.36499996E+02  0.35329E+06
 0.36549999E+02  0.36043E+06
 0.36599998E+02  0.39454E+06
 0.36649998E+02  0.41093E+06
 0.36699997E+02  0.41487E+06
 0.36749996E+02  0.44438E+06
 0.36799999E+02  0.44905E+06
 0.36849998E+02  0.47992E+06
 0.36899998E+02  0.48876E+06
 0.36949997E+02  0.49960E+06
 0.36999996E+02  0.51600E+06
 0.37049999E+02  0.41618E+06
 0.37099998E+02  0.32826E+06
 0.37149998E+02  0.33029E+06
 0.37199997E+02  0.24175E+06
 0.37249996E+02  0.16932E+06
 0.37299999E+02  0.11232E+06
 0.37349998E+02  0.52144E+05
 0.37399998E+02 -0.41015E+05
 0.37449997E+02 -0.17872E+06
 0.37499996E+02 -0.25031E+06
 0.37549999E+02 -0.20451E+06
 0.37599998E+02 -0.12221E+06
 0.37649998E+02 -0.84575E+05
 0.37699997E+02 -0.54750E+04
 0.37749996E+02  0.35797E+05
 0.37799999E+02  0.48752E+05
 0.37849998E+02  0.88672E+05
 0.37899998E+02  0.10691E+06
 0.37949997E+02  0.55058E+05
 0.37999996E+02  0.24555E+05
 0.38049999E+02  0.44831E+05
 0.38099998E+02  0.32387E+05
 0.38149998E+02 -0.37061E+05
 0.38199997E+02 -0.71855E+05
 0.38249996E+02 -0.45011E+05
 0.38299999E+02 -0.55681E+04
 0.38349998E+02  0.76627E+05
 0.38399998E+02  0.12841E+06
 0.38449997E+02  0.19320E+06
 0.38499996E+02  0.24859E+06
 0.38549999E+02  0.27731E+06
 0.38599998E+02  0.34263E+06
 0.38649998E+02  0.38671E+06
 0.38699997E+02  0.33728E+06
 0.38749996E+02  0.26884E+06
 0.38799999E+02  0.22029E+06
 0.38849998E+02  0.11631E+06
 0.38899998E+02  0.28157E+05
 0.38949997E+02 -0.64043E+04
 0.38999996E+02 -0.45349E+05
 0.39049999E+02 -0.97242E+05
 0.39099998E+02 -0.19018E+06
 0.39149998E+02 -0.28610E+06
 0.39199997E+02 -0.35790E+06
 0.39249996E+02 -0.42670E+06
 0.39299999E+02 -0.43636E+06
 0.39349998E+02 -0.39135E+06
 0.39399998E+02 -0.33254E+06
 0.39449997E+02 -0.32472E+06
 0.39499996E+02 -0.30207E+06
 0.39549999E+02 -0.21680E+06
 0.39599998E+02 -0.12034E+06
 0.39649998E+02 -0.42198E+05
 0.39699997E+02  0.13978E+05
 0.39749996E+02  0.80924E+05
 0.39799999E+02  0.12538E+06
 0.39849998E+02  0.11606E+06
 0.39899998E+02  0.90549E+05
 0.39949997E+02  0.11328E+06
 0.39999996E+02  0.18731E+06
 0.40049999E+02  0.22819E+06
 0.40099998E+02  0.22027E+06
 0.40149998E+02  0.28093E+06
 0.40199997E+02  0.39684E+06
 0.40249996E+02  0.42543E+06
 0.40299999E+02  0.41759E+06
 0.40349998E+02  0.40988E+06
 0.40399998E+02  0.35032E+06
 0.40449997E+02  0.30870E+06
 0.40499996E+02  0.30716E+06
 0.40549999E+02  0.32494E+06
 0.40599998E+02  0.28456E+06
 0.40649998E+02  0.23482E+06
 0.40699997E+02  0.24637E+06
 0.40749996E+02  0.21720E+06
 0.40799999E+02  0.16864E+06
 0.40849998E+02  0.14187E+06
 0.40899998E+02  0.67993E+05
 0.40949997E+02 -0.83961E+04
 0.40999996E+02 -0.30953E+05
 0.41049999E+02 -0.35096E+05
 0.41099998E+02 -0.23017E+05
 0.41149998E+02  0.21112E+05
 0.41199997E+02  0.67341E+05
 0.41249996E+02  0.58664E+05
 0.41299999E+02  0.41707E+05
 0.41349998E+02  0.43933E+05
 0.41399998E+02  0.68016E+05
 0.41449997E+02  0.69589E+05
 0.41499996E+02  0.29200E+05
 0.41549999E+02  0.48667E+05
 0.41599998E+02  0.14907E+06
 0.41649998E+02  0.25377E+06
 0.41699997E+02  0.28691E+06
 0.41749996E+02  0.28967E+06
 0.41799999E+02  0.26449E+06
 0.41849998E+02  0.23811E+06
 0.41899998E+02  0.25862E+06
 0.41949997E+02  0.27456E+06
 0.41999996E+02  0.27141E+06
 0.42049999E+02  0.26917E+06
 0.42099998E+02  0.27567E+06
 0.42149998E+02  0.28670E+06
 0.42199997E+02  0.29907E+06
 0.42249996E+02  0.30250E+06
 0.42299999E+02  0.29881E+06
 0.42349998E+02  0.27688E+06
 0.42399998E+02  0.24702E+06
 0.42449997E+02  0.21787E+06
 0.42499996E+02  0.17457E+06
 0.42549999E+02  0.16558E+06
 0.42599998E+02  0.19813E+06
 0.42649998E+02  0.22405E+06
 0.42699997E+02  0.26424E+06
 0.42749996E+02  0.26686E+06
 0.42799995E+02  0.28607E+06
 0.42849998E+02  0.35884E+06
 0.42899998E+02  0.44784E+06
 0.42949997E+02  0.54065E+06
 0.42999996E+02  0.60224E+06
 0.43049995E+02  0.64159E+06
 0.43099998E+02  0.66442E+06
 0.43149998E+02  0.64324E+06
 0.43199997E+02  0.54018E+06
 0.43249996E+02  0.41405E+06
 0.43299995E+02  0.31646E+06
 0.43349998E+02  0.26799E+06
 0.43399998E+02  0.24008E+06
 0.43449997E+02  0.24028E+06
 0.43499996E+02  0.26000E+06
 0.43549995E+02  0.24044E+06
 0.43599998E+02  0.18492E+06
 0.43649998E+02  0.10597E+06
 0.43699997E+02  0.51534E+05
 0.43749996E+02  0.31883E+05
 0.43799995E+02 -0.12415E+05
 0.43849998E+02 -0.66133E+05
 0.43899998E+02 -0.12633E+06
 0.43949997E+02 -0.15684E+06
 0.43999996E+02 -0.11244E+06
 0.44049995E+02 -0.72805E+05
 0.44099998E+02 -0.18316E+05
 0.44149998E+02  0.56375E+05
 0.44199997E+02  0.12464E+06
 0.44249996E+02  0.20502E+06
 0.44299995E+02  0.22959E+06
 0.44349998E+02  0.22298E+06
 0.44399998E+02  0.25256E+06
 0.44449997E+02  0.23283E+06
 0.44499996E+02  0.14282E+06
 0.44549995E+02  0.45086E+05
 0.44599998E+02 -0.38608E+05
 0.44649998E+02 -0.70754E+05
 0.44699997E+02 -0.58095E+05
 0.44749996E+02 -0.39568E+05
 0.44799995E+02 -0.35197E+05
 0.44849998E+02 -0.62008E+05
 0.44899998E+02 -0.93325E+05
 0.44949997E+02 -0.76770E+05
 0.44999996E+02 -0.98474E+04
 0.45049995E+02  0.51521E+05
 0.45099998E+02  0.98727E+05
 0.45149998E+02  0.16698E+06
 0.45199997E+02  0.22926E+06
 0.45249996E+02  0.27350E+06
 0.45299995E+02  0.29145E+06
 0.45349998E+02  0.26977E+06
 0.45399998E+02  0.23698E+06
 0.45449997E+02  0.20129E+06
 0.45499996E+02  0.16294E+06
 0.45549995E+02  0.12893E+06
 0.45599998E+02  0.11153E+06
 0.45649998E+02  0.10328E+06
 0.45699997E+02  0.10177E+06
 0.45749996E+02  0.10486E+06
 0.45799995E+02  0.10876E+06
 0.45849998E+02  0.14144E+06
 0.45899998E+02  0.18010E+06
 0.45949997E+02  0.23630E+06
 0.45999996E+02  0.28691E+06
 0.46049995E+02  0.31952E+06
 0.46099998E+02  0.34995E+06
 0.46149998E+02  0.37325E+06
 0.46199997E+02  0.40230E+06
 0.46249996E+02  0.39801E+06
 0.46299995E+02  0.38626E+06
 0.46349998E+02  0.39318E+06
 0.46399998E+02  0.41377E+06
 0.46449997E+02  0.41171E+06
 0.46499996E+02  0.38598E+06
 0.46549995E+02  0.35562E+06
 0.46599998E+02  0.33509E+06
 0.46649998E+02  0.31993E+06
 0.46699997E+02  0.28680E+06
 0.46749996E+02  0.24747E+06
 0.46799995E+02  0.20410E+06
 0.46849998E+02  0.19541E+06
 0.46899998E+02  0.21984E+06
 0.46949997E+02  0.25533E+06
 0.46999996E+02  0.30157E+06
 0.47049995E+02  0.37830E+06
 0.47099998E+02  0.45933E+06
 0.47149998E+02  0.47681E+06
 0.47199997E+02  0.46161E+06
 0.47249996E+02  0.44016E+06
 0.47299995E+02  0.42711E+06
 0.47349998E+02  0.43655E+06
 0.47399998E+02  0.43476E+06
 0.47449997E+02  0.39883E+06
 0.47499996E+02  0.35425E+06
 0.47549995E+02  0.32706E+06
 0.47599998E+02  0.27975E+06
 0.47649998E+02  0.20323E+06
 0.47699997E+02  0.11391E+06
 0.47749996E+02  0.46405E+05
 0.47799995E+02 -0.71262E+04
 0.47849998E+02 -0.42900E+05
 0.47899998E+02 -0.27624E+05
 0.47949997E+02 -0.11998E+04
 0.47999996E+02  0.13231E+05
 0.48049995E+02  0.37498E+05
 0.48099998E+02  0.86659E+05
 0.48149998E+02  0.12235E+06
 0.48199997E+02  0.11847E+06
 0.48249996E+02  0.10627E+06
 0.48299995E+02  0.10318E+06
 0.48349998E+02  0.12398E+06
 0.48399998E+02  0.16314E+06
 0.48449997E+02  0.21287E+06
 0.48499996E+02  0.27874E+06
 0.48549995E+02  0.32271E+06
 0.48599998E+02  0.33967E+06
 0.48649998E+02  0.34504E+06
 0.48699997E+02  0.35150E+06
 0.48749996E+02  0.36052E+06
 0.48799995E+02  0.38587E+06
 0.48849998E+02  0.41276E+06
 0.48899998E+02  0.41377E+06
 0.48949997E+02  0.42710E+06
 0.48999996E+02  0.46107E+06
 0.49049995E+02  0.45732E+06
 0.49099998E+02  0.42463E+06
 0.49149998E+02  0.42042E+06
 0.49199997E+02  0.38458E+06
 0.49249996E+02  0.30945E+06
 0.49299995E+02  0.24489E+06
 0.49349998E+02  0.17118E+06
 0.49399998E+02  0.13141E+06
 0.49449997E+02  0.14973E+06
 0.49499996E+02  0.21012E+06
 0.49549995E+02  0.30553E+06
 0.49599998E+02  0.39869E+06
 0.49649998E+02  0.46697E+06
 0.49699997E+02  0.53241E+06
 0.49749996E+02  0.61052E+06
 0.49799995E+02  0.65029E+06
 0.49849998E+02  0.65628E+06
 0.49899998E+02  0.65629E+06
 0.49949997E+02  0.64788E+06
 0.49999996E+02  0.59634E+06
 0.50049995E+02  0.51510E+06
 0.50099998E+02  0.43844E+06
 0.50149998E+02  0.33431E+06
 0.50199997E+02  0.22473E+06
 0.50249996E+02  0.14234E+06
 0.50299995E+02  0.65171E+05
 0.50349998E+02  0.44828E+04
 0.50399998E+02 -0.86160E+04
 0.50449997E+02 -0.64483E+04
 0.50499996E+02  0.48829E+04
 0.50549995E+02 -0.64571E+04
 0.50599998E+02 -0.52859E+05
 0.50649998E+02 -0.10786E+06
 0.50699997E+02 -0.14093E+06
 0.50749996E+02 -0.16269E+06
 0.50799995E+02 -0.18194E+06
 0.50849998E+02 -0.15833E+06
 0.50899998E+02 -0.14151E+06
 0.50949997E+02 -0.13255E+06
 0.50999996E+02 -0.12185E+06
 0.51049995E+02 -0.10417E+06
 0.51099998E+02 -0.65608E+05
 0.51149998E+02 -0.29316E+05
 0.51199997E+02  0.41230E+04
 0.51249996E+02  0.34732E+05
 0.51299995E+02  0.75096E+05
 0.51349998E+02  0.10685E+06
 0.51399998E+02  0.13665E+06
 0.51449997E+02  0.16351E+06
 0.51499996E+02  0.17570E+06
 0.51549995E+02  0.19907E+06
 0.51599998E+02  0.20888E+06
 0.51649998E+02  0.20781E+06
 0.51699997E+02  0.21214E+06
 0.51749996E+02  0.23801E+06
 0.51799995E+02  0.25388E+06
 0.51849998E+02  0.24724E+06
 0.51899998E+02  0.25112E+06
 0.51949997E+02  0.25421E+06
 0.51999996E+02  0.23189E+06
 0.52049995E+02  0.20347E+06
 0.52099998E+02  0.21142E+06
 0.52149998E+02  0.23519E+06
 0.52199997E+02  0.25596E+06
 0.52249996E+02  0.25784E+06
 0.52299995E+02  0.25150E+06
 0.52349998E+02  0.25708E+06
 0.52399998E+02  0.25809E+06
 0.52449997E+02  0.24879E+06
 0.52499996E+02  0.24883E+06
 0.52549995E+02  0.26805E+06
 0.52599998E+02  0.30337E+06
 0.52649998E+02  0.32848E+06
 0.52699997E+02  0.34748E+06
 0.52749996E+02  0.40623E+06
 0.52799995E+02  0.47512E+06
 0.52849998E+02  0.51613E+06
 0.52899998E+02  0.54630E+06
 0.52949997E+02  0.57433E+06
 0.52999996E+02  0.59572E+06
 0.53049995E+02  0.59943E+06
 0.53099998E+02  0.60616E+06
 0.53149998E+02  0.61593E+06
 0.53199997E+02  0.61592E+06
 0.53249996E+02  0.61519E+06
 0.53299995E+02  0.59914E+06
 0.53349998E+02  0.58179E+06
 0.53399998E+02  0.54491E+06
 0.53449997E+02  0.49621E+06
 0.53499996E+02  0.44727E+06
 0.53549995E+02  0.39077E+06
 0.53599998E+02  0.34267E+06
 0.53649998E+02  0.30409E+06
 0.53699997E+02  0.26931E+06
 0.53749996E+02  0.23446E+06
 0.53799995E+02  0.22229E+06
 0.53849998E+02  0.22445E+06
 0.53899998E+02  0.22868E+06
 0.53949997E+02  0.22459E+06
 0.53999996E+02  0.21710E+06
 0.54049995E+02  0.20393E+06
 0.54099998E+02  0.17999E+06
 0.54149998E+02  0.13989E+06
 0.54199997E+02  0.85343E+05
 0.54249996E+02  0.39946E+05
 0.54299995E+02 -0.51002E+03
 0.54349998E+02 -0.28635E+05
 0.54399998E+02 -0.35960E+05
 0.54449997E+02 -0.31666E+05
 0.54499996E+02 -0.89348E+04
 0.54549995E+02  0.36221E+05
 0.54599998E+02  0.75236E+05
 0.54649998E+02  0.96434E+05
 0.54699997E+02  0.11525E+06
 0.54749996E+02  0.14542E+06
 0.54799995E+02  0.20211E+06
 0.54849998E+02  0.26824E+06
 0.54899998E+02  0.32449E+06
 0.54949997E+02  0.37689E+06
 0.54999996E+02  0.40498E+06
 0.55049995E+02  0.40435E+06
 0.55099998E+02  0.37612E+06
 0.55149998E+02  0.31541E+06
 0.55199997E+02  0.23354E+06
 0.55249996E+02  0.15258E+06
 0.55299995E+02  0.85140E+05
 0.55349998E+02  0.47503E+05
 0.55399998E+02  0.50941E+05
 0.55449997E+02  0.80397E+05
 0.55499996E+02  0.12447E+06
 0.55549995E+02  0.16749E+06
 0.55599998E+02  0.19910E+06
 0.55649998E+02  0.22781E+06
 0.55699997E+02  0.27176E+06
 0.55749996E+02  0.30938E+06
 0.55799995E+02  0.33816E+06
 0.55849995E+02  0.37160E+06
 0.55899998E+02  0.40892E+06
 0.55949997E+02  0.44117E+06
 0.55999996E+02  0.46108E+06
 0.56049995E+02  0.47422E+06
 0.56099995E+02  0.49486E+06
 0.56149998E+02  0.51566E+06
 0.56199997E+02  0.52127E+06
 0.56249996E+02  0.49989E+06
 0.56299995E+02  0.45541E+06
 0.56349995E+02  0.41385E+06
 0.56399998E+02  0.38326E+06
 0.56449997E+02  0.36347E+06
 0.56499996E+02  0.33838E+06
 0.56549995E+02  0.33134E+06
 0.56599995E+02  0.33397E+06
 0.56649998E+02  0.32304E+06
 0.56699997E+02  0.31042E+06
 0.56749996E+02  0.29957E+06
 0.56799995E+02  0.29891E+06
 0.56849995E+02  0.30685E+06
 0.56899998E+02  0.30819E+06
 0.56949997E+02  0.29831E+06
 0.56999996E+02  0.29534E+06
 0.57049995E+02  0.30087E+06
 0.57099995E+02  0.31489E+06
 0.57149998E+02  0.32267E+06
 0.57199997E+02  0.32120E+06
 0.57249996E+02  0.31982E+06
 0.57299995E+02  0.31417E+06
 0.57349995E+02  0.31032E+06
 0.57399998E+02  0.30182E+06
 0.57449997E+02  0.29240E+06
 0.57499996E+02  0.28816E+06
 0.57549995E+02  0.27520E+06
 0.57599995E+02  0.25000E+06
 0.57649998E+02  0.22472E+06
 0.57699997E+02  0.19970E+06
 0.57749996E+02  0.18834E+06
 0.57799995E+02  0.19789E+06
 0.57849995E+02  0.22256E+06
 0.57899998E+02  0.25264E+06
 0.57949997E+02  0.28009E+06
 0.57999996E+02  0.31411E+06
 0.58049995E+02  0.35165E+06
 0.58099995E+02  0.38837E+06
 0.58149998E+02  0.40940E+06
 0.58199997E+02  0.41793E+06
 0.58249996E+02  0.41356E+06
 0.58299995E+02  0.39981E+06
 0.58349995E+02  0.39644E+06
 0.58399998E+02  0.39127E+06
 0.58449997E+02  0.37025E+06
 0.58499996E+02  0.34237E+06
 0.58549995E+02  0.32190E+06
 0.58599995E+02  0.30566E+06
 0.58649998E+02  0.30134E+06
 0.58699997E+02  0.30613E+06
 0.58749996E+02  0.31541E+06
 0.58799995E+02  0.33249E+06
 0.58849995E+02  0.35540E+06
 0.58899998E+02  0.38352E+06
 0.58949997E+02  0.43189E+06
 0.58999996E+02  0.48886E+06
 0.59049995E+02  0.53059E+06
 0.59099995E+02  0.56913E+06
 0.59149998E+02  0.60166E+06
 0.59199997E+02  0.62299E+06
 0.59249996E+02  0.63234E+06
 0.59299995E+02  0.61811E+06
 0.59349995E+02  0.59364E+06
 0.59399998E+02  0.57539E+06
 0.59449997E+02  0.54006E+06
 0.59499996E+02  0.46537E+06
 0.59549995E+02  0.36542E+06
 0.59599995E+02  0.25902E+06
 0.59649998E+02  0.15094E+06
 0.59699997E+02  0.48207E+05
 0.59749996E+02 -0.41617E+05
 0.59799995E+02 -0.10979E+06
 0.59849995E+02 -0.16379E+06
 0.59899998E+02 -0.20597E+06
 0.59949997E+02 -0.24255E+06
 0.59999996E+02 -0.27527E+06
 0.60049995E+02 -0.29013E+06
 0.60099995E+02 -0.29204E+06
 0.60149998E+02 -0.28624E+06
 0.60199997E+02 -0.27607E+06
 0.60249996E+02 -0.25307E+06
 0.60299995E+02 -0.21449E+06
 0.60349995E+02 -0.17658E+06
 0.60399998E+02 -0.14657E+06
 0.60449997E+02 -0.11891E+06
 0.60499996E+02 -0.72582E+05
 0.60549995E+02 -0.10572E+05
 0.60599995E+02  0.53759E+05
 0.60649998E+02  0.12338E+06
 0.60699997E+02  0.18970E+06
 0.60749996E+02  0.24970E+06
 0.60799995E+02  0.29592E+06
 0.60849995E+02  0.31314E+06
 0.60899998E+02  0.31101E+06
 0.60949997E+02  0.29555E+06
 0.60999996E+02  0.27670E+06
 0.61049995E+02  0.26714E+06
 0.61099995E+02  0.26717E+06
 0.61149998E+02  0.27115E+06
 0.61199997E+02  0.27991E+06
 0.61249996E+02  0.29834E+06
 0.61299995E+02  0.31422E+06
 0.61349995E+02  0.32687E+06
 0.61399998E+02  0.33735E+06
 0.61449997E+02  0.34369E+06
 0.61499996E+02  0.35100E+06
 0.61549995E+02  0.36542E+06
 0.61599995E+02  0.38202E+06
 0.61649998E+02  0.39134E+06
 0.61699997E+02  0.38536E+06
 0.61749996E+02  0.38114E+06
 0.61799995E+02  0.38316E+06
 0.61849995E+02  0.36996E+06
 0.61899998E+02  0.35481E+06
 0.61949997E+02  0.35122E+06
 0.61999996E+02  0.35066E+06
 0.62049995E+02  0.35064E+06
 0.62099998E+02  0.35833E+06
 0.62149994E+02  0.37300E+06
 0.62199997E+02  0.38037E+06
 0.62249992E+02  0.38555E+06
 0.62299995E+02  0.39834E+06
 0.62349998E+02  0.39846E+06
 0.62399994E+02  0.38183E+06
 0.62449997E+02  0.36616E+06
 0.62499992E+02  0.34448E+06
 0.62549995E+02  0.31038E+06
 0.62599998E+02  0.27048E+06
 0.62649994E+02  0.22269E+06
 0.62699997E+02  0.17034E+06
 0.62749992E+02  0.12345E+06
 0.62799995E+02  0.85407E+05
 0.62849998E+02  0.63296E+05
 0.62899994E+02  0.62546E+05
 0.62949997E+02  0.74631E+05
 0.62999992E+02  0.89735E+05
 0.63049995E+02  0.10253E+06
 0.63099998E+02  0.11754E+06
 0.63149994E+02  0.14117E+06
 0.63199997E+02  0.17807E+06
 0.63249992E+02  0.20939E+06
 0.63299995E+02  0.23056E+06
 0.63349998E+02  0.25143E+06
 0.63399994E+02  0.26821E+06
 0.63449997E+02  0.28436E+06
 0.63499992E+02  0.30103E+06
 0.63549995E+02  0.31749E+06
 0.63599998E+02  0.33801E+06
 0.63649994E+02  0.36217E+06
 0.63699997E+02  0.38062E+06
 0.63749992E+02  0.39898E+06
 0.63799995E+02  0.41767E+06
 0.63849998E+02  0.43678E+06
 0.63899994E+02  0.45669E+06
 0.63949997E+02  0.47047E+06
 0.63999992E+02  0.47557E+06
 0.64049995E+02  0.47558E+06
 0.64099998E+02  0.46749E+06
 0.64149994E+02  0.45829E+06
 0.64199997E+02  0.46168E+06
 0.64249992E+02  0.46797E+06
 0.64299995E+02  0.46595E+06
 0.64349998E+02  0.44695E+06
 0.64399994E+02  0.41540E+06
 0.64449997E+02  0.38340E+06
 0.64499992E+02  0.35591E+06
 0.64549995E+02  0.33219E+06
 0.64599998E+02  0.32126E+06
 0.64649994E+02  0.31479E+06
 0.64699997E+02  0.30102E+06
 0.64749992E+02  0.28266E+06
 0.64799995E+02  0.26403E+06
 0.64849998E+02  0.24112E+06
 0.64899994E+02  0.21262E+06
 0.64949997E+02  0.19206E+06
 0.64999992E+02  0.17545E+06
 0.65049995E+02  0.16413E+06
 0.65099998E+02  0.16132E+06
 0.65149994E+02  0.16838E+06
 0.65199997E+02  0.18929E+06
 0.65249992E+02  0.20904E+06
 0.65299995E+02  0.21111E+06
 0.65349998E+02  0.20137E+06
 0.65399994E+02  0.18456E+06
 0.65449997E+02  0.16077E+06
 0.65499992E+02  0.13355E+06
 0.65549995E+02  0.10082E+06
 0.65599998E+02  0.72944E+05
 0.65649994E+02  0.56688E+05
 0.65699997E+02  0.41574E+05
 0.65749992E+02  0.24745E+05
 0.65799995E+02  0.14869E+05
 0.65849998E+02  0.14628E+05
 0.65899994E+02  0.22163E+05
 0.65949997E+02  0.38767E+05
 0.65999992E+02  0.64639E+05
 0.66049995E+02  0.99887E+05
 0.66099998E+02  0.13801E+06
 0.66149994E+02  0.17497E+06
 0.66199997E+02  0.21434E+06
 0.66249992E+02  0.25679E+06
 0.66299995E+02  0.29314E+06
 0.66349998E+02  0.31525E+06
 0.66399994E+02  0.32739E+06
 0.66449997E+02  0.34072E+06
 0.66499992E+02  0.35419E+06
 0.66549995E+02  0.36543E+06
 0.66599998E+02  0.38112E+06
 0.66649994E+02  0.39364E+06
 0.66699997E+02  0.40115E+06
 0.66749992E+02  0.39975E+06
 0.66799995E+02  0.39170E+06
 0.66849998E+02  0.38881E+06
 0.66899994E+02  0.38794E+06
 0.66949997E+02  0.38463E+06
 0.66999992E+02  0.38252E+06
 0.67049995E+02  0.38735E+06
 0.67099998E+02  0.40047E+06
 0.67149994E+02  0.41056E+06
 0.67199997E+02  0.40698E+06
 0.67249992E+02  0.39730E+06
 0.67299995E+02  0.38458E+06
 0.67349998E+02  0.36621E+06
 0.67399994E+02  0.33849E+06
 0.67449997E+02  0.30856E+06
 0.67499992E+02  0.28756E+06
 0.67549995E+02  0.27339E+06
 0.67599998E+02  0.26077E+06
 0.67649994E+02  0.25108E+06
 0.67699997E+02  0.25060E+06
 0.67749992E+02  0.26115E+06
 0.67799995E+02  0.27853E+06
 0.67849998E+02  0.29915E+06
 0.67899994E+02  0.31870E+06
 0.67949997E+02  0.32337E+06
 0.67999992E+02  0.31600E+06
 0.68049995E+02  0.30510E+06
 0.68099998E+02  0.28675E+06
 0.68149994E+02  0.26102E+06
 0.68199997E+02  0.23210E+06
 0.68249992E+02  0.20839E+06
 0.68299995E+02  0.19697E+06
 0.68349998E+02  0.19906E+06
 0.68399994E+02  0.21419E+06
 0.68449997E+02  0.23445E+06
 0.68499992E+02  0.25253E+06
 0.68549995E+02  0.27263E+06
 0.68599998E+02  0.29653E+06
 0.68649994E+02  0.31650E+06
 0.68699997E+02  0.33045E+06
 0.68749992E+02  0.34396E+06
 0.68799995E+02  0.35380E+06
 0.68849998E+02  0.35826E+06
 0.68899994E+02  0.35337E+06
 0.68949997E+02  0.33921E+06
 0.68999992E+02  0.31787E+06
 0.69049995E+02  0.28664E+06
 0.69099998E+02  0.24183E+06
 0.69149994E+02  0.18994E+06
 0.69199997E+02  0.14650E+06
 0.69249992E+02  0.11271E+06
 0.69299995E+02  0.90540E+05
 0.69349998E+02  0.81796E+05
 0.69399994E+02  0.80651E+05
 0.69449997E+02  0.84278E+05
 0.69499992E+02  0.95469E+05
 0.69549995E+02  0.11476E+06
 0.69599998E+02  0.14098E+06
 0.69649994E+02  0.17429E+06
 0.69699997E+02  0.20493E+06
 0.69749992E+02  0.23362E+06
 0.69799995E+02  0.26393E+06
 0.69849998E+02  0.28602E+06
 0.69899994E+02  0.29628E+06
 0.69949997E+02  0.29498E+06
 0.69999992E+02  0.28369E+06
 0.70049995E+02  0.26404E+06
 0.70099998E+02  0.24674E+06
 0.70149994E+02  0.23311E+06
 0.70199997E+02  0.22130E+06
 0.70249992E+02  0.22091E+06
 0.70299995E+02  0.22871E+06
 0.70349998E+02  0.23872E+06
 0.70399994E+02  0.25247E+06
 0.70449997E+02  0.26462E+06
 0.70499992E+02  0.27553E+06
 0.70549995E+02  0.29062E+06
 0.70599998E+02  0.29530E+06
 0.70649994E+02  0.28395E+06
 0.70699997E+02  0.26900E+06
 0.70749992E+02  0.25387E+06
 0.70799995E+02  0.23086E+06
 0.70849998E+02  0.19615E+06
 0.70899994E+02  0.15258E+06
 0.70949997E+02  0.10257E+06
 0.70999992E+02  0.48962E+05
 0.71049995E+02  0.22906E+04
 0.71099998E+02 -0.32208E+05
 0.71149994E+02 -0.62021E+05
 0.71199997E+02 -0.76978E+05
 0.71249992E+02 -0.73175E+05
 0.71299995E+02 -0.53640E+05
 0.71349998E+02 -0.19062E+05
 0.71399994E+02  0.22588E+05
 0.71449997E+02  0.70564E+05
 0.71499992E+02  0.11504E+06
 0.71549995E+02  0.15480E+06
 0.71599998E+02  0.19923E+06
 0.71649994E+02  0.24801E+06
 0.71699997E+02  0.29476E+06
 0.71749992E+02  0.33444E+06
 0.71799995E+02  0.36755E+06
 0.71849998E+02  0.39348E+06
 0.71899994E+02  0.40777E+06
 0.71949997E+02  0.41287E+06
 0.71999992E+02  0.41814E+06
 0.72049995E+02  0.42581E+06
 0.72099998E+02  0.43285E+06
 0.72149994E+02  0.44524E+06
 0.72199997E+02  0.46144E+06
 0.72249992E+02  0.46670E+06
 0.72299995E+02  0.45906E+06
 0.72349998E+02  0.44444E+06
 0.72399994E+02  0.42131E+06
 0.72449997E+02  0.38462E+06
 0.72499992E+02  0.33928E+06
 0.72549995E+02  0.29962E+06
 0.72599998E+02  0.26960E+06
 0.72649994E+02  0.24425E+06
 0.72699997E+02  0.22515E+06
 0.72749992E+02  0.21678E+06
 0.72799995E+02  0.20900E+06
 0.72849998E+02  0.19508E+06
 0.72899994E+02  0.18087E+06
 0.72949997E+02  0.16809E+06
 0.72999992E+02  0.15830E+06
 0.73049995E+02  0.15513E+06
 0.73099998E+02  0.15996E+06
 0.73149994E+02  0.16524E+06
 0.73199997E+02  0.16955E+06
 0.73249992E+02  0.17931E+06
 0.73299995E+02  0.18944E+06
 0.73349998E+02  0.19761E+06
 0.73399994E+02  0.20422E+06
 0.73449997E+02  0.20868E+06
 0.73499992E+02  0.21261E+06
 0.73549995E+02  0.21124E+06
 0.73599998E+02  0.20225E+06
 0.73649994E+02  0.18903E+06
 0.73699997E+02  0.17832E+06
 0.73749992E+02  0.16558E+06
 0.73799995E+02  0.14312E+06
 0.73849998E+02  0.12084E+06
 0.73899994E+02  0.11055E+06
 0.73949997E+02  0.10513E+06
 0.73999992E+02  0.98252E+05
 0.74049995E+02  0.93726E+05
 0.74099998E+02  0.95546E+05
 0.74149994E+02  0.98138E+05
 0.74199997E+02  0.99774E+05
 0.74249992E+02  0.10145E+06
 0.74299995E+02  0.98837E+05
 0.74349998E+02  0.95281E+05
 0.74399994E+02  0.96132E+05
 0.74449997E+02  0.10493E+06
 0.74499992E+02  0.11957E+06
 0.74549995E+02  0.14218E+06
 0.74599998E+02  0.16938E+06
 0.74649994E+02  0.19709E+06
 0.74699997E+02  0.22444E+06
 0.74749992E+02  0.24337E+06
 0.74799995E+02  0.25413E+06
 0.74849998E+02  0.26403E+06
 0.74899994E+02  0.27018E+06
 0.74949997E+02  0.27089E+06
 0.74999992E+02  0.26546E+06
 0.75049995E+02  0.25702E+06
 0.75099998E+02  0.24961E+06
 0.75149994E+02  0.24387E+06
 0.75199997E+02  0.23768E+06
 0.75249992E+02  0.22394E+06
 0.75299995E+02  0.20269E+06
 0.75349998E+02  0.17380E+06
 0.75399994E+02  0.14541E+06
 0.75449997E+02  0.12027E+06
 0.75499992E+02  0.96820E+05
 0.75549995E+02  0.75685E+05
 0.75599998E+02  0.62067E+05
 0.75649994E+02  0.57959E+05
 0.75699997E+02  0.54991E+05
 0.75749992E+02  0.52667E+05
 0.75799995E+02  0.52143E+05
 0.75849998E+02  0.55274E+05
 0.75899994E+02  0.62134E+05
 0.75949997E+02  0.73054E+05
 0.75999992E+02  0.88645E+05
 0.76049995E+02  0.10716E+06
 0.76099998E+02  0.12737E+06
 0.76149994E+02  0.14695E+06
 0.76199997E+02  0.16311E+06
 0.76249992E+02  0.17866E+06
 0.76299995E+02  0.18866E+06
 0.76349998E+02  0.19233E+06
 0.76399994E+02  0.19400E+06
 0.76449997E+02  0.19209E+06
 0.76499992E+02  0.19489E+06
 0.76549995E+02  0.19993E+06
 0.76599998E+02  0.20470E+06
 0.76649994E+02  0.21650E+06
 0.76699997E+02  0.23985E+06
 0.76749992E+02  0.27120E+06
 0.76799995E+02  0.30123E+06
 0.76849998E+02  0.32378E+06
 0.76899994E+02  0.33795E+06
 0.76949997E+02  0.34901E+06
 0.76999992E+02  0.36001E+06
 0.77049995E+02  0.36627E+06
 0.77099998E+02  0.36619E+06
 0.77149994E+02  0.36433E+06
 0.77199997E+02  0.36387E+06
 0.77249992E+02  0.36298E+06
 0.77299995E+02  0.35499E+06
 0.77349998E+02  0.33866E+06
 0.77399994E+02  0.32102E+06
 0.77449997E+02  0.30600E+06
 0.77499992E+02  0.29235E+06
 0.77549995E+02  0.28011E+06
 0.77599998E+02  0.26925E+06
 0.77649994E+02  0.25973E+06
 0.77699997E+02  0.25054E+06
 0.77749992E+02  0.24262E+06
 0.77799995E+02  0.23823E+06
 0.77849998E+02  0.23743E+06
 0.77899994E+02  0.23435E+06
 0.77949997E+02  0.23270E+06
 0.77999992E+02  0.23375E+06
 0.78049995E+02  0.22635E+06
 0.78099998E+02  0.21310E+06
 0.78149994E+02  0.19725E+06
 0.78199997E+02  0.18086E+06
 0.78249992E+02  0.16997E+06
 0.78299995E+02  0.16313E+06
 0.78349998E+02  0.15311E+06
 0.78399994E+02  0.14029E+06
 0.78449997E+02  0.12802E+06
 0.78499992E+02  0.11382E+06
 0.78549995E+02  0.97357E+05
 0.78599998E+02  0.78533E+05
 0.78649994E+02  0.56889E+05
 0.78699997E+02  0.34775E+05
 0.78749992E+02  0.18932E+05
 0.78799995E+02  0.14964E+05
 0.78849998E+02  0.22113E+05
 0.78899994E+02  0.37343E+05
 0.78949997E+02  0.61622E+05
 0.78999992E+02  0.94844E+05
 0.79049995E+02  0.13259E+06
 0.79099998E+02  0.17050E+06
 0.79149994E+02  0.20593E+06
 0.79199997E+02  0.23582E+06
 0.79249992E+02  0.25644E+06
 0.79299995E+02  0.26856E+06
 0.79349998E+02  0.27317E+06
 0.79399994E+02  0.26998E+06
 0.79449997E+02  0.26364E+06
 0.79499992E+02  0.25909E+06
 0.79549995E+02  0.25597E+06
 0.79599998E+02  0.25395E+06
 0.79649994E+02  0.25367E+06
 0.79699997E+02  0.25331E+06
 0.79749992E+02  0.25030E+06
 0.79799995E+02  0.24693E+06
 0.79849998E+02  0.24544E+06
 0.79899994E+02  0.24383E+06
 0.79949997E+02  0.24161E+06
 0.79999992E+02  0.23977E+06
 0.80049995E+02  0.24070E+06
 0.80099998E+02  0.24700E+06
 0.80149994E+02  0.25443E+06
 0.80199997E+02  0.26161E+06
 0.80249992E+02  0.27042E+06
 0.80299995E+02  0.27837E+06
 0.80349998E+02  0.28400E+06
 0.80399994E+02  0.28693E+06
 0.80449997E+02  0.28850E+06
 0.80499992E+02  0.28600E+06
 0.80549995E+02  0.27763E+06
 0.80599998E+02  0.26610E+06
 0.80649994E+02  0.25222E+06
 0.80699997E+02  0.24084E+06
 0.80749992E+02  0.23151E+06
 0.80799995E+02  0.22470E+06
 0.80849998E+02  0.22545E+06
 0.80899994E+02  0.23020E+06
 0.80949997E+02  0.23459E+06
 0.80999992E+02  0.23728E+06
 0.81049995E+02  0.23713E+06
 0.81099998E+02  0.23176E+06
 0.81149994E+02  0.22107E+06
 0.81199997E+02  0.20376E+06
 0.81249992E+02  0.18265E+06
 0.81299995E+02  0.16387E+06
 0.81349998E+02  0.14333E+06
 0.81399994E+02  0.11880E+06
 0.81449997E+02  0.94591E+05
 0.81499992E+02  0.69831E+05
 0.81549995E+02  0.44177E+05
 0.81599998E+02  0.20313E+05
 0.81649994E+02 -0.11358E+04
 0.81699997E+02 -0.16527E+05
 0.81749992E+02 -0.18741E+05
 0.81799995E+02 -0.10869E+05
 0.81849998E+02  0.14237E+04
 0.81899994E+02  0.18781E+05
 0.81949997E+02  0.37832E+05
 0.81999992E+02  0.55653E+05
 0.82049995E+02  0.72071E+05
 0.82099998E+02  0.86393E+05
 0.82149994E+02  0.98563E+05
 0.82199997E+02  0.11076E+06
 0.82249992E+02  0.12459E+06
 0.82299995E+02  0.14396E+06
 0.82349998E+02  0.16703E+06
 0.82399994E+02  0.19000E+06
 0.82449997E+02  0.21463E+06
 0.82499992E+02  0.23869E+06
 0.82549995E+02  0.25865E+06
 0.82599998E+02  0.27518E+06
 0.82649994E+02  0.29057E+06
 0.82699997E+02  0.30118E+06
 0.82749992E+02  0.30314E+06
 0.82799995E+02  0.29868E+06
 0.82849998E+02  0.28960E+06
 0.82899994E+02  0.27564E+06
 0.82949997E+02  0.25520E+06
 0.82999992E+02  0.22995E+06
 0.83049995E+02  0.20431E+06
 0.83099998E+02  0.18406E+06
 0.83149994E+02  0.16830E+06
 0.83199997E+02  0.15214E+06
 0.83249992E+02  0.13662E+06
 0.83299995E+02  0.12258E+06
 0.83349998E+02  0.10899E+06
 0.83399994E+02  0.91274E+05
 0.83449997E+02  0.68890E+05
 0.83499992E+02  0.42651E+05
 0.83549995E+02  0.14035E+05
 0.83599998E+02 -0.14583E+05
 0.83649994E+02 -0.39727E+05
 0.83699997E+02 -0.55031E+05
 0.83749992E+02 -0.60441E+05
 0.83799995E+02 -0.58028E+05
 0.83849998E+02 -0.46035E+05
 0.83899994E+02 -0.27867E+05
 0.83949997E+02 -0.92950E+04
 0.83999992E+02  0.77014E+04
 0.84049995E+02  0.21950E+05
 0.84099998E+02  0.37382E+05
 0.84149994E+02  0.56646E+05
 0.84199997E+02  0.76140E+05
 0.84249992E+02  0.95429E+05
 0.84299995E+02  0.11987E+06
 0.84349998E+02  0.14732E+06
 0.84399994E+02  0.17270E+06
 0.84449997E+02  0.19324E+06
 0.84499992E+02  0.20873E+06
 0.84549995E+02  0.22020E+06
 0.84599998E+02  0.22487E+06
 0.84649994E+02  0.22156E+06
 0.84699997E+02  0.21107E+06
 0.84749992E+02  0.19533E+06
 0.84799995E+02  0.17285E+06
 0.84849998E+02  0.14733E+06
 0.84899994E+02  0.12611E+06
 0.84949997E+02  0.11238E+06
 0.84999992E+02  0.10302E+06
 0.85049995E+02  0.95309E+05
 0.85099998E+02  0.90086E+05
 0.85149994E+02  0.88067E+05
 0.85199997E+02  0.90316E+05
 0.85249992E+02  0.93448E+05
 0.85299995E+02  0.95198E+05
 0.85349998E+02  0.97058E+05
 0.85399994E+02  0.99354E+05
 0.85449997E+02  0.99075E+05
 0.85499992E+02  0.95100E+05
 0.85549995E+02  0.90265E+05
 0.85599998E+02  0.86769E+05
 0.85649994E+02  0.81719E+05
 0.85699997E+02  0.72548E+05
 0.85749992E+02  0.60096E+05
 0.85799995E+02  0.51005E+05
 0.85849998E+02  0.44975E+05
 0.85899994E+02  0.35318E+05
 0.85949997E+02  0.25985E+05
 0.85999992E+02  0.22145E+05
 0.86049995E+02  0.24006E+05
 0.86099998E+02  0.28953E+05
 0.86149994E+02  0.35401E+05
 0.86199997E+02  0.45125E+05
 0.86249992E+02  0.59913E+05
 0.86299995E+02  0.76486E+05
 0.86349998E+02  0.92308E+05
 0.86399994E+02  0.10625E+06
 0.86449997E+02  0.11708E+06
 0.86499992E+02  0.12622E+06
 0.86549995E+02  0.13383E+06
 0.86599998E+02  0.13812E+06
 0.86649994E+02  0.13612E+06
 0.86699997E+02  0.12648E+06
 0.86749992E+02  0.11333E+06
 0.86799995E+02  0.10391E+06
 0.86849998E+02  0.10081E+06
 0.86899994E+02  0.10503E+06
 0.86949997E+02  0.11643E+06
 0.86999992E+02  0.13142E+06
 0.87049995E+02  0.14694E+06
 0.87099998E+02  0.16135E+06
 0.87149994E+02  0.17678E+06
 0.87199997E+02  0.19213E+06
 0.87249992E+02  0.20632E+06
 0.87299995E+02  0.22186E+06
 0.87349998E+02  0.24099E+06
 0.87399994E+02  0.26213E+06
 0.87449997E+02  0.28295E+06
 0.87499992E+02  0.30135E+06
 0.87549995E+02  0.31294E+06
 0.87599991E+02  0.31865E+06
 0.87649994E+02  0.31797E+06
 0.87699997E+02  0.31203E+06
 0.87749992E+02  0.30149E+06
 0.87799995E+02  0.28740E+06
 0.87849991E+02  0.27336E+06
 0.87899994E+02  0.25893E+06
 0.87949997E+02  0.24396E+06
 0.87999992E+02  0.22921E+06
 0.88049995E+02  0.21545E+06
 0.88099991E+02  0.20185E+06
 0.88149994E+02  0.18691E+06
 0.88199997E+02  0.16978E+06
 0.88249992E+02  0.14834E+06
 0.88299995E+02  0.12346E+06
 0.88349991E+02  0.97481E+05
 0.88399994E+02  0.73262E+05
 0.88449997E+02  0.54251E+05
 0.88499992E+02  0.41708E+05
 0.88549995E+02  0.35206E+05
 0.88599991E+02  0.30652E+05
 0.88649994E+02  0.28412E+05
 0.88699997E+02  0.27085E+05
 0.88749992E+02  0.23092E+05
 0.88799995E+02  0.16436E+05
 0.88849991E+02  0.10604E+05
 0.88899994E+02  0.10501E+05
 0.88949997E+02  0.15351E+05
 0.88999992E+02  0.23101E+05
 0.89049995E+02  0.34172E+05
 0.89099991E+02  0.49591E+05
 0.89149994E+02  0.67234E+05
 0.89199997E+02  0.85828E+05
 0.89249992E+02  0.10314E+06
 0.89299995E+02  0.11721E+06
 0.89349991E+02  0.12883E+06
 0.89399994E+02  0.13864E+06
 0.89449997E+02  0.14822E+06
 0.89499992E+02  0.15883E+06
 0.89549995E+02  0.17190E+06
 0.89599991E+02  0.18760E+06
 0.89649994E+02  0.20645E+06
 0.89699997E+02  0.22724E+06
 0.89749992E+02  0.24738E+06
 0.89799995E+02  0.26652E+06
 0.89849991E+02  0.28573E+06
 0.89899994E+02  0.30431E+06
 0.89949997E+02  0.31920E+06
 0.89999992E+02  0.32746E+06
 0.90049995E+02  0.32709E+06
 0.90099991E+02  0.31657E+06
 0.90149994E+02  0.29679E+06
 0.90199997E+02  0.27131E+06
 0.90249992E+02  0.24158E+06
 0.90299995E+02  0.20815E+06
 0.90349991E+02  0.17393E+06
 0.90399994E+02  0.14063E+06
 0.90449997E+02  0.10670E+06
 0.90499992E+02  0.71340E+05
 0.90549995E+02  0.34498E+05
 0.90599991E+02 -0.12444E+04
 0.90649994E+02 -0.31497E+05
 0.90699997E+02 -0.54525E+05
 0.90749992E+02 -0.69867E+05
 0.90799995E+02 -0.80459E+05
 0.90849991E+02 -0.87618E+05
 0.90899994E+02 -0.88357E+05
 0.90949997E+02 -0.84573E+05
 0.90999992E+02 -0.79567E+05
 0.91049995E+02 -0.73553E+05
 0.91099991E+02 -0.67128E+05
 0.91149994E+02 -0.61576E+05
 0.91199997E+02 -0.56417E+05
 0.91249992E+02 -0.50113E+05
 0.91299995E+02 -0.42119E+05
 0.91349991E+02 -0.32018E+05
 0.91399994E+02 -0.17377E+05
 0.91449997E+02  0.18571E+04
 0.91499992E+02  0.20224E+05
 0.91549995E+02  0.35783E+05
 0.91599991E+02  0.50397E+05
 0.91649994E+02  0.62435E+05
 0.91699997E+02  0.71573E+05
 0.91749992E+02  0.79939E+05
 0.91799995E+02  0.89366E+05
 0.91849991E+02  0.99572E+05
 0.91899994E+02  0.10894E+06
 0.91949997E+02  0.11656E+06
 0.91999992E+02  0.12198E+06
 0.92049995E+02  0.12560E+06
 0.92099991E+02  0.12684E+06
 0.92149994E+02  0.12510E+06
 0.92199997E+02  0.12027E+06
 0.92249992E+02  0.11360E+06
 0.92299995E+02  0.10676E+06
 0.92349991E+02  0.10112E+06
 0.92399994E+02  0.98043E+05
 0.92449997E+02  0.98722E+05
 0.92499992E+02  0.10578E+06
 0.92549995E+02  0.12123E+06
 0.92599991E+02  0.14137E+06
 0.92649994E+02  0.15955E+06
 0.92699997E+02  0.17431E+06
 0.92749992E+02  0.18793E+06
 0.92799995E+02  0.19815E+06
 0.92849991E+02  0.20264E+06
 0.92899994E+02  0.20132E+06
 0.92949997E+02  0.19589E+06
 0.92999992E+02  0.18889E+06
 0.93049995E+02  0.17956E+06
 0.93099991E+02  0.16895E+06
 0.93149994E+02  0.15984E+06
 0.93199997E+02  0.15060E+06
 0.93249992E+02  0.14145E+06
 0.93299995E+02  0.13540E+06
 0.93349991E+02  0.13254E+06
 0.93399994E+02  0.13513E+06
 0.93449997E+02  0.14439E+06
 0.93499992E+02  0.15790E+06
 0.93549995E+02  0.17599E+06
 0.93599991E+02  0.19756E+06
 0.93649994E+02  0.21810E+06
 0.93699997E+02  0.23535E+06
 0.93749992E+02  0.24990E+06
 0.93799995E+02  0.25972E+06
 0.93849991E+02  0.26235E+06
 0.93899994E+02  0.26080E+06
 0.93949997E+02  0.25649E+06
 0.93999992E+02  0.25155E+06
 0.94049995E+02  0.24766E+06
 0.94099991E+02  0.24413E+06
 0.94149994E+02  0.24103E+06
 0.94199997E+02  0.23609E+06
 0.94249992E+02  0.22681E+06
 0.94299995E+02  0.21345E+06
 0.94349991E+02  0.19737E+06
 0.94399994E+02  0.17953E+06
 0.94449997E+02  0.16090E+06
 0.94499992E+02  0.14347E+06
 0.94549995E+02  0.12931E+06
 0.94599991E+02  0.11928E+06
 0.94649994E+02  0.11221E+06
 0.94699997E+02  0.10350E+06
 0.94749992E+02  0.91440E+05
 0.94799995E+02  0.79448E+05
 0.94849991E+02  0.68360E+05
 0.94899994E+02  0.57315E+05
 0.94949997E+02  0.45718E+05
 0.94999992E+02  0.33973E+05
 0.95049995E+02  0.22723E+05
 0.95099991E+02  0.13577E+05
 0.95149994E+02  0.72173E+04
 0.95199997E+02  0.42227E+04
 0.95249992E+02  0.55887E+04
 0.95299995E+02  0.74979E+04
 0.95349991E+02  0.86276E+04
 0.95399994E+02  0.10835E+05
 0.95449997E+02  0.14291E+05
 0.95499992E+02  0.17259E+05
 0.95549995E+02  0.18737E+05
 0.95599991E+02  0.18986E+05
 0.95649994E+02  0.18958E+05
 0.95699997E+02  0.17654E+05
 0.95749992E+02  0.12738E+05
 0.95799995E+02  0.49716E+04
 0.95849991E+02 -0.29319E+04
 0.95899994E+02 -0.95313E+04
 0.95949997E+02 -0.16231E+05
 0.95999992E+02 -0.23600E+05
 0.96049995E+02 -0.31446E+05
 0.96099991E+02 -0.39721E+05
 0.96149994E+02 -0.48991E+05
 0.96199997E+02 -0.60133E+05
 0.96249992E+02 -0.74093E+05
 0.96299995E+02 -0.88851E+05
 0.96349991E+02 -0.10109E+06
 0.96399994E+02 -0.10911E+06
 0.96449997E+02 -0.11134E+06
 0.96499992E+02 -0.10946E+06
 0.96549995E+02 -0.10640E+06
 0.96599991E+02 -0.10347E+06
 0.96649994E+02 -0.99297E+05
 0.96699997E+02 -0.91578E+05
 0.96749992E+02 -0.80170E+05
 0.96799995E+02 -0.67850E+05
 0.96849991E+02 -0.55664E+05
 0.96899994E+02 -0.43392E+05
 0.96949997E+02 -0.30752E+05
 0.96999992E+02 -0.15657E+05
 0.97049995E+02  0.14579E+04
 0.97099991E+02  0.18426E+05
 0.97149994E+02  0.32951E+05
 0.97199997E+02  0.45272E+05
 0.97249992E+02  0.56947E+05
 0.97299995E+02  0.67374E+05
 0.97349991E+02  0.76329E+05
 0.97399994E+02  0.85084E+05
 0.97449997E+02  0.94191E+05
 0.97499992E+02  0.10287E+06
 0.97549995E+02  0.11156E+06
 0.97599991E+02  0.12051E+06
 0.97649994E+02  0.12880E+06
 0.97699997E+02  0.13642E+06
 0.97749992E+02  0.14413E+06
 0.97799995E+02  0.15294E+06
 0.97849991E+02  0.16231E+06
 0.97899994E+02  0.16973E+06
 0.97949997E+02  0.17447E+06
 0.97999992E+02  0.17757E+06
