-0.20000000E+01 -0.42252E+04
-0.19500000E+01 -0.29489E+02
-0.19000000E+01  0.48032E+04
-0.18500000E+01  0.98175E+04
-0.18000000E+01  0.14462E+05
-0.17500000E+01  0.18320E+05
-0.17000000E+01  0.21446E+05
-0.16500001E+01  0.23969E+05
-0.16000000E+01  0.25859E+05
-0.15500000E+01  0.27220E+05
-0.15000000E+01  0.28254E+05
-0.14500000E+01  0.28836E+05
-0.14000001E+01  0.28859E+05
-0.13500000E+01  0.28259E+05
-0.13000001E+01  0.27019E+05
-0.12500000E+01  0.25299E+05
-0.12000000E+01  0.23161E+05
-0.11500001E+01  0.20787E+05
-0.11000000E+01  0.18525E+05
-0.10500001E+01  0.16671E+05
-0.10000000E+01  0.15316E+05
-0.95000005E+00  0.14511E+05
-0.90000010E+00  0.14275E+05
-0.85000002E+00  0.14565E+05
-0.80000007E+00  0.15482E+05
-0.75000012E+00  0.17031E+05
-0.70000005E+00  0.19146E+05
-0.65000010E+00  0.21660E+05
-0.60000014E+00  0.24423E+05
-0.55000007E+00  0.27184E+05
-0.50000012E+00  0.29387E+05
-0.45000005E+00  0.30395E+05
-0.40000010E+00  0.29905E+05
-0.35000014E+00  0.27953E+05
-0.30000007E+00  0.24458E+05
-0.25000012E+00  0.19649E+05
-0.20000005E+00  0.14254E+05
-0.15000010E+00  0.87474E+04
-0.10000014E+00  0.30267E+04
-0.50000072E-01 -0.29039E+04
-0.11920929E-06 -0.88650E+04
 0.49999952E-01 -0.14399E+05
 0.99999905E-01 -0.19051E+05
 0.14999986E+00 -0.22780E+05
 0.19999981E+00 -0.25357E+05
 0.24999976E+00 -0.26734E+05
 0.29999995E+00 -0.26832E+05
 0.34999990E+00 -0.25622E+05
 0.39999986E+00 -0.23115E+05
 0.44999981E+00 -0.19581E+05
 0.49999976E+00 -0.15642E+05
 0.54999995E+00 -0.11819E+05
 0.59999990E+00 -0.85097E+04
 0.64999986E+00 -0.56723E+04
 0.69999981E+00 -0.32876E+04
 0.74999976E+00 -0.12833E+04
 0.79999971E+00  0.56666E+03
 0.84999990E+00  0.25203E+04
 0.89999986E+00  0.46806E+04
 0.94999981E+00  0.70262E+04
 0.99999976E+00  0.93749E+04
 0.10499997E+01  0.11460E+05
 0.10999999E+01  0.13117E+05
 0.11499999E+01  0.14411E+05
 0.11999998E+01  0.15359E+05
 0.12499998E+01  0.15396E+05
 0.12999997E+01  0.13847E+05
 0.13499999E+01  0.10611E+05
 0.13999999E+01  0.61708E+04
 0.14499998E+01  0.12001E+04
 0.14999998E+01 -0.38665E+04
 0.15499997E+01 -0.86743E+04
 0.15999999E+01 -0.12903E+05
 0.16499999E+01 -0.16338E+05
 0.16999998E+01 -0.18983E+05
 0.17499998E+01 -0.20934E+05
 0.17999997E+01 -0.22003E+05
 0.18499997E+01 -0.22149E+05
 0.18999999E+01 -0.21562E+05
 0.19499998E+01 -0.20362E+05
 0.19999998E+01 -0.18487E+05
 0.20499997E+01 -0.15888E+05
 0.20999999E+01 -0.12559E+05
 0.21499996E+01 -0.85920E+04
 0.21999998E+01 -0.40208E+04
 0.22499995E+01  0.10515E+04
 0.22999997E+01  0.65608E+04
 0.23499999E+01  0.12557E+05
 0.23999996E+01  0.18784E+05
 0.24499998E+01  0.24806E+05
 0.24999995E+01  0.29922E+05
 0.25499997E+01  0.33658E+05
 0.25999999E+01  0.35549E+05
 0.26499996E+01  0.35412E+05
 0.26999998E+01  0.33571E+05
 0.27499995E+01  0.30531E+05
 0.27999997E+01  0.26802E+05
 0.28499999E+01  0.22392E+05
 0.28999996E+01  0.17541E+05
 0.29499998E+01  0.12630E+05
 0.29999995E+01  0.79155E+04
 0.30499997E+01  0.32340E+04
 0.30999999E+01 -0.15614E+04
 0.31499996E+01 -0.63682E+04
 0.31999998E+01 -0.11352E+05
 0.32499995E+01 -0.16514E+05
 0.32999997E+01 -0.21423E+05
 0.33499999E+01 -0.25532E+05
 0.33999996E+01 -0.28864E+05
 0.34499998E+01 -0.31556E+05
 0.34999995E+01 -0.33542E+05
 0.35499997E+01 -0.34799E+05
 0.35999994E+01 -0.35410E+05
 0.36499996E+01 -0.35473E+05
 0.36999998E+01 -0.35095E+05
 0.37499995E+01 -0.34362E+05
 0.37999997E+01 -0.33259E+05
 0.38499994E+01 -0.31918E+05
 0.38999996E+01 -0.30341E+05
 0.39499998E+01 -0.28658E+05
 0.39999995E+01 -0.27036E+05
 0.40499997E+01 -0.25199E+05
 0.40999994E+01 -0.22923E+05
 0.41499996E+01 -0.20288E+05
 0.41999998E+01 -0.17571E+05
 0.42499995E+01 -0.14793E+05
 0.42999997E+01 -0.11940E+05
 0.43499994E+01 -0.92081E+04
 0.43999996E+01 -0.68267E+04
 0.44499998E+01 -0.47414E+04
 0.44999995E+01 -0.27534E+04
 0.45499997E+01 -0.10719E+04
 0.45999994E+01  0.31850E+03
 0.46499996E+01  0.17277E+04
 0.46999998E+01  0.35745E+04
 0.47499995E+01  0.59738E+04
 0.47999997E+01  0.86488E+04
 0.48499994E+01  0.11146E+05
 0.48999996E+01  0.13092E+05
 0.49499998E+01  0.14562E+05
 0.49999995E+01  0.15691E+05
 0.50499997E+01  0.16643E+05
 0.50999994E+01  0.17409E+05
 0.51499996E+01  0.17664E+05
 0.51999998E+01  0.17130E+05
 0.52499995E+01  0.15664E+05
 0.52999997E+01  0.13304E+05
 0.53499994E+01  0.10334E+05
 0.53999996E+01  0.71463E+04
 0.54499993E+01  0.40425E+04
 0.54999995E+01  0.11412E+04
 0.55499997E+01 -0.14072E+04
 0.55999994E+01 -0.33547E+04
 0.56499996E+01 -0.45452E+04
 0.56999993E+01 -0.51986E+04
 0.57499995E+01 -0.55519E+04
 0.57999997E+01 -0.55310E+04
 0.58499994E+01 -0.52095E+04
 0.58999996E+01 -0.45541E+04
 0.59499993E+01 -0.35403E+04
 0.59999995E+01 -0.24359E+04
 0.60499992E+01 -0.13800E+04
 0.60999994E+01 -0.26348E+03
 0.61499996E+01  0.11162E+04
 0.61999998E+01  0.24992E+04
 0.62499990E+01  0.35844E+04
 0.62999992E+01  0.44658E+04
 0.63499994E+01  0.52915E+04
 0.63999996E+01  0.61196E+04
 0.64499998E+01  0.67883E+04
 0.64999990E+01  0.70502E+04
 0.65499992E+01  0.66884E+04
 0.65999994E+01  0.59185E+04
 0.66499996E+01  0.49970E+04
 0.66999998E+01  0.41124E+04
 0.67499990E+01  0.35075E+04
 0.67999992E+01  0.33571E+04
 0.68499994E+01  0.36949E+04
 0.68999996E+01  0.44574E+04
 0.69499998E+01  0.57580E+04
 0.69999990E+01  0.76637E+04
 0.70499992E+01  0.10173E+05
 0.70999994E+01  0.12942E+05
 0.71499996E+01  0.15540E+05
 0.71999998E+01  0.17706E+05
 0.72499990E+01  0.19583E+05
 0.72999992E+01  0.21340E+05
 0.73499994E+01  0.22652E+05
 0.73999996E+01  0.23353E+05
 0.74499998E+01  0.23509E+05
 0.74999990E+01  0.23283E+05
 0.75499992E+01  0.22762E+05
 0.75999994E+01  0.21771E+05
 0.76499996E+01  0.20051E+05
 0.76999998E+01  0.17488E+05
 0.77499990E+01  0.14164E+05
 0.77999992E+01  0.10466E+05
 0.78499994E+01  0.68819E+04
 0.78999996E+01  0.34193E+04
 0.79499998E+01  0.52298E+02
 0.79999990E+01 -0.31297E+04
 0.80499992E+01 -0.60447E+04
 0.80999994E+01 -0.85209E+04
 0.81499996E+01 -0.10431E+05
 0.81999998E+01 -0.11641E+05
 0.82499990E+01 -0.12391E+05
 0.82999992E+01 -0.12912E+05
 0.83499994E+01 -0.13221E+05
 0.83999996E+01 -0.13247E+05
 0.84499998E+01 -0.13009E+05
 0.84999990E+01 -0.12796E+05
 0.85499992E+01 -0.12731E+05
 0.85999994E+01 -0.12765E+05
 0.86499996E+01 -0.12790E+05
 0.86999998E+01 -0.12761E+05
 0.87499990E+01 -0.12790E+05
 0.87999992E+01 -0.13207E+05
 0.88499994E+01 -0.14194E+05
 0.88999996E+01 -0.15526E+05
 0.89499998E+01 -0.16803E+05
 0.89999990E+01 -0.17766E+05
 0.90499992E+01 -0.18291E+05
 0.90999994E+01 -0.18337E+05
 0.91499996E+01 -0.17871E+05
 0.91999989E+01 -0.16844E+05
 0.92499990E+01 -0.15500E+05
 0.92999992E+01 -0.13735E+05
 0.93499994E+01 -0.11535E+05
 0.93999996E+01 -0.90482E+04
 0.94499989E+01 -0.64986E+04
 0.94999990E+01 -0.42477E+04
 0.95499992E+01 -0.23804E+04
 0.95999994E+01 -0.95724E+03
 0.96499996E+01  0.18069E+03
 0.96999989E+01  0.12375E+04
 0.97499990E+01  0.24159E+04
 0.97999992E+01  0.36917E+04
 0.98499994E+01  0.50222E+04
 0.98999996E+01  0.63676E+04
 0.99499989E+01  0.76482E+04
 0.99999990E+01  0.87555E+04
 0.10049999E+02  0.95748E+04
 0.10099999E+02  0.10164E+05
 0.10150000E+02  0.10596E+05
 0.10199999E+02  0.11002E+05
 0.10249999E+02  0.11494E+05
 0.10299999E+02  0.12251E+05
 0.10349999E+02  0.13347E+05
 0.10400000E+02  0.14855E+05
 0.10449999E+02  0.16954E+05
 0.10499999E+02  0.19307E+05
 0.10549999E+02  0.21624E+05
 0.10599999E+02  0.23762E+05
 0.10650000E+02  0.25612E+05
 0.10699999E+02  0.27186E+05
 0.10749999E+02  0.28199E+05
 0.10799999E+02  0.28563E+05
 0.10849999E+02  0.28181E+05
 0.10900000E+02  0.27154E+05
 0.10949999E+02  0.25689E+05
 0.10999999E+02  0.23796E+05
 0.11049999E+02  0.21440E+05
 0.11099999E+02  0.18694E+05
 0.11150000E+02  0.15938E+05
 0.11199999E+02  0.13313E+05
 0.11249999E+02  0.10526E+05
 0.11299999E+02  0.73214E+04
 0.11349999E+02  0.38022E+04
 0.11400000E+02  0.36450E+03
 0.11449999E+02 -0.28012E+04
 0.11499999E+02 -0.55937E+04
 0.11549999E+02 -0.79204E+04
 0.11599999E+02 -0.97664E+04
 0.11650000E+02 -0.11050E+05
 0.11699999E+02 -0.11880E+05
 0.11749999E+02 -0.12395E+05
 0.11799999E+02 -0.12789E+05
 0.11849999E+02 -0.13338E+05
 0.11900000E+02 -0.13928E+05
 0.11949999E+02 -0.14489E+05
 0.11999999E+02 -0.15000E+05
 0.12049999E+02 -0.15441E+05
 0.12099999E+02 -0.15822E+05
 0.12150000E+02 -0.16201E+05
 0.12199999E+02 -0.16887E+05
 0.12249999E+02 -0.17820E+05
 0.12299999E+02 -0.18804E+05
 0.12349999E+02 -0.19587E+05
 0.12400000E+02 -0.19952E+05
 0.12449999E+02 -0.19515E+05
 0.12499999E+02 -0.18300E+05
 0.12549999E+02 -0.16338E+05
 0.12599999E+02 -0.13789E+05
 0.12649999E+02 -0.11339E+05
 0.12699999E+02 -0.91825E+04
 0.12749999E+02 -0.76887E+04
 0.12799999E+02 -0.70774E+04
 0.12849999E+02 -0.77151E+04
 0.12899999E+02 -0.96147E+04
 0.12949999E+02 -0.12321E+05
 0.12999999E+02 -0.15245E+05
 0.13049999E+02 -0.17681E+05
 0.13099999E+02 -0.19416E+05
 0.13149999E+02 -0.20622E+05
 0.13199999E+02 -0.21616E+05
 0.13249999E+02 -0.22404E+05
 0.13299999E+02 -0.23117E+05
 0.13349999E+02 -0.23912E+05
 0.13399999E+02 -0.24856E+05
 0.13449999E+02 -0.25470E+05
 0.13499999E+02 -0.25205E+05
 0.13549999E+02 -0.24045E+05
 0.13599999E+02 -0.22142E+05
 0.13649999E+02 -0.20078E+05
 0.13699999E+02 -0.18363E+05
 0.13749999E+02 -0.17135E+05
 0.13799999E+02 -0.16084E+05
 0.13849999E+02 -0.14945E+05
 0.13899999E+02 -0.13574E+05
 0.13949999E+02 -0.11746E+05
 0.13999999E+02 -0.93803E+04
 0.14049999E+02 -0.64319E+04
 0.14099998E+02 -0.31530E+04
 0.14150000E+02  0.91183E+02
 0.14199999E+02  0.30414E+04
 0.14249998E+02  0.55651E+04
 0.14299999E+02  0.78474E+04
 0.14349998E+02  0.10185E+05
 0.14400000E+02  0.12573E+05
 0.14449999E+02  0.14906E+05
 0.14499998E+02  0.16955E+05
 0.14549999E+02  0.18453E+05
 0.14599998E+02  0.19392E+05
 0.14650000E+02  0.19797E+05
 0.14699999E+02  0.19910E+05
 0.14749998E+02  0.19827E+05
 0.14799999E+02  0.19761E+05
 0.14849998E+02  0.19813E+05
 0.14900000E+02  0.19765E+05
 0.14949999E+02  0.19565E+05
 0.14999998E+02  0.18836E+05
 0.15049999E+02  0.17511E+05
 0.15099998E+02  0.15859E+05
 0.15150000E+02  0.14459E+05
 0.15199999E+02  0.13644E+05
 0.15249998E+02  0.13333E+05
 0.15299999E+02  0.13397E+05
 0.15349998E+02  0.13856E+05
 0.15400000E+02  0.14745E+05
 0.15449999E+02  0.15938E+05
 0.15499998E+02  0.17347E+05
 0.15549999E+02  0.18482E+05
 0.15599998E+02  0.19229E+05
 0.15650000E+02  0.19585E+05
 0.15699999E+02  0.19545E+05
 0.15749998E+02  0.19013E+05
 0.15799999E+02  0.17944E+05
 0.15849998E+02  0.16618E+05
 0.15900000E+02  0.15255E+05
 0.15949999E+02  0.14077E+05
 0.15999998E+02  0.13143E+05
 0.16049999E+02  0.12324E+05
 0.16099998E+02  0.11431E+05
 0.16150000E+02  0.10489E+05
 0.16199999E+02  0.94046E+04
 0.16249998E+02  0.83480E+04
 0.16299999E+02  0.75435E+04
 0.16349998E+02  0.69828E+04
 0.16400000E+02  0.66444E+04
 0.16449999E+02  0.64423E+04
 0.16499998E+02  0.62562E+04
 0.16549999E+02  0.59801E+04
 0.16599998E+02  0.55947E+04
 0.16650000E+02  0.51975E+04
 0.16699999E+02  0.48627E+04
 0.16749998E+02  0.44675E+04
 0.16799999E+02  0.38986E+04
 0.16849998E+02  0.29795E+04
 0.16900000E+02  0.16506E+04
 0.16949999E+02  0.88392E+01
 0.16999998E+02 -0.17417E+04
 0.17049999E+02 -0.32702E+04
 0.17099998E+02 -0.43668E+04
 0.17150000E+02 -0.52150E+04
 0.17199999E+02 -0.62719E+04
 0.17249998E+02 -0.78995E+04
 0.17299999E+02 -0.10042E+05
 0.17349998E+02 -0.12414E+05
 0.17400000E+02 -0.14655E+05
 0.17449999E+02 -0.16323E+05
 0.17499998E+02 -0.17138E+05
 0.17549999E+02 -0.17304E+05
 0.17599998E+02 -0.17197E+05
 0.17650000E+02 -0.17128E+05
 0.17699999E+02 -0.17169E+05
 0.17749998E+02 -0.17082E+05
 0.17799999E+02 -0.16675E+05
 0.17849998E+02 -0.15915E+05
 0.17900000E+02 -0.14936E+05
 0.17949999E+02 -0.13664E+05
 0.17999998E+02 -0.12032E+05
 0.18049999E+02 -0.99583E+04
 0.18099998E+02 -0.74933E+04
 0.18150000E+02 -0.48365E+04
 0.18199999E+02 -0.24071E+04
 0.18249998E+02 -0.47895E+03
 0.18299999E+02  0.10642E+04
 0.18349998E+02  0.22982E+04
 0.18400000E+02  0.31494E+04
 0.18449999E+02  0.34436E+04
 0.18499998E+02  0.31231E+04
 0.18549999E+02  0.23335E+04
 0.18599998E+02  0.12781E+04
 0.18650000E+02  0.33802E+02
 0.18699999E+02 -0.13259E+04
 0.18749998E+02 -0.27478E+04
 0.18799999E+02 -0.40555E+04
 0.18849998E+02 -0.49978E+04
 0.18900000E+02 -0.54568E+04
 0.18949999E+02 -0.53779E+04
 0.18999998E+02 -0.47752E+04
 0.19049999E+02 -0.33705E+04
 0.19099998E+02 -0.12111E+04
 0.19150000E+02  0.13374E+04
 0.19199999E+02  0.42176E+04
 0.19249998E+02  0.70396E+04
 0.19299999E+02  0.97148E+04
 0.19349998E+02  0.12086E+05
 0.19400000E+02  0.14023E+05
 0.19449999E+02  0.15727E+05
 0.19499998E+02  0.17188E+05
 0.19549999E+02  0.18364E+05
 0.19599998E+02  0.19092E+05
 0.19650000E+02  0.19399E+05
 0.19699999E+02  0.19258E+05
 0.19749998E+02  0.18607E+05
 0.19799999E+02  0.17614E+05
 0.19849998E+02  0.16384E+05
 0.19900000E+02  0.15372E+05
 0.19949999E+02  0.14230E+05
 0.19999998E+02  0.11803E+05
 0.20049999E+02  0.69639E+04
 0.20099998E+02 -0.40429E+03
 0.20150000E+02 -0.90300E+04
 0.20199999E+02 -0.16478E+05
 0.20249998E+02 -0.20980E+05
 0.20299999E+02 -0.21673E+05
 0.20349998E+02 -0.19726E+05
 0.20399998E+02 -0.18036E+05
 0.20449999E+02 -0.19251E+05
 0.20499998E+02 -0.25535E+05
 0.20549999E+02 -0.35699E+05
 0.20599998E+02 -0.46355E+05
 0.20649998E+02 -0.54411E+05
 0.20699999E+02 -0.62024E+05
 0.20749998E+02 -0.69011E+05
 0.20799999E+02 -0.77902E+05
 0.20849998E+02 -0.96252E+05
 0.20899998E+02 -0.11663E+06
 0.20949999E+02 -0.12586E+06
 0.20999998E+02 -0.11791E+06
 0.21049999E+02 -0.10497E+06
 0.21099998E+02 -0.11198E+06
 0.21149998E+02 -0.13295E+06
 0.21199999E+02 -0.14726E+06
 0.21249998E+02 -0.14993E+06
 0.21299999E+02 -0.14911E+06
 0.21349998E+02 -0.15224E+06
 0.21399998E+02 -0.17656E+06
 0.21449999E+02 -0.19732E+06
 0.21499998E+02 -0.17518E+06
 0.21549999E+02 -0.13172E+06
 0.21599998E+02 -0.12625E+06
 0.21649998E+02 -0.13178E+06
 0.21699999E+02 -0.10013E+06
 0.21749998E+02 -0.69876E+05
 0.21799999E+02 -0.35136E+05
 0.21849998E+02  0.88733E+04
 0.21899998E+02  0.15615E+05
 0.21949999E+02 -0.26494E+05
 0.21999998E+02 -0.35266E+05
 0.22049999E+02  0.35493E+05
 0.22099998E+02  0.43028E+05
 0.22149998E+02 -0.26136E+05
 0.22199999E+02 -0.44199E+05
 0.22249998E+02 -0.34798E+05
 0.22299999E+02  0.49207E+04
 0.22349998E+02  0.66465E+05
 0.22399998E+02  0.45931E+05
 0.22449999E+02 -0.77768E+05
 0.22499998E+02 -0.18535E+06
 0.22549999E+02 -0.10716E+06
 0.22599998E+02  0.54780E+05
 0.22649998E+02 -0.17212E+05
 0.22699999E+02 -0.10046E+06
 0.22749998E+02 -0.58372E+05
 0.22799999E+02 -0.12460E+06
 0.22849998E+02 -0.90285E+05
 0.22899998E+02 -0.24582E+05
 0.22949999E+02 -0.14090E+06
 0.22999998E+02 -0.77438E+05
 0.23049999E+02  0.91722E+05
 0.23099998E+02  0.54813E+05
 0.23149998E+02 -0.52142E+05
 0.23199999E+02 -0.14156E+06
 0.23249998E+02 -0.18133E+06
 0.23299999E+02 -0.14234E+06
 0.23349998E+02 -0.19378E+05
 0.23399998E+02  0.27412E+05
 0.23449999E+02 -0.57918E+05
 0.23499998E+02 -0.13129E+06
 0.23549999E+02 -0.15287E+06
 0.23599998E+02 -0.13945E+06
 0.23649998E+02 -0.74111E+05
 0.23699999E+02 -0.14723E+05
 0.23749998E+02  0.19803E+05
 0.23799999E+02 -0.16549E+05
 0.23849998E+02 -0.14681E+06
 0.23899998E+02 -0.27641E+06
 0.23949999E+02 -0.33977E+06
 0.23999998E+02 -0.27598E+06
 0.24049999E+02 -0.10132E+06
 0.24099998E+02 -0.51305E+05
 0.24149998E+02 -0.90535E+05
 0.24199999E+02  0.22654E+05
 0.24249998E+02  0.11520E+06
 0.24299999E+02  0.21665E+06
 0.24349998E+02  0.38251E+06
 0.24399998E+02  0.26461E+06
 0.24449999E+02  0.93889E+05
 0.24499998E+02  0.85569E+05
 0.24549999E+02 -0.56611E+05
 0.24599998E+02 -0.10503E+06
 0.24649998E+02 -0.34837E+05
 0.24699999E+02 -0.71973E+05
 0.24749998E+02 -0.70341E+05
 0.24799999E+02 -0.79252E+05
 0.24849998E+02  0.10284E+06
 0.24899998E+02  0.25065E+06
 0.24949999E+02  0.80249E+05
 0.24999998E+02  0.76139E+05
 0.25049999E+02  0.57781E+05
 0.25099998E+02 -0.21483E+05
 0.25149998E+02 -0.14974E+06
 0.25199999E+02 -0.29932E+06
 0.25249998E+02 -0.51147E+06
 0.25299999E+02 -0.66653E+06
 0.25349998E+02 -0.61670E+06
 0.25399998E+02 -0.45545E+06
 0.25449999E+02 -0.28791E+06
 0.25499998E+02 -0.29191E+06
 0.25549999E+02 -0.15643E+06
 0.25599998E+02  0.66515E+05
 0.25649998E+02  0.30438E+06
 0.25699999E+02  0.23284E+06
 0.25749998E+02 -0.17668E+05
 0.25799999E+02 -0.93762E+05
 0.25849998E+02 -0.11390E+06
 0.25899998E+02 -0.20711E+05
 0.25949999E+02  0.71835E+04
 0.25999998E+02 -0.46265E+05
 0.26049999E+02 -0.26813E+06
 0.26099998E+02 -0.34046E+06
 0.26149998E+02 -0.10920E+06
 0.26199999E+02 -0.12437E+06
 0.26249998E+02 -0.20327E+06
 0.26299999E+02 -0.93603E+05
 0.26349998E+02  0.93096E+05
 0.26399998E+02  0.14964E+06
 0.26449999E+02  0.40537E+05
 0.26499998E+02 -0.10554E+06
 0.26549999E+02 -0.17660E+06
 0.26599998E+02 -0.25027E+06
 0.26649998E+02 -0.32199E+06
 0.26699999E+02 -0.15283E+06
 0.26749998E+02 -0.88887E+04
 0.26799999E+02  0.10752E+06
 0.26849998E+02  0.21806E+06
 0.26899998E+02  0.22572E+06
 0.26949999E+02  0.23747E+06
 0.26999998E+02  0.27260E+06
 0.27049997E+02  0.34267E+06
 0.27099998E+02  0.28003E+06
 0.27149998E+02  0.66335E+05
 0.27199999E+02 -0.21592E+05
 0.27249998E+02 -0.16189E+05
 0.27299997E+02 -0.80479E+05
 0.27349998E+02 -0.15187E+06
 0.27399998E+02 -0.16740E+06
 0.27449999E+02 -0.10042E+06
 0.27499998E+02 -0.49511E+05
 0.27549997E+02 -0.31588E+05
 0.27599998E+02 -0.61545E+05
 0.27649998E+02 -0.11133E+06
 0.27699999E+02 -0.20152E+06
 0.27749998E+02 -0.26751E+06
 0.27799997E+02 -0.15294E+06
 0.27849998E+02 -0.14968E+06
 0.27899998E+02 -0.25010E+06
 0.27949999E+02 -0.18089E+06
 0.27999998E+02 -0.89761E+05
 0.28049997E+02 -0.46390E+05
 0.28099998E+02  0.10062E+06
 0.28149998E+02  0.25281E+06
 0.28199999E+02  0.22480E+06
 0.28249998E+02  0.18038E+06
 0.28299997E+02  0.41837E+06
 0.28349998E+02  0.65004E+06
 0.28399998E+02  0.56754E+06
 0.28449999E+02  0.33968E+06
 0.28499998E+02  0.20389E+06
 0.28549997E+02  0.23021E+06
 0.28599998E+02  0.30663E+06
 0.28649998E+02  0.41216E+06
 0.28699999E+02  0.30833E+06
 0.28749998E+02  0.10369E+06
 0.28799997E+02  0.56003E+05
 0.28849998E+02  0.51929E+05
 0.28899998E+02  0.43414E+05
 0.28949999E+02  0.76135E+05
 0.28999998E+02  0.76235E+04
 0.29049997E+02 -0.66616E+05
 0.29099998E+02  0.10155E+06
 0.29149998E+02  0.20150E+06
 0.29199999E+02  0.83268E+05
 0.29249998E+02  0.37996E+05
 0.29299997E+02  0.18826E+06
 0.29349998E+02  0.23075E+06
 0.29399998E+02  0.33795E+06
 0.29449999E+02  0.58969E+06
 0.29499998E+02  0.58935E+06
 0.29549997E+02  0.32008E+06
 0.29599998E+02  0.16416E+06
 0.29649998E+02  0.21951E+06
 0.29699999E+02  0.23723E+06
 0.29749998E+02  0.17479E+06
 0.29799997E+02  0.82362E+05
 0.29849998E+02  0.12106E+06
 0.29899998E+02  0.35418E+06
 0.29949999E+02  0.53390E+06
 0.29999998E+02  0.44205E+06
 0.30049999E+02  0.24493E+06
 0.30099998E+02  0.12733E+06
 0.30149998E+02  0.22619E+06
 0.30199997E+02  0.44567E+06
 0.30249996E+02  0.53331E+06
 0.30299999E+02  0.42944E+06
 0.30349998E+02  0.35322E+06
 0.30399998E+02  0.48337E+06
 0.30449997E+02  0.64481E+06
 0.30499996E+02  0.64373E+06
 0.30549999E+02  0.42501E+06
 0.30599998E+02  0.30786E+06
 0.30649998E+02  0.34725E+06
 0.30699997E+02  0.36370E+06
 0.30749996E+02  0.38373E+06
 0.30799999E+02  0.25252E+06
 0.30849998E+02  0.21453E+05
 0.30899998E+02 -0.13927E+06
 0.30949997E+02 -0.21895E+06
 0.30999996E+02 -0.29912E+06
 0.31049999E+02 -0.29481E+06
 0.31099998E+02 -0.21876E+06
 0.31149998E+02 -0.35377E+06
 0.31199997E+02 -0.49565E+06
 0.31249996E+02 -0.39424E+06
 0.31299999E+02 -0.26937E+06
 0.31349998E+02 -0.19951E+06
 0.31399998E+02 -0.90113E+05
 0.31449997E+02  0.11042E+06
 0.31499996E+02  0.29051E+06
 0.31549999E+02  0.34568E+06
 0.31599998E+02  0.25694E+06
 0.31649998E+02  0.12724E+06
 0.31699997E+02  0.11326E+06
 0.31749996E+02  0.12994E+06
 0.31799999E+02  0.13591E+06
 0.31849998E+02  0.64642E+05
 0.31899998E+02 -0.85042E+05
 0.31949997E+02 -0.16164E+06
 0.31999996E+02 -0.19401E+06
 0.32049999E+02 -0.29010E+06
 0.32099998E+02 -0.32827E+06
 0.32149998E+02 -0.32106E+06
 0.32199997E+02 -0.36465E+06
 0.32249996E+02 -0.44258E+06
 0.32299999E+02 -0.53979E+06
 0.32349998E+02 -0.46940E+06
 0.32399998E+02 -0.24787E+06
 0.32449997E+02 -0.12805E+06
 0.32499996E+02 -0.12610E+06
 0.32549999E+02 -0.24222E+06
 0.32599998E+02 -0.35716E+06
 0.32649998E+02 -0.28235E+06
 0.32699997E+02 -0.10881E+06
 0.32749996E+02  0.74165E+05
 0.32799999E+02  0.13003E+06
 0.32849998E+02  0.64166E+05
 0.32899998E+02  0.17030E+06
 0.32949997E+02  0.36762E+06
 0.32999996E+02  0.55265E+06
 0.33049999E+02  0.86326E+06
 0.33099998E+02  0.11309E+07
 0.33149998E+02  0.11853E+07
 0.33199997E+02  0.10298E+07
 0.33249996E+02  0.77122E+06
 0.33299999E+02  0.37714E+06
 0.33349998E+02 -0.95135E+05
 0.33399998E+02 -0.50127E+06
 0.33449997E+02 -0.79428E+06
 0.33499996E+02 -0.86095E+06
 0.33549999E+02 -0.75313E+06
 0.33599998E+02 -0.49541E+06
 0.33649998E+02 -0.57394E+05
 0.33699997E+02  0.37190E+06
 0.33749996E+02  0.70155E+06
 0.33799999E+02  0.92580E+06
 0.33849998E+02  0.93400E+06
 0.33899998E+02  0.71687E+06
 0.33949997E+02  0.42915E+06
 0.33999996E+02  0.20838E+06
 0.34049999E+02  0.11653E+06
 0.34099998E+02  0.63564E+05
 0.34149998E+02 -0.14231E+05
 0.34199997E+02  0.53243E+05
 0.34249996E+02  0.23348E+06
 0.34299999E+02  0.33512E+06
 0.34349998E+02  0.37619E+06
 0.34399998E+02  0.57050E+06
 0.34449997E+02  0.61790E+06
 0.34499996E+02  0.38106E+06
 0.34549999E+02  0.15195E+06
 0.34599998E+02 -0.44717E+05
 0.34649998E+02 -0.39806E+06
 0.34699997E+02 -0.81290E+06
 0.34749996E+02 -0.11733E+07
 0.34799999E+02 -0.14668E+07
 0.34849998E+02 -0.15472E+07
 0.34899998E+02 -0.16146E+07
 0.34949997E+02 -0.15673E+07
 0.34999996E+02 -0.12957E+07
 0.35049999E+02 -0.79046E+06
 0.35099998E+02 -0.21367E+06
 0.35149998E+02 -0.12153E+05
 0.35199997E+02 -0.13410E+05
 0.35249996E+02 -0.41079E+05
 0.35299999E+02  0.12152E+06
 0.35349998E+02  0.66382E+06
 0.35399998E+02  0.10716E+07
 0.35449997E+02  0.13736E+07
 0.35499996E+02  0.15890E+07
 0.35549999E+02  0.16230E+07
 0.35599998E+02  0.16250E+07
 0.35649998E+02  0.14641E+07
 0.35699997E+02  0.11106E+07
 0.35749996E+02  0.60745E+06
 0.35799999E+02  0.43791E+06
 0.35849998E+02  0.53453E+06
 0.35899998E+02  0.42354E+06
 0.35949997E+02  0.27646E+06
 0.35999996E+02  0.52007E+06
 0.36049999E+02  0.74443E+06
 0.36099998E+02  0.56692E+06
 0.36149998E+02  0.27804E+06
 0.36199997E+02 -0.83139E+05
 0.36249996E+02 -0.46537E+06
 0.36299999E+02 -0.85194E+06
 0.36349998E+02 -0.10888E+07
 0.36399998E+02 -0.10630E+07
 0.36449997E+02 -0.92655E+06
 0.36499996E+02 -0.65182E+06
 0.36549999E+02 -0.11198E+06
 0.36599998E+02  0.35833E+06
 0.36649998E+02  0.69314E+06
 0.36699997E+02  0.85343E+06
 0.36749996E+02  0.86841E+06
 0.36799999E+02  0.78062E+06
 0.36849998E+02  0.54703E+06
 0.36899998E+02  0.45525E+06
 0.36949997E+02  0.48401E+06
 0.36999996E+02  0.61786E+06
 0.37049999E+02  0.71722E+06
 0.37099998E+02  0.65441E+06
 0.37149998E+02  0.58799E+06
 0.37199997E+02  0.59700E+06
 0.37249996E+02  0.38415E+06
 0.37299999E+02 -0.24466E+06
 0.37349998E+02 -0.10877E+07
 0.37399998E+02 -0.15569E+07
 0.37449997E+02 -0.13205E+07
 0.37499996E+02 -0.88834E+06
 0.37549999E+02 -0.52330E+06
 0.37599998E+02 -0.16953E+06
 0.37649998E+02  0.12533E+06
 0.37699997E+02  0.45379E+06
 0.37749996E+02  0.63563E+06
 0.37799999E+02  0.41938E+06
 0.37849998E+02  0.25030E+05
 0.37899998E+02 -0.58397E+06
 0.37949997E+02 -0.12847E+07
 0.37999996E+02 -0.17315E+07
 0.38049999E+02 -0.18849E+07
 0.38099998E+02 -0.18885E+07
 0.38149998E+02 -0.20356E+07
 0.38199997E+02 -0.20792E+07
 0.38249996E+02 -0.15142E+07
 0.38299999E+02 -0.64136E+06
 0.38349998E+02  0.44721E+05
 0.38399998E+02  0.59818E+06
 0.38449997E+02  0.10655E+07
 0.38499996E+02  0.14633E+07
 0.38549999E+02  0.18440E+07
 0.38599998E+02  0.21627E+07
 0.38649998E+02  0.22147E+07
 0.38699997E+02  0.18417E+07
 0.38749996E+02  0.11737E+07
 0.38799999E+02  0.53483E+06
 0.38849998E+02  0.94110E+04
 0.38899998E+02 -0.30931E+06
 0.38949997E+02 -0.24709E+06
 0.38999996E+02  0.58436E+05
 0.39049999E+02  0.44157E+06
 0.39099998E+02  0.89077E+06
 0.39149998E+02  0.13017E+07
 0.39199997E+02  0.12310E+07
 0.39249996E+02  0.67762E+06
 0.39299999E+02 -0.18079E+06
 0.39349998E+02 -0.99469E+06
 0.39399998E+02 -0.13467E+07
 0.39449997E+02 -0.12097E+07
 0.39499996E+02 -0.84696E+06
 0.39549999E+02 -0.78128E+06
 0.39599998E+02 -0.89769E+06
 0.39649998E+02 -0.10272E+07
 0.39699997E+02 -0.11714E+07
 0.39749996E+02 -0.13190E+07
 0.39799999E+02 -0.14796E+07
 0.39849998E+02 -0.12505E+07
 0.39899998E+02 -0.56113E+06
 0.39949997E+02  0.79035E+05
 0.39999996E+02  0.47506E+06
 0.40049999E+02  0.58307E+06
 0.40099998E+02  0.40000E+06
 0.40149998E+02  0.12563E+06
 0.40199997E+02  0.11796E+06
 0.40249996E+02  0.28712E+06
 0.40299999E+02  0.26254E+06
 0.40349998E+02  0.12511E+06
 0.40399998E+02 -0.50273E+05
 0.40449997E+02 -0.10063E+06
 0.40499996E+02 -0.71756E+05
 0.40549999E+02 -0.81030E+05
 0.40599998E+02 -0.13395E+06
 0.40649998E+02 -0.37204E+06
 0.40699997E+02 -0.64396E+06
 0.40749996E+02 -0.77551E+06
 0.40799999E+02 -0.98904E+06
 0.40849998E+02 -0.11064E+07
 0.40899998E+02 -0.80820E+06
 0.40949997E+02 -0.59085E+06
 0.40999996E+02 -0.84094E+06
 0.41049999E+02 -0.11802E+07
 0.41099998E+02 -0.12616E+07
 0.41149998E+02 -0.10031E+07
 0.41199997E+02 -0.45472E+06
 0.41249996E+02  0.75706E+05
 0.41299999E+02  0.20987E+06
 0.41349998E+02  0.82931E+05
 0.41399998E+02  0.84216E+05
 0.41449997E+02  0.19983E+06
 0.41499996E+02  0.15898E+06
 0.41549999E+02 -0.14416E+06
 0.41599998E+02 -0.41622E+06
 0.41649998E+02 -0.47528E+06
 0.41699997E+02 -0.46991E+06
 0.41749996E+02 -0.49511E+06
 0.41799999E+02 -0.56165E+06
 0.41849998E+02 -0.82261E+06
 0.41899998E+02 -0.10819E+07
 0.41949997E+02 -0.10316E+07
 0.41999996E+02 -0.77946E+06
 0.42049999E+02 -0.36216E+06
 0.42099998E+02  0.10082E+06
 0.42149998E+02  0.41008E+06
 0.42199997E+02  0.57671E+06
 0.42249996E+02  0.67412E+06
 0.42299999E+02  0.63759E+06
 0.42349998E+02  0.29401E+06
 0.42399998E+02 -0.17557E+06
 0.42449997E+02 -0.24880E+06
 0.42499996E+02  0.84438E+05
 0.42549999E+02  0.40543E+06
 0.42599998E+02  0.61064E+06
 0.42649998E+02  0.64783E+06
 0.42699997E+02  0.45689E+06
 0.42749996E+02  0.25683E+06
 0.42799995E+02  0.14223E+06
 0.42849998E+02  0.86354E+04
 0.42899998E+02 -0.50499E+05
 0.42949997E+02  0.28202E+05
 0.42999996E+02  0.13223E+06
 0.43049995E+02  0.22255E+06
 0.43099998E+02  0.18299E+06
 0.43149998E+02 -0.34788E+05
 0.43199997E+02 -0.81337E+05
 0.43249996E+02  0.12352E+06
 0.43299995E+02  0.24663E+06
 0.43349998E+02  0.20393E+06
 0.43399998E+02  0.56856E+05
 0.43449997E+02 -0.19378E+06
 0.43499996E+02 -0.46156E+06
 0.43549995E+02 -0.53219E+06
 0.43599998E+02 -0.44555E+06
 0.43649998E+02 -0.39292E+06
 0.43699997E+02 -0.40412E+06
 0.43749996E+02 -0.45898E+06
 0.43799995E+02 -0.46926E+06
 0.43849998E+02 -0.44246E+06
 0.43899998E+02 -0.43849E+06
 0.43949997E+02 -0.37549E+06
 0.43999996E+02 -0.26236E+06
 0.44049995E+02 -0.12272E+06
 0.44099998E+02  0.11144E+06
 0.44149998E+02  0.41005E+06
 0.44199997E+02  0.67269E+06
 0.44249996E+02  0.95267E+06
 0.44299995E+02  0.12933E+07
 0.44349998E+02  0.13924E+07
 0.44399998E+02  0.11929E+07
 0.44449997E+02  0.93914E+06
 0.44499996E+02  0.71108E+06
 0.44549995E+02  0.48059E+06
 0.44599998E+02  0.17823E+06
 0.44649998E+02 -0.10592E+06
 0.44699997E+02 -0.32062E+06
 0.44749996E+02 -0.41315E+06
 0.44799995E+02 -0.43874E+06
 0.44849998E+02 -0.51231E+06
 0.44899998E+02 -0.67736E+06
 0.44949997E+02 -0.91215E+06
 0.44999996E+02 -0.10392E+07
 0.45049995E+02 -0.10866E+07
 0.45099998E+02 -0.11009E+07
 0.45149998E+02 -0.10888E+07
 0.45199997E+02 -0.99672E+06
 0.45249996E+02 -0.74481E+06
 0.45299995E+02 -0.36113E+06
 0.45349998E+02 -0.10786E+05
 0.45399998E+02  0.21047E+06
 0.45449997E+02  0.40920E+06
 0.45499996E+02  0.55404E+06
 0.45549995E+02  0.51960E+06
 0.45599998E+02  0.31757E+06
 0.45649998E+02  0.94540E+05
 0.45699997E+02 -0.51335E+05
 0.45749996E+02 -0.15656E+06
 0.45799995E+02 -0.32131E+06
 0.45849998E+02 -0.55220E+06
 0.45899998E+02 -0.66404E+06
 0.45949997E+02 -0.58581E+06
 0.45999996E+02 -0.39646E+06
 0.46049995E+02 -0.20990E+06
 0.46099998E+02 -0.11312E+06
 0.46149998E+02 -0.13297E+06
 0.46199997E+02 -0.22418E+06
 0.46249996E+02 -0.26315E+06
 0.46299995E+02 -0.24707E+06
 0.46349998E+02 -0.18647E+06
 0.46399998E+02 -0.74453E+05
 0.46449997E+02  0.12191E+06
 0.46499996E+02  0.40970E+06
 0.46549995E+02  0.76530E+06
 0.46599998E+02  0.11365E+07
 0.46649998E+02  0.14176E+07
 0.46699997E+02  0.15642E+07
 0.46749996E+02  0.16225E+07
 0.46799995E+02  0.15896E+07
 0.46849998E+02  0.13855E+07
 0.46899998E+02  0.11025E+07
 0.46949997E+02  0.85247E+06
 0.46999996E+02  0.67973E+06
 0.47049995E+02  0.67598E+06
 0.47099998E+02  0.70607E+06
 0.47149998E+02  0.64551E+06
 0.47199997E+02  0.48378E+06
 0.47249996E+02  0.23854E+06
 0.47299995E+02 -0.41180E+05
 0.47349998E+02 -0.33843E+06
 0.47399998E+02 -0.62360E+06
 0.47449997E+02 -0.83856E+06
 0.47499996E+02 -0.84778E+06
 0.47549995E+02 -0.68510E+06
 0.47599998E+02 -0.36907E+06
 0.47649998E+02  0.45220E+05
 0.47699997E+02  0.40801E+06
 0.47749996E+02  0.71169E+06
 0.47799995E+02  0.97583E+06
 0.47849998E+02  0.10948E+07
 0.47899998E+02  0.10129E+07
 0.47949997E+02  0.85831E+06
 0.47999996E+02  0.68159E+06
 0.48049995E+02  0.48352E+06
 0.48099998E+02  0.33942E+06
 0.48149998E+02  0.28221E+06
 0.48199997E+02  0.20304E+06
 0.48249996E+02  0.65621E+05
 0.48299995E+02 -0.18416E+05
 0.48349998E+02  0.24095E+04
 0.48399998E+02  0.35181E+05
 0.48449997E+02 -0.19946E+05
 0.48499996E+02 -0.15025E+06
 0.48549995E+02 -0.27020E+06
 0.48599998E+02 -0.33923E+06
 0.48649998E+02 -0.34323E+06
 0.48699997E+02 -0.38364E+06
 0.48749996E+02 -0.52093E+06
 0.48799995E+02 -0.62878E+06
 0.48849998E+02 -0.71545E+06
 0.48899998E+02 -0.75702E+06
 0.48949997E+02 -0.68223E+06
 0.48999996E+02 -0.55517E+06
 0.49049995E+02 -0.40532E+06
 0.49099998E+02 -0.17868E+06
 0.49149998E+02  0.32258E+04
 0.49199997E+02  0.24419E+05
 0.49249996E+02 -0.18296E+05
 0.49299995E+02 -0.25834E+04
 0.49349998E+02  0.13733E+06
 0.49399998E+02  0.27293E+06
 0.49449997E+02  0.35606E+06
 0.49499996E+02  0.51868E+06
 0.49549995E+02  0.70777E+06
 0.49599998E+02  0.86463E+06
 0.49649998E+02  0.95328E+06
 0.49699997E+02  0.83517E+06
 0.49749996E+02  0.56357E+06
 0.49799995E+02  0.26729E+06
 0.49849998E+02 -0.52390E+05
 0.49899998E+02 -0.38299E+06
 0.49949997E+02 -0.61777E+06
 0.49999996E+02 -0.67840E+06
 0.50049995E+02 -0.60667E+06
 0.50099998E+02 -0.48233E+06
 0.50149998E+02 -0.46132E+06
 0.50199997E+02 -0.63865E+06
 0.50249996E+02 -0.88215E+06
 0.50299995E+02 -0.10472E+07
 0.50349998E+02 -0.11447E+07
 0.50399998E+02 -0.11774E+07
 0.50449997E+02 -0.10901E+07
 0.50499996E+02 -0.87271E+06
 0.50549995E+02 -0.58862E+06
 0.50599998E+02 -0.35741E+06
 0.50649998E+02 -0.20009E+06
 0.50699997E+02 -0.64219E+05
 0.50749996E+02  0.78608E+05
 0.50799995E+02  0.26584E+06
 0.50849998E+02  0.51879E+06
 0.50899998E+02  0.77849E+06
 0.50949997E+02  0.99593E+06
 0.50999996E+02  0.12090E+07
 0.51049995E+02  0.13404E+07
 0.51099998E+02  0.13080E+07
 0.51149998E+02  0.11560E+07
 0.51199997E+02  0.95397E+06
 0.51249996E+02  0.75616E+06
 0.51299995E+02  0.63171E+06
 0.51349998E+02  0.62898E+06
 0.51399998E+02  0.69726E+06
 0.51449997E+02  0.79777E+06
 0.51499996E+02  0.91259E+06
 0.51549995E+02  0.10754E+07
 0.51599998E+02  0.11888E+07
 0.51649998E+02  0.11520E+07
 0.51699997E+02  0.97438E+06
 0.51749996E+02  0.70202E+06
 0.51799995E+02  0.46146E+06
 0.51849998E+02  0.21027E+06
 0.51899998E+02 -0.79503E+05
 0.51949997E+02 -0.38087E+06
 0.51999996E+02 -0.67253E+06
 0.52049995E+02 -0.88877E+06
 0.52099998E+02 -0.95875E+06
 0.52149998E+02 -0.87815E+06
 0.52199997E+02 -0.76150E+06
 0.52249996E+02 -0.66943E+06
 0.52299995E+02 -0.61225E+06
 0.52349998E+02 -0.59458E+06
 0.52399998E+02 -0.59122E+06
 0.52449997E+02 -0.57807E+06
 0.52499996E+02 -0.59139E+06
 0.52549995E+02 -0.63073E+06
 0.52599998E+02 -0.62395E+06
 0.52649998E+02 -0.50619E+06
 0.52699997E+02 -0.34624E+06
 0.52749996E+02 -0.18048E+06
 0.52799995E+02  0.42701E+04
 0.52849998E+02  0.93350E+05
 0.52899998E+02  0.64155E+05
 0.52949997E+02 -0.47632E+05
 0.52999996E+02 -0.17683E+06
 0.53049995E+02 -0.20775E+06
 0.53099998E+02 -0.11672E+06
 0.53149998E+02  0.10451E+05
 0.53199997E+02  0.12223E+06
 0.53249996E+02  0.26874E+06
 0.53299995E+02  0.44496E+06
 0.53349998E+02  0.60981E+06
 0.53399998E+02  0.75112E+06
 0.53449997E+02  0.78970E+06
 0.53499996E+02  0.69778E+06
 0.53549995E+02  0.58479E+06
 0.53599998E+02  0.49611E+06
 0.53649998E+02  0.42619E+06
 0.53699997E+02  0.43915E+06
 0.53749996E+02  0.51672E+06
 0.53799995E+02  0.54322E+06
 0.53849998E+02  0.45828E+06
 0.53899998E+02  0.30812E+06
 0.53949997E+02  0.17760E+06
 0.53999996E+02  0.11055E+06
 0.54049995E+02  0.89462E+05
 0.54099998E+02  0.88303E+05
 0.54149998E+02  0.10317E+06
 0.54199997E+02  0.53222E+05
 0.54249996E+02 -0.96877E+05
 0.54299995E+02 -0.31828E+06
 0.54349998E+02 -0.59698E+06
 0.54399998E+02 -0.85344E+06
 0.54449997E+02 -0.10098E+07
 0.54499996E+02 -0.10422E+07
 0.54549995E+02 -0.10203E+07
 0.54599998E+02 -0.97875E+06
 0.54649998E+02 -0.91019E+06
 0.54699997E+02 -0.87549E+06
 0.54749996E+02 -0.86031E+06
 0.54799995E+02 -0.84225E+06
 0.54849998E+02 -0.82384E+06
 0.54899998E+02 -0.81088E+06
 0.54949997E+02 -0.83347E+06
 0.54999996E+02 -0.86017E+06
 0.55049995E+02 -0.82890E+06
 0.55099998E+02 -0.73037E+06
 0.55149998E+02 -0.60810E+06
 0.55199997E+02 -0.48727E+06
 0.55249996E+02 -0.37987E+06
 0.55299995E+02 -0.27202E+06
 0.55349998E+02 -0.13355E+06
 0.55399998E+02  0.25095E+05
 0.55449997E+02  0.17523E+06
 0.55499996E+02  0.27764E+06
 0.55549995E+02  0.29784E+06
 0.55599998E+02  0.24574E+06
 0.55649998E+02  0.17045E+06
 0.55699997E+02  0.14402E+06
 0.55749996E+02  0.20753E+06
 0.55799995E+02  0.38574E+06
 0.55849995E+02  0.61524E+06
 0.55899998E+02  0.76859E+06
 0.55949997E+02  0.82196E+06
 0.55999996E+02  0.81976E+06
 0.56049995E+02  0.74972E+06
 0.56099995E+02  0.62652E+06
 0.56149998E+02  0.51484E+06
 0.56199997E+02  0.42559E+06
 0.56249996E+02  0.39278E+06
 0.56299995E+02  0.39625E+06
 0.56349995E+02  0.36430E+06
 0.56399998E+02  0.30769E+06
 0.56449997E+02  0.25810E+06
 0.56499996E+02  0.23239E+06
 0.56549995E+02  0.25743E+06
 0.56599995E+02  0.28058E+06
 0.56649998E+02  0.27462E+06
 0.56699997E+02  0.25711E+06
 0.56749996E+02  0.19708E+06
 0.56799995E+02  0.12689E+06
 0.56849995E+02  0.70750E+05
 0.56899998E+02 -0.20310E+05
 0.56949997E+02 -0.13020E+06
 0.56999996E+02 -0.19827E+06
 0.57049995E+02 -0.24488E+06
 0.57099995E+02 -0.29135E+06
 0.57149998E+02 -0.29511E+06
 0.57199997E+02 -0.27509E+06
 0.57249996E+02 -0.23510E+06
 0.57299995E+02 -0.21400E+06
 0.57349995E+02 -0.27392E+06
 0.57399998E+02 -0.38979E+06
 0.57449997E+02 -0.52030E+06
 0.57499996E+02 -0.58898E+06
 0.57549995E+02 -0.56607E+06
 0.57599995E+02 -0.46962E+06
 0.57649998E+02 -0.38171E+06
 0.57699997E+02 -0.37963E+06
 0.57749996E+02 -0.42552E+06
 0.57799995E+02 -0.41881E+06
 0.57849995E+02 -0.30697E+06
 0.57899998E+02 -0.11892E+06
 0.57949997E+02  0.88856E+05
 0.57999996E+02  0.25745E+06
 0.58049995E+02  0.32528E+06
 0.58099995E+02  0.25701E+06
 0.58149998E+02  0.12519E+06
 0.58199997E+02  0.26256E+05
 0.58249996E+02 -0.20385E+05
 0.58299995E+02 -0.55617E+05
 0.58349995E+02 -0.10224E+06
 0.58399998E+02 -0.13266E+06
 0.58449997E+02 -0.16019E+06
 0.58499996E+02 -0.19485E+06
 0.58549995E+02 -0.18390E+06
 0.58599995E+02 -0.13208E+06
 0.58649998E+02 -0.96163E+05
 0.58699997E+02 -0.78495E+05
 0.58749996E+02 -0.67664E+05
 0.58799995E+02 -0.48639E+05
 0.58849995E+02  0.15986E+05
 0.58899998E+02  0.15427E+06
 0.58949997E+02  0.37058E+06
 0.58999996E+02  0.58738E+06
 0.59049995E+02  0.78767E+06
 0.59099995E+02  0.98301E+06
 0.59149998E+02  0.10980E+07
 0.59199997E+02  0.10904E+07
 0.59249996E+02  0.99251E+06
 0.59299995E+02  0.84914E+06
 0.59349995E+02  0.66967E+06
 0.59399998E+02  0.46133E+06
 0.59449997E+02  0.26269E+06
 0.59499996E+02  0.11932E+06
 0.59549995E+02  0.41199E+04
 0.59599995E+02 -0.11800E+06
 0.59649998E+02 -0.23227E+06
 0.59699997E+02 -0.31352E+06
 0.59749996E+02 -0.35487E+06
 0.59799995E+02 -0.36845E+06
 0.59849995E+02 -0.36388E+06
 0.59899998E+02 -0.37786E+06
 0.59949997E+02 -0.44284E+06
 0.59999996E+02 -0.55857E+06
 0.60049995E+02 -0.69483E+06
 0.60099995E+02 -0.78651E+06
 0.60149998E+02 -0.79471E+06
 0.60199997E+02 -0.69310E+06
 0.60249996E+02 -0.52860E+06
 0.60299995E+02 -0.38576E+06
 0.60349995E+02 -0.26551E+06
 0.60399998E+02 -0.15670E+06
 0.60449997E+02 -0.78936E+05
 0.60499996E+02 -0.52994E+04
 0.60549995E+02  0.12413E+06
 0.60599995E+02  0.29799E+06
 0.60649998E+02  0.46225E+06
 0.60699997E+02  0.57327E+06
 0.60749996E+02  0.61647E+06
 0.60799995E+02  0.63773E+06
 0.60849995E+02  0.69505E+06
 0.60899998E+02  0.77802E+06
 0.60949997E+02  0.83377E+06
 0.60999996E+02  0.81449E+06
 0.61049995E+02  0.73310E+06
 0.61099995E+02  0.61859E+06
 0.61149998E+02  0.48480E+06
 0.61199997E+02  0.33896E+06
 0.61249996E+02  0.16228E+06
 0.61299995E+02 -0.30435E+05
 0.61349995E+02 -0.20582E+06
 0.61399998E+02 -0.36209E+06
 0.61449997E+02 -0.50225E+06
 0.61499996E+02 -0.58966E+06
 0.61549995E+02 -0.62562E+06
 0.61599995E+02 -0.61787E+06
 0.61649998E+02 -0.57314E+06
 0.61699997E+02 -0.51996E+06
 0.61749996E+02 -0.46166E+06
 0.61799995E+02 -0.41845E+06
 0.61849995E+02 -0.42217E+06
 0.61899998E+02 -0.43488E+06
 0.61949997E+02 -0.40763E+06
 0.61999996E+02 -0.37171E+06
 0.62049995E+02 -0.33493E+06
 0.62099998E+02 -0.29658E+06
 0.62149994E+02 -0.26687E+06
 0.62199997E+02 -0.24248E+06
 0.62249992E+02 -0.20702E+06
 0.62299995E+02 -0.17328E+06
 0.62349998E+02 -0.16455E+06
 0.62399994E+02 -0.14933E+06
 0.62449997E+02 -0.10406E+06
 0.62499992E+02 -0.39549E+05
 0.62549995E+02  0.22542E+05
 0.62599998E+02  0.89641E+05
 0.62649994E+02  0.16427E+06
 0.62699997E+02  0.23889E+06
 0.62749992E+02  0.33367E+06
 0.62799995E+02  0.44868E+06
 0.62849998E+02  0.54485E+06
 0.62899994E+02  0.61496E+06
 0.62949997E+02  0.64580E+06
 0.62999992E+02  0.59009E+06
 0.63049995E+02  0.46409E+06
 0.63099998E+02  0.33221E+06
 0.63149994E+02  0.23279E+06
 0.63199997E+02  0.15423E+06
 0.63249992E+02  0.97224E+05
 0.63299995E+02  0.51059E+05
 0.63349998E+02 -0.19797E+05
 0.63399994E+02 -0.11556E+06
 0.63449997E+02 -0.20198E+06
 0.63499992E+02 -0.25185E+06
 0.63549995E+02 -0.25973E+06
 0.63599998E+02 -0.23225E+06
 0.63649994E+02 -0.19335E+06
 0.63699997E+02 -0.18092E+06
 0.63749992E+02 -0.20475E+06
 0.63799995E+02 -0.23560E+06
 0.63849998E+02 -0.24231E+06
 0.63899994E+02 -0.18765E+06
 0.63949997E+02 -0.10372E+06
 0.63999992E+02 -0.37234E+05
 0.64049995E+02  0.17436E+05
 0.64099998E+02  0.60089E+05
 0.64149994E+02  0.92938E+05
 0.64199997E+02  0.12984E+06
 0.64249992E+02  0.16965E+06
 0.64299995E+02  0.18715E+06
 0.64349998E+02  0.18575E+06
 0.64399994E+02  0.15473E+06
 0.64449997E+02  0.89519E+05
 0.64499992E+02  0.32966E+05
 0.64549995E+02  0.79361E+04
 0.64599998E+02  0.22589E+05
 0.64649994E+02  0.67777E+05
 0.64699997E+02  0.10263E+06
 0.64749992E+02  0.10519E+06
 0.64799995E+02  0.76410E+05
 0.64849998E+02  0.19234E+05
 0.64899994E+02 -0.41738E+05
 0.64949997E+02 -0.87181E+05
 0.64999992E+02 -0.10744E+06
 0.65049995E+02 -0.11096E+06
 0.65099998E+02 -0.10539E+06
 0.65149994E+02 -0.82144E+05
 0.65199997E+02 -0.53705E+05
 0.65249992E+02 -0.26645E+05
 0.65299995E+02 -0.83321E+03
 0.65349998E+02  0.18058E+05
 0.65399994E+02  0.41518E+05
 0.65449997E+02  0.55342E+05
 0.65499992E+02  0.49694E+05
 0.65549995E+02  0.52155E+05
 0.65599998E+02  0.67193E+05
 0.65649994E+02  0.94404E+05
 0.65699997E+02  0.11724E+06
 0.65749992E+02  0.12401E+06
 0.65799995E+02  0.12880E+06
 0.65849998E+02  0.14670E+06
 0.65899994E+02  0.17809E+06
 0.65949997E+02  0.18982E+06
 0.65999992E+02  0.15096E+06
 0.66049995E+02  0.74804E+05
 0.66099998E+02  0.11212E+05
 0.66149994E+02 -0.37648E+05
 0.66199997E+02 -0.73149E+05
 0.66249992E+02 -0.98354E+05
 0.66299995E+02 -0.14177E+06
 0.66349998E+02 -0.21033E+06
 0.66399994E+02 -0.26971E+06
 0.66449997E+02 -0.27870E+06
 0.66499992E+02 -0.23940E+06
 0.66549995E+02 -0.16804E+06
 0.66599998E+02 -0.72025E+05
 0.66649994E+02  0.68284E+05
 0.66699997E+02  0.25675E+06
 0.66749992E+02  0.47281E+06
 0.66799995E+02  0.65911E+06
 0.66849998E+02  0.76988E+06
 0.66899994E+02  0.81907E+06
 0.66949997E+02  0.84217E+06
 0.66999992E+02  0.86741E+06
 0.67049995E+02  0.87051E+06
 0.67099998E+02  0.82283E+06
 0.67149994E+02  0.74646E+06
 0.67199997E+02  0.67236E+06
 0.67249992E+02  0.61248E+06
 0.67299995E+02  0.54639E+06
 0.67349998E+02  0.45127E+06
 0.67399994E+02  0.33316E+06
 0.67449997E+02  0.22126E+06
 0.67499992E+02  0.14256E+06
 0.67549995E+02  0.91899E+05
 0.67599998E+02  0.42600E+05
 0.67649994E+02 -0.41053E+05
 0.67699997E+02 -0.16159E+06
 0.67749992E+02 -0.29780E+06
 0.67799995E+02 -0.42428E+06
 0.67849998E+02 -0.53612E+06
 0.67899994E+02 -0.63472E+06
 0.67949997E+02 -0.70807E+06
 0.67999992E+02 -0.75794E+06
 0.68049995E+02 -0.78991E+06
 0.68099998E+02 -0.80795E+06
 0.68149994E+02 -0.82353E+06
 0.68199997E+02 -0.82239E+06
 0.68249992E+02 -0.78292E+06
 0.68299995E+02 -0.73218E+06
 0.68349998E+02 -0.69046E+06
 0.68399994E+02 -0.66228E+06
 0.68449997E+02 -0.64211E+06
 0.68499992E+02 -0.61359E+06
 0.68549995E+02 -0.56023E+06
 0.68599998E+02 -0.46496E+06
 0.68649994E+02 -0.33867E+06
 0.68699997E+02 -0.21645E+06
 0.68749992E+02 -0.12135E+06
 0.68799995E+02 -0.45589E+05
 0.68849998E+02  0.14621E+05
 0.68899994E+02  0.49474E+05
 0.68949997E+02  0.55787E+05
 0.68999992E+02  0.42441E+05
 0.69049995E+02  0.28936E+05
 0.69099998E+02  0.30803E+05
 0.69149994E+02  0.45206E+05
 0.69199997E+02  0.61557E+05
 0.69249992E+02  0.73481E+05
 0.69299995E+02  0.53607E+05
 0.69349998E+02 -0.23975E+04
 0.69399994E+02 -0.62650E+05
 0.69449997E+02 -0.10253E+06
 0.69499992E+02 -0.11083E+06
 0.69549995E+02 -0.83781E+05
 0.69599998E+02 -0.19223E+05
 0.69649994E+02  0.62076E+05
 0.69699997E+02  0.12039E+06
 0.69749992E+02  0.14373E+06
 0.69799995E+02  0.14942E+06
 0.69849998E+02  0.13823E+06
 0.69899994E+02  0.11499E+06
 0.69949997E+02  0.95264E+05
 0.69999992E+02  0.92351E+05
 0.70049995E+02  0.97693E+05
 0.70099998E+02  0.94892E+05
 0.70149994E+02  0.81839E+05
 0.70199997E+02  0.71052E+05
 0.70249992E+02  0.83454E+05
 0.70299995E+02  0.11776E+06
 0.70349998E+02  0.15519E+06
 0.70399994E+02  0.16719E+06
 0.70449997E+02  0.14431E+06
 0.70499992E+02  0.93046E+05
 0.70549995E+02  0.34807E+05
 0.70599998E+02 -0.79637E+04
 0.70649994E+02 -0.41634E+05
 0.70699997E+02 -0.65419E+05
 0.70749992E+02 -0.60531E+05
 0.70799995E+02 -0.33025E+05
 0.70849998E+02 -0.72093E+04
 0.70899994E+02  0.23274E+04
 0.70949997E+02 -0.38837E+04
 0.70999992E+02 -0.17624E+05
 0.71049995E+02 -0.26420E+05
 0.71099998E+02 -0.36793E+05
 0.71149994E+02 -0.71270E+05
 0.71199997E+02 -0.12817E+06
 0.71249992E+02 -0.19452E+06
 0.71299995E+02 -0.24553E+06
 0.71349998E+02 -0.26618E+06
 0.71399994E+02 -0.26330E+06
 0.71449997E+02 -0.24831E+06
 0.71499992E+02 -0.22553E+06
 0.71549995E+02 -0.19942E+06
 0.71599998E+02 -0.17655E+06
 0.71649994E+02 -0.14469E+06
 0.71699997E+02 -0.90188E+05
 0.71749992E+02 -0.35372E+04
 0.71799995E+02  0.12051E+06
 0.71849998E+02  0.26906E+06
 0.71899994E+02  0.40573E+06
 0.71949997E+02  0.49504E+06
 0.71999992E+02  0.52867E+06
 0.72049995E+02  0.50890E+06
 0.72099998E+02  0.43427E+06
 0.72149994E+02  0.33596E+06
 0.72199997E+02  0.24758E+06
 0.72249992E+02  0.17030E+06
 0.72299995E+02  0.11406E+06
 0.72349998E+02  0.89015E+05
 0.72399994E+02  0.99065E+05
 0.72449997E+02  0.12812E+06
 0.72499992E+02  0.15899E+06
 0.72549995E+02  0.17901E+06
 0.72599998E+02  0.18125E+06
 0.72649994E+02  0.16784E+06
 0.72699997E+02  0.12355E+06
 0.72749992E+02  0.56364E+05
 0.72799995E+02 -0.12912E+05
 0.72849998E+02 -0.65653E+05
 0.72899994E+02 -0.10251E+06
 0.72949997E+02 -0.14143E+06
 0.72999992E+02 -0.18601E+06
 0.73049995E+02 -0.22849E+06
 0.73099998E+02 -0.25266E+06
 0.73149994E+02 -0.26180E+06
 0.73199997E+02 -0.25293E+06
 0.73249992E+02 -0.19812E+06
 0.73299995E+02 -0.87152E+05
 0.73349998E+02  0.62069E+05
 0.73399994E+02  0.21577E+06
 0.73449997E+02  0.32539E+06
 0.73499992E+02  0.36698E+06
 0.73549995E+02  0.34872E+06
 0.73599998E+02  0.28531E+06
 0.73649994E+02  0.19124E+06
 0.73699997E+02  0.80428E+05
 0.73749992E+02 -0.26557E+05
 0.73799995E+02 -0.11565E+06
 0.73849998E+02 -0.17146E+06
 0.73899994E+02 -0.19639E+06
 0.73949997E+02 -0.19783E+06
 0.73999992E+02 -0.18318E+06
 0.74049995E+02 -0.17739E+06
 0.74099998E+02 -0.19255E+06
 0.74149994E+02 -0.22382E+06
 0.74199997E+02 -0.26633E+06
 0.74249992E+02 -0.30806E+06
 0.74299995E+02 -0.32695E+06
 0.74349998E+02 -0.31422E+06
 0.74399994E+02 -0.26771E+06
 0.74449997E+02 -0.18683E+06
 0.74499992E+02 -0.74921E+05
 0.74549995E+02  0.51160E+05
 0.74599998E+02  0.17174E+06
 0.74649994E+02  0.27788E+06
 0.74699997E+02  0.35352E+06
 0.74749992E+02  0.39265E+06
 0.74799995E+02  0.41485E+06
 0.74849998E+02  0.43055E+06
 0.74899994E+02  0.44367E+06
 0.74949997E+02  0.45602E+06
 0.74999992E+02  0.44919E+06
 0.75049995E+02  0.41782E+06
 0.75099998E+02  0.36669E+06
 0.75149994E+02  0.30336E+06
 0.75199997E+02  0.23698E+06
 0.75249992E+02  0.18400E+06
 0.75299995E+02  0.15175E+06
 0.75349998E+02  0.13086E+06
 0.75399994E+02  0.11561E+06
 0.75449997E+02  0.94573E+05
 0.75499992E+02  0.67423E+05
 0.75549995E+02  0.27036E+05
 0.75599998E+02 -0.31574E+05
 0.75649994E+02 -0.10776E+06
 0.75699997E+02 -0.18555E+06
 0.75749992E+02 -0.24492E+06
 0.75799995E+02 -0.29193E+06
 0.75849998E+02 -0.33857E+06
 0.75899994E+02 -0.38991E+06
 0.75949997E+02 -0.43545E+06
 0.75999992E+02 -0.47048E+06
 0.76049995E+02 -0.49699E+06
 0.76099998E+02 -0.51243E+06
 0.76149994E+02 -0.50709E+06
 0.76199997E+02 -0.46842E+06
 0.76249992E+02 -0.38703E+06
 0.76299995E+02 -0.26683E+06
 0.76349998E+02 -0.12531E+06
 0.76399994E+02  0.21613E+05
 0.76449997E+02  0.15902E+06
 0.76499992E+02  0.28443E+06
 0.76549995E+02  0.39298E+06
 0.76599998E+02  0.47625E+06
 0.76649994E+02  0.53394E+06
 0.76699997E+02  0.55826E+06
 0.76749992E+02  0.54096E+06
 0.76799995E+02  0.48875E+06
 0.76849998E+02  0.42716E+06
 0.76899994E+02  0.37421E+06
 0.76949997E+02  0.33967E+06
 0.76999992E+02  0.32472E+06
 0.77049995E+02  0.32394E+06
 0.77099998E+02  0.33167E+06
 0.77149994E+02  0.33249E+06
 0.77199997E+02  0.31368E+06
 0.77249992E+02  0.26371E+06
 0.77299995E+02  0.18528E+06
 0.77349998E+02  0.10760E+06
 0.77399994E+02  0.57551E+05
 0.77449997E+02  0.43462E+05
 0.77499992E+02  0.57289E+05
 0.77549995E+02  0.79642E+05
 0.77599998E+02  0.96777E+05
 0.77649994E+02  0.91563E+05
 0.77699997E+02  0.45173E+05
 0.77749992E+02 -0.33724E+05
 0.77799995E+02 -0.11831E+06
 0.77849998E+02 -0.19227E+06
 0.77899994E+02 -0.24660E+06
 0.77949997E+02 -0.26469E+06
 0.77999992E+02 -0.24240E+06
 0.78049995E+02 -0.19720E+06
 0.78099998E+02 -0.15229E+06
 0.78149994E+02 -0.11966E+06
 0.78199997E+02 -0.92284E+05
 0.78249992E+02 -0.79446E+05
 0.78299995E+02 -0.94464E+05
 0.78349998E+02 -0.12367E+06
 0.78399994E+02 -0.13668E+06
 0.78449997E+02 -0.11265E+06
 0.78499992E+02 -0.57952E+05
 0.78549995E+02  0.49404E+04
 0.78599998E+02  0.50192E+05
 0.78649994E+02  0.66137E+05
 0.78699997E+02  0.61853E+05
 0.78749992E+02  0.57577E+05
 0.78799995E+02  0.54119E+05
 0.78849998E+02  0.47241E+05
 0.78899994E+02  0.49690E+05
 0.78949997E+02  0.52108E+05
 0.78999992E+02  0.26548E+05
 0.79049995E+02 -0.29993E+05
 0.79099998E+02 -0.10687E+06
 0.79149994E+02 -0.18858E+06
 0.79199997E+02 -0.24940E+06
 0.79249992E+02 -0.28108E+06
 0.79299995E+02 -0.29445E+06
 0.79349998E+02 -0.29619E+06
 0.79399994E+02 -0.29312E+06
 0.79449997E+02 -0.28244E+06
 0.79499992E+02 -0.25624E+06
 0.79549995E+02 -0.21373E+06
 0.79599998E+02 -0.15136E+06
 0.79649994E+02 -0.78229E+05
 0.79699997E+02 -0.11450E+05
 0.79749992E+02  0.28889E+05
 0.79799995E+02  0.37444E+05
 0.79849998E+02  0.27669E+05
 0.79899994E+02  0.30499E+04
 0.79949997E+02 -0.38047E+05
 0.79999992E+02 -0.86870E+05
 0.80049995E+02 -0.13160E+06
 0.80099998E+02 -0.16324E+06
 0.80149994E+02 -0.17882E+06
 0.80199997E+02 -0.18264E+06
 0.80249992E+02 -0.17948E+06
 0.80299995E+02 -0.16500E+06
 0.80349998E+02 -0.12547E+06
 0.80399994E+02 -0.55631E+05
 0.80449997E+02  0.34458E+05
 0.80499992E+02  0.12863E+06
 0.80549995E+02  0.21301E+06
 0.80599998E+02  0.27779E+06
 0.80649994E+02  0.31885E+06
 0.80699997E+02  0.34313E+06
 0.80749992E+02  0.35772E+06
 0.80799995E+02  0.36221E+06
 0.80849998E+02  0.35939E+06
 0.80899994E+02  0.34279E+06
 0.80949997E+02  0.30911E+06
 0.80999992E+02  0.26919E+06
 0.81049995E+02  0.22526E+06
 0.81099998E+02  0.17168E+06
 0.81149994E+02  0.10831E+06
 0.81199997E+02  0.46708E+05
 0.81249992E+02  0.27958E+04
 0.81299995E+02 -0.73367E+04
 0.81349998E+02  0.23002E+05
 0.81399994E+02  0.74602E+05
 0.81449997E+02  0.11528E+06
 0.81499992E+02  0.12668E+06
 0.81549995E+02  0.11312E+06
 0.81599998E+02  0.79625E+05
 0.81649994E+02  0.25424E+05
 0.81699997E+02 -0.46599E+05
 0.81749992E+02 -0.12568E+06
 0.81799995E+02 -0.20211E+06
 0.81849998E+02 -0.26613E+06
 0.81899994E+02 -0.31691E+06
 0.81949997E+02 -0.35702E+06
 0.81999992E+02 -0.38140E+06
 0.82049995E+02 -0.39366E+06
 0.82099998E+02 -0.39460E+06
 0.82149994E+02 -0.37918E+06
 0.82199997E+02 -0.34579E+06
 0.82249992E+02 -0.30771E+06
 0.82299995E+02 -0.27592E+06
 0.82349998E+02 -0.24951E+06
 0.82399994E+02 -0.22672E+06
 0.82449997E+02 -0.21337E+06
 0.82499992E+02 -0.21125E+06
 0.82549995E+02 -0.21768E+06
 0.82599998E+02 -0.22448E+06
 0.82649994E+02 -0.22170E+06
 0.82699997E+02 -0.21231E+06
 0.82749992E+02 -0.19434E+06
 0.82799995E+02 -0.16926E+06
 0.82849998E+02 -0.14774E+06
 0.82899994E+02 -0.13246E+06
 0.82949997E+02 -0.11875E+06
 0.82999992E+02 -0.10592E+06
 0.83049995E+02 -0.87401E+05
 0.83099998E+02 -0.63768E+05
 0.83149994E+02 -0.42172E+05
 0.83199997E+02 -0.21493E+05
 0.83249992E+02 -0.10128E+04
 0.83299995E+02  0.25762E+05
 0.83349998E+02  0.55638E+05
 0.83399994E+02  0.81817E+05
 0.83449997E+02  0.10126E+06
 0.83499992E+02  0.11260E+06
 0.83549995E+02  0.12925E+06
 0.83599998E+02  0.15514E+06
 0.83649994E+02  0.17694E+06
 0.83699997E+02  0.18610E+06
 0.83749992E+02  0.18086E+06
 0.83799995E+02  0.16487E+06
 0.83849998E+02  0.14739E+06
 0.83899994E+02  0.13245E+06
 0.83949997E+02  0.11796E+06
 0.83999992E+02  0.10096E+06
 0.84049995E+02  0.92655E+05
 0.84099998E+02  0.10480E+06
 0.84149994E+02  0.12289E+06
 0.84199997E+02  0.12818E+06
 0.84249992E+02  0.11657E+06
 0.84299995E+02  0.99450E+05
 0.84349998E+02  0.85190E+05
 0.84399994E+02  0.72946E+05
 0.84449997E+02  0.65209E+05
 0.84499992E+02  0.58227E+05
 0.84549995E+02  0.47192E+05
 0.84599998E+02  0.39353E+05
 0.84649994E+02  0.46606E+05
 0.84699997E+02  0.68280E+05
 0.84749992E+02  0.95014E+05
 0.84799995E+02  0.12078E+06
 0.84849998E+02  0.14732E+06
 0.84899994E+02  0.18082E+06
 0.84949997E+02  0.21182E+06
 0.84999992E+02  0.22907E+06
 0.85049995E+02  0.23289E+06
 0.85099998E+02  0.22651E+06
 0.85149994E+02  0.21547E+06
 0.85199997E+02  0.19881E+06
 0.85249992E+02  0.17057E+06
 0.85299995E+02  0.12307E+06
 0.85349998E+02  0.51771E+05
 0.85399994E+02 -0.35916E+05
 0.85449997E+02 -0.12867E+06
 0.85499992E+02 -0.21634E+06
 0.85549995E+02 -0.28765E+06
 0.85599998E+02 -0.32730E+06
 0.85649994E+02 -0.32719E+06
 0.85699997E+02 -0.30226E+06
 0.85749992E+02 -0.26878E+06
 0.85799995E+02 -0.22861E+06
 0.85849998E+02 -0.18140E+06
 0.85899994E+02 -0.12901E+06
 0.85949997E+02 -0.75175E+05
 0.85999992E+02 -0.23476E+05
 0.86049995E+02  0.18906E+05
 0.86099998E+02  0.41488E+05
 0.86149994E+02  0.44470E+05
 0.86199997E+02  0.39493E+05
 0.86249992E+02  0.41054E+05
 0.86299995E+02  0.58554E+05
 0.86349998E+02  0.95833E+05
 0.86399994E+02  0.15182E+06
 0.86449997E+02  0.21932E+06
 0.86499992E+02  0.28373E+06
 0.86549995E+02  0.32994E+06
 0.86599998E+02  0.35076E+06
 0.86649994E+02  0.34349E+06
 0.86699997E+02  0.31513E+06
 0.86749992E+02  0.28034E+06
 0.86799995E+02  0.24539E+06
 0.86849998E+02  0.20657E+06
 0.86899994E+02  0.16756E+06
 0.86949997E+02  0.13127E+06
 0.86999992E+02  0.92871E+05
 0.87049995E+02  0.47929E+05
 0.87099998E+02  0.29011E+04
 0.87149994E+02 -0.29034E+05
 0.87199997E+02 -0.50262E+05
 0.87249992E+02 -0.77266E+05
 0.87299995E+02 -0.12257E+06
 0.87349998E+02 -0.18719E+06
 0.87399994E+02 -0.26172E+06
 0.87449997E+02 -0.32908E+06
 0.87499992E+02 -0.37708E+06
 0.87549995E+02 -0.39838E+06
 0.87599991E+02 -0.39828E+06
 0.87649994E+02 -0.38489E+06
 0.87699997E+02 -0.35909E+06
 0.87749992E+02 -0.32043E+06
 0.87799995E+02 -0.27347E+06
 0.87849991E+02 -0.23497E+06
 0.87899994E+02 -0.21292E+06
 0.87949997E+02 -0.20217E+06
 0.87999992E+02 -0.19313E+06
 0.88049995E+02 -0.18290E+06
 0.88099991E+02 -0.17299E+06
 0.88149994E+02 -0.16140E+06
 0.88199997E+02 -0.14304E+06
 0.88249992E+02 -0.11342E+06
 0.88299995E+02 -0.85587E+05
 0.88349991E+02 -0.74842E+05
 0.88399994E+02 -0.84822E+05
 0.88449997E+02 -0.10292E+06
 0.88499992E+02 -0.11185E+06
 0.88549995E+02 -0.10741E+06
 0.88599991E+02 -0.87024E+05
 0.88649994E+02 -0.57506E+05
 0.88699997E+02 -0.22077E+05
 0.88749992E+02  0.27289E+05
 0.88799995E+02  0.95929E+05
 0.88849991E+02  0.17383E+06
 0.88899994E+02  0.25121E+06
 0.88949997E+02  0.32719E+06
 0.88999992E+02  0.39467E+06
 0.89049995E+02  0.44935E+06
 0.89099991E+02  0.49215E+06
 0.89149994E+02  0.52986E+06
 0.89199997E+02  0.55960E+06
 0.89249992E+02  0.57317E+06
 0.89299995E+02  0.55944E+06
 0.89349991E+02  0.51019E+06
 0.89399994E+02  0.43118E+06
 0.89449997E+02  0.34231E+06
 0.89499992E+02  0.27110E+06
 0.89549995E+02  0.22775E+06
 0.89599991E+02  0.20701E+06
 0.89649994E+02  0.19293E+06
 0.89699997E+02  0.17277E+06
 0.89749992E+02  0.14556E+06
 0.89799995E+02  0.11145E+06
 0.89849991E+02  0.66454E+05
 0.89899994E+02  0.16105E+05
 0.89949997E+02 -0.26857E+05
 0.89999992E+02 -0.58820E+05
 0.90049995E+02 -0.81157E+05
 0.90099991E+02 -0.98103E+05
 0.90149994E+02 -0.11572E+06
 0.90199997E+02 -0.14174E+06
 0.90249992E+02 -0.17113E+06
 0.90299995E+02 -0.19161E+06
 0.90349991E+02 -0.19182E+06
 0.90399994E+02 -0.16755E+06
 0.90449997E+02 -0.12686E+06
 0.90499992E+02 -0.73711E+05
 0.90549995E+02 -0.12379E+05
 0.90599991E+02  0.50774E+05
 0.90649994E+02  0.10314E+06
 0.90699997E+02  0.13079E+06
 0.90749992E+02  0.13244E+06
 0.90799995E+02  0.12111E+06
 0.90849991E+02  0.11261E+06
 0.90899994E+02  0.11051E+06
 0.90949997E+02  0.10977E+06
 0.90999992E+02  0.10861E+06
 0.91049995E+02  0.10506E+06
 0.91099991E+02  0.92476E+05
 0.91149994E+02  0.69371E+05
 0.91199997E+02  0.35800E+05
 0.91249992E+02 -0.94778E+04
 0.91299995E+02 -0.59955E+05
 0.91349991E+02 -0.96362E+05
 0.91399994E+02 -0.10297E+06
 0.91449997E+02 -0.80511E+05
 0.91499992E+02 -0.42656E+05
 0.91549995E+02 -0.36730E+04
 0.91599991E+02  0.26769E+05
 0.91649994E+02  0.43170E+05
 0.91699997E+02  0.46649E+05
 0.91749992E+02  0.36903E+05
 0.91799995E+02  0.15325E+05
 0.91849991E+02 -0.14974E+05
 0.91899994E+02 -0.52089E+05
 0.91949997E+02 -0.94660E+05
 0.91999992E+02 -0.14630E+06
 0.92049995E+02 -0.20957E+06
 0.92099991E+02 -0.27580E+06
 0.92149994E+02 -0.32980E+06
 0.92199997E+02 -0.36033E+06
 0.92249992E+02 -0.36709E+06
 0.92299995E+02 -0.36001E+06
 0.92349991E+02 -0.34820E+06
 0.92399994E+02 -0.33839E+06
 0.92449997E+02 -0.32790E+06
 0.92499992E+02 -0.30850E+06
 0.92549995E+02 -0.28052E+06
 0.92599991E+02 -0.24978E+06
 0.92649994E+02 -0.22415E+06
 0.92699997E+02 -0.21286E+06
 0.92749992E+02 -0.22036E+06
 0.92799995E+02 -0.23824E+06
 0.92849991E+02 -0.25344E+06
 0.92899994E+02 -0.25566E+06
 0.92949997E+02 -0.24372E+06
 0.92999992E+02 -0.21847E+06
 0.93049995E+02 -0.18252E+06
 0.93099991E+02 -0.14638E+06
 0.93149994E+02 -0.11337E+06
 0.93199997E+02 -0.76320E+05
 0.93249992E+02 -0.30740E+05
 0.93299995E+02  0.20411E+05
 0.93349991E+02  0.67578E+05
 0.93399994E+02  0.10546E+06
 0.93449997E+02  0.13462E+06
 0.93499992E+02  0.15443E+06
 0.93549995E+02  0.16971E+06
 0.93599991E+02  0.18345E+06
 0.93649994E+02  0.19458E+06
 0.93699997E+02  0.19851E+06
 0.93749992E+02  0.18956E+06
 0.93799995E+02  0.16611E+06
 0.93849991E+02  0.13285E+06
 0.93899994E+02  0.99266E+05
 0.93949997E+02  0.72747E+05
 0.93999992E+02  0.59600E+05
 0.94049995E+02  0.60254E+05
 0.94099991E+02  0.74053E+05
 0.94149994E+02  0.99685E+05
 0.94199997E+02  0.12720E+06
 0.94249992E+02  0.15217E+06
 0.94299995E+02  0.17872E+06
 0.94349991E+02  0.20962E+06
 0.94399994E+02  0.24322E+06
 0.94449997E+02  0.27605E+06
 0.94499992E+02  0.30282E+06
 0.94549995E+02  0.31676E+06
 0.94599991E+02  0.31465E+06
 0.94649994E+02  0.29496E+06
 0.94699997E+02  0.26293E+06
 0.94749992E+02  0.22961E+06
 0.94799995E+02  0.20383E+06
 0.94849991E+02  0.18624E+06
 0.94899994E+02  0.16765E+06
 0.94949997E+02  0.13659E+06
 0.94999992E+02  0.89002E+05
 0.95049995E+02  0.30391E+05
 0.95099991E+02 -0.30826E+05
 0.95149994E+02 -0.87527E+05
 0.95199997E+02 -0.13819E+06
 0.95249992E+02 -0.19018E+06
 0.95299995E+02 -0.24741E+06
 0.95349991E+02 -0.29448E+06
 0.95399994E+02 -0.32009E+06
 0.95449997E+02 -0.33098E+06
 0.95499992E+02 -0.33334E+06
 0.95549995E+02 -0.32809E+06
 0.95599991E+02 -0.31720E+06
 0.95649994E+02 -0.30095E+06
 0.95699997E+02 -0.27581E+06
 0.95749992E+02 -0.24325E+06
 0.95799995E+02 -0.20774E+06
 0.95849991E+02 -0.16949E+06
 0.95899994E+02 -0.12945E+06
 0.95949997E+02 -0.95349E+05
 0.95999992E+02 -0.74030E+05
 0.96049995E+02 -0.62679E+05
 0.96099991E+02 -0.56373E+05
 0.96149994E+02 -0.52271E+05
 0.96199997E+02 -0.48439E+05
 0.96249992E+02 -0.43384E+05
 0.96299995E+02 -0.32313E+05
 0.96349991E+02 -0.15972E+05
 0.96399994E+02  0.33283E+04
 0.96449997E+02  0.28686E+05
 0.96499992E+02  0.61145E+05
 0.96549995E+02  0.93830E+05
 0.96599991E+02  0.12195E+06
 0.96649994E+02  0.14524E+06
 0.96699997E+02  0.15691E+06
 0.96749992E+02  0.15102E+06
 0.96799995E+02  0.13126E+06
 0.96849991E+02  0.10813E+06
 0.96899994E+02  0.87166E+05
 0.96949997E+02  0.65262E+05
 0.96999992E+02  0.38174E+05
 0.97049995E+02  0.13443E+05
 0.97099991E+02  0.25244E+04
 0.97149994E+02  0.63293E+04
 0.97199997E+02  0.21547E+05
 0.97249992E+02  0.39015E+05
 0.97299995E+02  0.48887E+05
 0.97349991E+02  0.52010E+05
 0.97399994E+02  0.54957E+05
 0.97449997E+02  0.63991E+05
 0.97499992E+02  0.83190E+05
 0.97549995E+02  0.10809E+06
 0.97599991E+02  0.13272E+06
 0.97649994E+02  0.15668E+06
 0.97699997E+02  0.17549E+06
 0.97749992E+02  0.18165E+06
 0.97799995E+02  0.17355E+06
 0.97849991E+02  0.15621E+06
 0.97899994E+02  0.13801E+06
 0.97949997E+02  0.12272E+06
 0.97999992E+02  0.10423E+06
