-0.19969940E+01  0.14872E+05
-0.19469941E+01  0.14783E+05
-0.18969940E+01  0.14859E+05
-0.18469940E+01  0.14871E+05
-0.17969940E+01  0.14878E+05
-0.17469940E+01  0.14888E+05
-0.16969941E+01  0.14862E+05
-0.16469941E+01  0.14854E+05
-0.15969940E+01  0.14845E+05
-0.15469940E+01  0.14848E+05
-0.14969940E+01  0.14861E+05
-0.14469941E+01  0.14864E+05
-0.13969941E+01  0.14871E+05
-0.13469940E+01  0.14865E+05
-0.12969941E+01  0.14859E+05
-0.12469940E+01  0.14868E+05
-0.11969941E+01  0.14879E+05
-0.11469941E+01  0.14888E+05
-0.10969940E+01  0.14876E+05
-0.10469941E+01  0.14848E+05
-0.99699408E+00  0.14870E+05
-0.94699407E+00  0.14876E+05
-0.89699411E+00  0.14874E+05
-0.84699404E+00  0.14856E+05
-0.79699409E+00  0.14828E+05
-0.74699414E+00  0.14845E+05
-0.69699407E+00  0.14852E+05
-0.64699411E+00  0.14858E+05
-0.59699416E+00  0.14855E+05
-0.54699409E+00  0.14844E+05
-0.49699414E+00  0.14848E+05
-0.44699407E+00  0.14851E+05
-0.39699411E+00  0.14863E+05
-0.34699416E+00  0.14859E+05
-0.29699409E+00  0.14863E+05
-0.24699414E+00  0.14877E+05
-0.19699407E+00  0.14866E+05
-0.14699411E+00  0.14859E+05
-0.96994162E-01  0.14862E+05
-0.46994090E-01  0.14856E+05
 0.30058622E-02  0.14841E+05
 0.53005934E-01  0.14857E+05
 0.10300589E+00  0.14876E+05
 0.15300584E+00  0.14858E+05
 0.20300579E+00  0.14813E+05
 0.25300574E+00  0.14825E+05
 0.30300593E+00  0.14857E+05
 0.35300589E+00  0.14848E+05
 0.40300584E+00  0.14835E+05
 0.45300579E+00  0.14834E+05
 0.50300574E+00  0.14836E+05
 0.55300593E+00  0.14830E+05
 0.60300589E+00  0.14859E+05
 0.65300584E+00  0.14876E+05
 0.70300579E+00  0.14874E+05
 0.75300574E+00  0.14853E+05
 0.80300570E+00  0.14858E+05
 0.85300589E+00  0.14879E+05
 0.90300584E+00  0.14862E+05
 0.95300579E+00  0.14868E+05
 0.10030057E+01  0.14886E+05
 0.10530057E+01  0.14913E+05
 0.11030059E+01  0.14900E+05
 0.11530058E+01  0.14874E+05
 0.12030058E+01  0.14887E+05
 0.12530057E+01  0.14892E+05
 0.13030057E+01  0.14885E+05
 0.13530059E+01  0.14882E+05
 0.14030058E+01  0.14890E+05
 0.14530058E+01  0.14872E+05
 0.15030057E+01  0.14859E+05
 0.15530057E+01  0.14859E+05
 0.16030059E+01  0.14852E+05
 0.16530058E+01  0.14853E+05
 0.17030058E+01  0.14855E+05
 0.17530057E+01  0.14847E+05
 0.18030057E+01  0.14861E+05
 0.18530056E+01  0.14846E+05
 0.19030058E+01  0.14827E+05
 0.19530058E+01  0.14839E+05
 0.20030057E+01  0.14840E+05
 0.20530057E+01  0.14845E+05
 0.21030059E+01  0.14846E+05
 0.21530056E+01  0.14855E+05
 0.22030058E+01  0.14833E+05
 0.22530055E+01  0.14826E+05
 0.23030057E+01  0.14826E+05
 0.23530059E+01  0.14839E+05
 0.24030056E+01  0.14858E+05
 0.24530058E+01  0.14849E+05
 0.25030055E+01  0.14847E+05
 0.25530057E+01  0.14846E+05
 0.26030059E+01  0.14853E+05
 0.26530056E+01  0.14856E+05
 0.27030058E+01  0.14860E+05
 0.27530055E+01  0.14876E+05
 0.28030057E+01  0.14887E+05
 0.28530059E+01  0.14871E+05
 0.29030056E+01  0.14843E+05
 0.29530058E+01  0.14838E+05
 0.30030055E+01  0.14869E+05
 0.30530057E+01  0.14886E+05
 0.31030059E+01  0.14887E+05
 0.31530056E+01  0.14870E+05
 0.32030058E+01  0.14866E+05
 0.32530055E+01  0.14879E+05
 0.33030057E+01  0.14872E+05
 0.33530059E+01  0.14877E+05
 0.34030056E+01  0.14881E+05
 0.34530058E+01  0.14868E+05
 0.35030055E+01  0.14867E+05
 0.35530057E+01  0.14875E+05
 0.36030054E+01  0.14858E+05
 0.36530056E+01  0.14841E+05
 0.37030058E+01  0.14825E+05
 0.37530055E+01  0.14840E+05
 0.38030057E+01  0.14842E+05
 0.38530054E+01  0.14839E+05
 0.39030056E+01  0.14835E+05
 0.39530058E+01  0.14823E+05
 0.40030055E+01  0.14829E+05
 0.40530057E+01  0.14839E+05
 0.41030054E+01  0.14836E+05
 0.41530056E+01  0.14818E+05
 0.42030058E+01  0.14836E+05
 0.42530055E+01  0.14847E+05
 0.43030057E+01  0.14847E+05
 0.43530054E+01  0.14845E+05
 0.44030056E+01  0.14839E+05
 0.44530058E+01  0.14862E+05
 0.45030055E+01  0.14867E+05
 0.45530057E+01  0.14854E+05
 0.46030054E+01  0.14883E+05
 0.46530056E+01  0.14868E+05
 0.47030058E+01  0.14885E+05
 0.47530055E+01  0.14866E+05
 0.48030057E+01  0.14881E+05
 0.48530054E+01  0.14893E+05
 0.49030056E+01  0.14854E+05
 0.49530058E+01  0.14855E+05
 0.50030055E+01  0.14830E+05
 0.50530057E+01  0.14881E+05
 0.51030054E+01  0.14856E+05
 0.51530056E+01  0.14865E+05
 0.52030058E+01  0.14839E+05
 0.52530055E+01  0.14809E+05
 0.53030057E+01  0.14830E+05
 0.53530054E+01  0.14805E+05
 0.54030056E+01  0.14860E+05
 0.54530053E+01  0.14827E+05
 0.55030055E+01  0.14818E+05
 0.55530057E+01  0.14824E+05
 0.56030054E+01  0.14815E+05
 0.56530056E+01  0.14830E+05
 0.57030053E+01  0.14811E+05
 0.57530055E+01  0.14822E+05
 0.58030057E+01  0.14839E+05
 0.58530054E+01  0.14827E+05
 0.59030056E+01  0.14815E+05
 0.59530053E+01  0.14835E+05
 0.60030055E+01  0.14854E+05
 0.60530052E+01  0.14879E+05
 0.61030054E+01  0.14865E+05
 0.61530056E+01  0.14853E+05
 0.62030058E+01  0.14867E+05
 0.62530050E+01  0.14871E+05
 0.63030052E+01  0.14872E+05
 0.63530054E+01  0.14874E+05
 0.64030056E+01  0.14877E+05
 0.64530058E+01  0.14871E+05
 0.65030050E+01  0.14877E+05
 0.65530052E+01  0.14872E+05
 0.66030054E+01  0.14889E+05
 0.66530056E+01  0.14883E+05
 0.67030058E+01  0.14883E+05
 0.67530050E+01  0.14888E+05
 0.68030052E+01  0.14875E+05
 0.68530054E+01  0.14871E+05
 0.69030056E+01  0.14852E+05
 0.69530058E+01  0.14873E+05
 0.70030050E+01  0.14878E+05
 0.70530052E+01  0.14852E+05
 0.71030054E+01  0.14883E+05
 0.71530056E+01  0.14867E+05
 0.72030058E+01  0.14866E+05
 0.72530050E+01  0.14859E+05
 0.73030052E+01  0.14850E+05
 0.73530054E+01  0.14870E+05
 0.74030056E+01  0.14867E+05
 0.74530058E+01  0.14833E+05
 0.75030050E+01  0.14906E+05
 0.75530052E+01  0.14831E+05
 0.76030054E+01  0.14862E+05
 0.76530056E+01  0.14831E+05
 0.77030058E+01  0.14909E+05
 0.77530050E+01  0.14828E+05
 0.78030052E+01  0.14844E+05
 0.78530054E+01  0.14850E+05
 0.79030056E+01  0.14885E+05
 0.79530058E+01  0.14831E+05
 0.80030050E+01  0.14806E+05
 0.80530052E+01  0.14975E+05
 0.81030054E+01  0.14382E+05
 0.81530056E+01  0.13910E+05
 0.82030058E+01  0.14808E+05
 0.82530050E+01  0.15955E+05
 0.83030052E+01  0.13898E+05
 0.83530054E+01  0.13698E+05
 0.84030056E+01  0.16052E+05
 0.84530058E+01  0.16952E+05
 0.85030050E+01  0.12918E+05
 0.85530052E+01  0.13783E+05
 0.86030054E+01  0.18989E+05
 0.86530056E+01  0.13376E+05
 0.87030058E+01  0.11321E+05
 0.87530050E+01  0.14000E+05
 0.88030052E+01  0.20770E+05
 0.88530054E+01  0.15389E+05
 0.89030056E+01  0.52804E+04
 0.89530058E+01  0.18456E+05
 0.90030050E+01  0.18285E+05
 0.90530052E+01  0.11287E+05
 0.91030054E+01  0.10498E+05
 0.91530056E+01  0.19973E+05
 0.92030048E+01  0.69841E+04
 0.92530050E+01  0.12250E+05
 0.93030052E+01  0.22761E+05
 0.93530054E+01  0.23765E+05
 0.94030056E+01  0.17896E+05
 0.94530048E+01 -0.98700E+04
 0.95030050E+01  0.32058E+05
 0.95530052E+01  0.34052E+05
 0.96030054E+01 -0.49915E+04
 0.96530056E+01  0.15991E+05
 0.97030048E+01  0.14512E+05
 0.97530050E+01  0.14217E+05
 0.98030052E+01  0.26541E+05
 0.98530054E+01  0.27093E+04
 0.99030056E+01  0.27777E+05
 0.99530048E+01  0.20224E+04
 0.10003005E+02  0.53036E+04
 0.10053005E+02  0.21441E+05
 0.10103005E+02  0.13123E+05
 0.10153006E+02  0.23445E+05
 0.10203005E+02  0.77308E+04
 0.10253005E+02  0.18366E+05
 0.10303005E+02  0.12213E+05
 0.10353005E+02  0.12803E+05
 0.10403006E+02  0.20559E+05
 0.10453005E+02  0.17069E+05
 0.10503005E+02  0.77001E+04
 0.10553005E+02  0.13830E+05
 0.10603005E+02  0.21798E+05
 0.10653006E+02  0.14151E+05
 0.10703005E+02  0.90241E+04
 0.10753005E+02  0.20480E+05
 0.10803005E+02  0.42169E+04
 0.10853005E+02  0.22789E+05
 0.10903006E+02  0.77227E+03
 0.10953005E+02  0.34785E+05
 0.11003005E+02  0.16866E+05
 0.11053005E+02 -0.21323E+05
 0.11103005E+02  0.55512E+05
 0.11153006E+02  0.24269E+05
 0.11203005E+02 -0.10810E+05
 0.11253005E+02 -0.54783E+04
 0.11303005E+02  0.38977E+05
 0.11353005E+02  0.30569E+05
 0.11403006E+02  0.31022E+04
 0.11453005E+02  0.10641E+05
 0.11503005E+02  0.11407E+05
 0.11553005E+02  0.17077E+05
 0.11603005E+02  0.10102E+05
 0.11653006E+02  0.23176E+05
 0.11703005E+02  0.44503E+05
 0.11753005E+02  0.14426E+04
 0.11803005E+02 -0.33270E+05
 0.11853005E+02  0.21499E+05
 0.11903006E+02  0.53093E+05
 0.11953005E+02  0.31520E+05
 0.12003005E+02 -0.15697E+05
 0.12053005E+02 -0.31261E+04
 0.12103005E+02  0.32268E+05
 0.12153006E+02  0.17294E+05
 0.12203005E+02  0.17275E+05
 0.12253005E+02  0.38858E+04
 0.12303005E+02  0.14468E+05
 0.12353005E+02  0.75937E+04
 0.12403006E+02  0.12425E+05
 0.12453005E+02  0.42931E+05
 0.12503005E+02  0.19761E+04
 0.12553005E+02  0.22571E+02
 0.12603005E+02  0.22117E+05
 0.12653005E+02  0.40754E+05
 0.12703005E+02  0.22408E+05
 0.12753005E+02  0.95723E+03
 0.12803005E+02  0.22641E+05
 0.12853005E+02  0.17234E+05
 0.12903005E+02  0.85118E+04
 0.12953005E+02  0.17889E+04
 0.13003005E+02 -0.67604E+04
 0.13053005E+02  0.28383E+05
 0.13103005E+02  0.29476E+05
 0.13153005E+02  0.84124E+04
 0.13203005E+02  0.34271E+05
 0.13253005E+02 -0.50465E+04
 0.13303005E+02  0.68361E+03
 0.13353005E+02  0.28461E+04
 0.13403005E+02  0.75840E+05
 0.13453005E+02  0.26872E+05
 0.13503005E+02 -0.18876E+05
 0.13553005E+02  0.45533E+05
 0.13603005E+02 -0.98706E+04
 0.13653005E+02  0.74940E+05
 0.13703005E+02  0.50091E+05
 0.13753005E+02 -0.86922E+05
 0.13803005E+02 -0.11886E+05
 0.13853005E+02  0.15163E+05
 0.13903005E+02  0.11960E+05
 0.13953005E+02  0.10973E+06
 0.14003005E+02  0.55248E+04
 0.14053005E+02  0.79266E+05
 0.14103004E+02 -0.15610E+06
 0.14153006E+02 -0.11430E+06
 0.14203005E+02  0.99187E+05
 0.14253004E+02  0.12613E+06
 0.14303005E+02  0.16283E+06
 0.14353004E+02 -0.87925E+05
 0.14403006E+02 -0.10726E+06
 0.14453005E+02 -0.73897E+05
 0.14503004E+02  0.11171E+06
 0.14553005E+02  0.59823E+05
 0.14603004E+02 -0.16140E+04
 0.14653006E+02 -0.69791E+05
 0.14703005E+02  0.37061E+05
 0.14753004E+02  0.75718E+05
 0.14803005E+02  0.29259E+05
 0.14853004E+02  0.73164E+05
 0.14903006E+02  0.14351E+05
 0.14953005E+02  0.91009E+04
 0.15003004E+02 -0.15637E+05
 0.15053005E+02  0.76483E+05
 0.15103004E+02 -0.44967E+05
 0.15153006E+02 -0.62493E+05
 0.15203005E+02  0.24246E+05
 0.15253004E+02  0.27197E+05
 0.15303005E+02  0.68520E+05
 0.15353004E+02  0.64508E+05
 0.15403006E+02  0.18077E+05
 0.15453005E+02 -0.51653E+05
 0.15503004E+02 -0.24948E+05
 0.15553005E+02  0.42611E+04
 0.15603004E+02  0.50553E+05
 0.15653006E+02  0.14201E+06
 0.15703005E+02 -0.15856E+05
 0.15753004E+02 -0.57412E+05
 0.15803005E+02 -0.48158E+05
 0.15853004E+02  0.26320E+04
 0.15903006E+02  0.41710E+05
 0.15953005E+02  0.23627E+05
 0.16003004E+02  0.12060E+06
 0.16053005E+02  0.18389E+05
 0.16103004E+02 -0.12247E+05
 0.16153006E+02 -0.88302E+05
 0.16203005E+02  0.10717E+04
 0.16253004E+02  0.60933E+05
 0.16303005E+02  0.83282E+05
 0.16353004E+02  0.53392E+05
 0.16403006E+02 -0.83570E+05
 0.16453005E+02  0.64027E+05
 0.16503004E+02 -0.26694E+04
 0.16553005E+02 -0.16665E+05
 0.16603004E+02 -0.44075E+05
 0.16653006E+02 -0.45189E+05
 0.16703005E+02  0.60620E+05
 0.16753004E+02  0.83403E+05
 0.16803005E+02  0.11271E+06
 0.16853004E+02 -0.73935E+05
 0.16903006E+02 -0.36773E+05
 0.16953005E+02  0.32982E+05
 0.17003004E+02  0.37046E+05
 0.17053005E+02  0.22569E+05
 0.17103004E+02  0.20487E+05
 0.17153006E+02  0.26325E+05
 0.17203005E+02 -0.60958E+05
 0.17253004E+02  0.55177E+05
 0.17303005E+02  0.15963E+05
 0.17353004E+02  0.39506E+05
 0.17403006E+02  0.33711E+05
 0.17453005E+02 -0.86413E+04
 0.17503004E+02 -0.17580E+05
 0.17553005E+02  0.77427E+04
 0.17603004E+02  0.31795E+05
 0.17653006E+02  0.26841E+05
 0.17703005E+02  0.27012E+05
 0.17753004E+02  0.16037E+05
 0.17803005E+02 -0.28884E+04
 0.17853004E+02 -0.75337E+04
 0.17903006E+02  0.44431E+05
 0.17953005E+02  0.36309E+05
 0.18003004E+02  0.21950E+05
 0.18053005E+02 -0.11846E+05
 0.18103004E+02  0.13593E+05
 0.18153006E+02 -0.19270E+05
 0.18203005E+02  0.45598E+05
 0.18253004E+02  0.15644E+05
 0.18303005E+02 -0.95186E+04
 0.18353004E+02  0.46230E+05
 0.18403006E+02  0.42051E+05
 0.18453005E+02  0.53180E+05
 0.18503004E+02  0.23043E+05
 0.18553005E+02 -0.25886E+05
 0.18603004E+02 -0.37534E+05
 0.18653006E+02  0.66122E+04
 0.18703005E+02 -0.71933E+04
 0.18753004E+02  0.10295E+06
 0.18803005E+02  0.37921E+05
 0.18853004E+02 -0.33333E+05
 0.18903006E+02  0.35970E+03
 0.18953005E+02  0.17932E+05
 0.19003004E+02  0.37539E+05
 0.19053005E+02 -0.85433E+04
 0.19103004E+02  0.20884E+05
 0.19153006E+02  0.34046E+05
 0.19203005E+02  0.36982E+05
 0.19253004E+02 -0.17512E+05
 0.19303005E+02 -0.73588E+05
 0.19353004E+02 -0.29706E+05
 0.19403006E+02  0.62473E+05
 0.19453005E+02  0.82691E+05
 0.19503004E+02  0.85825E+05
 0.19553005E+02 -0.97735E+04
 0.19603004E+02 -0.52141E+05
 0.19653006E+02  0.18173E+04
 0.19703005E+02 -0.11535E+05
 0.19753004E+02  0.46110E+05
 0.19803005E+02  0.70662E+05
 0.19853004E+02  0.16927E+05
 0.19903006E+02 -0.32659E+05
 0.19953005E+02 -0.94320E+04
 0.20003004E+02  0.37408E+05
 0.20053005E+02  0.11456E+05
 0.20103004E+02  0.28603E+05
 0.20153006E+02  0.35992E+05
 0.20203005E+02  0.30011E+05
 0.20253004E+02  0.32786E+05
 0.20303005E+02 -0.60023E+04
 0.20353004E+02  0.86073E+04
 0.20403004E+02  0.87049E+04
 0.20453005E+02 -0.53367E+04
 0.20503004E+02  0.24442E+05
 0.20553005E+02  0.49071E+05
 0.20603004E+02  0.21799E+05
 0.20653004E+02 -0.12662E+05
 0.20703005E+02 -0.33940E+05
 0.20753004E+02 -0.55362E+04
 0.20803005E+02  0.41008E+05
 0.20853004E+02  0.59627E+05
 0.20903004E+02  0.37058E+05
 0.20953005E+02  0.16970E+05
 0.21003004E+02  0.16932E+05
 0.21053005E+02 -0.19588E+05
 0.21103004E+02  0.18148E+05
 0.21153004E+02  0.32299E+05
 0.21203005E+02  0.15684E+05
 0.21253004E+02  0.15497E+05
 0.21303005E+02  0.34079E+04
 0.21353004E+02 -0.24342E+05
 0.21403004E+02  0.21590E+05
 0.21453005E+02  0.49125E+05
 0.21503004E+02  0.97582E+04
 0.21553005E+02 -0.85637E+04
 0.21603004E+02  0.54749E+03
 0.21653004E+02  0.30564E+05
 0.21703005E+02 -0.96465E+04
 0.21753004E+02  0.12503E+05
 0.21803005E+02  0.57803E+05
 0.21853004E+02  0.24227E+05
 0.21903004E+02  0.44005E+04
 0.21953005E+02 -0.26341E+04
 0.22003004E+02  0.51429E+04
 0.22053005E+02  0.46381E+05
 0.22103004E+02  0.27767E+05
 0.22153004E+02  0.26373E+04
 0.22203005E+02 -0.15325E+04
 0.22253004E+02  0.26873E+05
 0.22303005E+02  0.12748E+05
 0.22353004E+02 -0.16333E+05
 0.22403004E+02  0.35225E+05
 0.22453005E+02  0.37895E+05
 0.22503004E+02  0.34634E+05
 0.22553005E+02  0.76090E+02
 0.22603004E+02 -0.18054E+04
 0.22653004E+02  0.64486E+03
 0.22703005E+02  0.27673E+05
 0.22753004E+02  0.36362E+05
 0.22803005E+02  0.13634E+04
 0.22853004E+02  0.15290E+05
 0.22903004E+02  0.53343E+04
 0.22953005E+02 -0.81452E+04
 0.23003004E+02  0.17445E+05
 0.23053005E+02  0.35111E+05
 0.23103004E+02  0.38503E+05
 0.23153004E+02  0.52414E+04
 0.23203005E+02 -0.21568E+05
 0.23253004E+02  0.26249E+05
 0.23303005E+02  0.11584E+05
 0.23353004E+02  0.38436E+04
 0.23403004E+02  0.41629E+04
 0.23453005E+02  0.10576E+05
 0.23503004E+02  0.39522E+05
 0.23553005E+02  0.30431E+05
 0.23603004E+02  0.78083E+04
 0.23653004E+02  0.89103E+04
 0.23703005E+02  0.10672E+05
 0.23753004E+02  0.17143E+05
 0.23803005E+02  0.26800E+05
 0.23853004E+02  0.30715E+05
 0.23903004E+02  0.13716E+05
 0.23953005E+02  0.18902E+05
 0.24003004E+02  0.12387E+05
 0.24053005E+02  0.10622E+05
 0.24103004E+02  0.22570E+05
 0.24153004E+02 -0.10661E+04
 0.24203005E+02  0.25092E+05
 0.24253004E+02  0.17972E+05
 0.24303005E+02 -0.34242E+03
 0.24353004E+02  0.40057E+04
 0.24403004E+02  0.10801E+05
 0.24453005E+02  0.39891E+05
 0.24503004E+02  0.41675E+05
 0.24553005E+02 -0.84342E+04
 0.24603004E+02  0.37754E+04
 0.24653004E+02  0.22093E+05
 0.24703005E+02  0.12808E+05
 0.24753004E+02  0.15865E+05
 0.24803005E+02  0.59179E+03
 0.24853004E+02  0.11693E+05
 0.24903004E+02 -0.59486E+03
 0.24953005E+02 -0.59520E+03
 0.25003004E+02  0.25330E+05
 0.25053005E+02  0.43728E+05
 0.25103004E+02  0.78118E+04
 0.25153004E+02  0.13482E+04
 0.25203005E+02  0.19432E+05
 0.25253004E+02  0.24517E+05
 0.25303005E+02  0.53375E+05
 0.25353004E+02  0.20291E+05
 0.25403004E+02 -0.50634E+04
 0.25453005E+02 -0.24423E+04
 0.25503004E+02  0.58596E+04
 0.25553005E+02  0.41722E+05
 0.25603004E+02  0.27286E+05
 0.25653004E+02  0.75657E+04
 0.25703005E+02  0.20092E+05
 0.25753004E+02 -0.41176E+04
 0.25803005E+02 -0.12466E+05
 0.25853004E+02  0.13100E+05
 0.25903004E+02  0.33871E+05
 0.25953005E+02  0.36931E+05
 0.26003004E+02  0.19006E+05
 0.26053005E+02  0.85592E+04
 0.26103004E+02  0.14823E+05
 0.26153004E+02  0.34302E+04
 0.26203005E+02  0.83941E+04
 0.26253004E+02  0.49925E+04
 0.26303005E+02 -0.44299E+04
 0.26353004E+02  0.13995E+05
 0.26403004E+02  0.22892E+05
 0.26453005E+02  0.22202E+05
 0.26503004E+02  0.14103E+05
 0.26553005E+02  0.33903E+04
 0.26603004E+02  0.24206E+05
 0.26653004E+02  0.35388E+05
 0.26703005E+02  0.16570E+05
 0.26753004E+02  0.68674E+04
 0.26803005E+02 -0.60844E+04
 0.26853004E+02  0.13920E+05
 0.26903004E+02  0.37816E+05
 0.26953005E+02  0.27320E+05
 0.27003004E+02  0.10320E+05
 0.27053003E+02  0.52096E+04
 0.27103004E+02  0.95997E+04
 0.27153004E+02  0.12107E+05
 0.27203005E+02  0.26598E+05
 0.27253004E+02  0.32749E+05
 0.27303003E+02  0.17804E+05
 0.27353004E+02  0.16678E+05
 0.27403004E+02  0.17879E+05
 0.27453005E+02  0.48749E+04
 0.27503004E+02  0.20405E+05
 0.27553003E+02  0.18957E+05
 0.27603004E+02 -0.41547E+04
 0.27653004E+02  0.16256E+05
 0.27703005E+02  0.17752E+05
 0.27753004E+02  0.98078E+04
 0.27803003E+02  0.25548E+05
 0.27853004E+02  0.18618E+05
 0.27903004E+02  0.56649E+04
 0.27953005E+02  0.60862E+04
 0.28003004E+02  0.21915E+05
 0.28053003E+02  0.27990E+05
 0.28103004E+02 -0.86848E+04
 0.28153004E+02 -0.94535E+04
 0.28203005E+02  0.23645E+05
 0.28253004E+02  0.29534E+05
 0.28303003E+02  0.23025E+05
 0.28353004E+02  0.43012E+04
 0.28403004E+02  0.11872E+05
 0.28453005E+02  0.13054E+05
 0.28503004E+02  0.19994E+04
 0.28553003E+02  0.19428E+05
 0.28603004E+02  0.30359E+05
 0.28653004E+02  0.18206E+05
 0.28703005E+02  0.94643E+04
 0.28753004E+02  0.17896E+05
 0.28803003E+02  0.17545E+05
 0.28853004E+02  0.85216E+04
 0.28903004E+02  0.92531E+04
 0.28953005E+02  0.13858E+05
 0.29003004E+02  0.23739E+05
 0.29053003E+02  0.26395E+05
 0.29103004E+02  0.19371E+05
 0.29153004E+02  0.48751E+04
 0.29203005E+02  0.91122E+04
 0.29253004E+02  0.22554E+05
 0.29303003E+02  0.14673E+05
 0.29353004E+02  0.16366E+05
 0.29403004E+02  0.85957E+03
 0.29453005E+02  0.57082E+03
 0.29503004E+02  0.11268E+05
 0.29553003E+02  0.24775E+05
 0.29603004E+02  0.27390E+05
 0.29653004E+02  0.58127E+04
 0.29703005E+02 -0.11576E+04
 0.29753004E+02  0.17763E+05
 0.29803003E+02  0.39958E+05
 0.29853004E+02  0.17888E+05
 0.29903004E+02  0.95512E+04
 0.29953005E+02  0.70698E+04
 0.30003004E+02  0.13621E+05
 0.30053005E+02  0.28935E+05
 0.30103004E+02  0.13089E+05
 0.30153004E+02  0.10198E+05
 0.30203003E+02  0.89930E+04
 0.30253002E+02  0.11332E+05
 0.30303005E+02  0.22484E+05
 0.30353004E+02  0.31068E+05
 0.30403004E+02  0.25512E+05
 0.30453003E+02  0.42977E+04
 0.30503002E+02 -0.17199E+04
 0.30553005E+02  0.11316E+05
 0.30603004E+02  0.27594E+05
 0.30653004E+02  0.26498E+05
 0.30703003E+02  0.67925E+04
 0.30753002E+02  0.29909E+04
 0.30803005E+02  0.19116E+05
 0.30853004E+02  0.21330E+05
 0.30903004E+02  0.16342E+05
 0.30953003E+02  0.93485E+04
 0.31003002E+02  0.71821E+04
 0.31053005E+02  0.51170E+04
 0.31103004E+02  0.18760E+05
 0.31153004E+02  0.29706E+05
 0.31203003E+02  0.15107E+05
 0.31253002E+02  0.93316E+04
 0.31303005E+02  0.58547E+04
 0.31353004E+02  0.19720E+05
 0.31403004E+02  0.24469E+05
 0.31453003E+02  0.17891E+05
 0.31503002E+02  0.82137E+04
 0.31553005E+02  0.82196E+03
 0.31603004E+02  0.13649E+05
 0.31653004E+02  0.23706E+05
 0.31703003E+02  0.19862E+05
 0.31753002E+02  0.21111E+05
 0.31803005E+02  0.22993E+05
 0.31853004E+02  0.12616E+05
 0.31903004E+02  0.77736E+04
 0.31953003E+02  0.65673E+04
 0.32003002E+02  0.16611E+05
 0.32053005E+02  0.16726E+05
 0.32103004E+02  0.12610E+05
 0.32153004E+02  0.13416E+05
 0.32203003E+02  0.20037E+05
 0.32253002E+02  0.16602E+05
 0.32303005E+02  0.11505E+05
 0.32353004E+02  0.11447E+05
 0.32403004E+02  0.10857E+05
 0.32453003E+02  0.18182E+05
 0.32503002E+02  0.13906E+05
 0.32553005E+02  0.15161E+05
 0.32603004E+02  0.23710E+05
 0.32653004E+02  0.28506E+05
 0.32703003E+02  0.68793E+04
 0.32753002E+02 -0.23371E+03
 0.32803005E+02  0.16104E+05
 0.32853004E+02  0.26873E+05
 0.32903004E+02  0.17933E+05
 0.32953003E+02  0.78648E+04
 0.33003002E+02  0.16893E+05
 0.33053005E+02  0.11565E+05
 0.33103004E+02  0.17830E+05
 0.33153004E+02  0.19148E+05
 0.33203003E+02  0.99774E+04
 0.33253002E+02  0.56974E+04
 0.33303005E+02  0.10622E+05
 0.33353004E+02  0.14198E+05
 0.33403004E+02  0.22638E+05
 0.33453003E+02  0.23560E+05
 0.33503002E+02  0.11620E+05
 0.33553005E+02  0.13779E+05
 0.33603004E+02  0.13211E+05
 0.33653004E+02  0.13890E+05
 0.33703003E+02  0.27158E+05
 0.33753002E+02  0.17669E+05
 0.33803005E+02  0.85340E+04
 0.33853004E+02  0.12477E+05
 0.33903004E+02  0.12503E+05
 0.33953003E+02  0.13942E+05
 0.34003002E+02  0.17000E+05
 0.34053005E+02  0.14811E+05
 0.34103004E+02  0.74977E+04
 0.34153004E+02  0.15469E+05
 0.34203003E+02  0.22352E+05
 0.34253002E+02  0.27193E+05
 0.34303005E+02  0.11989E+05
 0.34353004E+02  0.10130E+05
 0.34403004E+02  0.76404E+04
 0.34453003E+02  0.14771E+05
 0.34503002E+02  0.20057E+05
 0.34553005E+02  0.15871E+05
 0.34603004E+02  0.14485E+05
 0.34653004E+02  0.99267E+04
 0.34703003E+02  0.17851E+05
 0.34753002E+02  0.56118E+04
 0.34803005E+02  0.26794E+04
 0.34853004E+02  0.38829E+04
 0.34903004E+02  0.17665E+05
 0.34953003E+02  0.22898E+05
 0.35003002E+02  0.15350E+05
 0.35053005E+02  0.11635E+05
 0.35103004E+02  0.73480E+04
 0.35153004E+02  0.94373E+04
 0.35203003E+02  0.20925E+05
 0.35253002E+02  0.23853E+05
 0.35303005E+02  0.15572E+05
 0.35353004E+02  0.14164E+05
 0.35403004E+02  0.65101E+04
 0.35453003E+02  0.15320E+05
 0.35503002E+02  0.17289E+05
 0.35553005E+02  0.21734E+05
 0.35603004E+02  0.27751E+05
 0.35653004E+02  0.20891E+05
 0.35703003E+02  0.21724E+05
 0.35753002E+02  0.14509E+05
 0.35803005E+02  0.13132E+05
 0.35853004E+02  0.17007E+05
 0.35903004E+02  0.14724E+05
 0.35953003E+02  0.11781E+05
 0.36003002E+02  0.17215E+05
 0.36053005E+02  0.14786E+05
 0.36103004E+02  0.16068E+05
 0.36153004E+02  0.12498E+05
 0.36203003E+02  0.10730E+05
 0.36253002E+02  0.17969E+05
 0.36303005E+02  0.14622E+05
 0.36353004E+02  0.16885E+05
 0.36403004E+02  0.14033E+05
 0.36453003E+02  0.12006E+05
 0.36503002E+02  0.11841E+05
 0.36553005E+02  0.14031E+05
 0.36603004E+02  0.10879E+05
 0.36653004E+02  0.12474E+05
 0.36703003E+02  0.12714E+05
 0.36753002E+02  0.21434E+05
 0.36803005E+02  0.12412E+05
 0.36853004E+02  0.11226E+04
 0.36903004E+02  0.17514E+05
 0.36953003E+02  0.14670E+05
 0.37003002E+02  0.23573E+05
 0.37053005E+02  0.20268E+05
 0.37103004E+02  0.16154E+05
 0.37153004E+02  0.19829E+05
 0.37203003E+02  0.11125E+05
 0.37253002E+02  0.32610E+04
 0.37303005E+02  0.19969E+05
 0.37353004E+02  0.28973E+05
 0.37403004E+02  0.16433E+05
 0.37453003E+02  0.12441E+05
 0.37503002E+02  0.12341E+05
 0.37553005E+02  0.15771E+05
 0.37603004E+02  0.12481E+05
 0.37653004E+02  0.16231E+05
 0.37703003E+02  0.92945E+04
 0.37753002E+02  0.13451E+05
 0.37803005E+02  0.19412E+05
 0.37853004E+02  0.15848E+05
 0.37903004E+02  0.65142E+04
 0.37953003E+02  0.37753E+04
 0.38003002E+02  0.14236E+05
 0.38053005E+02  0.22534E+05
 0.38103004E+02  0.21881E+05
 0.38153004E+02  0.13950E+05
 0.38203003E+02  0.73552E+04
 0.38253002E+02  0.69225E+04
 0.38303005E+02  0.16292E+05
 0.38353004E+02  0.20805E+05
 0.38403004E+02  0.21130E+05
 0.38453003E+02  0.11686E+05
 0.38503002E+02  0.10399E+05
 0.38553005E+02  0.15616E+05
 0.38603004E+02  0.15973E+05
 0.38653004E+02  0.14189E+05
 0.38703003E+02  0.14551E+05
 0.38753002E+02  0.24857E+05
 0.38803005E+02  0.24321E+05
 0.38853004E+02  0.12251E+05
 0.38903004E+02  0.13334E+05
 0.38953003E+02  0.12154E+05
 0.39003002E+02  0.76496E+04
 0.39053005E+02  0.17176E+05
 0.39103004E+02  0.22067E+05
 0.39153004E+02  0.16002E+05
 0.39203003E+02  0.65111E+04
 0.39253002E+02  0.74342E+04
 0.39303005E+02  0.21610E+05
 0.39353004E+02  0.23464E+05
 0.39403004E+02  0.13553E+05
 0.39453003E+02  0.56256E+04
 0.39503002E+02  0.10406E+05
 0.39553005E+02  0.22300E+05
 0.39603004E+02  0.26861E+05
 0.39653004E+02  0.14256E+05
 0.39703003E+02  0.12774E+04
 0.39753002E+02  0.68994E+04
 0.39803005E+02  0.11660E+05
 0.39853004E+02  0.18950E+05
 0.39903004E+02  0.17862E+05
 0.39953003E+02  0.15308E+05
 0.40003002E+02  0.16005E+05
 0.40053005E+02  0.10676E+05
 0.40103004E+02  0.11257E+05
 0.40153004E+02  0.19555E+05
 0.40203003E+02  0.21865E+05
 0.40253002E+02  0.15963E+05
 0.40303005E+02  0.11517E+05
 0.40353004E+02  0.15484E+05
 0.40403004E+02  0.15491E+05
 0.40453003E+02  0.11693E+05
 0.40503002E+02  0.14248E+05
 0.40553005E+02  0.19363E+05
 0.40603004E+02  0.22033E+05
 0.40653004E+02  0.15140E+05
 0.40703003E+02  0.15591E+05
 0.40753002E+02  0.14700E+05
 0.40803005E+02  0.17191E+05
 0.40853004E+02  0.13347E+05
 0.40903004E+02  0.14984E+05
 0.40953003E+02  0.21045E+05
 0.41003002E+02  0.13078E+05
 0.41053005E+02  0.88116E+04
 0.41103004E+02  0.11605E+05
 0.41153004E+02  0.15857E+05
 0.41203003E+02  0.12359E+05
 0.41253002E+02  0.96144E+04
 0.41303005E+02  0.12943E+05
 0.41353004E+02  0.18244E+05
 0.41403004E+02  0.17945E+05
 0.41453003E+02  0.14555E+05
 0.41503002E+02  0.91427E+04
 0.41553005E+02  0.11189E+05
 0.41603004E+02  0.14674E+05
 0.41653004E+02  0.17356E+05
 0.41703003E+02  0.17488E+05
 0.41753002E+02  0.11827E+05
 0.41803005E+02  0.10225E+05
 0.41853004E+02  0.11097E+05
 0.41903004E+02  0.16572E+05
 0.41953003E+02  0.18972E+05
 0.42003002E+02  0.17369E+05
 0.42053005E+02  0.14679E+05
 0.42103004E+02  0.14446E+05
 0.42153004E+02  0.15787E+05
 0.42203003E+02  0.15868E+05
 0.42253002E+02  0.17053E+05
 0.42303005E+02  0.16181E+05
 0.42353004E+02  0.14051E+05
 0.42403004E+02  0.13217E+05
 0.42453003E+02  0.18418E+05
 0.42503002E+02  0.19816E+05
 0.42553005E+02  0.11972E+05
 0.42603004E+02  0.13338E+05
 0.42653004E+02  0.17574E+05
 0.42703003E+02  0.17788E+05
 0.42753002E+02  0.16147E+05
 0.42803001E+02  0.10496E+05
 0.42853004E+02  0.12012E+05
 0.42903004E+02  0.17958E+05
 0.42953003E+02  0.16446E+05
 0.43003002E+02  0.14305E+05
 0.43053001E+02  0.13955E+05
 0.43103004E+02  0.14107E+05
 0.43153004E+02  0.15732E+05
 0.43203003E+02  0.15787E+05
 0.43253002E+02  0.13948E+05
 0.43303001E+02  0.13977E+05
 0.43353004E+02  0.20183E+05
 0.43403004E+02  0.14386E+05
 0.43453003E+02  0.11145E+05
 0.43503002E+02  0.11228E+05
 0.43553001E+02  0.11779E+05
 0.43603004E+02  0.15659E+05
 0.43653004E+02  0.13769E+05
 0.43703003E+02  0.14649E+05
 0.43753002E+02  0.12313E+05
 0.43803001E+02  0.12799E+05
 0.43853004E+02  0.14551E+05
 0.43903004E+02  0.18830E+05
 0.43953003E+02  0.17468E+05
 0.44003002E+02  0.13275E+05
 0.44053001E+02  0.15200E+05
 0.44103004E+02  0.16011E+05
 0.44153004E+02  0.15396E+05
 0.44203003E+02  0.14103E+05
 0.44253002E+02  0.13735E+05
 0.44303001E+02  0.13853E+05
 0.44353004E+02  0.16807E+05
 0.44403004E+02  0.17311E+05
 0.44453003E+02  0.17913E+05
 0.44503002E+02  0.14851E+05
 0.44553001E+02  0.11286E+05
 0.44603004E+02  0.16482E+05
 0.44653004E+02  0.16609E+05
 0.44703003E+02  0.15369E+05
 0.44753002E+02  0.15968E+05
 0.44803001E+02  0.13014E+05
 0.44853004E+02  0.12092E+05
 0.44903004E+02  0.12081E+05
 0.44953003E+02  0.13336E+05
 0.45003002E+02  0.16059E+05
 0.45053001E+02  0.14242E+05
 0.45103004E+02  0.13791E+05
 0.45153004E+02  0.16479E+05
 0.45203003E+02  0.18010E+05
 0.45253002E+02  0.16873E+05
 0.45303001E+02  0.13503E+05
 0.45353004E+02  0.11994E+05
 0.45403004E+02  0.17085E+05
 0.45453003E+02  0.19659E+05
 0.45503002E+02  0.16461E+05
 0.45553001E+02  0.13305E+05
 0.45603004E+02  0.10627E+05
 0.45653004E+02  0.16361E+05
 0.45703003E+02  0.20295E+05
 0.45753002E+02  0.16499E+05
 0.45803001E+02  0.14506E+05
 0.45853004E+02  0.12368E+05
 0.45903004E+02  0.11932E+05
 0.45953003E+02  0.16561E+05
 0.46003002E+02  0.16335E+05
 0.46053001E+02  0.15606E+05
 0.46103004E+02  0.14319E+05
 0.46153004E+02  0.11643E+05
 0.46203003E+02  0.14244E+05
 0.46253002E+02  0.15143E+05
 0.46303001E+02  0.13854E+05
 0.46353004E+02  0.12885E+05
 0.46403004E+02  0.14404E+05
 0.46453003E+02  0.15354E+05
 0.46503002E+02  0.15306E+05
 0.46553001E+02  0.15950E+05
 0.46603004E+02  0.11621E+05
 0.46653004E+02  0.10165E+05
 0.46703003E+02  0.13132E+05
 0.46753002E+02  0.16053E+05
 0.46803001E+02  0.15987E+05
 0.46853004E+02  0.13952E+05
 0.46903004E+02  0.15544E+05
 0.46953003E+02  0.12122E+05
 0.47003002E+02  0.10415E+05
 0.47053001E+02  0.16004E+05
 0.47103004E+02  0.17807E+05
 0.47153004E+02  0.16384E+05
 0.47203003E+02  0.15797E+05
 0.47253002E+02  0.18791E+05
 0.47303001E+02  0.16730E+05
 0.47353004E+02  0.12888E+05
 0.47403004E+02  0.14786E+05
 0.47453003E+02  0.14047E+05
 0.47503002E+02  0.16566E+05
 0.47553001E+02  0.17631E+05
 0.47603004E+02  0.14660E+05
 0.47653004E+02  0.15344E+05
 0.47703003E+02  0.15291E+05
 0.47753002E+02  0.16011E+05
 0.47803001E+02  0.15860E+05
 0.47853004E+02  0.15164E+05
 0.47903004E+02  0.14642E+05
 0.47953003E+02  0.14300E+05
 0.48003002E+02  0.13974E+05
 0.48053001E+02  0.14128E+05
 0.48103004E+02  0.15657E+05
 0.48153004E+02  0.13481E+05
 0.48203003E+02  0.13343E+05
 0.48253002E+02  0.14934E+05
 0.48303001E+02  0.15618E+05
 0.48353004E+02  0.13723E+05
 0.48403004E+02  0.12347E+05
 0.48453003E+02  0.14825E+05
 0.48503002E+02  0.15831E+05
 0.48553001E+02  0.15149E+05
 0.48603004E+02  0.14536E+05
 0.48653004E+02  0.15848E+05
 0.48703003E+02  0.14223E+05
 0.48753002E+02  0.11257E+05
 0.48803001E+02  0.13881E+05
 0.48853004E+02  0.15748E+05
 0.48903004E+02  0.16884E+05
 0.48953003E+02  0.15252E+05
 0.49003002E+02  0.12419E+05
 0.49053001E+02  0.14813E+05
 0.49103004E+02  0.16987E+05
 0.49153004E+02  0.15944E+05
 0.49203003E+02  0.16084E+05
 0.49253002E+02  0.14791E+05
 0.49303001E+02  0.14310E+05
 0.49353004E+02  0.14317E+05
 0.49403004E+02  0.13760E+05
 0.49453003E+02  0.16119E+05
 0.49503002E+02  0.17232E+05
 0.49553001E+02  0.18182E+05
 0.49603004E+02  0.16028E+05
 0.49653004E+02  0.13255E+05
 0.49703003E+02  0.14256E+05
 0.49753002E+02  0.16727E+05
 0.49803001E+02  0.16775E+05
 0.49853004E+02  0.15229E+05
 0.49903004E+02  0.11893E+05
 0.49953003E+02  0.10514E+05
 0.50003002E+02  0.11297E+05
 0.50053001E+02  0.14464E+05
 0.50103004E+02  0.19641E+05
 0.50153004E+02  0.17225E+05
 0.50203003E+02  0.15047E+05
 0.50253002E+02  0.12802E+05
 0.50303001E+02  0.11014E+05
 0.50353004E+02  0.15023E+05
 0.50403004E+02  0.16017E+05
 0.50453003E+02  0.15496E+05
 0.50503002E+02  0.15026E+05
 0.50553001E+02  0.14778E+05
 0.50603004E+02  0.15292E+05
 0.50653004E+02  0.12478E+05
 0.50703003E+02  0.12232E+05
 0.50753002E+02  0.14901E+05
 0.50803001E+02  0.15418E+05
 0.50853004E+02  0.15288E+05
 0.50903004E+02  0.14727E+05
 0.50953003E+02  0.15699E+05
 0.51003002E+02  0.16081E+05
 0.51053001E+02  0.15304E+05
 0.51103004E+02  0.13533E+05
 0.51153004E+02  0.15319E+05
 0.51203003E+02  0.17228E+05
 0.51253002E+02  0.15213E+05
 0.51303001E+02  0.12401E+05
 0.51353004E+02  0.12205E+05
 0.51403004E+02  0.15421E+05
 0.51453003E+02  0.17885E+05
 0.51503002E+02  0.15887E+05
 0.51553001E+02  0.13731E+05
 0.51603004E+02  0.15410E+05
 0.51653004E+02  0.16176E+05
 0.51703003E+02  0.16068E+05
 0.51753002E+02  0.16253E+05
 0.51803001E+02  0.16689E+05
 0.51853004E+02  0.14779E+05
 0.51903004E+02  0.13026E+05
 0.51953003E+02  0.14350E+05
 0.52003002E+02  0.16023E+05
 0.52053001E+02  0.15214E+05
 0.52103004E+02  0.12989E+05
 0.52153004E+02  0.12107E+05
 0.52203003E+02  0.13507E+05
 0.52253002E+02  0.16324E+05
 0.52303001E+02  0.16869E+05
 0.52353004E+02  0.14916E+05
 0.52403004E+02  0.12470E+05
 0.52453003E+02  0.11325E+05
 0.52503002E+02  0.14803E+05
 0.52553001E+02  0.18481E+05
 0.52603004E+02  0.17714E+05
 0.52653004E+02  0.13722E+05
 0.52703003E+02  0.12168E+05
 0.52753002E+02  0.14353E+05
 0.52803001E+02  0.15181E+05
 0.52853004E+02  0.16509E+05
 0.52903004E+02  0.17142E+05
 0.52953003E+02  0.14477E+05
 0.53003002E+02  0.12931E+05
 0.53053001E+02  0.13749E+05
 0.53103004E+02  0.15301E+05
 0.53153004E+02  0.17925E+05
 0.53203003E+02  0.16254E+05
 0.53253002E+02  0.12844E+05
 0.53303001E+02  0.12352E+05
 0.53353004E+02  0.14899E+05
 0.53403004E+02  0.16296E+05
 0.53453003E+02  0.16584E+05
 0.53503002E+02  0.16033E+05
 0.53553001E+02  0.12628E+05
 0.53603004E+02  0.13102E+05
 0.53653004E+02  0.14715E+05
 0.53703003E+02  0.15490E+05
 0.53753002E+02  0.14458E+05
 0.53803001E+02  0.13203E+05
 0.53853004E+02  0.13709E+05
 0.53903004E+02  0.14656E+05
 0.53953003E+02  0.16694E+05
 0.54003002E+02  0.15854E+05
 0.54053001E+02  0.13188E+05
 0.54103004E+02  0.14091E+05
 0.54153004E+02  0.17012E+05
 0.54203003E+02  0.18727E+05
 0.54253002E+02  0.16689E+05
 0.54303001E+02  0.13695E+05
 0.54353004E+02  0.13299E+05
 0.54403004E+02  0.14887E+05
 0.54453003E+02  0.15966E+05
 0.54503002E+02  0.14240E+05
 0.54553001E+02  0.15108E+05
 0.54603004E+02  0.15630E+05
 0.54653004E+02  0.13673E+05
 0.54703003E+02  0.14243E+05
 0.54753002E+02  0.14877E+05
 0.54803001E+02  0.15633E+05
 0.54853004E+02  0.14786E+05
 0.54903004E+02  0.13886E+05
 0.54953003E+02  0.13610E+05
 0.55003002E+02  0.13778E+05
 0.55053001E+02  0.15497E+05
 0.55103004E+02  0.16017E+05
 0.55153004E+02  0.15603E+05
 0.55203003E+02  0.14741E+05
 0.55253002E+02  0.13835E+05
 0.55303001E+02  0.14161E+05
 0.55353004E+02  0.14805E+05
 0.55403004E+02  0.14609E+05
 0.55453003E+02  0.15725E+05
 0.55503002E+02  0.17073E+05
 0.55553001E+02  0.16101E+05
 0.55603004E+02  0.13451E+05
 0.55653004E+02  0.12322E+05
 0.55703003E+02  0.14398E+05
 0.55753002E+02  0.15173E+05
 0.55803001E+02  0.14911E+05
 0.55853001E+02  0.15786E+05
 0.55903004E+02  0.15859E+05
 0.55953003E+02  0.15625E+05
 0.56003002E+02  0.13724E+05
 0.56053001E+02  0.12345E+05
 0.56103001E+02  0.14583E+05
 0.56153004E+02  0.17874E+05
 0.56203003E+02  0.16450E+05
 0.56253002E+02  0.13952E+05
 0.56303001E+02  0.12867E+05
 0.56353001E+02  0.12870E+05
 0.56403004E+02  0.14035E+05
 0.56453003E+02  0.13991E+05
 0.56503002E+02  0.15165E+05
 0.56553001E+02  0.14373E+05
 0.56603001E+02  0.13671E+05
 0.56653004E+02  0.12296E+05
 0.56703003E+02  0.13085E+05
 0.56753002E+02  0.15751E+05
 0.56803001E+02  0.17191E+05
 0.56853001E+02  0.18437E+05
 0.56903004E+02  0.16595E+05
 0.56953003E+02  0.14181E+05
 0.57003002E+02  0.12758E+05
 0.57053001E+02  0.14626E+05
 0.57103001E+02  0.17038E+05
 0.57153004E+02  0.16491E+05
 0.57203003E+02  0.14333E+05
 0.57253002E+02  0.14007E+05
 0.57303001E+02  0.16216E+05
 0.57353001E+02  0.17031E+05
 0.57403004E+02  0.15378E+05
 0.57453003E+02  0.13392E+05
 0.57503002E+02  0.13744E+05
 0.57553001E+02  0.15078E+05
 0.57603001E+02  0.16733E+05
 0.57653004E+02  0.16040E+05
 0.57703003E+02  0.13889E+05
 0.57753002E+02  0.14448E+05
 0.57803001E+02  0.14747E+05
 0.57853001E+02  0.14456E+05
 0.57903004E+02  0.14335E+05
 0.57953003E+02  0.14273E+05
 0.58003002E+02  0.14457E+05
 0.58053001E+02  0.13292E+05
 0.58103001E+02  0.12779E+05
 0.58153004E+02  0.13921E+05
 0.58203003E+02  0.15321E+05
 0.58253002E+02  0.16474E+05
 0.58303001E+02  0.15451E+05
 0.58353001E+02  0.14971E+05
 0.58403004E+02  0.15155E+05
 0.58453003E+02  0.14717E+05
 0.58503002E+02  0.14430E+05
 0.58553001E+02  0.15384E+05
 0.58603001E+02  0.16544E+05
 0.58653004E+02  0.15837E+05
 0.58703003E+02  0.14916E+05
 0.58753002E+02  0.14504E+05
 0.58803001E+02  0.14240E+05
 0.58853001E+02  0.14245E+05
 0.58903004E+02  0.15752E+05
 0.58953003E+02  0.15895E+05
 0.59003002E+02  0.14728E+05
 0.59053001E+02  0.12737E+05
 0.59103001E+02  0.13035E+05
 0.59153004E+02  0.16889E+05
 0.59203003E+02  0.17391E+05
 0.59253002E+02  0.15399E+05
 0.59303001E+02  0.14633E+05
 0.59353001E+02  0.14356E+05
 0.59403004E+02  0.14320E+05
 0.59453003E+02  0.15203E+05
 0.59503002E+02  0.15490E+05
 0.59553001E+02  0.14747E+05
 0.59603001E+02  0.13260E+05
 0.59653004E+02  0.14168E+05
 0.59703003E+02  0.15332E+05
 0.59753002E+02  0.14899E+05
 0.59803001E+02  0.15198E+05
 0.59853001E+02  0.14760E+05
 0.59903004E+02  0.14272E+05
 0.59953003E+02  0.14326E+05
 0.60003002E+02  0.14389E+05
 0.60053001E+02  0.15465E+05
 0.60103001E+02  0.15696E+05
 0.60153004E+02  0.13849E+05
 0.60203003E+02  0.14706E+05
 0.60253002E+02  0.14705E+05
 0.60303001E+02  0.13162E+05
 0.60353001E+02  0.15084E+05
 0.60403004E+02  0.15964E+05
 0.60453003E+02  0.15946E+05
 0.60503002E+02  0.15117E+05
 0.60553001E+02  0.13983E+05
 0.60603001E+02  0.14144E+05
 0.60653004E+02  0.14892E+05
 0.60703003E+02  0.15836E+05
 0.60753002E+02  0.15774E+05
 0.60803001E+02  0.15599E+05
 0.60853001E+02  0.15671E+05
 0.60903004E+02  0.13940E+05
 0.60953003E+02  0.13268E+05
 0.61003002E+02  0.14389E+05
 0.61053001E+02  0.14490E+05
 0.61103001E+02  0.15379E+05
 0.61153004E+02  0.15501E+05
 0.61203003E+02  0.14041E+05
 0.61253002E+02  0.14738E+05
 0.61303001E+02  0.16367E+05
 0.61353001E+02  0.15498E+05
 0.61403004E+02  0.15147E+05
 0.61453003E+02  0.14681E+05
 0.61503002E+02  0.15513E+05
 0.61553001E+02  0.16128E+05
 0.61603001E+02  0.14930E+05
 0.61653004E+02  0.14377E+05
 0.61703003E+02  0.13537E+05
 0.61753002E+02  0.14428E+05
 0.61803001E+02  0.15457E+05
 0.61853001E+02  0.15530E+05
 0.61903004E+02  0.14174E+05
 0.61953003E+02  0.13297E+05
 0.62003002E+02  0.13966E+05
 0.62053001E+02  0.15065E+05
 0.62103004E+02  0.15098E+05
 0.62153000E+02  0.13705E+05
 0.62203003E+02  0.14234E+05
 0.62252998E+02  0.15076E+05
 0.62303001E+02  0.16093E+05
 0.62353004E+02  0.14802E+05
 0.62403000E+02  0.13728E+05
 0.62453003E+02  0.14282E+05
 0.62502998E+02  0.15087E+05
 0.62553001E+02  0.15239E+05
 0.62603004E+02  0.14722E+05
 0.62653000E+02  0.15013E+05
 0.62703003E+02  0.14938E+05
 0.62752998E+02  0.14630E+05
 0.62803001E+02  0.14900E+05
 0.62853004E+02  0.15473E+05
 0.62903000E+02  0.15485E+05
 0.62953003E+02  0.15449E+05
 0.63002998E+02  0.14799E+05
 0.63053001E+02  0.14909E+05
 0.63103004E+02  0.14526E+05
 0.63153000E+02  0.15670E+05
 0.63203003E+02  0.16645E+05
 0.63252998E+02  0.15626E+05
 0.63303001E+02  0.14765E+05
 0.63353004E+02  0.13502E+05
 0.63403000E+02  0.13660E+05
 0.63453003E+02  0.14531E+05
 0.63502998E+02  0.14922E+05
 0.63553001E+02  0.14681E+05
 0.63603004E+02  0.14591E+05
 0.63653000E+02  0.14130E+05
 0.63703003E+02  0.15096E+05
 0.63752998E+02  0.14920E+05
 0.63803001E+02  0.14056E+05
 0.63853004E+02  0.15243E+05
 0.63903000E+02  0.15617E+05
 0.63953003E+02  0.16163E+05
 0.64002998E+02  0.14552E+05
 0.64053001E+02  0.13768E+05
 0.64103004E+02  0.14591E+05
 0.64153000E+02  0.16615E+05
 0.64203003E+02  0.16563E+05
 0.64252998E+02  0.14427E+05
 0.64303001E+02  0.13457E+05
 0.64353004E+02  0.14095E+05
 0.64403000E+02  0.14558E+05
 0.64453003E+02  0.14869E+05
 0.64502998E+02  0.15469E+05
 0.64553001E+02  0.15118E+05
 0.64603004E+02  0.15085E+05
 0.64653000E+02  0.13345E+05
 0.64703003E+02  0.13780E+05
 0.64752998E+02  0.15252E+05
 0.64803001E+02  0.15626E+05
 0.64853004E+02  0.14738E+05
 0.64903000E+02  0.14171E+05
 0.64953003E+02  0.14145E+05
 0.65002998E+02  0.14478E+05
 0.65053001E+02  0.14831E+05
 0.65103004E+02  0.14845E+05
 0.65153000E+02  0.15470E+05
 0.65203003E+02  0.15771E+05
 0.65252998E+02  0.15728E+05
 0.65303001E+02  0.15276E+05
 0.65353004E+02  0.15060E+05
 0.65403000E+02  0.15095E+05
 0.65453003E+02  0.15492E+05
 0.65502998E+02  0.15432E+05
 0.65553001E+02  0.15176E+05
 0.65603004E+02  0.14835E+05
 0.65653000E+02  0.14550E+05
 0.65703003E+02  0.13685E+05
 0.65752998E+02  0.13007E+05
 0.65803001E+02  0.14841E+05
 0.65853004E+02  0.16322E+05
 0.65903000E+02  0.15697E+05
 0.65953003E+02  0.14235E+05
 0.66002998E+02  0.14255E+05
 0.66053001E+02  0.14644E+05
 0.66103004E+02  0.15093E+05
 0.66153000E+02  0.15855E+05
 0.66203003E+02  0.15560E+05
 0.66252998E+02  0.15101E+05
 0.66303001E+02  0.13958E+05
 0.66353004E+02  0.14508E+05
 0.66403000E+02  0.16089E+05
 0.66453003E+02  0.16030E+05
 0.66502998E+02  0.14929E+05
 0.66553001E+02  0.13653E+05
 0.66603004E+02  0.13397E+05
 0.66653000E+02  0.14859E+05
 0.66703003E+02  0.15639E+05
 0.66752998E+02  0.14640E+05
 0.66803001E+02  0.13216E+05
 0.66853004E+02  0.13311E+05
 0.66903000E+02  0.15027E+05
 0.66953003E+02  0.15783E+05
 0.67002998E+02  0.15282E+05
 0.67053001E+02  0.14725E+05
 0.67103004E+02  0.15122E+05
 0.67153000E+02  0.15306E+05
 0.67203003E+02  0.14793E+05
 0.67252998E+02  0.15283E+05
 0.67303001E+02  0.15975E+05
 0.67353004E+02  0.15127E+05
 0.67403000E+02  0.14554E+05
 0.67453003E+02  0.15231E+05
 0.67502998E+02  0.15653E+05
 0.67553001E+02  0.14374E+05
 0.67603004E+02  0.14291E+05
 0.67653000E+02  0.15482E+05
 0.67703003E+02  0.14582E+05
 0.67752998E+02  0.13705E+05
 0.67803001E+02  0.13663E+05
 0.67853004E+02  0.14200E+05
 0.67903000E+02  0.14921E+05
 0.67953003E+02  0.14357E+05
 0.68002998E+02  0.13242E+05
 0.68053001E+02  0.13149E+05
 0.68103004E+02  0.14369E+05
 0.68153000E+02  0.15406E+05
 0.68203003E+02  0.15287E+05
 0.68252998E+02  0.14699E+05
 0.68303001E+02  0.14409E+05
 0.68353004E+02  0.14902E+05
 0.68403000E+02  0.16104E+05
 0.68453003E+02  0.15840E+05
 0.68502998E+02  0.14827E+05
 0.68553001E+02  0.15007E+05
 0.68603004E+02  0.14863E+05
 0.68653000E+02  0.14831E+05
 0.68703003E+02  0.16256E+05
 0.68752998E+02  0.16929E+05
 0.68803001E+02  0.16206E+05
 0.68853004E+02  0.15477E+05
 0.68903000E+02  0.14991E+05
 0.68953003E+02  0.15245E+05
 0.69002998E+02  0.15512E+05
 0.69053001E+02  0.15131E+05
 0.69103004E+02  0.15132E+05
 0.69153000E+02  0.15467E+05
 0.69203003E+02  0.14531E+05
 0.69252998E+02  0.13973E+05
 0.69303001E+02  0.14338E+05
 0.69353004E+02  0.15051E+05
 0.69403000E+02  0.15308E+05
 0.69453003E+02  0.15078E+05
 0.69502998E+02  0.14016E+05
 0.69553001E+02  0.13674E+05
 0.69603004E+02  0.14440E+05
 0.69653000E+02  0.14451E+05
 0.69703003E+02  0.14493E+05
 0.69752998E+02  0.13693E+05
 0.69803001E+02  0.14041E+05
 0.69853004E+02  0.15043E+05
 0.69903000E+02  0.15997E+05
 0.69953003E+02  0.15751E+05
 0.70002998E+02  0.14552E+05
 0.70053001E+02  0.14611E+05
 0.70103004E+02  0.14841E+05
 0.70153000E+02  0.14661E+05
 0.70203003E+02  0.14053E+05
 0.70252998E+02  0.13889E+05
 0.70303001E+02  0.14292E+05
 0.70353004E+02  0.15172E+05
 0.70403000E+02  0.15302E+05
 0.70453003E+02  0.14874E+05
 0.70502998E+02  0.14535E+05
 0.70553001E+02  0.14938E+05
 0.70603004E+02  0.15474E+05
 0.70653000E+02  0.15280E+05
 0.70703003E+02  0.15174E+05
 0.70752998E+02  0.14686E+05
 0.70803001E+02  0.14476E+05
 0.70853004E+02  0.14925E+05
 0.70903000E+02  0.15620E+05
 0.70953003E+02  0.15268E+05
 0.71002998E+02  0.14461E+05
 0.71053001E+02  0.14282E+05
 0.71103004E+02  0.14562E+05
 0.71153000E+02  0.14978E+05
 0.71203003E+02  0.14708E+05
 0.71252998E+02  0.14934E+05
 0.71303001E+02  0.15110E+05
 0.71353004E+02  0.15271E+05
 0.71403000E+02  0.15382E+05
 0.71453003E+02  0.14747E+05
 0.71502998E+02  0.14485E+05
 0.71553001E+02  0.14424E+05
 0.71603004E+02  0.14715E+05
 0.71653000E+02  0.15272E+05
 0.71703003E+02  0.15656E+05
 0.71752998E+02  0.15029E+05
 0.71803001E+02  0.14118E+05
 0.71853004E+02  0.14121E+05
 0.71903000E+02  0.14068E+05
 0.71953003E+02  0.14176E+05
 0.72002998E+02  0.14076E+05
 0.72053001E+02  0.14131E+05
 0.72103004E+02  0.14760E+05
 0.72153000E+02  0.15253E+05
 0.72203003E+02  0.15060E+05
 0.72252998E+02  0.14390E+05
 0.72303001E+02  0.14760E+05
 0.72353004E+02  0.15326E+05
 0.72403000E+02  0.15442E+05
 0.72453003E+02  0.15094E+05
 0.72502998E+02  0.15129E+05
 0.72553001E+02  0.15492E+05
 0.72603004E+02  0.15621E+05
 0.72653000E+02  0.15507E+05
 0.72703003E+02  0.15101E+05
 0.72752998E+02  0.15421E+05
 0.72803001E+02  0.15144E+05
 0.72853004E+02  0.14483E+05
 0.72903000E+02  0.14299E+05
 0.72953003E+02  0.14701E+05
 0.73002998E+02  0.14981E+05
 0.73053001E+02  0.14577E+05
 0.73103004E+02  0.14338E+05
 0.73153000E+02  0.14622E+05
 0.73203003E+02  0.15612E+05
 0.73252998E+02  0.15626E+05
 0.73303001E+02  0.15608E+05
 0.73353004E+02  0.15515E+05
 0.73403000E+02  0.14436E+05
 0.73453003E+02  0.13955E+05
 0.73502998E+02  0.14412E+05
 0.73553001E+02  0.15195E+05
 0.73603004E+02  0.14733E+05
 0.73653000E+02  0.14577E+05
 0.73703003E+02  0.14980E+05
 0.73752998E+02  0.14843E+05
 0.73803001E+02  0.14340E+05
 0.73853004E+02  0.14189E+05
 0.73903000E+02  0.14988E+05
 0.73953003E+02  0.14962E+05
 0.74002998E+02  0.14403E+05
 0.74053001E+02  0.14697E+05
 0.74103004E+02  0.15645E+05
 0.74153000E+02  0.15178E+05
 0.74203003E+02  0.13812E+05
 0.74252998E+02  0.13743E+05
 0.74303001E+02  0.14707E+05
 0.74353004E+02  0.15641E+05
 0.74403000E+02  0.15572E+05
 0.74453003E+02  0.15187E+05
 0.74502998E+02  0.15266E+05
 0.74553001E+02  0.15497E+05
 0.74603004E+02  0.15364E+05
 0.74653000E+02  0.15007E+05
 0.74703003E+02  0.15029E+05
 0.74752998E+02  0.14893E+05
 0.74803001E+02  0.14760E+05
 0.74853004E+02  0.14783E+05
 0.74903000E+02  0.14535E+05
 0.74953003E+02  0.14786E+05
 0.75002998E+02  0.14951E+05
 0.75053001E+02  0.14435E+05
 0.75103004E+02  0.14262E+05
 0.75153000E+02  0.14908E+05
 0.75203003E+02  0.15416E+05
 0.75252998E+02  0.15481E+05
 0.75303001E+02  0.14641E+05
 0.75353004E+02  0.14294E+05
 0.75403000E+02  0.15003E+05
 0.75453003E+02  0.15257E+05
 0.75502998E+02  0.15244E+05
 0.75553001E+02  0.15081E+05
 0.75603004E+02  0.15181E+05
 0.75653000E+02  0.15173E+05
 0.75703003E+02  0.15163E+05
 0.75752998E+02  0.14828E+05
 0.75803001E+02  0.14696E+05
 0.75853004E+02  0.14576E+05
 0.75903000E+02  0.14776E+05
 0.75953003E+02  0.14718E+05
 0.76002998E+02  0.14183E+05
 0.76053001E+02  0.14700E+05
 0.76103004E+02  0.14690E+05
 0.76153000E+02  0.14603E+05
 0.76203003E+02  0.15327E+05
 0.76252998E+02  0.15610E+05
 0.76303001E+02  0.14953E+05
 0.76353004E+02  0.14382E+05
 0.76403000E+02  0.14074E+05
 0.76453003E+02  0.14283E+05
 0.76502998E+02  0.15098E+05
 0.76553001E+02  0.15392E+05
 0.76603004E+02  0.15372E+05
 0.76653000E+02  0.14630E+05
 0.76703003E+02  0.13516E+05
 0.76752998E+02  0.13850E+05
 0.76803001E+02  0.14825E+05
 0.76853004E+02  0.15334E+05
 0.76903000E+02  0.15102E+05
 0.76953003E+02  0.14458E+05
 0.77002998E+02  0.14148E+05
 0.77053001E+02  0.14811E+05
 0.77103004E+02  0.15385E+05
 0.77153000E+02  0.14861E+05
 0.77203003E+02  0.14394E+05
 0.77252998E+02  0.14761E+05
 0.77303001E+02  0.15133E+05
 0.77353004E+02  0.15130E+05
 0.77403000E+02  0.15118E+05
 0.77453003E+02  0.15112E+05
 0.77502998E+02  0.14976E+05
 0.77553001E+02  0.15029E+05
 0.77603004E+02  0.15161E+05
 0.77653000E+02  0.15386E+05
 0.77703003E+02  0.15640E+05
 0.77752998E+02  0.15401E+05
 0.77803001E+02  0.15326E+05
 0.77853004E+02  0.15065E+05
 0.77903000E+02  0.14599E+05
 0.77953003E+02  0.14100E+05
 0.78002998E+02  0.14516E+05
 0.78053001E+02  0.15189E+05
 0.78103004E+02  0.15231E+05
 0.78153000E+02  0.14961E+05
 0.78203003E+02  0.14684E+05
 0.78252998E+02  0.14614E+05
 0.78303001E+02  0.14815E+05
 0.78353004E+02  0.15374E+05
 0.78403000E+02  0.15230E+05
 0.78453003E+02  0.14989E+05
 0.78502998E+02  0.14671E+05
 0.78553001E+02  0.14487E+05
 0.78603004E+02  0.14671E+05
 0.78653000E+02  0.14986E+05
 0.78703003E+02  0.15237E+05
 0.78752998E+02  0.14980E+05
 0.78803001E+02  0.14340E+05
 0.78853004E+02  0.14299E+05
 0.78903000E+02  0.14571E+05
 0.78953003E+02  0.14603E+05
 0.79002998E+02  0.14844E+05
 0.79053001E+02  0.15121E+05
 0.79103004E+02  0.14847E+05
 0.79153000E+02  0.14085E+05
 0.79203003E+02  0.14631E+05
 0.79252998E+02  0.15673E+05
 0.79303001E+02  0.15809E+05
 0.79353004E+02  0.14806E+05
 0.79403000E+02  0.14189E+05
 0.79453003E+02  0.14275E+05
 0.79502998E+02  0.14780E+05
 0.79553001E+02  0.15610E+05
 0.79603004E+02  0.15442E+05
 0.79653000E+02  0.14787E+05
 0.79703003E+02  0.14296E+05
 0.79752998E+02  0.14443E+05
 0.79803001E+02  0.14813E+05
 0.79853004E+02  0.14881E+05
 0.79903000E+02  0.14754E+05
 0.79953003E+02  0.14952E+05
 0.80002998E+02  0.15106E+05
 0.80053001E+02  0.14888E+05
 0.80103004E+02  0.14614E+05
 0.80153000E+02  0.14619E+05
 0.80203003E+02  0.14837E+05
 0.80252998E+02  0.14572E+05
 0.80303001E+02  0.14549E+05
 0.80353004E+02  0.15381E+05
 0.80403000E+02  0.15607E+05
 0.80453003E+02  0.15113E+05
 0.80502998E+02  0.15042E+05
 0.80553001E+02  0.14613E+05
 0.80603004E+02  0.14410E+05
 0.80653000E+02  0.14464E+05
 0.80703003E+02  0.14421E+05
 0.80752998E+02  0.14773E+05
 0.80803001E+02  0.14617E+05
 0.80853004E+02  0.14818E+05
 0.80903000E+02  0.15328E+05
 0.80953003E+02  0.15365E+05
 0.81002998E+02  0.15215E+05
 0.81053001E+02  0.15305E+05
 0.81103004E+02  0.15278E+05
 0.81153000E+02  0.14715E+05
 0.81203003E+02  0.14145E+05
 0.81252998E+02  0.14471E+05
 0.81303001E+02  0.15103E+05
 0.81353004E+02  0.14798E+05
 0.81403000E+02  0.14516E+05
 0.81453003E+02  0.14965E+05
 0.81502998E+02  0.15499E+05
 0.81553001E+02  0.15596E+05
 0.81603004E+02  0.14997E+05
 0.81653000E+02  0.13802E+05
 0.81703003E+02  0.14039E+05
 0.81752998E+02  0.15262E+05
 0.81803001E+02  0.15742E+05
 0.81853004E+02  0.15237E+05
 0.81903000E+02  0.14403E+05
 0.81953003E+02  0.14491E+05
 0.82002998E+02  0.14423E+05
 0.82053001E+02  0.14523E+05
 0.82103004E+02  0.15101E+05
 0.82153000E+02  0.15366E+05
 0.82203003E+02  0.15071E+05
 0.82252998E+02  0.14438E+05
 0.82303001E+02  0.14416E+05
 0.82353004E+02  0.14886E+05
 0.82403000E+02  0.15022E+05
 0.82453003E+02  0.14798E+05
 0.82502998E+02  0.14918E+05
 0.82553001E+02  0.14635E+05
 0.82603004E+02  0.14043E+05
 0.82653000E+02  0.13987E+05
 0.82703003E+02  0.13732E+05
 0.82752998E+02  0.13842E+05
 0.82803001E+02  0.14684E+05
 0.82853004E+02  0.15250E+05
 0.82903000E+02  0.15375E+05
 0.82953003E+02  0.15096E+05
 0.83002998E+02  0.14642E+05
 0.83053001E+02  0.14435E+05
 0.83103004E+02  0.14980E+05
 0.83153000E+02  0.15667E+05
 0.83203003E+02  0.15852E+05
 0.83252998E+02  0.15214E+05
 0.83303001E+02  0.14807E+05
 0.83353004E+02  0.14982E+05
 0.83403000E+02  0.15403E+05
 0.83453003E+02  0.15548E+05
 0.83502998E+02  0.15339E+05
 0.83553001E+02  0.15586E+05
 0.83603004E+02  0.15439E+05
 0.83653000E+02  0.15001E+05
 0.83703003E+02  0.14653E+05
 0.83752998E+02  0.15053E+05
 0.83803001E+02  0.15609E+05
 0.83853004E+02  0.15192E+05
 0.83903000E+02  0.14922E+05
 0.83953003E+02  0.14815E+05
 0.84002998E+02  0.14533E+05
 0.84053001E+02  0.14591E+05
 0.84103004E+02  0.14772E+05
 0.84153000E+02  0.15268E+05
 0.84203003E+02  0.15372E+05
 0.84252998E+02  0.14968E+05
 0.84303001E+02  0.14494E+05
 0.84353004E+02  0.14233E+05
 0.84403000E+02  0.14535E+05
 0.84453003E+02  0.14941E+05
 0.84502998E+02  0.15214E+05
 0.84553001E+02  0.14956E+05
 0.84603004E+02  0.14799E+05
 0.84653000E+02  0.14812E+05
 0.84703003E+02  0.14510E+05
 0.84752998E+02  0.14347E+05
 0.84803001E+02  0.14668E+05
 0.84853004E+02  0.15035E+05
 0.84903000E+02  0.14906E+05
 0.84953003E+02  0.14464E+05
 0.85002998E+02  0.13885E+05
 0.85053001E+02  0.13842E+05
 0.85103004E+02  0.14283E+05
 0.85153000E+02  0.14876E+05
 0.85203003E+02  0.15379E+05
 0.85252998E+02  0.15211E+05
 0.85303001E+02  0.14443E+05
 0.85353004E+02  0.14039E+05
 0.85403000E+02  0.14470E+05
 0.85453003E+02  0.15098E+05
 0.85502998E+02  0.15585E+05
 0.85553001E+02  0.15699E+05
 0.85603004E+02  0.15226E+05
 0.85653000E+02  0.14148E+05
 0.85703003E+02  0.13699E+05
 0.85752998E+02  0.14227E+05
 0.85803001E+02  0.15132E+05
 0.85853004E+02  0.15211E+05
 0.85903000E+02  0.14598E+05
 0.85953003E+02  0.14436E+05
 0.86002998E+02  0.14355E+05
 0.86053001E+02  0.14851E+05
 0.86103004E+02  0.15110E+05
 0.86153000E+02  0.14715E+05
 0.86203003E+02  0.14538E+05
 0.86252998E+02  0.14543E+05
 0.86303001E+02  0.14566E+05
 0.86353004E+02  0.14588E+05
 0.86403000E+02  0.14794E+05
 0.86453003E+02  0.15369E+05
 0.86502998E+02  0.15669E+05
 0.86553001E+02  0.15489E+05
 0.86603004E+02  0.15126E+05
 0.86653000E+02  0.14682E+05
 0.86703003E+02  0.14866E+05
 0.86752998E+02  0.15275E+05
 0.86803001E+02  0.15377E+05
 0.86853004E+02  0.15447E+05
 0.86903000E+02  0.15644E+05
 0.86953003E+02  0.15235E+05
 0.87002998E+02  0.14796E+05
 0.87053001E+02  0.14878E+05
 0.87103004E+02  0.15105E+05
 0.87153000E+02  0.15441E+05
 0.87203003E+02  0.15787E+05
 0.87252998E+02  0.15800E+05
 0.87303001E+02  0.15431E+05
 0.87353004E+02  0.15099E+05
 0.87403000E+02  0.14788E+05
 0.87453003E+02  0.14890E+05
 0.87502998E+02  0.15003E+05
 0.87553001E+02  0.14812E+05
 0.87602997E+02  0.14385E+05
 0.87653000E+02  0.14153E+05
 0.87703003E+02  0.14312E+05
 0.87752998E+02  0.14646E+05
 0.87803001E+02  0.14903E+05
 0.87852997E+02  0.14994E+05
 0.87903000E+02  0.14786E+05
 0.87953003E+02  0.14250E+05
 0.88002998E+02  0.13767E+05
 0.88053001E+02  0.13700E+05
 0.88102997E+02  0.14393E+05
 0.88153000E+02  0.15095E+05
 0.88203003E+02  0.15234E+05
 0.88252998E+02  0.14749E+05
 0.88303001E+02  0.14355E+05
 0.88352997E+02  0.14529E+05
 0.88403000E+02  0.15039E+05
 0.88453003E+02  0.15275E+05
 0.88502998E+02  0.15024E+05
 0.88553001E+02  0.15015E+05
 0.88602997E+02  0.14971E+05
 0.88653000E+02  0.14788E+05
 0.88703003E+02  0.14643E+05
 0.88752998E+02  0.14781E+05
 0.88803001E+02  0.14642E+05
 0.88852997E+02  0.14368E+05
 0.88903000E+02  0.14436E+05
 0.88953003E+02  0.14761E+05
 0.89002998E+02  0.15206E+05
 0.89053001E+02  0.15398E+05
 0.89102997E+02  0.15353E+05
 0.89153000E+02  0.15265E+05
 0.89203003E+02  0.15323E+05
 0.89252998E+02  0.15063E+05
 0.89303001E+02  0.14765E+05
 0.89352997E+02  0.14580E+05
 0.89403000E+02  0.14710E+05
 0.89453003E+02  0.14946E+05
 0.89502998E+02  0.14843E+05
 0.89553001E+02  0.14582E+05
 0.89602997E+02  0.14444E+05
 0.89653000E+02  0.14423E+05
 0.89703003E+02  0.14682E+05
 0.89752998E+02  0.14811E+05
 0.89803001E+02  0.14590E+05
 0.89852997E+02  0.14695E+05
 0.89903000E+02  0.14861E+05
 0.89953003E+02  0.15101E+05
 0.90002998E+02  0.15120E+05
 0.90053001E+02  0.14977E+05
 0.90102997E+02  0.15117E+05
 0.90153000E+02  0.15179E+05
 0.90203003E+02  0.15068E+05
 0.90252998E+02  0.14801E+05
 0.90303001E+02  0.14796E+05
 0.90352997E+02  0.15049E+05
 0.90403000E+02  0.14975E+05
 0.90453003E+02  0.14665E+05
 0.90502998E+02  0.14546E+05
 0.90553001E+02  0.14938E+05
 0.90602997E+02  0.15335E+05
 0.90653000E+02  0.15212E+05
 0.90703003E+02  0.14940E+05
 0.90752998E+02  0.15049E+05
 0.90803001E+02  0.15251E+05
 0.90852997E+02  0.15116E+05
 0.90903000E+02  0.14591E+05
 0.90953003E+02  0.14345E+05
 0.91002998E+02  0.14717E+05
 0.91053001E+02  0.15136E+05
 0.91102997E+02  0.15294E+05
 0.91153000E+02  0.14994E+05
 0.91203003E+02  0.14494E+05
 0.91252998E+02  0.14142E+05
 0.91303001E+02  0.14275E+05
 0.91352997E+02  0.14559E+05
 0.91403000E+02  0.14598E+05
 0.91453003E+02  0.14678E+05
 0.91502998E+02  0.14891E+05
 0.91553001E+02  0.15102E+05
 0.91602997E+02  0.14912E+05
 0.91653000E+02  0.14643E+05
 0.91703003E+02  0.14689E+05
 0.91752998E+02  0.15109E+05
 0.91803001E+02  0.15442E+05
 0.91852997E+02  0.15186E+05
 0.91903000E+02  0.14561E+05
 0.91953003E+02  0.14282E+05
 0.92002998E+02  0.14660E+05
 0.92053001E+02  0.15031E+05
 0.92102997E+02  0.15131E+05
 0.92153000E+02  0.14969E+05
 0.92203003E+02  0.14799E+05
 0.92252998E+02  0.14647E+05
 0.92303001E+02  0.14736E+05
 0.92352997E+02  0.15067E+05
 0.92403000E+02  0.15307E+05
 0.92453003E+02  0.15486E+05
 0.92502998E+02  0.15361E+05
 0.92553001E+02  0.15181E+05
 0.92602997E+02  0.15133E+05
 0.92653000E+02  0.14841E+05
 0.92703003E+02  0.14693E+05
 0.92752998E+02  0.15045E+05
 0.92803001E+02  0.14915E+05
 0.92852997E+02  0.14887E+05
 0.92903000E+02  0.15121E+05
 0.92953003E+02  0.15126E+05
 0.93002998E+02  0.14889E+05
 0.93053001E+02  0.14654E+05
 0.93102997E+02  0.14922E+05
 0.93153000E+02  0.15121E+05
 0.93203003E+02  0.14764E+05
 0.93252998E+02  0.14285E+05
 0.93303001E+02  0.14416E+05
 0.93352997E+02  0.14806E+05
 0.93403000E+02  0.15148E+05
 0.93453003E+02  0.14821E+05
 0.93502998E+02  0.14300E+05
 0.93553001E+02  0.14521E+05
 0.93602997E+02  0.15098E+05
 0.93653000E+02  0.15163E+05
 0.93703003E+02  0.14633E+05
 0.93752998E+02  0.14291E+05
 0.93803001E+02  0.14376E+05
 0.93852997E+02  0.14975E+05
 0.93903000E+02  0.15509E+05
 0.93953003E+02  0.15359E+05
 0.94002998E+02  0.14976E+05
 0.94053001E+02  0.14619E+05
 0.94102997E+02  0.14503E+05
 0.94153000E+02  0.14636E+05
 0.94203003E+02  0.14914E+05
 0.94252998E+02  0.15154E+05
 0.94303001E+02  0.14989E+05
 0.94352997E+02  0.14623E+05
 0.94403000E+02  0.14216E+05
 0.94453003E+02  0.14513E+05
 0.94502998E+02  0.14977E+05
 0.94553001E+02  0.14997E+05
 0.94602997E+02  0.14880E+05
 0.94653000E+02  0.14723E+05
 0.94703003E+02  0.14937E+05
 0.94752998E+02  0.14870E+05
 0.94803001E+02  0.14729E+05
 0.94852997E+02  0.14873E+05
 0.94903000E+02  0.14895E+05
 0.94953003E+02  0.14847E+05
 0.95002998E+02  0.14799E+05
 0.95053001E+02  0.14424E+05
 0.95102997E+02  0.14233E+05
 0.95153000E+02  0.14358E+05
 0.95203003E+02  0.14681E+05
 0.95252998E+02  0.15294E+05
 0.95303001E+02  0.15279E+05
 0.95352997E+02  0.15017E+05
 0.95403000E+02  0.14957E+05
 0.95453003E+02  0.14942E+05
 0.95502998E+02  0.14953E+05
 0.95553001E+02  0.15101E+05
 0.95602997E+02  0.15217E+05
 0.95653000E+02  0.14884E+05
 0.95703003E+02  0.14442E+05
 0.95752998E+02  0.14648E+05
 0.95803001E+02  0.15006E+05
 0.95852997E+02  0.15294E+05
 0.95903000E+02  0.15476E+05
 0.95953003E+02  0.14910E+05
 0.96002998E+02  0.14408E+05
 0.96053001E+02  0.14545E+05
 0.96102997E+02  0.14983E+05
 0.96153000E+02  0.15157E+05
 0.96203003E+02  0.15054E+05
 0.96252998E+02  0.14893E+05
 0.96303001E+02  0.14746E+05
 0.96352997E+02  0.14731E+05
 0.96403000E+02  0.14844E+05
 0.96453003E+02  0.15098E+05
 0.96502998E+02  0.15085E+05
 0.96553001E+02  0.14751E+05
 0.96602997E+02  0.14510E+05
 0.96653000E+02  0.14657E+05
 0.96703003E+02  0.14703E+05
 0.96752998E+02  0.14624E+05
 0.96803001E+02  0.14568E+05
 0.96852997E+02  0.14688E+05
 0.96903000E+02  0.14961E+05
 0.96953003E+02  0.15018E+05
 0.97002998E+02  0.14778E+05
 0.97053001E+02  0.14616E+05
 0.97102997E+02  0.14903E+05
 0.97153000E+02  0.15109E+05
 0.97203003E+02  0.15125E+05
 0.97252998E+02  0.14726E+05
 0.97303001E+02  0.14548E+05
 0.97352997E+02  0.14666E+05
 0.97403000E+02  0.14698E+05
 0.97453003E+02  0.14600E+05
 0.97502998E+02  0.14529E+05
 0.97553001E+02  0.14893E+05
 0.97602997E+02  0.15153E+05
 0.97653000E+02  0.15011E+05
 0.97703003E+02  0.14823E+05
 0.97752998E+02  0.14911E+05
 0.97803001E+02  0.14701E+05
 0.97852997E+02  0.14522E+05
 0.97903000E+02  0.14720E+05
 0.97953003E+02  0.15189E+05
 0.98002998E+02  0.15281E+05
