-0.20000000E+01 -0.57540E+05
-0.19500000E+01 -0.58159E+05
-0.19000000E+01 -0.60694E+05
-0.18500000E+01 -0.63944E+05
-0.18000000E+01 -0.67262E+05
-0.17500000E+01 -0.70140E+05
-0.17000000E+01 -0.72877E+05
-0.16500001E+01 -0.75842E+05
-0.16000000E+01 -0.78733E+05
-0.15500000E+01 -0.81799E+05
-0.15000000E+01 -0.84413E+05
-0.14500000E+01 -0.86803E+05
-0.14000001E+01 -0.88912E+05
-0.13500000E+01 -0.90709E+05
-0.13000001E+01 -0.93140E+05
-0.12500000E+01 -0.95854E+05
-0.12000000E+01 -0.98978E+05
-0.11500001E+01 -0.10164E+06
-0.11000000E+01 -0.10335E+06
-0.10500001E+01 -0.10519E+06
-0.10000000E+01 -0.10670E+06
-0.95000005E+00 -0.10721E+06
-0.90000010E+00 -0.10738E+06
-0.85000002E+00 -0.10741E+06
-0.80000007E+00 -0.10647E+06
-0.75000012E+00 -0.10416E+06
-0.70000005E+00 -0.10041E+06
-0.65000010E+00 -0.95423E+05
-0.60000014E+00 -0.89750E+05
-0.55000007E+00 -0.83464E+05
-0.50000012E+00 -0.76536E+05
-0.45000005E+00 -0.68965E+05
-0.40000010E+00 -0.61222E+05
-0.35000014E+00 -0.53516E+05
-0.30000007E+00 -0.45297E+05
-0.25000012E+00 -0.37544E+05
-0.20000005E+00 -0.30102E+05
-0.15000010E+00 -0.23463E+05
-0.10000014E+00 -0.17462E+05
-0.50000072E-01 -0.12952E+05
-0.11920929E-06 -0.10504E+05
 0.49999952E-01 -0.98834E+04
 0.99999905E-01 -0.10167E+05
 0.14999986E+00 -0.12439E+05
 0.19999981E+00 -0.16166E+05
 0.24999976E+00 -0.20013E+05
 0.29999995E+00 -0.26254E+05
 0.34999990E+00 -0.28327E+05
 0.39999986E+00 -0.36411E+05
 0.44999981E+00 -0.44400E+05
 0.49999976E+00 -0.48784E+05
 0.54999995E+00 -0.55282E+05
 0.59999990E+00 -0.58856E+05
 0.64999986E+00 -0.65275E+05
 0.69999981E+00 -0.68044E+05
 0.74999976E+00 -0.72669E+05
 0.79999971E+00 -0.79026E+05
 0.84999990E+00 -0.84246E+05
 0.89999986E+00 -0.88487E+05
 0.94999981E+00 -0.91616E+05
 0.99999976E+00 -0.95616E+05
 0.10499997E+01 -0.98038E+05
 0.10999999E+01 -0.10062E+06
 0.11499999E+01 -0.10303E+06
 0.11999998E+01 -0.10597E+06
 0.12499998E+01 -0.10850E+06
 0.12999997E+01 -0.11131E+06
 0.13499999E+01 -0.11396E+06
 0.13999999E+01 -0.11607E+06
 0.14499998E+01 -0.11776E+06
 0.14999998E+01 -0.11948E+06
 0.15499997E+01 -0.12192E+06
 0.15999999E+01 -0.12390E+06
 0.16499999E+01 -0.12596E+06
 0.16999998E+01 -0.12713E+06
 0.17499998E+01 -0.12733E+06
 0.17999997E+01 -0.12700E+06
 0.18499997E+01 -0.12502E+06
 0.18999999E+01 -0.12189E+06
 0.19499998E+01 -0.11651E+06
 0.19999998E+01 -0.10947E+06
 0.20499997E+01 -0.99641E+05
 0.20999999E+01 -0.86678E+05
 0.21499996E+01 -0.72959E+05
 0.21999998E+01 -0.57351E+05
 0.22499995E+01 -0.41057E+05
 0.22999997E+01 -0.24516E+05
 0.23499999E+01 -0.75539E+04
 0.23999996E+01  0.78877E+04
 0.24499998E+01  0.22765E+05
 0.24999995E+01  0.37102E+05
 0.25499997E+01  0.49404E+05
 0.25999999E+01  0.59683E+05
 0.26499996E+01  0.68251E+05
 0.26999998E+01  0.74691E+05
 0.27499995E+01  0.78142E+05
 0.27999997E+01  0.78988E+05
 0.28499999E+01  0.77684E+05
 0.28999996E+01  0.74122E+05
 0.29499998E+01  0.67754E+05
 0.29999995E+01  0.59851E+05
 0.30499997E+01  0.50367E+05
 0.30999999E+01  0.39479E+05
 0.31499996E+01  0.27781E+05
 0.31999998E+01  0.14731E+05
 0.32499995E+01  0.67244E+02
 0.32999997E+01 -0.16326E+05
 0.33499999E+01 -0.33373E+05
 0.33999996E+01 -0.50340E+05
 0.34499998E+01 -0.67303E+05
 0.34999995E+01 -0.84480E+05
 0.35499997E+01 -0.10119E+06
 0.35999994E+01 -0.11723E+06
 0.36499996E+01 -0.13180E+06
 0.36999998E+01 -0.14396E+06
 0.37499995E+01 -0.15384E+06
 0.37999997E+01 -0.16215E+06
 0.38499994E+01 -0.16899E+06
 0.38999996E+01 -0.17361E+06
 0.39499998E+01 -0.17676E+06
 0.39999995E+01 -0.17543E+06
 0.40499997E+01 -0.17604E+06
 0.40999994E+01 -0.17530E+06
 0.41499996E+01 -0.16808E+06
 0.41999998E+01 -0.16645E+06
 0.42499995E+01 -0.15709E+06
 0.42999997E+01 -0.15182E+06
 0.43499994E+01 -0.14557E+06
 0.43999996E+01 -0.13793E+06
 0.44499998E+01 -0.13312E+06
 0.44999995E+01 -0.12550E+06
 0.45499997E+01 -0.11721E+06
 0.45999994E+01 -0.11051E+06
 0.46499996E+01 -0.98902E+05
 0.46999998E+01 -0.93434E+05
 0.47499995E+01 -0.87176E+05
 0.47999997E+01 -0.73962E+05
 0.48499994E+01 -0.71096E+05
 0.48999996E+01 -0.81971E+05
 0.49499998E+01 -0.45414E+05
 0.49999995E+01  0.19528E+05
 0.50499997E+01 -0.33363E+04
 0.50999994E+01  0.37691E+06
 0.51499996E+01  0.18820E+06
 0.51999998E+01 -0.74552E+05
 0.52499995E+01  0.50316E+06
 0.52999997E+01  0.12156E+06
 0.53499994E+01  0.39804E+06
 0.53999996E+01  0.52223E+06
 0.54499993E+01  0.80275E+04
 0.54999995E+01  0.37025E+06
 0.55499997E+01 -0.13285E+06
 0.55999994E+01 -0.18235E+06
 0.56499996E+01 -0.17151E+06
 0.56999993E+01 -0.40192E+06
 0.57499995E+01  0.15928E+06
 0.57999997E+01 -0.23274E+06
 0.58499994E+01 -0.65889E+06
 0.58999996E+01 -0.11337E+06
 0.59499993E+01 -0.23708E+06
 0.59999995E+01 -0.55389E+06
 0.60499992E+01 -0.60384E+06
 0.60999994E+01 -0.11314E+07
 0.61499996E+01 -0.37305E+05
 0.61999998E+01 -0.89601E+05
 0.62499990E+01 -0.90585E+06
 0.62999992E+01 -0.20746E+06
 0.63499994E+01 -0.88448E+06
 0.63999996E+01  0.15586E+06
 0.64499998E+01  0.36294E+06
 0.64999990E+01 -0.12078E+06
 0.65499992E+01  0.66581E+06
 0.65999994E+01  0.29723E+05
 0.66499996E+01  0.91807E+05
 0.66999998E+01  0.90499E+06
 0.67499990E+01  0.25146E+06
 0.67999992E+01  0.17989E+06
 0.68499994E+01  0.51863E+06
 0.68999996E+01 -0.72265E+06
 0.69499998E+01 -0.20949E+06
 0.69999990E+01 -0.23216E+06
 0.70499992E+01 -0.33045E+06
 0.70999994E+01  0.11085E+07
 0.71499996E+01 -0.50150E+06
 0.71999998E+01 -0.13482E+07
 0.72499990E+01 -0.11177E+06
 0.72999992E+01 -0.11847E+07
 0.73499994E+01 -0.95747E+06
 0.73999996E+01 -0.24459E+07
 0.74499998E+01 -0.24183E+07
 0.74999990E+01 -0.19817E+07
 0.75499992E+01 -0.32957E+07
 0.75999994E+01 -0.31737E+07
 0.76499996E+01 -0.43572E+07
 0.76999998E+01 -0.46923E+07
 0.77499990E+01 -0.61727E+07
 0.77999992E+01 -0.57102E+07
 0.78499994E+01 -0.55865E+07
 0.78999996E+01 -0.65448E+07
 0.79499998E+01 -0.65725E+07
 0.79999990E+01 -0.67555E+07
 0.80499992E+01 -0.66093E+07
 0.80999994E+01 -0.67251E+07
 0.81499996E+01 -0.66332E+07
 0.81999998E+01 -0.66912E+07
 0.82499990E+01 -0.66457E+07
 0.82999992E+01 -0.66785E+07
 0.83499994E+01 -0.66562E+07
 0.83999996E+01 -0.66519E+07
 0.84499998E+01 -0.66694E+07
 0.84999990E+01 -0.66277E+07
 0.85499992E+01 -0.66639E+07
 0.85999994E+01 -0.66258E+07
 0.86499996E+01 -0.66710E+07
 0.86999998E+01 -0.66138E+07
 0.87499990E+01 -0.63196E+07
 0.87999992E+01 -0.62822E+07
 0.88499994E+01 -0.63905E+07
 0.88999996E+01 -0.66434E+07
 0.89499998E+01 -0.66301E+07
 0.89999990E+01 -0.66354E+07
 0.90499992E+01 -0.66452E+07
 0.90999994E+01 -0.66351E+07
 0.91499996E+01 -0.66482E+07
 0.91999989E+01 -0.66320E+07
 0.92499990E+01 -0.66489E+07
 0.92999992E+01 -0.66333E+07
 0.93499994E+01 -0.66499E+07
 0.93999996E+01 -0.66364E+07
 0.94499989E+01 -0.66462E+07
 0.94999990E+01 -0.66388E+07
 0.95499992E+01 -0.66443E+07
 0.95999994E+01 -0.66399E+07
 0.96499996E+01 -0.66444E+07
 0.96999989E+01 -0.66416E+07
 0.97499990E+01 -0.66447E+07
 0.97999992E+01 -0.66429E+07
 0.98499994E+01 -0.66414E+07
 0.98999996E+01 -0.66404E+07
 0.99499989E+01 -0.66398E+07
 0.99999990E+01 -0.66392E+07
 0.10049999E+02 -0.66426E+07
 0.10099999E+02 -0.66418E+07
 0.10150000E+02 -0.66422E+07
 0.10199999E+02 -0.66421E+07
 0.10249999E+02 -0.66424E+07
 0.10299999E+02 -0.66416E+07
 0.10349999E+02 -0.66409E+07
 0.10400000E+02 -0.66429E+07
 0.10449999E+02 -0.66408E+07
 0.10499999E+02 -0.66429E+07
 0.10549999E+02 -0.66425E+07
 0.10599999E+02 -0.66398E+07
 0.10650000E+02 -0.66419E+07
 0.10699999E+02 -0.66415E+07
 0.10749999E+02 -0.66404E+07
 0.10799999E+02 -0.66402E+07
 0.10849999E+02 -0.66396E+07
 0.10900000E+02 -0.66419E+07
 0.10949999E+02 -0.66422E+07
 0.10999999E+02 -0.66423E+07
 0.11049999E+02 -0.66425E+07
 0.11099999E+02 -0.66415E+07
 0.11150000E+02 -0.66426E+07
 0.11199999E+02 -0.66427E+07
 0.11249999E+02 -0.66427E+07
 0.11299999E+02 -0.66436E+07
 0.11349999E+02 -0.66428E+07
 0.11400000E+02 -0.66405E+07
 0.11449999E+02 -0.66405E+07
 0.11499999E+02 -0.66412E+07
 0.11549999E+02 -0.66418E+07
 0.11599999E+02 -0.66419E+07
 0.11650000E+02 -0.66411E+07
 0.11699999E+02 -0.66415E+07
 0.11749999E+02 -0.66413E+07
 0.11799999E+02 -0.66393E+07
 0.11849999E+02 -0.66385E+07
 0.11900000E+02 -0.66417E+07
 0.11949999E+02 -0.66412E+07
 0.11999999E+02 -0.66401E+07
 0.12049999E+02 -0.66417E+07
 0.12099999E+02 -0.66424E+07
 0.12150000E+02 -0.66423E+07
 0.12199999E+02 -0.66424E+07
 0.12249999E+02 -0.66426E+07
 0.12299999E+02 -0.66419E+07
 0.12349999E+02 -0.66429E+07
 0.12400000E+02 -0.66409E+07
 0.12449999E+02 -0.66414E+07
 0.12499999E+02 -0.66385E+07
 0.12549999E+02 -0.66402E+07
 0.12599999E+02 -0.66403E+07
 0.12649999E+02 -0.66395E+07
 0.12699999E+02 -0.66419E+07
 0.12749999E+02 -0.66396E+07
 0.12799999E+02 -0.66420E+07
 0.12849999E+02 -0.66406E+07
 0.12899999E+02 -0.66408E+07
 0.12949999E+02 -0.66400E+07
 0.12999999E+02 -0.66406E+07
 0.13049999E+02 -0.66404E+07
 0.13099999E+02 -0.66419E+07
 0.13149999E+02 -0.66430E+07
 0.13199999E+02 -0.66404E+07
 0.13249999E+02 -0.66405E+07
 0.13299999E+02 -0.66394E+07
 0.13349999E+02 -0.66385E+07
 0.13399999E+02 -0.66370E+07
 0.13449999E+02 -0.66368E+07
 0.13499999E+02 -0.66354E+07
 0.13549999E+02 -0.66360E+07
 0.13599999E+02 -0.66365E+07
 0.13649999E+02 -0.66390E+07
 0.13699999E+02 -0.66395E+07
 0.13749999E+02 -0.66403E+07
 0.13799999E+02 -0.66398E+07
 0.13849999E+02 -0.66376E+07
 0.13899999E+02 -0.66368E+07
 0.13949999E+02 -0.66366E+07
 0.13999999E+02 -0.66407E+07
 0.14049999E+02 -0.66371E+07
 0.14099998E+02 -0.66390E+07
 0.14150000E+02 -0.66385E+07
 0.14199999E+02 -0.66340E+07
 0.14249998E+02 -0.66380E+07
 0.14299999E+02 -0.66403E+07
 0.14349998E+02 -0.66367E+07
 0.14400000E+02 -0.66374E+07
 0.14449999E+02 -0.66415E+07
 0.14499998E+02 -0.66384E+07
 0.14549999E+02 -0.66382E+07
 0.14599998E+02 -0.66371E+07
 0.14650000E+02 -0.66383E+07
 0.14699999E+02 -0.66397E+07
 0.14749998E+02 -0.66356E+07
 0.14799999E+02 -0.66361E+07
 0.14849998E+02 -0.66363E+07
 0.14900000E+02 -0.66384E+07
 0.14949999E+02 -0.66376E+07
 0.14999998E+02 -0.66409E+07
 0.15049999E+02 -0.66419E+07
 0.15099998E+02 -0.66338E+07
 0.15150000E+02 -0.66346E+07
 0.15199999E+02 -0.66353E+07
 0.15249998E+02 -0.66362E+07
 0.15299999E+02 -0.66371E+07
 0.15349998E+02 -0.66384E+07
 0.15400000E+02 -0.66376E+07
 0.15449999E+02 -0.66362E+07
 0.15499998E+02 -0.66376E+07
 0.15549999E+02 -0.66371E+07
 0.15599998E+02 -0.66359E+07
 0.15650000E+02 -0.66344E+07
 0.15699999E+02 -0.66356E+07
 0.15749998E+02 -0.66349E+07
 0.15799999E+02 -0.66334E+07
 0.15849998E+02 -0.66362E+07
 0.15900000E+02 -0.66360E+07
 0.15949999E+02 -0.66351E+07
 0.15999998E+02 -0.66366E+07
 0.16049999E+02 -0.66367E+07
 0.16099998E+02 -0.66366E+07
 0.16150000E+02 -0.66359E+07
 0.16199999E+02 -0.66362E+07
 0.16249998E+02 -0.66352E+07
 0.16299999E+02 -0.66340E+07
 0.16349998E+02 -0.66343E+07
 0.16400000E+02 -0.66368E+07
 0.16449999E+02 -0.66349E+07
 0.16499998E+02 -0.66354E+07
 0.16549999E+02 -0.66363E+07
 0.16599998E+02 -0.66343E+07
 0.16650000E+02 -0.66350E+07
 0.16699999E+02 -0.66340E+07
 0.16749998E+02 -0.66351E+07
 0.16799999E+02 -0.66348E+07
 0.16849998E+02 -0.66342E+07
 0.16900000E+02 -0.66337E+07
 0.16949999E+02 -0.66338E+07
 0.16999998E+02 -0.66342E+07
 0.17049999E+02 -0.66340E+07
 0.17099998E+02 -0.66330E+07
 0.17150000E+02 -0.66333E+07
 0.17199999E+02 -0.66366E+07
 0.17249998E+02 -0.66368E+07
 0.17299999E+02 -0.66365E+07
 0.17349998E+02 -0.66360E+07
 0.17400000E+02 -0.66348E+07
 0.17449999E+02 -0.66343E+07
 0.17499998E+02 -0.66349E+07
 0.17549999E+02 -0.66361E+07
 0.17599998E+02 -0.66350E+07
 0.17650000E+02 -0.66358E+07
 0.17699999E+02 -0.66362E+07
 0.17749998E+02 -0.66352E+07
 0.17799999E+02 -0.66359E+07
 0.17849998E+02 -0.66344E+07
 0.17900000E+02 -0.66343E+07
 0.17949999E+02 -0.66352E+07
 0.17999998E+02 -0.66364E+07
 0.18049999E+02 -0.66368E+07
 0.18099998E+02 -0.66346E+07
 0.18150000E+02 -0.66365E+07
 0.18199999E+02 -0.66382E+07
 0.18249998E+02 -0.66380E+07
 0.18299999E+02 -0.66382E+07
 0.18349998E+02 -0.66359E+07
 0.18400000E+02 -0.66354E+07
 0.18449999E+02 -0.66331E+07
 0.18499998E+02 -0.66367E+07
 0.18549999E+02 -0.66324E+07
 0.18599998E+02 -0.66359E+07
 0.18650000E+02 -0.66316E+07
 0.18699999E+02 -0.66373E+07
 0.18749998E+02 -0.66318E+07
 0.18799999E+02 -0.66381E+07
 0.18849998E+02 -0.66323E+07
 0.18900000E+02 -0.66377E+07
 0.18949999E+02 -0.66307E+07
 0.18999998E+02 -0.66367E+07
 0.19049999E+02 -0.66320E+07
 0.19099998E+02 -0.66395E+07
 0.19150000E+02 -0.66054E+07
 0.19199999E+02 -0.62730E+07
 0.19249998E+02 -0.62998E+07
 0.19299999E+02 -0.65063E+07
 0.19349998E+02 -0.65975E+07
 0.19400000E+02 -0.66519E+07
 0.19449999E+02 -0.66240E+07
 0.19499998E+02 -0.66429E+07
 0.19549999E+02 -0.66291E+07
 0.19599998E+02 -0.66402E+07
 0.19650000E+02 -0.66315E+07
 0.19699999E+02 -0.66358E+07
 0.19749998E+02 -0.66314E+07
 0.19799999E+02 -0.66342E+07
 0.19849998E+02 -0.66335E+07
 0.19900000E+02 -0.66338E+07
 0.19949999E+02 -0.66351E+07
 0.19999998E+02 -0.66343E+07
 0.20049999E+02 -0.66351E+07
 0.20099998E+02 -0.66332E+07
 0.20150000E+02 -0.66355E+07
 0.20199999E+02 -0.66350E+07
 0.20249998E+02 -0.66360E+07
 0.20299999E+02 -0.66324E+07
 0.20349998E+02 -0.66317E+07
 0.20399998E+02 -0.66326E+07
 0.20449999E+02 -0.66344E+07
 0.20499998E+02 -0.66357E+07
 0.20549999E+02 -0.66359E+07
 0.20599998E+02 -0.66356E+07
 0.20649998E+02 -0.66345E+07
 0.20699999E+02 -0.66353E+07
 0.20749998E+02 -0.66354E+07
 0.20799999E+02 -0.66350E+07
 0.20849998E+02 -0.66347E+07
 0.20899998E+02 -0.66326E+07
 0.20949999E+02 -0.66317E+07
 0.20999998E+02 -0.66324E+07
 0.21049999E+02 -0.66333E+07
 0.21099998E+02 -0.66335E+07
 0.21149998E+02 -0.66346E+07
 0.21199999E+02 -0.66353E+07
 0.21249998E+02 -0.66355E+07
 0.21299999E+02 -0.66354E+07
 0.21349998E+02 -0.66360E+07
 0.21399998E+02 -0.66360E+07
 0.21449999E+02 -0.66362E+07
 0.21499998E+02 -0.66358E+07
 0.21549999E+02 -0.66343E+07
 0.21599998E+02 -0.66334E+07
 0.21649998E+02 -0.66333E+07
 0.21699999E+02 -0.66336E+07
 0.21749998E+02 -0.66327E+07
 0.21799999E+02 -0.66337E+07
 0.21849998E+02 -0.66329E+07
 0.21899998E+02 -0.66329E+07
 0.21949999E+02 -0.66341E+07
 0.21999998E+02 -0.66326E+07
 0.22049999E+02 -0.66328E+07
 0.22099998E+02 -0.66329E+07
 0.22149998E+02 -0.66334E+07
 0.22199999E+02 -0.66359E+07
 0.22249998E+02 -0.66381E+07
 0.22299999E+02 -0.66366E+07
 0.22349998E+02 -0.66349E+07
 0.22399998E+02 -0.66352E+07
 0.22449999E+02 -0.66357E+07
 0.22499998E+02 -0.66375E+07
 0.22549999E+02 -0.66378E+07
 0.22599998E+02 -0.66367E+07
 0.22649998E+02 -0.66360E+07
 0.22699999E+02 -0.66358E+07
 0.22749998E+02 -0.66348E+07
 0.22799999E+02 -0.66347E+07
 0.22849998E+02 -0.66345E+07
 0.22899998E+02 -0.66333E+07
 0.22949999E+02 -0.66306E+07
 0.22999998E+02 -0.66309E+07
 0.23049999E+02 -0.66309E+07
 0.23099998E+02 -0.66382E+07
 0.23149998E+02 -0.66425E+07
 0.23199999E+02 -0.66520E+07
 0.23249998E+02 -0.66536E+07
 0.23299999E+02 -0.66580E+07
 0.23349998E+02 -0.66540E+07
 0.23399998E+02 -0.66539E+07
 0.23449999E+02 -0.66523E+07
 0.23499998E+02 -0.66550E+07
 0.23549999E+02 -0.66568E+07
 0.23599998E+02 -0.66534E+07
 0.23649998E+02 -0.66570E+07
 0.23699999E+02 -0.66441E+07
 0.23749998E+02 -0.66577E+07
 0.23799999E+02 -0.66392E+07
 0.23849998E+02 -0.66684E+07
 0.23899998E+02 -0.66256E+07
 0.23949999E+02 -0.66906E+07
 0.23999998E+02 -0.60570E+07
 0.24049999E+02 -0.47345E+07
 0.24099998E+02 -0.34776E+07
 0.24149998E+02 -0.23634E+07
 0.24199999E+02 -0.21116E+07
 0.24249998E+02 -0.22504E+07
 0.24299999E+02 -0.25687E+07
 0.24349998E+02 -0.30445E+07
 0.24399998E+02 -0.32372E+07
 0.24449999E+02 -0.30687E+07
 0.24499998E+02 -0.28527E+07
 0.24549999E+02 -0.28532E+07
 0.24599998E+02 -0.34013E+07
 0.24649998E+02 -0.39438E+07
 0.24699999E+02 -0.42492E+07
 0.24749998E+02 -0.43788E+07
 0.24799999E+02 -0.41518E+07
 0.24849998E+02 -0.45149E+07
 0.24899998E+02 -0.50302E+07
 0.24949999E+02 -0.60356E+07
 0.24999998E+02 -0.67194E+07
 0.25049999E+02 -0.66288E+07
 0.25099998E+02 -0.66905E+07
 0.25149998E+02 -0.66556E+07
 0.25199999E+02 -0.66762E+07
 0.25249998E+02 -0.66593E+07
 0.25299999E+02 -0.66647E+07
 0.25349998E+02 -0.66617E+07
 0.25399998E+02 -0.66624E+07
 0.25449999E+02 -0.66688E+07
 0.25499998E+02 -0.66635E+07
 0.25549999E+02 -0.62498E+07
 0.25599998E+02 -0.58311E+07
 0.25649998E+02 -0.62087E+07
 0.25699999E+02 -0.66542E+07
 0.25749998E+02 -0.66762E+07
 0.25799999E+02 -0.66323E+07
 0.25849998E+02 -0.61437E+07
 0.25899998E+02 -0.56053E+07
 0.25949999E+02 -0.52090E+07
 0.25999998E+02 -0.48227E+07
 0.26049999E+02 -0.47500E+07
 0.26099998E+02 -0.45794E+07
 0.26149998E+02 -0.42876E+07
 0.26199999E+02 -0.39978E+07
 0.26249998E+02 -0.37232E+07
 0.26299999E+02 -0.34877E+07
 0.26349998E+02 -0.32623E+07
 0.26399998E+02 -0.28314E+07
 0.26449999E+02 -0.23819E+07
 0.26499998E+02 -0.24584E+07
 0.26549999E+02 -0.24691E+07
 0.26599998E+02 -0.21962E+07
 0.26649998E+02 -0.21226E+07
 0.26699999E+02 -0.20173E+07
 0.26749998E+02 -0.21737E+07
 0.26799999E+02 -0.27619E+07
 0.26849998E+02 -0.34555E+07
 0.26899998E+02 -0.38473E+07
 0.26949999E+02 -0.37079E+07
 0.26999998E+02 -0.32072E+07
 0.27049997E+02 -0.25514E+07
 0.27099998E+02 -0.24806E+07
 0.27149998E+02 -0.31012E+07
 0.27199999E+02 -0.40997E+07
 0.27249998E+02 -0.49906E+07
 0.27299997E+02 -0.55603E+07
 0.27349998E+02 -0.60502E+07
 0.27399998E+02 -0.64222E+07
 0.27449999E+02 -0.66770E+07
 0.27499998E+02 -0.66981E+07
 0.27549997E+02 -0.66653E+07
 0.27599998E+02 -0.67145E+07
 0.27649998E+02 -0.61266E+07
 0.27699999E+02 -0.51687E+07
 0.27749998E+02 -0.41919E+07
 0.27799997E+02 -0.31276E+07
 0.27849998E+02 -0.25007E+07
 0.27899998E+02 -0.22324E+07
 0.27949999E+02 -0.21368E+07
 0.27999998E+02 -0.19387E+07
 0.28049997E+02 -0.18152E+07
 0.28099998E+02 -0.16007E+07
 0.28149998E+02 -0.14980E+07
 0.28199999E+02 -0.14716E+07
 0.28249998E+02 -0.13657E+07
 0.28299997E+02 -0.16060E+07
 0.28349998E+02 -0.18670E+07
 0.28399998E+02 -0.21211E+07
 0.28449999E+02 -0.21761E+07
 0.28499998E+02 -0.20014E+07
 0.28549997E+02 -0.20249E+07
 0.28599998E+02 -0.24190E+07
 0.28649998E+02 -0.29303E+07
 0.28699999E+02 -0.35175E+07
 0.28749998E+02 -0.39692E+07
 0.28799997E+02 -0.40891E+07
 0.28849998E+02 -0.40116E+07
 0.28899998E+02 -0.37637E+07
 0.28949999E+02 -0.37453E+07
 0.28999998E+02 -0.40229E+07
 0.29049997E+02 -0.43237E+07
 0.29099998E+02 -0.44785E+07
 0.29149998E+02 -0.44590E+07
 0.29199999E+02 -0.42459E+07
 0.29249998E+02 -0.39280E+07
 0.29299997E+02 -0.37332E+07
 0.29349998E+02 -0.36132E+07
 0.29399998E+02 -0.32480E+07
 0.29449999E+02 -0.23333E+07
 0.29499998E+02 -0.11640E+07
 0.29549997E+02 -0.24356E+06
 0.29599998E+02  0.56584E+06
 0.29649998E+02  0.13981E+07
 0.29699999E+02  0.20246E+07
 0.29749998E+02  0.23377E+07
 0.29799997E+02  0.24614E+07
 0.29849998E+02  0.25536E+07
 0.29899998E+02  0.24233E+07
 0.29949999E+02  0.19876E+07
 0.29999998E+02  0.15133E+07
 0.30049999E+02  0.11290E+07
 0.30099998E+02  0.60700E+06
 0.30149998E+02 -0.30771E+06
 0.30199997E+02 -0.10603E+07
 0.30249996E+02 -0.13610E+07
 0.30299999E+02 -0.16822E+07
 0.30349998E+02 -0.22207E+07
 0.30399998E+02 -0.27263E+07
 0.30449997E+02 -0.31229E+07
 0.30499996E+02 -0.32702E+07
 0.30549999E+02 -0.30646E+07
 0.30599998E+02 -0.28435E+07
 0.30649998E+02 -0.26573E+07
 0.30699997E+02 -0.27447E+07
 0.30749996E+02 -0.30433E+07
 0.30799999E+02 -0.30857E+07
 0.30849998E+02 -0.26915E+07
 0.30899998E+02 -0.19436E+07
 0.30949997E+02 -0.11327E+07
 0.30999996E+02 -0.42518E+06
 0.31049999E+02  0.30182E+06
 0.31099998E+02  0.10128E+07
 0.31149998E+02  0.15743E+07
 0.31199997E+02  0.20873E+07
 0.31249996E+02  0.23726E+07
 0.31299999E+02  0.21205E+07
 0.31349998E+02  0.14356E+07
 0.31399998E+02  0.47159E+06
 0.31449997E+02 -0.72134E+06
 0.31499996E+02 -0.17948E+07
 0.31549999E+02 -0.24469E+07
 0.31599998E+02 -0.25227E+07
 0.31649998E+02 -0.22781E+07
 0.31699997E+02 -0.19701E+07
 0.31749996E+02 -0.15379E+07
 0.31799999E+02 -0.10337E+07
 0.31849998E+02 -0.37732E+06
 0.31899998E+02  0.19001E+06
 0.31949997E+02  0.59907E+06
 0.31999996E+02  0.79009E+06
 0.32049999E+02  0.63986E+06
 0.32099998E+02  0.27871E+06
 0.32149998E+02  0.93593E+05
 0.32199997E+02  0.22197E+06
 0.32249996E+02  0.41528E+06
 0.32299999E+02  0.79315E+06
 0.32349998E+02  0.13980E+07
 0.32399998E+02  0.20788E+07
 0.32449997E+02  0.26472E+07
 0.32499996E+02  0.31246E+07
 0.32549999E+02  0.35772E+07
 0.32599998E+02  0.38267E+07
 0.32649998E+02  0.37406E+07
 0.32699997E+02  0.33369E+07
 0.32749996E+02  0.26686E+07
 0.32799999E+02  0.20659E+07
 0.32849998E+02  0.15951E+07
 0.32899998E+02  0.13172E+07
 0.32949997E+02  0.11590E+07
 0.32999996E+02  0.89668E+06
 0.33049999E+02  0.67030E+06
 0.33099998E+02  0.46014E+06
 0.33149998E+02  0.28851E+06
 0.33199997E+02  0.19592E+06
 0.33249996E+02  0.90920E+05
 0.33299999E+02 -0.10979E+06
 0.33349998E+02 -0.40001E+06
 0.33399998E+02 -0.66831E+06
 0.33449997E+02 -0.74885E+06
 0.33499996E+02 -0.70275E+06
 0.33549999E+02 -0.48342E+06
 0.33599998E+02 -0.14822E+06
 0.33649998E+02  0.21047E+05
 0.33699997E+02  0.17133E+06
 0.33749996E+02  0.32533E+06
 0.33799999E+02  0.27094E+06
 0.33849998E+02  0.37757E+05
 0.33899998E+02  0.28648E+05
 0.33949997E+02  0.24987E+06
 0.33999996E+02  0.36743E+06
 0.34049999E+02  0.46654E+06
 0.34099998E+02  0.59290E+06
 0.34149998E+02  0.62562E+06
 0.34199997E+02  0.62222E+06
 0.34249996E+02  0.77710E+06
 0.34299999E+02  0.11516E+07
 0.34349998E+02  0.14851E+07
 0.34399998E+02  0.16532E+07
 0.34449997E+02  0.18538E+07
 0.34499996E+02  0.21244E+07
 0.34549999E+02  0.25213E+07
 0.34599998E+02  0.30771E+07
 0.34649998E+02  0.37225E+07
 0.34699997E+02  0.44760E+07
 0.34749996E+02  0.51063E+07
 0.34799999E+02  0.55122E+07
 0.34849998E+02  0.58125E+07
 0.34899998E+02  0.59837E+07
 0.34949997E+02  0.59104E+07
 0.34999996E+02  0.55484E+07
 0.35049999E+02  0.51122E+07
 0.35099998E+02  0.44948E+07
 0.35149998E+02  0.36275E+07
 0.35199997E+02  0.28544E+07
 0.35249996E+02  0.22560E+07
 0.35299999E+02  0.17031E+07
 0.35349998E+02  0.12587E+07
 0.35399998E+02  0.10574E+07
 0.35449997E+02  0.90187E+06
 0.35499996E+02  0.59304E+06
 0.35549999E+02  0.48684E+06
 0.35599998E+02  0.82136E+06
 0.35649998E+02  0.12255E+07
 0.35699997E+02  0.15207E+07
 0.35749996E+02  0.18272E+07
 0.35799999E+02  0.21636E+07
 0.35849998E+02  0.23883E+07
 0.35899998E+02  0.24425E+07
 0.35949997E+02  0.24035E+07
 0.35999996E+02  0.24042E+07
 0.36049999E+02  0.23199E+07
 0.36099998E+02  0.20683E+07
 0.36149998E+02  0.18731E+07
 0.36199997E+02  0.17586E+07
 0.36249996E+02  0.17083E+07
 0.36299999E+02  0.16444E+07
 0.36349998E+02  0.16129E+07
 0.36399998E+02  0.16867E+07
 0.36449997E+02  0.18876E+07
 0.36499996E+02  0.22798E+07
 0.36549999E+02  0.27996E+07
 0.36599998E+02  0.33265E+07
 0.36649998E+02  0.36010E+07
 0.36699997E+02  0.37146E+07
 0.36749996E+02  0.38392E+07
 0.36799999E+02  0.38064E+07
 0.36849998E+02  0.36073E+07
 0.36899998E+02  0.33224E+07
 0.36949997E+02  0.30156E+07
 0.36999996E+02  0.28099E+07
 0.37049999E+02  0.27081E+07
 0.37099998E+02  0.26938E+07
 0.37149998E+02  0.28734E+07
 0.37199997E+02  0.32009E+07
 0.37249996E+02  0.34889E+07
 0.37299999E+02  0.37679E+07
 0.37349998E+02  0.40514E+07
 0.37399998E+02  0.42761E+07
 0.37449997E+02  0.44337E+07
 0.37499996E+02  0.44186E+07
 0.37549999E+02  0.44071E+07
 0.37599998E+02  0.42449E+07
 0.37649998E+02  0.38019E+07
 0.37699997E+02  0.33612E+07
 0.37749996E+02  0.30136E+07
 0.37799999E+02  0.27714E+07
 0.37849998E+02  0.27148E+07
 0.37899998E+02  0.28341E+07
 0.37949997E+02  0.30569E+07
 0.37999996E+02  0.32786E+07
 0.38049999E+02  0.34282E+07
 0.38099998E+02  0.36742E+07
 0.38149998E+02  0.38252E+07
 0.38199997E+02  0.37216E+07
 0.38249996E+02  0.35038E+07
 0.38299999E+02  0.32322E+07
 0.38349998E+02  0.28346E+07
 0.38399998E+02  0.23516E+07
 0.38449997E+02  0.19058E+07
 0.38499996E+02  0.14796E+07
 0.38549999E+02  0.10965E+07
 0.38599998E+02  0.80132E+06
 0.38649998E+02  0.64348E+06
 0.38699997E+02  0.71791E+06
 0.38749996E+02  0.96059E+06
 0.38799999E+02  0.12478E+07
 0.38849998E+02  0.15287E+07
 0.38899998E+02  0.17860E+07
 0.38949997E+02  0.20734E+07
 0.38999996E+02  0.22446E+07
 0.39049999E+02  0.22113E+07
 0.39099998E+02  0.20796E+07
 0.39149998E+02  0.19917E+07
 0.39199997E+02  0.20520E+07
 0.39249996E+02  0.22465E+07
 0.39299999E+02  0.25524E+07
 0.39349998E+02  0.29201E+07
 0.39399998E+02  0.34085E+07
 0.39449997E+02  0.39671E+07
 0.39499996E+02  0.44762E+07
 0.39549999E+02  0.50224E+07
 0.39599998E+02  0.56543E+07
 0.39649998E+02  0.63678E+07
 0.39699997E+02  0.67094E+07
 0.39749996E+02  0.66893E+07
 0.39799999E+02  0.66944E+07
 0.39849998E+02  0.66798E+07
 0.39899998E+02  0.66826E+07
 0.39949997E+02  0.66876E+07
 0.39999996E+02  0.66843E+07
 0.40049999E+02  0.66900E+07
 0.40099998E+02  0.66818E+07
 0.40149998E+02  0.66998E+07
 0.40199997E+02  0.66014E+07
 0.40249996E+02  0.63648E+07
 0.40299999E+02  0.61669E+07
 0.40349998E+02  0.59215E+07
 0.40399998E+02  0.56054E+07
 0.40449997E+02  0.51874E+07
 0.40499996E+02  0.47551E+07
 0.40549999E+02  0.44427E+07
 0.40599998E+02  0.42114E+07
 0.40649998E+02  0.40829E+07
 0.40699997E+02  0.40564E+07
 0.40749996E+02  0.41328E+07
 0.40799999E+02  0.43506E+07
 0.40849998E+02  0.46082E+07
 0.40899998E+02  0.48345E+07
 0.40949997E+02  0.50120E+07
 0.40999996E+02  0.50143E+07
 0.41049999E+02  0.48951E+07
 0.41099998E+02  0.47263E+07
 0.41149998E+02  0.45374E+07
 0.41199997E+02  0.43109E+07
 0.41249996E+02  0.40293E+07
 0.41299999E+02  0.37892E+07
 0.41349998E+02  0.35756E+07
 0.41399998E+02  0.34186E+07
 0.41449997E+02  0.33190E+07
 0.41499996E+02  0.33848E+07
 0.41549999E+02  0.35357E+07
 0.41599998E+02  0.36759E+07
 0.41649998E+02  0.39192E+07
 0.41699997E+02  0.42446E+07
 0.41749996E+02  0.46476E+07
 0.41799999E+02  0.50809E+07
 0.41849998E+02  0.54762E+07
 0.41899998E+02  0.57195E+07
 0.41949997E+02  0.57727E+07
 0.41999996E+02  0.56652E+07
 0.42049999E+02  0.54849E+07
 0.42099998E+02  0.53181E+07
 0.42149998E+02  0.51282E+07
 0.42199997E+02  0.49528E+07
 0.42249996E+02  0.49051E+07
 0.42299999E+02  0.49246E+07
 0.42349998E+02  0.49900E+07
 0.42399998E+02  0.52557E+07
 0.42449997E+02  0.56540E+07
 0.42499996E+02  0.59905E+07
 0.42549999E+02  0.61806E+07
 0.42599998E+02  0.61862E+07
 0.42649998E+02  0.60218E+07
 0.42699997E+02  0.57734E+07
 0.42749996E+02  0.55904E+07
 0.42799995E+02  0.54675E+07
 0.42849998E+02  0.52625E+07
 0.42899998E+02  0.49748E+07
 0.42949997E+02  0.47098E+07
 0.42999996E+02  0.44563E+07
 0.43049995E+02  0.42607E+07
 0.43099998E+02  0.42119E+07
 0.43149998E+02  0.42176E+07
 0.43199997E+02  0.41958E+07
 0.43249996E+02  0.41483E+07
 0.43299995E+02  0.41077E+07
 0.43349998E+02  0.41007E+07
 0.43399998E+02  0.41233E+07
 0.43449997E+02  0.41875E+07
 0.43499996E+02  0.42181E+07
 0.43549995E+02  0.41972E+07
 0.43599998E+02  0.42464E+07
 0.43649998E+02  0.42801E+07
 0.43699997E+02  0.42632E+07
 0.43749996E+02  0.42467E+07
 0.43799995E+02  0.42807E+07
 0.43849998E+02  0.44097E+07
 0.43899998E+02  0.45544E+07
 0.43949997E+02  0.47153E+07
 0.43999996E+02  0.48949E+07
 0.44049995E+02  0.50613E+07
 0.44099998E+02  0.51859E+07
 0.44149998E+02  0.52927E+07
 0.44199997E+02  0.54396E+07
 0.44249996E+02  0.56618E+07
 0.44299995E+02  0.59129E+07
 0.44349998E+02  0.60961E+07
 0.44399998E+02  0.62299E+07
 0.44449997E+02  0.63099E+07
 0.44499996E+02  0.63522E+07
 0.44549995E+02  0.63866E+07
 0.44599998E+02  0.63953E+07
 0.44649998E+02  0.64016E+07
 0.44699997E+02  0.63711E+07
 0.44749996E+02  0.62700E+07
 0.44799995E+02  0.61433E+07
 0.44849998E+02  0.60461E+07
 0.44899998E+02  0.60740E+07
 0.44949997E+02  0.62048E+07
 0.44999996E+02  0.63458E+07
 0.45049995E+02  0.64578E+07
 0.45099998E+02  0.65632E+07
 0.45149998E+02  0.66536E+07
 0.45199997E+02  0.66634E+07
 0.45249996E+02  0.66575E+07
 0.45299995E+02  0.66583E+07
 0.45349998E+02  0.66597E+07
 0.45399998E+02  0.66600E+07
 0.45449997E+02  0.66699E+07
 0.45499996E+02  0.65601E+07
 0.45549995E+02  0.63218E+07
 0.45599998E+02  0.60826E+07
 0.45649998E+02  0.58935E+07
 0.45699997E+02  0.58497E+07
 0.45749996E+02  0.59207E+07
 0.45799995E+02  0.60519E+07
 0.45849998E+02  0.62048E+07
 0.45899998E+02  0.63733E+07
 0.45949997E+02  0.65094E+07
 0.45999996E+02  0.66152E+07
 0.46049995E+02  0.66642E+07
 0.46099998E+02  0.66751E+07
 0.46149998E+02  0.66306E+07
 0.46199997E+02  0.64424E+07
 0.46249996E+02  0.62040E+07
 0.46299995E+02  0.58892E+07
 0.46349998E+02  0.55528E+07
 0.46399998E+02  0.52820E+07
 0.46449997E+02  0.51048E+07
 0.46499996E+02  0.50186E+07
 0.46549995E+02  0.50091E+07
 0.46599998E+02  0.51145E+07
 0.46649998E+02  0.51936E+07
 0.46699997E+02  0.51967E+07
 0.46749996E+02  0.51565E+07
 0.46799995E+02  0.50894E+07
 0.46849998E+02  0.50971E+07
 0.46899998E+02  0.51968E+07
 0.46949997E+02  0.53178E+07
 0.46999996E+02  0.53867E+07
 0.47049995E+02  0.53734E+07
 0.47099998E+02  0.52649E+07
 0.47149998E+02  0.50850E+07
 0.47199997E+02  0.49637E+07
 0.47249996E+02  0.49477E+07
 0.47299995E+02  0.49493E+07
 0.47349998E+02  0.49383E+07
 0.47399998E+02  0.49066E+07
 0.47449997E+02  0.48510E+07
 0.47499996E+02  0.48035E+07
 0.47549995E+02  0.47868E+07
 0.47599998E+02  0.48116E+07
 0.47649998E+02  0.48572E+07
 0.47699997E+02  0.49128E+07
 0.47749996E+02  0.49556E+07
 0.47799995E+02  0.49438E+07
 0.47849998E+02  0.49304E+07
 0.47899998E+02  0.49344E+07
 0.47949997E+02  0.49083E+07
 0.47999996E+02  0.48513E+07
 0.48049995E+02  0.47999E+07
 0.48099998E+02  0.47596E+07
 0.48149998E+02  0.47770E+07
 0.48199997E+02  0.48561E+07
 0.48249996E+02  0.50256E+07
 0.48299995E+02  0.52842E+07
 0.48349998E+02  0.54981E+07
 0.48399998E+02  0.56440E+07
 0.48449997E+02  0.57822E+07
 0.48499996E+02  0.59752E+07
 0.48549995E+02  0.62012E+07
 0.48599998E+02  0.65201E+07
 0.48649998E+02  0.66790E+07
 0.48699997E+02  0.66590E+07
 0.48749996E+02  0.66705E+07
 0.48799995E+02  0.66653E+07
 0.48849998E+02  0.66707E+07
 0.48899998E+02  0.66683E+07
 0.48949997E+02  0.66705E+07
 0.48999996E+02  0.66636E+07
 0.49049995E+02  0.66595E+07
 0.49099998E+02  0.66597E+07
 0.49149998E+02  0.66584E+07
 0.49199997E+02  0.66575E+07
 0.49249996E+02  0.66568E+07
 0.49299995E+02  0.66552E+07
 0.49349998E+02  0.66630E+07
 0.49399998E+02  0.66633E+07
 0.49449997E+02  0.66675E+07
 0.49499996E+02  0.66590E+07
 0.49549995E+02  0.66735E+07
 0.49599998E+02  0.65528E+07
 0.49649998E+02  0.62652E+07
 0.49699997E+02  0.59716E+07
 0.49749996E+02  0.57027E+07
 0.49799995E+02  0.55251E+07
 0.49849998E+02  0.54138E+07
 0.49899998E+02  0.53528E+07
 0.49949997E+02  0.52815E+07
 0.49999996E+02  0.51961E+07
 0.50049995E+02  0.51250E+07
 0.50099998E+02  0.51134E+07
 0.50149998E+02  0.51879E+07
 0.50199997E+02  0.52910E+07
 0.50249996E+02  0.53861E+07
 0.50299995E+02  0.54448E+07
 0.50349998E+02  0.55067E+07
 0.50399998E+02  0.56107E+07
 0.50449997E+02  0.57965E+07
 0.50499996E+02  0.60323E+07
 0.50549995E+02  0.63262E+07
 0.50599998E+02  0.66098E+07
 0.50649998E+02  0.66732E+07
 0.50699997E+02  0.66581E+07
 0.50749996E+02  0.66663E+07
 0.50799995E+02  0.66605E+07
 0.50849998E+02  0.66642E+07
 0.50899998E+02  0.66644E+07
 0.50949997E+02  0.66632E+07
 0.50999996E+02  0.66707E+07
 0.51049995E+02  0.64827E+07
 0.51099998E+02  0.61842E+07
 0.51149998E+02  0.59444E+07
 0.51199997E+02  0.57611E+07
 0.51249996E+02  0.57241E+07
 0.51299995E+02  0.57925E+07
 0.51349998E+02  0.59544E+07
 0.51399998E+02  0.61608E+07
 0.51449997E+02  0.64198E+07
 0.51499996E+02  0.66285E+07
 0.51549995E+02  0.66730E+07
 0.51599998E+02  0.66606E+07
 0.51649998E+02  0.66682E+07
 0.51699997E+02  0.66581E+07
 0.51749996E+02  0.65708E+07
 0.51799995E+02  0.64292E+07
 0.51849998E+02  0.63082E+07
 0.51899998E+02  0.62387E+07
 0.51949997E+02  0.62390E+07
 0.51999996E+02  0.63090E+07
 0.52049995E+02  0.63472E+07
 0.52099998E+02  0.63189E+07
 0.52149998E+02  0.62365E+07
 0.52199997E+02  0.60971E+07
 0.52249996E+02  0.59382E+07
 0.52299995E+02  0.57860E+07
 0.52349998E+02  0.56453E+07
 0.52399998E+02  0.55676E+07
 0.52449997E+02  0.55432E+07
 0.52499996E+02  0.55754E+07
 0.52549995E+02  0.56706E+07
 0.52599998E+02  0.58510E+07
 0.52649998E+02  0.60878E+07
 0.52699997E+02  0.63784E+07
 0.52749996E+02  0.66338E+07
 0.52799995E+02  0.66627E+07
 0.52849998E+02  0.66543E+07
 0.52899998E+02  0.66607E+07
 0.52949997E+02  0.66555E+07
 0.52999996E+02  0.66546E+07
 0.53049995E+02  0.66496E+07
 0.53099998E+02  0.66554E+07
 0.53149998E+02  0.66539E+07
 0.53199997E+02  0.66593E+07
 0.53249996E+02  0.66584E+07
 0.53299995E+02  0.66611E+07
 0.53349998E+02  0.66600E+07
 0.53399998E+02  0.66596E+07
 0.53449997E+02  0.66588E+07
 0.53499996E+02  0.66554E+07
 0.53549995E+02  0.66568E+07
 0.53599998E+02  0.66518E+07
 0.53649998E+02  0.66659E+07
 0.53699997E+02  0.66537E+07
 0.53749996E+02  0.66771E+07
 0.53799995E+02  0.65056E+07
 0.53849998E+02  0.60977E+07
 0.53899998E+02  0.57382E+07
 0.53949997E+02  0.53936E+07
 0.53999996E+02  0.51053E+07
 0.54049995E+02  0.48605E+07
 0.54099998E+02  0.46501E+07
 0.54149998E+02  0.44668E+07
 0.54199997E+02  0.43587E+07
 0.54249996E+02  0.43661E+07
 0.54299995E+02  0.44699E+07
 0.54349998E+02  0.46520E+07
 0.54399998E+02  0.48384E+07
 0.54449997E+02  0.50196E+07
 0.54499996E+02  0.51998E+07
 0.54549995E+02  0.53765E+07
 0.54599998E+02  0.55294E+07
 0.54649998E+02  0.56372E+07
 0.54699997E+02  0.56824E+07
 0.54749996E+02  0.56894E+07
 0.54799995E+02  0.57024E+07
 0.54849998E+02  0.57340E+07
 0.54899998E+02  0.58033E+07
 0.54949997E+02  0.59039E+07
 0.54999996E+02  0.60141E+07
 0.55049995E+02  0.61202E+07
 0.55099998E+02  0.62382E+07
 0.55149998E+02  0.63697E+07
 0.55199997E+02  0.65757E+07
 0.55249996E+02  0.66847E+07
 0.55299995E+02  0.66716E+07
 0.55349998E+02  0.66763E+07
 0.55399998E+02  0.66728E+07
 0.55449997E+02  0.66699E+07
 0.55499996E+02  0.66626E+07
 0.55549995E+02  0.66644E+07
 0.55599998E+02  0.66620E+07
 0.55649998E+02  0.66640E+07
 0.55699997E+02  0.66640E+07
 0.55749996E+02  0.66755E+07
 0.55799995E+02  0.66649E+07
 0.55849995E+02  0.66837E+07
 0.55899998E+02  0.64974E+07
 0.55949997E+02  0.61303E+07
 0.55999996E+02  0.58419E+07
 0.56049995E+02  0.55519E+07
 0.56099995E+02  0.52276E+07
 0.56149998E+02  0.48482E+07
 0.56199997E+02  0.44828E+07
 0.56249996E+02  0.42096E+07
 0.56299995E+02  0.40569E+07
 0.56349995E+02  0.39782E+07
 0.56399998E+02  0.39479E+07
 0.56449997E+02  0.39471E+07
 0.56499996E+02  0.39820E+07
 0.56549995E+02  0.40733E+07
 0.56599995E+02  0.42359E+07
 0.56649998E+02  0.44608E+07
 0.56699997E+02  0.46964E+07
 0.56749996E+02  0.49123E+07
 0.56799995E+02  0.51102E+07
 0.56849995E+02  0.53123E+07
 0.56899998E+02  0.55540E+07
 0.56949997E+02  0.58308E+07
 0.56999996E+02  0.61089E+07
 0.57049995E+02  0.63524E+07
 0.57099995E+02  0.65715E+07
 0.57149998E+02  0.66868E+07
 0.57199997E+02  0.66808E+07
 0.57249996E+02  0.66837E+07
 0.57299995E+02  0.66798E+07
 0.57349995E+02  0.66807E+07
 0.57399998E+02  0.66775E+07
 0.57449997E+02  0.66789E+07
 0.57499996E+02  0.66751E+07
 0.57549995E+02  0.66808E+07
 0.57599995E+02  0.66589E+07
 0.57649998E+02  0.65296E+07
 0.57699997E+02  0.63734E+07
 0.57749996E+02  0.61762E+07
 0.57799995E+02  0.59355E+07
 0.57849995E+02  0.56890E+07
 0.57899998E+02  0.54645E+07
 0.57949997E+02  0.52971E+07
 0.57999996E+02  0.51720E+07
 0.58049995E+02  0.50600E+07
 0.58099995E+02  0.49686E+07
 0.58149998E+02  0.49061E+07
 0.58199997E+02  0.49316E+07
 0.58249996E+02  0.50367E+07
 0.58299995E+02  0.51693E+07
 0.58349995E+02  0.53166E+07
 0.58399998E+02  0.54356E+07
 0.58449997E+02  0.55475E+07
 0.58499996E+02  0.56837E+07
 0.58549995E+02  0.58464E+07
 0.58599995E+02  0.60509E+07
 0.58649998E+02  0.62706E+07
 0.58699997E+02  0.64530E+07
 0.58749996E+02  0.66165E+07
 0.58799995E+02  0.66742E+07
 0.58849995E+02  0.66631E+07
 0.58899998E+02  0.66686E+07
 0.58949997E+02  0.66652E+07
 0.58999996E+02  0.66675E+07
 0.59049995E+02  0.66658E+07
 0.59099995E+02  0.66673E+07
 0.59149998E+02  0.66666E+07
 0.59199997E+02  0.66670E+07
 0.59249996E+02  0.66665E+07
 0.59299995E+02  0.66685E+07
 0.59349995E+02  0.66712E+07
 0.59399998E+02  0.66440E+07
 0.59449997E+02  0.65816E+07
 0.59499996E+02  0.65238E+07
 0.59549995E+02  0.64829E+07
 0.59599995E+02  0.64537E+07
 0.59649998E+02  0.64269E+07
 0.59699997E+02  0.63894E+07
 0.59749996E+02  0.63555E+07
 0.59799995E+02  0.63129E+07
 0.59849995E+02  0.62655E+07
 0.59899998E+02  0.62261E+07
 0.59949997E+02  0.61886E+07
 0.59999996E+02  0.61569E+07
 0.60049995E+02  0.61152E+07
 0.60099995E+02  0.60721E+07
 0.60149998E+02  0.60468E+07
 0.60199997E+02  0.60363E+07
 0.60249996E+02  0.60610E+07
 0.60299995E+02  0.61006E+07
 0.60349995E+02  0.61028E+07
 0.60399998E+02  0.60814E+07
 0.60449997E+02  0.60530E+07
 0.60499996E+02  0.60305E+07
 0.60549995E+02  0.60276E+07
 0.60599995E+02  0.60465E+07
 0.60649998E+02  0.61004E+07
 0.60699997E+02  0.61610E+07
 0.60749996E+02  0.62092E+07
 0.60799995E+02  0.62445E+07
 0.60849995E+02  0.62461E+07
 0.60899998E+02  0.62264E+07
 0.60949997E+02  0.62069E+07
 0.60999996E+02  0.61826E+07
 0.61049995E+02  0.61500E+07
 0.61099995E+02  0.61105E+07
 0.61149998E+02  0.60568E+07
 0.61199997E+02  0.59831E+07
 0.61249996E+02  0.59195E+07
 0.61299995E+02  0.58996E+07
 0.61349995E+02  0.59209E+07
 0.61399998E+02  0.59545E+07
 0.61449997E+02  0.59680E+07
 0.61499996E+02  0.59530E+07
 0.61549995E+02  0.59120E+07
 0.61599995E+02  0.58822E+07
 0.61649998E+02  0.58917E+07
 0.61699997E+02  0.59191E+07
 0.61749996E+02  0.59373E+07
 0.61799995E+02  0.59479E+07
 0.61849995E+02  0.59865E+07
 0.61899998E+02  0.60746E+07
 0.61949997E+02  0.61904E+07
 0.61999996E+02  0.63003E+07
 0.62049995E+02  0.64006E+07
 0.62099998E+02  0.64776E+07
 0.62149994E+02  0.64998E+07
 0.62199997E+02  0.64775E+07
 0.62249992E+02  0.64428E+07
 0.62299995E+02  0.63856E+07
 0.62349998E+02  0.62766E+07
 0.62399994E+02  0.61122E+07
 0.62449997E+02  0.59235E+07
 0.62499992E+02  0.57348E+07
 0.62549995E+02  0.55506E+07
 0.62599998E+02  0.53959E+07
 0.62649994E+02  0.52735E+07
 0.62699997E+02  0.51688E+07
 0.62749992E+02  0.50987E+07
 0.62799995E+02  0.50795E+07
 0.62849998E+02  0.51194E+07
 0.62899994E+02  0.51803E+07
 0.62949997E+02  0.52263E+07
 0.62999992E+02  0.52441E+07
 0.63049995E+02  0.52270E+07
 0.63099998E+02  0.52058E+07
 0.63149994E+02  0.51986E+07
 0.63199997E+02  0.52097E+07
 0.63249992E+02  0.52258E+07
 0.63299995E+02  0.52299E+07
 0.63349998E+02  0.52087E+07
 0.63399994E+02  0.51753E+07
 0.63449997E+02  0.51652E+07
 0.63499992E+02  0.51860E+07
 0.63549995E+02  0.52384E+07
 0.63599998E+02  0.53221E+07
 0.63649994E+02  0.54194E+07
 0.63699997E+02  0.55012E+07
 0.63749992E+02  0.55539E+07
 0.63799995E+02  0.55838E+07
 0.63849998E+02  0.56120E+07
 0.63899994E+02  0.56443E+07
 0.63949997E+02  0.56586E+07
 0.63999992E+02  0.56598E+07
 0.64049995E+02  0.56458E+07
 0.64099998E+02  0.56015E+07
 0.64149994E+02  0.55545E+07
 0.64199997E+02  0.55227E+07
 0.64249992E+02  0.55063E+07
 0.64299995E+02  0.54805E+07
 0.64349998E+02  0.54187E+07
 0.64399994E+02  0.53255E+07
 0.64449997E+02  0.52147E+07
 0.64499992E+02  0.51182E+07
 0.64549995E+02  0.50528E+07
 0.64599998E+02  0.50152E+07
 0.64649994E+02  0.49842E+07
 0.64699997E+02  0.49423E+07
 0.64749992E+02  0.48952E+07
 0.64799995E+02  0.48622E+07
 0.64849998E+02  0.48682E+07
 0.64899994E+02  0.49056E+07
 0.64949997E+02  0.49478E+07
 0.64999992E+02  0.49918E+07
 0.65049995E+02  0.50331E+07
 0.65099998E+02  0.50594E+07
 0.65149994E+02  0.50793E+07
 0.65199997E+02  0.51074E+07
 0.65249992E+02  0.51456E+07
 0.65299995E+02  0.51941E+07
 0.65349998E+02  0.52368E+07
 0.65399994E+02  0.52692E+07
 0.65449997E+02  0.53047E+07
 0.65499992E+02  0.53384E+07
 0.65549995E+02  0.53658E+07
 0.65599998E+02  0.53785E+07
 0.65649994E+02  0.53847E+07
 0.65699997E+02  0.53997E+07
 0.65749992E+02  0.54245E+07
 0.65799995E+02  0.54636E+07
 0.65849998E+02  0.55117E+07
 0.65899994E+02  0.55537E+07
 0.65949997E+02  0.55942E+07
 0.65999992E+02  0.56507E+07
 0.66049995E+02  0.57189E+07
 0.66099998E+02  0.57801E+07
 0.66149994E+02  0.58149E+07
 0.66199997E+02  0.58185E+07
 0.66249992E+02  0.58078E+07
 0.66299995E+02  0.57946E+07
 0.66349998E+02  0.57907E+07
 0.66399994E+02  0.57897E+07
 0.66449997E+02  0.57715E+07
 0.66499992E+02  0.57368E+07
 0.66549995E+02  0.56940E+07
 0.66599998E+02  0.56530E+07
 0.66649994E+02  0.56207E+07
 0.66699997E+02  0.56058E+07
 0.66749992E+02  0.55997E+07
 0.66799995E+02  0.55829E+07
 0.66849998E+02  0.55545E+07
 0.66899994E+02  0.55113E+07
 0.66949997E+02  0.54406E+07
 0.66999992E+02  0.53435E+07
 0.67049995E+02  0.52387E+07
 0.67099998E+02  0.51427E+07
 0.67149994E+02  0.50522E+07
 0.67199997E+02  0.49475E+07
 0.67249992E+02  0.48304E+07
 0.67299995E+02  0.47178E+07
 0.67349998E+02  0.46175E+07
 0.67399994E+02  0.45293E+07
 0.67449997E+02  0.44617E+07
 0.67499992E+02  0.44386E+07
 0.67549995E+02  0.44548E+07
 0.67599998E+02  0.44891E+07
 0.67649994E+02  0.45335E+07
 0.67699997E+02  0.45764E+07
 0.67749992E+02  0.46109E+07
 0.67799995E+02  0.46367E+07
 0.67849998E+02  0.46556E+07
 0.67899994E+02  0.46535E+07
 0.67949997E+02  0.46121E+07
 0.67999992E+02  0.45321E+07
 0.68049995E+02  0.44247E+07
 0.68099998E+02  0.43086E+07
 0.68149994E+02  0.42050E+07
 0.68199997E+02  0.41364E+07
 0.68249992E+02  0.41094E+07
 0.68299995E+02  0.41137E+07
 0.68349998E+02  0.41521E+07
 0.68399994E+02  0.42216E+07
 0.68449997E+02  0.43115E+07
 0.68499992E+02  0.44221E+07
 0.68549995E+02  0.45491E+07
 0.68599998E+02  0.47004E+07
 0.68649994E+02  0.48744E+07
 0.68699997E+02  0.50447E+07
 0.68749992E+02  0.51880E+07
 0.68799995E+02  0.52992E+07
 0.68849998E+02  0.53915E+07
 0.68899994E+02  0.54727E+07
 0.68949997E+02  0.55439E+07
 0.68999992E+02  0.56123E+07
 0.69049995E+02  0.56669E+07
 0.69099998E+02  0.56886E+07
 0.69149994E+02  0.56784E+07
 0.69199997E+02  0.56507E+07
 0.69249992E+02  0.56154E+07
 0.69299995E+02  0.55640E+07
 0.69349998E+02  0.54955E+07
 0.69399994E+02  0.54126E+07
 0.69449997E+02  0.53151E+07
 0.69499992E+02  0.51984E+07
 0.69549995E+02  0.50686E+07
 0.69599998E+02  0.49563E+07
 0.69649994E+02  0.48756E+07
 0.69699997E+02  0.48222E+07
 0.69749992E+02  0.47957E+07
 0.69799995E+02  0.47858E+07
 0.69849998E+02  0.47795E+07
 0.69899994E+02  0.47711E+07
 0.69949997E+02  0.47693E+07
 0.69999992E+02  0.47922E+07
 0.70049995E+02  0.48303E+07
 0.70099998E+02  0.48713E+07
 0.70149994E+02  0.48970E+07
 0.70199997E+02  0.48869E+07
 0.70249992E+02  0.48566E+07
 0.70299995E+02  0.48244E+07
 0.70349998E+02  0.47974E+07
 0.70399994E+02  0.47655E+07
 0.70449997E+02  0.47080E+07
 0.70499992E+02  0.46255E+07
 0.70549995E+02  0.45286E+07
 0.70599998E+02  0.44291E+07
 0.70649994E+02  0.43483E+07
 0.70699997E+02  0.43023E+07
 0.70749992E+02  0.42834E+07
 0.70799995E+02  0.42780E+07
 0.70849998E+02  0.42791E+07
 0.70899994E+02  0.42877E+07
 0.70949997E+02  0.43073E+07
 0.70999992E+02  0.43407E+07
 0.71049995E+02  0.43938E+07
 0.71099998E+02  0.44659E+07
 0.71149994E+02  0.45509E+07
 0.71199997E+02  0.46370E+07
 0.71249992E+02  0.47295E+07
 0.71299995E+02  0.48433E+07
 0.71349998E+02  0.49854E+07
 0.71399994E+02  0.51561E+07
 0.71449997E+02  0.53262E+07
 0.71499992E+02  0.54869E+07
 0.71549995E+02  0.56483E+07
 0.71599998E+02  0.57947E+07
 0.71649994E+02  0.59060E+07
 0.71699997E+02  0.59773E+07
 0.71749992E+02  0.60243E+07
 0.71799995E+02  0.60415E+07
 0.71849998E+02  0.60126E+07
 0.71899994E+02  0.59490E+07
 0.71949997E+02  0.58547E+07
 0.71999992E+02  0.57178E+07
 0.72049995E+02  0.55383E+07
 0.72099998E+02  0.53339E+07
 0.72149994E+02  0.51134E+07
 0.72199997E+02  0.48805E+07
 0.72249992E+02  0.46423E+07
 0.72299995E+02  0.43988E+07
 0.72349998E+02  0.41520E+07
 0.72399994E+02  0.39049E+07
 0.72449997E+02  0.36612E+07
 0.72499992E+02  0.34221E+07
 0.72549995E+02  0.31867E+07
 0.72599998E+02  0.29635E+07
 0.72649994E+02  0.27608E+07
 0.72699997E+02  0.25882E+07
 0.72749992E+02  0.24582E+07
 0.72799995E+02  0.23668E+07
 0.72849998E+02  0.23132E+07
 0.72899994E+02  0.23062E+07
 0.72949997E+02  0.23441E+07
 0.72999992E+02  0.24193E+07
 0.73049995E+02  0.25246E+07
 0.73099998E+02  0.26665E+07
 0.73149994E+02  0.28450E+07
 0.73199997E+02  0.30488E+07
 0.73249992E+02  0.32699E+07
 0.73299995E+02  0.34885E+07
 0.73349998E+02  0.36897E+07
 0.73399994E+02  0.38761E+07
 0.73449997E+02  0.40553E+07
 0.73499992E+02  0.42142E+07
 0.73549995E+02  0.43446E+07
 0.73599998E+02  0.44504E+07
 0.73649994E+02  0.45244E+07
 0.73699997E+02  0.45564E+07
 0.73749992E+02  0.45457E+07
 0.73799995E+02  0.45079E+07
 0.73849998E+02  0.44646E+07
 0.73899994E+02  0.44273E+07
 0.73949997E+02  0.43918E+07
 0.73999992E+02  0.43500E+07
 0.74049995E+02  0.42930E+07
 0.74099998E+02  0.42278E+07
 0.74149994E+02  0.41677E+07
 0.74199997E+02  0.41292E+07
 0.74249992E+02  0.41146E+07
 0.74299995E+02  0.41115E+07
 0.74349998E+02  0.41177E+07
 0.74399994E+02  0.41283E+07
 0.74449997E+02  0.41463E+07
 0.74499992E+02  0.41704E+07
 0.74549995E+02  0.41857E+07
 0.74599998E+02  0.41839E+07
 0.74649994E+02  0.41702E+07
 0.74699997E+02  0.41550E+07
 0.74749992E+02  0.41378E+07
 0.74799995E+02  0.41244E+07
 0.74849998E+02  0.41136E+07
 0.74899994E+02  0.40940E+07
 0.74949997E+02  0.40615E+07
 0.74999992E+02  0.40216E+07
 0.75049995E+02  0.40012E+07
 0.75099998E+02  0.40081E+07
 0.75149994E+02  0.40406E+07
 0.75199997E+02  0.40975E+07
 0.75249992E+02  0.41695E+07
 0.75299995E+02  0.42575E+07
 0.75349998E+02  0.43542E+07
 0.75399994E+02  0.44446E+07
 0.75449997E+02  0.45182E+07
 0.75499992E+02  0.45736E+07
 0.75549995E+02  0.46155E+07
 0.75599998E+02  0.46452E+07
 0.75649994E+02  0.46482E+07
 0.75699997E+02  0.46134E+07
 0.75749992E+02  0.45437E+07
 0.75799995E+02  0.44405E+07
 0.75849998E+02  0.42991E+07
 0.75899994E+02  0.41339E+07
 0.75949997E+02  0.39740E+07
 0.75999992E+02  0.38320E+07
 0.76049995E+02  0.37157E+07
 0.76099998E+02  0.36225E+07
 0.76149994E+02  0.35474E+07
 0.76199997E+02  0.34940E+07
 0.76249992E+02  0.34572E+07
 0.76299995E+02  0.34345E+07
 0.76349998E+02  0.34213E+07
 0.76399994E+02  0.34141E+07
 0.76449997E+02  0.34051E+07
 0.76499992E+02  0.33809E+07
 0.76549995E+02  0.33420E+07
 0.76599998E+02  0.32951E+07
 0.76649994E+02  0.32623E+07
 0.76699997E+02  0.32600E+07
 0.76749992E+02  0.32890E+07
 0.76799995E+02  0.33514E+07
 0.76849998E+02  0.34473E+07
 0.76899994E+02  0.35652E+07
 0.76949997E+02  0.36878E+07
 0.76999992E+02  0.38180E+07
 0.77049995E+02  0.39621E+07
 0.77099998E+02  0.40944E+07
 0.77149994E+02  0.41826E+07
 0.77199997E+02  0.42252E+07
 0.77249992E+02  0.42263E+07
 0.77299995E+02  0.41828E+07
 0.77349998E+02  0.40981E+07
 0.77399994E+02  0.39900E+07
 0.77449997E+02  0.38774E+07
 0.77499992E+02  0.37698E+07
 0.77549995E+02  0.36744E+07
 0.77599998E+02  0.35864E+07
 0.77649994E+02  0.34943E+07
 0.77699997E+02  0.34003E+07
 0.77749992E+02  0.33105E+07
 0.77799995E+02  0.32323E+07
 0.77849998E+02  0.31746E+07
 0.77899994E+02  0.31311E+07
 0.77949997E+02  0.30978E+07
 0.77999992E+02  0.30754E+07
 0.78049995E+02  0.30680E+07
 0.78099998E+02  0.30712E+07
 0.78149994E+02  0.30867E+07
 0.78199997E+02  0.31174E+07
 0.78249992E+02  0.31555E+07
 0.78299995E+02  0.31957E+07
 0.78349998E+02  0.32333E+07
 0.78399994E+02  0.32639E+07
 0.78449997E+02  0.32887E+07
 0.78499992E+02  0.33090E+07
 0.78549995E+02  0.33092E+07
 0.78599998E+02  0.32962E+07
 0.78649994E+02  0.32790E+07
 0.78699997E+02  0.32505E+07
 0.78749992E+02  0.32117E+07
 0.78799995E+02  0.31668E+07
 0.78849998E+02  0.31273E+07
 0.78899994E+02  0.30894E+07
 0.78949997E+02  0.30520E+07
 0.78999992E+02  0.30296E+07
 0.79049995E+02  0.30208E+07
 0.79099998E+02  0.30250E+07
 0.79149994E+02  0.30489E+07
 0.79199997E+02  0.30955E+07
 0.79249992E+02  0.31596E+07
 0.79299995E+02  0.32302E+07
 0.79349998E+02  0.32990E+07
 0.79399994E+02  0.33565E+07
 0.79449997E+02  0.34004E+07
 0.79499992E+02  0.34286E+07
 0.79549995E+02  0.34419E+07
 0.79599998E+02  0.34429E+07
 0.79649994E+02  0.34311E+07
 0.79699997E+02  0.34071E+07
 0.79749992E+02  0.33559E+07
 0.79799995E+02  0.32783E+07
 0.79849998E+02  0.31922E+07
 0.79899994E+02  0.31079E+07
 0.79949997E+02  0.30229E+07
 0.79999992E+02  0.29384E+07
 0.80049995E+02  0.28615E+07
 0.80099998E+02  0.27938E+07
 0.80149994E+02  0.27441E+07
 0.80199997E+02  0.27228E+07
 0.80249992E+02  0.27355E+07
 0.80299995E+02  0.27759E+07
 0.80349998E+02  0.28306E+07
 0.80399994E+02  0.28905E+07
 0.80449997E+02  0.29554E+07
 0.80499992E+02  0.30288E+07
 0.80549995E+02  0.31137E+07
 0.80599998E+02  0.32098E+07
 0.80649994E+02  0.33127E+07
 0.80699997E+02  0.34114E+07
 0.80749992E+02  0.34980E+07
 0.80799995E+02  0.35771E+07
 0.80849998E+02  0.36612E+07
 0.80899994E+02  0.37539E+07
 0.80949997E+02  0.38442E+07
 0.80999992E+02  0.39233E+07
 0.81049995E+02  0.39835E+07
 0.81099998E+02  0.40289E+07
 0.81149994E+02  0.40604E+07
 0.81199997E+02  0.40714E+07
 0.81249992E+02  0.40635E+07
 0.81299995E+02  0.40328E+07
 0.81349998E+02  0.39696E+07
 0.81399994E+02  0.38686E+07
 0.81449997E+02  0.37416E+07
 0.81499992E+02  0.36055E+07
 0.81549995E+02  0.34692E+07
 0.81599998E+02  0.33412E+07
 0.81649994E+02  0.32251E+07
 0.81699997E+02  0.31175E+07
 0.81749992E+02  0.30150E+07
 0.81799995E+02  0.29169E+07
 0.81849998E+02  0.28257E+07
 0.81899994E+02  0.27370E+07
 0.81949997E+02  0.26426E+07
 0.81999992E+02  0.25418E+07
 0.82049995E+02  0.24340E+07
 0.82099998E+02  0.23225E+07
 0.82149994E+02  0.22129E+07
 0.82199997E+02  0.21078E+07
 0.82249992E+02  0.20056E+07
 0.82299995E+02  0.19042E+07
 0.82349998E+02  0.18035E+07
 0.82399994E+02  0.17074E+07
 0.82449997E+02  0.16224E+07
 0.82499992E+02  0.15499E+07
 0.82549995E+02  0.14918E+07
 0.82599998E+02  0.14567E+07
 0.82649994E+02  0.14459E+07
 0.82699997E+02  0.14612E+07
 0.82749992E+02  0.15084E+07
 0.82799995E+02  0.15754E+07
 0.82849998E+02  0.16583E+07
 0.82899994E+02  0.17558E+07
 0.82949997E+02  0.18617E+07
 0.82999992E+02  0.19732E+07
 0.83049995E+02  0.20822E+07
 0.83099998E+02  0.21913E+07
 0.83149994E+02  0.23015E+07
 0.83199997E+02  0.24097E+07
 0.83249992E+02  0.25145E+07
 0.83299995E+02  0.26141E+07
 0.83349998E+02  0.27056E+07
 0.83399994E+02  0.27958E+07
 0.83449997E+02  0.28951E+07
 0.83499992E+02  0.29993E+07
 0.83549995E+02  0.31038E+07
 0.83599998E+02  0.32075E+07
 0.83649994E+02  0.33119E+07
 0.83699997E+02  0.34114E+07
 0.83749992E+02  0.34956E+07
 0.83799995E+02  0.35586E+07
 0.83849998E+02  0.35972E+07
 0.83899994E+02  0.36208E+07
 0.83949997E+02  0.36346E+07
 0.83999992E+02  0.36445E+07
 0.84049995E+02  0.36584E+07
 0.84099998E+02  0.36724E+07
 0.84149994E+02  0.36838E+07
 0.84199997E+02  0.36882E+07
 0.84249992E+02  0.36804E+07
 0.84299995E+02  0.36639E+07
 0.84349998E+02  0.36353E+07
 0.84399994E+02  0.35888E+07
 0.84449997E+02  0.35252E+07
 0.84499992E+02  0.34489E+07
 0.84549995E+02  0.33635E+07
 0.84599998E+02  0.32678E+07
 0.84649994E+02  0.31721E+07
 0.84699997E+02  0.30877E+07
 0.84749992E+02  0.30134E+07
 0.84799995E+02  0.29430E+07
 0.84849998E+02  0.28760E+07
 0.84899994E+02  0.28193E+07
 0.84949997E+02  0.27718E+07
 0.84999992E+02  0.27235E+07
 0.85049995E+02  0.26704E+07
 0.85099998E+02  0.26149E+07
 0.85149994E+02  0.25589E+07
 0.85199997E+02  0.25066E+07
 0.85249992E+02  0.24648E+07
 0.85299995E+02  0.24305E+07
 0.85349998E+02  0.23976E+07
 0.85399994E+02  0.23686E+07
 0.85449997E+02  0.23500E+07
 0.85499992E+02  0.23394E+07
 0.85549995E+02  0.23287E+07
 0.85599998E+02  0.23138E+07
 0.85649994E+02  0.22964E+07
 0.85699997E+02  0.22777E+07
 0.85749992E+02  0.22588E+07
 0.85799995E+02  0.22470E+07
 0.85849998E+02  0.22421E+07
 0.85899994E+02  0.22325E+07
 0.85949997E+02  0.22121E+07
 0.85999992E+02  0.21874E+07
 0.86049995E+02  0.21602E+07
 0.86099998E+02  0.21264E+07
 0.86149994E+02  0.20837E+07
 0.86199997E+02  0.20354E+07
 0.86249992E+02  0.19878E+07
 0.86299995E+02  0.19450E+07
 0.86349998E+02  0.19094E+07
 0.86399994E+02  0.18885E+07
 0.86449997E+02  0.18787E+07
 0.86499992E+02  0.18691E+07
 0.86549995E+02  0.18582E+07
 0.86599998E+02  0.18519E+07
 0.86649994E+02  0.18583E+07
 0.86699997E+02  0.18768E+07
 0.86749992E+02  0.19016E+07
 0.86799995E+02  0.19251E+07
 0.86849998E+02  0.19313E+07
 0.86899994E+02  0.19106E+07
 0.86949997E+02  0.18730E+07
 0.86999992E+02  0.18276E+07
 0.87049995E+02  0.17741E+07
 0.87099998E+02  0.17180E+07
 0.87149994E+02  0.16680E+07
 0.87199997E+02  0.16221E+07
 0.87249992E+02  0.15814E+07
 0.87299995E+02  0.15455E+07
 0.87349998E+02  0.15147E+07
 0.87399994E+02  0.14861E+07
 0.87449997E+02  0.14529E+07
 0.87499992E+02  0.14186E+07
 0.87549995E+02  0.13816E+07
 0.87599991E+02  0.13451E+07
 0.87649994E+02  0.13177E+07
 0.87699997E+02  0.13039E+07
 0.87749992E+02  0.13075E+07
 0.87799995E+02  0.13250E+07
 0.87849991E+02  0.13494E+07
 0.87899994E+02  0.13776E+07
 0.87949997E+02  0.14090E+07
 0.87999992E+02  0.14451E+07
 0.88049995E+02  0.14894E+07
 0.88099991E+02  0.15497E+07
 0.88149994E+02  0.16308E+07
 0.88199997E+02  0.17301E+07
 0.88249992E+02  0.18490E+07
 0.88299995E+02  0.19811E+07
 0.88349991E+02  0.21154E+07
 0.88399994E+02  0.22467E+07
 0.88449997E+02  0.23699E+07
 0.88499992E+02  0.24824E+07
 0.88549995E+02  0.25788E+07
 0.88599991E+02  0.26539E+07
 0.88649994E+02  0.27093E+07
 0.88699997E+02  0.27524E+07
 0.88749992E+02  0.27867E+07
 0.88799995E+02  0.28113E+07
 0.88849991E+02  0.28241E+07
 0.88899994E+02  0.28258E+07
 0.88949997E+02  0.28184E+07
 0.88999992E+02  0.28048E+07
 0.89049995E+02  0.27960E+07
 0.89099991E+02  0.27925E+07
 0.89149994E+02  0.27817E+07
 0.89199997E+02  0.27503E+07
 0.89249992E+02  0.26958E+07
 0.89299995E+02  0.26241E+07
 0.89349991E+02  0.25399E+07
 0.89399994E+02  0.24548E+07
 0.89449997E+02  0.23803E+07
 0.89499992E+02  0.23179E+07
 0.89549995E+02  0.22624E+07
 0.89599991E+02  0.22119E+07
 0.89649994E+02  0.21657E+07
 0.89699997E+02  0.21215E+07
 0.89749992E+02  0.20785E+07
 0.89799995E+02  0.20325E+07
 0.89849991E+02  0.19933E+07
 0.89899994E+02  0.19674E+07
 0.89949997E+02  0.19464E+07
 0.89999992E+02  0.19288E+07
 0.90049995E+02  0.19146E+07
 0.90099991E+02  0.19089E+07
 0.90149994E+02  0.19158E+07
 0.90199997E+02  0.19350E+07
 0.90249992E+02  0.19650E+07
 0.90299995E+02  0.19988E+07
 0.90349991E+02  0.20284E+07
 0.90399994E+02  0.20487E+07
 0.90449997E+02  0.20615E+07
 0.90499992E+02  0.20741E+07
 0.90549995E+02  0.20908E+07
 0.90599991E+02  0.21067E+07
 0.90649994E+02  0.21135E+07
 0.90699997E+02  0.21046E+07
 0.90749992E+02  0.20762E+07
 0.90799995E+02  0.20296E+07
 0.90849991E+02  0.19701E+07
 0.90899994E+02  0.19053E+07
 0.90949997E+02  0.18389E+07
 0.90999992E+02  0.17652E+07
 0.91049995E+02  0.16795E+07
 0.91099991E+02  0.15806E+07
 0.91149994E+02  0.14767E+07
 0.91199997E+02  0.13828E+07
 0.91249992E+02  0.13057E+07
 0.91299995E+02  0.12446E+07
 0.91349991E+02  0.11914E+07
 0.91399994E+02  0.11446E+07
 0.91449997E+02  0.11059E+07
 0.91499992E+02  0.10755E+07
 0.91549995E+02  0.10556E+07
 0.91599991E+02  0.10427E+07
 0.91649994E+02  0.10309E+07
 0.91699997E+02  0.10152E+07
 0.91749992E+02  0.10016E+07
 0.91799995E+02  0.99925E+06
 0.91849991E+02  0.10099E+07
 0.91899994E+02  0.10355E+07
 0.91949997E+02  0.10722E+07
 0.91999992E+02  0.11179E+07
 0.92049995E+02  0.11775E+07
 0.92099991E+02  0.12541E+07
 0.92149994E+02  0.13484E+07
 0.92199997E+02  0.14497E+07
 0.92249992E+02  0.15498E+07
 0.92299995E+02  0.16433E+07
 0.92349991E+02  0.17226E+07
 0.92399994E+02  0.17886E+07
 0.92449997E+02  0.18450E+07
 0.92499992E+02  0.18884E+07
 0.92549995E+02  0.19123E+07
 0.92599991E+02  0.19200E+07
 0.92649994E+02  0.19163E+07
 0.92699997E+02  0.19029E+07
 0.92749992E+02  0.18787E+07
 0.92799995E+02  0.18469E+07
 0.92849991E+02  0.18113E+07
 0.92899994E+02  0.17687E+07
 0.92949997E+02  0.17233E+07
 0.92999992E+02  0.16842E+07
 0.93049995E+02  0.16553E+07
 0.93099991E+02  0.16378E+07
 0.93149994E+02  0.16332E+07
 0.93199997E+02  0.16355E+07
 0.93249992E+02  0.16369E+07
 0.93299995E+02  0.16356E+07
 0.93349991E+02  0.16286E+07
 0.93399994E+02  0.16089E+07
 0.93449997E+02  0.15743E+07
 0.93499992E+02  0.15306E+07
 0.93549995E+02  0.14774E+07
 0.93599991E+02  0.14160E+07
 0.93649994E+02  0.13510E+07
 0.93699997E+02  0.12830E+07
 0.93749992E+02  0.12136E+07
 0.93799995E+02  0.11492E+07
 0.93849991E+02  0.10944E+07
 0.93899994E+02  0.10495E+07
 0.93949997E+02  0.10164E+07
 0.93999992E+02  0.99681E+06
 0.94049995E+02  0.98703E+06
 0.94099991E+02  0.97686E+06
 0.94149994E+02  0.95881E+06
 0.94199997E+02  0.93044E+06
 0.94249992E+02  0.89503E+06
 0.94299995E+02  0.86085E+06
 0.94349991E+02  0.83479E+06
 0.94399994E+02  0.82087E+06
 0.94449997E+02  0.81829E+06
 0.94499992E+02  0.82425E+06
 0.94549995E+02  0.83747E+06
 0.94599991E+02  0.85909E+06
 0.94649994E+02  0.89571E+06
 0.94699997E+02  0.94818E+06
 0.94749992E+02  0.10158E+07
 0.94799995E+02  0.10961E+07
 0.94849991E+02  0.11772E+07
 0.94899994E+02  0.12506E+07
 0.94949997E+02  0.13136E+07
 0.94999992E+02  0.13720E+07
 0.95049995E+02  0.14211E+07
 0.95099991E+02  0.14635E+07
 0.95149994E+02  0.15047E+07
 0.95199997E+02  0.15308E+07
 0.95249992E+02  0.15369E+07
 0.95299995E+02  0.15228E+07
 0.95349991E+02  0.14932E+07
 0.95399994E+02  0.14596E+07
 0.95449997E+02  0.14260E+07
 0.95499992E+02  0.13914E+07
 0.95549995E+02  0.13551E+07
 0.95599991E+02  0.13134E+07
 0.95649994E+02  0.12620E+07
 0.95699997E+02  0.11995E+07
 0.95749992E+02  0.11320E+07
 0.95799995E+02  0.10669E+07
 0.95849991E+02  0.10045E+07
 0.95899994E+02  0.93875E+06
 0.95949997E+02  0.86985E+06
 0.95999992E+02  0.80963E+06
 0.96049995E+02  0.75882E+06
 0.96099991E+02  0.71600E+06
 0.96149994E+02  0.68294E+06
 0.96199997E+02  0.66866E+06
 0.96249992E+02  0.67934E+06
 0.96299995E+02  0.71654E+06
 0.96349991E+02  0.77746E+06
 0.96399994E+02  0.84772E+06
 0.96449997E+02  0.92126E+06
 0.96499992E+02  0.99040E+06
 0.96549995E+02  0.10529E+07
 0.96599991E+02  0.11161E+07
 0.96649994E+02  0.11818E+07
 0.96699997E+02  0.12504E+07
 0.96749992E+02  0.13182E+07
 0.96799995E+02  0.13800E+07
 0.96849991E+02  0.14362E+07
 0.96899994E+02  0.14856E+07
 0.96949997E+02  0.15293E+07
 0.96999992E+02  0.15643E+07
 0.97049995E+02  0.15857E+07
 0.97099991E+02  0.15935E+07
 0.97149994E+02  0.15926E+07
 0.97199997E+02  0.15928E+07
 0.97249992E+02  0.15948E+07
 0.97299995E+02  0.15953E+07
 0.97349991E+02  0.15950E+07
 0.97399994E+02  0.15927E+07
 0.97449997E+02  0.15832E+07
 0.97499992E+02  0.15615E+07
 0.97549995E+02  0.15306E+07
 0.97599991E+02  0.14961E+07
 0.97649994E+02  0.14522E+07
 0.97699997E+02  0.14003E+07
 0.97749992E+02  0.13466E+07
 0.97799995E+02  0.12919E+07
 0.97849991E+02  0.12370E+07
 0.97899994E+02  0.11775E+07
 0.97949997E+02  0.11251E+07
 0.97999992E+02  0.10833E+07
