-0.20000000E+01  0.19829E+06
-0.19500000E+01  0.20825E+06
-0.19000000E+01  0.21578E+06
-0.18500000E+01  0.21971E+06
-0.18000000E+01  0.22009E+06
-0.17500000E+01  0.21727E+06
-0.17000000E+01  0.21233E+06
-0.16500001E+01  0.20647E+06
-0.16000000E+01  0.20078E+06
-0.15500000E+01  0.19608E+06
-0.15000000E+01  0.19286E+06
-0.14500000E+01  0.19164E+06
-0.14000001E+01  0.19298E+06
-0.13500000E+01  0.19679E+06
-0.13000001E+01  0.20258E+06
-0.12500000E+01  0.20972E+06
-0.12000000E+01  0.21756E+06
-0.11500001E+01  0.22572E+06
-0.11000000E+01  0.23355E+06
-0.10500001E+01  0.24011E+06
-0.10000000E+01  0.24448E+06
-0.95000005E+00  0.24553E+06
-0.90000010E+00  0.24236E+06
-0.85000002E+00  0.23453E+06
-0.80000007E+00  0.22141E+06
-0.75000012E+00  0.20288E+06
-0.70000005E+00  0.17957E+06
-0.65000010E+00  0.15270E+06
-0.60000014E+00  0.12352E+06
-0.55000007E+00  0.93170E+05
-0.50000012E+00  0.63145E+05
-0.45000005E+00  0.34569E+05
-0.40000010E+00  0.79583E+04
-0.35000014E+00 -0.16606E+05
-0.30000007E+00 -0.39313E+05
-0.25000012E+00 -0.60207E+05
-0.20000005E+00 -0.79220E+05
-0.15000010E+00 -0.96653E+05
-0.10000014E+00 -0.11301E+06
-0.50000072E-01 -0.12847E+06
-0.11920929E-06 -0.14294E+06
 0.49999952E-01 -0.15652E+06
 0.99999905E-01 -0.16931E+06
 0.14999986E+00 -0.18102E+06
 0.19999981E+00 -0.19165E+06
 0.24999976E+00 -0.20129E+06
 0.29999995E+00 -0.20996E+06
 0.34999990E+00 -0.21798E+06
 0.39999986E+00 -0.22573E+06
 0.44999981E+00 -0.23389E+06
 0.49999976E+00 -0.24330E+06
 0.54999995E+00 -0.25417E+06
 0.59999990E+00 -0.26615E+06
 0.64999986E+00 -0.27849E+06
 0.69999981E+00 -0.29029E+06
 0.74999976E+00 -0.30066E+06
 0.79999971E+00 -0.30855E+06
 0.84999990E+00 -0.31283E+06
 0.89999986E+00 -0.31253E+06
 0.94999981E+00 -0.30738E+06
 0.99999976E+00 -0.29767E+06
 0.10499997E+01 -0.28376E+06
 0.10999999E+01 -0.26583E+06
 0.11499999E+01 -0.24451E+06
 0.11999998E+01 -0.22081E+06
 0.12499998E+01 -0.19559E+06
 0.12999997E+01 -0.16965E+06
 0.13499999E+01 -0.14374E+06
 0.13999999E+01 -0.11904E+06
 0.14499998E+01 -0.96581E+05
 0.14999998E+01 -0.76861E+05
 0.15499997E+01 -0.59975E+05
 0.15999999E+01 -0.45725E+05
 0.16499999E+01 -0.33808E+05
 0.16999998E+01 -0.23732E+05
 0.17499998E+01 -0.15074E+05
 0.17999997E+01 -0.78302E+04
 0.18499997E+01 -0.19359E+04
 0.18999999E+01  0.32134E+04
 0.19499998E+01  0.80280E+04
 0.19999998E+01  0.12390E+05
 0.20499997E+01  0.15915E+05
 0.20999999E+01  0.18216E+05
 0.21499996E+01  0.19218E+05
 0.21999998E+01  0.18945E+05
 0.22499995E+01  0.17465E+05
 0.22999997E+01  0.14504E+05
 0.23499999E+01  0.95750E+04
 0.23999996E+01  0.24029E+04
 0.24499998E+01 -0.68687E+04
 0.24999995E+01 -0.17248E+05
 0.25499997E+01 -0.27503E+05
 0.25999999E+01 -0.36475E+05
 0.26499996E+01 -0.43080E+05
 0.26999998E+01 -0.46484E+05
 0.27499995E+01 -0.46020E+05
 0.27999997E+01 -0.41516E+05
 0.28499999E+01 -0.33425E+05
 0.28999996E+01 -0.22390E+05
 0.29499998E+01 -0.93985E+04
 0.29999995E+01  0.43585E+04
 0.30499997E+01  0.18165E+05
 0.30999999E+01  0.31488E+05
 0.31499996E+01  0.43803E+05
 0.31999998E+01  0.54923E+05
 0.32499995E+01  0.65058E+05
 0.32999997E+01  0.74574E+05
 0.33499999E+01  0.83880E+05
 0.33999996E+01  0.93185E+05
 0.34499998E+01  0.10261E+06
 0.34999995E+01  0.11231E+06
 0.35499997E+01  0.12217E+06
 0.35999994E+01  0.13157E+06
 0.36499996E+01  0.13982E+06
 0.36999998E+01  0.14665E+06
 0.37499995E+01  0.15204E+06
 0.37999997E+01  0.15611E+06
 0.38499994E+01  0.15895E+06
 0.38999996E+01  0.16029E+06
 0.39499998E+01  0.15941E+06
 0.39999995E+01  0.15582E+06
 0.40499997E+01  0.14934E+06
 0.40999994E+01  0.14013E+06
 0.41499996E+01  0.12846E+06
 0.41999998E+01  0.11456E+06
 0.42499995E+01  0.98700E+05
 0.42999997E+01  0.81424E+05
 0.43499994E+01  0.63312E+05
 0.43999996E+01  0.44912E+05
 0.44499998E+01  0.26925E+05
 0.44999995E+01  0.10076E+05
 0.45499997E+01 -0.50307E+04
 0.45999994E+01 -0.18055E+05
 0.46499996E+01 -0.28568E+05
 0.46999998E+01 -0.35984E+05
 0.47499995E+01 -0.39764E+05
 0.47999997E+01 -0.39800E+05
 0.48499994E+01 -0.36324E+05
 0.48999996E+01 -0.29862E+05
 0.49499998E+01 -0.21475E+05
 0.49999995E+01 -0.12122E+05
 0.50499997E+01 -0.22229E+04
 0.50999994E+01  0.81183E+04
 0.51499996E+01  0.18617E+05
 0.51999998E+01  0.29199E+05
 0.52499995E+01  0.40013E+05
 0.52999997E+01  0.50903E+05
 0.53499994E+01  0.61745E+05
 0.53999996E+01  0.72243E+05
 0.54499993E+01  0.81921E+05
 0.54999995E+01  0.90464E+05
 0.55499997E+01  0.97519E+05
 0.55999994E+01  0.10253E+06
 0.56499996E+01  0.10512E+06
 0.56999993E+01  0.10543E+06
 0.57499995E+01  0.10380E+06
 0.57999997E+01  0.10036E+06
 0.58499994E+01  0.95350E+05
 0.58999996E+01  0.88915E+05
 0.59499993E+01  0.81132E+05
 0.59999995E+01  0.72038E+05
 0.60499992E+01  0.61715E+05
 0.60999994E+01  0.50590E+05
 0.61499996E+01  0.39175E+05
 0.61999998E+01  0.28169E+05
 0.62499990E+01  0.18209E+05
 0.62999992E+01  0.99635E+04
 0.63499994E+01  0.39436E+04
 0.63999996E+01 -0.80252E+02
 0.64499998E+01 -0.26039E+04
 0.64999990E+01 -0.36697E+04
 0.65499992E+01 -0.32857E+04
 0.65999994E+01 -0.19690E+04
 0.66499996E+01 -0.17207E+03
 0.66999998E+01  0.18182E+04
 0.67499990E+01  0.36746E+04
 0.67999992E+01  0.47910E+04
 0.68499994E+01  0.46027E+04
 0.68999996E+01  0.29747E+04
 0.69499998E+01  0.31067E+03
 0.69999990E+01 -0.27693E+04
 0.70499992E+01 -0.57384E+04
 0.70999994E+01 -0.79280E+04
 0.71499996E+01 -0.88628E+04
 0.71999998E+01 -0.84976E+04
 0.72499990E+01 -0.74468E+04
 0.72999992E+01 -0.64362E+04
 0.73499994E+01 -0.62162E+04
 0.73999996E+01 -0.78095E+04
 0.74499998E+01 -0.11753E+05
 0.74999990E+01 -0.18176E+05
 0.75499992E+01 -0.26854E+05
 0.75999994E+01 -0.37520E+05
 0.76499996E+01 -0.49548E+05
 0.76999998E+01 -0.62318E+05
 0.77499990E+01 -0.75473E+05
 0.77999992E+01 -0.88404E+05
 0.78499994E+01 -0.10060E+06
 0.78999996E+01 -0.11150E+06
 0.79499998E+01 -0.12088E+06
 0.79999990E+01 -0.12851E+06
 0.80499992E+01 -0.13382E+06
 0.80999994E+01 -0.13631E+06
 0.81499996E+01 -0.13559E+06
 0.81999998E+01 -0.13158E+06
 0.82499990E+01 -0.12481E+06
 0.82999992E+01 -0.11620E+06
 0.83499994E+01 -0.10671E+06
 0.83999996E+01 -0.97326E+05
 0.84499998E+01 -0.88455E+05
 0.84999990E+01 -0.80281E+05
 0.85499992E+01 -0.73260E+05
 0.85999994E+01 -0.67474E+05
 0.86499996E+01 -0.62981E+05
 0.86999998E+01 -0.59872E+05
 0.87499990E+01 -0.58377E+05
 0.87999992E+01 -0.58556E+05
 0.88499994E+01 -0.60129E+05
 0.88999996E+01 -0.62643E+05
 0.89499998E+01 -0.65663E+05
 0.89999990E+01 -0.69028E+05
 0.90499992E+01 -0.72527E+05
 0.90999994E+01 -0.75722E+05
 0.91499996E+01 -0.77925E+05
 0.91999989E+01 -0.78696E+05
 0.92499990E+01 -0.77749E+05
 0.92999992E+01 -0.74961E+05
 0.93499994E+01 -0.70341E+05
 0.93999996E+01 -0.63831E+05
 0.94499989E+01 -0.55144E+05
 0.94999990E+01 -0.44229E+05
 0.95499992E+01 -0.31373E+05
 0.95999994E+01 -0.16899E+05
 0.96499996E+01 -0.13297E+04
 0.96999989E+01  0.14711E+05
 0.97499990E+01  0.30343E+05
 0.97999992E+01  0.44696E+05
 0.98499994E+01  0.57467E+05
 0.98999996E+01  0.68504E+05
 0.99499989E+01  0.77556E+05
 0.99999990E+01  0.84488E+05
 0.10049999E+02  0.89096E+05
 0.10099999E+02  0.91278E+05
 0.10150000E+02  0.91257E+05
 0.10199999E+02  0.89366E+05
 0.10249999E+02  0.85834E+05
 0.10299999E+02  0.80767E+05
 0.10349999E+02  0.74534E+05
 0.10400000E+02  0.67681E+05
 0.10449999E+02  0.60622E+05
 0.10499999E+02  0.53815E+05
 0.10549999E+02  0.47718E+05
 0.10599999E+02  0.42825E+05
 0.10650000E+02  0.39469E+05
 0.10699999E+02  0.37429E+05
 0.10749999E+02  0.36156E+05
 0.10799999E+02  0.34917E+05
 0.10849999E+02  0.32923E+05
 0.10900000E+02  0.29584E+05
 0.10949999E+02  0.24405E+05
 0.10999999E+02  0.17256E+05
 0.11049999E+02  0.82988E+04
 0.11099999E+02 -0.19087E+04
 0.11150000E+02 -0.12521E+05
 0.11199999E+02 -0.22827E+05
 0.11249999E+02 -0.32406E+05
 0.11299999E+02 -0.41048E+05
 0.11349999E+02 -0.48192E+05
 0.11400000E+02 -0.52924E+05
 0.11449999E+02 -0.54550E+05
 0.11499999E+02 -0.52912E+05
 0.11549999E+02 -0.48266E+05
 0.11599999E+02 -0.40855E+05
 0.11650000E+02 -0.30958E+05
 0.11699999E+02 -0.19253E+05
 0.11749999E+02 -0.62496E+04
 0.11799999E+02  0.78203E+04
 0.11849999E+02  0.22749E+05
 0.11900000E+02  0.38156E+05
 0.11949999E+02  0.53515E+05
 0.11999999E+02  0.68255E+05
 0.12049999E+02  0.81838E+05
 0.12099999E+02  0.93938E+05
 0.12150000E+02  0.10440E+06
 0.12199999E+02  0.11313E+06
 0.12249999E+02  0.12026E+06
 0.12299999E+02  0.12592E+06
 0.12349999E+02  0.13006E+06
 0.12400000E+02  0.13260E+06
 0.12449999E+02  0.13353E+06
 0.12499999E+02  0.13317E+06
 0.12549999E+02  0.13206E+06
 0.12599999E+02  0.13063E+06
 0.12649999E+02  0.12867E+06
 0.12699999E+02  0.12580E+06
 0.12749999E+02  0.12197E+06
 0.12799999E+02  0.11735E+06
 0.12849999E+02  0.11178E+06
 0.12899999E+02  0.10493E+06
 0.12949999E+02  0.96764E+05
 0.12999999E+02  0.87363E+05
 0.13049999E+02  0.76860E+05
 0.13099999E+02  0.65263E+05
 0.13149999E+02  0.52848E+05
 0.13199999E+02  0.39848E+05
 0.13249999E+02  0.26178E+05
 0.13299999E+02  0.11832E+05
 0.13349999E+02 -0.28335E+04
 0.13399999E+02 -0.17137E+05
 0.13449999E+02 -0.30878E+05
 0.13499999E+02 -0.43906E+05
 0.13549999E+02 -0.55728E+05
 0.13599999E+02 -0.65941E+05
 0.13649999E+02 -0.74315E+05
 0.13699999E+02 -0.80901E+05
 0.13749999E+02 -0.85624E+05
 0.13799999E+02 -0.88526E+05
 0.13849999E+02 -0.89672E+05
 0.13899999E+02 -0.89136E+05
 0.13949999E+02 -0.87318E+05
 0.13999999E+02 -0.84537E+05
 0.14049999E+02 -0.81147E+05
 0.14099998E+02 -0.77340E+05
 0.14150000E+02 -0.73131E+05
 0.14199999E+02 -0.68277E+05
 0.14249998E+02 -0.62663E+05
 0.14299999E+02 -0.56647E+05
 0.14349998E+02 -0.50634E+05
 0.14400000E+02 -0.45167E+05
 0.14449999E+02 -0.40667E+05
 0.14499998E+02 -0.37318E+05
 0.14549999E+02 -0.35302E+05
 0.14599998E+02 -0.34932E+05
 0.14650000E+02 -0.36481E+05
 0.14699999E+02 -0.40046E+05
 0.14749998E+02 -0.45516E+05
 0.14799999E+02 -0.52789E+05
 0.14849998E+02 -0.61818E+05
 0.14900000E+02 -0.72520E+05
 0.14949999E+02 -0.84732E+05
 0.14999998E+02 -0.98090E+05
 0.15049999E+02 -0.11220E+06
 0.15099998E+02 -0.12663E+06
 0.15150000E+02 -0.14112E+06
 0.15199999E+02 -0.15545E+06
 0.15249998E+02 -0.16890E+06
 0.15299999E+02 -0.18035E+06
 0.15349998E+02 -0.18853E+06
 0.15400000E+02 -0.19251E+06
 0.15449999E+02 -0.19212E+06
 0.15499998E+02 -0.18724E+06
 0.15549999E+02 -0.17796E+06
 0.15599998E+02 -0.16478E+06
 0.15650000E+02 -0.14815E+06
 0.15699999E+02 -0.12867E+06
 0.15749998E+02 -0.10705E+06
 0.15799999E+02 -0.84007E+05
 0.15849998E+02 -0.60342E+05
 0.15900000E+02 -0.36578E+05
 0.15949999E+02 -0.13284E+05
 0.15999998E+02  0.87062E+04
 0.16049999E+02  0.28728E+05
 0.16099998E+02  0.46043E+05
 0.16150000E+02  0.59943E+05
 0.16199999E+02  0.70013E+05
 0.16249998E+02  0.75857E+05
 0.16299999E+02  0.77608E+05
 0.16349998E+02  0.75990E+05
 0.16400000E+02  0.71558E+05
 0.16449999E+02  0.65070E+05
 0.16499998E+02  0.57523E+05
 0.16549999E+02  0.49650E+05
 0.16599998E+02  0.42081E+05
 0.16650000E+02  0.35556E+05
 0.16699999E+02  0.30812E+05
 0.16749998E+02  0.28511E+05
 0.16799999E+02  0.28917E+05
 0.16849998E+02  0.31860E+05
 0.16900000E+02  0.37013E+05
 0.16949999E+02  0.43842E+05
 0.16999998E+02  0.51678E+05
 0.17049999E+02  0.59687E+05
 0.17099998E+02  0.67082E+05
 0.17150000E+02  0.73354E+05
 0.17199999E+02  0.78451E+05
 0.17249998E+02  0.82427E+05
 0.17299999E+02  0.85496E+05
 0.17349998E+02  0.87923E+05
 0.17400000E+02  0.89638E+05
 0.17449999E+02  0.90414E+05
 0.17499998E+02  0.90320E+05
 0.17549999E+02  0.89447E+05
 0.17599998E+02  0.87609E+05
 0.17650000E+02  0.84841E+05
 0.17699999E+02  0.81519E+05
 0.17749998E+02  0.77663E+05
 0.17799999E+02  0.73052E+05
 0.17849998E+02  0.67872E+05
 0.17900000E+02  0.62512E+05
 0.17949999E+02  0.57145E+05
 0.17999998E+02  0.51705E+05
 0.18049999E+02  0.46331E+05
 0.18099998E+02  0.41052E+05
 0.18150000E+02  0.35789E+05
 0.18199999E+02  0.30441E+05
 0.18249998E+02  0.25164E+05
 0.18299999E+02  0.20291E+05
 0.18349998E+02  0.15919E+05
 0.18400000E+02  0.12196E+05
 0.18449999E+02  0.94500E+04
 0.18499998E+02  0.78661E+04
 0.18549999E+02  0.74354E+04
 0.18599998E+02  0.80908E+04
 0.18650000E+02  0.95899E+04
 0.18699999E+02  0.11777E+05
 0.18749998E+02  0.14597E+05
 0.18799999E+02  0.17776E+05
 0.18849998E+02  0.21077E+05
 0.18900000E+02  0.24432E+05
 0.18949999E+02  0.27729E+05
 0.18999998E+02  0.30838E+05
 0.19049999E+02  0.33641E+05
 0.19099998E+02  0.36451E+05
 0.19150000E+02  0.39522E+05
 0.19199999E+02  0.42766E+05
 0.19249998E+02  0.46118E+05
 0.19299999E+02  0.49532E+05
 0.19349998E+02  0.53026E+05
 0.19400000E+02  0.56530E+05
 0.19449999E+02  0.60211E+05
 0.19499998E+02  0.64334E+05
 0.19549999E+02  0.69048E+05
 0.19599998E+02  0.74442E+05
 0.19650000E+02  0.80565E+05
 0.19699999E+02  0.87242E+05
 0.19749998E+02  0.93997E+05
 0.19799999E+02  0.10033E+06
 0.19849998E+02  0.10599E+06
 0.19900000E+02  0.11080E+06
 0.19949999E+02  0.11469E+06
 0.19999998E+02  0.11786E+06
 0.20049999E+02  0.12021E+06
 0.20099998E+02  0.12166E+06
 0.20150000E+02  0.12201E+06
 0.20199999E+02  0.12109E+06
 0.20249998E+02  0.11873E+06
 0.20299999E+02  0.11457E+06
 0.20349998E+02  0.10829E+06
 0.20399998E+02  0.99751E+05
 0.20449999E+02  0.89101E+05
 0.20499998E+02  0.76419E+05
 0.20549999E+02  0.61988E+05
 0.20599998E+02  0.46185E+05
 0.20649998E+02  0.29422E+05
 0.20699999E+02  0.12159E+05
 0.20749998E+02 -0.51449E+04
 0.20799999E+02 -0.22133E+05
 0.20849998E+02 -0.38379E+05
 0.20899998E+02 -0.53381E+05
 0.20949999E+02 -0.66886E+05
 0.20999998E+02 -0.78628E+05
 0.21049999E+02 -0.88473E+05
 0.21099998E+02 -0.96544E+05
 0.21149998E+02 -0.10314E+06
 0.21199999E+02 -0.10872E+06
 0.21249998E+02 -0.11364E+06
 0.21299999E+02 -0.11831E+06
 0.21349998E+02 -0.12301E+06
 0.21399998E+02 -0.12789E+06
 0.21449999E+02 -0.13325E+06
 0.21499998E+02 -0.13887E+06
 0.21549999E+02 -0.14416E+06
 0.21599998E+02 -0.14861E+06
 0.21649998E+02 -0.15176E+06
 0.21699999E+02 -0.15310E+06
 0.21749998E+02 -0.15242E+06
 0.21799999E+02 -0.14974E+06
 0.21849998E+02 -0.14525E+06
 0.21899998E+02 -0.13927E+06
 0.21949999E+02 -0.13219E+06
 0.21999998E+02 -0.12470E+06
 0.22049999E+02 -0.11738E+06
 0.22099998E+02 -0.11074E+06
 0.22149998E+02 -0.10534E+06
 0.22199999E+02 -0.10148E+06
 0.22249998E+02 -0.99365E+05
 0.22299999E+02 -0.99137E+05
 0.22349998E+02 -0.10117E+06
 0.22399998E+02 -0.10547E+06
 0.22449999E+02 -0.11133E+06
 0.22499998E+02 -0.11799E+06
 0.22549999E+02 -0.12469E+06
 0.22599998E+02 -0.13077E+06
 0.22649998E+02 -0.13534E+06
 0.22699999E+02 -0.13761E+06
 0.22749998E+02 -0.13725E+06
 0.22799999E+02 -0.13446E+06
 0.22849998E+02 -0.12953E+06
 0.22899998E+02 -0.12253E+06
 0.22949999E+02 -0.11364E+06
 0.22999998E+02 -0.10299E+06
 0.23049999E+02 -0.90876E+05
 0.23099998E+02 -0.77939E+05
 0.23149998E+02 -0.64866E+05
 0.23199999E+02 -0.52403E+05
 0.23249998E+02 -0.40978E+05
 0.23299999E+02 -0.30689E+05
 0.23349998E+02 -0.21583E+05
 0.23399998E+02 -0.13649E+05
 0.23449999E+02 -0.68788E+04
 0.23499998E+02 -0.98294E+03
 0.23549999E+02  0.46376E+04
 0.23599998E+02  0.10496E+05
 0.23649998E+02  0.16730E+05
 0.23699999E+02  0.23227E+05
 0.23749998E+02  0.30011E+05
 0.23799999E+02  0.37198E+05
 0.23849998E+02  0.44670E+05
 0.23899998E+02  0.52130E+05
 0.23949999E+02  0.59363E+05
 0.23999998E+02  0.66126E+05
 0.24049999E+02  0.72609E+05
 0.24099998E+02  0.79090E+05
 0.24149998E+02  0.85536E+05
 0.24199999E+02  0.92068E+05
 0.24249998E+02  0.98877E+05
 0.24299999E+02  0.10588E+06
 0.24349998E+02  0.11292E+06
 0.24399998E+02  0.12003E+06
 0.24449999E+02  0.12741E+06
 0.24499998E+02  0.13505E+06
 0.24549999E+02  0.14266E+06
 0.24599998E+02  0.14992E+06
 0.24649998E+02  0.15639E+06
 0.24699999E+02  0.16152E+06
 0.24749998E+02  0.16475E+06
 0.24799999E+02  0.16583E+06
 0.24849998E+02  0.16465E+06
 0.24899998E+02  0.16111E+06
 0.24949999E+02  0.15536E+06
 0.24999998E+02  0.14739E+06
 0.25049999E+02  0.13721E+06
 0.25099998E+02  0.12510E+06
 0.25149998E+02  0.11144E+06
 0.25199999E+02  0.96564E+05
 0.25249998E+02  0.80917E+05
 0.25299999E+02  0.65150E+05
 0.25349998E+02  0.49975E+05
 0.25399998E+02  0.35761E+05
 0.25449999E+02  0.22793E+05
 0.25499998E+02  0.11522E+05
 0.25549999E+02  0.21882E+04
 0.25599998E+02 -0.53600E+04
 0.25649998E+02 -0.11390E+05
 0.25699999E+02 -0.16166E+05
 0.25749998E+02 -0.19646E+05
 0.25799999E+02 -0.22084E+05
 0.25849998E+02 -0.23963E+05
 0.25899998E+02 -0.25413E+05
 0.25949999E+02 -0.26585E+05
 0.25999998E+02 -0.27505E+05
 0.26049999E+02 -0.28188E+05
 0.26099998E+02 -0.28890E+05
 0.26149998E+02 -0.29755E+05
 0.26199999E+02 -0.30632E+05
 0.26249998E+02 -0.31330E+05
 0.26299999E+02 -0.31678E+05
 0.26349998E+02 -0.31564E+05
 0.26399998E+02 -0.30946E+05
 0.26449999E+02 -0.29963E+05
 0.26499998E+02 -0.28823E+05
 0.26549999E+02 -0.27842E+05
 0.26599998E+02 -0.27387E+05
 0.26649998E+02 -0.27654E+05
 0.26699999E+02 -0.28912E+05
 0.26749998E+02 -0.31209E+05
 0.26799999E+02 -0.34789E+05
 0.26849998E+02 -0.40000E+05
 0.26899998E+02 -0.46559E+05
 0.26949999E+02 -0.54018E+05
 0.26999998E+02 -0.61998E+05
 0.27049997E+02 -0.70189E+05
 0.27099998E+02 -0.77876E+05
 0.27149998E+02 -0.84085E+05
 0.27199999E+02 -0.88198E+05
 0.27249998E+02 -0.89963E+05
 0.27299997E+02 -0.89127E+05
 0.27349998E+02 -0.85497E+05
 0.27399998E+02 -0.79140E+05
 0.27449999E+02 -0.70270E+05
 0.27499998E+02 -0.59206E+05
 0.27549997E+02 -0.46755E+05
 0.27599998E+02 -0.33738E+05
 0.27649998E+02 -0.20474E+05
 0.27699999E+02 -0.68202E+04
 0.27749998E+02  0.60654E+04
 0.27799997E+02  0.16647E+05
 0.27849998E+02  0.25135E+05
 0.27899998E+02  0.32567E+05
 0.27949999E+02  0.38954E+05
 0.27999998E+02  0.43691E+05
 0.28049997E+02  0.47409E+05
 0.28099998E+02  0.48969E+05
 0.28149998E+02  0.46728E+05
 0.28199999E+02  0.42666E+05
 0.28249998E+02  0.40670E+05
 0.28299997E+02  0.40224E+05
 0.28349998E+02  0.38134E+05
 0.28399998E+02  0.34109E+05
 0.28449999E+02  0.29607E+05
 0.28499998E+02  0.26157E+05
 0.28549997E+02  0.26046E+05
 0.28599998E+02  0.27836E+05
 0.28649998E+02  0.27842E+05
 0.28699999E+02  0.22964E+05
 0.28749998E+02  0.14891E+05
 0.28799997E+02  0.11264E+05
 0.28849998E+02  0.13732E+05
 0.28899998E+02  0.16285E+05
 0.28949999E+02  0.14511E+05
 0.28999998E+02  0.43656E+04
 0.29049997E+02 -0.67675E+04
 0.29099998E+02 -0.13227E+05
 0.29149998E+02 -0.90251E+04
 0.29199999E+02  0.10886E+04
 0.29249998E+02  0.31337E+04
 0.29299997E+02  0.17022E+04
 0.29349998E+02  0.64221E+03
 0.29399998E+02  0.11400E+04
 0.29449999E+02  0.89863E+04
 0.29499998E+02  0.20867E+05
 0.29549997E+02  0.29209E+05
 0.29599998E+02  0.27313E+05
 0.29649998E+02  0.20038E+05
 0.29699999E+02  0.21202E+05
 0.29749998E+02  0.20866E+05
 0.29799997E+02  0.12486E+05
 0.29849998E+02  0.47430E+04
 0.29899998E+02  0.30134E+04
 0.29949999E+02 -0.11623E+05
 0.29999998E+02 -0.26256E+05
 0.30049999E+02 -0.23328E+05
 0.30099998E+02 -0.33509E+05
 0.30149998E+02 -0.48940E+05
 0.30199997E+02 -0.57604E+05
 0.30249996E+02 -0.64699E+05
 0.30299999E+02 -0.63499E+05
 0.30349998E+02 -0.63281E+05
 0.30399998E+02 -0.58609E+05
 0.30449997E+02 -0.60757E+05
 0.30499996E+02 -0.75393E+05
 0.30549999E+02 -0.81493E+05
 0.30599998E+02 -0.65900E+05
 0.30649998E+02 -0.57798E+05
 0.30699997E+02 -0.52418E+05
 0.30749996E+02 -0.35323E+05
 0.30799999E+02 -0.25252E+05
 0.30849998E+02 -0.13861E+05
 0.30899998E+02  0.13426E+05
 0.30949997E+02  0.41632E+05
 0.30999996E+02  0.38240E+05
 0.31049999E+02  0.40357E+05
 0.31099998E+02  0.45513E+05
 0.31149998E+02  0.49140E+05
 0.31199997E+02  0.50595E+05
 0.31249996E+02  0.46235E+05
 0.31299999E+02  0.40971E+05
 0.31349998E+02  0.25710E+05
 0.31399998E+02  0.30224E+05
 0.31449997E+02  0.45223E+05
 0.31499996E+02  0.35730E+05
 0.31549999E+02  0.30681E+05
 0.31599998E+02  0.32178E+05
 0.31649998E+02  0.29598E+05
 0.31699997E+02  0.35167E+05
 0.31749996E+02  0.46129E+05
 0.31799999E+02  0.38711E+05
 0.31849998E+02  0.16428E+05
 0.31899998E+02  0.36165E+05
 0.31949997E+02  0.57177E+05
 0.31999996E+02  0.50494E+05
 0.32049999E+02  0.32501E+05
 0.32099998E+02  0.11761E+05
 0.32149998E+02  0.10107E+05
 0.32199997E+02  0.14986E+05
 0.32249996E+02  0.23033E+05
 0.32299999E+02  0.36165E+05
 0.32349998E+02  0.31446E+05
 0.32399998E+02  0.23620E+05
 0.32449997E+02  0.19867E+05
 0.32499996E+02  0.19507E+05
 0.32549999E+02  0.36406E+05
 0.32599998E+02  0.57459E+05
 0.32649998E+02  0.78789E+05
 0.32699997E+02  0.83227E+05
 0.32749996E+02  0.81384E+05
 0.32799999E+02  0.75517E+05
 0.32849998E+02  0.58767E+05
 0.32899998E+02  0.58721E+05
 0.32949997E+02  0.58635E+05
 0.32999996E+02  0.46104E+05
 0.33049999E+02  0.15437E+05
 0.33099998E+02 -0.27187E+04
 0.33149998E+02 -0.12187E+05
 0.33199997E+02 -0.26468E+05
 0.33249996E+02 -0.38185E+05
 0.33299999E+02 -0.48993E+05
 0.33349998E+02 -0.67674E+05
 0.33399998E+02 -0.10176E+06
 0.33449997E+02 -0.11872E+06
 0.33499996E+02 -0.11590E+06
 0.33549999E+02 -0.96003E+05
 0.33599998E+02 -0.71678E+05
 0.33649998E+02 -0.55363E+05
 0.33699997E+02 -0.58117E+05
 0.33749996E+02 -0.23827E+05
 0.33799999E+02  0.85354E+04
 0.33849998E+02  0.12671E+05
 0.33899998E+02  0.16059E+05
 0.33949997E+02  0.26134E+05
 0.33999996E+02  0.23254E+05
 0.34049999E+02  0.59581E+04
 0.34099998E+02  0.28716E+05
 0.34149998E+02  0.49375E+05
 0.34199997E+02  0.54279E+05
 0.34249996E+02  0.53727E+05
 0.34299999E+02  0.46771E+05
 0.34349998E+02  0.44954E+05
 0.34399998E+02  0.76044E+05
 0.34449997E+02  0.61557E+05
 0.34499996E+02  0.17668E+05
 0.34549999E+02 -0.17530E+04
 0.34599998E+02  0.61502E+04
 0.34649998E+02  0.21168E+05
 0.34699997E+02  0.38362E+04
 0.34749996E+02 -0.26776E+04
 0.34799999E+02 -0.32039E+05
 0.34849998E+02 -0.90969E+05
 0.34899998E+02 -0.12957E+06
 0.34949997E+02 -0.11811E+06
 0.34999996E+02 -0.90994E+05
 0.35049999E+02 -0.86464E+05
 0.35099998E+02 -0.10872E+06
 0.35149998E+02 -0.15112E+06
 0.35199997E+02 -0.17435E+06
 0.35249996E+02 -0.15856E+06
 0.35299999E+02 -0.15095E+06
 0.35349998E+02 -0.15074E+06
 0.35399998E+02 -0.12038E+06
 0.35449997E+02 -0.13065E+06
 0.35499996E+02 -0.17635E+06
 0.35549999E+02 -0.15807E+06
 0.35599998E+02 -0.10364E+06
 0.35649998E+02 -0.97380E+05
 0.35699997E+02 -0.10663E+06
 0.35749996E+02 -0.10486E+06
 0.35799999E+02 -0.10682E+06
 0.35849998E+02 -0.11022E+06
 0.35899998E+02 -0.11152E+06
 0.35949997E+02 -0.99993E+05
 0.35999996E+02 -0.87027E+05
 0.36049999E+02 -0.69944E+05
 0.36099998E+02 -0.66280E+05
 0.36149998E+02 -0.52732E+05
 0.36199997E+02 -0.31520E+05
 0.36249996E+02 -0.42845E+05
 0.36299999E+02 -0.52549E+05
 0.36349998E+02 -0.32161E+05
 0.36399998E+02 -0.11659E+05
 0.36449997E+02 -0.28855E+04
 0.36499996E+02 -0.19556E+04
 0.36549999E+02 -0.71606E+03
 0.36599998E+02 -0.29462E+04
 0.36649998E+02 -0.12979E+05
 0.36699997E+02 -0.23452E+05
 0.36749996E+02 -0.67813E+05
 0.36799999E+02 -0.90510E+05
 0.36849998E+02 -0.87672E+05
 0.36899998E+02 -0.71590E+05
 0.36949997E+02 -0.73256E+05
 0.36999996E+02 -0.58120E+05
 0.37049999E+02 -0.45832E+05
 0.37099998E+02 -0.72151E+05
 0.37149998E+02 -0.60718E+05
 0.37199997E+02 -0.23715E+05
 0.37249996E+02  0.48697E+04
 0.37299999E+02 -0.14986E+05
 0.37349998E+02 -0.90008E+04
 0.37399998E+02  0.15480E+05
 0.37449997E+02  0.23154E+05
 0.37499996E+02  0.37110E+05
 0.37549999E+02  0.73440E+05
 0.37599998E+02  0.11057E+06
 0.37649998E+02  0.12999E+06
 0.37699997E+02  0.15389E+06
 0.37749996E+02  0.16225E+06
 0.37799999E+02  0.15326E+06
 0.37849998E+02  0.14608E+06
 0.37899998E+02  0.12857E+06
 0.37949997E+02  0.11587E+06
 0.37999996E+02  0.12250E+06
 0.38049999E+02  0.11428E+06
 0.38099998E+02  0.13118E+06
 0.38149998E+02  0.14329E+06
 0.38199997E+02  0.10766E+06
 0.38249996E+02  0.10771E+06
 0.38299999E+02  0.14028E+06
 0.38349998E+02  0.11902E+06
 0.38399998E+02  0.11275E+06
 0.38449997E+02  0.15145E+06
 0.38499996E+02  0.14062E+06
 0.38549999E+02  0.96727E+05
 0.38599998E+02  0.49201E+05
 0.38649998E+02  0.27961E+05
 0.38699997E+02  0.35272E+05
 0.38749996E+02  0.63513E+05
 0.38799999E+02  0.76439E+05
 0.38849998E+02  0.68760E+05
 0.38899998E+02  0.39204E+05
 0.38949997E+02  0.12941E+05
 0.38999996E+02  0.43337E+05
 0.39049999E+02  0.56947E+05
 0.39099998E+02  0.27868E+05
 0.39149998E+02  0.17534E+05
 0.39199997E+02  0.26590E+05
 0.39249996E+02 -0.13874E+05
 0.39299999E+02 -0.41495E+05
 0.39349998E+02 -0.55496E+05
 0.39399998E+02 -0.58675E+05
 0.39449997E+02 -0.29625E+05
 0.39499996E+02 -0.30488E+05
 0.39549999E+02 -0.63517E+05
 0.39599998E+02 -0.82560E+05
 0.39649998E+02 -0.59264E+05
 0.39699997E+02 -0.23233E+05
 0.39749996E+02  0.46578E+04
 0.39799999E+02 -0.16237E+05
 0.39849998E+02 -0.24633E+05
 0.39899998E+02 -0.11670E+04
 0.39949997E+02  0.49227E+04
 0.39999996E+02  0.47681E+04
 0.40049999E+02  0.18789E+05
 0.40099998E+02  0.65211E+05
 0.40149998E+02  0.91483E+05
 0.40199997E+02  0.10022E+06
 0.40249996E+02  0.13070E+06
 0.40299999E+02  0.14759E+06
 0.40349998E+02  0.14585E+06
 0.40399998E+02  0.16658E+06
 0.40449997E+02  0.16472E+06
 0.40499996E+02  0.13577E+06
 0.40549999E+02  0.92747E+05
 0.40599998E+02  0.50304E+05
 0.40649998E+02  0.26372E+05
 0.40699997E+02  0.16453E+05
 0.40749996E+02  0.69681E+04
 0.40799999E+02 -0.26640E+05
 0.40849998E+02 -0.74368E+05
 0.40899998E+02 -0.12251E+06
 0.40949997E+02 -0.15315E+06
 0.40999996E+02 -0.16098E+06
 0.41049999E+02 -0.15459E+06
 0.41099998E+02 -0.19850E+06
 0.41149998E+02 -0.25046E+06
 0.41199997E+02 -0.28220E+06
 0.41249996E+02 -0.26585E+06
 0.41299999E+02 -0.21355E+06
 0.41349998E+02 -0.15877E+06
 0.41399998E+02 -0.11477E+06
 0.41449997E+02 -0.10615E+06
 0.41499996E+02 -0.95696E+05
 0.41549999E+02 -0.10499E+06
 0.41599998E+02 -0.12029E+06
 0.41649998E+02 -0.12642E+06
 0.41699997E+02 -0.82899E+05
 0.41749996E+02 -0.50830E+05
 0.41799999E+02 -0.65430E+05
 0.41849998E+02 -0.64466E+05
 0.41899998E+02 -0.57848E+05
 0.41949997E+02 -0.50170E+05
 0.41999996E+02 -0.15993E+05
 0.42049999E+02  0.49177E+04
 0.42099998E+02  0.31866E+05
 0.42149998E+02  0.61220E+05
 0.42199997E+02  0.54433E+05
 0.42249996E+02  0.94840E+05
 0.42299999E+02  0.13752E+06
 0.42349998E+02  0.12915E+06
 0.42399998E+02  0.86998E+05
 0.42449997E+02  0.30596E+05
 0.42499996E+02 -0.20558E+05
 0.42549999E+02 -0.44258E+05
 0.42599998E+02 -0.34336E+05
 0.42649998E+02 -0.24243E+05
 0.42699997E+02 -0.25995E+05
 0.42749996E+02 -0.45086E+05
 0.42799995E+02 -0.90352E+05
 0.42849998E+02 -0.11844E+06
 0.42899998E+02 -0.14445E+06
 0.42949997E+02 -0.16837E+06
 0.42999996E+02 -0.16254E+06
 0.43049995E+02 -0.18109E+06
 0.43099998E+02 -0.17287E+06
 0.43149998E+02 -0.10381E+06
 0.43199997E+02 -0.74039E+04
 0.43249996E+02  0.66649E+05
 0.43299995E+02  0.10142E+06
 0.43349998E+02  0.12846E+06
 0.43399998E+02  0.14378E+06
 0.43449997E+02  0.17758E+06
 0.43499996E+02  0.17548E+06
 0.43549995E+02  0.15540E+06
 0.43599998E+02  0.14203E+06
 0.43649998E+02  0.11511E+06
 0.43699997E+02  0.12593E+06
 0.43749996E+02  0.15983E+06
 0.43799995E+02  0.20883E+06
 0.43849998E+02  0.21849E+06
 0.43899998E+02  0.19822E+06
 0.43949997E+02  0.14795E+06
 0.43999996E+02  0.82713E+05
 0.44049995E+02  0.76604E+05
 0.44099998E+02  0.10437E+06
 0.44149998E+02  0.10741E+06
 0.44199997E+02  0.10128E+06
 0.44249996E+02  0.99313E+05
 0.44299995E+02  0.65425E+05
 0.44349998E+02  0.37796E+05
 0.44399998E+02  0.46656E+05
 0.44449997E+02  0.69178E+05
 0.44499996E+02  0.10702E+06
 0.44549995E+02  0.13149E+06
 0.44599998E+02  0.10564E+06
 0.44649998E+02  0.69924E+05
 0.44699997E+02  0.29076E+05
 0.44749996E+02 -0.17766E+05
 0.44799995E+02 -0.19736E+05
 0.44849998E+02 -0.85449E+04
 0.44899998E+02 -0.90256E+04
 0.44949997E+02  0.15521E+05
 0.44999996E+02  0.34508E+05
 0.45049995E+02  0.10162E+06
 0.45099998E+02  0.18204E+06
 0.45149998E+02  0.20691E+06
 0.45199997E+02  0.21384E+06
 0.45249996E+02  0.17944E+06
 0.45299995E+02  0.12846E+06
 0.45349998E+02  0.63466E+05
 0.45399998E+02  0.41964E+05
 0.45449997E+02  0.73258E+05
 0.45499996E+02  0.64435E+05
 0.45549995E+02  0.46379E+05
 0.45599998E+02  0.27237E+05
 0.45649998E+02  0.20581E+05
 0.45699997E+02  0.36980E+05
 0.45749996E+02  0.34610E+05
 0.45799995E+02  0.67833E+04
 0.45849998E+02 -0.41153E+05
 0.45899998E+02 -0.11658E+06
 0.45949997E+02 -0.17730E+06
 0.45999996E+02 -0.16224E+06
 0.46049995E+02 -0.10494E+06
 0.46099998E+02 -0.66161E+05
 0.46149998E+02 -0.10199E+06
 0.46199997E+02 -0.13350E+06
 0.46249996E+02 -0.11965E+06
 0.46299995E+02 -0.98134E+05
 0.46349998E+02 -0.65522E+05
 0.46399998E+02 -0.46047E+05
 0.46449997E+02 -0.28187E+05
 0.46499996E+02 -0.27049E+05
 0.46549995E+02 -0.33957E+05
 0.46599998E+02 -0.46014E+05
 0.46649998E+02 -0.78361E+05
 0.46699997E+02 -0.12991E+06
 0.46749996E+02 -0.17306E+06
 0.46799995E+02 -0.18120E+06
 0.46849998E+02 -0.19348E+06
 0.46899998E+02 -0.20833E+06
 0.46949997E+02 -0.17601E+06
 0.46999996E+02 -0.92022E+05
 0.47049995E+02  0.10193E+05
 0.47099998E+02  0.11456E+05
 0.47149998E+02 -0.50300E+05
 0.47199997E+02 -0.78353E+05
 0.47249996E+02 -0.63121E+05
 0.47299995E+02 -0.10655E+05
 0.47349998E+02 -0.72586E+04
 0.47399998E+02  0.59446E+03
 0.47449997E+02  0.29739E+05
 0.47499996E+02  0.47367E+05
 0.47549995E+02  0.22315E+05
 0.47599998E+02 -0.24040E+05
 0.47649998E+02 -0.18970E+05
 0.47699997E+02 -0.54740E+04
 0.47749996E+02  0.13311E+05
 0.47799995E+02  0.16527E+05
 0.47849998E+02  0.52470E+05
 0.47899998E+02  0.11347E+06
 0.47949997E+02  0.13338E+06
 0.47999996E+02  0.16684E+06
 0.48049995E+02  0.18857E+06
 0.48099998E+02  0.16426E+06
 0.48149998E+02  0.10001E+06
 0.48199997E+02  0.26124E+05
 0.48249996E+02 -0.13524E+04
 0.48299995E+02  0.42241E+05
 0.48349998E+02  0.88469E+05
 0.48399998E+02  0.12292E+06
 0.48449997E+02  0.19524E+06
 0.48499996E+02  0.26249E+06
 0.48549995E+02  0.26423E+06
 0.48599998E+02  0.22936E+06
 0.48649998E+02  0.13971E+06
 0.48699997E+02  0.58688E+05
 0.48749996E+02  0.50700E+05
 0.48799995E+02  0.14573E+05
 0.48849998E+02 -0.51024E+05
 0.48899998E+02 -0.51164E+05
 0.48949997E+02  0.59101E+05
 0.48999996E+02  0.22989E+06
 0.49049995E+02  0.27116E+06
 0.49099998E+02  0.13240E+06
 0.49149998E+02  0.14518E+05
 0.49199997E+02  0.73405E+05
 0.49249996E+02  0.28706E+06
 0.49299995E+02  0.39316E+06
 0.49349998E+02  0.30675E+06
 0.49399998E+02  0.48128E+05
 0.49449997E+02 -0.12655E+06
 0.49499996E+02 -0.23613E+05
 0.49549995E+02  0.49098E+05
 0.49599998E+02 -0.20911E+05
 0.49649998E+02 -0.29650E+05
 0.49699997E+02 -0.18263E+05
 0.49749996E+02 -0.10632E+06
 0.49799995E+02 -0.15251E+06
 0.49849998E+02 -0.16691E+06
 0.49899998E+02 -0.20696E+06
 0.49949997E+02 -0.19475E+06
 0.49999996E+02 -0.14879E+06
 0.50049995E+02 -0.10545E+06
 0.50099998E+02 -0.36282E+05
 0.50149998E+02 -0.55133E+05
 0.50199997E+02  0.22458E+05
 0.50249996E+02  0.28536E+06
 0.50299995E+02  0.53678E+06
 0.50349998E+02  0.71615E+06
 0.50399998E+02  0.75784E+06
 0.50449997E+02  0.67156E+06
 0.50499996E+02  0.35963E+06
 0.50549995E+02  0.25953E+04
 0.50599998E+02 -0.18839E+06
 0.50649998E+02 -0.24196E+06
 0.50699997E+02 -0.86733E+05
 0.50749996E+02 -0.10313E+04
 0.50799995E+02 -0.10526E+06
 0.50849998E+02 -0.15420E+06
 0.50899998E+02  0.61393E+05
 0.50949997E+02  0.35456E+06
 0.50999996E+02  0.39535E+06
 0.51049995E+02  0.88411E+05
 0.51099998E+02 -0.28311E+06
 0.51149998E+02 -0.35059E+06
 0.51199997E+02 -0.23903E+06
 0.51249996E+02  0.14202E+05
 0.51299995E+02  0.16053E+06
 0.51349998E+02 -0.95562E+04
 0.51399998E+02 -0.24192E+06
 0.51449997E+02 -0.35380E+06
 0.51499996E+02 -0.35057E+06
 0.51549995E+02 -0.32201E+06
 0.51599998E+02 -0.41532E+06
 0.51649998E+02 -0.68980E+06
 0.51699997E+02 -0.10892E+07
 0.51749996E+02 -0.12716E+07
 0.51799995E+02 -0.10548E+07
 0.51849998E+02 -0.55550E+06
 0.51899998E+02 -0.55180E+05
 0.51949997E+02  0.22105E+06
 0.51999996E+02  0.33243E+06
 0.52049995E+02  0.31425E+06
 0.52099998E+02  0.21976E+06
 0.52149998E+02  0.39499E+05
 0.52199997E+02 -0.40831E+05
 0.52249996E+02  0.67201E+05
 0.52299995E+02  0.10440E+06
 0.52349998E+02  0.45933E+05
 0.52399998E+02  0.13329E+05
 0.52449997E+02 -0.93677E+05
 0.52499996E+02 -0.20459E+06
 0.52549995E+02 -0.26851E+06
 0.52599998E+02 -0.30402E+06
 0.52649998E+02 -0.12299E+06
 0.52699997E+02 -0.11933E+05
 0.52749996E+02 -0.27084E+06
 0.52799995E+02 -0.48975E+06
 0.52849998E+02 -0.32710E+06
 0.52899998E+02  0.11170E+05
 0.52949997E+02  0.75733E+05
 0.52999996E+02 -0.33028E+05
 0.53049995E+02 -0.11859E+06
 0.53099998E+02 -0.15998E+06
 0.53149998E+02 -0.29305E+05
 0.53199997E+02  0.17629E+06
 0.53249996E+02  0.32975E+06
 0.53299995E+02  0.30638E+06
 0.53349998E+02  0.14190E+06
 0.53399998E+02 -0.92412E+05
 0.53449997E+02 -0.25865E+06
 0.53499996E+02 -0.17553E+06
 0.53549995E+02 -0.10872E+06
 0.53599998E+02 -0.26218E+06
 0.53649998E+02 -0.40046E+06
 0.53699997E+02 -0.27490E+06
 0.53749996E+02  0.53835E+05
 0.53799995E+02  0.48795E+06
 0.53849998E+02  0.83676E+06
 0.53899998E+02  0.94185E+06
 0.53949997E+02  0.98061E+06
 0.53999996E+02  0.98998E+06
 0.54049995E+02  0.71218E+06
 0.54099998E+02  0.14510E+06
 0.54149998E+02 -0.14297E+06
 0.54199997E+02  0.37837E+05
 0.54249996E+02  0.28923E+06
 0.54299995E+02  0.50842E+06
 0.54349998E+02  0.83518E+06
 0.54399998E+02  0.10990E+07
 0.54449997E+02  0.12611E+07
 0.54499996E+02  0.12578E+07
 0.54549995E+02  0.93172E+06
 0.54599998E+02  0.53773E+06
 0.54649998E+02  0.30270E+06
 0.54699997E+02  0.65382E+05
 0.54749996E+02 -0.17669E+06
 0.54799995E+02 -0.21829E+06
 0.54849998E+02 -0.14151E+06
 0.54899998E+02 -0.17802E+06
 0.54949997E+02 -0.23647E+06
 0.54999996E+02 -0.12091E+06
 0.55049995E+02  0.30555E+05
 0.55099998E+02  0.21130E+06
 0.55149998E+02  0.29000E+06
 0.55199997E+02  0.22489E+06
 0.55249996E+02  0.16002E+06
 0.55299995E+02  0.10500E+06
 0.55349998E+02  0.39545E+05
 0.55399998E+02  0.12571E+05
 0.55449997E+02  0.17290E+06
 0.55499996E+02  0.30030E+06
 0.55549995E+02  0.25488E+06
 0.55599998E+02  0.14154E+06
 0.55649998E+02  0.16328E+06
 0.55699997E+02  0.30504E+06
 0.55749996E+02  0.42840E+06
 0.55799995E+02  0.41947E+06
 0.55849995E+02  0.18459E+06
 0.55899998E+02  0.42743E+05
 0.55949997E+02  0.10752E+06
 0.55999996E+02  0.18781E+06
 0.56049995E+02 -0.24560E+05
 0.56099995E+02 -0.36277E+06
 0.56149998E+02 -0.33533E+06
 0.56199997E+02 -0.70146E+05
 0.56249996E+02  0.11404E+06
 0.56299995E+02  0.19401E+06
 0.56349995E+02  0.24710E+06
 0.56399998E+02  0.28851E+06
 0.56449997E+02  0.21725E+06
 0.56499996E+02  0.10427E+05
 0.56549995E+02 -0.30615E+06
 0.56599995E+02 -0.58695E+06
 0.56649998E+02 -0.70578E+06
 0.56699997E+02 -0.84599E+06
 0.56749996E+02 -0.98545E+06
 0.56799995E+02 -0.10212E+07
 0.56849995E+02 -0.10090E+07
 0.56899998E+02 -0.10005E+07
 0.56949997E+02 -0.95356E+06
 0.56999996E+02 -0.86424E+06
 0.57049995E+02 -0.77569E+06
 0.57099995E+02 -0.70617E+06
 0.57149998E+02 -0.70483E+06
 0.57199997E+02 -0.70871E+06
 0.57249996E+02 -0.67627E+06
 0.57299995E+02 -0.61210E+06
 0.57349995E+02 -0.48339E+06
 0.57399998E+02 -0.33699E+06
 0.57449997E+02 -0.26793E+06
 0.57499996E+02 -0.21135E+06
 0.57549995E+02 -0.17283E+06
 0.57599995E+02 -0.10156E+06
 0.57649998E+02  0.14632E+06
 0.57699997E+02  0.29952E+06
 0.57749996E+02  0.20833E+06
 0.57799995E+02 -0.63436E+04
 0.57849995E+02 -0.14915E+06
 0.57899998E+02 -0.11535E+06
 0.57949997E+02 -0.32215E+05
 0.57999996E+02  0.78185E+04
 0.58049995E+02 -0.13013E+06
 0.58099995E+02 -0.32412E+06
 0.58149998E+02 -0.46195E+06
 0.58199997E+02 -0.60315E+06
 0.58249996E+02 -0.66447E+06
 0.58299995E+02 -0.69371E+06
 0.58349995E+02 -0.66100E+06
 0.58399998E+02 -0.57474E+06
 0.58449997E+02 -0.57511E+06
 0.58499996E+02 -0.65559E+06
 0.58549995E+02 -0.87540E+06
 0.58599995E+02 -0.11151E+07
 0.58649998E+02 -0.11846E+07
 0.58699997E+02 -0.11674E+07
 0.58749996E+02 -0.11185E+07
 0.58799995E+02 -0.99246E+06
 0.58849995E+02 -0.75822E+06
 0.58899998E+02 -0.50700E+06
 0.58949997E+02 -0.41522E+06
 0.58999996E+02 -0.45791E+06
 0.59049995E+02 -0.41229E+06
 0.59099995E+02 -0.21750E+06
 0.59149998E+02  0.96015E+05
 0.59199997E+02  0.39830E+06
 0.59249996E+02  0.56325E+06
 0.59299995E+02  0.61286E+06
 0.59349995E+02  0.54541E+06
 0.59399998E+02  0.49477E+06
 0.59449997E+02  0.53739E+06
 0.59499996E+02  0.53253E+06
 0.59549995E+02  0.55448E+06
 0.59599995E+02  0.71359E+06
 0.59649998E+02  0.85617E+06
 0.59699997E+02  0.89203E+06
 0.59749996E+02  0.90889E+06
 0.59799995E+02  0.90530E+06
 0.59849995E+02  0.88869E+06
 0.59899998E+02  0.84886E+06
 0.59949997E+02  0.71649E+06
 0.59999996E+02  0.57712E+06
 0.60049995E+02  0.48175E+06
 0.60099995E+02  0.40908E+06
 0.60149998E+02  0.38561E+06
 0.60199997E+02  0.36031E+06
 0.60249996E+02  0.19939E+06
 0.60299995E+02 -0.84412E+04
 0.60349995E+02 -0.76980E+05
 0.60399998E+02  0.87181E+04
 0.60449997E+02  0.67329E+05
 0.60499996E+02 -0.14835E+05
 0.60549995E+02 -0.20606E+06
 0.60599995E+02 -0.31229E+06
 0.60649998E+02 -0.17727E+06
 0.60699997E+02  0.94554E+05
 0.60749996E+02  0.28254E+06
 0.60799995E+02  0.40456E+06
 0.60849995E+02  0.62066E+06
 0.60899998E+02  0.84070E+06
 0.60949997E+02  0.94563E+06
 0.60999996E+02  0.94600E+06
 0.61049995E+02  0.91838E+06
 0.61099995E+02  0.91490E+06
 0.61149998E+02  0.87554E+06
 0.61199997E+02  0.77871E+06
 0.61249996E+02  0.63146E+06
 0.61299995E+02  0.33274E+06
 0.61349995E+02  0.66511E+05
 0.61399998E+02 -0.18064E+05
 0.61449997E+02  0.35965E+04
 0.61499996E+02  0.20373E+05
 0.61549995E+02  0.70160E+05
 0.61599995E+02  0.21441E+06
 0.61649998E+02  0.36817E+06
 0.61699997E+02  0.52217E+06
 0.61749996E+02  0.53625E+06
 0.61799995E+02  0.38846E+06
 0.61849995E+02  0.20610E+06
 0.61899998E+02  0.12633E+05
 0.61949997E+02 -0.10383E+06
 0.61999996E+02 -0.69820E+05
 0.62049995E+02  0.27708E+05
 0.62099998E+02  0.35298E+05
 0.62149994E+02 -0.86767E+05
 0.62199997E+02 -0.25258E+06
 0.62249992E+02 -0.32460E+06
 0.62299995E+02 -0.24690E+06
 0.62349998E+02 -0.75945E+05
 0.62399994E+02  0.92714E+05
 0.62449997E+02  0.11283E+06
 0.62499992E+02 -0.33156E+05
 0.62549995E+02 -0.24172E+06
 0.62599998E+02 -0.36868E+06
 0.62649994E+02 -0.34434E+06
 0.62699997E+02 -0.27765E+06
 0.62749992E+02 -0.27874E+06
 0.62799995E+02 -0.32841E+06
 0.62849998E+02 -0.45973E+06
 0.62899994E+02 -0.65956E+06
 0.62949997E+02 -0.84450E+06
 0.62999992E+02 -0.10065E+07
 0.63049995E+02 -0.11329E+07
 0.63099998E+02 -0.11656E+07
 0.63149994E+02 -0.11432E+07
 0.63199997E+02 -0.11232E+07
 0.63249992E+02 -0.11380E+07
 0.63299995E+02 -0.11259E+07
 0.63349998E+02 -0.98029E+06
 0.63399994E+02 -0.73081E+06
 0.63449997E+02 -0.42362E+06
 0.63499992E+02 -0.21051E+06
 0.63549995E+02 -0.78959E+05
 0.63599998E+02  0.69603E+05
 0.63649994E+02  0.24895E+06
 0.63699997E+02  0.37447E+06
 0.63749992E+02  0.36805E+06
 0.63799995E+02  0.30640E+06
 0.63849998E+02  0.22261E+06
 0.63899994E+02  0.17374E+06
 0.63949997E+02  0.20411E+06
 0.63999992E+02  0.32472E+06
 0.64049995E+02  0.50460E+06
 0.64099998E+02  0.61680E+06
 0.64149994E+02  0.57600E+06
 0.64199997E+02  0.46935E+06
 0.64249992E+02  0.44797E+06
 0.64299995E+02  0.49035E+06
 0.64349998E+02  0.54466E+06
 0.64399994E+02  0.57529E+06
 0.64449997E+02  0.51032E+06
 0.64499992E+02  0.39589E+06
 0.64549995E+02  0.28632E+06
 0.64599998E+02  0.18353E+06
 0.64649994E+02  0.19143E+06
 0.64699997E+02  0.27023E+06
 0.64749992E+02  0.27225E+06
 0.64799995E+02  0.17502E+06
 0.64849998E+02  0.90028E+05
 0.64899994E+02  0.29544E+05
 0.64949997E+02 -0.47017E+05
 0.64999992E+02 -0.53465E+05
 0.65049995E+02 -0.22197E+04
 0.65099998E+02  0.68872E+05
 0.65149994E+02  0.16149E+06
 0.65199997E+02  0.24375E+06
 0.65249992E+02  0.29883E+06
 0.65299995E+02  0.40438E+06
 0.65349998E+02  0.56743E+06
 0.65399994E+02  0.71691E+06
 0.65449997E+02  0.78235E+06
 0.65499992E+02  0.72055E+06
 0.65549995E+02  0.57753E+06
 0.65599998E+02  0.44133E+06
 0.65649994E+02  0.32520E+06
 0.65699997E+02  0.14723E+06
 0.65749992E+02 -0.10271E+06
 0.65799995E+02 -0.28220E+06
 0.65849998E+02 -0.24463E+06
 0.65899994E+02 -0.53357E+05
 0.65949997E+02  0.13350E+06
 0.65999992E+02  0.30377E+06
 0.66049995E+02  0.44429E+06
 0.66099998E+02  0.48914E+06
 0.66149994E+02  0.41639E+06
 0.66199997E+02  0.31280E+06
 0.66249992E+02  0.28811E+06
 0.66299995E+02  0.31997E+06
 0.66349998E+02  0.32749E+06
 0.66399994E+02  0.27364E+06
 0.66449997E+02  0.20487E+06
 0.66499992E+02  0.12347E+06
 0.66549995E+02  0.22037E+05
 0.66599998E+02 -0.54324E+05
 0.66649994E+02 -0.16519E+06
 0.66699997E+02 -0.31314E+06
 0.66749992E+02 -0.47745E+06
 0.66799995E+02 -0.65607E+06
 0.66849998E+02 -0.81095E+06
 0.66899994E+02 -0.93988E+06
 0.66949997E+02 -0.99535E+06
 0.66999992E+02 -0.94618E+06
 0.67049995E+02 -0.79500E+06
 0.67099998E+02 -0.55360E+06
 0.67149994E+02 -0.27147E+06
 0.67199997E+02 -0.92423E+05
 0.67249992E+02 -0.94552E+05
 0.67299995E+02 -0.20139E+06
 0.67349998E+02 -0.30488E+06
 0.67399994E+02 -0.38471E+06
 0.67449997E+02 -0.39334E+06
 0.67499992E+02 -0.37599E+06
 0.67549995E+02 -0.47008E+06
 0.67599998E+02 -0.60482E+06
 0.67649994E+02 -0.69559E+06
 0.67699997E+02 -0.78170E+06
 0.67749992E+02 -0.84066E+06
 0.67799995E+02 -0.73857E+06
 0.67849998E+02 -0.44947E+06
 0.67899994E+02 -0.79389E+05
 0.67949997E+02  0.27186E+06
 0.67999992E+02  0.54176E+06
 0.68049995E+02  0.71829E+06
 0.68099998E+02  0.82607E+06
 0.68149994E+02  0.88238E+06
 0.68199997E+02  0.90496E+06
 0.68249992E+02  0.87240E+06
 0.68299995E+02  0.77596E+06
 0.68349998E+02  0.63068E+06
 0.68399994E+02  0.47554E+06
 0.68449997E+02  0.33235E+06
 0.68499992E+02  0.15208E+06
 0.68549995E+02 -0.24023E+04
 0.68599998E+02 -0.10829E+06
 0.68649994E+02 -0.15010E+06
 0.68699997E+02 -0.86511E+05
 0.68749992E+02  0.39454E+04
 0.68799995E+02  0.12111E+06
 0.68849998E+02  0.25658E+06
 0.68899994E+02  0.35857E+06
 0.68949997E+02  0.40458E+06
 0.68999992E+02  0.43608E+06
 0.69049995E+02  0.52619E+06
 0.69099998E+02  0.65254E+06
 0.69149994E+02  0.72226E+06
 0.69199997E+02  0.67314E+06
 0.69249992E+02  0.51752E+06
 0.69299995E+02  0.29190E+06
 0.69349998E+02  0.58105E+05
 0.69399994E+02 -0.10035E+06
 0.69449997E+02 -0.14661E+06
 0.69499992E+02 -0.14802E+06
 0.69549995E+02 -0.14494E+06
 0.69599998E+02 -0.64794E+05
 0.69649994E+02  0.73968E+05
 0.69699997E+02  0.18316E+06
 0.69749992E+02  0.23875E+06
 0.69799995E+02  0.23963E+06
 0.69849998E+02  0.23030E+06
 0.69899994E+02  0.19677E+06
 0.69949997E+02  0.12981E+06
 0.69999992E+02  0.76391E+05
 0.70049995E+02  0.91176E+05
 0.70099998E+02  0.15432E+06
 0.70149994E+02  0.15847E+06
 0.70199997E+02  0.70415E+05
 0.70249992E+02 -0.93260E+05
 0.70299995E+02 -0.31806E+06
 0.70349998E+02 -0.54108E+06
 0.70399994E+02 -0.63373E+06
 0.70449997E+02 -0.63520E+06
 0.70499992E+02 -0.63308E+06
 0.70549995E+02 -0.60741E+06
 0.70599998E+02 -0.53386E+06
 0.70649994E+02 -0.38404E+06
 0.70699997E+02 -0.18030E+06
 0.70749992E+02 -0.35075E+04
 0.70799995E+02  0.90449E+05
 0.70849998E+02  0.10459E+06
 0.70899994E+02  0.29589E+05
 0.70949997E+02 -0.12094E+06
 0.70999992E+02 -0.26265E+06
 0.71049995E+02 -0.32224E+06
 0.71099998E+02 -0.27656E+06
 0.71149994E+02 -0.22540E+06
 0.71199997E+02 -0.23989E+06
 0.71249992E+02 -0.31773E+06
 0.71299995E+02 -0.48425E+06
 0.71349998E+02 -0.68447E+06
 0.71399994E+02 -0.83309E+06
 0.71449997E+02 -0.84750E+06
 0.71499992E+02 -0.73575E+06
 0.71549995E+02 -0.54188E+06
 0.71599998E+02 -0.33223E+06
 0.71649994E+02 -0.19291E+06
 0.71699997E+02 -0.11707E+06
 0.71749992E+02 -0.11455E+06
 0.71799995E+02 -0.17437E+06
 0.71849998E+02 -0.24614E+06
 0.71899994E+02 -0.29309E+06
 0.71949997E+02 -0.28462E+06
 0.71999992E+02 -0.23754E+06
 0.72049995E+02 -0.21716E+06
 0.72099998E+02 -0.27099E+06
 0.72149994E+02 -0.35165E+06
 0.72199997E+02 -0.36332E+06
 0.72249992E+02 -0.33548E+06
 0.72299995E+02 -0.29905E+06
 0.72349998E+02 -0.24469E+06
 0.72399994E+02 -0.21889E+06
 0.72449997E+02 -0.24492E+06
 0.72499992E+02 -0.29051E+06
 0.72549995E+02 -0.26410E+06
 0.72599998E+02 -0.15079E+06
 0.72649994E+02  0.98572E+02
 0.72699997E+02  0.82346E+05
 0.72749992E+02  0.20605E+05
 0.72799995E+02 -0.11015E+06
 0.72849998E+02 -0.24658E+06
 0.72899994E+02 -0.35177E+06
 0.72949997E+02 -0.37907E+06
 0.72999992E+02 -0.32177E+06
 0.73049995E+02 -0.19928E+06
 0.73099998E+02 -0.25376E+05
 0.73149994E+02  0.15389E+06
 0.73199997E+02  0.28929E+06
 0.73249992E+02  0.39532E+06
 0.73299995E+02  0.52031E+06
 0.73349998E+02  0.66813E+06
 0.73399994E+02  0.79146E+06
 0.73449997E+02  0.91290E+06
 0.73499992E+02  0.10612E+07
 0.73549995E+02  0.11689E+07
 0.73599998E+02  0.11740E+07
 0.73649994E+02  0.10874E+07
 0.73699997E+02  0.95823E+06
 0.73749992E+02  0.80041E+06
 0.73799995E+02  0.62958E+06
 0.73849998E+02  0.45654E+06
 0.73899994E+02  0.29330E+06
 0.73949997E+02  0.16449E+06
 0.73999992E+02  0.90191E+05
 0.74049995E+02  0.56749E+05
 0.74099998E+02 -0.13468E+05
 0.74149994E+02 -0.91602E+05
 0.74199997E+02 -0.11765E+06
 0.74249992E+02 -0.97806E+05
 0.74299995E+02 -0.62293E+05
 0.74349998E+02 -0.63968E+05
 0.74399994E+02 -0.98738E+05
 0.74449997E+02 -0.11584E+06
 0.74499992E+02 -0.90334E+05
 0.74549995E+02 -0.77612E+05
 0.74599998E+02 -0.13104E+06
 0.74649994E+02 -0.27672E+06
 0.74699997E+02 -0.47900E+06
 0.74749992E+02 -0.60731E+06
 0.74799995E+02 -0.59684E+06
 0.74849998E+02 -0.46718E+06
 0.74899994E+02 -0.31732E+06
 0.74949997E+02 -0.23686E+06
 0.74999992E+02 -0.20787E+06
 0.75049995E+02 -0.17348E+06
 0.75099998E+02 -0.99046E+05
 0.75149994E+02 -0.22989E+05
 0.75199997E+02  0.81969E+04
 0.75249992E+02  0.10490E+05
 0.75299995E+02 -0.10122E+05
 0.75349998E+02 -0.62093E+05
 0.75399994E+02 -0.13537E+06
 0.75449997E+02 -0.19838E+06
 0.75499992E+02 -0.23756E+06
 0.75549995E+02 -0.26912E+06
 0.75599998E+02 -0.29348E+06
 0.75649994E+02 -0.33031E+06
 0.75699997E+02 -0.40078E+06
 0.75749992E+02 -0.49934E+06
 0.75799995E+02 -0.59274E+06
 0.75849998E+02 -0.68811E+06
 0.75899994E+02 -0.78519E+06
 0.75949997E+02 -0.83512E+06
 0.75999992E+02 -0.82927E+06
 0.76049995E+02 -0.80198E+06
 0.76099998E+02 -0.78914E+06
 0.76149994E+02 -0.76884E+06
 0.76199997E+02 -0.70025E+06
 0.76249992E+02 -0.59822E+06
 0.76299995E+02 -0.47210E+06
 0.76349998E+02 -0.36003E+06
 0.76399994E+02 -0.34936E+06
 0.76449997E+02 -0.43109E+06
 0.76499992E+02 -0.51178E+06
 0.76549995E+02 -0.52891E+06
 0.76599998E+02 -0.50174E+06
 0.76649994E+02 -0.46527E+06
 0.76699997E+02 -0.40717E+06
 0.76749992E+02 -0.31320E+06
 0.76799995E+02 -0.17399E+06
 0.76849998E+02 -0.20494E+05
 0.76899994E+02  0.86241E+05
 0.76949997E+02  0.12960E+06
 0.76999992E+02  0.14484E+06
 0.77049995E+02  0.17487E+06
 0.77099998E+02  0.20183E+06
 0.77149994E+02  0.18157E+06
 0.77199997E+02  0.94545E+05
 0.77249992E+02  0.63285E+04
 0.77299995E+02 -0.25811E+05
 0.77349998E+02 -0.15521E+05
 0.77399994E+02  0.51161E+04
 0.77449997E+02  0.46655E+05
 0.77499992E+02  0.14806E+06
 0.77549995E+02  0.30484E+06
 0.77599998E+02  0.46352E+06
 0.77649994E+02  0.54974E+06
 0.77699997E+02  0.54389E+06
 0.77749992E+02  0.50412E+06
 0.77799995E+02  0.52204E+06
 0.77849998E+02  0.58838E+06
 0.77899994E+02  0.64540E+06
 0.77949997E+02  0.65033E+06
 0.77999992E+02  0.61549E+06
 0.78049995E+02  0.57874E+06
 0.78099998E+02  0.53482E+06
 0.78149994E+02  0.49815E+06
 0.78199997E+02  0.49626E+06
 0.78249992E+02  0.50861E+06
 0.78299995E+02  0.50252E+06
 0.78349998E+02  0.46727E+06
 0.78399994E+02  0.39343E+06
 0.78449997E+02  0.30595E+06
 0.78499992E+02  0.25753E+06
 0.78549995E+02  0.25381E+06
 0.78599998E+02  0.23611E+06
 0.78649994E+02  0.18621E+06
 0.78699997E+02  0.12801E+06
 0.78749992E+02  0.92882E+05
 0.78799995E+02  0.11275E+06
 0.78849998E+02  0.18636E+06
 0.78899994E+02  0.27881E+06
 0.78949997E+02  0.38010E+06
 0.78999992E+02  0.50126E+06
 0.79049995E+02  0.61625E+06
 0.79099998E+02  0.70587E+06
 0.79149994E+02  0.75862E+06
 0.79199997E+02  0.76588E+06
 0.79249992E+02  0.73458E+06
 0.79299995E+02  0.68123E+06
 0.79349998E+02  0.63998E+06
 0.79399994E+02  0.58667E+06
 0.79449997E+02  0.52109E+06
 0.79499992E+02  0.48043E+06
 0.79549995E+02  0.46844E+06
 0.79599998E+02  0.47436E+06
 0.79649994E+02  0.44786E+06
 0.79699997E+02  0.38090E+06
 0.79749992E+02  0.32994E+06
 0.79799995E+02  0.31648E+06
 0.79849998E+02  0.30891E+06
 0.79899994E+02  0.31184E+06
 0.79949997E+02  0.33959E+06
 0.79999992E+02  0.37578E+06
 0.80049995E+02  0.38160E+06
 0.80099998E+02  0.32190E+06
 0.80149994E+02  0.22604E+06
 0.80199997E+02  0.13688E+06
 0.80249992E+02  0.49627E+05
 0.80299995E+02 -0.36983E+05
 0.80349998E+02 -0.11153E+06
 0.80399994E+02 -0.14645E+06
 0.80449997E+02 -0.10571E+06
 0.80499992E+02  0.96843E+04
 0.80549995E+02  0.13640E+06
 0.80599998E+02  0.24041E+06
 0.80649994E+02  0.33954E+06
 0.80699997E+02  0.41393E+06
 0.80749992E+02  0.48793E+06
 0.80799995E+02  0.58950E+06
 0.80849998E+02  0.67970E+06
 0.80899994E+02  0.71468E+06
 0.80949997E+02  0.69963E+06
 0.80999992E+02  0.65575E+06
 0.81049995E+02  0.58685E+06
 0.81099998E+02  0.51175E+06
 0.81149994E+02  0.46117E+06
 0.81199997E+02  0.44621E+06
 0.81249992E+02  0.45112E+06
 0.81299995E+02  0.45936E+06
 0.81349998E+02  0.44301E+06
 0.81399994E+02  0.37253E+06
 0.81449997E+02  0.26323E+06
 0.81499992E+02  0.14732E+06
 0.81549995E+02  0.35384E+05
 0.81599998E+02 -0.49243E+05
 0.81649994E+02 -0.96069E+05
 0.81699997E+02 -0.94850E+05
 0.81749992E+02 -0.47514E+05
 0.81799995E+02 -0.61126E+04
 0.81849998E+02  0.22779E+05
 0.81899994E+02  0.62550E+05
 0.81949997E+02  0.11642E+06
 0.81999992E+02  0.15108E+06
 0.82049995E+02  0.12715E+06
 0.82099998E+02  0.62545E+05
 0.82149994E+02 -0.15222E+05
 0.82199997E+02 -0.93391E+05
 0.82249992E+02 -0.14993E+06
 0.82299995E+02 -0.15498E+06
 0.82349998E+02 -0.10874E+06
 0.82399994E+02 -0.20089E+05
 0.82449997E+02  0.96420E+05
 0.82499992E+02  0.21395E+06
 0.82549995E+02  0.32371E+06
 0.82599998E+02  0.40008E+06
 0.82649994E+02  0.41267E+06
 0.82699997E+02  0.37677E+06
 0.82749992E+02  0.32739E+06
 0.82799995E+02  0.27752E+06
 0.82849998E+02  0.23605E+06
 0.82899994E+02  0.17256E+06
 0.82949997E+02  0.56897E+05
 0.82999992E+02 -0.86418E+05
 0.83049995E+02 -0.21917E+06
 0.83099998E+02 -0.31241E+06
 0.83149994E+02 -0.35044E+06
 0.83199997E+02 -0.37381E+06
 0.83249992E+02 -0.43526E+06
 0.83299995E+02 -0.52317E+06
 0.83349998E+02 -0.62890E+06
 0.83399994E+02 -0.72544E+06
 0.83449997E+02 -0.77213E+06
 0.83499992E+02 -0.75637E+06
 0.83549995E+02 -0.68384E+06
 0.83599998E+02 -0.59769E+06
 0.83649994E+02 -0.55378E+06
 0.83699997E+02 -0.58060E+06
 0.83749992E+02 -0.66508E+06
 0.83799995E+02 -0.77266E+06
 0.83849998E+02 -0.88601E+06
 0.83899994E+02 -0.98925E+06
 0.83949997E+02 -0.10556E+07
 0.83999992E+02 -0.10968E+07
 0.84049995E+02 -0.11285E+07
 0.84099998E+02 -0.11430E+07
 0.84149994E+02 -0.11262E+07
 0.84199997E+02 -0.10798E+07
 0.84249992E+02 -0.10098E+07
 0.84299995E+02 -0.90901E+06
 0.84349998E+02 -0.78946E+06
 0.84399994E+02 -0.68086E+06
 0.84449997E+02 -0.60483E+06
 0.84499992E+02 -0.57152E+06
 0.84549995E+02 -0.60183E+06
 0.84599998E+02 -0.67057E+06
 0.84649994E+02 -0.72576E+06
 0.84699997E+02 -0.73460E+06
 0.84749992E+02 -0.68819E+06
 0.84799995E+02 -0.61122E+06
 0.84849998E+02 -0.54211E+06
 0.84899994E+02 -0.52016E+06
 0.84949997E+02 -0.55708E+06
 0.84999992E+02 -0.63067E+06
 0.85049995E+02 -0.70937E+06
 0.85099998E+02 -0.77588E+06
 0.85149994E+02 -0.81372E+06
 0.85199997E+02 -0.80888E+06
 0.85249992E+02 -0.75241E+06
 0.85299995E+02 -0.65316E+06
 0.85349998E+02 -0.53172E+06
 0.85399994E+02 -0.39705E+06
 0.85449997E+02 -0.25714E+06
 0.85499992E+02 -0.12076E+06
 0.85549995E+02 -0.13927E+04
 0.85599998E+02  0.69854E+05
 0.85649994E+02  0.84958E+05
 0.85699997E+02  0.68922E+05
 0.85749992E+02  0.30913E+05
 0.85799995E+02 -0.68879E+04
 0.85849998E+02 -0.13276E+05
 0.85899994E+02  0.25628E+05
 0.85949997E+02  0.10125E+06
 0.85999992E+02  0.19955E+06
 0.86049995E+02  0.30871E+06
 0.86099998E+02  0.41926E+06
 0.86149994E+02  0.51759E+06
 0.86199997E+02  0.57425E+06
 0.86249992E+02  0.58434E+06
 0.86299995E+02  0.55721E+06
 0.86349998E+02  0.51324E+06
 0.86399994E+02  0.47425E+06
 0.86449997E+02  0.44416E+06
 0.86499992E+02  0.41672E+06
 0.86549995E+02  0.38518E+06
 0.86599998E+02  0.36701E+06
 0.86649994E+02  0.39111E+06
 0.86699997E+02  0.46801E+06
 0.86749992E+02  0.56355E+06
 0.86799995E+02  0.61768E+06
 0.86849998E+02  0.60656E+06
 0.86899994E+02  0.52598E+06
 0.86949997E+02  0.40304E+06
 0.86999992E+02  0.30519E+06
 0.87049995E+02  0.26989E+06
 0.87099998E+02  0.31026E+06
 0.87149994E+02  0.42250E+06
 0.87199997E+02  0.56922E+06
 0.87249992E+02  0.70206E+06
 0.87299995E+02  0.77727E+06
 0.87349998E+02  0.75441E+06
 0.87399994E+02  0.65102E+06
 0.87449997E+02  0.52952E+06
 0.87499992E+02  0.42750E+06
 0.87549995E+02  0.37089E+06
 0.87599991E+02  0.36784E+06
 0.87649994E+02  0.40804E+06
 0.87699997E+02  0.45737E+06
 0.87749992E+02  0.48848E+06
 0.87799995E+02  0.49659E+06
 0.87849991E+02  0.47041E+06
 0.87899994E+02  0.42356E+06
 0.87949997E+02  0.39941E+06
 0.87999992E+02  0.42035E+06
 0.88049995E+02  0.47566E+06
 0.88099991E+02  0.53262E+06
 0.88149994E+02  0.53722E+06
 0.88199997E+02  0.48762E+06
 0.88249992E+02  0.41066E+06
 0.88299995E+02  0.31375E+06
 0.88349991E+02  0.21393E+06
 0.88399994E+02  0.12733E+06
 0.88449997E+02  0.61892E+05
 0.88499992E+02  0.21587E+05
 0.88549995E+02  0.13231E+05
 0.88599991E+02  0.35504E+05
 0.88649994E+02  0.84702E+05
 0.88699997E+02  0.13852E+06
 0.88749992E+02  0.15783E+06
 0.88799995E+02  0.13489E+06
 0.88849991E+02  0.90017E+05
 0.88899994E+02  0.39124E+05
 0.88949997E+02  0.15270E+05
 0.88999992E+02  0.31406E+05
 0.89049995E+02  0.36389E+05
 0.89099991E+02 -0.21747E+05
 0.89149994E+02 -0.14646E+06
 0.89199997E+02 -0.29064E+06
 0.89249992E+02 -0.40917E+06
 0.89299995E+02 -0.50282E+06
 0.89349991E+02 -0.59432E+06
 0.89399994E+02 -0.69076E+06
 0.89449997E+02 -0.78829E+06
 0.89499992E+02 -0.86518E+06
 0.89549995E+02 -0.90213E+06
 0.89599991E+02 -0.87917E+06
 0.89649994E+02 -0.77973E+06
 0.89699997E+02 -0.62898E+06
 0.89749992E+02 -0.47300E+06
 0.89799995E+02 -0.35607E+06
 0.89849991E+02 -0.28993E+06
 0.89899994E+02 -0.25375E+06
 0.89949997E+02 -0.21975E+06
 0.89999992E+02 -0.16490E+06
 0.90049995E+02 -0.96563E+05
 0.90099991E+02 -0.46668E+05
 0.90149994E+02 -0.33573E+05
 0.90199997E+02 -0.37245E+05
 0.90249992E+02 -0.45966E+05
 0.90299995E+02 -0.84247E+05
 0.90349991E+02 -0.16049E+06
 0.90399994E+02 -0.25447E+06
 0.90449997E+02 -0.33676E+06
 0.90499992E+02 -0.40218E+06
 0.90549995E+02 -0.44599E+06
 0.90599991E+02 -0.45703E+06
 0.90649994E+02 -0.43706E+06
 0.90699997E+02 -0.41271E+06
 0.90749992E+02 -0.42308E+06
 0.90799995E+02 -0.47578E+06
 0.90849991E+02 -0.55125E+06
 0.90899994E+02 -0.62951E+06
 0.90949997E+02 -0.69905E+06
 0.90999992E+02 -0.74100E+06
 0.91049995E+02 -0.73400E+06
 0.91099991E+02 -0.67216E+06
 0.91149994E+02 -0.56262E+06
 0.91199997E+02 -0.42936E+06
 0.91249992E+02 -0.32439E+06
 0.91299995E+02 -0.28863E+06
 0.91349991E+02 -0.30810E+06
 0.91399994E+02 -0.33451E+06
 0.91449997E+02 -0.31255E+06
 0.91499992E+02 -0.20417E+06
 0.91549995E+02 -0.13211E+05
 0.91599991E+02  0.23932E+06
 0.91649994E+02  0.51980E+06
 0.91699997E+02  0.78292E+06
 0.91749992E+02  0.98124E+06
 0.91799995E+02  0.10940E+07
 0.91849991E+02  0.11235E+07
 0.91899994E+02  0.10926E+07
 0.91949997E+02  0.10455E+07
 0.91999992E+02  0.10084E+07
 0.92049995E+02  0.97710E+06
 0.92099991E+02  0.92828E+06
 0.92149994E+02  0.86497E+06
 0.92199997E+02  0.79877E+06
 0.92249992E+02  0.71958E+06
 0.92299995E+02  0.62723E+06
 0.92349991E+02  0.54135E+06
 0.92399994E+02  0.48551E+06
 0.92449997E+02  0.48197E+06
 0.92499992E+02  0.53805E+06
 0.92549995E+02  0.63657E+06
 0.92599991E+02  0.73066E+06
 0.92649994E+02  0.77016E+06
 0.92699997E+02  0.73083E+06
 0.92749992E+02  0.62816E+06
 0.92799995E+02  0.50717E+06
 0.92849991E+02  0.41602E+06
 0.92899994E+02  0.38285E+06
 0.92949997E+02  0.39848E+06
 0.92999992E+02  0.45217E+06
 0.93049995E+02  0.53439E+06
 0.93099991E+02  0.62173E+06
 0.93149994E+02  0.68955E+06
 0.93199997E+02  0.72382E+06
 0.93249992E+02  0.71366E+06
 0.93299995E+02  0.65710E+06
 0.93349991E+02  0.57406E+06
 0.93399994E+02  0.48441E+06
 0.93449997E+02  0.40536E+06
 0.93499992E+02  0.35721E+06
 0.93549995E+02  0.35896E+06
 0.93599991E+02  0.40684E+06
 0.93649994E+02  0.48065E+06
 0.93699997E+02  0.55577E+06
 0.93749992E+02  0.60418E+06
 0.93799995E+02  0.60104E+06
 0.93849991E+02  0.52698E+06
 0.93899994E+02  0.38860E+06
 0.93949997E+02  0.21892E+06
 0.93999992E+02  0.53486E+05
 0.94049995E+02 -0.86020E+05
 0.94099991E+02 -0.19630E+06
 0.94149994E+02 -0.27498E+06
 0.94199997E+02 -0.32401E+06
 0.94249992E+02 -0.35751E+06
 0.94299995E+02 -0.36961E+06
 0.94349991E+02 -0.35337E+06
 0.94399994E+02 -0.32111E+06
 0.94449997E+02 -0.29194E+06
 0.94499992E+02 -0.28657E+06
 0.94549995E+02 -0.30897E+06
 0.94599991E+02 -0.35335E+06
 0.94649994E+02 -0.42799E+06
 0.94699997E+02 -0.53279E+06
 0.94749992E+02 -0.64986E+06
 0.94799995E+02 -0.74903E+06
 0.94849991E+02 -0.79432E+06
 0.94899994E+02 -0.78579E+06
 0.94949997E+02 -0.74461E+06
 0.94999992E+02 -0.68712E+06
 0.95049995E+02 -0.63519E+06
 0.95099991E+02 -0.61426E+06
 0.95149994E+02 -0.64094E+06
 0.95199997E+02 -0.69847E+06
 0.95249992E+02 -0.75924E+06
 0.95299995E+02 -0.79936E+06
 0.95349991E+02 -0.80511E+06
 0.95399994E+02 -0.78519E+06
 0.95449997E+02 -0.75232E+06
 0.95499992E+02 -0.70376E+06
 0.95549995E+02 -0.62701E+06
 0.95599991E+02 -0.52540E+06
 0.95649994E+02 -0.43298E+06
 0.95699997E+02 -0.38797E+06
 0.95749992E+02 -0.40898E+06
 0.95799995E+02 -0.49464E+06
 0.95849991E+02 -0.63204E+06
 0.95899994E+02 -0.79094E+06
 0.95949997E+02 -0.92307E+06
 0.95999992E+02 -0.10093E+07
 0.96049995E+02 -0.10508E+07
 0.96099991E+02 -0.10575E+07
 0.96149994E+02 -0.10340E+07
 0.96199997E+02 -0.97704E+06
 0.96249992E+02 -0.89595E+06
 0.96299995E+02 -0.80589E+06
 0.96349991E+02 -0.73065E+06
 0.96399994E+02 -0.68059E+06
 0.96449997E+02 -0.63054E+06
 0.96499992E+02 -0.56605E+06
 0.96549995E+02 -0.49875E+06
 0.96599991E+02 -0.43839E+06
 0.96649994E+02 -0.38951E+06
 0.96699997E+02 -0.33540E+06
 0.96749992E+02 -0.25323E+06
 0.96799995E+02 -0.14182E+06
 0.96849991E+02 -0.16316E+05
 0.96899994E+02  0.10779E+06
 0.96949997E+02  0.21793E+06
 0.96999992E+02  0.29943E+06
 0.97049995E+02  0.36075E+06
 0.97099991E+02  0.41371E+06
 0.97149994E+02  0.46776E+06
 0.97199997E+02  0.53821E+06
 0.97249992E+02  0.63188E+06
 0.97299995E+02  0.73299E+06
 0.97349991E+02  0.81277E+06
 0.97399994E+02  0.85203E+06
 0.97449997E+02  0.84446E+06
 0.97499992E+02  0.80343E+06
 0.97549995E+02  0.73937E+06
 0.97599991E+02  0.65157E+06
 0.97649994E+02  0.53468E+06
 0.97699997E+02  0.40495E+06
 0.97749992E+02  0.29809E+06
 0.97799995E+02  0.23290E+06
 0.97849991E+02  0.20414E+06
 0.97899994E+02  0.19749E+06
 0.97949997E+02  0.20513E+06
 0.97999992E+02  0.22498E+06
