-0.19969940E+01  0.36586E+05
-0.19469941E+01  0.36450E+05
-0.18969940E+01  0.36670E+05
-0.18469940E+01  0.36740E+05
-0.17969940E+01  0.36816E+05
-0.17469940E+01  0.36877E+05
-0.16969941E+01  0.36930E+05
-0.16469941E+01  0.36972E+05
-0.15969940E+01  0.37002E+05
-0.15469940E+01  0.37017E+05
-0.14969940E+01  0.37016E+05
-0.14469941E+01  0.37001E+05
-0.13969941E+01  0.36971E+05
-0.13469940E+01  0.36938E+05
-0.12969941E+01  0.36901E+05
-0.12469940E+01  0.36862E+05
-0.11969941E+01  0.36819E+05
-0.11469941E+01  0.36770E+05
-0.10969940E+01  0.36716E+05
-0.10469941E+01  0.36663E+05
-0.99699408E+00  0.36608E+05
-0.94699407E+00  0.36548E+05
-0.89699411E+00  0.36488E+05
-0.84699404E+00  0.36430E+05
-0.79699409E+00  0.36378E+05
-0.74699414E+00  0.36328E+05
-0.69699407E+00  0.36289E+05
-0.64699411E+00  0.36256E+05
-0.59699416E+00  0.36231E+05
-0.54699409E+00  0.36227E+05
-0.49699414E+00  0.36238E+05
-0.44699407E+00  0.36261E+05
-0.39699411E+00  0.36297E+05
-0.34699416E+00  0.36341E+05
-0.29699409E+00  0.36387E+05
-0.24699414E+00  0.36436E+05
-0.19699407E+00  0.36491E+05
-0.14699411E+00  0.36548E+05
-0.96994162E-01  0.36609E+05
-0.46994090E-01  0.36668E+05
 0.30058622E-02  0.36713E+05
 0.53005934E-01  0.36751E+05
 0.10300589E+00  0.36777E+05
 0.15300584E+00  0.36789E+05
 0.20300579E+00  0.36795E+05
 0.25300574E+00  0.36798E+05
 0.30300593E+00  0.36796E+05
 0.35300589E+00  0.36791E+05
 0.40300584E+00  0.36791E+05
 0.45300579E+00  0.36780E+05
 0.50300574E+00  0.36767E+05
 0.55300593E+00  0.36755E+05
 0.60300589E+00  0.36739E+05
 0.65300584E+00  0.36726E+05
 0.70300579E+00  0.36713E+05
 0.75300574E+00  0.36701E+05
 0.80300570E+00  0.36687E+05
 0.85300589E+00  0.36678E+05
 0.90300584E+00  0.36668E+05
 0.95300579E+00  0.36654E+05
 0.10030057E+01  0.36636E+05
 0.10530057E+01  0.36620E+05
 0.11030059E+01  0.36606E+05
 0.11530058E+01  0.36596E+05
 0.12030058E+01  0.36597E+05
 0.12530057E+01  0.36598E+05
 0.13030057E+01  0.36605E+05
 0.13530059E+01  0.36622E+05
 0.14030058E+01  0.36638E+05
 0.14530058E+01  0.36651E+05
 0.15030057E+01  0.36664E+05
 0.15530057E+01  0.36675E+05
 0.16030059E+01  0.36678E+05
 0.16530058E+01  0.36682E+05
 0.17030058E+01  0.36682E+05
 0.17530057E+01  0.36674E+05
 0.18030057E+01  0.36666E+05
 0.18530056E+01  0.36657E+05
 0.19030058E+01  0.36638E+05
 0.19530058E+01  0.36620E+05
 0.20030057E+01  0.36606E+05
 0.20530057E+01  0.36585E+05
 0.21030059E+01  0.36568E+05
 0.21530056E+01  0.36558E+05
 0.22030058E+01  0.36553E+05
 0.22530055E+01  0.36550E+05
 0.23030057E+01  0.36556E+05
 0.23530059E+01  0.36561E+05
 0.24030056E+01  0.36574E+05
 0.24530058E+01  0.36597E+05
 0.25030055E+01  0.36625E+05
 0.25530057E+01  0.36653E+05
 0.26030059E+01  0.36679E+05
 0.26530056E+01  0.36708E+05
 0.27030058E+01  0.36726E+05
 0.27530055E+01  0.36738E+05
 0.28030057E+01  0.36736E+05
 0.28530059E+01  0.36717E+05
 0.29030056E+01  0.36695E+05
 0.29530058E+01  0.36667E+05
 0.30030055E+01  0.36625E+05
 0.30530057E+01  0.36575E+05
 0.31030059E+01  0.36520E+05
 0.31530056E+01  0.36456E+05
 0.32030058E+01  0.36397E+05
 0.32530055E+01  0.36344E+05
 0.33030057E+01  0.36306E+05
 0.33530059E+01  0.36287E+05
 0.34030056E+01  0.36289E+05
 0.34530058E+01  0.36313E+05
 0.35030055E+01  0.36360E+05
 0.35530057E+01  0.36427E+05
 0.36030054E+01  0.36503E+05
 0.36530056E+01  0.36579E+05
 0.37030058E+01  0.36661E+05
 0.37530055E+01  0.36743E+05
 0.38030057E+01  0.36816E+05
 0.38530054E+01  0.36885E+05
 0.39030056E+01  0.36943E+05
 0.39530058E+01  0.36981E+05
 0.40030055E+01  0.37002E+05
 0.40530057E+01  0.37007E+05
 0.41030054E+01  0.36986E+05
 0.41530056E+01  0.36950E+05
 0.42030058E+01  0.36909E+05
 0.42530055E+01  0.36850E+05
 0.43030057E+01  0.36792E+05
 0.43530054E+01  0.36734E+05
 0.44030056E+01  0.36666E+05
 0.44530058E+01  0.36603E+05
 0.45030055E+01  0.36543E+05
 0.45530057E+01  0.36487E+05
 0.46030054E+01  0.36432E+05
 0.46530056E+01  0.36388E+05
 0.47030058E+01  0.36365E+05
 0.47530055E+01  0.36356E+05
 0.48030057E+01  0.36356E+05
 0.48530054E+01  0.36359E+05
 0.49030056E+01  0.36364E+05
 0.49530058E+01  0.36376E+05
 0.50030055E+01  0.36396E+05
 0.50530057E+01  0.36423E+05
 0.51030054E+01  0.36465E+05
 0.51530056E+01  0.36514E+05
 0.52030058E+01  0.36563E+05
 0.52530055E+01  0.36617E+05
 0.53030057E+01  0.36668E+05
 0.53530054E+01  0.36705E+05
 0.54030056E+01  0.36740E+05
 0.54530053E+01  0.36771E+05
 0.55030055E+01  0.36793E+05
 0.55530057E+01  0.36819E+05
 0.56030054E+01  0.36838E+05
 0.56530056E+01  0.36845E+05
 0.57030053E+01  0.36839E+05
 0.57530055E+01  0.36823E+05
 0.58030057E+01  0.36795E+05
 0.58530054E+01  0.36762E+05
 0.59030056E+01  0.36728E+05
 0.59530053E+01  0.36689E+05
 0.60030055E+01  0.36651E+05
 0.60530052E+01  0.36614E+05
 0.61030054E+01  0.36582E+05
 0.61530056E+01  0.36546E+05
 0.62030058E+01  0.36521E+05
 0.62530050E+01  0.36506E+05
 0.63030052E+01  0.36505E+05
 0.63530054E+01  0.36519E+05
 0.64030056E+01  0.36547E+05
 0.64530058E+01  0.36582E+05
 0.65030050E+01  0.36618E+05
 0.65530052E+01  0.36659E+05
 0.66030054E+01  0.36694E+05
 0.66530056E+01  0.36726E+05
 0.67030058E+01  0.36752E+05
 0.67530050E+01  0.36769E+05
 0.68030052E+01  0.36778E+05
 0.68530054E+01  0.36781E+05
 0.69030056E+01  0.36769E+05
 0.69530058E+01  0.36748E+05
 0.70030050E+01  0.36720E+05
 0.70530052E+01  0.36680E+05
 0.71030054E+01  0.36635E+05
 0.71530056E+01  0.36583E+05
 0.72030058E+01  0.36528E+05
 0.72530050E+01  0.36479E+05
 0.73030052E+01  0.36442E+05
 0.73530054E+01  0.36415E+05
 0.74030056E+01  0.36392E+05
 0.74530058E+01  0.36382E+05
 0.75030050E+01  0.36388E+05
 0.75530052E+01  0.36410E+05
 0.76030054E+01  0.36445E+05
 0.76530056E+01  0.36489E+05
 0.77030058E+01  0.36539E+05
 0.77530050E+01  0.36590E+05
 0.78030052E+01  0.36643E+05
 0.78530054E+01  0.36696E+05
 0.79030056E+01  0.36748E+05
 0.79530058E+01  0.36800E+05
 0.80030050E+01  0.36838E+05
 0.80530052E+01  0.36858E+05
 0.81030054E+01  0.36866E+05
 0.81530056E+01  0.36870E+05
 0.82030058E+01  0.36855E+05
 0.82530050E+01  0.36824E+05
 0.83030052E+01  0.36787E+05
 0.83530054E+01  0.36744E+05
 0.84030056E+01  0.36698E+05
 0.84530058E+01  0.36654E+05
 0.85030050E+01  0.36612E+05
 0.85530052E+01  0.36571E+05
 0.86030054E+01  0.36538E+05
 0.86530056E+01  0.36510E+05
 0.87030058E+01  0.36490E+05
 0.87530050E+01  0.36479E+05
 0.88030052E+01  0.36483E+05
 0.88530054E+01  0.36494E+05
 0.89030056E+01  0.36512E+05
 0.89530058E+01  0.36536E+05
 0.90030050E+01  0.36556E+05
 0.90530052E+01  0.36576E+05
 0.91030054E+01  0.36595E+05
 0.91530056E+01  0.36611E+05
 0.92030048E+01  0.36627E+05
 0.92530050E+01  0.36643E+05
 0.93030052E+01  0.36660E+05
 0.93530054E+01  0.36670E+05
 0.94030056E+01  0.36678E+05
 0.94530048E+01  0.36683E+05
 0.95030050E+01  0.36682E+05
 0.95530052E+01  0.36679E+05
 0.96030054E+01  0.36671E+05
 0.96530056E+01  0.36662E+05
 0.97030048E+01  0.36656E+05
 0.97530050E+01  0.36646E+05
 0.98030052E+01  0.36631E+05
 0.98530054E+01  0.36616E+05
 0.99030056E+01  0.36601E+05
 0.99530048E+01  0.36591E+05
 0.10003005E+02  0.36579E+05
 0.10053005E+02  0.36572E+05
 0.10103005E+02  0.36564E+05
 0.10153006E+02  0.36564E+05
 0.10203005E+02  0.36568E+05
 0.10253005E+02  0.36566E+05
 0.10303005E+02  0.36571E+05
 0.10353005E+02  0.36575E+05
 0.10403006E+02  0.36577E+05
 0.10453005E+02  0.36584E+05
 0.10503005E+02  0.36592E+05
 0.10553005E+02  0.36594E+05
 0.10603005E+02  0.36600E+05
 0.10653006E+02  0.36604E+05
 0.10703005E+02  0.36606E+05
 0.10753005E+02  0.36612E+05
 0.10803005E+02  0.36614E+05
 0.10853005E+02  0.36612E+05
 0.10903006E+02  0.36615E+05
 0.10953005E+02  0.36621E+05
 0.11003005E+02  0.36625E+05
 0.11053005E+02  0.36632E+05
 0.11103005E+02  0.36639E+05
 0.11153006E+02  0.36639E+05
 0.11203005E+02  0.36639E+05
 0.11253005E+02  0.36636E+05
 0.11303005E+02  0.36631E+05
 0.11353005E+02  0.36625E+05
 0.11403006E+02  0.36619E+05
 0.11453005E+02  0.36611E+05
 0.11503005E+02  0.36601E+05
 0.11553005E+02  0.36594E+05
 0.11603005E+02  0.36593E+05
 0.11653006E+02  0.36595E+05
 0.11703005E+02  0.36608E+05
 0.11753005E+02  0.36630E+05
 0.11803005E+02  0.36653E+05
 0.11853005E+02  0.36683E+05
 0.11903006E+02  0.36720E+05
 0.11953005E+02  0.36754E+05
 0.12003005E+02  0.36784E+05
 0.12053005E+02  0.36811E+05
 0.12103005E+02  0.36832E+05
 0.12153006E+02  0.36842E+05
 0.12203005E+02  0.36838E+05
 0.12253005E+02  0.36822E+05
 0.12303005E+02  0.36795E+05
 0.12353005E+02  0.36769E+05
 0.12403006E+02  0.36734E+05
 0.12453005E+02  0.36698E+05
 0.12503005E+02  0.36663E+05
 0.12553005E+02  0.36624E+05
 0.12603005E+02  0.36584E+05
 0.12653005E+02  0.36551E+05
 0.12703005E+02  0.36522E+05
 0.12753005E+02  0.36493E+05
 0.12803005E+02  0.36476E+05
 0.12853005E+02  0.36467E+05
 0.12903005E+02  0.36465E+05
 0.12953005E+02  0.36470E+05
 0.13003005E+02  0.36487E+05
 0.13053005E+02  0.36505E+05
 0.13103005E+02  0.36532E+05
 0.13153005E+02  0.36560E+05
 0.13203005E+02  0.36588E+05
 0.13253005E+02  0.36615E+05
 0.13303005E+02  0.36635E+05
 0.13353005E+02  0.36649E+05
 0.13403005E+02  0.36657E+05
 0.13453005E+02  0.36660E+05
 0.13503005E+02  0.36655E+05
 0.13553005E+02  0.36646E+05
 0.13603005E+02  0.36636E+05
 0.13653005E+02  0.36624E+05
 0.13703005E+02  0.36618E+05
 0.13753005E+02  0.36615E+05
 0.13803005E+02  0.36611E+05
 0.13853005E+02  0.36604E+05
 0.13903005E+02  0.36598E+05
 0.13953005E+02  0.36587E+05
 0.14003005E+02  0.36574E+05
 0.14053005E+02  0.36567E+05
 0.14103004E+02  0.36559E+05
 0.14153006E+02  0.36547E+05
 0.14203005E+02  0.36540E+05
 0.14253004E+02  0.36537E+05
 0.14303005E+02  0.36537E+05
 0.14353004E+02  0.36541E+05
 0.14403006E+02  0.36544E+05
 0.14453005E+02  0.36551E+05
 0.14503004E+02  0.36564E+05
 0.14553005E+02  0.36575E+05
 0.14603004E+02  0.36574E+05
 0.14653006E+02  0.36574E+05
 0.14703005E+02  0.36578E+05
 0.14753004E+02  0.36580E+05
 0.14803005E+02  0.36586E+05
 0.14853004E+02  0.36593E+05
 0.14903006E+02  0.36605E+05
 0.14953005E+02  0.36621E+05
 0.15003004E+02  0.36641E+05
 0.15053005E+02  0.36660E+05
 0.15103004E+02  0.36678E+05
 0.15153006E+02  0.36700E+05
 0.15203005E+02  0.36717E+05
 0.15253004E+02  0.36732E+05
 0.15303005E+02  0.36747E+05
 0.15353004E+02  0.36763E+05
 0.15403006E+02  0.36772E+05
 0.15453005E+02  0.36787E+05
 0.15503004E+02  0.36802E+05
 0.15553005E+02  0.36816E+05
 0.15603004E+02  0.36825E+05
 0.15653006E+02  0.36827E+05
 0.15703005E+02  0.36827E+05
 0.15753004E+02  0.36822E+05
 0.15803005E+02  0.36818E+05
 0.15853004E+02  0.36803E+05
 0.15903006E+02  0.36784E+05
 0.15953005E+02  0.36763E+05
 0.16003004E+02  0.36734E+05
 0.16053005E+02  0.36698E+05
 0.16103004E+02  0.36657E+05
 0.16153006E+02  0.36607E+05
 0.16203005E+02  0.36551E+05
 0.16253004E+02  0.36500E+05
 0.16303005E+02  0.36454E+05
 0.16353004E+02  0.36420E+05
 0.16403006E+02  0.36403E+05
 0.16453005E+02  0.36395E+05
 0.16503004E+02  0.36396E+05
 0.16553005E+02  0.36407E+05
 0.16603004E+02  0.36429E+05
 0.16653006E+02  0.36459E+05
 0.16703005E+02  0.36494E+05
 0.16753004E+02  0.36531E+05
 0.16803005E+02  0.36561E+05
 0.16853004E+02  0.36591E+05
 0.16903006E+02  0.36615E+05
 0.16953005E+02  0.36627E+05
 0.17003004E+02  0.36626E+05
 0.17053005E+02  0.36616E+05
 0.17103004E+02  0.36597E+05
 0.17153006E+02  0.36576E+05
 0.17203005E+02  0.36550E+05
 0.17253004E+02  0.36521E+05
 0.17303005E+02  0.36488E+05
 0.17353004E+02  0.36459E+05
 0.17403006E+02  0.36442E+05
 0.17453005E+02  0.36433E+05
 0.17503004E+02  0.36440E+05
 0.17553005E+02  0.36453E+05
 0.17603004E+02  0.36474E+05
 0.17653006E+02  0.36507E+05
 0.17703005E+02  0.36550E+05
 0.17753004E+02  0.36601E+05
 0.17803005E+02  0.36657E+05
 0.17853004E+02  0.36716E+05
 0.17903006E+02  0.36772E+05
 0.17953005E+02  0.36826E+05
 0.18003004E+02  0.36870E+05
 0.18053005E+02  0.36896E+05
 0.18103004E+02  0.36912E+05
 0.18153006E+02  0.36920E+05
 0.18203005E+02  0.36916E+05
 0.18253004E+02  0.36904E+05
 0.18303005E+02  0.36875E+05
 0.18353004E+02  0.36830E+05
 0.18403006E+02  0.36785E+05
 0.18453005E+02  0.36739E+05
 0.18503004E+02  0.36694E+05
 0.18553005E+02  0.36653E+05
 0.18603004E+02  0.36622E+05
 0.18653006E+02  0.36592E+05
 0.18703005E+02  0.36570E+05
 0.18753004E+02  0.36559E+05
 0.18803005E+02  0.36551E+05
 0.18853004E+02  0.36550E+05
 0.18903006E+02  0.36555E+05
 0.18953005E+02  0.36572E+05
 0.19003004E+02  0.36593E+05
 0.19053005E+02  0.36617E+05
 0.19103004E+02  0.36633E+05
 0.19153006E+02  0.36643E+05
 0.19203005E+02  0.36651E+05
 0.19253004E+02  0.36661E+05
 0.19303005E+02  0.36667E+05
 0.19353004E+02  0.36666E+05
 0.19403006E+02  0.36663E+05
 0.19453005E+02  0.36655E+05
 0.19503004E+02  0.36649E+05
 0.19553005E+02  0.36639E+05
 0.19603004E+02  0.36628E+05
 0.19653006E+02  0.36617E+05
 0.19703005E+02  0.36604E+05
 0.19753004E+02  0.36589E+05
 0.19803005E+02  0.36574E+05
 0.19853004E+02  0.36566E+05
 0.19903006E+02  0.36564E+05
 0.19953005E+02  0.36569E+05
 0.20003004E+02  0.36573E+05
 0.20053005E+02  0.36586E+05
 0.20103004E+02  0.36605E+05
 0.20153006E+02  0.36621E+05
 0.20203005E+02  0.36637E+05
 0.20253004E+02  0.36650E+05
 0.20303005E+02  0.36658E+05
 0.20353004E+02  0.36666E+05
 0.20403004E+02  0.36674E+05
 0.20453005E+02  0.36675E+05
 0.20503004E+02  0.36673E+05
 0.20553005E+02  0.36661E+05
 0.20603004E+02  0.36637E+05
 0.20653004E+02  0.36607E+05
 0.20703005E+02  0.36575E+05
 0.20753004E+02  0.36536E+05
 0.20803005E+02  0.36498E+05
 0.20853004E+02  0.36471E+05
 0.20903004E+02  0.36448E+05
 0.20953005E+02  0.36432E+05
 0.21003004E+02  0.36424E+05
 0.21053005E+02  0.36420E+05
 0.21103004E+02  0.36421E+05
 0.21153004E+02  0.36431E+05
 0.21203005E+02  0.36444E+05
 0.21253004E+02  0.36464E+05
 0.21303005E+02  0.36494E+05
 0.21353004E+02  0.36524E+05
 0.21403004E+02  0.36561E+05
 0.21453005E+02  0.36605E+05
 0.21503004E+02  0.36655E+05
 0.21553005E+02  0.36701E+05
 0.21603004E+02  0.36743E+05
 0.21653004E+02  0.36781E+05
 0.21703005E+02  0.36809E+05
 0.21753004E+02  0.36834E+05
 0.21803005E+02  0.36851E+05
 0.21853004E+02  0.36858E+05
 0.21903004E+02  0.36860E+05
 0.21953005E+02  0.36849E+05
 0.22003004E+02  0.36832E+05
 0.22053005E+02  0.36813E+05
 0.22103004E+02  0.36785E+05
 0.22153004E+02  0.36753E+05
 0.22203005E+02  0.36721E+05
 0.22253004E+02  0.36688E+05
 0.22303005E+02  0.36657E+05
 0.22353004E+02  0.36634E+05
 0.22403004E+02  0.36614E+05
 0.22453005E+02  0.36599E+05
 0.22503004E+02  0.36584E+05
 0.22553005E+02  0.36568E+05
 0.22603004E+02  0.36554E+05
 0.22653004E+02  0.36548E+05
 0.22703005E+02  0.36545E+05
 0.22753004E+02  0.36545E+05
 0.22803005E+02  0.36549E+05
 0.22853004E+02  0.36553E+05
 0.22903004E+02  0.36559E+05
 0.22953005E+02  0.36568E+05
 0.23003004E+02  0.36581E+05
 0.23053005E+02  0.36597E+05
 0.23103004E+02  0.36622E+05
 0.23153004E+02  0.36645E+05
 0.23203005E+02  0.36670E+05
 0.23253004E+02  0.36696E+05
 0.23303005E+02  0.36718E+05
 0.23353004E+02  0.36737E+05
 0.23403004E+02  0.36746E+05
 0.23453005E+02  0.36745E+05
 0.23503004E+02  0.36734E+05
 0.23553005E+02  0.36716E+05
 0.23603004E+02  0.36692E+05
 0.23653004E+02  0.36661E+05
 0.23703005E+02  0.36628E+05
 0.23753004E+02  0.36598E+05
 0.23803005E+02  0.36572E+05
 0.23853004E+02  0.36553E+05
 0.23903004E+02  0.36540E+05
 0.23953005E+02  0.36533E+05
 0.24003004E+02  0.36526E+05
 0.24053005E+02  0.36519E+05
 0.24103004E+02  0.36518E+05
 0.24153004E+02  0.36525E+05
 0.24203005E+02  0.36535E+05
 0.24253004E+02  0.36546E+05
 0.24303005E+02  0.36559E+05
 0.24353004E+02  0.36570E+05
 0.24403004E+02  0.36581E+05
 0.24453005E+02  0.36590E+05
 0.24503004E+02  0.36601E+05
 0.24553005E+02  0.36604E+05
 0.24603004E+02  0.36604E+05
 0.24653004E+02  0.36598E+05
 0.24703005E+02  0.36594E+05
 0.24753004E+02  0.36594E+05
 0.24803005E+02  0.36591E+05
 0.24853004E+02  0.36592E+05
 0.24903004E+02  0.36589E+05
 0.24953005E+02  0.36586E+05
 0.25003004E+02  0.36582E+05
 0.25053005E+02  0.36579E+05
 0.25103004E+02  0.36575E+05
 0.25153004E+02  0.36574E+05
 0.25203005E+02  0.36575E+05
 0.25253004E+02  0.36578E+05
 0.25303005E+02  0.36583E+05
 0.25353004E+02  0.36590E+05
 0.25403004E+02  0.36602E+05
 0.25453005E+02  0.36611E+05
 0.25503004E+02  0.36627E+05
 0.25553005E+02  0.36646E+05
 0.25603004E+02  0.36666E+05
 0.25653004E+02  0.36693E+05
 0.25703005E+02  0.36717E+05
 0.25753004E+02  0.36739E+05
 0.25803005E+02  0.36755E+05
 0.25853004E+02  0.36769E+05
 0.25903004E+02  0.36779E+05
 0.25953005E+02  0.36784E+05
 0.26003004E+02  0.36790E+05
 0.26053005E+02  0.36792E+05
 0.26103004E+02  0.36791E+05
 0.26153004E+02  0.36788E+05
 0.26203005E+02  0.36782E+05
 0.26253004E+02  0.36774E+05
 0.26303005E+02  0.36763E+05
 0.26353004E+02  0.36753E+05
 0.26403004E+02  0.36737E+05
 0.26453005E+02  0.36719E+05
 0.26503004E+02  0.36692E+05
 0.26553005E+02  0.36656E+05
 0.26603004E+02  0.36619E+05
 0.26653004E+02  0.36580E+05
 0.26703005E+02  0.36538E+05
 0.26753004E+02  0.36494E+05
 0.26803005E+02  0.36460E+05
 0.26853004E+02  0.36436E+05
 0.26903004E+02  0.36415E+05
 0.26953005E+02  0.36403E+05
 0.27003004E+02  0.36395E+05
 0.27053003E+02  0.36391E+05
 0.27103004E+02  0.36401E+05
 0.27153004E+02  0.36417E+05
 0.27203005E+02  0.36446E+05
 0.27253004E+02  0.36485E+05
 0.27303003E+02  0.36525E+05
 0.27353004E+02  0.36568E+05
 0.27403004E+02  0.36615E+05
 0.27453005E+02  0.36659E+05
 0.27503004E+02  0.36698E+05
 0.27553003E+02  0.36725E+05
 0.27603004E+02  0.36747E+05
 0.27653004E+02  0.36759E+05
 0.27703005E+02  0.36764E+05
 0.27753004E+02  0.36761E+05
 0.27803003E+02  0.36745E+05
 0.27853004E+02  0.36726E+05
 0.27903004E+02  0.36703E+05
 0.27953005E+02  0.36675E+05
 0.28003004E+02  0.36644E+05
 0.28053003E+02  0.36611E+05
 0.28103004E+02  0.36574E+05
 0.28153004E+02  0.36544E+05
 0.28203005E+02  0.36517E+05
 0.28253004E+02  0.36493E+05
 0.28303003E+02  0.36476E+05
 0.28353004E+02  0.36470E+05
 0.28403004E+02  0.36466E+05
 0.28453005E+02  0.36471E+05
 0.28503004E+02  0.36483E+05
 0.28553003E+02  0.36499E+05
 0.28603004E+02  0.36524E+05
 0.28653004E+02  0.36558E+05
 0.28703005E+02  0.36594E+05
 0.28753004E+02  0.36636E+05
 0.28803003E+02  0.36683E+05
 0.28853004E+02  0.36722E+05
 0.28903004E+02  0.36762E+05
 0.28953005E+02  0.36805E+05
 0.29003004E+02  0.36836E+05
 0.29053003E+02  0.36864E+05
 0.29103004E+02  0.36884E+05
 0.29153004E+02  0.36891E+05
 0.29203005E+02  0.36888E+05
 0.29253004E+02  0.36878E+05
 0.29303003E+02  0.36860E+05
 0.29353004E+02  0.36829E+05
 0.29403004E+02  0.36793E+05
 0.29453005E+02  0.36756E+05
 0.29503004E+02  0.36713E+05
 0.29553003E+02  0.36673E+05
 0.29603004E+02  0.36637E+05
 0.29653004E+02  0.36604E+05
 0.29703005E+02  0.36571E+05
 0.29753004E+02  0.36538E+05
 0.29803003E+02  0.36514E+05
 0.29853004E+02  0.36496E+05
 0.29903004E+02  0.36482E+05
 0.29953005E+02  0.36474E+05
 0.30003004E+02  0.36475E+05
 0.30053005E+02  0.36484E+05
 0.30103004E+02  0.36507E+05
 0.30153004E+02  0.36529E+05
 0.30203003E+02  0.36548E+05
 0.30253002E+02  0.36579E+05
 0.30303005E+02  0.36609E+05
 0.30353004E+02  0.36641E+05
 0.30403004E+02  0.36678E+05
 0.30453003E+02  0.36693E+05
 0.30503002E+02  0.36712E+05
 0.30553005E+02  0.36731E+05
 0.30603004E+02  0.36736E+05
 0.30653004E+02  0.36735E+05
 0.30703003E+02  0.36736E+05
 0.30753002E+02  0.36704E+05
 0.30803005E+02  0.36686E+05
 0.30853004E+02  0.36659E+05
 0.30903004E+02  0.36599E+05
 0.30953003E+02  0.36601E+05
 0.31003002E+02  0.36559E+05
 0.31053005E+02  0.36526E+05
 0.31103004E+02  0.36559E+05
 0.31153004E+02  0.36515E+05
 0.31203003E+02  0.36512E+05
 0.31253002E+02  0.36574E+05
 0.31303005E+02  0.36516E+05
 0.31353004E+02  0.36561E+05
 0.31403004E+02  0.36599E+05
 0.31453003E+02  0.36556E+05
 0.31503002E+02  0.36674E+05
 0.31553005E+02  0.36644E+05
 0.31603004E+02  0.36592E+05
 0.31653004E+02  0.36740E+05
 0.31703003E+02  0.36783E+05
 0.31753002E+02  0.36752E+05
 0.31803005E+02  0.36706E+05
 0.31853004E+02  0.36623E+05
 0.31903004E+02  0.36723E+05
 0.31953003E+02  0.36800E+05
 0.32003002E+02  0.36673E+05
 0.32053005E+02  0.36651E+05
 0.32103004E+02  0.36688E+05
 0.32153004E+02  0.36614E+05
 0.32203003E+02  0.36582E+05
 0.32253002E+02  0.36563E+05
 0.32303005E+02  0.36558E+05
 0.32353004E+02  0.36568E+05
 0.32403004E+02  0.36418E+05
 0.32453003E+02  0.36383E+05
 0.32503002E+02  0.36408E+05
 0.32553005E+02  0.36446E+05
 0.32603004E+02  0.36483E+05
 0.32653004E+02  0.36519E+05
 0.32703003E+02  0.36493E+05
 0.32753002E+02  0.36428E+05
 0.32803005E+02  0.36417E+05
 0.32853004E+02  0.36433E+05
 0.32903004E+02  0.36577E+05
 0.32953003E+02  0.36489E+05
 0.33003002E+02  0.36571E+05
 0.33053005E+02  0.36468E+05
 0.33103004E+02  0.36341E+05
 0.33153004E+02  0.36694E+05
 0.33203003E+02  0.36626E+05
 0.33253002E+02  0.36555E+05
 0.33303005E+02  0.36642E+05
 0.33353004E+02  0.36655E+05
 0.33403004E+02  0.36959E+05
 0.33453003E+02  0.36916E+05
 0.33503002E+02  0.36504E+05
 0.33553005E+02  0.36889E+05
 0.33603004E+02  0.37165E+05
 0.33653004E+02  0.36997E+05
 0.33703003E+02  0.36751E+05
 0.33753002E+02  0.36493E+05
 0.33803005E+02  0.36538E+05
 0.33853004E+02  0.36765E+05
 0.33903004E+02  0.36845E+05
 0.33953003E+02  0.37065E+05
 0.34003002E+02  0.37032E+05
 0.34053005E+02  0.36260E+05
 0.34103004E+02  0.35816E+05
 0.34153004E+02  0.36652E+05
 0.34203003E+02  0.37286E+05
 0.34253002E+02  0.36849E+05
 0.34303005E+02  0.36303E+05
 0.34353004E+02  0.36156E+05
 0.34403004E+02  0.36802E+05
 0.34453003E+02  0.36731E+05
 0.34503002E+02  0.36313E+05
 0.34553005E+02  0.36244E+05
 0.34603004E+02  0.36789E+05
 0.34653004E+02  0.36774E+05
 0.34703003E+02  0.36470E+05
 0.34753002E+02  0.36646E+05
 0.34803005E+02  0.36481E+05
 0.34853004E+02  0.36334E+05
 0.34903004E+02  0.36621E+05
 0.34953003E+02  0.37114E+05
 0.35003002E+02  0.36990E+05
 0.35053005E+02  0.37224E+05
 0.35103004E+02  0.36167E+05
 0.35153004E+02  0.35524E+05
 0.35203003E+02  0.36618E+05
 0.35253002E+02  0.37128E+05
 0.35303005E+02  0.37296E+05
 0.35353004E+02  0.36698E+05
 0.35403004E+02  0.35892E+05
 0.35453003E+02  0.36034E+05
 0.35503002E+02  0.36544E+05
 0.35553005E+02  0.36579E+05
 0.35603004E+02  0.37212E+05
 0.35653004E+02  0.37183E+05
 0.35703003E+02  0.36070E+05
 0.35753002E+02  0.35826E+05
 0.35803005E+02  0.36543E+05
 0.35853004E+02  0.36905E+05
 0.35903004E+02  0.37352E+05
 0.35953003E+02  0.36963E+05
 0.36003002E+02  0.36843E+05
 0.36053005E+02  0.37314E+05
 0.36103004E+02  0.36325E+05
 0.36153004E+02  0.35597E+05
 0.36203003E+02  0.36373E+05
 0.36253002E+02  0.37897E+05
 0.36303005E+02  0.37363E+05
 0.36353004E+02  0.36119E+05
 0.36403004E+02  0.36237E+05
 0.36453003E+02  0.37216E+05
 0.36503002E+02  0.37486E+05
 0.36553005E+02  0.36740E+05
 0.36603004E+02  0.36132E+05
 0.36653004E+02  0.36418E+05
 0.36703003E+02  0.36525E+05
 0.36753002E+02  0.37033E+05
 0.36803005E+02  0.37252E+05
 0.36853004E+02  0.36446E+05
 0.36903004E+02  0.36194E+05
 0.36953003E+02  0.36933E+05
 0.37003002E+02  0.37174E+05
 0.37053005E+02  0.35793E+05
 0.37103004E+02  0.36128E+05
 0.37153004E+02  0.37310E+05
 0.37203003E+02  0.37773E+05
 0.37253002E+02  0.37333E+05
 0.37303005E+02  0.36504E+05
 0.37353004E+02  0.35686E+05
 0.37403004E+02  0.36171E+05
 0.37453003E+02  0.36330E+05
 0.37503002E+02  0.36601E+05
 0.37553005E+02  0.37595E+05
 0.37603004E+02  0.36500E+05
 0.37653004E+02  0.36070E+05
 0.37703003E+02  0.35824E+05
 0.37753002E+02  0.36271E+05
 0.37803005E+02  0.36776E+05
 0.37853004E+02  0.36166E+05
 0.37903004E+02  0.35674E+05
 0.37953003E+02  0.35261E+05
 0.38003002E+02  0.35860E+05
 0.38053005E+02  0.36694E+05
 0.38103004E+02  0.36978E+05
 0.38153004E+02  0.36999E+05
 0.38203003E+02  0.37318E+05
 0.38253002E+02  0.36826E+05
 0.38303005E+02  0.35778E+05
 0.38353004E+02  0.36853E+05
 0.38403004E+02  0.37853E+05
 0.38453003E+02  0.38338E+05
 0.38503002E+02  0.37740E+05
 0.38553005E+02  0.36222E+05
 0.38603004E+02  0.35925E+05
 0.38653004E+02  0.36831E+05
 0.38703003E+02  0.36879E+05
 0.38753002E+02  0.35420E+05
 0.38803005E+02  0.35584E+05
 0.38853004E+02  0.35679E+05
 0.38903004E+02  0.36303E+05
 0.38953003E+02  0.36456E+05
 0.39003002E+02  0.34650E+05
 0.39053005E+02  0.35277E+05
 0.39103004E+02  0.37390E+05
 0.39153004E+02  0.37526E+05
 0.39203003E+02  0.37099E+05
 0.39253002E+02  0.36760E+05
 0.39303005E+02  0.36362E+05
 0.39353004E+02  0.37187E+05
 0.39403004E+02  0.37648E+05
 0.39453003E+02  0.37510E+05
 0.39503002E+02  0.38264E+05
 0.39553005E+02  0.36795E+05
 0.39603004E+02  0.35449E+05
 0.39653004E+02  0.36845E+05
 0.39703003E+02  0.36942E+05
 0.39753002E+02  0.36684E+05
 0.39803005E+02  0.36285E+05
 0.39853004E+02  0.35742E+05
 0.39903004E+02  0.37380E+05
 0.39953003E+02  0.38640E+05
 0.40003002E+02  0.36574E+05
 0.40053005E+02  0.35148E+05
 0.40103004E+02  0.36264E+05
 0.40153004E+02  0.36206E+05
 0.40203003E+02  0.36604E+05
 0.40253002E+02  0.37389E+05
 0.40303005E+02  0.37016E+05
 0.40353004E+02  0.36373E+05
 0.40403004E+02  0.35809E+05
 0.40453003E+02  0.35801E+05
 0.40503002E+02  0.36130E+05
 0.40553005E+02  0.37213E+05
 0.40603004E+02  0.38034E+05
 0.40653004E+02  0.37675E+05
 0.40703003E+02  0.37074E+05
 0.40753002E+02  0.36606E+05
 0.40803005E+02  0.36598E+05
 0.40853004E+02  0.37287E+05
 0.40903004E+02  0.37324E+05
 0.40953003E+02  0.36350E+05
 0.41003002E+02  0.36513E+05
 0.41053005E+02  0.36867E+05
 0.41103004E+02  0.36348E+05
 0.41153004E+02  0.36035E+05
 0.41203003E+02  0.34901E+05
 0.41253002E+02  0.35317E+05
 0.41303005E+02  0.36784E+05
 0.41353004E+02  0.36835E+05
 0.41403004E+02  0.36708E+05
 0.41453003E+02  0.36691E+05
 0.41503002E+02  0.35940E+05
 0.41553005E+02  0.36383E+05
 0.41603004E+02  0.37447E+05
 0.41653004E+02  0.36300E+05
 0.41703003E+02  0.35764E+05
 0.41753002E+02  0.35445E+05
 0.41803005E+02  0.34960E+05
 0.41853004E+02  0.36434E+05
 0.41903004E+02  0.37236E+05
 0.41953003E+02  0.36738E+05
 0.42003002E+02  0.37171E+05
 0.42053005E+02  0.37924E+05
 0.42103004E+02  0.38240E+05
 0.42153004E+02  0.38051E+05
 0.42203003E+02  0.36453E+05
 0.42253002E+02  0.35284E+05
 0.42303005E+02  0.35878E+05
 0.42353004E+02  0.36803E+05
 0.42403004E+02  0.37881E+05
 0.42453003E+02  0.38314E+05
 0.42503002E+02  0.37740E+05
 0.42553005E+02  0.37150E+05
 0.42603004E+02  0.36508E+05
 0.42653004E+02  0.35492E+05
 0.42703003E+02  0.35533E+05
 0.42753002E+02  0.36370E+05
 0.42803001E+02  0.36920E+05
 0.42853004E+02  0.37665E+05
 0.42903004E+02  0.37004E+05
 0.42953003E+02  0.35438E+05
 0.43003002E+02  0.35149E+05
 0.43053001E+02  0.35931E+05
 0.43103004E+02  0.36012E+05
 0.43153004E+02  0.36262E+05
 0.43203003E+02  0.36754E+05
 0.43253002E+02  0.36924E+05
 0.43303001E+02  0.37343E+05
 0.43353004E+02  0.37537E+05
 0.43403004E+02  0.37355E+05
 0.43453003E+02  0.35938E+05
 0.43503002E+02  0.35256E+05
 0.43553001E+02  0.35635E+05
 0.43603004E+02  0.36237E+05
 0.43653004E+02  0.37404E+05
 0.43703003E+02  0.38000E+05
 0.43753002E+02  0.37126E+05
 0.43803001E+02  0.36470E+05
 0.43853004E+02  0.36837E+05
 0.43903004E+02  0.36610E+05
 0.43953003E+02  0.35659E+05
 0.44003002E+02  0.35810E+05
 0.44053001E+02  0.36529E+05
 0.44103004E+02  0.37341E+05
 0.44153004E+02  0.37957E+05
 0.44203003E+02  0.37619E+05
 0.44253002E+02  0.37973E+05
 0.44303001E+02  0.37685E+05
 0.44353004E+02  0.36161E+05
 0.44403004E+02  0.34805E+05
 0.44453003E+02  0.35488E+05
 0.44503002E+02  0.36623E+05
 0.44553001E+02  0.37011E+05
 0.44603004E+02  0.37449E+05
 0.44653004E+02  0.36678E+05
 0.44703003E+02  0.35893E+05
 0.44753002E+02  0.36272E+05
 0.44803001E+02  0.37003E+05
 0.44853004E+02  0.36623E+05
 0.44903004E+02  0.36013E+05
 0.44953003E+02  0.35806E+05
 0.45003002E+02  0.36199E+05
 0.45053001E+02  0.37168E+05
 0.45103004E+02  0.36800E+05
 0.45153004E+02  0.36473E+05
 0.45203003E+02  0.36429E+05
 0.45253002E+02  0.36125E+05
 0.45303001E+02  0.36758E+05
 0.45353004E+02  0.37242E+05
 0.45403004E+02  0.37689E+05
 0.45453003E+02  0.37443E+05
 0.45503002E+02  0.35882E+05
 0.45553001E+02  0.35727E+05
 0.45603004E+02  0.35790E+05
 0.45653004E+02  0.35794E+05
 0.45703003E+02  0.36988E+05
 0.45753002E+02  0.37867E+05
 0.45803001E+02  0.37487E+05
 0.45853004E+02  0.36613E+05
 0.45903004E+02  0.36806E+05
 0.45953003E+02  0.38291E+05
 0.46003002E+02  0.38260E+05
 0.46053001E+02  0.35559E+05
 0.46103004E+02  0.34900E+05
 0.46153004E+02  0.36161E+05
 0.46203003E+02  0.36616E+05
 0.46253002E+02  0.35929E+05
 0.46303001E+02  0.35363E+05
 0.46353004E+02  0.35418E+05
 0.46403004E+02  0.35221E+05
 0.46453003E+02  0.35811E+05
 0.46503002E+02  0.36705E+05
 0.46553001E+02  0.38141E+05
 0.46603004E+02  0.38611E+05
 0.46653004E+02  0.38010E+05
 0.46703003E+02  0.38137E+05
 0.46753002E+02  0.37472E+05
 0.46803001E+02  0.36642E+05
 0.46853004E+02  0.35983E+05
 0.46903004E+02  0.35689E+05
 0.46953003E+02  0.36726E+05
 0.47003002E+02  0.37129E+05
 0.47053001E+02  0.36554E+05
 0.47103004E+02  0.36100E+05
 0.47153004E+02  0.35985E+05
 0.47203003E+02  0.35905E+05
 0.47253002E+02  0.35257E+05
 0.47303001E+02  0.34949E+05
 0.47353004E+02  0.35965E+05
 0.47403004E+02  0.37554E+05
 0.47453003E+02  0.37799E+05
 0.47503002E+02  0.37579E+05
 0.47553001E+02  0.37283E+05
 0.47603004E+02  0.36405E+05
 0.47653004E+02  0.36120E+05
 0.47703003E+02  0.36623E+05
 0.47753002E+02  0.37917E+05
 0.47803001E+02  0.38822E+05
 0.47853004E+02  0.38000E+05
 0.47903004E+02  0.36470E+05
 0.47953003E+02  0.35809E+05
 0.48003002E+02  0.35936E+05
 0.48053001E+02  0.36348E+05
 0.48103004E+02  0.35889E+05
 0.48153004E+02  0.34797E+05
 0.48203003E+02  0.35304E+05
 0.48253002E+02  0.36843E+05
 0.48303001E+02  0.36951E+05
 0.48353004E+02  0.37141E+05
 0.48403004E+02  0.37931E+05
 0.48453003E+02  0.37651E+05
 0.48503002E+02  0.36696E+05
 0.48553001E+02  0.35826E+05
 0.48603004E+02  0.36754E+05
 0.48653004E+02  0.37858E+05
 0.48703003E+02  0.36874E+05
 0.48753002E+02  0.35651E+05
 0.48803001E+02  0.35612E+05
 0.48853004E+02  0.36066E+05
 0.48903004E+02  0.35823E+05
 0.48953003E+02  0.35486E+05
 0.49003002E+02  0.35704E+05
 0.49053001E+02  0.36467E+05
 0.49103004E+02  0.37400E+05
 0.49153004E+02  0.37501E+05
 0.49203003E+02  0.37113E+05
 0.49253002E+02  0.36546E+05
 0.49303001E+02  0.36372E+05
 0.49353004E+02  0.36928E+05
 0.49403004E+02  0.37406E+05
 0.49453003E+02  0.36752E+05
 0.49503002E+02  0.35816E+05
 0.49553001E+02  0.35875E+05
 0.49603004E+02  0.36138E+05
 0.49653004E+02  0.36219E+05
 0.49703003E+02  0.36510E+05
 0.49753002E+02  0.36814E+05
 0.49803001E+02  0.36810E+05
 0.49853004E+02  0.36952E+05
 0.49903004E+02  0.37810E+05
 0.49953003E+02  0.38612E+05
 0.50003002E+02  0.38352E+05
 0.50053001E+02  0.37245E+05
 0.50103004E+02  0.35599E+05
 0.50153004E+02  0.35294E+05
 0.50203003E+02  0.36482E+05
 0.50253002E+02  0.37186E+05
 0.50303001E+02  0.37378E+05
 0.50353004E+02  0.37103E+05
 0.50403004E+02  0.37097E+05
 0.50453003E+02  0.36881E+05
 0.50503002E+02  0.36526E+05
 0.50553001E+02  0.36561E+05
 0.50603004E+02  0.36080E+05
 0.50653004E+02  0.35669E+05
 0.50703003E+02  0.35678E+05
 0.50753002E+02  0.36002E+05
 0.50803001E+02  0.36839E+05
 0.50853004E+02  0.37479E+05
 0.50903004E+02  0.37232E+05
 0.50953003E+02  0.36912E+05
 0.51003002E+02  0.36962E+05
 0.51053001E+02  0.37085E+05
 0.51103004E+02  0.37506E+05
 0.51153004E+02  0.37257E+05
 0.51203003E+02  0.37102E+05
 0.51253002E+02  0.37414E+05
 0.51303001E+02  0.36432E+05
 0.51353004E+02  0.35081E+05
 0.51403004E+02  0.34160E+05
 0.51453003E+02  0.34474E+05
 0.51503002E+02  0.35816E+05
 0.51553001E+02  0.36738E+05
 0.51603004E+02  0.36696E+05
 0.51653004E+02  0.36439E+05
 0.51703003E+02  0.36637E+05
 0.51753002E+02  0.36734E+05
 0.51803001E+02  0.36769E+05
 0.51853004E+02  0.36867E+05
 0.51903004E+02  0.36684E+05
 0.51953003E+02  0.36158E+05
 0.52003002E+02  0.35597E+05
 0.52053001E+02  0.36154E+05
 0.52103004E+02  0.37288E+05
 0.52153004E+02  0.37330E+05
 0.52203003E+02  0.36012E+05
 0.52253002E+02  0.34918E+05
 0.52303001E+02  0.35849E+05
 0.52353004E+02  0.37225E+05
 0.52403004E+02  0.38183E+05
 0.52453003E+02  0.38436E+05
 0.52503002E+02  0.38320E+05
 0.52553001E+02  0.37986E+05
 0.52603004E+02  0.37783E+05
 0.52653004E+02  0.37997E+05
 0.52703003E+02  0.37384E+05
 0.52753002E+02  0.36404E+05
 0.52803001E+02  0.35118E+05
 0.52853004E+02  0.35154E+05
 0.52903004E+02  0.36377E+05
 0.52953003E+02  0.36351E+05
 0.53003002E+02  0.35605E+05
 0.53053001E+02  0.35705E+05
 0.53103004E+02  0.36536E+05
 0.53153004E+02  0.36431E+05
 0.53203003E+02  0.36157E+05
 0.53253002E+02  0.36391E+05
 0.53303001E+02  0.36315E+05
 0.53353004E+02  0.36062E+05
 0.53403004E+02  0.36352E+05
 0.53453003E+02  0.37231E+05
 0.53503002E+02  0.37143E+05
 0.53553001E+02  0.36928E+05
 0.53603004E+02  0.37179E+05
 0.53653004E+02  0.36710E+05
 0.53703003E+02  0.36568E+05
 0.53753002E+02  0.36965E+05
 0.53803001E+02  0.36912E+05
 0.53853004E+02  0.36108E+05
 0.53903004E+02  0.35581E+05
 0.53953003E+02  0.36014E+05
 0.54003002E+02  0.36630E+05
 0.54053001E+02  0.36888E+05
 0.54103004E+02  0.36576E+05
 0.54153004E+02  0.36477E+05
 0.54203003E+02  0.36478E+05
 0.54253002E+02  0.35897E+05
 0.54303001E+02  0.35609E+05
 0.54353004E+02  0.35719E+05
 0.54403004E+02  0.35797E+05
 0.54453003E+02  0.35792E+05
 0.54503002E+02  0.35966E+05
 0.54553001E+02  0.36405E+05
 0.54603004E+02  0.36547E+05
 0.54653004E+02  0.36752E+05
 0.54703003E+02  0.38135E+05
 0.54753002E+02  0.39714E+05
 0.54803001E+02  0.38943E+05
 0.54853004E+02  0.37047E+05
 0.54903004E+02  0.35733E+05
 0.54953003E+02  0.35631E+05
 0.55003002E+02  0.36233E+05
 0.55053001E+02  0.35820E+05
 0.55103004E+02  0.35333E+05
 0.55153004E+02  0.36405E+05
 0.55203003E+02  0.37602E+05
 0.55253002E+02  0.37917E+05
 0.55303001E+02  0.38509E+05
 0.55353004E+02  0.38603E+05
 0.55403004E+02  0.38342E+05
 0.55453003E+02  0.37694E+05
 0.55503002E+02  0.36457E+05
 0.55553001E+02  0.36039E+05
 0.55603004E+02  0.37149E+05
 0.55653004E+02  0.38654E+05
 0.55703003E+02  0.38986E+05
 0.55753002E+02  0.37857E+05
 0.55803001E+02  0.36225E+05
 0.55853001E+02  0.35385E+05
 0.55903004E+02  0.35055E+05
 0.55953003E+02  0.35429E+05
 0.56003002E+02  0.35684E+05
 0.56053001E+02  0.35111E+05
 0.56103001E+02  0.34732E+05
 0.56153004E+02  0.34349E+05
 0.56203003E+02  0.33705E+05
 0.56253002E+02  0.33230E+05
 0.56303001E+02  0.33666E+05
 0.56353001E+02  0.34446E+05
 0.56403004E+02  0.34864E+05
 0.56453003E+02  0.35389E+05
 0.56503002E+02  0.36654E+05
 0.56553001E+02  0.38616E+05
 0.56603001E+02  0.39661E+05
 0.56653004E+02  0.38909E+05
 0.56703003E+02  0.37490E+05
 0.56753002E+02  0.36408E+05
 0.56803001E+02  0.36418E+05
 0.56853001E+02  0.37734E+05
 0.56903004E+02  0.39738E+05
 0.56953003E+02  0.41533E+05
 0.57003002E+02  0.41954E+05
 0.57053001E+02  0.40722E+05
 0.57103001E+02  0.39612E+05
 0.57153004E+02  0.39642E+05
 0.57203003E+02  0.39251E+05
 0.57253002E+02  0.38037E+05
 0.57303001E+02  0.36005E+05
 0.57353001E+02  0.33264E+05
 0.57403004E+02  0.32225E+05
 0.57453003E+02  0.33695E+05
 0.57503002E+02  0.34983E+05
 0.57553001E+02  0.35460E+05
 0.57603001E+02  0.34882E+05
 0.57653004E+02  0.33635E+05
 0.57703003E+02  0.32849E+05
 0.57753002E+02  0.32780E+05
 0.57803001E+02  0.33944E+05
 0.57853001E+02  0.35075E+05
 0.57903004E+02  0.36472E+05
 0.57953003E+02  0.37829E+05
 0.58003002E+02  0.38466E+05
 0.58053001E+02  0.38657E+05
 0.58103001E+02  0.37737E+05
 0.58153004E+02  0.36772E+05
 0.58203003E+02  0.36543E+05
 0.58253002E+02  0.36021E+05
 0.58303001E+02  0.35903E+05
 0.58353001E+02  0.38102E+05
 0.58403004E+02  0.40984E+05
 0.58453003E+02  0.41879E+05
 0.58503002E+02  0.40543E+05
 0.58553001E+02  0.38475E+05
 0.58603001E+02  0.36802E+05
 0.58653004E+02  0.35649E+05
 0.58703003E+02  0.35500E+05
 0.58753002E+02  0.34789E+05
 0.58803001E+02  0.33376E+05
 0.58853001E+02  0.33105E+05
 0.58903004E+02  0.34422E+05
 0.58953003E+02  0.37033E+05
 0.59003002E+02  0.38802E+05
 0.59053001E+02  0.38234E+05
 0.59103001E+02  0.35179E+05
 0.59153004E+02  0.31806E+05
 0.59203003E+02  0.31352E+05
 0.59253002E+02  0.32899E+05
 0.59303001E+02  0.35373E+05
 0.59353001E+02  0.38123E+05
 0.59403004E+02  0.38729E+05
 0.59453003E+02  0.37305E+05
 0.59503002E+02  0.36250E+05
 0.59553001E+02  0.35985E+05
 0.59603001E+02  0.35674E+05
 0.59653004E+02  0.35514E+05
 0.59703003E+02  0.36180E+05
 0.59753002E+02  0.37604E+05
 0.59803001E+02  0.38266E+05
 0.59853001E+02  0.38982E+05
 0.59903004E+02  0.41374E+05
 0.59953003E+02  0.42741E+05
 0.60003002E+02  0.41902E+05
 0.60053001E+02  0.38739E+05
 0.60103001E+02  0.34601E+05
 0.60153004E+02  0.33171E+05
 0.60203003E+02  0.35011E+05
 0.60253002E+02  0.37446E+05
 0.60303001E+02  0.38755E+05
 0.60353001E+02  0.39587E+05
 0.60403004E+02  0.39766E+05
 0.60453003E+02  0.38151E+05
 0.60503002E+02  0.34968E+05
 0.60553001E+02  0.32786E+05
 0.60603001E+02  0.31989E+05
 0.60653004E+02  0.32398E+05
 0.60703003E+02  0.34047E+05
 0.60753002E+02  0.35232E+05
 0.60803001E+02  0.36353E+05
 0.60853001E+02  0.38751E+05
 0.60903004E+02  0.40374E+05
 0.60953003E+02  0.40437E+05
 0.61003002E+02  0.40019E+05
 0.61053001E+02  0.38800E+05
 0.61103001E+02  0.37283E+05
 0.61153004E+02  0.36534E+05
 0.61203003E+02  0.36404E+05
 0.61253002E+02  0.35845E+05
 0.61303001E+02  0.34148E+05
 0.61353001E+02  0.32510E+05
 0.61403004E+02  0.33141E+05
 0.61453003E+02  0.34813E+05
 0.61503002E+02  0.35434E+05
 0.61553001E+02  0.34516E+05
 0.61603001E+02  0.33029E+05
 0.61653004E+02  0.33151E+05
 0.61703003E+02  0.35246E+05
 0.61753002E+02  0.37461E+05
 0.61803001E+02  0.38258E+05
 0.61853001E+02  0.37466E+05
 0.61903004E+02  0.35631E+05
 0.61953003E+02  0.33257E+05
 0.62003002E+02  0.32329E+05
 0.62053001E+02  0.34495E+05
 0.62103004E+02  0.37333E+05
 0.62153000E+02  0.38650E+05
 0.62203003E+02  0.39313E+05
 0.62252998E+02  0.41495E+05
 0.62303001E+02  0.43564E+05
 0.62353004E+02  0.42107E+05
 0.62403000E+02  0.39086E+05
 0.62453003E+02  0.37796E+05
 0.62502998E+02  0.38721E+05
 0.62553001E+02  0.40063E+05
 0.62603004E+02  0.40625E+05
 0.62653000E+02  0.40037E+05
 0.62703003E+02  0.38021E+05
 0.62752998E+02  0.35117E+05
 0.62803001E+02  0.32721E+05
 0.62853004E+02  0.31565E+05
 0.62903000E+02  0.31094E+05
 0.62953003E+02  0.32703E+05
 0.63002998E+02  0.35050E+05
 0.63053001E+02  0.35760E+05
 0.63103004E+02  0.35981E+05
 0.63153000E+02  0.36794E+05
 0.63203003E+02  0.38468E+05
 0.63252998E+02  0.39239E+05
 0.63303001E+02  0.38952E+05
 0.63353004E+02  0.38806E+05
 0.63403000E+02  0.39565E+05
 0.63453003E+02  0.40776E+05
 0.63502998E+02  0.40156E+05
 0.63553001E+02  0.38839E+05
 0.63603004E+02  0.37693E+05
 0.63653000E+02  0.36503E+05
 0.63703003E+02  0.35631E+05
 0.63752998E+02  0.34739E+05
 0.63803001E+02  0.33654E+05
 0.63853004E+02  0.32521E+05
 0.63903000E+02  0.32689E+05
 0.63953003E+02  0.34824E+05
 0.64002998E+02  0.38220E+05
 0.64053001E+02  0.41188E+05
 0.64103004E+02  0.41493E+05
 0.64153000E+02  0.39013E+05
 0.64203003E+02  0.35794E+05
 0.64252998E+02  0.33380E+05
 0.64303001E+02  0.32387E+05
 0.64353004E+02  0.32731E+05
 0.64403000E+02  0.33374E+05
 0.64453003E+02  0.33994E+05
 0.64502998E+02  0.35533E+05
 0.64553001E+02  0.37795E+05
 0.64603004E+02  0.39329E+05
 0.64653000E+02  0.38962E+05
 0.64703003E+02  0.36928E+05
 0.64752998E+02  0.34292E+05
 0.64803001E+02  0.32822E+05
 0.64853004E+02  0.33251E+05
 0.64903000E+02  0.34608E+05
 0.64953003E+02  0.36293E+05
 0.65002998E+02  0.37559E+05
 0.65053001E+02  0.37925E+05
 0.65103004E+02  0.37629E+05
 0.65153000E+02  0.37104E+05
 0.65203003E+02  0.36512E+05
 0.65252998E+02  0.36210E+05
 0.65303001E+02  0.36716E+05
 0.65353004E+02  0.38754E+05
 0.65403000E+02  0.41163E+05
 0.65453003E+02  0.41985E+05
 0.65502998E+02  0.40804E+05
 0.65553001E+02  0.39147E+05
 0.65603004E+02  0.37571E+05
 0.65653000E+02  0.34785E+05
 0.65703003E+02  0.31687E+05
 0.65752998E+02  0.30113E+05
 0.65803001E+02  0.31234E+05
 0.65853004E+02  0.33973E+05
 0.65903000E+02  0.36198E+05
 0.65953003E+02  0.37571E+05
 0.66002998E+02  0.38582E+05
 0.66053001E+02  0.38884E+05
 0.66103004E+02  0.37862E+05
 0.66153000E+02  0.37051E+05
 0.66203003E+02  0.37313E+05
 0.66252998E+02  0.37843E+05
 0.66303001E+02  0.38229E+05
 0.66353004E+02  0.38472E+05
 0.66403000E+02  0.39118E+05
 0.66453003E+02  0.39569E+05
 0.66502998E+02  0.39085E+05
 0.66553001E+02  0.36739E+05
 0.66603004E+02  0.33526E+05
 0.66653000E+02  0.31681E+05
 0.66703003E+02  0.31121E+05
 0.66752998E+02  0.31853E+05
 0.66803001E+02  0.33423E+05
 0.66853004E+02  0.35479E+05
 0.66903000E+02  0.38097E+05
 0.66953003E+02  0.40212E+05
 0.67002998E+02  0.40625E+05
 0.67053001E+02  0.38845E+05
 0.67103004E+02  0.36344E+05
 0.67153000E+02  0.34830E+05
 0.67203003E+02  0.34850E+05
 0.67252998E+02  0.35461E+05
 0.67303001E+02  0.35971E+05
 0.67353004E+02  0.36309E+05
 0.67403000E+02  0.36178E+05
 0.67453003E+02  0.35861E+05
 0.67502998E+02  0.35163E+05
 0.67553001E+02  0.34742E+05
 0.67603004E+02  0.34493E+05
 0.67653000E+02  0.34436E+05
 0.67703003E+02  0.35359E+05
 0.67752998E+02  0.37051E+05
 0.67803001E+02  0.38472E+05
 0.67853004E+02  0.38627E+05
 0.67903000E+02  0.38055E+05
 0.67953003E+02  0.37636E+05
 0.68002998E+02  0.37996E+05
 0.68053001E+02  0.39027E+05
 0.68103004E+02  0.39390E+05
 0.68153000E+02  0.37770E+05
 0.68203003E+02  0.34976E+05
 0.68252998E+02  0.32682E+05
 0.68303001E+02  0.32029E+05
 0.68353004E+02  0.32713E+05
 0.68403000E+02  0.33604E+05
 0.68453003E+02  0.34556E+05
 0.68502998E+02  0.35972E+05
 0.68553001E+02  0.37455E+05
 0.68603004E+02  0.37846E+05
 0.68653000E+02  0.37285E+05
 0.68703003E+02  0.36841E+05
 0.68752998E+02  0.37309E+05
 0.68803001E+02  0.38680E+05
 0.68853004E+02  0.40421E+05
 0.68903000E+02  0.41797E+05
 0.68953003E+02  0.41798E+05
 0.69002998E+02  0.39973E+05
 0.69053001E+02  0.37362E+05
 0.69103004E+02  0.35637E+05
 0.69153000E+02  0.34884E+05
 0.69203003E+02  0.34520E+05
 0.69252998E+02  0.34197E+05
 0.69303001E+02  0.34170E+05
 0.69353004E+02  0.35331E+05
 0.69403000E+02  0.37140E+05
 0.69453003E+02  0.38452E+05
 0.69502998E+02  0.38997E+05
 0.69553001E+02  0.39017E+05
 0.69603004E+02  0.38854E+05
 0.69653000E+02  0.38776E+05
 0.69703003E+02  0.38625E+05
 0.69752998E+02  0.38308E+05
 0.69803001E+02  0.37556E+05
 0.69853004E+02  0.36463E+05
 0.69903000E+02  0.35492E+05
 0.69953003E+02  0.34832E+05
 0.70002998E+02  0.34679E+05
 0.70053001E+02  0.34447E+05
 0.70103004E+02  0.33758E+05
 0.70153000E+02  0.33272E+05
 0.70203003E+02  0.34026E+05
 0.70252998E+02  0.35241E+05
 0.70303001E+02  0.35292E+05
 0.70353004E+02  0.34362E+05
 0.70403000E+02  0.33837E+05
 0.70453003E+02  0.35183E+05
 0.70502998E+02  0.38260E+05
 0.70553001E+02  0.41338E+05
 0.70603004E+02  0.42882E+05
 0.70653000E+02  0.42665E+05
 0.70703003E+02  0.41650E+05
 0.70752998E+02  0.39833E+05
 0.70803001E+02  0.37825E+05
 0.70853004E+02  0.36645E+05
 0.70903000E+02  0.36230E+05
 0.70953003E+02  0.36564E+05
 0.71002998E+02  0.36772E+05
 0.71053001E+02  0.36125E+05
 0.71103004E+02  0.34790E+05
 0.71153000E+02  0.33681E+05
 0.71203003E+02  0.33176E+05
 0.71252998E+02  0.33256E+05
 0.71303001E+02  0.33979E+05
 0.71353004E+02  0.34876E+05
 0.71403000E+02  0.35932E+05
 0.71453003E+02  0.37302E+05
 0.71502998E+02  0.38528E+05
 0.71553001E+02  0.38367E+05
 0.71603004E+02  0.36834E+05
 0.71653000E+02  0.35087E+05
 0.71703003E+02  0.34142E+05
 0.71752998E+02  0.34696E+05
 0.71803001E+02  0.35744E+05
 0.71853004E+02  0.36428E+05
 0.71903000E+02  0.36678E+05
 0.71953003E+02  0.36799E+05
 0.72002998E+02  0.36671E+05
 0.72053001E+02  0.36270E+05
 0.72103004E+02  0.35680E+05
 0.72153000E+02  0.34865E+05
 0.72203003E+02  0.34529E+05
 0.72252998E+02  0.35061E+05
 0.72303001E+02  0.36599E+05
 0.72353004E+02  0.38525E+05
 0.72403000E+02  0.40241E+05
 0.72453003E+02  0.41101E+05
 0.72502998E+02  0.41140E+05
 0.72553001E+02  0.40790E+05
 0.72603004E+02  0.39762E+05
 0.72653000E+02  0.38240E+05
 0.72703003E+02  0.36826E+05
 0.72752998E+02  0.36086E+05
 0.72803001E+02  0.35857E+05
 0.72853004E+02  0.35772E+05
 0.72903000E+02  0.35448E+05
 0.72953003E+02  0.35022E+05
 0.73002998E+02  0.34818E+05
 0.73053001E+02  0.34653E+05
 0.73103004E+02  0.34239E+05
 0.73153000E+02  0.33849E+05
 0.73203003E+02  0.33842E+05
 0.73252998E+02  0.34187E+05
 0.73303001E+02  0.35097E+05
 0.73353004E+02  0.36340E+05
 0.73403000E+02  0.37490E+05
 0.73453003E+02  0.38480E+05
 0.73502998E+02  0.39396E+05
 0.73553001E+02  0.39970E+05
 0.73603004E+02  0.39992E+05
 0.73653000E+02  0.39471E+05
 0.73703003E+02  0.38642E+05
 0.73752998E+02  0.37661E+05
 0.73803001E+02  0.36608E+05
 0.73853004E+02  0.35718E+05
 0.73903000E+02  0.34883E+05
 0.73953003E+02  0.33982E+05
 0.74002998E+02  0.33298E+05
 0.74053001E+02  0.33593E+05
 0.74103004E+02  0.34699E+05
 0.74153000E+02  0.35866E+05
 0.74203003E+02  0.37062E+05
 0.74252998E+02  0.38174E+05
 0.74303001E+02  0.38973E+05
 0.74353004E+02  0.39964E+05
 0.74403000E+02  0.40803E+05
 0.74453003E+02  0.40531E+05
 0.74502998E+02  0.39603E+05
 0.74553001E+02  0.38456E+05
 0.74603004E+02  0.37236E+05
 0.74653000E+02  0.36112E+05
 0.74703003E+02  0.34630E+05
 0.74752998E+02  0.32778E+05
 0.74803001E+02  0.31464E+05
 0.74853004E+02  0.31486E+05
 0.74903000E+02  0.32846E+05
 0.74953003E+02  0.34546E+05
 0.75002998E+02  0.35598E+05
 0.75053001E+02  0.36525E+05
 0.75103004E+02  0.37814E+05
 0.75153000E+02  0.39243E+05
 0.75203003E+02  0.40111E+05
 0.75252998E+02  0.39711E+05
 0.75303001E+02  0.38776E+05
 0.75353004E+02  0.38251E+05
 0.75403000E+02  0.38118E+05
 0.75453003E+02  0.37654E+05
 0.75502998E+02  0.36768E+05
 0.75553001E+02  0.35800E+05
 0.75603004E+02  0.34681E+05
 0.75653000E+02  0.33582E+05
 0.75703003E+02  0.33211E+05
 0.75752998E+02  0.33882E+05
 0.75803001E+02  0.35139E+05
 0.75853004E+02  0.36683E+05
 0.75903000E+02  0.38139E+05
 0.75953003E+02  0.38802E+05
 0.76002998E+02  0.38467E+05
 0.76053001E+02  0.37496E+05
 0.76103004E+02  0.36654E+05
 0.76153000E+02  0.36667E+05
 0.76203003E+02  0.37341E+05
 0.76252998E+02  0.37919E+05
 0.76303001E+02  0.37829E+05
 0.76353004E+02  0.37422E+05
 0.76403000E+02  0.37391E+05
 0.76453003E+02  0.37600E+05
 0.76502998E+02  0.37602E+05
 0.76553001E+02  0.37067E+05
 0.76603004E+02  0.35985E+05
 0.76653000E+02  0.34893E+05
 0.76703003E+02  0.34454E+05
 0.76752998E+02  0.34541E+05
 0.76803001E+02  0.34638E+05
 0.76853004E+02  0.34531E+05
 0.76903000E+02  0.34209E+05
 0.76953003E+02  0.34073E+05
 0.77002998E+02  0.34572E+05
 0.77053001E+02  0.35498E+05
 0.77103004E+02  0.36607E+05
 0.77153000E+02  0.37860E+05
 0.77203003E+02  0.39005E+05
 0.77252998E+02  0.39864E+05
 0.77303001E+02  0.40210E+05
 0.77353004E+02  0.39862E+05
 0.77403000E+02  0.38784E+05
 0.77453003E+02  0.37459E+05
 0.77502998E+02  0.36386E+05
 0.77553001E+02  0.35787E+05
 0.77603004E+02  0.35717E+05
 0.77653000E+02  0.35777E+05
 0.77703003E+02  0.35549E+05
 0.77752998E+02  0.34994E+05
 0.77803001E+02  0.34642E+05
 0.77853004E+02  0.34875E+05
 0.77903000E+02  0.35918E+05
 0.77953003E+02  0.37587E+05
 0.78002998E+02  0.39004E+05
 0.78053001E+02  0.39543E+05
 0.78103004E+02  0.39370E+05
 0.78153000E+02  0.38751E+05
 0.78203003E+02  0.37893E+05
 0.78252998E+02  0.37118E+05
 0.78303001E+02  0.36442E+05
 0.78353004E+02  0.35872E+05
 0.78403000E+02  0.35264E+05
 0.78453003E+02  0.34613E+05
 0.78502998E+02  0.34107E+05
 0.78553001E+02  0.33747E+05
 0.78603004E+02  0.33513E+05
 0.78653000E+02  0.33598E+05
 0.78703003E+02  0.34216E+05
 0.78752998E+02  0.35275E+05
 0.78803001E+02  0.36497E+05
 0.78853004E+02  0.37526E+05
 0.78903000E+02  0.38195E+05
 0.78953003E+02  0.38585E+05
 0.79002998E+02  0.38847E+05
 0.79053001E+02  0.38994E+05
 0.79103004E+02  0.38922E+05
 0.79153000E+02  0.38665E+05
 0.79203003E+02  0.38138E+05
 0.79252998E+02  0.37665E+05
 0.79303001E+02  0.37859E+05
 0.79353004E+02  0.38364E+05
 0.79403000E+02  0.38460E+05
 0.79453003E+02  0.37960E+05
 0.79502998E+02  0.37177E+05
 0.79553001E+02  0.36579E+05
 0.79603004E+02  0.36075E+05
 0.79653000E+02  0.35353E+05
 0.79703003E+02  0.34529E+05
 0.79752998E+02  0.34076E+05
 0.79803001E+02  0.34346E+05
 0.79853004E+02  0.35201E+05
 0.79903000E+02  0.36448E+05
 0.79953003E+02  0.37736E+05
 0.80002998E+02  0.38676E+05
 0.80053001E+02  0.39045E+05
 0.80103004E+02  0.38902E+05
 0.80153000E+02  0.38490E+05
 0.80203003E+02  0.37809E+05
 0.80252998E+02  0.36860E+05
 0.80303001E+02  0.35977E+05
 0.80353004E+02  0.35523E+05
 0.80403000E+02  0.35524E+05
 0.80453003E+02  0.35648E+05
 0.80502998E+02  0.35439E+05
 0.80553001E+02  0.35087E+05
 0.80603004E+02  0.34789E+05
 0.80653000E+02  0.34558E+05
 0.80703003E+02  0.34643E+05
 0.80752998E+02  0.35007E+05
 0.80803001E+02  0.35552E+05
 0.80853004E+02  0.36308E+05
 0.80903000E+02  0.36981E+05
 0.80953003E+02  0.37195E+05
 0.81002998E+02  0.37056E+05
 0.81053001E+02  0.36844E+05
 0.81103004E+02  0.36906E+05
 0.81153000E+02  0.37086E+05
 0.81203003E+02  0.36971E+05
 0.81252998E+02  0.36634E+05
 0.81303001E+02  0.36378E+05
 0.81353004E+02  0.36311E+05
 0.81403000E+02  0.36317E+05
 0.81453003E+02  0.36328E+05
 0.81502998E+02  0.36058E+05
 0.81553001E+02  0.35449E+05
 0.81603004E+02  0.34855E+05
 0.81653000E+02  0.34566E+05
 0.81703003E+02  0.34730E+05
 0.81752998E+02  0.35273E+05
 0.81803001E+02  0.36082E+05
 0.81853004E+02  0.36913E+05
 0.81903000E+02  0.37473E+05
 0.81953003E+02  0.37807E+05
 0.82002998E+02  0.37959E+05
 0.82053001E+02  0.37993E+05
 0.82103004E+02  0.38130E+05
 0.82153000E+02  0.38439E+05
 0.82203003E+02  0.38732E+05
 0.82252998E+02  0.38896E+05
 0.82303001E+02  0.38862E+05
 0.82353004E+02  0.38610E+05
 0.82403000E+02  0.37960E+05
 0.82453003E+02  0.36862E+05
 0.82502998E+02  0.35756E+05
 0.82553001E+02  0.35056E+05
 0.82603004E+02  0.35062E+05
 0.82653000E+02  0.35522E+05
 0.82703003E+02  0.35930E+05
 0.82752998E+02  0.36009E+05
 0.82803001E+02  0.35861E+05
 0.82853004E+02  0.35807E+05
 0.82903000E+02  0.35863E+05
 0.82953003E+02  0.35860E+05
 0.83002998E+02  0.35716E+05
 0.83053001E+02  0.35622E+05
 0.83103004E+02  0.35689E+05
 0.83153000E+02  0.35877E+05
 0.83203003E+02  0.36176E+05
 0.83252998E+02  0.36594E+05
 0.83303001E+02  0.37088E+05
 0.83353004E+02  0.37661E+05
 0.83403000E+02  0.38275E+05
 0.83453003E+02  0.38806E+05
 0.83502998E+02  0.39030E+05
 0.83553001E+02  0.38808E+05
 0.83603004E+02  0.38191E+05
 0.83653000E+02  0.37240E+05
 0.83703003E+02  0.36320E+05
 0.83752998E+02  0.35688E+05
 0.83803001E+02  0.35351E+05
 0.83853004E+02  0.35169E+05
 0.83903000E+02  0.35163E+05
 0.83953003E+02  0.35418E+05
 0.84002998E+02  0.35810E+05
 0.84053001E+02  0.36358E+05
 0.84103004E+02  0.36992E+05
 0.84153000E+02  0.37445E+05
 0.84203003E+02  0.37539E+05
 0.84252998E+02  0.37490E+05
 0.84303001E+02  0.37448E+05
 0.84353004E+02  0.37246E+05
 0.84403000E+02  0.36932E+05
 0.84453003E+02  0.36665E+05
 0.84502998E+02  0.36356E+05
 0.84553001E+02  0.35983E+05
 0.84603004E+02  0.35625E+05
 0.84653000E+02  0.35219E+05
 0.84703003E+02  0.34854E+05
 0.84752998E+02  0.34782E+05
 0.84803001E+02  0.35003E+05
 0.84853004E+02  0.35500E+05
 0.84903000E+02  0.36283E+05
 0.84953003E+02  0.37083E+05
 0.85002998E+02  0.37792E+05
 0.85053001E+02  0.38466E+05
 0.85103004E+02  0.39072E+05
 0.85153000E+02  0.39540E+05
 0.85203003E+02  0.39762E+05
 0.85252998E+02  0.39670E+05
 0.85303001E+02  0.39314E+05
 0.85353004E+02  0.38945E+05
 0.85403000E+02  0.38608E+05
 0.85453003E+02  0.38135E+05
 0.85502998E+02  0.37497E+05
 0.85553001E+02  0.36646E+05
 0.85603004E+02  0.35675E+05
 0.85653000E+02  0.34662E+05
 0.85703003E+02  0.33541E+05
 0.85752998E+02  0.32492E+05
 0.85803001E+02  0.31829E+05
 0.85853004E+02  0.31680E+05
 0.85903000E+02  0.32032E+05
 0.85953003E+02  0.32778E+05
 0.86002998E+02  0.33877E+05
 0.86053001E+02  0.35172E+05
 0.86103004E+02  0.36207E+05
 0.86153000E+02  0.36780E+05
 0.86203003E+02  0.37076E+05
 0.86252998E+02  0.37302E+05
 0.86303001E+02  0.37498E+05
 0.86353004E+02  0.37508E+05
 0.86403000E+02  0.37466E+05
 0.86453003E+02  0.37662E+05
 0.86502998E+02  0.38040E+05
 0.86553001E+02  0.38620E+05
 0.86603004E+02  0.39400E+05
 0.86653000E+02  0.40120E+05
 0.86703003E+02  0.40364E+05
 0.86752998E+02  0.39992E+05
 0.86803001E+02  0.39168E+05
 0.86853004E+02  0.38256E+05
 0.86903000E+02  0.37663E+05
 0.86953003E+02  0.37282E+05
 0.87002998E+02  0.36828E+05
 0.87053001E+02  0.36377E+05
 0.87103004E+02  0.36077E+05
 0.87153000E+02  0.35832E+05
 0.87203003E+02  0.35539E+05
 0.87252998E+02  0.35236E+05
 0.87303001E+02  0.35212E+05
 0.87353004E+02  0.35619E+05
 0.87403000E+02  0.36174E+05
 0.87453003E+02  0.36593E+05
 0.87502998E+02  0.36813E+05
 0.87553001E+02  0.36739E+05
 0.87602997E+02  0.36225E+05
 0.87653000E+02  0.35520E+05
 0.87703003E+02  0.34948E+05
 0.87752998E+02  0.34591E+05
 0.87803001E+02  0.34442E+05
 0.87852997E+02  0.34552E+05
 0.87903000E+02  0.35138E+05
 0.87953003E+02  0.36071E+05
 0.88002998E+02  0.36887E+05
 0.88053001E+02  0.37312E+05
 0.88102997E+02  0.37373E+05
 0.88153000E+02  0.37207E+05
 0.88203003E+02  0.36961E+05
 0.88252998E+02  0.36874E+05
 0.88303001E+02  0.37104E+05
 0.88352997E+02  0.37755E+05
 0.88403000E+02  0.38675E+05
 0.88453003E+02  0.39456E+05
 0.88502998E+02  0.39678E+05
 0.88553001E+02  0.39276E+05
 0.88602997E+02  0.38569E+05
 0.88653000E+02  0.37711E+05
 0.88703003E+02  0.36840E+05
 0.88752998E+02  0.36194E+05
 0.88803001E+02  0.35926E+05
 0.88852997E+02  0.36022E+05
 0.88903000E+02  0.36301E+05
 0.88953003E+02  0.36511E+05
 0.89002998E+02  0.36382E+05
 0.89053001E+02  0.35849E+05
 0.89102997E+02  0.35097E+05
 0.89153000E+02  0.34507E+05
 0.89203003E+02  0.34346E+05
 0.89252998E+02  0.34519E+05
 0.89303001E+02  0.34744E+05
 0.89352997E+02  0.34781E+05
 0.89403000E+02  0.34789E+05
 0.89453003E+02  0.35057E+05
 0.89502998E+02  0.35604E+05
 0.89553001E+02  0.36153E+05
 0.89602997E+02  0.36507E+05
 0.89653000E+02  0.36667E+05
 0.89703003E+02  0.36624E+05
 0.89752998E+02  0.36501E+05
 0.89803001E+02  0.36411E+05
 0.89852997E+02  0.36376E+05
 0.89903000E+02  0.36522E+05
 0.89953003E+02  0.36937E+05
 0.90002998E+02  0.37482E+05
 0.90053001E+02  0.37928E+05
 0.90102997E+02  0.38021E+05
 0.90153000E+02  0.37699E+05
 0.90203003E+02  0.37172E+05
 0.90252998E+02  0.36716E+05
 0.90303001E+02  0.36551E+05
 0.90352997E+02  0.36796E+05
 0.90403000E+02  0.37264E+05
 0.90453003E+02  0.37673E+05
 0.90502998E+02  0.37872E+05
 0.90553001E+02  0.37810E+05
 0.90602997E+02  0.37568E+05
 0.90653000E+02  0.37181E+05
 0.90703003E+02  0.36726E+05
 0.90752998E+02  0.36360E+05
 0.90803001E+02  0.36266E+05
 0.90852997E+02  0.36449E+05
 0.90903000E+02  0.36765E+05
 0.90953003E+02  0.36942E+05
 0.91002998E+02  0.36851E+05
 0.91053001E+02  0.36689E+05
 0.91102997E+02  0.36698E+05
 0.91153000E+02  0.36904E+05
 0.91203003E+02  0.37082E+05
 0.91252998E+02  0.37009E+05
 0.91303001E+02  0.36692E+05
 0.91352997E+02  0.36340E+05
 0.91403000E+02  0.36276E+05
 0.91453003E+02  0.36609E+05
 0.91502998E+02  0.37092E+05
 0.91553001E+02  0.37434E+05
 0.91602997E+02  0.37448E+05
 0.91653000E+02  0.37153E+05
 0.91703003E+02  0.36658E+05
 0.91752998E+02  0.36107E+05
 0.91803001E+02  0.35578E+05
 0.91852997E+02  0.35226E+05
 0.91903000E+02  0.35180E+05
 0.91953003E+02  0.35449E+05
 0.92002998E+02  0.35959E+05
 0.92053001E+02  0.36396E+05
 0.92102997E+02  0.36498E+05
 0.92153000E+02  0.36251E+05
 0.92203003E+02  0.35755E+05
 0.92252998E+02  0.35342E+05
 0.92303001E+02  0.35451E+05
 0.92352997E+02  0.36018E+05
 0.92403000E+02  0.36639E+05
 0.92453003E+02  0.37186E+05
 0.92502998E+02  0.37650E+05
 0.92553001E+02  0.37953E+05
 0.92602997E+02  0.38073E+05
 0.92653000E+02  0.37974E+05
 0.92703003E+02  0.37656E+05
 0.92752998E+02  0.37247E+05
 0.92803001E+02  0.36859E+05
 0.92852997E+02  0.36583E+05
 0.92903000E+02  0.36407E+05
 0.92953003E+02  0.36139E+05
 0.93002998E+02  0.35774E+05
 0.93053001E+02  0.35590E+05
 0.93102997E+02  0.35779E+05
 0.93153000E+02  0.36199E+05
 0.93203003E+02  0.36661E+05
 0.93252998E+02  0.37083E+05
 0.93303001E+02  0.37457E+05
 0.93352997E+02  0.37837E+05
 0.93403000E+02  0.37995E+05
 0.93453003E+02  0.37659E+05
 0.93502998E+02  0.36898E+05
 0.93553001E+02  0.35889E+05
 0.93602997E+02  0.34998E+05
 0.93653000E+02  0.34536E+05
 0.93703003E+02  0.34489E+05
 0.93752998E+02  0.34753E+05
 0.93803001E+02  0.35255E+05
 0.93852997E+02  0.35913E+05
 0.93903000E+02  0.36547E+05
 0.93953003E+02  0.37023E+05
 0.94002998E+02  0.37308E+05
 0.94053001E+02  0.37408E+05
 0.94102997E+02  0.37432E+05
 0.94153000E+02  0.37453E+05
 0.94203003E+02  0.37445E+05
 0.94252998E+02  0.37277E+05
 0.94303001E+02  0.36889E+05
 0.94352997E+02  0.36473E+05
 0.94403000E+02  0.36331E+05
 0.94453003E+02  0.36458E+05
 0.94502998E+02  0.36565E+05
 0.94553001E+02  0.36468E+05
 0.94602997E+02  0.36227E+05
 0.94653000E+02  0.36060E+05
 0.94703003E+02  0.36085E+05
 0.94752998E+02  0.36260E+05
 0.94803001E+02  0.36482E+05
 0.94852997E+02  0.36662E+05
 0.94903000E+02  0.36775E+05
 0.94953003E+02  0.36912E+05
 0.95002998E+02  0.37184E+05
 0.95053001E+02  0.37578E+05
 0.95102997E+02  0.37846E+05
 0.95153000E+02  0.37769E+05
 0.95203003E+02  0.37463E+05
 0.95252998E+02  0.37220E+05
 0.95303001E+02  0.37167E+05
 0.95352997E+02  0.37180E+05
 0.95403000E+02  0.37140E+05
 0.95453003E+02  0.36983E+05
 0.95502998E+02  0.36714E+05
 0.95553001E+02  0.36386E+05
 0.95602997E+02  0.35978E+05
 0.95653000E+02  0.35515E+05
 0.95703003E+02  0.35090E+05
 0.95752998E+02  0.34826E+05
 0.95803001E+02  0.34824E+05
 0.95852997E+02  0.35102E+05
 0.95903000E+02  0.35623E+05
 0.95953003E+02  0.36240E+05
 0.96002998E+02  0.36813E+05
 0.96053001E+02  0.37210E+05
 0.96102997E+02  0.37373E+05
 0.96153000E+02  0.37426E+05
 0.96203003E+02  0.37454E+05
 0.96252998E+02  0.37460E+05
 0.96303001E+02  0.37418E+05
 0.96352997E+02  0.37350E+05
 0.96403000E+02  0.37317E+05
 0.96453003E+02  0.37272E+05
 0.96502998E+02  0.37150E+05
 0.96553001E+02  0.36947E+05
 0.96602997E+02  0.36760E+05
 0.96653000E+02  0.36730E+05
 0.96703003E+02  0.36915E+05
 0.96752998E+02  0.37290E+05
 0.96803001E+02  0.37729E+05
 0.96852997E+02  0.38121E+05
 0.96903000E+02  0.38381E+05
 0.96953003E+02  0.38482E+05
 0.97002998E+02  0.38497E+05
 0.97053001E+02  0.38398E+05
 0.97102997E+02  0.38133E+05
 0.97153000E+02  0.37731E+05
 0.97203003E+02  0.37247E+05
 0.97252998E+02  0.36710E+05
 0.97303001E+02  0.36223E+05
 0.97352997E+02  0.35901E+05
 0.97403000E+02  0.35753E+05
 0.97453003E+02  0.35792E+05
 0.97502998E+02  0.35982E+05
 0.97553001E+02  0.36212E+05
 0.97602997E+02  0.36299E+05
 0.97653000E+02  0.36160E+05
 0.97703003E+02  0.35872E+05
 0.97752998E+02  0.35535E+05
 0.97803001E+02  0.35256E+05
 0.97852997E+02  0.35076E+05
 0.97903000E+02  0.34977E+05
 0.97953003E+02  0.34922E+05
 0.98002998E+02  0.34817E+05
