-0.20000000E+01 -0.22795E+05
-0.19500000E+01 -0.17435E+05
-0.19000000E+01 -0.11895E+05
-0.18500000E+01 -0.62476E+04
-0.18000000E+01 -0.49180E+03
-0.17500000E+01  0.53808E+04
-0.17000000E+01  0.11351E+05
-0.16500001E+01  0.17299E+05
-0.16000000E+01  0.23205E+05
-0.15500000E+01  0.28925E+05
-0.15000000E+01  0.34158E+05
-0.14500000E+01  0.38721E+05
-0.14000001E+01  0.42671E+05
-0.13500000E+01  0.46164E+05
-0.13000001E+01  0.49131E+05
-0.12500000E+01  0.51497E+05
-0.12000000E+01  0.53354E+05
-0.11500001E+01  0.54847E+05
-0.11000000E+01  0.55963E+05
-0.10500001E+01  0.56633E+05
-0.10000000E+01  0.56861E+05
-0.95000005E+00  0.56619E+05
-0.90000010E+00  0.55742E+05
-0.85000002E+00  0.54179E+05
-0.80000007E+00  0.52013E+05
-0.75000012E+00  0.49218E+05
-0.70000005E+00  0.45682E+05
-0.65000010E+00  0.41514E+05
-0.60000014E+00  0.36896E+05
-0.55000007E+00  0.31764E+05
-0.50000012E+00  0.26073E+05
-0.45000005E+00  0.19883E+05
-0.40000010E+00  0.13308E+05
-0.35000014E+00  0.64092E+04
-0.30000007E+00 -0.68251E+03
-0.25000012E+00 -0.79101E+04
-0.20000005E+00 -0.15247E+05
-0.15000010E+00 -0.22543E+05
-0.10000014E+00 -0.29618E+05
-0.50000072E-01 -0.36241E+05
-0.11920929E-06 -0.42363E+05
 0.49999952E-01 -0.48059E+05
 0.99999905E-01 -0.53329E+05
 0.14999986E+00 -0.58036E+05
 0.19999981E+00 -0.62042E+05
 0.24999976E+00 -0.65277E+05
 0.29999995E+00 -0.67647E+05
 0.34999990E+00 -0.68988E+05
 0.39999986E+00 -0.69135E+05
 0.44999981E+00 -0.68160E+05
 0.49999976E+00 -0.66316E+05
 0.54999995E+00 -0.63755E+05
 0.59999990E+00 -0.60331E+05
 0.64999986E+00 -0.55893E+05
 0.69999981E+00 -0.50692E+05
 0.74999976E+00 -0.44990E+05
 0.79999971E+00 -0.38968E+05
 0.84999990E+00 -0.32966E+05
 0.89999986E+00 -0.27260E+05
 0.94999981E+00 -0.21944E+05
 0.99999976E+00 -0.17111E+05
 0.10499997E+01 -0.12906E+05
 0.10999999E+01 -0.92814E+04
 0.11499999E+01 -0.61486E+04
 0.11999998E+01 -0.33878E+04
 0.12499998E+01 -0.91271E+03
 0.12999997E+01  0.12452E+04
 0.13499999E+01  0.31799E+04
 0.13999999E+01  0.48560E+04
 0.14499998E+01  0.64483E+04
 0.14999998E+01  0.82343E+04
 0.15499997E+01  0.10173E+05
 0.15999999E+01  0.12136E+05
 0.16499999E+01  0.13995E+05
 0.16999998E+01  0.15799E+05
 0.17499998E+01  0.17582E+05
 0.17999997E+01  0.19360E+05
 0.18499997E+01  0.21245E+05
 0.18999999E+01  0.23304E+05
 0.19499998E+01  0.25522E+05
 0.19999998E+01  0.27831E+05
 0.20499997E+01  0.30103E+05
 0.20999999E+01  0.32211E+05
 0.21499996E+01  0.34066E+05
 0.21999998E+01  0.35582E+05
 0.22499995E+01  0.36701E+05
 0.22999997E+01  0.37297E+05
 0.23499999E+01  0.37286E+05
 0.23999996E+01  0.36713E+05
 0.24499998E+01  0.35754E+05
 0.24999995E+01  0.34485E+05
 0.25499997E+01  0.32958E+05
 0.25999999E+01  0.31263E+05
 0.26499996E+01  0.29424E+05
 0.26999998E+01  0.27529E+05
 0.27499995E+01  0.25657E+05
 0.27999997E+01  0.23880E+05
 0.28499999E+01  0.22263E+05
 0.28999996E+01  0.20809E+05
 0.29499998E+01  0.19363E+05
 0.29999995E+01  0.17818E+05
 0.30499997E+01  0.16120E+05
 0.30999999E+01  0.14375E+05
 0.31499996E+01  0.12702E+05
 0.31999998E+01  0.10902E+05
 0.32499995E+01  0.88506E+04
 0.32999997E+01  0.65538E+04
 0.33499999E+01  0.41822E+04
 0.33999996E+01  0.19186E+04
 0.34499998E+01 -0.26357E+03
 0.34999995E+01 -0.23804E+04
 0.35499997E+01 -0.42717E+04
 0.35999994E+01 -0.57716E+04
 0.36499996E+01 -0.69051E+04
 0.36999998E+01 -0.77710E+04
 0.37499995E+01 -0.84881E+04
 0.37999997E+01 -0.90990E+04
 0.38499994E+01 -0.94747E+04
 0.38999996E+01 -0.94355E+04
 0.39499998E+01 -0.89839E+04
 0.39999995E+01 -0.82417E+04
 0.40499997E+01 -0.73178E+04
 0.40999994E+01 -0.62473E+04
 0.41499996E+01 -0.50561E+04
 0.41999998E+01 -0.37640E+04
 0.42499995E+01 -0.24211E+04
 0.42999997E+01 -0.11396E+04
 0.43499994E+01  0.40387E+02
 0.43999996E+01  0.10407E+04
 0.44499998E+01  0.16732E+04
 0.44999995E+01  0.17152E+04
 0.45499997E+01  0.11208E+04
 0.45999994E+01  0.81794E+01
 0.46499996E+01 -0.15160E+04
 0.46999998E+01 -0.35210E+04
 0.47499995E+01 -0.61742E+04
 0.47999997E+01 -0.95125E+04
 0.48499994E+01 -0.13353E+05
 0.48999996E+01 -0.17395E+05
 0.49499998E+01 -0.21323E+05
 0.49999995E+01 -0.24959E+05
 0.50499997E+01 -0.28129E+05
 0.50999994E+01 -0.30663E+05
 0.51499996E+01 -0.32549E+05
 0.51999998E+01 -0.33721E+05
 0.52499995E+01 -0.34239E+05
 0.52999997E+01 -0.34113E+05
 0.53499994E+01 -0.33333E+05
 0.53999996E+01 -0.31936E+05
 0.54499993E+01 -0.29882E+05
 0.54999995E+01 -0.27225E+05
 0.55499997E+01 -0.24093E+05
 0.55999994E+01 -0.20519E+05
 0.56499996E+01 -0.16493E+05
 0.56999993E+01 -0.12072E+05
 0.57499995E+01 -0.73281E+04
 0.57999997E+01 -0.24059E+04
 0.58499994E+01  0.25404E+04
 0.58999996E+01  0.74149E+04
 0.59499993E+01  0.12054E+05
 0.59999995E+01  0.16260E+05
 0.60499992E+01  0.20049E+05
 0.60999994E+01  0.23680E+05
 0.61499996E+01  0.27439E+05
 0.61999998E+01  0.31307E+05
 0.62499990E+01  0.35144E+05
 0.62999992E+01  0.38765E+05
 0.63499994E+01  0.41855E+05
 0.63999996E+01  0.44264E+05
 0.64499998E+01  0.46003E+05
 0.64999990E+01  0.47033E+05
 0.65499992E+01  0.47395E+05
 0.65999994E+01  0.47244E+05
 0.66499996E+01  0.46520E+05
 0.66999998E+01  0.45038E+05
 0.67499990E+01  0.42787E+05
 0.67999992E+01  0.40004E+05
 0.68499994E+01  0.36725E+05
 0.68999996E+01  0.32873E+05
 0.69499998E+01  0.28535E+05
 0.69999990E+01  0.23745E+05
 0.70499992E+01  0.18470E+05
 0.70999994E+01  0.12642E+05
 0.71499996E+01  0.62981E+04
 0.71999998E+01 -0.50937E+03
 0.72499990E+01 -0.75454E+04
 0.72999992E+01 -0.14584E+05
 0.73499994E+01 -0.21428E+05
 0.73999996E+01 -0.27817E+05
 0.74499998E+01 -0.33712E+05
 0.74999990E+01 -0.39058E+05
 0.75499992E+01 -0.43805E+05
 0.75999994E+01 -0.47911E+05
 0.76499996E+01 -0.51248E+05
 0.76999998E+01 -0.53619E+05
 0.77499990E+01 -0.54822E+05
 0.77999992E+01 -0.54678E+05
 0.78499994E+01 -0.53186E+05
 0.78999996E+01 -0.50539E+05
 0.79499998E+01 -0.46844E+05
 0.79999990E+01 -0.42238E+05
 0.80499992E+01 -0.36903E+05
 0.80999994E+01 -0.30953E+05
 0.81499996E+01 -0.24626E+05
 0.81999998E+01 -0.18138E+05
 0.82499990E+01 -0.11607E+05
 0.82999992E+01 -0.51911E+04
 0.83499994E+01  0.10913E+04
 0.83999996E+01  0.72937E+04
 0.84499998E+01  0.13384E+05
 0.84999990E+01  0.19387E+05
 0.85499992E+01  0.25231E+05
 0.85999994E+01  0.30772E+05
 0.86499996E+01  0.35852E+05
 0.86999998E+01  0.40331E+05
 0.87499990E+01  0.44177E+05
 0.87999992E+01  0.47272E+05
 0.88499994E+01  0.49618E+05
 0.88999996E+01  0.51290E+05
 0.89499998E+01  0.52298E+05
 0.89999990E+01  0.52560E+05
 0.90499992E+01  0.52060E+05
 0.90999994E+01  0.50888E+05
 0.91499996E+01  0.49054E+05
 0.91999989E+01  0.46555E+05
 0.92499990E+01  0.43334E+05
 0.92999992E+01  0.39488E+05
 0.93499994E+01  0.35163E+05
 0.93999996E+01  0.30436E+05
 0.94499989E+01  0.25278E+05
 0.94999990E+01  0.19689E+05
 0.95499992E+01  0.13735E+05
 0.95999994E+01  0.73846E+04
 0.96499996E+01  0.67603E+03
 0.96999989E+01 -0.63638E+04
 0.97499990E+01 -0.13600E+05
 0.97999992E+01 -0.20811E+05
 0.98499994E+01 -0.27827E+05
 0.98999996E+01 -0.34405E+05
 0.99499989E+01 -0.40386E+05
 0.99999990E+01 -0.45637E+05
 0.10049999E+02 -0.50069E+05
 0.10099999E+02 -0.53690E+05
 0.10150000E+02 -0.56497E+05
 0.10199999E+02 -0.58468E+05
 0.10249999E+02 -0.59567E+05
 0.10299999E+02 -0.59835E+05
 0.10349999E+02 -0.59158E+05
 0.10400000E+02 -0.57436E+05
 0.10449999E+02 -0.54671E+05
 0.10499999E+02 -0.50891E+05
 0.10549999E+02 -0.46189E+05
 0.10599999E+02 -0.40762E+05
 0.10650000E+02 -0.34851E+05
 0.10699999E+02 -0.28594E+05
 0.10749999E+02 -0.22241E+05
 0.10799999E+02 -0.16159E+05
 0.10849999E+02 -0.10558E+05
 0.10900000E+02 -0.55146E+04
 0.10949999E+02 -0.11383E+04
 0.10999999E+02  0.25504E+04
 0.11049999E+02  0.55617E+04
 0.11099999E+02  0.78381E+04
 0.11150000E+02  0.93497E+04
 0.11199999E+02  0.10257E+05
 0.11249999E+02  0.10852E+05
 0.11299999E+02  0.11315E+05
 0.11349999E+02  0.11695E+05
 0.11400000E+02  0.11983E+05
 0.11449999E+02  0.12191E+05
 0.11499999E+02  0.12344E+05
 0.11549999E+02  0.12575E+05
 0.11599999E+02  0.13080E+05
 0.11650000E+02  0.13853E+05
 0.11699999E+02  0.14826E+05
 0.11749999E+02  0.15949E+05
 0.11799999E+02  0.17174E+05
 0.11849999E+02  0.18419E+05
 0.11900000E+02  0.19454E+05
 0.11949999E+02  0.20143E+05
 0.11999999E+02  0.20508E+05
 0.12049999E+02  0.20636E+05
 0.12099999E+02  0.20558E+05
 0.12150000E+02  0.20150E+05
 0.12199999E+02  0.19337E+05
 0.12249999E+02  0.18193E+05
 0.12299999E+02  0.16840E+05
 0.12349999E+02  0.15288E+05
 0.12400000E+02  0.13509E+05
 0.12449999E+02  0.11455E+05
 0.12499999E+02  0.90713E+04
 0.12549999E+02  0.64541E+04
 0.12599999E+02  0.37156E+04
 0.12649999E+02  0.89271E+03
 0.12699999E+02 -0.21476E+04
 0.12749999E+02 -0.55044E+04
 0.12799999E+02 -0.90761E+04
 0.12849999E+02 -0.12654E+05
 0.12899999E+02 -0.16173E+05
 0.12949999E+02 -0.19636E+05
 0.12999999E+02 -0.22837E+05
 0.13049999E+02 -0.25629E+05
 0.13099999E+02 -0.27946E+05
 0.13149999E+02 -0.29748E+05
 0.13199999E+02 -0.30926E+05
 0.13249999E+02 -0.31468E+05
 0.13299999E+02 -0.31417E+05
 0.13349999E+02 -0.30759E+05
 0.13399999E+02 -0.29515E+05
 0.13449999E+02 -0.27808E+05
 0.13499999E+02 -0.25634E+05
 0.13549999E+02 -0.22940E+05
 0.13599999E+02 -0.19736E+05
 0.13649999E+02 -0.16081E+05
 0.13699999E+02 -0.12207E+05
 0.13749999E+02 -0.80513E+04
 0.13799999E+02 -0.36582E+04
 0.13849999E+02  0.72100E+03
 0.13899999E+02  0.49916E+04
 0.13949999E+02  0.90991E+04
 0.13999999E+02  0.12975E+05
 0.14049999E+02  0.16592E+05
 0.14099998E+02  0.19916E+05
 0.14150000E+02  0.22858E+05
 0.14199999E+02  0.25414E+05
 0.14249998E+02  0.27565E+05
 0.14299999E+02  0.29375E+05
 0.14349998E+02  0.30874E+05
 0.14400000E+02  0.31986E+05
 0.14449999E+02  0.32645E+05
 0.14499998E+02  0.32807E+05
 0.14549999E+02  0.32468E+05
 0.14599998E+02  0.31541E+05
 0.14650000E+02  0.30072E+05
 0.14699999E+02  0.28169E+05
 0.14749998E+02  0.25805E+05
 0.14799999E+02  0.22995E+05
 0.14849998E+02  0.19828E+05
 0.14900000E+02  0.16490E+05
 0.14949999E+02  0.13273E+05
 0.14999998E+02  0.10232E+05
 0.15049999E+02  0.74647E+04
 0.15099998E+02  0.51571E+04
 0.15150000E+02  0.33087E+04
 0.15199999E+02  0.20512E+04
 0.15249998E+02  0.13718E+04
 0.15299999E+02  0.11096E+04
 0.15349998E+02  0.11538E+04
 0.15400000E+02  0.13509E+04
 0.15449999E+02  0.15773E+04
 0.15499998E+02  0.18040E+04
 0.15549999E+02  0.19028E+04
 0.15599998E+02  0.17259E+04
 0.15650000E+02  0.13693E+04
 0.15699999E+02  0.93413E+03
 0.15749998E+02  0.40986E+03
 0.15799999E+02 -0.14201E+03
 0.15849998E+02 -0.66445E+03
 0.15900000E+02 -0.10811E+04
 0.15949999E+02 -0.13165E+04
 0.15999998E+02 -0.15187E+04
 0.16049999E+02 -0.18006E+04
 0.16099998E+02 -0.21925E+04
 0.16150000E+02 -0.26611E+04
 0.16199999E+02 -0.31062E+04
 0.16249998E+02 -0.35021E+04
 0.16299999E+02 -0.37938E+04
 0.16349998E+02 -0.39120E+04
 0.16400000E+02 -0.39020E+04
 0.16449999E+02 -0.38696E+04
 0.16499998E+02 -0.37739E+04
 0.16549999E+02 -0.35951E+04
 0.16599998E+02 -0.33290E+04
 0.16650000E+02 -0.29445E+04
 0.16699999E+02 -0.25239E+04
 0.16749998E+02 -0.21622E+04
 0.16799999E+02 -0.19257E+04
 0.16849998E+02 -0.18611E+04
 0.16900000E+02 -0.20787E+04
 0.16949999E+02 -0.26023E+04
 0.16999998E+02 -0.33621E+04
 0.17049999E+02 -0.42041E+04
 0.17099998E+02 -0.49859E+04
 0.17150000E+02 -0.55928E+04
 0.17199999E+02 -0.59970E+04
 0.17249998E+02 -0.62346E+04
 0.17299999E+02 -0.63576E+04
 0.17349998E+02 -0.65200E+04
 0.17400000E+02 -0.65937E+04
 0.17449999E+02 -0.66303E+04
 0.17499998E+02 -0.65259E+04
 0.17549999E+02 -0.63042E+04
 0.17599998E+02 -0.61075E+04
 0.17650000E+02 -0.57956E+04
 0.17699999E+02 -0.56379E+04
 0.17749998E+02 -0.55862E+04
 0.17799999E+02 -0.55900E+04
 0.17849998E+02 -0.56626E+04
 0.17900000E+02 -0.56604E+04
 0.17949999E+02 -0.54795E+04
 0.17999998E+02 -0.50853E+04
 0.18049999E+02 -0.44822E+04
 0.18099998E+02 -0.39214E+04
 0.18150000E+02 -0.36220E+04
 0.18199999E+02 -0.32800E+04
 0.18249998E+02 -0.32049E+04
 0.18299999E+02 -0.29828E+04
 0.18349998E+02 -0.22969E+04
 0.18400000E+02 -0.14643E+04
 0.18449999E+02 -0.43467E+03
 0.18499998E+02  0.45886E+03
 0.18549999E+02  0.11086E+04
 0.18599998E+02  0.22634E+04
 0.18650000E+02  0.39291E+04
 0.18699999E+02  0.55755E+04
 0.18749998E+02  0.80822E+04
 0.18799999E+02  0.10290E+05
 0.18849998E+02  0.12971E+05
 0.18900000E+02  0.16474E+05
 0.18949999E+02  0.20079E+05
 0.18999998E+02  0.24753E+05
 0.19049999E+02  0.28445E+05
 0.19099998E+02  0.31453E+05
 0.19150000E+02  0.34952E+05
 0.19199999E+02  0.37527E+05
 0.19249998E+02  0.40028E+05
 0.19299999E+02  0.43244E+05
 0.19349998E+02  0.44935E+05
 0.19400000E+02  0.47065E+05
 0.19449999E+02  0.48383E+05
 0.19499998E+02  0.47753E+05
 0.19549999E+02  0.47332E+05
 0.19599998E+02  0.45436E+05
 0.19650000E+02  0.42120E+05
 0.19699999E+02  0.39039E+05
 0.19749998E+02  0.35805E+05
 0.19799999E+02  0.30816E+05
 0.19849998E+02  0.27346E+05
 0.19900000E+02  0.22980E+05
 0.19949999E+02  0.18054E+05
 0.19999998E+02  0.13782E+05
 0.20049999E+02  0.82131E+04
 0.20099998E+02  0.44077E+04
 0.20150000E+02  0.98698E+03
 0.20199999E+02 -0.22447E+04
 0.20249998E+02 -0.44003E+04
 0.20299999E+02 -0.60835E+04
 0.20349998E+02 -0.68467E+04
 0.20399998E+02 -0.66690E+04
 0.20449999E+02 -0.80341E+04
 0.20499998E+02 -0.79569E+04
 0.20549999E+02 -0.89706E+04
 0.20599998E+02 -0.11439E+05
 0.20649998E+02 -0.13299E+05
 0.20699999E+02 -0.13826E+05
 0.20749998E+02 -0.15116E+05
 0.20799999E+02 -0.12902E+05
 0.20849998E+02 -0.82813E+04
 0.20899998E+02 -0.80692E+04
 0.20949999E+02 -0.97094E+04
 0.20999998E+02 -0.12394E+05
 0.21049999E+02 -0.97307E+04
 0.21099998E+02 -0.60302E+04
 0.21149998E+02 -0.49494E+04
 0.21199999E+02 -0.13032E+05
 0.21249998E+02 -0.17970E+05
 0.21299999E+02 -0.21064E+05
 0.21349998E+02 -0.18394E+05
 0.21399998E+02 -0.16027E+05
 0.21449999E+02 -0.19647E+05
 0.21499998E+02 -0.20847E+05
 0.21549999E+02 -0.19425E+05
 0.21599998E+02 -0.11051E+05
 0.21649998E+02 -0.96772E+04
 0.21699999E+02 -0.14678E+05
 0.21749998E+02 -0.24626E+05
 0.21799999E+02 -0.35026E+05
 0.21849998E+02 -0.34297E+05
 0.21899998E+02 -0.34262E+05
 0.21949999E+02 -0.43894E+05
 0.21999998E+02 -0.41779E+05
 0.22049999E+02 -0.40572E+05
 0.22099998E+02 -0.38469E+05
 0.22149998E+02 -0.42927E+05
 0.22199999E+02 -0.40194E+05
 0.22249998E+02 -0.36588E+05
 0.22299999E+02 -0.43399E+05
 0.22349998E+02 -0.44971E+05
 0.22399998E+02 -0.52794E+05
 0.22449999E+02 -0.77389E+05
 0.22499998E+02 -0.10077E+06
 0.22549999E+02 -0.10026E+06
 0.22599998E+02 -0.10088E+06
 0.22649998E+02 -0.82425E+05
 0.22699999E+02 -0.62119E+05
 0.22749998E+02 -0.30623E+05
 0.22799999E+02 -0.34773E+05
 0.22849998E+02 -0.58397E+05
 0.22899998E+02 -0.51416E+05
 0.22949999E+02 -0.62468E+05
 0.22999998E+02 -0.58997E+05
 0.23049999E+02 -0.54356E+05
 0.23099998E+02 -0.45558E+05
 0.23149998E+02 -0.48281E+05
 0.23199999E+02 -0.36715E+05
 0.23249998E+02 -0.10892E+05
 0.23299999E+02 -0.12741E+05
 0.23349998E+02 -0.52147E+04
 0.23399998E+02 -0.13177E+05
 0.23449999E+02 -0.16804E+05
 0.23499998E+02 -0.38914E+05
 0.23549999E+02 -0.52201E+05
 0.23599998E+02 -0.51197E+05
 0.23649998E+02 -0.51136E+05
 0.23699999E+02 -0.45017E+05
 0.23749998E+02 -0.72752E+05
 0.23799999E+02 -0.72681E+05
 0.23849998E+02 -0.58625E+05
 0.23899998E+02 -0.66816E+05
 0.23949999E+02 -0.48265E+05
 0.23999998E+02 -0.49581E+05
 0.24049999E+02 -0.74545E+05
 0.24099998E+02 -0.61487E+05
 0.24149998E+02 -0.67433E+05
 0.24199999E+02 -0.54211E+05
 0.24249998E+02 -0.39590E+05
 0.24299999E+02 -0.93645E+04
 0.24349998E+02  0.16232E+05
 0.24399998E+02 -0.16771E+05
 0.24449999E+02  0.24050E+04
 0.24499998E+02  0.21615E+05
 0.24549999E+02 -0.17428E+05
 0.24599998E+02 -0.29692E+05
 0.24649998E+02 -0.25721E+05
 0.24699999E+02 -0.24903E+05
 0.24749998E+02 -0.35676E+03
 0.24799999E+02  0.12966E+05
 0.24849998E+02  0.40757E+05
 0.24899998E+02  0.63166E+05
 0.24949999E+02  0.81291E+05
 0.24999998E+02  0.12233E+06
 0.25049999E+02  0.11665E+06
 0.25099998E+02  0.11575E+06
 0.25149998E+02  0.96712E+05
 0.25199999E+02  0.93117E+05
 0.25249998E+02  0.11799E+06
 0.25299999E+02  0.90075E+05
 0.25349998E+02  0.86641E+05
 0.25399998E+02  0.10797E+06
 0.25449999E+02  0.11031E+06
 0.25499998E+02  0.13429E+06
 0.25549999E+02  0.13925E+06
 0.25599998E+02  0.11030E+06
 0.25649998E+02  0.87279E+05
 0.25699999E+02  0.54363E+05
 0.25749998E+02  0.88278E+05
 0.25799999E+02  0.87840E+05
 0.25849998E+02  0.88038E+05
 0.25899998E+02  0.13203E+06
 0.25949999E+02  0.14423E+06
 0.25999998E+02  0.13029E+06
 0.26049999E+02  0.89177E+05
 0.26099998E+02  0.77277E+05
 0.26149998E+02  0.44647E+05
 0.26199999E+02  0.16337E+05
 0.26249998E+02  0.54023E+04
 0.26299999E+02  0.30095E+05
 0.26349998E+02  0.48795E+05
 0.26399998E+02  0.18016E+05
 0.26449999E+02  0.29173E+05
 0.26499998E+02 -0.31585E+04
 0.26549999E+02 -0.26109E+05
 0.26599998E+02  0.99703E+04
 0.26649998E+02  0.43744E+05
 0.26699999E+02  0.74981E+05
 0.26749998E+02  0.82611E+05
 0.26799999E+02  0.99284E+05
 0.26849998E+02  0.78754E+05
 0.26899998E+02  0.16761E+05
 0.26949999E+02 -0.22229E+05
 0.26999998E+02 -0.16800E+05
 0.27049997E+02  0.88124E+04
 0.27099998E+02  0.47832E+05
 0.27149998E+02  0.77382E+05
 0.27199999E+02  0.71031E+05
 0.27249998E+02  0.76378E+05
 0.27299997E+02  0.12038E+06
 0.27349998E+02  0.12599E+06
 0.27399998E+02  0.80154E+05
 0.27449999E+02  0.51301E+05
 0.27499998E+02  0.47005E+05
 0.27549997E+02  0.41084E+05
 0.27599998E+02  0.26923E+05
 0.27649998E+02  0.78818E+04
 0.27699999E+02 -0.74979E+03
 0.27749998E+02  0.26774E+05
 0.27799997E+02  0.63034E+05
 0.27849998E+02  0.73589E+05
 0.27899998E+02  0.47792E+05
 0.27949999E+02  0.12470E+05
 0.27999998E+02  0.24223E+04
 0.28049997E+02  0.12712E+05
 0.28099998E+02 -0.87476E+04
 0.28149998E+02 -0.44932E+05
 0.28199999E+02 -0.96416E+05
 0.28249998E+02 -0.17868E+06
 0.28299997E+02 -0.23256E+06
 0.28349998E+02 -0.25787E+06
 0.28399998E+02 -0.25102E+06
 0.28449999E+02 -0.24799E+06
 0.28499998E+02 -0.26494E+06
 0.28549997E+02 -0.22487E+06
 0.28599998E+02 -0.16559E+06
 0.28649998E+02 -0.17308E+06
 0.28699999E+02 -0.20124E+06
 0.28749998E+02 -0.19334E+06
 0.28799997E+02 -0.21651E+06
 0.28849998E+02 -0.23404E+06
 0.28899998E+02 -0.22601E+06
 0.28949999E+02 -0.23486E+06
 0.28999998E+02 -0.24491E+06
 0.29049997E+02 -0.22887E+06
 0.29099998E+02 -0.15529E+06
 0.29149998E+02 -0.10530E+06
 0.29199999E+02 -0.60974E+05
 0.29249998E+02  0.18485E+05
 0.29299997E+02  0.60843E+05
 0.29349998E+02  0.61854E+05
 0.29399998E+02  0.20694E+05
 0.29449999E+02 -0.22731E+05
 0.29499998E+02 -0.37573E+05
 0.29549997E+02 -0.24351E+04
 0.29599998E+02  0.53244E+05
 0.29649998E+02  0.28242E+05
 0.29699999E+02 -0.38698E+05
 0.29749998E+02 -0.90844E+05
 0.29799997E+02 -0.94217E+05
 0.29849998E+02 -0.79990E+05
 0.29899998E+02 -0.68815E+05
 0.29949999E+02 -0.53209E+05
 0.29999998E+02 -0.34635E+05
 0.30049999E+02 -0.33848E+05
 0.30099998E+02 -0.96029E+04
 0.30149998E+02  0.93457E+04
 0.30199997E+02 -0.11416E+05
 0.30249996E+02 -0.78036E+04
 0.30299999E+02  0.48499E+04
 0.30349998E+02  0.47059E+04
 0.30399998E+02  0.24691E+05
 0.30449997E+02  0.29154E+05
 0.30499996E+02 -0.38222E+05
 0.30549999E+02 -0.53012E+05
 0.30599998E+02 -0.45072E+05
 0.30649998E+02 -0.38428E+05
 0.30699997E+02 -0.63613E+05
 0.30749996E+02 -0.11265E+06
 0.30799999E+02 -0.11622E+06
 0.30849998E+02 -0.85779E+05
 0.30899998E+02 -0.21577E+05
 0.30949997E+02  0.59307E+05
 0.30999996E+02  0.10742E+06
 0.31049999E+02  0.90892E+05
 0.31099998E+02  0.65655E+05
 0.31149998E+02  0.27826E+05
 0.31199997E+02  0.12053E+05
 0.31249996E+02  0.31093E+05
 0.31299999E+02  0.93991E+05
 0.31349998E+02  0.12662E+06
 0.31399998E+02  0.15059E+06
 0.31449997E+02  0.16850E+06
 0.31499996E+02  0.12270E+06
 0.31549999E+02  0.98990E+05
 0.31599998E+02  0.10070E+06
 0.31649998E+02  0.86534E+05
 0.31699997E+02  0.56908E+05
 0.31749996E+02  0.43054E+05
 0.31799999E+02  0.27523E+04
 0.31849998E+02 -0.45013E+05
 0.31899998E+02 -0.71146E+05
 0.31949997E+02 -0.31242E+05
 0.31999996E+02  0.53950E+05
 0.32049999E+02  0.13363E+06
 0.32099998E+02  0.21295E+06
 0.32149998E+02  0.20012E+06
 0.32199997E+02  0.15764E+06
 0.32249996E+02  0.17156E+06
 0.32299999E+02  0.18764E+06
 0.32349998E+02  0.21582E+06
 0.32399998E+02  0.24208E+06
 0.32449997E+02  0.21079E+06
 0.32499996E+02  0.14585E+06
 0.32549999E+02  0.79932E+05
 0.32599998E+02  0.34975E+05
 0.32649998E+02  0.32959E+05
 0.32699997E+02  0.78048E+05
 0.32749996E+02  0.14046E+06
 0.32799999E+02  0.16307E+06
 0.32849998E+02  0.16001E+06
 0.32899998E+02  0.15891E+06
 0.32949997E+02  0.13753E+06
 0.32999996E+02  0.97970E+05
 0.33049999E+02  0.10788E+06
 0.33099998E+02  0.11644E+06
 0.33149998E+02  0.86596E+05
 0.33199997E+02  0.98203E+05
 0.33249996E+02  0.87210E+05
 0.33299999E+02  0.45198E+05
 0.33349998E+02  0.25961E+05
 0.33399998E+02  0.26312E+05
 0.33449997E+02 -0.34808E+05
 0.33499996E+02 -0.12990E+06
 0.33549999E+02 -0.17563E+06
 0.33599998E+02 -0.19048E+06
 0.33649998E+02 -0.20162E+06
 0.33699997E+02 -0.20912E+06
 0.33749996E+02 -0.21520E+06
 0.33799999E+02 -0.26548E+06
 0.33849998E+02 -0.29024E+06
 0.33899998E+02 -0.28681E+06
 0.33949997E+02 -0.25835E+06
 0.33999996E+02 -0.24032E+06
 0.34049999E+02 -0.22496E+06
 0.34099998E+02 -0.23588E+06
 0.34149998E+02 -0.25865E+06
 0.34199997E+02 -0.26577E+06
 0.34249996E+02 -0.28879E+06
 0.34299999E+02 -0.33129E+06
 0.34349998E+02 -0.34262E+06
 0.34399998E+02 -0.32689E+06
 0.34449997E+02 -0.33507E+06
 0.34499996E+02 -0.31311E+06
 0.34549999E+02 -0.30016E+06
 0.34599998E+02 -0.28263E+06
 0.34649998E+02 -0.34071E+06
 0.34699997E+02 -0.40355E+06
 0.34749996E+02 -0.47153E+06
 0.34799999E+02 -0.47615E+06
 0.34849998E+02 -0.36192E+06
 0.34899998E+02 -0.24825E+06
 0.34949997E+02 -0.18160E+06
 0.34999996E+02 -0.19019E+06
 0.35049999E+02 -0.19603E+06
 0.35099998E+02 -0.23544E+06
 0.35149998E+02 -0.24112E+06
 0.35199997E+02 -0.14973E+06
 0.35249996E+02 -0.12380E+06
 0.35299999E+02 -0.19883E+06
 0.35349998E+02 -0.23153E+06
 0.35399998E+02 -0.31456E+06
 0.35449997E+02 -0.38137E+06
 0.35499996E+02 -0.34142E+06
 0.35549999E+02 -0.27856E+06
 0.35599998E+02 -0.22890E+06
 0.35649998E+02 -0.25910E+06
 0.35699997E+02 -0.23298E+06
 0.35749996E+02 -0.13960E+06
 0.35799999E+02 -0.99429E+05
 0.35849998E+02 -0.13007E+06
 0.35899998E+02 -0.13161E+06
 0.35949997E+02 -0.16135E+06
 0.35999996E+02 -0.20388E+06
 0.36049999E+02 -0.22330E+06
 0.36099998E+02 -0.19623E+06
 0.36149998E+02 -0.55005E+05
 0.36199997E+02  0.35398E+05
 0.36249996E+02  0.95176E+05
 0.36299999E+02  0.12243E+06
 0.36349998E+02  0.14160E+06
 0.36399998E+02  0.21997E+06
 0.36449997E+02  0.27360E+06
 0.36499996E+02  0.19086E+06
 0.36549999E+02  0.13330E+06
 0.36599998E+02  0.82329E+05
 0.36649998E+02 -0.25730E+05
 0.36699997E+02 -0.90648E+05
 0.36749996E+02 -0.12968E+06
 0.36799999E+02 -0.49332E+05
 0.36849998E+02  0.14014E+05
 0.36899998E+02  0.51199E+05
 0.36949997E+02  0.12274E+06
 0.36999996E+02  0.25802E+06
 0.37049999E+02  0.33862E+06
 0.37099998E+02  0.22119E+06
 0.37149998E+02  0.91105E+05
 0.37199997E+02  0.11363E+06
 0.37249996E+02  0.25835E+06
 0.37299999E+02  0.30636E+06
 0.37349998E+02  0.25956E+06
 0.37399998E+02  0.23392E+06
 0.37449997E+02  0.19462E+06
 0.37499996E+02  0.21041E+06
 0.37549999E+02  0.24199E+06
 0.37599998E+02  0.16772E+06
 0.37649998E+02  0.15461E+06
 0.37699997E+02  0.21256E+06
 0.37749996E+02  0.15488E+06
 0.37799999E+02  0.15064E+06
 0.37849998E+02  0.34002E+06
 0.37899998E+02  0.53414E+06
 0.37949997E+02  0.64407E+06
 0.37999996E+02  0.69526E+06
 0.38049999E+02  0.64741E+06
 0.38099998E+02  0.51517E+06
 0.38149998E+02  0.45330E+06
 0.38199997E+02  0.47328E+06
 0.38249996E+02  0.53478E+06
 0.38299999E+02  0.54808E+06
 0.38349998E+02  0.50684E+06
 0.38399998E+02  0.47794E+06
 0.38449997E+02  0.38882E+06
 0.38499996E+02  0.28696E+06
 0.38549999E+02  0.24161E+06
 0.38599998E+02  0.27107E+06
 0.38649998E+02  0.39789E+06
 0.38699997E+02  0.45356E+06
 0.38749996E+02  0.42719E+06
 0.38799999E+02  0.40197E+06
 0.38849998E+02  0.36063E+06
 0.38899998E+02  0.36628E+06
 0.38949997E+02  0.36811E+06
 0.38999996E+02  0.39388E+06
 0.39049999E+02  0.38344E+06
 0.39099998E+02  0.23785E+06
 0.39149998E+02  0.30916E+05
 0.39199997E+02 -0.13850E+06
 0.39249996E+02 -0.20895E+06
 0.39299999E+02 -0.17865E+06
 0.39349998E+02 -0.14303E+06
 0.39399998E+02 -0.89328E+05
 0.39449997E+02 -0.38536E+04
 0.39499996E+02  0.11058E+06
 0.39549999E+02  0.25341E+06
 0.39599998E+02  0.33259E+06
 0.39649998E+02  0.34214E+06
 0.39699997E+02  0.20125E+06
 0.39749996E+02  0.22519E+04
 0.39799999E+02 -0.91244E+05
 0.39849998E+02 -0.15483E+06
 0.39899998E+02 -0.12427E+06
 0.39949997E+02 -0.11910E+05
 0.39999996E+02 -0.64047E+05
 0.40049999E+02 -0.15061E+06
 0.40099998E+02 -0.16456E+06
 0.40149998E+02 -0.19879E+06
 0.40199997E+02 -0.19161E+06
 0.40249996E+02 -0.96099E+05
 0.40299999E+02  0.47326E+05
 0.40349998E+02  0.86616E+05
 0.40399998E+02  0.64281E+05
 0.40449997E+02  0.88752E+05
 0.40499996E+02  0.19260E+05
 0.40549999E+02 -0.87881E+05
 0.40599998E+02 -0.10890E+06
 0.40649998E+02 -0.95419E+05
 0.40699997E+02 -0.75816E+05
 0.40749996E+02 -0.10337E+06
 0.40799999E+02 -0.10731E+06
 0.40849998E+02 -0.12054E+05
 0.40899998E+02  0.13279E+06
 0.40949997E+02  0.25997E+06
 0.40999996E+02  0.30544E+06
 0.41049999E+02  0.29626E+06
 0.41099998E+02  0.31330E+06
 0.41149998E+02  0.32971E+06
 0.41199997E+02  0.33025E+06
 0.41249996E+02  0.36728E+06
 0.41299999E+02  0.43132E+06
 0.41349998E+02  0.45863E+06
 0.41399998E+02  0.46111E+06
 0.41449997E+02  0.46469E+06
 0.41499996E+02  0.39244E+06
 0.41549999E+02  0.34619E+06
 0.41599998E+02  0.46910E+06
 0.41649998E+02  0.57128E+06
 0.41699997E+02  0.54211E+06
 0.41749996E+02  0.41042E+06
 0.41799999E+02  0.16322E+06
 0.41849998E+02 -0.84276E+05
 0.41899998E+02 -0.27352E+06
 0.41949997E+02 -0.39355E+06
 0.41999996E+02 -0.47898E+06
 0.42049999E+02 -0.52203E+06
 0.42099998E+02 -0.45016E+06
 0.42149998E+02 -0.33335E+06
 0.42199997E+02 -0.25078E+06
 0.42249996E+02 -0.16624E+06
 0.42299999E+02 -0.10848E+06
 0.42349998E+02 -0.56124E+05
 0.42399998E+02  0.81465E+04
 0.42449997E+02 -0.12822E+05
 0.42499996E+02 -0.58150E+05
 0.42549999E+02 -0.16807E+05
 0.42599998E+02  0.86991E+05
 0.42649998E+02  0.13204E+06
 0.42699997E+02  0.11056E+06
 0.42749996E+02  0.10313E+06
 0.42799995E+02  0.84203E+05
 0.42849998E+02  0.31596E+05
 0.42899998E+02 -0.28210E+05
 0.42949997E+02 -0.70638E+05
 0.42999996E+02 -0.83628E+05
 0.43049995E+02 -0.67655E+05
 0.43099998E+02 -0.44688E+05
 0.43149998E+02 -0.41206E+05
 0.43199997E+02  0.19553E+04
 0.43249996E+02  0.12712E+06
 0.43299995E+02  0.30695E+06
 0.43349998E+02  0.47065E+06
 0.43399998E+02  0.58312E+06
 0.43449997E+02  0.61354E+06
 0.43499996E+02  0.55263E+06
 0.43549995E+02  0.43860E+06
 0.43599998E+02  0.28578E+06
 0.43649998E+02  0.11383E+06
 0.43699997E+02  0.87616E+04
 0.43749996E+02  0.13211E+05
 0.43799995E+02  0.41324E+05
 0.43849998E+02  0.31691E+05
 0.43899998E+02 -0.24105E+02
 0.43949997E+02 -0.38398E+05
 0.43999996E+02 -0.89850E+05
 0.44049995E+02 -0.16065E+06
 0.44099998E+02 -0.28834E+06
 0.44149998E+02 -0.42123E+06
 0.44199997E+02 -0.51398E+06
 0.44249996E+02 -0.59372E+06
 0.44299995E+02 -0.70777E+06
 0.44349998E+02 -0.83520E+06
 0.44399998E+02 -0.93395E+06
 0.44449997E+02 -0.94688E+06
 0.44499996E+02 -0.84521E+06
 0.44549995E+02 -0.77132E+06
 0.44599998E+02 -0.76077E+06
 0.44649998E+02 -0.75750E+06
 0.44699997E+02 -0.77008E+06
 0.44749996E+02 -0.82154E+06
 0.44799995E+02 -0.85197E+06
 0.44849998E+02 -0.83630E+06
 0.44899998E+02 -0.83853E+06
 0.44949997E+02 -0.82435E+06
 0.44999996E+02 -0.78143E+06
 0.45049995E+02 -0.64622E+06
 0.45099998E+02 -0.36646E+06
 0.45149998E+02 -0.54965E+05
 0.45199997E+02  0.12239E+06
 0.45249996E+02  0.11061E+06
 0.45299995E+02 -0.20392E+05
 0.45349998E+02 -0.12579E+06
 0.45399998E+02 -0.11139E+06
 0.45449997E+02 -0.84371E+05
 0.45499996E+02 -0.43877E+05
 0.45549995E+02 -0.20465E+05
 0.45599998E+02 -0.47441E+05
 0.45649998E+02 -0.38216E+04
 0.45699997E+02  0.11507E+06
 0.45749996E+02  0.23758E+06
 0.45799995E+02  0.36568E+06
 0.45849998E+02  0.46398E+06
 0.45899998E+02  0.47227E+06
 0.45949997E+02  0.42192E+06
 0.45999996E+02  0.33510E+06
 0.46049995E+02  0.24092E+06
 0.46099998E+02  0.22914E+06
 0.46149998E+02  0.32926E+06
 0.46199997E+02  0.51868E+06
 0.46249996E+02  0.72062E+06
 0.46299995E+02  0.78711E+06
 0.46349998E+02  0.74401E+06
 0.46399998E+02  0.67120E+06
 0.46449997E+02  0.61534E+06
 0.46499996E+02  0.57407E+06
 0.46549995E+02  0.53253E+06
 0.46599998E+02  0.47807E+06
 0.46649998E+02  0.34792E+06
 0.46699997E+02  0.11947E+06
 0.46749996E+02 -0.10712E+06
 0.46799995E+02 -0.15760E+06
 0.46849998E+02 -0.64142E+05
 0.46899998E+02  0.10201E+06
 0.46949997E+02  0.29088E+06
 0.46999996E+02  0.41723E+06
 0.47049995E+02  0.46424E+06
 0.47099998E+02  0.46262E+06
 0.47149998E+02  0.53572E+06
 0.47199997E+02  0.66169E+06
 0.47249996E+02  0.73315E+06
 0.47299995E+02  0.77563E+06
 0.47349998E+02  0.75656E+06
 0.47399998E+02  0.61793E+06
 0.47449997E+02  0.36963E+06
 0.47499996E+02  0.10776E+06
 0.47549995E+02 -0.67062E+05
 0.47599998E+02 -0.13079E+06
 0.47649998E+02 -0.12805E+06
 0.47699997E+02 -0.13101E+06
 0.47749996E+02 -0.10030E+06
 0.47799995E+02 -0.49708E+04
 0.47849998E+02  0.78152E+05
 0.47899998E+02  0.13063E+06
 0.47949997E+02  0.14681E+06
 0.47999996E+02  0.12131E+06
 0.48049995E+02  0.87401E+05
 0.48099998E+02  0.22197E+04
 0.48149998E+02 -0.20150E+06
 0.48199997E+02 -0.49586E+06
 0.48249996E+02 -0.81280E+06
 0.48299995E+02 -0.10994E+07
 0.48349998E+02 -0.13243E+07
 0.48399998E+02 -0.14952E+07
 0.48449997E+02 -0.16560E+07
 0.48499996E+02 -0.17479E+07
 0.48549995E+02 -0.17174E+07
 0.48599998E+02 -0.16265E+07
 0.48649998E+02 -0.15038E+07
 0.48699997E+02 -0.13603E+07
 0.48749996E+02 -0.11868E+07
 0.48799995E+02 -0.10072E+07
 0.48849998E+02 -0.82298E+06
 0.48899998E+02 -0.63574E+06
 0.48949997E+02 -0.47150E+06
 0.48999996E+02 -0.35504E+06
 0.49049995E+02 -0.33142E+06
 0.49099998E+02 -0.37493E+06
 0.49149998E+02 -0.46001E+06
 0.49199997E+02 -0.55443E+06
 0.49249996E+02 -0.56176E+06
 0.49299995E+02 -0.47462E+06
 0.49349998E+02 -0.36978E+06
 0.49399998E+02 -0.25173E+06
 0.49449997E+02 -0.13751E+06
 0.49499996E+02 -0.36694E+05
 0.49549995E+02  0.11015E+06
 0.49599998E+02  0.32539E+06
 0.49649998E+02  0.57522E+06
 0.49699997E+02  0.79519E+06
 0.49749996E+02  0.95851E+06
 0.49799995E+02  0.10333E+07
 0.49849998E+02  0.99976E+06
 0.49899998E+02  0.90741E+06
 0.49949997E+02  0.81120E+06
 0.49999996E+02  0.73894E+06
 0.50049995E+02  0.67863E+06
 0.50099998E+02  0.65643E+06
 0.50149998E+02  0.64331E+06
 0.50199997E+02  0.59413E+06
 0.50249996E+02  0.54097E+06
 0.50299995E+02  0.44985E+06
 0.50349998E+02  0.29977E+06
 0.50399998E+02  0.13071E+06
 0.50449997E+02  0.20608E+04
 0.50499996E+02 -0.70568E+05
 0.50549995E+02 -0.10152E+06
 0.50599998E+02 -0.99692E+05
 0.50649998E+02 -0.89127E+05
 0.50699997E+02 -0.59064E+05
 0.50749996E+02 -0.52428E+04
 0.50799995E+02  0.59819E+05
 0.50849998E+02  0.11419E+06
 0.50899998E+02  0.15985E+06
 0.50949997E+02  0.17746E+06
 0.50999996E+02  0.10655E+06
 0.51049995E+02 -0.80511E+05
 0.51099998E+02 -0.34680E+06
 0.51149998E+02 -0.58183E+06
 0.51199997E+02 -0.70315E+06
 0.51249996E+02 -0.73632E+06
 0.51299995E+02 -0.74993E+06
 0.51349998E+02 -0.75298E+06
 0.51399998E+02 -0.75363E+06
 0.51449997E+02 -0.75778E+06
 0.51499996E+02 -0.82020E+06
 0.51549995E+02 -0.97741E+06
 0.51599998E+02 -0.11492E+07
 0.51649998E+02 -0.12903E+07
 0.51699997E+02 -0.14096E+07
 0.51749996E+02 -0.15159E+07
 0.51799995E+02 -0.16130E+07
 0.51849998E+02 -0.16348E+07
 0.51899998E+02 -0.15083E+07
 0.51949997E+02 -0.12771E+07
 0.51999996E+02 -0.10093E+07
 0.52049995E+02 -0.73232E+06
 0.52099998E+02 -0.43066E+06
 0.52149998E+02 -0.90124E+05
 0.52199997E+02  0.28706E+06
 0.52249996E+02  0.66992E+06
 0.52299995E+02  0.10243E+07
 0.52349998E+02  0.13035E+07
 0.52399998E+02  0.14878E+07
 0.52449997E+02  0.16024E+07
 0.52499996E+02  0.16771E+07
 0.52549995E+02  0.17526E+07
 0.52599998E+02  0.18221E+07
 0.52649998E+02  0.18757E+07
 0.52699997E+02  0.18964E+07
 0.52749996E+02  0.18962E+07
 0.52799995E+02  0.18841E+07
 0.52849998E+02  0.18592E+07
 0.52899998E+02  0.18106E+07
 0.52949997E+02  0.17178E+07
 0.52999996E+02  0.15946E+07
 0.53049995E+02  0.14230E+07
 0.53099998E+02  0.12141E+07
 0.53149998E+02  0.10052E+07
 0.53199997E+02  0.82071E+06
 0.53249996E+02  0.68412E+06
 0.53299995E+02  0.62443E+06
 0.53349998E+02  0.65021E+06
 0.53399998E+02  0.71083E+06
 0.53449997E+02  0.74902E+06
 0.53499996E+02  0.72835E+06
 0.53549995E+02  0.63798E+06
 0.53599998E+02  0.52934E+06
 0.53649998E+02  0.46443E+06
 0.53699997E+02  0.44257E+06
 0.53749996E+02  0.42712E+06
 0.53799995E+02  0.39383E+06
 0.53849998E+02  0.32152E+06
 0.53899998E+02  0.21534E+06
 0.53949997E+02  0.81109E+05
 0.53999996E+02 -0.97654E+05
 0.54049995E+02 -0.29792E+06
 0.54099998E+02 -0.46443E+06
 0.54149998E+02 -0.56076E+06
 0.54199997E+02 -0.61687E+06
 0.54249996E+02 -0.66742E+06
 0.54299995E+02 -0.70199E+06
 0.54349998E+02 -0.70928E+06
 0.54399998E+02 -0.68599E+06
 0.54449997E+02 -0.64230E+06
 0.54499996E+02 -0.61548E+06
 0.54549995E+02 -0.61729E+06
 0.54599998E+02 -0.65266E+06
 0.54649998E+02 -0.72981E+06
 0.54699997E+02 -0.81338E+06
 0.54749996E+02 -0.85142E+06
 0.54799995E+02 -0.80378E+06
 0.54849998E+02 -0.66933E+06
 0.54899998E+02 -0.49780E+06
 0.54949997E+02 -0.31090E+06
 0.54999996E+02 -0.10843E+06
 0.55049995E+02  0.69008E+05
 0.55099998E+02  0.17436E+06
 0.55149998E+02  0.20028E+06
 0.55199997E+02  0.18896E+06
 0.55249996E+02  0.13815E+06
 0.55299995E+02  0.60101E+04
 0.55349998E+02 -0.20933E+06
 0.55399998E+02 -0.44846E+06
 0.55449997E+02 -0.64822E+06
 0.55499996E+02 -0.78674E+06
 0.55549995E+02 -0.82513E+06
 0.55599998E+02 -0.77558E+06
 0.55649998E+02 -0.69166E+06
 0.55699997E+02 -0.58099E+06
 0.55749996E+02 -0.43568E+06
 0.55799995E+02 -0.28175E+06
 0.55849995E+02 -0.15192E+06
 0.55899998E+02 -0.59113E+05
 0.55949997E+02 -0.21581E+05
 0.55999996E+02 -0.31964E+05
 0.56049995E+02 -0.66148E+05
 0.56099995E+02 -0.94299E+05
 0.56149998E+02 -0.66557E+05
 0.56199997E+02  0.44378E+05
 0.56249996E+02  0.22075E+06
 0.56299995E+02  0.44439E+06
 0.56349995E+02  0.68552E+06
 0.56399998E+02  0.89788E+06
 0.56449997E+02  0.10579E+07
 0.56499996E+02  0.11454E+07
 0.56549995E+02  0.11390E+07
 0.56599995E+02  0.10450E+07
 0.56649998E+02  0.88480E+06
 0.56699997E+02  0.69176E+06
 0.56749996E+02  0.50769E+06
 0.56799995E+02  0.36539E+06
 0.56849995E+02  0.26845E+06
 0.56899998E+02  0.20108E+06
 0.56949997E+02  0.16223E+06
 0.56999996E+02  0.15397E+06
 0.57049995E+02  0.15700E+06
 0.57099995E+02  0.15127E+06
 0.57149998E+02  0.13988E+06
 0.57199997E+02  0.12389E+06
 0.57249996E+02  0.10814E+06
 0.57299995E+02  0.83031E+05
 0.57349995E+02  0.21265E+05
 0.57399998E+02 -0.74508E+05
 0.57449997E+02 -0.18106E+06
 0.57499996E+02 -0.27349E+06
 0.57549995E+02 -0.33294E+06
 0.57599995E+02 -0.37018E+06
 0.57649998E+02 -0.39593E+06
 0.57699997E+02 -0.40848E+06
 0.57749996E+02 -0.41764E+06
 0.57799995E+02 -0.41840E+06
 0.57849995E+02 -0.41549E+06
 0.57899998E+02 -0.44210E+06
 0.57949997E+02 -0.52256E+06
 0.57999996E+02 -0.65297E+06
 0.58049995E+02 -0.81701E+06
 0.58099995E+02 -0.97717E+06
 0.58149998E+02 -0.11034E+07
 0.58199997E+02 -0.12064E+07
 0.58249996E+02 -0.12946E+07
 0.58299995E+02 -0.13689E+07
 0.58349995E+02 -0.14077E+07
 0.58399998E+02 -0.13916E+07
 0.58449997E+02 -0.13226E+07
 0.58499996E+02 -0.11909E+07
 0.58549995E+02 -0.10058E+07
 0.58599995E+02 -0.79129E+06
 0.58649998E+02 -0.56975E+06
 0.58699997E+02 -0.36144E+06
 0.58749996E+02 -0.18033E+06
 0.58799995E+02 -0.49218E+05
 0.58849995E+02  0.40437E+05
 0.58899998E+02  0.11541E+06
 0.58949997E+02  0.17285E+06
 0.58999996E+02  0.19658E+06
 0.59049995E+02  0.19757E+06
 0.59099995E+02  0.20705E+06
 0.59149998E+02  0.21096E+06
 0.59199997E+02  0.18322E+06
 0.59249996E+02  0.13759E+06
 0.59299995E+02  0.99657E+05
 0.59349995E+02  0.90507E+05
 0.59399998E+02  0.12301E+06
 0.59449997E+02  0.18764E+06
 0.59499996E+02  0.26963E+06
 0.59549995E+02  0.35593E+06
 0.59599995E+02  0.42197E+06
 0.59649998E+02  0.45639E+06
 0.59699997E+02  0.45039E+06
 0.59749996E+02  0.41685E+06
 0.59799995E+02  0.39109E+06
 0.59849995E+02  0.35956E+06
 0.59899998E+02  0.30577E+06
 0.59949997E+02  0.24867E+06
 0.59999996E+02  0.21556E+06
 0.60049995E+02  0.21761E+06
 0.60099995E+02  0.25356E+06
 0.60149998E+02  0.32403E+06
 0.60199997E+02  0.41592E+06
 0.60249996E+02  0.52469E+06
 0.60299995E+02  0.63950E+06
 0.60349995E+02  0.73051E+06
 0.60399998E+02  0.78550E+06
 0.60449997E+02  0.80098E+06
 0.60499996E+02  0.78069E+06
 0.60549995E+02  0.71436E+06
 0.60599995E+02  0.59166E+06
 0.60649998E+02  0.44218E+06
 0.60699997E+02  0.28189E+06
 0.60749996E+02  0.12173E+06
 0.60799995E+02 -0.27284E+05
 0.60849995E+02 -0.17997E+06
 0.60899998E+02 -0.33949E+06
 0.60949997E+02 -0.48448E+06
 0.60999996E+02 -0.58335E+06
 0.61049995E+02 -0.61069E+06
 0.61099995E+02 -0.56397E+06
 0.61149998E+02 -0.46063E+06
 0.61199997E+02 -0.32726E+06
 0.61249996E+02 -0.18593E+06
 0.61299995E+02 -0.71836E+05
 0.61349995E+02 -0.16563E+05
 0.61399998E+02 -0.15229E+05
 0.61449997E+02 -0.40027E+05
 0.61499996E+02 -0.52394E+05
 0.61549995E+02 -0.47456E+05
 0.61599995E+02 -0.50687E+05
 0.61649998E+02 -0.73128E+05
 0.61699997E+02 -0.10810E+06
 0.61749996E+02 -0.14543E+06
 0.61799995E+02 -0.16784E+06
 0.61849995E+02 -0.17026E+06
 0.61899998E+02 -0.17745E+06
 0.61949997E+02 -0.20329E+06
 0.61999996E+02 -0.25176E+06
 0.62049995E+02 -0.32040E+06
 0.62099998E+02 -0.37998E+06
 0.62149994E+02 -0.41381E+06
 0.62199997E+02 -0.42998E+06
 0.62249992E+02 -0.43976E+06
 0.62299995E+02 -0.45945E+06
 0.62349998E+02 -0.48537E+06
 0.62399994E+02 -0.51046E+06
 0.62449997E+02 -0.53752E+06
 0.62499992E+02 -0.56894E+06
 0.62549995E+02 -0.61255E+06
 0.62599998E+02 -0.65528E+06
 0.62649994E+02 -0.67306E+06
 0.62699997E+02 -0.65561E+06
 0.62749992E+02 -0.60853E+06
 0.62799995E+02 -0.54622E+06
 0.62849998E+02 -0.46962E+06
 0.62899994E+02 -0.36934E+06
 0.62949997E+02 -0.24320E+06
 0.62999992E+02 -0.91664E+05
 0.63049995E+02  0.84783E+05
 0.63099998E+02  0.26682E+06
 0.63149994E+02  0.41400E+06
 0.63199997E+02  0.51493E+06
 0.63249992E+02  0.58897E+06
 0.63299995E+02  0.65572E+06
 0.63349998E+02  0.73538E+06
 0.63399994E+02  0.83241E+06
 0.63449997E+02  0.94529E+06
 0.63499992E+02  0.10637E+07
 0.63549995E+02  0.11727E+07
 0.63599998E+02  0.12662E+07
 0.63649994E+02  0.13300E+07
 0.63699997E+02  0.13569E+07
 0.63749992E+02  0.13390E+07
 0.63799995E+02  0.12691E+07
 0.63849998E+02  0.11586E+07
 0.63899994E+02  0.10192E+07
 0.63949997E+02  0.85433E+06
 0.63999992E+02  0.66575E+06
 0.64049995E+02  0.45602E+06
 0.64099998E+02  0.23813E+06
 0.64149994E+02  0.48922E+05
 0.64199997E+02 -0.92041E+05
 0.64249992E+02 -0.19264E+06
 0.64299995E+02 -0.26332E+06
 0.64349998E+02 -0.30701E+06
 0.64399994E+02 -0.32664E+06
 0.64449997E+02 -0.32710E+06
 0.64499992E+02 -0.29870E+06
 0.64549995E+02 -0.24950E+06
 0.64599998E+02 -0.20622E+06
 0.64649994E+02 -0.18785E+06
 0.64699997E+02 -0.19829E+06
 0.64749992E+02 -0.23391E+06
 0.64799995E+02 -0.26816E+06
 0.64849998E+02 -0.26633E+06
 0.64899994E+02 -0.23098E+06
 0.64949997E+02 -0.16913E+06
 0.64999992E+02 -0.91461E+05
 0.65049995E+02 -0.13416E+05
 0.65099998E+02  0.66593E+05
 0.65149994E+02  0.16488E+06
 0.65199997E+02  0.29096E+06
 0.65249992E+02  0.43291E+06
 0.65299995E+02  0.56744E+06
 0.65349998E+02  0.67516E+06
 0.65399994E+02  0.74051E+06
 0.65449997E+02  0.75785E+06
 0.65499992E+02  0.73984E+06
 0.65549995E+02  0.69242E+06
 0.65599998E+02  0.61503E+06
 0.65649994E+02  0.50319E+06
 0.65699997E+02  0.36663E+06
 0.65749992E+02  0.22482E+06
 0.65799995E+02  0.96589E+05
 0.65849998E+02 -0.10278E+05
 0.65899994E+02 -0.10613E+06
 0.65949997E+02 -0.18823E+06
 0.65999992E+02 -0.25779E+06
 0.66049995E+02 -0.31190E+06
 0.66099998E+02 -0.35242E+06
 0.66149994E+02 -0.39584E+06
 0.66199997E+02 -0.45669E+06
 0.66249992E+02 -0.53878E+06
 0.66299995E+02 -0.63412E+06
 0.66349998E+02 -0.73270E+06
 0.66399994E+02 -0.82390E+06
 0.66449997E+02 -0.89855E+06
 0.66499992E+02 -0.93651E+06
 0.66549995E+02 -0.92809E+06
 0.66599998E+02 -0.88678E+06
 0.66649994E+02 -0.84220E+06
 0.66699997E+02 -0.80977E+06
 0.66749992E+02 -0.78468E+06
 0.66799995E+02 -0.76608E+06
 0.66849998E+02 -0.75492E+06
 0.66899994E+02 -0.75412E+06
 0.66949997E+02 -0.75496E+06
 0.66999992E+02 -0.74234E+06
 0.67049995E+02 -0.71131E+06
 0.67099998E+02 -0.66501E+06
 0.67149994E+02 -0.61056E+06
 0.67199997E+02 -0.55956E+06
 0.67249992E+02 -0.51995E+06
 0.67299995E+02 -0.48894E+06
 0.67349998E+02 -0.46634E+06
 0.67399994E+02 -0.45547E+06
 0.67449997E+02 -0.45234E+06
 0.67499992E+02 -0.45198E+06
 0.67549995E+02 -0.44757E+06
 0.67599998E+02 -0.43254E+06
 0.67649994E+02 -0.41029E+06
 0.67699997E+02 -0.37177E+06
 0.67749992E+02 -0.31622E+06
 0.67799995E+02 -0.25939E+06
 0.67849998E+02 -0.20091E+06
 0.67899994E+02 -0.13367E+06
 0.67949997E+02 -0.48127E+05
 0.67999992E+02  0.54276E+05
 0.68049995E+02  0.16717E+06
 0.68099998E+02  0.28854E+06
 0.68149994E+02  0.40735E+06
 0.68199997E+02  0.50738E+06
 0.68249992E+02  0.58794E+06
 0.68299995E+02  0.66663E+06
 0.68349998E+02  0.75382E+06
 0.68399994E+02  0.84484E+06
 0.68449997E+02  0.92945E+06
 0.68499992E+02  0.99864E+06
 0.68549995E+02  0.10527E+07
 0.68599998E+02  0.11105E+07
 0.68649994E+02  0.11902E+07
 0.68699997E+02  0.12823E+07
 0.68749992E+02  0.13609E+07
 0.68799995E+02  0.14047E+07
 0.68849998E+02  0.13976E+07
 0.68899994E+02  0.13380E+07
 0.68949997E+02  0.12430E+07
 0.68999992E+02  0.11284E+07
 0.69049995E+02  0.10104E+07
 0.69099998E+02  0.90449E+06
 0.69149994E+02  0.80254E+06
 0.69199997E+02  0.68938E+06
 0.69249992E+02  0.56955E+06
 0.69299995E+02  0.45154E+06
 0.69349998E+02  0.34527E+06
 0.69399994E+02  0.25289E+06
 0.69449997E+02  0.17231E+06
 0.69499992E+02  0.98137E+05
 0.69549995E+02  0.74629E+04
 0.69599998E+02 -0.10687E+06
 0.69649994E+02 -0.23618E+06
 0.69699997E+02 -0.38033E+06
 0.69749992E+02 -0.53700E+06
 0.69799995E+02 -0.68919E+06
 0.69849998E+02 -0.81891E+06
 0.69899994E+02 -0.92686E+06
 0.69949997E+02 -0.10192E+07
 0.69999992E+02 -0.10963E+07
 0.70049995E+02 -0.11565E+07
 0.70099998E+02 -0.12015E+07
 0.70149994E+02 -0.12270E+07
 0.70199997E+02 -0.12298E+07
 0.70249992E+02 -0.12154E+07
 0.70299995E+02 -0.11783E+07
 0.70349998E+02 -0.11153E+07
 0.70399994E+02 -0.10349E+07
 0.70449997E+02 -0.94186E+06
 0.70499992E+02 -0.82908E+06
 0.70549995E+02 -0.69627E+06
 0.70599998E+02 -0.55001E+06
 0.70649994E+02 -0.39281E+06
 0.70699997E+02 -0.23056E+06
 0.70749992E+02 -0.66965E+05
 0.70799995E+02  0.92672E+05
 0.70849998E+02  0.23673E+06
 0.70899994E+02  0.35437E+06
 0.70949997E+02  0.45068E+06
 0.70999992E+02  0.53027E+06
 0.71049995E+02  0.59538E+06
 0.71099998E+02  0.65191E+06
 0.71149994E+02  0.70805E+06
 0.71199997E+02  0.76867E+06
 0.71249992E+02  0.83200E+06
 0.71299995E+02  0.90056E+06
 0.71349998E+02  0.96058E+06
 0.71399994E+02  0.99555E+06
 0.71449997E+02  0.99641E+06
 0.71499992E+02  0.96803E+06
 0.71549995E+02  0.92224E+06
 0.71599998E+02  0.86306E+06
 0.71649994E+02  0.79412E+06
 0.71699997E+02  0.71111E+06
 0.71749992E+02  0.60902E+06
 0.71799995E+02  0.49118E+06
 0.71849998E+02  0.37008E+06
 0.71899994E+02  0.25306E+06
 0.71949997E+02  0.14325E+06
 0.71999992E+02  0.53022E+05
 0.72049995E+02 -0.79514E+04
 0.72099998E+02 -0.46553E+05
 0.72149994E+02 -0.69622E+05
 0.72199997E+02 -0.86244E+05
 0.72249992E+02 -0.10924E+06
 0.72299995E+02 -0.14375E+06
 0.72349998E+02 -0.18551E+06
 0.72399994E+02 -0.22584E+06
 0.72449997E+02 -0.25971E+06
 0.72499992E+02 -0.28948E+06
 0.72549995E+02 -0.32475E+06
 0.72599998E+02 -0.36751E+06
 0.72649994E+02 -0.41333E+06
 0.72699997E+02 -0.45520E+06
 0.72749992E+02 -0.48294E+06
 0.72799995E+02 -0.49885E+06
 0.72849998E+02 -0.51894E+06
 0.72899994E+02 -0.55307E+06
 0.72949997E+02 -0.60012E+06
 0.72999992E+02 -0.65328E+06
 0.73049995E+02 -0.70811E+06
 0.73099998E+02 -0.75144E+06
 0.73149994E+02 -0.77205E+06
 0.73199997E+02 -0.76813E+06
 0.73249992E+02 -0.73717E+06
 0.73299995E+02 -0.67812E+06
 0.73349998E+02 -0.59429E+06
 0.73399994E+02 -0.49150E+06
 0.73449997E+02 -0.37623E+06
 0.73499992E+02 -0.25610E+06
 0.73549995E+02 -0.13781E+06
 0.73599998E+02 -0.34636E+05
 0.73649994E+02  0.45980E+05
 0.73699997E+02  0.10732E+06
 0.73749992E+02  0.15709E+06
 0.73799995E+02  0.19869E+06
 0.73849998E+02  0.23049E+06
 0.73899994E+02  0.25981E+06
 0.73949997E+02  0.30138E+06
 0.73999992E+02  0.36518E+06
 0.74049995E+02  0.44686E+06
 0.74099998E+02  0.53278E+06
 0.74149994E+02  0.61505E+06
 0.74199997E+02  0.68483E+06
 0.74249992E+02  0.72738E+06
 0.74299995E+02  0.73837E+06
 0.74349998E+02  0.71642E+06
 0.74399994E+02  0.65895E+06
 0.74449997E+02  0.56469E+06
 0.74499992E+02  0.43996E+06
 0.74549995E+02  0.30346E+06
 0.74599998E+02  0.17055E+06
 0.74649994E+02  0.48197E+05
 0.74699997E+02 -0.61021E+05
 0.74749992E+02 -0.15470E+06
 0.74799995E+02 -0.23391E+06
 0.74849998E+02 -0.30674E+06
 0.74899994E+02 -0.37439E+06
 0.74949997E+02 -0.43217E+06
 0.74999992E+02 -0.47941E+06
 0.75049995E+02 -0.51852E+06
 0.75099998E+02 -0.55431E+06
 0.75149994E+02 -0.58913E+06
 0.75199997E+02 -0.61793E+06
 0.75249992E+02 -0.63158E+06
 0.75299995E+02 -0.62066E+06
 0.75349998E+02 -0.58278E+06
 0.75399994E+02 -0.51682E+06
 0.75449997E+02 -0.42017E+06
 0.75499992E+02 -0.29874E+06
 0.75549995E+02 -0.16759E+06
 0.75599998E+02 -0.44591E+05
 0.75649994E+02  0.69802E+05
 0.75699997E+02  0.17645E+06
 0.75749992E+02  0.27668E+06
 0.75799995E+02  0.36843E+06
 0.75849998E+02  0.44454E+06
 0.75899994E+02  0.50791E+06
 0.75949997E+02  0.55804E+06
 0.75999992E+02  0.58928E+06
 0.76049995E+02  0.59421E+06
 0.76099998E+02  0.56924E+06
 0.76149994E+02  0.51459E+06
 0.76199997E+02  0.43089E+06
 0.76249992E+02  0.32127E+06
 0.76299995E+02  0.19293E+06
 0.76349998E+02  0.48420E+05
 0.76399994E+02 -0.10712E+06
 0.76449997E+02 -0.26224E+06
 0.76499992E+02 -0.40572E+06
 0.76549995E+02 -0.52471E+06
 0.76599998E+02 -0.60727E+06
 0.76649994E+02 -0.65045E+06
 0.76699997E+02 -0.65710E+06
 0.76749992E+02 -0.63145E+06
 0.76799995E+02 -0.57818E+06
 0.76849998E+02 -0.50439E+06
 0.76899994E+02 -0.41986E+06
 0.76949997E+02 -0.32569E+06
 0.76999992E+02 -0.22748E+06
 0.77049995E+02 -0.13401E+06
 0.77099998E+02 -0.49753E+05
 0.77149994E+02  0.19544E+05
 0.77199997E+02  0.70054E+05
 0.77249992E+02  0.10000E+06
 0.77299995E+02  0.11452E+06
 0.77349998E+02  0.11358E+06
 0.77399994E+02  0.95059E+05
 0.77449997E+02  0.64866E+05
 0.77499992E+02  0.28581E+05
 0.77549995E+02 -0.95239E+04
 0.77599998E+02 -0.47774E+05
 0.77649994E+02 -0.85640E+05
 0.77699997E+02 -0.12182E+06
 0.77749992E+02 -0.15574E+06
 0.77799995E+02 -0.18767E+06
 0.77849998E+02 -0.21646E+06
 0.77899994E+02 -0.24030E+06
 0.77949997E+02 -0.25650E+06
 0.77999992E+02 -0.26311E+06
 0.78049995E+02 -0.25799E+06
 0.78099998E+02 -0.23557E+06
 0.78149994E+02 -0.19430E+06
 0.78199997E+02 -0.13886E+06
 0.78249992E+02 -0.71598E+05
 0.78299995E+02  0.48230E+04
 0.78349998E+02  0.88907E+05
 0.78399994E+02  0.18227E+06
 0.78449997E+02  0.28278E+06
 0.78499992E+02  0.38789E+06
 0.78549995E+02  0.49276E+06
 0.78599998E+02  0.59171E+06
 0.78649994E+02  0.67872E+06
 0.78699997E+02  0.75163E+06
 0.78749992E+02  0.81375E+06
 0.78799995E+02  0.86203E+06
 0.78849998E+02  0.88779E+06
 0.78899994E+02  0.88775E+06
 0.78949997E+02  0.86692E+06
 0.78999992E+02  0.82548E+06
 0.79049995E+02  0.75989E+06
 0.79099998E+02  0.66907E+06
 0.79149994E+02  0.55644E+06
 0.79199997E+02  0.43236E+06
 0.79249992E+02  0.30640E+06
 0.79299995E+02  0.18252E+06
 0.79349998E+02  0.58470E+05
 0.79399994E+02 -0.63879E+05
 0.79449997E+02 -0.17488E+06
 0.79499992E+02 -0.26908E+06
 0.79549995E+02 -0.34837E+06
 0.79599998E+02 -0.41634E+06
 0.79649994E+02 -0.47224E+06
 0.79699997E+02 -0.51252E+06
 0.79749992E+02 -0.53868E+06
 0.79799995E+02 -0.55298E+06
 0.79849998E+02 -0.55682E+06
 0.79899994E+02 -0.55098E+06
 0.79949997E+02 -0.53416E+06
 0.79999992E+02 -0.50448E+06
 0.80049995E+02 -0.46386E+06
 0.80099998E+02 -0.41924E+06
 0.80149994E+02 -0.37612E+06
 0.80199997E+02 -0.33495E+06
 0.80249992E+02 -0.29338E+06
 0.80299995E+02 -0.25088E+06
 0.80349998E+02 -0.20895E+06
 0.80399994E+02 -0.16765E+06
 0.80449997E+02 -0.12044E+06
 0.80499992E+02 -0.65423E+05
 0.80549995E+02 -0.89882E+04
 0.80599998E+02  0.41758E+05
 0.80649994E+02  0.82334E+05
 0.80699997E+02  0.11415E+06
 0.80749992E+02  0.13848E+06
 0.80799995E+02  0.15453E+06
 0.80849998E+02  0.16477E+06
 0.80899994E+02  0.16852E+06
 0.80949997E+02  0.16317E+06
 0.80999992E+02  0.15595E+06
 0.81049995E+02  0.15870E+06
 0.81099998E+02  0.17865E+06
 0.81149994E+02  0.21594E+06
 0.81199997E+02  0.26240E+06
 0.81249992E+02  0.30551E+06
 0.81299995E+02  0.33668E+06
 0.81349998E+02  0.35343E+06
 0.81399994E+02  0.35566E+06
 0.81449997E+02  0.34354E+06
 0.81499992E+02  0.31814E+06
 0.81549995E+02  0.28013E+06
 0.81599998E+02  0.22805E+06
 0.81649994E+02  0.16467E+06
 0.81699997E+02  0.95374E+05
 0.81749992E+02  0.24110E+05
 0.81799995E+02 -0.42776E+05
 0.81849998E+02 -0.10229E+06
 0.81899994E+02 -0.15173E+06
 0.81949997E+02 -0.19140E+06
 0.81999992E+02 -0.22442E+06
 0.82049995E+02 -0.25010E+06
 0.82099998E+02 -0.26784E+06
 0.82149994E+02 -0.27488E+06
 0.82199997E+02 -0.26794E+06
 0.82249992E+02 -0.24505E+06
 0.82299995E+02 -0.20577E+06
 0.82349998E+02 -0.15516E+06
 0.82399994E+02 -0.99819E+05
 0.82449997E+02 -0.42570E+05
 0.82499992E+02  0.13170E+05
 0.82549995E+02  0.65611E+05
 0.82599998E+02  0.11546E+06
 0.82649994E+02  0.16393E+06
 0.82699997E+02  0.20721E+06
 0.82749992E+02  0.23404E+06
 0.82799995E+02  0.23946E+06
 0.82849998E+02  0.22350E+06
 0.82899994E+02  0.18856E+06
 0.82949997E+02  0.14222E+06
 0.82999992E+02  0.90150E+05
 0.83049995E+02  0.32460E+05
 0.83099998E+02 -0.26546E+05
 0.83149994E+02 -0.74697E+05
 0.83199997E+02 -0.10471E+06
 0.83249992E+02 -0.11545E+06
 0.83299995E+02 -0.10978E+06
 0.83349998E+02 -0.93854E+05
 0.83399994E+02 -0.76050E+05
 0.83449997E+02 -0.61411E+05
 0.83499992E+02 -0.52121E+05
 0.83549995E+02 -0.50617E+05
 0.83599998E+02 -0.57621E+05
 0.83649994E+02 -0.72967E+05
 0.83699997E+02 -0.94530E+05
 0.83749992E+02 -0.12309E+06
 0.83799995E+02 -0.16059E+06
 0.83849998E+02 -0.20379E+06
 0.83899994E+02 -0.24829E+06
 0.83949997E+02 -0.29375E+06
 0.83999992E+02 -0.33945E+06
 0.84049995E+02 -0.37903E+06
 0.84099998E+02 -0.40496E+06
 0.84149994E+02 -0.41376E+06
 0.84199997E+02 -0.40524E+06
 0.84249992E+02 -0.37837E+06
 0.84299995E+02 -0.33617E+06
 0.84349998E+02 -0.28768E+06
 0.84399994E+02 -0.23621E+06
 0.84449997E+02 -0.18394E+06
 0.84499992E+02 -0.13406E+06
 0.84549995E+02 -0.82945E+05
 0.84599998E+02 -0.28287E+05
 0.84649994E+02  0.29367E+05
 0.84699997E+02  0.91130E+05
 0.84749992E+02  0.15810E+06
 0.84799995E+02  0.22685E+06
 0.84849998E+02  0.28878E+06
 0.84899994E+02  0.33916E+06
 0.84949997E+02  0.37828E+06
 0.84999992E+02  0.40703E+06
 0.85049995E+02  0.42687E+06
 0.85099998E+02  0.43580E+06
 0.85149994E+02  0.42985E+06
 0.85199997E+02  0.40567E+06
 0.85249992E+02  0.36205E+06
 0.85299995E+02  0.30312E+06
 0.85349998E+02  0.23453E+06
 0.85399994E+02  0.16300E+06
 0.85449997E+02  0.92757E+05
 0.85499992E+02  0.21004E+05
 0.85549995E+02 -0.53918E+05
 0.85599998E+02 -0.12336E+06
 0.85649994E+02 -0.17565E+06
 0.85699997E+02 -0.20410E+06
 0.85749992E+02 -0.20942E+06
 0.85799995E+02 -0.20076E+06
 0.85849998E+02 -0.18721E+06
 0.85899994E+02 -0.17121E+06
 0.85949997E+02 -0.14959E+06
 0.85999992E+02 -0.12090E+06
 0.86049995E+02 -0.86606E+05
 0.86099998E+02 -0.50709E+05
 0.86149994E+02 -0.18244E+05
 0.86199997E+02  0.64011E+04
 0.86249992E+02  0.25231E+05
 0.86299995E+02  0.47120E+05
 0.86349998E+02  0.76062E+05
 0.86399994E+02  0.11317E+06
 0.86449997E+02  0.15516E+06
 0.86499992E+02  0.19538E+06
 0.86549995E+02  0.23774E+06
 0.86599998E+02  0.28833E+06
 0.86649994E+02  0.34749E+06
 0.86699997E+02  0.41167E+06
 0.86749992E+02  0.47215E+06
 0.86799995E+02  0.52130E+06
 0.86849998E+02  0.54924E+06
 0.86899994E+02  0.54888E+06
 0.86949997E+02  0.52407E+06
 0.86999992E+02  0.48205E+06
 0.87049995E+02  0.42870E+06
 0.87099998E+02  0.36812E+06
 0.87149994E+02  0.30531E+06
 0.87199997E+02  0.24576E+06
 0.87249992E+02  0.19026E+06
 0.87299995E+02  0.13337E+06
 0.87349998E+02  0.66721E+05
 0.87399994E+02 -0.10477E+05
 0.87449997E+02 -0.93271E+05
 0.87499992E+02 -0.18256E+06
 0.87549995E+02 -0.28085E+06
 0.87599991E+02 -0.38196E+06
 0.87649994E+02 -0.47686E+06
 0.87699997E+02 -0.56028E+06
 0.87749992E+02 -0.62711E+06
 0.87799995E+02 -0.67473E+06
 0.87849991E+02 -0.70226E+06
 0.87899994E+02 -0.70773E+06
 0.87949997E+02 -0.69472E+06
 0.87999992E+02 -0.67132E+06
 0.88049995E+02 -0.64274E+06
 0.88099991E+02 -0.61322E+06
 0.88149994E+02 -0.58469E+06
 0.88199997E+02 -0.55702E+06
 0.88249992E+02 -0.53147E+06
 0.88299995E+02 -0.50890E+06
 0.88349991E+02 -0.48615E+06
 0.88399994E+02 -0.45854E+06
 0.88449997E+02 -0.42378E+06
 0.88499992E+02 -0.37869E+06
 0.88549995E+02 -0.31993E+06
 0.88599991E+02 -0.25022E+06
 0.88649994E+02 -0.17375E+06
 0.88699997E+02 -0.92044E+05
 0.88749992E+02 -0.47943E+04
 0.88799995E+02  0.87194E+05
 0.88849991E+02  0.17668E+06
 0.88899994E+02  0.25835E+06
 0.88949997E+02  0.33447E+06
 0.88999992E+02  0.40830E+06
 0.89049995E+02  0.47863E+06
 0.89099991E+02  0.54021E+06
 0.89149994E+02  0.58657E+06
 0.89199997E+02  0.61277E+06
 0.89249992E+02  0.61528E+06
 0.89299995E+02  0.59388E+06
 0.89349991E+02  0.55163E+06
 0.89399994E+02  0.49321E+06
 0.89449997E+02  0.42249E+06
 0.89499992E+02  0.34216E+06
 0.89549995E+02  0.25736E+06
 0.89599991E+02  0.17149E+06
 0.89649994E+02  0.88891E+05
 0.89699997E+02  0.15276E+05
 0.89749992E+02 -0.45123E+05
 0.89799995E+02 -0.87534E+05
 0.89849991E+02 -0.10800E+06
 0.89899994E+02 -0.10622E+06
 0.89949997E+02 -0.88545E+05
 0.89999992E+02 -0.64233E+05
 0.90049995E+02 -0.38938E+05
 0.90099991E+02 -0.12862E+05
 0.90149994E+02  0.16935E+05
 0.90199997E+02  0.51950E+05
 0.90249992E+02  0.90168E+05
 0.90299995E+02  0.13032E+06
 0.90349991E+02  0.17110E+06
 0.90399994E+02  0.20955E+06
 0.90449997E+02  0.24114E+06
 0.90499992E+02  0.26139E+06
 0.90549995E+02  0.27109E+06
 0.90599991E+02  0.27200E+06
 0.90649994E+02  0.26285E+06
 0.90699997E+02  0.24334E+06
 0.90749992E+02  0.21318E+06
 0.90799995E+02  0.17200E+06
 0.90849991E+02  0.12521E+06
 0.90899994E+02  0.78530E+05
 0.90949997E+02  0.31829E+05
 0.90999992E+02 -0.17697E+05
 0.91049995E+02 -0.72023E+05
 0.91099991E+02 -0.12920E+06
 0.91149994E+02 -0.18602E+06
 0.91199997E+02 -0.23975E+06
 0.91249992E+02 -0.28730E+06
 0.91299995E+02 -0.32442E+06
 0.91349991E+02 -0.34818E+06
 0.91399994E+02 -0.36214E+06
 0.91449997E+02 -0.37013E+06
 0.91499992E+02 -0.37264E+06
 0.91549995E+02 -0.37062E+06
 0.91599991E+02 -0.36511E+06
 0.91649994E+02 -0.35575E+06
 0.91699997E+02 -0.34032E+06
 0.91749992E+02 -0.31482E+06
 0.91799995E+02 -0.27806E+06
 0.91849991E+02 -0.23124E+06
 0.91899994E+02 -0.17438E+06
 0.91949997E+02 -0.10847E+06
 0.91999992E+02 -0.36276E+05
 0.92049995E+02  0.37509E+05
 0.92099991E+02  0.11020E+06
 0.92149994E+02  0.18198E+06
 0.92199997E+02  0.24951E+06
 0.92249992E+02  0.30921E+06
 0.92299995E+02  0.36224E+06
 0.92349991E+02  0.41160E+06
 0.92399994E+02  0.45855E+06
 0.92449997E+02  0.49994E+06
 0.92499992E+02  0.53121E+06
 0.92549995E+02  0.55001E+06
 0.92599991E+02  0.55675E+06
 0.92649994E+02  0.55062E+06
 0.92699997E+02  0.52972E+06
 0.92749992E+02  0.49302E+06
 0.92799995E+02  0.44046E+06
 0.92849991E+02  0.37516E+06
 0.92899994E+02  0.30036E+06
 0.92949997E+02  0.21757E+06
 0.92999992E+02  0.13084E+06
 0.93049995E+02  0.43639E+05
 0.93099991E+02 -0.42678E+05
 0.93149994E+02 -0.12739E+06
 0.93199997E+02 -0.20854E+06
 0.93249992E+02 -0.28348E+06
 0.93299995E+02 -0.35099E+06
 0.93349991E+02 -0.40803E+06
 0.93399994E+02 -0.45157E+06
 0.93449997E+02 -0.48129E+06
 0.93499992E+02 -0.49818E+06
 0.93549995E+02 -0.50369E+06
 0.93599991E+02 -0.49957E+06
 0.93649994E+02 -0.48703E+06
 0.93699997E+02 -0.47220E+06
 0.93749992E+02 -0.46283E+06
 0.93799995E+02 -0.46038E+06
 0.93849991E+02 -0.46169E+06
 0.93899994E+02 -0.46077E+06
 0.93949997E+02 -0.45263E+06
 0.93999992E+02 -0.43515E+06
 0.94049995E+02 -0.40689E+06
 0.94099991E+02 -0.37022E+06
 0.94149994E+02 -0.32922E+06
 0.94199997E+02 -0.28433E+06
 0.94249992E+02 -0.23694E+06
 0.94299995E+02 -0.18930E+06
 0.94349991E+02 -0.14066E+06
 0.94399994E+02 -0.89273E+05
 0.94449997E+02 -0.36266E+05
 0.94499992E+02  0.15526E+05
 0.94549995E+02  0.62363E+05
 0.94599991E+02  0.10006E+06
 0.94649994E+02  0.12755E+06
 0.94699997E+02  0.14533E+06
 0.94749992E+02  0.15394E+06
 0.94799995E+02  0.15528E+06
 0.94849991E+02  0.15335E+06
 0.94899994E+02  0.15333E+06
 0.94949997E+02  0.15952E+06
 0.94999992E+02  0.17422E+06
 0.95049995E+02  0.19788E+06
 0.95099991E+02  0.22746E+06
 0.95149994E+02  0.25490E+06
 0.95199997E+02  0.27305E+06
 0.95249992E+02  0.27827E+06
 0.95299995E+02  0.27139E+06
 0.95349991E+02  0.25691E+06
 0.95399994E+02  0.23959E+06
 0.95449997E+02  0.22222E+06
 0.95499992E+02  0.20526E+06
 0.95549995E+02  0.18879E+06
 0.95599991E+02  0.17321E+06
 0.95649994E+02  0.15742E+06
 0.95699997E+02  0.13919E+06
 0.95749992E+02  0.11814E+06
 0.95799995E+02  0.94366E+05
 0.95849991E+02  0.69007E+05
 0.95899994E+02  0.43178E+05
 0.95949997E+02  0.17083E+05
 0.95999992E+02 -0.71829E+04
 0.96049995E+02 -0.27589E+05
 0.96099991E+02 -0.45970E+05
 0.96149994E+02 -0.65498E+05
 0.96199997E+02 -0.87015E+05
 0.96249992E+02 -0.11076E+06
 0.96299995E+02 -0.13660E+06
 0.96349991E+02 -0.16223E+06
 0.96399994E+02 -0.18642E+06
 0.96449997E+02 -0.20959E+06
 0.96499992E+02 -0.23091E+06
 0.96549995E+02 -0.24845E+06
 0.96599991E+02 -0.26029E+06
 0.96649994E+02 -0.26345E+06
 0.96699997E+02 -0.25493E+06
 0.96749992E+02 -0.23411E+06
 0.96799995E+02 -0.20394E+06
 0.96849991E+02 -0.16924E+06
 0.96899994E+02 -0.13262E+06
 0.96949997E+02 -0.95471E+05
 0.96999992E+02 -0.58811E+05
 0.97049995E+02 -0.23275E+05
 0.97099991E+02  0.89679E+04
 0.97149994E+02  0.35568E+05
 0.97199997E+02  0.56560E+05
 0.97249992E+02  0.75325E+05
 0.97299995E+02  0.95279E+05
 0.97349991E+02  0.11824E+06
 0.97399994E+02  0.14475E+06
 0.97449997E+02  0.17222E+06
 0.97499992E+02  0.19822E+06
 0.97549995E+02  0.22190E+06
 0.97599991E+02  0.24163E+06
 0.97649994E+02  0.25375E+06
 0.97699997E+02  0.25477E+06
 0.97749992E+02  0.24358E+06
 0.97799995E+02  0.22057E+06
 0.97849991E+02  0.18776E+06
 0.97899994E+02  0.14974E+06
 0.97949997E+02  0.11264E+06
 0.97999992E+02  0.80109E+05
