-0.20000000E+01 -0.35142E+05
-0.19500000E+01 -0.37000E+05
-0.19000000E+01 -0.37915E+05
-0.18500000E+01 -0.37964E+05
-0.18000000E+01 -0.37129E+05
-0.17500000E+01 -0.35695E+05
-0.17000000E+01 -0.34120E+05
-0.16500001E+01 -0.32720E+05
-0.16000000E+01 -0.31541E+05
-0.15500000E+01 -0.30242E+05
-0.15000000E+01 -0.28703E+05
-0.14500000E+01 -0.26948E+05
-0.14000001E+01 -0.24860E+05
-0.13500000E+01 -0.22405E+05
-0.13000001E+01 -0.19048E+05
-0.12500000E+01 -0.14573E+05
-0.12000000E+01 -0.91788E+04
-0.11500001E+01 -0.31915E+04
-0.11000000E+01  0.32351E+04
-0.10500001E+01  0.10126E+05
-0.10000000E+01  0.17207E+05
-0.95000005E+00  0.24181E+05
-0.90000010E+00  0.30817E+05
-0.85000002E+00  0.37014E+05
-0.80000007E+00  0.42684E+05
-0.75000012E+00  0.47689E+05
-0.70000005E+00  0.51822E+05
-0.65000010E+00  0.54861E+05
-0.60000014E+00  0.56638E+05
-0.55000007E+00  0.56954E+05
-0.50000012E+00  0.55968E+05
-0.45000005E+00  0.54205E+05
-0.40000010E+00  0.51946E+05
-0.35000014E+00  0.49038E+05
-0.30000007E+00  0.45581E+05
-0.25000012E+00  0.41594E+05
-0.20000005E+00  0.37187E+05
-0.15000010E+00  0.32665E+05
-0.10000014E+00  0.27872E+05
-0.50000072E-01  0.22611E+05
-0.11920929E-06  0.16810E+05
 0.49999952E-01  0.10893E+05
 0.99999905E-01  0.52361E+04
 0.14999986E+00  0.14161E+03
 0.19999981E+00 -0.44428E+04
 0.24999976E+00 -0.86408E+04
 0.29999995E+00 -0.12575E+05
 0.34999990E+00 -0.16536E+05
 0.39999986E+00 -0.20324E+05
 0.44999981E+00 -0.23565E+05
 0.49999976E+00 -0.26023E+05
 0.54999995E+00 -0.27721E+05
 0.59999990E+00 -0.28660E+05
 0.64999986E+00 -0.28643E+05
 0.69999981E+00 -0.27487E+05
 0.74999976E+00 -0.25371E+05
 0.79999971E+00 -0.22523E+05
 0.84999990E+00 -0.19169E+05
 0.89999986E+00 -0.15544E+05
 0.94999981E+00 -0.11876E+05
 0.99999976E+00 -0.86047E+04
 0.10499997E+01 -0.59699E+04
 0.10999999E+01 -0.37973E+04
 0.11499999E+01 -0.19723E+04
 0.11999998E+01 -0.73186E+03
 0.12499998E+01 -0.39556E+03
 0.12999997E+01 -0.12274E+04
 0.13499999E+01 -0.32032E+04
 0.13999999E+01 -0.61671E+04
 0.14499998E+01 -0.10087E+05
 0.14999998E+01 -0.14669E+05
 0.15499997E+01 -0.19643E+05
 0.15999999E+01 -0.24412E+05
 0.16499999E+01 -0.28213E+05
 0.16999998E+01 -0.30398E+05
 0.17499998E+01 -0.30554E+05
 0.17999997E+01 -0.28738E+05
 0.18499997E+01 -0.25253E+05
 0.18999999E+01 -0.20532E+05
 0.19499998E+01 -0.14990E+05
 0.19999998E+01 -0.90053E+04
 0.20499997E+01 -0.27417E+04
 0.20999999E+01  0.32538E+04
 0.21499996E+01  0.83555E+04
 0.21999998E+01  0.12008E+05
 0.22499995E+01  0.14160E+05
 0.22999997E+01  0.15190E+05
 0.23499999E+01  0.15041E+05
 0.23999996E+01  0.13702E+05
 0.24499998E+01  0.11439E+05
 0.24999995E+01  0.87456E+04
 0.25499997E+01  0.57568E+04
 0.25999999E+01  0.23738E+04
 0.26499996E+01 -0.13451E+04
 0.26999998E+01 -0.52506E+04
 0.27499995E+01 -0.93576E+04
 0.27999997E+01 -0.13728E+05
 0.28499999E+01 -0.18234E+05
 0.28999996E+01 -0.22664E+05
 0.29499998E+01 -0.26568E+05
 0.29999995E+01 -0.29773E+05
 0.30499997E+01 -0.31766E+05
 0.30999999E+01 -0.32210E+05
 0.31499996E+01 -0.31212E+05
 0.31999998E+01 -0.29132E+05
 0.32499995E+01 -0.26628E+05
 0.32999997E+01 -0.23866E+05
 0.33499999E+01 -0.20798E+05
 0.33999996E+01 -0.17423E+05
 0.34499998E+01 -0.13865E+05
 0.34999995E+01 -0.10054E+05
 0.35499997E+01 -0.58872E+04
 0.35999994E+01 -0.13453E+04
 0.36499996E+01  0.36647E+04
 0.36999998E+01  0.90560E+04
 0.37499995E+01  0.14652E+05
 0.37999997E+01  0.20432E+05
 0.38499994E+01  0.25995E+05
 0.38999996E+01  0.30750E+05
 0.39499998E+01  0.34458E+05
 0.39999995E+01  0.37055E+05
 0.40499997E+01  0.38406E+05
 0.40999994E+01  0.38469E+05
 0.41499996E+01  0.37445E+05
 0.41999998E+01  0.35301E+05
 0.42499995E+01  0.32492E+05
 0.42999997E+01  0.29359E+05
 0.43499994E+01  0.25720E+05
 0.43999996E+01  0.21578E+05
 0.44499998E+01  0.17115E+05
 0.44999995E+01  0.12755E+05
 0.45499997E+01  0.86955E+04
 0.45999994E+01  0.50353E+04
 0.46499996E+01  0.19773E+04
 0.46999998E+01 -0.35715E+03
 0.47499995E+01 -0.19458E+04
 0.47999997E+01 -0.30515E+04
 0.48499994E+01 -0.39433E+04
 0.48999996E+01 -0.47266E+04
 0.49499998E+01 -0.54832E+04
 0.49999995E+01 -0.60985E+04
 0.50499997E+01 -0.65807E+04
 0.50999994E+01 -0.71172E+04
 0.51499996E+01 -0.78738E+04
 0.51999998E+01 -0.91358E+04
 0.52499995E+01 -0.11143E+05
 0.52999997E+01 -0.13688E+05
 0.53499994E+01 -0.16374E+05
 0.53999996E+01 -0.18874E+05
 0.54499993E+01 -0.20834E+05
 0.54999995E+01 -0.21785E+05
 0.55499997E+01 -0.21615E+05
 0.55999994E+01 -0.20459E+05
 0.56499996E+01 -0.18571E+05
 0.56999993E+01 -0.16133E+05
 0.57499995E+01 -0.13379E+05
 0.57999997E+01 -0.10444E+05
 0.58499994E+01 -0.76489E+04
 0.58999996E+01 -0.54932E+04
 0.59499993E+01 -0.40864E+04
 0.59999995E+01 -0.36832E+04
 0.60499992E+01 -0.41512E+04
 0.60999994E+01 -0.53722E+04
 0.61499996E+01 -0.67471E+04
 0.61999998E+01 -0.76152E+04
 0.62499990E+01 -0.76062E+04
 0.62999992E+01 -0.67972E+04
 0.63499994E+01 -0.55977E+04
 0.63999996E+01 -0.39947E+04
 0.64499998E+01 -0.20582E+04
 0.64999990E+01  0.18668E+03
 0.65499992E+01  0.24318E+04
 0.65999994E+01  0.46073E+04
 0.66499996E+01  0.65570E+04
 0.66999998E+01  0.82465E+04
 0.67499990E+01  0.96642E+04
 0.67999992E+01  0.10645E+05
 0.68499994E+01  0.11361E+05
 0.68999996E+01  0.12062E+05
 0.69499998E+01  0.12901E+05
 0.69999990E+01  0.13628E+05
 0.70499992E+01  0.14198E+05
 0.70999994E+01  0.14366E+05
 0.71499996E+01  0.14068E+05
 0.71999998E+01  0.13316E+05
 0.72499990E+01  0.11956E+05
 0.72999992E+01  0.10318E+05
 0.73499994E+01  0.86257E+04
 0.73999996E+01  0.72990E+04
 0.74499998E+01  0.65091E+04
 0.74999990E+01  0.62854E+04
 0.75499992E+01  0.64104E+04
 0.75999994E+01  0.63655E+04
 0.76499996E+01  0.58725E+04
 0.76999998E+01  0.46313E+04
 0.77499990E+01  0.25316E+04
 0.77999992E+01 -0.31772E+03
 0.78499994E+01 -0.35512E+04
 0.78999996E+01 -0.70805E+04
 0.79499998E+01 -0.10744E+05
 0.79999990E+01 -0.14275E+05
 0.80499992E+01 -0.17531E+05
 0.80999994E+01 -0.20219E+05
 0.81499996E+01 -0.21877E+05
 0.81999998E+01 -0.22253E+05
 0.82499990E+01 -0.21511E+05
 0.82999992E+01 -0.19812E+05
 0.83499994E+01 -0.17265E+05
 0.83999996E+01 -0.13805E+05
 0.84499998E+01 -0.95423E+04
 0.84999990E+01 -0.48533E+04
 0.85499992E+01  0.43502E+01
 0.85999994E+01  0.49326E+04
 0.86499996E+01  0.95833E+04
 0.86999998E+01  0.14099E+05
 0.87499990E+01  0.18488E+05
 0.87999992E+01  0.22375E+05
 0.88499994E+01  0.25673E+05
 0.88999996E+01  0.28264E+05
 0.89499998E+01  0.30184E+05
 0.89999990E+01  0.31488E+05
 0.90499992E+01  0.32070E+05
 0.90999994E+01  0.31723E+05
 0.91499996E+01  0.30341E+05
 0.91999989E+01  0.27876E+05
 0.92499990E+01  0.24667E+05
 0.92999992E+01  0.21078E+05
 0.93499994E+01  0.17415E+05
 0.93999996E+01  0.13649E+05
 0.94499989E+01  0.96429E+04
 0.94999990E+01  0.53493E+04
 0.95499992E+01  0.96855E+03
 0.95999994E+01 -0.30558E+04
 0.96499996E+01 -0.65630E+04
 0.96999989E+01 -0.95367E+04
 0.97499990E+01 -0.12194E+05
 0.97999992E+01 -0.14629E+05
 0.98499994E+01 -0.17143E+05
 0.98999996E+01 -0.19585E+05
 0.99499989E+01 -0.21428E+05
 0.99999990E+01 -0.22195E+05
 0.10049999E+02 -0.21919E+05
 0.10099999E+02 -0.20913E+05
 0.10150000E+02 -0.19415E+05
 0.10199999E+02 -0.17559E+05
 0.10249999E+02 -0.14825E+05
 0.10299999E+02 -0.11254E+05
 0.10349999E+02 -0.69802E+04
 0.10400000E+02 -0.22619E+04
 0.10449999E+02  0.26364E+04
 0.10499999E+02  0.71643E+04
 0.10549999E+02  0.10818E+05
 0.10599999E+02  0.13613E+05
 0.10650000E+02  0.15682E+05
 0.10699999E+02  0.17028E+05
 0.10749999E+02  0.17572E+05
 0.10799999E+02  0.17619E+05
 0.10849999E+02  0.17362E+05
 0.10900000E+02  0.17011E+05
 0.10949999E+02  0.16599E+05
 0.10999999E+02  0.16349E+05
 0.11049999E+02  0.16094E+05
 0.11099999E+02  0.15680E+05
 0.11150000E+02  0.15143E+05
 0.11199999E+02  0.14242E+05
 0.11249999E+02  0.13183E+05
 0.11299999E+02  0.12094E+05
 0.11349999E+02  0.11108E+05
 0.11400000E+02  0.10322E+05
 0.11449999E+02  0.95748E+04
 0.11499999E+02  0.88613E+04
 0.11549999E+02  0.82668E+04
 0.11599999E+02  0.76723E+04
 0.11650000E+02  0.69401E+04
 0.11699999E+02  0.60349E+04
 0.11749999E+02  0.50166E+04
 0.11799999E+02  0.39362E+04
 0.11849999E+02  0.25603E+04
 0.11900000E+02  0.10785E+04
 0.11949999E+02 -0.34002E+03
 0.11999999E+02 -0.19214E+04
 0.12049999E+02 -0.39541E+04
 0.12099999E+02 -0.68745E+04
 0.12150000E+02 -0.10595E+05
 0.12199999E+02 -0.14686E+05
 0.12249999E+02 -0.18819E+05
 0.12299999E+02 -0.22817E+05
 0.12349999E+02 -0.26691E+05
 0.12400000E+02 -0.30368E+05
 0.12449999E+02 -0.33918E+05
 0.12499999E+02 -0.37402E+05
 0.12549999E+02 -0.40516E+05
 0.12599999E+02 -0.43139E+05
 0.12649999E+02 -0.45085E+05
 0.12699999E+02 -0.46135E+05
 0.12749999E+02 -0.45983E+05
 0.12799999E+02 -0.44304E+05
 0.12849999E+02 -0.40925E+05
 0.12899999E+02 -0.35621E+05
 0.12949999E+02 -0.28902E+05
 0.12999999E+02 -0.21333E+05
 0.13049999E+02 -0.13364E+05
 0.13099999E+02 -0.52014E+04
 0.13149999E+02  0.28059E+04
 0.13199999E+02  0.10300E+05
 0.13249999E+02  0.17134E+05
 0.13299999E+02  0.23352E+05
 0.13349999E+02  0.29018E+05
 0.13399999E+02  0.34123E+05
 0.13449999E+02  0.38584E+05
 0.13499999E+02  0.42218E+05
 0.13549999E+02  0.45379E+05
 0.13599999E+02  0.48151E+05
 0.13649999E+02  0.50527E+05
 0.13699999E+02  0.52292E+05
 0.13749999E+02  0.53323E+05
 0.13799999E+02  0.53493E+05
 0.13849999E+02  0.52646E+05
 0.13899999E+02  0.50684E+05
 0.13949999E+02  0.47962E+05
 0.13999999E+02  0.44549E+05
 0.14049999E+02  0.40023E+05
 0.14099998E+02  0.34198E+05
 0.14150000E+02  0.27395E+05
 0.14199999E+02  0.20148E+05
 0.14249998E+02  0.12575E+05
 0.14299999E+02  0.49521E+04
 0.14349998E+02 -0.25785E+04
 0.14400000E+02 -0.97698E+04
 0.14449999E+02 -0.16427E+05
 0.14499998E+02 -0.22327E+05
 0.14549999E+02 -0.27282E+05
 0.14599998E+02 -0.31133E+05
 0.14650000E+02 -0.33774E+05
 0.14699999E+02 -0.35333E+05
 0.14749998E+02 -0.35700E+05
 0.14799999E+02 -0.34867E+05
 0.14849998E+02 -0.32993E+05
 0.14900000E+02 -0.30491E+05
 0.14949999E+02 -0.27943E+05
 0.14999998E+02 -0.25076E+05
 0.15049999E+02 -0.21887E+05
 0.15099998E+02 -0.18631E+05
 0.15150000E+02 -0.15295E+05
 0.15199999E+02 -0.11847E+05
 0.15249998E+02 -0.81134E+04
 0.15299999E+02 -0.42318E+04
 0.15349998E+02 -0.35075E+03
 0.15400000E+02  0.33770E+04
 0.15449999E+02  0.69174E+04
 0.15499998E+02  0.10133E+05
 0.15549999E+02  0.13145E+05
 0.15599998E+02  0.15917E+05
 0.15650000E+02  0.18472E+05
 0.15699999E+02  0.20568E+05
 0.15749998E+02  0.21945E+05
 0.15799999E+02  0.22587E+05
 0.15849998E+02  0.22306E+05
 0.15900000E+02  0.21180E+05
 0.15949999E+02  0.19259E+05
 0.15999998E+02  0.16580E+05
 0.16049999E+02  0.12943E+05
 0.16099998E+02  0.85903E+04
 0.16150000E+02  0.36941E+04
 0.16199999E+02 -0.15764E+04
 0.16249998E+02 -0.73451E+04
 0.16299999E+02 -0.13633E+05
 0.16349998E+02 -0.20080E+05
 0.16400000E+02 -0.26575E+05
 0.16449999E+02 -0.33035E+05
 0.16499998E+02 -0.39416E+05
 0.16549999E+02 -0.45215E+05
 0.16599998E+02 -0.50173E+05
 0.16650000E+02 -0.54008E+05
 0.16699999E+02 -0.56417E+05
 0.16749998E+02 -0.57451E+05
 0.16799999E+02 -0.57225E+05
 0.16849998E+02 -0.55995E+05
 0.16900000E+02 -0.53840E+05
 0.16949999E+02 -0.50995E+05
 0.16999998E+02 -0.47547E+05
 0.17049999E+02 -0.43562E+05
 0.17099998E+02 -0.38778E+05
 0.17150000E+02 -0.33190E+05
 0.17199999E+02 -0.27120E+05
 0.17249998E+02 -0.20546E+05
 0.17299999E+02 -0.13706E+05
 0.17349998E+02 -0.68172E+04
 0.17400000E+02 -0.58766E+03
 0.17449999E+02  0.47414E+04
 0.17499998E+02  0.91181E+04
 0.17549999E+02  0.12494E+05
 0.17599998E+02  0.14951E+05
 0.17650000E+02  0.16651E+05
 0.17699999E+02  0.17664E+05
 0.17749998E+02  0.18131E+05
 0.17799999E+02  0.18036E+05
 0.17849998E+02  0.17351E+05
 0.17900000E+02  0.16335E+05
 0.17949999E+02  0.14934E+05
 0.17999998E+02  0.13362E+05
 0.18049999E+02  0.11629E+05
 0.18099998E+02  0.98592E+04
 0.18150000E+02  0.79481E+04
 0.18199999E+02  0.59593E+04
 0.18249998E+02  0.39460E+04
 0.18299999E+02  0.21110E+04
 0.18349998E+02  0.85262E+03
 0.18400000E+02  0.32657E+03
 0.18449999E+02  0.96651E+03
 0.18499998E+02  0.27450E+04
 0.18549999E+02  0.53644E+04
 0.18599998E+02  0.85218E+04
 0.18650000E+02  0.12225E+05
 0.18699999E+02  0.16290E+05
 0.18749998E+02  0.20647E+05
 0.18799999E+02  0.25232E+05
 0.18849998E+02  0.29915E+05
 0.18900000E+02  0.34442E+05
 0.18949999E+02  0.38505E+05
 0.18999998E+02  0.42100E+05
 0.19049999E+02  0.45069E+05
 0.19099998E+02  0.47307E+05
 0.19150000E+02  0.48494E+05
 0.19199999E+02  0.48728E+05
 0.19249998E+02  0.48197E+05
 0.19299999E+02  0.46969E+05
 0.19349998E+02  0.44949E+05
 0.19400000E+02  0.42045E+05
 0.19449999E+02  0.38483E+05
 0.19499998E+02  0.34440E+05
 0.19549999E+02  0.30179E+05
 0.19599998E+02  0.25665E+05
 0.19650000E+02  0.21240E+05
 0.19699999E+02  0.17118E+05
 0.19749998E+02  0.13490E+05
 0.19799999E+02  0.10735E+05
 0.19849998E+02  0.87842E+04
 0.19900000E+02  0.76493E+04
 0.19949999E+02  0.73562E+04
 0.19999998E+02  0.80852E+04
 0.20049999E+02  0.95600E+04
 0.20099998E+02  0.11526E+05
 0.20150000E+02  0.13742E+05
 0.20199999E+02  0.16132E+05
 0.20249998E+02  0.18810E+05
 0.20299999E+02  0.21483E+05
 0.20349998E+02  0.23959E+05
 0.20399998E+02  0.26006E+05
 0.20449999E+02  0.27510E+05
 0.20499998E+02  0.28291E+05
 0.20549999E+02  0.28140E+05
 0.20599998E+02  0.27077E+05
 0.20649998E+02  0.25188E+05
 0.20699999E+02  0.22667E+05
 0.20749998E+02  0.19561E+05
 0.20799999E+02  0.15808E+05
 0.20849998E+02  0.11297E+05
 0.20899998E+02  0.60187E+04
 0.20949999E+02  0.18464E+03
 0.20999998E+02 -0.61022E+04
 0.21049999E+02 -0.12856E+05
 0.21099998E+02 -0.20094E+05
 0.21149998E+02 -0.27676E+05
 0.21199999E+02 -0.35369E+05
 0.21249998E+02 -0.42799E+05
 0.21299999E+02 -0.49611E+05
 0.21349998E+02 -0.55541E+05
 0.21399998E+02 -0.60475E+05
 0.21449999E+02 -0.64476E+05
 0.21499998E+02 -0.67628E+05
 0.21549999E+02 -0.69844E+05
 0.21599998E+02 -0.70963E+05
 0.21649998E+02 -0.71062E+05
 0.21699999E+02 -0.70356E+05
 0.21749998E+02 -0.68906E+05
 0.21799999E+02 -0.66630E+05
 0.21849998E+02 -0.63624E+05
 0.21899998E+02 -0.60158E+05
 0.21949999E+02 -0.56529E+05
 0.21999998E+02 -0.53079E+05
 0.22049999E+02 -0.50027E+05
 0.22099998E+02 -0.47360E+05
 0.22149998E+02 -0.44631E+05
 0.22199999E+02 -0.41462E+05
 0.22249998E+02 -0.37620E+05
 0.22299999E+02 -0.33073E+05
 0.22349998E+02 -0.27989E+05
 0.22399998E+02 -0.22281E+05
 0.22449999E+02 -0.16087E+05
 0.22499998E+02 -0.96161E+04
 0.22549999E+02 -0.29892E+04
 0.22599998E+02  0.36759E+04
 0.22649998E+02  0.10189E+05
 0.22699999E+02  0.16307E+05
 0.22749998E+02  0.21789E+05
 0.22799999E+02  0.26635E+05
 0.22849998E+02  0.30749E+05
 0.22899998E+02  0.34316E+05
 0.22949999E+02  0.37294E+05
 0.22999998E+02  0.39670E+05
 0.23049999E+02  0.41731E+05
 0.23099998E+02  0.43269E+05
 0.23149998E+02  0.44412E+05
 0.23199999E+02  0.45131E+05
 0.23249998E+02  0.45625E+05
 0.23299999E+02  0.45744E+05
 0.23349998E+02  0.45294E+05
 0.23399998E+02  0.44512E+05
 0.23449999E+02  0.43380E+05
 0.23499998E+02  0.42047E+05
 0.23549999E+02  0.40549E+05
 0.23599998E+02  0.38837E+05
 0.23649998E+02  0.36641E+05
 0.23699999E+02  0.33877E+05
 0.23749998E+02  0.30506E+05
 0.23799999E+02  0.26661E+05
 0.23849998E+02  0.22240E+05
 0.23899998E+02  0.17228E+05
 0.23949999E+02  0.11753E+05
 0.23999998E+02  0.61416E+04
 0.24049999E+02  0.98635E+03
 0.24099998E+02 -0.36097E+04
 0.24149998E+02 -0.82382E+04
 0.24199999E+02 -0.13510E+05
 0.24249998E+02 -0.18920E+05
 0.24299999E+02 -0.22520E+05
 0.24349998E+02 -0.23740E+05
 0.24399998E+02 -0.24242E+05
 0.24449999E+02 -0.28573E+05
 0.24499998E+02 -0.37998E+05
 0.24549999E+02 -0.46447E+05
 0.24599998E+02 -0.47657E+05
 0.24649998E+02 -0.42902E+05
 0.24699999E+02 -0.37524E+05
 0.24749998E+02 -0.36035E+05
 0.24799999E+02 -0.42107E+05
 0.24849998E+02 -0.52876E+05
 0.24899998E+02 -0.59103E+05
 0.24949999E+02 -0.52554E+05
 0.24999998E+02 -0.37160E+05
 0.25049999E+02 -0.26320E+05
 0.25099998E+02 -0.33917E+05
 0.25149998E+02 -0.51416E+05
 0.25199999E+02 -0.61729E+05
 0.25249998E+02 -0.50345E+05
 0.25299999E+02 -0.25081E+05
 0.25349998E+02 -0.43119E+04
 0.25399998E+02  0.93979E+04
 0.25449999E+02  0.79044E+04
 0.25499998E+02  0.27897E+04
 0.25549999E+02  0.11975E+05
 0.25599998E+02  0.30960E+05
 0.25649998E+02  0.51180E+05
 0.25699999E+02  0.62325E+05
 0.25749998E+02  0.49021E+05
 0.25799999E+02  0.36521E+05
 0.25849998E+02  0.26931E+05
 0.25899998E+02  0.28998E+05
 0.25949999E+02  0.54803E+05
 0.25999998E+02  0.69959E+05
 0.26049999E+02  0.83211E+05
 0.26099998E+02  0.76171E+05
 0.26149998E+02  0.63129E+05
 0.26199999E+02  0.55069E+05
 0.26249998E+02  0.62503E+05
 0.26299999E+02  0.85432E+05
 0.26349998E+02  0.97373E+05
 0.26399998E+02  0.92485E+05
 0.26449999E+02  0.26366E+05
 0.26499998E+02 -0.94008E+04
 0.26549999E+02  0.29405E+04
 0.26599998E+02 -0.16053E+05
 0.26649998E+02 -0.80378E+04
 0.26699999E+02  0.90475E+04
 0.26749998E+02 -0.12015E+05
 0.26799999E+02 -0.96085E+04
 0.26849998E+02  0.70295E+04
 0.26899998E+02 -0.54130E+04
 0.26949999E+02  0.12595E+05
 0.26999998E+02  0.29462E+05
 0.27049997E+02  0.40528E+04
 0.27099998E+02 -0.47126E+04
 0.27149998E+02 -0.12688E+05
 0.27199999E+02 -0.29005E+05
 0.27249998E+02  0.89421E+04
 0.27299997E+02  0.31618E+05
 0.27349998E+02  0.11892E+05
 0.27399998E+02  0.17863E+05
 0.27449999E+02 -0.69188E+03
 0.27499998E+02 -0.83681E+04
 0.27549997E+02  0.17798E+05
 0.27599998E+02  0.19340E+05
 0.27649998E+02  0.10688E+05
 0.27699999E+02 -0.30723E+04
 0.27749998E+02 -0.90620E+04
 0.27799997E+02 -0.32388E+05
 0.27849998E+02 -0.45407E+05
 0.27899998E+02 -0.19728E+05
 0.27949999E+02 -0.11073E+05
 0.27999998E+02 -0.19413E+05
 0.28049997E+02 -0.45437E+05
 0.28099998E+02 -0.31280E+05
 0.28149998E+02  0.31145E+05
 0.28199999E+02  0.88643E+05
 0.28249998E+02  0.85144E+05
 0.28299997E+02  0.64921E+05
 0.28349998E+02  0.35395E+05
 0.28399998E+02  0.19656E+05
 0.28449999E+02  0.21206E+05
 0.28499998E+02 -0.24223E+04
 0.28549997E+02 -0.11513E+05
 0.28599998E+02  0.18159E+05
 0.28649998E+02  0.42002E+05
 0.28699999E+02 -0.11184E+05
 0.28749998E+02 -0.39386E+05
 0.28799997E+02 -0.52531E+05
 0.28849998E+02 -0.57720E+05
 0.28899998E+02 -0.23355E+05
 0.28949999E+02  0.11238E+05
 0.28999998E+02 -0.78324E+04
 0.29049997E+02 -0.66916E+05
 0.29099998E+02 -0.10523E+06
 0.29149998E+02 -0.79365E+05
 0.29199999E+02 -0.70232E+03
 0.29249998E+02 -0.31153E+05
 0.29299997E+02 -0.69388E+05
 0.29349998E+02 -0.56688E+05
 0.29399998E+02 -0.68918E+05
 0.29449999E+02 -0.68615E+05
 0.29499998E+02 -0.44101E+05
 0.29549997E+02  0.22839E+04
 0.29599998E+02  0.20719E+05
 0.29649998E+02  0.22449E+03
 0.29699999E+02 -0.86083E+05
 0.29749998E+02 -0.11950E+06
 0.29799997E+02 -0.58554E+05
 0.29849998E+02 -0.27333E+05
 0.29899998E+02 -0.40691E+05
 0.29949999E+02 -0.75371E+05
 0.29999998E+02 -0.99101E+05
 0.30049999E+02 -0.74416E+05
 0.30099998E+02 -0.53301E+05
 0.30149998E+02 -0.91790E+05
 0.30199997E+02 -0.12048E+06
 0.30249996E+02 -0.10059E+06
 0.30299999E+02 -0.79299E+05
 0.30349998E+02 -0.10357E+06
 0.30399998E+02 -0.11779E+06
 0.30449997E+02 -0.11522E+06
 0.30499996E+02 -0.15489E+06
 0.30549999E+02 -0.15842E+06
 0.30599998E+02 -0.12834E+06
 0.30649998E+02 -0.12563E+06
 0.30699997E+02 -0.97736E+05
 0.30749996E+02 -0.77124E+05
 0.30799999E+02 -0.38612E+05
 0.30849998E+02 -0.18279E+05
 0.30899998E+02 -0.26660E+05
 0.30949997E+02 -0.24731E+05
 0.30999996E+02  0.14867E+05
 0.31049999E+02  0.57909E+05
 0.31099998E+02  0.49668E+05
 0.31149998E+02  0.89151E+05
 0.31199997E+02  0.63192E+05
 0.31249996E+02 -0.24226E+03
 0.31299999E+02  0.67875E+04
 0.31349998E+02  0.50128E+05
 0.31399998E+02  0.75389E+05
 0.31449997E+02  0.43578E+05
 0.31499996E+02  0.21251E+05
 0.31549999E+02  0.14511E+05
 0.31599998E+02 -0.72453E+03
 0.31649998E+02 -0.57521E+03
 0.31699997E+02  0.28921E+05
 0.31749996E+02  0.63654E+05
 0.31799999E+02  0.67664E+05
 0.31849998E+02  0.70062E+05
 0.31899998E+02  0.49127E+05
 0.31949997E+02  0.42507E+05
 0.31999996E+02  0.56230E+05
 0.32049999E+02 -0.11164E+04
 0.32099998E+02 -0.10556E+06
 0.32149998E+02 -0.15782E+06
 0.32199997E+02 -0.20216E+06
 0.32249996E+02 -0.22035E+06
 0.32299999E+02 -0.17148E+06
 0.32349998E+02 -0.12749E+06
 0.32399998E+02 -0.53580E+05
 0.32449997E+02  0.10405E+05
 0.32499996E+02  0.73430E+05
 0.32549999E+02  0.15472E+06
 0.32599998E+02  0.22211E+06
 0.32649998E+02  0.19353E+06
 0.32699997E+02  0.13376E+06
 0.32749996E+02  0.14463E+06
 0.32799999E+02  0.12622E+06
 0.32849998E+02  0.45925E+05
 0.32899998E+02 -0.11904E+05
 0.32949997E+02 -0.35599E+05
 0.32999996E+02 -0.45964E+05
 0.33049999E+02 -0.25421E+05
 0.33099998E+02  0.18566E+04
 0.33149998E+02  0.43955E+05
 0.33199997E+02  0.27860E+05
 0.33249996E+02  0.45703E+05
 0.33299999E+02  0.66482E+05
 0.33349998E+02 -0.35708E+05
 0.33399998E+02 -0.11554E+06
 0.33449997E+02 -0.10855E+06
 0.33499996E+02 -0.93194E+05
 0.33549999E+02 -0.11344E+06
 0.33599998E+02 -0.15035E+06
 0.33649998E+02 -0.17600E+06
 0.33699997E+02 -0.14296E+06
 0.33749996E+02 -0.87903E+05
 0.33799999E+02  0.69106E+04
 0.33849998E+02  0.82102E+05
 0.33899998E+02  0.10812E+06
 0.33949997E+02  0.10230E+06
 0.33999996E+02  0.15032E+06
 0.34049999E+02  0.16679E+06
 0.34099998E+02  0.72626E+05
 0.34149998E+02  0.53414E+03
 0.34199997E+02 -0.62786E+05
 0.34249996E+02 -0.94006E+05
 0.34299999E+02 -0.78496E+05
 0.34349998E+02 -0.30607E+05
 0.34399998E+02  0.42013E+05
 0.34449997E+02  0.76072E+05
 0.34499996E+02  0.80542E+05
 0.34549999E+02  0.14075E+06
 0.34599998E+02  0.15934E+06
 0.34649998E+02  0.13566E+06
 0.34699997E+02  0.13375E+06
 0.34749996E+02  0.15670E+06
 0.34799999E+02  0.20506E+06
 0.34849998E+02  0.18396E+06
 0.34899998E+02  0.13208E+06
 0.34949997E+02  0.90493E+05
 0.34999996E+02  0.51881E+05
 0.35049999E+02 -0.23484E+05
 0.35099998E+02 -0.13611E+06
 0.35149998E+02 -0.19145E+06
 0.35199997E+02 -0.18911E+06
 0.35249996E+02 -0.17539E+06
 0.35299999E+02 -0.15435E+06
 0.35349998E+02 -0.86952E+05
 0.35399998E+02 -0.25359E+05
 0.35449997E+02  0.24172E+05
 0.35499996E+02  0.99580E+05
 0.35549999E+02  0.19421E+06
 0.35599998E+02  0.25602E+06
 0.35649998E+02  0.25040E+06
 0.35699997E+02  0.19109E+06
 0.35749996E+02  0.93170E+05
 0.35799999E+02  0.51899E+05
 0.35849998E+02  0.57506E+05
 0.35899998E+02  0.91512E+05
 0.35949997E+02  0.14903E+06
 0.35999996E+02  0.18715E+06
 0.36049999E+02  0.20488E+06
 0.36099998E+02  0.17367E+06
 0.36149998E+02  0.98152E+05
 0.36199997E+02 -0.81053E+04
 0.36249996E+02 -0.69479E+05
 0.36299999E+02 -0.12933E+06
 0.36349998E+02 -0.16748E+06
 0.36399998E+02 -0.15757E+06
 0.36449997E+02 -0.20905E+06
 0.36499996E+02 -0.23663E+06
 0.36549999E+02 -0.17387E+06
 0.36599998E+02 -0.13246E+06
 0.36649998E+02 -0.10944E+06
 0.36699997E+02  0.28441E+05
 0.36749996E+02  0.17096E+06
 0.36799999E+02  0.24954E+06
 0.36849998E+02  0.29939E+06
 0.36899998E+02  0.28506E+06
 0.36949997E+02  0.24790E+06
 0.36999996E+02  0.20729E+06
 0.37049999E+02  0.17870E+06
 0.37099998E+02  0.15304E+06
 0.37149998E+02  0.98138E+05
 0.37199997E+02  0.88446E+05
 0.37249996E+02  0.30196E+05
 0.37299999E+02 -0.12269E+06
 0.37349998E+02 -0.23753E+06
 0.37399998E+02 -0.27979E+06
 0.37449997E+02 -0.23504E+06
 0.37499996E+02 -0.18586E+06
 0.37549999E+02 -0.16291E+06
 0.37599998E+02 -0.16381E+06
 0.37649998E+02 -0.16933E+06
 0.37699997E+02 -0.14476E+06
 0.37749996E+02 -0.10464E+06
 0.37799999E+02 -0.78210E+05
 0.37849998E+02 -0.10026E+06
 0.37899998E+02 -0.98391E+05
 0.37949997E+02 -0.68554E+05
 0.37999996E+02 -0.57215E+05
 0.38049999E+02 -0.63495E+05
 0.38099998E+02 -0.44494E+05
 0.38149998E+02 -0.86127E+04
 0.38199997E+02 -0.18765E+04
 0.38249996E+02  0.43980E+04
 0.38299999E+02  0.28291E+05
 0.38349998E+02  0.80101E+05
 0.38399998E+02  0.11361E+06
 0.38449997E+02  0.94018E+05
 0.38499996E+02  0.98030E+05
 0.38549999E+02  0.63709E+05
 0.38599998E+02 -0.14694E+05
 0.38649998E+02 -0.24911E+05
 0.38699997E+02 -0.57307E+05
 0.38749996E+02 -0.13493E+06
 0.38799999E+02 -0.22211E+06
 0.38849998E+02 -0.25360E+06
 0.38899998E+02 -0.19214E+06
 0.38949997E+02 -0.15371E+06
 0.38999996E+02 -0.11449E+06
 0.39049999E+02 -0.98442E+05
 0.39099998E+02 -0.99284E+05
 0.39149998E+02 -0.14215E+05
 0.39199997E+02  0.31467E+05
 0.39249996E+02 -0.29210E+05
 0.39299999E+02 -0.10777E+06
 0.39349998E+02 -0.16032E+06
 0.39399998E+02 -0.17843E+06
 0.39449997E+02 -0.18281E+06
 0.39499996E+02 -0.20636E+06
 0.39549999E+02 -0.24037E+06
 0.39599998E+02 -0.20158E+06
 0.39649998E+02 -0.97290E+05
 0.39699997E+02 -0.47384E+05
 0.39749996E+02 -0.46769E+04
 0.39799999E+02  0.54966E+05
 0.39849998E+02  0.10569E+06
 0.39899998E+02  0.13441E+06
 0.39949997E+02  0.11598E+06
 0.39999996E+02  0.80304E+05
 0.40049999E+02  0.22833E+05
 0.40099998E+02 -0.27776E+05
 0.40149998E+02 -0.65045E+05
 0.40199997E+02 -0.38787E+05
 0.40249996E+02  0.11025E+06
 0.40299999E+02  0.24898E+06
 0.40349998E+02  0.32308E+06
 0.40399998E+02  0.28519E+06
 0.40449997E+02  0.16255E+06
 0.40499996E+02  0.46396E+05
 0.40549999E+02 -0.75027E+05
 0.40599998E+02 -0.89472E+05
 0.40649998E+02 -0.47965E+05
 0.40699997E+02 -0.84891E+05
 0.40749996E+02 -0.13277E+06
 0.40799999E+02 -0.11589E+06
 0.40849998E+02 -0.29500E+05
 0.40899998E+02  0.71078E+05
 0.40949997E+02  0.17287E+06
 0.40999996E+02  0.31852E+06
 0.41049999E+02  0.37386E+06
 0.41099998E+02  0.39088E+06
 0.41149998E+02  0.41455E+06
 0.41199997E+02  0.40004E+06
 0.41249996E+02  0.33603E+06
 0.41299999E+02  0.27842E+06
 0.41349998E+02  0.31048E+06
 0.41399998E+02  0.36457E+06
 0.41449997E+02  0.39286E+06
 0.41499996E+02  0.35135E+06
 0.41549999E+02  0.36100E+06
 0.41599998E+02  0.45732E+06
 0.41649998E+02  0.50031E+06
 0.41699997E+02  0.46076E+06
 0.41749996E+02  0.43505E+06
 0.41799999E+02  0.44235E+06
 0.41849998E+02  0.41446E+06
 0.41899998E+02  0.23620E+06
 0.41949997E+02 -0.95139E+05
 0.41999996E+02 -0.40309E+06
 0.42049999E+02 -0.53560E+06
 0.42099998E+02 -0.50191E+06
 0.42149998E+02 -0.42003E+06
 0.42199997E+02 -0.32126E+06
 0.42249996E+02 -0.23859E+06
 0.42299999E+02 -0.17288E+06
 0.42349998E+02 -0.36724E+05
 0.42399998E+02  0.17027E+06
 0.42449997E+02  0.34301E+06
 0.42499996E+02  0.36495E+06
 0.42549999E+02  0.32325E+06
 0.42599998E+02  0.27709E+06
 0.42649998E+02  0.29175E+06
 0.42699997E+02  0.37918E+06
 0.42749996E+02  0.49965E+06
 0.42799995E+02  0.53057E+06
 0.42849998E+02  0.38788E+06
 0.42899998E+02  0.38023E+06
 0.42949997E+02  0.58271E+06
 0.42999996E+02  0.82473E+06
 0.43049995E+02  0.96800E+06
 0.43099998E+02  0.91950E+06
 0.43149998E+02  0.57510E+06
 0.43199997E+02  0.59088E+05
 0.43249996E+02 -0.29714E+06
 0.43299995E+02 -0.34043E+06
 0.43349998E+02 -0.22403E+06
 0.43399998E+02 -0.20880E+06
 0.43449997E+02 -0.38408E+06
 0.43499996E+02 -0.59664E+06
 0.43549995E+02 -0.71524E+06
 0.43599998E+02 -0.75006E+06
 0.43649998E+02 -0.72664E+06
 0.43699997E+02 -0.74868E+06
 0.43749996E+02 -0.79480E+06
 0.43799995E+02 -0.78181E+06
 0.43849998E+02 -0.79291E+06
 0.43899998E+02 -0.90248E+06
 0.43949997E+02 -0.98095E+06
 0.43999996E+02 -0.97782E+06
 0.44049995E+02 -0.85710E+06
 0.44099998E+02 -0.75521E+06
 0.44149998E+02 -0.74909E+06
 0.44199997E+02 -0.95174E+06
 0.44249996E+02 -0.10908E+07
 0.44299995E+02 -0.68253E+06
 0.44349998E+02 -0.11684E+06
 0.44399998E+02  0.26633E+06
 0.44449997E+02  0.31723E+06
 0.44499996E+02  0.44886E+05
 0.44549995E+02 -0.66054E+05
 0.44599998E+02  0.49569E+05
 0.44649998E+02  0.19106E+06
 0.44699997E+02  0.38508E+06
 0.44749996E+02  0.59305E+06
 0.44799995E+02  0.73118E+06
 0.44849998E+02  0.63924E+06
 0.44899998E+02  0.38471E+06
 0.44949997E+02  0.15081E+06
 0.44999996E+02 -0.84267E+04
 0.45049995E+02 -0.18655E+06
 0.45099998E+02 -0.53017E+06
 0.45149998E+02 -0.10126E+07
 0.45199997E+02 -0.12513E+07
 0.45249996E+02 -0.11395E+07
 0.45299995E+02 -0.83404E+06
 0.45349998E+02 -0.60734E+06
 0.45399998E+02 -0.61123E+06
 0.45449997E+02 -0.70247E+06
 0.45499996E+02 -0.72363E+06
 0.45549995E+02 -0.70811E+06
 0.45599998E+02 -0.70563E+06
 0.45649998E+02 -0.66373E+06
 0.45699997E+02 -0.40283E+06
 0.45749996E+02 -0.18879E+05
 0.45799995E+02  0.30393E+06
 0.45849998E+02  0.61204E+06
 0.45899998E+02  0.64970E+06
 0.45949997E+02  0.65357E+06
 0.45999996E+02  0.59239E+06
 0.46049995E+02  0.56787E+06
 0.46099998E+02  0.62043E+06
 0.46149998E+02  0.51976E+06
 0.46199997E+02  0.50127E+06
 0.46249996E+02  0.78682E+06
 0.46299995E+02  0.12177E+07
 0.46349998E+02  0.13871E+07
 0.46399998E+02  0.14239E+07
 0.46449997E+02  0.12682E+07
 0.46499996E+02  0.10566E+07
 0.46549995E+02  0.98993E+06
 0.46599998E+02  0.11004E+07
 0.46649998E+02  0.12873E+07
 0.46699997E+02  0.13554E+07
 0.46749996E+02  0.12990E+07
 0.46799995E+02  0.90753E+06
 0.46849998E+02  0.36358E+06
 0.46899998E+02  0.10916E+06
 0.46949997E+02  0.11106E+06
 0.46999996E+02  0.22720E+06
 0.47049995E+02  0.37053E+06
 0.47099998E+02  0.32853E+06
 0.47149998E+02  0.27208E+06
 0.47199997E+02  0.30494E+06
 0.47249996E+02  0.33868E+06
 0.47299995E+02  0.34119E+06
 0.47349998E+02  0.40826E+06
 0.47399998E+02  0.50295E+06
 0.47449997E+02  0.60378E+06
 0.47499996E+02  0.64317E+06
 0.47549995E+02  0.54246E+06
 0.47599998E+02  0.40868E+06
 0.47649998E+02  0.50282E+06
 0.47699997E+02  0.86492E+06
 0.47749996E+02  0.11533E+07
 0.47799995E+02  0.14008E+07
 0.47849998E+02  0.12945E+07
 0.47899998E+02  0.83605E+06
 0.47949997E+02  0.31724E+06
 0.47999996E+02 -0.82996E+05
 0.48049995E+02 -0.25009E+06
 0.48099998E+02 -0.43176E+06
 0.48149998E+02 -0.71430E+06
 0.48199997E+02 -0.88863E+06
 0.48249996E+02 -0.93977E+06
 0.48299995E+02 -0.11021E+07
 0.48349998E+02 -0.12450E+07
 0.48399998E+02 -0.12571E+07
 0.48449997E+02 -0.12681E+07
 0.48499996E+02 -0.13297E+07
 0.48549995E+02 -0.11505E+07
 0.48599998E+02 -0.98628E+06
 0.48649998E+02 -0.10129E+07
 0.48699997E+02 -0.11385E+07
 0.48749996E+02 -0.14954E+07
 0.48799995E+02 -0.18327E+07
 0.48849998E+02 -0.17753E+07
 0.48899998E+02 -0.14186E+07
 0.48949997E+02 -0.10888E+07
 0.48999996E+02 -0.85277E+06
 0.49049995E+02 -0.66023E+06
 0.49099998E+02 -0.43431E+06
 0.49149998E+02 -0.21105E+06
 0.49199997E+02 -0.79434E+05
 0.49249996E+02 -0.38730E+05
 0.49299995E+02  0.10762E+06
 0.49349998E+02  0.23451E+06
 0.49399998E+02  0.20627E+06
 0.49449997E+02  0.64144E+05
 0.49499996E+02 -0.90871E+05
 0.49549995E+02 -0.10531E+06
 0.49599998E+02 -0.78563E+05
 0.49649998E+02 -0.89513E+05
 0.49699997E+02 -0.80542E+04
 0.49749996E+02  0.15673E+05
 0.49799995E+02 -0.22729E+06
 0.49849998E+02 -0.70084E+06
 0.49899998E+02 -0.12115E+07
 0.49949997E+02 -0.15687E+07
 0.49999996E+02 -0.16859E+07
 0.50049995E+02 -0.16064E+07
 0.50099998E+02 -0.15299E+07
 0.50149998E+02 -0.15552E+07
 0.50199997E+02 -0.17030E+07
 0.50249996E+02 -0.17692E+07
 0.50299995E+02 -0.17792E+07
 0.50349998E+02 -0.16398E+07
 0.50399998E+02 -0.12395E+07
 0.50449997E+02 -0.72977E+06
 0.50499996E+02 -0.18900E+06
 0.50549995E+02  0.15909E+06
 0.50599998E+02  0.26776E+06
 0.50649998E+02  0.31968E+06
 0.50699997E+02  0.40326E+06
 0.50749996E+02  0.65921E+06
 0.50799995E+02  0.11073E+07
 0.50849998E+02  0.14564E+07
 0.50899998E+02  0.16162E+07
 0.50949997E+02  0.16173E+07
 0.50999996E+02  0.15716E+07
 0.51049995E+02  0.16377E+07
 0.51099998E+02  0.17918E+07
 0.51149998E+02  0.18643E+07
 0.51199997E+02  0.17672E+07
 0.51249996E+02  0.15239E+07
 0.51299995E+02  0.12092E+07
 0.51349998E+02  0.82610E+06
 0.51399998E+02  0.50066E+06
 0.51449997E+02  0.43739E+06
 0.51499996E+02  0.52026E+06
 0.51549995E+02  0.49374E+06
 0.51599998E+02  0.30427E+06
 0.51649998E+02  0.15639E+06
 0.51699997E+02  0.29277E+05
 0.51749996E+02 -0.11073E+06
 0.51799995E+02 -0.19385E+06
 0.51849998E+02 -0.20660E+06
 0.51899998E+02 -0.25815E+06
 0.51949997E+02 -0.39018E+06
 0.51999996E+02 -0.46263E+06
 0.52049995E+02 -0.45067E+06
 0.52099998E+02 -0.35897E+06
 0.52149998E+02 -0.28276E+06
 0.52199997E+02 -0.13771E+06
 0.52249996E+02  0.24464E+04
 0.52299995E+02  0.83278E+05
 0.52349998E+02  0.21838E+06
 0.52399998E+02  0.36485E+06
 0.52449997E+02  0.59299E+06
 0.52499996E+02  0.75860E+06
 0.52549995E+02  0.82973E+06
 0.52599998E+02  0.84287E+06
 0.52649998E+02  0.73397E+06
 0.52699997E+02  0.63815E+06
 0.52749996E+02  0.61486E+06
 0.52799995E+02  0.61321E+06
 0.52849998E+02  0.59755E+06
 0.52899998E+02  0.60149E+06
 0.52949997E+02  0.51034E+06
 0.52999996E+02  0.42866E+06
 0.53049995E+02  0.48542E+06
 0.53099998E+02  0.47110E+06
 0.53149998E+02  0.41160E+06
 0.53199997E+02  0.31129E+06
 0.53249996E+02  0.10882E+06
 0.53299995E+02 -0.18018E+06
 0.53349998E+02 -0.38094E+06
 0.53399998E+02 -0.38507E+06
 0.53449997E+02 -0.27812E+06
 0.53499996E+02 -0.18867E+06
 0.53549995E+02 -0.13405E+06
 0.53599998E+02 -0.12507E+05
 0.53649998E+02  0.15265E+06
 0.53699997E+02  0.36660E+06
 0.53749996E+02  0.57315E+06
 0.53799995E+02  0.65161E+06
 0.53849998E+02  0.60413E+06
 0.53899998E+02  0.54686E+06
 0.53949997E+02  0.52471E+06
 0.53999996E+02  0.56716E+06
 0.54049995E+02  0.66180E+06
 0.54099998E+02  0.71431E+06
 0.54149998E+02  0.73832E+06
 0.54199997E+02  0.75787E+06
 0.54249996E+02  0.80016E+06
 0.54299995E+02  0.75741E+06
 0.54349998E+02  0.56341E+06
 0.54399998E+02  0.34475E+06
 0.54449997E+02  0.86866E+05
 0.54499996E+02 -0.13022E+06
 0.54549995E+02 -0.24369E+06
 0.54599998E+02 -0.29416E+06
 0.54649998E+02 -0.25512E+06
 0.54699997E+02 -0.24131E+06
 0.54749996E+02 -0.24563E+06
 0.54799995E+02 -0.22898E+06
 0.54849998E+02 -0.15031E+06
 0.54899998E+02 -0.28560E+05
 0.54949997E+02  0.88940E+05
 0.54999996E+02  0.24625E+06
 0.55049995E+02  0.27776E+06
 0.55099998E+02  0.20418E+06
 0.55149998E+02  0.13789E+06
 0.55199997E+02  0.91312E+05
 0.55249996E+02  0.97637E+05
 0.55299995E+02  0.11767E+06
 0.55349998E+02  0.17715E+05
 0.55399998E+02 -0.17311E+06
 0.55449997E+02 -0.27536E+06
 0.55499996E+02 -0.21846E+06
 0.55549995E+02 -0.16157E+06
 0.55599998E+02 -0.21133E+06
 0.55649998E+02 -0.27269E+06
 0.55699997E+02 -0.39796E+06
 0.55749996E+02 -0.56380E+06
 0.55799995E+02 -0.69027E+06
 0.55849995E+02 -0.66914E+06
 0.55899998E+02 -0.57934E+06
 0.55949997E+02 -0.57940E+06
 0.55999996E+02 -0.59213E+06
 0.56049995E+02 -0.49430E+06
 0.56099995E+02 -0.35265E+06
 0.56149998E+02 -0.30355E+06
 0.56199997E+02 -0.30096E+06
 0.56249996E+02 -0.28588E+06
 0.56299995E+02 -0.24140E+06
 0.56349995E+02 -0.23274E+06
 0.56399998E+02 -0.29601E+06
 0.56449997E+02 -0.32502E+06
 0.56499996E+02 -0.20987E+06
 0.56549995E+02 -0.41562E+05
 0.56599995E+02  0.47265E+05
 0.56649998E+02  0.30339E+05
 0.56699997E+02 -0.79039E+05
 0.56749996E+02 -0.24273E+06
 0.56799995E+02 -0.41118E+06
 0.56849995E+02 -0.55004E+06
 0.56899998E+02 -0.62251E+06
 0.56949997E+02 -0.61744E+06
 0.56999996E+02 -0.65033E+06
 0.57049995E+02 -0.74995E+06
 0.57099995E+02 -0.83786E+06
 0.57149998E+02 -0.91015E+06
 0.57199997E+02 -0.88774E+06
 0.57249996E+02 -0.81390E+06
 0.57299995E+02 -0.75917E+06
 0.57349995E+02 -0.71570E+06
 0.57399998E+02 -0.67324E+06
 0.57449997E+02 -0.58706E+06
 0.57499996E+02 -0.55814E+06
 0.57549995E+02 -0.57565E+06
 0.57599995E+02 -0.51772E+06
 0.57649998E+02 -0.40665E+06
 0.57699997E+02 -0.32064E+06
 0.57749996E+02 -0.26274E+06
 0.57799995E+02 -0.15197E+06
 0.57849995E+02 -0.52746E+04
 0.57899998E+02  0.14579E+06
 0.57949997E+02  0.28021E+06
 0.57999996E+02  0.31594E+06
 0.58049995E+02  0.31683E+06
 0.58099995E+02  0.40801E+06
 0.58149998E+02  0.54894E+06
 0.58199997E+02  0.67782E+06
 0.58249996E+02  0.81143E+06
 0.58299995E+02  0.80523E+06
 0.58349995E+02  0.65288E+06
 0.58399998E+02  0.46818E+06
 0.58449997E+02  0.27562E+06
 0.58499996E+02  0.88042E+05
 0.58549995E+02 -0.18631E+06
 0.58599995E+02 -0.54186E+06
 0.58649998E+02 -0.86776E+06
 0.58699997E+02 -0.11370E+07
 0.58749996E+02 -0.13095E+07
 0.58799995E+02 -0.13085E+07
 0.58849995E+02 -0.11475E+07
 0.58899998E+02 -0.94327E+06
 0.58949997E+02 -0.84887E+06
 0.58999996E+02 -0.88481E+06
 0.59049995E+02 -0.93161E+06
 0.59099995E+02 -0.95753E+06
 0.59149998E+02 -0.96912E+06
 0.59199997E+02 -0.95724E+06
 0.59249996E+02 -0.88748E+06
 0.59299995E+02 -0.67779E+06
 0.59349995E+02 -0.37796E+06
 0.59399998E+02 -0.37667E+05
 0.59449997E+02  0.21582E+06
 0.59499996E+02  0.29180E+06
 0.59549995E+02  0.23888E+06
 0.59599995E+02  0.12403E+06
 0.59649998E+02  0.70117E+05
 0.59699997E+02  0.44172E+05
 0.59749996E+02  0.82456E+04
 0.59799995E+02 -0.57907E+05
 0.59849995E+02 -0.15424E+06
 0.59899998E+02 -0.25664E+06
 0.59949997E+02 -0.39407E+06
 0.59999996E+02 -0.47136E+06
 0.60049995E+02 -0.39465E+06
 0.60099995E+02 -0.23433E+06
 0.60149998E+02 -0.76916E+05
 0.60199997E+02 -0.57478E+04
 0.60249996E+02 -0.19660E+05
 0.60299995E+02 -0.36177E+05
 0.60349995E+02 -0.58537E+05
 0.60399998E+02 -0.10019E+06
 0.60449997E+02 -0.12259E+06
 0.60499996E+02 -0.76784E+05
 0.60549995E+02  0.16891E+05
 0.60599995E+02  0.13896E+06
 0.60649998E+02  0.29378E+06
 0.60699997E+02  0.51273E+06
 0.60749996E+02  0.79085E+06
 0.60799995E+02  0.10442E+07
 0.60849995E+02  0.12003E+07
 0.60899998E+02  0.12431E+07
 0.60949997E+02  0.12120E+07
 0.60999996E+02  0.11484E+07
 0.61049995E+02  0.11030E+07
 0.61099995E+02  0.11076E+07
 0.61149998E+02  0.11312E+07
 0.61199997E+02  0.11045E+07
 0.61249996E+02  0.99208E+06
 0.61299995E+02  0.81652E+06
 0.61349995E+02  0.60844E+06
 0.61399998E+02  0.41848E+06
 0.61449997E+02  0.29224E+06
 0.61499996E+02  0.18948E+06
 0.61549995E+02  0.95968E+05
 0.61599995E+02  0.75340E+05
 0.61649998E+02  0.11837E+06
 0.61699997E+02  0.18772E+06
 0.61749996E+02  0.24755E+06
 0.61799995E+02  0.28911E+06
 0.61849995E+02  0.33937E+06
 0.61899998E+02  0.38984E+06
 0.61949997E+02  0.49555E+06
 0.61999996E+02  0.69743E+06
 0.62049995E+02  0.87452E+06
 0.62099998E+02  0.94645E+06
 0.62149994E+02  0.97539E+06
 0.62199997E+02  0.98243E+06
 0.62249992E+02  0.95676E+06
 0.62299995E+02  0.86983E+06
 0.62349998E+02  0.72667E+06
 0.62399994E+02  0.67396E+06
 0.62449997E+02  0.72973E+06
 0.62499992E+02  0.79728E+06
 0.62549995E+02  0.84629E+06
 0.62599998E+02  0.87810E+06
 0.62649994E+02  0.88464E+06
 0.62699997E+02  0.84156E+06
 0.62749992E+02  0.78973E+06
 0.62799995E+02  0.70181E+06
 0.62849998E+02  0.55093E+06
 0.62899994E+02  0.32711E+06
 0.62949997E+02  0.37674E+05
 0.62999992E+02 -0.24650E+06
 0.63049995E+02 -0.47040E+06
 0.63099998E+02 -0.64845E+06
 0.63149994E+02 -0.82012E+06
 0.63199997E+02 -0.91416E+06
 0.63249992E+02 -0.92256E+06
 0.63299995E+02 -0.90165E+06
 0.63349998E+02 -0.86841E+06
 0.63399994E+02 -0.80789E+06
 0.63449997E+02 -0.74212E+06
 0.63499992E+02 -0.67254E+06
 0.63549995E+02 -0.57544E+06
 0.63599998E+02 -0.50994E+06
 0.63649994E+02 -0.44568E+06
 0.63699997E+02 -0.35561E+06
 0.63749992E+02 -0.24185E+06
 0.63799995E+02 -0.12293E+06
 0.63849998E+02 -0.40726E+05
 0.63899994E+02  0.41893E+05
 0.63949997E+02  0.79462E+05
 0.63999992E+02  0.25512E+05
 0.64049995E+02 -0.10775E+06
 0.64099998E+02 -0.27784E+06
 0.64149994E+02 -0.37697E+06
 0.64199997E+02 -0.36161E+06
 0.64249992E+02 -0.30717E+06
 0.64299995E+02 -0.28781E+06
 0.64349998E+02 -0.30142E+06
 0.64399994E+02 -0.34830E+06
 0.64449997E+02 -0.43791E+06
 0.64499992E+02 -0.52571E+06
 0.64549995E+02 -0.57072E+06
 0.64599998E+02 -0.58153E+06
 0.64649994E+02 -0.61415E+06
 0.64699997E+02 -0.68135E+06
 0.64749992E+02 -0.74515E+06
 0.64799995E+02 -0.76548E+06
 0.64849998E+02 -0.72762E+06
 0.64899994E+02 -0.65131E+06
 0.64949997E+02 -0.52930E+06
 0.64999992E+02 -0.38513E+06
 0.65049995E+02 -0.26187E+06
 0.65099998E+02 -0.16286E+06
 0.65149994E+02 -0.10552E+05
 0.65199997E+02  0.20724E+06
 0.65249992E+02  0.41728E+06
 0.65299995E+02  0.57772E+06
 0.65349998E+02  0.65379E+06
 0.65399994E+02  0.59310E+06
 0.65449997E+02  0.43146E+06
 0.65499992E+02  0.23445E+06
 0.65549995E+02  0.67696E+04
 0.65599998E+02 -0.18253E+06
 0.65649994E+02 -0.31636E+06
 0.65699997E+02 -0.40493E+06
 0.65749992E+02 -0.46954E+06
 0.65799995E+02 -0.53766E+06
 0.65849998E+02 -0.58725E+06
 0.65899994E+02 -0.61733E+06
 0.65949997E+02 -0.59898E+06
 0.65999992E+02 -0.49705E+06
 0.66049995E+02 -0.35754E+06
 0.66099998E+02 -0.27154E+06
 0.66149994E+02 -0.25466E+06
 0.66199997E+02 -0.30702E+06
 0.66249992E+02 -0.41365E+06
 0.66299995E+02 -0.52180E+06
 0.66349998E+02 -0.61070E+06
 0.66399994E+02 -0.71196E+06
 0.66449997E+02 -0.80966E+06
 0.66499992E+02 -0.83141E+06
 0.66549995E+02 -0.74159E+06
 0.66599998E+02 -0.61156E+06
 0.66649994E+02 -0.50302E+06
 0.66699997E+02 -0.34137E+06
 0.66749992E+02 -0.13831E+06
 0.66799995E+02  0.60852E+05
 0.66849998E+02  0.23928E+06
 0.66899994E+02  0.41959E+06
 0.66949997E+02  0.60549E+06
 0.66999992E+02  0.74312E+06
 0.67049995E+02  0.81402E+06
 0.67099998E+02  0.84161E+06
 0.67149994E+02  0.84681E+06
 0.67199997E+02  0.81450E+06
 0.67249992E+02  0.73755E+06
 0.67299995E+02  0.63271E+06
 0.67349998E+02  0.51927E+06
 0.67399994E+02  0.43952E+06
 0.67449997E+02  0.41634E+06
 0.67499992E+02  0.42142E+06
 0.67549995E+02  0.43858E+06
 0.67599998E+02  0.40022E+06
 0.67649994E+02  0.28900E+06
 0.67699997E+02  0.14370E+06
 0.67749992E+02  0.22673E+05
 0.67799995E+02 -0.61087E+05
 0.67849998E+02 -0.11476E+06
 0.67899994E+02 -0.10976E+06
 0.67949997E+02 -0.75667E+05
 0.67999992E+02 -0.36498E+05
 0.68049995E+02  0.11772E+05
 0.68099998E+02  0.86652E+05
 0.68149994E+02  0.17020E+06
 0.68199997E+02  0.23491E+06
 0.68249992E+02  0.27576E+06
 0.68299995E+02  0.30625E+06
 0.68349998E+02  0.31583E+06
 0.68399994E+02  0.26746E+06
 0.68449997E+02  0.19385E+06
 0.68499992E+02  0.17658E+06
 0.68549995E+02  0.24324E+06
 0.68599998E+02  0.35357E+06
 0.68649994E+02  0.49998E+06
 0.68699997E+02  0.65810E+06
 0.68749992E+02  0.80390E+06
 0.68799995E+02  0.93188E+06
 0.68849998E+02  0.10137E+07
 0.68899994E+02  0.10187E+07
 0.68949997E+02  0.93397E+06
 0.68999992E+02  0.76836E+06
 0.69049995E+02  0.53836E+06
 0.69099998E+02  0.31724E+06
 0.69149994E+02  0.13704E+06
 0.69199997E+02 -0.21036E+05
 0.69249992E+02 -0.14617E+06
 0.69299995E+02 -0.22283E+06
 0.69349998E+02 -0.27556E+06
 0.69399994E+02 -0.31651E+06
 0.69449997E+02 -0.37582E+06
 0.69499992E+02 -0.44795E+06
 0.69549995E+02 -0.49140E+06
 0.69599998E+02 -0.50002E+06
 0.69649994E+02 -0.46352E+06
 0.69699997E+02 -0.37707E+06
 0.69749992E+02 -0.24555E+06
 0.69799995E+02 -0.11780E+06
 0.69849998E+02 -0.10746E+05
 0.69899994E+02  0.78756E+05
 0.69949997E+02  0.16089E+06
 0.69999992E+02  0.24836E+06
 0.70049995E+02  0.32078E+06
 0.70099998E+02  0.34719E+06
 0.70149994E+02  0.33295E+06
 0.70199997E+02  0.28423E+06
 0.70249992E+02  0.22167E+06
 0.70299995E+02  0.18988E+06
 0.70349998E+02  0.19550E+06
 0.70399994E+02  0.23650E+06
 0.70449997E+02  0.28446E+06
 0.70499992E+02  0.30743E+06
 0.70549995E+02  0.30369E+06
 0.70599998E+02  0.27757E+06
 0.70649994E+02  0.22409E+06
 0.70699997E+02  0.17171E+06
 0.70749992E+02  0.12727E+06
 0.70799995E+02  0.66114E+05
 0.70849998E+02 -0.73353E+04
 0.70899994E+02 -0.10560E+06
 0.70949997E+02 -0.24187E+06
 0.70999992E+02 -0.41803E+06
 0.71049995E+02 -0.62665E+06
 0.71099998E+02 -0.81960E+06
 0.71149994E+02 -0.94755E+06
 0.71199997E+02 -0.99607E+06
 0.71249992E+02 -0.99378E+06
 0.71299995E+02 -0.97916E+06
 0.71349998E+02 -0.97764E+06
 0.71399994E+02 -0.99579E+06
 0.71449997E+02 -0.10008E+07
 0.71499992E+02 -0.96025E+06
 0.71549995E+02 -0.84802E+06
 0.71599998E+02 -0.67613E+06
 0.71649994E+02 -0.50802E+06
 0.71699997E+02 -0.37891E+06
 0.71749992E+02 -0.28361E+06
 0.71799995E+02 -0.21037E+06
 0.71849998E+02 -0.13010E+06
 0.71899994E+02 -0.18726E+05
 0.71949997E+02  0.10670E+06
 0.71999992E+02  0.21908E+06
 0.72049995E+02  0.28759E+06
 0.72099998E+02  0.28645E+06
 0.72149994E+02  0.23117E+06
 0.72199997E+02  0.15949E+06
 0.72249992E+02  0.11343E+06
 0.72299995E+02  0.12733E+06
 0.72349998E+02  0.19520E+06
 0.72399994E+02  0.27456E+06
 0.72449997E+02  0.30929E+06
 0.72499992E+02  0.27667E+06
 0.72549995E+02  0.21919E+06
 0.72599998E+02  0.17666E+06
 0.72649994E+02  0.16498E+06
 0.72699997E+02  0.20149E+06
 0.72749992E+02  0.25945E+06
 0.72799995E+02  0.27819E+06
 0.72849998E+02  0.25505E+06
 0.72899994E+02  0.21148E+06
 0.72949997E+02  0.16112E+06
 0.72999992E+02  0.13134E+06
 0.73049995E+02  0.13018E+06
 0.73099998E+02  0.15284E+06
 0.73149994E+02  0.18483E+06
 0.73199997E+02  0.19895E+06
 0.73249992E+02  0.18846E+06
 0.73299995E+02  0.19043E+06
 0.73349998E+02  0.24823E+06
 0.73399994E+02  0.35559E+06
 0.73449997E+02  0.43179E+06
 0.73499992E+02  0.41964E+06
 0.73549995E+02  0.33398E+06
 0.73599998E+02  0.19402E+06
 0.73649994E+02  0.34897E+05
 0.73699997E+02 -0.10219E+06
 0.73749992E+02 -0.21390E+06
 0.73799995E+02 -0.29628E+06
 0.73849998E+02 -0.32588E+06
 0.73899994E+02 -0.31720E+06
 0.73949997E+02 -0.29128E+06
 0.73999992E+02 -0.24622E+06
 0.74049995E+02 -0.18557E+06
 0.74099998E+02 -0.12553E+06
 0.74149994E+02 -0.10009E+06
 0.74199997E+02 -0.11322E+06
 0.74249992E+02 -0.13491E+06
 0.74299995E+02 -0.14030E+06
 0.74349998E+02 -0.13980E+06
 0.74399994E+02 -0.16481E+06
 0.74449997E+02 -0.19615E+06
 0.74499992E+02 -0.18430E+06
 0.74549995E+02 -0.13955E+06
 0.74599998E+02 -0.81512E+05
 0.74649994E+02 -0.45461E+04
 0.74699997E+02  0.81300E+05
 0.74749992E+02  0.13740E+06
 0.74799995E+02  0.17321E+06
 0.74849998E+02  0.21226E+06
 0.74899994E+02  0.23633E+06
 0.74949997E+02  0.25033E+06
 0.74999992E+02  0.26117E+06
 0.75049995E+02  0.28171E+06
 0.75099998E+02  0.29372E+06
 0.75149994E+02  0.26837E+06
 0.75199997E+02  0.17376E+06
 0.75249992E+02  0.16435E+05
 0.75299995E+02 -0.15901E+06
 0.75349998E+02 -0.30641E+06
 0.75399994E+02 -0.38949E+06
 0.75449997E+02 -0.38095E+06
 0.75499992E+02 -0.25806E+06
 0.75549995E+02 -0.77205E+05
 0.75599998E+02  0.72596E+05
 0.75649994E+02  0.14833E+06
 0.75699997E+02  0.15482E+06
 0.75749992E+02  0.12583E+06
 0.75799995E+02  0.93973E+05
 0.75849998E+02  0.56742E+05
 0.75899994E+02  0.19186E+05
 0.75949997E+02 -0.22215E+05
 0.75999992E+02 -0.69716E+05
 0.76049995E+02 -0.13101E+06
 0.76099998E+02 -0.18265E+06
 0.76149994E+02 -0.19039E+06
 0.76199997E+02 -0.16211E+06
 0.76249992E+02 -0.98034E+05
 0.76299995E+02 -0.16667E+05
 0.76349998E+02  0.81501E+05
 0.76399994E+02  0.18262E+06
 0.76449997E+02  0.24406E+06
 0.76499992E+02  0.24919E+06
 0.76549995E+02  0.22296E+06
 0.76599998E+02  0.19566E+06
 0.76649994E+02  0.17250E+06
 0.76699997E+02  0.15791E+06
 0.76749992E+02  0.13660E+06
 0.76799995E+02  0.93349E+05
 0.76849998E+02  0.36482E+05
 0.76899994E+02 -0.35142E+05
 0.76949997E+02 -0.12593E+06
 0.76999992E+02 -0.23421E+06
 0.77049995E+02 -0.34885E+06
 0.77099998E+02 -0.45282E+06
 0.77149994E+02 -0.52066E+06
 0.77199997E+02 -0.52383E+06
 0.77249992E+02 -0.46259E+06
 0.77299995E+02 -0.36648E+06
 0.77349998E+02 -0.25459E+06
 0.77399994E+02 -0.12324E+06
 0.77449997E+02  0.26337E+05
 0.77499992E+02  0.15618E+06
 0.77549995E+02  0.23172E+06
 0.77599998E+02  0.26777E+06
 0.77649994E+02  0.29429E+06
 0.77699997E+02  0.32639E+06
 0.77749992E+02  0.37293E+06
 0.77799995E+02  0.42067E+06
 0.77849998E+02  0.43966E+06
 0.77899994E+02  0.42270E+06
 0.77949997E+02  0.37073E+06
 0.77999992E+02  0.28511E+06
 0.78049995E+02  0.19811E+06
 0.78099998E+02  0.14980E+06
 0.78149994E+02  0.15562E+06
 0.78199997E+02  0.20862E+06
 0.78249992E+02  0.27991E+06
 0.78299995E+02  0.34979E+06
 0.78349998E+02  0.39529E+06
 0.78399994E+02  0.41286E+06
 0.78449997E+02  0.42428E+06
 0.78499992E+02  0.43313E+06
 0.78549995E+02  0.42823E+06
 0.78599998E+02  0.38787E+06
 0.78649994E+02  0.29897E+06
 0.78699997E+02  0.17038E+06
 0.78749992E+02  0.33486E+05
 0.78799995E+02 -0.80941E+05
 0.78849998E+02 -0.15456E+06
 0.78899994E+02 -0.17273E+06
 0.78949997E+02 -0.14523E+06
 0.78999992E+02 -0.10111E+06
 0.79049995E+02 -0.67887E+05
 0.79099998E+02 -0.67343E+05
 0.79149994E+02 -0.97015E+05
 0.79199997E+02 -0.14082E+06
 0.79249992E+02 -0.19662E+06
 0.79299995E+02 -0.25396E+06
 0.79349998E+02 -0.30460E+06
 0.79399994E+02 -0.35543E+06
 0.79449997E+02 -0.40904E+06
 0.79499992E+02 -0.45885E+06
 0.79549995E+02 -0.48131E+06
 0.79599998E+02 -0.46553E+06
 0.79649994E+02 -0.41808E+06
 0.79699997E+02 -0.33454E+06
 0.79749992E+02 -0.22888E+06
 0.79799995E+02 -0.12168E+06
 0.79849998E+02 -0.18867E+05
 0.79899994E+02  0.69090E+05
 0.79949997E+02  0.11406E+06
 0.79999992E+02  0.11154E+06
 0.80049995E+02  0.96075E+05
 0.80099998E+02  0.77853E+05
 0.80149994E+02  0.46514E+05
 0.80199997E+02  0.37079E+03
 0.80249992E+02 -0.47583E+05
 0.80299995E+02 -0.98906E+05
 0.80349998E+02 -0.15260E+06
 0.80399994E+02 -0.19380E+06
 0.80449997E+02 -0.21953E+06
 0.80499992E+02 -0.23479E+06
 0.80549995E+02 -0.24622E+06
 0.80599998E+02 -0.24386E+06
 0.80649994E+02 -0.23742E+06
 0.80699997E+02 -0.26399E+06
 0.80749992E+02 -0.33191E+06
 0.80799995E+02 -0.41129E+06
 0.80849998E+02 -0.43769E+06
 0.80899994E+02 -0.37662E+06
 0.80949997E+02 -0.25393E+06
 0.80999992E+02 -0.99197E+05
 0.81049995E+02  0.52502E+05
 0.81099998E+02  0.17560E+06
 0.81149994E+02  0.24835E+06
 0.81199997E+02  0.26511E+06
 0.81249992E+02  0.24205E+06
 0.81299995E+02  0.20805E+06
 0.81349998E+02  0.18693E+06
 0.81399994E+02  0.18407E+06
 0.81449997E+02  0.20052E+06
 0.81499992E+02  0.21641E+06
 0.81549995E+02  0.20879E+06
 0.81599998E+02  0.17034E+06
 0.81649994E+02  0.10605E+06
 0.81699997E+02  0.28516E+05
 0.81749992E+02 -0.50239E+05
 0.81799995E+02 -0.12116E+06
 0.81849998E+02 -0.17355E+06
 0.81899994E+02 -0.22397E+06
 0.81949997E+02 -0.29683E+06
 0.81999992E+02 -0.38504E+06
 0.82049995E+02 -0.46557E+06
 0.82099998E+02 -0.53024E+06
 0.82149994E+02 -0.56739E+06
 0.82199997E+02 -0.55607E+06
 0.82249992E+02 -0.49307E+06
 0.82299995E+02 -0.40547E+06
 0.82349998E+02 -0.32820E+06
 0.82399994E+02 -0.26802E+06
 0.82449997E+02 -0.22222E+06
 0.82499992E+02 -0.18021E+06
 0.82549995E+02 -0.13335E+06
 0.82599998E+02 -0.85302E+05
 0.82649994E+02 -0.51497E+05
 0.82699997E+02 -0.31957E+05
 0.82749992E+02 -0.14427E+05
 0.82799995E+02  0.93159E+04
 0.82849998E+02  0.40858E+05
 0.82899994E+02  0.65495E+05
 0.82949997E+02  0.61337E+05
 0.82999992E+02  0.16428E+05
 0.83049995E+02 -0.53735E+05
 0.83099998E+02 -0.14151E+06
 0.83149994E+02 -0.23574E+06
 0.83199997E+02 -0.32176E+06
 0.83249992E+02 -0.38994E+06
 0.83299995E+02 -0.43844E+06
 0.83349998E+02 -0.47638E+06
 0.83399994E+02 -0.50014E+06
 0.83449997E+02 -0.51433E+06
 0.83499992E+02 -0.50551E+06
 0.83549995E+02 -0.44017E+06
 0.83599998E+02 -0.32341E+06
 0.83649994E+02 -0.18040E+06
 0.83699997E+02 -0.39408E+05
 0.83749992E+02  0.82010E+05
 0.83799995E+02  0.17247E+06
 0.83849998E+02  0.23059E+06
 0.83899994E+02  0.28402E+06
 0.83949997E+02  0.34514E+06
 0.83999992E+02  0.42056E+06
 0.84049995E+02  0.50711E+06
 0.84099998E+02  0.58185E+06
 0.84149994E+02  0.62134E+06
 0.84199997E+02  0.61639E+06
 0.84249992E+02  0.57848E+06
 0.84299995E+02  0.52182E+06
 0.84349998E+02  0.45655E+06
 0.84399994E+02  0.39072E+06
 0.84449997E+02  0.32721E+06
 0.84499992E+02  0.26620E+06
 0.84549995E+02  0.22154E+06
 0.84599998E+02  0.19617E+06
 0.84649994E+02  0.19859E+06
 0.84699997E+02  0.22786E+06
 0.84749992E+02  0.26269E+06
 0.84799995E+02  0.29491E+06
 0.84849998E+02  0.32323E+06
 0.84899994E+02  0.34852E+06
 0.84949997E+02  0.37008E+06
 0.84999992E+02  0.39954E+06
 0.85049995E+02  0.43502E+06
 0.85099998E+02  0.47639E+06
 0.85149994E+02  0.52991E+06
 0.85199997E+02  0.57858E+06
 0.85249992E+02  0.60740E+06
 0.85299995E+02  0.62854E+06
 0.85349998E+02  0.65236E+06
 0.85399994E+02  0.67189E+06
 0.85449997E+02  0.68452E+06
 0.85499992E+02  0.70085E+06
 0.85549995E+02  0.72066E+06
 0.85599998E+02  0.72241E+06
 0.85649994E+02  0.70294E+06
 0.85699997E+02  0.68415E+06
 0.85749992E+02  0.67521E+06
 0.85799995E+02  0.65200E+06
 0.85849998E+02  0.60041E+06
 0.85899994E+02  0.52748E+06
 0.85949997E+02  0.45185E+06
 0.85999992E+02  0.39290E+06
 0.86049995E+02  0.35247E+06
 0.86099998E+02  0.31560E+06
 0.86149994E+02  0.26845E+06
 0.86199997E+02  0.21161E+06
 0.86249992E+02  0.15503E+06
 0.86299995E+02  0.93419E+05
 0.86349998E+02  0.21399E+05
 0.86399994E+02 -0.51945E+05
 0.86449997E+02 -0.12899E+06
 0.86499992E+02 -0.20753E+06
 0.86549995E+02 -0.30075E+06
 0.86599998E+02 -0.41115E+06
 0.86649994E+02 -0.52453E+06
 0.86699997E+02 -0.61626E+06
 0.86749992E+02 -0.65160E+06
 0.86799995E+02 -0.62791E+06
 0.86849998E+02 -0.57389E+06
 0.86899994E+02 -0.51302E+06
 0.86949997E+02 -0.45305E+06
 0.86999992E+02 -0.41231E+06
 0.87049995E+02 -0.40997E+06
 0.87099998E+02 -0.43073E+06
 0.87149994E+02 -0.44898E+06
 0.87199997E+02 -0.47160E+06
 0.87249992E+02 -0.50232E+06
 0.87299995E+02 -0.54520E+06
 0.87349998E+02 -0.60701E+06
 0.87399994E+02 -0.69124E+06
 0.87449997E+02 -0.78592E+06
 0.87499992E+02 -0.86461E+06
 0.87549995E+02 -0.92339E+06
 0.87599991E+02 -0.95541E+06
 0.87649994E+02 -0.94377E+06
 0.87699997E+02 -0.89269E+06
 0.87749992E+02 -0.82038E+06
 0.87799995E+02 -0.74683E+06
 0.87849991E+02 -0.67983E+06
 0.87899994E+02 -0.61852E+06
 0.87949997E+02 -0.56181E+06
 0.87999992E+02 -0.49686E+06
 0.88049995E+02 -0.42759E+06
 0.88099991E+02 -0.36637E+06
 0.88149994E+02 -0.31148E+06
 0.88199997E+02 -0.25801E+06
 0.88249992E+02 -0.20699E+06
 0.88299995E+02 -0.15141E+06
 0.88349991E+02 -0.75481E+05
 0.88399994E+02  0.21711E+05
 0.88449997E+02  0.13759E+06
 0.88499992E+02  0.24886E+06
 0.88549995E+02  0.32951E+06
 0.88599991E+02  0.38309E+06
 0.88649994E+02  0.42100E+06
 0.88699997E+02  0.45655E+06
 0.88749992E+02  0.49000E+06
 0.88799995E+02  0.51252E+06
 0.88849991E+02  0.52851E+06
 0.88899994E+02  0.53755E+06
 0.88949997E+02  0.53284E+06
 0.88999992E+02  0.51724E+06
 0.89049995E+02  0.50051E+06
 0.89099991E+02  0.48984E+06
 0.89149994E+02  0.46986E+06
 0.89199997E+02  0.43552E+06
 0.89249992E+02  0.39542E+06
 0.89299995E+02  0.35963E+06
 0.89349991E+02  0.33103E+06
 0.89399994E+02  0.29566E+06
 0.89449997E+02  0.25349E+06
 0.89499992E+02  0.21791E+06
 0.89549995E+02  0.19618E+06
 0.89599991E+02  0.18058E+06
 0.89649994E+02  0.16788E+06
 0.89699997E+02  0.15834E+06
 0.89749992E+02  0.14826E+06
 0.89799995E+02  0.13150E+06
 0.89849991E+02  0.10226E+06
 0.89899994E+02  0.62214E+05
 0.89949997E+02  0.16346E+05
 0.89999992E+02 -0.31035E+05
 0.90049995E+02 -0.73065E+05
 0.90099991E+02 -0.96244E+05
 0.90149994E+02 -0.95506E+05
 0.90199997E+02 -0.76688E+05
 0.90249992E+02 -0.49201E+05
 0.90299995E+02 -0.27800E+05
 0.90349991E+02 -0.15166E+05
 0.90399994E+02 -0.12094E+04
 0.90449997E+02  0.11444E+05
 0.90499992E+02  0.16387E+05
 0.90549995E+02  0.17774E+05
 0.90599991E+02  0.25046E+05
 0.90649994E+02  0.42632E+05
 0.90699997E+02  0.66133E+05
 0.90749992E+02  0.87853E+05
 0.90799995E+02  0.10101E+06
 0.90849991E+02  0.11009E+06
 0.90899994E+02  0.11604E+06
 0.90949997E+02  0.11268E+06
 0.90999992E+02  0.95480E+05
 0.91049995E+02  0.52771E+05
 0.91099991E+02 -0.23693E+05
 0.91149994E+02 -0.11591E+06
 0.91199997E+02 -0.20814E+06
 0.91249992E+02 -0.29715E+06
 0.91299995E+02 -0.37315E+06
 0.91349991E+02 -0.43289E+06
 0.91399994E+02 -0.47362E+06
 0.91449997E+02 -0.49413E+06
 0.91499992E+02 -0.49532E+06
 0.91549995E+02 -0.48512E+06
 0.91599991E+02 -0.47045E+06
 0.91649994E+02 -0.45399E+06
 0.91699997E+02 -0.44348E+06
 0.91749992E+02 -0.44053E+06
 0.91799995E+02 -0.43448E+06
 0.91849991E+02 -0.41580E+06
 0.91899994E+02 -0.38338E+06
 0.91949997E+02 -0.34233E+06
 0.91999992E+02 -0.29361E+06
 0.92049995E+02 -0.22861E+06
 0.92099991E+02 -0.15181E+06
 0.92149994E+02 -0.79052E+05
 0.92199997E+02 -0.18971E+05
 0.92249992E+02  0.33315E+05
 0.92299995E+02  0.90828E+05
 0.92349991E+02  0.16044E+06
 0.92399994E+02  0.22985E+06
 0.92449997E+02  0.28494E+06
 0.92499992E+02  0.31881E+06
 0.92549995E+02  0.32847E+06
 0.92599991E+02  0.31174E+06
 0.92649994E+02  0.27135E+06
 0.92699997E+02  0.21871E+06
 0.92749992E+02  0.16191E+06
 0.92799995E+02  0.10857E+06
 0.92849991E+02  0.71093E+05
 0.92899994E+02  0.59123E+05
 0.92949997E+02  0.68524E+05
 0.92999992E+02  0.81780E+05
 0.93049995E+02  0.81971E+05
 0.93099991E+02  0.67893E+05
 0.93149994E+02  0.43982E+05
 0.93199997E+02  0.14115E+05
 0.93249992E+02 -0.11497E+05
 0.93299995E+02 -0.17296E+05
 0.93349991E+02  0.11324E+05
 0.93399994E+02  0.69317E+05
 0.93449997E+02  0.14269E+06
 0.93499992E+02  0.21214E+06
 0.93549995E+02  0.25374E+06
 0.93599991E+02  0.26172E+06
 0.93649994E+02  0.24392E+06
 0.93699997E+02  0.21889E+06
 0.93749992E+02  0.20244E+06
 0.93799995E+02  0.20269E+06
 0.93849991E+02  0.22018E+06
 0.93899994E+02  0.24523E+06
 0.93949997E+02  0.25776E+06
 0.93999992E+02  0.24042E+06
 0.94049995E+02  0.18847E+06
 0.94099991E+02  0.11396E+06
 0.94149994E+02  0.36192E+05
 0.94199997E+02 -0.37565E+05
 0.94249992E+02 -0.99327E+05
 0.94299995E+02 -0.14688E+06
 0.94349991E+02 -0.19336E+06
 0.94399994E+02 -0.25038E+06
 0.94449997E+02 -0.31633E+06
 0.94499992E+02 -0.39210E+06
 0.94549995E+02 -0.47688E+06
 0.94599991E+02 -0.56074E+06
 0.94649994E+02 -0.63264E+06
 0.94699997E+02 -0.68794E+06
 0.94749992E+02 -0.72170E+06
 0.94799995E+02 -0.72217E+06
 0.94849991E+02 -0.68955E+06
 0.94899994E+02 -0.63816E+06
 0.94949997E+02 -0.57787E+06
 0.94999992E+02 -0.50692E+06
 0.95049995E+02 -0.42419E+06
 0.95099991E+02 -0.32695E+06
 0.95149994E+02 -0.21488E+06
 0.95199997E+02 -0.97837E+05
 0.95249992E+02  0.14830E+05
 0.95299995E+02  0.12168E+06
 0.95349991E+02  0.21977E+06
 0.95399994E+02  0.30108E+06
 0.95449997E+02  0.36313E+06
 0.95499992E+02  0.41305E+06
 0.95549995E+02  0.45419E+06
 0.95599991E+02  0.49171E+06
 0.95649994E+02  0.52907E+06
 0.95699997E+02  0.55025E+06
 0.95749992E+02  0.54680E+06
 0.95799995E+02  0.51659E+06
 0.95849991E+02  0.46108E+06
 0.95899994E+02  0.39025E+06
 0.95949997E+02  0.31911E+06
 0.95999992E+02  0.25921E+06
 0.96049995E+02  0.21484E+06
 0.96099991E+02  0.18879E+06
 0.96149994E+02  0.17259E+06
 0.96199997E+02  0.16020E+06
 0.96249992E+02  0.15163E+06
 0.96299995E+02  0.14033E+06
 0.96349991E+02  0.11918E+06
 0.96399994E+02  0.92159E+05
 0.96449997E+02  0.61234E+05
 0.96499992E+02  0.36069E+05
 0.96549995E+02  0.21972E+05
 0.96599991E+02  0.15398E+05
 0.96649994E+02  0.16137E+05
 0.96699997E+02  0.29730E+05
 0.96749992E+02  0.67968E+05
 0.96799995E+02  0.13584E+06
 0.96849991E+02  0.22904E+06
 0.96899994E+02  0.32707E+06
 0.96949997E+02  0.41893E+06
 0.96999992E+02  0.50527E+06
 0.97049995E+02  0.57726E+06
 0.97099991E+02  0.61876E+06
 0.97149994E+02  0.62829E+06
 0.97199997E+02  0.61651E+06
 0.97249992E+02  0.59856E+06
 0.97299995E+02  0.58594E+06
 0.97349991E+02  0.57280E+06
 0.97399994E+02  0.54708E+06
 0.97449997E+02  0.50155E+06
 0.97499992E+02  0.44381E+06
 0.97549995E+02  0.38792E+06
 0.97599991E+02  0.33304E+06
 0.97649994E+02  0.26815E+06
 0.97699997E+02  0.19094E+06
 0.97749992E+02  0.10951E+06
 0.97799995E+02  0.28497E+05
 0.97849991E+02 -0.53842E+05
 0.97899994E+02 -0.13928E+06
 0.97949997E+02 -0.22803E+06
 0.97999992E+02 -0.31839E+06
