-0.20000000E+01  0.34130E+04
-0.19500000E+01  0.33856E+04
-0.19000000E+01  0.33901E+04
-0.18500000E+01  0.33793E+04
-0.18000000E+01  0.33707E+04
-0.17500000E+01  0.33710E+04
-0.17000000E+01  0.33637E+04
-0.16500001E+01  0.33638E+04
-0.16000000E+01  0.33625E+04
-0.15500000E+01  0.33607E+04
-0.15000000E+01  0.33696E+04
-0.14500000E+01  0.33754E+04
-0.14000001E+01  0.33814E+04
-0.13500000E+01  0.33770E+04
-0.13000001E+01  0.33798E+04
-0.12500000E+01  0.33794E+04
-0.12000000E+01  0.33744E+04
-0.11500001E+01  0.33756E+04
-0.11000000E+01  0.33705E+04
-0.10500001E+01  0.33691E+04
-0.10000000E+01  0.33720E+04
-0.95000005E+00  0.33699E+04
-0.90000010E+00  0.33641E+04
-0.85000002E+00  0.33682E+04
-0.80000007E+00  0.33711E+04
-0.75000012E+00  0.33664E+04
-0.70000005E+00  0.33581E+04
-0.65000010E+00  0.33514E+04
-0.60000014E+00  0.33449E+04
-0.55000007E+00  0.33350E+04
-0.50000012E+00  0.33295E+04
-0.45000005E+00  0.33208E+04
-0.40000010E+00  0.33107E+04
-0.35000014E+00  0.33063E+04
-0.30000007E+00  0.33151E+04
-0.25000012E+00  0.33312E+04
-0.20000005E+00  0.33450E+04
-0.15000010E+00  0.33557E+04
-0.10000014E+00  0.33623E+04
-0.50000072E-01  0.33671E+04
-0.11920929E-06  0.33654E+04
 0.49999952E-01  0.33656E+04
 0.99999905E-01  0.33700E+04
 0.14999986E+00  0.33768E+04
 0.19999981E+00  0.33840E+04
 0.24999976E+00  0.33807E+04
 0.29999995E+00  0.33740E+04
 0.34999990E+00  0.33639E+04
 0.39999986E+00  0.33591E+04
 0.44999981E+00  0.33513E+04
 0.49999976E+00  0.33421E+04
 0.54999995E+00  0.33402E+04
 0.59999990E+00  0.33371E+04
 0.64999986E+00  0.33359E+04
 0.69999981E+00  0.33377E+04
 0.74999976E+00  0.33307E+04
 0.79999971E+00  0.33142E+04
 0.84999990E+00  0.33033E+04
 0.89999986E+00  0.33041E+04
 0.94999981E+00  0.33135E+04
 0.99999976E+00  0.33214E+04
 0.10499997E+01  0.33322E+04
 0.10999999E+01  0.33319E+04
 0.11499999E+01  0.33362E+04
 0.11999998E+01  0.33481E+04
 0.12499998E+01  0.33568E+04
 0.12999997E+01  0.33675E+04
 0.13499999E+01  0.33814E+04
 0.13999999E+01  0.33924E+04
 0.14499998E+01  0.33966E+04
 0.14999998E+01  0.34027E+04
 0.15499997E+01  0.34032E+04
 0.15999999E+01  0.33934E+04
 0.16499999E+01  0.33853E+04
 0.16999998E+01  0.33826E+04
 0.17499998E+01  0.33801E+04
 0.17999997E+01  0.33791E+04
 0.18499997E+01  0.33711E+04
 0.18999999E+01  0.33691E+04
 0.19499998E+01  0.33692E+04
 0.19999998E+01  0.33697E+04
 0.20499997E+01  0.33742E+04
 0.20999999E+01  0.33726E+04
 0.21499996E+01  0.33754E+04
 0.21999998E+01  0.33728E+04
 0.22499995E+01  0.33736E+04
 0.22999997E+01  0.33855E+04
 0.23499999E+01  0.33918E+04
 0.23999996E+01  0.33922E+04
 0.24499998E+01  0.33883E+04
 0.24999995E+01  0.33858E+04
 0.25499997E+01  0.33835E+04
 0.25999999E+01  0.33888E+04
 0.26499996E+01  0.34004E+04
 0.26999998E+01  0.34012E+04
 0.27499995E+01  0.33857E+04
 0.27999997E+01  0.33692E+04
 0.28499999E+01  0.33622E+04
 0.28999996E+01  0.33544E+04
 0.29499998E+01  0.33592E+04
 0.29999995E+01  0.33560E+04
 0.30499997E+01  0.33576E+04
 0.30999999E+01  0.33549E+04
 0.31499996E+01  0.33487E+04
 0.31999998E+01  0.33537E+04
 0.32499995E+01  0.33514E+04
 0.32999997E+01  0.33521E+04
 0.33499999E+01  0.33348E+04
 0.33999996E+01  0.33184E+04
 0.34499998E+01  0.33126E+04
 0.34999995E+01  0.33122E+04
 0.35499997E+01  0.33189E+04
 0.35999994E+01  0.33282E+04
 0.36499996E+01  0.33410E+04
 0.36999998E+01  0.33541E+04
 0.37499995E+01  0.33576E+04
 0.37999997E+01  0.33605E+04
 0.38499994E+01  0.33621E+04
 0.38999996E+01  0.33583E+04
 0.39499998E+01  0.33593E+04
 0.39999995E+01  0.33573E+04
 0.40499997E+01  0.33512E+04
 0.40999994E+01  0.33505E+04
 0.41499996E+01  0.33430E+04
 0.41999998E+01  0.33387E+04
 0.42499995E+01  0.33469E+04
 0.42999997E+01  0.33449E+04
 0.43499994E+01  0.33428E+04
 0.43999996E+01  0.33457E+04
 0.44499998E+01  0.33531E+04
 0.44999995E+01  0.33493E+04
 0.45499997E+01  0.33299E+04
 0.45999994E+01  0.33149E+04
 0.46499996E+01  0.33102E+04
 0.46999998E+01  0.33173E+04
 0.47499995E+01  0.33332E+04
 0.47999997E+01  0.33492E+04
 0.48499994E+01  0.33652E+04
 0.48999996E+01  0.33752E+04
 0.49499998E+01  0.33744E+04
 0.49999995E+01  0.33697E+04
 0.50499997E+01  0.33747E+04
 0.50999994E+01  0.33844E+04
 0.51499996E+01  0.33923E+04
 0.51999998E+01  0.33994E+04
 0.52499995E+01  0.33975E+04
 0.52999997E+01  0.33970E+04
 0.53499994E+01  0.33872E+04
 0.53999996E+01  0.33803E+04
 0.54499993E+01  0.33897E+04
 0.54999995E+01  0.33967E+04
 0.55499997E+01  0.33973E+04
 0.55999994E+01  0.33917E+04
 0.56499996E+01  0.33873E+04
 0.56999993E+01  0.33762E+04
 0.57499995E+01  0.33667E+04
 0.57999997E+01  0.33550E+04
 0.58499994E+01  0.33441E+04
 0.58999996E+01  0.33382E+04
 0.59499993E+01  0.33303E+04
 0.59999995E+01  0.33350E+04
 0.60499992E+01  0.33376E+04
 0.60999994E+01  0.33375E+04
 0.61499996E+01  0.33391E+04
 0.61999998E+01  0.33470E+04
 0.62499990E+01  0.33479E+04
 0.62999992E+01  0.33445E+04
 0.63499994E+01  0.33381E+04
 0.63999996E+01  0.33356E+04
 0.64499998E+01  0.33432E+04
 0.64999990E+01  0.33481E+04
 0.65499992E+01  0.33526E+04
 0.65999994E+01  0.33461E+04
 0.66499996E+01  0.33456E+04
 0.66999998E+01  0.33451E+04
 0.67499990E+01  0.33449E+04
 0.67999992E+01  0.33502E+04
 0.68499994E+01  0.33546E+04
 0.68999996E+01  0.33646E+04
 0.69499998E+01  0.33734E+04
 0.69999990E+01  0.33810E+04
 0.70499992E+01  0.33825E+04
 0.70999994E+01  0.33826E+04
 0.71499996E+01  0.33808E+04
 0.71999998E+01  0.33751E+04
 0.72499990E+01  0.33683E+04
 0.72999992E+01  0.33640E+04
 0.73499994E+01  0.33706E+04
 0.73999996E+01  0.33784E+04
 0.74499998E+01  0.33792E+04
 0.74999990E+01  0.33766E+04
 0.75499992E+01  0.33706E+04
 0.75999994E+01  0.33602E+04
 0.76499996E+01  0.33545E+04
 0.76999998E+01  0.33493E+04
 0.77499990E+01  0.33589E+04
 0.77999992E+01  0.33605E+04
 0.78499994E+01  0.33512E+04
 0.78999996E+01  0.33413E+04
 0.79499998E+01  0.33361E+04
 0.79999990E+01  0.33389E+04
 0.80499992E+01  0.33438E+04
 0.80999994E+01  0.33629E+04
 0.81499996E+01  0.33680E+04
 0.81999998E+01  0.33670E+04
 0.82499990E+01  0.33627E+04
 0.82999992E+01  0.33569E+04
 0.83499994E+01  0.33541E+04
 0.83999996E+01  0.33554E+04
 0.84499998E+01  0.33543E+04
 0.84999990E+01  0.33485E+04
 0.85499992E+01  0.33482E+04
 0.85999994E+01  0.33499E+04
 0.86499996E+01  0.33478E+04
 0.86999998E+01  0.33400E+04
 0.87499990E+01  0.33390E+04
 0.87999992E+01  0.33395E+04
 0.88499994E+01  0.33476E+04
 0.88999996E+01  0.33615E+04
 0.89499998E+01  0.33717E+04
 0.89999990E+01  0.33798E+04
 0.90499992E+01  0.33820E+04
 0.90999994E+01  0.33807E+04
 0.91499996E+01  0.33783E+04
 0.91999989E+01  0.33831E+04
 0.92499990E+01  0.33882E+04
 0.92999992E+01  0.33822E+04
 0.93499994E+01  0.33718E+04
 0.93999996E+01  0.33653E+04
 0.94499989E+01  0.33663E+04
 0.94999990E+01  0.33665E+04
 0.95499992E+01  0.33709E+04
 0.95999994E+01  0.33694E+04
 0.96499996E+01  0.33571E+04
 0.96999989E+01  0.33574E+04
 0.97499990E+01  0.33610E+04
 0.97999992E+01  0.33636E+04
 0.98499994E+01  0.33617E+04
 0.98999996E+01  0.33532E+04
 0.99499989E+01  0.33407E+04
 0.99999990E+01  0.33289E+04
 0.10049999E+02  0.33349E+04
 0.10099999E+02  0.33409E+04
 0.10150000E+02  0.33453E+04
 0.10199999E+02  0.33506E+04
 0.10249999E+02  0.33520E+04
 0.10299999E+02  0.33503E+04
 0.10349999E+02  0.33464E+04
 0.10400000E+02  0.33500E+04
 0.10449999E+02  0.33594E+04
 0.10499999E+02  0.33676E+04
 0.10549999E+02  0.33730E+04
 0.10599999E+02  0.33690E+04
 0.10650000E+02  0.33604E+04
 0.10699999E+02  0.33599E+04
 0.10749999E+02  0.33581E+04
 0.10799999E+02  0.33536E+04
 0.10849999E+02  0.33549E+04
 0.10900000E+02  0.33601E+04
 0.10949999E+02  0.33668E+04
 0.10999999E+02  0.33750E+04
 0.11049999E+02  0.33821E+04
 0.11099999E+02  0.33826E+04
 0.11150000E+02  0.33799E+04
 0.11199999E+02  0.33763E+04
 0.11249999E+02  0.33654E+04
 0.11299999E+02  0.33586E+04
 0.11349999E+02  0.33547E+04
 0.11400000E+02  0.33547E+04
 0.11449999E+02  0.33534E+04
 0.11499999E+02  0.33454E+04
 0.11549999E+02  0.33335E+04
 0.11599999E+02  0.33296E+04
 0.11650000E+02  0.33339E+04
 0.11699999E+02  0.33354E+04
 0.11749999E+02  0.33424E+04
 0.11799999E+02  0.33555E+04
 0.11849999E+02  0.33672E+04
 0.11900000E+02  0.33682E+04
 0.11949999E+02  0.33687E+04
 0.11999999E+02  0.33695E+04
 0.12049999E+02  0.33611E+04
 0.12099999E+02  0.33537E+04
 0.12150000E+02  0.33582E+04
 0.12199999E+02  0.33597E+04
 0.12249999E+02  0.33603E+04
 0.12299999E+02  0.33627E+04
 0.12349999E+02  0.33568E+04
 0.12400000E+02  0.33487E+04
 0.12449999E+02  0.33455E+04
 0.12499999E+02  0.33468E+04
 0.12549999E+02  0.33480E+04
 0.12599999E+02  0.33518E+04
 0.12649999E+02  0.33532E+04
 0.12699999E+02  0.33549E+04
 0.12749999E+02  0.33578E+04
 0.12799999E+02  0.33561E+04
 0.12849999E+02  0.33608E+04
 0.12899999E+02  0.33652E+04
 0.12949999E+02  0.33643E+04
 0.12999999E+02  0.33635E+04
 0.13049999E+02  0.33672E+04
 0.13099999E+02  0.33704E+04
 0.13149999E+02  0.33659E+04
 0.13199999E+02  0.33628E+04
 0.13249999E+02  0.33572E+04
 0.13299999E+02  0.33490E+04
 0.13349999E+02  0.33462E+04
 0.13399999E+02  0.33426E+04
 0.13449999E+02  0.33384E+04
 0.13499999E+02  0.33410E+04
 0.13549999E+02  0.33507E+04
 0.13599999E+02  0.33645E+04
 0.13649999E+02  0.33777E+04
 0.13699999E+02  0.33924E+04
 0.13749999E+02  0.33958E+04
 0.13799999E+02  0.33921E+04
 0.13849999E+02  0.33937E+04
 0.13899999E+02  0.33926E+04
 0.13949999E+02  0.33906E+04
 0.13999999E+02  0.33922E+04
 0.14049999E+02  0.34043E+04
 0.14099998E+02  0.34102E+04
 0.14150000E+02  0.34102E+04
 0.14199999E+02  0.34136E+04
 0.14249998E+02  0.34009E+04
 0.14299999E+02  0.33810E+04
 0.14349998E+02  0.33671E+04
 0.14400000E+02  0.33616E+04
 0.14449999E+02  0.33638E+04
 0.14499998E+02  0.33717E+04
 0.14549999E+02  0.33687E+04
 0.14599998E+02  0.33565E+04
 0.14650000E+02  0.33439E+04
 0.14699999E+02  0.33300E+04
 0.14749998E+02  0.33300E+04
 0.14799999E+02  0.33321E+04
 0.14849998E+02  0.33308E+04
 0.14900000E+02  0.33240E+04
 0.14949999E+02  0.33239E+04
 0.14999998E+02  0.33272E+04
 0.15049999E+02  0.33250E+04
 0.15099998E+02  0.33249E+04
 0.15150000E+02  0.33260E+04
 0.15199999E+02  0.33399E+04
 0.15249998E+02  0.33475E+04
 0.15299999E+02  0.33529E+04
 0.15349998E+02  0.33565E+04
 0.15400000E+02  0.33474E+04
 0.15449999E+02  0.33447E+04
 0.15499998E+02  0.33488E+04
 0.15549999E+02  0.33587E+04
 0.15599998E+02  0.33692E+04
 0.15650000E+02  0.33789E+04
 0.15699999E+02  0.33873E+04
 0.15749998E+02  0.33751E+04
 0.15799999E+02  0.33553E+04
 0.15849998E+02  0.33413E+04
 0.15900000E+02  0.33260E+04
 0.15949999E+02  0.33313E+04
 0.15999998E+02  0.33824E+04
 0.16049999E+02  0.34039E+04
 0.16099998E+02  0.34030E+04
 0.16150000E+02  0.33888E+04
 0.16199999E+02  0.33820E+04
 0.16249998E+02  0.33650E+04
 0.16299999E+02  0.33293E+04
 0.16349998E+02  0.33625E+04
 0.16400000E+02  0.34363E+04
 0.16449999E+02  0.34768E+04
 0.16499998E+02  0.34363E+04
 0.16549999E+02  0.33260E+04
 0.16599998E+02  0.31522E+04
 0.16650000E+02  0.27903E+04
 0.16699999E+02  0.29344E+04
 0.16749998E+02  0.32697E+04
 0.16799999E+02  0.37064E+04
 0.16849998E+02  0.42298E+04
 0.16900000E+02  0.45566E+04
 0.16949999E+02  0.43456E+04
 0.16999998E+02  0.35868E+04
 0.17049999E+02  0.24791E+04
 0.17099998E+02  0.20060E+04
 0.17150000E+02  0.16744E+04
 0.17199999E+02  0.24814E+04
 0.17249998E+02  0.37482E+04
 0.17299999E+02  0.41406E+04
 0.17349998E+02  0.49909E+04
 0.17400000E+02  0.35876E+04
 0.17449999E+02  0.27953E+04
 0.17499998E+02  0.13360E+04
 0.17549999E+02  0.97096E+03
 0.17599998E+02  0.10632E+04
 0.17650000E+02  0.29688E+04
 0.17699999E+02  0.53491E+04
 0.17749998E+02  0.53746E+04
 0.17799999E+02  0.66387E+04
 0.17849998E+02  0.51007E+04
 0.17900000E+02  0.36728E+04
 0.17949999E+02  0.21166E+04
 0.17999998E+02  0.38345E+04
 0.18049999E+02  0.33670E+04
 0.18099998E+02  0.40503E+04
 0.18150000E+02  0.55265E+04
 0.18199999E+02  0.24502E+04
 0.18249998E+02  0.32848E+04
 0.18299999E+02  0.47871E+03
 0.18349998E+02  0.31598E+04
 0.18400000E+02  0.27207E+04
 0.18449999E+02  0.85827E+03
 0.18499998E+02  0.40798E+04
 0.18549999E+02  0.20707E+04
 0.18599998E+02  0.31425E+04
 0.18650000E+02  0.15293E+04
 0.18699999E+02  0.24584E+04
 0.18749998E+02  0.30337E+04
 0.18799999E+02  0.43725E+04
 0.18849998E+02  0.80817E+04
 0.18900000E+02  0.55709E+04
 0.18949999E+02  0.54965E+04
 0.18999998E+02  0.20028E+04
 0.19049999E+02 -0.10242E+04
 0.19099998E+02  0.36965E+04
 0.19150000E+02  0.59465E+04
 0.19199999E+02  0.59364E+04
 0.19249998E+02  0.38397E+04
 0.19299999E+02  0.50904E+03
 0.19349998E+02 -0.13633E+04
 0.19400000E+02  0.10948E+04
 0.19449999E+02  0.59915E+04
 0.19499998E+02  0.67374E+04
 0.19549999E+02  0.53440E+04
 0.19599998E+02  0.13045E+04
 0.19650000E+02  0.51354E+04
 0.19699999E+02  0.61743E+04
 0.19749998E+02  0.47385E+04
 0.19799999E+02  0.20016E+04
 0.19849998E+02 -0.24169E+04
 0.19900000E+02 -0.21619E+04
 0.19949999E+02  0.19424E+02
 0.19999998E+02  0.51949E+04
 0.20049999E+02  0.25166E+04
 0.20099998E+02  0.62950E+04
 0.20150000E+02  0.60317E+04
 0.20199999E+02  0.41379E+04
 0.20249998E+02  0.57106E+04
 0.20299999E+02  0.50276E+04
 0.20349998E+02  0.59967E+04
 0.20399998E+02  0.27340E+04
 0.20449999E+02  0.39946E+03
 0.20499998E+02  0.14700E+04
 0.20549999E+02  0.65451E+04
 0.20599998E+02  0.61346E+04
 0.20649998E+02  0.33350E+04
 0.20699999E+02  0.46438E+04
 0.20749998E+02  0.51076E+03
 0.20799999E+02 -0.64197E+04
 0.20849998E+02 -0.13452E+04
 0.20899998E+02  0.57892E+04
 0.20949999E+02  0.50217E+04
 0.20999998E+02  0.47611E+04
 0.21049999E+02  0.78356E+04
 0.21099998E+02  0.70307E+04
 0.21149998E+02  0.75438E+02
 0.21199999E+02  0.17134E+03
 0.21249998E+02  0.38839E+04
 0.21299999E+02  0.61515E+04
 0.21349998E+02  0.50467E+04
 0.21399998E+02  0.40302E+04
 0.21449999E+02  0.67450E+04
 0.21499998E+02  0.33174E+04
 0.21549999E+02 -0.18266E+04
 0.21599998E+02  0.10164E+04
 0.21649998E+02  0.20545E+04
 0.21699999E+02 -0.11284E+04
 0.21749998E+02  0.38969E+04
 0.21799999E+02  0.12230E+05
 0.21849998E+02  0.87439E+04
 0.21899998E+02 -0.38230E+03
 0.21949999E+02  0.17087E+04
 0.21999998E+02  0.16841E+04
 0.22049999E+02  0.37280E+04
 0.22099998E+02  0.70057E+04
 0.22149998E+02  0.91244E+04
 0.22199999E+02  0.24153E+04
 0.22249998E+02 -0.50039E+04
 0.22299999E+02 -0.33214E+04
 0.22349998E+02  0.33683E+04
 0.22399998E+02  0.79965E+04
 0.22449999E+02  0.29422E+04
 0.22499998E+02  0.38611E+04
 0.22549999E+02  0.28155E+04
 0.22599998E+02  0.17203E+04
 0.22649998E+02 -0.20352E+04
 0.22699999E+02  0.48522E+04
 0.22749998E+02  0.11803E+05
 0.22799999E+02  0.88219E+04
 0.22849998E+02  0.68181E+04
 0.22899998E+02 -0.56880E+03
 0.22949999E+02  0.51342E+03
 0.22999998E+02  0.27165E+04
 0.23049999E+02  0.64901E+03
 0.23099998E+02  0.82127E+03
 0.23149998E+02  0.72029E+04
 0.23199999E+02  0.98802E+04
 0.23249998E+02  0.17382E+04
 0.23299999E+02  0.61746E+04
 0.23349998E+02  0.56761E+04
 0.23399998E+02 -0.68085E+04
 0.23449999E+02  0.20855E+04
 0.23499998E+02  0.75011E+04
 0.23549999E+02  0.35271E+04
 0.23599998E+02 -0.82933E+03
 0.23649998E+02 -0.97205E+03
 0.23699999E+02  0.22666E+04
 0.23749998E+02  0.12289E+02
 0.23799999E+02  0.36122E+04
 0.23849998E+02  0.37712E+04
 0.23899998E+02  0.68558E+04
 0.23949999E+02  0.68072E+04
 0.23999998E+02  0.74387E+04
 0.24049999E+02  0.54645E+04
 0.24099998E+02  0.79797E+04
 0.24149998E+02  0.37707E+04
 0.24199999E+02 -0.11598E+04
 0.24249998E+02  0.41260E+03
 0.24299999E+02  0.39575E+04
 0.24349998E+02  0.44129E+04
 0.24399998E+02  0.14673E+02
 0.24449999E+02  0.47886E+04
 0.24499998E+02  0.20659E+04
 0.24549999E+02  0.30098E+04
 0.24599998E+02  0.20357E+04
 0.24649998E+02  0.74212E+04
 0.24699999E+02  0.53473E+04
 0.24749998E+02  0.11894E+04
 0.24799999E+02  0.45774E+04
 0.24849998E+02  0.12790E+04
 0.24899998E+02 -0.79463E+03
 0.24949999E+02  0.38287E+04
 0.24999998E+02  0.22474E+04
 0.25049999E+02  0.53378E+03
 0.25099998E+02  0.72005E+04
 0.25149998E+02  0.75694E+04
 0.25199999E+02  0.10719E+05
 0.25249998E+02  0.64594E+04
 0.25299999E+02  0.31471E+04
 0.25349998E+02 -0.11023E+04
 0.25399998E+02  0.23013E+04
 0.25449999E+02  0.20965E+04
 0.25499998E+02 -0.21004E+04
 0.25549999E+02  0.33210E+04
 0.25599998E+02  0.45543E+04
 0.25649998E+02  0.52471E+04
 0.25699999E+02  0.38923E+03
 0.25749998E+02  0.43754E+04
 0.25799999E+02  0.48495E+04
 0.25849998E+02  0.32229E+04
 0.25899998E+02  0.34180E+04
 0.25949999E+02  0.18519E+04
 0.25999998E+02  0.19847E+04
 0.26049999E+02  0.14715E+04
 0.26099998E+02  0.37441E+04
 0.26149998E+02  0.67085E+04
 0.26199999E+02  0.17752E+04
 0.26249998E+02  0.39874E+04
 0.26299999E+02  0.65119E+04
 0.26349998E+02  0.11668E+04
 0.26399998E+02  0.25713E+04
 0.26449999E+02  0.67973E+04
 0.26499998E+02  0.41192E+04
 0.26549999E+02 -0.29776E+04
 0.26599998E+02  0.22117E+04
 0.26649998E+02  0.38237E+04
 0.26699999E+02  0.44879E+04
 0.26749998E+02  0.66192E+04
 0.26799999E+02  0.74335E+04
 0.26849998E+02  0.67697E+04
 0.26899998E+02  0.85878E+04
 0.26949999E+02  0.64562E+04
 0.26999998E+02  0.37418E+04
 0.27049997E+02 -0.41794E+03
 0.27099998E+02 -0.41184E+04
 0.27149998E+02  0.61248E+03
 0.27199999E+02  0.10964E+04
 0.27249998E+02  0.71285E+04
 0.27299997E+02  0.10174E+05
 0.27349998E+02  0.11314E+05
 0.27399998E+02  0.17878E+03
 0.27449999E+02 -0.12711E+05
 0.27499998E+02 -0.97662E+04
 0.27549997E+02 -0.11564E+04
 0.27599998E+02  0.69337E+04
 0.27649998E+02  0.16277E+05
 0.27699999E+02  0.18650E+05
 0.27749998E+02  0.52362E+04
 0.27799997E+02  0.47747E+03
 0.27849998E+02 -0.35257E+04
 0.27899998E+02 -0.13288E+04
 0.27949999E+02 -0.24082E+04
 0.27999998E+02 -0.58726E+04
 0.28049997E+02  0.34127E+04
 0.28099998E+02  0.11678E+05
 0.28149998E+02 -0.13515E+04
 0.28199999E+02 -0.59206E+03
 0.28249998E+02  0.82332E+04
 0.28299997E+02  0.16910E+04
 0.28349998E+02  0.51958E+04
 0.28399998E+02  0.13316E+05
 0.28449999E+02  0.16042E+05
 0.28499998E+02  0.98312E+02
 0.28549997E+02  0.22290E+04
 0.28599998E+02 -0.13106E+05
 0.28649998E+02 -0.17190E+05
 0.28699999E+02 -0.99951E+04
 0.28749998E+02  0.18450E+05
 0.28799997E+02  0.42123E+05
 0.28849998E+02  0.13074E+05
 0.28899998E+02  0.34011E+04
 0.28949999E+02 -0.53790E+04
 0.28999998E+02 -0.38754E+04
 0.29049997E+02  0.79839E+04
 0.29099998E+02  0.15463E+05
 0.29149998E+02 -0.10786E+05
 0.29199999E+02 -0.27331E+05
 0.29249998E+02  0.33368E+04
 0.29299997E+02  0.51555E+04
 0.29349998E+02  0.13591E+05
 0.29399998E+02  0.39137E+05
 0.29449999E+02  0.19819E+05
 0.29499998E+02 -0.88760E+04
 0.29549997E+02 -0.39650E+05
 0.29599998E+02 -0.15986E+05
 0.29649998E+02  0.17828E+05
 0.29699999E+02  0.63395E+04
 0.29749998E+02  0.41839E+04
 0.29799997E+02  0.12245E+05
 0.29849998E+02  0.22237E+05
 0.29899998E+02 -0.51342E+04
 0.29949999E+02  0.19922E+04
 0.29999998E+02  0.77703E+04
 0.30049999E+02  0.16812E+05
 0.30099998E+02  0.20610E+04
 0.30149998E+02 -0.20925E+05
 0.30199997E+02  0.10564E+05
 0.30249996E+02  0.55245E+04
 0.30299999E+02  0.21603E+04
 0.30349998E+02  0.34128E+04
 0.30399998E+02  0.59657E+04
 0.30449997E+02 -0.57355E+04
 0.30499996E+02 -0.18834E+05
 0.30549999E+02 -0.21086E+05
 0.30599998E+02 -0.70577E+04
 0.30649998E+02  0.23850E+05
 0.30699997E+02  0.41445E+05
 0.30749996E+02  0.27465E+05
 0.30799999E+02  0.91660E+04
 0.30849998E+02  0.16356E+04
 0.30899998E+02 -0.12677E+05
 0.30949997E+02 -0.78593E+03
 0.30999996E+02 -0.25368E+04
 0.31049999E+02  0.40250E+04
 0.31099998E+02  0.31574E+05
 0.31149998E+02  0.11645E+04
 0.31199997E+02 -0.23489E+05
 0.31249996E+02 -0.11995E+05
 0.31299999E+02 -0.17223E+05
 0.31349998E+02 -0.36672E+03
 0.31399998E+02  0.27235E+05
 0.31449997E+02  0.37717E+05
 0.31499996E+02  0.13407E+05
 0.31549999E+02 -0.26440E+04
 0.31599998E+02 -0.18169E+05
 0.31649998E+02 -0.25007E+05
 0.31699997E+02  0.14896E+05
 0.31749996E+02  0.27790E+05
 0.31799999E+02  0.17353E+05
 0.31849998E+02 -0.10879E+05
 0.31899998E+02 -0.22737E+05
 0.31949997E+02 -0.15591E+05
 0.31999996E+02 -0.11422E+05
 0.32049999E+02  0.21079E+05
 0.32099998E+02  0.37514E+05
 0.32149998E+02  0.13710E+05
 0.32199997E+02 -0.15402E+04
 0.32249996E+02 -0.52248E+04
 0.32299999E+02 -0.44383E+04
 0.32349998E+02 -0.69425E+04
 0.32399998E+02 -0.42509E+04
 0.32449997E+02  0.13903E+05
 0.32499996E+02  0.25466E+05
 0.32549999E+02  0.19061E+05
 0.32599998E+02 -0.46303E+04
 0.32649998E+02 -0.34714E+04
 0.32699997E+02  0.11495E+05
 0.32749996E+02  0.46125E+04
 0.32799999E+02 -0.18122E+04
 0.32849998E+02 -0.24716E+04
 0.32899998E+02  0.42077E+04
 0.32949997E+02 -0.27478E+04
 0.32999996E+02 -0.33782E+04
 0.33049999E+02  0.45488E+04
 0.33099998E+02  0.62138E+04
 0.33149998E+02  0.18830E+04
 0.33199997E+02 -0.10282E+05
 0.33249996E+02 -0.90357E+04
 0.33299999E+02 -0.58064E+04
 0.33349998E+02  0.10561E+05
 0.33399998E+02  0.11621E+05
 0.33449997E+02  0.69875E+04
 0.33499996E+02  0.12881E+05
 0.33549999E+02  0.13547E+05
 0.33599998E+02  0.17848E+05
 0.33649998E+02  0.13610E+05
 0.33699997E+02  0.71979E+04
 0.33749996E+02  0.45125E+03
 0.33799999E+02  0.32627E+04
 0.33849998E+02  0.11717E+04
 0.33899998E+02 -0.22404E+04
 0.33949997E+02  0.12522E+05
 0.33999996E+02  0.85202E+04
 0.34049999E+02 -0.11283E+05
 0.34099998E+02 -0.14710E+05
 0.34149998E+02 -0.64188E+04
 0.34199997E+02  0.32702E+03
 0.34249996E+02  0.31346E+03
 0.34299999E+02  0.65766E+04
 0.34349998E+02  0.98528E+04
 0.34399998E+02  0.57485E+04
 0.34449997E+02 -0.94884E+02
 0.34499996E+02 -0.15930E+04
 0.34549999E+02  0.61259E+04
 0.34599998E+02  0.96856E+04
 0.34649998E+02  0.94192E+04
 0.34699997E+02  0.10640E+05
 0.34749996E+02  0.11921E+05
 0.34799999E+02 -0.36675E+04
 0.34849998E+02 -0.76599E+04
 0.34899998E+02 -0.51856E+04
 0.34949997E+02 -0.64774E+04
 0.34999996E+02 -0.65066E+04
 0.35049999E+02 -0.79558E+03
 0.35099998E+02  0.11781E+05
 0.35149998E+02  0.17036E+05
 0.35199997E+02  0.22234E+05
 0.35249996E+02  0.13045E+05
 0.35299999E+02 -0.27536E+04
 0.35349998E+02 -0.46126E+04
 0.35399998E+02 -0.20659E+04
 0.35449997E+02  0.77505E+02
 0.35499996E+02  0.68343E+04
 0.35549999E+02  0.63953E+04
 0.35599998E+02  0.34994E+04
 0.35649998E+02  0.74933E+04
 0.35699997E+02  0.49870E+04
 0.35749996E+02 -0.24302E+04
 0.35799999E+02 -0.82467E+03
 0.35849998E+02  0.14715E+04
 0.35899998E+02  0.19445E+04
 0.35949997E+02  0.90460E+04
 0.35999996E+02  0.13383E+05
 0.36049999E+02  0.25361E+04
 0.36099998E+02 -0.60493E+04
 0.36149998E+02 -0.14266E+04
 0.36199997E+02  0.79934E+04
 0.36249996E+02  0.59738E+04
 0.36299999E+02 -0.12676E+04
 0.36349998E+02 -0.46872E+03
 0.36399998E+02  0.27453E+03
 0.36449997E+02  0.43717E+04
 0.36499996E+02  0.92717E+04
 0.36549999E+02  0.94279E+04
 0.36599998E+02  0.53834E+04
 0.36649998E+02  0.11073E+05
 0.36699997E+02  0.83550E+04
 0.36749996E+02 -0.40963E+04
 0.36799999E+02 -0.92262E+04
 0.36849998E+02 -0.41681E+04
 0.36899998E+02 -0.19137E+04
 0.36949997E+02 -0.42734E+03
 0.36999996E+02  0.60263E+04
 0.37049999E+02  0.11309E+05
 0.37099998E+02  0.14947E+05
 0.37149998E+02  0.68596E+04
 0.37199997E+02  0.17753E+04
 0.37249996E+02 -0.10451E+04
 0.37299999E+02  0.38030E+04
 0.37349998E+02  0.48223E+04
 0.37399998E+02  0.22180E+04
 0.37449997E+02 -0.69258E+03
 0.37499996E+02 -0.45130E+04
 0.37549999E+02  0.17708E+04
 0.37599998E+02  0.42078E+04
 0.37649998E+02  0.56477E+04
 0.37699997E+02  0.11493E+05
 0.37749996E+02  0.84297E+04
 0.37799999E+02 -0.39594E+04
 0.37849998E+02 -0.44720E+04
 0.37899998E+02  0.66491E+03
 0.37949997E+02  0.62538E+03
 0.37999996E+02  0.94161E+04
 0.38049999E+02  0.20006E+05
 0.38099998E+02  0.15098E+05
 0.38149998E+02 -0.36529E+03
 0.38199997E+02 -0.51742E+04
 0.38249996E+02 -0.86605E+04
 0.38299999E+02 -0.76732E+04
 0.38349998E+02 -0.58773E+03
 0.38399998E+02  0.21393E+04
 0.38449997E+02  0.79861E+04
 0.38499996E+02  0.14044E+05
 0.38549999E+02  0.14810E+05
 0.38599998E+02  0.48165E+04
 0.38649998E+02 -0.66430E+04
 0.38699997E+02 -0.61339E+04
 0.38749996E+02  0.25280E+04
 0.38799999E+02  0.84192E+04
 0.38849998E+02  0.13767E+05
 0.38899998E+02  0.11161E+05
 0.38949997E+02  0.79892E+04
 0.38999996E+02  0.30315E+04
 0.39049999E+02 -0.77986E+03
 0.39099998E+02 -0.31768E+04
 0.39149998E+02 -0.42105E+04
 0.39199997E+02  0.18277E+03
 0.39249996E+02  0.31826E+04
 0.39299999E+02  0.94098E+04
 0.39349998E+02  0.48310E+04
 0.39399998E+02  0.36417E+04
 0.39449997E+02  0.42302E+04
 0.39499996E+02  0.44537E+04
 0.39549999E+02  0.29553E+04
 0.39599998E+02  0.23902E+04
 0.39649998E+02  0.29620E+04
 0.39699997E+02  0.18869E+02
 0.39749996E+02  0.68465E+02
 0.39799999E+02 -0.37514E+04
 0.39849998E+02  0.58505E+03
 0.39899998E+02  0.69324E+04
 0.39949997E+02  0.10848E+05
 0.39999996E+02  0.10368E+05
 0.40049999E+02  0.86273E+04
 0.40099998E+02  0.36819E+04
 0.40149998E+02  0.31666E+03
 0.40199997E+02  0.22640E+04
 0.40249996E+02  0.46199E+04
 0.40299999E+02  0.63319E+04
 0.40349998E+02  0.65455E+04
 0.40399998E+02  0.22243E+04
 0.40449997E+02 -0.37240E+04
 0.40499996E+02 -0.90153E+03
 0.40549999E+02  0.39090E+04
 0.40599998E+02  0.50108E+04
 0.40649998E+02  0.74004E+04
 0.40699997E+02  0.96997E+04
 0.40749996E+02  0.84895E+04
 0.40799999E+02  0.45502E+04
 0.40849998E+02 -0.57920E+04
 0.40899998E+02 -0.79810E+04
 0.40949997E+02 -0.57271E+04
 0.40999996E+02  0.33069E+04
 0.41049999E+02  0.10616E+05
 0.41099998E+02  0.57897E+04
 0.41149998E+02  0.19920E+04
 0.41199997E+02 -0.30288E+03
 0.41249996E+02  0.21169E+04
 0.41299999E+02  0.28310E+04
 0.41349998E+02  0.61193E+04
 0.41399998E+02  0.96619E+04
 0.41449997E+02  0.11156E+05
 0.41499996E+02  0.75094E+04
 0.41549999E+02  0.16007E+04
 0.41599998E+02  0.26246E+04
 0.41649998E+02  0.48725E+04
 0.41699997E+02  0.11349E+04
 0.41749996E+02 -0.65961E+04
 0.41799999E+02 -0.56552E+04
 0.41849998E+02 -0.10135E+04
 0.41899998E+02  0.64271E+04
 0.41949997E+02  0.12381E+05
 0.41999996E+02  0.11961E+05
 0.42049999E+02  0.93071E+04
 0.42099998E+02  0.29996E+04
 0.42149998E+02  0.38929E+03
 0.42199997E+02  0.26064E+04
 0.42249996E+02  0.10634E+04
 0.42299999E+02  0.10916E+04
 0.42349998E+02  0.40148E+04
 0.42399998E+02  0.35614E+04
 0.42449997E+02  0.16792E+04
 0.42499996E+02  0.13822E+04
 0.42549999E+02 -0.20170E+04
 0.42599998E+02 -0.41138E+04
 0.42649998E+02  0.20373E+03
 0.42699997E+02  0.43837E+04
 0.42749996E+02  0.88533E+04
 0.42799995E+02  0.88152E+04
 0.42849998E+02  0.80069E+04
 0.42899998E+02  0.78810E+04
 0.42949997E+02  0.81516E+04
 0.42999996E+02  0.62193E+04
 0.43049995E+02  0.51929E+03
 0.43099998E+02  0.46271E+03
 0.43149998E+02 -0.30571E+03
 0.43199997E+02 -0.16942E+04
 0.43249996E+02 -0.16530E+04
 0.43299995E+02  0.42178E+03
 0.43349998E+02  0.44684E+04
 0.43399998E+02  0.55433E+04
 0.43449997E+02  0.90790E+04
 0.43499996E+02  0.10938E+05
 0.43549995E+02  0.76169E+04
 0.43599998E+02  0.59922E+04
 0.43649998E+02  0.42329E+04
 0.43699997E+02 -0.58576E+03
 0.43749996E+02 -0.91033E+03
 0.43799995E+02 -0.10042E+04
 0.43849998E+02 -0.27769E+04
 0.43899998E+02  0.67966E+03
 0.43949997E+02  0.40481E+04
 0.43999996E+02  0.32625E+04
 0.44049995E+02  0.21861E+04
 0.44099998E+02  0.41377E+04
 0.44149998E+02  0.54418E+04
 0.44199997E+02  0.35605E+04
 0.44249996E+02  0.35860E+04
 0.44299995E+02  0.51875E+04
 0.44349998E+02  0.40373E+04
 0.44399998E+02  0.53717E+04
 0.44449997E+02  0.32228E+04
 0.44499996E+02  0.26476E+04
 0.44549995E+02  0.50617E+04
 0.44599998E+02  0.47226E+04
 0.44649998E+02  0.51962E+04
 0.44699997E+02  0.41333E+04
 0.44749996E+02  0.36260E+04
 0.44799995E+02  0.44562E+04
 0.44849998E+02  0.63047E+04
 0.44899998E+02  0.47531E+04
 0.44949997E+02  0.25833E+04
 0.44999996E+02 -0.37817E+03
 0.45049995E+02 -0.13994E+04
 0.45099998E+02  0.18440E+04
 0.45149998E+02  0.95806E+03
 0.45199997E+02  0.10497E+04
 0.45249996E+02  0.20707E+04
 0.45299995E+02  0.13837E+04
 0.45349998E+02  0.16791E+04
 0.45399998E+02  0.37166E+04
 0.45449997E+02  0.73229E+04
 0.45499996E+02  0.56164E+04
 0.45549995E+02  0.51519E+04
 0.45599998E+02  0.77114E+04
 0.45649998E+02  0.57269E+04
 0.45699997E+02  0.39491E+04
 0.45749996E+02  0.19663E+04
 0.45799995E+02  0.73912E+03
 0.45849998E+02  0.85365E+03
 0.45899998E+02  0.54345E+03
 0.45949997E+02 -0.20627E+03
 0.45999996E+02 -0.56817E+03
 0.46049995E+02  0.54389E+03
 0.46099998E+02  0.32952E+04
 0.46149998E+02  0.49592E+04
 0.46199997E+02  0.46506E+04
 0.46249996E+02  0.65364E+04
 0.46299995E+02  0.94737E+04
 0.46349998E+02  0.85531E+04
 0.46399998E+02  0.43814E+04
 0.46449997E+02  0.41251E+04
 0.46499996E+02  0.66336E+04
 0.46549995E+02  0.46178E+04
 0.46599998E+02  0.56226E+02
 0.46649998E+02 -0.18587E+04
 0.46699997E+02 -0.25016E+04
 0.46749996E+02 -0.13279E+04
 0.46799995E+02  0.19924E+04
 0.46849998E+02  0.69618E+04
 0.46899998E+02  0.90491E+04
 0.46949997E+02  0.60826E+04
 0.46999996E+02  0.35770E+04
 0.47049995E+02  0.13138E+04
 0.47099998E+02  0.17424E+04
 0.47149998E+02  0.41880E+04
 0.47199997E+02  0.60147E+04
 0.47249996E+02  0.44238E+04
 0.47299995E+02  0.15189E+04
 0.47349998E+02  0.14561E+04
 0.47399998E+02  0.64566E+03
 0.47449997E+02  0.41330E+03
 0.47499996E+02  0.30494E+04
 0.47549995E+02  0.59437E+04
 0.47599998E+02  0.61301E+04
 0.47649998E+02  0.72054E+04
 0.47699997E+02  0.70886E+04
 0.47749996E+02  0.31815E+04
 0.47799995E+02 -0.77293E+03
 0.47849998E+02 -0.18392E+04
 0.47899998E+02  0.62146E+03
 0.47949997E+02  0.35002E+04
 0.47999996E+02  0.56225E+04
 0.48049995E+02  0.51171E+04
 0.48099998E+02  0.39883E+04
 0.48149998E+02  0.41660E+04
 0.48199997E+02  0.45031E+04
 0.48249996E+02  0.53520E+04
 0.48299995E+02  0.45872E+04
 0.48349998E+02  0.37137E+04
 0.48399998E+02  0.42059E+04
 0.48449997E+02  0.52438E+04
 0.48499996E+02  0.49076E+04
 0.48549995E+02  0.27228E+04
 0.48599998E+02  0.12274E+04
 0.48649998E+02  0.11510E+04
 0.48699997E+02  0.12559E+04
 0.48749996E+02  0.88021E+03
 0.48799995E+02  0.97700E+03
 0.48849998E+02  0.26196E+04
 0.48899998E+02  0.42351E+04
 0.48949997E+02  0.61349E+04
 0.48999996E+02  0.62959E+04
 0.49049995E+02  0.55688E+04
 0.49099998E+02  0.34493E+04
 0.49149998E+02  0.42853E+03
 0.49199997E+02 -0.50833E+03
 0.49249996E+02 -0.20049E+03
 0.49299995E+02  0.20660E+04
 0.49349998E+02  0.27693E+04
 0.49399998E+02  0.27591E+04
 0.49449997E+02  0.26754E+04
 0.49499996E+02  0.39510E+04
 0.49549995E+02  0.63444E+04
 0.49599998E+02  0.79476E+04
 0.49649998E+02  0.62771E+04
 0.49699997E+02  0.48363E+04
 0.49749996E+02  0.48481E+04
 0.49799995E+02  0.58268E+04
 0.49849998E+02  0.59127E+04
 0.49899998E+02  0.39436E+04
 0.49949997E+02  0.29140E+04
 0.49999996E+02  0.18609E+04
 0.50049995E+02  0.10785E+04
 0.50099998E+02  0.50976E+03
 0.50149998E+02  0.12863E+04
 0.50199997E+02  0.12695E+04
 0.50249996E+02  0.13899E+04
 0.50299995E+02  0.13648E+04
 0.50349998E+02  0.22282E+04
 0.50399998E+02  0.40449E+04
 0.50449997E+02  0.55168E+04
 0.50499996E+02  0.68043E+04
 0.50549995E+02  0.70739E+04
 0.50599998E+02  0.57575E+04
 0.50649998E+02  0.24599E+04
 0.50699997E+02  0.10711E+04
 0.50749996E+02  0.19407E+04
 0.50799995E+02  0.24988E+04
 0.50849998E+02  0.33858E+04
 0.50899998E+02  0.56028E+04
 0.50949997E+02  0.51067E+04
 0.50999996E+02  0.22541E+04
 0.51049995E+02  0.90722E+03
 0.51099998E+02  0.11109E+04
 0.51149998E+02  0.17683E+04
 0.51199997E+02  0.29531E+04
 0.51249996E+02  0.26944E+04
 0.51299995E+02  0.58692E+03
 0.51349998E+02  0.46366E+03
 0.51399998E+02  0.14223E+04
 0.51449997E+02  0.15691E+04
 0.51499996E+02  0.31539E+04
 0.51549995E+02  0.46581E+04
 0.51599998E+02  0.62934E+04
 0.51649998E+02  0.71223E+04
 0.51699997E+02  0.47529E+04
 0.51749996E+02  0.45863E+04
 0.51799995E+02  0.53586E+04
 0.51849998E+02  0.53880E+04
 0.51899998E+02  0.42868E+04
 0.51949997E+02  0.33320E+04
 0.51999996E+02  0.18709E+04
 0.52049995E+02  0.12028E+04
 0.52099998E+02  0.29540E+04
 0.52149998E+02  0.31221E+04
 0.52199997E+02  0.28492E+04
 0.52249996E+02  0.35941E+04
 0.52299995E+02  0.32958E+04
 0.52349998E+02  0.28218E+04
 0.52399998E+02  0.31308E+04
 0.52449997E+02  0.28880E+04
 0.52499996E+02  0.36556E+04
 0.52549995E+02  0.28335E+04
 0.52599998E+02  0.27720E+04
 0.52649998E+02  0.38598E+04
 0.52699997E+02  0.39724E+04
 0.52749996E+02  0.41881E+04
 0.52799995E+02  0.45078E+04
 0.52849998E+02  0.47863E+04
 0.52899998E+02  0.42174E+04
 0.52949997E+02  0.44565E+04
 0.52999996E+02  0.49233E+04
 0.53049995E+02  0.45003E+04
 0.53099998E+02  0.40723E+04
 0.53149998E+02  0.42604E+04
 0.53199997E+02  0.29758E+04
 0.53249996E+02  0.75200E+03
 0.53299995E+02  0.10403E+04
 0.53349998E+02  0.26389E+04
 0.53399998E+02  0.31790E+04
 0.53449997E+02  0.21218E+04
 0.53499996E+02  0.21742E+04
 0.53549995E+02  0.35916E+04
 0.53599998E+02  0.44665E+04
 0.53649998E+02  0.48917E+04
 0.53699997E+02  0.45163E+04
 0.53749996E+02  0.39437E+04
 0.53799995E+02  0.37074E+04
 0.53849998E+02  0.35012E+04
 0.53899998E+02  0.28398E+04
 0.53949997E+02  0.36428E+04
 0.53999996E+02  0.30800E+04
 0.54049995E+02 -0.42944E+03
 0.54099998E+02 -0.21450E+04
 0.54149998E+02 -0.11759E+04
 0.54199997E+02  0.91304E+03
 0.54249996E+02  0.38976E+04
 0.54299995E+02  0.57469E+04
 0.54349998E+02  0.67818E+04
 0.54399998E+02  0.72617E+04
 0.54449997E+02  0.63570E+04
 0.54499996E+02  0.56085E+04
 0.54549995E+02  0.50580E+04
 0.54599998E+02  0.48225E+04
 0.54649998E+02  0.41998E+04
 0.54699997E+02  0.27487E+04
 0.54749996E+02  0.10340E+04
 0.54799995E+02  0.42106E+03
 0.54849998E+02  0.13074E+04
 0.54899998E+02  0.14313E+04
 0.54949997E+02  0.20427E+04
 0.54999996E+02  0.37066E+04
 0.55049995E+02  0.49809E+04
 0.55099998E+02  0.59571E+04
 0.55149998E+02  0.50898E+04
 0.55199997E+02  0.42632E+04
 0.55249996E+02  0.38016E+04
 0.55299995E+02  0.36671E+04
 0.55349998E+02  0.36369E+04
 0.55399998E+02  0.21146E+04
 0.55449997E+02  0.19978E+04
 0.55499996E+02  0.29447E+04
 0.55549995E+02  0.21216E+04
 0.55599998E+02  0.24576E+04
 0.55649998E+02  0.37276E+04
 0.55699997E+02  0.35285E+04
 0.55749996E+02  0.29581E+04
 0.55799995E+02  0.22232E+04
 0.55849995E+02  0.17741E+04
 0.55899998E+02  0.27055E+04
 0.55949997E+02  0.33473E+04
 0.55999996E+02  0.29617E+04
 0.56049995E+02  0.43006E+04
 0.56099995E+02  0.46434E+04
 0.56149998E+02  0.37343E+04
 0.56199997E+02  0.38126E+04
 0.56249996E+02  0.45761E+04
 0.56299995E+02  0.43130E+04
 0.56349995E+02  0.36484E+04
 0.56399998E+02  0.33288E+04
 0.56449997E+02  0.25620E+04
 0.56499996E+02  0.33004E+04
 0.56549995E+02  0.41653E+04
 0.56599995E+02  0.50111E+04
 0.56649998E+02  0.50748E+04
 0.56699997E+02  0.44358E+04
 0.56749996E+02  0.40644E+04
 0.56799995E+02  0.28388E+04
 0.56849995E+02  0.11773E+04
 0.56899998E+02 -0.33332E+03
 0.56949997E+02 -0.90328E+03
 0.56999996E+02 -0.28679E+02
 0.57049995E+02  0.26592E+04
 0.57099995E+02  0.54861E+04
 0.57149998E+02  0.61886E+04
 0.57199997E+02  0.59086E+04
 0.57249996E+02  0.54174E+04
 0.57299995E+02  0.42027E+04
 0.57349995E+02  0.35669E+04
 0.57399998E+02  0.36630E+04
 0.57449997E+02  0.32125E+04
 0.57499996E+02  0.26131E+04
 0.57549995E+02  0.17110E+04
 0.57599995E+02  0.14133E+04
 0.57649998E+02  0.29451E+04
 0.57699997E+02  0.44537E+04
 0.57749996E+02  0.50134E+04
 0.57799995E+02  0.46606E+04
 0.57849995E+02  0.34699E+04
 0.57899998E+02  0.27487E+04
 0.57949997E+02  0.28796E+04
 0.57999996E+02  0.28424E+04
 0.58049995E+02  0.29314E+04
 0.58099995E+02  0.35060E+04
 0.58149998E+02  0.40575E+04
 0.58199997E+02  0.39183E+04
 0.58249996E+02  0.27727E+04
 0.58299995E+02  0.19866E+04
 0.58349995E+02  0.33693E+04
 0.58399998E+02  0.49746E+04
 0.58449997E+02  0.48611E+04
 0.58499996E+02  0.37283E+04
 0.58549995E+02  0.29282E+04
 0.58599995E+02  0.30492E+04
 0.58649998E+02  0.29762E+04
 0.58699997E+02  0.28377E+04
 0.58749996E+02  0.29236E+04
 0.58799995E+02  0.27436E+04
 0.58849995E+02  0.27215E+04
 0.58899998E+02  0.26404E+04
 0.58949997E+02  0.30947E+04
 0.58999996E+02  0.32028E+04
 0.59049995E+02  0.35904E+04
 0.59099995E+02  0.48676E+04
 0.59149998E+02  0.46574E+04
 0.59199997E+02  0.37816E+04
 0.59249996E+02  0.24023E+04
 0.59299995E+02  0.14957E+04
 0.59349995E+02  0.19366E+04
 0.59399998E+02  0.33186E+04
 0.59449997E+02  0.45995E+04
 0.59499996E+02  0.51371E+04
 0.59549995E+02  0.46985E+04
 0.59599995E+02  0.37606E+04
 0.59649998E+02  0.32303E+04
 0.59699997E+02  0.26630E+04
 0.59749996E+02  0.28584E+04
 0.59799995E+02  0.34896E+04
 0.59849995E+02  0.29589E+04
 0.59899998E+02  0.24319E+04
 0.59949997E+02  0.22268E+04
 0.59999996E+02  0.15978E+04
 0.60049995E+02  0.19347E+04
 0.60099995E+02  0.35018E+04
 0.60149998E+02  0.53712E+04
 0.60199997E+02  0.56082E+04
 0.60249996E+02  0.55975E+04
 0.60299995E+02  0.52043E+04
 0.60349995E+02  0.43945E+04
 0.60399998E+02  0.43976E+04
 0.60449997E+02  0.42314E+04
 0.60499996E+02  0.36909E+04
 0.60549995E+02  0.20095E+04
 0.60599995E+02  0.16436E+04
 0.60649998E+02  0.27039E+04
 0.60699997E+02  0.33544E+04
 0.60749996E+02  0.37181E+04
 0.60799995E+02  0.39439E+04
 0.60849995E+02  0.39564E+04
 0.60899998E+02  0.39991E+04
 0.60949997E+02  0.40684E+04
 0.60999996E+02  0.34847E+04
 0.61049995E+02  0.31966E+04
 0.61099995E+02  0.23604E+04
 0.61149998E+02  0.11271E+04
 0.61199997E+02  0.69900E+03
 0.61249996E+02  0.94462E+03
 0.61299995E+02  0.11636E+04
 0.61349995E+02  0.15603E+04
 0.61399998E+02  0.23743E+04
 0.61449997E+02  0.31097E+04
 0.61499996E+02  0.40452E+04
 0.61549995E+02  0.45362E+04
 0.61599995E+02  0.44758E+04
 0.61649998E+02  0.40198E+04
 0.61699997E+02  0.41903E+04
 0.61749996E+02  0.46916E+04
 0.61799995E+02  0.47839E+04
 0.61849995E+02  0.36462E+04
 0.61899998E+02  0.24649E+04
 0.61949997E+02  0.31114E+04
 0.61999996E+02  0.37504E+04
 0.62049995E+02  0.39114E+04
 0.62099998E+02  0.38533E+04
 0.62149994E+02  0.41537E+04
 0.62199997E+02  0.38560E+04
 0.62249992E+02  0.28952E+04
 0.62299995E+02  0.33147E+04
 0.62349998E+02  0.41037E+04
 0.62399994E+02  0.44841E+04
 0.62449997E+02  0.38665E+04
 0.62499992E+02  0.35170E+04
 0.62549995E+02  0.35257E+04
 0.62599998E+02  0.32438E+04
 0.62649994E+02  0.33706E+04
 0.62699997E+02  0.32958E+04
 0.62749992E+02  0.28043E+04
 0.62799995E+02  0.19149E+04
 0.62849998E+02  0.19815E+04
 0.62899994E+02  0.22438E+04
 0.62949997E+02  0.22503E+04
 0.62999992E+02  0.25584E+04
 0.63049995E+02  0.28801E+04
 0.63099998E+02  0.35164E+04
 0.63149994E+02  0.36649E+04
 0.63199997E+02  0.35965E+04
 0.63249992E+02  0.37876E+04
 0.63299995E+02  0.41278E+04
 0.63349998E+02  0.41290E+04
 0.63399994E+02  0.29478E+04
 0.63449997E+02  0.24242E+04
 0.63499992E+02  0.29696E+04
 0.63549995E+02  0.27313E+04
 0.63599998E+02  0.29215E+04
 0.63649994E+02  0.35980E+04
 0.63699997E+02  0.34807E+04
 0.63749992E+02  0.36567E+04
 0.63799995E+02  0.41155E+04
 0.63849998E+02  0.43556E+04
 0.63899994E+02  0.42832E+04
 0.63949997E+02  0.37507E+04
 0.63999992E+02  0.31704E+04
 0.64049995E+02  0.21222E+04
 0.64099998E+02  0.18033E+04
 0.64149994E+02  0.29295E+04
 0.64199997E+02  0.36762E+04
 0.64249992E+02  0.43192E+04
 0.64299995E+02  0.47022E+04
 0.64349998E+02  0.45208E+04
 0.64399994E+02  0.41869E+04
 0.64449997E+02  0.36656E+04
 0.64499992E+02  0.31944E+04
 0.64549995E+02  0.29740E+04
 0.64599998E+02  0.28787E+04
 0.64649994E+02  0.24795E+04
 0.64699997E+02  0.20934E+04
 0.64749992E+02  0.17936E+04
 0.64799995E+02  0.19014E+04
 0.64849998E+02  0.24087E+04
 0.64899994E+02  0.34283E+04
 0.64949997E+02  0.42032E+04
 0.64999992E+02  0.41937E+04
 0.65049995E+02  0.42497E+04
 0.65099998E+02  0.41660E+04
 0.65149994E+02  0.40509E+04
 0.65199997E+02  0.39073E+04
 0.65249992E+02  0.33095E+04
 0.65299995E+02  0.21867E+04
 0.65349998E+02  0.16680E+04
 0.65399994E+02  0.16608E+04
 0.65449997E+02  0.21413E+04
 0.65499992E+02  0.33647E+04
 0.65549995E+02  0.46456E+04
 0.65599998E+02  0.54320E+04
 0.65649994E+02  0.55198E+04
 0.65699997E+02  0.53251E+04
 0.65749992E+02  0.45407E+04
 0.65799995E+02  0.34267E+04
 0.65849998E+02  0.22781E+04
 0.65899994E+02  0.20074E+04
 0.65949997E+02  0.24850E+04
 0.65999992E+02  0.26825E+04
 0.66049995E+02  0.28240E+04
 0.66099998E+02  0.27432E+04
 0.66149994E+02  0.28798E+04
 0.66199997E+02  0.35616E+04
 0.66249992E+02  0.42378E+04
 0.66299995E+02  0.45909E+04
 0.66349998E+02  0.45742E+04
 0.66399994E+02  0.45728E+04
 0.66449997E+02  0.38400E+04
 0.66499992E+02  0.23469E+04
 0.66549995E+02  0.22775E+04
 0.66599998E+02  0.30476E+04
 0.66649994E+02  0.36530E+04
 0.66699997E+02  0.40205E+04
 0.66749992E+02  0.39791E+04
 0.66799995E+02  0.40173E+04
 0.66849998E+02  0.41871E+04
 0.66899994E+02  0.44041E+04
 0.66949997E+02  0.35828E+04
 0.66999992E+02  0.27503E+04
 0.67049995E+02  0.26725E+04
 0.67099998E+02  0.28460E+04
 0.67149994E+02  0.30931E+04
 0.67199997E+02  0.33373E+04
 0.67249992E+02  0.37410E+04
 0.67299995E+02  0.33321E+04
 0.67349998E+02  0.26084E+04
 0.67399994E+02  0.24593E+04
 0.67449997E+02  0.24586E+04
 0.67499992E+02  0.28375E+04
 0.67549995E+02  0.33558E+04
 0.67599998E+02  0.31922E+04
 0.67649994E+02  0.25922E+04
 0.67699997E+02  0.20141E+04
 0.67749992E+02  0.18373E+04
 0.67799995E+02  0.24757E+04
 0.67849998E+02  0.32384E+04
 0.67899994E+02  0.28384E+04
 0.67949997E+02  0.24583E+04
 0.67999992E+02  0.27322E+04
 0.68049995E+02  0.33800E+04
 0.68099998E+02  0.41991E+04
 0.68149994E+02  0.51371E+04
 0.68199997E+02  0.61238E+04
 0.68249992E+02  0.56695E+04
 0.68299995E+02  0.48222E+04
 0.68349998E+02  0.44054E+04
 0.68399994E+02  0.38854E+04
 0.68449997E+02  0.35689E+04
 0.68499992E+02  0.34716E+04
 0.68549995E+02  0.34240E+04
 0.68599998E+02  0.33064E+04
 0.68649994E+02  0.31261E+04
 0.68699997E+02  0.32051E+04
 0.68749992E+02  0.36466E+04
 0.68799995E+02  0.35632E+04
 0.68849998E+02  0.31969E+04
 0.68899994E+02  0.30234E+04
 0.68949997E+02  0.24205E+04
 0.68999992E+02  0.19011E+04
 0.69049995E+02  0.21967E+04
 0.69099998E+02  0.26972E+04
 0.69149994E+02  0.28723E+04
 0.69199997E+02  0.28890E+04
 0.69249992E+02  0.26395E+04
 0.69299995E+02  0.25257E+04
 0.69349998E+02  0.29605E+04
 0.69399994E+02  0.35877E+04
 0.69449997E+02  0.37122E+04
 0.69499992E+02  0.30550E+04
 0.69549995E+02  0.26966E+04
 0.69599998E+02  0.29882E+04
 0.69649994E+02  0.32778E+04
 0.69699997E+02  0.36518E+04
 0.69749992E+02  0.40321E+04
 0.69799995E+02  0.41946E+04
 0.69849998E+02  0.44134E+04
 0.69899994E+02  0.43542E+04
 0.69949997E+02  0.38142E+04
 0.69999992E+02  0.30086E+04
 0.70049995E+02  0.26539E+04
 0.70099998E+02  0.25996E+04
 0.70149994E+02  0.29012E+04
 0.70199997E+02  0.32332E+04
 0.70249992E+02  0.32427E+04
 0.70299995E+02  0.34388E+04
 0.70349998E+02  0.36830E+04
 0.70399994E+02  0.38788E+04
 0.70449997E+02  0.36668E+04
 0.70499992E+02  0.39132E+04
 0.70549995E+02  0.43961E+04
 0.70599998E+02  0.47265E+04
 0.70649994E+02  0.46137E+04
 0.70699997E+02  0.39318E+04
 0.70749992E+02  0.33148E+04
 0.70799995E+02  0.27834E+04
 0.70849998E+02  0.22987E+04
 0.70899994E+02  0.20551E+04
 0.70949997E+02  0.24045E+04
 0.70999992E+02  0.27607E+04
 0.71049995E+02  0.30346E+04
 0.71099998E+02  0.33566E+04
 0.71149994E+02  0.37740E+04
 0.71199997E+02  0.39941E+04
 0.71249992E+02  0.41173E+04
 0.71299995E+02  0.42719E+04
 0.71349998E+02  0.35124E+04
 0.71399994E+02  0.27381E+04
 0.71449997E+02  0.27282E+04
 0.71499992E+02  0.29500E+04
 0.71549995E+02  0.28835E+04
 0.71599998E+02  0.26731E+04
 0.71649994E+02  0.27694E+04
 0.71699997E+02  0.29140E+04
 0.71749992E+02  0.31068E+04
 0.71799995E+02  0.33802E+04
 0.71849998E+02  0.36249E+04
 0.71899994E+02  0.35784E+04
 0.71949997E+02  0.37773E+04
 0.71999992E+02  0.41174E+04
 0.72049995E+02  0.40027E+04
 0.72099998E+02  0.37893E+04
 0.72149994E+02  0.34943E+04
 0.72199997E+02  0.30188E+04
 0.72249992E+02  0.26325E+04
 0.72299995E+02  0.29343E+04
 0.72349998E+02  0.33667E+04
 0.72399994E+02  0.37379E+04
 0.72449997E+02  0.41634E+04
 0.72499992E+02  0.43054E+04
 0.72549995E+02  0.42103E+04
 0.72599998E+02  0.36777E+04
 0.72649994E+02  0.31163E+04
 0.72699997E+02  0.24643E+04
 0.72749992E+02  0.21088E+04
 0.72799995E+02  0.21276E+04
 0.72849998E+02  0.24565E+04
 0.72899994E+02  0.30066E+04
 0.72949997E+02  0.34503E+04
 0.72999992E+02  0.39878E+04
 0.73049995E+02  0.40856E+04
 0.73099998E+02  0.39513E+04
 0.73149994E+02  0.37022E+04
 0.73199997E+02  0.33584E+04
 0.73249992E+02  0.32990E+04
 0.73299995E+02  0.36715E+04
 0.73349998E+02  0.39131E+04
 0.73399994E+02  0.38989E+04
 0.73449997E+02  0.37570E+04
 0.73499992E+02  0.35112E+04
 0.73549995E+02  0.31857E+04
 0.73599998E+02  0.25463E+04
 0.73649994E+02  0.24540E+04
 0.73699997E+02  0.29019E+04
 0.73749992E+02  0.30710E+04
 0.73799995E+02  0.33528E+04
 0.73849998E+02  0.34962E+04
 0.73899994E+02  0.33072E+04
 0.73949997E+02  0.34307E+04
 0.73999992E+02  0.35561E+04
 0.74049995E+02  0.36619E+04
 0.74099998E+02  0.37640E+04
 0.74149994E+02  0.34258E+04
 0.74199997E+02  0.29972E+04
 0.74249992E+02  0.27935E+04
 0.74299995E+02  0.29034E+04
 0.74349998E+02  0.33466E+04
 0.74399994E+02  0.37805E+04
 0.74449997E+02  0.42220E+04
 0.74499992E+02  0.43744E+04
 0.74549995E+02  0.40761E+04
 0.74599998E+02  0.35493E+04
 0.74649994E+02  0.32877E+04
 0.74699997E+02  0.33093E+04
 0.74749992E+02  0.30331E+04
 0.74799995E+02  0.25859E+04
 0.74849998E+02  0.21559E+04
 0.74899994E+02  0.19001E+04
 0.74949997E+02  0.19855E+04
 0.74999992E+02  0.27234E+04
 0.75049995E+02  0.36497E+04
 0.75099998E+02  0.39660E+04
 0.75149994E+02  0.40573E+04
 0.75199997E+02  0.40299E+04
 0.75249992E+02  0.38402E+04
 0.75299995E+02  0.35951E+04
 0.75349998E+02  0.35059E+04
 0.75399994E+02  0.37467E+04
 0.75449997E+02  0.37322E+04
 0.75499992E+02  0.35744E+04
 0.75549995E+02  0.35815E+04
 0.75599998E+02  0.33151E+04
 0.75649994E+02  0.30284E+04
 0.75699997E+02  0.31699E+04
 0.75749992E+02  0.33561E+04
 0.75799995E+02  0.33809E+04
 0.75849998E+02  0.34279E+04
 0.75899994E+02  0.37042E+04
 0.75949997E+02  0.37546E+04
 0.75999992E+02  0.34918E+04
 0.76049995E+02  0.33313E+04
 0.76099998E+02  0.31126E+04
 0.76149994E+02  0.31820E+04
 0.76199997E+02  0.32869E+04
 0.76249992E+02  0.32238E+04
 0.76299995E+02  0.30300E+04
 0.76349998E+02  0.28737E+04
 0.76399994E+02  0.31576E+04
 0.76449997E+02  0.31788E+04
 0.76499992E+02  0.30081E+04
 0.76549995E+02  0.31868E+04
 0.76599998E+02  0.34840E+04
 0.76649994E+02  0.35931E+04
 0.76699997E+02  0.34985E+04
 0.76749992E+02  0.35426E+04
 0.76799995E+02  0.35306E+04
 0.76849998E+02  0.34758E+04
 0.76899994E+02  0.35236E+04
 0.76949997E+02  0.34191E+04
 0.76999992E+02  0.33910E+04
 0.77049995E+02  0.31650E+04
 0.77099998E+02  0.30394E+04
 0.77149994E+02  0.32115E+04
 0.77199997E+02  0.34360E+04
 0.77249992E+02  0.34939E+04
 0.77299995E+02  0.36355E+04
 0.77349998E+02  0.39386E+04
 0.77399994E+02  0.36203E+04
 0.77449997E+02  0.31324E+04
 0.77499992E+02  0.30452E+04
 0.77549995E+02  0.31514E+04
 0.77599998E+02  0.35006E+04
 0.77649994E+02  0.39462E+04
 0.77699997E+02  0.40016E+04
 0.77749992E+02  0.40149E+04
 0.77799995E+02  0.41227E+04
 0.77849998E+02  0.38932E+04
 0.77899994E+02  0.33021E+04
 0.77949997E+02  0.30546E+04
 0.77999992E+02  0.33168E+04
 0.78049995E+02  0.33916E+04
 0.78099998E+02  0.33096E+04
 0.78149994E+02  0.33232E+04
 0.78199997E+02  0.31922E+04
 0.78249992E+02  0.29322E+04
 0.78299995E+02  0.25784E+04
 0.78349998E+02  0.25335E+04
 0.78399994E+02  0.26282E+04
 0.78449997E+02  0.26142E+04
 0.78499992E+02  0.27070E+04
 0.78549995E+02  0.26571E+04
 0.78599998E+02  0.25410E+04
 0.78649994E+02  0.24060E+04
 0.78699997E+02  0.23460E+04
 0.78749992E+02  0.27207E+04
 0.78799995E+02  0.32466E+04
 0.78849998E+02  0.36245E+04
 0.78899994E+02  0.40648E+04
 0.78949997E+02  0.43205E+04
 0.78999992E+02  0.43545E+04
 0.79049995E+02  0.41459E+04
 0.79099998E+02  0.35731E+04
 0.79149994E+02  0.29988E+04
 0.79199997E+02  0.27045E+04
 0.79249992E+02  0.27297E+04
 0.79299995E+02  0.30363E+04
 0.79349998E+02  0.32995E+04
 0.79399994E+02  0.33623E+04
 0.79449997E+02  0.35000E+04
 0.79499992E+02  0.37325E+04
 0.79549995E+02  0.38498E+04
 0.79599998E+02  0.37941E+04
 0.79649994E+02  0.37499E+04
 0.79699997E+02  0.37232E+04
 0.79749992E+02  0.36377E+04
 0.79799995E+02  0.36108E+04
 0.79849998E+02  0.38564E+04
 0.79899994E+02  0.40470E+04
 0.79949997E+02  0.38011E+04
 0.79999992E+02  0.35394E+04
 0.80049995E+02  0.34807E+04
 0.80099998E+02  0.33133E+04
 0.80149994E+02  0.32375E+04
 0.80199997E+02  0.35450E+04
 0.80249992E+02  0.35939E+04
 0.80299995E+02  0.31699E+04
 0.80349998E+02  0.26830E+04
 0.80399994E+02  0.26613E+04
 0.80449997E+02  0.30164E+04
 0.80499992E+02  0.34932E+04
 0.80549995E+02  0.40196E+04
 0.80599998E+02  0.43203E+04
 0.80649994E+02  0.43650E+04
 0.80699997E+02  0.40231E+04
 0.80749992E+02  0.35440E+04
 0.80799995E+02  0.31139E+04
 0.80849998E+02  0.28503E+04
 0.80899994E+02  0.28032E+04
 0.80949997E+02  0.28304E+04
 0.80999992E+02  0.32363E+04
 0.81049995E+02  0.40063E+04
 0.81099998E+02  0.44322E+04
 0.81149994E+02  0.43361E+04
 0.81199997E+02  0.37663E+04
 0.81249992E+02  0.28989E+04
 0.81299995E+02  0.22442E+04
 0.81349998E+02  0.20081E+04
 0.81399994E+02  0.22801E+04
 0.81449997E+02  0.27758E+04
 0.81499992E+02  0.31703E+04
 0.81549995E+02  0.34370E+04
 0.81599998E+02  0.34478E+04
 0.81649994E+02  0.33756E+04
 0.81699997E+02  0.33325E+04
 0.81749992E+02  0.31971E+04
 0.81799995E+02  0.33174E+04
 0.81849998E+02  0.37073E+04
 0.81899994E+02  0.41540E+04
 0.81949997E+02  0.42654E+04
 0.81999992E+02  0.38785E+04
 0.82049995E+02  0.33248E+04
 0.82099998E+02  0.28823E+04
 0.82149994E+02  0.27423E+04
 0.82199997E+02  0.27015E+04
 0.82249992E+02  0.28410E+04
 0.82299995E+02  0.32854E+04
 0.82349998E+02  0.35936E+04
 0.82399994E+02  0.36303E+04
 0.82449997E+02  0.36037E+04
 0.82499992E+02  0.33697E+04
 0.82549995E+02  0.31631E+04
 0.82599998E+02  0.32226E+04
 0.82649994E+02  0.32843E+04
 0.82699997E+02  0.32146E+04
 0.82749992E+02  0.32107E+04
 0.82799995E+02  0.34265E+04
 0.82849998E+02  0.35878E+04
 0.82899994E+02  0.37125E+04
 0.82949997E+02  0.36658E+04
 0.82999992E+02  0.36278E+04
 0.83049995E+02  0.36460E+04
 0.83099998E+02  0.36357E+04
 0.83149994E+02  0.37979E+04
 0.83199997E+02  0.39263E+04
 0.83249992E+02  0.40625E+04
 0.83299995E+02  0.41609E+04
 0.83349998E+02  0.41005E+04
 0.83399994E+02  0.38587E+04
 0.83449997E+02  0.35866E+04
 0.83499992E+02  0.31908E+04
 0.83549995E+02  0.27937E+04
 0.83599998E+02  0.24106E+04
 0.83649994E+02  0.20119E+04
 0.83699997E+02  0.17857E+04
 0.83749992E+02  0.19395E+04
 0.83799995E+02  0.24142E+04
 0.83849998E+02  0.29419E+04
 0.83899994E+02  0.35427E+04
 0.83949997E+02  0.38923E+04
 0.83999992E+02  0.41456E+04
 0.84049995E+02  0.41500E+04
 0.84099998E+02  0.38106E+04
 0.84149994E+02  0.34017E+04
 0.84199997E+02  0.30262E+04
 0.84249992E+02  0.28565E+04
 0.84299995E+02  0.29139E+04
 0.84349998E+02  0.30741E+04
 0.84399994E+02  0.33554E+04
 0.84449997E+02  0.36084E+04
 0.84499992E+02  0.36689E+04
 0.84549995E+02  0.38538E+04
 0.84599998E+02  0.40607E+04
 0.84649994E+02  0.42324E+04
 0.84699997E+02  0.39737E+04
 0.84749992E+02  0.32468E+04
 0.84799995E+02  0.28012E+04
 0.84849998E+02  0.27065E+04
 0.84899994E+02  0.29616E+04
 0.84949997E+02  0.33913E+04
 0.84999992E+02  0.36193E+04
 0.85049995E+02  0.36136E+04
 0.85099998E+02  0.35678E+04
 0.85149994E+02  0.34219E+04
 0.85199997E+02  0.31797E+04
 0.85249992E+02  0.30867E+04
 0.85299995E+02  0.31504E+04
 0.85349998E+02  0.32906E+04
 0.85399994E+02  0.30956E+04
 0.85449997E+02  0.28945E+04
 0.85499992E+02  0.29538E+04
 0.85549995E+02  0.30490E+04
 0.85599998E+02  0.31186E+04
 0.85649994E+02  0.31272E+04
 0.85699997E+02  0.30634E+04
 0.85749992E+02  0.29797E+04
 0.85799995E+02  0.31358E+04
 0.85849998E+02  0.33590E+04
 0.85899994E+02  0.35435E+04
 0.85949997E+02  0.38117E+04
 0.85999992E+02  0.40683E+04
 0.86049995E+02  0.41551E+04
 0.86099998E+02  0.40258E+04
 0.86149994E+02  0.37763E+04
 0.86199997E+02  0.35108E+04
 0.86249992E+02  0.34053E+04
 0.86299995E+02  0.34006E+04
 0.86349998E+02  0.32490E+04
 0.86399994E+02  0.30052E+04
 0.86449997E+02  0.27984E+04
 0.86499992E+02  0.27656E+04
 0.86549995E+02  0.29096E+04
 0.86599998E+02  0.32847E+04
 0.86649994E+02  0.36283E+04
 0.86699997E+02  0.39284E+04
 0.86749992E+02  0.41035E+04
 0.86799995E+02  0.37651E+04
 0.86849998E+02  0.32815E+04
 0.86899994E+02  0.30242E+04
 0.86949997E+02  0.29720E+04
 0.86999992E+02  0.29899E+04
 0.87049995E+02  0.30021E+04
 0.87099998E+02  0.27406E+04
 0.87149994E+02  0.23394E+04
 0.87199997E+02  0.21944E+04
 0.87249992E+02  0.24323E+04
 0.87299995E+02  0.30578E+04
 0.87349998E+02  0.37094E+04
 0.87399994E+02  0.40183E+04
 0.87449997E+02  0.39232E+04
 0.87499992E+02  0.35384E+04
 0.87549995E+02  0.30767E+04
 0.87599991E+02  0.26687E+04
 0.87649994E+02  0.25632E+04
 0.87699997E+02  0.27396E+04
 0.87749992E+02  0.29517E+04
 0.87799995E+02  0.33585E+04
 0.87849991E+02  0.37254E+04
 0.87899994E+02  0.39854E+04
 0.87949997E+02  0.42299E+04
 0.87999992E+02  0.43898E+04
 0.88049995E+02  0.45574E+04
 0.88099991E+02  0.45148E+04
 0.88149994E+02  0.42890E+04
 0.88199997E+02  0.39404E+04
 0.88249992E+02  0.36245E+04
 0.88299995E+02  0.34470E+04
 0.88349991E+02  0.34564E+04
 0.88399994E+02  0.36122E+04
 0.88449997E+02  0.36528E+04
 0.88499992E+02  0.36411E+04
 0.88549995E+02  0.35566E+04
 0.88599991E+02  0.34648E+04
 0.88649994E+02  0.33494E+04
 0.88699997E+02  0.31399E+04
 0.88749992E+02  0.28760E+04
 0.88799995E+02  0.25717E+04
 0.88849991E+02  0.24637E+04
 0.88899994E+02  0.26851E+04
 0.88949997E+02  0.29301E+04
 0.88999992E+02  0.31198E+04
 0.89049995E+02  0.32419E+04
 0.89099991E+02  0.32645E+04
 0.89149994E+02  0.33588E+04
 0.89199997E+02  0.35217E+04
 0.89249992E+02  0.34544E+04
 0.89299995E+02  0.33392E+04
 0.89349991E+02  0.34515E+04
 0.89399994E+02  0.34684E+04
 0.89449997E+02  0.35937E+04
 0.89499992E+02  0.36585E+04
 0.89549995E+02  0.34347E+04
 0.89599991E+02  0.31601E+04
 0.89649994E+02  0.30319E+04
 0.89699997E+02  0.30394E+04
 0.89749992E+02  0.31373E+04
 0.89799995E+02  0.34323E+04
 0.89849991E+02  0.36050E+04
 0.89899994E+02  0.35321E+04
 0.89949997E+02  0.33971E+04
 0.89999992E+02  0.33327E+04
 0.90049995E+02  0.33152E+04
 0.90099991E+02  0.33203E+04
 0.90149994E+02  0.33695E+04
 0.90199997E+02  0.34683E+04
 0.90249992E+02  0.36740E+04
 0.90299995E+02  0.38999E+04
 0.90349991E+02  0.39327E+04
 0.90399994E+02  0.36209E+04
 0.90449997E+02  0.31852E+04
 0.90499992E+02  0.30837E+04
 0.90549995E+02  0.31512E+04
 0.90599991E+02  0.33057E+04
 0.90649994E+02  0.34153E+04
 0.90699997E+02  0.34511E+04
 0.90749992E+02  0.36022E+04
 0.90799995E+02  0.36958E+04
 0.90849991E+02  0.37465E+04
 0.90899994E+02  0.36199E+04
 0.90949997E+02  0.34532E+04
 0.90999992E+02  0.32478E+04
 0.91049995E+02  0.30366E+04
 0.91099991E+02  0.29557E+04
 0.91149994E+02  0.29923E+04
 0.91199997E+02  0.29483E+04
 0.91249992E+02  0.28764E+04
 0.91299995E+02  0.31113E+04
 0.91349991E+02  0.34260E+04
 0.91399994E+02  0.34570E+04
 0.91449997E+02  0.33217E+04
 0.91499992E+02  0.33680E+04
 0.91549995E+02  0.33666E+04
 0.91599991E+02  0.32952E+04
 0.91649994E+02  0.31655E+04
 0.91699997E+02  0.30372E+04
 0.91749992E+02  0.30528E+04
 0.91799995E+02  0.32017E+04
 0.91849991E+02  0.32239E+04
 0.91899994E+02  0.29961E+04
 0.91949997E+02  0.29194E+04
 0.91999992E+02  0.31144E+04
 0.92049995E+02  0.34390E+04
 0.92099991E+02  0.37320E+04
 0.92149994E+02  0.39688E+04
 0.92199997E+02  0.39956E+04
 0.92249992E+02  0.38477E+04
 0.92299995E+02  0.36569E+04
 0.92349991E+02  0.35366E+04
 0.92399994E+02  0.35834E+04
 0.92449997E+02  0.36078E+04
 0.92499992E+02  0.34774E+04
 0.92549995E+02  0.32829E+04
 0.92599991E+02  0.31912E+04
 0.92649994E+02  0.32818E+04
 0.92699997E+02  0.34753E+04
 0.92749992E+02  0.35255E+04
 0.92799995E+02  0.36093E+04
 0.92849991E+02  0.37583E+04
 0.92899994E+02  0.37554E+04
 0.92949997E+02  0.35370E+04
 0.92999992E+02  0.31908E+04
 0.93049995E+02  0.29767E+04
 0.93099991E+02  0.28660E+04
 0.93149994E+02  0.28586E+04
 0.93199997E+02  0.29286E+04
 0.93249992E+02  0.28982E+04
 0.93299995E+02  0.28756E+04
 0.93349991E+02  0.29541E+04
 0.93399994E+02  0.30875E+04
 0.93449997E+02  0.32523E+04
 0.93499992E+02  0.33225E+04
 0.93549995E+02  0.33989E+04
 0.93599991E+02  0.34573E+04
 0.93649994E+02  0.35422E+04
 0.93699997E+02  0.36239E+04
 0.93749992E+02  0.36391E+04
 0.93799995E+02  0.37026E+04
 0.93849991E+02  0.36942E+04
 0.93899994E+02  0.36944E+04
 0.93949997E+02  0.35944E+04
 0.93999992E+02  0.33051E+04
 0.94049995E+02  0.30944E+04
 0.94099991E+02  0.30985E+04
 0.94149994E+02  0.32014E+04
 0.94199997E+02  0.32830E+04
 0.94249992E+02  0.34099E+04
 0.94299995E+02  0.36673E+04
 0.94349991E+02  0.38553E+04
 0.94399994E+02  0.39148E+04
 0.94449997E+02  0.39162E+04
 0.94499992E+02  0.37640E+04
 0.94549995E+02  0.35610E+04
 0.94599991E+02  0.33641E+04
 0.94649994E+02  0.32119E+04
 0.94699997E+02  0.30444E+04
 0.94749992E+02  0.29366E+04
 0.94799995E+02  0.28430E+04
 0.94849991E+02  0.26427E+04
 0.94899994E+02  0.25361E+04
 0.94949997E+02  0.26466E+04
 0.94999992E+02  0.29653E+04
 0.95049995E+02  0.32373E+04
 0.95099991E+02  0.35703E+04
 0.95149994E+02  0.39150E+04
 0.95199997E+02  0.40338E+04
 0.95249992E+02  0.39629E+04
 0.95299995E+02  0.37077E+04
 0.95349991E+02  0.34040E+04
 0.95399994E+02  0.31707E+04
 0.95449997E+02  0.30277E+04
 0.95499992E+02  0.29633E+04
 0.95549995E+02  0.30562E+04
 0.95599991E+02  0.32257E+04
 0.95649994E+02  0.33763E+04
 0.95699997E+02  0.34368E+04
 0.95749992E+02  0.34029E+04
 0.95799995E+02  0.33766E+04
 0.95849991E+02  0.33749E+04
 0.95899994E+02  0.34914E+04
 0.95949997E+02  0.35073E+04
 0.95999992E+02  0.34179E+04
 0.96049995E+02  0.32783E+04
 0.96099991E+02  0.31888E+04
 0.96149994E+02  0.31989E+04
 0.96199997E+02  0.31284E+04
 0.96249992E+02  0.31133E+04
 0.96299995E+02  0.32211E+04
 0.96349991E+02  0.33262E+04
 0.96399994E+02  0.33562E+04
 0.96449997E+02  0.35261E+04
 0.96499992E+02  0.37788E+04
 0.96549995E+02  0.39587E+04
 0.96599991E+02  0.39451E+04
 0.96649994E+02  0.37693E+04
 0.96699997E+02  0.35258E+04
 0.96749992E+02  0.32086E+04
 0.96799995E+02  0.29481E+04
 0.96849991E+02  0.28686E+04
 0.96899994E+02  0.30458E+04
 0.96949997E+02  0.33079E+04
 0.96999992E+02  0.33866E+04
 0.97049995E+02  0.33972E+04
 0.97099991E+02  0.34264E+04
 0.97149994E+02  0.33280E+04
 0.97199997E+02  0.31657E+04
 0.97249992E+02  0.30552E+04
 0.97299995E+02  0.30475E+04
 0.97349991E+02  0.31594E+04
 0.97399994E+02  0.34274E+04
 0.97449997E+02  0.36316E+04
 0.97499992E+02  0.37342E+04
 0.97549995E+02  0.37822E+04
 0.97599991E+02  0.37512E+04
 0.97649994E+02  0.37178E+04
 0.97699997E+02  0.36484E+04
 0.97749992E+02  0.35740E+04
 0.97799995E+02  0.33996E+04
 0.97849991E+02  0.31529E+04
 0.97899994E+02  0.30229E+04
 0.97949997E+02  0.30908E+04
 0.97999992E+02  0.32445E+04
