-0.20000000E+01 -0.14637E+05
-0.19500000E+01 -0.14288E+05
-0.19000000E+01 -0.14090E+05
-0.18500000E+01 -0.13857E+05
-0.18000000E+01 -0.13637E+05
-0.17500000E+01 -0.13422E+05
-0.17000000E+01 -0.13278E+05
-0.16500001E+01 -0.13155E+05
-0.16000000E+01 -0.13108E+05
-0.15500000E+01 -0.13126E+05
-0.15000000E+01 -0.13171E+05
-0.14500000E+01 -0.13294E+05
-0.14000001E+01 -0.13450E+05
-0.13500000E+01 -0.13644E+05
-0.13000001E+01 -0.13855E+05
-0.12500000E+01 -0.14083E+05
-0.12000000E+01 -0.14288E+05
-0.11500001E+01 -0.14469E+05
-0.11000000E+01 -0.14623E+05
-0.10500001E+01 -0.14736E+05
-0.10000000E+01 -0.14801E+05
-0.95000005E+00 -0.14825E+05
-0.90000010E+00 -0.14832E+05
-0.85000002E+00 -0.14833E+05
-0.80000007E+00 -0.14789E+05
-0.75000012E+00 -0.14715E+05
-0.70000005E+00 -0.14625E+05
-0.65000010E+00 -0.14486E+05
-0.60000014E+00 -0.14347E+05
-0.55000007E+00 -0.14193E+05
-0.50000012E+00 -0.14004E+05
-0.45000005E+00 -0.13827E+05
-0.40000010E+00 -0.13668E+05
-0.35000014E+00 -0.13528E+05
-0.30000007E+00 -0.13417E+05
-0.25000012E+00 -0.13364E+05
-0.20000005E+00 -0.13357E+05
-0.15000010E+00 -0.13383E+05
-0.10000014E+00 -0.13439E+05
-0.50000072E-01 -0.13514E+05
-0.11920929E-06 -0.13579E+05
 0.49999952E-01 -0.13628E+05
 0.99999905E-01 -0.13648E+05
 0.14999986E+00 -0.13646E+05
 0.19999981E+00 -0.13653E+05
 0.24999976E+00 -0.13663E+05
 0.29999995E+00 -0.13672E+05
 0.34999990E+00 -0.13690E+05
 0.39999986E+00 -0.13729E+05
 0.44999981E+00 -0.13759E+05
 0.49999976E+00 -0.13795E+05
 0.54999995E+00 -0.13828E+05
 0.59999990E+00 -0.13895E+05
 0.64999986E+00 -0.13958E+05
 0.69999981E+00 -0.14014E+05
 0.74999976E+00 -0.14076E+05
 0.79999971E+00 -0.14143E+05
 0.84999990E+00 -0.14227E+05
 0.89999986E+00 -0.14289E+05
 0.94999981E+00 -0.14349E+05
 0.99999976E+00 -0.14404E+05
 0.10499997E+01 -0.14436E+05
 0.10999999E+01 -0.14462E+05
 0.11499999E+01 -0.14489E+05
 0.11999998E+01 -0.14509E+05
 0.12499998E+01 -0.14532E+05
 0.12999997E+01 -0.14551E+05
 0.13499999E+01 -0.14551E+05
 0.13999999E+01 -0.14533E+05
 0.14499998E+01 -0.14504E+05
 0.14999998E+01 -0.14465E+05
 0.15499997E+01 -0.14399E+05
 0.15999999E+01 -0.14337E+05
 0.16499999E+01 -0.14284E+05
 0.16999998E+01 -0.14222E+05
 0.17499998E+01 -0.14133E+05
 0.17999997E+01 -0.14013E+05
 0.18499997E+01 -0.13886E+05
 0.18999999E+01 -0.13777E+05
 0.19499998E+01 -0.13727E+05
 0.19999998E+01 -0.13709E+05
 0.20499997E+01 -0.13703E+05
 0.20999999E+01 -0.13726E+05
 0.21499996E+01 -0.13798E+05
 0.21999998E+01 -0.13882E+05
 0.22499995E+01 -0.13950E+05
 0.22999997E+01 -0.14012E+05
 0.23499999E+01 -0.14082E+05
 0.23999996E+01 -0.14180E+05
 0.24499998E+01 -0.14250E+05
 0.24999995E+01 -0.14298E+05
 0.25499997E+01 -0.14321E+05
 0.25999999E+01 -0.14331E+05
 0.26499996E+01 -0.14344E+05
 0.26999998E+01 -0.14346E+05
 0.27499995E+01 -0.14389E+05
 0.27999997E+01 -0.14406E+05
 0.28499999E+01 -0.14393E+05
 0.28999996E+01 -0.14353E+05
 0.29499998E+01 -0.14279E+05
 0.29999995E+01 -0.14179E+05
 0.30499997E+01 -0.14038E+05
 0.30999999E+01 -0.13885E+05
 0.31499996E+01 -0.13743E+05
 0.31999998E+01 -0.13641E+05
 0.32499995E+01 -0.13551E+05
 0.32999997E+01 -0.13483E+05
 0.33499999E+01 -0.13416E+05
 0.33999996E+01 -0.13369E+05
 0.34499998E+01 -0.13357E+05
 0.34999995E+01 -0.13351E+05
 0.35499997E+01 -0.13364E+05
 0.35999994E+01 -0.13388E+05
 0.36499996E+01 -0.13456E+05
 0.36999998E+01 -0.13581E+05
 0.37499995E+01 -0.13745E+05
 0.37999997E+01 -0.13943E+05
 0.38499994E+01 -0.14141E+05
 0.38999996E+01 -0.14304E+05
 0.39499998E+01 -0.14428E+05
 0.39999995E+01 -0.14505E+05
 0.40499997E+01 -0.14561E+05
 0.40999994E+01 -0.14606E+05
 0.41499996E+01 -0.14613E+05
 0.41999998E+01 -0.14594E+05
 0.42499995E+01 -0.14520E+05
 0.42999997E+01 -0.14407E+05
 0.43499994E+01 -0.14303E+05
 0.43999996E+01 -0.14162E+05
 0.44499998E+01 -0.14041E+05
 0.44999995E+01 -0.13981E+05
 0.45499997E+01 -0.13953E+05
 0.45999994E+01 -0.13994E+05
 0.46499996E+01 -0.14065E+05
 0.46999998E+01 -0.14153E+05
 0.47499995E+01 -0.14266E+05
 0.47999997E+01 -0.14406E+05
 0.48499994E+01 -0.14568E+05
 0.48999996E+01 -0.14714E+05
 0.49499998E+01 -0.14854E+05
 0.49999995E+01 -0.14957E+05
 0.50499997E+01 -0.14982E+05
 0.50999994E+01 -0.14943E+05
 0.51499996E+01 -0.14838E+05
 0.51999998E+01 -0.14671E+05
 0.52499995E+01 -0.14467E+05
 0.52999997E+01 -0.14215E+05
 0.53499994E+01 -0.13967E+05
 0.53999996E+01 -0.13720E+05
 0.54499993E+01 -0.13493E+05
 0.54999995E+01 -0.13313E+05
 0.55499997E+01 -0.13167E+05
 0.55999994E+01 -0.13076E+05
 0.56499996E+01 -0.13039E+05
 0.56999993E+01 -0.13063E+05
 0.57499995E+01 -0.13138E+05
 0.57999997E+01 -0.13239E+05
 0.58499994E+01 -0.13362E+05
 0.58999996E+01 -0.13496E+05
 0.59499993E+01 -0.13613E+05
 0.59999995E+01 -0.13725E+05
 0.60499992E+01 -0.13808E+05
 0.60999994E+01 -0.13887E+05
 0.61499996E+01 -0.13968E+05
 0.61999998E+01 -0.14058E+05
 0.62499990E+01 -0.14149E+05
 0.62999992E+01 -0.14220E+05
 0.63499994E+01 -0.14292E+05
 0.63999996E+01 -0.14327E+05
 0.64499998E+01 -0.14326E+05
 0.64999990E+01 -0.14290E+05
 0.65499992E+01 -0.14213E+05
 0.65999994E+01 -0.14130E+05
 0.66499996E+01 -0.14057E+05
 0.66999998E+01 -0.13975E+05
 0.67499990E+01 -0.13892E+05
 0.67999992E+01 -0.13815E+05
 0.68499994E+01 -0.13767E+05
 0.68999996E+01 -0.13750E+05
 0.69499998E+01 -0.13753E+05
 0.69999990E+01 -0.13785E+05
 0.70499992E+01 -0.13852E+05
 0.70999994E+01 -0.13953E+05
 0.71499996E+01 -0.14079E+05
 0.71999998E+01 -0.14225E+05
 0.72499990E+01 -0.14367E+05
 0.72999992E+01 -0.14518E+05
 0.73499994E+01 -0.14636E+05
 0.73999996E+01 -0.14720E+05
 0.74499998E+01 -0.14805E+05
 0.74999990E+01 -0.14852E+05
 0.75499992E+01 -0.14852E+05
 0.75999994E+01 -0.14813E+05
 0.76499996E+01 -0.14755E+05
 0.76999998E+01 -0.14664E+05
 0.77499990E+01 -0.14531E+05
 0.77999992E+01 -0.14372E+05
 0.78499994E+01 -0.14194E+05
 0.78999996E+01 -0.14021E+05
 0.79499998E+01 -0.13840E+05
 0.79999990E+01 -0.13641E+05
 0.80499992E+01 -0.13446E+05
 0.80999994E+01 -0.13269E+05
 0.81499996E+01 -0.13134E+05
 0.81999998E+01 -0.13027E+05
 0.82499990E+01 -0.12951E+05
 0.82999992E+01 -0.12916E+05
 0.83499994E+01 -0.12897E+05
 0.83999996E+01 -0.12921E+05
 0.84499998E+01 -0.13001E+05
 0.84999990E+01 -0.13134E+05
 0.85499992E+01 -0.13306E+05
 0.85999994E+01 -0.13507E+05
 0.86499996E+01 -0.13707E+05
 0.86999998E+01 -0.13917E+05
 0.87499990E+01 -0.14117E+05
 0.87999992E+01 -0.14291E+05
 0.88499994E+01 -0.14470E+05
 0.88999996E+01 -0.14642E+05
 0.89499998E+01 -0.14815E+05
 0.89999990E+01 -0.14959E+05
 0.90499992E+01 -0.15053E+05
 0.90999994E+01 -0.15129E+05
 0.91499996E+01 -0.15158E+05
 0.91999989E+01 -0.15158E+05
 0.92499990E+01 -0.15146E+05
 0.92999992E+01 -0.15109E+05
 0.93499994E+01 -0.15065E+05
 0.93999996E+01 -0.14996E+05
 0.94499989E+01 -0.14922E+05
 0.94999990E+01 -0.14825E+05
 0.95499992E+01 -0.14698E+05
 0.95999994E+01 -0.14571E+05
 0.96499996E+01 -0.14442E+05
 0.96999989E+01 -0.14301E+05
 0.97499990E+01 -0.14176E+05
 0.97999992E+01 -0.14045E+05
 0.98499994E+01 -0.13897E+05
 0.98999996E+01 -0.13778E+05
 0.99499989E+01 -0.13689E+05
 0.99999990E+01 -0.13605E+05
 0.10049999E+02 -0.13546E+05
 0.10099999E+02 -0.13498E+05
 0.10150000E+02 -0.13498E+05
 0.10199999E+02 -0.13494E+05
 0.10249999E+02 -0.13485E+05
 0.10299999E+02 -0.13503E+05
 0.10349999E+02 -0.13517E+05
 0.10400000E+02 -0.13587E+05
 0.10449999E+02 -0.13651E+05
 0.10499999E+02 -0.13691E+05
 0.10549999E+02 -0.13736E+05
 0.10599999E+02 -0.13762E+05
 0.10650000E+02 -0.13814E+05
 0.10699999E+02 -0.13849E+05
 0.10749999E+02 -0.13853E+05
 0.10799999E+02 -0.13858E+05
 0.10849999E+02 -0.13856E+05
 0.10900000E+02 -0.13886E+05
 0.10949999E+02 -0.13906E+05
 0.10999999E+02 -0.13897E+05
 0.11049999E+02 -0.13883E+05
 0.11099999E+02 -0.13862E+05
 0.11150000E+02 -0.13866E+05
 0.11199999E+02 -0.13869E+05
 0.11249999E+02 -0.13866E+05
 0.11299999E+02 -0.13844E+05
 0.11349999E+02 -0.13792E+05
 0.11400000E+02 -0.13752E+05
 0.11449999E+02 -0.13720E+05
 0.11499999E+02 -0.13724E+05
 0.11549999E+02 -0.13745E+05
 0.11599999E+02 -0.13765E+05
 0.11650000E+02 -0.13792E+05
 0.11699999E+02 -0.13843E+05
 0.11749999E+02 -0.13900E+05
 0.11799999E+02 -0.13982E+05
 0.11849999E+02 -0.14073E+05
 0.11900000E+02 -0.14167E+05
 0.11949999E+02 -0.14250E+05
 0.11999999E+02 -0.14308E+05
 0.12049999E+02 -0.14353E+05
 0.12099999E+02 -0.14347E+05
 0.12150000E+02 -0.14320E+05
 0.12199999E+02 -0.14291E+05
 0.12249999E+02 -0.14265E+05
 0.12299999E+02 -0.14226E+05
 0.12349999E+02 -0.14194E+05
 0.12400000E+02 -0.14192E+05
 0.12449999E+02 -0.14206E+05
 0.12499999E+02 -0.14218E+05
 0.12549999E+02 -0.14241E+05
 0.12599999E+02 -0.14269E+05
 0.12649999E+02 -0.14294E+05
 0.12699999E+02 -0.14325E+05
 0.12749999E+02 -0.14348E+05
 0.12799999E+02 -0.14364E+05
 0.12849999E+02 -0.14384E+05
 0.12899999E+02 -0.14385E+05
 0.12949999E+02 -0.14371E+05
 0.12999999E+02 -0.14353E+05
 0.13049999E+02 -0.14334E+05
 0.13099999E+02 -0.14319E+05
 0.13149999E+02 -0.14288E+05
 0.13199999E+02 -0.14242E+05
 0.13249999E+02 -0.14181E+05
 0.13299999E+02 -0.14099E+05
 0.13349999E+02 -0.14029E+05
 0.13399999E+02 -0.13979E+05
 0.13449999E+02 -0.13953E+05
 0.13499999E+02 -0.13965E+05
 0.13549999E+02 -0.13997E+05
 0.13599999E+02 -0.14043E+05
 0.13649999E+02 -0.14073E+05
 0.13699999E+02 -0.14098E+05
 0.13749999E+02 -0.14134E+05
 0.13799999E+02 -0.14179E+05
 0.13849999E+02 -0.14219E+05
 0.13899999E+02 -0.14243E+05
 0.13949999E+02 -0.14263E+05
 0.13999999E+02 -0.14273E+05
 0.14049999E+02 -0.14247E+05
 0.14099998E+02 -0.14182E+05
 0.14150000E+02 -0.14088E+05
 0.14199999E+02 -0.13951E+05
 0.14249998E+02 -0.13817E+05
 0.14299999E+02 -0.13704E+05
 0.14349998E+02 -0.13599E+05
 0.14400000E+02 -0.13521E+05
 0.14449999E+02 -0.13460E+05
 0.14499998E+02 -0.13432E+05
 0.14549999E+02 -0.13437E+05
 0.14599998E+02 -0.13466E+05
 0.14650000E+02 -0.13531E+05
 0.14699999E+02 -0.13590E+05
 0.14749998E+02 -0.13636E+05
 0.14799999E+02 -0.13667E+05
 0.14849998E+02 -0.13686E+05
 0.14900000E+02 -0.13719E+05
 0.14949999E+02 -0.13730E+05
 0.14999998E+02 -0.13732E+05
 0.15049999E+02 -0.13736E+05
 0.15099998E+02 -0.13720E+05
 0.15150000E+02 -0.13733E+05
 0.15199999E+02 -0.13760E+05
 0.15249998E+02 -0.13781E+05
 0.15299999E+02 -0.13831E+05
 0.15349998E+02 -0.13881E+05
 0.15400000E+02 -0.13949E+05
 0.15449999E+02 -0.14028E+05
 0.15499998E+02 -0.14111E+05
 0.15549999E+02 -0.14225E+05
 0.15599998E+02 -0.14329E+05
 0.15650000E+02 -0.14434E+05
 0.15699999E+02 -0.14540E+05
 0.15749998E+02 -0.14641E+05
 0.15799999E+02 -0.14739E+05
 0.15849998E+02 -0.14805E+05
 0.15900000E+02 -0.14845E+05
 0.15949999E+02 -0.14862E+05
 0.15999998E+02 -0.14858E+05
 0.16049999E+02 -0.14843E+05
 0.16099998E+02 -0.14800E+05
 0.16150000E+02 -0.14729E+05
 0.16199999E+02 -0.14617E+05
 0.16249998E+02 -0.14463E+05
 0.16299999E+02 -0.14297E+05
 0.16349998E+02 -0.14120E+05
 0.16400000E+02 -0.13945E+05
 0.16449999E+02 -0.13778E+05
 0.16499998E+02 -0.13631E+05
 0.16549999E+02 -0.13527E+05
 0.16599998E+02 -0.13481E+05
 0.16650000E+02 -0.13474E+05
 0.16699999E+02 -0.13524E+05
 0.16749998E+02 -0.13621E+05
 0.16799999E+02 -0.13738E+05
 0.16849998E+02 -0.13880E+05
 0.16900000E+02 -0.14026E+05
 0.16949999E+02 -0.14163E+05
 0.16999998E+02 -0.14280E+05
 0.17049999E+02 -0.14362E+05
 0.17099998E+02 -0.14404E+05
 0.17150000E+02 -0.14394E+05
 0.17199999E+02 -0.14349E+05
 0.17249998E+02 -0.14280E+05
 0.17299999E+02 -0.14185E+05
 0.17349998E+02 -0.14088E+05
 0.17400000E+02 -0.13989E+05
 0.17449999E+02 -0.13901E+05
 0.17499998E+02 -0.13819E+05
 0.17549999E+02 -0.13743E+05
 0.17599998E+02 -0.13687E+05
 0.17650000E+02 -0.13668E+05
 0.17699999E+02 -0.13659E+05
 0.17749998E+02 -0.13676E+05
 0.17799999E+02 -0.13714E+05
 0.17849998E+02 -0.13775E+05
 0.17900000E+02 -0.13870E+05
 0.17949999E+02 -0.13971E+05
 0.17999998E+02 -0.14072E+05
 0.18049999E+02 -0.14184E+05
 0.18099998E+02 -0.14308E+05
 0.18150000E+02 -0.14429E+05
 0.18199999E+02 -0.14506E+05
 0.18249998E+02 -0.14560E+05
 0.18299999E+02 -0.14585E+05
 0.18349998E+02 -0.14569E+05
 0.18400000E+02 -0.14508E+05
 0.18449999E+02 -0.14380E+05
 0.18499998E+02 -0.14242E+05
 0.18549999E+02 -0.14082E+05
 0.18599998E+02 -0.13911E+05
 0.18650000E+02 -0.13741E+05
 0.18699999E+02 -0.13574E+05
 0.18749998E+02 -0.13445E+05
 0.18799999E+02 -0.13331E+05
 0.18849998E+02 -0.13233E+05
 0.18900000E+02 -0.13189E+05
 0.18949999E+02 -0.13186E+05
 0.18999998E+02 -0.13240E+05
 0.19049999E+02 -0.13343E+05
 0.19099998E+02 -0.13478E+05
 0.19150000E+02 -0.13626E+05
 0.19199999E+02 -0.13779E+05
 0.19249998E+02 -0.13950E+05
 0.19299999E+02 -0.14108E+05
 0.19349998E+02 -0.14217E+05
 0.19400000E+02 -0.14314E+05
 0.19449999E+02 -0.14390E+05
 0.19499998E+02 -0.14460E+05
 0.19549999E+02 -0.14526E+05
 0.19599998E+02 -0.14568E+05
 0.19650000E+02 -0.14614E+05
 0.19699999E+02 -0.14643E+05
 0.19749998E+02 -0.14649E+05
 0.19799999E+02 -0.14636E+05
 0.19849998E+02 -0.14593E+05
 0.19900000E+02 -0.14546E+05
 0.19949999E+02 -0.14507E+05
 0.19999998E+02 -0.14449E+05
 0.20049999E+02 -0.14412E+05
 0.20099998E+02 -0.14350E+05
 0.20150000E+02 -0.14303E+05
 0.20199999E+02 -0.14258E+05
 0.20249998E+02 -0.14217E+05
 0.20299999E+02 -0.14194E+05
 0.20349998E+02 -0.14161E+05
 0.20399998E+02 -0.14161E+05
 0.20449999E+02 -0.14128E+05
 0.20499998E+02 -0.14059E+05
 0.20549999E+02 -0.13979E+05
 0.20599998E+02 -0.13905E+05
 0.20649998E+02 -0.13849E+05
 0.20699999E+02 -0.13791E+05
 0.20749998E+02 -0.13741E+05
 0.20799999E+02 -0.13687E+05
 0.20849998E+02 -0.13647E+05
 0.20899998E+02 -0.13632E+05
 0.20949999E+02 -0.13627E+05
 0.20999998E+02 -0.13613E+05
 0.21049999E+02 -0.13588E+05
 0.21099998E+02 -0.13576E+05
 0.21149998E+02 -0.13569E+05
 0.21199999E+02 -0.13576E+05
 0.21249998E+02 -0.13589E+05
 0.21299999E+02 -0.13628E+05
 0.21349998E+02 -0.13680E+05
 0.21399998E+02 -0.13742E+05
 0.21449999E+02 -0.13819E+05
 0.21499998E+02 -0.13908E+05
 0.21549999E+02 -0.13994E+05
 0.21599998E+02 -0.14112E+05
 0.21649998E+02 -0.14224E+05
 0.21699999E+02 -0.14315E+05
 0.21749998E+02 -0.14398E+05
 0.21799999E+02 -0.14453E+05
 0.21849998E+02 -0.14497E+05
 0.21899998E+02 -0.14502E+05
 0.21949999E+02 -0.14500E+05
 0.21999998E+02 -0.14483E+05
 0.22049999E+02 -0.14464E+05
 0.22099998E+02 -0.14401E+05
 0.22149998E+02 -0.14319E+05
 0.22199999E+02 -0.14229E+05
 0.22249998E+02 -0.14128E+05
 0.22299999E+02 -0.14032E+05
 0.22349998E+02 -0.13947E+05
 0.22399998E+02 -0.13896E+05
 0.22449999E+02 -0.13839E+05
 0.22499998E+02 -0.13817E+05
 0.22549999E+02 -0.13818E+05
 0.22599998E+02 -0.13824E+05
 0.22649998E+02 -0.13865E+05
 0.22699999E+02 -0.13915E+05
 0.22749998E+02 -0.14000E+05
 0.22799999E+02 -0.14079E+05
 0.22849998E+02 -0.14162E+05
 0.22899998E+02 -0.14233E+05
 0.22949999E+02 -0.14273E+05
 0.22999998E+02 -0.14309E+05
 0.23049999E+02 -0.14300E+05
 0.23099998E+02 -0.14299E+05
 0.23149998E+02 -0.14275E+05
 0.23199999E+02 -0.14247E+05
 0.23249998E+02 -0.14187E+05
 0.23299999E+02 -0.14119E+05
 0.23349998E+02 -0.14043E+05
 0.23399998E+02 -0.13958E+05
 0.23449999E+02 -0.13887E+05
 0.23499998E+02 -0.13847E+05
 0.23549999E+02 -0.13810E+05
 0.23599998E+02 -0.13779E+05
 0.23649998E+02 -0.13759E+05
 0.23699999E+02 -0.13732E+05
 0.23749998E+02 -0.13728E+05
 0.23799999E+02 -0.13753E+05
 0.23849998E+02 -0.13809E+05
 0.23899998E+02 -0.13867E+05
 0.23949999E+02 -0.13963E+05
 0.23999998E+02 -0.14040E+05
 0.24049999E+02 -0.14146E+05
 0.24099998E+02 -0.14246E+05
 0.24149998E+02 -0.14323E+05
 0.24199999E+02 -0.14377E+05
 0.24249998E+02 -0.14394E+05
 0.24299999E+02 -0.14388E+05
 0.24349998E+02 -0.14357E+05
 0.24399998E+02 -0.14318E+05
 0.24449999E+02 -0.14259E+05
 0.24499998E+02 -0.14231E+05
 0.24549999E+02 -0.14189E+05
 0.24599998E+02 -0.14157E+05
 0.24649998E+02 -0.14120E+05
 0.24699999E+02 -0.14103E+05
 0.24749998E+02 -0.14085E+05
 0.24799999E+02 -0.14058E+05
 0.24849998E+02 -0.14055E+05
 0.24899998E+02 -0.14012E+05
 0.24949999E+02 -0.14022E+05
 0.24999998E+02 -0.13997E+05
 0.25049999E+02 -0.14021E+05
 0.25099998E+02 -0.14030E+05
 0.25149998E+02 -0.14025E+05
 0.25199999E+02 -0.14073E+05
 0.25249998E+02 -0.14081E+05
 0.25299999E+02 -0.14131E+05
 0.25349998E+02 -0.14126E+05
 0.25399998E+02 -0.14135E+05
 0.25449999E+02 -0.14123E+05
 0.25499998E+02 -0.14101E+05
 0.25549999E+02 -0.14087E+05
 0.25599998E+02 -0.14045E+05
 0.25649998E+02 -0.14002E+05
 0.25699999E+02 -0.13976E+05
 0.25749998E+02 -0.13951E+05
 0.25799999E+02 -0.13926E+05
 0.25849998E+02 -0.13907E+05
 0.25899998E+02 -0.13882E+05
 0.25949999E+02 -0.13896E+05
 0.25999998E+02 -0.13886E+05
 0.26049999E+02 -0.13897E+05
 0.26099998E+02 -0.13910E+05
 0.26149998E+02 -0.13955E+05
 0.26199999E+02 -0.13988E+05
 0.26249998E+02 -0.14011E+05
 0.26299999E+02 -0.14036E+05
 0.26349998E+02 -0.14054E+05
 0.26399998E+02 -0.14062E+05
 0.26449999E+02 -0.14041E+05
 0.26499998E+02 -0.14006E+05
 0.26549999E+02 -0.13924E+05
 0.26599998E+02 -0.13855E+05
 0.26649998E+02 -0.13763E+05
 0.26699999E+02 -0.13730E+05
 0.26749998E+02 -0.13690E+05
 0.26799999E+02 -0.13675E+05
 0.26849998E+02 -0.13690E+05
 0.26899998E+02 -0.13743E+05
 0.26949999E+02 -0.13810E+05
 0.26999998E+02 -0.13858E+05
 0.27049997E+02 -0.13934E+05
 0.27099998E+02 -0.13994E+05
 0.27149998E+02 -0.14072E+05
 0.27199999E+02 -0.14138E+05
 0.27249998E+02 -0.14193E+05
 0.27299997E+02 -0.14219E+05
 0.27349998E+02 -0.14264E+05
 0.27399998E+02 -0.14295E+05
 0.27449999E+02 -0.14320E+05
 0.27499998E+02 -0.14321E+05
 0.27549997E+02 -0.14311E+05
 0.27599998E+02 -0.14309E+05
 0.27649998E+02 -0.14305E+05
 0.27699999E+02 -0.14275E+05
 0.27749998E+02 -0.14231E+05
 0.27799997E+02 -0.14187E+05
 0.27849998E+02 -0.14131E+05
 0.27899998E+02 -0.14095E+05
 0.27949999E+02 -0.14081E+05
 0.27999998E+02 -0.14071E+05
 0.28049997E+02 -0.14033E+05
 0.28099998E+02 -0.13998E+05
 0.28149998E+02 -0.13981E+05
 0.28199999E+02 -0.13958E+05
 0.28249998E+02 -0.13925E+05
 0.28299997E+02 -0.13899E+05
 0.28349998E+02 -0.13903E+05
 0.28399998E+02 -0.13903E+05
 0.28449999E+02 -0.13864E+05
 0.28499998E+02 -0.13885E+05
 0.28549997E+02 -0.13894E+05
 0.28599998E+02 -0.13882E+05
 0.28649998E+02 -0.13864E+05
 0.28699999E+02 -0.13869E+05
 0.28749998E+02 -0.13885E+05
 0.28799997E+02 -0.13932E+05
 0.28849998E+02 -0.14047E+05
 0.28899998E+02 -0.14143E+05
 0.28949999E+02 -0.14163E+05
 0.28999998E+02 -0.14155E+05
 0.29049997E+02 -0.14209E+05
 0.29099998E+02 -0.14320E+05
 0.29149998E+02 -0.14340E+05
 0.29199999E+02 -0.14387E+05
 0.29249998E+02 -0.14442E+05
 0.29299997E+02 -0.14387E+05
 0.29349998E+02 -0.14386E+05
 0.29399998E+02 -0.14360E+05
 0.29449999E+02 -0.14444E+05
 0.29499998E+02 -0.14323E+05
 0.29549997E+02 -0.14178E+05
 0.29599998E+02 -0.14240E+05
 0.29649998E+02 -0.14128E+05
 0.29699999E+02 -0.14065E+05
 0.29749998E+02 -0.14080E+05
 0.29799997E+02 -0.14086E+05
 0.29849998E+02 -0.14105E+05
 0.29899998E+02 -0.13991E+05
 0.29949999E+02 -0.14110E+05
 0.29999998E+02 -0.14092E+05
 0.30049999E+02 -0.13996E+05
 0.30099998E+02 -0.13975E+05
 0.30149998E+02 -0.14128E+05
 0.30199997E+02 -0.14143E+05
 0.30249996E+02 -0.13903E+05
 0.30299999E+02 -0.14116E+05
 0.30349998E+02 -0.14154E+05
 0.30399998E+02 -0.13798E+05
 0.30449997E+02 -0.13963E+05
 0.30499996E+02 -0.13988E+05
 0.30549999E+02 -0.13710E+05
 0.30599998E+02 -0.13967E+05
 0.30649998E+02 -0.14157E+05
 0.30699997E+02 -0.14059E+05
 0.30749996E+02 -0.13964E+05
 0.30799999E+02 -0.13738E+05
 0.30849998E+02 -0.14114E+05
 0.30899998E+02 -0.14424E+05
 0.30949997E+02 -0.13963E+05
 0.30999996E+02 -0.14332E+05
 0.31049999E+02 -0.14333E+05
 0.31099998E+02 -0.13904E+05
 0.31149998E+02 -0.14254E+05
 0.31199997E+02 -0.14582E+05
 0.31249996E+02 -0.14273E+05
 0.31299999E+02 -0.14134E+05
 0.31349998E+02 -0.14338E+05
 0.31399998E+02 -0.14152E+05
 0.31449997E+02 -0.14019E+05
 0.31499996E+02 -0.14051E+05
 0.31549999E+02 -0.13704E+05
 0.31599998E+02 -0.14128E+05
 0.31649998E+02 -0.13565E+05
 0.31699997E+02 -0.13514E+05
 0.31749996E+02 -0.13705E+05
 0.31799999E+02 -0.13265E+05
 0.31849998E+02 -0.13618E+05
 0.31899998E+02 -0.14029E+05
 0.31949997E+02 -0.13684E+05
 0.31999996E+02 -0.13301E+05
 0.32049999E+02 -0.13884E+05
 0.32099998E+02 -0.13333E+05
 0.32149998E+02 -0.14004E+05
 0.32199997E+02 -0.14078E+05
 0.32249996E+02 -0.13753E+05
 0.32299999E+02 -0.14004E+05
 0.32349998E+02 -0.13693E+05
 0.32399998E+02 -0.13905E+05
 0.32449997E+02 -0.14147E+05
 0.32499996E+02 -0.14158E+05
 0.32549999E+02 -0.14183E+05
 0.32599998E+02 -0.14271E+05
 0.32649998E+02 -0.14168E+05
 0.32699997E+02 -0.14077E+05
 0.32749996E+02 -0.13904E+05
 0.32799999E+02 -0.13253E+05
 0.32849998E+02 -0.13804E+05
 0.32899998E+02 -0.14613E+05
 0.32949997E+02 -0.13542E+05
 0.32999996E+02 -0.13500E+05
 0.33049999E+02 -0.14059E+05
 0.33099998E+02 -0.13226E+05
 0.33149998E+02 -0.14237E+05
 0.33199997E+02 -0.14959E+05
 0.33249996E+02 -0.14205E+05
 0.33299999E+02 -0.14155E+05
 0.33349998E+02 -0.14267E+05
 0.33399998E+02 -0.14940E+05
 0.33449997E+02 -0.14337E+05
 0.33499996E+02 -0.14550E+05
 0.33549999E+02 -0.14926E+05
 0.33599998E+02 -0.15014E+05
 0.33649998E+02 -0.14641E+05
 0.33699997E+02 -0.14234E+05
 0.33749996E+02 -0.14377E+05
 0.33799999E+02 -0.13963E+05
 0.33849998E+02 -0.14326E+05
 0.33899998E+02 -0.15148E+05
 0.33949997E+02 -0.14856E+05
 0.33999996E+02 -0.13587E+05
 0.34049999E+02 -0.14026E+05
 0.34099998E+02 -0.14157E+05
 0.34149998E+02 -0.13465E+05
 0.34199997E+02 -0.14126E+05
 0.34249996E+02 -0.13984E+05
 0.34299999E+02 -0.13961E+05
 0.34349998E+02 -0.13742E+05
 0.34399998E+02 -0.13378E+05
 0.34449997E+02 -0.13745E+05
 0.34499996E+02 -0.12770E+05
 0.34549999E+02 -0.13391E+05
 0.34599998E+02 -0.14512E+05
 0.34649998E+02 -0.14236E+05
 0.34699997E+02 -0.14107E+05
 0.34749996E+02 -0.13902E+05
 0.34799999E+02 -0.13062E+05
 0.34849998E+02 -0.13246E+05
 0.34899998E+02 -0.14349E+05
 0.34949997E+02 -0.14809E+05
 0.34999996E+02 -0.14079E+05
 0.35049999E+02 -0.14231E+05
 0.35099998E+02 -0.13739E+05
 0.35149998E+02 -0.13498E+05
 0.35199997E+02 -0.14983E+05
 0.35249996E+02 -0.14435E+05
 0.35299999E+02 -0.14776E+05
 0.35349998E+02 -0.15161E+05
 0.35399998E+02 -0.14366E+05
 0.35449997E+02 -0.14024E+05
 0.35499996E+02 -0.13968E+05
 0.35549999E+02 -0.14862E+05
 0.35599998E+02 -0.14360E+05
 0.35649998E+02 -0.13062E+05
 0.35699997E+02 -0.13448E+05
 0.35749996E+02 -0.14031E+05
 0.35799999E+02 -0.14017E+05
 0.35849998E+02 -0.13648E+05
 0.35899998E+02 -0.13295E+05
 0.35949997E+02 -0.13900E+05
 0.35999996E+02 -0.13878E+05
 0.36049999E+02 -0.12807E+05
 0.36099998E+02 -0.13685E+05
 0.36149998E+02 -0.13070E+05
 0.36199997E+02 -0.14295E+05
 0.36249996E+02 -0.14706E+05
 0.36299999E+02 -0.13415E+05
 0.36349998E+02 -0.14180E+05
 0.36399998E+02 -0.13138E+05
 0.36449997E+02 -0.13660E+05
 0.36499996E+02 -0.14097E+05
 0.36549999E+02 -0.15254E+05
 0.36599998E+02 -0.15062E+05
 0.36649998E+02 -0.13568E+05
 0.36699997E+02 -0.14288E+05
 0.36749996E+02 -0.14310E+05
 0.36799999E+02 -0.13871E+05
 0.36849998E+02 -0.13989E+05
 0.36899998E+02 -0.14058E+05
 0.36949997E+02 -0.14318E+05
 0.36999996E+02 -0.14673E+05
 0.37049999E+02 -0.14166E+05
 0.37099998E+02 -0.13325E+05
 0.37149998E+02 -0.14128E+05
 0.37199997E+02 -0.15188E+05
 0.37249996E+02 -0.14529E+05
 0.37299999E+02 -0.14350E+05
 0.37349998E+02 -0.15289E+05
 0.37399998E+02 -0.14918E+05
 0.37449997E+02 -0.13494E+05
 0.37499996E+02 -0.13502E+05
 0.37549999E+02 -0.13375E+05
 0.37599998E+02 -0.13722E+05
 0.37649998E+02 -0.14742E+05
 0.37699997E+02 -0.13851E+05
 0.37749996E+02 -0.12762E+05
 0.37799999E+02 -0.12990E+05
 0.37849998E+02 -0.14391E+05
 0.37899998E+02 -0.14722E+05
 0.37949997E+02 -0.13273E+05
 0.37999996E+02 -0.14101E+05
 0.38049999E+02 -0.14352E+05
 0.38099998E+02 -0.13758E+05
 0.38149998E+02 -0.15130E+05
 0.38199997E+02 -0.13947E+05
 0.38249996E+02 -0.11724E+05
 0.38299999E+02 -0.12998E+05
 0.38349998E+02 -0.14371E+05
 0.38399998E+02 -0.15077E+05
 0.38449997E+02 -0.14237E+05
 0.38499996E+02 -0.13676E+05
 0.38549999E+02 -0.13477E+05
 0.38599998E+02 -0.12877E+05
 0.38649998E+02 -0.14795E+05
 0.38699997E+02 -0.15267E+05
 0.38749996E+02 -0.13775E+05
 0.38799999E+02 -0.13036E+05
 0.38849998E+02 -0.14900E+05
 0.38899998E+02 -0.14768E+05
 0.38949997E+02 -0.14528E+05
 0.38999996E+02 -0.14660E+05
 0.39049999E+02 -0.14151E+05
 0.39099998E+02 -0.16255E+05
 0.39149998E+02 -0.14597E+05
 0.39199997E+02 -0.12756E+05
 0.39249996E+02 -0.14893E+05
 0.39299999E+02 -0.13560E+05
 0.39349998E+02 -0.13477E+05
 0.39399998E+02 -0.15029E+05
 0.39449997E+02 -0.12906E+05
 0.39499996E+02 -0.12865E+05
 0.39549999E+02 -0.13374E+05
 0.39599998E+02 -0.13645E+05
 0.39649998E+02 -0.14506E+05
 0.39699997E+02 -0.15129E+05
 0.39749996E+02 -0.14718E+05
 0.39799999E+02 -0.13796E+05
 0.39849998E+02 -0.14347E+05
 0.39899998E+02 -0.14499E+05
 0.39949997E+02 -0.13110E+05
 0.39999996E+02 -0.14166E+05
 0.40049999E+02 -0.14016E+05
 0.40099998E+02 -0.12411E+05
 0.40149998E+02 -0.13758E+05
 0.40199997E+02 -0.13277E+05
 0.40249996E+02 -0.14326E+05
 0.40299999E+02 -0.14215E+05
 0.40349998E+02 -0.12256E+05
 0.40399998E+02 -0.14452E+05
 0.40449997E+02 -0.15185E+05
 0.40499996E+02 -0.13347E+05
 0.40549999E+02 -0.14265E+05
 0.40599998E+02 -0.13718E+05
 0.40649998E+02 -0.13200E+05
 0.40699997E+02 -0.13909E+05
 0.40749996E+02 -0.13395E+05
 0.40799999E+02 -0.13035E+05
 0.40849998E+02 -0.14221E+05
 0.40899998E+02 -0.16180E+05
 0.40949997E+02 -0.14288E+05
 0.40999996E+02 -0.13947E+05
 0.41049999E+02 -0.13558E+05
 0.41099998E+02 -0.13242E+05
 0.41149998E+02 -0.13509E+05
 0.41199997E+02 -0.15151E+05
 0.41249996E+02 -0.16530E+05
 0.41299999E+02 -0.14429E+05
 0.41349998E+02 -0.13296E+05
 0.41399998E+02 -0.14074E+05
 0.41449997E+02 -0.15737E+05
 0.41499996E+02 -0.13106E+05
 0.41549999E+02 -0.13955E+05
 0.41599998E+02 -0.15808E+05
 0.41649998E+02 -0.13549E+05
 0.41699997E+02 -0.12858E+05
 0.41749996E+02 -0.13252E+05
 0.41799999E+02 -0.13862E+05
 0.41849998E+02 -0.14588E+05
 0.41899998E+02 -0.14371E+05
 0.41949997E+02 -0.14636E+05
 0.41999996E+02 -0.16012E+05
 0.42049999E+02 -0.14281E+05
 0.42099998E+02 -0.13309E+05
 0.42149998E+02 -0.14632E+05
 0.42199997E+02 -0.14348E+05
 0.42249996E+02 -0.13502E+05
 0.42299999E+02 -0.14485E+05
 0.42349998E+02 -0.14142E+05
 0.42399998E+02 -0.13749E+05
 0.42449997E+02 -0.13953E+05
 0.42499996E+02 -0.13578E+05
 0.42549999E+02 -0.13707E+05
 0.42599998E+02 -0.12460E+05
 0.42649998E+02 -0.12442E+05
 0.42699997E+02 -0.13592E+05
 0.42749996E+02 -0.15114E+05
 0.42799995E+02 -0.14750E+05
 0.42849998E+02 -0.14028E+05
 0.42899998E+02 -0.15514E+05
 0.42949997E+02 -0.15314E+05
 0.42999996E+02 -0.13218E+05
 0.43049995E+02 -0.13497E+05
 0.43099998E+02 -0.13900E+05
 0.43149998E+02 -0.12973E+05
 0.43199997E+02 -0.12966E+05
 0.43249996E+02 -0.13393E+05
 0.43299995E+02 -0.13748E+05
 0.43349998E+02 -0.12756E+05
 0.43399998E+02 -0.14256E+05
 0.43449997E+02 -0.14144E+05
 0.43499996E+02 -0.14158E+05
 0.43549995E+02 -0.15566E+05
 0.43599998E+02 -0.14989E+05
 0.43649998E+02 -0.15822E+05
 0.43699997E+02 -0.14419E+05
 0.43749996E+02 -0.13359E+05
 0.43799995E+02 -0.13148E+05
 0.43849998E+02 -0.14605E+05
 0.43899998E+02 -0.15546E+05
 0.43949997E+02 -0.14561E+05
 0.43999996E+02 -0.13233E+05
 0.44049995E+02 -0.11954E+05
 0.44099998E+02 -0.11966E+05
 0.44149998E+02 -0.12455E+05
 0.44199997E+02 -0.12570E+05
 0.44249996E+02 -0.13632E+05
 0.44299995E+02 -0.15459E+05
 0.44349998E+02 -0.14507E+05
 0.44399998E+02 -0.15808E+05
 0.44449997E+02 -0.16002E+05
 0.44499996E+02 -0.14266E+05
 0.44549995E+02 -0.14345E+05
 0.44599998E+02 -0.14623E+05
 0.44649998E+02 -0.12717E+05
 0.44699997E+02 -0.13413E+05
 0.44749996E+02 -0.15841E+05
 0.44799995E+02 -0.13684E+05
 0.44849998E+02 -0.13055E+05
 0.44899998E+02 -0.14133E+05
 0.44949997E+02 -0.15047E+05
 0.44999996E+02 -0.15097E+05
 0.45049995E+02 -0.14413E+05
 0.45099998E+02 -0.13008E+05
 0.45149998E+02 -0.12226E+05
 0.45199997E+02 -0.13600E+05
 0.45249996E+02 -0.14399E+05
 0.45299995E+02 -0.14948E+05
 0.45349998E+02 -0.14127E+05
 0.45399998E+02 -0.14147E+05
 0.45449997E+02 -0.14402E+05
 0.45499996E+02 -0.13689E+05
 0.45549995E+02 -0.13967E+05
 0.45599998E+02 -0.12598E+05
 0.45649998E+02 -0.13689E+05
 0.45699997E+02 -0.16971E+05
 0.45749996E+02 -0.14718E+05
 0.45799995E+02 -0.11912E+05
 0.45849998E+02 -0.12234E+05
 0.45899998E+02 -0.13970E+05
 0.45949997E+02 -0.15490E+05
 0.45999996E+02 -0.15870E+05
 0.46049995E+02 -0.16731E+05
 0.46099998E+02 -0.13262E+05
 0.46149998E+02 -0.11419E+05
 0.46199997E+02 -0.14517E+05
 0.46249996E+02 -0.13018E+05
 0.46299995E+02 -0.11129E+05
 0.46349998E+02 -0.13171E+05
 0.46399998E+02 -0.14592E+05
 0.46449997E+02 -0.14694E+05
 0.46499996E+02 -0.15552E+05
 0.46549995E+02 -0.16036E+05
 0.46599998E+02 -0.15609E+05
 0.46649998E+02 -0.14762E+05
 0.46699997E+02 -0.13137E+05
 0.46749996E+02 -0.10759E+05
 0.46799995E+02 -0.12287E+05
 0.46849998E+02 -0.15940E+05
 0.46899998E+02 -0.14730E+05
 0.46949997E+02 -0.13921E+05
 0.46999996E+02 -0.15935E+05
 0.47049995E+02 -0.15390E+05
 0.47099998E+02 -0.12914E+05
 0.47149998E+02 -0.11742E+05
 0.47199997E+02 -0.14438E+05
 0.47249996E+02 -0.14982E+05
 0.47299995E+02 -0.13868E+05
 0.47349998E+02 -0.14712E+05
 0.47399998E+02 -0.14860E+05
 0.47449997E+02 -0.14090E+05
 0.47499996E+02 -0.14798E+05
 0.47549995E+02 -0.16467E+05
 0.47599998E+02 -0.14696E+05
 0.47649998E+02 -0.13592E+05
 0.47699997E+02 -0.13141E+05
 0.47749996E+02 -0.12032E+05
 0.47799995E+02 -0.12682E+05
 0.47849998E+02 -0.14865E+05
 0.47899998E+02 -0.14152E+05
 0.47949997E+02 -0.14264E+05
 0.47999996E+02 -0.16110E+05
 0.48049995E+02 -0.13446E+05
 0.48099998E+02 -0.12598E+05
 0.48149998E+02 -0.14173E+05
 0.48199997E+02 -0.13901E+05
 0.48249996E+02 -0.14809E+05
 0.48299995E+02 -0.13774E+05
 0.48349998E+02 -0.13174E+05
 0.48399998E+02 -0.13625E+05
 0.48449997E+02 -0.13837E+05
 0.48499996E+02 -0.14172E+05
 0.48549995E+02 -0.13912E+05
 0.48599998E+02 -0.13719E+05
 0.48649998E+02 -0.12974E+05
 0.48699997E+02 -0.13854E+05
 0.48749996E+02 -0.14557E+05
 0.48799995E+02 -0.16345E+05
 0.48849998E+02 -0.17700E+05
 0.48899998E+02 -0.13847E+05
 0.48949997E+02 -0.12356E+05
 0.48999996E+02 -0.15152E+05
 0.49049995E+02 -0.15191E+05
 0.49099998E+02 -0.13861E+05
 0.49149998E+02 -0.12507E+05
 0.49199997E+02 -0.12520E+05
 0.49249996E+02 -0.14665E+05
 0.49299995E+02 -0.15780E+05
 0.49349998E+02 -0.14833E+05
 0.49399998E+02 -0.15244E+05
 0.49449997E+02 -0.14287E+05
 0.49499996E+02 -0.88787E+04
 0.49549995E+02 -0.10872E+05
 0.49599998E+02 -0.13609E+05
 0.49649998E+02 -0.13433E+05
 0.49699997E+02 -0.18479E+05
 0.49749996E+02 -0.16894E+05
 0.49799995E+02 -0.10558E+05
 0.49849998E+02 -0.96186E+04
 0.49899998E+02 -0.95284E+04
 0.49949997E+02 -0.93959E+04
 0.49999996E+02 -0.15133E+05
 0.50049995E+02 -0.16121E+05
 0.50099998E+02 -0.14685E+05
 0.50149998E+02 -0.15905E+05
 0.50199997E+02 -0.13469E+05
 0.50249996E+02 -0.10949E+05
 0.50299995E+02 -0.14946E+05
 0.50349998E+02 -0.16553E+05
 0.50399998E+02 -0.15841E+05
 0.50449997E+02 -0.19384E+05
 0.50499996E+02 -0.15892E+05
 0.50549995E+02 -0.89359E+04
 0.50599998E+02 -0.86899E+04
 0.50649998E+02 -0.17672E+05
 0.50699997E+02 -0.16702E+05
 0.50749996E+02 -0.12151E+05
 0.50799995E+02 -0.13053E+05
 0.50849998E+02 -0.14677E+05
 0.50899998E+02 -0.18095E+05
 0.50949997E+02 -0.11328E+05
 0.50999996E+02 -0.10820E+05
 0.51049995E+02 -0.20672E+05
 0.51099998E+02 -0.16494E+05
 0.51149998E+02 -0.14853E+05
 0.51199997E+02 -0.21559E+05
 0.51249996E+02 -0.11503E+05
 0.51299995E+02 -0.56547E+04
 0.51349998E+02 -0.17414E+05
 0.51399998E+02 -0.20309E+05
 0.51449997E+02 -0.15487E+05
 0.51499996E+02 -0.15911E+05
 0.51549995E+02 -0.95359E+04
 0.51599998E+02  0.34516E+04
 0.51649998E+02  0.12987E+03
 0.51699997E+02 -0.17817E+05
 0.51749996E+02 -0.20618E+05
 0.51799995E+02 -0.25351E+05
 0.51849998E+02 -0.28353E+05
 0.51899998E+02 -0.13435E+05
 0.51949997E+02 -0.27241E+04
 0.51999996E+02 -0.90834E+04
 0.52049995E+02 -0.11413E+05
 0.52099998E+02 -0.13546E+05
 0.52149998E+02 -0.21316E+05
 0.52199997E+02 -0.13303E+05
 0.52249996E+02 -0.11087E+05
 0.52299995E+02 -0.12903E+05
 0.52349998E+02 -0.15329E+05
 0.52399998E+02 -0.15071E+05
 0.52449997E+02 -0.11546E+05
 0.52499996E+02 -0.12515E+05
 0.52549995E+02 -0.15153E+05
 0.52599998E+02 -0.12419E+05
 0.52649998E+02 -0.86444E+04
 0.52699997E+02 -0.10254E+05
 0.52749996E+02 -0.15591E+05
 0.52799995E+02 -0.25522E+05
 0.52849998E+02 -0.27260E+05
 0.52899998E+02 -0.15243E+05
 0.52949997E+02 -0.10772E+05
 0.52999996E+02 -0.12716E+05
 0.53049995E+02 -0.52875E+04
 0.53099998E+02 -0.11407E+05
 0.53149998E+02 -0.22105E+05
 0.53199997E+02 -0.23311E+05
 0.53249996E+02 -0.17907E+05
 0.53299995E+02 -0.14423E+05
 0.53349998E+02 -0.95289E+04
 0.53399998E+02 -0.88635E+04
 0.53449997E+02 -0.16670E+05
 0.53499996E+02 -0.13752E+05
 0.53549995E+02 -0.13478E+05
 0.53599998E+02 -0.13992E+05
 0.53649998E+02 -0.86247E+04
 0.53699997E+02 -0.68018E+04
 0.53749996E+02 -0.12263E+05
 0.53799995E+02 -0.11463E+05
 0.53849998E+02 -0.15799E+05
 0.53899998E+02 -0.25164E+05
 0.53949997E+02 -0.21947E+05
 0.53999996E+02 -0.13210E+05
 0.54049995E+02 -0.10276E+05
 0.54099998E+02 -0.13783E+05
 0.54149998E+02 -0.11036E+05
 0.54199997E+02 -0.12706E+05
 0.54249996E+02 -0.19863E+05
 0.54299995E+02 -0.24881E+05
 0.54349998E+02 -0.17589E+05
 0.54399998E+02 -0.10062E+05
 0.54449997E+02 -0.85412E+04
 0.54499996E+02 -0.59810E+04
 0.54549995E+02 -0.62571E+04
 0.54599998E+02 -0.11630E+05
 0.54649998E+02 -0.15111E+05
 0.54699997E+02 -0.13023E+05
 0.54749996E+02 -0.19892E+05
 0.54799995E+02 -0.18811E+05
 0.54849998E+02 -0.14331E+05
 0.54899998E+02 -0.13038E+05
 0.54949997E+02 -0.91612E+04
 0.54999996E+02 -0.52554E+04
 0.55049995E+02 -0.16683E+04
 0.55099998E+02 -0.42510E+04
 0.55149998E+02 -0.18181E+05
 0.55199997E+02 -0.23921E+05
 0.55249996E+02 -0.22470E+05
 0.55299995E+02 -0.29324E+05
 0.55349998E+02 -0.21077E+05
 0.55399998E+02 -0.81676E+04
 0.55449997E+02 -0.63704E+04
 0.55499996E+02 -0.81506E+04
 0.55549995E+02 -0.39309E+04
 0.55599998E+02 -0.43421E+04
 0.55649998E+02 -0.12461E+05
 0.55699997E+02 -0.90682E+04
 0.55749996E+02 -0.12460E+05
 0.55799995E+02 -0.20008E+05
 0.55849995E+02 -0.14403E+05
 0.55899998E+02 -0.12603E+05
 0.55949997E+02 -0.16053E+05
 0.55999996E+02 -0.17368E+05
 0.56049995E+02 -0.24080E+05
 0.56099995E+02 -0.21223E+05
 0.56149998E+02 -0.98026E+04
 0.56199997E+02 -0.13738E+05
 0.56249996E+02 -0.20439E+05
 0.56299995E+02 -0.19292E+05
 0.56349995E+02 -0.19543E+05
 0.56399998E+02 -0.20125E+05
 0.56449997E+02 -0.13141E+05
 0.56499996E+02 -0.60661E+04
 0.56549995E+02 -0.41279E+04
 0.56599995E+02 -0.13630E+05
 0.56649998E+02 -0.21755E+05
 0.56699997E+02 -0.18406E+05
 0.56749996E+02 -0.18540E+05
 0.56799995E+02 -0.17912E+05
 0.56849995E+02 -0.16039E+05
 0.56899998E+02 -0.15839E+05
 0.56949997E+02 -0.16381E+05
 0.56999996E+02 -0.92740E+04
 0.57049995E+02 -0.37104E+04
 0.57099995E+02 -0.12974E+05
 0.57149998E+02 -0.18389E+05
 0.57199997E+02 -0.16773E+05
 0.57249996E+02 -0.15088E+05
 0.57299995E+02 -0.11422E+05
 0.57349995E+02 -0.13425E+05
 0.57399998E+02 -0.14773E+05
 0.57449997E+02 -0.97754E+04
 0.57499996E+02 -0.87443E+04
 0.57549995E+02 -0.12294E+05
 0.57599995E+02 -0.17591E+05
 0.57649998E+02 -0.20874E+05
 0.57699997E+02 -0.17520E+05
 0.57749996E+02 -0.14858E+05
 0.57799995E+02 -0.14113E+05
 0.57849995E+02 -0.87106E+04
 0.57899998E+02 -0.86698E+04
 0.57949997E+02 -0.10226E+05
 0.57999996E+02 -0.96526E+04
 0.58049995E+02 -0.14439E+05
 0.58099995E+02 -0.15804E+05
 0.58149998E+02 -0.11807E+05
 0.58199997E+02 -0.98060E+04
 0.58249996E+02 -0.13676E+05
 0.58299995E+02 -0.14969E+05
 0.58349995E+02 -0.15361E+05
 0.58399998E+02 -0.19000E+05
 0.58449997E+02 -0.13059E+05
 0.58499996E+02 -0.86240E+04
 0.58549995E+02 -0.13466E+05
 0.58599995E+02 -0.16337E+05
 0.58649998E+02 -0.15791E+05
 0.58699997E+02 -0.12281E+05
 0.58749996E+02 -0.98985E+04
 0.58799995E+02 -0.92705E+04
 0.58849995E+02 -0.14565E+05
 0.58899998E+02 -0.16426E+05
 0.58949997E+02 -0.15099E+05
 0.58999996E+02 -0.18375E+05
 0.59049995E+02 -0.15619E+05
 0.59099995E+02 -0.12202E+05
 0.59149998E+02 -0.98773E+04
 0.59199997E+02 -0.13504E+05
 0.59249996E+02 -0.22054E+05
 0.59299995E+02 -0.22796E+05
 0.59349995E+02 -0.13020E+05
 0.59399998E+02 -0.32990E+04
 0.59449997E+02 -0.29195E+04
 0.59499996E+02 -0.96276E+04
 0.59549995E+02 -0.16445E+05
 0.59599995E+02 -0.19350E+05
 0.59649998E+02 -0.18610E+05
 0.59699997E+02 -0.16422E+05
 0.59749996E+02 -0.13427E+05
 0.59799995E+02 -0.12245E+05
 0.59849995E+02 -0.17644E+05
 0.59899998E+02 -0.19575E+05
 0.59949997E+02 -0.16977E+05
 0.59999996E+02 -0.15483E+05
 0.60049995E+02 -0.14208E+05
 0.60099995E+02 -0.15586E+05
 0.60149998E+02 -0.17612E+05
 0.60199997E+02 -0.14102E+05
 0.60249996E+02 -0.10588E+05
 0.60299995E+02 -0.11671E+05
 0.60349995E+02 -0.13696E+05
 0.60399998E+02 -0.16407E+05
 0.60449997E+02 -0.16495E+05
 0.60499996E+02 -0.15016E+05
 0.60549995E+02 -0.14601E+05
 0.60599995E+02 -0.12593E+05
 0.60649998E+02 -0.10024E+05
 0.60699997E+02 -0.14493E+05
 0.60749996E+02 -0.19862E+05
 0.60799995E+02 -0.16289E+05
 0.60849995E+02 -0.10632E+05
 0.60899998E+02 -0.32047E+04
 0.60949997E+02 -0.23275E+04
 0.60999996E+02 -0.10492E+05
 0.61049995E+02 -0.16949E+05
 0.61099995E+02 -0.18187E+05
 0.61149998E+02 -0.15690E+05
 0.61199997E+02 -0.14154E+05
 0.61249996E+02 -0.16332E+05
 0.61299995E+02 -0.19737E+05
 0.61349995E+02 -0.18099E+05
 0.61399998E+02 -0.16415E+05
 0.61449997E+02 -0.16894E+05
 0.61499996E+02 -0.17929E+05
 0.61549995E+02 -0.18653E+05
 0.61599995E+02 -0.19571E+05
 0.61649998E+02 -0.17175E+05
 0.61699997E+02 -0.88807E+04
 0.61749996E+02 -0.59507E+04
 0.61799995E+02 -0.12356E+05
 0.61849995E+02 -0.15114E+05
 0.61899998E+02 -0.16682E+05
 0.61949997E+02 -0.16456E+05
 0.61999996E+02 -0.13120E+05
 0.62049995E+02 -0.12264E+05
 0.62099998E+02 -0.12281E+05
 0.62149994E+02 -0.13555E+05
 0.62199997E+02 -0.12929E+05
 0.62249992E+02 -0.10405E+05
 0.62299995E+02 -0.10982E+05
 0.62349998E+02 -0.15240E+05
 0.62399994E+02 -0.14787E+05
 0.62449997E+02 -0.10722E+05
 0.62499992E+02 -0.95724E+04
 0.62549995E+02 -0.11544E+05
 0.62599998E+02 -0.13418E+05
 0.62649994E+02 -0.15827E+05
 0.62699997E+02 -0.11415E+05
 0.62749992E+02 -0.65369E+04
 0.62799995E+02 -0.85664E+04
 0.62849998E+02 -0.97515E+04
 0.62899994E+02 -0.99428E+04
 0.62949997E+02 -0.10787E+05
 0.62999992E+02 -0.13718E+05
 0.63049995E+02 -0.16010E+05
 0.63099998E+02 -0.15668E+05
 0.63149994E+02 -0.12977E+05
 0.63199997E+02 -0.15098E+05
 0.63249992E+02 -0.18593E+05
 0.63299995E+02 -0.15660E+05
 0.63349998E+02 -0.13397E+05
 0.63399994E+02 -0.14077E+05
 0.63449997E+02 -0.14091E+05
 0.63499992E+02 -0.17675E+05
 0.63549995E+02 -0.19640E+05
 0.63599998E+02 -0.15902E+05
 0.63649994E+02 -0.15655E+05
 0.63699997E+02 -0.17817E+05
 0.63749992E+02 -0.19896E+05
 0.63799995E+02 -0.20446E+05
 0.63849998E+02 -0.16364E+05
 0.63899994E+02 -0.94556E+04
 0.63949997E+02 -0.51099E+04
 0.63999992E+02 -0.72389E+04
 0.64049995E+02 -0.12021E+05
 0.64099998E+02 -0.14006E+05
 0.64149994E+02 -0.15066E+05
 0.64199997E+02 -0.15907E+05
 0.64249992E+02 -0.17698E+05
 0.64299995E+02 -0.19618E+05
 0.64349998E+02 -0.16869E+05
 0.64399994E+02 -0.12573E+05
 0.64449997E+02 -0.12399E+05
 0.64499992E+02 -0.17582E+05
 0.64549995E+02 -0.19751E+05
 0.64599998E+02 -0.18606E+05
 0.64649994E+02 -0.17871E+05
 0.64699997E+02 -0.17095E+05
 0.64749992E+02 -0.16324E+05
 0.64799995E+02 -0.16213E+05
 0.64849998E+02 -0.16525E+05
 0.64899994E+02 -0.14844E+05
 0.64949997E+02 -0.15800E+05
 0.64999992E+02 -0.18903E+05
 0.65049995E+02 -0.17697E+05
 0.65099998E+02 -0.12961E+05
 0.65149994E+02 -0.98826E+04
 0.65199997E+02 -0.76209E+04
 0.65249992E+02 -0.95571E+04
 0.65299995E+02 -0.12676E+05
 0.65349998E+02 -0.11906E+05
 0.65399994E+02 -0.10710E+05
 0.65449997E+02 -0.10681E+05
 0.65499992E+02 -0.14086E+05
 0.65549995E+02 -0.16351E+05
 0.65599998E+02 -0.15547E+05
 0.65649994E+02 -0.13320E+05
 0.65699997E+02 -0.12151E+05
 0.65749992E+02 -0.12335E+05
 0.65799995E+02 -0.10320E+05
 0.65849998E+02 -0.79188E+04
 0.65899994E+02 -0.78128E+04
 0.65949997E+02 -0.99963E+04
 0.65999992E+02 -0.12423E+05
 0.66049995E+02 -0.13893E+05
 0.66099998E+02 -0.15391E+05
 0.66149994E+02 -0.16969E+05
 0.66199997E+02 -0.19049E+05
 0.66249992E+02 -0.22826E+05
 0.66299995E+02 -0.20753E+05
 0.66349998E+02 -0.14402E+05
 0.66399994E+02 -0.11917E+05
 0.66449997E+02 -0.12158E+05
 0.66499992E+02 -0.13681E+05
 0.66549995E+02 -0.15201E+05
 0.66599998E+02 -0.16918E+05
 0.66649994E+02 -0.16953E+05
 0.66699997E+02 -0.15582E+05
 0.66749992E+02 -0.14280E+05
 0.66799995E+02 -0.11701E+05
 0.66849998E+02 -0.11055E+05
 0.66899994E+02 -0.13538E+05
 0.66949997E+02 -0.16571E+05
 0.66999992E+02 -0.16413E+05
 0.67049995E+02 -0.14459E+05
 0.67099998E+02 -0.11463E+05
 0.67149994E+02 -0.76018E+04
 0.67199997E+02 -0.67013E+04
 0.67249992E+02 -0.72057E+04
 0.67299995E+02 -0.78791E+04
 0.67349998E+02 -0.86410E+04
 0.67399994E+02 -0.13350E+05
 0.67449997E+02 -0.17048E+05
 0.67499992E+02 -0.15323E+05
 0.67549995E+02 -0.15367E+05
 0.67599998E+02 -0.16565E+05
 0.67649994E+02 -0.15706E+05
 0.67699997E+02 -0.13609E+05
 0.67749992E+02 -0.10202E+05
 0.67799995E+02 -0.73604E+04
 0.67849998E+02 -0.88044E+04
 0.67899994E+02 -0.12497E+05
 0.67949997E+02 -0.14606E+05
 0.67999992E+02 -0.15208E+05
 0.68049995E+02 -0.17875E+05
 0.68099998E+02 -0.20368E+05
 0.68149994E+02 -0.19071E+05
 0.68199997E+02 -0.14066E+05
 0.68249992E+02 -0.98915E+04
 0.68299995E+02 -0.11921E+05
 0.68349998E+02 -0.15363E+05
 0.68399994E+02 -0.18631E+05
 0.68449997E+02 -0.20536E+05
 0.68499992E+02 -0.20034E+05
 0.68549995E+02 -0.18486E+05
 0.68599998E+02 -0.16406E+05
 0.68649994E+02 -0.15489E+05
 0.68699997E+02 -0.13789E+05
 0.68749992E+02 -0.14011E+05
 0.68799995E+02 -0.13730E+05
 0.68849998E+02 -0.11901E+05
 0.68899994E+02 -0.13296E+05
 0.68949997E+02 -0.16083E+05
 0.68999992E+02 -0.16307E+05
 0.69049995E+02 -0.13575E+05
 0.69099998E+02 -0.11320E+05
 0.69149994E+02 -0.11923E+05
 0.69199997E+02 -0.13054E+05
 0.69249992E+02 -0.14325E+05
 0.69299995E+02 -0.15649E+05
 0.69349998E+02 -0.14407E+05
 0.69399994E+02 -0.13666E+05
 0.69449997E+02 -0.14959E+05
 0.69499992E+02 -0.16114E+05
 0.69549995E+02 -0.15348E+05
 0.69599998E+02 -0.15757E+05
 0.69649994E+02 -0.18781E+05
 0.69699997E+02 -0.20231E+05
 0.69749992E+02 -0.18908E+05
 0.69799995E+02 -0.17289E+05
 0.69849998E+02 -0.16344E+05
 0.69899994E+02 -0.15002E+05
 0.69949997E+02 -0.13941E+05
 0.69999992E+02 -0.13117E+05
 0.70049995E+02 -0.12920E+05
 0.70099998E+02 -0.11897E+05
 0.70149994E+02 -0.10119E+05
 0.70199997E+02 -0.10496E+05
 0.70249992E+02 -0.10697E+05
 0.70299995E+02 -0.80739E+04
 0.70349998E+02 -0.45927E+04
 0.70399994E+02 -0.38800E+04
 0.70449997E+02 -0.67747E+04
 0.70499992E+02 -0.11273E+05
 0.70549995E+02 -0.14460E+05
 0.70599998E+02 -0.16599E+05
 0.70649994E+02 -0.16544E+05
 0.70699997E+02 -0.16605E+05
 0.70749992E+02 -0.16616E+05
 0.70799995E+02 -0.13566E+05
 0.70849998E+02 -0.10766E+05
 0.70899994E+02 -0.10029E+05
 0.70949997E+02 -0.13260E+05
 0.70999992E+02 -0.16174E+05
 0.71049995E+02 -0.14158E+05
 0.71099998E+02 -0.11475E+05
 0.71149994E+02 -0.95965E+04
 0.71199997E+02 -0.82584E+04
 0.71249992E+02 -0.10579E+05
 0.71299995E+02 -0.12958E+05
 0.71349998E+02 -0.14173E+05
 0.71399994E+02 -0.14519E+05
 0.71449997E+02 -0.12256E+05
 0.71499992E+02 -0.11591E+05
 0.71549995E+02 -0.12906E+05
 0.71599998E+02 -0.14356E+05
 0.71649994E+02 -0.17305E+05
 0.71699997E+02 -0.18210E+05
 0.71749992E+02 -0.13365E+05
 0.71799995E+02 -0.10859E+05
 0.71849998E+02 -0.12963E+05
 0.71899994E+02 -0.15563E+05
 0.71949997E+02 -0.19047E+05
 0.71999992E+02 -0.19418E+05
 0.72049995E+02 -0.17507E+05
 0.72099998E+02 -0.16165E+05
 0.72149994E+02 -0.14944E+05
 0.72199997E+02 -0.16154E+05
 0.72249992E+02 -0.15598E+05
 0.72299995E+02 -0.13650E+05
 0.72349998E+02 -0.13926E+05
 0.72399994E+02 -0.13807E+05
 0.72449997E+02 -0.13382E+05
 0.72499992E+02 -0.15008E+05
 0.72549995E+02 -0.17827E+05
 0.72599998E+02 -0.17844E+05
 0.72649994E+02 -0.17400E+05
 0.72699997E+02 -0.17042E+05
 0.72749992E+02 -0.14974E+05
 0.72799995E+02 -0.13133E+05
 0.72849998E+02 -0.12348E+05
 0.72899994E+02 -0.11347E+05
 0.72949997E+02 -0.12892E+05
 0.72999992E+02 -0.14890E+05
 0.73049995E+02 -0.13971E+05
 0.73099998E+02 -0.12034E+05
 0.73149994E+02 -0.10999E+05
 0.73199997E+02 -0.12323E+05
 0.73249992E+02 -0.15394E+05
 0.73299995E+02 -0.18168E+05
 0.73349998E+02 -0.16012E+05
 0.73399994E+02 -0.13787E+05
 0.73449997E+02 -0.12407E+05
 0.73499992E+02 -0.11431E+05
 0.73549995E+02 -0.13670E+05
 0.73599998E+02 -0.16185E+05
 0.73649994E+02 -0.16681E+05
 0.73699997E+02 -0.16101E+05
 0.73749992E+02 -0.15673E+05
 0.73799995E+02 -0.14643E+05
 0.73849998E+02 -0.13168E+05
 0.73899994E+02 -0.10921E+05
 0.73949997E+02 -0.95873E+04
 0.73999992E+02 -0.99124E+04
 0.74049995E+02 -0.11856E+05
 0.74099998E+02 -0.14411E+05
 0.74149994E+02 -0.16284E+05
 0.74199997E+02 -0.17348E+05
 0.74249992E+02 -0.17518E+05
 0.74299995E+02 -0.18052E+05
 0.74349998E+02 -0.19193E+05
 0.74399994E+02 -0.17721E+05
 0.74449997E+02 -0.14672E+05
 0.74499992E+02 -0.12514E+05
 0.74549995E+02 -0.10578E+05
 0.74599998E+02 -0.10677E+05
 0.74649994E+02 -0.11018E+05
 0.74699997E+02 -0.11089E+05
 0.74749992E+02 -0.11107E+05
 0.74799995E+02 -0.10678E+05
 0.74849998E+02 -0.10067E+05
 0.74899994E+02 -0.10799E+05
 0.74949997E+02 -0.12673E+05
 0.74999992E+02 -0.13082E+05
 0.75049995E+02 -0.13679E+05
 0.75099998E+02 -0.14232E+05
 0.75149994E+02 -0.13606E+05
 0.75199997E+02 -0.12739E+05
 0.75249992E+02 -0.13812E+05
 0.75299995E+02 -0.15399E+05
 0.75349998E+02 -0.14789E+05
 0.75399994E+02 -0.13328E+05
 0.75449997E+02 -0.13459E+05
 0.75499992E+02 -0.14347E+05
 0.75549995E+02 -0.14449E+05
 0.75599998E+02 -0.15185E+05
 0.75649994E+02 -0.16985E+05
 0.75699997E+02 -0.18733E+05
 0.75749992E+02 -0.18938E+05
 0.75799995E+02 -0.16845E+05
 0.75849998E+02 -0.14170E+05
 0.75899994E+02 -0.12220E+05
 0.75949997E+02 -0.11870E+05
 0.75999992E+02 -0.13378E+05
 0.76049995E+02 -0.14805E+05
 0.76099998E+02 -0.16031E+05
 0.76149994E+02 -0.16431E+05
 0.76199997E+02 -0.17409E+05
 0.76249992E+02 -0.19367E+05
 0.76299995E+02 -0.19051E+05
 0.76349998E+02 -0.16659E+05
 0.76399994E+02 -0.14337E+05
 0.76449997E+02 -0.13153E+05
 0.76499992E+02 -0.12246E+05
 0.76549995E+02 -0.13283E+05
 0.76599998E+02 -0.14508E+05
 0.76649994E+02 -0.13673E+05
 0.76699997E+02 -0.12656E+05
 0.76749992E+02 -0.13320E+05
 0.76799995E+02 -0.14545E+05
 0.76849998E+02 -0.14621E+05
 0.76899994E+02 -0.14069E+05
 0.76949997E+02 -0.12965E+05
 0.76999992E+02 -0.12162E+05
 0.77049995E+02 -0.11751E+05
 0.77099998E+02 -0.13403E+05
 0.77149994E+02 -0.16296E+05
 0.77199997E+02 -0.17270E+05
 0.77249992E+02 -0.17149E+05
 0.77299995E+02 -0.16908E+05
 0.77349998E+02 -0.15539E+05
 0.77399994E+02 -0.13096E+05
 0.77449997E+02 -0.10329E+05
 0.77499992E+02 -0.98985E+04
 0.77549995E+02 -0.11642E+05
 0.77599998E+02 -0.11992E+05
 0.77649994E+02 -0.12529E+05
 0.77699997E+02 -0.12606E+05
 0.77749992E+02 -0.11112E+05
 0.77799995E+02 -0.10557E+05
 0.77849998E+02 -0.11192E+05
 0.77899994E+02 -0.13693E+05
 0.77949997E+02 -0.16805E+05
 0.77999992E+02 -0.19202E+05
 0.78049995E+02 -0.19228E+05
 0.78099998E+02 -0.16709E+05
 0.78149994E+02 -0.13502E+05
 0.78199997E+02 -0.10366E+05
 0.78249992E+02 -0.90745E+04
 0.78299995E+02 -0.10455E+05
 0.78349998E+02 -0.12891E+05
 0.78399994E+02 -0.13016E+05
 0.78449997E+02 -0.12657E+05
 0.78499992E+02 -0.13016E+05
 0.78549995E+02 -0.13311E+05
 0.78599998E+02 -0.12965E+05
 0.78649994E+02 -0.12230E+05
 0.78699997E+02 -0.12120E+05
 0.78749992E+02 -0.12724E+05
 0.78799995E+02 -0.13584E+05
 0.78849998E+02 -0.14881E+05
 0.78899994E+02 -0.17243E+05
 0.78949997E+02 -0.19115E+05
 0.78999992E+02 -0.19865E+05
 0.79049995E+02 -0.18600E+05
 0.79099998E+02 -0.15924E+05
 0.79149994E+02 -0.13335E+05
 0.79199997E+02 -0.12677E+05
 0.79249992E+02 -0.12549E+05
 0.79299995E+02 -0.12992E+05
 0.79349998E+02 -0.13153E+05
 0.79399994E+02 -0.12702E+05
 0.79449997E+02 -0.14141E+05
 0.79499992E+02 -0.16084E+05
 0.79549995E+02 -0.15612E+05
 0.79599998E+02 -0.13667E+05
 0.79649994E+02 -0.14241E+05
 0.79699997E+02 -0.16175E+05
 0.79749992E+02 -0.17470E+05
 0.79799995E+02 -0.16482E+05
 0.79849998E+02 -0.13572E+05
 0.79899994E+02 -0.12330E+05
 0.79949997E+02 -0.13933E+05
 0.79999992E+02 -0.14855E+05
 0.80049995E+02 -0.14633E+05
 0.80099998E+02 -0.14971E+05
 0.80149994E+02 -0.14995E+05
 0.80199997E+02 -0.14326E+05
 0.80249992E+02 -0.13023E+05
 0.80299995E+02 -0.11495E+05
 0.80349998E+02 -0.11277E+05
 0.80399994E+02 -0.11999E+05
 0.80449997E+02 -0.12336E+05
 0.80499992E+02 -0.12727E+05
 0.80549995E+02 -0.12826E+05
 0.80599998E+02 -0.12324E+05
 0.80649994E+02 -0.11436E+05
 0.80699997E+02 -0.11739E+05
 0.80749992E+02 -0.13154E+05
 0.80799995E+02 -0.14546E+05
 0.80849998E+02 -0.16158E+05
 0.80899994E+02 -0.17558E+05
 0.80949997E+02 -0.16846E+05
 0.80999992E+02 -0.15293E+05
 0.81049995E+02 -0.14258E+05
 0.81099998E+02 -0.12187E+05
 0.81149994E+02 -0.11818E+05
 0.81199997E+02 -0.12042E+05
 0.81249992E+02 -0.11262E+05
 0.81299995E+02 -0.10863E+05
 0.81349998E+02 -0.11779E+05
 0.81399994E+02 -0.13139E+05
 0.81449997E+02 -0.13506E+05
 0.81499992E+02 -0.13962E+05
 0.81549995E+02 -0.14049E+05
 0.81599998E+02 -0.14641E+05
 0.81649994E+02 -0.15470E+05
 0.81699997E+02 -0.14682E+05
 0.81749992E+02 -0.13472E+05
 0.81799995E+02 -0.14608E+05
 0.81849998E+02 -0.17106E+05
 0.81899994E+02 -0.17071E+05
 0.81949997E+02 -0.13764E+05
 0.81999992E+02 -0.10935E+05
 0.82049995E+02 -0.10083E+05
 0.82099998E+02 -0.11536E+05
 0.82149994E+02 -0.14344E+05
 0.82199997E+02 -0.16977E+05
 0.82249992E+02 -0.18741E+05
 0.82299995E+02 -0.17376E+05
 0.82349998E+02 -0.14726E+05
 0.82399994E+02 -0.13927E+05
 0.82449997E+02 -0.14781E+05
 0.82499992E+02 -0.16682E+05
 0.82549995E+02 -0.18399E+05
 0.82599998E+02 -0.16832E+05
 0.82649994E+02 -0.13411E+05
 0.82699997E+02 -0.11248E+05
 0.82749992E+02 -0.11194E+05
 0.82799995E+02 -0.12547E+05
 0.82849998E+02 -0.13836E+05
 0.82899994E+02 -0.14557E+05
 0.82949997E+02 -0.15285E+05
 0.82999992E+02 -0.15304E+05
 0.83049995E+02 -0.13524E+05
 0.83099998E+02 -0.12544E+05
 0.83149994E+02 -0.12778E+05
 0.83199997E+02 -0.12913E+05
 0.83249992E+02 -0.13265E+05
 0.83299995E+02 -0.13194E+05
 0.83349998E+02 -0.13813E+05
 0.83399994E+02 -0.15162E+05
 0.83449997E+02 -0.15838E+05
 0.83499992E+02 -0.16266E+05
 0.83549995E+02 -0.15591E+05
 0.83599998E+02 -0.14627E+05
 0.83649994E+02 -0.14438E+05
 0.83699997E+02 -0.14068E+05
 0.83749992E+02 -0.13979E+05
 0.83799995E+02 -0.15234E+05
 0.83849998E+02 -0.16342E+05
 0.83899994E+02 -0.15837E+05
 0.83949997E+02 -0.15206E+05
 0.83999992E+02 -0.15079E+05
 0.84049995E+02 -0.14803E+05
 0.84099998E+02 -0.13930E+05
 0.84149994E+02 -0.13843E+05
 0.84199997E+02 -0.14244E+05
 0.84249992E+02 -0.13573E+05
 0.84299995E+02 -0.13018E+05
 0.84349998E+02 -0.13083E+05
 0.84399994E+02 -0.13616E+05
 0.84449997E+02 -0.13789E+05
 0.84499992E+02 -0.13400E+05
 0.84549995E+02 -0.13177E+05
 0.84599998E+02 -0.13272E+05
 0.84649994E+02 -0.13921E+05
 0.84699997E+02 -0.14171E+05
 0.84749992E+02 -0.12435E+05
 0.84799995E+02 -0.94894E+04
 0.84849998E+02 -0.85869E+04
 0.84899994E+02 -0.10251E+05
 0.84949997E+02 -0.11671E+05
 0.84999992E+02 -0.11797E+05
 0.85049995E+02 -0.11660E+05
 0.85099998E+02 -0.11913E+05
 0.85149994E+02 -0.12723E+05
 0.85199997E+02 -0.13857E+05
 0.85249992E+02 -0.14498E+05
 0.85299995E+02 -0.14676E+05
 0.85349998E+02 -0.15216E+05
 0.85399994E+02 -0.16649E+05
 0.85449997E+02 -0.18384E+05
 0.85499992E+02 -0.18519E+05
 0.85549995E+02 -0.16477E+05
 0.85599998E+02 -0.14194E+05
 0.85649994E+02 -0.12128E+05
 0.85699997E+02 -0.10624E+05
 0.85749992E+02 -0.10786E+05
 0.85799995E+02 -0.12388E+05
 0.85849998E+02 -0.13888E+05
 0.85899994E+02 -0.14472E+05
 0.85949997E+02 -0.14973E+05
 0.85999992E+02 -0.15898E+05
 0.86049995E+02 -0.16811E+05
 0.86099998E+02 -0.17274E+05
 0.86149994E+02 -0.16725E+05
 0.86199997E+02 -0.15380E+05
 0.86249992E+02 -0.15532E+05
 0.86299995E+02 -0.16374E+05
 0.86349998E+02 -0.15300E+05
 0.86399994E+02 -0.12888E+05
 0.86449997E+02 -0.11163E+05
 0.86499992E+02 -0.10928E+05
 0.86549995E+02 -0.11473E+05
 0.86599998E+02 -0.12522E+05
 0.86649994E+02 -0.14392E+05
 0.86699997E+02 -0.15577E+05
 0.86749992E+02 -0.15578E+05
 0.86799995E+02 -0.15336E+05
 0.86849998E+02 -0.14498E+05
 0.86899994E+02 -0.13566E+05
 0.86949997E+02 -0.13926E+05
 0.86999992E+02 -0.15324E+05
 0.87049995E+02 -0.16212E+05
 0.87099998E+02 -0.16715E+05
 0.87149994E+02 -0.16497E+05
 0.87199997E+02 -0.15450E+05
 0.87249992E+02 -0.13634E+05
 0.87299995E+02 -0.11693E+05
 0.87349998E+02 -0.11804E+05
 0.87399994E+02 -0.13250E+05
 0.87449997E+02 -0.14630E+05
 0.87499992E+02 -0.15300E+05
 0.87549995E+02 -0.14725E+05
 0.87599991E+02 -0.13372E+05
 0.87649994E+02 -0.12799E+05
 0.87699997E+02 -0.13443E+05
 0.87749992E+02 -0.14252E+05
 0.87799995E+02 -0.14333E+05
 0.87849991E+02 -0.13701E+05
 0.87899994E+02 -0.12331E+05
 0.87949997E+02 -0.11706E+05
 0.87999992E+02 -0.12588E+05
 0.88049995E+02 -0.13843E+05
 0.88099991E+02 -0.14438E+05
 0.88149994E+02 -0.14088E+05
 0.88199997E+02 -0.13028E+05
 0.88249992E+02 -0.10987E+05
 0.88299995E+02 -0.97037E+04
 0.88349991E+02 -0.96749E+04
 0.88399994E+02 -0.10299E+05
 0.88449997E+02 -0.11481E+05
 0.88499992E+02 -0.13186E+05
 0.88549995E+02 -0.14525E+05
 0.88599991E+02 -0.14712E+05
 0.88649994E+02 -0.14667E+05
 0.88699997E+02 -0.14997E+05
 0.88749992E+02 -0.15943E+05
 0.88799995E+02 -0.16876E+05
 0.88849991E+02 -0.16871E+05
 0.88899994E+02 -0.16158E+05
 0.88949997E+02 -0.16053E+05
 0.88999992E+02 -0.16372E+05
 0.89049995E+02 -0.16160E+05
 0.89099991E+02 -0.15869E+05
 0.89149994E+02 -0.16199E+05
 0.89199997E+02 -0.17111E+05
 0.89249992E+02 -0.17722E+05
 0.89299995E+02 -0.17668E+05
 0.89349991E+02 -0.16573E+05
 0.89399994E+02 -0.14809E+05
 0.89449997E+02 -0.13598E+05
 0.89499992E+02 -0.13226E+05
 0.89549995E+02 -0.13445E+05
 0.89599991E+02 -0.14004E+05
 0.89649994E+02 -0.14773E+05
 0.89699997E+02 -0.15607E+05
 0.89749992E+02 -0.15275E+05
 0.89799995E+02 -0.13152E+05
 0.89849991E+02 -0.11078E+05
 0.89899994E+02 -0.10370E+05
 0.89949997E+02 -0.10814E+05
 0.89999992E+02 -0.11320E+05
 0.90049995E+02 -0.10727E+05
 0.90099991E+02 -0.10696E+05
 0.90149994E+02 -0.11890E+05
 0.90199997E+02 -0.13610E+05
 0.90249992E+02 -0.14914E+05
 0.90299995E+02 -0.14843E+05
 0.90349991E+02 -0.14492E+05
 0.90399994E+02 -0.14993E+05
 0.90449997E+02 -0.16023E+05
 0.90499992E+02 -0.16716E+05
 0.90549995E+02 -0.16976E+05
 0.90599991E+02 -0.16830E+05
 0.90649994E+02 -0.16254E+05
 0.90699997E+02 -0.15934E+05
 0.90749992E+02 -0.15917E+05
 0.90799995E+02 -0.14883E+05
 0.90849991E+02 -0.13769E+05
 0.90899994E+02 -0.13724E+05
 0.90949997E+02 -0.14793E+05
 0.90999992E+02 -0.16663E+05
 0.91049995E+02 -0.17192E+05
 0.91099991E+02 -0.15727E+05
 0.91149994E+02 -0.13594E+05
 0.91199997E+02 -0.11575E+05
 0.91249992E+02 -0.99200E+04
 0.91299995E+02 -0.88860E+04
 0.91349991E+02 -0.88034E+04
 0.91399994E+02 -0.94456E+04
 0.91449997E+02 -0.95583E+04
 0.91499992E+02 -0.95216E+04
 0.91549995E+02 -0.10397E+05
 0.91599991E+02 -0.10933E+05
 0.91649994E+02 -0.11148E+05
 0.91699997E+02 -0.11415E+05
 0.91749992E+02 -0.12525E+05
 0.91799995E+02 -0.14306E+05
 0.91849991E+02 -0.16583E+05
 0.91899994E+02 -0.18561E+05
 0.91949997E+02 -0.18928E+05
 0.91999992E+02 -0.18812E+05
 0.92049995E+02 -0.18407E+05
 0.92099991E+02 -0.18182E+05
 0.92149994E+02 -0.17295E+05
 0.92199997E+02 -0.15119E+05
 0.92249992E+02 -0.13205E+05
 0.92299995E+02 -0.12319E+05
 0.92349991E+02 -0.11932E+05
 0.92399994E+02 -0.11763E+05
 0.92449997E+02 -0.12161E+05
 0.92499992E+02 -0.13429E+05
 0.92549995E+02 -0.15034E+05
 0.92599991E+02 -0.16107E+05
 0.92649994E+02 -0.16029E+05
 0.92699997E+02 -0.14995E+05
 0.92749992E+02 -0.13803E+05
 0.92799995E+02 -0.12475E+05
 0.92849991E+02 -0.11502E+05
 0.92899994E+02 -0.11464E+05
 0.92949997E+02 -0.11585E+05
 0.92999992E+02 -0.11899E+05
 0.93049995E+02 -0.12939E+05
 0.93099991E+02 -0.14594E+05
 0.93149994E+02 -0.16724E+05
 0.93199997E+02 -0.16938E+05
 0.93249992E+02 -0.14974E+05
 0.93299995E+02 -0.13100E+05
 0.93349991E+02 -0.12368E+05
 0.93399994E+02 -0.13069E+05
 0.93449997E+02 -0.14622E+05
 0.93499992E+02 -0.15988E+05
 0.93549995E+02 -0.16376E+05
 0.93599991E+02 -0.16354E+05
 0.93649994E+02 -0.16069E+05
 0.93699997E+02 -0.14883E+05
 0.93749992E+02 -0.13602E+05
 0.93799995E+02 -0.12568E+05
 0.93849991E+02 -0.11770E+05
 0.93899994E+02 -0.11895E+05
 0.93949997E+02 -0.13403E+05
 0.93999992E+02 -0.15715E+05
 0.94049995E+02 -0.17097E+05
 0.94099991E+02 -0.16675E+05
 0.94149994E+02 -0.14780E+05
 0.94199997E+02 -0.12388E+05
 0.94249992E+02 -0.10915E+05
 0.94299995E+02 -0.12003E+05
 0.94349991E+02 -0.14464E+05
 0.94399994E+02 -0.16329E+05
 0.94449997E+02 -0.16847E+05
 0.94499992E+02 -0.16419E+05
 0.94549995E+02 -0.15818E+05
 0.94599991E+02 -0.14294E+05
 0.94649994E+02 -0.12905E+05
 0.94699997E+02 -0.12085E+05
 0.94749992E+02 -0.11076E+05
 0.94799995E+02 -0.10633E+05
 0.94849991E+02 -0.10897E+05
 0.94899994E+02 -0.11544E+05
 0.94949997E+02 -0.12709E+05
 0.94999992E+02 -0.14617E+05
 0.95049995E+02 -0.16267E+05
 0.95099991E+02 -0.16486E+05
 0.95149994E+02 -0.15276E+05
 0.95199997E+02 -0.13648E+05
 0.95249992E+02 -0.13376E+05
 0.95299995E+02 -0.13735E+05
 0.95349991E+02 -0.13590E+05
 0.95399994E+02 -0.13322E+05
 0.95449997E+02 -0.12519E+05
 0.95499992E+02 -0.12114E+05
 0.95549995E+02 -0.12127E+05
 0.95599991E+02 -0.11718E+05
 0.95649994E+02 -0.11675E+05
 0.95699997E+02 -0.12637E+05
 0.95749992E+02 -0.13991E+05
 0.95799995E+02 -0.14928E+05
 0.95849991E+02 -0.15401E+05
 0.95899994E+02 -0.15620E+05
 0.95949997E+02 -0.15727E+05
 0.95999992E+02 -0.15758E+05
 0.96049995E+02 -0.15514E+05
 0.96099991E+02 -0.14636E+05
 0.96149994E+02 -0.14107E+05
 0.96199997E+02 -0.14398E+05
 0.96249992E+02 -0.15244E+05
 0.96299995E+02 -0.15905E+05
 0.96349991E+02 -0.15798E+05
 0.96399994E+02 -0.15254E+05
 0.96449997E+02 -0.14673E+05
 0.96499992E+02 -0.13955E+05
 0.96549995E+02 -0.13457E+05
 0.96599991E+02 -0.13392E+05
 0.96649994E+02 -0.13438E+05
 0.96699997E+02 -0.13597E+05
 0.96749992E+02 -0.13701E+05
 0.96799995E+02 -0.13924E+05
 0.96849991E+02 -0.14377E+05
 0.96899994E+02 -0.14919E+05
 0.96949997E+02 -0.14236E+05
 0.96999992E+02 -0.12922E+05
 0.97049995E+02 -0.11851E+05
 0.97099991E+02 -0.11019E+05
 0.97149994E+02 -0.10556E+05
 0.97199997E+02 -0.10400E+05
 0.97249992E+02 -0.10691E+05
 0.97299995E+02 -0.11280E+05
 0.97349991E+02 -0.12845E+05
 0.97399994E+02 -0.14857E+05
 0.97449997E+02 -0.16881E+05
 0.97499992E+02 -0.18619E+05
 0.97549995E+02 -0.19585E+05
 0.97599991E+02 -0.19848E+05
 0.97649994E+02 -0.19509E+05
 0.97699997E+02 -0.19380E+05
 0.97749992E+02 -0.19656E+05
 0.97799995E+02 -0.19004E+05
 0.97849991E+02 -0.17301E+05
 0.97899994E+02 -0.15564E+05
 0.97949997E+02 -0.13908E+05
 0.97999992E+02 -0.12495E+05
