-0.20000000E+01 -0.33653E+05
-0.19500000E+01 -0.55911E+05
-0.19000000E+01 -0.75152E+05
-0.18500000E+01 -0.93827E+05
-0.18000000E+01 -0.11071E+06
-0.17500000E+01 -0.12527E+06
-0.17000000E+01 -0.13705E+06
-0.16500001E+01 -0.14575E+06
-0.16000000E+01 -0.15123E+06
-0.15500000E+01 -0.15366E+06
-0.15000000E+01 -0.15330E+06
-0.14500000E+01 -0.15015E+06
-0.14000001E+01 -0.14414E+06
-0.13500000E+01 -0.13550E+06
-0.13000001E+01 -0.12474E+06
-0.12500000E+01 -0.11263E+06
-0.12000000E+01 -0.10002E+06
-0.11500001E+01 -0.88045E+05
-0.11000000E+01 -0.77647E+05
-0.10500001E+01 -0.69409E+05
-0.10000000E+01 -0.63695E+05
-0.95000005E+00 -0.60744E+05
-0.90000010E+00 -0.60705E+05
-0.85000002E+00 -0.63034E+05
-0.80000007E+00 -0.66406E+05
-0.75000012E+00 -0.69539E+05
-0.70000005E+00 -0.71533E+05
-0.65000010E+00 -0.71855E+05
-0.60000014E+00 -0.70461E+05
-0.55000007E+00 -0.67503E+05
-0.50000012E+00 -0.63246E+05
-0.45000005E+00 -0.57884E+05
-0.40000010E+00 -0.51983E+05
-0.35000014E+00 -0.46369E+05
-0.30000007E+00 -0.41542E+05
-0.25000012E+00 -0.37867E+05
-0.20000005E+00 -0.35423E+05
-0.15000010E+00 -0.33918E+05
-0.10000014E+00 -0.32764E+05
-0.50000072E-01 -0.31293E+05
-0.11920929E-06 -0.28685E+05
 0.49999952E-01 -0.24331E+05
 0.99999905E-01 -0.17939E+05
 0.14999986E+00 -0.94562E+04
 0.19999981E+00  0.86587E+03
 0.24999976E+00  0.12589E+05
 0.29999995E+00  0.25186E+05
 0.34999990E+00  0.38201E+05
 0.39999986E+00  0.50884E+05
 0.44999981E+00  0.62288E+05
 0.49999976E+00  0.71550E+05
 0.54999995E+00  0.78236E+05
 0.59999990E+00  0.81995E+05
 0.64999986E+00  0.82680E+05
 0.69999981E+00  0.80751E+05
 0.74999976E+00  0.77058E+05
 0.79999971E+00  0.72617E+05
 0.84999990E+00  0.68086E+05
 0.89999986E+00  0.63712E+05
 0.94999981E+00  0.59560E+05
 0.99999976E+00  0.55720E+05
 0.10499997E+01  0.52364E+05
 0.10999999E+01  0.49703E+05
 0.11499999E+01  0.47751E+05
 0.11999998E+01  0.46057E+05
 0.12499998E+01  0.44364E+05
 0.12999997E+01  0.42590E+05
 0.13499999E+01  0.40437E+05
 0.13999999E+01  0.37671E+05
 0.14499998E+01  0.34158E+05
 0.14999998E+01  0.30082E+05
 0.15499997E+01  0.25682E+05
 0.15999999E+01  0.20955E+05
 0.16499999E+01  0.15901E+05
 0.16999998E+01  0.10733E+05
 0.17499998E+01  0.51506E+04
 0.17999997E+01 -0.11326E+04
 0.18499997E+01 -0.81013E+04
 0.18999999E+01 -0.15450E+05
 0.19499998E+01 -0.22470E+05
 0.19999998E+01 -0.28610E+05
 0.20499997E+01 -0.33287E+05
 0.20999999E+01 -0.36644E+05
 0.21499996E+01 -0.39276E+05
 0.21999998E+01 -0.41900E+05
 0.22499995E+01 -0.45181E+05
 0.22999997E+01 -0.49381E+05
 0.23499999E+01 -0.54366E+05
 0.23999996E+01 -0.59610E+05
 0.24499998E+01 -0.64722E+05
 0.24999995E+01 -0.69249E+05
 0.25499997E+01 -0.72623E+05
 0.25999999E+01 -0.74506E+05
 0.26499996E+01 -0.74698E+05
 0.26999998E+01 -0.72927E+05
 0.27499995E+01 -0.69038E+05
 0.27999997E+01 -0.63092E+05
 0.28499999E+01 -0.55383E+05
 0.28999996E+01 -0.46209E+05
 0.29499998E+01 -0.35556E+05
 0.29999995E+01 -0.23877E+05
 0.30499997E+01 -0.12095E+05
 0.30999999E+01 -0.13197E+04
 0.31499996E+01  0.74673E+04
 0.31999998E+01  0.13973E+05
 0.32499995E+01  0.18306E+05
 0.32999997E+01  0.20943E+05
 0.33499999E+01  0.22303E+05
 0.33999996E+01  0.22787E+05
 0.34499998E+01  0.22885E+05
 0.34999995E+01  0.23055E+05
 0.35499997E+01  0.23791E+05
 0.35999994E+01  0.25613E+05
 0.36499996E+01  0.28940E+05
 0.36999998E+01  0.33991E+05
 0.37499995E+01  0.40809E+05
 0.37999997E+01  0.49175E+05
 0.38499994E+01  0.58643E+05
 0.38999996E+01  0.68961E+05
 0.39499998E+01  0.79842E+05
 0.39999995E+01  0.90710E+05
 0.40499997E+01  0.10107E+06
 0.40999994E+01  0.11029E+06
 0.41499996E+01  0.11796E+06
 0.41999998E+01  0.12360E+06
 0.42499995E+01  0.12679E+06
 0.42999997E+01  0.12696E+06
 0.43499994E+01  0.12371E+06
 0.43999996E+01  0.11715E+06
 0.44499998E+01  0.10768E+06
 0.44999995E+01  0.95914E+05
 0.45499997E+01  0.82251E+05
 0.45999994E+01  0.67028E+05
 0.46499996E+01  0.50488E+05
 0.46999998E+01  0.32830E+05
 0.47499995E+01  0.14320E+05
 0.47999997E+01 -0.44843E+04
 0.48499994E+01 -0.23341E+05
 0.48999996E+01 -0.41994E+05
 0.49499998E+01 -0.59868E+05
 0.49999995E+01 -0.76670E+05
 0.50499997E+01 -0.92493E+05
 0.50999994E+01 -0.10758E+06
 0.51499996E+01 -0.12187E+06
 0.51999998E+01 -0.13508E+06
 0.52499995E+01 -0.14649E+06
 0.52999997E+01 -0.15553E+06
 0.53499994E+01 -0.16216E+06
 0.53999996E+01 -0.16631E+06
 0.54499993E+01 -0.16797E+06
 0.54999995E+01 -0.16693E+06
 0.55499997E+01 -0.16261E+06
 0.55999994E+01 -0.15444E+06
 0.56499996E+01 -0.14214E+06
 0.56999993E+01 -0.12577E+06
 0.57499995E+01 -0.10573E+06
 0.57999997E+01 -0.82794E+05
 0.58499994E+01 -0.58017E+05
 0.58999996E+01 -0.32243E+05
 0.59499993E+01 -0.63519E+04
 0.59999995E+01  0.18653E+05
 0.60499992E+01  0.41936E+05
 0.60999994E+01  0.62323E+05
 0.61499996E+01  0.78781E+05
 0.61999998E+01  0.90552E+05
 0.62499990E+01  0.97331E+05
 0.62999992E+01  0.99259E+05
 0.63499994E+01  0.96503E+05
 0.63999996E+01  0.90053E+05
 0.64499998E+01  0.81326E+05
 0.64999990E+01  0.71452E+05
 0.65499992E+01  0.61363E+05
 0.65999994E+01  0.51725E+05
 0.66499996E+01  0.43161E+05
 0.66999998E+01  0.36261E+05
 0.67499990E+01  0.31441E+05
 0.67999992E+01  0.29033E+05
 0.68499994E+01  0.29100E+05
 0.68999996E+01  0.31477E+05
 0.69499998E+01  0.36190E+05
 0.69999990E+01  0.43221E+05
 0.70499992E+01  0.52294E+05
 0.70999994E+01  0.62591E+05
 0.71499996E+01  0.72931E+05
 0.71999998E+01  0.82175E+05
 0.72499990E+01  0.89130E+05
 0.72999992E+01  0.93128E+05
 0.73499994E+01  0.94342E+05
 0.73999996E+01  0.93019E+05
 0.74499998E+01  0.89430E+05
 0.74999990E+01  0.84143E+05
 0.75499992E+01  0.77756E+05
 0.75999994E+01  0.71114E+05
 0.76499996E+01  0.64893E+05
 0.76999998E+01  0.59883E+05
 0.77499990E+01  0.56979E+05
 0.77999992E+01  0.56791E+05
 0.78499994E+01  0.59598E+05
 0.78999996E+01  0.64981E+05
 0.79499998E+01  0.72001E+05
 0.79999990E+01  0.79451E+05
 0.80499992E+01  0.86413E+05
 0.80999994E+01  0.92077E+05
 0.81499996E+01  0.95551E+05
 0.81999998E+01  0.96444E+05
 0.82499990E+01  0.94925E+05
 0.82999992E+01  0.90901E+05
 0.83499994E+01  0.84223E+05
 0.83999996E+01  0.75189E+05
 0.84499998E+01  0.64233E+05
 0.84999990E+01  0.51803E+05
 0.85499992E+01  0.38356E+05
 0.85999994E+01  0.24603E+05
 0.86499996E+01  0.11171E+05
 0.86999998E+01 -0.15749E+04
 0.87499990E+01 -0.13415E+05
 0.87999992E+01 -0.24282E+05
 0.88499994E+01 -0.33990E+05
 0.88999996E+01 -0.42336E+05
 0.89499998E+01 -0.49505E+05
 0.89999990E+01 -0.56105E+05
 0.90499992E+01 -0.63210E+05
 0.90999994E+01 -0.71803E+05
 0.91499996E+01 -0.82379E+05
 0.91999989E+01 -0.95113E+05
 0.92499990E+01 -0.10937E+06
 0.92999992E+01 -0.12424E+06
 0.93499994E+01 -0.13910E+06
 0.93999996E+01 -0.15371E+06
 0.94499989E+01 -0.16815E+06
 0.94999990E+01 -0.18193E+06
 0.95499992E+01 -0.19432E+06
 0.95999994E+01 -0.20492E+06
 0.96499996E+01 -0.21345E+06
 0.96999989E+01 -0.21968E+06
 0.97499990E+01 -0.22333E+06
 0.97999992E+01 -0.22416E+06
 0.98499994E+01 -0.22212E+06
 0.98999996E+01 -0.21714E+06
 0.99499989E+01 -0.20927E+06
 0.99999990E+01 -0.19855E+06
 0.10049999E+02 -0.18466E+06
 0.10099999E+02 -0.16775E+06
 0.10150000E+02 -0.14863E+06
 0.10199999E+02 -0.12848E+06
 0.10249999E+02 -0.10858E+06
 0.10299999E+02 -0.89832E+05
 0.10349999E+02 -0.72777E+05
 0.10400000E+02 -0.57821E+05
 0.10449999E+02 -0.45257E+05
 0.10499999E+02 -0.35418E+05
 0.10549999E+02 -0.28381E+05
 0.10599999E+02 -0.23432E+05
 0.10650000E+02 -0.19703E+05
 0.10699999E+02 -0.16418E+05
 0.10749999E+02 -0.13116E+05
 0.10799999E+02 -0.94890E+04
 0.10849999E+02 -0.56012E+04
 0.10900000E+02 -0.21300E+04
 0.10949999E+02  0.49130E+03
 0.10999999E+02  0.20006E+04
 0.11049999E+02  0.27731E+04
 0.11099999E+02  0.39174E+04
 0.11150000E+02  0.65041E+04
 0.11199999E+02  0.11466E+05
 0.11249999E+02  0.19346E+05
 0.11299999E+02  0.30219E+05
 0.11349999E+02  0.43772E+05
 0.11400000E+02  0.59406E+05
 0.11449999E+02  0.76489E+05
 0.11499999E+02  0.94430E+05
 0.11549999E+02  0.11256E+06
 0.11599999E+02  0.12983E+06
 0.11650000E+02  0.14529E+06
 0.11699999E+02  0.15872E+06
 0.11749999E+02  0.17015E+06
 0.11799999E+02  0.17971E+06
 0.11849999E+02  0.18786E+06
 0.11900000E+02  0.19493E+06
 0.11949999E+02  0.20099E+06
 0.11999999E+02  0.20595E+06
 0.12049999E+02  0.20958E+06
 0.12099999E+02  0.21183E+06
 0.12150000E+02  0.21283E+06
 0.12199999E+02  0.21259E+06
 0.12249999E+02  0.21132E+06
 0.12299999E+02  0.20946E+06
 0.12349999E+02  0.20741E+06
 0.12400000E+02  0.20501E+06
 0.12449999E+02  0.20166E+06
 0.12499999E+02  0.19664E+06
 0.12549999E+02  0.18926E+06
 0.12599999E+02  0.17935E+06
 0.12649999E+02  0.16675E+06
 0.12699999E+02  0.15105E+06
 0.12749999E+02  0.13190E+06
 0.12799999E+02  0.10921E+06
 0.12849999E+02  0.83223E+05
 0.12899999E+02  0.54434E+05
 0.12949999E+02  0.23589E+05
 0.12999999E+02 -0.85906E+04
 0.13049999E+02 -0.40931E+05
 0.13099999E+02 -0.72067E+05
 0.13149999E+02 -0.10069E+06
 0.13199999E+02 -0.12581E+06
 0.13249999E+02 -0.14707E+06
 0.13299999E+02 -0.16438E+06
 0.13349999E+02 -0.17776E+06
 0.13399999E+02 -0.18709E+06
 0.13449999E+02 -0.19243E+06
 0.13499999E+02 -0.19415E+06
 0.13549999E+02 -0.19265E+06
 0.13599999E+02 -0.18862E+06
 0.13649999E+02 -0.18297E+06
 0.13699999E+02 -0.17651E+06
 0.13749999E+02 -0.16968E+06
 0.13799999E+02 -0.16254E+06
 0.13849999E+02 -0.15526E+06
 0.13899999E+02 -0.14785E+06
 0.13949999E+02 -0.14053E+06
 0.13999999E+02 -0.13361E+06
 0.14049999E+02 -0.12682E+06
 0.14099998E+02 -0.11964E+06
 0.14150000E+02 -0.11155E+06
 0.14199999E+02 -0.10247E+06
 0.14249998E+02 -0.92427E+05
 0.14299999E+02 -0.81368E+05
 0.14349998E+02 -0.69243E+05
 0.14400000E+02 -0.56071E+05
 0.14449999E+02 -0.41879E+05
 0.14499998E+02 -0.26847E+05
 0.14549999E+02 -0.11351E+05
 0.14599998E+02  0.42837E+04
 0.14650000E+02  0.19660E+05
 0.14699999E+02  0.34037E+05
 0.14749998E+02  0.46465E+05
 0.14799999E+02  0.56334E+05
 0.14849998E+02  0.63620E+05
 0.14900000E+02  0.68701E+05
 0.14949999E+02  0.71886E+05
 0.14999998E+02  0.73503E+05
 0.15049999E+02  0.73856E+05
 0.15099998E+02  0.73236E+05
 0.15150000E+02  0.72033E+05
 0.15199999E+02  0.70557E+05
 0.15249998E+02  0.68806E+05
 0.15299999E+02  0.66866E+05
 0.15349998E+02  0.65032E+05
 0.15400000E+02  0.63619E+05
 0.15449999E+02  0.63074E+05
 0.15499998E+02  0.63685E+05
 0.15549999E+02  0.65646E+05
 0.15599998E+02  0.68754E+05
 0.15650000E+02  0.72517E+05
 0.15699999E+02  0.76738E+05
 0.15749998E+02  0.81645E+05
 0.15799999E+02  0.87317E+05
 0.15849998E+02  0.93424E+05
 0.15900000E+02  0.99413E+05
 0.15949999E+02  0.10458E+06
 0.15999998E+02  0.10833E+06
 0.16049999E+02  0.11026E+06
 0.16099998E+02  0.10999E+06
 0.16150000E+02  0.10686E+06
 0.16199999E+02  0.10022E+06
 0.16249998E+02  0.89709E+05
 0.16299999E+02  0.75382E+05
 0.16349998E+02  0.57555E+05
 0.16400000E+02  0.36894E+05
 0.16449999E+02  0.14103E+05
 0.16499998E+02 -0.10088E+05
 0.16549999E+02 -0.34814E+05
 0.16599998E+02 -0.58996E+05
 0.16650000E+02 -0.81829E+05
 0.16699999E+02 -0.10308E+06
 0.16749998E+02 -0.12254E+06
 0.16799999E+02 -0.13991E+06
 0.16849998E+02 -0.15481E+06
 0.16900000E+02 -0.16685E+06
 0.16949999E+02 -0.17584E+06
 0.16999998E+02 -0.18160E+06
 0.17049999E+02 -0.18401E+06
 0.17099998E+02 -0.18309E+06
 0.17150000E+02 -0.17889E+06
 0.17199999E+02 -0.17139E+06
 0.17249998E+02 -0.16059E+06
 0.17299999E+02 -0.14676E+06
 0.17349998E+02 -0.13033E+06
 0.17400000E+02 -0.11157E+06
 0.17449999E+02 -0.90346E+05
 0.17499998E+02 -0.66581E+05
 0.17549999E+02 -0.40851E+05
 0.17599998E+02 -0.14042E+05
 0.17650000E+02  0.12907E+05
 0.17699999E+02  0.38967E+05
 0.17749998E+02  0.63102E+05
 0.17799999E+02  0.84471E+05
 0.17849998E+02  0.10242E+06
 0.17900000E+02  0.11658E+06
 0.17949999E+02  0.12671E+06
 0.17999998E+02  0.13256E+06
 0.18049999E+02  0.13377E+06
 0.18099998E+02  0.13030E+06
 0.18150000E+02  0.12262E+06
 0.18199999E+02  0.11113E+06
 0.18249998E+02  0.96485E+05
 0.18299999E+02  0.79622E+05
 0.18349998E+02  0.61667E+05
 0.18400000E+02  0.44109E+05
 0.18449999E+02  0.27962E+05
 0.18499998E+02  0.13641E+05
 0.18549999E+02  0.10248E+04
 0.18599998E+02 -0.10405E+05
 0.18650000E+02 -0.20785E+05
 0.18699999E+02 -0.29941E+05
 0.18749998E+02 -0.37441E+05
 0.18799999E+02 -0.42868E+05
 0.18849998E+02 -0.45947E+05
 0.18900000E+02 -0.46538E+05
 0.18949999E+02 -0.44517E+05
 0.18999998E+02 -0.39622E+05
 0.19049999E+02 -0.31930E+05
 0.19099998E+02 -0.21859E+05
 0.19150000E+02 -0.98003E+04
 0.19199999E+02  0.38612E+04
 0.19249998E+02  0.18270E+05
 0.19299999E+02  0.32437E+05
 0.19349998E+02  0.45507E+05
 0.19400000E+02  0.57069E+05
 0.19449999E+02  0.66951E+05
 0.19499998E+02  0.74920E+05
 0.19549999E+02  0.80825E+05
 0.19599998E+02  0.84523E+05
 0.19650000E+02  0.85835E+05
 0.19699999E+02  0.84456E+05
 0.19749998E+02  0.80333E+05
 0.19799999E+02  0.73748E+05
 0.19849998E+02  0.64824E+05
 0.19900000E+02  0.53589E+05
 0.19949999E+02  0.40274E+05
 0.19999998E+02  0.25212E+05
 0.20049999E+02  0.90310E+04
 0.20099998E+02 -0.74270E+04
 0.20150000E+02 -0.23361E+05
 0.20199999E+02 -0.37966E+05
 0.20249998E+02 -0.50450E+05
 0.20299999E+02 -0.59972E+05
 0.20349998E+02 -0.65906E+05
 0.20399998E+02 -0.68147E+05
 0.20449999E+02 -0.67180E+05
 0.20499998E+02 -0.63844E+05
 0.20549999E+02 -0.59230E+05
 0.20599998E+02 -0.54459E+05
 0.20649998E+02 -0.50330E+05
 0.20699999E+02 -0.47118E+05
 0.20749998E+02 -0.44665E+05
 0.20799999E+02 -0.42642E+05
 0.20849998E+02 -0.40503E+05
 0.20899998E+02 -0.37697E+05
 0.20949999E+02 -0.33913E+05
 0.20999998E+02 -0.29267E+05
 0.21049999E+02 -0.24035E+05
 0.21099998E+02 -0.18216E+05
 0.21149998E+02 -0.11861E+05
 0.21199999E+02 -0.51419E+04
 0.21249998E+02  0.16919E+04
 0.21299999E+02  0.82604E+04
 0.21349998E+02  0.14394E+05
 0.21399998E+02  0.19872E+05
 0.21449999E+02  0.24654E+05
 0.21499998E+02  0.28932E+05
 0.21549999E+02  0.33082E+05
 0.21599998E+02  0.37659E+05
 0.21649998E+02  0.42831E+05
 0.21699999E+02  0.48352E+05
 0.21749998E+02  0.53811E+05
 0.21799999E+02  0.58680E+05
 0.21849998E+02  0.62278E+05
 0.21899998E+02  0.64185E+05
 0.21949999E+02  0.64199E+05
 0.21999998E+02  0.62297E+05
 0.22049999E+02  0.58487E+05
 0.22099998E+02  0.52587E+05
 0.22149998E+02  0.44359E+05
 0.22199999E+02  0.33834E+05
 0.22249998E+02  0.21517E+05
 0.22299999E+02  0.80356E+04
 0.22349998E+02 -0.61572E+04
 0.22399998E+02 -0.20513E+05
 0.22449999E+02 -0.34529E+05
 0.22499998E+02 -0.47732E+05
 0.22549999E+02 -0.59617E+05
 0.22599998E+02 -0.70069E+05
 0.22649998E+02 -0.78715E+05
 0.22699999E+02 -0.84965E+05
 0.22749998E+02 -0.88500E+05
 0.22799999E+02 -0.89479E+05
 0.22849998E+02 -0.88317E+05
 0.22899998E+02 -0.85381E+05
 0.22949999E+02 -0.81064E+05
 0.22999998E+02 -0.75776E+05
 0.23049999E+02 -0.69956E+05
 0.23099998E+02 -0.63902E+05
 0.23149998E+02 -0.57815E+05
 0.23199999E+02 -0.51760E+05
 0.23249998E+02 -0.45556E+05
 0.23299999E+02 -0.38862E+05
 0.23349998E+02 -0.31690E+05
 0.23399998E+02 -0.24294E+05
 0.23449999E+02 -0.16938E+05
 0.23499998E+02 -0.10086E+05
 0.23549999E+02 -0.40488E+04
 0.23599998E+02  0.10028E+04
 0.23649998E+02  0.49238E+04
 0.23699999E+02  0.75916E+04
 0.23749998E+02  0.87109E+04
 0.23799999E+02  0.82134E+04
 0.23849998E+02  0.62610E+04
 0.23899998E+02  0.33651E+04
 0.23949999E+02 -0.94391E+01
 0.23999998E+02 -0.38187E+04
 0.24049999E+02 -0.81492E+04
 0.24099998E+02 -0.13273E+05
 0.24149998E+02 -0.19211E+05
 0.24199999E+02 -0.25545E+05
 0.24249998E+02 -0.31401E+05
 0.24299999E+02 -0.35712E+05
 0.24349998E+02 -0.37601E+05
 0.24399998E+02 -0.36403E+05
 0.24449999E+02 -0.31725E+05
 0.24499998E+02 -0.23543E+05
 0.24549999E+02 -0.12016E+05
 0.24599998E+02  0.24171E+04
 0.24649998E+02  0.19169E+05
 0.24699999E+02  0.37553E+05
 0.24749998E+02  0.56479E+05
 0.24799999E+02  0.74583E+05
 0.24849998E+02  0.90812E+05
 0.24899998E+02  0.10446E+06
 0.24949999E+02  0.11482E+06
 0.24999998E+02  0.12123E+06
 0.25049999E+02  0.12292E+06
 0.25099998E+02  0.11935E+06
 0.25149998E+02  0.11028E+06
 0.25199999E+02  0.95988E+05
 0.25249998E+02  0.77298E+05
 0.25299999E+02  0.55114E+05
 0.25349998E+02  0.30328E+05
 0.25399998E+02  0.38614E+04
 0.25449999E+02 -0.23299E+05
 0.25499998E+02 -0.50177E+05
 0.25549999E+02 -0.75683E+05
 0.25599998E+02 -0.98526E+05
 0.25649998E+02 -0.11770E+06
 0.25699999E+02 -0.13271E+06
 0.25749998E+02 -0.14346E+06
 0.25799999E+02 -0.15017E+06
 0.25849998E+02 -0.15310E+06
 0.25899998E+02 -0.15267E+06
 0.25949999E+02 -0.14922E+06
 0.25999998E+02 -0.14315E+06
 0.26049999E+02 -0.13474E+06
 0.26099998E+02 -0.12393E+06
 0.26149998E+02 -0.11069E+06
 0.26199999E+02 -0.95135E+05
 0.26249998E+02 -0.77647E+05
 0.26299999E+02 -0.58742E+05
 0.26349998E+02 -0.38820E+05
 0.26399998E+02 -0.18232E+05
 0.26449999E+02  0.26632E+04
 0.26499998E+02  0.23469E+05
 0.26549999E+02  0.43612E+05
 0.26599998E+02  0.62432E+05
 0.26649998E+02  0.79251E+05
 0.26699999E+02  0.93729E+05
 0.26749998E+02  0.10587E+06
 0.26799999E+02  0.11582E+06
 0.26849998E+02  0.12348E+06
 0.26899998E+02  0.12849E+06
 0.26949999E+02  0.13059E+06
 0.26999998E+02  0.12967E+06
 0.27049997E+02  0.12593E+06
 0.27099998E+02  0.11995E+06
 0.27149998E+02  0.11246E+06
 0.27199999E+02  0.10408E+06
 0.27249998E+02  0.95522E+05
 0.27299997E+02  0.87301E+05
 0.27349998E+02  0.79798E+05
 0.27399998E+02  0.73417E+05
 0.27449999E+02  0.68560E+05
 0.27499998E+02  0.65657E+05
 0.27549997E+02  0.64776E+05
 0.27599998E+02  0.66276E+05
 0.27649998E+02  0.70492E+05
 0.27699999E+02  0.77060E+05
 0.27749998E+02  0.83319E+05
 0.27799997E+02  0.87647E+05
 0.27849998E+02  0.91356E+05
 0.27899998E+02  0.96048E+05
 0.27949999E+02  0.10096E+06
 0.27999998E+02  0.10620E+06
 0.28049997E+02  0.11193E+06
 0.28099998E+02  0.11505E+06
 0.28149998E+02  0.11477E+06
 0.28199999E+02  0.11757E+06
 0.28249998E+02  0.12652E+06
 0.28299997E+02  0.13560E+06
 0.28349998E+02  0.13937E+06
 0.28399998E+02  0.14049E+06
 0.28449999E+02  0.14016E+06
 0.28499998E+02  0.14006E+06
 0.28549997E+02  0.14475E+06
 0.28599998E+02  0.15148E+06
 0.28649998E+02  0.14912E+06
 0.28699999E+02  0.13393E+06
 0.28749998E+02  0.11735E+06
 0.28799997E+02  0.11139E+06
 0.28849998E+02  0.10961E+06
 0.28899998E+02  0.10423E+06
 0.28949999E+02  0.89918E+05
 0.28999998E+02  0.60905E+05
 0.29049997E+02  0.29936E+05
 0.29099998E+02  0.77070E+04
 0.29149998E+02  0.47270E+04
 0.29199999E+02  0.55585E+03
 0.29249998E+02 -0.21547E+05
 0.29299997E+02 -0.45907E+05
 0.29349998E+02 -0.75656E+05
 0.29399998E+02 -0.10252E+06
 0.29449999E+02 -0.10288E+06
 0.29499998E+02 -0.94226E+05
 0.29549997E+02 -0.93980E+05
 0.29599998E+02 -0.11253E+06
 0.29649998E+02 -0.13434E+06
 0.29699999E+02 -0.14457E+06
 0.29749998E+02 -0.15563E+06
 0.29799997E+02 -0.14870E+06
 0.29849998E+02 -0.12824E+06
 0.29899998E+02 -0.13259E+06
 0.29949999E+02 -0.15340E+06
 0.29999998E+02 -0.16018E+06
 0.30049999E+02 -0.15007E+06
 0.30099998E+02 -0.15252E+06
 0.30149998E+02 -0.14966E+06
 0.30199997E+02 -0.13378E+06
 0.30249996E+02 -0.14017E+06
 0.30299999E+02 -0.14952E+06
 0.30349998E+02 -0.14238E+06
 0.30399998E+02 -0.13880E+06
 0.30449997E+02 -0.15681E+06
 0.30499996E+02 -0.18096E+06
 0.30549999E+02 -0.18826E+06
 0.30599998E+02 -0.18209E+06
 0.30649998E+02 -0.20125E+06
 0.30699997E+02 -0.20636E+06
 0.30749996E+02 -0.19842E+06
 0.30799999E+02 -0.19494E+06
 0.30849998E+02 -0.17511E+06
 0.30899998E+02 -0.14043E+06
 0.30949997E+02 -0.11364E+06
 0.30999996E+02 -0.13057E+06
 0.31049999E+02 -0.13467E+06
 0.31099998E+02 -0.10926E+06
 0.31149998E+02 -0.12350E+06
 0.31199997E+02 -0.12885E+06
 0.31249996E+02 -0.11397E+06
 0.31299999E+02 -0.11451E+06
 0.31349998E+02 -0.11620E+06
 0.31399998E+02 -0.97120E+05
 0.31449997E+02 -0.68416E+05
 0.31499996E+02 -0.74551E+05
 0.31549999E+02 -0.53853E+05
 0.31599998E+02 -0.24274E+05
 0.31649998E+02 -0.12400E+05
 0.31699997E+02 -0.10148E+05
 0.31749996E+02 -0.69331E+04
 0.31799999E+02  0.21534E+04
 0.31849998E+02  0.37254E+04
 0.31899998E+02  0.22356E+05
 0.31949997E+02  0.59371E+05
 0.31999996E+02  0.79827E+05
 0.32049999E+02  0.74588E+05
 0.32099998E+02  0.90151E+05
 0.32149998E+02  0.98264E+05
 0.32199997E+02  0.98620E+05
 0.32249996E+02  0.13093E+06
 0.32299999E+02  0.15664E+06
 0.32349998E+02  0.17681E+06
 0.32399998E+02  0.16941E+06
 0.32449997E+02  0.15684E+06
 0.32499996E+02  0.16477E+06
 0.32549999E+02  0.17440E+06
 0.32599998E+02  0.19444E+06
 0.32649998E+02  0.22014E+06
 0.32699997E+02  0.22205E+06
 0.32749996E+02  0.21430E+06
 0.32799999E+02  0.21247E+06
 0.32849998E+02  0.19504E+06
 0.32899998E+02  0.19792E+06
 0.32949997E+02  0.18093E+06
 0.32999996E+02  0.13831E+06
 0.33049999E+02  0.84659E+05
 0.33099998E+02  0.59062E+05
 0.33149998E+02  0.55251E+05
 0.33199997E+02  0.45005E+05
 0.33249996E+02  0.71527E+05
 0.33299999E+02  0.73287E+05
 0.33349998E+02  0.17214E+05
 0.33399998E+02 -0.13625E+05
 0.33449997E+02 -0.34087E+04
 0.33499996E+02  0.54421E+05
 0.33549999E+02  0.12189E+06
 0.33599998E+02  0.14119E+06
 0.33649998E+02  0.11395E+06
 0.33699997E+02  0.63634E+05
 0.33749996E+02  0.69316E+05
 0.33799999E+02  0.12056E+06
 0.33849998E+02  0.14045E+06
 0.33899998E+02  0.12848E+06
 0.33949997E+02  0.87400E+05
 0.33999996E+02  0.25454E+05
 0.34049999E+02 -0.23961E+04
 0.34099998E+02 -0.51858E+04
 0.34149998E+02 -0.14639E+04
 0.34199997E+02 -0.20937E+05
 0.34249996E+02 -0.48374E+05
 0.34299999E+02 -0.77407E+05
 0.34349998E+02 -0.12473E+06
 0.34399998E+02 -0.15976E+06
 0.34449997E+02 -0.18972E+06
 0.34499996E+02 -0.21348E+06
 0.34549999E+02 -0.22699E+06
 0.34599998E+02 -0.24821E+06
 0.34649998E+02 -0.21790E+06
 0.34699997E+02 -0.16999E+06
 0.34749996E+02 -0.14989E+06
 0.34799999E+02 -0.16131E+06
 0.34849998E+02 -0.20193E+06
 0.34899998E+02 -0.18494E+06
 0.34949997E+02 -0.14332E+06
 0.34999996E+02 -0.11717E+06
 0.35049999E+02 -0.82058E+05
 0.35099998E+02 -0.66858E+05
 0.35149998E+02 -0.76878E+05
 0.35199997E+02 -0.80124E+05
 0.35249996E+02 -0.59917E+05
 0.35299999E+02 -0.27174E+05
 0.35349998E+02  0.61690E+03
 0.35399998E+02  0.17240E+05
 0.35449997E+02  0.22438E+05
 0.35499996E+02  0.28925E+05
 0.35549999E+02  0.42347E+05
 0.35599998E+02  0.36529E+05
 0.35649998E+02  0.26516E+05
 0.35699997E+02  0.20067E+05
 0.35749996E+02 -0.13792E+05
 0.35799999E+02 -0.12816E+05
 0.35849998E+02  0.27073E+04
 0.35899998E+02  0.12684E+05
 0.35949997E+02 -0.17530E+04
 0.35999996E+02 -0.26012E+05
 0.36049999E+02 -0.13610E+05
 0.36099998E+02  0.13654E+05
 0.36149998E+02  0.42477E+05
 0.36199997E+02  0.28567E+05
 0.36249996E+02  0.31916E+04
 0.36299999E+02 -0.13492E+05
 0.36349998E+02 -0.41403E+05
 0.36399998E+02 -0.70413E+05
 0.36449997E+02 -0.80402E+05
 0.36499996E+02 -0.53022E+05
 0.36549999E+02 -0.28456E+05
 0.36599998E+02 -0.39522E+05
 0.36649998E+02 -0.29281E+05
 0.36699997E+02 -0.12109E+05
 0.36749996E+02 -0.12854E+05
 0.36799999E+02 -0.21233E+05
 0.36849998E+02 -0.21972E+05
 0.36899998E+02  0.33186E+04
 0.36949997E+02  0.15927E+05
 0.36999996E+02  0.10037E+05
 0.37049999E+02  0.70350E+04
 0.37099998E+02 -0.45767E+03
 0.37149998E+02 -0.10501E+05
 0.37199997E+02 -0.49753E+05
 0.37249996E+02 -0.37667E+05
 0.37299999E+02  0.12221E+05
 0.37349998E+02  0.23036E+05
 0.37399998E+02  0.47848E+05
 0.37449997E+02  0.42688E+05
 0.37499996E+02  0.54583E+05
 0.37549999E+02  0.67361E+05
 0.37599998E+02  0.10363E+06
 0.37649998E+02  0.15489E+06
 0.37699997E+02  0.13777E+06
 0.37749996E+02  0.10407E+06
 0.37799999E+02  0.91628E+05
 0.37849998E+02  0.86482E+05
 0.37899998E+02  0.93446E+05
 0.37949997E+02  0.75159E+05
 0.37999996E+02  0.17686E+05
 0.38049999E+02  0.43393E+05
 0.38099998E+02  0.57507E+05
 0.38149998E+02  0.85002E+04
 0.38199997E+02 -0.10026E+05
 0.38249996E+02  0.77656E+03
 0.38299999E+02  0.20309E+04
 0.38349998E+02 -0.21140E+05
 0.38399998E+02 -0.49202E+05
 0.38449997E+02 -0.43723E+05
 0.38499996E+02 -0.20096E+05
 0.38549999E+02  0.19431E+05
 0.38599998E+02  0.61090E+05
 0.38649998E+02  0.59695E+05
 0.38699997E+02  0.47024E+05
 0.38749996E+02  0.57841E+05
 0.38799999E+02  0.59132E+05
 0.38849998E+02  0.40555E+05
 0.38899998E+02  0.20548E+05
 0.38949997E+02 -0.33606E+04
 0.38999996E+02 -0.42770E+04
 0.39049999E+02 -0.15968E+05
 0.39099998E+02 -0.34667E+05
 0.39149998E+02 -0.59998E+05
 0.39199997E+02 -0.67659E+05
 0.39249996E+02 -0.32269E+05
 0.39299999E+02 -0.23440E+05
 0.39349998E+02 -0.16453E+05
 0.39399998E+02  0.49974E+04
 0.39449997E+02 -0.31400E+05
 0.39499996E+02 -0.48036E+05
 0.39549999E+02 -0.26636E+05
 0.39599998E+02  0.58729E+04
 0.39649998E+02  0.58339E+05
 0.39699997E+02  0.43710E+05
 0.39749996E+02  0.43559E+05
 0.39799999E+02  0.62138E+05
 0.39849998E+02  0.63479E+05
 0.39899998E+02  0.41076E+05
 0.39949997E+02  0.16051E+05
 0.39999996E+02  0.15215E+05
 0.40049999E+02  0.35799E+05
 0.40099998E+02  0.76949E+05
 0.40149998E+02  0.90897E+05
 0.40199997E+02  0.11776E+06
 0.40249996E+02  0.10547E+06
 0.40299999E+02  0.79930E+05
 0.40349998E+02  0.10663E+06
 0.40399998E+02  0.14048E+06
 0.40449997E+02  0.11925E+06
 0.40499996E+02  0.12617E+06
 0.40549999E+02  0.15105E+06
 0.40599998E+02  0.97083E+05
 0.40649998E+02  0.32636E+05
 0.40699997E+02  0.34820E+04
 0.40749996E+02  0.10473E+05
 0.40799999E+02  0.30084E+05
 0.40849998E+02 -0.29153E+04
 0.40899998E+02 -0.84729E+05
 0.40949997E+02 -0.12989E+06
 0.40999996E+02 -0.17219E+06
 0.41049999E+02 -0.19460E+06
 0.41099998E+02 -0.16860E+06
 0.41149998E+02 -0.15435E+06
 0.41199997E+02 -0.14850E+06
 0.41249996E+02 -0.13979E+06
 0.41299999E+02 -0.10462E+06
 0.41349998E+02 -0.24397E+05
 0.41399998E+02  0.25339E+05
 0.41449997E+02 -0.18091E+04
 0.41499996E+02 -0.32415E+05
 0.41549999E+02 -0.48988E+05
 0.41599998E+02 -0.32051E+05
 0.41649998E+02  0.42592E+05
 0.41699997E+02  0.90181E+05
 0.41749996E+02  0.68534E+05
 0.41799999E+02  0.31959E+05
 0.41849998E+02  0.24560E+05
 0.41899998E+02 -0.25423E+05
 0.41949997E+02 -0.96016E+05
 0.41999996E+02 -0.95574E+05
 0.42049999E+02 -0.50509E+05
 0.42099998E+02  0.57221E+04
 0.42149998E+02  0.32459E+05
 0.42199997E+02  0.18756E+05
 0.42249996E+02  0.18918E+05
 0.42299999E+02  0.35138E+05
 0.42349998E+02  0.71230E+05
 0.42399998E+02  0.73118E+05
 0.42449997E+02  0.16734E+05
 0.42499996E+02 -0.29619E+05
 0.42549999E+02 -0.97388E+05
 0.42599998E+02 -0.15018E+06
 0.42649998E+02 -0.15221E+06
 0.42699997E+02 -0.13894E+06
 0.42749996E+02 -0.12465E+06
 0.42799995E+02 -0.10733E+06
 0.42849998E+02 -0.13167E+06
 0.42899998E+02 -0.20692E+06
 0.42949997E+02 -0.25119E+06
 0.42999996E+02 -0.27982E+06
 0.43049995E+02 -0.28878E+06
 0.43099998E+02 -0.23745E+06
 0.43149998E+02 -0.15019E+06
 0.43199997E+02 -0.49368E+05
 0.43249996E+02  0.50934E+05
 0.43299995E+02  0.96120E+05
 0.43349998E+02  0.11432E+06
 0.43399998E+02  0.11615E+06
 0.43449997E+02  0.75778E+05
 0.43499996E+02  0.54287E+05
 0.43549995E+02  0.33831E+05
 0.43599998E+02  0.51707E+05
 0.43649998E+02  0.12521E+06
 0.43699997E+02  0.18258E+06
 0.43749996E+02  0.16676E+06
 0.43799995E+02  0.14636E+06
 0.43849998E+02  0.17980E+06
 0.43899998E+02  0.15818E+06
 0.43949997E+02  0.89423E+05
 0.43999996E+02  0.31084E+05
 0.44049995E+02 -0.20872E+05
 0.44099998E+02 -0.42744E+05
 0.44149998E+02 -0.14272E+05
 0.44199997E+02  0.17252E+05
 0.44249996E+02  0.31908E+05
 0.44299995E+02  0.32832E+05
 0.44349998E+02  0.38978E+05
 0.44399998E+02  0.63976E+05
 0.44449997E+02  0.10391E+06
 0.44499996E+02  0.14807E+06
 0.44549995E+02  0.13407E+06
 0.44599998E+02  0.12244E+06
 0.44649998E+02  0.10774E+06
 0.44699997E+02 -0.41924E+04
 0.44749996E+02 -0.96001E+05
 0.44799995E+02 -0.77158E+05
 0.44849998E+02 -0.46063E+05
 0.44899998E+02 -0.61785E+05
 0.44949997E+02 -0.91396E+05
 0.44999996E+02 -0.10188E+06
 0.45049995E+02 -0.74082E+05
 0.45099998E+02 -0.83418E+04
 0.45149998E+02  0.84179E+05
 0.45199997E+02  0.12642E+06
 0.45249996E+02  0.13660E+06
 0.45299995E+02  0.16379E+06
 0.45349998E+02  0.16530E+06
 0.45399998E+02  0.15323E+06
 0.45449997E+02  0.16441E+06
 0.45499996E+02  0.17908E+06
 0.45549995E+02  0.15240E+06
 0.45599998E+02  0.73922E+05
 0.45649998E+02  0.16395E+05
 0.45699997E+02  0.31642E+05
 0.45749996E+02  0.51525E+05
 0.45799995E+02  0.10360E+06
 0.45849998E+02  0.14247E+06
 0.45899998E+02  0.83788E+05
 0.45949997E+02  0.14576E+05
 0.45999996E+02 -0.31558E+05
 0.46049995E+02 -0.61866E+05
 0.46099998E+02 -0.44624E+05
 0.46149998E+02  0.40626E+04
 0.46199997E+02  0.20154E+05
 0.46249996E+02 -0.10491E+05
 0.46299995E+02 -0.38984E+05
 0.46349998E+02 -0.39259E+05
 0.46399998E+02 -0.43254E+05
 0.46449997E+02 -0.57541E+05
 0.46499996E+02 -0.61670E+05
 0.46549995E+02 -0.11530E+06
 0.46599998E+02 -0.16403E+06
 0.46649998E+02 -0.20643E+06
 0.46699997E+02 -0.28971E+06
 0.46749996E+02 -0.30077E+06
 0.46799995E+02 -0.25088E+06
 0.46849998E+02 -0.21339E+06
 0.46899998E+02 -0.19617E+06
 0.46949997E+02 -0.20494E+06
 0.46999996E+02 -0.24680E+06
 0.47049995E+02 -0.26616E+06
 0.47099998E+02 -0.21594E+06
 0.47149998E+02 -0.14312E+06
 0.47199997E+02 -0.11012E+06
 0.47249996E+02 -0.86970E+05
 0.47299995E+02 -0.32445E+05
 0.47349998E+02 -0.21888E+04
 0.47399998E+02 -0.20471E+05
 0.47449997E+02 -0.60051E+05
 0.47499996E+02 -0.96558E+05
 0.47549995E+02 -0.13033E+06
 0.47599998E+02 -0.16966E+06
 0.47649998E+02 -0.15457E+06
 0.47699997E+02 -0.12734E+06
 0.47749996E+02 -0.66216E+05
 0.47799995E+02 -0.21961E+05
 0.47849998E+02 -0.11457E+06
 0.47899998E+02 -0.20936E+06
 0.47949997E+02 -0.22675E+06
 0.47999996E+02 -0.26855E+06
 0.48049995E+02 -0.34679E+06
 0.48099998E+02 -0.36525E+06
 0.48149998E+02 -0.33329E+06
 0.48199997E+02 -0.30825E+06
 0.48249996E+02 -0.32974E+06
 0.48299995E+02 -0.34703E+06
 0.48349998E+02 -0.35954E+06
 0.48399998E+02 -0.38704E+06
 0.48449997E+02 -0.41513E+06
 0.48499996E+02 -0.34794E+06
 0.48549995E+02 -0.24628E+06
 0.48599998E+02 -0.24164E+06
 0.48649998E+02 -0.23753E+06
 0.48699997E+02 -0.26015E+06
 0.48749996E+02 -0.28384E+06
 0.48799995E+02 -0.22767E+06
 0.48849998E+02 -0.13906E+06
 0.48899998E+02 -0.29928E+05
 0.48949997E+02  0.16213E+06
 0.48999996E+02  0.27951E+06
 0.49049995E+02  0.29596E+06
 0.49099998E+02  0.31349E+06
 0.49149998E+02  0.27537E+06
 0.49199997E+02  0.29805E+06
 0.49249996E+02  0.40694E+06
 0.49299995E+02  0.45707E+06
 0.49349998E+02  0.40359E+06
 0.49399998E+02  0.30182E+06
 0.49449997E+02  0.13899E+06
 0.49499996E+02  0.46600E+05
 0.49549995E+02  0.76862E+05
 0.49599998E+02  0.21645E+06
 0.49649998E+02  0.28883E+06
 0.49699997E+02  0.18399E+06
 0.49749996E+02  0.15041E+06
 0.49799995E+02  0.10885E+06
 0.49849998E+02  0.59578E+04
 0.49899998E+02 -0.12115E+06
 0.49949997E+02 -0.11547E+06
 0.49999996E+02  0.18455E+05
 0.50049995E+02 -0.61319E+05
 0.50099998E+02 -0.19337E+06
 0.50149998E+02 -0.19140E+06
 0.50199997E+02 -0.23819E+06
 0.50249996E+02 -0.24178E+06
 0.50299995E+02 -0.24529E+05
 0.50349998E+02  0.13883E+06
 0.50399998E+02  0.67056E+05
 0.50449997E+02 -0.56460E+05
 0.50499996E+02 -0.21523E+06
 0.50549995E+02 -0.28512E+06
 0.50599998E+02 -0.57424E+05
 0.50649998E+02  0.38628E+06
 0.50699997E+02  0.55485E+06
 0.50749996E+02  0.49392E+06
 0.50799995E+02  0.35464E+06
 0.50849998E+02  0.33587E+05
 0.50899998E+02 -0.28732E+05
 0.50949997E+02  0.28051E+06
 0.50999996E+02  0.54767E+06
 0.51049995E+02  0.50298E+06
 0.51099998E+02  0.37873E+06
 0.51149998E+02  0.19303E+06
 0.51199997E+02  0.20638E+06
 0.51249996E+02  0.44250E+06
 0.51299995E+02  0.49705E+06
 0.51349998E+02  0.37779E+06
 0.51399998E+02  0.18779E+06
 0.51449997E+02  0.18189E+05
 0.51499996E+02 -0.42237E+05
 0.51549995E+02  0.12290E+05
 0.51599998E+02  0.13190E+06
 0.51649998E+02  0.21614E+06
 0.51699997E+02  0.14759E+06
 0.51749996E+02  0.11379E+06
 0.51799995E+02  0.56077E+05
 0.51849998E+02 -0.52082E+05
 0.51899998E+02 -0.41361E+05
 0.51949997E+02  0.87976E+05
 0.51999996E+02  0.87284E+05
 0.52049995E+02  0.75368E+05
 0.52099998E+02  0.12478E+06
 0.52149998E+02 -0.82311E+04
 0.52199997E+02 -0.30729E+06
 0.52249996E+02 -0.51969E+06
 0.52299995E+02 -0.55191E+06
 0.52349998E+02 -0.55025E+06
 0.52399998E+02 -0.52394E+06
 0.52449997E+02 -0.62639E+06
 0.52499996E+02 -0.63599E+06
 0.52549995E+02 -0.48483E+06
 0.52599998E+02 -0.24587E+06
 0.52649998E+02  0.16778E+06
 0.52699997E+02  0.42971E+06
 0.52749996E+02  0.33013E+06
 0.52799995E+02  0.62244E+05
 0.52849998E+02 -0.15832E+06
 0.52899998E+02 -0.27871E+06
 0.52949997E+02 -0.27947E+06
 0.52999996E+02 -0.21329E+06
 0.53049995E+02 -0.16812E+06
 0.53099998E+02 -0.22915E+06
 0.53149998E+02 -0.30528E+06
 0.53199997E+02 -0.16858E+06
 0.53249996E+02 -0.75295E+05
 0.53299995E+02 -0.25921E+06
 0.53349998E+02 -0.56274E+06
 0.53399998E+02 -0.81402E+06
 0.53449997E+02 -0.87232E+06
 0.53499996E+02 -0.66035E+06
 0.53549995E+02 -0.36548E+06
 0.53599998E+02 -0.18935E+06
 0.53649998E+02 -0.11468E+06
 0.53699997E+02  0.15954E+05
 0.53749996E+02  0.38100E+05
 0.53799995E+02 -0.14759E+06
 0.53849998E+02 -0.33623E+06
 0.53899998E+02 -0.40934E+06
 0.53949997E+02 -0.28431E+06
 0.53999996E+02 -0.15346E+06
 0.54049995E+02  0.96595E+05
 0.54099998E+02  0.38560E+06
 0.54149998E+02  0.37868E+06
 0.54199997E+02  0.12788E+06
 0.54249996E+02 -0.82404E+05
 0.54299995E+02 -0.30898E+06
 0.54349998E+02 -0.41282E+06
 0.54399998E+02 -0.19362E+06
 0.54449997E+02  0.31215E+05
 0.54499996E+02  0.15746E+06
 0.54549995E+02  0.23867E+06
 0.54599998E+02  0.47755E+06
 0.54649998E+02  0.78971E+06
 0.54699997E+02  0.10651E+07
 0.54749996E+02  0.12259E+07
 0.54799995E+02  0.11591E+07
 0.54849998E+02  0.10750E+07
 0.54899998E+02  0.92883E+06
 0.54949997E+02  0.74918E+06
 0.54999996E+02  0.67849E+06
 0.55049995E+02  0.65529E+06
 0.55099998E+02  0.62423E+06
 0.55149998E+02  0.70682E+06
 0.55199997E+02  0.77580E+06
 0.55249996E+02  0.54352E+06
 0.55299995E+02  0.17917E+06
 0.55349998E+02 -0.12427E+06
 0.55399998E+02 -0.24668E+06
 0.55449997E+02 -0.14223E+06
 0.55499996E+02  0.13896E+06
 0.55549995E+02  0.51165E+06
 0.55599998E+02  0.68891E+06
 0.55649998E+02  0.59181E+06
 0.55699997E+02  0.52198E+06
 0.55749996E+02  0.35757E+06
 0.55799995E+02  0.12522E+06
 0.55849995E+02 -0.35960E+05
 0.55899998E+02 -0.12356E+06
 0.55949997E+02 -0.93658E+05
 0.55999996E+02 -0.41912E+05
 0.56049995E+02  0.13327E+06
 0.56099995E+02  0.33795E+06
 0.56149998E+02  0.35284E+06
 0.56199997E+02  0.18388E+06
 0.56249996E+02 -0.27446E+05
 0.56299995E+02 -0.26669E+06
 0.56349995E+02 -0.45154E+06
 0.56399998E+02 -0.40502E+06
 0.56449997E+02 -0.21783E+06
 0.56499996E+02 -0.34324E+05
 0.56549995E+02  0.18505E+06
 0.56599995E+02  0.36754E+06
 0.56649998E+02  0.34695E+06
 0.56699997E+02  0.29225E+06
 0.56749996E+02  0.21985E+06
 0.56799995E+02  0.93894E+04
 0.56849995E+02 -0.80196E+05
 0.56899998E+02 -0.69305E+05
 0.56949997E+02 -0.64838E+04
 0.56999996E+02  0.53305E+05
 0.57049995E+02 -0.81668E+05
 0.57099995E+02 -0.25854E+06
 0.57149998E+02 -0.23746E+06
 0.57199997E+02 -0.10128E+06
 0.57249996E+02 -0.10269E+06
 0.57299995E+02 -0.21674E+06
 0.57349995E+02 -0.36044E+06
 0.57399998E+02 -0.49821E+06
 0.57449997E+02 -0.54067E+06
 0.57499996E+02 -0.35621E+06
 0.57549995E+02 -0.77050E+05
 0.57599995E+02  0.55095E+05
 0.57649998E+02  0.39803E+05
 0.57699997E+02 -0.44987E+04
 0.57749996E+02 -0.55921E+05
 0.57799995E+02 -0.10712E+06
 0.57849995E+02 -0.11008E+06
 0.57899998E+02 -0.94078E+05
 0.57949997E+02 -0.25943E+05
 0.57999996E+02 -0.41922E+05
 0.58049995E+02 -0.11042E+06
 0.58099995E+02 -0.14817E+06
 0.58149998E+02 -0.12565E+06
 0.58199997E+02 -0.82344E+05
 0.58249996E+02 -0.19234E+06
 0.58299995E+02 -0.36743E+06
 0.58349995E+02 -0.47440E+06
 0.58399998E+02 -0.33708E+06
 0.58449997E+02 -0.24040E+05
 0.58499996E+02  0.25779E+06
 0.58549995E+02  0.34861E+06
 0.58599995E+02  0.20707E+06
 0.58649998E+02  0.22720E+05
 0.58699997E+02 -0.12197E+06
 0.58749996E+02 -0.18989E+06
 0.58799995E+02 -0.71493E+05
 0.58849995E+02  0.11706E+06
 0.58899998E+02  0.17830E+06
 0.58949997E+02  0.20761E+06
 0.58999996E+02  0.25542E+06
 0.59049995E+02  0.23998E+06
 0.59099995E+02  0.21561E+06
 0.59149998E+02  0.27902E+06
 0.59199997E+02  0.42736E+06
 0.59249996E+02  0.55213E+06
 0.59299995E+02  0.61979E+06
 0.59349995E+02  0.63716E+06
 0.59399998E+02  0.54373E+06
 0.59449997E+02  0.43904E+06
 0.59499996E+02  0.41421E+06
 0.59549995E+02  0.44181E+06
 0.59599995E+02  0.51245E+06
 0.59649998E+02  0.55577E+06
 0.59699997E+02  0.54562E+06
 0.59749996E+02  0.51915E+06
 0.59799995E+02  0.52916E+06
 0.59849995E+02  0.55946E+06
 0.59899998E+02  0.63253E+06
 0.59949997E+02  0.84301E+06
 0.59999996E+02  0.96910E+06
 0.60049995E+02  0.93792E+06
 0.60099995E+02  0.86626E+06
 0.60149998E+02  0.85441E+06
 0.60199997E+02  0.84572E+06
 0.60249996E+02  0.67302E+06
 0.60299995E+02  0.37601E+06
 0.60349995E+02  0.20551E+06
 0.60399998E+02  0.28930E+06
 0.60449997E+02  0.36771E+06
 0.60499996E+02  0.27195E+06
 0.60549995E+02  0.12083E+05
 0.60599995E+02 -0.25109E+06
 0.60649998E+02 -0.44550E+06
 0.60699997E+02 -0.50340E+06
 0.60749996E+02 -0.37696E+06
 0.60799995E+02 -0.22780E+06
 0.60849995E+02 -0.17993E+06
 0.60899998E+02 -0.25902E+06
 0.60949997E+02 -0.41681E+06
 0.60999996E+02 -0.50023E+06
 0.61049995E+02 -0.47940E+06
 0.61099995E+02 -0.39501E+06
 0.61149998E+02 -0.32689E+06
 0.61199997E+02 -0.34602E+06
 0.61249996E+02 -0.34961E+06
 0.61299995E+02 -0.34882E+06
 0.61349995E+02 -0.43733E+06
 0.61399998E+02 -0.60368E+06
 0.61449997E+02 -0.71053E+06
 0.61499996E+02 -0.65236E+06
 0.61549995E+02 -0.48258E+06
 0.61599995E+02 -0.30736E+06
 0.61649998E+02 -0.16855E+06
 0.61699997E+02 -0.58900E+05
 0.61749996E+02  0.51723E+05
 0.61799995E+02  0.15448E+06
 0.61849995E+02  0.33629E+06
 0.61899998E+02  0.64290E+06
 0.61949997E+02  0.10108E+07
 0.61999996E+02  0.12423E+07
 0.62049995E+02  0.11851E+07
 0.62099998E+02  0.96751E+06
 0.62149994E+02  0.84211E+06
 0.62199997E+02  0.83263E+06
 0.62249992E+02  0.76312E+06
 0.62299995E+02  0.69286E+06
 0.62349998E+02  0.67621E+06
 0.62399994E+02  0.60202E+06
 0.62449997E+02  0.45999E+06
 0.62499992E+02  0.29327E+06
 0.62549995E+02  0.92583E+05
 0.62599998E+02 -0.77026E+05
 0.62649994E+02 -0.19336E+06
 0.62699997E+02 -0.22071E+06
 0.62749992E+02 -0.20485E+06
 0.62799995E+02 -0.32371E+06
 0.62849998E+02 -0.52438E+06
 0.62899994E+02 -0.60813E+06
 0.62949997E+02 -0.50956E+06
 0.62999992E+02 -0.29542E+06
 0.63049995E+02 -0.10028E+06
 0.63099998E+02  0.46149E+05
 0.63149994E+02  0.12948E+06
 0.63199997E+02  0.16688E+06
 0.63249992E+02  0.22500E+06
 0.63299995E+02  0.24005E+06
 0.63349998E+02  0.23390E+06
 0.63399994E+02  0.31157E+06
 0.63449997E+02  0.51668E+06
 0.63499992E+02  0.68761E+06
 0.63549995E+02  0.71306E+06
 0.63599998E+02  0.65096E+06
 0.63649994E+02  0.57177E+06
 0.63699997E+02  0.59468E+06
 0.63749992E+02  0.64463E+06
 0.63799995E+02  0.61672E+06
 0.63849998E+02  0.51785E+06
 0.63899994E+02  0.42785E+06
 0.63949997E+02  0.37291E+06
 0.63999992E+02  0.24629E+06
 0.64049995E+02  0.78793E+05
 0.64099998E+02 -0.53114E+05
 0.64149994E+02 -0.10707E+06
 0.64199997E+02 -0.76102E+05
 0.64249992E+02 -0.46754E+05
 0.64299995E+02 -0.50895E+05
 0.64349998E+02 -0.60430E+05
 0.64399994E+02 -0.66591E+05
 0.64449997E+02 -0.67955E+05
 0.64499992E+02 -0.15375E+06
 0.64549995E+02 -0.33000E+06
 0.64599998E+02 -0.50280E+06
 0.64649994E+02 -0.63143E+06
 0.64699997E+02 -0.72810E+06
 0.64749992E+02 -0.87666E+06
 0.64799995E+02 -0.10243E+07
 0.64849998E+02 -0.10058E+07
 0.64899994E+02 -0.79889E+06
 0.64949997E+02 -0.51909E+06
 0.64999992E+02 -0.28333E+06
 0.65049995E+02 -0.14107E+06
 0.65099998E+02 -0.91471E+05
 0.65149994E+02 -0.11159E+06
 0.65199997E+02 -0.17270E+06
 0.65249992E+02 -0.32460E+06
 0.65299995E+02 -0.56936E+06
 0.65349998E+02 -0.76828E+06
 0.65399994E+02 -0.84259E+06
 0.65449997E+02 -0.84707E+06
 0.65499992E+02 -0.92222E+06
 0.65549995E+02 -0.11243E+07
 0.65599998E+02 -0.13854E+07
 0.65649994E+02 -0.16120E+07
 0.65699997E+02 -0.17633E+07
 0.65749992E+02 -0.19086E+07
 0.65799995E+02 -0.20204E+07
 0.65849998E+02 -0.20317E+07
 0.65899994E+02 -0.19575E+07
 0.65949997E+02 -0.18991E+07
 0.65999992E+02 -0.19059E+07
 0.66049995E+02 -0.19235E+07
 0.66099998E+02 -0.18931E+07
 0.66149994E+02 -0.16931E+07
 0.66199997E+02 -0.13478E+07
 0.66249992E+02 -0.98492E+06
 0.66299995E+02 -0.69130E+06
 0.66349998E+02 -0.46953E+06
 0.66399994E+02 -0.27106E+06
 0.66449997E+02 -0.13880E+06
 0.66499992E+02 -0.81214E+05
 0.66549995E+02 -0.52398E+05
 0.66599998E+02 -0.42665E+05
 0.66649994E+02 -0.46867E+05
 0.66699997E+02 -0.47406E+05
 0.66749992E+02 -0.20641E+05
 0.66799995E+02  0.86302E+05
 0.66849998E+02  0.29652E+06
 0.66899994E+02  0.52891E+06
 0.66949997E+02  0.69560E+06
 0.66999992E+02  0.80479E+06
 0.67049995E+02  0.84769E+06
 0.67099998E+02  0.80158E+06
 0.67149994E+02  0.68426E+06
 0.67199997E+02  0.53863E+06
 0.67249992E+02  0.41016E+06
 0.67299995E+02  0.29375E+06
 0.67349998E+02  0.21197E+06
 0.67399994E+02  0.16997E+06
 0.67449997E+02  0.95259E+05
 0.67499992E+02 -0.95496E+05
 0.67549995E+02 -0.38354E+06
 0.67599998E+02 -0.65068E+06
 0.67649994E+02 -0.87196E+06
 0.67699997E+02 -0.10103E+07
 0.67749992E+02 -0.10614E+07
 0.67799995E+02 -0.10412E+07
 0.67849998E+02 -0.92372E+06
 0.67899994E+02 -0.77147E+06
 0.67949997E+02 -0.62977E+06
 0.67999992E+02 -0.52725E+06
 0.68049995E+02 -0.38579E+06
 0.68099998E+02 -0.11160E+06
 0.68149994E+02  0.25574E+06
 0.68199997E+02  0.57550E+06
 0.68249992E+02  0.77470E+06
 0.68299995E+02  0.85575E+06
 0.68349998E+02  0.84115E+06
 0.68399994E+02  0.74070E+06
 0.68449997E+02  0.55053E+06
 0.68499992E+02  0.34599E+06
 0.68549995E+02  0.20040E+06
 0.68599998E+02  0.11850E+06
 0.68649994E+02  0.16949E+05
 0.68699997E+02 -0.12680E+06
 0.68749992E+02 -0.24526E+06
 0.68799995E+02 -0.27977E+06
 0.68849998E+02 -0.28185E+06
 0.68899994E+02 -0.34398E+06
 0.68949997E+02 -0.44996E+06
 0.68999992E+02 -0.55137E+06
 0.69049995E+02 -0.62880E+06
 0.69099998E+02 -0.69285E+06
 0.69149994E+02 -0.71800E+06
 0.69199997E+02 -0.66155E+06
 0.69249992E+02 -0.55821E+06
 0.69299995E+02 -0.49944E+06
 0.69349998E+02 -0.51834E+06
 0.69399994E+02 -0.56318E+06
 0.69449997E+02 -0.58995E+06
 0.69499992E+02 -0.61105E+06
 0.69549995E+02 -0.62906E+06
 0.69599998E+02 -0.64373E+06
 0.69649994E+02 -0.64531E+06
 0.69699997E+02 -0.62544E+06
 0.69749992E+02 -0.66472E+06
 0.69799995E+02 -0.69819E+06
 0.69849998E+02 -0.60954E+06
 0.69899994E+02 -0.44740E+06
 0.69949997E+02 -0.32655E+06
 0.69999992E+02 -0.29234E+06
 0.70049995E+02 -0.24487E+06
 0.70099998E+02 -0.14911E+06
 0.70149994E+02 -0.95070E+05
 0.70199997E+02 -0.60330E+05
 0.70249992E+02 -0.96902E+04
 0.70299995E+02 -0.11230E+05
 0.70349998E+02 -0.33974E+05
 0.70399994E+02 -0.40327E+05
 0.70449997E+02 -0.23063E+05
 0.70499992E+02  0.73216E+05
 0.70549995E+02  0.23339E+06
 0.70599998E+02  0.36663E+06
 0.70649994E+02  0.38944E+06
 0.70699997E+02  0.32621E+06
 0.70749992E+02  0.28220E+06
 0.70799995E+02  0.31396E+06
 0.70849998E+02  0.37308E+06
 0.70899994E+02  0.40034E+06
 0.70949997E+02  0.35583E+06
 0.70999992E+02  0.24831E+06
 0.71049995E+02  0.16046E+06
 0.71099998E+02  0.13210E+06
 0.71149994E+02  0.19272E+06
 0.71199997E+02  0.28516E+06
 0.71249992E+02  0.36920E+06
 0.71299995E+02  0.49111E+06
 0.71349998E+02  0.66086E+06
 0.71399994E+02  0.89946E+06
 0.71449997E+02  0.11472E+07
 0.71499992E+02  0.13100E+07
 0.71549995E+02  0.13320E+07
 0.71599998E+02  0.12300E+07
 0.71649994E+02  0.10898E+07
 0.71699997E+02  0.92096E+06
 0.71749992E+02  0.74346E+06
 0.71799995E+02  0.62724E+06
 0.71849998E+02  0.61426E+06
 0.71899994E+02  0.69450E+06
 0.71949997E+02  0.76947E+06
 0.71999992E+02  0.80215E+06
 0.72049995E+02  0.86565E+06
 0.72099998E+02  0.96775E+06
 0.72149994E+02  0.11105E+07
 0.72199997E+02  0.12823E+07
 0.72249992E+02  0.14091E+07
 0.72299995E+02  0.14288E+07
 0.72349998E+02  0.13849E+07
 0.72399994E+02  0.13541E+07
 0.72449997E+02  0.13369E+07
 0.72499992E+02  0.13584E+07
 0.72549995E+02  0.13770E+07
 0.72599998E+02  0.13433E+07
 0.72649994E+02  0.12359E+07
 0.72699997E+02  0.10562E+07
 0.72749992E+02  0.88560E+06
 0.72799995E+02  0.77537E+06
 0.72849998E+02  0.72190E+06
 0.72899994E+02  0.71141E+06
 0.72949997E+02  0.72585E+06
 0.72999992E+02  0.73031E+06
 0.73049995E+02  0.74108E+06
 0.73099998E+02  0.77001E+06
 0.73149994E+02  0.79151E+06
 0.73199997E+02  0.73390E+06
 0.73249992E+02  0.60824E+06
 0.73299995E+02  0.52635E+06
 0.73349998E+02  0.46329E+06
 0.73399994E+02  0.38671E+06
 0.73449997E+02  0.31476E+06
 0.73499992E+02  0.22031E+06
 0.73549995E+02  0.12322E+06
 0.73599998E+02  0.81491E+05
 0.73649994E+02  0.83758E+05
 0.73699997E+02  0.92936E+05
 0.73749992E+02  0.11115E+06
 0.73799995E+02  0.15525E+06
 0.73849998E+02  0.22605E+06
 0.73899994E+02  0.29551E+06
 0.73949997E+02  0.30020E+06
 0.73999992E+02  0.26562E+06
 0.74049995E+02  0.29151E+06
 0.74099998E+02  0.40074E+06
 0.74149994E+02  0.53050E+06
 0.74199997E+02  0.61402E+06
 0.74249992E+02  0.63799E+06
 0.74299995E+02  0.60701E+06
 0.74349998E+02  0.56299E+06
 0.74399994E+02  0.55054E+06
 0.74449997E+02  0.58251E+06
 0.74499992E+02  0.63315E+06
 0.74549995E+02  0.63957E+06
 0.74599998E+02  0.56207E+06
 0.74649994E+02  0.39510E+06
 0.74699997E+02  0.15745E+06
 0.74749992E+02 -0.92298E+05
 0.74799995E+02 -0.24325E+06
 0.74849998E+02 -0.22017E+06
 0.74899994E+02 -0.63243E+05
 0.74949997E+02  0.13280E+06
 0.74999992E+02  0.26685E+06
 0.75049995E+02  0.28933E+06
 0.75099998E+02  0.19612E+06
 0.75149994E+02  0.38036E+05
 0.75199997E+02 -0.12553E+06
 0.75249992E+02 -0.30992E+06
 0.75299995E+02 -0.51773E+06
 0.75349998E+02 -0.71264E+06
 0.75399994E+02 -0.83033E+06
 0.75449997E+02 -0.84740E+06
 0.75499992E+02 -0.78209E+06
 0.75549995E+02 -0.66351E+06
 0.75599998E+02 -0.54035E+06
 0.75649994E+02 -0.46291E+06
 0.75699997E+02 -0.44199E+06
 0.75749992E+02 -0.43307E+06
 0.75799995E+02 -0.41841E+06
 0.75849998E+02 -0.38098E+06
 0.75899994E+02 -0.33790E+06
 0.75949997E+02 -0.28393E+06
 0.75999992E+02 -0.17946E+06
 0.76049995E+02 -0.61422E+05
 0.76099998E+02 -0.34788E+03
 0.76149994E+02 -0.31032E+05
 0.76199997E+02 -0.11318E+06
 0.76249992E+02 -0.23158E+06
 0.76299995E+02 -0.38925E+06
 0.76349998E+02 -0.55261E+06
 0.76399994E+02 -0.71273E+06
 0.76449997E+02 -0.83231E+06
 0.76499992E+02 -0.86403E+06
 0.76549995E+02 -0.83824E+06
 0.76599998E+02 -0.79125E+06
 0.76649994E+02 -0.76606E+06
 0.76699997E+02 -0.75777E+06
 0.76749992E+02 -0.69268E+06
 0.76799995E+02 -0.55195E+06
 0.76849998E+02 -0.36936E+06
 0.76899994E+02 -0.22439E+06
 0.76949997E+02 -0.20242E+06
 0.76999992E+02 -0.34964E+06
 0.77049995E+02 -0.61487E+06
 0.77099998E+02 -0.88372E+06
 0.77149994E+02 -0.10845E+07
 0.77199997E+02 -0.11798E+07
 0.77249992E+02 -0.11888E+07
 0.77299995E+02 -0.11464E+07
 0.77349998E+02 -0.10896E+07
 0.77399994E+02 -0.10251E+07
 0.77449997E+02 -0.92578E+06
 0.77499992E+02 -0.78945E+06
 0.77549995E+02 -0.64125E+06
 0.77599998E+02 -0.49641E+06
 0.77649994E+02 -0.34354E+06
 0.77699997E+02 -0.20411E+06
 0.77749992E+02 -0.89140E+05
 0.77799995E+02 -0.60410E+04
 0.77849998E+02  0.60607E+05
 0.77899994E+02  0.10731E+06
 0.77949997E+02  0.12064E+06
 0.77999992E+02  0.93492E+05
 0.78049995E+02  0.11652E+05
 0.78099998E+02 -0.11065E+06
 0.78149994E+02 -0.22670E+06
 0.78199997E+02 -0.28792E+06
 0.78249992E+02 -0.30506E+06
 0.78299995E+02 -0.29837E+06
 0.78349998E+02 -0.30186E+06
 0.78399994E+02 -0.30336E+06
 0.78449997E+02 -0.26163E+06
 0.78499992E+02 -0.19932E+06
 0.78549995E+02 -0.17502E+06
 0.78599998E+02 -0.17112E+06
 0.78649994E+02 -0.16428E+06
 0.78699997E+02 -0.16461E+06
 0.78749992E+02 -0.17803E+06
 0.78799995E+02 -0.22595E+06
 0.78849998E+02 -0.28046E+06
 0.78899994E+02 -0.32206E+06
 0.78949997E+02 -0.36794E+06
 0.78999992E+02 -0.39180E+06
 0.79049995E+02 -0.37530E+06
 0.79099998E+02 -0.33244E+06
 0.79149994E+02 -0.28346E+06
 0.79199997E+02 -0.25164E+06
 0.79249992E+02 -0.22755E+06
 0.79299995E+02 -0.18009E+06
 0.79349998E+02 -0.96812E+05
 0.79399994E+02  0.11702E+05
 0.79449997E+02  0.14838E+06
 0.79499992E+02  0.27804E+06
 0.79549995E+02  0.36828E+06
 0.79599998E+02  0.41133E+06
 0.79649994E+02  0.42181E+06
 0.79699997E+02  0.41032E+06
 0.79749992E+02  0.36746E+06
 0.79799995E+02  0.30451E+06
 0.79849998E+02  0.23925E+06
 0.79899994E+02  0.14555E+06
 0.79949997E+02  0.45947E+04
 0.79999992E+02 -0.14201E+06
 0.80049995E+02 -0.27583E+06
 0.80099998E+02 -0.34749E+06
 0.80149994E+02 -0.32829E+06
 0.80199997E+02 -0.25817E+06
 0.80249992E+02 -0.15191E+06
 0.80299995E+02 -0.17342E+05
 0.80349998E+02  0.11048E+06
 0.80399994E+02  0.20524E+06
 0.80449997E+02  0.27243E+06
 0.80499992E+02  0.32034E+06
 0.80549995E+02  0.35552E+06
 0.80599998E+02  0.37404E+06
 0.80649994E+02  0.34049E+06
 0.80699997E+02  0.26119E+06
 0.80749992E+02  0.19345E+06
 0.80799995E+02  0.17429E+06
 0.80849998E+02  0.18963E+06
 0.80899994E+02  0.18370E+06
 0.80949997E+02  0.14915E+06
 0.80999992E+02  0.12974E+06
 0.81049995E+02  0.16458E+06
 0.81099998E+02  0.25152E+06
 0.81149994E+02  0.34336E+06
 0.81199997E+02  0.40161E+06
 0.81249992E+02  0.41362E+06
 0.81299995E+02  0.41071E+06
 0.81349998E+02  0.42397E+06
 0.81399994E+02  0.45001E+06
 0.81449997E+02  0.47797E+06
 0.81499992E+02  0.46623E+06
 0.81549995E+02  0.38160E+06
 0.81599998E+02  0.26882E+06
 0.81649994E+02  0.20273E+06
 0.81699997E+02  0.22305E+06
 0.81749992E+02  0.30272E+06
 0.81799995E+02  0.37861E+06
 0.81849998E+02  0.40824E+06
 0.81899994E+02  0.38317E+06
 0.81949997E+02  0.32366E+06
 0.81999992E+02  0.25288E+06
 0.82049995E+02  0.19786E+06
 0.82099998E+02  0.20492E+06
 0.82149994E+02  0.26987E+06
 0.82199997E+02  0.35482E+06
 0.82249992E+02  0.43508E+06
 0.82299995E+02  0.50059E+06
 0.82349998E+02  0.54038E+06
 0.82399994E+02  0.54293E+06
 0.82449997E+02  0.54473E+06
 0.82499992E+02  0.54213E+06
 0.82549995E+02  0.52401E+06
 0.82599998E+02  0.47746E+06
 0.82649994E+02  0.36248E+06
 0.82699997E+02  0.20163E+06
 0.82749992E+02  0.69123E+05
 0.82799995E+02 -0.81737E+04
 0.82849998E+02 -0.73391E+05
 0.82899994E+02 -0.13032E+06
 0.82949997E+02 -0.17300E+06
 0.82999992E+02 -0.21672E+06
 0.83049995E+02 -0.28463E+06
 0.83099998E+02 -0.39884E+06
 0.83149994E+02 -0.54616E+06
 0.83199997E+02 -0.71041E+06
 0.83249992E+02 -0.85127E+06
 0.83299995E+02 -0.92046E+06
 0.83349998E+02 -0.92186E+06
 0.83399994E+02 -0.89633E+06
 0.83449997E+02 -0.88107E+06
 0.83499992E+02 -0.90335E+06
 0.83549995E+02 -0.96273E+06
 0.83599998E+02 -0.10110E+07
 0.83649994E+02 -0.10121E+07
 0.83699997E+02 -0.97936E+06
 0.83749992E+02 -0.95379E+06
 0.83799995E+02 -0.92969E+06
 0.83849998E+02 -0.87511E+06
 0.83899994E+02 -0.79353E+06
 0.83949997E+02 -0.69199E+06
 0.83999992E+02 -0.58947E+06
 0.84049995E+02 -0.48811E+06
 0.84099998E+02 -0.36525E+06
 0.84149994E+02 -0.20640E+06
 0.84199997E+02 -0.32994E+05
 0.84249992E+02  0.10343E+06
 0.84299995E+02  0.17169E+06
 0.84349998E+02  0.16645E+06
 0.84399994E+02  0.94215E+05
 0.84449997E+02 -0.22188E+05
 0.84499992E+02 -0.15376E+06
 0.84549995E+02 -0.24814E+06
 0.84599998E+02 -0.27568E+06
 0.84649994E+02 -0.25363E+06
 0.84699997E+02 -0.19137E+06
 0.84749992E+02 -0.10609E+06
 0.84799995E+02 -0.28483E+05
 0.84849998E+02  0.17408E+05
 0.84899994E+02  0.22883E+05
 0.84949997E+02 -0.30741E+05
 0.84999992E+02 -0.13135E+06
 0.85049995E+02 -0.24954E+06
 0.85099998E+02 -0.35493E+06
 0.85149994E+02 -0.42303E+06
 0.85199997E+02 -0.44690E+06
 0.85249992E+02 -0.42399E+06
 0.85299995E+02 -0.39703E+06
 0.85349998E+02 -0.38266E+06
 0.85399994E+02 -0.35066E+06
 0.85449997E+02 -0.27980E+06
 0.85499992E+02 -0.18875E+06
 0.85549995E+02 -0.11175E+06
 0.85599998E+02 -0.46391E+05
 0.85649994E+02  0.87683E+04
 0.85699997E+02  0.63886E+05
 0.85749992E+02  0.15266E+06
 0.85799995E+02  0.28713E+06
 0.85849998E+02  0.44603E+06
 0.85899994E+02  0.60779E+06
 0.85949997E+02  0.75637E+06
 0.85999992E+02  0.85724E+06
 0.86049995E+02  0.90219E+06
 0.86099998E+02  0.90841E+06
 0.86149994E+02  0.89202E+06
 0.86199997E+02  0.85521E+06
 0.86249992E+02  0.78345E+06
 0.86299995E+02  0.66886E+06
 0.86349998E+02  0.52833E+06
 0.86399994E+02  0.38983E+06
 0.86449997E+02  0.26962E+06
 0.86499992E+02  0.18510E+06
 0.86549995E+02  0.15775E+06
 0.86599998E+02  0.18898E+06
 0.86649994E+02  0.26248E+06
 0.86699997E+02  0.35738E+06
 0.86749992E+02  0.42454E+06
 0.86799995E+02  0.42174E+06
 0.86849998E+02  0.36067E+06
 0.86899994E+02  0.28202E+06
 0.86949997E+02  0.20850E+06
 0.86999992E+02  0.14446E+06
 0.87049995E+02  0.90924E+05
 0.87099998E+02  0.55721E+05
 0.87149994E+02  0.53241E+05
 0.87199997E+02  0.88075E+05
 0.87249992E+02  0.14831E+06
 0.87299995E+02  0.22110E+06
 0.87349998E+02  0.30005E+06
 0.87399994E+02  0.39708E+06
 0.87449997E+02  0.52158E+06
 0.87499992E+02  0.64915E+06
 0.87549995E+02  0.75000E+06
 0.87599991E+02  0.80583E+06
 0.87649994E+02  0.82090E+06
 0.87699997E+02  0.81061E+06
 0.87749992E+02  0.78513E+06
 0.87799995E+02  0.73893E+06
 0.87849991E+02  0.66977E+06
 0.87899994E+02  0.60192E+06
 0.87949997E+02  0.53605E+06
 0.87999992E+02  0.45507E+06
 0.88049995E+02  0.36651E+06
 0.88099991E+02  0.27317E+06
 0.88149994E+02  0.17254E+06
 0.88199997E+02  0.70094E+05
 0.88249992E+02 -0.27287E+05
 0.88299995E+02 -0.12336E+06
 0.88349991E+02 -0.22781E+06
 0.88399994E+02 -0.33665E+06
 0.88449997E+02 -0.43143E+06
 0.88499992E+02 -0.48822E+06
 0.88549995E+02 -0.50380E+06
 0.88599991E+02 -0.49684E+06
 0.88649994E+02 -0.48972E+06
 0.88699997E+02 -0.51048E+06
 0.88749992E+02 -0.57716E+06
 0.88799995E+02 -0.65352E+06
 0.88849991E+02 -0.69153E+06
 0.88899994E+02 -0.66800E+06
 0.88949997E+02 -0.57888E+06
 0.88999992E+02 -0.45030E+06
 0.89049995E+02 -0.29703E+06
 0.89099991E+02 -0.13793E+06
 0.89149994E+02 -0.49575E+04
 0.89199997E+02  0.95384E+05
 0.89249992E+02  0.17311E+06
 0.89299995E+02  0.23376E+06
 0.89349991E+02  0.27355E+06
 0.89399994E+02  0.29377E+06
 0.89449997E+02  0.28611E+06
 0.89499992E+02  0.23411E+06
 0.89549995E+02  0.12162E+06
 0.89599991E+02 -0.36404E+05
 0.89649994E+02 -0.19002E+06
 0.89699997E+02 -0.31363E+06
 0.89749992E+02 -0.41585E+06
 0.89799995E+02 -0.50802E+06
 0.89849991E+02 -0.58060E+06
 0.89899994E+02 -0.63685E+06
 0.89949997E+02 -0.70169E+06
 0.89999992E+02 -0.80718E+06
 0.90049995E+02 -0.95680E+06
 0.90099991E+02 -0.11171E+07
 0.90149994E+02 -0.12574E+07
 0.90199997E+02 -0.13549E+07
 0.90249992E+02 -0.13886E+07
 0.90299995E+02 -0.13406E+07
 0.90349991E+02 -0.12223E+07
 0.90399994E+02 -0.10758E+07
 0.90449997E+02 -0.93067E+06
 0.90499992E+02 -0.78066E+06
 0.90549995E+02 -0.63254E+06
 0.90599991E+02 -0.49964E+06
 0.90649994E+02 -0.38238E+06
 0.90699997E+02 -0.27918E+06
 0.90749992E+02 -0.18999E+06
 0.90799995E+02 -0.10994E+06
 0.90849991E+02 -0.34064E+05
 0.90899994E+02  0.19862E+05
 0.90949997E+02  0.53224E+05
 0.90999992E+02  0.71116E+05
 0.91049995E+02  0.78873E+05
 0.91099991E+02  0.63714E+05
 0.91149994E+02  0.33154E+04
 0.91199997E+02 -0.82766E+05
 0.91249992E+02 -0.16578E+06
 0.91299995E+02 -0.22274E+06
 0.91349991E+02 -0.24937E+06
 0.91399994E+02 -0.25602E+06
 0.91449997E+02 -0.24391E+06
 0.91499992E+02 -0.21924E+06
 0.91549995E+02 -0.20704E+06
 0.91599991E+02 -0.22303E+06
 0.91649994E+02 -0.26355E+06
 0.91699997E+02 -0.30762E+06
 0.91749992E+02 -0.33855E+06
 0.91799995E+02 -0.33553E+06
 0.91849991E+02 -0.29317E+06
 0.91899994E+02 -0.24481E+06
 0.91949997E+02 -0.21934E+06
 0.91999992E+02 -0.21876E+06
 0.92049995E+02 -0.21825E+06
 0.92099991E+02 -0.19077E+06
 0.92149994E+02 -0.14332E+06
 0.92199997E+02 -0.83863E+05
 0.92249992E+02  0.12204E+05
 0.92299995E+02  0.15559E+06
 0.92349991E+02  0.33408E+06
 0.92399994E+02  0.52897E+06
 0.92449997E+02  0.72179E+06
 0.92499992E+02  0.88929E+06
 0.92549995E+02  0.99855E+06
 0.92599991E+02  0.10371E+07
 0.92649994E+02  0.10199E+07
 0.92699997E+02  0.96041E+06
 0.92749992E+02  0.86374E+06
 0.92799995E+02  0.72565E+06
 0.92849991E+02  0.56842E+06
 0.92899994E+02  0.44307E+06
 0.92949997E+02  0.37666E+06
 0.92999992E+02  0.33910E+06
 0.93049995E+02  0.28488E+06
 0.93099991E+02  0.20202E+06
 0.93149994E+02  0.11479E+06
 0.93199997E+02  0.59412E+05
 0.93249992E+02  0.49475E+05
 0.93299995E+02  0.65631E+05
 0.93349991E+02  0.72058E+05
 0.93399994E+02  0.61202E+05
 0.93449997E+02  0.49063E+05
 0.93499992E+02  0.42666E+05
 0.93549995E+02  0.36675E+05
 0.93599991E+02  0.45683E+05
 0.93649994E+02  0.84021E+05
 0.93699997E+02  0.14285E+06
 0.93749992E+02  0.21131E+06
 0.93799995E+02  0.27905E+06
 0.93849991E+02  0.33631E+06
 0.93899994E+02  0.37412E+06
 0.93949997E+02  0.39222E+06
 0.93999992E+02  0.39052E+06
 0.94049995E+02  0.34951E+06
 0.94099991E+02  0.26859E+06
 0.94149994E+02  0.16462E+06
 0.94199997E+02  0.76149E+05
 0.94249992E+02  0.38559E+05
 0.94299995E+02  0.34325E+05
 0.94349991E+02  0.38202E+05
 0.94399994E+02  0.27830E+05
 0.94449997E+02  0.27988E+04
 0.94499992E+02 -0.22996E+05
 0.94549995E+02 -0.33908E+05
 0.94599991E+02 -0.17163E+05
 0.94649994E+02  0.21105E+05
 0.94699997E+02  0.65445E+05
 0.94749992E+02  0.10043E+06
 0.94799995E+02  0.12042E+06
 0.94849991E+02  0.13869E+06
 0.94899994E+02  0.16431E+06
 0.94949997E+02  0.17701E+06
 0.94999992E+02  0.15192E+06
 0.95049995E+02  0.83055E+05
 0.95099991E+02 -0.20729E+04
 0.95149994E+02 -0.73214E+05
 0.95199997E+02 -0.12236E+06
 0.95249992E+02 -0.15667E+06
 0.95299995E+02 -0.19730E+06
 0.95349991E+02 -0.25841E+06
 0.95399994E+02 -0.32552E+06
 0.95449997E+02 -0.37162E+06
 0.95499992E+02 -0.38300E+06
 0.95549995E+02 -0.35749E+06
 0.95599991E+02 -0.30300E+06
 0.95649994E+02 -0.22915E+06
 0.95699997E+02 -0.13276E+06
 0.95749992E+02 -0.13951E+05
 0.95799995E+02  0.96933E+05
 0.95849991E+02  0.16235E+06
 0.95899994E+02  0.16556E+06
 0.95949997E+02  0.12406E+06
 0.95999992E+02  0.71822E+05
 0.96049995E+02  0.42756E+05
 0.96099991E+02  0.67394E+05
 0.96149994E+02  0.14624E+06
 0.96199997E+02  0.26388E+06
 0.96249992E+02  0.39004E+06
 0.96299995E+02  0.51451E+06
 0.96349991E+02  0.63635E+06
 0.96399994E+02  0.73679E+06
 0.96449997E+02  0.81502E+06
 0.96499992E+02  0.86991E+06
 0.96549995E+02  0.89557E+06
 0.96599991E+02  0.88022E+06
 0.96649994E+02  0.81101E+06
 0.96699997E+02  0.68268E+06
 0.96749992E+02  0.50507E+06
 0.96799995E+02  0.31124E+06
 0.96849991E+02  0.13618E+06
 0.96899994E+02 -0.59189E+04
 0.96949997E+02 -0.11479E+06
 0.96999992E+02 -0.17939E+06
 0.97049995E+02 -0.19594E+06
 0.97099991E+02 -0.18860E+06
 0.97149994E+02 -0.17815E+06
 0.97199997E+02 -0.17194E+06
 0.97249992E+02 -0.16719E+06
 0.97299995E+02 -0.14774E+06
 0.97349991E+02 -0.10772E+06
 0.97399994E+02 -0.57337E+05
 0.97449997E+02 -0.11453E+05
 0.97499992E+02  0.16423E+05
 0.97549995E+02  0.18776E+05
 0.97599991E+02 -0.43636E+04
 0.97649994E+02 -0.37245E+05
 0.97699997E+02 -0.65874E+05
 0.97749992E+02 -0.93392E+05
 0.97799995E+02 -0.12893E+06
 0.97849991E+02 -0.18565E+06
 0.97899994E+02 -0.25492E+06
 0.97949997E+02 -0.30052E+06
 0.97999992E+02 -0.30046E+06
