-0.19969940E+01 -0.19318E+05
-0.19469941E+01 -0.19236E+05
-0.18969940E+01 -0.19301E+05
-0.18469940E+01 -0.19298E+05
-0.17969940E+01 -0.19291E+05
-0.17469940E+01 -0.19308E+05
-0.16969941E+01 -0.19282E+05
-0.16469941E+01 -0.19253E+05
-0.15969940E+01 -0.19262E+05
-0.15469940E+01 -0.19272E+05
-0.14969940E+01 -0.19288E+05
-0.14469941E+01 -0.19263E+05
-0.13969941E+01 -0.19249E+05
-0.13469940E+01 -0.19233E+05
-0.12969941E+01 -0.19210E+05
-0.12469940E+01 -0.19238E+05
-0.11969941E+01 -0.19238E+05
-0.11469941E+01 -0.19246E+05
-0.10969940E+01 -0.19229E+05
-0.10469941E+01 -0.19206E+05
-0.99699408E+00 -0.19220E+05
-0.94699407E+00 -0.19233E+05
-0.89699411E+00 -0.19243E+05
-0.84699404E+00 -0.19235E+05
-0.79699409E+00 -0.19222E+05
-0.74699414E+00 -0.19211E+05
-0.69699407E+00 -0.19225E+05
-0.64699411E+00 -0.19263E+05
-0.59699416E+00 -0.19263E+05
-0.54699409E+00 -0.19234E+05
-0.49699414E+00 -0.19240E+05
-0.44699407E+00 -0.19265E+05
-0.39699411E+00 -0.19290E+05
-0.34699416E+00 -0.19282E+05
-0.29699409E+00 -0.19262E+05
-0.24699414E+00 -0.19269E+05
-0.19699407E+00 -0.19267E+05
-0.14699411E+00 -0.19294E+05
-0.96994162E-01 -0.19330E+05
-0.46994090E-01 -0.19320E+05
 0.30058622E-02 -0.19316E+05
 0.53005934E-01 -0.19302E+05
 0.10300589E+00 -0.19306E+05
 0.15300584E+00 -0.19316E+05
 0.20300579E+00 -0.19306E+05
 0.25300574E+00 -0.19317E+05
 0.30300593E+00 -0.19296E+05
 0.35300589E+00 -0.19276E+05
 0.40300584E+00 -0.19270E+05
 0.45300579E+00 -0.19282E+05
 0.50300574E+00 -0.19298E+05
 0.55300593E+00 -0.19290E+05
 0.60300589E+00 -0.19281E+05
 0.65300584E+00 -0.19264E+05
 0.70300579E+00 -0.19264E+05
 0.75300574E+00 -0.19271E+05
 0.80300570E+00 -0.19266E+05
 0.85300589E+00 -0.19275E+05
 0.90300584E+00 -0.19274E+05
 0.95300579E+00 -0.19281E+05
 0.10030057E+01 -0.19286E+05
 0.10530057E+01 -0.19265E+05
 0.11030059E+01 -0.19266E+05
 0.11530058E+01 -0.19287E+05
 0.12030058E+01 -0.19279E+05
 0.12530057E+01 -0.19290E+05
 0.13030057E+01 -0.19303E+05
 0.13530059E+01 -0.19292E+05
 0.14030058E+01 -0.19285E+05
 0.14530058E+01 -0.19254E+05
 0.15030057E+01 -0.19243E+05
 0.15530057E+01 -0.19269E+05
 0.16030059E+01 -0.19276E+05
 0.16530058E+01 -0.19245E+05
 0.17030058E+01 -0.19257E+05
 0.17530057E+01 -0.19253E+05
 0.18030057E+01 -0.19239E+05
 0.18530056E+01 -0.19249E+05
 0.19030058E+01 -0.19266E+05
 0.19530058E+01 -0.19281E+05
 0.20030057E+01 -0.19250E+05
 0.20530057E+01 -0.19248E+05
 0.21030059E+01 -0.19265E+05
 0.21530056E+01 -0.19270E+05
 0.22030058E+01 -0.19269E+05
 0.22530055E+01 -0.19248E+05
 0.23030057E+01 -0.19220E+05
 0.23530059E+01 -0.19249E+05
 0.24030056E+01 -0.19269E+05
 0.24530058E+01 -0.19279E+05
 0.25030055E+01 -0.19271E+05
 0.25530057E+01 -0.19247E+05
 0.26030059E+01 -0.19245E+05
 0.26530056E+01 -0.19270E+05
 0.27030058E+01 -0.19300E+05
 0.27530055E+01 -0.19277E+05
 0.28030057E+01 -0.19248E+05
 0.28530059E+01 -0.19249E+05
 0.29030056E+01 -0.19273E+05
 0.29530058E+01 -0.19274E+05
 0.30030055E+01 -0.19279E+05
 0.30530057E+01 -0.19277E+05
 0.31030059E+01 -0.19259E+05
 0.31530056E+01 -0.19249E+05
 0.32030058E+01 -0.19264E+05
 0.32530055E+01 -0.19278E+05
 0.33030057E+01 -0.19281E+05
 0.33530059E+01 -0.19267E+05
 0.34030056E+01 -0.19273E+05
 0.34530058E+01 -0.19278E+05
 0.35030055E+01 -0.19277E+05
 0.35530057E+01 -0.19259E+05
 0.36030054E+01 -0.19257E+05
 0.36530056E+01 -0.19275E+05
 0.37030058E+01 -0.19292E+05
 0.37530055E+01 -0.19311E+05
 0.38030057E+01 -0.19278E+05
 0.38530054E+01 -0.19262E+05
 0.39030056E+01 -0.19267E+05
 0.39530058E+01 -0.19281E+05
 0.40030055E+01 -0.19297E+05
 0.40530057E+01 -0.19311E+05
 0.41030054E+01 -0.19302E+05
 0.41530056E+01 -0.19293E+05
 0.42030058E+01 -0.19297E+05
 0.42530055E+01 -0.19323E+05
 0.43030057E+01 -0.19315E+05
 0.43530054E+01 -0.19292E+05
 0.44030056E+01 -0.19273E+05
 0.44530058E+01 -0.19276E+05
 0.45030055E+01 -0.19272E+05
 0.45530057E+01 -0.19282E+05
 0.46030054E+01 -0.19307E+05
 0.46530056E+01 -0.19263E+05
 0.47030058E+01 -0.19289E+05
 0.47530055E+01 -0.19244E+05
 0.48030057E+01 -0.19253E+05
 0.48530054E+01 -0.19251E+05
 0.49030056E+01 -0.19235E+05
 0.49530058E+01 -0.19291E+05
 0.50030055E+01 -0.19251E+05
 0.50530057E+01 -0.19266E+05
 0.51030054E+01 -0.19266E+05
 0.51530056E+01 -0.19275E+05
 0.52030058E+01 -0.19268E+05
 0.52530055E+01 -0.19246E+05
 0.53030057E+01 -0.19253E+05
 0.53530054E+01 -0.19259E+05
 0.54030056E+01 -0.19267E+05
 0.54530053E+01 -0.19275E+05
 0.55030055E+01 -0.19285E+05
 0.55530057E+01 -0.19267E+05
 0.56030054E+01 -0.19248E+05
 0.56530056E+01 -0.19285E+05
 0.57030053E+01 -0.19286E+05
 0.57530055E+01 -0.19264E+05
 0.58030057E+01 -0.19238E+05
 0.58530054E+01 -0.19237E+05
 0.59030056E+01 -0.19273E+05
 0.59530053E+01 -0.19262E+05
 0.60030055E+01 -0.19242E+05
 0.60530052E+01 -0.19255E+05
 0.61030054E+01 -0.19280E+05
 0.61530056E+01 -0.19262E+05
 0.62030058E+01 -0.19263E+05
 0.62530050E+01 -0.19260E+05
 0.63030052E+01 -0.19263E+05
 0.63530054E+01 -0.19255E+05
 0.64030056E+01 -0.19287E+05
 0.64530058E+01 -0.19233E+05
 0.65030050E+01 -0.19260E+05
 0.65530052E+01 -0.19317E+05
 0.66030054E+01 -0.19259E+05
 0.66530056E+01 -0.19289E+05
 0.67030058E+01 -0.19282E+05
 0.67530050E+01 -0.19298E+05
 0.68030052E+01 -0.19299E+05
 0.68530054E+01 -0.19271E+05
 0.69030056E+01 -0.19266E+05
 0.69530058E+01 -0.19278E+05
 0.70030050E+01 -0.19315E+05
 0.70530052E+01 -0.19294E+05
 0.71030054E+01 -0.19324E+05
 0.71530056E+01 -0.19320E+05
 0.72030058E+01 -0.19226E+05
 0.72530050E+01 -0.19285E+05
 0.73030052E+01 -0.19256E+05
 0.73530054E+01 -0.19325E+05
 0.74030056E+01 -0.19185E+05
 0.74530058E+01 -0.19368E+05
 0.75030050E+01 -0.19244E+05
 0.75530052E+01 -0.19311E+05
 0.76030054E+01 -0.19222E+05
 0.76530056E+01 -0.19284E+05
 0.77030058E+01 -0.19360E+05
 0.77530050E+01 -0.19116E+05
 0.78030052E+01 -0.19275E+05
 0.78530054E+01 -0.19286E+05
 0.79030056E+01 -0.19417E+05
 0.79530058E+01 -0.19035E+05
 0.80030050E+01 -0.19485E+05
 0.80530052E+01 -0.18957E+05
 0.81030054E+01 -0.19945E+05
 0.81530056E+01 -0.18725E+05
 0.82030058E+01 -0.22865E+05
 0.82530050E+01 -0.19364E+05
 0.83030052E+01 -0.17009E+05
 0.83530054E+01 -0.17980E+05
 0.84030056E+01 -0.22565E+05
 0.84530058E+01 -0.23582E+05
 0.85030050E+01 -0.10211E+05
 0.85530052E+01 -0.21697E+05
 0.86030054E+01 -0.22794E+05
 0.86530056E+01 -0.13012E+05
 0.87030058E+01 -0.19137E+05
 0.87530050E+01 -0.21050E+05
 0.88030052E+01 -0.36483E+05
 0.88530054E+01 -0.21455E+04
 0.89030056E+01 -0.28641E+04
 0.89530058E+01 -0.43626E+05
 0.90030050E+01 -0.23038E+05
 0.90530052E+01 -0.22507E+05
 0.91030054E+01 -0.12213E+05
 0.91530056E+01 -0.26479E+05
 0.92030048E+01 -0.14614E+05
 0.92530050E+01 -0.46758E+04
 0.93030052E+01 -0.50506E+05
 0.93530054E+01 -0.16572E+05
 0.94030056E+01  0.16640E+05
 0.94530048E+01 -0.16933E+05
 0.95030050E+01 -0.42143E+05
 0.95530052E+01 -0.45480E+05
 0.96030054E+01  0.21454E+05
 0.96530056E+01 -0.10180E+05
 0.97030048E+01 -0.37065E+05
 0.97530050E+01  0.89025E+04
 0.98030052E+01 -0.30573E+05
 0.98530054E+01 -0.30948E+05
 0.99030056E+01 -0.12998E+05
 0.99530048E+01 -0.24300E+05
 0.10003005E+02 -0.31703E+05
 0.10053005E+02 -0.22123E+05
 0.10103005E+02 -0.85015E+04
 0.10153006E+02 -0.13544E+05
 0.10203005E+02 -0.16944E+05
 0.10253005E+02 -0.10045E+05
 0.10303005E+02 -0.43680E+05
 0.10353005E+02 -0.32487E+05
 0.10403006E+02 -0.80270E+04
 0.10453005E+02  0.15507E+04
 0.10503005E+02 -0.41027E+05
 0.10553005E+02 -0.29725E+05
 0.10603005E+02 -0.10324E+05
 0.10653006E+02 -0.66332E+04
 0.10703005E+02 -0.52497E+03
 0.10753005E+02 -0.48589E+05
 0.10803005E+02 -0.23147E+05
 0.10853005E+02 -0.20509E+05
 0.10903006E+02 -0.16439E+05
 0.10953005E+02 -0.21142E+05
 0.11003005E+02 -0.21872E+05
 0.11053005E+02  0.14437E+05
 0.11103005E+02 -0.49606E+05
 0.11153006E+02 -0.43243E+05
 0.11203005E+02  0.27718E+05
 0.11253005E+02 -0.61953E+04
 0.11303005E+02 -0.35710E+05
 0.11353005E+02 -0.46288E+05
 0.11403006E+02  0.12119E+05
 0.11453005E+02 -0.42851E+05
 0.11503005E+02 -0.27251E+05
 0.11553005E+02  0.28550E+05
 0.11603005E+02 -0.30562E+05
 0.11653006E+02 -0.40043E+05
 0.11703005E+02 -0.40450E+05
 0.11753005E+02  0.15424E+05
 0.11803005E+02 -0.51581E+04
 0.11853005E+02 -0.36594E+05
 0.11903006E+02 -0.26076E+05
 0.11953005E+02 -0.22470E+05
 0.12003005E+02 -0.13084E+05
 0.12053005E+02 -0.14630E+05
 0.12103005E+02 -0.19892E+05
 0.12153006E+02 -0.48557E+04
 0.12203005E+02 -0.40592E+05
 0.12253005E+02 -0.37621E+05
 0.12303005E+02 -0.28065E+05
 0.12353005E+02 -0.51455E+04
 0.12403006E+02 -0.68292E+04
 0.12453005E+02 -0.45819E+05
 0.12503005E+02 -0.88450E+04
 0.12553005E+02  0.17852E+05
 0.12603005E+02 -0.98402E+04
 0.12653005E+02 -0.66834E+05
 0.12703005E+02 -0.54001E+05
 0.12753005E+02 -0.13166E+05
 0.12803005E+02  0.20500E+05
 0.12853005E+02  0.98082E+03
 0.12903005E+02  0.16021E+05
 0.12953005E+02 -0.50755E+05
 0.13003005E+02 -0.56148E+05
 0.13053005E+02  0.71368E+04
 0.13103005E+02 -0.42936E+05
 0.13153005E+02 -0.96394E+04
 0.13203005E+02 -0.46577E+05
 0.13253005E+02  0.10017E+05
 0.13303005E+02  0.38152E+04
 0.13353005E+02 -0.17285E+05
 0.13403005E+02 -0.16738E+05
 0.13453005E+02 -0.58479E+05
 0.13503005E+02 -0.38152E+04
 0.13553005E+02 -0.51501E+05
 0.13603005E+02 -0.23643E+05
 0.13653005E+02 -0.72319E+04
 0.13703005E+02  0.10342E+06
 0.13753005E+02  0.39684E+05
 0.13803005E+02 -0.14538E+06
 0.13853005E+02 -0.83018E+05
 0.13903005E+02 -0.49014E+05
 0.13953005E+02 -0.87097E+04
 0.14003005E+02  0.52023E+05
 0.14053005E+02 -0.60085E+05
 0.14103004E+02 -0.27374E+05
 0.14153006E+02  0.81907E+05
 0.14203005E+02 -0.34097E+05
 0.14253004E+02 -0.10402E+06
 0.14303005E+02 -0.71034E+04
 0.14353004E+02  0.20914E+05
 0.14403006E+02 -0.14016E+06
 0.14453005E+02 -0.75005E+05
 0.14503004E+02  0.38935E+05
 0.14553005E+02  0.15002E+06
 0.14603004E+02  0.66572E+05
 0.14653006E+02 -0.16878E+06
 0.14703005E+02  0.81960E+04
 0.14753004E+02  0.33071E+05
 0.14803005E+02 -0.16963E+06
 0.14853004E+02 -0.35865E+05
 0.14903006E+02  0.26164E+05
 0.14953005E+02 -0.30239E+03
 0.15003004E+02  0.97886E+05
 0.15053005E+02 -0.29544E+05
 0.15103004E+02 -0.68053E+05
 0.15153006E+02  0.42166E+04
 0.15203005E+02 -0.44182E+05
 0.15253004E+02 -0.98220E+05
 0.15303005E+02  0.58141E+04
 0.15353004E+02  0.11705E+06
 0.15403006E+02 -0.81311E+05
 0.15453005E+02 -0.13827E+06
 0.15503004E+02 -0.20202E+05
 0.15553005E+02  0.58288E+04
 0.15603004E+02 -0.18885E+05
 0.15653006E+02 -0.24162E+05
 0.15703005E+02  0.74697E+05
 0.15753004E+02  0.22580E+04
 0.15803005E+02 -0.72250E+05
 0.15853004E+02 -0.87776E+05
 0.15903006E+02 -0.87115E+05
 0.15953005E+02  0.21921E+05
 0.16003004E+02  0.10471E+06
 0.16053005E+02  0.34947E+05
 0.16103004E+02 -0.13668E+06
 0.16153006E+02 -0.84955E+05
 0.16203005E+02 -0.53917E+05
 0.16253004E+02  0.14814E+06
 0.16303005E+02  0.92762E+05
 0.16353004E+02 -0.15245E+06
 0.16403006E+02 -0.62312E+05
 0.16453005E+02 -0.82704E+05
 0.16503004E+02  0.36816E+05
 0.16553005E+02 -0.46035E+05
 0.16603004E+02  0.58212E+04
 0.16653006E+02  0.15928E+06
 0.16703005E+02 -0.53459E+05
 0.16753004E+02 -0.91998E+05
 0.16803005E+02 -0.96220E+05
 0.16853004E+02 -0.16893E+06
 0.16903006E+02 -0.10214E+05
 0.16953005E+02  0.11766E+06
 0.17003004E+02  0.74228E+05
 0.17053005E+02  0.42400E+04
 0.17103004E+02 -0.75553E+05
 0.17153006E+02 -0.67467E+05
 0.17203005E+02 -0.31186E+05
 0.17253004E+02 -0.16655E+05
 0.17303005E+02  0.88379E+04
 0.17353004E+02  0.19678E+05
 0.17403006E+02 -0.90168E+03
 0.17453005E+02 -0.98294E+05
 0.17503004E+02 -0.11041E+06
 0.17553005E+02 -0.22511E+04
 0.17603004E+02  0.55555E+05
 0.17653006E+02  0.76753E+05
 0.17703005E+02  0.25476E+05
 0.17753004E+02 -0.83823E+05
 0.17803005E+02 -0.14619E+06
 0.17853004E+02 -0.57866E+05
 0.17903006E+02  0.41195E+05
 0.17953005E+02  0.71066E+05
 0.18003004E+02 -0.30565E+04
 0.18053005E+02 -0.42445E+05
 0.18103004E+02 -0.91524E+05
 0.18153006E+02 -0.50429E+05
 0.18203005E+02  0.31424E+05
 0.18253004E+02  0.32634E+05
 0.18303005E+02  0.47050E+05
 0.18353004E+02 -0.89793E+05
 0.18403006E+02 -0.12109E+06
 0.18453005E+02 -0.34093E+05
 0.18503004E+02  0.33036E+04
 0.18553005E+02  0.10524E+05
 0.18603004E+02  0.32640E+05
 0.18653006E+02  0.16796E+05
 0.18703005E+02 -0.42218E+05
 0.18753004E+02 -0.43080E+05
 0.18803005E+02 -0.36017E+05
 0.18853004E+02 -0.41309E+05
 0.18903006E+02  0.32165E+04
 0.18953005E+02  0.49919E+05
 0.19003004E+02 -0.26384E+05
 0.19053005E+02 -0.86532E+05
 0.19103004E+02 -0.43994E+05
 0.19153006E+02 -0.25693E+05
 0.19203005E+02  0.43854E+05
 0.19253004E+02  0.28993E+05
 0.19303005E+02 -0.35697E+05
 0.19353004E+02 -0.49946E+05
 0.19403006E+02 -0.60243E+05
 0.19453005E+02 -0.20804E+05
 0.19503004E+02 -0.43189E+05
 0.19553005E+02 -0.33651E+05
 0.19603004E+02 -0.96063E+04
 0.19653006E+02 -0.67343E+04
 0.19703005E+02  0.31182E+05
 0.19753004E+02 -0.13148E+05
 0.19803005E+02 -0.61037E+05
 0.19853004E+02 -0.38017E+05
 0.19903006E+02 -0.40655E+05
 0.19953005E+02  0.72068E+04
 0.20003004E+02  0.15067E+04
 0.20053005E+02 -0.36090E+05
 0.20103004E+02 -0.38784E+04
 0.20153006E+02 -0.11196E+05
 0.20203005E+02 -0.25011E+05
 0.20253004E+02 -0.38758E+04
 0.20303005E+02 -0.36844E+05
 0.20353004E+02 -0.67070E+05
 0.20403004E+02  0.20723E+05
 0.20453005E+02  0.12010E+05
 0.20503004E+02 -0.33938E+05
 0.20553005E+02 -0.75577E+04
 0.20603004E+02 -0.24094E+05
 0.20653004E+02 -0.29323E+05
 0.20703005E+02 -0.74117E+04
 0.20753004E+02  0.20992E+05
 0.20803005E+02  0.63628E+04
 0.20853004E+02 -0.63654E+05
 0.20903004E+02 -0.81654E+05
 0.20953005E+02 -0.14565E+05
 0.21003004E+02  0.39216E+05
 0.21053005E+02  0.86391E+03
 0.21103004E+02 -0.31488E+05
 0.21153004E+02 -0.45476E+05
 0.21203005E+02 -0.47023E+05
 0.21253004E+02  0.58976E+04
 0.21303005E+02  0.13999E+05
 0.21353004E+02 -0.11784E+05
 0.21403004E+02 -0.58853E+05
 0.21453005E+02 -0.54055E+05
 0.21503004E+02 -0.33938E+05
 0.21553005E+02 -0.20134E+05
 0.21603004E+02  0.23866E+05
 0.21653004E+02 -0.28215E+04
 0.21703005E+02 -0.25402E+05
 0.21753004E+02 -0.45825E+05
 0.21803005E+02 -0.54299E+05
 0.21853004E+02 -0.10165E+05
 0.21903004E+02 -0.84748E+03
 0.21953005E+02 -0.69870E+04
 0.22003004E+02 -0.60318E+04
 0.22053005E+02 -0.20981E+05
 0.22103004E+02 -0.58732E+05
 0.22153004E+02 -0.56615E+05
 0.22203005E+02  0.61527E+04
 0.22253004E+02  0.14212E+05
 0.22303005E+02  0.12881E+04
 0.22353004E+02 -0.35804E+05
 0.22403004E+02 -0.11527E+05
 0.22453005E+02 -0.88511E+04
 0.22503004E+02 -0.12224E+05
 0.22553005E+02 -0.13616E+04
 0.22603004E+02 -0.51191E+05
 0.22653004E+02 -0.80655E+04
 0.22703005E+02  0.15635E+05
 0.22753004E+02 -0.11579E+05
 0.22803005E+02 -0.48408E+05
 0.22853004E+02 -0.43391E+05
 0.22903004E+02 -0.83794E+04
 0.22953005E+02 -0.34213E+03
 0.23003004E+02 -0.25855E+05
 0.23053005E+02 -0.31839E+03
 0.23103004E+02 -0.34056E+05
 0.23153004E+02 -0.56037E+05
 0.23203005E+02 -0.30222E+05
 0.23253004E+02 -0.23956E+05
 0.23303005E+02  0.29775E+04
 0.23353004E+02 -0.12391E+05
 0.23403004E+02  0.81035E+04
 0.23453005E+02 -0.11591E+05
 0.23503004E+02 -0.44977E+05
 0.23553005E+02 -0.63450E+05
 0.23603004E+02 -0.26345E+05
 0.23653004E+02  0.13653E+05
 0.23703005E+02  0.19214E+05
 0.23753004E+02 -0.15925E+05
 0.23803005E+02 -0.48321E+05
 0.23853004E+02 -0.34724E+05
 0.23903004E+02 -0.16871E+05
 0.23953005E+02  0.13316E+05
 0.24003004E+02 -0.79799E+04
 0.24053005E+02 -0.34441E+05
 0.24103004E+02 -0.54748E+05
 0.24153004E+02 -0.19477E+05
 0.24203005E+02 -0.40212E+04
 0.24253004E+02 -0.13561E+05
 0.24303005E+02  0.21840E+05
 0.24353004E+02 -0.25264E+05
 0.24403004E+02 -0.52446E+05
 0.24453005E+02 -0.34858E+05
 0.24503004E+02 -0.19614E+05
 0.24553005E+02 -0.75883E+04
 0.24603004E+02 -0.32768E+05
 0.24653004E+02 -0.19731E+05
 0.24703005E+02 -0.26108E+05
 0.24753004E+02 -0.25256E+05
 0.24803005E+02 -0.97890E+04
 0.24853004E+02 -0.25453E+04
 0.24903004E+02 -0.97297E+04
 0.24953005E+02 -0.32015E+05
 0.25003004E+02 -0.33966E+05
 0.25053005E+02 -0.39782E+05
 0.25103004E+02 -0.38677E+05
 0.25153004E+02 -0.11892E+05
 0.25203005E+02  0.26649E+05
 0.25253004E+02  0.91935E+04
 0.25303005E+02 -0.39710E+05
 0.25353004E+02 -0.41638E+05
 0.25403004E+02 -0.20101E+05
 0.25453005E+02  0.70751E+04
 0.25503004E+02 -0.25134E+05
 0.25553005E+02 -0.48375E+05
 0.25603004E+02  0.20845E+04
 0.25653004E+02 -0.17921E+05
 0.25703005E+02 -0.72762E+04
 0.25753004E+02 -0.98160E+03
 0.25803005E+02 -0.28453E+05
 0.25853004E+02 -0.16355E+05
 0.25903004E+02 -0.16200E+05
 0.25953005E+02 -0.16982E+05
 0.26003004E+02 -0.27693E+05
 0.26053005E+02 -0.32419E+05
 0.26103004E+02 -0.10653E+05
 0.26153004E+02 -0.14807E+05
 0.26203005E+02 -0.27741E+05
 0.26253004E+02 -0.23539E+05
 0.26303005E+02 -0.67725E+04
 0.26353004E+02 -0.93723E+04
 0.26403004E+02 -0.29229E+05
 0.26453005E+02 -0.40513E+05
 0.26503004E+02 -0.47475E+05
 0.26553005E+02 -0.13118E+05
 0.26603004E+02  0.61583E+04
 0.26653004E+02 -0.17208E+05
 0.26703005E+02 -0.35101E+05
 0.26753004E+02 -0.27513E+05
 0.26803005E+02 -0.13615E+05
 0.26853004E+02  0.74011E+04
 0.26903004E+02 -0.16976E+05
 0.26953005E+02 -0.33955E+05
 0.27003004E+02 -0.17279E+05
 0.27053003E+02 -0.16426E+05
 0.27103004E+02 -0.18897E+05
 0.27153004E+02 -0.19795E+05
 0.27203005E+02 -0.91678E+04
 0.27253004E+02 -0.32016E+05
 0.27303003E+02 -0.24290E+05
 0.27353004E+02 -0.83308E+04
 0.27403004E+02 -0.24662E+05
 0.27453005E+02 -0.32207E+05
 0.27503004E+02 -0.17809E+05
 0.27553003E+02  0.17495E+04
 0.27603004E+02 -0.59472E+04
 0.27653004E+02 -0.30838E+05
 0.27703005E+02 -0.39999E+05
 0.27753004E+02 -0.13751E+05
 0.27803003E+02 -0.21933E+05
 0.27853004E+02 -0.18301E+05
 0.27903004E+02 -0.12976E+05
 0.27953005E+02 -0.31656E+05
 0.28003004E+02 -0.25754E+05
 0.28053003E+02 -0.36864E+05
 0.28103004E+02 -0.10449E+05
 0.28153004E+02  0.38563E+04
 0.28203005E+02 -0.18141E+05
 0.28253004E+02 -0.24062E+05
 0.28303003E+02 -0.22103E+05
 0.28353004E+02 -0.20462E+05
 0.28403004E+02 -0.69385E+04
 0.28453005E+02 -0.22274E+05
 0.28503004E+02 -0.38448E+05
 0.28553003E+02 -0.14300E+05
 0.28603004E+02 -0.77972E+04
 0.28653004E+02 -0.97422E+04
 0.28703005E+02 -0.18907E+05
 0.28753004E+02 -0.10751E+05
 0.28803003E+02 -0.74052E+04
 0.28853004E+02 -0.31214E+05
 0.28903004E+02 -0.24812E+05
 0.28953005E+02 -0.17681E+05
 0.29003004E+02 -0.17248E+05
 0.29053003E+02 -0.13964E+05
 0.29103004E+02 -0.32110E+05
 0.29153004E+02 -0.35303E+05
 0.29203005E+02 -0.15591E+05
 0.29253004E+02 -0.89623E+03
 0.29303003E+02 -0.22090E+05
 0.29353004E+02 -0.23696E+05
 0.29403004E+02 -0.28494E+05
 0.29453005E+02 -0.28082E+05
 0.29503004E+02 -0.50791E+04
 0.29553003E+02 -0.11382E+05
 0.29603004E+02 -0.23886E+05
 0.29653004E+02 -0.24663E+05
 0.29703005E+02 -0.31214E+05
 0.29753004E+02 -0.24021E+05
 0.29803003E+02 -0.12075E+05
 0.29853004E+02 -0.13700E+05
 0.29903004E+02 -0.21512E+05
 0.29953005E+02 -0.22231E+05
 0.30003004E+02 -0.77396E+04
 0.30053005E+02 -0.16785E+05
 0.30103004E+02 -0.26302E+05
 0.30153004E+02 -0.32982E+05
 0.30203003E+02 -0.15172E+05
 0.30253002E+02  0.21188E+04
 0.30303005E+02 -0.18518E+05
 0.30353004E+02 -0.29205E+05
 0.30403004E+02 -0.31479E+05
 0.30453003E+02 -0.12228E+05
 0.30503002E+02 -0.56781E+04
 0.30553005E+02 -0.16027E+05
 0.30603004E+02 -0.20918E+05
 0.30653004E+02 -0.28018E+05
 0.30703003E+02 -0.27817E+05
 0.30753002E+02 -0.20892E+05
 0.30803005E+02 -0.46280E+04
 0.30853004E+02 -0.10158E+05
 0.30903004E+02 -0.24239E+05
 0.30953003E+02 -0.21460E+05
 0.31003002E+02 -0.72575E+04
 0.31053005E+02 -0.80605E+04
 0.31103004E+02 -0.21764E+05
 0.31153004E+02 -0.25792E+05
 0.31203003E+02 -0.30028E+05
 0.31253002E+02 -0.29718E+05
 0.31303005E+02 -0.18962E+05
 0.31353004E+02 -0.13964E+05
 0.31403004E+02 -0.10546E+05
 0.31453003E+02 -0.16678E+05
 0.31503002E+02 -0.20330E+05
 0.31553005E+02 -0.21600E+05
 0.31603004E+02 -0.27435E+05
 0.31653004E+02 -0.26097E+05
 0.31703003E+02 -0.19980E+05
 0.31753002E+02 -0.28758E+05
 0.31803005E+02 -0.20218E+05
 0.31853004E+02 -0.30402E+04
 0.31903004E+02 -0.14371E+05
 0.31953003E+02 -0.18174E+05
 0.32003002E+02 -0.33026E+05
 0.32053005E+02 -0.26448E+05
 0.32103004E+02 -0.10853E+05
 0.32153004E+02 -0.12176E+05
 0.32203003E+02 -0.13802E+05
 0.32253002E+02 -0.31724E+05
 0.32303005E+02 -0.20526E+05
 0.32353004E+02 -0.19477E+05
 0.32403004E+02 -0.18591E+05
 0.32453003E+02 -0.83130E+04
 0.32503002E+02 -0.16575E+05
 0.32553005E+02 -0.25798E+05
 0.32603004E+02 -0.38858E+05
 0.32653004E+02 -0.21707E+05
 0.32703003E+02 -0.56623E+04
 0.32753002E+02 -0.73959E+04
 0.32803005E+02 -0.10182E+05
 0.32853004E+02 -0.30451E+05
 0.32903004E+02 -0.39430E+05
 0.32953003E+02 -0.17309E+05
 0.33003002E+02 -0.64410E+04
 0.33053005E+02 -0.10000E+05
 0.33103004E+02 -0.23545E+05
 0.33153004E+02 -0.33254E+05
 0.33203003E+02 -0.24833E+05
 0.33253002E+02 -0.14621E+05
 0.33303005E+02 -0.13154E+05
 0.33353004E+02 -0.17168E+05
 0.33403004E+02 -0.14719E+05
 0.33453003E+02 -0.12280E+05
 0.33503002E+02 -0.19488E+05
 0.33553005E+02 -0.24437E+05
 0.33603004E+02 -0.12851E+05
 0.33653004E+02 -0.19367E+05
 0.33703003E+02 -0.23015E+05
 0.33753002E+02 -0.18906E+05
 0.33803005E+02 -0.19627E+05
 0.33853004E+02 -0.12101E+05
 0.33903004E+02 -0.25877E+05
 0.33953003E+02 -0.26425E+05
 0.34003002E+02 -0.16789E+05
 0.34053005E+02 -0.15791E+05
 0.34103004E+02 -0.28478E+05
 0.34153004E+02 -0.22724E+05
 0.34203003E+02 -0.22312E+05
 0.34253002E+02 -0.30860E+05
 0.34303005E+02 -0.15228E+05
 0.34353004E+02 -0.14906E+05
 0.34403004E+02 -0.70361E+04
 0.34453003E+02 -0.14979E+05
 0.34503002E+02 -0.26408E+05
 0.34553005E+02 -0.24117E+05
 0.34603004E+02 -0.28934E+05
 0.34653004E+02 -0.24932E+05
 0.34703003E+02 -0.29991E+04
 0.34753002E+02  0.87495E+04
 0.34803005E+02 -0.95045E+04
 0.34853004E+02 -0.26531E+05
 0.34903004E+02 -0.26065E+05
 0.34953003E+02 -0.25367E+05
 0.35003002E+02 -0.20970E+05
 0.35053005E+02 -0.15595E+05
 0.35103004E+02 -0.17466E+05
 0.35153004E+02 -0.12917E+05
 0.35203003E+02 -0.23727E+05
 0.35253002E+02 -0.31761E+05
 0.35303005E+02 -0.19797E+05
 0.35353004E+02 -0.12888E+05
 0.35403004E+02 -0.95411E+04
 0.35453003E+02 -0.82072E+04
 0.35503002E+02 -0.26198E+05
 0.35553005E+02 -0.36356E+05
 0.35603004E+02 -0.28413E+05
 0.35653004E+02 -0.17875E+05
 0.35703003E+02 -0.11687E+05
 0.35753002E+02 -0.18256E+05
 0.35803005E+02 -0.18699E+05
 0.35853004E+02 -0.33621E+05
 0.35903004E+02 -0.21381E+05
 0.35953003E+02 -0.68612E+04
 0.36003002E+02 -0.24006E+05
 0.36053005E+02 -0.28403E+05
 0.36103004E+02 -0.20660E+05
 0.36153004E+02 -0.11908E+05
 0.36203003E+02 -0.14508E+05
 0.36253002E+02 -0.22130E+05
 0.36303005E+02 -0.27122E+05
 0.36353004E+02 -0.22895E+05
 0.36403004E+02 -0.25710E+05
 0.36453003E+02 -0.19030E+05
 0.36503002E+02 -0.94233E+04
 0.36553005E+02 -0.10174E+05
 0.36603004E+02 -0.18100E+05
 0.36653004E+02 -0.25355E+05
 0.36703003E+02 -0.21436E+05
 0.36753002E+02 -0.16757E+05
 0.36803005E+02 -0.12410E+05
 0.36853004E+02 -0.15003E+05
 0.36903004E+02 -0.19501E+05
 0.36953003E+02 -0.24789E+05
 0.37003002E+02 -0.23086E+05
 0.37053005E+02 -0.17359E+05
 0.37103004E+02 -0.15251E+05
 0.37153004E+02 -0.13748E+05
 0.37203003E+02 -0.15567E+05
 0.37253002E+02 -0.20920E+05
 0.37303005E+02 -0.25202E+05
 0.37353004E+02 -0.23586E+05
 0.37403004E+02 -0.16799E+05
 0.37453003E+02 -0.14603E+05
 0.37503002E+02 -0.16978E+05
 0.37553005E+02 -0.15749E+05
 0.37603004E+02 -0.20358E+05
 0.37653004E+02 -0.27919E+05
 0.37703003E+02 -0.20866E+05
 0.37753002E+02 -0.52474E+04
 0.37803005E+02 -0.97037E+04
 0.37853004E+02 -0.21277E+05
 0.37903004E+02 -0.27673E+05
 0.37953003E+02 -0.22924E+05
 0.38003002E+02 -0.17771E+05
 0.38053005E+02 -0.18453E+05
 0.38103004E+02 -0.12545E+05
 0.38153004E+02 -0.24879E+05
 0.38203003E+02 -0.27198E+05
 0.38253002E+02 -0.17546E+05
 0.38303005E+02 -0.20418E+05
 0.38353004E+02 -0.25018E+05
 0.38403004E+02 -0.28110E+05
 0.38453003E+02 -0.18149E+05
 0.38503002E+02 -0.13982E+05
 0.38553005E+02 -0.20141E+05
 0.38603004E+02 -0.15614E+05
 0.38653004E+02 -0.24369E+05
 0.38703003E+02 -0.34027E+05
 0.38753002E+02 -0.22309E+05
 0.38803005E+02 -0.16891E+05
 0.38853004E+02 -0.13175E+05
 0.38903004E+02 -0.19497E+05
 0.38953003E+02 -0.17840E+05
 0.39003002E+02 -0.12096E+05
 0.39053005E+02 -0.17542E+05
 0.39103004E+02 -0.17289E+05
 0.39153004E+02 -0.16378E+05
 0.39203003E+02 -0.13666E+05
 0.39253002E+02 -0.19455E+05
 0.39303005E+02 -0.25168E+05
 0.39353004E+02 -0.23203E+05
 0.39403004E+02 -0.14738E+05
 0.39453003E+02 -0.11430E+05
 0.39503002E+02 -0.16646E+05
 0.39553005E+02 -0.22681E+05
 0.39603004E+02 -0.19863E+05
 0.39653004E+02 -0.20737E+05
 0.39703003E+02 -0.21101E+05
 0.39753002E+02 -0.15427E+05
 0.39803005E+02 -0.20887E+05
 0.39853004E+02 -0.20803E+05
 0.39903004E+02 -0.19787E+05
 0.39953003E+02 -0.22536E+05
 0.40003002E+02 -0.17277E+05
 0.40053005E+02 -0.16816E+05
 0.40103004E+02 -0.23771E+05
 0.40153004E+02 -0.27187E+05
 0.40203003E+02 -0.24189E+05
 0.40253002E+02 -0.13178E+05
 0.40303005E+02 -0.99004E+04
 0.40353004E+02 -0.18465E+05
 0.40403004E+02 -0.23066E+05
 0.40453003E+02 -0.21708E+05
 0.40503002E+02 -0.22184E+05
 0.40553005E+02 -0.15763E+05
 0.40603004E+02 -0.14349E+05
 0.40653004E+02 -0.14891E+05
 0.40703003E+02 -0.19403E+05
 0.40753002E+02 -0.26485E+05
 0.40803005E+02 -0.24456E+05
 0.40853004E+02 -0.20387E+05
 0.40903004E+02 -0.12137E+05
 0.40953003E+02 -0.16997E+05
 0.41003002E+02 -0.22287E+05
 0.41053005E+02 -0.20834E+05
 0.41103004E+02 -0.21774E+05
 0.41153004E+02 -0.19658E+05
 0.41203003E+02 -0.16781E+05
 0.41253002E+02 -0.16672E+05
 0.41303005E+02 -0.17723E+05
 0.41353004E+02 -0.20734E+05
 0.41403004E+02 -0.23740E+05
 0.41453003E+02 -0.26062E+05
 0.41503002E+02 -0.20470E+05
 0.41553005E+02 -0.12182E+05
 0.41603004E+02 -0.14103E+05
 0.41653004E+02 -0.19019E+05
 0.41703003E+02 -0.17035E+05
 0.41753002E+02 -0.19568E+05
 0.41803005E+02 -0.20008E+05
 0.41853004E+02 -0.15673E+05
 0.41903004E+02 -0.19868E+05
 0.41953003E+02 -0.19718E+05
 0.42003002E+02 -0.18110E+05
 0.42053005E+02 -0.20950E+05
 0.42103004E+02 -0.24467E+05
 0.42153004E+02 -0.23854E+05
 0.42203003E+02 -0.16490E+05
 0.42253002E+02 -0.14213E+05
 0.42303005E+02 -0.18462E+05
 0.42353004E+02 -0.19415E+05
 0.42403004E+02 -0.21987E+05
 0.42453003E+02 -0.22632E+05
 0.42503002E+02 -0.17721E+05
 0.42553005E+02 -0.12643E+05
 0.42603004E+02 -0.15232E+05
 0.42653004E+02 -0.20871E+05
 0.42703003E+02 -0.23373E+05
 0.42753002E+02 -0.22663E+05
 0.42803001E+02 -0.17004E+05
 0.42853004E+02 -0.18108E+05
 0.42903004E+02 -0.19883E+05
 0.42953003E+02 -0.20816E+05
 0.43003002E+02 -0.17460E+05
 0.43053001E+02 -0.16609E+05
 0.43103004E+02 -0.22155E+05
 0.43153004E+02 -0.20861E+05
 0.43203003E+02 -0.20896E+05
 0.43253002E+02 -0.18923E+05
 0.43303001E+02 -0.19596E+05
 0.43353004E+02 -0.24705E+05
 0.43403004E+02 -0.21373E+05
 0.43453003E+02 -0.17284E+05
 0.43503002E+02 -0.14008E+05
 0.43553001E+02 -0.17709E+05
 0.43603004E+02 -0.23415E+05
 0.43653004E+02 -0.18990E+05
 0.43703003E+02 -0.22222E+05
 0.43753002E+02 -0.19095E+05
 0.43803001E+02 -0.14915E+05
 0.43853004E+02 -0.20222E+05
 0.43903004E+02 -0.18131E+05
 0.43953003E+02 -0.17497E+05
 0.44003002E+02 -0.23752E+05
 0.44053001E+02 -0.21615E+05
 0.44103004E+02 -0.15578E+05
 0.44153004E+02 -0.17714E+05
 0.44203003E+02 -0.20840E+05
 0.44253002E+02 -0.18248E+05
 0.44303001E+02 -0.14515E+05
 0.44353004E+02 -0.16596E+05
 0.44403004E+02 -0.18470E+05
 0.44453003E+02 -0.19950E+05
 0.44503002E+02 -0.23212E+05
 0.44553001E+02 -0.20805E+05
 0.44603004E+02 -0.15099E+05
 0.44653004E+02 -0.13675E+05
 0.44703003E+02 -0.17570E+05
 0.44753002E+02 -0.24252E+05
 0.44803001E+02 -0.22692E+05
 0.44853004E+02 -0.19251E+05
 0.44903004E+02 -0.13667E+05
 0.44953003E+02 -0.12983E+05
 0.45003002E+02 -0.21309E+05
 0.45053001E+02 -0.26842E+05
 0.45103004E+02 -0.28891E+05
 0.45153004E+02 -0.21277E+05
 0.45203003E+02 -0.16052E+05
 0.45253002E+02 -0.17903E+05
 0.45303001E+02 -0.20767E+05
 0.45353004E+02 -0.23188E+05
 0.45403004E+02 -0.18499E+05
 0.45453003E+02 -0.15703E+05
 0.45503002E+02 -0.17813E+05
 0.45553001E+02 -0.20218E+05
 0.45603004E+02 -0.21166E+05
 0.45653004E+02 -0.18197E+05
 0.45703003E+02 -0.18353E+05
 0.45753002E+02 -0.21654E+05
 0.45803001E+02 -0.21416E+05
 0.45853004E+02 -0.18468E+05
 0.45903004E+02 -0.14932E+05
 0.45953003E+02 -0.15167E+05
 0.46003002E+02 -0.18584E+05
 0.46053001E+02 -0.19337E+05
 0.46103004E+02 -0.21050E+05
 0.46153004E+02 -0.19288E+05
 0.46203003E+02 -0.17563E+05
 0.46253002E+02 -0.15885E+05
 0.46303001E+02 -0.20654E+05
 0.46353004E+02 -0.23109E+05
 0.46403004E+02 -0.19472E+05
 0.46453003E+02 -0.22720E+05
 0.46503002E+02 -0.18650E+05
 0.46553001E+02 -0.18672E+05
 0.46603004E+02 -0.19584E+05
 0.46653004E+02 -0.19844E+05
 0.46703003E+02 -0.19876E+05
 0.46753002E+02 -0.15567E+05
 0.46803001E+02 -0.21655E+05
 0.46853004E+02 -0.21260E+05
 0.46903004E+02 -0.17105E+05
 0.46953003E+02 -0.14595E+05
 0.47003002E+02 -0.12207E+05
 0.47053001E+02 -0.19926E+05
 0.47103004E+02 -0.23842E+05
 0.47153004E+02 -0.25618E+05
 0.47203003E+02 -0.21844E+05
 0.47253002E+02 -0.15255E+05
 0.47303001E+02 -0.17191E+05
 0.47353004E+02 -0.21039E+05
 0.47403004E+02 -0.22315E+05
 0.47453003E+02 -0.19576E+05
 0.47503002E+02 -0.15800E+05
 0.47553001E+02 -0.15042E+05
 0.47603004E+02 -0.19731E+05
 0.47653004E+02 -0.22126E+05
 0.47703003E+02 -0.18504E+05
 0.47753002E+02 -0.17934E+05
 0.47803001E+02 -0.20142E+05
 0.47853004E+02 -0.21444E+05
 0.47903004E+02 -0.18439E+05
 0.47953003E+02 -0.16515E+05
 0.48003002E+02 -0.21660E+05
 0.48053001E+02 -0.23663E+05
 0.48103004E+02 -0.22649E+05
 0.48153004E+02 -0.19594E+05
 0.48203003E+02 -0.18577E+05
 0.48253002E+02 -0.19386E+05
 0.48303001E+02 -0.19673E+05
 0.48353004E+02 -0.19706E+05
 0.48403004E+02 -0.20712E+05
 0.48453003E+02 -0.19818E+05
 0.48503002E+02 -0.17040E+05
 0.48553001E+02 -0.17773E+05
 0.48603004E+02 -0.18976E+05
 0.48653004E+02 -0.20635E+05
 0.48703003E+02 -0.20488E+05
 0.48753002E+02 -0.19347E+05
 0.48803001E+02 -0.16404E+05
 0.48853004E+02 -0.13912E+05
 0.48903004E+02 -0.17254E+05
 0.48953003E+02 -0.22582E+05
 0.49003002E+02 -0.23102E+05
 0.49053001E+02 -0.21832E+05
 0.49103004E+02 -0.18809E+05
 0.49153004E+02 -0.15117E+05
 0.49203003E+02 -0.14942E+05
 0.49253002E+02 -0.16892E+05
 0.49303001E+02 -0.18514E+05
 0.49353004E+02 -0.18782E+05
 0.49403004E+02 -0.20615E+05
 0.49453003E+02 -0.22254E+05
 0.49503002E+02 -0.18298E+05
 0.49553001E+02 -0.16954E+05
 0.49603004E+02 -0.20597E+05
 0.49653004E+02 -0.22115E+05
 0.49703003E+02 -0.20446E+05
 0.49753002E+02 -0.17973E+05
 0.49803001E+02 -0.18404E+05
 0.49853004E+02 -0.18884E+05
 0.49903004E+02 -0.19263E+05
 0.49953003E+02 -0.17980E+05
 0.50003002E+02 -0.17318E+05
 0.50053001E+02 -0.17472E+05
 0.50103004E+02 -0.21948E+05
 0.50153004E+02 -0.23860E+05
 0.50203003E+02 -0.21072E+05
 0.50253002E+02 -0.18347E+05
 0.50303001E+02 -0.16179E+05
 0.50353004E+02 -0.19026E+05
 0.50403004E+02 -0.19103E+05
 0.50453003E+02 -0.20356E+05
 0.50503002E+02 -0.21956E+05
 0.50553001E+02 -0.19864E+05
 0.50603004E+02 -0.16236E+05
 0.50653004E+02 -0.15903E+05
 0.50703003E+02 -0.19790E+05
 0.50753002E+02 -0.20403E+05
 0.50803001E+02 -0.21827E+05
 0.50853004E+02 -0.20789E+05
 0.50903004E+02 -0.15617E+05
 0.50953003E+02 -0.15960E+05
 0.51003002E+02 -0.20803E+05
 0.51053001E+02 -0.22577E+05
 0.51103004E+02 -0.20850E+05
 0.51153004E+02 -0.19366E+05
 0.51203003E+02 -0.17957E+05
 0.51253002E+02 -0.17063E+05
 0.51303001E+02 -0.16115E+05
 0.51353004E+02 -0.18711E+05
 0.51403004E+02 -0.20807E+05
 0.51453003E+02 -0.20363E+05
 0.51503002E+02 -0.21544E+05
 0.51553001E+02 -0.21813E+05
 0.51603004E+02 -0.22382E+05
 0.51653004E+02 -0.20021E+05
 0.51703003E+02 -0.18328E+05
 0.51753002E+02 -0.18933E+05
 0.51803001E+02 -0.21743E+05
 0.51853004E+02 -0.21227E+05
 0.51903004E+02 -0.17949E+05
 0.51953003E+02 -0.18906E+05
 0.52003002E+02 -0.19513E+05
 0.52053001E+02 -0.19231E+05
 0.52103004E+02 -0.17814E+05
 0.52153004E+02 -0.17720E+05
 0.52203003E+02 -0.18012E+05
 0.52253002E+02 -0.18214E+05
 0.52303001E+02 -0.18891E+05
 0.52353004E+02 -0.20462E+05
 0.52403004E+02 -0.19506E+05
 0.52453003E+02 -0.16742E+05
 0.52503002E+02 -0.14291E+05
 0.52553001E+02 -0.15735E+05
 0.52603004E+02 -0.20677E+05
 0.52653004E+02 -0.21926E+05
 0.52703003E+02 -0.21590E+05
 0.52753002E+02 -0.20747E+05
 0.52803001E+02 -0.20075E+05
 0.52853004E+02 -0.19018E+05
 0.52903004E+02 -0.18691E+05
 0.52953003E+02 -0.17273E+05
 0.53003002E+02 -0.18206E+05
 0.53053001E+02 -0.20557E+05
 0.53103004E+02 -0.21934E+05
 0.53153004E+02 -0.21823E+05
 0.53203003E+02 -0.16746E+05
 0.53253002E+02 -0.16661E+05
 0.53303001E+02 -0.19669E+05
 0.53353004E+02 -0.20036E+05
 0.53403004E+02 -0.21145E+05
 0.53453003E+02 -0.20269E+05
 0.53503002E+02 -0.18597E+05
 0.53553001E+02 -0.17182E+05
 0.53603004E+02 -0.18089E+05
 0.53653004E+02 -0.21334E+05
 0.53703003E+02 -0.21268E+05
 0.53753002E+02 -0.19203E+05
 0.53803001E+02 -0.16744E+05
 0.53853004E+02 -0.16888E+05
 0.53903004E+02 -0.18812E+05
 0.53953003E+02 -0.21586E+05
 0.54003002E+02 -0.21899E+05
 0.54053001E+02 -0.17946E+05
 0.54103004E+02 -0.17847E+05
 0.54153004E+02 -0.20385E+05
 0.54203003E+02 -0.22099E+05
 0.54253002E+02 -0.21124E+05
 0.54303001E+02 -0.18830E+05
 0.54353004E+02 -0.18251E+05
 0.54403004E+02 -0.17490E+05
 0.54453003E+02 -0.18932E+05
 0.54503002E+02 -0.19099E+05
 0.54553001E+02 -0.19115E+05
 0.54603004E+02 -0.19913E+05
 0.54653004E+02 -0.17184E+05
 0.54703003E+02 -0.17335E+05
 0.54753002E+02 -0.19546E+05
 0.54803001E+02 -0.19513E+05
 0.54853004E+02 -0.18722E+05
 0.54903004E+02 -0.20099E+05
 0.54953003E+02 -0.22196E+05
 0.55003002E+02 -0.19918E+05
 0.55053001E+02 -0.18245E+05
 0.55103004E+02 -0.18586E+05
 0.55153004E+02 -0.18203E+05
 0.55203003E+02 -0.20313E+05
 0.55253002E+02 -0.20816E+05
 0.55303001E+02 -0.18946E+05
 0.55353004E+02 -0.18086E+05
 0.55403004E+02 -0.18839E+05
 0.55453003E+02 -0.20856E+05
 0.55503002E+02 -0.20750E+05
 0.55553001E+02 -0.19551E+05
 0.55603004E+02 -0.17497E+05
 0.55653004E+02 -0.18659E+05
 0.55703003E+02 -0.19506E+05
 0.55753002E+02 -0.18330E+05
 0.55803001E+02 -0.19440E+05
 0.55853001E+02 -0.19462E+05
 0.55903004E+02 -0.20544E+05
 0.55953003E+02 -0.19408E+05
 0.56003002E+02 -0.18998E+05
 0.56053001E+02 -0.19080E+05
 0.56103001E+02 -0.18016E+05
 0.56153004E+02 -0.18952E+05
 0.56203003E+02 -0.19408E+05
 0.56253002E+02 -0.20968E+05
 0.56303001E+02 -0.19897E+05
 0.56353001E+02 -0.17907E+05
 0.56403004E+02 -0.20048E+05
 0.56453003E+02 -0.21978E+05
 0.56503002E+02 -0.20823E+05
 0.56553001E+02 -0.17662E+05
 0.56603001E+02 -0.16630E+05
 0.56653004E+02 -0.17415E+05
 0.56703003E+02 -0.19746E+05
 0.56753002E+02 -0.22070E+05
 0.56803001E+02 -0.19368E+05
 0.56853001E+02 -0.17554E+05
 0.56903004E+02 -0.19215E+05
 0.56953003E+02 -0.19527E+05
 0.57003002E+02 -0.18667E+05
 0.57053001E+02 -0.19117E+05
 0.57103001E+02 -0.18531E+05
 0.57153004E+02 -0.19077E+05
 0.57203003E+02 -0.20369E+05
 0.57253002E+02 -0.20322E+05
 0.57303001E+02 -0.18995E+05
 0.57353001E+02 -0.18577E+05
 0.57403004E+02 -0.19971E+05
 0.57453003E+02 -0.19590E+05
 0.57503002E+02 -0.18731E+05
 0.57553001E+02 -0.16822E+05
 0.57603001E+02 -0.17138E+05
 0.57653004E+02 -0.19328E+05
 0.57703003E+02 -0.19790E+05
 0.57753002E+02 -0.20315E+05
 0.57803001E+02 -0.19929E+05
 0.57853001E+02 -0.19367E+05
 0.57903004E+02 -0.19441E+05
 0.57953003E+02 -0.18321E+05
 0.58003002E+02 -0.19815E+05
 0.58053001E+02 -0.19192E+05
 0.58103001E+02 -0.16802E+05
 0.58153004E+02 -0.17708E+05
 0.58203003E+02 -0.18984E+05
 0.58253002E+02 -0.21223E+05
 0.58303001E+02 -0.21249E+05
 0.58353001E+02 -0.20049E+05
 0.58403004E+02 -0.20065E+05
 0.58453003E+02 -0.18462E+05
 0.58503002E+02 -0.17074E+05
 0.58553001E+02 -0.18476E+05
 0.58603001E+02 -0.20784E+05
 0.58653004E+02 -0.21978E+05
 0.58703003E+02 -0.18998E+05
 0.58753002E+02 -0.18786E+05
 0.58803001E+02 -0.21815E+05
 0.58853001E+02 -0.19799E+05
 0.58903004E+02 -0.19332E+05
 0.58953003E+02 -0.18890E+05
 0.59003002E+02 -0.15174E+05
 0.59053001E+02 -0.15559E+05
 0.59103001E+02 -0.19936E+05
 0.59153004E+02 -0.22590E+05
 0.59203003E+02 -0.22491E+05
 0.59253002E+02 -0.20247E+05
 0.59303001E+02 -0.18132E+05
 0.59353001E+02 -0.18021E+05
 0.59403004E+02 -0.17537E+05
 0.59453003E+02 -0.18369E+05
 0.59503002E+02 -0.19937E+05
 0.59553001E+02 -0.20838E+05
 0.59603001E+02 -0.19482E+05
 0.59653004E+02 -0.18102E+05
 0.59703003E+02 -0.18516E+05
 0.59753002E+02 -0.19586E+05
 0.59803001E+02 -0.20879E+05
 0.59853001E+02 -0.20730E+05
 0.59903004E+02 -0.18894E+05
 0.59953003E+02 -0.17967E+05
 0.60003002E+02 -0.19542E+05
 0.60053001E+02 -0.20723E+05
 0.60103001E+02 -0.21519E+05
 0.60153004E+02 -0.18579E+05
 0.60203003E+02 -0.16240E+05
 0.60253002E+02 -0.18346E+05
 0.60303001E+02 -0.20086E+05
 0.60353001E+02 -0.20662E+05
 0.60403004E+02 -0.19587E+05
 0.60453003E+02 -0.18788E+05
 0.60503002E+02 -0.17804E+05
 0.60553001E+02 -0.17357E+05
 0.60603001E+02 -0.19478E+05
 0.60653004E+02 -0.20954E+05
 0.60703003E+02 -0.21015E+05
 0.60753002E+02 -0.18489E+05
 0.60803001E+02 -0.18392E+05
 0.60853001E+02 -0.20914E+05
 0.60903004E+02 -0.20949E+05
 0.60953003E+02 -0.21096E+05
 0.61003002E+02 -0.19654E+05
 0.61053001E+02 -0.18658E+05
 0.61103001E+02 -0.17255E+05
 0.61153004E+02 -0.18753E+05
 0.61203003E+02 -0.20835E+05
 0.61253002E+02 -0.19367E+05
 0.61303001E+02 -0.18539E+05
 0.61353001E+02 -0.18017E+05
 0.61403004E+02 -0.19170E+05
 0.61453003E+02 -0.20032E+05
 0.61503002E+02 -0.20002E+05
 0.61553001E+02 -0.18905E+05
 0.61603001E+02 -0.19264E+05
 0.61653004E+02 -0.19003E+05
 0.61703003E+02 -0.18467E+05
 0.61753002E+02 -0.18507E+05
 0.61803001E+02 -0.18529E+05
 0.61853001E+02 -0.18783E+05
 0.61903004E+02 -0.19017E+05
 0.61953003E+02 -0.20529E+05
 0.62003002E+02 -0.19624E+05
 0.62053001E+02 -0.17463E+05
 0.62103004E+02 -0.17267E+05
 0.62153000E+02 -0.20810E+05
 0.62203003E+02 -0.21263E+05
 0.62252998E+02 -0.19231E+05
 0.62303001E+02 -0.19493E+05
 0.62353004E+02 -0.19271E+05
 0.62403000E+02 -0.18401E+05
 0.62453003E+02 -0.18449E+05
 0.62502998E+02 -0.19759E+05
 0.62553001E+02 -0.19805E+05
 0.62603004E+02 -0.18719E+05
 0.62653000E+02 -0.18162E+05
 0.62703003E+02 -0.19283E+05
 0.62752998E+02 -0.19221E+05
 0.62803001E+02 -0.19336E+05
 0.62853004E+02 -0.19056E+05
 0.62903000E+02 -0.19124E+05
 0.62953003E+02 -0.19847E+05
 0.63002998E+02 -0.19381E+05
 0.63053001E+02 -0.19454E+05
 0.63103004E+02 -0.19428E+05
 0.63153000E+02 -0.19468E+05
 0.63203003E+02 -0.19408E+05
 0.63252998E+02 -0.19633E+05
 0.63303001E+02 -0.19128E+05
 0.63353004E+02 -0.18785E+05
 0.63403000E+02 -0.19057E+05
 0.63453003E+02 -0.18541E+05
 0.63502998E+02 -0.18674E+05
 0.63553001E+02 -0.19633E+05
 0.63603004E+02 -0.20616E+05
 0.63653000E+02 -0.20241E+05
 0.63703003E+02 -0.19248E+05
 0.63752998E+02 -0.19177E+05
 0.63803001E+02 -0.18861E+05
 0.63853004E+02 -0.19041E+05
 0.63903000E+02 -0.19271E+05
 0.63953003E+02 -0.19373E+05
 0.64002998E+02 -0.18705E+05
 0.64053001E+02 -0.18319E+05
 0.64103004E+02 -0.18734E+05
 0.64153000E+02 -0.19368E+05
 0.64203003E+02 -0.20605E+05
 0.64252998E+02 -0.20123E+05
 0.64303001E+02 -0.19042E+05
 0.64353004E+02 -0.18112E+05
 0.64403000E+02 -0.17670E+05
 0.64453003E+02 -0.19970E+05
 0.64502998E+02 -0.20950E+05
 0.64553001E+02 -0.19351E+05
 0.64603004E+02 -0.18575E+05
 0.64653000E+02 -0.18421E+05
 0.64703003E+02 -0.19327E+05
 0.64752998E+02 -0.19489E+05
 0.64803001E+02 -0.19175E+05
 0.64853004E+02 -0.19616E+05
 0.64903000E+02 -0.19219E+05
 0.64953003E+02 -0.19353E+05
 0.65002998E+02 -0.19689E+05
 0.65053001E+02 -0.19103E+05
 0.65103004E+02 -0.19920E+05
 0.65153000E+02 -0.20286E+05
 0.65203003E+02 -0.19787E+05
 0.65252998E+02 -0.19307E+05
 0.65303001E+02 -0.18211E+05
 0.65353004E+02 -0.19444E+05
 0.65403000E+02 -0.19585E+05
 0.65453003E+02 -0.19205E+05
 0.65502998E+02 -0.20104E+05
 0.65553001E+02 -0.19748E+05
 0.65603004E+02 -0.19411E+05
 0.65653000E+02 -0.18769E+05
 0.65703003E+02 -0.18258E+05
 0.65752998E+02 -0.19179E+05
 0.65803001E+02 -0.18848E+05
 0.65853004E+02 -0.19352E+05
 0.65903000E+02 -0.20443E+05
 0.65953003E+02 -0.19397E+05
 0.66002998E+02 -0.18737E+05
 0.66053001E+02 -0.17893E+05
 0.66103004E+02 -0.18857E+05
 0.66153000E+02 -0.19884E+05
 0.66203003E+02 -0.18645E+05
 0.66252998E+02 -0.18833E+05
 0.66303001E+02 -0.18702E+05
 0.66353004E+02 -0.17907E+05
 0.66403000E+02 -0.18860E+05
 0.66453003E+02 -0.19353E+05
 0.66502998E+02 -0.19176E+05
 0.66553001E+02 -0.19629E+05
 0.66603004E+02 -0.20785E+05
 0.66653000E+02 -0.20192E+05
 0.66703003E+02 -0.18284E+05
 0.66752998E+02 -0.17713E+05
 0.66803001E+02 -0.18566E+05
 0.66853004E+02 -0.19430E+05
 0.66903000E+02 -0.19911E+05
 0.66953003E+02 -0.20158E+05
 0.67002998E+02 -0.19816E+05
 0.67053001E+02 -0.19522E+05
 0.67103004E+02 -0.19351E+05
 0.67153000E+02 -0.20624E+05
 0.67203003E+02 -0.20289E+05
 0.67252998E+02 -0.19590E+05
 0.67303001E+02 -0.19409E+05
 0.67353004E+02 -0.18590E+05
 0.67403000E+02 -0.19567E+05
 0.67453003E+02 -0.19746E+05
 0.67502998E+02 -0.19711E+05
 0.67553001E+02 -0.20481E+05
 0.67603004E+02 -0.20852E+05
 0.67653000E+02 -0.19395E+05
 0.67703003E+02 -0.17250E+05
 0.67752998E+02 -0.17245E+05
 0.67803001E+02 -0.19152E+05
 0.67853004E+02 -0.20045E+05
 0.67903000E+02 -0.19205E+05
 0.67953003E+02 -0.18705E+05
 0.68002998E+02 -0.17581E+05
 0.68053001E+02 -0.18162E+05
 0.68103004E+02 -0.19712E+05
 0.68153000E+02 -0.20369E+05
 0.68203003E+02 -0.20110E+05
 0.68252998E+02 -0.18814E+05
 0.68303001E+02 -0.18747E+05
 0.68353004E+02 -0.18565E+05
 0.68403000E+02 -0.19612E+05
 0.68453003E+02 -0.20366E+05
 0.68502998E+02 -0.19173E+05
 0.68553001E+02 -0.18768E+05
 0.68603004E+02 -0.17788E+05
 0.68653000E+02 -0.17702E+05
 0.68703003E+02 -0.19237E+05
 0.68752998E+02 -0.20827E+05
 0.68803001E+02 -0.21018E+05
 0.68853004E+02 -0.19862E+05
 0.68903000E+02 -0.19217E+05
 0.68953003E+02 -0.18550E+05
 0.69002998E+02 -0.19230E+05
 0.69053001E+02 -0.20365E+05
 0.69103004E+02 -0.20785E+05
 0.69153000E+02 -0.19600E+05
 0.69203003E+02 -0.17462E+05
 0.69252998E+02 -0.16900E+05
 0.69303001E+02 -0.18546E+05
 0.69353004E+02 -0.20698E+05
 0.69403000E+02 -0.21044E+05
 0.69453003E+02 -0.20111E+05
 0.69502998E+02 -0.19222E+05
 0.69553001E+02 -0.19204E+05
 0.69603004E+02 -0.19202E+05
 0.69653000E+02 -0.18839E+05
 0.69703003E+02 -0.18852E+05
 0.69752998E+02 -0.19468E+05
 0.69803001E+02 -0.19541E+05
 0.69853004E+02 -0.19190E+05
 0.69903000E+02 -0.19468E+05
 0.69953003E+02 -0.19979E+05
 0.70002998E+02 -0.19621E+05
 0.70053001E+02 -0.18875E+05
 0.70103004E+02 -0.18434E+05
 0.70153000E+02 -0.18395E+05
 0.70203003E+02 -0.18375E+05
 0.70252998E+02 -0.19155E+05
 0.70303001E+02 -0.20206E+05
 0.70353004E+02 -0.19404E+05
 0.70403000E+02 -0.18769E+05
 0.70453003E+02 -0.19302E+05
 0.70502998E+02 -0.20081E+05
 0.70553001E+02 -0.20283E+05
 0.70603004E+02 -0.19443E+05
 0.70653000E+02 -0.18050E+05
 0.70703003E+02 -0.17285E+05
 0.70752998E+02 -0.18736E+05
 0.70803001E+02 -0.20206E+05
 0.70853004E+02 -0.20628E+05
 0.70903000E+02 -0.20237E+05
 0.70953003E+02 -0.19389E+05
 0.71002998E+02 -0.18804E+05
 0.71053001E+02 -0.18283E+05
 0.71103004E+02 -0.18921E+05
 0.71153000E+02 -0.19786E+05
 0.71203003E+02 -0.20080E+05
 0.71252998E+02 -0.19884E+05
 0.71303001E+02 -0.19240E+05
 0.71353004E+02 -0.18987E+05
 0.71403000E+02 -0.19216E+05
 0.71453003E+02 -0.18178E+05
 0.71502998E+02 -0.18048E+05
 0.71553001E+02 -0.18866E+05
 0.71603004E+02 -0.19571E+05
 0.71653000E+02 -0.20657E+05
 0.71703003E+02 -0.20391E+05
 0.71752998E+02 -0.19605E+05
 0.71803001E+02 -0.18551E+05
 0.71853004E+02 -0.18268E+05
 0.71903000E+02 -0.18574E+05
 0.71953003E+02 -0.18815E+05
 0.72002998E+02 -0.18829E+05
 0.72053001E+02 -0.19108E+05
 0.72103004E+02 -0.19663E+05
 0.72153000E+02 -0.19734E+05
 0.72203003E+02 -0.19788E+05
 0.72252998E+02 -0.19941E+05
 0.72303001E+02 -0.19686E+05
 0.72353004E+02 -0.18853E+05
 0.72403000E+02 -0.19450E+05
 0.72453003E+02 -0.20247E+05
 0.72502998E+02 -0.19510E+05
 0.72553001E+02 -0.18215E+05
 0.72603004E+02 -0.18436E+05
 0.72653000E+02 -0.20052E+05
 0.72703003E+02 -0.20269E+05
 0.72752998E+02 -0.19478E+05
 0.72803001E+02 -0.18756E+05
 0.72853004E+02 -0.18575E+05
 0.72903000E+02 -0.18661E+05
 0.72953003E+02 -0.18648E+05
 0.73002998E+02 -0.18763E+05
 0.73053001E+02 -0.18767E+05
 0.73103004E+02 -0.18957E+05
 0.73153000E+02 -0.19557E+05
 0.73203003E+02 -0.19840E+05
 0.73252998E+02 -0.19952E+05
 0.73303001E+02 -0.20306E+05
 0.73353004E+02 -0.19979E+05
 0.73403000E+02 -0.18666E+05
 0.73453003E+02 -0.17735E+05
 0.73502998E+02 -0.18755E+05
 0.73553001E+02 -0.20162E+05
 0.73603004E+02 -0.20391E+05
 0.73653000E+02 -0.19358E+05
 0.73703003E+02 -0.18045E+05
 0.73752998E+02 -0.18434E+05
 0.73803001E+02 -0.19433E+05
 0.73853004E+02 -0.19651E+05
 0.73903000E+02 -0.19938E+05
 0.73953003E+02 -0.19805E+05
 0.74002998E+02 -0.19164E+05
 0.74053001E+02 -0.18788E+05
 0.74103004E+02 -0.18589E+05
 0.74153000E+02 -0.18475E+05
 0.74203003E+02 -0.18266E+05
 0.74252998E+02 -0.18352E+05
 0.74303001E+02 -0.18684E+05
 0.74353004E+02 -0.20000E+05
 0.74403000E+02 -0.20966E+05
 0.74453003E+02 -0.20366E+05
 0.74502998E+02 -0.20020E+05
 0.74553001E+02 -0.18817E+05
 0.74603004E+02 -0.17933E+05
 0.74653000E+02 -0.18821E+05
 0.74703003E+02 -0.19365E+05
 0.74752998E+02 -0.19153E+05
 0.74803001E+02 -0.19244E+05
 0.74853004E+02 -0.19541E+05
 0.74903000E+02 -0.19257E+05
 0.74953003E+02 -0.19239E+05
 0.75002998E+02 -0.19828E+05
 0.75053001E+02 -0.20031E+05
 0.75103004E+02 -0.19760E+05
 0.75153000E+02 -0.19340E+05
 0.75203003E+02 -0.19280E+05
 0.75252998E+02 -0.19823E+05
 0.75303001E+02 -0.20100E+05
 0.75353004E+02 -0.19787E+05
 0.75403000E+02 -0.18556E+05
 0.75453003E+02 -0.17979E+05
 0.75502998E+02 -0.18706E+05
 0.75553001E+02 -0.19934E+05
 0.75603004E+02 -0.20415E+05
 0.75653000E+02 -0.18631E+05
 0.75703003E+02 -0.17754E+05
 0.75752998E+02 -0.18550E+05
 0.75803001E+02 -0.19651E+05
 0.75853004E+02 -0.20757E+05
 0.75903000E+02 -0.19564E+05
 0.75953003E+02 -0.18562E+05
 0.76002998E+02 -0.19115E+05
 0.76053001E+02 -0.19480E+05
 0.76103004E+02 -0.19079E+05
 0.76153000E+02 -0.18551E+05
 0.76203003E+02 -0.19741E+05
 0.76252998E+02 -0.20665E+05
 0.76303001E+02 -0.20164E+05
 0.76353004E+02 -0.19208E+05
 0.76403000E+02 -0.18498E+05
 0.76453003E+02 -0.18239E+05
 0.76502998E+02 -0.19170E+05
 0.76553001E+02 -0.19948E+05
 0.76603004E+02 -0.19288E+05
 0.76653000E+02 -0.18979E+05
 0.76703003E+02 -0.18936E+05
 0.76752998E+02 -0.19087E+05
 0.76803001E+02 -0.19715E+05
 0.76853004E+02 -0.19739E+05
 0.76903000E+02 -0.19522E+05
 0.76953003E+02 -0.19748E+05
 0.77002998E+02 -0.19633E+05
 0.77053001E+02 -0.19124E+05
 0.77103004E+02 -0.18430E+05
 0.77153000E+02 -0.19018E+05
 0.77203003E+02 -0.19715E+05
 0.77252998E+02 -0.19624E+05
 0.77303001E+02 -0.19263E+05
 0.77353004E+02 -0.18973E+05
 0.77403000E+02 -0.19688E+05
 0.77453003E+02 -0.19418E+05
 0.77502998E+02 -0.18406E+05
 0.77553001E+02 -0.18376E+05
 0.77603004E+02 -0.19234E+05
 0.77653000E+02 -0.19591E+05
 0.77703003E+02 -0.19398E+05
 0.77752998E+02 -0.19383E+05
 0.77803001E+02 -0.19377E+05
 0.77853004E+02 -0.18512E+05
 0.77903000E+02 -0.18140E+05
 0.77953003E+02 -0.18794E+05
 0.78002998E+02 -0.19131E+05
 0.78053001E+02 -0.19462E+05
 0.78103004E+02 -0.19532E+05
 0.78153000E+02 -0.19609E+05
 0.78203003E+02 -0.19598E+05
 0.78252998E+02 -0.19613E+05
 0.78303001E+02 -0.19912E+05
 0.78353004E+02 -0.19956E+05
 0.78403000E+02 -0.19910E+05
 0.78453003E+02 -0.19384E+05
 0.78502998E+02 -0.18772E+05
 0.78553001E+02 -0.18822E+05
 0.78603004E+02 -0.19350E+05
 0.78653000E+02 -0.20210E+05
 0.78703003E+02 -0.20651E+05
 0.78752998E+02 -0.19250E+05
 0.78803001E+02 -0.17734E+05
 0.78853004E+02 -0.17920E+05
 0.78903000E+02 -0.19054E+05
 0.78953003E+02 -0.19861E+05
 0.79002998E+02 -0.19348E+05
 0.79053001E+02 -0.19140E+05
 0.79103004E+02 -0.19315E+05
 0.79153000E+02 -0.19321E+05
 0.79203003E+02 -0.19050E+05
 0.79252998E+02 -0.18852E+05
 0.79303001E+02 -0.18496E+05
 0.79353004E+02 -0.18927E+05
 0.79403000E+02 -0.19446E+05
 0.79453003E+02 -0.19570E+05
 0.79502998E+02 -0.20225E+05
 0.79553001E+02 -0.20089E+05
 0.79603004E+02 -0.19627E+05
 0.79653000E+02 -0.18751E+05
 0.79703003E+02 -0.18763E+05
 0.79752998E+02 -0.19357E+05
 0.79803001E+02 -0.19382E+05
 0.79853004E+02 -0.19632E+05
 0.79903000E+02 -0.20000E+05
 0.79953003E+02 -0.20300E+05
 0.80002998E+02 -0.19922E+05
 0.80053001E+02 -0.19194E+05
 0.80103004E+02 -0.19200E+05
 0.80153000E+02 -0.19288E+05
 0.80203003E+02 -0.18856E+05
 0.80252998E+02 -0.18447E+05
 0.80303001E+02 -0.18404E+05
 0.80353004E+02 -0.18994E+05
 0.80403000E+02 -0.19505E+05
 0.80453003E+02 -0.20037E+05
 0.80502998E+02 -0.19828E+05
 0.80553001E+02 -0.19122E+05
 0.80603004E+02 -0.18556E+05
 0.80653000E+02 -0.18256E+05
 0.80703003E+02 -0.18532E+05
 0.80752998E+02 -0.18627E+05
 0.80803001E+02 -0.18868E+05
 0.80853004E+02 -0.18660E+05
 0.80903000E+02 -0.18957E+05
 0.80953003E+02 -0.19347E+05
 0.81002998E+02 -0.19637E+05
 0.81053001E+02 -0.19777E+05
 0.81103004E+02 -0.19332E+05
 0.81153000E+02 -0.18746E+05
 0.81203003E+02 -0.18904E+05
 0.81252998E+02 -0.19288E+05
 0.81303001E+02 -0.19061E+05
 0.81353004E+02 -0.19440E+05
 0.81403000E+02 -0.19713E+05
 0.81453003E+02 -0.19982E+05
 0.81502998E+02 -0.20006E+05
 0.81553001E+02 -0.19392E+05
 0.81603004E+02 -0.19300E+05
 0.81653000E+02 -0.19335E+05
 0.81703003E+02 -0.19009E+05
 0.81752998E+02 -0.18805E+05
 0.81803001E+02 -0.18985E+05
 0.81853004E+02 -0.19275E+05
 0.81903000E+02 -0.18866E+05
 0.81953003E+02 -0.18680E+05
 0.82002998E+02 -0.18917E+05
 0.82053001E+02 -0.19280E+05
 0.82103004E+02 -0.19315E+05
 0.82153000E+02 -0.18948E+05
 0.82203003E+02 -0.18823E+05
 0.82252998E+02 -0.18881E+05
 0.82303001E+02 -0.19481E+05
 0.82353004E+02 -0.20059E+05
 0.82403000E+02 -0.19897E+05
 0.82453003E+02 -0.19452E+05
 0.82502998E+02 -0.19156E+05
 0.82553001E+02 -0.19683E+05
 0.82603004E+02 -0.20178E+05
 0.82653000E+02 -0.19590E+05
 0.82703003E+02 -0.18978E+05
 0.82752998E+02 -0.18991E+05
 0.82803001E+02 -0.19365E+05
 0.82853004E+02 -0.19471E+05
 0.82903000E+02 -0.19201E+05
 0.82953003E+02 -0.19156E+05
 0.83002998E+02 -0.19504E+05
 0.83053001E+02 -0.19680E+05
 0.83103004E+02 -0.19126E+05
 0.83153000E+02 -0.19208E+05
 0.83203003E+02 -0.19653E+05
 0.83252998E+02 -0.19013E+05
 0.83303001E+02 -0.18533E+05
 0.83353004E+02 -0.18803E+05
 0.83403000E+02 -0.19411E+05
 0.83453003E+02 -0.19615E+05
 0.83502998E+02 -0.19155E+05
 0.83553001E+02 -0.19040E+05
 0.83603004E+02 -0.18927E+05
 0.83653000E+02 -0.19037E+05
 0.83703003E+02 -0.19750E+05
 0.83752998E+02 -0.19635E+05
 0.83803001E+02 -0.19393E+05
 0.83853004E+02 -0.19204E+05
 0.83903000E+02 -0.19239E+05
 0.83953003E+02 -0.19205E+05
 0.84002998E+02 -0.19031E+05
 0.84053001E+02 -0.19479E+05
 0.84103004E+02 -0.19958E+05
 0.84153000E+02 -0.20319E+05
 0.84203003E+02 -0.19965E+05
 0.84252998E+02 -0.19106E+05
 0.84303001E+02 -0.18600E+05
 0.84353004E+02 -0.18928E+05
 0.84403000E+02 -0.19724E+05
 0.84453003E+02 -0.19911E+05
 0.84502998E+02 -0.19431E+05
 0.84553001E+02 -0.19232E+05
 0.84603004E+02 -0.19509E+05
 0.84653000E+02 -0.19706E+05
 0.84703003E+02 -0.19671E+05
 0.84752998E+02 -0.19433E+05
 0.84803001E+02 -0.19122E+05
 0.84853004E+02 -0.18737E+05
 0.84903000E+02 -0.18687E+05
 0.84953003E+02 -0.19308E+05
 0.85002998E+02 -0.19639E+05
 0.85053001E+02 -0.19164E+05
 0.85103004E+02 -0.18597E+05
 0.85153000E+02 -0.18611E+05
 0.85203003E+02 -0.18910E+05
 0.85252998E+02 -0.19335E+05
 0.85303001E+02 -0.19440E+05
 0.85353004E+02 -0.19008E+05
 0.85403000E+02 -0.19157E+05
 0.85453003E+02 -0.19979E+05
 0.85502998E+02 -0.20268E+05
 0.85553001E+02 -0.19684E+05
 0.85603004E+02 -0.19368E+05
 0.85653000E+02 -0.19210E+05
 0.85703003E+02 -0.19246E+05
 0.85752998E+02 -0.19295E+05
 0.85803001E+02 -0.18739E+05
 0.85853004E+02 -0.18953E+05
 0.85903000E+02 -0.19358E+05
 0.85953003E+02 -0.19880E+05
 0.86002998E+02 -0.19647E+05
 0.86053001E+02 -0.18868E+05
 0.86103004E+02 -0.19022E+05
 0.86153000E+02 -0.19303E+05
 0.86203003E+02 -0.19282E+05
 0.86252998E+02 -0.18448E+05
 0.86303001E+02 -0.18381E+05
 0.86353004E+02 -0.19057E+05
 0.86403000E+02 -0.19396E+05
 0.86453003E+02 -0.19500E+05
 0.86502998E+02 -0.18971E+05
 0.86553001E+02 -0.18385E+05
 0.86603004E+02 -0.18162E+05
 0.86653000E+02 -0.18908E+05
 0.86703003E+02 -0.20144E+05
 0.86752998E+02 -0.20229E+05
 0.86803001E+02 -0.19220E+05
 0.86853004E+02 -0.18711E+05
 0.86903000E+02 -0.19546E+05
 0.86953003E+02 -0.20155E+05
 0.87002998E+02 -0.19719E+05
 0.87053001E+02 -0.18860E+05
 0.87103004E+02 -0.18704E+05
 0.87153000E+02 -0.19166E+05
 0.87203003E+02 -0.19912E+05
 0.87252998E+02 -0.20260E+05
 0.87303001E+02 -0.19698E+05
 0.87353004E+02 -0.19052E+05
 0.87403000E+02 -0.18641E+05
 0.87453003E+02 -0.18680E+05
 0.87502998E+02 -0.18955E+05
 0.87553001E+02 -0.18946E+05
 0.87602997E+02 -0.18774E+05
 0.87653000E+02 -0.19066E+05
 0.87703003E+02 -0.19597E+05
 0.87752998E+02 -0.19891E+05
 0.87803001E+02 -0.19809E+05
 0.87852997E+02 -0.19529E+05
 0.87903000E+02 -0.19043E+05
 0.87953003E+02 -0.18664E+05
 0.88002998E+02 -0.18776E+05
 0.88053001E+02 -0.19023E+05
 0.88102997E+02 -0.19243E+05
 0.88153000E+02 -0.19446E+05
 0.88203003E+02 -0.19632E+05
 0.88252998E+02 -0.19700E+05
 0.88303001E+02 -0.19321E+05
 0.88352997E+02 -0.19052E+05
 0.88403000E+02 -0.18995E+05
 0.88453003E+02 -0.19195E+05
 0.88502998E+02 -0.19590E+05
 0.88553001E+02 -0.19541E+05
 0.88602997E+02 -0.19365E+05
 0.88653000E+02 -0.19204E+05
 0.88703003E+02 -0.18997E+05
 0.88752998E+02 -0.18908E+05
 0.88803001E+02 -0.18899E+05
 0.88852997E+02 -0.19105E+05
 0.88903000E+02 -0.19053E+05
 0.88953003E+02 -0.18951E+05
 0.89002998E+02 -0.19351E+05
 0.89053001E+02 -0.19847E+05
 0.89102997E+02 -0.19925E+05
 0.89153000E+02 -0.19480E+05
 0.89203003E+02 -0.19243E+05
 0.89252998E+02 -0.19066E+05
 0.89303001E+02 -0.19131E+05
 0.89352997E+02 -0.19478E+05
 0.89403000E+02 -0.19295E+05
 0.89453003E+02 -0.18884E+05
 0.89502998E+02 -0.19097E+05
 0.89553001E+02 -0.19671E+05
 0.89602997E+02 -0.19771E+05
 0.89653000E+02 -0.19372E+05
 0.89703003E+02 -0.19260E+05
 0.89752998E+02 -0.19519E+05
 0.89803001E+02 -0.19177E+05
 0.89852997E+02 -0.18570E+05
 0.89903000E+02 -0.18465E+05
 0.89953003E+02 -0.18841E+05
 0.90002998E+02 -0.19504E+05
 0.90053001E+02 -0.19640E+05
 0.90102997E+02 -0.19343E+05
 0.90153000E+02 -0.19120E+05
 0.90203003E+02 -0.19499E+05
 0.90252998E+02 -0.19686E+05
 0.90303001E+02 -0.19347E+05
 0.90352997E+02 -0.19445E+05
 0.90403000E+02 -0.19452E+05
 0.90453003E+02 -0.19409E+05
 0.90502998E+02 -0.19542E+05
 0.90553001E+02 -0.19533E+05
 0.90602997E+02 -0.19358E+05
 0.90653000E+02 -0.19509E+05
 0.90703003E+02 -0.19663E+05
 0.90752998E+02 -0.19445E+05
 0.90803001E+02 -0.19117E+05
 0.90852997E+02 -0.19090E+05
 0.90903000E+02 -0.19251E+05
 0.90953003E+02 -0.19340E+05
 0.91002998E+02 -0.19481E+05
 0.91053001E+02 -0.19251E+05
 0.91102997E+02 -0.19174E+05
 0.91153000E+02 -0.19440E+05
 0.91203003E+02 -0.19430E+05
 0.91252998E+02 -0.19157E+05
 0.91303001E+02 -0.18908E+05
 0.91352997E+02 -0.18780E+05
 0.91403000E+02 -0.18893E+05
 0.91453003E+02 -0.19228E+05
 0.91502998E+02 -0.19462E+05
 0.91553001E+02 -0.19443E+05
 0.91602997E+02 -0.19403E+05
 0.91653000E+02 -0.19404E+05
 0.91703003E+02 -0.19242E+05
 0.91752998E+02 -0.19194E+05
 0.91803001E+02 -0.19215E+05
 0.91852997E+02 -0.19198E+05
 0.91903000E+02 -0.18933E+05
 0.91953003E+02 -0.18658E+05
 0.92002998E+02 -0.18670E+05
 0.92053001E+02 -0.18628E+05
 0.92102997E+02 -0.18913E+05
 0.92153000E+02 -0.19478E+05
 0.92203003E+02 -0.19577E+05
 0.92252998E+02 -0.19220E+05
 0.92303001E+02 -0.18781E+05
 0.92352997E+02 -0.18888E+05
 0.92403000E+02 -0.19317E+05
 0.92453003E+02 -0.19592E+05
 0.92502998E+02 -0.20092E+05
 0.92553001E+02 -0.19996E+05
 0.92602997E+02 -0.19325E+05
 0.92653000E+02 -0.18628E+05
 0.92703003E+02 -0.18396E+05
 0.92752998E+02 -0.19005E+05
 0.92803001E+02 -0.19473E+05
 0.92852997E+02 -0.19348E+05
 0.92903000E+02 -0.18971E+05
 0.92953003E+02 -0.18985E+05
 0.93002998E+02 -0.19518E+05
 0.93053001E+02 -0.19936E+05
 0.93102997E+02 -0.19758E+05
 0.93153000E+02 -0.19178E+05
 0.93203003E+02 -0.18830E+05
 0.93252998E+02 -0.19166E+05
 0.93303001E+02 -0.19693E+05
 0.93352997E+02 -0.19956E+05
 0.93403000E+02 -0.19816E+05
 0.93453003E+02 -0.19612E+05
 0.93502998E+02 -0.19612E+05
 0.93553001E+02 -0.19394E+05
 0.93602997E+02 -0.19334E+05
 0.93653000E+02 -0.19691E+05
 0.93703003E+02 -0.19975E+05
 0.93752998E+02 -0.19761E+05
 0.93803001E+02 -0.19408E+05
 0.93852997E+02 -0.19315E+05
 0.93903000E+02 -0.19316E+05
 0.93953003E+02 -0.19564E+05
 0.94002998E+02 -0.19639E+05
 0.94053001E+02 -0.19238E+05
 0.94102997E+02 -0.18894E+05
 0.94153000E+02 -0.18921E+05
 0.94203003E+02 -0.19163E+05
 0.94252998E+02 -0.19314E+05
 0.94303001E+02 -0.19364E+05
 0.94352997E+02 -0.19518E+05
 0.94403000E+02 -0.19310E+05
 0.94453003E+02 -0.18778E+05
 0.94502998E+02 -0.18653E+05
 0.94553001E+02 -0.18938E+05
 0.94602997E+02 -0.19249E+05
 0.94653000E+02 -0.19496E+05
 0.94703003E+02 -0.19348E+05
 0.94752998E+02 -0.18910E+05
 0.94803001E+02 -0.19003E+05
 0.94852997E+02 -0.19148E+05
 0.94903000E+02 -0.19286E+05
 0.94953003E+02 -0.19166E+05
 0.95002998E+02 -0.18982E+05
 0.95053001E+02 -0.18897E+05
 0.95102997E+02 -0.18482E+05
 0.95153000E+02 -0.18476E+05
 0.95203003E+02 -0.18986E+05
 0.95252998E+02 -0.19380E+05
 0.95303001E+02 -0.19471E+05
 0.95352997E+02 -0.19285E+05
 0.95403000E+02 -0.18859E+05
 0.95453003E+02 -0.18635E+05
 0.95502998E+02 -0.18978E+05
 0.95553001E+02 -0.19461E+05
 0.95602997E+02 -0.19492E+05
 0.95653000E+02 -0.19114E+05
 0.95703003E+02 -0.19015E+05
 0.95752998E+02 -0.19434E+05
 0.95803001E+02 -0.19753E+05
 0.95852997E+02 -0.19797E+05
 0.95903000E+02 -0.19675E+05
 0.95953003E+02 -0.19555E+05
 0.96002998E+02 -0.19195E+05
 0.96053001E+02 -0.19104E+05
 0.96102997E+02 -0.19451E+05
 0.96153000E+02 -0.19613E+05
 0.96203003E+02 -0.19497E+05
 0.96252998E+02 -0.19443E+05
 0.96303001E+02 -0.19488E+05
 0.96352997E+02 -0.19378E+05
 0.96403000E+02 -0.19448E+05
 0.96453003E+02 -0.19248E+05
 0.96502998E+02 -0.19117E+05
 0.96553001E+02 -0.19446E+05
 0.96602997E+02 -0.19719E+05
 0.96653000E+02 -0.19409E+05
 0.96703003E+02 -0.18938E+05
 0.96752998E+02 -0.19118E+05
 0.96803001E+02 -0.19332E+05
 0.96852997E+02 -0.19345E+05
 0.96903000E+02 -0.19346E+05
 0.96953003E+02 -0.19560E+05
 0.97002998E+02 -0.19531E+05
 0.97053001E+02 -0.19359E+05
 0.97102997E+02 -0.19568E+05
 0.97153000E+02 -0.19780E+05
 0.97203003E+02 -0.19887E+05
 0.97252998E+02 -0.19522E+05
 0.97303001E+02 -0.18879E+05
 0.97352997E+02 -0.18678E+05
 0.97403000E+02 -0.18926E+05
 0.97453003E+02 -0.18971E+05
 0.97502998E+02 -0.18816E+05
 0.97553001E+02 -0.18794E+05
 0.97602997E+02 -0.18820E+05
 0.97653000E+02 -0.18920E+05
 0.97703003E+02 -0.19153E+05
 0.97752998E+02 -0.19265E+05
 0.97803001E+02 -0.19257E+05
 0.97852997E+02 -0.19122E+05
 0.97903000E+02 -0.19103E+05
 0.97953003E+02 -0.19185E+05
 0.98002998E+02 -0.19171E+05
