-0.20000000E+01 -0.57525E+04
-0.19500000E+01 -0.57296E+04
-0.19000000E+01 -0.57476E+04
-0.18500000E+01 -0.58057E+04
-0.18000000E+01 -0.58358E+04
-0.17500000E+01 -0.58881E+04
-0.17000000E+01 -0.58716E+04
-0.16500001E+01 -0.58617E+04
-0.16000000E+01 -0.58748E+04
-0.15500000E+01 -0.58620E+04
-0.15000000E+01 -0.58772E+04
-0.14500000E+01 -0.58593E+04
-0.14000001E+01 -0.58454E+04
-0.13500000E+01 -0.58291E+04
-0.13000001E+01 -0.58729E+04
-0.12500000E+01 -0.59127E+04
-0.12000000E+01 -0.59453E+04
-0.11500001E+01 -0.59204E+04
-0.11000000E+01 -0.58733E+04
-0.10500001E+01 -0.58270E+04
-0.10000000E+01 -0.57889E+04
-0.95000005E+00 -0.58075E+04
-0.90000010E+00 -0.57805E+04
-0.85000002E+00 -0.58120E+04
-0.80000007E+00 -0.58203E+04
-0.75000012E+00 -0.58436E+04
-0.70000005E+00 -0.58360E+04
-0.65000010E+00 -0.57980E+04
-0.60000014E+00 -0.58358E+04
-0.55000007E+00 -0.58524E+04
-0.50000012E+00 -0.58543E+04
-0.45000005E+00 -0.58549E+04
-0.40000010E+00 -0.59356E+04
-0.35000014E+00 -0.60019E+04
-0.30000007E+00 -0.60416E+04
-0.25000012E+00 -0.60516E+04
-0.20000005E+00 -0.60335E+04
-0.15000010E+00 -0.60103E+04
-0.10000014E+00 -0.59419E+04
-0.50000072E-01 -0.58794E+04
-0.11920929E-06 -0.58275E+04
 0.49999952E-01 -0.57776E+04
 0.99999905E-01 -0.57070E+04
 0.14999986E+00 -0.57097E+04
 0.19999981E+00 -0.57349E+04
 0.24999976E+00 -0.57154E+04
 0.29999995E+00 -0.57167E+04
 0.34999990E+00 -0.57056E+04
 0.39999986E+00 -0.57591E+04
 0.44999981E+00 -0.58402E+04
 0.49999976E+00 -0.58520E+04
 0.54999995E+00 -0.58828E+04
 0.59999990E+00 -0.59615E+04
 0.64999986E+00 -0.59944E+04
 0.69999981E+00 -0.59671E+04
 0.74999976E+00 -0.59342E+04
 0.79999971E+00 -0.59152E+04
 0.84999990E+00 -0.58846E+04
 0.89999986E+00 -0.58806E+04
 0.94999981E+00 -0.58876E+04
 0.99999976E+00 -0.58446E+04
 0.10499997E+01 -0.58307E+04
 0.10999999E+01 -0.58142E+04
 0.11499999E+01 -0.58341E+04
 0.11999998E+01 -0.58668E+04
 0.12499998E+01 -0.58336E+04
 0.12999997E+01 -0.58438E+04
 0.13499999E+01 -0.58567E+04
 0.13999999E+01 -0.58909E+04
 0.14499998E+01 -0.58927E+04
 0.14999998E+01 -0.58807E+04
 0.15499997E+01 -0.58895E+04
 0.15999999E+01 -0.58668E+04
 0.16499999E+01 -0.58855E+04
 0.16999998E+01 -0.58542E+04
 0.17499998E+01 -0.58019E+04
 0.17999997E+01 -0.57857E+04
 0.18499997E+01 -0.57655E+04
 0.18999999E+01 -0.57629E+04
 0.19499998E+01 -0.57684E+04
 0.19999998E+01 -0.57459E+04
 0.20499997E+01 -0.57449E+04
 0.20999999E+01 -0.57239E+04
 0.21499996E+01 -0.57126E+04
 0.21999998E+01 -0.57710E+04
 0.22499995E+01 -0.58493E+04
 0.22999997E+01 -0.59054E+04
 0.23499999E+01 -0.59338E+04
 0.23999996E+01 -0.59922E+04
 0.24499998E+01 -0.59928E+04
 0.24999995E+01 -0.60107E+04
 0.25499997E+01 -0.60423E+04
 0.25999999E+01 -0.60404E+04
 0.26499996E+01 -0.60475E+04
 0.26999998E+01 -0.59998E+04
 0.27499995E+01 -0.59811E+04
 0.27999997E+01 -0.59785E+04
 0.28499999E+01 -0.59261E+04
 0.28999996E+01 -0.59131E+04
 0.29499998E+01 -0.59066E+04
 0.29999995E+01 -0.58783E+04
 0.30499997E+01 -0.58782E+04
 0.30999999E+01 -0.58235E+04
 0.31499996E+01 -0.57956E+04
 0.31999998E+01 -0.57761E+04
 0.32499995E+01 -0.57383E+04
 0.32999997E+01 -0.57608E+04
 0.33499999E+01 -0.57199E+04
 0.33999996E+01 -0.57438E+04
 0.34499998E+01 -0.57848E+04
 0.34999995E+01 -0.57510E+04
 0.35499997E+01 -0.57514E+04
 0.35999994E+01 -0.57573E+04
 0.36499996E+01 -0.57451E+04
 0.36999998E+01 -0.57528E+04
 0.37499995E+01 -0.57194E+04
 0.37999997E+01 -0.57146E+04
 0.38499994E+01 -0.57375E+04
 0.38999996E+01 -0.57881E+04
 0.39499998E+01 -0.58591E+04
 0.39999995E+01 -0.58643E+04
 0.40499997E+01 -0.59375E+04
 0.40999994E+01 -0.59363E+04
 0.41499996E+01 -0.59552E+04
 0.41999998E+01 -0.59720E+04
 0.42499995E+01 -0.59291E+04
 0.42999997E+01 -0.59441E+04
 0.43499994E+01 -0.59579E+04
 0.43999996E+01 -0.59257E+04
 0.44499998E+01 -0.59754E+04
 0.44999995E+01 -0.59969E+04
 0.45499997E+01 -0.59650E+04
 0.45999994E+01 -0.59887E+04
 0.46499996E+01 -0.59921E+04
 0.46999998E+01 -0.60040E+04
 0.47499995E+01 -0.60137E+04
 0.47999997E+01 -0.60175E+04
 0.48499994E+01 -0.59521E+04
 0.48999996E+01 -0.59499E+04
 0.49499998E+01 -0.59348E+04
 0.49999995E+01 -0.58575E+04
 0.50499997E+01 -0.58221E+04
 0.50999994E+01 -0.57863E+04
 0.51499996E+01 -0.57567E+04
 0.51999998E+01 -0.57895E+04
 0.52499995E+01 -0.58064E+04
 0.52999997E+01 -0.58011E+04
 0.53499994E+01 -0.58207E+04
 0.53999996E+01 -0.58073E+04
 0.54499993E+01 -0.57901E+04
 0.54999995E+01 -0.57781E+04
 0.55499997E+01 -0.57972E+04
 0.55999994E+01 -0.57895E+04
 0.56499996E+01 -0.58060E+04
 0.56999993E+01 -0.58424E+04
 0.57499995E+01 -0.58091E+04
 0.57999997E+01 -0.58011E+04
 0.58499994E+01 -0.58476E+04
 0.58999996E+01 -0.58465E+04
 0.59499993E+01 -0.58183E+04
 0.59999995E+01 -0.57886E+04
 0.60499992E+01 -0.57685E+04
 0.60999994E+01 -0.57992E+04
 0.61499996E+01 -0.57963E+04
 0.61999998E+01 -0.58383E+04
 0.62499990E+01 -0.58989E+04
 0.62999992E+01 -0.58622E+04
 0.63499994E+01 -0.58371E+04
 0.63999996E+01 -0.58326E+04
 0.64499998E+01 -0.58574E+04
 0.64999990E+01 -0.58069E+04
 0.65499992E+01 -0.57746E+04
 0.65999994E+01 -0.58483E+04
 0.66499996E+01 -0.58263E+04
 0.66999998E+01 -0.58643E+04
 0.67499990E+01 -0.58798E+04
 0.67999992E+01 -0.58452E+04
 0.68499994E+01 -0.58628E+04
 0.68999996E+01 -0.58593E+04
 0.69499998E+01 -0.59268E+04
 0.69999990E+01 -0.59494E+04
 0.70499992E+01 -0.59065E+04
 0.70999994E+01 -0.58909E+04
 0.71499996E+01 -0.58300E+04
 0.71999998E+01 -0.57527E+04
 0.72499990E+01 -0.57234E+04
 0.72999992E+01 -0.57589E+04
 0.73499994E+01 -0.57186E+04
 0.73999996E+01 -0.56712E+04
 0.74499998E+01 -0.57538E+04
 0.74999990E+01 -0.57379E+04
 0.75499992E+01 -0.57662E+04
 0.75999994E+01 -0.58476E+04
 0.76499996E+01 -0.58770E+04
 0.76999998E+01 -0.59335E+04
 0.77499990E+01 -0.59625E+04
 0.77999992E+01 -0.59805E+04
 0.78499994E+01 -0.59706E+04
 0.78999996E+01 -0.59750E+04
 0.79499998E+01 -0.59612E+04
 0.79999990E+01 -0.59348E+04
 0.80499992E+01 -0.59662E+04
 0.80999994E+01 -0.59158E+04
 0.81499996E+01 -0.59018E+04
 0.81999998E+01 -0.59105E+04
 0.82499990E+01 -0.58819E+04
 0.82999992E+01 -0.59284E+04
 0.83499994E+01 -0.59672E+04
 0.83999996E+01 -0.59854E+04
 0.84499998E+01 -0.59907E+04
 0.84999990E+01 -0.60266E+04
 0.85499992E+01 -0.60148E+04
 0.85999994E+01 -0.59822E+04
 0.86499996E+01 -0.59921E+04
 0.86999998E+01 -0.59724E+04
 0.87499990E+01 -0.59279E+04
 0.87999992E+01 -0.59102E+04
 0.88499994E+01 -0.59031E+04
 0.88999996E+01 -0.58624E+04
 0.89499998E+01 -0.58310E+04
 0.89999990E+01 -0.58067E+04
 0.90499992E+01 -0.58089E+04
 0.90999994E+01 -0.58005E+04
 0.91499996E+01 -0.58097E+04
 0.91999989E+01 -0.58208E+04
 0.92499990E+01 -0.58234E+04
 0.92999992E+01 -0.58313E+04
 0.93499994E+01 -0.58290E+04
 0.93999996E+01 -0.58726E+04
 0.94499989E+01 -0.58896E+04
 0.94999990E+01 -0.58621E+04
 0.95499992E+01 -0.58615E+04
 0.95999994E+01 -0.58633E+04
 0.96499996E+01 -0.57904E+04
 0.96999989E+01 -0.58052E+04
 0.97499990E+01 -0.58298E+04
 0.97999992E+01 -0.58109E+04
 0.98499994E+01 -0.58640E+04
 0.98999996E+01 -0.58606E+04
 0.99499989E+01 -0.58527E+04
 0.99999990E+01 -0.58797E+04
 0.10049999E+02 -0.58726E+04
 0.10099999E+02 -0.58678E+04
 0.10150000E+02 -0.58680E+04
 0.10199999E+02 -0.58422E+04
 0.10249999E+02 -0.58030E+04
 0.10299999E+02 -0.57717E+04
 0.10349999E+02 -0.57521E+04
 0.10400000E+02 -0.57217E+04
 0.10449999E+02 -0.56764E+04
 0.10499999E+02 -0.56357E+04
 0.10549999E+02 -0.55946E+04
 0.10599999E+02 -0.56085E+04
 0.10650000E+02 -0.56398E+04
 0.10699999E+02 -0.56163E+04
 0.10749999E+02 -0.56380E+04
 0.10799999E+02 -0.56896E+04
 0.10849999E+02 -0.57137E+04
 0.10900000E+02 -0.57910E+04
 0.10949999E+02 -0.58441E+04
 0.10999999E+02 -0.58570E+04
 0.11049999E+02 -0.58999E+04
 0.11099999E+02 -0.59288E+04
 0.11150000E+02 -0.59279E+04
 0.11199999E+02 -0.60067E+04
 0.11249999E+02 -0.60642E+04
 0.11299999E+02 -0.60766E+04
 0.11349999E+02 -0.61227E+04
 0.11400000E+02 -0.61232E+04
 0.11449999E+02 -0.61597E+04
 0.11499999E+02 -0.61659E+04
 0.11549999E+02 -0.61390E+04
 0.11599999E+02 -0.61168E+04
 0.11650000E+02 -0.60582E+04
 0.11699999E+02 -0.60441E+04
 0.11749999E+02 -0.60105E+04
 0.11799999E+02 -0.59487E+04
 0.11849999E+02 -0.59334E+04
 0.11900000E+02 -0.58931E+04
 0.11949999E+02 -0.58569E+04
 0.11999999E+02 -0.58498E+04
 0.12049999E+02 -0.57967E+04
 0.12099999E+02 -0.57865E+04
 0.12150000E+02 -0.57735E+04
 0.12199999E+02 -0.57190E+04
 0.12249999E+02 -0.57133E+04
 0.12299999E+02 -0.56656E+04
 0.12349999E+02 -0.56421E+04
 0.12400000E+02 -0.56873E+04
 0.12449999E+02 -0.56886E+04
 0.12499999E+02 -0.56653E+04
 0.12549999E+02 -0.57140E+04
 0.12599999E+02 -0.57189E+04
 0.12649999E+02 -0.57427E+04
 0.12699999E+02 -0.57922E+04
 0.12749999E+02 -0.57921E+04
 0.12799999E+02 -0.58205E+04
 0.12849999E+02 -0.58345E+04
 0.12899999E+02 -0.58609E+04
 0.12949999E+02 -0.58505E+04
 0.12999999E+02 -0.58511E+04
 0.13049999E+02 -0.58528E+04
 0.13099999E+02 -0.58386E+04
 0.13149999E+02 -0.58514E+04
 0.13199999E+02 -0.58526E+04
 0.13249999E+02 -0.58892E+04
 0.13299999E+02 -0.58997E+04
 0.13349999E+02 -0.59191E+04
 0.13399999E+02 -0.59419E+04
 0.13449999E+02 -0.59530E+04
 0.13499999E+02 -0.59281E+04
 0.13549999E+02 -0.59032E+04
 0.13599999E+02 -0.59089E+04
 0.13649999E+02 -0.59102E+04
 0.13699999E+02 -0.58900E+04
 0.13749999E+02 -0.59114E+04
 0.13799999E+02 -0.59870E+04
 0.13849999E+02 -0.59970E+04
 0.13899999E+02 -0.60722E+04
 0.13949999E+02 -0.60498E+04
 0.13999999E+02 -0.60276E+04
 0.14049999E+02 -0.60208E+04
 0.14099998E+02 -0.59547E+04
 0.14150000E+02 -0.59674E+04
 0.14199999E+02 -0.59185E+04
 0.14249998E+02 -0.58899E+04
 0.14299999E+02 -0.58333E+04
 0.14349998E+02 -0.57619E+04
 0.14400000E+02 -0.57339E+04
 0.14449999E+02 -0.57029E+04
 0.14499998E+02 -0.56761E+04
 0.14549999E+02 -0.56267E+04
 0.14599998E+02 -0.56179E+04
 0.14650000E+02 -0.56920E+04
 0.14699999E+02 -0.57428E+04
 0.14749998E+02 -0.57591E+04
 0.14799999E+02 -0.57744E+04
 0.14849998E+02 -0.57809E+04
 0.14900000E+02 -0.58444E+04
 0.14949999E+02 -0.58832E+04
 0.14999998E+02 -0.58555E+04
 0.15049999E+02 -0.58625E+04
 0.15099998E+02 -0.58838E+04
 0.15150000E+02 -0.58875E+04
 0.15199999E+02 -0.59416E+04
 0.15249998E+02 -0.59338E+04
 0.15299999E+02 -0.58958E+04
 0.15349998E+02 -0.59476E+04
 0.15400000E+02 -0.59593E+04
 0.15449999E+02 -0.59932E+04
 0.15499998E+02 -0.59961E+04
 0.15549999E+02 -0.59298E+04
 0.15599998E+02 -0.59389E+04
 0.15650000E+02 -0.59583E+04
 0.15699999E+02 -0.59307E+04
 0.15749998E+02 -0.58851E+04
 0.15799999E+02 -0.58783E+04
 0.15849998E+02 -0.58075E+04
 0.15900000E+02 -0.57718E+04
 0.15949999E+02 -0.57671E+04
 0.15999998E+02 -0.56937E+04
 0.16049999E+02 -0.57161E+04
 0.16099998E+02 -0.57370E+04
 0.16150000E+02 -0.57142E+04
 0.16199999E+02 -0.57390E+04
 0.16249998E+02 -0.57018E+04
 0.16299999E+02 -0.56653E+04
 0.16349998E+02 -0.56872E+04
 0.16400000E+02 -0.56934E+04
 0.16449999E+02 -0.57311E+04
 0.16499998E+02 -0.57667E+04
 0.16549999E+02 -0.57951E+04
 0.16599998E+02 -0.58193E+04
 0.16650000E+02 -0.58621E+04
 0.16699999E+02 -0.59131E+04
 0.16749998E+02 -0.59197E+04
 0.16799999E+02 -0.59355E+04
 0.16849998E+02 -0.59619E+04
 0.16900000E+02 -0.59498E+04
 0.16949999E+02 -0.59878E+04
 0.16999998E+02 -0.59894E+04
 0.17049999E+02 -0.59147E+04
 0.17099998E+02 -0.59181E+04
 0.17150000E+02 -0.59425E+04
 0.17199999E+02 -0.59140E+04
 0.17249998E+02 -0.58742E+04
 0.17299999E+02 -0.59223E+04
 0.17349998E+02 -0.59122E+04
 0.17400000E+02 -0.58782E+04
 0.17449999E+02 -0.58893E+04
 0.17499998E+02 -0.58969E+04
 0.17549999E+02 -0.58590E+04
 0.17599998E+02 -0.58068E+04
 0.17650000E+02 -0.58604E+04
 0.17699999E+02 -0.58725E+04
 0.17749998E+02 -0.58818E+04
 0.17799999E+02 -0.59405E+04
 0.17849998E+02 -0.59547E+04
 0.17900000E+02 -0.59824E+04
 0.17949999E+02 -0.60271E+04
 0.17999998E+02 -0.60481E+04
 0.18049999E+02 -0.59963E+04
 0.18099998E+02 -0.59845E+04
 0.18150000E+02 -0.60612E+04
 0.18199999E+02 -0.59897E+04
 0.18249998E+02 -0.59180E+04
 0.18299999E+02 -0.59573E+04
 0.18349998E+02 -0.59720E+04
 0.18400000E+02 -0.59111E+04
 0.18449999E+02 -0.58850E+04
 0.18499998E+02 -0.59656E+04
 0.18549999E+02 -0.59539E+04
 0.18599998E+02 -0.58453E+04
 0.18650000E+02 -0.58613E+04
 0.18699999E+02 -0.58880E+04
 0.18749998E+02 -0.58615E+04
 0.18799999E+02 -0.58155E+04
 0.18849998E+02 -0.57953E+04
 0.18900000E+02 -0.58078E+04
 0.18949999E+02 -0.57302E+04
 0.18999998E+02 -0.57161E+04
 0.19049999E+02 -0.56921E+04
 0.19099998E+02 -0.56320E+04
 0.19150000E+02 -0.56482E+04
 0.19199999E+02 -0.56478E+04
 0.19249998E+02 -0.56848E+04
 0.19299999E+02 -0.57040E+04
 0.19349998E+02 -0.57463E+04
 0.19400000E+02 -0.57857E+04
 0.19449999E+02 -0.57347E+04
 0.19499998E+02 -0.57860E+04
 0.19549999E+02 -0.58233E+04
 0.19599998E+02 -0.57605E+04
 0.19650000E+02 -0.57216E+04
 0.19699999E+02 -0.57568E+04
 0.19749998E+02 -0.57987E+04
 0.19799999E+02 -0.57494E+04
 0.19849998E+02 -0.57537E+04
 0.19900000E+02 -0.58196E+04
 0.19949999E+02 -0.57980E+04
 0.19999998E+02 -0.57708E+04
 0.20049999E+02 -0.57994E+04
 0.20099998E+02 -0.58201E+04
 0.20150000E+02 -0.58189E+04
 0.20199999E+02 -0.58580E+04
 0.20249998E+02 -0.59424E+04
 0.20299999E+02 -0.59544E+04
 0.20349998E+02 -0.59351E+04
 0.20399998E+02 -0.59388E+04
 0.20449999E+02 -0.59309E+04
 0.20499998E+02 -0.59250E+04
 0.20549999E+02 -0.59074E+04
 0.20599998E+02 -0.59382E+04
 0.20649998E+02 -0.58997E+04
 0.20699999E+02 -0.58663E+04
 0.20749998E+02 -0.59375E+04
 0.20799999E+02 -0.59678E+04
 0.20849998E+02 -0.59461E+04
 0.20899998E+02 -0.59741E+04
 0.20949999E+02 -0.59841E+04
 0.20999998E+02 -0.59579E+04
 0.21049999E+02 -0.59287E+04
 0.21099998E+02 -0.58790E+04
 0.21149998E+02 -0.58664E+04
 0.21199999E+02 -0.58162E+04
 0.21249998E+02 -0.57849E+04
 0.21299999E+02 -0.58104E+04
 0.21349998E+02 -0.57958E+04
 0.21399998E+02 -0.57861E+04
 0.21449999E+02 -0.58101E+04
 0.21499998E+02 -0.58461E+04
 0.21549999E+02 -0.58424E+04
 0.21599998E+02 -0.58464E+04
 0.21649998E+02 -0.58954E+04
 0.21699999E+02 -0.59109E+04
 0.21749998E+02 -0.59417E+04
 0.21799999E+02 -0.59534E+04
 0.21849998E+02 -0.59638E+04
 0.21899998E+02 -0.59410E+04
 0.21949999E+02 -0.59079E+04
 0.21999998E+02 -0.58900E+04
 0.22049999E+02 -0.58383E+04
 0.22099998E+02 -0.58384E+04
 0.22149998E+02 -0.58557E+04
 0.22199999E+02 -0.58097E+04
 0.22249998E+02 -0.58105E+04
 0.22299999E+02 -0.58388E+04
 0.22349998E+02 -0.58332E+04
 0.22399998E+02 -0.58642E+04
 0.22449999E+02 -0.58441E+04
 0.22499998E+02 -0.58438E+04
 0.22549999E+02 -0.58230E+04
 0.22599998E+02 -0.57992E+04
 0.22649998E+02 -0.58719E+04
 0.22699999E+02 -0.60227E+04
 0.22749998E+02 -0.61344E+04
 0.22799999E+02 -0.61060E+04
 0.22849998E+02 -0.58741E+04
 0.22899998E+02 -0.56376E+04
 0.22949999E+02 -0.56029E+04
 0.22999998E+02 -0.57276E+04
 0.23049999E+02 -0.58249E+04
 0.23099998E+02 -0.56068E+04
 0.23149998E+02 -0.53496E+04
 0.23199999E+02 -0.51806E+04
 0.23249998E+02 -0.53127E+04
 0.23299999E+02 -0.55118E+04
 0.23349998E+02 -0.58827E+04
 0.23399998E+02 -0.64124E+04
 0.23449999E+02 -0.64420E+04
 0.23499998E+02 -0.64970E+04
 0.23549999E+02 -0.61943E+04
 0.23599998E+02 -0.56598E+04
 0.23649998E+02 -0.58151E+04
 0.23699999E+02 -0.58448E+04
 0.23749998E+02 -0.66273E+04
 0.23799999E+02 -0.69028E+04
 0.23849998E+02 -0.49213E+04
 0.23899998E+02 -0.38264E+04
 0.23949999E+02 -0.49765E+04
 0.23999998E+02 -0.73495E+04
 0.24049999E+02 -0.73044E+04
 0.24099998E+02 -0.50120E+04
 0.24149998E+02 -0.50639E+04
 0.24199999E+02 -0.61461E+04
 0.24249998E+02 -0.64526E+04
 0.24299999E+02 -0.70935E+04
 0.24349998E+02 -0.53961E+04
 0.24399998E+02 -0.50471E+04
 0.24449999E+02 -0.77914E+04
 0.24499998E+02 -0.68038E+04
 0.24549999E+02 -0.54799E+04
 0.24599998E+02 -0.57091E+04
 0.24649998E+02 -0.42747E+04
 0.24699999E+02 -0.43910E+04
 0.24749998E+02 -0.93379E+04
 0.24799999E+02 -0.72096E+04
 0.24849998E+02 -0.39020E+04
 0.24899998E+02 -0.47152E+04
 0.24949999E+02 -0.37207E+04
 0.24999998E+02 -0.76436E+04
 0.25049999E+02 -0.81046E+04
 0.25099998E+02 -0.64409E+04
 0.25149998E+02 -0.40365E+04
 0.25199999E+02 -0.14015E+04
 0.25249998E+02 -0.42648E+04
 0.25299999E+02 -0.90426E+04
 0.25349998E+02 -0.84738E+04
 0.25399998E+02 -0.44352E+04
 0.25449999E+02 -0.37586E+04
 0.25499998E+02 -0.51464E+04
 0.25549999E+02 -0.68659E+04
 0.25599998E+02 -0.87113E+04
 0.25649998E+02 -0.61622E+04
 0.25699999E+02 -0.35711E+04
 0.25749998E+02 -0.70107E+04
 0.25799999E+02 -0.70497E+04
 0.25849998E+02 -0.60044E+04
 0.25899998E+02 -0.30306E+04
 0.25949999E+02 -0.41912E+04
 0.25999998E+02 -0.76804E+04
 0.26049999E+02 -0.64351E+04
 0.26099998E+02 -0.58291E+04
 0.26149998E+02 -0.34069E+04
 0.26199999E+02 -0.43505E+04
 0.26249998E+02 -0.76606E+04
 0.26299999E+02 -0.61905E+04
 0.26349998E+02 -0.63667E+04
 0.26399998E+02 -0.73901E+04
 0.26449999E+02 -0.60080E+04
 0.26499998E+02 -0.55344E+04
 0.26549999E+02 -0.68316E+04
 0.26599998E+02 -0.91690E+04
 0.26649998E+02 -0.78403E+04
 0.26699999E+02 -0.45309E+04
 0.26749998E+02 -0.32243E+04
 0.26799999E+02 -0.48454E+04
 0.26849998E+02 -0.18707E+04
 0.26899998E+02 -0.41047E+04
 0.26949999E+02 -0.82857E+04
 0.26999998E+02 -0.55446E+04
 0.27049997E+02 -0.71318E+04
 0.27099998E+02 -0.69102E+04
 0.27149998E+02 -0.50671E+04
 0.27199999E+02 -0.73457E+04
 0.27249998E+02 -0.82330E+04
 0.27299997E+02 -0.61600E+04
 0.27349998E+02 -0.51774E+04
 0.27399998E+02 -0.38808E+04
 0.27449999E+02 -0.53957E+04
 0.27499998E+02 -0.61833E+04
 0.27549997E+02 -0.86473E+04
 0.27599998E+02 -0.80471E+04
 0.27649998E+02 -0.26888E+04
 0.27699999E+02 -0.62528E+04
 0.27749998E+02 -0.60359E+04
 0.27799997E+02 -0.36627E+04
 0.27849998E+02 -0.70574E+04
 0.27899998E+02 -0.62151E+04
 0.27949999E+02 -0.59666E+04
 0.27999998E+02 -0.69588E+04
 0.28049997E+02 -0.22403E+04
 0.28099998E+02 -0.92547E+02
 0.28149998E+02 -0.33329E+04
 0.28199999E+02 -0.42103E+04
 0.28249998E+02 -0.80906E+04
 0.28299997E+02 -0.10923E+05
 0.28349998E+02 -0.32688E+04
 0.28399998E+02 -0.59937E+04
 0.28449999E+02 -0.87387E+04
 0.28499998E+02 -0.74702E+04
 0.28549997E+02 -0.87267E+04
 0.28599998E+02 -0.34407E+04
 0.28649998E+02 -0.45900E+04
 0.28699999E+02 -0.78968E+04
 0.28749998E+02 -0.86135E+04
 0.28799997E+02 -0.32703E+04
 0.28849998E+02  0.50691E+02
 0.28899998E+02 -0.60820E+04
 0.28949999E+02 -0.73656E+04
 0.28999998E+02 -0.84230E+04
 0.29049997E+02 -0.11478E+05
 0.29099998E+02 -0.65000E+04
 0.29149998E+02 -0.53653E+04
 0.29199999E+02 -0.51407E+04
 0.29249998E+02 -0.49091E+04
 0.29299997E+02 -0.89870E+04
 0.29349998E+02 -0.72568E+04
 0.29399998E+02 -0.90478E+04
 0.29449999E+02 -0.17794E+04
 0.29499998E+02  0.38994E+04
 0.29549997E+02 -0.61771E+04
 0.29599998E+02 -0.91298E+04
 0.29649998E+02 -0.59385E+04
 0.29699999E+02 -0.32426E+04
 0.29749998E+02 -0.58870E+04
 0.29799997E+02 -0.11529E+05
 0.29849998E+02 -0.79030E+04
 0.29899998E+02 -0.19041E+04
 0.29949999E+02 -0.17185E+04
 0.29999998E+02 -0.93663E+03
 0.30049999E+02 -0.47679E+04
 0.30099998E+02 -0.86855E+04
 0.30149998E+02 -0.88442E+04
 0.30199997E+02 -0.94371E+04
 0.30249996E+02 -0.79408E+04
 0.30299999E+02 -0.74146E+04
 0.30349998E+02 -0.41226E+04
 0.30399998E+02 -0.52312E+04
 0.30449997E+02 -0.85176E+04
 0.30499996E+02 -0.52302E+04
 0.30549999E+02 -0.47669E+04
 0.30599998E+02 -0.47189E+04
 0.30649998E+02 -0.36343E+04
 0.30699997E+02 -0.60333E+04
 0.30749996E+02 -0.70585E+04
 0.30799999E+02 -0.46814E+04
 0.30849998E+02 -0.53417E+04
 0.30899998E+02 -0.92905E+04
 0.30949997E+02 -0.66211E+04
 0.30999996E+02 -0.55910E+04
 0.31049999E+02 -0.92050E+04
 0.31099998E+02 -0.77487E+04
 0.31149998E+02 -0.70974E+04
 0.31199997E+02 -0.56434E+04
 0.31249996E+02 -0.38940E+04
 0.31299999E+02 -0.69954E+04
 0.31349998E+02 -0.80481E+04
 0.31399998E+02 -0.62128E+04
 0.31449997E+02 -0.55280E+04
 0.31499996E+02 -0.29369E+04
 0.31549999E+02 -0.28864E+04
 0.31599998E+02 -0.49602E+04
 0.31649998E+02 -0.39989E+04
 0.31699997E+02 -0.42087E+04
 0.31749996E+02 -0.68013E+04
 0.31799999E+02 -0.75577E+04
 0.31849998E+02 -0.41223E+04
 0.31899998E+02 -0.35351E+04
 0.31949997E+02 -0.52371E+04
 0.31999996E+02 -0.73591E+04
 0.32049999E+02 -0.78577E+04
 0.32099998E+02 -0.65454E+04
 0.32149998E+02 -0.82323E+04
 0.32199997E+02 -0.81982E+04
 0.32249996E+02 -0.46186E+04
 0.32299999E+02 -0.11571E+04
 0.32349998E+02 -0.39248E+04
 0.32399998E+02 -0.81871E+04
 0.32449997E+02 -0.69565E+04
 0.32499996E+02 -0.50394E+04
 0.32549999E+02 -0.60935E+04
 0.32599998E+02 -0.72354E+04
 0.32649998E+02 -0.38844E+04
 0.32699997E+02 -0.43916E+04
 0.32749996E+02 -0.64172E+04
 0.32799999E+02 -0.41647E+04
 0.32849998E+02 -0.84101E+04
 0.32899998E+02 -0.54864E+04
 0.32949997E+02  0.15366E+04
 0.32999996E+02 -0.31564E+04
 0.33049999E+02 -0.60945E+04
 0.33099998E+02 -0.63394E+04
 0.33149998E+02 -0.95244E+04
 0.33199997E+02 -0.74368E+04
 0.33249996E+02 -0.33610E+04
 0.33299999E+02 -0.52475E+04
 0.33349998E+02 -0.87468E+04
 0.33399998E+02 -0.87459E+04
 0.33449997E+02 -0.81166E+04
 0.33499996E+02 -0.12296E+05
 0.33549999E+02 -0.82526E+04
 0.33599998E+02 -0.18055E+04
 0.33649998E+02 -0.34713E+04
 0.33699997E+02 -0.61865E+04
 0.33749996E+02 -0.88903E+04
 0.33799999E+02 -0.52462E+04
 0.33849998E+02 -0.19884E+04
 0.33899998E+02 -0.64188E+04
 0.33949997E+02 -0.82489E+04
 0.33999996E+02 -0.74126E+04
 0.34049999E+02 -0.85331E+04
 0.34099998E+02 -0.73907E+04
 0.34149998E+02 -0.46331E+04
 0.34199997E+02 -0.52437E+04
 0.34249996E+02 -0.66676E+03
 0.34299999E+02 -0.23849E+03
 0.34349998E+02 -0.71435E+04
 0.34399998E+02 -0.63303E+04
 0.34449997E+02 -0.73559E+04
 0.34499996E+02 -0.27764E+04
 0.34549999E+02 -0.10096E+04
 0.34599998E+02 -0.68300E+04
 0.34649998E+02 -0.39735E+04
 0.34699997E+02 -0.44924E+04
 0.34749996E+02 -0.96633E+04
 0.34799999E+02 -0.99931E+04
 0.34849998E+02 -0.75309E+04
 0.34899998E+02 -0.55638E+04
 0.34949997E+02 -0.18637E+04
 0.34999996E+02  0.36432E+03
 0.35049999E+02 -0.36625E+04
 0.35099998E+02 -0.84425E+04
 0.35149998E+02 -0.99839E+04
 0.35199997E+02 -0.81439E+04
 0.35249996E+02 -0.62754E+04
 0.35299999E+02 -0.52580E+04
 0.35349998E+02 -0.32096E+04
 0.35399998E+02 -0.76249E+04
 0.35449997E+02 -0.11309E+05
 0.35499996E+02 -0.74654E+04
 0.35549999E+02 -0.49327E+04
 0.35599998E+02 -0.44737E+04
 0.35649998E+02 -0.35687E+04
 0.35699997E+02 -0.40979E+04
 0.35749996E+02 -0.34657E+04
 0.35799999E+02 -0.34149E+04
 0.35849998E+02 -0.55949E+04
 0.35899998E+02 -0.39023E+04
 0.35949997E+02 -0.66932E+04
 0.35999996E+02 -0.91476E+04
 0.36049999E+02 -0.90503E+04
 0.36099998E+02 -0.84216E+04
 0.36149998E+02 -0.30846E+04
 0.36199997E+02 -0.55911E+04
 0.36249996E+02 -0.89132E+04
 0.36299999E+02 -0.54339E+04
 0.36349998E+02 -0.22566E+04
 0.36399998E+02 -0.11709E+04
 0.36449997E+02 -0.30419E+04
 0.36499996E+02 -0.55062E+04
 0.36549999E+02 -0.68532E+04
 0.36599998E+02 -0.58449E+04
 0.36649998E+02 -0.78826E+04
 0.36699997E+02 -0.10155E+05
 0.36749996E+02 -0.76713E+04
 0.36799999E+02 -0.49449E+04
 0.36849998E+02  0.82772E+03
 0.36899998E+02  0.22308E+04
 0.36949997E+02  0.11707E+04
 0.36999996E+02 -0.84996E+03
 0.37049999E+02 -0.56831E+04
 0.37099998E+02 -0.34873E+04
 0.37149998E+02 -0.30398E+04
 0.37199997E+02 -0.10040E+05
 0.37249996E+02 -0.14828E+05
 0.37299999E+02 -0.16022E+05
 0.37349998E+02 -0.17428E+05
 0.37399998E+02 -0.14859E+05
 0.37449997E+02 -0.95960E+04
 0.37499996E+02 -0.31696E+04
 0.37549999E+02  0.32934E+04
 0.37599998E+02  0.12091E+04
 0.37649998E+02 -0.20770E+04
 0.37699997E+02 -0.53102E+04
 0.37749996E+02 -0.10121E+05
 0.37799999E+02 -0.11504E+05
 0.37849998E+02 -0.14248E+05
 0.37899998E+02 -0.15162E+05
 0.37949997E+02 -0.11282E+05
 0.37999996E+02 -0.39981E+04
 0.38049999E+02  0.49806E+04
 0.38099998E+02  0.10512E+05
 0.38149998E+02  0.85419E+04
 0.38199997E+02  0.36289E+04
 0.38249996E+02 -0.29368E+04
 0.38299999E+02 -0.13568E+05
 0.38349998E+02 -0.21202E+05
 0.38399998E+02 -0.20146E+05
 0.38449997E+02 -0.14484E+05
 0.38499996E+02 -0.10810E+05
 0.38549999E+02 -0.13076E+05
 0.38599998E+02 -0.17437E+05
 0.38649998E+02 -0.17950E+05
 0.38699997E+02 -0.13811E+05
 0.38749996E+02 -0.78536E+04
 0.38799999E+02 -0.79131E+04
 0.38849998E+02 -0.93188E+04
 0.38899998E+02 -0.58286E+04
 0.38949997E+02  0.27207E+04
 0.38999996E+02  0.15954E+05
 0.39049999E+02  0.25888E+05
 0.39099998E+02  0.19600E+05
 0.39149998E+02  0.11014E+05
 0.39199997E+02  0.10727E+05
 0.39249996E+02 -0.12462E+04
 0.39299999E+02 -0.15499E+05
 0.39349998E+02 -0.27292E+05
 0.39399998E+02 -0.32577E+05
 0.39449997E+02 -0.19575E+05
 0.39499996E+02 -0.77709E+04
 0.39549999E+02 -0.59505E+04
 0.39599998E+02 -0.34764E+03
 0.39649998E+02  0.10073E+05
 0.39699997E+02  0.12927E+05
 0.39749996E+02 -0.22972E+04
 0.39799999E+02 -0.20157E+05
 0.39849998E+02 -0.22746E+05
 0.39899998E+02 -0.19677E+05
 0.39949997E+02 -0.63596E+04
 0.39999996E+02  0.87737E+04
 0.40049999E+02  0.11708E+05
 0.40099998E+02  0.17563E+05
 0.40149998E+02  0.25106E+05
 0.40199997E+02  0.14718E+05
 0.40249996E+02 -0.88393E+04
 0.40299999E+02 -0.28266E+05
 0.40349998E+02 -0.40445E+05
 0.40399998E+02 -0.45306E+05
 0.40449997E+02 -0.31924E+05
 0.40499996E+02 -0.90929E+04
 0.40549999E+02  0.97785E+03
 0.40599998E+02  0.92865E+04
 0.40649998E+02  0.15200E+05
 0.40699997E+02 -0.32793E+04
 0.40749996E+02 -0.17815E+05
 0.40799999E+02 -0.36386E+04
 0.40849998E+02  0.38046E+04
 0.40899998E+02 -0.18204E+05
 0.40949997E+02 -0.34481E+05
 0.40999996E+02 -0.18684E+05
 0.41049999E+02 -0.12103E+05
 0.41099998E+02 -0.18257E+05
 0.41149998E+02 -0.90761E+04
 0.41199997E+02  0.11230E+04
 0.41249996E+02  0.97372E+04
 0.41299999E+02  0.19875E+05
 0.41349998E+02  0.80149E+04
 0.41399998E+02 -0.10578E+05
 0.41449997E+02 -0.12550E+03
 0.41499996E+02  0.32414E+04
 0.41549999E+02 -0.14468E+05
 0.41599998E+02 -0.19995E+05
 0.41649998E+02 -0.24109E+05
 0.41699997E+02 -0.23551E+05
 0.41749996E+02 -0.13375E+05
 0.41799999E+02 -0.10621E+05
 0.41849998E+02  0.65124E+04
 0.41899998E+02  0.25364E+05
 0.41949997E+02  0.12327E+05
 0.41999996E+02 -0.47404E+04
 0.42049999E+02 -0.36783E+04
 0.42099998E+02  0.15441E+03
 0.42149998E+02  0.29803E+04
 0.42199997E+02  0.19925E+03
 0.42249996E+02 -0.44469E+04
 0.42299999E+02 -0.38698E+04
 0.42349998E+02 -0.73162E+04
 0.42399998E+02 -0.67921E+04
 0.42449997E+02 -0.39741E+04
 0.42499996E+02 -0.75950E+04
 0.42549999E+02 -0.96777E+04
 0.42599998E+02 -0.76288E+04
 0.42649998E+02 -0.67977E+04
 0.42699997E+02 -0.12505E+05
 0.42749996E+02 -0.20013E+05
 0.42799995E+02 -0.17105E+05
 0.42849998E+02 -0.49812E+04
 0.42899998E+02  0.25883E+02
 0.42949997E+02 -0.53839E+04
 0.42999996E+02 -0.21890E+04
 0.43049995E+02  0.23242E+04
 0.43099998E+02 -0.79578E+04
 0.43149998E+02 -0.19182E+05
 0.43199997E+02 -0.24809E+05
 0.43249996E+02 -0.18644E+05
 0.43299995E+02 -0.38710E+04
 0.43349998E+02  0.19320E+04
 0.43399998E+02  0.20036E+02
 0.43449997E+02 -0.48104E+04
 0.43499996E+02 -0.17274E+03
 0.43549995E+02  0.80282E+04
 0.43599998E+02  0.34786E+04
 0.43649998E+02 -0.16605E+03
 0.43699997E+02  0.10205E+04
 0.43749996E+02 -0.63204E+04
 0.43799995E+02 -0.13390E+05
 0.43849998E+02 -0.96549E+04
 0.43899998E+02 -0.44978E+04
 0.43949997E+02 -0.18394E+04
 0.43999996E+02  0.31783E+04
 0.44049995E+02  0.82809E+04
 0.44099998E+02 -0.24480E+04
 0.44149998E+02 -0.17506E+05
 0.44199997E+02 -0.20590E+05
 0.44249996E+02 -0.24149E+05
 0.44299995E+02 -0.27539E+05
 0.44349998E+02 -0.20630E+05
 0.44399998E+02 -0.80799E+04
 0.44449997E+02  0.35840E+04
 0.44499996E+02  0.10963E+05
 0.44549995E+02  0.56586E+04
 0.44599998E+02 -0.10762E+04
 0.44649998E+02 -0.63669E+04
 0.44699997E+02 -0.13347E+05
 0.44749996E+02 -0.11598E+05
 0.44799995E+02 -0.12430E+05
 0.44849998E+02 -0.79431E+04
 0.44899998E+02  0.14891E+03
 0.44949997E+02  0.49349E+04
 0.44999996E+02  0.98208E+04
 0.45049995E+02 -0.15462E+04
 0.45099998E+02 -0.15720E+05
 0.45149998E+02 -0.17988E+05
 0.45199997E+02 -0.19734E+05
 0.45249996E+02 -0.17892E+05
 0.45299995E+02 -0.10694E+05
 0.45349998E+02 -0.81362E+04
 0.45399998E+02 -0.56251E+04
 0.45449997E+02 -0.88934E+04
 0.45499996E+02 -0.11879E+05
 0.45549995E+02 -0.59599E+04
 0.45599998E+02  0.13158E+04
 0.45649998E+02  0.12806E+05
 0.45699997E+02  0.17852E+05
 0.45749996E+02  0.12792E+05
 0.45799995E+02  0.86018E+04
 0.45849998E+02  0.60607E+04
 0.45899998E+02  0.41669E+04
 0.45949997E+02  0.25073E+04
 0.45999996E+02 -0.39573E+04
 0.46049995E+02 -0.17702E+05
 0.46099998E+02 -0.30839E+05
 0.46149998E+02 -0.32930E+05
 0.46199997E+02 -0.25969E+05
 0.46249996E+02 -0.16041E+05
 0.46299995E+02 -0.48782E+04
 0.46349998E+02  0.20864E+04
 0.46399998E+02  0.68442E+04
 0.46449997E+02  0.11793E+05
 0.46499996E+02  0.86626E+04
 0.46549995E+02  0.58519E+04
 0.46599998E+02  0.10155E+05
 0.46649998E+02  0.83311E+04
 0.46699997E+02  0.31162E+04
 0.46749996E+02 -0.10914E+04
 0.46799995E+02 -0.12753E+05
 0.46849998E+02 -0.25163E+05
 0.46899998E+02 -0.28361E+05
 0.46949997E+02 -0.28122E+05
 0.46999996E+02 -0.28294E+05
 0.47049995E+02 -0.25936E+05
 0.47099998E+02 -0.19079E+05
 0.47149998E+02 -0.71517E+04
 0.47199997E+02  0.50325E+04
 0.47249996E+02  0.12606E+05
 0.47299995E+02  0.15766E+05
 0.47349998E+02  0.13840E+05
 0.47399998E+02  0.55246E+04
 0.47449997E+02 -0.52694E+04
 0.47499996E+02 -0.94399E+04
 0.47549995E+02 -0.13093E+05
 0.47599998E+02 -0.16539E+05
 0.47649998E+02 -0.12110E+05
 0.47699997E+02 -0.49853E+04
 0.47749996E+02  0.33368E+04
 0.47799995E+02  0.52287E+04
 0.47849998E+02  0.30431E+04
 0.47899998E+02  0.11877E+03
 0.47949997E+02 -0.12085E+05
 0.47999996E+02 -0.22140E+05
 0.48049995E+02 -0.17243E+05
 0.48099998E+02 -0.10370E+05
 0.48149998E+02 -0.65631E+04
 0.48199997E+02 -0.15609E+04
 0.48249996E+02 -0.19509E+04
 0.48299995E+02 -0.31519E+04
 0.48349998E+02 -0.19897E+04
 0.48399998E+02 -0.23574E+04
 0.48449997E+02 -0.50204E+03
 0.48499996E+02  0.13290E+04
 0.48549995E+02 -0.25763E+04
 0.48599998E+02 -0.59372E+04
 0.48649998E+02 -0.74428E+04
 0.48699997E+02 -0.11273E+05
 0.48749996E+02 -0.94890E+04
 0.48799995E+02 -0.61081E+04
 0.48849998E+02 -0.11463E+05
 0.48899998E+02 -0.20296E+05
 0.48949997E+02 -0.23429E+05
 0.48999996E+02 -0.16891E+05
 0.49049995E+02 -0.95384E+04
 0.49099998E+02 -0.45620E+04
 0.49149998E+02  0.33787E+03
 0.49199997E+02  0.67494E+03
 0.49249996E+02  0.43152E+03
 0.49299995E+02  0.16840E+04
 0.49349998E+02  0.21605E+04
 0.49399998E+02  0.27789E+04
 0.49449997E+02  0.18994E+04
 0.49499996E+02  0.27368E+03
 0.49549995E+02 -0.15494E+03
 0.49599998E+02  0.47193E+03
 0.49649998E+02  0.89383E+03
 0.49699997E+02 -0.55954E+02
 0.49749996E+02 -0.50513E+04
 0.49799995E+02 -0.15099E+05
 0.49849998E+02 -0.23393E+05
 0.49899998E+02 -0.27600E+05
 0.49949997E+02 -0.26764E+05
 0.49999996E+02 -0.17769E+05
 0.50049995E+02 -0.84898E+04
 0.50099998E+02 -0.73970E+04
 0.50149998E+02 -0.80831E+04
 0.50199997E+02 -0.55143E+04
 0.50249996E+02 -0.67396E+03
 0.50299995E+02  0.49450E+04
 0.50349998E+02  0.29154E+04
 0.50399998E+02 -0.33057E+04
 0.50449997E+02 -0.61690E+04
 0.50499996E+02 -0.54219E+04
 0.50549995E+02 -0.38884E+03
 0.50599998E+02  0.22705E+04
 0.50649998E+02 -0.39185E+04
 0.50699997E+02 -0.96487E+04
 0.50749996E+02 -0.10957E+05
 0.50799995E+02 -0.14453E+05
 0.50849998E+02 -0.15511E+05
 0.50899998E+02 -0.14752E+05
 0.50949997E+02 -0.15004E+05
 0.50999996E+02 -0.10473E+05
 0.51049995E+02  0.17465E+04
 0.51099998E+02  0.13279E+05
 0.51149998E+02  0.17850E+05
 0.51199997E+02  0.15445E+05
 0.51249996E+02  0.79225E+04
 0.51299995E+02 -0.73574E+02
 0.51349998E+02 -0.77935E+04
 0.51399998E+02 -0.13102E+05
 0.51449997E+02 -0.17872E+05
 0.51499996E+02 -0.23173E+05
 0.51549995E+02 -0.22150E+05
 0.51599998E+02 -0.15709E+05
 0.51649998E+02 -0.92014E+04
 0.51699997E+02 -0.48762E+04
 0.51749996E+02 -0.53365E+04
 0.51799995E+02 -0.77383E+04
 0.51849998E+02 -0.87204E+04
 0.51899998E+02 -0.83246E+04
 0.51949997E+02 -0.38159E+04
 0.51999996E+02  0.17370E+04
 0.52049995E+02  0.30101E+03
 0.52099998E+02 -0.38417E+04
 0.52149998E+02 -0.51439E+04
 0.52199997E+02 -0.38251E+04
 0.52249996E+02 -0.43997E+04
 0.52299995E+02 -0.99813E+04
 0.52349998E+02 -0.15350E+05
 0.52399998E+02 -0.15661E+05
 0.52449997E+02 -0.10971E+05
 0.52499996E+02 -0.87869E+04
 0.52549995E+02 -0.86358E+04
 0.52599998E+02 -0.51917E+04
 0.52649998E+02 -0.37773E+04
 0.52699997E+02 -0.29984E+04
 0.52749996E+02  0.44040E+02
 0.52799995E+02  0.25821E+04
 0.52849998E+02  0.53054E+04
 0.52899998E+02  0.29249E+04
 0.52949997E+02 -0.35148E+04
 0.52999996E+02 -0.79287E+04
 0.53049995E+02 -0.11082E+05
 0.53099998E+02 -0.12518E+05
 0.53149998E+02 -0.97246E+04
 0.53199997E+02 -0.83917E+04
 0.53249996E+02 -0.10231E+05
 0.53299995E+02 -0.80785E+04
 0.53349998E+02 -0.54063E+04
 0.53399998E+02 -0.42873E+04
 0.53449997E+02 -0.35993E+04
 0.53499996E+02 -0.22905E+04
 0.53549995E+02  0.15089E+03
 0.53599998E+02  0.17574E+03
 0.53649998E+02 -0.40005E+03
 0.53699997E+02 -0.24542E+04
 0.53749996E+02 -0.70185E+04
 0.53799995E+02 -0.90492E+04
 0.53849998E+02 -0.90014E+04
 0.53899998E+02 -0.91150E+04
 0.53949997E+02 -0.84533E+04
 0.53999996E+02 -0.11273E+05
 0.54049995E+02 -0.13736E+05
 0.54099998E+02 -0.96024E+04
 0.54149998E+02 -0.52993E+04
 0.54199997E+02 -0.33019E+04
 0.54249996E+02 -0.28402E+04
 0.54299995E+02 -0.34857E+04
 0.54349998E+02 -0.27954E+04
 0.54399998E+02 -0.63164E+03
 0.54449997E+02  0.11999E+04
 0.54499996E+02  0.77074E+03
 0.54549995E+02 -0.12500E+04
 0.54599998E+02 -0.92310E+03
 0.54649998E+02 -0.86253E+03
 0.54699997E+02 -0.13513E+04
 0.54749996E+02 -0.13635E+04
 0.54799995E+02 -0.20324E+04
 0.54849998E+02 -0.28291E+04
 0.54899998E+02 -0.61241E+04
 0.54949997E+02 -0.88073E+04
 0.54999996E+02 -0.99861E+04
 0.55049995E+02 -0.10309E+05
 0.55099998E+02 -0.94953E+04
 0.55149998E+02 -0.94284E+04
 0.55199997E+02 -0.98024E+04
 0.55249996E+02 -0.96951E+04
 0.55299995E+02 -0.10967E+05
 0.55349998E+02 -0.15581E+05
 0.55399998E+02 -0.18623E+05
 0.55449997E+02 -0.14461E+05
 0.55499996E+02 -0.78394E+04
 0.55549995E+02 -0.46923E+04
 0.55599998E+02 -0.21420E+04
 0.55649998E+02 -0.81101E+03
 0.55699997E+02 -0.16884E+03
 0.55749996E+02  0.86758E+02
 0.55799995E+02 -0.24134E+04
 0.55849995E+02 -0.30852E+04
 0.55899998E+02  0.60772E+02
 0.55949997E+02  0.33667E+04
 0.55999996E+02  0.39000E+04
 0.56049995E+02  0.37658E+04
 0.56099995E+02  0.17123E+04
 0.56149998E+02 -0.30292E+04
 0.56199997E+02 -0.57209E+04
 0.56249996E+02 -0.89140E+04
 0.56299995E+02 -0.13886E+05
 0.56349995E+02 -0.16449E+05
 0.56399998E+02 -0.18581E+05
 0.56449997E+02 -0.21678E+05
 0.56499996E+02 -0.23717E+05
 0.56549995E+02 -0.20485E+05
 0.56599995E+02 -0.10382E+05
 0.56649998E+02 -0.67630E+03
 0.56699997E+02  0.57425E+04
 0.56749996E+02  0.88090E+04
 0.56799995E+02  0.79892E+04
 0.56849995E+02  0.35831E+04
 0.56899998E+02 -0.30177E+04
 0.56949997E+02 -0.72275E+04
 0.56999996E+02 -0.94512E+04
 0.57049995E+02 -0.10561E+05
 0.57099995E+02 -0.10427E+05
 0.57149998E+02 -0.12209E+05
 0.57199997E+02 -0.14780E+05
 0.57249996E+02 -0.15282E+05
 0.57299995E+02 -0.11386E+05
 0.57349995E+02 -0.32944E+04
 0.57399998E+02  0.97138E+03
 0.57449997E+02 -0.23174E+04
 0.57499996E+02 -0.62788E+04
 0.57549995E+02 -0.80360E+04
 0.57599995E+02 -0.75762E+04
 0.57649998E+02 -0.31815E+04
 0.57699997E+02 -0.18859E+03
 0.57749996E+02 -0.13036E+04
 0.57799995E+02 -0.28680E+04
 0.57849995E+02 -0.40236E+04
 0.57899998E+02 -0.37486E+04
 0.57949997E+02 -0.32295E+04
 0.57999996E+02 -0.35512E+04
 0.58049995E+02 -0.44008E+04
 0.58099995E+02 -0.67684E+04
 0.58149998E+02 -0.66248E+04
 0.58199997E+02 -0.39712E+04
 0.58249996E+02 -0.14781E+04
 0.58299995E+02 -0.10797E+04
 0.58349995E+02 -0.55560E+04
 0.58399998E+02 -0.94647E+04
 0.58449997E+02 -0.12036E+05
 0.58499996E+02 -0.14864E+05
 0.58549995E+02 -0.14458E+05
 0.58599995E+02 -0.13988E+05
 0.58649998E+02 -0.13599E+05
 0.58699997E+02 -0.11356E+05
 0.58749996E+02 -0.96295E+04
 0.58799995E+02 -0.80784E+04
 0.58849995E+02 -0.67101E+04
 0.58899998E+02 -0.52858E+04
 0.58949997E+02 -0.29019E+04
 0.58999996E+02 -0.10219E+04
 0.59049995E+02  0.87680E+03
 0.59099995E+02  0.25611E+04
 0.59149998E+02  0.25359E+04
 0.59199997E+02  0.27586E+04
 0.59249996E+02  0.19707E+04
 0.59299995E+02 -0.10845E+04
 0.59349995E+02 -0.39941E+04
 0.59399998E+02 -0.62914E+04
 0.59449997E+02 -0.70310E+04
 0.59499996E+02 -0.62351E+04
 0.59549995E+02 -0.55594E+04
 0.59599995E+02 -0.42764E+04
 0.59649998E+02 -0.40240E+04
 0.59699997E+02 -0.74084E+04
 0.59749996E+02 -0.11032E+05
 0.59799995E+02 -0.12125E+05
 0.59849995E+02 -0.12477E+05
 0.59899998E+02 -0.11862E+05
 0.59949997E+02 -0.92305E+04
 0.59999996E+02 -0.71804E+04
 0.60049995E+02 -0.72404E+04
 0.60099995E+02 -0.79502E+04
 0.60149998E+02 -0.74607E+04
 0.60199997E+02 -0.66709E+04
 0.60249996E+02 -0.61678E+04
 0.60299995E+02 -0.61278E+04
 0.60349995E+02 -0.69052E+04
 0.60399998E+02 -0.66222E+04
 0.60449997E+02 -0.44998E+04
 0.60499996E+02 -0.22240E+04
 0.60549995E+02 -0.33561E+04
 0.60599995E+02 -0.57725E+04
 0.60649998E+02 -0.50693E+04
 0.60699997E+02 -0.19399E+04
 0.60749996E+02  0.18119E+04
 0.60799995E+02  0.38955E+04
 0.60849995E+02  0.35744E+04
 0.60899998E+02  0.20229E+04
 0.60949997E+02  0.13521E+04
 0.60999996E+02 -0.11765E+03
 0.61049995E+02 -0.48678E+04
 0.61099995E+02 -0.10195E+05
 0.61149998E+02 -0.14864E+05
 0.61199997E+02 -0.17575E+05
 0.61249996E+02 -0.16864E+05
 0.61299995E+02 -0.13873E+05
 0.61349995E+02 -0.99086E+04
 0.61399998E+02 -0.65648E+04
 0.61449997E+02 -0.41069E+04
 0.61499996E+02 -0.30453E+04
 0.61549995E+02 -0.39138E+04
 0.61599995E+02 -0.61433E+04
 0.61649998E+02 -0.77927E+04
 0.61699997E+02 -0.73600E+04
 0.61749996E+02 -0.74236E+04
 0.61799995E+02 -0.72196E+04
 0.61849995E+02 -0.65205E+04
 0.61899998E+02 -0.60465E+04
 0.61949997E+02 -0.30178E+04
 0.61999996E+02  0.76760E+03
 0.62049995E+02  0.17863E+04
 0.62099998E+02 -0.93308E+03
 0.62149994E+02 -0.54766E+04
 0.62199997E+02 -0.76881E+04
 0.62249992E+02 -0.64900E+04
 0.62299995E+02 -0.48897E+04
 0.62349998E+02 -0.42486E+04
 0.62399994E+02 -0.45215E+04
 0.62449997E+02 -0.54106E+04
 0.62499992E+02 -0.62128E+04
 0.62549995E+02 -0.72310E+04
 0.62599998E+02 -0.72939E+04
 0.62649994E+02 -0.79772E+04
 0.62699997E+02 -0.97774E+04
 0.62749992E+02 -0.10324E+05
 0.62799995E+02 -0.88841E+04
 0.62849998E+02 -0.60503E+04
 0.62899994E+02 -0.39635E+04
 0.62949997E+02 -0.35584E+04
 0.62999992E+02 -0.32197E+04
 0.63049995E+02 -0.27419E+04
 0.63099998E+02 -0.30985E+04
 0.63149994E+02 -0.45828E+04
 0.63199997E+02 -0.77375E+04
 0.63249992E+02 -0.10703E+05
 0.63299995E+02 -0.11277E+05
 0.63349998E+02 -0.10360E+05
 0.63399994E+02 -0.87723E+04
 0.63449997E+02 -0.61927E+04
 0.63499992E+02 -0.39974E+04
 0.63549995E+02 -0.25465E+04
 0.63599998E+02 -0.32788E+04
 0.63649994E+02 -0.62613E+04
 0.63699997E+02 -0.77971E+04
 0.63749992E+02 -0.81767E+04
 0.63799995E+02 -0.80983E+04
 0.63849998E+02 -0.67636E+04
 0.63899994E+02 -0.58659E+04
 0.63949997E+02 -0.49751E+04
 0.63999992E+02 -0.40981E+04
 0.64049995E+02 -0.44526E+04
 0.64099998E+02 -0.40769E+04
 0.64149994E+02 -0.32200E+04
 0.64199997E+02 -0.28461E+04
 0.64249992E+02 -0.32944E+04
 0.64299995E+02 -0.47151E+04
 0.64349998E+02 -0.57561E+04
 0.64399994E+02 -0.57458E+04
 0.64449997E+02 -0.55154E+04
 0.64499992E+02 -0.75374E+04
 0.64549995E+02 -0.10119E+05
 0.64599998E+02 -0.10624E+05
 0.64649994E+02 -0.10301E+05
 0.64699997E+02 -0.88424E+04
 0.64749992E+02 -0.72823E+04
 0.64799995E+02 -0.73371E+04
 0.64849998E+02 -0.76633E+04
 0.64899994E+02 -0.71934E+04
 0.64949997E+02 -0.64197E+04
 0.64999992E+02 -0.51486E+04
 0.65049995E+02 -0.29540E+04
 0.65099998E+02 -0.87180E+03
 0.65149994E+02 -0.69555E+03
 0.65199997E+02 -0.28856E+04
 0.65249992E+02 -0.55161E+04
 0.65299995E+02 -0.89604E+04
 0.65349998E+02 -0.12680E+05
 0.65399994E+02 -0.14667E+05
 0.65449997E+02 -0.15079E+05
 0.65499992E+02 -0.13771E+05
 0.65549995E+02 -0.11045E+05
 0.65599998E+02 -0.74333E+04
 0.65649994E+02 -0.29601E+04
 0.65699997E+02 -0.42596E+03
 0.65749992E+02 -0.73893E+03
 0.65799995E+02 -0.15763E+04
 0.65849998E+02 -0.31896E+04
 0.65899994E+02 -0.39091E+04
 0.65949997E+02 -0.27613E+04
 0.65999992E+02 -0.80032E+03
 0.66049995E+02  0.13754E+04
 0.66099998E+02  0.25141E+04
 0.66149994E+02  0.22097E+04
 0.66199997E+02  0.30387E+03
 0.66249992E+02 -0.22406E+04
 0.66299995E+02 -0.35052E+04
 0.66349998E+02 -0.40844E+04
 0.66399994E+02 -0.53443E+04
 0.66449997E+02 -0.70964E+04
 0.66499992E+02 -0.92640E+04
 0.66549995E+02 -0.11144E+05
 0.66599998E+02 -0.13076E+05
 0.66649994E+02 -0.14016E+05
 0.66699997E+02 -0.13039E+05
 0.66749992E+02 -0.11326E+05
 0.66799995E+02 -0.81658E+04
 0.66849998E+02 -0.51208E+04
 0.66899994E+02 -0.40038E+04
 0.66949997E+02 -0.50999E+04
 0.66999992E+02 -0.73949E+04
 0.67049995E+02 -0.91751E+04
 0.67099998E+02 -0.97308E+04
 0.67149994E+02 -0.68449E+04
 0.67199997E+02 -0.19176E+04
 0.67249992E+02  0.11655E+04
 0.67299995E+02  0.22950E+04
 0.67349998E+02  0.27717E+04
 0.67399994E+02  0.22829E+04
 0.67449997E+02  0.10838E+04
 0.67499992E+02 -0.46157E+03
 0.67549995E+02 -0.30878E+04
 0.67599998E+02 -0.55996E+04
 0.67649994E+02 -0.77468E+04
 0.67699997E+02 -0.92166E+04
 0.67749992E+02 -0.96061E+04
 0.67799995E+02 -0.10107E+05
 0.67849998E+02 -0.96163E+04
 0.67899994E+02 -0.83617E+04
 0.67949997E+02 -0.64981E+04
 0.67999992E+02 -0.45681E+04
 0.68049995E+02 -0.47336E+04
 0.68099998E+02 -0.60454E+04
 0.68149994E+02 -0.67277E+04
 0.68199997E+02 -0.65966E+04
 0.68249992E+02 -0.63169E+04
 0.68299995E+02 -0.58668E+04
 0.68349998E+02 -0.56649E+04
 0.68399994E+02 -0.52916E+04
 0.68449997E+02 -0.52162E+04
 0.68499992E+02 -0.65454E+04
 0.68549995E+02 -0.89651E+04
 0.68599998E+02 -0.11773E+05
 0.68649994E+02 -0.12412E+05
 0.68699997E+02 -0.10519E+05
 0.68749992E+02 -0.73979E+04
 0.68799995E+02 -0.48708E+04
 0.68849998E+02 -0.41295E+04
 0.68899994E+02 -0.39697E+04
 0.68949997E+02 -0.50734E+04
 0.68999992E+02 -0.64371E+04
 0.69049995E+02 -0.69687E+04
 0.69099998E+02 -0.79881E+04
 0.69149994E+02 -0.83103E+04
 0.69199997E+02 -0.73867E+04
 0.69249992E+02 -0.60791E+04
 0.69299995E+02 -0.50050E+04
 0.69349998E+02 -0.48503E+04
 0.69399994E+02 -0.47149E+04
 0.69449997E+02 -0.35504E+04
 0.69499992E+02 -0.32354E+04
 0.69549995E+02 -0.50849E+04
 0.69599998E+02 -0.73775E+04
 0.69649994E+02 -0.97909E+04
 0.69699997E+02 -0.10948E+05
 0.69749992E+02 -0.97886E+04
 0.69799995E+02 -0.80964E+04
 0.69849998E+02 -0.69494E+04
 0.69899994E+02 -0.65113E+04
 0.69949997E+02 -0.56804E+04
 0.69999992E+02 -0.38643E+04
 0.70049995E+02 -0.22438E+04
 0.70099998E+02 -0.10864E+04
 0.70149994E+02 -0.26186E+03
 0.70199997E+02 -0.66907E+03
 0.70249992E+02 -0.20672E+04
 0.70299995E+02 -0.34413E+04
 0.70349998E+02 -0.42783E+04
 0.70399994E+02 -0.43723E+04
 0.70449997E+02 -0.49933E+04
 0.70499992E+02 -0.66687E+04
 0.70549995E+02 -0.77677E+04
 0.70599998E+02 -0.84401E+04
 0.70649994E+02 -0.92758E+04
 0.70699997E+02 -0.10229E+05
 0.70749992E+02 -0.10892E+05
 0.70799995E+02 -0.10250E+05
 0.70849998E+02 -0.84788E+04
 0.70899994E+02 -0.65480E+04
 0.70949997E+02 -0.46558E+04
 0.70999992E+02 -0.25422E+04
 0.71049995E+02 -0.18344E+03
 0.71099998E+02  0.69673E+03
 0.71149994E+02 -0.12699E+04
 0.71199997E+02 -0.35585E+04
 0.71249992E+02 -0.49527E+04
 0.71299995E+02 -0.57850E+04
 0.71349998E+02 -0.66068E+04
 0.71399994E+02 -0.80197E+04
 0.71449997E+02 -0.84683E+04
 0.71499992E+02 -0.84196E+04
 0.71549995E+02 -0.91423E+04
 0.71599998E+02 -0.91669E+04
 0.71649994E+02 -0.81755E+04
 0.71699997E+02 -0.68540E+04
 0.71749992E+02 -0.46262E+04
 0.71799995E+02 -0.23346E+04
 0.71849998E+02 -0.96116E+03
 0.71899994E+02 -0.95896E+02
 0.71949997E+02  0.52412E+03
 0.71999992E+02  0.83506E+03
 0.72049995E+02 -0.11327E+03
 0.72099998E+02 -0.18912E+04
 0.72149994E+02 -0.30382E+04
 0.72199997E+02 -0.37827E+04
 0.72249992E+02 -0.49278E+04
 0.72299995E+02 -0.71190E+04
 0.72349998E+02 -0.98648E+04
 0.72399994E+02 -0.12638E+05
 0.72449997E+02 -0.15698E+05
 0.72499992E+02 -0.17715E+05
 0.72549995E+02 -0.17881E+05
 0.72599998E+02 -0.16064E+05
 0.72649994E+02 -0.12126E+05
 0.72699997E+02 -0.79305E+04
 0.72749992E+02 -0.41721E+04
 0.72799995E+02 -0.14539E+04
 0.72849998E+02 -0.12769E+04
 0.72899994E+02 -0.27456E+04
 0.72949997E+02 -0.46007E+04
 0.72999992E+02 -0.62411E+04
 0.73049995E+02 -0.60328E+04
 0.73099998E+02 -0.39244E+04
 0.73149994E+02 -0.16291E+04
 0.73199997E+02  0.99770E+03
 0.73249992E+02  0.24846E+04
 0.73299995E+02  0.97113E+03
 0.73349998E+02 -0.21958E+04
 0.73399994E+02 -0.58186E+04
 0.73449997E+02 -0.88971E+04
 0.73499992E+02 -0.10377E+05
 0.73549995E+02 -0.10496E+05
 0.73599998E+02 -0.95284E+04
 0.73649994E+02 -0.77450E+04
 0.73699997E+02 -0.62235E+04
 0.73749992E+02 -0.52956E+04
 0.73799995E+02 -0.46486E+04
 0.73849998E+02 -0.34327E+04
 0.73899994E+02 -0.21549E+04
 0.73949997E+02 -0.25122E+04
 0.73999992E+02 -0.34799E+04
 0.74049995E+02 -0.41533E+04
 0.74099998E+02 -0.52123E+04
 0.74149994E+02 -0.64870E+04
 0.74199997E+02 -0.81890E+04
 0.74249992E+02 -0.98240E+04
 0.74299995E+02 -0.10357E+05
 0.74349998E+02 -0.10006E+05
 0.74399994E+02 -0.87711E+04
 0.74449997E+02 -0.73930E+04
 0.74499992E+02 -0.67186E+04
 0.74549995E+02 -0.66320E+04
 0.74599998E+02 -0.68649E+04
 0.74649994E+02 -0.72083E+04
 0.74699997E+02 -0.73482E+04
 0.74749992E+02 -0.74635E+04
 0.74799995E+02 -0.76819E+04
 0.74849998E+02 -0.72941E+04
 0.74899994E+02 -0.57153E+04
 0.74949997E+02 -0.33308E+04
 0.74999992E+02 -0.15659E+04
 0.75049995E+02 -0.91931E+03
 0.75099998E+02 -0.13097E+04
 0.75149994E+02 -0.27270E+04
 0.75199997E+02 -0.47575E+04
 0.75249992E+02 -0.66034E+04
 0.75299995E+02 -0.78377E+04
 0.75349998E+02 -0.85416E+04
 0.75399994E+02 -0.79978E+04
 0.75449997E+02 -0.67767E+04
 0.75499992E+02 -0.62914E+04
 0.75549995E+02 -0.61581E+04
 0.75599998E+02 -0.61967E+04
 0.75649994E+02 -0.66241E+04
 0.75699997E+02 -0.72075E+04
 0.75749992E+02 -0.72703E+04
 0.75799995E+02 -0.68009E+04
 0.75849998E+02 -0.64990E+04
 0.75899994E+02 -0.61466E+04
 0.75949997E+02 -0.59913E+04
 0.75999992E+02 -0.66089E+04
 0.76049995E+02 -0.77650E+04
 0.76099998E+02 -0.84172E+04
 0.76149994E+02 -0.77987E+04
 0.76199997E+02 -0.62546E+04
 0.76249992E+02 -0.43188E+04
 0.76299995E+02 -0.24302E+04
 0.76349998E+02 -0.16960E+04
 0.76399994E+02 -0.24496E+04
 0.76449997E+02 -0.32041E+04
 0.76499992E+02 -0.32496E+04
 0.76549995E+02 -0.32429E+04
 0.76599998E+02 -0.41589E+04
 0.76649994E+02 -0.51109E+04
 0.76699997E+02 -0.47468E+04
 0.76749992E+02 -0.38309E+04
 0.76799995E+02 -0.30678E+04
 0.76849998E+02 -0.29244E+04
 0.76899994E+02 -0.34210E+04
 0.76949997E+02 -0.41199E+04
 0.76999992E+02 -0.49667E+04
 0.77049995E+02 -0.56513E+04
 0.77099998E+02 -0.63042E+04
 0.77149994E+02 -0.72360E+04
 0.77199997E+02 -0.78158E+04
 0.77249992E+02 -0.77271E+04
 0.77299995E+02 -0.73519E+04
 0.77349998E+02 -0.64155E+04
 0.77399994E+02 -0.53273E+04
 0.77449997E+02 -0.50414E+04
 0.77499992E+02 -0.58926E+04
 0.77549995E+02 -0.73622E+04
 0.77599998E+02 -0.84045E+04
 0.77649994E+02 -0.97523E+04
 0.77699997E+02 -0.11616E+05
 0.77749992E+02 -0.12207E+05
 0.77799995E+02 -0.11117E+05
 0.77849998E+02 -0.95453E+04
 0.77899994E+02 -0.76528E+04
 0.77949997E+02 -0.57337E+04
 0.77999992E+02 -0.51326E+04
 0.78049995E+02 -0.52134E+04
 0.78099998E+02 -0.51047E+04
 0.78149994E+02 -0.49911E+04
 0.78199997E+02 -0.46515E+04
 0.78249992E+02 -0.47670E+04
 0.78299995E+02 -0.52615E+04
 0.78349998E+02 -0.52350E+04
 0.78399994E+02 -0.45394E+04
 0.78449997E+02 -0.36049E+04
 0.78499992E+02 -0.28746E+04
 0.78549995E+02 -0.19156E+04
 0.78599998E+02 -0.93389E+03
 0.78649994E+02 -0.81348E+03
 0.78699997E+02 -0.14081E+04
 0.78749992E+02 -0.22261E+04
 0.78799995E+02 -0.36656E+04
 0.78849998E+02 -0.56558E+04
 0.78899994E+02 -0.74395E+04
 0.78949997E+02 -0.87711E+04
 0.78999992E+02 -0.94291E+04
 0.79049995E+02 -0.96762E+04
 0.79099998E+02 -0.98093E+04
 0.79149994E+02 -0.96022E+04
 0.79199997E+02 -0.91283E+04
 0.79249992E+02 -0.84240E+04
 0.79299995E+02 -0.73121E+04
 0.79349998E+02 -0.58965E+04
 0.79399994E+02 -0.49900E+04
 0.79449997E+02 -0.46535E+04
 0.79499992E+02 -0.43075E+04
 0.79549995E+02 -0.40554E+04
 0.79599998E+02 -0.43438E+04
 0.79649994E+02 -0.56416E+04
 0.79699997E+02 -0.77280E+04
 0.79749992E+02 -0.97360E+04
 0.79799995E+02 -0.10951E+05
 0.79849998E+02 -0.10891E+05
 0.79899994E+02 -0.97925E+04
 0.79949997E+02 -0.79157E+04
 0.79999992E+02 -0.53579E+04
 0.80049995E+02 -0.28811E+04
 0.80099998E+02 -0.96729E+03
 0.80149994E+02  0.27979E+03
 0.80199997E+02  0.88594E+03
 0.80249992E+02  0.53496E+03
 0.80299995E+02 -0.61446E+03
 0.80349998E+02 -0.19621E+04
 0.80399994E+02 -0.38393E+04
 0.80449997E+02 -0.57393E+04
 0.80499992E+02 -0.70493E+04
 0.80549995E+02 -0.80873E+04
 0.80599998E+02 -0.84119E+04
 0.80649994E+02 -0.80943E+04
 0.80699997E+02 -0.81801E+04
 0.80749992E+02 -0.88962E+04
 0.80799995E+02 -0.95493E+04
 0.80849998E+02 -0.98585E+04
 0.80899994E+02 -0.96525E+04
 0.80949997E+02 -0.83443E+04
 0.80999992E+02 -0.65620E+04
 0.81049995E+02 -0.57299E+04
 0.81099998E+02 -0.57420E+04
 0.81149994E+02 -0.55897E+04
 0.81199997E+02 -0.53239E+04
 0.81249992E+02 -0.51972E+04
 0.81299995E+02 -0.46991E+04
 0.81349998E+02 -0.37371E+04
 0.81399994E+02 -0.28001E+04
 0.81449997E+02 -0.23025E+04
 0.81499992E+02 -0.26570E+04
 0.81549995E+02 -0.43284E+04
 0.81599998E+02 -0.64908E+04
 0.81649994E+02 -0.77948E+04
 0.81699997E+02 -0.83342E+04
 0.81749992E+02 -0.78168E+04
 0.81799995E+02 -0.58297E+04
 0.81849998E+02 -0.33689E+04
 0.81899994E+02 -0.16754E+04
 0.81949997E+02 -0.13571E+04
 0.81999992E+02 -0.21275E+04
 0.82049995E+02 -0.32733E+04
 0.82099998E+02 -0.42405E+04
 0.82149994E+02 -0.47357E+04
 0.82199997E+02 -0.52891E+04
 0.82249992E+02 -0.59180E+04
 0.82299995E+02 -0.63698E+04
 0.82349998E+02 -0.70903E+04
 0.82399994E+02 -0.78091E+04
 0.82449997E+02 -0.82883E+04
 0.82499992E+02 -0.85022E+04
 0.82549995E+02 -0.83916E+04
 0.82599998E+02 -0.84450E+04
 0.82649994E+02 -0.84695E+04
 0.82699997E+02 -0.78611E+04
 0.82749992E+02 -0.69260E+04
 0.82799995E+02 -0.61059E+04
 0.82849998E+02 -0.56712E+04
 0.82899994E+02 -0.58713E+04
 0.82949997E+02 -0.65438E+04
 0.82999992E+02 -0.74102E+04
 0.83049995E+02 -0.83851E+04
 0.83099998E+02 -0.91047E+04
 0.83149994E+02 -0.94881E+04
 0.83199997E+02 -0.95482E+04
 0.83249992E+02 -0.88443E+04
 0.83299995E+02 -0.72926E+04
 0.83349998E+02 -0.55299E+04
 0.83399994E+02 -0.46810E+04
 0.83449997E+02 -0.48201E+04
 0.83499992E+02 -0.49826E+04
 0.83549995E+02 -0.48207E+04
 0.83599998E+02 -0.41579E+04
 0.83649994E+02 -0.35534E+04
 0.83699997E+02 -0.38542E+04
 0.83749992E+02 -0.45328E+04
 0.83799995E+02 -0.48006E+04
 0.83849998E+02 -0.45670E+04
 0.83899994E+02 -0.46449E+04
 0.83949997E+02 -0.46496E+04
 0.83999992E+02 -0.40047E+04
 0.84049995E+02 -0.38333E+04
 0.84099998E+02 -0.43853E+04
 0.84149994E+02 -0.48680E+04
 0.84199997E+02 -0.50950E+04
 0.84249992E+02 -0.51001E+04
 0.84299995E+02 -0.48164E+04
 0.84349998E+02 -0.47951E+04
 0.84399994E+02 -0.51373E+04
 0.84449997E+02 -0.52812E+04
 0.84499992E+02 -0.55215E+04
 0.84549995E+02 -0.62652E+04
 0.84599998E+02 -0.68366E+04
 0.84649994E+02 -0.71498E+04
 0.84699997E+02 -0.75631E+04
 0.84749992E+02 -0.80384E+04
 0.84799995E+02 -0.87081E+04
 0.84849998E+02 -0.86595E+04
 0.84899994E+02 -0.75602E+04
 0.84949997E+02 -0.64179E+04
 0.84999992E+02 -0.55929E+04
 0.85049995E+02 -0.51394E+04
 0.85099998E+02 -0.50083E+04
 0.85149994E+02 -0.49718E+04
 0.85199997E+02 -0.50052E+04
 0.85249992E+02 -0.53259E+04
 0.85299995E+02 -0.60869E+04
 0.85349998E+02 -0.70038E+04
 0.85399994E+02 -0.77250E+04
 0.85449997E+02 -0.80634E+04
 0.85499992E+02 -0.79354E+04
 0.85549995E+02 -0.74564E+04
 0.85599998E+02 -0.67362E+04
 0.85649994E+02 -0.57971E+04
 0.85699997E+02 -0.47095E+04
 0.85749992E+02 -0.33364E+04
 0.85799995E+02 -0.18302E+04
 0.85849998E+02 -0.10162E+04
 0.85899994E+02 -0.10990E+04
 0.85949997E+02 -0.18720E+04
 0.85999992E+02 -0.31946E+04
 0.86049995E+02 -0.48646E+04
 0.86099998E+02 -0.66731E+04
 0.86149994E+02 -0.82378E+04
 0.86199997E+02 -0.89742E+04
 0.86249992E+02 -0.85782E+04
 0.86299995E+02 -0.75284E+04
 0.86349998E+02 -0.64837E+04
 0.86399994E+02 -0.58047E+04
 0.86449997E+02 -0.52853E+04
 0.86499992E+02 -0.48045E+04
 0.86549995E+02 -0.46982E+04
 0.86599998E+02 -0.49543E+04
 0.86649994E+02 -0.52668E+04
 0.86699997E+02 -0.58706E+04
 0.86749992E+02 -0.65724E+04
 0.86799995E+02 -0.69986E+04
 0.86849998E+02 -0.73907E+04
 0.86899994E+02 -0.76703E+04
 0.86949997E+02 -0.75552E+04
 0.86999992E+02 -0.70318E+04
 0.87049995E+02 -0.63415E+04
 0.87099998E+02 -0.51038E+04
 0.87149994E+02 -0.39099E+04
 0.87199997E+02 -0.37240E+04
 0.87249992E+02 -0.42126E+04
 0.87299995E+02 -0.54550E+04
 0.87349998E+02 -0.70536E+04
 0.87399994E+02 -0.80741E+04
 0.87449997E+02 -0.84826E+04
 0.87499992E+02 -0.81910E+04
 0.87549995E+02 -0.72829E+04
 0.87599991E+02 -0.64808E+04
 0.87649994E+02 -0.56973E+04
 0.87699997E+02 -0.49752E+04
 0.87749992E+02 -0.47638E+04
 0.87799995E+02 -0.49851E+04
 0.87849991E+02 -0.54978E+04
 0.87899994E+02 -0.61583E+04
 0.87949997E+02 -0.65439E+04
 0.87999992E+02 -0.63567E+04
 0.88049995E+02 -0.62136E+04
 0.88099991E+02 -0.62437E+04
 0.88149994E+02 -0.61579E+04
 0.88199997E+02 -0.62002E+04
 0.88249992E+02 -0.62712E+04
 0.88299995E+02 -0.59891E+04
 0.88349991E+02 -0.54417E+04
 0.88399994E+02 -0.47976E+04
 0.88449997E+02 -0.38681E+04
 0.88499992E+02 -0.28762E+04
 0.88549995E+02 -0.25324E+04
 0.88599991E+02 -0.28850E+04
 0.88649994E+02 -0.32110E+04
 0.88699997E+02 -0.33659E+04
 0.88749992E+02 -0.37062E+04
 0.88799995E+02 -0.42085E+04
 0.88849991E+02 -0.46983E+04
 0.88899994E+02 -0.53095E+04
 0.88949997E+02 -0.60438E+04
 0.88999992E+02 -0.68484E+04
 0.89049995E+02 -0.76553E+04
 0.89099991E+02 -0.82141E+04
 0.89149994E+02 -0.84916E+04
 0.89199997E+02 -0.81658E+04
 0.89249992E+02 -0.73198E+04
 0.89299995E+02 -0.66177E+04
 0.89349991E+02 -0.59675E+04
 0.89399994E+02 -0.55103E+04
 0.89449997E+02 -0.55987E+04
 0.89499992E+02 -0.59262E+04
 0.89549995E+02 -0.61213E+04
 0.89599991E+02 -0.62640E+04
 0.89649994E+02 -0.67259E+04
 0.89699997E+02 -0.72529E+04
 0.89749992E+02 -0.73769E+04
 0.89799995E+02 -0.73858E+04
 0.89849991E+02 -0.73997E+04
 0.89899994E+02 -0.74233E+04
 0.89949997E+02 -0.76157E+04
 0.89999992E+02 -0.79391E+04
 0.90049995E+02 -0.85888E+04
 0.90099991E+02 -0.91065E+04
 0.90149994E+02 -0.89996E+04
 0.90199997E+02 -0.81178E+04
 0.90249992E+02 -0.68238E+04
 0.90299995E+02 -0.58080E+04
 0.90349991E+02 -0.50411E+04
 0.90399994E+02 -0.42141E+04
 0.90449997E+02 -0.32384E+04
 0.90499992E+02 -0.25711E+04
 0.90549995E+02 -0.25708E+04
 0.90599991E+02 -0.32782E+04
 0.90649994E+02 -0.41720E+04
 0.90699997E+02 -0.48443E+04
 0.90749992E+02 -0.51034E+04
 0.90799995E+02 -0.48694E+04
 0.90849991E+02 -0.48264E+04
 0.90899994E+02 -0.47840E+04
 0.90949997E+02 -0.41534E+04
 0.90999992E+02 -0.34979E+04
 0.91049995E+02 -0.35186E+04
 0.91099991E+02 -0.39557E+04
 0.91149994E+02 -0.42079E+04
 0.91199997E+02 -0.43711E+04
 0.91249992E+02 -0.44516E+04
 0.91299995E+02 -0.46544E+04
 0.91349991E+02 -0.53733E+04
 0.91399994E+02 -0.61961E+04
 0.91449997E+02 -0.68581E+04
 0.91499992E+02 -0.72515E+04
 0.91549995E+02 -0.76437E+04
 0.91599991E+02 -0.82143E+04
 0.91649994E+02 -0.86270E+04
 0.91699997E+02 -0.89605E+04
 0.91749992E+02 -0.90744E+04
 0.91799995E+02 -0.87305E+04
 0.91849991E+02 -0.80135E+04
 0.91899994E+02 -0.73538E+04
 0.91949997E+02 -0.68047E+04
 0.91999992E+02 -0.62746E+04
 0.92049995E+02 -0.61348E+04
 0.92099991E+02 -0.62144E+04
 0.92149994E+02 -0.61762E+04
 0.92199997E+02 -0.59672E+04
 0.92249992E+02 -0.56859E+04
 0.92299995E+02 -0.54919E+04
 0.92349991E+02 -0.54839E+04
 0.92399994E+02 -0.56261E+04
 0.92449997E+02 -0.56384E+04
 0.92499992E+02 -0.54619E+04
 0.92549995E+02 -0.54801E+04
 0.92599991E+02 -0.58785E+04
 0.92649994E+02 -0.65175E+04
 0.92699997E+02 -0.68964E+04
 0.92749992E+02 -0.67571E+04
 0.92799995E+02 -0.63119E+04
 0.92849991E+02 -0.54887E+04
 0.92899994E+02 -0.42859E+04
 0.92949997E+02 -0.30774E+04
 0.92999992E+02 -0.22795E+04
 0.93049995E+02 -0.21421E+04
 0.93099991E+02 -0.27303E+04
 0.93149994E+02 -0.37723E+04
 0.93199997E+02 -0.49321E+04
 0.93249992E+02 -0.61628E+04
 0.93299995E+02 -0.70536E+04
 0.93349991E+02 -0.74047E+04
 0.93399994E+02 -0.75371E+04
 0.93449997E+02 -0.74028E+04
 0.93499992E+02 -0.70111E+04
 0.93549995E+02 -0.62656E+04
 0.93599991E+02 -0.53719E+04
 0.93649994E+02 -0.47596E+04
 0.93699997E+02 -0.44441E+04
 0.93749992E+02 -0.42173E+04
 0.93799995E+02 -0.36578E+04
 0.93849991E+02 -0.32986E+04
 0.93899994E+02 -0.37518E+04
 0.93949997E+02 -0.47534E+04
 0.93999992E+02 -0.57666E+04
 0.94049995E+02 -0.62876E+04
 0.94099991E+02 -0.65900E+04
 0.94149994E+02 -0.72768E+04
 0.94199997E+02 -0.79054E+04
 0.94249992E+02 -0.77417E+04
 0.94299995E+02 -0.72017E+04
 0.94349991E+02 -0.67084E+04
 0.94399994E+02 -0.62171E+04
 0.94449997E+02 -0.57883E+04
 0.94499992E+02 -0.53619E+04
 0.94549995E+02 -0.50394E+04
 0.94599991E+02 -0.51989E+04
 0.94649994E+02 -0.56905E+04
 0.94699997E+02 -0.62376E+04
 0.94749992E+02 -0.65679E+04
 0.94799995E+02 -0.63233E+04
 0.94849991E+02 -0.58887E+04
 0.94899994E+02 -0.56825E+04
 0.94949997E+02 -0.58418E+04
 0.94999992E+02 -0.63433E+04
 0.95049995E+02 -0.68538E+04
 0.95099991E+02 -0.70188E+04
 0.95149994E+02 -0.66837E+04
 0.95199997E+02 -0.64850E+04
 0.95249992E+02 -0.68041E+04
 0.95299995E+02 -0.72377E+04
 0.95349991E+02 -0.76032E+04
 0.95399994E+02 -0.76861E+04
 0.95449997E+02 -0.74600E+04
 0.95499992E+02 -0.72867E+04
 0.95549995E+02 -0.71546E+04
 0.95599991E+02 -0.70232E+04
 0.95649994E+02 -0.68549E+04
 0.95699997E+02 -0.62009E+04
 0.95749992E+02 -0.51950E+04
 0.95799995E+02 -0.43071E+04
 0.95849991E+02 -0.35082E+04
 0.95899994E+02 -0.27364E+04
 0.95949997E+02 -0.24197E+04
 0.95999992E+02 -0.28042E+04
 0.96049995E+02 -0.35483E+04
 0.96099991E+02 -0.44710E+04
 0.96149994E+02 -0.51918E+04
 0.96199997E+02 -0.52984E+04
 0.96249992E+02 -0.51159E+04
 0.96299995E+02 -0.50003E+04
 0.96349991E+02 -0.51217E+04
 0.96399994E+02 -0.55913E+04
 0.96449997E+02 -0.63320E+04
 0.96499992E+02 -0.69001E+04
 0.96549995E+02 -0.73813E+04
 0.96599991E+02 -0.79079E+04
 0.96649994E+02 -0.78603E+04
 0.96699997E+02 -0.73858E+04
 0.96749992E+02 -0.69475E+04
 0.96799995E+02 -0.66653E+04
 0.96849991E+02 -0.67951E+04
 0.96899994E+02 -0.73204E+04
 0.96949997E+02 -0.76027E+04
 0.96999992E+02 -0.75159E+04
 0.97049995E+02 -0.74412E+04
 0.97099991E+02 -0.74306E+04
 0.97149994E+02 -0.74486E+04
 0.97199997E+02 -0.75929E+04
 0.97249992E+02 -0.76214E+04
 0.97299995E+02 -0.72233E+04
 0.97349991E+02 -0.65312E+04
 0.97399994E+02 -0.55370E+04
 0.97449997E+02 -0.43579E+04
 0.97499992E+02 -0.32751E+04
 0.97549995E+02 -0.24850E+04
 0.97599991E+02 -0.20935E+04
 0.97649994E+02 -0.21665E+04
 0.97699997E+02 -0.25808E+04
 0.97749992E+02 -0.30083E+04
 0.97799995E+02 -0.32696E+04
 0.97849991E+02 -0.34920E+04
 0.97899994E+02 -0.40526E+04
 0.97949997E+02 -0.48440E+04
 0.97999992E+02 -0.57245E+04
