-0.20000000E+01 -0.12192E+02
-0.19500000E+01 -0.10419E+02
-0.19000000E+01 -0.11667E+02
-0.18500000E+01 -0.12633E+02
-0.18000000E+01 -0.11578E+02
-0.17500000E+01 -0.12392E+02
-0.17000000E+01 -0.13452E+02
-0.16500001E+01 -0.13329E+02
-0.16000000E+01 -0.12429E+02
-0.15500000E+01 -0.12310E+02
-0.15000000E+01 -0.13249E+02
-0.14500000E+01 -0.13524E+02
-0.14000001E+01 -0.11126E+02
-0.13500000E+01 -0.12469E+02
-0.13000001E+01 -0.13208E+02
-0.12500000E+01 -0.11352E+02
-0.12000000E+01 -0.12581E+02
-0.11500001E+01 -0.11984E+02
-0.11000000E+01 -0.13412E+02
-0.10500001E+01 -0.12037E+02
-0.10000000E+01 -0.12199E+02
-0.95000005E+00 -0.12780E+02
-0.90000010E+00 -0.11256E+02
-0.85000002E+00 -0.12757E+02
-0.80000007E+00 -0.13305E+02
-0.75000012E+00 -0.12448E+02
-0.70000005E+00 -0.13276E+02
-0.65000010E+00 -0.14077E+02
-0.60000014E+00 -0.12857E+02
-0.55000007E+00 -0.12485E+02
-0.50000012E+00 -0.11533E+02
-0.45000005E+00 -0.13496E+02
-0.40000010E+00 -0.12328E+02
-0.35000014E+00 -0.12221E+02
-0.30000007E+00 -0.12995E+02
-0.25000012E+00 -0.12878E+02
-0.20000005E+00 -0.13287E+02
-0.15000010E+00 -0.13273E+02
-0.10000014E+00 -0.13981E+02
-0.50000072E-01 -0.12584E+02
-0.11920929E-06 -0.11997E+02
 0.49999952E-01 -0.12566E+02
 0.99999905E-01 -0.12200E+02
 0.14999986E+00 -0.11935E+02
 0.19999981E+00 -0.12447E+02
 0.24999976E+00 -0.11451E+02
 0.29999995E+00 -0.12412E+02
 0.34999990E+00 -0.11986E+02
 0.39999986E+00 -0.11849E+02
 0.44999981E+00 -0.12500E+02
 0.49999976E+00 -0.12454E+02
 0.54999995E+00 -0.13347E+02
 0.59999990E+00 -0.12109E+02
 0.64999986E+00 -0.11331E+02
 0.69999981E+00 -0.12421E+02
 0.74999976E+00 -0.12504E+02
 0.79999971E+00 -0.12053E+02
 0.84999990E+00 -0.12139E+02
 0.89999986E+00 -0.12151E+02
 0.94999981E+00 -0.13535E+02
 0.99999976E+00 -0.11990E+02
 0.10499997E+01 -0.10938E+02
 0.10999999E+01 -0.11997E+02
 0.11499999E+01 -0.12421E+02
 0.11999998E+01 -0.11663E+02
 0.12499998E+01 -0.10929E+02
 0.12999997E+01 -0.11059E+02
 0.13499999E+01 -0.11609E+02
 0.13999999E+01 -0.12765E+02
 0.14499998E+01 -0.12598E+02
 0.14999998E+01 -0.13769E+02
 0.15499997E+01 -0.12573E+02
 0.15999999E+01 -0.10442E+02
 0.16499999E+01 -0.12019E+02
 0.16999998E+01 -0.12136E+02
 0.17499998E+01 -0.13311E+02
 0.17999997E+01 -0.11615E+02
 0.18499997E+01 -0.12318E+02
 0.18999999E+01 -0.13065E+02
 0.19499998E+01 -0.12485E+02
 0.19999998E+01 -0.13976E+02
 0.20499997E+01 -0.11832E+02
 0.20999999E+01 -0.14028E+02
 0.21499996E+01 -0.12104E+02
 0.21999998E+01 -0.12458E+02
 0.22499995E+01 -0.13734E+02
 0.22999997E+01 -0.13044E+02
 0.23499999E+01 -0.13606E+02
 0.23999996E+01 -0.12177E+02
 0.24499998E+01 -0.12682E+02
 0.24999995E+01 -0.13959E+02
 0.25499997E+01 -0.13334E+02
 0.25999999E+01 -0.11859E+02
 0.26499996E+01 -0.12722E+02
 0.26999998E+01 -0.12169E+02
 0.27499995E+01 -0.11279E+02
 0.27999997E+01 -0.12046E+02
 0.28499999E+01 -0.11575E+02
 0.28999996E+01 -0.11665E+02
 0.29499998E+01 -0.13696E+02
 0.29999995E+01 -0.11561E+02
 0.30499997E+01 -0.12550E+02
 0.30999999E+01 -0.12793E+02
 0.31499996E+01 -0.12791E+02
 0.31999998E+01 -0.11792E+02
 0.32499995E+01 -0.10393E+02
 0.32999997E+01 -0.13992E+02
 0.33499999E+01 -0.12961E+02
 0.33999996E+01 -0.13020E+02
 0.34499998E+01 -0.12709E+02
 0.34999995E+01 -0.13156E+02
 0.35499997E+01 -0.13268E+02
 0.35999994E+01 -0.12701E+02
 0.36499996E+01 -0.12154E+02
 0.36999998E+01 -0.11757E+02
 0.37499995E+01 -0.12613E+02
 0.37999997E+01 -0.13615E+02
 0.38499994E+01 -0.12630E+02
 0.38999996E+01 -0.12698E+02
 0.39499998E+01 -0.13244E+02
 0.39999995E+01 -0.12604E+02
 0.40499997E+01 -0.12710E+02
 0.40999994E+01 -0.11294E+02
 0.41499996E+01 -0.11946E+02
 0.41999998E+01 -0.11897E+02
 0.42499995E+01 -0.13289E+02
 0.42999997E+01 -0.13364E+02
 0.43499994E+01 -0.13440E+02
 0.43999996E+01 -0.13357E+02
 0.44499998E+01 -0.12917E+02
 0.44999995E+01 -0.11986E+02
 0.45499997E+01 -0.12138E+02
 0.45999994E+01 -0.13041E+02
 0.46499996E+01 -0.13120E+02
 0.46999998E+01 -0.12090E+02
 0.47499995E+01 -0.11632E+02
 0.47999997E+01 -0.12781E+02
 0.48499994E+01 -0.12169E+02
 0.48999996E+01 -0.12885E+02
 0.49499998E+01 -0.13337E+02
 0.49999995E+01 -0.13346E+02
 0.50499997E+01 -0.12576E+02
 0.50999994E+01 -0.12631E+02
 0.51499996E+01 -0.12648E+02
 0.51999998E+01 -0.13558E+02
 0.52499995E+01 -0.14330E+02
 0.52999997E+01 -0.13744E+02
 0.53499994E+01 -0.12774E+02
 0.53999996E+01 -0.13554E+02
 0.54499993E+01 -0.13687E+02
 0.54999995E+01 -0.14259E+02
 0.55499997E+01 -0.14576E+02
 0.55999994E+01 -0.13502E+02
 0.56499996E+01 -0.12984E+02
 0.56999993E+01 -0.12663E+02
 0.57499995E+01 -0.14156E+02
 0.57999997E+01 -0.12741E+02
 0.58499994E+01 -0.12568E+02
 0.58999996E+01 -0.13972E+02
 0.59499993E+01 -0.12945E+02
 0.59999995E+01 -0.13733E+02
 0.60499992E+01 -0.13441E+02
 0.60999994E+01 -0.12677E+02
 0.61499996E+01 -0.13252E+02
 0.61999998E+01 -0.12137E+02
 0.62499990E+01 -0.13125E+02
 0.62999992E+01 -0.12443E+02
 0.63499994E+01 -0.12666E+02
 0.63999996E+01 -0.12792E+02
 0.64499998E+01 -0.12969E+02
 0.64999990E+01 -0.13513E+02
 0.65499992E+01 -0.13161E+02
 0.65999994E+01 -0.13410E+02
 0.66499996E+01 -0.12999E+02
 0.66999998E+01 -0.14057E+02
 0.67499990E+01 -0.12615E+02
 0.67999992E+01 -0.13316E+02
 0.68499994E+01 -0.13875E+02
 0.68999996E+01 -0.12830E+02
 0.69499998E+01 -0.13797E+02
 0.69999990E+01 -0.12492E+02
 0.70499992E+01 -0.12546E+02
 0.70999994E+01 -0.12402E+02
 0.71499996E+01 -0.11819E+02
 0.71999998E+01 -0.12317E+02
 0.72499990E+01 -0.12708E+02
 0.72999992E+01 -0.12847E+02
 0.73499994E+01 -0.11700E+02
 0.73999996E+01 -0.12487E+02
 0.74499998E+01 -0.12633E+02
 0.74999990E+01 -0.11426E+02
 0.75499992E+01 -0.11350E+02
 0.75999994E+01 -0.13157E+02
 0.76499996E+01 -0.12685E+02
 0.76999998E+01 -0.11931E+02
 0.77499990E+01 -0.12597E+02
 0.77999992E+01 -0.11743E+02
 0.78499994E+01 -0.12302E+02
 0.78999996E+01 -0.12225E+02
 0.79499998E+01 -0.11811E+02
 0.79999990E+01 -0.11599E+02
 0.80499992E+01 -0.11970E+02
 0.80999994E+01 -0.11990E+02
 0.81499996E+01 -0.10965E+02
 0.81999998E+01 -0.12465E+02
 0.82499990E+01 -0.11774E+02
 0.82999992E+01 -0.97113E+01
 0.83499994E+01 -0.12479E+02
 0.83999996E+01 -0.12231E+02
 0.84499998E+01 -0.11642E+02
 0.84999990E+01 -0.12402E+02
 0.85499992E+01 -0.10849E+02
 0.85999994E+01 -0.10528E+02
 0.86499996E+01 -0.11007E+02
 0.86999998E+01 -0.12605E+02
 0.87499990E+01 -0.12289E+02
 0.87999992E+01 -0.12094E+02
 0.88499994E+01 -0.11294E+02
 0.88999996E+01 -0.10418E+02
 0.89499998E+01 -0.11938E+02
 0.89999990E+01 -0.12100E+02
 0.90499992E+01 -0.11102E+02
 0.90999994E+01 -0.11860E+02
 0.91499996E+01 -0.11518E+02
 0.91999989E+01 -0.11374E+02
 0.92499990E+01 -0.10161E+02
 0.92999992E+01 -0.11104E+02
 0.93499994E+01 -0.11545E+02
 0.93999996E+01 -0.10614E+02
 0.94499989E+01 -0.12449E+02
 0.94999990E+01 -0.11953E+02
 0.95499992E+01 -0.11501E+02
 0.95999994E+01 -0.11180E+02
 0.96499996E+01 -0.12546E+02
 0.96999989E+01 -0.11291E+02
 0.97499990E+01 -0.10849E+02
 0.97999992E+01 -0.11231E+02
 0.98499994E+01 -0.12308E+02
 0.98999996E+01 -0.12617E+02
 0.99499989E+01 -0.10990E+02
 0.99999990E+01 -0.12375E+02
 0.10049999E+02 -0.11951E+02
 0.10099999E+02 -0.12814E+02
 0.10150000E+02 -0.12453E+02
 0.10199999E+02 -0.11801E+02
 0.10249999E+02 -0.12984E+02
 0.10299999E+02 -0.11853E+02
 0.10349999E+02 -0.11805E+02
 0.10400000E+02 -0.11795E+02
 0.10449999E+02 -0.12888E+02
 0.10499999E+02 -0.12487E+02
 0.10549999E+02 -0.12457E+02
 0.10599999E+02 -0.12012E+02
 0.10650000E+02 -0.11061E+02
 0.10699999E+02 -0.11734E+02
 0.10749999E+02 -0.12364E+02
 0.10799999E+02 -0.12352E+02
 0.10849999E+02 -0.12032E+02
 0.10900000E+02 -0.12679E+02
 0.10949999E+02 -0.11944E+02
 0.10999999E+02 -0.14220E+02
 0.11049999E+02 -0.13115E+02
 0.11099999E+02 -0.12064E+02
 0.11150000E+02 -0.11826E+02
 0.11199999E+02 -0.12375E+02
 0.11249999E+02 -0.12669E+02
 0.11299999E+02 -0.12442E+02
 0.11349999E+02 -0.12742E+02
 0.11400000E+02 -0.11912E+02
 0.11449999E+02 -0.13596E+02
 0.11499999E+02 -0.12114E+02
 0.11549999E+02 -0.11923E+02
 0.11599999E+02 -0.13256E+02
 0.11650000E+02 -0.13855E+02
 0.11699999E+02 -0.13124E+02
 0.11749999E+02 -0.12971E+02
 0.11799999E+02 -0.12549E+02
 0.11849999E+02 -0.13425E+02
 0.11900000E+02 -0.12904E+02
 0.11949999E+02 -0.12081E+02
 0.11999999E+02 -0.12325E+02
 0.12049999E+02 -0.11829E+02
 0.12099999E+02 -0.11994E+02
 0.12150000E+02 -0.12173E+02
 0.12199999E+02 -0.11819E+02
 0.12249999E+02 -0.11843E+02
 0.12299999E+02 -0.13158E+02
 0.12349999E+02 -0.10111E+02
 0.12400000E+02 -0.10815E+02
 0.12449999E+02 -0.12007E+02
 0.12499999E+02 -0.11266E+02
 0.12549999E+02 -0.12634E+02
 0.12599999E+02 -0.11007E+02
 0.12649999E+02 -0.12036E+02
 0.12699999E+02 -0.12064E+02
 0.12749999E+02 -0.11812E+02
 0.12799999E+02 -0.11086E+02
 0.12849999E+02 -0.10604E+02
 0.12899999E+02 -0.11786E+02
 0.12949999E+02 -0.11724E+02
 0.12999999E+02 -0.12257E+02
 0.13049999E+02 -0.12346E+02
 0.13099999E+02 -0.11970E+02
 0.13149999E+02 -0.10822E+02
 0.13199999E+02 -0.11678E+02
 0.13249999E+02 -0.11594E+02
 0.13299999E+02 -0.12499E+02
 0.13349999E+02 -0.11725E+02
 0.13399999E+02 -0.12451E+02
 0.13449999E+02 -0.12232E+02
 0.13499999E+02 -0.10443E+02
 0.13549999E+02 -0.12051E+02
 0.13599999E+02 -0.12986E+02
 0.13649999E+02 -0.11599E+02
 0.13699999E+02 -0.10713E+02
 0.13749999E+02 -0.11616E+02
 0.13799999E+02 -0.12051E+02
 0.13849999E+02 -0.11731E+02
 0.13899999E+02 -0.11530E+02
 0.13949999E+02 -0.11201E+02
 0.13999999E+02 -0.11352E+02
 0.14049999E+02 -0.11414E+02
 0.14099998E+02 -0.11500E+02
 0.14150000E+02 -0.12280E+02
 0.14199999E+02 -0.11839E+02
 0.14249998E+02 -0.13345E+02
 0.14299999E+02 -0.12653E+02
 0.14349998E+02 -0.13644E+02
 0.14400000E+02 -0.13260E+02
 0.14449999E+02 -0.12108E+02
 0.14499998E+02 -0.13785E+02
 0.14549999E+02 -0.11861E+02
 0.14599998E+02 -0.13232E+02
 0.14650000E+02 -0.12899E+02
 0.14699999E+02 -0.12210E+02
 0.14749998E+02 -0.12082E+02
 0.14799999E+02 -0.10979E+02
 0.14849998E+02 -0.11263E+02
 0.14900000E+02 -0.12371E+02
 0.14949999E+02 -0.13646E+02
 0.14999998E+02 -0.12007E+02
 0.15049999E+02 -0.11477E+02
 0.15099998E+02 -0.11276E+02
 0.15150000E+02 -0.11133E+02
 0.15199999E+02 -0.10848E+02
 0.15249998E+02 -0.12320E+02
 0.15299999E+02 -0.11900E+02
 0.15349998E+02 -0.12522E+02
 0.15400000E+02 -0.12315E+02
 0.15449999E+02 -0.12698E+02
 0.15499998E+02 -0.13861E+02
 0.15549999E+02 -0.12238E+02
 0.15599998E+02 -0.13279E+02
 0.15650000E+02 -0.12350E+02
 0.15699999E+02 -0.12972E+02
 0.15749998E+02 -0.12347E+02
 0.15799999E+02 -0.12124E+02
 0.15849998E+02 -0.12963E+02
 0.15900000E+02 -0.11075E+02
 0.15949999E+02 -0.12644E+02
 0.15999998E+02 -0.12359E+02
 0.16049999E+02 -0.12190E+02
 0.16099998E+02 -0.11195E+02
 0.16150000E+02 -0.11691E+02
 0.16199999E+02 -0.12220E+02
 0.16249998E+02 -0.97627E+01
 0.16299999E+02 -0.11765E+02
 0.16349998E+02 -0.11042E+02
 0.16400000E+02 -0.11481E+02
 0.16449999E+02 -0.10659E+02
 0.16499998E+02 -0.10693E+02
 0.16549999E+02 -0.11063E+02
 0.16599998E+02 -0.97930E+01
 0.16650000E+02 -0.10770E+02
 0.16699999E+02 -0.10388E+02
 0.16749998E+02 -0.10933E+02
 0.16799999E+02 -0.11084E+02
 0.16849998E+02 -0.10749E+02
 0.16900000E+02 -0.10392E+02
 0.16949999E+02 -0.11222E+02
 0.16999998E+02 -0.10675E+02
 0.17049999E+02 -0.10381E+02
 0.17099998E+02 -0.10948E+02
 0.17150000E+02 -0.99058E+01
 0.17199999E+02 -0.11305E+02
 0.17249998E+02 -0.10406E+02
 0.17299999E+02 -0.10664E+02
 0.17349998E+02 -0.12870E+02
 0.17400000E+02 -0.10974E+02
 0.17449999E+02 -0.10535E+02
 0.17499998E+02 -0.11548E+02
 0.17549999E+02 -0.11749E+02
 0.17599998E+02 -0.11033E+02
 0.17650000E+02 -0.11099E+02
 0.17699999E+02 -0.11191E+02
 0.17749998E+02 -0.12385E+02
 0.17799999E+02 -0.12111E+02
 0.17849998E+02 -0.12738E+02
 0.17900000E+02 -0.12721E+02
 0.17949999E+02 -0.12962E+02
 0.17999998E+02 -0.12629E+02
 0.18049999E+02 -0.98509E+01
 0.18099998E+02 -0.11897E+02
 0.18150000E+02 -0.10977E+02
 0.18199999E+02 -0.11137E+02
 0.18249998E+02 -0.11484E+02
 0.18299999E+02 -0.10708E+02
 0.18349998E+02 -0.11272E+02
 0.18400000E+02 -0.11075E+02
 0.18449999E+02 -0.11415E+02
 0.18499998E+02 -0.11444E+02
 0.18549999E+02 -0.11633E+02
 0.18599998E+02 -0.11593E+02
 0.18650000E+02 -0.12142E+02
 0.18699999E+02 -0.10358E+02
 0.18749998E+02 -0.11939E+02
 0.18799999E+02 -0.12592E+02
 0.18849998E+02 -0.11463E+02
 0.18900000E+02 -0.11435E+02
 0.18949999E+02 -0.12086E+02
 0.18999998E+02 -0.12404E+02
 0.19049999E+02 -0.11564E+02
 0.19099998E+02 -0.12839E+02
 0.19150000E+02 -0.12507E+02
 0.19199999E+02 -0.11648E+02
 0.19249998E+02 -0.12001E+02
 0.19299999E+02 -0.12828E+02
 0.19349998E+02 -0.11680E+02
 0.19400000E+02 -0.11901E+02
 0.19449999E+02 -0.12004E+02
 0.19499998E+02 -0.11409E+02
 0.19549999E+02 -0.11354E+02
 0.19599998E+02 -0.11740E+02
 0.19650000E+02 -0.11725E+02
 0.19699999E+02 -0.11974E+02
 0.19749998E+02 -0.11359E+02
 0.19799999E+02 -0.10264E+02
 0.19849998E+02 -0.12482E+02
 0.19900000E+02 -0.11498E+02
 0.19949999E+02 -0.11329E+02
 0.19999998E+02 -0.12133E+02
 0.20049999E+02 -0.11905E+02
 0.20099998E+02 -0.11720E+02
 0.20150000E+02 -0.11534E+02
 0.20199999E+02 -0.12702E+02
 0.20249998E+02 -0.11079E+02
 0.20299999E+02 -0.11170E+02
 0.20349998E+02 -0.12800E+02
 0.20399998E+02 -0.12001E+02
 0.20449999E+02 -0.11722E+02
 0.20499998E+02 -0.12869E+02
 0.20549999E+02 -0.13041E+02
 0.20599998E+02 -0.12830E+02
 0.20649998E+02 -0.13202E+02
 0.20699999E+02 -0.13543E+02
 0.20749998E+02 -0.12263E+02
 0.20799999E+02 -0.12640E+02
 0.20849998E+02 -0.13001E+02
 0.20899998E+02 -0.11611E+02
 0.20949999E+02 -0.12482E+02
 0.20999998E+02 -0.11096E+02
 0.21049999E+02 -0.10768E+02
 0.21099998E+02 -0.12947E+02
 0.21149998E+02 -0.11601E+02
 0.21199999E+02 -0.10654E+02
 0.21249998E+02 -0.11259E+02
 0.21299999E+02 -0.12347E+02
 0.21349998E+02 -0.11593E+02
 0.21399998E+02 -0.11993E+02
 0.21449999E+02 -0.12142E+02
 0.21499998E+02 -0.12806E+02
 0.21549999E+02 -0.13423E+02
 0.21599998E+02 -0.11088E+02
 0.21649998E+02 -0.12330E+02
 0.21699999E+02 -0.12489E+02
 0.21749998E+02 -0.12235E+02
 0.21799999E+02 -0.12245E+02
 0.21849998E+02 -0.12452E+02
 0.21899998E+02 -0.10828E+02
 0.21949999E+02 -0.10812E+02
 0.21999998E+02 -0.11247E+02
 0.22049999E+02 -0.10401E+02
 0.22099998E+02 -0.12327E+02
 0.22149998E+02 -0.10850E+02
 0.22199999E+02 -0.11037E+02
 0.22249998E+02 -0.11101E+02
 0.22299999E+02 -0.10431E+02
 0.22349998E+02 -0.11217E+02
 0.22399998E+02 -0.10780E+02
 0.22449999E+02 -0.10848E+02
 0.22499998E+02 -0.11120E+02
 0.22549999E+02 -0.11888E+02
 0.22599998E+02 -0.11718E+02
 0.22649998E+02 -0.10593E+02
 0.22699999E+02 -0.11587E+02
 0.22749998E+02 -0.12139E+02
 0.22799999E+02 -0.12936E+02
 0.22849998E+02 -0.12688E+02
 0.22899998E+02 -0.12172E+02
 0.22949999E+02 -0.12979E+02
 0.22999998E+02 -0.11749E+02
 0.23049999E+02 -0.11259E+02
 0.23099998E+02 -0.10431E+02
 0.23149998E+02 -0.10702E+02
 0.23199999E+02 -0.11533E+02
 0.23249998E+02 -0.11948E+02
 0.23299999E+02 -0.12570E+02
 0.23349998E+02 -0.12562E+02
 0.23399998E+02 -0.10826E+02
 0.23449999E+02 -0.11302E+02
 0.23499998E+02 -0.11213E+02
 0.23549999E+02 -0.11131E+02
 0.23599998E+02 -0.12749E+02
 0.23649998E+02 -0.11826E+02
 0.23699999E+02 -0.11695E+02
 0.23749998E+02 -0.11589E+02
 0.23799999E+02 -0.12325E+02
 0.23849998E+02 -0.12552E+02
 0.23899998E+02 -0.12036E+02
 0.23949999E+02 -0.11103E+02
 0.23999998E+02 -0.12301E+02
 0.24049999E+02 -0.11574E+02
 0.24099998E+02 -0.11059E+02
 0.24149998E+02 -0.11486E+02
 0.24199999E+02 -0.12187E+02
 0.24249998E+02 -0.12959E+02
 0.24299999E+02 -0.12075E+02
 0.24349998E+02 -0.13162E+02
 0.24399998E+02 -0.13440E+02
 0.24449999E+02 -0.12078E+02
 0.24499998E+02 -0.11483E+02
 0.24549999E+02 -0.12298E+02
 0.24599998E+02 -0.11350E+02
 0.24649998E+02 -0.11241E+02
 0.24699999E+02 -0.11152E+02
 0.24749998E+02 -0.11704E+02
 0.24799999E+02 -0.11240E+02
 0.24849998E+02 -0.98567E+01
 0.24899998E+02 -0.11563E+02
 0.24949999E+02 -0.11192E+02
 0.24999998E+02 -0.10198E+02
 0.25049999E+02 -0.10020E+02
 0.25099998E+02 -0.92539E+01
 0.25149998E+02 -0.98121E+01
 0.25199999E+02 -0.98540E+01
 0.25249998E+02 -0.10736E+02
 0.25299999E+02 -0.10763E+02
 0.25349998E+02 -0.10973E+02
 0.25399998E+02 -0.12064E+02
 0.25449999E+02 -0.11458E+02
 0.25499998E+02 -0.10739E+02
 0.25549999E+02 -0.10443E+02
 0.25599998E+02 -0.10350E+02
 0.25649998E+02 -0.11445E+02
 0.25699999E+02 -0.12281E+02
 0.25749998E+02 -0.11545E+02
 0.25799999E+02 -0.12465E+02
 0.25849998E+02 -0.11846E+02
 0.25899998E+02 -0.11659E+02
 0.25949999E+02 -0.11605E+02
 0.25999998E+02 -0.11272E+02
 0.26049999E+02 -0.11953E+02
 0.26099998E+02 -0.12093E+02
 0.26149998E+02 -0.12236E+02
 0.26199999E+02 -0.11673E+02
 0.26249998E+02 -0.11729E+02
 0.26299999E+02 -0.11631E+02
 0.26349998E+02 -0.11789E+02
 0.26399998E+02 -0.12114E+02
 0.26449999E+02 -0.12370E+02
 0.26499998E+02 -0.12795E+02
 0.26549999E+02 -0.13364E+02
 0.26599998E+02 -0.13036E+02
 0.26649998E+02 -0.12274E+02
 0.26699999E+02 -0.10868E+02
 0.26749998E+02 -0.10965E+02
 0.26799999E+02 -0.10909E+02
 0.26849998E+02 -0.11432E+02
 0.26899998E+02 -0.11081E+02
 0.26949999E+02 -0.10931E+02
 0.26999998E+02 -0.12339E+02
 0.27049997E+02 -0.10428E+02
 0.27099998E+02 -0.10059E+02
 0.27149998E+02 -0.11247E+02
 0.27199999E+02 -0.12031E+02
 0.27249998E+02 -0.11927E+02
 0.27299997E+02 -0.12169E+02
 0.27349998E+02 -0.10900E+02
 0.27399998E+02 -0.11551E+02
 0.27449999E+02 -0.12076E+02
 0.27499998E+02 -0.10937E+02
 0.27549997E+02 -0.10965E+02
 0.27599998E+02 -0.12054E+02
 0.27649998E+02 -0.11919E+02
 0.27699999E+02 -0.11220E+02
 0.27749998E+02 -0.12589E+02
 0.27799997E+02 -0.10789E+02
 0.27849998E+02 -0.11877E+02
 0.27899998E+02 -0.13199E+02
 0.27949999E+02 -0.11756E+02
 0.27999998E+02 -0.11061E+02
 0.28049997E+02 -0.10885E+02
 0.28099998E+02 -0.11533E+02
 0.28149998E+02 -0.11646E+02
 0.28199999E+02 -0.11472E+02
 0.28249998E+02 -0.11742E+02
 0.28299997E+02 -0.12002E+02
 0.28349998E+02 -0.12638E+02
 0.28399998E+02 -0.12715E+02
 0.28449999E+02 -0.98719E+01
 0.28499998E+02 -0.11087E+02
 0.28549997E+02 -0.10525E+02
 0.28599998E+02 -0.11865E+02
 0.28649998E+02 -0.13320E+02
 0.28699999E+02 -0.11229E+02
 0.28749998E+02 -0.10839E+02
 0.28799997E+02 -0.11328E+02
 0.28849998E+02 -0.12413E+02
 0.28899998E+02 -0.11212E+02
 0.28949999E+02 -0.13717E+02
 0.28999998E+02 -0.12929E+02
 0.29049997E+02 -0.13048E+02
 0.29099998E+02 -0.11423E+02
 0.29149998E+02 -0.11416E+02
 0.29199999E+02 -0.12216E+02
 0.29249998E+02 -0.11770E+02
 0.29299997E+02 -0.11340E+02
 0.29349998E+02 -0.11307E+02
 0.29399998E+02 -0.12624E+02
 0.29449999E+02 -0.12694E+02
 0.29499998E+02 -0.13010E+02
 0.29549997E+02 -0.10811E+02
 0.29599998E+02 -0.12007E+02
 0.29649998E+02 -0.11255E+02
 0.29699999E+02 -0.11597E+02
 0.29749998E+02 -0.12201E+02
 0.29799997E+02 -0.11770E+02
 0.29849998E+02 -0.12773E+02
 0.29899998E+02 -0.12483E+02
 0.29949999E+02 -0.12356E+02
 0.29999998E+02 -0.12246E+02
 0.30049999E+02 -0.11980E+02
 0.30099998E+02 -0.13332E+02
 0.30149998E+02 -0.11692E+02
 0.30199997E+02 -0.10345E+02
 0.30249996E+02 -0.11252E+02
 0.30299999E+02 -0.11115E+02
 0.30349998E+02 -0.11829E+02
 0.30399998E+02 -0.10869E+02
 0.30449997E+02 -0.11900E+02
 0.30499996E+02 -0.12056E+02
 0.30549999E+02 -0.10991E+02
 0.30599998E+02 -0.11767E+02
 0.30649998E+02 -0.11339E+02
 0.30699997E+02 -0.11455E+02
 0.30749996E+02 -0.10778E+02
 0.30799999E+02 -0.11453E+02
 0.30849998E+02 -0.10484E+02
 0.30899998E+02 -0.99632E+01
 0.30949997E+02 -0.10907E+02
 0.30999996E+02 -0.10073E+02
 0.31049999E+02 -0.11416E+02
 0.31099998E+02 -0.10459E+02
 0.31149998E+02 -0.96756E+01
 0.31199997E+02 -0.95388E+01
 0.31249996E+02 -0.95968E+01
 0.31299999E+02 -0.11022E+02
 0.31349998E+02 -0.12109E+02
 0.31399998E+02 -0.12883E+02
 0.31449997E+02 -0.11774E+02
 0.31499996E+02 -0.11264E+02
 0.31549999E+02 -0.13061E+02
 0.31599998E+02 -0.12258E+02
 0.31649998E+02 -0.11633E+02
 0.31699997E+02 -0.11812E+02
 0.31749996E+02 -0.12224E+02
 0.31799999E+02 -0.12176E+02
 0.31849998E+02 -0.11233E+02
 0.31899998E+02 -0.11120E+02
 0.31949997E+02 -0.11126E+02
 0.31999996E+02 -0.10642E+02
 0.32049999E+02 -0.11694E+02
 0.32099998E+02 -0.11567E+02
 0.32149998E+02 -0.10029E+02
 0.32199997E+02 -0.13141E+02
 0.32249996E+02 -0.11886E+02
 0.32299999E+02 -0.11485E+02
 0.32349998E+02 -0.12043E+02
 0.32399998E+02 -0.11440E+02
 0.32449997E+02 -0.12390E+02
 0.32499996E+02 -0.11523E+02
 0.32549999E+02 -0.11416E+02
 0.32599998E+02 -0.10296E+02
 0.32649998E+02 -0.11407E+02
 0.32699997E+02 -0.11595E+02
 0.32749996E+02 -0.11421E+02
 0.32799999E+02 -0.11429E+02
 0.32849998E+02 -0.12391E+02
 0.32899998E+02 -0.12421E+02
 0.32949997E+02 -0.12727E+02
 0.32999996E+02 -0.12216E+02
 0.33049999E+02 -0.10438E+02
 0.33099998E+02 -0.12810E+02
 0.33149998E+02 -0.11866E+02
 0.33199997E+02 -0.12323E+02
 0.33249996E+02 -0.11945E+02
 0.33299999E+02 -0.11235E+02
 0.33349998E+02 -0.98999E+01
 0.33399998E+02 -0.10257E+02
 0.33449997E+02 -0.11527E+02
 0.33499996E+02 -0.11059E+02
 0.33549999E+02 -0.12647E+02
 0.33599998E+02 -0.11208E+02
 0.33649998E+02 -0.12142E+02
 0.33699997E+02 -0.11660E+02
 0.33749996E+02 -0.12006E+02
 0.33799999E+02 -0.11578E+02
 0.33849998E+02 -0.10998E+02
 0.33899998E+02 -0.12244E+02
 0.33949997E+02 -0.10978E+02
 0.33999996E+02 -0.12951E+02
 0.34049999E+02 -0.11814E+02
 0.34099998E+02 -0.11251E+02
 0.34149998E+02 -0.11603E+02
 0.34199997E+02 -0.10790E+02
 0.34249996E+02 -0.11597E+02
 0.34299999E+02 -0.10908E+02
 0.34349998E+02 -0.11777E+02
 0.34399998E+02 -0.12092E+02
 0.34449997E+02 -0.10517E+02
 0.34499996E+02 -0.10825E+02
 0.34549999E+02 -0.11564E+02
 0.34599998E+02 -0.11509E+02
 0.34649998E+02 -0.11357E+02
 0.34699997E+02 -0.11313E+02
 0.34749996E+02 -0.10914E+02
 0.34799999E+02 -0.10997E+02
 0.34849998E+02 -0.11066E+02
 0.34899998E+02 -0.11565E+02
 0.34949997E+02 -0.11384E+02
 0.34999996E+02 -0.11349E+02
 0.35049999E+02 -0.11646E+02
 0.35099998E+02 -0.11173E+02
 0.35149998E+02 -0.11173E+02
 0.35199997E+02 -0.11826E+02
 0.35249996E+02 -0.12665E+02
 0.35299999E+02 -0.10282E+02
 0.35349998E+02 -0.10931E+02
 0.35399998E+02 -0.12314E+02
 0.35449997E+02 -0.11168E+02
 0.35499996E+02 -0.11336E+02
 0.35549999E+02 -0.11618E+02
 0.35599998E+02 -0.12227E+02
 0.35649998E+02 -0.11931E+02
 0.35699997E+02 -0.11279E+02
 0.35749996E+02 -0.12350E+02
 0.35799999E+02 -0.12386E+02
 0.35849998E+02 -0.12220E+02
 0.35899998E+02 -0.12224E+02
 0.35949997E+02 -0.11018E+02
 0.35999996E+02 -0.10284E+02
 0.36049999E+02 -0.11504E+02
 0.36099998E+02 -0.13102E+02
 0.36149998E+02 -0.12186E+02
 0.36199997E+02 -0.11800E+02
 0.36249996E+02 -0.12270E+02
 0.36299999E+02 -0.12924E+02
 0.36349998E+02 -0.12350E+02
 0.36399998E+02 -0.11717E+02
 0.36449997E+02 -0.12141E+02
 0.36499996E+02 -0.10997E+02
 0.36549999E+02 -0.11525E+02
 0.36599998E+02 -0.12089E+02
 0.36649998E+02 -0.11406E+02
 0.36699997E+02 -0.11600E+02
 0.36749996E+02 -0.11379E+02
 0.36799999E+02 -0.12962E+02
 0.36849998E+02 -0.11585E+02
 0.36899998E+02 -0.12459E+02
 0.36949997E+02 -0.12084E+02
 0.36999996E+02 -0.10164E+02
 0.37049999E+02 -0.11305E+02
 0.37099998E+02 -0.11488E+02
 0.37149998E+02 -0.12274E+02
 0.37199997E+02 -0.10998E+02
 0.37249996E+02 -0.10589E+02
 0.37299999E+02 -0.11388E+02
 0.37349998E+02 -0.11118E+02
 0.37399998E+02 -0.11199E+02
 0.37449997E+02 -0.11545E+02
 0.37499996E+02 -0.12280E+02
 0.37549999E+02 -0.12913E+02
 0.37599998E+02 -0.12870E+02
 0.37649998E+02 -0.12617E+02
 0.37699997E+02 -0.12819E+02
 0.37749996E+02 -0.13007E+02
 0.37799999E+02 -0.11603E+02
 0.37849998E+02 -0.11323E+02
 0.37899998E+02 -0.10668E+02
 0.37949997E+02 -0.11899E+02
 0.37999996E+02 -0.11461E+02
 0.38049999E+02 -0.11041E+02
 0.38099998E+02 -0.11243E+02
 0.38149998E+02 -0.12155E+02
 0.38199997E+02 -0.10695E+02
 0.38249996E+02 -0.10597E+02
 0.38299999E+02 -0.11771E+02
 0.38349998E+02 -0.11619E+02
 0.38399998E+02 -0.11608E+02
 0.38449997E+02 -0.10871E+02
 0.38499996E+02 -0.12617E+02
 0.38549999E+02 -0.11059E+02
 0.38599998E+02 -0.12326E+02
 0.38649998E+02 -0.11664E+02
 0.38699997E+02 -0.10381E+02
 0.38749996E+02 -0.10627E+02
 0.38799999E+02 -0.12134E+02
 0.38849998E+02 -0.11213E+02
 0.38899998E+02 -0.12020E+02
 0.38949997E+02 -0.13195E+02
 0.38999996E+02 -0.11171E+02
 0.39049999E+02 -0.11555E+02
 0.39099998E+02 -0.11867E+02
 0.39149998E+02 -0.11693E+02
 0.39199997E+02 -0.11944E+02
 0.39249996E+02 -0.11552E+02
 0.39299999E+02 -0.11148E+02
 0.39349998E+02 -0.11835E+02
 0.39399998E+02 -0.11027E+02
 0.39449997E+02 -0.11880E+02
 0.39499996E+02 -0.11266E+02
 0.39549999E+02 -0.13434E+02
 0.39599998E+02 -0.11999E+02
 0.39649998E+02 -0.10663E+02
 0.39699997E+02 -0.12313E+02
 0.39749996E+02 -0.10253E+02
 0.39799999E+02 -0.10207E+02
 0.39849998E+02 -0.10102E+02
 0.39899998E+02 -0.11645E+02
 0.39949997E+02 -0.10686E+02
 0.39999996E+02 -0.92443E+01
 0.40049999E+02 -0.12263E+02
 0.40099998E+02 -0.12780E+02
 0.40149998E+02 -0.11054E+02
 0.40199997E+02 -0.10804E+02
 0.40249996E+02 -0.11995E+02
 0.40299999E+02 -0.12318E+02
 0.40349998E+02 -0.10823E+02
 0.40399998E+02 -0.11637E+02
 0.40449997E+02 -0.14083E+02
 0.40499996E+02 -0.13392E+02
 0.40549999E+02 -0.12372E+02
 0.40599998E+02 -0.12267E+02
 0.40649998E+02 -0.12976E+02
 0.40699997E+02 -0.12057E+02
 0.40749996E+02 -0.11437E+02
 0.40799999E+02 -0.14308E+02
 0.40849998E+02 -0.12991E+02
 0.40899998E+02 -0.10998E+02
 0.40949997E+02 -0.11486E+02
 0.40999996E+02 -0.11605E+02
 0.41049999E+02 -0.11273E+02
 0.41099998E+02 -0.11455E+02
 0.41149998E+02 -0.11141E+02
 0.41199997E+02 -0.12013E+02
 0.41249996E+02 -0.12328E+02
 0.41299999E+02 -0.11229E+02
 0.41349998E+02 -0.11827E+02
 0.41399998E+02 -0.10919E+02
 0.41449997E+02 -0.10566E+02
 0.41499996E+02 -0.11254E+02
 0.41549999E+02 -0.11494E+02
 0.41599998E+02 -0.99920E+01
 0.41649998E+02 -0.11119E+02
 0.41699997E+02 -0.11058E+02
 0.41749996E+02 -0.91579E+01
 0.41799999E+02 -0.10888E+02
 0.41849998E+02 -0.11058E+02
 0.41899998E+02 -0.11596E+02
 0.41949997E+02 -0.12242E+02
 0.41999996E+02 -0.10745E+02
 0.42049999E+02 -0.95090E+01
 0.42099998E+02 -0.11216E+02
 0.42149998E+02 -0.10788E+02
 0.42199997E+02 -0.10058E+02
 0.42249996E+02 -0.11137E+02
 0.42299999E+02 -0.10999E+02
 0.42349998E+02 -0.11809E+02
 0.42399998E+02 -0.11979E+02
 0.42449997E+02 -0.11841E+02
 0.42499996E+02 -0.11789E+02
 0.42549999E+02 -0.10969E+02
 0.42599998E+02 -0.12419E+02
 0.42649998E+02 -0.10962E+02
 0.42699997E+02 -0.10538E+02
 0.42749996E+02 -0.12095E+02
 0.42799995E+02 -0.10474E+02
 0.42849998E+02 -0.11456E+02
 0.42899998E+02 -0.11527E+02
 0.42949997E+02 -0.11959E+02
 0.42999996E+02 -0.12882E+02
 0.43049995E+02 -0.11366E+02
 0.43099998E+02 -0.86992E+01
 0.43149998E+02 -0.10410E+02
 0.43199997E+02 -0.92030E+01
 0.43249996E+02 -0.10511E+02
 0.43299995E+02 -0.13895E+02
 0.43349998E+02 -0.13340E+02
 0.43399998E+02 -0.11195E+02
 0.43449997E+02 -0.10578E+02
 0.43499996E+02 -0.13938E+02
 0.43549995E+02 -0.14381E+02
 0.43599998E+02 -0.12641E+02
 0.43649998E+02 -0.99393E+01
 0.43699997E+02 -0.10188E+02
 0.43749996E+02 -0.11879E+02
 0.43799995E+02 -0.14465E+02
 0.43849998E+02 -0.14664E+02
 0.43899998E+02 -0.14710E+02
 0.43949997E+02 -0.12879E+02
 0.43999996E+02 -0.11190E+02
 0.44049995E+02 -0.10773E+02
 0.44099998E+02 -0.92791E+01
 0.44149998E+02 -0.99932E+01
 0.44199997E+02 -0.11236E+02
 0.44249996E+02 -0.12783E+02
 0.44299995E+02 -0.12886E+02
 0.44349998E+02 -0.12759E+02
 0.44399998E+02 -0.94708E+01
 0.44449997E+02 -0.90076E+01
 0.44499996E+02 -0.12303E+02
 0.44549995E+02 -0.13731E+02
 0.44599998E+02 -0.11765E+02
 0.44649998E+02 -0.10284E+02
 0.44699997E+02 -0.12548E+02
 0.44749996E+02 -0.13603E+02
 0.44799995E+02 -0.14533E+02
 0.44849998E+02 -0.12885E+02
 0.44899998E+02 -0.11370E+02
 0.44949997E+02 -0.12901E+02
 0.44999996E+02 -0.95217E+01
 0.45049995E+02 -0.91107E+01
 0.45099998E+02 -0.93318E+01
 0.45149998E+02 -0.66742E+01
 0.45199997E+02 -0.89071E+01
 0.45249996E+02 -0.97659E+01
 0.45299995E+02 -0.98209E+01
 0.45349998E+02 -0.73425E+01
 0.45399998E+02 -0.84889E+01
 0.45449997E+02 -0.89315E+01
 0.45499996E+02 -0.73797E+01
 0.45549995E+02 -0.84459E+01
 0.45599998E+02 -0.98326E+01
 0.45649998E+02 -0.12436E+02
 0.45699997E+02 -0.87232E+01
 0.45749996E+02 -0.93630E+01
 0.45799995E+02 -0.12153E+02
 0.45849998E+02 -0.11350E+02
 0.45899998E+02 -0.12720E+02
 0.45949997E+02 -0.10744E+02
 0.45999996E+02 -0.10891E+02
 0.46049995E+02 -0.10799E+02
 0.46099998E+02 -0.11527E+02
 0.46149998E+02 -0.11779E+02
 0.46199997E+02 -0.10089E+02
 0.46249996E+02 -0.96574E+01
 0.46299995E+02 -0.12045E+02
 0.46349998E+02 -0.13694E+02
 0.46399998E+02 -0.98822E+01
 0.46449997E+02 -0.11232E+02
 0.46499996E+02 -0.10661E+02
 0.46549995E+02 -0.83200E+01
 0.46599998E+02 -0.90814E+01
 0.46649998E+02 -0.13543E+02
 0.46699997E+02 -0.16052E+02
 0.46749996E+02 -0.13242E+02
 0.46799995E+02 -0.12758E+02
 0.46849998E+02 -0.10428E+02
 0.46899998E+02 -0.84468E+01
 0.46949997E+02 -0.99654E+01
 0.46999996E+02 -0.12899E+02
 0.47049995E+02 -0.14051E+02
 0.47099998E+02 -0.10632E+02
 0.47149998E+02 -0.92632E+01
 0.47199997E+02 -0.93826E+01
 0.47249996E+02 -0.92151E+01
 0.47299995E+02 -0.88502E+01
 0.47349998E+02 -0.10172E+02
 0.47399998E+02 -0.14181E+02
 0.47449997E+02 -0.11446E+02
 0.47499996E+02 -0.11083E+02
 0.47549995E+02 -0.12771E+02
 0.47599998E+02 -0.12996E+02
 0.47649998E+02 -0.11306E+02
 0.47699997E+02 -0.87138E+01
 0.47749996E+02 -0.92706E+01
 0.47799995E+02 -0.85400E+01
 0.47849998E+02 -0.11801E+02
 0.47899998E+02 -0.12883E+02
 0.47949997E+02 -0.13591E+02
 0.47999996E+02 -0.14542E+02
 0.48049995E+02 -0.10420E+02
 0.48099998E+02 -0.94526E+01
 0.48149998E+02 -0.98176E+01
 0.48199997E+02 -0.11220E+02
 0.48249996E+02 -0.14197E+02
 0.48299995E+02 -0.13280E+02
 0.48349998E+02 -0.10476E+02
 0.48399998E+02 -0.88251E+01
 0.48449997E+02 -0.87665E+01
 0.48499996E+02 -0.88224E+01
 0.48549995E+02 -0.11783E+02
 0.48599998E+02 -0.13980E+02
 0.48649998E+02 -0.14142E+02
 0.48699997E+02 -0.14155E+02
 0.48749996E+02 -0.13980E+02
 0.48799995E+02 -0.13904E+02
 0.48849998E+02 -0.12891E+02
 0.48899998E+02 -0.12025E+02
 0.48949997E+02 -0.11725E+02
 0.48999996E+02 -0.11008E+02
 0.49049995E+02 -0.13362E+02
 0.49099998E+02 -0.14533E+02
 0.49149998E+02 -0.12552E+02
 0.49199997E+02 -0.12294E+02
 0.49249996E+02 -0.10992E+02
 0.49299995E+02 -0.10220E+02
 0.49349998E+02 -0.77812E+01
 0.49399998E+02 -0.89219E+01
 0.49449997E+02 -0.10987E+02
 0.49499996E+02 -0.97850E+01
 0.49549995E+02 -0.12015E+02
 0.49599998E+02 -0.11466E+02
 0.49649998E+02 -0.12477E+02
 0.49699997E+02 -0.12533E+02
 0.49749996E+02 -0.10558E+02
 0.49799995E+02 -0.10841E+02
 0.49849998E+02 -0.90108E+01
 0.49899998E+02 -0.12164E+02
 0.49949997E+02 -0.11831E+02
 0.49999996E+02 -0.12509E+02
 0.50049995E+02 -0.12261E+02
 0.50099998E+02 -0.12838E+02
 0.50149998E+02 -0.12881E+02
 0.50199997E+02 -0.11137E+02
 0.50249996E+02 -0.10954E+02
 0.50299995E+02 -0.87235E+01
 0.50349998E+02 -0.89946E+01
 0.50399998E+02 -0.80990E+01
 0.50449997E+02 -0.90862E+01
 0.50499996E+02 -0.11709E+02
 0.50549995E+02 -0.13675E+02
 0.50599998E+02 -0.12089E+02
 0.50649998E+02 -0.11412E+02
 0.50699997E+02 -0.11269E+02
 0.50749996E+02 -0.13121E+02
 0.50799995E+02 -0.11421E+02
 0.50849998E+02 -0.11873E+02
 0.50899998E+02 -0.14552E+02
 0.50949997E+02 -0.14300E+02
 0.50999996E+02 -0.13945E+02
 0.51049995E+02 -0.10748E+02
 0.51099998E+02 -0.74509E+01
 0.51149998E+02 -0.70969E+01
 0.51199997E+02 -0.72011E+01
 0.51249996E+02 -0.90120E+01
 0.51299995E+02 -0.11114E+02
 0.51349998E+02 -0.95592E+01
 0.51399998E+02 -0.11361E+02
 0.51449997E+02 -0.13409E+02
 0.51499996E+02 -0.15816E+02
 0.51549995E+02 -0.14827E+02
 0.51599998E+02 -0.13410E+02
 0.51649998E+02 -0.11290E+02
 0.51699997E+02 -0.99792E+01
 0.51749996E+02 -0.10867E+02
 0.51799995E+02 -0.11455E+02
 0.51849998E+02 -0.13445E+02
 0.51899998E+02 -0.12568E+02
 0.51949997E+02 -0.11065E+02
 0.51999996E+02 -0.10511E+02
 0.52049995E+02 -0.11905E+02
 0.52099998E+02 -0.12548E+02
 0.52149998E+02 -0.10982E+02
 0.52199997E+02 -0.10055E+02
 0.52249996E+02 -0.96825E+01
 0.52299995E+02 -0.10560E+02
 0.52349998E+02 -0.13213E+02
 0.52399998E+02 -0.13999E+02
 0.52449997E+02 -0.14960E+02
 0.52499996E+02 -0.11956E+02
 0.52549995E+02 -0.88505E+01
 0.52599998E+02 -0.74561E+01
 0.52649998E+02 -0.83430E+01
 0.52699997E+02 -0.12455E+02
 0.52749996E+02 -0.11951E+02
 0.52799995E+02 -0.11187E+02
 0.52849998E+02 -0.12747E+02
 0.52899998E+02 -0.15921E+02
 0.52949997E+02 -0.12237E+02
 0.52999996E+02 -0.88607E+01
 0.53049995E+02 -0.92115E+01
 0.53099998E+02 -0.10084E+02
 0.53149998E+02 -0.14033E+02
 0.53199997E+02 -0.15148E+02
 0.53249996E+02 -0.14549E+02
 0.53299995E+02 -0.12367E+02
 0.53349998E+02 -0.11435E+02
 0.53399998E+02 -0.12715E+02
 0.53449997E+02 -0.13749E+02
 0.53499996E+02 -0.12766E+02
 0.53549995E+02 -0.10440E+02
 0.53599998E+02 -0.10566E+02
 0.53649998E+02 -0.10009E+02
 0.53699997E+02 -0.94055E+01
 0.53749996E+02 -0.10914E+02
 0.53799995E+02 -0.10434E+02
 0.53849998E+02 -0.92717E+01
 0.53899998E+02 -0.11188E+02
 0.53949997E+02 -0.12060E+02
 0.53999996E+02 -0.12792E+02
 0.54049995E+02 -0.12579E+02
 0.54099998E+02 -0.11420E+02
 0.54149998E+02 -0.97994E+01
 0.54199997E+02 -0.71062E+01
 0.54249996E+02 -0.11227E+02
 0.54299995E+02 -0.12045E+02
 0.54349998E+02 -0.11816E+02
 0.54399998E+02 -0.12411E+02
 0.54449997E+02 -0.11709E+02
 0.54499996E+02 -0.14398E+02
 0.54549995E+02 -0.14051E+02
 0.54599998E+02 -0.12999E+02
 0.54649998E+02 -0.12334E+02
 0.54699997E+02 -0.12992E+02
 0.54749996E+02 -0.13766E+02
 0.54799995E+02 -0.14653E+02
 0.54849998E+02 -0.12951E+02
 0.54899998E+02 -0.11879E+02
 0.54949997E+02 -0.13735E+02
 0.54999996E+02 -0.11909E+02
 0.55049995E+02 -0.11122E+02
 0.55099998E+02 -0.88640E+01
 0.55149998E+02 -0.79083E+01
 0.55199997E+02 -0.92118E+01
 0.55249996E+02 -0.11178E+02
 0.55299995E+02 -0.13583E+02
 0.55349998E+02 -0.13815E+02
 0.55399998E+02 -0.13657E+02
 0.55449997E+02 -0.11823E+02
 0.55499996E+02 -0.97359E+01
 0.55549995E+02 -0.78313E+01
 0.55599998E+02 -0.68897E+01
 0.55649998E+02 -0.75552E+01
 0.55699997E+02 -0.99976E+01
 0.55749996E+02 -0.13348E+02
 0.55799995E+02 -0.14723E+02
 0.55849995E+02 -0.12725E+02
 0.55899998E+02 -0.11352E+02
 0.55949997E+02 -0.12529E+02
 0.55999996E+02 -0.13486E+02
 0.56049995E+02 -0.11437E+02
 0.56099995E+02 -0.12769E+02
 0.56149998E+02 -0.13952E+02
 0.56199997E+02 -0.13640E+02
 0.56249996E+02 -0.13662E+02
 0.56299995E+02 -0.12542E+02
 0.56349995E+02 -0.13261E+02
 0.56399998E+02 -0.12099E+02
 0.56449997E+02 -0.10918E+02
 0.56499996E+02 -0.83321E+01
 0.56549995E+02 -0.93143E+01
 0.56599995E+02 -0.10282E+02
 0.56649998E+02 -0.10628E+02
 0.56699997E+02 -0.11153E+02
 0.56749996E+02 -0.11269E+02
 0.56799995E+02 -0.11080E+02
 0.56849995E+02 -0.11074E+02
 0.56899998E+02 -0.12154E+02
 0.56949997E+02 -0.10922E+02
 0.56999996E+02 -0.93551E+01
 0.57049995E+02 -0.75148E+01
 0.57099995E+02 -0.82364E+01
 0.57149998E+02 -0.10685E+02
 0.57199997E+02 -0.15375E+02
 0.57249996E+02 -0.14518E+02
 0.57299995E+02 -0.14169E+02
 0.57349995E+02 -0.13853E+02
 0.57399998E+02 -0.12027E+02
 0.57449997E+02 -0.12006E+02
 0.57499996E+02 -0.13168E+02
 0.57549995E+02 -0.12929E+02
 0.57599995E+02 -0.11089E+02
 0.57649998E+02 -0.10012E+02
 0.57699997E+02 -0.85227E+01
 0.57749996E+02 -0.10296E+02
 0.57799995E+02 -0.10592E+02
 0.57849995E+02 -0.12108E+02
 0.57899998E+02 -0.10566E+02
 0.57949997E+02 -0.92310E+01
 0.57999996E+02 -0.10321E+02
 0.58049995E+02 -0.10566E+02
 0.58099995E+02 -0.10756E+02
 0.58149998E+02 -0.97898E+01
 0.58199997E+02 -0.91360E+01
 0.58249996E+02 -0.90007E+01
 0.58299995E+02 -0.11124E+02
 0.58349995E+02 -0.13927E+02
 0.58399998E+02 -0.14229E+02
 0.58449997E+02 -0.14646E+02
 0.58499996E+02 -0.14836E+02
 0.58549995E+02 -0.12255E+02
 0.58599995E+02 -0.12695E+02
 0.58649998E+02 -0.13709E+02
 0.58699997E+02 -0.12859E+02
 0.58749996E+02 -0.11889E+02
 0.58799995E+02 -0.13512E+02
 0.58849995E+02 -0.16792E+02
 0.58899998E+02 -0.16108E+02
 0.58949997E+02 -0.14203E+02
 0.58999996E+02 -0.13051E+02
 0.59049995E+02 -0.12030E+02
 0.59099995E+02 -0.81326E+01
 0.59149998E+02 -0.70326E+01
 0.59199997E+02 -0.99051E+01
 0.59249996E+02 -0.10490E+02
 0.59299995E+02 -0.10911E+02
 0.59349995E+02 -0.12622E+02
 0.59399998E+02 -0.12362E+02
 0.59449997E+02 -0.13293E+02
 0.59499996E+02 -0.13241E+02
 0.59549995E+02 -0.11330E+02
 0.59599995E+02 -0.12056E+02
 0.59649998E+02 -0.96792E+01
 0.59699997E+02 -0.10588E+02
 0.59749996E+02 -0.12578E+02
 0.59799995E+02 -0.13146E+02
 0.59849995E+02 -0.14324E+02
 0.59899998E+02 -0.14019E+02
 0.59949997E+02 -0.12499E+02
 0.59999996E+02 -0.94230E+01
 0.60049995E+02 -0.77120E+01
 0.60099995E+02 -0.88796E+01
 0.60149998E+02 -0.97079E+01
 0.60199997E+02 -0.87883E+01
 0.60249996E+02 -0.78261E+01
 0.60299995E+02 -0.10660E+02
 0.60349995E+02 -0.10768E+02
 0.60399998E+02 -0.80784E+01
 0.60449997E+02 -0.11865E+02
 0.60499996E+02 -0.14405E+02
 0.60549995E+02 -0.14150E+02
 0.60599995E+02 -0.13960E+02
 0.60649998E+02 -0.14270E+02
 0.60699997E+02 -0.11903E+02
 0.60749996E+02 -0.10529E+02
 0.60799995E+02 -0.10572E+02
 0.60849995E+02 -0.12160E+02
 0.60899998E+02 -0.13731E+02
 0.60949997E+02 -0.15101E+02
 0.60999996E+02 -0.16860E+02
 0.61049995E+02 -0.15246E+02
 0.61099995E+02 -0.14903E+02
 0.61149998E+02 -0.12840E+02
 0.61199997E+02 -0.95976E+01
 0.61249996E+02 -0.11882E+02
 0.61299995E+02 -0.14094E+02
 0.61349995E+02 -0.12727E+02
 0.61399998E+02 -0.14173E+02
 0.61449997E+02 -0.11398E+02
 0.61499996E+02 -0.11666E+02
 0.61549995E+02 -0.13912E+02
 0.61599995E+02 -0.13486E+02
 0.61649998E+02 -0.10999E+02
 0.61699997E+02 -0.10091E+02
 0.61749996E+02 -0.12555E+02
 0.61799995E+02 -0.10898E+02
 0.61849995E+02 -0.10173E+02
 0.61899998E+02 -0.11541E+02
 0.61949997E+02 -0.13237E+02
 0.61999996E+02 -0.14067E+02
 0.62049995E+02 -0.14069E+02
 0.62099998E+02 -0.10176E+02
 0.62149994E+02 -0.10534E+02
 0.62199997E+02 -0.13163E+02
 0.62249992E+02 -0.12478E+02
 0.62299995E+02 -0.11625E+02
 0.62349998E+02 -0.10817E+02
 0.62399994E+02 -0.10951E+02
 0.62449997E+02 -0.14667E+02
 0.62499992E+02 -0.13175E+02
 0.62549995E+02 -0.10540E+02
 0.62599998E+02 -0.80998E+01
 0.62649994E+02 -0.79692E+01
 0.62699997E+02 -0.97566E+01
 0.62749992E+02 -0.80433E+01
 0.62799995E+02 -0.11102E+02
 0.62849998E+02 -0.99362E+01
 0.62899994E+02 -0.10634E+02
 0.62949997E+02 -0.10296E+02
 0.62999992E+02 -0.78129E+01
 0.63049995E+02 -0.80219E+01
 0.63099998E+02 -0.84837E+01
 0.63149994E+02 -0.10036E+02
 0.63199997E+02 -0.10413E+02
 0.63249992E+02 -0.11050E+02
 0.63299995E+02 -0.13444E+02
 0.63349998E+02 -0.13898E+02
 0.63399994E+02 -0.14235E+02
 0.63449997E+02 -0.13839E+02
 0.63499992E+02 -0.11973E+02
 0.63549995E+02 -0.10971E+02
 0.63599998E+02 -0.11332E+02
 0.63649994E+02 -0.14289E+02
 0.63699997E+02 -0.13651E+02
 0.63749992E+02 -0.14627E+02
 0.63799995E+02 -0.15259E+02
 0.63849998E+02 -0.14811E+02
 0.63899994E+02 -0.15227E+02
 0.63949997E+02 -0.14282E+02
 0.63999992E+02 -0.14392E+02
 0.64049995E+02 -0.11975E+02
 0.64099998E+02 -0.12060E+02
 0.64149994E+02 -0.13741E+02
 0.64199997E+02 -0.11961E+02
 0.64249992E+02 -0.11264E+02
 0.64299995E+02 -0.10186E+02
 0.64349998E+02 -0.10903E+02
 0.64399994E+02 -0.13345E+02
 0.64449997E+02 -0.11249E+02
 0.64499992E+02 -0.12347E+02
 0.64549995E+02 -0.12010E+02
 0.64599998E+02 -0.95601E+01
 0.64649994E+02 -0.72080E+01
 0.64699997E+02 -0.60478E+01
 0.64749992E+02 -0.10062E+02
 0.64799995E+02 -0.12099E+02
 0.64849998E+02 -0.14214E+02
 0.64899994E+02 -0.10549E+02
 0.64949997E+02 -0.77132E+01
 0.64999992E+02 -0.51405E+01
 0.65049995E+02 -0.42776E+01
 0.65099998E+02 -0.95312E+01
 0.65149994E+02 -0.13301E+02
 0.65199997E+02 -0.13064E+02
 0.65249992E+02 -0.77896E+01
 0.65299995E+02 -0.66545E+01
 0.65349998E+02 -0.89136E+01
 0.65399994E+02 -0.10753E+02
 0.65449997E+02 -0.95075E+01
 0.65499992E+02 -0.82654E+01
 0.65549995E+02 -0.93105E+01
 0.65599998E+02 -0.13253E+02
 0.65649994E+02 -0.14749E+02
 0.65699997E+02 -0.13625E+02
 0.65749992E+02 -0.12991E+02
 0.65799995E+02 -0.12724E+02
 0.65849998E+02 -0.11311E+02
 0.65899994E+02 -0.99757E+01
 0.65949997E+02 -0.88047E+01
 0.65999992E+02 -0.86033E+01
 0.66049995E+02 -0.10202E+02
 0.66099998E+02 -0.11356E+02
 0.66149994E+02 -0.12331E+02
 0.66199997E+02 -0.11496E+02
 0.66249992E+02 -0.14015E+02
 0.66299995E+02 -0.12780E+02
 0.66349998E+02 -0.96357E+01
 0.66399994E+02 -0.82622E+01
 0.66449997E+02 -0.10537E+02
 0.66499992E+02 -0.12038E+02
 0.66549995E+02 -0.12052E+02
 0.66599998E+02 -0.98891E+01
 0.66649994E+02 -0.95709E+01
 0.66699997E+02 -0.13520E+02
 0.66749992E+02 -0.11792E+02
 0.66799995E+02 -0.99645E+01
 0.66849998E+02 -0.79946E+01
 0.66899994E+02 -0.76143E+01
 0.66949997E+02 -0.81700E+01
 0.66999992E+02 -0.59449E+01
 0.67049995E+02 -0.73535E+01
 0.67099998E+02 -0.11235E+02
 0.67149994E+02 -0.12769E+02
 0.67199997E+02 -0.12615E+02
 0.67249992E+02 -0.13459E+02
 0.67299995E+02 -0.13226E+02
 0.67349998E+02 -0.91131E+01
 0.67399994E+02 -0.99610E+01
 0.67449997E+02 -0.83177E+01
 0.67499992E+02 -0.83557E+01
 0.67549995E+02 -0.12169E+02
 0.67599998E+02 -0.10932E+02
 0.67649994E+02 -0.11708E+02
 0.67699997E+02 -0.95289E+01
 0.67749992E+02 -0.87210E+01
 0.67799995E+02 -0.99824E+01
 0.67849998E+02 -0.68561E+01
 0.67899994E+02 -0.88309E+01
 0.67949997E+02 -0.99789E+01
 0.67999992E+02 -0.72382E+01
 0.68049995E+02 -0.89837E+01
 0.68099998E+02 -0.92535E+01
 0.68149994E+02 -0.89663E+01
 0.68199997E+02 -0.11558E+02
 0.68249992E+02 -0.12094E+02
 0.68299995E+02 -0.11176E+02
 0.68349998E+02 -0.11339E+02
 0.68399994E+02 -0.12919E+02
 0.68449997E+02 -0.11977E+02
 0.68499992E+02 -0.96036E+01
 0.68549995E+02 -0.82968E+01
 0.68599998E+02 -0.10516E+02
 0.68649994E+02 -0.14106E+02
 0.68699997E+02 -0.11754E+02
 0.68749992E+02 -0.91386E+01
 0.68799995E+02 -0.76815E+01
 0.68849998E+02 -0.91367E+01
 0.68899994E+02 -0.12489E+02
 0.68949997E+02 -0.10982E+02
 0.68999992E+02 -0.11385E+02
 0.69049995E+02 -0.12413E+02
 0.69099998E+02 -0.12581E+02
 0.69149994E+02 -0.14394E+02
 0.69199997E+02 -0.13861E+02
 0.69249992E+02 -0.12695E+02
 0.69299995E+02 -0.11991E+02
 0.69349998E+02 -0.12634E+02
 0.69399994E+02 -0.13998E+02
 0.69449997E+02 -0.14764E+02
 0.69499992E+02 -0.16752E+02
 0.69549995E+02 -0.16415E+02
 0.69599998E+02 -0.13935E+02
 0.69649994E+02 -0.10423E+02
 0.69699997E+02 -0.73690E+01
 0.69749992E+02 -0.90965E+01
 0.69799995E+02 -0.12606E+02
 0.69849998E+02 -0.15389E+02
 0.69899994E+02 -0.14758E+02
 0.69949997E+02 -0.94942E+01
 0.69999992E+02 -0.97560E+01
 0.70049995E+02 -0.13056E+02
 0.70099998E+02 -0.15249E+02
 0.70149994E+02 -0.16156E+02
 0.70199997E+02 -0.10011E+02
 0.70249992E+02 -0.69881E+01
 0.70299995E+02 -0.51145E+01
 0.70349998E+02 -0.45548E+01
 0.70399994E+02 -0.84085E+01
 0.70449997E+02 -0.11112E+02
 0.70499992E+02 -0.13679E+02
 0.70549995E+02 -0.14907E+02
 0.70599998E+02 -0.14486E+02
 0.70649994E+02 -0.11684E+02
 0.70699997E+02 -0.13878E+02
 0.70749992E+02 -0.15727E+02
 0.70799995E+02 -0.13493E+02
 0.70849998E+02 -0.99573E+01
 0.70899994E+02 -0.68460E+01
 0.70949997E+02 -0.50630E+01
 0.70999992E+02 -0.15356E+01
 0.71049995E+02 -0.15673E+01
 0.71099998E+02 -0.38165E+01
 0.71149994E+02 -0.74484E+01
 0.71199997E+02 -0.10925E+02
 0.71249992E+02 -0.12186E+02
 0.71299995E+02 -0.97561E+01
 0.71349998E+02 -0.59444E+01
 0.71399994E+02 -0.11818E+01
 0.71449997E+02  0.34135E+01
 0.71499992E+02  0.51920E+01
 0.71549995E+02  0.15016E+01
 0.71599998E+02 -0.37162E+01
 0.71649994E+02 -0.80659E+01
 0.71699997E+02 -0.11708E+02
 0.71749992E+02 -0.16523E+02
 0.71799995E+02 -0.17394E+02
 0.71849998E+02 -0.15827E+02
 0.71899994E+02 -0.13914E+02
 0.71949997E+02 -0.94520E+01
 0.71999992E+02 -0.11533E+02
 0.72049995E+02 -0.12632E+02
 0.72099998E+02 -0.10781E+02
 0.72149994E+02 -0.10365E+02
 0.72199997E+02 -0.12188E+02
 0.72249992E+02 -0.12549E+02
 0.72299995E+02 -0.12805E+02
 0.72349998E+02 -0.11318E+02
 0.72399994E+02 -0.10789E+02
 0.72449997E+02 -0.94219E+01
 0.72499992E+02 -0.84653E+01
 0.72549995E+02 -0.68760E+01
 0.72599998E+02 -0.36041E+01
 0.72649994E+02 -0.36895E+01
 0.72699997E+02 -0.38306E+01
 0.72749992E+02 -0.61558E+01
 0.72799995E+02 -0.76062E+01
 0.72849998E+02 -0.14584E+02
 0.72899994E+02 -0.18239E+02
 0.72949997E+02 -0.18015E+02
 0.72999992E+02 -0.17450E+02
 0.73049995E+02 -0.16336E+02
 0.73099998E+02 -0.16257E+02
 0.73149994E+02 -0.16263E+02
 0.73199997E+02 -0.13957E+02
 0.73249992E+02 -0.12952E+02
 0.73299995E+02 -0.16341E+02
 0.73349998E+02 -0.16857E+02
 0.73399994E+02 -0.15736E+02
 0.73449997E+02 -0.16006E+02
 0.73499992E+02 -0.18068E+02
 0.73549995E+02 -0.17992E+02
 0.73599998E+02 -0.16240E+02
 0.73649994E+02 -0.13223E+02
 0.73699997E+02 -0.13125E+02
 0.73749992E+02 -0.13501E+02
 0.73799995E+02 -0.12574E+02
 0.73849998E+02 -0.11723E+02
 0.73899994E+02 -0.79734E+01
 0.73949997E+02 -0.65273E+01
 0.73999992E+02 -0.71312E+01
 0.74049995E+02 -0.42486E+01
 0.74099998E+02 -0.29777E+01
 0.74149994E+02 -0.29136E+01
 0.74199997E+02 -0.39584E+01
 0.74249992E+02 -0.53971E+01
 0.74299995E+02 -0.43068E+01
 0.74349998E+02 -0.55267E+01
 0.74399994E+02 -0.64280E+01
 0.74449997E+02 -0.73337E+01
 0.74499992E+02 -0.92722E+01
 0.74549995E+02 -0.10160E+02
 0.74599998E+02 -0.11008E+02
 0.74649994E+02 -0.98053E+01
 0.74699997E+02 -0.10481E+02
 0.74749992E+02 -0.11611E+02
 0.74799995E+02 -0.11588E+02
 0.74849998E+02 -0.10510E+02
 0.74899994E+02 -0.13055E+02
 0.74949997E+02 -0.15891E+02
 0.74999992E+02 -0.13181E+02
 0.75049995E+02 -0.96053E+01
 0.75099998E+02 -0.57459E+01
 0.75149994E+02 -0.90958E+00
 0.75199997E+02  0.15926E+01
 0.75249992E+02 -0.16270E+01
 0.75299995E+02 -0.35512E+01
 0.75349998E+02 -0.82114E+01
 0.75399994E+02 -0.12520E+02
 0.75449997E+02 -0.11407E+02
 0.75499992E+02 -0.84037E+01
 0.75549995E+02 -0.74917E+01
 0.75599998E+02 -0.51492E+01
 0.75649994E+02 -0.85323E+00
 0.75699997E+02 -0.20685E+01
 0.75749992E+02 -0.31802E+01
 0.75799995E+02 -0.59341E+01
 0.75849998E+02 -0.90939E+01
 0.75899994E+02 -0.10138E+02
 0.75949997E+02 -0.11418E+02
 0.75999992E+02 -0.10133E+02
 0.76049995E+02 -0.94555E+01
 0.76099998E+02 -0.65429E+01
 0.76149994E+02 -0.36459E+01
 0.76199997E+02 -0.28086E+01
 0.76249992E+02  0.90539E+00
 0.76299995E+02  0.14970E+01
 0.76349998E+02 -0.10301E+01
 0.76399994E+02 -0.49320E+01
 0.76449997E+02 -0.11386E+02
 0.76499992E+02 -0.15488E+02
 0.76549995E+02 -0.15515E+02
 0.76599998E+02 -0.15607E+02
 0.76649994E+02 -0.11676E+02
 0.76699997E+02 -0.89508E+01
 0.76749992E+02 -0.55180E+01
 0.76799995E+02 -0.24613E+01
 0.76849998E+02 -0.36629E+01
 0.76899994E+02 -0.49088E+01
 0.76949997E+02 -0.87767E+01
 0.76999992E+02 -0.13020E+02
 0.77049995E+02 -0.16026E+02
 0.77099998E+02 -0.17621E+02
 0.77149994E+02 -0.17650E+02
 0.77199997E+02 -0.12793E+02
 0.77249992E+02 -0.99137E+01
 0.77299995E+02 -0.95999E+01
 0.77349998E+02 -0.94592E+01
 0.77399994E+02 -0.85784E+01
 0.77449997E+02 -0.11011E+02
 0.77499992E+02 -0.15051E+02
 0.77549995E+02 -0.15865E+02
 0.77599998E+02 -0.16569E+02
 0.77649994E+02 -0.15684E+02
 0.77699997E+02 -0.15504E+02
 0.77749992E+02 -0.11657E+02
 0.77799995E+02 -0.91839E+01
 0.77849998E+02 -0.83446E+01
 0.77899994E+02 -0.94799E+01
 0.77949997E+02 -0.11743E+02
 0.77999992E+02 -0.11034E+02
 0.78049995E+02 -0.10019E+02
 0.78099998E+02 -0.94873E+01
 0.78149994E+02 -0.89559E+01
 0.78199997E+02 -0.75590E+01
 0.78249992E+02 -0.51575E+01
 0.78299995E+02 -0.32843E+01
 0.78349998E+02 -0.36039E+01
 0.78399994E+02 -0.28053E+01
 0.78449997E+02 -0.34730E+01
 0.78499992E+02 -0.19665E+01
 0.78549995E+02  0.63151E+00
 0.78599998E+02  0.53377E+00
 0.78649994E+02  0.86023E+00
 0.78699997E+02 -0.83041E+00
 0.78749992E+02 -0.45032E+01
 0.78799995E+02 -0.10238E+02
 0.78849998E+02 -0.15783E+02
 0.78899994E+02 -0.17472E+02
 0.78949997E+02 -0.17676E+02
 0.78999992E+02 -0.17140E+02
 0.79049995E+02 -0.17274E+02
 0.79099998E+02 -0.16494E+02
 0.79149994E+02 -0.15755E+02
 0.79199997E+02 -0.14586E+02
 0.79249992E+02 -0.12683E+02
 0.79299995E+02 -0.11501E+02
 0.79349998E+02 -0.12730E+02
 0.79399994E+02 -0.14186E+02
 0.79449997E+02 -0.14098E+02
 0.79499992E+02 -0.14504E+02
 0.79549995E+02 -0.14487E+02
 0.79599998E+02 -0.12695E+02
 0.79649994E+02 -0.10757E+02
 0.79699997E+02 -0.10799E+02
 0.79749992E+02 -0.92235E+01
 0.79799995E+02 -0.82141E+01
 0.79849998E+02 -0.58024E+01
 0.79899994E+02 -0.42630E+01
 0.79949997E+02 -0.42064E+01
 0.79999992E+02 -0.60080E+01
 0.80049995E+02 -0.77748E+01
 0.80099998E+02 -0.88394E+01
 0.80149994E+02 -0.86686E+01
 0.80199997E+02 -0.88965E+01
 0.80249992E+02 -0.93577E+01
 0.80299995E+02 -0.76164E+01
 0.80349998E+02 -0.71594E+01
 0.80399994E+02 -0.72747E+01
 0.80449997E+02 -0.90223E+01
 0.80499992E+02 -0.82234E+01
 0.80549995E+02 -0.86122E+01
 0.80599998E+02 -0.10670E+02
 0.80649994E+02 -0.97538E+01
 0.80699997E+02 -0.95746E+01
 0.80749992E+02 -0.99186E+01
 0.80799995E+02 -0.99105E+01
 0.80849998E+02 -0.95940E+01
 0.80899994E+02 -0.99566E+01
 0.80949997E+02 -0.13231E+02
 0.80999992E+02 -0.14164E+02
 0.81049995E+02 -0.13754E+02
 0.81099998E+02 -0.13286E+02
 0.81149994E+02 -0.11692E+02
 0.81199997E+02 -0.10200E+02
 0.81249992E+02 -0.85736E+01
 0.81299995E+02 -0.70026E+01
 0.81349998E+02 -0.72908E+01
 0.81399994E+02 -0.68630E+01
 0.81449997E+02 -0.60562E+01
 0.81499992E+02 -0.58141E+01
 0.81549995E+02 -0.55949E+01
 0.81599998E+02 -0.70882E+01
 0.81649994E+02 -0.71438E+01
 0.81699997E+02 -0.65730E+01
 0.81749992E+02 -0.58541E+01
 0.81799995E+02 -0.60746E+01
 0.81849998E+02 -0.77399E+01
 0.81899994E+02 -0.74483E+01
 0.81949997E+02 -0.56815E+01
 0.81999992E+02 -0.64256E+01
 0.82049995E+02 -0.65684E+01
 0.82099998E+02 -0.66782E+01
 0.82149994E+02 -0.89967E+01
 0.82199997E+02 -0.97649E+01
 0.82249992E+02 -0.94350E+01
 0.82299995E+02 -0.93836E+01
 0.82349998E+02 -0.89646E+01
 0.82399994E+02 -0.97354E+01
 0.82449997E+02 -0.91376E+01
 0.82499992E+02 -0.74934E+01
 0.82549995E+02 -0.67599E+01
 0.82599998E+02 -0.46763E+01
 0.82649994E+02 -0.58800E+01
 0.82699997E+02 -0.86601E+01
 0.82749992E+02 -0.88628E+01
 0.82799995E+02 -0.86802E+01
 0.82849998E+02 -0.84695E+01
 0.82899994E+02 -0.79190E+01
 0.82949997E+02 -0.62548E+01
 0.82999992E+02 -0.47296E+01
 0.83049995E+02 -0.52151E+01
 0.83099998E+02 -0.66750E+01
 0.83149994E+02 -0.86508E+01
 0.83199997E+02 -0.11295E+02
 0.83249992E+02 -0.14598E+02
 0.83299995E+02 -0.16272E+02
 0.83349998E+02 -0.16808E+02
 0.83399994E+02 -0.17509E+02
 0.83449997E+02 -0.17175E+02
 0.83499992E+02 -0.16596E+02
 0.83549995E+02 -0.15455E+02
 0.83599998E+02 -0.13820E+02
 0.83649994E+02 -0.14048E+02
 0.83699997E+02 -0.14317E+02
 0.83749992E+02 -0.15468E+02
 0.83799995E+02 -0.14246E+02
 0.83849998E+02 -0.13558E+02
 0.83899994E+02 -0.14976E+02
 0.83949997E+02 -0.15157E+02
 0.83999992E+02 -0.15177E+02
 0.84049995E+02 -0.15045E+02
 0.84099998E+02 -0.13464E+02
 0.84149994E+02 -0.12374E+02
 0.84199997E+02 -0.11968E+02
 0.84249992E+02 -0.11559E+02
 0.84299995E+02 -0.13012E+02
 0.84349998E+02 -0.12489E+02
 0.84399994E+02 -0.13027E+02
 0.84449997E+02 -0.10955E+02
 0.84499992E+02 -0.85189E+01
 0.84549995E+02 -0.79613E+01
 0.84599998E+02 -0.80913E+01
 0.84649994E+02 -0.75317E+01
 0.84699997E+02 -0.59654E+01
 0.84749992E+02 -0.62812E+01
 0.84799995E+02 -0.55843E+01
 0.84849998E+02 -0.78011E+01
 0.84899994E+02 -0.99305E+01
 0.84949997E+02 -0.10547E+02
 0.84999992E+02 -0.11244E+02
 0.85049995E+02 -0.92002E+01
 0.85099998E+02 -0.96676E+01
 0.85149994E+02 -0.92198E+01
 0.85199997E+02 -0.10317E+02
 0.85249992E+02 -0.10295E+02
 0.85299995E+02 -0.95147E+01
 0.85349998E+02 -0.10945E+02
 0.85399994E+02 -0.98906E+01
 0.85449997E+02 -0.94434E+01
 0.85499992E+02 -0.91728E+01
 0.85549995E+02 -0.10163E+02
 0.85599998E+02 -0.87490E+01
 0.85649994E+02 -0.70627E+01
 0.85699997E+02 -0.59235E+01
 0.85749992E+02 -0.63052E+01
 0.85799995E+02 -0.63498E+01
 0.85849998E+02 -0.57551E+01
 0.85899994E+02 -0.51083E+01
 0.85949997E+02 -0.62563E+01
 0.85999992E+02 -0.67754E+01
 0.86049995E+02 -0.70934E+01
 0.86099998E+02 -0.70473E+01
 0.86149994E+02 -0.54400E+01
 0.86199997E+02 -0.71600E+01
 0.86249992E+02 -0.56562E+01
 0.86299995E+02 -0.55255E+01
 0.86349998E+02 -0.78372E+01
 0.86399994E+02 -0.10104E+02
 0.86449997E+02 -0.97933E+01
 0.86499992E+02 -0.10581E+02
 0.86549995E+02 -0.13654E+02
 0.86599998E+02 -0.13926E+02
 0.86649994E+02 -0.14516E+02
 0.86699997E+02 -0.14139E+02
 0.86749992E+02 -0.12418E+02
 0.86799995E+02 -0.11050E+02
 0.86849998E+02 -0.11064E+02
 0.86899994E+02 -0.11225E+02
 0.86949997E+02 -0.11729E+02
 0.86999992E+02 -0.13196E+02
 0.87049995E+02 -0.14079E+02
 0.87099998E+02 -0.15284E+02
 0.87149994E+02 -0.16635E+02
 0.87199997E+02 -0.16348E+02
 0.87249992E+02 -0.15274E+02
 0.87299995E+02 -0.15084E+02
 0.87349998E+02 -0.13714E+02
 0.87399994E+02 -0.13113E+02
 0.87449997E+02 -0.12014E+02
 0.87499992E+02 -0.10141E+02
 0.87549995E+02 -0.99127E+01
 0.87599991E+02 -0.80765E+01
 0.87649994E+02 -0.79190E+01
 0.87699997E+02 -0.83498E+01
 0.87749992E+02 -0.85559E+01
 0.87799995E+02 -0.93236E+01
 0.87849991E+02 -0.91653E+01
 0.87899994E+02 -0.83435E+01
 0.87949997E+02 -0.96509E+01
 0.87999992E+02 -0.10072E+02
 0.88049995E+02 -0.91440E+01
 0.88099991E+02 -0.11015E+02
 0.88149994E+02 -0.10875E+02
 0.88199997E+02 -0.11347E+02
 0.88249992E+02 -0.11613E+02
 0.88299995E+02 -0.13306E+02
 0.88349991E+02 -0.13979E+02
 0.88399994E+02 -0.13359E+02
 0.88449997E+02 -0.13115E+02
 0.88499992E+02 -0.12800E+02
 0.88549995E+02 -0.13034E+02
 0.88599991E+02 -0.12974E+02
 0.88649994E+02 -0.11737E+02
 0.88699997E+02 -0.12413E+02
 0.88749992E+02 -0.14342E+02
 0.88799995E+02 -0.12039E+02
 0.88849991E+02 -0.12018E+02
 0.88899994E+02 -0.12437E+02
 0.88949997E+02 -0.11752E+02
 0.88999992E+02 -0.10712E+02
 0.89049995E+02 -0.11759E+02
 0.89099991E+02 -0.11860E+02
 0.89149994E+02 -0.10741E+02
 0.89199997E+02 -0.11275E+02
 0.89249992E+02 -0.11818E+02
 0.89299995E+02 -0.11862E+02
 0.89349991E+02 -0.12746E+02
 0.89399994E+02 -0.13752E+02
 0.89449997E+02 -0.13375E+02
 0.89499992E+02 -0.14591E+02
 0.89549995E+02 -0.14218E+02
 0.89599991E+02 -0.13062E+02
 0.89649994E+02 -0.13792E+02
 0.89699997E+02 -0.12238E+02
 0.89749992E+02 -0.10706E+02
 0.89799995E+02 -0.96930E+01
 0.89849991E+02 -0.97391E+01
 0.89899994E+02 -0.10155E+02
 0.89949997E+02 -0.10896E+02
 0.89999992E+02 -0.98340E+01
 0.90049995E+02 -0.87355E+01
 0.90099991E+02 -0.91018E+01
 0.90149994E+02 -0.65843E+01
 0.90199997E+02 -0.56672E+01
 0.90249992E+02 -0.52783E+01
 0.90299995E+02 -0.69122E+01
 0.90349991E+02 -0.76598E+01
 0.90399994E+02 -0.75037E+01
 0.90449997E+02 -0.85098E+01
 0.90499992E+02 -0.89723E+01
 0.90549995E+02 -0.93001E+01
 0.90599991E+02 -0.95420E+01
 0.90649994E+02 -0.94780E+01
 0.90699997E+02 -0.90459E+01
 0.90749992E+02 -0.91232E+01
 0.90799995E+02 -0.88018E+01
 0.90849991E+02 -0.11686E+02
 0.90899994E+02 -0.13988E+02
 0.90949997E+02 -0.14164E+02
 0.90999992E+02 -0.13070E+02
 0.91049995E+02 -0.11667E+02
 0.91099991E+02 -0.12044E+02
 0.91149994E+02 -0.11158E+02
 0.91199997E+02 -0.10972E+02
 0.91249992E+02 -0.10358E+02
 0.91299995E+02 -0.11794E+02
 0.91349991E+02 -0.11823E+02
 0.91399994E+02 -0.12621E+02
 0.91449997E+02 -0.12282E+02
 0.91499992E+02 -0.11210E+02
 0.91549995E+02 -0.11927E+02
 0.91599991E+02 -0.11172E+02
 0.91649994E+02 -0.11094E+02
 0.91699997E+02 -0.99986E+01
 0.91749992E+02 -0.10769E+02
 0.91799995E+02 -0.10746E+02
 0.91849991E+02 -0.10341E+02
 0.91899994E+02 -0.10018E+02
 0.91949997E+02 -0.10139E+02
 0.91999992E+02 -0.97917E+01
 0.92049995E+02 -0.10186E+02
 0.92099991E+02 -0.10294E+02
 0.92149994E+02 -0.10169E+02
 0.92199997E+02 -0.11562E+02
 0.92249992E+02 -0.11549E+02
 0.92299995E+02 -0.14258E+02
 0.92349991E+02 -0.13156E+02
 0.92399994E+02 -0.12868E+02
 0.92449997E+02 -0.13534E+02
 0.92499992E+02 -0.10065E+02
 0.92549995E+02 -0.11022E+02
 0.92599991E+02 -0.13333E+02
 0.92649994E+02 -0.13407E+02
 0.92699997E+02 -0.13288E+02
 0.92749992E+02 -0.14492E+02
 0.92799995E+02 -0.13577E+02
 0.92849991E+02 -0.12310E+02
 0.92899994E+02 -0.12326E+02
 0.92949997E+02 -0.12587E+02
 0.92999992E+02 -0.11750E+02
 0.93049995E+02 -0.98103E+01
 0.93099991E+02 -0.99024E+01
 0.93149994E+02 -0.95111E+01
 0.93199997E+02 -0.11126E+02
 0.93249992E+02 -0.11781E+02
 0.93299995E+02 -0.13347E+02
 0.93349991E+02 -0.13789E+02
 0.93399994E+02 -0.12253E+02
 0.93449997E+02 -0.13038E+02
 0.93499992E+02 -0.11055E+02
 0.93549995E+02 -0.11391E+02
 0.93599991E+02 -0.10635E+02
 0.93649994E+02 -0.11403E+02
 0.93699997E+02 -0.10186E+02
 0.93749992E+02 -0.10132E+02
 0.93799995E+02 -0.12040E+02
 0.93849991E+02 -0.12558E+02
 0.93899994E+02 -0.14497E+02
 0.93949997E+02 -0.14246E+02
 0.93999992E+02 -0.14207E+02
 0.94049995E+02 -0.14446E+02
 0.94099991E+02 -0.13557E+02
 0.94149994E+02 -0.10833E+02
 0.94199997E+02 -0.95393E+01
 0.94249992E+02 -0.96172E+01
 0.94299995E+02 -0.99866E+01
 0.94349991E+02 -0.10455E+02
 0.94399994E+02 -0.12056E+02
 0.94449997E+02 -0.12406E+02
 0.94499992E+02 -0.13816E+02
 0.94549995E+02 -0.14506E+02
 0.94599991E+02 -0.11456E+02
 0.94649994E+02 -0.11088E+02
 0.94699997E+02 -0.11570E+02
 0.94749992E+02 -0.11150E+02
 0.94799995E+02 -0.12587E+02
 0.94849991E+02 -0.12324E+02
 0.94899994E+02 -0.11595E+02
 0.94949997E+02 -0.13172E+02
 0.94999992E+02 -0.96284E+01
 0.95049995E+02 -0.10888E+02
 0.95099991E+02 -0.12490E+02
 0.95149994E+02 -0.99870E+01
 0.95199997E+02 -0.11635E+02
 0.95249992E+02 -0.97001E+01
 0.95299995E+02 -0.93587E+01
 0.95349991E+02 -0.85900E+01
 0.95399994E+02 -0.85840E+01
 0.95449997E+02 -0.73499E+01
 0.95499992E+02 -0.48211E+01
 0.95549995E+02 -0.50433E+01
 0.95599991E+02 -0.46789E+01
 0.95649994E+02 -0.55570E+01
 0.95699997E+02 -0.67057E+01
 0.95749992E+02 -0.78264E+01
 0.95799995E+02 -0.69474E+01
 0.95849991E+02 -0.58195E+01
 0.95899994E+02 -0.71973E+01
 0.95949997E+02 -0.83081E+01
 0.95999992E+02 -0.70353E+01
 0.96049995E+02 -0.64781E+01
 0.96099991E+02 -0.84116E+01
 0.96149994E+02 -0.99980E+01
 0.96199997E+02 -0.96926E+01
 0.96249992E+02 -0.10717E+02
 0.96299995E+02 -0.14012E+02
 0.96349991E+02 -0.14813E+02
 0.96399994E+02 -0.15511E+02
 0.96449997E+02 -0.16200E+02
 0.96499992E+02 -0.15678E+02
 0.96549995E+02 -0.15554E+02
 0.96599991E+02 -0.15137E+02
 0.96649994E+02 -0.15085E+02
 0.96699997E+02 -0.14399E+02
 0.96749992E+02 -0.14264E+02
 0.96799995E+02 -0.14327E+02
 0.96849991E+02 -0.15339E+02
 0.96899994E+02 -0.14522E+02
 0.96949997E+02 -0.14095E+02
 0.96999992E+02 -0.14786E+02
 0.97049995E+02 -0.14739E+02
 0.97099991E+02 -0.14895E+02
 0.97149994E+02 -0.14072E+02
 0.97199997E+02 -0.13214E+02
 0.97249992E+02 -0.12210E+02
 0.97299995E+02 -0.13286E+02
 0.97349991E+02 -0.12011E+02
 0.97399994E+02 -0.93197E+01
 0.97449997E+02 -0.95017E+01
 0.97499992E+02 -0.84025E+01
 0.97549995E+02 -0.64390E+01
 0.97599991E+02 -0.72384E+01
 0.97649994E+02 -0.70407E+01
 0.97699997E+02 -0.57294E+01
 0.97749992E+02 -0.73536E+01
 0.97799995E+02 -0.84742E+01
 0.97849991E+02 -0.91752E+01
 0.97899994E+02 -0.10970E+02
 0.97949997E+02 -0.12242E+02
 0.97999992E+02 -0.11995E+02
