-0.20000000E+01 -0.47117E+05
-0.19500000E+01 -0.31267E+05
-0.19000000E+01 -0.15307E+05
-0.18500000E+01  0.15836E+04
-0.18000000E+01  0.18674E+05
-0.17500000E+01  0.35724E+05
-0.17000000E+01  0.52554E+05
-0.16500001E+01  0.68942E+05
-0.16000000E+01  0.84544E+05
-0.15500000E+01  0.99272E+05
-0.15000000E+01  0.11305E+06
-0.14500000E+01  0.12595E+06
-0.14000001E+01  0.13800E+06
-0.13500000E+01  0.14900E+06
-0.13000001E+01  0.15872E+06
-0.12500000E+01  0.16671E+06
-0.12000000E+01  0.17295E+06
-0.11500001E+01  0.17752E+06
-0.11000000E+01  0.18057E+06
-0.10500001E+01  0.18225E+06
-0.10000000E+01  0.18257E+06
-0.95000005E+00  0.18127E+06
-0.90000010E+00  0.17814E+06
-0.85000002E+00  0.17294E+06
-0.80000007E+00  0.16564E+06
-0.75000012E+00  0.15653E+06
-0.70000005E+00  0.14573E+06
-0.65000010E+00  0.13370E+06
-0.60000014E+00  0.12107E+06
-0.55000007E+00  0.10843E+06
-0.50000012E+00  0.95973E+05
-0.45000005E+00  0.83990E+05
-0.40000010E+00  0.72709E+05
-0.35000014E+00  0.62136E+05
-0.30000007E+00  0.52287E+05
-0.25000012E+00  0.43191E+05
-0.20000005E+00  0.35178E+05
-0.15000010E+00  0.28215E+05
-0.10000014E+00  0.22294E+05
-0.50000072E-01  0.17257E+05
-0.11920929E-06  0.12862E+05
 0.49999952E-01  0.86685E+04
 0.99999905E-01  0.43421E+04
 0.14999986E+00 -0.28463E+03
 0.19999981E+00 -0.54701E+04
 0.24999976E+00 -0.11114E+05
 0.29999995E+00 -0.17288E+05
 0.34999990E+00 -0.23949E+05
 0.39999986E+00 -0.30856E+05
 0.44999981E+00 -0.37479E+05
 0.49999976E+00 -0.43614E+05
 0.54999995E+00 -0.48967E+05
 0.59999990E+00 -0.53667E+05
 0.64999986E+00 -0.58195E+05
 0.69999981E+00 -0.62779E+05
 0.74999976E+00 -0.67581E+05
 0.79999971E+00 -0.72450E+05
 0.84999990E+00 -0.77428E+05
 0.89999986E+00 -0.82294E+05
 0.94999981E+00 -0.86746E+05
 0.99999976E+00 -0.90557E+05
 0.10499997E+01 -0.93727E+05
 0.10999999E+01 -0.96390E+05
 0.11499999E+01 -0.98864E+05
 0.11999998E+01 -0.10141E+06
 0.12499998E+01 -0.10402E+06
 0.12999997E+01 -0.10650E+06
 0.13499999E+01 -0.10850E+06
 0.13999999E+01 -0.10992E+06
 0.14499998E+01 -0.11073E+06
 0.14999998E+01 -0.11087E+06
 0.15499997E+01 -0.10978E+06
 0.15999999E+01 -0.10697E+06
 0.16499999E+01 -0.10207E+06
 0.16999998E+01 -0.95133E+05
 0.17499998E+01 -0.86516E+05
 0.17999997E+01 -0.76430E+05
 0.18499997E+01 -0.65264E+05
 0.18999999E+01 -0.53227E+05
 0.19499998E+01 -0.40680E+05
 0.19999998E+01 -0.27647E+05
 0.20499997E+01 -0.14537E+05
 0.20999999E+01 -0.16866E+04
 0.21499996E+01  0.10525E+05
 0.21999998E+01  0.21984E+05
 0.22499995E+01  0.32770E+05
 0.22999997E+01  0.43015E+05
 0.23499999E+01  0.52982E+05
 0.23999996E+01  0.62609E+05
 0.24499998E+01  0.71797E+05
 0.24999995E+01  0.79944E+05
 0.25499997E+01  0.86578E+05
 0.25999999E+01  0.91062E+05
 0.26499996E+01  0.93727E+05
 0.26999998E+01  0.94968E+05
 0.27499995E+01  0.95096E+05
 0.27999997E+01  0.94567E+05
 0.28499999E+01  0.93392E+05
 0.28999996E+01  0.91566E+05
 0.29499998E+01  0.88753E+05
 0.29999995E+01  0.84849E+05
 0.30499997E+01  0.79830E+05
 0.30999999E+01  0.74177E+05
 0.31499996E+01  0.68081E+05
 0.31999998E+01  0.61712E+05
 0.32499995E+01  0.55146E+05
 0.32999997E+01  0.48443E+05
 0.33499999E+01  0.41850E+05
 0.33999996E+01  0.35294E+05
 0.34499998E+01  0.29008E+05
 0.34999995E+01  0.23063E+05
 0.35499997E+01  0.17474E+05
 0.35999994E+01  0.12166E+05
 0.36499996E+01  0.73016E+04
 0.36999998E+01  0.28763E+04
 0.37499995E+01 -0.12893E+04
 0.37999997E+01 -0.53332E+04
 0.38499994E+01 -0.93303E+04
 0.38999996E+01 -0.13400E+05
 0.39499998E+01 -0.17618E+05
 0.39999995E+01 -0.21674E+05
 0.40499997E+01 -0.25433E+05
 0.40999994E+01 -0.28478E+05
 0.41499996E+01 -0.30815E+05
 0.41999998E+01 -0.32493E+05
 0.42499995E+01 -0.33522E+05
 0.42999997E+01 -0.33761E+05
 0.43499994E+01 -0.33220E+05
 0.43999996E+01 -0.32075E+05
 0.44499998E+01 -0.30496E+05
 0.44999995E+01 -0.29196E+05
 0.45499997E+01 -0.28404E+05
 0.45999994E+01 -0.28337E+05
 0.46499996E+01 -0.28750E+05
 0.46999998E+01 -0.29497E+05
 0.47499995E+01 -0.30167E+05
 0.47999997E+01 -0.30717E+05
 0.48499994E+01 -0.31525E+05
 0.48999996E+01 -0.32721E+05
 0.49499998E+01 -0.34805E+05
 0.49999995E+01 -0.37973E+05
 0.50499997E+01 -0.42623E+05
 0.50999994E+01 -0.48390E+05
 0.51499996E+01 -0.54705E+05
 0.51999998E+01 -0.60870E+05
 0.52499995E+01 -0.66543E+05
 0.52999997E+01 -0.71695E+05
 0.53499994E+01 -0.76328E+05
 0.53999996E+01 -0.80782E+05
 0.54499993E+01 -0.84974E+05
 0.54999995E+01 -0.89034E+05
 0.55499997E+01 -0.92787E+05
 0.55999994E+01 -0.96292E+05
 0.56499996E+01 -0.99382E+05
 0.56999993E+01 -0.10173E+06
 0.57499995E+01 -0.10294E+06
 0.57999997E+01 -0.10294E+06
 0.58499994E+01 -0.10192E+06
 0.58999996E+01 -0.99617E+05
 0.59499993E+01 -0.95772E+05
 0.59999995E+01 -0.90081E+05
 0.60499992E+01 -0.82617E+05
 0.60999994E+01 -0.73335E+05
 0.61499996E+01 -0.62277E+05
 0.61999998E+01 -0.49633E+05
 0.62499990E+01 -0.36001E+05
 0.62999992E+01 -0.22060E+05
 0.63499994E+01 -0.80691E+04
 0.63999996E+01  0.59212E+04
 0.64499998E+01  0.19497E+05
 0.64999990E+01  0.32158E+05
 0.65499992E+01  0.43792E+05
 0.65999994E+01  0.54349E+05
 0.66499996E+01  0.64121E+05
 0.66999998E+01  0.73281E+05
 0.67499990E+01  0.81778E+05
 0.67999992E+01  0.89202E+05
 0.68499994E+01  0.95302E+05
 0.68999996E+01  0.99879E+05
 0.69499998E+01  0.10274E+06
 0.69999990E+01  0.10419E+06
 0.70499992E+01  0.10467E+06
 0.70999994E+01  0.10436E+06
 0.71499996E+01  0.10310E+06
 0.71999998E+01  0.10095E+06
 0.72499990E+01  0.98160E+05
 0.72999992E+01  0.95230E+05
 0.73499994E+01  0.92547E+05
 0.73999996E+01  0.90356E+05
 0.74499998E+01  0.88864E+05
 0.74999990E+01  0.88261E+05
 0.75499992E+01  0.88520E+05
 0.75999994E+01  0.89455E+05
 0.76499996E+01  0.91009E+05
 0.76999998E+01  0.92716E+05
 0.77499990E+01  0.94116E+05
 0.77999992E+01  0.94958E+05
 0.78499994E+01  0.94955E+05
 0.78999996E+01  0.93612E+05
 0.79499998E+01  0.90727E+05
 0.79999990E+01  0.86491E+05
 0.80499992E+01  0.80946E+05
 0.80999994E+01  0.74131E+05
 0.81499996E+01  0.65953E+05
 0.81999998E+01  0.56915E+05
 0.82499990E+01  0.47501E+05
 0.82999992E+01  0.37887E+05
 0.83499994E+01  0.28177E+05
 0.83999996E+01  0.18250E+05
 0.84499998E+01  0.82731E+04
 0.84999990E+01 -0.17096E+04
 0.85499992E+01 -0.11478E+05
 0.85999994E+01 -0.20799E+05
 0.86499996E+01 -0.29203E+05
 0.86999998E+01 -0.36223E+05
 0.87499990E+01 -0.41842E+05
 0.87999992E+01 -0.45838E+05
 0.88499994E+01 -0.47969E+05
 0.88999996E+01 -0.48308E+05
 0.89499998E+01 -0.46739E+05
 0.89999990E+01 -0.43232E+05
 0.90499992E+01 -0.38149E+05
 0.90999994E+01 -0.31999E+05
 0.91499996E+01 -0.25471E+05
 0.91999989E+01 -0.19336E+05
 0.92499990E+01 -0.14284E+05
 0.92999992E+01 -0.10649E+05
 0.93499994E+01 -0.84028E+04
 0.93999996E+01 -0.72999E+04
 0.94499989E+01 -0.73016E+04
 0.94999990E+01 -0.82858E+04
 0.95499992E+01 -0.10162E+05
 0.95999994E+01 -0.12934E+05
 0.96499996E+01 -0.16453E+05
 0.96999989E+01 -0.20387E+05
 0.97499990E+01 -0.24473E+05
 0.97999992E+01 -0.28677E+05
 0.98499994E+01 -0.32889E+05
 0.98999996E+01 -0.36919E+05
 0.99499989E+01 -0.40889E+05
 0.99999990E+01 -0.44860E+05
 0.10049999E+02 -0.48714E+05
 0.10099999E+02 -0.52258E+05
 0.10150000E+02 -0.55419E+05
 0.10199999E+02 -0.58393E+05
 0.10249999E+02 -0.61078E+05
 0.10299999E+02 -0.63463E+05
 0.10349999E+02 -0.65424E+05
 0.10400000E+02 -0.67054E+05
 0.10449999E+02 -0.68551E+05
 0.10499999E+02 -0.69793E+05
 0.10549999E+02 -0.70629E+05
 0.10599999E+02 -0.70864E+05
 0.10650000E+02 -0.70422E+05
 0.10699999E+02 -0.69389E+05
 0.10749999E+02 -0.67982E+05
 0.10799999E+02 -0.66247E+05
 0.10849999E+02 -0.64117E+05
 0.10900000E+02 -0.61494E+05
 0.10949999E+02 -0.58229E+05
 0.10999999E+02 -0.54180E+05
 0.11049999E+02 -0.49362E+05
 0.11099999E+02 -0.44029E+05
 0.11150000E+02 -0.38674E+05
 0.11199999E+02 -0.33854E+05
 0.11249999E+02 -0.29821E+05
 0.11299999E+02 -0.26599E+05
 0.11349999E+02 -0.24067E+05
 0.11400000E+02 -0.22226E+05
 0.11449999E+02 -0.20827E+05
 0.11499999E+02 -0.19380E+05
 0.11549999E+02 -0.17546E+05
 0.11599999E+02 -0.15164E+05
 0.11650000E+02 -0.12217E+05
 0.11699999E+02 -0.88397E+04
 0.11749999E+02 -0.53852E+04
 0.11799999E+02 -0.21614E+04
 0.11849999E+02  0.45502E+03
 0.11900000E+02  0.22895E+04
 0.11949999E+02  0.34338E+04
 0.11999999E+02  0.40988E+04
 0.12049999E+02  0.47489E+04
 0.12099999E+02  0.58156E+04
 0.12150000E+02  0.73557E+04
 0.12199999E+02  0.93399E+04
 0.12249999E+02  0.11678E+05
 0.12299999E+02  0.14082E+05
 0.12349999E+02  0.16458E+05
 0.12400000E+02  0.18684E+05
 0.12449999E+02  0.20708E+05
 0.12499999E+02  0.22597E+05
 0.12549999E+02  0.24515E+05
 0.12599999E+02  0.26876E+05
 0.12649999E+02  0.29819E+05
 0.12699999E+02  0.33039E+05
 0.12749999E+02  0.36353E+05
 0.12799999E+02  0.39849E+05
 0.12849999E+02  0.43619E+05
 0.12899999E+02  0.47902E+05
 0.12949999E+02  0.52707E+05
 0.12999999E+02  0.57590E+05
 0.13049999E+02  0.62155E+05
 0.13099999E+02  0.65976E+05
 0.13149999E+02  0.68716E+05
 0.13199999E+02  0.70178E+05
 0.13249999E+02  0.70253E+05
 0.13299999E+02  0.68971E+05
 0.13349999E+02  0.66385E+05
 0.13399999E+02  0.62775E+05
 0.13449999E+02  0.58314E+05
 0.13499999E+02  0.53214E+05
 0.13549999E+02  0.47524E+05
 0.13599999E+02  0.41366E+05
 0.13649999E+02  0.34939E+05
 0.13699999E+02  0.28245E+05
 0.13749999E+02  0.21317E+05
 0.13799999E+02  0.14255E+05
 0.13849999E+02  0.70347E+04
 0.13899999E+02 -0.21796E+03
 0.13949999E+02 -0.73260E+04
 0.13999999E+02 -0.14091E+05
 0.14049999E+02 -0.20060E+05
 0.14099998E+02 -0.25269E+05
 0.14150000E+02 -0.29592E+05
 0.14199999E+02 -0.32975E+05
 0.14249998E+02 -0.35329E+05
 0.14299999E+02 -0.36728E+05
 0.14349998E+02 -0.37519E+05
 0.14400000E+02 -0.37817E+05
 0.14449999E+02 -0.37778E+05
 0.14499998E+02 -0.37465E+05
 0.14549999E+02 -0.36810E+05
 0.14599998E+02 -0.35707E+05
 0.14650000E+02 -0.34307E+05
 0.14699999E+02 -0.32504E+05
 0.14749998E+02 -0.30100E+05
 0.14799999E+02 -0.27048E+05
 0.14849998E+02 -0.22986E+05
 0.14900000E+02 -0.17616E+05
 0.14949999E+02 -0.10700E+05
 0.14999998E+02 -0.23878E+04
 0.15049999E+02  0.67828E+04
 0.15099998E+02  0.15976E+05
 0.15150000E+02  0.24513E+05
 0.15199999E+02  0.32017E+05
 0.15249998E+02  0.38443E+05
 0.15299999E+02  0.44016E+05
 0.15349998E+02  0.48544E+05
 0.15400000E+02  0.52069E+05
 0.15449999E+02  0.54439E+05
 0.15499998E+02  0.55846E+05
 0.15549999E+02  0.56474E+05
 0.15599998E+02  0.56346E+05
 0.15650000E+02  0.55742E+05
 0.15699999E+02  0.54552E+05
 0.15749998E+02  0.52862E+05
 0.15799999E+02  0.50607E+05
 0.15849998E+02  0.47742E+05
 0.15900000E+02  0.44413E+05
 0.15949999E+02  0.40681E+05
 0.15999998E+02  0.36775E+05
 0.16049999E+02  0.32665E+05
 0.16099998E+02  0.28501E+05
 0.16150000E+02  0.24505E+05
 0.16199999E+02  0.20657E+05
 0.16249998E+02  0.17105E+05
 0.16299999E+02  0.13849E+05
 0.16349998E+02  0.11042E+05
 0.16400000E+02  0.86835E+04
 0.16449999E+02  0.64033E+04
 0.16499998E+02  0.40814E+04
 0.16549999E+02  0.16110E+04
 0.16599998E+02 -0.10734E+04
 0.16650000E+02 -0.40444E+04
 0.16699999E+02 -0.72315E+04
 0.16749998E+02 -0.10507E+05
 0.16799999E+02 -0.13900E+05
 0.16849998E+02 -0.17521E+05
 0.16900000E+02 -0.21303E+05
 0.16949999E+02 -0.24978E+05
 0.16999998E+02 -0.28326E+05
 0.17049999E+02 -0.31381E+05
 0.17099998E+02 -0.34206E+05
 0.17150000E+02 -0.36741E+05
 0.17199999E+02 -0.39302E+05
 0.17249998E+02 -0.41924E+05
 0.17299999E+02 -0.44488E+05
 0.17349998E+02 -0.46915E+05
 0.17400000E+02 -0.49221E+05
 0.17449999E+02 -0.51215E+05
 0.17499998E+02 -0.52409E+05
 0.17549999E+02 -0.52880E+05
 0.17599998E+02 -0.52845E+05
 0.17650000E+02 -0.52531E+05
 0.17699999E+02 -0.51922E+05
 0.17749998E+02 -0.50616E+05
 0.17799999E+02 -0.48734E+05
 0.17849998E+02 -0.46349E+05
 0.17900000E+02 -0.43356E+05
 0.17949999E+02 -0.39655E+05
 0.17999998E+02 -0.35324E+05
 0.18049999E+02 -0.30476E+05
 0.18099998E+02 -0.25221E+05
 0.18150000E+02 -0.19845E+05
 0.18199999E+02 -0.14352E+05
 0.18249998E+02 -0.90497E+04
 0.18299999E+02 -0.44200E+04
 0.18349998E+02 -0.81202E+03
 0.18400000E+02  0.16353E+04
 0.18449999E+02  0.30061E+04
 0.18499998E+02  0.35648E+04
 0.18549999E+02  0.32689E+04
 0.18599998E+02  0.23444E+04
 0.18650000E+02  0.10805E+04
 0.18699999E+02 -0.39783E+03
 0.18749998E+02 -0.16313E+04
 0.18799999E+02 -0.25093E+04
 0.18849998E+02 -0.27508E+04
 0.18900000E+02 -0.24500E+04
 0.18949999E+02 -0.15948E+04
 0.18999998E+02 -0.22423E+03
 0.19049999E+02  0.16669E+04
 0.19099998E+02  0.44549E+04
 0.19150000E+02  0.81853E+04
 0.19199999E+02  0.12894E+05
 0.19249998E+02  0.18168E+05
 0.19299999E+02  0.23745E+05
 0.19349998E+02  0.29303E+05
 0.19400000E+02  0.34433E+05
 0.19449999E+02  0.38673E+05
 0.19499998E+02  0.41811E+05
 0.19549999E+02  0.43830E+05
 0.19599998E+02  0.44471E+05
 0.19650000E+02  0.43822E+05
 0.19699999E+02  0.42052E+05
 0.19749998E+02  0.39446E+05
 0.19799999E+02  0.36331E+05
 0.19849998E+02  0.33022E+05
 0.19900000E+02  0.29678E+05
 0.19949999E+02  0.26442E+05
 0.19999998E+02  0.23372E+05
 0.20049999E+02  0.20443E+05
 0.20099998E+02  0.17544E+05
 0.20150000E+02  0.14623E+05
 0.20199999E+02  0.11792E+05
 0.20249998E+02  0.91879E+04
 0.20299999E+02  0.73267E+04
 0.20349998E+02  0.63454E+04
 0.20399998E+02  0.63035E+04
 0.20449999E+02  0.70391E+04
 0.20499998E+02  0.82377E+04
 0.20549999E+02  0.94642E+04
 0.20599998E+02  0.10270E+05
 0.20649998E+02  0.10447E+05
 0.20699999E+02  0.97652E+04
 0.20749998E+02  0.82237E+04
 0.20799999E+02  0.60570E+04
 0.20849998E+02  0.35706E+04
 0.20899998E+02  0.80724E+03
 0.20949999E+02 -0.20125E+04
 0.20999998E+02 -0.49965E+04
 0.21049999E+02 -0.80650E+04
 0.21099998E+02 -0.11252E+05
 0.21149998E+02 -0.14728E+05
 0.21199999E+02 -0.18335E+05
 0.21249998E+02 -0.22255E+05
 0.21299999E+02 -0.26338E+05
 0.21349998E+02 -0.30546E+05
 0.21399998E+02 -0.34707E+05
 0.21449999E+02 -0.38678E+05
 0.21499998E+02 -0.42338E+05
 0.21549999E+02 -0.45543E+05
 0.21599998E+02 -0.48172E+05
 0.21649998E+02 -0.50210E+05
 0.21699999E+02 -0.51721E+05
 0.21749998E+02 -0.52907E+05
 0.21799999E+02 -0.53953E+05
 0.21849998E+02 -0.54804E+05
 0.21899998E+02 -0.55371E+05
 0.21949999E+02 -0.55219E+05
 0.21999998E+02 -0.54077E+05
 0.22049999E+02 -0.51472E+05
 0.22099998E+02 -0.47169E+05
 0.22149998E+02 -0.41173E+05
 0.22199999E+02 -0.33892E+05
 0.22249998E+02 -0.25487E+05
 0.22299999E+02 -0.16343E+05
 0.22349998E+02 -0.67298E+04
 0.22399998E+02  0.31581E+04
 0.22449999E+02  0.12758E+05
 0.22499998E+02  0.21641E+05
 0.22549999E+02  0.29462E+05
 0.22599998E+02  0.35937E+05
 0.22649998E+02  0.40735E+05
 0.22699999E+02  0.43957E+05
 0.22749998E+02  0.45603E+05
 0.22799999E+02  0.45808E+05
 0.22849998E+02  0.44702E+05
 0.22899998E+02  0.42451E+05
 0.22949999E+02  0.39038E+05
 0.22999998E+02  0.34819E+05
 0.23049999E+02  0.30284E+05
 0.23099998E+02  0.25488E+05
 0.23149998E+02  0.20570E+05
 0.23199999E+02  0.15601E+05
 0.23249998E+02  0.10836E+05
 0.23299999E+02  0.63570E+04
 0.23349998E+02  0.22972E+04
 0.23399998E+02 -0.12107E+04
 0.23449999E+02 -0.43105E+04
 0.23499998E+02 -0.68479E+04
 0.23549999E+02 -0.86133E+04
 0.23599998E+02 -0.96251E+04
 0.23649998E+02 -0.10160E+05
 0.23699999E+02 -0.10312E+05
 0.23749998E+02 -0.10435E+05
 0.23799999E+02 -0.10640E+05
 0.23849998E+02 -0.10815E+05
 0.23899998E+02 -0.10997E+05
 0.23949999E+02 -0.11169E+05
 0.23999998E+02 -0.11149E+05
 0.24049999E+02 -0.10382E+05
 0.24099998E+02 -0.86678E+04
 0.24149998E+02 -0.67876E+04
 0.24199999E+02 -0.59151E+04
 0.24249998E+02 -0.55183E+04
 0.24299999E+02 -0.38294E+04
 0.24349998E+02 -0.55833E+03
 0.24399998E+02  0.35875E+04
 0.24449999E+02  0.49968E+04
 0.24499998E+02  0.11751E+04
 0.24549999E+02 -0.40839E+04
 0.24599998E+02 -0.34114E+04
 0.24649998E+02  0.32268E+04
 0.24699999E+02  0.96870E+04
 0.24749998E+02  0.13009E+05
 0.24799999E+02  0.11734E+05
 0.24849998E+02  0.76582E+04
 0.24899998E+02  0.57156E+04
 0.24949999E+02  0.93019E+04
 0.24999998E+02  0.16818E+05
 0.25049999E+02  0.23820E+05
 0.25099998E+02  0.22128E+05
 0.25149998E+02  0.13275E+05
 0.25199999E+02 -0.11590E+04
 0.25249998E+02 -0.57082E+04
 0.25299999E+02  0.33365E+04
 0.25349998E+02  0.15526E+05
 0.25399998E+02  0.34044E+05
 0.25449999E+02  0.44861E+05
 0.25499998E+02  0.33901E+05
 0.25549999E+02  0.17297E+05
 0.25599998E+02  0.11157E+05
 0.25649998E+02  0.20527E+05
 0.25699999E+02  0.39366E+05
 0.25749998E+02  0.38208E+05
 0.25799999E+02  0.26419E+05
 0.25849998E+02  0.41957E+04
 0.25899998E+02 -0.31389E+04
 0.25949999E+02  0.31448E+05
 0.25999998E+02  0.50206E+05
 0.26049999E+02  0.68021E+05
 0.26099998E+02  0.82806E+05
 0.26149998E+02  0.66081E+05
 0.26199999E+02  0.50164E+05
 0.26249998E+02  0.47990E+05
 0.26299999E+02  0.55041E+05
 0.26349998E+02  0.79260E+05
 0.26399998E+02  0.85242E+05
 0.26449999E+02  0.53641E+05
 0.26499998E+02  0.14794E+05
 0.26549999E+02 -0.10604E+05
 0.26599998E+02 -0.30866E+05
 0.26649998E+02 -0.23497E+05
 0.26699999E+02  0.20138E+05
 0.26749998E+02  0.24106E+05
 0.26799999E+02  0.80232E+04
 0.26849998E+02 -0.13994E+05
 0.26899998E+02 -0.27234E+05
 0.26949999E+02  0.43781E+04
 0.26999998E+02  0.25053E+05
 0.27049997E+02  0.38737E+05
 0.27099998E+02  0.23211E+05
 0.27149998E+02 -0.15054E+05
 0.27199999E+02 -0.32621E+05
 0.27249998E+02 -0.12622E+05
 0.27299997E+02  0.32817E+05
 0.27349998E+02  0.41804E+05
 0.27399998E+02  0.21516E+05
 0.27449999E+02 -0.59282E+04
 0.27499998E+02 -0.81168E+04
 0.27549997E+02 -0.68307E+04
 0.27599998E+02 -0.10120E+05
 0.27649998E+02  0.30373E+04
 0.27699999E+02  0.80338E+03
 0.27749998E+02 -0.17634E+05
 0.27799997E+02 -0.28861E+05
 0.27849998E+02 -0.47868E+05
 0.27899998E+02 -0.46705E+05
 0.27949999E+02 -0.48208E+05
 0.27999998E+02 -0.48740E+05
 0.28049997E+02 -0.35252E+05
 0.28099998E+02 -0.59328E+05
 0.28149998E+02 -0.73190E+05
 0.28199999E+02 -0.42854E+05
 0.28249998E+02 -0.32102E+05
 0.28299997E+02 -0.39676E+05
 0.28349998E+02 -0.45618E+05
 0.28399998E+02 -0.58397E+05
 0.28449999E+02 -0.88709E+05
 0.28499998E+02 -0.10247E+06
 0.28549997E+02 -0.52751E+05
 0.28599998E+02 -0.81748E+04
 0.28649998E+02 -0.30367E+05
 0.28699999E+02 -0.83910E+05
 0.28749998E+02 -0.11229E+06
 0.28799997E+02 -0.12325E+06
 0.28849998E+02 -0.12758E+06
 0.28899998E+02 -0.10235E+06
 0.28949999E+02 -0.58517E+05
 0.28999998E+02 -0.22342E+05
 0.29049997E+02  0.32056E+04
 0.29099998E+02 -0.28470E+05
 0.29149998E+02 -0.33992E+05
 0.29199999E+02 -0.30681E+05
 0.29249998E+02 -0.27199E+05
 0.29299997E+02  0.11671E+05
 0.29349998E+02  0.45133E+05
 0.29399998E+02  0.42119E+05
 0.29449999E+02  0.10333E+05
 0.29499998E+02  0.11725E+05
 0.29549997E+02  0.42557E+05
 0.29599998E+02  0.91550E+05
 0.29649998E+02  0.94285E+05
 0.29699999E+02  0.46727E+05
 0.29749998E+02  0.35499E+04
 0.29799997E+02  0.16619E+04
 0.29849998E+02  0.13005E+05
 0.29899998E+02  0.86312E+04
 0.29949999E+02  0.26802E+05
 0.29999998E+02  0.65086E+05
 0.30049999E+02  0.53790E+05
 0.30099998E+02  0.12028E+05
 0.30149998E+02 -0.21137E+05
 0.30199997E+02 -0.14314E+05
 0.30249996E+02 -0.16867E+04
 0.30299999E+02  0.20627E+05
 0.30349998E+02  0.29092E+05
 0.30399998E+02  0.10599E+05
 0.30449997E+02  0.34717E+05
 0.30499996E+02  0.28695E+05
 0.30549999E+02 -0.43225E+04
 0.30599998E+02 -0.39550E+05
 0.30649998E+02 -0.26516E+05
 0.30699997E+02  0.32731E+05
 0.30749996E+02  0.34086E+05
 0.30799999E+02 -0.14999E+05
 0.30849998E+02 -0.27124E+04
 0.30899998E+02  0.63328E+05
 0.30949997E+02  0.83495E+05
 0.30999996E+02  0.72361E+05
 0.31049999E+02  0.22208E+05
 0.31099998E+02  0.10261E+05
 0.31149998E+02  0.16354E+05
 0.31199997E+02 -0.14084E+05
 0.31249996E+02  0.15115E+05
 0.31299999E+02  0.33236E+05
 0.31349998E+02  0.47264E+05
 0.31399998E+02  0.52614E+05
 0.31449997E+02  0.29657E+05
 0.31499996E+02  0.26872E+04
 0.31549999E+02  0.45570E+04
 0.31599998E+02  0.29152E+05
 0.31649998E+02  0.13666E+05
 0.31699997E+02  0.49397E+05
 0.31749996E+02  0.71600E+05
 0.31799999E+02  0.21625E+05
 0.31849998E+02  0.18040E+04
 0.31899998E+02  0.86819E+04
 0.31949997E+02  0.54063E+04
 0.31999996E+02 -0.12350E+05
 0.32049999E+02 -0.26162E+05
 0.32099998E+02 -0.81415E+05
 0.32149998E+02 -0.98774E+05
 0.32199997E+02 -0.11343E+06
 0.32249996E+02 -0.15917E+06
 0.32299999E+02 -0.13457E+06
 0.32349998E+02 -0.94909E+05
 0.32399998E+02 -0.38749E+05
 0.32449997E+02 -0.41207E+05
 0.32499996E+02  0.60058E+03
 0.32549999E+02  0.57602E+05
 0.32599998E+02  0.63708E+05
 0.32649998E+02  0.45145E+05
 0.32699997E+02  0.27914E+05
 0.32749996E+02  0.70049E+05
 0.32799999E+02  0.53076E+05
 0.32849998E+02  0.22145E+05
 0.32899998E+02 -0.17827E+05
 0.32949997E+02 -0.34391E+05
 0.32999996E+02  0.97094E+04
 0.33049999E+02  0.14617E+03
 0.33099998E+02 -0.36831E+05
 0.33149998E+02 -0.55640E+05
 0.33199997E+02 -0.27458E+05
 0.33249996E+02  0.22551E+05
 0.33299999E+02  0.42584E+05
 0.33349998E+02  0.25005E+05
 0.33399998E+02 -0.80874E+04
 0.33449997E+02 -0.20964E+05
 0.33499996E+02 -0.10168E+06
 0.33549999E+02 -0.14314E+06
 0.33599998E+02 -0.84006E+05
 0.33649998E+02 -0.42187E+05
 0.33699997E+02 -0.30474E+05
 0.33749996E+02 -0.24525E+05
 0.33799999E+02 -0.29066E+05
 0.33849998E+02  0.72479E+03
 0.33899998E+02 -0.28383E+05
 0.33949997E+02 -0.27680E+05
 0.33999996E+02  0.91417E+05
 0.34049999E+02  0.12914E+06
 0.34099998E+02  0.10665E+06
 0.34149998E+02  0.46954E+05
 0.34199997E+02  0.30877E+05
 0.34249996E+02  0.68186E+05
 0.34299999E+02  0.29562E+05
 0.34349998E+02 -0.97704E+04
 0.34399998E+02  0.43260E+05
 0.34449997E+02  0.58622E+05
 0.34499996E+02  0.35311E+05
 0.34549999E+02  0.25971E+05
 0.34599998E+02  0.58717E+05
 0.34649998E+02  0.13098E+06
 0.34699997E+02  0.17738E+06
 0.34749996E+02  0.16383E+06
 0.34799999E+02  0.13411E+06
 0.34849998E+02  0.92560E+05
 0.34899998E+02  0.47661E+05
 0.34949997E+02  0.39881E+05
 0.34999996E+02  0.28275E+04
 0.35049999E+02  0.12618E+04
 0.35099998E+02 -0.95845E+04
 0.35149998E+02 -0.47195E+05
 0.35199997E+02 -0.74483E+05
 0.35249996E+02 -0.67369E+05
 0.35299999E+02 -0.33129E+05
 0.35349998E+02  0.32355E+05
 0.35399998E+02  0.11985E+06
 0.35449997E+02  0.15587E+06
 0.35499996E+02  0.12819E+06
 0.35549999E+02  0.76832E+05
 0.35599998E+02  0.22870E+05
 0.35649998E+02 -0.13827E+05
 0.35699997E+02 -0.15949E+05
 0.35749996E+02 -0.31450E+05
 0.35799999E+02 -0.39209E+05
 0.35849998E+02 -0.38408E+05
 0.35899998E+02 -0.10272E+05
 0.35949997E+02 -0.82052E+04
 0.35999996E+02 -0.35175E+04
 0.36049999E+02  0.47098E+05
 0.36099998E+02  0.12665E+06
 0.36149998E+02  0.16637E+06
 0.36199997E+02  0.93221E+05
 0.36249996E+02 -0.30996E+05
 0.36299999E+02 -0.11735E+06
 0.36349998E+02 -0.17649E+06
 0.36399998E+02 -0.27055E+06
 0.36449997E+02 -0.30348E+06
 0.36499996E+02 -0.28375E+06
 0.36549999E+02 -0.22989E+06
 0.36599998E+02 -0.15278E+06
 0.36649998E+02 -0.10013E+06
 0.36699997E+02 -0.60385E+05
 0.36749996E+02 -0.45577E+04
 0.36799999E+02  0.72333E+05
 0.36849998E+02  0.11776E+06
 0.36899998E+02  0.13916E+06
 0.36949997E+02  0.12481E+06
 0.36999996E+02  0.12559E+06
 0.37049999E+02  0.12003E+06
 0.37099998E+02  0.81032E+05
 0.37149998E+02  0.86405E+05
 0.37199997E+02  0.40729E+05
 0.37249996E+02 -0.27359E+05
 0.37299999E+02 -0.36731E+05
 0.37349998E+02 -0.34097E+05
 0.37399998E+02 -0.98558E+05
 0.37449997E+02 -0.14808E+06
 0.37499996E+02 -0.13845E+06
 0.37549999E+02 -0.13661E+06
 0.37599998E+02 -0.14969E+06
 0.37649998E+02 -0.20225E+06
 0.37699997E+02 -0.18808E+06
 0.37749996E+02 -0.16829E+06
 0.37799999E+02 -0.17382E+06
 0.37849998E+02 -0.19487E+06
 0.37899998E+02 -0.19192E+06
 0.37949997E+02 -0.12958E+06
 0.37999996E+02 -0.12554E+06
 0.38049999E+02 -0.11658E+06
 0.38099998E+02 -0.73466E+05
 0.38149998E+02 -0.73884E+04
 0.38199997E+02  0.70565E+05
 0.38249996E+02  0.92777E+05
 0.38299999E+02  0.35279E+05
 0.38349998E+02  0.11931E+05
 0.38399998E+02  0.36977E+05
 0.38449997E+02  0.34224E+05
 0.38499996E+02  0.96636E+04
 0.38549999E+02 -0.24217E+05
 0.38599998E+02 -0.25867E+05
 0.38649998E+02 -0.35079E+05
 0.38699997E+02 -0.43059E+05
 0.38749996E+02 -0.21975E+05
 0.38799999E+02  0.12261E+05
 0.38849998E+02  0.45946E+05
 0.38899998E+02  0.82874E+05
 0.38949997E+02  0.10275E+06
 0.38999996E+02  0.34639E+05
 0.39049999E+02 -0.42419E+05
 0.39099998E+02 -0.63393E+05
 0.39149998E+02 -0.62544E+05
 0.39199997E+02 -0.46013E+05
 0.39249996E+02 -0.40012E+05
 0.39299999E+02 -0.74536E+05
 0.39349998E+02 -0.70697E+05
 0.39399998E+02 -0.65138E+04
 0.39449997E+02 -0.18113E+05
 0.39499996E+02 -0.89814E+05
 0.39549999E+02 -0.15010E+06
 0.39599998E+02 -0.16155E+06
 0.39649998E+02 -0.11152E+06
 0.39699997E+02 -0.47013E+05
 0.39749996E+02  0.39869E+05
 0.39799999E+02  0.12628E+06
 0.39849998E+02  0.15965E+06
 0.39899998E+02  0.18093E+06
 0.39949997E+02  0.22648E+06
 0.39999996E+02  0.19924E+06
 0.40049999E+02  0.92233E+05
 0.40099998E+02  0.18150E+05
 0.40149998E+02  0.14301E+05
 0.40199997E+02  0.19103E+05
 0.40249996E+02  0.36981E+05
 0.40299999E+02  0.64728E+05
 0.40349998E+02  0.36540E+05
 0.40399998E+02  0.51686E+04
 0.40449997E+02  0.12212E+05
 0.40499996E+02 -0.56729E+04
 0.40549999E+02 -0.39622E+05
 0.40599998E+02 -0.69286E+05
 0.40649998E+02 -0.82016E+05
 0.40699997E+02 -0.77243E+05
 0.40749996E+02 -0.10061E+06
 0.40799999E+02 -0.14094E+06
 0.40849998E+02 -0.16767E+06
 0.40899998E+02 -0.13380E+06
 0.40949997E+02 -0.12271E+06
 0.40999996E+02 -0.18129E+06
 0.41049999E+02 -0.27161E+06
 0.41099998E+02 -0.37730E+06
 0.41149998E+02 -0.48120E+06
 0.41199997E+02 -0.50833E+06
 0.41249996E+02 -0.43189E+06
 0.41299999E+02 -0.32113E+06
 0.41349998E+02 -0.19863E+06
 0.41399998E+02 -0.11544E+06
 0.41449997E+02 -0.56360E+05
 0.41499996E+02  0.87306E+04
 0.41549999E+02  0.69729E+05
 0.41599998E+02  0.53221E+05
 0.41649998E+02 -0.63932E+04
 0.41699997E+02 -0.56420E+05
 0.41749996E+02 -0.62745E+05
 0.41799999E+02 -0.25938E+05
 0.41849998E+02  0.52278E+04
 0.41899998E+02 -0.26846E+04
 0.41949997E+02 -0.11397E+06
 0.41999996E+02 -0.16029E+06
 0.42049999E+02 -0.15185E+06
 0.42099998E+02 -0.19144E+06
 0.42149998E+02 -0.12689E+06
 0.42199997E+02  0.88404E+05
 0.42249996E+02  0.29469E+06
 0.42299999E+02  0.31750E+06
 0.42349998E+02  0.24347E+06
 0.42399998E+02  0.23128E+06
 0.42449997E+02  0.20561E+06
 0.42499996E+02  0.17026E+06
 0.42549999E+02  0.17200E+06
 0.42599998E+02  0.10204E+06
 0.42649998E+02  0.70042E+05
 0.42699997E+02  0.18953E+06
 0.42749996E+02  0.22424E+06
 0.42799995E+02 -0.41616E+05
 0.42849998E+02 -0.34459E+06
 0.42899998E+02 -0.36227E+06
 0.42949997E+02 -0.23737E+06
 0.42999996E+02 -0.18342E+06
 0.43049995E+02 -0.22047E+06
 0.43099998E+02 -0.31269E+06
 0.43149998E+02 -0.50428E+06
 0.43199997E+02 -0.67731E+06
 0.43249996E+02 -0.70070E+06
 0.43299995E+02 -0.67534E+06
 0.43349998E+02 -0.56246E+06
 0.43399998E+02 -0.41632E+06
 0.43449997E+02 -0.20131E+06
 0.43499996E+02  0.11603E+06
 0.43549995E+02  0.27712E+06
 0.43599998E+02  0.29313E+06
 0.43649998E+02  0.33246E+06
 0.43699997E+02  0.56628E+06
 0.43749996E+02  0.87903E+06
 0.43799995E+02  0.90860E+06
 0.43849998E+02  0.78216E+06
 0.43899998E+02  0.67066E+06
 0.43949997E+02  0.40963E+06
 0.43999996E+02 -0.34633E+04
 0.44049995E+02 -0.40445E+06
 0.44099998E+02 -0.46475E+06
 0.44149998E+02 -0.36190E+06
 0.44199997E+02 -0.34535E+06
 0.44249996E+02 -0.17643E+06
 0.44299995E+02  0.10891E+06
 0.44349998E+02  0.29260E+06
 0.44399998E+02  0.21768E+06
 0.44449997E+02 -0.43433E+05
 0.44499996E+02 -0.18597E+06
 0.44549995E+02 -0.22089E+06
 0.44599998E+02 -0.17115E+06
 0.44649998E+02 -0.33036E+05
 0.44699997E+02 -0.40878E+05
 0.44749996E+02 -0.13864E+06
 0.44799995E+02 -0.14071E+06
 0.44849998E+02 -0.13175E+06
 0.44899998E+02 -0.30318E+06
 0.44949997E+02 -0.48286E+06
 0.44999996E+02 -0.44910E+06
 0.45049995E+02 -0.28688E+06
 0.45099998E+02 -0.22652E+06
 0.45149998E+02 -0.10558E+06
 0.45199997E+02 -0.26984E+05
 0.45249996E+02 -0.31918E+06
 0.45299995E+02 -0.67606E+06
 0.45349998E+02 -0.87935E+06
 0.45399998E+02 -0.81335E+06
 0.45449997E+02 -0.55559E+06
 0.45499996E+02 -0.23168E+06
 0.45549995E+02  0.19100E+06
 0.45599998E+02  0.46710E+06
 0.45649998E+02  0.48413E+06
 0.45699997E+02  0.27801E+06
 0.45749996E+02  0.25400E+06
 0.45799995E+02  0.49160E+06
 0.45849998E+02  0.61226E+06
 0.45899998E+02  0.40424E+06
 0.45949997E+02  0.71238E+05
 0.45999996E+02 -0.96874E+05
 0.46049995E+02 -0.26294E+06
 0.46099998E+02 -0.51222E+06
 0.46149998E+02 -0.74391E+06
 0.46199997E+02 -0.62985E+06
 0.46249996E+02 -0.48709E+06
 0.46299995E+02 -0.54206E+06
 0.46349998E+02 -0.53988E+06
 0.46399998E+02 -0.40486E+06
 0.46449997E+02 -0.29993E+06
 0.46499996E+02 -0.25414E+06
 0.46549995E+02 -0.21081E+06
 0.46599998E+02 -0.21368E+06
 0.46649998E+02 -0.17777E+06
 0.46699997E+02 -0.10895E+06
 0.46749996E+02 -0.14545E+05
 0.46799995E+02  0.57336E+05
 0.46849998E+02  0.19534E+06
 0.46899998E+02  0.35963E+06
 0.46949997E+02  0.45473E+06
 0.46999996E+02  0.38605E+06
 0.47049995E+02  0.22293E+06
 0.47099998E+02  0.20960E+06
 0.47149998E+02  0.24449E+06
 0.47199997E+02  0.21147E+06
 0.47249996E+02  0.24573E+06
 0.47299995E+02  0.26887E+06
 0.47349998E+02  0.17204E+06
 0.47399998E+02  0.98534E+05
 0.47449997E+02  0.18087E+06
 0.47499996E+02  0.32988E+06
 0.47549995E+02  0.53126E+06
 0.47599998E+02  0.79623E+06
 0.47649998E+02  0.93890E+06
 0.47699997E+02  0.93006E+06
 0.47749996E+02  0.63518E+06
 0.47799995E+02  0.31991E+06
 0.47849998E+02  0.25032E+06
 0.47899998E+02  0.37606E+06
 0.47949997E+02  0.55161E+06
 0.47999996E+02  0.57452E+06
 0.48049995E+02  0.48176E+06
 0.48099998E+02  0.43782E+06
 0.48149998E+02  0.43745E+06
 0.48199997E+02  0.28777E+06
 0.48249996E+02  0.14483E+06
 0.48299995E+02  0.75628E+05
 0.48349998E+02  0.99491E+05
 0.48399998E+02  0.24908E+06
 0.48449997E+02  0.53480E+06
 0.48499996E+02  0.61819E+06
 0.48549995E+02  0.45265E+06
 0.48599998E+02  0.29038E+06
 0.48649998E+02  0.19350E+06
 0.48699997E+02  0.25172E+06
 0.48749996E+02  0.23498E+06
 0.48799995E+02  0.20203E+06
 0.48849998E+02  0.26886E+06
 0.48899998E+02  0.29572E+06
 0.48949997E+02  0.38655E+06
 0.48999996E+02  0.55678E+06
 0.49049995E+02  0.59358E+06
 0.49099998E+02  0.53110E+06
 0.49149998E+02  0.38167E+06
 0.49199997E+02  0.16107E+06
 0.49249996E+02  0.58574E+05
 0.49299995E+02  0.29689E+05
 0.49349998E+02  0.82792E+05
 0.49399998E+02  0.27854E+06
 0.49449997E+02  0.49137E+06
 0.49499996E+02  0.59854E+06
 0.49549995E+02  0.65769E+06
 0.49599998E+02  0.67820E+06
 0.49649998E+02  0.62691E+06
 0.49699997E+02  0.51099E+06
 0.49749996E+02  0.33976E+06
 0.49799995E+02  0.20002E+06
 0.49849998E+02  0.12502E+05
 0.49899998E+02 -0.56579E+05
 0.49949997E+02  0.77927E+05
 0.49999996E+02  0.19453E+06
 0.50049995E+02  0.25321E+06
 0.50099998E+02  0.32455E+06
 0.50149998E+02  0.39885E+06
 0.50199997E+02  0.36838E+06
 0.50249996E+02  0.49747E+05
 0.50299995E+02 -0.33654E+06
 0.50349998E+02 -0.56597E+06
 0.50399998E+02 -0.53057E+06
 0.50449997E+02 -0.28850E+06
 0.50499996E+02 -0.52582E+05
 0.50549995E+02  0.62153E+05
 0.50599998E+02 -0.14370E+06
 0.50649998E+02 -0.41628E+06
 0.50699997E+02 -0.53471E+06
 0.50749996E+02 -0.49410E+06
 0.50799995E+02 -0.33414E+06
 0.50849998E+02 -0.14349E+06
 0.50899998E+02  0.37349E+05
 0.50949997E+02  0.16919E+06
 0.50999996E+02  0.19857E+06
 0.51049995E+02  0.15903E+06
 0.51099998E+02  0.82873E+05
 0.51149998E+02 -0.80366E+05
 0.51199997E+02 -0.29149E+06
 0.51249996E+02 -0.50304E+06
 0.51299995E+02 -0.57049E+06
 0.51349998E+02 -0.38467E+06
 0.51399998E+02 -0.91370E+05
 0.51449997E+02  0.17740E+06
 0.51499996E+02  0.41228E+06
 0.51549995E+02  0.69487E+06
 0.51599998E+02  0.94131E+06
 0.51649998E+02  0.99059E+06
 0.51699997E+02  0.85061E+06
 0.51749996E+02  0.59350E+06
 0.51799995E+02  0.34359E+06
 0.51849998E+02  0.21487E+06
 0.51899998E+02  0.20666E+06
 0.51949997E+02  0.30096E+06
 0.51999996E+02  0.36738E+06
 0.52049995E+02  0.26808E+06
 0.52099998E+02  0.18623E+06
 0.52149998E+02  0.19320E+06
 0.52199997E+02  0.26476E+06
 0.52249996E+02  0.46168E+06
 0.52299995E+02  0.68400E+06
 0.52349998E+02  0.78155E+06
 0.52399998E+02  0.79536E+06
 0.52449997E+02  0.74253E+06
 0.52499996E+02  0.61517E+06
 0.52549995E+02  0.53434E+06
 0.52599998E+02  0.55497E+06
 0.52649998E+02  0.56524E+06
 0.52699997E+02  0.52046E+06
 0.52749996E+02  0.49464E+06
 0.52799995E+02  0.59739E+06
 0.52849998E+02  0.80278E+06
 0.52899998E+02  0.10190E+07
 0.52949997E+02  0.11809E+07
 0.52999996E+02  0.11983E+07
 0.53049995E+02  0.10329E+07
 0.53099998E+02  0.68242E+06
 0.53149998E+02  0.33729E+06
 0.53199997E+02  0.16327E+06
 0.53249996E+02  0.47049E+04
 0.53299995E+02 -0.18657E+06
 0.53349998E+02 -0.26004E+06
 0.53399998E+02 -0.22261E+06
 0.53449997E+02 -0.16327E+06
 0.53499996E+02 -0.18579E+06
 0.53549995E+02 -0.21100E+06
 0.53599998E+02 -0.20514E+06
 0.53649998E+02 -0.15824E+06
 0.53699997E+02  0.92633E+05
 0.53749996E+02  0.38830E+06
 0.53799995E+02  0.40396E+06
 0.53849998E+02  0.19718E+06
 0.53899998E+02 -0.66863E+04
 0.53949997E+02 -0.75714E+05
 0.53999996E+02  0.40520E+04
 0.54049995E+02  0.35198E+05
 0.54099998E+02 -0.12294E+06
 0.54149998E+02 -0.33910E+06
 0.54199997E+02 -0.42360E+06
 0.54249996E+02 -0.34297E+06
 0.54299995E+02 -0.17748E+06
 0.54349998E+02 -0.99835E+05
 0.54399998E+02 -0.55477E+05
 0.54449997E+02  0.37680E+05
 0.54499996E+02  0.66403E+05
 0.54549995E+02 -0.13648E+05
 0.54599998E+02 -0.16664E+06
 0.54649998E+02 -0.34281E+06
 0.54699997E+02 -0.48496E+06
 0.54749996E+02 -0.60888E+06
 0.54799995E+02 -0.73575E+06
 0.54849998E+02 -0.83746E+06
 0.54899998E+02 -0.97702E+06
 0.54949997E+02 -0.11544E+07
 0.54999996E+02 -0.12849E+07
 0.55049995E+02 -0.13955E+07
 0.55099998E+02 -0.15537E+07
 0.55149998E+02 -0.15987E+07
 0.55199997E+02 -0.15762E+07
 0.55249996E+02 -0.14950E+07
 0.55299995E+02 -0.13170E+07
 0.55349998E+02 -0.11976E+07
 0.55399998E+02 -0.10757E+07
 0.55449997E+02 -0.95168E+06
 0.55499996E+02 -0.84242E+06
 0.55549995E+02 -0.72906E+06
 0.55599998E+02 -0.65459E+06
 0.55649998E+02 -0.66330E+06
 0.55699997E+02 -0.68129E+06
 0.55749996E+02 -0.60957E+06
 0.55799995E+02 -0.42980E+06
 0.55849995E+02 -0.31622E+06
 0.55899998E+02 -0.36672E+06
 0.55949997E+02 -0.42220E+06
 0.55999996E+02 -0.46257E+06
 0.56049995E+02 -0.52014E+06
 0.56099995E+02 -0.62738E+06
 0.56149998E+02 -0.77072E+06
 0.56199997E+02 -0.89052E+06
 0.56249996E+02 -0.94950E+06
 0.56299995E+02 -0.89697E+06
 0.56349995E+02 -0.72640E+06
 0.56399998E+02 -0.56031E+06
 0.56449997E+02 -0.53860E+06
 0.56499996E+02 -0.63905E+06
 0.56549995E+02 -0.80757E+06
 0.56599995E+02 -0.10355E+07
 0.56649998E+02 -0.11974E+07
 0.56699997E+02 -0.11731E+07
 0.56749996E+02 -0.98501E+06
 0.56799995E+02 -0.81656E+06
 0.56849995E+02 -0.82227E+06
 0.56899998E+02 -0.81962E+06
 0.56949997E+02 -0.68616E+06
 0.56999996E+02 -0.51728E+06
 0.57049995E+02 -0.37239E+06
 0.57099995E+02 -0.29785E+06
 0.57149998E+02 -0.26980E+06
 0.57199997E+02 -0.23577E+06
 0.57249996E+02 -0.15833E+06
 0.57299995E+02 -0.23410E+05
 0.57349995E+02  0.17947E+06
 0.57399998E+02  0.43031E+06
 0.57449997E+02  0.62133E+06
 0.57499996E+02  0.68841E+06
 0.57549995E+02  0.64689E+06
 0.57599995E+02  0.58364E+06
 0.57649998E+02  0.52871E+06
 0.57699997E+02  0.42670E+06
 0.57749996E+02  0.29097E+06
 0.57799995E+02  0.14809E+06
 0.57849995E+02 -0.65765E+05
 0.57899998E+02 -0.32482E+06
 0.57949997E+02 -0.53273E+06
 0.57999996E+02 -0.65126E+06
 0.58049995E+02 -0.69342E+06
 0.58099995E+02 -0.71161E+06
 0.58149998E+02 -0.82465E+06
 0.58199997E+02 -0.10437E+07
 0.58249996E+02 -0.11923E+07
 0.58299995E+02 -0.11751E+07
 0.58349995E+02 -0.10443E+07
 0.58399998E+02 -0.90492E+06
 0.58449997E+02 -0.88418E+06
 0.58499996E+02 -0.95554E+06
 0.58549995E+02 -0.95313E+06
 0.58599995E+02 -0.81731E+06
 0.58649998E+02 -0.58763E+06
 0.58699997E+02 -0.27212E+06
 0.58749996E+02  0.10725E+06
 0.58799995E+02  0.42479E+06
 0.58849995E+02  0.59244E+06
 0.58899998E+02  0.56633E+06
 0.58949997E+02  0.47210E+06
 0.58999996E+02  0.50635E+06
 0.59049995E+02  0.61661E+06
 0.59099995E+02  0.63679E+06
 0.59149998E+02  0.57790E+06
 0.59199997E+02  0.46652E+06
 0.59249996E+02  0.34721E+06
 0.59299995E+02  0.26663E+06
 0.59349995E+02  0.21069E+06
 0.59399998E+02  0.22937E+06
 0.59449997E+02  0.31704E+06
 0.59499996E+02  0.43346E+06
 0.59549995E+02  0.55493E+06
 0.59599995E+02  0.63599E+06
 0.59649998E+02  0.66362E+06
 0.59699997E+02  0.67423E+06
 0.59749996E+02  0.68829E+06
 0.59799995E+02  0.67343E+06
 0.59849995E+02  0.64167E+06
 0.59899998E+02  0.60552E+06
 0.59949997E+02  0.51287E+06
 0.59999996E+02  0.41154E+06
 0.60049995E+02  0.33194E+06
 0.60099995E+02  0.29960E+06
 0.60149998E+02  0.28495E+06
 0.60199997E+02  0.29410E+06
 0.60249996E+02  0.33340E+06
 0.60299995E+02  0.30874E+06
 0.60349995E+02  0.27112E+06
 0.60399998E+02  0.30123E+06
 0.60449997E+02  0.37234E+06
 0.60499996E+02  0.43912E+06
 0.60549995E+02  0.45890E+06
 0.60599995E+02  0.43946E+06
 0.60649998E+02  0.46571E+06
 0.60699997E+02  0.52626E+06
 0.60749996E+02  0.55849E+06
 0.60799995E+02  0.58038E+06
 0.60849995E+02  0.58241E+06
 0.60899998E+02  0.61382E+06
 0.60949997E+02  0.75718E+06
 0.60999996E+02  0.95996E+06
 0.61049995E+02  0.12059E+07
 0.61099995E+02  0.14334E+07
 0.61149998E+02  0.15567E+07
 0.61199997E+02  0.15800E+07
 0.61249996E+02  0.15230E+07
 0.61299995E+02  0.14329E+07
 0.61349995E+02  0.14512E+07
 0.61399998E+02  0.15903E+07
 0.61449997E+02  0.16839E+07
 0.61499996E+02  0.17181E+07
 0.61549995E+02  0.16883E+07
 0.61599995E+02  0.15381E+07
 0.61649998E+02  0.12312E+07
 0.61699997E+02  0.81757E+06
 0.61749996E+02  0.41280E+06
 0.61799995E+02  0.12806E+06
 0.61849995E+02 -0.15309E+05
 0.61899998E+02 -0.83361E+05
 0.61949997E+02 -0.13617E+06
 0.61999996E+02 -0.25765E+06
 0.62049995E+02 -0.41010E+06
 0.62099998E+02 -0.53329E+06
 0.62149994E+02 -0.64130E+06
 0.62199997E+02 -0.74672E+06
 0.62249992E+02 -0.79910E+06
 0.62299995E+02 -0.79068E+06
 0.62349998E+02 -0.80475E+06
 0.62399994E+02 -0.83567E+06
 0.62449997E+02 -0.82947E+06
 0.62499992E+02 -0.76421E+06
 0.62549995E+02 -0.66645E+06
 0.62599998E+02 -0.59445E+06
 0.62649994E+02 -0.52744E+06
 0.62699997E+02 -0.46167E+06
 0.62749992E+02 -0.39268E+06
 0.62799995E+02 -0.31997E+06
 0.62849998E+02 -0.24623E+06
 0.62899994E+02 -0.12368E+06
 0.62949997E+02  0.24726E+05
 0.62999992E+02  0.15993E+06
 0.63049995E+02  0.26489E+06
 0.63099998E+02  0.29256E+06
 0.63149994E+02  0.26929E+06
 0.63199997E+02  0.20880E+06
 0.63249992E+02  0.10918E+06
 0.63299995E+02  0.85765E+04
 0.63349998E+02 -0.79295E+05
 0.63399994E+02 -0.12929E+06
 0.63449997E+02 -0.10795E+06
 0.63499992E+02 -0.65726E+05
 0.63549995E+02 -0.99929E+05
 0.63599998E+02 -0.22044E+06
 0.63649994E+02 -0.44759E+06
 0.63699997E+02 -0.73715E+06
 0.63749992E+02 -0.99342E+06
 0.63799995E+02 -0.11178E+07
 0.63849998E+02 -0.11417E+07
 0.63899994E+02 -0.11338E+07
 0.63949997E+02 -0.10459E+07
 0.63999992E+02 -0.84701E+06
 0.64049995E+02 -0.59484E+06
 0.64099998E+02 -0.34257E+06
 0.64149994E+02 -0.64887E+05
 0.64199997E+02  0.18254E+06
 0.64249992E+02  0.32414E+06
 0.64299995E+02  0.35841E+06
 0.64349998E+02  0.28175E+06
 0.64399994E+02  0.10858E+06
 0.64449997E+02 -0.43057E+05
 0.64499992E+02 -0.93520E+05
 0.64549995E+02 -0.53079E+05
 0.64599998E+02  0.41464E+05
 0.64649994E+02  0.14835E+06
 0.64699997E+02  0.26633E+06
 0.64749992E+02  0.38440E+06
 0.64799995E+02  0.43941E+06
 0.64849998E+02  0.34112E+06
 0.64899994E+02  0.11316E+06
 0.64949997E+02 -0.11530E+06
 0.64999992E+02 -0.31572E+06
 0.65049995E+02 -0.52389E+06
 0.65099998E+02 -0.70818E+06
 0.65149994E+02 -0.81822E+06
 0.65199997E+02 -0.86234E+06
 0.65249992E+02 -0.86708E+06
 0.65299995E+02 -0.84003E+06
 0.65349998E+02 -0.78547E+06
 0.65399994E+02 -0.70595E+06
 0.65449997E+02 -0.58761E+06
 0.65499992E+02 -0.41539E+06
 0.65549995E+02 -0.20797E+06
 0.65599998E+02 -0.32925E+05
 0.65649994E+02  0.91202E+05
 0.65699997E+02  0.22021E+06
 0.65749992E+02  0.39653E+06
 0.65799995E+02  0.62168E+06
 0.65849998E+02  0.86046E+06
 0.65899994E+02  0.10638E+07
 0.65949997E+02  0.12088E+07
 0.65999992E+02  0.13170E+07
 0.66049995E+02  0.13929E+07
 0.66099998E+02  0.14127E+07
 0.66149994E+02  0.13349E+07
 0.66199997E+02  0.12047E+07
 0.66249992E+02  0.11073E+07
 0.66299995E+02  0.10165E+07
 0.66349998E+02  0.93193E+06
 0.66399994E+02  0.88061E+06
 0.66449997E+02  0.83073E+06
 0.66499992E+02  0.74936E+06
 0.66549995E+02  0.60839E+06
 0.66599998E+02  0.45893E+06
 0.66649994E+02  0.34211E+06
 0.66699997E+02  0.23750E+06
 0.66749992E+02  0.97133E+05
 0.66799995E+02 -0.99504E+05
 0.66849998E+02 -0.29887E+06
 0.66899994E+02 -0.48075E+06
 0.66949997E+02 -0.65478E+06
 0.66999992E+02 -0.77628E+06
 0.67049995E+02 -0.78742E+06
 0.67099998E+02 -0.73356E+06
 0.67149994E+02 -0.66471E+06
 0.67199997E+02 -0.57156E+06
 0.67249992E+02 -0.46451E+06
 0.67299995E+02 -0.37744E+06
 0.67349998E+02 -0.25154E+06
 0.67399994E+02 -0.45334E+05
 0.67449997E+02  0.21268E+06
 0.67499992E+02  0.53861E+06
 0.67549995E+02  0.90570E+06
 0.67599998E+02  0.12500E+07
 0.67649994E+02  0.15383E+07
 0.67699997E+02  0.17808E+07
 0.67749992E+02  0.19653E+07
 0.67799995E+02  0.20311E+07
 0.67849998E+02  0.19755E+07
 0.67899994E+02  0.18272E+07
 0.67949997E+02  0.15781E+07
 0.67999992E+02  0.12519E+07
 0.68049995E+02  0.93091E+06
 0.68099998E+02  0.67593E+06
 0.68149994E+02  0.46989E+06
 0.68199997E+02  0.23130E+06
 0.68249992E+02 -0.45174E+05
 0.68299995E+02 -0.29264E+06
 0.68349998E+02 -0.50719E+06
 0.68399994E+02 -0.69946E+06
 0.68449997E+02 -0.85497E+06
 0.68499992E+02 -0.99085E+06
 0.68549995E+02 -0.11001E+07
 0.68599998E+02 -0.11977E+07
 0.68649994E+02 -0.13190E+07
 0.68699997E+02 -0.14721E+07
 0.68749992E+02 -0.16662E+07
 0.68799995E+02 -0.18403E+07
 0.68849998E+02 -0.19626E+07
 0.68899994E+02 -0.20185E+07
 0.68949997E+02 -0.19962E+07
 0.68999992E+02 -0.19038E+07
 0.69049995E+02 -0.17367E+07
 0.69099998E+02 -0.15053E+07
 0.69149994E+02 -0.12457E+07
 0.69199997E+02 -0.99063E+06
 0.69249992E+02 -0.75695E+06
 0.69299995E+02 -0.53741E+06
 0.69349998E+02 -0.30046E+06
 0.69399994E+02 -0.97006E+05
 0.69449997E+02  0.25927E+05
 0.69499992E+02  0.81625E+05
 0.69549995E+02  0.87943E+05
 0.69599998E+02  0.39888E+05
 0.69649994E+02 -0.95096E+05
 0.69699997E+02 -0.30594E+06
 0.69749992E+02 -0.55262E+06
 0.69799995E+02 -0.76638E+06
 0.69849998E+02 -0.91522E+06
 0.69899994E+02 -0.10313E+07
 0.69949997E+02 -0.11388E+07
 0.69999992E+02 -0.12289E+07
 0.70049995E+02 -0.12459E+07
 0.70099998E+02 -0.11440E+07
 0.70149994E+02 -0.93832E+06
 0.70199997E+02 -0.70203E+06
 0.70249992E+02 -0.53413E+06
 0.70299995E+02 -0.49501E+06
 0.70349998E+02 -0.55686E+06
 0.70399994E+02 -0.65717E+06
 0.70449997E+02 -0.76888E+06
 0.70499992E+02 -0.84180E+06
 0.70549995E+02 -0.81032E+06
 0.70599998E+02 -0.64719E+06
 0.70649994E+02 -0.39340E+06
 0.70699997E+02 -0.17024E+06
 0.70749992E+02 -0.99435E+04
 0.70799995E+02  0.12817E+06
 0.70849998E+02  0.26230E+06
 0.70899994E+02  0.39242E+06
 0.70949997E+02  0.51680E+06
 0.70999992E+02  0.63227E+06
 0.71049995E+02  0.74102E+06
 0.71099998E+02  0.83493E+06
 0.71149994E+02  0.86985E+06
 0.71199997E+02  0.85972E+06
 0.71249992E+02  0.86544E+06
 0.71299995E+02  0.91991E+06
 0.71349998E+02  0.97181E+06
 0.71399994E+02  0.92507E+06
 0.71449997E+02  0.77758E+06
 0.71499992E+02  0.61285E+06
 0.71549995E+02  0.48805E+06
 0.71599998E+02  0.44463E+06
 0.71649994E+02  0.51287E+06
 0.71699997E+02  0.68595E+06
 0.71749992E+02  0.92458E+06
 0.71799995E+02  0.11205E+07
 0.71849998E+02  0.12039E+07
 0.71899994E+02  0.12248E+07
 0.71949997E+02  0.12046E+07
 0.71999992E+02  0.11340E+07
 0.72049995E+02  0.10371E+07
 0.72099998E+02  0.94144E+06
 0.72149994E+02  0.85525E+06
 0.72199997E+02  0.76894E+06
 0.72249992E+02  0.68587E+06
 0.72299995E+02  0.61388E+06
 0.72349998E+02  0.57422E+06
 0.72399994E+02  0.59080E+06
 0.72449997E+02  0.68894E+06
 0.72499992E+02  0.88105E+06
 0.72549995E+02  0.11404E+07
 0.72599998E+02  0.14137E+07
 0.72649994E+02  0.16268E+07
 0.72699997E+02  0.17344E+07
 0.72749992E+02  0.17232E+07
 0.72799995E+02  0.16252E+07
 0.72849998E+02  0.14479E+07
 0.72899994E+02  0.11946E+07
 0.72949997E+02  0.91502E+06
 0.72999992E+02  0.63537E+06
 0.73049995E+02  0.39438E+06
 0.73099998E+02  0.21045E+06
 0.73149994E+02  0.61383E+05
 0.73199997E+02 -0.70951E+05
 0.73249992E+02 -0.20332E+06
 0.73299995E+02 -0.34120E+06
 0.73349998E+02 -0.43711E+06
 0.73399994E+02 -0.46144E+06
 0.73449997E+02 -0.43269E+06
 0.73499992E+02 -0.34491E+06
 0.73549995E+02 -0.21738E+06
 0.73599998E+02 -0.11959E+06
 0.73649994E+02 -0.11225E+06
 0.73699997E+02 -0.20725E+06
 0.73749992E+02 -0.36020E+06
 0.73799995E+02 -0.50877E+06
 0.73849998E+02 -0.62366E+06
 0.73899994E+02 -0.71548E+06
 0.73949997E+02 -0.78489E+06
 0.73999992E+02 -0.82805E+06
 0.74049995E+02 -0.87998E+06
 0.74099998E+02 -0.97295E+06
 0.74149994E+02 -0.10831E+07
 0.74199997E+02 -0.11583E+07
 0.74249992E+02 -0.11904E+07
 0.74299995E+02 -0.12068E+07
 0.74349998E+02 -0.12233E+07
 0.74399994E+02 -0.12452E+07
 0.74449997E+02 -0.12730E+07
 0.74499992E+02 -0.13176E+07
 0.74549995E+02 -0.13764E+07
 0.74599998E+02 -0.14484E+07
 0.74649994E+02 -0.15238E+07
 0.74699997E+02 -0.15613E+07
 0.74749992E+02 -0.15464E+07
 0.74799995E+02 -0.14920E+07
 0.74849998E+02 -0.14003E+07
 0.74899994E+02 -0.12592E+07
 0.74949997E+02 -0.10653E+07
 0.74999992E+02 -0.80423E+06
 0.75049995E+02 -0.50088E+06
 0.75099998E+02 -0.20540E+06
 0.75149994E+02  0.46823E+05
 0.75199997E+02  0.23017E+06
 0.75249992E+02  0.34664E+06
 0.75299995E+02  0.41888E+06
 0.75349998E+02  0.43130E+06
 0.75399994E+02  0.34876E+06
 0.75449997E+02  0.19793E+06
 0.75499992E+02 -0.63716E+03
 0.75549995E+02 -0.21569E+06
 0.75599998E+02 -0.39502E+06
 0.75649994E+02 -0.54283E+06
 0.75699997E+02 -0.66833E+06
 0.75749992E+02 -0.77981E+06
 0.75799995E+02 -0.90606E+06
 0.75849998E+02 -0.10266E+07
 0.75899994E+02 -0.10701E+07
 0.75949997E+02 -0.98397E+06
 0.75999992E+02 -0.80080E+06
 0.76049995E+02 -0.56645E+06
 0.76099998E+02 -0.32022E+06
 0.76149994E+02 -0.11339E+06
 0.76199997E+02  0.32944E+05
 0.76249992E+02  0.11622E+06
 0.76299995E+02  0.16340E+06
 0.76349998E+02  0.19923E+06
 0.76399994E+02  0.23068E+06
 0.76449997E+02  0.26786E+06
 0.76499992E+02  0.32664E+06
 0.76549995E+02  0.39526E+06
 0.76599998E+02  0.45456E+06
 0.76649994E+02  0.51311E+06
 0.76699997E+02  0.57804E+06
 0.76749992E+02  0.64507E+06
 0.76799995E+02  0.70904E+06
 0.76849998E+02  0.79286E+06
 0.76899994E+02  0.90124E+06
 0.76949997E+02  0.10256E+07
 0.76999992E+02  0.11568E+07
 0.77049995E+02  0.12685E+07
 0.77099998E+02  0.13484E+07
 0.77149994E+02  0.13956E+07
 0.77199997E+02  0.14006E+07
 0.77249992E+02  0.13501E+07
 0.77299995E+02  0.12540E+07
 0.77349998E+02  0.11420E+07
 0.77399994E+02  0.10551E+07
 0.77449997E+02  0.10087E+07
 0.77499992E+02  0.10028E+07
 0.77549995E+02  0.10302E+07
 0.77599998E+02  0.10654E+07
 0.77649994E+02  0.10922E+07
 0.77699997E+02  0.10913E+07
 0.77749992E+02  0.10487E+07
 0.77799995E+02  0.96317E+06
 0.77849998E+02  0.82579E+06
 0.77899994E+02  0.65936E+06
 0.77949997E+02  0.52413E+06
 0.77999992E+02  0.46401E+06
 0.78049995E+02  0.47483E+06
 0.78099998E+02  0.50852E+06
 0.78149994E+02  0.52055E+06
 0.78199997E+02  0.47148E+06
 0.78249992E+02  0.34454E+06
 0.78299995E+02  0.15645E+06
 0.78349998E+02 -0.98191E+05
 0.78399994E+02 -0.40664E+06
 0.78449997E+02 -0.71949E+06
 0.78499992E+02 -0.96526E+06
 0.78549995E+02 -0.10654E+07
 0.78599998E+02 -0.10007E+07
 0.78649994E+02 -0.81731E+06
 0.78699997E+02 -0.57736E+06
 0.78749992E+02 -0.31789E+06
 0.78799995E+02 -0.74759E+05
 0.78849998E+02  0.10905E+06
 0.78899994E+02  0.20681E+06
 0.78949997E+02  0.22602E+06
 0.78999992E+02  0.18509E+06
 0.79049995E+02  0.82649E+05
 0.79099998E+02 -0.67517E+05
 0.79149994E+02 -0.23529E+06
 0.79199997E+02 -0.38196E+06
 0.79249992E+02 -0.47455E+06
 0.79299995E+02 -0.51633E+06
 0.79349998E+02 -0.52161E+06
 0.79399994E+02 -0.50020E+06
 0.79449997E+02 -0.44488E+06
 0.79499992E+02 -0.36083E+06
 0.79549995E+02 -0.27168E+06
 0.79599998E+02 -0.18515E+06
 0.79649994E+02 -0.12133E+06
 0.79699997E+02 -0.97815E+05
 0.79749992E+02 -0.12109E+06
 0.79799995E+02 -0.20495E+06
 0.79849998E+02 -0.35997E+06
 0.79899994E+02 -0.55717E+06
 0.79949997E+02 -0.71902E+06
 0.79999992E+02 -0.78945E+06
 0.80049995E+02 -0.77316E+06
 0.80099998E+02 -0.68524E+06
 0.80149994E+02 -0.54071E+06
 0.80199997E+02 -0.37260E+06
 0.80249992E+02 -0.21142E+06
 0.80299995E+02 -0.85228E+05
 0.80349998E+02 -0.20708E+05
 0.80399994E+02 -0.16804E+05
 0.80449997E+02 -0.58932E+05
 0.80499992E+02 -0.12205E+06
 0.80549995E+02 -0.16540E+06
 0.80599998E+02 -0.14410E+06
 0.80649994E+02 -0.24293E+05
 0.80699997E+02  0.17767E+06
 0.80749992E+02  0.41726E+06
 0.80799995E+02  0.64007E+06
 0.80849998E+02  0.79940E+06
 0.80899994E+02  0.86894E+06
 0.80949997E+02  0.85281E+06
 0.80999992E+02  0.77980E+06
 0.81049995E+02  0.69192E+06
 0.81099998E+02  0.60745E+06
 0.81149994E+02  0.51650E+06
 0.81199997E+02  0.41484E+06
 0.81249992E+02  0.30927E+06
 0.81299995E+02  0.21851E+06
 0.81349998E+02  0.14321E+06
 0.81399994E+02  0.59913E+05
 0.81449997E+02 -0.46337E+05
 0.81499992E+02 -0.16457E+06
 0.81549995E+02 -0.27715E+06
 0.81599998E+02 -0.36550E+06
 0.81649994E+02 -0.41939E+06
 0.81699997E+02 -0.44226E+06
 0.81749992E+02 -0.43569E+06
 0.81799995E+02 -0.38954E+06
 0.81849998E+02 -0.29894E+06
 0.81899994E+02 -0.16828E+06
 0.81949997E+02 -0.24237E+05
 0.81999992E+02  0.10209E+06
 0.82049995E+02  0.20376E+06
 0.82099998E+02  0.27051E+06
 0.82149994E+02  0.26691E+06
 0.82199997E+02  0.18495E+06
 0.82249992E+02  0.46066E+05
 0.82299995E+02 -0.12328E+06
 0.82349998E+02 -0.28711E+06
 0.82399994E+02 -0.44239E+06
 0.82449997E+02 -0.60572E+06
 0.82499992E+02 -0.78446E+06
 0.82549995E+02 -0.96313E+06
 0.82599998E+02 -0.11179E+07
 0.82649994E+02 -0.12326E+07
 0.82699997E+02 -0.12801E+07
 0.82749992E+02 -0.12513E+07
 0.82799995E+02 -0.11646E+07
 0.82849998E+02 -0.10309E+07
 0.82899994E+02 -0.86865E+06
 0.82949997E+02 -0.69187E+06
 0.82999992E+02 -0.49678E+06
 0.83049995E+02 -0.29342E+06
 0.83099998E+02 -0.92414E+05
 0.83149994E+02  0.10747E+06
 0.83199997E+02  0.30710E+06
 0.83249992E+02  0.50875E+06
 0.83299995E+02  0.71362E+06
 0.83349998E+02  0.91458E+06
 0.83399994E+02  0.10995E+07
 0.83449997E+02  0.12361E+07
 0.83499992E+02  0.12860E+07
 0.83549995E+02  0.12347E+07
 0.83599998E+02  0.10887E+07
 0.83649994E+02  0.89052E+06
 0.83699997E+02  0.68791E+06
 0.83749992E+02  0.48851E+06
 0.83799995E+02  0.28566E+06
 0.83849998E+02  0.77523E+05
 0.83899994E+02 -0.12475E+06
 0.83949997E+02 -0.29360E+06
 0.83999992E+02 -0.41285E+06
 0.84049995E+02 -0.49028E+06
 0.84099998E+02 -0.53858E+06
 0.84149994E+02 -0.55203E+06
 0.84199997E+02 -0.51631E+06
 0.84249992E+02 -0.43518E+06
 0.84299995E+02 -0.30955E+06
 0.84349998E+02 -0.14619E+06
 0.84399994E+02  0.17509E+05
 0.84449997E+02  0.15709E+06
 0.84499992E+02  0.26799E+06
 0.84549995E+02  0.35273E+06
 0.84599998E+02  0.42012E+06
 0.84649994E+02  0.47045E+06
 0.84699997E+02  0.49707E+06
 0.84749992E+02  0.49567E+06
 0.84799995E+02  0.46900E+06
 0.84849998E+02  0.42964E+06
 0.84899994E+02  0.38309E+06
 0.84949997E+02  0.31388E+06
 0.84999992E+02  0.22553E+06
 0.85049995E+02  0.14100E+06
 0.85099998E+02  0.73457E+05
 0.85149994E+02  0.31413E+05
 0.85199997E+02  0.10218E+05
 0.85249992E+02 -0.43844E+03
 0.85299995E+02 -0.74451E+04
 0.85349998E+02 -0.28340E+05
 0.85399994E+02 -0.98428E+05
 0.85449997E+02 -0.21948E+06
 0.85499992E+02 -0.37271E+06
 0.85549995E+02 -0.55127E+06
 0.85599998E+02 -0.72615E+06
 0.85649994E+02 -0.87373E+06
 0.85699997E+02 -0.97944E+06
 0.85749992E+02 -0.10378E+07
 0.85799995E+02 -0.10569E+07
 0.85849998E+02 -0.10476E+07
 0.85899994E+02 -0.10212E+07
 0.85949997E+02 -0.96314E+06
 0.85999992E+02 -0.85522E+06
 0.86049995E+02 -0.70959E+06
 0.86099998E+02 -0.54849E+06
 0.86149994E+02 -0.38502E+06
 0.86199997E+02 -0.22106E+06
 0.86249992E+02 -0.53313E+05
 0.86299995E+02  0.10295E+06
 0.86349998E+02  0.21368E+06
 0.86399994E+02  0.27826E+06
 0.86449997E+02  0.31058E+06
 0.86499992E+02  0.32230E+06
 0.86549995E+02  0.33515E+06
 0.86599998E+02  0.36373E+06
 0.86649994E+02  0.41784E+06
 0.86699997E+02  0.49309E+06
 0.86749992E+02  0.57274E+06
 0.86799995E+02  0.65666E+06
 0.86849998E+02  0.76583E+06
 0.86899994E+02  0.90050E+06
 0.86949997E+02  0.10412E+07
 0.86999992E+02  0.11600E+07
 0.87049995E+02  0.12322E+07
 0.87099998E+02  0.12656E+07
 0.87149994E+02  0.12698E+07
 0.87199997E+02  0.12494E+07
 0.87249992E+02  0.12151E+07
 0.87299995E+02  0.11549E+07
 0.87349998E+02  0.10471E+07
 0.87399994E+02  0.88653E+06
 0.87449997E+02  0.67838E+06
 0.87499992E+02  0.44273E+06
 0.87549995E+02  0.21986E+06
 0.87599991E+02  0.38637E+05
 0.87649994E+02 -0.82223E+05
 0.87699997E+02 -0.12964E+06
 0.87749992E+02 -0.10946E+06
 0.87799995E+02 -0.42959E+05
 0.87849991E+02  0.35802E+05
 0.87899994E+02  0.11322E+06
 0.87949997E+02  0.19420E+06
 0.87999992E+02  0.27669E+06
 0.88049995E+02  0.36548E+06
 0.88099991E+02  0.45138E+06
 0.88149994E+02  0.50636E+06
 0.88199997E+02  0.51064E+06
 0.88249992E+02  0.47444E+06
 0.88299995E+02  0.42854E+06
 0.88349991E+02  0.39954E+06
 0.88399994E+02  0.39081E+06
 0.88449997E+02  0.38747E+06
 0.88499992E+02  0.35614E+06
 0.88549995E+02  0.26247E+06
 0.88599991E+02  0.11401E+06
 0.88649994E+02 -0.61564E+05
 0.88699997E+02 -0.23529E+06
 0.88749992E+02 -0.37894E+06
 0.88799995E+02 -0.47222E+06
 0.88849991E+02 -0.51760E+06
 0.88899994E+02 -0.52210E+06
 0.88949997E+02 -0.49054E+06
 0.88999992E+02 -0.42616E+06
 0.89049995E+02 -0.33803E+06
 0.89099991E+02 -0.24213E+06
 0.89149994E+02 -0.14008E+06
 0.89199997E+02 -0.32057E+05
 0.89249992E+02  0.85712E+05
 0.89299995E+02  0.20482E+06
 0.89349991E+02  0.31319E+06
 0.89399994E+02  0.39648E+06
 0.89449997E+02  0.42667E+06
 0.89499992E+02  0.40555E+06
 0.89549995E+02  0.34865E+06
 0.89599991E+02  0.25061E+06
 0.89649994E+02  0.11415E+06
 0.89699997E+02 -0.45778E+05
 0.89749992E+02 -0.21587E+06
 0.89799995E+02 -0.38080E+06
 0.89849991E+02 -0.52945E+06
 0.89899994E+02 -0.65664E+06
 0.89949997E+02 -0.76420E+06
 0.89999992E+02 -0.84368E+06
 0.90049995E+02 -0.88747E+06
 0.90099991E+02 -0.90325E+06
 0.90149994E+02 -0.89568E+06
 0.90199997E+02 -0.88149E+06
 0.90249992E+02 -0.87641E+06
 0.90299995E+02 -0.87985E+06
 0.90349991E+02 -0.89414E+06
 0.90399994E+02 -0.91934E+06
 0.90449997E+02 -0.95088E+06
 0.90499992E+02 -0.98223E+06
 0.90549995E+02 -0.10067E+07
 0.90599991E+02 -0.10333E+07
 0.90649994E+02 -0.10591E+07
 0.90699997E+02 -0.10463E+07
 0.90749992E+02 -0.96568E+06
 0.90799995E+02 -0.81658E+06
 0.90849991E+02 -0.62460E+06
 0.90899994E+02 -0.41736E+06
 0.90949997E+02 -0.21226E+06
 0.90999992E+02 -0.28106E+05
 0.91049995E+02  0.11335E+06
 0.91099991E+02  0.19790E+06
 0.91149994E+02  0.23146E+06
 0.91199997E+02  0.23732E+06
 0.91249992E+02  0.25009E+06
 0.91299995E+02  0.28140E+06
 0.91349991E+02  0.31491E+06
 0.91399994E+02  0.32843E+06
 0.91449997E+02  0.31358E+06
 0.91499992E+02  0.26034E+06
 0.91549995E+02  0.17303E+06
 0.91599991E+02  0.75243E+05
 0.91649994E+02 -0.19400E+05
 0.91699997E+02 -0.10828E+06
 0.91749992E+02 -0.19962E+06
 0.91799995E+02 -0.29641E+06
 0.91849991E+02 -0.39437E+06
 0.91899994E+02 -0.48388E+06
 0.91949997E+02 -0.55887E+06
 0.91999992E+02 -0.60516E+06
 0.92049995E+02 -0.61812E+06
 0.92099991E+02 -0.61227E+06
 0.92149994E+02 -0.59784E+06
 0.92199997E+02 -0.58146E+06
 0.92249992E+02 -0.55966E+06
 0.92299995E+02 -0.52094E+06
 0.92349991E+02 -0.44820E+06
 0.92399994E+02 -0.32687E+06
 0.92449997E+02 -0.16099E+06
 0.92499992E+02  0.20848E+05
 0.92549995E+02  0.18798E+06
 0.92599991E+02  0.33285E+06
 0.92649994E+02  0.46140E+06
 0.92699997E+02  0.58095E+06
 0.92749992E+02  0.71089E+06
 0.92799995E+02  0.86119E+06
 0.92849991E+02  0.10131E+07
 0.92899994E+02  0.11451E+07
 0.92949997E+02  0.12425E+07
 0.92999992E+02  0.13028E+07
 0.93049995E+02  0.13243E+07
 0.93099991E+02  0.12985E+07
 0.93149994E+02  0.12246E+07
 0.93199997E+02  0.11113E+07
 0.93249992E+02  0.97295E+06
 0.93299995E+02  0.81948E+06
 0.93349991E+02  0.65711E+06
 0.93399994E+02  0.49172E+06
 0.93449997E+02  0.32728E+06
 0.93499992E+02  0.17564E+06
 0.93549995E+02  0.48929E+05
 0.93599991E+02 -0.49781E+05
 0.93649994E+02 -0.11822E+06
 0.93699997E+02 -0.15596E+06
 0.93749992E+02 -0.16614E+06
 0.93799995E+02 -0.15665E+06
 0.93849991E+02 -0.12779E+06
 0.93899994E+02 -0.73130E+05
 0.93949997E+02  0.17130E+04
 0.93999992E+02  0.92984E+05
 0.94049995E+02  0.20323E+06
 0.94099991E+02  0.34342E+06
 0.94149994E+02  0.51265E+06
 0.94199997E+02  0.69326E+06
 0.94249992E+02  0.87434E+06
 0.94299995E+02  0.10448E+07
 0.94349991E+02  0.11989E+07
 0.94399994E+02  0.13221E+07
 0.94449997E+02  0.13939E+07
 0.94499992E+02  0.14028E+07
 0.94549995E+02  0.13492E+07
 0.94599991E+02  0.12484E+07
 0.94649994E+02  0.11200E+07
 0.94699997E+02  0.98767E+06
 0.94749992E+02  0.85916E+06
 0.94799995E+02  0.72557E+06
 0.94849991E+02  0.58631E+06
 0.94899994E+02  0.44800E+06
 0.94949997E+02  0.31884E+06
 0.94999992E+02  0.20246E+06
 0.95049995E+02  0.99144E+05
 0.95099991E+02  0.11047E+05
 0.95149994E+02 -0.68811E+05
 0.95199997E+02 -0.14550E+06
 0.95249992E+02 -0.22152E+06
 0.95299995E+02 -0.29524E+06
 0.95349991E+02 -0.35931E+06
 0.95399994E+02 -0.41344E+06
 0.95449997E+02 -0.46121E+06
 0.95499992E+02 -0.50225E+06
 0.95549995E+02 -0.53277E+06
 0.95599991E+02 -0.54293E+06
 0.95649994E+02 -0.52565E+06
 0.95699997E+02 -0.48671E+06
 0.95749992E+02 -0.43507E+06
 0.95799995E+02 -0.38119E+06
 0.95849991E+02 -0.33341E+06
 0.95899994E+02 -0.30060E+06
 0.95949997E+02 -0.28607E+06
 0.95999992E+02 -0.28660E+06
 0.96049995E+02 -0.30758E+06
 0.96099991E+02 -0.34620E+06
 0.96149994E+02 -0.38700E+06
 0.96199997E+02 -0.41920E+06
 0.96249992E+02 -0.44408E+06
 0.96299995E+02 -0.48331E+06
 0.96349991E+02 -0.56225E+06
 0.96399994E+02 -0.69270E+06
 0.96449997E+02 -0.87504E+06
 0.96499992E+02 -0.10904E+07
 0.96549995E+02 -0.13107E+07
 0.96599991E+02 -0.15151E+07
 0.96649994E+02 -0.16902E+07
 0.96699997E+02 -0.18387E+07
 0.96749992E+02 -0.19661E+07
 0.96799995E+02 -0.20752E+07
 0.96849991E+02 -0.21682E+07
 0.96899994E+02 -0.22325E+07
 0.96949997E+02 -0.22460E+07
 0.96999992E+02 -0.21913E+07
 0.97049995E+02 -0.20700E+07
 0.97099991E+02 -0.18981E+07
 0.97149994E+02 -0.16861E+07
 0.97199997E+02 -0.14488E+07
 0.97249992E+02 -0.12025E+07
 0.97299995E+02 -0.95348E+06
 0.97349991E+02 -0.70773E+06
 0.97399994E+02 -0.46503E+06
 0.97449997E+02 -0.23352E+06
 0.97499992E+02 -0.28529E+05
 0.97549995E+02  0.14687E+06
 0.97599991E+02  0.28900E+06
 0.97649994E+02  0.39530E+06
 0.97699997E+02  0.47008E+06
 0.97749992E+02  0.52273E+06
 0.97799995E+02  0.56202E+06
 0.97849991E+02  0.58838E+06
 0.97899994E+02  0.60016E+06
 0.97949997E+02  0.59843E+06
 0.97999992E+02  0.58851E+06
