-0.20000000E+01  0.27503E+05
-0.19500000E+01  0.24971E+05
-0.19000000E+01  0.21698E+05
-0.18500000E+01  0.17717E+05
-0.18000000E+01  0.13486E+05
-0.17500000E+01  0.96745E+04
-0.17000000E+01  0.63469E+04
-0.16500001E+01  0.34846E+04
-0.16000000E+01  0.13862E+04
-0.15500000E+01  0.37936E+02
-0.15000000E+01 -0.88358E+03
-0.14500000E+01 -0.14924E+04
-0.14000001E+01 -0.16888E+04
-0.13500000E+01 -0.13486E+04
-0.13000001E+01 -0.14749E+03
-0.12500000E+01  0.15011E+04
-0.12000000E+01  0.26797E+04
-0.11500001E+01  0.34584E+04
-0.11000000E+01  0.38072E+04
-0.10500001E+01  0.36764E+04
-0.10000000E+01  0.38059E+04
-0.95000005E+00  0.41498E+04
-0.90000010E+00  0.44957E+04
-0.85000002E+00  0.49757E+04
-0.80000007E+00  0.56991E+04
-0.75000012E+00  0.69779E+04
-0.70000005E+00  0.85414E+04
-0.65000010E+00  0.97193E+04
-0.60000014E+00  0.98100E+04
-0.55000007E+00  0.90525E+04
-0.50000012E+00  0.71149E+04
-0.45000005E+00  0.43152E+04
-0.40000010E+00  0.13427E+04
-0.35000014E+00 -0.18746E+04
-0.30000007E+00 -0.51861E+04
-0.25000012E+00 -0.85988E+04
-0.20000005E+00 -0.11699E+05
-0.15000010E+00 -0.14700E+05
-0.10000014E+00 -0.17590E+05
-0.50000072E-01 -0.20103E+05
-0.11920929E-06 -0.21590E+05
 0.49999952E-01 -0.21306E+05
 0.99999905E-01 -0.19422E+05
 0.14999986E+00 -0.16245E+05
 0.19999981E+00 -0.12139E+05
 0.24999976E+00 -0.79116E+04
 0.29999995E+00 -0.35519E+04
 0.34999990E+00  0.10017E+04
 0.39999986E+00  0.44115E+04
 0.44999981E+00  0.63278E+04
 0.49999976E+00  0.66543E+04
 0.54999995E+00  0.52374E+04
 0.59999990E+00  0.24533E+04
 0.64999986E+00 -0.72269E+03
 0.69999981E+00 -0.37405E+04
 0.74999976E+00 -0.64220E+04
 0.79999971E+00 -0.80563E+04
 0.84999990E+00 -0.87944E+04
 0.89999986E+00 -0.87309E+04
 0.94999981E+00 -0.75739E+04
 0.99999976E+00 -0.55477E+04
 0.10499997E+01 -0.27509E+04
 0.10999999E+01  0.40477E+03
 0.11499999E+01  0.30345E+04
 0.11999998E+01  0.48187E+04
 0.12499998E+01  0.61576E+04
 0.12999997E+01  0.69698E+04
 0.13499999E+01  0.71821E+04
 0.13999999E+01  0.70090E+04
 0.14499998E+01  0.57870E+04
 0.14999998E+01  0.35398E+04
 0.15499997E+01  0.64133E+03
 0.15999999E+01 -0.31328E+04
 0.16499999E+01 -0.67022E+04
 0.16999998E+01 -0.94622E+04
 0.17499998E+01 -0.12008E+05
 0.17999997E+01 -0.13970E+05
 0.18499997E+01 -0.15423E+05
 0.18999999E+01 -0.16545E+05
 0.19499998E+01 -0.17063E+05
 0.19999998E+01 -0.17279E+05
 0.20499997E+01 -0.17600E+05
 0.20999999E+01 -0.17568E+05
 0.21499996E+01 -0.17192E+05
 0.21999998E+01 -0.16964E+05
 0.22499995E+01 -0.16759E+05
 0.22999997E+01 -0.16347E+05
 0.23499999E+01 -0.15729E+05
 0.23999996E+01 -0.14263E+05
 0.24499998E+01 -0.11716E+05
 0.24999995E+01 -0.88370E+04
 0.25499997E+01 -0.59449E+04
 0.25999999E+01 -0.32253E+04
 0.26499996E+01 -0.10928E+04
 0.26999998E+01  0.93644E+03
 0.27499995E+01  0.29678E+04
 0.27999997E+01  0.47244E+04
 0.28499999E+01  0.66764E+04
 0.28999996E+01  0.82763E+04
 0.29499998E+01  0.95905E+04
 0.29999995E+01  0.11384E+05
 0.30499997E+01  0.12656E+05
 0.30999999E+01  0.12898E+05
 0.31499996E+01  0.12558E+05
 0.31999998E+01  0.11196E+05
 0.32499995E+01  0.86520E+04
 0.32999997E+01  0.53564E+04
 0.33499999E+01  0.20299E+04
 0.33999996E+01 -0.96439E+03
 0.34499998E+01 -0.31493E+04
 0.34999995E+01 -0.46567E+04
 0.35499997E+01 -0.59111E+04
 0.35999994E+01 -0.71204E+04
 0.36499996E+01 -0.88590E+04
 0.36999998E+01 -0.10845E+05
 0.37499995E+01 -0.12541E+05
 0.37999997E+01 -0.14268E+05
 0.38499994E+01 -0.15749E+05
 0.38999996E+01 -0.16959E+05
 0.39499998E+01 -0.18019E+05
 0.39999995E+01 -0.18565E+05
 0.40499997E+01 -0.18496E+05
 0.40999994E+01 -0.17936E+05
 0.41499996E+01 -0.16811E+05
 0.41999998E+01 -0.14870E+05
 0.42499995E+01 -0.12565E+05
 0.42999997E+01 -0.94656E+04
 0.43499994E+01 -0.54559E+04
 0.43999996E+01 -0.15549E+04
 0.44499998E+01  0.25223E+04
 0.44999995E+01  0.63103E+04
 0.45499997E+01  0.93523E+04
 0.45999994E+01  0.12353E+05
 0.46499996E+01  0.14644E+05
 0.46999998E+01  0.16488E+05
 0.47499995E+01  0.18484E+05
 0.47999997E+01  0.20704E+05
 0.48499994E+01  0.22978E+05
 0.48999996E+01  0.25250E+05
 0.49499998E+01  0.27406E+05
 0.49999995E+01  0.29319E+05
 0.50499997E+01  0.30945E+05
 0.50999994E+01  0.32173E+05
 0.51499996E+01  0.33057E+05
 0.51999998E+01  0.33597E+05
 0.52499995E+01  0.33743E+05
 0.52999997E+01  0.33048E+05
 0.53499994E+01  0.31627E+05
 0.53999996E+01  0.29453E+05
 0.54499993E+01  0.26736E+05
 0.54999995E+01  0.23435E+05
 0.55499997E+01  0.19410E+05
 0.55999994E+01  0.14931E+05
 0.56499996E+01  0.10613E+05
 0.56999993E+01  0.68123E+04
 0.57499995E+01  0.37299E+04
 0.57999997E+01  0.12781E+04
 0.58499994E+01 -0.60016E+03
 0.58999996E+01 -0.19036E+04
 0.59499993E+01 -0.30408E+04
 0.59999995E+01 -0.35216E+04
 0.60499992E+01 -0.39378E+04
 0.60999994E+01 -0.43371E+04
 0.61499996E+01 -0.41694E+04
 0.61999998E+01 -0.38880E+04
 0.62499990E+01 -0.36242E+04
 0.62999992E+01 -0.40583E+04
 0.63499994E+01 -0.57981E+04
 0.63999996E+01 -0.86815E+04
 0.64499998E+01 -0.12440E+05
 0.64999990E+01 -0.16761E+05
 0.65499992E+01 -0.21508E+05
 0.65999994E+01 -0.26014E+05
 0.66499996E+01 -0.29915E+05
 0.66999998E+01 -0.32993E+05
 0.67499990E+01 -0.35181E+05
 0.67999992E+01 -0.37032E+05
 0.68499994E+01 -0.38404E+05
 0.68999996E+01 -0.39616E+05
 0.69499998E+01 -0.40724E+05
 0.69999990E+01 -0.41303E+05
 0.70499992E+01 -0.41853E+05
 0.70999994E+01 -0.41896E+05
 0.71499996E+01 -0.41062E+05
 0.71999998E+01 -0.39807E+05
 0.72499990E+01 -0.37803E+05
 0.72999992E+01 -0.35366E+05
 0.73499994E+01 -0.32850E+05
 0.73999996E+01 -0.30128E+05
 0.74499998E+01 -0.27394E+05
 0.74999990E+01 -0.24911E+05
 0.75499992E+01 -0.23197E+05
 0.75999994E+01 -0.22363E+05
 0.76499996E+01 -0.22560E+05
 0.76999998E+01 -0.23608E+05
 0.77499990E+01 -0.24998E+05
 0.77999992E+01 -0.26482E+05
 0.78499994E+01 -0.27282E+05
 0.78999996E+01 -0.27244E+05
 0.79499998E+01 -0.26398E+05
 0.79999990E+01 -0.24667E+05
 0.80499992E+01 -0.21866E+05
 0.80999994E+01 -0.17674E+05
 0.81499996E+01 -0.12530E+05
 0.81999998E+01 -0.68990E+04
 0.82499990E+01 -0.96126E+03
 0.82999992E+01  0.52445E+04
 0.83499994E+01  0.11371E+05
 0.83999996E+01  0.17674E+05
 0.84499998E+01  0.23828E+05
 0.84999990E+01  0.28871E+05
 0.85499992E+01  0.32842E+05
 0.85999994E+01  0.35498E+05
 0.86499996E+01  0.36993E+05
 0.86999998E+01  0.38079E+05
 0.87499990E+01  0.38873E+05
 0.87999992E+01  0.39611E+05
 0.88499994E+01  0.40520E+05
 0.88999996E+01  0.41603E+05
 0.89499998E+01  0.42621E+05
 0.89999990E+01  0.43564E+05
 0.90499992E+01  0.44416E+05
 0.90999994E+01  0.44982E+05
 0.91499996E+01  0.45329E+05
 0.91999989E+01  0.45351E+05
 0.92499990E+01  0.45152E+05
 0.92999992E+01  0.44859E+05
 0.93499994E+01  0.44476E+05
 0.93999996E+01  0.44075E+05
 0.94499989E+01  0.43930E+05
 0.94999990E+01  0.43568E+05
 0.95499992E+01  0.42887E+05
 0.95999994E+01  0.42284E+05
 0.96499996E+01  0.41544E+05
 0.96999989E+01  0.40314E+05
 0.97499990E+01  0.39168E+05
 0.97999992E+01  0.38010E+05
 0.98499994E+01  0.36098E+05
 0.98999996E+01  0.34146E+05
 0.99499989E+01  0.31534E+05
 0.99999990E+01  0.28307E+05
 0.10049999E+02  0.25109E+05
 0.10099999E+02  0.21676E+05
 0.10150000E+02  0.18037E+05
 0.10199999E+02  0.13914E+05
 0.10249999E+02  0.89274E+04
 0.10299999E+02  0.29494E+04
 0.10349999E+02 -0.34133E+04
 0.10400000E+02 -0.10131E+05
 0.10449999E+02 -0.17069E+05
 0.10499999E+02 -0.24150E+05
 0.10549999E+02 -0.31267E+05
 0.10599999E+02 -0.38505E+05
 0.10650000E+02 -0.45093E+05
 0.10699999E+02 -0.50874E+05
 0.10749999E+02 -0.56147E+05
 0.10799999E+02 -0.60007E+05
 0.10849999E+02 -0.62691E+05
 0.10900000E+02 -0.64313E+05
 0.10949999E+02 -0.64455E+05
 0.10999999E+02 -0.63819E+05
 0.11049999E+02 -0.62013E+05
 0.11099999E+02 -0.59072E+05
 0.11150000E+02 -0.55863E+05
 0.11199999E+02 -0.51807E+05
 0.11249999E+02 -0.46932E+05
 0.11299999E+02 -0.41088E+05
 0.11349999E+02 -0.33919E+05
 0.11400000E+02 -0.25377E+05
 0.11449999E+02 -0.16393E+05
 0.11499999E+02 -0.72024E+04
 0.11549999E+02  0.17792E+04
 0.11599999E+02  0.98203E+04
 0.11650000E+02  0.16905E+05
 0.11699999E+02  0.22946E+05
 0.11749999E+02  0.27652E+05
 0.11799999E+02  0.31064E+05
 0.11849999E+02  0.33792E+05
 0.11900000E+02  0.35600E+05
 0.11949999E+02  0.36871E+05
 0.11999999E+02  0.37378E+05
 0.12049999E+02  0.36833E+05
 0.12099999E+02  0.35928E+05
 0.12150000E+02  0.34717E+05
 0.12199999E+02  0.32917E+05
 0.12249999E+02  0.30539E+05
 0.12299999E+02  0.27847E+05
 0.12349999E+02  0.24530E+05
 0.12400000E+02  0.21319E+05
 0.12449999E+02  0.18139E+05
 0.12499999E+02  0.14552E+05
 0.12549999E+02  0.10837E+05
 0.12599999E+02  0.67777E+04
 0.12649999E+02  0.24852E+04
 0.12699999E+02 -0.20477E+04
 0.12749999E+02 -0.63767E+04
 0.12799999E+02 -0.10834E+05
 0.12849999E+02 -0.14999E+05
 0.12899999E+02 -0.18841E+05
 0.12949999E+02 -0.22385E+05
 0.12999999E+02 -0.25292E+05
 0.13049999E+02 -0.27611E+05
 0.13099999E+02 -0.29023E+05
 0.13149999E+02 -0.29349E+05
 0.13199999E+02 -0.28409E+05
 0.13249999E+02 -0.27017E+05
 0.13299999E+02 -0.25098E+05
 0.13349999E+02 -0.22730E+05
 0.13399999E+02 -0.20078E+05
 0.13449999E+02 -0.16748E+05
 0.13499999E+02 -0.13163E+05
 0.13549999E+02 -0.95543E+04
 0.13599999E+02 -0.56160E+04
 0.13649999E+02 -0.13629E+04
 0.13699999E+02  0.27758E+04
 0.13749999E+02  0.66758E+04
 0.13799999E+02  0.10354E+05
 0.13849999E+02  0.13107E+05
 0.13899999E+02  0.15033E+05
 0.13949999E+02  0.16150E+05
 0.13999999E+02  0.16370E+05
 0.14049999E+02  0.16294E+05
 0.14099998E+02  0.16070E+05
 0.14150000E+02  0.16141E+05
 0.14199999E+02  0.16821E+05
 0.14249998E+02  0.18088E+05
 0.14299999E+02  0.19506E+05
 0.14349998E+02  0.21007E+05
 0.14400000E+02  0.22685E+05
 0.14449999E+02  0.24349E+05
 0.14499998E+02  0.25676E+05
 0.14549999E+02  0.26030E+05
 0.14599998E+02  0.25633E+05
 0.14650000E+02  0.24759E+05
 0.14699999E+02  0.23285E+05
 0.14749998E+02  0.20914E+05
 0.14799999E+02  0.17769E+05
 0.14849998E+02  0.14074E+05
 0.14900000E+02  0.10333E+05
 0.14949999E+02  0.68468E+04
 0.14999998E+02  0.30850E+04
 0.15049999E+02 -0.57176E+03
 0.15099998E+02 -0.36324E+04
 0.15150000E+02 -0.56903E+04
 0.15199999E+02 -0.67147E+04
 0.15249998E+02 -0.67007E+04
 0.15299999E+02 -0.63765E+04
 0.15349998E+02 -0.60361E+04
 0.15400000E+02 -0.56645E+04
 0.15449999E+02 -0.53001E+04
 0.15499998E+02 -0.51145E+04
 0.15549999E+02 -0.49698E+04
 0.15599998E+02 -0.42195E+04
 0.15650000E+02 -0.33957E+04
 0.15699999E+02 -0.26697E+04
 0.15749998E+02 -0.28316E+04
 0.15799999E+02 -0.40640E+04
 0.15849998E+02 -0.60630E+04
 0.15900000E+02 -0.85157E+04
 0.15949999E+02 -0.11195E+05
 0.15999998E+02 -0.14046E+05
 0.16049999E+02 -0.17361E+05
 0.16099998E+02 -0.20858E+05
 0.16150000E+02 -0.24164E+05
 0.16199999E+02 -0.27537E+05
 0.16249998E+02 -0.30419E+05
 0.16299999E+02 -0.32586E+05
 0.16349998E+02 -0.34463E+05
 0.16400000E+02 -0.35865E+05
 0.16449999E+02 -0.36622E+05
 0.16499998E+02 -0.37358E+05
 0.16549999E+02 -0.37887E+05
 0.16599998E+02 -0.38490E+05
 0.16650000E+02 -0.39154E+05
 0.16699999E+02 -0.40064E+05
 0.16749998E+02 -0.40838E+05
 0.16799999E+02 -0.41301E+05
 0.16849998E+02 -0.41424E+05
 0.16900000E+02 -0.41430E+05
 0.16949999E+02 -0.41196E+05
 0.16999998E+02 -0.40182E+05
 0.17049999E+02 -0.39007E+05
 0.17099998E+02 -0.37604E+05
 0.17150000E+02 -0.35830E+05
 0.17199999E+02 -0.33364E+05
 0.17249998E+02 -0.30424E+05
 0.17299999E+02 -0.26747E+05
 0.17349998E+02 -0.22466E+05
 0.17400000E+02 -0.17496E+05
 0.17449999E+02 -0.11918E+05
 0.17499998E+02 -0.56632E+04
 0.17549999E+02  0.74792E+03
 0.17599998E+02  0.69133E+04
 0.17650000E+02  0.12871E+05
 0.17699999E+02  0.18078E+05
 0.17749998E+02  0.22846E+05
 0.17799999E+02  0.26693E+05
 0.17849998E+02  0.29648E+05
 0.17900000E+02  0.31835E+05
 0.17949999E+02  0.33999E+05
 0.17999998E+02  0.35891E+05
 0.18049999E+02  0.37648E+05
 0.18099998E+02  0.39140E+05
 0.18150000E+02  0.40721E+05
 0.18199999E+02  0.43127E+05
 0.18249998E+02  0.46237E+05
 0.18299999E+02  0.50458E+05
 0.18349998E+02  0.54922E+05
 0.18400000E+02  0.59989E+05
 0.18449999E+02  0.65258E+05
 0.18499998E+02  0.70263E+05
 0.18549999E+02  0.74283E+05
 0.18599998E+02  0.77006E+05
 0.18650000E+02  0.78371E+05
 0.18699999E+02  0.78241E+05
 0.18749998E+02  0.77257E+05
 0.18799999E+02  0.75187E+05
 0.18849998E+02  0.71901E+05
 0.18900000E+02  0.67554E+05
 0.18949999E+02  0.62692E+05
 0.18999998E+02  0.57486E+05
 0.19049999E+02  0.52004E+05
 0.19099998E+02  0.45726E+05
 0.19150000E+02  0.38704E+05
 0.19199999E+02  0.31288E+05
 0.19249998E+02  0.23365E+05
 0.19299999E+02  0.15419E+05
 0.19349998E+02  0.78721E+04
 0.19400000E+02  0.20472E+03
 0.19449999E+02 -0.75327E+04
 0.19499998E+02 -0.15120E+05
 0.19549999E+02 -0.22895E+05
 0.19599998E+02 -0.30233E+05
 0.19650000E+02 -0.37122E+05
 0.19699999E+02 -0.43308E+05
 0.19749998E+02 -0.48504E+05
 0.19799999E+02 -0.52633E+05
 0.19849998E+02 -0.55956E+05
 0.19900000E+02 -0.58291E+05
 0.19949999E+02 -0.59883E+05
 0.19999998E+02 -0.61349E+05
 0.20049999E+02 -0.62025E+05
 0.20099998E+02 -0.62210E+05
 0.20150000E+02 -0.62175E+05
 0.20199999E+02 -0.61397E+05
 0.20249998E+02 -0.59649E+05
 0.20299999E+02 -0.57216E+05
 0.20349998E+02 -0.53906E+05
 0.20399998E+02 -0.49953E+05
 0.20449999E+02 -0.45652E+05
 0.20499998E+02 -0.40846E+05
 0.20549999E+02 -0.36247E+05
 0.20599998E+02 -0.32211E+05
 0.20649998E+02 -0.28486E+05
 0.20699999E+02 -0.25330E+05
 0.20749998E+02 -0.22894E+05
 0.20799999E+02 -0.21139E+05
 0.20849998E+02 -0.20049E+05
 0.20899998E+02 -0.19380E+05
 0.20949999E+02 -0.19032E+05
 0.20999998E+02 -0.18815E+05
 0.21049999E+02 -0.18766E+05
 0.21099998E+02 -0.18540E+05
 0.21149998E+02 -0.18091E+05
 0.21199999E+02 -0.17049E+05
 0.21249998E+02 -0.15131E+05
 0.21299999E+02 -0.13015E+05
 0.21349998E+02 -0.10662E+05
 0.21399998E+02 -0.77979E+04
 0.21449999E+02 -0.47717E+04
 0.21499998E+02 -0.22818E+04
 0.21549999E+02  0.16886E+03
 0.21599998E+02  0.20648E+04
 0.21649998E+02  0.32854E+04
 0.21699999E+02  0.45265E+04
 0.21749998E+02  0.51322E+04
 0.21799999E+02  0.51672E+04
 0.21849998E+02  0.52032E+04
 0.21899998E+02  0.49353E+04
 0.21949999E+02  0.48828E+04
 0.21999998E+02  0.48173E+04
 0.22049999E+02  0.44412E+04
 0.22099998E+02  0.46048E+04
 0.22149998E+02  0.52512E+04
 0.22199999E+02  0.60169E+04
 0.22249998E+02  0.68914E+04
 0.22299999E+02  0.75063E+04
 0.22349998E+02  0.68727E+04
 0.22399998E+02  0.39164E+04
 0.22449999E+02 -0.16985E+04
 0.22499998E+02 -0.68801E+04
 0.22549999E+02 -0.57100E+04
 0.22599998E+02  0.57412E+04
 0.22649998E+02  0.22169E+05
 0.22699999E+02  0.32127E+05
 0.22749998E+02  0.27601E+05
 0.22799999E+02  0.15602E+05
 0.22849998E+02  0.13660E+04
 0.22899998E+02 -0.10472E+05
 0.22949999E+02 -0.22444E+05
 0.22999998E+02 -0.28470E+05
 0.23049999E+02 -0.25681E+05
 0.23099998E+02 -0.26015E+05
 0.23149998E+02 -0.40101E+05
 0.23199999E+02 -0.53971E+05
 0.23249998E+02 -0.30827E+05
 0.23299999E+02  0.14982E+05
 0.23349998E+02  0.68490E+05
 0.23399998E+02  0.81368E+05
 0.23449999E+02  0.52175E+05
 0.23499998E+02  0.28890E+05
 0.23549999E+02 -0.10321E+04
 0.23599998E+02 -0.45993E+05
 0.23649998E+02 -0.67578E+05
 0.23699999E+02 -0.65103E+05
 0.23749998E+02 -0.88681E+05
 0.23799999E+02 -0.92920E+05
 0.23849998E+02 -0.67189E+05
 0.23899998E+02 -0.64485E+05
 0.23949999E+02 -0.36050E+05
 0.23999998E+02  0.33295E+05
 0.24049999E+02  0.83655E+05
 0.24099998E+02  0.86784E+05
 0.24149998E+02  0.67440E+05
 0.24199999E+02  0.18569E+05
 0.24249998E+02  0.86801E+04
 0.24299999E+02  0.77448E+05
 0.24349998E+02  0.78930E+05
 0.24399998E+02  0.47301E+05
 0.24449999E+02  0.15747E+05
 0.24499998E+02 -0.17985E+05
 0.24549999E+02 -0.41407E+05
 0.24599998E+02  0.22877E+05
 0.24649998E+02  0.63743E+05
 0.24699999E+02 -0.61752E+04
 0.24749998E+02 -0.48432E+05
 0.24799999E+02 -0.66719E+05
 0.24849998E+02 -0.11258E+05
 0.24899998E+02  0.16233E+05
 0.24949999E+02  0.17959E+05
 0.24999998E+02  0.36057E+05
 0.25049999E+02  0.22755E+05
 0.25099998E+02  0.18932E+05
 0.25149998E+02 -0.14947E+05
 0.25199999E+02 -0.55353E+05
 0.25249998E+02 -0.18472E+05
 0.25299999E+02  0.58253E+05
 0.25349998E+02  0.10957E+06
 0.25399998E+02  0.99627E+05
 0.25449999E+02  0.19218E+04
 0.25499998E+02 -0.10552E+06
 0.25549999E+02 -0.15325E+06
 0.25599998E+02 -0.97934E+05
 0.25649998E+02 -0.88830E+03
 0.25699999E+02 -0.61025E+05
 0.25749998E+02 -0.19567E+06
 0.25799999E+02 -0.17512E+06
 0.25849998E+02 -0.11767E+06
 0.25899998E+02 -0.95770E+05
 0.25949999E+02  0.16168E+05
 0.25999998E+02  0.51068E+05
 0.26049999E+02  0.16857E+05
 0.26099998E+02  0.32665E+05
 0.26149998E+02  0.64063E+05
 0.26199999E+02  0.10342E+06
 0.26249998E+02  0.55340E+05
 0.26299999E+02  0.36138E+05
 0.26349998E+02  0.50370E+05
 0.26399998E+02 -0.28016E+05
 0.26449999E+02 -0.68659E+05
 0.26499998E+02 -0.10579E+06
 0.26549999E+02 -0.12264E+06
 0.26599998E+02 -0.98064E+05
 0.26649998E+02 -0.15416E+06
 0.26699999E+02 -0.14854E+06
 0.26749998E+02 -0.26200E+03
 0.26799999E+02  0.12949E+06
 0.26849998E+02  0.95847E+05
 0.26899998E+02 -0.17256E+05
 0.26949999E+02 -0.18283E+05
 0.26999998E+02  0.40831E+05
 0.27049997E+02  0.65628E+05
 0.27099998E+02  0.10242E+06
 0.27149998E+02  0.12105E+06
 0.27199999E+02  0.10738E+06
 0.27249998E+02  0.46564E+05
 0.27299997E+02 -0.12730E+05
 0.27349998E+02 -0.23193E+05
 0.27399998E+02 -0.22514E+05
 0.27449999E+02 -0.35898E+05
 0.27499998E+02  0.45540E+04
 0.27549997E+02  0.51985E+05
 0.27599998E+02 -0.27845E+05
 0.27649998E+02 -0.15828E+06
 0.27699999E+02 -0.22869E+06
 0.27749998E+02 -0.13370E+06
 0.27799997E+02 -0.38579E+05
 0.27849998E+02 -0.82323E+05
 0.27899998E+02 -0.79620E+05
 0.27949999E+02 -0.46980E+05
 0.27999998E+02 -0.67963E+05
 0.28049997E+02 -0.96040E+05
 0.28099998E+02 -0.69334E+05
 0.28149998E+02 -0.75622E+04
 0.28199999E+02 -0.51939E+05
 0.28249998E+02 -0.83345E+05
 0.28299997E+02 -0.66044E+05
 0.28349998E+02 -0.11083E+06
 0.28399998E+02 -0.20606E+06
 0.28449999E+02 -0.26440E+06
 0.28499998E+02 -0.18288E+06
 0.28549997E+02 -0.66887E+05
 0.28599998E+02 -0.76853E+05
 0.28649998E+02 -0.11883E+06
 0.28699999E+02 -0.86722E+05
 0.28749998E+02 -0.19608E+05
 0.28799997E+02 -0.11856E+05
 0.28849998E+02  0.11314E+05
 0.28899998E+02  0.13450E+06
 0.28949999E+02  0.18615E+06
 0.28999998E+02  0.13943E+06
 0.29049997E+02  0.27783E+05
 0.29099998E+02 -0.13717E+05
 0.29149998E+02  0.21781E+05
 0.29199999E+02  0.87485E+05
 0.29249998E+02  0.86248E+05
 0.29299997E+02  0.47101E+05
 0.29349998E+02  0.40832E+05
 0.29399998E+02  0.31479E+05
 0.29449999E+02  0.61676E+05
 0.29499998E+02  0.74957E+05
 0.29549997E+02  0.55110E+05
 0.29599998E+02  0.29241E+03
 0.29649998E+02 -0.39318E+05
 0.29699999E+02 -0.76131E+05
 0.29749998E+02  0.80447E+03
 0.29799997E+02  0.85079E+05
 0.29849998E+02  0.49970E+05
 0.29899998E+02 -0.81698E+04
 0.29949999E+02 -0.86248E+05
 0.29999998E+02 -0.10423E+06
 0.30049999E+02 -0.67306E+05
 0.30099998E+02 -0.53710E+05
 0.30149998E+02 -0.35182E+05
 0.30199997E+02 -0.46493E+05
 0.30249996E+02 -0.40201E+05
 0.30299999E+02 -0.48008E+04
 0.30349998E+02 -0.48665E+05
 0.30399998E+02 -0.21406E+05
 0.30449997E+02  0.13480E+04
 0.30499996E+02 -0.57741E+04
 0.30549999E+02  0.68714E+05
 0.30599998E+02  0.11148E+06
 0.30649998E+02  0.21102E+06
 0.30699997E+02  0.28074E+06
 0.30749996E+02  0.21092E+06
 0.30799999E+02  0.17075E+06
 0.30849998E+02  0.21650E+06
 0.30899998E+02  0.29910E+06
 0.30949997E+02  0.28707E+06
 0.30999996E+02  0.26241E+06
 0.31049999E+02  0.29881E+06
 0.31099998E+02  0.34447E+06
 0.31149998E+02  0.30287E+06
 0.31199997E+02  0.19254E+06
 0.31249996E+02  0.14790E+06
 0.31299999E+02  0.12652E+06
 0.31349998E+02  0.72430E+05
 0.31399998E+02 -0.79864E+04
 0.31449997E+02 -0.18309E+05
 0.31499996E+02  0.37483E+05
 0.31549999E+02  0.11912E+06
 0.31599998E+02  0.16901E+06
 0.31649998E+02  0.19464E+06
 0.31699997E+02  0.16360E+06
 0.31749996E+02  0.10934E+06
 0.31799999E+02  0.10740E+06
 0.31849998E+02  0.18160E+06
 0.31899998E+02  0.26530E+06
 0.31949997E+02  0.27401E+06
 0.31999996E+02  0.25972E+06
 0.32049999E+02  0.20034E+06
 0.32099998E+02  0.17329E+06
 0.32149998E+02  0.13851E+06
 0.32199997E+02  0.11540E+06
 0.32249996E+02  0.39984E+05
 0.32299999E+02 -0.10412E+06
 0.32349998E+02 -0.15569E+06
 0.32399998E+02 -0.14253E+06
 0.32449997E+02 -0.10306E+06
 0.32499996E+02 -0.82674E+05
 0.32549999E+02 -0.78224E+05
 0.32599998E+02 -0.32881E+05
 0.32649998E+02  0.82307E+03
 0.32699997E+02 -0.54230E+05
 0.32749996E+02 -0.13537E+06
 0.32799999E+02 -0.14538E+06
 0.32849998E+02 -0.99214E+04
 0.32899998E+02  0.64088E+05
 0.32949997E+02 -0.41904E+05
 0.32999996E+02 -0.11285E+06
 0.33049999E+02 -0.72695E+05
 0.33099998E+02 -0.74605E+05
 0.33149998E+02 -0.32908E+05
 0.33199997E+02  0.82360E+05
 0.33249996E+02  0.77414E+05
 0.33299999E+02 -0.30474E+05
 0.33349998E+02 -0.15756E+06
 0.33399998E+02 -0.20182E+06
 0.33449997E+02 -0.17361E+06
 0.33499996E+02 -0.11046E+06
 0.33549999E+02  0.19304E+05
 0.33599998E+02  0.18399E+06
 0.33649998E+02  0.25399E+06
 0.33699997E+02  0.20883E+06
 0.33749996E+02  0.92711E+05
 0.33799999E+02  0.29503E+05
 0.33849998E+02  0.19519E+06
 0.33899998E+02  0.32190E+06
 0.33949997E+02  0.28528E+06
 0.33999996E+02  0.20268E+06
 0.34049999E+02  0.11378E+06
 0.34099998E+02  0.14596E+06
 0.34149998E+02  0.22539E+06
 0.34199997E+02  0.23126E+06
 0.34249996E+02  0.20015E+06
 0.34299999E+02  0.15880E+06
 0.34349998E+02  0.61719E+05
 0.34399998E+02 -0.12577E+05
 0.34449997E+02  0.21960E+05
 0.34499996E+02  0.15510E+05
 0.34549999E+02 -0.37979E+05
 0.34599998E+02 -0.84394E+05
 0.34649998E+02 -0.14739E+06
 0.34699997E+02 -0.14418E+06
 0.34749996E+02 -0.67378E+05
 0.34799999E+02 -0.47964E+05
 0.34849998E+02 -0.16563E+06
 0.34899998E+02 -0.21525E+06
 0.34949997E+02 -0.17950E+06
 0.34999996E+02 -0.23218E+06
 0.35049999E+02 -0.25277E+06
 0.35099998E+02 -0.16967E+06
 0.35149998E+02 -0.10558E+06
 0.35199997E+02 -0.89668E+05
 0.35249996E+02 -0.93721E+05
 0.35299999E+02 -0.15292E+06
 0.35349998E+02 -0.25695E+06
 0.35399998E+02 -0.28990E+06
 0.35449997E+02 -0.28487E+06
 0.35499996E+02 -0.22148E+06
 0.35549999E+02 -0.86452E+05
 0.35599998E+02  0.15660E+05
 0.35649998E+02  0.43539E+05
 0.35699997E+02  0.15424E+05
 0.35749996E+02  0.41618E+05
 0.35799999E+02  0.94533E+05
 0.35849998E+02  0.81723E+05
 0.35899998E+02  0.52110E+04
 0.35949997E+02 -0.10327E+06
 0.35999996E+02 -0.18886E+06
 0.36049999E+02 -0.27539E+06
 0.36099998E+02 -0.35392E+06
 0.36149998E+02 -0.38494E+06
 0.36199997E+02 -0.40930E+06
 0.36249996E+02 -0.44621E+06
 0.36299999E+02 -0.47341E+06
 0.36349998E+02 -0.51309E+06
 0.36399998E+02 -0.62010E+06
 0.36449997E+02 -0.72594E+06
 0.36499996E+02 -0.82874E+06
 0.36549999E+02 -0.91950E+06
 0.36599998E+02 -0.99514E+06
 0.36649998E+02 -0.10375E+07
 0.36699997E+02 -0.10432E+07
 0.36749996E+02 -0.10201E+07
 0.36799999E+02 -0.97128E+06
 0.36849998E+02 -0.82411E+06
 0.36899998E+02 -0.51223E+06
 0.36949997E+02 -0.17857E+06
 0.36999996E+02  0.23467E+05
 0.37049999E+02 -0.19089E+05
 0.37099998E+02 -0.11958E+06
 0.37149998E+02 -0.13154E+06
 0.37199997E+02 -0.10486E+06
 0.37249996E+02 -0.81365E+05
 0.37299999E+02 -0.11657E+06
 0.37349998E+02 -0.22616E+06
 0.37399998E+02 -0.35965E+06
 0.37449997E+02 -0.41324E+06
 0.37499996E+02 -0.43581E+06
 0.37549999E+02 -0.51859E+06
 0.37599998E+02 -0.69083E+06
 0.37649998E+02 -0.85964E+06
 0.37699997E+02 -0.91587E+06
 0.37749996E+02 -0.94777E+06
 0.37799999E+02 -0.84245E+06
 0.37849998E+02 -0.49905E+06
 0.37899998E+02 -0.83927E+05
 0.37949997E+02  0.16095E+06
 0.37999996E+02  0.16730E+06
 0.38049999E+02  0.14660E+06
 0.38099998E+02  0.20847E+06
 0.38149998E+02  0.41237E+06
 0.38199997E+02  0.72095E+06
 0.38249996E+02  0.93084E+06
 0.38299999E+02  0.10574E+07
 0.38349998E+02  0.12460E+07
 0.38399998E+02  0.14099E+07
 0.38449997E+02  0.14697E+07
 0.38499996E+02  0.12729E+07
 0.38549999E+02  0.71028E+06
 0.38599998E+02  0.82521E+05
 0.38649998E+02 -0.40646E+06
 0.38699997E+02 -0.91901E+06
 0.38749996E+02 -0.13023E+07
 0.38799999E+02 -0.12051E+07
 0.38849998E+02 -0.66050E+06
 0.38899998E+02  0.31991E+05
 0.38949997E+02  0.49609E+06
 0.38999996E+02  0.59251E+06
 0.39049999E+02  0.56685E+06
 0.39099998E+02  0.72656E+06
 0.39149998E+02  0.84721E+06
 0.39199997E+02  0.64815E+06
 0.39249996E+02  0.61925E+06
 0.39299999E+02  0.96334E+06
 0.39349998E+02  0.12380E+07
 0.39399998E+02  0.13369E+07
 0.39449997E+02  0.11900E+07
 0.39499996E+02  0.49675E+06
 0.39549999E+02 -0.55119E+06
 0.39599998E+02 -0.13724E+07
 0.39649998E+02 -0.21114E+07
 0.39699997E+02 -0.29114E+07
 0.39749996E+02 -0.32285E+07
 0.39799999E+02 -0.27874E+07
 0.39849998E+02 -0.18104E+07
 0.39899998E+02 -0.55404E+06
 0.39949997E+02  0.45723E+06
 0.39999996E+02  0.55861E+06
 0.40049999E+02  0.17389E+06
 0.40099998E+02 -0.20059E+06
 0.40149998E+02 -0.69390E+06
 0.40199997E+02 -0.10048E+07
 0.40249996E+02 -0.77531E+06
 0.40299999E+02 -0.21938E+06
 0.40349998E+02  0.12621E+06
 0.40399998E+02  0.35997E+06
 0.40449997E+02  0.65597E+06
 0.40499996E+02  0.56903E+06
 0.40549999E+02  0.29710E+06
 0.40599998E+02  0.26705E+06
 0.40649998E+02  0.13041E+06
 0.40699997E+02 -0.22716E+06
 0.40749996E+02 -0.38379E+06
 0.40799999E+02 -0.26780E+06
 0.40849998E+02  0.43184E+05
 0.40899998E+02  0.64588E+06
 0.40949997E+02  0.87582E+06
 0.40999996E+02  0.38434E+06
 0.41049999E+02  0.12241E+06
 0.41099998E+02  0.21559E+06
 0.41149998E+02  0.28336E+06
 0.41199997E+02  0.86570E+06
 0.41249996E+02  0.18599E+07
 0.41299999E+02  0.24470E+07
 0.41349998E+02  0.23038E+07
 0.41399998E+02  0.16705E+07
 0.41449997E+02  0.11595E+07
 0.41499996E+02  0.96488E+06
 0.41549999E+02  0.89007E+06
 0.41599998E+02  0.74213E+06
 0.41649998E+02  0.56106E+06
 0.41699997E+02  0.50765E+06
 0.41749996E+02  0.37566E+06
 0.41799999E+02 -0.16023E+05
 0.41849998E+02 -0.23943E+06
 0.41899998E+02 -0.91484E+05
 0.41949997E+02  0.95512E+05
 0.41999996E+02  0.30258E+06
 0.42049999E+02  0.51946E+06
 0.42099998E+02  0.45613E+06
 0.42149998E+02  0.23646E+06
 0.42199997E+02  0.20471E+06
 0.42249996E+02  0.34103E+06
 0.42299999E+02  0.56947E+06
 0.42349998E+02  0.51309E+06
 0.42399998E+02 -0.26822E+05
 0.42449997E+02 -0.48298E+06
 0.42499996E+02 -0.45082E+06
 0.42549999E+02 -0.31072E+06
 0.42599998E+02 -0.30056E+06
 0.42649998E+02 -0.28957E+06
 0.42699997E+02 -0.15016E+06
 0.42749996E+02  0.20321E+06
 0.42799995E+02  0.52898E+06
 0.42849998E+02  0.59848E+06
 0.42899998E+02  0.58329E+06
 0.42949997E+02  0.83682E+06
 0.42999996E+02  0.10367E+07
 0.43049995E+02  0.71938E+06
 0.43099998E+02  0.25711E+06
 0.43149998E+02 -0.47490E+05
 0.43199997E+02 -0.62486E+05
 0.43249996E+02  0.79800E+05
 0.43299995E+02  0.13262E+06
 0.43349998E+02  0.14904E+06
 0.43399998E+02  0.12245E+06
 0.43449997E+02  0.16698E+05
 0.43499996E+02 -0.87289E+05
 0.43549995E+02 -0.11138E+06
 0.43599998E+02 -0.53393E+05
 0.43649998E+02  0.14154E+06
 0.43699997E+02  0.33692E+06
 0.43749996E+02  0.56756E+06
 0.43799995E+02  0.77215E+06
 0.43849998E+02  0.79163E+06
 0.43899998E+02  0.73311E+06
 0.43949997E+02  0.81284E+06
 0.43999996E+02  0.82196E+06
 0.44049995E+02  0.55129E+06
 0.44099998E+02  0.16591E+06
 0.44149998E+02 -0.21793E+06
 0.44199997E+02 -0.29489E+06
 0.44249996E+02 -0.33389E+05
 0.44299995E+02  0.15676E+06
 0.44349998E+02  0.22954E+06
 0.44399998E+02  0.35950E+06
 0.44449997E+02  0.54549E+06
 0.44499996E+02  0.58542E+06
 0.44549995E+02  0.45530E+06
 0.44599998E+02  0.39255E+06
 0.44649998E+02  0.30946E+06
 0.44699997E+02  0.26391E+06
 0.44749996E+02  0.37524E+06
 0.44799995E+02  0.50382E+06
 0.44849998E+02  0.49884E+06
 0.44899998E+02  0.46023E+06
 0.44949997E+02  0.38094E+06
 0.44999996E+02  0.40644E+06
 0.45049995E+02  0.79294E+06
 0.45099998E+02  0.12888E+07
 0.45149998E+02  0.16050E+07
 0.45199997E+02  0.16671E+07
 0.45249996E+02  0.15257E+07
 0.45299995E+02  0.13338E+07
 0.45349998E+02  0.11976E+07
 0.45399998E+02  0.96494E+06
 0.45449997E+02  0.50969E+06
 0.45499996E+02 -0.87059E+05
 0.45549995E+02 -0.55639E+06
 0.45599998E+02 -0.61853E+06
 0.45649998E+02 -0.31079E+06
 0.45699997E+02  0.98420E+05
 0.45749996E+02  0.49401E+06
 0.45799995E+02  0.82805E+06
 0.45849998E+02  0.10258E+07
 0.45899998E+02  0.11898E+07
 0.45949997E+02  0.12460E+07
 0.45999996E+02  0.10735E+07
 0.46049995E+02  0.83785E+06
 0.46099998E+02  0.42530E+06
 0.46149998E+02 -0.24750E+06
 0.46199997E+02 -0.93165E+06
 0.46249996E+02 -0.15617E+07
 0.46299995E+02 -0.21047E+07
 0.46349998E+02 -0.23720E+07
 0.46399998E+02 -0.23544E+07
 0.46449997E+02 -0.21718E+07
 0.46499996E+02 -0.18092E+07
 0.46549995E+02 -0.12973E+07
 0.46599998E+02 -0.76309E+06
 0.46649998E+02 -0.34842E+06
 0.46699997E+02 -0.64408E+05
 0.46749996E+02  0.13559E+06
 0.46799995E+02  0.20745E+06
 0.46849998E+02  0.69916E+05
 0.46899998E+02 -0.17823E+06
 0.46949997E+02 -0.46096E+06
 0.46999996E+02 -0.80234E+06
 0.47049995E+02 -0.10537E+07
 0.47099998E+02 -0.11559E+07
 0.47149998E+02 -0.11272E+07
 0.47199997E+02 -0.90986E+06
 0.47249996E+02 -0.58479E+06
 0.47299995E+02 -0.29435E+06
 0.47349998E+02 -0.70724E+05
 0.47399998E+02 -0.13372E+05
 0.47449997E+02 -0.68082E+05
 0.47499996E+02 -0.14847E+06
 0.47549995E+02 -0.25953E+06
 0.47599998E+02 -0.43300E+06
 0.47649998E+02 -0.62445E+06
 0.47699997E+02 -0.82303E+06
 0.47749996E+02 -0.93852E+06
 0.47799995E+02 -0.89169E+06
 0.47849998E+02 -0.93913E+06
 0.47899998E+02 -0.10324E+07
 0.47949997E+02 -0.11039E+07
 0.47999996E+02 -0.11862E+07
 0.48049995E+02 -0.11788E+07
 0.48099998E+02 -0.99469E+06
 0.48149998E+02 -0.77523E+06
 0.48199997E+02 -0.66623E+06
 0.48249996E+02 -0.58703E+06
 0.48299995E+02 -0.57437E+06
 0.48349998E+02 -0.61943E+06
 0.48399998E+02 -0.60210E+06
 0.48449997E+02 -0.55952E+06
 0.48499996E+02 -0.57986E+06
 0.48549995E+02 -0.61155E+06
 0.48599998E+02 -0.63737E+06
 0.48649998E+02 -0.62040E+06
 0.48699997E+02 -0.54877E+06
 0.48749996E+02 -0.43366E+06
 0.48799995E+02 -0.32968E+06
 0.48849998E+02 -0.34216E+06
 0.48899998E+02 -0.47575E+06
 0.48949997E+02 -0.65306E+06
 0.48999996E+02 -0.87672E+06
 0.49049995E+02 -0.11575E+07
 0.49099998E+02 -0.13489E+07
 0.49149998E+02 -0.12929E+07
 0.49199997E+02 -0.10410E+07
 0.49249996E+02 -0.83168E+06
 0.49299995E+02 -0.69642E+06
 0.49349998E+02 -0.57043E+06
 0.49399998E+02 -0.43116E+06
 0.49449997E+02 -0.26097E+06
 0.49499996E+02 -0.11793E+06
 0.49549995E+02 -0.22903E+05
 0.49599998E+02  0.21511E+05
 0.49649998E+02  0.59724E+05
 0.49699997E+02  0.17111E+06
 0.49749996E+02  0.29070E+06
 0.49799995E+02  0.31217E+06
 0.49849998E+02  0.20662E+06
 0.49899998E+02  0.48646E+05
 0.49949997E+02 -0.50720E+05
 0.49999996E+02 -0.50705E+05
 0.50049995E+02 -0.61551E+04
 0.50099998E+02  0.31491E+04
 0.50149998E+02 -0.98209E+04
 0.50199997E+02  0.28068E+05
 0.50249996E+02  0.65850E+05
 0.50299995E+02  0.18218E+06
 0.50349998E+02  0.32874E+06
 0.50399998E+02  0.39228E+06
 0.50449997E+02  0.43029E+06
 0.50499996E+02  0.40187E+06
 0.50549995E+02  0.38649E+06
 0.50599998E+02  0.43302E+06
 0.50649998E+02  0.52034E+06
 0.50699997E+02  0.51143E+06
 0.50749996E+02  0.34028E+06
 0.50799995E+02  0.71120E+05
 0.50849998E+02 -0.11405E+06
 0.50899998E+02 -0.13669E+06
 0.50949997E+02 -0.11745E+06
 0.50999996E+02 -0.83340E+04
 0.51049995E+02  0.20835E+06
 0.51099998E+02  0.45223E+06
 0.51149998E+02  0.66448E+06
 0.51199997E+02  0.68045E+06
 0.51249996E+02  0.44356E+06
 0.51299995E+02  0.16723E+06
 0.51349998E+02 -0.71513E+05
 0.51399998E+02 -0.27461E+06
 0.51449997E+02 -0.43498E+06
 0.51499996E+02 -0.59068E+06
 0.51549995E+02 -0.77361E+06
 0.51599998E+02 -0.91885E+06
 0.51649998E+02 -0.86217E+06
 0.51699997E+02 -0.65977E+06
 0.51749996E+02 -0.47945E+06
 0.51799995E+02 -0.33117E+06
 0.51849998E+02 -0.16555E+06
 0.51899998E+02  0.63107E+05
 0.51949997E+02  0.32059E+06
 0.51999996E+02  0.54790E+06
 0.52049995E+02  0.77544E+06
 0.52099998E+02  0.98102E+06
 0.52149998E+02  0.11301E+07
 0.52199997E+02  0.12506E+07
 0.52249996E+02  0.14213E+07
 0.52299995E+02  0.15997E+07
 0.52349998E+02  0.16750E+07
 0.52399998E+02  0.16246E+07
 0.52449997E+02  0.14398E+07
 0.52499996E+02  0.11846E+07
 0.52549995E+02  0.88283E+06
 0.52599998E+02  0.60233E+06
 0.52649998E+02  0.38681E+06
 0.52699997E+02  0.23541E+06
 0.52749996E+02  0.16624E+06
 0.52799995E+02  0.19732E+06
 0.52849998E+02  0.32702E+06
 0.52899998E+02  0.51019E+06
 0.52949997E+02  0.73133E+06
 0.52999996E+02  0.87925E+06
 0.53049995E+02  0.92603E+06
 0.53099998E+02  0.92845E+06
 0.53149998E+02  0.83316E+06
 0.53199997E+02  0.65749E+06
 0.53249996E+02  0.49411E+06
 0.53299995E+02  0.37864E+06
 0.53349998E+02  0.27863E+06
 0.53399998E+02  0.10217E+06
 0.53449997E+02 -0.81047E+05
 0.53499996E+02 -0.10974E+06
 0.53549995E+02  0.19065E+05
 0.53599998E+02  0.17950E+06
 0.53649998E+02  0.30667E+06
 0.53699997E+02  0.40472E+06
 0.53749996E+02  0.50567E+06
 0.53799995E+02  0.68117E+06
 0.53849998E+02  0.86605E+06
 0.53899998E+02  0.95066E+06
 0.53949997E+02  0.95242E+06
 0.53999996E+02  0.84913E+06
 0.54049995E+02  0.65844E+06
 0.54099998E+02  0.45231E+06
 0.54149998E+02  0.22726E+06
 0.54199997E+02  0.31860E+05
 0.54249996E+02 -0.18066E+06
 0.54299995E+02 -0.44725E+06
 0.54349998E+02 -0.71960E+06
 0.54399998E+02 -0.92748E+06
 0.54449997E+02 -0.10295E+07
 0.54499996E+02 -0.10689E+07
 0.54549995E+02 -0.10451E+07
 0.54599998E+02 -0.95697E+06
 0.54649998E+02 -0.88504E+06
 0.54699997E+02 -0.91129E+06
 0.54749996E+02 -0.10033E+07
 0.54799995E+02 -0.11092E+07
 0.54849998E+02 -0.11533E+07
 0.54899998E+02 -0.11083E+07
 0.54949997E+02 -0.10544E+07
 0.54999996E+02 -0.98207E+06
 0.55049995E+02 -0.85901E+06
 0.55099998E+02 -0.71257E+06
 0.55149998E+02 -0.56641E+06
 0.55199997E+02 -0.42099E+06
 0.55249996E+02 -0.25224E+06
 0.55299995E+02 -0.10760E+06
 0.55349998E+02 -0.60726E+05
 0.55399998E+02 -0.99121E+05
 0.55449997E+02 -0.17099E+06
 0.55499996E+02 -0.22768E+06
 0.55549995E+02 -0.27674E+06
 0.55599998E+02 -0.31633E+06
 0.55649998E+02 -0.36179E+06
 0.55699997E+02 -0.43951E+06
 0.55749996E+02 -0.54285E+06
 0.55799995E+02 -0.61775E+06
 0.55849995E+02 -0.62853E+06
 0.55899998E+02 -0.60261E+06
 0.55949997E+02 -0.51741E+06
 0.55999996E+02 -0.42311E+06
 0.56049995E+02 -0.35196E+06
 0.56099995E+02 -0.37441E+06
 0.56149998E+02 -0.46667E+06
 0.56199997E+02 -0.51339E+06
 0.56249996E+02 -0.52351E+06
 0.56299995E+02 -0.55902E+06
 0.56349995E+02 -0.67128E+06
 0.56399998E+02 -0.77969E+06
 0.56449997E+02 -0.80139E+06
 0.56499996E+02 -0.71970E+06
 0.56549995E+02 -0.60235E+06
 0.56599995E+02 -0.55083E+06
 0.56649998E+02 -0.53485E+06
 0.56699997E+02 -0.47254E+06
 0.56749996E+02 -0.33341E+06
 0.56799995E+02 -0.10861E+06
 0.56849995E+02  0.86444E+05
 0.56899998E+02  0.18897E+06
 0.56949997E+02  0.29393E+06
 0.56999996E+02  0.45674E+06
 0.57049995E+02  0.61938E+06
 0.57099995E+02  0.72940E+06
 0.57149998E+02  0.79524E+06
 0.57199997E+02  0.81422E+06
 0.57249996E+02  0.80550E+06
 0.57299995E+02  0.77078E+06
 0.57349995E+02  0.72639E+06
 0.57399998E+02  0.65205E+06
 0.57449997E+02  0.55735E+06
 0.57499996E+02  0.45449E+06
 0.57549995E+02  0.30598E+06
 0.57599995E+02  0.21486E+06
 0.57649998E+02  0.19408E+06
 0.57699997E+02  0.17975E+06
 0.57749996E+02  0.16117E+06
 0.57799995E+02  0.11254E+06
 0.57849995E+02  0.58499E+05
 0.57899998E+02  0.21179E+05
 0.57949997E+02  0.29809E+05
 0.57999996E+02  0.12260E+06
 0.58049995E+02  0.25637E+06
 0.58099995E+02  0.38010E+06
 0.58149998E+02  0.43999E+06
 0.58199997E+02  0.41045E+06
 0.58249996E+02  0.30847E+06
 0.58299995E+02  0.17578E+06
 0.58349995E+02  0.74306E+05
 0.58399998E+02  0.29883E+05
 0.58449997E+02  0.94042E+05
 0.58499996E+02  0.24082E+06
 0.58549995E+02  0.41383E+06
 0.58599995E+02  0.58759E+06
 0.58649998E+02  0.69978E+06
 0.58699997E+02  0.71672E+06
 0.58749996E+02  0.64084E+06
 0.58799995E+02  0.50678E+06
 0.58849995E+02  0.36470E+06
 0.58899998E+02  0.24333E+06
 0.58949997E+02  0.17082E+06
 0.58999996E+02  0.13770E+06
 0.59049995E+02  0.11826E+06
 0.59099995E+02  0.12186E+06
 0.59149998E+02  0.17508E+06
 0.59199997E+02  0.24622E+06
 0.59249996E+02  0.29460E+06
 0.59299995E+02  0.31833E+06
 0.59349995E+02  0.27981E+06
 0.59399998E+02  0.21758E+06
 0.59449997E+02  0.14735E+06
 0.59499996E+02  0.61590E+05
 0.59549995E+02  0.67112E+04
 0.59599995E+02 -0.24664E+05
 0.59649998E+02 -0.42301E+05
 0.59699997E+02 -0.55252E+05
 0.59749996E+02 -0.58467E+05
 0.59799995E+02 -0.40699E+05
 0.59849995E+02 -0.37614E+04
 0.59899998E+02  0.50007E+05
 0.59949997E+02  0.10145E+06
 0.59999996E+02  0.13710E+06
 0.60049995E+02  0.17146E+06
 0.60099995E+02  0.24214E+06
 0.60149998E+02  0.35312E+06
 0.60199997E+02  0.44042E+06
 0.60249996E+02  0.46754E+06
 0.60299995E+02  0.43753E+06
 0.60349995E+02  0.36100E+06
 0.60399998E+02  0.30647E+06
 0.60449997E+02  0.28228E+06
 0.60499996E+02  0.25793E+06
 0.60549995E+02  0.22933E+06
 0.60599995E+02  0.18001E+06
 0.60649998E+02  0.96656E+05
 0.60699997E+02 -0.25686E+05
 0.60749996E+02 -0.12521E+06
 0.60799995E+02 -0.15454E+06
 0.60849995E+02 -0.14267E+06
 0.60899998E+02 -0.12628E+06
 0.60949997E+02 -0.13003E+06
 0.60999996E+02 -0.16796E+06
 0.61049995E+02 -0.22192E+06
 0.61099995E+02 -0.27485E+06
 0.61149998E+02 -0.32641E+06
 0.61199997E+02 -0.40964E+06
 0.61249996E+02 -0.53453E+06
 0.61299995E+02 -0.66898E+06
 0.61349995E+02 -0.78602E+06
 0.61399998E+02 -0.83638E+06
 0.61449997E+02 -0.82046E+06
 0.61499996E+02 -0.77668E+06
 0.61549995E+02 -0.71521E+06
 0.61599995E+02 -0.61643E+06
 0.61649998E+02 -0.47151E+06
 0.61699997E+02 -0.32845E+06
 0.61749996E+02 -0.25909E+06
 0.61799995E+02 -0.26020E+06
 0.61849995E+02 -0.29977E+06
 0.61899998E+02 -0.34518E+06
 0.61949997E+02 -0.38233E+06
 0.61999996E+02 -0.43841E+06
 0.62049995E+02 -0.50110E+06
 0.62099998E+02 -0.55012E+06
 0.62149994E+02 -0.59395E+06
 0.62199997E+02 -0.62194E+06
 0.62249992E+02 -0.60206E+06
 0.62299995E+02 -0.53265E+06
 0.62349998E+02 -0.42417E+06
 0.62399994E+02 -0.32303E+06
 0.62449997E+02 -0.25444E+06
 0.62499992E+02 -0.20274E+06
 0.62549995E+02 -0.17743E+06
 0.62599998E+02 -0.16601E+06
 0.62649994E+02 -0.17024E+06
 0.62699997E+02 -0.21622E+06
 0.62749992E+02 -0.30498E+06
 0.62799995E+02 -0.43117E+06
 0.62849998E+02 -0.56154E+06
 0.62899994E+02 -0.64422E+06
 0.62949997E+02 -0.66373E+06
 0.62999992E+02 -0.62415E+06
 0.63049995E+02 -0.53921E+06
 0.63099998E+02 -0.42436E+06
 0.63149994E+02 -0.28273E+06
 0.63199997E+02 -0.12888E+06
 0.63249992E+02 -0.77282E+04
 0.63299995E+02  0.70683E+05
 0.63349998E+02  0.11235E+06
 0.63399994E+02  0.10508E+06
 0.63449997E+02  0.89953E+05
 0.63499992E+02  0.95944E+05
 0.63549995E+02  0.12760E+06
 0.63599998E+02  0.17529E+06
 0.63649994E+02  0.19958E+06
 0.63699997E+02  0.19303E+06
 0.63749992E+02  0.18023E+06
 0.63799995E+02  0.16136E+06
 0.63849998E+02  0.13300E+06
 0.63899994E+02  0.91965E+05
 0.63949997E+02  0.24533E+05
 0.63999992E+02 -0.49404E+05
 0.64049995E+02 -0.10659E+06
 0.64099998E+02 -0.13149E+06
 0.64149994E+02 -0.10945E+06
 0.64199997E+02 -0.68950E+05
 0.64249992E+02 -0.54399E+05
 0.64299995E+02 -0.42759E+05
 0.64349998E+02  0.12730E+04
 0.64399994E+02  0.76293E+05
 0.64449997E+02  0.15703E+06
 0.64499992E+02  0.22492E+06
 0.64549995E+02  0.27320E+06
 0.64599998E+02  0.30607E+06
 0.64649994E+02  0.33624E+06
 0.64699997E+02  0.36718E+06
 0.64749992E+02  0.39053E+06
 0.64799995E+02  0.39612E+06
 0.64849998E+02  0.42123E+06
 0.64899994E+02  0.48704E+06
 0.64949997E+02  0.58333E+06
 0.64999992E+02  0.69665E+06
 0.65049995E+02  0.79993E+06
 0.65099998E+02  0.85825E+06
 0.65149994E+02  0.83320E+06
 0.65199997E+02  0.74596E+06
 0.65249992E+02  0.66010E+06
 0.65299995E+02  0.62266E+06
 0.65349998E+02  0.63519E+06
 0.65399994E+02  0.65122E+06
 0.65449997E+02  0.65122E+06
 0.65499992E+02  0.64103E+06
 0.65549995E+02  0.60659E+06
 0.65599998E+02  0.55490E+06
 0.65649994E+02  0.52018E+06
 0.65699997E+02  0.49250E+06
 0.65749992E+02  0.47942E+06
 0.65799995E+02  0.48683E+06
 0.65849998E+02  0.47650E+06
 0.65899994E+02  0.45008E+06
 0.65949997E+02  0.40389E+06
 0.65999992E+02  0.32383E+06
 0.66049995E+02  0.23030E+06
 0.66099998E+02  0.15746E+06
 0.66149994E+02  0.10306E+06
 0.66199997E+02  0.35378E+05
 0.66249992E+02 -0.47351E+05
 0.66299995E+02 -0.11524E+06
 0.66349998E+02 -0.12265E+06
 0.66399994E+02 -0.85639E+05
 0.66449997E+02 -0.47715E+05
 0.66499992E+02 -0.59272E+04
 0.66549995E+02  0.48160E+05
 0.66599998E+02  0.10745E+06
 0.66649994E+02  0.13234E+06
 0.66699997E+02  0.90192E+05
 0.66749992E+02 -0.82463E+04
 0.66799995E+02 -0.11372E+06
 0.66849998E+02 -0.20322E+06
 0.66899994E+02 -0.27157E+06
 0.66949997E+02 -0.28566E+06
 0.66999992E+02 -0.27934E+06
 0.67049995E+02 -0.30728E+06
 0.67099998E+02 -0.37169E+06
 0.67149994E+02 -0.43917E+06
 0.67199997E+02 -0.47909E+06
 0.67249992E+02 -0.50268E+06
 0.67299995E+02 -0.50878E+06
 0.67349998E+02 -0.49988E+06
 0.67399994E+02 -0.47912E+06
 0.67449997E+02 -0.46195E+06
 0.67499992E+02 -0.45335E+06
 0.67549995E+02 -0.43958E+06
 0.67599998E+02 -0.44882E+06
 0.67649994E+02 -0.49850E+06
 0.67699997E+02 -0.58937E+06
 0.67749992E+02 -0.71443E+06
 0.67799995E+02 -0.84733E+06
 0.67849998E+02 -0.95440E+06
 0.67899994E+02 -0.10226E+07
 0.67949997E+02 -0.10596E+07
 0.67999992E+02 -0.10772E+07
 0.68049995E+02 -0.10914E+07
 0.68099998E+02 -0.10851E+07
 0.68149994E+02 -0.10207E+07
 0.68199997E+02 -0.89735E+06
 0.68249992E+02 -0.74024E+06
 0.68299995E+02 -0.58686E+06
 0.68349998E+02 -0.46512E+06
 0.68399994E+02 -0.37962E+06
 0.68449997E+02 -0.32270E+06
 0.68499992E+02 -0.28907E+06
 0.68549995E+02 -0.27510E+06
 0.68599998E+02 -0.24870E+06
 0.68649994E+02 -0.19389E+06
 0.68699997E+02 -0.12524E+06
 0.68749992E+02 -0.61549E+05
 0.68799995E+02 -0.49267E+04
 0.68849998E+02  0.63729E+05
 0.68899994E+02  0.16032E+06
 0.68949997E+02  0.26046E+06
 0.68999992E+02  0.30729E+06
 0.69049995E+02  0.31138E+06
 0.69099998E+02  0.30395E+06
 0.69149994E+02  0.30923E+06
 0.69199997E+02  0.34656E+06
 0.69249992E+02  0.37618E+06
 0.69299995E+02  0.38418E+06
 0.69349998E+02  0.39657E+06
 0.69399994E+02  0.44036E+06
 0.69449997E+02  0.51830E+06
 0.69499992E+02  0.59777E+06
 0.69549995E+02  0.65653E+06
 0.69599998E+02  0.69617E+06
 0.69649994E+02  0.71198E+06
 0.69699997E+02  0.70129E+06
 0.69749992E+02  0.67865E+06
 0.69799995E+02  0.64870E+06
 0.69849998E+02  0.61534E+06
 0.69899994E+02  0.56832E+06
 0.69949997E+02  0.50584E+06
 0.69999992E+02  0.45003E+06
 0.70049995E+02  0.38819E+06
 0.70099998E+02  0.30884E+06
 0.70149994E+02  0.23652E+06
 0.70199997E+02  0.18304E+06
 0.70249992E+02  0.13415E+06
 0.70299995E+02  0.85266E+05
 0.70349998E+02  0.59830E+05
 0.70399994E+02  0.61652E+05
 0.70449997E+02  0.67732E+05
 0.70499992E+02  0.61904E+05
 0.70549995E+02  0.55262E+05
 0.70599998E+02  0.62040E+05
 0.70649994E+02  0.99651E+05
 0.70699997E+02  0.16532E+06
 0.70749992E+02  0.22489E+06
 0.70799995E+02  0.26105E+06
 0.70849998E+02  0.27170E+06
 0.70899994E+02  0.26389E+06
 0.70949997E+02  0.23807E+06
 0.70999992E+02  0.19049E+06
 0.71049995E+02  0.13239E+06
 0.71099998E+02  0.75234E+05
 0.71149994E+02  0.24389E+05
 0.71199997E+02 -0.51980E+04
 0.71249992E+02 -0.21163E+05
 0.71299995E+02 -0.41417E+05
 0.71349998E+02 -0.72607E+05
 0.71399994E+02 -0.11051E+06
 0.71449997E+02 -0.15164E+06
 0.71499992E+02 -0.19309E+06
 0.71549995E+02 -0.22510E+06
 0.71599998E+02 -0.23335E+06
 0.71649994E+02 -0.22344E+06
 0.71699997E+02 -0.21971E+06
 0.71749992E+02 -0.24222E+06
 0.71799995E+02 -0.30611E+06
 0.71849998E+02 -0.40485E+06
 0.71899994E+02 -0.52695E+06
 0.71949997E+02 -0.64149E+06
 0.71999992E+02 -0.72909E+06
 0.72049995E+02 -0.78201E+06
 0.72099998E+02 -0.78782E+06
 0.72149994E+02 -0.75720E+06
 0.72199997E+02 -0.71660E+06
 0.72249992E+02 -0.69254E+06
 0.72299995E+02 -0.68543E+06
 0.72349998E+02 -0.67822E+06
 0.72399994E+02 -0.63580E+06
 0.72449997E+02 -0.53711E+06
 0.72499992E+02 -0.39708E+06
 0.72549995E+02 -0.20443E+06
 0.72599998E+02  0.21477E+05
 0.72649994E+02  0.23066E+06
 0.72699997E+02  0.40030E+06
 0.72749992E+02  0.50133E+06
 0.72799995E+02  0.53678E+06
 0.72849998E+02  0.51626E+06
 0.72899994E+02  0.45579E+06
 0.72949997E+02  0.37880E+06
 0.72999992E+02  0.29985E+06
 0.73049995E+02  0.23359E+06
 0.73099998E+02  0.18181E+06
 0.73149994E+02  0.14539E+06
 0.73199997E+02  0.11501E+06
 0.73249992E+02  0.90087E+05
 0.73299995E+02  0.75448E+05
 0.73349998E+02  0.69644E+05
 0.73399994E+02  0.55836E+05
 0.73449997E+02  0.21672E+05
 0.73499992E+02 -0.30732E+05
 0.73549995E+02 -0.10113E+06
 0.73599998E+02 -0.17431E+06
 0.73649994E+02 -0.23720E+06
 0.73699997E+02 -0.29392E+06
 0.73749992E+02 -0.35125E+06
 0.73799995E+02 -0.41933E+06
 0.73849998E+02 -0.49628E+06
 0.73899994E+02 -0.56314E+06
 0.73949997E+02 -0.62218E+06
 0.73999992E+02 -0.66885E+06
 0.74049995E+02 -0.68319E+06
 0.74099998E+02 -0.66414E+06
 0.74149994E+02 -0.61181E+06
 0.74199997E+02 -0.51563E+06
 0.74249992E+02 -0.37062E+06
 0.74299995E+02 -0.19419E+06
 0.74349998E+02 -0.10822E+05
 0.74399994E+02  0.15875E+06
 0.74449997E+02  0.29521E+06
 0.74499992E+02  0.38482E+06
 0.74549995E+02  0.43444E+06
 0.74599998E+02  0.45207E+06
 0.74649994E+02  0.44258E+06
 0.74699997E+02  0.41531E+06
 0.74749992E+02  0.37117E+06
 0.74799995E+02  0.30854E+06
 0.74849998E+02  0.23486E+06
 0.74899994E+02  0.16683E+06
 0.74949997E+02  0.10637E+06
 0.74999992E+02  0.61462E+05
 0.75049995E+02  0.47968E+05
 0.75099998E+02  0.69212E+05
 0.75149994E+02  0.11914E+06
 0.75199997E+02  0.19159E+06
 0.75249992E+02  0.27781E+06
 0.75299995E+02  0.35513E+06
 0.75349998E+02  0.41818E+06
 0.75399994E+02  0.47468E+06
 0.75449997E+02  0.51766E+06
 0.75499992E+02  0.53974E+06
 0.75549995E+02  0.55215E+06
 0.75599998E+02  0.56915E+06
 0.75649994E+02  0.57824E+06
 0.75699997E+02  0.56453E+06
 0.75749992E+02  0.53077E+06
 0.75799995E+02  0.47766E+06
 0.75849998E+02  0.41849E+06
 0.75899994E+02  0.37400E+06
 0.75949997E+02  0.34677E+06
 0.75999992E+02  0.33160E+06
 0.76049995E+02  0.31885E+06
 0.76099998E+02  0.30355E+06
 0.76149994E+02  0.29215E+06
 0.76199997E+02  0.28200E+06
 0.76249992E+02  0.25872E+06
 0.76299995E+02  0.22031E+06
 0.76349998E+02  0.17818E+06
 0.76399994E+02  0.13564E+06
 0.76449997E+02  0.81063E+05
 0.76499992E+02  0.12712E+05
 0.76549995E+02 -0.59325E+05
 0.76599998E+02 -0.13012E+06
 0.76649994E+02 -0.19643E+06
 0.76699997E+02 -0.25793E+06
 0.76749992E+02 -0.32511E+06
 0.76799995E+02 -0.40719E+06
 0.76849998E+02 -0.50549E+06
 0.76899994E+02 -0.60936E+06
 0.76949997E+02 -0.70327E+06
 0.76999992E+02 -0.78393E+06
 0.77049995E+02 -0.84150E+06
 0.77099998E+02 -0.88428E+06
 0.77149994E+02 -0.91249E+06
 0.77199997E+02 -0.91006E+06
 0.77249992E+02 -0.87599E+06
 0.77299995E+02 -0.80576E+06
 0.77349998E+02 -0.70969E+06
 0.77399994E+02 -0.60077E+06
 0.77449997E+02 -0.50003E+06
 0.77499992E+02 -0.40504E+06
 0.77549995E+02 -0.30203E+06
 0.77599998E+02 -0.20899E+06
 0.77649994E+02 -0.12831E+06
 0.77699997E+02 -0.52583E+05
 0.77749992E+02  0.26155E+05
 0.77799995E+02  0.10802E+06
 0.77849998E+02  0.18415E+06
 0.77899994E+02  0.25106E+06
 0.77949997E+02  0.30526E+06
 0.77999992E+02  0.34935E+06
 0.78049995E+02  0.38064E+06
 0.78099998E+02  0.38528E+06
 0.78149994E+02  0.36811E+06
 0.78199997E+02  0.34947E+06
 0.78249992E+02  0.33271E+06
 0.78299995E+02  0.31118E+06
 0.78349998E+02  0.28058E+06
 0.78399994E+02  0.22627E+06
 0.78449997E+02  0.15135E+06
 0.78499992E+02  0.80154E+05
 0.78549995E+02  0.16956E+05
 0.78599998E+02 -0.42363E+05
 0.78649994E+02 -0.92615E+05
 0.78699997E+02 -0.12641E+06
 0.78749992E+02 -0.14819E+06
 0.78799995E+02 -0.16264E+06
 0.78849998E+02 -0.16934E+06
 0.78899994E+02 -0.17021E+06
 0.78949997E+02 -0.16804E+06
 0.78999992E+02 -0.16205E+06
 0.79049995E+02 -0.15625E+06
 0.79099998E+02 -0.16049E+06
 0.79149994E+02 -0.17292E+06
 0.79199997E+02 -0.17532E+06
 0.79249992E+02 -0.14753E+06
 0.79299995E+02 -0.86741E+05
 0.79349998E+02 -0.14115E+04
 0.79399994E+02  0.94132E+05
 0.79449997E+02  0.17706E+06
 0.79499992E+02  0.22006E+06
 0.79549995E+02  0.21899E+06
 0.79599998E+02  0.18379E+06
 0.79649994E+02  0.12936E+06
 0.79699997E+02  0.70107E+05
 0.79749992E+02  0.70274E+04
 0.79799995E+02 -0.46753E+05
 0.79849998E+02 -0.80631E+05
 0.79899994E+02 -0.96565E+05
 0.79949997E+02 -0.93979E+05
 0.79999992E+02 -0.78507E+05
 0.80049995E+02 -0.57700E+05
 0.80099998E+02 -0.28843E+05
 0.80149994E+02 -0.37560E+04
 0.80199997E+02  0.42380E+04
 0.80249992E+02  0.49004E+04
 0.80299995E+02  0.31155E+04
 0.80349998E+02  0.67768E+04
 0.80399994E+02  0.25017E+05
 0.80449997E+02  0.53519E+05
 0.80499992E+02  0.77019E+05
 0.80549995E+02  0.88961E+05
 0.80599998E+02  0.94351E+05
 0.80649994E+02  0.89399E+05
 0.80699997E+02  0.76593E+05
 0.80749992E+02  0.74469E+05
 0.80799995E+02  0.10365E+06
 0.80849998E+02  0.14957E+06
 0.80899994E+02  0.18562E+06
 0.80949997E+02  0.20661E+06
 0.80999992E+02  0.21198E+06
 0.81049995E+02  0.20317E+06
 0.81099998E+02  0.17901E+06
 0.81149994E+02  0.13785E+06
 0.81199997E+02  0.89192E+05
 0.81249992E+02  0.40512E+05
 0.81299995E+02 -0.44190E+04
 0.81349998E+02 -0.47829E+05
 0.81399994E+02 -0.93571E+05
 0.81449997E+02 -0.13574E+06
 0.81499992E+02 -0.16541E+06
 0.81549995E+02 -0.17927E+06
 0.81599998E+02 -0.17999E+06
 0.81649994E+02 -0.17867E+06
 0.81699997E+02 -0.19422E+06
 0.81749992E+02 -0.22451E+06
 0.81799995E+02 -0.26221E+06
 0.81849998E+02 -0.30979E+06
 0.81899994E+02 -0.36612E+06
 0.81949997E+02 -0.41322E+06
 0.81999992E+02 -0.44234E+06
 0.82049995E+02 -0.45956E+06
 0.82099998E+02 -0.46935E+06
 0.82149994E+02 -0.47222E+06
 0.82199997E+02 -0.46571E+06
 0.82249992E+02 -0.45995E+06
 0.82299995E+02 -0.46703E+06
 0.82349998E+02 -0.48743E+06
 0.82399994E+02 -0.50949E+06
 0.82449997E+02 -0.52949E+06
 0.82499992E+02 -0.54196E+06
 0.82549995E+02 -0.53891E+06
 0.82599998E+02 -0.51570E+06
 0.82649994E+02 -0.46789E+06
 0.82699997E+02 -0.39161E+06
 0.82749992E+02 -0.28712E+06
 0.82799995E+02 -0.17172E+06
 0.82849998E+02 -0.68738E+05
 0.82899994E+02  0.14582E+05
 0.82949997E+02  0.95731E+05
 0.82999992E+02  0.18555E+06
 0.83049995E+02  0.27052E+06
 0.83099998E+02  0.33927E+06
 0.83149994E+02  0.39382E+06
 0.83199997E+02  0.44679E+06
 0.83249992E+02  0.50711E+06
 0.83299995E+02  0.56524E+06
 0.83349998E+02  0.60843E+06
 0.83399994E+02  0.63407E+06
 0.83449997E+02  0.64526E+06
 0.83499992E+02  0.63014E+06
 0.83549995E+02  0.58925E+06
 0.83599998E+02  0.54792E+06
 0.83649994E+02  0.51882E+06
 0.83699997E+02  0.50016E+06
 0.83749992E+02  0.48145E+06
 0.83799995E+02  0.44795E+06
 0.83849998E+02  0.39588E+06
 0.83899994E+02  0.33952E+06
 0.83949997E+02  0.28764E+06
 0.83999992E+02  0.23647E+06
 0.84049995E+02  0.17701E+06
 0.84099998E+02  0.10011E+06
 0.84149994E+02  0.11977E+05
 0.84199997E+02 -0.69664E+05
 0.84249992E+02 -0.12293E+06
 0.84299995E+02 -0.14150E+06
 0.84349998E+02 -0.14287E+06
 0.84399994E+02 -0.14453E+06
 0.84449997E+02 -0.15187E+06
 0.84499992E+02 -0.17122E+06
 0.84549995E+02 -0.19987E+06
 0.84599998E+02 -0.22531E+06
 0.84649994E+02 -0.24249E+06
 0.84699997E+02 -0.23933E+06
 0.84749992E+02 -0.20927E+06
 0.84799995E+02 -0.16223E+06
 0.84849998E+02 -0.11123E+06
 0.84899994E+02 -0.57155E+05
 0.84949997E+02  0.54406E+04
 0.84999992E+02  0.82608E+05
 0.85049995E+02  0.18050E+06
 0.85099998E+02  0.29240E+06
 0.85149994E+02  0.40719E+06
 0.85199997E+02  0.50083E+06
 0.85249992E+02  0.55390E+06
 0.85299995E+02  0.56202E+06
 0.85349998E+02  0.52577E+06
 0.85399994E+02  0.45374E+06
 0.85449997E+02  0.35270E+06
 0.85499992E+02  0.24017E+06
 0.85549995E+02  0.13394E+06
 0.85599998E+02  0.45928E+05
 0.85649994E+02 -0.14878E+05
 0.85699997E+02 -0.54587E+05
 0.85749992E+02 -0.77394E+05
 0.85799995E+02 -0.84458E+05
 0.85849998E+02 -0.87690E+05
 0.85899994E+02 -0.98836E+05
 0.85949997E+02 -0.11786E+06
 0.85999992E+02 -0.13960E+06
 0.86049995E+02 -0.16404E+06
 0.86099998E+02 -0.18286E+06
 0.86149994E+02 -0.18633E+06
 0.86199997E+02 -0.17896E+06
 0.86249992E+02 -0.16849E+06
 0.86299995E+02 -0.16210E+06
 0.86349998E+02 -0.16103E+06
 0.86399994E+02 -0.15901E+06
 0.86449997E+02 -0.15431E+06
 0.86499992E+02 -0.14892E+06
 0.86549995E+02 -0.14426E+06
 0.86599998E+02 -0.14057E+06
 0.86649994E+02 -0.13882E+06
 0.86699997E+02 -0.13534E+06
 0.86749992E+02 -0.12724E+06
 0.86799995E+02 -0.12173E+06
 0.86849998E+02 -0.12070E+06
 0.86899994E+02 -0.12321E+06
 0.86949997E+02 -0.12937E+06
 0.86999992E+02 -0.13870E+06
 0.87049995E+02 -0.14256E+06
 0.87099998E+02 -0.13360E+06
 0.87149994E+02 -0.11916E+06
 0.87199997E+02 -0.10361E+06
 0.87249992E+02 -0.83071E+05
 0.87299995E+02 -0.50035E+05
 0.87349998E+02 -0.13133E+05
 0.87399994E+02  0.13833E+05
 0.87449997E+02  0.34212E+05
 0.87499992E+02  0.53619E+05
 0.87549995E+02  0.70267E+05
 0.87599991E+02  0.81405E+05
 0.87649994E+02  0.91588E+05
 0.87699997E+02  0.10694E+06
 0.87749992E+02  0.13070E+06
 0.87799995E+02  0.15823E+06
 0.87849991E+02  0.17843E+06
 0.87899994E+02  0.18637E+06
 0.87949997E+02  0.18205E+06
 0.87999992E+02  0.15870E+06
 0.88049995E+02  0.11124E+06
 0.88099991E+02  0.48758E+05
 0.88149994E+02 -0.17536E+05
 0.88199997E+02 -0.79934E+05
 0.88249992E+02 -0.13023E+06
 0.88299995E+02 -0.16561E+06
 0.88349991E+02 -0.19570E+06
 0.88399994E+02 -0.22956E+06
 0.88449997E+02 -0.26266E+06
 0.88499992E+02 -0.28582E+06
 0.88549995E+02 -0.29567E+06
 0.88599991E+02 -0.30085E+06
 0.88649994E+02 -0.31092E+06
 0.88699997E+02 -0.32492E+06
 0.88749992E+02 -0.34457E+06
 0.88799995E+02 -0.37081E+06
 0.88849991E+02 -0.39876E+06
 0.88899994E+02 -0.42439E+06
 0.88949997E+02 -0.43931E+06
 0.88999992E+02 -0.43905E+06
 0.89049995E+02 -0.42824E+06
 0.89099991E+02 -0.41320E+06
 0.89149994E+02 -0.39612E+06
 0.89199997E+02 -0.36952E+06
 0.89249992E+02 -0.33240E+06
 0.89299995E+02 -0.29212E+06
 0.89349991E+02 -0.25174E+06
 0.89399994E+02 -0.21599E+06
 0.89449997E+02 -0.18164E+06
 0.89499992E+02 -0.13762E+06
 0.89549995E+02 -0.77955E+05
 0.89599991E+02 -0.67192E+04
 0.89649994E+02  0.66308E+05
 0.89699997E+02  0.13316E+06
 0.89749992E+02  0.18620E+06
 0.89799995E+02  0.22585E+06
 0.89849991E+02  0.25277E+06
 0.89899994E+02  0.26712E+06
 0.89949997E+02  0.27220E+06
 0.89999992E+02  0.26775E+06
 0.90049995E+02  0.26193E+06
 0.90099991E+02  0.27051E+06
 0.90149994E+02  0.30006E+06
 0.90199997E+02  0.34465E+06
 0.90249992E+02  0.39616E+06
 0.90299995E+02  0.44289E+06
 0.90349991E+02  0.47080E+06
 0.90399994E+02  0.47691E+06
 0.90449997E+02  0.46302E+06
 0.90499992E+02  0.42722E+06
 0.90549995E+02  0.37864E+06
 0.90599991E+02  0.33146E+06
 0.90649994E+02  0.28758E+06
 0.90699997E+02  0.24062E+06
 0.90749992E+02  0.18259E+06
 0.90799995E+02  0.10925E+06
 0.90849991E+02  0.25179E+05
 0.90899994E+02 -0.68224E+05
 0.90949997E+02 -0.17337E+06
 0.90999992E+02 -0.28764E+06
 0.91049995E+02 -0.40192E+06
 0.91099991E+02 -0.49583E+06
 0.91149994E+02 -0.55205E+06
 0.91199997E+02 -0.56149E+06
 0.91249992E+02 -0.53039E+06
 0.91299995E+02 -0.47453E+06
 0.91349991E+02 -0.40297E+06
 0.91399994E+02 -0.32255E+06
 0.91449997E+02 -0.23527E+06
 0.91499992E+02 -0.14587E+06
 0.91549995E+02 -0.60243E+05
 0.91599991E+02  0.13131E+05
 0.91649994E+02  0.63292E+05
 0.91699997E+02  0.85710E+05
 0.91749992E+02  0.89780E+05
 0.91799995E+02  0.95817E+05
 0.91849991E+02  0.10940E+06
 0.91899994E+02  0.12451E+06
 0.91949997E+02  0.13975E+06
 0.91999992E+02  0.15375E+06
 0.92049995E+02  0.16488E+06
 0.92099991E+02  0.18178E+06
 0.92149994E+02  0.21541E+06
 0.92199997E+02  0.26628E+06
 0.92249992E+02  0.32039E+06
 0.92299995E+02  0.36972E+06
 0.92349991E+02  0.41661E+06
 0.92399994E+02  0.45382E+06
 0.92449997E+02  0.47318E+06
 0.92499992E+02  0.47667E+06
 0.92549995E+02  0.46594E+06
 0.92599991E+02  0.43692E+06
 0.92649994E+02  0.38806E+06
 0.92699997E+02  0.32394E+06
 0.92749992E+02  0.25290E+06
 0.92799995E+02  0.18021E+06
 0.92849991E+02  0.11310E+06
 0.92899994E+02  0.59657E+05
 0.92949997E+02  0.20584E+05
 0.92999992E+02 -0.91462E+04
 0.93049995E+02 -0.32387E+05
 0.93099991E+02 -0.50292E+05
 0.93149994E+02 -0.63498E+05
 0.93199997E+02 -0.73685E+05
 0.93249992E+02 -0.87889E+05
 0.93299995E+02 -0.11396E+06
 0.93349991E+02 -0.15319E+06
 0.93399994E+02 -0.19329E+06
 0.93449997E+02 -0.22563E+06
 0.93499992E+02 -0.24738E+06
 0.93549995E+02 -0.26190E+06
 0.93599991E+02 -0.27852E+06
 0.93649994E+02 -0.28952E+06
 0.93699997E+02 -0.28414E+06
 0.93749992E+02 -0.26336E+06
 0.93799995E+02 -0.23857E+06
 0.93849991E+02 -0.22211E+06
 0.93899994E+02 -0.22157E+06
 0.93949997E+02 -0.24006E+06
 0.93999992E+02 -0.27522E+06
 0.94049995E+02 -0.31618E+06
 0.94099991E+02 -0.34684E+06
 0.94149994E+02 -0.36355E+06
 0.94199997E+02 -0.37010E+06
 0.94249992E+02 -0.37110E+06
 0.94299995E+02 -0.37341E+06
 0.94349991E+02 -0.38417E+06
 0.94399994E+02 -0.39599E+06
 0.94449997E+02 -0.39446E+06
 0.94499992E+02 -0.37315E+06
 0.94549995E+02 -0.33274E+06
 0.94599991E+02 -0.27657E+06
 0.94649994E+02 -0.20800E+06
 0.94699997E+02 -0.13748E+06
 0.94749992E+02 -0.74155E+05
 0.94799995E+02 -0.20872E+05
 0.94849991E+02  0.22091E+05
 0.94899994E+02  0.50978E+05
 0.94949997E+02  0.61749E+05
 0.94999992E+02  0.53603E+05
 0.95049995E+02  0.31717E+05
 0.95099991E+02  0.96539E+04
 0.95149994E+02 -0.17656E+04
 0.95199997E+02 -0.54496E+03
 0.95249992E+02  0.74717E+04
 0.95299995E+02  0.18887E+05
 0.95349991E+02  0.30854E+05
 0.95399994E+02  0.39394E+05
 0.95449997E+02  0.42354E+05
 0.95499992E+02  0.39020E+05
 0.95549995E+02  0.30897E+05
 0.95599991E+02  0.20214E+05
 0.95649994E+02  0.11232E+05
 0.95699997E+02  0.22241E+04
 0.95749992E+02 -0.74137E+04
 0.95799995E+02 -0.16158E+05
 0.95849991E+02 -0.21403E+05
 0.95899994E+02 -0.23134E+05
 0.95949997E+02 -0.25230E+05
 0.95999992E+02 -0.29519E+05
 0.96049995E+02 -0.34507E+05
 0.96099991E+02 -0.30798E+05
 0.96149994E+02 -0.23400E+05
 0.96199997E+02 -0.28362E+05
 0.96249992E+02 -0.49527E+05
 0.96299995E+02 -0.78992E+05
 0.96349991E+02 -0.10281E+06
 0.96399994E+02 -0.11113E+06
 0.96449997E+02 -0.10402E+06
 0.96499992E+02 -0.84892E+05
 0.96549995E+02 -0.54707E+05
 0.96599991E+02 -0.13250E+05
 0.96649994E+02  0.32773E+05
 0.96699997E+02  0.75263E+05
 0.96749992E+02  0.11801E+06
 0.96799995E+02  0.16408E+06
 0.96849991E+02  0.21082E+06
 0.96899994E+02  0.25620E+06
 0.96949997E+02  0.30305E+06
 0.96999992E+02  0.35159E+06
 0.97049995E+02  0.39233E+06
 0.97099991E+02  0.41645E+06
 0.97149994E+02  0.42509E+06
 0.97199997E+02  0.41875E+06
 0.97249992E+02  0.39663E+06
 0.97299995E+02  0.36646E+06
 0.97349991E+02  0.33200E+06
 0.97399994E+02  0.30056E+06
 0.97449997E+02  0.27636E+06
 0.97499992E+02  0.25375E+06
 0.97549995E+02  0.22756E+06
 0.97599991E+02  0.19501E+06
 0.97649994E+02  0.15875E+06
 0.97699997E+02  0.12261E+06
 0.97749992E+02  0.90194E+05
 0.97799995E+02  0.62398E+05
 0.97849991E+02  0.35522E+05
 0.97899994E+02  0.54360E+04
 0.97949997E+02 -0.27809E+05
 0.97999992E+02 -0.60395E+05
