-0.20000000E+01 -0.37267E+05
-0.19500000E+01 -0.37072E+05
-0.19000000E+01 -0.37270E+05
-0.18500000E+01 -0.37342E+05
-0.18000000E+01 -0.37479E+05
-0.17500000E+01 -0.37587E+05
-0.17000000E+01 -0.37663E+05
-0.16500001E+01 -0.37709E+05
-0.16000000E+01 -0.37759E+05
-0.15500000E+01 -0.37807E+05
-0.15000000E+01 -0.37850E+05
-0.14500000E+01 -0.37916E+05
-0.14000001E+01 -0.37896E+05
-0.13500000E+01 -0.37843E+05
-0.13000001E+01 -0.37773E+05
-0.12500000E+01 -0.37730E+05
-0.12000000E+01 -0.37672E+05
-0.11500001E+01 -0.37625E+05
-0.11000000E+01 -0.37582E+05
-0.10500001E+01 -0.37529E+05
-0.10000000E+01 -0.37535E+05
-0.95000005E+00 -0.37542E+05
-0.90000010E+00 -0.37574E+05
-0.85000002E+00 -0.37635E+05
-0.80000007E+00 -0.37710E+05
-0.75000012E+00 -0.37784E+05
-0.70000005E+00 -0.37848E+05
-0.65000010E+00 -0.37893E+05
-0.60000014E+00 -0.37933E+05
-0.55000007E+00 -0.37962E+05
-0.50000012E+00 -0.37960E+05
-0.45000005E+00 -0.37953E+05
-0.40000010E+00 -0.37898E+05
-0.35000014E+00 -0.37853E+05
-0.30000007E+00 -0.37808E+05
-0.25000012E+00 -0.37759E+05
-0.20000005E+00 -0.37714E+05
-0.15000010E+00 -0.37649E+05
-0.10000014E+00 -0.37603E+05
-0.50000072E-01 -0.37550E+05
-0.11920929E-06 -0.37513E+05
 0.49999952E-01 -0.37474E+05
 0.99999905E-01 -0.37451E+05
 0.14999986E+00 -0.37429E+05
 0.19999981E+00 -0.37410E+05
 0.24999976E+00 -0.37401E+05
 0.29999995E+00 -0.37414E+05
 0.34999990E+00 -0.37405E+05
 0.39999986E+00 -0.37403E+05
 0.44999981E+00 -0.37421E+05
 0.49999976E+00 -0.37437E+05
 0.54999995E+00 -0.37465E+05
 0.59999990E+00 -0.37480E+05
 0.64999986E+00 -0.37500E+05
 0.69999981E+00 -0.37491E+05
 0.74999976E+00 -0.37503E+05
 0.79999971E+00 -0.37497E+05
 0.84999990E+00 -0.37485E+05
 0.89999986E+00 -0.37504E+05
 0.94999981E+00 -0.37532E+05
 0.99999976E+00 -0.37547E+05
 0.10499997E+01 -0.37552E+05
 0.10999999E+01 -0.37577E+05
 0.11499999E+01 -0.37596E+05
 0.11999998E+01 -0.37610E+05
 0.12499998E+01 -0.37645E+05
 0.12999997E+01 -0.37696E+05
 0.13499999E+01 -0.37729E+05
 0.13999999E+01 -0.37777E+05
 0.14499998E+01 -0.37827E+05
 0.14999998E+01 -0.37855E+05
 0.15499997E+01 -0.37849E+05
 0.15999999E+01 -0.37864E+05
 0.16499999E+01 -0.37888E+05
 0.16999998E+01 -0.37879E+05
 0.17499998E+01 -0.37870E+05
 0.17999997E+01 -0.37868E+05
 0.18499997E+01 -0.37897E+05
 0.18999999E+01 -0.37928E+05
 0.19499998E+01 -0.37938E+05
 0.19999998E+01 -0.37925E+05
 0.20499997E+01 -0.37917E+05
 0.20999999E+01 -0.37926E+05
 0.21499996E+01 -0.37927E+05
 0.21999998E+01 -0.37909E+05
 0.22499995E+01 -0.37873E+05
 0.22999997E+01 -0.37821E+05
 0.23499999E+01 -0.37764E+05
 0.23999996E+01 -0.37712E+05
 0.24499998E+01 -0.37663E+05
 0.24999995E+01 -0.37629E+05
 0.25499997E+01 -0.37605E+05
 0.25999999E+01 -0.37552E+05
 0.26499996E+01 -0.37545E+05
 0.26999998E+01 -0.37556E+05
 0.27499995E+01 -0.37550E+05
 0.27999997E+01 -0.37531E+05
 0.28499999E+01 -0.37506E+05
 0.28999996E+01 -0.37485E+05
 0.29499998E+01 -0.37438E+05
 0.29999995E+01 -0.37407E+05
 0.30499997E+01 -0.37378E+05
 0.30999999E+01 -0.37345E+05
 0.31499996E+01 -0.37330E+05
 0.31999998E+01 -0.37305E+05
 0.32499995E+01 -0.37272E+05
 0.32999997E+01 -0.37240E+05
 0.33499999E+01 -0.37242E+05
 0.33999996E+01 -0.37261E+05
 0.34499998E+01 -0.37306E+05
 0.34999995E+01 -0.37356E+05
 0.35499997E+01 -0.37409E+05
 0.35999994E+01 -0.37460E+05
 0.36499996E+01 -0.37518E+05
 0.36999998E+01 -0.37578E+05
 0.37499995E+01 -0.37624E+05
 0.37999997E+01 -0.37689E+05
 0.38499994E+01 -0.37733E+05
 0.38999996E+01 -0.37776E+05
 0.39499998E+01 -0.37789E+05
 0.39999995E+01 -0.37773E+05
 0.40499997E+01 -0.37773E+05
 0.40999994E+01 -0.37758E+05
 0.41499996E+01 -0.37733E+05
 0.41999998E+01 -0.37717E+05
 0.42499995E+01 -0.37682E+05
 0.42999997E+01 -0.37650E+05
 0.43499994E+01 -0.37619E+05
 0.43999996E+01 -0.37598E+05
 0.44499998E+01 -0.37564E+05
 0.44999995E+01 -0.37537E+05
 0.45499997E+01 -0.37540E+05
 0.45999994E+01 -0.37566E+05
 0.46499996E+01 -0.37607E+05
 0.46999998E+01 -0.37681E+05
 0.47499995E+01 -0.37730E+05
 0.47999997E+01 -0.37770E+05
 0.48499994E+01 -0.37813E+05
 0.48999996E+01 -0.37807E+05
 0.49499998E+01 -0.37832E+05
 0.49999995E+01 -0.37852E+05
 0.50499997E+01 -0.37861E+05
 0.50999994E+01 -0.37854E+05
 0.51499996E+01 -0.37854E+05
 0.51999998E+01 -0.37874E+05
 0.52499995E+01 -0.37890E+05
 0.52999997E+01 -0.37892E+05
 0.53499994E+01 -0.37867E+05
 0.53999996E+01 -0.37844E+05
 0.54499993E+01 -0.37829E+05
 0.54999995E+01 -0.37805E+05
 0.55499997E+01 -0.37772E+05
 0.55999994E+01 -0.37736E+05
 0.56499996E+01 -0.37683E+05
 0.56999993E+01 -0.37609E+05
 0.57499995E+01 -0.37563E+05
 0.57999997E+01 -0.37513E+05
 0.58499994E+01 -0.37460E+05
 0.58999996E+01 -0.37421E+05
 0.59499993E+01 -0.37360E+05
 0.59999995E+01 -0.37326E+05
 0.60499992E+01 -0.37340E+05
 0.60999994E+01 -0.37379E+05
 0.61499996E+01 -0.37448E+05
 0.61999998E+01 -0.37498E+05
 0.62499990E+01 -0.37541E+05
 0.62999992E+01 -0.37541E+05
 0.63499994E+01 -0.37564E+05
 0.63999996E+01 -0.37603E+05
 0.64499998E+01 -0.37637E+05
 0.64999990E+01 -0.37679E+05
 0.65499992E+01 -0.37685E+05
 0.65999994E+01 -0.37723E+05
 0.66499996E+01 -0.37765E+05
 0.66999998E+01 -0.37837E+05
 0.67499990E+01 -0.37903E+05
 0.67999992E+01 -0.37968E+05
 0.68499994E+01 -0.37991E+05
 0.68999996E+01 -0.37983E+05
 0.69499998E+01 -0.37970E+05
 0.69999990E+01 -0.37945E+05
 0.70499992E+01 -0.37868E+05
 0.70999994E+01 -0.37763E+05
 0.71499996E+01 -0.37660E+05
 0.71999998E+01 -0.37553E+05
 0.72499990E+01 -0.37460E+05
 0.72999992E+01 -0.37362E+05
 0.73499994E+01 -0.37308E+05
 0.73999996E+01 -0.37230E+05
 0.74499998E+01 -0.37193E+05
 0.74999990E+01 -0.37148E+05
 0.75499992E+01 -0.37152E+05
 0.75999994E+01 -0.37171E+05
 0.76499996E+01 -0.37188E+05
 0.76999998E+01 -0.37242E+05
 0.77499990E+01 -0.37244E+05
 0.77999992E+01 -0.37309E+05
 0.78499994E+01 -0.37331E+05
 0.78999996E+01 -0.37392E+05
 0.79499998E+01 -0.37448E+05
 0.79999990E+01 -0.37513E+05
 0.80499992E+01 -0.37597E+05
 0.80999994E+01 -0.37647E+05
 0.81499996E+01 -0.37734E+05
 0.81999998E+01 -0.37779E+05
 0.82499990E+01 -0.37847E+05
 0.82999992E+01 -0.37852E+05
 0.83499994E+01 -0.37847E+05
 0.83999996E+01 -0.37821E+05
 0.84499998E+01 -0.37789E+05
 0.84999990E+01 -0.37808E+05
 0.85499992E+01 -0.37806E+05
 0.85999994E+01 -0.37817E+05
 0.86499996E+01 -0.37811E+05
 0.86999998E+01 -0.37792E+05
 0.87499990E+01 -0.37777E+05
 0.87999992E+01 -0.37752E+05
 0.88499994E+01 -0.37743E+05
 0.88999996E+01 -0.37727E+05
 0.89499998E+01 -0.37738E+05
 0.89999990E+01 -0.37739E+05
 0.90499992E+01 -0.37726E+05
 0.90999994E+01 -0.37740E+05
 0.91499996E+01 -0.37769E+05
 0.91999989E+01 -0.37799E+05
 0.92499990E+01 -0.37809E+05
 0.92999992E+01 -0.37839E+05
 0.93499994E+01 -0.37846E+05
 0.93999996E+01 -0.37852E+05
 0.94499989E+01 -0.37854E+05
 0.94999990E+01 -0.37860E+05
 0.95499992E+01 -0.37879E+05
 0.95999994E+01 -0.37840E+05
 0.96499996E+01 -0.37781E+05
 0.96999989E+01 -0.37730E+05
 0.97499990E+01 -0.37682E+05
 0.97999992E+01 -0.37660E+05
 0.98499994E+01 -0.37624E+05
 0.98999996E+01 -0.37583E+05
 0.99499989E+01 -0.37568E+05
 0.99999990E+01 -0.37547E+05
 0.10049999E+02 -0.37524E+05
 0.10099999E+02 -0.37519E+05
 0.10150000E+02 -0.37545E+05
 0.10199999E+02 -0.37533E+05
 0.10249999E+02 -0.37494E+05
 0.10299999E+02 -0.37490E+05
 0.10349999E+02 -0.37484E+05
 0.10400000E+02 -0.37517E+05
 0.10449999E+02 -0.37551E+05
 0.10499999E+02 -0.37595E+05
 0.10549999E+02 -0.37647E+05
 0.10599999E+02 -0.37663E+05
 0.10650000E+02 -0.37663E+05
 0.10699999E+02 -0.37668E+05
 0.10749999E+02 -0.37708E+05
 0.10799999E+02 -0.37737E+05
 0.10849999E+02 -0.37744E+05
 0.10900000E+02 -0.37756E+05
 0.10949999E+02 -0.37750E+05
 0.10999999E+02 -0.37735E+05
 0.11049999E+02 -0.37709E+05
 0.11099999E+02 -0.37657E+05
 0.11150000E+02 -0.37598E+05
 0.11199999E+02 -0.37529E+05
 0.11249999E+02 -0.37449E+05
 0.11299999E+02 -0.37397E+05
 0.11349999E+02 -0.37326E+05
 0.11400000E+02 -0.37276E+05
 0.11449999E+02 -0.37241E+05
 0.11499999E+02 -0.37205E+05
 0.11549999E+02 -0.37217E+05
 0.11599999E+02 -0.37238E+05
 0.11650000E+02 -0.37320E+05
 0.11699999E+02 -0.37393E+05
 0.11749999E+02 -0.37468E+05
 0.11799999E+02 -0.37546E+05
 0.11849999E+02 -0.37601E+05
 0.11900000E+02 -0.37695E+05
 0.11949999E+02 -0.37784E+05
 0.11999999E+02 -0.37885E+05
 0.12049999E+02 -0.37962E+05
 0.12099999E+02 -0.37998E+05
 0.12150000E+02 -0.38002E+05
 0.12199999E+02 -0.37977E+05
 0.12249999E+02 -0.37936E+05
 0.12299999E+02 -0.37874E+05
 0.12349999E+02 -0.37792E+05
 0.12400000E+02 -0.37696E+05
 0.12449999E+02 -0.37615E+05
 0.12499999E+02 -0.37544E+05
 0.12549999E+02 -0.37487E+05
 0.12599999E+02 -0.37434E+05
 0.12649999E+02 -0.37388E+05
 0.12699999E+02 -0.37372E+05
 0.12749999E+02 -0.37381E+05
 0.12799999E+02 -0.37388E+05
 0.12849999E+02 -0.37423E+05
 0.12899999E+02 -0.37459E+05
 0.12949999E+02 -0.37515E+05
 0.12999999E+02 -0.37569E+05
 0.13049999E+02 -0.37617E+05
 0.13099999E+02 -0.37653E+05
 0.13149999E+02 -0.37687E+05
 0.13199999E+02 -0.37736E+05
 0.13249999E+02 -0.37755E+05
 0.13299999E+02 -0.37781E+05
 0.13349999E+02 -0.37788E+05
 0.13399999E+02 -0.37812E+05
 0.13449999E+02 -0.37842E+05
 0.13499999E+02 -0.37881E+05
 0.13549999E+02 -0.37904E+05
 0.13599999E+02 -0.37912E+05
 0.13649999E+02 -0.37936E+05
 0.13699999E+02 -0.37936E+05
 0.13749999E+02 -0.37925E+05
 0.13799999E+02 -0.37885E+05
 0.13849999E+02 -0.37820E+05
 0.13899999E+02 -0.37738E+05
 0.13949999E+02 -0.37683E+05
 0.13999999E+02 -0.37621E+05
 0.14049999E+02 -0.37572E+05
 0.14099998E+02 -0.37548E+05
 0.14150000E+02 -0.37534E+05
 0.14199999E+02 -0.37525E+05
 0.14249998E+02 -0.37535E+05
 0.14299999E+02 -0.37554E+05
 0.14349998E+02 -0.37590E+05
 0.14400000E+02 -0.37647E+05
 0.14449999E+02 -0.37681E+05
 0.14499998E+02 -0.37706E+05
 0.14549999E+02 -0.37724E+05
 0.14599998E+02 -0.37753E+05
 0.14650000E+02 -0.37755E+05
 0.14699999E+02 -0.37761E+05
 0.14749998E+02 -0.37750E+05
 0.14799999E+02 -0.37727E+05
 0.14849998E+02 -0.37689E+05
 0.14900000E+02 -0.37656E+05
 0.14949999E+02 -0.37634E+05
 0.14999998E+02 -0.37567E+05
 0.15049999E+02 -0.37510E+05
 0.15099998E+02 -0.37440E+05
 0.15150000E+02 -0.37408E+05
 0.15199999E+02 -0.37391E+05
 0.15249998E+02 -0.37405E+05
 0.15299999E+02 -0.37411E+05
 0.15349998E+02 -0.37404E+05
 0.15400000E+02 -0.37398E+05
 0.15449999E+02 -0.37403E+05
 0.15499998E+02 -0.37459E+05
 0.15549999E+02 -0.37461E+05
 0.15599998E+02 -0.37474E+05
 0.15650000E+02 -0.37490E+05
 0.15699999E+02 -0.37500E+05
 0.15749998E+02 -0.37522E+05
 0.15799999E+02 -0.37540E+05
 0.15849998E+02 -0.37555E+05
 0.15900000E+02 -0.37571E+05
 0.15949999E+02 -0.37589E+05
 0.15999998E+02 -0.37595E+05
 0.16049999E+02 -0.37614E+05
 0.16099998E+02 -0.37640E+05
 0.16150000E+02 -0.37667E+05
 0.16199999E+02 -0.37684E+05
 0.16249998E+02 -0.37690E+05
 0.16299999E+02 -0.37704E+05
 0.16349998E+02 -0.37728E+05
 0.16400000E+02 -0.37773E+05
 0.16449999E+02 -0.37806E+05
 0.16499998E+02 -0.37820E+05
 0.16549999E+02 -0.37832E+05
 0.16599998E+02 -0.37801E+05
 0.16650000E+02 -0.37752E+05
 0.16699999E+02 -0.37727E+05
 0.16749998E+02 -0.37694E+05
 0.16799999E+02 -0.37671E+05
 0.16849998E+02 -0.37652E+05
 0.16900000E+02 -0.37641E+05
 0.16949999E+02 -0.37657E+05
 0.16999998E+02 -0.37657E+05
 0.17049999E+02 -0.37649E+05
 0.17099998E+02 -0.37654E+05
 0.17150000E+02 -0.37655E+05
 0.17199999E+02 -0.37655E+05
 0.17249998E+02 -0.37691E+05
 0.17299999E+02 -0.37733E+05
 0.17349998E+02 -0.37767E+05
 0.17400000E+02 -0.37792E+05
 0.17449999E+02 -0.37799E+05
 0.17499998E+02 -0.37789E+05
 0.17549999E+02 -0.37772E+05
 0.17599998E+02 -0.37747E+05
 0.17650000E+02 -0.37694E+05
 0.17699999E+02 -0.37640E+05
 0.17749998E+02 -0.37605E+05
 0.17799999E+02 -0.37589E+05
 0.17849998E+02 -0.37572E+05
 0.17900000E+02 -0.37565E+05
 0.17949999E+02 -0.37566E+05
 0.17999998E+02 -0.37558E+05
 0.18049999E+02 -0.37568E+05
 0.18099998E+02 -0.37587E+05
 0.18150000E+02 -0.37612E+05
 0.18199999E+02 -0.37643E+05
 0.18249998E+02 -0.37670E+05
 0.18299999E+02 -0.37707E+05
 0.18349998E+02 -0.37745E+05
 0.18400000E+02 -0.37757E+05
 0.18449999E+02 -0.37756E+05
 0.18499998E+02 -0.37751E+05
 0.18549999E+02 -0.37741E+05
 0.18599998E+02 -0.37726E+05
 0.18650000E+02 -0.37686E+05
 0.18699999E+02 -0.37666E+05
 0.18749998E+02 -0.37628E+05
 0.18799999E+02 -0.37595E+05
 0.18849998E+02 -0.37567E+05
 0.18900000E+02 -0.37536E+05
 0.18949999E+02 -0.37515E+05
 0.18999998E+02 -0.37482E+05
 0.19049999E+02 -0.37467E+05
 0.19099998E+02 -0.37443E+05
 0.19150000E+02 -0.37452E+05
 0.19199999E+02 -0.37456E+05
 0.19249998E+02 -0.37450E+05
 0.19299999E+02 -0.37464E+05
 0.19349998E+02 -0.37483E+05
 0.19400000E+02 -0.37505E+05
 0.19449999E+02 -0.37552E+05
 0.19499998E+02 -0.37584E+05
 0.19549999E+02 -0.37601E+05
 0.19599998E+02 -0.37619E+05
 0.19650000E+02 -0.37626E+05
 0.19699999E+02 -0.37645E+05
 0.19749998E+02 -0.37647E+05
 0.19799999E+02 -0.37662E+05
 0.19849998E+02 -0.37662E+05
 0.19900000E+02 -0.37654E+05
 0.19949999E+02 -0.37638E+05
 0.19999998E+02 -0.37604E+05
 0.20049999E+02 -0.37578E+05
 0.20099998E+02 -0.37575E+05
 0.20150000E+02 -0.37592E+05
 0.20199999E+02 -0.37598E+05
 0.20249998E+02 -0.37625E+05
 0.20299999E+02 -0.37660E+05
 0.20349998E+02 -0.37682E+05
 0.20399998E+02 -0.37710E+05
 0.20449999E+02 -0.37732E+05
 0.20499998E+02 -0.37754E+05
 0.20549999E+02 -0.37775E+05
 0.20599998E+02 -0.37805E+05
 0.20649998E+02 -0.37808E+05
 0.20699999E+02 -0.37806E+05
 0.20749998E+02 -0.37794E+05
 0.20799999E+02 -0.37753E+05
 0.20849998E+02 -0.37729E+05
 0.20899998E+02 -0.37719E+05
 0.20949999E+02 -0.37712E+05
 0.20999998E+02 -0.37669E+05
 0.21049999E+02 -0.37634E+05
 0.21099998E+02 -0.37598E+05
 0.21149998E+02 -0.37551E+05
 0.21199999E+02 -0.37545E+05
 0.21249998E+02 -0.37531E+05
 0.21299999E+02 -0.37533E+05
 0.21349998E+02 -0.37550E+05
 0.21399998E+02 -0.37568E+05
 0.21449999E+02 -0.37515E+05
 0.21499998E+02 -0.37539E+05
 0.21549999E+02 -0.37510E+05
 0.21599998E+02 -0.37536E+05
 0.21649998E+02 -0.37487E+05
 0.21699999E+02 -0.37581E+05
 0.21749998E+02 -0.37628E+05
 0.21799999E+02 -0.37557E+05
 0.21849998E+02 -0.37750E+05
 0.21899998E+02 -0.37635E+05
 0.21949999E+02 -0.37800E+05
 0.21999998E+02 -0.37789E+05
 0.22049999E+02 -0.37603E+05
 0.22099998E+02 -0.38082E+05
 0.22149998E+02 -0.37841E+05
 0.22199999E+02 -0.37590E+05
 0.22249998E+02 -0.38155E+05
 0.22299999E+02 -0.37708E+05
 0.22349998E+02 -0.37960E+05
 0.22399998E+02 -0.37858E+05
 0.22449999E+02 -0.37451E+05
 0.22499998E+02 -0.38010E+05
 0.22549999E+02 -0.37531E+05
 0.22599998E+02 -0.37489E+05
 0.22649998E+02 -0.37667E+05
 0.22699999E+02 -0.37996E+05
 0.22749998E+02 -0.37265E+05
 0.22799999E+02 -0.37280E+05
 0.22849998E+02 -0.37614E+05
 0.22899998E+02 -0.37232E+05
 0.22949999E+02 -0.37611E+05
 0.22999998E+02 -0.37214E+05
 0.23049999E+02 -0.37385E+05
 0.23099998E+02 -0.36951E+05
 0.23149998E+02 -0.37913E+05
 0.23199999E+02 -0.36841E+05
 0.23249998E+02 -0.37385E+05
 0.23299999E+02 -0.38612E+05
 0.23349998E+02 -0.36849E+05
 0.23399998E+02 -0.38470E+05
 0.23449999E+02 -0.37301E+05
 0.23499998E+02 -0.37394E+05
 0.23549999E+02 -0.37624E+05
 0.23599998E+02 -0.37170E+05
 0.23649998E+02 -0.38614E+05
 0.23699999E+02 -0.38273E+05
 0.23749998E+02 -0.38132E+05
 0.23799999E+02 -0.36986E+05
 0.23849998E+02 -0.37375E+05
 0.23899998E+02 -0.39117E+05
 0.23949999E+02 -0.37064E+05
 0.23999998E+02 -0.37716E+05
 0.24049999E+02 -0.38887E+05
 0.24099998E+02 -0.36895E+05
 0.24149998E+02 -0.37299E+05
 0.24199999E+02 -0.36943E+05
 0.24249998E+02 -0.38764E+05
 0.24299999E+02 -0.38472E+05
 0.24349998E+02 -0.37126E+05
 0.24399998E+02 -0.37599E+05
 0.24449999E+02 -0.37791E+05
 0.24499998E+02 -0.39586E+05
 0.24549999E+02 -0.35911E+05
 0.24599998E+02 -0.35582E+05
 0.24649998E+02 -0.37417E+05
 0.24699999E+02 -0.36598E+05
 0.24749998E+02 -0.38599E+05
 0.24799999E+02 -0.37830E+05
 0.24849998E+02 -0.36591E+05
 0.24899998E+02 -0.37594E+05
 0.24949999E+02 -0.38113E+05
 0.24999998E+02 -0.37807E+05
 0.25049999E+02 -0.37286E+05
 0.25099998E+02 -0.36199E+05
 0.25149998E+02 -0.37438E+05
 0.25199999E+02 -0.37575E+05
 0.25249998E+02 -0.40056E+05
 0.25299999E+02 -0.37383E+05
 0.25349998E+02 -0.36549E+05
 0.25399998E+02 -0.37858E+05
 0.25449999E+02 -0.36971E+05
 0.25499998E+02 -0.40440E+05
 0.25549999E+02 -0.39287E+05
 0.25599998E+02 -0.35827E+05
 0.25649998E+02 -0.36872E+05
 0.25699999E+02 -0.39968E+05
 0.25749998E+02 -0.35572E+05
 0.25799999E+02 -0.39567E+05
 0.25849998E+02 -0.37942E+05
 0.25899998E+02 -0.38561E+05
 0.25949999E+02 -0.38355E+05
 0.25999998E+02 -0.35975E+05
 0.26049999E+02 -0.38896E+05
 0.26099998E+02 -0.35999E+05
 0.26149998E+02 -0.39244E+05
 0.26199999E+02 -0.36564E+05
 0.26249998E+02 -0.37268E+05
 0.26299999E+02 -0.39847E+05
 0.26349998E+02 -0.37639E+05
 0.26399998E+02 -0.36790E+05
 0.26449999E+02 -0.37150E+05
 0.26499998E+02 -0.37286E+05
 0.26549999E+02 -0.35363E+05
 0.26599998E+02 -0.37474E+05
 0.26649998E+02 -0.37023E+05
 0.26699999E+02 -0.37559E+05
 0.26749998E+02 -0.38722E+05
 0.26799999E+02 -0.35733E+05
 0.26849998E+02 -0.36776E+05
 0.26899998E+02 -0.37354E+05
 0.26949999E+02 -0.37367E+05
 0.26999998E+02 -0.37038E+05
 0.27049997E+02 -0.36262E+05
 0.27099998E+02 -0.37246E+05
 0.27149998E+02 -0.37810E+05
 0.27199999E+02 -0.36736E+05
 0.27249998E+02 -0.38491E+05
 0.27299997E+02 -0.39070E+05
 0.27349998E+02 -0.39601E+05
 0.27399998E+02 -0.39406E+05
 0.27449999E+02 -0.36587E+05
 0.27499998E+02 -0.35607E+05
 0.27549997E+02 -0.38118E+05
 0.27599998E+02 -0.39566E+05
 0.27649998E+02 -0.38964E+05
 0.27699999E+02 -0.40804E+05
 0.27749998E+02 -0.39183E+05
 0.27799997E+02 -0.36412E+05
 0.27849998E+02 -0.35565E+05
 0.27899998E+02 -0.37059E+05
 0.27949999E+02 -0.35448E+05
 0.27999998E+02 -0.36265E+05
 0.28049997E+02 -0.38481E+05
 0.28099998E+02 -0.40835E+05
 0.28149998E+02 -0.40364E+05
 0.28199999E+02 -0.36830E+05
 0.28249998E+02 -0.36049E+05
 0.28299997E+02 -0.38324E+05
 0.28349998E+02 -0.37840E+05
 0.28399998E+02 -0.33575E+05
 0.28449999E+02 -0.38290E+05
 0.28499998E+02 -0.39178E+05
 0.28549997E+02 -0.37080E+05
 0.28599998E+02 -0.37337E+05
 0.28649998E+02 -0.36745E+05
 0.28699999E+02 -0.41806E+05
 0.28749998E+02 -0.39005E+05
 0.28799997E+02 -0.34602E+05
 0.28849998E+02 -0.37376E+05
 0.28899998E+02 -0.39176E+05
 0.28949999E+02 -0.37259E+05
 0.28999998E+02 -0.34197E+05
 0.29049997E+02 -0.35954E+05
 0.29099998E+02 -0.35505E+05
 0.29149998E+02 -0.40038E+05
 0.29199999E+02 -0.39259E+05
 0.29249998E+02 -0.37978E+05
 0.29299997E+02 -0.37113E+05
 0.29349998E+02 -0.36261E+05
 0.29399998E+02 -0.39763E+05
 0.29449999E+02 -0.37673E+05
 0.29499998E+02 -0.38695E+05
 0.29549997E+02 -0.38807E+05
 0.29599998E+02 -0.37258E+05
 0.29649998E+02 -0.36207E+05
 0.29699999E+02 -0.39046E+05
 0.29749998E+02 -0.36477E+05
 0.29799997E+02 -0.36589E+05
 0.29849998E+02 -0.37635E+05
 0.29899998E+02 -0.35109E+05
 0.29949999E+02 -0.38223E+05
 0.29999998E+02 -0.38056E+05
 0.30049999E+02 -0.37950E+05
 0.30099998E+02 -0.38188E+05
 0.30149998E+02 -0.38322E+05
 0.30199997E+02 -0.36193E+05
 0.30249996E+02 -0.37007E+05
 0.30299999E+02 -0.37406E+05
 0.30349998E+02 -0.36119E+05
 0.30399998E+02 -0.38842E+05
 0.30449997E+02 -0.37314E+05
 0.30499996E+02 -0.41283E+05
 0.30549999E+02 -0.41687E+05
 0.30599998E+02 -0.37795E+05
 0.30649998E+02 -0.36328E+05
 0.30699997E+02 -0.37267E+05
 0.30749996E+02 -0.36990E+05
 0.30799999E+02 -0.37631E+05
 0.30849998E+02 -0.40258E+05
 0.30899998E+02 -0.35173E+05
 0.30949997E+02 -0.35168E+05
 0.30999996E+02 -0.36146E+05
 0.31049999E+02 -0.38915E+05
 0.31099998E+02 -0.37324E+05
 0.31149998E+02 -0.39240E+05
 0.31199997E+02 -0.40838E+05
 0.31249996E+02 -0.34745E+05
 0.31299999E+02 -0.33625E+05
 0.31349998E+02 -0.35870E+05
 0.31399998E+02 -0.39965E+05
 0.31449997E+02 -0.36029E+05
 0.31499996E+02 -0.37518E+05
 0.31549999E+02 -0.41277E+05
 0.31599998E+02 -0.40177E+05
 0.31649998E+02 -0.38785E+05
 0.31699997E+02 -0.33869E+05
 0.31749996E+02 -0.36158E+05
 0.31799999E+02 -0.40440E+05
 0.31849998E+02 -0.37082E+05
 0.31899998E+02 -0.35288E+05
 0.31949997E+02 -0.37972E+05
 0.31999996E+02 -0.36165E+05
 0.32049999E+02 -0.37903E+05
 0.32099998E+02 -0.39788E+05
 0.32149998E+02 -0.39349E+05
 0.32199997E+02 -0.41146E+05
 0.32249996E+02 -0.33825E+05
 0.32299999E+02 -0.34768E+05
 0.32349998E+02 -0.40269E+05
 0.32399998E+02 -0.38385E+05
 0.32449997E+02 -0.37962E+05
 0.32499996E+02 -0.37979E+05
 0.32549999E+02 -0.38322E+05
 0.32599998E+02 -0.35416E+05
 0.32649998E+02 -0.37870E+05
 0.32699997E+02 -0.41202E+05
 0.32749996E+02 -0.38277E+05
 0.32799999E+02 -0.35148E+05
 0.32849998E+02 -0.36156E+05
 0.32899998E+02 -0.36718E+05
 0.32949997E+02 -0.36475E+05
 0.32999996E+02 -0.37745E+05
 0.33049999E+02 -0.36645E+05
 0.33099998E+02 -0.38456E+05
 0.33149998E+02 -0.36335E+05
 0.33199997E+02 -0.34953E+05
 0.33249996E+02 -0.37629E+05
 0.33299999E+02 -0.43621E+05
 0.33349998E+02 -0.40741E+05
 0.33399998E+02 -0.35973E+05
 0.33449997E+02 -0.36422E+05
 0.33499996E+02 -0.35830E+05
 0.33549999E+02 -0.37250E+05
 0.33599998E+02 -0.38010E+05
 0.33649998E+02 -0.41140E+05
 0.33699997E+02 -0.37175E+05
 0.33749996E+02 -0.35636E+05
 0.33799999E+02 -0.38037E+05
 0.33849998E+02 -0.38972E+05
 0.33899998E+02 -0.38456E+05
 0.33949997E+02 -0.37644E+05
 0.33999996E+02 -0.38525E+05
 0.34049999E+02 -0.38835E+05
 0.34099998E+02 -0.40341E+05
 0.34149998E+02 -0.34378E+05
 0.34199997E+02 -0.29256E+05
 0.34249996E+02 -0.36447E+05
 0.34299999E+02 -0.36626E+05
 0.34349998E+02 -0.37236E+05
 0.34399998E+02 -0.39731E+05
 0.34449997E+02 -0.40222E+05
 0.34499996E+02 -0.40298E+05
 0.34549999E+02 -0.37909E+05
 0.34599998E+02 -0.40195E+05
 0.34649998E+02 -0.37209E+05
 0.34699997E+02 -0.38671E+05
 0.34749996E+02 -0.40701E+05
 0.34799999E+02 -0.35696E+05
 0.34849998E+02 -0.36567E+05
 0.34899998E+02 -0.36845E+05
 0.34949997E+02 -0.36914E+05
 0.34999996E+02 -0.37040E+05
 0.35049999E+02 -0.31979E+05
 0.35099998E+02 -0.35163E+05
 0.35149998E+02 -0.39167E+05
 0.35199997E+02 -0.39882E+05
 0.35249996E+02 -0.38254E+05
 0.35299999E+02 -0.37905E+05
 0.35349998E+02 -0.39139E+05
 0.35399998E+02 -0.35440E+05
 0.35449997E+02 -0.37549E+05
 0.35499996E+02 -0.40600E+05
 0.35549999E+02 -0.37895E+05
 0.35599998E+02 -0.36405E+05
 0.35649998E+02 -0.38395E+05
 0.35699997E+02 -0.38260E+05
 0.35749996E+02 -0.41010E+05
 0.35799999E+02 -0.39330E+05
 0.35849998E+02 -0.34554E+05
 0.35899998E+02 -0.36433E+05
 0.35949997E+02 -0.39993E+05
 0.35999996E+02 -0.39864E+05
 0.36049999E+02 -0.40771E+05
 0.36099998E+02 -0.42581E+05
 0.36149998E+02 -0.43550E+05
 0.36199997E+02 -0.45211E+05
 0.36249996E+02 -0.43801E+05
 0.36299999E+02 -0.37277E+05
 0.36349998E+02 -0.26790E+05
 0.36399998E+02 -0.25835E+05
 0.36449997E+02 -0.29897E+05
 0.36499996E+02 -0.41901E+05
 0.36549999E+02 -0.47786E+05
 0.36599998E+02 -0.28816E+05
 0.36649998E+02 -0.22116E+05
 0.36699997E+02 -0.44778E+05
 0.36749996E+02 -0.69212E+05
 0.36799999E+02 -0.56244E+05
 0.36849998E+02 -0.26804E+05
 0.36899998E+02 -0.26936E+05
 0.36949997E+02 -0.18920E+05
 0.36999996E+02 -0.99365E+03
 0.37049999E+02  0.42613E+04
 0.37099998E+02 -0.11724E+05
 0.37149998E+02 -0.60508E+05
 0.37199997E+02 -0.95270E+05
 0.37249996E+02 -0.65588E+05
 0.37299999E+02 -0.54933E+04
 0.37349998E+02 -0.23073E+05
 0.37399998E+02 -0.73453E+05
 0.37449997E+02 -0.91751E+05
 0.37499996E+02 -0.48418E+05
 0.37549999E+02  0.50018E+04
 0.37599998E+02 -0.34080E+04
 0.37649998E+02 -0.20500E+05
 0.37699997E+02 -0.48047E+05
 0.37749996E+02 -0.37132E+05
 0.37799999E+02 -0.27718E+05
 0.37849998E+02 -0.37549E+05
 0.37899998E+02 -0.24788E+05
 0.37949997E+02 -0.12079E+05
 0.37999996E+02 -0.53256E+05
 0.38049999E+02 -0.80370E+05
 0.38099998E+02 -0.38294E+05
 0.38149998E+02 -0.38425E+05
 0.38199997E+02 -0.65239E+05
 0.38249996E+02 -0.60923E+05
 0.38299999E+02 -0.45328E+05
 0.38349998E+02 -0.35331E+05
 0.38399998E+02 -0.13726E+05
 0.38449997E+02 -0.16897E+05
 0.38499996E+02 -0.41809E+05
 0.38549999E+02 -0.51021E+05
 0.38599998E+02 -0.27992E+05
 0.38649998E+02 -0.12161E+05
 0.38699997E+02 -0.28083E+05
 0.38749996E+02 -0.43992E+05
 0.38799999E+02 -0.35762E+05
 0.38849998E+02 -0.48874E+04
 0.38899998E+02 -0.26498E+05
 0.38949997E+02 -0.64918E+05
 0.38999996E+02 -0.71089E+05
 0.39049999E+02 -0.57255E+05
 0.39099998E+02 -0.48473E+05
 0.39149998E+02 -0.42074E+05
 0.39199997E+02 -0.32647E+05
 0.39249996E+02 -0.30438E+05
 0.39299999E+02 -0.39281E+05
 0.39349998E+02 -0.46630E+05
 0.39399998E+02 -0.12343E+05
 0.39449997E+02 -0.78960E+04
 0.39499996E+02 -0.27874E+05
 0.39549999E+02 -0.41065E+05
 0.39599998E+02 -0.36907E+05
 0.39649998E+02 -0.39538E+05
 0.39699997E+02 -0.46703E+05
 0.39749996E+02 -0.40786E+05
 0.39799999E+02 -0.46688E+05
 0.39849998E+02 -0.49556E+05
 0.39899998E+02 -0.51247E+05
 0.39949997E+02 -0.38746E+05
 0.39999996E+02 -0.27055E+05
 0.40049999E+02 -0.35214E+05
 0.40099998E+02 -0.46849E+05
 0.40149998E+02 -0.44712E+05
 0.40199997E+02 -0.34905E+05
 0.40249996E+02 -0.27930E+05
 0.40299999E+02 -0.37136E+05
 0.40349998E+02 -0.38276E+05
 0.40399998E+02 -0.27255E+05
 0.40449997E+02 -0.40252E+05
 0.40499996E+02 -0.42334E+05
 0.40549999E+02 -0.37022E+05
 0.40599998E+02 -0.48835E+05
 0.40649998E+02 -0.38837E+05
 0.40699997E+02 -0.37083E+05
 0.40749996E+02 -0.46081E+05
 0.40799999E+02 -0.35570E+05
 0.40849998E+02 -0.19147E+05
 0.40899998E+02 -0.33482E+05
 0.40949997E+02 -0.43902E+05
 0.40999996E+02 -0.28905E+05
 0.41049999E+02 -0.12661E+05
 0.41099998E+02 -0.25287E+04
 0.41149998E+02 -0.28445E+05
 0.41199997E+02 -0.61718E+05
 0.41249996E+02 -0.56937E+05
 0.41299999E+02 -0.59792E+05
 0.41349998E+02 -0.68221E+05
 0.41399998E+02 -0.38369E+05
 0.41449997E+02 -0.42437E+05
 0.41499996E+02 -0.43782E+05
 0.41549999E+02 -0.27343E+05
 0.41599998E+02 -0.40231E+05
 0.41649998E+02 -0.39337E+05
 0.41699997E+02 -0.11343E+05
 0.41749996E+02 -0.56877E+04
 0.41799999E+02 -0.22651E+05
 0.41849998E+02 -0.37241E+05
 0.41899998E+02 -0.61025E+05
 0.41949997E+02 -0.46538E+05
 0.41999996E+02 -0.40854E+05
 0.42049999E+02 -0.57868E+05
 0.42099998E+02 -0.41748E+05
 0.42149998E+02 -0.21419E+05
 0.42199997E+02 -0.16146E+05
 0.42249996E+02 -0.36610E+05
 0.42299999E+02 -0.52209E+05
 0.42349998E+02 -0.49493E+05
 0.42399998E+02 -0.46975E+05
 0.42449997E+02 -0.42673E+05
 0.42499996E+02 -0.39387E+05
 0.42549999E+02 -0.39240E+05
 0.42599998E+02 -0.20267E+05
 0.42649998E+02  0.11829E+04
 0.42699997E+02 -0.38949E+05
 0.42749996E+02 -0.59881E+05
 0.42799995E+02 -0.39129E+05
 0.42849998E+02 -0.57147E+05
 0.42899998E+02 -0.47437E+05
 0.42949997E+02 -0.95187E+04
 0.42999996E+02 -0.58512E+04
 0.43049995E+02 -0.18717E+05
 0.43099998E+02 -0.35505E+05
 0.43149998E+02 -0.47579E+05
 0.43199997E+02 -0.45617E+05
 0.43249996E+02 -0.36172E+05
 0.43299995E+02 -0.37689E+05
 0.43349998E+02 -0.37246E+05
 0.43399998E+02 -0.49936E+04
 0.43449997E+02  0.31349E+04
 0.43499996E+02 -0.22667E+05
 0.43549995E+02 -0.48530E+05
 0.43599998E+02 -0.64349E+05
 0.43649998E+02 -0.69362E+05
 0.43699997E+02 -0.47173E+05
 0.43749996E+02 -0.40341E+05
 0.43799995E+02 -0.60777E+05
 0.43849998E+02 -0.54078E+05
 0.43899998E+02 -0.47822E+05
 0.43949997E+02 -0.43417E+05
 0.43999996E+02 -0.35947E+05
 0.44049995E+02 -0.24807E+05
 0.44099998E+02 -0.18399E+05
 0.44149998E+02 -0.28033E+05
 0.44199997E+02 -0.40376E+05
 0.44249996E+02 -0.45859E+05
 0.44299995E+02 -0.46708E+05
 0.44349998E+02 -0.67835E+05
 0.44399998E+02 -0.83016E+05
 0.44449997E+02 -0.78668E+05
 0.44499996E+02 -0.58747E+05
 0.44549995E+02 -0.40171E+05
 0.44599998E+02 -0.36505E+05
 0.44649998E+02 -0.14386E+05
 0.44699997E+02 -0.60657E+04
 0.44749996E+02 -0.19479E+05
 0.44799995E+02 -0.26288E+05
 0.44849998E+02 -0.25975E+05
 0.44899998E+02 -0.29233E+05
 0.44949997E+02 -0.25512E+05
 0.44999996E+02 -0.24991E+05
 0.45049995E+02 -0.25272E+05
 0.45099998E+02 -0.23822E+05
 0.45149998E+02 -0.28675E+05
 0.45199997E+02 -0.34299E+05
 0.45249996E+02 -0.44778E+05
 0.45299995E+02 -0.36192E+05
 0.45349998E+02 -0.30150E+05
 0.45399998E+02 -0.45473E+05
 0.45449997E+02 -0.44660E+05
 0.45499996E+02 -0.28845E+05
 0.45549995E+02 -0.27952E+05
 0.45599998E+02 -0.31571E+05
 0.45649998E+02 -0.34536E+05
 0.45699997E+02 -0.38631E+05
 0.45749996E+02 -0.40480E+05
 0.45799995E+02 -0.45594E+05
 0.45849998E+02 -0.53226E+05
 0.45899998E+02 -0.56999E+05
 0.45949997E+02 -0.58112E+05
 0.45999996E+02 -0.51771E+05
 0.46049995E+02 -0.42067E+05
 0.46099998E+02 -0.42431E+05
 0.46149998E+02 -0.43936E+05
 0.46199997E+02 -0.52220E+05
 0.46249996E+02 -0.49574E+05
 0.46299995E+02 -0.42025E+05
 0.46349998E+02 -0.25370E+05
 0.46399998E+02 -0.95807E+04
 0.46449997E+02 -0.14642E+05
 0.46499996E+02 -0.21060E+05
 0.46549995E+02 -0.36362E+05
 0.46599998E+02 -0.42059E+05
 0.46649998E+02 -0.49335E+05
 0.46699997E+02 -0.53810E+05
 0.46749996E+02 -0.47671E+05
 0.46799995E+02 -0.41087E+05
 0.46849998E+02 -0.38612E+05
 0.46899998E+02 -0.45641E+05
 0.46949997E+02 -0.41356E+05
 0.46999996E+02 -0.32534E+05
 0.47049995E+02 -0.19358E+05
 0.47099998E+02 -0.13045E+05
 0.47149998E+02 -0.14912E+05
 0.47199997E+02 -0.15698E+05
 0.47249996E+02 -0.20180E+05
 0.47299995E+02 -0.24207E+05
 0.47349998E+02 -0.33134E+05
 0.47399998E+02 -0.39533E+05
 0.47449997E+02 -0.47659E+05
 0.47499996E+02 -0.56849E+05
 0.47549995E+02 -0.54138E+05
 0.47599998E+02 -0.53349E+05
 0.47649998E+02 -0.51780E+05
 0.47699997E+02 -0.45523E+05
 0.47749996E+02 -0.45182E+05
 0.47799995E+02 -0.43674E+05
 0.47849998E+02 -0.35375E+05
 0.47899998E+02 -0.28866E+05
 0.47949997E+02 -0.30055E+05
 0.47999996E+02 -0.32316E+05
 0.48049995E+02 -0.34215E+05
 0.48099998E+02 -0.36907E+05
 0.48149998E+02 -0.36789E+05
 0.48199997E+02 -0.38414E+05
 0.48249996E+02 -0.33559E+05
 0.48299995E+02 -0.27519E+05
 0.48349998E+02 -0.23253E+05
 0.48399998E+02 -0.24158E+05
 0.48449997E+02 -0.35853E+05
 0.48499996E+02 -0.37806E+05
 0.48549995E+02 -0.40001E+05
 0.48599998E+02 -0.45497E+05
 0.48649998E+02 -0.48383E+05
 0.48699997E+02 -0.43701E+05
 0.48749996E+02 -0.44617E+05
 0.48799995E+02 -0.50157E+05
 0.48849998E+02 -0.46373E+05
 0.48899998E+02 -0.47091E+05
 0.48949997E+02 -0.48868E+05
 0.48999996E+02 -0.44844E+05
 0.49049995E+02 -0.35645E+05
 0.49099998E+02 -0.28566E+05
 0.49149998E+02 -0.29492E+05
 0.49199997E+02 -0.40324E+05
 0.49249996E+02 -0.52825E+05
 0.49299995E+02 -0.56786E+05
 0.49349998E+02 -0.55827E+05
 0.49399998E+02 -0.54754E+05
 0.49449997E+02 -0.50259E+05
 0.49499996E+02 -0.45433E+05
 0.49549995E+02 -0.42260E+05
 0.49599998E+02 -0.36608E+05
 0.49649998E+02 -0.25152E+05
 0.49699997E+02 -0.23769E+05
 0.49749996E+02 -0.32427E+05
 0.49799995E+02 -0.30920E+05
 0.49849998E+02 -0.26184E+05
 0.49899998E+02 -0.16843E+05
 0.49949997E+02 -0.14072E+05
 0.49999996E+02 -0.27256E+05
 0.50049995E+02 -0.45910E+05
 0.50099998E+02 -0.53349E+05
 0.50149998E+02 -0.48966E+05
 0.50199997E+02 -0.37020E+05
 0.50249996E+02 -0.21531E+05
 0.50299995E+02 -0.20757E+05
 0.50349998E+02 -0.25230E+05
 0.50399998E+02 -0.29682E+05
 0.50449997E+02 -0.27991E+05
 0.50499996E+02 -0.25201E+05
 0.50549995E+02 -0.27886E+05
 0.50599998E+02 -0.30455E+05
 0.50649998E+02 -0.30739E+05
 0.50699997E+02 -0.39320E+05
 0.50749996E+02 -0.51665E+05
 0.50799995E+02 -0.54631E+05
 0.50849998E+02 -0.57382E+05
 0.50899998E+02 -0.56453E+05
 0.50949997E+02 -0.53780E+05
 0.50999996E+02 -0.49353E+05
 0.51049995E+02 -0.43187E+05
 0.51099998E+02 -0.32264E+05
 0.51149998E+02 -0.27082E+05
 0.51199997E+02 -0.28573E+05
 0.51249996E+02 -0.37001E+05
 0.51299995E+02 -0.46679E+05
 0.51349998E+02 -0.43607E+05
 0.51399998E+02 -0.34126E+05
 0.51449997E+02 -0.24634E+05
 0.51499996E+02 -0.25129E+05
 0.51549995E+02 -0.31932E+05
 0.51599998E+02 -0.40147E+05
 0.51649998E+02 -0.40060E+05
 0.51699997E+02 -0.42621E+05
 0.51749996E+02 -0.43723E+05
 0.51799995E+02 -0.34274E+05
 0.51849998E+02 -0.25365E+05
 0.51899998E+02 -0.21239E+05
 0.51949997E+02 -0.29943E+05
 0.51999996E+02 -0.38121E+05
 0.52049995E+02 -0.39434E+05
 0.52099998E+02 -0.35804E+05
 0.52149998E+02 -0.33571E+05
 0.52199997E+02 -0.35186E+05
 0.52249996E+02 -0.38297E+05
 0.52299995E+02 -0.38149E+05
 0.52349998E+02 -0.41401E+05
 0.52399998E+02 -0.49347E+05
 0.52449997E+02 -0.45524E+05
 0.52499996E+02 -0.39062E+05
 0.52549995E+02 -0.35336E+05
 0.52599998E+02 -0.40588E+05
 0.52649998E+02 -0.50992E+05
 0.52699997E+02 -0.49503E+05
 0.52749996E+02 -0.39669E+05
 0.52799995E+02 -0.32265E+05
 0.52849998E+02 -0.29779E+05
 0.52899998E+02 -0.32083E+05
 0.52949997E+02 -0.40205E+05
 0.52999996E+02 -0.42947E+05
 0.53049995E+02 -0.44642E+05
 0.53099998E+02 -0.44371E+05
 0.53149998E+02 -0.37209E+05
 0.53199997E+02 -0.35225E+05
 0.53249996E+02 -0.35006E+05
 0.53299995E+02 -0.39235E+05
 0.53349998E+02 -0.45417E+05
 0.53399998E+02 -0.48728E+05
 0.53449997E+02 -0.43899E+05
 0.53499996E+02 -0.28872E+05
 0.53549995E+02 -0.15343E+05
 0.53599998E+02 -0.13229E+05
 0.53649998E+02 -0.20394E+05
 0.53699997E+02 -0.31837E+05
 0.53749996E+02 -0.46063E+05
 0.53799995E+02 -0.61098E+05
 0.53849998E+02 -0.70258E+05
 0.53899998E+02 -0.59724E+05
 0.53949997E+02 -0.32996E+05
 0.53999996E+02 -0.11470E+05
 0.54049995E+02 -0.15165E+05
 0.54099998E+02 -0.24478E+05
 0.54149998E+02 -0.15690E+05
 0.54199997E+02  0.42285E+03
 0.54249996E+02  0.94316E+04
 0.54299995E+02  0.18084E+04
 0.54349998E+02 -0.14898E+05
 0.54399998E+02 -0.35869E+05
 0.54449997E+02 -0.67485E+05
 0.54499996E+02 -0.93844E+05
 0.54549995E+02 -0.99939E+05
 0.54599998E+02 -0.84274E+05
 0.54649998E+02 -0.58580E+05
 0.54699997E+02 -0.41069E+05
 0.54749996E+02 -0.39242E+05
 0.54799995E+02 -0.43497E+05
 0.54849998E+02 -0.44427E+05
 0.54899998E+02 -0.39806E+05
 0.54949997E+02 -0.28194E+05
 0.54999996E+02 -0.19550E+05
 0.55049995E+02 -0.20545E+05
 0.55099998E+02 -0.27569E+05
 0.55149998E+02 -0.28719E+05
 0.55199997E+02 -0.30433E+05
 0.55249996E+02 -0.41278E+05
 0.55299995E+02 -0.53279E+05
 0.55349998E+02 -0.61970E+05
 0.55399998E+02 -0.64050E+05
 0.55449997E+02 -0.58786E+05
 0.55499996E+02 -0.45617E+05
 0.55549995E+02 -0.26676E+05
 0.55599998E+02 -0.13921E+05
 0.55649998E+02 -0.13161E+05
 0.55699997E+02 -0.13915E+05
 0.55749996E+02 -0.10202E+05
 0.55799995E+02 -0.88755E+04
 0.55849995E+02 -0.96299E+04
 0.55899998E+02 -0.11768E+05
 0.55949997E+02 -0.21913E+05
 0.55999996E+02 -0.30855E+05
 0.56049995E+02 -0.37750E+05
 0.56099995E+02 -0.47525E+05
 0.56149998E+02 -0.53576E+05
 0.56199997E+02 -0.59134E+05
 0.56249996E+02 -0.64671E+05
 0.56299995E+02 -0.64140E+05
 0.56349995E+02 -0.55724E+05
 0.56399998E+02 -0.46342E+05
 0.56449997E+02 -0.39550E+05
 0.56499996E+02 -0.36440E+05
 0.56549995E+02 -0.42541E+05
 0.56599995E+02 -0.49619E+05
 0.56649998E+02 -0.51932E+05
 0.56699997E+02 -0.53617E+05
 0.56749996E+02 -0.51797E+05
 0.56799995E+02 -0.51305E+05
 0.56849995E+02 -0.51129E+05
 0.56899998E+02 -0.46743E+05
 0.56949997E+02 -0.43394E+05
 0.56999996E+02 -0.38694E+05
 0.57049995E+02 -0.34016E+05
 0.57099995E+02 -0.28712E+05
 0.57149998E+02 -0.18667E+05
 0.57199997E+02 -0.10996E+05
 0.57249996E+02 -0.11543E+05
 0.57299995E+02 -0.17456E+05
 0.57349995E+02 -0.22918E+05
 0.57399998E+02 -0.24484E+05
 0.57449997E+02 -0.20747E+05
 0.57499996E+02 -0.19534E+05
 0.57549995E+02 -0.25423E+05
 0.57599995E+02 -0.34760E+05
 0.57649998E+02 -0.45353E+05
 0.57699997E+02 -0.53639E+05
 0.57749996E+02 -0.59026E+05
 0.57799995E+02 -0.60283E+05
 0.57849995E+02 -0.60583E+05
 0.57899998E+02 -0.56153E+05
 0.57949997E+02 -0.49756E+05
 0.57999996E+02 -0.47521E+05
 0.58049995E+02 -0.44036E+05
 0.58099995E+02 -0.37302E+05
 0.58149998E+02 -0.29321E+05
 0.58199997E+02 -0.28825E+05
 0.58249996E+02 -0.29439E+05
 0.58299995E+02 -0.30154E+05
 0.58349995E+02 -0.31556E+05
 0.58399998E+02 -0.30847E+05
 0.58449997E+02 -0.36774E+05
 0.58499996E+02 -0.45949E+05
 0.58549995E+02 -0.53575E+05
 0.58599995E+02 -0.51283E+05
 0.58649998E+02 -0.43793E+05
 0.58699997E+02 -0.37731E+05
 0.58749996E+02 -0.35842E+05
 0.58799995E+02 -0.38035E+05
 0.58849995E+02 -0.39512E+05
 0.58899998E+02 -0.38107E+05
 0.58949997E+02 -0.32664E+05
 0.58999996E+02 -0.27815E+05
 0.59049995E+02 -0.27685E+05
 0.59099995E+02 -0.31319E+05
 0.59149998E+02 -0.33710E+05
 0.59199997E+02 -0.39219E+05
 0.59249996E+02 -0.45070E+05
 0.59299995E+02 -0.47507E+05
 0.59349995E+02 -0.44828E+05
 0.59399998E+02 -0.39048E+05
 0.59449997E+02 -0.33817E+05
 0.59499996E+02 -0.32193E+05
 0.59549995E+02 -0.32774E+05
 0.59599995E+02 -0.32670E+05
 0.59649998E+02 -0.32130E+05
 0.59699997E+02 -0.30906E+05
 0.59749996E+02 -0.30961E+05
 0.59799995E+02 -0.26730E+05
 0.59849995E+02 -0.25234E+05
 0.59899998E+02 -0.29079E+05
 0.59949997E+02 -0.30927E+05
 0.59999996E+02 -0.33672E+05
 0.60049995E+02 -0.37249E+05
 0.60099995E+02 -0.40994E+05
 0.60149998E+02 -0.44537E+05
 0.60199997E+02 -0.44690E+05
 0.60249996E+02 -0.44116E+05
 0.60299995E+02 -0.45369E+05
 0.60349995E+02 -0.48231E+05
 0.60399998E+02 -0.47712E+05
 0.60449997E+02 -0.42616E+05
 0.60499996E+02 -0.38243E+05
 0.60549995E+02 -0.33805E+05
 0.60599995E+02 -0.33976E+05
 0.60649998E+02 -0.36870E+05
 0.60699997E+02 -0.38352E+05
 0.60749996E+02 -0.42069E+05
 0.60799995E+02 -0.45640E+05
 0.60849995E+02 -0.47100E+05
 0.60899998E+02 -0.45719E+05
 0.60949997E+02 -0.44217E+05
 0.60999996E+02 -0.44121E+05
 0.61049995E+02 -0.41313E+05
 0.61099995E+02 -0.35237E+05
 0.61149998E+02 -0.28712E+05
 0.61199997E+02 -0.23321E+05
 0.61249996E+02 -0.20109E+05
 0.61299995E+02 -0.19535E+05
 0.61349995E+02 -0.20911E+05
 0.61399998E+02 -0.21846E+05
 0.61449997E+02 -0.20320E+05
 0.61499996E+02 -0.21836E+05
 0.61549995E+02 -0.28588E+05
 0.61599995E+02 -0.35386E+05
 0.61649998E+02 -0.42307E+05
 0.61699997E+02 -0.48943E+05
 0.61749996E+02 -0.51180E+05
 0.61799995E+02 -0.49169E+05
 0.61849995E+02 -0.43483E+05
 0.61899998E+02 -0.33983E+05
 0.61949997E+02 -0.27702E+05
 0.61999996E+02 -0.24323E+05
 0.62049995E+02 -0.23053E+05
 0.62099998E+02 -0.29342E+05
 0.62149994E+02 -0.36451E+05
 0.62199997E+02 -0.45615E+05
 0.62249992E+02 -0.54618E+05
 0.62299995E+02 -0.58512E+05
 0.62349998E+02 -0.59789E+05
 0.62399994E+02 -0.59759E+05
 0.62449997E+02 -0.56669E+05
 0.62499992E+02 -0.50592E+05
 0.62549995E+02 -0.45124E+05
 0.62599998E+02 -0.40820E+05
 0.62649994E+02 -0.38073E+05
 0.62699997E+02 -0.32126E+05
 0.62749992E+02 -0.26685E+05
 0.62799995E+02 -0.23339E+05
 0.62849998E+02 -0.20858E+05
 0.62899994E+02 -0.20160E+05
 0.62949997E+02 -0.22774E+05
 0.62999992E+02 -0.25627E+05
 0.63049995E+02 -0.26466E+05
 0.63099998E+02 -0.29592E+05
 0.63149994E+02 -0.31485E+05
 0.63199997E+02 -0.34976E+05
 0.63249992E+02 -0.39681E+05
 0.63299995E+02 -0.42008E+05
 0.63349998E+02 -0.42596E+05
 0.63399994E+02 -0.42302E+05
 0.63449997E+02 -0.42011E+05
 0.63499992E+02 -0.40763E+05
 0.63549995E+02 -0.42412E+05
 0.63599998E+02 -0.43940E+05
 0.63649994E+02 -0.41830E+05
 0.63699997E+02 -0.39339E+05
 0.63749992E+02 -0.38493E+05
 0.63799995E+02 -0.40078E+05
 0.63849998E+02 -0.41752E+05
 0.63899994E+02 -0.44915E+05
 0.63949997E+02 -0.45845E+05
 0.63999992E+02 -0.46954E+05
 0.64049995E+02 -0.49489E+05
 0.64099998E+02 -0.49295E+05
 0.64149994E+02 -0.50257E+05
 0.64199997E+02 -0.49490E+05
 0.64249992E+02 -0.48234E+05
 0.64299995E+02 -0.48190E+05
 0.64349998E+02 -0.46389E+05
 0.64399994E+02 -0.41152E+05
 0.64449997E+02 -0.35046E+05
 0.64499992E+02 -0.28659E+05
 0.64549995E+02 -0.20688E+05
 0.64599998E+02 -0.13641E+05
 0.64649994E+02 -0.11315E+05
 0.64699997E+02 -0.13332E+05
 0.64749992E+02 -0.16786E+05
 0.64799995E+02 -0.21649E+05
 0.64849998E+02 -0.25913E+05
 0.64899994E+02 -0.30225E+05
 0.64949997E+02 -0.35462E+05
 0.64999992E+02 -0.42164E+05
 0.65049995E+02 -0.48681E+05
 0.65099998E+02 -0.52381E+05
 0.65149994E+02 -0.54581E+05
 0.65199997E+02 -0.53488E+05
 0.65249992E+02 -0.49053E+05
 0.65299995E+02 -0.46292E+05
 0.65349998E+02 -0.44659E+05
 0.65399994E+02 -0.43093E+05
 0.65449997E+02 -0.42847E+05
 0.65499992E+02 -0.43534E+05
 0.65549995E+02 -0.44928E+05
 0.65599998E+02 -0.46932E+05
 0.65649994E+02 -0.46967E+05
 0.65699997E+02 -0.43403E+05
 0.65749992E+02 -0.39994E+05
 0.65799995E+02 -0.40879E+05
 0.65849998E+02 -0.43094E+05
 0.65899994E+02 -0.44043E+05
 0.65949997E+02 -0.43558E+05
 0.65999992E+02 -0.39088E+05
 0.66049995E+02 -0.31505E+05
 0.66099998E+02 -0.24750E+05
 0.66149994E+02 -0.22402E+05
 0.66199997E+02 -0.24483E+05
 0.66249992E+02 -0.29695E+05
 0.66299995E+02 -0.32936E+05
 0.66349998E+02 -0.31991E+05
 0.66399994E+02 -0.34109E+05
 0.66449997E+02 -0.36991E+05
 0.66499992E+02 -0.34216E+05
 0.66549995E+02 -0.31170E+05
 0.66599998E+02 -0.30305E+05
 0.66649994E+02 -0.30781E+05
 0.66699997E+02 -0.30811E+05
 0.66749992E+02 -0.29637E+05
 0.66799995E+02 -0.28297E+05
 0.66849998E+02 -0.28898E+05
 0.66899994E+02 -0.33379E+05
 0.66949997E+02 -0.38403E+05
 0.66999992E+02 -0.43125E+05
 0.67049995E+02 -0.47319E+05
 0.67099998E+02 -0.48881E+05
 0.67149994E+02 -0.47856E+05
 0.67199997E+02 -0.47343E+05
 0.67249992E+02 -0.46037E+05
 0.67299995E+02 -0.43836E+05
 0.67349998E+02 -0.43762E+05
 0.67399994E+02 -0.43599E+05
 0.67449997E+02 -0.42160E+05
 0.67499992E+02 -0.40264E+05
 0.67549995E+02 -0.38656E+05
 0.67599998E+02 -0.37953E+05
 0.67649994E+02 -0.36913E+05
 0.67699997E+02 -0.35610E+05
 0.67749992E+02 -0.35862E+05
 0.67799995E+02 -0.37645E+05
 0.67849998E+02 -0.38904E+05
 0.67899994E+02 -0.38188E+05
 0.67949997E+02 -0.37637E+05
 0.67999992E+02 -0.38136E+05
 0.68049995E+02 -0.36535E+05
 0.68099998E+02 -0.33209E+05
 0.68149994E+02 -0.29499E+05
 0.68199997E+02 -0.25353E+05
 0.68249992E+02 -0.22574E+05
 0.68299995E+02 -0.22143E+05
 0.68349998E+02 -0.22801E+05
 0.68399994E+02 -0.25464E+05
 0.68449997E+02 -0.28112E+05
 0.68499992E+02 -0.28440E+05
 0.68549995E+02 -0.30162E+05
 0.68599998E+02 -0.33859E+05
 0.68649994E+02 -0.37182E+05
 0.68699997E+02 -0.40621E+05
 0.68749992E+02 -0.45767E+05
 0.68799995E+02 -0.49796E+05
 0.68849998E+02 -0.50851E+05
 0.68899994E+02 -0.50456E+05
 0.68949997E+02 -0.48571E+05
 0.68999992E+02 -0.44217E+05
 0.69049995E+02 -0.39020E+05
 0.69099998E+02 -0.34950E+05
 0.69149994E+02 -0.32937E+05
 0.69199997E+02 -0.32574E+05
 0.69249992E+02 -0.33151E+05
 0.69299995E+02 -0.35359E+05
 0.69349998E+02 -0.37922E+05
 0.69399994E+02 -0.39333E+05
 0.69449997E+02 -0.40133E+05
 0.69499992E+02 -0.41738E+05
 0.69549995E+02 -0.44185E+05
 0.69599998E+02 -0.44966E+05
 0.69649994E+02 -0.43424E+05
 0.69699997E+02 -0.42532E+05
 0.69749992E+02 -0.41779E+05
 0.69799995E+02 -0.39131E+05
 0.69849998E+02 -0.36516E+05
 0.69899994E+02 -0.34021E+05
 0.69949997E+02 -0.32841E+05
 0.69999992E+02 -0.33892E+05
 0.70049995E+02 -0.36096E+05
 0.70099998E+02 -0.39821E+05
 0.70149994E+02 -0.42643E+05
 0.70199997E+02 -0.41809E+05
 0.70249992E+02 -0.39967E+05
 0.70299995E+02 -0.39307E+05
 0.70349998E+02 -0.37786E+05
 0.70399994E+02 -0.35929E+05
 0.70449997E+02 -0.34816E+05
 0.70499992E+02 -0.35181E+05
 0.70549995E+02 -0.36249E+05
 0.70599998E+02 -0.35773E+05
 0.70649994E+02 -0.35245E+05
 0.70699997E+02 -0.34463E+05
 0.70749992E+02 -0.33066E+05
 0.70799995E+02 -0.34691E+05
 0.70849998E+02 -0.36853E+05
 0.70899994E+02 -0.38565E+05
 0.70949997E+02 -0.41624E+05
 0.70999992E+02 -0.43547E+05
 0.71049995E+02 -0.42267E+05
 0.71099998E+02 -0.39703E+05
 0.71149994E+02 -0.39383E+05
 0.71199997E+02 -0.41017E+05
 0.71249992E+02 -0.44264E+05
 0.71299995E+02 -0.46565E+05
 0.71349998E+02 -0.47421E+05
 0.71399994E+02 -0.46003E+05
 0.71449997E+02 -0.42676E+05
 0.71499992E+02 -0.38407E+05
 0.71549995E+02 -0.34231E+05
 0.71599998E+02 -0.31248E+05
 0.71649994E+02 -0.28034E+05
 0.71699997E+02 -0.26276E+05
 0.71749992E+02 -0.26586E+05
 0.71799995E+02 -0.28113E+05
 0.71849998E+02 -0.29494E+05
 0.71899994E+02 -0.32461E+05
 0.71949997E+02 -0.35801E+05
 0.71999992E+02 -0.37941E+05
 0.72049995E+02 -0.38409E+05
 0.72099998E+02 -0.37085E+05
 0.72149994E+02 -0.35922E+05
 0.72199997E+02 -0.34808E+05
 0.72249992E+02 -0.33918E+05
 0.72299995E+02 -0.33815E+05
 0.72349998E+02 -0.35129E+05
 0.72399994E+02 -0.38019E+05
 0.72449997E+02 -0.42239E+05
 0.72499992E+02 -0.45288E+05
 0.72549995E+02 -0.46218E+05
 0.72599998E+02 -0.46632E+05
 0.72649994E+02 -0.47933E+05
 0.72699997E+02 -0.49497E+05
 0.72749992E+02 -0.50051E+05
 0.72799995E+02 -0.49203E+05
 0.72849998E+02 -0.46974E+05
 0.72899994E+02 -0.44294E+05
 0.72949997E+02 -0.41630E+05
 0.72999992E+02 -0.38810E+05
 0.73049995E+02 -0.35398E+05
 0.73099998E+02 -0.33217E+05
 0.73149994E+02 -0.32510E+05
 0.73199997E+02 -0.31248E+05
 0.73249992E+02 -0.28975E+05
 0.73299995E+02 -0.26380E+05
 0.73349998E+02 -0.24197E+05
 0.73399994E+02 -0.22737E+05
 0.73449997E+02 -0.22780E+05
 0.73499992E+02 -0.23886E+05
 0.73549995E+02 -0.25618E+05
 0.73599998E+02 -0.28958E+05
 0.73649994E+02 -0.33583E+05
 0.73699997E+02 -0.39266E+05
 0.73749992E+02 -0.46020E+05
 0.73799995E+02 -0.50470E+05
 0.73849998E+02 -0.51595E+05
 0.73899994E+02 -0.50633E+05
 0.73949997E+02 -0.47412E+05
 0.73999992E+02 -0.43641E+05
 0.74049995E+02 -0.40644E+05
 0.74099998E+02 -0.38458E+05
 0.74149994E+02 -0.36730E+05
 0.74199997E+02 -0.35677E+05
 0.74249992E+02 -0.35516E+05
 0.74299995E+02 -0.35563E+05
 0.74349998E+02 -0.35857E+05
 0.74399994E+02 -0.36863E+05
 0.74449997E+02 -0.37606E+05
 0.74499992E+02 -0.36892E+05
 0.74549995E+02 -0.35987E+05
 0.74599998E+02 -0.35335E+05
 0.74649994E+02 -0.35347E+05
 0.74699997E+02 -0.37432E+05
 0.74749992E+02 -0.38976E+05
 0.74799995E+02 -0.38792E+05
 0.74849998E+02 -0.37194E+05
 0.74899994E+02 -0.33870E+05
 0.74949997E+02 -0.30550E+05
 0.74999992E+02 -0.29468E+05
 0.75049995E+02 -0.30628E+05
 0.75099998E+02 -0.31534E+05
 0.75149994E+02 -0.31805E+05
 0.75199997E+02 -0.33501E+05
 0.75249992E+02 -0.34834E+05
 0.75299995E+02 -0.35110E+05
 0.75349998E+02 -0.36696E+05
 0.75399994E+02 -0.38428E+05
 0.75449997E+02 -0.39585E+05
 0.75499992E+02 -0.40899E+05
 0.75549995E+02 -0.42276E+05
 0.75599998E+02 -0.44363E+05
 0.75649994E+02 -0.46209E+05
 0.75699997E+02 -0.45644E+05
 0.75749992E+02 -0.44921E+05
 0.75799995E+02 -0.44575E+05
 0.75849998E+02 -0.42836E+05
 0.75899994E+02 -0.39560E+05
 0.75949997E+02 -0.36949E+05
 0.75999992E+02 -0.37104E+05
 0.76049995E+02 -0.37820E+05
 0.76099998E+02 -0.38634E+05
 0.76149994E+02 -0.38799E+05
 0.76199997E+02 -0.37341E+05
 0.76249992E+02 -0.36093E+05
 0.76299995E+02 -0.36192E+05
 0.76349998E+02 -0.36505E+05
 0.76399994E+02 -0.36631E+05
 0.76449997E+02 -0.37053E+05
 0.76499992E+02 -0.37761E+05
 0.76549995E+02 -0.38112E+05
 0.76599998E+02 -0.37835E+05
 0.76649994E+02 -0.37711E+05
 0.76699997E+02 -0.37816E+05
 0.76749992E+02 -0.38211E+05
 0.76799995E+02 -0.37729E+05
 0.76849998E+02 -0.36797E+05
 0.76899994E+02 -0.36553E+05
 0.76949997E+02 -0.37582E+05
 0.76999992E+02 -0.38300E+05
 0.77049995E+02 -0.38709E+05
 0.77099998E+02 -0.39932E+05
 0.77149994E+02 -0.41191E+05
 0.77199997E+02 -0.42221E+05
 0.77249992E+02 -0.42693E+05
 0.77299995E+02 -0.43589E+05
 0.77349998E+02 -0.44120E+05
 0.77399994E+02 -0.43515E+05
 0.77449997E+02 -0.41361E+05
 0.77499992E+02 -0.38796E+05
 0.77549995E+02 -0.36689E+05
 0.77599998E+02 -0.34886E+05
 0.77649994E+02 -0.33862E+05
 0.77699997E+02 -0.32626E+05
 0.77749992E+02 -0.30621E+05
 0.77799995E+02 -0.28937E+05
 0.77849998E+02 -0.29315E+05
 0.77899994E+02 -0.31103E+05
 0.77949997E+02 -0.33468E+05
 0.77999992E+02 -0.36187E+05
 0.78049995E+02 -0.38460E+05
 0.78099998E+02 -0.40070E+05
 0.78149994E+02 -0.40848E+05
 0.78199997E+02 -0.40663E+05
 0.78249992E+02 -0.41123E+05
 0.78299995E+02 -0.41427E+05
 0.78349998E+02 -0.40412E+05
 0.78399994E+02 -0.39688E+05
 0.78449997E+02 -0.39556E+05
 0.78499992E+02 -0.39483E+05
 0.78549995E+02 -0.38345E+05
 0.78599998E+02 -0.36711E+05
 0.78649994E+02 -0.36015E+05
 0.78699997E+02 -0.36431E+05
 0.78749992E+02 -0.36799E+05
 0.78799995E+02 -0.35940E+05
 0.78849998E+02 -0.35414E+05
 0.78899994E+02 -0.34703E+05
 0.78949997E+02 -0.33825E+05
 0.78999992E+02 -0.33329E+05
 0.79049995E+02 -0.33112E+05
 0.79099998E+02 -0.33440E+05
 0.79149994E+02 -0.33988E+05
 0.79199997E+02 -0.36383E+05
 0.79249992E+02 -0.38531E+05
 0.79299995E+02 -0.39733E+05
 0.79349998E+02 -0.40384E+05
 0.79399994E+02 -0.39798E+05
 0.79449997E+02 -0.39528E+05
 0.79499992E+02 -0.39485E+05
 0.79549995E+02 -0.39222E+05
 0.79599998E+02 -0.38492E+05
 0.79649994E+02 -0.36800E+05
 0.79699997E+02 -0.34331E+05
 0.79749992E+02 -0.32675E+05
 0.79799995E+02 -0.32851E+05
 0.79849998E+02 -0.33821E+05
 0.79899994E+02 -0.34786E+05
 0.79949997E+02 -0.35069E+05
 0.79999992E+02 -0.34148E+05
 0.80049995E+02 -0.32843E+05
 0.80099998E+02 -0.32257E+05
 0.80149994E+02 -0.33312E+05
 0.80199997E+02 -0.34124E+05
 0.80249992E+02 -0.33580E+05
 0.80299995E+02 -0.32885E+05
 0.80349998E+02 -0.32127E+05
 0.80399994E+02 -0.32350E+05
 0.80449997E+02 -0.34713E+05
 0.80499992E+02 -0.38460E+05
 0.80549995E+02 -0.41907E+05
 0.80599998E+02 -0.43485E+05
 0.80649994E+02 -0.43382E+05
 0.80699997E+02 -0.42936E+05
 0.80749992E+02 -0.42674E+05
 0.80799995E+02 -0.42235E+05
 0.80849998E+02 -0.41862E+05
 0.80899994E+02 -0.41560E+05
 0.80949997E+02 -0.41364E+05
 0.80999992E+02 -0.42024E+05
 0.81049995E+02 -0.41657E+05
 0.81099998E+02 -0.40672E+05
 0.81149994E+02 -0.40377E+05
 0.81199997E+02 -0.40321E+05
 0.81249992E+02 -0.41184E+05
 0.81299995E+02 -0.42497E+05
 0.81349998E+02 -0.43311E+05
 0.81399994E+02 -0.44139E+05
 0.81449997E+02 -0.44611E+05
 0.81499992E+02 -0.43831E+05
 0.81549995E+02 -0.43065E+05
 0.81599998E+02 -0.42300E+05
 0.81649994E+02 -0.41545E+05
 0.81699997E+02 -0.41177E+05
 0.81749992E+02 -0.40739E+05
 0.81799995E+02 -0.40098E+05
 0.81849998E+02 -0.38629E+05
 0.81899994E+02 -0.37172E+05
 0.81949997E+02 -0.36755E+05
 0.81999992E+02 -0.37342E+05
 0.82049995E+02 -0.38186E+05
 0.82099998E+02 -0.39071E+05
 0.82149994E+02 -0.39238E+05
 0.82199997E+02 -0.38660E+05
 0.82249992E+02 -0.37933E+05
 0.82299995E+02 -0.37179E+05
 0.82349998E+02 -0.37505E+05
 0.82399994E+02 -0.38138E+05
 0.82449997E+02 -0.37635E+05
 0.82499992E+02 -0.37075E+05
 0.82549995E+02 -0.37254E+05
 0.82599998E+02 -0.36514E+05
 0.82649994E+02 -0.35534E+05
 0.82699997E+02 -0.35836E+05
 0.82749992E+02 -0.36643E+05
 0.82799995E+02 -0.37655E+05
 0.82849998E+02 -0.37989E+05
 0.82899994E+02 -0.36192E+05
 0.82949997E+02 -0.33211E+05
 0.82999992E+02 -0.31179E+05
 0.83049995E+02 -0.30829E+05
 0.83099998E+02 -0.31585E+05
 0.83149994E+02 -0.32379E+05
 0.83199997E+02 -0.32639E+05
 0.83249992E+02 -0.32321E+05
 0.83299995E+02 -0.32342E+05
 0.83349998E+02 -0.33049E+05
 0.83399994E+02 -0.33156E+05
 0.83449997E+02 -0.32135E+05
 0.83499992E+02 -0.31709E+05
 0.83549995E+02 -0.31994E+05
 0.83599998E+02 -0.32220E+05
 0.83649994E+02 -0.32622E+05
 0.83699997E+02 -0.32308E+05
 0.83749992E+02 -0.31495E+05
 0.83799995E+02 -0.30395E+05
 0.83849998E+02 -0.30575E+05
 0.83899994E+02 -0.31976E+05
 0.83949997E+02 -0.33688E+05
 0.83999992E+02 -0.35117E+05
 0.84049995E+02 -0.36168E+05
 0.84099998E+02 -0.37648E+05
 0.84149994E+02 -0.38378E+05
 0.84199997E+02 -0.37801E+05
 0.84249992E+02 -0.36682E+05
 0.84299995E+02 -0.35791E+05
 0.84349998E+02 -0.34416E+05
 0.84399994E+02 -0.33167E+05
 0.84449997E+02 -0.32581E+05
 0.84499992E+02 -0.33468E+05
 0.84549995E+02 -0.36241E+05
 0.84599998E+02 -0.39482E+05
 0.84649994E+02 -0.43338E+05
 0.84699997E+02 -0.46936E+05
 0.84749992E+02 -0.49142E+05
 0.84799995E+02 -0.50023E+05
 0.84849998E+02 -0.49706E+05
 0.84899994E+02 -0.48170E+05
 0.84949997E+02 -0.45979E+05
 0.84999992E+02 -0.43650E+05
 0.85049995E+02 -0.41437E+05
 0.85099998E+02 -0.40504E+05
 0.85149994E+02 -0.40190E+05
 0.85199997E+02 -0.40315E+05
 0.85249992E+02 -0.40965E+05
 0.85299995E+02 -0.42384E+05
 0.85349998E+02 -0.44078E+05
 0.85399994E+02 -0.44838E+05
 0.85449997E+02 -0.45269E+05
 0.85499992E+02 -0.45534E+05
 0.85549995E+02 -0.45758E+05
 0.85599998E+02 -0.45159E+05
 0.85649994E+02 -0.44089E+05
 0.85699997E+02 -0.43319E+05
 0.85749992E+02 -0.42417E+05
 0.85799995E+02 -0.41629E+05
 0.85849998E+02 -0.40639E+05
 0.85899994E+02 -0.39956E+05
 0.85949997E+02 -0.39415E+05
 0.85999992E+02 -0.38572E+05
 0.86049995E+02 -0.37322E+05
 0.86099998E+02 -0.35696E+05
 0.86149994E+02 -0.34659E+05
 0.86199997E+02 -0.34474E+05
 0.86249992E+02 -0.34338E+05
 0.86299995E+02 -0.33452E+05
 0.86349998E+02 -0.32578E+05
 0.86399994E+02 -0.31796E+05
 0.86449997E+02 -0.31145E+05
 0.86499992E+02 -0.30619E+05
 0.86549995E+02 -0.30360E+05
 0.86599998E+02 -0.31371E+05
 0.86649994E+02 -0.33140E+05
 0.86699997E+02 -0.35090E+05
 0.86749992E+02 -0.36999E+05
 0.86799995E+02 -0.38023E+05
 0.86849998E+02 -0.38175E+05
 0.86899994E+02 -0.37644E+05
 0.86949997E+02 -0.36581E+05
 0.86999992E+02 -0.34954E+05
 0.87049995E+02 -0.33156E+05
 0.87099998E+02 -0.32253E+05
 0.87149994E+02 -0.32246E+05
 0.87199997E+02 -0.33482E+05
 0.87249992E+02 -0.34405E+05
 0.87299995E+02 -0.34617E+05
 0.87349998E+02 -0.35303E+05
 0.87399994E+02 -0.35451E+05
 0.87449997E+02 -0.35353E+05
 0.87499992E+02 -0.35486E+05
 0.87549995E+02 -0.35596E+05
 0.87599991E+02 -0.35157E+05
 0.87649994E+02 -0.34519E+05
 0.87699997E+02 -0.34191E+05
 0.87749992E+02 -0.34646E+05
 0.87799995E+02 -0.35351E+05
 0.87849991E+02 -0.35324E+05
 0.87899994E+02 -0.35564E+05
 0.87949997E+02 -0.35887E+05
 0.87999992E+02 -0.36036E+05
 0.88049995E+02 -0.36337E+05
 0.88099991E+02 -0.37490E+05
 0.88149994E+02 -0.38791E+05
 0.88199997E+02 -0.39358E+05
 0.88249992E+02 -0.39742E+05
 0.88299995E+02 -0.40184E+05
 0.88349991E+02 -0.41433E+05
 0.88399994E+02 -0.42599E+05
 0.88449997E+02 -0.42626E+05
 0.88499992E+02 -0.41712E+05
 0.88549995E+02 -0.40294E+05
 0.88599991E+02 -0.39219E+05
 0.88649994E+02 -0.38647E+05
 0.88699997E+02 -0.38064E+05
 0.88749992E+02 -0.37498E+05
 0.88799995E+02 -0.37278E+05
 0.88849991E+02 -0.37833E+05
 0.88899994E+02 -0.38990E+05
 0.88949997E+02 -0.40536E+05
 0.88999992E+02 -0.41937E+05
 0.89049995E+02 -0.42474E+05
 0.89099991E+02 -0.42678E+05
 0.89149994E+02 -0.43144E+05
 0.89199997E+02 -0.43818E+05
 0.89249992E+02 -0.44366E+05
 0.89299995E+02 -0.44255E+05
 0.89349991E+02 -0.43303E+05
 0.89399994E+02 -0.41805E+05
 0.89449997E+02 -0.40176E+05
 0.89499992E+02 -0.38936E+05
 0.89549995E+02 -0.37911E+05
 0.89599991E+02 -0.36969E+05
 0.89649994E+02 -0.36378E+05
 0.89699997E+02 -0.36803E+05
 0.89749992E+02 -0.37821E+05
 0.89799995E+02 -0.38173E+05
 0.89849991E+02 -0.37599E+05
 0.89899994E+02 -0.37020E+05
 0.89949997E+02 -0.36293E+05
 0.89999992E+02 -0.34479E+05
 0.90049995E+02 -0.33130E+05
 0.90099991E+02 -0.32582E+05
 0.90149994E+02 -0.32110E+05
 0.90199997E+02 -0.31882E+05
 0.90249992E+02 -0.31684E+05
 0.90299995E+02 -0.31784E+05
 0.90349991E+02 -0.32234E+05
 0.90399994E+02 -0.33196E+05
 0.90449997E+02 -0.34207E+05
 0.90499992E+02 -0.34874E+05
 0.90549995E+02 -0.35685E+05
 0.90599991E+02 -0.36641E+05
 0.90649994E+02 -0.37883E+05
 0.90699997E+02 -0.38914E+05
 0.90749992E+02 -0.39339E+05
 0.90799995E+02 -0.39190E+05
 0.90849991E+02 -0.38910E+05
 0.90899994E+02 -0.39180E+05
 0.90949997E+02 -0.39680E+05
 0.90999992E+02 -0.39935E+05
 0.91049995E+02 -0.40342E+05
 0.91099991E+02 -0.41026E+05
 0.91149994E+02 -0.41126E+05
 0.91199997E+02 -0.40346E+05
 0.91249992E+02 -0.39087E+05
 0.91299995E+02 -0.37797E+05
 0.91349991E+02 -0.36823E+05
 0.91399994E+02 -0.36343E+05
 0.91449997E+02 -0.36094E+05
 0.91499992E+02 -0.35784E+05
 0.91549995E+02 -0.35281E+05
 0.91599991E+02 -0.34781E+05
 0.91649994E+02 -0.34323E+05
 0.91699997E+02 -0.33792E+05
 0.91749992E+02 -0.33433E+05
 0.91799995E+02 -0.33405E+05
 0.91849991E+02 -0.33480E+05
 0.91899994E+02 -0.33972E+05
 0.91949997E+02 -0.34838E+05
 0.91999992E+02 -0.35816E+05
 0.92049995E+02 -0.36828E+05
 0.92099991E+02 -0.37398E+05
 0.92149994E+02 -0.38729E+05
 0.92199997E+02 -0.40364E+05
 0.92249992E+02 -0.41112E+05
 0.92299995E+02 -0.41237E+05
 0.92349991E+02 -0.41204E+05
 0.92399994E+02 -0.41542E+05
 0.92449997E+02 -0.41833E+05
 0.92499992E+02 -0.42162E+05
 0.92549995E+02 -0.42848E+05
 0.92599991E+02 -0.43826E+05
 0.92649994E+02 -0.44081E+05
 0.92699997E+02 -0.43285E+05
 0.92749992E+02 -0.42104E+05
 0.92799995E+02 -0.41266E+05
 0.92849991E+02 -0.40842E+05
 0.92899994E+02 -0.40393E+05
 0.92949997E+02 -0.39851E+05
 0.92999992E+02 -0.38549E+05
 0.93049995E+02 -0.36456E+05
 0.93099991E+02 -0.34746E+05
 0.93149994E+02 -0.33605E+05
 0.93199997E+02 -0.32584E+05
 0.93249992E+02 -0.31760E+05
 0.93299995E+02 -0.31120E+05
 0.93349991E+02 -0.31542E+05
 0.93399994E+02 -0.32409E+05
 0.93449997E+02 -0.32758E+05
 0.93499992E+02 -0.33069E+05
 0.93549995E+02 -0.33662E+05
 0.93599991E+02 -0.34123E+05
 0.93649994E+02 -0.33908E+05
 0.93699997E+02 -0.33128E+05
 0.93749992E+02 -0.32268E+05
 0.93799995E+02 -0.31739E+05
 0.93849991E+02 -0.31772E+05
 0.93899994E+02 -0.32270E+05
 0.93949997E+02 -0.33209E+05
 0.93999992E+02 -0.34545E+05
 0.94049995E+02 -0.35932E+05
 0.94099991E+02 -0.37933E+05
 0.94149994E+02 -0.39834E+05
 0.94199997E+02 -0.40780E+05
 0.94249992E+02 -0.41034E+05
 0.94299995E+02 -0.41688E+05
 0.94349991E+02 -0.42936E+05
 0.94399994E+02 -0.44339E+05
 0.94449997E+02 -0.45552E+05
 0.94499992E+02 -0.45560E+05
 0.94549995E+02 -0.44542E+05
 0.94599991E+02 -0.43266E+05
 0.94649994E+02 -0.42178E+05
 0.94699997E+02 -0.41329E+05
 0.94749992E+02 -0.41265E+05
 0.94799995E+02 -0.41580E+05
 0.94849991E+02 -0.41824E+05
 0.94899994E+02 -0.42357E+05
 0.94949997E+02 -0.42454E+05
 0.94999992E+02 -0.41957E+05
 0.95049995E+02 -0.41465E+05
 0.95099991E+02 -0.41584E+05
 0.95149994E+02 -0.42027E+05
 0.95199997E+02 -0.42288E+05
 0.95249992E+02 -0.42164E+05
 0.95299995E+02 -0.41355E+05
 0.95349991E+02 -0.40199E+05
 0.95399994E+02 -0.38613E+05
 0.95449997E+02 -0.37223E+05
 0.95499992E+02 -0.35745E+05
 0.95549995E+02 -0.33452E+05
 0.95599991E+02 -0.31355E+05
 0.95649994E+02 -0.29679E+05
 0.95699997E+02 -0.28618E+05
 0.95749992E+02 -0.28326E+05
 0.95799995E+02 -0.28676E+05
 0.95849991E+02 -0.29419E+05
 0.95899994E+02 -0.29922E+05
 0.95949997E+02 -0.30164E+05
 0.95999992E+02 -0.30330E+05
 0.96049995E+02 -0.30609E+05
 0.96099991E+02 -0.31141E+05
 0.96149994E+02 -0.31877E+05
 0.96199997E+02 -0.32657E+05
 0.96249992E+02 -0.33432E+05
 0.96299995E+02 -0.34700E+05
 0.96349991E+02 -0.36576E+05
 0.96399994E+02 -0.38543E+05
 0.96449997E+02 -0.40318E+05
 0.96499992E+02 -0.41951E+05
 0.96549995E+02 -0.43480E+05
 0.96599991E+02 -0.44670E+05
 0.96649994E+02 -0.45384E+05
 0.96699997E+02 -0.45948E+05
 0.96749992E+02 -0.46316E+05
 0.96799995E+02 -0.46371E+05
 0.96849991E+02 -0.46467E+05
 0.96899994E+02 -0.46183E+05
 0.96949997E+02 -0.45675E+05
 0.96999992E+02 -0.45397E+05
 0.97049995E+02 -0.44896E+05
 0.97099991E+02 -0.43592E+05
 0.97149994E+02 -0.41722E+05
 0.97199997E+02 -0.40077E+05
 0.97249992E+02 -0.38793E+05
 0.97299995E+02 -0.37377E+05
 0.97349991E+02 -0.35784E+05
 0.97399994E+02 -0.34953E+05
 0.97449997E+02 -0.35153E+05
 0.97499992E+02 -0.35684E+05
 0.97549995E+02 -0.35812E+05
 0.97599991E+02 -0.35499E+05
 0.97649994E+02 -0.34753E+05
 0.97699997E+02 -0.33699E+05
 0.97749992E+02 -0.32790E+05
 0.97799995E+02 -0.31715E+05
 0.97849991E+02 -0.30521E+05
 0.97899994E+02 -0.29227E+05
 0.97949997E+02 -0.28463E+05
 0.97999992E+02 -0.28136E+05
