-0.20000000E+01 -0.91971E+04
-0.19500000E+01 -0.75115E+04
-0.19000000E+01 -0.59928E+04
-0.18500000E+01 -0.44799E+04
-0.18000000E+01 -0.28578E+04
-0.17500000E+01 -0.10046E+04
-0.17000000E+01  0.10805E+04
-0.16500001E+01  0.33639E+04
-0.16000000E+01  0.58749E+04
-0.15500000E+01  0.86311E+04
-0.15000000E+01  0.11595E+05
-0.14500000E+01  0.14716E+05
-0.14000001E+01  0.17983E+05
-0.13500000E+01  0.21264E+05
-0.13000001E+01  0.24467E+05
-0.12500000E+01  0.27462E+05
-0.12000000E+01  0.30127E+05
-0.11500001E+01  0.32415E+05
-0.11000000E+01  0.34303E+05
-0.10500001E+01  0.35708E+05
-0.10000000E+01  0.36597E+05
-0.95000005E+00  0.36922E+05
-0.90000010E+00  0.36671E+05
-0.85000002E+00  0.35817E+05
-0.80000007E+00  0.34356E+05
-0.75000012E+00  0.32453E+05
-0.70000005E+00  0.30231E+05
-0.65000010E+00  0.27857E+05
-0.60000014E+00  0.25400E+05
-0.55000007E+00  0.22912E+05
-0.50000012E+00  0.20456E+05
-0.45000005E+00  0.18199E+05
-0.40000010E+00  0.16252E+05
-0.35000014E+00  0.14693E+05
-0.30000007E+00  0.13566E+05
-0.25000012E+00  0.12860E+05
-0.20000005E+00  0.12400E+05
-0.15000010E+00  0.11994E+05
-0.10000014E+00  0.11713E+05
-0.50000072E-01  0.11462E+05
-0.11920929E-06  0.11081E+05
 0.49999952E-01  0.10433E+05
 0.99999905E-01  0.94670E+04
 0.14999986E+00  0.81903E+04
 0.19999981E+00  0.66194E+04
 0.24999976E+00  0.48059E+04
 0.29999995E+00  0.28628E+04
 0.34999990E+00  0.84335E+03
 0.39999986E+00 -0.12454E+04
 0.44999981E+00 -0.33798E+04
 0.49999976E+00 -0.55336E+04
 0.54999995E+00 -0.75730E+04
 0.59999990E+00 -0.95418E+04
 0.64999986E+00 -0.11526E+05
 0.69999981E+00 -0.13492E+05
 0.74999976E+00 -0.15388E+05
 0.79999971E+00 -0.17196E+05
 0.84999990E+00 -0.18953E+05
 0.89999986E+00 -0.20612E+05
 0.94999981E+00 -0.22089E+05
 0.99999976E+00 -0.23402E+05
 0.10499997E+01 -0.24563E+05
 0.10999999E+01 -0.25481E+05
 0.11499999E+01 -0.26009E+05
 0.11999998E+01 -0.26116E+05
 0.12499998E+01 -0.25823E+05
 0.12999997E+01 -0.25119E+05
 0.13499999E+01 -0.24019E+05
 0.13999999E+01 -0.22524E+05
 0.14499998E+01 -0.20689E+05
 0.14999998E+01 -0.18675E+05
 0.15499997E+01 -0.16553E+05
 0.15999999E+01 -0.14341E+05
 0.16499999E+01 -0.12101E+05
 0.16999998E+01 -0.98458E+04
 0.17499998E+01 -0.76723E+04
 0.17999997E+01 -0.56392E+04
 0.18499997E+01 -0.37585E+04
 0.18999999E+01 -0.20380E+04
 0.19499998E+01 -0.46438E+03
 0.19999998E+01  0.91864E+03
 0.20499997E+01  0.20295E+04
 0.20999999E+01  0.27836E+04
 0.21499996E+01  0.32183E+04
 0.21999998E+01  0.33647E+04
 0.22499995E+01  0.32451E+04
 0.22999997E+01  0.29248E+04
 0.23499999E+01  0.24268E+04
 0.23999996E+01  0.17600E+04
 0.24499998E+01  0.87681E+03
 0.24999995E+01 -0.21388E+03
 0.25499997E+01 -0.14552E+04
 0.25999999E+01 -0.27718E+04
 0.26499996E+01 -0.40543E+04
 0.26999998E+01 -0.51982E+04
 0.27499995E+01 -0.61140E+04
 0.27999997E+01 -0.67292E+04
 0.28499999E+01 -0.69843E+04
 0.28999996E+01 -0.69596E+04
 0.29499998E+01 -0.66196E+04
 0.29999995E+01 -0.59401E+04
 0.30499997E+01 -0.48753E+04
 0.30999999E+01 -0.34168E+04
 0.31499996E+01 -0.16465E+04
 0.31999998E+01  0.35748E+03
 0.32499995E+01  0.25004E+04
 0.32999997E+01  0.47643E+04
 0.33499999E+01  0.70995E+04
 0.33999996E+01  0.94137E+04
 0.34499998E+01  0.11670E+05
 0.34999995E+01  0.13955E+05
 0.35499997E+01  0.16259E+05
 0.35999994E+01  0.18571E+05
 0.36499996E+01  0.20843E+05
 0.36999998E+01  0.23101E+05
 0.37499995E+01  0.25348E+05
 0.37999997E+01  0.27506E+05
 0.38499994E+01  0.29572E+05
 0.38999996E+01  0.31494E+05
 0.39499998E+01  0.33220E+05
 0.39999995E+01  0.34700E+05
 0.40499997E+01  0.35850E+05
 0.40999994E+01  0.36574E+05
 0.41499996E+01  0.36921E+05
 0.41999998E+01  0.36964E+05
 0.42499995E+01  0.36662E+05
 0.42999997E+01  0.36016E+05
 0.43499994E+01  0.35158E+05
 0.43999996E+01  0.34145E+05
 0.44499998E+01  0.32949E+05
 0.44999995E+01  0.31596E+05
 0.45499997E+01  0.30210E+05
 0.45999994E+01  0.28711E+05
 0.46499996E+01  0.26994E+05
 0.46999998E+01  0.25063E+05
 0.47499995E+01  0.22877E+05
 0.47999997E+01  0.20427E+05
 0.48499994E+01  0.17641E+05
 0.48999996E+01  0.14534E+05
 0.49499998E+01  0.11157E+05
 0.49999995E+01  0.74875E+04
 0.50499997E+01  0.35682E+04
 0.50999994E+01 -0.43144E+03
 0.51499996E+01 -0.43961E+04
 0.51999998E+01 -0.81921E+04
 0.52499995E+01 -0.11691E+05
 0.52999997E+01 -0.14887E+05
 0.53499994E+01 -0.17758E+05
 0.53999996E+01 -0.20268E+05
 0.54499993E+01 -0.22398E+05
 0.54999995E+01 -0.24021E+05
 0.55499997E+01 -0.25213E+05
 0.55999994E+01 -0.26142E+05
 0.56499996E+01 -0.26794E+05
 0.56999993E+01 -0.27246E+05
 0.57499995E+01 -0.27576E+05
 0.57999997E+01 -0.27904E+05
 0.58499994E+01 -0.28246E+05
 0.58999996E+01 -0.28565E+05
 0.59499993E+01 -0.28960E+05
 0.59999995E+01 -0.29425E+05
 0.60499992E+01 -0.29817E+05
 0.60999994E+01 -0.30152E+05
 0.61499996E+01 -0.30473E+05
 0.61999998E+01 -0.30627E+05
 0.62499990E+01 -0.30537E+05
 0.62999992E+01 -0.30090E+05
 0.63499994E+01 -0.29189E+05
 0.63999996E+01 -0.27892E+05
 0.64499998E+01 -0.26273E+05
 0.64999990E+01 -0.24269E+05
 0.65499992E+01 -0.21851E+05
 0.65999994E+01 -0.19155E+05
 0.66499996E+01 -0.16308E+05
 0.66999998E+01 -0.13455E+05
 0.67499990E+01 -0.10524E+05
 0.67999992E+01 -0.75449E+04
 0.68499994E+01 -0.46724E+04
 0.68999996E+01 -0.18852E+04
 0.69499998E+01  0.77295E+03
 0.69999990E+01  0.34126E+04
 0.70499992E+01  0.61049E+04
 0.70999994E+01  0.88149E+04
 0.71499996E+01  0.11444E+05
 0.71999998E+01  0.13923E+05
 0.72499990E+01  0.16246E+05
 0.72999992E+01  0.18298E+05
 0.73499994E+01  0.20197E+05
 0.73999996E+01  0.21938E+05
 0.74499998E+01  0.23430E+05
 0.74999990E+01  0.24548E+05
 0.75499992E+01  0.25267E+05
 0.75999994E+01  0.25607E+05
 0.76499996E+01  0.25493E+05
 0.76999998E+01  0.24942E+05
 0.77499990E+01  0.23896E+05
 0.77999992E+01  0.22230E+05
 0.78499994E+01  0.19989E+05
 0.78999996E+01  0.17380E+05
 0.79499998E+01  0.14547E+05
 0.79999990E+01  0.11622E+05
 0.80499992E+01  0.87026E+04
 0.80999994E+01  0.59449E+04
 0.81499996E+01  0.34825E+04
 0.81999998E+01  0.13200E+04
 0.82499990E+01 -0.48573E+03
 0.82999992E+01 -0.18597E+04
 0.83499994E+01 -0.28228E+04
 0.83999996E+01 -0.33195E+04
 0.84499998E+01 -0.34284E+04
 0.84999990E+01 -0.32289E+04
 0.85499992E+01 -0.27516E+04
 0.85999994E+01 -0.19939E+04
 0.86499996E+01 -0.96429E+03
 0.86999998E+01  0.28907E+03
 0.87499990E+01  0.17543E+04
 0.87999992E+01  0.34388E+04
 0.88499994E+01  0.53724E+04
 0.88999996E+01  0.74355E+04
 0.89499998E+01  0.95227E+04
 0.89999990E+01  0.11485E+05
 0.90499992E+01  0.13207E+05
 0.90999994E+01  0.14650E+05
 0.91499996E+01  0.15682E+05
 0.91999989E+01  0.16324E+05
 0.92499990E+01  0.16633E+05
 0.92999992E+01  0.16578E+05
 0.93499994E+01  0.16125E+05
 0.93999996E+01  0.15178E+05
 0.94499989E+01  0.13768E+05
 0.94999990E+01  0.11930E+05
 0.95499992E+01  0.96969E+04
 0.95999994E+01  0.71409E+04
 0.96499996E+01  0.43566E+04
 0.96999989E+01  0.14866E+04
 0.97499990E+01 -0.13142E+04
 0.97999992E+01 -0.39069E+04
 0.98499994E+01 -0.62018E+04
 0.98999996E+01 -0.81247E+04
 0.99499989E+01 -0.96154E+04
 0.99999990E+01 -0.10707E+05
 0.10049999E+02 -0.11530E+05
 0.10099999E+02 -0.12146E+05
 0.10150000E+02 -0.12595E+05
 0.10199999E+02 -0.12937E+05
 0.10249999E+02 -0.13219E+05
 0.10299999E+02 -0.13443E+05
 0.10349999E+02 -0.13550E+05
 0.10400000E+02 -0.13499E+05
 0.10449999E+02 -0.13364E+05
 0.10499999E+02 -0.13174E+05
 0.10549999E+02 -0.12980E+05
 0.10599999E+02 -0.12853E+05
 0.10650000E+02 -0.12860E+05
 0.10699999E+02 -0.13014E+05
 0.10749999E+02 -0.13275E+05
 0.10799999E+02 -0.13597E+05
 0.10849999E+02 -0.13851E+05
 0.10900000E+02 -0.13894E+05
 0.10949999E+02 -0.13678E+05
 0.10999999E+02 -0.13193E+05
 0.11049999E+02 -0.12450E+05
 0.11099999E+02 -0.11517E+05
 0.11150000E+02 -0.10376E+05
 0.11199999E+02 -0.91343E+04
 0.11249999E+02 -0.78909E+04
 0.11299999E+02 -0.67790E+04
 0.11349999E+02 -0.58642E+04
 0.11400000E+02 -0.51396E+04
 0.11449999E+02 -0.45917E+04
 0.11499999E+02 -0.41985E+04
 0.11549999E+02 -0.39594E+04
 0.11599999E+02 -0.38198E+04
 0.11650000E+02 -0.37783E+04
 0.11699999E+02 -0.38693E+04
 0.11749999E+02 -0.39723E+04
 0.11799999E+02 -0.39935E+04
 0.11849999E+02 -0.40092E+04
 0.11900000E+02 -0.39491E+04
 0.11949999E+02 -0.37718E+04
 0.11999999E+02 -0.34204E+04
 0.12049999E+02 -0.29074E+04
 0.12099999E+02 -0.23202E+04
 0.12150000E+02 -0.17058E+04
 0.12199999E+02 -0.10462E+04
 0.12249999E+02 -0.33425E+03
 0.12299999E+02  0.31449E+03
 0.12349999E+02  0.78962E+03
 0.12400000E+02  0.11400E+04
 0.12449999E+02  0.14363E+04
 0.12499999E+02  0.15761E+04
 0.12549999E+02  0.16112E+04
 0.12599999E+02  0.16830E+04
 0.12649999E+02  0.16922E+04
 0.12699999E+02  0.15713E+04
 0.12749999E+02  0.13296E+04
 0.12799999E+02  0.95758E+03
 0.12849999E+02  0.38402E+03
 0.12899999E+02 -0.39180E+03
 0.12949999E+02 -0.13832E+04
 0.12999999E+02 -0.25973E+04
 0.13049999E+02 -0.38550E+04
 0.13099999E+02 -0.50929E+04
 0.13149999E+02 -0.63782E+04
 0.13199999E+02 -0.76260E+04
 0.13249999E+02 -0.87581E+04
 0.13299999E+02 -0.97906E+04
 0.13349999E+02 -0.10668E+05
 0.13399999E+02 -0.11432E+05
 0.13449999E+02 -0.12055E+05
 0.13499999E+02 -0.12483E+05
 0.13549999E+02 -0.12765E+05
 0.13599999E+02 -0.12799E+05
 0.13649999E+02 -0.12514E+05
 0.13699999E+02 -0.12017E+05
 0.13749999E+02 -0.11312E+05
 0.13799999E+02 -0.10331E+05
 0.13849999E+02 -0.91123E+04
 0.13899999E+02 -0.77645E+04
 0.13949999E+02 -0.63501E+04
 0.13999999E+02 -0.48313E+04
 0.14049999E+02 -0.32031E+04
 0.14099998E+02 -0.14402E+04
 0.14150000E+02  0.56699E+03
 0.14199999E+02  0.27555E+04
 0.14249998E+02  0.50339E+04
 0.14299999E+02  0.73461E+04
 0.14349998E+02  0.95895E+04
 0.14400000E+02  0.11655E+05
 0.14449999E+02  0.13346E+05
 0.14499998E+02  0.14618E+05
 0.14549999E+02  0.15538E+05
 0.14599998E+02  0.15967E+05
 0.14650000E+02  0.15768E+05
 0.14699999E+02  0.14995E+05
 0.14749998E+02  0.13782E+05
 0.14799999E+02  0.12187E+05
 0.14849998E+02  0.10234E+05
 0.14900000E+02  0.81228E+04
 0.14949999E+02  0.60010E+04
 0.14999998E+02  0.39423E+04
 0.15049999E+02  0.19817E+04
 0.15099998E+02  0.15013E+03
 0.15150000E+02 -0.14038E+04
 0.15199999E+02 -0.26263E+04
 0.15249998E+02 -0.33763E+04
 0.15299999E+02 -0.36654E+04
 0.15349998E+02 -0.36334E+04
 0.15400000E+02 -0.32344E+04
 0.15449999E+02 -0.25744E+04
 0.15499998E+02 -0.17284E+04
 0.15549999E+02 -0.81117E+03
 0.15599998E+02  0.10326E+03
 0.15650000E+02  0.10700E+04
 0.15699999E+02  0.20398E+04
 0.15749998E+02  0.29588E+04
 0.15799999E+02  0.37845E+04
 0.15849998E+02  0.44550E+04
 0.15900000E+02  0.49335E+04
 0.15949999E+02  0.52853E+04
 0.15999998E+02  0.55168E+04
 0.16049999E+02  0.55324E+04
 0.16099998E+02  0.53553E+04
 0.16150000E+02  0.50885E+04
 0.16199999E+02  0.48849E+04
 0.16249998E+02  0.47623E+04
 0.16299999E+02  0.47104E+04
 0.16349998E+02  0.46671E+04
 0.16400000E+02  0.45794E+04
 0.16449999E+02  0.45550E+04
 0.16499998E+02  0.45045E+04
 0.16549999E+02  0.44614E+04
 0.16599998E+02  0.44375E+04
 0.16650000E+02  0.43928E+04
 0.16699999E+02  0.43930E+04
 0.16749998E+02  0.45259E+04
 0.16799999E+02  0.46744E+04
 0.16849998E+02  0.47997E+04
 0.16900000E+02  0.49862E+04
 0.16949999E+02  0.52244E+04
 0.16999998E+02  0.56419E+04
 0.17049999E+02  0.62106E+04
 0.17099998E+02  0.67766E+04
 0.17150000E+02  0.73232E+04
 0.17199999E+02  0.79976E+04
 0.17249998E+02  0.87974E+04
 0.17299999E+02  0.96318E+04
 0.17349998E+02  0.10392E+05
 0.17400000E+02  0.10941E+05
 0.17449999E+02  0.11203E+05
 0.17499998E+02  0.11100E+05
 0.17549999E+02  0.10573E+05
 0.17599998E+02  0.96508E+04
 0.17650000E+02  0.83966E+04
 0.17699999E+02  0.68583E+04
 0.17749998E+02  0.49679E+04
 0.17799999E+02  0.28422E+04
 0.17849998E+02  0.65027E+03
 0.17900000E+02 -0.14773E+04
 0.17949999E+02 -0.33443E+04
 0.17999998E+02 -0.49675E+04
 0.18049999E+02 -0.62461E+04
 0.18099998E+02 -0.70620E+04
 0.18150000E+02 -0.74621E+04
 0.18199999E+02 -0.73943E+04
 0.18249998E+02 -0.68485E+04
 0.18299999E+02 -0.58947E+04
 0.18349998E+02 -0.46147E+04
 0.18400000E+02 -0.32034E+04
 0.18449999E+02 -0.17351E+04
 0.18499998E+02 -0.33099E+03
 0.18549999E+02  0.91123E+03
 0.18599998E+02  0.18906E+04
 0.18650000E+02  0.25878E+04
 0.18699999E+02  0.31477E+04
 0.18749998E+02  0.36130E+04
 0.18799999E+02  0.39989E+04
 0.18849998E+02  0.44117E+04
 0.18900000E+02  0.48591E+04
 0.18949999E+02  0.52646E+04
 0.18999998E+02  0.57945E+04
 0.19049999E+02  0.64648E+04
 0.19099998E+02  0.71839E+04
 0.19150000E+02  0.79289E+04
 0.19199999E+02  0.87409E+04
 0.19249998E+02  0.95711E+04
 0.19299999E+02  0.10318E+05
 0.19349998E+02  0.10978E+05
 0.19400000E+02  0.11486E+05
 0.19449999E+02  0.11766E+05
 0.19499998E+02  0.11766E+05
 0.19549999E+02  0.11479E+05
 0.19599998E+02  0.10851E+05
 0.19650000E+02  0.98473E+04
 0.19699999E+02  0.85232E+04
 0.19749998E+02  0.69583E+04
 0.19799999E+02  0.51859E+04
 0.19849998E+02  0.33107E+04
 0.19900000E+02  0.14801E+04
 0.19949999E+02 -0.25280E+03
 0.19999998E+02 -0.18265E+04
 0.20049999E+02 -0.31609E+04
 0.20099998E+02 -0.43049E+04
 0.20150000E+02 -0.52639E+04
 0.20199999E+02 -0.59669E+04
 0.20249998E+02 -0.65242E+04
 0.20299999E+02 -0.69927E+04
 0.20349998E+02 -0.73391E+04
 0.20399998E+02 -0.75397E+04
 0.20449999E+02 -0.75830E+04
 0.20499998E+02 -0.74945E+04
 0.20549999E+02 -0.73642E+04
 0.20599998E+02 -0.71895E+04
 0.20649998E+02 -0.69063E+04
 0.20699999E+02 -0.64902E+04
 0.20749998E+02 -0.59908E+04
 0.20799999E+02 -0.54829E+04
 0.20849998E+02 -0.49688E+04
 0.20899998E+02 -0.44599E+04
 0.20949999E+02 -0.39388E+04
 0.20999998E+02 -0.33686E+04
 0.21049999E+02 -0.26898E+04
 0.21099998E+02 -0.19822E+04
 0.21149998E+02 -0.13165E+04
 0.21199999E+02 -0.64871E+03
 0.21249998E+02  0.57218E+02
 0.21299999E+02  0.78390E+03
 0.21349998E+02  0.15351E+04
 0.21399998E+02  0.23434E+04
 0.21449999E+02  0.31942E+04
 0.21499998E+02  0.40642E+04
 0.21549999E+02  0.49160E+04
 0.21599998E+02  0.57848E+04
 0.21649998E+02  0.66810E+04
 0.21699999E+02  0.75538E+04
 0.21749998E+02  0.83467E+04
 0.21799999E+02  0.89306E+04
 0.21849998E+02  0.92302E+04
 0.21899998E+02  0.93880E+04
 0.21949999E+02  0.94228E+04
 0.21999998E+02  0.92491E+04
 0.22049999E+02  0.88598E+04
 0.22099998E+02  0.82282E+04
 0.22149998E+02  0.74677E+04
 0.22199999E+02  0.67214E+04
 0.22249998E+02  0.60093E+04
 0.22299999E+02  0.53552E+04
 0.22349998E+02  0.47504E+04
 0.22399998E+02  0.41354E+04
 0.22449999E+02  0.34215E+04
 0.22499998E+02  0.25538E+04
 0.22549999E+02  0.16571E+04
 0.22599998E+02  0.77416E+03
 0.22649998E+02 -0.80502E+02
 0.22699999E+02 -0.86767E+03
 0.22749998E+02 -0.15745E+04
 0.22799999E+02 -0.21562E+04
 0.22849998E+02 -0.26597E+04
 0.22899998E+02 -0.31499E+04
 0.22949999E+02 -0.34734E+04
 0.22999998E+02 -0.35489E+04
 0.23049999E+02 -0.34398E+04
 0.23099998E+02 -0.30180E+04
 0.23149998E+02 -0.22438E+04
 0.23199999E+02 -0.11725E+04
 0.23249998E+02  0.15517E+03
 0.23299999E+02  0.18266E+04
 0.23349998E+02  0.39281E+04
 0.23399998E+02  0.63126E+04
 0.23449999E+02  0.87995E+04
 0.23499998E+02  0.11366E+05
 0.23549999E+02  0.14045E+05
 0.23599998E+02  0.16659E+05
 0.23649998E+02  0.19014E+05
 0.23699999E+02  0.21115E+05
 0.23749998E+02  0.22951E+05
 0.23799999E+02  0.24435E+05
 0.23849998E+02  0.25527E+05
 0.23899998E+02  0.26258E+05
 0.23949999E+02  0.26647E+05
 0.23999998E+02  0.26549E+05
 0.24049999E+02  0.25880E+05
 0.24099998E+02  0.24685E+05
 0.24149998E+02  0.23050E+05
 0.24199999E+02  0.21055E+05
 0.24249998E+02  0.18676E+05
 0.24299999E+02  0.15970E+05
 0.24349998E+02  0.13044E+05
 0.24399998E+02  0.10057E+05
 0.24449999E+02  0.70315E+04
 0.24499998E+02  0.39269E+04
 0.24549999E+02  0.90894E+03
 0.24599998E+02 -0.18609E+04
 0.24649998E+02 -0.43876E+04
 0.24699999E+02 -0.67013E+04
 0.24749998E+02 -0.86292E+04
 0.24799999E+02 -0.10222E+05
 0.24849998E+02 -0.11535E+05
 0.24899998E+02 -0.12505E+05
 0.24949999E+02 -0.13199E+05
 0.24999998E+02 -0.13650E+05
 0.25049999E+02 -0.13830E+05
 0.25099998E+02 -0.13774E+05
 0.25149998E+02 -0.13539E+05
 0.25199999E+02 -0.13097E+05
 0.25249998E+02 -0.12582E+05
 0.25299999E+02 -0.12000E+05
 0.25349998E+02 -0.11286E+05
 0.25399998E+02 -0.10454E+05
 0.25449999E+02 -0.95693E+04
 0.25499998E+02 -0.86582E+04
 0.25549999E+02 -0.76397E+04
 0.25599998E+02 -0.65880E+04
 0.25649998E+02 -0.54816E+04
 0.25699999E+02 -0.43098E+04
 0.25749998E+02 -0.30851E+04
 0.25799999E+02 -0.18178E+04
 0.25849998E+02 -0.57534E+03
 0.25899998E+02  0.59961E+03
 0.25949999E+02  0.16560E+04
 0.25999998E+02  0.25817E+04
 0.26049999E+02  0.33357E+04
 0.26099998E+02  0.38754E+04
 0.26149998E+02  0.41857E+04
 0.26199999E+02  0.42565E+04
 0.26249998E+02  0.42074E+04
 0.26299999E+02  0.39991E+04
 0.26349998E+02  0.35161E+04
 0.26399998E+02  0.29138E+04
 0.26449999E+02  0.23522E+04
 0.26499998E+02  0.16996E+04
 0.26549999E+02  0.80927E+03
 0.26599998E+02 -0.23476E+03
 0.26649998E+02 -0.13496E+04
 0.26699999E+02 -0.25913E+04
 0.26749998E+02 -0.38102E+04
 0.26799999E+02 -0.47622E+04
 0.26849998E+02 -0.56218E+04
 0.26899998E+02 -0.66841E+04
 0.26949999E+02 -0.77346E+04
 0.26999998E+02 -0.84395E+04
 0.27049997E+02 -0.91535E+04
 0.27099998E+02 -0.10341E+05
 0.27149998E+02 -0.11622E+05
 0.27199999E+02 -0.12411E+05
 0.27249998E+02 -0.13273E+05
 0.27299997E+02 -0.14697E+05
 0.27349998E+02 -0.16257E+05
 0.27399998E+02 -0.17236E+05
 0.27449999E+02 -0.17953E+05
 0.27499998E+02 -0.18621E+05
 0.27549997E+02 -0.19128E+05
 0.27599998E+02 -0.19449E+05
 0.27649998E+02 -0.19613E+05
 0.27699999E+02 -0.19906E+05
 0.27749998E+02 -0.19904E+05
 0.27799997E+02 -0.19611E+05
 0.27849998E+02 -0.19305E+05
 0.27899998E+02 -0.18869E+05
 0.27949999E+02 -0.17821E+05
 0.27999998E+02 -0.17033E+05
 0.28049997E+02 -0.16723E+05
 0.28099998E+02 -0.16460E+05
 0.28149998E+02 -0.15709E+05
 0.28199999E+02 -0.14939E+05
 0.28249998E+02 -0.14721E+05
 0.28299997E+02 -0.14730E+05
 0.28349998E+02 -0.14927E+05
 0.28399998E+02 -0.15251E+05
 0.28449999E+02 -0.15904E+05
 0.28499998E+02 -0.16321E+05
 0.28549997E+02 -0.17151E+05
 0.28599998E+02 -0.18744E+05
 0.28649998E+02 -0.20143E+05
 0.28699999E+02 -0.20420E+05
 0.28749998E+02 -0.20723E+05
 0.28799997E+02 -0.22250E+05
 0.28849998E+02 -0.23745E+05
 0.28899998E+02 -0.24088E+05
 0.28949999E+02 -0.24812E+05
 0.28999998E+02 -0.26796E+05
 0.29049997E+02 -0.28374E+05
 0.29099998E+02 -0.28744E+05
 0.29149998E+02 -0.29224E+05
 0.29199999E+02 -0.29727E+05
 0.29249998E+02 -0.29595E+05
 0.29299997E+02 -0.29494E+05
 0.29349998E+02 -0.29236E+05
 0.29399998E+02 -0.28452E+05
 0.29449999E+02 -0.27509E+05
 0.29499998E+02 -0.26490E+05
 0.29549997E+02 -0.24777E+05
 0.29599998E+02 -0.22922E+05
 0.29649998E+02 -0.21609E+05
 0.29699999E+02 -0.20152E+05
 0.29749998E+02 -0.18580E+05
 0.29799997E+02 -0.16474E+05
 0.29849998E+02 -0.13237E+05
 0.29899998E+02 -0.11517E+05
 0.29949999E+02 -0.11451E+05
 0.29999998E+02 -0.98059E+04
 0.30049999E+02 -0.64901E+04
 0.30099998E+02 -0.46695E+04
 0.30149998E+02 -0.40499E+04
 0.30199997E+02 -0.27689E+04
 0.30249996E+02 -0.48018E+03
 0.30299999E+02  0.10749E+04
 0.30349998E+02  0.23898E+04
 0.30399998E+02  0.44475E+04
 0.30449997E+02  0.55375E+04
 0.30499996E+02  0.68048E+04
 0.30549999E+02  0.82281E+04
 0.30599998E+02  0.94557E+04
 0.30649998E+02  0.95411E+04
 0.30699997E+02  0.82453E+04
 0.30749996E+02  0.84254E+04
 0.30799999E+02  0.10256E+05
 0.30849998E+02  0.10132E+05
 0.30899998E+02  0.62696E+04
 0.30949997E+02  0.43490E+04
 0.30999996E+02  0.59567E+04
 0.31049999E+02  0.46981E+04
 0.31099998E+02  0.13374E+04
 0.31149998E+02 -0.24056E+03
 0.31199997E+02 -0.34687E+03
 0.31249996E+02 -0.28717E+04
 0.31299999E+02 -0.76808E+04
 0.31349998E+02 -0.92906E+04
 0.31399998E+02 -0.95804E+04
 0.31449997E+02 -0.12463E+05
 0.31499996E+02 -0.14568E+05
 0.31549999E+02 -0.15348E+05
 0.31599998E+02 -0.14984E+05
 0.31649998E+02 -0.14893E+05
 0.31699997E+02 -0.10080E+05
 0.31749996E+02 -0.52384E+04
 0.31799999E+02 -0.47144E+04
 0.31849998E+02  0.54714E+03
 0.31899998E+02  0.49623E+04
 0.31949997E+02  0.38364E+04
 0.31999996E+02  0.58376E+04
 0.32049999E+02  0.10767E+05
 0.32099998E+02  0.11389E+05
 0.32149998E+02  0.12542E+05
 0.32199997E+02  0.14095E+05
 0.32249996E+02  0.12276E+05
 0.32299999E+02  0.14172E+05
 0.32349998E+02  0.21821E+05
 0.32399998E+02  0.24459E+05
 0.32449997E+02  0.26826E+05
 0.32499996E+02  0.31946E+05
 0.32549999E+02  0.42264E+05
 0.32599998E+02  0.45544E+05
 0.32649998E+02  0.41120E+05
 0.32699997E+02  0.41305E+05
 0.32749996E+02  0.46272E+05
 0.32799999E+02  0.62655E+05
 0.32849998E+02  0.63815E+05
 0.32899998E+02  0.56564E+05
 0.32949997E+02  0.55320E+05
 0.32999996E+02  0.64635E+05
 0.33049999E+02  0.69046E+05
 0.33099998E+02  0.51704E+05
 0.33149998E+02  0.44426E+05
 0.33199997E+02  0.45787E+05
 0.33249996E+02  0.35047E+05
 0.33299999E+02  0.22104E+05
 0.33349998E+02  0.18228E+05
 0.33399998E+02  0.26829E+04
 0.33449997E+02 -0.75221E+04
 0.33499996E+02  0.45105E+04
 0.33549999E+02  0.94957E+04
 0.33599998E+02  0.49361E+04
 0.33649998E+02  0.51898E+04
 0.33699997E+02  0.11544E+05
 0.33749996E+02  0.26889E+05
 0.33799999E+02  0.46624E+05
 0.33849998E+02  0.51807E+05
 0.33899998E+02  0.48643E+05
 0.33949997E+02  0.65733E+05
 0.33999996E+02  0.81026E+05
 0.34049999E+02  0.75583E+05
 0.34099998E+02  0.75870E+05
 0.34149998E+02  0.83688E+05
 0.34199997E+02  0.74867E+05
 0.34249996E+02  0.64135E+05
 0.34299999E+02  0.58259E+05
 0.34349998E+02  0.40478E+05
 0.34399998E+02  0.22534E+05
 0.34449997E+02  0.18510E+05
 0.34499996E+02  0.10933E+05
 0.34549999E+02 -0.23956E+04
 0.34599998E+02 -0.61473E+04
 0.34649998E+02 -0.16533E+05
 0.34699997E+02 -0.18171E+05
 0.34749996E+02 -0.13574E+05
 0.34799999E+02 -0.95891E+04
 0.34849998E+02 -0.21338E+05
 0.34899998E+02 -0.27216E+05
 0.34949997E+02 -0.17577E+05
 0.34999996E+02 -0.24038E+05
 0.35049999E+02 -0.27689E+05
 0.35099998E+02 -0.18006E+05
 0.35149998E+02 -0.10277E+05
 0.35199997E+02 -0.17253E+05
 0.35249996E+02 -0.82600E+04
 0.35299999E+02 -0.38721E+04
 0.35349998E+02 -0.93599E+02
 0.35399998E+02  0.18947E+05
 0.35449997E+02  0.47687E+05
 0.35499996E+02  0.56630E+05
 0.35549999E+02  0.41003E+05
 0.35599998E+02  0.37332E+05
 0.35649998E+02  0.28787E+05
 0.35699997E+02  0.30407E+05
 0.35749996E+02  0.40952E+05
 0.35799999E+02  0.40107E+05
 0.35849998E+02  0.17092E+05
 0.35899998E+02 -0.87104E+04
 0.35949997E+02 -0.52425E+04
 0.35999996E+02 -0.11026E+04
 0.36049999E+02 -0.21120E+05
 0.36099998E+02 -0.37751E+05
 0.36149998E+02 -0.28033E+05
 0.36199997E+02 -0.31911E+05
 0.36249996E+02 -0.67087E+05
 0.36299999E+02 -0.87362E+05
 0.36349998E+02 -0.87664E+05
 0.36399998E+02 -0.76282E+05
 0.36449997E+02 -0.84533E+05
 0.36499996E+02 -0.10017E+06
 0.36549999E+02 -0.92708E+05
 0.36599998E+02 -0.81472E+05
 0.36649998E+02 -0.71656E+05
 0.36699997E+02 -0.59860E+05
 0.36749996E+02 -0.29724E+05
 0.36799999E+02 -0.10114E+05
 0.36849998E+02 -0.14504E+05
 0.36899998E+02 -0.10687E+05
 0.36949997E+02  0.15033E+05
 0.36999996E+02  0.30041E+05
 0.37049999E+02  0.29478E+05
 0.37099998E+02  0.28874E+05
 0.37149998E+02  0.16818E+05
 0.37199997E+02  0.23904E+04
 0.37249996E+02 -0.95121E+04
 0.37299999E+02 -0.20762E+05
 0.37349998E+02 -0.47744E+05
 0.37399998E+02 -0.65596E+05
 0.37449997E+02 -0.72107E+05
 0.37499996E+02 -0.95822E+05
 0.37549999E+02 -0.13535E+06
 0.37599998E+02 -0.15620E+06
 0.37649998E+02 -0.14009E+06
 0.37699997E+02 -0.11437E+06
 0.37749996E+02 -0.10305E+06
 0.37799999E+02 -0.11439E+06
 0.37849998E+02 -0.10820E+06
 0.37899998E+02 -0.60829E+05
 0.37949997E+02  0.70712E+04
 0.37999996E+02  0.32395E+05
 0.38049999E+02  0.31026E+05
 0.38099998E+02  0.48662E+05
 0.38149998E+02  0.78262E+05
 0.38199997E+02  0.90106E+05
 0.38249996E+02  0.58681E+05
 0.38299999E+02  0.48665E+05
 0.38349998E+02  0.48922E+05
 0.38399998E+02  0.19006E+05
 0.38449997E+02 -0.78147E+04
 0.38499996E+02 -0.91790E+04
 0.38549999E+02  0.14184E+05
 0.38599998E+02  0.28786E+05
 0.38649998E+02  0.37097E+05
 0.38699997E+02  0.44378E+05
 0.38749996E+02  0.33826E+05
 0.38799999E+02  0.36145E+05
 0.38849998E+02  0.57489E+05
 0.38899998E+02  0.57973E+05
 0.38949997E+02  0.44988E+05
 0.38999996E+02  0.45064E+05
 0.39049999E+02  0.49484E+05
 0.39099998E+02  0.48852E+05
 0.39149998E+02  0.44552E+05
 0.39199997E+02  0.45286E+05
 0.39249996E+02  0.43089E+05
 0.39299999E+02  0.37834E+05
 0.39349998E+02  0.33698E+05
 0.39399998E+02  0.23592E+05
 0.39449997E+02  0.52130E+04
 0.39499996E+02 -0.14734E+05
 0.39549999E+02 -0.77006E+04
 0.39599998E+02  0.27552E+05
 0.39649998E+02  0.58795E+05
 0.39699997E+02  0.69784E+05
 0.39749996E+02  0.82506E+05
 0.39799999E+02  0.11031E+06
 0.39849998E+02  0.13494E+06
 0.39899998E+02  0.14813E+06
 0.39949997E+02  0.15126E+06
 0.39999996E+02  0.15005E+06
 0.40049999E+02  0.15172E+06
 0.40099998E+02  0.15632E+06
 0.40149998E+02  0.16252E+06
 0.40199997E+02  0.17013E+06
 0.40249996E+02  0.17476E+06
 0.40299999E+02  0.16487E+06
 0.40349998E+02  0.13661E+06
 0.40399998E+02  0.10294E+06
 0.40449997E+02  0.76359E+05
 0.40499996E+02  0.53637E+05
 0.40549999E+02  0.24319E+05
 0.40599998E+02 -0.17440E+05
 0.40649998E+02 -0.60168E+05
 0.40699997E+02 -0.85975E+05
 0.40749996E+02 -0.94398E+05
 0.40799999E+02 -0.93088E+05
 0.40849998E+02 -0.78946E+05
 0.40899998E+02 -0.59690E+05
 0.40949997E+02 -0.35034E+05
 0.40999996E+02 -0.12175E+05
 0.41049999E+02 -0.12589E+05
 0.41099998E+02 -0.18791E+05
 0.41149998E+02 -0.18345E+05
 0.41199997E+02 -0.10500E+05
 0.41249996E+02  0.19951E+05
 0.41299999E+02  0.50855E+05
 0.41349998E+02  0.52640E+05
 0.41399998E+02  0.47705E+05
 0.41449997E+02  0.50886E+05
 0.41499996E+02  0.50221E+05
 0.41549999E+02  0.37918E+05
 0.41599998E+02  0.59276E+04
 0.41649998E+02 -0.15463E+05
 0.41699997E+02 -0.15878E+05
 0.41749996E+02 -0.32293E+05
 0.41799999E+02 -0.64502E+05
 0.41849998E+02 -0.70024E+05
 0.41899998E+02 -0.40935E+05
 0.41949997E+02 -0.41008E+05
 0.41999996E+02 -0.65838E+05
 0.42049999E+02 -0.64457E+05
 0.42099998E+02 -0.30434E+05
 0.42149998E+02  0.35858E+04
 0.42199997E+02  0.55493E+04
 0.42249996E+02  0.52369E+04
 0.42299999E+02  0.33266E+05
 0.42349998E+02  0.72505E+05
 0.42399998E+02  0.90365E+05
 0.42449997E+02  0.94841E+05
 0.42499996E+02  0.10840E+06
 0.42549999E+02  0.12340E+06
 0.42599998E+02  0.10506E+06
 0.42649998E+02  0.70411E+05
 0.42699997E+02  0.55842E+05
 0.42749996E+02  0.59158E+05
 0.42799995E+02  0.55608E+05
 0.42849998E+02  0.27992E+05
 0.42899998E+02  0.28555E+05
 0.42949997E+02  0.70390E+05
 0.42999996E+02  0.97018E+05
 0.43049995E+02  0.80626E+05
 0.43099998E+02  0.56525E+05
 0.43149998E+02  0.48512E+05
 0.43199997E+02  0.29959E+05
 0.43249996E+02 -0.50932E+04
 0.43299995E+02 -0.36268E+05
 0.43349998E+02 -0.55409E+05
 0.43399998E+02 -0.70361E+05
 0.43449997E+02 -0.88151E+05
 0.43499996E+02 -0.10125E+06
 0.43549995E+02 -0.10237E+06
 0.43599998E+02 -0.10279E+06
 0.43649998E+02 -0.10718E+06
 0.43699997E+02 -0.96113E+05
 0.43749996E+02 -0.70133E+05
 0.43799995E+02 -0.55322E+05
 0.43849998E+02 -0.47674E+05
 0.43899998E+02 -0.30155E+05
 0.43949997E+02 -0.11403E+05
 0.43999996E+02 -0.72982E+04
 0.44049995E+02 -0.11962E+05
 0.44099998E+02 -0.15670E+05
 0.44149998E+02 -0.11146E+05
 0.44199997E+02  0.16914E+05
 0.44249996E+02  0.49359E+05
 0.44299995E+02  0.75301E+05
 0.44349998E+02  0.97060E+05
 0.44399998E+02  0.10122E+06
 0.44449997E+02  0.93069E+05
 0.44499996E+02  0.89441E+05
 0.44549995E+02  0.83704E+05
 0.44599998E+02  0.66736E+05
 0.44649998E+02  0.55342E+05
 0.44699997E+02  0.38653E+05
 0.44749996E+02  0.91668E+04
 0.44799995E+02 -0.25019E+05
 0.44849998E+02 -0.47834E+05
 0.44899998E+02 -0.55227E+05
 0.44949997E+02 -0.46940E+05
 0.44999996E+02 -0.20669E+05
 0.45049995E+02  0.28105E+03
 0.45099998E+02  0.17605E+05
 0.45149998E+02  0.41129E+05
 0.45199997E+02  0.58876E+05
 0.45249996E+02  0.59556E+05
 0.45299995E+02  0.55721E+05
 0.45349998E+02  0.59602E+05
 0.45399998E+02  0.58973E+05
 0.45449997E+02  0.40274E+05
 0.45499996E+02  0.19948E+05
 0.45549995E+02 -0.22229E+04
 0.45599998E+02 -0.24464E+05
 0.45649998E+02 -0.30527E+05
 0.45699997E+02 -0.20295E+05
 0.45749996E+02  0.11097E+05
 0.45799995E+02  0.48956E+05
 0.45849998E+02  0.56121E+05
 0.45899998E+02  0.43435E+05
 0.45949997E+02  0.46132E+05
 0.45999996E+02  0.48545E+05
 0.46049995E+02  0.37276E+05
 0.46099998E+02  0.25788E+05
 0.46149998E+02  0.17712E+05
 0.46199997E+02  0.14710E+05
 0.46249996E+02  0.11926E+05
 0.46299995E+02 -0.29377E+04
 0.46349998E+02 -0.90692E+04
 0.46399998E+02  0.35752E+04
 0.46449997E+02  0.13839E+05
 0.46499996E+02  0.10543E+05
 0.46549995E+02  0.98661E+04
 0.46599998E+02  0.12699E+05
 0.46649998E+02  0.11080E+05
 0.46699997E+02  0.72756E+04
 0.46749996E+02 -0.42023E+03
 0.46799995E+02 -0.59077E+04
 0.46849998E+02 -0.95766E+04
 0.46899998E+02 -0.12594E+05
 0.46949997E+02 -0.17688E+05
 0.46999996E+02 -0.24865E+05
 0.47049995E+02 -0.21955E+05
 0.47099998E+02 -0.13737E+05
 0.47149998E+02 -0.15512E+05
 0.47199997E+02 -0.36936E+05
 0.47249996E+02 -0.71114E+05
 0.47299995E+02 -0.96184E+05
 0.47349998E+02 -0.10574E+06
 0.47399998E+02 -0.10187E+06
 0.47449997E+02 -0.99101E+05
 0.47499996E+02 -0.10724E+06
 0.47549995E+02 -0.10959E+06
 0.47599998E+02 -0.10244E+06
 0.47649998E+02 -0.98012E+05
 0.47699997E+02 -0.97678E+05
 0.47749996E+02 -0.98176E+05
 0.47799995E+02 -0.10300E+06
 0.47849998E+02 -0.11216E+06
 0.47899998E+02 -0.11043E+06
 0.47949997E+02 -0.10834E+06
 0.47999996E+02 -0.12609E+06
 0.48049995E+02 -0.14976E+06
 0.48099998E+02 -0.15710E+06
 0.48149998E+02 -0.15346E+06
 0.48199997E+02 -0.15194E+06
 0.48249996E+02 -0.14231E+06
 0.48299995E+02 -0.11575E+06
 0.48349998E+02 -0.77036E+05
 0.48399998E+02 -0.55326E+05
 0.48449997E+02 -0.58145E+05
 0.48499996E+02 -0.53342E+05
 0.48549995E+02 -0.46430E+05
 0.48599998E+02 -0.44096E+05
 0.48649998E+02 -0.49940E+05
 0.48699997E+02 -0.49693E+05
 0.48749996E+02 -0.42483E+05
 0.48799995E+02 -0.49588E+05
 0.48849998E+02 -0.57921E+05
 0.48899998E+02 -0.62731E+05
 0.48949997E+02 -0.72227E+05
 0.48999996E+02 -0.93950E+05
 0.49049995E+02 -0.11462E+06
 0.49099998E+02 -0.12929E+06
 0.49149998E+02 -0.13420E+06
 0.49199997E+02 -0.14170E+06
 0.49249996E+02 -0.15271E+06
 0.49299995E+02 -0.14712E+06
 0.49349998E+02 -0.13607E+06
 0.49399998E+02 -0.12980E+06
 0.49449997E+02 -0.12837E+06
 0.49499996E+02 -0.11710E+06
 0.49549995E+02 -0.91402E+05
 0.49599998E+02 -0.61956E+05
 0.49649998E+02 -0.39513E+05
 0.49699997E+02 -0.33140E+05
 0.49749996E+02 -0.15916E+05
 0.49799995E+02  0.61315E+04
 0.49849998E+02  0.12527E+05
 0.49899998E+02  0.17791E+05
 0.49949997E+02  0.18975E+05
 0.49999996E+02  0.66574E+04
 0.50049995E+02 -0.12018E+05
 0.50099998E+02 -0.26226E+05
 0.50149998E+02 -0.45808E+05
 0.50199997E+02 -0.65169E+05
 0.50249996E+02 -0.84176E+05
 0.50299995E+02 -0.10252E+06
 0.50349998E+02 -0.10096E+06
 0.50399998E+02 -0.73413E+05
 0.50449997E+02 -0.43784E+05
 0.50499996E+02 -0.40694E+05
 0.50549995E+02 -0.46108E+05
 0.50599998E+02 -0.40056E+05
 0.50649998E+02 -0.27594E+05
 0.50699997E+02 -0.14046E+05
 0.50749996E+02 -0.62932E+04
 0.50799995E+02  0.76172E+04
 0.50849998E+02  0.26378E+05
 0.50899998E+02  0.40042E+05
 0.50949997E+02  0.45160E+05
 0.50999996E+02  0.36030E+05
 0.51049995E+02  0.33689E+05
 0.51099998E+02  0.35857E+05
 0.51149998E+02  0.33117E+05
 0.51199997E+02  0.22814E+05
 0.51249996E+02  0.12058E+05
 0.51299995E+02  0.30627E+04
 0.51349998E+02 -0.76027E+04
 0.51399998E+02 -0.77664E+04
 0.51449997E+02  0.27323E+04
 0.51499996E+02  0.25175E+05
 0.51549995E+02  0.55568E+05
 0.51599998E+02  0.79861E+05
 0.51649998E+02  0.89402E+05
 0.51699997E+02  0.99467E+05
 0.51749996E+02  0.11507E+06
 0.51799995E+02  0.13177E+06
 0.51849998E+02  0.14587E+06
 0.51899998E+02  0.14488E+06
 0.51949997E+02  0.14065E+06
 0.51999996E+02  0.13510E+06
 0.52049995E+02  0.11995E+06
 0.52099998E+02  0.10102E+06
 0.52149998E+02  0.77284E+05
 0.52199997E+02  0.50845E+05
 0.52249996E+02  0.26300E+05
 0.52299995E+02  0.14735E+05
 0.52349998E+02  0.24855E+05
 0.52399998E+02  0.43989E+05
 0.52449997E+02  0.66059E+05
 0.52499996E+02  0.80569E+05
 0.52549995E+02  0.80396E+05
 0.52599998E+02  0.80960E+05
 0.52649998E+02  0.88320E+05
 0.52699997E+02  0.98289E+05
 0.52749996E+02  0.10175E+06
 0.52799995E+02  0.87566E+05
 0.52849998E+02  0.58704E+05
 0.52899998E+02  0.24470E+05
 0.52949997E+02  0.64016E+04
 0.52999996E+02 -0.24209E+04
 0.53049995E+02 -0.15696E+05
 0.53099998E+02 -0.13106E+05
 0.53149998E+02  0.11945E+05
 0.53199997E+02  0.48800E+05
 0.53249996E+02  0.65565E+05
 0.53299995E+02  0.51937E+05
 0.53349998E+02  0.43479E+05
 0.53399998E+02  0.40414E+05
 0.53449997E+02  0.31815E+05
 0.53499996E+02  0.25685E+05
 0.53549995E+02  0.23644E+05
 0.53599998E+02  0.15883E+05
 0.53649998E+02 -0.57977E+04
 0.53699997E+02 -0.20024E+05
 0.53749996E+02 -0.26362E+05
 0.53799995E+02 -0.30581E+05
 0.53849998E+02 -0.26982E+05
 0.53899998E+02 -0.18670E+05
 0.53949997E+02 -0.98123E+04
 0.53999996E+02  0.71599E+03
 0.54049995E+02  0.87623E+04
 0.54099998E+02  0.21843E+05
 0.54149998E+02  0.42154E+05
 0.54199997E+02  0.49891E+05
 0.54249996E+02  0.40788E+05
 0.54299995E+02  0.26033E+05
 0.54349998E+02  0.14978E+05
 0.54399998E+02  0.13483E+05
 0.54449997E+02  0.23066E+05
 0.54499996E+02  0.33040E+05
 0.54549995E+02  0.56031E+05
 0.54599998E+02  0.83108E+05
 0.54649998E+02  0.95277E+05
 0.54699997E+02  0.99645E+05
 0.54749996E+02  0.96099E+05
 0.54799995E+02  0.99891E+05
 0.54849998E+02  0.11169E+06
 0.54899998E+02  0.12822E+06
 0.54949997E+02  0.14659E+06
 0.54999996E+02  0.15984E+06
 0.55049995E+02  0.16404E+06
 0.55099998E+02  0.15568E+06
 0.55149998E+02  0.15672E+06
 0.55199997E+02  0.17763E+06
 0.55249996E+02  0.20456E+06
 0.55299995E+02  0.21022E+06
 0.55349998E+02  0.19045E+06
 0.55399998E+02  0.16604E+06
 0.55449997E+02  0.15803E+06
 0.55499996E+02  0.17937E+06
 0.55549995E+02  0.20895E+06
 0.55599998E+02  0.23128E+06
 0.55649998E+02  0.24097E+06
 0.55699997E+02  0.24246E+06
 0.55749996E+02  0.23623E+06
 0.55799995E+02  0.23261E+06
 0.55849995E+02  0.23497E+06
 0.55899998E+02  0.21223E+06
 0.55949997E+02  0.16941E+06
 0.55999996E+02  0.12035E+06
 0.56049995E+02  0.71535E+05
 0.56099995E+02  0.30984E+05
 0.56149998E+02  0.70244E+04
 0.56199997E+02 -0.43826E+04
 0.56249996E+02 -0.12271E+05
 0.56299995E+02 -0.28741E+05
 0.56349995E+02 -0.65986E+05
 0.56399998E+02 -0.11840E+06
 0.56449997E+02 -0.18008E+06
 0.56499996E+02 -0.25370E+06
 0.56549995E+02 -0.31275E+06
 0.56599995E+02 -0.34323E+06
 0.56649998E+02 -0.34818E+06
 0.56699997E+02 -0.32023E+06
 0.56749996E+02 -0.28076E+06
 0.56799995E+02 -0.24265E+06
 0.56849995E+02 -0.19756E+06
 0.56899998E+02 -0.13609E+06
 0.56949997E+02 -0.90802E+05
 0.56999996E+02 -0.82164E+05
 0.57049995E+02 -0.90400E+05
 0.57099995E+02 -0.10169E+06
 0.57149998E+02 -0.10983E+06
 0.57199997E+02 -0.11198E+06
 0.57249996E+02 -0.11387E+06
 0.57299995E+02 -0.99617E+05
 0.57349995E+02 -0.61834E+05
 0.57399998E+02 -0.24380E+05
 0.57449997E+02 -0.15072E+04
 0.57499996E+02 -0.28126E+04
 0.57549995E+02  0.65832E+04
 0.57599995E+02  0.36221E+05
 0.57649998E+02  0.38252E+05
 0.57699997E+02  0.61134E+04
 0.57749996E+02 -0.27896E+05
 0.57799995E+02 -0.46309E+05
 0.57849995E+02 -0.46274E+05
 0.57899998E+02 -0.29926E+05
 0.57949997E+02 -0.17979E+05
 0.57999996E+02 -0.14982E+05
 0.58049995E+02 -0.18966E+05
 0.58099995E+02 -0.28142E+05
 0.58149998E+02 -0.40419E+05
 0.58199997E+02 -0.63868E+05
 0.58249996E+02 -0.87906E+05
 0.58299995E+02 -0.88590E+05
 0.58349995E+02 -0.59787E+05
 0.58399998E+02 -0.25970E+05
 0.58449997E+02 -0.41845E+04
 0.58499996E+02  0.11643E+05
 0.58549995E+02  0.10187E+05
 0.58599995E+02 -0.16227E+05
 0.58649998E+02 -0.50113E+05
 0.58699997E+02 -0.83971E+05
 0.58749996E+02 -0.10956E+06
 0.58799995E+02 -0.12868E+06
 0.58849995E+02 -0.15645E+06
 0.58899998E+02 -0.18895E+06
 0.58949997E+02 -0.20299E+06
 0.58999996E+02 -0.19294E+06
 0.59049995E+02 -0.16743E+06
 0.59099995E+02 -0.13191E+06
 0.59149998E+02 -0.73409E+05
 0.59199997E+02 -0.92177E+04
 0.59249996E+02  0.26731E+05
 0.59299995E+02  0.53949E+05
 0.59349995E+02  0.93877E+05
 0.59399998E+02  0.14743E+06
 0.59449997E+02  0.19873E+06
 0.59499996E+02  0.23084E+06
 0.59549995E+02  0.25070E+06
 0.59599995E+02  0.25894E+06
 0.59649998E+02  0.24464E+06
 0.59699997E+02  0.20229E+06
 0.59749996E+02  0.14518E+06
 0.59799995E+02  0.86760E+05
 0.59849995E+02  0.16862E+05
 0.59899998E+02 -0.45864E+05
 0.59949997E+02 -0.92868E+05
 0.59999996E+02 -0.13662E+06
 0.60049995E+02 -0.15386E+06
 0.60099995E+02 -0.11914E+06
 0.60149998E+02 -0.37040E+05
 0.60199997E+02  0.54985E+05
 0.60249996E+02  0.11087E+06
 0.60299995E+02  0.12083E+06
 0.60349995E+02  0.10261E+06
 0.60399998E+02  0.74943E+05
 0.60449997E+02  0.42918E+05
 0.60499996E+02  0.11042E+05
 0.60549995E+02 -0.15409E+05
 0.60599995E+02 -0.44236E+05
 0.60649998E+02 -0.80702E+05
 0.60699997E+02 -0.11994E+06
 0.60749996E+02 -0.15258E+06
 0.60799995E+02 -0.17529E+06
 0.60849995E+02 -0.18668E+06
 0.60899998E+02 -0.18003E+06
 0.60949997E+02 -0.14779E+06
 0.60999996E+02 -0.10407E+06
 0.61049995E+02 -0.79824E+05
 0.61099995E+02 -0.56712E+05
 0.61149998E+02 -0.26015E+04
 0.61199997E+02  0.70145E+05
 0.61249996E+02  0.14029E+06
 0.61299995E+02  0.18678E+06
 0.61349995E+02  0.21293E+06
 0.61399998E+02  0.22047E+06
 0.61449997E+02  0.19546E+06
 0.61499996E+02  0.14614E+06
 0.61549995E+02  0.86934E+05
 0.61599995E+02  0.15740E+05
 0.61649998E+02 -0.67379E+05
 0.61699997E+02 -0.13779E+06
 0.61749996E+02 -0.18841E+06
 0.61799995E+02 -0.22535E+06
 0.61849995E+02 -0.25378E+06
 0.61899998E+02 -0.28962E+06
 0.61949997E+02 -0.32792E+06
 0.61999996E+02 -0.34486E+06
 0.62049995E+02 -0.33872E+06
 0.62099998E+02 -0.31390E+06
 0.62149994E+02 -0.26097E+06
 0.62199997E+02 -0.18511E+06
 0.62249992E+02 -0.10087E+06
 0.62299995E+02 -0.21573E+05
 0.62349998E+02  0.49524E+05
 0.62399994E+02  0.11054E+06
 0.62449997E+02  0.17015E+06
 0.62499992E+02  0.23791E+06
 0.62549995E+02  0.30408E+06
 0.62599998E+02  0.34887E+06
 0.62649994E+02  0.34470E+06
 0.62699997E+02  0.28708E+06
 0.62749992E+02  0.20307E+06
 0.62799995E+02  0.13865E+06
 0.62849998E+02  0.12518E+06
 0.62899994E+02  0.16729E+06
 0.62949997E+02  0.23946E+06
 0.62999992E+02  0.29136E+06
 0.63049995E+02  0.28788E+06
 0.63099998E+02  0.25150E+06
 0.63149994E+02  0.22872E+06
 0.63199997E+02  0.22817E+06
 0.63249992E+02  0.24705E+06
 0.63299995E+02  0.26799E+06
 0.63349998E+02  0.27020E+06
 0.63399994E+02  0.25037E+06
 0.63449997E+02  0.22220E+06
 0.63499992E+02  0.19398E+06
 0.63549995E+02  0.14803E+06
 0.63599998E+02  0.73101E+05
 0.63649994E+02 -0.18025E+05
 0.63699997E+02 -0.11394E+06
 0.63749992E+02 -0.20422E+06
 0.63799995E+02 -0.26916E+06
 0.63849998E+02 -0.31008E+06
 0.63899994E+02 -0.33566E+06
 0.63949997E+02 -0.34206E+06
 0.63999992E+02 -0.31824E+06
 0.64049995E+02 -0.27382E+06
 0.64099998E+02 -0.22851E+06
 0.64149994E+02 -0.19208E+06
 0.64199997E+02 -0.16410E+06
 0.64249992E+02 -0.13728E+06
 0.64299995E+02 -0.10635E+06
 0.64349998E+02 -0.79789E+05
 0.64399994E+02 -0.72970E+05
 0.64449997E+02 -0.90304E+05
 0.64499992E+02 -0.12804E+06
 0.64549995E+02 -0.17929E+06
 0.64599998E+02 -0.23512E+06
 0.64649994E+02 -0.28320E+06
 0.64699997E+02 -0.31745E+06
 0.64749992E+02 -0.32513E+06
 0.64799995E+02 -0.30037E+06
 0.64849998E+02 -0.25988E+06
 0.64899994E+02 -0.23088E+06
 0.64949997E+02 -0.22645E+06
 0.64999992E+02 -0.24055E+06
 0.65049995E+02 -0.26904E+06
 0.65099998E+02 -0.29983E+06
 0.65149994E+02 -0.33295E+06
 0.65199997E+02 -0.37714E+06
 0.65249992E+02 -0.42525E+06
 0.65299995E+02 -0.47493E+06
 0.65349998E+02 -0.52183E+06
 0.65399994E+02 -0.55172E+06
 0.65449997E+02 -0.55370E+06
 0.65499992E+02 -0.52895E+06
 0.65549995E+02 -0.48348E+06
 0.65599998E+02 -0.43485E+06
 0.65649994E+02 -0.39723E+06
 0.65699997E+02 -0.36253E+06
 0.65749992E+02 -0.32505E+06
 0.65799995E+02 -0.28333E+06
 0.65849998E+02 -0.24727E+06
 0.65899994E+02 -0.22762E+06
 0.65949997E+02 -0.22084E+06
 0.65999992E+02 -0.22063E+06
 0.66049995E+02 -0.21281E+06
 0.66099998E+02 -0.20044E+06
 0.66149994E+02 -0.20247E+06
 0.66199997E+02 -0.21907E+06
 0.66249992E+02 -0.23182E+06
 0.66299995E+02 -0.22679E+06
 0.66349998E+02 -0.20091E+06
 0.66399994E+02 -0.16631E+06
 0.66449997E+02 -0.14200E+06
 0.66499992E+02 -0.13029E+06
 0.66549995E+02 -0.12319E+06
 0.66599998E+02 -0.10953E+06
 0.66649994E+02 -0.83981E+05
 0.66699997E+02 -0.57296E+05
 0.66749992E+02 -0.36179E+05
 0.66799995E+02 -0.84238E+04
 0.66849998E+02  0.29550E+05
 0.66899994E+02  0.65406E+05
 0.66949997E+02  0.89151E+05
 0.66999992E+02  0.10634E+06
 0.67049995E+02  0.12531E+06
 0.67099998E+02  0.14938E+06
 0.67149994E+02  0.17923E+06
 0.67199997E+02  0.21304E+06
 0.67249992E+02  0.24729E+06
 0.67299995E+02  0.26826E+06
 0.67349998E+02  0.26578E+06
 0.67399994E+02  0.24206E+06
 0.67449997E+02  0.21350E+06
 0.67499992E+02  0.20305E+06
 0.67549995E+02  0.21431E+06
 0.67599998E+02  0.24017E+06
 0.67649994E+02  0.28152E+06
 0.67699997E+02  0.33012E+06
 0.67749992E+02  0.37575E+06
 0.67799995E+02  0.42247E+06
 0.67849998E+02  0.46879E+06
 0.67899994E+02  0.50507E+06
 0.67949997E+02  0.52363E+06
 0.67999992E+02  0.52492E+06
 0.68049995E+02  0.50462E+06
 0.68099998E+02  0.45275E+06
 0.68149994E+02  0.36807E+06
 0.68199997E+02  0.27268E+06
 0.68249992E+02  0.19664E+06
 0.68299995E+02  0.15094E+06
 0.68349998E+02  0.12951E+06
 0.68399994E+02  0.11829E+06
 0.68449997E+02  0.11307E+06
 0.68499992E+02  0.11526E+06
 0.68549995E+02  0.12375E+06
 0.68599998E+02  0.13547E+06
 0.68649994E+02  0.16172E+06
 0.68699997E+02  0.20802E+06
 0.68749992E+02  0.26184E+06
 0.68799995E+02  0.31177E+06
 0.68849998E+02  0.35179E+06
 0.68899994E+02  0.37964E+06
 0.68949997E+02  0.39480E+06
 0.68999992E+02  0.40115E+06
 0.69049995E+02  0.39767E+06
 0.69099998E+02  0.38622E+06
 0.69149994E+02  0.35772E+06
 0.69199997E+02  0.30094E+06
 0.69249992E+02  0.22851E+06
 0.69299995E+02  0.15054E+06
 0.69349998E+02  0.74570E+05
 0.69399994E+02  0.11428E+05
 0.69449997E+02 -0.30909E+05
 0.69499992E+02 -0.48187E+05
 0.69549995E+02 -0.46855E+05
 0.69599998E+02 -0.41396E+05
 0.69649994E+02 -0.45697E+05
 0.69699997E+02 -0.59779E+05
 0.69749992E+02 -0.72444E+05
 0.69799995E+02 -0.81833E+05
 0.69849998E+02 -0.86772E+05
 0.69899994E+02 -0.84618E+05
 0.69949997E+02 -0.77273E+05
 0.69999992E+02 -0.63839E+05
 0.70049995E+02 -0.47114E+05
 0.70099998E+02 -0.35539E+05
 0.70149994E+02 -0.31888E+05
 0.70199997E+02 -0.29229E+05
 0.70249992E+02 -0.19408E+05
 0.70299995E+02  0.25439E+04
 0.70349998E+02  0.29037E+05
 0.70399994E+02  0.53297E+05
 0.70449997E+02  0.73554E+05
 0.70499992E+02  0.84392E+05
 0.70549995E+02  0.83790E+05
 0.70599998E+02  0.68828E+05
 0.70649994E+02  0.41703E+05
 0.70699997E+02  0.10448E+05
 0.70749992E+02 -0.23208E+05
 0.70799995E+02 -0.63994E+05
 0.70849998E+02 -0.11078E+06
 0.70899994E+02 -0.16043E+06
 0.70949997E+02 -0.21072E+06
 0.70999992E+02 -0.25898E+06
 0.71049995E+02 -0.29655E+06
 0.71099998E+02 -0.31608E+06
 0.71149994E+02 -0.31953E+06
 0.71199997E+02 -0.30590E+06
 0.71249992E+02 -0.27646E+06
 0.71299995E+02 -0.23504E+06
 0.71349998E+02 -0.19024E+06
 0.71399994E+02 -0.14713E+06
 0.71449997E+02 -0.10350E+06
 0.71499992E+02 -0.59244E+05
 0.71549995E+02 -0.15403E+05
 0.71599998E+02  0.29460E+05
 0.71649994E+02  0.76625E+05
 0.71699997E+02  0.12356E+06
 0.71749992E+02  0.16691E+06
 0.71799995E+02  0.20184E+06
 0.71849998E+02  0.22533E+06
 0.71899994E+02  0.23821E+06
 0.71949997E+02  0.24012E+06
 0.71999992E+02  0.22641E+06
 0.72049995E+02  0.19399E+06
 0.72099998E+02  0.14483E+06
 0.72149994E+02  0.84500E+05
 0.72199997E+02  0.19003E+05
 0.72249992E+02 -0.40581E+05
 0.72299995E+02 -0.80071E+05
 0.72349998E+02 -0.98115E+05
 0.72399994E+02 -0.95875E+05
 0.72449997E+02 -0.75771E+05
 0.72499992E+02 -0.45694E+05
 0.72549995E+02 -0.15505E+05
 0.72599998E+02  0.23723E+04
 0.72649994E+02  0.10519E+05
 0.72699997E+02  0.20867E+05
 0.72749992E+02  0.39244E+05
 0.72799995E+02  0.61868E+05
 0.72849998E+02  0.82331E+05
 0.72899994E+02  0.98419E+05
 0.72949997E+02  0.10888E+06
 0.72999992E+02  0.11637E+06
 0.73049995E+02  0.12562E+06
 0.73099998E+02  0.14081E+06
 0.73149994E+02  0.15736E+06
 0.73199997E+02  0.16901E+06
 0.73249992E+02  0.17558E+06
 0.73299995E+02  0.17449E+06
 0.73349998E+02  0.16762E+06
 0.73399994E+02  0.16074E+06
 0.73449997E+02  0.15673E+06
 0.73499992E+02  0.15401E+06
 0.73549995E+02  0.15141E+06
 0.73599998E+02  0.14807E+06
 0.73649994E+02  0.13944E+06
 0.73699997E+02  0.12397E+06
 0.73749992E+02  0.10477E+06
 0.73799995E+02  0.84907E+05
 0.73849998E+02  0.63884E+05
 0.73899994E+02  0.39074E+05
 0.73949997E+02  0.85320E+04
 0.73999992E+02 -0.26610E+05
 0.74049995E+02 -0.58010E+05
 0.74099998E+02 -0.80507E+05
 0.74149994E+02 -0.99022E+05
 0.74199997E+02 -0.11679E+06
 0.74249992E+02 -0.13226E+06
 0.74299995E+02 -0.14345E+06
 0.74349998E+02 -0.14426E+06
 0.74399994E+02 -0.13142E+06
 0.74449997E+02 -0.10983E+06
 0.74499992E+02 -0.82616E+05
 0.74549995E+02 -0.53892E+05
 0.74599998E+02 -0.31206E+05
 0.74649994E+02 -0.17351E+05
 0.74699997E+02 -0.46936E+04
 0.74749992E+02  0.12429E+05
 0.74799995E+02  0.28447E+05
 0.74849998E+02  0.36423E+05
 0.74899994E+02  0.38083E+05
 0.74949997E+02  0.40305E+05
 0.74999992E+02  0.49125E+05
 0.75049995E+02  0.66338E+05
 0.75099998E+02  0.86508E+05
 0.75149994E+02  0.10461E+06
 0.75199997E+02  0.11744E+06
 0.75249992E+02  0.12421E+06
 0.75299995E+02  0.12925E+06
 0.75349998E+02  0.13478E+06
 0.75399994E+02  0.13997E+06
 0.75449997E+02  0.14103E+06
 0.75499992E+02  0.13443E+06
 0.75549995E+02  0.11805E+06
 0.75599998E+02  0.93602E+05
 0.75649994E+02  0.71620E+05
 0.75699997E+02  0.60139E+05
 0.75749992E+02  0.60024E+05
 0.75799995E+02  0.65180E+05
 0.75849998E+02  0.68810E+05
 0.75899994E+02  0.66179E+05
 0.75949997E+02  0.53819E+05
 0.75999992E+02  0.36406E+05
 0.76049995E+02  0.15259E+05
 0.76099998E+02 -0.14900E+05
 0.76149994E+02 -0.53063E+05
 0.76199997E+02 -0.93048E+05
 0.76249992E+02 -0.12504E+06
 0.76299995E+02 -0.14454E+06
 0.76349998E+02 -0.15514E+06
 0.76399994E+02 -0.15432E+06
 0.76449997E+02 -0.13760E+06
 0.76499992E+02 -0.10804E+06
 0.76549995E+02 -0.69931E+05
 0.76599998E+02 -0.26560E+05
 0.76649994E+02  0.17736E+05
 0.76699997E+02  0.62623E+05
 0.76749992E+02  0.10569E+06
 0.76799995E+02  0.14118E+06
 0.76849998E+02  0.16911E+06
 0.76899994E+02  0.19157E+06
 0.76949997E+02  0.20544E+06
 0.76999992E+02  0.20551E+06
 0.77049995E+02  0.18733E+06
 0.77099998E+02  0.15087E+06
 0.77149994E+02  0.10220E+06
 0.77199997E+02  0.48892E+05
 0.77249992E+02 -0.68265E+03
 0.77299995E+02 -0.42484E+05
 0.77349998E+02 -0.76673E+05
 0.77399994E+02 -0.10285E+06
 0.77449997E+02 -0.12291E+06
 0.77499992E+02 -0.14021E+06
 0.77549995E+02 -0.15266E+06
 0.77599998E+02 -0.15903E+06
 0.77649994E+02 -0.16324E+06
 0.77699997E+02 -0.16827E+06
 0.77749992E+02 -0.17276E+06
 0.77799995E+02 -0.17275E+06
 0.77849998E+02 -0.16381E+06
 0.77899994E+02 -0.14308E+06
 0.77949997E+02 -0.11039E+06
 0.77999992E+02 -0.67770E+05
 0.78049995E+02 -0.19236E+05
 0.78099998E+02  0.31343E+05
 0.78149994E+02  0.78903E+05
 0.78199997E+02  0.12213E+06
 0.78249992E+02  0.16243E+06
 0.78299995E+02  0.19740E+06
 0.78349998E+02  0.22273E+06
 0.78399994E+02  0.23279E+06
 0.78449997E+02  0.22815E+06
 0.78499992E+02  0.21033E+06
 0.78549995E+02  0.17850E+06
 0.78599998E+02  0.13409E+06
 0.78649994E+02  0.76993E+05
 0.78699997E+02  0.93214E+04
 0.78749992E+02 -0.64582E+05
 0.78799995E+02 -0.13878E+06
 0.78849998E+02 -0.20646E+06
 0.78899994E+02 -0.26568E+06
 0.78949997E+02 -0.31769E+06
 0.78999992E+02 -0.35837E+06
 0.79049995E+02 -0.38277E+06
 0.79099998E+02 -0.38987E+06
 0.79149994E+02 -0.38213E+06
 0.79199997E+02 -0.36158E+06
 0.79249992E+02 -0.33255E+06
 0.79299995E+02 -0.30196E+06
 0.79349998E+02 -0.27391E+06
 0.79399994E+02 -0.25306E+06
 0.79449997E+02 -0.23762E+06
 0.79499992E+02 -0.22444E+06
 0.79549995E+02 -0.21707E+06
 0.79599998E+02 -0.21695E+06
 0.79649994E+02 -0.22198E+06
 0.79699997E+02 -0.23018E+06
 0.79749992E+02 -0.24119E+06
 0.79799995E+02 -0.25716E+06
 0.79849998E+02 -0.27906E+06
 0.79899994E+02 -0.30258E+06
 0.79949997E+02 -0.32317E+06
 0.79999992E+02 -0.33685E+06
 0.80049995E+02 -0.33828E+06
 0.80099998E+02 -0.32571E+06
 0.80149994E+02 -0.29955E+06
 0.80199997E+02 -0.25885E+06
 0.80249992E+02 -0.20389E+06
 0.80299995E+02 -0.14125E+06
 0.80349998E+02 -0.78617E+05
 0.80399994E+02 -0.18489E+05
 0.80449997E+02  0.38099E+05
 0.80499992E+02  0.89481E+05
 0.80549995E+02  0.13468E+06
 0.80599998E+02  0.17450E+06
 0.80649994E+02  0.20856E+06
 0.80699997E+02  0.23744E+06
 0.80749992E+02  0.26517E+06
 0.80799995E+02  0.29005E+06
 0.80849998E+02  0.30951E+06
 0.80899994E+02  0.32524E+06
 0.80949997E+02  0.33826E+06
 0.80999992E+02  0.34837E+06
 0.81049995E+02  0.35402E+06
 0.81099998E+02  0.35319E+06
 0.81149994E+02  0.34598E+06
 0.81199997E+02  0.33650E+06
 0.81249992E+02  0.32625E+06
 0.81299995E+02  0.31335E+06
 0.81349998E+02  0.29857E+06
 0.81399994E+02  0.28393E+06
 0.81449997E+02  0.27138E+06
 0.81499992E+02  0.26347E+06
 0.81549995E+02  0.26350E+06
 0.81599998E+02  0.27593E+06
 0.81649994E+02  0.30123E+06
 0.81699997E+02  0.33405E+06
 0.81749992E+02  0.36971E+06
 0.81799995E+02  0.40577E+06
 0.81849998E+02  0.43935E+06
 0.81899994E+02  0.46585E+06
 0.81949997E+02  0.48067E+06
 0.81999992E+02  0.48145E+06
 0.82049995E+02  0.46758E+06
 0.82099998E+02  0.43975E+06
 0.82149994E+02  0.39690E+06
 0.82199997E+02  0.33705E+06
 0.82249992E+02  0.26486E+06
 0.82299995E+02  0.18782E+06
 0.82349998E+02  0.10705E+06
 0.82399994E+02  0.24367E+05
 0.82449997E+02 -0.54913E+05
 0.82499992E+02 -0.12614E+06
 0.82549995E+02 -0.18534E+06
 0.82599998E+02 -0.23215E+06
 0.82649994E+02 -0.26521E+06
 0.82699997E+02 -0.28396E+06
 0.82749992E+02 -0.28799E+06
 0.82799995E+02 -0.27916E+06
 0.82849998E+02 -0.26222E+06
 0.82899994E+02 -0.24127E+06
 0.82949997E+02 -0.22193E+06
 0.82999992E+02 -0.20725E+06
 0.83049995E+02 -0.19993E+06
 0.83099998E+02 -0.20410E+06
 0.83149994E+02 -0.22102E+06
 0.83199997E+02 -0.24524E+06
 0.83249992E+02 -0.27015E+06
 0.83299995E+02 -0.29019E+06
 0.83349998E+02 -0.30052E+06
 0.83399994E+02 -0.29719E+06
 0.83449997E+02 -0.27758E+06
 0.83499992E+02 -0.24224E+06
 0.83549995E+02 -0.19386E+06
 0.83599998E+02 -0.13899E+06
 0.83649994E+02 -0.85340E+05
 0.83699997E+02 -0.38094E+05
 0.83749992E+02  0.53623E+03
 0.83799995E+02  0.28035E+05
 0.83849998E+02  0.41472E+05
 0.83899994E+02  0.38877E+05
 0.83949997E+02  0.20101E+05
 0.83999992E+02 -0.10151E+05
 0.84049995E+02 -0.43451E+05
 0.84099998E+02 -0.73003E+05
 0.84149994E+02 -0.97398E+05
 0.84199997E+02 -0.11738E+06
 0.84249992E+02 -0.13546E+06
 0.84299995E+02 -0.15358E+06
 0.84349998E+02 -0.16964E+06
 0.84399994E+02 -0.18246E+06
 0.84449997E+02 -0.19257E+06
 0.84499992E+02 -0.19893E+06
 0.84549995E+02 -0.19837E+06
 0.84599998E+02 -0.18976E+06
 0.84649994E+02 -0.17511E+06
 0.84699997E+02 -0.15515E+06
 0.84749992E+02 -0.12746E+06
 0.84799995E+02 -0.90837E+05
 0.84849998E+02 -0.48589E+05
 0.84899994E+02 -0.35767E+04
 0.84949997E+02  0.43944E+05
 0.84999992E+02  0.91896E+05
 0.85049995E+02  0.13540E+06
 0.85099998E+02  0.17083E+06
 0.85149994E+02  0.19729E+06
 0.85199997E+02  0.21627E+06
 0.85249992E+02  0.22793E+06
 0.85299995E+02  0.23130E+06
 0.85349998E+02  0.22613E+06
 0.85399994E+02  0.21140E+06
 0.85449997E+02  0.18893E+06
 0.85499992E+02  0.15957E+06
 0.85549995E+02  0.12548E+06
 0.85599998E+02  0.92062E+05
 0.85649994E+02  0.61874E+05
 0.85699997E+02  0.38882E+05
 0.85749992E+02  0.25249E+05
 0.85799995E+02  0.19926E+05
 0.85849998E+02  0.20974E+05
 0.85899994E+02  0.23899E+05
 0.85949997E+02  0.25303E+05
 0.85999992E+02  0.25076E+05
 0.86049995E+02  0.24487E+05
 0.86099998E+02  0.23478E+05
 0.86149994E+02  0.23184E+05
 0.86199997E+02  0.24152E+05
 0.86249992E+02  0.25220E+05
 0.86299995E+02  0.25689E+05
 0.86349998E+02  0.25455E+05
 0.86399994E+02  0.25265E+05
 0.86449997E+02  0.23706E+05
 0.86499992E+02  0.20792E+05
 0.86549995E+02  0.18925E+05
 0.86599998E+02  0.20354E+05
 0.86649994E+02  0.26671E+05
 0.86699997E+02  0.35726E+05
 0.86749992E+02  0.42940E+05
 0.86799995E+02  0.49810E+05
 0.86849998E+02  0.62249E+05
 0.86899994E+02  0.81531E+05
 0.86949997E+02  0.10480E+06
 0.86999992E+02  0.12902E+06
 0.87049995E+02  0.15150E+06
 0.87099998E+02  0.17051E+06
 0.87149994E+02  0.18504E+06
 0.87199997E+02  0.19175E+06
 0.87249992E+02  0.18826E+06
 0.87299995E+02  0.17664E+06
 0.87349998E+02  0.16056E+06
 0.87399994E+02  0.14069E+06
 0.87449997E+02  0.11588E+06
 0.87499992E+02  0.85808E+05
 0.87549995E+02  0.51746E+05
 0.87599991E+02  0.16660E+05
 0.87649994E+02 -0.14909E+05
 0.87699997E+02 -0.38223E+05
 0.87749992E+02 -0.52565E+05
 0.87799995E+02 -0.60414E+05
 0.87849991E+02 -0.62633E+05
 0.87899994E+02 -0.58991E+05
 0.87949997E+02 -0.51740E+05
 0.87999992E+02 -0.43379E+05
 0.88049995E+02 -0.34519E+05
 0.88099991E+02 -0.25439E+05
 0.88149994E+02 -0.17721E+05
 0.88199997E+02 -0.12633E+05
 0.88249992E+02 -0.98471E+04
 0.88299995E+02 -0.71417E+04
 0.88349991E+02 -0.23016E+04
 0.88399994E+02  0.40052E+04
 0.88449997E+02  0.96045E+04
 0.88499992E+02  0.13265E+05
 0.88549995E+02  0.15009E+05
 0.88599991E+02  0.15073E+05
 0.88649994E+02  0.12030E+05
 0.88699997E+02  0.28759E+04
 0.88749992E+02 -0.12971E+05
 0.88799995E+02 -0.31832E+05
 0.88849991E+02 -0.50531E+05
 0.88899994E+02 -0.68664E+05
 0.88949997E+02 -0.86856E+05
 0.88999992E+02 -0.10565E+06
 0.89049995E+02 -0.12533E+06
 0.89099991E+02 -0.14540E+06
 0.89149994E+02 -0.16395E+06
 0.89199997E+02 -0.18143E+06
 0.89249992E+02 -0.19796E+06
 0.89299995E+02 -0.21259E+06
 0.89349991E+02 -0.22534E+06
 0.89399994E+02 -0.23718E+06
 0.89449997E+02 -0.24750E+06
 0.89499992E+02 -0.25389E+06
 0.89549995E+02 -0.25583E+06
 0.89599991E+02 -0.25508E+06
 0.89649994E+02 -0.25408E+06
 0.89699997E+02 -0.25269E+06
 0.89749992E+02 -0.24833E+06
 0.89799995E+02 -0.23919E+06
 0.89849991E+02 -0.22434E+06
 0.89899994E+02 -0.20421E+06
 0.89949997E+02 -0.18013E+06
 0.89999992E+02 -0.15274E+06
 0.90049995E+02 -0.12380E+06
 0.90099991E+02 -0.93501E+05
 0.90149994E+02 -0.62303E+05
 0.90199997E+02 -0.33586E+05
 0.90249992E+02 -0.94568E+04
 0.90299995E+02  0.98952E+04
 0.90349991E+02  0.25489E+05
 0.90399994E+02  0.38450E+05
 0.90449997E+02  0.46141E+05
 0.90499992E+02  0.45513E+05
 0.90549995E+02  0.38205E+05
 0.90599991E+02  0.29150E+05
 0.90649994E+02  0.23350E+05
 0.90699997E+02  0.21464E+05
 0.90749992E+02  0.19420E+05
 0.90799995E+02  0.14824E+05
 0.90849991E+02  0.91239E+04
 0.90899994E+02  0.34712E+04
 0.90949997E+02 -0.13664E+04
 0.90999992E+02 -0.43909E+04
 0.91049995E+02 -0.56177E+04
 0.91099991E+02 -0.48617E+04
 0.91149994E+02  0.33708E+02
 0.91199997E+02  0.96823E+04
 0.91249992E+02  0.21271E+05
 0.91299995E+02  0.35313E+05
 0.91349991E+02  0.53853E+05
 0.91399994E+02  0.75568E+05
 0.91449997E+02  0.97519E+05
 0.91499992E+02  0.11703E+06
 0.91549995E+02  0.13341E+06
 0.91599991E+02  0.14531E+06
 0.91649994E+02  0.15136E+06
 0.91699997E+02  0.15185E+06
 0.91749992E+02  0.14778E+06
 0.91799995E+02  0.13999E+06
 0.91849991E+02  0.12823E+06
 0.91899994E+02  0.11331E+06
 0.91949997E+02  0.96512E+05
 0.91999992E+02  0.77648E+05
 0.92049995E+02  0.55406E+05
 0.92099991E+02  0.27313E+05
 0.92149994E+02 -0.97205E+04
 0.92199997E+02 -0.54707E+05
 0.92249992E+02 -0.10253E+06
 0.92299995E+02 -0.14711E+06
 0.92349991E+02 -0.18333E+06
 0.92399994E+02 -0.20684E+06
 0.92449997E+02 -0.21478E+06
 0.92499992E+02 -0.20809E+06
 0.92549995E+02 -0.18981E+06
 0.92599991E+02 -0.16254E+06
 0.92649994E+02 -0.12821E+06
 0.92699997E+02 -0.90205E+05
 0.92749992E+02 -0.53477E+05
 0.92799995E+02 -0.21874E+05
 0.92849991E+02  0.34494E+04
 0.92899994E+02  0.23465E+05
 0.92949997E+02  0.41209E+05
 0.92999992E+02  0.59325E+05
 0.93049995E+02  0.79634E+05
 0.93099991E+02  0.10213E+06
 0.93149994E+02  0.12528E+06
 0.93199997E+02  0.14778E+06
 0.93249992E+02  0.16716E+06
 0.93299995E+02  0.18179E+06
 0.93349991E+02  0.19222E+06
 0.93399994E+02  0.19997E+06
 0.93449997E+02  0.20528E+06
 0.93499992E+02  0.20636E+06
 0.93549995E+02  0.20141E+06
 0.93599991E+02  0.19019E+06
 0.93649994E+02  0.17360E+06
 0.93699997E+02  0.15161E+06
 0.93749992E+02  0.12374E+06
 0.93799995E+02  0.90478E+05
 0.93849991E+02  0.53638E+05
 0.93899994E+02  0.16567E+05
 0.93949997E+02 -0.17979E+05
 0.93999992E+02 -0.48966E+05
 0.94049995E+02 -0.75295E+05
 0.94099991E+02 -0.96304E+05
 0.94149994E+02 -0.11215E+06
 0.94199997E+02 -0.12338E+06
 0.94249992E+02 -0.13006E+06
 0.94299995E+02 -0.13120E+06
 0.94349991E+02 -0.12602E+06
 0.94399994E+02 -0.11396E+06
 0.94449997E+02 -0.95659E+05
 0.94499992E+02 -0.72712E+05
 0.94549995E+02 -0.45738E+05
 0.94599991E+02 -0.15737E+05
 0.94649994E+02  0.14698E+05
 0.94699997E+02  0.43070E+05
 0.94749992E+02  0.68388E+05
 0.94799995E+02  0.91122E+05
 0.94849991E+02  0.11204E+06
 0.94899994E+02  0.13301E+06
 0.94949997E+02  0.15590E+06
 0.94999992E+02  0.17973E+06
 0.95049995E+02  0.20198E+06
 0.95099991E+02  0.22094E+06
 0.95149994E+02  0.23674E+06
 0.95199997E+02  0.25073E+06
 0.95249992E+02  0.26375E+06
 0.95299995E+02  0.27329E+06
 0.95349991E+02  0.27606E+06
 0.95399994E+02  0.27058E+06
 0.95449997E+02  0.25629E+06
 0.95499992E+02  0.23453E+06
 0.95549995E+02  0.20608E+06
 0.95599991E+02  0.16943E+06
 0.95649994E+02  0.12473E+06
 0.95699997E+02  0.75062E+05
 0.95749992E+02  0.22665E+05
 0.95799995E+02 -0.32012E+05
 0.95849991E+02 -0.87399E+05
 0.95899994E+02 -0.14165E+06
 0.95949997E+02 -0.19229E+06
 0.95999992E+02 -0.23685E+06
 0.96049995E+02 -0.27364E+06
 0.96099991E+02 -0.30208E+06
 0.96149994E+02 -0.32228E+06
 0.96199997E+02 -0.33397E+06
 0.96249992E+02 -0.33710E+06
 0.96299995E+02 -0.33141E+06
 0.96349991E+02 -0.31932E+06
 0.96399994E+02 -0.30349E+06
 0.96449997E+02 -0.28627E+06
 0.96499992E+02 -0.26922E+06
 0.96549995E+02 -0.25278E+06
 0.96599991E+02 -0.23746E+06
 0.96649994E+02 -0.22340E+06
 0.96699997E+02 -0.21066E+06
 0.96749992E+02 -0.19844E+06
 0.96799995E+02 -0.18503E+06
 0.96849991E+02 -0.16765E+06
 0.96899994E+02 -0.14664E+06
 0.96949997E+02 -0.12436E+06
 0.96999992E+02 -0.10311E+06
 0.97049995E+02 -0.83705E+05
 0.97099991E+02 -0.65412E+05
 0.97149994E+02 -0.46925E+05
 0.97199997E+02 -0.27303E+05
 0.97249992E+02 -0.95169E+04
 0.97299995E+02  0.31450E+04
 0.97349991E+02  0.10176E+05
 0.97399994E+02  0.12499E+05
 0.97449997E+02  0.11630E+05
 0.97499992E+02  0.90675E+04
 0.97549995E+02  0.58181E+04
 0.97599991E+02  0.25333E+04
 0.97649994E+02 -0.44775E+03
 0.97699997E+02 -0.10220E+04
 0.97749992E+02  0.37457E+04
 0.97799995E+02  0.15587E+05
 0.97849991E+02  0.33322E+05
 0.97899994E+02  0.53235E+05
 0.97949997E+02  0.73195E+05
 0.97999992E+02  0.92892E+05
