-0.20000000E+01 -0.53295E+01
-0.19500000E+01 -0.57582E+01
-0.19000000E+01 -0.74969E+01
-0.18500000E+01 -0.64569E+01
-0.18000000E+01 -0.51192E+01
-0.17500000E+01 -0.62812E+01
-0.17000000E+01 -0.68800E+01
-0.16500001E+01 -0.55487E+01
-0.16000000E+01 -0.55165E+01
-0.15500000E+01 -0.64197E+01
-0.15000000E+01 -0.58362E+01
-0.14500000E+01 -0.71078E+01
-0.14000001E+01 -0.64709E+01
-0.13500000E+01 -0.55948E+01
-0.13000001E+01 -0.63311E+01
-0.12500000E+01 -0.60590E+01
-0.12000000E+01 -0.62888E+01
-0.11500001E+01 -0.67072E+01
-0.11000000E+01 -0.72049E+01
-0.10500001E+01 -0.69126E+01
-0.10000000E+01 -0.56495E+01
-0.95000005E+00 -0.59234E+01
-0.90000010E+00 -0.65421E+01
-0.85000002E+00 -0.74970E+01
-0.80000007E+00 -0.70850E+01
-0.75000012E+00 -0.71621E+01
-0.70000005E+00 -0.71119E+01
-0.65000010E+00 -0.73628E+01
-0.60000014E+00 -0.73066E+01
-0.55000007E+00 -0.61133E+01
-0.50000012E+00 -0.68168E+01
-0.45000005E+00 -0.59538E+01
-0.40000010E+00 -0.59818E+01
-0.35000014E+00 -0.50807E+01
-0.30000007E+00 -0.61023E+01
-0.25000012E+00 -0.57774E+01
-0.20000005E+00 -0.58485E+01
-0.15000010E+00 -0.58971E+01
-0.10000014E+00 -0.54244E+01
-0.50000072E-01 -0.69572E+01
-0.11920929E-06 -0.62322E+01
 0.49999952E-01 -0.73096E+01
 0.99999905E-01 -0.57132E+01
 0.14999986E+00 -0.60384E+01
 0.19999981E+00 -0.65305E+01
 0.24999976E+00 -0.65183E+01
 0.29999995E+00 -0.62372E+01
 0.34999990E+00 -0.50339E+01
 0.39999986E+00 -0.60702E+01
 0.44999981E+00 -0.61902E+01
 0.49999976E+00 -0.64501E+01
 0.54999995E+00 -0.73008E+01
 0.59999990E+00 -0.74593E+01
 0.64999986E+00 -0.66333E+01
 0.69999981E+00 -0.62354E+01
 0.74999976E+00 -0.63781E+01
 0.79999971E+00 -0.67880E+01
 0.84999990E+00 -0.63753E+01
 0.89999986E+00 -0.61443E+01
 0.94999981E+00 -0.55941E+01
 0.99999976E+00 -0.50150E+01
 0.10499997E+01 -0.52763E+01
 0.10999999E+01 -0.63804E+01
 0.11499999E+01 -0.58476E+01
 0.11999998E+01 -0.67634E+01
 0.12499998E+01 -0.71954E+01
 0.12999997E+01 -0.66762E+01
 0.13499999E+01 -0.61967E+01
 0.13999999E+01 -0.56272E+01
 0.14499998E+01 -0.60974E+01
 0.14999998E+01 -0.68196E+01
 0.15499997E+01 -0.67417E+01
 0.15999999E+01 -0.58994E+01
 0.16499999E+01 -0.59815E+01
 0.16999998E+01 -0.66499E+01
 0.17499998E+01 -0.73114E+01
 0.17999997E+01 -0.60608E+01
 0.18499997E+01 -0.61500E+01
 0.18999999E+01 -0.75984E+01
 0.19499998E+01 -0.65674E+01
 0.19999998E+01 -0.58739E+01
 0.20499997E+01 -0.67636E+01
 0.20999999E+01 -0.71275E+01
 0.21499996E+01 -0.74893E+01
 0.21999998E+01 -0.68857E+01
 0.22499995E+01 -0.63064E+01
 0.22999997E+01 -0.64086E+01
 0.23499999E+01 -0.71125E+01
 0.23999996E+01 -0.66443E+01
 0.24499998E+01 -0.61500E+01
 0.24999995E+01 -0.66754E+01
 0.25499997E+01 -0.63556E+01
 0.25999999E+01 -0.66054E+01
 0.26499996E+01 -0.66122E+01
 0.26999998E+01 -0.64086E+01
 0.27499995E+01 -0.63424E+01
 0.27999997E+01 -0.61266E+01
 0.28499999E+01 -0.50351E+01
 0.28999996E+01 -0.47630E+01
 0.29499998E+01 -0.67428E+01
 0.29999995E+01 -0.73496E+01
 0.30499997E+01 -0.62354E+01
 0.30999999E+01 -0.57253E+01
 0.31499996E+01 -0.68268E+01
 0.31999998E+01 -0.50882E+01
 0.32499995E+01 -0.57560E+01
 0.32999997E+01 -0.59169E+01
 0.33499999E+01 -0.58761E+01
 0.33999996E+01 -0.65909E+01
 0.34499998E+01 -0.42881E+01
 0.34999995E+01 -0.46671E+01
 0.35499997E+01 -0.42291E+01
 0.35999994E+01 -0.54923E+01
 0.36499996E+01 -0.59963E+01
 0.36999998E+01 -0.62986E+01
 0.37499995E+01 -0.68858E+01
 0.37999997E+01 -0.56922E+01
 0.38499994E+01 -0.66712E+01
 0.38999996E+01 -0.69543E+01
 0.39499998E+01 -0.69984E+01
 0.39999995E+01 -0.57590E+01
 0.40499997E+01 -0.64365E+01
 0.40999994E+01 -0.59343E+01
 0.41499996E+01 -0.59301E+01
 0.41999998E+01 -0.72052E+01
 0.42499995E+01 -0.56938E+01
 0.42999997E+01 -0.67664E+01
 0.43499994E+01 -0.61913E+01
 0.43999996E+01 -0.55490E+01
 0.44499998E+01 -0.66464E+01
 0.44999995E+01 -0.63860E+01
 0.45499997E+01 -0.51759E+01
 0.45999994E+01 -0.55256E+01
 0.46499996E+01 -0.53505E+01
 0.46999998E+01 -0.49654E+01
 0.47499995E+01 -0.53227E+01
 0.47999997E+01 -0.52803E+01
 0.48499994E+01 -0.49042E+01
 0.48999996E+01 -0.52706E+01
 0.49499998E+01 -0.66666E+01
 0.49999995E+01 -0.54146E+01
 0.50499997E+01 -0.51897E+01
 0.50999994E+01 -0.61257E+01
 0.51499996E+01 -0.51094E+01
 0.51999998E+01 -0.50214E+01
 0.52499995E+01 -0.52935E+01
 0.52999997E+01 -0.68777E+01
 0.53499994E+01 -0.60686E+01
 0.53999996E+01 -0.58788E+01
 0.54499993E+01 -0.47485E+01
 0.54999995E+01 -0.47830E+01
 0.55499997E+01 -0.58667E+01
 0.55999994E+01 -0.53818E+01
 0.56499996E+01 -0.62841E+01
 0.56999993E+01 -0.49951E+01
 0.57499995E+01 -0.59554E+01
 0.57999997E+01 -0.52750E+01
 0.58499994E+01 -0.51277E+01
 0.58999996E+01 -0.53548E+01
 0.59499993E+01 -0.54141E+01
 0.59999995E+01 -0.59275E+01
 0.60499992E+01 -0.49308E+01
 0.60999994E+01 -0.69946E+01
 0.61499996E+01 -0.70809E+01
 0.61999998E+01 -0.71574E+01
 0.62499990E+01 -0.70795E+01
 0.62999992E+01 -0.64786E+01
 0.63499994E+01 -0.71742E+01
 0.63999996E+01 -0.57252E+01
 0.64499998E+01 -0.61905E+01
 0.64999990E+01 -0.67475E+01
 0.65499992E+01 -0.66753E+01
 0.65999994E+01 -0.58916E+01
 0.66499996E+01 -0.52522E+01
 0.66999998E+01 -0.55389E+01
 0.67499990E+01 -0.55926E+01
 0.67999992E+01 -0.57813E+01
 0.68499994E+01 -0.62219E+01
 0.68999996E+01 -0.54704E+01
 0.69499998E+01 -0.51913E+01
 0.69999990E+01 -0.40913E+01
 0.70499992E+01 -0.54918E+01
 0.70999994E+01 -0.63599E+01
 0.71499996E+01 -0.56763E+01
 0.71999998E+01 -0.57161E+01
 0.72499990E+01 -0.43254E+01
 0.72999992E+01 -0.49889E+01
 0.73499994E+01 -0.49478E+01
 0.73999996E+01 -0.50046E+01
 0.74499998E+01 -0.41147E+01
 0.74999990E+01 -0.50678E+01
 0.75499992E+01 -0.62082E+01
 0.75999994E+01 -0.62193E+01
 0.76499996E+01 -0.55983E+01
 0.76999998E+01 -0.52172E+01
 0.77499990E+01 -0.51853E+01
 0.77999992E+01 -0.58280E+01
 0.78499994E+01 -0.64991E+01
 0.78999996E+01 -0.56759E+01
 0.79499998E+01 -0.37612E+01
 0.79999990E+01 -0.46834E+01
 0.80499992E+01 -0.52574E+01
 0.80999994E+01 -0.50381E+01
 0.81499996E+01 -0.57662E+01
 0.81999998E+01 -0.40366E+01
 0.82499990E+01 -0.62182E+01
 0.82999992E+01 -0.49698E+01
 0.83499994E+01 -0.47128E+01
 0.83999996E+01 -0.60076E+01
 0.84499998E+01 -0.44314E+01
 0.84999990E+01 -0.55373E+01
 0.85499992E+01 -0.47787E+01
 0.85999994E+01 -0.57154E+01
 0.86499996E+01 -0.57416E+01
 0.86999998E+01 -0.45355E+01
 0.87499990E+01 -0.54072E+01
 0.87999992E+01 -0.55172E+01
 0.88499994E+01 -0.57952E+01
 0.88999996E+01 -0.46628E+01
 0.89499998E+01 -0.55634E+01
 0.89999990E+01 -0.49419E+01
 0.90499992E+01 -0.51873E+01
 0.90999994E+01 -0.47262E+01
 0.91499996E+01 -0.42022E+01
 0.91999989E+01 -0.64564E+01
 0.92499990E+01 -0.57283E+01
 0.92999992E+01 -0.54653E+01
 0.93499994E+01 -0.47899E+01
 0.93999996E+01 -0.53861E+01
 0.94499989E+01 -0.43862E+01
 0.94999990E+01 -0.49431E+01
 0.95499992E+01 -0.47759E+01
 0.95999994E+01 -0.51977E+01
 0.96499996E+01 -0.61572E+01
 0.96999989E+01 -0.50059E+01
 0.97499990E+01 -0.60830E+01
 0.97999992E+01 -0.60060E+01
 0.98499994E+01 -0.59282E+01
 0.98999996E+01 -0.58914E+01
 0.99499989E+01 -0.75735E+01
 0.99999990E+01 -0.61426E+01
 0.10049999E+02 -0.56502E+01
 0.10099999E+02 -0.61675E+01
 0.10150000E+02 -0.54961E+01
 0.10199999E+02 -0.62251E+01
 0.10249999E+02 -0.59906E+01
 0.10299999E+02 -0.55256E+01
 0.10349999E+02 -0.61454E+01
 0.10400000E+02 -0.60619E+01
 0.10449999E+02 -0.53902E+01
 0.10499999E+02 -0.62407E+01
 0.10549999E+02 -0.49483E+01
 0.10599999E+02 -0.49818E+01
 0.10650000E+02 -0.57259E+01
 0.10699999E+02 -0.53406E+01
 0.10749999E+02 -0.52673E+01
 0.10799999E+02 -0.46683E+01
 0.10849999E+02 -0.49645E+01
 0.10900000E+02 -0.51701E+01
 0.10949999E+02 -0.47032E+01
 0.10999999E+02 -0.49536E+01
 0.11049999E+02 -0.50169E+01
 0.11099999E+02 -0.55839E+01
 0.11150000E+02 -0.62180E+01
 0.11199999E+02 -0.62984E+01
 0.11249999E+02 -0.59725E+01
 0.11299999E+02 -0.49624E+01
 0.11349999E+02 -0.60821E+01
 0.11400000E+02 -0.52730E+01
 0.11449999E+02 -0.53548E+01
 0.11499999E+02 -0.60872E+01
 0.11549999E+02 -0.59016E+01
 0.11599999E+02 -0.55098E+01
 0.11650000E+02 -0.60922E+01
 0.11699999E+02 -0.68554E+01
 0.11749999E+02 -0.53110E+01
 0.11799999E+02 -0.52300E+01
 0.11849999E+02 -0.50182E+01
 0.11900000E+02 -0.53489E+01
 0.11949999E+02 -0.56034E+01
 0.11999999E+02 -0.61651E+01
 0.12049999E+02 -0.54844E+01
 0.12099999E+02 -0.62232E+01
 0.12150000E+02 -0.69695E+01
 0.12199999E+02 -0.68736E+01
 0.12249999E+02 -0.62259E+01
 0.12299999E+02 -0.60100E+01
 0.12349999E+02 -0.53285E+01
 0.12400000E+02 -0.54569E+01
 0.12449999E+02 -0.51988E+01
 0.12499999E+02 -0.51181E+01
 0.12549999E+02 -0.62146E+01
 0.12599999E+02 -0.50980E+01
 0.12649999E+02 -0.57369E+01
 0.12699999E+02 -0.57248E+01
 0.12749999E+02 -0.61746E+01
 0.12799999E+02 -0.67639E+01
 0.12849999E+02 -0.59622E+01
 0.12899999E+02 -0.52158E+01
 0.12949999E+02 -0.45253E+01
 0.12999999E+02 -0.49894E+01
 0.13049999E+02 -0.54799E+01
 0.13099999E+02 -0.53700E+01
 0.13149999E+02 -0.59832E+01
 0.13199999E+02 -0.62912E+01
 0.13249999E+02 -0.53329E+01
 0.13299999E+02 -0.54023E+01
 0.13349999E+02 -0.61591E+01
 0.13399999E+02 -0.52410E+01
 0.13449999E+02 -0.48416E+01
 0.13499999E+02 -0.51599E+01
 0.13549999E+02 -0.42412E+01
 0.13599999E+02 -0.47898E+01
 0.13649999E+02 -0.51236E+01
 0.13699999E+02 -0.42995E+01
 0.13749999E+02 -0.56319E+01
 0.13799999E+02 -0.52758E+01
 0.13849999E+02 -0.52777E+01
 0.13899999E+02 -0.55980E+01
 0.13949999E+02 -0.55967E+01
 0.13999999E+02 -0.53986E+01
 0.14049999E+02 -0.54642E+01
 0.14099998E+02 -0.47471E+01
 0.14150000E+02 -0.46381E+01
 0.14199999E+02 -0.36675E+01
 0.14249998E+02 -0.36181E+01
 0.14299999E+02 -0.44254E+01
 0.14349998E+02 -0.47828E+01
 0.14400000E+02 -0.51970E+01
 0.14449999E+02 -0.45538E+01
 0.14499998E+02 -0.59312E+01
 0.14549999E+02 -0.56306E+01
 0.14599998E+02 -0.52167E+01
 0.14650000E+02 -0.30994E+01
 0.14699999E+02 -0.36350E+01
 0.14749998E+02 -0.46952E+01
 0.14799999E+02 -0.51328E+01
 0.14849998E+02 -0.44054E+01
 0.14900000E+02 -0.43268E+01
 0.14949999E+02 -0.60077E+01
 0.14999998E+02 -0.43472E+01
 0.15049999E+02 -0.50962E+01
 0.15099998E+02 -0.40397E+01
 0.15150000E+02 -0.42110E+01
 0.15199999E+02 -0.48382E+01
 0.15249998E+02 -0.37847E+01
 0.15299999E+02 -0.49865E+01
 0.15349998E+02 -0.48221E+01
 0.15400000E+02 -0.47787E+01
 0.15449999E+02 -0.59274E+01
 0.15499998E+02 -0.55405E+01
 0.15549999E+02 -0.58695E+01
 0.15599998E+02 -0.60360E+01
 0.15650000E+02 -0.62582E+01
 0.15699999E+02 -0.57944E+01
 0.15749998E+02 -0.51527E+01
 0.15799999E+02 -0.56744E+01
 0.15849998E+02 -0.52576E+01
 0.15900000E+02 -0.51285E+01
 0.15949999E+02 -0.56829E+01
 0.15999998E+02 -0.64339E+01
 0.16049999E+02 -0.50169E+01
 0.16099998E+02 -0.42157E+01
 0.16150000E+02 -0.42906E+01
 0.16199999E+02 -0.47877E+01
 0.16249998E+02 -0.50510E+01
 0.16299999E+02 -0.53521E+01
 0.16349998E+02 -0.51994E+01
 0.16400000E+02 -0.46380E+01
 0.16449999E+02 -0.54314E+01
 0.16499998E+02 -0.52023E+01
 0.16549999E+02 -0.47958E+01
 0.16599998E+02 -0.47504E+01
 0.16650000E+02 -0.41476E+01
 0.16699999E+02 -0.49083E+01
 0.16749998E+02 -0.48687E+01
 0.16799999E+02 -0.66365E+01
 0.16849998E+02 -0.62367E+01
 0.16900000E+02 -0.28605E+01
 0.16949999E+02 -0.54390E+01
 0.16999998E+02 -0.53709E+01
 0.17049999E+02 -0.46782E+01
 0.17099998E+02 -0.44723E+01
 0.17150000E+02 -0.40714E+01
 0.17199999E+02 -0.48330E+01
 0.17249998E+02 -0.48225E+01
 0.17299999E+02 -0.53172E+01
 0.17349998E+02 -0.55623E+01
 0.17400000E+02 -0.53802E+01
 0.17449999E+02 -0.58291E+01
 0.17499998E+02 -0.59733E+01
 0.17549999E+02 -0.54446E+01
 0.17599998E+02 -0.61254E+01
 0.17650000E+02 -0.57905E+01
 0.17699999E+02 -0.59720E+01
 0.17749998E+02 -0.60283E+01
 0.17799999E+02 -0.58480E+01
 0.17849998E+02 -0.53899E+01
 0.17900000E+02 -0.44146E+01
 0.17949999E+02 -0.44437E+01
 0.17999998E+02 -0.52054E+01
 0.18049999E+02 -0.55037E+01
 0.18099998E+02 -0.56269E+01
 0.18150000E+02 -0.51534E+01
 0.18199999E+02 -0.47620E+01
 0.18249998E+02 -0.41879E+01
 0.18299999E+02 -0.58679E+01
 0.18349998E+02 -0.54435E+01
 0.18400000E+02 -0.50439E+01
 0.18449999E+02 -0.47825E+01
 0.18499998E+02 -0.46977E+01
 0.18549999E+02 -0.63914E+01
 0.18599998E+02 -0.49321E+01
 0.18650000E+02 -0.58956E+01
 0.18699999E+02 -0.48445E+01
 0.18749998E+02 -0.48998E+01
 0.18799999E+02 -0.44649E+01
 0.18849998E+02 -0.50993E+01
 0.18900000E+02 -0.48964E+01
 0.18949999E+02 -0.43016E+01
 0.18999998E+02 -0.62585E+01
 0.19049999E+02 -0.48185E+01
 0.19099998E+02 -0.58887E+01
 0.19150000E+02 -0.62910E+01
 0.19199999E+02 -0.64766E+01
 0.19249998E+02 -0.61400E+01
 0.19299999E+02 -0.57830E+01
 0.19349998E+02 -0.47638E+01
 0.19400000E+02 -0.52832E+01
 0.19449999E+02 -0.65619E+01
 0.19499998E+02 -0.44160E+01
 0.19549999E+02 -0.49361E+01
 0.19599998E+02 -0.62596E+01
 0.19650000E+02 -0.60238E+01
 0.19699999E+02 -0.48667E+01
 0.19749998E+02 -0.49250E+01
 0.19799999E+02 -0.46910E+01
 0.19849998E+02 -0.46023E+01
 0.19900000E+02 -0.54020E+01
 0.19949999E+02 -0.65731E+01
 0.19999998E+02 -0.52149E+01
 0.20049999E+02 -0.49178E+01
 0.20099998E+02 -0.49165E+01
 0.20150000E+02 -0.53157E+01
 0.20199999E+02 -0.59412E+01
 0.20249998E+02 -0.45773E+01
 0.20299999E+02 -0.52631E+01
 0.20349998E+02 -0.61211E+01
 0.20399998E+02 -0.59428E+01
 0.20449999E+02 -0.58875E+01
 0.20499998E+02 -0.61543E+01
 0.20549999E+02 -0.62085E+01
 0.20599998E+02 -0.72217E+01
 0.20649998E+02 -0.58960E+01
 0.20699999E+02 -0.56019E+01
 0.20749998E+02 -0.53841E+01
 0.20799999E+02 -0.47401E+01
 0.20849998E+02 -0.49703E+01
 0.20899998E+02 -0.50656E+01
 0.20949999E+02 -0.56587E+01
 0.20999998E+02 -0.42491E+01
 0.21049999E+02 -0.43823E+01
 0.21099998E+02 -0.53057E+01
 0.21149998E+02 -0.40799E+01
 0.21199999E+02 -0.36705E+01
 0.21249998E+02 -0.32366E+01
 0.21299999E+02 -0.41461E+01
 0.21349998E+02 -0.52854E+01
 0.21399998E+02 -0.47174E+01
 0.21449999E+02 -0.46777E+01
 0.21499998E+02 -0.50542E+01
 0.21549999E+02 -0.57174E+01
 0.21599998E+02 -0.59072E+01
 0.21649998E+02 -0.52512E+01
 0.21699999E+02 -0.55565E+01
 0.21749998E+02 -0.46415E+01
 0.21799999E+02 -0.39890E+01
 0.21849998E+02 -0.52930E+01
 0.21899998E+02 -0.50429E+01
 0.21949999E+02 -0.50353E+01
 0.21999998E+02 -0.61553E+01
 0.22049999E+02 -0.59600E+01
 0.22099998E+02 -0.61105E+01
 0.22149998E+02 -0.44852E+01
 0.22199999E+02 -0.44873E+01
 0.22249998E+02 -0.55654E+01
 0.22299999E+02 -0.55727E+01
 0.22349998E+02 -0.56919E+01
 0.22399998E+02 -0.45604E+01
 0.22449999E+02 -0.51802E+01
 0.22499998E+02 -0.54346E+01
 0.22549999E+02 -0.55686E+01
 0.22599998E+02 -0.51235E+01
 0.22649998E+02 -0.51572E+01
 0.22699999E+02 -0.54079E+01
 0.22749998E+02 -0.59851E+01
 0.22799999E+02 -0.54505E+01
 0.22849998E+02 -0.54940E+01
 0.22899998E+02 -0.60123E+01
 0.22949999E+02 -0.43765E+01
 0.22999998E+02 -0.41744E+01
 0.23049999E+02 -0.55866E+01
 0.23099998E+02 -0.55981E+01
 0.23149998E+02 -0.48626E+01
 0.23199999E+02 -0.49338E+01
 0.23249998E+02 -0.53842E+01
 0.23299999E+02 -0.51003E+01
 0.23349998E+02 -0.42026E+01
 0.23399998E+02 -0.44756E+01
 0.23449999E+02 -0.51053E+01
 0.23499998E+02 -0.55636E+01
 0.23549999E+02 -0.54303E+01
 0.23599998E+02 -0.52300E+01
 0.23649998E+02 -0.43571E+01
 0.23699999E+02 -0.43741E+01
 0.23749998E+02 -0.55015E+01
 0.23799999E+02 -0.46176E+01
 0.23849998E+02 -0.58376E+01
 0.23899998E+02 -0.52637E+01
 0.23949999E+02 -0.48710E+01
 0.23999998E+02 -0.60797E+01
 0.24049999E+02 -0.61747E+01
 0.24099998E+02 -0.64111E+01
 0.24149998E+02 -0.52470E+01
 0.24199999E+02 -0.55774E+01
 0.24249998E+02 -0.50686E+01
 0.24299999E+02 -0.65828E+01
 0.24349998E+02 -0.51177E+01
 0.24399998E+02 -0.42298E+01
 0.24449999E+02 -0.62630E+01
 0.24499998E+02 -0.58611E+01
 0.24549999E+02 -0.64324E+01
 0.24599998E+02 -0.51038E+01
 0.24649998E+02 -0.57291E+01
 0.24699999E+02 -0.62759E+01
 0.24749998E+02 -0.67407E+01
 0.24799999E+02 -0.61323E+01
 0.24849998E+02 -0.54513E+01
 0.24899998E+02 -0.59895E+01
 0.24949999E+02 -0.51065E+01
 0.24999998E+02 -0.60661E+01
 0.25049999E+02 -0.52986E+01
 0.25099998E+02 -0.57210E+01
 0.25149998E+02 -0.58548E+01
 0.25199999E+02 -0.58673E+01
 0.25249998E+02 -0.57070E+01
 0.25299999E+02 -0.70993E+01
 0.25349998E+02 -0.65151E+01
 0.25399998E+02 -0.47991E+01
 0.25449999E+02 -0.62687E+01
 0.25499998E+02 -0.61507E+01
 0.25549999E+02 -0.61653E+01
 0.25599998E+02 -0.55418E+01
 0.25649998E+02 -0.61986E+01
 0.25699999E+02 -0.64263E+01
 0.25749998E+02 -0.58406E+01
 0.25799999E+02 -0.51845E+01
 0.25849998E+02 -0.48482E+01
 0.25899998E+02 -0.60600E+01
 0.25949999E+02 -0.55762E+01
 0.25999998E+02 -0.43171E+01
 0.26049999E+02 -0.57721E+01
 0.26099998E+02 -0.61206E+01
 0.26149998E+02 -0.48815E+01
 0.26199999E+02 -0.44884E+01
 0.26249998E+02 -0.73230E+01
 0.26299999E+02 -0.67270E+01
 0.26349998E+02 -0.54865E+01
 0.26399998E+02 -0.57900E+01
 0.26449999E+02 -0.57624E+01
 0.26499998E+02 -0.55330E+01
 0.26549999E+02 -0.55865E+01
 0.26599998E+02 -0.68249E+01
 0.26649998E+02 -0.56418E+01
 0.26699999E+02 -0.58674E+01
 0.26749998E+02 -0.57587E+01
 0.26799999E+02 -0.54580E+01
 0.26849998E+02 -0.57043E+01
 0.26899998E+02 -0.59352E+01
 0.26949999E+02 -0.61717E+01
 0.26999998E+02 -0.56886E+01
 0.27049997E+02 -0.54962E+01
 0.27099998E+02 -0.46378E+01
 0.27149998E+02 -0.48295E+01
 0.27199999E+02 -0.57057E+01
 0.27249998E+02 -0.53631E+01
 0.27299997E+02 -0.60109E+01
 0.27349998E+02 -0.49086E+01
 0.27399998E+02 -0.56555E+01
 0.27449999E+02 -0.53722E+01
 0.27499998E+02 -0.50389E+01
 0.27549997E+02 -0.61752E+01
 0.27599998E+02 -0.48971E+01
 0.27649998E+02 -0.48231E+01
 0.27699999E+02 -0.54797E+01
 0.27749998E+02 -0.50132E+01
 0.27799997E+02 -0.49313E+01
 0.27849998E+02 -0.68040E+01
 0.27899998E+02 -0.57552E+01
 0.27949999E+02 -0.55296E+01
 0.27999998E+02 -0.65016E+01
 0.28049997E+02 -0.60956E+01
 0.28099998E+02 -0.61269E+01
 0.28149998E+02 -0.54177E+01
 0.28199999E+02 -0.62445E+01
 0.28249998E+02 -0.69064E+01
 0.28299997E+02 -0.66801E+01
 0.28349998E+02 -0.56920E+01
 0.28399998E+02 -0.59515E+01
 0.28449999E+02 -0.58067E+01
 0.28499998E+02 -0.66347E+01
 0.28549997E+02 -0.70605E+01
 0.28599998E+02 -0.44940E+01
 0.28649998E+02 -0.54961E+01
 0.28699999E+02 -0.57106E+01
 0.28749998E+02 -0.54989E+01
 0.28799997E+02 -0.59884E+01
 0.28849998E+02 -0.66992E+01
 0.28899998E+02 -0.61672E+01
 0.28949999E+02 -0.50779E+01
 0.28999998E+02 -0.71239E+01
 0.29049997E+02 -0.57214E+01
 0.29099998E+02 -0.55161E+01
 0.29149998E+02 -0.71384E+01
 0.29199999E+02 -0.61550E+01
 0.29249998E+02 -0.66581E+01
 0.29299997E+02 -0.68535E+01
 0.29349998E+02 -0.59978E+01
 0.29399998E+02 -0.53980E+01
 0.29449999E+02 -0.54451E+01
 0.29499998E+02 -0.46044E+01
 0.29549997E+02 -0.51648E+01
 0.29599998E+02 -0.51073E+01
 0.29649998E+02 -0.50481E+01
 0.29699999E+02 -0.50105E+01
 0.29749998E+02 -0.55817E+01
 0.29799997E+02 -0.61669E+01
 0.29849998E+02 -0.53025E+01
 0.29899998E+02 -0.54745E+01
 0.29949999E+02 -0.52740E+01
 0.29999998E+02 -0.61337E+01
 0.30049999E+02 -0.61529E+01
 0.30099998E+02 -0.52917E+01
 0.30149998E+02 -0.50416E+01
 0.30199997E+02 -0.62104E+01
 0.30249996E+02 -0.63230E+01
 0.30299999E+02 -0.60298E+01
 0.30349998E+02 -0.57676E+01
 0.30399998E+02 -0.58291E+01
 0.30449997E+02 -0.64778E+01
 0.30499996E+02 -0.59407E+01
 0.30549999E+02 -0.62367E+01
 0.30599998E+02 -0.56068E+01
 0.30649998E+02 -0.44383E+01
 0.30699997E+02 -0.55142E+01
 0.30749996E+02 -0.59257E+01
 0.30799999E+02 -0.54212E+01
 0.30849998E+02 -0.54926E+01
 0.30899998E+02 -0.59327E+01
 0.30949997E+02 -0.60858E+01
 0.30999996E+02 -0.74698E+01
 0.31049999E+02 -0.63367E+01
 0.31099998E+02 -0.49201E+01
 0.31149998E+02 -0.60832E+01
 0.31199997E+02 -0.52050E+01
 0.31249996E+02 -0.63261E+01
 0.31299999E+02 -0.65577E+01
 0.31349998E+02 -0.70596E+01
 0.31399998E+02 -0.52450E+01
 0.31449997E+02 -0.60669E+01
 0.31499996E+02 -0.64696E+01
 0.31549999E+02 -0.55143E+01
 0.31599998E+02 -0.63081E+01
 0.31649998E+02 -0.68061E+01
 0.31699997E+02 -0.74826E+01
 0.31749996E+02 -0.57885E+01
 0.31799999E+02 -0.67513E+01
 0.31849998E+02 -0.62118E+01
 0.31899998E+02 -0.61881E+01
 0.31949997E+02 -0.53134E+01
 0.31999996E+02 -0.63539E+01
 0.32049999E+02 -0.68116E+01
 0.32099998E+02 -0.51150E+01
 0.32149998E+02 -0.47721E+01
 0.32199997E+02 -0.57355E+01
 0.32249996E+02 -0.67989E+01
 0.32299999E+02 -0.62487E+01
 0.32349998E+02 -0.66699E+01
 0.32399998E+02 -0.55785E+01
 0.32449997E+02 -0.63553E+01
 0.32499996E+02 -0.71697E+01
 0.32549999E+02 -0.67237E+01
 0.32599998E+02 -0.67996E+01
 0.32649998E+02 -0.62016E+01
 0.32699997E+02 -0.56761E+01
 0.32749996E+02 -0.68396E+01
 0.32799999E+02 -0.71146E+01
 0.32849998E+02 -0.66379E+01
 0.32899998E+02 -0.67983E+01
 0.32949997E+02 -0.67118E+01
 0.32999996E+02 -0.66964E+01
 0.33049999E+02 -0.56138E+01
 0.33099998E+02 -0.54436E+01
 0.33149998E+02 -0.54833E+01
 0.33199997E+02 -0.61967E+01
 0.33249996E+02 -0.66490E+01
 0.33299999E+02 -0.72828E+01
 0.33349998E+02 -0.66725E+01
 0.33399998E+02 -0.70484E+01
 0.33449997E+02 -0.66156E+01
 0.33499996E+02 -0.62113E+01
 0.33549999E+02 -0.68598E+01
 0.33599998E+02 -0.63494E+01
 0.33649998E+02 -0.69927E+01
 0.33699997E+02 -0.66044E+01
 0.33749996E+02 -0.75737E+01
 0.33799999E+02 -0.58871E+01
 0.33849998E+02 -0.66076E+01
 0.33899998E+02 -0.66131E+01
 0.33949997E+02 -0.64100E+01
 0.33999996E+02 -0.69651E+01
 0.34049999E+02 -0.64882E+01
 0.34099998E+02 -0.67631E+01
 0.34149998E+02 -0.64506E+01
 0.34199997E+02 -0.57207E+01
 0.34249996E+02 -0.61755E+01
 0.34299999E+02 -0.65586E+01
 0.34349998E+02 -0.60232E+01
 0.34399998E+02 -0.71450E+01
 0.34449997E+02 -0.59387E+01
 0.34499996E+02 -0.64233E+01
 0.34549999E+02 -0.65904E+01
 0.34599998E+02 -0.81124E+01
 0.34649998E+02 -0.75883E+01
 0.34699997E+02 -0.68633E+01
 0.34749996E+02 -0.67773E+01
 0.34799999E+02 -0.64215E+01
 0.34849998E+02 -0.70452E+01
 0.34899998E+02 -0.59347E+01
 0.34949997E+02 -0.56780E+01
 0.34999996E+02 -0.63874E+01
 0.35049999E+02 -0.71412E+01
 0.35099998E+02 -0.68955E+01
 0.35149998E+02 -0.60815E+01
 0.35199997E+02 -0.53155E+01
 0.35249996E+02 -0.57075E+01
 0.35299999E+02 -0.63624E+01
 0.35349998E+02 -0.53064E+01
 0.35399998E+02 -0.63637E+01
 0.35449997E+02 -0.72445E+01
 0.35499996E+02 -0.63447E+01
 0.35549999E+02 -0.63266E+01
 0.35599998E+02 -0.70815E+01
 0.35649998E+02 -0.76949E+01
 0.35699997E+02 -0.60510E+01
 0.35749996E+02 -0.56696E+01
 0.35799999E+02 -0.60512E+01
 0.35849998E+02 -0.64700E+01
 0.35899998E+02 -0.59613E+01
 0.35949997E+02 -0.54914E+01
 0.35999996E+02 -0.60033E+01
 0.36049999E+02 -0.62615E+01
 0.36099998E+02 -0.55840E+01
 0.36149998E+02 -0.50527E+01
 0.36199997E+02 -0.46274E+01
 0.36249996E+02 -0.55885E+01
 0.36299999E+02 -0.67117E+01
 0.36349998E+02 -0.65732E+01
 0.36399998E+02 -0.49969E+01
 0.36449997E+02 -0.49941E+01
 0.36499996E+02 -0.66094E+01
 0.36549999E+02 -0.54120E+01
 0.36599998E+02 -0.55089E+01
 0.36649998E+02 -0.63382E+01
 0.36699997E+02 -0.69207E+01
 0.36749996E+02 -0.63022E+01
 0.36799999E+02 -0.52655E+01
 0.36849998E+02 -0.68720E+01
 0.36899998E+02 -0.78815E+01
 0.36949997E+02 -0.58819E+01
 0.36999996E+02 -0.60651E+01
 0.37049999E+02 -0.75754E+01
 0.37099998E+02 -0.64295E+01
 0.37149998E+02 -0.63238E+01
 0.37199997E+02 -0.59775E+01
 0.37249996E+02 -0.58517E+01
 0.37299999E+02 -0.68330E+01
 0.37349998E+02 -0.61552E+01
 0.37399998E+02 -0.76510E+01
 0.37449997E+02 -0.56371E+01
 0.37499996E+02 -0.52899E+01
 0.37549999E+02 -0.72896E+01
 0.37599998E+02 -0.58971E+01
 0.37649998E+02 -0.78045E+01
 0.37699997E+02 -0.78066E+01
 0.37749996E+02 -0.72162E+01
 0.37799999E+02 -0.57254E+01
 0.37849998E+02 -0.56802E+01
 0.37899998E+02 -0.77566E+01
 0.37949997E+02 -0.77115E+01
 0.37999996E+02 -0.75660E+01
 0.38049999E+02 -0.67622E+01
 0.38099998E+02 -0.61441E+01
 0.38149998E+02 -0.66494E+01
 0.38199997E+02 -0.66909E+01
 0.38249996E+02 -0.65765E+01
 0.38299999E+02 -0.61563E+01
 0.38349998E+02 -0.60786E+01
 0.38399998E+02 -0.59811E+01
 0.38449997E+02 -0.59656E+01
 0.38499996E+02 -0.56549E+01
 0.38549999E+02 -0.53582E+01
 0.38599998E+02 -0.67718E+01
 0.38649998E+02 -0.58589E+01
 0.38699997E+02 -0.53193E+01
 0.38749996E+02 -0.62342E+01
 0.38799999E+02 -0.63889E+01
 0.38849998E+02 -0.45422E+01
 0.38899998E+02 -0.57168E+01
 0.38949997E+02 -0.66885E+01
 0.38999996E+02 -0.54720E+01
 0.39049999E+02 -0.67677E+01
 0.39099998E+02 -0.59457E+01
 0.39149998E+02 -0.64914E+01
 0.39199997E+02 -0.68125E+01
 0.39249996E+02 -0.59919E+01
 0.39299999E+02 -0.69593E+01
 0.39349998E+02 -0.57235E+01
 0.39399998E+02 -0.55522E+01
 0.39449997E+02 -0.74345E+01
 0.39499996E+02 -0.76897E+01
 0.39549999E+02 -0.70497E+01
 0.39599998E+02 -0.60332E+01
 0.39649998E+02 -0.60860E+01
 0.39699997E+02 -0.72482E+01
 0.39749996E+02 -0.69010E+01
 0.39799999E+02 -0.73825E+01
 0.39849998E+02 -0.72587E+01
 0.39899998E+02 -0.70563E+01
 0.39949997E+02 -0.74787E+01
 0.39999996E+02 -0.61003E+01
 0.40049999E+02 -0.67016E+01
 0.40099998E+02 -0.70145E+01
 0.40149998E+02 -0.60822E+01
 0.40199997E+02 -0.55771E+01
 0.40249996E+02 -0.60898E+01
 0.40299999E+02 -0.38148E+01
 0.40349998E+02 -0.55457E+01
 0.40399998E+02 -0.64177E+01
 0.40449997E+02 -0.58832E+01
 0.40499996E+02 -0.68324E+01
 0.40549999E+02 -0.61918E+01
 0.40599998E+02 -0.83352E+01
 0.40649998E+02 -0.73725E+01
 0.40699997E+02 -0.79945E+01
 0.40749996E+02 -0.69379E+01
 0.40799999E+02 -0.60689E+01
 0.40849998E+02 -0.62107E+01
 0.40899998E+02 -0.62963E+01
 0.40949997E+02 -0.67052E+01
 0.40999996E+02 -0.60073E+01
 0.41049999E+02 -0.65851E+01
 0.41099998E+02 -0.64779E+01
 0.41149998E+02 -0.70862E+01
 0.41199997E+02 -0.73174E+01
 0.41249996E+02 -0.72823E+01
 0.41299999E+02 -0.71195E+01
 0.41349998E+02 -0.79434E+01
 0.41399998E+02 -0.71374E+01
 0.41449997E+02 -0.65628E+01
 0.41499996E+02 -0.68244E+01
 0.41549999E+02 -0.61275E+01
 0.41599998E+02 -0.67381E+01
 0.41649998E+02 -0.61330E+01
 0.41699997E+02 -0.56733E+01
 0.41749996E+02 -0.49738E+01
 0.41799999E+02 -0.52062E+01
 0.41849998E+02 -0.63581E+01
 0.41899998E+02 -0.59211E+01
 0.41949997E+02 -0.71440E+01
 0.41999996E+02 -0.71646E+01
 0.42049999E+02 -0.65420E+01
 0.42099998E+02 -0.67594E+01
 0.42149998E+02 -0.64165E+01
 0.42199997E+02 -0.63322E+01
 0.42249996E+02 -0.69057E+01
 0.42299999E+02 -0.69568E+01
 0.42349998E+02 -0.67380E+01
 0.42399998E+02 -0.67057E+01
 0.42449997E+02 -0.61244E+01
 0.42499996E+02 -0.61018E+01
 0.42549999E+02 -0.69254E+01
 0.42599998E+02 -0.84157E+01
 0.42649998E+02 -0.80097E+01
 0.42699997E+02 -0.83551E+01
 0.42749996E+02 -0.78826E+01
 0.42799995E+02 -0.74503E+01
 0.42849998E+02 -0.72911E+01
 0.42899998E+02 -0.60492E+01
 0.42949997E+02 -0.63475E+01
 0.42999996E+02 -0.65793E+01
 0.43049995E+02 -0.65888E+01
 0.43099998E+02 -0.61306E+01
 0.43149998E+02 -0.55898E+01
 0.43199997E+02 -0.55562E+01
 0.43249996E+02 -0.63418E+01
 0.43299995E+02 -0.66685E+01
 0.43349998E+02 -0.55111E+01
 0.43399998E+02 -0.59885E+01
 0.43449997E+02 -0.69421E+01
 0.43499996E+02 -0.60366E+01
 0.43549995E+02 -0.69810E+01
 0.43599998E+02 -0.68242E+01
 0.43649998E+02 -0.66970E+01
 0.43699997E+02 -0.56805E+01
 0.43749996E+02 -0.52569E+01
 0.43799995E+02 -0.64528E+01
 0.43849998E+02 -0.61541E+01
 0.43899998E+02 -0.68084E+01
 0.43949997E+02 -0.77195E+01
 0.43999996E+02 -0.66995E+01
 0.44049995E+02 -0.54628E+01
 0.44099998E+02 -0.56004E+01
 0.44149998E+02 -0.62050E+01
 0.44199997E+02 -0.57089E+01
 0.44249996E+02 -0.63143E+01
 0.44299995E+02 -0.65787E+01
 0.44349998E+02 -0.68662E+01
 0.44399998E+02 -0.74349E+01
 0.44449997E+02 -0.55388E+01
 0.44499996E+02 -0.61555E+01
 0.44549995E+02 -0.69211E+01
 0.44599998E+02 -0.73938E+01
 0.44649998E+02 -0.47191E+01
 0.44699997E+02 -0.57349E+01
 0.44749996E+02 -0.68490E+01
 0.44799995E+02 -0.71180E+01
 0.44849998E+02 -0.73698E+01
 0.44899998E+02 -0.61918E+01
 0.44949997E+02 -0.75584E+01
 0.44999996E+02 -0.58748E+01
 0.45049995E+02 -0.68521E+01
 0.45099998E+02 -0.73372E+01
 0.45149998E+02 -0.68176E+01
 0.45199997E+02 -0.62529E+01
 0.45249996E+02 -0.61927E+01
 0.45299995E+02 -0.69216E+01
 0.45349998E+02 -0.57320E+01
 0.45399998E+02 -0.56983E+01
 0.45449997E+02 -0.67437E+01
 0.45499996E+02 -0.65001E+01
 0.45549995E+02 -0.68989E+01
 0.45599998E+02 -0.81462E+01
 0.45649998E+02 -0.61542E+01
 0.45699997E+02 -0.69526E+01
 0.45749996E+02 -0.69588E+01
 0.45799995E+02 -0.59089E+01
 0.45849998E+02 -0.74762E+01
 0.45899998E+02 -0.67964E+01
 0.45949997E+02 -0.61047E+01
 0.45999996E+02 -0.63872E+01
 0.46049995E+02 -0.65248E+01
 0.46099998E+02 -0.55807E+01
 0.46149998E+02 -0.66307E+01
 0.46199997E+02 -0.67959E+01
 0.46249996E+02 -0.64755E+01
 0.46299995E+02 -0.76402E+01
 0.46349998E+02 -0.67732E+01
 0.46399998E+02 -0.66265E+01
 0.46449997E+02 -0.63787E+01
 0.46499996E+02 -0.67940E+01
 0.46549995E+02 -0.71932E+01
 0.46599998E+02 -0.63384E+01
 0.46649998E+02 -0.67720E+01
 0.46699997E+02 -0.65023E+01
 0.46749996E+02 -0.74640E+01
 0.46799995E+02 -0.66995E+01
 0.46849998E+02 -0.55428E+01
 0.46899998E+02 -0.58976E+01
 0.46949997E+02 -0.63398E+01
 0.46999996E+02 -0.62783E+01
 0.47049995E+02 -0.63444E+01
 0.47099998E+02 -0.69710E+01
 0.47149998E+02 -0.66943E+01
 0.47199997E+02 -0.63665E+01
 0.47249996E+02 -0.67553E+01
 0.47299995E+02 -0.71993E+01
 0.47349998E+02 -0.51887E+01
 0.47399998E+02 -0.64739E+01
 0.47449997E+02 -0.59457E+01
 0.47499996E+02 -0.56976E+01
 0.47549995E+02 -0.54225E+01
 0.47599998E+02 -0.60227E+01
 0.47649998E+02 -0.66450E+01
 0.47699997E+02 -0.53348E+01
 0.47749996E+02 -0.58699E+01
 0.47799995E+02 -0.59737E+01
 0.47849998E+02 -0.57173E+01
 0.47899998E+02 -0.50912E+01
 0.47949997E+02 -0.67130E+01
 0.47999996E+02 -0.65527E+01
 0.48049995E+02 -0.65882E+01
 0.48099998E+02 -0.72596E+01
 0.48149998E+02 -0.64426E+01
 0.48199997E+02 -0.61582E+01
 0.48249996E+02 -0.67342E+01
 0.48299995E+02 -0.70831E+01
 0.48349998E+02 -0.62336E+01
 0.48399998E+02 -0.70711E+01
 0.48449997E+02 -0.67191E+01
 0.48499996E+02 -0.60895E+01
 0.48549995E+02 -0.71524E+01
 0.48599998E+02 -0.52971E+01
 0.48649998E+02 -0.59696E+01
 0.48699997E+02 -0.66443E+01
 0.48749996E+02 -0.52725E+01
 0.48799995E+02 -0.58608E+01
 0.48849998E+02 -0.61997E+01
 0.48899998E+02 -0.68040E+01
 0.48949997E+02 -0.68511E+01
 0.48999996E+02 -0.67207E+01
 0.49049995E+02 -0.68901E+01
 0.49099998E+02 -0.72378E+01
 0.49149998E+02 -0.66896E+01
 0.49199997E+02 -0.62952E+01
 0.49249996E+02 -0.70776E+01
 0.49299995E+02 -0.63350E+01
 0.49349998E+02 -0.55955E+01
 0.49399998E+02 -0.68554E+01
 0.49449997E+02 -0.69516E+01
 0.49499996E+02 -0.66219E+01
 0.49549995E+02 -0.75648E+01
 0.49599998E+02 -0.51584E+01
 0.49649998E+02 -0.51991E+01
 0.49699997E+02 -0.69556E+01
 0.49749996E+02 -0.65477E+01
 0.49799995E+02 -0.57980E+01
 0.49849998E+02 -0.58010E+01
 0.49899998E+02 -0.61290E+01
 0.49949997E+02 -0.50333E+01
 0.49999996E+02 -0.54075E+01
 0.50049995E+02 -0.53728E+01
 0.50099998E+02 -0.64176E+01
 0.50149998E+02 -0.72745E+01
 0.50199997E+02 -0.66825E+01
 0.50249996E+02 -0.72044E+01
 0.50299995E+02 -0.72866E+01
 0.50349998E+02 -0.56603E+01
 0.50399998E+02 -0.59276E+01
 0.50449997E+02 -0.72369E+01
 0.50499996E+02 -0.66869E+01
 0.50549995E+02 -0.61694E+01
 0.50599998E+02 -0.51358E+01
 0.50649998E+02 -0.52001E+01
 0.50699997E+02 -0.64106E+01
 0.50749996E+02 -0.65704E+01
 0.50799995E+02 -0.56740E+01
 0.50849998E+02 -0.63357E+01
 0.50899998E+02 -0.55846E+01
 0.50949997E+02 -0.65833E+01
 0.50999996E+02 -0.69285E+01
 0.51049995E+02 -0.55512E+01
 0.51099998E+02 -0.64980E+01
 0.51149998E+02 -0.59907E+01
 0.51199997E+02 -0.73641E+01
 0.51249996E+02 -0.82885E+01
 0.51299995E+02 -0.71130E+01
 0.51349998E+02 -0.64702E+01
 0.51399998E+02 -0.59234E+01
 0.51449997E+02 -0.62662E+01
 0.51499996E+02 -0.60756E+01
 0.51549995E+02 -0.62466E+01
 0.51599998E+02 -0.62837E+01
 0.51649998E+02 -0.57799E+01
 0.51699997E+02 -0.67502E+01
 0.51749996E+02 -0.67411E+01
 0.51799995E+02 -0.60232E+01
 0.51849998E+02 -0.64444E+01
 0.51899998E+02 -0.63332E+01
 0.51949997E+02 -0.71101E+01
 0.51999996E+02 -0.66780E+01
 0.52049995E+02 -0.53442E+01
 0.52099998E+02 -0.71696E+01
 0.52149998E+02 -0.68816E+01
 0.52199997E+02 -0.69408E+01
 0.52249996E+02 -0.71513E+01
 0.52299995E+02 -0.68628E+01
 0.52349998E+02 -0.66687E+01
 0.52399998E+02 -0.63357E+01
 0.52449997E+02 -0.62783E+01
 0.52499996E+02 -0.62500E+01
 0.52549995E+02 -0.66498E+01
 0.52599998E+02 -0.56963E+01
 0.52649998E+02 -0.59702E+01
 0.52699997E+02 -0.72487E+01
 0.52749996E+02 -0.70362E+01
 0.52799995E+02 -0.74196E+01
 0.52849998E+02 -0.68901E+01
 0.52899998E+02 -0.70426E+01
 0.52949997E+02 -0.66564E+01
 0.52999996E+02 -0.64071E+01
 0.53049995E+02 -0.68846E+01
 0.53099998E+02 -0.59713E+01
 0.53149998E+02 -0.63694E+01
 0.53199997E+02 -0.62655E+01
 0.53249996E+02 -0.72634E+01
 0.53299995E+02 -0.69051E+01
 0.53349998E+02 -0.61438E+01
 0.53399998E+02 -0.63501E+01
 0.53449997E+02 -0.58302E+01
 0.53499996E+02 -0.57118E+01
 0.53549995E+02 -0.67314E+01
 0.53599998E+02 -0.70441E+01
 0.53649998E+02 -0.73800E+01
 0.53699997E+02 -0.73225E+01
 0.53749996E+02 -0.64545E+01
 0.53799995E+02 -0.67331E+01
 0.53849998E+02 -0.56635E+01
 0.53899998E+02 -0.64059E+01
 0.53949997E+02 -0.61475E+01
 0.53999996E+02 -0.59399E+01
 0.54049995E+02 -0.60112E+01
 0.54099998E+02 -0.63106E+01
 0.54149998E+02 -0.73163E+01
 0.54199997E+02 -0.64651E+01
 0.54249996E+02 -0.78787E+01
 0.54299995E+02 -0.71945E+01
 0.54349998E+02 -0.63638E+01
 0.54399998E+02 -0.65637E+01
 0.54449997E+02 -0.75321E+01
 0.54499996E+02 -0.57809E+01
 0.54549995E+02 -0.63073E+01
 0.54599998E+02 -0.65542E+01
 0.54649998E+02 -0.62196E+01
 0.54699997E+02 -0.71319E+01
 0.54749996E+02 -0.63186E+01
 0.54799995E+02 -0.65347E+01
 0.54849998E+02 -0.60351E+01
 0.54899998E+02 -0.67632E+01
 0.54949997E+02 -0.58900E+01
 0.54999996E+02 -0.68164E+01
 0.55049995E+02 -0.72039E+01
 0.55099998E+02 -0.63350E+01
 0.55149998E+02 -0.72339E+01
 0.55199997E+02 -0.64924E+01
 0.55249996E+02 -0.56320E+01
 0.55299995E+02 -0.62871E+01
 0.55349998E+02 -0.66084E+01
 0.55399998E+02 -0.78800E+01
 0.55449997E+02 -0.71744E+01
 0.55499996E+02 -0.69479E+01
 0.55549995E+02 -0.67348E+01
 0.55599998E+02 -0.68791E+01
 0.55649998E+02 -0.65072E+01
 0.55699997E+02 -0.62946E+01
 0.55749996E+02 -0.73045E+01
 0.55799995E+02 -0.70293E+01
 0.55849995E+02 -0.68335E+01
 0.55899998E+02 -0.62248E+01
 0.55949997E+02 -0.71865E+01
 0.55999996E+02 -0.61086E+01
 0.56049995E+02 -0.62367E+01
 0.56099995E+02 -0.57225E+01
 0.56149998E+02 -0.64060E+01
 0.56199997E+02 -0.64473E+01
 0.56249996E+02 -0.55240E+01
 0.56299995E+02 -0.65753E+01
 0.56349995E+02 -0.60751E+01
 0.56399998E+02 -0.70596E+01
 0.56449997E+02 -0.67030E+01
 0.56499996E+02 -0.70434E+01
 0.56549995E+02 -0.81439E+01
 0.56599995E+02 -0.63101E+01
 0.56649998E+02 -0.64972E+01
 0.56699997E+02 -0.79087E+01
 0.56749996E+02 -0.66623E+01
 0.56799995E+02 -0.60746E+01
 0.56849995E+02 -0.59913E+01
 0.56899998E+02 -0.55811E+01
 0.56949997E+02 -0.40883E+01
 0.56999996E+02 -0.56475E+01
 0.57049995E+02 -0.59423E+01
 0.57099995E+02 -0.41855E+01
 0.57149998E+02 -0.60867E+01
 0.57199997E+02 -0.60048E+01
 0.57249996E+02 -0.65235E+01
 0.57299995E+02 -0.61358E+01
 0.57349995E+02 -0.59617E+01
 0.57399998E+02 -0.56668E+01
 0.57449997E+02 -0.54863E+01
 0.57499996E+02 -0.73061E+01
 0.57549995E+02 -0.70681E+01
 0.57599995E+02 -0.65655E+01
 0.57649998E+02 -0.58463E+01
 0.57699997E+02 -0.58918E+01
 0.57749996E+02 -0.65287E+01
 0.57799995E+02 -0.61033E+01
 0.57849995E+02 -0.59715E+01
 0.57899998E+02 -0.59674E+01
 0.57949997E+02 -0.55831E+01
 0.57999996E+02 -0.57227E+01
 0.58049995E+02 -0.78844E+01
 0.58099995E+02 -0.70778E+01
 0.58149998E+02 -0.64008E+01
 0.58199997E+02 -0.70152E+01
 0.58249996E+02 -0.55181E+01
 0.58299995E+02 -0.71924E+01
 0.58349995E+02 -0.59011E+01
 0.58399998E+02 -0.52177E+01
 0.58449997E+02 -0.62471E+01
 0.58499996E+02 -0.70598E+01
 0.58549995E+02 -0.65477E+01
 0.58599995E+02 -0.65672E+01
 0.58649998E+02 -0.79681E+01
 0.58699997E+02 -0.61936E+01
 0.58749996E+02 -0.68679E+01
 0.58799995E+02 -0.70438E+01
 0.58849995E+02 -0.74936E+01
 0.58899998E+02 -0.78089E+01
 0.58949997E+02 -0.53288E+01
 0.58999996E+02 -0.61319E+01
 0.59049995E+02 -0.60907E+01
 0.59099995E+02 -0.64078E+01
 0.59149998E+02 -0.73578E+01
 0.59199997E+02 -0.66168E+01
 0.59249996E+02 -0.62085E+01
 0.59299995E+02 -0.69374E+01
 0.59349995E+02 -0.65846E+01
 0.59399998E+02 -0.66939E+01
 0.59449997E+02 -0.68464E+01
 0.59499996E+02 -0.61409E+01
 0.59549995E+02 -0.57376E+01
 0.59599995E+02 -0.57581E+01
 0.59649998E+02 -0.67429E+01
 0.59699997E+02 -0.52031E+01
 0.59749996E+02 -0.57496E+01
 0.59799995E+02 -0.56037E+01
 0.59849995E+02 -0.61496E+01
 0.59899998E+02 -0.58614E+01
 0.59949997E+02 -0.62630E+01
 0.59999996E+02 -0.59015E+01
 0.60049995E+02 -0.52748E+01
 0.60099995E+02 -0.56652E+01
 0.60149998E+02 -0.57388E+01
 0.60199997E+02 -0.59071E+01
 0.60249996E+02 -0.55582E+01
 0.60299995E+02 -0.61536E+01
 0.60349995E+02 -0.63523E+01
 0.60399998E+02 -0.67649E+01
 0.60449997E+02 -0.55272E+01
 0.60499996E+02 -0.65189E+01
 0.60549995E+02 -0.72355E+01
 0.60599995E+02 -0.71828E+01
 0.60649998E+02 -0.61903E+01
 0.60699997E+02 -0.59158E+01
 0.60749996E+02 -0.68873E+01
 0.60799995E+02 -0.63747E+01
 0.60849995E+02 -0.66131E+01
 0.60899998E+02 -0.53987E+01
 0.60949997E+02 -0.55037E+01
 0.60999996E+02 -0.72623E+01
 0.61049995E+02 -0.59807E+01
 0.61099995E+02 -0.54649E+01
 0.61149998E+02 -0.64841E+01
 0.61199997E+02 -0.57154E+01
 0.61249996E+02 -0.56373E+01
 0.61299995E+02 -0.62028E+01
 0.61349995E+02 -0.59977E+01
 0.61399998E+02 -0.58858E+01
 0.61449997E+02 -0.61764E+01
 0.61499996E+02 -0.59157E+01
 0.61549995E+02 -0.56413E+01
 0.61599995E+02 -0.55468E+01
 0.61649998E+02 -0.60725E+01
 0.61699997E+02 -0.56182E+01
 0.61749996E+02 -0.55612E+01
 0.61799995E+02 -0.70107E+01
 0.61849995E+02 -0.60403E+01
 0.61899998E+02 -0.58952E+01
 0.61949997E+02 -0.52265E+01
 0.61999996E+02 -0.50104E+01
 0.62049995E+02 -0.52507E+01
 0.62099998E+02 -0.50398E+01
 0.62149994E+02 -0.63843E+01
 0.62199997E+02 -0.63992E+01
 0.62249992E+02 -0.57688E+01
 0.62299995E+02 -0.62160E+01
 0.62349998E+02 -0.51428E+01
 0.62399994E+02 -0.46908E+01
 0.62449997E+02 -0.58042E+01
 0.62499992E+02 -0.65306E+01
 0.62549995E+02 -0.76429E+01
 0.62599998E+02 -0.79699E+01
 0.62649994E+02 -0.62565E+01
 0.62699997E+02 -0.64813E+01
 0.62749992E+02 -0.62916E+01
 0.62799995E+02 -0.49339E+01
 0.62849998E+02 -0.63907E+01
 0.62899994E+02 -0.70793E+01
 0.62949997E+02 -0.73412E+01
 0.62999992E+02 -0.55669E+01
 0.63049995E+02 -0.64989E+01
 0.63099998E+02 -0.79089E+01
 0.63149994E+02 -0.66130E+01
 0.63199997E+02 -0.63157E+01
 0.63249992E+02 -0.68680E+01
 0.63299995E+02 -0.84106E+01
 0.63349998E+02 -0.61606E+01
 0.63399994E+02 -0.58665E+01
 0.63449997E+02 -0.69867E+01
 0.63499992E+02 -0.63010E+01
 0.63549995E+02 -0.65815E+01
 0.63599998E+02 -0.73469E+01
 0.63649994E+02 -0.66792E+01
 0.63699997E+02 -0.70742E+01
 0.63749992E+02 -0.70432E+01
 0.63799995E+02 -0.58978E+01
 0.63849998E+02 -0.54522E+01
 0.63899994E+02 -0.62094E+01
 0.63949997E+02 -0.76479E+01
 0.63999992E+02 -0.61524E+01
 0.64049995E+02 -0.73036E+01
 0.64099998E+02 -0.59428E+01
 0.64149994E+02 -0.60736E+01
 0.64199997E+02 -0.57993E+01
 0.64249992E+02 -0.52450E+01
 0.64299995E+02 -0.51988E+01
 0.64349998E+02 -0.47347E+01
 0.64399994E+02 -0.58108E+01
 0.64449997E+02 -0.47955E+01
 0.64499992E+02 -0.53290E+01
 0.64549995E+02 -0.66078E+01
 0.64599998E+02 -0.58317E+01
 0.64649994E+02 -0.57216E+01
 0.64699997E+02 -0.59845E+01
 0.64749992E+02 -0.53781E+01
 0.64799995E+02 -0.71976E+01
 0.64849998E+02 -0.71320E+01
 0.64899994E+02 -0.61780E+01
 0.64949997E+02 -0.53266E+01
 0.64999992E+02 -0.51671E+01
 0.65049995E+02 -0.52292E+01
 0.65099998E+02 -0.62152E+01
 0.65149994E+02 -0.57109E+01
 0.65199997E+02 -0.58896E+01
 0.65249992E+02 -0.60464E+01
 0.65299995E+02 -0.67344E+01
 0.65349998E+02 -0.55722E+01
 0.65399994E+02 -0.56658E+01
 0.65449997E+02 -0.74525E+01
 0.65499992E+02 -0.58034E+01
 0.65549995E+02 -0.67247E+01
 0.65599998E+02 -0.71983E+01
 0.65649994E+02 -0.75215E+01
 0.65699997E+02 -0.69533E+01
 0.65749992E+02 -0.65710E+01
 0.65799995E+02 -0.62561E+01
 0.65849998E+02 -0.74521E+01
 0.65899994E+02 -0.68221E+01
 0.65949997E+02 -0.61467E+01
 0.65999992E+02 -0.77135E+01
 0.66049995E+02 -0.68868E+01
 0.66099998E+02 -0.73628E+01
 0.66149994E+02 -0.62772E+01
 0.66199997E+02 -0.59840E+01
 0.66249992E+02 -0.70321E+01
 0.66299995E+02 -0.73219E+01
 0.66349998E+02 -0.66269E+01
 0.66399994E+02 -0.68531E+01
 0.66449997E+02 -0.62200E+01
 0.66499992E+02 -0.49932E+01
 0.66549995E+02 -0.62388E+01
 0.66599998E+02 -0.58006E+01
 0.66649994E+02 -0.68038E+01
 0.66699997E+02 -0.72171E+01
 0.66749992E+02 -0.73486E+01
 0.66799995E+02 -0.77816E+01
 0.66849998E+02 -0.57906E+01
 0.66899994E+02 -0.55292E+01
 0.66949997E+02 -0.68330E+01
 0.66999992E+02 -0.67984E+01
 0.67049995E+02 -0.66188E+01
 0.67099998E+02 -0.60404E+01
 0.67149994E+02 -0.61546E+01
 0.67199997E+02 -0.53000E+01
 0.67249992E+02 -0.40995E+01
 0.67299995E+02 -0.55488E+01
 0.67349998E+02 -0.57874E+01
 0.67399994E+02 -0.71815E+01
 0.67449997E+02 -0.73197E+01
 0.67499992E+02 -0.61379E+01
 0.67549995E+02 -0.70790E+01
 0.67599998E+02 -0.74360E+01
 0.67649994E+02 -0.62274E+01
 0.67699997E+02 -0.51541E+01
 0.67749992E+02 -0.68775E+01
 0.67799995E+02 -0.66117E+01
 0.67849998E+02 -0.65523E+01
 0.67899994E+02 -0.67584E+01
 0.67949997E+02 -0.59180E+01
 0.67999992E+02 -0.69825E+01
 0.68049995E+02 -0.72738E+01
 0.68099998E+02 -0.65403E+01
 0.68149994E+02 -0.60673E+01
 0.68199997E+02 -0.60705E+01
 0.68249992E+02 -0.56790E+01
 0.68299995E+02 -0.68812E+01
 0.68349998E+02 -0.65135E+01
 0.68399994E+02 -0.47137E+01
 0.68449997E+02 -0.49864E+01
 0.68499992E+02 -0.60202E+01
 0.68549995E+02 -0.57477E+01
 0.68599998E+02 -0.50617E+01
 0.68649994E+02 -0.60802E+01
 0.68699997E+02 -0.61234E+01
 0.68749992E+02 -0.64784E+01
 0.68799995E+02 -0.59183E+01
 0.68849998E+02 -0.58290E+01
 0.68899994E+02 -0.59038E+01
 0.68949997E+02 -0.71571E+01
 0.68999992E+02 -0.70535E+01
 0.69049995E+02 -0.64845E+01
 0.69099998E+02 -0.71707E+01
 0.69149994E+02 -0.72560E+01
 0.69199997E+02 -0.70025E+01
 0.69249992E+02 -0.52671E+01
 0.69299995E+02 -0.67941E+01
 0.69349998E+02 -0.68577E+01
 0.69399994E+02 -0.77272E+01
 0.69449997E+02 -0.65155E+01
 0.69499992E+02 -0.56703E+01
 0.69549995E+02 -0.76929E+01
 0.69599998E+02 -0.57484E+01
 0.69649994E+02 -0.66031E+01
 0.69699997E+02 -0.63297E+01
 0.69749992E+02 -0.67625E+01
 0.69799995E+02 -0.74466E+01
 0.69849998E+02 -0.77669E+01
 0.69899994E+02 -0.76674E+01
 0.69949997E+02 -0.64535E+01
 0.69999992E+02 -0.65586E+01
 0.70049995E+02 -0.62235E+01
 0.70099998E+02 -0.64777E+01
 0.70149994E+02 -0.67548E+01
 0.70199997E+02 -0.74391E+01
 0.70249992E+02 -0.66270E+01
 0.70299995E+02 -0.72806E+01
 0.70349998E+02 -0.72560E+01
 0.70399994E+02 -0.76648E+01
 0.70449997E+02 -0.65475E+01
 0.70499992E+02 -0.57345E+01
 0.70549995E+02 -0.71076E+01
 0.70599998E+02 -0.62935E+01
 0.70649994E+02 -0.68568E+01
 0.70699997E+02 -0.63978E+01
 0.70749992E+02 -0.57960E+01
 0.70799995E+02 -0.70208E+01
 0.70849998E+02 -0.65274E+01
 0.70899994E+02 -0.69889E+01
 0.70949997E+02 -0.67957E+01
 0.70999992E+02 -0.63401E+01
 0.71049995E+02 -0.62422E+01
 0.71099998E+02 -0.57387E+01
 0.71149994E+02 -0.64570E+01
 0.71199997E+02 -0.60718E+01
 0.71249992E+02 -0.75748E+01
 0.71299995E+02 -0.61444E+01
 0.71349998E+02 -0.50952E+01
 0.71399994E+02 -0.65026E+01
 0.71449997E+02 -0.67533E+01
 0.71499992E+02 -0.59670E+01
 0.71549995E+02 -0.62933E+01
 0.71599998E+02 -0.73645E+01
 0.71649994E+02 -0.66799E+01
 0.71699997E+02 -0.76075E+01
 0.71749992E+02 -0.65239E+01
 0.71799995E+02 -0.49657E+01
 0.71849998E+02 -0.57717E+01
 0.71899994E+02 -0.57448E+01
 0.71949997E+02 -0.63605E+01
 0.71999992E+02 -0.58569E+01
 0.72049995E+02 -0.58592E+01
 0.72099998E+02 -0.68992E+01
 0.72149994E+02 -0.68473E+01
 0.72199997E+02 -0.66605E+01
 0.72249992E+02 -0.66711E+01
 0.72299995E+02 -0.68553E+01
 0.72349998E+02 -0.61351E+01
 0.72399994E+02 -0.73846E+01
 0.72449997E+02 -0.76560E+01
 0.72499992E+02 -0.64789E+01
 0.72549995E+02 -0.63702E+01
 0.72599998E+02 -0.70796E+01
 0.72649994E+02 -0.67283E+01
 0.72699997E+02 -0.68108E+01
 0.72749992E+02 -0.65931E+01
 0.72799995E+02 -0.61773E+01
 0.72849998E+02 -0.70436E+01
 0.72899994E+02 -0.64615E+01
 0.72949997E+02 -0.61685E+01
 0.72999992E+02 -0.64970E+01
 0.73049995E+02 -0.72139E+01
 0.73099998E+02 -0.54165E+01
 0.73149994E+02 -0.62215E+01
 0.73199997E+02 -0.76236E+01
 0.73249992E+02 -0.65020E+01
 0.73299995E+02 -0.61509E+01
 0.73349998E+02 -0.68127E+01
 0.73399994E+02 -0.67567E+01
 0.73449997E+02 -0.60153E+01
 0.73499992E+02 -0.69985E+01
 0.73549995E+02 -0.66782E+01
 0.73599998E+02 -0.67151E+01
 0.73649994E+02 -0.54161E+01
 0.73699997E+02 -0.61066E+01
 0.73749992E+02 -0.68817E+01
 0.73799995E+02 -0.63660E+01
 0.73849998E+02 -0.74128E+01
 0.73899994E+02 -0.74145E+01
 0.73949997E+02 -0.61310E+01
 0.73999992E+02 -0.61126E+01
 0.74049995E+02 -0.69596E+01
 0.74099998E+02 -0.55431E+01
 0.74149994E+02 -0.52357E+01
 0.74199997E+02 -0.49895E+01
 0.74249992E+02 -0.62686E+01
 0.74299995E+02 -0.57021E+01
 0.74349998E+02 -0.48271E+01
 0.74399994E+02 -0.66660E+01
 0.74449997E+02 -0.60491E+01
 0.74499992E+02 -0.54282E+01
 0.74549995E+02 -0.67566E+01
 0.74599998E+02 -0.65647E+01
 0.74649994E+02 -0.60890E+01
 0.74699997E+02 -0.62357E+01
 0.74749992E+02 -0.69381E+01
 0.74799995E+02 -0.65963E+01
 0.74849998E+02 -0.60951E+01
 0.74899994E+02 -0.65146E+01
 0.74949997E+02 -0.61149E+01
 0.74999992E+02 -0.66119E+01
 0.75049995E+02 -0.58641E+01
 0.75099998E+02 -0.64240E+01
 0.75149994E+02 -0.64574E+01
 0.75199997E+02 -0.57786E+01
 0.75249992E+02 -0.63674E+01
 0.75299995E+02 -0.58425E+01
 0.75349998E+02 -0.62277E+01
 0.75399994E+02 -0.61349E+01
 0.75449997E+02 -0.60682E+01
 0.75499992E+02 -0.64091E+01
 0.75549995E+02 -0.50302E+01
 0.75599998E+02 -0.56207E+01
 0.75649994E+02 -0.54136E+01
 0.75699997E+02 -0.54081E+01
 0.75749992E+02 -0.63808E+01
 0.75799995E+02 -0.59828E+01
 0.75849998E+02 -0.58470E+01
 0.75899994E+02 -0.58859E+01
 0.75949997E+02 -0.65710E+01
 0.75999992E+02 -0.68228E+01
 0.76049995E+02 -0.54258E+01
 0.76099998E+02 -0.56853E+01
 0.76149994E+02 -0.67360E+01
 0.76199997E+02 -0.60346E+01
 0.76249992E+02 -0.53508E+01
 0.76299995E+02 -0.61445E+01
 0.76349998E+02 -0.67323E+01
 0.76399994E+02 -0.67987E+01
 0.76449997E+02 -0.65601E+01
 0.76499992E+02 -0.49976E+01
 0.76549995E+02 -0.49063E+01
 0.76599998E+02 -0.67710E+01
 0.76649994E+02 -0.70267E+01
 0.76699997E+02 -0.62975E+01
 0.76749992E+02 -0.65378E+01
 0.76799995E+02 -0.69184E+01
 0.76849998E+02 -0.61738E+01
 0.76899994E+02 -0.55445E+01
 0.76949997E+02 -0.67470E+01
 0.76999992E+02 -0.67928E+01
 0.77049995E+02 -0.71441E+01
 0.77099998E+02 -0.67182E+01
 0.77149994E+02 -0.60286E+01
 0.77199997E+02 -0.63984E+01
 0.77249992E+02 -0.61319E+01
 0.77299995E+02 -0.53612E+01
 0.77349998E+02 -0.61044E+01
 0.77399994E+02 -0.64233E+01
 0.77449997E+02 -0.57526E+01
 0.77499992E+02 -0.47371E+01
 0.77549995E+02 -0.54210E+01
 0.77599998E+02 -0.57547E+01
 0.77649994E+02 -0.46232E+01
 0.77699997E+02 -0.61407E+01
 0.77749992E+02 -0.54390E+01
 0.77799995E+02 -0.54284E+01
 0.77849998E+02 -0.63101E+01
 0.77899994E+02 -0.65298E+01
 0.77949997E+02 -0.64970E+01
 0.77999992E+02 -0.64807E+01
 0.78049995E+02 -0.63115E+01
 0.78099998E+02 -0.53134E+01
 0.78149994E+02 -0.63025E+01
 0.78199997E+02 -0.59225E+01
 0.78249992E+02 -0.63904E+01
 0.78299995E+02 -0.61352E+01
 0.78349998E+02 -0.64788E+01
 0.78399994E+02 -0.75593E+01
 0.78449997E+02 -0.59387E+01
 0.78499992E+02 -0.65378E+01
 0.78549995E+02 -0.70087E+01
 0.78599998E+02 -0.69096E+01
 0.78649994E+02 -0.61048E+01
 0.78699997E+02 -0.64589E+01
 0.78749992E+02 -0.68342E+01
 0.78799995E+02 -0.50684E+01
 0.78849998E+02 -0.54673E+01
 0.78899994E+02 -0.61649E+01
 0.78949997E+02 -0.65634E+01
 0.78999992E+02 -0.64227E+01
 0.79049995E+02 -0.58080E+01
 0.79099998E+02 -0.65943E+01
 0.79149994E+02 -0.63296E+01
 0.79199997E+02 -0.53369E+01
 0.79249992E+02 -0.59183E+01
 0.79299995E+02 -0.58396E+01
 0.79349998E+02 -0.58126E+01
 0.79399994E+02 -0.68706E+01
 0.79449997E+02 -0.50370E+01
 0.79499992E+02 -0.49476E+01
 0.79549995E+02 -0.59919E+01
 0.79599998E+02 -0.50449E+01
 0.79649994E+02 -0.53924E+01
 0.79699997E+02 -0.59069E+01
 0.79749992E+02 -0.60416E+01
 0.79799995E+02 -0.72998E+01
 0.79849998E+02 -0.64535E+01
 0.79899994E+02 -0.47812E+01
 0.79949997E+02 -0.66726E+01
 0.79999992E+02 -0.57162E+01
 0.80049995E+02 -0.51317E+01
 0.80099998E+02 -0.58370E+01
 0.80149994E+02 -0.67886E+01
 0.80199997E+02 -0.75221E+01
 0.80249992E+02 -0.57479E+01
 0.80299995E+02 -0.60889E+01
 0.80349998E+02 -0.73656E+01
 0.80399994E+02 -0.61892E+01
 0.80449997E+02 -0.59401E+01
 0.80499992E+02 -0.63913E+01
 0.80549995E+02 -0.50314E+01
 0.80599998E+02 -0.51309E+01
 0.80649994E+02 -0.64639E+01
 0.80699997E+02 -0.66673E+01
 0.80749992E+02 -0.57430E+01
 0.80799995E+02 -0.60279E+01
 0.80849998E+02 -0.52274E+01
 0.80899994E+02 -0.51206E+01
 0.80949997E+02 -0.52056E+01
 0.80999992E+02 -0.54751E+01
 0.81049995E+02 -0.64705E+01
 0.81099998E+02 -0.54846E+01
 0.81149994E+02 -0.64183E+01
 0.81199997E+02 -0.54507E+01
 0.81249992E+02 -0.44791E+01
 0.81299995E+02 -0.55212E+01
 0.81349998E+02 -0.62915E+01
 0.81399994E+02 -0.56875E+01
 0.81449997E+02 -0.52758E+01
 0.81499992E+02 -0.64737E+01
 0.81549995E+02 -0.67772E+01
 0.81599998E+02 -0.59084E+01
 0.81649994E+02 -0.46293E+01
 0.81699997E+02 -0.63580E+01
 0.81749992E+02 -0.57596E+01
 0.81799995E+02 -0.67468E+01
 0.81849998E+02 -0.69359E+01
 0.81899994E+02 -0.52991E+01
 0.81949997E+02 -0.71487E+01
 0.81999992E+02 -0.54712E+01
 0.82049995E+02 -0.55486E+01
 0.82099998E+02 -0.68521E+01
 0.82149994E+02 -0.57921E+01
 0.82199997E+02 -0.50231E+01
 0.82249992E+02 -0.52435E+01
 0.82299995E+02 -0.51224E+01
 0.82349998E+02 -0.51959E+01
 0.82399994E+02 -0.58869E+01
 0.82449997E+02 -0.50560E+01
 0.82499992E+02 -0.50547E+01
 0.82549995E+02 -0.43871E+01
 0.82599998E+02 -0.46120E+01
 0.82649994E+02 -0.51688E+01
 0.82699997E+02 -0.50724E+01
 0.82749992E+02 -0.53221E+01
 0.82799995E+02 -0.58208E+01
 0.82849998E+02 -0.44465E+01
 0.82899994E+02 -0.50020E+01
 0.82949997E+02 -0.63453E+01
 0.82999992E+02 -0.48088E+01
 0.83049995E+02 -0.56167E+01
 0.83099998E+02 -0.61501E+01
 0.83149994E+02 -0.47396E+01
 0.83199997E+02 -0.57708E+01
 0.83249992E+02 -0.70512E+01
 0.83299995E+02 -0.55208E+01
 0.83349998E+02 -0.55127E+01
 0.83399994E+02 -0.61855E+01
 0.83449997E+02 -0.73915E+01
 0.83499992E+02 -0.58564E+01
 0.83549995E+02 -0.64834E+01
 0.83599998E+02 -0.78711E+01
 0.83649994E+02 -0.62826E+01
 0.83699997E+02 -0.69703E+01
 0.83749992E+02 -0.67578E+01
 0.83799995E+02 -0.62924E+01
 0.83849998E+02 -0.64846E+01
 0.83899994E+02 -0.69972E+01
 0.83949997E+02 -0.56602E+01
 0.83999992E+02 -0.54585E+01
 0.84049995E+02 -0.60920E+01
 0.84099998E+02 -0.64146E+01
 0.84149994E+02 -0.70204E+01
 0.84199997E+02 -0.63215E+01
 0.84249992E+02 -0.76488E+01
 0.84299995E+02 -0.76599E+01
 0.84349998E+02 -0.68584E+01
 0.84399994E+02 -0.63002E+01
 0.84449997E+02 -0.72195E+01
 0.84499992E+02 -0.57220E+01
 0.84549995E+02 -0.56086E+01
 0.84599998E+02 -0.65282E+01
 0.84649994E+02 -0.61250E+01
 0.84699997E+02 -0.81611E+01
 0.84749992E+02 -0.61316E+01
 0.84799995E+02 -0.64511E+01
 0.84849998E+02 -0.65220E+01
 0.84899994E+02 -0.69081E+01
 0.84949997E+02 -0.68520E+01
 0.84999992E+02 -0.57561E+01
 0.85049995E+02 -0.54033E+01
 0.85099998E+02 -0.62503E+01
 0.85149994E+02 -0.69220E+01
 0.85199997E+02 -0.60177E+01
 0.85249992E+02 -0.56882E+01
 0.85299995E+02 -0.59536E+01
 0.85349998E+02 -0.53245E+01
 0.85399994E+02 -0.53322E+01
 0.85449997E+02 -0.60800E+01
 0.85499992E+02 -0.58339E+01
 0.85549995E+02 -0.60748E+01
 0.85599998E+02 -0.52831E+01
 0.85649994E+02 -0.68257E+01
 0.85699997E+02 -0.57010E+01
 0.85749992E+02 -0.63245E+01
 0.85799995E+02 -0.74324E+01
 0.85849998E+02 -0.65940E+01
 0.85899994E+02 -0.51406E+01
 0.85949997E+02 -0.59124E+01
 0.85999992E+02 -0.70055E+01
 0.86049995E+02 -0.52564E+01
 0.86099998E+02 -0.60780E+01
 0.86149994E+02 -0.55060E+01
 0.86199997E+02 -0.54766E+01
 0.86249992E+02 -0.52455E+01
 0.86299995E+02 -0.54705E+01
 0.86349998E+02 -0.59333E+01
 0.86399994E+02 -0.52225E+01
 0.86449997E+02 -0.50484E+01
 0.86499992E+02 -0.51745E+01
 0.86549995E+02 -0.48611E+01
 0.86599998E+02 -0.50896E+01
 0.86649994E+02 -0.63724E+01
 0.86699997E+02 -0.55273E+01
 0.86749992E+02 -0.52893E+01
 0.86799995E+02 -0.59998E+01
 0.86849998E+02 -0.55360E+01
 0.86899994E+02 -0.59927E+01
 0.86949997E+02 -0.56060E+01
 0.86999992E+02 -0.49280E+01
 0.87049995E+02 -0.62083E+01
 0.87099998E+02 -0.65293E+01
 0.87149994E+02 -0.58713E+01
 0.87199997E+02 -0.60540E+01
 0.87249992E+02 -0.49725E+01
 0.87299995E+02 -0.55093E+01
 0.87349998E+02 -0.65131E+01
 0.87399994E+02 -0.68355E+01
 0.87449997E+02 -0.66919E+01
 0.87499992E+02 -0.63054E+01
 0.87549995E+02 -0.72903E+01
 0.87599991E+02 -0.76072E+01
 0.87649994E+02 -0.78485E+01
 0.87699997E+02 -0.68340E+01
 0.87749992E+02 -0.67308E+01
 0.87799995E+02 -0.74403E+01
 0.87849991E+02 -0.64889E+01
 0.87899994E+02 -0.59600E+01
 0.87949997E+02 -0.65762E+01
 0.87999992E+02 -0.70527E+01
 0.88049995E+02 -0.66281E+01
 0.88099991E+02 -0.65143E+01
 0.88149994E+02 -0.68540E+01
 0.88199997E+02 -0.70623E+01
 0.88249992E+02 -0.73285E+01
 0.88299995E+02 -0.68322E+01
 0.88349991E+02 -0.72064E+01
 0.88399994E+02 -0.66544E+01
 0.88449997E+02 -0.58886E+01
 0.88499992E+02 -0.63939E+01
 0.88549995E+02 -0.78735E+01
 0.88599991E+02 -0.59951E+01
 0.88649994E+02 -0.57845E+01
 0.88699997E+02 -0.83767E+01
 0.88749992E+02 -0.59943E+01
 0.88799995E+02 -0.61039E+01
 0.88849991E+02 -0.72438E+01
 0.88899994E+02 -0.61875E+01
 0.88949997E+02 -0.54378E+01
 0.88999992E+02 -0.64579E+01
 0.89049995E+02 -0.80084E+01
 0.89099991E+02 -0.76624E+01
 0.89149994E+02 -0.65926E+01
 0.89199997E+02 -0.61739E+01
 0.89249992E+02 -0.64778E+01
 0.89299995E+02 -0.66891E+01
 0.89349991E+02 -0.59181E+01
 0.89399994E+02 -0.56912E+01
 0.89449997E+02 -0.51292E+01
 0.89499992E+02 -0.59183E+01
 0.89549995E+02 -0.71181E+01
 0.89599991E+02 -0.66976E+01
 0.89649994E+02 -0.74644E+01
 0.89699997E+02 -0.74040E+01
 0.89749992E+02 -0.67727E+01
 0.89799995E+02 -0.71679E+01
 0.89849991E+02 -0.59371E+01
 0.89899994E+02 -0.56649E+01
 0.89949997E+02 -0.67935E+01
 0.89999992E+02 -0.68412E+01
 0.90049995E+02 -0.63882E+01
 0.90099991E+02 -0.62547E+01
 0.90149994E+02 -0.59065E+01
 0.90199997E+02 -0.69908E+01
 0.90249992E+02 -0.67027E+01
 0.90299995E+02 -0.69143E+01
 0.90349991E+02 -0.61953E+01
 0.90399994E+02 -0.56118E+01
 0.90449997E+02 -0.60920E+01
 0.90499992E+02 -0.53004E+01
 0.90549995E+02 -0.74971E+01
 0.90599991E+02 -0.67860E+01
 0.90649994E+02 -0.62270E+01
 0.90699997E+02 -0.57327E+01
 0.90749992E+02 -0.62261E+01
 0.90799995E+02 -0.60948E+01
 0.90849991E+02 -0.69658E+01
 0.90899994E+02 -0.63978E+01
 0.90949997E+02 -0.58202E+01
 0.90999992E+02 -0.59462E+01
 0.91049995E+02 -0.40225E+01
 0.91099991E+02 -0.48395E+01
 0.91149994E+02 -0.49143E+01
 0.91199997E+02 -0.55549E+01
 0.91249992E+02 -0.53797E+01
 0.91299995E+02 -0.53938E+01
 0.91349991E+02 -0.52579E+01
 0.91399994E+02 -0.48138E+01
 0.91449997E+02 -0.55490E+01
 0.91499992E+02 -0.43064E+01
 0.91549995E+02 -0.48085E+01
 0.91599991E+02 -0.59978E+01
 0.91649994E+02 -0.59276E+01
 0.91699997E+02 -0.61447E+01
 0.91749992E+02 -0.48499E+01
 0.91799995E+02 -0.56790E+01
 0.91849991E+02 -0.55734E+01
 0.91899994E+02 -0.43005E+01
 0.91949997E+02 -0.57359E+01
 0.91999992E+02 -0.57839E+01
 0.92049995E+02 -0.44156E+01
 0.92099991E+02 -0.52622E+01
 0.92149994E+02 -0.69174E+01
 0.92199997E+02 -0.59275E+01
 0.92249992E+02 -0.55749E+01
 0.92299995E+02 -0.58760E+01
 0.92349991E+02 -0.51578E+01
 0.92399994E+02 -0.55853E+01
 0.92449997E+02 -0.59039E+01
 0.92499992E+02 -0.56678E+01
 0.92549995E+02 -0.57717E+01
 0.92599991E+02 -0.69377E+01
 0.92649994E+02 -0.61850E+01
 0.92699997E+02 -0.67644E+01
 0.92749992E+02 -0.55453E+01
 0.92799995E+02 -0.51974E+01
 0.92849991E+02 -0.64651E+01
 0.92899994E+02 -0.58814E+01
 0.92949997E+02 -0.73679E+01
 0.92999992E+02 -0.60267E+01
 0.93049995E+02 -0.65956E+01
 0.93099991E+02 -0.58041E+01
 0.93149994E+02 -0.67016E+01
 0.93199997E+02 -0.65322E+01
 0.93249992E+02 -0.63473E+01
 0.93299995E+02 -0.53048E+01
 0.93349991E+02 -0.43980E+01
 0.93399994E+02 -0.61121E+01
 0.93449997E+02 -0.42510E+01
 0.93499992E+02 -0.61802E+01
 0.93549995E+02 -0.71725E+01
 0.93599991E+02 -0.62769E+01
 0.93649994E+02 -0.56424E+01
 0.93699997E+02 -0.72472E+01
 0.93749992E+02 -0.68866E+01
 0.93799995E+02 -0.56120E+01
 0.93849991E+02 -0.70733E+01
 0.93899994E+02 -0.64293E+01
 0.93949997E+02 -0.62963E+01
 0.93999992E+02 -0.62534E+01
 0.94049995E+02 -0.69618E+01
 0.94099991E+02 -0.67541E+01
 0.94149994E+02 -0.60447E+01
 0.94199997E+02 -0.77678E+01
 0.94249992E+02 -0.63192E+01
 0.94299995E+02 -0.66043E+01
 0.94349991E+02 -0.63506E+01
 0.94399994E+02 -0.57580E+01
 0.94449997E+02 -0.65091E+01
 0.94499992E+02 -0.54615E+01
 0.94549995E+02 -0.55396E+01
 0.94599991E+02 -0.55006E+01
 0.94649994E+02 -0.61171E+01
 0.94699997E+02 -0.54439E+01
 0.94749992E+02 -0.44667E+01
 0.94799995E+02 -0.55328E+01
 0.94849991E+02 -0.67612E+01
 0.94899994E+02 -0.63777E+01
 0.94949997E+02 -0.67274E+01
 0.94999992E+02 -0.60004E+01
 0.95049995E+02 -0.48502E+01
 0.95099991E+02 -0.68652E+01
 0.95149994E+02 -0.54037E+01
 0.95199997E+02 -0.60671E+01
 0.95249992E+02 -0.81440E+01
 0.95299995E+02 -0.57490E+01
 0.95349991E+02 -0.59810E+01
 0.95399994E+02 -0.71570E+01
 0.95449997E+02 -0.76445E+01
 0.95499992E+02 -0.76462E+01
 0.95549995E+02 -0.61855E+01
 0.95599991E+02 -0.50647E+01
 0.95649994E+02 -0.57580E+01
 0.95699997E+02 -0.52258E+01
 0.95749992E+02 -0.50452E+01
 0.95799995E+02 -0.71167E+01
 0.95849991E+02 -0.63759E+01
 0.95899994E+02 -0.52943E+01
 0.95949997E+02 -0.59483E+01
 0.95999992E+02 -0.66117E+01
 0.96049995E+02 -0.64081E+01
 0.96099991E+02 -0.56858E+01
 0.96149994E+02 -0.55756E+01
 0.96199997E+02 -0.51155E+01
 0.96249992E+02 -0.48104E+01
 0.96299995E+02 -0.53446E+01
 0.96349991E+02 -0.47658E+01
 0.96399994E+02 -0.56592E+01
 0.96449997E+02 -0.48782E+01
 0.96499992E+02 -0.36005E+01
 0.96549995E+02 -0.48925E+01
 0.96599991E+02 -0.45770E+01
 0.96649994E+02 -0.52465E+01
 0.96699997E+02 -0.61393E+01
 0.96749992E+02 -0.49913E+01
 0.96799995E+02 -0.58683E+01
 0.96849991E+02 -0.68819E+01
 0.96899994E+02 -0.59858E+01
 0.96949997E+02 -0.72385E+01
 0.96999992E+02 -0.52450E+01
 0.97049995E+02 -0.42310E+01
 0.97099991E+02 -0.59355E+01
 0.97149994E+02 -0.58049E+01
 0.97199997E+02 -0.55412E+01
 0.97249992E+02 -0.61439E+01
 0.97299995E+02 -0.60042E+01
 0.97349991E+02 -0.45329E+01
 0.97399994E+02 -0.50832E+01
 0.97449997E+02 -0.58327E+01
 0.97499992E+02 -0.53258E+01
 0.97549995E+02 -0.71782E+01
 0.97599991E+02 -0.55690E+01
 0.97649994E+02 -0.49281E+01
 0.97699997E+02 -0.56632E+01
 0.97749992E+02 -0.36468E+01
 0.97799995E+02 -0.58113E+01
 0.97849991E+02 -0.46166E+01
 0.97899994E+02 -0.52877E+01
 0.97949997E+02 -0.63343E+01
 0.97999992E+02 -0.57854E+01
