-0.19969940E+01 -0.15883E+05
-0.19469941E+01 -0.15800E+05
-0.18969940E+01 -0.15868E+05
-0.18469940E+01 -0.15871E+05
-0.17969940E+01 -0.15868E+05
-0.17469940E+01 -0.15862E+05
-0.16969941E+01 -0.15859E+05
-0.16469941E+01 -0.15863E+05
-0.15969940E+01 -0.15875E+05
-0.15469940E+01 -0.15886E+05
-0.14969940E+01 -0.15891E+05
-0.14469941E+01 -0.15887E+05
-0.13969941E+01 -0.15881E+05
-0.13469940E+01 -0.15879E+05
-0.12969941E+01 -0.15882E+05
-0.12469940E+01 -0.15883E+05
-0.11969941E+01 -0.15885E+05
-0.11469941E+01 -0.15889E+05
-0.10969940E+01 -0.15892E+05
-0.10469941E+01 -0.15893E+05
-0.99699408E+00 -0.15889E+05
-0.94699407E+00 -0.15891E+05
-0.89699411E+00 -0.15892E+05
-0.84699404E+00 -0.15894E+05
-0.79699409E+00 -0.15898E+05
-0.74699414E+00 -0.15898E+05
-0.69699407E+00 -0.15896E+05
-0.64699411E+00 -0.15887E+05
-0.59699416E+00 -0.15882E+05
-0.54699409E+00 -0.15885E+05
-0.49699414E+00 -0.15889E+05
-0.44699407E+00 -0.15890E+05
-0.39699411E+00 -0.15894E+05
-0.34699416E+00 -0.15893E+05
-0.29699409E+00 -0.15891E+05
-0.24699414E+00 -0.15878E+05
-0.19699407E+00 -0.15869E+05
-0.14699411E+00 -0.15864E+05
-0.96994162E-01 -0.15863E+05
-0.46994090E-01 -0.15872E+05
 0.30058622E-02 -0.15878E+05
 0.53005934E-01 -0.15884E+05
 0.10300589E+00 -0.15884E+05
 0.15300584E+00 -0.15886E+05
 0.20300579E+00 -0.15883E+05
 0.25300574E+00 -0.15879E+05
 0.30300593E+00 -0.15875E+05
 0.35300589E+00 -0.15880E+05
 0.40300584E+00 -0.15888E+05
 0.45300579E+00 -0.15896E+05
 0.50300574E+00 -0.15905E+05
 0.55300593E+00 -0.15897E+05
 0.60300589E+00 -0.15894E+05
 0.65300584E+00 -0.15890E+05
 0.70300579E+00 -0.15886E+05
 0.75300574E+00 -0.15882E+05
 0.80300570E+00 -0.15883E+05
 0.85300589E+00 -0.15884E+05
 0.90300584E+00 -0.15888E+05
 0.95300579E+00 -0.15891E+05
 0.10030057E+01 -0.15892E+05
 0.10530057E+01 -0.15890E+05
 0.11030059E+01 -0.15879E+05
 0.11530058E+01 -0.15873E+05
 0.12030058E+01 -0.15868E+05
 0.12530057E+01 -0.15863E+05
 0.13030057E+01 -0.15854E+05
 0.13530059E+01 -0.15855E+05
 0.14030058E+01 -0.15862E+05
 0.14530058E+01 -0.15862E+05
 0.15030057E+01 -0.15863E+05
 0.15530057E+01 -0.15864E+05
 0.16030059E+01 -0.15862E+05
 0.16530058E+01 -0.15864E+05
 0.17030058E+01 -0.15872E+05
 0.17530057E+01 -0.15875E+05
 0.18030057E+01 -0.15879E+05
 0.18530056E+01 -0.15886E+05
 0.19030058E+01 -0.15894E+05
 0.19530058E+01 -0.15909E+05
 0.20030057E+01 -0.15925E+05
 0.20530057E+01 -0.15930E+05
 0.21030059E+01 -0.15932E+05
 0.21530056E+01 -0.15934E+05
 0.22030058E+01 -0.15925E+05
 0.22530055E+01 -0.15920E+05
 0.23030057E+01 -0.15918E+05
 0.23530059E+01 -0.15920E+05
 0.24030056E+01 -0.15926E+05
 0.24530058E+01 -0.15929E+05
 0.25030055E+01 -0.15931E+05
 0.25530057E+01 -0.15923E+05
 0.26030059E+01 -0.15905E+05
 0.26530056E+01 -0.15890E+05
 0.27030058E+01 -0.15878E+05
 0.27530055E+01 -0.15870E+05
 0.28030057E+01 -0.15872E+05
 0.28530059E+01 -0.15869E+05
 0.29030056E+01 -0.15866E+05
 0.29530058E+01 -0.15862E+05
 0.30030055E+01 -0.15858E+05
 0.30530057E+01 -0.15853E+05
 0.31030059E+01 -0.15843E+05
 0.31530056E+01 -0.15839E+05
 0.32030058E+01 -0.15837E+05
 0.32530055E+01 -0.15847E+05
 0.33030057E+01 -0.15856E+05
 0.33530059E+01 -0.15855E+05
 0.34030056E+01 -0.15858E+05
 0.34530058E+01 -0.15861E+05
 0.35030055E+01 -0.15867E+05
 0.35530057E+01 -0.15872E+05
 0.36030054E+01 -0.15874E+05
 0.36530056E+01 -0.15877E+05
 0.37030058E+01 -0.15875E+05
 0.37530055E+01 -0.15871E+05
 0.38030057E+01 -0.15873E+05
 0.38530054E+01 -0.15874E+05
 0.39030056E+01 -0.15873E+05
 0.39530058E+01 -0.15877E+05
 0.40030055E+01 -0.15878E+05
 0.40530057E+01 -0.15880E+05
 0.41030054E+01 -0.15886E+05
 0.41530056E+01 -0.15887E+05
 0.42030058E+01 -0.15893E+05
 0.42530055E+01 -0.15898E+05
 0.43030057E+01 -0.15900E+05
 0.43530054E+01 -0.15904E+05
 0.44030056E+01 -0.15909E+05
 0.44530058E+01 -0.15916E+05
 0.45030055E+01 -0.15917E+05
 0.45530057E+01 -0.15913E+05
 0.46030054E+01 -0.15908E+05
 0.46530056E+01 -0.15901E+05
 0.47030058E+01 -0.15901E+05
 0.47530055E+01 -0.15900E+05
 0.48030057E+01 -0.15896E+05
 0.48530054E+01 -0.15892E+05
 0.49030056E+01 -0.15881E+05
 0.49530058E+01 -0.15874E+05
 0.50030055E+01 -0.15868E+05
 0.50530057E+01 -0.15859E+05
 0.51030054E+01 -0.15856E+05
 0.51530056E+01 -0.15853E+05
 0.52030058E+01 -0.15864E+05
 0.52530055E+01 -0.15877E+05
 0.53030057E+01 -0.15885E+05
 0.53530054E+01 -0.15893E+05
 0.54030056E+01 -0.15895E+05
 0.54530053E+01 -0.15893E+05
 0.55030055E+01 -0.15895E+05
 0.55530057E+01 -0.15899E+05
 0.56030054E+01 -0.15897E+05
 0.56530056E+01 -0.15891E+05
 0.57030053E+01 -0.15889E+05
 0.57530055E+01 -0.15886E+05
 0.58030057E+01 -0.15884E+05
 0.58530054E+01 -0.15888E+05
 0.59030056E+01 -0.15896E+05
 0.59530053E+01 -0.15899E+05
 0.60030055E+01 -0.15898E+05
 0.60530052E+01 -0.15891E+05
 0.61030054E+01 -0.15884E+05
 0.61530056E+01 -0.15882E+05
 0.62030058E+01 -0.15878E+05
 0.62530050E+01 -0.15880E+05
 0.63030052E+01 -0.15879E+05
 0.63530054E+01 -0.15883E+05
 0.64030056E+01 -0.15886E+05
 0.64530058E+01 -0.15885E+05
 0.65030050E+01 -0.15889E+05
 0.65530052E+01 -0.15891E+05
 0.66030054E+01 -0.15891E+05
 0.66530056E+01 -0.15890E+05
 0.67030058E+01 -0.15886E+05
 0.67530050E+01 -0.15880E+05
 0.68030052E+01 -0.15871E+05
 0.68530054E+01 -0.15863E+05
 0.69030056E+01 -0.15863E+05
 0.69530058E+01 -0.15869E+05
 0.70030050E+01 -0.15873E+05
 0.70530052E+01 -0.15869E+05
 0.71030054E+01 -0.15872E+05
 0.71530056E+01 -0.15871E+05
 0.72030058E+01 -0.15867E+05
 0.72530050E+01 -0.15865E+05
 0.73030052E+01 -0.15862E+05
 0.73530054E+01 -0.15866E+05
 0.74030056E+01 -0.15869E+05
 0.74530058E+01 -0.15868E+05
 0.75030050E+01 -0.15865E+05
 0.75530052E+01 -0.15859E+05
 0.76030054E+01 -0.15861E+05
 0.76530056E+01 -0.15862E+05
 0.77030058E+01 -0.15863E+05
 0.77530050E+01 -0.15867E+05
 0.78030052E+01 -0.15870E+05
 0.78530054E+01 -0.15874E+05
 0.79030056E+01 -0.15873E+05
 0.79530058E+01 -0.15870E+05
 0.80030050E+01 -0.15863E+05
 0.80530052E+01 -0.15861E+05
 0.81030054E+01 -0.15862E+05
 0.81530056E+01 -0.15868E+05
 0.82030058E+01 -0.15870E+05
 0.82530050E+01 -0.15875E+05
 0.83030052E+01 -0.15882E+05
 0.83530054E+01 -0.15887E+05
 0.84030056E+01 -0.15894E+05
 0.84530058E+01 -0.15895E+05
 0.85030050E+01 -0.15898E+05
 0.85530052E+01 -0.15893E+05
 0.86030054E+01 -0.15888E+05
 0.86530056E+01 -0.15893E+05
 0.87030058E+01 -0.15898E+05
 0.87530050E+01 -0.15902E+05
 0.88030052E+01 -0.15905E+05
 0.88530054E+01 -0.15903E+05
 0.89030056E+01 -0.15904E+05
 0.89530058E+01 -0.15900E+05
 0.90030050E+01 -0.15898E+05
 0.90530052E+01 -0.15890E+05
 0.91030054E+01 -0.15884E+05
 0.91530056E+01 -0.15889E+05
 0.92030048E+01 -0.15893E+05
 0.92530050E+01 -0.15895E+05
 0.93030052E+01 -0.15897E+05
 0.93530054E+01 -0.15897E+05
 0.94030056E+01 -0.15900E+05
 0.94530048E+01 -0.15901E+05
 0.95030050E+01 -0.15903E+05
 0.95530052E+01 -0.15908E+05
 0.96030054E+01 -0.15909E+05
 0.96530056E+01 -0.15909E+05
 0.97030048E+01 -0.15910E+05
 0.97530050E+01 -0.15911E+05
 0.98030052E+01 -0.15907E+05
 0.98530054E+01 -0.15906E+05
 0.99030056E+01 -0.15911E+05
 0.99530048E+01 -0.15913E+05
 0.10003005E+02 -0.15910E+05
 0.10053005E+02 -0.15905E+05
 0.10103005E+02 -0.15902E+05
 0.10153006E+02 -0.15900E+05
 0.10203005E+02 -0.15895E+05
 0.10253005E+02 -0.15887E+05
 0.10303005E+02 -0.15880E+05
 0.10353005E+02 -0.15873E+05
 0.10403006E+02 -0.15868E+05
 0.10453005E+02 -0.15865E+05
 0.10503005E+02 -0.15859E+05
 0.10553005E+02 -0.15856E+05
 0.10603005E+02 -0.15856E+05
 0.10653006E+02 -0.15856E+05
 0.10703005E+02 -0.15857E+05
 0.10753005E+02 -0.15859E+05
 0.10803005E+02 -0.15860E+05
 0.10853005E+02 -0.15852E+05
 0.10903006E+02 -0.15851E+05
 0.10953005E+02 -0.15851E+05
 0.11003005E+02 -0.15849E+05
 0.11053005E+02 -0.15850E+05
 0.11103005E+02 -0.15851E+05
 0.11153006E+02 -0.15855E+05
 0.11203005E+02 -0.15872E+05
 0.11253005E+02 -0.15888E+05
 0.11303005E+02 -0.15893E+05
 0.11353005E+02 -0.15883E+05
 0.11403006E+02 -0.15876E+05
 0.11453005E+02 -0.15884E+05
 0.11503005E+02 -0.15883E+05
 0.11553005E+02 -0.15907E+05
 0.11603005E+02 -0.15910E+05
 0.11653006E+02 -0.15902E+05
 0.11703005E+02 -0.15890E+05
 0.11753005E+02 -0.15907E+05
 0.11803005E+02 -0.15880E+05
 0.11853005E+02 -0.15910E+05
 0.11903006E+02 -0.15910E+05
 0.11953005E+02 -0.15902E+05
 0.12003005E+02 -0.15871E+05
 0.12053005E+02 -0.15928E+05
 0.12103005E+02 -0.15786E+05
 0.12153006E+02 -0.15957E+05
 0.12203005E+02 -0.15070E+05
 0.12253005E+02 -0.13887E+05
 0.12303005E+02 -0.15119E+05
 0.12353005E+02 -0.17159E+05
 0.12403006E+02 -0.17691E+05
 0.12453005E+02 -0.16471E+05
 0.12503005E+02 -0.14739E+05
 0.12553005E+02 -0.14006E+05
 0.12603005E+02 -0.13669E+05
 0.12653005E+02 -0.16088E+05
 0.12703005E+02 -0.18476E+05
 0.12753005E+02 -0.15261E+05
 0.12803005E+02 -0.14561E+05
 0.12853005E+02 -0.14773E+05
 0.12903005E+02 -0.11433E+05
 0.12953005E+02 -0.12924E+05
 0.13003005E+02 -0.18019E+05
 0.13053005E+02 -0.14029E+05
 0.13103005E+02 -0.15099E+05
 0.13153005E+02 -0.19117E+05
 0.13203005E+02 -0.13926E+05
 0.13253005E+02 -0.23247E+05
 0.13303005E+02 -0.14812E+05
 0.13353005E+02 -0.15961E+05
 0.13403005E+02 -0.14474E+05
 0.13453005E+02 -0.12614E+05
 0.13503005E+02 -0.28434E+05
 0.13553005E+02 -0.13400E+05
 0.13603005E+02 -0.18194E+05
 0.13653005E+02 -0.14546E+05
 0.13703005E+02 -0.79943E+04
 0.13753005E+02 -0.15944E+05
 0.13803005E+02 -0.20203E+05
 0.13853005E+02 -0.12999E+05
 0.13903005E+02 -0.20026E+05
 0.13953005E+02 -0.11266E+05
 0.14003005E+02 -0.12172E+05
 0.14053005E+02 -0.19607E+05
 0.14103004E+02 -0.23459E+05
 0.14153006E+02 -0.31610E+05
 0.14203005E+02 -0.96991E+03
 0.14253004E+02 -0.13185E+05
 0.14303005E+02 -0.19048E+05
 0.14353004E+02 -0.14653E+05
 0.14403006E+02 -0.17022E+05
 0.14453005E+02 -0.98880E+04
 0.14503004E+02 -0.12460E+05
 0.14553005E+02 -0.17951E+05
 0.14603004E+02 -0.12349E+05
 0.14653006E+02 -0.22049E+05
 0.14703005E+02 -0.16544E+05
 0.14753004E+02 -0.71974E+04
 0.14803005E+02 -0.24413E+05
 0.14853004E+02 -0.14157E+05
 0.14903006E+02 -0.14034E+05
 0.14953005E+02 -0.20566E+05
 0.15003004E+02 -0.14386E+05
 0.15053005E+02 -0.16351E+05
 0.15103004E+02 -0.14558E+05
 0.15153006E+02 -0.13919E+05
 0.15203005E+02 -0.20425E+05
 0.15253004E+02 -0.96028E+04
 0.15303005E+02 -0.18115E+05
 0.15353004E+02 -0.18392E+05
 0.15403006E+02 -0.13096E+05
 0.15453005E+02 -0.18370E+05
 0.15503004E+02 -0.15327E+05
 0.15553005E+02 -0.19311E+05
 0.15603004E+02 -0.68942E+04
 0.15653006E+02 -0.18906E+05
 0.15703005E+02 -0.17978E+05
 0.15753004E+02 -0.23503E+05
 0.15803005E+02 -0.14274E+05
 0.15853004E+02 -0.12649E+05
 0.15903006E+02 -0.19937E+05
 0.15953005E+02 -0.11123E+05
 0.16003004E+02 -0.26984E+05
 0.16053005E+02 -0.13514E+05
 0.16103004E+02 -0.13566E+05
 0.16153006E+02 -0.16112E+05
 0.16203005E+02 -0.11654E+05
 0.16253004E+02 -0.15805E+05
 0.16303005E+02 -0.10930E+05
 0.16353004E+02 -0.93177E+04
 0.16403006E+02 -0.25499E+05
 0.16453005E+02 -0.15284E+05
 0.16503004E+02 -0.13020E+05
 0.16553005E+02 -0.18671E+05
 0.16603004E+02 -0.16949E+05
 0.16653006E+02 -0.22638E+05
 0.16703005E+02 -0.13328E+05
 0.16753004E+02 -0.14981E+05
 0.16803005E+02 -0.26072E+05
 0.16853004E+02 -0.15680E+05
 0.16903006E+02 -0.45340E+04
 0.16953005E+02 -0.54186E+04
 0.17003004E+02 -0.42771E+04
 0.17053005E+02 -0.13327E+05
 0.17103004E+02 -0.21296E+05
 0.17153006E+02 -0.23190E+05
 0.17203005E+02 -0.26319E+05
 0.17253004E+02 -0.22967E+05
 0.17303005E+02 -0.11763E+05
 0.17353004E+02 -0.15674E+05
 0.17403006E+02 -0.12099E+05
 0.17453005E+02 -0.11221E+05
 0.17503004E+02 -0.15422E+05
 0.17553005E+02 -0.15276E+05
 0.17603004E+02 -0.19869E+05
 0.17653006E+02 -0.12919E+05
 0.17703005E+02 -0.18034E+05
 0.17753004E+02 -0.19908E+05
 0.17803005E+02 -0.94075E+04
 0.17853004E+02 -0.16456E+05
 0.17903006E+02 -0.18386E+05
 0.17953005E+02 -0.46174E+04
 0.18003004E+02 -0.76600E+04
 0.18053005E+02 -0.14130E+05
 0.18103004E+02 -0.14923E+05
 0.18153006E+02 -0.15732E+05
 0.18203005E+02 -0.21670E+05
 0.18253004E+02 -0.28076E+05
 0.18303005E+02 -0.19894E+05
 0.18353004E+02 -0.88852E+04
 0.18403006E+02 -0.13542E+05
 0.18453005E+02 -0.13035E+05
 0.18503004E+02 -0.15879E+05
 0.18553005E+02 -0.27268E+05
 0.18603004E+02 -0.14853E+05
 0.18653006E+02 -0.10804E+05
 0.18703005E+02 -0.15770E+05
 0.18753004E+02 -0.21434E+05
 0.18803005E+02 -0.23572E+05
 0.18853004E+02 -0.14235E+05
 0.18903006E+02 -0.86740E+04
 0.18953005E+02 -0.15183E+05
 0.19003004E+02 -0.15544E+05
 0.19053005E+02 -0.21997E+05
 0.19103004E+02 -0.14629E+05
 0.19153006E+02 -0.61562E+04
 0.19203005E+02 -0.23318E+05
 0.19253004E+02 -0.18705E+05
 0.19303005E+02 -0.14568E+05
 0.19353004E+02 -0.21067E+05
 0.19403006E+02 -0.16424E+05
 0.19453005E+02 -0.19407E+05
 0.19503004E+02 -0.21683E+05
 0.19553005E+02 -0.13429E+05
 0.19603004E+02 -0.12652E+05
 0.19653006E+02 -0.18062E+05
 0.19703005E+02 -0.16471E+05
 0.19753004E+02 -0.16290E+05
 0.19803005E+02 -0.24781E+05
 0.19853004E+02 -0.12856E+05
 0.19903006E+02 -0.16471E+05
 0.19953005E+02 -0.13179E+05
 0.20003004E+02 -0.18054E+05
 0.20053005E+02 -0.19523E+05
 0.20103004E+02 -0.11855E+05
 0.20153006E+02 -0.28587E+05
 0.20203005E+02 -0.20432E+05
 0.20253004E+02 -0.19391E+05
 0.20303005E+02 -0.11369E+05
 0.20353004E+02 -0.42257E+04
 0.20403004E+02 -0.13237E+05
 0.20453005E+02 -0.20306E+05
 0.20503004E+02 -0.18824E+05
 0.20553005E+02 -0.13567E+05
 0.20603004E+02 -0.10278E+05
 0.20653004E+02 -0.80560E+04
 0.20703005E+02 -0.96385E+04
 0.20753004E+02 -0.23471E+04
 0.20803005E+02 -0.63799E+04
 0.20853004E+02 -0.12520E+05
 0.20903004E+02 -0.18399E+05
 0.20953005E+02 -0.31482E+05
 0.21003004E+02 -0.29269E+05
 0.21053005E+02 -0.30593E+05
 0.21103004E+02 -0.33549E+05
 0.21153004E+02 -0.28806E+05
 0.21203005E+02 -0.19684E+05
 0.21253004E+02 -0.70016E+04
 0.21303005E+02 -0.73922E+04
 0.21353004E+02 -0.54688E+04
 0.21403004E+02 -0.65175E+04
 0.21453005E+02 -0.96825E+04
 0.21503004E+02 -0.81729E+04
 0.21553005E+02 -0.69549E+04
 0.21603004E+02 -0.35261E+04
 0.21653004E+02 -0.80595E+04
 0.21703005E+02 -0.39413E+04
 0.21753004E+02 -0.51680E+04
 0.21803005E+02 -0.18851E+05
 0.21853004E+02 -0.22507E+05
 0.21903004E+02 -0.18012E+05
 0.21953005E+02 -0.22051E+05
 0.22003004E+02 -0.24755E+05
 0.22053005E+02 -0.17374E+05
 0.22103004E+02 -0.14029E+05
 0.22153004E+02 -0.19027E+05
 0.22203005E+02 -0.24451E+05
 0.22253004E+02 -0.12982E+05
 0.22303005E+02 -0.11418E+05
 0.22353004E+02 -0.25420E+05
 0.22403004E+02 -0.20662E+05
 0.22453005E+02 -0.19838E+05
 0.22503004E+02 -0.24904E+05
 0.22553005E+02 -0.21707E+05
 0.22603004E+02 -0.62761E+04
 0.22653004E+02 -0.11538E+05
 0.22703005E+02 -0.26796E+05
 0.22753004E+02 -0.70936E+04
 0.22803005E+02 -0.12413E+05
 0.22853004E+02 -0.19906E+05
 0.22903004E+02 -0.16956E+05
 0.22953005E+02 -0.21180E+05
 0.23003004E+02 -0.14435E+05
 0.23053005E+02 -0.30148E+05
 0.23103004E+02 -0.20474E+05
 0.23153004E+02 -0.90185E+04
 0.23203005E+02 -0.21449E+05
 0.23253004E+02 -0.54518E+04
 0.23303005E+02 -0.65787E+04
 0.23353004E+02 -0.21546E+05
 0.23403004E+02 -0.23910E+05
 0.23453005E+02 -0.21309E+04
 0.23503004E+02 -0.97481E+03
 0.23553005E+02 -0.10263E+05
 0.23603004E+02 -0.71938E+04
 0.23653004E+02 -0.15966E+05
 0.23703005E+02 -0.21328E+05
 0.23753004E+02 -0.28774E+05
 0.23803005E+02 -0.19374E+05
 0.23853004E+02 -0.14573E+05
 0.23903004E+02 -0.18675E+05
 0.23953005E+02 -0.20418E+05
 0.24003004E+02 -0.13819E+05
 0.24053005E+02 -0.39002E+04
 0.24103004E+02 -0.13489E+05
 0.24153004E+02 -0.25235E+05
 0.24203005E+02 -0.24261E+05
 0.24253004E+02 -0.35950E+05
 0.24303005E+02 -0.33509E+05
 0.24353004E+02 -0.16522E+05
 0.24403004E+02 -0.24435E+05
 0.24453005E+02 -0.45713E+04
 0.24503004E+02  0.21204E+04
 0.24553005E+02 -0.12297E+05
 0.24603004E+02 -0.59993E+04
 0.24653004E+02 -0.83449E+04
 0.24703005E+02 -0.80831E+04
 0.24753004E+02 -0.11195E+05
 0.24803005E+02 -0.21417E+05
 0.24853004E+02 -0.13343E+05
 0.24903004E+02 -0.11224E+05
 0.24953005E+02 -0.24616E+05
 0.25003004E+02 -0.17944E+05
 0.25053005E+02 -0.12215E+05
 0.25103004E+02 -0.16074E+05
 0.25153004E+02 -0.54693E+04
 0.25203005E+02 -0.68564E+04
 0.25253004E+02 -0.18514E+05
 0.25303005E+02 -0.14312E+05
 0.25353004E+02 -0.24811E+05
 0.25403004E+02 -0.30214E+05
 0.25453005E+02 -0.14963E+05
 0.25503004E+02 -0.15921E+05
 0.25553005E+02 -0.14058E+05
 0.25603004E+02 -0.35106E+04
 0.25653004E+02 -0.53531E+04
 0.25703005E+02 -0.14639E+05
 0.25753004E+02 -0.26525E+05
 0.25803005E+02 -0.26803E+05
 0.25853004E+02 -0.19542E+05
 0.25903004E+02 -0.22983E+05
 0.25953005E+02 -0.22059E+05
 0.26003004E+02 -0.13574E+05
 0.26053005E+02 -0.88377E+04
 0.26103004E+02 -0.63003E+04
 0.26153004E+02 -0.51878E+04
 0.26203005E+02 -0.11363E+05
 0.26253004E+02 -0.18624E+05
 0.26303005E+02 -0.16749E+05
 0.26353004E+02 -0.18096E+05
 0.26403004E+02 -0.14357E+05
 0.26453005E+02 -0.97406E+04
 0.26503004E+02 -0.14614E+05
 0.26553005E+02 -0.16853E+05
 0.26603004E+02 -0.19540E+05
 0.26653004E+02 -0.21682E+05
 0.26703005E+02 -0.20825E+05
 0.26753004E+02 -0.14320E+05
 0.26803005E+02 -0.98077E+04
 0.26853004E+02 -0.10673E+05
 0.26903004E+02 -0.76046E+04
 0.26953005E+02 -0.72391E+04
 0.27003004E+02 -0.51569E+04
 0.27053003E+02 -0.11043E+05
 0.27103004E+02 -0.19939E+05
 0.27153004E+02 -0.22071E+05
 0.27203005E+02 -0.21628E+05
 0.27253004E+02 -0.19752E+05
 0.27303003E+02 -0.21918E+05
 0.27353004E+02 -0.19706E+05
 0.27403004E+02 -0.12075E+05
 0.27453005E+02 -0.11294E+05
 0.27503004E+02 -0.18120E+05
 0.27553003E+02 -0.17681E+05
 0.27603004E+02 -0.14867E+05
 0.27653004E+02 -0.19894E+05
 0.27703005E+02 -0.23227E+05
 0.27753004E+02 -0.17468E+05
 0.27803003E+02 -0.22071E+05
 0.27853004E+02 -0.25774E+05
 0.27903004E+02 -0.23108E+05
 0.27953005E+02 -0.15868E+05
 0.28003004E+02 -0.12954E+05
 0.28053003E+02 -0.16250E+05
 0.28103004E+02 -0.14243E+05
 0.28153004E+02 -0.17224E+05
 0.28203005E+02 -0.22489E+05
 0.28253004E+02 -0.13463E+05
 0.28303003E+02 -0.88206E+04
 0.28353004E+02 -0.15555E+05
 0.28403004E+02 -0.15072E+05
 0.28453005E+02 -0.18433E+05
 0.28503004E+02 -0.17497E+05
 0.28553003E+02 -0.21971E+05
 0.28603004E+02 -0.18977E+05
 0.28653004E+02 -0.14928E+05
 0.28703005E+02 -0.20040E+05
 0.28753004E+02 -0.16019E+05
 0.28803003E+02 -0.13086E+05
 0.28853004E+02 -0.10787E+05
 0.28903004E+02 -0.11317E+05
 0.28953005E+02 -0.11872E+05
 0.29003004E+02 -0.14778E+05
 0.29053003E+02 -0.15132E+05
 0.29103004E+02 -0.10756E+05
 0.29153004E+02 -0.15755E+05
 0.29203005E+02 -0.11436E+05
 0.29253004E+02 -0.12333E+05
 0.29303003E+02 -0.23522E+05
 0.29353004E+02 -0.25071E+05
 0.29403004E+02 -0.18253E+05
 0.29453005E+02 -0.11268E+05
 0.29503004E+02 -0.15988E+05
 0.29553003E+02 -0.11991E+05
 0.29603004E+02 -0.17410E+05
 0.29653004E+02 -0.24831E+05
 0.29703005E+02 -0.16915E+05
 0.29753004E+02 -0.16036E+05
 0.29803003E+02 -0.17175E+05
 0.29853004E+02 -0.15177E+05
 0.29903004E+02 -0.12134E+05
 0.29953005E+02 -0.12315E+05
 0.30003004E+02 -0.17752E+05
 0.30053005E+02 -0.14335E+05
 0.30103004E+02 -0.17683E+05
 0.30153004E+02 -0.18231E+05
 0.30203003E+02 -0.97781E+04
 0.30253002E+02 -0.93125E+04
 0.30303005E+02 -0.12923E+05
 0.30353004E+02 -0.20821E+05
 0.30403004E+02 -0.14290E+05
 0.30453003E+02 -0.20476E+05
 0.30503002E+02 -0.18905E+05
 0.30553005E+02 -0.86858E+04
 0.30603004E+02 -0.18884E+05
 0.30653004E+02 -0.19244E+05
 0.30703003E+02 -0.21331E+05
 0.30753002E+02 -0.29595E+05
 0.30803005E+02 -0.23348E+05
 0.30853004E+02 -0.20417E+05
 0.30903004E+02 -0.17962E+05
 0.30953003E+02 -0.79890E+04
 0.31003002E+02 -0.73053E+04
 0.31053005E+02 -0.11872E+05
 0.31103004E+02 -0.12286E+05
 0.31153004E+02 -0.11127E+05
 0.31203003E+02 -0.12192E+05
 0.31253002E+02 -0.13250E+05
 0.31303005E+02 -0.15124E+05
 0.31353004E+02 -0.68284E+04
 0.31403004E+02 -0.55296E+04
 0.31453003E+02 -0.12862E+05
 0.31503002E+02 -0.17669E+05
 0.31553005E+02 -0.16403E+05
 0.31603004E+02 -0.18067E+05
 0.31653004E+02 -0.15916E+05
 0.31703003E+02 -0.15266E+05
 0.31753002E+02 -0.21021E+05
 0.31803005E+02 -0.18778E+05
 0.31853004E+02 -0.17599E+05
 0.31903004E+02 -0.11718E+05
 0.31953003E+02 -0.90363E+04
 0.32003002E+02 -0.11756E+05
 0.32053005E+02 -0.15872E+05
 0.32103004E+02 -0.19565E+05
 0.32153004E+02 -0.18627E+05
 0.32203003E+02 -0.21302E+05
 0.32253002E+02 -0.25240E+05
 0.32303005E+02 -0.24313E+05
 0.32353004E+02 -0.23339E+05
 0.32403004E+02 -0.20107E+05
 0.32453003E+02 -0.21439E+05
 0.32503002E+02 -0.17630E+05
 0.32553005E+02 -0.13676E+05
 0.32603004E+02 -0.10029E+05
 0.32653004E+02 -0.49163E+04
 0.32703003E+02 -0.57941E+04
 0.32753002E+02 -0.74825E+04
 0.32803005E+02 -0.14064E+05
 0.32853004E+02 -0.16501E+05
 0.32903004E+02 -0.22441E+05
 0.32953003E+02 -0.23462E+05
 0.33003002E+02 -0.17691E+05
 0.33053005E+02 -0.18473E+05
 0.33103004E+02 -0.15777E+05
 0.33153004E+02 -0.13078E+05
 0.33203003E+02 -0.14809E+05
 0.33253002E+02 -0.15730E+05
 0.33303005E+02 -0.14723E+05
 0.33353004E+02 -0.13704E+05
 0.33403004E+02 -0.14507E+05
 0.33453003E+02 -0.20125E+05
 0.33503002E+02 -0.19057E+05
 0.33553005E+02 -0.17711E+05
 0.33603004E+02 -0.20473E+05
 0.33653004E+02 -0.14010E+05
 0.33703003E+02 -0.13095E+05
 0.33753002E+02 -0.15559E+05
 0.33803005E+02 -0.15990E+05
 0.33853004E+02 -0.18911E+05
 0.33903004E+02 -0.18174E+05
 0.33953003E+02 -0.16880E+05
 0.34003002E+02 -0.20399E+05
 0.34053005E+02 -0.14278E+05
 0.34103004E+02 -0.12263E+05
 0.34153004E+02 -0.14116E+05
 0.34203003E+02 -0.12504E+05
 0.34253002E+02 -0.19042E+05
 0.34303005E+02 -0.15083E+05
 0.34353004E+02 -0.99992E+04
 0.34403004E+02 -0.10668E+05
 0.34453003E+02 -0.10614E+05
 0.34503002E+02 -0.11806E+05
 0.34553005E+02 -0.14258E+05
 0.34603004E+02 -0.14541E+05
 0.34653004E+02 -0.20433E+05
 0.34703003E+02 -0.18853E+05
 0.34753002E+02 -0.14783E+05
 0.34803005E+02 -0.17760E+05
 0.34853004E+02 -0.15294E+05
 0.34903004E+02 -0.13600E+05
 0.34953003E+02 -0.15061E+05
 0.35003002E+02 -0.16115E+05
 0.35053005E+02 -0.16433E+05
 0.35103004E+02 -0.21974E+05
 0.35153004E+02 -0.19851E+05
 0.35203003E+02 -0.17318E+05
 0.35253002E+02 -0.17457E+05
 0.35303005E+02 -0.14535E+05
 0.35353004E+02 -0.13426E+05
 0.35403004E+02 -0.15895E+05
 0.35453003E+02 -0.14828E+05
 0.35503002E+02 -0.18736E+05
 0.35553005E+02 -0.20175E+05
 0.35603004E+02 -0.18582E+05
 0.35653004E+02 -0.20976E+05
 0.35703003E+02 -0.16845E+05
 0.35753002E+02 -0.19707E+05
 0.35803005E+02 -0.15985E+05
 0.35853004E+02 -0.15697E+05
 0.35903004E+02 -0.18435E+05
 0.35953003E+02 -0.14055E+05
 0.36003002E+02 -0.14089E+05
 0.36053005E+02 -0.91775E+04
 0.36103004E+02 -0.82343E+04
 0.36153004E+02 -0.12445E+05
 0.36203003E+02 -0.13399E+05
 0.36253002E+02 -0.16227E+05
 0.36303005E+02 -0.18793E+05
 0.36353004E+02 -0.18517E+05
 0.36403004E+02 -0.17448E+05
 0.36453003E+02 -0.19581E+05
 0.36503002E+02 -0.15059E+05
 0.36553005E+02 -0.10790E+05
 0.36603004E+02 -0.14879E+05
 0.36653004E+02 -0.14408E+05
 0.36703003E+02 -0.15263E+05
 0.36753002E+02 -0.17044E+05
 0.36803005E+02 -0.20121E+05
 0.36853004E+02 -0.21453E+05
 0.36903004E+02 -0.16888E+05
 0.36953003E+02 -0.15195E+05
 0.37003002E+02 -0.17640E+05
 0.37053005E+02 -0.12889E+05
 0.37103004E+02 -0.10619E+05
 0.37153004E+02 -0.11559E+05
 0.37203003E+02 -0.11113E+05
 0.37253002E+02 -0.12472E+05
 0.37303005E+02 -0.13406E+05
 0.37353004E+02 -0.15920E+05
 0.37403004E+02 -0.17706E+05
 0.37453003E+02 -0.19995E+05
 0.37503002E+02 -0.19571E+05
 0.37553005E+02 -0.18405E+05
 0.37603004E+02 -0.16841E+05
 0.37653004E+02 -0.17705E+05
 0.37703003E+02 -0.14409E+05
 0.37753002E+02 -0.15111E+05
 0.37803005E+02 -0.15522E+05
 0.37853004E+02 -0.12755E+05
 0.37903004E+02 -0.14453E+05
 0.37953003E+02 -0.14173E+05
 0.38003002E+02 -0.17040E+05
 0.38053005E+02 -0.19567E+05
 0.38103004E+02 -0.17622E+05
 0.38153004E+02 -0.17691E+05
 0.38203003E+02 -0.16318E+05
 0.38253002E+02 -0.13495E+05
 0.38303005E+02 -0.16774E+05
 0.38353004E+02 -0.16447E+05
 0.38403004E+02 -0.12739E+05
 0.38453003E+02 -0.14646E+05
 0.38503002E+02 -0.12107E+05
 0.38553005E+02 -0.11072E+05
 0.38603004E+02 -0.15423E+05
 0.38653004E+02 -0.14494E+05
 0.38703003E+02 -0.16971E+05
 0.38753002E+02 -0.16416E+05
 0.38803005E+02 -0.18414E+05
 0.38853004E+02 -0.21271E+05
 0.38903004E+02 -0.18313E+05
 0.38953003E+02 -0.17331E+05
 0.39003002E+02 -0.14845E+05
 0.39053005E+02 -0.13145E+05
 0.39103004E+02 -0.13040E+05
 0.39153004E+02 -0.12663E+05
 0.39203003E+02 -0.16499E+05
 0.39253002E+02 -0.16704E+05
 0.39303005E+02 -0.16143E+05
 0.39353004E+02 -0.17599E+05
 0.39403004E+02 -0.17072E+05
 0.39453003E+02 -0.17844E+05
 0.39503002E+02 -0.16876E+05
 0.39553005E+02 -0.17057E+05
 0.39603004E+02 -0.16245E+05
 0.39653004E+02 -0.18130E+05
 0.39703003E+02 -0.16962E+05
 0.39753002E+02 -0.15141E+05
 0.39803005E+02 -0.16971E+05
 0.39853004E+02 -0.18883E+05
 0.39903004E+02 -0.18967E+05
 0.39953003E+02 -0.19311E+05
 0.40003002E+02 -0.18732E+05
 0.40053005E+02 -0.16482E+05
 0.40103004E+02 -0.18362E+05
 0.40153004E+02 -0.13777E+05
 0.40203003E+02 -0.11221E+05
 0.40253002E+02 -0.12738E+05
 0.40303005E+02 -0.12777E+05
 0.40353004E+02 -0.13845E+05
 0.40403004E+02 -0.13074E+05
 0.40453003E+02 -0.13862E+05
 0.40503002E+02 -0.17530E+05
 0.40553005E+02 -0.18463E+05
 0.40603004E+02 -0.16572E+05
 0.40653004E+02 -0.14260E+05
 0.40703003E+02 -0.13511E+05
 0.40753002E+02 -0.11753E+05
 0.40803005E+02 -0.14655E+05
 0.40853004E+02 -0.17357E+05
 0.40903004E+02 -0.14135E+05
 0.40953003E+02 -0.15433E+05
 0.41003002E+02 -0.15229E+05
 0.41053005E+02 -0.17907E+05
 0.41103004E+02 -0.16728E+05
 0.41153004E+02 -0.14584E+05
 0.41203003E+02 -0.12892E+05
 0.41253002E+02 -0.12281E+05
 0.41303005E+02 -0.14422E+05
 0.41353004E+02 -0.15675E+05
 0.41403004E+02 -0.18994E+05
 0.41453003E+02 -0.18984E+05
 0.41503002E+02 -0.18578E+05
 0.41553005E+02 -0.16190E+05
 0.41603004E+02 -0.15581E+05
 0.41653004E+02 -0.17795E+05
 0.41703003E+02 -0.16598E+05
 0.41753002E+02 -0.14030E+05
 0.41803005E+02 -0.14533E+05
 0.41853004E+02 -0.13828E+05
 0.41903004E+02 -0.15369E+05
 0.41953003E+02 -0.14507E+05
 0.42003002E+02 -0.16467E+05
 0.42053005E+02 -0.18368E+05
 0.42103004E+02 -0.18008E+05
 0.42153004E+02 -0.17335E+05
 0.42203003E+02 -0.15736E+05
 0.42253002E+02 -0.16891E+05
 0.42303005E+02 -0.15229E+05
 0.42353004E+02 -0.16939E+05
 0.42403004E+02 -0.17953E+05
 0.42453003E+02 -0.18415E+05
 0.42503002E+02 -0.19769E+05
 0.42553005E+02 -0.19463E+05
 0.42603004E+02 -0.17594E+05
 0.42653004E+02 -0.17034E+05
 0.42703003E+02 -0.16485E+05
 0.42753002E+02 -0.16303E+05
 0.42803001E+02 -0.15496E+05
 0.42853004E+02 -0.13778E+05
 0.42903004E+02 -0.12749E+05
 0.42953003E+02 -0.11491E+05
 0.43003002E+02 -0.12185E+05
 0.43053001E+02 -0.11484E+05
 0.43103004E+02 -0.12115E+05
 0.43153004E+02 -0.13925E+05
 0.43203003E+02 -0.14350E+05
 0.43253002E+02 -0.17238E+05
 0.43303001E+02 -0.18716E+05
 0.43353004E+02 -0.17839E+05
 0.43403004E+02 -0.15523E+05
 0.43453003E+02 -0.13702E+05
 0.43503002E+02 -0.15023E+05
 0.43553001E+02 -0.16339E+05
 0.43603004E+02 -0.18189E+05
 0.43653004E+02 -0.17375E+05
 0.43703003E+02 -0.14710E+05
 0.43753002E+02 -0.14288E+05
 0.43803001E+02 -0.14503E+05
 0.43853004E+02 -0.14747E+05
 0.43903004E+02 -0.15808E+05
 0.43953003E+02 -0.17448E+05
 0.44003002E+02 -0.17425E+05
 0.44053001E+02 -0.17017E+05
 0.44103004E+02 -0.17729E+05
 0.44153004E+02 -0.17392E+05
 0.44203003E+02 -0.18329E+05
 0.44253002E+02 -0.18076E+05
 0.44303001E+02 -0.17019E+05
 0.44353004E+02 -0.17180E+05
 0.44403004E+02 -0.17966E+05
 0.44453003E+02 -0.17365E+05
 0.44503002E+02 -0.15918E+05
 0.44553001E+02 -0.17463E+05
 0.44603004E+02 -0.14799E+05
 0.44653004E+02 -0.15330E+05
 0.44703003E+02 -0.17386E+05
 0.44753002E+02 -0.13817E+05
 0.44803001E+02 -0.14354E+05
 0.44853004E+02 -0.13079E+05
 0.44903004E+02 -0.13015E+05
 0.44953003E+02 -0.13739E+05
 0.45003002E+02 -0.14370E+05
 0.45053001E+02 -0.16129E+05
 0.45103004E+02 -0.15339E+05
 0.45153004E+02 -0.16791E+05
 0.45203003E+02 -0.15713E+05
 0.45253002E+02 -0.15018E+05
 0.45303001E+02 -0.14718E+05
 0.45353004E+02 -0.14714E+05
 0.45403004E+02 -0.15482E+05
 0.45453003E+02 -0.13892E+05
 0.45503002E+02 -0.14563E+05
 0.45553001E+02 -0.14727E+05
 0.45603004E+02 -0.14735E+05
 0.45653004E+02 -0.16083E+05
 0.45703003E+02 -0.15409E+05
 0.45753002E+02 -0.15073E+05
 0.45803001E+02 -0.15860E+05
 0.45853004E+02 -0.17785E+05
 0.45903004E+02 -0.17926E+05
 0.45953003E+02 -0.16837E+05
 0.46003002E+02 -0.18677E+05
 0.46053001E+02 -0.19713E+05
 0.46103004E+02 -0.19099E+05
 0.46153004E+02 -0.17859E+05
 0.46203003E+02 -0.16998E+05
 0.46253002E+02 -0.17191E+05
 0.46303001E+02 -0.16640E+05
 0.46353004E+02 -0.15949E+05
 0.46403004E+02 -0.15947E+05
 0.46453003E+02 -0.14717E+05
 0.46503002E+02 -0.15119E+05
 0.46553001E+02 -0.14334E+05
 0.46603004E+02 -0.13667E+05
 0.46653004E+02 -0.16890E+05
 0.46703003E+02 -0.15399E+05
 0.46753002E+02 -0.14293E+05
 0.46803001E+02 -0.14838E+05
 0.46853004E+02 -0.14455E+05
 0.46903004E+02 -0.17569E+05
 0.46953003E+02 -0.18141E+05
 0.47003002E+02 -0.18765E+05
 0.47053001E+02 -0.17573E+05
 0.47103004E+02 -0.14368E+05
 0.47153004E+02 -0.15426E+05
 0.47203003E+02 -0.13948E+05
 0.47253002E+02 -0.14277E+05
 0.47303001E+02 -0.13885E+05
 0.47353004E+02 -0.13236E+05
 0.47403004E+02 -0.14074E+05
 0.47453003E+02 -0.14731E+05
 0.47503002E+02 -0.16998E+05
 0.47553001E+02 -0.16372E+05
 0.47603004E+02 -0.17241E+05
 0.47653004E+02 -0.17157E+05
 0.47703003E+02 -0.16354E+05
 0.47753002E+02 -0.17792E+05
 0.47803001E+02 -0.16913E+05
 0.47853004E+02 -0.17206E+05
 0.47903004E+02 -0.16410E+05
 0.47953003E+02 -0.15049E+05
 0.48003002E+02 -0.15340E+05
 0.48053001E+02 -0.14640E+05
 0.48103004E+02 -0.15724E+05
 0.48153004E+02 -0.14333E+05
 0.48203003E+02 -0.13685E+05
 0.48253002E+02 -0.14341E+05
 0.48303001E+02 -0.13155E+05
 0.48353004E+02 -0.14574E+05
 0.48403004E+02 -0.15133E+05
 0.48453003E+02 -0.13869E+05
 0.48503002E+02 -0.16350E+05
 0.48553001E+02 -0.16610E+05
 0.48603004E+02 -0.15967E+05
 0.48653004E+02 -0.18254E+05
 0.48703003E+02 -0.17635E+05
 0.48753002E+02 -0.17709E+05
 0.48803001E+02 -0.17835E+05
 0.48853004E+02 -0.17809E+05
 0.48903004E+02 -0.17683E+05
 0.48953003E+02 -0.15845E+05
 0.49003002E+02 -0.16141E+05
 0.49053001E+02 -0.16050E+05
 0.49103004E+02 -0.14978E+05
 0.49153004E+02 -0.15266E+05
 0.49203003E+02 -0.15738E+05
 0.49253002E+02 -0.15794E+05
 0.49303001E+02 -0.14272E+05
 0.49353004E+02 -0.13775E+05
 0.49403004E+02 -0.14919E+05
 0.49453003E+02 -0.14445E+05
 0.49503002E+02 -0.15345E+05
 0.49553001E+02 -0.16180E+05
 0.49603004E+02 -0.14840E+05
 0.49653004E+02 -0.15208E+05
 0.49703003E+02 -0.15875E+05
 0.49753002E+02 -0.17163E+05
 0.49803001E+02 -0.18375E+05
 0.49853004E+02 -0.18788E+05
 0.49903004E+02 -0.17812E+05
 0.49953003E+02 -0.15526E+05
 0.50003002E+02 -0.15401E+05
 0.50053001E+02 -0.15183E+05
 0.50103004E+02 -0.14304E+05
 0.50153004E+02 -0.15564E+05
 0.50203003E+02 -0.15709E+05
 0.50253002E+02 -0.14986E+05
 0.50303001E+02 -0.16039E+05
 0.50353004E+02 -0.14998E+05
 0.50403004E+02 -0.14867E+05
 0.50453003E+02 -0.15382E+05
 0.50503002E+02 -0.16925E+05
 0.50553001E+02 -0.18622E+05
 0.50603004E+02 -0.17243E+05
 0.50653004E+02 -0.16916E+05
 0.50703003E+02 -0.16424E+05
 0.50753002E+02 -0.16504E+05
 0.50803001E+02 -0.15410E+05
 0.50853004E+02 -0.14877E+05
 0.50903004E+02 -0.15721E+05
 0.50953003E+02 -0.14670E+05
 0.51003002E+02 -0.16091E+05
 0.51053001E+02 -0.16985E+05
 0.51103004E+02 -0.16003E+05
 0.51153004E+02 -0.16498E+05
 0.51203003E+02 -0.16045E+05
 0.51253002E+02 -0.16732E+05
 0.51303001E+02 -0.16970E+05
 0.51353004E+02 -0.15887E+05
 0.51403004E+02 -0.16302E+05
 0.51453003E+02 -0.16104E+05
 0.51503002E+02 -0.16454E+05
 0.51553001E+02 -0.17490E+05
 0.51603004E+02 -0.16562E+05
 0.51653004E+02 -0.15340E+05
 0.51703003E+02 -0.15385E+05
 0.51753002E+02 -0.13850E+05
 0.51803001E+02 -0.14063E+05
 0.51853004E+02 -0.15278E+05
 0.51903004E+02 -0.15290E+05
 0.51953003E+02 -0.15089E+05
 0.52003002E+02 -0.15840E+05
 0.52053001E+02 -0.16977E+05
 0.52103004E+02 -0.16574E+05
 0.52153004E+02 -0.15798E+05
 0.52203003E+02 -0.14988E+05
 0.52253002E+02 -0.14046E+05
 0.52303001E+02 -0.13250E+05
 0.52353004E+02 -0.13571E+05
 0.52403004E+02 -0.14404E+05
 0.52453003E+02 -0.14156E+05
 0.52503002E+02 -0.15752E+05
 0.52553001E+02 -0.18141E+05
 0.52603004E+02 -0.17614E+05
 0.52653004E+02 -0.18026E+05
 0.52703003E+02 -0.17232E+05
 0.52753002E+02 -0.16266E+05
 0.52803001E+02 -0.15743E+05
 0.52853004E+02 -0.14894E+05
 0.52903004E+02 -0.14944E+05
 0.52953003E+02 -0.14689E+05
 0.53003002E+02 -0.15075E+05
 0.53053001E+02 -0.15473E+05
 0.53103004E+02 -0.16826E+05
 0.53153004E+02 -0.16552E+05
 0.53203003E+02 -0.15550E+05
 0.53253002E+02 -0.15294E+05
 0.53303001E+02 -0.14737E+05
 0.53353004E+02 -0.15731E+05
 0.53403004E+02 -0.15660E+05
 0.53453003E+02 -0.16499E+05
 0.53503002E+02 -0.17600E+05
 0.53553001E+02 -0.17003E+05
 0.53603004E+02 -0.16486E+05
 0.53653004E+02 -0.16626E+05
 0.53703003E+02 -0.17308E+05
 0.53753002E+02 -0.16742E+05
 0.53803001E+02 -0.16014E+05
 0.53853004E+02 -0.16025E+05
 0.53903004E+02 -0.16909E+05
 0.53953003E+02 -0.16781E+05
 0.54003002E+02 -0.16185E+05
 0.54053001E+02 -0.15638E+05
 0.54103004E+02 -0.14784E+05
 0.54153004E+02 -0.15649E+05
 0.54203003E+02 -0.16538E+05
 0.54253002E+02 -0.16762E+05
 0.54303001E+02 -0.16365E+05
 0.54353004E+02 -0.16044E+05
 0.54403004E+02 -0.16373E+05
 0.54453003E+02 -0.16255E+05
 0.54503002E+02 -0.17078E+05
 0.54553001E+02 -0.16263E+05
 0.54603004E+02 -0.15759E+05
 0.54653004E+02 -0.15448E+05
 0.54703003E+02 -0.14505E+05
 0.54753002E+02 -0.14860E+05
 0.54803001E+02 -0.14689E+05
 0.54853004E+02 -0.14902E+05
 0.54903004E+02 -0.14175E+05
 0.54953003E+02 -0.13722E+05
 0.55003002E+02 -0.14015E+05
 0.55053001E+02 -0.14257E+05
 0.55103004E+02 -0.14331E+05
 0.55153004E+02 -0.15006E+05
 0.55203003E+02 -0.16065E+05
 0.55253002E+02 -0.15963E+05
 0.55303001E+02 -0.16094E+05
 0.55353004E+02 -0.17484E+05
 0.55403004E+02 -0.18003E+05
 0.55453003E+02 -0.17614E+05
 0.55503002E+02 -0.17597E+05
 0.55553001E+02 -0.17151E+05
 0.55603004E+02 -0.15822E+05
 0.55653004E+02 -0.15219E+05
 0.55703003E+02 -0.16056E+05
 0.55753002E+02 -0.15859E+05
 0.55803001E+02 -0.16353E+05
 0.55853001E+02 -0.16356E+05
 0.55903004E+02 -0.16424E+05
 0.55953003E+02 -0.16921E+05
 0.56003002E+02 -0.15838E+05
 0.56053001E+02 -0.15082E+05
 0.56103001E+02 -0.15573E+05
 0.56153004E+02 -0.15616E+05
 0.56203003E+02 -0.15538E+05
 0.56253002E+02 -0.16944E+05
 0.56303001E+02 -0.17265E+05
 0.56353001E+02 -0.17286E+05
 0.56403004E+02 -0.16426E+05
 0.56453003E+02 -0.15472E+05
 0.56503002E+02 -0.15371E+05
 0.56553001E+02 -0.14885E+05
 0.56603001E+02 -0.15068E+05
 0.56653004E+02 -0.14926E+05
 0.56703003E+02 -0.15159E+05
 0.56753002E+02 -0.16306E+05
 0.56803001E+02 -0.15228E+05
 0.56853001E+02 -0.14214E+05
 0.56903004E+02 -0.15481E+05
 0.56953003E+02 -0.15945E+05
 0.57003002E+02 -0.16491E+05
 0.57053001E+02 -0.16225E+05
 0.57103001E+02 -0.15078E+05
 0.57153004E+02 -0.15035E+05
 0.57203003E+02 -0.14444E+05
 0.57253002E+02 -0.14990E+05
 0.57303001E+02 -0.15402E+05
 0.57353001E+02 -0.14953E+05
 0.57403004E+02 -0.15751E+05
 0.57453003E+02 -0.15815E+05
 0.57503002E+02 -0.16250E+05
 0.57553001E+02 -0.16094E+05
 0.57603001E+02 -0.16318E+05
 0.57653004E+02 -0.16772E+05
 0.57703003E+02 -0.16204E+05
 0.57753002E+02 -0.16802E+05
 0.57803001E+02 -0.16861E+05
 0.57853001E+02 -0.16780E+05
 0.57903004E+02 -0.16676E+05
 0.57953003E+02 -0.15979E+05
 0.58003002E+02 -0.15849E+05
 0.58053001E+02 -0.16387E+05
 0.58103001E+02 -0.16589E+05
 0.58153004E+02 -0.16794E+05
 0.58203003E+02 -0.16645E+05
 0.58253002E+02 -0.16591E+05
 0.58303001E+02 -0.16045E+05
 0.58353001E+02 -0.15172E+05
 0.58403004E+02 -0.15349E+05
 0.58453003E+02 -0.15398E+05
 0.58503002E+02 -0.15904E+05
 0.58553001E+02 -0.15785E+05
 0.58603001E+02 -0.15456E+05
 0.58653004E+02 -0.15059E+05
 0.58703003E+02 -0.15279E+05
 0.58753002E+02 -0.15768E+05
 0.58803001E+02 -0.15164E+05
 0.58853001E+02 -0.15369E+05
 0.58903004E+02 -0.16028E+05
 0.58953003E+02 -0.15869E+05
 0.59003002E+02 -0.15489E+05
 0.59053001E+02 -0.15396E+05
 0.59103001E+02 -0.15943E+05
 0.59153004E+02 -0.16319E+05
 0.59203003E+02 -0.15965E+05
 0.59253002E+02 -0.16850E+05
 0.59303001E+02 -0.16725E+05
 0.59353001E+02 -0.15797E+05
 0.59403004E+02 -0.15563E+05
 0.59453003E+02 -0.15483E+05
 0.59503002E+02 -0.15864E+05
 0.59553001E+02 -0.15727E+05
 0.59603001E+02 -0.15765E+05
 0.59653004E+02 -0.16066E+05
 0.59703003E+02 -0.15793E+05
 0.59753002E+02 -0.15675E+05
 0.59803001E+02 -0.14928E+05
 0.59853001E+02 -0.14486E+05
 0.59903004E+02 -0.15070E+05
 0.59953003E+02 -0.15569E+05
 0.60003002E+02 -0.16465E+05
 0.60053001E+02 -0.16480E+05
 0.60103001E+02 -0.15892E+05
 0.60153004E+02 -0.16314E+05
 0.60203003E+02 -0.16644E+05
 0.60253002E+02 -0.16584E+05
 0.60303001E+02 -0.16752E+05
 0.60353001E+02 -0.16418E+05
 0.60403004E+02 -0.16294E+05
 0.60453003E+02 -0.16007E+05
 0.60503002E+02 -0.15770E+05
 0.60553001E+02 -0.15463E+05
 0.60603001E+02 -0.15397E+05
 0.60653004E+02 -0.16148E+05
 0.60703003E+02 -0.16585E+05
 0.60753002E+02 -0.16649E+05
 0.60803001E+02 -0.15982E+05
 0.60853001E+02 -0.15674E+05
 0.60903004E+02 -0.15394E+05
 0.60953003E+02 -0.15116E+05
 0.61003002E+02 -0.15188E+05
 0.61053001E+02 -0.14681E+05
 0.61103001E+02 -0.14795E+05
 0.61153004E+02 -0.15308E+05
 0.61203003E+02 -0.15093E+05
 0.61253002E+02 -0.15860E+05
 0.61303001E+02 -0.16312E+05
 0.61353001E+02 -0.15577E+05
 0.61403004E+02 -0.15121E+05
 0.61453003E+02 -0.15040E+05
 0.61503002E+02 -0.15168E+05
 0.61553001E+02 -0.14886E+05
 0.61603001E+02 -0.15417E+05
 0.61653004E+02 -0.15808E+05
 0.61703003E+02 -0.16435E+05
 0.61753002E+02 -0.17148E+05
 0.61803001E+02 -0.17459E+05
 0.61853001E+02 -0.17766E+05
 0.61903004E+02 -0.16916E+05
 0.61953003E+02 -0.16682E+05
 0.62003002E+02 -0.15989E+05
 0.62053001E+02 -0.15129E+05
 0.62103004E+02 -0.15382E+05
 0.62153000E+02 -0.15673E+05
 0.62203003E+02 -0.15882E+05
 0.62252998E+02 -0.16389E+05
 0.62303001E+02 -0.16786E+05
 0.62353004E+02 -0.16203E+05
 0.62403000E+02 -0.15908E+05
 0.62453003E+02 -0.15797E+05
 0.62502998E+02 -0.15401E+05
 0.62553001E+02 -0.15438E+05
 0.62603004E+02 -0.15926E+05
 0.62653000E+02 -0.16317E+05
 0.62703003E+02 -0.16373E+05
 0.62752998E+02 -0.16544E+05
 0.62803001E+02 -0.16760E+05
 0.62853004E+02 -0.16608E+05
 0.62903000E+02 -0.16311E+05
 0.62953003E+02 -0.16366E+05
 0.63002998E+02 -0.16497E+05
 0.63053001E+02 -0.16433E+05
 0.63103004E+02 -0.16487E+05
 0.63153000E+02 -0.16450E+05
 0.63203003E+02 -0.16332E+05
 0.63252998E+02 -0.16077E+05
 0.63303001E+02 -0.15784E+05
 0.63353004E+02 -0.15654E+05
 0.63403000E+02 -0.15311E+05
 0.63453003E+02 -0.15198E+05
 0.63502998E+02 -0.15025E+05
 0.63553001E+02 -0.14766E+05
 0.63603004E+02 -0.14947E+05
 0.63653000E+02 -0.15262E+05
 0.63703003E+02 -0.14965E+05
 0.63752998E+02 -0.14873E+05
 0.63803001E+02 -0.15408E+05
 0.63853004E+02 -0.15070E+05
 0.63903000E+02 -0.15249E+05
 0.63953003E+02 -0.15905E+05
 0.64002998E+02 -0.16057E+05
 0.64053001E+02 -0.16353E+05
 0.64103004E+02 -0.16867E+05
 0.64153000E+02 -0.16840E+05
 0.64203003E+02 -0.16717E+05
 0.64252998E+02 -0.16813E+05
 0.64303001E+02 -0.16692E+05
 0.64353004E+02 -0.16957E+05
 0.64403000E+02 -0.16818E+05
 0.64453003E+02 -0.16874E+05
 0.64502998E+02 -0.16452E+05
 0.64553001E+02 -0.15638E+05
 0.64603004E+02 -0.15672E+05
 0.64653000E+02 -0.15751E+05
 0.64703003E+02 -0.15505E+05
 0.64752998E+02 -0.15274E+05
 0.64803001E+02 -0.15345E+05
 0.64853004E+02 -0.15571E+05
 0.64903000E+02 -0.15541E+05
 0.64953003E+02 -0.15484E+05
 0.65002998E+02 -0.15567E+05
 0.65053001E+02 -0.15176E+05
 0.65103004E+02 -0.15246E+05
 0.65153000E+02 -0.15189E+05
 0.65203003E+02 -0.14976E+05
 0.65252998E+02 -0.15205E+05
 0.65303001E+02 -0.14873E+05
 0.65353004E+02 -0.14503E+05
 0.65403000E+02 -0.14661E+05
 0.65453003E+02 -0.14842E+05
 0.65502998E+02 -0.15363E+05
 0.65553001E+02 -0.15560E+05
 0.65603004E+02 -0.15338E+05
 0.65653000E+02 -0.15350E+05
 0.65703003E+02 -0.15579E+05
 0.65752998E+02 -0.16134E+05
 0.65803001E+02 -0.16481E+05
 0.65853004E+02 -0.16537E+05
 0.65903000E+02 -0.16391E+05
 0.65953003E+02 -0.16272E+05
 0.66002998E+02 -0.16156E+05
 0.66053001E+02 -0.16474E+05
 0.66103004E+02 -0.16818E+05
 0.66153000E+02 -0.16604E+05
 0.66203003E+02 -0.16397E+05
 0.66252998E+02 -0.16124E+05
 0.66303001E+02 -0.16091E+05
 0.66353004E+02 -0.16109E+05
 0.66403000E+02 -0.15928E+05
 0.66453003E+02 -0.16002E+05
 0.66502998E+02 -0.16324E+05
 0.66553001E+02 -0.16900E+05
 0.66603004E+02 -0.17130E+05
 0.66653000E+02 -0.16540E+05
 0.66703003E+02 -0.16254E+05
 0.66752998E+02 -0.16085E+05
 0.66803001E+02 -0.15906E+05
 0.66853004E+02 -0.16013E+05
 0.66903000E+02 -0.16018E+05
 0.66953003E+02 -0.15974E+05
 0.67002998E+02 -0.15788E+05
 0.67053001E+02 -0.15587E+05
 0.67103004E+02 -0.15227E+05
 0.67153000E+02 -0.14971E+05
 0.67203003E+02 -0.15016E+05
 0.67252998E+02 -0.15396E+05
 0.67303001E+02 -0.15424E+05
 0.67353004E+02 -0.15489E+05
 0.67403000E+02 -0.15790E+05
 0.67453003E+02 -0.15812E+05
 0.67502998E+02 -0.15858E+05
 0.67553001E+02 -0.15677E+05
 0.67603004E+02 -0.15579E+05
 0.67653000E+02 -0.15909E+05
 0.67703003E+02 -0.16059E+05
 0.67752998E+02 -0.15998E+05
 0.67803001E+02 -0.16346E+05
 0.67853004E+02 -0.16702E+05
 0.67903000E+02 -0.16675E+05
 0.67953003E+02 -0.16685E+05
 0.68002998E+02 -0.16572E+05
 0.68053001E+02 -0.15885E+05
 0.68103004E+02 -0.15148E+05
 0.68153000E+02 -0.15023E+05
 0.68203003E+02 -0.15078E+05
 0.68252998E+02 -0.15142E+05
 0.68303001E+02 -0.15425E+05
 0.68353004E+02 -0.15245E+05
 0.68403000E+02 -0.15095E+05
 0.68453003E+02 -0.14974E+05
 0.68502998E+02 -0.14861E+05
 0.68553001E+02 -0.15278E+05
 0.68603004E+02 -0.15642E+05
 0.68653000E+02 -0.15782E+05
 0.68703003E+02 -0.15717E+05
 0.68752998E+02 -0.15685E+05
 0.68803001E+02 -0.16133E+05
 0.68853004E+02 -0.16647E+05
 0.68903000E+02 -0.16661E+05
 0.68953003E+02 -0.16432E+05
 0.69002998E+02 -0.16148E+05
 0.69053001E+02 -0.16161E+05
 0.69103004E+02 -0.16353E+05
 0.69153000E+02 -0.16521E+05
 0.69203003E+02 -0.16416E+05
 0.69252998E+02 -0.16128E+05
 0.69303001E+02 -0.16193E+05
 0.69353004E+02 -0.16490E+05
 0.69403000E+02 -0.16648E+05
 0.69453003E+02 -0.16660E+05
 0.69502998E+02 -0.16627E+05
 0.69553001E+02 -0.16468E+05
 0.69603004E+02 -0.16232E+05
 0.69653000E+02 -0.16020E+05
 0.69703003E+02 -0.16055E+05
 0.69752998E+02 -0.15853E+05
 0.69803001E+02 -0.15903E+05
 0.69853004E+02 -0.15724E+05
 0.69903000E+02 -0.15259E+05
 0.69953003E+02 -0.15514E+05
 0.70002998E+02 -0.15421E+05
 0.70053001E+02 -0.15353E+05
 0.70103004E+02 -0.15113E+05
 0.70153000E+02 -0.14535E+05
 0.70203003E+02 -0.14779E+05
 0.70252998E+02 -0.15185E+05
 0.70303001E+02 -0.15528E+05
 0.70353004E+02 -0.15968E+05
 0.70403000E+02 -0.16263E+05
 0.70453003E+02 -0.16437E+05
 0.70502998E+02 -0.16342E+05
 0.70553001E+02 -0.16205E+05
 0.70603004E+02 -0.16088E+05
 0.70653000E+02 -0.16146E+05
 0.70703003E+02 -0.16312E+05
 0.70752998E+02 -0.16140E+05
 0.70803001E+02 -0.16088E+05
 0.70853004E+02 -0.15970E+05
 0.70903000E+02 -0.15639E+05
 0.70953003E+02 -0.15757E+05
 0.71002998E+02 -0.15812E+05
 0.71053001E+02 -0.15713E+05
 0.71103004E+02 -0.15701E+05
 0.71153000E+02 -0.15648E+05
 0.71203003E+02 -0.15730E+05
 0.71252998E+02 -0.15691E+05
 0.71303001E+02 -0.15525E+05
 0.71353004E+02 -0.15278E+05
 0.71403000E+02 -0.15250E+05
 0.71453003E+02 -0.15506E+05
 0.71502998E+02 -0.15701E+05
 0.71553001E+02 -0.16036E+05
 0.71603004E+02 -0.16151E+05
 0.71653000E+02 -0.16016E+05
 0.71703003E+02 -0.15869E+05
 0.71752998E+02 -0.15686E+05
 0.71803001E+02 -0.15723E+05
 0.71853004E+02 -0.15800E+05
 0.71903000E+02 -0.15912E+05
 0.71953003E+02 -0.16105E+05
 0.72002998E+02 -0.16237E+05
 0.72053001E+02 -0.16193E+05
 0.72103004E+02 -0.16122E+05
 0.72153000E+02 -0.16195E+05
 0.72203003E+02 -0.16394E+05
 0.72252998E+02 -0.16394E+05
 0.72303001E+02 -0.16481E+05
 0.72353004E+02 -0.16658E+05
 0.72403000E+02 -0.16408E+05
 0.72453003E+02 -0.16164E+05
 0.72502998E+02 -0.16059E+05
 0.72553001E+02 -0.15807E+05
 0.72603004E+02 -0.15706E+05
 0.72653000E+02 -0.15834E+05
 0.72703003E+02 -0.15816E+05
 0.72752998E+02 -0.15822E+05
 0.72803001E+02 -0.15888E+05
 0.72853004E+02 -0.16176E+05
 0.72903000E+02 -0.16298E+05
 0.72953003E+02 -0.16136E+05
 0.73002998E+02 -0.15759E+05
 0.73053001E+02 -0.15634E+05
 0.73103004E+02 -0.15759E+05
 0.73153000E+02 -0.15694E+05
 0.73203003E+02 -0.15595E+05
 0.73252998E+02 -0.15354E+05
 0.73303001E+02 -0.15361E+05
 0.73353004E+02 -0.15479E+05
 0.73403000E+02 -0.15624E+05
 0.73453003E+02 -0.15634E+05
 0.73502998E+02 -0.15477E+05
 0.73553001E+02 -0.15599E+05
 0.73603004E+02 -0.15709E+05
 0.73653000E+02 -0.15796E+05
 0.73703003E+02 -0.16003E+05
 0.73752998E+02 -0.16284E+05
 0.73803001E+02 -0.16362E+05
 0.73853004E+02 -0.16303E+05
 0.73903000E+02 -0.16006E+05
 0.73953003E+02 -0.15618E+05
 0.74002998E+02 -0.15981E+05
 0.74053001E+02 -0.16293E+05
 0.74103004E+02 -0.16626E+05
 0.74153000E+02 -0.16979E+05
 0.74203003E+02 -0.16988E+05
 0.74252998E+02 -0.16604E+05
 0.74303001E+02 -0.15642E+05
 0.74353004E+02 -0.15020E+05
 0.74403000E+02 -0.15146E+05
 0.74453003E+02 -0.15289E+05
 0.74502998E+02 -0.15420E+05
 0.74553001E+02 -0.15722E+05
 0.74603004E+02 -0.15787E+05
 0.74653000E+02 -0.15913E+05
 0.74703003E+02 -0.15689E+05
 0.74752998E+02 -0.15472E+05
 0.74803001E+02 -0.15516E+05
 0.74853004E+02 -0.15386E+05
 0.74903000E+02 -0.15556E+05
 0.74953003E+02 -0.15607E+05
 0.75002998E+02 -0.15500E+05
 0.75053001E+02 -0.15798E+05
 0.75103004E+02 -0.15740E+05
 0.75153000E+02 -0.15532E+05
 0.75203003E+02 -0.15597E+05
 0.75252998E+02 -0.15514E+05
 0.75303001E+02 -0.15903E+05
 0.75353004E+02 -0.15943E+05
 0.75403000E+02 -0.15542E+05
 0.75453003E+02 -0.15428E+05
 0.75502998E+02 -0.15546E+05
 0.75553001E+02 -0.16058E+05
 0.75603004E+02 -0.16226E+05
 0.75653000E+02 -0.16209E+05
 0.75703003E+02 -0.16216E+05
 0.75752998E+02 -0.16032E+05
 0.75803001E+02 -0.16080E+05
 0.75853004E+02 -0.16132E+05
 0.75903000E+02 -0.15987E+05
 0.75953003E+02 -0.16023E+05
 0.76002998E+02 -0.15967E+05
 0.76053001E+02 -0.15850E+05
 0.76103004E+02 -0.15835E+05
 0.76153000E+02 -0.15855E+05
 0.76203003E+02 -0.16060E+05
 0.76252998E+02 -0.15989E+05
 0.76303001E+02 -0.15706E+05
 0.76353004E+02 -0.15611E+05
 0.76403000E+02 -0.15669E+05
 0.76453003E+02 -0.15907E+05
 0.76502998E+02 -0.16071E+05
 0.76553001E+02 -0.16009E+05
 0.76603004E+02 -0.15988E+05
 0.76653000E+02 -0.15902E+05
 0.76703003E+02 -0.15977E+05
 0.76752998E+02 -0.16030E+05
 0.76803001E+02 -0.16101E+05
 0.76853004E+02 -0.16295E+05
 0.76903000E+02 -0.16153E+05
 0.76953003E+02 -0.15900E+05
 0.77002998E+02 -0.15559E+05
 0.77053001E+02 -0.15390E+05
 0.77103004E+02 -0.15163E+05
 0.77153000E+02 -0.15139E+05
 0.77203003E+02 -0.15372E+05
 0.77252998E+02 -0.15537E+05
 0.77303001E+02 -0.15840E+05
 0.77353004E+02 -0.15727E+05
 0.77403000E+02 -0.15801E+05
 0.77453003E+02 -0.16205E+05
 0.77502998E+02 -0.16313E+05
 0.77553001E+02 -0.16448E+05
 0.77603004E+02 -0.16302E+05
 0.77653000E+02 -0.16111E+05
 0.77703003E+02 -0.15958E+05
 0.77752998E+02 -0.15680E+05
 0.77803001E+02 -0.15775E+05
 0.77853004E+02 -0.15884E+05
 0.77903000E+02 -0.15893E+05
 0.77953003E+02 -0.16101E+05
 0.78002998E+02 -0.16221E+05
 0.78053001E+02 -0.16214E+05
 0.78103004E+02 -0.16059E+05
 0.78153000E+02 -0.15825E+05
 0.78203003E+02 -0.15948E+05
 0.78252998E+02 -0.15996E+05
 0.78303001E+02 -0.16034E+05
 0.78353004E+02 -0.16077E+05
 0.78403000E+02 -0.16050E+05
 0.78453003E+02 -0.16179E+05
 0.78502998E+02 -0.15889E+05
 0.78553001E+02 -0.15454E+05
 0.78603004E+02 -0.15376E+05
 0.78653000E+02 -0.15495E+05
 0.78703003E+02 -0.15650E+05
 0.78752998E+02 -0.15575E+05
 0.78803001E+02 -0.15441E+05
 0.78853004E+02 -0.15698E+05
 0.78903000E+02 -0.15977E+05
 0.78953003E+02 -0.16096E+05
 0.79002998E+02 -0.15896E+05
 0.79053001E+02 -0.15614E+05
 0.79103004E+02 -0.15700E+05
 0.79153000E+02 -0.15813E+05
 0.79203003E+02 -0.16072E+05
 0.79252998E+02 -0.16404E+05
 0.79303001E+02 -0.16474E+05
 0.79353004E+02 -0.16508E+05
 0.79403000E+02 -0.16541E+05
 0.79453003E+02 -0.16368E+05
 0.79502998E+02 -0.16082E+05
 0.79553001E+02 -0.15760E+05
 0.79603004E+02 -0.15440E+05
 0.79653000E+02 -0.15293E+05
 0.79703003E+02 -0.15409E+05
 0.79752998E+02 -0.15453E+05
 0.79803001E+02 -0.15378E+05
 0.79853004E+02 -0.15411E+05
 0.79903000E+02 -0.15601E+05
 0.79953003E+02 -0.15818E+05
 0.80002998E+02 -0.15953E+05
 0.80053001E+02 -0.16109E+05
 0.80103004E+02 -0.16228E+05
 0.80153000E+02 -0.16376E+05
 0.80203003E+02 -0.16582E+05
 0.80252998E+02 -0.16724E+05
 0.80303001E+02 -0.16648E+05
 0.80353004E+02 -0.16413E+05
 0.80403000E+02 -0.16130E+05
 0.80453003E+02 -0.15795E+05
 0.80502998E+02 -0.15484E+05
 0.80553001E+02 -0.15034E+05
 0.80603004E+02 -0.14848E+05
 0.80653000E+02 -0.15165E+05
 0.80703003E+02 -0.15866E+05
 0.80752998E+02 -0.16586E+05
 0.80803001E+02 -0.16778E+05
 0.80853004E+02 -0.16581E+05
 0.80903000E+02 -0.16244E+05
 0.80953003E+02 -0.15917E+05
 0.81002998E+02 -0.15518E+05
 0.81053001E+02 -0.15328E+05
 0.81103004E+02 -0.15288E+05
 0.81153000E+02 -0.15310E+05
 0.81203003E+02 -0.15549E+05
 0.81252998E+02 -0.15863E+05
 0.81303001E+02 -0.16156E+05
 0.81353004E+02 -0.16004E+05
 0.81403000E+02 -0.15573E+05
 0.81453003E+02 -0.15271E+05
 0.81502998E+02 -0.15342E+05
 0.81553001E+02 -0.15525E+05
 0.81603004E+02 -0.15695E+05
 0.81653000E+02 -0.16023E+05
 0.81703003E+02 -0.16097E+05
 0.81752998E+02 -0.15982E+05
 0.81803001E+02 -0.15854E+05
 0.81853004E+02 -0.15633E+05
 0.81903000E+02 -0.15505E+05
 0.81953003E+02 -0.15516E+05
 0.82002998E+02 -0.15693E+05
 0.82053001E+02 -0.16101E+05
 0.82103004E+02 -0.16206E+05
 0.82153000E+02 -0.16329E+05
 0.82203003E+02 -0.16437E+05
 0.82252998E+02 -0.16345E+05
 0.82303001E+02 -0.16213E+05
 0.82353004E+02 -0.15891E+05
 0.82403000E+02 -0.15744E+05
 0.82453003E+02 -0.15684E+05
 0.82502998E+02 -0.15617E+05
 0.82553001E+02 -0.15864E+05
 0.82603004E+02 -0.16244E+05
 0.82653000E+02 -0.16449E+05
 0.82703003E+02 -0.16452E+05
 0.82752998E+02 -0.16219E+05
 0.82803001E+02 -0.15838E+05
 0.82853004E+02 -0.15465E+05
 0.82903000E+02 -0.15371E+05
 0.82953003E+02 -0.15499E+05
 0.83002998E+02 -0.15782E+05
 0.83053001E+02 -0.16048E+05
 0.83103004E+02 -0.16103E+05
 0.83153000E+02 -0.15993E+05
 0.83203003E+02 -0.15983E+05
 0.83252998E+02 -0.16003E+05
 0.83303001E+02 -0.16066E+05
 0.83353004E+02 -0.15953E+05
 0.83403000E+02 -0.15657E+05
 0.83453003E+02 -0.15658E+05
 0.83502998E+02 -0.15672E+05
 0.83553001E+02 -0.15596E+05
 0.83603004E+02 -0.15774E+05
 0.83653000E+02 -0.15940E+05
 0.83703003E+02 -0.15879E+05
 0.83752998E+02 -0.15939E+05
 0.83803001E+02 -0.15828E+05
 0.83853004E+02 -0.15700E+05
 0.83903000E+02 -0.15635E+05
 0.83953003E+02 -0.15866E+05
 0.84002998E+02 -0.16226E+05
 0.84053001E+02 -0.16208E+05
 0.84103004E+02 -0.16075E+05
 0.84153000E+02 -0.15752E+05
 0.84203003E+02 -0.15454E+05
 0.84252998E+02 -0.15434E+05
 0.84303001E+02 -0.15458E+05
 0.84353004E+02 -0.15419E+05
 0.84403000E+02 -0.15444E+05
 0.84453003E+02 -0.15514E+05
 0.84502998E+02 -0.15487E+05
 0.84553001E+02 -0.15422E+05
 0.84603004E+02 -0.15427E+05
 0.84653000E+02 -0.15545E+05
 0.84703003E+02 -0.15855E+05
 0.84752998E+02 -0.16018E+05
 0.84803001E+02 -0.16039E+05
 0.84853004E+02 -0.15960E+05
 0.84903000E+02 -0.15888E+05
 0.84953003E+02 -0.16069E+05
 0.85002998E+02 -0.16132E+05
 0.85053001E+02 -0.16190E+05
 0.85103004E+02 -0.16335E+05
 0.85153000E+02 -0.16390E+05
 0.85203003E+02 -0.16262E+05
 0.85252998E+02 -0.15964E+05
 0.85303001E+02 -0.15842E+05
 0.85353004E+02 -0.16024E+05
 0.85403000E+02 -0.16332E+05
 0.85453003E+02 -0.16426E+05
 0.85502998E+02 -0.16144E+05
 0.85553001E+02 -0.15724E+05
 0.85603004E+02 -0.15563E+05
 0.85653000E+02 -0.15446E+05
 0.85703003E+02 -0.15258E+05
 0.85752998E+02 -0.15425E+05
 0.85803001E+02 -0.15741E+05
 0.85853004E+02 -0.16053E+05
 0.85903000E+02 -0.16377E+05
 0.85953003E+02 -0.16557E+05
 0.86002998E+02 -0.16522E+05
 0.86053001E+02 -0.16385E+05
 0.86103004E+02 -0.16127E+05
 0.86153000E+02 -0.15710E+05
 0.86203003E+02 -0.15539E+05
 0.86252998E+02 -0.15475E+05
 0.86303001E+02 -0.15355E+05
 0.86353004E+02 -0.15357E+05
 0.86403000E+02 -0.15616E+05
 0.86453003E+02 -0.15973E+05
 0.86502998E+02 -0.16282E+05
 0.86553001E+02 -0.16561E+05
 0.86603004E+02 -0.16464E+05
 0.86653000E+02 -0.16091E+05
 0.86703003E+02 -0.15803E+05
 0.86752998E+02 -0.15752E+05
 0.86803001E+02 -0.15826E+05
 0.86853004E+02 -0.15918E+05
 0.86903000E+02 -0.16063E+05
 0.86953003E+02 -0.16100E+05
 0.87002998E+02 -0.16023E+05
 0.87053001E+02 -0.15954E+05
 0.87103004E+02 -0.15968E+05
 0.87153000E+02 -0.16040E+05
 0.87203003E+02 -0.16066E+05
 0.87252998E+02 -0.16236E+05
 0.87303001E+02 -0.16265E+05
 0.87353004E+02 -0.16143E+05
 0.87403000E+02 -0.16195E+05
 0.87453003E+02 -0.16081E+05
 0.87502998E+02 -0.15912E+05
 0.87553001E+02 -0.15727E+05
 0.87602997E+02 -0.15691E+05
 0.87653000E+02 -0.15738E+05
 0.87703003E+02 -0.15585E+05
 0.87752998E+02 -0.15525E+05
 0.87803001E+02 -0.15547E+05
 0.87852997E+02 -0.15683E+05
 0.87903000E+02 -0.15807E+05
 0.87953003E+02 -0.15728E+05
 0.88002998E+02 -0.15719E+05
 0.88053001E+02 -0.15818E+05
 0.88102997E+02 -0.15710E+05
 0.88153000E+02 -0.15637E+05
 0.88203003E+02 -0.15732E+05
 0.88252998E+02 -0.15690E+05
 0.88303001E+02 -0.15735E+05
 0.88352997E+02 -0.15805E+05
 0.88403000E+02 -0.15865E+05
 0.88453003E+02 -0.15997E+05
 0.88502998E+02 -0.16014E+05
 0.88553001E+02 -0.15947E+05
 0.88602997E+02 -0.15810E+05
 0.88653000E+02 -0.15797E+05
 0.88703003E+02 -0.15749E+05
 0.88752998E+02 -0.15609E+05
 0.88803001E+02 -0.15548E+05
 0.88852997E+02 -0.15591E+05
 0.88903000E+02 -0.15648E+05
 0.88953003E+02 -0.15646E+05
 0.89002998E+02 -0.15656E+05
 0.89053001E+02 -0.15812E+05
 0.89102997E+02 -0.16058E+05
 0.89153000E+02 -0.16272E+05
 0.89203003E+02 -0.16418E+05
 0.89252998E+02 -0.16329E+05
 0.89303001E+02 -0.16195E+05
 0.89352997E+02 -0.15944E+05
 0.89403000E+02 -0.15787E+05
 0.89453003E+02 -0.15823E+05
 0.89502998E+02 -0.15862E+05
 0.89553001E+02 -0.15938E+05
 0.89602997E+02 -0.16042E+05
 0.89653000E+02 -0.16092E+05
 0.89703003E+02 -0.16033E+05
 0.89752998E+02 -0.16112E+05
 0.89803001E+02 -0.16114E+05
 0.89852997E+02 -0.16025E+05
 0.89903000E+02 -0.15936E+05
 0.89953003E+02 -0.15728E+05
 0.90002998E+02 -0.15540E+05
 0.90053001E+02 -0.15433E+05
 0.90102997E+02 -0.15612E+05
 0.90153000E+02 -0.15755E+05
 0.90203003E+02 -0.15670E+05
 0.90252998E+02 -0.15662E+05
 0.90303001E+02 -0.15582E+05
 0.90352997E+02 -0.15454E+05
 0.90403000E+02 -0.15360E+05
 0.90453003E+02 -0.15305E+05
 0.90502998E+02 -0.15342E+05
 0.90553001E+02 -0.15522E+05
 0.90602997E+02 -0.15669E+05
 0.90653000E+02 -0.15736E+05
 0.90703003E+02 -0.15715E+05
 0.90752998E+02 -0.15549E+05
 0.90803001E+02 -0.15559E+05
 0.90852997E+02 -0.15706E+05
 0.90903000E+02 -0.16011E+05
 0.90953003E+02 -0.16328E+05
 0.91002998E+02 -0.16294E+05
 0.91053001E+02 -0.16265E+05
 0.91102997E+02 -0.16278E+05
 0.91153000E+02 -0.16314E+05
 0.91203003E+02 -0.16317E+05
 0.91252998E+02 -0.16114E+05
 0.91303001E+02 -0.15957E+05
 0.91352997E+02 -0.15885E+05
 0.91403000E+02 -0.15772E+05
 0.91453003E+02 -0.15696E+05
 0.91502998E+02 -0.15624E+05
 0.91553001E+02 -0.15623E+05
 0.91602997E+02 -0.15837E+05
 0.91653000E+02 -0.16205E+05
 0.91703003E+02 -0.16418E+05
 0.91752998E+02 -0.16516E+05
 0.91803001E+02 -0.16510E+05
 0.91852997E+02 -0.16324E+05
 0.91903000E+02 -0.16366E+05
 0.91953003E+02 -0.16409E+05
 0.92002998E+02 -0.16341E+05
 0.92053001E+02 -0.16117E+05
 0.92102997E+02 -0.15884E+05
 0.92153000E+02 -0.15784E+05
 0.92203003E+02 -0.15651E+05
 0.92252998E+02 -0.15606E+05
 0.92303001E+02 -0.15657E+05
 0.92352997E+02 -0.15719E+05
 0.92403000E+02 -0.15808E+05
 0.92453003E+02 -0.15860E+05
 0.92502998E+02 -0.15816E+05
 0.92553001E+02 -0.15706E+05
 0.92602997E+02 -0.15666E+05
 0.92653000E+02 -0.15742E+05
 0.92703003E+02 -0.15837E+05
 0.92752998E+02 -0.15948E+05
 0.92803001E+02 -0.16020E+05
 0.92852997E+02 -0.15945E+05
 0.92903000E+02 -0.15842E+05
 0.92953003E+02 -0.15801E+05
 0.93002998E+02 -0.15514E+05
 0.93053001E+02 -0.15195E+05
 0.93102997E+02 -0.14989E+05
 0.93153000E+02 -0.14974E+05
 0.93203003E+02 -0.15298E+05
 0.93252998E+02 -0.15578E+05
 0.93303001E+02 -0.15764E+05
 0.93352997E+02 -0.15783E+05
 0.93403000E+02 -0.15888E+05
 0.93453003E+02 -0.16180E+05
 0.93502998E+02 -0.16398E+05
 0.93553001E+02 -0.16467E+05
 0.93602997E+02 -0.16319E+05
 0.93653000E+02 -0.16175E+05
 0.93703003E+02 -0.16116E+05
 0.93752998E+02 -0.15982E+05
 0.93803001E+02 -0.15819E+05
 0.93852997E+02 -0.15681E+05
 0.93903000E+02 -0.15592E+05
 0.93953003E+02 -0.15780E+05
 0.94002998E+02 -0.15958E+05
 0.94053001E+02 -0.15904E+05
 0.94102997E+02 -0.15824E+05
 0.94153000E+02 -0.15917E+05
 0.94203003E+02 -0.16126E+05
 0.94252998E+02 -0.16274E+05
 0.94303001E+02 -0.16398E+05
 0.94352997E+02 -0.16385E+05
 0.94403000E+02 -0.16217E+05
 0.94453003E+02 -0.16080E+05
 0.94502998E+02 -0.15900E+05
 0.94553001E+02 -0.15742E+05
 0.94602997E+02 -0.15764E+05
 0.94653000E+02 -0.15789E+05
 0.94703003E+02 -0.15852E+05
 0.94752998E+02 -0.15990E+05
 0.94803001E+02 -0.16071E+05
 0.94852997E+02 -0.15939E+05
 0.94903000E+02 -0.15730E+05
 0.94953003E+02 -0.15467E+05
 0.95002998E+02 -0.15300E+05
 0.95053001E+02 -0.15298E+05
 0.95102997E+02 -0.15250E+05
 0.95153000E+02 -0.15379E+05
 0.95203003E+02 -0.15584E+05
 0.95252998E+02 -0.15778E+05
 0.95303001E+02 -0.15924E+05
 0.95352997E+02 -0.15954E+05
 0.95403000E+02 -0.15949E+05
 0.95453003E+02 -0.15952E+05
 0.95502998E+02 -0.15956E+05
 0.95553001E+02 -0.15881E+05
 0.95602997E+02 -0.15797E+05
 0.95653000E+02 -0.15786E+05
 0.95703003E+02 -0.15787E+05
 0.95752998E+02 -0.15878E+05
 0.95803001E+02 -0.16016E+05
 0.95852997E+02 -0.16124E+05
 0.95903000E+02 -0.16127E+05
 0.95953003E+02 -0.16076E+05
 0.96002998E+02 -0.16043E+05
 0.96053001E+02 -0.15948E+05
 0.96102997E+02 -0.15808E+05
 0.96153000E+02 -0.15735E+05
 0.96203003E+02 -0.15868E+05
 0.96252998E+02 -0.16030E+05
 0.96303001E+02 -0.16136E+05
 0.96352997E+02 -0.16201E+05
 0.96403000E+02 -0.16201E+05
 0.96453003E+02 -0.16063E+05
 0.96502998E+02 -0.15906E+05
 0.96553001E+02 -0.15773E+05
 0.96602997E+02 -0.15686E+05
 0.96653000E+02 -0.15746E+05
 0.96703003E+02 -0.15770E+05
 0.96752998E+02 -0.15698E+05
 0.96803001E+02 -0.15686E+05
 0.96852997E+02 -0.15823E+05
 0.96903000E+02 -0.16008E+05
 0.96953003E+02 -0.16168E+05
 0.97002998E+02 -0.16177E+05
 0.97053001E+02 -0.16081E+05
 0.97102997E+02 -0.15903E+05
 0.97153000E+02 -0.15707E+05
 0.97203003E+02 -0.15635E+05
 0.97252998E+02 -0.15619E+05
 0.97303001E+02 -0.15628E+05
 0.97352997E+02 -0.15688E+05
 0.97403000E+02 -0.15598E+05
 0.97453003E+02 -0.15447E+05
 0.97502998E+02 -0.15464E+05
 0.97553001E+02 -0.15634E+05
 0.97602997E+02 -0.15754E+05
 0.97653000E+02 -0.15774E+05
 0.97703003E+02 -0.15934E+05
 0.97752998E+02 -0.16018E+05
 0.97803001E+02 -0.16081E+05
 0.97852997E+02 -0.16015E+05
 0.97903000E+02 -0.15873E+05
 0.97953003E+02 -0.15838E+05
 0.98002998E+02 -0.15868E+05
