-0.20000000E+01 -0.94166E+04
-0.19500000E+01 -0.10082E+05
-0.19000000E+01 -0.10383E+05
-0.18500000E+01 -0.10698E+05
-0.18000000E+01 -0.10875E+05
-0.17500000E+01 -0.10986E+05
-0.17000000E+01 -0.11017E+05
-0.16500001E+01 -0.11052E+05
-0.16000000E+01 -0.11208E+05
-0.15500000E+01 -0.11454E+05
-0.15000000E+01 -0.11674E+05
-0.14500000E+01 -0.11963E+05
-0.14000001E+01 -0.12305E+05
-0.13500000E+01 -0.12643E+05
-0.13000001E+01 -0.12798E+05
-0.12500000E+01 -0.12516E+05
-0.12000000E+01 -0.11771E+05
-0.11500001E+01 -0.10605E+05
-0.11000000E+01 -0.90746E+04
-0.10500001E+01 -0.72338E+04
-0.10000000E+01 -0.52727E+04
-0.95000005E+00 -0.32352E+04
-0.90000010E+00 -0.13486E+04
-0.85000002E+00  0.43948E+03
-0.80000007E+00  0.23010E+04
-0.75000012E+00  0.42601E+04
-0.70000005E+00  0.61589E+04
-0.65000010E+00  0.76054E+04
-0.60000014E+00  0.84272E+04
-0.55000007E+00  0.84789E+04
-0.50000012E+00  0.77659E+04
-0.45000005E+00  0.64215E+04
-0.40000010E+00  0.47468E+04
-0.35000014E+00  0.28211E+04
-0.30000007E+00  0.68885E+03
-0.25000012E+00 -0.15728E+04
-0.20000005E+00 -0.39093E+04
-0.15000010E+00 -0.61609E+04
-0.10000014E+00 -0.82092E+04
-0.50000072E-01 -0.97993E+04
-0.11920929E-06 -0.10733E+05
 0.49999952E-01 -0.10956E+05
 0.99999905E-01 -0.10458E+05
 0.14999986E+00 -0.92657E+04
 0.19999981E+00 -0.74989E+04
 0.24999976E+00 -0.52817E+04
 0.29999995E+00 -0.27597E+04
 0.34999990E+00 -0.12871E+03
 0.39999986E+00  0.25185E+04
 0.44999981E+00  0.50584E+04
 0.49999976E+00  0.74768E+04
 0.54999995E+00  0.97727E+04
 0.59999990E+00  0.11928E+05
 0.64999986E+00  0.13952E+05
 0.69999981E+00  0.15893E+05
 0.74999976E+00  0.17699E+05
 0.79999971E+00  0.19322E+05
 0.84999990E+00  0.20972E+05
 0.89999986E+00  0.22442E+05
 0.94999981E+00  0.23752E+05
 0.99999976E+00  0.24949E+05
 0.10499997E+01  0.25909E+05
 0.10999999E+01  0.26625E+05
 0.11499999E+01  0.26826E+05
 0.11999998E+01  0.26452E+05
 0.12499998E+01  0.25548E+05
 0.12999997E+01  0.24277E+05
 0.13499999E+01  0.22658E+05
 0.13999999E+01  0.20919E+05
 0.14499998E+01  0.19057E+05
 0.14999998E+01  0.16826E+05
 0.15499997E+01  0.14387E+05
 0.15999999E+01  0.11658E+05
 0.16499999E+01  0.87733E+04
 0.16999998E+01  0.57992E+04
 0.17499998E+01  0.28471E+04
 0.17999997E+01  0.10894E+03
 0.18499997E+01 -0.25516E+04
 0.18999999E+01 -0.50913E+04
 0.19499998E+01 -0.75500E+04
 0.19999998E+01 -0.99826E+04
 0.20499997E+01 -0.12408E+05
 0.20999999E+01 -0.14727E+05
 0.21499996E+01 -0.16744E+05
 0.21999998E+01 -0.18489E+05
 0.22499995E+01 -0.19822E+05
 0.22999997E+01 -0.20629E+05
 0.23499999E+01 -0.20886E+05
 0.23999996E+01 -0.20630E+05
 0.24499998E+01 -0.19862E+05
 0.24999995E+01 -0.18740E+05
 0.25499997E+01 -0.17414E+05
 0.25999999E+01 -0.15922E+05
 0.26499996E+01 -0.14518E+05
 0.26999998E+01 -0.13344E+05
 0.27499995E+01 -0.12460E+05
 0.27999997E+01 -0.11878E+05
 0.28499999E+01 -0.11602E+05
 0.28999996E+01 -0.11519E+05
 0.29499998E+01 -0.11525E+05
 0.29999995E+01 -0.11412E+05
 0.30499997E+01 -0.11020E+05
 0.30999999E+01 -0.10299E+05
 0.31499996E+01 -0.90689E+04
 0.31999998E+01 -0.72956E+04
 0.32499995E+01 -0.50565E+04
 0.32999997E+01 -0.26287E+04
 0.33499999E+01 -0.22543E+03
 0.33999996E+01  0.20820E+04
 0.34499998E+01  0.40471E+04
 0.34999995E+01  0.56709E+04
 0.35499997E+01  0.71084E+04
 0.35999994E+01  0.83689E+04
 0.36499996E+01  0.94782E+04
 0.36999998E+01  0.10362E+05
 0.37499995E+01  0.10962E+05
 0.37999997E+01  0.11267E+05
 0.38499994E+01  0.11245E+05
 0.38999996E+01  0.10935E+05
 0.39499998E+01  0.10306E+05
 0.39999995E+01  0.93195E+04
 0.40499997E+01  0.80461E+04
 0.40999994E+01  0.65727E+04
 0.41499996E+01  0.51204E+04
 0.41999998E+01  0.38545E+04
 0.42499995E+01  0.27745E+04
 0.42999997E+01  0.18161E+04
 0.43499994E+01  0.93418E+03
 0.43999996E+01  0.14725E+03
 0.44499998E+01 -0.63247E+03
 0.44999995E+01 -0.15468E+04
 0.45499997E+01 -0.27293E+04
 0.45999994E+01 -0.41643E+04
 0.46499996E+01 -0.58508E+04
 0.46999998E+01 -0.77295E+04
 0.47499995E+01 -0.95137E+04
 0.47999997E+01 -0.11239E+05
 0.48499994E+01 -0.12916E+05
 0.48999996E+01 -0.14426E+05
 0.49499998E+01 -0.15842E+05
 0.49999995E+01 -0.17063E+05
 0.50499997E+01 -0.17999E+05
 0.50999994E+01 -0.18580E+05
 0.51499996E+01 -0.18725E+05
 0.51999998E+01 -0.18325E+05
 0.52499995E+01 -0.17158E+05
 0.52999997E+01 -0.15140E+05
 0.53499994E+01 -0.12150E+05
 0.53999996E+01 -0.83368E+04
 0.54499993E+01 -0.39718E+04
 0.54999995E+01  0.72260E+03
 0.55499997E+01  0.53651E+04
 0.55999994E+01  0.97149E+04
 0.56499996E+01  0.13560E+05
 0.56999993E+01  0.16756E+05
 0.57499995E+01  0.19222E+05
 0.57999997E+01  0.20878E+05
 0.58499994E+01  0.21730E+05
 0.58999996E+01  0.21848E+05
 0.59499993E+01  0.21280E+05
 0.59999995E+01  0.20205E+05
 0.60499992E+01  0.18826E+05
 0.60999994E+01  0.17378E+05
 0.61499996E+01  0.16032E+05
 0.61999998E+01  0.14784E+05
 0.62499990E+01  0.13609E+05
 0.62999992E+01  0.12364E+05
 0.63499994E+01  0.10993E+05
 0.63999996E+01  0.95248E+04
 0.64499998E+01  0.81158E+04
 0.64999990E+01  0.69237E+04
 0.65499992E+01  0.59738E+04
 0.65999994E+01  0.51599E+04
 0.66499996E+01  0.43333E+04
 0.66999998E+01  0.34497E+04
 0.67499990E+01  0.26103E+04
 0.67999992E+01  0.18952E+04
 0.68499994E+01  0.13407E+04
 0.68999996E+01  0.93162E+03
 0.69499998E+01  0.55591E+03
 0.69999990E+01  0.17792E+03
 0.70499992E+01 -0.19940E+03
 0.70999994E+01 -0.55779E+03
 0.71499996E+01 -0.84804E+03
 0.71999998E+01 -0.10493E+04
 0.72499990E+01 -0.12339E+04
 0.72999992E+01 -0.14012E+04
 0.73499994E+01 -0.14613E+04
 0.73999996E+01 -0.13522E+04
 0.74499998E+01 -0.10153E+04
 0.74999990E+01 -0.30129E+03
 0.75499992E+01  0.61348E+03
 0.75999994E+01  0.14564E+04
 0.76499996E+01  0.21450E+04
 0.76999998E+01  0.26646E+04
 0.77499990E+01  0.29476E+04
 0.77999992E+01  0.29004E+04
 0.78499994E+01  0.24327E+04
 0.78999996E+01  0.13981E+04
 0.79499998E+01 -0.22851E+03
 0.79999990E+01 -0.23839E+04
 0.80499992E+01 -0.48596E+04
 0.80999994E+01 -0.74366E+04
 0.81499996E+01 -0.99410E+04
 0.81999998E+01 -0.12086E+05
 0.82499990E+01 -0.13625E+05
 0.82999992E+01 -0.14508E+05
 0.83499994E+01 -0.14681E+05
 0.83999996E+01 -0.14215E+05
 0.84499998E+01 -0.13102E+05
 0.84999990E+01 -0.11375E+05
 0.85499992E+01 -0.92480E+04
 0.85999994E+01 -0.69016E+04
 0.86499996E+01 -0.45466E+04
 0.86999998E+01 -0.23193E+04
 0.87499990E+01 -0.35751E+03
 0.87999992E+01  0.11657E+04
 0.88499994E+01  0.23469E+04
 0.88999996E+01  0.33411E+04
 0.89499998E+01  0.40583E+04
 0.89999990E+01  0.44766E+04
 0.90499992E+01  0.46148E+04
 0.90999994E+01  0.44153E+04
 0.91499996E+01  0.39024E+04
 0.91999989E+01  0.31287E+04
 0.92499990E+01  0.22372E+04
 0.92999992E+01  0.14701E+04
 0.93499994E+01  0.96971E+03
 0.93999996E+01  0.76935E+03
 0.94499989E+01  0.68118E+03
 0.94999990E+01  0.55188E+03
 0.95499992E+01  0.34609E+03
 0.95999994E+01  0.18078E+03
 0.96499996E+01  0.79866E+02
 0.96999989E+01  0.86601E+02
 0.97499990E+01  0.18982E+03
 0.97999992E+01  0.33440E+03
 0.98499994E+01  0.63484E+03
 0.98999996E+01  0.10558E+04
 0.99499989E+01  0.16128E+04
 0.99999990E+01  0.23030E+04
 0.10049999E+02  0.31989E+04
 0.10099999E+02  0.42894E+04
 0.10150000E+02  0.55321E+04
 0.10199999E+02  0.68851E+04
 0.10249999E+02  0.83825E+04
 0.10299999E+02  0.10084E+05
 0.10349999E+02  0.11946E+05
 0.10400000E+02  0.13848E+05
 0.10449999E+02  0.15531E+05
 0.10499999E+02  0.16819E+05
 0.10549999E+02  0.17606E+05
 0.10599999E+02  0.17958E+05
 0.10650000E+02  0.17921E+05
 0.10699999E+02  0.17479E+05
 0.10749999E+02  0.16648E+05
 0.10799999E+02  0.15520E+05
 0.10849999E+02  0.14169E+05
 0.10900000E+02  0.12643E+05
 0.10949999E+02  0.10968E+05
 0.10999999E+02  0.92407E+04
 0.11049999E+02  0.75933E+04
 0.11099999E+02  0.60041E+04
 0.11150000E+02  0.44135E+04
 0.11199999E+02  0.28158E+04
 0.11249999E+02  0.12359E+04
 0.11299999E+02 -0.37076E+03
 0.11349999E+02 -0.19540E+04
 0.11400000E+02 -0.34285E+04
 0.11449999E+02 -0.47602E+04
 0.11499999E+02 -0.58192E+04
 0.11549999E+02 -0.64974E+04
 0.11599999E+02 -0.68155E+04
 0.11650000E+02 -0.68067E+04
 0.11699999E+02 -0.66140E+04
 0.11749999E+02 -0.62969E+04
 0.11799999E+02 -0.58088E+04
 0.11849999E+02 -0.52137E+04
 0.11900000E+02 -0.45648E+04
 0.11949999E+02 -0.39828E+04
 0.11999999E+02 -0.34815E+04
 0.12049999E+02 -0.30396E+04
 0.12099999E+02 -0.26986E+04
 0.12150000E+02 -0.23605E+04
 0.12199999E+02 -0.19936E+04
 0.12249999E+02 -0.17239E+04
 0.12299999E+02 -0.16632E+04
 0.12349999E+02 -0.18604E+04
 0.12400000E+02 -0.23772E+04
 0.12449999E+02 -0.31022E+04
 0.12499999E+02 -0.39700E+04
 0.12549999E+02 -0.49198E+04
 0.12599999E+02 -0.57273E+04
 0.12649999E+02 -0.63314E+04
 0.12699999E+02 -0.67774E+04
 0.12749999E+02 -0.71466E+04
 0.12799999E+02 -0.74971E+04
 0.12849999E+02 -0.77451E+04
 0.12899999E+02 -0.77852E+04
 0.12949999E+02 -0.74436E+04
 0.12999999E+02 -0.66305E+04
 0.13049999E+02 -0.55926E+04
 0.13099999E+02 -0.44811E+04
 0.13149999E+02 -0.34054E+04
 0.13199999E+02 -0.25852E+04
 0.13249999E+02 -0.20416E+04
 0.13299999E+02 -0.16796E+04
 0.13349999E+02 -0.15252E+04
 0.13399999E+02 -0.14973E+04
 0.13449999E+02 -0.15435E+04
 0.13499999E+02 -0.16501E+04
 0.13549999E+02 -0.18305E+04
 0.13599999E+02 -0.21565E+04
 0.13649999E+02 -0.25402E+04
 0.13699999E+02 -0.30265E+04
 0.13749999E+02 -0.35428E+04
 0.13799999E+02 -0.39811E+04
 0.13849999E+02 -0.43676E+04
 0.13899999E+02 -0.47164E+04
 0.13949999E+02 -0.51239E+04
 0.13999999E+02 -0.55694E+04
 0.14049999E+02 -0.59514E+04
 0.14099998E+02 -0.62309E+04
 0.14150000E+02 -0.63956E+04
 0.14199999E+02 -0.63849E+04
 0.14249998E+02 -0.61589E+04
 0.14299999E+02 -0.55463E+04
 0.14349998E+02 -0.45130E+04
 0.14400000E+02 -0.31773E+04
 0.14449999E+02 -0.14562E+04
 0.14499998E+02  0.64139E+03
 0.14549999E+02  0.30022E+04
 0.14599998E+02  0.55134E+04
 0.14650000E+02  0.80932E+04
 0.14699999E+02  0.10481E+05
 0.14749998E+02  0.12523E+05
 0.14799999E+02  0.14255E+05
 0.14849998E+02  0.15597E+05
 0.14900000E+02  0.16535E+05
 0.14949999E+02  0.17051E+05
 0.14999998E+02  0.17154E+05
 0.15049999E+02  0.16868E+05
 0.15099998E+02  0.16129E+05
 0.15150000E+02  0.14957E+05
 0.15199999E+02  0.13468E+05
 0.15249998E+02  0.11714E+05
 0.15299999E+02  0.97268E+04
 0.15349998E+02  0.76606E+04
 0.15400000E+02  0.56101E+04
 0.15449999E+02  0.36190E+04
 0.15499998E+02  0.17571E+04
 0.15549999E+02 -0.71422E+02
 0.15599998E+02 -0.20036E+04
 0.15650000E+02 -0.41116E+04
 0.15699999E+02 -0.63492E+04
 0.15749998E+02 -0.86811E+04
 0.15799999E+02 -0.10954E+05
 0.15849998E+02 -0.13009E+05
 0.15900000E+02 -0.14653E+05
 0.15949999E+02 -0.15862E+05
 0.15999998E+02 -0.16803E+05
 0.16049999E+02 -0.17534E+05
 0.16099998E+02 -0.18147E+05
 0.16150000E+02 -0.18703E+05
 0.16199999E+02 -0.19234E+05
 0.16249998E+02 -0.19754E+05
 0.16299999E+02 -0.20264E+05
 0.16349998E+02 -0.20595E+05
 0.16400000E+02 -0.20656E+05
 0.16449999E+02 -0.20409E+05
 0.16499998E+02 -0.19885E+05
 0.16549999E+02 -0.19181E+05
 0.16599998E+02 -0.18304E+05
 0.16650000E+02 -0.17289E+05
 0.16699999E+02 -0.16042E+05
 0.16749998E+02 -0.14567E+05
 0.16799999E+02 -0.12894E+05
 0.16849998E+02 -0.10982E+05
 0.16900000E+02 -0.87921E+04
 0.16949999E+02 -0.63318E+04
 0.16999998E+02 -0.37079E+04
 0.17049999E+02 -0.96086E+03
 0.17099998E+02  0.19608E+04
 0.17150000E+02  0.50088E+04
 0.17199999E+02  0.81492E+04
 0.17249998E+02  0.11386E+05
 0.17299999E+02  0.14522E+05
 0.17349998E+02  0.17436E+05
 0.17400000E+02  0.20157E+05
 0.17449999E+02  0.22583E+05
 0.17499998E+02  0.24695E+05
 0.17549999E+02  0.26529E+05
 0.17599998E+02  0.27950E+05
 0.17650000E+02  0.28864E+05
 0.17699999E+02  0.29217E+05
 0.17749998E+02  0.29006E+05
 0.17799999E+02  0.28227E+05
 0.17849998E+02  0.26880E+05
 0.17900000E+02  0.25119E+05
 0.17949999E+02  0.23049E+05
 0.17999998E+02  0.20675E+05
 0.18049999E+02  0.18078E+05
 0.18099998E+02  0.15447E+05
 0.18150000E+02  0.12823E+05
 0.18199999E+02  0.10140E+05
 0.18249998E+02  0.75403E+04
 0.18299999E+02  0.51499E+04
 0.18349998E+02  0.31697E+04
 0.18400000E+02  0.18044E+04
 0.18449999E+02  0.12471E+04
 0.18499998E+02  0.15367E+04
 0.18549999E+02  0.32906E+04
 0.18599998E+02  0.62017E+04
 0.18650000E+02  0.10034E+05
 0.18699999E+02  0.14142E+05
 0.18749998E+02  0.18062E+05
 0.18799999E+02  0.21196E+05
 0.18849998E+02  0.25069E+05
 0.18900000E+02  0.29449E+05
 0.18949999E+02  0.34720E+05
 0.18999998E+02  0.41839E+05
 0.19049999E+02  0.47793E+05
 0.19099998E+02  0.48581E+05
 0.19150000E+02  0.40968E+05
 0.19199999E+02  0.33445E+05
 0.19249998E+02  0.22003E+05
 0.19299999E+02 -0.11151E+04
 0.19349998E+02 -0.36577E+05
 0.19400000E+02 -0.79868E+05
 0.19449999E+02 -0.10360E+06
 0.19499998E+02 -0.79608E+05
 0.19549999E+02 -0.29920E+05
 0.19599998E+02  0.82005E+04
 0.19650000E+02  0.37402E+05
 0.19699999E+02  0.53099E+05
 0.19749998E+02  0.64233E+05
 0.19799999E+02  0.46532E+05
 0.19849998E+02 -0.54591E+05
 0.19900000E+02 -0.20935E+06
 0.19949999E+02 -0.37031E+06
 0.19999998E+02 -0.49969E+06
 0.20049999E+02 -0.55530E+06
 0.20099998E+02 -0.51370E+06
 0.20150000E+02 -0.36682E+06
 0.20199999E+02 -0.17694E+06
 0.20249998E+02 -0.14092E+05
 0.20299999E+02  0.72523E+05
 0.20349998E+02  0.69484E+05
 0.20399998E+02  0.80798E+05
 0.20449999E+02  0.15119E+06
 0.20499998E+02  0.25890E+06
 0.20549999E+02  0.31895E+06
 0.20599998E+02  0.23563E+06
 0.20649998E+02  0.11099E+06
 0.20699999E+02 -0.60795E+05
 0.20749998E+02 -0.17489E+06
 0.20799999E+02 -0.18943E+06
 0.20849998E+02 -0.12566E+06
 0.20899998E+02  0.40928E+05
 0.20949999E+02  0.13657E+06
 0.20999998E+02  0.13950E+06
 0.21049999E+02  0.22294E+05
 0.21099998E+02 -0.79830E+05
 0.21149998E+02 -0.15703E+06
 0.21199999E+02 -0.14130E+06
 0.21249998E+02 -0.82182E+05
 0.21299999E+02 -0.19926E+06
 0.21349998E+02 -0.35761E+06
 0.21399998E+02 -0.50125E+06
 0.21449999E+02 -0.56085E+06
 0.21499998E+02 -0.54792E+06
 0.21549999E+02 -0.47157E+06
 0.21599998E+02 -0.39458E+06
 0.21649998E+02 -0.35098E+06
 0.21699999E+02 -0.21479E+06
 0.21749998E+02  0.76204E+05
 0.21799999E+02  0.40447E+06
 0.21849998E+02  0.57151E+06
 0.21899998E+02  0.56273E+06
 0.21949999E+02  0.47383E+06
 0.21999998E+02  0.33562E+06
 0.22049999E+02  0.21485E+06
 0.22099998E+02  0.10509E+06
 0.22149998E+02 -0.10623E+06
 0.22199999E+02 -0.25755E+06
 0.22249998E+02 -0.35857E+06
 0.22299999E+02 -0.44129E+06
 0.22349998E+02 -0.45200E+06
 0.22399998E+02 -0.48464E+06
 0.22449999E+02 -0.45627E+06
 0.22499998E+02 -0.34372E+06
 0.22549999E+02 -0.16613E+06
 0.22599998E+02 -0.37813E+05
 0.22649998E+02  0.65176E+05
 0.22699999E+02  0.16068E+06
 0.22749998E+02  0.17074E+06
 0.22799999E+02  0.24328E+06
 0.22849998E+02  0.14659E+06
 0.22899998E+02  0.20578E+05
 0.22949999E+02  0.60243E+05
 0.22999998E+02  0.84083E+05
 0.23049999E+02  0.12460E+06
 0.23099998E+02  0.69997E+05
 0.23149998E+02 -0.73716E+04
 0.23199999E+02 -0.16487E+06
 0.23249998E+02 -0.23072E+06
 0.23299999E+02 -0.17732E+06
 0.23349998E+02 -0.12506E+06
 0.23399998E+02 -0.45693E+05
 0.23449999E+02 -0.51534E+05
 0.23499998E+02 -0.93613E+05
 0.23549999E+02 -0.32768E+06
 0.23599998E+02 -0.43965E+06
 0.23649998E+02 -0.36262E+06
 0.23699999E+02 -0.18093E+06
 0.23749998E+02  0.60588E+05
 0.23799999E+02  0.10016E+06
 0.23849998E+02  0.10542E+06
 0.23899998E+02  0.17328E+06
 0.23949999E+02  0.30829E+06
 0.23999998E+02  0.47071E+06
 0.24049999E+02  0.53543E+06
 0.24099998E+02  0.54151E+06
 0.24149998E+02  0.46871E+06
 0.24199999E+02  0.37451E+06
 0.24249998E+02  0.37228E+06
 0.24299999E+02  0.36424E+06
 0.24349998E+02  0.31978E+06
 0.24399998E+02  0.29970E+06
 0.24449999E+02  0.27828E+06
 0.24499998E+02  0.25071E+06
 0.24549999E+02  0.28215E+06
 0.24599998E+02  0.42768E+06
 0.24649998E+02  0.55120E+06
 0.24699999E+02  0.58859E+06
 0.24749998E+02  0.58699E+06
 0.24799999E+02  0.43582E+06
 0.24849998E+02  0.20549E+06
 0.24899998E+02  0.13245E+06
 0.24949999E+02  0.78711E+05
 0.24999998E+02 -0.23750E+05
 0.25049999E+02  0.29712E+05
 0.25099998E+02  0.35002E+04
 0.25149998E+02 -0.14336E+06
 0.25199999E+02 -0.23816E+06
 0.25249998E+02 -0.26201E+06
 0.25299999E+02 -0.15862E+06
 0.25349998E+02 -0.18438E+05
 0.25399998E+02 -0.38946E+05
 0.25449999E+02 -0.11937E+05
 0.25499998E+02 -0.10641E+05
 0.25549999E+02 -0.10429E+06
 0.25599998E+02 -0.74435E+05
 0.25649998E+02 -0.14381E+06
 0.25699999E+02 -0.28491E+06
 0.25749998E+02 -0.40655E+06
 0.25799999E+02 -0.48002E+06
 0.25849998E+02 -0.47247E+06
 0.25899998E+02 -0.34178E+06
 0.25949999E+02 -0.10669E+06
 0.25999998E+02  0.79494E+05
 0.26049999E+02  0.11081E+06
 0.26099998E+02  0.12377E+06
 0.26149998E+02  0.10684E+06
 0.26199999E+02  0.27112E+05
 0.26249998E+02  0.40493E+05
 0.26299999E+02  0.20710E+05
 0.26349998E+02  0.43962E+03
 0.26399998E+02 -0.97993E+05
 0.26449999E+02 -0.23791E+06
 0.26499998E+02 -0.30403E+06
 0.26549999E+02 -0.39900E+06
 0.26599998E+02 -0.38708E+06
 0.26649998E+02 -0.31328E+06
 0.26699999E+02 -0.95264E+05
 0.26749998E+02  0.21852E+06
 0.26799999E+02  0.33861E+06
 0.26849998E+02  0.34853E+06
 0.26899998E+02  0.18824E+06
 0.26949999E+02 -0.52990E+05
 0.26999998E+02 -0.18399E+06
 0.27049997E+02 -0.20161E+06
 0.27099998E+02 -0.20877E+06
 0.27149998E+02 -0.14504E+06
 0.27199999E+02 -0.12148E+06
 0.27249998E+02 -0.29146E+06
 0.27299997E+02 -0.45063E+06
 0.27349998E+02 -0.43145E+06
 0.27399998E+02 -0.29655E+06
 0.27449999E+02 -0.12363E+06
 0.27499998E+02  0.39176E+05
 0.27549997E+02  0.74955E+05
 0.27599998E+02  0.72389E+05
 0.27649998E+02  0.18463E+06
 0.27699999E+02  0.30071E+06
 0.27749998E+02  0.20000E+06
 0.27799997E+02  0.11324E+06
 0.27849998E+02  0.62382E+05
 0.27899998E+02 -0.36322E+05
 0.27949999E+02 -0.22344E+05
 0.27999998E+02  0.56229E+05
 0.28049997E+02  0.18054E+06
 0.28099998E+02  0.23749E+06
 0.28149998E+02  0.25160E+06
 0.28199999E+02  0.32745E+06
 0.28249998E+02  0.33175E+06
 0.28299997E+02  0.24388E+06
 0.28349998E+02  0.16681E+06
 0.28399998E+02  0.13809E+06
 0.28449999E+02  0.69947E+05
 0.28499998E+02 -0.42057E+05
 0.28549997E+02 -0.78272E+05
 0.28599998E+02 -0.45280E+05
 0.28649998E+02 -0.20523E+05
 0.28699999E+02  0.53915E+05
 0.28749998E+02  0.96804E+05
 0.28799997E+02  0.47777E+05
 0.28849998E+02 -0.82594E+04
 0.28899998E+02 -0.61836E+05
 0.28949999E+02 -0.58770E+05
 0.28999998E+02  0.50809E+05
 0.29049997E+02  0.10645E+06
 0.29099998E+02  0.10950E+06
 0.29149998E+02  0.96300E+05
 0.29199999E+02  0.60167E+05
 0.29249998E+02  0.44828E+05
 0.29299997E+02 -0.20973E+05
 0.29349998E+02 -0.21679E+05
 0.29399998E+02 -0.78544E+04
 0.29449999E+02  0.11234E+05
 0.29499998E+02  0.12618E+05
 0.29549997E+02  0.19259E+05
 0.29599998E+02  0.98352E+05
 0.29649998E+02  0.10992E+06
 0.29699999E+02  0.10478E+06
 0.29749998E+02  0.12643E+06
 0.29799997E+02  0.12402E+06
 0.29849998E+02  0.10914E+06
 0.29899998E+02  0.64352E+05
 0.29949999E+02  0.39187E+05
 0.29999998E+02  0.64001E+05
 0.30049999E+02  0.42567E+05
 0.30099998E+02 -0.30031E+05
 0.30149998E+02 -0.59388E+05
 0.30199997E+02 -0.73311E+05
 0.30249996E+02 -0.59556E+05
 0.30299999E+02  0.33309E+04
 0.30349998E+02  0.45769E+05
 0.30399998E+02  0.14808E+06
 0.30449997E+02  0.20307E+06
 0.30499996E+02  0.21983E+06
 0.30549999E+02  0.25176E+06
 0.30599998E+02  0.25194E+06
 0.30649998E+02  0.21777E+06
 0.30699997E+02  0.20264E+06
 0.30749996E+02  0.13176E+06
 0.30799999E+02  0.35983E+03
 0.30849998E+02 -0.37262E+05
 0.30899998E+02 -0.94435E+05
 0.30949997E+02 -0.12322E+06
 0.30999996E+02 -0.11477E+06
 0.31049999E+02 -0.18790E+06
 0.31099998E+02 -0.22171E+06
 0.31149998E+02 -0.27382E+06
 0.31199997E+02 -0.34767E+06
 0.31249996E+02 -0.27677E+06
 0.31299999E+02 -0.22337E+06
 0.31349998E+02 -0.21749E+06
 0.31399998E+02 -0.17808E+06
 0.31449997E+02 -0.24737E+06
 0.31499996E+02 -0.24136E+06
 0.31549999E+02 -0.14256E+06
 0.31599998E+02 -0.86887E+05
 0.31649998E+02  0.13548E+05
 0.31699997E+02  0.32269E+05
 0.31749996E+02  0.18677E+04
 0.31799999E+02 -0.37601E+05
 0.31849998E+02 -0.13465E+06
 0.31899998E+02 -0.14304E+06
 0.31949997E+02 -0.39387E+05
 0.31999996E+02 -0.91554E+04
 0.32049999E+02  0.32828E+05
 0.32099998E+02  0.34237E+05
 0.32149998E+02  0.18200E+05
 0.32199997E+02 -0.24121E+05
 0.32249996E+02 -0.15646E+06
 0.32299999E+02 -0.22968E+06
 0.32349998E+02 -0.29918E+06
 0.32399998E+02 -0.35474E+06
 0.32449997E+02 -0.30681E+06
 0.32499996E+02 -0.21435E+06
 0.32549999E+02 -0.22477E+06
 0.32599998E+02 -0.21953E+06
 0.32649998E+02 -0.14811E+06
 0.32699997E+02 -0.21709E+05
 0.32749996E+02  0.11878E+06
 0.32799999E+02  0.16769E+06
 0.32849998E+02  0.21092E+06
 0.32899998E+02  0.22249E+06
 0.32949997E+02  0.17889E+06
 0.32999996E+02  0.13239E+06
 0.33049999E+02 -0.63543E+05
 0.33099998E+02 -0.29042E+06
 0.33149998E+02 -0.34455E+06
 0.33199997E+02 -0.36519E+06
 0.33249996E+02 -0.45758E+06
 0.33299999E+02 -0.55112E+06
 0.33349998E+02 -0.48062E+06
 0.33399998E+02 -0.41771E+06
 0.33449997E+02 -0.56634E+06
 0.33499996E+02 -0.68670E+06
 0.33549999E+02 -0.57845E+06
 0.33599998E+02 -0.55818E+06
 0.33649998E+02 -0.69438E+06
 0.33699997E+02 -0.65007E+06
 0.33749996E+02 -0.52627E+06
 0.33799999E+02 -0.39681E+06
 0.33849998E+02 -0.14273E+06
 0.33899998E+02  0.11044E+06
 0.33949997E+02  0.44224E+06
 0.33999996E+02  0.61829E+06
 0.34049999E+02  0.62041E+06
 0.34099998E+02  0.73685E+06
 0.34149998E+02  0.62495E+06
 0.34199997E+02  0.37677E+06
 0.34249996E+02  0.18351E+06
 0.34299999E+02  0.48931E+05
 0.34349998E+02 -0.19926E+05
 0.34399998E+02  0.48008E+05
 0.34449997E+02  0.12911E+06
 0.34499996E+02  0.50723E+05
 0.34549999E+02 -0.13648E+06
 0.34599998E+02 -0.35663E+06
 0.34649998E+02 -0.50955E+06
 0.34699997E+02 -0.51957E+06
 0.34749996E+02 -0.42662E+06
 0.34799999E+02 -0.35827E+06
 0.34849998E+02 -0.29609E+06
 0.34899998E+02 -0.39239E+06
 0.34949997E+02 -0.66552E+06
 0.34999996E+02 -0.79318E+06
 0.35049999E+02 -0.61406E+06
 0.35099998E+02 -0.43603E+06
 0.35149998E+02 -0.21002E+06
 0.35199997E+02  0.27188E+06
 0.35249996E+02  0.81307E+06
 0.35299999E+02  0.10722E+07
 0.35349998E+02  0.91128E+06
 0.35399998E+02  0.60748E+06
 0.35449997E+02  0.26358E+06
 0.35499996E+02  0.84133E+05
 0.35549999E+02  0.11651E+06
 0.35599998E+02  0.11610E+06
 0.35649998E+02  0.21559E+06
 0.35699997E+02  0.33480E+06
 0.35749996E+02  0.28652E+06
 0.35799999E+02  0.69902E+05
 0.35849998E+02 -0.26096E+06
 0.35899998E+02 -0.38547E+06
 0.35949997E+02 -0.28187E+06
 0.35999996E+02 -0.35690E+05
 0.36049999E+02  0.21937E+06
 0.36099998E+02  0.48778E+06
 0.36149998E+02  0.65761E+06
 0.36199997E+02  0.45998E+06
 0.36249996E+02  0.19664E+06
 0.36299999E+02 -0.47290E+05
 0.36349998E+02 -0.33036E+06
 0.36399998E+02 -0.46314E+06
 0.36449997E+02 -0.43993E+06
 0.36499996E+02 -0.32536E+06
 0.36549999E+02 -0.73856E+05
 0.36599998E+02  0.18205E+05
 0.36649998E+02 -0.36262E+05
 0.36699997E+02 -0.89291E+05
 0.36749996E+02 -0.34688E+06
 0.36799999E+02 -0.75299E+06
 0.36849998E+02 -0.10460E+07
 0.36899998E+02 -0.10645E+07
 0.36949997E+02 -0.84556E+06
 0.36999996E+02 -0.51381E+06
 0.37049999E+02 -0.84856E+05
 0.37099998E+02  0.37796E+06
 0.37149998E+02  0.58428E+06
 0.37199997E+02  0.59224E+06
 0.37249996E+02  0.64222E+06
 0.37299999E+02  0.52991E+06
 0.37349998E+02  0.18258E+06
 0.37399998E+02 -0.11366E+06
 0.37449997E+02 -0.23710E+06
 0.37499996E+02 -0.25507E+06
 0.37549999E+02 -0.25123E+06
 0.37599998E+02 -0.14669E+06
 0.37649998E+02 -0.15654E+05
 0.37699997E+02 -0.29891E+04
 0.37749996E+02  0.10584E+05
 0.37799999E+02  0.13280E+06
 0.37849998E+02  0.31488E+06
 0.37899998E+02  0.54612E+06
 0.37949997E+02  0.67558E+06
 0.37999996E+02  0.56697E+06
 0.38049999E+02  0.40361E+06
 0.38099998E+02  0.36875E+06
 0.38149998E+02  0.40770E+06
 0.38199997E+02  0.49196E+06
 0.38249996E+02  0.58619E+06
 0.38299999E+02  0.59759E+06
 0.38349998E+02  0.68317E+06
 0.38399998E+02  0.89186E+06
 0.38449997E+02  0.10111E+07
 0.38499996E+02  0.10155E+07
 0.38549999E+02  0.95511E+06
 0.38599998E+02  0.86056E+06
 0.38649998E+02  0.95607E+06
 0.38699997E+02  0.11770E+07
 0.38749996E+02  0.13865E+07
 0.38799999E+02  0.15063E+07
 0.38849998E+02  0.13689E+07
 0.38899998E+02  0.94488E+06
 0.38949997E+02  0.42636E+06
 0.38999996E+02  0.21035E+06
 0.39049999E+02  0.35275E+06
 0.39099998E+02  0.51500E+06
 0.39149998E+02  0.54368E+06
 0.39199997E+02  0.54898E+06
 0.39249996E+02  0.49809E+06
 0.39299999E+02  0.36514E+06
 0.39349998E+02  0.25052E+06
 0.39399998E+02  0.22363E+06
 0.39449997E+02  0.34372E+06
 0.39499996E+02  0.61070E+06
 0.39549999E+02  0.96462E+06
 0.39599998E+02  0.10944E+07
 0.39649998E+02  0.10172E+07
 0.39699997E+02  0.96845E+06
 0.39749996E+02  0.69521E+06
 0.39799999E+02  0.27905E+06
 0.39849998E+02  0.10304E+06
 0.39899998E+02  0.15939E+06
 0.39949997E+02  0.21486E+06
 0.39999996E+02  0.25422E+06
 0.40049999E+02  0.41934E+06
 0.40099998E+02  0.53917E+06
 0.40149998E+02  0.51110E+06
 0.40199997E+02  0.47930E+06
 0.40249996E+02  0.34487E+06
 0.40299999E+02  0.15266E+06
 0.40349998E+02  0.62269E+05
 0.40399998E+02  0.46211E+03
 0.40449997E+02  0.15197E+04
 0.40499996E+02  0.15491E+06
 0.40549999E+02  0.36763E+06
 0.40599998E+02  0.48930E+06
 0.40649998E+02  0.46491E+06
 0.40699997E+02  0.25306E+06
 0.40749996E+02 -0.16211E+06
 0.40799999E+02 -0.61098E+06
 0.40849998E+02 -0.88240E+06
 0.40899998E+02 -0.92906E+06
 0.40949997E+02 -0.71137E+06
 0.40999996E+02 -0.30723E+06
 0.41049999E+02 -0.11942E+05
 0.41099998E+02  0.26447E+06
 0.41149998E+02  0.52097E+06
 0.41199997E+02  0.49473E+06
 0.41249996E+02  0.34611E+06
 0.41299999E+02  0.16143E+06
 0.41349998E+02 -0.25614E+05
 0.41399998E+02 -0.11091E+06
 0.41449997E+02 -0.83765E+05
 0.41499996E+02  0.31376E+04
 0.41549999E+02  0.10285E+06
 0.41599998E+02  0.18706E+06
 0.41649998E+02  0.24227E+06
 0.41699997E+02  0.33952E+06
 0.41749996E+02  0.39780E+06
 0.41799999E+02  0.32915E+06
 0.41849998E+02  0.26647E+06
 0.41899998E+02  0.20505E+06
 0.41949997E+02  0.59019E+05
 0.41999996E+02 -0.63889E+05
 0.42049999E+02 -0.14834E+06
 0.42099998E+02 -0.25627E+06
 0.42149998E+02 -0.36054E+06
 0.42199997E+02 -0.38425E+06
 0.42249996E+02 -0.34892E+06
 0.42299999E+02 -0.24706E+06
 0.42349998E+02 -0.14228E+06
 0.42399998E+02 -0.15548E+06
 0.42449997E+02 -0.23623E+06
 0.42499996E+02 -0.40352E+06
 0.42549999E+02 -0.61852E+06
 0.42599998E+02 -0.82981E+06
 0.42649998E+02 -0.10482E+07
 0.42699997E+02 -0.11631E+07
 0.42749996E+02 -0.10937E+07
 0.42799995E+02 -0.10601E+07
 0.42849998E+02 -0.10807E+07
 0.42899998E+02 -0.11267E+07
 0.42949997E+02 -0.12113E+07
 0.42999996E+02 -0.12186E+07
 0.43049995E+02 -0.11851E+07
 0.43099998E+02 -0.10874E+07
 0.43149998E+02 -0.93350E+06
 0.43199997E+02 -0.81082E+06
 0.43249996E+02 -0.77046E+06
 0.43299995E+02 -0.73687E+06
 0.43349998E+02 -0.65516E+06
 0.43399998E+02 -0.53821E+06
 0.43449997E+02 -0.41229E+06
 0.43499996E+02 -0.34515E+06
 0.43549995E+02 -0.31857E+06
 0.43599998E+02 -0.30595E+06
 0.43649998E+02 -0.31259E+06
 0.43699997E+02 -0.24741E+06
 0.43749996E+02 -0.75166E+05
 0.43799995E+02  0.16063E+06
 0.43849998E+02  0.39278E+06
 0.43899998E+02  0.52052E+06
 0.43949997E+02  0.52514E+06
 0.43999996E+02  0.45758E+06
 0.44049995E+02  0.40271E+06
 0.44099998E+02  0.41725E+06
 0.44149998E+02  0.54283E+06
 0.44199997E+02  0.78527E+06
 0.44249996E+02  0.97666E+06
 0.44299995E+02  0.10080E+07
 0.44349998E+02  0.90989E+06
 0.44399998E+02  0.72827E+06
 0.44449997E+02  0.50105E+06
 0.44499996E+02  0.29131E+06
 0.44549995E+02  0.17795E+06
 0.44599998E+02  0.92187E+05
 0.44649998E+02  0.42434E+05
 0.44699997E+02  0.10507E+06
 0.44749996E+02  0.20359E+06
 0.44799995E+02  0.29765E+06
 0.44849998E+02  0.39195E+06
 0.44899998E+02  0.46269E+06
 0.44949997E+02  0.43749E+06
 0.44999996E+02  0.32274E+06
 0.45049995E+02  0.12035E+06
 0.45099998E+02 -0.18537E+06
 0.45149998E+02 -0.47417E+06
 0.45199997E+02 -0.72551E+06
 0.45249996E+02 -0.83430E+06
 0.45299995E+02 -0.79596E+06
 0.45349998E+02 -0.75432E+06
 0.45399998E+02 -0.65830E+06
 0.45449997E+02 -0.55314E+06
 0.45499996E+02 -0.48206E+06
 0.45549995E+02 -0.38772E+06
 0.45599998E+02 -0.34921E+06
 0.45649998E+02 -0.41022E+06
 0.45699997E+02 -0.49181E+06
 0.45749996E+02 -0.52821E+06
 0.45799995E+02 -0.47753E+06
 0.45849998E+02 -0.38704E+06
 0.45899998E+02 -0.30531E+06
 0.45949997E+02 -0.20017E+06
 0.45999996E+02 -0.96532E+05
 0.46049995E+02 -0.95191E+05
 0.46099998E+02 -0.21164E+06
 0.46149998E+02 -0.36251E+06
 0.46199997E+02 -0.43395E+06
 0.46249996E+02 -0.46026E+06
 0.46299995E+02 -0.57197E+06
 0.46349998E+02 -0.67671E+06
 0.46399998E+02 -0.66975E+06
 0.46449997E+02 -0.62544E+06
 0.46499996E+02 -0.55881E+06
 0.46549995E+02 -0.50976E+06
 0.46599998E+02 -0.48838E+06
 0.46649998E+02 -0.43052E+06
 0.46699997E+02 -0.39871E+06
 0.46749996E+02 -0.36587E+06
 0.46799995E+02 -0.36108E+06
 0.46849998E+02 -0.43385E+06
 0.46899998E+02 -0.45955E+06
 0.46949997E+02 -0.38867E+06
 0.46999996E+02 -0.26724E+06
 0.47049995E+02 -0.12156E+06
 0.47099998E+02  0.14631E+05
 0.47149998E+02  0.12613E+06
 0.47199997E+02  0.21154E+06
 0.47249996E+02  0.18549E+06
 0.47299995E+02  0.70281E+05
 0.47349998E+02 -0.13971E+05
 0.47399998E+02 -0.22505E+05
 0.47449997E+02  0.24928E+04
 0.47499996E+02  0.26388E+05
 0.47549995E+02  0.70278E+05
 0.47599998E+02  0.12685E+06
 0.47649998E+02  0.10682E+06
 0.47699997E+02  0.11546E+05
 0.47749996E+02 -0.43844E+05
 0.47799995E+02 -0.70914E+05
 0.47849998E+02 -0.13242E+06
 0.47899998E+02 -0.20826E+06
 0.47949997E+02 -0.27232E+06
 0.47999996E+02 -0.35272E+06
 0.48049995E+02 -0.37854E+06
 0.48099998E+02 -0.32178E+06
 0.48149998E+02 -0.24632E+06
 0.48199997E+02 -0.14652E+06
 0.48249996E+02 -0.49159E+05
 0.48299995E+02 -0.19821E+05
 0.48349998E+02 -0.28856E+05
 0.48399998E+02 -0.85654E+05
 0.48449997E+02 -0.20679E+06
 0.48499996E+02 -0.29132E+06
 0.48549995E+02 -0.30935E+06
 0.48599998E+02 -0.32021E+06
 0.48649998E+02 -0.30953E+06
 0.48699997E+02 -0.23763E+06
 0.48749996E+02 -0.17339E+06
 0.48799995E+02 -0.15836E+06
 0.48849998E+02 -0.14527E+06
 0.48899998E+02 -0.15254E+06
 0.48949997E+02 -0.18065E+06
 0.48999996E+02 -0.15324E+06
 0.49049995E+02 -0.87767E+05
 0.49099998E+02 -0.23306E+05
 0.49149998E+02  0.27648E+05
 0.49199997E+02  0.54423E+05
 0.49249996E+02  0.34268E+05
 0.49299995E+02  0.73596E+04
 0.49349998E+02 -0.33585E+04
 0.49399998E+02 -0.27015E+05
 0.49449997E+02 -0.38973E+05
 0.49499996E+02  0.74069E+04
 0.49549995E+02  0.72677E+05
 0.49599998E+02  0.46617E+05
 0.49649998E+02 -0.86544E+05
 0.49699997E+02 -0.28157E+06
 0.49749996E+02 -0.42510E+06
 0.49799995E+02 -0.39232E+06
 0.49849998E+02 -0.24632E+06
 0.49899998E+02 -0.11401E+06
 0.49949997E+02  0.10127E+05
 0.49999996E+02  0.14276E+06
 0.50049995E+02  0.29717E+06
 0.50099998E+02  0.45522E+06
 0.50149998E+02  0.58658E+06
 0.50199997E+02  0.69758E+06
 0.50249996E+02  0.74811E+06
 0.50299995E+02  0.76270E+06
 0.50349998E+02  0.80276E+06
 0.50399998E+02  0.82242E+06
 0.50449997E+02  0.82091E+06
 0.50499996E+02  0.81648E+06
 0.50549995E+02  0.75415E+06
 0.50599998E+02  0.65377E+06
 0.50649998E+02  0.56011E+06
 0.50699997E+02  0.45467E+06
 0.50749996E+02  0.34396E+06
 0.50799995E+02  0.27551E+06
 0.50849998E+02  0.23061E+06
 0.50899998E+02  0.22602E+06
 0.50949997E+02  0.29675E+06
 0.50999996E+02  0.40294E+06
 0.51049995E+02  0.51031E+06
 0.51099998E+02  0.57574E+06
 0.51149998E+02  0.58008E+06
 0.51199997E+02  0.53488E+06
 0.51249996E+02  0.45302E+06
 0.51299995E+02  0.35675E+06
 0.51349998E+02  0.25853E+06
 0.51399998E+02  0.14877E+06
 0.51449997E+02  0.29400E+05
 0.51499996E+02 -0.98999E+05
 0.51549995E+02 -0.25712E+06
 0.51599998E+02 -0.41406E+06
 0.51649998E+02 -0.53641E+06
 0.51699997E+02 -0.64097E+06
 0.51749996E+02 -0.72565E+06
 0.51799995E+02 -0.78131E+06
 0.51849998E+02 -0.80381E+06
 0.51899998E+02 -0.75792E+06
 0.51949997E+02 -0.63311E+06
 0.51999996E+02 -0.48096E+06
 0.52049995E+02 -0.35755E+06
 0.52099998E+02 -0.29740E+06
 0.52149998E+02 -0.30823E+06
 0.52199997E+02 -0.37235E+06
 0.52249996E+02 -0.44695E+06
 0.52299995E+02 -0.48282E+06
 0.52349998E+02 -0.45615E+06
 0.52399998E+02 -0.37134E+06
 0.52449997E+02 -0.25389E+06
 0.52499996E+02 -0.16450E+06
 0.52549995E+02 -0.11675E+06
 0.52599998E+02 -0.13470E+06
 0.52649998E+02 -0.21312E+06
 0.52699997E+02 -0.27755E+06
 0.52749996E+02 -0.32860E+06
 0.52799995E+02 -0.37524E+06
 0.52849998E+02 -0.40188E+06
 0.52899998E+02 -0.36817E+06
 0.52949997E+02 -0.28562E+06
 0.52999996E+02 -0.15360E+06
 0.53049995E+02  0.19592E+04
 0.53099998E+02  0.12111E+06
 0.53149998E+02  0.19095E+06
 0.53199997E+02  0.19505E+06
 0.53249996E+02  0.13254E+06
 0.53299995E+02  0.37784E+05
 0.53349998E+02 -0.44359E+05
 0.53399998E+02 -0.10220E+06
 0.53449997E+02 -0.90729E+05
 0.53499996E+02 -0.94884E+02
 0.53549995E+02  0.12651E+06
 0.53599998E+02  0.28903E+06
 0.53649998E+02  0.48383E+06
 0.53699997E+02  0.64058E+06
 0.53749996E+02  0.73134E+06
 0.53799995E+02  0.75250E+06
 0.53849998E+02  0.71643E+06
 0.53899998E+02  0.62580E+06
 0.53949997E+02  0.50218E+06
 0.53999996E+02  0.38583E+06
 0.54049995E+02  0.25678E+06
 0.54099998E+02  0.13440E+06
 0.54149998E+02  0.39935E+05
 0.54199997E+02 -0.23063E+05
 0.54249996E+02 -0.11602E+06
 0.54299995E+02 -0.24638E+06
 0.54349998E+02 -0.34485E+06
 0.54399998E+02 -0.40579E+06
 0.54449997E+02 -0.41818E+06
 0.54499996E+02 -0.36104E+06
 0.54549995E+02 -0.25639E+06
 0.54599998E+02 -0.15050E+06
 0.54649998E+02 -0.32366E+05
 0.54699997E+02  0.93765E+05
 0.54749996E+02  0.18646E+06
 0.54799995E+02  0.22229E+06
 0.54849998E+02  0.23787E+06
 0.54899998E+02  0.23324E+06
 0.54949997E+02  0.18232E+06
 0.54999996E+02  0.14076E+06
 0.55049995E+02  0.10135E+06
 0.55099998E+02  0.53115E+05
 0.55149998E+02  0.18595E+05
 0.55199997E+02  0.20799E+05
 0.55249996E+02  0.40891E+05
 0.55299995E+02  0.44817E+05
 0.55349998E+02  0.37909E+05
 0.55399998E+02  0.16692E+04
 0.55449997E+02 -0.60309E+05
 0.55499996E+02 -0.11869E+06
 0.55549995E+02 -0.14498E+06
 0.55599998E+02 -0.13441E+06
 0.55649998E+02 -0.12308E+06
 0.55699997E+02 -0.13174E+06
 0.55749996E+02 -0.16488E+06
 0.55799995E+02 -0.21666E+06
 0.55849995E+02 -0.28436E+06
 0.55899998E+02 -0.34553E+06
 0.55949997E+02 -0.35054E+06
 0.55999996E+02 -0.32767E+06
 0.56049995E+02 -0.30873E+06
 0.56099995E+02 -0.28038E+06
 0.56149998E+02 -0.26450E+06
 0.56199997E+02 -0.25468E+06
 0.56249996E+02 -0.21457E+06
 0.56299995E+02 -0.14244E+06
 0.56349995E+02 -0.47929E+05
 0.56399998E+02  0.35711E+05
 0.56449997E+02  0.10774E+06
 0.56499996E+02  0.19769E+06
 0.56549995E+02  0.28149E+06
 0.56599995E+02  0.37669E+06
 0.56649998E+02  0.50403E+06
 0.56699997E+02  0.63277E+06
 0.56749996E+02  0.73046E+06
 0.56799995E+02  0.75927E+06
 0.56849995E+02  0.70120E+06
 0.56899998E+02  0.56731E+06
 0.56949997E+02  0.38609E+06
 0.56999996E+02  0.18524E+06
 0.57049995E+02  0.13711E+05
 0.57099995E+02 -0.11814E+06
 0.57149998E+02 -0.20840E+06
 0.57199997E+02 -0.24377E+06
 0.57249996E+02 -0.22948E+06
 0.57299995E+02 -0.15763E+06
 0.57349995E+02 -0.50002E+05
 0.57399998E+02  0.62347E+05
 0.57449997E+02  0.16006E+06
 0.57499996E+02  0.22019E+06
 0.57549995E+02  0.21312E+06
 0.57599995E+02  0.16063E+06
 0.57649998E+02  0.95722E+05
 0.57699997E+02  0.34988E+05
 0.57749996E+02  0.70786E+04
 0.57799995E+02  0.29380E+04
 0.57849995E+02 -0.12963E+05
 0.57899998E+02 -0.55871E+05
 0.57949997E+02 -0.10327E+06
 0.57999996E+02 -0.13048E+06
 0.58049995E+02 -0.13471E+06
 0.58099995E+02 -0.11646E+06
 0.58149998E+02 -0.83324E+05
 0.58199997E+02 -0.26181E+05
 0.58249996E+02  0.49702E+05
 0.58299995E+02  0.11089E+06
 0.58349995E+02  0.15336E+06
 0.58399998E+02  0.17094E+06
 0.58449997E+02  0.15988E+06
 0.58499996E+02  0.14927E+06
 0.58549995E+02  0.14371E+06
 0.58599995E+02  0.11925E+06
 0.58649998E+02  0.69639E+05
 0.58699997E+02  0.13899E+05
 0.58749996E+02 -0.29208E+05
 0.58799995E+02 -0.79283E+05
 0.58849995E+02 -0.12103E+06
 0.58899998E+02 -0.12971E+06
 0.58949997E+02 -0.14151E+06
 0.58999996E+02 -0.15735E+06
 0.59049995E+02 -0.15958E+06
 0.59099995E+02 -0.17015E+06
 0.59149998E+02 -0.19652E+06
 0.59199997E+02 -0.22807E+06
 0.59249996E+02 -0.26062E+06
 0.59299995E+02 -0.29690E+06
 0.59349995E+02 -0.31598E+06
 0.59399998E+02 -0.31965E+06
 0.59449997E+02 -0.31840E+06
 0.59499996E+02 -0.30509E+06
 0.59549995E+02 -0.28124E+06
 0.59599995E+02 -0.25703E+06
 0.59649998E+02 -0.22508E+06
 0.59699997E+02 -0.18184E+06
 0.59749996E+02 -0.16365E+06
 0.59799995E+02 -0.18132E+06
 0.59849995E+02 -0.22576E+06
 0.59899998E+02 -0.28519E+06
 0.59949997E+02 -0.33662E+06
 0.59999996E+02 -0.35974E+06
 0.60049995E+02 -0.35359E+06
 0.60099995E+02 -0.32644E+06
 0.60149998E+02 -0.28946E+06
 0.60199997E+02 -0.26302E+06
 0.60249996E+02 -0.25743E+06
 0.60299995E+02 -0.25120E+06
 0.60349995E+02 -0.21955E+06
 0.60399998E+02 -0.18449E+06
 0.60449997E+02 -0.16164E+06
 0.60499996E+02 -0.11883E+06
 0.60549995E+02 -0.40373E+05
 0.60599995E+02  0.50103E+05
 0.60649998E+02  0.16025E+06
 0.60699997E+02  0.29180E+06
 0.60749996E+02  0.41321E+06
 0.60799995E+02  0.51293E+06
 0.60849995E+02  0.57434E+06
 0.60899998E+02  0.59851E+06
 0.60949997E+02  0.58897E+06
 0.60999996E+02  0.54244E+06
 0.61049995E+02  0.46561E+06
 0.61099995E+02  0.37200E+06
 0.61149998E+02  0.29476E+06
 0.61199997E+02  0.25715E+06
 0.61249996E+02  0.24685E+06
 0.61299995E+02  0.25567E+06
 0.61349995E+02  0.26179E+06
 0.61399998E+02  0.26120E+06
 0.61449997E+02  0.26490E+06
 0.61499996E+02  0.25884E+06
 0.61549995E+02  0.24792E+06
 0.61599995E+02  0.24090E+06
 0.61649998E+02  0.22964E+06
 0.61699997E+02  0.19807E+06
 0.61749996E+02  0.15066E+06
 0.61799995E+02  0.86497E+05
 0.61849995E+02  0.98205E+04
 0.61899998E+02 -0.63333E+05
 0.61949997E+02 -0.11543E+06
 0.61999996E+02 -0.14770E+06
 0.62049995E+02 -0.16217E+06
 0.62099998E+02 -0.13925E+06
 0.62149994E+02 -0.89087E+05
 0.62199997E+02 -0.29986E+05
 0.62249992E+02  0.25392E+05
 0.62299995E+02  0.67645E+05
 0.62349998E+02  0.77379E+05
 0.62399994E+02  0.51523E+05
 0.62449997E+02  0.16015E+05
 0.62499992E+02 -0.21208E+05
 0.62549995E+02 -0.49008E+05
 0.62599998E+02 -0.36276E+05
 0.62649994E+02  0.91668E+04
 0.62699997E+02  0.57077E+05
 0.62749992E+02  0.89409E+05
 0.62799995E+02  0.84589E+05
 0.62849998E+02  0.52102E+05
 0.62899994E+02  0.90552E+04
 0.62949997E+02 -0.40178E+05
 0.62999992E+02 -0.81071E+05
 0.63049995E+02 -0.11457E+06
 0.63099998E+02 -0.15844E+06
 0.63149994E+02 -0.21234E+06
 0.63199997E+02 -0.27299E+06
 0.63249992E+02 -0.32521E+06
 0.63299995E+02 -0.37403E+06
 0.63349998E+02 -0.42644E+06
 0.63399994E+02 -0.47389E+06
 0.63449997E+02 -0.51602E+06
 0.63499992E+02 -0.53475E+06
 0.63549995E+02 -0.52752E+06
 0.63599998E+02 -0.49704E+06
 0.63649994E+02 -0.44711E+06
 0.63699997E+02 -0.38485E+06
 0.63749992E+02 -0.32304E+06
 0.63799995E+02 -0.26445E+06
 0.63849998E+02 -0.20561E+06
 0.63899994E+02 -0.16183E+06
 0.63949997E+02 -0.12992E+06
 0.63999992E+02 -0.11233E+06
 0.64049995E+02 -0.11058E+06
 0.64099998E+02 -0.10616E+06
 0.64149994E+02 -0.94058E+05
 0.64199997E+02 -0.78701E+05
 0.64249992E+02 -0.48872E+05
 0.64299995E+02  0.16291E+05
 0.64349998E+02  0.10767E+06
 0.64399994E+02  0.21776E+06
 0.64449997E+02  0.34138E+06
 0.64499992E+02  0.45201E+06
 0.64549995E+02  0.53567E+06
 0.64599998E+02  0.58404E+06
 0.64649994E+02  0.59441E+06
 0.64699997E+02  0.57688E+06
 0.64749992E+02  0.54382E+06
 0.64799995E+02  0.51131E+06
 0.64849998E+02  0.48397E+06
 0.64899994E+02  0.46072E+06
 0.64949997E+02  0.42978E+06
 0.64999992E+02  0.37953E+06
 0.65049995E+02  0.31141E+06
 0.65099998E+02  0.22759E+06
 0.65149994E+02  0.14792E+06
 0.65199997E+02  0.75632E+05
 0.65249992E+02  0.11845E+05
 0.65299995E+02 -0.33237E+05
 0.65349998E+02 -0.63426E+05
 0.65399994E+02 -0.81430E+05
 0.65449997E+02 -0.10449E+06
 0.65499992E+02 -0.12939E+06
 0.65549995E+02 -0.13409E+06
 0.65599998E+02 -0.12944E+06
 0.65649994E+02 -0.12117E+06
 0.65699997E+02 -0.10640E+06
 0.65749992E+02 -0.10422E+06
 0.65799995E+02 -0.12522E+06
 0.65849998E+02 -0.16037E+06
 0.65899994E+02 -0.20042E+06
 0.65949997E+02 -0.23562E+06
 0.65999992E+02 -0.25594E+06
 0.66049995E+02 -0.25143E+06
 0.66099998E+02 -0.20663E+06
 0.66149994E+02 -0.12944E+06
 0.66199997E+02 -0.41735E+05
 0.66249992E+02  0.37534E+05
 0.66299995E+02  0.88297E+05
 0.66349998E+02  0.11304E+06
 0.66399994E+02  0.11049E+06
 0.66449997E+02  0.76872E+05
 0.66499992E+02  0.30042E+05
 0.66549995E+02 -0.26801E+05
 0.66599998E+02 -0.91150E+05
 0.66649994E+02 -0.13922E+06
 0.66699997E+02 -0.16356E+06
 0.66749992E+02 -0.16418E+06
 0.66799995E+02 -0.13793E+06
 0.66849998E+02 -0.89494E+05
 0.66899994E+02 -0.39359E+05
 0.66949997E+02 -0.17385E+05
 0.66999992E+02 -0.32460E+05
 0.67049995E+02 -0.68830E+05
 0.67099998E+02 -0.10915E+06
 0.67149994E+02 -0.14139E+06
 0.67199997E+02 -0.14965E+06
 0.67249992E+02 -0.13776E+06
 0.67299995E+02 -0.12467E+06
 0.67349998E+02 -0.10487E+06
 0.67399994E+02 -0.72046E+05
 0.67449997E+02 -0.41033E+05
 0.67499992E+02 -0.13236E+05
 0.67549995E+02  0.15006E+05
 0.67599998E+02  0.27545E+05
 0.67649994E+02  0.28392E+05
 0.67699997E+02  0.34212E+05
 0.67749992E+02  0.38764E+05
 0.67799995E+02  0.41571E+05
 0.67849998E+02  0.50612E+05
 0.67899994E+02  0.71823E+05
 0.67949997E+02  0.10063E+06
 0.67999992E+02  0.12248E+06
 0.68049995E+02  0.12522E+06
 0.68099998E+02  0.10897E+06
 0.68149994E+02  0.80651E+05
 0.68199997E+02  0.60103E+05
 0.68249992E+02  0.63965E+05
 0.68299995E+02  0.84982E+05
 0.68349998E+02  0.11109E+06
 0.68399994E+02  0.13052E+06
 0.68449997E+02  0.13530E+06
 0.68499992E+02  0.11700E+06
 0.68549995E+02  0.90474E+05
 0.68599998E+02  0.64938E+05
 0.68649994E+02  0.37494E+05
 0.68699997E+02  0.17737E+05
 0.68749992E+02  0.11711E+05
 0.68799995E+02  0.25626E+05
 0.68849998E+02  0.50819E+05
 0.68899994E+02  0.78987E+05
 0.68949997E+02  0.99827E+05
 0.68999992E+02  0.96366E+05
 0.69049995E+02  0.64426E+05
 0.69099998E+02  0.19734E+05
 0.69149994E+02 -0.25724E+05
 0.69199997E+02 -0.68143E+05
 0.69249992E+02 -0.93756E+05
 0.69299995E+02 -0.10460E+06
 0.69349998E+02 -0.11115E+06
 0.69399994E+02 -0.11961E+06
 0.69449997E+02 -0.12738E+06
 0.69499992E+02 -0.12815E+06
 0.69549995E+02 -0.12603E+06
 0.69599998E+02 -0.12595E+06
 0.69649994E+02 -0.14021E+06
 0.69699997E+02 -0.16283E+06
 0.69749992E+02 -0.17993E+06
 0.69799995E+02 -0.18863E+06
 0.69849998E+02 -0.17353E+06
 0.69899994E+02 -0.13264E+06
 0.69949997E+02 -0.74351E+05
 0.69999992E+02 -0.15082E+05
 0.70049995E+02  0.22088E+05
 0.70099998E+02  0.27414E+05
 0.70149994E+02 -0.37267E+03
 0.70199997E+02 -0.47363E+05
 0.70249992E+02 -0.92722E+05
 0.70299995E+02 -0.13626E+06
 0.70349998E+02 -0.18763E+06
 0.70399994E+02 -0.24597E+06
 0.70449997E+02 -0.31010E+06
 0.70499992E+02 -0.37775E+06
 0.70549995E+02 -0.44068E+06
 0.70599998E+02 -0.48907E+06
 0.70649994E+02 -0.51324E+06
 0.70699997E+02 -0.51340E+06
 0.70749992E+02 -0.49618E+06
 0.70799995E+02 -0.47420E+06
 0.70849998E+02 -0.44819E+06
 0.70899994E+02 -0.40963E+06
 0.70949997E+02 -0.36408E+06
 0.70999992E+02 -0.31514E+06
 0.71049995E+02 -0.25656E+06
 0.71099998E+02 -0.18778E+06
 0.71149994E+02 -0.11298E+06
 0.71199997E+02 -0.28346E+05
 0.71249992E+02  0.69746E+05
 0.71299995E+02  0.17128E+06
 0.71349998E+02  0.26349E+06
 0.71399994E+02  0.34899E+06
 0.71449997E+02  0.42156E+06
 0.71499992E+02  0.46447E+06
 0.71549995E+02  0.47627E+06
 0.71599998E+02  0.46576E+06
 0.71649994E+02  0.43141E+06
 0.71699997E+02  0.37657E+06
 0.71749992E+02  0.30877E+06
 0.71799995E+02  0.23585E+06
 0.71849998E+02  0.16044E+06
 0.71899994E+02  0.85391E+05
 0.71949997E+02  0.29618E+05
 0.71999992E+02 -0.90939E+03
 0.72049995E+02 -0.63112E+04
 0.72099998E+02  0.11851E+05
 0.72149994E+02  0.50626E+05
 0.72199997E+02  0.10177E+06
 0.72249992E+02  0.14162E+06
 0.72299995E+02  0.15621E+06
 0.72349998E+02  0.15131E+06
 0.72399994E+02  0.13375E+06
 0.72449997E+02  0.11357E+06
 0.72499992E+02  0.96354E+05
 0.72549995E+02  0.77085E+05
 0.72599998E+02  0.49399E+05
 0.72649994E+02  0.13427E+05
 0.72699997E+02 -0.24156E+05
 0.72749992E+02 -0.55400E+05
 0.72799995E+02 -0.71641E+05
 0.72849998E+02 -0.67802E+05
 0.72899994E+02 -0.47709E+05
 0.72949997E+02 -0.21241E+05
 0.72999992E+02  0.32387E+04
 0.73049995E+02  0.10455E+05
 0.73099998E+02 -0.59139E+04
 0.73149994E+02 -0.32553E+05
 0.73199997E+02 -0.57825E+05
 0.73249992E+02 -0.78048E+05
 0.73299995E+02 -0.87469E+05
 0.73349998E+02 -0.92181E+05
 0.73399994E+02 -0.10129E+06
 0.73449997E+02 -0.11399E+06
 0.73499992E+02 -0.13587E+06
 0.73549995E+02 -0.16616E+06
 0.73599998E+02 -0.19514E+06
 0.73649994E+02 -0.21665E+06
 0.73699997E+02 -0.22680E+06
 0.73749992E+02 -0.22469E+06
 0.73799995E+02 -0.21265E+06
 0.73849998E+02 -0.19039E+06
 0.73899994E+02 -0.15942E+06
 0.73949997E+02 -0.12039E+06
 0.73999992E+02 -0.77130E+05
 0.74049995E+02 -0.35445E+05
 0.74099998E+02  0.61649E+04
 0.74149994E+02  0.44995E+05
 0.74199997E+02  0.76580E+05
 0.74249992E+02  0.10795E+06
 0.74299995E+02  0.14273E+06
 0.74349998E+02  0.16969E+06
 0.74399994E+02  0.18229E+06
 0.74449997E+02  0.18229E+06
 0.74499992E+02  0.16941E+06
 0.74549995E+02  0.15207E+06
 0.74599998E+02  0.13038E+06
 0.74649994E+02  0.98317E+05
 0.74699997E+02  0.70299E+05
 0.74749992E+02  0.59764E+05
 0.74799995E+02  0.65807E+05
 0.74849998E+02  0.86255E+05
 0.74899994E+02  0.11382E+06
 0.74949997E+02  0.13518E+06
 0.74999992E+02  0.14038E+06
 0.75049995E+02  0.12833E+06
 0.75099998E+02  0.11768E+06
 0.75149994E+02  0.11559E+06
 0.75199997E+02  0.10992E+06
 0.75249992E+02  0.98449E+05
 0.75299995E+02  0.78713E+05
 0.75349998E+02  0.53068E+05
 0.75399994E+02  0.35895E+05
 0.75449997E+02  0.30773E+05
 0.75499992E+02  0.27595E+05
 0.75549995E+02  0.22284E+05
 0.75599998E+02  0.15732E+05
 0.75649994E+02  0.66943E+04
 0.75699997E+02 -0.16894E+04
 0.75749992E+02 -0.96666E+04
 0.75799995E+02 -0.22906E+05
 0.75849998E+02 -0.44687E+05
 0.75899994E+02 -0.72141E+05
 0.75949997E+02 -0.95458E+05
 0.75999992E+02 -0.11107E+06
 0.76049995E+02 -0.11754E+06
 0.76099998E+02 -0.10892E+06
 0.76149994E+02 -0.88365E+05
 0.76199997E+02 -0.65292E+05
 0.76249992E+02 -0.46276E+05
 0.76299995E+02 -0.33730E+05
 0.76349998E+02 -0.24530E+05
 0.76399994E+02 -0.16689E+05
 0.76449997E+02 -0.88428E+04
 0.76499992E+02  0.44898E+04
 0.76549995E+02  0.25644E+05
 0.76599998E+02  0.53578E+05
 0.76649994E+02  0.80702E+05
 0.76699997E+02  0.95080E+05
 0.76749992E+02  0.89222E+05
 0.76799995E+02  0.67889E+05
 0.76849998E+02  0.40353E+05
 0.76899994E+02  0.14098E+05
 0.76949997E+02 -0.11698E+04
 0.76999992E+02 -0.36785E+04
 0.77049995E+02  0.29150E+04
 0.77099998E+02  0.13449E+05
 0.77149994E+02  0.21498E+05
 0.77199997E+02  0.28466E+05
 0.77249992E+02  0.41888E+05
 0.77299995E+02  0.56874E+05
 0.77349998E+02  0.60027E+05
 0.77399994E+02  0.52275E+05
 0.77449997E+02  0.36441E+05
 0.77499992E+02  0.14615E+05
 0.77549995E+02 -0.60042E+04
 0.77599998E+02 -0.28523E+05
 0.77649994E+02 -0.53681E+05
 0.77699997E+02 -0.75608E+05
 0.77749992E+02 -0.89137E+05
 0.77799995E+02 -0.89010E+05
 0.77849998E+02 -0.71223E+05
 0.77899994E+02 -0.42376E+05
 0.77949997E+02 -0.10061E+05
 0.77999992E+02  0.22957E+05
 0.78049995E+02  0.48800E+05
 0.78099998E+02  0.67221E+05
 0.78149994E+02  0.89601E+05
 0.78199997E+02  0.12077E+06
 0.78249992E+02  0.15911E+06
 0.78299995E+02  0.20210E+06
 0.78349998E+02  0.24015E+06
 0.78399994E+02  0.26783E+06
 0.78449997E+02  0.27991E+06
 0.78499992E+02  0.26759E+06
 0.78549995E+02  0.23082E+06
 0.78599998E+02  0.18343E+06
 0.78649994E+02  0.14110E+06
 0.78699997E+02  0.10373E+06
 0.78749992E+02  0.65587E+05
 0.78799995E+02  0.29171E+05
 0.78849998E+02 -0.17420E+04
 0.78899994E+02 -0.19761E+05
 0.78949997E+02 -0.20100E+05
 0.78999992E+02 -0.95267E+04
 0.79049995E+02  0.62289E+04
 0.79099998E+02  0.19019E+05
 0.79149994E+02  0.24150E+05
 0.79199997E+02  0.24050E+05
 0.79249992E+02  0.15545E+05
 0.79299995E+02 -0.69754E+04
 0.79349998E+02 -0.39141E+05
 0.79399994E+02 -0.72442E+05
 0.79449997E+02 -0.11123E+06
 0.79499992E+02 -0.15210E+06
 0.79549995E+02 -0.18413E+06
 0.79599998E+02 -0.20895E+06
 0.79649994E+02 -0.22842E+06
 0.79699997E+02 -0.23905E+06
 0.79749992E+02 -0.24081E+06
 0.79799995E+02 -0.23156E+06
 0.79849998E+02 -0.21198E+06
 0.79899994E+02 -0.19178E+06
 0.79949997E+02 -0.17428E+06
 0.79999992E+02 -0.15357E+06
 0.80049995E+02 -0.13041E+06
 0.80099998E+02 -0.11139E+06
 0.80149994E+02 -0.97336E+05
 0.80199997E+02 -0.81337E+05
 0.80249992E+02 -0.51046E+05
 0.80299995E+02 -0.35295E+04
 0.80349998E+02  0.53724E+05
 0.80399994E+02  0.10491E+06
 0.80449997E+02  0.13864E+06
 0.80499992E+02  0.15644E+06
 0.80549995E+02  0.15782E+06
 0.80599998E+02  0.14206E+06
 0.80649994E+02  0.11536E+06
 0.80699997E+02  0.82100E+05
 0.80749992E+02  0.43613E+05
 0.80799995E+02  0.23916E+04
 0.80849998E+02 -0.37446E+05
 0.80899994E+02 -0.67618E+05
 0.80949997E+02 -0.86530E+05
 0.80999992E+02 -0.10230E+06
 0.81049995E+02 -0.11900E+06
 0.81099998E+02 -0.13654E+06
 0.81149994E+02 -0.16124E+06
 0.81199997E+02 -0.19291E+06
 0.81249992E+02 -0.22092E+06
 0.81299995E+02 -0.23884E+06
 0.81349998E+02 -0.24170E+06
 0.81399994E+02 -0.22544E+06
 0.81449997E+02 -0.19955E+06
 0.81499992E+02 -0.18284E+06
 0.81549995E+02 -0.18006E+06
 0.81599998E+02 -0.18294E+06
 0.81649994E+02 -0.18816E+06
 0.81699997E+02 -0.18793E+06
 0.81749992E+02 -0.17217E+06
 0.81799995E+02 -0.14308E+06
 0.81849998E+02 -0.10643E+06
 0.81899994E+02 -0.65857E+05
 0.81949997E+02 -0.26102E+05
 0.81999992E+02  0.86080E+04
 0.82049995E+02  0.44054E+05
 0.82099998E+02  0.77001E+05
 0.82149994E+02  0.10301E+06
 0.82199997E+02  0.12583E+06
 0.82249992E+02  0.14401E+06
 0.82299995E+02  0.15882E+06
 0.82349998E+02  0.17518E+06
 0.82399994E+02  0.19342E+06
 0.82449997E+02  0.20745E+06
 0.82499992E+02  0.21487E+06
 0.82549995E+02  0.21453E+06
 0.82599998E+02  0.21010E+06
 0.82649994E+02  0.19907E+06
 0.82699997E+02  0.17829E+06
 0.82749992E+02  0.15378E+06
 0.82799995E+02  0.12485E+06
 0.82849998E+02  0.89227E+05
 0.82899994E+02  0.48912E+05
 0.82949997E+02  0.66380E+04
 0.82999992E+02 -0.34812E+05
 0.83049995E+02 -0.72337E+05
 0.83099998E+02 -0.10366E+06
 0.83149994E+02 -0.12789E+06
 0.83199997E+02 -0.14841E+06
 0.83249992E+02 -0.16379E+06
 0.83299995E+02 -0.16897E+06
 0.83349998E+02 -0.16153E+06
 0.83399994E+02 -0.14234E+06
 0.83449997E+02 -0.11422E+06
 0.83499992E+02 -0.77398E+05
 0.83549995E+02 -0.36279E+05
 0.83599998E+02  0.12804E+03
 0.83649994E+02  0.22723E+05
 0.83699997E+02  0.24431E+05
 0.83749992E+02  0.14892E+04
 0.83799995E+02 -0.38106E+05
 0.83849998E+02 -0.77153E+05
 0.83899994E+02 -0.99230E+05
 0.83949997E+02 -0.96772E+05
 0.83999992E+02 -0.73816E+05
 0.84049995E+02 -0.40995E+05
 0.84099998E+02 -0.10713E+05
 0.84149994E+02  0.12204E+05
 0.84199997E+02  0.29071E+05
 0.84249992E+02  0.40887E+05
 0.84299995E+02  0.43823E+05
 0.84349998E+02  0.37070E+05
 0.84399994E+02  0.25959E+05
 0.84449997E+02  0.12577E+05
 0.84499992E+02  0.31235E+04
 0.84549995E+02  0.88516E+04
 0.84599998E+02  0.28582E+05
 0.84649994E+02  0.53484E+05
 0.84699997E+02  0.79611E+05
 0.84749992E+02  0.99440E+05
 0.84799995E+02  0.10758E+06
 0.84849998E+02  0.11192E+06
 0.84899994E+02  0.11747E+06
 0.84949997E+02  0.11861E+06
 0.84999992E+02  0.11752E+06
 0.85049995E+02  0.12029E+06
 0.85099998E+02  0.12459E+06
 0.85149994E+02  0.12852E+06
 0.85199997E+02  0.12843E+06
 0.85249992E+02  0.12161E+06
 0.85299995E+02  0.10655E+06
 0.85349998E+02  0.79122E+05
 0.85399994E+02  0.39933E+05
 0.85449997E+02 -0.14404E+04
 0.85499992E+02 -0.32141E+05
 0.85549995E+02 -0.45350E+05
 0.85599998E+02 -0.41650E+05
 0.85649994E+02 -0.24583E+05
 0.85699997E+02  0.11862E+04
 0.85749992E+02  0.28327E+05
 0.85799995E+02  0.55081E+05
 0.85849998E+02  0.83745E+05
 0.85899994E+02  0.11286E+06
 0.85949997E+02  0.13285E+06
 0.85999992E+02  0.13901E+06
 0.86049995E+02  0.13449E+06
 0.86099998E+02  0.12624E+06
 0.86149994E+02  0.11834E+06
 0.86199997E+02  0.10407E+06
 0.86249992E+02  0.76447E+05
 0.86299995E+02  0.35838E+05
 0.86349998E+02 -0.47625E+04
 0.86399994E+02 -0.35142E+05
 0.86449997E+02 -0.53123E+05
 0.86499992E+02 -0.59289E+05
 0.86549995E+02 -0.52888E+05
 0.86599998E+02 -0.40936E+05
 0.86649994E+02 -0.32229E+05
 0.86699997E+02 -0.28717E+05
 0.86749992E+02 -0.31040E+05
 0.86799995E+02 -0.40127E+05
 0.86849998E+02 -0.57449E+05
 0.86899994E+02 -0.74492E+05
 0.86949997E+02 -0.81783E+05
 0.86999992E+02 -0.80691E+05
 0.87049995E+02 -0.77919E+05
 0.87099998E+02 -0.75467E+05
 0.87149994E+02 -0.75017E+05
 0.87199997E+02 -0.79421E+05
 0.87249992E+02 -0.88098E+05
 0.87299995E+02 -0.96717E+05
 0.87349998E+02 -0.10245E+06
 0.87399994E+02 -0.10504E+06
 0.87449997E+02 -0.99702E+05
 0.87499992E+02 -0.85289E+05
 0.87549995E+02 -0.63913E+05
 0.87599991E+02 -0.39996E+05
 0.87649994E+02 -0.17348E+05
 0.87699997E+02  0.36061E+04
 0.87749992E+02  0.17343E+05
 0.87799995E+02  0.20491E+05
 0.87849991E+02  0.14537E+05
 0.87899994E+02  0.34963E+04
 0.87949997E+02 -0.63919E+04
 0.87999992E+02 -0.11083E+05
 0.88049995E+02 -0.89408E+04
 0.88099991E+02  0.35945E+04
 0.88149994E+02  0.27602E+05
 0.88199997E+02  0.57698E+05
 0.88249992E+02  0.87461E+05
 0.88299995E+02  0.11208E+06
 0.88349991E+02  0.12902E+06
 0.88399994E+02  0.13506E+06
 0.88449997E+02  0.13004E+06
 0.88499992E+02  0.11754E+06
 0.88549995E+02  0.98083E+05
 0.88599991E+02  0.71960E+05
 0.88649994E+02  0.39101E+05
 0.88699997E+02  0.13207E+04
 0.88749992E+02 -0.36685E+05
 0.88799995E+02 -0.68617E+05
 0.88849991E+02 -0.87310E+05
 0.88899994E+02 -0.89265E+05
 0.88949997E+02 -0.75698E+05
 0.88999992E+02 -0.50037E+05
 0.89049995E+02 -0.14954E+05
 0.89099991E+02  0.29334E+05
 0.89149994E+02  0.74928E+05
 0.89199997E+02  0.10835E+06
 0.89249992E+02  0.12195E+06
 0.89299995E+02  0.11455E+06
 0.89349991E+02  0.91773E+05
 0.89399994E+02  0.60228E+05
 0.89449997E+02  0.28647E+05
 0.89499992E+02 -0.29731E+04
 0.89549995E+02 -0.37787E+05
 0.89599991E+02 -0.67825E+05
 0.89649994E+02 -0.93267E+05
 0.89699997E+02 -0.12006E+06
 0.89749992E+02 -0.14678E+06
 0.89799995E+02 -0.17214E+06
 0.89849991E+02 -0.19430E+06
 0.89899994E+02 -0.21085E+06
 0.89949997E+02 -0.22179E+06
 0.89999992E+02 -0.22909E+06
 0.90049995E+02 -0.23762E+06
 0.90099991E+02 -0.24687E+06
 0.90149994E+02 -0.25363E+06
 0.90199997E+02 -0.25523E+06
 0.90249992E+02 -0.24910E+06
 0.90299995E+02 -0.23440E+06
 0.90349991E+02 -0.21324E+06
 0.90399994E+02 -0.18875E+06
 0.90449997E+02 -0.16323E+06
 0.90499992E+02 -0.14221E+06
 0.90549995E+02 -0.12866E+06
 0.90599991E+02 -0.11882E+06
 0.90649994E+02 -0.10740E+06
 0.90699997E+02 -0.95037E+05
 0.90749992E+02 -0.82655E+05
 0.90799995E+02 -0.70152E+05
 0.90849991E+02 -0.60921E+05
 0.90899994E+02 -0.57379E+05
 0.90949997E+02 -0.55618E+05
 0.90999992E+02 -0.52989E+05
 0.91049995E+02 -0.51554E+05
 0.91099991E+02 -0.49562E+05
 0.91149994E+02 -0.47528E+05
 0.91199997E+02 -0.50141E+05
 0.91249992E+02 -0.56028E+05
 0.91299995E+02 -0.58102E+05
 0.91349991E+02 -0.54177E+05
 0.91399994E+02 -0.42665E+05
 0.91449997E+02 -0.22292E+05
 0.91499992E+02  0.31606E+04
 0.91549995E+02  0.25644E+05
 0.91599991E+02  0.39660E+05
 0.91649994E+02  0.45138E+05
 0.91699997E+02  0.44520E+05
 0.91749992E+02  0.43075E+05
 0.91799995E+02  0.44207E+05
 0.91849991E+02  0.49871E+05
 0.91899994E+02  0.59157E+05
 0.91949997E+02  0.67748E+05
 0.91999992E+02  0.71665E+05
 0.92049995E+02  0.70733E+05
 0.92099991E+02  0.65429E+05
 0.92149994E+02  0.56277E+05
 0.92199997E+02  0.46517E+05
 0.92249992E+02  0.39204E+05
 0.92299995E+02  0.36349E+05
 0.92349991E+02  0.37706E+05
 0.92399994E+02  0.40620E+05
 0.92449997E+02  0.42144E+05
 0.92499992E+02  0.40534E+05
 0.92549995E+02  0.35768E+05
 0.92599991E+02  0.28532E+05
 0.92649994E+02  0.19719E+05
 0.92699997E+02  0.12037E+05
 0.92749992E+02  0.96743E+04
 0.92799995E+02  0.15970E+05
 0.92849991E+02  0.34351E+05
 0.92899994E+02  0.64611E+05
 0.92949997E+02  0.10006E+06
 0.92999992E+02  0.13431E+06
 0.93049995E+02  0.16222E+06
 0.93099991E+02  0.17808E+06
 0.93149994E+02  0.17911E+06
 0.93199997E+02  0.16690E+06
 0.93249992E+02  0.14731E+06
 0.93299995E+02  0.12428E+06
 0.93349991E+02  0.10220E+06
 0.93399994E+02  0.88044E+05
 0.93449997E+02  0.82193E+05
 0.93499992E+02  0.80367E+05
 0.93549995E+02  0.79147E+05
 0.93599991E+02  0.75850E+05
 0.93649994E+02  0.69811E+05
 0.93699997E+02  0.62673E+05
 0.93749992E+02  0.56705E+05
 0.93799995E+02  0.54349E+05
 0.93849991E+02  0.56446E+05
 0.93899994E+02  0.60107E+05
 0.93949997E+02  0.59822E+05
 0.93999992E+02  0.53890E+05
 0.94049995E+02  0.42162E+05
 0.94099991E+02  0.25768E+05
 0.94149994E+02  0.99802E+04
 0.94199997E+02 -0.60679E+02
 0.94249992E+02 -0.28560E+04
 0.94299995E+02 -0.15603E+04
 0.94349991E+02  0.17366E+04
 0.94399994E+02  0.47226E+04
 0.94449997E+02  0.54978E+04
 0.94499992E+02  0.72175E+04
 0.94549995E+02  0.14071E+05
 0.94599991E+02  0.27868E+05
 0.94649994E+02  0.46481E+05
 0.94699997E+02  0.67858E+05
 0.94749992E+02  0.89155E+05
 0.94799995E+02  0.10734E+06
 0.94849991E+02  0.12203E+06
 0.94899994E+02  0.13235E+06
 0.94949997E+02  0.13705E+06
 0.94999992E+02  0.13712E+06
 0.95049995E+02  0.13504E+06
 0.95099991E+02  0.13000E+06
 0.95149994E+02  0.12087E+06
 0.95199997E+02  0.10930E+06
 0.95249992E+02  0.98376E+05
 0.95299995E+02  0.91879E+05
 0.95349991E+02  0.94102E+05
 0.95399994E+02  0.10468E+06
 0.95449997E+02  0.11844E+06
 0.95499992E+02  0.13154E+06
 0.95549995E+02  0.14130E+06
 0.95599991E+02  0.14662E+06
 0.95649994E+02  0.14857E+06
 0.95699997E+02  0.15249E+06
 0.95749992E+02  0.16154E+06
 0.95799995E+02  0.17201E+06
 0.95849991E+02  0.17727E+06
 0.95899994E+02  0.17065E+06
 0.95949997E+02  0.14968E+06
 0.95999992E+02  0.11388E+06
 0.96049995E+02  0.66864E+05
 0.96099991E+02  0.17866E+05
 0.96149994E+02 -0.28834E+05
 0.96199997E+02 -0.73807E+05
 0.96249992E+02 -0.11766E+06
 0.96299995E+02 -0.15953E+06
 0.96349991E+02 -0.19639E+06
 0.96399994E+02 -0.22642E+06
 0.96449997E+02 -0.24830E+06
 0.96499992E+02 -0.26455E+06
 0.96549995E+02 -0.27814E+06
 0.96599991E+02 -0.28810E+06
 0.96649994E+02 -0.29174E+06
 0.96699997E+02 -0.28869E+06
 0.96749992E+02 -0.28039E+06
 0.96799995E+02 -0.26683E+06
 0.96849991E+02 -0.24890E+06
 0.96899994E+02 -0.22414E+06
 0.96949997E+02 -0.19146E+06
 0.96999992E+02 -0.15452E+06
 0.97049995E+02 -0.11617E+06
 0.97099991E+02 -0.77053E+05
 0.97149994E+02 -0.36081E+05
 0.97199997E+02  0.59767E+04
 0.97249992E+02  0.44467E+05
 0.97299995E+02  0.76200E+05
 0.97349991E+02  0.10291E+06
 0.97399994E+02  0.12731E+06
 0.97449997E+02  0.15024E+06
 0.97499992E+02  0.17284E+06
 0.97549995E+02  0.19272E+06
 0.97599991E+02  0.20370E+06
 0.97649994E+02  0.20265E+06
 0.97699997E+02  0.18834E+06
 0.97749992E+02  0.16439E+06
 0.97799995E+02  0.13543E+06
 0.97849991E+02  0.10376E+06
 0.97899994E+02  0.75598E+05
 0.97949997E+02  0.55329E+05
 0.97999992E+02  0.43469E+05
