-0.20000000E+01  0.27409E+05
-0.19500000E+01  0.29207E+05
-0.19000000E+01  0.28182E+05
-0.18500000E+01  0.25346E+05
-0.18000000E+01  0.20721E+05
-0.17500000E+01  0.14866E+05
-0.17000000E+01  0.79618E+04
-0.16500001E+01  0.40784E+03
-0.16000000E+01 -0.71285E+04
-0.15500000E+01 -0.14276E+05
-0.15000000E+01 -0.20730E+05
-0.14500000E+01 -0.26108E+05
-0.14000001E+01 -0.30366E+05
-0.13500000E+01 -0.33524E+05
-0.13000001E+01 -0.35363E+05
-0.12500000E+01 -0.35993E+05
-0.12000000E+01 -0.35547E+05
-0.11500001E+01 -0.33616E+05
-0.11000000E+01 -0.30222E+05
-0.10500001E+01 -0.25682E+05
-0.10000000E+01 -0.20343E+05
-0.95000005E+00 -0.14426E+05
-0.90000010E+00 -0.78416E+04
-0.85000002E+00 -0.87710E+03
-0.80000007E+00  0.59923E+04
-0.75000012E+00  0.12503E+05
-0.70000005E+00  0.18524E+05
-0.65000010E+00  0.23605E+05
-0.60000014E+00  0.27525E+05
-0.55000007E+00  0.30061E+05
-0.50000012E+00  0.30445E+05
-0.45000005E+00  0.28618E+05
-0.40000010E+00  0.25065E+05
-0.35000014E+00  0.20191E+05
-0.30000007E+00  0.14311E+05
-0.25000012E+00  0.77429E+04
-0.20000005E+00  0.64196E+03
-0.15000010E+00 -0.67490E+04
-0.10000014E+00 -0.14017E+05
-0.50000072E-01 -0.20532E+05
-0.11920929E-06 -0.25596E+05
 0.49999952E-01 -0.28888E+05
 0.99999905E-01 -0.30380E+05
 0.14999986E+00 -0.30460E+05
 0.19999981E+00 -0.29408E+05
 0.24999976E+00 -0.27686E+05
 0.29999995E+00 -0.25762E+05
 0.34999990E+00 -0.23951E+05
 0.39999986E+00 -0.22373E+05
 0.44999981E+00 -0.21117E+05
 0.49999976E+00 -0.20165E+05
 0.54999995E+00 -0.19245E+05
 0.59999990E+00 -0.18368E+05
 0.64999986E+00 -0.17880E+05
 0.69999981E+00 -0.17814E+05
 0.74999976E+00 -0.17982E+05
 0.79999971E+00 -0.18247E+05
 0.84999990E+00 -0.18513E+05
 0.89999986E+00 -0.18719E+05
 0.94999981E+00 -0.18363E+05
 0.99999976E+00 -0.17057E+05
 0.10499997E+01 -0.14850E+05
 0.10999999E+01 -0.12049E+05
 0.11499999E+01 -0.87365E+04
 0.11999998E+01 -0.47899E+04
 0.12499998E+01 -0.46261E+03
 0.12999997E+01  0.38840E+04
 0.13499999E+01  0.80274E+04
 0.13999999E+01  0.11957E+05
 0.14499998E+01  0.15907E+05
 0.14999998E+01  0.19680E+05
 0.15499997E+01  0.23003E+05
 0.15999999E+01  0.25942E+05
 0.16499999E+01  0.28690E+05
 0.16999998E+01  0.31273E+05
 0.17499998E+01  0.34075E+05
 0.17999997E+01  0.37637E+05
 0.18499997E+01  0.41796E+05
 0.18999999E+01  0.46275E+05
 0.19499998E+01  0.50867E+05
 0.19999998E+01  0.55365E+05
 0.20499997E+01  0.59784E+05
 0.20999999E+01  0.64382E+05
 0.21499996E+01  0.69085E+05
 0.21999998E+01  0.73654E+05
 0.22499995E+01  0.77708E+05
 0.22999997E+01  0.80842E+05
 0.23499999E+01  0.83032E+05
 0.23999996E+01  0.84197E+05
 0.24499998E+01  0.84081E+05
 0.24999995E+01  0.82581E+05
 0.25499997E+01  0.80263E+05
 0.25999999E+01  0.77431E+05
 0.26499996E+01  0.73923E+05
 0.26999998E+01  0.69795E+05
 0.27499995E+01  0.65214E+05
 0.27999997E+01  0.60393E+05
 0.28499999E+01  0.55290E+05
 0.28999996E+01  0.49734E+05
 0.29499998E+01  0.43964E+05
 0.29999995E+01  0.38244E+05
 0.30499997E+01  0.32406E+05
 0.30999999E+01  0.26083E+05
 0.31499996E+01  0.19295E+05
 0.31999998E+01  0.12411E+05
 0.32499995E+01  0.59389E+04
 0.32999997E+01  0.18819E+02
 0.33499999E+01 -0.57113E+04
 0.33999996E+01 -0.11487E+05
 0.34499998E+01 -0.17301E+05
 0.34999995E+01 -0.23160E+05
 0.35499997E+01 -0.29230E+05
 0.35999994E+01 -0.35474E+05
 0.36499996E+01 -0.41704E+05
 0.36999998E+01 -0.47623E+05
 0.37499995E+01 -0.52832E+05
 0.37999997E+01 -0.57303E+05
 0.38499994E+01 -0.61407E+05
 0.38999996E+01 -0.65109E+05
 0.39499998E+01 -0.68090E+05
 0.39999995E+01 -0.70442E+05
 0.40499997E+01 -0.72317E+05
 0.40999994E+01 -0.73615E+05
 0.41499996E+01 -0.74265E+05
 0.41999998E+01 -0.74087E+05
 0.42499995E+01 -0.73023E+05
 0.42999997E+01 -0.70969E+05
 0.43499994E+01 -0.67910E+05
 0.43999996E+01 -0.63939E+05
 0.44499998E+01 -0.59290E+05
 0.44999995E+01 -0.54130E+05
 0.45499997E+01 -0.48124E+05
 0.45999994E+01 -0.41527E+05
 0.46499996E+01 -0.34676E+05
 0.46999998E+01 -0.27867E+05
 0.47499995E+01 -0.21390E+05
 0.47999997E+01 -0.15123E+05
 0.48499994E+01 -0.89328E+04
 0.48999996E+01 -0.30114E+04
 0.49499998E+01  0.21542E+04
 0.49999995E+01  0.63873E+04
 0.50499997E+01  0.98525E+04
 0.50999994E+01  0.12540E+05
 0.51499996E+01  0.14779E+05
 0.51999998E+01  0.16940E+05
 0.52499995E+01  0.19172E+05
 0.52999997E+01  0.21674E+05
 0.53499994E+01  0.24449E+05
 0.53999996E+01  0.27099E+05
 0.54499993E+01  0.29361E+05
 0.54999995E+01  0.31347E+05
 0.55499997E+01  0.33295E+05
 0.55999994E+01  0.35214E+05
 0.56499996E+01  0.36596E+05
 0.56999993E+01  0.37123E+05
 0.57499995E+01  0.36821E+05
 0.57999997E+01  0.36004E+05
 0.58499994E+01  0.35061E+05
 0.58999996E+01  0.34886E+05
 0.59499993E+01  0.35825E+05
 0.59999995E+01  0.37897E+05
 0.60499992E+01  0.41021E+05
 0.60999994E+01  0.44836E+05
 0.61499996E+01  0.48808E+05
 0.61999998E+01  0.52397E+05
 0.62499990E+01  0.55283E+05
 0.62999992E+01  0.57202E+05
 0.63499994E+01  0.58415E+05
 0.63999996E+01  0.58818E+05
 0.64499998E+01  0.58137E+05
 0.64999990E+01  0.56425E+05
 0.65499992E+01  0.53683E+05
 0.65999994E+01  0.49867E+05
 0.66499996E+01  0.45086E+05
 0.66999998E+01  0.39401E+05
 0.67499990E+01  0.32373E+05
 0.67999992E+01  0.23935E+05
 0.68499994E+01  0.14694E+05
 0.68999996E+01  0.50733E+04
 0.69499998E+01 -0.43768E+04
 0.69999990E+01 -0.13212E+05
 0.70499992E+01 -0.21365E+05
 0.70999994E+01 -0.28970E+05
 0.71499996E+01 -0.36236E+05
 0.71999998E+01 -0.43009E+05
 0.72499990E+01 -0.48988E+05
 0.72999992E+01 -0.53861E+05
 0.73499994E+01 -0.57272E+05
 0.73999996E+01 -0.59164E+05
 0.74499998E+01 -0.60024E+05
 0.74999990E+01 -0.60208E+05
 0.75499992E+01 -0.59601E+05
 0.75999994E+01 -0.58246E+05
 0.76499996E+01 -0.56322E+05
 0.76999998E+01 -0.53862E+05
 0.77499990E+01 -0.50921E+05
 0.77999992E+01 -0.47943E+05
 0.78499994E+01 -0.45386E+05
 0.78999996E+01 -0.43737E+05
 0.79499998E+01 -0.43525E+05
 0.79999990E+01 -0.44867E+05
 0.80499992E+01 -0.47547E+05
 0.80999994E+01 -0.51460E+05
 0.81499996E+01 -0.56392E+05
 0.81999998E+01 -0.61878E+05
 0.82499990E+01 -0.67660E+05
 0.82999992E+01 -0.73198E+05
 0.83499994E+01 -0.77954E+05
 0.83999996E+01 -0.81681E+05
 0.84499998E+01 -0.84153E+05
 0.84999990E+01 -0.85010E+05
 0.85499992E+01 -0.84178E+05
 0.85999994E+01 -0.81754E+05
 0.86499996E+01 -0.77921E+05
 0.86999998E+01 -0.72915E+05
 0.87499990E+01 -0.66675E+05
 0.87999992E+01 -0.59457E+05
 0.88499994E+01 -0.51439E+05
 0.88999996E+01 -0.42609E+05
 0.89499998E+01 -0.33213E+05
 0.89999990E+01 -0.23905E+05
 0.90499992E+01 -0.14955E+05
 0.90999994E+01 -0.65520E+04
 0.91499996E+01  0.10292E+04
 0.91999989E+01  0.76705E+04
 0.92499990E+01  0.13262E+05
 0.92999992E+01  0.17826E+05
 0.93499994E+01  0.21477E+05
 0.93999996E+01  0.24708E+05
 0.94499989E+01  0.27888E+05
 0.94999990E+01  0.31326E+05
 0.95499992E+01  0.35433E+05
 0.95999994E+01  0.40339E+05
 0.96499996E+01  0.45834E+05
 0.96999989E+01  0.51597E+05
 0.97499990E+01  0.57023E+05
 0.97999992E+01  0.61802E+05
 0.98499994E+01  0.66318E+05
 0.98999996E+01  0.70555E+05
 0.99499989E+01  0.74359E+05
 0.99999990E+01  0.77762E+05
 0.10049999E+02  0.80707E+05
 0.10099999E+02  0.83056E+05
 0.10150000E+02  0.84724E+05
 0.10199999E+02  0.85403E+05
 0.10249999E+02  0.84720E+05
 0.10299999E+02  0.82717E+05
 0.10349999E+02  0.79344E+05
 0.10400000E+02  0.74792E+05
 0.10449999E+02  0.69436E+05
 0.10499999E+02  0.63064E+05
 0.10549999E+02  0.55778E+05
 0.10599999E+02  0.48000E+05
 0.10650000E+02  0.40208E+05
 0.10699999E+02  0.33024E+05
 0.10749999E+02  0.26917E+05
 0.10799999E+02  0.22119E+05
 0.10849999E+02  0.18627E+05
 0.10900000E+02  0.16547E+05
 0.10949999E+02  0.15598E+05
 0.10999999E+02  0.15415E+05
 0.11049999E+02  0.15959E+05
 0.11099999E+02  0.17091E+05
 0.11150000E+02  0.18716E+05
 0.11199999E+02  0.20993E+05
 0.11249999E+02  0.24036E+05
 0.11299999E+02  0.27796E+05
 0.11349999E+02  0.32123E+05
 0.11400000E+02  0.36235E+05
 0.11449999E+02  0.39199E+05
 0.11499999E+02  0.40657E+05
 0.11549999E+02  0.40355E+05
 0.11599999E+02  0.37657E+05
 0.11650000E+02  0.32479E+05
 0.11699999E+02  0.25081E+05
 0.11749999E+02  0.15620E+05
 0.11799999E+02  0.47230E+04
 0.11849999E+02 -0.70180E+04
 0.11900000E+02 -0.19097E+05
 0.11949999E+02 -0.31078E+05
 0.11999999E+02 -0.42657E+05
 0.12049999E+02 -0.53725E+05
 0.12099999E+02 -0.64157E+05
 0.12150000E+02 -0.73896E+05
 0.12199999E+02 -0.82424E+05
 0.12249999E+02 -0.89245E+05
 0.12299999E+02 -0.94372E+05
 0.12349999E+02 -0.97867E+05
 0.12400000E+02 -0.99668E+05
 0.12449999E+02 -0.99645E+05
 0.12499999E+02 -0.97821E+05
 0.12549999E+02 -0.94232E+05
 0.12599999E+02 -0.89307E+05
 0.12649999E+02 -0.83560E+05
 0.12699999E+02 -0.77112E+05
 0.12749999E+02 -0.69920E+05
 0.12799999E+02 -0.62100E+05
 0.12849999E+02 -0.53630E+05
 0.12899999E+02 -0.44586E+05
 0.12949999E+02 -0.35521E+05
 0.12999999E+02 -0.26786E+05
 0.13049999E+02 -0.18811E+05
 0.13099999E+02 -0.12031E+05
 0.13149999E+02 -0.66762E+04
 0.13199999E+02 -0.29396E+04
 0.13249999E+02 -0.77919E+03
 0.13299999E+02  0.44284E+02
 0.13349999E+02 -0.29043E+03
 0.13399999E+02 -0.16677E+04
 0.13449999E+02 -0.38405E+04
 0.13499999E+02 -0.65297E+04
 0.13549999E+02 -0.93416E+04
 0.13599999E+02 -0.11678E+05
 0.13649999E+02 -0.12735E+05
 0.13699999E+02 -0.12171E+05
 0.13749999E+02 -0.10060E+05
 0.13799999E+02 -0.66882E+04
 0.13849999E+02 -0.21318E+04
 0.13899999E+02  0.34654E+04
 0.13949999E+02  0.10181E+05
 0.13999999E+02  0.18281E+05
 0.14049999E+02  0.27611E+05
 0.14099998E+02  0.37633E+05
 0.14150000E+02  0.47673E+05
 0.14199999E+02  0.57339E+05
 0.14249998E+02  0.66499E+05
 0.14299999E+02  0.75433E+05
 0.14349998E+02  0.84207E+05
 0.14400000E+02  0.92681E+05
 0.14449999E+02  0.10028E+06
 0.14499998E+02  0.10668E+06
 0.14549999E+02  0.11162E+06
 0.14599998E+02  0.11484E+06
 0.14650000E+02  0.11615E+06
 0.14699999E+02  0.11501E+06
 0.14749998E+02  0.11103E+06
 0.14799999E+02  0.10437E+06
 0.14849998E+02  0.95593E+05
 0.14900000E+02  0.85086E+05
 0.14949999E+02  0.73137E+05
 0.14999998E+02  0.60131E+05
 0.15049999E+02  0.46625E+05
 0.15099998E+02  0.33128E+05
 0.15150000E+02  0.19979E+05
 0.15199999E+02  0.71110E+04
 0.15249998E+02 -0.53807E+04
 0.15299999E+02 -0.17208E+05
 0.15349998E+02 -0.28305E+05
 0.15400000E+02 -0.38602E+05
 0.15449999E+02 -0.47831E+05
 0.15499998E+02 -0.55467E+05
 0.15549999E+02 -0.61521E+05
 0.15599998E+02 -0.66040E+05
 0.15650000E+02 -0.69234E+05
 0.15699999E+02 -0.71375E+05
 0.15749998E+02 -0.72719E+05
 0.15799999E+02 -0.73013E+05
 0.15849998E+02 -0.72011E+05
 0.15900000E+02 -0.69964E+05
 0.15949999E+02 -0.66967E+05
 0.15999998E+02 -0.63304E+05
 0.16049999E+02 -0.59066E+05
 0.16099998E+02 -0.54333E+05
 0.16150000E+02 -0.49463E+05
 0.16199999E+02 -0.44925E+05
 0.16249998E+02 -0.40936E+05
 0.16299999E+02 -0.37557E+05
 0.16349998E+02 -0.34592E+05
 0.16400000E+02 -0.31569E+05
 0.16449999E+02 -0.28101E+05
 0.16499998E+02 -0.24258E+05
 0.16549999E+02 -0.20510E+05
 0.16599998E+02 -0.17109E+05
 0.16650000E+02 -0.13852E+05
 0.16699999E+02 -0.10885E+05
 0.16749998E+02 -0.85882E+04
 0.16799999E+02 -0.70213E+04
 0.16849998E+02 -0.60965E+04
 0.16900000E+02 -0.55458E+04
 0.16949999E+02 -0.51830E+04
 0.16999998E+02 -0.48946E+04
 0.17049999E+02 -0.44629E+04
 0.17099998E+02 -0.37199E+04
 0.17150000E+02 -0.26292E+04
 0.17199999E+02 -0.12919E+04
 0.17249998E+02  0.59495E+03
 0.17299999E+02  0.32831E+04
 0.17349998E+02  0.67707E+04
 0.17400000E+02  0.11289E+05
 0.17449999E+02  0.16459E+05
 0.17499998E+02  0.21584E+05
 0.17549999E+02  0.26146E+05
 0.17599998E+02  0.29853E+05
 0.17650000E+02  0.32577E+05
 0.17699999E+02  0.34395E+05
 0.17749998E+02  0.35738E+05
 0.17799999E+02  0.36553E+05
 0.17849998E+02  0.36838E+05
 0.17900000E+02  0.36680E+05
 0.17949999E+02  0.36046E+05
 0.17999998E+02  0.34869E+05
 0.18049999E+02  0.33169E+05
 0.18099998E+02  0.31262E+05
 0.18150000E+02  0.29447E+05
 0.18199999E+02  0.28097E+05
 0.18249998E+02  0.27237E+05
 0.18299999E+02  0.26800E+05
 0.18349998E+02  0.26372E+05
 0.18400000E+02  0.25460E+05
 0.18449999E+02  0.24151E+05
 0.18499998E+02  0.22540E+05
 0.18549999E+02  0.20572E+05
 0.18599998E+02  0.18145E+05
 0.18650000E+02  0.15480E+05
 0.18699999E+02  0.12712E+05
 0.18749998E+02  0.10003E+05
 0.18799999E+02  0.74243E+04
 0.18849998E+02  0.50209E+04
 0.18900000E+02  0.29995E+04
 0.18949999E+02  0.12213E+04
 0.18999998E+02 -0.23499E+03
 0.19049999E+02 -0.11892E+04
 0.19099998E+02 -0.16977E+04
 0.19150000E+02 -0.21006E+04
 0.19199999E+02 -0.23269E+04
 0.19249998E+02 -0.23728E+04
 0.19299999E+02 -0.26006E+04
 0.19349998E+02 -0.29059E+04
 0.19400000E+02 -0.33179E+04
 0.19449999E+02 -0.40927E+04
 0.19499998E+02 -0.53212E+04
 0.19549999E+02 -0.69415E+04
 0.19599998E+02 -0.88382E+04
 0.19650000E+02 -0.10813E+05
 0.19699999E+02 -0.12617E+05
 0.19749998E+02 -0.14226E+05
 0.19799999E+02 -0.15719E+05
 0.19849998E+02 -0.17225E+05
 0.19900000E+02 -0.18899E+05
 0.19949999E+02 -0.20746E+05
 0.19999998E+02 -0.22685E+05
 0.20049999E+02 -0.24472E+05
 0.20099998E+02 -0.26026E+05
 0.20150000E+02 -0.27417E+05
 0.20199999E+02 -0.28675E+05
 0.20249998E+02 -0.29812E+05
 0.20299999E+02 -0.30807E+05
 0.20349998E+02 -0.31380E+05
 0.20399998E+02 -0.31230E+05
 0.20449999E+02 -0.30542E+05
 0.20499998E+02 -0.29512E+05
 0.20549999E+02 -0.28440E+05
 0.20599998E+02 -0.27917E+05
 0.20649998E+02 -0.27757E+05
 0.20699999E+02 -0.28219E+05
 0.20749998E+02 -0.28883E+05
 0.20799999E+02 -0.30013E+05
 0.20849998E+02 -0.31054E+05
 0.20899998E+02 -0.31685E+05
 0.20949999E+02 -0.32173E+05
 0.20999998E+02 -0.32684E+05
 0.21049999E+02 -0.33259E+05
 0.21099998E+02 -0.33043E+05
 0.21149998E+02 -0.32948E+05
 0.21199999E+02 -0.31719E+05
 0.21249998E+02 -0.29076E+05
 0.21299999E+02 -0.25541E+05
 0.21349998E+02 -0.24496E+05
 0.21399998E+02 -0.21465E+05
 0.21449999E+02 -0.19551E+05
 0.21499998E+02 -0.77544E+04
 0.21549999E+02 -0.47329E+04
 0.21599998E+02 -0.21524E+04
 0.21649998E+02  0.80571E+04
 0.21699999E+02  0.50230E+04
 0.21749998E+02  0.90095E+04
 0.21799999E+02  0.13752E+05
 0.21849998E+02  0.25404E+05
 0.21899998E+02  0.29292E+05
 0.21949999E+02  0.26409E+05
 0.21999998E+02  0.27908E+05
 0.22049999E+02  0.22696E+05
 0.22099998E+02  0.77836E+04
 0.22149998E+02  0.11934E+05
 0.22199999E+02  0.23946E+04
 0.22249998E+02 -0.25144E+04
 0.22299999E+02 -0.13633E+05
 0.22349998E+02 -0.41956E+05
 0.22399998E+02 -0.19278E+05
 0.22449999E+02 -0.37547E+05
 0.22499998E+02 -0.19470E+05
 0.22549999E+02 -0.10372E+05
 0.22599998E+02 -0.24335E+05
 0.22649998E+02 -0.19116E+04
 0.22699999E+02 -0.22093E+05
 0.22749998E+02  0.98907E+04
 0.22799999E+02  0.98709E+04
 0.22849998E+02  0.81343E+04
 0.22899998E+02  0.39321E+04
 0.22949999E+02 -0.41231E+04
 0.22999998E+02  0.28065E+05
 0.23049999E+02  0.85998E+02
 0.23099998E+02 -0.17298E+04
 0.23149998E+02  0.10294E+05
 0.23199999E+02  0.15789E+05
 0.23249998E+02  0.30759E+05
 0.23299999E+02  0.21746E+04
 0.23349998E+02 -0.38064E+04
 0.23399998E+02  0.29581E+04
 0.23449999E+02  0.10456E+05
 0.23499998E+02  0.25306E+05
 0.23549999E+02  0.24222E+05
 0.23599998E+02  0.28425E+05
 0.23649998E+02  0.32887E+03
 0.23699999E+02 -0.12686E+05
 0.23749998E+02 -0.16910E+04
 0.23799999E+02  0.14622E+05
 0.23849998E+02 -0.11743E+05
 0.23899998E+02 -0.51298E+05
 0.23949999E+02 -0.32214E+05
 0.23999998E+02 -0.10790E+05
 0.24049999E+02 -0.14483E+05
 0.24099998E+02 -0.58599E+04
 0.24149998E+02 -0.45720E+04
 0.24199999E+02 -0.45176E+05
 0.24249998E+02 -0.51087E+05
 0.24299999E+02 -0.35009E+05
 0.24349998E+02 -0.15506E+05
 0.24399998E+02 -0.29197E+05
 0.24449999E+02 -0.54731E+05
 0.24499998E+02 -0.49826E+05
 0.24549999E+02 -0.45602E+05
 0.24599998E+02 -0.65561E+04
 0.24649998E+02  0.24770E+05
 0.24699999E+02  0.18681E+05
 0.24749998E+02  0.18604E+04
 0.24799999E+02  0.39052E+05
 0.24849998E+02  0.35548E+05
 0.24899998E+02  0.75767E+02
 0.24949999E+02 -0.26570E+04
 0.24999998E+02  0.18734E+05
 0.25049999E+02  0.42073E+05
 0.25099998E+02 -0.30151E+05
 0.25149998E+02 -0.38601E+05
 0.25199999E+02 -0.21339E+05
 0.25249998E+02 -0.30231E+05
 0.25299999E+02 -0.42754E+05
 0.25349998E+02 -0.26023E+05
 0.25399998E+02  0.18899E+04
 0.25449999E+02 -0.16986E+05
 0.25499998E+02  0.14479E+04
 0.25549999E+02 -0.68080E+04
 0.25599998E+02  0.43135E+04
 0.25649998E+02 -0.40188E+05
 0.25699999E+02 -0.58325E+05
 0.25749998E+02 -0.24136E+04
 0.25799999E+02 -0.31172E+05
 0.25849998E+02 -0.40159E+05
 0.25899998E+02  0.53001E+04
 0.25949999E+02  0.21283E+05
 0.25999998E+02  0.39905E+04
 0.26049999E+02  0.13880E+05
 0.26099998E+02  0.13022E+05
 0.26149998E+02 -0.23762E+05
 0.26199999E+02 -0.59193E+05
 0.26249998E+02 -0.54130E+05
 0.26299999E+02 -0.87695E+05
 0.26349998E+02 -0.10279E+06
 0.26399998E+02 -0.69618E+05
 0.26449999E+02 -0.29221E+05
 0.26499998E+02  0.11595E+05
 0.26549999E+02  0.17002E+05
 0.26599998E+02  0.31398E+05
 0.26649998E+02  0.28943E+05
 0.26699999E+02  0.11248E+05
 0.26749998E+02  0.21308E+05
 0.26799999E+02  0.74432E+05
 0.26849998E+02  0.15465E+06
 0.26899998E+02  0.11434E+06
 0.26949999E+02  0.42659E+05
 0.26999998E+02  0.27028E+05
 0.27049997E+02 -0.49153E+05
 0.27099998E+02 -0.49214E+05
 0.27149998E+02 -0.71361E+05
 0.27199999E+02 -0.15376E+05
 0.27249998E+02  0.38801E+05
 0.27299997E+02 -0.36184E+05
 0.27349998E+02 -0.50264E+05
 0.27399998E+02 -0.70481E+05
 0.27449999E+02 -0.90818E+05
 0.27499998E+02 -0.14518E+06
 0.27549997E+02 -0.12224E+06
 0.27599998E+02 -0.38989E+05
 0.27649998E+02 -0.70446E+05
 0.27699999E+02 -0.92093E+05
 0.27749998E+02 -0.11498E+06
 0.27799997E+02 -0.41686E+05
 0.27849998E+02  0.39894E+05
 0.27899998E+02 -0.38812E+05
 0.27949999E+02 -0.55341E+05
 0.27999998E+02 -0.43500E+05
 0.28049997E+02 -0.26985E+05
 0.28099998E+02 -0.70201E+05
 0.28149998E+02 -0.59980E+05
 0.28199999E+02 -0.55140E+05
 0.28249998E+02 -0.37652E+05
 0.28299997E+02  0.39534E+05
 0.28349998E+02  0.72249E+05
 0.28399998E+02  0.92273E+05
 0.28449999E+02  0.59559E+04
 0.28499998E+02  0.25667E+05
 0.28549997E+02  0.58950E+05
 0.28599998E+02  0.67597E+05
 0.28649998E+02  0.14453E+06
 0.28699999E+02  0.12848E+06
 0.28749998E+02  0.40624E+05
 0.28799997E+02  0.40698E+05
 0.28849998E+02  0.50634E+05
 0.28899998E+02 -0.76458E+04
 0.28949999E+02  0.25074E+03
 0.28999998E+02  0.14080E+05
 0.29049997E+02  0.46296E+05
 0.29099998E+02  0.94613E+05
 0.29149998E+02  0.57905E+05
 0.29199999E+02  0.38347E+05
 0.29249998E+02  0.34818E+04
 0.29299997E+02 -0.55004E+05
 0.29349998E+02 -0.64744E+05
 0.29399998E+02 -0.25783E+05
 0.29449999E+02 -0.52620E+05
 0.29499998E+02 -0.11693E+06
 0.29549997E+02 -0.13749E+06
 0.29599998E+02 -0.91943E+05
 0.29649998E+02  0.58631E+05
 0.29699999E+02  0.67250E+05
 0.29749998E+02  0.18890E+05
 0.29799997E+02  0.34685E+05
 0.29849998E+02  0.37809E+05
 0.29899998E+02 -0.88917E+04
 0.29949999E+02 -0.22803E+05
 0.29999998E+02 -0.93220E+04
 0.30049999E+02 -0.40304E+05
 0.30099998E+02 -0.39036E+05
 0.30149998E+02 -0.35671E+05
 0.30199997E+02 -0.27282E+05
 0.30249996E+02 -0.27708E+05
 0.30299999E+02  0.89620E+04
 0.30349998E+02  0.59828E+05
 0.30399998E+02  0.36130E+05
 0.30449997E+02  0.52259E+04
 0.30499996E+02  0.27571E+05
 0.30549999E+02 -0.65673E+04
 0.30599998E+02 -0.26971E+05
 0.30649998E+02  0.35329E+05
 0.30699997E+02  0.18665E+05
 0.30749996E+02 -0.15176E+05
 0.30799999E+02 -0.63844E+05
 0.30849998E+02 -0.10876E+06
 0.30899998E+02 -0.81072E+05
 0.30949997E+02 -0.73765E+05
 0.30999996E+02 -0.69246E+05
 0.31049999E+02 -0.57020E+05
 0.31099998E+02 -0.10683E+06
 0.31149998E+02 -0.11333E+06
 0.31199997E+02 -0.62884E+05
 0.31249996E+02  0.48150E+04
 0.31299999E+02  0.70664E+05
 0.31349998E+02 -0.11140E+05
 0.31399998E+02 -0.19057E+05
 0.31449997E+02  0.89457E+05
 0.31499996E+02  0.15088E+06
 0.31549999E+02  0.16608E+06
 0.31599998E+02  0.12857E+06
 0.31649998E+02  0.14319E+06
 0.31699997E+02  0.11051E+06
 0.31749996E+02  0.11529E+06
 0.31799999E+02  0.14901E+06
 0.31849998E+02  0.10330E+06
 0.31899998E+02  0.73590E+05
 0.31949997E+02  0.48789E+05
 0.31999996E+02  0.34793E+05
 0.32049999E+02  0.30037E+05
 0.32099998E+02  0.36870E+05
 0.32149998E+02  0.98585E+04
 0.32199997E+02 -0.75681E+05
 0.32249996E+02 -0.15037E+06
 0.32299999E+02 -0.17174E+06
 0.32349998E+02 -0.17808E+06
 0.32399998E+02 -0.16295E+06
 0.32449997E+02 -0.11302E+06
 0.32499996E+02 -0.30749E+04
 0.32549999E+02  0.49723E+05
 0.32599998E+02  0.31693E+04
 0.32649998E+02 -0.88604E+05
 0.32699997E+02 -0.12742E+06
 0.32749996E+02 -0.28026E+05
 0.32799999E+02  0.49987E+04
 0.32849998E+02 -0.14299E+05
 0.32899998E+02  0.55913E+04
 0.32949997E+02  0.47399E+05
 0.32999996E+02  0.12643E+06
 0.33049999E+02  0.13925E+06
 0.33099998E+02  0.13743E+06
 0.33149998E+02  0.16856E+06
 0.33199997E+02  0.13524E+06
 0.33249996E+02  0.10221E+06
 0.33299999E+02 -0.16281E+05
 0.33349998E+02 -0.96037E+05
 0.33399998E+02 -0.10983E+06
 0.33449997E+02 -0.74832E+05
 0.33499996E+02  0.48990E+05
 0.33549999E+02  0.76382E+05
 0.33599998E+02  0.44602E+05
 0.33649998E+02  0.17221E+05
 0.33699997E+02  0.43207E+05
 0.33749996E+02  0.31599E+04
 0.33799999E+02 -0.17459E+05
 0.33849998E+02  0.20909E+05
 0.33899998E+02 -0.39379E+04
 0.33949997E+02 -0.96331E+04
 0.33999996E+02 -0.15237E+05
 0.34049999E+02  0.31544E+04
 0.34099998E+02  0.75714E+05
 0.34149998E+02  0.48689E+05
 0.34199997E+02  0.25167E+05
 0.34249996E+02  0.59314E+05
 0.34299999E+02  0.43050E+05
 0.34349998E+02  0.15145E+05
 0.34399998E+02 -0.38058E+05
 0.34449997E+02 -0.24655E+05
 0.34499996E+02  0.43513E+05
 0.34549999E+02  0.10288E+06
 0.34599998E+02  0.12835E+06
 0.34649998E+02  0.71290E+05
 0.34699997E+02  0.15584E+05
 0.34749996E+02  0.13921E+05
 0.34799999E+02  0.71352E+05
 0.34849998E+02  0.19511E+06
 0.34899998E+02  0.26132E+06
 0.34949997E+02  0.21125E+06
 0.34999996E+02  0.11322E+06
 0.35049999E+02  0.75576E+05
 0.35099998E+02  0.34559E+05
 0.35149998E+02  0.21357E+05
 0.35199997E+02  0.18452E+06
 0.35249996E+02  0.35575E+06
 0.35299999E+02  0.56304E+06
 0.35349998E+02  0.78455E+06
 0.35399998E+02  0.88102E+06
 0.35449997E+02  0.78323E+06
 0.35499996E+02  0.60170E+06
 0.35549999E+02  0.46093E+06
 0.35599998E+02  0.52237E+06
 0.35649998E+02  0.69498E+06
 0.35699997E+02  0.56909E+06
 0.35749996E+02  0.38000E+06
 0.35799999E+02  0.48911E+06
 0.35849998E+02  0.88460E+06
 0.35899998E+02  0.10623E+07
 0.35949997E+02  0.88117E+06
 0.35999996E+02  0.69834E+06
 0.36049999E+02  0.35061E+06
 0.36099998E+02 -0.32047E+06
 0.36149998E+02 -0.10539E+07
 0.36199997E+02 -0.13934E+07
 0.36249996E+02 -0.10516E+07
 0.36299999E+02 -0.27532E+06
 0.36349998E+02  0.14995E+06
 0.36399998E+02 -0.58791E+05
 0.36449997E+02 -0.12349E+06
 0.36499996E+02  0.22828E+06
 0.36549999E+02  0.86161E+06
 0.36599998E+02  0.95186E+06
 0.36649998E+02  0.55288E+06
 0.36699997E+02  0.22145E+06
 0.36749996E+02 -0.15844E+06
 0.36799999E+02 -0.11752E+06
 0.36849998E+02 -0.21806E+06
 0.36899998E+02 -0.44309E+06
 0.36949997E+02 -0.38321E+06
 0.36999996E+02 -0.34909E+06
 0.37049999E+02 -0.45030E+06
 0.37099998E+02 -0.14627E+06
 0.37149998E+02  0.22814E+06
 0.37199997E+02  0.83963E+05
 0.37249996E+02  0.12605E+06
 0.37299999E+02  0.67494E+06
 0.37349998E+02  0.97567E+06
 0.37399998E+02  0.95881E+06
 0.37449997E+02  0.10803E+07
 0.37499996E+02  0.74395E+06
 0.37549999E+02  0.92740E+04
 0.37599998E+02 -0.19771E+06
 0.37649998E+02  0.44664E+06
 0.37699997E+02  0.87165E+06
 0.37749996E+02  0.51860E+06
 0.37799999E+02  0.11670E+05
 0.37849998E+02 -0.24521E+06
 0.37899998E+02 -0.67285E+06
 0.37949997E+02 -0.15403E+07
 0.37999996E+02 -0.21031E+07
 0.38049999E+02 -0.20424E+07
 0.38099998E+02 -0.12358E+07
 0.38149998E+02 -0.69723E+05
 0.38199997E+02  0.45668E+06
 0.38249996E+02  0.22550E+06
 0.38299999E+02  0.21131E+06
 0.38349998E+02  0.58516E+06
 0.38399998E+02  0.11222E+07
 0.38449997E+02  0.11571E+07
 0.38499996E+02  0.14768E+06
 0.38549999E+02 -0.69723E+06
 0.38599998E+02 -0.90060E+06
 0.38649998E+02 -0.69223E+06
 0.38699997E+02 -0.77952E+06
 0.38749996E+02 -0.84208E+06
 0.38799999E+02 -0.68112E+06
 0.38849998E+02 -0.91001E+06
 0.38899998E+02 -0.10738E+07
 0.38949997E+02 -0.46762E+06
 0.38999996E+02  0.20807E+06
 0.39049999E+02  0.21254E+06
 0.39099998E+02  0.25726E+06
 0.39149998E+02  0.72583E+06
 0.39199997E+02  0.11582E+07
 0.39249996E+02  0.12960E+07
 0.39299999E+02  0.12091E+07
 0.39349998E+02  0.73510E+06
 0.39399998E+02  0.47272E+06
 0.39449997E+02  0.47834E+06
 0.39499996E+02  0.42400E+06
 0.39549999E+02  0.40212E+06
 0.39599998E+02  0.14921E+06
 0.39649998E+02 -0.85912E+05
 0.39699997E+02  0.10407E+06
 0.39749996E+02  0.18622E+06
 0.39799999E+02  0.56091E+05
 0.39849998E+02  0.22718E+06
 0.39899998E+02  0.64554E+06
 0.39949997E+02  0.78272E+06
 0.39999996E+02  0.90191E+06
 0.40049999E+02  0.10378E+07
 0.40099998E+02  0.79792E+06
 0.40149998E+02  0.25741E+06
 0.40199997E+02 -0.49371E+06
 0.40249996E+02 -0.76158E+06
 0.40299999E+02 -0.54452E+06
 0.40349998E+02 -0.60507E+06
 0.40399998E+02 -0.28690E+06
 0.40449997E+02  0.31447E+06
 0.40499996E+02  0.41916E+06
 0.40549999E+02  0.56089E+06
 0.40599998E+02  0.67735E+06
 0.40649998E+02  0.63149E+06
 0.40699997E+02  0.66306E+06
 0.40749996E+02  0.78794E+06
 0.40799999E+02  0.67936E+06
 0.40849998E+02  0.41892E+06
 0.40899998E+02  0.29795E+06
 0.40949997E+02  0.17859E+06
 0.40999996E+02  0.39747E+06
 0.41049999E+02  0.56442E+06
 0.41099998E+02  0.66980E+06
 0.41149998E+02  0.83774E+06
 0.41199997E+02  0.64670E+06
 0.41249996E+02  0.33585E+06
 0.41299999E+02 -0.62460E+05
 0.41349998E+02 -0.23678E+06
 0.41399998E+02  0.52479E+05
 0.41449997E+02  0.38275E+06
 0.41499996E+02  0.65299E+06
 0.41549999E+02  0.92948E+06
 0.41599998E+02  0.91640E+06
 0.41649998E+02  0.80515E+06
 0.41699997E+02  0.58698E+06
 0.41749996E+02  0.53617E+05
 0.41799999E+02 -0.13196E+06
 0.41849998E+02  0.76476E+04
 0.41899998E+02 -0.70878E+05
 0.41949997E+02  0.35573E+05
 0.41999996E+02 -0.63338E+05
 0.42049999E+02 -0.80857E+06
 0.42099998E+02 -0.14516E+07
 0.42149998E+02 -0.15223E+07
 0.42199997E+02 -0.14296E+07
 0.42249996E+02 -0.11317E+07
 0.42299999E+02 -0.64300E+06
 0.42349998E+02 -0.62228E+06
 0.42399998E+02 -0.53245E+06
 0.42449997E+02 -0.47201E+06
 0.42499996E+02 -0.12180E+07
 0.42549999E+02 -0.21969E+07
 0.42599998E+02 -0.29282E+07
 0.42649998E+02 -0.35203E+07
 0.42699997E+02 -0.35883E+07
 0.42749996E+02 -0.29644E+07
 0.42799995E+02 -0.22939E+07
 0.42849998E+02 -0.16600E+07
 0.42899998E+02 -0.12454E+07
 0.42949997E+02 -0.10122E+07
 0.42999996E+02 -0.76490E+06
 0.43049995E+02 -0.89879E+06
 0.43099998E+02 -0.11439E+07
 0.43149998E+02 -0.13972E+07
 0.43199997E+02 -0.15737E+07
 0.43249996E+02 -0.14857E+07
 0.43299995E+02 -0.11381E+07
 0.43349998E+02 -0.77138E+06
 0.43399998E+02 -0.59441E+06
 0.43449997E+02 -0.22565E+06
 0.43499996E+02  0.29107E+06
 0.43549995E+02  0.74787E+06
 0.43599998E+02  0.10394E+07
 0.43649998E+02  0.14388E+07
 0.43699997E+02  0.16283E+07
 0.43749996E+02  0.12347E+07
 0.43799995E+02  0.99823E+06
 0.43849998E+02  0.81774E+06
 0.43899998E+02  0.30328E+06
 0.43949997E+02 -0.29205E+06
 0.43999996E+02 -0.61722E+06
 0.44049995E+02 -0.79117E+06
 0.44099998E+02 -0.91109E+06
 0.44149998E+02 -0.11112E+07
 0.44199997E+02 -0.15016E+07
 0.44249996E+02 -0.17952E+07
 0.44299995E+02 -0.19780E+07
 0.44349998E+02 -0.22157E+07
 0.44399998E+02 -0.25461E+07
 0.44449997E+02 -0.26384E+07
 0.44499996E+02 -0.23822E+07
 0.44549995E+02 -0.20769E+07
 0.44599998E+02 -0.18770E+07
 0.44649998E+02 -0.18445E+07
 0.44699997E+02 -0.17217E+07
 0.44749996E+02 -0.14096E+07
 0.44799995E+02 -0.11585E+07
 0.44849998E+02 -0.10041E+07
 0.44899998E+02 -0.75966E+06
 0.44949997E+02 -0.32207E+06
 0.44999996E+02  0.15963E+06
 0.45049995E+02  0.55856E+06
 0.45099998E+02  0.82450E+06
 0.45149998E+02  0.93270E+06
 0.45199997E+02  0.10402E+07
 0.45249996E+02  0.13835E+07
 0.45299995E+02  0.21437E+07
 0.45349998E+02  0.29999E+07
 0.45399998E+02  0.36461E+07
 0.45449997E+02  0.38202E+07
 0.45499996E+02  0.35566E+07
 0.45549995E+02  0.29399E+07
 0.45599998E+02  0.19798E+07
 0.45649998E+02  0.12577E+07
 0.45699997E+02  0.91769E+06
 0.45749996E+02  0.84203E+06
 0.45799995E+02  0.91139E+06
 0.45849998E+02  0.90652E+06
 0.45899998E+02  0.61254E+06
 0.45949997E+02  0.30200E+06
 0.45999996E+02  0.15264E+06
 0.46049995E+02 -0.89497E+05
 0.46099998E+02 -0.37271E+06
 0.46149998E+02 -0.62599E+06
 0.46199997E+02 -0.86414E+06
 0.46249996E+02 -0.12137E+07
 0.46299995E+02 -0.15838E+07
 0.46349998E+02 -0.17714E+07
 0.46399998E+02 -0.19762E+07
 0.46449997E+02 -0.21988E+07
 0.46499996E+02 -0.22892E+07
 0.46549995E+02 -0.21995E+07
 0.46599998E+02 -0.19289E+07
 0.46649998E+02 -0.15979E+07
 0.46699997E+02 -0.11983E+07
 0.46749996E+02 -0.60275E+06
 0.46799995E+02  0.67307E+05
 0.46849998E+02  0.59945E+06
 0.46899998E+02  0.92628E+06
 0.46949997E+02  0.98330E+06
 0.46999996E+02  0.89102E+06
 0.47049995E+02  0.77481E+06
 0.47099998E+02  0.71557E+06
 0.47149998E+02  0.77530E+06
 0.47199997E+02  0.89014E+06
 0.47249996E+02  0.93986E+06
 0.47299995E+02  0.73416E+06
 0.47349998E+02  0.35008E+06
 0.47399998E+02 -0.12126E+05
 0.47449997E+02 -0.44987E+06
 0.47499996E+02 -0.87129E+06
 0.47549995E+02 -0.10745E+07
 0.47599998E+02 -0.10899E+07
 0.47649998E+02 -0.99480E+06
 0.47699997E+02 -0.91228E+06
 0.47749996E+02 -0.91108E+06
 0.47799995E+02 -0.97319E+06
 0.47849998E+02 -0.94129E+06
 0.47899998E+02 -0.86539E+06
 0.47949997E+02 -0.89492E+06
 0.47999996E+02 -0.94650E+06
 0.48049995E+02 -0.91067E+06
 0.48099998E+02 -0.91513E+06
 0.48149998E+02 -0.10534E+07
 0.48199997E+02 -0.12260E+07
 0.48249996E+02 -0.13507E+07
 0.48299995E+02 -0.12766E+07
 0.48349998E+02 -0.89548E+06
 0.48399998E+02 -0.29110E+06
 0.48449997E+02  0.32291E+06
 0.48499996E+02  0.92503E+06
 0.48549995E+02  0.15662E+07
 0.48599998E+02  0.21928E+07
 0.48649998E+02  0.26812E+07
 0.48699997E+02  0.30098E+07
 0.48749996E+02  0.30083E+07
 0.48799995E+02  0.28076E+07
 0.48849998E+02  0.27125E+07
 0.48899998E+02  0.25540E+07
 0.48949997E+02  0.22463E+07
 0.48999996E+02  0.17875E+07
 0.49049995E+02  0.13316E+07
 0.49099998E+02  0.10610E+07
 0.49149998E+02  0.10517E+07
 0.49199997E+02  0.11136E+07
 0.49249996E+02  0.10799E+07
 0.49299995E+02  0.83989E+06
 0.49349998E+02  0.41172E+06
 0.49399998E+02  0.99030E+05
 0.49449997E+02 -0.56287E+05
 0.49499996E+02 -0.69516E+05
 0.49549995E+02 -0.14077E+05
 0.49599998E+02 -0.76163E+04
 0.49649998E+02 -0.11658E+06
 0.49699997E+02 -0.23085E+06
 0.49749996E+02 -0.29070E+06
 0.49799995E+02 -0.23593E+06
 0.49849998E+02  0.10621E+05
 0.49899998E+02  0.33495E+06
 0.49949997E+02  0.72800E+06
 0.49999996E+02  0.10980E+07
 0.50049995E+02  0.14198E+07
 0.50099998E+02  0.17857E+07
 0.50149998E+02  0.21338E+07
 0.50199997E+02  0.23616E+07
 0.50249996E+02  0.25129E+07
 0.50299995E+02  0.26302E+07
 0.50349998E+02  0.28142E+07
 0.50399998E+02  0.31186E+07
 0.50449997E+02  0.33378E+07
 0.50499996E+02  0.33606E+07
 0.50549995E+02  0.31241E+07
 0.50599998E+02  0.25709E+07
 0.50649998E+02  0.20478E+07
 0.50699997E+02  0.17460E+07
 0.50749996E+02  0.14519E+07
 0.50799995E+02  0.11611E+07
 0.50849998E+02  0.86100E+06
 0.50899998E+02  0.55299E+06
 0.50949997E+02  0.29585E+06
 0.50999996E+02  0.39740E+04
 0.51049995E+02 -0.27852E+06
 0.51099998E+02 -0.47582E+06
 0.51149998E+02 -0.65884E+06
 0.51199997E+02 -0.96319E+06
 0.51249996E+02 -0.13156E+07
 0.51299995E+02 -0.16086E+07
 0.51349998E+02 -0.18185E+07
 0.51399998E+02 -0.20154E+07
 0.51449997E+02 -0.21415E+07
 0.51499996E+02 -0.20060E+07
 0.51549995E+02 -0.17661E+07
 0.51599998E+02 -0.15758E+07
 0.51649998E+02 -0.13960E+07
 0.51699997E+02 -0.10655E+07
 0.51749996E+02 -0.56809E+06
 0.51799995E+02 -0.32300E+05
 0.51849998E+02  0.43598E+06
 0.51899998E+02  0.75428E+06
 0.51949997E+02  0.95369E+06
 0.51999996E+02  0.95762E+06
 0.52049995E+02  0.77094E+06
 0.52099998E+02  0.60549E+06
 0.52149998E+02  0.62948E+06
 0.52199997E+02  0.83623E+06
 0.52249996E+02  0.99262E+06
 0.52299995E+02  0.10071E+07
 0.52349998E+02  0.85922E+06
 0.52399998E+02  0.62635E+06
 0.52449997E+02  0.48186E+06
 0.52499996E+02  0.56720E+06
 0.52549995E+02  0.81112E+06
 0.52599998E+02  0.89752E+06
 0.52649998E+02  0.68416E+06
 0.52699997E+02  0.13371E+06
 0.52749996E+02 -0.57640E+06
 0.52799995E+02 -0.11494E+07
 0.52849998E+02 -0.14099E+07
 0.52899998E+02 -0.11827E+07
 0.52949997E+02 -0.47333E+06
 0.52999996E+02  0.32331E+06
 0.53049995E+02  0.74323E+06
 0.53099998E+02  0.58763E+06
 0.53149998E+02  0.90104E+05
 0.53199997E+02 -0.38025E+06
 0.53249996E+02 -0.82462E+06
 0.53299995E+02 -0.13333E+07
 0.53349998E+02 -0.20192E+07
 0.53399998E+02 -0.28153E+07
 0.53449997E+02 -0.34599E+07
 0.53499996E+02 -0.37106E+07
 0.53549995E+02 -0.33092E+07
 0.53599998E+02 -0.23678E+07
 0.53649998E+02 -0.12809E+07
 0.53699997E+02 -0.45312E+06
 0.53749996E+02 -0.20175E+05
 0.53799995E+02  0.96474E+05
 0.53849998E+02  0.96193E+05
 0.53899998E+02  0.19407E+06
 0.53949997E+02  0.42889E+06
 0.53999996E+02  0.75462E+06
 0.54049995E+02  0.86868E+06
 0.54099998E+02  0.61301E+06
 0.54149998E+02  0.22060E+06
 0.54199997E+02 -0.63360E+05
 0.54249996E+02 -0.14022E+06
 0.54299995E+02  0.31404E+04
 0.54349998E+02  0.28894E+06
 0.54399998E+02  0.41850E+06
 0.54449997E+02  0.32175E+06
 0.54499996E+02  0.23316E+06
 0.54549995E+02  0.27346E+06
 0.54599998E+02  0.32706E+06
 0.54649998E+02  0.31563E+06
 0.54699997E+02  0.28661E+06
 0.54749996E+02  0.24163E+06
 0.54799995E+02  0.68169E+05
 0.54849998E+02 -0.42163E+06
 0.54899998E+02 -0.11739E+07
 0.54949997E+02 -0.20459E+07
 0.54999996E+02 -0.28608E+07
 0.55049995E+02 -0.35381E+07
 0.55099998E+02 -0.42796E+07
 0.55149998E+02 -0.51021E+07
 0.55199997E+02 -0.57864E+07
 0.55249996E+02 -0.60892E+07
 0.55299995E+02 -0.58482E+07
 0.55349998E+02 -0.49989E+07
 0.55399998E+02 -0.36766E+07
 0.55449997E+02 -0.23050E+07
 0.55499996E+02 -0.12087E+07
 0.55549995E+02 -0.61215E+06
 0.55599998E+02 -0.50050E+06
 0.55649998E+02 -0.47873E+06
 0.55699997E+02 -0.25784E+06
 0.55749996E+02  0.22385E+06
 0.55799995E+02  0.85351E+06
 0.55849995E+02  0.13698E+07
 0.55899998E+02  0.16492E+07
 0.55949997E+02  0.16571E+07
 0.55999996E+02  0.15381E+07
 0.56049995E+02  0.15311E+07
 0.56099995E+02  0.15887E+07
 0.56149998E+02  0.17137E+07
 0.56199997E+02  0.19505E+07
 0.56249996E+02  0.21204E+07
 0.56299995E+02  0.20811E+07
 0.56349995E+02  0.18569E+07
 0.56399998E+02  0.15583E+07
 0.56449997E+02  0.11748E+07
 0.56499996E+02  0.61519E+06
 0.56549995E+02 -0.12108E+06
 0.56599995E+02 -0.10238E+07
 0.56649998E+02 -0.20037E+07
 0.56699997E+02 -0.28951E+07
 0.56749996E+02 -0.35313E+07
 0.56799995E+02 -0.38377E+07
 0.56849995E+02 -0.38003E+07
 0.56899998E+02 -0.34406E+07
 0.56949997E+02 -0.28609E+07
 0.56999996E+02 -0.22140E+07
 0.57049995E+02 -0.15492E+07
 0.57099995E+02 -0.83560E+06
 0.57149998E+02 -0.47748E+05
 0.57199997E+02  0.71287E+06
 0.57249996E+02  0.12608E+07
 0.57299995E+02  0.15546E+07
 0.57349995E+02  0.16018E+07
 0.57399998E+02  0.15343E+07
 0.57449997E+02  0.14444E+07
 0.57499996E+02  0.14143E+07
 0.57549995E+02  0.15410E+07
 0.57599995E+02  0.18676E+07
 0.57649998E+02  0.24359E+07
 0.57699997E+02  0.29758E+07
 0.57749996E+02  0.33396E+07
 0.57799995E+02  0.34961E+07
 0.57849995E+02  0.34365E+07
 0.57899998E+02  0.32937E+07
 0.57949997E+02  0.31045E+07
 0.57999996E+02  0.28741E+07
 0.58049995E+02  0.24692E+07
 0.58099995E+02  0.17969E+07
 0.58149998E+02  0.10126E+07
 0.58199997E+02  0.32169E+06
 0.58249996E+02 -0.21256E+06
 0.58299995E+02 -0.57681E+06
 0.58349995E+02 -0.77563E+06
 0.58399998E+02 -0.81596E+06
 0.58449997E+02 -0.68888E+06
 0.58499996E+02 -0.39478E+06
 0.58549995E+02  0.13404E+04
 0.58599995E+02  0.39834E+06
 0.58649998E+02  0.76660E+06
 0.58699997E+02  0.11230E+07
 0.58749996E+02  0.14653E+07
 0.58799995E+02  0.17669E+07
 0.58849995E+02  0.19438E+07
 0.58899998E+02  0.19008E+07
 0.58949997E+02  0.17144E+07
 0.58999996E+02  0.14848E+07
 0.59049995E+02  0.11991E+07
 0.59099995E+02  0.88743E+06
 0.59149998E+02  0.63794E+06
 0.59199997E+02  0.51681E+06
 0.59249996E+02  0.55692E+06
 0.59299995E+02  0.67926E+06
 0.59349995E+02  0.83969E+06
 0.59399998E+02  0.10590E+07
 0.59449997E+02  0.13629E+07
 0.59499996E+02  0.17343E+07
 0.59549995E+02  0.20297E+07
 0.59599995E+02  0.21359E+07
 0.59649998E+02  0.20144E+07
 0.59699997E+02  0.18122E+07
 0.59749996E+02  0.16536E+07
 0.59799995E+02  0.15118E+07
 0.59849995E+02  0.13977E+07
 0.59899998E+02  0.13371E+07
 0.59949997E+02  0.13518E+07
 0.59999996E+02  0.14173E+07
 0.60049995E+02  0.15144E+07
 0.60099995E+02  0.16915E+07
 0.60149998E+02  0.19003E+07
 0.60199997E+02  0.20318E+07
 0.60249996E+02  0.20030E+07
 0.60299995E+02  0.17420E+07
 0.60349995E+02  0.12899E+07
 0.60399998E+02  0.73763E+06
 0.60449997E+02  0.24416E+06
 0.60499996E+02 -0.90334E+05
 0.60549995E+02 -0.34305E+06
 0.60599995E+02 -0.63574E+06
 0.60649998E+02 -0.98515E+06
 0.60699997E+02 -0.13835E+07
 0.60749996E+02 -0.17782E+07
 0.60799995E+02 -0.19891E+07
 0.60849995E+02 -0.19834E+07
 0.60899998E+02 -0.18837E+07
 0.60949997E+02 -0.17783E+07
 0.60999996E+02 -0.17373E+07
 0.61049995E+02 -0.18008E+07
 0.61099995E+02 -0.19892E+07
 0.61149998E+02 -0.22573E+07
 0.61199997E+02 -0.24252E+07
 0.61249996E+02 -0.24548E+07
 0.61299995E+02 -0.23070E+07
 0.61349995E+02 -0.19124E+07
 0.61399998E+02 -0.13523E+07
 0.61449997E+02 -0.78302E+06
 0.61499996E+02 -0.32247E+06
 0.61549995E+02  0.44340E+05
 0.61599995E+02  0.38660E+06
 0.61649998E+02  0.76101E+06
 0.61699997E+02  0.11532E+07
 0.61749996E+02  0.14686E+07
 0.61799995E+02  0.16033E+07
 0.61849995E+02  0.15459E+07
 0.61899998E+02  0.13269E+07
 0.61949997E+02  0.10152E+07
 0.61999996E+02  0.65285E+06
 0.62049995E+02  0.28549E+06
 0.62099998E+02 -0.12685E+06
 0.62149994E+02 -0.63344E+06
 0.62199997E+02 -0.11523E+07
 0.62249992E+02 -0.17626E+07
 0.62299995E+02 -0.24712E+07
 0.62349998E+02 -0.31491E+07
 0.62399994E+02 -0.37281E+07
 0.62449997E+02 -0.41296E+07
 0.62499992E+02 -0.42764E+07
 0.62549995E+02 -0.41812E+07
 0.62599998E+02 -0.39273E+07
 0.62649994E+02 -0.35406E+07
 0.62699997E+02 -0.31353E+07
 0.62749992E+02 -0.28555E+07
 0.62799995E+02 -0.27738E+07
 0.62849998E+02 -0.28618E+07
 0.62899994E+02 -0.30131E+07
 0.62949997E+02 -0.32022E+07
 0.62999992E+02 -0.32793E+07
 0.63049995E+02 -0.31216E+07
 0.63099998E+02 -0.27047E+07
 0.63149994E+02 -0.20461E+07
 0.63199997E+02 -0.12853E+07
 0.63249992E+02 -0.52918E+06
 0.63299995E+02  0.14963E+06
 0.63349998E+02  0.75532E+06
 0.63399994E+02  0.13161E+07
 0.63449997E+02  0.18391E+07
 0.63499992E+02  0.22881E+07
 0.63549995E+02  0.25728E+07
 0.63599998E+02  0.26036E+07
 0.63649994E+02  0.23307E+07
 0.63699997E+02  0.17711E+07
 0.63749992E+02  0.10227E+07
 0.63799995E+02  0.22053E+06
 0.63849998E+02 -0.52086E+06
 0.63899994E+02 -0.11073E+07
 0.63949997E+02 -0.15848E+07
 0.63999992E+02 -0.19880E+07
 0.64049995E+02 -0.22751E+07
 0.64099998E+02 -0.24415E+07
 0.64149994E+02 -0.24994E+07
 0.64199997E+02 -0.24589E+07
 0.64249992E+02 -0.22985E+07
 0.64299995E+02 -0.20314E+07
 0.64349998E+02 -0.16977E+07
 0.64399994E+02 -0.13347E+07
 0.64449997E+02 -0.98703E+06
 0.64499992E+02 -0.67137E+06
 0.64549995E+02 -0.40198E+06
 0.64599998E+02 -0.19321E+06
 0.64649994E+02 -0.12999E+05
 0.64699997E+02  0.21633E+06
 0.64749992E+02  0.53339E+06
 0.64799995E+02  0.89789E+06
 0.64849998E+02  0.12891E+07
 0.64899994E+02  0.16808E+07
 0.64949997E+02  0.20401E+07
 0.64999992E+02  0.23617E+07
 0.65049995E+02  0.26642E+07
 0.65099998E+02  0.29352E+07
 0.65149994E+02  0.30823E+07
 0.65199997E+02  0.30557E+07
 0.65249992E+02  0.28761E+07
 0.65299995E+02  0.25501E+07
 0.65349998E+02  0.21063E+07
 0.65399994E+02  0.16236E+07
 0.65449997E+02  0.11449E+07
 0.65499992E+02  0.75257E+06
 0.65549995E+02  0.49584E+06
 0.65599998E+02  0.32482E+06
 0.65649994E+02  0.20932E+06
 0.65699997E+02  0.15063E+06
 0.65749992E+02  0.19359E+06
 0.65799995E+02  0.31682E+06
 0.65849998E+02  0.47312E+06
 0.65899994E+02  0.58731E+06
 0.65949997E+02  0.62854E+06
 0.65999992E+02  0.65260E+06
 0.66049995E+02  0.67527E+06
 0.66099998E+02  0.74307E+06
 0.66149994E+02  0.87993E+06
 0.66199997E+02  0.10766E+07
 0.66249992E+02  0.13200E+07
 0.66299995E+02  0.16033E+07
 0.66349998E+02  0.18874E+07
 0.66399994E+02  0.21332E+07
 0.66449997E+02  0.23311E+07
 0.66499992E+02  0.24473E+07
 0.66549995E+02  0.24990E+07
 0.66599998E+02  0.25182E+07
 0.66649994E+02  0.25250E+07
 0.66699997E+02  0.25585E+07
 0.66749992E+02  0.25894E+07
 0.66799995E+02  0.25398E+07
 0.66849998E+02  0.23999E+07
 0.66899994E+02  0.22165E+07
 0.66949997E+02  0.20135E+07
 0.66999992E+02  0.17794E+07
 0.67049995E+02  0.15279E+07
 0.67099998E+02  0.12959E+07
 0.67149994E+02  0.10913E+07
 0.67199997E+02  0.92318E+06
 0.67249992E+02  0.77435E+06
 0.67299995E+02  0.61700E+06
 0.67349998E+02  0.46814E+06
 0.67399994E+02  0.30884E+06
 0.67449997E+02  0.54169E+05
 0.67499992E+02 -0.31589E+06
 0.67549995E+02 -0.77382E+06
 0.67599998E+02 -0.12743E+07
 0.67649994E+02 -0.17229E+07
 0.67699997E+02 -0.20395E+07
 0.67749992E+02 -0.21947E+07
 0.67799995E+02 -0.21966E+07
 0.67849998E+02 -0.20324E+07
 0.67899994E+02 -0.17692E+07
 0.67949997E+02 -0.14706E+07
 0.67999992E+02 -0.11229E+07
 0.68049995E+02 -0.74802E+06
 0.68099998E+02 -0.40025E+06
 0.68149994E+02 -0.10442E+06
 0.68199997E+02  0.12475E+06
 0.68249992E+02  0.27286E+06
 0.68299995E+02  0.30700E+06
 0.68349998E+02  0.17961E+06
 0.68399994E+02 -0.63165E+05
 0.68449997E+02 -0.34985E+06
 0.68499992E+02 -0.60965E+06
 0.68549995E+02 -0.78782E+06
 0.68599998E+02 -0.89532E+06
 0.68649994E+02 -0.93407E+06
 0.68699997E+02 -0.88909E+06
 0.68749992E+02 -0.76183E+06
 0.68799995E+02 -0.57717E+06
 0.68849998E+02 -0.40654E+06
 0.68899994E+02 -0.32914E+06
 0.68949997E+02 -0.39183E+06
 0.68999992E+02 -0.62700E+06
 0.69049995E+02 -0.10041E+07
 0.69099998E+02 -0.14542E+07
 0.69149994E+02 -0.19115E+07
 0.69199997E+02 -0.22785E+07
 0.69249992E+02 -0.24959E+07
 0.69299995E+02 -0.25801E+07
 0.69349998E+02 -0.25237E+07
 0.69399994E+02 -0.23339E+07
 0.69449997E+02 -0.20631E+07
 0.69499992E+02 -0.17146E+07
 0.69549995E+02 -0.13001E+07
 0.69599998E+02 -0.90250E+06
 0.69649994E+02 -0.60088E+06
 0.69699997E+02 -0.42264E+06
 0.69749992E+02 -0.34070E+06
 0.69799995E+02 -0.31507E+06
 0.69849998E+02 -0.33166E+06
 0.69899994E+02 -0.36023E+06
 0.69949997E+02 -0.39912E+06
 0.69999992E+02 -0.43750E+06
 0.70049995E+02 -0.43157E+06
 0.70099998E+02 -0.36073E+06
 0.70149994E+02 -0.29832E+06
 0.70199997E+02 -0.29858E+06
 0.70249992E+02 -0.31727E+06
 0.70299995E+02 -0.32480E+06
 0.70349998E+02 -0.28135E+06
 0.70399994E+02 -0.17253E+06
 0.70449997E+02 -0.22703E+05
 0.70499992E+02  0.12258E+06
 0.70549995E+02  0.24848E+06
 0.70599998E+02  0.36415E+06
 0.70649994E+02  0.50055E+06
 0.70699997E+02  0.67907E+06
 0.70749992E+02  0.85675E+06
 0.70799995E+02  0.97957E+06
 0.70849998E+02  0.10077E+07
 0.70899994E+02  0.92811E+06
 0.70949997E+02  0.73393E+06
 0.70999992E+02  0.46389E+06
 0.71049995E+02  0.19289E+06
 0.71099998E+02 -0.20279E+05
 0.71149994E+02 -0.14167E+06
 0.71199997E+02 -0.16183E+06
 0.71249992E+02 -0.11013E+06
 0.71299995E+02 -0.52624E+05
 0.71349998E+02 -0.25867E+05
 0.71399994E+02 -0.21296E+05
 0.71449997E+02 -0.42474E+05
 0.71499992E+02 -0.81521E+05
 0.71549995E+02 -0.11464E+06
 0.71599998E+02 -0.13673E+06
 0.71649994E+02 -0.16063E+06
 0.71699997E+02 -0.18935E+06
 0.71749992E+02 -0.18990E+06
 0.71799995E+02 -0.14108E+06
 0.71849998E+02  0.10221E+05
 0.71899994E+02  0.28480E+06
 0.71949997E+02  0.65336E+06
 0.71999992E+02  0.10827E+07
 0.72049995E+02  0.15243E+07
 0.72099998E+02  0.19208E+07
 0.72149994E+02  0.22077E+07
 0.72199997E+02  0.23741E+07
 0.72249992E+02  0.24126E+07
 0.72299995E+02  0.23082E+07
 0.72349998E+02  0.20789E+07
 0.72399994E+02  0.17720E+07
 0.72449997E+02  0.14179E+07
 0.72499992E+02  0.10225E+07
 0.72549995E+02  0.59863E+06
 0.72599998E+02  0.16298E+06
 0.72649994E+02 -0.26704E+06
 0.72699997E+02 -0.66094E+06
 0.72749992E+02 -0.98840E+06
 0.72799995E+02 -0.12101E+07
 0.72849998E+02 -0.12967E+07
 0.72899994E+02 -0.12732E+07
 0.72949997E+02 -0.11703E+07
 0.72999992E+02 -0.10145E+07
 0.73049995E+02 -0.82810E+06
 0.73099998E+02 -0.62620E+06
 0.73149994E+02 -0.42197E+06
 0.73199997E+02 -0.21395E+06
 0.73249992E+02  0.15604E+05
 0.73299995E+02  0.27465E+06
 0.73349998E+02  0.56557E+06
 0.73399994E+02  0.88005E+06
 0.73449997E+02  0.11801E+07
 0.73499992E+02  0.14333E+07
 0.73549995E+02  0.16224E+07
 0.73599998E+02  0.17258E+07
 0.73649994E+02  0.17342E+07
 0.73699997E+02  0.16438E+07
 0.73749992E+02  0.14370E+07
 0.73799995E+02  0.11481E+07
 0.73849998E+02  0.81355E+06
 0.73899994E+02  0.46227E+06
 0.73949997E+02  0.12816E+06
 0.73999992E+02 -0.20550E+06
 0.74049995E+02 -0.54754E+06
 0.74099998E+02 -0.87536E+06
 0.74149994E+02 -0.11613E+07
 0.74199997E+02 -0.13933E+07
 0.74249992E+02 -0.15625E+07
 0.74299995E+02 -0.16570E+07
 0.74349998E+02 -0.17034E+07
 0.74399994E+02 -0.17345E+07
 0.74449997E+02 -0.17282E+07
 0.74499992E+02 -0.16519E+07
 0.74549995E+02 -0.15110E+07
 0.74599998E+02 -0.13286E+07
 0.74649994E+02 -0.11250E+07
 0.74699997E+02 -0.92781E+06
 0.74749992E+02 -0.77402E+06
 0.74799995E+02 -0.67602E+06
 0.74849998E+02 -0.59455E+06
 0.74899994E+02 -0.49816E+06
 0.74949997E+02 -0.38324E+06
 0.74999992E+02 -0.26039E+06
 0.75049995E+02 -0.16505E+06
 0.75099998E+02 -0.10925E+06
 0.75149994E+02 -0.83296E+05
 0.75199997E+02 -0.54976E+05
 0.75249992E+02 -0.11782E+05
 0.75299995E+02  0.76285E+04
 0.75349998E+02 -0.23419E+05
 0.75399994E+02 -0.10455E+06
 0.75449997E+02 -0.22262E+06
 0.75499992E+02 -0.34697E+06
 0.75549995E+02 -0.44120E+06
 0.75599998E+02 -0.48191E+06
 0.75649994E+02 -0.49593E+06
 0.75699997E+02 -0.54899E+06
 0.75749992E+02 -0.64352E+06
 0.75799995E+02 -0.76669E+06
 0.75849998E+02 -0.91781E+06
 0.75899994E+02 -0.10808E+07
 0.75949997E+02 -0.12122E+07
 0.75999992E+02 -0.12689E+07
 0.76049995E+02 -0.12530E+07
 0.76099998E+02 -0.11976E+07
 0.76149994E+02 -0.11237E+07
 0.76199997E+02 -0.10141E+07
 0.76249992E+02 -0.83136E+06
 0.76299995E+02 -0.57443E+06
 0.76349998E+02 -0.27908E+06
 0.76399994E+02  0.28315E+05
 0.76449997E+02  0.31097E+06
 0.76499992E+02  0.56436E+06
 0.76549995E+02  0.79854E+06
 0.76599998E+02  0.10091E+07
 0.76649994E+02  0.11773E+07
 0.76699997E+02  0.13028E+07
 0.76749992E+02  0.13971E+07
 0.76799995E+02  0.14193E+07
 0.76849998E+02  0.13182E+07
 0.76899994E+02  0.11258E+07
 0.76949997E+02  0.91120E+06
 0.76999992E+02  0.70233E+06
 0.77049995E+02  0.53685E+06
 0.77099998E+02  0.43616E+06
 0.77149994E+02  0.38495E+06
 0.77199997E+02  0.37476E+06
 0.77249992E+02  0.39893E+06
 0.77299995E+02  0.41703E+06
 0.77349998E+02  0.42069E+06
 0.77399994E+02  0.40580E+06
 0.77449997E+02  0.34981E+06
 0.77499992E+02  0.26295E+06
 0.77549995E+02  0.17457E+06
 0.77599998E+02  0.12678E+06
 0.77649994E+02  0.13544E+06
 0.77699997E+02  0.20270E+06
 0.77749992E+02  0.32306E+06
 0.77799995E+02  0.49742E+06
 0.77849998E+02  0.71603E+06
 0.77899994E+02  0.94660E+06
 0.77949997E+02  0.11629E+07
 0.77999992E+02  0.13414E+07
 0.78049995E+02  0.14698E+07
 0.78099998E+02  0.15437E+07
 0.78149994E+02  0.15665E+07
 0.78199997E+02  0.15305E+07
 0.78249992E+02  0.14217E+07
 0.78299995E+02  0.12639E+07
 0.78349998E+02  0.10848E+07
 0.78399994E+02  0.90334E+06
 0.78449997E+02  0.73791E+06
 0.78499992E+02  0.58404E+06
 0.78549995E+02  0.44050E+06
 0.78599998E+02  0.31956E+06
 0.78649994E+02  0.23269E+06
 0.78699997E+02  0.18362E+06
 0.78749992E+02  0.17530E+06
 0.78799995E+02  0.20482E+06
 0.78849998E+02  0.26059E+06
 0.78899994E+02  0.32061E+06
 0.78949997E+02  0.35295E+06
 0.78999992E+02  0.36159E+06
 0.79049995E+02  0.36266E+06
 0.79099998E+02  0.33884E+06
 0.79149994E+02  0.26773E+06
 0.79199997E+02  0.14287E+06
 0.79249992E+02 -0.30838E+05
 0.79299995E+02 -0.25082E+06
 0.79349998E+02 -0.50404E+06
 0.79399994E+02 -0.77075E+06
 0.79449997E+02 -0.10379E+07
 0.79499992E+02 -0.12931E+07
 0.79549995E+02 -0.15051E+07
 0.79599998E+02 -0.16445E+07
 0.79649994E+02 -0.17091E+07
 0.79699997E+02 -0.17316E+07
 0.79749992E+02 -0.17609E+07
 0.79799995E+02 -0.18139E+07
 0.79849998E+02 -0.19062E+07
 0.79899994E+02 -0.20349E+07
 0.79949997E+02 -0.21791E+07
 0.79999992E+02 -0.23178E+07
 0.80049995E+02 -0.24330E+07
 0.80099998E+02 -0.24980E+07
 0.80149994E+02 -0.24887E+07
 0.80199997E+02 -0.24030E+07
 0.80249992E+02 -0.22324E+07
 0.80299995E+02 -0.20013E+07
 0.80349998E+02 -0.17333E+07
 0.80399994E+02 -0.14378E+07
 0.80449997E+02 -0.11541E+07
 0.80499992E+02 -0.91713E+06
 0.80549995E+02 -0.74711E+06
 0.80599998E+02 -0.65323E+06
 0.80649994E+02 -0.62069E+06
 0.80699997E+02 -0.62109E+06
 0.80749992E+02 -0.63645E+06
 0.80799995E+02 -0.66730E+06
 0.80849998E+02 -0.71159E+06
 0.80899994E+02 -0.76436E+06
 0.80949997E+02 -0.82867E+06
 0.80999992E+02 -0.88336E+06
 0.81049995E+02 -0.88466E+06
 0.81099998E+02 -0.80831E+06
 0.81149994E+02 -0.66782E+06
 0.81199997E+02 -0.47334E+06
 0.81249992E+02 -0.24330E+06
 0.81299995E+02 -0.56631E+04
 0.81349998E+02  0.23887E+06
 0.81399994E+02  0.49213E+06
 0.81449997E+02  0.76467E+06
 0.81499992E+02  0.10569E+07
 0.81549995E+02  0.13333E+07
 0.81599998E+02  0.15687E+07
 0.81649994E+02  0.17625E+07
 0.81699997E+02  0.19006E+07
 0.81749992E+02  0.19785E+07
 0.81799995E+02  0.20270E+07
 0.81849998E+02  0.20778E+07
 0.81899994E+02  0.21717E+07
 0.81949997E+02  0.23331E+07
 0.81999992E+02  0.25196E+07
 0.82049995E+02  0.26853E+07
 0.82099998E+02  0.28183E+07
 0.82149994E+02  0.29166E+07
 0.82199997E+02  0.29807E+07
 0.82249992E+02  0.29999E+07
 0.82299995E+02  0.29700E+07
 0.82349998E+02  0.28919E+07
 0.82399994E+02  0.27656E+07
 0.82449997E+02  0.26106E+07
 0.82499992E+02  0.24484E+07
 0.82549995E+02  0.22733E+07
 0.82599998E+02  0.20942E+07
 0.82649994E+02  0.19247E+07
 0.82699997E+02  0.17572E+07
 0.82749992E+02  0.15887E+07
 0.82799995E+02  0.14166E+07
 0.82849998E+02  0.12336E+07
 0.82899994E+02  0.10404E+07
 0.82949997E+02  0.86766E+06
 0.82999992E+02  0.73145E+06
 0.83049995E+02  0.62559E+06
 0.83099998E+02  0.52763E+06
 0.83149994E+02  0.41783E+06
 0.83199997E+02  0.28886E+06
 0.83249992E+02  0.13373E+06
 0.83299995E+02 -0.51402E+05
 0.83349998E+02 -0.26794E+06
 0.83399994E+02 -0.51919E+06
 0.83449997E+02 -0.80385E+06
 0.83499992E+02 -0.11068E+07
 0.83549995E+02 -0.14247E+07
 0.83599998E+02 -0.17249E+07
 0.83649994E+02 -0.19712E+07
 0.83699997E+02 -0.21678E+07
 0.83749992E+02 -0.23121E+07
 0.83799995E+02 -0.24186E+07
 0.83849998E+02 -0.25203E+07
 0.83899994E+02 -0.26200E+07
 0.83949997E+02 -0.27023E+07
 0.83999992E+02 -0.27545E+07
 0.84049995E+02 -0.27847E+07
 0.84099998E+02 -0.28142E+07
 0.84149994E+02 -0.28602E+07
 0.84199997E+02 -0.29284E+07
 0.84249992E+02 -0.30216E+07
 0.84299995E+02 -0.31347E+07
 0.84349998E+02 -0.32529E+07
 0.84399994E+02 -0.33501E+07
 0.84449997E+02 -0.33935E+07
 0.84499992E+02 -0.33737E+07
 0.84549995E+02 -0.32904E+07
 0.84599998E+02 -0.31462E+07
 0.84649994E+02 -0.29531E+07
 0.84699997E+02 -0.27272E+07
 0.84749992E+02 -0.24786E+07
 0.84799995E+02 -0.22057E+07
 0.84849998E+02 -0.19177E+07
 0.84899994E+02 -0.16324E+07
 0.84949997E+02 -0.13680E+07
 0.84999992E+02 -0.11105E+07
 0.85049995E+02 -0.84145E+06
 0.85099998E+02 -0.57515E+06
 0.85149994E+02 -0.33418E+06
 0.85199997E+02 -0.12893E+06
 0.85249992E+02  0.50578E+05
 0.85299995E+02  0.22924E+06
 0.85349998E+02  0.43025E+06
 0.85399994E+02  0.65965E+06
 0.85449997E+02  0.91686E+06
 0.85499992E+02  0.11878E+07
 0.85549995E+02  0.14520E+07
 0.85599998E+02  0.16924E+07
 0.85649994E+02  0.18873E+07
 0.85699997E+02  0.20319E+07
 0.85749992E+02  0.21250E+07
 0.85799995E+02  0.21631E+07
 0.85849998E+02  0.21551E+07
 0.85899994E+02  0.21209E+07
 0.85949997E+02  0.20840E+07
 0.85999992E+02  0.20615E+07
 0.86049995E+02  0.20623E+07
 0.86099998E+02  0.20724E+07
 0.86149994E+02  0.20759E+07
 0.86199997E+02  0.20702E+07
 0.86249992E+02  0.20694E+07
 0.86299995E+02  0.20933E+07
 0.86349998E+02  0.21263E+07
 0.86399994E+02  0.21520E+07
 0.86449997E+02  0.21754E+07
 0.86499992E+02  0.21840E+07
 0.86549995E+02  0.21621E+07
 0.86599998E+02  0.21091E+07
 0.86649994E+02  0.20300E+07
 0.86699997E+02  0.19270E+07
 0.86749992E+02  0.17987E+07
 0.86799995E+02  0.16437E+07
 0.86849998E+02  0.14735E+07
 0.86899994E+02  0.12905E+07
 0.86949997E+02  0.10881E+07
 0.86999992E+02  0.87793E+06
 0.87049995E+02  0.66707E+06
 0.87099998E+02  0.47352E+06
 0.87149994E+02  0.31890E+06
 0.87199997E+02  0.21008E+06
 0.87249992E+02  0.13252E+06
 0.87299995E+02  0.64633E+05
 0.87349998E+02 -0.53971E+04
 0.87399994E+02 -0.85008E+05
 0.87449997E+02 -0.16713E+06
 0.87499992E+02 -0.25050E+06
 0.87549995E+02 -0.33970E+06
 0.87599991E+02 -0.44055E+06
 0.87649994E+02 -0.55689E+06
 0.87699997E+02 -0.68994E+06
 0.87749992E+02 -0.84091E+06
 0.87799995E+02 -0.10163E+07
 0.87849991E+02 -0.12227E+07
 0.87899994E+02 -0.14482E+07
 0.87949997E+02 -0.16698E+07
 0.87999992E+02 -0.18558E+07
 0.88049995E+02 -0.19800E+07
 0.88099991E+02 -0.20382E+07
 0.88149994E+02 -0.20455E+07
 0.88199997E+02 -0.20365E+07
 0.88249992E+02 -0.20244E+07
 0.88299995E+02 -0.20019E+07
 0.88349991E+02 -0.19689E+07
 0.88399994E+02 -0.19227E+07
 0.88449997E+02 -0.18573E+07
 0.88499992E+02 -0.17769E+07
 0.88549995E+02 -0.16900E+07
 0.88599991E+02 -0.15941E+07
 0.88649994E+02 -0.14898E+07
 0.88699997E+02 -0.13757E+07
 0.88749992E+02 -0.12515E+07
 0.88799995E+02 -0.11036E+07
 0.88849991E+02 -0.90880E+06
 0.88899994E+02 -0.66310E+06
 0.88949997E+02 -0.37736E+06
 0.88999992E+02 -0.57425E+05
 0.89049995E+02  0.28539E+06
 0.89099991E+02  0.60807E+06
 0.89149994E+02  0.87904E+06
 0.89199997E+02  0.10749E+07
 0.89249992E+02  0.11722E+07
 0.89299995E+02  0.11804E+07
 0.89349991E+02  0.11215E+07
 0.89399994E+02  0.10260E+07
 0.89449997E+02  0.92288E+06
 0.89499992E+02  0.83535E+06
 0.89549995E+02  0.78231E+06
 0.89599991E+02  0.76150E+06
 0.89649994E+02  0.75534E+06
 0.89699997E+02  0.75182E+06
 0.89749992E+02  0.75129E+06
 0.89799995E+02  0.75436E+06
 0.89849991E+02  0.76558E+06
 0.89899994E+02  0.78451E+06
 0.89949997E+02  0.80477E+06
 0.89999992E+02  0.82339E+06
 0.90049995E+02  0.83577E+06
 0.90099991E+02  0.83857E+06
 0.90149994E+02  0.83981E+06
 0.90199997E+02  0.84665E+06
 0.90249992E+02  0.85436E+06
 0.90299995E+02  0.86178E+06
 0.90349991E+02  0.86318E+06
 0.90399994E+02  0.85493E+06
 0.90449997E+02  0.84532E+06
 0.90499992E+02  0.83933E+06
 0.90549995E+02  0.84021E+06
 0.90599991E+02  0.84977E+06
 0.90649994E+02  0.86521E+06
 0.90699997E+02  0.87392E+06
 0.90749992E+02  0.85219E+06
 0.90799995E+02  0.78388E+06
 0.90849991E+02  0.67220E+06
 0.90899994E+02  0.52476E+06
 0.90949997E+02  0.34710E+06
 0.90999992E+02  0.15890E+06
 0.91049995E+02 -0.28519E+05
 0.91099991E+02 -0.21394E+06
 0.91149994E+02 -0.39814E+06
 0.91199997E+02 -0.58255E+06
 0.91249992E+02 -0.74560E+06
 0.91299995E+02 -0.87291E+06
 0.91349991E+02 -0.96884E+06
 0.91399994E+02 -0.10444E+07
 0.91449997E+02 -0.11060E+07
 0.91499992E+02 -0.11425E+07
 0.91549995E+02 -0.11559E+07
 0.91599991E+02 -0.11475E+07
 0.91649994E+02 -0.11063E+07
 0.91699997E+02 -0.10292E+07
 0.91749992E+02 -0.92344E+06
 0.91799995E+02 -0.80667E+06
 0.91849991E+02 -0.69437E+06
 0.91899994E+02 -0.60205E+06
 0.91949997E+02 -0.53467E+06
 0.91999992E+02 -0.47133E+06
 0.92049995E+02 -0.39769E+06
 0.92099991E+02 -0.32408E+06
 0.92149994E+02 -0.26486E+06
 0.92199997E+02 -0.21827E+06
 0.92249992E+02 -0.18104E+06
 0.92299995E+02 -0.15776E+06
 0.92349991E+02 -0.14584E+06
 0.92399994E+02 -0.13960E+06
 0.92449997E+02 -0.12589E+06
 0.92499992E+02 -0.10464E+06
 0.92549995E+02 -0.82456E+05
 0.92599991E+02 -0.57925E+05
 0.92649994E+02 -0.31049E+05
 0.92699997E+02 -0.96108E+04
 0.92749992E+02 -0.70574E+04
 0.92799995E+02 -0.31591E+05
 0.92849991E+02 -0.77085E+05
 0.92899994E+02 -0.13631E+06
 0.92949997E+02 -0.20021E+06
 0.92999992E+02 -0.25991E+06
 0.93049995E+02 -0.31447E+06
 0.93099991E+02 -0.35373E+06
 0.93149994E+02 -0.37571E+06
 0.93199997E+02 -0.38145E+06
 0.93249992E+02 -0.37811E+06
 0.93299995E+02 -0.36989E+06
 0.93349991E+02 -0.35850E+06
 0.93399994E+02 -0.34468E+06
 0.93449997E+02 -0.32522E+06
 0.93499992E+02 -0.29493E+06
 0.93549995E+02 -0.26088E+06
 0.93599991E+02 -0.25264E+06
 0.93649994E+02 -0.29093E+06
 0.93699997E+02 -0.37483E+06
 0.93749992E+02 -0.49725E+06
 0.93799995E+02 -0.64916E+06
 0.93849991E+02 -0.80364E+06
 0.93899994E+02 -0.94094E+06
 0.93949997E+02 -0.10528E+07
 0.93999992E+02 -0.11347E+07
 0.94049995E+02 -0.11917E+07
 0.94099991E+02 -0.12263E+07
 0.94149994E+02 -0.12322E+07
 0.94199997E+02 -0.11993E+07
 0.94249992E+02 -0.11218E+07
 0.94299995E+02 -0.99762E+06
 0.94349991E+02 -0.83750E+06
 0.94399994E+02 -0.66710E+06
 0.94449997E+02 -0.50224E+06
 0.94499992E+02 -0.34764E+06
 0.94549995E+02 -0.19849E+06
 0.94599991E+02 -0.61162E+05
 0.94649994E+02  0.45968E+05
 0.94699997E+02  0.12705E+06
 0.94749992E+02  0.18490E+06
 0.94799995E+02  0.22256E+06
 0.94849991E+02  0.25294E+06
 0.94899994E+02  0.29699E+06
 0.94949997E+02  0.36951E+06
 0.94999992E+02  0.46544E+06
 0.95049995E+02  0.57824E+06
 0.95099991E+02  0.69478E+06
 0.95149994E+02  0.79803E+06
 0.95199997E+02  0.88175E+06
 0.95249992E+02  0.95315E+06
 0.95299995E+02  0.10212E+07
 0.95349991E+02  0.10752E+07
 0.95399994E+02  0.10938E+07
 0.95449997E+02  0.10637E+07
 0.95499992E+02  0.98342E+06
 0.95549995E+02  0.87372E+06
 0.95599991E+02  0.75645E+06
 0.95649994E+02  0.65090E+06
 0.95699997E+02  0.57846E+06
 0.95749992E+02  0.53753E+06
 0.95799995E+02  0.52399E+06
 0.95849991E+02  0.53040E+06
 0.95899994E+02  0.53573E+06
 0.95949997E+02  0.52971E+06
 0.95999992E+02  0.50757E+06
 0.96049995E+02  0.47477E+06
 0.96099991E+02  0.43911E+06
 0.96149994E+02  0.39955E+06
 0.96199997E+02  0.34904E+06
 0.96249992E+02  0.28337E+06
 0.96299995E+02  0.20824E+06
 0.96349991E+02  0.13079E+06
 0.96399994E+02  0.58147E+05
 0.96449997E+02 -0.15373E+05
 0.96499992E+02 -0.87797E+05
 0.96549995E+02 -0.14047E+06
 0.96599991E+02 -0.16646E+06
 0.96649994E+02 -0.16303E+06
 0.96699997E+02 -0.13015E+06
 0.96749992E+02 -0.72719E+05
 0.96799995E+02  0.30777E+04
 0.96849991E+02  0.89584E+05
 0.96899994E+02  0.18599E+06
 0.96949997E+02  0.29309E+06
 0.96999992E+02  0.40448E+06
 0.97049995E+02  0.51595E+06
 0.97099991E+02  0.61943E+06
 0.97149994E+02  0.69657E+06
 0.97199997E+02  0.73963E+06
 0.97249992E+02  0.75889E+06
 0.97299995E+02  0.77182E+06
 0.97349991E+02  0.78540E+06
 0.97399994E+02  0.80887E+06
 0.97449997E+02  0.84648E+06
 0.97499992E+02  0.87733E+06
 0.97549995E+02  0.87526E+06
 0.97599991E+02  0.83002E+06
 0.97649994E+02  0.75032E+06
 0.97699997E+02  0.64955E+06
 0.97749992E+02  0.53913E+06
 0.97799995E+02  0.42261E+06
 0.97849991E+02  0.29067E+06
 0.97899994E+02  0.14376E+06
 0.97949997E+02 -0.39081E+04
 0.97999992E+02 -0.14393E+06
