-0.20000000E+01 -0.20725E+05
-0.19500000E+01 -0.27139E+05
-0.19000000E+01 -0.33545E+05
-0.18500000E+01 -0.39311E+05
-0.18000000E+01 -0.44158E+05
-0.17500000E+01 -0.47582E+05
-0.17000000E+01 -0.49493E+05
-0.16500001E+01 -0.49928E+05
-0.16000000E+01 -0.48839E+05
-0.15500000E+01 -0.46731E+05
-0.15000000E+01 -0.44368E+05
-0.14500000E+01 -0.42128E+05
-0.14000001E+01 -0.39545E+05
-0.13500000E+01 -0.36677E+05
-0.13000001E+01 -0.34422E+05
-0.12500000E+01 -0.33515E+05
-0.12000000E+01 -0.34156E+05
-0.11500001E+01 -0.35608E+05
-0.11000000E+01 -0.37434E+05
-0.10500001E+01 -0.39419E+05
-0.10000000E+01 -0.41827E+05
-0.95000005E+00 -0.44507E+05
-0.90000010E+00 -0.46837E+05
-0.85000002E+00 -0.48458E+05
-0.80000007E+00 -0.49031E+05
-0.75000012E+00 -0.48567E+05
-0.70000005E+00 -0.46655E+05
-0.65000010E+00 -0.43178E+05
-0.60000014E+00 -0.38651E+05
-0.55000007E+00 -0.33881E+05
-0.50000012E+00 -0.29576E+05
-0.45000005E+00 -0.25669E+05
-0.40000010E+00 -0.21873E+05
-0.35000014E+00 -0.17993E+05
-0.30000007E+00 -0.14126E+05
-0.25000012E+00 -0.10190E+05
-0.20000005E+00 -0.61648E+04
-0.15000010E+00 -0.19723E+04
-0.10000014E+00  0.23134E+04
-0.50000072E-01  0.63102E+04
-0.11920929E-06  0.10307E+05
 0.49999952E-01  0.14415E+05
 0.99999905E-01  0.18687E+05
 0.14999986E+00  0.23334E+05
 0.19999981E+00  0.28429E+05
 0.24999976E+00  0.33709E+05
 0.29999995E+00  0.38948E+05
 0.34999990E+00  0.44206E+05
 0.39999986E+00  0.49397E+05
 0.44999981E+00  0.54250E+05
 0.49999976E+00  0.58355E+05
 0.54999995E+00  0.61479E+05
 0.59999990E+00  0.63557E+05
 0.64999986E+00  0.64613E+05
 0.69999981E+00  0.64806E+05
 0.74999976E+00  0.64173E+05
 0.79999971E+00  0.62563E+05
 0.84999990E+00  0.59646E+05
 0.89999986E+00  0.54853E+05
 0.94999981E+00  0.48065E+05
 0.99999976E+00  0.39653E+05
 0.10499997E+01  0.30703E+05
 0.10999999E+01  0.21790E+05
 0.11499999E+01  0.13238E+05
 0.11999998E+01  0.52251E+04
 0.12499998E+01 -0.25921E+04
 0.12999997E+01 -0.97802E+04
 0.13499999E+01 -0.15761E+05
 0.13999999E+01 -0.20155E+05
 0.14499998E+01 -0.23107E+05
 0.14999998E+01 -0.24691E+05
 0.15499997E+01 -0.24833E+05
 0.15999999E+01 -0.23637E+05
 0.16499999E+01 -0.21809E+05
 0.16999998E+01 -0.20134E+05
 0.17499998E+01 -0.18950E+05
 0.17999997E+01 -0.18082E+05
 0.18499997E+01 -0.17542E+05
 0.18999999E+01 -0.17353E+05
 0.19499998E+01 -0.17479E+05
 0.19999998E+01 -0.18287E+05
 0.20499997E+01 -0.19734E+05
 0.20999999E+01 -0.21703E+05
 0.21499996E+01 -0.24163E+05
 0.21999998E+01 -0.26994E+05
 0.22499995E+01 -0.30071E+05
 0.22999997E+01 -0.33633E+05
 0.23499999E+01 -0.37188E+05
 0.23999996E+01 -0.40453E+05
 0.24499998E+01 -0.43820E+05
 0.24999995E+01 -0.47409E+05
 0.25499997E+01 -0.51416E+05
 0.25999999E+01 -0.55996E+05
 0.26499996E+01 -0.61239E+05
 0.26999998E+01 -0.66779E+05
 0.27499995E+01 -0.71626E+05
 0.27999997E+01 -0.75083E+05
 0.28499999E+01 -0.76929E+05
 0.28999996E+01 -0.77420E+05
 0.29499998E+01 -0.77003E+05
 0.29999995E+01 -0.75551E+05
 0.30499997E+01 -0.72873E+05
 0.30999999E+01 -0.68522E+05
 0.31499996E+01 -0.62109E+05
 0.31999998E+01 -0.53748E+05
 0.32499995E+01 -0.43575E+05
 0.32999997E+01 -0.31850E+05
 0.33499999E+01 -0.19254E+05
 0.33999996E+01 -0.64566E+04
 0.34499998E+01  0.57376E+04
 0.34999995E+01  0.16750E+05
 0.35499997E+01  0.26374E+05
 0.35999994E+01  0.34646E+05
 0.36499996E+01  0.41747E+05
 0.36999998E+01  0.47813E+05
 0.37499995E+01  0.53044E+05
 0.37999997E+01  0.57952E+05
 0.38499994E+01  0.63482E+05
 0.38999996E+01  0.69481E+05
 0.39499998E+01  0.75405E+05
 0.39999995E+01  0.81441E+05
 0.40499997E+01  0.87832E+05
 0.40999994E+01  0.94341E+05
 0.41499996E+01  0.10092E+06
 0.41999998E+01  0.10717E+06
 0.42499995E+01  0.11264E+06
 0.42999997E+01  0.11716E+06
 0.43499994E+01  0.12035E+06
 0.43999996E+01  0.12187E+06
 0.44499998E+01  0.12177E+06
 0.44999995E+01  0.12010E+06
 0.45499997E+01  0.11676E+06
 0.45999994E+01  0.11193E+06
 0.46499996E+01  0.10520E+06
 0.46999998E+01  0.96353E+05
 0.47499995E+01  0.85848E+05
 0.47999997E+01  0.74311E+05
 0.48499994E+01  0.62218E+05
 0.48999996E+01  0.49585E+05
 0.49499998E+01  0.36470E+05
 0.49999995E+01  0.23177E+05
 0.50499997E+01  0.10335E+05
 0.50999994E+01 -0.15268E+04
 0.51499996E+01 -0.12432E+05
 0.51999998E+01 -0.22174E+05
 0.52499995E+01 -0.31213E+05
 0.52999997E+01 -0.39753E+05
 0.53499994E+01 -0.47782E+05
 0.53999996E+01 -0.55289E+05
 0.54499993E+01 -0.62135E+05
 0.54999995E+01 -0.68195E+05
 0.55499997E+01 -0.72891E+05
 0.55999994E+01 -0.76391E+05
 0.56499996E+01 -0.78704E+05
 0.56999993E+01 -0.80446E+05
 0.57499995E+01 -0.81641E+05
 0.57999997E+01 -0.82164E+05
 0.58499994E+01 -0.82625E+05
 0.58999996E+01 -0.82918E+05
 0.59499993E+01 -0.83513E+05
 0.59999995E+01 -0.84684E+05
 0.60499992E+01 -0.86299E+05
 0.60999994E+01 -0.87822E+05
 0.61499996E+01 -0.88579E+05
 0.61999998E+01 -0.88504E+05
 0.62499990E+01 -0.87905E+05
 0.62999992E+01 -0.86578E+05
 0.63499994E+01 -0.83699E+05
 0.63999996E+01 -0.78983E+05
 0.64499998E+01 -0.72500E+05
 0.64999990E+01 -0.64223E+05
 0.65499992E+01 -0.54491E+05
 0.65999994E+01 -0.43761E+05
 0.66499996E+01 -0.32839E+05
 0.66999998E+01 -0.22618E+05
 0.67499990E+01 -0.13332E+05
 0.67999992E+01 -0.49944E+04
 0.68499994E+01  0.25589E+04
 0.68999996E+01  0.91915E+04
 0.69499998E+01  0.14529E+05
 0.69999990E+01  0.18385E+05
 0.70499992E+01  0.21026E+05
 0.70999994E+01  0.22919E+05
 0.71499996E+01  0.24397E+05
 0.71999998E+01  0.25322E+05
 0.72499990E+01  0.25668E+05
 0.72999992E+01  0.25223E+05
 0.73499994E+01  0.23895E+05
 0.73999996E+01  0.21889E+05
 0.74499998E+01  0.19455E+05
 0.74999990E+01  0.17206E+05
 0.75499992E+01  0.15364E+05
 0.75999994E+01  0.14072E+05
 0.76499996E+01  0.13126E+05
 0.76999998E+01  0.12033E+05
 0.77499990E+01  0.10843E+05
 0.77999992E+01  0.10055E+05
 0.78499994E+01  0.10338E+05
 0.78999996E+01  0.11500E+05
 0.79499998E+01  0.12801E+05
 0.79999990E+01  0.13777E+05
 0.80499992E+01  0.13876E+05
 0.80999994E+01  0.13540E+05
 0.81499996E+01  0.12988E+05
 0.81999998E+01  0.11706E+05
 0.82499990E+01  0.95252E+04
 0.82999992E+01  0.70650E+04
 0.83499994E+01  0.45276E+04
 0.83999996E+01  0.17663E+04
 0.84499998E+01 -0.13043E+04
 0.84999990E+01 -0.46157E+04
 0.85499992E+01 -0.78915E+04
 0.85999994E+01 -0.11521E+05
 0.86499996E+01 -0.15208E+05
 0.86999998E+01 -0.18393E+05
 0.87499990E+01 -0.20440E+05
 0.87999992E+01 -0.21159E+05
 0.88499994E+01 -0.20473E+05
 0.88999996E+01 -0.18774E+05
 0.89499998E+01 -0.16776E+05
 0.89999990E+01 -0.14824E+05
 0.90499992E+01 -0.13416E+05
 0.90999994E+01 -0.12618E+05
 0.91499996E+01 -0.12276E+05
 0.91999989E+01 -0.12541E+05
 0.92499990E+01 -0.13178E+05
 0.92999992E+01 -0.13855E+05
 0.93499994E+01 -0.14578E+05
 0.93999996E+01 -0.15430E+05
 0.94499989E+01 -0.16613E+05
 0.94999990E+01 -0.18120E+05
 0.95499992E+01 -0.19901E+05
 0.95999994E+01 -0.21666E+05
 0.96499996E+01 -0.23143E+05
 0.96999989E+01 -0.24114E+05
 0.97499990E+01 -0.24645E+05
 0.97999992E+01 -0.24799E+05
 0.98499994E+01 -0.24525E+05
 0.98999996E+01 -0.23357E+05
 0.99499989E+01 -0.21186E+05
 0.99999990E+01 -0.18392E+05
 0.10049999E+02 -0.14820E+05
 0.10099999E+02 -0.10407E+05
 0.10150000E+02 -0.52711E+04
 0.10199999E+02  0.62192E+02
 0.10249999E+02  0.49635E+04
 0.10299999E+02  0.91552E+04
 0.10349999E+02  0.12838E+05
 0.10400000E+02  0.15997E+05
 0.10449999E+02  0.18407E+05
 0.10499999E+02  0.20278E+05
 0.10549999E+02  0.21658E+05
 0.10599999E+02  0.22656E+05
 0.10650000E+02  0.23418E+05
 0.10699999E+02  0.23466E+05
 0.10749999E+02  0.22880E+05
 0.10799999E+02  0.22002E+05
 0.10849999E+02  0.20934E+05
 0.10900000E+02  0.19972E+05
 0.10949999E+02  0.19193E+05
 0.10999999E+02  0.18472E+05
 0.11049999E+02  0.18299E+05
 0.11099999E+02  0.19287E+05
 0.11150000E+02  0.20872E+05
 0.11199999E+02  0.22638E+05
 0.11249999E+02  0.24155E+05
 0.11299999E+02  0.25356E+05
 0.11349999E+02  0.26838E+05
 0.11400000E+02  0.28844E+05
 0.11449999E+02  0.31188E+05
 0.11499999E+02  0.33404E+05
 0.11549999E+02  0.34876E+05
 0.11599999E+02  0.35396E+05
 0.11650000E+02  0.35031E+05
 0.11699999E+02  0.33723E+05
 0.11749999E+02  0.31505E+05
 0.11799999E+02  0.28166E+05
 0.11849999E+02  0.23712E+05
 0.11900000E+02  0.18136E+05
 0.11949999E+02  0.11723E+05
 0.11999999E+02  0.47292E+04
 0.12049999E+02 -0.30012E+04
 0.12099999E+02 -0.10921E+05
 0.12150000E+02 -0.18094E+05
 0.12199999E+02 -0.24292E+05
 0.12249999E+02 -0.29067E+05
 0.12299999E+02 -0.32405E+05
 0.12349999E+02 -0.34680E+05
 0.12400000E+02 -0.36146E+05
 0.12449999E+02 -0.37032E+05
 0.12499999E+02 -0.36973E+05
 0.12549999E+02 -0.36305E+05
 0.12599999E+02 -0.35458E+05
 0.12649999E+02 -0.34521E+05
 0.12699999E+02 -0.33416E+05
 0.12749999E+02 -0.32173E+05
 0.12799999E+02 -0.30569E+05
 0.12849999E+02 -0.28349E+05
 0.12899999E+02 -0.26048E+05
 0.12949999E+02 -0.23958E+05
 0.12999999E+02 -0.22081E+05
 0.13049999E+02 -0.20262E+05
 0.13099999E+02 -0.18639E+05
 0.13149999E+02 -0.17470E+05
 0.13199999E+02 -0.16336E+05
 0.13249999E+02 -0.14678E+05
 0.13299999E+02 -0.11702E+05
 0.13349999E+02 -0.73066E+04
 0.13399999E+02 -0.20350E+04
 0.13449999E+02  0.34585E+04
 0.13499999E+02  0.87792E+04
 0.13549999E+02  0.13983E+05
 0.13599999E+02  0.19189E+05
 0.13649999E+02  0.24199E+05
 0.13699999E+02  0.28638E+05
 0.13749999E+02  0.32640E+05
 0.13799999E+02  0.35765E+05
 0.13849999E+02  0.37943E+05
 0.13899999E+02  0.39184E+05
 0.13949999E+02  0.38892E+05
 0.13999999E+02  0.37167E+05
 0.14049999E+02  0.34203E+05
 0.14099998E+02  0.29969E+05
 0.14150000E+02  0.24804E+05
 0.14199999E+02  0.19102E+05
 0.14249998E+02  0.13019E+05
 0.14299999E+02  0.67486E+04
 0.14349998E+02  0.50257E+03
 0.14400000E+02 -0.56814E+04
 0.14449999E+02 -0.11678E+05
 0.14499998E+02 -0.17133E+05
 0.14549999E+02 -0.21868E+05
 0.14599998E+02 -0.26060E+05
 0.14650000E+02 -0.29486E+05
 0.14699999E+02 -0.32110E+05
 0.14749998E+02 -0.34319E+05
 0.14799999E+02 -0.36413E+05
 0.14849998E+02 -0.38653E+05
 0.14900000E+02 -0.40818E+05
 0.14949999E+02 -0.42342E+05
 0.14999998E+02 -0.42879E+05
 0.15049999E+02 -0.42314E+05
 0.15099998E+02 -0.40797E+05
 0.15150000E+02 -0.38630E+05
 0.15199999E+02 -0.35821E+05
 0.15249998E+02 -0.32594E+05
 0.15299999E+02 -0.29196E+05
 0.15349998E+02 -0.25934E+05
 0.15400000E+02 -0.23185E+05
 0.15449999E+02 -0.21310E+05
 0.15499998E+02 -0.20002E+05
 0.15549999E+02 -0.18548E+05
 0.15599998E+02 -0.16516E+05
 0.15650000E+02 -0.13356E+05
 0.15699999E+02 -0.89203E+04
 0.15749998E+02 -0.37565E+04
 0.15799999E+02  0.18028E+04
 0.15849998E+02  0.83827E+04
 0.15900000E+02  0.15861E+05
 0.15949999E+02  0.23889E+05
 0.15999998E+02  0.31823E+05
 0.16049999E+02  0.38856E+05
 0.16099998E+02  0.44980E+05
 0.16150000E+02  0.49612E+05
 0.16199999E+02  0.52219E+05
 0.16249998E+02  0.52507E+05
 0.16299999E+02  0.50443E+05
 0.16349998E+02  0.46354E+05
 0.16400000E+02  0.40813E+05
 0.16449999E+02  0.33962E+05
 0.16499998E+02  0.25957E+05
 0.16549999E+02  0.16944E+05
 0.16599998E+02  0.74156E+04
 0.16650000E+02 -0.21172E+04
 0.16699999E+02 -0.11200E+05
 0.16749998E+02 -0.18924E+05
 0.16799999E+02 -0.25265E+05
 0.16849998E+02 -0.29737E+05
 0.16900000E+02 -0.32057E+05
 0.16949999E+02 -0.32330E+05
 0.16999998E+02 -0.30528E+05
 0.17049999E+02 -0.26679E+05
 0.17099998E+02 -0.21151E+05
 0.17150000E+02 -0.14514E+05
 0.17199999E+02 -0.73346E+04
 0.17249998E+02 -0.36372E+02
 0.17299999E+02  0.72390E+04
 0.17349998E+02  0.13918E+05
 0.17400000E+02  0.19352E+05
 0.17449999E+02  0.23425E+05
 0.17499998E+02  0.26226E+05
 0.17549999E+02  0.27641E+05
 0.17599998E+02  0.27526E+05
 0.17650000E+02  0.25811E+05
 0.17699999E+02  0.22566E+05
 0.17749998E+02  0.17709E+05
 0.17799999E+02  0.11814E+05
 0.17849998E+02  0.55983E+04
 0.17900000E+02 -0.71761E+03
 0.17949999E+02 -0.70643E+04
 0.17999998E+02 -0.13551E+05
 0.18049999E+02 -0.19826E+05
 0.18099998E+02 -0.25436E+05
 0.18150000E+02 -0.29986E+05
 0.18199999E+02 -0.33165E+05
 0.18249998E+02 -0.35087E+05
 0.18299999E+02 -0.35989E+05
 0.18349998E+02 -0.36428E+05
 0.18400000E+02 -0.36512E+05
 0.18449999E+02 -0.36659E+05
 0.18499998E+02 -0.36300E+05
 0.18549999E+02 -0.35466E+05
 0.18599998E+02 -0.34871E+05
 0.18650000E+02 -0.33841E+05
 0.18699999E+02 -0.32461E+05
 0.18749998E+02 -0.30904E+05
 0.18799999E+02 -0.29022E+05
 0.18849998E+02 -0.25159E+05
 0.18900000E+02 -0.15240E+05
 0.18949999E+02 -0.27722E+04
 0.18999998E+02 -0.18814E+04
 0.19049999E+02 -0.77352E+04
 0.19099998E+02  0.60458E+04
 0.19150000E+02  0.25276E+05
 0.19199999E+02  0.73950E+04
 0.19249998E+02 -0.22306E+05
 0.19299999E+02 -0.29744E+05
 0.19349998E+02  0.24003E+04
 0.19400000E+02  0.50546E+05
 0.19449999E+02  0.82638E+05
 0.19499998E+02  0.13431E+06
 0.19549999E+02  0.14717E+06
 0.19599998E+02  0.15483E+06
 0.19650000E+02  0.20608E+06
 0.19699999E+02  0.16464E+06
 0.19749998E+02  0.89507E+05
 0.19799999E+02  0.40175E+05
 0.19849998E+02  0.19561E+05
 0.19900000E+02  0.60291E+05
 0.19949999E+02 -0.79067E+04
 0.19999998E+02 -0.51707E+05
 0.20049999E+02  0.58546E+05
 0.20099998E+02  0.14343E+06
 0.20150000E+02  0.18571E+06
 0.20199999E+02  0.22020E+06
 0.20249998E+02  0.28697E+06
 0.20299999E+02  0.27631E+06
 0.20349998E+02  0.11547E+06
 0.20399998E+02  0.48873E+05
 0.20449999E+02  0.73935E+05
 0.20499998E+02  0.16467E+05
 0.20549999E+02  0.54174E+05
 0.20599998E+02  0.73508E+05
 0.20649998E+02 -0.92048E+04
 0.20699999E+02 -0.21232E+05
 0.20749998E+02 -0.38726E+05
 0.20799999E+02  0.28982E+04
 0.20849998E+02 -0.92153E+04
 0.20899998E+02  0.60877E+05
 0.20949999E+02  0.21504E+06
 0.20999998E+02  0.18637E+06
 0.21049999E+02  0.12214E+06
 0.21099998E+02 -0.25524E+05
 0.21149998E+02 -0.47883E+05
 0.21199999E+02 -0.16287E+05
 0.21249998E+02 -0.13077E+06
 0.21299999E+02 -0.60050E+05
 0.21349998E+02 -0.11399E+05
 0.21399998E+02  0.75080E+04
 0.21449999E+02  0.91961E+05
 0.21499998E+02  0.10641E+06
 0.21549999E+02  0.83841E+05
 0.21599998E+02 -0.13653E+05
 0.21649998E+02  0.70536E+05
 0.21699999E+02  0.14791E+06
 0.21749998E+02  0.50968E+05
 0.21799999E+02  0.71770E+03
 0.21849998E+02 -0.48179E+05
 0.21899998E+02 -0.14877E+06
 0.21949999E+02 -0.84164E+05
 0.21999998E+02  0.34690E+05
 0.22049999E+02  0.67112E+05
 0.22099998E+02  0.33740E+05
 0.22149998E+02  0.54049E+05
 0.22199999E+02  0.11516E+06
 0.22249998E+02 -0.81250E+04
 0.22299999E+02 -0.28622E+05
 0.22349998E+02  0.78154E+05
 0.22399998E+02  0.11079E+06
 0.22449999E+02 -0.24454E+05
 0.22499998E+02 -0.12349E+06
 0.22549999E+02 -0.55531E+05
 0.22599998E+02 -0.14692E+05
 0.22649998E+02 -0.16454E+06
 0.22699999E+02 -0.16458E+06
 0.22749998E+02  0.72962E+05
 0.22799999E+02  0.26716E+06
 0.22849998E+02  0.30666E+06
 0.22899998E+02  0.16174E+06
 0.22949999E+02  0.75018E+05
 0.22999998E+02  0.17111E+05
 0.23049999E+02 -0.23895E+06
 0.23099998E+02 -0.42161E+06
 0.23149998E+02 -0.31953E+06
 0.23199999E+02 -0.19420E+06
 0.23249998E+02 -0.15922E+06
 0.23299999E+02 -0.19393E+06
 0.23349998E+02 -0.14120E+06
 0.23399998E+02 -0.24435E+06
 0.23449999E+02 -0.29736E+06
 0.23499998E+02 -0.83161E+05
 0.23549999E+02 -0.38208E+04
 0.23599998E+02  0.72776E+04
 0.23649998E+02 -0.64393E+05
 0.23699999E+02 -0.15734E+06
 0.23749998E+02 -0.25163E+06
 0.23799999E+02 -0.61633E+05
 0.23849998E+02  0.77214E+05
 0.23899998E+02 -0.16426E+06
 0.23949999E+02 -0.37171E+06
 0.23999998E+02 -0.61919E+06
 0.24049999E+02 -0.47951E+06
 0.24099998E+02 -0.71343E+05
 0.24149998E+02  0.68535E+05
 0.24199999E+02 -0.16276E+05
 0.24249998E+02 -0.34379E+06
 0.24299999E+02 -0.64468E+06
 0.24349998E+02 -0.64219E+06
 0.24399998E+02 -0.44358E+06
 0.24449999E+02 -0.21580E+05
 0.24499998E+02  0.26625E+06
 0.24549999E+02  0.35822E+06
 0.24599998E+02  0.18807E+06
 0.24649998E+02  0.27593E+05
 0.24699999E+02  0.82268E+04
 0.24749998E+02 -0.18511E+06
 0.24799999E+02 -0.60272E+05
 0.24849998E+02  0.10800E+06
 0.24899998E+02  0.13485E+06
 0.24949999E+02 -0.12425E+06
 0.24999998E+02 -0.27536E+06
 0.25049999E+02 -0.20061E+06
 0.25099998E+02 -0.25370E+06
 0.25149998E+02 -0.20577E+06
 0.25199999E+02 -0.11274E+06
 0.25249998E+02  0.81631E+05
 0.25299999E+02  0.30555E+06
 0.25349998E+02  0.37098E+06
 0.25399998E+02  0.25803E+06
 0.25449999E+02 -0.19052E+05
 0.25499998E+02 -0.25639E+06
 0.25549999E+02 -0.17176E+06
 0.25599998E+02 -0.18768E+05
 0.25649998E+02  0.12131E+06
 0.25699999E+02  0.14065E+06
 0.25749998E+02  0.19162E+06
 0.25799999E+02  0.18897E+06
 0.25849998E+02  0.91207E+05
 0.25899998E+02  0.72282E+05
 0.25949999E+02  0.11293E+06
 0.25999998E+02  0.96150E+05
 0.26049999E+02  0.43547E+05
 0.26099998E+02  0.97186E+05
 0.26149998E+02  0.94577E+05
 0.26199999E+02  0.22273E+06
 0.26249998E+02  0.19482E+06
 0.26299999E+02 -0.77734E+05
 0.26349998E+02 -0.30871E+06
 0.26399998E+02 -0.22971E+06
 0.26449999E+02  0.14128E+06
 0.26499998E+02  0.42656E+06
 0.26549999E+02  0.66616E+06
 0.26599998E+02  0.73079E+06
 0.26649998E+02  0.47390E+06
 0.26699999E+02  0.10529E+06
 0.26749998E+02 -0.25615E+06
 0.26799999E+02 -0.16227E+06
 0.26849998E+02  0.15949E+06
 0.26899998E+02  0.23245E+06
 0.26949999E+02  0.17367E+06
 0.26999998E+02 -0.24878E+06
 0.27049997E+02 -0.54299E+06
 0.27099998E+02 -0.36829E+06
 0.27149998E+02 -0.16405E+06
 0.27199999E+02 -0.54660E+04
 0.27249998E+02  0.37546E+05
 0.27299997E+02  0.12935E+05
 0.27349998E+02  0.52419E+05
 0.27399998E+02  0.20767E+05
 0.27449999E+02 -0.23561E+06
 0.27499998E+02 -0.28566E+06
 0.27549997E+02  0.17346E+06
 0.27599998E+02  0.53765E+06
 0.27649998E+02  0.51436E+06
 0.27699999E+02  0.28704E+06
 0.27749998E+02  0.97704E+05
 0.27799997E+02  0.58849E+04
 0.27849998E+02 -0.77482E+05
 0.27899998E+02 -0.10870E+05
 0.27949999E+02  0.53600E+05
 0.27999998E+02 -0.26090E+05
 0.28049997E+02 -0.19367E+06
 0.28099998E+02 -0.45767E+06
 0.28149998E+02 -0.47859E+06
 0.28199999E+02 -0.24754E+06
 0.28249998E+02 -0.40240E+05
 0.28299997E+02  0.12258E+06
 0.28349998E+02  0.39236E+06
 0.28399998E+02  0.69037E+06
 0.28449999E+02  0.49826E+06
 0.28499998E+02  0.15525E+06
 0.28549997E+02  0.28735E+05
 0.28599998E+02 -0.23928E+06
 0.28649998E+02 -0.40486E+06
 0.28699999E+02 -0.29099E+06
 0.28749998E+02 -0.12493E+05
 0.28799997E+02  0.19305E+06
 0.28849998E+02  0.19615E+06
 0.28899998E+02  0.11805E+06
 0.28949999E+02  0.64256E+05
 0.28999998E+02 -0.30824E+05
 0.29049997E+02 -0.20946E+06
 0.29099998E+02 -0.27000E+06
 0.29149998E+02 -0.35976E+06
 0.29199999E+02 -0.29359E+06
 0.29249998E+02 -0.69932E+05
 0.29299997E+02  0.11477E+06
 0.29349998E+02  0.21131E+06
 0.29399998E+02  0.11252E+06
 0.29449999E+02 -0.42582E+05
 0.29499998E+02 -0.12641E+06
 0.29549997E+02  0.36191E+04
 0.29599998E+02  0.13029E+06
 0.29649998E+02  0.21272E+06
 0.29699999E+02  0.22354E+06
 0.29749998E+02 -0.93977E+05
 0.29799997E+02 -0.33099E+06
 0.29849998E+02 -0.35436E+06
 0.29899998E+02 -0.38094E+06
 0.29949999E+02 -0.42685E+06
 0.29999998E+02 -0.38025E+06
 0.30049999E+02 -0.22036E+06
 0.30099998E+02 -0.26927E+06
 0.30149998E+02 -0.57034E+06
 0.30199997E+02 -0.61960E+06
 0.30249996E+02 -0.43534E+06
 0.30299999E+02 -0.30309E+06
 0.30349998E+02 -0.19758E+06
 0.30399998E+02 -0.36462E+06
 0.30449997E+02 -0.63360E+06
 0.30499996E+02 -0.74782E+06
 0.30549999E+02 -0.57513E+06
 0.30599998E+02 -0.17882E+06
 0.30649998E+02  0.85751E+05
 0.30699997E+02  0.17388E+06
 0.30749996E+02  0.12583E+06
 0.30799999E+02 -0.10239E+06
 0.30849998E+02 -0.24971E+06
 0.30899998E+02 -0.11697E+06
 0.30949997E+02  0.87567E+04
 0.30999996E+02  0.11701E+06
 0.31049999E+02  0.20161E+06
 0.31099998E+02  0.19694E+06
 0.31149998E+02  0.14483E+06
 0.31199997E+02  0.32352E+05
 0.31249996E+02 -0.12744E+06
 0.31299999E+02 -0.23352E+06
 0.31349998E+02 -0.28104E+06
 0.31399998E+02 -0.30182E+06
 0.31449997E+02 -0.27907E+06
 0.31499996E+02 -0.21010E+06
 0.31549999E+02 -0.11595E+06
 0.31599998E+02 -0.77932E+05
 0.31649998E+02  0.93780E+05
 0.31699997E+02  0.33296E+06
 0.31749996E+02  0.39873E+06
 0.31799999E+02  0.24257E+06
 0.31849998E+02  0.84248E+05
 0.31899998E+02  0.12132E+06
 0.31949997E+02  0.41219E+06
 0.31999996E+02  0.65170E+06
 0.32049999E+02  0.63361E+06
 0.32099998E+02  0.60560E+06
 0.32149998E+02  0.99568E+06
 0.32199997E+02  0.16875E+07
 0.32249996E+02  0.18039E+07
 0.32299999E+02  0.13199E+07
 0.32349998E+02  0.13271E+07
 0.32399998E+02  0.17361E+07
 0.32449997E+02  0.11277E+07
 0.32499996E+02 -0.45871E+06
 0.32549999E+02 -0.14896E+07
 0.32599998E+02 -0.17060E+07
 0.32649998E+02 -0.20858E+07
 0.32699997E+02 -0.18611E+07
 0.32749996E+02 -0.32252E+06
 0.32799999E+02  0.12254E+07
 0.32849998E+02  0.13830E+07
 0.32899998E+02  0.12737E+07
 0.32949997E+02  0.23411E+07
 0.32999996E+02  0.29977E+07
 0.33049999E+02  0.18608E+07
 0.33099998E+02  0.19298E+06
 0.33149998E+02  0.21019E+06
 0.33199997E+02  0.16493E+07
 0.33249996E+02  0.17746E+07
 0.33299999E+02  0.24039E+06
 0.33349998E+02 -0.94979E+06
 0.33399998E+02 -0.54419E+06
 0.33449997E+02  0.25241E+06
 0.33499996E+02  0.14671E+06
 0.33549999E+02 -0.11381E+06
 0.33599998E+02  0.39099E+06
 0.33649998E+02  0.13818E+07
 0.33699997E+02  0.16505E+07
 0.33749996E+02  0.60618E+06
 0.33799999E+02 -0.50014E+05
 0.33849998E+02  0.16009E+06
 0.33899998E+02 -0.78952E+06
 0.33949997E+02 -0.19238E+07
 0.33999996E+02 -0.23670E+07
 0.34049999E+02 -0.24470E+07
 0.34099998E+02 -0.14950E+07
 0.34149998E+02 -0.22785E+06
 0.34199997E+02  0.84877E+06
 0.34249996E+02  0.10585E+07
 0.34299999E+02  0.31301E+06
 0.34349998E+02  0.17692E+06
 0.34399998E+02  0.11061E+06
 0.34449997E+02 -0.43692E+06
 0.34499996E+02 -0.12385E+07
 0.34549999E+02 -0.15975E+07
 0.34599998E+02 -0.15714E+07
 0.34649998E+02 -0.22566E+07
 0.34699997E+02 -0.31776E+07
 0.34749996E+02 -0.36481E+07
 0.34799999E+02 -0.33285E+07
 0.34849998E+02 -0.28460E+07
 0.34899998E+02 -0.27719E+07
 0.34949997E+02 -0.26689E+07
 0.34999996E+02 -0.18144E+07
 0.35049999E+02 -0.67276E+06
 0.35099998E+02 -0.34317E+06
 0.35149998E+02 -0.58420E+06
 0.35199997E+02 -0.82514E+06
 0.35249996E+02 -0.11731E+07
 0.35299999E+02 -0.20201E+07
 0.35349998E+02 -0.29757E+07
 0.35399998E+02 -0.28931E+07
 0.35449997E+02 -0.20662E+07
 0.35499996E+02 -0.13234E+07
 0.35549999E+02 -0.88982E+06
 0.35599998E+02 -0.59257E+06
 0.35649998E+02 -0.42906E+06
 0.35699997E+02 -0.51569E+06
 0.35749996E+02 -0.19896E+06
 0.35799999E+02  0.37755E+06
 0.35849998E+02  0.84695E+06
 0.35899998E+02  0.11697E+07
 0.35949997E+02  0.65261E+06
 0.35999996E+02 -0.60031E+06
 0.36049999E+02 -0.13934E+07
 0.36099998E+02 -0.13900E+07
 0.36149998E+02 -0.11965E+07
 0.36199997E+02 -0.10712E+07
 0.36249996E+02 -0.30375E+06
 0.36299999E+02  0.74772E+06
 0.36349998E+02  0.16129E+07
 0.36399998E+02  0.21507E+07
 0.36449997E+02  0.19216E+07
 0.36499996E+02  0.15066E+07
 0.36549999E+02  0.13288E+07
 0.36599998E+02  0.10091E+07
 0.36649998E+02  0.11189E+07
 0.36699997E+02  0.19009E+07
 0.36749996E+02  0.24500E+07
 0.36799999E+02  0.27433E+07
 0.36849998E+02  0.28513E+07
 0.36899998E+02  0.27534E+07
 0.36949997E+02  0.25230E+07
 0.36999996E+02  0.25819E+07
 0.37049999E+02  0.28824E+07
 0.37099998E+02  0.32400E+07
 0.37149998E+02  0.33298E+07
 0.37199997E+02  0.28859E+07
 0.37249996E+02  0.23671E+07
 0.37299999E+02  0.18758E+07
 0.37349998E+02  0.13930E+07
 0.37399998E+02  0.12853E+07
 0.37449997E+02  0.15535E+07
 0.37499996E+02  0.16673E+07
 0.37549999E+02  0.14488E+07
 0.37599998E+02  0.12346E+07
 0.37649998E+02  0.17200E+07
 0.37699997E+02  0.20030E+07
 0.37749996E+02  0.21266E+07
 0.37799999E+02  0.23833E+07
 0.37849998E+02  0.21199E+07
 0.37899998E+02  0.17773E+07
 0.37949997E+02  0.10722E+07
 0.37999996E+02 -0.39755E+06
 0.38049999E+02 -0.16335E+07
 0.38099998E+02 -0.19635E+07
 0.38149998E+02 -0.18889E+07
 0.38199997E+02 -0.18968E+07
 0.38249996E+02 -0.17396E+07
 0.38299999E+02 -0.15783E+07
 0.38349998E+02 -0.19393E+07
 0.38399998E+02 -0.22026E+07
 0.38449997E+02 -0.22141E+07
 0.38499996E+02 -0.19504E+07
 0.38549999E+02 -0.20197E+07
 0.38599998E+02 -0.23419E+07
 0.38649998E+02 -0.24827E+07
 0.38699997E+02 -0.25753E+07
 0.38749996E+02 -0.28579E+07
 0.38799999E+02 -0.38031E+07
 0.38849998E+02 -0.43916E+07
 0.38899998E+02 -0.42926E+07
 0.38949997E+02 -0.34988E+07
 0.38999996E+02 -0.27247E+07
 0.39049999E+02 -0.22396E+07
 0.39099998E+02 -0.17050E+07
 0.39149998E+02 -0.14771E+07
 0.39199997E+02 -0.13356E+07
 0.39249996E+02 -0.10073E+07
 0.39299999E+02 -0.10404E+07
 0.39349998E+02 -0.17756E+07
 0.39399998E+02 -0.25251E+07
 0.39449997E+02 -0.28273E+07
 0.39499996E+02 -0.25556E+07
 0.39549999E+02 -0.17113E+07
 0.39599998E+02 -0.32352E+06
 0.39649998E+02  0.10714E+07
 0.39699997E+02  0.25823E+07
 0.39749996E+02  0.40763E+07
 0.39799999E+02  0.50967E+07
 0.39849998E+02  0.56708E+07
 0.39899998E+02  0.61374E+07
 0.39949997E+02  0.63560E+07
 0.39999996E+02  0.64059E+07
 0.40049999E+02  0.65738E+07
 0.40099998E+02  0.59089E+07
 0.40149998E+02  0.45899E+07
 0.40199997E+02  0.37259E+07
 0.40249996E+02  0.36040E+07
 0.40299999E+02  0.35424E+07
 0.40349998E+02  0.33187E+07
 0.40399998E+02  0.29054E+07
 0.40449997E+02  0.26405E+07
 0.40499996E+02  0.26629E+07
 0.40549999E+02  0.19794E+07
 0.40599998E+02  0.10241E+07
 0.40649998E+02  0.14234E+06
 0.40699997E+02 -0.10285E+07
 0.40749996E+02 -0.24215E+07
 0.40799999E+02 -0.34744E+07
 0.40849998E+02 -0.37106E+07
 0.40899998E+02 -0.32115E+07
 0.40949997E+02 -0.19910E+07
 0.40999996E+02 -0.54146E+06
 0.41049999E+02  0.80220E+06
 0.41099998E+02  0.18197E+07
 0.41149998E+02  0.22395E+07
 0.41199997E+02  0.18041E+07
 0.41249996E+02  0.98092E+06
 0.41299999E+02  0.21920E+06
 0.41349998E+02 -0.13064E+06
 0.41399998E+02  0.32299E+06
 0.41449997E+02  0.11533E+07
 0.41499996E+02  0.20044E+07
 0.41549999E+02  0.24485E+07
 0.41599998E+02  0.28067E+07
 0.41649998E+02  0.31650E+07
 0.41699997E+02  0.30423E+07
 0.41749996E+02  0.24922E+07
 0.41799999E+02  0.17156E+07
 0.41849998E+02  0.10939E+07
 0.41899998E+02  0.85846E+06
 0.41949997E+02  0.76678E+06
 0.41999996E+02  0.92103E+06
 0.42049999E+02  0.10281E+07
 0.42099998E+02  0.43188E+06
 0.42149998E+02 -0.55177E+06
 0.42199997E+02 -0.14546E+07
 0.42249996E+02 -0.19197E+07
 0.42299999E+02 -0.20028E+07
 0.42349998E+02 -0.21917E+07
 0.42399998E+02 -0.26094E+07
 0.42449997E+02 -0.28178E+07
 0.42499996E+02 -0.26637E+07
 0.42549999E+02 -0.21071E+07
 0.42599998E+02 -0.14557E+07
 0.42649998E+02 -0.11711E+07
 0.42699997E+02 -0.11673E+07
 0.42749996E+02 -0.16953E+07
 0.42799995E+02 -0.25335E+07
 0.42849998E+02 -0.31138E+07
 0.42899998E+02 -0.34564E+07
 0.42949997E+02 -0.36697E+07
 0.42999996E+02 -0.39130E+07
 0.43049995E+02 -0.40706E+07
 0.43099998E+02 -0.39259E+07
 0.43149998E+02 -0.35516E+07
 0.43199997E+02 -0.30691E+07
 0.43249996E+02 -0.25292E+07
 0.43299995E+02 -0.20976E+07
 0.43349998E+02 -0.17047E+07
 0.43399998E+02 -0.12670E+07
 0.43449997E+02 -0.10380E+07
 0.43499996E+02 -0.12132E+07
 0.43549995E+02 -0.16274E+07
 0.43599998E+02 -0.16505E+07
 0.43649998E+02 -0.12660E+07
 0.43699997E+02 -0.54153E+06
 0.43749996E+02  0.45902E+06
 0.43799995E+02  0.13411E+07
 0.43849998E+02  0.21245E+07
 0.43899998E+02  0.27871E+07
 0.43949997E+02  0.33372E+07
 0.43999996E+02  0.38315E+07
 0.44049995E+02  0.41757E+07
 0.44099998E+02  0.43164E+07
 0.44149998E+02  0.40769E+07
 0.44199997E+02  0.33003E+07
 0.44249996E+02  0.23731E+07
 0.44299995E+02  0.18102E+07
 0.44349998E+02  0.16045E+07
 0.44399998E+02  0.15173E+07
 0.44449997E+02  0.11475E+07
 0.44499996E+02  0.39180E+06
 0.44549995E+02 -0.25318E+06
 0.44599998E+02 -0.55418E+06
 0.44649998E+02 -0.72365E+06
 0.44699997E+02 -0.96349E+06
 0.44749996E+02 -0.11542E+07
 0.44799995E+02 -0.10558E+07
 0.44849998E+02 -0.10345E+07
 0.44899998E+02 -0.14363E+07
 0.44949997E+02 -0.22194E+07
 0.44999996E+02 -0.32066E+07
 0.45049995E+02 -0.37749E+07
 0.45099998E+02 -0.37138E+07
 0.45149998E+02 -0.33085E+07
 0.45199997E+02 -0.27878E+07
 0.45249996E+02 -0.21764E+07
 0.45299995E+02 -0.16816E+07
 0.45349998E+02 -0.15846E+07
 0.45399998E+02 -0.16782E+07
 0.45449997E+02 -0.17044E+07
 0.45499996E+02 -0.15734E+07
 0.45549995E+02 -0.15113E+07
 0.45599998E+02 -0.15347E+07
 0.45649998E+02 -0.15998E+07
 0.45699997E+02 -0.15627E+07
 0.45749996E+02 -0.12261E+07
 0.45799995E+02 -0.86760E+06
 0.45849998E+02 -0.79496E+06
 0.45899998E+02 -0.97309E+06
 0.45949997E+02 -0.11984E+07
 0.45999996E+02 -0.13219E+07
 0.46049995E+02 -0.12108E+07
 0.46099998E+02 -0.10083E+07
 0.46149998E+02 -0.76335E+06
 0.46199997E+02 -0.63028E+06
 0.46249996E+02 -0.79403E+06
 0.46299995E+02 -0.11594E+07
 0.46349998E+02 -0.14799E+07
 0.46399998E+02 -0.15946E+07
 0.46449997E+02 -0.15127E+07
 0.46499996E+02 -0.11216E+07
 0.46549995E+02 -0.54785E+06
 0.46599998E+02 -0.20331E+06
 0.46649998E+02 -0.13925E+06
 0.46699997E+02 -0.24980E+06
 0.46749996E+02 -0.53252E+06
 0.46799995E+02 -0.73277E+06
 0.46849998E+02 -0.59610E+06
 0.46899998E+02 -0.16632E+06
 0.46949997E+02  0.32542E+06
 0.46999996E+02  0.68216E+06
 0.47049995E+02  0.99162E+06
 0.47099998E+02  0.13735E+07
 0.47149998E+02  0.16291E+07
 0.47199997E+02  0.16822E+07
 0.47249996E+02  0.16417E+07
 0.47299995E+02  0.15106E+07
 0.47349998E+02  0.11481E+07
 0.47399998E+02  0.74598E+06
 0.47449997E+02  0.53441E+06
 0.47499996E+02  0.43329E+06
 0.47549995E+02  0.38860E+06
 0.47599998E+02  0.40294E+06
 0.47649998E+02  0.25948E+06
 0.47699997E+02 -0.42153E+05
 0.47749996E+02 -0.24658E+06
 0.47799995E+02 -0.24094E+06
 0.47849998E+02  0.48029E+05
 0.47899998E+02  0.40792E+06
 0.47949997E+02  0.76630E+06
 0.47999996E+02  0.10314E+07
 0.48049995E+02  0.11461E+07
 0.48099998E+02  0.11964E+07
 0.48149998E+02  0.12966E+07
 0.48199997E+02  0.13700E+07
 0.48249996E+02  0.15191E+07
 0.48299995E+02  0.18358E+07
 0.48349998E+02  0.22616E+07
 0.48399998E+02  0.27113E+07
 0.48449997E+02  0.28507E+07
 0.48499996E+02  0.27054E+07
 0.48549995E+02  0.23139E+07
 0.48599998E+02  0.18029E+07
 0.48649998E+02  0.14427E+07
 0.48699997E+02  0.13785E+07
 0.48749996E+02  0.15182E+07
 0.48799995E+02  0.17641E+07
 0.48849998E+02  0.19789E+07
 0.48899998E+02  0.20682E+07
 0.48949997E+02  0.22574E+07
 0.48999996E+02  0.25117E+07
 0.49049995E+02  0.26644E+07
 0.49099998E+02  0.25978E+07
 0.49149998E+02  0.21977E+07
 0.49199997E+02  0.14812E+07
 0.49249996E+02  0.72844E+06
 0.49299995E+02  0.19300E+06
 0.49349998E+02 -0.12887E+06
 0.49399998E+02 -0.32689E+06
 0.49449997E+02 -0.50997E+06
 0.49499996E+02 -0.59354E+06
 0.49549995E+02 -0.54080E+06
 0.49599998E+02 -0.60146E+06
 0.49649998E+02 -0.91502E+06
 0.49699997E+02 -0.12727E+07
 0.49749996E+02 -0.16351E+07
 0.49799995E+02 -0.20141E+07
 0.49849998E+02 -0.24210E+07
 0.49899998E+02 -0.27825E+07
 0.49949997E+02 -0.29838E+07
 0.49999996E+02 -0.30373E+07
 0.50049995E+02 -0.29230E+07
 0.50099998E+02 -0.28293E+07
 0.50149998E+02 -0.28330E+07
 0.50199997E+02 -0.28231E+07
 0.50249996E+02 -0.26602E+07
 0.50299995E+02 -0.23264E+07
 0.50349998E+02 -0.17605E+07
 0.50399998E+02 -0.10904E+07
 0.50449997E+02 -0.64908E+06
 0.50499996E+02 -0.40815E+06
 0.50549995E+02 -0.31514E+06
 0.50599998E+02 -0.40333E+06
 0.50649998E+02 -0.51524E+06
 0.50699997E+02 -0.54571E+06
 0.50749996E+02 -0.49438E+06
 0.50799995E+02 -0.32296E+06
 0.50849998E+02 -0.24943E+06
 0.50899998E+02 -0.36537E+06
 0.50949997E+02 -0.50262E+06
 0.50999996E+02 -0.60995E+06
 0.51049995E+02 -0.71025E+06
 0.51099998E+02 -0.77104E+06
 0.51149998E+02 -0.67816E+06
 0.51199997E+02 -0.32634E+06
 0.51249996E+02  0.18907E+06
 0.51299995E+02  0.67016E+06
 0.51349998E+02  0.10714E+07
 0.51399998E+02  0.13274E+07
 0.51449997E+02  0.14403E+07
 0.51499996E+02  0.15128E+07
 0.51549995E+02  0.16006E+07
 0.51599998E+02  0.16990E+07
 0.51649998E+02  0.16871E+07
 0.51699997E+02  0.15397E+07
 0.51749996E+02  0.13902E+07
 0.51799995E+02  0.12547E+07
 0.51849998E+02  0.11474E+07
 0.51899998E+02  0.10584E+07
 0.51949997E+02  0.97102E+06
 0.51999996E+02  0.79302E+06
 0.52049995E+02  0.44913E+06
 0.52099998E+02  0.82583E+05
 0.52149998E+02 -0.16268E+06
 0.52199997E+02 -0.25916E+06
 0.52249996E+02 -0.39230E+06
 0.52299995E+02 -0.54443E+06
 0.52349998E+02 -0.58421E+06
 0.52399998E+02 -0.51256E+06
 0.52449997E+02 -0.41471E+06
 0.52499996E+02 -0.28994E+06
 0.52549995E+02 -0.44652E+05
 0.52599998E+02  0.26179E+06
 0.52649998E+02  0.51730E+06
 0.52699997E+02  0.68394E+06
 0.52749996E+02  0.77019E+06
 0.52799995E+02  0.75170E+06
 0.52849998E+02  0.60657E+06
 0.52899998E+02  0.48010E+06
 0.52949997E+02  0.38682E+06
 0.52999996E+02  0.24613E+06
 0.53049995E+02  0.68913E+05
 0.53099998E+02 -0.13918E+06
 0.53149998E+02 -0.27941E+06
 0.53199997E+02 -0.29857E+06
 0.53249996E+02 -0.17064E+06
 0.53299995E+02  0.19546E+05
 0.53349998E+02  0.16504E+06
 0.53399998E+02  0.24388E+06
 0.53449997E+02  0.14777E+06
 0.53499996E+02 -0.10556E+06
 0.53549995E+02 -0.23158E+06
 0.53599998E+02 -0.18201E+06
 0.53649998E+02  0.26767E+05
 0.53699997E+02  0.41036E+06
 0.53749996E+02  0.87719E+06
 0.53799995E+02  0.13661E+07
 0.53849998E+02  0.16313E+07
 0.53899998E+02  0.17572E+07
 0.53949997E+02  0.19214E+07
 0.53999996E+02  0.20478E+07
 0.54049995E+02  0.21043E+07
 0.54099998E+02  0.20515E+07
 0.54149998E+02  0.18307E+07
 0.54199997E+02  0.15700E+07
 0.54249996E+02  0.13125E+07
 0.54299995E+02  0.90360E+06
 0.54349998E+02  0.40448E+06
 0.54399998E+02 -0.41158E+05
 0.54449997E+02 -0.33309E+06
 0.54499996E+02 -0.53632E+06
 0.54549995E+02 -0.76436E+06
 0.54599998E+02 -0.11572E+07
 0.54649998E+02 -0.17155E+07
 0.54699997E+02 -0.23617E+07
 0.54749996E+02 -0.29999E+07
 0.54799995E+02 -0.34665E+07
 0.54849998E+02 -0.36926E+07
 0.54899998E+02 -0.37064E+07
 0.54949997E+02 -0.34689E+07
 0.54999996E+02 -0.30235E+07
 0.55049995E+02 -0.25223E+07
 0.55099998E+02 -0.17961E+07
 0.55149998E+02 -0.93064E+06
 0.55199997E+02 -0.14354E+06
 0.55249996E+02  0.55075E+06
 0.55299995E+02  0.10524E+07
 0.55349998E+02  0.13989E+07
 0.55399998E+02  0.16505E+07
 0.55449997E+02  0.17695E+07
 0.55499996E+02  0.17954E+07
 0.55549995E+02  0.16928E+07
 0.55599998E+02  0.14499E+07
 0.55649998E+02  0.12159E+07
 0.55699997E+02  0.10517E+07
 0.55749996E+02  0.10428E+07
 0.55799995E+02  0.11419E+07
 0.55849995E+02  0.11104E+07
 0.55899998E+02  0.92374E+06
 0.55949997E+02  0.68312E+06
 0.55999996E+02  0.48312E+06
 0.56049995E+02  0.33515E+06
 0.56099995E+02  0.22542E+06
 0.56149998E+02  0.17804E+06
 0.56199997E+02  0.19751E+06
 0.56249996E+02  0.35725E+06
 0.56299995E+02  0.64979E+06
 0.56349995E+02  0.94352E+06
 0.56399998E+02  0.11365E+07
 0.56449997E+02  0.11623E+07
 0.56499996E+02  0.98120E+06
 0.56549995E+02  0.75040E+06
 0.56599995E+02  0.60926E+06
 0.56649998E+02  0.49263E+06
 0.56699997E+02  0.34757E+06
 0.56749996E+02  0.27468E+06
 0.56799995E+02  0.31244E+06
 0.56849995E+02  0.36601E+06
 0.56899998E+02  0.46870E+06
 0.56949997E+02  0.57529E+06
 0.56999996E+02  0.64860E+06
 0.57049995E+02  0.63981E+06
 0.57099995E+02  0.58016E+06
 0.57149998E+02  0.53739E+06
 0.57199997E+02  0.51392E+06
 0.57249996E+02  0.44085E+06
 0.57299995E+02  0.26673E+06
 0.57349995E+02  0.10550E+06
 0.57399998E+02 -0.80511E+05
 0.57449997E+02 -0.27423E+06
 0.57499996E+02 -0.38950E+06
 0.57549995E+02 -0.45830E+06
 0.57599995E+02 -0.52408E+06
 0.57649998E+02 -0.59110E+06
 0.57699997E+02 -0.67869E+06
 0.57749996E+02 -0.77188E+06
 0.57799995E+02 -0.87761E+06
 0.57849995E+02 -0.10050E+07
 0.57899998E+02 -0.11314E+07
 0.57949997E+02 -0.12462E+07
 0.57999996E+02 -0.12966E+07
 0.58049995E+02 -0.12637E+07
 0.58099995E+02 -0.11354E+07
 0.58149998E+02 -0.98279E+06
 0.58199997E+02 -0.91013E+06
 0.58249996E+02 -0.95564E+06
 0.58299995E+02 -0.11051E+07
 0.58349995E+02 -0.12703E+07
 0.58399998E+02 -0.13682E+07
 0.58449997E+02 -0.13658E+07
 0.58499996E+02 -0.13118E+07
 0.58549995E+02 -0.12288E+07
 0.58599995E+02 -0.10900E+07
 0.58649998E+02 -0.86877E+06
 0.58699997E+02 -0.59210E+06
 0.58749996E+02 -0.21287E+06
 0.58799995E+02  0.25119E+06
 0.58849995E+02  0.66899E+06
 0.58899998E+02  0.95468E+06
 0.58949997E+02  0.10899E+07
 0.58999996E+02  0.11095E+07
 0.59049995E+02  0.10297E+07
 0.59099995E+02  0.87633E+06
 0.59149998E+02  0.64912E+06
 0.59199997E+02  0.41422E+06
 0.59249996E+02  0.14634E+06
 0.59299995E+02 -0.14655E+06
 0.59349995E+02 -0.36759E+06
 0.59399998E+02 -0.49423E+06
 0.59449997E+02 -0.47652E+06
 0.59499996E+02 -0.32503E+06
 0.59549995E+02 -0.97817E+05
 0.59599995E+02  0.12677E+06
 0.59649998E+02  0.31739E+06
 0.59699997E+02  0.46618E+06
 0.59749996E+02  0.52232E+06
 0.59799995E+02  0.54266E+06
 0.59849995E+02  0.57962E+06
 0.59899998E+02  0.57824E+06
 0.59949997E+02  0.49541E+06
 0.59999996E+02  0.35924E+06
 0.60049995E+02  0.24502E+06
 0.60099995E+02  0.17709E+06
 0.60149998E+02  0.14341E+06
 0.60199997E+02  0.91950E+05
 0.60249996E+02  0.11415E+05
 0.60299995E+02 -0.25298E+05
 0.60349995E+02 -0.33966E+05
 0.60399998E+02 -0.85660E+05
 0.60449997E+02 -0.17731E+06
 0.60499996E+02 -0.29189E+06
 0.60549995E+02 -0.44140E+06
 0.60599995E+02 -0.60292E+06
 0.60649998E+02 -0.71888E+06
 0.60699997E+02 -0.77409E+06
 0.60749996E+02 -0.75214E+06
 0.60799995E+02 -0.63287E+06
 0.60849995E+02 -0.41493E+06
 0.60899998E+02 -0.14048E+06
 0.60949997E+02  0.96348E+05
 0.60999996E+02  0.28401E+06
 0.61049995E+02  0.39508E+06
 0.61099995E+02  0.45931E+06
 0.61149998E+02  0.52713E+06
 0.61199997E+02  0.60165E+06
 0.61249996E+02  0.66852E+06
 0.61299995E+02  0.67722E+06
 0.61349995E+02  0.60268E+06
 0.61399998E+02  0.46072E+06
 0.61449997E+02  0.30909E+06
 0.61499996E+02  0.16058E+06
 0.61549995E+02  0.15997E+05
 0.61599995E+02 -0.11481E+06
 0.61649998E+02 -0.23447E+06
 0.61699997E+02 -0.36784E+06
 0.61749996E+02 -0.49632E+06
 0.61799995E+02 -0.58726E+06
 0.61849995E+02 -0.63298E+06
 0.61899998E+02 -0.62874E+06
 0.61949997E+02 -0.55012E+06
 0.61999996E+02 -0.38699E+06
 0.62049995E+02 -0.20124E+06
 0.62099998E+02 -0.32410E+05
 0.62149994E+02  0.37231E+05
 0.62199997E+02  0.41000E+05
 0.62249992E+02  0.52104E+05
 0.62299995E+02  0.10398E+06
 0.62349998E+02  0.22072E+06
 0.62399994E+02  0.32403E+06
 0.62449997E+02  0.39993E+06
 0.62499992E+02  0.42124E+06
 0.62549995E+02  0.37114E+06
 0.62599998E+02  0.27929E+06
 0.62649994E+02  0.21518E+06
 0.62699997E+02  0.23842E+06
 0.62749992E+02  0.26794E+06
 0.62799995E+02  0.18310E+06
 0.62849998E+02  0.36525E+05
 0.62899994E+02 -0.78907E+05
 0.62949997E+02 -0.11419E+06
 0.62999992E+02 -0.10384E+06
 0.63049995E+02 -0.99053E+05
 0.63099998E+02 -0.66647E+05
 0.63149994E+02 -0.25251E+05
 0.63199997E+02  0.53204E+05
 0.63249992E+02  0.18276E+06
 0.63299995E+02  0.38536E+06
 0.63349998E+02  0.65466E+06
 0.63399994E+02  0.90083E+06
 0.63449997E+02  0.10840E+07
 0.63499992E+02  0.11926E+07
 0.63549995E+02  0.12222E+07
 0.63599998E+02  0.12201E+07
 0.63649994E+02  0.12413E+07
 0.63699997E+02  0.13003E+07
 0.63749992E+02  0.13596E+07
 0.63799995E+02  0.13895E+07
 0.63849998E+02  0.13987E+07
 0.63899994E+02  0.13529E+07
 0.63949997E+02  0.12068E+07
 0.63999992E+02  0.96139E+06
 0.64049995E+02  0.70876E+06
 0.64099998E+02  0.50863E+06
 0.64149994E+02  0.36995E+06
 0.64199997E+02  0.30688E+06
 0.64249992E+02  0.27854E+06
 0.64299995E+02  0.24636E+06
 0.64349998E+02  0.21823E+06
 0.64399994E+02  0.18593E+06
 0.64449997E+02  0.14569E+06
 0.64499992E+02  0.84298E+05
 0.64549995E+02 -0.17660E+05
 0.64599998E+02 -0.88678E+05
 0.64649994E+02 -0.81875E+05
 0.64699997E+02 -0.28468E+05
 0.64749992E+02  0.17564E+05
 0.64799995E+02 -0.26036E+05
 0.64849998E+02 -0.15736E+06
 0.64899994E+02 -0.32170E+06
 0.64949997E+02 -0.51962E+06
 0.64999992E+02 -0.70932E+06
 0.65049995E+02 -0.85996E+06
 0.65099998E+02 -0.97271E+06
 0.65149994E+02 -0.10337E+07
 0.65199997E+02 -0.10602E+07
 0.65249992E+02 -0.10876E+07
 0.65299995E+02 -0.11289E+07
 0.65349998E+02 -0.12071E+07
 0.65399994E+02 -0.12936E+07
 0.65449997E+02 -0.13443E+07
 0.65499992E+02 -0.13321E+07
 0.65549995E+02 -0.12241E+07
 0.65599998E+02 -0.10240E+07
 0.65649994E+02 -0.77371E+06
 0.65699997E+02 -0.52761E+06
 0.65749992E+02 -0.30047E+06
 0.65799995E+02 -0.10415E+06
 0.65849998E+02  0.86287E+05
 0.65899994E+02  0.26627E+06
 0.65949997E+02  0.40783E+06
 0.65999992E+02  0.45740E+06
 0.66049995E+02  0.39986E+06
 0.66099998E+02  0.27439E+06
 0.66149994E+02  0.11383E+06
 0.66199997E+02 -0.40044E+05
 0.66249992E+02 -0.19578E+06
 0.66299995E+02 -0.33392E+06
 0.66349998E+02 -0.42427E+06
 0.66399994E+02 -0.44866E+06
 0.66449997E+02 -0.37997E+06
 0.66499992E+02 -0.19727E+06
 0.66549995E+02  0.82209E+05
 0.66599998E+02  0.39502E+06
 0.66649994E+02  0.65643E+06
 0.66699997E+02  0.84231E+06
 0.66749992E+02  0.95088E+06
 0.66799995E+02  0.99162E+06
 0.66849998E+02  0.98853E+06
 0.66899994E+02  0.90920E+06
 0.66949997E+02  0.80138E+06
 0.66999992E+02  0.70513E+06
 0.67049995E+02  0.62210E+06
 0.67099998E+02  0.53276E+06
 0.67149994E+02  0.39815E+06
 0.67199997E+02  0.21831E+06
 0.67249992E+02  0.62147E+05
 0.67299995E+02 -0.10837E+05
 0.67349998E+02 -0.59360E+05
 0.67399994E+02 -0.12707E+06
 0.67449997E+02 -0.24252E+06
 0.67499992E+02 -0.38021E+06
 0.67549995E+02 -0.48856E+06
 0.67599998E+02 -0.54388E+06
 0.67649994E+02 -0.55283E+06
 0.67699997E+02 -0.51806E+06
 0.67749992E+02 -0.43093E+06
 0.67799995E+02 -0.34577E+06
 0.67849998E+02 -0.25114E+06
 0.67899994E+02 -0.12313E+06
 0.67949997E+02  0.36375E+05
 0.67999992E+02  0.19317E+06
 0.68049995E+02  0.30890E+06
 0.68099998E+02  0.40283E+06
 0.68149994E+02  0.48272E+06
 0.68199997E+02  0.54375E+06
 0.68249992E+02  0.59365E+06
 0.68299995E+02  0.65019E+06
 0.68349998E+02  0.71653E+06
 0.68399994E+02  0.79151E+06
 0.68449997E+02  0.85688E+06
 0.68499992E+02  0.92418E+06
 0.68549995E+02  0.97586E+06
 0.68599998E+02  0.96019E+06
 0.68649994E+02  0.87305E+06
 0.68699997E+02  0.77357E+06
 0.68749992E+02  0.68623E+06
 0.68799995E+02  0.58727E+06
 0.68849998E+02  0.49327E+06
 0.68899994E+02  0.39560E+06
 0.68949997E+02  0.30895E+06
 0.68999992E+02  0.23834E+06
 0.69049995E+02  0.16897E+06
 0.69099998E+02  0.12296E+06
 0.69149994E+02  0.11945E+06
 0.69199997E+02  0.14134E+06
 0.69249992E+02  0.16242E+06
 0.69299995E+02  0.16927E+06
 0.69349998E+02  0.16153E+06
 0.69399994E+02  0.14497E+06
 0.69449997E+02  0.97721E+05
 0.69499992E+02  0.21517E+05
 0.69549995E+02 -0.35712E+05
 0.69599998E+02 -0.96732E+05
 0.69649994E+02 -0.19782E+06
 0.69699997E+02 -0.33494E+06
 0.69749992E+02 -0.52300E+06
 0.69799995E+02 -0.73056E+06
 0.69849998E+02 -0.93658E+06
 0.69899994E+02 -0.11129E+07
 0.69949997E+02 -0.12290E+07
 0.69999992E+02 -0.12896E+07
 0.70049995E+02 -0.13204E+07
 0.70099998E+02 -0.13378E+07
 0.70149994E+02 -0.13418E+07
 0.70199997E+02 -0.13510E+07
 0.70249992E+02 -0.13410E+07
 0.70299995E+02 -0.12786E+07
 0.70349998E+02 -0.12075E+07
 0.70399994E+02 -0.11554E+07
 0.70449997E+02 -0.10953E+07
 0.70499992E+02 -0.10010E+07
 0.70549995E+02 -0.85021E+06
 0.70599998E+02 -0.65625E+06
 0.70649994E+02 -0.40642E+06
 0.70699997E+02 -0.11815E+06
 0.70749992E+02  0.16718E+06
 0.70799995E+02  0.44528E+06
 0.70849998E+02  0.66787E+06
 0.70899994E+02  0.81197E+06
 0.70949997E+02  0.86243E+06
 0.70999992E+02  0.81510E+06
 0.71049995E+02  0.74831E+06
 0.71099998E+02  0.71823E+06
 0.71149994E+02  0.72380E+06
 0.71199997E+02  0.74990E+06
 0.71249992E+02  0.76386E+06
 0.71299995E+02  0.74633E+06
 0.71349998E+02  0.73026E+06
 0.71399994E+02  0.73347E+06
 0.71449997E+02  0.72304E+06
 0.71499992E+02  0.71791E+06
 0.71549995E+02  0.75594E+06
 0.71599998E+02  0.83243E+06
 0.71649994E+02  0.93005E+06
 0.71699997E+02  0.10239E+07
 0.71749992E+02  0.11101E+07
 0.71799995E+02  0.11531E+07
 0.71849998E+02  0.11335E+07
 0.71899994E+02  0.10539E+07
 0.71949997E+02  0.89993E+06
 0.71999992E+02  0.69017E+06
 0.72049995E+02  0.45947E+06
 0.72099998E+02  0.19905E+06
 0.72149994E+02 -0.86716E+05
 0.72199997E+02 -0.35144E+06
 0.72249992E+02 -0.55925E+06
 0.72299995E+02 -0.66266E+06
 0.72349998E+02 -0.68451E+06
 0.72399994E+02 -0.68731E+06
 0.72449997E+02 -0.68887E+06
 0.72499992E+02 -0.67436E+06
 0.72549995E+02 -0.65744E+06
 0.72599998E+02 -0.64806E+06
 0.72649994E+02 -0.61505E+06
 0.72699997E+02 -0.53874E+06
 0.72749992E+02 -0.43884E+06
 0.72799995E+02 -0.36139E+06
 0.72849998E+02 -0.32430E+06
 0.72899994E+02 -0.30419E+06
 0.72949997E+02 -0.27769E+06
 0.72999992E+02 -0.24860E+06
 0.73049995E+02 -0.22310E+06
 0.73099998E+02 -0.23588E+06
 0.73149994E+02 -0.28632E+06
 0.73199997E+02 -0.32753E+06
 0.73249992E+02 -0.31820E+06
 0.73299995E+02 -0.27053E+06
 0.73349998E+02 -0.22239E+06
 0.73399994E+02 -0.16163E+06
 0.73449997E+02 -0.74642E+05
 0.73499992E+02  0.60570E+04
 0.73549995E+02  0.63807E+05
 0.73599998E+02  0.12077E+06
 0.73649994E+02  0.17489E+06
 0.73699997E+02  0.22242E+06
 0.73749992E+02  0.27349E+06
 0.73799995E+02  0.32536E+06
 0.73849998E+02  0.34897E+06
 0.73899994E+02  0.34390E+06
 0.73949997E+02  0.31233E+06
 0.73999992E+02  0.27000E+06
 0.74049995E+02  0.24566E+06
 0.74099998E+02  0.23932E+06
 0.74149994E+02  0.25361E+06
 0.74199997E+02  0.27768E+06
 0.74249992E+02  0.29348E+06
 0.74299995E+02  0.28097E+06
 0.74349998E+02  0.25355E+06
 0.74399994E+02  0.22097E+06
 0.74449997E+02  0.17339E+06
 0.74499992E+02  0.12886E+06
 0.74549995E+02  0.11750E+06
 0.74599998E+02  0.14694E+06
 0.74649994E+02  0.20648E+06
 0.74699997E+02  0.27316E+06
 0.74749992E+02  0.30398E+06
 0.74799995E+02  0.30325E+06
 0.74849998E+02  0.27244E+06
 0.74899994E+02  0.21733E+06
 0.74949997E+02  0.15756E+06
 0.74999992E+02  0.12710E+06
 0.75049995E+02  0.16583E+06
 0.75099998E+02  0.27654E+06
 0.75149994E+02  0.47124E+06
 0.75199997E+02  0.70011E+06
 0.75249992E+02  0.87512E+06
 0.75299995E+02  0.96578E+06
 0.75349998E+02  0.96604E+06
 0.75399994E+02  0.90871E+06
 0.75449997E+02  0.84950E+06
 0.75499992E+02  0.81257E+06
 0.75549995E+02  0.77795E+06
 0.75599998E+02  0.72014E+06
 0.75649994E+02  0.62570E+06
 0.75699997E+02  0.46505E+06
 0.75749992E+02  0.26345E+06
 0.75799995E+02  0.65132E+05
 0.75849998E+02 -0.10565E+06
 0.75899994E+02 -0.21593E+06
 0.75949997E+02 -0.24711E+06
 0.75999992E+02 -0.22004E+06
 0.76049995E+02 -0.17664E+06
 0.76099998E+02 -0.16152E+06
 0.76149994E+02 -0.16943E+06
 0.76199997E+02 -0.16938E+06
 0.76249992E+02 -0.19463E+06
 0.76299995E+02 -0.24486E+06
 0.76349998E+02 -0.29373E+06
 0.76399994E+02 -0.30211E+06
 0.76449997E+02 -0.24869E+06
 0.76499992E+02 -0.16776E+06
 0.76549995E+02 -0.81256E+05
 0.76599998E+02 -0.10646E+05
 0.76649994E+02  0.31836E+05
 0.76699997E+02  0.59700E+05
 0.76749992E+02  0.77099E+05
 0.76799995E+02  0.74835E+05
 0.76849998E+02  0.79139E+05
 0.76899994E+02  0.10089E+06
 0.76949997E+02  0.13180E+06
 0.76999992E+02  0.15475E+06
 0.77049995E+02  0.14408E+06
 0.77099998E+02  0.99237E+05
 0.77149994E+02  0.27195E+05
 0.77199997E+02 -0.63585E+05
 0.77249992E+02 -0.14355E+06
 0.77299995E+02 -0.16880E+06
 0.77349998E+02 -0.14625E+06
 0.77399994E+02 -0.11913E+06
 0.77449997E+02 -0.12357E+06
 0.77499992E+02 -0.16754E+06
 0.77549995E+02 -0.23439E+06
 0.77599998E+02 -0.31710E+06
 0.77649994E+02 -0.39422E+06
 0.77699997E+02 -0.43804E+06
 0.77749992E+02 -0.44627E+06
 0.77799995E+02 -0.42149E+06
 0.77849998E+02 -0.37502E+06
 0.77899994E+02 -0.32468E+06
 0.77949997E+02 -0.29091E+06
 0.77999992E+02 -0.30101E+06
 0.78049995E+02 -0.34247E+06
 0.78099998E+02 -0.38863E+06
 0.78149994E+02 -0.43396E+06
 0.78199997E+02 -0.49798E+06
 0.78249992E+02 -0.57350E+06
 0.78299995E+02 -0.62901E+06
 0.78349998E+02 -0.64678E+06
 0.78399994E+02 -0.63524E+06
 0.78449997E+02 -0.61673E+06
 0.78499992E+02 -0.59775E+06
 0.78549995E+02 -0.58656E+06
 0.78599998E+02 -0.57679E+06
 0.78649994E+02 -0.56514E+06
 0.78699997E+02 -0.54344E+06
 0.78749992E+02 -0.50691E+06
 0.78799995E+02 -0.45628E+06
 0.78849998E+02 -0.40187E+06
 0.78899994E+02 -0.35302E+06
 0.78949997E+02 -0.31351E+06
 0.78999992E+02 -0.25502E+06
 0.79049995E+02 -0.14651E+06
 0.79099998E+02 -0.24740E+04
 0.79149994E+02  0.15303E+06
 0.79199997E+02  0.30351E+06
 0.79249992E+02  0.44442E+06
 0.79299995E+02  0.56279E+06
 0.79349998E+02  0.65609E+06
 0.79399994E+02  0.72432E+06
 0.79449997E+02  0.79730E+06
 0.79499992E+02  0.91389E+06
 0.79549995E+02  0.10438E+07
 0.79599998E+02  0.11486E+07
 0.79649994E+02  0.12135E+07
 0.79699997E+02  0.12572E+07
 0.79749992E+02  0.12947E+07
 0.79799995E+02  0.13103E+07
 0.79849998E+02  0.13070E+07
 0.79899994E+02  0.12832E+07
 0.79949997E+02  0.12385E+07
 0.79999992E+02  0.11608E+07
 0.80049995E+02  0.10422E+07
 0.80099998E+02  0.89029E+06
 0.80149994E+02  0.72322E+06
 0.80199997E+02  0.56222E+06
 0.80249992E+02  0.42609E+06
 0.80299995E+02  0.33187E+06
 0.80349998E+02  0.24532E+06
 0.80399994E+02  0.14445E+06
 0.80449997E+02  0.39259E+05
 0.80499992E+02 -0.76005E+05
 0.80549995E+02 -0.20517E+06
 0.80599998E+02 -0.32487E+06
 0.80649994E+02 -0.42321E+06
 0.80699997E+02 -0.50552E+06
 0.80749992E+02 -0.58307E+06
 0.80799995E+02 -0.65824E+06
 0.80849998E+02 -0.72033E+06
 0.80899994E+02 -0.74350E+06
 0.80949997E+02 -0.70710E+06
 0.80999992E+02 -0.62278E+06
 0.81049995E+02 -0.50755E+06
 0.81099998E+02 -0.38138E+06
 0.81149994E+02 -0.26726E+06
 0.81199997E+02 -0.16919E+06
 0.81249992E+02 -0.71572E+05
 0.81299995E+02  0.31038E+05
 0.81349998E+02  0.12565E+06
 0.81399994E+02  0.16569E+06
 0.81449997E+02  0.16393E+06
 0.81499992E+02  0.17074E+06
 0.81549995E+02  0.19080E+06
 0.81599998E+02  0.19485E+06
 0.81649994E+02  0.18320E+06
 0.81699997E+02  0.16423E+06
 0.81749992E+02  0.12138E+06
 0.81799995E+02  0.62173E+05
 0.81849998E+02 -0.88296E+04
 0.81899994E+02 -0.82329E+05
 0.81949997E+02 -0.16403E+06
 0.81999992E+02 -0.24588E+06
 0.82049995E+02 -0.31625E+06
 0.82099998E+02 -0.36134E+06
 0.82149994E+02 -0.35647E+06
 0.82199997E+02 -0.29578E+06
 0.82249992E+02 -0.21193E+06
 0.82299995E+02 -0.15184E+06
 0.82349998E+02 -0.10019E+06
 0.82399994E+02 -0.34961E+05
 0.82449997E+02  0.47190E+05
 0.82499992E+02  0.15079E+06
 0.82549995E+02  0.25396E+06
 0.82599998E+02  0.32858E+06
 0.82649994E+02  0.35139E+06
 0.82699997E+02  0.32954E+06
 0.82749992E+02  0.29177E+06
 0.82799995E+02  0.24323E+06
 0.82849998E+02  0.18413E+06
 0.82899994E+02  0.13247E+06
 0.82949997E+02  0.99965E+05
 0.82999992E+02  0.82662E+05
 0.83049995E+02  0.76749E+05
 0.83099998E+02  0.59429E+05
 0.83149994E+02  0.21109E+05
 0.83199997E+02 -0.18388E+05
 0.83249992E+02 -0.30045E+05
 0.83299995E+02 -0.57895E+04
 0.83349998E+02  0.59652E+05
 0.83399994E+02  0.16956E+06
 0.83449997E+02  0.31427E+06
 0.83499992E+02  0.47303E+06
 0.83549995E+02  0.60531E+06
 0.83599998E+02  0.68144E+06
 0.83649994E+02  0.68976E+06
 0.83699997E+02  0.64804E+06
 0.83749992E+02  0.59944E+06
 0.83799995E+02  0.55928E+06
 0.83849998E+02  0.50701E+06
 0.83899994E+02  0.44820E+06
 0.83949997E+02  0.38217E+06
 0.83999992E+02  0.29575E+06
 0.84049995E+02  0.19948E+06
 0.84099998E+02  0.10314E+06
 0.84149994E+02  0.10538E+05
 0.84199997E+02 -0.92165E+05
 0.84249992E+02 -0.20423E+06
 0.84299995E+02 -0.30587E+06
 0.84349998E+02 -0.40539E+06
 0.84399994E+02 -0.50740E+06
 0.84449997E+02 -0.60428E+06
 0.84499992E+02 -0.71035E+06
 0.84549995E+02 -0.83663E+06
 0.84599998E+02 -0.97036E+06
 0.84649994E+02 -0.10773E+07
 0.84699997E+02 -0.11232E+07
 0.84749992E+02 -0.11026E+07
 0.84799995E+02 -0.10203E+07
 0.84849998E+02 -0.88687E+06
 0.84899994E+02 -0.72844E+06
 0.84949997E+02 -0.59323E+06
 0.84999992E+02 -0.51389E+06
 0.85049995E+02 -0.47867E+06
 0.85099998E+02 -0.45792E+06
 0.85149994E+02 -0.41487E+06
 0.85199997E+02 -0.33028E+06
 0.85249992E+02 -0.21534E+06
 0.85299995E+02 -0.85919E+05
 0.85349998E+02  0.32900E+05
 0.85399994E+02  0.10283E+06
 0.85449997E+02  0.13175E+06
 0.85499992E+02  0.14121E+06
 0.85549995E+02  0.13444E+06
 0.85599998E+02  0.13418E+06
 0.85649994E+02  0.16194E+06
 0.85699997E+02  0.21424E+06
 0.85749992E+02  0.27406E+06
 0.85799995E+02  0.33638E+06
 0.85849998E+02  0.40758E+06
 0.85899994E+02  0.48591E+06
 0.85949997E+02  0.56112E+06
 0.85999992E+02  0.64051E+06
 0.86049995E+02  0.73370E+06
 0.86099998E+02  0.83426E+06
 0.86149994E+02  0.91844E+06
 0.86199997E+02  0.96577E+06
 0.86249992E+02  0.97843E+06
 0.86299995E+02  0.94974E+06
 0.86349998E+02  0.87901E+06
 0.86399994E+02  0.78654E+06
 0.86449997E+02  0.68997E+06
 0.86499992E+02  0.59972E+06
 0.86549995E+02  0.51250E+06
 0.86599998E+02  0.42754E+06
 0.86649994E+02  0.35071E+06
 0.86699997E+02  0.26552E+06
 0.86749992E+02  0.15996E+06
 0.86799995E+02  0.35974E+05
 0.86849998E+02 -0.93041E+05
 0.86899994E+02 -0.20731E+06
 0.86949997E+02 -0.28908E+06
 0.86999992E+02 -0.33722E+06
 0.87049995E+02 -0.36551E+06
 0.87099998E+02 -0.37877E+06
 0.87149994E+02 -0.37654E+06
 0.87199997E+02 -0.36075E+06
 0.87249992E+02 -0.36209E+06
 0.87299995E+02 -0.39095E+06
 0.87349998E+02 -0.42091E+06
 0.87399994E+02 -0.43038E+06
 0.87449997E+02 -0.41844E+06
 0.87499992E+02 -0.38581E+06
 0.87549995E+02 -0.31597E+06
 0.87599991E+02 -0.20922E+06
 0.87649994E+02 -0.85971E+05
 0.87699997E+02  0.28073E+05
 0.87749992E+02  0.12687E+06
 0.87799995E+02  0.22152E+06
 0.87849991E+02  0.31497E+06
 0.87899994E+02  0.40280E+06
 0.87949997E+02  0.47717E+06
 0.87999992E+02  0.54169E+06
 0.88049995E+02  0.59114E+06
 0.88099991E+02  0.61007E+06
 0.88149994E+02  0.61105E+06
 0.88199997E+02  0.61713E+06
 0.88249992E+02  0.62750E+06
 0.88299995E+02  0.62476E+06
 0.88349991E+02  0.60258E+06
 0.88399994E+02  0.56830E+06
 0.88449997E+02  0.53704E+06
 0.88499992E+02  0.50794E+06
 0.88549995E+02  0.45883E+06
 0.88599991E+02  0.38836E+06
 0.88649994E+02  0.30911E+06
 0.88699997E+02  0.24617E+06
 0.88749992E+02  0.20784E+06
 0.88799995E+02  0.16301E+06
 0.88849991E+02  0.10487E+06
 0.88899994E+02  0.47629E+05
 0.88949997E+02 -0.56308E+04
 0.88999992E+02 -0.47406E+05
 0.89049995E+02 -0.75311E+05
 0.89099991E+02 -0.10242E+06
 0.89149994E+02 -0.13756E+06
 0.89199997E+02 -0.18649E+06
 0.89249992E+02 -0.24352E+06
 0.89299995E+02 -0.31023E+06
 0.89349991E+02 -0.39377E+06
 0.89399994E+02 -0.46405E+06
 0.89449997E+02 -0.49196E+06
 0.89499992E+02 -0.48531E+06
 0.89549995E+02 -0.47603E+06
 0.89599991E+02 -0.48415E+06
 0.89649994E+02 -0.50688E+06
 0.89699997E+02 -0.53233E+06
 0.89749992E+02 -0.54723E+06
 0.89799995E+02 -0.54782E+06
 0.89849991E+02 -0.52821E+06
 0.89899994E+02 -0.48816E+06
 0.89949997E+02 -0.43494E+06
 0.89999992E+02 -0.38046E+06
 0.90049995E+02 -0.33362E+06
 0.90099991E+02 -0.28375E+06
 0.90149994E+02 -0.22408E+06
 0.90199997E+02 -0.17213E+06
 0.90249992E+02 -0.14212E+06
 0.90299995E+02 -0.14115E+06
 0.90349991E+02 -0.16123E+06
 0.90399994E+02 -0.16858E+06
 0.90449997E+02 -0.14191E+06
 0.90499992E+02 -0.79346E+05
 0.90549995E+02 -0.90789E+04
 0.90599991E+02  0.49408E+05
 0.90649994E+02  0.90263E+05
 0.90699997E+02  0.11204E+06
 0.90749992E+02  0.13397E+06
 0.90799995E+02  0.15885E+06
 0.90849991E+02  0.16114E+06
 0.90899994E+02  0.12642E+06
 0.90949997E+02  0.91162E+05
 0.90999992E+02  0.88979E+05
 0.91049995E+02  0.10934E+06
 0.91099991E+02  0.11579E+06
 0.91149994E+02  0.92848E+05
 0.91199997E+02  0.53279E+05
 0.91249992E+02  0.17832E+05
 0.91299995E+02  0.67262E+03
 0.91349991E+02 -0.74973E+04
 0.91399994E+02 -0.13119E+05
 0.91449997E+02 -0.44374E+04
 0.91499992E+02  0.15584E+05
 0.91549995E+02  0.24236E+05
 0.91599991E+02  0.22025E+05
 0.91649994E+02  0.24044E+05
 0.91699997E+02  0.42475E+05
 0.91749992E+02  0.70458E+05
 0.91799995E+02  0.86776E+05
 0.91849991E+02  0.90754E+05
 0.91899994E+02  0.85063E+05
 0.91949997E+02  0.62600E+05
 0.91999992E+02  0.29454E+05
 0.92049995E+02  0.78044E+04
 0.92099991E+02  0.20844E+05
 0.92149994E+02  0.68924E+05
 0.92199997E+02  0.12688E+06
 0.92249992E+02  0.16854E+06
 0.92299995E+02  0.18595E+06
 0.92349991E+02  0.19003E+06
 0.92399994E+02  0.19194E+06
 0.92449997E+02  0.19235E+06
 0.92499992E+02  0.19269E+06
 0.92549995E+02  0.20085E+06
 0.92599991E+02  0.22019E+06
 0.92649994E+02  0.24892E+06
 0.92699997E+02  0.28559E+06
 0.92749992E+02  0.32088E+06
 0.92799995E+02  0.34406E+06
 0.92849991E+02  0.35807E+06
 0.92899994E+02  0.36008E+06
 0.92949997E+02  0.34073E+06
 0.92999992E+02  0.32521E+06
 0.93049995E+02  0.33651E+06
 0.93099991E+02  0.35803E+06
 0.93149994E+02  0.37002E+06
 0.93199997E+02  0.36803E+06
 0.93249992E+02  0.36271E+06
 0.93299995E+02  0.35217E+06
 0.93349991E+02  0.32683E+06
 0.93399994E+02  0.27871E+06
 0.93449997E+02  0.20978E+06
 0.93499992E+02  0.12757E+06
 0.93549995E+02  0.31245E+05
 0.93599991E+02 -0.72254E+05
 0.93649994E+02 -0.16810E+06
 0.93699997E+02 -0.24356E+06
 0.93749992E+02 -0.30227E+06
 0.93799995E+02 -0.35586E+06
 0.93849991E+02 -0.41825E+06
 0.93899994E+02 -0.48178E+06
 0.93949997E+02 -0.53041E+06
 0.93999992E+02 -0.55460E+06
 0.94049995E+02 -0.54966E+06
 0.94099991E+02 -0.52307E+06
 0.94149994E+02 -0.47911E+06
 0.94199997E+02 -0.43102E+06
 0.94249992E+02 -0.38183E+06
 0.94299995E+02 -0.33090E+06
 0.94349991E+02 -0.28075E+06
 0.94399994E+02 -0.22570E+06
 0.94449997E+02 -0.16185E+06
 0.94499992E+02 -0.92164E+05
 0.94549995E+02 -0.24538E+05
 0.94599991E+02  0.32916E+05
 0.94649994E+02  0.75367E+05
 0.94699997E+02  0.11996E+06
 0.94749992E+02  0.16671E+06
 0.94799995E+02  0.18840E+06
 0.94849991E+02  0.18262E+06
 0.94899994E+02  0.16251E+06
 0.94949997E+02  0.12876E+06
 0.94999992E+02  0.83171E+05
 0.95049995E+02  0.35963E+05
 0.95099991E+02  0.78078E+04
 0.95149994E+02  0.33081E+04
 0.95199997E+02  0.10437E+05
 0.95249992E+02  0.18527E+05
 0.95299995E+02  0.31260E+05
 0.95349991E+02  0.57252E+05
 0.95399994E+02  0.94598E+05
 0.95449997E+02  0.13733E+06
 0.95499992E+02  0.17650E+06
 0.95549995E+02  0.21580E+06
 0.95599991E+02  0.25058E+06
 0.95649994E+02  0.28004E+06
 0.95699997E+02  0.30828E+06
 0.95749992E+02  0.33280E+06
 0.95799995E+02  0.36074E+06
 0.95849991E+02  0.40441E+06
 0.95899994E+02  0.45606E+06
 0.95949997E+02  0.50960E+06
 0.95999992E+02  0.56052E+06
 0.96049995E+02  0.60401E+06
 0.96099991E+02  0.64402E+06
 0.96149994E+02  0.67000E+06
 0.96199997E+02  0.66929E+06
 0.96249992E+02  0.63652E+06
 0.96299995E+02  0.57550E+06
 0.96349991E+02  0.49013E+06
 0.96399994E+02  0.39263E+06
 0.96449997E+02  0.29496E+06
 0.96499992E+02  0.19516E+06
 0.96549995E+02  0.85651E+05
 0.96599991E+02 -0.26510E+05
 0.96649994E+02 -0.12380E+06
 0.96699997E+02 -0.20476E+06
 0.96749992E+02 -0.28368E+06
 0.96799995E+02 -0.36329E+06
 0.96849991E+02 -0.42353E+06
 0.96899994E+02 -0.44661E+06
 0.96949997E+02 -0.43004E+06
 0.96999992E+02 -0.39111E+06
 0.97049995E+02 -0.34816E+06
 0.97099991E+02 -0.29389E+06
 0.97149994E+02 -0.21235E+06
 0.97199997E+02 -0.10262E+06
 0.97249992E+02  0.24549E+05
 0.97299995E+02  0.14574E+06
 0.97349991E+02  0.25363E+06
 0.97399994E+02  0.35182E+06
 0.97449997E+02  0.43560E+06
 0.97499992E+02  0.50420E+06
 0.97549995E+02  0.55054E+06
 0.97599991E+02  0.56947E+06
 0.97649994E+02  0.56060E+06
 0.97699997E+02  0.52064E+06
 0.97749992E+02  0.45574E+06
 0.97799995E+02  0.37659E+06
 0.97849991E+02  0.29129E+06
 0.97899994E+02  0.19940E+06
 0.97949997E+02  0.95878E+05
 0.97999992E+02 -0.24943E+04
