-0.20000000E+01 -0.29888E+05
-0.19500000E+01 -0.24096E+05
-0.19000000E+01 -0.18202E+05
-0.18500000E+01 -0.12015E+05
-0.18000000E+01 -0.54858E+04
-0.17500000E+01  0.19447E+04
-0.17000000E+01  0.95047E+04
-0.16500001E+01  0.16716E+05
-0.16000000E+01  0.24091E+05
-0.15500000E+01  0.31745E+05
-0.15000000E+01  0.38932E+05
-0.14500000E+01  0.44938E+05
-0.14000001E+01  0.49624E+05
-0.13500000E+01  0.52613E+05
-0.13000001E+01  0.53223E+05
-0.12500000E+01  0.51232E+05
-0.12000000E+01  0.47129E+05
-0.11500001E+01  0.41813E+05
-0.11000000E+01  0.36283E+05
-0.10500001E+01  0.31519E+05
-0.10000000E+01  0.28358E+05
-0.95000005E+00  0.27130E+05
-0.90000010E+00  0.27508E+05
-0.85000002E+00  0.28357E+05
-0.80000007E+00  0.29363E+05
-0.75000012E+00  0.29640E+05
-0.70000005E+00  0.28340E+05
-0.65000010E+00  0.25894E+05
-0.60000014E+00  0.22157E+05
-0.55000007E+00  0.17604E+05
-0.50000012E+00  0.12629E+05
-0.45000005E+00  0.81340E+04
-0.40000010E+00  0.53260E+04
-0.35000014E+00  0.39416E+04
-0.30000007E+00  0.30255E+04
-0.25000012E+00  0.23945E+04
-0.20000005E+00  0.18112E+04
-0.15000010E+00  0.36264E+03
-0.10000014E+00 -0.21749E+04
-0.50000072E-01 -0.58331E+04
-0.11920929E-06 -0.10113E+05
 0.49999952E-01 -0.13974E+05
 0.99999905E-01 -0.16455E+05
 0.14999986E+00 -0.17084E+05
 0.19999981E+00 -0.16152E+05
 0.24999976E+00 -0.14933E+05
 0.29999995E+00 -0.13941E+05
 0.34999990E+00 -0.12984E+05
 0.39999986E+00 -0.11792E+05
 0.44999981E+00 -0.10427E+05
 0.49999976E+00 -0.94554E+04
 0.54999995E+00 -0.88986E+04
 0.59999990E+00 -0.89882E+04
 0.64999986E+00 -0.90876E+04
 0.69999981E+00 -0.82083E+04
 0.74999976E+00 -0.59991E+04
 0.79999971E+00 -0.29199E+04
 0.84999990E+00  0.25743E+03
 0.89999986E+00  0.35167E+04
 0.94999981E+00  0.70113E+04
 0.99999976E+00  0.10597E+05
 0.10499997E+01  0.13438E+05
 0.10999999E+01  0.15466E+05
 0.11499999E+01  0.16948E+05
 0.11999998E+01  0.18549E+05
 0.12499998E+01  0.20444E+05
 0.12999997E+01  0.22657E+05
 0.13499999E+01  0.25303E+05
 0.13999999E+01  0.28585E+05
 0.14499998E+01  0.32007E+05
 0.14999998E+01  0.34585E+05
 0.15499997E+01  0.36511E+05
 0.15999999E+01  0.36848E+05
 0.16499999E+01  0.36054E+05
 0.16999998E+01  0.34792E+05
 0.17499998E+01  0.34773E+05
 0.17999997E+01  0.35509E+05
 0.18499997E+01  0.36913E+05
 0.18999999E+01  0.38436E+05
 0.19499998E+01  0.39355E+05
 0.19999998E+01  0.39328E+05
 0.20499997E+01  0.38171E+05
 0.20999999E+01  0.36797E+05
 0.21499996E+01  0.34272E+05
 0.21999998E+01  0.31181E+05
 0.22499995E+01  0.27213E+05
 0.22999997E+01  0.23467E+05
 0.23499999E+01  0.19925E+05
 0.23999996E+01  0.16409E+05
 0.24499998E+01  0.12292E+05
 0.24999995E+01  0.78496E+04
 0.25499997E+01  0.37424E+04
 0.25999999E+01 -0.67754E+03
 0.26499996E+01 -0.50341E+04
 0.26999998E+01 -0.95112E+04
 0.27499995E+01 -0.13889E+05
 0.27999997E+01 -0.18463E+05
 0.28499999E+01 -0.23078E+05
 0.28999996E+01 -0.27787E+05
 0.29499998E+01 -0.32522E+05
 0.29999995E+01 -0.37644E+05
 0.30499997E+01 -0.43081E+05
 0.30999999E+01 -0.48682E+05
 0.31499996E+01 -0.53697E+05
 0.31999998E+01 -0.57376E+05
 0.32499995E+01 -0.59975E+05
 0.32999997E+01 -0.61365E+05
 0.33499999E+01 -0.61118E+05
 0.33999996E+01 -0.58929E+05
 0.34499998E+01 -0.54775E+05
 0.34999995E+01 -0.48806E+05
 0.35499997E+01 -0.41947E+05
 0.35999994E+01 -0.34116E+05
 0.36499996E+01 -0.26305E+05
 0.36999998E+01 -0.18781E+05
 0.37499995E+01 -0.11428E+05
 0.37999997E+01 -0.39505E+04
 0.38499994E+01  0.37593E+04
 0.38999996E+01  0.11043E+05
 0.39499998E+01  0.18480E+05
 0.39999995E+01  0.25792E+05
 0.40499997E+01  0.32888E+05
 0.40999994E+01  0.39672E+05
 0.41499996E+01  0.45925E+05
 0.41999998E+01  0.51298E+05
 0.42499995E+01  0.54879E+05
 0.42999997E+01  0.56837E+05
 0.43499994E+01  0.57714E+05
 0.43999996E+01  0.57792E+05
 0.44499998E+01  0.57635E+05
 0.44999995E+01  0.56875E+05
 0.45499997E+01  0.55324E+05
 0.45999994E+01  0.52438E+05
 0.46499996E+01  0.48125E+05
 0.46999998E+01  0.42836E+05
 0.47499995E+01  0.36610E+05
 0.47999997E+01  0.29542E+05
 0.48499994E+01  0.21840E+05
 0.48999996E+01  0.13965E+05
 0.49499998E+01  0.70787E+04
 0.49999995E+01  0.20618E+04
 0.50499997E+01 -0.99026E+03
 0.50999994E+01 -0.24526E+04
 0.51499996E+01 -0.32292E+04
 0.51999998E+01 -0.35955E+04
 0.52499995E+01 -0.36011E+04
 0.52999997E+01 -0.30993E+04
 0.53499994E+01 -0.27582E+04
 0.53999996E+01 -0.27677E+04
 0.54499993E+01 -0.31951E+04
 0.54999995E+01 -0.35723E+04
 0.55499997E+01 -0.38697E+04
 0.55999994E+01 -0.38343E+04
 0.56499996E+01 -0.36272E+04
 0.56999993E+01 -0.37254E+04
 0.57499995E+01 -0.50725E+04
 0.57999997E+01 -0.81472E+04
 0.58499994E+01 -0.12978E+05
 0.58999996E+01 -0.19371E+05
 0.59499993E+01 -0.26113E+05
 0.59999995E+01 -0.32936E+05
 0.60499992E+01 -0.39497E+05
 0.60999994E+01 -0.46010E+05
 0.61499996E+01 -0.51926E+05
 0.61999998E+01 -0.56868E+05
 0.62499990E+01 -0.60139E+05
 0.62999992E+01 -0.61397E+05
 0.63499994E+01 -0.61113E+05
 0.63999996E+01 -0.59715E+05
 0.64499998E+01 -0.57217E+05
 0.64999990E+01 -0.53438E+05
 0.65499992E+01 -0.48665E+05
 0.65999994E+01 -0.42502E+05
 0.66499996E+01 -0.34724E+05
 0.66999998E+01 -0.25992E+05
 0.67499990E+01 -0.16878E+05
 0.67999992E+01 -0.76376E+04
 0.68499994E+01  0.16340E+04
 0.68999996E+01  0.10530E+05
 0.69499998E+01  0.19436E+05
 0.69999990E+01  0.28114E+05
 0.70499992E+01  0.36136E+05
 0.70999994E+01  0.42939E+05
 0.71499996E+01  0.48479E+05
 0.71999998E+01  0.53026E+05
 0.72499990E+01  0.56131E+05
 0.72999992E+01  0.57944E+05
 0.73499994E+01  0.58084E+05
 0.73999996E+01  0.57051E+05
 0.74499998E+01  0.55068E+05
 0.74999990E+01  0.52704E+05
 0.75499992E+01  0.49691E+05
 0.75999994E+01  0.45949E+05
 0.76499996E+01  0.42005E+05
 0.76999998E+01  0.37976E+05
 0.77499990E+01  0.34360E+05
 0.77999992E+01  0.31064E+05
 0.78499994E+01  0.27608E+05
 0.78999996E+01  0.23759E+05
 0.79499998E+01  0.19768E+05
 0.79999990E+01  0.15662E+05
 0.80499992E+01  0.11517E+05
 0.80999994E+01  0.72722E+04
 0.81499996E+01  0.31602E+04
 0.81999998E+01 -0.79846E+03
 0.82499990E+01 -0.42547E+04
 0.82999992E+01 -0.71789E+04
 0.83499994E+01 -0.97516E+04
 0.83999996E+01 -0.11757E+05
 0.84499998E+01 -0.13145E+05
 0.84999990E+01 -0.14187E+05
 0.85499992E+01 -0.14820E+05
 0.85999994E+01 -0.14715E+05
 0.86499996E+01 -0.14257E+05
 0.86999998E+01 -0.13180E+05
 0.87499990E+01 -0.11976E+05
 0.87999992E+01 -0.11010E+05
 0.88499994E+01 -0.10564E+05
 0.88999996E+01 -0.10758E+05
 0.89499998E+01 -0.11068E+05
 0.89999990E+01 -0.11381E+05
 0.90499992E+01 -0.11118E+05
 0.90999994E+01 -0.10489E+05
 0.91499996E+01 -0.95995E+04
 0.91999989E+01 -0.88678E+04
 0.92499990E+01 -0.84188E+04
 0.92999992E+01 -0.81898E+04
 0.93499994E+01 -0.82390E+04
 0.93999996E+01 -0.86356E+04
 0.94499989E+01 -0.95789E+04
 0.94999990E+01 -0.10582E+05
 0.95499992E+01 -0.11676E+05
 0.95999994E+01 -0.12322E+05
 0.96499996E+01 -0.13481E+05
 0.96999989E+01 -0.15369E+05
 0.97499990E+01 -0.17915E+05
 0.97999992E+01 -0.21301E+05
 0.98499994E+01 -0.25114E+05
 0.98999996E+01 -0.29212E+05
 0.99499989E+01 -0.33226E+05
 0.99999990E+01 -0.37223E+05
 0.10049999E+02 -0.39979E+05
 0.10099999E+02 -0.41046E+05
 0.10150000E+02 -0.40112E+05
 0.10199999E+02 -0.37472E+05
 0.10249999E+02 -0.33732E+05
 0.10299999E+02 -0.29379E+05
 0.10349999E+02 -0.24765E+05
 0.10400000E+02 -0.19499E+05
 0.10449999E+02 -0.13643E+05
 0.10499999E+02 -0.75967E+04
 0.10549999E+02 -0.19743E+04
 0.10599999E+02  0.30541E+04
 0.10650000E+02  0.76668E+04
 0.10699999E+02  0.12084E+05
 0.10749999E+02  0.16002E+05
 0.10799999E+02  0.19124E+05
 0.10849999E+02  0.21331E+05
 0.10900000E+02  0.22809E+05
 0.10949999E+02  0.24050E+05
 0.10999999E+02  0.25123E+05
 0.11049999E+02  0.25989E+05
 0.11099999E+02  0.26856E+05
 0.11150000E+02  0.27790E+05
 0.11199999E+02  0.28820E+05
 0.11249999E+02  0.30157E+05
 0.11299999E+02  0.31726E+05
 0.11349999E+02  0.33838E+05
 0.11400000E+02  0.36328E+05
 0.11449999E+02  0.38448E+05
 0.11499999E+02  0.40264E+05
 0.11549999E+02  0.41576E+05
 0.11599999E+02  0.42715E+05
 0.11650000E+02  0.43805E+05
 0.11699999E+02  0.44318E+05
 0.11749999E+02  0.43906E+05
 0.11799999E+02  0.42090E+05
 0.11849999E+02  0.39323E+05
 0.11900000E+02  0.35759E+05
 0.11949999E+02  0.31264E+05
 0.11999999E+02  0.26099E+05
 0.12049999E+02  0.20655E+05
 0.12099999E+02  0.14949E+05
 0.12150000E+02  0.93168E+04
 0.12199999E+02  0.40237E+04
 0.12249999E+02 -0.92915E+03
 0.12299999E+02 -0.51044E+04
 0.12349999E+02 -0.88938E+04
 0.12400000E+02 -0.11894E+05
 0.12449999E+02 -0.14151E+05
 0.12499999E+02 -0.15817E+05
 0.12549999E+02 -0.16591E+05
 0.12599999E+02 -0.16529E+05
 0.12649999E+02 -0.15531E+05
 0.12699999E+02 -0.13730E+05
 0.12749999E+02 -0.10842E+05
 0.12799999E+02 -0.72348E+04
 0.12849999E+02 -0.40260E+04
 0.12899999E+02 -0.16349E+04
 0.12949999E+02 -0.10565E+03
 0.12999999E+02  0.74992E+02
 0.13049999E+02 -0.12503E+04
 0.13099999E+02 -0.38706E+04
 0.13149999E+02 -0.68201E+04
 0.13199999E+02 -0.93694E+04
 0.13249999E+02 -0.10996E+05
 0.13299999E+02 -0.11393E+05
 0.13349999E+02 -0.10866E+05
 0.13399999E+02 -0.97225E+04
 0.13449999E+02 -0.87001E+04
 0.13499999E+02 -0.78007E+04
 0.13549999E+02 -0.70303E+04
 0.13599999E+02 -0.64132E+04
 0.13649999E+02 -0.59420E+04
 0.13699999E+02 -0.62754E+04
 0.13749999E+02 -0.74221E+04
 0.13799999E+02 -0.88391E+04
 0.13849999E+02 -0.10159E+05
 0.13899999E+02 -0.11126E+05
 0.13949999E+02 -0.11791E+05
 0.13999999E+02 -0.12552E+05
 0.14049999E+02 -0.13537E+05
 0.14099998E+02 -0.14115E+05
 0.14150000E+02 -0.13535E+05
 0.14199999E+02 -0.11403E+05
 0.14249998E+02 -0.76624E+04
 0.14299999E+02 -0.20822E+04
 0.14349998E+02  0.48036E+04
 0.14400000E+02  0.12065E+05
 0.14449999E+02  0.19013E+05
 0.14499998E+02  0.25019E+05
 0.14549999E+02  0.30000E+05
 0.14599998E+02  0.33900E+05
 0.14650000E+02  0.36863E+05
 0.14699999E+02  0.38584E+05
 0.14749998E+02  0.39357E+05
 0.14799999E+02  0.39338E+05
 0.14849998E+02  0.38289E+05
 0.14900000E+02  0.36708E+05
 0.14949999E+02  0.34019E+05
 0.14999998E+02  0.29879E+05
 0.15049999E+02  0.24204E+05
 0.15099998E+02  0.16906E+05
 0.15150000E+02  0.85481E+04
 0.15199999E+02 -0.16518E+02
 0.15249998E+02 -0.80191E+04
 0.15299999E+02 -0.14974E+05
 0.15349998E+02 -0.20989E+05
 0.15400000E+02 -0.26220E+05
 0.15449999E+02 -0.30672E+05
 0.15499998E+02 -0.34405E+05
 0.15549999E+02 -0.37028E+05
 0.15599998E+02 -0.38886E+05
 0.15650000E+02 -0.40270E+05
 0.15699999E+02 -0.41021E+05
 0.15749998E+02 -0.41351E+05
 0.15799999E+02 -0.41181E+05
 0.15849998E+02 -0.40422E+05
 0.15900000E+02 -0.39394E+05
 0.15949999E+02 -0.37907E+05
 0.15999998E+02 -0.35323E+05
 0.16049999E+02 -0.31445E+05
 0.16099998E+02 -0.26249E+05
 0.16150000E+02 -0.20164E+05
 0.16199999E+02 -0.13425E+05
 0.16249998E+02 -0.58936E+04
 0.16299999E+02  0.24663E+04
 0.16349998E+02  0.11252E+05
 0.16400000E+02  0.19975E+05
 0.16449999E+02  0.28652E+05
 0.16499998E+02  0.36838E+05
 0.16549999E+02  0.44382E+05
 0.16599998E+02  0.51016E+05
 0.16650000E+02  0.56774E+05
 0.16699999E+02  0.62080E+05
 0.16749998E+02  0.66960E+05
 0.16799999E+02  0.71347E+05
 0.16849998E+02  0.75848E+05
 0.16900000E+02  0.79638E+05
 0.16949999E+02  0.81650E+05
 0.16999998E+02  0.81966E+05
 0.17049999E+02  0.80888E+05
 0.17099998E+02  0.78860E+05
 0.17150000E+02  0.75746E+05
 0.17199999E+02  0.70879E+05
 0.17249998E+02  0.64186E+05
 0.17299999E+02  0.56309E+05
 0.17349998E+02  0.46838E+05
 0.17400000E+02  0.36512E+05
 0.17449999E+02  0.25263E+05
 0.17499998E+02  0.12818E+05
 0.17549999E+02 -0.82964E+03
 0.17599998E+02 -0.15025E+05
 0.17650000E+02 -0.28892E+05
 0.17699999E+02 -0.42637E+05
 0.17749998E+02 -0.55645E+05
 0.17799999E+02 -0.67706E+05
 0.17849998E+02 -0.78231E+05
 0.17900000E+02 -0.86891E+05
 0.17949999E+02 -0.93618E+05
 0.17999998E+02 -0.98788E+05
 0.18049999E+02 -0.10258E+06
 0.18099998E+02 -0.10491E+06
 0.18150000E+02 -0.10579E+06
 0.18199999E+02 -0.10495E+06
 0.18249998E+02 -0.10229E+06
 0.18299999E+02 -0.97726E+05
 0.18349998E+02 -0.91959E+05
 0.18400000E+02 -0.85225E+05
 0.18449999E+02 -0.77424E+05
 0.18499998E+02 -0.68245E+05
 0.18549999E+02 -0.57712E+05
 0.18599998E+02 -0.46498E+05
 0.18650000E+02 -0.35143E+05
 0.18699999E+02 -0.24017E+05
 0.18749998E+02 -0.13086E+05
 0.18799999E+02 -0.25885E+04
 0.18849998E+02  0.69246E+04
 0.18900000E+02  0.15527E+05
 0.18949999E+02  0.23505E+05
 0.18999998E+02  0.30995E+05
 0.19049999E+02  0.38668E+05
 0.19099998E+02  0.46494E+05
 0.19150000E+02  0.54238E+05
 0.19199999E+02  0.61866E+05
 0.19249998E+02  0.68846E+05
 0.19299999E+02  0.75328E+05
 0.19349998E+02  0.81091E+05
 0.19400000E+02  0.85778E+05
 0.19449999E+02  0.88772E+05
 0.19499998E+02  0.90199E+05
 0.19549999E+02  0.90311E+05
 0.19599998E+02  0.88965E+05
 0.19650000E+02  0.86480E+05
 0.19699999E+02  0.82282E+05
 0.19749998E+02  0.76973E+05
 0.19799999E+02  0.70804E+05
 0.19849998E+02  0.64181E+05
 0.19900000E+02  0.57419E+05
 0.19949999E+02  0.50385E+05
 0.19999998E+02  0.43349E+05
 0.20049999E+02  0.36308E+05
 0.20099998E+02  0.29941E+05
 0.20150000E+02  0.23890E+05
 0.20199999E+02  0.17985E+05
 0.20249998E+02  0.11843E+05
 0.20299999E+02  0.55833E+04
 0.20349998E+02 -0.29239E+03
 0.20399998E+02 -0.53983E+04
 0.20449999E+02 -0.90220E+04
 0.20499998E+02 -0.11180E+05
 0.20549999E+02 -0.12588E+05
 0.20599998E+02 -0.14208E+05
 0.20649998E+02 -0.16173E+05
 0.20699999E+02 -0.18250E+05
 0.20749998E+02 -0.20351E+05
 0.20799999E+02 -0.22889E+05
 0.20849998E+02 -0.25665E+05
 0.20899998E+02 -0.28435E+05
 0.20949999E+02 -0.30482E+05
 0.20999998E+02 -0.31383E+05
 0.21049999E+02 -0.30558E+05
 0.21099998E+02 -0.28394E+05
 0.21149998E+02 -0.25256E+05
 0.21199999E+02 -0.21530E+05
 0.21249998E+02 -0.17833E+05
 0.21299999E+02 -0.13935E+05
 0.21349998E+02 -0.10210E+05
 0.21399998E+02 -0.68988E+04
 0.21449999E+02 -0.42147E+04
 0.21499998E+02 -0.21493E+04
 0.21549999E+02 -0.83981E+02
 0.21599998E+02  0.20177E+04
 0.21649998E+02  0.39952E+04
 0.21699999E+02  0.58759E+04
 0.21749998E+02  0.75858E+04
 0.21799999E+02  0.90058E+04
 0.21849998E+02  0.96390E+04
 0.21899998E+02  0.98478E+04
 0.21949999E+02  0.98675E+04
 0.21999998E+02  0.97148E+04
 0.22049999E+02  0.92847E+04
 0.22099998E+02  0.86049E+04
 0.22149998E+02  0.79868E+04
 0.22199999E+02  0.72978E+04
 0.22249998E+02  0.62310E+04
 0.22299999E+02  0.53887E+04
 0.22349998E+02  0.44948E+04
 0.22399998E+02  0.35492E+04
 0.22449999E+02  0.23685E+04
 0.22499998E+02  0.90863E+03
 0.22549999E+02 -0.27081E+03
 0.22599998E+02 -0.13948E+04
 0.22649998E+02 -0.23910E+04
 0.22699999E+02 -0.29910E+04
 0.22749998E+02 -0.35790E+04
 0.22799999E+02 -0.46856E+04
 0.22849998E+02 -0.65659E+04
 0.22899998E+02 -0.94728E+04
 0.22949999E+02 -0.12623E+05
 0.22999998E+02 -0.15864E+05
 0.23049999E+02 -0.18674E+05
 0.23099998E+02 -0.20927E+05
 0.23149998E+02 -0.22789E+05
 0.23199999E+02 -0.24131E+05
 0.23249998E+02 -0.25345E+05
 0.23299999E+02 -0.26193E+05
 0.23349998E+02 -0.26320E+05
 0.23399998E+02 -0.25691E+05
 0.23449999E+02 -0.25016E+05
 0.23499998E+02 -0.24390E+05
 0.23549999E+02 -0.23937E+05
 0.23599998E+02 -0.23875E+05
 0.23649998E+02 -0.23371E+05
 0.23699999E+02 -0.22466E+05
 0.23749998E+02 -0.21046E+05
 0.23799999E+02 -0.19223E+05
 0.23849998E+02 -0.17074E+05
 0.23899998E+02 -0.14906E+05
 0.23949999E+02 -0.12965E+05
 0.23999998E+02 -0.11184E+05
 0.24049999E+02 -0.99294E+04
 0.24099998E+02 -0.89431E+04
 0.24149998E+02 -0.81942E+04
 0.24199999E+02 -0.71803E+04
 0.24249998E+02 -0.51733E+04
 0.24299999E+02 -0.23914E+04
 0.24349998E+02  0.76213E+03
 0.24399998E+02  0.36461E+04
 0.24449999E+02  0.62056E+04
 0.24499998E+02  0.83378E+04
 0.24549999E+02  0.10487E+05
 0.24599998E+02  0.13139E+05
 0.24649998E+02  0.16409E+05
 0.24699999E+02  0.21045E+05
 0.24749998E+02  0.26529E+05
 0.24799999E+02  0.31396E+05
 0.24849998E+02  0.34465E+05
 0.24899998E+02  0.35014E+05
 0.24949999E+02  0.34832E+05
 0.24999998E+02  0.37831E+05
 0.25049999E+02  0.45022E+05
 0.25099998E+02  0.55158E+05
 0.25149998E+02  0.64493E+05
 0.25199999E+02  0.70315E+05
 0.25249998E+02  0.70692E+05
 0.25299999E+02  0.65728E+05
 0.25349998E+02  0.61410E+05
 0.25399998E+02  0.62643E+05
 0.25449999E+02  0.68758E+05
 0.25499998E+02  0.81042E+05
 0.25549999E+02  0.96376E+05
 0.25599998E+02  0.10059E+06
 0.25649998E+02  0.94690E+05
 0.25699999E+02  0.89710E+05
 0.25749998E+02  0.87742E+05
 0.25799999E+02  0.89831E+05
 0.25849998E+02  0.92956E+05
 0.25899998E+02  0.96759E+05
 0.25949999E+02  0.93259E+05
 0.25999998E+02  0.80462E+05
 0.26049999E+02  0.69368E+05
 0.26099998E+02  0.60015E+05
 0.26149998E+02  0.58663E+05
 0.26199999E+02  0.77524E+05
 0.26249998E+02  0.98237E+05
 0.26299999E+02  0.94617E+05
 0.26349998E+02  0.79339E+05
 0.26399998E+02  0.56660E+05
 0.26449999E+02  0.34506E+05
 0.26499998E+02  0.18637E+05
 0.26549999E+02  0.10965E+05
 0.26599998E+02  0.20028E+04
 0.26649998E+02 -0.22203E+05
 0.26699999E+02 -0.43706E+05
 0.26749998E+02 -0.46288E+05
 0.26799999E+02 -0.31647E+05
 0.26849998E+02 -0.34426E+05
 0.26899998E+02 -0.56367E+05
 0.26949999E+02 -0.62710E+05
 0.26999998E+02 -0.52639E+05
 0.27049997E+02 -0.58337E+05
 0.27099998E+02 -0.93577E+05
 0.27149998E+02 -0.13877E+06
 0.27199999E+02 -0.16876E+06
 0.27249998E+02 -0.19489E+06
 0.27299997E+02 -0.17273E+06
 0.27349998E+02 -0.12054E+06
 0.27399998E+02 -0.11513E+06
 0.27449999E+02 -0.13775E+06
 0.27499998E+02 -0.15562E+06
 0.27549997E+02 -0.13611E+06
 0.27599998E+02 -0.15064E+06
 0.27649998E+02 -0.15331E+06
 0.27699999E+02 -0.11091E+06
 0.27749998E+02 -0.99314E+05
 0.27799997E+02 -0.12329E+06
 0.27849998E+02 -0.12009E+06
 0.27899998E+02 -0.60921E+05
 0.27949999E+02 -0.41786E+05
 0.27999998E+02 -0.31028E+05
 0.28049997E+02 -0.14085E+05
 0.28099998E+02 -0.13412E+04
 0.28149998E+02 -0.28224E+05
 0.28199999E+02 -0.85959E+05
 0.28249998E+02 -0.97916E+05
 0.28299997E+02 -0.99426E+05
 0.28349998E+02 -0.98996E+05
 0.28399998E+02 -0.75253E+05
 0.28449999E+02  0.67888E+04
 0.28499998E+02  0.96687E+05
 0.28549997E+02  0.15982E+06
 0.28599998E+02  0.17932E+06
 0.28649998E+02  0.15782E+06
 0.28699999E+02  0.15619E+06
 0.28749998E+02  0.15025E+06
 0.28799997E+02  0.11977E+06
 0.28849998E+02  0.51059E+05
 0.28899998E+02  0.12868E+05
 0.28949999E+02  0.60266E+05
 0.28999998E+02  0.82870E+05
 0.29049997E+02  0.71405E+05
 0.29099998E+02  0.99945E+05
 0.29149998E+02  0.81572E+05
 0.29199999E+02  0.32315E+05
 0.29249998E+02  0.34023E+05
 0.29299997E+02  0.62755E+04
 0.29349998E+02 -0.56923E+05
 0.29399998E+02 -0.48060E+05
 0.29449999E+02  0.13180E+05
 0.29499998E+02 -0.78737E+04
 0.29549997E+02 -0.12492E+06
 0.29599998E+02 -0.10971E+06
 0.29649998E+02 -0.44567E+05
 0.29699999E+02 -0.28874E+05
 0.29749998E+02  0.32001E+05
 0.29799997E+02 -0.19813E+05
 0.29849998E+02 -0.96938E+05
 0.29899998E+02 -0.15509E+06
 0.29949999E+02 -0.26639E+06
 0.29999998E+02 -0.30869E+06
 0.30049999E+02 -0.23753E+06
 0.30099998E+02 -0.18041E+06
 0.30149998E+02 -0.19131E+06
 0.30199997E+02 -0.22708E+06
 0.30249996E+02 -0.18637E+06
 0.30299999E+02 -0.88805E+05
 0.30349998E+02 -0.93449E+05
 0.30399998E+02 -0.14197E+06
 0.30449997E+02 -0.19744E+06
 0.30499996E+02 -0.24042E+06
 0.30549999E+02 -0.29507E+06
 0.30599998E+02 -0.30313E+06
 0.30649998E+02 -0.20925E+06
 0.30699997E+02 -0.10392E+06
 0.30749996E+02  0.83489E+04
 0.30799999E+02 -0.14647E+05
 0.30849998E+02 -0.12320E+06
 0.30899998E+02 -0.16494E+06
 0.30949997E+02 -0.24053E+06
 0.30999996E+02 -0.37229E+06
 0.31049999E+02 -0.39644E+06
 0.31099998E+02 -0.27549E+06
 0.31149998E+02 -0.24770E+06
 0.31199997E+02 -0.21161E+06
 0.31249996E+02 -0.73855E+05
 0.31299999E+02 -0.41082E+05
 0.31349998E+02 -0.11194E+06
 0.31399998E+02 -0.11042E+06
 0.31449997E+02 -0.23947E+05
 0.31499996E+02  0.90098E+04
 0.31549999E+02 -0.80815E+04
 0.31599998E+02  0.68783E+05
 0.31649998E+02  0.25888E+06
 0.31699997E+02  0.24019E+06
 0.31749996E+02  0.99096E+05
 0.31799999E+02 -0.84493E+04
 0.31849998E+02  0.15553E+04
 0.31899998E+02  0.54114E+05
 0.31949997E+02 -0.62976E+04
 0.31999996E+02 -0.98678E+05
 0.32049999E+02 -0.67013E+05
 0.32099998E+02 -0.14523E+05
 0.32149998E+02 -0.11492E+06
 0.32199997E+02 -0.21436E+05
 0.32249996E+02  0.19000E+05
 0.32299999E+02 -0.18609E+06
 0.32349998E+02 -0.20339E+06
 0.32399998E+02 -0.73363E+05
 0.32449997E+02 -0.59753E+05
 0.32499996E+02 -0.82876E+05
 0.32549999E+02 -0.45287E+05
 0.32599998E+02 -0.49610E+05
 0.32649998E+02 -0.93082E+05
 0.32699997E+02 -0.49676E+05
 0.32749996E+02  0.59434E+05
 0.32799999E+02  0.12804E+06
 0.32849998E+02  0.62522E+05
 0.32899998E+02 -0.29101E+05
 0.32949997E+02 -0.13511E+06
 0.32999996E+02 -0.22933E+06
 0.33049999E+02 -0.27612E+06
 0.33099998E+02 -0.24511E+06
 0.33149998E+02 -0.10414E+06
 0.33199997E+02 -0.25173E+05
 0.33249996E+02 -0.25092E+05
 0.33299999E+02 -0.58149E+05
 0.33349998E+02 -0.97528E+05
 0.33399998E+02 -0.11136E+06
 0.33449997E+02 -0.10490E+06
 0.33499996E+02 -0.17848E+05
 0.33549999E+02  0.68692E+05
 0.33599998E+02 -0.63317E+05
 0.33649998E+02 -0.18443E+06
 0.33699997E+02 -0.15773E+06
 0.33749996E+02 -0.17648E+06
 0.33799999E+02 -0.19153E+06
 0.33849998E+02 -0.11018E+06
 0.33899998E+02 -0.73995E+05
 0.33949997E+02 -0.34615E+05
 0.33999996E+02  0.11897E+05
 0.34049999E+02  0.10293E+05
 0.34099998E+02 -0.10644E+05
 0.34149998E+02 -0.59474E+05
 0.34199997E+02 -0.47181E+05
 0.34249996E+02  0.83853E+05
 0.34299999E+02  0.38280E+06
 0.34349998E+02  0.59491E+06
 0.34399998E+02  0.50769E+06
 0.34449997E+02  0.30213E+06
 0.34499996E+02  0.18087E+06
 0.34549999E+02  0.18542E+06
 0.34599998E+02  0.30539E+06
 0.34649998E+02  0.36636E+06
 0.34699997E+02  0.25481E+06
 0.34749996E+02  0.14044E+06
 0.34799999E+02  0.16126E+06
 0.34849998E+02  0.23003E+06
 0.34899998E+02  0.22481E+06
 0.34949997E+02  0.21391E+06
 0.34999996E+02  0.18005E+06
 0.35049999E+02  0.15521E+06
 0.35099998E+02  0.38115E+06
 0.35149998E+02  0.54913E+06
 0.35199997E+02  0.52160E+06
 0.35249996E+02  0.62603E+06
 0.35299999E+02  0.69595E+06
 0.35349998E+02  0.58838E+06
 0.35399998E+02  0.40841E+06
 0.35449997E+02  0.33961E+06
 0.35499996E+02  0.42719E+06
 0.35549999E+02  0.46222E+06
 0.35599998E+02  0.45512E+06
 0.35649998E+02  0.48658E+06
 0.35699997E+02  0.50014E+06
 0.35749996E+02  0.52761E+06
 0.35799999E+02  0.55717E+06
 0.35849998E+02  0.55014E+06
 0.35899998E+02  0.31442E+06
 0.35949997E+02  0.94114E+05
 0.35999996E+02  0.18358E+05
 0.36049999E+02 -0.65379E+05
 0.36099998E+02 -0.30981E+05
 0.36149998E+02 -0.55654E+05
 0.36199997E+02 -0.96673E+05
 0.36249996E+02 -0.23136E+05
 0.36299999E+02  0.85559E+05
 0.36349998E+02  0.48696E+05
 0.36399998E+02 -0.69270E+05
 0.36449997E+02 -0.11901E+06
 0.36499996E+02 -0.11021E+06
 0.36549999E+02 -0.48024E+05
 0.36599998E+02  0.95715E+04
 0.36649998E+02  0.59836E+05
 0.36699997E+02  0.57859E+05
 0.36749996E+02  0.36179E+05
 0.36799999E+02  0.67496E+05
 0.36849998E+02  0.12594E+06
 0.36899998E+02  0.81342E+05
 0.36949997E+02  0.43447E+02
 0.36999996E+02 -0.30878E+05
 0.37049999E+02 -0.52028E+05
 0.37099998E+02 -0.59644E+05
 0.37149998E+02 -0.10300E+06
 0.37199997E+02 -0.11419E+06
 0.37249996E+02 -0.11992E+06
 0.37299999E+02 -0.14617E+06
 0.37349998E+02 -0.13010E+06
 0.37399998E+02 -0.85048E+05
 0.37449997E+02  0.55842E+05
 0.37499996E+02  0.28320E+06
 0.37549999E+02  0.43425E+06
 0.37599998E+02  0.43518E+06
 0.37649998E+02  0.33990E+06
 0.37699997E+02  0.22507E+06
 0.37749996E+02  0.25566E+06
 0.37799999E+02  0.39269E+06
 0.37849998E+02  0.45210E+06
 0.37899998E+02  0.47973E+06
 0.37949997E+02  0.53212E+06
 0.37999996E+02  0.57619E+06
 0.38049999E+02  0.60702E+06
 0.38099998E+02  0.62513E+06
 0.38149998E+02  0.57767E+06
 0.38199997E+02  0.48149E+06
 0.38249996E+02  0.39519E+06
 0.38299999E+02  0.32843E+06
 0.38349998E+02  0.23114E+06
 0.38399998E+02  0.19493E+05
 0.38449997E+02 -0.17892E+06
 0.38499996E+02 -0.26821E+06
 0.38549999E+02 -0.24735E+06
 0.38599998E+02 -0.21719E+06
 0.38649998E+02 -0.21908E+06
 0.38699997E+02 -0.23933E+06
 0.38749996E+02 -0.27615E+06
 0.38799999E+02 -0.24410E+06
 0.38849998E+02 -0.22399E+06
 0.38899998E+02 -0.26116E+06
 0.38949997E+02 -0.35558E+06
 0.38999996E+02 -0.41925E+06
 0.39049999E+02 -0.40143E+06
 0.39099998E+02 -0.30999E+06
 0.39149998E+02 -0.18852E+06
 0.39199997E+02 -0.18061E+06
 0.39249996E+02 -0.28180E+06
 0.39299999E+02 -0.33329E+06
 0.39349998E+02 -0.34021E+06
 0.39399998E+02 -0.26845E+06
 0.39449997E+02 -0.13119E+06
 0.39499996E+02 -0.80341E+05
 0.39549999E+02 -0.43359E+05
 0.39599998E+02 -0.49999E+04
 0.39649998E+02 -0.82377E+04
 0.39699997E+02 -0.59795E+04
 0.39749996E+02  0.93923E+04
 0.39799999E+02 -0.27728E+05
 0.39849998E+02 -0.10005E+06
 0.39899998E+02 -0.14658E+06
 0.39949997E+02 -0.16497E+06
 0.39999996E+02 -0.12783E+06
 0.40049999E+02 -0.41021E+05
 0.40099998E+02 -0.37529E+05
 0.40149998E+02 -0.69444E+05
 0.40199997E+02 -0.91163E+05
 0.40249996E+02 -0.15937E+06
 0.40299999E+02 -0.23023E+06
 0.40349998E+02 -0.25606E+06
 0.40399998E+02 -0.20350E+06
 0.40449997E+02 -0.16171E+06
 0.40499996E+02 -0.17049E+06
 0.40549999E+02 -0.19742E+06
 0.40599998E+02 -0.15672E+06
 0.40649998E+02 -0.27813E+05
 0.40699997E+02  0.19860E+05
 0.40749996E+02 -0.70526E+03
 0.40799999E+02 -0.54613E+05
 0.40849998E+02 -0.21487E+06
 0.40899998E+02 -0.39363E+06
 0.40949997E+02 -0.43444E+06
 0.40999996E+02 -0.41117E+06
 0.41049999E+02 -0.39147E+06
 0.41099998E+02 -0.39312E+06
 0.41149998E+02 -0.50777E+06
 0.41199997E+02 -0.56372E+06
 0.41249996E+02 -0.47897E+06
 0.41299999E+02 -0.43190E+06
 0.41349998E+02 -0.48759E+06
 0.41399998E+02 -0.55558E+06
 0.41449997E+02 -0.52979E+06
 0.41499996E+02 -0.40555E+06
 0.41549999E+02 -0.26327E+06
 0.41599998E+02 -0.21706E+06
 0.41649998E+02 -0.22543E+06
 0.41699997E+02 -0.15108E+06
 0.41749996E+02 -0.10261E+06
 0.41799999E+02 -0.93893E+05
 0.41849998E+02 -0.48602E+05
 0.41899998E+02 -0.62948E+05
 0.41949997E+02 -0.18086E+06
 0.41999996E+02 -0.28748E+06
 0.42049999E+02 -0.34791E+06
 0.42099998E+02 -0.41549E+06
 0.42149998E+02 -0.48724E+06
 0.42199997E+02 -0.55579E+06
 0.42249996E+02 -0.59234E+06
 0.42299999E+02 -0.53022E+06
 0.42349998E+02 -0.39020E+06
 0.42399998E+02 -0.30980E+06
 0.42449997E+02 -0.32984E+06
 0.42499996E+02 -0.35853E+06
 0.42549999E+02 -0.37262E+06
 0.42599998E+02 -0.33178E+06
 0.42649998E+02 -0.25696E+06
 0.42699997E+02 -0.21698E+06
 0.42749996E+02 -0.23612E+06
 0.42799995E+02 -0.32351E+06
 0.42849998E+02 -0.39325E+06
 0.42899998E+02 -0.40372E+06
 0.42949997E+02 -0.35728E+06
 0.42999996E+02 -0.29864E+06
 0.43049995E+02 -0.14127E+06
 0.43099998E+02  0.46666E+05
 0.43149998E+02  0.16870E+06
 0.43199997E+02  0.23615E+06
 0.43249996E+02  0.21235E+06
 0.43299995E+02  0.10341E+06
 0.43349998E+02 -0.83893E+04
 0.43399998E+02 -0.22303E+05
 0.43449997E+02  0.26067E+05
 0.43499996E+02  0.19971E+06
 0.43549995E+02  0.45144E+06
 0.43599998E+02  0.59520E+06
 0.43649998E+02  0.64467E+06
 0.43699997E+02  0.66790E+06
 0.43749996E+02  0.63219E+06
 0.43799995E+02  0.53239E+06
 0.43849998E+02  0.43829E+06
 0.43899998E+02  0.44057E+06
 0.43949997E+02  0.52577E+06
 0.43999996E+02  0.63446E+06
 0.44049995E+02  0.69951E+06
 0.44099998E+02  0.69827E+06
 0.44149998E+02  0.67443E+06
 0.44199997E+02  0.59022E+06
 0.44249996E+02  0.44431E+06
 0.44299995E+02  0.35256E+06
 0.44349998E+02  0.28696E+06
 0.44399998E+02  0.16643E+06
 0.44449997E+02  0.52360E+05
 0.44499996E+02 -0.45413E+05
 0.44549995E+02 -0.56052E+05
 0.44599998E+02 -0.26851E+05
 0.44649998E+02  0.19472E+05
 0.44699997E+02  0.11538E+06
 0.44749996E+02  0.12668E+06
 0.44799995E+02  0.76814E+05
 0.44849998E+02  0.62611E+05
 0.44899998E+02  0.10126E+06
 0.44949997E+02  0.13321E+06
 0.44999996E+02  0.79033E+05
 0.45049995E+02 -0.10264E+06
 0.45099998E+02 -0.26301E+06
 0.45149998E+02 -0.30504E+06
 0.45199997E+02 -0.25554E+06
 0.45249996E+02 -0.33037E+06
 0.45299995E+02 -0.62806E+06
 0.45349998E+02 -0.10858E+07
 0.45399998E+02 -0.14910E+07
 0.45449997E+02 -0.11716E+07
 0.45499996E+02 -0.14224E+06
 0.45549995E+02  0.77041E+06
 0.45599998E+02  0.11986E+07
 0.45649998E+02  0.11436E+07
 0.45699997E+02  0.61925E+06
 0.45749996E+02  0.24435E+06
 0.45799995E+02  0.19428E+06
 0.45849998E+02  0.22534E+06
 0.45899998E+02  0.20696E+06
 0.45949997E+02  0.35214E+05
 0.45999996E+02 -0.12979E+06
 0.46049995E+02  0.51382E+05
 0.46099998E+02  0.50860E+06
 0.46149998E+02  0.68911E+06
 0.46199997E+02  0.70733E+06
 0.46249996E+02  0.51207E+06
 0.46299995E+02  0.35979E+06
 0.46349998E+02  0.73148E+06
 0.46399998E+02  0.10474E+07
 0.46449997E+02  0.13632E+07
 0.46499996E+02  0.19365E+07
 0.46549995E+02  0.19373E+07
 0.46599998E+02  0.14939E+07
 0.46649998E+02  0.13387E+07
 0.46699997E+02  0.12145E+07
 0.46749996E+02  0.10195E+07
 0.46799995E+02  0.10355E+07
 0.46849998E+02  0.73832E+06
 0.46899998E+02  0.40975E+06
 0.46949997E+02  0.32557E+06
 0.46999996E+02 -0.79556E+05
 0.47049995E+02 -0.26681E+06
 0.47099998E+02 -0.13757E+06
 0.47149998E+02 -0.33610E+06
 0.47199997E+02 -0.74127E+06
 0.47249996E+02 -0.79232E+06
 0.47299995E+02 -0.75192E+06
 0.47349998E+02 -0.70216E+06
 0.47399998E+02 -0.51835E+06
 0.47449997E+02 -0.44017E+06
 0.47499996E+02 -0.61320E+06
 0.47549995E+02 -0.11679E+07
 0.47599998E+02 -0.16090E+07
 0.47649998E+02 -0.17256E+07
 0.47699997E+02 -0.20328E+07
 0.47749996E+02 -0.21660E+07
 0.47799995E+02 -0.18814E+07
 0.47849998E+02 -0.15016E+07
 0.47899998E+02 -0.10972E+07
 0.47949997E+02 -0.94929E+06
 0.47999996E+02 -0.10514E+07
 0.48049995E+02 -0.11987E+07
 0.48099998E+02 -0.12342E+07
 0.48149998E+02 -0.90741E+06
 0.48199997E+02 -0.25050E+06
 0.48249996E+02  0.16026E+06
 0.48299995E+02  0.13642E+06
 0.48349998E+02  0.11969E+06
 0.48399998E+02  0.14388E+06
 0.48449997E+02  0.67272E+05
 0.48499996E+02 -0.86442E+05
 0.48549995E+02 -0.20383E+06
 0.48599998E+02 -0.70305E+05
 0.48649998E+02  0.10322E+06
 0.48699997E+02  0.26259E+06
 0.48749996E+02  0.67497E+06
 0.48799995E+02  0.12244E+07
 0.48849998E+02  0.18072E+07
 0.48899998E+02  0.24161E+07
 0.48949997E+02  0.28128E+07
 0.48999996E+02  0.25843E+07
 0.49049995E+02  0.18721E+07
 0.49099998E+02  0.13395E+07
 0.49149998E+02  0.13451E+07
 0.49199997E+02  0.16953E+07
 0.49249996E+02  0.17606E+07
 0.49299995E+02  0.14123E+07
 0.49349998E+02  0.98652E+06
 0.49399998E+02  0.53430E+06
 0.49449997E+02  0.30241E+06
 0.49499996E+02  0.35505E+06
 0.49549995E+02  0.39230E+06
 0.49599998E+02  0.24426E+06
 0.49649998E+02 -0.12793E+06
 0.49699997E+02 -0.34214E+06
 0.49749996E+02 -0.32736E+06
 0.49799995E+02 -0.34853E+06
 0.49849998E+02 -0.34173E+06
 0.49899998E+02 -0.36152E+06
 0.49949997E+02 -0.60778E+06
 0.49999996E+02 -0.11432E+07
 0.50049995E+02 -0.16630E+07
 0.50099998E+02 -0.19855E+07
 0.50149998E+02 -0.22571E+07
 0.50199997E+02 -0.23662E+07
 0.50249996E+02 -0.20823E+07
 0.50299995E+02 -0.14268E+07
 0.50349998E+02 -0.78027E+06
 0.50399998E+02 -0.52504E+06
 0.50449997E+02 -0.46778E+06
 0.50499996E+02 -0.32710E+06
 0.50549995E+02 -0.31645E+06
 0.50599998E+02 -0.39546E+06
 0.50649998E+02 -0.35783E+06
 0.50699997E+02 -0.13599E+06
 0.50749996E+02 -0.28071E+05
 0.50799995E+02 -0.33427E+06
 0.50849998E+02 -0.74841E+06
 0.50899998E+02 -0.10647E+07
 0.50949997E+02 -0.11985E+07
 0.50999996E+02 -0.10615E+07
 0.51049995E+02 -0.58717E+06
 0.51099998E+02 -0.69187E+05
 0.51149998E+02  0.16215E+06
 0.51199997E+02  0.25026E+06
 0.51249996E+02  0.48461E+06
 0.51299995E+02  0.84299E+06
 0.51349998E+02  0.11222E+07
 0.51399998E+02  0.12367E+07
 0.51449997E+02  0.14119E+07
 0.51499996E+02  0.17638E+07
 0.51549995E+02  0.20594E+07
 0.51599998E+02  0.22927E+07
 0.51649998E+02  0.22269E+07
 0.51699997E+02  0.18320E+07
 0.51749996E+02  0.14163E+07
 0.51799995E+02  0.10559E+07
 0.51849998E+02  0.79980E+06
 0.51899998E+02  0.70334E+06
 0.51949997E+02  0.73214E+06
 0.51999996E+02  0.81852E+06
 0.52049995E+02  0.10329E+07
 0.52099998E+02  0.11795E+07
 0.52149998E+02  0.97279E+06
 0.52199997E+02  0.60861E+06
 0.52249996E+02  0.92399E+05
 0.52299995E+02 -0.58614E+06
 0.52349998E+02 -0.12460E+07
 0.52399998E+02 -0.18707E+07
 0.52449997E+02 -0.23239E+07
 0.52499996E+02 -0.24429E+07
 0.52549995E+02 -0.22492E+07
 0.52599998E+02 -0.17987E+07
 0.52649998E+02 -0.12043E+07
 0.52699997E+02 -0.58304E+06
 0.52749996E+02  0.85437E+05
 0.52799995E+02  0.75743E+06
 0.52849998E+02  0.14427E+07
 0.52899998E+02  0.17525E+07
 0.52949997E+02  0.15684E+07
 0.52999996E+02  0.13782E+07
 0.53049995E+02  0.13753E+07
 0.53099998E+02  0.14005E+07
 0.53149998E+02  0.15330E+07
 0.53199997E+02  0.17950E+07
 0.53249996E+02  0.18371E+07
 0.53299995E+02  0.17815E+07
 0.53349998E+02  0.18669E+07
 0.53399998E+02  0.19910E+07
 0.53449997E+02  0.20586E+07
 0.53499996E+02  0.20011E+07
 0.53549995E+02  0.17932E+07
 0.53599998E+02  0.16784E+07
 0.53649998E+02  0.16783E+07
 0.53699997E+02  0.15152E+07
 0.53749996E+02  0.11192E+07
 0.53799995E+02  0.56085E+06
 0.53849998E+02 -0.10768E+06
 0.53899998E+02 -0.68843E+06
 0.53949997E+02 -0.11464E+07
 0.53999996E+02 -0.16861E+07
 0.54049995E+02 -0.22601E+07
 0.54099998E+02 -0.26381E+07
 0.54149998E+02 -0.27613E+07
 0.54199997E+02 -0.26296E+07
 0.54249996E+02 -0.22465E+07
 0.54299995E+02 -0.17472E+07
 0.54349998E+02 -0.13472E+07
 0.54399998E+02 -0.11022E+07
 0.54449997E+02 -0.97091E+06
 0.54499996E+02 -0.99444E+06
 0.54549995E+02 -0.11992E+07
 0.54599998E+02 -0.15062E+07
 0.54649998E+02 -0.18270E+07
 0.54699997E+02 -0.20577E+07
 0.54749996E+02 -0.20587E+07
 0.54799995E+02 -0.19719E+07
 0.54849998E+02 -0.18063E+07
 0.54899998E+02 -0.14774E+07
 0.54949997E+02 -0.96957E+06
 0.54999996E+02 -0.30477E+06
 0.55049995E+02  0.27818E+06
 0.55099998E+02  0.62332E+06
 0.55149998E+02  0.75870E+06
 0.55199997E+02  0.77144E+06
 0.55249996E+02  0.71431E+06
 0.55299995E+02  0.72848E+06
 0.55349998E+02  0.81935E+06
 0.55399998E+02  0.73159E+06
 0.55449997E+02  0.41764E+06
 0.55499996E+02  0.95762E+05
 0.55549995E+02 -0.13601E+05
 0.55599998E+02  0.72185E+05
 0.55649998E+02  0.28835E+06
 0.55699997E+02  0.62614E+06
 0.55749996E+02  0.86027E+06
 0.55799995E+02  0.80621E+06
 0.55849995E+02  0.62091E+06
 0.55899998E+02  0.53959E+06
 0.55949997E+02  0.52810E+06
 0.55999996E+02  0.51407E+06
 0.56049995E+02  0.51844E+06
 0.56099995E+02  0.47174E+06
 0.56149998E+02  0.35592E+06
 0.56199997E+02  0.33053E+06
 0.56249996E+02  0.47214E+06
 0.56299995E+02  0.67619E+06
 0.56349995E+02  0.64200E+06
 0.56399998E+02  0.27528E+06
 0.56449997E+02 -0.12218E+06
 0.56499996E+02 -0.33051E+06
 0.56549995E+02 -0.44232E+06
 0.56599995E+02 -0.58055E+06
 0.56649998E+02 -0.74997E+06
 0.56699997E+02 -0.93141E+06
 0.56749996E+02 -0.10085E+07
 0.56799995E+02 -0.10207E+07
 0.56849995E+02 -0.11166E+07
 0.56899998E+02 -0.13409E+07
 0.56949997E+02 -0.16486E+07
 0.56999996E+02 -0.19941E+07
 0.57049995E+02 -0.23069E+07
 0.57099995E+02 -0.24794E+07
 0.57149998E+02 -0.25333E+07
 0.57199997E+02 -0.25082E+07
 0.57249996E+02 -0.23614E+07
 0.57299995E+02 -0.20961E+07
 0.57349995E+02 -0.17457E+07
 0.57399998E+02 -0.14815E+07
 0.57449997E+02 -0.14266E+07
 0.57499996E+02 -0.14475E+07
 0.57549995E+02 -0.13700E+07
 0.57599995E+02 -0.11556E+07
 0.57649998E+02 -0.86395E+06
 0.57699997E+02 -0.56026E+06
 0.57749996E+02 -0.29921E+06
 0.57799995E+02 -0.63869E+05
 0.57849995E+02  0.13572E+06
 0.57899998E+02  0.30977E+06
 0.57949997E+02  0.46089E+06
 0.57999996E+02  0.56465E+06
 0.58049995E+02  0.75143E+06
 0.58099995E+02  0.10683E+07
 0.58149998E+02  0.13905E+07
 0.58199997E+02  0.16592E+07
 0.58249996E+02  0.18257E+07
 0.58299995E+02  0.19796E+07
 0.58349995E+02  0.20587E+07
 0.58399998E+02  0.19373E+07
 0.58449997E+02  0.16746E+07
 0.58499996E+02  0.13408E+07
 0.58549995E+02  0.10090E+07
 0.58599995E+02  0.64568E+06
 0.58649998E+02  0.23695E+06
 0.58699997E+02 -0.26400E+06
 0.58749996E+02 -0.80937E+06
 0.58799995E+02 -0.11996E+07
 0.58849995E+02 -0.13732E+07
 0.58899998E+02 -0.13654E+07
 0.58949997E+02 -0.11873E+07
 0.58999996E+02 -0.98319E+06
 0.59049995E+02 -0.87848E+06
 0.59099995E+02 -0.90568E+06
 0.59149998E+02 -0.10538E+07
 0.59199997E+02 -0.12909E+07
 0.59249996E+02 -0.15593E+07
 0.59299995E+02 -0.17791E+07
 0.59349995E+02 -0.19880E+07
 0.59399998E+02 -0.21926E+07
 0.59449997E+02 -0.23016E+07
 0.59499996E+02 -0.22393E+07
 0.59549995E+02 -0.20408E+07
 0.59599995E+02 -0.17514E+07
 0.59649998E+02 -0.13369E+07
 0.59699997E+02 -0.79884E+06
 0.59749996E+02 -0.24371E+06
 0.59799995E+02  0.24675E+06
 0.59849995E+02  0.61671E+06
 0.59899998E+02  0.90843E+06
 0.59949997E+02  0.11637E+07
 0.59999996E+02  0.12672E+07
 0.60049995E+02  0.12381E+07
 0.60099995E+02  0.12070E+07
 0.60149998E+02  0.12242E+07
 0.60199997E+02  0.13767E+07
 0.60249996E+02  0.16519E+07
 0.60299995E+02  0.18503E+07
 0.60349995E+02  0.19160E+07
 0.60399998E+02  0.18818E+07
 0.60449997E+02  0.17386E+07
 0.60499996E+02  0.16011E+07
 0.60549995E+02  0.15574E+07
 0.60599995E+02  0.15846E+07
 0.60649998E+02  0.15913E+07
 0.60699997E+02  0.15468E+07
 0.60749996E+02  0.14349E+07
 0.60799995E+02  0.12118E+07
 0.60849995E+02  0.88708E+06
 0.60899998E+02  0.47674E+06
 0.60949997E+02  0.21532E+05
 0.60999996E+02 -0.44889E+06
 0.61049995E+02 -0.85651E+06
 0.61099995E+02 -0.10967E+07
 0.61149998E+02 -0.11674E+07
 0.61199997E+02 -0.11578E+07
 0.61249996E+02 -0.11406E+07
 0.61299995E+02 -0.11909E+07
 0.61349995E+02 -0.12527E+07
 0.61399998E+02 -0.12485E+07
 0.61449997E+02 -0.11613E+07
 0.61499996E+02 -0.98620E+06
 0.61549995E+02 -0.75696E+06
 0.61599995E+02 -0.49593E+06
 0.61649998E+02 -0.19238E+06
 0.61699997E+02  0.14082E+06
 0.61749996E+02  0.44866E+06
 0.61799995E+02  0.72976E+06
 0.61849995E+02  0.10210E+07
 0.61899998E+02  0.12954E+07
 0.61949997E+02  0.15402E+07
 0.61999996E+02  0.18307E+07
 0.62049995E+02  0.21451E+07
 0.62099998E+02  0.24309E+07
 0.62149994E+02  0.26684E+07
 0.62199997E+02  0.28083E+07
 0.62249992E+02  0.27886E+07
 0.62299995E+02  0.26308E+07
 0.62349998E+02  0.24188E+07
 0.62399994E+02  0.22117E+07
 0.62449997E+02  0.20327E+07
 0.62499992E+02  0.18466E+07
 0.62549995E+02  0.16254E+07
 0.62599998E+02  0.13989E+07
 0.62649994E+02  0.11782E+07
 0.62699997E+02  0.92006E+06
 0.62749992E+02  0.59788E+06
 0.62799995E+02  0.20929E+06
 0.62849998E+02 -0.19308E+06
 0.62899994E+02 -0.56031E+06
 0.62949997E+02 -0.84883E+06
 0.62999992E+02 -0.10637E+07
 0.63049995E+02 -0.12765E+07
 0.63099998E+02 -0.14296E+07
 0.63149994E+02 -0.14472E+07
 0.63199997E+02 -0.13469E+07
 0.63249992E+02 -0.11333E+07
 0.63299995E+02 -0.82533E+06
 0.63349998E+02 -0.49263E+06
 0.63399994E+02 -0.26353E+06
 0.63449997E+02 -0.14101E+06
 0.63499992E+02 -0.48083E+05
 0.63549995E+02  0.19822E+05
 0.63599998E+02  0.97601E+05
 0.63649994E+02  0.13391E+06
 0.63699997E+02  0.11099E+06
 0.63749992E+02  0.85460E+05
 0.63799995E+02  0.92767E+05
 0.63849998E+02  0.13758E+06
 0.63899994E+02  0.16382E+06
 0.63949997E+02  0.17098E+06
 0.63999992E+02  0.16316E+06
 0.64049995E+02  0.11937E+06
 0.64099998E+02  0.36126E+05
 0.64149994E+02 -0.62347E+05
 0.64199997E+02 -0.10379E+06
 0.64249992E+02 -0.86204E+05
 0.64299995E+02 -0.35559E+05
 0.64349998E+02  0.61020E+05
 0.64399994E+02  0.18831E+06
 0.64449997E+02  0.30609E+06
 0.64499992E+02  0.39901E+06
 0.64549995E+02  0.47680E+06
 0.64599998E+02  0.53180E+06
 0.64649994E+02  0.55686E+06
 0.64699997E+02  0.53703E+06
 0.64749992E+02  0.47100E+06
 0.64799995E+02  0.38151E+06
 0.64849998E+02  0.29458E+06
 0.64899994E+02  0.23756E+06
 0.64949997E+02  0.20200E+06
 0.64999992E+02  0.11812E+06
 0.65049995E+02 -0.70793E+05
 0.65099998E+02 -0.31137E+06
 0.65149994E+02 -0.49114E+06
 0.65199997E+02 -0.59647E+06
 0.65249992E+02 -0.70407E+06
 0.65299995E+02 -0.81552E+06
 0.65349998E+02 -0.90023E+06
 0.65399994E+02 -0.96941E+06
 0.65449997E+02 -0.10184E+07
 0.65499992E+02 -0.10843E+07
 0.65549995E+02 -0.12310E+07
 0.65599998E+02 -0.14630E+07
 0.65649994E+02 -0.17086E+07
 0.65699997E+02 -0.18612E+07
 0.65749992E+02 -0.18691E+07
 0.65799995E+02 -0.17740E+07
 0.65849998E+02 -0.16415E+07
 0.65899994E+02 -0.14960E+07
 0.65949997E+02 -0.13040E+07
 0.65999992E+02 -0.10501E+07
 0.66049995E+02 -0.77568E+06
 0.66099998E+02 -0.51539E+06
 0.66149994E+02 -0.30270E+06
 0.66199997E+02 -0.16480E+06
 0.66249992E+02 -0.79952E+05
 0.66299995E+02 -0.15993E+05
 0.66349998E+02  0.28243E+05
 0.66399994E+02  0.69297E+05
 0.66449997E+02  0.12119E+06
 0.66499992E+02  0.18675E+06
 0.66549995E+02  0.26166E+06
 0.66599998E+02  0.38521E+06
 0.66649994E+02  0.58824E+06
 0.66699997E+02  0.83961E+06
 0.66749992E+02  0.10655E+07
 0.66799995E+02  0.12103E+07
 0.66849998E+02  0.12837E+07
 0.66899994E+02  0.13055E+07
 0.66949997E+02  0.13071E+07
 0.66999992E+02  0.13140E+07
 0.67049995E+02  0.13247E+07
 0.67099998E+02  0.13041E+07
 0.67149994E+02  0.12153E+07
 0.67199997E+02  0.10531E+07
 0.67249992E+02  0.81707E+06
 0.67299995E+02  0.52199E+06
 0.67349998E+02  0.22843E+06
 0.67399994E+02 -0.34493E+04
 0.67449997E+02 -0.13524E+06
 0.67499992E+02 -0.17027E+06
 0.67549995E+02 -0.17623E+06
 0.67599998E+02 -0.19590E+06
 0.67649994E+02 -0.22317E+06
 0.67699997E+02 -0.25474E+06
 0.67749992E+02 -0.29965E+06
 0.67799995E+02 -0.35717E+06
 0.67849998E+02 -0.39274E+06
 0.67899994E+02 -0.37597E+06
 0.67949997E+02 -0.32355E+06
 0.67999992E+02 -0.21816E+06
 0.68049995E+02 -0.65212E+05
 0.68099998E+02  0.23485E+05
 0.68149994E+02 -0.55881E+04
 0.68199997E+02 -0.14787E+06
 0.68249992E+02 -0.37630E+06
 0.68299995E+02 -0.61919E+06
 0.68349998E+02 -0.81100E+06
 0.68399994E+02 -0.90827E+06
 0.68449997E+02 -0.91008E+06
 0.68499992E+02 -0.87309E+06
 0.68549995E+02 -0.84900E+06
 0.68599998E+02 -0.85774E+06
 0.68649994E+02 -0.87877E+06
 0.68699997E+02 -0.86374E+06
 0.68749992E+02 -0.80310E+06
 0.68799995E+02 -0.70777E+06
 0.68849998E+02 -0.58468E+06
 0.68899994E+02 -0.45162E+06
 0.68949997E+02 -0.29627E+06
 0.68999992E+02 -0.93935E+05
 0.69049995E+02  0.12239E+06
 0.69099998E+02  0.30660E+06
 0.69149994E+02  0.43195E+06
 0.69199997E+02  0.51623E+06
 0.69249992E+02  0.59313E+06
 0.69299995E+02  0.66292E+06
 0.69349998E+02  0.69950E+06
 0.69399994E+02  0.67488E+06
 0.69449997E+02  0.61395E+06
 0.69499992E+02  0.54704E+06
 0.69549995E+02  0.49255E+06
 0.69599998E+02  0.45123E+06
 0.69649994E+02  0.39500E+06
 0.69699997E+02  0.33926E+06
 0.69749992E+02  0.32411E+06
 0.69799995E+02  0.34768E+06
 0.69849998E+02  0.38106E+06
 0.69899994E+02  0.39281E+06
 0.69949997E+02  0.37383E+06
 0.69999992E+02  0.32314E+06
 0.70049995E+02  0.22755E+06
 0.70099998E+02  0.94696E+05
 0.70149994E+02 -0.52440E+05
 0.70199997E+02 -0.19966E+06
 0.70249992E+02 -0.34557E+06
 0.70299995E+02 -0.47164E+06
 0.70349998E+02 -0.55906E+06
 0.70399994E+02 -0.61554E+06
 0.70449997E+02 -0.65069E+06
 0.70499992E+02 -0.65095E+06
 0.70549995E+02 -0.61745E+06
 0.70599998E+02 -0.54644E+06
 0.70649994E+02 -0.41930E+06
 0.70699997E+02 -0.27307E+06
 0.70749992E+02 -0.15650E+06
 0.70799995E+02 -0.90543E+05
 0.70849998E+02 -0.90403E+05
 0.70899994E+02 -0.15635E+06
 0.70949997E+02 -0.25343E+06
 0.70999992E+02 -0.36157E+06
 0.71049995E+02 -0.47992E+06
 0.71099998E+02 -0.56632E+06
 0.71149994E+02 -0.60827E+06
 0.71199997E+02 -0.62390E+06
 0.71249992E+02 -0.62118E+06
 0.71299995E+02 -0.61458E+06
 0.71349998E+02 -0.60063E+06
 0.71399994E+02 -0.57559E+06
 0.71449997E+02 -0.53130E+06
 0.71499992E+02 -0.45028E+06
 0.71549995E+02 -0.30862E+06
 0.71599998E+02 -0.10133E+06
 0.71649994E+02  0.14857E+06
 0.71699997E+02  0.42784E+06
 0.71749992E+02  0.70955E+06
 0.71799995E+02  0.96350E+06
 0.71849998E+02  0.11947E+07
 0.71899994E+02  0.14037E+07
 0.71949997E+02  0.15656E+07
 0.71999992E+02  0.16696E+07
 0.72049995E+02  0.17101E+07
 0.72099998E+02  0.16845E+07
 0.72149994E+02  0.15918E+07
 0.72199997E+02  0.14555E+07
 0.72249992E+02  0.13127E+07
 0.72299995E+02  0.11730E+07
 0.72349998E+02  0.10387E+07
 0.72399994E+02  0.91556E+06
 0.72449997E+02  0.79761E+06
 0.72499992E+02  0.66965E+06
 0.72549995E+02  0.51301E+06
 0.72599998E+02  0.31400E+06
 0.72649994E+02  0.93594E+05
 0.72699997E+02 -0.10842E+06
 0.72749992E+02 -0.27781E+06
 0.72799995E+02 -0.43549E+06
 0.72849998E+02 -0.58013E+06
 0.72899994E+02 -0.69307E+06
 0.72949997E+02 -0.77299E+06
 0.72999992E+02 -0.83600E+06
 0.73049995E+02 -0.89335E+06
 0.73099998E+02 -0.95315E+06
 0.73149994E+02 -0.10378E+07
 0.73199997E+02 -0.11505E+07
 0.73249992E+02 -0.12670E+07
 0.73299995E+02 -0.13539E+07
 0.73349998E+02 -0.13944E+07
 0.73399994E+02 -0.13760E+07
 0.73449997E+02 -0.13023E+07
 0.73499992E+02 -0.11765E+07
 0.73549995E+02 -0.98479E+06
 0.73599998E+02 -0.73807E+06
 0.73649994E+02 -0.46009E+06
 0.73699997E+02 -0.19243E+06
 0.73749992E+02  0.29314E+05
 0.73799995E+02  0.21084E+06
 0.73849998E+02  0.33169E+06
 0.73899994E+02  0.37288E+06
 0.73949997E+02  0.37785E+06
 0.73999992E+02  0.39886E+06
 0.74049995E+02  0.44293E+06
 0.74099998E+02  0.48477E+06
 0.74149994E+02  0.51095E+06
 0.74199997E+02  0.50577E+06
 0.74249992E+02  0.45221E+06
 0.74299995E+02  0.35272E+06
 0.74349998E+02  0.23815E+06
 0.74399994E+02  0.12646E+06
 0.74449997E+02  0.10053E+05
 0.74499992E+02 -0.69596E+05
 0.74549995E+02 -0.64394E+05
 0.74599998E+02 -0.14850E+04
 0.74649994E+02  0.63558E+05
 0.74699997E+02  0.85118E+05
 0.74749992E+02  0.26264E+05
 0.74799995E+02 -0.10567E+06
 0.74849998E+02 -0.26300E+06
 0.74899994E+02 -0.41538E+06
 0.74949997E+02 -0.53851E+06
 0.74999992E+02 -0.62801E+06
 0.75049995E+02 -0.69375E+06
 0.75099998E+02 -0.72022E+06
 0.75149994E+02 -0.68744E+06
 0.75199997E+02 -0.61070E+06
 0.75249992E+02 -0.53963E+06
 0.75299995E+02 -0.50286E+06
 0.75349998E+02 -0.50794E+06
 0.75399994E+02 -0.54310E+06
 0.75449997E+02 -0.58241E+06
 0.75499992E+02 -0.58692E+06
 0.75549995E+02 -0.51685E+06
 0.75599998E+02 -0.36784E+06
 0.75649994E+02 -0.18363E+06
 0.75699997E+02  0.12057E+05
 0.75749992E+02  0.21228E+06
 0.75799995E+02  0.40278E+06
 0.75849998E+02  0.58965E+06
 0.75899994E+02  0.76442E+06
 0.75949997E+02  0.90752E+06
 0.75999992E+02  0.99452E+06
 0.76049995E+02  0.10259E+07
 0.76099998E+02  0.10445E+07
 0.76149994E+02  0.10933E+07
 0.76199997E+02  0.11652E+07
 0.76249992E+02  0.12187E+07
 0.76299995E+02  0.12374E+07
 0.76349998E+02  0.12172E+07
 0.76399994E+02  0.11577E+07
 0.76449997E+02  0.10767E+07
 0.76499992E+02  0.98118E+06
 0.76549995E+02  0.85940E+06
 0.76599998E+02  0.70300E+06
 0.76649994E+02  0.52453E+06
 0.76699997E+02  0.35883E+06
 0.76749992E+02  0.22243E+06
 0.76799995E+02  0.11337E+06
 0.76849998E+02  0.15554E+05
 0.76899994E+02 -0.80730E+05
 0.76949997E+02 -0.15687E+06
 0.76999992E+02 -0.20224E+06
 0.77049995E+02 -0.22227E+06
 0.77099998E+02 -0.24310E+06
 0.77149994E+02 -0.28412E+06
 0.77199997E+02 -0.34444E+06
 0.77249992E+02 -0.39293E+06
 0.77299995E+02 -0.41218E+06
 0.77349998E+02 -0.41419E+06
 0.77399994E+02 -0.39558E+06
 0.77449997E+02 -0.35631E+06
 0.77499992E+02 -0.30504E+06
 0.77549995E+02 -0.23060E+06
 0.77599998E+02 -0.12507E+06
 0.77649994E+02 -0.17764E+05
 0.77699997E+02  0.42161E+05
 0.77749992E+02  0.16772E+05
 0.77799995E+02 -0.83727E+05
 0.77849998E+02 -0.22829E+06
 0.77899994E+02 -0.37103E+06
 0.77949997E+02 -0.47315E+06
 0.77999992E+02 -0.51936E+06
 0.78049995E+02 -0.52217E+06
 0.78099998E+02 -0.49838E+06
 0.78149994E+02 -0.43484E+06
 0.78199997E+02 -0.35192E+06
 0.78249992E+02 -0.28715E+06
 0.78299995E+02 -0.24719E+06
 0.78349998E+02 -0.23288E+06
 0.78399994E+02 -0.24358E+06
 0.78449997E+02 -0.25791E+06
 0.78499992E+02 -0.25003E+06
 0.78549995E+02 -0.21275E+06
 0.78599998E+02 -0.17388E+06
 0.78649994E+02 -0.15963E+06
 0.78699997E+02 -0.16788E+06
 0.78749992E+02 -0.20383E+06
 0.78799995E+02 -0.29136E+06
 0.78849998E+02 -0.42850E+06
 0.78899994E+02 -0.56083E+06
 0.78949997E+02 -0.64886E+06
 0.78999992E+02 -0.68634E+06
 0.79049995E+02 -0.68490E+06
 0.79099998E+02 -0.65833E+06
 0.79149994E+02 -0.60995E+06
 0.79199997E+02 -0.54112E+06
 0.79249992E+02 -0.46145E+06
 0.79299995E+02 -0.37588E+06
 0.79349998E+02 -0.29414E+06
 0.79399994E+02 -0.23074E+06
 0.79449997E+02 -0.19062E+06
 0.79499992E+02 -0.17110E+06
 0.79549995E+02 -0.14268E+06
 0.79599998E+02 -0.89958E+05
 0.79649994E+02 -0.11706E+05
 0.79699997E+02  0.89518E+05
 0.79749992E+02  0.21040E+06
 0.79799995E+02  0.35271E+06
 0.79849998E+02  0.49623E+06
 0.79899994E+02  0.62474E+06
 0.79949997E+02  0.73893E+06
 0.79999992E+02  0.83117E+06
 0.80049995E+02  0.88952E+06
 0.80099998E+02  0.90838E+06
 0.80149994E+02  0.90051E+06
 0.80199997E+02  0.88187E+06
 0.80249992E+02  0.84385E+06
 0.80299995E+02  0.79047E+06
 0.80349998E+02  0.74475E+06
 0.80399994E+02  0.73380E+06
 0.80449997E+02  0.74119E+06
 0.80499992E+02  0.72298E+06
 0.80549995E+02  0.66967E+06
 0.80599998E+02  0.57987E+06
 0.80649994E+02  0.46423E+06
 0.80699997E+02  0.33190E+06
 0.80749992E+02  0.18884E+06
 0.80799995E+02  0.44448E+05
 0.80849998E+02 -0.10286E+06
 0.80899994E+02 -0.25807E+06
 0.80949997E+02 -0.40189E+06
 0.80999992E+02 -0.52104E+06
 0.81049995E+02 -0.61771E+06
 0.81099998E+02 -0.68048E+06
 0.81149994E+02 -0.70018E+06
 0.81199997E+02 -0.68422E+06
 0.81249992E+02 -0.64536E+06
 0.81299995E+02 -0.59160E+06
 0.81349998E+02 -0.54372E+06
 0.81399994E+02 -0.50344E+06
 0.81449997E+02 -0.44916E+06
 0.81499992E+02 -0.37366E+06
 0.81549995E+02 -0.28034E+06
 0.81599998E+02 -0.17382E+06
 0.81649994E+02 -0.64632E+05
 0.81699997E+02  0.37635E+05
 0.81749992E+02  0.13171E+06
 0.81799995E+02  0.21557E+06
 0.81849998E+02  0.28525E+06
 0.81899994E+02  0.33233E+06
 0.81949997E+02  0.35934E+06
 0.81999992E+02  0.38968E+06
 0.82049995E+02  0.44067E+06
 0.82099998E+02  0.51010E+06
 0.82149994E+02  0.58319E+06
 0.82199997E+02  0.64348E+06
 0.82249992E+02  0.67125E+06
 0.82299995E+02  0.66099E+06
 0.82349998E+02  0.63238E+06
 0.82399994E+02  0.60745E+06
 0.82449997E+02  0.58102E+06
 0.82499992E+02  0.54067E+06
 0.82549995E+02  0.48254E+06
 0.82599998E+02  0.39296E+06
 0.82649994E+02  0.26870E+06
 0.82699997E+02  0.13306E+06
 0.82749992E+02  0.22079E+05
 0.82799995E+02 -0.56769E+05
 0.82849998E+02 -0.11660E+06
 0.82899994E+02 -0.16130E+06
 0.82949997E+02 -0.18835E+06
 0.82999992E+02 -0.19870E+06
 0.83049995E+02 -0.21556E+06
 0.83099998E+02 -0.25005E+06
 0.83149994E+02 -0.28890E+06
 0.83199997E+02 -0.32813E+06
 0.83249992E+02 -0.35918E+06
 0.83299995E+02 -0.36730E+06
 0.83349998E+02 -0.34364E+06
 0.83399994E+02 -0.28690E+06
 0.83449997E+02 -0.20956E+06
 0.83499992E+02 -0.11409E+06
 0.83549995E+02  0.31845E+04
 0.83599998E+02  0.13551E+06
 0.83649994E+02  0.26630E+06
 0.83699997E+02  0.37881E+06
 0.83749992E+02  0.47066E+06
 0.83799995E+02  0.54180E+06
 0.83849998E+02  0.59410E+06
 0.83899994E+02  0.62674E+06
 0.83949997E+02  0.63658E+06
 0.83999992E+02  0.62731E+06
 0.84049995E+02  0.61124E+06
 0.84099998E+02  0.59195E+06
 0.84149994E+02  0.55398E+06
 0.84199997E+02  0.49618E+06
 0.84249992E+02  0.42701E+06
 0.84299995E+02  0.34812E+06
 0.84349998E+02  0.26967E+06
 0.84399994E+02  0.20359E+06
 0.84449997E+02  0.15826E+06
 0.84499992E+02  0.13235E+06
 0.84549995E+02  0.11444E+06
 0.84599998E+02  0.10794E+06
 0.84649994E+02  0.10997E+06
 0.84699997E+02  0.10471E+06
 0.84749992E+02  0.83375E+05
 0.84799995E+02  0.41909E+05
 0.84849998E+02 -0.17463E+05
 0.84899994E+02 -0.97175E+05
 0.84949997E+02 -0.18934E+06
 0.84999992E+02 -0.26372E+06
 0.85049995E+02 -0.29213E+06
 0.85099998E+02 -0.28168E+06
 0.85149994E+02 -0.27056E+06
 0.85199997E+02 -0.29406E+06
 0.85249992E+02 -0.35737E+06
 0.85299995E+02 -0.43379E+06
 0.85349998E+02 -0.49328E+06
 0.85399994E+02 -0.52804E+06
 0.85449997E+02 -0.54452E+06
 0.85499992E+02 -0.54911E+06
 0.85549995E+02 -0.54838E+06
 0.85599998E+02 -0.54325E+06
 0.85649994E+02 -0.54347E+06
 0.85699997E+02 -0.56607E+06
 0.85749992E+02 -0.62219E+06
 0.85799995E+02 -0.70934E+06
 0.85849998E+02 -0.80523E+06
 0.85899994E+02 -0.88391E+06
 0.85949997E+02 -0.92888E+06
 0.85999992E+02 -0.94838E+06
 0.86049995E+02 -0.95437E+06
 0.86099998E+02 -0.94338E+06
 0.86149994E+02 -0.91086E+06
 0.86199997E+02 -0.85782E+06
 0.86249992E+02 -0.79143E+06
 0.86299995E+02 -0.71582E+06
 0.86349998E+02 -0.63976E+06
 0.86399994E+02 -0.56949E+06
 0.86449997E+02 -0.50117E+06
 0.86499992E+02 -0.42639E+06
 0.86549995E+02 -0.35110E+06
 0.86599998E+02 -0.28484E+06
 0.86649994E+02 -0.22059E+06
 0.86699997E+02 -0.14336E+06
 0.86749992E+02 -0.44399E+05
 0.86799995E+02  0.79708E+05
 0.86849998E+02  0.22572E+06
 0.86899994E+02  0.36103E+06
 0.86949997E+02  0.45693E+06
 0.86999992E+02  0.51142E+06
 0.87049995E+02  0.53311E+06
 0.87099998E+02  0.53780E+06
 0.87149994E+02  0.53842E+06
 0.87199997E+02  0.54441E+06
 0.87249992E+02  0.56359E+06
 0.87299995E+02  0.59433E+06
 0.87349998E+02  0.63624E+06
 0.87399994E+02  0.68864E+06
 0.87449997E+02  0.74680E+06
 0.87499992E+02  0.79749E+06
 0.87549995E+02  0.81698E+06
 0.87599991E+02  0.80145E+06
 0.87649994E+02  0.76792E+06
 0.87699997E+02  0.73291E+06
 0.87749992E+02  0.69554E+06
 0.87799995E+02  0.65064E+06
 0.87849991E+02  0.59855E+06
 0.87899994E+02  0.53178E+06
 0.87949997E+02  0.44622E+06
 0.87999992E+02  0.34570E+06
 0.88049995E+02  0.23645E+06
 0.88099991E+02  0.12366E+06
 0.88149994E+02  0.17912E+05
 0.88199997E+02 -0.66676E+05
 0.88249992E+02 -0.12410E+06
 0.88299995E+02 -0.15149E+06
 0.88349991E+02 -0.15319E+06
 0.88399994E+02 -0.13469E+06
 0.88449997E+02 -0.11050E+06
 0.88499992E+02 -0.10267E+06
 0.88549995E+02 -0.11713E+06
 0.88599991E+02 -0.16175E+06
 0.88649994E+02 -0.23062E+06
 0.88699997E+02 -0.30635E+06
 0.88749992E+02 -0.37245E+06
 0.88799995E+02 -0.41651E+06
 0.88849991E+02 -0.43240E+06
 0.88899994E+02 -0.41861E+06
 0.88949997E+02 -0.38164E+06
 0.88999992E+02 -0.33336E+06
 0.89049995E+02 -0.27791E+06
 0.89099991E+02 -0.20989E+06
 0.89149994E+02 -0.13503E+06
 0.89199997E+02 -0.69542E+05
 0.89249992E+02 -0.26446E+05
 0.89299995E+02 -0.11528E+04
 0.89349991E+02  0.76567E+04
 0.89399994E+02 -0.45975E+04
 0.89449997E+02 -0.37844E+05
 0.89499992E+02 -0.88829E+05
 0.89549995E+02 -0.14841E+06
 0.89599991E+02 -0.20647E+06
 0.89649994E+02 -0.25157E+06
 0.89699997E+02 -0.26984E+06
 0.89749992E+02 -0.26606E+06
 0.89799995E+02 -0.25695E+06
 0.89849991E+02 -0.24897E+06
 0.89899994E+02 -0.23505E+06
 0.89949997E+02 -0.21366E+06
 0.89999992E+02 -0.19630E+06
 0.90049995E+02 -0.18435E+06
 0.90099991E+02 -0.17163E+06
 0.90149994E+02 -0.15924E+06
 0.90199997E+02 -0.15004E+06
 0.90249992E+02 -0.13738E+06
 0.90299995E+02 -0.11312E+06
 0.90349991E+02 -0.71447E+05
 0.90399994E+02 -0.18607E+05
 0.90449997E+02  0.30918E+05
 0.90499992E+02  0.59763E+05
 0.90549995E+02  0.62964E+05
 0.90599991E+02  0.46560E+05
 0.90649994E+02  0.19397E+05
 0.90699997E+02 -0.61221E+03
 0.90749992E+02 -0.20829E+04
 0.90799995E+02  0.18572E+05
 0.90849991E+02  0.66214E+05
 0.90899994E+02  0.14243E+06
 0.90949997E+02  0.23685E+06
 0.90999992E+02  0.33642E+06
 0.91049995E+02  0.42428E+06
 0.91099991E+02  0.49171E+06
 0.91149994E+02  0.55526E+06
 0.91199997E+02  0.62711E+06
 0.91249992E+02  0.68717E+06
 0.91299995E+02  0.72940E+06
 0.91349991E+02  0.76945E+06
 0.91399994E+02  0.80912E+06
 0.91449997E+02  0.84467E+06
 0.91499992E+02  0.87039E+06
 0.91549995E+02  0.87008E+06
 0.91599991E+02  0.83144E+06
 0.91649994E+02  0.74698E+06
 0.91699997E+02  0.62401E+06
 0.91749992E+02  0.48461E+06
 0.91799995E+02  0.33404E+06
 0.91849991E+02  0.18051E+06
 0.91899994E+02  0.31290E+05
 0.91949997E+02 -0.12027E+06
 0.91999992E+02 -0.27448E+06
 0.92049995E+02 -0.41489E+06
 0.92099991E+02 -0.52757E+06
 0.92149994E+02 -0.61214E+06
 0.92199997E+02 -0.66831E+06
 0.92249992E+02 -0.71062E+06
 0.92299995E+02 -0.75071E+06
 0.92349991E+02 -0.77581E+06
 0.92399994E+02 -0.77747E+06
 0.92449997E+02 -0.75565E+06
 0.92499992E+02 -0.70597E+06
 0.92549995E+02 -0.63391E+06
 0.92599991E+02 -0.55853E+06
 0.92649994E+02 -0.49454E+06
 0.92699997E+02 -0.45141E+06
 0.92749992E+02 -0.42214E+06
 0.92799995E+02 -0.39571E+06
 0.92849991E+02 -0.37710E+06
 0.92899994E+02 -0.36369E+06
 0.92949997E+02 -0.34621E+06
 0.92999992E+02 -0.32260E+06
 0.93049995E+02 -0.29167E+06
 0.93099991E+02 -0.24839E+06
 0.93149994E+02 -0.18282E+06
 0.93199997E+02 -0.99351E+05
 0.93249992E+02 -0.70794E+04
 0.93299995E+02  0.95959E+05
 0.93349991E+02  0.20299E+06
 0.93399994E+02  0.30640E+06
 0.93449997E+02  0.40178E+06
 0.93499992E+02  0.48172E+06
 0.93549995E+02  0.54455E+06
 0.93599991E+02  0.59029E+06
 0.93649994E+02  0.61904E+06
 0.93699997E+02  0.63688E+06
 0.93749992E+02  0.64952E+06
 0.93799995E+02  0.64931E+06
 0.93849991E+02  0.63062E+06
 0.93899994E+02  0.60073E+06
 0.93949997E+02  0.56316E+06
 0.93999992E+02  0.52497E+06
 0.94049995E+02  0.49331E+06
 0.94099991E+02  0.46450E+06
 0.94149994E+02  0.43373E+06
 0.94199997E+02  0.40069E+06
 0.94249992E+02  0.36904E+06
 0.94299995E+02  0.33916E+06
 0.94349991E+02  0.30187E+06
 0.94399994E+02  0.24730E+06
 0.94449997E+02  0.18040E+06
 0.94499992E+02  0.11206E+06
 0.94549995E+02  0.53161E+05
 0.94599991E+02  0.16229E+05
 0.94649994E+02 -0.60897E+04
 0.94699997E+02 -0.34615E+05
 0.94749992E+02 -0.80899E+05
 0.94799995E+02 -0.14544E+06
 0.94849991E+02 -0.22230E+06
 0.94899994E+02 -0.30104E+06
 0.94949997E+02 -0.36941E+06
 0.94999992E+02 -0.42319E+06
 0.95049995E+02 -0.46059E+06
 0.95099991E+02 -0.47582E+06
 0.95149994E+02 -0.46645E+06
 0.95199997E+02 -0.43400E+06
 0.95249992E+02 -0.38435E+06
 0.95299995E+02 -0.32463E+06
 0.95349991E+02 -0.26742E+06
 0.95399994E+02 -0.22143E+06
 0.95449997E+02 -0.18477E+06
 0.95499992E+02 -0.15013E+06
 0.95549995E+02 -0.11195E+06
 0.95599991E+02 -0.75157E+05
 0.95649994E+02 -0.42835E+05
 0.95699997E+02 -0.11377E+05
 0.95749992E+02  0.20548E+05
 0.95799995E+02  0.53612E+05
 0.95849991E+02  0.93008E+05
 0.95899994E+02  0.13154E+06
 0.95949997E+02  0.15531E+06
 0.95999992E+02  0.15880E+06
 0.96049995E+02  0.14363E+06
 0.96099991E+02  0.11398E+06
 0.96149994E+02  0.74304E+05
 0.96199997E+02  0.25833E+05
 0.96249992E+02 -0.31164E+05
 0.96299995E+02 -0.92643E+05
 0.96349991E+02 -0.15181E+06
 0.96399994E+02 -0.20608E+06
 0.96449997E+02 -0.25600E+06
 0.96499992E+02 -0.29871E+06
 0.96549995E+02 -0.33618E+06
 0.96599991E+02 -0.37246E+06
 0.96649994E+02 -0.40744E+06
 0.96699997E+02 -0.43269E+06
 0.96749992E+02 -0.44407E+06
 0.96799995E+02 -0.44390E+06
 0.96849991E+02 -0.42420E+06
 0.96899994E+02 -0.38055E+06
 0.96949997E+02 -0.31828E+06
 0.96999992E+02 -0.23731E+06
 0.97049995E+02 -0.13595E+06
 0.97099991E+02 -0.16522E+05
 0.97149994E+02  0.11029E+06
 0.97199997E+02  0.24114E+06
 0.97249992E+02  0.37626E+06
 0.97299995E+02  0.50403E+06
 0.97349991E+02  0.61486E+06
 0.97399994E+02  0.70583E+06
 0.97449997E+02  0.77745E+06
 0.97499992E+02  0.82431E+06
 0.97549995E+02  0.83882E+06
 0.97599991E+02  0.82633E+06
 0.97649994E+02  0.80218E+06
 0.97699997E+02  0.77299E+06
 0.97749992E+02  0.73601E+06
 0.97799995E+02  0.69054E+06
 0.97849991E+02  0.63746E+06
 0.97899994E+02  0.57144E+06
 0.97949997E+02  0.48989E+06
 0.97999992E+02  0.39861E+06
