-0.19969940E+01 -0.32320E+04
-0.19469941E+01 -0.32336E+04
-0.18969940E+01 -0.32565E+04
-0.18469940E+01 -0.32505E+04
-0.17969940E+01 -0.32563E+04
-0.17469940E+01 -0.32640E+04
-0.16969941E+01 -0.32688E+04
-0.16469941E+01 -0.32765E+04
-0.15969940E+01 -0.32891E+04
-0.15469940E+01 -0.33065E+04
-0.14969940E+01 -0.33087E+04
-0.14469941E+01 -0.33075E+04
-0.13969941E+01 -0.32941E+04
-0.13469940E+01 -0.32839E+04
-0.12969941E+01 -0.32940E+04
-0.12469940E+01 -0.33145E+04
-0.11969941E+01 -0.33381E+04
-0.11469941E+01 -0.33448E+04
-0.10969940E+01 -0.33344E+04
-0.10469941E+01 -0.33089E+04
-0.99699408E+00 -0.32915E+04
-0.94699407E+00 -0.32869E+04
-0.89699411E+00 -0.32871E+04
-0.84699404E+00 -0.32740E+04
-0.79699409E+00 -0.32604E+04
-0.74699414E+00 -0.32595E+04
-0.69699407E+00 -0.32573E+04
-0.64699411E+00 -0.32461E+04
-0.59699416E+00 -0.32472E+04
-0.54699409E+00 -0.32692E+04
-0.49699414E+00 -0.32795E+04
-0.44699407E+00 -0.32858E+04
-0.39699411E+00 -0.33004E+04
-0.34699416E+00 -0.33226E+04
-0.29699409E+00 -0.33369E+04
-0.24699414E+00 -0.33652E+04
-0.19699407E+00 -0.34100E+04
-0.14699411E+00 -0.34301E+04
-0.96994162E-01 -0.34335E+04
-0.46994090E-01 -0.34317E+04
 0.30058622E-02 -0.34238E+04
 0.53005934E-01 -0.33910E+04
 0.10300589E+00 -0.33479E+04
 0.15300584E+00 -0.33068E+04
 0.20300579E+00 -0.32927E+04
 0.25300574E+00 -0.32999E+04
 0.30300593E+00 -0.32837E+04
 0.35300589E+00 -0.32752E+04
 0.40300584E+00 -0.32623E+04
 0.45300579E+00 -0.32616E+04
 0.50300574E+00 -0.32621E+04
 0.55300593E+00 -0.32543E+04
 0.60300589E+00 -0.32590E+04
 0.65300584E+00 -0.32499E+04
 0.70300579E+00 -0.32533E+04
 0.75300574E+00 -0.32664E+04
 0.80300570E+00 -0.32914E+04
 0.85300589E+00 -0.33118E+04
 0.90300584E+00 -0.33191E+04
 0.95300579E+00 -0.33046E+04
 0.10030057E+01 -0.32861E+04
 0.10530057E+01 -0.32852E+04
 0.11030059E+01 -0.32854E+04
 0.11530058E+01 -0.32906E+04
 0.12030058E+01 -0.32841E+04
 0.12530057E+01 -0.32791E+04
 0.13030057E+01 -0.32985E+04
 0.13530059E+01 -0.33389E+04
 0.14030058E+01 -0.33749E+04
 0.14530058E+01 -0.34013E+04
 0.15030057E+01 -0.34104E+04
 0.15530057E+01 -0.34034E+04
 0.16030059E+01 -0.33962E+04
 0.16530058E+01 -0.33944E+04
 0.17030058E+01 -0.33836E+04
 0.17530057E+01 -0.33636E+04
 0.18030057E+01 -0.33553E+04
 0.18530056E+01 -0.33458E+04
 0.19030058E+01 -0.33229E+04
 0.19530058E+01 -0.32856E+04
 0.20030057E+01 -0.32436E+04
 0.20530057E+01 -0.32024E+04
 0.21030059E+01 -0.31702E+04
 0.21530056E+01 -0.31518E+04
 0.22030058E+01 -0.31466E+04
 0.22530055E+01 -0.31611E+04
 0.23030057E+01 -0.31746E+04
 0.23530059E+01 -0.32151E+04
 0.24030056E+01 -0.32514E+04
 0.24530058E+01 -0.32588E+04
 0.25030055E+01 -0.32571E+04
 0.25530057E+01 -0.32569E+04
 0.26030059E+01 -0.32875E+04
 0.26530056E+01 -0.33058E+04
 0.27030058E+01 -0.33173E+04
 0.27530055E+01 -0.33271E+04
 0.28030057E+01 -0.33493E+04
 0.28530059E+01 -0.33766E+04
 0.29030056E+01 -0.33854E+04
 0.29530058E+01 -0.33996E+04
 0.30030055E+01 -0.34028E+04
 0.30530057E+01 -0.33911E+04
 0.31030059E+01 -0.33603E+04
 0.31530056E+01 -0.33358E+04
 0.32030058E+01 -0.33259E+04
 0.32530055E+01 -0.33215E+04
 0.33030057E+01 -0.33271E+04
 0.33530059E+01 -0.33316E+04
 0.34030056E+01 -0.33340E+04
 0.34530058E+01 -0.33479E+04
 0.35030055E+01 -0.33516E+04
 0.35530057E+01 -0.33400E+04
 0.36030054E+01 -0.33248E+04
 0.36530056E+01 -0.33045E+04
 0.37030058E+01 -0.32985E+04
 0.37530055E+01 -0.32922E+04
 0.38030057E+01 -0.32951E+04
 0.38530054E+01 -0.32959E+04
 0.39030056E+01 -0.32894E+04
 0.39530058E+01 -0.32799E+04
 0.40030055E+01 -0.32680E+04
 0.40530057E+01 -0.32716E+04
 0.41030054E+01 -0.32818E+04
 0.41530056E+01 -0.32836E+04
 0.42030058E+01 -0.32914E+04
 0.42530055E+01 -0.33128E+04
 0.43030057E+01 -0.33167E+04
 0.43530054E+01 -0.33023E+04
 0.44030056E+01 -0.32899E+04
 0.44530058E+01 -0.32802E+04
 0.45030055E+01 -0.32795E+04
 0.45530057E+01 -0.32714E+04
 0.46030054E+01 -0.32531E+04
 0.46530056E+01 -0.32525E+04
 0.47030058E+01 -0.32541E+04
 0.47530055E+01 -0.32578E+04
 0.48030057E+01 -0.32700E+04
 0.48530054E+01 -0.32749E+04
 0.49030056E+01 -0.32761E+04
 0.49530058E+01 -0.32850E+04
 0.50030055E+01 -0.32885E+04
 0.50530057E+01 -0.32952E+04
 0.51030054E+01 -0.32966E+04
 0.51530056E+01 -0.32871E+04
 0.52030058E+01 -0.32884E+04
 0.52530055E+01 -0.32976E+04
 0.53030057E+01 -0.33239E+04
 0.53530054E+01 -0.33432E+04
 0.54030056E+01 -0.33520E+04
 0.54530053E+01 -0.33563E+04
 0.55030055E+01 -0.33728E+04
 0.55530057E+01 -0.33989E+04
 0.56030054E+01 -0.33982E+04
 0.56530056E+01 -0.33801E+04
 0.57030053E+01 -0.33480E+04
 0.57530055E+01 -0.33102E+04
 0.58030057E+01 -0.32800E+04
 0.58530054E+01 -0.32607E+04
 0.59030056E+01 -0.32448E+04
 0.59530053E+01 -0.32364E+04
 0.60030055E+01 -0.32260E+04
 0.60530052E+01 -0.32189E+04
 0.61030054E+01 -0.32259E+04
 0.61530056E+01 -0.32338E+04
 0.62030058E+01 -0.32634E+04
 0.62530050E+01 -0.32987E+04
 0.63030052E+01 -0.33085E+04
 0.63530054E+01 -0.33126E+04
 0.64030056E+01 -0.33108E+04
 0.64530058E+01 -0.33073E+04
 0.65030050E+01 -0.33166E+04
 0.65530052E+01 -0.33222E+04
 0.66030054E+01 -0.33160E+04
 0.66530056E+01 -0.33048E+04
 0.67030058E+01 -0.32919E+04
 0.67530050E+01 -0.32949E+04
 0.68030052E+01 -0.33011E+04
 0.68530054E+01 -0.32897E+04
 0.69030056E+01 -0.32710E+04
 0.69530058E+01 -0.32511E+04
 0.70030050E+01 -0.32278E+04
 0.70530052E+01 -0.32125E+04
 0.71030054E+01 -0.32087E+04
 0.71530056E+01 -0.32120E+04
 0.72030058E+01 -0.32215E+04
 0.72530050E+01 -0.32170E+04
 0.73030052E+01 -0.32339E+04
 0.73530054E+01 -0.32714E+04
 0.74030056E+01 -0.33088E+04
 0.74530058E+01 -0.33571E+04
 0.75030050E+01 -0.33751E+04
 0.75530052E+01 -0.33737E+04
 0.76030054E+01 -0.33782E+04
 0.76530056E+01 -0.33785E+04
 0.77030058E+01 -0.33783E+04
 0.77530050E+01 -0.33949E+04
 0.78030052E+01 -0.33979E+04
 0.78530054E+01 -0.33761E+04
 0.79030056E+01 -0.33592E+04
 0.79530058E+01 -0.33369E+04
 0.80030050E+01 -0.33193E+04
 0.80530052E+01 -0.32900E+04
 0.81030054E+01 -0.32639E+04
 0.81530056E+01 -0.32671E+04
 0.82030058E+01 -0.32825E+04
 0.82530050E+01 -0.32896E+04
 0.83030052E+01 -0.32906E+04
 0.83530054E+01 -0.33043E+04
 0.84030056E+01 -0.33159E+04
 0.84530058E+01 -0.33261E+04
 0.85030050E+01 -0.33318E+04
 0.85530052E+01 -0.33469E+04
 0.86030054E+01 -0.33583E+04
 0.86530056E+01 -0.33537E+04
 0.87030058E+01 -0.33424E+04
 0.87530050E+01 -0.33195E+04
 0.88030052E+01 -0.33033E+04
 0.88530054E+01 -0.32950E+04
 0.89030056E+01 -0.32964E+04
 0.89530058E+01 -0.32921E+04
 0.90030050E+01 -0.32839E+04
 0.90530052E+01 -0.32845E+04
 0.91030054E+01 -0.32908E+04
 0.91530056E+01 -0.33054E+04
 0.92030048E+01 -0.33058E+04
 0.92530050E+01 -0.32931E+04
 0.93030052E+01 -0.32896E+04
 0.93530054E+01 -0.32863E+04
 0.94030056E+01 -0.32717E+04
 0.94530048E+01 -0.32560E+04
 0.95030050E+01 -0.32441E+04
 0.95530052E+01 -0.32340E+04
 0.96030054E+01 -0.32248E+04
 0.96530056E+01 -0.32308E+04
 0.97030048E+01 -0.32549E+04
 0.97530050E+01 -0.32717E+04
 0.98030052E+01 -0.32947E+04
 0.98530054E+01 -0.33073E+04
 0.99030056E+01 -0.33117E+04
 0.99530048E+01 -0.33207E+04
 0.10003005E+02 -0.33250E+04
 0.10053005E+02 -0.33299E+04
 0.10103005E+02 -0.33223E+04
 0.10153006E+02 -0.33022E+04
 0.10203005E+02 -0.32822E+04
 0.10253005E+02 -0.32661E+04
 0.10303005E+02 -0.32690E+04
 0.10353005E+02 -0.32703E+04
 0.10403006E+02 -0.32663E+04
 0.10453005E+02 -0.32734E+04
 0.10503005E+02 -0.32683E+04
 0.10553005E+02 -0.32833E+04
 0.10603005E+02 -0.32917E+04
 0.10653006E+02 -0.32937E+04
 0.10703005E+02 -0.33010E+04
 0.10753005E+02 -0.32991E+04
 0.10803005E+02 -0.33233E+04
 0.10853005E+02 -0.33419E+04
 0.10903006E+02 -0.33397E+04
 0.10953005E+02 -0.33348E+04
 0.11003005E+02 -0.33442E+04
 0.11053005E+02 -0.33601E+04
 0.11103005E+02 -0.33783E+04
 0.11153006E+02 -0.33815E+04
 0.11203005E+02 -0.33689E+04
 0.11253005E+02 -0.33663E+04
 0.11303005E+02 -0.33574E+04
 0.11353005E+02 -0.33523E+04
 0.11403006E+02 -0.33197E+04
 0.11453005E+02 -0.32942E+04
 0.11503005E+02 -0.32998E+04
 0.11553005E+02 -0.33172E+04
 0.11603005E+02 -0.33227E+04
 0.11653006E+02 -0.32993E+04
 0.11703005E+02 -0.32936E+04
 0.11753005E+02 -0.33118E+04
 0.11803005E+02 -0.33213E+04
 0.11853005E+02 -0.33135E+04
 0.11903006E+02 -0.33166E+04
 0.11953005E+02 -0.33250E+04
 0.12003005E+02 -0.33367E+04
 0.12053005E+02 -0.33441E+04
 0.12103005E+02 -0.33382E+04
 0.12153006E+02 -0.33127E+04
 0.12203005E+02 -0.32841E+04
 0.12253005E+02 -0.32671E+04
 0.12303005E+02 -0.32608E+04
 0.12353005E+02 -0.32554E+04
 0.12403006E+02 -0.32510E+04
 0.12453005E+02 -0.32524E+04
 0.12503005E+02 -0.32569E+04
 0.12553005E+02 -0.32708E+04
 0.12603005E+02 -0.32684E+04
 0.12653005E+02 -0.32784E+04
 0.12703005E+02 -0.32977E+04
 0.12753005E+02 -0.33085E+04
 0.12803005E+02 -0.33202E+04
 0.12853005E+02 -0.33194E+04
 0.12903005E+02 -0.33188E+04
 0.12953005E+02 -0.33194E+04
 0.13003005E+02 -0.33238E+04
 0.13053005E+02 -0.33332E+04
 0.13103005E+02 -0.33520E+04
 0.13153005E+02 -0.33646E+04
 0.13203005E+02 -0.33592E+04
 0.13253005E+02 -0.33355E+04
 0.13303005E+02 -0.33081E+04
 0.13353005E+02 -0.32978E+04
 0.13403005E+02 -0.32921E+04
 0.13453005E+02 -0.33012E+04
 0.13503005E+02 -0.33069E+04
 0.13553005E+02 -0.33016E+04
 0.13603005E+02 -0.33175E+04
 0.13653005E+02 -0.33272E+04
 0.13703005E+02 -0.33102E+04
 0.13753005E+02 -0.32840E+04
 0.13803005E+02 -0.32777E+04
 0.13853005E+02 -0.32847E+04
 0.13903005E+02 -0.32873E+04
 0.13953005E+02 -0.32864E+04
 0.14003005E+02 -0.32850E+04
 0.14053005E+02 -0.32757E+04
 0.14103004E+02 -0.32576E+04
 0.14153006E+02 -0.32445E+04
 0.14203005E+02 -0.32432E+04
 0.14253004E+02 -0.32527E+04
 0.14303005E+02 -0.32586E+04
 0.14353004E+02 -0.32677E+04
 0.14403006E+02 -0.32758E+04
 0.14453005E+02 -0.32780E+04
 0.14503004E+02 -0.32815E+04
 0.14553005E+02 -0.32869E+04
 0.14603004E+02 -0.32916E+04
 0.14653006E+02 -0.32928E+04
 0.14703005E+02 -0.32987E+04
 0.14753004E+02 -0.33071E+04
 0.14803005E+02 -0.33151E+04
 0.14853004E+02 -0.33234E+04
 0.14903006E+02 -0.33215E+04
 0.14953005E+02 -0.33270E+04
 0.15003004E+02 -0.33263E+04
 0.15053005E+02 -0.33212E+04
 0.15103004E+02 -0.33053E+04
 0.15153006E+02 -0.32930E+04
 0.15203005E+02 -0.32952E+04
 0.15253004E+02 -0.32975E+04
 0.15303005E+02 -0.33017E+04
 0.15353004E+02 -0.32970E+04
 0.15403006E+02 -0.32915E+04
 0.15453005E+02 -0.32829E+04
 0.15503004E+02 -0.32939E+04
 0.15553005E+02 -0.33029E+04
 0.15603004E+02 -0.33017E+04
 0.15653006E+02 -0.32919E+04
 0.15703005E+02 -0.32870E+04
 0.15753004E+02 -0.32946E+04
 0.15803005E+02 -0.33010E+04
 0.15853004E+02 -0.33055E+04
 0.15903006E+02 -0.33128E+04
 0.15953005E+02 -0.33220E+04
 0.16003004E+02 -0.33230E+04
 0.16053005E+02 -0.33236E+04
 0.16103004E+02 -0.33149E+04
 0.16153006E+02 -0.33042E+04
 0.16203005E+02 -0.33077E+04
 0.16253004E+02 -0.33156E+04
 0.16303005E+02 -0.33289E+04
 0.16353004E+02 -0.33465E+04
 0.16403006E+02 -0.33681E+04
 0.16453005E+02 -0.33614E+04
 0.16503004E+02 -0.33226E+04
 0.16553005E+02 -0.33191E+04
 0.16603004E+02 -0.33205E+04
 0.16653006E+02 -0.33273E+04
 0.16703005E+02 -0.33375E+04
 0.16753004E+02 -0.33293E+04
 0.16803005E+02 -0.33209E+04
 0.16853004E+02 -0.33140E+04
 0.16903006E+02 -0.33130E+04
 0.16953005E+02 -0.33098E+04
 0.17003004E+02 -0.33154E+04
 0.17053005E+02 -0.33103E+04
 0.17103004E+02 -0.33094E+04
 0.17153006E+02 -0.32994E+04
 0.17203005E+02 -0.32860E+04
 0.17253004E+02 -0.32804E+04
 0.17303005E+02 -0.32768E+04
 0.17353004E+02 -0.33079E+04
 0.17403006E+02 -0.33341E+04
 0.17453005E+02 -0.33417E+04
 0.17503004E+02 -0.33420E+04
 0.17553005E+02 -0.33436E+04
 0.17603004E+02 -0.33450E+04
 0.17653006E+02 -0.33436E+04
 0.17703005E+02 -0.33424E+04
 0.17753004E+02 -0.33220E+04
 0.17803005E+02 -0.33041E+04
 0.17853004E+02 -0.33002E+04
 0.17903006E+02 -0.32920E+04
 0.17953005E+02 -0.32862E+04
 0.18003004E+02 -0.32754E+04
 0.18053005E+02 -0.32734E+04
 0.18103004E+02 -0.32643E+04
 0.18153006E+02 -0.32525E+04
 0.18203005E+02 -0.32541E+04
 0.18253004E+02 -0.32591E+04
 0.18303005E+02 -0.32519E+04
 0.18353004E+02 -0.32435E+04
 0.18403006E+02 -0.32526E+04
 0.18453005E+02 -0.32844E+04
 0.18503004E+02 -0.33163E+04
 0.18553005E+02 -0.33380E+04
 0.18603004E+02 -0.33486E+04
 0.18653006E+02 -0.33459E+04
 0.18703005E+02 -0.33529E+04
 0.18753004E+02 -0.33500E+04
 0.18803005E+02 -0.33432E+04
 0.18853004E+02 -0.33171E+04
 0.18903006E+02 -0.33066E+04
 0.18953005E+02 -0.33056E+04
 0.19003004E+02 -0.33014E+04
 0.19053005E+02 -0.32845E+04
 0.19103004E+02 -0.32621E+04
 0.19153006E+02 -0.32467E+04
 0.19203005E+02 -0.32419E+04
 0.19253004E+02 -0.32611E+04
 0.19303005E+02 -0.32681E+04
 0.19353004E+02 -0.32569E+04
 0.19403006E+02 -0.32506E+04
 0.19453005E+02 -0.32693E+04
 0.19503004E+02 -0.32896E+04
 0.19553005E+02 -0.33300E+04
 0.19603004E+02 -0.33359E+04
 0.19653006E+02 -0.33254E+04
 0.19703005E+02 -0.33201E+04
 0.19753004E+02 -0.33114E+04
 0.19803005E+02 -0.32960E+04
 0.19853004E+02 -0.32651E+04
 0.19903006E+02 -0.32672E+04
 0.19953005E+02 -0.32814E+04
 0.20003004E+02 -0.32975E+04
 0.20053005E+02 -0.33147E+04
 0.20103004E+02 -0.33548E+04
 0.20153006E+02 -0.34174E+04
 0.20203005E+02 -0.34794E+04
 0.20253004E+02 -0.35264E+04
 0.20303005E+02 -0.35090E+04
 0.20353004E+02 -0.34528E+04
 0.20403004E+02 -0.33564E+04
 0.20453005E+02 -0.32794E+04
 0.20503004E+02 -0.32230E+04
 0.20553005E+02 -0.32489E+04
 0.20603004E+02 -0.33256E+04
 0.20653004E+02 -0.33712E+04
 0.20703005E+02 -0.33986E+04
 0.20753004E+02 -0.34122E+04
 0.20803005E+02 -0.34197E+04
 0.20853004E+02 -0.35336E+04
 0.20903004E+02 -0.37615E+04
 0.20953005E+02 -0.39784E+04
 0.21003004E+02 -0.39029E+04
 0.21053005E+02 -0.36520E+04
 0.21103004E+02 -0.33556E+04
 0.21153004E+02 -0.32814E+04
 0.21203005E+02 -0.32007E+04
 0.21253004E+02 -0.30009E+04
 0.21303005E+02 -0.28401E+04
 0.21353004E+02 -0.29965E+04
 0.21403004E+02 -0.29563E+04
 0.21453005E+02 -0.34444E+04
 0.21503004E+02 -0.35333E+04
 0.21553005E+02 -0.28534E+04
 0.21603004E+02 -0.29611E+04
 0.21653004E+02 -0.29429E+04
 0.21703005E+02 -0.32668E+04
 0.21753004E+02 -0.33798E+04
 0.21803005E+02 -0.28317E+04
 0.21853004E+02 -0.26835E+04
 0.21903004E+02 -0.22619E+04
 0.21953005E+02 -0.24261E+04
 0.22003004E+02 -0.37844E+04
 0.22053005E+02 -0.38629E+04
 0.22103004E+02 -0.32529E+04
 0.22153004E+02 -0.39135E+04
 0.22203005E+02 -0.41207E+04
 0.22253004E+02 -0.44849E+04
 0.22303005E+02 -0.30871E+04
 0.22353004E+02 -0.39456E+04
 0.22403004E+02 -0.27394E+04
 0.22453005E+02 -0.20205E+04
 0.22503004E+02 -0.57561E+04
 0.22553005E+02 -0.43257E+04
 0.22603004E+02 -0.38166E+04
 0.22653004E+02 -0.72462E+03
 0.22703005E+02 -0.28903E+04
 0.22753004E+02 -0.24091E+04
 0.22803005E+02 -0.35494E+04
 0.22853004E+02 -0.11295E+04
 0.22903004E+02 -0.51681E+04
 0.22953005E+02 -0.73409E+04
 0.23003004E+02 -0.50843E+03
 0.23053005E+02  0.26548E+03
 0.23103004E+02 -0.37030E+04
 0.23153004E+02 -0.26555E+04
 0.23203005E+02 -0.45288E+04
 0.23253004E+02 -0.61810E+04
 0.23303005E+02 -0.16167E+04
 0.23353004E+02 -0.77805E+04
 0.23403004E+02 -0.12936E+04
 0.23453005E+02 -0.71716E+04
 0.23503004E+02 -0.15348E+04
 0.23553005E+02 -0.43103E+03
 0.23603004E+02 -0.77505E+04
 0.23653004E+02 -0.58591E+04
 0.23703005E+02  0.16345E+04
 0.23753004E+02  0.23277E+03
 0.23803005E+02 -0.10346E+04
 0.23853004E+02  0.37645E+04
 0.23903004E+02 -0.11988E+05
 0.23953005E+02 -0.76573E+03
 0.24003004E+02  0.20898E+04
 0.24053005E+02 -0.74712E+04
 0.24103004E+02 -0.36194E+04
 0.24153004E+02 -0.97059E+04
 0.24203005E+02 -0.11561E+05
 0.24253004E+02 -0.30363E+04
 0.24303005E+02 -0.92732E+03
 0.24353004E+02 -0.61014E+03
 0.24403004E+02 -0.31315E+04
 0.24453005E+02 -0.60629E+04
 0.24503004E+02  0.64951E+04
 0.24553005E+02  0.39727E+04
 0.24603004E+02 -0.18024E+04
 0.24653004E+02 -0.18098E+04
 0.24703005E+02 -0.70831E+04
 0.24753004E+02 -0.10192E+05
 0.24803005E+02 -0.55228E+03
 0.24853004E+02 -0.48883E+04
 0.24903004E+02 -0.16446E+05
 0.24953005E+02  0.44572E+04
 0.25003004E+02 -0.24101E+04
 0.25053005E+02 -0.23926E+05
 0.25103004E+02 -0.89544E+03
 0.25153004E+02  0.17103E+05
 0.25203005E+02 -0.80362E+04
 0.25253004E+02  0.12684E+04
 0.25303005E+02  0.71981E+03
 0.25353004E+02 -0.93971E+04
 0.25403004E+02  0.44155E+04
 0.25453005E+02 -0.50636E+04
 0.25503004E+02 -0.11713E+05
 0.25553005E+02 -0.38522E+04
 0.25603004E+02 -0.53046E+03
 0.25653004E+02 -0.92578E+04
 0.25703005E+02  0.32688E+04
 0.25753004E+02 -0.47210E+04
 0.25803005E+02 -0.80609E+04
 0.25853004E+02  0.79064E+04
 0.25903004E+02 -0.17364E+04
 0.25953005E+02 -0.14979E+05
 0.26003004E+02  0.27299E+04
 0.26053005E+02  0.37236E+04
 0.26103004E+02 -0.11786E+05
 0.26153004E+02  0.14786E+04
 0.26203005E+02 -0.84632E+03
 0.26253004E+02 -0.78732E+04
 0.26303005E+02 -0.99082E+04
 0.26353004E+02 -0.99799E+04
 0.26403004E+02  0.38783E+04
 0.26453005E+02  0.46674E+04
 0.26503004E+02 -0.10071E+05
 0.26553005E+02 -0.59121E+04
 0.26603004E+02  0.11952E+04
 0.26653004E+02 -0.30925E+04
 0.26703005E+02 -0.50515E+04
 0.26753004E+02  0.15555E+04
 0.26803005E+02  0.52048E+04
 0.26853004E+02 -0.13653E+04
 0.26903004E+02 -0.13628E+05
 0.26953005E+02 -0.18359E+05
 0.27003004E+02  0.28318E+04
 0.27053003E+02  0.95589E+04
 0.27103004E+02 -0.23757E+04
 0.27153004E+02 -0.17020E+04
 0.27203005E+02 -0.42275E+04
 0.27253004E+02 -0.28162E+04
 0.27303003E+02 -0.50711E+04
 0.27353004E+02 -0.10928E+05
 0.27403004E+02 -0.70869E+04
 0.27453005E+02 -0.16559E+04
 0.27503004E+02 -0.32054E+04
 0.27553003E+02 -0.42209E+04
 0.27603004E+02 -0.70758E+03
 0.27653004E+02 -0.60066E+04
 0.27703005E+02 -0.70785E+04
 0.27753004E+02 -0.20809E+04
 0.27803003E+02 -0.22534E+04
 0.27853004E+02  0.28811E+04
 0.27903004E+02  0.34929E+04
 0.27953005E+02 -0.49256E+04
 0.28003004E+02 -0.62885E+04
 0.28053003E+02 -0.39228E+04
 0.28103004E+02 -0.95831E+03
 0.28153004E+02  0.26526E+04
 0.28203005E+02 -0.51427E+04
 0.28253004E+02 -0.75631E+04
 0.28303003E+02 -0.15869E+04
 0.28353004E+02 -0.79141E+03
 0.28403004E+02 -0.50685E+04
 0.28453005E+02 -0.73039E+04
 0.28503004E+02  0.91457E+03
 0.28553003E+02  0.25164E+04
 0.28603004E+02 -0.68022E+04
 0.28653004E+02 -0.11606E+05
 0.28703005E+02 -0.98226E+03
 0.28753004E+02 -0.41100E+04
 0.28803003E+02 -0.36524E+04
 0.28853004E+02  0.13001E+04
 0.28903004E+02 -0.51514E+04
 0.28953005E+02 -0.10202E+05
 0.29003004E+02 -0.95610E+04
 0.29053003E+02  0.72945E+02
 0.29103004E+02  0.53051E+04
 0.29153004E+02 -0.47700E+03
 0.29203005E+02 -0.91510E+04
 0.29253004E+02 -0.32095E+04
 0.29303003E+02 -0.80436E+02
 0.29353004E+02 -0.91610E+03
 0.29403004E+02 -0.13358E+04
 0.29453005E+02 -0.35690E+04
 0.29503004E+02 -0.14776E+04
 0.29553003E+02  0.17733E+03
 0.29603004E+02 -0.51083E+04
 0.29653004E+02 -0.59688E+04
 0.29703005E+02 -0.39115E+04
 0.29753004E+02 -0.63044E+04
 0.29803003E+02 -0.35728E+04
 0.29853004E+02 -0.46540E+04
 0.29903004E+02 -0.45382E+04
 0.29953005E+02 -0.21735E+04
 0.30003004E+02 -0.34180E+04
 0.30053005E+02 -0.59721E+04
 0.30103004E+02 -0.35256E+04
 0.30153004E+02  0.29654E+04
 0.30203003E+02  0.72750E+04
 0.30253002E+02  0.15227E+04
 0.30303005E+02 -0.10454E+05
 0.30353004E+02 -0.74150E+04
 0.30403004E+02 -0.34513E+04
 0.30453003E+02 -0.30474E+04
 0.30503002E+02 -0.59982E+04
 0.30553005E+02 -0.89387E+04
 0.30603004E+02 -0.41298E+04
 0.30653004E+02 -0.29579E+04
 0.30703003E+02 -0.37100E+04
 0.30753002E+02 -0.74589E+04
 0.30803005E+02 -0.23678E+04
 0.30853004E+02  0.20550E+04
 0.30903004E+02 -0.47457E+04
 0.30953003E+02 -0.12498E+05
 0.31003002E+02 -0.52618E+04
 0.31053005E+02  0.48760E+04
 0.31103004E+02 -0.33535E+04
 0.31153004E+02 -0.51198E+04
 0.31203003E+02 -0.31876E+04
 0.31253002E+02 -0.46815E+04
 0.31303005E+02  0.37010E+03
 0.31353004E+02  0.21059E+03
 0.31403004E+02 -0.31584E+04
 0.31453003E+02 -0.25294E+04
 0.31503002E+02 -0.46747E+04
 0.31553005E+02 -0.27703E+04
 0.31603004E+02 -0.59513E+03
 0.31653004E+02 -0.56273E+04
 0.31703003E+02  0.86945E+03
 0.31753002E+02  0.29377E+04
 0.31803005E+02 -0.85443E+04
 0.31853004E+02 -0.14679E+05
 0.31903004E+02 -0.12096E+05
 0.31953003E+02 -0.12588E+04
 0.32003002E+02  0.44113E+04
 0.32053005E+02  0.56864E+04
 0.32103004E+02 -0.47270E+04
 0.32153004E+02 -0.13893E+05
 0.32203003E+02 -0.10587E+05
 0.32253002E+02 -0.66996E+04
 0.32303005E+02 -0.29214E+04
 0.32353004E+02  0.15177E+04
 0.32403004E+02  0.18079E+04
 0.32453003E+02 -0.10945E+04
 0.32503002E+02 -0.55405E+04
 0.32553005E+02 -0.11063E+05
 0.32603004E+02 -0.34304E+03
 0.32653004E+02  0.75856E+04
 0.32703003E+02  0.25136E+04
 0.32753002E+02 -0.35717E+04
 0.32803005E+02 -0.39064E+04
 0.32853004E+02 -0.19589E+04
 0.32903004E+02 -0.43519E+04
 0.32953003E+02 -0.51292E+04
 0.33003002E+02 -0.55740E+04
 0.33053005E+02 -0.35985E+04
 0.33103004E+02 -0.83539E+04
 0.33153004E+02 -0.10497E+05
 0.33203003E+02  0.12716E+04
 0.33253002E+02  0.73167E+04
 0.33303005E+02  0.11270E+05
 0.33353004E+02  0.96847E+04
 0.33403004E+02 -0.85273E+04
 0.33453003E+02 -0.20117E+05
 0.33503002E+02 -0.17758E+05
 0.33553005E+02 -0.12381E+05
 0.33603004E+02 -0.99147E+04
 0.33653004E+02 -0.10818E+05
 0.33703003E+02 -0.51970E+04
 0.33753002E+02  0.35356E+04
 0.33803005E+02  0.92609E+04
 0.33853004E+02  0.70146E+04
 0.33903004E+02  0.52839E+04
 0.33953003E+02  0.28324E+04
 0.34003002E+02 -0.39733E+04
 0.34053005E+02  0.12351E+04
 0.34103004E+02 -0.49471E+03
 0.34153004E+02 -0.11285E+05
 0.34203003E+02 -0.73557E+04
 0.34253002E+02  0.11414E+04
 0.34303005E+02  0.13209E+04
 0.34353004E+02 -0.16987E+04
 0.34403004E+02 -0.78632E+04
 0.34453003E+02 -0.11024E+05
 0.34503002E+02 -0.11530E+05
 0.34553005E+02 -0.49711E+04
 0.34603004E+02 -0.33375E+04
 0.34653004E+02 -0.77342E+04
 0.34703003E+02 -0.56498E+04
 0.34753002E+02 -0.10936E+05
 0.34803005E+02 -0.72817E+04
 0.34853004E+02 -0.46516E+04
 0.34903004E+02 -0.51465E+04
 0.34953003E+02  0.55816E+04
 0.35003002E+02 -0.62882E+04
 0.35053005E+02 -0.14337E+05
 0.35103004E+02  0.12176E+03
 0.35153004E+02  0.89697E+04
 0.35203003E+02  0.13014E+05
 0.35253002E+02 -0.17359E+03
 0.35303005E+02  0.27650E+04
 0.35353004E+02  0.10038E+05
 0.35403004E+02 -0.45038E+04
 0.35453003E+02 -0.12243E+05
 0.35503002E+02 -0.10481E+05
 0.35553005E+02 -0.11739E+04
 0.35603004E+02  0.10236E+05
 0.35653004E+02  0.63145E+04
 0.35703003E+02 -0.13486E+03
 0.35753002E+02  0.27101E+04
 0.35803005E+02 -0.14690E+05
 0.35853004E+02 -0.25360E+05
 0.35903004E+02 -0.27001E+05
 0.35953003E+02 -0.15008E+05
 0.36003002E+02  0.88451E+04
 0.36053005E+02 -0.17973E+04
 0.36103004E+02 -0.10212E+05
 0.36153004E+02  0.12944E+04
 0.36203003E+02 -0.51497E+04
 0.36253002E+02 -0.23996E+04
 0.36303005E+02  0.52246E+04
 0.36353004E+02  0.32532E+04
 0.36403004E+02  0.90053E+03
 0.36453003E+02 -0.99512E+04
 0.36503002E+02 -0.12480E+05
 0.36553005E+02 -0.96924E+04
 0.36603004E+02  0.48119E+04
 0.36653004E+02  0.10440E+05
 0.36703003E+02  0.55755E+04
 0.36753002E+02  0.10806E+05
 0.36803005E+02  0.82321E+04
 0.36853004E+02 -0.52311E+04
 0.36903004E+02 -0.88761E+04
 0.36953003E+02 -0.84900E+04
 0.37003002E+02 -0.94233E+04
 0.37053005E+02 -0.18170E+05
 0.37103004E+02 -0.28683E+05
 0.37153004E+02 -0.69710E+04
 0.37203003E+02  0.61528E+04
 0.37253002E+02  0.12346E+05
 0.37303005E+02  0.23198E+05
 0.37353004E+02  0.33540E+04
 0.37403004E+02 -0.82210E+04
 0.37453003E+02 -0.32740E+04
 0.37503002E+02 -0.16854E+05
 0.37553005E+02 -0.19228E+05
 0.37603004E+02 -0.59509E+04
 0.37653004E+02 -0.55922E+04
 0.37703003E+02 -0.71662E+04
 0.37753002E+02 -0.14531E+05
 0.37803005E+02 -0.20423E+05
 0.37853004E+02 -0.36902E+04
 0.37903004E+02  0.55929E+04
 0.37953003E+02  0.11188E+05
 0.38003002E+02  0.15986E+05
 0.38053005E+02  0.38373E+04
 0.38103004E+02 -0.11956E+02
 0.38153004E+02 -0.55230E+04
 0.38203003E+02 -0.15935E+05
 0.38253002E+02 -0.79654E+04
 0.38303005E+02 -0.34749E+04
 0.38353004E+02 -0.84055E+04
 0.38403004E+02 -0.36914E+04
 0.38453003E+02  0.10803E+04
 0.38503002E+02 -0.44069E+04
 0.38553005E+02 -0.49621E+04
 0.38603004E+02 -0.37006E+04
 0.38653004E+02 -0.95472E+04
 0.38703003E+02  0.16915E+04
 0.38753002E+02  0.16975E+05
 0.38803005E+02  0.19039E+05
 0.38853004E+02  0.13774E+05
 0.38903004E+02  0.64293E+03
 0.38953003E+02 -0.67883E+04
 0.39003002E+02 -0.10462E+05
 0.39053005E+02 -0.25528E+05
 0.39103004E+02 -0.29272E+05
 0.39153004E+02 -0.71951E+04
 0.39203003E+02  0.10771E+05
 0.39253002E+02 -0.14634E+04
 0.39303005E+02 -0.13148E+05
 0.39353004E+02 -0.10883E+05
 0.39403004E+02 -0.31374E+04
 0.39453003E+02  0.28678E+04
 0.39503002E+02 -0.82889E+04
 0.39553005E+02 -0.12260E+05
 0.39603004E+02 -0.65268E+04
 0.39653004E+02 -0.11505E+05
 0.39703003E+02 -0.10141E+04
 0.39753002E+02  0.13549E+05
 0.39803005E+02 -0.16911E+04
 0.39853004E+02 -0.11776E+05
 0.39903004E+02 -0.75165E+04
 0.39953003E+02  0.13502E+05
 0.40003002E+02  0.23171E+05
 0.40053005E+02  0.69049E+04
 0.40103004E+02  0.94408E+04
 0.40153004E+02  0.51787E+04
 0.40203003E+02 -0.19062E+05
 0.40253002E+02 -0.20016E+05
 0.40303005E+02 -0.10933E+05
 0.40353004E+02 -0.69832E+04
 0.40403004E+02 -0.21294E+04
 0.40453003E+02 -0.12377E+04
 0.40503002E+02 -0.17606E+05
 0.40553005E+02 -0.30707E+05
 0.40603004E+02 -0.10220E+05
 0.40653004E+02  0.43665E+04
 0.40703003E+02 -0.47633E+03
 0.40753002E+02  0.12483E+04
 0.40803005E+02  0.52831E+04
 0.40853004E+02 -0.68544E+04
 0.40903004E+02 -0.14206E+05
 0.40953003E+02 -0.55300E+04
 0.41003002E+02  0.72289E+04
 0.41053005E+02  0.50677E+04
 0.41103004E+02  0.24985E+04
 0.41153004E+02  0.74903E+04
 0.41203003E+02  0.74127E+03
 0.41253002E+02 -0.44833E+04
 0.41303005E+02 -0.17608E+04
 0.41353004E+02 -0.43269E+04
 0.41403004E+02 -0.73086E+04
 0.41453003E+02  0.29574E+04
 0.41503002E+02  0.13612E+03
 0.41553005E+02 -0.69058E+04
 0.41603004E+02  0.19357E+03
 0.41653004E+02 -0.30295E+04
 0.41703003E+02 -0.15846E+05
 0.41753002E+02 -0.19429E+05
 0.41803005E+02 -0.89641E+04
 0.41853004E+02 -0.99344E+04
 0.41903004E+02 -0.17003E+05
 0.41953003E+02 -0.71810E+03
 0.42003002E+02  0.12535E+05
 0.42053005E+02  0.12147E+05
 0.42103004E+02  0.40249E+02
 0.42153004E+02 -0.80449E+04
 0.42203003E+02 -0.42539E+04
 0.42253002E+02  0.32457E+04
 0.42303005E+02  0.12862E+05
 0.42353004E+02  0.20515E+03
 0.42403004E+02 -0.12094E+05
 0.42453003E+02 -0.88214E+04
 0.42503002E+02 -0.36895E+04
 0.42553005E+02 -0.59689E+03
 0.42603004E+02  0.18716E+04
 0.42653004E+02 -0.49495E+03
 0.42703003E+02 -0.86894E+04
 0.42753002E+02 -0.35921E+04
 0.42803001E+02 -0.22184E+04
 0.42853004E+02 -0.10376E+05
 0.42903004E+02 -0.12060E+05
 0.42953003E+02 -0.30250E+04
 0.43003002E+02  0.26543E+04
 0.43053001E+02  0.64253E+03
 0.43103004E+02  0.29201E+04
 0.43153004E+02 -0.33955E+04
 0.43203003E+02 -0.10717E+05
 0.43253002E+02 -0.69537E+04
 0.43303001E+02 -0.89228E+03
 0.43353004E+02  0.12923E+04
 0.43403004E+02 -0.51347E+04
 0.43453003E+02 -0.13821E+05
 0.43503002E+02 -0.17999E+05
 0.43553001E+02 -0.16947E+05
 0.43603004E+02 -0.68274E+04
 0.43653004E+02 -0.56531E+03
 0.43703003E+02  0.23419E+04
 0.43753002E+02  0.33159E+04
 0.43803001E+02  0.33595E+04
 0.43853004E+02  0.69109E+04
 0.43903004E+02  0.71679E+04
 0.43953003E+02  0.32594E+04
 0.44003002E+02 -0.33111E+04
 0.44053001E+02  0.77839E+02
 0.44103004E+02 -0.18369E+04
 0.44153004E+02 -0.10931E+05
 0.44203003E+02 -0.10171E+05
 0.44253002E+02 -0.11332E+04
 0.44303001E+02  0.63471E+04
 0.44353004E+02  0.29290E+04
 0.44403004E+02  0.44616E+03
 0.44453003E+02 -0.11870E+04
 0.44503002E+02 -0.86677E+04
 0.44553001E+02 -0.12984E+05
 0.44603004E+02 -0.11035E+05
 0.44653004E+02 -0.11465E+05
 0.44703003E+02 -0.82301E+04
 0.44753002E+02 -0.53966E+04
 0.44803001E+02 -0.86536E+04
 0.44853004E+02 -0.76104E+04
 0.44903004E+02 -0.52073E+04
 0.44953003E+02 -0.62998E+04
 0.45003002E+02 -0.13350E+04
 0.45053001E+02  0.93546E+04
 0.45103004E+02  0.50029E+04
 0.45153004E+02 -0.71765E+04
 0.45203003E+02 -0.85649E+04
 0.45253002E+02 -0.13382E+03
 0.45303001E+02  0.12333E+04
 0.45353004E+02  0.29323E+04
 0.45403004E+02  0.58990E+04
 0.45453003E+02 -0.37140E+03
 0.45503002E+02 -0.32725E+04
 0.45553001E+02 -0.19662E+04
 0.45603004E+02 -0.81158E+04
 0.45653004E+02 -0.15282E+05
 0.45703003E+02 -0.59592E+04
 0.45753002E+02  0.25897E+04
 0.45803001E+02  0.17749E+04
 0.45853004E+02 -0.49170E+04
 0.45903004E+02 -0.10583E+05
 0.45953003E+02 -0.95291E+04
 0.46003002E+02 -0.43801E+04
 0.46053001E+02 -0.24306E+04
 0.46103004E+02 -0.80382E+04
 0.46153004E+02 -0.64330E+04
 0.46203003E+02 -0.26924E+04
 0.46253002E+02 -0.21145E+04
 0.46303001E+02 -0.14171E+04
 0.46353004E+02  0.17147E+04
 0.46403004E+02  0.57082E+04
 0.46453003E+02  0.64818E+04
 0.46503002E+02  0.69423E+04
 0.46553001E+02  0.26772E+04
 0.46603004E+02 -0.67575E+04
 0.46653004E+02 -0.10552E+05
 0.46703003E+02 -0.76859E+04
 0.46753002E+02 -0.65800E+04
 0.46803001E+02 -0.42551E+03
 0.46853004E+02  0.41471E+04
 0.46903004E+02  0.66905E+04
 0.46953003E+02  0.82931E+04
 0.47003002E+02 -0.16355E+04
 0.47053001E+02 -0.90224E+04
 0.47103004E+02 -0.15075E+05
 0.47153004E+02 -0.20186E+05
 0.47203003E+02 -0.13571E+05
 0.47253002E+02 -0.91805E+04
 0.47303001E+02 -0.81151E+04
 0.47353004E+02 -0.28283E+04
 0.47403004E+02 -0.18679E+04
 0.47453003E+02 -0.49500E+04
 0.47503002E+02 -0.58405E+04
 0.47553001E+02 -0.53052E+04
 0.47603004E+02 -0.55132E+04
 0.47653004E+02 -0.76463E+03
 0.47703003E+02  0.43598E+04
 0.47753002E+02  0.46598E+04
 0.47803001E+02  0.64290E+04
 0.47853004E+02  0.69189E+04
 0.47903004E+02  0.16989E+04
 0.47953003E+02 -0.10739E+04
 0.48003002E+02  0.19610E+04
 0.48053001E+02  0.26041E+04
 0.48103004E+02 -0.27870E+04
 0.48153004E+02 -0.11387E+05
 0.48203003E+02 -0.17680E+05
 0.48253002E+02 -0.13119E+05
 0.48303001E+02 -0.66792E+04
 0.48353004E+02 -0.92780E+04
 0.48403004E+02 -0.92173E+04
 0.48453003E+02 -0.66389E+04
 0.48503002E+02 -0.36207E+04
 0.48553001E+02 -0.28164E+04
 0.48603004E+02  0.13706E+04
 0.48653004E+02  0.49864E+04
 0.48703003E+02  0.14124E+04
 0.48753002E+02 -0.19151E+04
 0.48803001E+02 -0.65518E+04
 0.48853004E+02 -0.33515E+04
 0.48903004E+02  0.72271E+03
 0.48953003E+02 -0.26563E+04
 0.49003002E+02 -0.49950E+04
 0.49053001E+02 -0.73036E+04
 0.49103004E+02 -0.10329E+05
 0.49153004E+02 -0.79922E+04
 0.49203003E+02 -0.40288E+04
 0.49253002E+02 -0.15682E+04
 0.49303001E+02  0.32659E+04
 0.49353004E+02  0.52473E+04
 0.49403004E+02  0.43872E+03
 0.49453003E+02 -0.23450E+04
 0.49503002E+02 -0.47282E+03
 0.49553001E+02  0.21214E+04
 0.49603004E+02  0.14814E+04
 0.49653004E+02 -0.61108E+04
 0.49703003E+02 -0.11930E+05
 0.49753002E+02 -0.10692E+05
 0.49803001E+02 -0.70336E+04
 0.49853004E+02 -0.55249E+04
 0.49903004E+02 -0.18088E+04
 0.49953003E+02 -0.10095E+04
 0.50003002E+02 -0.80539E+04
 0.50053001E+02 -0.92495E+04
 0.50103004E+02 -0.63209E+04
 0.50153004E+02 -0.53682E+04
 0.50203003E+02 -0.41583E+04
 0.50253002E+02 -0.38798E+04
 0.50303001E+02 -0.44124E+04
 0.50353004E+02 -0.52238E+04
 0.50403004E+02 -0.85418E+04
 0.50453003E+02 -0.90777E+04
 0.50503002E+02 -0.46542E+04
 0.50553001E+02  0.40409E+03
 0.50603004E+02  0.88133E+04
 0.50653004E+02  0.13042E+05
 0.50703003E+02  0.10410E+05
 0.50753002E+02  0.43601E+04
 0.50803001E+02  0.98091E+03
 0.50853004E+02 -0.95673E+03
 0.50903004E+02 -0.61659E+04
 0.50953003E+02 -0.68498E+04
 0.51003002E+02 -0.82291E+04
 0.51053001E+02 -0.89427E+04
 0.51103004E+02 -0.49653E+04
 0.51153004E+02 -0.37656E+04
 0.51203003E+02 -0.67187E+04
 0.51253002E+02 -0.59646E+04
 0.51303001E+02 -0.48207E+04
 0.51353004E+02 -0.29523E+04
 0.51403004E+02  0.12628E+04
 0.51453003E+02  0.14567E+04
 0.51503002E+02  0.20403E+03
 0.51553001E+02 -0.29154E+04
 0.51603004E+02 -0.10465E+04
 0.51653004E+02 -0.91090E+03
 0.51703003E+02 -0.59463E+04
 0.51753002E+02 -0.92361E+04
 0.51803001E+02 -0.86926E+04
 0.51853004E+02 -0.47605E+04
 0.51903004E+02 -0.50070E+04
 0.51953003E+02 -0.49050E+04
 0.52003002E+02 -0.51022E+04
 0.52053001E+02 -0.92760E+04
 0.52103004E+02 -0.14150E+05
 0.52153004E+02 -0.14077E+05
 0.52203003E+02 -0.77708E+04
 0.52253002E+02  0.23796E+03
 0.52303001E+02  0.30492E+04
 0.52353004E+02  0.38862E+04
 0.52403004E+02  0.49002E+04
 0.52453003E+02  0.54450E+04
 0.52503002E+02  0.49018E+04
 0.52553001E+02 -0.22497E+04
 0.52603004E+02 -0.70670E+04
 0.52653004E+02 -0.99343E+04
 0.52703003E+02 -0.13975E+05
 0.52753002E+02 -0.12707E+05
 0.52803001E+02 -0.31660E+04
 0.52853004E+02  0.37693E+04
 0.52903004E+02  0.18897E+04
 0.52953003E+02  0.16289E+04
 0.53003002E+02  0.14138E+04
 0.53053001E+02 -0.67306E+03
 0.53103004E+02  0.82175E+01
 0.53153004E+02  0.10099E+03
 0.53203003E+02 -0.53654E+04
 0.53253002E+02 -0.62821E+04
 0.53303001E+02 -0.51281E+04
 0.53353004E+02 -0.76270E+04
 0.53403004E+02 -0.59034E+04
 0.53453003E+02 -0.89899E+03
 0.53503002E+02  0.31817E+04
 0.53553001E+02  0.44975E+04
 0.53603004E+02  0.26363E+04
 0.53653004E+02 -0.24690E+04
 0.53703003E+02 -0.70325E+04
 0.53753002E+02 -0.80652E+04
 0.53803001E+02 -0.70738E+04
 0.53853004E+02 -0.64828E+04
 0.53903004E+02 -0.51701E+04
 0.53953003E+02 -0.22146E+04
 0.54003002E+02 -0.21331E+04
 0.54053001E+02 -0.53145E+04
 0.54103004E+02 -0.75909E+04
 0.54153004E+02 -0.68756E+04
 0.54203003E+02 -0.39282E+04
 0.54253002E+02 -0.21068E+04
 0.54303001E+02 -0.44711E+04
 0.54353004E+02 -0.85709E+04
 0.54403004E+02 -0.73369E+04
 0.54453003E+02 -0.63533E+04
 0.54503002E+02 -0.60398E+04
 0.54553001E+02 -0.30231E+04
 0.54603004E+02 -0.29141E+04
 0.54653004E+02 -0.22695E+04
 0.54703003E+02 -0.11661E+04
 0.54753002E+02 -0.13220E+04
 0.54803001E+02  0.20123E+03
 0.54853004E+02 -0.97330E+02
 0.54903004E+02 -0.30332E+04
 0.54953003E+02 -0.62286E+04
 0.55003002E+02 -0.84618E+04
 0.55053001E+02 -0.67302E+04
 0.55103004E+02 -0.23679E+04
 0.55153004E+02  0.94852E+03
 0.55203003E+02  0.29368E+04
 0.55253002E+02  0.22703E+04
 0.55303001E+02  0.15474E+03
 0.55353004E+02 -0.35503E+03
 0.55403004E+02 -0.21137E+04
 0.55453003E+02 -0.60227E+04
 0.55503002E+02 -0.62470E+04
 0.55553001E+02 -0.16820E+04
 0.55603004E+02  0.90518E+03
 0.55653004E+02  0.45060E+03
 0.55703003E+02 -0.58122E+03
 0.55753002E+02 -0.14712E+04
 0.55803001E+02 -0.13642E+04
 0.55853001E+02 -0.25114E+04
 0.55903004E+02 -0.79634E+04
 0.55953003E+02 -0.91748E+04
 0.56003002E+02 -0.59714E+04
 0.56053001E+02 -0.30604E+04
 0.56103001E+02 -0.25924E+04
 0.56153004E+02 -0.74002E+04
 0.56203003E+02 -0.77341E+04
 0.56253002E+02 -0.44009E+04
 0.56303001E+02 -0.31373E+04
 0.56353001E+02 -0.29308E+04
 0.56403004E+02 -0.20165E+04
 0.56453003E+02 -0.68904E+03
 0.56503002E+02  0.11071E+04
 0.56553001E+02  0.11607E+04
 0.56603001E+02 -0.30646E+04
 0.56653004E+02 -0.42535E+04
 0.56703003E+02 -0.24069E+04
 0.56753002E+02 -0.32395E+04
 0.56803001E+02 -0.48813E+04
 0.56853001E+02 -0.63492E+04
 0.56903004E+02 -0.73084E+04
 0.56953003E+02 -0.65700E+04
 0.57003002E+02 -0.53908E+04
 0.57053001E+02 -0.54950E+04
 0.57103001E+02 -0.68861E+04
 0.57153004E+02 -0.71960E+04
 0.57203003E+02 -0.59737E+04
 0.57253002E+02 -0.20303E+04
 0.57303001E+02  0.24302E+04
 0.57353001E+02  0.36279E+04
 0.57403004E+02  0.22254E+04
 0.57453003E+02 -0.14711E+04
 0.57503002E+02 -0.21272E+04
 0.57553001E+02 -0.21227E+04
 0.57603001E+02 -0.45392E+04
 0.57653004E+02 -0.58826E+04
 0.57703003E+02 -0.42483E+04
 0.57753002E+02 -0.31329E+04
 0.57803001E+02 -0.61486E+04
 0.57853001E+02 -0.78866E+04
 0.57903004E+02 -0.69914E+04
 0.57953003E+02 -0.42387E+04
 0.58003002E+02 -0.21655E+04
 0.58053001E+02 -0.11264E+04
 0.58103001E+02 -0.63872E+03
 0.58153004E+02 -0.45276E+03
 0.58203003E+02 -0.63063E+03
 0.58253002E+02 -0.15589E+04
 0.58303001E+02 -0.99273E+03
 0.58353001E+02 -0.24546E+04
 0.58403004E+02 -0.52841E+04
 0.58453003E+02 -0.56452E+04
 0.58503002E+02 -0.60471E+04
 0.58553001E+02 -0.81691E+04
 0.58603001E+02 -0.85764E+04
 0.58653004E+02 -0.56994E+04
 0.58703003E+02 -0.29160E+04
 0.58753002E+02 -0.15556E+04
 0.58803001E+02  0.26055E+03
 0.58853001E+02  0.16279E+04
 0.58903004E+02  0.23883E+04
 0.58953003E+02  0.20983E+04
 0.59003002E+02 -0.58563E+03
 0.59053001E+02 -0.16303E+04
 0.59103001E+02 -0.10161E+04
 0.59153004E+02 -0.14768E+03
 0.59203003E+02  0.88850E+03
 0.59253002E+02 -0.10065E+04
 0.59303001E+02 -0.61740E+04
 0.59353001E+02 -0.81688E+04
 0.59403004E+02 -0.72954E+04
 0.59453003E+02 -0.74667E+04
 0.59503002E+02 -0.66895E+04
 0.59553001E+02 -0.67551E+04
 0.59603001E+02 -0.64341E+04
 0.59653004E+02 -0.56141E+04
 0.59703003E+02 -0.57779E+04
 0.59753002E+02 -0.63371E+04
 0.59803001E+02 -0.64781E+04
 0.59853001E+02 -0.57709E+04
 0.59903004E+02 -0.39728E+04
 0.59953003E+02 -0.17340E+04
 0.60003002E+02 -0.39234E+03
 0.60053001E+02 -0.14014E+04
 0.60103001E+02 -0.38592E+04
 0.60153004E+02 -0.42956E+04
 0.60203003E+02 -0.42390E+04
 0.60253002E+02 -0.42440E+04
 0.60303001E+02 -0.35541E+04
 0.60353001E+02 -0.14983E+04
 0.60403004E+02  0.13511E+04
 0.60453003E+02  0.88466E+03
 0.60503002E+02 -0.13579E+04
 0.60553001E+02 -0.91988E+03
 0.60603001E+02  0.92180E+03
 0.60653004E+02  0.14197E+04
 0.60703003E+02 -0.46391E+03
 0.60753002E+02 -0.38188E+04
 0.60803001E+02 -0.38646E+04
 0.60853001E+02 -0.29774E+04
 0.60903004E+02 -0.45343E+04
 0.60953003E+02 -0.49330E+04
 0.61003002E+02 -0.34329E+04
 0.61053001E+02 -0.28584E+04
 0.61103001E+02 -0.36895E+04
 0.61153004E+02 -0.43448E+04
 0.61203003E+02 -0.46397E+04
 0.61253002E+02 -0.44276E+04
 0.61303001E+02 -0.59692E+04
 0.61353001E+02 -0.85392E+04
 0.61403004E+02 -0.88647E+04
 0.61453003E+02 -0.73863E+04
 0.61503002E+02 -0.54970E+04
 0.61553001E+02 -0.43182E+04
 0.61603001E+02 -0.45443E+04
 0.61653004E+02 -0.40571E+04
 0.61703003E+02 -0.33883E+04
 0.61753002E+02 -0.48292E+03
 0.61803001E+02  0.25182E+04
 0.61853001E+02  0.16769E+04
 0.61903004E+02 -0.52758E+03
 0.61953003E+02 -0.30738E+04
 0.62003002E+02 -0.47397E+04
 0.62053001E+02 -0.52526E+04
 0.62103004E+02 -0.41569E+04
 0.62153000E+02 -0.18549E+04
 0.62203003E+02 -0.12381E+04
 0.62252998E+02 -0.31167E+04
 0.62303001E+02 -0.46920E+04
 0.62353004E+02 -0.58511E+04
 0.62403000E+02 -0.61658E+04
 0.62453003E+02 -0.40192E+04
 0.62502998E+02 -0.27277E+04
 0.62553001E+02 -0.22691E+04
 0.62603004E+02 -0.40187E+02
 0.62653000E+02  0.17074E+04
 0.62703003E+02  0.12982E+04
 0.62752998E+02  0.46162E+03
 0.62803001E+02 -0.92358E+03
 0.62853004E+02 -0.32924E+04
 0.62903000E+02 -0.40584E+04
 0.62953003E+02 -0.37466E+04
 0.63002998E+02 -0.40112E+04
 0.63053001E+02 -0.51768E+04
 0.63103004E+02 -0.70476E+04
 0.63153000E+02 -0.73213E+04
 0.63203003E+02 -0.54491E+04
 0.63252998E+02 -0.34641E+04
 0.63303001E+02 -0.16717E+04
 0.63353004E+02 -0.13937E+04
 0.63403000E+02 -0.44600E+04
 0.63453003E+02 -0.70707E+04
 0.63502998E+02 -0.72823E+04
 0.63553001E+02 -0.63959E+04
 0.63603004E+02 -0.50040E+04
 0.63653000E+02 -0.40684E+04
 0.63703003E+02 -0.30753E+04
 0.63752998E+02 -0.76869E+03
 0.63803001E+02  0.17503E+04
 0.63853004E+02  0.13914E+04
 0.63903000E+02 -0.11468E+04
 0.63953003E+02 -0.24860E+04
 0.64002998E+02 -0.25115E+04
 0.64053001E+02 -0.25758E+04
 0.64103004E+02 -0.25903E+04
 0.64153000E+02 -0.31652E+04
 0.64203003E+02 -0.33090E+04
 0.64252998E+02 -0.48130E+04
 0.64303001E+02 -0.62478E+04
 0.64353004E+02 -0.53900E+04
 0.64403000E+02 -0.48957E+04
 0.64453003E+02 -0.40223E+04
 0.64502998E+02 -0.24326E+04
 0.64553001E+02 -0.12265E+04
 0.64603004E+02 -0.24816E+04
 0.64653000E+02 -0.39421E+04
 0.64703003E+02 -0.44326E+04
 0.64752998E+02 -0.45224E+04
 0.64803001E+02 -0.39328E+04
 0.64853004E+02 -0.36729E+04
 0.64903000E+02 -0.26087E+04
 0.64953003E+02 -0.15805E+04
 0.65002998E+02 -0.27659E+04
 0.65053001E+02 -0.40671E+04
 0.65103004E+02 -0.39801E+04
 0.65153000E+02 -0.32811E+04
 0.65203003E+02 -0.21316E+04
 0.65252998E+02 -0.15671E+04
 0.65303001E+02 -0.32301E+04
 0.65353004E+02 -0.56582E+04
 0.65403000E+02 -0.50972E+04
 0.65453003E+02 -0.34122E+04
 0.65502998E+02 -0.25954E+04
 0.65553001E+02 -0.17067E+04
 0.65603004E+02 -0.14138E+04
 0.65653000E+02 -0.14841E+04
 0.65703003E+02 -0.20137E+04
 0.65752998E+02 -0.40509E+04
 0.65803001E+02 -0.45691E+04
 0.65853004E+02 -0.42476E+04
 0.65903000E+02 -0.39888E+04
 0.65953003E+02 -0.26624E+04
 0.66002998E+02 -0.20575E+04
 0.66053001E+02 -0.27838E+04
 0.66103004E+02 -0.45377E+04
 0.66153000E+02 -0.63326E+04
 0.66203003E+02 -0.69972E+04
 0.66252998E+02 -0.73382E+04
 0.66303001E+02 -0.67443E+04
 0.66353004E+02 -0.49943E+04
 0.66403000E+02 -0.27838E+04
 0.66453003E+02  0.35023E+02
 0.66502998E+02  0.98877E+03
 0.66553001E+02  0.95274E+03
 0.66603004E+02 -0.21341E+03
 0.66653000E+02 -0.16890E+04
 0.66703003E+02 -0.11845E+04
 0.66752998E+02 -0.61364E+03
 0.66803001E+02 -0.90452E+03
 0.66853004E+02 -0.16327E+04
 0.66903000E+02 -0.18760E+04
 0.66953003E+02 -0.11763E+04
 0.67002998E+02 -0.80031E+03
 0.67053001E+02 -0.25844E+04
 0.67103004E+02 -0.59429E+04
 0.67153000E+02 -0.78853E+04
 0.67203003E+02 -0.74327E+04
 0.67252998E+02 -0.61560E+04
 0.67303001E+02 -0.59277E+04
 0.67353004E+02 -0.65838E+04
 0.67403000E+02 -0.61579E+04
 0.67453003E+02 -0.51564E+04
 0.67502998E+02 -0.31309E+04
 0.67553001E+02 -0.67948E+03
 0.67603004E+02 -0.73065E+02
 0.67653000E+02 -0.13085E+04
 0.67703003E+02 -0.24241E+04
 0.67752998E+02 -0.26774E+04
 0.67803001E+02 -0.40524E+04
 0.67853004E+02 -0.62854E+04
 0.67903000E+02 -0.80361E+04
 0.67953003E+02 -0.80340E+04
 0.68002998E+02 -0.54754E+04
 0.68053001E+02 -0.27051E+04
 0.68103004E+02 -0.23668E+04
 0.68153000E+02 -0.33627E+04
 0.68203003E+02 -0.47671E+04
 0.68252998E+02 -0.49616E+04
 0.68303001E+02 -0.35537E+04
 0.68353004E+02 -0.21001E+04
 0.68403000E+02 -0.17161E+04
 0.68453003E+02 -0.21803E+04
 0.68502998E+02 -0.21535E+04
 0.68553001E+02 -0.97504E+03
 0.68603004E+02  0.22487E+03
 0.68653000E+02 -0.26602E+02
 0.68703003E+02 -0.74638E+03
 0.68752998E+02 -0.11491E+04
 0.68803001E+02 -0.11857E+04
 0.68853004E+02 -0.16518E+04
 0.68903000E+02 -0.23221E+04
 0.68953003E+02 -0.32501E+04
 0.69002998E+02 -0.46589E+04
 0.69053001E+02 -0.54043E+04
 0.69103004E+02 -0.60295E+04
 0.69153000E+02 -0.66014E+04
 0.69203003E+02 -0.70429E+04
 0.69252998E+02 -0.74374E+04
 0.69303001E+02 -0.64370E+04
 0.69353004E+02 -0.44835E+04
 0.69403000E+02 -0.26238E+04
 0.69453003E+02 -0.13629E+04
 0.69502998E+02 -0.14218E+04
 0.69553001E+02 -0.24962E+04
 0.69603004E+02 -0.25609E+04
 0.69653000E+02 -0.13954E+04
 0.69703003E+02  0.37972E+03
 0.69752998E+02  0.92788E+03
 0.69803001E+02 -0.11141E+04
 0.69853004E+02 -0.34623E+04
 0.69903000E+02 -0.43675E+04
 0.69953003E+02 -0.48380E+04
 0.70002998E+02 -0.51286E+04
 0.70053001E+02 -0.39151E+04
 0.70103004E+02 -0.23868E+04
 0.70153000E+02 -0.19978E+04
 0.70203003E+02 -0.29488E+04
 0.70252998E+02 -0.37406E+04
 0.70303001E+02 -0.35338E+04
 0.70353004E+02 -0.29232E+04
 0.70403000E+02 -0.29275E+04
 0.70453003E+02 -0.33661E+04
 0.70502998E+02 -0.39077E+04
 0.70553001E+02 -0.44565E+04
 0.70603004E+02 -0.49001E+04
 0.70653000E+02 -0.53803E+04
 0.70703003E+02 -0.52787E+04
 0.70752998E+02 -0.52418E+04
 0.70803001E+02 -0.44341E+04
 0.70853004E+02 -0.27556E+04
 0.70903000E+02 -0.11110E+04
 0.70953003E+02  0.18469E+03
 0.71002998E+02  0.97104E+02
 0.71053001E+02 -0.17597E+04
 0.71103004E+02 -0.39245E+04
 0.71153000E+02 -0.54070E+04
 0.71203003E+02 -0.61694E+04
 0.71252998E+02 -0.56889E+04
 0.71303001E+02 -0.50683E+04
 0.71353004E+02 -0.50590E+04
 0.71403000E+02 -0.52134E+04
 0.71453003E+02 -0.48578E+04
 0.71502998E+02 -0.36000E+04
 0.71553001E+02 -0.19990E+04
 0.71603004E+02 -0.83438E+02
 0.71653000E+02  0.78858E+03
 0.71703003E+02  0.25383E+03
 0.71752998E+02 -0.26685E+03
 0.71803001E+02 -0.11166E+04
 0.71853004E+02 -0.19571E+04
 0.71903000E+02 -0.28483E+04
 0.71953003E+02 -0.36983E+04
 0.72002998E+02 -0.37374E+04
 0.72053001E+02 -0.39675E+04
 0.72103004E+02 -0.46960E+04
 0.72153000E+02 -0.50104E+04
 0.72203003E+02 -0.59045E+04
 0.72252998E+02 -0.60217E+04
 0.72303001E+02 -0.43490E+04
 0.72353004E+02 -0.30570E+04
 0.72403000E+02 -0.24667E+04
 0.72453003E+02 -0.30110E+04
 0.72502998E+02 -0.33888E+04
 0.72553001E+02 -0.27201E+04
 0.72603004E+02 -0.22675E+04
 0.72653000E+02 -0.24414E+04
 0.72703003E+02 -0.30693E+04
 0.72752998E+02 -0.34807E+04
 0.72803001E+02 -0.36977E+04
 0.72853004E+02 -0.42231E+04
 0.72903000E+02 -0.45104E+04
 0.72953003E+02 -0.40515E+04
 0.73002998E+02 -0.32493E+04
 0.73053001E+02 -0.21929E+04
 0.73103004E+02 -0.13079E+04
 0.73153000E+02 -0.18422E+04
 0.73203003E+02 -0.36918E+04
 0.73252998E+02 -0.46135E+04
 0.73303001E+02 -0.38988E+04
 0.73353004E+02 -0.29351E+04
 0.73403000E+02 -0.24838E+04
 0.73453003E+02 -0.22441E+04
 0.73502998E+02 -0.20610E+04
 0.73553001E+02 -0.20760E+04
 0.73603004E+02 -0.20951E+04
 0.73653000E+02 -0.29148E+04
 0.73703003E+02 -0.44710E+04
 0.73752998E+02 -0.56944E+04
 0.73803001E+02 -0.64094E+04
 0.73853004E+02 -0.62568E+04
 0.73903000E+02 -0.59236E+04
 0.73953003E+02 -0.60048E+04
 0.74002998E+02 -0.56609E+04
 0.74053001E+02 -0.44624E+04
 0.74103004E+02 -0.29020E+04
 0.74153000E+02 -0.20366E+04
 0.74203003E+02 -0.14545E+04
 0.74252998E+02 -0.98288E+03
 0.74303001E+02 -0.10461E+04
 0.74353004E+02 -0.86356E+03
 0.74403000E+02 -0.65317E+03
 0.74453003E+02 -0.14718E+04
 0.74502998E+02 -0.21858E+04
 0.74553001E+02 -0.23778E+04
 0.74603004E+02 -0.30684E+04
 0.74653000E+02 -0.31810E+04
 0.74703003E+02 -0.27569E+04
 0.74752998E+02 -0.26581E+04
 0.74803001E+02 -0.22882E+04
 0.74853004E+02 -0.21437E+04
 0.74903000E+02 -0.32212E+04
 0.74953003E+02 -0.52998E+04
 0.75002998E+02 -0.59735E+04
 0.75053001E+02 -0.49342E+04
 0.75103004E+02 -0.35861E+04
 0.75153000E+02 -0.25770E+04
 0.75203003E+02 -0.29056E+04
 0.75252998E+02 -0.38099E+04
 0.75303001E+02 -0.45658E+04
 0.75353004E+02 -0.49378E+04
 0.75403000E+02 -0.52448E+04
 0.75453003E+02 -0.49278E+04
 0.75502998E+02 -0.39548E+04
 0.75553001E+02 -0.31214E+04
 0.75603004E+02 -0.32505E+04
 0.75653000E+02 -0.34955E+04
 0.75703003E+02 -0.34770E+04
 0.75752998E+02 -0.41268E+04
 0.75803001E+02 -0.45444E+04
 0.75853004E+02 -0.46531E+04
 0.75903000E+02 -0.45213E+04
 0.75953003E+02 -0.35965E+04
 0.76002998E+02 -0.21835E+04
 0.76053001E+02 -0.18562E+04
 0.76103004E+02 -0.21150E+04
 0.76153000E+02 -0.22440E+04
 0.76203003E+02 -0.23765E+04
 0.76252998E+02 -0.23905E+04
 0.76303001E+02 -0.21865E+04
 0.76353004E+02 -0.26355E+04
 0.76403000E+02 -0.28026E+04
 0.76453003E+02 -0.22822E+04
 0.76502998E+02 -0.23412E+04
 0.76553001E+02 -0.20319E+04
 0.76603004E+02 -0.17061E+04
 0.76653000E+02 -0.17391E+04
 0.76703003E+02 -0.18807E+04
 0.76752998E+02 -0.22404E+04
 0.76803001E+02 -0.28129E+04
 0.76853004E+02 -0.31299E+04
 0.76903000E+02 -0.34541E+04
 0.76953003E+02 -0.41618E+04
 0.77002998E+02 -0.53808E+04
 0.77053001E+02 -0.56191E+04
 0.77103004E+02 -0.43428E+04
 0.77153000E+02 -0.34707E+04
 0.77203003E+02 -0.23788E+04
 0.77252998E+02 -0.15659E+04
 0.77303001E+02 -0.17991E+04
 0.77353004E+02 -0.23464E+04
 0.77403000E+02 -0.36921E+04
 0.77453003E+02 -0.51680E+04
 0.77502998E+02 -0.54008E+04
 0.77553001E+02 -0.48759E+04
 0.77603004E+02 -0.45129E+04
 0.77653000E+02 -0.44128E+04
 0.77703003E+02 -0.40783E+04
 0.77752998E+02 -0.37010E+04
 0.77803001E+02 -0.40554E+04
 0.77853004E+02 -0.39455E+04
 0.77903000E+02 -0.35875E+04
 0.77953003E+02 -0.37395E+04
 0.78002998E+02 -0.38484E+04
 0.78053001E+02 -0.40848E+04
 0.78103004E+02 -0.41347E+04
 0.78153000E+02 -0.41017E+04
 0.78203003E+02 -0.36149E+04
 0.78252998E+02 -0.25206E+04
 0.78303001E+02 -0.17694E+04
 0.78353004E+02 -0.20814E+04
 0.78403000E+02 -0.30198E+04
 0.78453003E+02 -0.27291E+04
 0.78502998E+02 -0.13745E+04
 0.78553001E+02 -0.91175E+03
 0.78603004E+02 -0.10410E+04
 0.78653000E+02 -0.11648E+04
 0.78703003E+02 -0.23268E+04
 0.78752998E+02 -0.38810E+04
 0.78803001E+02 -0.45045E+04
 0.78853004E+02 -0.46219E+04
 0.78903000E+02 -0.42147E+04
 0.78953003E+02 -0.39801E+04
 0.79002998E+02 -0.44539E+04
 0.79053001E+02 -0.44730E+04
 0.79103004E+02 -0.43885E+04
 0.79153000E+02 -0.47273E+04
 0.79203003E+02 -0.51941E+04
 0.79252998E+02 -0.55899E+04
 0.79303001E+02 -0.48299E+04
 0.79353004E+02 -0.34094E+04
 0.79403000E+02 -0.23692E+04
 0.79453003E+02 -0.15029E+04
 0.79502998E+02 -0.15003E+04
 0.79553001E+02 -0.19363E+04
 0.79603004E+02 -0.25075E+04
 0.79653000E+02 -0.31076E+04
 0.79703003E+02 -0.31258E+04
 0.79752998E+02 -0.23579E+04
 0.79803001E+02 -0.20687E+04
 0.79853004E+02 -0.27249E+04
 0.79903000E+02 -0.29465E+04
 0.79953003E+02 -0.33555E+04
 0.80002998E+02 -0.39198E+04
 0.80053001E+02 -0.45730E+04
 0.80103004E+02 -0.48837E+04
 0.80153000E+02 -0.43792E+04
 0.80203003E+02 -0.37962E+04
 0.80252998E+02 -0.33690E+04
 0.80303001E+02 -0.30435E+04
 0.80353004E+02 -0.26190E+04
 0.80403000E+02 -0.22804E+04
 0.80453003E+02 -0.23849E+04
 0.80502998E+02 -0.28296E+04
 0.80553001E+02 -0.32254E+04
 0.80603004E+02 -0.30853E+04
 0.80653000E+02 -0.22847E+04
 0.80703003E+02 -0.15984E+04
 0.80752998E+02 -0.15326E+04
 0.80803001E+02 -0.18444E+04
 0.80853004E+02 -0.24498E+04
 0.80903000E+02 -0.33794E+04
 0.80953003E+02 -0.39666E+04
 0.81002998E+02 -0.43643E+04
 0.81053001E+02 -0.47415E+04
 0.81103004E+02 -0.48210E+04
 0.81153000E+02 -0.47168E+04
 0.81203003E+02 -0.45883E+04
 0.81252998E+02 -0.43957E+04
 0.81303001E+02 -0.40309E+04
 0.81353004E+02 -0.35810E+04
 0.81403000E+02 -0.29774E+04
 0.81453003E+02 -0.24847E+04
 0.81502998E+02 -0.24268E+04
 0.81553001E+02 -0.25778E+04
 0.81603004E+02 -0.24441E+04
 0.81653000E+02 -0.26965E+04
 0.81703003E+02 -0.32754E+04
 0.81752998E+02 -0.36634E+04
 0.81803001E+02 -0.38036E+04
 0.81853004E+02 -0.38280E+04
 0.81903000E+02 -0.37597E+04
 0.81953003E+02 -0.34619E+04
 0.82002998E+02 -0.36685E+04
 0.82053001E+02 -0.41458E+04
 0.82103004E+02 -0.45707E+04
 0.82153000E+02 -0.51037E+04
 0.82203003E+02 -0.51496E+04
 0.82252998E+02 -0.45574E+04
 0.82303001E+02 -0.38321E+04
 0.82353004E+02 -0.30858E+04
 0.82403000E+02 -0.23700E+04
 0.82453003E+02 -0.19183E+04
 0.82502998E+02 -0.21065E+04
 0.82553001E+02 -0.24229E+04
 0.82603004E+02 -0.25671E+04
 0.82653000E+02 -0.28191E+04
 0.82703003E+02 -0.32377E+04
 0.82752998E+02 -0.36753E+04
 0.82803001E+02 -0.38897E+04
 0.82853004E+02 -0.37413E+04
 0.82903000E+02 -0.30002E+04
 0.82953003E+02 -0.21622E+04
 0.83002998E+02 -0.15943E+04
 0.83053001E+02 -0.13092E+04
 0.83103004E+02 -0.17655E+04
 0.83153000E+02 -0.23946E+04
 0.83203003E+02 -0.29331E+04
 0.83252998E+02 -0.38829E+04
 0.83303001E+02 -0.44079E+04
 0.83353004E+02 -0.46715E+04
 0.83403000E+02 -0.47359E+04
 0.83453003E+02 -0.42667E+04
 0.83502998E+02 -0.39179E+04
 0.83553001E+02 -0.34961E+04
 0.83603004E+02 -0.28875E+04
 0.83653000E+02 -0.23741E+04
 0.83703003E+02 -0.21216E+04
 0.83752998E+02 -0.19139E+04
 0.83803001E+02 -0.20237E+04
 0.83853004E+02 -0.22729E+04
 0.83903000E+02 -0.26019E+04
 0.83953003E+02 -0.34641E+04
 0.84002998E+02 -0.40414E+04
 0.84053001E+02 -0.40339E+04
 0.84103004E+02 -0.38520E+04
 0.84153000E+02 -0.38131E+04
 0.84203003E+02 -0.36846E+04
 0.84252998E+02 -0.35192E+04
 0.84303001E+02 -0.34395E+04
 0.84353004E+02 -0.28981E+04
 0.84403000E+02 -0.26949E+04
 0.84453003E+02 -0.34409E+04
 0.84502998E+02 -0.41950E+04
 0.84553001E+02 -0.41236E+04
 0.84603004E+02 -0.31146E+04
 0.84653000E+02 -0.26977E+04
 0.84703003E+02 -0.31971E+04
 0.84752998E+02 -0.32279E+04
 0.84803001E+02 -0.30030E+04
 0.84853004E+02 -0.32042E+04
 0.84903000E+02 -0.31780E+04
 0.84953003E+02 -0.25950E+04
 0.85002998E+02 -0.18604E+04
 0.85053001E+02 -0.21854E+04
 0.85103004E+02 -0.35152E+04
 0.85153000E+02 -0.41855E+04
 0.85203003E+02 -0.44430E+04
 0.85252998E+02 -0.46946E+04
 0.85303001E+02 -0.46259E+04
 0.85353004E+02 -0.45261E+04
 0.85403000E+02 -0.41669E+04
 0.85453003E+02 -0.32666E+04
 0.85502998E+02 -0.30327E+04
 0.85553001E+02 -0.36555E+04
 0.85603004E+02 -0.43475E+04
 0.85653000E+02 -0.43124E+04
 0.85703003E+02 -0.36816E+04
 0.85752998E+02 -0.28869E+04
 0.85803001E+02 -0.26541E+04
 0.85853004E+02 -0.32411E+04
 0.85903000E+02 -0.33926E+04
 0.85953003E+02 -0.33114E+04
 0.86002998E+02 -0.31313E+04
 0.86053001E+02 -0.26502E+04
 0.86103004E+02 -0.21354E+04
 0.86153000E+02 -0.20975E+04
 0.86203003E+02 -0.23440E+04
 0.86252998E+02 -0.23966E+04
 0.86303001E+02 -0.24077E+04
 0.86353004E+02 -0.27629E+04
 0.86403000E+02 -0.31654E+04
 0.86453003E+02 -0.28993E+04
 0.86502998E+02 -0.24684E+04
 0.86553001E+02 -0.26270E+04
 0.86603004E+02 -0.28991E+04
 0.86653000E+02 -0.29542E+04
 0.86703003E+02 -0.32671E+04
 0.86752998E+02 -0.38261E+04
 0.86803001E+02 -0.43992E+04
 0.86853004E+02 -0.46484E+04
 0.86903000E+02 -0.42850E+04
 0.86953003E+02 -0.36570E+04
 0.87002998E+02 -0.38591E+04
 0.87053001E+02 -0.45606E+04
 0.87103004E+02 -0.47133E+04
 0.87153000E+02 -0.41695E+04
 0.87203003E+02 -0.34850E+04
 0.87252998E+02 -0.33252E+04
 0.87303001E+02 -0.33323E+04
 0.87353004E+02 -0.31427E+04
 0.87403000E+02 -0.32507E+04
 0.87453003E+02 -0.33625E+04
 0.87502998E+02 -0.31991E+04
 0.87553001E+02 -0.33325E+04
 0.87602997E+02 -0.35155E+04
 0.87653000E+02 -0.40795E+04
 0.87703003E+02 -0.46242E+04
 0.87752998E+02 -0.38748E+04
 0.87803001E+02 -0.25492E+04
 0.87852997E+02 -0.19551E+04
 0.87903000E+02 -0.20523E+04
 0.87953003E+02 -0.25057E+04
 0.88002998E+02 -0.30524E+04
 0.88053001E+02 -0.35730E+04
 0.88102997E+02 -0.44548E+04
 0.88153000E+02 -0.48042E+04
 0.88203003E+02 -0.40642E+04
 0.88252998E+02 -0.30045E+04
 0.88303001E+02 -0.26318E+04
 0.88352997E+02 -0.27149E+04
 0.88403000E+02 -0.26241E+04
 0.88453003E+02 -0.24151E+04
 0.88502998E+02 -0.20421E+04
 0.88553001E+02 -0.20815E+04
 0.88602997E+02 -0.25018E+04
 0.88653000E+02 -0.28041E+04
 0.88703003E+02 -0.29141E+04
 0.88752998E+02 -0.27864E+04
 0.88803001E+02 -0.25985E+04
 0.88852997E+02 -0.26897E+04
 0.88903000E+02 -0.27848E+04
 0.88953003E+02 -0.26953E+04
 0.89002998E+02 -0.27976E+04
 0.89053001E+02 -0.29529E+04
 0.89102997E+02 -0.28209E+04
 0.89153000E+02 -0.26586E+04
 0.89203003E+02 -0.26409E+04
 0.89252998E+02 -0.27927E+04
 0.89303001E+02 -0.30597E+04
 0.89352997E+02 -0.34308E+04
 0.89403000E+02 -0.34636E+04
 0.89453003E+02 -0.33721E+04
 0.89502998E+02 -0.38430E+04
 0.89553001E+02 -0.45574E+04
 0.89602997E+02 -0.50856E+04
 0.89653000E+02 -0.49280E+04
 0.89703003E+02 -0.43627E+04
 0.89752998E+02 -0.37524E+04
 0.89803001E+02 -0.34311E+04
 0.89852997E+02 -0.37364E+04
 0.89903000E+02 -0.40461E+04
 0.89953003E+02 -0.43395E+04
 0.90002998E+02 -0.49704E+04
 0.90053001E+02 -0.51370E+04
 0.90102997E+02 -0.45651E+04
 0.90153000E+02 -0.36039E+04
 0.90203003E+02 -0.26700E+04
 0.90252998E+02 -0.22939E+04
 0.90303001E+02 -0.23046E+04
 0.90352997E+02 -0.26186E+04
 0.90403000E+02 -0.28986E+04
 0.90453003E+02 -0.31443E+04
 0.90502998E+02 -0.31758E+04
 0.90553001E+02 -0.25542E+04
 0.90602997E+02 -0.17946E+04
 0.90653000E+02 -0.12795E+04
 0.90703003E+02 -0.15197E+04
 0.90752998E+02 -0.21313E+04
 0.90803001E+02 -0.26036E+04
 0.90852997E+02 -0.32678E+04
 0.90903000E+02 -0.41055E+04
 0.90953003E+02 -0.46287E+04
 0.91002998E+02 -0.47134E+04
 0.91053001E+02 -0.44095E+04
 0.91102997E+02 -0.39191E+04
 0.91153000E+02 -0.35816E+04
 0.91203003E+02 -0.33168E+04
 0.91252998E+02 -0.33635E+04
 0.91303001E+02 -0.34667E+04
 0.91352997E+02 -0.36729E+04
 0.91403000E+02 -0.37060E+04
 0.91453003E+02 -0.35961E+04
 0.91502998E+02 -0.35257E+04
 0.91553001E+02 -0.31362E+04
 0.91602997E+02 -0.25902E+04
 0.91653000E+02 -0.24479E+04
 0.91703003E+02 -0.27548E+04
 0.91752998E+02 -0.32726E+04
 0.91803001E+02 -0.39319E+04
 0.91852997E+02 -0.41443E+04
 0.91903000E+02 -0.39200E+04
 0.91953003E+02 -0.34951E+04
 0.92002998E+02 -0.33166E+04
 0.92053001E+02 -0.33490E+04
 0.92102997E+02 -0.35493E+04
 0.92153000E+02 -0.38957E+04
 0.92203003E+02 -0.42169E+04
 0.92252998E+02 -0.44297E+04
 0.92303001E+02 -0.42896E+04
 0.92352997E+02 -0.36862E+04
 0.92403000E+02 -0.31518E+04
 0.92453003E+02 -0.29464E+04
 0.92502998E+02 -0.27696E+04
 0.92553001E+02 -0.28300E+04
 0.92602997E+02 -0.28619E+04
 0.92653000E+02 -0.27873E+04
 0.92703003E+02 -0.28443E+04
 0.92752998E+02 -0.28486E+04
 0.92803001E+02 -0.28694E+04
 0.92852997E+02 -0.32480E+04
 0.92903000E+02 -0.39174E+04
 0.92953003E+02 -0.43428E+04
 0.93002998E+02 -0.41019E+04
 0.93053001E+02 -0.31732E+04
 0.93102997E+02 -0.22571E+04
 0.93153000E+02 -0.18838E+04
 0.93203003E+02 -0.20271E+04
 0.93252998E+02 -0.24576E+04
 0.93303001E+02 -0.29534E+04
 0.93352997E+02 -0.35524E+04
 0.93403000E+02 -0.37350E+04
 0.93453003E+02 -0.34627E+04
 0.93502998E+02 -0.28870E+04
 0.93553001E+02 -0.24300E+04
 0.93602997E+02 -0.25754E+04
 0.93653000E+02 -0.30460E+04
 0.93703003E+02 -0.33577E+04
 0.93752998E+02 -0.34725E+04
 0.93803001E+02 -0.38276E+04
 0.93852997E+02 -0.38623E+04
 0.93903000E+02 -0.37009E+04
 0.93953003E+02 -0.38094E+04
 0.94002998E+02 -0.37208E+04
 0.94053001E+02 -0.34307E+04
 0.94102997E+02 -0.32061E+04
 0.94153000E+02 -0.29429E+04
 0.94203003E+02 -0.25312E+04
 0.94252998E+02 -0.24113E+04
 0.94303001E+02 -0.23486E+04
 0.94352997E+02 -0.22311E+04
 0.94403000E+02 -0.24925E+04
 0.94453003E+02 -0.30044E+04
 0.94502998E+02 -0.35697E+04
 0.94553001E+02 -0.36797E+04
 0.94602997E+02 -0.34886E+04
 0.94653000E+02 -0.33867E+04
 0.94703003E+02 -0.32425E+04
 0.94752998E+02 -0.33036E+04
 0.94803001E+02 -0.35924E+04
 0.94852997E+02 -0.37314E+04
 0.94903000E+02 -0.36906E+04
 0.94953003E+02 -0.35530E+04
 0.95002998E+02 -0.35070E+04
 0.95053001E+02 -0.38234E+04
 0.95102997E+02 -0.40712E+04
 0.95153000E+02 -0.42495E+04
 0.95203003E+02 -0.45256E+04
 0.95252998E+02 -0.45573E+04
 0.95303001E+02 -0.42088E+04
 0.95352997E+02 -0.37079E+04
 0.95403000E+02 -0.34348E+04
 0.95453003E+02 -0.34331E+04
 0.95502998E+02 -0.36391E+04
 0.95553001E+02 -0.39056E+04
 0.95602997E+02 -0.38641E+04
 0.95653000E+02 -0.35914E+04
 0.95703003E+02 -0.33546E+04
 0.95752998E+02 -0.32307E+04
 0.95803001E+02 -0.29929E+04
 0.95852997E+02 -0.23620E+04
 0.95903000E+02 -0.18790E+04
 0.95953003E+02 -0.19084E+04
 0.96002998E+02 -0.21749E+04
 0.96053001E+02 -0.24713E+04
 0.96102997E+02 -0.26322E+04
 0.96153000E+02 -0.25649E+04
 0.96203003E+02 -0.25009E+04
 0.96252998E+02 -0.26894E+04
 0.96303001E+02 -0.31105E+04
 0.96352997E+02 -0.35490E+04
 0.96403000E+02 -0.39727E+04
 0.96453003E+02 -0.42693E+04
 0.96502998E+02 -0.43630E+04
 0.96553001E+02 -0.40600E+04
 0.96602997E+02 -0.35047E+04
 0.96653000E+02 -0.31539E+04
 0.96703003E+02 -0.30337E+04
 0.96752998E+02 -0.30630E+04
 0.96803001E+02 -0.30914E+04
 0.96852997E+02 -0.31515E+04
 0.96903000E+02 -0.28830E+04
 0.96953003E+02 -0.25899E+04
 0.97002998E+02 -0.28270E+04
 0.97053001E+02 -0.34290E+04
 0.97102997E+02 -0.38177E+04
 0.97153000E+02 -0.38964E+04
 0.97203003E+02 -0.38767E+04
 0.97252998E+02 -0.37873E+04
 0.97303001E+02 -0.36127E+04
 0.97352997E+02 -0.31269E+04
 0.97403000E+02 -0.28064E+04
 0.97453003E+02 -0.29097E+04
 0.97502998E+02 -0.31411E+04
 0.97553001E+02 -0.31707E+04
 0.97602997E+02 -0.29034E+04
 0.97653000E+02 -0.25938E+04
 0.97703003E+02 -0.24880E+04
 0.97752998E+02 -0.27390E+04
 0.97803001E+02 -0.33118E+04
 0.97852997E+02 -0.40069E+04
 0.97903000E+02 -0.43914E+04
 0.97953003E+02 -0.40783E+04
 0.98002998E+02 -0.34762E+04
