-0.20000000E+01  0.29320E+04
-0.19500000E+01  0.29142E+04
-0.19000000E+01  0.29255E+04
-0.18500000E+01  0.29233E+04
-0.18000000E+01  0.29292E+04
-0.17500000E+01  0.29356E+04
-0.17000000E+01  0.29340E+04
-0.16500001E+01  0.29371E+04
-0.16000000E+01  0.29365E+04
-0.15500000E+01  0.29356E+04
-0.15000000E+01  0.29381E+04
-0.14500000E+01  0.29401E+04
-0.14000001E+01  0.29403E+04
-0.13500000E+01  0.29379E+04
-0.13000001E+01  0.29322E+04
-0.12500000E+01  0.29327E+04
-0.12000000E+01  0.29486E+04
-0.11500001E+01  0.29528E+04
-0.11000000E+01  0.29474E+04
-0.10500001E+01  0.29420E+04
-0.10000000E+01  0.29320E+04
-0.95000005E+00  0.29247E+04
-0.90000010E+00  0.29251E+04
-0.85000002E+00  0.29242E+04
-0.80000007E+00  0.29256E+04
-0.75000012E+00  0.29283E+04
-0.70000005E+00  0.29245E+04
-0.65000010E+00  0.29303E+04
-0.60000014E+00  0.29185E+04
-0.55000007E+00  0.29101E+04
-0.50000012E+00  0.29120E+04
-0.45000005E+00  0.29151E+04
-0.40000010E+00  0.29193E+04
-0.35000014E+00  0.29289E+04
-0.30000007E+00  0.29397E+04
-0.25000012E+00  0.29357E+04
-0.20000005E+00  0.29291E+04
-0.15000010E+00  0.29299E+04
-0.10000014E+00  0.29357E+04
-0.50000072E-01  0.29339E+04
-0.11920929E-06  0.29334E+04
 0.49999952E-01  0.29396E+04
 0.99999905E-01  0.29445E+04
 0.14999986E+00  0.29469E+04
 0.19999981E+00  0.29480E+04
 0.24999976E+00  0.29454E+04
 0.29999995E+00  0.29441E+04
 0.34999990E+00  0.29420E+04
 0.39999986E+00  0.29357E+04
 0.44999981E+00  0.29283E+04
 0.49999976E+00  0.29252E+04
 0.54999995E+00  0.29180E+04
 0.59999990E+00  0.29199E+04
 0.64999986E+00  0.29214E+04
 0.69999981E+00  0.29222E+04
 0.74999976E+00  0.29178E+04
 0.79999971E+00  0.29226E+04
 0.84999990E+00  0.29231E+04
 0.89999986E+00  0.29283E+04
 0.94999981E+00  0.29352E+04
 0.99999976E+00  0.29351E+04
 0.10499997E+01  0.29454E+04
 0.10999999E+01  0.29400E+04
 0.11499999E+01  0.29430E+04
 0.11999998E+01  0.29444E+04
 0.12499998E+01  0.29408E+04
 0.12999997E+01  0.29394E+04
 0.13499999E+01  0.29428E+04
 0.13999999E+01  0.29476E+04
 0.14499998E+01  0.29550E+04
 0.14999998E+01  0.29618E+04
 0.15499997E+01  0.29579E+04
 0.15999999E+01  0.29525E+04
 0.16499999E+01  0.29497E+04
 0.16999998E+01  0.29472E+04
 0.17499998E+01  0.29557E+04
 0.17999997E+01  0.29615E+04
 0.18499997E+01  0.29531E+04
 0.18999999E+01  0.29442E+04
 0.19499998E+01  0.29383E+04
 0.19999998E+01  0.29434E+04
 0.20499997E+01  0.29434E+04
 0.20999999E+01  0.29459E+04
 0.21499996E+01  0.29462E+04
 0.21999998E+01  0.29404E+04
 0.22499995E+01  0.29429E+04
 0.22999997E+01  0.29414E+04
 0.23499999E+01  0.29303E+04
 0.23999996E+01  0.29268E+04
 0.24499998E+01  0.29241E+04
 0.24999995E+01  0.29167E+04
 0.25499997E+01  0.29251E+04
 0.25999999E+01  0.29244E+04
 0.26499996E+01  0.29192E+04
 0.26999998E+01  0.29188E+04
 0.27499995E+01  0.29179E+04
 0.27999997E+01  0.29305E+04
 0.28499999E+01  0.29430E+04
 0.28999996E+01  0.29524E+04
 0.29499998E+01  0.29489E+04
 0.29999995E+01  0.29452E+04
 0.30499997E+01  0.29393E+04
 0.30999999E+01  0.29351E+04
 0.31499996E+01  0.29358E+04
 0.31999998E+01  0.29292E+04
 0.32499995E+01  0.29263E+04
 0.32999997E+01  0.29183E+04
 0.33499999E+01  0.29173E+04
 0.33999996E+01  0.29168E+04
 0.34499998E+01  0.29112E+04
 0.34999995E+01  0.29021E+04
 0.35499997E+01  0.29080E+04
 0.35999994E+01  0.29168E+04
 0.36499996E+01  0.29187E+04
 0.36999998E+01  0.29184E+04
 0.37499995E+01  0.29204E+04
 0.37999997E+01  0.29289E+04
 0.38499994E+01  0.29207E+04
 0.38999996E+01  0.29261E+04
 0.39499998E+01  0.29338E+04
 0.39999995E+01  0.29362E+04
 0.40499997E+01  0.29307E+04
 0.40999994E+01  0.29268E+04
 0.41499996E+01  0.29316E+04
 0.41999998E+01  0.29347E+04
 0.42499995E+01  0.29429E+04
 0.42999997E+01  0.29383E+04
 0.43499994E+01  0.29310E+04
 0.43999996E+01  0.29317E+04
 0.44499998E+01  0.29339E+04
 0.44999995E+01  0.29373E+04
 0.45499997E+01  0.29391E+04
 0.45999994E+01  0.29420E+04
 0.46499996E+01  0.29456E+04
 0.46999998E+01  0.29406E+04
 0.47499995E+01  0.29405E+04
 0.47999997E+01  0.29431E+04
 0.48499994E+01  0.29384E+04
 0.48999996E+01  0.29415E+04
 0.49499998E+01  0.29396E+04
 0.49999995E+01  0.29437E+04
 0.50499997E+01  0.29449E+04
 0.50999994E+01  0.29391E+04
 0.51499996E+01  0.29414E+04
 0.51999998E+01  0.29381E+04
 0.52499995E+01  0.29377E+04
 0.52999997E+01  0.29376E+04
 0.53499994E+01  0.29286E+04
 0.53999996E+01  0.29284E+04
 0.54499993E+01  0.29335E+04
 0.54999995E+01  0.29312E+04
 0.55499997E+01  0.29334E+04
 0.55999994E+01  0.29390E+04
 0.56499996E+01  0.29356E+04
 0.56999993E+01  0.29310E+04
 0.57499995E+01  0.29387E+04
 0.57999997E+01  0.29305E+04
 0.58499994E+01  0.29261E+04
 0.58999996E+01  0.29242E+04
 0.59499993E+01  0.29217E+04
 0.59999995E+01  0.29194E+04
 0.60499992E+01  0.29184E+04
 0.60999994E+01  0.29179E+04
 0.61499996E+01  0.29188E+04
 0.61999998E+01  0.29281E+04
 0.62499990E+01  0.29266E+04
 0.62999992E+01  0.29288E+04
 0.63499994E+01  0.29280E+04
 0.63999996E+01  0.29319E+04
 0.64499998E+01  0.29354E+04
 0.64999990E+01  0.29391E+04
 0.65499992E+01  0.29420E+04
 0.65999994E+01  0.29474E+04
 0.66499996E+01  0.29470E+04
 0.66999998E+01  0.29451E+04
 0.67499990E+01  0.29470E+04
 0.67999992E+01  0.29428E+04
 0.68499994E+01  0.29368E+04
 0.68999996E+01  0.29300E+04
 0.69499998E+01  0.29292E+04
 0.69999990E+01  0.29235E+04
 0.70499992E+01  0.29247E+04
 0.70999994E+01  0.29324E+04
 0.71499996E+01  0.29337E+04
 0.71999998E+01  0.29329E+04
 0.72499990E+01  0.29397E+04
 0.72999992E+01  0.29454E+04
 0.73499994E+01  0.29401E+04
 0.73999996E+01  0.29342E+04
 0.74499998E+01  0.29256E+04
 0.74999990E+01  0.29255E+04
 0.75499992E+01  0.29310E+04
 0.75999994E+01  0.29284E+04
 0.76499996E+01  0.29297E+04
 0.76999998E+01  0.29265E+04
 0.77499990E+01  0.29337E+04
 0.77999992E+01  0.29393E+04
 0.78499994E+01  0.29427E+04
 0.78999996E+01  0.29465E+04
 0.79499998E+01  0.29425E+04
 0.79999990E+01  0.29395E+04
 0.80499992E+01  0.29325E+04
 0.80999994E+01  0.29304E+04
 0.81499996E+01  0.29312E+04
 0.81999998E+01  0.29297E+04
 0.82499990E+01  0.29313E+04
 0.82999992E+01  0.29286E+04
 0.83499994E+01  0.29259E+04
 0.83999996E+01  0.29312E+04
 0.84499998E+01  0.29248E+04
 0.84999990E+01  0.29244E+04
 0.85499992E+01  0.29300E+04
 0.85999994E+01  0.29284E+04
 0.86499996E+01  0.29224E+04
 0.86999998E+01  0.29260E+04
 0.87499990E+01  0.29262E+04
 0.87999992E+01  0.29156E+04
 0.88499994E+01  0.29199E+04
 0.88999996E+01  0.29226E+04
 0.89499998E+01  0.29263E+04
 0.89999990E+01  0.29286E+04
 0.90499992E+01  0.29307E+04
 0.90999994E+01  0.29318E+04
 0.91499996E+01  0.29296E+04
 0.91999989E+01  0.29256E+04
 0.92499990E+01  0.29253E+04
 0.92999992E+01  0.29337E+04
 0.93499994E+01  0.29405E+04
 0.93999996E+01  0.29424E+04
 0.94499989E+01  0.29386E+04
 0.94999990E+01  0.29409E+04
 0.95499992E+01  0.29394E+04
 0.95999994E+01  0.29352E+04
 0.96499996E+01  0.29328E+04
 0.96999989E+01  0.29321E+04
 0.97499990E+01  0.29369E+04
 0.97999992E+01  0.29409E+04
 0.98499994E+01  0.29438E+04
 0.98999996E+01  0.29406E+04
 0.99499989E+01  0.29391E+04
 0.99999990E+01  0.29312E+04
 0.10049999E+02  0.29211E+04
 0.10099999E+02  0.29278E+04
 0.10150000E+02  0.29237E+04
 0.10199999E+02  0.29222E+04
 0.10249999E+02  0.29291E+04
 0.10299999E+02  0.29300E+04
 0.10349999E+02  0.29364E+04
 0.10400000E+02  0.29334E+04
 0.10449999E+02  0.29299E+04
 0.10499999E+02  0.29320E+04
 0.10549999E+02  0.29344E+04
 0.10599999E+02  0.29336E+04
 0.10650000E+02  0.29300E+04
 0.10699999E+02  0.29291E+04
 0.10749999E+02  0.29224E+04
 0.10799999E+02  0.29264E+04
 0.10849999E+02  0.29250E+04
 0.10900000E+02  0.29273E+04
 0.10949999E+02  0.29293E+04
 0.10999999E+02  0.29301E+04
 0.11049999E+02  0.29349E+04
 0.11099999E+02  0.29307E+04
 0.11150000E+02  0.29343E+04
 0.11199999E+02  0.29315E+04
 0.11249999E+02  0.29319E+04
 0.11299999E+02  0.29341E+04
 0.11349999E+02  0.29414E+04
 0.11400000E+02  0.29482E+04
 0.11449999E+02  0.29515E+04
 0.11499999E+02  0.29526E+04
 0.11549999E+02  0.29491E+04
 0.11599999E+02  0.29507E+04
 0.11650000E+02  0.29492E+04
 0.11699999E+02  0.29400E+04
 0.11749999E+02  0.29338E+04
 0.11799999E+02  0.29332E+04
 0.11849999E+02  0.29343E+04
 0.11900000E+02  0.29354E+04
 0.11949999E+02  0.29402E+04
 0.11999999E+02  0.29414E+04
 0.12049999E+02  0.29441E+04
 0.12099999E+02  0.29368E+04
 0.12150000E+02  0.29325E+04
 0.12199999E+02  0.29405E+04
 0.12249999E+02  0.29365E+04
 0.12299999E+02  0.29349E+04
 0.12349999E+02  0.29351E+04
 0.12400000E+02  0.29381E+04
 0.12449999E+02  0.29373E+04
 0.12499999E+02  0.29369E+04
 0.12549999E+02  0.29275E+04
 0.12599999E+02  0.29208E+04
 0.12649999E+02  0.29200E+04
 0.12699999E+02  0.29164E+04
 0.12749999E+02  0.29227E+04
 0.12799999E+02  0.29232E+04
 0.12849999E+02  0.29289E+04
 0.12899999E+02  0.29334E+04
 0.12949999E+02  0.29373E+04
 0.12999999E+02  0.29454E+04
 0.13049999E+02  0.29464E+04
 0.13099999E+02  0.29395E+04
 0.13149999E+02  0.29372E+04
 0.13199999E+02  0.29424E+04
 0.13249999E+02  0.29383E+04
 0.13299999E+02  0.29420E+04
 0.13349999E+02  0.29386E+04
 0.13399999E+02  0.29275E+04
 0.13449999E+02  0.29312E+04
 0.13499999E+02  0.29257E+04
 0.13549999E+02  0.29193E+04
 0.13599999E+02  0.29137E+04
 0.13649999E+02  0.29097E+04
 0.13699999E+02  0.29138E+04
 0.13749999E+02  0.29084E+04
 0.13799999E+02  0.29094E+04
 0.13849999E+02  0.29176E+04
 0.13899999E+02  0.29221E+04
 0.13949999E+02  0.29236E+04
 0.13999999E+02  0.29283E+04
 0.14049999E+02  0.29323E+04
 0.14099998E+02  0.29278E+04
 0.14150000E+02  0.29206E+04
 0.14199999E+02  0.29249E+04
 0.14249998E+02  0.29309E+04
 0.14299999E+02  0.29320E+04
 0.14349998E+02  0.29326E+04
 0.14400000E+02  0.29344E+04
 0.14449999E+02  0.29408E+04
 0.14499998E+02  0.29414E+04
 0.14549999E+02  0.29337E+04
 0.14599998E+02  0.29263E+04
 0.14650000E+02  0.29225E+04
 0.14699999E+02  0.29206E+04
 0.14749998E+02  0.29269E+04
 0.14799999E+02  0.29339E+04
 0.14849998E+02  0.29375E+04
 0.14900000E+02  0.29331E+04
 0.14949999E+02  0.29326E+04
 0.14999998E+02  0.29335E+04
 0.15049999E+02  0.29242E+04
 0.15099998E+02  0.29311E+04
 0.15150000E+02  0.29383E+04
 0.15199999E+02  0.29433E+04
 0.15249998E+02  0.29500E+04
 0.15299999E+02  0.29566E+04
 0.15349998E+02  0.29566E+04
 0.15400000E+02  0.29547E+04
 0.15449999E+02  0.29566E+04
 0.15499998E+02  0.29494E+04
 0.15549999E+02  0.29487E+04
 0.15599998E+02  0.29402E+04
 0.15650000E+02  0.29358E+04
 0.15699999E+02  0.29362E+04
 0.15749998E+02  0.29313E+04
 0.15799999E+02  0.29295E+04
 0.15849998E+02  0.29301E+04
 0.15900000E+02  0.29280E+04
 0.15949999E+02  0.29191E+04
 0.15999998E+02  0.29156E+04
 0.16049999E+02  0.29215E+04
 0.16099998E+02  0.29214E+04
 0.16150000E+02  0.29197E+04
 0.16199999E+02  0.29243E+04
 0.16249998E+02  0.29279E+04
 0.16299999E+02  0.29314E+04
 0.16349998E+02  0.29315E+04
 0.16400000E+02  0.29277E+04
 0.16449999E+02  0.29283E+04
 0.16499998E+02  0.29257E+04
 0.16549999E+02  0.29314E+04
 0.16599998E+02  0.29325E+04
 0.16650000E+02  0.29262E+04
 0.16699999E+02  0.29309E+04
 0.16749998E+02  0.29289E+04
 0.16799999E+02  0.29345E+04
 0.16849998E+02  0.29306E+04
 0.16900000E+02  0.29310E+04
 0.16949999E+02  0.29329E+04
 0.16999998E+02  0.29254E+04
 0.17049999E+02  0.29336E+04
 0.17099998E+02  0.29355E+04
 0.17150000E+02  0.29326E+04
 0.17199999E+02  0.29271E+04
 0.17249998E+02  0.29291E+04
 0.17299999E+02  0.29374E+04
 0.17349998E+02  0.29390E+04
 0.17400000E+02  0.29397E+04
 0.17449999E+02  0.29479E+04
 0.17499998E+02  0.29585E+04
 0.17549999E+02  0.29483E+04
 0.17599998E+02  0.29458E+04
 0.17650000E+02  0.29439E+04
 0.17699999E+02  0.29460E+04
 0.17749998E+02  0.29503E+04
 0.17799999E+02  0.29471E+04
 0.17849998E+02  0.29447E+04
 0.17900000E+02  0.29324E+04
 0.17949999E+02  0.29347E+04
 0.17999998E+02  0.29370E+04
 0.18049999E+02  0.29399E+04
 0.18099998E+02  0.29322E+04
 0.18150000E+02  0.29360E+04
 0.18199999E+02  0.29457E+04
 0.18249998E+02  0.29414E+04
 0.18299999E+02  0.29268E+04
 0.18349998E+02  0.29551E+04
 0.18400000E+02  0.29473E+04
 0.18449999E+02  0.29225E+04
 0.18499998E+02  0.29276E+04
 0.18549999E+02  0.29052E+04
 0.18599998E+02  0.28426E+04
 0.18650000E+02  0.29213E+04
 0.18699999E+02  0.30001E+04
 0.18749998E+02  0.29047E+04
 0.18799999E+02  0.29456E+04
 0.18849998E+02  0.29578E+04
 0.18900000E+02  0.28684E+04
 0.18949999E+02  0.27809E+04
 0.18999998E+02  0.29569E+04
 0.19049999E+02  0.29379E+04
 0.19099998E+02  0.30505E+04
 0.19150000E+02  0.30085E+04
 0.19199999E+02  0.29367E+04
 0.19249998E+02  0.28831E+04
 0.19299999E+02  0.26967E+04
 0.19349998E+02  0.27184E+04
 0.19400000E+02  0.28426E+04
 0.19449999E+02  0.29884E+04
 0.19499998E+02  0.28805E+04
 0.19549999E+02  0.30556E+04
 0.19599998E+02  0.28316E+04
 0.19650000E+02  0.22638E+04
 0.19699999E+02  0.31733E+04
 0.19749998E+02  0.31747E+04
 0.19799999E+02  0.26609E+04
 0.19849998E+02  0.34404E+04
 0.19900000E+02  0.30565E+04
 0.19949999E+02  0.26962E+04
 0.19999998E+02  0.27718E+04
 0.20049999E+02  0.30616E+04
 0.20099998E+02  0.32371E+04
 0.20150000E+02  0.31631E+04
 0.20199999E+02  0.31883E+04
 0.20249998E+02  0.27244E+04
 0.20299999E+02  0.25087E+04
 0.20349998E+02  0.37492E+04
 0.20399998E+02  0.27451E+04
 0.20449999E+02  0.20538E+04
 0.20499998E+02  0.36191E+04
 0.20549999E+02  0.43750E+04
 0.20599998E+02  0.19931E+04
 0.20649998E+02  0.20072E+04
 0.20699999E+02  0.44935E+04
 0.20749998E+02  0.13951E+04
 0.20799999E+02  0.38388E+04
 0.20849998E+02  0.33496E+04
 0.20899998E+02  0.17087E+04
 0.20949999E+02  0.30958E+04
 0.20999998E+02  0.17758E+04
 0.21049999E+02  0.45306E+04
 0.21099998E+02  0.17284E+04
 0.21149998E+02  0.25351E+04
 0.21199999E+02  0.29448E+04
 0.21249998E+02  0.30391E+04
 0.21299999E+02  0.26631E+04
 0.21349998E+02  0.29148E+04
 0.21399998E+02  0.36499E+04
 0.21449999E+02  0.27782E+04
 0.21499998E+02  0.44901E+04
 0.21549999E+02  0.22972E+04
 0.21599998E+02  0.17812E+04
 0.21649998E+02  0.19800E+04
 0.21699999E+02  0.54802E+04
 0.21749998E+02  0.45562E+04
 0.21799999E+02  0.28977E+03
 0.21849998E+02  0.34698E+04
 0.21899998E+02  0.42452E+04
 0.21949999E+02  0.16164E+04
 0.21999998E+02  0.25937E+04
 0.22049999E+02  0.26688E+04
 0.22099998E+02  0.18565E+04
 0.22149998E+02  0.40488E+04
 0.22199999E+02  0.48218E+04
 0.22249998E+02  0.25508E+03
 0.22299999E+02  0.31893E+04
 0.22349998E+02  0.44797E+04
 0.22399998E+02  0.24104E+04
 0.22449999E+02  0.14120E+04
 0.22499998E+02  0.55719E+04
 0.22549999E+02  0.17188E+04
 0.22599998E+02  0.18314E+04
 0.22649998E+02  0.49382E+04
 0.22699999E+02  0.97240E+03
 0.22749998E+02  0.26474E+04
 0.22799999E+02  0.20989E+04
 0.22849998E+02  0.54146E+04
 0.22899998E+02  0.15959E+04
 0.22949999E+02  0.38878E+04
 0.22999998E+02  0.42825E+04
 0.23049999E+02  0.22950E+04
 0.23099998E+02  0.32391E+04
 0.23149998E+02  0.53992E+03
 0.23199999E+02  0.41242E+04
 0.23249998E+02  0.62351E+04
 0.23299999E+02  0.27923E+04
 0.23349998E+02  0.17342E+04
 0.23399998E+02  0.10421E+04
 0.23449999E+02  0.34382E+04
 0.23499998E+02  0.32590E+04
 0.23549999E+02 -0.13252E+04
 0.23599998E+02  0.56490E+04
 0.23649998E+02  0.18304E+04
 0.23699999E+02  0.71216E+03
 0.23749998E+02  0.59765E+04
 0.23799999E+02  0.34354E+04
 0.23849998E+02  0.22222E+04
 0.23899998E+02  0.33450E+04
 0.23949999E+02  0.51291E+04
 0.23999998E+02  0.44342E+04
 0.24049999E+02  0.30181E+04
 0.24099998E+02 -0.46077E+03
 0.24149998E+02  0.38997E+04
 0.24199999E+02  0.31205E+04
 0.24249998E+02  0.32864E+04
 0.24299999E+02  0.18636E+04
 0.24349998E+02  0.27146E+04
 0.24399998E+02  0.60979E+04
 0.24449999E+02  0.16564E+04
 0.24499998E+02  0.17294E+04
 0.24549999E+02  0.19767E+04
 0.24599998E+02  0.33376E+04
 0.24649998E+02  0.40099E+04
 0.24699999E+02  0.18126E+04
 0.24749998E+02  0.24078E+04
 0.24799999E+02  0.26562E+04
 0.24849998E+02  0.18671E+04
 0.24899998E+02  0.47920E+04
 0.24949999E+02  0.35726E+04
 0.24999998E+02  0.20269E+04
 0.25049999E+02  0.22622E+04
 0.25099998E+02  0.49686E+04
 0.25149998E+02  0.16753E+04
 0.25199999E+02  0.30740E+04
 0.25249998E+02  0.34515E+04
 0.25299999E+02  0.92985E+03
 0.25349998E+02  0.50222E+04
 0.25399998E+02  0.49790E+03
 0.25449999E+02  0.31847E+04
 0.25499998E+02  0.44739E+04
 0.25549999E+02  0.30063E+04
 0.25599998E+02  0.55456E+04
 0.25649998E+02 -0.25551E+03
 0.25699999E+02  0.34741E+04
 0.25749998E+02  0.47105E+04
 0.25799999E+02 -0.20315E+03
 0.25849998E+02  0.63115E+04
 0.25899998E+02  0.26120E+04
 0.25949999E+02  0.29778E+04
 0.25999998E+02  0.14316E+04
 0.26049999E+02  0.74739E+03
 0.26099998E+02  0.78112E+04
 0.26149998E+02 -0.11050E+04
 0.26199999E+02  0.37060E+04
 0.26249998E+02  0.59242E+04
 0.26299999E+02  0.54393E+03
 0.26349998E+02  0.21463E+04
 0.26399998E+02  0.43737E+04
 0.26449999E+02  0.40809E+04
 0.26499998E+02  0.12732E+04
 0.26549999E+02  0.43173E+04
 0.26599998E+02  0.16933E+04
 0.26649998E+02  0.39881E+04
 0.26699999E+02  0.27899E+04
 0.26749998E+02  0.17305E+04
 0.26799999E+02  0.42652E+04
 0.26849998E+02  0.30854E+04
 0.26899998E+02  0.24390E+04
 0.26949999E+02  0.11694E+04
 0.26999998E+02  0.34379E+04
 0.27049997E+02  0.23065E+04
 0.27099998E+02 -0.70964E+03
 0.27149998E+02  0.56555E+04
 0.27199999E+02  0.61437E+04
 0.27249998E+02  0.26057E+04
 0.27299997E+02  0.43520E+04
 0.27349998E+02  0.76861E+03
 0.27399998E+02  0.15222E+04
 0.27449999E+02  0.42265E+04
 0.27499998E+02  0.47618E+04
 0.27549997E+02 -0.11421E+04
 0.27599998E+02  0.38562E+04
 0.27649998E+02  0.51976E+04
 0.27699999E+02  0.14844E+04
 0.27749998E+02  0.25099E+04
 0.27799997E+02  0.43641E+04
 0.27849998E+02  0.58386E+04
 0.27899998E+02  0.12363E+04
 0.27949999E+02  0.26020E+04
 0.27999998E+02  0.25325E+04
 0.28049997E+02  0.31471E+04
 0.28099998E+02  0.19988E+04
 0.28149998E+02  0.18258E+04
 0.28199999E+02  0.12223E+04
 0.28249998E+02  0.32537E+04
 0.28299997E+02  0.51472E+04
 0.28349998E+02  0.33599E+04
 0.28399998E+02  0.35522E+04
 0.28449999E+02  0.14547E+04
 0.28499998E+02  0.41530E+04
 0.28549997E+02  0.18684E+04
 0.28599998E+02  0.17904E+04
 0.28649998E+02  0.51475E+04
 0.28699999E+02  0.41480E+04
 0.28749998E+02  0.19659E+04
 0.28799997E+02 -0.15888E+03
 0.28849998E+02  0.43407E+04
 0.28899998E+02  0.30825E+04
 0.28949999E+02  0.30666E+04
 0.28999998E+02  0.30551E+04
 0.29049997E+02  0.33280E+04
 0.29099998E+02  0.27551E+04
 0.29149998E+02  0.36941E+04
 0.29199999E+02  0.23404E+04
 0.29249998E+02  0.41671E+04
 0.29299997E+02  0.37022E+04
 0.29349998E+02 -0.71472E+03
 0.29399998E+02  0.72548E+04
 0.29449999E+02 -0.57434E+03
 0.29499998E+02  0.10735E+04
 0.29549997E+02  0.43901E+04
 0.29599998E+02  0.50547E+04
 0.29649998E+02  0.51045E+04
 0.29699999E+02  0.11937E+04
 0.29749998E+02  0.50843E+04
 0.29799997E+02  0.12339E+04
 0.29849998E+02  0.17439E+04
 0.29899998E+02  0.51303E+04
 0.29949999E+02  0.68156E+04
 0.29999998E+02  0.50232E+04
 0.30049999E+02  0.34771E+04
 0.30099998E+02  0.14297E+04
 0.30149998E+02  0.57719E+03
 0.30199997E+02  0.57779E+03
 0.30249996E+02 -0.23071E+04
 0.30299999E+02 -0.17336E+04
 0.30349998E+02  0.57528E+04
 0.30399998E+02  0.86116E+04
 0.30449997E+02  0.77912E+04
 0.30499996E+02  0.65106E+04
 0.30549999E+02  0.73342E+03
 0.30599998E+02 -0.12108E+04
 0.30649998E+02  0.14894E+04
 0.30699997E+02  0.43536E+04
 0.30749996E+02  0.57498E+04
 0.30799999E+02  0.62740E+04
 0.30849998E+02  0.66943E+04
 0.30899998E+02  0.13661E+04
 0.30949997E+02 -0.50127E+04
 0.30999996E+02 -0.51397E+04
 0.31049999E+02 -0.42156E+04
 0.31099998E+02  0.98820E+04
 0.31149998E+02  0.74820E+04
 0.31199997E+02  0.55983E+04
 0.31249996E+02  0.15001E+05
 0.31299999E+02 -0.55324E+03
 0.31349998E+02 -0.15107E+04
 0.31399998E+02  0.96202E+03
 0.31449997E+02  0.22487E+03
 0.31499996E+02 -0.23842E+04
 0.31549999E+02  0.56212E+04
 0.31599998E+02  0.29829E+04
 0.31649998E+02 -0.10325E+05
 0.31699997E+02  0.10937E+05
 0.31749996E+02  0.31992E+04
 0.31799999E+02  0.53160E+04
 0.31849998E+02  0.13074E+05
 0.31899998E+02 -0.17770E+04
 0.31949997E+02 -0.10606E+05
 0.31999996E+02 -0.55887E+04
 0.32049999E+02  0.14254E+05
 0.32099998E+02  0.33125E+04
 0.32149998E+02  0.93245E+04
 0.32199997E+02  0.17216E+05
 0.32249996E+02 -0.75842E+04
 0.32299999E+02 -0.49729E+04
 0.32349998E+02  0.10428E+05
 0.32399998E+02  0.58983E+04
 0.32449997E+02 -0.25857E+04
 0.32499996E+02  0.20694E+04
 0.32549999E+02  0.48585E+04
 0.32599998E+02  0.32678E+04
 0.32649998E+02  0.90127E+04
 0.32699997E+02  0.81706E+04
 0.32749996E+02 -0.26217E+03
 0.32799999E+02 -0.29798E+04
 0.32849998E+02  0.89077E+04
 0.32899998E+02  0.66046E+04
 0.32949997E+02  0.76872E+03
 0.32999996E+02  0.10722E+05
 0.33049999E+02  0.29742E+04
 0.33099998E+02  0.59161E+04
 0.33149998E+02  0.53739E+04
 0.33199997E+02 -0.82013E+04
 0.33249996E+02  0.17694E+03
 0.33299999E+02 -0.11366E+04
 0.33349998E+02  0.48326E+04
 0.33399998E+02  0.12637E+05
 0.33449997E+02  0.35651E+04
 0.33499996E+02 -0.10090E+04
 0.33549999E+02 -0.13462E+05
 0.33599998E+02 -0.20238E+04
 0.33649998E+02  0.10018E+05
 0.33699997E+02  0.19298E+04
 0.33749996E+02  0.91916E+03
 0.33799999E+02  0.59493E+04
 0.33849998E+02 -0.56504E+04
 0.33899998E+02 -0.41379E+04
 0.33949997E+02  0.13906E+05
 0.33999996E+02  0.50395E+04
 0.34049999E+02  0.46639E+04
 0.34099998E+02  0.39992E+04
 0.34149998E+02 -0.65227E+04
 0.34199997E+02 -0.11381E+05
 0.34249996E+02  0.70502E+04
 0.34299999E+02  0.10473E+05
 0.34349998E+02  0.12383E+05
 0.34399998E+02  0.77029E+04
 0.34449997E+02  0.63205E+03
 0.34499996E+02  0.27825E+04
 0.34549999E+02  0.11027E+04
 0.34599998E+02  0.36657E+04
 0.34649998E+02  0.63924E+03
 0.34699997E+02  0.42840E+04
 0.34749996E+02  0.14175E+04
 0.34799999E+02  0.49016E+04
 0.34849998E+02  0.38294E+04
 0.34899998E+02  0.64179E+04
 0.34949997E+02  0.90003E+03
 0.34999996E+02 -0.45628E+02
 0.35049999E+02  0.67114E+04
 0.35099998E+02  0.30153E+04
 0.35149998E+02  0.65618E+04
 0.35199997E+02  0.72826E+04
 0.35249996E+02 -0.22914E+04
 0.35299999E+02 -0.26698E+03
 0.35349998E+02  0.11678E+05
 0.35399998E+02  0.52046E+04
 0.35449997E+02 -0.14887E+04
 0.35499996E+02  0.22194E+04
 0.35549999E+02 -0.14344E+03
 0.35599998E+02  0.90084E+03
 0.35649998E+02  0.48820E+04
 0.35699997E+02  0.62769E+04
 0.35749996E+02  0.53497E+04
 0.35799999E+02  0.12199E+04
 0.35849998E+02  0.15320E+04
 0.35899998E+02  0.69264E+03
 0.35949997E+02 -0.61891E+02
 0.35999996E+02 -0.17900E+04
 0.36049999E+02  0.39958E+04
 0.36099998E+02  0.83719E+04
 0.36149998E+02  0.43924E+04
 0.36199997E+02  0.79803E+03
 0.36249996E+02 -0.22328E+04
 0.36299999E+02 -0.25742E+04
 0.36349998E+02  0.29859E+04
 0.36399998E+02  0.80762E+04
 0.36449997E+02  0.85519E+03
 0.36499996E+02  0.35159E+04
 0.36549999E+02 -0.35887E+03
 0.36599998E+02 -0.25325E+04
 0.36649998E+02  0.55561E+04
 0.36699997E+02  0.47733E+04
 0.36749996E+02  0.65774E+04
 0.36799999E+02  0.10284E+04
 0.36849998E+02  0.36153E+03
 0.36899998E+02  0.16340E+04
 0.36949997E+02  0.90794E+04
 0.36999996E+02  0.57192E+04
 0.37049999E+02 -0.37259E+02
 0.37099998E+02  0.31853E+03
 0.37149998E+02 -0.10242E+04
 0.37199997E+02  0.93094E+04
 0.37249996E+02  0.80094E+04
 0.37299999E+02  0.42431E+04
 0.37349998E+02  0.54743E+02
 0.37399998E+02  0.14241E+04
 0.37449997E+02  0.65956E+04
 0.37499996E+02  0.77017E+03
 0.37549999E+02 -0.15994E+04
 0.37599998E+02 -0.15579E+04
 0.37649998E+02  0.17543E+04
 0.37699997E+02  0.56702E+04
 0.37749996E+02  0.75234E+04
 0.37799999E+02  0.64799E+04
 0.37849998E+02 -0.63848E+03
 0.37899998E+02  0.19625E+04
 0.37949997E+02  0.28290E+04
 0.37999996E+02  0.15311E+04
 0.38049999E+02  0.61079E+04
 0.38099998E+02  0.96258E+04
 0.38149998E+02  0.71756E+04
 0.38199997E+02  0.45316E+04
 0.38249996E+02  0.40417E+04
 0.38299999E+02  0.12052E+04
 0.38349998E+02  0.50161E+04
 0.38399998E+02  0.25731E+04
 0.38449997E+02 -0.13606E+04
 0.38499996E+02  0.26778E+04
 0.38549999E+02  0.28976E+04
 0.38599998E+02  0.10165E+04
 0.38649998E+02  0.34718E+04
 0.38699997E+02 -0.61400E+03
 0.38749996E+02 -0.27303E+04
 0.38799999E+02  0.55366E+04
 0.38849998E+02  0.23478E+04
 0.38899998E+02  0.37729E+04
 0.38949997E+02  0.35339E+04
 0.38999996E+02 -0.15211E+04
 0.39049999E+02  0.30343E+04
 0.39099998E+02  0.94464E+04
 0.39149998E+02  0.46003E+04
 0.39199997E+02 -0.64261E+02
 0.39249996E+02  0.53767E+04
 0.39299999E+02 -0.88911E+03
 0.39349998E+02 -0.26875E+03
 0.39399998E+02  0.57293E+04
 0.39449997E+02  0.10554E+04
 0.39499996E+02 -0.53211E+03
 0.39549999E+02  0.52871E+04
 0.39599998E+02  0.41365E+04
 0.39649998E+02  0.26440E+04
 0.39699997E+02  0.42558E+04
 0.39749996E+02  0.39873E+04
 0.39799999E+02  0.40998E+04
 0.39849998E+02  0.19651E+04
 0.39899998E+02  0.16431E+04
 0.39949997E+02  0.31242E+04
 0.39999996E+02  0.41190E+04
 0.40049999E+02  0.29745E+04
 0.40099998E+02  0.56266E+04
 0.40149998E+02  0.57388E+04
 0.40199997E+02  0.91939E+03
 0.40249996E+02 -0.11008E+04
 0.40299999E+02  0.34671E+03
 0.40349998E+02  0.26310E+04
 0.40399998E+02  0.46606E+04
 0.40449997E+02  0.68075E+04
 0.40499996E+02  0.26522E+04
 0.40549999E+02  0.35606E+03
 0.40599998E+02  0.53802E+04
 0.40649998E+02  0.54884E+04
 0.40699997E+02  0.45664E+04
 0.40749996E+02  0.67141E+04
 0.40799999E+02  0.48493E+04
 0.40849998E+02 -0.16015E+04
 0.40899998E+02 -0.16335E+04
 0.40949997E+02  0.37354E+04
 0.40999996E+02  0.16293E+04
 0.41049999E+02  0.43821E+04
 0.41099998E+02  0.55868E+04
 0.41149998E+02  0.22679E+04
 0.41199997E+02  0.61631E+04
 0.41249996E+02  0.20033E+04
 0.41299999E+02  0.18333E+04
 0.41349998E+02  0.45740E+04
 0.41399998E+02  0.36122E+03
 0.41449997E+02  0.20202E+04
 0.41499996E+02  0.91311E+04
 0.41549999E+02  0.38346E+04
 0.41599998E+02 -0.18236E+04
 0.41649998E+02  0.30544E+04
 0.41699997E+02 -0.12157E+04
 0.41749996E+02 -0.63875E+03
 0.41799999E+02  0.33577E+04
 0.41849998E+02  0.37848E+04
 0.41899998E+02  0.19560E+04
 0.41949997E+02 -0.18021E+04
 0.41999996E+02  0.99584E+03
 0.42049999E+02  0.24484E+04
 0.42099998E+02  0.35396E+04
 0.42149998E+02  0.92684E+04
 0.42199997E+02  0.67557E+04
 0.42249996E+02  0.53827E+03
 0.42299999E+02  0.37225E+04
 0.42349998E+02  0.51410E+04
 0.42399998E+02  0.85043E+03
 0.42449997E+02  0.35516E+04
 0.42499996E+02  0.77512E+04
 0.42549999E+02  0.31273E+04
 0.42599998E+02  0.41440E+04
 0.42649998E+02  0.39354E+04
 0.42699997E+02  0.20153E+04
 0.42749996E+02  0.26893E+04
 0.42799995E+02  0.30063E+03
 0.42849998E+02  0.16597E+04
 0.42899998E+02  0.71707E+03
 0.42949997E+02  0.45361E+04
 0.42999996E+02  0.63059E+04
 0.43049995E+02  0.10561E+04
 0.43099998E+02 -0.51802E+03
 0.43149998E+02  0.28717E+04
 0.43199997E+02  0.51719E+04
 0.43249996E+02  0.47893E+04
 0.43299995E+02  0.50303E+04
 0.43349998E+02  0.25889E+04
 0.43399998E+02  0.85954E+03
 0.43449997E+02  0.15687E+04
 0.43499996E+02  0.34913E+04
 0.43549995E+02  0.29796E+04
 0.43599998E+02  0.30824E+04
 0.43649998E+02  0.32507E+04
 0.43699997E+02 -0.54694E+03
 0.43749996E+02 -0.38167E+03
 0.43799995E+02  0.21656E+04
 0.43849998E+02  0.54095E+04
 0.43899998E+02  0.60081E+04
 0.43949997E+02 -0.76714E+01
 0.43999996E+02  0.23953E+04
 0.44049995E+02  0.18850E+04
 0.44099998E+02  0.11486E+04
 0.44149998E+02  0.52218E+04
 0.44199997E+02  0.24838E+04
 0.44249996E+02 -0.21735E+03
 0.44299995E+02  0.19960E+04
 0.44349998E+02  0.49838E+04
 0.44399998E+02  0.47718E+04
 0.44449997E+02  0.40853E+04
 0.44499996E+02  0.20851E+04
 0.44549995E+02  0.44624E+04
 0.44599998E+02  0.50793E+04
 0.44649998E+02  0.34777E+04
 0.44699997E+02  0.26683E+04
 0.44749996E+02  0.34105E+04
 0.44799995E+02  0.16560E+04
 0.44849998E+02  0.19301E+04
 0.44899998E+02  0.30839E+04
 0.44949997E+02  0.25388E+04
 0.44999996E+02  0.35670E+04
 0.45049995E+02  0.24746E+04
 0.45099998E+02  0.28541E+04
 0.45149998E+02  0.30560E+04
 0.45199997E+02  0.61353E+04
 0.45249996E+02  0.52253E+04
 0.45299995E+02  0.30496E+04
 0.45349998E+02  0.24067E+04
 0.45399998E+02  0.13105E+04
 0.45449997E+02  0.24032E+04
 0.45499996E+02  0.33909E+04
 0.45549995E+02  0.58405E+04
 0.45599998E+02  0.54812E+04
 0.45649998E+02  0.31445E+04
 0.45699997E+02  0.33418E+04
 0.45749996E+02  0.27093E+04
 0.45799995E+02  0.25909E+04
 0.45849998E+02  0.14799E+04
 0.45899998E+02  0.24857E+04
 0.45949997E+02  0.30229E+04
 0.45999996E+02  0.12618E+04
 0.46049995E+02  0.27623E+04
 0.46099998E+02  0.24613E+04
 0.46149998E+02  0.29870E+04
 0.46199997E+02  0.22953E+04
 0.46249996E+02  0.22869E+04
 0.46299995E+02  0.30840E+04
 0.46349998E+02  0.33524E+04
 0.46399998E+02  0.56403E+04
 0.46449997E+02  0.21279E+04
 0.46499996E+02  0.60620E+03
 0.46549995E+02  0.23747E+04
 0.46599998E+02  0.25334E+04
 0.46649998E+02  0.27911E+04
 0.46699997E+02  0.27947E+04
 0.46749996E+02  0.43040E+04
 0.46799995E+02  0.22901E+04
 0.46849998E+02  0.18202E+04
 0.46899998E+02  0.25376E+04
 0.46949997E+02  0.98657E+03
 0.46999996E+02  0.29628E+04
 0.47049995E+02  0.26197E+04
 0.47099998E+02  0.21392E+04
 0.47149998E+02  0.33910E+04
 0.47199997E+02  0.30760E+04
 0.47249996E+02  0.29998E+04
 0.47299995E+02  0.12977E+04
 0.47349998E+02  0.88320E+03
 0.47399998E+02  0.18350E+04
 0.47449997E+02  0.33407E+04
 0.47499996E+02  0.45353E+04
 0.47549995E+02  0.43479E+04
 0.47599998E+02  0.41116E+04
 0.47649998E+02  0.50062E+04
 0.47699997E+02  0.50086E+04
 0.47749996E+02  0.99125E+03
 0.47799995E+02  0.92604E+03
 0.47849998E+02  0.33616E+04
 0.47899998E+02  0.38182E+04
 0.47949997E+02  0.41856E+04
 0.47999996E+02  0.14129E+04
 0.48049995E+02  0.35887E+04
 0.48099998E+02  0.41713E+04
 0.48149998E+02  0.23042E+04
 0.48199997E+02  0.54808E+04
 0.48249996E+02  0.41784E+04
 0.48299995E+02  0.16793E+04
 0.48349998E+02  0.18896E+04
 0.48399998E+02  0.36892E+04
 0.48449997E+02  0.39141E+04
 0.48499996E+02  0.16326E+04
 0.48549995E+02  0.25247E+04
 0.48599998E+02  0.46533E+04
 0.48649998E+02  0.24744E+04
 0.48699997E+02  0.19805E+04
 0.48749996E+02  0.23930E+04
 0.48799995E+02  0.24727E+04
 0.48849998E+02  0.29001E+04
 0.48899998E+02  0.37907E+04
 0.48949997E+02  0.39716E+04
 0.48999996E+02  0.20101E+04
 0.49049995E+02  0.27894E+04
 0.49099998E+02  0.32154E+04
 0.49149998E+02  0.36305E+04
 0.49199997E+02  0.30078E+04
 0.49249996E+02  0.35544E+04
 0.49299995E+02  0.40045E+04
 0.49349998E+02  0.39365E+04
 0.49399998E+02  0.24572E+04
 0.49449997E+02  0.71149E+03
 0.49499996E+02  0.19483E+04
 0.49549995E+02  0.33195E+04
 0.49599998E+02  0.34045E+04
 0.49649998E+02  0.21991E+04
 0.49699997E+02  0.23227E+04
 0.49749996E+02  0.19367E+04
 0.49799995E+02  0.17625E+04
 0.49849998E+02  0.73396E+03
 0.49899998E+02  0.28841E+04
 0.49949997E+02  0.34678E+04
 0.49999996E+02  0.15018E+04
 0.50049995E+02  0.26917E+04
 0.50099998E+02  0.43895E+04
 0.50149998E+02  0.31377E+04
 0.50199997E+02  0.12992E+04
 0.50249996E+02  0.28918E+04
 0.50299995E+02  0.33410E+04
 0.50349998E+02  0.38416E+04
 0.50399998E+02  0.38505E+04
 0.50449997E+02  0.37095E+04
 0.50499996E+02  0.32846E+04
 0.50549995E+02  0.14356E+04
 0.50599998E+02  0.20577E+04
 0.50649998E+02  0.36797E+04
 0.50699997E+02  0.35047E+04
 0.50749996E+02  0.20182E+04
 0.50799995E+02  0.16794E+04
 0.50849998E+02  0.35444E+04
 0.50899998E+02  0.44036E+04
 0.50949997E+02  0.35286E+04
 0.50999996E+02  0.36872E+04
 0.51049995E+02  0.39369E+04
 0.51099998E+02  0.29430E+04
 0.51149998E+02  0.41925E+04
 0.51199997E+02  0.55804E+04
 0.51249996E+02  0.39944E+04
 0.51299995E+02  0.14468E+04
 0.51349998E+02  0.19636E+04
 0.51399998E+02  0.26874E+04
 0.51449997E+02  0.17488E+04
 0.51499996E+02  0.30987E+04
 0.51549995E+02  0.35282E+04
 0.51599998E+02  0.24994E+04
 0.51649998E+02  0.24224E+04
 0.51699997E+02  0.30690E+04
 0.51749996E+02  0.31708E+04
 0.51799995E+02  0.23681E+04
 0.51849998E+02  0.20766E+04
 0.51899998E+02  0.33234E+04
 0.51949997E+02  0.34916E+04
 0.51999996E+02  0.31789E+04
 0.52049995E+02  0.32917E+04
 0.52099998E+02  0.37570E+04
 0.52149998E+02  0.21391E+04
 0.52199997E+02  0.24861E+04
 0.52249996E+02  0.29318E+04
 0.52299995E+02  0.16526E+04
 0.52349998E+02  0.28035E+04
 0.52399998E+02  0.26380E+04
 0.52449997E+02  0.33601E+04
 0.52499996E+02  0.29232E+04
 0.52549995E+02  0.16349E+04
 0.52599998E+02  0.26481E+04
 0.52649998E+02  0.37145E+04
 0.52699997E+02  0.13638E+04
 0.52749996E+02  0.13669E+04
 0.52799995E+02  0.42947E+04
 0.52849998E+02  0.38252E+04
 0.52899998E+02  0.34672E+04
 0.52949997E+02  0.34353E+04
 0.52999996E+02  0.31170E+04
 0.53049995E+02  0.26396E+04
 0.53099998E+02  0.25787E+04
 0.53149998E+02  0.24308E+04
 0.53199997E+02  0.21204E+04
 0.53249996E+02  0.22550E+04
 0.53299995E+02  0.27665E+04
 0.53349998E+02  0.36631E+04
 0.53399998E+02  0.33700E+04
 0.53449997E+02  0.33586E+04
 0.53499996E+02  0.40247E+04
 0.53549995E+02  0.38107E+04
 0.53599998E+02  0.34607E+04
 0.53649998E+02  0.37590E+04
 0.53699997E+02  0.30029E+04
 0.53749996E+02  0.25316E+04
 0.53799995E+02  0.28361E+04
 0.53849998E+02  0.37840E+04
 0.53899998E+02  0.44168E+04
 0.53949997E+02  0.34603E+04
 0.53999996E+02  0.25161E+04
 0.54049995E+02  0.36029E+04
 0.54099998E+02  0.34450E+04
 0.54149998E+02  0.24693E+04
 0.54199997E+02  0.35572E+04
 0.54249996E+02  0.39524E+04
 0.54299995E+02  0.29410E+04
 0.54349998E+02  0.22911E+04
 0.54399998E+02  0.30970E+04
 0.54449997E+02  0.33512E+04
 0.54499996E+02  0.22895E+04
 0.54549995E+02  0.13859E+04
 0.54599998E+02  0.20456E+04
 0.54649998E+02  0.23189E+04
 0.54699997E+02  0.20228E+04
 0.54749996E+02  0.26934E+04
 0.54799995E+02  0.23941E+04
 0.54849998E+02  0.17572E+04
 0.54899998E+02  0.27225E+04
 0.54949997E+02  0.30698E+04
 0.54999996E+02  0.27296E+04
 0.55049995E+02  0.21743E+04
 0.55099998E+02  0.27119E+04
 0.55149998E+02  0.31397E+04
 0.55199997E+02  0.27105E+04
 0.55249996E+02  0.38621E+04
 0.55299995E+02  0.38022E+04
 0.55349998E+02  0.27718E+04
 0.55399998E+02  0.26959E+04
 0.55449997E+02  0.25887E+04
 0.55499996E+02  0.20989E+04
 0.55549995E+02  0.24372E+04
 0.55599998E+02  0.29912E+04
 0.55649998E+02  0.30586E+04
 0.55699997E+02  0.29561E+04
 0.55749996E+02  0.30867E+04
 0.55799995E+02  0.33379E+04
 0.55849995E+02  0.26772E+04
 0.55899998E+02  0.27418E+04
 0.55949997E+02  0.29612E+04
 0.55999996E+02  0.27328E+04
 0.56049995E+02  0.29689E+04
 0.56099995E+02  0.28789E+04
 0.56149998E+02  0.28746E+04
 0.56199997E+02  0.29202E+04
 0.56249996E+02  0.23092E+04
 0.56299995E+02  0.26159E+04
 0.56349995E+02  0.32911E+04
 0.56399998E+02  0.30301E+04
 0.56449997E+02  0.36846E+04
 0.56499996E+02  0.37699E+04
 0.56549995E+02  0.36741E+04
 0.56599995E+02  0.38864E+04
 0.56649998E+02  0.28494E+04
 0.56699997E+02  0.24513E+04
 0.56749996E+02  0.32552E+04
 0.56799995E+02  0.28942E+04
 0.56849995E+02  0.26345E+04
 0.56899998E+02  0.29528E+04
 0.56949997E+02  0.26074E+04
 0.56999996E+02  0.33332E+04
 0.57049995E+02  0.34086E+04
 0.57099995E+02  0.33746E+04
 0.57149998E+02  0.37473E+04
 0.57199997E+02  0.36739E+04
 0.57249996E+02  0.30068E+04
 0.57299995E+02  0.22242E+04
 0.57349995E+02  0.23121E+04
 0.57399998E+02  0.21793E+04
 0.57449997E+02  0.32131E+04
 0.57499996E+02  0.26116E+04
 0.57549995E+02  0.19602E+04
 0.57599995E+02  0.26468E+04
 0.57649998E+02  0.23123E+04
 0.57699997E+02  0.29507E+04
 0.57749996E+02  0.33238E+04
 0.57799995E+02  0.37831E+04
 0.57849995E+02  0.33836E+04
 0.57899998E+02  0.24349E+04
 0.57949997E+02  0.22848E+04
 0.57999996E+02  0.29619E+04
 0.58049995E+02  0.36845E+04
 0.58099995E+02  0.36345E+04
 0.58149998E+02  0.35410E+04
 0.58199997E+02  0.25587E+04
 0.58249996E+02  0.24622E+04
 0.58299995E+02  0.28960E+04
 0.58349995E+02  0.28139E+04
 0.58399998E+02  0.27138E+04
 0.58449997E+02  0.28699E+04
 0.58499996E+02  0.28612E+04
 0.58549995E+02  0.24831E+04
 0.58599995E+02  0.28469E+04
 0.58649998E+02  0.28925E+04
 0.58699997E+02  0.30743E+04
 0.58749996E+02  0.32172E+04
 0.58799995E+02  0.33236E+04
 0.58849995E+02  0.33045E+04
 0.58899998E+02  0.29980E+04
 0.58949997E+02  0.28952E+04
 0.58999996E+02  0.24084E+04
 0.59049995E+02  0.34207E+04
 0.59099995E+02  0.35081E+04
 0.59149998E+02  0.24506E+04
 0.59199997E+02  0.25312E+04
 0.59249996E+02  0.30175E+04
 0.59299995E+02  0.40549E+04
 0.59349995E+02  0.38019E+04
 0.59399998E+02  0.32179E+04
 0.59449997E+02  0.28192E+04
 0.59499996E+02  0.25628E+04
 0.59549995E+02  0.18730E+04
 0.59599995E+02  0.16029E+04
 0.59649998E+02  0.26846E+04
 0.59699997E+02  0.27992E+04
 0.59749996E+02  0.28462E+04
 0.59799995E+02  0.34706E+04
 0.59849995E+02  0.32731E+04
 0.59899998E+02  0.22395E+04
 0.59949997E+02  0.18235E+04
 0.59999996E+02  0.26346E+04
 0.60049995E+02  0.30733E+04
 0.60099995E+02  0.20641E+04
 0.60149998E+02  0.22995E+04
 0.60199997E+02  0.25565E+04
 0.60249996E+02  0.29020E+04
 0.60299995E+02  0.36227E+04
 0.60349995E+02  0.30825E+04
 0.60399998E+02  0.33825E+04
 0.60449997E+02  0.38005E+04
 0.60499996E+02  0.37910E+04
 0.60549995E+02  0.38628E+04
 0.60599995E+02  0.33420E+04
 0.60649998E+02  0.28823E+04
 0.60699997E+02  0.28039E+04
 0.60749996E+02  0.27916E+04
 0.60799995E+02  0.33818E+04
 0.60849995E+02  0.33107E+04
 0.60899998E+02  0.27018E+04
 0.60949997E+02  0.29511E+04
 0.60999996E+02  0.29918E+04
 0.61049995E+02  0.25575E+04
 0.61099995E+02  0.31988E+04
 0.61149998E+02  0.32997E+04
 0.61199997E+02  0.28451E+04
 0.61249996E+02  0.28326E+04
 0.61299995E+02  0.26518E+04
 0.61349995E+02  0.27790E+04
 0.61399998E+02  0.27223E+04
 0.61449997E+02  0.27730E+04
 0.61499996E+02  0.32862E+04
 0.61549995E+02  0.32656E+04
 0.61599995E+02  0.24626E+04
 0.61649998E+02  0.33696E+04
 0.61699997E+02  0.34027E+04
 0.61749996E+02  0.26423E+04
 0.61799995E+02  0.29639E+04
 0.61849995E+02  0.26503E+04
 0.61899998E+02  0.22534E+04
 0.61949997E+02  0.26096E+04
 0.61999996E+02  0.30403E+04
 0.62049995E+02  0.33258E+04
 0.62099998E+02  0.32991E+04
 0.62149994E+02  0.27992E+04
 0.62199997E+02  0.32779E+04
 0.62249992E+02  0.35305E+04
 0.62299995E+02  0.31810E+04
 0.62349998E+02  0.26843E+04
 0.62399994E+02  0.30020E+04
 0.62449997E+02  0.31974E+04
 0.62499992E+02  0.28455E+04
 0.62549995E+02  0.26577E+04
 0.62599998E+02  0.25612E+04
 0.62649994E+02  0.31539E+04
 0.62699997E+02  0.29547E+04
 0.62749992E+02  0.28012E+04
 0.62799995E+02  0.28900E+04
 0.62849998E+02  0.24169E+04
 0.62899994E+02  0.23017E+04
 0.62949997E+02  0.23979E+04
 0.62999992E+02  0.26114E+04
 0.63049995E+02  0.30130E+04
 0.63099998E+02  0.31116E+04
 0.63149994E+02  0.30536E+04
 0.63199997E+02  0.28388E+04
 0.63249992E+02  0.26076E+04
 0.63299995E+02  0.29142E+04
 0.63349998E+02  0.27517E+04
 0.63399994E+02  0.23981E+04
 0.63449997E+02  0.23992E+04
 0.63499992E+02  0.25531E+04
 0.63549995E+02  0.29230E+04
 0.63599998E+02  0.35393E+04
 0.63649994E+02  0.37103E+04
 0.63699997E+02  0.36422E+04
 0.63749992E+02  0.34388E+04
 0.63799995E+02  0.29151E+04
 0.63849998E+02  0.28381E+04
 0.63899994E+02  0.29583E+04
 0.63949997E+02  0.26259E+04
 0.63999992E+02  0.23076E+04
 0.64049995E+02  0.22554E+04
 0.64099998E+02  0.23401E+04
 0.64149994E+02  0.29546E+04
 0.64199997E+02  0.32033E+04
 0.64249992E+02  0.27771E+04
 0.64299995E+02  0.33447E+04
 0.64349998E+02  0.38501E+04
 0.64399994E+02  0.31507E+04
 0.64449997E+02  0.34512E+04
 0.64499992E+02  0.33763E+04
 0.64549995E+02  0.29461E+04
 0.64599998E+02  0.33712E+04
 0.64649994E+02  0.30683E+04
 0.64699997E+02  0.28611E+04
 0.64749992E+02  0.31824E+04
 0.64799995E+02  0.33069E+04
 0.64849998E+02  0.30686E+04
 0.64899994E+02  0.29782E+04
 0.64949997E+02  0.30748E+04
 0.64999992E+02  0.28281E+04
 0.65049995E+02  0.29853E+04
 0.65099998E+02  0.35994E+04
 0.65149994E+02  0.36412E+04
 0.65199997E+02  0.32243E+04
 0.65249992E+02  0.31973E+04
 0.65299995E+02  0.30051E+04
 0.65349998E+02  0.29129E+04
 0.65399994E+02  0.30915E+04
 0.65449997E+02  0.29971E+04
 0.65499992E+02  0.28688E+04
 0.65549995E+02  0.24857E+04
 0.65599998E+02  0.23880E+04
 0.65649994E+02  0.27575E+04
 0.65699997E+02  0.25679E+04
 0.65749992E+02  0.21458E+04
 0.65799995E+02  0.22840E+04
 0.65849998E+02  0.22175E+04
 0.65899994E+02  0.19563E+04
 0.65949997E+02  0.27001E+04
 0.65999992E+02  0.31477E+04
 0.66049995E+02  0.27439E+04
 0.66099998E+02  0.28668E+04
 0.66149994E+02  0.27615E+04
 0.66199997E+02  0.27134E+04
 0.66249992E+02  0.30513E+04
 0.66299995E+02  0.35175E+04
 0.66349998E+02  0.33889E+04
 0.66399994E+02  0.30340E+04
 0.66449997E+02  0.30929E+04
 0.66499992E+02  0.30407E+04
 0.66549995E+02  0.33064E+04
 0.66599998E+02  0.33648E+04
 0.66649994E+02  0.32111E+04
 0.66699997E+02  0.28253E+04
 0.66749992E+02  0.24155E+04
 0.66799995E+02  0.25073E+04
 0.66849998E+02  0.26198E+04
 0.66899994E+02  0.26360E+04
 0.66949997E+02  0.26248E+04
 0.66999992E+02  0.29273E+04
 0.67049995E+02  0.31616E+04
 0.67099998E+02  0.28880E+04
 0.67149994E+02  0.33632E+04
 0.67199997E+02  0.34096E+04
 0.67249992E+02  0.24566E+04
 0.67299995E+02  0.23692E+04
 0.67349998E+02  0.27961E+04
 0.67399994E+02  0.24832E+04
 0.67449997E+02  0.24372E+04
 0.67499992E+02  0.31046E+04
 0.67549995E+02  0.29853E+04
 0.67599998E+02  0.27554E+04
 0.67649994E+02  0.30160E+04
 0.67699997E+02  0.29251E+04
 0.67749992E+02  0.29560E+04
 0.67799995E+02  0.30732E+04
 0.67849998E+02  0.29627E+04
 0.67899994E+02  0.28827E+04
 0.67949997E+02  0.31810E+04
 0.67999992E+02  0.36230E+04
 0.68049995E+02  0.34562E+04
 0.68099998E+02  0.32712E+04
 0.68149994E+02  0.35406E+04
 0.68199997E+02  0.35645E+04
 0.68249992E+02  0.30583E+04
 0.68299995E+02  0.30003E+04
 0.68349998E+02  0.30587E+04
 0.68399994E+02  0.30135E+04
 0.68449997E+02  0.27715E+04
 0.68499992E+02  0.25601E+04
 0.68549995E+02  0.30430E+04
 0.68599998E+02  0.30961E+04
 0.68649994E+02  0.28521E+04
 0.68699997E+02  0.29677E+04
 0.68749992E+02  0.28395E+04
 0.68799995E+02  0.25701E+04
 0.68849998E+02  0.25371E+04
 0.68899994E+02  0.27279E+04
 0.68949997E+02  0.30026E+04
 0.68999992E+02  0.31437E+04
 0.69049995E+02  0.30541E+04
 0.69099998E+02  0.28749E+04
 0.69149994E+02  0.27814E+04
 0.69199997E+02  0.28062E+04
 0.69249992E+02  0.26144E+04
 0.69299995E+02  0.26232E+04
 0.69349998E+02  0.29101E+04
 0.69399994E+02  0.28086E+04
 0.69449997E+02  0.31514E+04
 0.69499992E+02  0.37188E+04
 0.69549995E+02  0.36207E+04
 0.69599998E+02  0.35093E+04
 0.69649994E+02  0.32184E+04
 0.69699997E+02  0.29063E+04
 0.69749992E+02  0.27265E+04
 0.69799995E+02  0.23604E+04
 0.69849998E+02  0.21643E+04
 0.69899994E+02  0.23363E+04
 0.69949997E+02  0.27497E+04
 0.69999992E+02  0.26646E+04
 0.70049995E+02  0.27296E+04
 0.70099998E+02  0.31115E+04
 0.70149994E+02  0.27208E+04
 0.70199997E+02  0.24115E+04
 0.70249992E+02  0.29262E+04
 0.70299995E+02  0.30117E+04
 0.70349998E+02  0.29832E+04
 0.70399994E+02  0.34064E+04
 0.70449997E+02  0.34885E+04
 0.70499992E+02  0.34094E+04
 0.70549995E+02  0.31310E+04
 0.70599998E+02  0.30941E+04
 0.70649994E+02  0.32647E+04
 0.70699997E+02  0.27325E+04
 0.70749992E+02  0.25881E+04
 0.70799995E+02  0.25749E+04
 0.70849998E+02  0.25319E+04
 0.70899994E+02  0.26643E+04
 0.70949997E+02  0.24302E+04
 0.70999992E+02  0.26501E+04
 0.71049995E+02  0.27251E+04
 0.71099998E+02  0.25238E+04
 0.71149994E+02  0.29352E+04
 0.71199997E+02  0.33513E+04
 0.71249992E+02  0.35300E+04
 0.71299995E+02  0.35163E+04
 0.71349998E+02  0.33013E+04
 0.71399994E+02  0.33412E+04
 0.71449997E+02  0.33287E+04
 0.71499992E+02  0.31914E+04
 0.71549995E+02  0.30368E+04
 0.71599998E+02  0.30142E+04
 0.71649994E+02  0.31252E+04
 0.71699997E+02  0.32398E+04
 0.71749992E+02  0.33497E+04
 0.71799995E+02  0.30864E+04
 0.71849998E+02  0.29734E+04
 0.71899994E+02  0.28659E+04
 0.71949997E+02  0.27082E+04
 0.71999992E+02  0.26551E+04
 0.72049995E+02  0.24314E+04
 0.72099998E+02  0.23152E+04
 0.72149994E+02  0.24560E+04
 0.72199997E+02  0.28108E+04
 0.72249992E+02  0.27576E+04
 0.72299995E+02  0.28775E+04
 0.72349998E+02  0.28550E+04
 0.72399994E+02  0.25445E+04
 0.72449997E+02  0.27501E+04
 0.72499992E+02  0.30823E+04
 0.72549995E+02  0.29382E+04
 0.72599998E+02  0.24106E+04
 0.72649994E+02  0.23296E+04
 0.72699997E+02  0.24845E+04
 0.72749992E+02  0.26161E+04
 0.72799995E+02  0.28861E+04
 0.72849998E+02  0.31855E+04
 0.72899994E+02  0.32914E+04
 0.72949997E+02  0.32461E+04
 0.72999992E+02  0.30868E+04
 0.73049995E+02  0.31325E+04
 0.73099998E+02  0.32606E+04
 0.73149994E+02  0.32251E+04
 0.73199997E+02  0.31212E+04
 0.73249992E+02  0.31134E+04
 0.73299995E+02  0.30642E+04
 0.73349998E+02  0.27910E+04
 0.73399994E+02  0.28926E+04
 0.73449997E+02  0.31197E+04
 0.73499992E+02  0.31413E+04
 0.73549995E+02  0.33441E+04
 0.73599998E+02  0.32857E+04
 0.73649994E+02  0.29412E+04
 0.73699997E+02  0.28171E+04
 0.73749992E+02  0.26938E+04
 0.73799995E+02  0.28284E+04
 0.73849998E+02  0.30676E+04
 0.73899994E+02  0.29107E+04
 0.73949997E+02  0.28313E+04
 0.73999992E+02  0.30951E+04
 0.74049995E+02  0.30865E+04
 0.74099998E+02  0.29456E+04
 0.74149994E+02  0.31018E+04
 0.74199997E+02  0.30441E+04
 0.74249992E+02  0.28345E+04
 0.74299995E+02  0.28327E+04
 0.74349998E+02  0.27399E+04
 0.74399994E+02  0.27597E+04
 0.74449997E+02  0.29540E+04
 0.74499992E+02  0.29071E+04
 0.74549995E+02  0.28402E+04
 0.74599998E+02  0.27887E+04
 0.74649994E+02  0.26192E+04
 0.74699997E+02  0.28427E+04
 0.74749992E+02  0.30530E+04
 0.74799995E+02  0.28866E+04
 0.74849998E+02  0.27092E+04
 0.74899994E+02  0.26505E+04
 0.74949997E+02  0.27732E+04
 0.74999992E+02  0.28739E+04
 0.75049995E+02  0.30018E+04
 0.75099998E+02  0.30694E+04
 0.75149994E+02  0.30014E+04
 0.75199997E+02  0.29057E+04
 0.75249992E+02  0.28409E+04
 0.75299995E+02  0.28403E+04
 0.75349998E+02  0.29093E+04
 0.75399994E+02  0.29245E+04
 0.75449997E+02  0.30099E+04
 0.75499992E+02  0.29710E+04
 0.75549995E+02  0.29950E+04
 0.75599998E+02  0.32117E+04
 0.75649994E+02  0.30451E+04
 0.75699997E+02  0.30176E+04
 0.75749992E+02  0.31588E+04
 0.75799995E+02  0.30854E+04
 0.75849998E+02  0.31261E+04
 0.75899994E+02  0.31936E+04
 0.75949997E+02  0.28618E+04
 0.75999992E+02  0.27934E+04
 0.76049995E+02  0.29807E+04
 0.76099998E+02  0.30282E+04
 0.76149994E+02  0.31321E+04
 0.76199997E+02  0.30249E+04
 0.76249992E+02  0.29076E+04
 0.76299995E+02  0.27981E+04
 0.76349998E+02  0.27918E+04
 0.76399994E+02  0.26496E+04
 0.76449997E+02  0.26418E+04
 0.76499992E+02  0.27875E+04
 0.76549995E+02  0.27044E+04
 0.76599998E+02  0.27555E+04
 0.76649994E+02  0.28044E+04
 0.76699997E+02  0.29543E+04
 0.76749992E+02  0.29399E+04
 0.76799995E+02  0.27914E+04
 0.76849998E+02  0.28265E+04
 0.76899994E+02  0.26920E+04
 0.76949997E+02  0.25224E+04
 0.76999992E+02  0.25654E+04
 0.77049995E+02  0.28356E+04
 0.77099998E+02  0.28757E+04
 0.77149994E+02  0.28048E+04
 0.77199997E+02  0.29978E+04
 0.77249992E+02  0.31560E+04
 0.77299995E+02  0.33011E+04
 0.77349998E+02  0.30747E+04
 0.77399994E+02  0.29618E+04
 0.77449997E+02  0.31447E+04
 0.77499992E+02  0.31566E+04
 0.77549995E+02  0.30714E+04
 0.77599998E+02  0.31665E+04
 0.77649994E+02  0.33732E+04
 0.77699997E+02  0.31756E+04
 0.77749992E+02  0.29085E+04
 0.77799995E+02  0.29953E+04
 0.77849998E+02  0.30470E+04
 0.77899994E+02  0.29041E+04
 0.77949997E+02  0.30266E+04
 0.77999992E+02  0.32697E+04
 0.78049995E+02  0.32250E+04
 0.78099998E+02  0.29950E+04
 0.78149994E+02  0.30554E+04
 0.78199997E+02  0.30956E+04
 0.78249992E+02  0.28357E+04
 0.78299995E+02  0.27089E+04
 0.78349998E+02  0.28009E+04
 0.78399994E+02  0.30207E+04
 0.78449997E+02  0.29950E+04
 0.78499992E+02  0.28399E+04
 0.78549995E+02  0.29008E+04
 0.78599998E+02  0.29470E+04
 0.78649994E+02  0.28415E+04
 0.78699997E+02  0.28084E+04
 0.78749992E+02  0.28265E+04
 0.78799995E+02  0.28573E+04
 0.78849998E+02  0.31284E+04
 0.78899994E+02  0.31344E+04
 0.78949997E+02  0.29805E+04
 0.78999992E+02  0.29316E+04
 0.79049995E+02  0.29413E+04
 0.79099998E+02  0.29315E+04
 0.79149994E+02  0.28272E+04
 0.79199997E+02  0.27059E+04
 0.79249992E+02  0.26160E+04
 0.79299995E+02  0.28137E+04
 0.79349998E+02  0.30792E+04
 0.79399994E+02  0.31525E+04
 0.79449997E+02  0.31746E+04
 0.79499992E+02  0.31005E+04
 0.79549995E+02  0.29437E+04
 0.79599998E+02  0.29908E+04
 0.79649994E+02  0.31000E+04
 0.79699997E+02  0.30914E+04
 0.79749992E+02  0.27101E+04
 0.79799995E+02  0.26758E+04
 0.79849998E+02  0.28169E+04
 0.79899994E+02  0.26634E+04
 0.79949997E+02  0.26836E+04
 0.79999992E+02  0.28383E+04
 0.80049995E+02  0.28520E+04
 0.80099998E+02  0.27889E+04
 0.80149994E+02  0.28730E+04
 0.80199997E+02  0.28806E+04
 0.80249992E+02  0.28705E+04
 0.80299995E+02  0.28183E+04
 0.80349998E+02  0.28654E+04
 0.80399994E+02  0.29742E+04
 0.80449997E+02  0.29085E+04
 0.80499992E+02  0.29217E+04
 0.80549995E+02  0.31734E+04
 0.80599998E+02  0.31989E+04
 0.80649994E+02  0.32151E+04
 0.80699997E+02  0.33003E+04
 0.80749992E+02  0.32481E+04
 0.80799995E+02  0.30922E+04
 0.80849998E+02  0.28854E+04
 0.80899994E+02  0.29204E+04
 0.80949997E+02  0.28423E+04
 0.80999992E+02  0.26767E+04
 0.81049995E+02  0.26783E+04
 0.81099998E+02  0.28333E+04
 0.81149994E+02  0.28584E+04
 0.81199997E+02  0.27802E+04
 0.81249992E+02  0.28942E+04
 0.81299995E+02  0.30082E+04
 0.81349998E+02  0.29979E+04
 0.81399994E+02  0.30999E+04
 0.81449997E+02  0.31842E+04
 0.81499992E+02  0.30512E+04
 0.81549995E+02  0.30104E+04
 0.81599998E+02  0.29617E+04
 0.81649994E+02  0.28124E+04
 0.81699997E+02  0.27359E+04
 0.81749992E+02  0.27582E+04
 0.81799995E+02  0.29704E+04
 0.81849998E+02  0.31755E+04
 0.81899994E+02  0.30671E+04
 0.81949997E+02  0.30301E+04
 0.81999992E+02  0.29125E+04
 0.82049995E+02  0.28379E+04
 0.82099998E+02  0.29121E+04
 0.82149994E+02  0.27853E+04
 0.82199997E+02  0.28919E+04
 0.82249992E+02  0.30246E+04
 0.82299995E+02  0.30264E+04
 0.82349998E+02  0.29561E+04
 0.82399994E+02  0.28143E+04
 0.82449997E+02  0.27522E+04
 0.82499992E+02  0.26839E+04
 0.82549995E+02  0.25472E+04
 0.82599998E+02  0.25441E+04
 0.82649994E+02  0.25109E+04
 0.82699997E+02  0.24407E+04
 0.82749992E+02  0.25341E+04
 0.82799995E+02  0.27173E+04
 0.82849998E+02  0.29098E+04
 0.82899994E+02  0.28943E+04
 0.82949997E+02  0.30204E+04
 0.82999992E+02  0.30862E+04
 0.83049995E+02  0.32285E+04
 0.83099998E+02  0.34074E+04
 0.83149994E+02  0.34314E+04
 0.83199997E+02  0.35534E+04
 0.83249992E+02  0.35437E+04
 0.83299995E+02  0.33256E+04
 0.83349998E+02  0.33129E+04
 0.83399994E+02  0.35277E+04
 0.83449997E+02  0.33596E+04
 0.83499992E+02  0.31804E+04
 0.83549995E+02  0.31104E+04
 0.83599998E+02  0.29834E+04
 0.83649994E+02  0.27759E+04
 0.83699997E+02  0.26431E+04
 0.83749992E+02  0.26487E+04
 0.83799995E+02  0.26359E+04
 0.83849998E+02  0.26977E+04
 0.83899994E+02  0.27306E+04
 0.83949997E+02  0.26020E+04
 0.83999992E+02  0.24620E+04
 0.84049995E+02  0.25154E+04
 0.84099998E+02  0.27659E+04
 0.84149994E+02  0.29592E+04
 0.84199997E+02  0.29509E+04
 0.84249992E+02  0.28640E+04
 0.84299995E+02  0.27779E+04
 0.84349998E+02  0.28055E+04
 0.84399994E+02  0.28810E+04
 0.84449997E+02  0.28239E+04
 0.84499992E+02  0.27754E+04
 0.84549995E+02  0.28688E+04
 0.84599998E+02  0.28099E+04
 0.84649994E+02  0.28155E+04
 0.84699997E+02  0.30138E+04
 0.84749992E+02  0.31334E+04
 0.84799995E+02  0.30754E+04
 0.84849998E+02  0.29255E+04
 0.84899994E+02  0.28159E+04
 0.84949997E+02  0.26633E+04
 0.84999992E+02  0.26971E+04
 0.85049995E+02  0.28397E+04
 0.85099998E+02  0.29658E+04
 0.85149994E+02  0.30624E+04
 0.85199997E+02  0.30103E+04
 0.85249992E+02  0.29474E+04
 0.85299995E+02  0.29288E+04
 0.85349998E+02  0.29601E+04
 0.85399994E+02  0.30211E+04
 0.85449997E+02  0.30355E+04
 0.85499992E+02  0.30268E+04
 0.85549995E+02  0.29958E+04
 0.85599998E+02  0.29907E+04
 0.85649994E+02  0.29871E+04
 0.85699997E+02  0.28968E+04
 0.85749992E+02  0.29592E+04
 0.85799995E+02  0.29414E+04
 0.85849998E+02  0.29566E+04
 0.85899994E+02  0.31221E+04
 0.85949997E+02  0.31057E+04
 0.85999992E+02  0.30692E+04
 0.86049995E+02  0.30091E+04
 0.86099998E+02  0.29241E+04
 0.86149994E+02  0.29232E+04
 0.86199997E+02  0.29884E+04
 0.86249992E+02  0.29028E+04
 0.86299995E+02  0.28083E+04
 0.86349998E+02  0.28788E+04
 0.86399994E+02  0.29431E+04
 0.86449997E+02  0.30173E+04
 0.86499992E+02  0.30593E+04
 0.86549995E+02  0.30980E+04
 0.86599998E+02  0.31472E+04
 0.86649994E+02  0.30883E+04
 0.86699997E+02  0.30259E+04
 0.86749992E+02  0.29417E+04
 0.86799995E+02  0.28448E+04
 0.86849998E+02  0.28700E+04
 0.86899994E+02  0.28978E+04
 0.86949997E+02  0.29236E+04
 0.86999992E+02  0.29440E+04
 0.87049995E+02  0.29889E+04
 0.87099998E+02  0.30076E+04
 0.87149994E+02  0.28806E+04
 0.87199997E+02  0.28945E+04
 0.87249992E+02  0.29957E+04
 0.87299995E+02  0.30211E+04
 0.87349998E+02  0.31869E+04
 0.87399994E+02  0.31548E+04
 0.87449997E+02  0.28882E+04
 0.87499992E+02  0.27947E+04
 0.87549995E+02  0.27797E+04
 0.87599991E+02  0.27428E+04
 0.87649994E+02  0.28277E+04
 0.87699997E+02  0.29606E+04
 0.87749992E+02  0.29759E+04
 0.87799995E+02  0.29746E+04
 0.87849991E+02  0.29360E+04
 0.87899994E+02  0.29339E+04
 0.87949997E+02  0.28924E+04
 0.87999992E+02  0.27789E+04
 0.88049995E+02  0.27535E+04
 0.88099991E+02  0.27930E+04
 0.88149994E+02  0.28202E+04
 0.88199997E+02  0.28583E+04
 0.88249992E+02  0.29465E+04
 0.88299995E+02  0.29475E+04
 0.88349991E+02  0.28459E+04
 0.88399994E+02  0.28272E+04
 0.88449997E+02  0.29245E+04
 0.88499992E+02  0.29728E+04
 0.88549995E+02  0.29418E+04
 0.88599991E+02  0.27740E+04
 0.88649994E+02  0.26908E+04
 0.88699997E+02  0.27105E+04
 0.88749992E+02  0.27337E+04
 0.88799995E+02  0.28287E+04
 0.88849991E+02  0.28617E+04
 0.88899994E+02  0.29173E+04
 0.88949997E+02  0.30799E+04
 0.88999992E+02  0.32420E+04
 0.89049995E+02  0.33170E+04
 0.89099991E+02  0.33226E+04
 0.89149994E+02  0.32413E+04
 0.89199997E+02  0.31330E+04
 0.89249992E+02  0.30629E+04
 0.89299995E+02  0.30772E+04
 0.89349991E+02  0.30490E+04
 0.89399994E+02  0.30575E+04
 0.89449997E+02  0.30963E+04
 0.89499992E+02  0.30205E+04
 0.89549995E+02  0.30183E+04
 0.89599991E+02  0.29826E+04
 0.89649994E+02  0.30067E+04
 0.89699997E+02  0.30853E+04
 0.89749992E+02  0.30963E+04
 0.89799995E+02  0.31269E+04
 0.89849991E+02  0.30917E+04
 0.89899994E+02  0.28862E+04
 0.89949997E+02  0.27734E+04
 0.89999992E+02  0.28668E+04
 0.90049995E+02  0.28210E+04
 0.90099991E+02  0.28488E+04
 0.90149994E+02  0.29205E+04
 0.90199997E+02  0.28290E+04
 0.90249992E+02  0.27595E+04
 0.90299995E+02  0.26921E+04
 0.90349991E+02  0.26694E+04
 0.90399994E+02  0.27582E+04
 0.90449997E+02  0.28863E+04
 0.90499992E+02  0.29452E+04
 0.90549995E+02  0.29709E+04
 0.90599991E+02  0.29812E+04
 0.90649994E+02  0.30573E+04
 0.90699997E+02  0.31581E+04
 0.90749992E+02  0.31877E+04
 0.90799995E+02  0.31255E+04
 0.90849991E+02  0.30069E+04
 0.90899994E+02  0.29602E+04
 0.90949997E+02  0.29125E+04
 0.90999992E+02  0.28435E+04
 0.91049995E+02  0.27837E+04
 0.91099991E+02  0.28690E+04
 0.91149994E+02  0.29330E+04
 0.91199997E+02  0.28450E+04
 0.91249992E+02  0.28283E+04
 0.91299995E+02  0.27768E+04
 0.91349991E+02  0.26532E+04
 0.91399994E+02  0.26680E+04
 0.91449997E+02  0.28651E+04
 0.91499992E+02  0.29624E+04
 0.91549995E+02  0.28751E+04
 0.91599991E+02  0.28334E+04
 0.91649994E+02  0.29425E+04
 0.91699997E+02  0.29606E+04
 0.91749992E+02  0.28584E+04
 0.91799995E+02  0.28706E+04
 0.91849991E+02  0.27631E+04
 0.91899994E+02  0.27617E+04
 0.91949997E+02  0.28361E+04
 0.91999992E+02  0.28895E+04
 0.92049995E+02  0.30246E+04
 0.92099991E+02  0.29242E+04
 0.92149994E+02  0.28247E+04
 0.92199997E+02  0.28681E+04
 0.92249992E+02  0.29330E+04
 0.92299995E+02  0.29465E+04
 0.92349991E+02  0.29627E+04
 0.92399994E+02  0.29590E+04
 0.92449997E+02  0.28747E+04
 0.92499992E+02  0.29268E+04
 0.92549995E+02  0.30630E+04
 0.92599991E+02  0.31154E+04
 0.92649994E+02  0.30479E+04
 0.92699997E+02  0.29983E+04
 0.92749992E+02  0.31086E+04
 0.92799995E+02  0.30801E+04
 0.92849991E+02  0.29560E+04
 0.92899994E+02  0.29721E+04
 0.92949997E+02  0.30095E+04
 0.92999992E+02  0.30658E+04
 0.93049995E+02  0.30856E+04
 0.93099991E+02  0.30492E+04
 0.93149994E+02  0.30651E+04
 0.93199997E+02  0.31462E+04
 0.93249992E+02  0.30715E+04
 0.93299995E+02  0.29018E+04
 0.93349991E+02  0.28625E+04
 0.93399994E+02  0.27785E+04
 0.93449997E+02  0.27645E+04
 0.93499992E+02  0.27586E+04
 0.93549995E+02  0.27587E+04
 0.93599991E+02  0.28723E+04
 0.93649994E+02  0.29926E+04
 0.93699997E+02  0.30153E+04
 0.93749992E+02  0.29291E+04
 0.93799995E+02  0.28834E+04
 0.93849991E+02  0.28442E+04
 0.93899994E+02  0.28300E+04
 0.93949997E+02  0.28452E+04
 0.93999992E+02  0.29030E+04
 0.94049995E+02  0.29448E+04
 0.94099991E+02  0.28901E+04
 0.94149994E+02  0.28762E+04
 0.94199997E+02  0.28590E+04
 0.94249992E+02  0.28064E+04
 0.94299995E+02  0.28141E+04
 0.94349991E+02  0.28901E+04
 0.94399994E+02  0.28864E+04
 0.94449997E+02  0.28142E+04
 0.94499992E+02  0.29416E+04
 0.94549995E+02  0.29953E+04
 0.94599991E+02  0.30147E+04
 0.94649994E+02  0.30982E+04
 0.94699997E+02  0.30396E+04
 0.94749992E+02  0.30370E+04
 0.94799995E+02  0.31519E+04
 0.94849991E+02  0.31779E+04
 0.94899994E+02  0.30489E+04
 0.94949997E+02  0.29711E+04
 0.94999992E+02  0.28916E+04
 0.95049995E+02  0.28267E+04
 0.95099991E+02  0.27856E+04
 0.95149994E+02  0.27252E+04
 0.95199997E+02  0.27471E+04
 0.95249992E+02  0.28352E+04
 0.95299995E+02  0.29286E+04
 0.95349991E+02  0.29676E+04
 0.95399994E+02  0.30828E+04
 0.95449997E+02  0.30579E+04
 0.95499992E+02  0.29109E+04
 0.95549995E+02  0.29412E+04
 0.95599991E+02  0.30813E+04
 0.95649994E+02  0.32159E+04
 0.95699997E+02  0.31936E+04
 0.95749992E+02  0.30772E+04
 0.95799995E+02  0.29855E+04
 0.95849991E+02  0.28806E+04
 0.95899994E+02  0.28752E+04
 0.95949997E+02  0.29260E+04
 0.95999992E+02  0.29680E+04
 0.96049995E+02  0.28853E+04
 0.96099991E+02  0.28131E+04
 0.96149994E+02  0.28755E+04
 0.96199997E+02  0.28756E+04
 0.96249992E+02  0.28736E+04
 0.96299995E+02  0.28440E+04
 0.96349991E+02  0.28670E+04
 0.96399994E+02  0.28108E+04
 0.96449997E+02  0.27737E+04
 0.96499992E+02  0.28652E+04
 0.96549995E+02  0.28721E+04
 0.96599991E+02  0.28027E+04
 0.96649994E+02  0.27579E+04
 0.96699997E+02  0.28442E+04
 0.96749992E+02  0.28605E+04
 0.96799995E+02  0.28648E+04
 0.96849991E+02  0.29663E+04
 0.96899994E+02  0.30921E+04
 0.96949997E+02  0.31558E+04
 0.96999992E+02  0.31178E+04
 0.97049995E+02  0.30817E+04
 0.97099991E+02  0.29862E+04
 0.97149994E+02  0.28962E+04
 0.97199997E+02  0.29326E+04
 0.97249992E+02  0.29972E+04
 0.97299995E+02  0.29915E+04
 0.97349991E+02  0.29732E+04
 0.97399994E+02  0.30514E+04
 0.97449997E+02  0.31523E+04
 0.97499992E+02  0.31428E+04
 0.97549995E+02  0.31136E+04
 0.97599991E+02  0.31114E+04
 0.97649994E+02  0.29986E+04
 0.97699997E+02  0.28575E+04
 0.97749992E+02  0.28130E+04
 0.97799995E+02  0.28443E+04
 0.97849991E+02  0.29765E+04
 0.97899994E+02  0.30985E+04
 0.97949997E+02  0.30330E+04
 0.97999992E+02  0.29451E+04
