-0.20000000E+01 -0.40624E+03
-0.19500000E+01 -0.40580E+03
-0.19000000E+01 -0.40883E+03
-0.18500000E+01 -0.40283E+03
-0.18000000E+01 -0.39749E+03
-0.17500000E+01 -0.39704E+03
-0.17000000E+01 -0.40339E+03
-0.16500001E+01 -0.41033E+03
-0.16000000E+01 -0.41392E+03
-0.15500000E+01 -0.41710E+03
-0.15000000E+01 -0.41445E+03
-0.14500000E+01 -0.41210E+03
-0.14000001E+01 -0.41068E+03
-0.13500000E+01 -0.40400E+03
-0.13000001E+01 -0.40309E+03
-0.12500000E+01 -0.40262E+03
-0.12000000E+01 -0.39846E+03
-0.11500001E+01 -0.39148E+03
-0.11000000E+01 -0.38303E+03
-0.10500001E+01 -0.37866E+03
-0.10000000E+01 -0.37211E+03
-0.95000005E+00 -0.36801E+03
-0.90000010E+00 -0.36746E+03
-0.85000002E+00 -0.37254E+03
-0.80000007E+00 -0.37638E+03
-0.75000012E+00 -0.39059E+03
-0.70000005E+00 -0.39451E+03
-0.65000010E+00 -0.40083E+03
-0.60000014E+00 -0.40879E+03
-0.55000007E+00 -0.41375E+03
-0.50000012E+00 -0.41633E+03
-0.45000005E+00 -0.41957E+03
-0.40000010E+00 -0.43608E+03
-0.35000014E+00 -0.44064E+03
-0.30000007E+00 -0.44044E+03
-0.25000012E+00 -0.43394E+03
-0.20000005E+00 -0.42480E+03
-0.15000010E+00 -0.42234E+03
-0.10000014E+00 -0.42414E+03
-0.50000072E-01 -0.42178E+03
-0.11920929E-06 -0.42673E+03
 0.49999952E-01 -0.42869E+03
 0.99999905E-01 -0.42748E+03
 0.14999986E+00 -0.42608E+03
 0.19999981E+00 -0.41848E+03
 0.24999976E+00 -0.41151E+03
 0.29999995E+00 -0.40211E+03
 0.34999990E+00 -0.39688E+03
 0.39999986E+00 -0.39865E+03
 0.44999981E+00 -0.39839E+03
 0.49999976E+00 -0.39802E+03
 0.54999995E+00 -0.40384E+03
 0.59999990E+00 -0.40696E+03
 0.64999986E+00 -0.41753E+03
 0.69999981E+00 -0.42786E+03
 0.74999976E+00 -0.42982E+03
 0.79999971E+00 -0.42735E+03
 0.84999990E+00 -0.42255E+03
 0.89999986E+00 -0.42612E+03
 0.94999981E+00 -0.42292E+03
 0.99999976E+00 -0.41572E+03
 0.10499997E+01 -0.41339E+03
 0.10999999E+01 -0.41076E+03
 0.11499999E+01 -0.41559E+03
 0.11999998E+01 -0.41728E+03
 0.12499998E+01 -0.41984E+03
 0.12999997E+01 -0.42128E+03
 0.13499999E+01 -0.41807E+03
 0.13999999E+01 -0.41316E+03
 0.14499998E+01 -0.41072E+03
 0.14999998E+01 -0.40840E+03
 0.15499997E+01 -0.40618E+03
 0.15999999E+01 -0.40609E+03
 0.16499999E+01 -0.40549E+03
 0.16999998E+01 -0.40618E+03
 0.17499998E+01 -0.40729E+03
 0.17999997E+01 -0.41262E+03
 0.18499997E+01 -0.41260E+03
 0.18999999E+01 -0.41041E+03
 0.19499998E+01 -0.40571E+03
 0.19999998E+01 -0.39704E+03
 0.20499997E+01 -0.39669E+03
 0.20999999E+01 -0.40094E+03
 0.21499996E+01 -0.39730E+03
 0.21999998E+01 -0.39108E+03
 0.22499995E+01 -0.39393E+03
 0.22999997E+01 -0.39983E+03
 0.23499999E+01 -0.40103E+03
 0.23999996E+01 -0.40563E+03
 0.24499998E+01 -0.41656E+03
 0.24999995E+01 -0.42717E+03
 0.25499997E+01 -0.43302E+03
 0.25999999E+01 -0.43682E+03
 0.26499996E+01 -0.43616E+03
 0.26999998E+01 -0.43904E+03
 0.27499995E+01 -0.44104E+03
 0.27999997E+01 -0.43762E+03
 0.28499999E+01 -0.43089E+03
 0.28999996E+01 -0.42626E+03
 0.29499998E+01 -0.41883E+03
 0.29999995E+01 -0.40704E+03
 0.30499997E+01 -0.39694E+03
 0.30999999E+01 -0.38660E+03
 0.31499996E+01 -0.37897E+03
 0.31999998E+01 -0.36718E+03
 0.32499995E+01 -0.35923E+03
 0.32999997E+01 -0.36464E+03
 0.33499999E+01 -0.38291E+03
 0.33999996E+01 -0.39414E+03
 0.34499998E+01 -0.40453E+03
 0.34999995E+01 -0.41208E+03
 0.35499997E+01 -0.41913E+03
 0.35999994E+01 -0.43345E+03
 0.36499996E+01 -0.43393E+03
 0.36999998E+01 -0.42423E+03
 0.37499995E+01 -0.41326E+03
 0.37999997E+01 -0.40631E+03
 0.38499994E+01 -0.40486E+03
 0.38999996E+01 -0.40110E+03
 0.39499998E+01 -0.40157E+03
 0.39999995E+01 -0.40449E+03
 0.40499997E+01 -0.39657E+03
 0.40999994E+01 -0.39103E+03
 0.41499996E+01 -0.39515E+03
 0.41999998E+01 -0.39456E+03
 0.42499995E+01 -0.39131E+03
 0.42999997E+01 -0.40297E+03
 0.43499994E+01 -0.41123E+03
 0.43999996E+01 -0.41708E+03
 0.44499998E+01 -0.42203E+03
 0.44999995E+01 -0.42180E+03
 0.45499997E+01 -0.42577E+03
 0.45999994E+01 -0.43096E+03
 0.46499996E+01 -0.43583E+03
 0.46999998E+01 -0.43383E+03
 0.47499995E+01 -0.43249E+03
 0.47999997E+01 -0.43448E+03
 0.48499994E+01 -0.43027E+03
 0.48999996E+01 -0.41786E+03
 0.49499998E+01 -0.41009E+03
 0.49999995E+01 -0.40734E+03
 0.50499997E+01 -0.40750E+03
 0.50999994E+01 -0.40596E+03
 0.51499996E+01 -0.40599E+03
 0.51999998E+01 -0.40559E+03
 0.52499995E+01 -0.40468E+03
 0.52999997E+01 -0.40402E+03
 0.53499994E+01 -0.39756E+03
 0.53999996E+01 -0.39619E+03
 0.54499993E+01 -0.39420E+03
 0.54999995E+01 -0.39811E+03
 0.55499997E+01 -0.40239E+03
 0.55999994E+01 -0.40791E+03
 0.56499996E+01 -0.41192E+03
 0.56999993E+01 -0.40834E+03
 0.57499995E+01 -0.40006E+03
 0.57999997E+01 -0.39470E+03
 0.58499994E+01 -0.39980E+03
 0.58999996E+01 -0.39703E+03
 0.59499993E+01 -0.39073E+03
 0.59999995E+01 -0.38746E+03
 0.60499992E+01 -0.38995E+03
 0.60999994E+01 -0.39838E+03
 0.61499996E+01 -0.40568E+03
 0.61999998E+01 -0.41312E+03
 0.62499990E+01 -0.42143E+03
 0.62999992E+01 -0.42421E+03
 0.63499994E+01 -0.42729E+03
 0.63999996E+01 -0.42894E+03
 0.64499998E+01 -0.42556E+03
 0.64999990E+01 -0.41783E+03
 0.65499992E+01 -0.40389E+03
 0.65999994E+01 -0.40080E+03
 0.66499996E+01 -0.40298E+03
 0.66999998E+01 -0.40361E+03
 0.67499990E+01 -0.40134E+03
 0.67999992E+01 -0.40085E+03
 0.68499994E+01 -0.40282E+03
 0.68999996E+01 -0.40477E+03
 0.69499998E+01 -0.41454E+03
 0.69999990E+01 -0.41472E+03
 0.70499992E+01 -0.41341E+03
 0.70999994E+01 -0.41087E+03
 0.71499996E+01 -0.40918E+03
 0.71999998E+01 -0.40883E+03
 0.72499990E+01 -0.40880E+03
 0.72999992E+01 -0.42012E+03
 0.73499994E+01 -0.42247E+03
 0.73999996E+01 -0.42339E+03
 0.74499998E+01 -0.43030E+03
 0.74999990E+01 -0.44050E+03
 0.75499992E+01 -0.44670E+03
 0.75999994E+01 -0.44769E+03
 0.76499996E+01 -0.45347E+03
 0.76999998E+01 -0.46008E+03
 0.77499990E+01 -0.45953E+03
 0.77999992E+01 -0.45494E+03
 0.78499994E+01 -0.44693E+03
 0.78999996E+01 -0.43622E+03
 0.79499998E+01 -0.42780E+03
 0.79999990E+01 -0.42704E+03
 0.80499992E+01 -0.42167E+03
 0.80999994E+01 -0.41394E+03
 0.81499996E+01 -0.40964E+03
 0.81999998E+01 -0.40713E+03
 0.82499990E+01 -0.40796E+03
 0.82999992E+01 -0.40802E+03
 0.83499994E+01 -0.40859E+03
 0.83999996E+01 -0.39819E+03
 0.84499998E+01 -0.39057E+03
 0.84999990E+01 -0.38319E+03
 0.85499992E+01 -0.38640E+03
 0.85999994E+01 -0.38387E+03
 0.86499996E+01 -0.38259E+03
 0.86999998E+01 -0.38389E+03
 0.87499990E+01 -0.38207E+03
 0.87999992E+01 -0.39150E+03
 0.88499994E+01 -0.38855E+03
 0.88999996E+01 -0.39483E+03
 0.89499998E+01 -0.39667E+03
 0.89999990E+01 -0.39191E+03
 0.90499992E+01 -0.38881E+03
 0.90999994E+01 -0.38935E+03
 0.91499996E+01 -0.39193E+03
 0.91999989E+01 -0.39190E+03
 0.92499990E+01 -0.39253E+03
 0.92999992E+01 -0.39625E+03
 0.93499994E+01 -0.40176E+03
 0.93999996E+01 -0.40559E+03
 0.94499989E+01 -0.41408E+03
 0.94999990E+01 -0.41789E+03
 0.95499992E+01 -0.41813E+03
 0.95999994E+01 -0.41490E+03
 0.96499996E+01 -0.41862E+03
 0.96999989E+01 -0.41965E+03
 0.97499990E+01 -0.42020E+03
 0.97999992E+01 -0.42217E+03
 0.98499994E+01 -0.41948E+03
 0.98999996E+01 -0.42269E+03
 0.99499989E+01 -0.42043E+03
 0.99999990E+01 -0.41527E+03
 0.10049999E+02 -0.41285E+03
 0.10099999E+02 -0.41656E+03
 0.10150000E+02 -0.41620E+03
 0.10199999E+02 -0.41396E+03
 0.10249999E+02 -0.41450E+03
 0.10299999E+02 -0.41406E+03
 0.10349999E+02 -0.42116E+03
 0.10400000E+02 -0.41386E+03
 0.10449999E+02 -0.41153E+03
 0.10499999E+02 -0.41333E+03
 0.10549999E+02 -0.41487E+03
 0.10599999E+02 -0.41575E+03
 0.10650000E+02 -0.41131E+03
 0.10699999E+02 -0.41025E+03
 0.10749999E+02 -0.40799E+03
 0.10799999E+02 -0.41497E+03
 0.10849999E+02 -0.41296E+03
 0.10900000E+02 -0.41765E+03
 0.10949999E+02 -0.42019E+03
 0.10999999E+02 -0.41623E+03
 0.11049999E+02 -0.41790E+03
 0.11099999E+02 -0.41713E+03
 0.11150000E+02 -0.41332E+03
 0.11199999E+02 -0.40461E+03
 0.11249999E+02 -0.40079E+03
 0.11299999E+02 -0.40042E+03
 0.11349999E+02 -0.40557E+03
 0.11400000E+02 -0.40726E+03
 0.11449999E+02 -0.40768E+03
 0.11499999E+02 -0.40853E+03
 0.11549999E+02 -0.40443E+03
 0.11599999E+02 -0.40635E+03
 0.11650000E+02 -0.41402E+03
 0.11699999E+02 -0.41537E+03
 0.11749999E+02 -0.41678E+03
 0.11799999E+02 -0.41750E+03
 0.11849999E+02 -0.41553E+03
 0.11900000E+02 -0.42268E+03
 0.11949999E+02 -0.42834E+03
 0.11999999E+02 -0.42805E+03
 0.12049999E+02 -0.42496E+03
 0.12099999E+02 -0.42358E+03
 0.12150000E+02 -0.42763E+03
 0.12199999E+02 -0.43403E+03
 0.12249999E+02 -0.43640E+03
 0.12299999E+02 -0.43587E+03
 0.12349999E+02 -0.42838E+03
 0.12400000E+02 -0.42261E+03
 0.12449999E+02 -0.41692E+03
 0.12499999E+02 -0.41028E+03
 0.12549999E+02 -0.40468E+03
 0.12599999E+02 -0.39452E+03
 0.12649999E+02 -0.38741E+03
 0.12699999E+02 -0.38480E+03
 0.12749999E+02 -0.38493E+03
 0.12799999E+02 -0.38983E+03
 0.12849999E+02 -0.39752E+03
 0.12899999E+02 -0.40111E+03
 0.12949999E+02 -0.40184E+03
 0.12999999E+02 -0.39830E+03
 0.13049999E+02 -0.39971E+03
 0.13099999E+02 -0.39551E+03
 0.13149999E+02 -0.39636E+03
 0.13199999E+02 -0.40287E+03
 0.13249999E+02 -0.40665E+03
 0.13299999E+02 -0.41037E+03
 0.13349999E+02 -0.40960E+03
 0.13399999E+02 -0.41573E+03
 0.13449999E+02 -0.41613E+03
 0.13499999E+02 -0.41462E+03
 0.13549999E+02 -0.41165E+03
 0.13599999E+02 -0.40997E+03
 0.13649999E+02 -0.40590E+03
 0.13699999E+02 -0.39794E+03
 0.13749999E+02 -0.39212E+03
 0.13799999E+02 -0.38683E+03
 0.13849999E+02 -0.39523E+03
 0.13899999E+02 -0.40254E+03
 0.13949999E+02 -0.40820E+03
 0.13999999E+02 -0.41565E+03
 0.14049999E+02 -0.42322E+03
 0.14099998E+02 -0.42759E+03
 0.14150000E+02 -0.43192E+03
 0.14199999E+02 -0.43636E+03
 0.14249998E+02 -0.43816E+03
 0.14299999E+02 -0.43898E+03
 0.14349998E+02 -0.44139E+03
 0.14400000E+02 -0.44351E+03
 0.14449999E+02 -0.44639E+03
 0.14499998E+02 -0.44367E+03
 0.14549999E+02 -0.43635E+03
 0.14599998E+02 -0.43210E+03
 0.14650000E+02 -0.42269E+03
 0.14699999E+02 -0.41731E+03
 0.14749998E+02 -0.41458E+03
 0.14799999E+02 -0.41136E+03
 0.14849998E+02 -0.40661E+03
 0.14900000E+02 -0.41102E+03
 0.14949999E+02 -0.41556E+03
 0.14999998E+02 -0.41624E+03
 0.15049999E+02 -0.41284E+03
 0.15099998E+02 -0.40902E+03
 0.15150000E+02 -0.40169E+03
 0.15199999E+02 -0.39631E+03
 0.15249998E+02 -0.40169E+03
 0.15299999E+02 -0.40619E+03
 0.15349998E+02 -0.41668E+03
 0.15400000E+02 -0.41514E+03
 0.15449999E+02 -0.41480E+03
 0.15499998E+02 -0.41340E+03
 0.15549999E+02 -0.40770E+03
 0.15599998E+02 -0.41103E+03
 0.15650000E+02 -0.40969E+03
 0.15699999E+02 -0.40637E+03
 0.15749998E+02 -0.40179E+03
 0.15799999E+02 -0.39839E+03
 0.15849998E+02 -0.39683E+03
 0.15900000E+02 -0.39973E+03
 0.15949999E+02 -0.39971E+03
 0.15999998E+02 -0.40015E+03
 0.16049999E+02 -0.40144E+03
 0.16099998E+02 -0.40949E+03
 0.16150000E+02 -0.41901E+03
 0.16199999E+02 -0.42371E+03
 0.16249998E+02 -0.43046E+03
 0.16299999E+02 -0.43096E+03
 0.16349998E+02 -0.43409E+03
 0.16400000E+02 -0.43640E+03
 0.16449999E+02 -0.43665E+03
 0.16499998E+02 -0.43247E+03
 0.16549999E+02 -0.42044E+03
 0.16599998E+02 -0.41151E+03
 0.16650000E+02 -0.40601E+03
 0.16699999E+02 -0.40856E+03
 0.16749998E+02 -0.40649E+03
 0.16799999E+02 -0.40588E+03
 0.16849998E+02 -0.40143E+03
 0.16900000E+02 -0.39673E+03
 0.16949999E+02 -0.39127E+03
 0.16999998E+02 -0.39791E+03
 0.17049999E+02 -0.39655E+03
 0.17099998E+02 -0.40518E+03
 0.17150000E+02 -0.40641E+03
 0.17199999E+02 -0.39812E+03
 0.17249998E+02 -0.39046E+03
 0.17299999E+02 -0.39224E+03
 0.17349998E+02 -0.34933E+03
 0.17400000E+02 -0.26271E+03
 0.17449999E+02 -0.16348E+03
 0.17499998E+02 -0.15990E+03
 0.17549999E+02 -0.42817E+03
 0.17599998E+02 -0.70999E+03
 0.17650000E+02 -0.87205E+03
 0.17699999E+02 -0.52097E+03
 0.17749998E+02 -0.97287E+02
 0.17799999E+02 -0.80892E+02
 0.17849998E+02 -0.24401E+03
 0.17900000E+02 -0.43467E+03
 0.17949999E+02 -0.38411E+03
 0.17999998E+02 -0.16326E+03
 0.18049999E+02 -0.47398E+02
 0.18099998E+02  0.65932E+02
 0.18150000E+02  0.37862E+03
 0.18199999E+02 -0.19088E+02
 0.18249998E+02 -0.15602E+04
 0.18299999E+02 -0.16342E+04
 0.18349998E+02 -0.14652E+04
 0.18400000E+02 -0.15848E+03
 0.18449999E+02  0.12797E+04
 0.18499998E+02 -0.50445E+03
 0.18549999E+02 -0.19174E+04
 0.18599998E+02 -0.12802E+04
 0.18650000E+02  0.24449E+03
 0.18699999E+02  0.10119E+04
 0.18749998E+02  0.23657E+03
 0.18799999E+02 -0.13511E+03
 0.18849998E+02 -0.19724E+03
 0.18900000E+02 -0.10717E+04
 0.18949999E+02 -0.24461E+04
 0.18999998E+02 -0.16911E+04
 0.19049999E+02  0.62087E+03
 0.19099998E+02 -0.19313E+03
 0.19150000E+02 -0.81918E+03
 0.19199999E+02 -0.17049E+04
 0.19249998E+02 -0.16750E+04
 0.19299999E+02 -0.66774E+03
 0.19349998E+02  0.85750E+03
 0.19400000E+02  0.15795E+04
 0.19449999E+02 -0.44875E+03
 0.19499998E+02 -0.45750E+03
 0.19549999E+02  0.62762E+03
 0.19599998E+02  0.52589E+03
 0.19650000E+02 -0.91323E+03
 0.19699999E+02 -0.17163E+04
 0.19749998E+02 -0.71834E+03
 0.19799999E+02  0.95938E+02
 0.19849998E+02 -0.82883E+03
 0.19900000E+02 -0.10846E+04
 0.19949999E+02 -0.68488E+03
 0.19999998E+02 -0.70964E+02
 0.20049999E+02 -0.24356E+03
 0.20099998E+02 -0.13414E+04
 0.20150000E+02  0.15152E+04
 0.20199999E+02  0.26454E+04
 0.20249998E+02  0.74460E+02
 0.20299999E+02 -0.23848E+04
 0.20349998E+02 -0.16675E+04
 0.20399998E+02  0.50422E+03
 0.20449999E+02 -0.48752E+03
 0.20499998E+02  0.34923E+03
 0.20549999E+02  0.90879E+03
 0.20599998E+02 -0.41454E+04
 0.20649998E+02 -0.43376E+04
 0.20699999E+02  0.16011E+04
 0.20749998E+02  0.35835E+04
 0.20799999E+02  0.37049E+04
 0.20849998E+02 -0.17018E+04
 0.20899998E+02 -0.44797E+04
 0.20949999E+02  0.31618E+04
 0.20999998E+02  0.12204E+04
 0.21049999E+02 -0.41546E+04
 0.21099998E+02 -0.24561E+04
 0.21149998E+02 -0.61978E+04
 0.21199999E+02 -0.14553E+04
 0.21249998E+02  0.71370E+04
 0.21299999E+02  0.12578E+04
 0.21349998E+02 -0.53621E+04
 0.21399998E+02 -0.25587E+04
 0.21449999E+02  0.95231E+04
 0.21499998E+02  0.80421E+04
 0.21549999E+02 -0.11017E+05
 0.21599998E+02 -0.10142E+05
 0.21649998E+02  0.15776E+04
 0.21699999E+02  0.40995E+04
 0.21749998E+02 -0.47814E+03
 0.21799999E+02 -0.54889E+04
 0.21849998E+02  0.87427E+03
 0.21899998E+02  0.10489E+03
 0.21949999E+02 -0.32208E+04
 0.21999998E+02  0.40031E+04
 0.22049999E+02  0.32376E+04
 0.22099998E+02  0.18414E+04
 0.22149998E+02 -0.85337E+03
 0.22199999E+02 -0.72033E+04
 0.22249998E+02  0.29317E+04
 0.22299999E+02  0.45226E+04
 0.22349998E+02 -0.31936E+04
 0.22399998E+02  0.23510E+04
 0.22449999E+02 -0.34319E+02
 0.22499998E+02 -0.33396E+04
 0.22549999E+02 -0.46220E+04
 0.22599998E+02 -0.31243E+04
 0.22649998E+02  0.12190E+04
 0.22699999E+02  0.15604E+04
 0.22749998E+02  0.25291E+04
 0.22799999E+02  0.22312E+04
 0.22849998E+02 -0.19999E+04
 0.22899998E+02  0.87611E+03
 0.22949999E+02  0.39159E+03
 0.22999998E+02 -0.34293E+04
 0.23049999E+02  0.21542E+04
 0.23099998E+02 -0.25832E+04
 0.23149998E+02 -0.32791E+04
 0.23199999E+02  0.16807E+03
 0.23249998E+02 -0.54334E+03
 0.23299999E+02  0.14232E+04
 0.23349998E+02 -0.15946E+04
 0.23399998E+02 -0.52985E+04
 0.23449999E+02  0.43022E+03
 0.23499998E+02  0.16069E+04
 0.23549999E+02 -0.19580E+04
 0.23599998E+02 -0.14129E+04
 0.23649998E+02  0.41935E+03
 0.23699999E+02  0.40465E+04
 0.23749998E+02  0.52373E+03
 0.23799999E+02 -0.67865E+02
 0.23849998E+02  0.15769E+04
 0.23899998E+02 -0.15023E+04
 0.23949999E+02 -0.13910E+04
 0.23999998E+02 -0.39584E+04
 0.24049999E+02  0.13513E+04
 0.24099998E+02  0.73922E+02
 0.24149998E+02 -0.45645E+04
 0.24199999E+02 -0.14382E+04
 0.24249998E+02  0.40328E+04
 0.24299999E+02  0.32111E+04
 0.24349998E+02 -0.47584E+03
 0.24399998E+02 -0.42392E+03
 0.24449999E+02 -0.12439E+04
 0.24499998E+02 -0.16615E+04
 0.24549999E+02 -0.58321E+04
 0.24599998E+02  0.81014E+02
 0.24649998E+02  0.19117E+04
 0.24699999E+02  0.19536E+04
 0.24749998E+02 -0.27468E+04
 0.24799999E+02 -0.29339E+04
 0.24849998E+02  0.33416E+04
 0.24899998E+02  0.14444E+04
 0.24949999E+02 -0.61546E+04
 0.24999998E+02 -0.29228E+04
 0.25049999E+02  0.69218E+04
 0.25099998E+02  0.17050E+04
 0.25149998E+02 -0.87280E+03
 0.25199999E+02 -0.15792E+04
 0.25249998E+02 -0.44758E+03
 0.25299999E+02 -0.28651E+04
 0.25349998E+02 -0.64744E+04
 0.25399998E+02 -0.44939E+04
 0.25449999E+02  0.35968E+04
 0.25499998E+02  0.42279E+04
 0.25549999E+02 -0.14435E+04
 0.25599998E+02 -0.19280E+04
 0.25649998E+02 -0.11533E+04
 0.25699999E+02  0.22065E+04
 0.25749998E+02  0.11762E+04
 0.25799999E+02  0.28086E+03
 0.25849998E+02  0.12550E+04
 0.25899998E+02  0.76841E+03
 0.25949999E+02 -0.45017E+04
 0.25999998E+02 -0.50473E+04
 0.26049999E+02 -0.19855E+03
 0.26099998E+02  0.30325E+04
 0.26149998E+02  0.29575E+04
 0.26199999E+02 -0.19759E+04
 0.26249998E+02 -0.10788E+04
 0.26299999E+02 -0.64137E+03
 0.26349998E+02 -0.12040E+04
 0.26399998E+02  0.14845E+04
 0.26449999E+02  0.23644E+03
 0.26499998E+02 -0.56462E+03
 0.26549999E+02 -0.84350E+03
 0.26599998E+02 -0.11630E+04
 0.26649998E+02  0.66153E+03
 0.26699999E+02 -0.39825E+03
 0.26749998E+02 -0.14661E+03
 0.26799999E+02  0.95877E+03
 0.26849998E+02 -0.32378E+04
 0.26899998E+02 -0.20394E+04
 0.26949999E+02  0.89267E+03
 0.26999998E+02 -0.16069E+04
 0.27049997E+02 -0.33796E+04
 0.27099998E+02  0.68626E+01
 0.27149998E+02  0.30223E+04
 0.27199999E+02  0.12894E+04
 0.27249998E+02  0.34890E+03
 0.27299997E+02 -0.19596E+04
 0.27349998E+02 -0.17974E+04
 0.27399998E+02  0.61626E+03
 0.27449999E+02 -0.55945E+03
 0.27499998E+02 -0.23962E+04
 0.27549997E+02 -0.21787E+04
 0.27599998E+02 -0.55551E+02
 0.27649998E+02  0.27249E+04
 0.27699999E+02  0.99120E+03
 0.27749998E+02 -0.11625E+04
 0.27799997E+02 -0.51373E+03
 0.27849998E+02  0.41954E+04
 0.27899998E+02  0.35825E+04
 0.27949999E+02 -0.18340E+04
 0.27999998E+02 -0.26598E+03
 0.28049997E+02  0.23539E+04
 0.28099998E+02 -0.35954E+03
 0.28149998E+02 -0.26076E+04
 0.28199999E+02  0.89182E+03
 0.28249998E+02  0.28501E+04
 0.28299997E+02 -0.48038E+03
 0.28349998E+02 -0.47290E+04
 0.28399998E+02 -0.33548E+04
 0.28449999E+02 -0.21673E+04
 0.28499998E+02 -0.85821E+03
 0.28549997E+02  0.15949E+04
 0.28599998E+02  0.60746E+04
 0.28649998E+02  0.84687E+04
 0.28699999E+02  0.38227E+04
 0.28749998E+02 -0.61948E+03
 0.28799997E+02 -0.12053E+04
 0.28849998E+02 -0.52628E+04
 0.28899998E+02 -0.81446E+04
 0.28949999E+02 -0.60007E+04
 0.28999998E+02 -0.80062E+04
 0.29049997E+02 -0.93608E+04
 0.29099998E+02 -0.16253E+04
 0.29149998E+02  0.48371E+04
 0.29199999E+02  0.92967E+03
 0.29249998E+02 -0.25324E+04
 0.29299997E+02 -0.30316E+03
 0.29349998E+02  0.20163E+04
 0.29399998E+02 -0.36544E+04
 0.29449999E+02 -0.44327E+04
 0.29499998E+02 -0.39006E+03
 0.29549997E+02  0.25475E+04
 0.29599998E+02  0.32774E+04
 0.29649998E+02  0.37180E+04
 0.29699999E+02  0.38642E+04
 0.29749998E+02  0.45426E+03
 0.29799997E+02  0.21336E+04
 0.29849998E+02  0.15387E+03
 0.29899998E+02 -0.54623E+04
 0.29949999E+02 -0.76302E+02
 0.29999998E+02  0.37373E+04
 0.30049999E+02  0.66432E+03
 0.30099998E+02  0.13760E+04
 0.30149998E+02  0.98439E+03
 0.30199997E+02  0.93763E+03
 0.30249996E+02 -0.21012E+04
 0.30299999E+02 -0.45561E+04
 0.30349998E+02 -0.50380E+03
 0.30399998E+02  0.10606E+04
 0.30449997E+02 -0.78791E+03
 0.30499996E+02  0.55125E+03
 0.30549999E+02  0.58345E+04
 0.30599998E+02  0.31790E+04
 0.30649998E+02 -0.34245E+04
 0.30699997E+02 -0.18137E+02
 0.30749996E+02 -0.26747E+03
 0.30799999E+02 -0.76682E+04
 0.30849998E+02 -0.47841E+04
 0.30899998E+02  0.27893E+04
 0.30949997E+02  0.58703E+04
 0.30999996E+02  0.52348E+03
 0.31049999E+02 -0.69549E+04
 0.31099998E+02 -0.38994E+04
 0.31149998E+02  0.31356E+03
 0.31199997E+02  0.98739E+02
 0.31249996E+02 -0.25259E+04
 0.31299999E+02  0.15600E+04
 0.31349998E+02  0.25772E+04
 0.31399998E+02  0.36504E+03
 0.31449997E+02  0.33805E+04
 0.31499996E+02 -0.47307E+04
 0.31549999E+02 -0.66671E+04
 0.31599998E+02 -0.37351E+03
 0.31649998E+02 -0.36110E+04
 0.31699997E+02 -0.51898E+04
 0.31749996E+02  0.29949E+03
 0.31799999E+02 -0.30017E+04
 0.31849998E+02 -0.52531E+04
 0.31899998E+02  0.18594E+03
 0.31949997E+02  0.15556E+04
 0.31999996E+02  0.53728E+04
 0.32049999E+02  0.63271E+04
 0.32099998E+02  0.37646E+04
 0.32149998E+02  0.27138E+04
 0.32199997E+02 -0.27780E+04
 0.32249996E+02 -0.62541E+04
 0.32299999E+02 -0.41025E+04
 0.32349998E+02 -0.14672E+04
 0.32399998E+02 -0.70128E+02
 0.32449997E+02 -0.53020E+04
 0.32499996E+02 -0.79493E+04
 0.32549999E+02 -0.60845E+04
 0.32599998E+02 -0.51473E+04
 0.32649998E+02 -0.22415E+04
 0.32699997E+02 -0.97113E+03
 0.32749996E+02 -0.48959E+04
 0.32799999E+02  0.20158E+04
 0.32849998E+02  0.17834E+05
 0.32899998E+02  0.21247E+05
 0.32949997E+02  0.11278E+05
 0.32999996E+02 -0.59012E+04
 0.33049999E+02 -0.83086E+04
 0.33099998E+02  0.47434E+03
 0.33149998E+02  0.90427E+03
 0.33199997E+02 -0.45160E+04
 0.33249996E+02 -0.54666E+04
 0.33299999E+02  0.65151E+04
 0.33349998E+02  0.12763E+05
 0.33399998E+02  0.20675E+04
 0.33449997E+02 -0.54743E+04
 0.33499996E+02 -0.10730E+05
 0.33549999E+02 -0.99584E+04
 0.33599998E+02 -0.94536E+03
 0.33649998E+02 -0.30127E+04
 0.33699997E+02 -0.29081E+04
 0.33749996E+02  0.75275E+04
 0.33799999E+02  0.44430E+04
 0.33849998E+02 -0.44546E+04
 0.33899998E+02  0.52608E+03
 0.33949997E+02  0.59986E+04
 0.33999996E+02  0.23397E+04
 0.34049999E+02 -0.56412E+04
 0.34099998E+02 -0.84824E+04
 0.34149998E+02 -0.67973E+04
 0.34199997E+02 -0.58348E+04
 0.34249996E+02 -0.77193E+04
 0.34299999E+02 -0.50938E+04
 0.34349998E+02  0.15883E+04
 0.34399998E+02 -0.12773E+04
 0.34449997E+02 -0.23274E+04
 0.34499996E+02  0.41355E+04
 0.34549999E+02  0.70642E+04
 0.34599998E+02  0.51433E+04
 0.34649998E+02  0.24262E+04
 0.34699997E+02 -0.14472E+04
 0.34749996E+02 -0.16040E+03
 0.34799999E+02  0.74454E+04
 0.34849998E+02  0.38280E+04
 0.34899998E+02 -0.18665E+04
 0.34949997E+02  0.14306E+04
 0.34999996E+02  0.12728E+04
 0.35049999E+02 -0.17172E+04
 0.35099998E+02 -0.26233E+04
 0.35149998E+02 -0.15500E+04
 0.35199997E+02 -0.15482E+04
 0.35249996E+02 -0.15115E+04
 0.35299999E+02 -0.53353E+03
 0.35349998E+02 -0.80322E+03
 0.35399998E+02 -0.93021E+03
 0.35449997E+02 -0.28973E+04
 0.35499996E+02 -0.52295E+04
 0.35549999E+02 -0.14328E+04
 0.35599998E+02  0.12944E+04
 0.35649998E+02  0.22254E+04
 0.35699997E+02  0.70211E+04
 0.35749996E+02 -0.51848E+03
 0.35799999E+02 -0.78114E+04
 0.35849998E+02 -0.92019E+03
 0.35899998E+02  0.47814E+04
 0.35949997E+02  0.27557E+04
 0.35999996E+02 -0.83205E+04
 0.36049999E+02 -0.11954E+05
 0.36099998E+02 -0.51042E+04
 0.36149998E+02 -0.17883E+04
 0.36199997E+02  0.21537E+04
 0.36249996E+02  0.38900E+04
 0.36299999E+02  0.37529E+04
 0.36349998E+02  0.48162E+04
 0.36399998E+02  0.13031E+04
 0.36449997E+02  0.61381E+03
 0.36499996E+02  0.29580E+04
 0.36549999E+02  0.36780E+04
 0.36599998E+02  0.35591E+04
 0.36649998E+02  0.12121E+04
 0.36699997E+02 -0.19371E+04
 0.36749996E+02 -0.71048E+03
 0.36799999E+02  0.30519E+04
 0.36849998E+02  0.18021E+04
 0.36899998E+02 -0.69908E+03
 0.36949997E+02 -0.44749E+04
 0.36999996E+02 -0.11491E+05
 0.37049999E+02 -0.92669E+04
 0.37099998E+02  0.15597E+04
 0.37149998E+02  0.37234E+04
 0.37199997E+02  0.17443E+04
 0.37249996E+02  0.52498E+03
 0.37299999E+02  0.76262E+03
 0.37349998E+02  0.17838E+04
 0.37399998E+02  0.12241E+04
 0.37449997E+02  0.85314E+03
 0.37499996E+02 -0.28206E+04
 0.37549999E+02 -0.53711E+04
 0.37599998E+02 -0.34880E+04
 0.37649998E+02 -0.16316E+04
 0.37699997E+02  0.12731E+04
 0.37749996E+02  0.35054E+04
 0.37799999E+02  0.20666E+04
 0.37849998E+02 -0.27799E+04
 0.37899998E+02 -0.77919E+04
 0.37949997E+02 -0.15645E+04
 0.37999996E+02  0.41242E+04
 0.38049999E+02  0.12097E+04
 0.38099998E+02  0.25473E+03
 0.38149998E+02  0.41591E+04
 0.38199997E+02  0.83502E+04
 0.38249996E+02  0.75673E+04
 0.38299999E+02  0.34937E+04
 0.38349998E+02  0.11485E+04
 0.38399998E+02 -0.20737E+04
 0.38449997E+02 -0.56794E+04
 0.38499996E+02 -0.65271E+04
 0.38549999E+02 -0.40906E+04
 0.38599998E+02 -0.38598E+04
 0.38649998E+02 -0.53855E+04
 0.38699997E+02 -0.44696E+04
 0.38749996E+02 -0.27548E+04
 0.38799999E+02 -0.53326E+03
 0.38849998E+02  0.35434E+03
 0.38899998E+02  0.16495E+04
 0.38949997E+02  0.38949E+04
 0.38999996E+02  0.26269E+04
 0.39049999E+02  0.17235E+04
 0.39099998E+02  0.37468E+04
 0.39149998E+02 -0.11506E+04
 0.39199997E+02 -0.26811E+04
 0.39249996E+02  0.99805E+03
 0.39299999E+02  0.24302E+04
 0.39349998E+02  0.23946E+04
 0.39399998E+02 -0.77293E+03
 0.39449997E+02 -0.24964E+04
 0.39499996E+02 -0.43056E+04
 0.39549999E+02 -0.50708E+04
 0.39599998E+02 -0.35924E+04
 0.39649998E+02 -0.34393E+04
 0.39699997E+02 -0.21864E+04
 0.39749996E+02 -0.59999E+03
 0.39799999E+02  0.29185E+04
 0.39849998E+02  0.70196E+04
 0.39899998E+02  0.44123E+04
 0.39949997E+02  0.78485E+03
 0.39999996E+02  0.99864E+03
 0.40049999E+02 -0.44212E+03
 0.40099998E+02 -0.47318E+04
 0.40149998E+02 -0.48537E+04
 0.40199997E+02  0.50184E+03
 0.40249996E+02  0.36745E+04
 0.40299999E+02  0.88961E+03
 0.40349998E+02 -0.13755E+04
 0.40399998E+02 -0.20141E+04
 0.40449997E+02 -0.18948E+04
 0.40499996E+02 -0.40099E+03
 0.40549999E+02 -0.17821E+03
 0.40599998E+02  0.16647E+04
 0.40649998E+02 -0.50322E+03
 0.40699997E+02 -0.44918E+04
 0.40749996E+02 -0.32160E+04
 0.40799999E+02 -0.14386E+04
 0.40849998E+02 -0.78754E+02
 0.40899998E+02  0.16782E+04
 0.40949997E+02  0.11159E+04
 0.40999996E+02 -0.12298E+04
 0.41049999E+02 -0.17289E+04
 0.41099998E+02 -0.13821E+04
 0.41149998E+02 -0.22241E+04
 0.41199997E+02 -0.22287E+04
 0.41249996E+02 -0.20129E+04
 0.41299999E+02 -0.29546E+04
 0.41349998E+02 -0.19192E+04
 0.41399998E+02 -0.10414E+04
 0.41449997E+02 -0.51121E+02
 0.41499996E+02  0.22872E+04
 0.41549999E+02  0.16244E+04
 0.41599998E+02  0.36379E+03
 0.41649998E+02  0.24492E+04
 0.41699997E+02  0.16476E+04
 0.41749996E+02 -0.63379E+03
 0.41799999E+02 -0.41200E+03
 0.41849998E+02 -0.14964E+03
 0.41899998E+02  0.19338E+04
 0.41949997E+02  0.37017E+04
 0.41999996E+02  0.31375E+04
 0.42049999E+02 -0.18992E+03
 0.42099998E+02 -0.18464E+04
 0.42149998E+02 -0.19722E+04
 0.42199997E+02 -0.29124E+04
 0.42249996E+02 -0.44074E+04
 0.42299999E+02 -0.43885E+04
 0.42349998E+02 -0.14664E+04
 0.42399998E+02 -0.55037E+03
 0.42449997E+02 -0.15860E+04
 0.42499996E+02 -0.14303E+04
 0.42549999E+02  0.40200E+02
 0.42599998E+02 -0.41109E+02
 0.42649998E+02  0.48974E+03
 0.42699997E+02  0.36304E+03
 0.42749996E+02 -0.83740E+03
 0.42799995E+02  0.17052E+03
 0.42849998E+02  0.58534E+03
 0.42899998E+02  0.19109E+03
 0.42949997E+02 -0.16898E+04
 0.42999996E+02 -0.46873E+04
 0.43049995E+02 -0.35741E+04
 0.43099998E+02 -0.52784E+03
 0.43149998E+02  0.42270E+03
 0.43199997E+02 -0.10591E+04
 0.43249996E+02 -0.70241E+03
 0.43299995E+02  0.17481E+04
 0.43349998E+02  0.49485E+03
 0.43399998E+02 -0.91524E+03
 0.43449997E+02 -0.69967E+03
 0.43499996E+02  0.14740E+03
 0.43549995E+02  0.19643E+04
 0.43599998E+02  0.18247E+04
 0.43649998E+02  0.20415E+04
 0.43699997E+02  0.15323E+04
 0.43749996E+02 -0.34245E+03
 0.43799995E+02  0.43776E+03
 0.43849998E+02  0.20186E+04
 0.43899998E+02  0.14481E+04
 0.43949997E+02 -0.16488E+04
 0.43999996E+02 -0.28783E+04
 0.44049995E+02 -0.10994E+04
 0.44099998E+02 -0.32408E+03
 0.44149998E+02 -0.98011E+03
 0.44199997E+02 -0.11653E+04
 0.44249996E+02  0.62007E+03
 0.44299995E+02 -0.35296E+03
 0.44349998E+02 -0.18431E+04
 0.44399998E+02 -0.96083E+02
 0.44449997E+02 -0.57624E+03
 0.44499996E+02  0.26737E+03
 0.44549995E+02 -0.39785E+03
 0.44599998E+02 -0.15806E+04
 0.44649998E+02 -0.10933E+03
 0.44699997E+02 -0.41853E+03
 0.44749996E+02 -0.12110E+04
 0.44799995E+02 -0.10829E+04
 0.44849998E+02  0.68244E+02
 0.44899998E+02  0.12010E+04
 0.44949997E+02  0.52084E+03
 0.44999996E+02 -0.17222E+04
 0.45049995E+02 -0.24414E+04
 0.45099998E+02 -0.87566E+03
 0.45149998E+02  0.53486E+03
 0.45199997E+02  0.44904E+03
 0.45249996E+02  0.16631E+03
 0.45299995E+02  0.80480E+03
 0.45349998E+02  0.13646E+04
 0.45399998E+02 -0.38953E+03
 0.45449997E+02 -0.27356E+04
 0.45499996E+02 -0.29834E+04
 0.45549995E+02 -0.20528E+04
 0.45599998E+02 -0.17941E+04
 0.45649998E+02 -0.15776E+04
 0.45699997E+02 -0.11946E+04
 0.45749996E+02  0.62830E+03
 0.45799995E+02  0.15102E+04
 0.45849998E+02 -0.22496E+03
 0.45899998E+02  0.31270E+03
 0.45949997E+02  0.27810E+04
 0.45999996E+02  0.28748E+04
 0.46049995E+02  0.10078E+04
 0.46099998E+02 -0.26473E+03
 0.46149998E+02  0.35536E+03
 0.46199997E+02  0.13590E+04
 0.46249996E+02 -0.88597E+03
 0.46299995E+02 -0.22010E+04
 0.46349998E+02 -0.14999E+03
 0.46399998E+02 -0.57681E+02
 0.46449997E+02 -0.17691E+04
 0.46499996E+02 -0.23345E+04
 0.46549995E+02 -0.17639E+04
 0.46599998E+02  0.46941E+03
 0.46649998E+02  0.10729E+04
 0.46699997E+02 -0.13920E+04
 0.46749996E+02 -0.19729E+04
 0.46799995E+02 -0.14524E+04
 0.46849998E+02 -0.19540E+04
 0.46899998E+02 -0.72799E+03
 0.46949997E+02  0.10978E+03
 0.46999996E+02 -0.17873E+04
 0.47049995E+02 -0.23495E+04
 0.47099998E+02 -0.80733E+03
 0.47149998E+02 -0.52112E+03
 0.47199997E+02 -0.51712E+03
 0.47249996E+02  0.67829E+03
 0.47299995E+02  0.28127E+03
 0.47349998E+02 -0.48345E+03
 0.47399998E+02 -0.11691E+03
 0.47449997E+02  0.61669E+03
 0.47499996E+02  0.14040E+04
 0.47549995E+02  0.14263E+04
 0.47599998E+02  0.74990E+03
 0.47649998E+02  0.17977E+03
 0.47699997E+02  0.13172E+00
 0.47749996E+02 -0.18425E+03
 0.47799995E+02 -0.33853E+03
 0.47849998E+02 -0.13131E+04
 0.47899998E+02 -0.27223E+04
 0.47949997E+02 -0.31682E+04
 0.47999996E+02 -0.17627E+04
 0.48049995E+02  0.98586E+02
 0.48099998E+02  0.25646E+03
 0.48149998E+02 -0.16513E+01
 0.48199997E+02 -0.28084E+03
 0.48249996E+02 -0.10976E+04
 0.48299995E+02 -0.16314E+04
 0.48349998E+02 -0.13708E+04
 0.48399998E+02 -0.17047E+04
 0.48449997E+02 -0.21797E+04
 0.48499996E+02 -0.27400E+04
 0.48549995E+02 -0.32594E+04
 0.48599998E+02 -0.12820E+04
 0.48649998E+02  0.16505E+02
 0.48699997E+02  0.26737E+03
 0.48749996E+02  0.86213E+03
 0.48799995E+02  0.17738E+04
 0.48849998E+02  0.26809E+04
 0.48899998E+02  0.32421E+04
 0.48949997E+02  0.36083E+04
 0.48999996E+02  0.86529E+03
 0.49049995E+02 -0.85803E+03
 0.49099998E+02  0.95092E+03
 0.49149998E+02  0.11350E+04
 0.49199997E+02 -0.38188E+03
 0.49249996E+02 -0.22207E+04
 0.49299995E+02 -0.29008E+04
 0.49349998E+02 -0.19181E+04
 0.49399998E+02 -0.20756E+03
 0.49449997E+02  0.14281E+04
 0.49499996E+02  0.65052E+03
 0.49549995E+02 -0.10706E+04
 0.49599998E+02 -0.73518E+03
 0.49649998E+02  0.35100E+03
 0.49699997E+02  0.63729E+03
 0.49749996E+02 -0.50515E+03
 0.49799995E+02 -0.17808E+04
 0.49849998E+02 -0.56724E+03
 0.49899998E+02  0.22386E+03
 0.49949997E+02 -0.11146E+04
 0.49999996E+02 -0.20203E+04
 0.50049995E+02 -0.12881E+04
 0.50099998E+02 -0.24654E+03
 0.50149998E+02 -0.66604E+03
 0.50199997E+02 -0.18148E+04
 0.50249996E+02 -0.20392E+04
 0.50299995E+02 -0.83963E+03
 0.50349998E+02 -0.13009E+03
 0.50399998E+02  0.65063E+02
 0.50449997E+02  0.20197E+03
 0.50499996E+02 -0.45943E+03
 0.50549995E+02 -0.77107E+03
 0.50599998E+02 -0.58343E+03
 0.50649998E+02  0.25441E+03
 0.50699997E+02  0.25459E+03
 0.50749996E+02 -0.14349E+04
 0.50799995E+02 -0.18410E+04
 0.50849998E+02 -0.22881E+00
 0.50899998E+02  0.91844E+03
 0.50949997E+02 -0.10075E+03
 0.50999996E+02 -0.95411E+03
 0.51049995E+02 -0.56588E+03
 0.51099998E+02 -0.30732E+03
 0.51149998E+02 -0.50929E+03
 0.51199997E+02 -0.12570E+04
 0.51249996E+02 -0.16712E+04
 0.51299995E+02 -0.63260E+03
 0.51349998E+02  0.20553E+02
 0.51399998E+02  0.79087E+02
 0.51449997E+02  0.38899E+03
 0.51499996E+02  0.94242E+03
 0.51549995E+02  0.11484E+04
 0.51599998E+02  0.17410E+04
 0.51649998E+02  0.14753E+04
 0.51699997E+02 -0.82932E+02
 0.51749996E+02 -0.88642E+03
 0.51799995E+02 -0.91026E+03
 0.51849998E+02 -0.11195E+04
 0.51899998E+02 -0.65457E+03
 0.51949997E+02 -0.68140E+03
 0.51999996E+02 -0.37583E+03
 0.52049995E+02  0.90114E+03
 0.52099998E+02  0.40125E+03
 0.52149998E+02 -0.63902E+03
 0.52199997E+02 -0.16849E+04
 0.52249996E+02 -0.17390E+04
 0.52299995E+02 -0.15344E+04
 0.52349998E+02 -0.16618E+04
 0.52399998E+02 -0.57229E+03
 0.52449997E+02  0.19826E+03
 0.52499996E+02  0.20008E+03
 0.52549995E+02  0.10007E+04
 0.52599998E+02  0.16523E+04
 0.52649998E+02  0.12313E+04
 0.52699997E+02  0.33761E+03
 0.52749996E+02 -0.66373E+03
 0.52799995E+02 -0.13115E+04
 0.52849998E+02 -0.23299E+04
 0.52899998E+02 -0.28707E+04
 0.52949997E+02 -0.18331E+04
 0.52999996E+02 -0.16358E+04
 0.53049995E+02 -0.22463E+04
 0.53099998E+02 -0.22058E+04
 0.53149998E+02 -0.16800E+04
 0.53199997E+02  0.23001E+03
 0.53249996E+02  0.14702E+04
 0.53299995E+02  0.56802E+03
 0.53349998E+02 -0.23671E+02
 0.53399998E+02  0.93097E+03
 0.53449997E+02  0.12108E+04
 0.53499996E+02  0.67051E+03
 0.53549995E+02  0.59764E+02
 0.53599998E+02 -0.36518E+03
 0.53649998E+02 -0.57386E+03
 0.53699997E+02 -0.12790E+04
 0.53749996E+02 -0.16678E+04
 0.53799995E+02 -0.13975E+04
 0.53849998E+02 -0.12300E+04
 0.53899998E+02 -0.10660E+04
 0.53949997E+02 -0.62045E+03
 0.53999996E+02 -0.22618E+02
 0.54049995E+02  0.44458E+03
 0.54099998E+02  0.27879E+03
 0.54149998E+02  0.67565E+03
 0.54199997E+02  0.67802E+03
 0.54249996E+02  0.58091E+02
 0.54299995E+02 -0.66437E+03
 0.54349998E+02 -0.14645E+04
 0.54399998E+02 -0.12450E+04
 0.54449997E+02 -0.19813E+03
 0.54499996E+02 -0.88750E+01
 0.54549995E+02 -0.95305E+03
 0.54599998E+02 -0.13451E+04
 0.54649998E+02 -0.10464E+04
 0.54699997E+02 -0.11404E+04
 0.54749996E+02 -0.53799E+03
 0.54799995E+02  0.79848E+03
 0.54849998E+02  0.42023E+03
 0.54899998E+02 -0.22563E+03
 0.54949997E+02 -0.67846E+03
 0.54999996E+02 -0.17741E+04
 0.55049995E+02 -0.13453E+04
 0.55099998E+02 -0.51485E+03
 0.55149998E+02 -0.12132E+04
 0.55199997E+02 -0.12320E+04
 0.55249996E+02 -0.15161E+04
 0.55299995E+02 -0.18834E+04
 0.55349998E+02 -0.16234E+03
 0.55399998E+02  0.14647E+04
 0.55449997E+02  0.18508E+04
 0.55499996E+02  0.11460E+04
 0.55549995E+02  0.33224E+02
 0.55599998E+02 -0.43211E+01
 0.55649998E+02  0.46489E+03
 0.55699997E+02 -0.10829E+03
 0.55749996E+02  0.23915E+03
 0.55799995E+02  0.11306E+04
 0.55849995E+02  0.11492E+04
 0.55899998E+02  0.10101E+04
 0.55949997E+02  0.40102E+03
 0.55999996E+02 -0.73169E+03
 0.56049995E+02 -0.17009E+04
 0.56099995E+02 -0.19299E+04
 0.56149998E+02 -0.19699E+04
 0.56199997E+02 -0.19103E+04
 0.56249996E+02 -0.20449E+04
 0.56299995E+02 -0.16677E+04
 0.56349995E+02 -0.95255E+03
 0.56399998E+02  0.29988E+02
 0.56449997E+02  0.90386E+03
 0.56499996E+02  0.72161E+03
 0.56549995E+02 -0.55178E+03
 0.56599995E+02 -0.12708E+04
 0.56649998E+02 -0.71321E+03
 0.56699997E+02 -0.65412E+03
 0.56749996E+02 -0.92567E+03
 0.56799995E+02 -0.99976E+03
 0.56849995E+02 -0.21545E+03
 0.56899998E+02  0.81788E+03
 0.56949997E+02  0.99577E+03
 0.56999996E+02 -0.16307E+03
 0.57049995E+02 -0.11018E+04
 0.57099995E+02 -0.64535E+03
 0.57149998E+02 -0.51596E+03
 0.57199997E+02 -0.10980E+04
 0.57249996E+02 -0.14055E+04
 0.57299995E+02 -0.11550E+04
 0.57349995E+02 -0.20154E+03
 0.57399998E+02  0.58254E+03
 0.57449997E+02  0.66374E+03
 0.57499996E+02  0.47902E+03
 0.57549995E+02  0.31785E+03
 0.57599995E+02  0.13804E+03
 0.57649998E+02 -0.57862E+03
 0.57699997E+02 -0.32576E+03
 0.57749996E+02  0.61550E+03
 0.57799995E+02  0.81952E+03
 0.57849995E+02  0.40217E+03
 0.57899998E+02 -0.36906E+03
 0.57949997E+02 -0.13184E+03
 0.57999996E+02  0.13813E+03
 0.58049995E+02 -0.67546E+03
 0.58099995E+02 -0.18008E+04
 0.58149998E+02 -0.24972E+04
 0.58199997E+02 -0.21317E+04
 0.58249996E+02 -0.11470E+04
 0.58299995E+02 -0.35114E+03
 0.58349995E+02 -0.39472E+03
 0.58399998E+02 -0.99864E+03
 0.58449997E+02 -0.78181E+03
 0.58499996E+02  0.37617E+03
 0.58549995E+02  0.10401E+04
 0.58599995E+02  0.30302E+03
 0.58649998E+02 -0.12402E+04
 0.58699997E+02 -0.17686E+04
 0.58749996E+02 -0.11106E+04
 0.58799995E+02 -0.99295E+02
 0.58849995E+02 -0.48543E+02
 0.58899998E+02 -0.67098E+03
 0.58949997E+02 -0.62769E+03
 0.58999996E+02 -0.72889E+03
 0.59049995E+02 -0.47639E+03
 0.59099995E+02  0.31126E+03
 0.59149998E+02  0.96798E+02
 0.59199997E+02 -0.50911E+03
 0.59249996E+02 -0.62083E+03
 0.59299995E+02  0.90232E+01
 0.59349995E+02  0.67686E+03
 0.59399998E+02  0.36083E+03
 0.59449997E+02 -0.25636E+03
 0.59499996E+02 -0.99201E+03
 0.59549995E+02 -0.11606E+04
 0.59599995E+02 -0.35409E+03
 0.59649998E+02  0.17314E+03
 0.59699997E+02  0.15775E+02
 0.59749996E+02 -0.49944E+01
 0.59799995E+02 -0.11490E+02
 0.59849995E+02 -0.41888E+03
 0.59899998E+02 -0.10030E+04
 0.59949997E+02 -0.48743E+03
 0.59999996E+02  0.32207E+03
 0.60049995E+02  0.14372E+03
 0.60099995E+02 -0.54065E+03
 0.60149998E+02 -0.14146E+04
 0.60199997E+02 -0.15172E+04
 0.60249996E+02 -0.12461E+04
 0.60299995E+02 -0.15280E+04
 0.60349995E+02 -0.17534E+04
 0.60399998E+02 -0.91343E+03
 0.60449997E+02  0.49529E+03
 0.60499996E+02  0.11140E+04
 0.60549995E+02  0.71045E+03
 0.60599995E+02 -0.61855E+02
 0.60649998E+02 -0.48131E+03
 0.60699997E+02 -0.19844E+03
 0.60749996E+02  0.88265E+02
 0.60799995E+02 -0.96880E+02
 0.60849995E+02 -0.64997E+03
 0.60899998E+02 -0.60543E+03
 0.60949997E+02 -0.52706E+03
 0.60999996E+02 -0.72715E+03
 0.61049995E+02 -0.10115E+04
 0.61099995E+02 -0.87569E+03
 0.61149998E+02 -0.45911E+03
 0.61199997E+02 -0.44448E+03
 0.61249996E+02 -0.14084E+03
 0.61299995E+02  0.61593E+03
 0.61349995E+02  0.93664E+03
 0.61399998E+02  0.22754E+03
 0.61449997E+02 -0.10436E+04
 0.61499996E+02 -0.15313E+04
 0.61549995E+02 -0.70774E+03
 0.61599995E+02 -0.12586E+04
 0.61649998E+02 -0.17773E+04
 0.61699997E+02 -0.10355E+04
 0.61749996E+02 -0.50710E+03
 0.61799995E+02 -0.75028E+02
 0.61849995E+02 -0.24306E+03
 0.61899998E+02 -0.79310E+03
 0.61949997E+02 -0.10657E+04
 0.61999996E+02 -0.17314E+04
 0.62049995E+02 -0.15555E+04
 0.62099998E+02 -0.92723E+03
 0.62149994E+02 -0.13276E+04
 0.62199997E+02 -0.10803E+04
 0.62249992E+02 -0.33418E+02
 0.62299995E+02  0.70007E+03
 0.62349998E+02  0.10910E+04
 0.62399994E+02  0.12377E+04
 0.62449997E+02  0.11641E+04
 0.62499992E+02  0.55825E+03
 0.62549995E+02  0.42521E+02
 0.62599998E+02 -0.10884E+03
 0.62649994E+02 -0.22748E+03
 0.62699997E+02 -0.17239E+03
 0.62749992E+02 -0.58155E+03
 0.62799995E+02 -0.61174E+03
 0.62849998E+02 -0.40877E+03
 0.62899994E+02 -0.68487E+02
 0.62949997E+02 -0.32307E+02
 0.62999992E+02 -0.12307E+03
 0.63049995E+02 -0.36489E+03
 0.63099998E+02 -0.12947E+04
 0.63149994E+02 -0.17437E+04
 0.63199997E+02 -0.15313E+04
 0.63249992E+02 -0.12888E+04
 0.63299995E+02 -0.11593E+04
 0.63349998E+02 -0.64029E+03
 0.63399994E+02  0.57042E+02
 0.63449997E+02  0.31116E+03
 0.63499992E+02  0.23895E+03
 0.63549995E+02  0.25138E+03
 0.63599998E+02  0.26066E+03
 0.63649994E+02 -0.56288E+02
 0.63699997E+02 -0.50636E+03
 0.63749992E+02 -0.39108E+03
 0.63799995E+02 -0.44251E+03
 0.63849998E+02 -0.50978E+03
 0.63899994E+02 -0.18392E+03
 0.63949997E+02 -0.29268E+02
 0.63999992E+02 -0.24937E+03
 0.64049995E+02 -0.10901E+04
 0.64099998E+02 -0.11276E+04
 0.64149994E+02 -0.94239E+01
 0.64199997E+02  0.13545E+03
 0.64249992E+02 -0.54527E+03
 0.64299995E+02 -0.66596E+03
 0.64349998E+02 -0.27354E+03
 0.64399994E+02  0.31320E+03
 0.64449997E+02  0.11911E+03
 0.64499992E+02 -0.50628E+03
 0.64549995E+02 -0.58835E+03
 0.64599998E+02 -0.54785E+03
 0.64649994E+02 -0.54547E+03
 0.64699997E+02 -0.68326E+03
 0.64749992E+02 -0.93763E+03
 0.64799995E+02 -0.98900E+03
 0.64849998E+02 -0.88431E+03
 0.64899994E+02 -0.62469E+03
 0.64949997E+02 -0.33475E+03
 0.64999992E+02 -0.42203E+03
 0.65049995E+02 -0.70394E+03
 0.65099998E+02 -0.94690E+03
 0.65149994E+02 -0.85845E+03
 0.65199997E+02 -0.67829E+03
 0.65249992E+02 -0.46706E+03
 0.65299995E+02 -0.53967E+03
 0.65349998E+02 -0.71295E+03
 0.65399994E+02 -0.27915E+02
 0.65449997E+02  0.58858E+03
 0.65499992E+02  0.59850E+03
 0.65549995E+02  0.35750E+03
 0.65599998E+02  0.10271E+03
 0.65649994E+02  0.34194E+03
 0.65699997E+02  0.37698E+03
 0.65749992E+02 -0.33733E+03
 0.65799995E+02 -0.86628E+03
 0.65849998E+02 -0.12217E+04
 0.65899994E+02 -0.12763E+04
 0.65949997E+02 -0.75169E+03
 0.65999992E+02 -0.38471E+03
 0.66049995E+02 -0.31140E+03
 0.66099998E+02 -0.50478E+03
 0.66149994E+02 -0.52231E+03
 0.66199997E+02 -0.63005E+03
 0.66249992E+02 -0.73399E+03
 0.66299995E+02 -0.22017E+03
 0.66349998E+02 -0.36389E+02
 0.66399994E+02 -0.49164E+03
 0.66449997E+02 -0.74171E+03
 0.66499992E+02 -0.44323E+03
 0.66549995E+02 -0.35683E+03
 0.66599998E+02 -0.45695E+03
 0.66649994E+02 -0.43342E+03
 0.66699997E+02 -0.66243E+03
 0.66749992E+02 -0.10356E+04
 0.66799995E+02 -0.11788E+04
 0.66849998E+02 -0.12671E+04
 0.66899994E+02 -0.74217E+03
 0.66949997E+02  0.14557E+03
 0.66999992E+02  0.52757E+03
 0.67049995E+02  0.59714E+03
 0.67099998E+02  0.43453E+03
 0.67149994E+02  0.13533E+03
 0.67199997E+02 -0.95717E+02
 0.67249992E+02 -0.23682E+03
 0.67299995E+02 -0.54683E+03
 0.67349998E+02 -0.70206E+03
 0.67399994E+02 -0.78798E+03
 0.67449997E+02 -0.96598E+03
 0.67499992E+02 -0.85317E+03
 0.67549995E+02 -0.69750E+03
 0.67599998E+02 -0.55774E+03
 0.67649994E+02 -0.15392E+03
 0.67699997E+02  0.24603E+02
 0.67749992E+02 -0.37876E+03
 0.67799995E+02 -0.67705E+03
 0.67849998E+02 -0.27286E+03
 0.67899994E+02 -0.82740E+01
 0.67949997E+02 -0.21504E+03
 0.67999992E+02 -0.80478E+02
 0.68049995E+02  0.27681E+03
 0.68099998E+02  0.18030E+03
 0.68149994E+02 -0.15271E+03
 0.68199997E+02 -0.47553E+03
 0.68249992E+02 -0.32654E+03
 0.68299995E+02 -0.32487E+03
 0.68349998E+02 -0.78717E+03
 0.68399994E+02 -0.10046E+04
 0.68449997E+02 -0.10334E+04
 0.68499992E+02 -0.75602E+03
 0.68549995E+02 -0.78040E+03
 0.68599998E+02 -0.95877E+03
 0.68649994E+02 -0.99422E+03
 0.68699997E+02 -0.61858E+03
 0.68749992E+02 -0.50511E+03
 0.68799995E+02 -0.52019E+03
 0.68849998E+02  0.12643E+03
 0.68899994E+02  0.41236E+03
 0.68949997E+02  0.47618E+03
 0.68999992E+02  0.35468E+03
 0.69049995E+02 -0.42279E+02
 0.69099998E+02 -0.49616E+03
 0.69149994E+02 -0.95569E+03
 0.69199997E+02 -0.96361E+03
 0.69249992E+02 -0.57084E+03
 0.69299995E+02 -0.19457E+03
 0.69349998E+02 -0.25734E+03
 0.69399994E+02 -0.61768E+03
 0.69449997E+02 -0.86562E+03
 0.69499992E+02 -0.93936E+03
 0.69549995E+02 -0.75800E+03
 0.69599998E+02 -0.92449E+03
 0.69649994E+02 -0.10572E+04
 0.69699997E+02 -0.43543E+03
 0.69749992E+02 -0.11463E+02
 0.69799995E+02 -0.98040E+02
 0.69849998E+02  0.14648E+03
 0.69899994E+02  0.72391E+03
 0.69949997E+02  0.11183E+04
 0.69999992E+02  0.88311E+03
 0.70049995E+02  0.34105E+03
 0.70099998E+02 -0.61215E+02
 0.70149994E+02 -0.59657E+03
 0.70199997E+02 -0.11439E+04
 0.70249992E+02 -0.12714E+04
 0.70299995E+02 -0.94454E+03
 0.70349998E+02 -0.82286E+03
 0.70399994E+02 -0.92076E+03
 0.70449997E+02 -0.11258E+04
 0.70499992E+02 -0.14082E+04
 0.70549995E+02 -0.18157E+04
 0.70599998E+02 -0.19699E+04
 0.70649994E+02 -0.16608E+04
 0.70699997E+02 -0.10156E+04
 0.70749992E+02 -0.15145E+03
 0.70799995E+02  0.67007E+03
 0.70849998E+02  0.88486E+03
 0.70899994E+02  0.57867E+03
 0.70949997E+02  0.69433E+03
 0.70999992E+02  0.90329E+03
 0.71049995E+02  0.55146E+03
 0.71099998E+02  0.42623E+02
 0.71149994E+02 -0.23213E+03
 0.71199997E+02 -0.51395E+03
 0.71249992E+02 -0.70841E+03
 0.71299995E+02 -0.90438E+03
 0.71349998E+02 -0.87556E+03
 0.71399994E+02 -0.93714E+03
 0.71449997E+02 -0.10328E+04
 0.71499992E+02 -0.76907E+03
 0.71549995E+02 -0.14490E+03
 0.71599998E+02  0.55733E+02
 0.71649994E+02 -0.67712E+03
 0.71699997E+02 -0.10497E+04
 0.71749992E+02 -0.95059E+03
 0.71799995E+02 -0.86749E+03
 0.71849998E+02 -0.49424E+03
 0.71899994E+02  0.27800E+03
 0.71949997E+02  0.81402E+03
 0.71999992E+02  0.90225E+03
 0.72049995E+02  0.42963E+03
 0.72099998E+02 -0.30957E+03
 0.72149994E+02 -0.73601E+03
 0.72199997E+02 -0.12023E+04
 0.72249992E+02 -0.13089E+04
 0.72299995E+02 -0.96692E+03
 0.72349998E+02 -0.96664E+03
 0.72399994E+02 -0.13043E+04
 0.72449997E+02 -0.12520E+04
 0.72499992E+02 -0.52823E+03
 0.72549995E+02  0.12471E+03
 0.72599998E+02  0.19719E+03
 0.72649994E+02 -0.19313E+03
 0.72699997E+02 -0.52620E+03
 0.72749992E+02 -0.22095E+03
 0.72799995E+02  0.22209E+03
 0.72849998E+02  0.15979E+03
 0.72899994E+02 -0.38560E+01
 0.72949997E+02 -0.19555E+02
 0.72999992E+02  0.37913E+02
 0.73049995E+02 -0.23331E+03
 0.73099998E+02 -0.63016E+03
 0.73149994E+02 -0.84042E+03
 0.73199997E+02 -0.98977E+03
 0.73249992E+02 -0.84868E+03
 0.73299995E+02 -0.45444E+03
 0.73349998E+02  0.58397E+02
 0.73399994E+02  0.27823E+03
 0.73449997E+02  0.16297E+03
 0.73499992E+02  0.13007E+03
 0.73549995E+02  0.48368E+02
 0.73599998E+02 -0.23791E+03
 0.73649994E+02 -0.51717E+03
 0.73699997E+02 -0.66448E+03
 0.73749992E+02 -0.77294E+03
 0.73799995E+02 -0.88214E+03
 0.73849998E+02 -0.92347E+03
 0.73899994E+02 -0.10350E+04
 0.73949997E+02 -0.10861E+04
 0.73999992E+02 -0.99755E+03
 0.74049995E+02 -0.91694E+03
 0.74099998E+02 -0.99264E+03
 0.74149994E+02 -0.91808E+03
 0.74199997E+02 -0.69955E+03
 0.74249992E+02 -0.46919E+03
 0.74299995E+02 -0.24397E+03
 0.74349998E+02 -0.36311E+03
 0.74399994E+02 -0.20679E+03
 0.74449997E+02  0.48464E+02
 0.74499992E+02 -0.49638E+02
 0.74549995E+02 -0.47914E+03
 0.74599998E+02 -0.76299E+03
 0.74649994E+02 -0.58766E+03
 0.74699997E+02 -0.35332E+03
 0.74749992E+02 -0.35795E+03
 0.74799995E+02 -0.67901E+03
 0.74849998E+02 -0.52934E+03
 0.74899994E+02 -0.15783E+03
 0.74949997E+02 -0.19802E+03
 0.74999992E+02 -0.20470E+03
 0.75049995E+02 -0.22368E+03
 0.75099998E+02 -0.29711E+03
 0.75149994E+02 -0.25690E+03
 0.75199997E+02 -0.34993E+03
 0.75249992E+02 -0.24010E+03
 0.75299995E+02 -0.40810E+02
 0.75349998E+02 -0.27673E+03
 0.75399994E+02 -0.38410E+03
 0.75449997E+02 -0.34594E+03
 0.75499992E+02 -0.46911E+03
 0.75549995E+02 -0.60061E+03
 0.75599998E+02 -0.65223E+03
 0.75649994E+02 -0.52007E+03
 0.75699997E+02 -0.48738E+03
 0.75749992E+02 -0.54812E+03
 0.75799995E+02 -0.37220E+03
 0.75849998E+02 -0.14757E+03
 0.75899994E+02 -0.33865E+03
 0.75949997E+02 -0.54693E+03
 0.75999992E+02 -0.58977E+03
 0.76049995E+02 -0.87335E+03
 0.76099998E+02 -0.10090E+04
 0.76149994E+02 -0.10010E+04
 0.76199997E+02 -0.10056E+04
 0.76249992E+02 -0.86522E+03
 0.76299995E+02 -0.68919E+03
 0.76349998E+02 -0.44817E+03
 0.76399994E+02 -0.24845E+03
 0.76449997E+02 -0.28130E+03
 0.76499992E+02 -0.34266E+03
 0.76549995E+02 -0.31360E+03
 0.76599998E+02 -0.29223E+03
 0.76649994E+02 -0.35801E+02
 0.76699997E+02  0.56657E+02
 0.76749992E+02 -0.98546E+02
 0.76799995E+02 -0.50745E+02
 0.76849998E+02 -0.32072E+02
 0.76899994E+02 -0.15045E+03
 0.76949997E+02 -0.23117E+03
 0.76999992E+02 -0.31506E+03
 0.77049995E+02 -0.42459E+03
 0.77099998E+02 -0.26231E+03
 0.77149994E+02 -0.71418E+01
 0.77199997E+02  0.11564E+03
 0.77249992E+02  0.25484E+03
 0.77299995E+02  0.34756E+03
 0.77349998E+02  0.28693E+03
 0.77399994E+02  0.16420E+03
 0.77449997E+02 -0.51017E+02
 0.77499992E+02 -0.12248E+03
 0.77549995E+02 -0.93096E+02
 0.77599998E+02 -0.33076E+03
 0.77649994E+02 -0.70957E+03
 0.77699997E+02 -0.97932E+03
 0.77749992E+02 -0.11204E+04
 0.77799995E+02 -0.11138E+04
 0.77849998E+02 -0.91119E+03
 0.77899994E+02 -0.72055E+03
 0.77949997E+02 -0.62067E+03
 0.77999992E+02 -0.64848E+03
 0.78049995E+02 -0.60181E+03
 0.78099998E+02 -0.36911E+03
 0.78149994E+02 -0.31965E+03
 0.78199997E+02 -0.52482E+03
 0.78249992E+02 -0.65924E+03
 0.78299995E+02 -0.64205E+03
 0.78349998E+02 -0.64157E+03
 0.78399994E+02 -0.61146E+03
 0.78449997E+02 -0.38139E+03
 0.78499992E+02 -0.28586E+03
 0.78549995E+02 -0.23443E+03
 0.78599998E+02  0.44101E+02
 0.78649994E+02  0.56266E+02
 0.78699997E+02 -0.19533E+03
 0.78749992E+02 -0.48235E+03
 0.78799995E+02 -0.71531E+03
 0.78849998E+02 -0.62266E+03
 0.78899994E+02 -0.42384E+03
 0.78949997E+02 -0.45834E+03
 0.78999992E+02 -0.36804E+03
 0.79049995E+02 -0.35872E+03
 0.79099998E+02 -0.66429E+03
 0.79149994E+02 -0.83395E+03
 0.79199997E+02 -0.81308E+03
 0.79249992E+02 -0.55422E+03
 0.79299995E+02 -0.21834E+03
 0.79349998E+02 -0.16839E+03
 0.79399994E+02 -0.37927E+03
 0.79449997E+02 -0.44009E+03
 0.79499992E+02 -0.33865E+03
 0.79549995E+02 -0.89693E+02
 0.79599998E+02  0.24870E+03
 0.79649994E+02  0.19569E+03
 0.79699997E+02 -0.77807E+02
 0.79749992E+02 -0.29690E+03
 0.79799995E+02 -0.42345E+03
 0.79849998E+02 -0.29777E+03
 0.79899994E+02 -0.21212E+03
 0.79949997E+02 -0.36032E+03
 0.79999992E+02 -0.51917E+03
 0.80049995E+02 -0.64961E+03
 0.80099998E+02 -0.67954E+03
 0.80149994E+02 -0.70162E+03
 0.80199997E+02 -0.69190E+03
 0.80249992E+02 -0.60902E+03
 0.80299995E+02 -0.60522E+03
 0.80349998E+02 -0.78750E+03
 0.80399994E+02 -0.86623E+03
 0.80449997E+02 -0.75652E+03
 0.80499992E+02 -0.60744E+03
 0.80549995E+02 -0.44938E+03
 0.80599998E+02 -0.64928E+03
 0.80649994E+02 -0.97905E+03
 0.80699997E+02 -0.99850E+03
 0.80749992E+02 -0.76649E+03
 0.80799995E+02 -0.49718E+03
 0.80849998E+02 -0.43732E+03
 0.80899994E+02 -0.42752E+03
 0.80949997E+02 -0.33508E+03
 0.80999992E+02 -0.25217E+03
 0.81049995E+02 -0.58935E+02
 0.81099998E+02  0.10478E+03
 0.81149994E+02  0.82562E+02
 0.81199997E+02 -0.21792E+03
 0.81249992E+02 -0.42905E+03
 0.81299995E+02 -0.38527E+03
 0.81349998E+02 -0.47752E+03
 0.81399994E+02 -0.60330E+03
 0.81449997E+02 -0.63876E+03
 0.81499992E+02 -0.65357E+03
 0.81549995E+02 -0.54480E+03
 0.81599998E+02 -0.33642E+03
 0.81649994E+02 -0.50625E+02
 0.81699997E+02  0.69547E+02
 0.81749992E+02 -0.12659E+03
 0.81799995E+02 -0.30652E+03
 0.81849998E+02 -0.25441E+03
 0.81899994E+02 -0.73728E+02
 0.81949997E+02 -0.74318E+02
 0.81999992E+02 -0.31746E+03
 0.82049995E+02 -0.61720E+03
 0.82099998E+02 -0.57218E+03
 0.82149994E+02 -0.43216E+03
 0.82199997E+02 -0.54041E+03
 0.82249992E+02 -0.70433E+03
 0.82299995E+02 -0.78656E+03
 0.82349998E+02 -0.71251E+03
 0.82399994E+02 -0.58856E+03
 0.82449997E+02 -0.47474E+03
 0.82499992E+02 -0.21314E+03
 0.82549995E+02 -0.12419E+03
 0.82599998E+02 -0.21848E+03
 0.82649994E+02 -0.20563E+03
 0.82699997E+02 -0.82647E+02
 0.82749992E+02  0.67239E+02
 0.82799995E+02 -0.21775E+02
 0.82849998E+02 -0.26331E+03
 0.82899994E+02 -0.38378E+03
 0.82949997E+02 -0.29343E+03
 0.82999992E+02 -0.22831E+03
 0.83049995E+02 -0.21644E+03
 0.83099998E+02 -0.22669E+03
 0.83149994E+02 -0.43168E+03
 0.83199997E+02 -0.67674E+03
 0.83249992E+02 -0.63502E+03
 0.83299995E+02 -0.45683E+03
 0.83349998E+02 -0.41990E+03
 0.83399994E+02 -0.54557E+03
 0.83449997E+02 -0.47678E+03
 0.83499992E+02 -0.33849E+03
 0.83549995E+02 -0.50690E+03
 0.83599998E+02 -0.60600E+03
 0.83649994E+02 -0.59376E+03
 0.83699997E+02 -0.77064E+03
 0.83749992E+02 -0.10062E+04
 0.83799995E+02 -0.10213E+04
 0.83849998E+02 -0.85894E+03
 0.83899994E+02 -0.60326E+03
 0.83949997E+02 -0.28483E+03
 0.83999992E+02 -0.62719E+02
 0.84049995E+02 -0.15486E+03
 0.84099998E+02 -0.42644E+03
 0.84149994E+02 -0.54342E+03
 0.84199997E+02 -0.56416E+03
 0.84249992E+02 -0.53928E+03
 0.84299995E+02 -0.60231E+03
 0.84349998E+02 -0.72509E+03
 0.84399994E+02 -0.63560E+03
 0.84449997E+02 -0.39107E+03
 0.84499992E+02 -0.40999E+03
 0.84549995E+02 -0.54622E+03
 0.84599998E+02 -0.38950E+03
 0.84649994E+02 -0.29091E+02
 0.84699997E+02  0.30628E+03
 0.84749992E+02  0.32841E+03
 0.84799995E+02  0.12736E+03
 0.84849998E+02 -0.16371E+03
 0.84899994E+02 -0.39644E+03
 0.84949997E+02 -0.58960E+03
 0.84999992E+02 -0.62484E+03
 0.85049995E+02 -0.44791E+03
 0.85099998E+02 -0.42866E+03
 0.85149994E+02 -0.49235E+03
 0.85199997E+02 -0.62812E+03
 0.85249992E+02 -0.83491E+03
 0.85299995E+02 -0.97811E+03
 0.85349998E+02 -0.88484E+03
 0.85399994E+02 -0.56681E+03
 0.85449997E+02 -0.28947E+03
 0.85499992E+02 -0.18560E+03
 0.85549995E+02 -0.20694E+03
 0.85599998E+02 -0.23314E+03
 0.85649994E+02 -0.25104E+03
 0.85699997E+02 -0.25786E+03
 0.85749992E+02 -0.28004E+03
 0.85799995E+02 -0.29937E+03
 0.85849998E+02 -0.31856E+03
 0.85899994E+02 -0.33827E+03
 0.85949997E+02 -0.51054E+03
 0.85999992E+02 -0.77130E+03
 0.86049995E+02 -0.90705E+03
 0.86099998E+02 -0.90158E+03
 0.86149994E+02 -0.84099E+03
 0.86199997E+02 -0.68304E+03
 0.86249992E+02 -0.41777E+03
 0.86299995E+02 -0.16636E+03
 0.86349998E+02 -0.80450E+01
 0.86399994E+02 -0.75694E+01
 0.86449997E+02 -0.27356E+02
 0.86499992E+02 -0.21139E+03
 0.86549995E+02 -0.48409E+03
 0.86599998E+02 -0.56852E+03
 0.86649994E+02 -0.45791E+03
 0.86699997E+02 -0.29378E+03
 0.86749992E+02 -0.27873E+03
 0.86799995E+02 -0.48953E+03
 0.86849998E+02 -0.54598E+03
 0.86899994E+02 -0.29953E+03
 0.86949997E+02 -0.10253E+03
 0.86999992E+02 -0.49339E+02
 0.87049995E+02 -0.15012E+03
 0.87099998E+02 -0.27681E+03
 0.87149994E+02 -0.34603E+03
 0.87199997E+02 -0.47155E+03
 0.87249992E+02 -0.73235E+03
 0.87299995E+02 -0.90492E+03
 0.87349998E+02 -0.76311E+03
 0.87399994E+02 -0.50134E+03
 0.87449997E+02 -0.37836E+03
 0.87499992E+02 -0.35521E+03
 0.87549995E+02 -0.30650E+03
 0.87599991E+02 -0.28907E+03
 0.87649994E+02 -0.32612E+03
 0.87699997E+02 -0.35763E+03
 0.87749992E+02 -0.46805E+03
 0.87799995E+02 -0.64747E+03
 0.87849991E+02 -0.62832E+03
 0.87899994E+02 -0.40241E+03
 0.87949997E+02 -0.14774E+03
 0.87999992E+02 -0.11076E+03
 0.88049995E+02 -0.22370E+03
 0.88099991E+02 -0.17845E+03
 0.88149994E+02 -0.87258E+02
 0.88199997E+02 -0.80112E+02
 0.88249992E+02 -0.92846E+02
 0.88299995E+02 -0.12022E+03
 0.88349991E+02 -0.14205E+03
 0.88399994E+02 -0.10671E+03
 0.88449997E+02 -0.11901E+03
 0.88499992E+02 -0.29498E+03
 0.88549995E+02 -0.51461E+03
 0.88599991E+02 -0.56639E+03
 0.88649994E+02 -0.44280E+03
 0.88699997E+02 -0.35174E+03
 0.88749992E+02 -0.50800E+03
 0.88799995E+02 -0.73978E+03
 0.88849991E+02 -0.77355E+03
 0.88899994E+02 -0.67791E+03
 0.88949997E+02 -0.64748E+03
 0.88999992E+02 -0.63704E+03
 0.89049995E+02 -0.59773E+03
 0.89099991E+02 -0.45527E+03
 0.89149994E+02 -0.32441E+03
 0.89199997E+02 -0.44225E+03
 0.89249992E+02 -0.72554E+03
 0.89299995E+02 -0.87503E+03
 0.89349991E+02 -0.72366E+03
 0.89399994E+02 -0.45503E+03
 0.89449997E+02 -0.27806E+03
 0.89499992E+02 -0.16463E+03
 0.89549995E+02 -0.37883E+02
 0.89599991E+02 -0.72751E+02
 0.89649994E+02 -0.15464E+03
 0.89699997E+02 -0.25348E+03
 0.89749992E+02 -0.38390E+03
 0.89799995E+02 -0.41487E+03
 0.89849991E+02 -0.36690E+03
 0.89899994E+02 -0.35197E+03
 0.89949997E+02 -0.51307E+03
 0.89999992E+02 -0.74435E+03
 0.90049995E+02 -0.78799E+03
 0.90099991E+02 -0.68608E+03
 0.90149994E+02 -0.65212E+03
 0.90199997E+02 -0.64091E+03
 0.90249992E+02 -0.62189E+03
 0.90299995E+02 -0.44927E+03
 0.90349991E+02 -0.31058E+03
 0.90399994E+02 -0.34838E+03
 0.90449997E+02 -0.33088E+03
 0.90499992E+02 -0.44273E+03
 0.90549995E+02 -0.77551E+03
 0.90599991E+02 -0.90809E+03
 0.90649994E+02 -0.80973E+03
 0.90699997E+02 -0.84554E+03
 0.90749992E+02 -0.91477E+03
 0.90799995E+02 -0.79173E+03
 0.90849991E+02 -0.45837E+03
 0.90899994E+02 -0.20449E+03
 0.90949997E+02 -0.23245E+03
 0.90999992E+02 -0.28643E+03
 0.91049995E+02 -0.21393E+03
 0.91099991E+02 -0.27617E+03
 0.91149994E+02 -0.47325E+03
 0.91199997E+02 -0.54872E+03
 0.91249992E+02 -0.51887E+03
 0.91299995E+02 -0.38705E+03
 0.91349991E+02 -0.17824E+03
 0.91399994E+02 -0.14422E+03
 0.91449997E+02 -0.26339E+03
 0.91499992E+02 -0.36991E+03
 0.91549995E+02 -0.49233E+03
 0.91599991E+02 -0.58960E+03
 0.91649994E+02 -0.67067E+03
 0.91699997E+02 -0.67869E+03
 0.91749992E+02 -0.54857E+03
 0.91799995E+02 -0.26961E+03
 0.91849991E+02 -0.75476E+02
 0.91899994E+02 -0.84903E+02
 0.91949997E+02 -0.95281E+02
 0.91999992E+02 -0.19011E+03
 0.92049995E+02 -0.24225E+03
 0.92099991E+02 -0.73902E+02
 0.92149994E+02  0.35039E+02
 0.92199997E+02 -0.24208E+02
 0.92249992E+02 -0.11867E+03
 0.92299995E+02 -0.14372E+03
 0.92349991E+02 -0.11852E+03
 0.92399994E+02 -0.12251E+03
 0.92449997E+02 -0.17401E+03
 0.92499992E+02 -0.26799E+03
 0.92549995E+02 -0.31685E+03
 0.92599991E+02 -0.27758E+03
 0.92649994E+02 -0.25752E+03
 0.92699997E+02 -0.42093E+03
 0.92749992E+02 -0.63749E+03
 0.92799995E+02 -0.73157E+03
 0.92849991E+02 -0.62159E+03
 0.92899994E+02 -0.48623E+03
 0.92949997E+02 -0.45056E+03
 0.92999992E+02 -0.47595E+03
 0.93049995E+02 -0.60627E+03
 0.93099991E+02 -0.68947E+03
 0.93149994E+02 -0.76521E+03
 0.93199997E+02 -0.81179E+03
 0.93249992E+02 -0.89005E+03
 0.93299995E+02 -0.96340E+03
 0.93349991E+02 -0.89885E+03
 0.93399994E+02 -0.76042E+03
 0.93449997E+02 -0.62956E+03
 0.93499992E+02 -0.45895E+03
 0.93549995E+02 -0.28070E+03
 0.93599991E+02 -0.24997E+03
 0.93649994E+02 -0.29264E+03
 0.93699997E+02 -0.24078E+03
 0.93749992E+02 -0.54577E+02
 0.93799995E+02  0.39772E+02
 0.93849991E+02  0.15898E+02
 0.93899994E+02 -0.16071E+02
 0.93949997E+02  0.88838E+01
 0.93999992E+02 -0.14727E+02
 0.94049995E+02 -0.16819E+03
 0.94099991E+02 -0.37616E+03
 0.94149994E+02 -0.53899E+03
 0.94199997E+02 -0.54856E+03
 0.94249992E+02 -0.51781E+03
 0.94299995E+02 -0.44748E+03
 0.94349991E+02 -0.30527E+03
 0.94399994E+02 -0.28929E+03
 0.94449997E+02 -0.35631E+03
 0.94499992E+02 -0.39770E+03
 0.94549995E+02 -0.44087E+03
 0.94599991E+02 -0.42185E+03
 0.94649994E+02 -0.49058E+03
 0.94699997E+02 -0.57085E+03
 0.94749992E+02 -0.54929E+03
 0.94799995E+02 -0.53770E+03
 0.94849991E+02 -0.57239E+03
 0.94899994E+02 -0.62763E+03
 0.94949997E+02 -0.64721E+03
 0.94999992E+02 -0.70890E+03
 0.95049995E+02 -0.70280E+03
 0.95099991E+02 -0.62871E+03
 0.95149994E+02 -0.59378E+03
 0.95199997E+02 -0.51224E+03
 0.95249992E+02 -0.45465E+03
 0.95299995E+02 -0.39895E+03
 0.95349991E+02 -0.23993E+03
 0.95399994E+02 -0.22563E+03
 0.95449997E+02 -0.35003E+03
 0.95499992E+02 -0.34127E+03
 0.95549995E+02 -0.28957E+03
 0.95599991E+02 -0.24168E+03
 0.95649994E+02 -0.23700E+03
 0.95699997E+02 -0.35014E+03
 0.95749992E+02 -0.43474E+03
 0.95799995E+02 -0.45689E+03
 0.95849991E+02 -0.45393E+03
 0.95899994E+02 -0.43540E+03
 0.95949997E+02 -0.46848E+03
 0.95999992E+02 -0.63349E+03
 0.96049995E+02 -0.76247E+03
 0.96099991E+02 -0.79725E+03
 0.96149994E+02 -0.77236E+03
 0.96199997E+02 -0.66737E+03
 0.96249992E+02 -0.58825E+03
 0.96299995E+02 -0.57133E+03
 0.96349991E+02 -0.53127E+03
 0.96399994E+02 -0.40647E+03
 0.96449997E+02 -0.29311E+03
 0.96499992E+02 -0.27062E+03
 0.96549995E+02 -0.28495E+03
 0.96599991E+02 -0.22911E+03
 0.96649994E+02 -0.16466E+03
 0.96699997E+02 -0.18466E+03
 0.96749992E+02 -0.30961E+03
 0.96799995E+02 -0.37694E+03
 0.96849991E+02 -0.33958E+03
 0.96899994E+02 -0.26419E+03
 0.96949997E+02 -0.15759E+03
 0.96999992E+02 -0.98499E+02
 0.97049995E+02 -0.11740E+03
 0.97099991E+02 -0.27306E+03
 0.97149994E+02 -0.50180E+03
 0.97199997E+02 -0.57251E+03
 0.97249992E+02 -0.51029E+03
 0.97299995E+02 -0.52309E+03
 0.97349991E+02 -0.56950E+03
 0.97399994E+02 -0.55151E+03
 0.97449997E+02 -0.47036E+03
 0.97499992E+02 -0.38241E+03
 0.97549995E+02 -0.37928E+03
 0.97599991E+02 -0.39610E+03
 0.97649994E+02 -0.43663E+03
 0.97699997E+02 -0.45285E+03
 0.97749992E+02 -0.34787E+03
 0.97799995E+02 -0.18339E+03
 0.97849991E+02 -0.30955E+02
 0.97899994E+02 -0.14260E+02
 0.97949997E+02 -0.75374E+02
 0.97999992E+02 -0.19061E+03
