-0.19969940E+01  0.29576E+05
-0.19469941E+01  0.29387E+05
-0.18969940E+01  0.29482E+05
-0.18469940E+01  0.29462E+05
-0.17969940E+01  0.29464E+05
-0.17469940E+01  0.29457E+05
-0.16969941E+01  0.29449E+05
-0.16469941E+01  0.29441E+05
-0.15969940E+01  0.29446E+05
-0.15469940E+01  0.29449E+05
-0.14969940E+01  0.29461E+05
-0.14469941E+01  0.29463E+05
-0.13969941E+01  0.29448E+05
-0.13469940E+01  0.29446E+05
-0.12969941E+01  0.29431E+05
-0.12469940E+01  0.29428E+05
-0.11969941E+01  0.29438E+05
-0.11469941E+01  0.29463E+05
-0.10969940E+01  0.29482E+05
-0.10469941E+01  0.29503E+05
-0.99699408E+00  0.29533E+05
-0.94699407E+00  0.29553E+05
-0.89699411E+00  0.29567E+05
-0.84699404E+00  0.29592E+05
-0.79699409E+00  0.29590E+05
-0.74699414E+00  0.29594E+05
-0.69699407E+00  0.29595E+05
-0.64699411E+00  0.29587E+05
-0.59699416E+00  0.29555E+05
-0.54699409E+00  0.29536E+05
-0.49699414E+00  0.29534E+05
-0.44699407E+00  0.29522E+05
-0.39699411E+00  0.29510E+05
-0.34699416E+00  0.29481E+05
-0.29699409E+00  0.29456E+05
-0.24699414E+00  0.29409E+05
-0.19699407E+00  0.29387E+05
-0.14699411E+00  0.29372E+05
-0.96994162E-01  0.29373E+05
-0.46994090E-01  0.29380E+05
 0.30058622E-02  0.29394E+05
 0.53005934E-01  0.29396E+05
 0.10300589E+00  0.29393E+05
 0.15300584E+00  0.29393E+05
 0.20300579E+00  0.29399E+05
 0.25300574E+00  0.29424E+05
 0.30300593E+00  0.29446E+05
 0.35300589E+00  0.29464E+05
 0.40300584E+00  0.29476E+05
 0.45300579E+00  0.29483E+05
 0.50300574E+00  0.29508E+05
 0.55300593E+00  0.29510E+05
 0.60300589E+00  0.29516E+05
 0.65300584E+00  0.29533E+05
 0.70300579E+00  0.29540E+05
 0.75300574E+00  0.29563E+05
 0.80300570E+00  0.29572E+05
 0.85300589E+00  0.29575E+05
 0.90300584E+00  0.29586E+05
 0.95300579E+00  0.29591E+05
 0.10030057E+01  0.29601E+05
 0.10530057E+01  0.29593E+05
 0.11030059E+01  0.29606E+05
 0.11530058E+01  0.29608E+05
 0.12030058E+01  0.29536E+05
 0.12530057E+01  0.29565E+05
 0.13030057E+01  0.29486E+05
 0.13530059E+01  0.29454E+05
 0.14030058E+01  0.29501E+05
 0.14530058E+01  0.29478E+05
 0.15030057E+01  0.29474E+05
 0.15530057E+01  0.29460E+05
 0.16030059E+01  0.29451E+05
 0.16530058E+01  0.29430E+05
 0.17030058E+01  0.29494E+05
 0.17530057E+01  0.29464E+05
 0.18030057E+01  0.29464E+05
 0.18530056E+01  0.29513E+05
 0.19030058E+01  0.29513E+05
 0.19530058E+01  0.29500E+05
 0.20030057E+01  0.29497E+05
 0.20530057E+01  0.29551E+05
 0.21030059E+01  0.29536E+05
 0.21530056E+01  0.29577E+05
 0.22030058E+01  0.29582E+05
 0.22530055E+01  0.29614E+05
 0.23030057E+01  0.29588E+05
 0.23530059E+01  0.29585E+05
 0.24030056E+01  0.29586E+05
 0.24530058E+01  0.29582E+05
 0.25030055E+01  0.29579E+05
 0.25530057E+01  0.29544E+05
 0.26030059E+01  0.29549E+05
 0.26530056E+01  0.29472E+05
 0.27030058E+01  0.29489E+05
 0.27530055E+01  0.29488E+05
 0.28030057E+01  0.29440E+05
 0.28530059E+01  0.29393E+05
 0.29030056E+01  0.29410E+05
 0.29530058E+01  0.29328E+05
 0.30030055E+01  0.29340E+05
 0.30530057E+01  0.29324E+05
 0.31030059E+01  0.29309E+05
 0.31530056E+01  0.29355E+05
 0.32030058E+01  0.29319E+05
 0.32530055E+01  0.29384E+05
 0.33030057E+01  0.29370E+05
 0.33530059E+01  0.29398E+05
 0.34030056E+01  0.29367E+05
 0.34530058E+01  0.29375E+05
 0.35030055E+01  0.29424E+05
 0.35530057E+01  0.29414E+05
 0.36030054E+01  0.29464E+05
 0.36530056E+01  0.29478E+05
 0.37030058E+01  0.29505E+05
 0.37530055E+01  0.29555E+05
 0.38030057E+01  0.29597E+05
 0.38530054E+01  0.29637E+05
 0.39030056E+01  0.29662E+05
 0.39530058E+01  0.29677E+05
 0.40030055E+01  0.29683E+05
 0.40530057E+01  0.29679E+05
 0.41030054E+01  0.29678E+05
 0.41530056E+01  0.29695E+05
 0.42030058E+01  0.29668E+05
 0.42530055E+01  0.29701E+05
 0.43030057E+01  0.29679E+05
 0.43530054E+01  0.29651E+05
 0.44030056E+01  0.29618E+05
 0.44530058E+01  0.29585E+05
 0.45030055E+01  0.29581E+05
 0.45530057E+01  0.29519E+05
 0.46030054E+01  0.29538E+05
 0.46530056E+01  0.29519E+05
 0.47030058E+01  0.29509E+05
 0.47530055E+01  0.29430E+05
 0.48030057E+01  0.29387E+05
 0.48530054E+01  0.29462E+05
 0.49030056E+01  0.29356E+05
 0.49530058E+01  0.29309E+05
 0.50030055E+01  0.29315E+05
 0.50530057E+01  0.29262E+05
 0.51030054E+01  0.29287E+05
 0.51530056E+01  0.29387E+05
 0.52030058E+01  0.29318E+05
 0.52530055E+01  0.29338E+05
 0.53030057E+01  0.29423E+05
 0.53530054E+01  0.29273E+05
 0.54030056E+01  0.29462E+05
 0.54530053E+01  0.29428E+05
 0.55030055E+01  0.29116E+05
 0.55530057E+01  0.28088E+05
 0.56030054E+01  0.27853E+05
 0.56530056E+01  0.27248E+05
 0.57030053E+01  0.29784E+05
 0.57530055E+01  0.29611E+05
 0.58030057E+01  0.28925E+05
 0.58530054E+01  0.26025E+05
 0.59030056E+01  0.24563E+05
 0.59530053E+01  0.31796E+05
 0.60030055E+01  0.28417E+05
 0.60530052E+01  0.26712E+05
 0.61030054E+01  0.34969E+05
 0.61530056E+01  0.21719E+05
 0.62030058E+01  0.27793E+05
 0.62530050E+01  0.45522E+05
 0.63030052E+01  0.18413E+05
 0.63530054E+01  0.26780E+05
 0.64030056E+01  0.39250E+05
 0.64530058E+01  0.23144E+05
 0.65030050E+01  0.23746E+05
 0.65530052E+01  0.36371E+05
 0.66030054E+01  0.36195E+05
 0.66530056E+01  0.10622E+05
 0.67030058E+01  0.24546E+05
 0.67530050E+01  0.31946E+05
 0.68030052E+01  0.14627E+05
 0.68530054E+01  0.29569E+05
 0.69030056E+01  0.38622E+05
 0.69530058E+01  0.21051E+05
 0.70030050E+01  0.30696E+05
 0.70530052E+01  0.35229E+05
 0.71030054E+01  0.31532E+05
 0.71530056E+01  0.17570E+05
 0.72030058E+01  0.38683E+05
 0.72530050E+01  0.29344E+05
 0.73030052E+01  0.34461E+05
 0.73530054E+01  0.16646E+05
 0.74030056E+01  0.48636E+05
 0.74530058E+01  0.24340E+05
 0.75030050E+01  0.63872E+04
 0.75530052E+01  0.32616E+05
 0.76030054E+01  0.81886E+04
 0.76530056E+01  0.48631E+05
 0.77030058E+01  0.26348E+05
 0.77530050E+01  0.36237E+05
 0.78030052E+01  0.28860E+05
 0.78530054E+01  0.25581E+04
 0.79030056E+01  0.30251E+05
 0.79530058E+01  0.35492E+05
 0.80030050E+01  0.39164E+05
 0.80530052E+01  0.83284E+04
 0.81030054E+01  0.34606E+05
 0.81530056E+01  0.58136E+05
 0.82030058E+01  0.21512E+05
 0.82530050E+01  0.72247E+05
 0.83030052E+01  0.84213E+04
 0.83530054E+01  0.76102E+05
 0.84030056E+01  0.21599E+05
 0.84530058E+01  0.46811E+05
 0.85030050E+01  0.22695E+05
 0.85530052E+01  0.67068E+04
 0.86030054E+01  0.42492E+05
 0.86530056E+01  0.44877E+05
 0.87030058E+01  0.46823E+05
 0.87530050E+01 -0.36348E+05
 0.88030052E+01  0.94411E+05
 0.88530054E+01  0.25666E+05
 0.89030056E+01 -0.68019E+05
 0.89530058E+01  0.74223E+05
 0.90030050E+01  0.16962E+06
 0.90530052E+01 -0.85134E+05
 0.91030054E+01 -0.85143E+05
 0.91530056E+01  0.13633E+06
 0.92030048E+01  0.11391E+06
 0.92530050E+01 -0.78491E+05
 0.93030052E+01 -0.29276E+05
 0.93530054E+01  0.50005E+05
 0.94030056E+01  0.16379E+06
 0.94530048E+01  0.15458E+05
 0.95030050E+01 -0.12510E+06
 0.95530052E+01  0.44772E+05
 0.96030054E+01  0.15133E+06
 0.96530056E+01  0.13041E+06
 0.97030048E+01 -0.19155E+06
 0.97530050E+01  0.76856E+05
 0.98030052E+01  0.19366E+06
 0.98530054E+01 -0.14002E+06
 0.99030056E+01  0.32641E+04
 0.99530048E+01  0.13996E+06
 0.10003005E+02  0.34501E+05
 0.10053005E+02  0.18048E+06
 0.10103005E+02 -0.17210E+05
 0.10153006E+02 -0.91264E+05
 0.10203005E+02  0.54335E+05
 0.10253005E+02 -0.27862E+06
 0.10303005E+02  0.44320E+05
 0.10353005E+02  0.23426E+06
 0.10403006E+02 -0.66962E+04
 0.10453005E+02  0.14781E+06
 0.10503005E+02  0.14633E+06
 0.10553005E+02 -0.21474E+06
 0.10603005E+02  0.66992E+05
 0.10653006E+02  0.47734E+06
 0.10703005E+02 -0.10456E+06
 0.10753005E+02 -0.31177E+06
 0.10803005E+02  0.54428E+05
 0.10853005E+02  0.12895E+06
 0.10903006E+02 -0.72295E+05
 0.10953005E+02 -0.12314E+06
 0.11003005E+02  0.32667E+06
 0.11053005E+02  0.27884E+06
 0.11103005E+02  0.79249E+05
 0.11153006E+02 -0.20487E+06
 0.11203005E+02 -0.36340E+06
 0.11253005E+02  0.26923E+05
 0.11303005E+02  0.11088E+06
 0.11353005E+02  0.13417E+06
 0.11403006E+02 -0.20569E+05
 0.11453005E+02 -0.44454E+05
 0.11503005E+02  0.23755E+06
 0.11553005E+02  0.28759E+06
 0.11603005E+02  0.39893E+05
 0.11653006E+02 -0.75755E+05
 0.11703005E+02 -0.48494E+05
 0.11753005E+02  0.14174E+06
 0.11803005E+02  0.10953E+06
 0.11853005E+02 -0.21648E+06
 0.11903006E+02 -0.99192E+05
 0.11953005E+02 -0.57908E+05
 0.12003005E+02 -0.55268E+05
 0.12053005E+02  0.15790E+06
 0.12103005E+02  0.13679E+06
 0.12153006E+02 -0.13544E+06
 0.12203005E+02 -0.44370E+05
 0.12253005E+02  0.17660E+06
 0.12303005E+02  0.85980E+04
 0.12353005E+02 -0.18461E+05
 0.12403006E+02  0.22436E+06
 0.12453005E+02  0.10895E+05
 0.12503005E+02  0.68525E+05
 0.12553005E+02  0.51154E+05
 0.12603005E+02 -0.67377E+05
 0.12653005E+02  0.90698E+05
 0.12703005E+02  0.25060E+05
 0.12753005E+02  0.90270E+05
 0.12803005E+02  0.23809E+05
 0.12853005E+02  0.10685E+06
 0.12903005E+02 -0.45908E+05
 0.12953005E+02 -0.59205E+05
 0.13003005E+02  0.84014E+05
 0.13053005E+02  0.96325E+04
 0.13103005E+02 -0.33484E+05
 0.13153005E+02  0.51675E+04
 0.13203005E+02 -0.18900E+05
 0.13253005E+02  0.36090E+04
 0.13303005E+02  0.10770E+06
 0.13353005E+02  0.22227E+06
 0.13403005E+02  0.70605E+05
 0.13453005E+02 -0.44813E+05
 0.13503005E+02 -0.80809E+04
 0.13553005E+02 -0.20668E+05
 0.13603005E+02  0.87060E+05
 0.13653005E+02 -0.32848E+05
 0.13703005E+02 -0.43549E+05
 0.13753005E+02  0.82821E+05
 0.13803005E+02 -0.25323E+05
 0.13853005E+02 -0.40581E+05
 0.13903005E+02  0.86252E+05
 0.13953005E+02  0.37910E+05
 0.14003005E+02  0.46979E+05
 0.14053005E+02  0.69802E+05
 0.14103004E+02  0.61402E+05
 0.14153006E+02  0.77153E+05
 0.14203005E+02  0.20278E+05
 0.14253004E+02 -0.57705E+05
 0.14303005E+02  0.38629E+05
 0.14353004E+02  0.90314E+05
 0.14403006E+02  0.24988E+05
 0.14453005E+02 -0.12395E+05
 0.14503004E+02  0.24214E+05
 0.14553005E+02  0.15722E+05
 0.14603004E+02 -0.35809E+05
 0.14653006E+02  0.98852E+05
 0.14703005E+02  0.69282E+05
 0.14753004E+02 -0.84806E+04
 0.14803005E+02  0.63942E+05
 0.14853004E+02  0.24587E+05
 0.14903006E+02  0.54207E+05
 0.14953005E+02  0.73400E+05
 0.15003004E+02 -0.26454E+05
 0.15053005E+02  0.11759E+05
 0.15103004E+02  0.48937E+05
 0.15153006E+02  0.33888E+05
 0.15203005E+02 -0.10065E+04
 0.15253004E+02 -0.45539E+05
 0.15303005E+02  0.10155E+04
 0.15353004E+02  0.16600E+05
 0.15403006E+02  0.79109E+05
 0.15453005E+02  0.86789E+05
 0.15503004E+02  0.37464E+05
 0.15553005E+02  0.35559E+05
 0.15603004E+02 -0.47891E+04
 0.15653006E+02  0.13198E+05
 0.15703005E+02  0.51875E+05
 0.15753004E+02  0.80669E+04
 0.15803005E+02 -0.67279E+04
 0.15853004E+02  0.67685E+05
 0.15903006E+02  0.50272E+05
 0.15953005E+02  0.52244E+05
 0.16003004E+02  0.60625E+05
 0.16053005E+02  0.42058E+05
 0.16103004E+02  0.35307E+05
 0.16153006E+02  0.78273E+05
 0.16203005E+02  0.87806E+05
 0.16253004E+02  0.10741E+05
 0.16303005E+02  0.19621E+05
 0.16353004E+02 -0.85710E+04
 0.16403006E+02  0.79411E+04
 0.16453005E+02  0.15162E+05
 0.16503004E+02 -0.48040E+04
 0.16553005E+02 -0.87374E+04
 0.16603004E+02 -0.58822E+05
 0.16653006E+02  0.12855E+05
 0.16703005E+02  0.29120E+05
 0.16753004E+02  0.45976E+05
 0.16803005E+02  0.12155E+06
 0.16853004E+02  0.18424E+05
 0.16903006E+02 -0.26361E+05
 0.16953005E+02  0.44101E+05
 0.17003004E+02  0.24442E+05
 0.17053005E+02 -0.71624E+03
 0.17103004E+02  0.13286E+05
 0.17153006E+02  0.48415E+05
 0.17203005E+02  0.35089E+05
 0.17253004E+02  0.69478E+05
 0.17303005E+02  0.75274E+05
 0.17353004E+02  0.34731E+05
 0.17403006E+02  0.52161E+05
 0.17453005E+02  0.37524E+05
 0.17503004E+02  0.33791E+05
 0.17553005E+02  0.30523E+05
 0.17603004E+02  0.35397E+05
 0.17653006E+02  0.31064E+05
 0.17703005E+02  0.61921E+05
 0.17753004E+02  0.76568E+05
 0.17803005E+02  0.38525E+05
 0.17853004E+02  0.16741E+05
 0.17903006E+02  0.92124E+04
 0.17953005E+02  0.62431E+04
 0.18003004E+02  0.40316E+04
 0.18053005E+02  0.45356E+04
 0.18103004E+02  0.24863E+05
 0.18153006E+02  0.18374E+05
 0.18203005E+02  0.27895E+05
 0.18253004E+02  0.47878E+05
 0.18303005E+02  0.65884E+05
 0.18353004E+02  0.59653E+05
 0.18403006E+02  0.70248E+05
 0.18453005E+02  0.45373E+05
 0.18503004E+02 -0.41212E+05
 0.18553005E+02 -0.22921E+05
 0.18603004E+02 -0.27832E+05
 0.18653006E+02 -0.29624E+05
 0.18703005E+02 -0.48069E+03
 0.18753004E+02  0.26813E+05
 0.18803005E+02  0.32852E+05
 0.18853004E+02  0.15869E+05
 0.18903006E+02  0.45507E+05
 0.18953005E+02  0.56040E+05
 0.19003004E+02  0.84366E+05
 0.19053005E+02  0.91604E+05
 0.19103004E+02  0.33451E+05
 0.19153006E+02  0.23558E+05
 0.19203005E+02  0.22467E+05
 0.19253004E+02  0.13885E+05
 0.19303005E+02  0.28664E+05
 0.19353004E+02  0.42968E+05
 0.19403006E+02  0.22279E+05
 0.19453005E+02  0.17804E+05
 0.19503004E+02  0.31126E+05
 0.19553005E+02  0.37272E+05
 0.19603004E+02  0.64189E+05
 0.19653006E+02  0.71332E+05
 0.19703005E+02  0.34295E+05
 0.19753004E+02  0.94350E+04
 0.19803005E+02  0.18548E+05
 0.19853004E+02  0.15196E+05
 0.19903006E+02  0.27819E+05
 0.19953005E+02  0.27464E+05
 0.20003004E+02  0.47516E+05
 0.20053005E+02  0.45759E+05
 0.20103004E+02  0.15949E+05
 0.20153006E+02  0.32542E+05
 0.20203005E+02  0.27206E+05
 0.20253004E+02  0.34024E+05
 0.20303005E+02  0.50148E+05
 0.20353004E+02  0.38835E+05
 0.20403004E+02  0.21498E+05
 0.20453005E+02  0.28802E+05
 0.20503004E+02  0.35995E+05
 0.20553005E+02  0.22667E+05
 0.20603004E+02  0.13628E+05
 0.20653004E+02  0.17297E+05
 0.20703005E+02 -0.95776E+04
 0.20753004E+02 -0.27238E+04
 0.20803005E+02  0.19681E+05
 0.20853004E+02  0.13214E+05
 0.20903004E+02  0.43213E+05
 0.20953005E+02  0.40421E+05
 0.21003004E+02  0.37215E+05
 0.21053005E+02  0.38687E+05
 0.21103004E+02  0.20104E+05
 0.21153004E+02  0.23717E+05
 0.21203005E+02  0.29188E+04
 0.21253004E+02  0.93060E+04
 0.21303005E+02  0.40902E+05
 0.21353004E+02  0.33169E+05
 0.21403004E+02  0.40180E+05
 0.21453005E+02  0.43929E+05
 0.21503004E+02  0.54004E+05
 0.21553005E+02  0.50885E+05
 0.21603004E+02  0.39693E+05
 0.21653004E+02  0.47157E+05
 0.21703005E+02  0.36056E+05
 0.21753004E+02  0.10024E+05
 0.21803005E+02 -0.10679E+05
 0.21853004E+02  0.58624E+04
 0.21903004E+02 -0.39317E+04
 0.21953005E+02  0.89604E+04
 0.22003004E+02  0.50865E+05
 0.22053005E+02  0.43371E+05
 0.22103004E+02  0.44275E+05
 0.22153004E+02  0.26075E+05
 0.22203005E+02  0.27643E+05
 0.22253004E+02  0.58096E+05
 0.22303005E+02  0.42186E+05
 0.22353004E+02  0.56278E+05
 0.22403004E+02  0.72193E+05
 0.22453005E+02  0.58019E+05
 0.22503004E+02  0.65059E+05
 0.22553005E+02  0.65290E+05
 0.22603004E+02  0.59011E+05
 0.22653004E+02  0.34522E+05
 0.22703005E+02  0.15599E+05
 0.22753004E+02  0.40798E+04
 0.22803005E+02 -0.64006E+04
 0.22853004E+02  0.17755E+05
 0.22903004E+02  0.44744E+05
 0.22953005E+02  0.41830E+05
 0.23003004E+02  0.33089E+05
 0.23053005E+02  0.19186E+05
 0.23103004E+02 -0.31482E+03
 0.23153004E+02  0.17363E+05
 0.23203005E+02  0.15459E+05
 0.23253004E+02 -0.19005E+05
 0.23303005E+02 -0.19196E+05
 0.23353004E+02 -0.72708E+04
 0.23403004E+02 -0.89788E+04
 0.23453005E+02 -0.81146E+04
 0.23503004E+02  0.11617E+05
 0.23553005E+02  0.22729E+05
 0.23603004E+02  0.26045E+05
 0.23653004E+02  0.36606E+05
 0.23703005E+02  0.33938E+05
 0.23753004E+02  0.59419E+05
 0.23803005E+02  0.62549E+05
 0.23853004E+02  0.63267E+05
 0.23903004E+02  0.78030E+05
 0.23953005E+02  0.73121E+05
 0.24003004E+02  0.62608E+05
 0.24053005E+02  0.49794E+05
 0.24103004E+02  0.50817E+05
 0.24153004E+02  0.28141E+05
 0.24203005E+02  0.68201E+04
 0.24253004E+02 -0.57082E+04
 0.24303005E+02  0.58075E+04
 0.24353004E+02  0.20620E+05
 0.24403004E+02  0.24762E+05
 0.24453005E+02  0.38633E+05
 0.24503004E+02  0.48127E+05
 0.24553005E+02  0.42212E+05
 0.24603004E+02  0.47271E+05
 0.24653004E+02  0.34239E+05
 0.24703005E+02  0.21472E+05
 0.24753004E+02  0.40806E+05
 0.24803005E+02  0.33581E+05
 0.24853004E+02  0.11967E+05
 0.24903004E+02  0.10824E+05
 0.24953005E+02  0.51711E+04
 0.25003004E+02  0.16227E+04
 0.25053005E+02  0.22754E+05
 0.25103004E+02  0.28488E+05
 0.25153004E+02  0.36918E+05
 0.25203005E+02  0.13543E+05
 0.25253004E+02  0.14838E+05
 0.25303005E+02  0.32483E+05
 0.25353004E+02  0.30203E+05
 0.25403004E+02  0.36741E+05
 0.25453005E+02  0.50326E+05
 0.25503004E+02  0.55688E+05
 0.25553005E+02  0.34666E+05
 0.25603004E+02  0.36977E+05
 0.25653004E+02  0.31849E+05
 0.25703005E+02  0.20250E+05
 0.25753004E+02  0.18136E+05
 0.25803005E+02  0.16304E+05
 0.25853004E+02  0.11703E+05
 0.25903004E+02  0.29969E+05
 0.25953005E+02  0.48427E+05
 0.26003004E+02  0.45585E+05
 0.26053005E+02  0.26635E+05
 0.26103004E+02  0.28059E+05
 0.26153004E+02  0.34252E+05
 0.26203005E+02  0.17668E+05
 0.26253004E+02  0.25619E+05
 0.26303005E+02  0.38535E+05
 0.26353004E+02  0.45601E+05
 0.26403004E+02  0.46254E+05
 0.26453005E+02  0.44955E+05
 0.26503004E+02  0.30923E+05
 0.26553005E+02  0.18258E+05
 0.26603004E+02  0.20784E+05
 0.26653004E+02  0.27584E+05
 0.26703005E+02  0.15436E+05
 0.26753004E+02  0.18699E+05
 0.26803005E+02  0.48089E+05
 0.26853004E+02  0.37965E+05
 0.26903004E+02  0.21641E+05
 0.26953005E+02  0.41757E+05
 0.27003004E+02  0.50096E+05
 0.27053003E+02  0.32282E+05
 0.27103004E+02  0.21468E+05
 0.27153004E+02  0.18587E+05
 0.27203005E+02  0.22747E+05
 0.27253004E+02  0.25449E+05
 0.27303003E+02  0.24850E+05
 0.27353004E+02  0.21509E+05
 0.27403004E+02  0.23532E+05
 0.27453005E+02  0.24950E+05
 0.27503004E+02  0.17815E+05
 0.27553003E+02  0.23489E+05
 0.27603004E+02  0.29988E+05
 0.27653004E+02  0.24101E+05
 0.27703005E+02  0.38707E+05
 0.27753004E+02  0.49701E+05
 0.27803003E+02  0.35523E+05
 0.27853004E+02  0.36955E+05
 0.27903004E+02  0.35493E+05
 0.27953005E+02  0.26154E+05
 0.28003004E+02  0.25546E+05
 0.28053003E+02  0.30772E+05
 0.28103004E+02  0.29055E+05
 0.28153004E+02  0.23813E+05
 0.28203005E+02  0.26463E+05
 0.28253004E+02  0.24704E+05
 0.28303003E+02  0.15346E+05
 0.28353004E+02  0.16203E+05
 0.28403004E+02  0.38975E+05
 0.28453005E+02  0.31684E+05
 0.28503004E+02  0.30823E+05
 0.28553003E+02  0.48116E+05
 0.28603004E+02  0.46178E+05
 0.28653004E+02  0.44807E+05
 0.28703005E+02  0.27482E+05
 0.28753004E+02  0.25499E+05
 0.28803003E+02  0.24566E+05
 0.28853004E+02  0.12368E+05
 0.28903004E+02  0.18355E+05
 0.28953005E+02  0.18969E+05
 0.29003004E+02  0.29200E+05
 0.29053003E+02  0.37826E+05
 0.29103004E+02  0.33556E+05
 0.29153004E+02  0.42727E+05
 0.29203005E+02  0.37745E+05
 0.29253004E+02  0.33487E+05
 0.29303003E+02  0.39418E+05
 0.29353004E+02  0.30203E+05
 0.29403004E+02  0.23391E+05
 0.29453005E+02  0.22739E+05
 0.29503004E+02  0.20281E+05
 0.29553003E+02  0.15356E+05
 0.29603004E+02  0.10385E+05
 0.29653004E+02  0.19433E+05
 0.29703005E+02  0.37288E+05
 0.29753004E+02  0.41437E+05
 0.29803003E+02  0.44338E+05
 0.29853004E+02  0.46083E+05
 0.29903004E+02  0.43005E+05
 0.29953005E+02  0.37878E+05
 0.30003004E+02  0.37723E+05
 0.30053005E+02  0.46481E+05
 0.30103004E+02  0.30287E+05
 0.30153004E+02  0.25113E+05
 0.30203003E+02  0.25396E+05
 0.30253002E+02  0.18535E+05
 0.30303005E+02  0.24096E+05
 0.30353004E+02  0.24088E+05
 0.30403004E+02  0.23035E+05
 0.30453003E+02  0.14873E+05
 0.30503002E+02  0.12124E+05
 0.30553005E+02  0.23280E+05
 0.30603004E+02  0.26437E+05
 0.30653004E+02  0.18761E+05
 0.30703003E+02  0.21488E+05
 0.30753002E+02  0.30352E+05
 0.30803005E+02  0.40796E+05
 0.30853004E+02  0.51125E+05
 0.30903004E+02  0.49188E+05
 0.30953003E+02  0.39114E+05
 0.31003002E+02  0.33813E+05
 0.31053005E+02  0.36287E+05
 0.31103004E+02  0.36450E+05
 0.31153004E+02  0.28528E+05
 0.31203003E+02  0.23303E+05
 0.31253002E+02  0.15433E+05
 0.31303005E+02  0.19734E+05
 0.31353004E+02  0.24341E+05
 0.31403004E+02  0.22173E+05
 0.31453003E+02  0.28881E+05
 0.31503002E+02  0.31125E+05
 0.31553005E+02  0.34340E+05
 0.31603004E+02  0.35330E+05
 0.31653004E+02  0.33947E+05
 0.31703003E+02  0.36475E+05
 0.31753002E+02  0.40064E+05
 0.31803005E+02  0.42718E+05
 0.31853004E+02  0.43047E+05
 0.31903004E+02  0.31055E+05
 0.31953003E+02  0.19611E+05
 0.32003002E+02  0.22042E+05
 0.32053005E+02  0.14123E+05
 0.32103004E+02  0.11298E+05
 0.32153004E+02  0.16731E+05
 0.32203003E+02  0.19149E+05
 0.32253002E+02  0.24671E+05
 0.32303005E+02  0.28760E+05
 0.32353004E+02  0.36029E+05
 0.32403004E+02  0.34782E+05
 0.32453003E+02  0.30890E+05
 0.32503002E+02  0.27035E+05
 0.32553005E+02  0.25261E+05
 0.32603004E+02  0.28456E+05
 0.32653004E+02  0.27683E+05
 0.32703003E+02  0.34368E+05
 0.32753002E+02  0.39951E+05
 0.32803005E+02  0.39849E+05
 0.32853004E+02  0.32457E+05
 0.32903004E+02  0.34169E+05
 0.32953003E+02  0.38900E+05
 0.33003002E+02  0.30684E+05
 0.33053005E+02  0.37186E+05
 0.33103004E+02  0.32669E+05
 0.33153004E+02  0.26477E+05
 0.33203003E+02  0.26826E+05
 0.33253002E+02  0.22608E+05
 0.33303005E+02  0.19818E+05
 0.33353004E+02  0.20021E+05
 0.33403004E+02  0.25245E+05
 0.33453003E+02  0.25969E+05
 0.33503002E+02  0.34980E+05
 0.33553005E+02  0.37034E+05
 0.33603004E+02  0.34877E+05
 0.33653004E+02  0.34568E+05
 0.33703003E+02  0.29052E+05
 0.33753002E+02  0.33844E+05
 0.33803005E+02  0.26979E+05
 0.33853004E+02  0.21179E+05
 0.33903004E+02  0.20299E+05
 0.33953003E+02  0.13524E+05
 0.34003002E+02  0.17550E+05
 0.34053005E+02  0.24624E+05
 0.34103004E+02  0.32441E+05
 0.34153004E+02  0.30627E+05
 0.34203003E+02  0.28872E+05
 0.34253002E+02  0.26763E+05
 0.34303005E+02  0.27804E+05
 0.34353004E+02  0.33196E+05
 0.34403004E+02  0.35241E+05
 0.34453003E+02  0.38481E+05
 0.34503002E+02  0.41967E+05
 0.34553005E+02  0.44773E+05
 0.34603004E+02  0.44737E+05
 0.34653004E+02  0.37127E+05
 0.34703003E+02  0.30546E+05
 0.34753002E+02  0.32497E+05
 0.34803005E+02  0.26752E+05
 0.34853004E+02  0.23793E+05
 0.34903004E+02  0.29400E+05
 0.34953003E+02  0.30219E+05
 0.35003002E+02  0.29918E+05
 0.35053005E+02  0.39404E+05
 0.35103004E+02  0.35439E+05
 0.35153004E+02  0.22718E+05
 0.35203003E+02  0.21738E+05
 0.35253002E+02  0.22323E+05
 0.35303005E+02  0.15639E+05
 0.35353004E+02  0.15887E+05
 0.35403004E+02  0.21257E+05
 0.35453003E+02  0.22452E+05
 0.35503002E+02  0.31008E+05
 0.35553005E+02  0.30011E+05
 0.35603004E+02  0.33446E+05
 0.35653004E+02  0.34682E+05
 0.35703003E+02  0.28871E+05
 0.35753002E+02  0.31469E+05
 0.35803005E+02  0.35102E+05
 0.35853004E+02  0.38341E+05
 0.35903004E+02  0.30543E+05
 0.35953003E+02  0.30882E+05
 0.36003002E+02  0.38560E+05
 0.36053005E+02  0.32036E+05
 0.36103004E+02  0.29795E+05
 0.36153004E+02  0.34946E+05
 0.36203003E+02  0.37828E+05
 0.36253002E+02  0.34323E+05
 0.36303005E+02  0.33247E+05
 0.36353004E+02  0.36233E+05
 0.36403004E+02  0.37528E+05
 0.36453003E+02  0.40358E+05
 0.36503002E+02  0.40137E+05
 0.36553005E+02  0.39650E+05
 0.36603004E+02  0.28680E+05
 0.36653004E+02  0.19252E+05
 0.36703003E+02  0.17321E+05
 0.36753002E+02  0.10782E+05
 0.36803005E+02  0.48610E+04
 0.36853004E+02  0.59233E+04
 0.36903004E+02  0.13160E+05
 0.36953003E+02  0.13966E+05
 0.37003002E+02  0.17345E+05
 0.37053005E+02  0.29856E+05
 0.37103004E+02  0.35807E+05
 0.37153004E+02  0.35142E+05
 0.37203003E+02  0.38599E+05
 0.37253002E+02  0.41552E+05
 0.37303005E+02  0.39310E+05
 0.37353004E+02  0.38706E+05
 0.37403004E+02  0.37092E+05
 0.37453003E+02  0.36515E+05
 0.37503002E+02  0.38198E+05
 0.37553005E+02  0.36041E+05
 0.37603004E+02  0.31443E+05
 0.37653004E+02  0.24167E+05
 0.37703003E+02  0.19924E+05
 0.37753002E+02  0.20185E+05
 0.37803005E+02  0.23287E+05
 0.37853004E+02  0.25170E+05
 0.37903004E+02  0.28329E+05
 0.37953003E+02  0.30501E+05
 0.38003002E+02  0.30022E+05
 0.38053005E+02  0.30400E+05
 0.38103004E+02  0.29073E+05
 0.38153004E+02  0.27457E+05
 0.38203003E+02  0.26520E+05
 0.38253002E+02  0.29678E+05
 0.38303005E+02  0.31384E+05
 0.38353004E+02  0.36593E+05
 0.38403004E+02  0.37691E+05
 0.38453003E+02  0.34046E+05
 0.38503002E+02  0.37766E+05
 0.38553005E+02  0.37936E+05
 0.38603004E+02  0.34228E+05
 0.38653004E+02  0.31321E+05
 0.38703003E+02  0.30065E+05
 0.38753002E+02  0.29442E+05
 0.38803005E+02  0.28683E+05
 0.38853004E+02  0.28984E+05
 0.38903004E+02  0.29822E+05
 0.38953003E+02  0.31777E+05
 0.39003002E+02  0.33943E+05
 0.39053005E+02  0.34238E+05
 0.39103004E+02  0.32543E+05
 0.39153004E+02  0.29641E+05
 0.39203003E+02  0.25893E+05
 0.39253002E+02  0.24531E+05
 0.39303005E+02  0.26819E+05
 0.39353004E+02  0.23946E+05
 0.39403004E+02  0.21688E+05
 0.39453003E+02  0.26686E+05
 0.39503002E+02  0.26066E+05
 0.39553005E+02  0.25655E+05
 0.39603004E+02  0.26878E+05
 0.39653004E+02  0.25435E+05
 0.39703003E+02  0.24792E+05
 0.39753002E+02  0.26019E+05
 0.39803005E+02  0.29681E+05
 0.39853004E+02  0.31726E+05
 0.39903004E+02  0.33088E+05
 0.39953003E+02  0.34671E+05
 0.40003002E+02  0.32388E+05
 0.40053005E+02  0.33596E+05
 0.40103004E+02  0.34333E+05
 0.40153004E+02  0.30942E+05
 0.40203003E+02  0.31180E+05
 0.40253002E+02  0.27568E+05
 0.40303005E+02  0.22553E+05
 0.40353004E+02  0.23725E+05
 0.40403004E+02  0.26238E+05
 0.40453003E+02  0.29434E+05
 0.40503002E+02  0.29728E+05
 0.40553005E+02  0.30003E+05
 0.40603004E+02  0.29963E+05
 0.40653004E+02  0.26460E+05
 0.40703003E+02  0.30829E+05
 0.40753002E+02  0.30450E+05
 0.40803005E+02  0.30703E+05
 0.40853004E+02  0.29566E+05
 0.40903004E+02  0.26173E+05
 0.40953003E+02  0.30275E+05
 0.41003002E+02  0.32104E+05
 0.41053005E+02  0.32979E+05
 0.41103004E+02  0.33994E+05
 0.41153004E+02  0.30875E+05
 0.41203003E+02  0.26774E+05
 0.41253002E+02  0.26193E+05
 0.41303005E+02  0.29192E+05
 0.41353004E+02  0.36642E+05
 0.41403004E+02  0.36738E+05
 0.41453003E+02  0.35041E+05
 0.41503002E+02  0.39533E+05
 0.41553005E+02  0.39534E+05
 0.41603004E+02  0.33629E+05
 0.41653004E+02  0.29432E+05
 0.41703003E+02  0.27929E+05
 0.41753002E+02  0.27293E+05
 0.41803005E+02  0.26107E+05
 0.41853004E+02  0.28142E+05
 0.41903004E+02  0.26250E+05
 0.41953003E+02  0.24663E+05
 0.42003002E+02  0.28591E+05
 0.42053005E+02  0.27553E+05
 0.42103004E+02  0.27013E+05
 0.42153004E+02  0.26668E+05
 0.42203003E+02  0.26255E+05
 0.42253002E+02  0.26936E+05
 0.42303005E+02  0.26020E+05
 0.42353004E+02  0.25697E+05
 0.42403004E+02  0.24328E+05
 0.42453003E+02  0.27774E+05
 0.42503002E+02  0.27721E+05
 0.42553005E+02  0.21763E+05
 0.42603004E+02  0.25447E+05
 0.42653004E+02  0.28774E+05
 0.42703003E+02  0.32124E+05
 0.42753002E+02  0.34658E+05
 0.42803001E+02  0.35619E+05
 0.42853004E+02  0.34928E+05
 0.42903004E+02  0.36546E+05
 0.42953003E+02  0.41312E+05
 0.43003002E+02  0.38517E+05
 0.43053001E+02  0.35655E+05
 0.43103004E+02  0.34853E+05
 0.43153004E+02  0.29789E+05
 0.43203003E+02  0.23400E+05
 0.43253002E+02  0.24842E+05
 0.43303001E+02  0.26953E+05
 0.43353004E+02  0.28247E+05
 0.43403004E+02  0.29028E+05
 0.43453003E+02  0.26564E+05
 0.43503002E+02  0.22411E+05
 0.43553001E+02  0.19384E+05
 0.43603004E+02  0.24632E+05
 0.43653004E+02  0.27198E+05
 0.43703003E+02  0.26611E+05
 0.43753002E+02  0.30949E+05
 0.43803001E+02  0.34637E+05
 0.43853004E+02  0.36349E+05
 0.43903004E+02  0.33889E+05
 0.43953003E+02  0.32451E+05
 0.44003002E+02  0.29896E+05
 0.44053001E+02  0.27531E+05
 0.44103004E+02  0.27412E+05
 0.44153004E+02  0.25769E+05
 0.44203003E+02  0.25403E+05
 0.44253002E+02  0.28210E+05
 0.44303001E+02  0.32678E+05
 0.44353004E+02  0.34854E+05
 0.44403004E+02  0.34748E+05
 0.44453003E+02  0.34603E+05
 0.44503002E+02  0.34684E+05
 0.44553001E+02  0.32609E+05
 0.44603004E+02  0.31563E+05
 0.44653004E+02  0.31939E+05
 0.44703003E+02  0.30630E+05
 0.44753002E+02  0.29415E+05
 0.44803001E+02  0.29267E+05
 0.44853004E+02  0.26330E+05
 0.44903004E+02  0.26104E+05
 0.44953003E+02  0.28899E+05
 0.45003002E+02  0.27984E+05
 0.45053001E+02  0.24845E+05
 0.45103004E+02  0.25169E+05
 0.45153004E+02  0.27802E+05
 0.45203003E+02  0.28867E+05
 0.45253002E+02  0.31592E+05
 0.45303001E+02  0.33310E+05
 0.45353004E+02  0.32760E+05
 0.45403004E+02  0.32156E+05
 0.45453003E+02  0.31381E+05
 0.45503002E+02  0.31227E+05
 0.45553001E+02  0.30515E+05
 0.45603004E+02  0.29214E+05
 0.45653004E+02  0.27559E+05
 0.45703003E+02  0.25267E+05
 0.45753002E+02  0.23946E+05
 0.45803001E+02  0.23972E+05
 0.45853004E+02  0.27147E+05
 0.45903004E+02  0.31744E+05
 0.45953003E+02  0.32416E+05
 0.46003002E+02  0.31970E+05
 0.46053001E+02  0.30127E+05
 0.46103004E+02  0.29498E+05
 0.46153004E+02  0.27194E+05
 0.46203003E+02  0.23449E+05
 0.46253002E+02  0.22073E+05
 0.46303001E+02  0.23430E+05
 0.46353004E+02  0.27477E+05
 0.46403004E+02  0.28968E+05
 0.46453003E+02  0.32141E+05
 0.46503002E+02  0.34264E+05
 0.46553001E+02  0.36257E+05
 0.46603004E+02  0.37935E+05
 0.46653004E+02  0.37098E+05
 0.46703003E+02  0.38220E+05
 0.46753002E+02  0.38140E+05
 0.46803001E+02  0.36448E+05
 0.46853004E+02  0.34785E+05
 0.46903004E+02  0.32868E+05
 0.46953003E+02  0.30080E+05
 0.47003002E+02  0.28996E+05
 0.47053001E+02  0.29752E+05
 0.47103004E+02  0.27719E+05
 0.47153004E+02  0.24563E+05
 0.47203003E+02  0.23848E+05
 0.47253002E+02  0.24096E+05
 0.47303001E+02  0.22298E+05
 0.47353004E+02  0.23260E+05
 0.47403004E+02  0.25068E+05
 0.47453003E+02  0.24713E+05
 0.47503002E+02  0.25831E+05
 0.47553001E+02  0.25388E+05
 0.47603004E+02  0.24615E+05
 0.47653004E+02  0.28400E+05
 0.47703003E+02  0.30310E+05
 0.47753002E+02  0.31768E+05
 0.47803001E+02  0.32974E+05
 0.47853004E+02  0.31544E+05
 0.47903004E+02  0.33546E+05
 0.47953003E+02  0.33755E+05
 0.48003002E+02  0.33123E+05
 0.48053001E+02  0.32078E+05
 0.48103004E+02  0.31847E+05
 0.48153004E+02  0.30982E+05
 0.48203003E+02  0.27648E+05
 0.48253002E+02  0.27695E+05
 0.48303001E+02  0.28488E+05
 0.48353004E+02  0.30514E+05
 0.48403004E+02  0.31451E+05
 0.48453003E+02  0.31148E+05
 0.48503002E+02  0.32503E+05
 0.48553001E+02  0.32441E+05
 0.48603004E+02  0.31861E+05
 0.48653004E+02  0.29632E+05
 0.48703003E+02  0.27899E+05
 0.48753002E+02  0.28246E+05
 0.48803001E+02  0.27458E+05
 0.48853004E+02  0.28536E+05
 0.48903004E+02  0.29659E+05
 0.48953003E+02  0.29431E+05
 0.49003002E+02  0.29469E+05
 0.49053001E+02  0.28399E+05
 0.49103004E+02  0.29691E+05
 0.49153004E+02  0.30794E+05
 0.49203003E+02  0.30544E+05
 0.49253002E+02  0.29655E+05
 0.49303001E+02  0.28942E+05
 0.49353004E+02  0.28048E+05
 0.49403004E+02  0.25108E+05
 0.49453003E+02  0.26009E+05
 0.49503002E+02  0.27288E+05
 0.49553001E+02  0.27069E+05
 0.49603004E+02  0.28430E+05
 0.49653004E+02  0.30525E+05
 0.49703003E+02  0.31378E+05
 0.49753002E+02  0.32261E+05
 0.49803001E+02  0.32644E+05
 0.49853004E+02  0.33289E+05
 0.49903004E+02  0.35342E+05
 0.49953003E+02  0.34271E+05
 0.50003002E+02  0.32734E+05
 0.50053001E+02  0.32870E+05
 0.50103004E+02  0.33042E+05
 0.50153004E+02  0.33397E+05
 0.50203003E+02  0.34486E+05
 0.50253002E+02  0.33184E+05
 0.50303001E+02  0.30904E+05
 0.50353004E+02  0.28565E+05
 0.50403004E+02  0.27343E+05
 0.50453003E+02  0.27185E+05
 0.50503002E+02  0.26132E+05
 0.50553001E+02  0.26036E+05
 0.50603004E+02  0.27057E+05
 0.50653004E+02  0.27285E+05
 0.50703003E+02  0.26217E+05
 0.50753002E+02  0.26163E+05
 0.50803001E+02  0.27732E+05
 0.50853004E+02  0.29050E+05
 0.50903004E+02  0.30278E+05
 0.50953003E+02  0.31577E+05
 0.51003002E+02  0.30491E+05
 0.51053001E+02  0.29958E+05
 0.51103004E+02  0.30835E+05
 0.51153004E+02  0.29396E+05
 0.51203003E+02  0.27505E+05
 0.51253002E+02  0.27142E+05
 0.51303001E+02  0.27214E+05
 0.51353004E+02  0.27883E+05
 0.51403004E+02  0.27499E+05
 0.51453003E+02  0.26850E+05
 0.51503002E+02  0.26185E+05
 0.51553001E+02  0.26210E+05
 0.51603004E+02  0.27376E+05
 0.51653004E+02  0.28726E+05
 0.51703003E+02  0.29608E+05
 0.51753002E+02  0.31564E+05
 0.51803001E+02  0.33097E+05
 0.51853004E+02  0.31731E+05
 0.51903004E+02  0.31514E+05
 0.51953003E+02  0.32607E+05
 0.52003002E+02  0.32577E+05
 0.52053001E+02  0.31330E+05
 0.52103004E+02  0.32114E+05
 0.52153004E+02  0.33317E+05
 0.52203003E+02  0.32642E+05
 0.52253002E+02  0.32513E+05
 0.52303001E+02  0.32537E+05
 0.52353004E+02  0.30062E+05
 0.52403004E+02  0.28818E+05
 0.52453003E+02  0.30616E+05
 0.52503002E+02  0.30659E+05
 0.52553001E+02  0.30716E+05
 0.52603004E+02  0.30339E+05
 0.52653004E+02  0.28769E+05
 0.52703003E+02  0.27909E+05
 0.52753002E+02  0.27000E+05
 0.52803001E+02  0.25249E+05
 0.52853004E+02  0.24559E+05
 0.52903004E+02  0.25304E+05
 0.52953003E+02  0.25160E+05
 0.53003002E+02  0.25561E+05
 0.53053001E+02  0.27117E+05
 0.53103004E+02  0.28524E+05
 0.53153004E+02  0.29538E+05
 0.53203003E+02  0.30294E+05
 0.53253002E+02  0.29882E+05
 0.53303001E+02  0.29361E+05
 0.53353004E+02  0.30059E+05
 0.53403004E+02  0.30894E+05
 0.53453003E+02  0.31170E+05
 0.53503002E+02  0.32126E+05
 0.53553001E+02  0.33774E+05
 0.53603004E+02  0.32858E+05
 0.53653004E+02  0.31777E+05
 0.53703003E+02  0.32103E+05
 0.53753002E+02  0.32055E+05
 0.53803001E+02  0.32294E+05
 0.53853004E+02  0.32813E+05
 0.53903004E+02  0.33646E+05
 0.53953003E+02  0.32841E+05
 0.54003002E+02  0.31802E+05
 0.54053001E+02  0.30848E+05
 0.54103004E+02  0.29690E+05
 0.54153004E+02  0.29625E+05
 0.54203003E+02  0.28648E+05
 0.54253002E+02  0.27729E+05
 0.54303001E+02  0.26304E+05
 0.54353004E+02  0.26114E+05
 0.54403004E+02  0.26087E+05
 0.54453003E+02  0.25880E+05
 0.54503002E+02  0.25896E+05
 0.54553001E+02  0.25201E+05
 0.54603004E+02  0.27420E+05
 0.54653004E+02  0.29842E+05
 0.54703003E+02  0.31842E+05
 0.54753002E+02  0.32363E+05
 0.54803001E+02  0.33059E+05
 0.54853004E+02  0.32177E+05
 0.54903004E+02  0.29216E+05
 0.54953003E+02  0.26904E+05
 0.55003002E+02  0.25494E+05
 0.55053001E+02  0.26552E+05
 0.55103004E+02  0.28332E+05
 0.55153004E+02  0.29256E+05
 0.55203003E+02  0.29214E+05
 0.55253002E+02  0.30973E+05
 0.55303001E+02  0.32152E+05
 0.55353004E+02  0.31842E+05
 0.55403004E+02  0.31514E+05
 0.55453003E+02  0.32610E+05
 0.55503002E+02  0.32927E+05
 0.55553001E+02  0.31629E+05
 0.55603004E+02  0.30990E+05
 0.55653004E+02  0.29834E+05
 0.55703003E+02  0.29148E+05
 0.55753002E+02  0.28136E+05
 0.55803001E+02  0.27668E+05
 0.55853001E+02  0.27288E+05
 0.55903004E+02  0.27217E+05
 0.55953003E+02  0.27921E+05
 0.56003002E+02  0.27737E+05
 0.56053001E+02  0.26968E+05
 0.56103001E+02  0.26888E+05
 0.56153004E+02  0.26976E+05
 0.56203003E+02  0.27391E+05
 0.56253002E+02  0.28944E+05
 0.56303001E+02  0.29377E+05
 0.56353001E+02  0.29397E+05
 0.56403004E+02  0.28870E+05
 0.56453003E+02  0.27634E+05
 0.56503002E+02  0.28430E+05
 0.56553001E+02  0.30248E+05
 0.56603001E+02  0.31005E+05
 0.56653004E+02  0.31466E+05
 0.56703003E+02  0.32214E+05
 0.56753002E+02  0.33569E+05
 0.56803001E+02  0.34139E+05
 0.56853001E+02  0.35127E+05
 0.56903004E+02  0.36544E+05
 0.56953003E+02  0.36312E+05
 0.57003002E+02  0.36191E+05
 0.57053001E+02  0.34790E+05
 0.57103001E+02  0.33371E+05
 0.57153004E+02  0.33319E+05
 0.57203003E+02  0.32719E+05
 0.57253002E+02  0.30843E+05
 0.57303001E+02  0.29133E+05
 0.57353001E+02  0.27906E+05
 0.57403004E+02  0.25476E+05
 0.57453003E+02  0.23974E+05
 0.57503002E+02  0.24185E+05
 0.57553001E+02  0.25560E+05
 0.57603001E+02  0.26598E+05
 0.57653004E+02  0.27426E+05
 0.57703003E+02  0.26754E+05
 0.57753002E+02  0.25893E+05
 0.57803001E+02  0.25986E+05
 0.57853001E+02  0.26169E+05
 0.57903004E+02  0.26731E+05
 0.57953003E+02  0.26797E+05
 0.58003002E+02  0.28063E+05
 0.58053001E+02  0.29426E+05
 0.58103001E+02  0.29881E+05
 0.58153004E+02  0.28764E+05
 0.58203003E+02  0.28226E+05
 0.58253002E+02  0.28362E+05
 0.58303001E+02  0.27981E+05
 0.58353001E+02  0.29228E+05
 0.58403004E+02  0.31204E+05
 0.58453003E+02  0.32168E+05
 0.58503002E+02  0.32593E+05
 0.58553001E+02  0.31843E+05
 0.58603001E+02  0.31038E+05
 0.58653004E+02  0.31081E+05
 0.58703003E+02  0.31010E+05
 0.58753002E+02  0.32668E+05
 0.58803001E+02  0.33740E+05
 0.58853001E+02  0.34682E+05
 0.58903004E+02  0.35590E+05
 0.58953003E+02  0.35235E+05
 0.59003002E+02  0.33911E+05
 0.59053001E+02  0.32286E+05
 0.59103001E+02  0.30887E+05
 0.59153004E+02  0.29595E+05
 0.59203003E+02  0.28328E+05
 0.59253002E+02  0.26654E+05
 0.59303001E+02  0.26834E+05
 0.59353001E+02  0.26471E+05
 0.59403004E+02  0.25403E+05
 0.59453003E+02  0.25190E+05
 0.59503002E+02  0.25906E+05
 0.59553001E+02  0.26647E+05
 0.59603001E+02  0.26692E+05
 0.59653004E+02  0.26849E+05
 0.59703003E+02  0.27089E+05
 0.59753002E+02  0.28198E+05
 0.59803001E+02  0.28754E+05
 0.59853001E+02  0.28985E+05
 0.59903004E+02  0.28443E+05
 0.59953003E+02  0.27986E+05
 0.60003002E+02  0.27913E+05
 0.60053001E+02  0.27299E+05
 0.60103001E+02  0.27646E+05
 0.60153004E+02  0.27718E+05
 0.60203003E+02  0.28502E+05
 0.60253002E+02  0.29568E+05
 0.60303001E+02  0.30617E+05
 0.60353001E+02  0.31138E+05
 0.60403004E+02  0.32440E+05
 0.60453003E+02  0.35034E+05
 0.60503002E+02  0.35336E+05
 0.60553001E+02  0.35903E+05
 0.60603001E+02  0.35813E+05
 0.60653004E+02  0.34461E+05
 0.60703003E+02  0.33579E+05
 0.60753002E+02  0.32304E+05
 0.60803001E+02  0.30315E+05
 0.60853001E+02  0.28516E+05
 0.60903004E+02  0.27986E+05
 0.60953003E+02  0.27149E+05
 0.61003002E+02  0.26990E+05
 0.61053001E+02  0.27724E+05
 0.61103001E+02  0.28147E+05
 0.61153004E+02  0.27979E+05
 0.61203003E+02  0.28337E+05
 0.61253002E+02  0.29667E+05
 0.61303001E+02  0.30123E+05
 0.61353001E+02  0.30484E+05
 0.61403004E+02  0.31594E+05
 0.61453003E+02  0.32135E+05
 0.61503002E+02  0.31985E+05
 0.61553001E+02  0.31307E+05
 0.61603001E+02  0.29404E+05
 0.61653004E+02  0.27809E+05
 0.61703003E+02  0.27519E+05
 0.61753002E+02  0.27706E+05
 0.61803001E+02  0.27933E+05
 0.61853001E+02  0.27952E+05
 0.61903004E+02  0.27778E+05
 0.61953003E+02  0.28819E+05
 0.62003002E+02  0.29539E+05
 0.62053001E+02  0.30024E+05
 0.62103004E+02  0.31278E+05
 0.62153000E+02  0.30756E+05
 0.62203003E+02  0.29646E+05
 0.62252998E+02  0.29870E+05
 0.62303001E+02  0.31093E+05
 0.62353004E+02  0.31159E+05
 0.62403000E+02  0.31089E+05
 0.62453003E+02  0.30728E+05
 0.62502998E+02  0.28972E+05
 0.62553001E+02  0.27653E+05
 0.62603004E+02  0.26865E+05
 0.62653000E+02  0.27698E+05
 0.62703003E+02  0.28740E+05
 0.62752998E+02  0.29429E+05
 0.62803001E+02  0.30094E+05
 0.62853004E+02  0.30250E+05
 0.62903000E+02  0.30341E+05
 0.62953003E+02  0.29768E+05
 0.63002998E+02  0.30108E+05
 0.63053001E+02  0.30298E+05
 0.63103004E+02  0.28905E+05
 0.63153000E+02  0.28409E+05
 0.63203003E+02  0.28485E+05
 0.63252998E+02  0.28760E+05
 0.63303001E+02  0.29159E+05
 0.63353004E+02  0.29262E+05
 0.63403000E+02  0.29557E+05
 0.63453003E+02  0.29004E+05
 0.63502998E+02  0.29232E+05
 0.63553001E+02  0.30170E+05
 0.63603004E+02  0.29786E+05
 0.63653000E+02  0.29173E+05
 0.63703003E+02  0.29098E+05
 0.63752998E+02  0.29412E+05
 0.63803001E+02  0.29901E+05
 0.63853004E+02  0.30277E+05
 0.63903000E+02  0.30576E+05
 0.63953003E+02  0.30938E+05
 0.64002998E+02  0.31245E+05
 0.64053001E+02  0.31266E+05
 0.64103004E+02  0.31458E+05
 0.64153000E+02  0.31494E+05
 0.64203003E+02  0.31100E+05
 0.64252998E+02  0.30678E+05
 0.64303001E+02  0.30244E+05
 0.64353004E+02  0.30188E+05
 0.64403000E+02  0.29561E+05
 0.64453003E+02  0.28786E+05
 0.64502998E+02  0.28014E+05
 0.64553001E+02  0.27139E+05
 0.64603004E+02  0.27183E+05
 0.64653000E+02  0.27659E+05
 0.64703003E+02  0.28496E+05
 0.64752998E+02  0.28957E+05
 0.64803001E+02  0.29347E+05
 0.64853004E+02  0.30163E+05
 0.64903000E+02  0.31390E+05
 0.64953003E+02  0.32694E+05
 0.65002998E+02  0.33139E+05
 0.65053001E+02  0.32987E+05
 0.65103004E+02  0.32817E+05
 0.65153000E+02  0.32350E+05
 0.65203003E+02  0.31026E+05
 0.65252998E+02  0.30660E+05
 0.65303001E+02  0.30755E+05
 0.65353004E+02  0.30338E+05
 0.65403000E+02  0.29361E+05
 0.65453003E+02  0.27561E+05
 0.65502998E+02  0.26141E+05
 0.65553001E+02  0.25268E+05
 0.65603004E+02  0.24725E+05
 0.65653000E+02  0.24741E+05
 0.65703003E+02  0.25642E+05
 0.65752998E+02  0.26457E+05
 0.65803001E+02  0.27230E+05
 0.65853004E+02  0.28540E+05
 0.65903000E+02  0.28900E+05
 0.65953003E+02  0.28589E+05
 0.66002998E+02  0.29108E+05
 0.66053001E+02  0.30331E+05
 0.66103004E+02  0.31922E+05
 0.66153000E+02  0.32773E+05
 0.66203003E+02  0.32523E+05
 0.66252998E+02  0.32406E+05
 0.66303001E+02  0.32710E+05
 0.66353004E+02  0.32599E+05
 0.66403000E+02  0.32266E+05
 0.66453003E+02  0.31814E+05
 0.66502998E+02  0.31175E+05
 0.66553001E+02  0.30391E+05
 0.66603004E+02  0.30041E+05
 0.66653000E+02  0.29745E+05
 0.66703003E+02  0.29210E+05
 0.66752998E+02  0.29361E+05
 0.66803001E+02  0.28696E+05
 0.66853004E+02  0.27854E+05
 0.66903000E+02  0.27224E+05
 0.66953003E+02  0.27058E+05
 0.67002998E+02  0.27792E+05
 0.67053001E+02  0.28056E+05
 0.67103004E+02  0.28655E+05
 0.67153000E+02  0.29390E+05
 0.67203003E+02  0.29540E+05
 0.67252998E+02  0.29162E+05
 0.67303001E+02  0.28758E+05
 0.67353004E+02  0.28341E+05
 0.67403000E+02  0.28597E+05
 0.67453003E+02  0.29721E+05
 0.67502998E+02  0.30214E+05
 0.67553001E+02  0.30888E+05
 0.67603004E+02  0.31907E+05
 0.67653000E+02  0.32743E+05
 0.67703003E+02  0.32753E+05
 0.67752998E+02  0.32440E+05
 0.67803001E+02  0.32030E+05
 0.67853004E+02  0.31022E+05
 0.67903000E+02  0.30206E+05
 0.67953003E+02  0.30213E+05
 0.68002998E+02  0.30231E+05
 0.68053001E+02  0.30353E+05
 0.68103004E+02  0.30028E+05
 0.68153000E+02  0.28833E+05
 0.68203003E+02  0.27367E+05
 0.68252998E+02  0.26422E+05
 0.68303001E+02  0.27602E+05
 0.68353004E+02  0.28923E+05
 0.68403000E+02  0.29693E+05
 0.68453003E+02  0.30234E+05
 0.68502998E+02  0.30205E+05
 0.68553001E+02  0.30014E+05
 0.68603004E+02  0.30151E+05
 0.68653000E+02  0.30338E+05
 0.68703003E+02  0.30561E+05
 0.68752998E+02  0.31285E+05
 0.68803001E+02  0.31075E+05
 0.68853004E+02  0.30232E+05
 0.68903000E+02  0.29559E+05
 0.68953003E+02  0.28807E+05
 0.69002998E+02  0.28108E+05
 0.69053001E+02  0.27822E+05
 0.69103004E+02  0.27646E+05
 0.69153000E+02  0.27477E+05
 0.69203003E+02  0.28025E+05
 0.69252998E+02  0.28241E+05
 0.69303001E+02  0.28425E+05
 0.69353004E+02  0.28644E+05
 0.69403000E+02  0.28997E+05
 0.69453003E+02  0.30005E+05
 0.69502998E+02  0.30282E+05
 0.69553001E+02  0.30395E+05
 0.69603004E+02  0.30542E+05
 0.69653000E+02  0.30770E+05
 0.69703003E+02  0.31061E+05
 0.69752998E+02  0.30532E+05
 0.69803001E+02  0.29550E+05
 0.69853004E+02  0.28614E+05
 0.69903000E+02  0.28722E+05
 0.69953003E+02  0.28507E+05
 0.70002998E+02  0.28197E+05
 0.70053001E+02  0.28486E+05
 0.70103004E+02  0.28879E+05
 0.70153000E+02  0.29299E+05
 0.70203003E+02  0.29703E+05
 0.70252998E+02  0.30455E+05
 0.70303001E+02  0.30312E+05
 0.70353004E+02  0.30700E+05
 0.70403000E+02  0.31494E+05
 0.70453003E+02  0.31399E+05
 0.70502998E+02  0.31560E+05
 0.70553001E+02  0.31811E+05
 0.70603004E+02  0.31774E+05
 0.70653000E+02  0.31944E+05
 0.70703003E+02  0.32075E+05
 0.70752998E+02  0.31591E+05
 0.70803001E+02  0.30916E+05
 0.70853004E+02  0.30723E+05
 0.70903000E+02  0.30192E+05
 0.70953003E+02  0.29083E+05
 0.71002998E+02  0.28301E+05
 0.71053001E+02  0.28054E+05
 0.71103004E+02  0.28158E+05
 0.71153000E+02  0.28566E+05
 0.71203003E+02  0.29103E+05
 0.71252998E+02  0.29558E+05
 0.71303001E+02  0.29485E+05
 0.71353004E+02  0.29371E+05
 0.71403000E+02  0.29345E+05
 0.71453003E+02  0.29193E+05
 0.71502998E+02  0.29229E+05
 0.71553001E+02  0.29250E+05
 0.71603004E+02  0.29127E+05
 0.71653000E+02  0.29049E+05
 0.71703003E+02  0.29033E+05
 0.71752998E+02  0.29005E+05
 0.71803001E+02  0.29566E+05
 0.71853004E+02  0.29678E+05
 0.71903000E+02  0.29031E+05
 0.71953003E+02  0.28601E+05
 0.72002998E+02  0.28136E+05
 0.72053001E+02  0.27863E+05
 0.72103004E+02  0.28531E+05
 0.72153000E+02  0.29336E+05
 0.72203003E+02  0.29448E+05
 0.72252998E+02  0.29295E+05
 0.72303001E+02  0.29686E+05
 0.72353004E+02  0.30170E+05
 0.72403000E+02  0.30099E+05
 0.72453003E+02  0.30205E+05
 0.72502998E+02  0.30346E+05
 0.72553001E+02  0.30334E+05
 0.72603004E+02  0.30336E+05
 0.72653000E+02  0.30728E+05
 0.72703003E+02  0.30958E+05
 0.72752998E+02  0.31050E+05
 0.72803001E+02  0.30995E+05
 0.72853004E+02  0.30941E+05
 0.72903000E+02  0.31000E+05
 0.72953003E+02  0.30902E+05
 0.73002998E+02  0.31222E+05
 0.73053001E+02  0.30424E+05
 0.73103004E+02  0.29371E+05
 0.73153000E+02  0.28807E+05
 0.73203003E+02  0.28255E+05
 0.73252998E+02  0.27809E+05
 0.73303001E+02  0.27551E+05
 0.73353004E+02  0.27638E+05
 0.73403000E+02  0.27368E+05
 0.73453003E+02  0.27405E+05
 0.73502998E+02  0.27359E+05
 0.73553001E+02  0.26989E+05
 0.73603004E+02  0.27335E+05
 0.73653000E+02  0.28148E+05
 0.73703003E+02  0.28924E+05
 0.73752998E+02  0.29867E+05
 0.73803001E+02  0.30386E+05
 0.73853004E+02  0.30495E+05
 0.73903000E+02  0.30635E+05
 0.73953003E+02  0.30391E+05
 0.74002998E+02  0.30223E+05
 0.74053001E+02  0.30834E+05
 0.74103004E+02  0.31246E+05
 0.74153000E+02  0.31070E+05
 0.74203003E+02  0.30840E+05
 0.74252998E+02  0.30594E+05
 0.74303001E+02  0.30810E+05
 0.74353004E+02  0.31410E+05
 0.74403000E+02  0.32318E+05
 0.74453003E+02  0.32849E+05
 0.74502998E+02  0.32856E+05
 0.74553001E+02  0.32707E+05
 0.74603004E+02  0.32105E+05
 0.74653000E+02  0.31295E+05
 0.74703003E+02  0.31281E+05
 0.74752998E+02  0.31580E+05
 0.74803001E+02  0.31427E+05
 0.74853004E+02  0.30552E+05
 0.74903000E+02  0.29322E+05
 0.74953003E+02  0.28395E+05
 0.75002998E+02  0.27487E+05
 0.75053001E+02  0.26884E+05
 0.75103004E+02  0.26304E+05
 0.75153000E+02  0.26070E+05
 0.75203003E+02  0.25930E+05
 0.75252998E+02  0.26157E+05
 0.75303001E+02  0.27172E+05
 0.75353004E+02  0.27787E+05
 0.75403000E+02  0.28132E+05
 0.75453003E+02  0.28518E+05
 0.75502998E+02  0.28838E+05
 0.75553001E+02  0.29050E+05
 0.75603004E+02  0.29304E+05
 0.75653000E+02  0.29812E+05
 0.75703003E+02  0.30442E+05
 0.75752998E+02  0.31180E+05
 0.75803001E+02  0.31301E+05
 0.75853004E+02  0.31151E+05
 0.75903000E+02  0.31387E+05
 0.75953003E+02  0.31482E+05
 0.76002998E+02  0.31232E+05
 0.76053001E+02  0.30999E+05
 0.76103004E+02  0.30652E+05
 0.76153000E+02  0.30462E+05
 0.76203003E+02  0.30553E+05
 0.76252998E+02  0.30508E+05
 0.76303001E+02  0.30616E+05
 0.76353004E+02  0.30369E+05
 0.76403000E+02  0.30082E+05
 0.76453003E+02  0.29847E+05
 0.76502998E+02  0.29444E+05
 0.76553001E+02  0.28679E+05
 0.76603004E+02  0.28122E+05
 0.76653000E+02  0.28102E+05
 0.76703003E+02  0.28175E+05
 0.76752998E+02  0.28409E+05
 0.76803001E+02  0.28322E+05
 0.76853004E+02  0.28071E+05
 0.76903000E+02  0.28079E+05
 0.76953003E+02  0.28359E+05
 0.77002998E+02  0.28542E+05
 0.77053001E+02  0.28958E+05
 0.77103004E+02  0.29143E+05
 0.77153000E+02  0.29098E+05
 0.77203003E+02  0.29306E+05
 0.77252998E+02  0.29877E+05
 0.77303001E+02  0.30413E+05
 0.77353004E+02  0.30941E+05
 0.77403000E+02  0.31394E+05
 0.77453003E+02  0.31555E+05
 0.77502998E+02  0.31669E+05
 0.77553001E+02  0.31475E+05
 0.77603004E+02  0.31587E+05
 0.77653000E+02  0.31544E+05
 0.77703003E+02  0.31285E+05
 0.77752998E+02  0.30981E+05
 0.77803001E+02  0.30279E+05
 0.77853004E+02  0.29530E+05
 0.77903000E+02  0.28641E+05
 0.77953003E+02  0.27926E+05
 0.78002998E+02  0.27532E+05
 0.78053001E+02  0.27152E+05
 0.78103004E+02  0.27169E+05
 0.78153000E+02  0.27550E+05
 0.78203003E+02  0.28400E+05
 0.78252998E+02  0.29508E+05
 0.78303001E+02  0.30260E+05
 0.78353004E+02  0.30448E+05
 0.78403000E+02  0.30758E+05
 0.78453003E+02  0.30954E+05
 0.78502998E+02  0.30659E+05
 0.78553001E+02  0.30506E+05
 0.78603004E+02  0.30387E+05
 0.78653000E+02  0.30142E+05
 0.78703003E+02  0.30056E+05
 0.78752998E+02  0.30247E+05
 0.78803001E+02  0.30113E+05
 0.78853004E+02  0.30089E+05
 0.78903000E+02  0.30244E+05
 0.78953003E+02  0.30221E+05
 0.79002998E+02  0.30079E+05
 0.79053001E+02  0.29795E+05
 0.79103004E+02  0.29451E+05
 0.79153000E+02  0.29104E+05
 0.79203003E+02  0.28657E+05
 0.79252998E+02  0.28479E+05
 0.79303001E+02  0.28524E+05
 0.79353004E+02  0.28689E+05
 0.79403000E+02  0.29068E+05
 0.79453003E+02  0.29442E+05
 0.79502998E+02  0.29595E+05
 0.79553001E+02  0.29650E+05
 0.79603004E+02  0.29822E+05
 0.79653000E+02  0.29679E+05
 0.79703003E+02  0.29606E+05
 0.79752998E+02  0.29739E+05
 0.79803001E+02  0.30043E+05
 0.79853004E+02  0.30360E+05
 0.79903000E+02  0.30504E+05
 0.79953003E+02  0.30378E+05
 0.80002998E+02  0.30175E+05
 0.80053001E+02  0.29808E+05
 0.80103004E+02  0.29416E+05
 0.80153000E+02  0.29128E+05
 0.80203003E+02  0.28994E+05
 0.80252998E+02  0.29126E+05
 0.80303001E+02  0.29428E+05
 0.80353004E+02  0.29863E+05
 0.80403000E+02  0.30118E+05
 0.80453003E+02  0.30227E+05
 0.80502998E+02  0.30012E+05
 0.80553001E+02  0.29824E+05
 0.80603004E+02  0.29267E+05
 0.80653000E+02  0.28557E+05
 0.80703003E+02  0.28525E+05
 0.80752998E+02  0.28438E+05
 0.80803001E+02  0.28393E+05
 0.80853004E+02  0.28668E+05
 0.80903000E+02  0.28828E+05
 0.80953003E+02  0.29126E+05
 0.81002998E+02  0.29750E+05
 0.81053001E+02  0.30221E+05
 0.81103004E+02  0.30375E+05
 0.81153000E+02  0.30591E+05
 0.81203003E+02  0.30604E+05
 0.81252998E+02  0.30448E+05
 0.81303001E+02  0.30541E+05
 0.81353004E+02  0.30539E+05
 0.81403000E+02  0.30104E+05
 0.81453003E+02  0.29643E+05
 0.81502998E+02  0.29302E+05
 0.81553001E+02  0.29221E+05
 0.81603004E+02  0.29334E+05
 0.81653000E+02  0.29445E+05
 0.81703003E+02  0.29878E+05
 0.81752998E+02  0.30161E+05
 0.81803001E+02  0.30388E+05
 0.81853004E+02  0.30728E+05
 0.81903000E+02  0.30766E+05
 0.81953003E+02  0.30858E+05
 0.82002998E+02  0.31112E+05
 0.82053001E+02  0.31221E+05
 0.82103004E+02  0.31150E+05
 0.82153000E+02  0.30733E+05
 0.82203003E+02  0.30143E+05
 0.82252998E+02  0.29848E+05
 0.82303001E+02  0.29660E+05
 0.82353004E+02  0.29339E+05
 0.82403000E+02  0.29241E+05
 0.82453003E+02  0.29289E+05
 0.82502998E+02  0.29289E+05
 0.82553001E+02  0.28949E+05
 0.82603004E+02  0.28465E+05
 0.82653000E+02  0.28317E+05
 0.82703003E+02  0.28385E+05
 0.82752998E+02  0.28371E+05
 0.82803001E+02  0.28261E+05
 0.82853004E+02  0.28396E+05
 0.82903000E+02  0.28508E+05
 0.82953003E+02  0.28542E+05
 0.83002998E+02  0.28736E+05
 0.83053001E+02  0.29050E+05
 0.83103004E+02  0.29308E+05
 0.83153000E+02  0.29797E+05
 0.83203003E+02  0.29977E+05
 0.83252998E+02  0.29753E+05
 0.83303001E+02  0.29812E+05
 0.83353004E+02  0.30068E+05
 0.83403000E+02  0.30247E+05
 0.83453003E+02  0.30136E+05
 0.83502998E+02  0.29837E+05
 0.83553001E+02  0.29478E+05
 0.83603004E+02  0.29622E+05
 0.83653000E+02  0.29729E+05
 0.83703003E+02  0.29556E+05
 0.83752998E+02  0.29746E+05
 0.83803001E+02  0.30057E+05
 0.83853004E+02  0.30200E+05
 0.83903000E+02  0.30279E+05
 0.83953003E+02  0.30371E+05
 0.84002998E+02  0.30445E+05
 0.84053001E+02  0.30527E+05
 0.84103004E+02  0.30782E+05
 0.84153000E+02  0.30911E+05
 0.84203003E+02  0.30851E+05
 0.84252998E+02  0.30864E+05
 0.84303001E+02  0.30702E+05
 0.84353004E+02  0.30731E+05
 0.84403000E+02  0.30749E+05
 0.84453003E+02  0.30421E+05
 0.84502998E+02  0.30131E+05
 0.84553001E+02  0.29700E+05
 0.84603004E+02  0.29260E+05
 0.84653000E+02  0.28948E+05
 0.84703003E+02  0.28773E+05
 0.84752998E+02  0.28716E+05
 0.84803001E+02  0.28552E+05
 0.84853004E+02  0.28570E+05
 0.84903000E+02  0.28487E+05
 0.84953003E+02  0.28440E+05
 0.85002998E+02  0.28557E+05
 0.85053001E+02  0.28497E+05
 0.85103004E+02  0.28529E+05
 0.85153000E+02  0.28504E+05
 0.85203003E+02  0.28410E+05
 0.85252998E+02  0.28405E+05
 0.85303001E+02  0.28504E+05
 0.85353004E+02  0.28704E+05
 0.85403000E+02  0.29116E+05
 0.85453003E+02  0.29914E+05
 0.85502998E+02  0.30631E+05
 0.85553001E+02  0.31115E+05
 0.85603004E+02  0.31391E+05
 0.85653000E+02  0.31316E+05
 0.85703003E+02  0.31234E+05
 0.85752998E+02  0.31194E+05
 0.85803001E+02  0.31055E+05
 0.85853004E+02  0.30846E+05
 0.85903000E+02  0.30583E+05
 0.85953003E+02  0.30187E+05
 0.86002998E+02  0.29693E+05
 0.86053001E+02  0.29214E+05
 0.86103004E+02  0.28848E+05
 0.86153000E+02  0.28699E+05
 0.86203003E+02  0.28648E+05
 0.86252998E+02  0.28581E+05
 0.86303001E+02  0.28706E+05
 0.86353004E+02  0.29203E+05
 0.86403000E+02  0.29732E+05
 0.86453003E+02  0.30177E+05
 0.86502998E+02  0.30142E+05
 0.86553001E+02  0.29870E+05
 0.86603004E+02  0.29813E+05
 0.86653000E+02  0.29982E+05
 0.86703003E+02  0.30482E+05
 0.86752998E+02  0.30797E+05
 0.86803001E+02  0.30924E+05
 0.86853004E+02  0.30880E+05
 0.86903000E+02  0.30573E+05
 0.86953003E+02  0.29963E+05
 0.87002998E+02  0.29462E+05
 0.87053001E+02  0.29508E+05
 0.87103004E+02  0.29456E+05
 0.87153000E+02  0.29425E+05
 0.87203003E+02  0.29365E+05
 0.87252998E+02  0.29212E+05
 0.87303001E+02  0.29220E+05
 0.87353004E+02  0.29156E+05
 0.87403000E+02  0.28975E+05
 0.87453003E+02  0.28772E+05
 0.87502998E+02  0.28768E+05
 0.87553001E+02  0.29168E+05
 0.87602997E+02  0.29574E+05
 0.87653000E+02  0.29996E+05
 0.87703003E+02  0.30512E+05
 0.87752998E+02  0.30487E+05
 0.87803001E+02  0.30392E+05
 0.87852997E+02  0.30409E+05
 0.87903000E+02  0.30212E+05
 0.87953003E+02  0.29872E+05
 0.88002998E+02  0.29555E+05
 0.88053001E+02  0.29366E+05
 0.88102997E+02  0.29031E+05
 0.88153000E+02  0.28505E+05
 0.88203003E+02  0.28179E+05
 0.88252998E+02  0.27992E+05
 0.88303001E+02  0.28100E+05
 0.88352997E+02  0.28484E+05
 0.88403000E+02  0.28751E+05
 0.88453003E+02  0.28961E+05
 0.88502998E+02  0.29205E+05
 0.88553001E+02  0.29268E+05
 0.88602997E+02  0.29284E+05
 0.88653000E+02  0.29503E+05
 0.88703003E+02  0.29593E+05
 0.88752998E+02  0.29442E+05
 0.88803001E+02  0.29378E+05
 0.88852997E+02  0.29290E+05
 0.88903000E+02  0.29257E+05
 0.88953003E+02  0.29513E+05
 0.89002998E+02  0.29820E+05
 0.89053001E+02  0.30090E+05
 0.89102997E+02  0.30172E+05
 0.89153000E+02  0.30481E+05
 0.89203003E+02  0.30732E+05
 0.89252998E+02  0.30711E+05
 0.89303001E+02  0.30912E+05
 0.89352997E+02  0.31228E+05
 0.89403000E+02  0.31401E+05
 0.89453003E+02  0.31302E+05
 0.89502998E+02  0.31158E+05
 0.89553001E+02  0.31142E+05
 0.89602997E+02  0.31081E+05
 0.89653000E+02  0.30772E+05
 0.89703003E+02  0.30550E+05
 0.89752998E+02  0.30257E+05
 0.89803001E+02  0.29865E+05
 0.89852997E+02  0.29641E+05
 0.89903000E+02  0.29376E+05
 0.89953003E+02  0.29163E+05
 0.90002998E+02  0.28995E+05
 0.90053001E+02  0.28944E+05
 0.90102997E+02  0.28928E+05
 0.90153000E+02  0.28976E+05
 0.90203003E+02  0.29151E+05
 0.90252998E+02  0.29208E+05
 0.90303001E+02  0.29243E+05
 0.90352997E+02  0.29306E+05
 0.90403000E+02  0.29355E+05
 0.90453003E+02  0.29373E+05
 0.90502998E+02  0.29262E+05
 0.90553001E+02  0.28733E+05
 0.90602997E+02  0.28156E+05
 0.90653000E+02  0.28232E+05
 0.90703003E+02  0.28610E+05
 0.90752998E+02  0.28792E+05
 0.90803001E+02  0.28967E+05
 0.90852997E+02  0.29252E+05
 0.90903000E+02  0.29394E+05
 0.90953003E+02  0.29274E+05
 0.91002998E+02  0.29304E+05
 0.91053001E+02  0.29590E+05
 0.91102997E+02  0.29938E+05
 0.91153000E+02  0.30494E+05
 0.91203003E+02  0.30820E+05
 0.91252998E+02  0.30927E+05
 0.91303001E+02  0.31317E+05
 0.91352997E+02  0.31537E+05
 0.91403000E+02  0.31362E+05
 0.91453003E+02  0.31052E+05
 0.91502998E+02  0.30849E+05
 0.91553001E+02  0.30808E+05
 0.91602997E+02  0.30652E+05
 0.91653000E+02  0.30400E+05
 0.91703003E+02  0.30248E+05
 0.91752998E+02  0.30312E+05
 0.91803001E+02  0.30152E+05
 0.91852997E+02  0.29723E+05
 0.91903000E+02  0.29354E+05
 0.91953003E+02  0.29060E+05
 0.92002998E+02  0.28845E+05
 0.92053001E+02  0.28614E+05
 0.92102997E+02  0.28290E+05
 0.92153000E+02  0.28057E+05
 0.92203003E+02  0.28120E+05
 0.92252998E+02  0.27955E+05
 0.92303001E+02  0.27588E+05
 0.92352997E+02  0.27366E+05
 0.92403000E+02  0.27315E+05
 0.92453003E+02  0.27452E+05
 0.92502998E+02  0.27864E+05
 0.92553001E+02  0.28468E+05
 0.92602997E+02  0.29024E+05
 0.92653000E+02  0.29501E+05
 0.92703003E+02  0.29938E+05
 0.92752998E+02  0.30423E+05
 0.92803001E+02  0.30763E+05
 0.92852997E+02  0.31052E+05
 0.92903000E+02  0.31370E+05
 0.92953003E+02  0.31596E+05
 0.93002998E+02  0.31709E+05
 0.93053001E+02  0.31779E+05
 0.93102997E+02  0.31724E+05
 0.93153000E+02  0.31463E+05
 0.93203003E+02  0.31164E+05
 0.93252998E+02  0.31152E+05
 0.93303001E+02  0.31207E+05
 0.93352997E+02  0.30973E+05
 0.93403000E+02  0.30587E+05
 0.93453003E+02  0.30169E+05
 0.93502998E+02  0.29712E+05
 0.93553001E+02  0.29037E+05
 0.93602997E+02  0.28598E+05
 0.93653000E+02  0.28580E+05
 0.93703003E+02  0.28921E+05
 0.93752998E+02  0.29263E+05
 0.93803001E+02  0.29330E+05
 0.93852997E+02  0.29282E+05
 0.93903000E+02  0.29166E+05
 0.93953003E+02  0.29075E+05
 0.94002998E+02  0.28914E+05
 0.94053001E+02  0.28654E+05
 0.94102997E+02  0.28535E+05
 0.94153000E+02  0.28910E+05
 0.94203003E+02  0.29305E+05
 0.94252998E+02  0.29598E+05
 0.94303001E+02  0.29903E+05
 0.94352997E+02  0.29976E+05
 0.94403000E+02  0.29847E+05
 0.94453003E+02  0.29519E+05
 0.94502998E+02  0.29326E+05
 0.94553001E+02  0.29242E+05
 0.94602997E+02  0.29331E+05
 0.94653000E+02  0.29690E+05
 0.94703003E+02  0.29974E+05
 0.94752998E+02  0.30009E+05
 0.94803001E+02  0.29783E+05
 0.94852997E+02  0.29716E+05
 0.94903000E+02  0.29770E+05
 0.94953003E+02  0.29806E+05
 0.95002998E+02  0.29970E+05
 0.95053001E+02  0.30038E+05
 0.95102997E+02  0.29963E+05
 0.95153000E+02  0.29835E+05
 0.95203003E+02  0.29881E+05
 0.95252998E+02  0.29858E+05
 0.95303001E+02  0.29770E+05
 0.95352997E+02  0.29762E+05
 0.95403000E+02  0.29576E+05
 0.95453003E+02  0.29428E+05
 0.95502998E+02  0.29272E+05
 0.95553001E+02  0.29372E+05
 0.95602997E+02  0.29556E+05
 0.95653000E+02  0.29498E+05
 0.95703003E+02  0.29376E+05
 0.95752998E+02  0.29340E+05
 0.95803001E+02  0.29301E+05
 0.95852997E+02  0.29234E+05
 0.95903000E+02  0.29398E+05
 0.95953003E+02  0.29675E+05
 0.96002998E+02  0.29743E+05
 0.96053001E+02  0.29724E+05
 0.96102997E+02  0.29798E+05
 0.96153000E+02  0.29886E+05
 0.96203003E+02  0.29907E+05
 0.96252998E+02  0.29834E+05
 0.96303001E+02  0.29710E+05
 0.96352997E+02  0.29605E+05
 0.96403000E+02  0.29756E+05
 0.96453003E+02  0.30118E+05
 0.96502998E+02  0.30340E+05
 0.96553001E+02  0.30369E+05
 0.96602997E+02  0.30518E+05
 0.96653000E+02  0.30463E+05
 0.96703003E+02  0.30393E+05
 0.96752998E+02  0.30315E+05
 0.96803001E+02  0.30291E+05
 0.96852997E+02  0.30232E+05
 0.96903000E+02  0.30016E+05
 0.96953003E+02  0.29753E+05
 0.97002998E+02  0.29497E+05
 0.97053001E+02  0.29288E+05
 0.97102997E+02  0.28943E+05
 0.97153000E+02  0.28616E+05
 0.97203003E+02  0.28362E+05
 0.97252998E+02  0.28510E+05
 0.97303001E+02  0.28783E+05
 0.97352997E+02  0.29068E+05
 0.97403000E+02  0.29139E+05
 0.97453003E+02  0.29121E+05
 0.97502998E+02  0.29141E+05
 0.97553001E+02  0.29160E+05
 0.97602997E+02  0.29165E+05
 0.97653000E+02  0.29213E+05
 0.97703003E+02  0.29209E+05
 0.97752998E+02  0.29506E+05
 0.97803001E+02  0.29624E+05
 0.97852997E+02  0.29509E+05
 0.97903000E+02  0.29934E+05
 0.97953003E+02  0.29931E+05
 0.98002998E+02  0.30169E+05
