-0.19969940E+01 -0.12086E+05
-0.19469941E+01 -0.12010E+05
-0.18969940E+01 -0.12064E+05
-0.18469940E+01 -0.12050E+05
-0.17969940E+01 -0.12039E+05
-0.17469940E+01 -0.12023E+05
-0.16969941E+01 -0.12008E+05
-0.16469941E+01 -0.11999E+05
-0.15969940E+01 -0.12015E+05
-0.15469940E+01 -0.12039E+05
-0.14969940E+01 -0.12071E+05
-0.14469941E+01 -0.12092E+05
-0.13969941E+01 -0.12104E+05
-0.13469940E+01 -0.12124E+05
-0.12969941E+01 -0.12152E+05
-0.12469940E+01 -0.12182E+05
-0.11969941E+01 -0.12209E+05
-0.11469941E+01 -0.12224E+05
-0.10969940E+01 -0.12224E+05
-0.10469941E+01 -0.12223E+05
-0.99699408E+00 -0.12209E+05
-0.94699407E+00 -0.12210E+05
-0.89699411E+00 -0.12198E+05
-0.84699404E+00 -0.12190E+05
-0.79699409E+00 -0.12172E+05
-0.74699414E+00 -0.12165E+05
-0.69699407E+00 -0.12153E+05
-0.64699411E+00 -0.12123E+05
-0.59699416E+00 -0.12118E+05
-0.54699409E+00 -0.12103E+05
-0.49699414E+00 -0.12080E+05
-0.44699407E+00 -0.12091E+05
-0.39699411E+00 -0.12103E+05
-0.34699416E+00 -0.12100E+05
-0.29699409E+00 -0.12122E+05
-0.24699414E+00 -0.12125E+05
-0.19699407E+00 -0.12150E+05
-0.14699411E+00 -0.12157E+05
-0.96994162E-01 -0.12174E+05
-0.46994090E-01 -0.12190E+05
 0.30058622E-02 -0.12174E+05
 0.53005934E-01 -0.12163E+05
 0.10300589E+00 -0.12147E+05
 0.15300584E+00 -0.12138E+05
 0.20300579E+00 -0.12126E+05
 0.25300574E+00 -0.12104E+05
 0.30300593E+00 -0.12094E+05
 0.35300589E+00 -0.12073E+05
 0.40300584E+00 -0.12060E+05
 0.45300579E+00 -0.12075E+05
 0.50300574E+00 -0.12069E+05
 0.55300593E+00 -0.12066E+05
 0.60300589E+00 -0.12055E+05
 0.65300584E+00 -0.12044E+05
 0.70300579E+00 -0.12041E+05
 0.75300574E+00 -0.12062E+05
 0.80300570E+00 -0.12064E+05
 0.85300589E+00 -0.12071E+05
 0.90300584E+00 -0.12102E+05
 0.95300579E+00 -0.12130E+05
 0.10030057E+01 -0.12158E+05
 0.10530057E+01 -0.12158E+05
 0.11030059E+01 -0.12157E+05
 0.11530058E+01 -0.12168E+05
 0.12030058E+01 -0.12138E+05
 0.12530057E+01 -0.12154E+05
 0.13030057E+01 -0.12191E+05
 0.13530059E+01 -0.12172E+05
 0.14030058E+01 -0.12168E+05
 0.14530058E+01 -0.12197E+05
 0.15030057E+01 -0.12173E+05
 0.15530057E+01 -0.12174E+05
 0.16030059E+01 -0.12175E+05
 0.16530058E+01 -0.12151E+05
 0.17030058E+01 -0.12153E+05
 0.17530057E+01 -0.12140E+05
 0.18030057E+01 -0.12142E+05
 0.18530056E+01 -0.12128E+05
 0.19030058E+01 -0.12097E+05
 0.19530058E+01 -0.12100E+05
 0.20030057E+01 -0.12107E+05
 0.20530057E+01 -0.12097E+05
 0.21030059E+01 -0.12103E+05
 0.21530056E+01 -0.12100E+05
 0.22030058E+01 -0.12085E+05
 0.22530055E+01 -0.12065E+05
 0.23030057E+01 -0.12070E+05
 0.23530059E+01 -0.12092E+05
 0.24030056E+01 -0.12070E+05
 0.24530058E+01 -0.12111E+05
 0.25030055E+01 -0.12154E+05
 0.25530057E+01 -0.12131E+05
 0.26030059E+01 -0.12160E+05
 0.26530056E+01 -0.12163E+05
 0.27030058E+01 -0.12156E+05
 0.27530055E+01 -0.12170E+05
 0.28030057E+01 -0.12141E+05
 0.28530059E+01 -0.12156E+05
 0.29030056E+01 -0.12144E+05
 0.29530058E+01 -0.12120E+05
 0.30030055E+01 -0.12138E+05
 0.30530057E+01 -0.12101E+05
 0.31030059E+01 -0.12117E+05
 0.31530056E+01 -0.12090E+05
 0.32030058E+01 -0.12100E+05
 0.32530055E+01 -0.12116E+05
 0.33030057E+01 -0.12131E+05
 0.33530059E+01 -0.12157E+05
 0.34030056E+01 -0.12167E+05
 0.34530058E+01 -0.12181E+05
 0.35030055E+01 -0.12227E+05
 0.35530057E+01 -0.12190E+05
 0.36030054E+01 -0.12177E+05
 0.36530056E+01 -0.12143E+05
 0.37030058E+01 -0.12124E+05
 0.37530055E+01 -0.12124E+05
 0.38030057E+01 -0.12076E+05
 0.38530054E+01 -0.12139E+05
 0.39030056E+01 -0.12104E+05
 0.39530058E+01 -0.12093E+05
 0.40030055E+01 -0.12109E+05
 0.40530057E+01 -0.12116E+05
 0.41030054E+01 -0.12107E+05
 0.41530056E+01 -0.12097E+05
 0.42030058E+01 -0.12083E+05
 0.42530055E+01 -0.12083E+05
 0.43030057E+01 -0.12085E+05
 0.43530054E+01 -0.12081E+05
 0.44030056E+01 -0.12086E+05
 0.44530058E+01 -0.12067E+05
 0.45030055E+01 -0.12058E+05
 0.45530057E+01 -0.12078E+05
 0.46030054E+01 -0.12071E+05
 0.46530056E+01 -0.12103E+05
 0.47030058E+01 -0.12108E+05
 0.47530055E+01 -0.12062E+05
 0.48030057E+01 -0.12050E+05
 0.48530054E+01 -0.12107E+05
 0.49030056E+01 -0.12057E+05
 0.49530058E+01 -0.12021E+05
 0.50030055E+01 -0.12081E+05
 0.50530057E+01 -0.12114E+05
 0.51030054E+01 -0.12183E+05
 0.51530056E+01 -0.12174E+05
 0.52030058E+01 -0.12280E+05
 0.52530055E+01 -0.12078E+05
 0.53030057E+01 -0.12416E+05
 0.53530054E+01 -0.12197E+05
 0.54030056E+01 -0.12325E+05
 0.54530053E+01 -0.12183E+05
 0.55030055E+01 -0.12446E+05
 0.55530057E+01 -0.11645E+05
 0.56030054E+01 -0.11526E+05
 0.56530056E+01 -0.10820E+05
 0.57030053E+01 -0.11723E+05
 0.57530055E+01 -0.13046E+05
 0.58030057E+01 -0.13890E+05
 0.58530054E+01 -0.13117E+05
 0.59030056E+01 -0.12618E+05
 0.59530053E+01 -0.14098E+05
 0.60030055E+01 -0.14261E+05
 0.60530052E+01 -0.12034E+05
 0.61030054E+01 -0.10673E+05
 0.61530056E+01 -0.13702E+05
 0.62030058E+01 -0.60922E+04
 0.62530050E+01 -0.12961E+05
 0.63030052E+01 -0.16479E+05
 0.63530054E+01  0.47468E+04
 0.64030056E+01 -0.14764E+05
 0.64530058E+01 -0.15224E+05
 0.65030050E+01  0.12518E+04
 0.65530052E+01 -0.17774E+05
 0.66030054E+01 -0.22339E+05
 0.66530056E+01 -0.18386E+05
 0.67030058E+01 -0.80159E+04
 0.67530050E+01 -0.12430E+05
 0.68030052E+01 -0.19325E+05
 0.68530054E+01 -0.20900E+04
 0.69030056E+01 -0.22794E+05
 0.69530058E+01 -0.65083E+04
 0.70030050E+01  0.26604E+03
 0.70530052E+01 -0.24614E+05
 0.71030054E+01 -0.11208E+05
 0.71530056E+01 -0.19355E+04
 0.72030058E+01 -0.17682E+05
 0.72530050E+01 -0.43418E+04
 0.73030052E+01  0.77515E+03
 0.73530054E+01 -0.31736E+05
 0.74030056E+01 -0.76373E+04
 0.74530058E+01 -0.30710E+05
 0.75030050E+01 -0.26621E+04
 0.75530052E+01 -0.58446E+04
 0.76030054E+01  0.79151E+03
 0.76530056E+01 -0.13332E+05
 0.77030058E+01 -0.26471E+05
 0.77530050E+01 -0.20198E+05
 0.78030052E+01 -0.23040E+05
 0.78530054E+01 -0.16843E+05
 0.79030056E+01 -0.17230E+05
 0.79530058E+01 -0.43676E+04
 0.80030050E+01 -0.15362E+05
 0.80530052E+01 -0.10201E+04
 0.81030054E+01  0.19228E+05
 0.81530056E+01 -0.29479E+05
 0.82030058E+01  0.23820E+05
 0.82530050E+01 -0.48136E+05
 0.83030052E+01  0.10577E+05
 0.83530054E+01 -0.12669E+05
 0.84030056E+01 -0.46729E+04
 0.84530058E+01  0.20380E+05
 0.85030050E+01 -0.83844E+05
 0.85530052E+01  0.10690E+05
 0.86030054E+01 -0.67425E+05
 0.86530056E+01  0.14209E+05
 0.87030058E+01 -0.10085E+06
 0.87530050E+01  0.91039E+05
 0.88030052E+01 -0.58747E+05
 0.88530054E+01 -0.74031E+05
 0.89030056E+01  0.15478E+06
 0.89530058E+01  0.77889E+05
 0.90030050E+01 -0.12210E+06
 0.90530052E+01 -0.15956E+06
 0.91030054E+01  0.16628E+06
 0.91530056E+01 -0.50822E+05
 0.92030048E+01 -0.57511E+05
 0.92530050E+01 -0.12730E+05
 0.93030052E+01  0.32488E+05
 0.93530054E+01  0.40927E+05
 0.94030056E+01 -0.13815E+06
 0.94530048E+01 -0.16282E+06
 0.95030050E+01  0.68734E+05
 0.95530052E+01  0.11519E+05
 0.96030054E+01  0.48317E+05
 0.96530056E+01  0.23098E+05
 0.97030048E+01 -0.29394E+06
 0.97530050E+01  0.19307E+06
 0.98030052E+01  0.23519E+06
 0.98530054E+01 -0.15417E+06
 0.99030056E+01  0.60335E+05
 0.99530048E+01 -0.21635E+06
 0.10003005E+02 -0.16142E+05
 0.10053005E+02 -0.17859E+06
 0.10103005E+02 -0.57447E+05
 0.10153006E+02  0.24938E+06
 0.10203005E+02 -0.56679E+06
 0.10253005E+02  0.18853E+06
 0.10303005E+02  0.29351E+06
 0.10353005E+02 -0.18887E+06
 0.10403006E+02  0.12975E+04
 0.10453005E+02  0.52312E+06
 0.10503005E+02  0.26048E+06
 0.10553005E+02 -0.38892E+06
 0.10603005E+02 -0.63177E+05
 0.10653006E+02  0.16108E+06
 0.10703005E+02  0.27236E+06
 0.10753005E+02 -0.39056E+06
 0.10803005E+02 -0.10847E+05
 0.10853005E+02  0.16695E+06
 0.10903006E+02 -0.42685E+06
 0.10953005E+02 -0.27295E+06
 0.11003005E+02 -0.57533E+04
 0.11053005E+02  0.55613E+05
 0.11103005E+02 -0.49777E+05
 0.11153006E+02  0.43936E+05
 0.11203005E+02  0.23412E+06
 0.11253005E+02  0.85302E+05
 0.11303005E+02 -0.23337E+06
 0.11353005E+02 -0.54695E+05
 0.11403006E+02 -0.15215E+06
 0.11453005E+02  0.18406E+05
 0.11503005E+02  0.19788E+06
 0.11553005E+02  0.13128E+06
 0.11603005E+02 -0.85552E+05
 0.11653006E+02 -0.22881E+06
 0.11703005E+02  0.26565E+06
 0.11753005E+02 -0.15356E+05
 0.11803005E+02 -0.59391E+04
 0.11853005E+02  0.90397E+05
 0.11903006E+02 -0.28766E+06
 0.11953005E+02  0.89959E+05
 0.12003005E+02  0.12069E+06
 0.12053005E+02  0.36963E+05
 0.12103005E+02  0.52284E+05
 0.12153006E+02 -0.23355E+06
 0.12203005E+02 -0.58112E+05
 0.12253005E+02 -0.76387E+05
 0.12303005E+02 -0.17120E+06
 0.12353005E+02 -0.20823E+05
 0.12403006E+02  0.28017E+05
 0.12453005E+02  0.22605E+06
 0.12503005E+02  0.12504E+06
 0.12553005E+02  0.16028E+05
 0.12603005E+02 -0.26945E+05
 0.12653005E+02 -0.78909E+05
 0.12703005E+02  0.30014E+05
 0.12753005E+02 -0.13399E+06
 0.12803005E+02 -0.10229E+06
 0.12853005E+02  0.14636E+06
 0.12903005E+02 -0.13077E+06
 0.12953005E+02 -0.39680E+05
 0.13003005E+02  0.74062E+05
 0.13053005E+02 -0.40617E+05
 0.13103005E+02 -0.16382E+06
 0.13153005E+02 -0.42347E+05
 0.13203005E+02  0.61489E+05
 0.13253005E+02 -0.98368E+05
 0.13303005E+02  0.88848E+05
 0.13353005E+02  0.73186E+05
 0.13403005E+02  0.42453E+05
 0.13453005E+02  0.21162E+04
 0.13503005E+02  0.32086E+05
 0.13553005E+02  0.98538E+04
 0.13603005E+02 -0.80423E+05
 0.13653005E+02 -0.76544E+05
 0.13703005E+02 -0.88895E+05
 0.13753005E+02 -0.97332E+05
 0.13803005E+02 -0.50615E+05
 0.13853005E+02 -0.31055E+05
 0.13903005E+02 -0.35374E+05
 0.13953005E+02  0.65439E+05
 0.14003005E+02  0.79939E+04
 0.14053005E+02 -0.12758E+05
 0.14103004E+02  0.10974E+06
 0.14153006E+02  0.37519E+05
 0.14203005E+02  0.32583E+05
 0.14253004E+02 -0.19720E+05
 0.14303005E+02 -0.33308E+05
 0.14353004E+02 -0.91226E+05
 0.14403006E+02 -0.60215E+05
 0.14453005E+02  0.23141E+05
 0.14503004E+02 -0.67486E+05
 0.14553005E+02  0.12580E+05
 0.14603004E+02 -0.46251E+05
 0.14653006E+02  0.48976E+03
 0.14703005E+02 -0.45526E+05
 0.14753004E+02  0.75329E+05
 0.14803005E+02  0.10993E+05
 0.14853004E+02  0.20619E+05
 0.14903006E+02  0.10491E+04
 0.14953005E+02 -0.11641E+06
 0.15003004E+02  0.73993E+05
 0.15053005E+02  0.21406E+04
 0.15103004E+02 -0.42121E+04
 0.15153006E+02  0.21747E+05
 0.15203005E+02  0.63626E+05
 0.15253004E+02 -0.70806E+05
 0.15303005E+02 -0.10856E+06
 0.15353004E+02 -0.18747E+05
 0.15403006E+02 -0.11504E+06
 0.15453005E+02 -0.77685E+05
 0.15503004E+02  0.33226E+05
 0.15553005E+02  0.31027E+05
 0.15603004E+02 -0.43774E+04
 0.15653006E+02  0.32281E+05
 0.15703005E+02  0.80611E+05
 0.15753004E+02  0.10880E+05
 0.15803005E+02 -0.11057E+05
 0.15853004E+02  0.12700E+05
 0.15903006E+02 -0.28518E+05
 0.15953005E+02 -0.39059E+05
 0.16003004E+02  0.14072E+05
 0.16053005E+02 -0.10025E+06
 0.16103004E+02 -0.41697E+05
 0.16153006E+02 -0.43865E+05
 0.16203005E+02 -0.36907E+05
 0.16253004E+02  0.51826E+05
 0.16303005E+02 -0.23571E+05
 0.16353004E+02 -0.64130E+04
 0.16403006E+02 -0.17974E+05
 0.16453005E+02 -0.33869E+05
 0.16503004E+02 -0.34555E+05
 0.16553005E+02  0.49316E+05
 0.16603004E+02  0.19262E+05
 0.16653006E+02 -0.15390E+05
 0.16703005E+02  0.23132E+04
 0.16753004E+02 -0.49253E+05
 0.16803005E+02 -0.91643E+05
 0.16853004E+02  0.24715E+04
 0.16903006E+02 -0.17272E+05
 0.16953005E+02  0.29435E+05
 0.17003004E+02  0.76051E+05
 0.17053005E+02 -0.57840E+05
 0.17103004E+02 -0.58939E+05
 0.17153006E+02 -0.15126E+05
 0.17203005E+02 -0.20253E+05
 0.17253004E+02 -0.56975E+05
 0.17303005E+02  0.14724E+04
 0.17353004E+02 -0.27436E+04
 0.17403006E+02 -0.74934E+04
 0.17453005E+02  0.12578E+05
 0.17503004E+02 -0.13416E+05
 0.17553005E+02 -0.83578E+04
 0.17603004E+02 -0.12745E+05
 0.17653006E+02  0.76892E+04
 0.17703005E+02  0.82626E+04
 0.17753004E+02  0.13517E+05
 0.17803005E+02 -0.14599E+05
 0.17853004E+02 -0.41757E+05
 0.17903006E+02 -0.32677E+05
 0.17953005E+02 -0.45497E+05
 0.18003004E+02  0.18141E+05
 0.18053005E+02  0.31345E+05
 0.18103004E+02  0.38967E+03
 0.18153006E+02 -0.22772E+05
 0.18203005E+02 -0.15106E+05
 0.18253004E+02 -0.39285E+04
 0.18303005E+02 -0.38763E+05
 0.18353004E+02  0.24422E+05
 0.18403006E+02  0.27563E+05
 0.18453005E+02 -0.33617E+05
 0.18503004E+02 -0.16672E+05
 0.18553005E+02 -0.53662E+04
 0.18603004E+02 -0.33978E+05
 0.18653006E+02 -0.43178E+05
 0.18703005E+02 -0.37609E+05
 0.18753004E+02 -0.22423E+05
 0.18803005E+02 -0.75171E+04
 0.18853004E+02 -0.14268E+05
 0.18903006E+02 -0.26681E+04
 0.18953005E+02  0.39119E+05
 0.19003004E+02  0.52591E+04
 0.19053005E+02 -0.13934E+05
 0.19103004E+02 -0.46832E+05
 0.19153006E+02 -0.54366E+05
 0.19203005E+02  0.46641E+03
 0.19253004E+02  0.17304E+05
 0.19303005E+02  0.15706E+05
 0.19353004E+02 -0.39925E+05
 0.19403006E+02 -0.24685E+05
 0.19453005E+02 -0.16651E+05
 0.19503004E+02 -0.53244E+05
 0.19553005E+02 -0.63099E+05
 0.19603004E+02  0.27654E+04
 0.19653006E+02  0.13080E+05
 0.19703005E+02 -0.25028E+05
 0.19753004E+02 -0.38086E+04
 0.19803005E+02 -0.11574E+04
 0.19853004E+02 -0.39902E+05
 0.19903006E+02 -0.32082E+05
 0.19953005E+02 -0.13773E+05
 0.20003004E+02  0.35524E+04
 0.20053005E+02  0.37590E+05
 0.20103004E+02  0.29200E+05
 0.20153006E+02  0.24853E+05
 0.20203005E+02  0.17398E+05
 0.20253004E+02 -0.11710E+05
 0.20303005E+02 -0.46664E+05
 0.20353004E+02 -0.45556E+05
 0.20403004E+02 -0.57113E+05
 0.20453005E+02 -0.28042E+05
 0.20503004E+02 -0.65216E+04
 0.20553005E+02 -0.12132E+05
 0.20603004E+02  0.38346E+05
 0.20653004E+02  0.23618E+05
 0.20703005E+02 -0.18679E+05
 0.20753004E+02 -0.88936E+04
 0.20803005E+02 -0.18400E+05
 0.20853004E+02 -0.22706E+05
 0.20903004E+02  0.58552E+04
 0.20953005E+02  0.23822E+04
 0.21003004E+02 -0.25334E+05
 0.21053005E+02 -0.23716E+05
 0.21103004E+02 -0.25018E+05
 0.21153004E+02 -0.42341E+05
 0.21203005E+02 -0.47553E+05
 0.21253004E+02 -0.36164E+05
 0.21303005E+02 -0.23147E+05
 0.21353004E+02 -0.17164E+05
 0.21403004E+02  0.14786E+05
 0.21453005E+02  0.15223E+05
 0.21503004E+02  0.36444E+05
 0.21553005E+02  0.44175E+05
 0.21603004E+02  0.85646E+04
 0.21653004E+02 -0.30552E+05
 0.21703005E+02 -0.32274E+05
 0.21753004E+02 -0.24279E+05
 0.21803005E+02 -0.28251E+05
 0.21853004E+02 -0.17217E+05
 0.21903004E+02 -0.24723E+05
 0.21953005E+02 -0.11303E+05
 0.22003004E+02 -0.10380E+05
 0.22053005E+02  0.22933E+05
 0.22103004E+02  0.47568E+04
 0.22153004E+02 -0.31575E+05
 0.22203005E+02 -0.42331E+05
 0.22253004E+02 -0.55936E+05
 0.22303005E+02 -0.20311E+05
 0.22353004E+02 -0.86218E+04
 0.22403004E+02 -0.33298E+04
 0.22453005E+02  0.26038E+04
 0.22503004E+02  0.92449E+03
 0.22553005E+02 -0.15020E+05
 0.22603004E+02  0.51688E+04
 0.22653004E+02  0.12193E+05
 0.22703005E+02 -0.25199E+05
 0.22753004E+02  0.76240E+04
 0.22803005E+02  0.36534E+04
 0.22853004E+02 -0.29938E+05
 0.22903004E+02 -0.41439E+05
 0.22953005E+02 -0.31365E+05
 0.23003004E+02 -0.26042E+05
 0.23053005E+02 -0.42983E+04
 0.23103004E+02 -0.11162E+05
 0.23153004E+02 -0.85304E+04
 0.23203005E+02 -0.20290E+05
 0.23253004E+02  0.11046E+04
 0.23303005E+02  0.13603E+04
 0.23353004E+02 -0.22230E+05
 0.23403004E+02 -0.15015E+05
 0.23453005E+02 -0.36334E+05
 0.23503004E+02 -0.17027E+05
 0.23553005E+02 -0.27365E+05
 0.23603004E+02 -0.14995E+03
 0.23653004E+02 -0.12661E+05
 0.23703005E+02 -0.27700E+04
 0.23753004E+02 -0.51119E+04
 0.23803005E+02 -0.90464E+04
 0.23853004E+02 -0.11399E+05
 0.23903004E+02 -0.29159E+05
 0.23953005E+02 -0.77384E+04
 0.24003004E+02 -0.22673E+05
 0.24053005E+02 -0.30233E+05
 0.24103004E+02 -0.14106E+05
 0.24153004E+02  0.12985E+05
 0.24203005E+02  0.20604E+05
 0.24253004E+02  0.11144E+05
 0.24303005E+02  0.13374E+04
 0.24353004E+02 -0.22006E+05
 0.24403004E+02 -0.36894E+05
 0.24453005E+02 -0.31154E+05
 0.24503004E+02 -0.15134E+05
 0.24553005E+02 -0.11718E+04
 0.24603004E+02  0.96348E+03
 0.24653004E+02  0.14304E+05
 0.24703005E+02 -0.44374E+04
 0.24753004E+02 -0.62200E+04
 0.24803005E+02  0.34542E+04
 0.24853004E+02 -0.25929E+04
 0.24903004E+02 -0.11696E+05
 0.24953005E+02 -0.36068E+05
 0.25003004E+02 -0.34671E+05
 0.25053005E+02 -0.32462E+05
 0.25103004E+02 -0.42793E+05
 0.25153004E+02 -0.28988E+05
 0.25203005E+02 -0.45785E+04
 0.25253004E+02 -0.13293E+05
 0.25303005E+02 -0.13486E+05
 0.25353004E+02  0.18662E+05
 0.25403004E+02 -0.10663E+05
 0.25453005E+02 -0.20202E+05
 0.25503004E+02  0.23836E+04
 0.25553005E+02 -0.19553E+05
 0.25603004E+02 -0.12861E+05
 0.25653004E+02 -0.83110E+04
 0.25703005E+02 -0.98642E+04
 0.25753004E+02 -0.96153E+04
 0.25803005E+02 -0.21080E+05
 0.25853004E+02 -0.18640E+05
 0.25903004E+02 -0.23124E+05
 0.25953005E+02 -0.21485E+05
 0.26003004E+02 -0.40836E+04
 0.26053005E+02  0.18734E+05
 0.26103004E+02  0.32279E+04
 0.26153004E+02  0.39679E+04
 0.26203005E+02  0.12116E+05
 0.26253004E+02 -0.13760E+05
 0.26303005E+02 -0.20808E+05
 0.26353004E+02 -0.21005E+05
 0.26403004E+02 -0.24605E+05
 0.26453005E+02 -0.22719E+05
 0.26503004E+02 -0.19389E+05
 0.26553005E+02 -0.20901E+05
 0.26603004E+02 -0.12211E+05
 0.26653004E+02 -0.92981E+04
 0.26703005E+02 -0.10891E+05
 0.26753004E+02 -0.13261E+05
 0.26803005E+02 -0.24127E+05
 0.26853004E+02 -0.22263E+05
 0.26903004E+02 -0.28030E+05
 0.26953005E+02 -0.21218E+05
 0.27003004E+02 -0.22761E+04
 0.27053003E+02 -0.89172E+04
 0.27103004E+02 -0.68341E+04
 0.27153004E+02  0.49030E+04
 0.27203005E+02  0.17150E+04
 0.27253004E+02 -0.19531E+05
 0.27303003E+02 -0.22559E+05
 0.27353004E+02 -0.12713E+05
 0.27403004E+02 -0.91264E+04
 0.27453005E+02 -0.15391E+05
 0.27503004E+02 -0.19734E+05
 0.27553003E+02 -0.21275E+05
 0.27603004E+02 -0.11217E+05
 0.27653004E+02  0.24353E+04
 0.27703005E+02  0.30254E+04
 0.27753004E+02  0.26245E+04
 0.27803003E+02 -0.10379E+05
 0.27853004E+02 -0.13264E+05
 0.27903004E+02 -0.65980E+04
 0.27953005E+02 -0.20245E+05
 0.28003004E+02 -0.14417E+05
 0.28053003E+02 -0.11696E+05
 0.28103004E+02 -0.26108E+05
 0.28153004E+02 -0.19987E+05
 0.28203005E+02 -0.13349E+05
 0.28253004E+02 -0.80531E+04
 0.28303003E+02 -0.12807E+05
 0.28353004E+02 -0.12248E+05
 0.28403004E+02 -0.13335E+05
 0.28453005E+02 -0.98593E+04
 0.28503004E+02 -0.18195E+05
 0.28553003E+02 -0.85943E+04
 0.28603004E+02 -0.47265E+03
 0.28653004E+02 -0.21417E+04
 0.28703005E+02 -0.22362E+04
 0.28753004E+02 -0.12007E+05
 0.28803003E+02 -0.11654E+05
 0.28853004E+02 -0.20130E+05
 0.28903004E+02 -0.15601E+05
 0.28953005E+02 -0.94770E+04
 0.29003004E+02 -0.54195E+04
 0.29053003E+02 -0.10412E+05
 0.29103004E+02 -0.80316E+04
 0.29153004E+02 -0.75991E+04
 0.29203005E+02 -0.86692E+04
 0.29253004E+02 -0.14058E+05
 0.29303003E+02 -0.16377E+05
 0.29353004E+02 -0.15035E+05
 0.29403004E+02 -0.15541E+05
 0.29453005E+02 -0.10087E+05
 0.29503004E+02 -0.16286E+05
 0.29553003E+02 -0.30313E+05
 0.29603004E+02 -0.29303E+05
 0.29653004E+02 -0.18233E+05
 0.29703005E+02 -0.16169E+05
 0.29753004E+02 -0.79734E+04
 0.29803003E+02  0.65695E+04
 0.29853004E+02 -0.27441E+04
 0.29903004E+02 -0.64089E+04
 0.29953005E+02 -0.15894E+05
 0.30003004E+02 -0.19448E+05
 0.30053005E+02 -0.19127E+05
 0.30103004E+02 -0.26003E+05
 0.30153004E+02 -0.22032E+05
 0.30203003E+02 -0.19330E+05
 0.30253002E+02 -0.14306E+05
 0.30303005E+02 -0.11854E+05
 0.30353004E+02 -0.69711E+04
 0.30403004E+02 -0.58750E+04
 0.30453003E+02  0.87641E+04
 0.30503002E+02  0.83072E+04
 0.30553005E+02  0.10186E+05
 0.30603004E+02  0.69908E+04
 0.30653004E+02  0.11113E+03
 0.30703003E+02 -0.27053E+04
 0.30753002E+02 -0.15527E+05
 0.30803005E+02 -0.21002E+05
 0.30853004E+02 -0.23095E+05
 0.30903004E+02 -0.17751E+05
 0.30953003E+02 -0.23314E+05
 0.31003002E+02 -0.26120E+05
 0.31053005E+02 -0.26193E+05
 0.31103004E+02 -0.23579E+05
 0.31153004E+02 -0.19877E+05
 0.31203003E+02 -0.18813E+05
 0.31253002E+02 -0.18475E+05
 0.31303005E+02 -0.20198E+05
 0.31353004E+02 -0.15911E+05
 0.31403004E+02 -0.23743E+05
 0.31453003E+02 -0.12958E+05
 0.31503002E+02 -0.99329E+04
 0.31553005E+02 -0.97830E+04
 0.31603004E+02 -0.40673E+04
 0.31653004E+02 -0.65191E+04
 0.31703003E+02  0.14711E+04
 0.31753002E+02  0.53366E+04
 0.31803005E+02  0.43508E+04
 0.31853004E+02  0.44884E+04
 0.31903004E+02  0.99280E+03
 0.31953003E+02 -0.11377E+05
 0.32003002E+02 -0.15476E+05
 0.32053005E+02 -0.20849E+05
 0.32103004E+02 -0.25192E+05
 0.32153004E+02 -0.22305E+05
 0.32203003E+02 -0.13854E+05
 0.32253002E+02 -0.14239E+05
 0.32303005E+02 -0.72824E+04
 0.32353004E+02 -0.86332E+04
 0.32403004E+02 -0.19756E+05
 0.32453003E+02 -0.20860E+05
 0.32503002E+02 -0.19893E+05
 0.32553005E+02 -0.18743E+05
 0.32603004E+02 -0.21571E+05
 0.32653004E+02 -0.11375E+05
 0.32703003E+02 -0.14044E+05
 0.32753002E+02 -0.21557E+05
 0.32803005E+02 -0.14411E+05
 0.32853004E+02 -0.13399E+05
 0.32903004E+02 -0.10054E+05
 0.32953003E+02 -0.86873E+03
 0.33003002E+02  0.87989E+02
 0.33053005E+02 -0.47589E+04
 0.33103004E+02  0.42781E+03
 0.33153004E+02 -0.12556E+03
 0.33203003E+02 -0.22151E+03
 0.33253002E+02  0.50764E+04
 0.33303005E+02 -0.70576E+04
 0.33353004E+02 -0.16425E+05
 0.33403004E+02 -0.19865E+05
 0.33453003E+02 -0.26102E+05
 0.33503002E+02 -0.24946E+05
 0.33553005E+02 -0.26818E+05
 0.33603004E+02 -0.27354E+05
 0.33653004E+02 -0.24339E+05
 0.33703003E+02 -0.18241E+05
 0.33753002E+02 -0.14512E+05
 0.33803005E+02 -0.68713E+04
 0.33853004E+02  0.13474E+04
 0.33903004E+02  0.18235E+04
 0.33953003E+02  0.68412E+04
 0.34003002E+02 -0.10451E+04
 0.34053005E+02 -0.65672E+04
 0.34103004E+02 -0.13629E+05
 0.34153004E+02 -0.24946E+05
 0.34203003E+02 -0.27928E+05
 0.34253002E+02 -0.28108E+05
 0.34303005E+02 -0.27894E+05
 0.34353004E+02 -0.23016E+05
 0.34403004E+02 -0.16457E+05
 0.34453003E+02 -0.44100E+04
 0.34503002E+02  0.16382E+04
 0.34553005E+02  0.55483E+04
 0.34603004E+02  0.85277E+04
 0.34653004E+02  0.65764E+04
 0.34703003E+02  0.80163E+04
 0.34753002E+02  0.12795E+04
 0.34803005E+02 -0.55975E+04
 0.34853004E+02 -0.15181E+05
 0.34903004E+02 -0.19371E+05
 0.34953003E+02 -0.23815E+05
 0.35003002E+02 -0.25984E+05
 0.35053005E+02 -0.26671E+05
 0.35103004E+02 -0.26613E+05
 0.35153004E+02 -0.31891E+05
 0.35203003E+02 -0.30618E+05
 0.35253002E+02 -0.15025E+05
 0.35303005E+02 -0.12277E+05
 0.35353004E+02 -0.92465E+04
 0.35403004E+02  0.11109E+04
 0.35453003E+02  0.13149E+04
 0.35503002E+02 -0.17432E+04
 0.35553005E+02 -0.85706E+04
 0.35603004E+02 -0.13817E+05
 0.35653004E+02 -0.16483E+05
 0.35703003E+02 -0.19239E+05
 0.35753002E+02 -0.22227E+05
 0.35803005E+02 -0.18930E+05
 0.35853004E+02 -0.12033E+05
 0.35903004E+02 -0.20170E+05
 0.35953003E+02 -0.10338E+05
 0.36003002E+02 -0.41293E+04
 0.36053005E+02 -0.53857E+04
 0.36103004E+02 -0.49698E+04
 0.36153004E+02 -0.10986E+05
 0.36203003E+02 -0.13947E+05
 0.36253002E+02 -0.18001E+05
 0.36303005E+02 -0.13279E+05
 0.36353004E+02 -0.12211E+05
 0.36403004E+02 -0.10311E+05
 0.36453003E+02 -0.94039E+04
 0.36503002E+02 -0.30182E+04
 0.36553005E+02  0.74657E+04
 0.36603004E+02  0.17003E+04
 0.36653004E+02 -0.39322E+04
 0.36703003E+02 -0.11352E+04
 0.36753002E+02 -0.94321E+04
 0.36803005E+02 -0.17813E+05
 0.36853004E+02 -0.19752E+05
 0.36903004E+02 -0.22618E+05
 0.36953003E+02 -0.17957E+05
 0.37003002E+02 -0.15396E+05
 0.37053005E+02 -0.17241E+05
 0.37103004E+02 -0.18312E+05
 0.37153004E+02 -0.14266E+05
 0.37203003E+02 -0.13768E+05
 0.37253002E+02 -0.14162E+05
 0.37303005E+02 -0.17184E+05
 0.37353004E+02 -0.22033E+05
 0.37403004E+02 -0.23281E+05
 0.37453003E+02 -0.18260E+05
 0.37503002E+02 -0.14872E+05
 0.37553005E+02 -0.10756E+05
 0.37603004E+02 -0.82642E+04
 0.37653004E+02 -0.96924E+04
 0.37703003E+02 -0.11264E+05
 0.37753002E+02 -0.12252E+05
 0.37803005E+02 -0.55890E+04
 0.37853004E+02 -0.48631E+04
 0.37903004E+02 -0.23649E+04
 0.37953003E+02 -0.58612E+04
 0.38003002E+02 -0.92785E+04
 0.38053005E+02 -0.93683E+04
 0.38103004E+02 -0.11163E+05
 0.38153004E+02 -0.11468E+05
 0.38203003E+02 -0.10919E+05
 0.38253002E+02 -0.14250E+05
 0.38303005E+02 -0.16297E+05
 0.38353004E+02 -0.87456E+04
 0.38403004E+02 -0.10933E+05
 0.38453003E+02 -0.15862E+05
 0.38503002E+02 -0.12676E+05
 0.38553005E+02 -0.10367E+05
 0.38603004E+02 -0.10145E+05
 0.38653004E+02 -0.98276E+04
 0.38703003E+02 -0.10790E+05
 0.38753002E+02 -0.81138E+04
 0.38803005E+02 -0.10292E+05
 0.38853004E+02 -0.11391E+05
 0.38903004E+02 -0.12496E+05
 0.38953003E+02 -0.14610E+05
 0.39003002E+02 -0.13609E+05
 0.39053005E+02 -0.13706E+05
 0.39103004E+02 -0.13167E+05
 0.39153004E+02 -0.16574E+05
 0.39203003E+02 -0.17760E+05
 0.39253002E+02 -0.17797E+05
 0.39303005E+02 -0.18137E+05
 0.39353004E+02 -0.18549E+05
 0.39403004E+02 -0.11024E+05
 0.39453003E+02 -0.11459E+05
 0.39503002E+02 -0.14988E+05
 0.39553005E+02 -0.11205E+05
 0.39603004E+02 -0.15309E+05
 0.39653004E+02 -0.15715E+05
 0.39703003E+02 -0.10070E+05
 0.39753002E+02 -0.90459E+04
 0.39803005E+02 -0.13842E+05
 0.39853004E+02 -0.13625E+05
 0.39903004E+02 -0.16177E+05
 0.39953003E+02 -0.15155E+05
 0.40003002E+02 -0.10911E+05
 0.40053005E+02 -0.96902E+04
 0.40103004E+02 -0.10589E+05
 0.40153004E+02 -0.11508E+05
 0.40203003E+02 -0.12142E+05
 0.40253002E+02 -0.13830E+05
 0.40303005E+02 -0.10017E+05
 0.40353004E+02 -0.78435E+04
 0.40403004E+02 -0.90026E+04
 0.40453003E+02 -0.87603E+04
 0.40503002E+02 -0.71417E+04
 0.40553005E+02 -0.78854E+04
 0.40603004E+02 -0.73044E+04
 0.40653004E+02 -0.48631E+04
 0.40703003E+02 -0.45253E+04
 0.40753002E+02 -0.56446E+04
 0.40803005E+02 -0.79985E+04
 0.40853004E+02 -0.94438E+04
 0.40903004E+02 -0.94042E+04
 0.40953003E+02 -0.12447E+05
 0.41003002E+02 -0.17537E+05
 0.41053005E+02 -0.19601E+05
 0.41103004E+02 -0.20993E+05
 0.41153004E+02 -0.23249E+05
 0.41203003E+02 -0.21926E+05
 0.41253002E+02 -0.17338E+05
 0.41303005E+02 -0.12711E+05
 0.41353004E+02 -0.97308E+04
 0.41403004E+02 -0.66553E+04
 0.41453003E+02 -0.68459E+04
 0.41503002E+02 -0.49684E+04
 0.41553005E+02 -0.57522E+04
 0.41603004E+02 -0.11768E+05
 0.41653004E+02 -0.15976E+05
 0.41703003E+02 -0.16177E+05
 0.41753002E+02 -0.18027E+05
 0.41803005E+02 -0.21452E+05
 0.41853004E+02 -0.17929E+05
 0.41903004E+02 -0.16479E+05
 0.41953003E+02 -0.12148E+05
 0.42003002E+02 -0.99280E+04
 0.42053005E+02 -0.10941E+05
 0.42103004E+02 -0.10588E+05
 0.42153004E+02 -0.14558E+05
 0.42203003E+02 -0.87236E+04
 0.42253002E+02 -0.37282E+04
 0.42303005E+02 -0.30651E+04
 0.42353004E+02 -0.32507E+04
 0.42403004E+02 -0.66143E+04
 0.42453003E+02 -0.92155E+04
 0.42503002E+02 -0.11899E+05
 0.42553005E+02 -0.12419E+05
 0.42603004E+02 -0.14750E+05
 0.42653004E+02 -0.12664E+05
 0.42703003E+02 -0.17698E+05
 0.42753002E+02 -0.20199E+05
 0.42803001E+02 -0.18738E+05
 0.42853004E+02 -0.16263E+05
 0.42903004E+02 -0.13313E+05
 0.42953003E+02 -0.10827E+05
 0.43003002E+02 -0.11602E+05
 0.43053001E+02 -0.15193E+05
 0.43103004E+02 -0.12602E+05
 0.43153004E+02 -0.14473E+05
 0.43203003E+02 -0.15033E+05
 0.43253002E+02 -0.12957E+05
 0.43303001E+02 -0.95273E+04
 0.43353004E+02 -0.12964E+05
 0.43403004E+02 -0.10491E+05
 0.43453003E+02 -0.82323E+04
 0.43503002E+02 -0.84971E+04
 0.43553001E+02 -0.86982E+04
 0.43603004E+02 -0.90373E+04
 0.43653004E+02 -0.89183E+04
 0.43703003E+02 -0.11525E+05
 0.43753002E+02 -0.75008E+04
 0.43803001E+02 -0.10330E+05
 0.43853004E+02 -0.11792E+05
 0.43903004E+02 -0.10417E+05
 0.43953003E+02 -0.97559E+04
 0.44003002E+02 -0.11514E+05
 0.44053001E+02 -0.12890E+05
 0.44103004E+02 -0.10452E+05
 0.44153004E+02 -0.14345E+05
 0.44203003E+02 -0.16257E+05
 0.44253002E+02 -0.17417E+05
 0.44303001E+02 -0.16019E+05
 0.44353004E+02 -0.16002E+05
 0.44403004E+02 -0.17367E+05
 0.44453003E+02 -0.16973E+05
 0.44503002E+02 -0.17270E+05
 0.44553001E+02 -0.14480E+05
 0.44603004E+02 -0.11099E+05
 0.44653004E+02 -0.79743E+04
 0.44703003E+02 -0.76031E+04
 0.44753002E+02 -0.74157E+04
 0.44803001E+02 -0.52871E+04
 0.44853004E+02 -0.56004E+04
 0.44903004E+02 -0.95553E+04
 0.44953003E+02 -0.10121E+05
 0.45003002E+02 -0.13620E+05
 0.45053001E+02 -0.16109E+05
 0.45103004E+02 -0.19701E+05
 0.45153004E+02 -0.21240E+05
 0.45203003E+02 -0.18937E+05
 0.45253002E+02 -0.14814E+05
 0.45303001E+02 -0.12241E+05
 0.45353004E+02 -0.91560E+04
 0.45403004E+02 -0.65490E+04
 0.45453003E+02 -0.10381E+05
 0.45503002E+02 -0.11223E+05
 0.45553001E+02 -0.12947E+05
 0.45603004E+02 -0.12344E+05
 0.45653004E+02 -0.12805E+05
 0.45703003E+02 -0.10698E+05
 0.45753002E+02 -0.86710E+04
 0.45803001E+02 -0.68981E+04
 0.45853004E+02 -0.53116E+04
 0.45903004E+02 -0.80722E+04
 0.45953003E+02 -0.79595E+04
 0.46003002E+02 -0.73488E+04
 0.46053001E+02 -0.91197E+04
 0.46103004E+02 -0.10259E+05
 0.46153004E+02 -0.12692E+05
 0.46203003E+02 -0.16442E+05
 0.46253002E+02 -0.18104E+05
 0.46303001E+02 -0.19427E+05
 0.46353004E+02 -0.20385E+05
 0.46403004E+02 -0.20633E+05
 0.46453003E+02 -0.19385E+05
 0.46503002E+02 -0.19809E+05
 0.46553001E+02 -0.18077E+05
 0.46603004E+02 -0.14764E+05
 0.46653004E+02 -0.11309E+05
 0.46703003E+02 -0.83636E+04
 0.46753002E+02 -0.80010E+04
 0.46803001E+02 -0.52764E+04
 0.46853004E+02 -0.47235E+04
 0.46903004E+02 -0.31988E+04
 0.46953003E+02 -0.30635E+04
 0.47003002E+02 -0.55390E+04
 0.47053001E+02 -0.66250E+04
 0.47103004E+02 -0.73685E+04
 0.47153004E+02 -0.90662E+04
 0.47203003E+02 -0.11575E+05
 0.47253002E+02 -0.12215E+05
 0.47303001E+02 -0.14807E+05
 0.47353004E+02 -0.16713E+05
 0.47403004E+02 -0.15037E+05
 0.47453003E+02 -0.14542E+05
 0.47503002E+02 -0.12835E+05
 0.47553001E+02 -0.10723E+05
 0.47603004E+02 -0.99542E+04
 0.47653004E+02 -0.12247E+05
 0.47703003E+02 -0.14787E+05
 0.47753002E+02 -0.13331E+05
 0.47803001E+02 -0.14351E+05
 0.47853004E+02 -0.16117E+05
 0.47903004E+02 -0.16135E+05
 0.47953003E+02 -0.16365E+05
 0.48003002E+02 -0.16592E+05
 0.48053001E+02 -0.16190E+05
 0.48103004E+02 -0.14814E+05
 0.48153004E+02 -0.12150E+05
 0.48203003E+02 -0.10976E+05
 0.48253002E+02 -0.11518E+05
 0.48303001E+02 -0.11009E+05
 0.48353004E+02 -0.97895E+04
 0.48403004E+02 -0.10017E+05
 0.48453003E+02 -0.11501E+05
 0.48503002E+02 -0.11585E+05
 0.48553001E+02 -0.11353E+05
 0.48603004E+02 -0.10597E+05
 0.48653004E+02 -0.12560E+05
 0.48703003E+02 -0.15071E+05
 0.48753002E+02 -0.13119E+05
 0.48803001E+02 -0.12690E+05
 0.48853004E+02 -0.13155E+05
 0.48903004E+02 -0.14058E+05
 0.48953003E+02 -0.13210E+05
 0.49003002E+02 -0.13182E+05
 0.49053001E+02 -0.11393E+05
 0.49103004E+02 -0.99997E+04
 0.49153004E+02 -0.98564E+04
 0.49203003E+02 -0.67709E+04
 0.49253002E+02 -0.68772E+04
 0.49303001E+02 -0.94118E+04
 0.49353004E+02 -0.96990E+04
 0.49403004E+02 -0.11446E+05
 0.49453003E+02 -0.15605E+05
 0.49503002E+02 -0.14774E+05
 0.49553001E+02 -0.14437E+05
 0.49603004E+02 -0.14493E+05
 0.49653004E+02 -0.12218E+05
 0.49703003E+02 -0.11555E+05
 0.49753002E+02 -0.12396E+05
 0.49803001E+02 -0.10673E+05
 0.49853004E+02 -0.99102E+04
 0.49903004E+02 -0.11459E+05
 0.49953003E+02 -0.99482E+04
 0.50003002E+02 -0.94031E+04
 0.50053001E+02 -0.91457E+04
 0.50103004E+02 -0.86831E+04
 0.50153004E+02 -0.95486E+04
 0.50203003E+02 -0.97824E+04
 0.50253002E+02 -0.10296E+05
 0.50303001E+02 -0.13881E+05
 0.50353004E+02 -0.17410E+05
 0.50403004E+02 -0.18891E+05
 0.50453003E+02 -0.18882E+05
 0.50503002E+02 -0.17399E+05
 0.50553001E+02 -0.16308E+05
 0.50603004E+02 -0.14455E+05
 0.50653004E+02 -0.12886E+05
 0.50703003E+02 -0.11079E+05
 0.50753002E+02 -0.88552E+04
 0.50803001E+02 -0.97053E+04
 0.50853004E+02 -0.10886E+05
 0.50903004E+02 -0.10372E+05
 0.50953003E+02 -0.84203E+04
 0.51003002E+02 -0.64969E+04
 0.51053001E+02 -0.82788E+04
 0.51103004E+02 -0.99331E+04
 0.51153004E+02 -0.10589E+05
 0.51203003E+02 -0.11410E+05
 0.51253002E+02 -0.13489E+05
 0.51303001E+02 -0.13575E+05
 0.51353004E+02 -0.12963E+05
 0.51403004E+02 -0.13966E+05
 0.51453003E+02 -0.14944E+05
 0.51503002E+02 -0.16062E+05
 0.51553001E+02 -0.16327E+05
 0.51603004E+02 -0.14889E+05
 0.51653004E+02 -0.12521E+05
 0.51703003E+02 -0.11943E+05
 0.51753002E+02 -0.13553E+05
 0.51803001E+02 -0.13226E+05
 0.51853004E+02 -0.12490E+05
 0.51903004E+02 -0.13584E+05
 0.51953003E+02 -0.11417E+05
 0.52003002E+02 -0.10294E+05
 0.52053001E+02 -0.10218E+05
 0.52103004E+02 -0.80265E+04
 0.52153004E+02 -0.78522E+04
 0.52203003E+02 -0.87201E+04
 0.52253002E+02 -0.96539E+04
 0.52303001E+02 -0.10201E+05
 0.52353004E+02 -0.11473E+05
 0.52403004E+02 -0.14713E+05
 0.52453003E+02 -0.17899E+05
 0.52503002E+02 -0.17475E+05
 0.52553001E+02 -0.15696E+05
 0.52603004E+02 -0.16450E+05
 0.52653004E+02 -0.15456E+05
 0.52703003E+02 -0.13395E+05
 0.52753002E+02 -0.10727E+05
 0.52803001E+02 -0.10369E+05
 0.52853004E+02 -0.91644E+04
 0.52903004E+02 -0.83603E+04
 0.52953003E+02 -0.89672E+04
 0.53003002E+02 -0.81904E+04
 0.53053001E+02 -0.10334E+05
 0.53103004E+02 -0.12517E+05
 0.53153004E+02 -0.12569E+05
 0.53203003E+02 -0.12983E+05
 0.53253002E+02 -0.14612E+05
 0.53303001E+02 -0.13601E+05
 0.53353004E+02 -0.14222E+05
 0.53403004E+02 -0.15249E+05
 0.53453003E+02 -0.14444E+05
 0.53503002E+02 -0.13275E+05
 0.53553001E+02 -0.11021E+05
 0.53603004E+02 -0.90885E+04
 0.53653004E+02 -0.86867E+04
 0.53703003E+02 -0.90420E+04
 0.53753002E+02 -0.86721E+04
 0.53803001E+02 -0.92365E+04
 0.53853004E+02 -0.86931E+04
 0.53903004E+02 -0.92059E+04
 0.53953003E+02 -0.10697E+05
 0.54003002E+02 -0.11756E+05
 0.54053001E+02 -0.11506E+05
 0.54103004E+02 -0.12235E+05
 0.54153004E+02 -0.12164E+05
 0.54203003E+02 -0.11562E+05
 0.54253002E+02 -0.12816E+05
 0.54303001E+02 -0.12952E+05
 0.54353004E+02 -0.14810E+05
 0.54403004E+02 -0.16274E+05
 0.54453003E+02 -0.16178E+05
 0.54503002E+02 -0.15666E+05
 0.54553001E+02 -0.15330E+05
 0.54603004E+02 -0.14777E+05
 0.54653004E+02 -0.13217E+05
 0.54703003E+02 -0.12531E+05
 0.54753002E+02 -0.12785E+05
 0.54803001E+02 -0.13075E+05
 0.54853004E+02 -0.12875E+05
 0.54903004E+02 -0.11722E+05
 0.54953003E+02 -0.10724E+05
 0.55003002E+02 -0.10574E+05
 0.55053001E+02 -0.10297E+05
 0.55103004E+02 -0.10269E+05
 0.55153004E+02 -0.98453E+04
 0.55203003E+02 -0.97607E+04
 0.55253002E+02 -0.11052E+05
 0.55303001E+02 -0.11020E+05
 0.55353004E+02 -0.10398E+05
 0.55403004E+02 -0.11034E+05
 0.55453003E+02 -0.11961E+05
 0.55503002E+02 -0.11588E+05
 0.55553001E+02 -0.10235E+05
 0.55603004E+02 -0.95459E+04
 0.55653004E+02 -0.86015E+04
 0.55703003E+02 -0.88228E+04
 0.55753002E+02 -0.96751E+04
 0.55803001E+02 -0.10371E+05
 0.55853001E+02 -0.12343E+05
 0.55903004E+02 -0.13653E+05
 0.55953003E+02 -0.15633E+05
 0.56003002E+02 -0.15815E+05
 0.56053001E+02 -0.15754E+05
 0.56103001E+02 -0.17398E+05
 0.56153004E+02 -0.17349E+05
 0.56203003E+02 -0.14813E+05
 0.56253002E+02 -0.13544E+05
 0.56303001E+02 -0.12810E+05
 0.56353001E+02 -0.12104E+05
 0.56403004E+02 -0.13112E+05
 0.56453003E+02 -0.13383E+05
 0.56503002E+02 -0.12718E+05
 0.56553001E+02 -0.12299E+05
 0.56603001E+02 -0.12551E+05
 0.56653004E+02 -0.12174E+05
 0.56703003E+02 -0.12276E+05
 0.56753002E+02 -0.12657E+05
 0.56803001E+02 -0.12019E+05
 0.56853001E+02 -0.93469E+04
 0.56903004E+02 -0.79517E+04
 0.56953003E+02 -0.81461E+04
 0.57003002E+02 -0.98645E+04
 0.57053001E+02 -0.11257E+05
 0.57103001E+02 -0.10767E+05
 0.57153004E+02 -0.11071E+05
 0.57203003E+02 -0.11258E+05
 0.57253002E+02 -0.11743E+05
 0.57303001E+02 -0.12230E+05
 0.57353001E+02 -0.12336E+05
 0.57403004E+02 -0.13091E+05
 0.57453003E+02 -0.12925E+05
 0.57503002E+02 -0.12059E+05
 0.57553001E+02 -0.11905E+05
 0.57603001E+02 -0.11998E+05
 0.57653004E+02 -0.13265E+05
 0.57703003E+02 -0.12830E+05
 0.57753002E+02 -0.12576E+05
 0.57803001E+02 -0.14126E+05
 0.57853001E+02 -0.14789E+05
 0.57903004E+02 -0.14679E+05
 0.57953003E+02 -0.14753E+05
 0.58003002E+02 -0.13633E+05
 0.58053001E+02 -0.11995E+05
 0.58103001E+02 -0.11331E+05
 0.58153004E+02 -0.10147E+05
 0.58203003E+02 -0.97329E+04
 0.58253002E+02 -0.93424E+04
 0.58303001E+02 -0.98651E+04
 0.58353001E+02 -0.10208E+05
 0.58403004E+02 -0.10698E+05
 0.58453003E+02 -0.10240E+05
 0.58503002E+02 -0.10080E+05
 0.58553001E+02 -0.11432E+05
 0.58603001E+02 -0.12289E+05
 0.58653004E+02 -0.13691E+05
 0.58703003E+02 -0.13743E+05
 0.58753002E+02 -0.13325E+05
 0.58803001E+02 -0.13366E+05
 0.58853001E+02 -0.13217E+05
 0.58903004E+02 -0.13578E+05
 0.58953003E+02 -0.14206E+05
 0.59003002E+02 -0.13224E+05
 0.59053001E+02 -0.12823E+05
 0.59103001E+02 -0.11957E+05
 0.59153004E+02 -0.11195E+05
 0.59203003E+02 -0.12260E+05
 0.59253002E+02 -0.13111E+05
 0.59303001E+02 -0.13534E+05
 0.59353001E+02 -0.14345E+05
 0.59403004E+02 -0.13898E+05
 0.59453003E+02 -0.12516E+05
 0.59503002E+02 -0.12110E+05
 0.59553001E+02 -0.10810E+05
 0.59603001E+02 -0.97454E+04
 0.59653004E+02 -0.87427E+04
 0.59703003E+02 -0.90734E+04
 0.59753002E+02 -0.99299E+04
 0.59803001E+02 -0.97410E+04
 0.59853001E+02 -0.98082E+04
 0.59903004E+02 -0.10986E+05
 0.59953003E+02 -0.12316E+05
 0.60003002E+02 -0.12108E+05
 0.60053001E+02 -0.12168E+05
 0.60103001E+02 -0.12134E+05
 0.60153004E+02 -0.12299E+05
 0.60203003E+02 -0.12672E+05
 0.60253002E+02 -0.12571E+05
 0.60303001E+02 -0.13229E+05
 0.60353001E+02 -0.13235E+05
 0.60403004E+02 -0.12670E+05
 0.60453003E+02 -0.12155E+05
 0.60503002E+02 -0.11790E+05
 0.60553001E+02 -0.12443E+05
 0.60603001E+02 -0.13581E+05
 0.60653004E+02 -0.13725E+05
 0.60703003E+02 -0.14413E+05
 0.60753002E+02 -0.15048E+05
 0.60803001E+02 -0.14521E+05
 0.60853001E+02 -0.14142E+05
 0.60903004E+02 -0.14237E+05
 0.60953003E+02 -0.13510E+05
 0.61003002E+02 -0.12423E+05
 0.61053001E+02 -0.12295E+05
 0.61103001E+02 -0.11537E+05
 0.61153004E+02 -0.10870E+05
 0.61203003E+02 -0.97035E+04
 0.61253002E+02 -0.86871E+04
 0.61303001E+02 -0.82893E+04
 0.61353001E+02 -0.85047E+04
 0.61403004E+02 -0.87890E+04
 0.61453003E+02 -0.93865E+04
 0.61503002E+02 -0.10346E+05
 0.61553001E+02 -0.10647E+05
 0.61603001E+02 -0.11391E+05
 0.61653004E+02 -0.13112E+05
 0.61703003E+02 -0.14561E+05
 0.61753002E+02 -0.14915E+05
 0.61803001E+02 -0.14868E+05
 0.61853001E+02 -0.14212E+05
 0.61903004E+02 -0.13438E+05
 0.61953003E+02 -0.13589E+05
 0.62003002E+02 -0.13590E+05
 0.62053001E+02 -0.12961E+05
 0.62103004E+02 -0.12087E+05
 0.62153000E+02 -0.10958E+05
 0.62203003E+02 -0.11564E+05
 0.62252998E+02 -0.11901E+05
 0.62303001E+02 -0.11816E+05
 0.62353004E+02 -0.12333E+05
 0.62403000E+02 -0.11436E+05
 0.62453003E+02 -0.10691E+05
 0.62502998E+02 -0.10296E+05
 0.62553001E+02 -0.10895E+05
 0.62603004E+02 -0.12197E+05
 0.62653000E+02 -0.11992E+05
 0.62703003E+02 -0.11736E+05
 0.62752998E+02 -0.11873E+05
 0.62803001E+02 -0.11741E+05
 0.62853004E+02 -0.11755E+05
 0.62903000E+02 -0.12021E+05
 0.62953003E+02 -0.11883E+05
 0.63002998E+02 -0.12201E+05
 0.63053001E+02 -0.13476E+05
 0.63103004E+02 -0.14113E+05
 0.63153000E+02 -0.13884E+05
 0.63203003E+02 -0.12911E+05
 0.63252998E+02 -0.11986E+05
 0.63303001E+02 -0.12739E+05
 0.63353004E+02 -0.13123E+05
 0.63403000E+02 -0.12886E+05
 0.63453003E+02 -0.12231E+05
 0.63502998E+02 -0.11444E+05
 0.63553001E+02 -0.10368E+05
 0.63603004E+02 -0.95343E+04
 0.63653000E+02 -0.10308E+05
 0.63703003E+02 -0.10385E+05
 0.63752998E+02 -0.10814E+05
 0.63803001E+02 -0.11629E+05
 0.63853004E+02 -0.11733E+05
 0.63903000E+02 -0.11151E+05
 0.63953003E+02 -0.11296E+05
 0.64002998E+02 -0.11986E+05
 0.64053001E+02 -0.12744E+05
 0.64103004E+02 -0.13198E+05
 0.64153000E+02 -0.13715E+05
 0.64203003E+02 -0.14882E+05
 0.64252998E+02 -0.14887E+05
 0.64303001E+02 -0.14674E+05
 0.64353004E+02 -0.14089E+05
 0.64403000E+02 -0.12972E+05
 0.64453003E+02 -0.11657E+05
 0.64502998E+02 -0.10721E+05
 0.64553001E+02 -0.10237E+05
 0.64603004E+02 -0.95375E+04
 0.64653000E+02 -0.98851E+04
 0.64703003E+02 -0.10182E+05
 0.64752998E+02 -0.10809E+05
 0.64803001E+02 -0.11369E+05
 0.64853004E+02 -0.12242E+05
 0.64903000E+02 -0.13327E+05
 0.64953003E+02 -0.13262E+05
 0.65002998E+02 -0.12519E+05
 0.65053001E+02 -0.11838E+05
 0.65103004E+02 -0.12095E+05
 0.65153000E+02 -0.12546E+05
 0.65203003E+02 -0.12700E+05
 0.65252998E+02 -0.13323E+05
 0.65303001E+02 -0.13524E+05
 0.65353004E+02 -0.12769E+05
 0.65403000E+02 -0.12756E+05
 0.65453003E+02 -0.12976E+05
 0.65502998E+02 -0.13671E+05
 0.65553001E+02 -0.14052E+05
 0.65603004E+02 -0.13475E+05
 0.65653000E+02 -0.12284E+05
 0.65703003E+02 -0.11142E+05
 0.65752998E+02 -0.10363E+05
 0.65803001E+02 -0.10255E+05
 0.65853004E+02 -0.10025E+05
 0.65903000E+02 -0.95245E+04
 0.65953003E+02 -0.10348E+05
 0.66002998E+02 -0.10287E+05
 0.66053001E+02 -0.95775E+04
 0.66103004E+02 -0.96358E+04
 0.66153000E+02 -0.97968E+04
 0.66203003E+02 -0.10388E+05
 0.66252998E+02 -0.11299E+05
 0.66303001E+02 -0.12352E+05
 0.66353004E+02 -0.12913E+05
 0.66403000E+02 -0.13963E+05
 0.66453003E+02 -0.14065E+05
 0.66502998E+02 -0.13556E+05
 0.66553001E+02 -0.13484E+05
 0.66603004E+02 -0.13328E+05
 0.66653000E+02 -0.14298E+05
 0.66703003E+02 -0.14460E+05
 0.66752998E+02 -0.14443E+05
 0.66803001E+02 -0.15095E+05
 0.66853004E+02 -0.14752E+05
 0.66903000E+02 -0.13777E+05
 0.66953003E+02 -0.13619E+05
 0.67002998E+02 -0.13231E+05
 0.67053001E+02 -0.12468E+05
 0.67103004E+02 -0.12018E+05
 0.67153000E+02 -0.12021E+05
 0.67203003E+02 -0.11793E+05
 0.67252998E+02 -0.11382E+05
 0.67303001E+02 -0.11674E+05
 0.67353004E+02 -0.11871E+05
 0.67403000E+02 -0.11805E+05
 0.67453003E+02 -0.11007E+05
 0.67502998E+02 -0.10326E+05
 0.67553001E+02 -0.99741E+04
 0.67603004E+02 -0.98406E+04
 0.67653000E+02 -0.10281E+05
 0.67703003E+02 -0.10485E+05
 0.67752998E+02 -0.10506E+05
 0.67803001E+02 -0.10515E+05
 0.67853004E+02 -0.10966E+05
 0.67903000E+02 -0.11745E+05
 0.67953003E+02 -0.12279E+05
 0.68002998E+02 -0.12788E+05
 0.68053001E+02 -0.12764E+05
 0.68103004E+02 -0.12729E+05
 0.68153000E+02 -0.12904E+05
 0.68203003E+02 -0.13176E+05
 0.68252998E+02 -0.13280E+05
 0.68303001E+02 -0.13644E+05
 0.68353004E+02 -0.13770E+05
 0.68403000E+02 -0.13673E+05
 0.68453003E+02 -0.13428E+05
 0.68502998E+02 -0.12769E+05
 0.68553001E+02 -0.11900E+05
 0.68603004E+02 -0.11846E+05
 0.68653000E+02 -0.12111E+05
 0.68703003E+02 -0.11851E+05
 0.68752998E+02 -0.12246E+05
 0.68803001E+02 -0.11714E+05
 0.68853004E+02 -0.11180E+05
 0.68903000E+02 -0.10806E+05
 0.68953003E+02 -0.10870E+05
 0.69002998E+02 -0.11040E+05
 0.69053001E+02 -0.10901E+05
 0.69103004E+02 -0.10689E+05
 0.69153000E+02 -0.10370E+05
 0.69203003E+02 -0.10064E+05
 0.69252998E+02 -0.10139E+05
 0.69303001E+02 -0.11144E+05
 0.69353004E+02 -0.11675E+05
 0.69403000E+02 -0.12439E+05
 0.69453003E+02 -0.13490E+05
 0.69502998E+02 -0.14389E+05
 0.69553001E+02 -0.14544E+05
 0.69603004E+02 -0.14172E+05
 0.69653000E+02 -0.13116E+05
 0.69703003E+02 -0.11996E+05
 0.69752998E+02 -0.11689E+05
 0.69803001E+02 -0.11264E+05
 0.69853004E+02 -0.11417E+05
 0.69903000E+02 -0.11991E+05
 0.69953003E+02 -0.12131E+05
 0.70002998E+02 -0.12170E+05
 0.70053001E+02 -0.12465E+05
 0.70103004E+02 -0.12362E+05
 0.70153000E+02 -0.12458E+05
 0.70203003E+02 -0.12551E+05
 0.70252998E+02 -0.12435E+05
 0.70303001E+02 -0.12531E+05
 0.70353004E+02 -0.12176E+05
 0.70403000E+02 -0.11769E+05
 0.70453003E+02 -0.11487E+05
 0.70502998E+02 -0.11132E+05
 0.70553001E+02 -0.10817E+05
 0.70603004E+02 -0.11000E+05
 0.70653000E+02 -0.11335E+05
 0.70703003E+02 -0.11550E+05
 0.70752998E+02 -0.11789E+05
 0.70803001E+02 -0.12283E+05
 0.70853004E+02 -0.12738E+05
 0.70903000E+02 -0.12972E+05
 0.70953003E+02 -0.13281E+05
 0.71002998E+02 -0.13029E+05
 0.71053001E+02 -0.12599E+05
 0.71103004E+02 -0.12351E+05
 0.71153000E+02 -0.12379E+05
 0.71203003E+02 -0.12009E+05
 0.71252998E+02 -0.11753E+05
 0.71303001E+02 -0.11839E+05
 0.71353004E+02 -0.11703E+05
 0.71403000E+02 -0.12052E+05
 0.71453003E+02 -0.12675E+05
 0.71502998E+02 -0.13200E+05
 0.71553001E+02 -0.13749E+05
 0.71603004E+02 -0.13884E+05
 0.71653000E+02 -0.13902E+05
 0.71703003E+02 -0.14106E+05
 0.71752998E+02 -0.14034E+05
 0.71803001E+02 -0.13746E+05
 0.71853004E+02 -0.13043E+05
 0.71903000E+02 -0.12234E+05
 0.71953003E+02 -0.11101E+05
 0.72002998E+02 -0.10660E+05
 0.72053001E+02 -0.10438E+05
 0.72103004E+02 -0.96743E+04
 0.72153000E+02 -0.96312E+04
 0.72203003E+02 -0.99271E+04
 0.72252998E+02 -0.10768E+05
 0.72303001E+02 -0.11343E+05
 0.72353004E+02 -0.11808E+05
 0.72403000E+02 -0.12273E+05
 0.72453003E+02 -0.12644E+05
 0.72502998E+02 -0.12832E+05
 0.72553001E+02 -0.12879E+05
 0.72603004E+02 -0.12566E+05
 0.72653000E+02 -0.11787E+05
 0.72703003E+02 -0.11641E+05
 0.72752998E+02 -0.11761E+05
 0.72803001E+02 -0.11654E+05
 0.72853004E+02 -0.11204E+05
 0.72903000E+02 -0.11058E+05
 0.72953003E+02 -0.11288E+05
 0.73002998E+02 -0.12007E+05
 0.73053001E+02 -0.12342E+05
 0.73103004E+02 -0.12445E+05
 0.73153000E+02 -0.12818E+05
 0.73203003E+02 -0.12455E+05
 0.73252998E+02 -0.12172E+05
 0.73303001E+02 -0.12431E+05
 0.73353004E+02 -0.12750E+05
 0.73403000E+02 -0.13136E+05
 0.73453003E+02 -0.13087E+05
 0.73502998E+02 -0.12806E+05
 0.73553001E+02 -0.12238E+05
 0.73603004E+02 -0.12234E+05
 0.73653000E+02 -0.12740E+05
 0.73703003E+02 -0.12450E+05
 0.73752998E+02 -0.12767E+05
 0.73803001E+02 -0.13062E+05
 0.73853004E+02 -0.12650E+05
 0.73903000E+02 -0.11901E+05
 0.73953003E+02 -0.11168E+05
 0.74002998E+02 -0.10480E+05
 0.74053001E+02 -0.10657E+05
 0.74103004E+02 -0.11426E+05
 0.74153000E+02 -0.10904E+05
 0.74203003E+02 -0.10580E+05
 0.74252998E+02 -0.10540E+05
 0.74303001E+02 -0.10339E+05
 0.74353004E+02 -0.10441E+05
 0.74403000E+02 -0.11144E+05
 0.74453003E+02 -0.12094E+05
 0.74502998E+02 -0.12840E+05
 0.74553001E+02 -0.13216E+05
 0.74603004E+02 -0.13458E+05
 0.74653000E+02 -0.13964E+05
 0.74703003E+02 -0.13840E+05
 0.74752998E+02 -0.12944E+05
 0.74803001E+02 -0.12172E+05
 0.74853004E+02 -0.11511E+05
 0.74903000E+02 -0.11159E+05
 0.74953003E+02 -0.11793E+05
 0.75002998E+02 -0.12232E+05
 0.75053001E+02 -0.12438E+05
 0.75103004E+02 -0.12681E+05
 0.75153000E+02 -0.12514E+05
 0.75203003E+02 -0.12620E+05
 0.75252998E+02 -0.12891E+05
 0.75303001E+02 -0.12913E+05
 0.75353004E+02 -0.12864E+05
 0.75403000E+02 -0.12986E+05
 0.75453003E+02 -0.13404E+05
 0.75502998E+02 -0.13467E+05
 0.75553001E+02 -0.13399E+05
 0.75603004E+02 -0.13428E+05
 0.75653000E+02 -0.13356E+05
 0.75703003E+02 -0.13065E+05
 0.75752998E+02 -0.12655E+05
 0.75803001E+02 -0.12121E+05
 0.75853004E+02 -0.11574E+05
 0.75903000E+02 -0.11424E+05
 0.75953003E+02 -0.11236E+05
 0.76002998E+02 -0.10870E+05
 0.76053001E+02 -0.10509E+05
 0.76103004E+02 -0.10126E+05
 0.76153000E+02 -0.98035E+04
 0.76203003E+02 -0.96004E+04
 0.76252998E+02 -0.92918E+04
 0.76303001E+02 -0.95304E+04
 0.76353004E+02 -0.10076E+05
 0.76403000E+02 -0.10329E+05
 0.76453003E+02 -0.10806E+05
 0.76502998E+02 -0.11480E+05
 0.76553001E+02 -0.11857E+05
 0.76603004E+02 -0.12371E+05
 0.76653000E+02 -0.12975E+05
 0.76703003E+02 -0.13197E+05
 0.76752998E+02 -0.13565E+05
 0.76803001E+02 -0.13606E+05
 0.76853004E+02 -0.12984E+05
 0.76903000E+02 -0.12523E+05
 0.76953003E+02 -0.12593E+05
 0.77002998E+02 -0.12853E+05
 0.77053001E+02 -0.12897E+05
 0.77103004E+02 -0.12901E+05
 0.77153000E+02 -0.13086E+05
 0.77203003E+02 -0.13184E+05
 0.77252998E+02 -0.13275E+05
 0.77303001E+02 -0.13487E+05
 0.77353004E+02 -0.13274E+05
 0.77403000E+02 -0.13055E+05
 0.77453003E+02 -0.12904E+05
 0.77502998E+02 -0.12496E+05
 0.77553001E+02 -0.12320E+05
 0.77603004E+02 -0.11981E+05
 0.77653000E+02 -0.11351E+05
 0.77703003E+02 -0.10656E+05
 0.77752998E+02 -0.10110E+05
 0.77803001E+02 -0.96787E+04
 0.77853004E+02 -0.93052E+04
 0.77903000E+02 -0.95695E+04
 0.77953003E+02 -0.10490E+05
 0.78002998E+02 -0.11238E+05
 0.78053001E+02 -0.11730E+05
 0.78103004E+02 -0.12237E+05
 0.78153000E+02 -0.12569E+05
 0.78203003E+02 -0.12906E+05
 0.78252998E+02 -0.13234E+05
 0.78303001E+02 -0.13535E+05
 0.78353004E+02 -0.13616E+05
 0.78403000E+02 -0.13679E+05
 0.78453003E+02 -0.13603E+05
 0.78502998E+02 -0.13368E+05
 0.78553001E+02 -0.12948E+05
 0.78603004E+02 -0.12324E+05
 0.78653000E+02 -0.12382E+05
 0.78703003E+02 -0.12529E+05
 0.78752998E+02 -0.12258E+05
 0.78803001E+02 -0.12319E+05
 0.78853004E+02 -0.12371E+05
 0.78903000E+02 -0.12590E+05
 0.78953003E+02 -0.13027E+05
 0.79002998E+02 -0.12890E+05
 0.79053001E+02 -0.12963E+05
 0.79103004E+02 -0.13106E+05
 0.79153000E+02 -0.12934E+05
 0.79203003E+02 -0.12813E+05
 0.79252998E+02 -0.12842E+05
 0.79303001E+02 -0.12512E+05
 0.79353004E+02 -0.11779E+05
 0.79403000E+02 -0.11016E+05
 0.79453003E+02 -0.10540E+05
 0.79502998E+02 -0.10782E+05
 0.79553001E+02 -0.10632E+05
 0.79603004E+02 -0.10624E+05
 0.79653000E+02 -0.10538E+05
 0.79703003E+02 -0.10374E+05
 0.79752998E+02 -0.10465E+05
 0.79803001E+02 -0.10650E+05
 0.79853004E+02 -0.10976E+05
 0.79903000E+02 -0.11202E+05
 0.79953003E+02 -0.11504E+05
 0.80002998E+02 -0.11816E+05
 0.80053001E+02 -0.12478E+05
 0.80103004E+02 -0.13064E+05
 0.80153000E+02 -0.13053E+05
 0.80203003E+02 -0.12804E+05
 0.80252998E+02 -0.13075E+05
 0.80303001E+02 -0.13441E+05
 0.80353004E+02 -0.13679E+05
 0.80403000E+02 -0.13699E+05
 0.80453003E+02 -0.13631E+05
 0.80502998E+02 -0.13399E+05
 0.80553001E+02 -0.12977E+05
 0.80603004E+02 -0.12399E+05
 0.80653000E+02 -0.12092E+05
 0.80703003E+02 -0.12185E+05
 0.80752998E+02 -0.12039E+05
 0.80803001E+02 -0.11751E+05
 0.80853004E+02 -0.11438E+05
 0.80903000E+02 -0.11412E+05
 0.80953003E+02 -0.11522E+05
 0.81002998E+02 -0.11521E+05
 0.81053001E+02 -0.11248E+05
 0.81103004E+02 -0.11001E+05
 0.81153000E+02 -0.10957E+05
 0.81203003E+02 -0.11057E+05
 0.81252998E+02 -0.11477E+05
 0.81303001E+02 -0.11667E+05
 0.81353004E+02 -0.11791E+05
 0.81403000E+02 -0.11984E+05
 0.81453003E+02 -0.11925E+05
 0.81502998E+02 -0.11672E+05
 0.81553001E+02 -0.11878E+05
 0.81603004E+02 -0.12186E+05
 0.81653000E+02 -0.12229E+05
 0.81703003E+02 -0.11953E+05
 0.81752998E+02 -0.11639E+05
 0.81803001E+02 -0.11364E+05
 0.81853004E+02 -0.10988E+05
 0.81903000E+02 -0.10941E+05
 0.81953003E+02 -0.11030E+05
 0.82002998E+02 -0.11040E+05
 0.82053001E+02 -0.11227E+05
 0.82103004E+02 -0.11737E+05
 0.82153000E+02 -0.12061E+05
 0.82203003E+02 -0.12510E+05
 0.82252998E+02 -0.12919E+05
 0.82303001E+02 -0.13573E+05
 0.82353004E+02 -0.14390E+05
 0.82403000E+02 -0.14997E+05
 0.82453003E+02 -0.15148E+05
 0.82502998E+02 -0.15072E+05
 0.82553001E+02 -0.14393E+05
 0.82603004E+02 -0.13536E+05
 0.82653000E+02 -0.12963E+05
 0.82703003E+02 -0.12503E+05
 0.82752998E+02 -0.12547E+05
 0.82803001E+02 -0.12392E+05
 0.82853004E+02 -0.12361E+05
 0.82903000E+02 -0.12390E+05
 0.82953003E+02 -0.12328E+05
 0.83002998E+02 -0.11941E+05
 0.83053001E+02 -0.11631E+05
 0.83103004E+02 -0.11420E+05
 0.83153000E+02 -0.11195E+05
 0.83203003E+02 -0.10935E+05
 0.83252998E+02 -0.10372E+05
 0.83303001E+02 -0.10218E+05
 0.83353004E+02 -0.10317E+05
 0.83403000E+02 -0.10248E+05
 0.83453003E+02 -0.10299E+05
 0.83502998E+02 -0.10634E+05
 0.83553001E+02 -0.11068E+05
 0.83603004E+02 -0.11760E+05
 0.83653000E+02 -0.12330E+05
 0.83703003E+02 -0.12409E+05
 0.83752998E+02 -0.12592E+05
 0.83803001E+02 -0.12832E+05
 0.83853004E+02 -0.12601E+05
 0.83903000E+02 -0.12819E+05
 0.83953003E+02 -0.13222E+05
 0.84002998E+02 -0.13054E+05
 0.84053001E+02 -0.12973E+05
 0.84103004E+02 -0.12668E+05
 0.84153000E+02 -0.12199E+05
 0.84203003E+02 -0.12037E+05
 0.84252998E+02 -0.12021E+05
 0.84303001E+02 -0.11652E+05
 0.84353004E+02 -0.11582E+05
 0.84403000E+02 -0.11739E+05
 0.84453003E+02 -0.11835E+05
 0.84502998E+02 -0.12346E+05
 0.84553001E+02 -0.12598E+05
 0.84603004E+02 -0.12976E+05
 0.84653000E+02 -0.13069E+05
 0.84703003E+02 -0.12687E+05
 0.84752998E+02 -0.12384E+05
 0.84803001E+02 -0.12414E+05
 0.84853004E+02 -0.12545E+05
 0.84903000E+02 -0.12500E+05
 0.84953003E+02 -0.12394E+05
 0.85002998E+02 -0.12225E+05
 0.85053001E+02 -0.12245E+05
 0.85103004E+02 -0.12056E+05
 0.85153000E+02 -0.11860E+05
 0.85203003E+02 -0.11476E+05
 0.85252998E+02 -0.11290E+05
 0.85303001E+02 -0.11451E+05
 0.85353004E+02 -0.11512E+05
 0.85403000E+02 -0.11423E+05
 0.85453003E+02 -0.11638E+05
 0.85502998E+02 -0.11805E+05
 0.85553001E+02 -0.11927E+05
 0.85603004E+02 -0.12291E+05
 0.85653000E+02 -0.12309E+05
 0.85703003E+02 -0.12065E+05
 0.85752998E+02 -0.11722E+05
 0.85803001E+02 -0.11294E+05
 0.85853004E+02 -0.11005E+05
 0.85903000E+02 -0.11168E+05
 0.85953003E+02 -0.11278E+05
 0.86002998E+02 -0.11637E+05
 0.86053001E+02 -0.12005E+05
 0.86103004E+02 -0.12148E+05
 0.86153000E+02 -0.12310E+05
 0.86203003E+02 -0.12266E+05
 0.86252998E+02 -0.12037E+05
 0.86303001E+02 -0.11865E+05
 0.86353004E+02 -0.11964E+05
 0.86403000E+02 -0.12360E+05
 0.86453003E+02 -0.12843E+05
 0.86502998E+02 -0.12824E+05
 0.86553001E+02 -0.12545E+05
 0.86603004E+02 -0.12571E+05
 0.86653000E+02 -0.12849E+05
 0.86703003E+02 -0.12738E+05
 0.86752998E+02 -0.12464E+05
 0.86803001E+02 -0.12550E+05
 0.86853004E+02 -0.12305E+05
 0.86903000E+02 -0.12066E+05
 0.86953003E+02 -0.12091E+05
 0.87002998E+02 -0.12056E+05
 0.87053001E+02 -0.12070E+05
 0.87103004E+02 -0.12291E+05
 0.87153000E+02 -0.12409E+05
 0.87203003E+02 -0.12279E+05
 0.87252998E+02 -0.12232E+05
 0.87303001E+02 -0.12016E+05
 0.87353004E+02 -0.11878E+05
 0.87403000E+02 -0.12066E+05
 0.87453003E+02 -0.12088E+05
 0.87502998E+02 -0.11890E+05
 0.87553001E+02 -0.11924E+05
 0.87602997E+02 -0.12110E+05
 0.87653000E+02 -0.12239E+05
 0.87703003E+02 -0.12400E+05
 0.87752998E+02 -0.12471E+05
 0.87803001E+02 -0.12638E+05
 0.87852997E+02 -0.12632E+05
 0.87903000E+02 -0.12386E+05
 0.87953003E+02 -0.12383E+05
 0.88002998E+02 -0.12297E+05
 0.88053001E+02 -0.12188E+05
 0.88102997E+02 -0.12154E+05
 0.88153000E+02 -0.11836E+05
 0.88203003E+02 -0.11567E+05
 0.88252998E+02 -0.11379E+05
 0.88303001E+02 -0.11321E+05
 0.88352997E+02 -0.11218E+05
 0.88403000E+02 -0.10981E+05
 0.88453003E+02 -0.11098E+05
 0.88502998E+02 -0.11304E+05
 0.88553001E+02 -0.11653E+05
 0.88602997E+02 -0.12182E+05
 0.88653000E+02 -0.12403E+05
 0.88703003E+02 -0.12330E+05
 0.88752998E+02 -0.12307E+05
 0.88803001E+02 -0.12020E+05
 0.88852997E+02 -0.12236E+05
 0.88903000E+02 -0.12737E+05
 0.88953003E+02 -0.12933E+05
 0.89002998E+02 -0.12769E+05
 0.89053001E+02 -0.12318E+05
 0.89102997E+02 -0.11881E+05
 0.89153000E+02 -0.11719E+05
 0.89203003E+02 -0.11707E+05
 0.89252998E+02 -0.11544E+05
 0.89303001E+02 -0.11444E+05
 0.89352997E+02 -0.11351E+05
 0.89403000E+02 -0.11265E+05
 0.89453003E+02 -0.11484E+05
 0.89502998E+02 -0.11916E+05
 0.89553001E+02 -0.12294E+05
 0.89602997E+02 -0.12760E+05
 0.89653000E+02 -0.13220E+05
 0.89703003E+02 -0.13709E+05
 0.89752998E+02 -0.13853E+05
 0.89803001E+02 -0.13692E+05
 0.89852997E+02 -0.13425E+05
 0.89903000E+02 -0.13360E+05
 0.89953003E+02 -0.13242E+05
 0.90002998E+02 -0.13095E+05
 0.90053001E+02 -0.13070E+05
 0.90102997E+02 -0.12878E+05
 0.90153000E+02 -0.12573E+05
 0.90203003E+02 -0.12396E+05
 0.90252998E+02 -0.12032E+05
 0.90303001E+02 -0.11418E+05
 0.90352997E+02 -0.10937E+05
 0.90403000E+02 -0.10533E+05
 0.90453003E+02 -0.10277E+05
 0.90502998E+02 -0.10377E+05
 0.90553001E+02 -0.10716E+05
 0.90602997E+02 -0.10793E+05
 0.90653000E+02 -0.10782E+05
 0.90703003E+02 -0.10901E+05
 0.90752998E+02 -0.11016E+05
 0.90803001E+02 -0.11402E+05
 0.90852997E+02 -0.11872E+05
 0.90903000E+02 -0.12180E+05
 0.90953003E+02 -0.12409E+05
 0.91002998E+02 -0.12526E+05
 0.91053001E+02 -0.12628E+05
 0.91102997E+02 -0.12731E+05
 0.91153000E+02 -0.12636E+05
 0.91203003E+02 -0.12444E+05
 0.91252998E+02 -0.12437E+05
 0.91303001E+02 -0.12593E+05
 0.91352997E+02 -0.12535E+05
 0.91403000E+02 -0.12004E+05
 0.91453003E+02 -0.11465E+05
 0.91502998E+02 -0.11199E+05
 0.91553001E+02 -0.11236E+05
 0.91602997E+02 -0.11426E+05
 0.91653000E+02 -0.11872E+05
 0.91703003E+02 -0.12183E+05
 0.91752998E+02 -0.12582E+05
 0.91803001E+02 -0.12956E+05
 0.91852997E+02 -0.13018E+05
 0.91903000E+02 -0.13032E+05
 0.91953003E+02 -0.12878E+05
 0.92002998E+02 -0.12766E+05
 0.92053001E+02 -0.12693E+05
 0.92102997E+02 -0.12849E+05
 0.92153000E+02 -0.12994E+05
 0.92203003E+02 -0.12930E+05
 0.92252998E+02 -0.12680E+05
 0.92303001E+02 -0.12658E+05
 0.92352997E+02 -0.12830E+05
 0.92403000E+02 -0.12994E+05
 0.92453003E+02 -0.12968E+05
 0.92502998E+02 -0.12647E+05
 0.92553001E+02 -0.12376E+05
 0.92602997E+02 -0.12214E+05
 0.92653000E+02 -0.12073E+05
 0.92703003E+02 -0.11824E+05
 0.92752998E+02 -0.11470E+05
 0.92803001E+02 -0.11184E+05
 0.92852997E+02 -0.10917E+05
 0.92903000E+02 -0.10435E+05
 0.92953003E+02 -0.10030E+05
 0.93002998E+02 -0.98173E+04
 0.93053001E+02 -0.98452E+04
 0.93102997E+02 -0.99643E+04
 0.93153000E+02 -0.10303E+05
 0.93203003E+02 -0.10766E+05
 0.93252998E+02 -0.11260E+05
 0.93303001E+02 -0.11687E+05
 0.93352997E+02 -0.11901E+05
 0.93403000E+02 -0.12074E+05
 0.93453003E+02 -0.12064E+05
 0.93502998E+02 -0.11971E+05
 0.93553001E+02 -0.12050E+05
 0.93602997E+02 -0.12442E+05
 0.93653000E+02 -0.12815E+05
 0.93703003E+02 -0.13182E+05
 0.93752998E+02 -0.13404E+05
 0.93803001E+02 -0.13414E+05
 0.93852997E+02 -0.13426E+05
 0.93903000E+02 -0.13567E+05
 0.93953003E+02 -0.13427E+05
 0.94002998E+02 -0.13133E+05
 0.94053001E+02 -0.13031E+05
 0.94102997E+02 -0.12771E+05
 0.94153000E+02 -0.12551E+05
 0.94203003E+02 -0.12605E+05
 0.94252998E+02 -0.12748E+05
 0.94303001E+02 -0.12734E+05
 0.94352997E+02 -0.12426E+05
 0.94403000E+02 -0.11939E+05
 0.94453003E+02 -0.11514E+05
 0.94502998E+02 -0.11239E+05
 0.94553001E+02 -0.11242E+05
 0.94602997E+02 -0.11458E+05
 0.94653000E+02 -0.11597E+05
 0.94703003E+02 -0.11499E+05
 0.94752998E+02 -0.11456E+05
 0.94803001E+02 -0.11413E+05
 0.94852997E+02 -0.11221E+05
 0.94903000E+02 -0.11293E+05
 0.94953003E+02 -0.11417E+05
 0.95002998E+02 -0.11529E+05
 0.95053001E+02 -0.11926E+05
 0.95102997E+02 -0.12512E+05
 0.95153000E+02 -0.13137E+05
 0.95203003E+02 -0.13620E+05
 0.95252998E+02 -0.13791E+05
 0.95303001E+02 -0.13665E+05
 0.95352997E+02 -0.13602E+05
 0.95403000E+02 -0.13556E+05
 0.95453003E+02 -0.13585E+05
 0.95502998E+02 -0.13593E+05
 0.95553001E+02 -0.13477E+05
 0.95602997E+02 -0.13050E+05
 0.95653000E+02 -0.12679E+05
 0.95703003E+02 -0.12534E+05
 0.95752998E+02 -0.12527E+05
 0.95803001E+02 -0.12467E+05
 0.95852997E+02 -0.12195E+05
 0.95903000E+02 -0.11945E+05
 0.95953003E+02 -0.11743E+05
 0.96002998E+02 -0.11610E+05
 0.96053001E+02 -0.11164E+05
 0.96102997E+02 -0.10608E+05
 0.96153000E+02 -0.10204E+05
 0.96203003E+02 -0.10200E+05
 0.96252998E+02 -0.10239E+05
 0.96303001E+02 -0.10121E+05
 0.96352997E+02 -0.10104E+05
 0.96403000E+02 -0.10207E+05
 0.96453003E+02 -0.10372E+05
 0.96502998E+02 -0.10628E+05
 0.96553001E+02 -0.10857E+05
 0.96602997E+02 -0.11060E+05
 0.96653000E+02 -0.11251E+05
 0.96703003E+02 -0.11549E+05
 0.96752998E+02 -0.11854E+05
 0.96803001E+02 -0.12308E+05
 0.96852997E+02 -0.12807E+05
 0.96903000E+02 -0.13002E+05
 0.96953003E+02 -0.13043E+05
 0.97002998E+02 -0.13238E+05
 0.97053001E+02 -0.13666E+05
 0.97102997E+02 -0.13862E+05
 0.97153000E+02 -0.13991E+05
 0.97203003E+02 -0.14010E+05
 0.97252998E+02 -0.13956E+05
 0.97303001E+02 -0.13844E+05
 0.97352997E+02 -0.13412E+05
 0.97403000E+02 -0.12860E+05
 0.97453003E+02 -0.12621E+05
 0.97502998E+02 -0.12510E+05
 0.97553001E+02 -0.12371E+05
 0.97602997E+02 -0.12267E+05
 0.97653000E+02 -0.12085E+05
 0.97703003E+02 -0.11704E+05
 0.97752998E+02 -0.11144E+05
 0.97803001E+02 -0.10940E+05
 0.97852997E+02 -0.10828E+05
 0.97903000E+02 -0.10791E+05
 0.97953003E+02 -0.10837E+05
 0.98002998E+02 -0.10846E+05
