-0.19969940E+01 -0.63881E+04
-0.19469941E+01 -0.63369E+04
-0.18969940E+01 -0.63518E+04
-0.18469940E+01 -0.63590E+04
-0.17969940E+01 -0.63425E+04
-0.17469940E+01 -0.63411E+04
-0.16969941E+01 -0.63351E+04
-0.16469941E+01 -0.63192E+04
-0.15969940E+01 -0.63117E+04
-0.15469940E+01 -0.63058E+04
-0.14969940E+01 -0.62959E+04
-0.14469941E+01 -0.63102E+04
-0.13969941E+01 -0.63042E+04
-0.13469940E+01 -0.63054E+04
-0.12969941E+01 -0.63299E+04
-0.12469940E+01 -0.63219E+04
-0.11969941E+01 -0.63179E+04
-0.11469941E+01 -0.63293E+04
-0.10969940E+01 -0.63143E+04
-0.10469941E+01 -0.63237E+04
-0.99699408E+00 -0.63265E+04
-0.94699407E+00 -0.63218E+04
-0.89699411E+00 -0.63278E+04
-0.84699404E+00 -0.63154E+04
-0.79699409E+00 -0.63258E+04
-0.74699414E+00 -0.63271E+04
-0.69699407E+00 -0.63183E+04
-0.64699411E+00 -0.63311E+04
-0.59699416E+00 -0.63359E+04
-0.54699409E+00 -0.63350E+04
-0.49699414E+00 -0.63566E+04
-0.44699407E+00 -0.63659E+04
-0.39699411E+00 -0.63629E+04
-0.34699416E+00 -0.63701E+04
-0.29699409E+00 -0.63668E+04
-0.24699414E+00 -0.63669E+04
-0.19699407E+00 -0.63728E+04
-0.14699411E+00 -0.63625E+04
-0.96994162E-01 -0.63665E+04
-0.46994090E-01 -0.63588E+04
 0.30058622E-02 -0.63486E+04
 0.53005934E-01 -0.63497E+04
 0.10300589E+00 -0.63437E+04
 0.15300584E+00 -0.63423E+04
 0.20300579E+00 -0.63261E+04
 0.25300574E+00 -0.63170E+04
 0.30300593E+00 -0.63323E+04
 0.35300589E+00 -0.63215E+04
 0.40300584E+00 -0.63286E+04
 0.45300579E+00 -0.63275E+04
 0.50300574E+00 -0.63146E+04
 0.55300593E+00 -0.63115E+04
 0.60300589E+00 -0.62976E+04
 0.65300584E+00 -0.63025E+04
 0.70300579E+00 -0.63176E+04
 0.75300574E+00 -0.63098E+04
 0.80300570E+00 -0.63211E+04
 0.85300589E+00 -0.63230E+04
 0.90300584E+00 -0.63229E+04
 0.95300579E+00 -0.63443E+04
 0.10030057E+01 -0.63391E+04
 0.10530057E+01 -0.63553E+04
 0.11030059E+01 -0.63507E+04
 0.11530058E+01 -0.63496E+04
 0.12030058E+01 -0.63459E+04
 0.12530057E+01 -0.63512E+04
 0.13030057E+01 -0.63376E+04
 0.13530059E+01 -0.63316E+04
 0.14030058E+01 -0.63272E+04
 0.14530058E+01 -0.63369E+04
 0.15030057E+01 -0.63518E+04
 0.15530057E+01 -0.63431E+04
 0.16030059E+01 -0.63523E+04
 0.16530058E+01 -0.63472E+04
 0.17030058E+01 -0.63468E+04
 0.17530057E+01 -0.63471E+04
 0.18030057E+01 -0.63463E+04
 0.18530056E+01 -0.63392E+04
 0.19030058E+01 -0.63377E+04
 0.19530058E+01 -0.63223E+04
 0.20030057E+01 -0.63171E+04
 0.20530057E+01 -0.63017E+04
 0.21030059E+01 -0.62987E+04
 0.21530056E+01 -0.62833E+04
 0.22030058E+01 -0.62796E+04
 0.22530055E+01 -0.62941E+04
 0.23030057E+01 -0.62815E+04
 0.23530059E+01 -0.62910E+04
 0.24030056E+01 -0.62913E+04
 0.24530058E+01 -0.62900E+04
 0.25030055E+01 -0.62926E+04
 0.25530057E+01 -0.63109E+04
 0.26030059E+01 -0.63096E+04
 0.26530056E+01 -0.63244E+04
 0.27030058E+01 -0.63331E+04
 0.27530055E+01 -0.63306E+04
 0.28030057E+01 -0.63312E+04
 0.28530059E+01 -0.63379E+04
 0.29030056E+01 -0.63445E+04
 0.29530058E+01 -0.63475E+04
 0.30030055E+01 -0.63527E+04
 0.30530057E+01 -0.63604E+04
 0.31030059E+01 -0.63610E+04
 0.31530056E+01 -0.63489E+04
 0.32030058E+01 -0.63708E+04
 0.32530055E+01 -0.63616E+04
 0.33030057E+01 -0.63705E+04
 0.33530059E+01 -0.63557E+04
 0.34030056E+01 -0.63536E+04
 0.34530058E+01 -0.63478E+04
 0.35030055E+01 -0.63392E+04
 0.35530057E+01 -0.63395E+04
 0.36030054E+01 -0.63309E+04
 0.36530056E+01 -0.63288E+04
 0.37030058E+01 -0.63140E+04
 0.37530055E+01 -0.63127E+04
 0.38030057E+01 -0.63036E+04
 0.38530054E+01 -0.63089E+04
 0.39030056E+01 -0.63032E+04
 0.39530058E+01 -0.63029E+04
 0.40030055E+01 -0.63009E+04
 0.40530057E+01 -0.63117E+04
 0.41030054E+01 -0.63093E+04
 0.41530056E+01 -0.63213E+04
 0.42030058E+01 -0.63274E+04
 0.42530055E+01 -0.63273E+04
 0.43030057E+01 -0.63340E+04
 0.43530054E+01 -0.63378E+04
 0.44030056E+01 -0.63500E+04
 0.44530058E+01 -0.63574E+04
 0.45030055E+01 -0.63600E+04
 0.45530057E+01 -0.63495E+04
 0.46030054E+01 -0.63522E+04
 0.46530056E+01 -0.63396E+04
 0.47030058E+01 -0.63554E+04
 0.47530055E+01 -0.63489E+04
 0.48030057E+01 -0.63445E+04
 0.48530054E+01 -0.63493E+04
 0.49030056E+01 -0.63404E+04
 0.49530058E+01 -0.63514E+04
 0.50030055E+01 -0.63438E+04
 0.50530057E+01 -0.63467E+04
 0.51030054E+01 -0.63432E+04
 0.51530056E+01 -0.63265E+04
 0.52030058E+01 -0.63327E+04
 0.52530055E+01 -0.63282E+04
 0.53030057E+01 -0.63220E+04
 0.53530054E+01 -0.63324E+04
 0.54030056E+01 -0.63098E+04
 0.54530053E+01 -0.63078E+04
 0.55030055E+01 -0.63079E+04
 0.55530057E+01 -0.63078E+04
 0.56030054E+01 -0.63175E+04
 0.56530056E+01 -0.63139E+04
 0.57030053E+01 -0.63186E+04
 0.57530055E+01 -0.63304E+04
 0.58030057E+01 -0.63206E+04
 0.58530054E+01 -0.63229E+04
 0.59030056E+01 -0.63322E+04
 0.59530053E+01 -0.63227E+04
 0.60030055E+01 -0.63328E+04
 0.60530052E+01 -0.63199E+04
 0.61030054E+01 -0.63321E+04
 0.61530056E+01 -0.63358E+04
 0.62030058E+01 -0.63400E+04
 0.62530050E+01 -0.63469E+04
 0.63030052E+01 -0.63345E+04
 0.63530054E+01 -0.63462E+04
 0.64030056E+01 -0.63472E+04
 0.64530058E+01 -0.63380E+04
 0.65030050E+01 -0.63408E+04
 0.65530052E+01 -0.63387E+04
 0.66030054E+01 -0.63339E+04
 0.66530056E+01 -0.63365E+04
 0.67030058E+01 -0.63305E+04
 0.67530050E+01 -0.63423E+04
 0.68030052E+01 -0.63250E+04
 0.68530054E+01 -0.63333E+04
 0.69030056E+01 -0.63329E+04
 0.69530058E+01 -0.63281E+04
 0.70030050E+01 -0.63265E+04
 0.70530052E+01 -0.63173E+04
 0.71030054E+01 -0.63204E+04
 0.71530056E+01 -0.63111E+04
 0.72030058E+01 -0.63068E+04
 0.72530050E+01 -0.63163E+04
 0.73030052E+01 -0.63238E+04
 0.73530054E+01 -0.63028E+04
 0.74030056E+01 -0.63230E+04
 0.74530058E+01 -0.63186E+04
 0.75030050E+01 -0.63256E+04
 0.75530052E+01 -0.63303E+04
 0.76030054E+01 -0.63330E+04
 0.76530056E+01 -0.63307E+04
 0.77030058E+01 -0.63296E+04
 0.77530050E+01 -0.63273E+04
 0.78030052E+01 -0.63240E+04
 0.78530054E+01 -0.63212E+04
 0.79030056E+01 -0.63121E+04
 0.79530058E+01 -0.63247E+04
 0.80030050E+01 -0.63085E+04
 0.80530052E+01 -0.63047E+04
 0.81030054E+01 -0.63062E+04
 0.81530056E+01 -0.63079E+04
 0.82030058E+01 -0.63056E+04
 0.82530050E+01 -0.63068E+04
 0.83030052E+01 -0.62930E+04
 0.83530054E+01 -0.63122E+04
 0.84030056E+01 -0.63024E+04
 0.84530058E+01 -0.63082E+04
 0.85030050E+01 -0.63172E+04
 0.85530052E+01 -0.63107E+04
 0.86030054E+01 -0.63236E+04
 0.86530056E+01 -0.63325E+04
 0.87030058E+01 -0.63478E+04
 0.87530050E+01 -0.63573E+04
 0.88030052E+01 -0.63601E+04
 0.88530054E+01 -0.63599E+04
 0.89030056E+01 -0.63711E+04
 0.89530058E+01 -0.63729E+04
 0.90030050E+01 -0.63820E+04
 0.90530052E+01 -0.63720E+04
 0.91030054E+01 -0.63808E+04
 0.91530056E+01 -0.63887E+04
 0.92030048E+01 -0.63762E+04
 0.92530050E+01 -0.63829E+04
 0.93030052E+01 -0.63748E+04
 0.93530054E+01 -0.63545E+04
 0.94030056E+01 -0.63678E+04
 0.94530048E+01 -0.63636E+04
 0.95030050E+01 -0.63666E+04
 0.95530052E+01 -0.63494E+04
 0.96030054E+01 -0.63474E+04
 0.96530056E+01 -0.63527E+04
 0.97030048E+01 -0.63489E+04
 0.97530050E+01 -0.63562E+04
 0.98030052E+01 -0.63430E+04
 0.98530054E+01 -0.63493E+04
 0.99030056E+01 -0.63538E+04
 0.99530048E+01 -0.63420E+04
 0.10003005E+02 -0.63645E+04
 0.10053005E+02 -0.63593E+04
 0.10103005E+02 -0.63557E+04
 0.10153006E+02 -0.63646E+04
 0.10203005E+02 -0.63502E+04
 0.10253005E+02 -0.63514E+04
 0.10303005E+02 -0.63391E+04
 0.10353005E+02 -0.63353E+04
 0.10403006E+02 -0.63334E+04
 0.10453005E+02 -0.63212E+04
 0.10503005E+02 -0.63279E+04
 0.10553005E+02 -0.63238E+04
 0.10603005E+02 -0.63063E+04
 0.10653006E+02 -0.63134E+04
 0.10703005E+02 -0.63129E+04
 0.10753005E+02 -0.63078E+04
 0.10803005E+02 -0.63042E+04
 0.10853005E+02 -0.62936E+04
 0.10903006E+02 -0.62880E+04
 0.10953005E+02 -0.62899E+04
 0.11003005E+02 -0.62851E+04
 0.11053005E+02 -0.62986E+04
 0.11103005E+02 -0.62882E+04
 0.11153006E+02 -0.62925E+04
 0.11203005E+02 -0.62904E+04
 0.11253005E+02 -0.62936E+04
 0.11303005E+02 -0.62900E+04
 0.11353005E+02 -0.62921E+04
 0.11403006E+02 -0.63015E+04
 0.11453005E+02 -0.62998E+04
 0.11503005E+02 -0.62918E+04
 0.11553005E+02 -0.62928E+04
 0.11603005E+02 -0.63037E+04
 0.11653006E+02 -0.62856E+04
 0.11703005E+02 -0.62893E+04
 0.11753005E+02 -0.62850E+04
 0.11803005E+02 -0.62900E+04
 0.11853005E+02 -0.62861E+04
 0.11903006E+02 -0.63051E+04
 0.11953005E+02 -0.63022E+04
 0.12003005E+02 -0.63160E+04
 0.12053005E+02 -0.63244E+04
 0.12103005E+02 -0.63193E+04
 0.12153006E+02 -0.63316E+04
 0.12203005E+02 -0.63227E+04
 0.12253005E+02 -0.63324E+04
 0.12303005E+02 -0.63288E+04
 0.12353005E+02 -0.63385E+04
 0.12403006E+02 -0.63412E+04
 0.12453005E+02 -0.63477E+04
 0.12503005E+02 -0.63485E+04
 0.12553005E+02 -0.63550E+04
 0.12603005E+02 -0.63659E+04
 0.12653005E+02 -0.63551E+04
 0.12703005E+02 -0.63562E+04
 0.12753005E+02 -0.63557E+04
 0.12803005E+02 -0.63562E+04
 0.12853005E+02 -0.63623E+04
 0.12903005E+02 -0.63604E+04
 0.12953005E+02 -0.63571E+04
 0.13003005E+02 -0.63560E+04
 0.13053005E+02 -0.63504E+04
 0.13103005E+02 -0.63467E+04
 0.13153005E+02 -0.63459E+04
 0.13203005E+02 -0.63367E+04
 0.13253005E+02 -0.63404E+04
 0.13303005E+02 -0.63367E+04
 0.13353005E+02 -0.63472E+04
 0.13403005E+02 -0.63526E+04
 0.13453005E+02 -0.63515E+04
 0.13503005E+02 -0.63466E+04
 0.13553005E+02 -0.63487E+04
 0.13603005E+02 -0.63488E+04
 0.13653005E+02 -0.63396E+04
 0.13703005E+02 -0.63504E+04
 0.13753005E+02 -0.63423E+04
 0.13803005E+02 -0.63460E+04
 0.13853005E+02 -0.63436E+04
 0.13903005E+02 -0.63363E+04
 0.13953005E+02 -0.63333E+04
 0.14003005E+02 -0.63212E+04
 0.14053005E+02 -0.63163E+04
 0.14103004E+02 -0.63148E+04
 0.14153006E+02 -0.63030E+04
 0.14203005E+02 -0.63057E+04
 0.14253004E+02 -0.63066E+04
 0.14303005E+02 -0.62900E+04
 0.14353004E+02 -0.63079E+04
 0.14403006E+02 -0.63042E+04
 0.14453005E+02 -0.63070E+04
 0.14503004E+02 -0.63136E+04
 0.14553005E+02 -0.63088E+04
 0.14603004E+02 -0.63186E+04
 0.14653006E+02 -0.63146E+04
 0.14703005E+02 -0.63152E+04
 0.14753004E+02 -0.63139E+04
 0.14803005E+02 -0.63173E+04
 0.14853004E+02 -0.63157E+04
 0.14903006E+02 -0.63309E+04
 0.14953005E+02 -0.63243E+04
 0.15003004E+02 -0.63248E+04
 0.15053005E+02 -0.63305E+04
 0.15103004E+02 -0.63291E+04
 0.15153006E+02 -0.63363E+04
 0.15203005E+02 -0.63310E+04
 0.15253004E+02 -0.63322E+04
 0.15303005E+02 -0.63292E+04
 0.15353004E+02 -0.63188E+04
 0.15403006E+02 -0.63216E+04
 0.15453005E+02 -0.63271E+04
 0.15503004E+02 -0.63246E+04
 0.15553005E+02 -0.63283E+04
 0.15603004E+02 -0.63285E+04
 0.15653006E+02 -0.63274E+04
 0.15703005E+02 -0.63410E+04
 0.15753004E+02 -0.63308E+04
 0.15803005E+02 -0.63343E+04
 0.15853004E+02 -0.63401E+04
 0.15903006E+02 -0.63444E+04
 0.15953005E+02 -0.63451E+04
 0.16003004E+02 -0.63492E+04
 0.16053005E+02 -0.63471E+04
 0.16103004E+02 -0.63437E+04
 0.16153006E+02 -0.63540E+04
 0.16203005E+02 -0.63473E+04
 0.16253004E+02 -0.63546E+04
 0.16303005E+02 -0.63423E+04
 0.16353004E+02 -0.63482E+04
 0.16403006E+02 -0.63400E+04
 0.16453005E+02 -0.63371E+04
 0.16503004E+02 -0.63402E+04
 0.16553005E+02 -0.63431E+04
 0.16603004E+02 -0.63445E+04
 0.16653006E+02 -0.63432E+04
 0.16703005E+02 -0.63271E+04
 0.16753004E+02 -0.63359E+04
 0.16803005E+02 -0.63358E+04
 0.16853004E+02 -0.63283E+04
 0.16903006E+02 -0.63428E+04
 0.16953005E+02 -0.63345E+04
 0.17003004E+02 -0.63458E+04
 0.17053005E+02 -0.63474E+04
 0.17103004E+02 -0.63521E+04
 0.17153006E+02 -0.63466E+04
 0.17203005E+02 -0.63458E+04
 0.17253004E+02 -0.63368E+04
 0.17303005E+02 -0.63308E+04
 0.17353004E+02 -0.63350E+04
 0.17403006E+02 -0.63222E+04
 0.17453005E+02 -0.63256E+04
 0.17503004E+02 -0.63192E+04
 0.17553005E+02 -0.63130E+04
 0.17603004E+02 -0.63147E+04
 0.17653006E+02 -0.63082E+04
 0.17703005E+02 -0.63053E+04
 0.17753004E+02 -0.63063E+04
 0.17803005E+02 -0.63025E+04
 0.17853004E+02 -0.63085E+04
 0.17903006E+02 -0.63013E+04
 0.17953005E+02 -0.62933E+04
 0.18003004E+02 -0.63158E+04
 0.18053005E+02 -0.63161E+04
 0.18103004E+02 -0.63111E+04
 0.18153006E+02 -0.63295E+04
 0.18203005E+02 -0.63259E+04
 0.18253004E+02 -0.63357E+04
 0.18303005E+02 -0.63308E+04
 0.18353004E+02 -0.63284E+04
 0.18403006E+02 -0.63406E+04
 0.18453005E+02 -0.63330E+04
 0.18503004E+02 -0.63402E+04
 0.18553005E+02 -0.63311E+04
 0.18603004E+02 -0.63309E+04
 0.18653006E+02 -0.63297E+04
 0.18703005E+02 -0.63343E+04
 0.18753004E+02 -0.63313E+04
 0.18803005E+02 -0.63396E+04
 0.18853004E+02 -0.63312E+04
 0.18903006E+02 -0.63270E+04
 0.18953005E+02 -0.63335E+04
 0.19003004E+02 -0.63193E+04
 0.19053005E+02 -0.63144E+04
 0.19103004E+02 -0.63141E+04
 0.19153006E+02 -0.63150E+04
 0.19203005E+02 -0.63175E+04
 0.19253004E+02 -0.63249E+04
 0.19303005E+02 -0.63201E+04
 0.19353004E+02 -0.63213E+04
 0.19403006E+02 -0.63292E+04
 0.19453005E+02 -0.63188E+04
 0.19503004E+02 -0.63043E+04
 0.19553005E+02 -0.63350E+04
 0.19603004E+02 -0.63340E+04
 0.19653006E+02 -0.63277E+04
 0.19703005E+02 -0.63403E+04
 0.19753004E+02 -0.63319E+04
 0.19803005E+02 -0.63371E+04
 0.19853004E+02 -0.63491E+04
 0.19903006E+02 -0.63426E+04
 0.19953005E+02 -0.63490E+04
 0.20003004E+02 -0.63537E+04
 0.20053005E+02 -0.63472E+04
 0.20103004E+02 -0.63500E+04
 0.20153006E+02 -0.63388E+04
 0.20203005E+02 -0.63405E+04
 0.20253004E+02 -0.63333E+04
 0.20303005E+02 -0.63254E+04
 0.20353004E+02 -0.63366E+04
 0.20403004E+02 -0.63305E+04
 0.20453005E+02 -0.63226E+04
 0.20503004E+02 -0.63322E+04
 0.20553005E+02 -0.63294E+04
 0.20603004E+02 -0.63297E+04
 0.20653004E+02 -0.63285E+04
 0.20703005E+02 -0.63278E+04
 0.20753004E+02 -0.63313E+04
 0.20803005E+02 -0.63329E+04
 0.20853004E+02 -0.63306E+04
 0.20903004E+02 -0.63293E+04
 0.20953005E+02 -0.63391E+04
 0.21003004E+02 -0.63340E+04
 0.21053005E+02 -0.63364E+04
 0.21103004E+02 -0.63414E+04
 0.21153004E+02 -0.63437E+04
 0.21203005E+02 -0.63398E+04
 0.21253004E+02 -0.63348E+04
 0.21303005E+02 -0.63412E+04
 0.21353004E+02 -0.63369E+04
 0.21403004E+02 -0.63420E+04
 0.21453005E+02 -0.63390E+04
 0.21503004E+02 -0.63322E+04
 0.21553005E+02 -0.63378E+04
 0.21603004E+02 -0.63368E+04
 0.21653004E+02 -0.63298E+04
 0.21703005E+02 -0.63189E+04
 0.21753004E+02 -0.63152E+04
 0.21803005E+02 -0.63210E+04
 0.21853004E+02 -0.63140E+04
 0.21903004E+02 -0.63198E+04
 0.21953005E+02 -0.63161E+04
 0.22003004E+02 -0.63365E+04
 0.22053005E+02 -0.63285E+04
 0.22103004E+02 -0.63226E+04
 0.22153004E+02 -0.63360E+04
 0.22203005E+02 -0.63298E+04
 0.22253004E+02 -0.63376E+04
 0.22303005E+02 -0.63360E+04
 0.22353004E+02 -0.63344E+04
 0.22403004E+02 -0.63323E+04
 0.22453005E+02 -0.63413E+04
 0.22503004E+02 -0.63292E+04
 0.22553005E+02 -0.63388E+04
 0.22603004E+02 -0.63339E+04
 0.22653004E+02 -0.63311E+04
 0.22703005E+02 -0.63254E+04
 0.22753004E+02 -0.63259E+04
 0.22803005E+02 -0.63257E+04
 0.22853004E+02 -0.63251E+04
 0.22903004E+02 -0.63170E+04
 0.22953005E+02 -0.63163E+04
 0.23003004E+02 -0.63208E+04
 0.23053005E+02 -0.63164E+04
 0.23103004E+02 -0.63160E+04
 0.23153004E+02 -0.63125E+04
 0.23203005E+02 -0.63080E+04
 0.23253004E+02 -0.63102E+04
 0.23303005E+02 -0.63087E+04
 0.23353004E+02 -0.62933E+04
 0.23403004E+02 -0.63031E+04
 0.23453005E+02 -0.63004E+04
 0.23503004E+02 -0.63067E+04
 0.23553005E+02 -0.63024E+04
 0.23603004E+02 -0.62838E+04
 0.23653004E+02 -0.63096E+04
 0.23703005E+02 -0.63171E+04
 0.23753004E+02 -0.63120E+04
 0.23803005E+02 -0.63197E+04
 0.23853004E+02 -0.63162E+04
 0.23903004E+02 -0.63167E+04
 0.23953005E+02 -0.63124E+04
 0.24003004E+02 -0.63073E+04
 0.24053005E+02 -0.63031E+04
 0.24103004E+02 -0.63083E+04
 0.24153004E+02 -0.63055E+04
 0.24203005E+02 -0.63073E+04
 0.24253004E+02 -0.63027E+04
 0.24303005E+02 -0.63082E+04
 0.24353004E+02 -0.63117E+04
 0.24403004E+02 -0.63258E+04
 0.24453005E+02 -0.63184E+04
 0.24503004E+02 -0.63175E+04
 0.24553005E+02 -0.63308E+04
 0.24603004E+02 -0.63393E+04
 0.24653004E+02 -0.63445E+04
 0.24703005E+02 -0.63570E+04
 0.24753004E+02 -0.63625E+04
 0.24803005E+02 -0.63706E+04
 0.24853004E+02 -0.63723E+04
 0.24903004E+02 -0.63819E+04
 0.24953005E+02 -0.63935E+04
 0.25003004E+02 -0.63818E+04
 0.25053005E+02 -0.63982E+04
 0.25103004E+02 -0.63800E+04
 0.25153004E+02 -0.63944E+04
 0.25203005E+02 -0.63842E+04
 0.25253004E+02 -0.63799E+04
 0.25303005E+02 -0.63877E+04
 0.25353004E+02 -0.63737E+04
 0.25403004E+02 -0.63641E+04
 0.25453005E+02 -0.63640E+04
 0.25503004E+02 -0.63531E+04
 0.25553005E+02 -0.63393E+04
 0.25603004E+02 -0.63402E+04
 0.25653004E+02 -0.63321E+04
 0.25703005E+02 -0.63488E+04
 0.25753004E+02 -0.63314E+04
 0.25803005E+02 -0.63326E+04
 0.25853004E+02 -0.63331E+04
 0.25903004E+02 -0.63188E+04
 0.25953005E+02 -0.63153E+04
 0.26003004E+02 -0.63053E+04
 0.26053005E+02 -0.63190E+04
 0.26103004E+02 -0.63054E+04
 0.26153004E+02 -0.63006E+04
 0.26203005E+02 -0.62979E+04
 0.26253004E+02 -0.62980E+04
 0.26303005E+02 -0.62896E+04
 0.26353004E+02 -0.62895E+04
 0.26403004E+02 -0.62875E+04
 0.26453005E+02 -0.62911E+04
 0.26503004E+02 -0.62958E+04
 0.26553005E+02 -0.62816E+04
 0.26603004E+02 -0.62931E+04
 0.26653004E+02 -0.62962E+04
 0.26703005E+02 -0.63142E+04
 0.26753004E+02 -0.63113E+04
 0.26803005E+02 -0.63121E+04
 0.26853004E+02 -0.63260E+04
 0.26903004E+02 -0.63263E+04
 0.26953005E+02 -0.63241E+04
 0.27003004E+02 -0.63261E+04
 0.27053003E+02 -0.63252E+04
 0.27103004E+02 -0.63234E+04
 0.27153004E+02 -0.63303E+04
 0.27203005E+02 -0.63319E+04
 0.27253004E+02 -0.63391E+04
 0.27303003E+02 -0.63246E+04
 0.27353004E+02 -0.63331E+04
 0.27403004E+02 -0.63342E+04
 0.27453005E+02 -0.63269E+04
 0.27503004E+02 -0.63302E+04
 0.27553003E+02 -0.63088E+04
 0.27603004E+02 -0.63243E+04
 0.27653004E+02 -0.63132E+04
 0.27703005E+02 -0.63164E+04
 0.27753004E+02 -0.63246E+04
 0.27803003E+02 -0.63129E+04
 0.27853004E+02 -0.63312E+04
 0.27903004E+02 -0.63139E+04
 0.27953005E+02 -0.63207E+04
 0.28003004E+02 -0.63456E+04
 0.28053003E+02 -0.63323E+04
 0.28103004E+02 -0.63501E+04
 0.28153004E+02 -0.63530E+04
 0.28203005E+02 -0.63454E+04
 0.28253004E+02 -0.63558E+04
 0.28303003E+02 -0.63534E+04
 0.28353004E+02 -0.63532E+04
 0.28403004E+02 -0.63744E+04
 0.28453005E+02 -0.63537E+04
 0.28503004E+02 -0.63716E+04
 0.28553003E+02 -0.63682E+04
 0.28603004E+02 -0.63439E+04
 0.28653004E+02 -0.63691E+04
 0.28703005E+02 -0.63401E+04
 0.28753004E+02 -0.63399E+04
 0.28803003E+02 -0.63459E+04
 0.28853004E+02 -0.63270E+04
 0.28903004E+02 -0.63395E+04
 0.28953005E+02 -0.63398E+04
 0.29003004E+02 -0.63100E+04
 0.29053003E+02 -0.63459E+04
 0.29103004E+02 -0.63012E+04
 0.29153004E+02 -0.63174E+04
 0.29203005E+02 -0.63160E+04
 0.29253004E+02 -0.62900E+04
 0.29303003E+02 -0.63222E+04
 0.29353004E+02 -0.62866E+04
 0.29403004E+02 -0.62901E+04
 0.29453005E+02 -0.62996E+04
 0.29503004E+02 -0.62784E+04
 0.29553003E+02 -0.62960E+04
 0.29603004E+02 -0.63186E+04
 0.29653004E+02 -0.62842E+04
 0.29703005E+02 -0.63234E+04
 0.29753004E+02 -0.62996E+04
 0.29803003E+02 -0.63103E+04
 0.29853004E+02 -0.63319E+04
 0.29903004E+02 -0.62955E+04
 0.29953005E+02 -0.63240E+04
 0.30003004E+02 -0.63252E+04
 0.30053005E+02 -0.63215E+04
 0.30103004E+02 -0.63327E+04
 0.30153004E+02 -0.63272E+04
 0.30203003E+02 -0.63397E+04
 0.30253002E+02 -0.63522E+04
 0.30303005E+02 -0.63312E+04
 0.30353004E+02 -0.63663E+04
 0.30403004E+02 -0.63732E+04
 0.30453003E+02 -0.63560E+04
 0.30503002E+02 -0.63915E+04
 0.30553005E+02 -0.63486E+04
 0.30603004E+02 -0.63742E+04
 0.30653004E+02 -0.63764E+04
 0.30703003E+02 -0.63565E+04
 0.30753002E+02 -0.63797E+04
 0.30803005E+02 -0.63661E+04
 0.30853004E+02 -0.63572E+04
 0.30903004E+02 -0.63806E+04
 0.30953003E+02 -0.63534E+04
 0.31003002E+02 -0.63638E+04
 0.31053005E+02 -0.63604E+04
 0.31103004E+02 -0.63324E+04
 0.31153004E+02 -0.63649E+04
 0.31203003E+02 -0.63385E+04
 0.31253002E+02 -0.63416E+04
 0.31303005E+02 -0.63420E+04
 0.31353004E+02 -0.63306E+04
 0.31403004E+02 -0.63155E+04
 0.31453003E+02 -0.63316E+04
 0.31503002E+02 -0.63116E+04
 0.31553005E+02 -0.63114E+04
 0.31603004E+02 -0.62952E+04
 0.31653004E+02 -0.62886E+04
 0.31703003E+02 -0.63018E+04
 0.31753002E+02 -0.62812E+04
 0.31803005E+02 -0.63064E+04
 0.31853004E+02 -0.62893E+04
 0.31903004E+02 -0.63070E+04
 0.31953003E+02 -0.63070E+04
 0.32003002E+02 -0.63160E+04
 0.32053005E+02 -0.63229E+04
 0.32103004E+02 -0.63248E+04
 0.32153004E+02 -0.63369E+04
 0.32203003E+02 -0.63122E+04
 0.32253002E+02 -0.63384E+04
 0.32303005E+02 -0.62999E+04
 0.32353004E+02 -0.63281E+04
 0.32403004E+02 -0.63163E+04
 0.32453003E+02 -0.63093E+04
 0.32503002E+02 -0.63214E+04
 0.32553005E+02 -0.63091E+04
 0.32603004E+02 -0.63156E+04
 0.32653004E+02 -0.63250E+04
 0.32703003E+02 -0.63080E+04
 0.32753002E+02 -0.63218E+04
 0.32803005E+02 -0.63223E+04
 0.32853004E+02 -0.63099E+04
 0.32903004E+02 -0.63359E+04
 0.32953003E+02 -0.63180E+04
 0.33003002E+02 -0.63452E+04
 0.33053005E+02 -0.63364E+04
 0.33103004E+02 -0.63351E+04
 0.33153004E+02 -0.63455E+04
 0.33203003E+02 -0.63482E+04
 0.33253002E+02 -0.63318E+04
 0.33303005E+02 -0.63505E+04
 0.33353004E+02 -0.63270E+04
 0.33403004E+02 -0.63407E+04
 0.33453003E+02 -0.63439E+04
 0.33503002E+02 -0.63310E+04
 0.33553005E+02 -0.63450E+04
 0.33603004E+02 -0.63288E+04
 0.33653004E+02 -0.63483E+04
 0.33703003E+02 -0.63422E+04
 0.33753002E+02 -0.63439E+04
 0.33803005E+02 -0.63417E+04
 0.33853004E+02 -0.63406E+04
 0.33903004E+02 -0.63259E+04
 0.33953003E+02 -0.63487E+04
 0.34003002E+02 -0.63319E+04
 0.34053005E+02 -0.63088E+04
 0.34103004E+02 -0.63224E+04
 0.34153004E+02 -0.63030E+04
 0.34203003E+02 -0.63234E+04
 0.34253002E+02 -0.62901E+04
 0.34303005E+02 -0.63033E+04
 0.34353004E+02 -0.63185E+04
 0.34403004E+02 -0.63092E+04
 0.34453003E+02 -0.63247E+04
 0.34503002E+02 -0.63194E+04
 0.34553005E+02 -0.63155E+04
 0.34603004E+02 -0.63268E+04
 0.34653004E+02 -0.63193E+04
 0.34703003E+02 -0.63189E+04
 0.34753002E+02 -0.63630E+04
 0.34803005E+02 -0.63393E+04
 0.34853004E+02 -0.63303E+04
 0.34903004E+02 -0.63570E+04
 0.34953003E+02 -0.63205E+04
 0.35003002E+02 -0.63297E+04
 0.35053005E+02 -0.63519E+04
 0.35103004E+02 -0.63159E+04
 0.35153004E+02 -0.63483E+04
 0.35203003E+02 -0.63276E+04
 0.35253002E+02 -0.63223E+04
 0.35303005E+02 -0.63378E+04
 0.35353004E+02 -0.63168E+04
 0.35403004E+02 -0.63142E+04
 0.35453003E+02 -0.63215E+04
 0.35503002E+02 -0.63220E+04
 0.35553005E+02 -0.63253E+04
 0.35603004E+02 -0.63303E+04
 0.35653004E+02 -0.63031E+04
 0.35703003E+02 -0.62965E+04
 0.35753002E+02 -0.63239E+04
 0.35803005E+02 -0.63341E+04
 0.35853004E+02 -0.62728E+04
 0.35903004E+02 -0.63475E+04
 0.35953003E+02 -0.63477E+04
 0.36003002E+02 -0.62870E+04
 0.36053005E+02 -0.63264E+04
 0.36103004E+02 -0.63190E+04
 0.36153004E+02 -0.63523E+04
 0.36203003E+02 -0.62932E+04
 0.36253002E+02 -0.63555E+04
 0.36303005E+02 -0.63951E+04
 0.36353004E+02 -0.63318E+04
 0.36403004E+02 -0.63193E+04
 0.36453003E+02 -0.63537E+04
 0.36503002E+02 -0.63808E+04
 0.36553005E+02 -0.63325E+04
 0.36603004E+02 -0.63913E+04
 0.36653004E+02 -0.63517E+04
 0.36703003E+02 -0.63329E+04
 0.36753002E+02 -0.63952E+04
 0.36803005E+02 -0.63190E+04
 0.36853004E+02 -0.63384E+04
 0.36903004E+02 -0.63980E+04
 0.36953003E+02 -0.63098E+04
 0.37003002E+02 -0.63146E+04
 0.37053005E+02 -0.64358E+04
 0.37103004E+02 -0.63159E+04
 0.37153004E+02 -0.62786E+04
 0.37203003E+02 -0.63976E+04
 0.37253002E+02 -0.63023E+04
 0.37303005E+02 -0.63036E+04
 0.37353004E+02 -0.63347E+04
 0.37403004E+02 -0.63467E+04
 0.37453003E+02 -0.62619E+04
 0.37503002E+02 -0.62698E+04
 0.37553005E+02 -0.62486E+04
 0.37603004E+02 -0.62632E+04
 0.37653004E+02 -0.64920E+04
 0.37703003E+02 -0.62602E+04
 0.37753002E+02 -0.62376E+04
 0.37803005E+02 -0.64421E+04
 0.37853004E+02 -0.62860E+04
 0.37903004E+02 -0.63120E+04
 0.37953003E+02 -0.63348E+04
 0.38003002E+02 -0.63544E+04
 0.38053005E+02 -0.62735E+04
 0.38103004E+02 -0.63585E+04
 0.38153004E+02 -0.63967E+04
 0.38203003E+02 -0.63404E+04
 0.38253002E+02 -0.63405E+04
 0.38303005E+02 -0.62731E+04
 0.38353004E+02 -0.63871E+04
 0.38403004E+02 -0.63171E+04
 0.38453003E+02 -0.64128E+04
 0.38503002E+02 -0.65078E+04
 0.38553005E+02 -0.62630E+04
 0.38603004E+02 -0.62452E+04
 0.38653004E+02 -0.64159E+04
 0.38703003E+02 -0.64663E+04
 0.38753002E+02 -0.62056E+04
 0.38803005E+02 -0.63041E+04
 0.38853004E+02 -0.65585E+04
 0.38903004E+02 -0.62012E+04
 0.38953003E+02 -0.63569E+04
 0.39003002E+02 -0.63231E+04
 0.39053005E+02 -0.63210E+04
 0.39103004E+02 -0.65059E+04
 0.39153004E+02 -0.62593E+04
 0.39203003E+02 -0.63741E+04
 0.39253002E+02 -0.64323E+04
 0.39303005E+02 -0.62143E+04
 0.39353004E+02 -0.60825E+04
 0.39403004E+02 -0.64514E+04
 0.39453003E+02 -0.61647E+04
 0.39503002E+02 -0.58856E+04
 0.39553005E+02 -0.67376E+04
 0.39603004E+02 -0.62966E+04
 0.39653004E+02 -0.60476E+04
 0.39703003E+02 -0.63839E+04
 0.39753002E+02 -0.64346E+04
 0.39803005E+02 -0.63256E+04
 0.39853004E+02 -0.62542E+04
 0.39903004E+02 -0.66143E+04
 0.39953003E+02 -0.64533E+04
 0.40003002E+02 -0.60539E+04
 0.40053005E+02 -0.62149E+04
 0.40103004E+02 -0.67240E+04
 0.40153004E+02 -0.61498E+04
 0.40203003E+02 -0.63545E+04
 0.40253002E+02 -0.64980E+04
 0.40303005E+02 -0.61764E+04
 0.40353004E+02 -0.61132E+04
 0.40403004E+02 -0.61751E+04
 0.40453003E+02 -0.66317E+04
 0.40503002E+02 -0.63271E+04
 0.40553005E+02 -0.62027E+04
 0.40603004E+02 -0.63602E+04
 0.40653004E+02 -0.64966E+04
 0.40703003E+02 -0.60425E+04
 0.40753002E+02 -0.59188E+04
 0.40803005E+02 -0.62751E+04
 0.40853004E+02 -0.63104E+04
 0.40903004E+02 -0.66706E+04
 0.40953003E+02 -0.63769E+04
 0.41003002E+02 -0.63017E+04
 0.41053005E+02 -0.63021E+04
 0.41103004E+02 -0.61872E+04
 0.41153004E+02 -0.64690E+04
 0.41203003E+02 -0.65033E+04
 0.41253002E+02 -0.65882E+04
 0.41303005E+02 -0.59968E+04
 0.41353004E+02 -0.62674E+04
 0.41403004E+02 -0.64865E+04
 0.41453003E+02 -0.62762E+04
 0.41503002E+02 -0.65038E+04
 0.41553005E+02 -0.64037E+04
 0.41603004E+02 -0.62741E+04
 0.41653004E+02 -0.61646E+04
 0.41703003E+02 -0.64673E+04
 0.41753002E+02 -0.62864E+04
 0.41803005E+02 -0.59331E+04
 0.41853004E+02 -0.61758E+04
 0.41903004E+02 -0.66007E+04
 0.41953003E+02 -0.63050E+04
 0.42003002E+02 -0.65064E+04
 0.42053005E+02 -0.64480E+04
 0.42103004E+02 -0.59035E+04
 0.42153004E+02 -0.65381E+04
 0.42203003E+02 -0.64182E+04
 0.42253002E+02 -0.62853E+04
 0.42303005E+02 -0.67939E+04
 0.42353004E+02 -0.64504E+04
 0.42403004E+02 -0.61946E+04
 0.42453003E+02 -0.63497E+04
 0.42503002E+02 -0.60423E+04
 0.42553005E+02 -0.60945E+04
 0.42603004E+02 -0.65005E+04
 0.42653004E+02 -0.64220E+04
 0.42703003E+02 -0.64610E+04
 0.42753002E+02 -0.61675E+04
 0.42803001E+02 -0.63345E+04
 0.42853004E+02 -0.64246E+04
 0.42903004E+02 -0.57450E+04
 0.42953003E+02 -0.61568E+04
 0.43003002E+02 -0.63100E+04
 0.43053001E+02 -0.61614E+04
 0.43103004E+02 -0.63204E+04
 0.43153004E+02 -0.66912E+04
 0.43203003E+02 -0.67500E+04
 0.43253002E+02 -0.61969E+04
 0.43303001E+02 -0.64422E+04
 0.43353004E+02 -0.66243E+04
 0.43403004E+02 -0.62853E+04
 0.43453003E+02 -0.60890E+04
 0.43503002E+02 -0.65712E+04
 0.43553001E+02 -0.65618E+04
 0.43603004E+02 -0.57907E+04
 0.43653004E+02 -0.60523E+04
 0.43703003E+02 -0.62411E+04
 0.43753002E+02 -0.61226E+04
 0.43803001E+02 -0.64125E+04
 0.43853004E+02 -0.63248E+04
 0.43903004E+02 -0.59864E+04
 0.43953003E+02 -0.61427E+04
 0.44003002E+02 -0.66236E+04
 0.44053001E+02 -0.64112E+04
 0.44103004E+02 -0.64014E+04
 0.44153004E+02 -0.62836E+04
 0.44203003E+02 -0.62379E+04
 0.44253002E+02 -0.67211E+04
 0.44303001E+02 -0.64755E+04
 0.44353004E+02 -0.64828E+04
 0.44403004E+02 -0.68361E+04
 0.44453003E+02 -0.66654E+04
 0.44503002E+02 -0.58424E+04
 0.44553001E+02 -0.62154E+04
 0.44603004E+02 -0.67749E+04
 0.44653004E+02 -0.61882E+04
 0.44703003E+02 -0.64566E+04
 0.44753002E+02 -0.63296E+04
 0.44803001E+02 -0.61576E+04
 0.44853004E+02 -0.61118E+04
 0.44903004E+02 -0.55164E+04
 0.44953003E+02 -0.62863E+04
 0.45003002E+02 -0.64565E+04
 0.45053001E+02 -0.60347E+04
 0.45103004E+02 -0.65819E+04
 0.45153004E+02 -0.65593E+04
 0.45203003E+02 -0.60696E+04
 0.45253002E+02 -0.64113E+04
 0.45303001E+02 -0.62554E+04
 0.45353004E+02 -0.60418E+04
 0.45403004E+02 -0.65028E+04
 0.45453003E+02 -0.67253E+04
 0.45503002E+02 -0.65906E+04
 0.45553001E+02 -0.63597E+04
 0.45603004E+02 -0.67487E+04
 0.45653004E+02 -0.65250E+04
 0.45703003E+02 -0.61463E+04
 0.45753002E+02 -0.57347E+04
 0.45803001E+02 -0.60161E+04
 0.45853004E+02 -0.64595E+04
 0.45903004E+02 -0.66057E+04
 0.45953003E+02 -0.67125E+04
 0.46003002E+02 -0.61316E+04
 0.46053001E+02 -0.54031E+04
 0.46103004E+02 -0.58044E+04
 0.46153004E+02 -0.75079E+04
 0.46203003E+02 -0.75291E+04
 0.46253002E+02 -0.63218E+04
 0.46303001E+02 -0.58453E+04
 0.46353004E+02 -0.60944E+04
 0.46403004E+02 -0.59606E+04
 0.46453003E+02 -0.62725E+04
 0.46503002E+02 -0.67033E+04
 0.46553001E+02 -0.60265E+04
 0.46603004E+02 -0.62372E+04
 0.46653004E+02 -0.68328E+04
 0.46703003E+02 -0.64314E+04
 0.46753002E+02 -0.55253E+04
 0.46803001E+02 -0.59874E+04
 0.46853004E+02 -0.71198E+04
 0.46903004E+02 -0.65928E+04
 0.46953003E+02 -0.59583E+04
 0.47003002E+02 -0.61845E+04
 0.47053001E+02 -0.65742E+04
 0.47103004E+02 -0.65351E+04
 0.47153004E+02 -0.60890E+04
 0.47203003E+02 -0.63044E+04
 0.47253002E+02 -0.63015E+04
 0.47303001E+02 -0.56050E+04
 0.47353004E+02 -0.66038E+04
 0.47403004E+02 -0.72635E+04
 0.47453003E+02 -0.64265E+04
 0.47503002E+02 -0.68308E+04
 0.47553001E+02 -0.64224E+04
 0.47603004E+02 -0.52705E+04
 0.47653004E+02 -0.58683E+04
 0.47703003E+02 -0.66178E+04
 0.47753002E+02 -0.63951E+04
 0.47803001E+02 -0.68554E+04
 0.47853004E+02 -0.68628E+04
 0.47903004E+02 -0.60618E+04
 0.47953003E+02 -0.65330E+04
 0.48003002E+02 -0.63020E+04
 0.48053001E+02 -0.57598E+04
 0.48103004E+02 -0.62212E+04
 0.48153004E+02 -0.64293E+04
 0.48203003E+02 -0.62950E+04
 0.48253002E+02 -0.67338E+04
 0.48303001E+02 -0.68551E+04
 0.48353004E+02 -0.65491E+04
 0.48403004E+02 -0.66774E+04
 0.48453003E+02 -0.60038E+04
 0.48503002E+02 -0.49255E+04
 0.48553001E+02 -0.53853E+04
 0.48603004E+02 -0.65898E+04
 0.48653004E+02 -0.65999E+04
 0.48703003E+02 -0.64422E+04
 0.48753002E+02 -0.67752E+04
 0.48803001E+02 -0.60718E+04
 0.48853004E+02 -0.57668E+04
 0.48903004E+02 -0.65555E+04
 0.48953003E+02 -0.60240E+04
 0.49003002E+02 -0.58549E+04
 0.49053001E+02 -0.66674E+04
 0.49103004E+02 -0.63875E+04
 0.49153004E+02 -0.68248E+04
 0.49203003E+02 -0.71606E+04
 0.49253002E+02 -0.54877E+04
 0.49303001E+02 -0.55453E+04
 0.49353004E+02 -0.63610E+04
 0.49403004E+02 -0.64820E+04
 0.49453003E+02 -0.68161E+04
 0.49503002E+02 -0.68036E+04
 0.49553001E+02 -0.68692E+04
 0.49603004E+02 -0.63280E+04
 0.49653004E+02 -0.65242E+04
 0.49703003E+02 -0.65217E+04
 0.49753002E+02 -0.58029E+04
 0.49803001E+02 -0.62466E+04
 0.49853004E+02 -0.59834E+04
 0.49903004E+02 -0.55590E+04
 0.49953003E+02 -0.56626E+04
 0.50003002E+02 -0.60542E+04
 0.50053001E+02 -0.67723E+04
 0.50103004E+02 -0.66181E+04
 0.50153004E+02 -0.64556E+04
 0.50203003E+02 -0.69160E+04
 0.50253002E+02 -0.68970E+04
 0.50303001E+02 -0.58823E+04
 0.50353004E+02 -0.55025E+04
 0.50403004E+02 -0.63123E+04
 0.50453003E+02 -0.65418E+04
 0.50503002E+02 -0.62653E+04
 0.50553001E+02 -0.63207E+04
 0.50603004E+02 -0.69264E+04
 0.50653004E+02 -0.64961E+04
 0.50703003E+02 -0.59506E+04
 0.50753002E+02 -0.64913E+04
 0.50803001E+02 -0.59529E+04
 0.50853004E+02 -0.60699E+04
 0.50903004E+02 -0.70315E+04
 0.50953003E+02 -0.69628E+04
 0.51003002E+02 -0.61947E+04
 0.51053001E+02 -0.62483E+04
 0.51103004E+02 -0.60863E+04
 0.51153004E+02 -0.58161E+04
 0.51203003E+02 -0.64868E+04
 0.51253002E+02 -0.63655E+04
 0.51303001E+02 -0.62349E+04
 0.51353004E+02 -0.64711E+04
 0.51403004E+02 -0.62125E+04
 0.51453003E+02 -0.62972E+04
 0.51503002E+02 -0.67197E+04
 0.51553001E+02 -0.61620E+04
 0.51603004E+02 -0.61547E+04
 0.51653004E+02 -0.69555E+04
 0.51703003E+02 -0.63263E+04
 0.51753002E+02 -0.57226E+04
 0.51803001E+02 -0.65805E+04
 0.51853004E+02 -0.65819E+04
 0.51903004E+02 -0.63589E+04
 0.51953003E+02 -0.67153E+04
 0.52003002E+02 -0.64672E+04
 0.52053001E+02 -0.60866E+04
 0.52103004E+02 -0.59665E+04
 0.52153004E+02 -0.60301E+04
 0.52203003E+02 -0.60817E+04
 0.52253002E+02 -0.68178E+04
 0.52303001E+02 -0.73106E+04
 0.52353004E+02 -0.63214E+04
 0.52403004E+02 -0.60414E+04
 0.52453003E+02 -0.66118E+04
 0.52503002E+02 -0.63337E+04
 0.52553001E+02 -0.61561E+04
 0.52603004E+02 -0.61081E+04
 0.52653004E+02 -0.57914E+04
 0.52703003E+02 -0.57732E+04
 0.52753002E+02 -0.65221E+04
 0.52803001E+02 -0.67987E+04
 0.52853004E+02 -0.66834E+04
 0.52903004E+02 -0.64437E+04
 0.52953003E+02 -0.59662E+04
 0.53003002E+02 -0.62278E+04
 0.53053001E+02 -0.62854E+04
 0.53103004E+02 -0.65126E+04
 0.53153004E+02 -0.66061E+04
 0.53203003E+02 -0.62394E+04
 0.53253002E+02 -0.62436E+04
 0.53303001E+02 -0.61734E+04
 0.53353004E+02 -0.61099E+04
 0.53403004E+02 -0.60740E+04
 0.53453003E+02 -0.63676E+04
 0.53503002E+02 -0.63344E+04
 0.53553001E+02 -0.63353E+04
 0.53603004E+02 -0.64718E+04
 0.53653004E+02 -0.60984E+04
 0.53703003E+02 -0.63743E+04
 0.53753002E+02 -0.64328E+04
 0.53803001E+02 -0.62104E+04
 0.53853004E+02 -0.62667E+04
 0.53903004E+02 -0.63917E+04
 0.53953003E+02 -0.65220E+04
 0.54003002E+02 -0.64645E+04
 0.54053001E+02 -0.68598E+04
 0.54103004E+02 -0.68303E+04
 0.54153004E+02 -0.62089E+04
 0.54203003E+02 -0.62023E+04
 0.54253002E+02 -0.62098E+04
 0.54303001E+02 -0.58306E+04
 0.54353004E+02 -0.60104E+04
 0.54403004E+02 -0.58940E+04
 0.54453003E+02 -0.60959E+04
 0.54503002E+02 -0.65202E+04
 0.54553001E+02 -0.58629E+04
 0.54603004E+02 -0.65180E+04
 0.54653004E+02 -0.69319E+04
 0.54703003E+02 -0.62656E+04
 0.54753002E+02 -0.64415E+04
 0.54803001E+02 -0.71472E+04
 0.54853004E+02 -0.65046E+04
 0.54903004E+02 -0.60716E+04
 0.54953003E+02 -0.61743E+04
 0.55003002E+02 -0.56586E+04
 0.55053001E+02 -0.59621E+04
 0.55103004E+02 -0.58387E+04
 0.55153004E+02 -0.60430E+04
 0.55203003E+02 -0.64974E+04
 0.55253002E+02 -0.64254E+04
 0.55303001E+02 -0.64827E+04
 0.55353004E+02 -0.65225E+04
 0.55403004E+02 -0.63786E+04
 0.55453003E+02 -0.65005E+04
 0.55503002E+02 -0.69352E+04
 0.55553001E+02 -0.68445E+04
 0.55603004E+02 -0.65466E+04
 0.55653004E+02 -0.64270E+04
 0.55703003E+02 -0.64242E+04
 0.55753002E+02 -0.60211E+04
 0.55803001E+02 -0.60692E+04
 0.55853001E+02 -0.63680E+04
 0.55903004E+02 -0.57092E+04
 0.55953003E+02 -0.58698E+04
 0.56003002E+02 -0.60823E+04
 0.56053001E+02 -0.63770E+04
 0.56103001E+02 -0.64815E+04
 0.56153004E+02 -0.63562E+04
 0.56203003E+02 -0.68847E+04
 0.56253002E+02 -0.64072E+04
 0.56303001E+02 -0.63060E+04
 0.56353001E+02 -0.64568E+04
 0.56403004E+02 -0.62116E+04
 0.56453003E+02 -0.61942E+04
 0.56503002E+02 -0.64752E+04
 0.56553001E+02 -0.64188E+04
 0.56603001E+02 -0.63590E+04
 0.56653004E+02 -0.66328E+04
 0.56703003E+02 -0.59467E+04
 0.56753002E+02 -0.62486E+04
 0.56803001E+02 -0.66188E+04
 0.56853001E+02 -0.66336E+04
 0.56903004E+02 -0.71775E+04
 0.56953003E+02 -0.67063E+04
 0.57003002E+02 -0.65519E+04
 0.57053001E+02 -0.62515E+04
 0.57103001E+02 -0.58860E+04
 0.57153004E+02 -0.58819E+04
 0.57203003E+02 -0.60575E+04
 0.57253002E+02 -0.58875E+04
 0.57303001E+02 -0.62822E+04
 0.57353001E+02 -0.66231E+04
 0.57403004E+02 -0.60085E+04
 0.57453003E+02 -0.60159E+04
 0.57503002E+02 -0.57340E+04
 0.57553001E+02 -0.59269E+04
 0.57603001E+02 -0.66076E+04
 0.57653004E+02 -0.65273E+04
 0.57703003E+02 -0.67243E+04
 0.57753002E+02 -0.70113E+04
 0.57803001E+02 -0.66751E+04
 0.57853001E+02 -0.63079E+04
 0.57903004E+02 -0.64487E+04
 0.57953003E+02 -0.65847E+04
 0.58003002E+02 -0.65879E+04
 0.58053001E+02 -0.65250E+04
 0.58103001E+02 -0.59357E+04
 0.58153004E+02 -0.60887E+04
 0.58203003E+02 -0.62965E+04
 0.58253002E+02 -0.66859E+04
 0.58303001E+02 -0.66663E+04
 0.58353001E+02 -0.65945E+04
 0.58403004E+02 -0.65368E+04
 0.58453003E+02 -0.63652E+04
 0.58503002E+02 -0.65602E+04
 0.58553001E+02 -0.52915E+04
 0.58603001E+02 -0.52202E+04
 0.58653004E+02 -0.59257E+04
 0.58703003E+02 -0.54188E+04
 0.58753002E+02 -0.61586E+04
 0.58803001E+02 -0.68435E+04
 0.58853001E+02 -0.65739E+04
 0.58903004E+02 -0.68913E+04
 0.58953003E+02 -0.66408E+04
 0.59003002E+02 -0.62719E+04
 0.59053001E+02 -0.64795E+04
 0.59103001E+02 -0.63591E+04
 0.59153004E+02 -0.62093E+04
 0.59203003E+02 -0.67290E+04
 0.59253002E+02 -0.62064E+04
 0.59303001E+02 -0.65039E+04
 0.59353001E+02 -0.69523E+04
 0.59403004E+02 -0.60966E+04
 0.59453003E+02 -0.63715E+04
 0.59503002E+02 -0.62929E+04
 0.59553001E+02 -0.62504E+04
 0.59603001E+02 -0.63296E+04
 0.59653004E+02 -0.55854E+04
 0.59703003E+02 -0.56178E+04
 0.59753002E+02 -0.61764E+04
 0.59803001E+02 -0.61876E+04
 0.59853001E+02 -0.68759E+04
 0.59903004E+02 -0.67404E+04
 0.59953003E+02 -0.63868E+04
 0.60003002E+02 -0.63018E+04
 0.60053001E+02 -0.61192E+04
 0.60103001E+02 -0.69703E+04
 0.60153004E+02 -0.65199E+04
 0.60203003E+02 -0.61499E+04
 0.60253002E+02 -0.64211E+04
 0.60303001E+02 -0.65965E+04
 0.60353001E+02 -0.63850E+04
 0.60403004E+02 -0.60899E+04
 0.60453003E+02 -0.68194E+04
 0.60503002E+02 -0.64145E+04
 0.60553001E+02 -0.63486E+04
 0.60603001E+02 -0.62938E+04
 0.60653004E+02 -0.64345E+04
 0.60703003E+02 -0.64387E+04
 0.60753002E+02 -0.62026E+04
 0.60803001E+02 -0.62661E+04
 0.60853001E+02 -0.57931E+04
 0.60903004E+02 -0.65480E+04
 0.60953003E+02 -0.65473E+04
 0.61003002E+02 -0.61203E+04
 0.61053001E+02 -0.64040E+04
 0.61103001E+02 -0.57103E+04
 0.61153004E+02 -0.57030E+04
 0.61203003E+02 -0.66534E+04
 0.61253002E+02 -0.65958E+04
 0.61303001E+02 -0.65439E+04
 0.61353001E+02 -0.69009E+04
 0.61403004E+02 -0.68585E+04
 0.61453003E+02 -0.68371E+04
 0.61503002E+02 -0.65565E+04
 0.61553001E+02 -0.55767E+04
 0.61603001E+02 -0.60580E+04
 0.61653004E+02 -0.60391E+04
 0.61703003E+02 -0.59031E+04
 0.61753002E+02 -0.70733E+04
 0.61803001E+02 -0.59526E+04
 0.61853001E+02 -0.54519E+04
 0.61903004E+02 -0.66530E+04
 0.61953003E+02 -0.67853E+04
 0.62003002E+02 -0.60820E+04
 0.62053001E+02 -0.64271E+04
 0.62103004E+02 -0.64625E+04
 0.62153000E+02 -0.62827E+04
 0.62203003E+02 -0.64697E+04
 0.62252998E+02 -0.56352E+04
 0.62303001E+02 -0.61787E+04
 0.62353004E+02 -0.74556E+04
 0.62403000E+02 -0.72420E+04
 0.62453003E+02 -0.58178E+04
 0.62502998E+02 -0.57024E+04
 0.62553001E+02 -0.60527E+04
 0.62603004E+02 -0.64071E+04
 0.62653000E+02 -0.68043E+04
 0.62703003E+02 -0.58373E+04
 0.62752998E+02 -0.61762E+04
 0.62803001E+02 -0.70325E+04
 0.62853004E+02 -0.65358E+04
 0.62903000E+02 -0.67913E+04
 0.62953003E+02 -0.68256E+04
 0.63002998E+02 -0.59364E+04
 0.63053001E+02 -0.65550E+04
 0.63103004E+02 -0.68658E+04
 0.63153000E+02 -0.58742E+04
 0.63203003E+02 -0.57331E+04
 0.63252998E+02 -0.56113E+04
 0.63303001E+02 -0.61607E+04
 0.63353004E+02 -0.67909E+04
 0.63403000E+02 -0.62415E+04
 0.63453003E+02 -0.65519E+04
 0.63502998E+02 -0.66109E+04
 0.63553001E+02 -0.57749E+04
 0.63603004E+02 -0.58481E+04
 0.63653000E+02 -0.65350E+04
 0.63703003E+02 -0.60169E+04
 0.63752998E+02 -0.59274E+04
 0.63803001E+02 -0.65225E+04
 0.63853004E+02 -0.62635E+04
 0.63903000E+02 -0.61541E+04
 0.63953003E+02 -0.55978E+04
 0.64002998E+02 -0.58054E+04
 0.64053001E+02 -0.69508E+04
 0.64103004E+02 -0.62637E+04
 0.64153000E+02 -0.64253E+04
 0.64203003E+02 -0.68606E+04
 0.64252998E+02 -0.58641E+04
 0.64303001E+02 -0.66155E+04
 0.64353004E+02 -0.62595E+04
 0.64403000E+02 -0.54876E+04
 0.64453003E+02 -0.62108E+04
 0.64502998E+02 -0.58618E+04
 0.64553001E+02 -0.63631E+04
 0.64603004E+02 -0.69720E+04
 0.64653000E+02 -0.59414E+04
 0.64703003E+02 -0.61928E+04
 0.64752998E+02 -0.64503E+04
 0.64803001E+02 -0.60685E+04
 0.64853004E+02 -0.62907E+04
 0.64903000E+02 -0.60714E+04
 0.64953003E+02 -0.61252E+04
 0.65002998E+02 -0.71068E+04
 0.65053001E+02 -0.66158E+04
 0.65103004E+02 -0.58246E+04
 0.65153000E+02 -0.61505E+04
 0.65203003E+02 -0.62516E+04
 0.65252998E+02 -0.67208E+04
 0.65303001E+02 -0.66072E+04
 0.65353004E+02 -0.61677E+04
 0.65403000E+02 -0.64337E+04
 0.65453003E+02 -0.63536E+04
 0.65502998E+02 -0.65968E+04
 0.65553001E+02 -0.67862E+04
 0.65603004E+02 -0.65014E+04
 0.65653000E+02 -0.71123E+04
 0.65703003E+02 -0.64680E+04
 0.65752998E+02 -0.63175E+04
 0.65803001E+02 -0.70273E+04
 0.65853004E+02 -0.64623E+04
 0.65903000E+02 -0.58067E+04
 0.65953003E+02 -0.55063E+04
 0.66002998E+02 -0.66193E+04
 0.66053001E+02 -0.61883E+04
 0.66103004E+02 -0.52496E+04
 0.66153000E+02 -0.65643E+04
 0.66203003E+02 -0.64631E+04
 0.66252998E+02 -0.58433E+04
 0.66303001E+02 -0.62566E+04
 0.66353004E+02 -0.61588E+04
 0.66403000E+02 -0.59391E+04
 0.66453003E+02 -0.68512E+04
 0.66502998E+02 -0.67486E+04
 0.66553001E+02 -0.65673E+04
 0.66603004E+02 -0.67447E+04
 0.66653000E+02 -0.61947E+04
 0.66703003E+02 -0.67275E+04
 0.66752998E+02 -0.63103E+04
 0.66803001E+02 -0.54132E+04
 0.66853004E+02 -0.61880E+04
 0.66903000E+02 -0.67687E+04
 0.66953003E+02 -0.66631E+04
 0.67002998E+02 -0.61280E+04
 0.67053001E+02 -0.64079E+04
 0.67103004E+02 -0.68266E+04
 0.67153000E+02 -0.73152E+04
 0.67203003E+02 -0.69151E+04
 0.67252998E+02 -0.58387E+04
 0.67303001E+02 -0.67271E+04
 0.67353004E+02 -0.59735E+04
 0.67403000E+02 -0.58141E+04
 0.67453003E+02 -0.60538E+04
 0.67502998E+02 -0.55705E+04
 0.67553001E+02 -0.60593E+04
 0.67603004E+02 -0.62124E+04
 0.67653000E+02 -0.72502E+04
 0.67703003E+02 -0.68199E+04
 0.67752998E+02 -0.62593E+04
 0.67803001E+02 -0.68601E+04
 0.67853004E+02 -0.57333E+04
 0.67903000E+02 -0.59083E+04
 0.67953003E+02 -0.67376E+04
 0.68002998E+02 -0.63624E+04
 0.68053001E+02 -0.69871E+04
 0.68103004E+02 -0.72778E+04
 0.68153000E+02 -0.65367E+04
 0.68203003E+02 -0.61605E+04
 0.68252998E+02 -0.55184E+04
 0.68303001E+02 -0.60556E+04
 0.68353004E+02 -0.65277E+04
 0.68403000E+02 -0.59825E+04
 0.68453003E+02 -0.63999E+04
 0.68502998E+02 -0.61313E+04
 0.68553001E+02 -0.53638E+04
 0.68603004E+02 -0.55466E+04
 0.68653000E+02 -0.58671E+04
 0.68703003E+02 -0.62406E+04
 0.68752998E+02 -0.70267E+04
 0.68803001E+02 -0.58747E+04
 0.68853004E+02 -0.52994E+04
 0.68903000E+02 -0.62246E+04
 0.68953003E+02 -0.64854E+04
 0.69002998E+02 -0.74072E+04
 0.69053001E+02 -0.79450E+04
 0.69103004E+02 -0.73101E+04
 0.69153000E+02 -0.61098E+04
 0.69203003E+02 -0.58828E+04
 0.69252998E+02 -0.65354E+04
 0.69303001E+02 -0.62613E+04
 0.69353004E+02 -0.64543E+04
 0.69403000E+02 -0.61329E+04
 0.69453003E+02 -0.50964E+04
 0.69502998E+02 -0.57627E+04
 0.69553001E+02 -0.60405E+04
 0.69603004E+02 -0.56225E+04
 0.69653000E+02 -0.59366E+04
 0.69703003E+02 -0.60692E+04
 0.69752998E+02 -0.59601E+04
 0.69803001E+02 -0.61973E+04
 0.69853004E+02 -0.62885E+04
 0.69903000E+02 -0.62171E+04
 0.69953003E+02 -0.74633E+04
 0.70002998E+02 -0.86951E+04
 0.70053001E+02 -0.74997E+04
 0.70103004E+02 -0.63284E+04
 0.70153000E+02 -0.58234E+04
 0.70203003E+02 -0.50202E+04
 0.70252998E+02 -0.59236E+04
 0.70303001E+02 -0.66452E+04
 0.70353004E+02 -0.61581E+04
 0.70403000E+02 -0.62199E+04
 0.70453003E+02 -0.58868E+04
 0.70502998E+02 -0.54862E+04
 0.70553001E+02 -0.58735E+04
 0.70603004E+02 -0.59796E+04
 0.70653000E+02 -0.63430E+04
 0.70703003E+02 -0.60545E+04
 0.70752998E+02 -0.61778E+04
 0.70803001E+02 -0.68202E+04
 0.70853004E+02 -0.58769E+04
 0.70903000E+02 -0.62849E+04
 0.70953003E+02 -0.63369E+04
 0.71002998E+02 -0.61156E+04
 0.71053001E+02 -0.73690E+04
 0.71103004E+02 -0.73415E+04
 0.71153000E+02 -0.71366E+04
 0.71203003E+02 -0.74382E+04
 0.71252998E+02 -0.73573E+04
 0.71303001E+02 -0.75208E+04
 0.71353004E+02 -0.71586E+04
 0.71403000E+02 -0.56893E+04
 0.71453003E+02 -0.52932E+04
 0.71502998E+02 -0.64896E+04
 0.71553001E+02 -0.68339E+04
 0.71603004E+02 -0.74195E+04
 0.71653000E+02 -0.77217E+04
 0.71703003E+02 -0.70778E+04
 0.71752998E+02 -0.69536E+04
 0.71803001E+02 -0.62804E+04
 0.71853004E+02 -0.56721E+04
 0.71903000E+02 -0.54299E+04
 0.71953003E+02 -0.52590E+04
 0.72002998E+02 -0.51093E+04
 0.72053001E+02 -0.45485E+04
 0.72103004E+02 -0.44965E+04
 0.72153000E+02 -0.59490E+04
 0.72203003E+02 -0.71456E+04
 0.72252998E+02 -0.68990E+04
 0.72303001E+02 -0.63643E+04
 0.72353004E+02 -0.65208E+04
 0.72403000E+02 -0.65370E+04
 0.72453003E+02 -0.63959E+04
 0.72502998E+02 -0.67774E+04
 0.72553001E+02 -0.66092E+04
 0.72603004E+02 -0.61407E+04
 0.72653000E+02 -0.62839E+04
 0.72703003E+02 -0.67261E+04
 0.72752998E+02 -0.65539E+04
 0.72803001E+02 -0.70182E+04
 0.72853004E+02 -0.72489E+04
 0.72903000E+02 -0.64697E+04
 0.72953003E+02 -0.63100E+04
 0.73002998E+02 -0.64242E+04
 0.73053001E+02 -0.65442E+04
 0.73103004E+02 -0.59421E+04
 0.73153000E+02 -0.52646E+04
 0.73203003E+02 -0.52890E+04
 0.73252998E+02 -0.54772E+04
 0.73303001E+02 -0.55496E+04
 0.73353004E+02 -0.58221E+04
 0.73403000E+02 -0.65452E+04
 0.73453003E+02 -0.65358E+04
 0.73502998E+02 -0.65589E+04
 0.73553001E+02 -0.61558E+04
 0.73603004E+02 -0.51897E+04
 0.73653000E+02 -0.54380E+04
 0.73703003E+02 -0.48145E+04
 0.73752998E+02 -0.44151E+04
 0.73803001E+02 -0.48918E+04
 0.73853004E+02 -0.53163E+04
 0.73903000E+02 -0.70912E+04
 0.73953003E+02 -0.74993E+04
 0.74002998E+02 -0.72396E+04
 0.74053001E+02 -0.77527E+04
 0.74103004E+02 -0.71677E+04
 0.74153000E+02 -0.66473E+04
 0.74203003E+02 -0.68626E+04
 0.74252998E+02 -0.63490E+04
 0.74303001E+02 -0.63297E+04
 0.74353004E+02 -0.68213E+04
 0.74403000E+02 -0.66437E+04
 0.74453003E+02 -0.68274E+04
 0.74502998E+02 -0.60447E+04
 0.74553001E+02 -0.56469E+04
 0.74603004E+02 -0.58248E+04
 0.74653000E+02 -0.52537E+04
 0.74703003E+02 -0.55092E+04
 0.74752998E+02 -0.58474E+04
 0.74803001E+02 -0.58982E+04
 0.74853004E+02 -0.72267E+04
 0.74903000E+02 -0.76545E+04
 0.74953003E+02 -0.68867E+04
 0.75002998E+02 -0.66115E+04
 0.75053001E+02 -0.59931E+04
 0.75103004E+02 -0.62531E+04
 0.75153000E+02 -0.63675E+04
 0.75203003E+02 -0.55063E+04
 0.75252998E+02 -0.61358E+04
 0.75303001E+02 -0.72829E+04
 0.75353004E+02 -0.73278E+04
 0.75403000E+02 -0.77064E+04
 0.75453003E+02 -0.72352E+04
 0.75502998E+02 -0.68886E+04
 0.75553001E+02 -0.75374E+04
 0.75603004E+02 -0.68808E+04
 0.75653000E+02 -0.61694E+04
 0.75703003E+02 -0.59021E+04
 0.75752998E+02 -0.56289E+04
 0.75803001E+02 -0.60438E+04
 0.75853004E+02 -0.62558E+04
 0.75903000E+02 -0.63795E+04
 0.75953003E+02 -0.67764E+04
 0.76002998E+02 -0.68210E+04
 0.76053001E+02 -0.64184E+04
 0.76103004E+02 -0.58221E+04
 0.76153000E+02 -0.55753E+04
 0.76203003E+02 -0.55306E+04
 0.76252998E+02 -0.57130E+04
 0.76303001E+02 -0.62672E+04
 0.76353004E+02 -0.71539E+04
 0.76403000E+02 -0.75046E+04
 0.76453003E+02 -0.70560E+04
 0.76502998E+02 -0.65494E+04
 0.76553001E+02 -0.65274E+04
 0.76603004E+02 -0.64126E+04
 0.76653000E+02 -0.59024E+04
 0.76703003E+02 -0.54523E+04
 0.76752998E+02 -0.52690E+04
 0.76803001E+02 -0.57133E+04
 0.76853004E+02 -0.60846E+04
 0.76903000E+02 -0.59479E+04
 0.76953003E+02 -0.62329E+04
 0.77002998E+02 -0.68662E+04
 0.77053001E+02 -0.70614E+04
 0.77103004E+02 -0.71385E+04
 0.77153000E+02 -0.71608E+04
 0.77203003E+02 -0.69371E+04
 0.77252998E+02 -0.70856E+04
 0.77303001E+02 -0.65977E+04
 0.77353004E+02 -0.58278E+04
 0.77403000E+02 -0.58303E+04
 0.77453003E+02 -0.55070E+04
 0.77502998E+02 -0.52747E+04
 0.77553001E+02 -0.56585E+04
 0.77603004E+02 -0.59402E+04
 0.77653000E+02 -0.61808E+04
 0.77703003E+02 -0.64903E+04
 0.77752998E+02 -0.64602E+04
 0.77803001E+02 -0.64091E+04
 0.77853004E+02 -0.63024E+04
 0.77903000E+02 -0.63195E+04
 0.77953003E+02 -0.67990E+04
 0.78002998E+02 -0.71285E+04
 0.78053001E+02 -0.73162E+04
 0.78103004E+02 -0.71965E+04
 0.78153000E+02 -0.60279E+04
 0.78203003E+02 -0.54542E+04
 0.78252998E+02 -0.55835E+04
 0.78303001E+02 -0.56682E+04
 0.78353004E+02 -0.62017E+04
 0.78403000E+02 -0.63903E+04
 0.78453003E+02 -0.63810E+04
 0.78502998E+02 -0.66097E+04
 0.78553001E+02 -0.63500E+04
 0.78603004E+02 -0.61082E+04
 0.78653000E+02 -0.63361E+04
 0.78703003E+02 -0.59785E+04
 0.78752998E+02 -0.61514E+04
 0.78803001E+02 -0.66218E+04
 0.78853004E+02 -0.66696E+04
 0.78903000E+02 -0.71800E+04
 0.78953003E+02 -0.69307E+04
 0.79002998E+02 -0.61631E+04
 0.79053001E+02 -0.58375E+04
 0.79103004E+02 -0.51965E+04
 0.79153000E+02 -0.47672E+04
 0.79203003E+02 -0.50294E+04
 0.79252998E+02 -0.54144E+04
 0.79303001E+02 -0.60741E+04
 0.79353004E+02 -0.61796E+04
 0.79403000E+02 -0.59542E+04
 0.79453003E+02 -0.62318E+04
 0.79502998E+02 -0.61295E+04
 0.79553001E+02 -0.62765E+04
 0.79603004E+02 -0.67464E+04
 0.79653000E+02 -0.66919E+04
 0.79703003E+02 -0.68936E+04
 0.79752998E+02 -0.71203E+04
 0.79803001E+02 -0.68639E+04
 0.79853004E+02 -0.68933E+04
 0.79903000E+02 -0.67926E+04
 0.79953003E+02 -0.68208E+04
 0.80002998E+02 -0.69770E+04
 0.80053001E+02 -0.66341E+04
 0.80103004E+02 -0.63577E+04
 0.80153000E+02 -0.57294E+04
 0.80203003E+02 -0.55728E+04
 0.80252998E+02 -0.61114E+04
 0.80303001E+02 -0.64038E+04
 0.80353004E+02 -0.68653E+04
 0.80403000E+02 -0.71617E+04
 0.80453003E+02 -0.68396E+04
 0.80502998E+02 -0.66526E+04
 0.80553001E+02 -0.68961E+04
 0.80603004E+02 -0.70720E+04
 0.80653000E+02 -0.72169E+04
 0.80703003E+02 -0.71672E+04
 0.80752998E+02 -0.68030E+04
 0.80803001E+02 -0.64863E+04
 0.80853004E+02 -0.61063E+04
 0.80903000E+02 -0.58509E+04
 0.80953003E+02 -0.59127E+04
 0.81002998E+02 -0.60235E+04
 0.81053001E+02 -0.62034E+04
 0.81103004E+02 -0.64233E+04
 0.81153000E+02 -0.64332E+04
 0.81203003E+02 -0.61319E+04
 0.81252998E+02 -0.57033E+04
 0.81303001E+02 -0.57835E+04
 0.81353004E+02 -0.62141E+04
 0.81403000E+02 -0.62486E+04
 0.81453003E+02 -0.64241E+04
 0.81502998E+02 -0.63449E+04
 0.81553001E+02 -0.60660E+04
 0.81603004E+02 -0.62221E+04
 0.81653000E+02 -0.62453E+04
 0.81703003E+02 -0.62901E+04
 0.81752998E+02 -0.66854E+04
 0.81803001E+02 -0.66474E+04
 0.81853004E+02 -0.60726E+04
 0.81903000E+02 -0.59068E+04
 0.81953003E+02 -0.58244E+04
 0.82002998E+02 -0.61212E+04
 0.82053001E+02 -0.65144E+04
 0.82103004E+02 -0.64014E+04
 0.82153000E+02 -0.61171E+04
 0.82203003E+02 -0.60686E+04
 0.82252998E+02 -0.62958E+04
 0.82303001E+02 -0.64146E+04
 0.82353004E+02 -0.66178E+04
 0.82403000E+02 -0.67585E+04
 0.82453003E+02 -0.67459E+04
 0.82502998E+02 -0.66319E+04
 0.82553001E+02 -0.63518E+04
 0.82603004E+02 -0.62002E+04
 0.82653000E+02 -0.63773E+04
 0.82703003E+02 -0.66482E+04
 0.82752998E+02 -0.72942E+04
 0.82803001E+02 -0.74633E+04
 0.82853004E+02 -0.72209E+04
 0.82903000E+02 -0.69965E+04
 0.82953003E+02 -0.64051E+04
 0.83002998E+02 -0.62101E+04
 0.83053001E+02 -0.64133E+04
 0.83103004E+02 -0.63025E+04
 0.83153000E+02 -0.63436E+04
 0.83203003E+02 -0.66819E+04
 0.83252998E+02 -0.66338E+04
 0.83303001E+02 -0.66552E+04
 0.83353004E+02 -0.65532E+04
 0.83403000E+02 -0.62105E+04
 0.83453003E+02 -0.59307E+04
 0.83502998E+02 -0.54631E+04
 0.83553001E+02 -0.50968E+04
 0.83603004E+02 -0.52710E+04
 0.83653000E+02 -0.53848E+04
 0.83703003E+02 -0.54078E+04
 0.83752998E+02 -0.56662E+04
 0.83803001E+02 -0.58467E+04
 0.83853004E+02 -0.61170E+04
 0.83903000E+02 -0.62075E+04
 0.83953003E+02 -0.62166E+04
 0.84002998E+02 -0.63844E+04
 0.84053001E+02 -0.62345E+04
 0.84103004E+02 -0.61967E+04
 0.84153000E+02 -0.60180E+04
 0.84203003E+02 -0.59319E+04
 0.84252998E+02 -0.62574E+04
 0.84303001E+02 -0.63326E+04
 0.84353004E+02 -0.66630E+04
 0.84403000E+02 -0.65994E+04
 0.84453003E+02 -0.62025E+04
 0.84502998E+02 -0.59985E+04
 0.84553001E+02 -0.56989E+04
 0.84603004E+02 -0.55120E+04
 0.84653000E+02 -0.56706E+04
 0.84703003E+02 -0.59901E+04
 0.84752998E+02 -0.63594E+04
 0.84803001E+02 -0.67180E+04
 0.84853004E+02 -0.69418E+04
 0.84903000E+02 -0.69698E+04
 0.84953003E+02 -0.68112E+04
 0.85002998E+02 -0.68099E+04
 0.85053001E+02 -0.66534E+04
 0.85103004E+02 -0.64636E+04
 0.85153000E+02 -0.63497E+04
 0.85203003E+02 -0.63110E+04
 0.85252998E+02 -0.63964E+04
 0.85303001E+02 -0.64357E+04
 0.85353004E+02 -0.61930E+04
 0.85403000E+02 -0.62669E+04
 0.85453003E+02 -0.63647E+04
 0.85502998E+02 -0.62577E+04
 0.85553001E+02 -0.67650E+04
 0.85603004E+02 -0.69850E+04
 0.85653000E+02 -0.70854E+04
 0.85703003E+02 -0.72103E+04
 0.85752998E+02 -0.69338E+04
 0.85803001E+02 -0.68339E+04
 0.85853004E+02 -0.67805E+04
 0.85903000E+02 -0.65280E+04
 0.85953003E+02 -0.62450E+04
 0.86002998E+02 -0.59938E+04
 0.86053001E+02 -0.61484E+04
 0.86103004E+02 -0.64067E+04
 0.86153000E+02 -0.65046E+04
 0.86203003E+02 -0.63856E+04
 0.86252998E+02 -0.60933E+04
 0.86303001E+02 -0.60817E+04
 0.86353004E+02 -0.58842E+04
 0.86403000E+02 -0.58736E+04
 0.86453003E+02 -0.61807E+04
 0.86502998E+02 -0.64487E+04
 0.86553001E+02 -0.66944E+04
 0.86603004E+02 -0.67807E+04
 0.86653000E+02 -0.67895E+04
 0.86703003E+02 -0.64785E+04
 0.86752998E+02 -0.61945E+04
 0.86803001E+02 -0.62160E+04
 0.86853004E+02 -0.62507E+04
 0.86903000E+02 -0.63595E+04
 0.86953003E+02 -0.63772E+04
 0.87002998E+02 -0.61285E+04
 0.87053001E+02 -0.61825E+04
 0.87103004E+02 -0.62570E+04
 0.87153000E+02 -0.59770E+04
 0.87203003E+02 -0.60308E+04
 0.87252998E+02 -0.61919E+04
 0.87303001E+02 -0.61302E+04
 0.87353004E+02 -0.61879E+04
 0.87403000E+02 -0.61470E+04
 0.87453003E+02 -0.61175E+04
 0.87502998E+02 -0.63157E+04
 0.87553001E+02 -0.62245E+04
 0.87602997E+02 -0.61060E+04
 0.87653000E+02 -0.61168E+04
 0.87703003E+02 -0.61633E+04
 0.87752998E+02 -0.63369E+04
 0.87803001E+02 -0.62944E+04
 0.87852997E+02 -0.62067E+04
 0.87903000E+02 -0.61602E+04
 0.87953003E+02 -0.60052E+04
 0.88002998E+02 -0.59868E+04
 0.88053001E+02 -0.60581E+04
 0.88102997E+02 -0.61117E+04
 0.88153000E+02 -0.63411E+04
 0.88203003E+02 -0.66201E+04
 0.88252998E+02 -0.67886E+04
 0.88303001E+02 -0.67575E+04
 0.88352997E+02 -0.64161E+04
 0.88403000E+02 -0.60278E+04
 0.88453003E+02 -0.57956E+04
 0.88502998E+02 -0.57372E+04
 0.88553001E+02 -0.58032E+04
 0.88602997E+02 -0.59098E+04
 0.88653000E+02 -0.59366E+04
 0.88703003E+02 -0.61602E+04
 0.88752998E+02 -0.63784E+04
 0.88803001E+02 -0.65269E+04
 0.88852997E+02 -0.66959E+04
 0.88903000E+02 -0.65244E+04
 0.88953003E+02 -0.65375E+04
 0.89002998E+02 -0.66359E+04
 0.89053001E+02 -0.67439E+04
 0.89102997E+02 -0.67389E+04
 0.89153000E+02 -0.66215E+04
 0.89203003E+02 -0.65819E+04
 0.89252998E+02 -0.65796E+04
 0.89303001E+02 -0.64842E+04
 0.89352997E+02 -0.64159E+04
 0.89403000E+02 -0.62924E+04
 0.89453003E+02 -0.59191E+04
 0.89502998E+02 -0.57862E+04
 0.89553001E+02 -0.57569E+04
 0.89602997E+02 -0.57254E+04
 0.89653000E+02 -0.57567E+04
 0.89703003E+02 -0.57243E+04
 0.89752998E+02 -0.56494E+04
 0.89803001E+02 -0.60106E+04
 0.89852997E+02 -0.62901E+04
 0.89903000E+02 -0.63831E+04
 0.89953003E+02 -0.65838E+04
 0.90002998E+02 -0.67890E+04
 0.90053001E+02 -0.69778E+04
 0.90102997E+02 -0.69729E+04
 0.90153000E+02 -0.67155E+04
 0.90203003E+02 -0.63065E+04
 0.90252998E+02 -0.61544E+04
 0.90303001E+02 -0.61267E+04
 0.90352997E+02 -0.61865E+04
 0.90403000E+02 -0.63215E+04
 0.90453003E+02 -0.64779E+04
 0.90502998E+02 -0.65531E+04
 0.90553001E+02 -0.65621E+04
 0.90602997E+02 -0.65506E+04
 0.90653000E+02 -0.63738E+04
 0.90703003E+02 -0.63520E+04
 0.90752998E+02 -0.65067E+04
 0.90803001E+02 -0.67067E+04
 0.90852997E+02 -0.67781E+04
 0.90903000E+02 -0.66614E+04
 0.90953003E+02 -0.65851E+04
 0.91002998E+02 -0.61825E+04
 0.91053001E+02 -0.57589E+04
 0.91102997E+02 -0.57015E+04
 0.91153000E+02 -0.57583E+04
 0.91203003E+02 -0.59500E+04
 0.91252998E+02 -0.61172E+04
 0.91303001E+02 -0.62466E+04
 0.91352997E+02 -0.63593E+04
 0.91403000E+02 -0.66057E+04
 0.91453003E+02 -0.69132E+04
 0.91502998E+02 -0.70375E+04
 0.91553001E+02 -0.71033E+04
 0.91602997E+02 -0.71820E+04
 0.91653000E+02 -0.70634E+04
 0.91703003E+02 -0.68715E+04
 0.91752998E+02 -0.65623E+04
 0.91803001E+02 -0.61905E+04
 0.91852997E+02 -0.61369E+04
 0.91903000E+02 -0.60577E+04
 0.91953003E+02 -0.60695E+04
 0.92002998E+02 -0.61093E+04
 0.92053001E+02 -0.59901E+04
 0.92102997E+02 -0.59810E+04
 0.92153000E+02 -0.58856E+04
 0.92203003E+02 -0.58142E+04
 0.92252998E+02 -0.59887E+04
 0.92303001E+02 -0.60289E+04
 0.92352997E+02 -0.61673E+04
 0.92403000E+02 -0.63168E+04
 0.92453003E+02 -0.62545E+04
 0.92502998E+02 -0.63701E+04
 0.92553001E+02 -0.65017E+04
 0.92602997E+02 -0.66302E+04
 0.92653000E+02 -0.67296E+04
 0.92703003E+02 -0.67331E+04
 0.92752998E+02 -0.67569E+04
 0.92803001E+02 -0.67727E+04
 0.92852997E+02 -0.66344E+04
 0.92903000E+02 -0.65505E+04
 0.92953003E+02 -0.64085E+04
 0.93002998E+02 -0.61687E+04
 0.93053001E+02 -0.61193E+04
 0.93102997E+02 -0.60803E+04
 0.93153000E+02 -0.61382E+04
 0.93203003E+02 -0.62654E+04
 0.93252998E+02 -0.63244E+04
 0.93303001E+02 -0.63483E+04
 0.93352997E+02 -0.62517E+04
 0.93403000E+02 -0.62737E+04
 0.93453003E+02 -0.62997E+04
 0.93502998E+02 -0.62074E+04
 0.93553001E+02 -0.62549E+04
 0.93602997E+02 -0.61468E+04
 0.93653000E+02 -0.60164E+04
 0.93703003E+02 -0.60259E+04
 0.93752998E+02 -0.59707E+04
 0.93803001E+02 -0.59689E+04
 0.93852997E+02 -0.61142E+04
 0.93903000E+02 -0.62027E+04
 0.93953003E+02 -0.62777E+04
 0.94002998E+02 -0.63549E+04
 0.94053001E+02 -0.63164E+04
 0.94102997E+02 -0.63247E+04
 0.94153000E+02 -0.62688E+04
 0.94203003E+02 -0.61494E+04
 0.94252998E+02 -0.61418E+04
 0.94303001E+02 -0.60922E+04
 0.94352997E+02 -0.60801E+04
 0.94403000E+02 -0.62534E+04
 0.94453003E+02 -0.63212E+04
 0.94502998E+02 -0.63344E+04
 0.94553001E+02 -0.63050E+04
 0.94602997E+02 -0.62943E+04
 0.94653000E+02 -0.63926E+04
 0.94703003E+02 -0.64104E+04
 0.94752998E+02 -0.63250E+04
 0.94803001E+02 -0.63077E+04
 0.94852997E+02 -0.63296E+04
 0.94903000E+02 -0.63582E+04
 0.94953003E+02 -0.63055E+04
 0.95002998E+02 -0.61610E+04
 0.95053001E+02 -0.61354E+04
 0.95102997E+02 -0.60389E+04
 0.95153000E+02 -0.60212E+04
 0.95203003E+02 -0.61756E+04
 0.95252998E+02 -0.63676E+04
 0.95303001E+02 -0.65391E+04
 0.95352997E+02 -0.66688E+04
 0.95403000E+02 -0.67512E+04
 0.95453003E+02 -0.66596E+04
 0.95502998E+02 -0.64434E+04
 0.95553001E+02 -0.64053E+04
 0.95602997E+02 -0.65495E+04
 0.95653000E+02 -0.66951E+04
 0.95703003E+02 -0.68915E+04
 0.95752998E+02 -0.69803E+04
 0.95803001E+02 -0.69849E+04
 0.95852997E+02 -0.69887E+04
 0.95903000E+02 -0.68372E+04
 0.95953003E+02 -0.67120E+04
 0.96002998E+02 -0.67511E+04
 0.96053001E+02 -0.67365E+04
 0.96102997E+02 -0.67133E+04
 0.96153000E+02 -0.65461E+04
 0.96203003E+02 -0.62466E+04
 0.96252998E+02 -0.61520E+04
 0.96303001E+02 -0.61086E+04
 0.96352997E+02 -0.60349E+04
 0.96403000E+02 -0.61453E+04
 0.96453003E+02 -0.62878E+04
 0.96502998E+02 -0.63027E+04
 0.96553001E+02 -0.64046E+04
 0.96602997E+02 -0.63375E+04
 0.96653000E+02 -0.61151E+04
 0.96703003E+02 -0.60949E+04
 0.96752998E+02 -0.59812E+04
 0.96803001E+02 -0.57418E+04
 0.96852997E+02 -0.56618E+04
 0.96903000E+02 -0.56550E+04
 0.96953003E+02 -0.55946E+04
 0.97002998E+02 -0.56828E+04
 0.97053001E+02 -0.57784E+04
 0.97102997E+02 -0.59517E+04
 0.97153000E+02 -0.61165E+04
 0.97203003E+02 -0.61799E+04
 0.97252998E+02 -0.63567E+04
 0.97303001E+02 -0.64665E+04
 0.97352997E+02 -0.66285E+04
 0.97403000E+02 -0.67035E+04
 0.97453003E+02 -0.66565E+04
 0.97502998E+02 -0.66765E+04
 0.97553001E+02 -0.65799E+04
 0.97602997E+02 -0.65143E+04
 0.97653000E+02 -0.64635E+04
 0.97703003E+02 -0.62712E+04
 0.97752998E+02 -0.62456E+04
 0.97803001E+02 -0.63613E+04
 0.97852997E+02 -0.63841E+04
 0.97903000E+02 -0.64592E+04
 0.97953003E+02 -0.66749E+04
 0.98002998E+02 -0.68355E+04
