-0.19969940E+01 -0.13750E+05
-0.19469941E+01 -0.13554E+05
-0.18969940E+01 -0.13660E+05
-0.18469940E+01 -0.13801E+05
-0.17969940E+01 -0.13554E+05
-0.17469940E+01 -0.13309E+05
-0.16969941E+01 -0.13446E+05
-0.16469941E+01 -0.13443E+05
-0.15969940E+01 -0.13360E+05
-0.15469940E+01 -0.13411E+05
-0.14969940E+01 -0.13334E+05
-0.14469941E+01 -0.13449E+05
-0.13969941E+01 -0.13423E+05
-0.13469940E+01 -0.13243E+05
-0.12969941E+01 -0.13543E+05
-0.12469940E+01 -0.13597E+05
-0.11969941E+01 -0.13563E+05
-0.11469941E+01 -0.13637E+05
-0.10969940E+01 -0.13456E+05
-0.10469941E+01 -0.13475E+05
-0.99699408E+00 -0.13625E+05
-0.94699407E+00 -0.13527E+05
-0.89699411E+00 -0.13512E+05
-0.84699404E+00 -0.13515E+05
-0.79699409E+00 -0.13400E+05
-0.74699414E+00 -0.13598E+05
-0.69699407E+00 -0.13610E+05
-0.64699411E+00 -0.13479E+05
-0.59699416E+00 -0.13510E+05
-0.54699409E+00 -0.13378E+05
-0.49699414E+00 -0.13436E+05
-0.44699407E+00 -0.13479E+05
-0.39699411E+00 -0.13405E+05
-0.34699416E+00 -0.13416E+05
-0.29699409E+00 -0.13436E+05
-0.24699414E+00 -0.13464E+05
-0.19699407E+00 -0.13547E+05
-0.14699411E+00 -0.13393E+05
-0.96994162E-01 -0.13405E+05
-0.46994090E-01 -0.13491E+05
 0.30058622E-02 -0.13562E+05
 0.53005934E-01 -0.13464E+05
 0.10300589E+00 -0.13573E+05
 0.15300584E+00 -0.13499E+05
 0.20300579E+00 -0.13389E+05
 0.25300574E+00 -0.13638E+05
 0.30300593E+00 -0.13459E+05
 0.35300589E+00 -0.13887E+05
 0.40300584E+00 -0.13458E+05
 0.45300579E+00 -0.13765E+05
 0.50300574E+00 -0.13686E+05
 0.55300593E+00 -0.13686E+05
 0.60300589E+00 -0.14009E+05
 0.65300584E+00 -0.13563E+05
 0.70300579E+00 -0.13783E+05
 0.75300574E+00 -0.13452E+05
 0.80300570E+00 -0.13613E+05
 0.85300589E+00 -0.13540E+05
 0.90300584E+00 -0.13469E+05
 0.95300579E+00 -0.13540E+05
 0.10030057E+01 -0.13374E+05
 0.10530057E+01 -0.13453E+05
 0.11030059E+01 -0.13434E+05
 0.11530058E+01 -0.13321E+05
 0.12030058E+01 -0.13577E+05
 0.12530057E+01 -0.13419E+05
 0.13030057E+01 -0.13411E+05
 0.13530059E+01 -0.13555E+05
 0.14030058E+01 -0.13500E+05
 0.14530058E+01 -0.13530E+05
 0.15030057E+01 -0.13576E+05
 0.15530057E+01 -0.13489E+05
 0.16030059E+01 -0.13584E+05
 0.16530058E+01 -0.13488E+05
 0.17030058E+01 -0.13391E+05
 0.17530057E+01 -0.13672E+05
 0.18030057E+01 -0.13465E+05
 0.18530056E+01 -0.13583E+05
 0.19030058E+01 -0.13499E+05
 0.19530058E+01 -0.13363E+05
 0.20030057E+01 -0.13605E+05
 0.20530057E+01 -0.13552E+05
 0.21030059E+01 -0.13466E+05
 0.21530056E+01 -0.13558E+05
 0.22030058E+01 -0.13563E+05
 0.22530055E+01 -0.13507E+05
 0.23030057E+01 -0.13559E+05
 0.23530059E+01 -0.13513E+05
 0.24030056E+01 -0.13561E+05
 0.24530058E+01 -0.13590E+05
 0.25030055E+01 -0.13512E+05
 0.25530057E+01 -0.13534E+05
 0.26030059E+01 -0.13546E+05
 0.26530056E+01 -0.13394E+05
 0.27030058E+01 -0.13527E+05
 0.27530055E+01 -0.13656E+05
 0.28030057E+01 -0.13386E+05
 0.28530059E+01 -0.13543E+05
 0.29030056E+01 -0.13475E+05
 0.29530058E+01 -0.13441E+05
 0.30030055E+01 -0.13595E+05
 0.30530057E+01 -0.13554E+05
 0.31030059E+01 -0.13679E+05
 0.31530056E+01 -0.13696E+05
 0.32030058E+01 -0.13488E+05
 0.32530055E+01 -0.13712E+05
 0.33030057E+01 -0.13723E+05
 0.33530059E+01 -0.13648E+05
 0.34030056E+01 -0.13667E+05
 0.34530058E+01 -0.13670E+05
 0.35030055E+01 -0.13693E+05
 0.35530057E+01 -0.13522E+05
 0.36030054E+01 -0.13451E+05
 0.36530056E+01 -0.13534E+05
 0.37030058E+01 -0.13553E+05
 0.37530055E+01 -0.13346E+05
 0.38030057E+01 -0.13506E+05
 0.38530054E+01 -0.13166E+05
 0.39030056E+01 -0.13387E+05
 0.39530058E+01 -0.13325E+05
 0.40030055E+01 -0.13547E+05
 0.40530057E+01 -0.13419E+05
 0.41030054E+01 -0.13447E+05
 0.41530056E+01 -0.13452E+05
 0.42030058E+01 -0.13155E+05
 0.42530055E+01 -0.13780E+05
 0.43030057E+01 -0.13464E+05
 0.43530054E+01 -0.13645E+05
 0.44030056E+01 -0.13634E+05
 0.44530058E+01 -0.13424E+05
 0.45030055E+01 -0.13456E+05
 0.45530057E+01 -0.13557E+05
 0.46030054E+01 -0.13584E+05
 0.46530056E+01 -0.13651E+05
 0.47030058E+01 -0.13622E+05
 0.47530055E+01 -0.13646E+05
 0.48030057E+01 -0.13613E+05
 0.48530054E+01 -0.13629E+05
 0.49030056E+01 -0.13626E+05
 0.49530058E+01 -0.13634E+05
 0.50030055E+01 -0.13625E+05
 0.50530057E+01 -0.13500E+05
 0.51030054E+01 -0.13403E+05
 0.51530056E+01 -0.13547E+05
 0.52030058E+01 -0.13432E+05
 0.52530055E+01 -0.13374E+05
 0.53030057E+01 -0.13501E+05
 0.53530054E+01 -0.13478E+05
 0.54030056E+01 -0.13518E+05
 0.54530053E+01 -0.13341E+05
 0.55030055E+01 -0.13469E+05
 0.55530057E+01 -0.13452E+05
 0.56030054E+01 -0.13493E+05
 0.56530056E+01 -0.13586E+05
 0.57030053E+01 -0.13494E+05
 0.57530055E+01 -0.13489E+05
 0.58030057E+01 -0.13522E+05
 0.58530054E+01 -0.13425E+05
 0.59030056E+01 -0.13476E+05
 0.59530053E+01 -0.13587E+05
 0.60030055E+01 -0.13597E+05
 0.60530052E+01 -0.13638E+05
 0.61030054E+01 -0.13481E+05
 0.61530056E+01 -0.13523E+05
 0.62030058E+01 -0.13524E+05
 0.62530050E+01 -0.13436E+05
 0.63030052E+01 -0.13615E+05
 0.63530054E+01 -0.13514E+05
 0.64030056E+01 -0.13490E+05
 0.64530058E+01 -0.13563E+05
 0.65030050E+01 -0.13405E+05
 0.65530052E+01 -0.13468E+05
 0.66030054E+01 -0.13485E+05
 0.66530056E+01 -0.13491E+05
 0.67030058E+01 -0.13737E+05
 0.67530050E+01 -0.13621E+05
 0.68030052E+01 -0.13616E+05
 0.68530054E+01 -0.13617E+05
 0.69030056E+01 -0.13609E+05
 0.69530058E+01 -0.13709E+05
 0.70030050E+01 -0.13659E+05
 0.70530052E+01 -0.13711E+05
 0.71030054E+01 -0.13685E+05
 0.71530056E+01 -0.13528E+05
 0.72030058E+01 -0.13580E+05
 0.72530050E+01 -0.13546E+05
 0.73030052E+01 -0.13540E+05
 0.73530054E+01 -0.13493E+05
 0.74030056E+01 -0.13364E+05
 0.74530058E+01 -0.13435E+05
 0.75030050E+01 -0.13460E+05
 0.75530052E+01 -0.13472E+05
 0.76030054E+01 -0.13401E+05
 0.76530056E+01 -0.13391E+05
 0.77030058E+01 -0.13452E+05
 0.77530050E+01 -0.13461E+05
 0.78030052E+01 -0.13495E+05
 0.78530054E+01 -0.13457E+05
 0.79030056E+01 -0.13511E+05
 0.79530058E+01 -0.13527E+05
 0.80030050E+01 -0.13565E+05
 0.80530052E+01 -0.13579E+05
 0.81030054E+01 -0.13495E+05
 0.81530056E+01 -0.13494E+05
 0.82030058E+01 -0.13451E+05
 0.82530050E+01 -0.13679E+05
 0.83030052E+01 -0.13595E+05
 0.83530054E+01 -0.13513E+05
 0.84030056E+01 -0.13630E+05
 0.84530058E+01 -0.13542E+05
 0.85030050E+01 -0.13450E+05
 0.85530052E+01 -0.13487E+05
 0.86030054E+01 -0.13502E+05
 0.86530056E+01 -0.13442E+05
 0.87030058E+01 -0.13453E+05
 0.87530050E+01 -0.13346E+05
 0.88030052E+01 -0.13439E+05
 0.88530054E+01 -0.13477E+05
 0.89030056E+01 -0.13436E+05
 0.89530058E+01 -0.13564E+05
 0.90030050E+01 -0.13616E+05
 0.90530052E+01 -0.13591E+05
 0.91030054E+01 -0.13595E+05
 0.91530056E+01 -0.13562E+05
 0.92030048E+01 -0.13641E+05
 0.92530050E+01 -0.13645E+05
 0.93030052E+01 -0.13619E+05
 0.93530054E+01 -0.13561E+05
 0.94030056E+01 -0.13552E+05
 0.94530048E+01 -0.13574E+05
 0.95030050E+01 -0.13513E+05
 0.95530052E+01 -0.13602E+05
 0.96030054E+01 -0.13550E+05
 0.96530056E+01 -0.13572E+05
 0.97030048E+01 -0.13595E+05
 0.97530050E+01 -0.13543E+05
 0.98030052E+01 -0.13665E+05
 0.98530054E+01 -0.13569E+05
 0.99030056E+01 -0.13507E+05
 0.99530048E+01 -0.13494E+05
 0.10003005E+02 -0.13459E+05
 0.10053005E+02 -0.13477E+05
 0.10103005E+02 -0.13433E+05
 0.10153006E+02 -0.13431E+05
 0.10203005E+02 -0.13375E+05
 0.10253005E+02 -0.13388E+05
 0.10303005E+02 -0.13427E+05
 0.10353005E+02 -0.13495E+05
 0.10403006E+02 -0.13500E+05
 0.10453005E+02 -0.13544E+05
 0.10503005E+02 -0.13582E+05
 0.10553005E+02 -0.13558E+05
 0.10603005E+02 -0.13553E+05
 0.10653006E+02 -0.13625E+05
 0.10703005E+02 -0.13630E+05
 0.10753005E+02 -0.13644E+05
 0.10803005E+02 -0.13587E+05
 0.10853005E+02 -0.13596E+05
 0.10903006E+02 -0.13583E+05
 0.10953005E+02 -0.13551E+05
 0.11003005E+02 -0.13590E+05
 0.11053005E+02 -0.13561E+05
 0.11103005E+02 -0.13495E+05
 0.11153006E+02 -0.13455E+05
 0.11203005E+02 -0.13545E+05
 0.11253005E+02 -0.13520E+05
 0.11303005E+02 -0.13508E+05
 0.11353005E+02 -0.13448E+05
 0.11403006E+02 -0.13434E+05
 0.11453005E+02 -0.13406E+05
 0.11503005E+02 -0.13446E+05
 0.11553005E+02 -0.13528E+05
 0.11603005E+02 -0.13558E+05
 0.11653006E+02 -0.13567E+05
 0.11703005E+02 -0.13561E+05
 0.11753005E+02 -0.13553E+05
 0.11803005E+02 -0.13576E+05
 0.11853005E+02 -0.13578E+05
 0.11903006E+02 -0.13509E+05
 0.11953005E+02 -0.13507E+05
 0.12003005E+02 -0.13527E+05
 0.12053005E+02 -0.13521E+05
 0.12103005E+02 -0.13511E+05
 0.12153006E+02 -0.13547E+05
 0.12203005E+02 -0.13469E+05
 0.12253005E+02 -0.13444E+05
 0.12303005E+02 -0.13441E+05
 0.12353005E+02 -0.13476E+05
 0.12403006E+02 -0.13450E+05
 0.12453005E+02 -0.13505E+05
 0.12503005E+02 -0.13504E+05
 0.12553005E+02 -0.13528E+05
 0.12603005E+02 -0.13554E+05
 0.12653005E+02 -0.13497E+05
 0.12703005E+02 -0.13594E+05
 0.12753005E+02 -0.13538E+05
 0.12803005E+02 -0.13630E+05
 0.12853005E+02 -0.13628E+05
 0.12903005E+02 -0.13638E+05
 0.12953005E+02 -0.13630E+05
 0.13003005E+02 -0.13575E+05
 0.13053005E+02 -0.13604E+05
 0.13103005E+02 -0.13520E+05
 0.13153005E+02 -0.13478E+05
 0.13203005E+02 -0.13522E+05
 0.13253005E+02 -0.13452E+05
 0.13303005E+02 -0.13419E+05
 0.13353005E+02 -0.13421E+05
 0.13403005E+02 -0.13400E+05
 0.13453005E+02 -0.13428E+05
 0.13503005E+02 -0.13401E+05
 0.13553005E+02 -0.13405E+05
 0.13603005E+02 -0.13464E+05
 0.13653005E+02 -0.13469E+05
 0.13703005E+02 -0.13480E+05
 0.13753005E+02 -0.13527E+05
 0.13803005E+02 -0.13639E+05
 0.13853005E+02 -0.13713E+05
 0.13903005E+02 -0.13665E+05
 0.13953005E+02 -0.13753E+05
 0.14003005E+02 -0.13647E+05
 0.14053005E+02 -0.13652E+05
 0.14103004E+02 -0.13651E+05
 0.14153006E+02 -0.13603E+05
 0.14203005E+02 -0.13592E+05
 0.14253004E+02 -0.13508E+05
 0.14303005E+02 -0.13489E+05
 0.14353004E+02 -0.13424E+05
 0.14403006E+02 -0.13416E+05
 0.14453005E+02 -0.13415E+05
 0.14503004E+02 -0.13399E+05
 0.14553005E+02 -0.13406E+05
 0.14603004E+02 -0.13460E+05
 0.14653006E+02 -0.13413E+05
 0.14703005E+02 -0.13474E+05
 0.14753004E+02 -0.13508E+05
 0.14803005E+02 -0.13445E+05
 0.14853004E+02 -0.13490E+05
 0.14903006E+02 -0.13489E+05
 0.14953005E+02 -0.13502E+05
 0.15003004E+02 -0.13517E+05
 0.15053005E+02 -0.13497E+05
 0.15103004E+02 -0.13524E+05
 0.15153006E+02 -0.13583E+05
 0.15203005E+02 -0.13636E+05
 0.15253004E+02 -0.13541E+05
 0.15303005E+02 -0.13590E+05
 0.15353004E+02 -0.13621E+05
 0.15403006E+02 -0.13579E+05
 0.15453005E+02 -0.13646E+05
 0.15503004E+02 -0.13621E+05
 0.15553005E+02 -0.13589E+05
 0.15603004E+02 -0.13595E+05
 0.15653006E+02 -0.13598E+05
 0.15703005E+02 -0.13548E+05
 0.15753004E+02 -0.13571E+05
 0.15803005E+02 -0.13503E+05
 0.15853004E+02 -0.13513E+05
 0.15903006E+02 -0.13482E+05
 0.15953005E+02 -0.13433E+05
 0.16003004E+02 -0.13454E+05
 0.16053005E+02 -0.13498E+05
 0.16103004E+02 -0.13440E+05
 0.16153006E+02 -0.13416E+05
 0.16203005E+02 -0.13493E+05
 0.16253004E+02 -0.13450E+05
 0.16303005E+02 -0.13522E+05
 0.16353004E+02 -0.13535E+05
 0.16403006E+02 -0.13594E+05
 0.16453005E+02 -0.13637E+05
 0.16503004E+02 -0.13543E+05
 0.16553005E+02 -0.13578E+05
 0.16603004E+02 -0.13624E+05
 0.16653006E+02 -0.13572E+05
 0.16703005E+02 -0.13578E+05
 0.16753004E+02 -0.13559E+05
 0.16803005E+02 -0.13532E+05
 0.16853004E+02 -0.13532E+05
 0.16903006E+02 -0.13523E+05
 0.16953005E+02 -0.13546E+05
 0.17003004E+02 -0.13574E+05
 0.17053005E+02 -0.13557E+05
 0.17103004E+02 -0.13532E+05
 0.17153006E+02 -0.13517E+05
 0.17203005E+02 -0.13590E+05
 0.17253004E+02 -0.13617E+05
 0.17303005E+02 -0.13610E+05
 0.17353004E+02 -0.13624E+05
 0.17403006E+02 -0.13565E+05
 0.17453005E+02 -0.13540E+05
 0.17503004E+02 -0.13547E+05
 0.17553005E+02 -0.13567E+05
 0.17603004E+02 -0.13570E+05
 0.17653006E+02 -0.13499E+05
 0.17703005E+02 -0.13520E+05
 0.17753004E+02 -0.13449E+05
 0.17803005E+02 -0.13365E+05
 0.17853004E+02 -0.13441E+05
 0.17903006E+02 -0.13405E+05
 0.17953005E+02 -0.13419E+05
 0.18003004E+02 -0.13425E+05
 0.18053005E+02 -0.13391E+05
 0.18103004E+02 -0.13447E+05
 0.18153006E+02 -0.13403E+05
 0.18203005E+02 -0.13431E+05
 0.18253004E+02 -0.13463E+05
 0.18303005E+02 -0.13477E+05
 0.18353004E+02 -0.13521E+05
 0.18403006E+02 -0.13531E+05
 0.18453005E+02 -0.13604E+05
 0.18503004E+02 -0.13603E+05
 0.18553005E+02 -0.13618E+05
 0.18603004E+02 -0.13645E+05
 0.18653006E+02 -0.13591E+05
 0.18703005E+02 -0.13638E+05
 0.18753004E+02 -0.13560E+05
 0.18803005E+02 -0.13547E+05
 0.18853004E+02 -0.13579E+05
 0.18903006E+02 -0.13497E+05
 0.18953005E+02 -0.13497E+05
 0.19003004E+02 -0.13462E+05
 0.19053005E+02 -0.13489E+05
 0.19103004E+02 -0.13452E+05
 0.19153006E+02 -0.13474E+05
 0.19203005E+02 -0.13473E+05
 0.19253004E+02 -0.13453E+05
 0.19303005E+02 -0.13474E+05
 0.19353004E+02 -0.13517E+05
 0.19403006E+02 -0.13482E+05
 0.19453005E+02 -0.13494E+05
 0.19503004E+02 -0.13567E+05
 0.19553005E+02 -0.13523E+05
 0.19603004E+02 -0.13646E+05
 0.19653006E+02 -0.13654E+05
 0.19703005E+02 -0.13613E+05
 0.19753004E+02 -0.13635E+05
 0.19803005E+02 -0.13611E+05
 0.19853004E+02 -0.13604E+05
 0.19903006E+02 -0.13621E+05
 0.19953005E+02 -0.13593E+05
 0.20003004E+02 -0.13579E+05
 0.20053005E+02 -0.13525E+05
 0.20103004E+02 -0.13499E+05
 0.20153006E+02 -0.13501E+05
 0.20203005E+02 -0.13450E+05
 0.20253004E+02 -0.13470E+05
 0.20303005E+02 -0.13453E+05
 0.20353004E+02 -0.13468E+05
 0.20403004E+02 -0.13502E+05
 0.20453005E+02 -0.13492E+05
 0.20503004E+02 -0.13491E+05
 0.20553005E+02 -0.13522E+05
 0.20603004E+02 -0.13515E+05
 0.20653004E+02 -0.13554E+05
 0.20703005E+02 -0.13583E+05
 0.20753004E+02 -0.13536E+05
 0.20803005E+02 -0.13525E+05
 0.20853004E+02 -0.13534E+05
 0.20903004E+02 -0.13494E+05
 0.20953005E+02 -0.13511E+05
 0.21003004E+02 -0.13459E+05
 0.21053005E+02 -0.13491E+05
 0.21103004E+02 -0.13559E+05
 0.21153004E+02 -0.13517E+05
 0.21203005E+02 -0.13578E+05
 0.21253004E+02 -0.13609E+05
 0.21303005E+02 -0.13590E+05
 0.21353004E+02 -0.13664E+05
 0.21403004E+02 -0.13624E+05
 0.21453005E+02 -0.13626E+05
 0.21503004E+02 -0.13687E+05
 0.21553005E+02 -0.13570E+05
 0.21603004E+02 -0.13626E+05
 0.21653004E+02 -0.13580E+05
 0.21703005E+02 -0.13449E+05
 0.21753004E+02 -0.13494E+05
 0.21803005E+02 -0.13446E+05
 0.21853004E+02 -0.13375E+05
 0.21903004E+02 -0.13409E+05
 0.21953005E+02 -0.13348E+05
 0.22003004E+02 -0.13349E+05
 0.22053005E+02 -0.13418E+05
 0.22103004E+02 -0.13434E+05
 0.22153004E+02 -0.13461E+05
 0.22203005E+02 -0.13496E+05
 0.22253004E+02 -0.13546E+05
 0.22303005E+02 -0.13579E+05
 0.22353004E+02 -0.13633E+05
 0.22403004E+02 -0.13594E+05
 0.22453005E+02 -0.13629E+05
 0.22503004E+02 -0.13648E+05
 0.22553005E+02 -0.13609E+05
 0.22603004E+02 -0.13566E+05
 0.22653004E+02 -0.13547E+05
 0.22703005E+02 -0.13495E+05
 0.22753004E+02 -0.13439E+05
 0.22803005E+02 -0.13431E+05
 0.22853004E+02 -0.13426E+05
 0.22903004E+02 -0.13404E+05
 0.22953005E+02 -0.13360E+05
 0.23003004E+02 -0.13421E+05
 0.23053005E+02 -0.13390E+05
 0.23103004E+02 -0.13448E+05
 0.23153004E+02 -0.13485E+05
 0.23203005E+02 -0.13461E+05
 0.23253004E+02 -0.13500E+05
 0.23303005E+02 -0.13516E+05
 0.23353004E+02 -0.13628E+05
 0.23403004E+02 -0.13553E+05
 0.23453005E+02 -0.13578E+05
 0.23503004E+02 -0.13606E+05
 0.23553005E+02 -0.13552E+05
 0.23603004E+02 -0.13597E+05
 0.23653004E+02 -0.13631E+05
 0.23703005E+02 -0.13610E+05
 0.23753004E+02 -0.13587E+05
 0.23803005E+02 -0.13584E+05
 0.23853004E+02 -0.13570E+05
 0.23903004E+02 -0.13702E+05
 0.23953005E+02 -0.13566E+05
 0.24003004E+02 -0.13569E+05
 0.24053005E+02 -0.13653E+05
 0.24103004E+02 -0.13572E+05
 0.24153004E+02 -0.13511E+05
 0.24203005E+02 -0.13603E+05
 0.24253004E+02 -0.13581E+05
 0.24303005E+02 -0.13552E+05
 0.24353004E+02 -0.13473E+05
 0.24403004E+02 -0.13428E+05
 0.24453005E+02 -0.13497E+05
 0.24503004E+02 -0.13461E+05
 0.24553005E+02 -0.13485E+05
 0.24603004E+02 -0.13466E+05
 0.24653004E+02 -0.13492E+05
 0.24703005E+02 -0.13585E+05
 0.24753004E+02 -0.13526E+05
 0.24803005E+02 -0.13486E+05
 0.24853004E+02 -0.13587E+05
 0.24903004E+02 -0.13558E+05
 0.24953005E+02 -0.13614E+05
 0.25003004E+02 -0.13546E+05
 0.25053005E+02 -0.13592E+05
 0.25103004E+02 -0.13605E+05
 0.25153004E+02 -0.13558E+05
 0.25203005E+02 -0.13557E+05
 0.25253004E+02 -0.13505E+05
 0.25303005E+02 -0.13567E+05
 0.25353004E+02 -0.13480E+05
 0.25403004E+02 -0.13435E+05
 0.25453005E+02 -0.13459E+05
 0.25503004E+02 -0.13470E+05
 0.25553005E+02 -0.13527E+05
 0.25603004E+02 -0.13457E+05
 0.25653004E+02 -0.13461E+05
 0.25703005E+02 -0.13475E+05
 0.25753004E+02 -0.13511E+05
 0.25803005E+02 -0.13509E+05
 0.25853004E+02 -0.13547E+05
 0.25903004E+02 -0.13530E+05
 0.25953005E+02 -0.13557E+05
 0.26003004E+02 -0.13618E+05
 0.26053005E+02 -0.13546E+05
 0.26103004E+02 -0.13628E+05
 0.26153004E+02 -0.13488E+05
 0.26203005E+02 -0.13565E+05
 0.26253004E+02 -0.13480E+05
 0.26303005E+02 -0.13462E+05
 0.26353004E+02 -0.13576E+05
 0.26403004E+02 -0.13414E+05
 0.26453005E+02 -0.13483E+05
 0.26503004E+02 -0.13487E+05
 0.26553005E+02 -0.13448E+05
 0.26603004E+02 -0.13466E+05
 0.26653004E+02 -0.13428E+05
 0.26703005E+02 -0.13445E+05
 0.26753004E+02 -0.13493E+05
 0.26803005E+02 -0.13463E+05
 0.26853004E+02 -0.13456E+05
 0.26903004E+02 -0.13454E+05
 0.26953005E+02 -0.13484E+05
 0.27003004E+02 -0.13509E+05
 0.27053003E+02 -0.13501E+05
 0.27103004E+02 -0.13559E+05
 0.27153004E+02 -0.13542E+05
 0.27203005E+02 -0.13549E+05
 0.27253004E+02 -0.13557E+05
 0.27303003E+02 -0.13561E+05
 0.27353004E+02 -0.13624E+05
 0.27403004E+02 -0.13623E+05
 0.27453005E+02 -0.13623E+05
 0.27503004E+02 -0.13599E+05
 0.27553003E+02 -0.13577E+05
 0.27603004E+02 -0.13656E+05
 0.27653004E+02 -0.13600E+05
 0.27703005E+02 -0.13598E+05
 0.27753004E+02 -0.13639E+05
 0.27803003E+02 -0.13602E+05
 0.27853004E+02 -0.13605E+05
 0.27903004E+02 -0.13585E+05
 0.27953005E+02 -0.13569E+05
 0.28003004E+02 -0.13522E+05
 0.28053003E+02 -0.13541E+05
 0.28103004E+02 -0.13586E+05
 0.28153004E+02 -0.13567E+05
 0.28203005E+02 -0.13521E+05
 0.28253004E+02 -0.13533E+05
 0.28303003E+02 -0.13492E+05
 0.28353004E+02 -0.13533E+05
 0.28403004E+02 -0.13500E+05
 0.28453005E+02 -0.13443E+05
 0.28503004E+02 -0.13522E+05
 0.28553003E+02 -0.13472E+05
 0.28603004E+02 -0.13481E+05
 0.28653004E+02 -0.13450E+05
 0.28703005E+02 -0.13436E+05
 0.28753004E+02 -0.13475E+05
 0.28803003E+02 -0.13444E+05
 0.28853004E+02 -0.13445E+05
 0.28903004E+02 -0.13484E+05
 0.28953005E+02 -0.13491E+05
 0.29003004E+02 -0.13494E+05
 0.29053003E+02 -0.13494E+05
 0.29103004E+02 -0.13454E+05
 0.29153004E+02 -0.13487E+05
 0.29203005E+02 -0.13481E+05
 0.29253004E+02 -0.13496E+05
 0.29303003E+02 -0.13535E+05
 0.29353004E+02 -0.13612E+05
 0.29403004E+02 -0.13584E+05
 0.29453005E+02 -0.13563E+05
 0.29503004E+02 -0.13648E+05
 0.29553003E+02 -0.13578E+05
 0.29603004E+02 -0.13569E+05
 0.29653004E+02 -0.13581E+05
 0.29703005E+02 -0.13546E+05
 0.29753004E+02 -0.13555E+05
 0.29803003E+02 -0.13552E+05
 0.29853004E+02 -0.13487E+05
 0.29903004E+02 -0.13446E+05
 0.29953005E+02 -0.13412E+05
 0.30003004E+02 -0.13438E+05
 0.30053005E+02 -0.13438E+05
 0.30103004E+02 -0.13438E+05
 0.30153004E+02 -0.13463E+05
 0.30203003E+02 -0.13502E+05
 0.30253002E+02 -0.13552E+05
 0.30303005E+02 -0.13533E+05
 0.30353004E+02 -0.13585E+05
 0.30403004E+02 -0.13593E+05
 0.30453003E+02 -0.13614E+05
 0.30503002E+02 -0.13632E+05
 0.30553005E+02 -0.13637E+05
 0.30603004E+02 -0.13558E+05
 0.30653004E+02 -0.13501E+05
 0.30703003E+02 -0.13521E+05
 0.30753002E+02 -0.13493E+05
 0.30803005E+02 -0.13457E+05
 0.30853004E+02 -0.13422E+05
 0.30903004E+02 -0.13432E+05
 0.30953003E+02 -0.13425E+05
 0.31003002E+02 -0.13412E+05
 0.31053005E+02 -0.13405E+05
 0.31103004E+02 -0.13518E+05
 0.31153004E+02 -0.13509E+05
 0.31203003E+02 -0.13536E+05
 0.31253002E+02 -0.13604E+05
 0.31303005E+02 -0.13580E+05
 0.31353004E+02 -0.13644E+05
 0.31403004E+02 -0.13608E+05
 0.31453003E+02 -0.13546E+05
 0.31503002E+02 -0.13543E+05
 0.31553005E+02 -0.13470E+05
 0.31603004E+02 -0.13560E+05
 0.31653004E+02 -0.13609E+05
 0.31703003E+02 -0.13475E+05
 0.31753002E+02 -0.13378E+05
 0.31803005E+02 -0.13369E+05
 0.31853004E+02 -0.13520E+05
 0.31903004E+02 -0.13442E+05
 0.31953003E+02 -0.13574E+05
 0.32003002E+02 -0.13745E+05
 0.32053005E+02 -0.13847E+05
 0.32103004E+02 -0.13767E+05
 0.32153004E+02 -0.13683E+05
 0.32203003E+02 -0.13602E+05
 0.32253002E+02 -0.13562E+05
 0.32303005E+02 -0.13706E+05
 0.32353004E+02 -0.13531E+05
 0.32403004E+02 -0.13496E+05
 0.32453003E+02 -0.13377E+05
 0.32503002E+02 -0.13520E+05
 0.32553005E+02 -0.13568E+05
 0.32603004E+02 -0.13440E+05
 0.32653004E+02 -0.13420E+05
 0.32703003E+02 -0.13468E+05
 0.32753002E+02 -0.13519E+05
 0.32803005E+02 -0.13235E+05
 0.32853004E+02 -0.13395E+05
 0.32903004E+02 -0.13200E+05
 0.32953003E+02 -0.13731E+05
 0.33003002E+02 -0.13827E+05
 0.33053005E+02 -0.13431E+05
 0.33103004E+02 -0.13602E+05
 0.33153004E+02 -0.13393E+05
 0.33203003E+02 -0.13805E+05
 0.33253002E+02 -0.13405E+05
 0.33303005E+02 -0.13728E+05
 0.33353004E+02 -0.13683E+05
 0.33403004E+02 -0.13792E+05
 0.33453003E+02 -0.13951E+05
 0.33503002E+02 -0.13554E+05
 0.33553005E+02 -0.13553E+05
 0.33603004E+02 -0.13109E+05
 0.33653004E+02 -0.13578E+05
 0.33703003E+02 -0.13432E+05
 0.33753002E+02 -0.13682E+05
 0.33803005E+02 -0.13362E+05
 0.33853004E+02 -0.13548E+05
 0.33903004E+02 -0.13469E+05
 0.33953003E+02 -0.12674E+05
 0.34003002E+02 -0.13414E+05
 0.34053005E+02 -0.13479E+05
 0.34103004E+02 -0.13667E+05
 0.34153004E+02 -0.13336E+05
 0.34203003E+02 -0.13695E+05
 0.34253002E+02 -0.13377E+05
 0.34303005E+02 -0.12924E+05
 0.34353004E+02 -0.13937E+05
 0.34403004E+02 -0.14087E+05
 0.34453003E+02 -0.13523E+05
 0.34503002E+02 -0.13195E+05
 0.34553005E+02 -0.13486E+05
 0.34603004E+02 -0.13223E+05
 0.34653004E+02 -0.13168E+05
 0.34703003E+02 -0.13547E+05
 0.34753002E+02 -0.13293E+05
 0.34803005E+02 -0.13071E+05
 0.34853004E+02 -0.14208E+05
 0.34903004E+02 -0.14161E+05
 0.34953003E+02 -0.12872E+05
 0.35003002E+02 -0.13217E+05
 0.35053005E+02 -0.13695E+05
 0.35103004E+02 -0.13304E+05
 0.35153004E+02 -0.13710E+05
 0.35203003E+02 -0.13494E+05
 0.35253002E+02 -0.13410E+05
 0.35303005E+02 -0.13899E+05
 0.35353004E+02 -0.13528E+05
 0.35403004E+02 -0.14029E+05
 0.35453003E+02 -0.14023E+05
 0.35503002E+02 -0.14149E+05
 0.35553005E+02 -0.14988E+05
 0.35603004E+02 -0.14492E+05
 0.35653004E+02 -0.13994E+05
 0.35703003E+02 -0.13872E+05
 0.35753002E+02 -0.13477E+05
 0.35803005E+02 -0.13585E+05
 0.35853004E+02 -0.13930E+05
 0.35903004E+02 -0.13964E+05
 0.35953003E+02 -0.13618E+05
 0.36003002E+02 -0.12824E+05
 0.36053005E+02 -0.13048E+05
 0.36103004E+02 -0.12147E+05
 0.36153004E+02 -0.10861E+05
 0.36203003E+02 -0.12070E+05
 0.36253002E+02 -0.12233E+05
 0.36303005E+02 -0.12158E+05
 0.36353004E+02 -0.13009E+05
 0.36403004E+02 -0.13140E+05
 0.36453003E+02 -0.13382E+05
 0.36503002E+02 -0.13937E+05
 0.36553005E+02 -0.14618E+05
 0.36603004E+02 -0.15176E+05
 0.36653004E+02 -0.14385E+05
 0.36703003E+02 -0.14577E+05
 0.36753002E+02 -0.13891E+05
 0.36803005E+02 -0.13951E+05
 0.36853004E+02 -0.15756E+05
 0.36903004E+02 -0.15798E+05
 0.36953003E+02 -0.15952E+05
 0.37003002E+02 -0.14555E+05
 0.37053005E+02 -0.12868E+05
 0.37103004E+02 -0.13365E+05
 0.37153004E+02 -0.13026E+05
 0.37203003E+02 -0.11855E+05
 0.37253002E+02 -0.12403E+05
 0.37303005E+02 -0.11776E+05
 0.37353004E+02 -0.10889E+05
 0.37403004E+02 -0.10948E+05
 0.37453003E+02 -0.12211E+05
 0.37503002E+02 -0.13147E+05
 0.37553005E+02 -0.13088E+05
 0.37603004E+02 -0.13478E+05
 0.37653004E+02 -0.14636E+05
 0.37703003E+02 -0.15264E+05
 0.37753002E+02 -0.13822E+05
 0.37803005E+02 -0.14102E+05
 0.37853004E+02 -0.14776E+05
 0.37903004E+02 -0.15001E+05
 0.37953003E+02 -0.14886E+05
 0.38003002E+02 -0.13655E+05
 0.38053005E+02 -0.12301E+05
 0.38103004E+02 -0.13610E+05
 0.38153004E+02 -0.14374E+05
 0.38203003E+02 -0.13679E+05
 0.38253002E+02 -0.13870E+05
 0.38303005E+02 -0.13984E+05
 0.38353004E+02 -0.13374E+05
 0.38403004E+02 -0.11882E+05
 0.38453003E+02 -0.11533E+05
 0.38503002E+02 -0.12218E+05
 0.38553005E+02 -0.12560E+05
 0.38603004E+02 -0.13820E+05
 0.38653004E+02 -0.15297E+05
 0.38703003E+02 -0.13788E+05
 0.38753002E+02 -0.12122E+05
 0.38803005E+02 -0.12532E+05
 0.38853004E+02 -0.13174E+05
 0.38903004E+02 -0.13935E+05
 0.38953003E+02 -0.15866E+05
 0.39003002E+02 -0.16268E+05
 0.39053005E+02 -0.14583E+05
 0.39103004E+02 -0.13716E+05
 0.39153004E+02 -0.13161E+05
 0.39203003E+02 -0.13875E+05
 0.39253002E+02 -0.14708E+05
 0.39303005E+02 -0.13184E+05
 0.39353004E+02 -0.12571E+05
 0.39403004E+02 -0.11782E+05
 0.39453003E+02 -0.11563E+05
 0.39503002E+02 -0.12569E+05
 0.39553005E+02 -0.13073E+05
 0.39603004E+02 -0.13480E+05
 0.39653004E+02 -0.14527E+05
 0.39703003E+02 -0.14207E+05
 0.39753002E+02 -0.12565E+05
 0.39803005E+02 -0.12546E+05
 0.39853004E+02 -0.12579E+05
 0.39903004E+02 -0.13631E+05
 0.39953003E+02 -0.13903E+05
 0.40003002E+02 -0.12969E+05
 0.40053005E+02 -0.12651E+05
 0.40103004E+02 -0.13195E+05
 0.40153004E+02 -0.13322E+05
 0.40203003E+02 -0.13160E+05
 0.40253002E+02 -0.14408E+05
 0.40303005E+02 -0.14839E+05
 0.40353004E+02 -0.15153E+05
 0.40403004E+02 -0.14103E+05
 0.40453003E+02 -0.12631E+05
 0.40503002E+02 -0.12690E+05
 0.40553005E+02 -0.14424E+05
 0.40603004E+02 -0.14889E+05
 0.40653004E+02 -0.13399E+05
 0.40703003E+02 -0.13493E+05
 0.40753002E+02 -0.13991E+05
 0.40803005E+02 -0.14155E+05
 0.40853004E+02 -0.13001E+05
 0.40903004E+02 -0.13317E+05
 0.40953003E+02 -0.13227E+05
 0.41003002E+02 -0.11956E+05
 0.41053005E+02 -0.12236E+05
 0.41103004E+02 -0.13534E+05
 0.41153004E+02 -0.14140E+05
 0.41203003E+02 -0.12945E+05
 0.41253002E+02 -0.12852E+05
 0.41303005E+02 -0.14585E+05
 0.41353004E+02 -0.14789E+05
 0.41403004E+02 -0.14764E+05
 0.41453003E+02 -0.15812E+05
 0.41503002E+02 -0.14785E+05
 0.41553005E+02 -0.12607E+05
 0.41603004E+02 -0.11392E+05
 0.41653004E+02 -0.12082E+05
 0.41703003E+02 -0.13812E+05
 0.41753002E+02 -0.14191E+05
 0.41803005E+02 -0.14027E+05
 0.41853004E+02 -0.12316E+05
 0.41903004E+02 -0.10888E+05
 0.41953003E+02 -0.12117E+05
 0.42003002E+02 -0.12813E+05
 0.42053005E+02 -0.13784E+05
 0.42103004E+02 -0.13481E+05
 0.42153004E+02 -0.13749E+05
 0.42203003E+02 -0.13995E+05
 0.42253002E+02 -0.13855E+05
 0.42303005E+02 -0.15192E+05
 0.42353004E+02 -0.15797E+05
 0.42403004E+02 -0.15526E+05
 0.42453003E+02 -0.15802E+05
 0.42503002E+02 -0.15358E+05
 0.42553005E+02 -0.13902E+05
 0.42603004E+02 -0.13537E+05
 0.42653004E+02 -0.13269E+05
 0.42703003E+02 -0.14108E+05
 0.42753002E+02 -0.12545E+05
 0.42803001E+02 -0.11420E+05
 0.42853004E+02 -0.13102E+05
 0.42903004E+02 -0.12227E+05
 0.42953003E+02 -0.11675E+05
 0.43003002E+02 -0.12274E+05
 0.43053001E+02 -0.12405E+05
 0.43103004E+02 -0.12957E+05
 0.43153004E+02 -0.13271E+05
 0.43203003E+02 -0.13611E+05
 0.43253002E+02 -0.13630E+05
 0.43303001E+02 -0.12976E+05
 0.43353004E+02 -0.13465E+05
 0.43403004E+02 -0.13547E+05
 0.43453003E+02 -0.13664E+05
 0.43503002E+02 -0.14951E+05
 0.43553001E+02 -0.14800E+05
 0.43603004E+02 -0.14124E+05
 0.43653004E+02 -0.14161E+05
 0.43703003E+02 -0.13563E+05
 0.43753002E+02 -0.13376E+05
 0.43803001E+02 -0.14843E+05
 0.43853004E+02 -0.15266E+05
 0.43903004E+02 -0.14664E+05
 0.43953003E+02 -0.13536E+05
 0.44003002E+02 -0.12756E+05
 0.44053001E+02 -0.12592E+05
 0.44103004E+02 -0.12937E+05
 0.44153004E+02 -0.13308E+05
 0.44203003E+02 -0.12994E+05
 0.44253002E+02 -0.12205E+05
 0.44303001E+02 -0.11220E+05
 0.44353004E+02 -0.10527E+05
 0.44403004E+02 -0.11149E+05
 0.44453003E+02 -0.14567E+05
 0.44503002E+02 -0.15914E+05
 0.44553001E+02 -0.16255E+05
 0.44603004E+02 -0.15620E+05
 0.44653004E+02 -0.13453E+05
 0.44703003E+02 -0.12886E+05
 0.44753002E+02 -0.14331E+05
 0.44803001E+02 -0.15698E+05
 0.44853004E+02 -0.15567E+05
 0.44903004E+02 -0.14795E+05
 0.44953003E+02 -0.12860E+05
 0.45003002E+02 -0.11138E+05
 0.45053001E+02 -0.10617E+05
 0.45103004E+02 -0.11680E+05
 0.45153004E+02 -0.11821E+05
 0.45203003E+02 -0.11705E+05
 0.45253002E+02 -0.12249E+05
 0.45303001E+02 -0.12857E+05
 0.45353004E+02 -0.13670E+05
 0.45403004E+02 -0.15104E+05
 0.45453003E+02 -0.16044E+05
 0.45503002E+02 -0.15584E+05
 0.45553001E+02 -0.14758E+05
 0.45603004E+02 -0.14058E+05
 0.45653004E+02 -0.15062E+05
 0.45703003E+02 -0.15342E+05
 0.45753002E+02 -0.14165E+05
 0.45803001E+02 -0.12739E+05
 0.45853004E+02 -0.11968E+05
 0.45903004E+02 -0.11706E+05
 0.45953003E+02 -0.12124E+05
 0.46003002E+02 -0.13952E+05
 0.46053001E+02 -0.15764E+05
 0.46103004E+02 -0.15259E+05
 0.46153004E+02 -0.13248E+05
 0.46203003E+02 -0.12891E+05
 0.46253002E+02 -0.12911E+05
 0.46303001E+02 -0.12394E+05
 0.46353004E+02 -0.12309E+05
 0.46403004E+02 -0.13232E+05
 0.46453003E+02 -0.13422E+05
 0.46503002E+02 -0.12863E+05
 0.46553001E+02 -0.11648E+05
 0.46603004E+02 -0.11660E+05
 0.46653004E+02 -0.12588E+05
 0.46703003E+02 -0.14339E+05
 0.46753002E+02 -0.15907E+05
 0.46803001E+02 -0.16807E+05
 0.46853004E+02 -0.16555E+05
 0.46903004E+02 -0.14603E+05
 0.46953003E+02 -0.13692E+05
 0.47003002E+02 -0.13273E+05
 0.47053001E+02 -0.13737E+05
 0.47103004E+02 -0.13686E+05
 0.47153004E+02 -0.13273E+05
 0.47203003E+02 -0.13301E+05
 0.47253002E+02 -0.13093E+05
 0.47303001E+02 -0.11668E+05
 0.47353004E+02 -0.11555E+05
 0.47403004E+02 -0.12247E+05
 0.47453003E+02 -0.12323E+05
 0.47503002E+02 -0.12461E+05
 0.47553001E+02 -0.12520E+05
 0.47603004E+02 -0.12770E+05
 0.47653004E+02 -0.12789E+05
 0.47703003E+02 -0.12438E+05
 0.47753002E+02 -0.12809E+05
 0.47803001E+02 -0.13817E+05
 0.47853004E+02 -0.14639E+05
 0.47903004E+02 -0.15099E+05
 0.47953003E+02 -0.14932E+05
 0.48003002E+02 -0.14263E+05
 0.48053001E+02 -0.14474E+05
 0.48103004E+02 -0.15736E+05
 0.48153004E+02 -0.15708E+05
 0.48203003E+02 -0.15197E+05
 0.48253002E+02 -0.13630E+05
 0.48303001E+02 -0.11959E+05
 0.48353004E+02 -0.11938E+05
 0.48403004E+02 -0.12427E+05
 0.48453003E+02 -0.13496E+05
 0.48503002E+02 -0.13893E+05
 0.48553001E+02 -0.12926E+05
 0.48603004E+02 -0.12951E+05
 0.48653004E+02 -0.14410E+05
 0.48703003E+02 -0.14630E+05
 0.48753002E+02 -0.14228E+05
 0.48803001E+02 -0.12864E+05
 0.48853004E+02 -0.11200E+05
 0.48903004E+02 -0.12706E+05
 0.48953003E+02 -0.12613E+05
 0.49003002E+02 -0.11671E+05
 0.49053001E+02 -0.12553E+05
 0.49103004E+02 -0.13956E+05
 0.49153004E+02 -0.15043E+05
 0.49203003E+02 -0.14825E+05
 0.49253002E+02 -0.14503E+05
 0.49303001E+02 -0.14339E+05
 0.49353004E+02 -0.14580E+05
 0.49403004E+02 -0.14862E+05
 0.49453003E+02 -0.14606E+05
 0.49503002E+02 -0.14018E+05
 0.49553001E+02 -0.13494E+05
 0.49603004E+02 -0.12418E+05
 0.49653004E+02 -0.11736E+05
 0.49703003E+02 -0.11963E+05
 0.49753002E+02 -0.12636E+05
 0.49803001E+02 -0.14041E+05
 0.49853004E+02 -0.14693E+05
 0.49903004E+02 -0.13184E+05
 0.49953003E+02 -0.12745E+05
 0.50003002E+02 -0.12996E+05
 0.50053001E+02 -0.12321E+05
 0.50103004E+02 -0.12864E+05
 0.50153004E+02 -0.13496E+05
 0.50203003E+02 -0.13808E+05
 0.50253002E+02 -0.13131E+05
 0.50303001E+02 -0.13435E+05
 0.50353004E+02 -0.14575E+05
 0.50403004E+02 -0.14630E+05
 0.50453003E+02 -0.14338E+05
 0.50503002E+02 -0.14075E+05
 0.50553001E+02 -0.13929E+05
 0.50603004E+02 -0.13504E+05
 0.50653004E+02 -0.15015E+05
 0.50703003E+02 -0.15866E+05
 0.50753002E+02 -0.13397E+05
 0.50803001E+02 -0.11307E+05
 0.50853004E+02 -0.11915E+05
 0.50903004E+02 -0.13172E+05
 0.50953003E+02 -0.13984E+05
 0.51003002E+02 -0.14102E+05
 0.51053001E+02 -0.13626E+05
 0.51103004E+02 -0.13511E+05
 0.51153004E+02 -0.11959E+05
 0.51203003E+02 -0.10758E+05
 0.51253002E+02 -0.12342E+05
 0.51303001E+02 -0.13901E+05
 0.51353004E+02 -0.14537E+05
 0.51403004E+02 -0.14342E+05
 0.51453003E+02 -0.14111E+05
 0.51503002E+02 -0.14857E+05
 0.51553001E+02 -0.15550E+05
 0.51603004E+02 -0.15075E+05
 0.51653004E+02 -0.14990E+05
 0.51703003E+02 -0.14171E+05
 0.51753002E+02 -0.12719E+05
 0.51803001E+02 -0.12229E+05
 0.51853004E+02 -0.12314E+05
 0.51903004E+02 -0.13315E+05
 0.51953003E+02 -0.13159E+05
 0.52003002E+02 -0.12456E+05
 0.52053001E+02 -0.12919E+05
 0.52103004E+02 -0.12836E+05
 0.52153004E+02 -0.12941E+05
 0.52203003E+02 -0.14339E+05
 0.52253002E+02 -0.14271E+05
 0.52303001E+02 -0.14768E+05
 0.52353004E+02 -0.15300E+05
 0.52403004E+02 -0.15003E+05
 0.52453003E+02 -0.14045E+05
 0.52503002E+02 -0.12428E+05
 0.52553001E+02 -0.11370E+05
 0.52603004E+02 -0.10760E+05
 0.52653004E+02 -0.11091E+05
 0.52703003E+02 -0.13599E+05
 0.52753002E+02 -0.15661E+05
 0.52803001E+02 -0.14859E+05
 0.52853004E+02 -0.14264E+05
 0.52903004E+02 -0.13682E+05
 0.52953003E+02 -0.12923E+05
 0.53003002E+02 -0.13260E+05
 0.53053001E+02 -0.14059E+05
 0.53103004E+02 -0.13652E+05
 0.53153004E+02 -0.12689E+05
 0.53203003E+02 -0.11787E+05
 0.53253002E+02 -0.11329E+05
 0.53303001E+02 -0.11684E+05
 0.53353004E+02 -0.13584E+05
 0.53403004E+02 -0.14746E+05
 0.53453003E+02 -0.14629E+05
 0.53503002E+02 -0.14615E+05
 0.53553001E+02 -0.15228E+05
 0.53603004E+02 -0.15341E+05
 0.53653004E+02 -0.14782E+05
 0.53703003E+02 -0.15363E+05
 0.53753002E+02 -0.15040E+05
 0.53803001E+02 -0.14768E+05
 0.53853004E+02 -0.14587E+05
 0.53903004E+02 -0.15255E+05
 0.53953003E+02 -0.15027E+05
 0.54003002E+02 -0.13229E+05
 0.54053001E+02 -0.13026E+05
 0.54103004E+02 -0.12552E+05
 0.54153004E+02 -0.11521E+05
 0.54203003E+02 -0.10918E+05
 0.54253002E+02 -0.10389E+05
 0.54303001E+02 -0.98240E+04
 0.54353004E+02 -0.10902E+05
 0.54403004E+02 -0.11301E+05
 0.54453003E+02 -0.11211E+05
 0.54503002E+02 -0.12308E+05
 0.54553001E+02 -0.13334E+05
 0.54603004E+02 -0.17037E+05
 0.54653004E+02 -0.19119E+05
 0.54703003E+02 -0.15360E+05
 0.54753002E+02 -0.11508E+05
 0.54803001E+02 -0.10893E+05
 0.54853004E+02 -0.12721E+05
 0.54903004E+02 -0.14866E+05
 0.54953003E+02 -0.16457E+05
 0.55003002E+02 -0.16273E+05
 0.55053001E+02 -0.13898E+05
 0.55103004E+02 -0.11292E+05
 0.55153004E+02 -0.88466E+04
 0.55203003E+02 -0.90691E+04
 0.55253002E+02 -0.11837E+05
 0.55303001E+02 -0.15386E+05
 0.55353004E+02 -0.16602E+05
 0.55403004E+02 -0.15394E+05
 0.55453003E+02 -0.15107E+05
 0.55503002E+02 -0.15291E+05
 0.55553001E+02 -0.13994E+05
 0.55603004E+02 -0.14640E+05
 0.55653004E+02 -0.16911E+05
 0.55703003E+02 -0.16414E+05
 0.55753002E+02 -0.15048E+05
 0.55803001E+02 -0.12785E+05
 0.55853001E+02 -0.10125E+05
 0.55903004E+02 -0.93996E+04
 0.55953003E+02 -0.10239E+05
 0.56003002E+02 -0.12331E+05
 0.56053001E+02 -0.14090E+05
 0.56103001E+02 -0.15336E+05
 0.56153004E+02 -0.15863E+05
 0.56203003E+02 -0.14040E+05
 0.56253002E+02 -0.12595E+05
 0.56303001E+02 -0.11325E+05
 0.56353001E+02 -0.10866E+05
 0.56403004E+02 -0.10132E+05
 0.56453003E+02 -0.10219E+05
 0.56503002E+02 -0.13011E+05
 0.56553001E+02 -0.15041E+05
 0.56603001E+02 -0.14098E+05
 0.56653004E+02 -0.13852E+05
 0.56703003E+02 -0.15569E+05
 0.56753002E+02 -0.16055E+05
 0.56803001E+02 -0.16349E+05
 0.56853001E+02 -0.16348E+05
 0.56903004E+02 -0.17498E+05
 0.56953003E+02 -0.18081E+05
 0.57003002E+02 -0.15914E+05
 0.57053001E+02 -0.13417E+05
 0.57103001E+02 -0.12375E+05
 0.57153004E+02 -0.10044E+05
 0.57203003E+02 -0.87680E+04
 0.57253002E+02 -0.94684E+04
 0.57303001E+02 -0.10780E+05
 0.57353001E+02 -0.13034E+05
 0.57403004E+02 -0.13324E+05
 0.57453003E+02 -0.12230E+05
 0.57503002E+02 -0.95386E+04
 0.57553001E+02 -0.70591E+04
 0.57603001E+02 -0.85845E+04
 0.57653004E+02 -0.14567E+05
 0.57703003E+02 -0.18501E+05
 0.57753002E+02 -0.20382E+05
 0.57803001E+02 -0.20877E+05
 0.57853001E+02 -0.17306E+05
 0.57903004E+02 -0.13670E+05
 0.57953003E+02 -0.11553E+05
 0.58003002E+02 -0.12858E+05
 0.58053001E+02 -0.14958E+05
 0.58103001E+02 -0.13721E+05
 0.58153004E+02 -0.12067E+05
 0.58203003E+02 -0.12592E+05
 0.58253002E+02 -0.13989E+05
 0.58303001E+02 -0.13877E+05
 0.58353001E+02 -0.12922E+05
 0.58403004E+02 -0.14282E+05
 0.58453003E+02 -0.16386E+05
 0.58503002E+02 -0.14849E+05
 0.58553001E+02 -0.11429E+05
 0.58603001E+02 -0.11061E+05
 0.58653004E+02 -0.12432E+05
 0.58703003E+02 -0.13095E+05
 0.58753002E+02 -0.11852E+05
 0.58803001E+02 -0.10745E+05
 0.58853001E+02 -0.13159E+05
 0.58903004E+02 -0.15186E+05
 0.58953003E+02 -0.16534E+05
 0.59003002E+02 -0.18380E+05
 0.59053001E+02 -0.20696E+05
 0.59103001E+02 -0.19673E+05
 0.59153004E+02 -0.14720E+05
 0.59203003E+02 -0.12195E+05
 0.59253002E+02 -0.12707E+05
 0.59303001E+02 -0.12245E+05
 0.59353001E+02 -0.78895E+04
 0.59403004E+02 -0.60640E+04
 0.59453003E+02 -0.74408E+04
 0.59503002E+02 -0.82499E+04
 0.59553001E+02 -0.11052E+05
 0.59603001E+02 -0.15147E+05
 0.59653004E+02 -0.17719E+05
 0.59703003E+02 -0.18125E+05
 0.59753002E+02 -0.18165E+05
 0.59803001E+02 -0.18616E+05
 0.59853001E+02 -0.16629E+05
 0.59903004E+02 -0.15213E+05
 0.59953003E+02 -0.17136E+05
 0.60003002E+02 -0.16880E+05
 0.60053001E+02 -0.13188E+05
 0.60103001E+02 -0.10455E+05
 0.60153004E+02 -0.90935E+04
 0.60203003E+02 -0.80887E+04
 0.60253002E+02 -0.96781E+04
 0.60303001E+02 -0.14426E+05
 0.60353001E+02 -0.17544E+05
 0.60403004E+02 -0.15694E+05
 0.60453003E+02 -0.13850E+05
 0.60503002E+02 -0.12350E+05
 0.60553001E+02 -0.94507E+04
 0.60603001E+02 -0.87149E+04
 0.60653004E+02 -0.10829E+05
 0.60703003E+02 -0.13128E+05
 0.60753002E+02 -0.12702E+05
 0.60803001E+02 -0.82250E+04
 0.60853001E+02 -0.44175E+04
 0.60903004E+02 -0.59336E+04
 0.60953003E+02 -0.11386E+05
 0.61003002E+02 -0.15770E+05
 0.61053001E+02 -0.19750E+05
 0.61103001E+02 -0.22192E+05
 0.61153004E+02 -0.20150E+05
 0.61203003E+02 -0.17167E+05
 0.61253002E+02 -0.16462E+05
 0.61303001E+02 -0.19718E+05
 0.61353001E+02 -0.21064E+05
 0.61403004E+02 -0.17549E+05
 0.61453003E+02 -0.11168E+05
 0.61503002E+02 -0.70407E+04
 0.61553001E+02 -0.83395E+04
 0.61603001E+02 -0.10361E+05
 0.61653004E+02 -0.11541E+05
 0.61703003E+02 -0.13675E+05
 0.61753002E+02 -0.14347E+05
 0.61803001E+02 -0.11723E+05
 0.61853001E+02 -0.11957E+05
 0.61903004E+02 -0.16454E+05
 0.61953003E+02 -0.20659E+05
 0.62003002E+02 -0.20663E+05
 0.62053001E+02 -0.17827E+05
 0.62103004E+02 -0.14592E+05
 0.62153000E+02 -0.11337E+05
 0.62203003E+02 -0.10001E+05
 0.62252998E+02 -0.98437E+04
 0.62303001E+02 -0.99255E+04
 0.62353004E+02 -0.10067E+05
 0.62403000E+02 -0.90885E+04
 0.62453003E+02 -0.88944E+04
 0.62502998E+02 -0.10831E+05
 0.62553001E+02 -0.13016E+05
 0.62603004E+02 -0.13814E+05
 0.62653000E+02 -0.10325E+05
 0.62703003E+02 -0.61923E+04
 0.62752998E+02 -0.37012E+04
 0.62803001E+02 -0.33097E+04
 0.62853004E+02 -0.92583E+04
 0.62903000E+02 -0.18181E+05
 0.62953003E+02 -0.21611E+05
 0.63002998E+02 -0.20127E+05
 0.63053001E+02 -0.17392E+05
 0.63103004E+02 -0.16786E+05
 0.63153000E+02 -0.18989E+05
 0.63203003E+02 -0.20657E+05
 0.63252998E+02 -0.22761E+05
 0.63303001E+02 -0.22212E+05
 0.63353004E+02 -0.18228E+05
 0.63403000E+02 -0.13556E+05
 0.63453003E+02 -0.10484E+05
 0.63502998E+02 -0.73899E+04
 0.63553001E+02 -0.49202E+04
 0.63603004E+02 -0.57211E+04
 0.63653000E+02 -0.84554E+04
 0.63703003E+02 -0.11050E+05
 0.63752998E+02 -0.12085E+05
 0.63803001E+02 -0.14495E+05
 0.63853004E+02 -0.18697E+05
 0.63903000E+02 -0.20210E+05
 0.63953003E+02 -0.18594E+05
 0.64002998E+02 -0.18341E+05
 0.64053001E+02 -0.17112E+05
 0.64103004E+02 -0.13603E+05
 0.64153000E+02 -0.12158E+05
 0.64203003E+02 -0.12068E+05
 0.64252998E+02 -0.12144E+05
 0.64303001E+02 -0.10026E+05
 0.64353004E+02 -0.68962E+04
 0.64403000E+02 -0.92919E+04
 0.64453003E+02 -0.12539E+05
 0.64502998E+02 -0.12593E+05
 0.64553001E+02 -0.13785E+05
 0.64603004E+02 -0.14623E+05
 0.64653000E+02 -0.13317E+05
 0.64703003E+02 -0.12403E+05
 0.64752998E+02 -0.12178E+05
 0.64803001E+02 -0.13961E+05
 0.64853004E+02 -0.15799E+05
 0.64903000E+02 -0.15909E+05
 0.64953003E+02 -0.16674E+05
 0.65002998E+02 -0.15407E+05
 0.65053001E+02 -0.12600E+05
 0.65103004E+02 -0.13271E+05
 0.65153000E+02 -0.17400E+05
 0.65203003E+02 -0.21347E+05
 0.65252998E+02 -0.22051E+05
 0.65303001E+02 -0.19551E+05
 0.65353004E+02 -0.16988E+05
 0.65403000E+02 -0.13724E+05
 0.65453003E+02 -0.85321E+04
 0.65502998E+02 -0.62922E+04
 0.65553001E+02 -0.77713E+04
 0.65603004E+02 -0.82668E+04
 0.65653000E+02 -0.66304E+04
 0.65703003E+02 -0.57689E+04
 0.65752998E+02 -0.71367E+04
 0.65803001E+02 -0.91496E+04
 0.65853004E+02 -0.12242E+05
 0.65903000E+02 -0.15552E+05
 0.65953003E+02 -0.18457E+05
 0.66002998E+02 -0.19965E+05
 0.66053001E+02 -0.19710E+05
 0.66103004E+02 -0.19020E+05
 0.66153000E+02 -0.17492E+05
 0.66203003E+02 -0.14490E+05
 0.66252998E+02 -0.12276E+05
 0.66303001E+02 -0.13037E+05
 0.66353004E+02 -0.13591E+05
 0.66403000E+02 -0.12554E+05
 0.66453003E+02 -0.10939E+05
 0.66502998E+02 -0.10836E+05
 0.66553001E+02 -0.10991E+05
 0.66603004E+02 -0.99574E+04
 0.66653000E+02 -0.93374E+04
 0.66703003E+02 -0.10462E+05
 0.66752998E+02 -0.12622E+05
 0.66803001E+02 -0.13342E+05
 0.66853004E+02 -0.14098E+05
 0.66903000E+02 -0.14646E+05
 0.66953003E+02 -0.14973E+05
 0.67002998E+02 -0.16635E+05
 0.67053001E+02 -0.17891E+05
 0.67103004E+02 -0.18285E+05
 0.67153000E+02 -0.17244E+05
 0.67203003E+02 -0.15803E+05
 0.67252998E+02 -0.15823E+05
 0.67303001E+02 -0.16541E+05
 0.67353004E+02 -0.16160E+05
 0.67403000E+02 -0.13334E+05
 0.67453003E+02 -0.11348E+05
 0.67502998E+02 -0.10262E+05
 0.67553001E+02 -0.90286E+04
 0.67603004E+02 -0.98962E+04
 0.67653000E+02 -0.11657E+05
 0.67703003E+02 -0.12151E+05
 0.67752998E+02 -0.11626E+05
 0.67803001E+02 -0.12008E+05
 0.67853004E+02 -0.12479E+05
 0.67903000E+02 -0.12469E+05
 0.67953003E+02 -0.14400E+05
 0.68002998E+02 -0.17394E+05
 0.68053001E+02 -0.17037E+05
 0.68103004E+02 -0.13097E+05
 0.68153000E+02 -0.96491E+04
 0.68203003E+02 -0.82665E+04
 0.68252998E+02 -0.90988E+04
 0.68303001E+02 -0.11376E+05
 0.68353004E+02 -0.13950E+05
 0.68403000E+02 -0.14889E+05
 0.68453003E+02 -0.13924E+05
 0.68502998E+02 -0.13923E+05
 0.68553001E+02 -0.14108E+05
 0.68603004E+02 -0.14961E+05
 0.68653000E+02 -0.16996E+05
 0.68703003E+02 -0.18683E+05
 0.68752998E+02 -0.18642E+05
 0.68803001E+02 -0.17963E+05
 0.68853004E+02 -0.18129E+05
 0.68903000E+02 -0.18101E+05
 0.68953003E+02 -0.16557E+05
 0.69002998E+02 -0.14609E+05
 0.69053001E+02 -0.12964E+05
 0.69103004E+02 -0.10700E+05
 0.69153000E+02 -0.97647E+04
 0.69203003E+02 -0.10232E+05
 0.69252998E+02 -0.11205E+05
 0.69303001E+02 -0.11796E+05
 0.69353004E+02 -0.12167E+05
 0.69403000E+02 -0.12601E+05
 0.69453003E+02 -0.13072E+05
 0.69502998E+02 -0.14195E+05
 0.69553001E+02 -0.15557E+05
 0.69603004E+02 -0.14736E+05
 0.69653000E+02 -0.12075E+05
 0.69703003E+02 -0.97524E+04
 0.69752998E+02 -0.83718E+04
 0.69803001E+02 -0.90822E+04
 0.69853004E+02 -0.11255E+05
 0.69903000E+02 -0.12650E+05
 0.69953003E+02 -0.12178E+05
 0.70002998E+02 -0.11022E+05
 0.70053001E+02 -0.10973E+05
 0.70103004E+02 -0.12692E+05
 0.70153000E+02 -0.14888E+05
 0.70203003E+02 -0.16512E+05
 0.70252998E+02 -0.17693E+05
 0.70303001E+02 -0.17289E+05
 0.70353004E+02 -0.14132E+05
 0.70403000E+02 -0.11103E+05
 0.70453003E+02 -0.10908E+05
 0.70502998E+02 -0.11859E+05
 0.70553001E+02 -0.11601E+05
 0.70603004E+02 -0.11597E+05
 0.70653000E+02 -0.13111E+05
 0.70703003E+02 -0.15603E+05
 0.70752998E+02 -0.18500E+05
 0.70803001E+02 -0.21099E+05
 0.70853004E+02 -0.22302E+05
 0.70903000E+02 -0.20975E+05
 0.70953003E+02 -0.17953E+05
 0.71002998E+02 -0.14671E+05
 0.71053001E+02 -0.13045E+05
 0.71103004E+02 -0.11899E+05
 0.71153000E+02 -0.92541E+04
 0.71203003E+02 -0.61760E+04
 0.71252998E+02 -0.49958E+04
 0.71303001E+02 -0.50453E+04
 0.71353004E+02 -0.56710E+04
 0.71403000E+02 -0.85640E+04
 0.71453003E+02 -0.13411E+05
 0.71502998E+02 -0.18827E+05
 0.71553001E+02 -0.22682E+05
 0.71603004E+02 -0.24235E+05
 0.71653000E+02 -0.22625E+05
 0.71703003E+02 -0.18940E+05
 0.71752998E+02 -0.15461E+05
 0.71803001E+02 -0.13459E+05
 0.71853004E+02 -0.12868E+05
 0.71903000E+02 -0.12695E+05
 0.71953003E+02 -0.12043E+05
 0.72002998E+02 -0.10327E+05
 0.72053001E+02 -0.10116E+05
 0.72103004E+02 -0.11735E+05
 0.72153000E+02 -0.13563E+05
 0.72203003E+02 -0.15644E+05
 0.72252998E+02 -0.17356E+05
 0.72303001E+02 -0.17304E+05
 0.72353004E+02 -0.16530E+05
 0.72403000E+02 -0.16116E+05
 0.72453003E+02 -0.15299E+05
 0.72502998E+02 -0.14485E+05
 0.72553001E+02 -0.14381E+05
 0.72603004E+02 -0.14672E+05
 0.72653000E+02 -0.14059E+05
 0.72703003E+02 -0.11855E+05
 0.72752998E+02 -0.10477E+05
 0.72803001E+02 -0.10441E+05
 0.72853004E+02 -0.10599E+05
 0.72903000E+02 -0.10513E+05
 0.72953003E+02 -0.97779E+04
 0.73002998E+02 -0.89577E+04
 0.73053001E+02 -0.82805E+04
 0.73103004E+02 -0.86571E+04
 0.73153000E+02 -0.95757E+04
 0.73203003E+02 -0.10746E+05
 0.73252998E+02 -0.11973E+05
 0.73303001E+02 -0.12787E+05
 0.73353004E+02 -0.13615E+05
 0.73403000E+02 -0.14471E+05
 0.73453003E+02 -0.15415E+05
 0.73502998E+02 -0.16629E+05
 0.73553001E+02 -0.18091E+05
 0.73603004E+02 -0.18922E+05
 0.73653000E+02 -0.18648E+05
 0.73703003E+02 -0.17677E+05
 0.73752998E+02 -0.16916E+05
 0.73803001E+02 -0.16673E+05
 0.73853004E+02 -0.16340E+05
 0.73903000E+02 -0.15398E+05
 0.73953003E+02 -0.13765E+05
 0.74002998E+02 -0.13360E+05
 0.74053001E+02 -0.13440E+05
 0.74103004E+02 -0.12049E+05
 0.74153000E+02 -0.10254E+05
 0.74203003E+02 -0.93713E+04
 0.74252998E+02 -0.97562E+04
 0.74303001E+02 -0.11158E+05
 0.74353004E+02 -0.12968E+05
 0.74403000E+02 -0.14250E+05
 0.74453003E+02 -0.14315E+05
 0.74502998E+02 -0.13649E+05
 0.74553001E+02 -0.13716E+05
 0.74603004E+02 -0.13883E+05
 0.74653000E+02 -0.13095E+05
 0.74703003E+02 -0.12016E+05
 0.74752998E+02 -0.11315E+05
 0.74803001E+02 -0.10078E+05
 0.74853004E+02 -0.86964E+04
 0.74903000E+02 -0.82421E+04
 0.74953003E+02 -0.88025E+04
 0.75002998E+02 -0.10610E+05
 0.75053001E+02 -0.12610E+05
 0.75103004E+02 -0.13933E+05
 0.75153000E+02 -0.14602E+05
 0.75203003E+02 -0.14557E+05
 0.75252998E+02 -0.14024E+05
 0.75303001E+02 -0.13975E+05
 0.75353004E+02 -0.14412E+05
 0.75403000E+02 -0.14703E+05
 0.75453003E+02 -0.15403E+05
 0.75502998E+02 -0.15920E+05
 0.75553001E+02 -0.14989E+05
 0.75603004E+02 -0.13267E+05
 0.75653000E+02 -0.11866E+05
 0.75703003E+02 -0.12143E+05
 0.75752998E+02 -0.13595E+05
 0.75803001E+02 -0.14658E+05
 0.75853004E+02 -0.14817E+05
 0.75903000E+02 -0.14350E+05
 0.75953003E+02 -0.14047E+05
 0.76002998E+02 -0.14084E+05
 0.76053001E+02 -0.14964E+05
 0.76103004E+02 -0.16333E+05
 0.76153000E+02 -0.17285E+05
 0.76203003E+02 -0.17377E+05
 0.76252998E+02 -0.17184E+05
 0.76303001E+02 -0.16174E+05
 0.76353004E+02 -0.14675E+05
 0.76403000E+02 -0.13498E+05
 0.76453003E+02 -0.12603E+05
 0.76502998E+02 -0.11738E+05
 0.76553001E+02 -0.97791E+04
 0.76603004E+02 -0.75691E+04
 0.76653000E+02 -0.63828E+04
 0.76703003E+02 -0.58412E+04
 0.76752998E+02 -0.59331E+04
 0.76803001E+02 -0.80002E+04
 0.76853004E+02 -0.11935E+05
 0.76903000E+02 -0.16078E+05
 0.76953003E+02 -0.18520E+05
 0.77002998E+02 -0.18506E+05
 0.77053001E+02 -0.17565E+05
 0.77103004E+02 -0.17075E+05
 0.77153000E+02 -0.16518E+05
 0.77203003E+02 -0.15602E+05
 0.77252998E+02 -0.14505E+05
 0.77303001E+02 -0.13322E+05
 0.77353004E+02 -0.11103E+05
 0.77403000E+02 -0.85373E+04
 0.77453003E+02 -0.70098E+04
 0.77502998E+02 -0.71601E+04
 0.77553001E+02 -0.93763E+04
 0.77603004E+02 -0.12228E+05
 0.77653000E+02 -0.14712E+05
 0.77703003E+02 -0.16494E+05
 0.77752998E+02 -0.17614E+05
 0.77803001E+02 -0.17232E+05
 0.77853004E+02 -0.16103E+05
 0.77903000E+02 -0.14780E+05
 0.77953003E+02 -0.13817E+05
 0.78002998E+02 -0.14195E+05
 0.78053001E+02 -0.15144E+05
 0.78103004E+02 -0.15384E+05
 0.78153000E+02 -0.14613E+05
 0.78203003E+02 -0.13826E+05
 0.78252998E+02 -0.12999E+05
 0.78303001E+02 -0.12092E+05
 0.78353004E+02 -0.11467E+05
 0.78403000E+02 -0.10828E+05
 0.78453003E+02 -0.99413E+04
 0.78502998E+02 -0.99109E+04
 0.78553001E+02 -0.11521E+05
 0.78603004E+02 -0.13648E+05
 0.78653000E+02 -0.15144E+05
 0.78703003E+02 -0.16618E+05
 0.78752998E+02 -0.18687E+05
 0.78803001E+02 -0.21023E+05
 0.78853004E+02 -0.22322E+05
 0.78903000E+02 -0.21921E+05
 0.78953003E+02 -0.20053E+05
 0.79002998E+02 -0.17481E+05
 0.79053001E+02 -0.14831E+05
 0.79103004E+02 -0.12627E+05
 0.79153000E+02 -0.11695E+05
 0.79203003E+02 -0.11308E+05
 0.79252998E+02 -0.10287E+05
 0.79303001E+02 -0.89418E+04
 0.79353004E+02 -0.78524E+04
 0.79403000E+02 -0.71439E+04
 0.79453003E+02 -0.73873E+04
 0.79502998E+02 -0.86188E+04
 0.79553001E+02 -0.99308E+04
 0.79603004E+02 -0.10627E+05
 0.79653000E+02 -0.11237E+05
 0.79703003E+02 -0.12142E+05
 0.79752998E+02 -0.13526E+05
 0.79803001E+02 -0.15476E+05
 0.79853004E+02 -0.17467E+05
 0.79903000E+02 -0.18876E+05
 0.79953003E+02 -0.19196E+05
 0.80002998E+02 -0.18963E+05
 0.80053001E+02 -0.17897E+05
 0.80103004E+02 -0.15351E+05
 0.80153000E+02 -0.12146E+05
 0.80203003E+02 -0.96648E+04
 0.80252998E+02 -0.84599E+04
 0.80303001E+02 -0.82252E+04
 0.80353004E+02 -0.86130E+04
 0.80403000E+02 -0.97367E+04
 0.80453003E+02 -0.11597E+05
 0.80502998E+02 -0.13107E+05
 0.80553001E+02 -0.14117E+05
 0.80603004E+02 -0.15199E+05
 0.80653000E+02 -0.16953E+05
 0.80703003E+02 -0.18689E+05
 0.80752998E+02 -0.18953E+05
 0.80803001E+02 -0.18081E+05
 0.80853004E+02 -0.17440E+05
 0.80903000E+02 -0.17284E+05
 0.80953003E+02 -0.16673E+05
 0.81002998E+02 -0.15171E+05
 0.81053001E+02 -0.13857E+05
 0.81103004E+02 -0.12518E+05
 0.81153000E+02 -0.10505E+05
 0.81203003E+02 -0.88927E+04
 0.81252998E+02 -0.84314E+04
 0.81303001E+02 -0.92924E+04
 0.81353004E+02 -0.10622E+05
 0.81403000E+02 -0.11942E+05
 0.81453003E+02 -0.13279E+05
 0.81502998E+02 -0.14512E+05
 0.81553001E+02 -0.15299E+05
 0.81603004E+02 -0.15619E+05
 0.81653000E+02 -0.15519E+05
 0.81703003E+02 -0.15218E+05
 0.81752998E+02 -0.14583E+05
 0.81803001E+02 -0.13901E+05
 0.81853004E+02 -0.13233E+05
 0.81903000E+02 -0.12549E+05
 0.81953003E+02 -0.12281E+05
 0.82002998E+02 -0.12179E+05
 0.82053001E+02 -0.12378E+05
 0.82103004E+02 -0.12919E+05
 0.82153000E+02 -0.13872E+05
 0.82203003E+02 -0.15116E+05
 0.82252998E+02 -0.16089E+05
 0.82303001E+02 -0.16108E+05
 0.82353004E+02 -0.15918E+05
 0.82403000E+02 -0.16013E+05
 0.82453003E+02 -0.15995E+05
 0.82502998E+02 -0.15877E+05
 0.82553001E+02 -0.15781E+05
 0.82603004E+02 -0.15134E+05
 0.82653000E+02 -0.13457E+05
 0.82703003E+02 -0.10908E+05
 0.82752998E+02 -0.88257E+04
 0.82803001E+02 -0.86277E+04
 0.82853004E+02 -0.99145E+04
 0.82903000E+02 -0.11545E+05
 0.82953003E+02 -0.12248E+05
 0.83002998E+02 -0.12443E+05
 0.83053001E+02 -0.13107E+05
 0.83103004E+02 -0.14163E+05
 0.83153000E+02 -0.14906E+05
 0.83203003E+02 -0.15311E+05
 0.83252998E+02 -0.15321E+05
 0.83303001E+02 -0.15013E+05
 0.83353004E+02 -0.14466E+05
 0.83403000E+02 -0.14098E+05
 0.83453003E+02 -0.14244E+05
 0.83502998E+02 -0.14033E+05
 0.83553001E+02 -0.13538E+05
 0.83603004E+02 -0.13311E+05
 0.83653000E+02 -0.13098E+05
 0.83703003E+02 -0.12754E+05
 0.83752998E+02 -0.13007E+05
 0.83803001E+02 -0.13765E+05
 0.83853004E+02 -0.14220E+05
 0.83903000E+02 -0.13571E+05
 0.83953003E+02 -0.12433E+05
 0.84002998E+02 -0.11554E+05
 0.84053001E+02 -0.11361E+05
 0.84103004E+02 -0.11893E+05
 0.84153000E+02 -0.12700E+05
 0.84203003E+02 -0.13986E+05
 0.84252998E+02 -0.15353E+05
 0.84303001E+02 -0.16433E+05
 0.84353004E+02 -0.16804E+05
 0.84403000E+02 -0.16362E+05
 0.84453003E+02 -0.15268E+05
 0.84502998E+02 -0.14063E+05
 0.84553001E+02 -0.13113E+05
 0.84603004E+02 -0.12365E+05
 0.84653000E+02 -0.11320E+05
 0.84703003E+02 -0.10199E+05
 0.84752998E+02 -0.98608E+04
 0.84803001E+02 -0.10377E+05
 0.84853004E+02 -0.11549E+05
 0.84903000E+02 -0.12513E+05
 0.84953003E+02 -0.12877E+05
 0.85002998E+02 -0.12353E+05
 0.85053001E+02 -0.11230E+05
 0.85103004E+02 -0.10712E+05
 0.85153000E+02 -0.11218E+05
 0.85203003E+02 -0.12455E+05
 0.85252998E+02 -0.14008E+05
 0.85303001E+02 -0.15284E+05
 0.85353004E+02 -0.16098E+05
 0.85403000E+02 -0.16462E+05
 0.85453003E+02 -0.16639E+05
 0.85502998E+02 -0.16934E+05
 0.85553001E+02 -0.17361E+05
 0.85603004E+02 -0.17491E+05
 0.85653000E+02 -0.16465E+05
 0.85703003E+02 -0.14643E+05
 0.85752998E+02 -0.12722E+05
 0.85803001E+02 -0.11146E+05
 0.85853004E+02 -0.10021E+05
 0.85903000E+02 -0.96892E+04
 0.85953003E+02 -0.10344E+05
 0.86002998E+02 -0.11301E+05
 0.86053001E+02 -0.11987E+05
 0.86103004E+02 -0.12749E+05
 0.86153000E+02 -0.13911E+05
 0.86203003E+02 -0.15014E+05
 0.86252998E+02 -0.15847E+05
 0.86303001E+02 -0.16528E+05
 0.86353004E+02 -0.16637E+05
 0.86403000E+02 -0.15921E+05
 0.86453003E+02 -0.15306E+05
 0.86502998E+02 -0.15115E+05
 0.86553001E+02 -0.14691E+05
 0.86603004E+02 -0.13617E+05
 0.86653000E+02 -0.12426E+05
 0.86703003E+02 -0.11510E+05
 0.86752998E+02 -0.11186E+05
 0.86803001E+02 -0.11561E+05
 0.86853004E+02 -0.12255E+05
 0.86903000E+02 -0.13056E+05
 0.86953003E+02 -0.13605E+05
 0.87002998E+02 -0.13767E+05
 0.87053001E+02 -0.13633E+05
 0.87103004E+02 -0.13707E+05
 0.87153000E+02 -0.13861E+05
 0.87203003E+02 -0.13647E+05
 0.87252998E+02 -0.13552E+05
 0.87303001E+02 -0.13560E+05
 0.87353004E+02 -0.13370E+05
 0.87403000E+02 -0.13261E+05
 0.87453003E+02 -0.13245E+05
 0.87502998E+02 -0.13265E+05
 0.87553001E+02 -0.13514E+05
 0.87602997E+02 -0.13875E+05
 0.87653000E+02 -0.14517E+05
 0.87703003E+02 -0.15302E+05
 0.87752998E+02 -0.15324E+05
 0.87803001E+02 -0.14588E+05
 0.87852997E+02 -0.13861E+05
 0.87903000E+02 -0.13183E+05
 0.87953003E+02 -0.12219E+05
 0.88002998E+02 -0.11086E+05
 0.88053001E+02 -0.10362E+05
 0.88102997E+02 -0.10544E+05
 0.88153000E+02 -0.11671E+05
 0.88203003E+02 -0.13252E+05
 0.88252998E+02 -0.14697E+05
 0.88303001E+02 -0.15722E+05
 0.88352997E+02 -0.15980E+05
 0.88403000E+02 -0.15369E+05
 0.88453003E+02 -0.14514E+05
 0.88502998E+02 -0.13322E+05
 0.88553001E+02 -0.11801E+05
 0.88602997E+02 -0.10912E+05
 0.88653000E+02 -0.10834E+05
 0.88703003E+02 -0.11123E+05
 0.88752998E+02 -0.11117E+05
 0.88803001E+02 -0.10830E+05
 0.88852997E+02 -0.11138E+05
 0.88903000E+02 -0.12295E+05
 0.88953003E+02 -0.13558E+05
 0.89002998E+02 -0.14684E+05
 0.89053001E+02 -0.15687E+05
 0.89102997E+02 -0.16653E+05
 0.89153000E+02 -0.17146E+05
 0.89203003E+02 -0.16772E+05
 0.89252998E+02 -0.15860E+05
 0.89303001E+02 -0.14701E+05
 0.89352997E+02 -0.13532E+05
 0.89403000E+02 -0.12461E+05
 0.89453003E+02 -0.11883E+05
 0.89502998E+02 -0.11863E+05
 0.89553001E+02 -0.12229E+05
 0.89602997E+02 -0.12705E+05
 0.89653000E+02 -0.12954E+05
 0.89703003E+02 -0.12697E+05
 0.89752998E+02 -0.12553E+05
 0.89803001E+02 -0.13140E+05
 0.89852997E+02 -0.14207E+05
 0.89903000E+02 -0.15241E+05
 0.89953003E+02 -0.16251E+05
 0.90002998E+02 -0.16588E+05
 0.90053001E+02 -0.15736E+05
 0.90102997E+02 -0.14626E+05
 0.90153000E+02 -0.13677E+05
 0.90203003E+02 -0.12856E+05
 0.90252998E+02 -0.11967E+05
 0.90303001E+02 -0.11271E+05
 0.90352997E+02 -0.10833E+05
 0.90403000E+02 -0.10191E+05
 0.90453003E+02 -0.94738E+04
 0.90502998E+02 -0.94553E+04
 0.90553001E+02 -0.10284E+05
 0.90602997E+02 -0.11750E+05
 0.90653000E+02 -0.13642E+05
 0.90703003E+02 -0.15270E+05
 0.90752998E+02 -0.16223E+05
 0.90803001E+02 -0.16358E+05
 0.90852997E+02 -0.16044E+05
 0.90903000E+02 -0.15774E+05
 0.90953003E+02 -0.15671E+05
 0.91002998E+02 -0.15777E+05
 0.91053001E+02 -0.15743E+05
 0.91102997E+02 -0.15126E+05
 0.91153000E+02 -0.14130E+05
 0.91203003E+02 -0.12904E+05
 0.91252998E+02 -0.11831E+05
 0.91303001E+02 -0.11082E+05
 0.91352997E+02 -0.10493E+05
 0.91403000E+02 -0.10652E+05
 0.91453003E+02 -0.11004E+05
 0.91502998E+02 -0.11319E+05
 0.91553001E+02 -0.11950E+05
 0.91602997E+02 -0.12799E+05
 0.91653000E+02 -0.14755E+05
 0.91703003E+02 -0.17007E+05
 0.91752998E+02 -0.18446E+05
 0.91803001E+02 -0.19481E+05
 0.91852997E+02 -0.19442E+05
 0.91903000E+02 -0.19026E+05
 0.91953003E+02 -0.18038E+05
 0.92002998E+02 -0.16362E+05
 0.92053001E+02 -0.14690E+05
 0.92102997E+02 -0.12705E+05
 0.92153000E+02 -0.11147E+05
 0.92203003E+02 -0.10076E+05
 0.92252998E+02 -0.95818E+04
 0.92303001E+02 -0.93921E+04
 0.92352997E+02 -0.92639E+04
 0.92403000E+02 -0.98358E+04
 0.92453003E+02 -0.11172E+05
 0.92502998E+02 -0.12673E+05
 0.92553001E+02 -0.13832E+05
 0.92602997E+02 -0.14607E+05
 0.92653000E+02 -0.14857E+05
 0.92703003E+02 -0.14895E+05
 0.92752998E+02 -0.14899E+05
 0.92803001E+02 -0.14971E+05
 0.92852997E+02 -0.14565E+05
 0.92903000E+02 -0.13790E+05
 0.92953003E+02 -0.13481E+05
 0.93002998E+02 -0.13072E+05
 0.93053001E+02 -0.12661E+05
 0.93102997E+02 -0.12431E+05
 0.93153000E+02 -0.12218E+05
 0.93203003E+02 -0.11926E+05
 0.93252998E+02 -0.11819E+05
 0.93303001E+02 -0.11979E+05
 0.93352997E+02 -0.12268E+05
 0.93403000E+02 -0.12646E+05
 0.93453003E+02 -0.12627E+05
 0.93502998E+02 -0.12810E+05
 0.93553001E+02 -0.13746E+05
 0.93602997E+02 -0.14638E+05
 0.93653000E+02 -0.15277E+05
 0.93703003E+02 -0.15948E+05
 0.93752998E+02 -0.16258E+05
 0.93803001E+02 -0.16095E+05
 0.93852997E+02 -0.15820E+05
 0.93903000E+02 -0.15262E+05
 0.93953003E+02 -0.14610E+05
 0.94002998E+02 -0.13651E+05
 0.94053001E+02 -0.12675E+05
 0.94102997E+02 -0.11900E+05
 0.94153000E+02 -0.11809E+05
 0.94203003E+02 -0.12267E+05
 0.94252998E+02 -0.12960E+05
 0.94303001E+02 -0.13401E+05
 0.94352997E+02 -0.13411E+05
 0.94403000E+02 -0.13284E+05
 0.94453003E+02 -0.12790E+05
 0.94502998E+02 -0.12656E+05
 0.94553001E+02 -0.12619E+05
 0.94602997E+02 -0.13276E+05
 0.94653000E+02 -0.14211E+05
 0.94703003E+02 -0.14459E+05
 0.94752998E+02 -0.14471E+05
 0.94803001E+02 -0.14755E+05
 0.94852997E+02 -0.15013E+05
 0.94903000E+02 -0.15287E+05
 0.94953003E+02 -0.15538E+05
 0.95002998E+02 -0.15428E+05
 0.95053001E+02 -0.15030E+05
 0.95102997E+02 -0.14273E+05
 0.95153000E+02 -0.13733E+05
 0.95203003E+02 -0.13271E+05
 0.95252998E+02 -0.12963E+05
 0.95303001E+02 -0.12904E+05
 0.95352997E+02 -0.12613E+05
 0.95403000E+02 -0.12315E+05
 0.95453003E+02 -0.12161E+05
 0.95502998E+02 -0.12054E+05
 0.95553001E+02 -0.12180E+05
 0.95602997E+02 -0.12407E+05
 0.95653000E+02 -0.12424E+05
 0.95703003E+02 -0.12603E+05
 0.95752998E+02 -0.13053E+05
 0.95803001E+02 -0.13578E+05
 0.95852997E+02 -0.14150E+05
 0.95903000E+02 -0.14496E+05
 0.95953003E+02 -0.14330E+05
 0.96002998E+02 -0.14392E+05
 0.96053001E+02 -0.14202E+05
 0.96102997E+02 -0.14124E+05
 0.96153000E+02 -0.13890E+05
 0.96203003E+02 -0.13747E+05
 0.96252998E+02 -0.13477E+05
 0.96303001E+02 -0.13359E+05
 0.96352997E+02 -0.12960E+05
 0.96403000E+02 -0.12177E+05
 0.96453003E+02 -0.11913E+05
 0.96502998E+02 -0.10924E+05
 0.96553001E+02 -0.11046E+05
 0.96602997E+02 -0.11630E+05
 0.96653000E+02 -0.12726E+05
 0.96703003E+02 -0.14041E+05
 0.96752998E+02 -0.14609E+05
 0.96803001E+02 -0.15152E+05
 0.96852997E+02 -0.14998E+05
 0.96903000E+02 -0.14440E+05
 0.96953003E+02 -0.13846E+05
 0.97002998E+02 -0.13389E+05
 0.97053001E+02 -0.13490E+05
 0.97102997E+02 -0.13480E+05
 0.97153000E+02 -0.13568E+05
 0.97203003E+02 -0.14279E+05
 0.97252998E+02 -0.15230E+05
 0.97303001E+02 -0.15997E+05
 0.97352997E+02 -0.16739E+05
 0.97403000E+02 -0.17252E+05
 0.97453003E+02 -0.16961E+05
 0.97502998E+02 -0.15947E+05
 0.97553001E+02 -0.14617E+05
 0.97602997E+02 -0.13251E+05
 0.97653000E+02 -0.11641E+05
 0.97703003E+02 -0.99542E+04
 0.97752998E+02 -0.85041E+04
 0.97803001E+02 -0.79020E+04
 0.97852997E+02 -0.82682E+04
 0.97903000E+02 -0.92210E+04
 0.97953003E+02 -0.11059E+05
 0.98002998E+02 -0.13314E+05
