-0.20000000E+01 -0.74175E+03
-0.19500000E+01 -0.73753E+03
-0.19000000E+01 -0.73861E+03
-0.18500000E+01 -0.73087E+03
-0.18000000E+01 -0.72602E+03
-0.17500000E+01 -0.72813E+03
-0.17000000E+01 -0.74427E+03
-0.16500001E+01 -0.76120E+03
-0.16000000E+01 -0.76949E+03
-0.15500000E+01 -0.78041E+03
-0.15000000E+01 -0.78515E+03
-0.14500000E+01 -0.78649E+03
-0.14000001E+01 -0.78355E+03
-0.13500000E+01 -0.78113E+03
-0.13000001E+01 -0.78346E+03
-0.12500000E+01 -0.78326E+03
-0.12000000E+01 -0.78323E+03
-0.11500001E+01 -0.77763E+03
-0.11000000E+01 -0.77112E+03
-0.10500001E+01 -0.76538E+03
-0.10000000E+01 -0.75656E+03
-0.95000005E+00 -0.75110E+03
-0.90000010E+00 -0.74876E+03
-0.85000002E+00 -0.75142E+03
-0.80000007E+00 -0.75697E+03
-0.75000012E+00 -0.75964E+03
-0.70000005E+00 -0.75315E+03
-0.65000010E+00 -0.74278E+03
-0.60000014E+00 -0.73449E+03
-0.55000007E+00 -0.72888E+03
-0.50000012E+00 -0.71998E+03
-0.45000005E+00 -0.70495E+03
-0.40000010E+00 -0.69278E+03
-0.35000014E+00 -0.68721E+03
-0.30000007E+00 -0.68904E+03
-0.25000012E+00 -0.68917E+03
-0.20000005E+00 -0.69069E+03
-0.15000010E+00 -0.69884E+03
-0.10000014E+00 -0.70366E+03
-0.50000072E-01 -0.70422E+03
-0.11920929E-06 -0.70635E+03
 0.49999952E-01 -0.71186E+03
 0.99999905E-01 -0.71703E+03
 0.14999986E+00 -0.72987E+03
 0.19999981E+00 -0.74962E+03
 0.24999976E+00 -0.76311E+03
 0.29999995E+00 -0.76999E+03
 0.34999990E+00 -0.76403E+03
 0.39999986E+00 -0.75736E+03
 0.44999981E+00 -0.75829E+03
 0.49999976E+00 -0.75766E+03
 0.54999995E+00 -0.75593E+03
 0.59999990E+00 -0.75518E+03
 0.64999986E+00 -0.75865E+03
 0.69999981E+00 -0.76120E+03
 0.74999976E+00 -0.76446E+03
 0.79999971E+00 -0.77264E+03
 0.84999990E+00 -0.78201E+03
 0.89999986E+00 -0.78288E+03
 0.94999981E+00 -0.78498E+03
 0.99999976E+00 -0.78398E+03
 0.10499997E+01 -0.78037E+03
 0.10999999E+01 -0.77771E+03
 0.11499999E+01 -0.77368E+03
 0.11999998E+01 -0.77149E+03
 0.12499998E+01 -0.76886E+03
 0.12999997E+01 -0.77114E+03
 0.13499999E+01 -0.76620E+03
 0.13999999E+01 -0.75743E+03
 0.14499998E+01 -0.75381E+03
 0.14999998E+01 -0.75066E+03
 0.15499997E+01 -0.75108E+03
 0.15999999E+01 -0.75286E+03
 0.16499999E+01 -0.75428E+03
 0.16999998E+01 -0.75499E+03
 0.17499998E+01 -0.75116E+03
 0.17999997E+01 -0.74979E+03
 0.18499997E+01 -0.74946E+03
 0.18999999E+01 -0.75038E+03
 0.19499998E+01 -0.75081E+03
 0.19999998E+01 -0.74928E+03
 0.20499997E+01 -0.74928E+03
 0.20999999E+01 -0.74509E+03
 0.21499996E+01 -0.73960E+03
 0.21999998E+01 -0.73658E+03
 0.22499995E+01 -0.72929E+03
 0.22999997E+01 -0.72659E+03
 0.23499999E+01 -0.73278E+03
 0.23999996E+01 -0.73947E+03
 0.24499998E+01 -0.74539E+03
 0.24999995E+01 -0.74875E+03
 0.25499997E+01 -0.74805E+03
 0.25999999E+01 -0.74912E+03
 0.26499996E+01 -0.74976E+03
 0.26999998E+01 -0.74774E+03
 0.27499995E+01 -0.74495E+03
 0.27999997E+01 -0.73663E+03
 0.28499999E+01 -0.73018E+03
 0.28999996E+01 -0.72260E+03
 0.29499998E+01 -0.71129E+03
 0.29999995E+01 -0.70635E+03
 0.30499997E+01 -0.70976E+03
 0.30999999E+01 -0.71286E+03
 0.31499996E+01 -0.72124E+03
 0.31999998E+01 -0.72815E+03
 0.32499995E+01 -0.73252E+03
 0.32999997E+01 -0.73235E+03
 0.33499999E+01 -0.72454E+03
 0.33999996E+01 -0.72015E+03
 0.34499998E+01 -0.71755E+03
 0.34999995E+01 -0.72233E+03
 0.35499997E+01 -0.72524E+03
 0.35999994E+01 -0.72914E+03
 0.36499996E+01 -0.73082E+03
 0.36999998E+01 -0.73468E+03
 0.37499995E+01 -0.74320E+03
 0.37999997E+01 -0.74843E+03
 0.38499994E+01 -0.75181E+03
 0.38999996E+01 -0.75406E+03
 0.39499998E+01 -0.75664E+03
 0.39999995E+01 -0.75813E+03
 0.40499997E+01 -0.75643E+03
 0.40999994E+01 -0.75034E+03
 0.41499996E+01 -0.75106E+03
 0.41999998E+01 -0.75139E+03
 0.42499995E+01 -0.74829E+03
 0.42999997E+01 -0.74928E+03
 0.43499994E+01 -0.75613E+03
 0.43999996E+01 -0.75725E+03
 0.44499998E+01 -0.75956E+03
 0.44999995E+01 -0.76669E+03
 0.45499997E+01 -0.76518E+03
 0.45999994E+01 -0.75743E+03
 0.46499996E+01 -0.74876E+03
 0.46999998E+01 -0.74243E+03
 0.47499995E+01 -0.73449E+03
 0.47999997E+01 -0.73153E+03
 0.48499994E+01 -0.72865E+03
 0.48999996E+01 -0.72596E+03
 0.49499998E+01 -0.73189E+03
 0.49999995E+01 -0.73698E+03
 0.50499997E+01 -0.74211E+03
 0.50999994E+01 -0.74547E+03
 0.51499996E+01 -0.75321E+03
 0.51999998E+01 -0.75565E+03
 0.52499995E+01 -0.75541E+03
 0.52999997E+01 -0.75775E+03
 0.53499994E+01 -0.76030E+03
 0.53999996E+01 -0.76764E+03
 0.54499993E+01 -0.77286E+03
 0.54999995E+01 -0.77960E+03
 0.55499997E+01 -0.78401E+03
 0.55999994E+01 -0.78433E+03
 0.56499996E+01 -0.77859E+03
 0.56999993E+01 -0.77428E+03
 0.57499995E+01 -0.77118E+03
 0.57999997E+01 -0.76902E+03
 0.58499994E+01 -0.76503E+03
 0.58999996E+01 -0.75521E+03
 0.59499993E+01 -0.74099E+03
 0.59999995E+01 -0.72561E+03
 0.60499992E+01 -0.72272E+03
 0.60999994E+01 -0.72315E+03
 0.61499996E+01 -0.72713E+03
 0.61999998E+01 -0.73404E+03
 0.62499990E+01 -0.73229E+03
 0.62999992E+01 -0.72876E+03
 0.63499994E+01 -0.72209E+03
 0.63999996E+01 -0.72501E+03
 0.64499998E+01 -0.72447E+03
 0.64999990E+01 -0.72839E+03
 0.65499992E+01 -0.73622E+03
 0.65999994E+01 -0.73765E+03
 0.66499996E+01 -0.74181E+03
 0.66999998E+01 -0.73707E+03
 0.67499990E+01 -0.73442E+03
 0.67999992E+01 -0.72949E+03
 0.68499994E+01 -0.72893E+03
 0.68999996E+01 -0.73556E+03
 0.69499998E+01 -0.74208E+03
 0.69999990E+01 -0.74862E+03
 0.70499992E+01 -0.75650E+03
 0.70999994E+01 -0.76224E+03
 0.71499996E+01 -0.76080E+03
 0.71999998E+01 -0.75793E+03
 0.72499990E+01 -0.75547E+03
 0.72999992E+01 -0.75400E+03
 0.73499994E+01 -0.75612E+03
 0.73999996E+01 -0.75862E+03
 0.74499998E+01 -0.75833E+03
 0.74999990E+01 -0.75078E+03
 0.75499992E+01 -0.74696E+03
 0.75999994E+01 -0.74739E+03
 0.76499996E+01 -0.74011E+03
 0.76999998E+01 -0.73901E+03
 0.77499990E+01 -0.73780E+03
 0.77999992E+01 -0.72977E+03
 0.78499994E+01 -0.72783E+03
 0.78999996E+01 -0.73050E+03
 0.79499998E+01 -0.73653E+03
 0.79999990E+01 -0.74024E+03
 0.80499992E+01 -0.74183E+03
 0.80999994E+01 -0.74587E+03
 0.81499996E+01 -0.74968E+03
 0.81999998E+01 -0.75178E+03
 0.82499990E+01 -0.75390E+03
 0.82999992E+01 -0.75254E+03
 0.83499994E+01 -0.74241E+03
 0.83999996E+01 -0.73290E+03
 0.84499998E+01 -0.72897E+03
 0.84999990E+01 -0.72477E+03
 0.85499992E+01 -0.72218E+03
 0.85999994E+01 -0.72520E+03
 0.86499996E+01 -0.73192E+03
 0.86999998E+01 -0.74290E+03
 0.87499990E+01 -0.75229E+03
 0.87999992E+01 -0.75484E+03
 0.88499994E+01 -0.75689E+03
 0.88999996E+01 -0.75497E+03
 0.89499998E+01 -0.74766E+03
 0.89999990E+01 -0.74523E+03
 0.90499992E+01 -0.74309E+03
 0.90999994E+01 -0.74155E+03
 0.91499996E+01 -0.74251E+03
 0.91999989E+01 -0.74693E+03
 0.92499990E+01 -0.75199E+03
 0.92999992E+01 -0.75252E+03
 0.93499994E+01 -0.75974E+03
 0.93999996E+01 -0.76754E+03
 0.94499989E+01 -0.76942E+03
 0.94999990E+01 -0.77045E+03
 0.95499992E+01 -0.76900E+03
 0.95999994E+01 -0.77059E+03
 0.96499996E+01 -0.76876E+03
 0.96999989E+01 -0.76755E+03
 0.97499990E+01 -0.76920E+03
 0.97999992E+01 -0.77102E+03
 0.98499994E+01 -0.77090E+03
 0.98999996E+01 -0.76822E+03
 0.99499989E+01 -0.76615E+03
 0.99999990E+01 -0.76587E+03
 0.10049999E+02 -0.76919E+03
 0.10099999E+02 -0.77589E+03
 0.10150000E+02 -0.77999E+03
 0.10199999E+02 -0.77235E+03
 0.10249999E+02 -0.76291E+03
 0.10299999E+02 -0.75185E+03
 0.10349999E+02 -0.74820E+03
 0.10400000E+02 -0.74215E+03
 0.10449999E+02 -0.73703E+03
 0.10499999E+02 -0.73557E+03
 0.10549999E+02 -0.73109E+03
 0.10599999E+02 -0.72950E+03
 0.10650000E+02 -0.72449E+03
 0.10699999E+02 -0.72004E+03
 0.10749999E+02 -0.72028E+03
 0.10799999E+02 -0.72348E+03
 0.10849999E+02 -0.72234E+03
 0.10900000E+02 -0.71587E+03
 0.10949999E+02 -0.70176E+03
 0.10999999E+02 -0.69789E+03
 0.11049999E+02 -0.70169E+03
 0.11099999E+02 -0.70784E+03
 0.11150000E+02 -0.71466E+03
 0.11199999E+02 -0.72005E+03
 0.11249999E+02 -0.72773E+03
 0.11299999E+02 -0.73098E+03
 0.11349999E+02 -0.73209E+03
 0.11400000E+02 -0.73030E+03
 0.11449999E+02 -0.73148E+03
 0.11499999E+02 -0.73521E+03
 0.11549999E+02 -0.74132E+03
 0.11599999E+02 -0.74594E+03
 0.11650000E+02 -0.75064E+03
 0.11699999E+02 -0.75320E+03
 0.11749999E+02 -0.74775E+03
 0.11799999E+02 -0.74591E+03
 0.11849999E+02 -0.75161E+03
 0.11900000E+02 -0.75865E+03
 0.11949999E+02 -0.76709E+03
 0.11999999E+02 -0.77001E+03
 0.12049999E+02 -0.76719E+03
 0.12099999E+02 -0.76339E+03
 0.12150000E+02 -0.76099E+03
 0.12199999E+02 -0.75935E+03
 0.12249999E+02 -0.76025E+03
 0.12299999E+02 -0.76561E+03
 0.12349999E+02 -0.76690E+03
 0.12400000E+02 -0.76351E+03
 0.12449999E+02 -0.75921E+03
 0.12499999E+02 -0.76550E+03
 0.12549999E+02 -0.76425E+03
 0.12599999E+02 -0.76028E+03
 0.12649999E+02 -0.75275E+03
 0.12699999E+02 -0.74007E+03
 0.12749999E+02 -0.73991E+03
 0.12799999E+02 -0.73792E+03
 0.12849999E+02 -0.73536E+03
 0.12899999E+02 -0.73286E+03
 0.12949999E+02 -0.73101E+03
 0.12999999E+02 -0.72638E+03
 0.13049999E+02 -0.72500E+03
 0.13099999E+02 -0.72542E+03
 0.13149999E+02 -0.72426E+03
 0.13199999E+02 -0.72568E+03
 0.13249999E+02 -0.72701E+03
 0.13299999E+02 -0.73043E+03
 0.13349999E+02 -0.73625E+03
 0.13399999E+02 -0.74503E+03
 0.13449999E+02 -0.74855E+03
 0.13499999E+02 -0.74822E+03
 0.13549999E+02 -0.74770E+03
 0.13599999E+02 -0.74636E+03
 0.13649999E+02 -0.74638E+03
 0.13699999E+02 -0.74447E+03
 0.13749999E+02 -0.74487E+03
 0.13799999E+02 -0.74770E+03
 0.13849999E+02 -0.74823E+03
 0.13899999E+02 -0.74585E+03
 0.13949999E+02 -0.74443E+03
 0.13999999E+02 -0.74656E+03
 0.14049999E+02 -0.74120E+03
 0.14099998E+02 -0.73755E+03
 0.14150000E+02 -0.73785E+03
 0.14199999E+02 -0.73982E+03
 0.14249998E+02 -0.73975E+03
 0.14299999E+02 -0.74352E+03
 0.14349998E+02 -0.74938E+03
 0.14400000E+02 -0.75012E+03
 0.14449999E+02 -0.75087E+03
 0.14499998E+02 -0.74924E+03
 0.14549999E+02 -0.74831E+03
 0.14599998E+02 -0.74792E+03
 0.14650000E+02 -0.74942E+03
 0.14699999E+02 -0.75245E+03
 0.14749998E+02 -0.75198E+03
 0.14799999E+02 -0.74976E+03
 0.14849998E+02 -0.74276E+03
 0.14900000E+02 -0.73861E+03
 0.14949999E+02 -0.73009E+03
 0.14999998E+02 -0.72778E+03
 0.15049999E+02 -0.72189E+03
 0.15099998E+02 -0.72456E+03
 0.15150000E+02 -0.71921E+03
 0.15199999E+02 -0.71990E+03
 0.15249998E+02 -0.71524E+03
 0.15299999E+02 -0.72176E+03
 0.15349998E+02 -0.72792E+03
 0.15400000E+02 -0.75336E+03
 0.15449999E+02 -0.75611E+03
 0.15499998E+02 -0.76431E+03
 0.15549999E+02 -0.78856E+03
 0.15599998E+02 -0.80555E+03
 0.15650000E+02 -0.95414E+03
 0.15699999E+02 -0.95520E+03
 0.15749998E+02 -0.98401E+03
 0.15799999E+02 -0.69791E+03
 0.15849998E+02 -0.46286E+03
 0.15900000E+02 -0.25048E+03
 0.15949999E+02 -0.21807E+03
 0.15999998E+02 -0.34919E+03
 0.16049999E+02 -0.87658E+03
 0.16099998E+02 -0.11144E+04
 0.16150000E+02 -0.16174E+04
 0.16199999E+02 -0.15478E+04
 0.16249998E+02 -0.15358E+04
 0.16299999E+02 -0.60484E+03
 0.16349998E+02  0.31176E+03
 0.16400000E+02  0.29319E+03
 0.16449999E+02 -0.65046E+03
 0.16499998E+02 -0.22330E+04
 0.16549999E+02 -0.14312E+04
 0.16599998E+02 -0.15491E+04
 0.16650000E+02  0.18959E+03
 0.16699999E+02 -0.72056E+02
 0.16749998E+02 -0.25887E+03
 0.16799999E+02 -0.33715E+02
 0.16849998E+02  0.39553E+02
 0.16900000E+02  0.74715E+03
 0.16949999E+02 -0.20824E+04
 0.16999998E+02 -0.34413E+04
 0.17049999E+02 -0.25672E+04
 0.17099998E+02  0.68951E+03
 0.17150000E+02  0.17058E+04
 0.17199999E+02 -0.11368E+04
 0.17249998E+02 -0.24657E+04
 0.17299999E+02 -0.82544E+03
 0.17349998E+02  0.14833E+04
 0.17400000E+02  0.11046E+04
 0.17449999E+02 -0.10969E+03
 0.17499998E+02 -0.13800E+04
 0.17549999E+02 -0.37029E+04
 0.17599998E+02 -0.11633E+04
 0.17650000E+02  0.15237E+03
 0.17699999E+02  0.99546E+03
 0.17749998E+02 -0.14070E+03
 0.17799999E+02 -0.38724E+04
 0.17849998E+02 -0.46102E+03
 0.17900000E+02 -0.10633E+04
 0.17949999E+02 -0.13228E+04
 0.17999998E+02 -0.28405E+04
 0.18049999E+02 -0.33818E+04
 0.18099998E+02  0.19971E+04
 0.18150000E+02  0.19914E+04
 0.18199999E+02  0.32701E+03
 0.18249998E+02 -0.16831E+03
 0.18299999E+02 -0.12247E+04
 0.18349998E+02 -0.17071E+04
 0.18400000E+02 -0.36719E+04
 0.18449999E+02 -0.13522E+04
 0.18499998E+02  0.15001E+04
 0.18549999E+02  0.28923E+04
 0.18599998E+02  0.38768E+03
 0.18650000E+02 -0.30009E+04
 0.18699999E+02  0.90695E+03
 0.18749998E+02  0.75563E+03
 0.18799999E+02 -0.13003E+03
 0.18849998E+02 -0.23148E+04
 0.18900000E+02 -0.55158E+04
 0.18949999E+02 -0.28637E+04
 0.18999998E+02  0.16139E+04
 0.19049999E+02  0.39159E+04
 0.19099998E+02  0.89840E+03
 0.19150000E+02 -0.27681E+04
 0.19199999E+02 -0.37216E+04
 0.19249998E+02 -0.67361E+04
 0.19299999E+02 -0.26783E+04
 0.19349998E+02  0.14157E+04
 0.19400000E+02  0.40169E+04
 0.19449999E+02  0.22498E+04
 0.19499998E+02 -0.57126E+04
 0.19549999E+02 -0.13507E+04
 0.19599998E+02  0.15716E+04
 0.19650000E+02 -0.27590E+04
 0.19699999E+02  0.16335E+03
 0.19749998E+02 -0.51483E+02
 0.19799999E+02  0.26570E+04
 0.19849998E+02  0.11942E+04
 0.19900000E+02 -0.52546E+04
 0.19949999E+02 -0.81483E+03
 0.19999998E+02 -0.31156E+02
 0.20049999E+02  0.27539E+04
 0.20099998E+02  0.28654E+04
 0.20150000E+02 -0.57250E+04
 0.20199999E+02 -0.15736E+04
 0.20249998E+02  0.39647E+04
 0.20299999E+02 -0.58367E+04
 0.20349998E+02 -0.58613E+04
 0.20399998E+02  0.21239E+04
 0.20449999E+02  0.15218E+04
 0.20499998E+02  0.14291E+03
 0.20549999E+02 -0.55399E+03
 0.20599998E+02 -0.13907E+04
 0.20649998E+02 -0.23703E+04
 0.20699999E+02 -0.16306E+04
 0.20749998E+02  0.94880E+03
 0.20799999E+02  0.23970E+04
 0.20849998E+02 -0.18425E+04
 0.20899998E+02 -0.53865E+04
 0.20949999E+02 -0.20733E+04
 0.20999998E+02  0.27640E+04
 0.21049999E+02  0.17518E+04
 0.21099998E+02 -0.47802E+04
 0.21149998E+02 -0.14894E+04
 0.21199999E+02  0.38626E+03
 0.21249998E+02 -0.12073E+04
 0.21299999E+02  0.32648E+04
 0.21349998E+02  0.60510E+03
 0.21399998E+02 -0.47018E+04
 0.21449999E+02 -0.19470E+04
 0.21499998E+02 -0.32124E+04
 0.21549999E+02 -0.12270E+03
 0.21599998E+02  0.45082E+04
 0.21649998E+02 -0.36019E+03
 0.21699999E+02 -0.21109E+04
 0.21749998E+02 -0.37899E+04
 0.21799999E+02 -0.14928E+04
 0.21849998E+02  0.76335E+03
 0.21899998E+02  0.10636E+04
 0.21949999E+02 -0.37240E+03
 0.21999998E+02 -0.35969E+04
 0.22049999E+02 -0.19076E+04
 0.22099998E+02 -0.18483E+04
 0.22149998E+02  0.96294E+02
 0.22199999E+02 -0.20275E+04
 0.22249998E+02  0.16845E+04
 0.22299999E+02  0.98507E+03
 0.22349998E+02 -0.24244E+04
 0.22399998E+02  0.16358E+04
 0.22449999E+02 -0.29034E+03
 0.22499998E+02 -0.50595E+03
 0.22549999E+02  0.72104E+03
 0.22599998E+02 -0.16032E+04
 0.22649998E+02 -0.14425E+04
 0.22699999E+02  0.47802E+03
 0.22749998E+02 -0.16247E+04
 0.22799999E+02  0.28027E+04
 0.22849998E+02 -0.12268E+04
 0.22899998E+02  0.37666E+03
 0.22949999E+02 -0.24583E+04
 0.22999998E+02 -0.33873E+04
 0.23049999E+02  0.55694E+03
 0.23099998E+02 -0.32768E+04
 0.23149998E+02  0.82906E+03
 0.23199999E+02 -0.95496E+03
 0.23249998E+02 -0.15900E+03
 0.23299999E+02  0.96696E+03
 0.23349998E+02  0.29222E+04
 0.23399998E+02 -0.38558E+04
 0.23449999E+02 -0.89730E+04
 0.23499998E+02 -0.37528E+04
 0.23549999E+02  0.29374E+03
 0.23599998E+02  0.44839E+03
 0.23649998E+02  0.14735E+04
 0.23699999E+02 -0.22284E+03
 0.23749998E+02  0.76219E+03
 0.23799999E+02  0.30546E+03
 0.23849998E+02 -0.42786E+04
 0.23899998E+02 -0.18367E+04
 0.23949999E+02 -0.14488E+04
 0.23999998E+02  0.69500E+04
 0.24049999E+02  0.48709E+04
 0.24099998E+02 -0.22960E+04
 0.24149998E+02 -0.52118E+04
 0.24199999E+02 -0.22338E+04
 0.24249998E+02 -0.27914E+03
 0.24299999E+02 -0.92647E+03
 0.24349998E+02  0.13221E+03
 0.24399998E+02 -0.25858E+04
 0.24449999E+02  0.96789E+03
 0.24499998E+02 -0.92160E+03
 0.24549999E+02 -0.22152E+04
 0.24599998E+02  0.29747E+04
 0.24649998E+02  0.17429E+04
 0.24699999E+02 -0.27704E+04
 0.24749998E+02 -0.18447E+04
 0.24799999E+02 -0.60132E+03
 0.24849998E+02 -0.34637E+04
 0.24899998E+02 -0.11726E+04
 0.24949999E+02  0.16380E+02
 0.24999998E+02 -0.72548E+03
 0.25049999E+02 -0.29940E+04
 0.25099998E+02 -0.15029E+04
 0.25149998E+02  0.80569E+04
 0.25199999E+02  0.60889E+04
 0.25249998E+02  0.60158E+04
 0.25299999E+02 -0.12680E+04
 0.25349998E+02 -0.67404E+04
 0.25399998E+02 -0.58022E+04
 0.25449999E+02 -0.39855E+04
 0.25499998E+02  0.41393E+04
 0.25549999E+02  0.29700E+04
 0.25599998E+02 -0.22930E+04
 0.25649998E+02 -0.98446E+04
 0.25699999E+02 -0.11609E+05
 0.25749998E+02 -0.57970E+04
 0.25799999E+02  0.86969E+04
 0.25849998E+02  0.87356E+04
 0.25899998E+02  0.11566E+05
 0.25949999E+02  0.72481E+04
 0.25999998E+02 -0.33249E+04
 0.26049999E+02 -0.34761E+04
 0.26099998E+02 -0.12459E+05
 0.26149998E+02 -0.95030E+04
 0.26199999E+02  0.15120E+04
 0.26249998E+02 -0.72351E+04
 0.26299999E+02 -0.15128E+05
 0.26349998E+02  0.36534E+04
 0.26399998E+02  0.10514E+04
 0.26449999E+02 -0.12818E+05
 0.26499998E+02 -0.16800E+05
 0.26549999E+02 -0.66883E+04
 0.26599998E+02  0.10974E+05
 0.26649998E+02  0.21349E+05
 0.26699999E+02  0.17213E+05
 0.26749998E+02  0.18226E+05
 0.26799999E+02  0.27624E+04
 0.26849998E+02 -0.17817E+05
 0.26899998E+02 -0.15307E+05
 0.26949999E+02 -0.96849E+04
 0.26999998E+02  0.27101E+05
 0.27049997E+02  0.23734E+05
 0.27099998E+02 -0.46677E+04
 0.27149998E+02 -0.39524E+04
 0.27199999E+02 -0.16194E+05
 0.27249998E+02 -0.19400E+05
 0.27299997E+02 -0.17197E+05
 0.27349998E+02 -0.42555E+04
 0.27399998E+02  0.12650E+05
 0.27449999E+02  0.48321E+04
 0.27499998E+02  0.94148E+04
 0.27549997E+02  0.13616E+05
 0.27599998E+02  0.45756E+04
 0.27649998E+02 -0.15043E+05
 0.27699999E+02 -0.19664E+05
 0.27749998E+02 -0.66276E+04
 0.27799997E+02  0.32246E+04
 0.27849998E+02  0.19073E+05
 0.27899998E+02  0.16991E+05
 0.27949999E+02  0.73295E+03
 0.27999998E+02 -0.14631E+05
 0.28049997E+02 -0.21649E+05
 0.28099998E+02 -0.90913E+04
 0.28149998E+02  0.93929E+04
 0.28199999E+02  0.12539E+05
 0.28249998E+02  0.77768E+03
 0.28299997E+02 -0.58502E+04
 0.28349998E+02 -0.66040E+04
 0.28399998E+02  0.49460E+04
 0.28449999E+02  0.23137E+04
 0.28499998E+02 -0.12408E+05
 0.28549997E+02 -0.17311E+04
 0.28599998E+02  0.31021E+04
 0.28649998E+02  0.24223E+03
 0.28699999E+02 -0.90808E+04
 0.28749998E+02 -0.96679E+03
 0.28799997E+02 -0.17238E+04
 0.28849998E+02 -0.55234E+04
 0.28899998E+02  0.12107E+05
 0.28949999E+02  0.93780E+04
 0.28999998E+02 -0.14503E+04
 0.29049997E+02 -0.97793E+04
 0.29099998E+02 -0.82040E+04
 0.29149998E+02 -0.13291E+05
 0.29199999E+02 -0.33456E+04
 0.29249998E+02  0.54239E+04
 0.29299997E+02  0.17330E+04
 0.29349998E+02  0.32875E+04
 0.29399998E+02 -0.91272E+04
 0.29449999E+02 -0.10183E+05
 0.29499998E+02  0.16960E+04
 0.29549997E+02  0.78834E+04
 0.29599998E+02  0.99406E+03
 0.29649998E+02  0.64045E+04
 0.29699999E+02  0.73012E+04
 0.29749998E+02 -0.51374E+04
 0.29799997E+02  0.70660E+03
 0.29849998E+02  0.11840E+05
 0.29899998E+02  0.99162E+04
 0.29949999E+02 -0.27977E+04
 0.29999998E+02 -0.30688E+04
 0.30049999E+02 -0.12117E+05
 0.30099998E+02 -0.98651E+04
 0.30149998E+02 -0.66707E+04
 0.30199997E+02 -0.67652E+04
 0.30249996E+02  0.75541E+04
 0.30299999E+02  0.66644E+04
 0.30349998E+02  0.34597E+03
 0.30399998E+02  0.19334E+04
 0.30449997E+02  0.49829E+04
 0.30499996E+02 -0.33304E+04
 0.30549999E+02 -0.88361E+04
 0.30599998E+02 -0.63455E+04
 0.30649998E+02  0.11810E+04
 0.30699997E+02 -0.44204E+04
 0.30749996E+02  0.37003E+04
 0.30799999E+02  0.14942E+05
 0.30849998E+02  0.89661E+03
 0.30899998E+02 -0.20343E+04
 0.30949997E+02 -0.76527E+03
 0.30999996E+02 -0.91708E+04
 0.31049999E+02 -0.12530E+04
 0.31099998E+02  0.16375E+04
 0.31149998E+02 -0.80832E+04
 0.31199997E+02 -0.94881E+04
 0.31249996E+02 -0.10701E+05
 0.31299999E+02 -0.16243E+04
 0.31349998E+02 -0.41635E+04
 0.31399998E+02 -0.33390E+04
 0.31449997E+02 -0.22490E+04
 0.31499996E+02 -0.59291E+04
 0.31549999E+02  0.61516E+04
 0.31599998E+02  0.75871E+04
 0.31649998E+02  0.15690E+03
 0.31699997E+02  0.26639E+03
 0.31749996E+02  0.81642E+04
 0.31799999E+02  0.82937E+04
 0.31849998E+02  0.49518E+04
 0.31899998E+02  0.36759E+04
 0.31949997E+02 -0.48923E+04
 0.31999996E+02 -0.25245E+04
 0.32049999E+02 -0.80655E+03
 0.32099998E+02 -0.10186E+05
 0.32149998E+02 -0.65939E+04
 0.32199997E+02  0.12282E+04
 0.32249996E+02 -0.20938E+02
 0.32299999E+02  0.74824E+03
 0.32349998E+02  0.10873E+05
 0.32399998E+02  0.79426E+04
 0.32449997E+02  0.64160E+03
 0.32499996E+02 -0.38013E+04
 0.32549999E+02 -0.39235E+04
 0.32599998E+02 -0.58398E+03
 0.32649998E+02 -0.16324E+04
 0.32699997E+02 -0.26562E+04
 0.32749996E+02 -0.85415E+04
 0.32799999E+02 -0.15278E+04
 0.32849998E+02 -0.37167E+04
 0.32899998E+02 -0.76620E+04
 0.32949997E+02 -0.21007E+04
 0.32999996E+02 -0.50361E+03
 0.33049999E+02  0.36333E+04
 0.33099998E+02  0.10302E+05
 0.33149998E+02  0.12332E+05
 0.33199997E+02  0.24008E+04
 0.33249996E+02 -0.60531E+04
 0.33299999E+02 -0.12494E+05
 0.33349998E+02 -0.92869E+04
 0.33399998E+02 -0.18833E+04
 0.33449997E+02 -0.88742E+04
 0.33499996E+02 -0.94906E+04
 0.33549999E+02  0.20955E+04
 0.33599998E+02  0.37035E+04
 0.33649998E+02  0.36079E+04
 0.33699997E+02  0.56205E+04
 0.33749996E+02  0.44504E+04
 0.33799999E+02  0.54750E+03
 0.33849998E+02  0.98740E+03
 0.33899998E+02  0.72826E+03
 0.33949997E+02 -0.15148E+04
 0.33999996E+02 -0.24966E+04
 0.34049999E+02 -0.63787E+04
 0.34099998E+02 -0.54935E+04
 0.34149998E+02 -0.72057E+04
 0.34199997E+02 -0.94785E+04
 0.34249996E+02 -0.62323E+04
 0.34299999E+02 -0.34487E+03
 0.34349998E+02  0.46011E+04
 0.34399998E+02  0.83149E+04
 0.34449997E+02  0.97154E+04
 0.34499996E+02  0.10487E+05
 0.34549999E+02  0.10804E+05
 0.34599998E+02  0.76193E+04
 0.34649998E+02 -0.70460E+03
 0.34699997E+02 -0.13156E+05
 0.34749996E+02 -0.11320E+05
 0.34799999E+02 -0.55660E+04
 0.34849998E+02 -0.21351E+04
 0.34899998E+02  0.11591E+04
 0.34949997E+02  0.11113E+04
 0.34999996E+02 -0.81997E+03
 0.35049999E+02 -0.71493E+04
 0.35099998E+02 -0.22132E+04
 0.35149998E+02  0.38562E+04
 0.35199997E+02  0.37717E+03
 0.35249996E+02  0.76813E+03
 0.35299999E+02  0.29429E+03
 0.35349998E+02 -0.11093E+03
 0.35399998E+02  0.41122E+04
 0.35449997E+02 -0.24170E+03
 0.35499996E+02  0.19019E+04
 0.35549999E+02  0.36024E+04
 0.35599998E+02 -0.74498E+04
 0.35649998E+02 -0.57838E+04
 0.35699997E+02  0.30853E+04
 0.35749996E+02 -0.17282E+04
 0.35799999E+02 -0.86350E+04
 0.35849998E+02 -0.65548E+04
 0.35899998E+02 -0.23355E+03
 0.35949997E+02  0.79516E+04
 0.35999996E+02  0.51323E+04
 0.36049999E+02 -0.16032E+04
 0.36099998E+02 -0.51937E+04
 0.36149998E+02 -0.48714E+04
 0.36199997E+02 -0.45220E+04
 0.36249996E+02 -0.89641E+03
 0.36299999E+02  0.23646E+04
 0.36349998E+02  0.76468E+03
 0.36399998E+02  0.22448E+04
 0.36449997E+02 -0.58279E+04
 0.36499996E+02 -0.11897E+05
 0.36549999E+02 -0.42640E+04
 0.36599998E+02  0.68880E+04
 0.36649998E+02  0.90158E+04
 0.36699997E+02  0.27149E+04
 0.36749996E+02 -0.34762E+04
 0.36799999E+02 -0.36382E+04
 0.36849998E+02  0.12665E+04
 0.36899998E+02  0.38128E+04
 0.36949997E+02  0.46103E+04
 0.36999996E+02 -0.10928E+04
 0.37049999E+02 -0.65190E+04
 0.37099998E+02 -0.47369E+04
 0.37149998E+02 -0.32139E+04
 0.37199997E+02 -0.22911E+04
 0.37249996E+02 -0.10795E+04
 0.37299999E+02 -0.40429E+04
 0.37349998E+02 -0.27840E+04
 0.37399998E+02 -0.64731E+03
 0.37449997E+02 -0.13447E+04
 0.37499996E+02  0.41753E+02
 0.37549999E+02  0.23797E+04
 0.37599998E+02  0.18203E+04
 0.37649998E+02 -0.22956E+04
 0.37699997E+02  0.90401E+03
 0.37749996E+02  0.30943E+04
 0.37799999E+02  0.10759E+04
 0.37849998E+02  0.16847E+03
 0.37899998E+02 -0.14360E+04
 0.37949997E+02 -0.18430E+04
 0.37999996E+02 -0.29120E+04
 0.38049999E+02 -0.34747E+04
 0.38099998E+02  0.92434E+03
 0.38149998E+02  0.33445E+04
 0.38199997E+02  0.12603E+04
 0.38249996E+02  0.12248E+04
 0.38299999E+02  0.15192E+04
 0.38349998E+02 -0.42711E+03
 0.38399998E+02  0.22496E+04
 0.38449997E+02  0.21006E+04
 0.38499996E+02  0.82580E+03
 0.38549999E+02  0.81822E+03
 0.38599998E+02 -0.26184E+04
 0.38649998E+02 -0.37003E+04
 0.38699997E+02 -0.31338E+04
 0.38749996E+02 -0.35421E+02
 0.38799999E+02  0.19394E+04
 0.38849998E+02 -0.80761E+02
 0.38899998E+02 -0.34472E+04
 0.38949997E+02 -0.28056E+04
 0.38999996E+02 -0.40656E+04
 0.39049999E+02 -0.55222E+04
 0.39099998E+02 -0.58340E+04
 0.39149998E+02 -0.69124E+04
 0.39199997E+02 -0.33934E+04
 0.39249996E+02  0.10610E+04
 0.39299999E+02  0.32005E+04
 0.39349998E+02  0.58091E+04
 0.39399998E+02  0.40829E+04
 0.39449997E+02 -0.41371E+04
 0.39499996E+02 -0.49531E+04
 0.39549999E+02 -0.10226E+04
 0.39599998E+02  0.18344E+04
 0.39649998E+02  0.14367E+04
 0.39699997E+02  0.11823E+04
 0.39749996E+02 -0.13785E+04
 0.39799999E+02 -0.40158E+04
 0.39849998E+02 -0.16351E+04
 0.39899998E+02  0.25484E+04
 0.39949997E+02  0.12797E+04
 0.39999996E+02 -0.27744E+04
 0.40049999E+02 -0.21964E+04
 0.40099998E+02 -0.32350E+04
 0.40149998E+02 -0.37592E+03
 0.40199997E+02  0.27801E+04
 0.40249996E+02  0.15640E+04
 0.40299999E+02 -0.14106E+04
 0.40349998E+02 -0.18109E+04
 0.40399998E+02 -0.20549E+04
 0.40449997E+02 -0.25542E+04
 0.40499996E+02 -0.38018E+04
 0.40549999E+02 -0.46074E+04
 0.40599998E+02 -0.27898E+04
 0.40649998E+02  0.13968E+04
 0.40699997E+02  0.26239E+04
 0.40749996E+02  0.24476E+03
 0.40799999E+02  0.21476E+04
 0.40849998E+02  0.12116E+04
 0.40899998E+02 -0.15503E+03
 0.40949997E+02  0.47163E+03
 0.40999996E+02  0.12587E+04
 0.41049999E+02  0.13455E+04
 0.41099998E+02 -0.53202E+03
 0.41149998E+02 -0.18727E+04
 0.41199997E+02 -0.33143E+04
 0.41249996E+02 -0.45554E+04
 0.41299999E+02 -0.28463E+04
 0.41349998E+02 -0.93068E+03
 0.41399998E+02  0.14785E+04
 0.41449997E+02  0.24223E+04
 0.41499996E+02 -0.55554E+03
 0.41549999E+02 -0.32400E+04
 0.41599998E+02 -0.22089E+04
 0.41649998E+02 -0.13950E+04
 0.41699997E+02 -0.30042E+04
 0.41749996E+02  0.38933E+03
 0.41799999E+02  0.41319E+04
 0.41849998E+02  0.37512E+04
 0.41899998E+02 -0.53919E+03
 0.41949997E+02 -0.21486E+04
 0.41999996E+02 -0.55195E+03
 0.42049999E+02 -0.28444E+04
 0.42099998E+02 -0.50036E+04
 0.42149998E+02 -0.35144E+04
 0.42199997E+02 -0.25409E+04
 0.42249996E+02 -0.19862E+04
 0.42299999E+02 -0.60638E+03
 0.42349998E+02 -0.11245E+04
 0.42399998E+02 -0.11568E+03
 0.42449997E+02  0.16384E+04
 0.42499996E+02  0.26518E+04
 0.42549999E+02  0.76732E+03
 0.42599998E+02 -0.81348E+03
 0.42649998E+02 -0.13668E+04
 0.42699997E+02 -0.47853E+03
 0.42749996E+02  0.26717E+04
 0.42799995E+02  0.26269E+04
 0.42849998E+02 -0.23023E+03
 0.42899998E+02 -0.35393E+04
 0.42949997E+02 -0.34226E+04
 0.42999996E+02 -0.27874E+04
 0.43049995E+02 -0.23814E+04
 0.43099998E+02 -0.13814E+04
 0.43149998E+02 -0.22534E+04
 0.43199997E+02 -0.33966E+04
 0.43249996E+02 -0.67518E+03
 0.43299995E+02  0.19603E+04
 0.43349998E+02  0.87182E+02
 0.43399998E+02  0.41075E+03
 0.43449997E+02  0.99445E+03
 0.43499996E+02 -0.13711E+04
 0.43549995E+02 -0.71083E+03
 0.43599998E+02  0.15896E+04
 0.43649998E+02  0.11623E+04
 0.43699997E+02  0.20423E+03
 0.43749996E+02 -0.48142E+03
 0.43799995E+02 -0.20058E+04
 0.43849998E+02 -0.40125E+04
 0.43899998E+02 -0.51840E+04
 0.43949997E+02 -0.24720E+04
 0.43999996E+02 -0.11968E+03
 0.44049995E+02  0.19294E+04
 0.44099998E+02  0.49019E+04
 0.44149998E+02  0.27116E+04
 0.44199997E+02 -0.34003E+03
 0.44249996E+02 -0.10093E+04
 0.44299995E+02 -0.12936E+04
 0.44349998E+02 -0.21081E+04
 0.44399998E+02 -0.35647E+04
 0.44449997E+02 -0.29891E+04
 0.44499996E+02 -0.18492E+04
 0.44549995E+02 -0.83285E+03
 0.44599998E+02 -0.12937E+04
 0.44649998E+02 -0.62812E+03
 0.44699997E+02  0.32488E+03
 0.44749996E+02 -0.13813E+04
 0.44799995E+02 -0.29913E+04
 0.44849998E+02 -0.34356E+04
 0.44899998E+02 -0.34292E+04
 0.44949997E+02 -0.46938E+02
 0.44999996E+02  0.41305E+04
 0.45049995E+02  0.13545E+04
 0.45099998E+02 -0.11905E+04
 0.45149998E+02 -0.24196E+04
 0.45199997E+02 -0.16493E+04
 0.45249996E+02 -0.10589E+04
 0.45299995E+02 -0.77461E+03
 0.45349998E+02  0.81629E+03
 0.45399998E+02 -0.37931E+03
 0.45449997E+02 -0.91586E+03
 0.45499996E+02  0.44137E+03
 0.45549995E+02  0.19524E+04
 0.45599998E+02  0.30113E+04
 0.45649998E+02  0.15584E+04
 0.45699997E+02 -0.23454E+04
 0.45749996E+02 -0.41150E+04
 0.45799995E+02 -0.24450E+04
 0.45849998E+02 -0.79848E+03
 0.45899998E+02 -0.10641E+04
 0.45949997E+02 -0.11580E+04
 0.45999996E+02  0.46252E+02
 0.46049995E+02  0.43877E+03
 0.46099998E+02 -0.30523E+03
 0.46149998E+02 -0.49066E+02
 0.46199997E+02 -0.55162E+03
 0.46249996E+02 -0.13357E+04
 0.46299995E+02 -0.13853E+04
 0.46349998E+02  0.18263E+03
 0.46399998E+02  0.73919E+02
 0.46449997E+02 -0.67321E+03
 0.46499996E+02 -0.13023E+04
 0.46549995E+02 -0.34608E+04
 0.46599998E+02 -0.32447E+04
 0.46649998E+02 -0.33837E+04
 0.46699997E+02 -0.26625E+04
 0.46749996E+02 -0.14278E+04
 0.46799995E+02  0.25986E+03
 0.46849998E+02 -0.52245E+03
 0.46899998E+02 -0.17045E+04
 0.46949997E+02 -0.22650E+03
 0.46999996E+02  0.12582E+04
 0.47049995E+02  0.34319E+04
 0.47099998E+02  0.19829E+04
 0.47149998E+02  0.10362E+04
 0.47199997E+02  0.20328E+03
 0.47249996E+02  0.11167E+03
 0.47299995E+02  0.83316E+02
 0.47349998E+02  0.16206E+04
 0.47399998E+02  0.91672E+03
 0.47449997E+02 -0.31792E+04
 0.47499996E+02 -0.39103E+04
 0.47549995E+02 -0.34102E+04
 0.47599998E+02 -0.12910E+04
 0.47649998E+02 -0.13549E+04
 0.47699997E+02 -0.39909E+03
 0.47749996E+02  0.68039E+03
 0.47799995E+02  0.62800E+03
 0.47849998E+02 -0.95526E+03
 0.47899998E+02 -0.27401E+04
 0.47949997E+02 -0.16086E+04
 0.47999996E+02 -0.99917E+03
 0.48049995E+02 -0.12676E+04
 0.48099998E+02 -0.17545E+04
 0.48149998E+02 -0.17402E+04
 0.48199997E+02 -0.13638E+04
 0.48249996E+02 -0.16471E+04
 0.48299995E+02 -0.11481E+04
 0.48349998E+02 -0.75825E+02
 0.48399998E+02 -0.41314E+03
 0.48449997E+02 -0.63095E+03
 0.48499996E+02 -0.19816E+04
 0.48549995E+02 -0.27829E+04
 0.48599998E+02  0.10886E+03
 0.48649998E+02  0.17820E+04
 0.48699997E+02  0.15454E+04
 0.48749996E+02  0.13462E+04
 0.48799995E+02 -0.25598E+03
 0.48849998E+02 -0.10593E+04
 0.48899998E+02 -0.14855E+04
 0.48949997E+02 -0.21274E+04
 0.48999996E+02 -0.18503E+04
 0.49049995E+02 -0.87968E+03
 0.49099998E+02 -0.19810E+03
 0.49149998E+02  0.45594E+03
 0.49199997E+02  0.34531E+03
 0.49249996E+02 -0.11641E+04
 0.49299995E+02 -0.26971E+04
 0.49349998E+02 -0.39167E+04
 0.49399998E+02 -0.20110E+04
 0.49449997E+02 -0.12033E+04
 0.49499996E+02 -0.15053E+04
 0.49549995E+02 -0.37532E+03
 0.49599998E+02 -0.13526E+03
 0.49649998E+02 -0.80011E+03
 0.49699997E+02 -0.10723E+04
 0.49749996E+02  0.42151E+03
 0.49799995E+02  0.12122E+04
 0.49849998E+02  0.87334E+03
 0.49899998E+02  0.48566E+03
 0.49949997E+02  0.70356E+03
 0.49999996E+02  0.32308E+03
 0.50049995E+02  0.12096E+03
 0.50099998E+02 -0.37210E+03
 0.50149998E+02 -0.14369E+04
 0.50199997E+02 -0.16063E+04
 0.50249996E+02 -0.91583E+03
 0.50299995E+02  0.50797E+03
 0.50349998E+02  0.12401E+04
 0.50399998E+02  0.70538E+02
 0.50449997E+02 -0.13803E+04
 0.50499996E+02 -0.65199E+03
 0.50549995E+02 -0.95850E+03
 0.50599998E+02 -0.23619E+04
 0.50649998E+02 -0.31144E+04
 0.50699997E+02 -0.39055E+04
 0.50749996E+02 -0.41474E+04
 0.50799995E+02 -0.25206E+04
 0.50849998E+02 -0.11346E+04
 0.50899998E+02 -0.52544E+03
 0.50949997E+02 -0.98117E+03
 0.50999996E+02 -0.13355E+04
 0.51049995E+02 -0.14757E+03
 0.51099998E+02  0.20049E+02
 0.51149998E+02  0.63339E+02
 0.51199997E+02 -0.20838E+03
 0.51249996E+02 -0.62510E+03
 0.51299995E+02 -0.88542E+03
 0.51349998E+02 -0.49465E+03
 0.51399998E+02 -0.19387E+03
 0.51449997E+02  0.36071E+03
 0.51499996E+02  0.39370E+03
 0.51549995E+02 -0.74041E+02
 0.51599998E+02  0.48584E+03
 0.51649998E+02  0.18367E+03
 0.51699997E+02 -0.52868E+03
 0.51749996E+02  0.31299E+02
 0.51799995E+02 -0.43307E+03
 0.51849998E+02 -0.18956E+04
 0.51899998E+02 -0.11384E+04
 0.51949997E+02 -0.59263E+03
 0.51999996E+02 -0.76101E+02
 0.52049995E+02  0.52568E+03
 0.52099998E+02  0.33796E+03
 0.52149998E+02 -0.12300E+03
 0.52199997E+02 -0.53701E+03
 0.52249996E+02 -0.13229E+04
 0.52299995E+02 -0.13032E+04
 0.52349998E+02 -0.83468E+03
 0.52399998E+02 -0.10920E+04
 0.52449997E+02 -0.18478E+04
 0.52499996E+02 -0.26305E+04
 0.52549995E+02 -0.13248E+04
 0.52599998E+02 -0.28882E+03
 0.52649998E+02 -0.13367E+03
 0.52699997E+02  0.94605E+03
 0.52749996E+02  0.82931E+03
 0.52799995E+02  0.21135E+03
 0.52849998E+02 -0.22521E+03
 0.52899998E+02 -0.21570E+04
 0.52949997E+02 -0.26183E+04
 0.52999996E+02 -0.19086E+04
 0.53049995E+02 -0.16766E+04
 0.53099998E+02 -0.17686E+04
 0.53149998E+02 -0.22770E+04
 0.53199997E+02 -0.24669E+04
 0.53249996E+02 -0.20510E+04
 0.53299995E+02 -0.76367E+03
 0.53349998E+02 -0.76475E+02
 0.53399998E+02 -0.33766E+02
 0.53449997E+02  0.48309E+03
 0.53499996E+02 -0.54852E+02
 0.53549995E+02 -0.82000E+03
 0.53599998E+02 -0.71202E+03
 0.53649998E+02 -0.11386E+04
 0.53699997E+02 -0.14016E+04
 0.53749996E+02 -0.57520E+03
 0.53799995E+02 -0.42666E+03
 0.53849998E+02 -0.49273E+03
 0.53899998E+02 -0.66195E+02
 0.53949997E+02  0.67702E+03
 0.53999996E+02  0.89445E+03
 0.54049995E+02  0.29222E+03
 0.54099998E+02 -0.28061E+03
 0.54149998E+02 -0.74794E+03
 0.54199997E+02 -0.11224E+04
 0.54249996E+02 -0.10093E+04
 0.54299995E+02 -0.82784E+03
 0.54349998E+02 -0.14910E+04
 0.54399998E+02 -0.19983E+04
 0.54449997E+02 -0.18472E+04
 0.54499996E+02 -0.15757E+04
 0.54549995E+02 -0.10206E+04
 0.54599998E+02  0.14405E+03
 0.54649998E+02  0.47253E+03
 0.54699997E+02  0.30191E+01
 0.54749996E+02 -0.73271E+03
 0.54799995E+02 -0.67779E+03
 0.54849998E+02 -0.13354E+02
 0.54899998E+02 -0.60681E+03
 0.54949997E+02 -0.70272E+03
 0.54999996E+02 -0.86550E+03
 0.55049995E+02 -0.13659E+04
 0.55099998E+02 -0.69301E+03
 0.55149998E+02 -0.17563E+03
 0.55199997E+02  0.53745E+02
 0.55249996E+02 -0.39203E+02
 0.55299995E+02 -0.22513E+03
 0.55349998E+02 -0.92795E+03
 0.55399998E+02 -0.16420E+04
 0.55449997E+02 -0.15214E+04
 0.55499996E+02 -0.15171E+04
 0.55549995E+02 -0.20891E+04
 0.55599998E+02 -0.17126E+04
 0.55649998E+02 -0.52786E+03
 0.55699997E+02 -0.12689E+03
 0.55749996E+02 -0.65156E+03
 0.55799995E+02 -0.99873E+03
 0.55849995E+02 -0.74860E+03
 0.55899998E+02 -0.47514E+03
 0.55949997E+02  0.29479E+03
 0.55999996E+02  0.18444E+03
 0.56049995E+02 -0.23867E+03
 0.56099995E+02 -0.48319E+03
 0.56149998E+02 -0.62469E+03
 0.56199997E+02 -0.80546E+03
 0.56249996E+02 -0.11890E+04
 0.56299995E+02 -0.13130E+04
 0.56349995E+02 -0.18476E+04
 0.56399998E+02 -0.15483E+04
 0.56449997E+02 -0.23632E+04
 0.56499996E+02 -0.35013E+04
 0.56549995E+02 -0.25016E+04
 0.56599995E+02 -0.17721E+04
 0.56649998E+02 -0.94101E+03
 0.56699997E+02 -0.16810E+02
 0.56749996E+02  0.48911E+03
 0.56799995E+02  0.27430E+03
 0.56849995E+02  0.47989E+03
 0.56899998E+02  0.78448E+03
 0.56949997E+02  0.72861E+02
 0.56999996E+02 -0.25710E+03
 0.57049995E+02 -0.49963E+03
 0.57099995E+02 -0.68667E+03
 0.57149998E+02 -0.35616E+03
 0.57199997E+02  0.17812E+03
 0.57249996E+02  0.19289E+03
 0.57299995E+02  0.15834E+02
 0.57349995E+02 -0.71028E+03
 0.57399998E+02 -0.88536E+03
 0.57449997E+02 -0.20776E+03
 0.57499996E+02  0.20609E+03
 0.57549995E+02 -0.47790E+03
 0.57599995E+02 -0.17872E+04
 0.57649998E+02 -0.18929E+04
 0.57699997E+02 -0.17471E+04
 0.57749996E+02 -0.10835E+04
 0.57799995E+02 -0.34895E+03
 0.57849995E+02 -0.11238E+04
 0.57899998E+02 -0.17323E+04
 0.57949997E+02 -0.13804E+04
 0.57999996E+02 -0.95262E+03
 0.58049995E+02 -0.89528E+03
 0.58099995E+02 -0.12766E+04
 0.58149998E+02 -0.17287E+04
 0.58199997E+02 -0.21070E+04
 0.58249996E+02 -0.14450E+04
 0.58299995E+02 -0.42052E+03
 0.58349995E+02 -0.37659E+03
 0.58399998E+02 -0.42986E+03
 0.58449997E+02 -0.59719E+03
 0.58499996E+02 -0.10604E+04
 0.58549995E+02 -0.11697E+04
 0.58599995E+02 -0.26216E+03
 0.58649998E+02  0.90239E+03
 0.58699997E+02  0.10552E+04
 0.58749996E+02  0.49971E+03
 0.58799995E+02  0.22866E+03
 0.58849995E+02 -0.24043E+03
 0.58899998E+02 -0.11784E+04
 0.58949997E+02 -0.13179E+04
 0.58999996E+02 -0.39921E+03
 0.59049995E+02  0.35536E+03
 0.59099995E+02  0.40375E+03
 0.59149998E+02  0.39063E+03
 0.59199997E+02 -0.12135E+03
 0.59249996E+02 -0.85714E+03
 0.59299995E+02 -0.84874E+03
 0.59349995E+02 -0.10401E+04
 0.59399998E+02 -0.13536E+04
 0.59449997E+02 -0.11058E+04
 0.59499996E+02 -0.65408E+03
 0.59549995E+02 -0.58640E+03
 0.59599995E+02 -0.83909E+03
 0.59649998E+02 -0.11276E+04
 0.59699997E+02 -0.17357E+04
 0.59749996E+02 -0.18617E+04
 0.59799995E+02 -0.13041E+04
 0.59849995E+02 -0.11306E+04
 0.59899998E+02 -0.16911E+04
 0.59949997E+02 -0.18130E+04
 0.59999996E+02 -0.17906E+04
 0.60049995E+02 -0.20421E+04
 0.60099995E+02 -0.22342E+04
 0.60149998E+02 -0.18713E+04
 0.60199997E+02 -0.14856E+04
 0.60249996E+02 -0.14042E+04
 0.60299995E+02 -0.92606E+03
 0.60349995E+02 -0.31189E+03
 0.60399998E+02  0.42786E+03
 0.60449997E+02  0.60438E+03
 0.60499996E+02  0.41788E+03
 0.60549995E+02  0.57630E+03
 0.60599995E+02  0.48659E+03
 0.60649998E+02 -0.91751E+02
 0.60699997E+02 -0.43467E+03
 0.60749996E+02 -0.95457E+02
 0.60799995E+02  0.38943E+03
 0.60849995E+02  0.91495E+02
 0.60899998E+02  0.41569E+02
 0.60949997E+02 -0.95007E+02
 0.60999996E+02 -0.40364E+03
 0.61049995E+02 -0.46941E+03
 0.61099995E+02 -0.13243E+04
 0.61149998E+02 -0.20801E+04
 0.61199997E+02 -0.25919E+04
 0.61249996E+02 -0.26570E+04
 0.61299995E+02 -0.18841E+04
 0.61349995E+02 -0.86552E+03
 0.61399998E+02 -0.31020E+03
 0.61449997E+02 -0.17914E+03
 0.61499996E+02 -0.27942E+03
 0.61549995E+02 -0.34887E+03
 0.61599995E+02 -0.21607E+03
 0.61649998E+02 -0.89480E+02
 0.61699997E+02 -0.48586E+03
 0.61749996E+02 -0.78821E+03
 0.61799995E+02 -0.82034E+03
 0.61849995E+02 -0.80173E+03
 0.61899998E+02 -0.58536E+03
 0.61949997E+02 -0.10098E+04
 0.61999996E+02 -0.13577E+04
 0.62049995E+02 -0.16007E+04
 0.62099998E+02 -0.16278E+04
 0.62149994E+02 -0.14529E+04
 0.62199997E+02 -0.78491E+03
 0.62249992E+02 -0.39089E+03
 0.62299995E+02 -0.51039E+03
 0.62349998E+02 -0.30926E+03
 0.62399994E+02 -0.49793E+03
 0.62449997E+02 -0.21229E+03
 0.62499992E+02  0.17343E+03
 0.62549995E+02 -0.14153E+03
 0.62599998E+02 -0.11496E+04
 0.62649994E+02 -0.14601E+04
 0.62699997E+02 -0.12556E+04
 0.62749992E+02 -0.13073E+04
 0.62799995E+02 -0.96927E+03
 0.62849998E+02 -0.67494E+03
 0.62899994E+02 -0.41154E+03
 0.62949997E+02 -0.36396E+03
 0.62999992E+02 -0.28253E+03
 0.63049995E+02 -0.18886E+03
 0.63099998E+02  0.23820E+02
 0.63149994E+02  0.37185E+03
 0.63199997E+02 -0.67527E+02
 0.63249992E+02 -0.10094E+04
 0.63299995E+02 -0.17947E+04
 0.63349998E+02 -0.19842E+04
 0.63399994E+02 -0.18854E+04
 0.63449997E+02 -0.17814E+04
 0.63499992E+02 -0.14461E+04
 0.63549995E+02 -0.10720E+04
 0.63599998E+02 -0.11434E+04
 0.63649994E+02 -0.98300E+03
 0.63699997E+02 -0.24072E+03
 0.63749992E+02  0.68970E+02
 0.63799995E+02  0.10699E+03
 0.63849998E+02  0.77897E+02
 0.63899994E+02 -0.58665E+03
 0.63949997E+02 -0.11577E+04
 0.63999992E+02 -0.92830E+03
 0.64049995E+02 -0.28545E+03
 0.64099998E+02 -0.12336E+03
 0.64149994E+02 -0.26788E+03
 0.64199997E+02  0.76162E+02
 0.64249992E+02  0.15927E+02
 0.64299995E+02 -0.26277E+03
 0.64349998E+02 -0.29672E+03
 0.64399994E+02 -0.68338E+03
 0.64449997E+02 -0.13774E+04
 0.64499992E+02 -0.14066E+04
 0.64549995E+02 -0.11772E+04
 0.64599998E+02 -0.13275E+04
 0.64649994E+02 -0.16617E+04
 0.64699997E+02 -0.14458E+04
 0.64749992E+02 -0.88603E+03
 0.64799995E+02 -0.56838E+03
 0.64849998E+02 -0.26228E+03
 0.64899994E+02 -0.25929E+03
 0.64949997E+02 -0.18777E+03
 0.64999992E+02  0.76570E+02
 0.65049995E+02 -0.47270E+02
 0.65099998E+02 -0.65637E+03
 0.65149994E+02 -0.10068E+04
 0.65199997E+02 -0.73090E+03
 0.65249992E+02 -0.69484E+03
 0.65299995E+02 -0.88177E+03
 0.65349998E+02 -0.97943E+03
 0.65399994E+02 -0.11230E+04
 0.65449997E+02 -0.87192E+03
 0.65499992E+02 -0.96152E+03
 0.65549995E+02 -0.12717E+04
 0.65599998E+02 -0.81639E+03
 0.65649994E+02  0.25782E+02
 0.65699997E+02  0.76314E+02
 0.65749992E+02 -0.56768E+03
 0.65799995E+02 -0.11240E+04
 0.65849998E+02 -0.16041E+04
 0.65899994E+02 -0.18561E+04
 0.65949997E+02 -0.15736E+04
 0.65999992E+02 -0.10539E+04
 0.66049995E+02 -0.10672E+04
 0.66099998E+02 -0.13755E+04
 0.66149994E+02 -0.12806E+04
 0.66199997E+02 -0.74370E+03
 0.66249992E+02 -0.47840E+03
 0.66299995E+02 -0.49203E+03
 0.66349998E+02 -0.15187E+03
 0.66399994E+02  0.16756E+03
 0.66449997E+02 -0.37658E+03
 0.66499992E+02 -0.10519E+04
 0.66549995E+02 -0.11077E+04
 0.66599998E+02 -0.10106E+04
 0.66649994E+02 -0.10173E+04
 0.66699997E+02 -0.10296E+04
 0.66749992E+02 -0.13366E+04
 0.66799995E+02 -0.18776E+04
 0.66849998E+02 -0.18553E+04
 0.66899994E+02 -0.13743E+04
 0.66949997E+02 -0.10496E+04
 0.66999992E+02 -0.77583E+03
 0.67049995E+02 -0.32112E+03
 0.67099998E+02 -0.55360E+02
 0.67149994E+02 -0.20874E+03
 0.67199997E+02 -0.45382E+03
 0.67249992E+02 -0.37263E+03
 0.67299995E+02  0.84907E+02
 0.67349998E+02  0.25581E+03
 0.67399994E+02 -0.40930E+02
 0.67449997E+02 -0.29702E+03
 0.67499992E+02 -0.31340E+03
 0.67549995E+02 -0.11852E+03
 0.67599998E+02 -0.10297E+03
 0.67649994E+02 -0.14645E+03
 0.67699997E+02 -0.12509E+02
 0.67749992E+02  0.14720E+03
 0.67799995E+02 -0.16552E+03
 0.67849998E+02 -0.87625E+03
 0.67899994E+02 -0.15638E+04
 0.67949997E+02 -0.17984E+04
 0.67999992E+02 -0.11776E+04
 0.68049995E+02 -0.74350E+03
 0.68099998E+02 -0.57779E+03
 0.68149994E+02 -0.63000E+03
 0.68199997E+02 -0.83887E+03
 0.68249992E+02 -0.65492E+03
 0.68299995E+02 -0.56211E+03
 0.68349998E+02 -0.72330E+03
 0.68399994E+02 -0.91567E+03
 0.68449997E+02 -0.10858E+04
 0.68499992E+02 -0.11758E+04
 0.68549995E+02 -0.12402E+04
 0.68599998E+02 -0.13540E+04
 0.68649994E+02 -0.12673E+04
 0.68699997E+02 -0.89944E+03
 0.68749992E+02 -0.65342E+03
 0.68799995E+02 -0.65421E+03
 0.68849998E+02 -0.67983E+03
 0.68899994E+02 -0.56418E+03
 0.68949997E+02 -0.56284E+03
 0.68999992E+02 -0.11969E+04
 0.69049995E+02 -0.13223E+04
 0.69099998E+02 -0.85145E+03
 0.69149994E+02 -0.10952E+04
 0.69199997E+02 -0.13241E+04
 0.69249992E+02 -0.12282E+04
 0.69299995E+02 -0.12202E+04
 0.69349998E+02 -0.13052E+04
 0.69399994E+02 -0.14209E+04
 0.69449997E+02 -0.12981E+04
 0.69499992E+02 -0.12919E+04
 0.69549995E+02 -0.11149E+04
 0.69599998E+02 -0.52654E+03
 0.69649994E+02 -0.82397E+02
 0.69699997E+02  0.24190E+03
 0.69749992E+02  0.23970E+03
 0.69799995E+02 -0.68316E+02
 0.69849998E+02 -0.31269E+03
 0.69899994E+02 -0.12238E+03
 0.69949997E+02  0.19370E+03
 0.69999992E+02  0.14477E+03
 0.70049995E+02 -0.12808E+03
 0.70099998E+02 -0.33427E+03
 0.70149994E+02 -0.49458E+03
 0.70199997E+02 -0.65775E+03
 0.70249992E+02 -0.54652E+03
 0.70299995E+02 -0.69319E+03
 0.70349998E+02 -0.11178E+04
 0.70399994E+02 -0.11614E+04
 0.70449997E+02 -0.88412E+03
 0.70499992E+02 -0.95264E+03
 0.70549995E+02 -0.11573E+04
 0.70599998E+02 -0.96307E+03
 0.70649994E+02 -0.11696E+04
 0.70699997E+02 -0.15073E+04
 0.70749992E+02 -0.15218E+04
 0.70799995E+02 -0.12678E+04
 0.70849998E+02 -0.97115E+03
 0.70899994E+02 -0.13956E+04
 0.70949997E+02 -0.13743E+04
 0.70999992E+02 -0.73897E+03
 0.71049995E+02 -0.12740E+03
 0.71099998E+02  0.19390E+03
 0.71149994E+02  0.82950E+02
 0.71199997E+02 -0.14882E+03
 0.71249992E+02 -0.50977E+03
 0.71299995E+02 -0.81377E+03
 0.71349998E+02 -0.92407E+03
 0.71399994E+02 -0.11172E+04
 0.71449997E+02 -0.13072E+04
 0.71499992E+02 -0.78185E+03
 0.71549995E+02 -0.20512E+03
 0.71599998E+02 -0.19167E+03
 0.71649994E+02 -0.19845E+03
 0.71699997E+02 -0.20645E+03
 0.71749992E+02 -0.66522E+03
 0.71799995E+02 -0.11776E+04
 0.71849998E+02 -0.11860E+04
 0.71899994E+02 -0.88979E+03
 0.71949997E+02 -0.89476E+03
 0.71999992E+02 -0.82269E+03
 0.72049995E+02 -0.52005E+03
 0.72099998E+02 -0.48580E+03
 0.72149994E+02 -0.63098E+03
 0.72199997E+02 -0.74266E+03
 0.72249992E+02 -0.10220E+04
 0.72299995E+02 -0.12456E+04
 0.72349998E+02 -0.10396E+04
 0.72399994E+02 -0.86871E+03
 0.72449997E+02 -0.88744E+03
 0.72499992E+02 -0.10695E+04
 0.72549995E+02 -0.12979E+04
 0.72599998E+02 -0.13545E+04
 0.72649994E+02 -0.11972E+04
 0.72699997E+02 -0.81300E+03
 0.72749992E+02 -0.46687E+03
 0.72799995E+02 -0.27920E+03
 0.72849998E+02 -0.21445E+03
 0.72899994E+02 -0.25918E+03
 0.72949997E+02 -0.16323E+03
 0.72999992E+02 -0.17918E+03
 0.73049995E+02 -0.42603E+03
 0.73099998E+02 -0.51762E+03
 0.73149994E+02 -0.35903E+03
 0.73199997E+02 -0.36966E+03
 0.73249992E+02 -0.85822E+03
 0.73299995E+02 -0.13122E+04
 0.73349998E+02 -0.15471E+04
 0.73399994E+02 -0.16572E+04
 0.73449997E+02 -0.12970E+04
 0.73499992E+02 -0.69556E+03
 0.73549995E+02 -0.66194E+02
 0.73599998E+02  0.12716E+03
 0.73649994E+02  0.21132E+03
 0.73699997E+02  0.47583E+03
 0.73749992E+02  0.19151E+03
 0.73799995E+02 -0.38254E+03
 0.73849998E+02 -0.82768E+03
 0.73899994E+02 -0.87619E+03
 0.73949997E+02 -0.86304E+03
 0.73999992E+02 -0.10780E+04
 0.74049995E+02 -0.13561E+04
 0.74099998E+02 -0.16472E+04
 0.74149994E+02 -0.14898E+04
 0.74199997E+02 -0.87462E+03
 0.74249992E+02 -0.56030E+03
 0.74299995E+02 -0.63376E+03
 0.74349998E+02 -0.81114E+03
 0.74399994E+02 -0.80804E+03
 0.74449997E+02 -0.78320E+03
 0.74499992E+02 -0.68315E+03
 0.74549995E+02 -0.39174E+03
 0.74599998E+02 -0.50363E+03
 0.74649994E+02 -0.55969E+03
 0.74699997E+02 -0.63558E+03
 0.74749992E+02 -0.92614E+03
 0.74799995E+02 -0.11604E+04
 0.74849998E+02 -0.15079E+04
 0.74899994E+02 -0.14610E+04
 0.74949997E+02 -0.10961E+04
 0.74999992E+02 -0.10323E+04
 0.75049995E+02 -0.10980E+04
 0.75099998E+02 -0.11003E+04
 0.75149994E+02 -0.94885E+03
 0.75199997E+02 -0.89173E+03
 0.75249992E+02 -0.10375E+04
 0.75299995E+02 -0.10647E+04
 0.75349998E+02 -0.77202E+03
 0.75399994E+02 -0.41826E+03
 0.75449997E+02 -0.47043E+03
 0.75499992E+02 -0.61049E+03
 0.75549995E+02 -0.45181E+03
 0.75599998E+02 -0.13457E+02
 0.75649994E+02  0.13147E+03
 0.75699997E+02 -0.14534E+03
 0.75749992E+02 -0.40668E+03
 0.75799995E+02 -0.60409E+03
 0.75849998E+02 -0.72895E+03
 0.75899994E+02 -0.73662E+03
 0.75949997E+02 -0.85613E+03
 0.75999992E+02 -0.99929E+03
 0.76049995E+02 -0.97246E+03
 0.76099998E+02 -0.98019E+03
 0.76149994E+02 -0.10840E+04
 0.76199997E+02 -0.97310E+03
 0.76249992E+02 -0.61659E+03
 0.76299995E+02 -0.31543E+03
 0.76349998E+02 -0.26184E+03
 0.76399994E+02 -0.59413E+03
 0.76449997E+02 -0.95271E+03
 0.76499992E+02 -0.11178E+04
 0.76549995E+02 -0.89108E+03
 0.76599998E+02 -0.52169E+03
 0.76649994E+02 -0.31534E+03
 0.76699997E+02 -0.10297E+03
 0.76749992E+02 -0.25534E+03
 0.76799995E+02 -0.58791E+03
 0.76849998E+02 -0.80202E+03
 0.76899994E+02 -0.97041E+03
 0.76949997E+02 -0.11997E+04
 0.76999992E+02 -0.12978E+04
 0.77049995E+02 -0.96734E+03
 0.77099998E+02 -0.73411E+03
 0.77149994E+02 -0.77054E+03
 0.77199997E+02 -0.95419E+03
 0.77249992E+02 -0.12451E+04
 0.77299995E+02 -0.12735E+04
 0.77349998E+02 -0.11336E+04
 0.77399994E+02 -0.94400E+03
 0.77449997E+02 -0.71419E+03
 0.77499992E+02 -0.73500E+03
 0.77549995E+02 -0.73931E+03
 0.77599998E+02 -0.63601E+03
 0.77649994E+02 -0.81400E+03
 0.77699997E+02 -0.10775E+04
 0.77749992E+02 -0.11154E+04
 0.77799995E+02 -0.10086E+04
 0.77849998E+02 -0.84060E+03
 0.77899994E+02 -0.66586E+03
 0.77949997E+02 -0.49492E+03
 0.77999992E+02 -0.27691E+03
 0.78049995E+02 -0.89737E+02
 0.78099998E+02 -0.18588E+03
 0.78149994E+02 -0.49067E+03
 0.78199997E+02 -0.88391E+03
 0.78249992E+02 -0.93649E+03
 0.78299995E+02 -0.70555E+03
 0.78349998E+02 -0.66450E+03
 0.78399994E+02 -0.57106E+03
 0.78449997E+02 -0.40627E+03
 0.78499992E+02 -0.23473E+03
 0.78549995E+02 -0.68446E+02
 0.78599998E+02 -0.11914E+03
 0.78649994E+02 -0.34156E+03
 0.78699997E+02 -0.71937E+03
 0.78749992E+02 -0.86604E+03
 0.78799995E+02 -0.78887E+03
 0.78849998E+02 -0.10087E+04
 0.78899994E+02 -0.11966E+04
 0.78949997E+02 -0.11356E+04
 0.78999992E+02 -0.98174E+03
 0.79049995E+02 -0.94109E+03
 0.79099998E+02 -0.93709E+03
 0.79149994E+02 -0.86378E+03
 0.79199997E+02 -0.65073E+03
 0.79249992E+02 -0.52978E+03
 0.79299995E+02 -0.76716E+03
 0.79349998E+02 -0.94926E+03
 0.79399994E+02 -0.85000E+03
 0.79449997E+02 -0.86765E+03
 0.79499992E+02 -0.83583E+03
 0.79549995E+02 -0.76778E+03
 0.79599998E+02 -0.79394E+03
 0.79649994E+02 -0.75224E+03
 0.79699997E+02 -0.10046E+04
 0.79749992E+02 -0.14130E+04
 0.79799995E+02 -0.15942E+04
 0.79849998E+02 -0.14607E+04
 0.79899994E+02 -0.11637E+04
 0.79949997E+02 -0.98358E+03
 0.79999992E+02 -0.92766E+03
 0.80049995E+02 -0.85809E+03
 0.80099998E+02 -0.66242E+03
 0.80149994E+02 -0.27590E+03
 0.80199997E+02 -0.94509E+01
 0.80249992E+02  0.39051E+02
 0.80299995E+02 -0.27983E+02
 0.80349998E+02 -0.17937E+03
 0.80399994E+02 -0.53497E+03
 0.80449997E+02 -0.98036E+03
 0.80499992E+02 -0.12076E+04
 0.80549995E+02 -0.13097E+04
 0.80599998E+02 -0.11855E+04
 0.80649994E+02 -0.96702E+03
 0.80699997E+02 -0.84742E+03
 0.80749992E+02 -0.67372E+03
 0.80799995E+02 -0.50579E+03
 0.80849998E+02 -0.39306E+03
 0.80899994E+02 -0.29525E+03
 0.80949997E+02 -0.32855E+03
 0.80999992E+02 -0.33985E+03
 0.81049995E+02 -0.43292E+03
 0.81099998E+02 -0.57664E+03
 0.81149994E+02 -0.54190E+03
 0.81199997E+02 -0.76637E+03
 0.81249992E+02 -0.99466E+03
 0.81299995E+02 -0.90370E+03
 0.81349998E+02 -0.84821E+03
 0.81399994E+02 -0.83764E+03
 0.81449997E+02 -0.85305E+03
 0.81499992E+02 -0.90081E+03
 0.81549995E+02 -0.82867E+03
 0.81599998E+02 -0.64996E+03
 0.81649994E+02 -0.67476E+03
 0.81699997E+02 -0.83353E+03
 0.81749992E+02 -0.99905E+03
 0.81799995E+02 -0.12012E+04
 0.81849998E+02 -0.12128E+04
 0.81899994E+02 -0.11376E+04
 0.81949997E+02 -0.10880E+04
 0.81999992E+02 -0.93959E+03
 0.82049995E+02 -0.75268E+03
 0.82099998E+02 -0.56904E+03
 0.82149994E+02 -0.32667E+03
 0.82199997E+02 -0.34801E+03
 0.82249992E+02 -0.52747E+03
 0.82299995E+02 -0.61602E+03
 0.82349998E+02 -0.74379E+03
 0.82399994E+02 -0.73402E+03
 0.82449997E+02 -0.67125E+03
 0.82499992E+02 -0.44607E+03
 0.82549995E+02 -0.18963E+03
 0.82599998E+02 -0.27629E+03
 0.82649994E+02 -0.65672E+03
 0.82699997E+02 -0.10024E+04
 0.82749992E+02 -0.11307E+04
 0.82799995E+02 -0.11201E+04
 0.82849998E+02 -0.87589E+03
 0.82899994E+02 -0.80301E+03
 0.82949997E+02 -0.81226E+03
 0.82999992E+02 -0.81346E+03
 0.83049995E+02 -0.72936E+03
 0.83099998E+02 -0.54681E+03
 0.83149994E+02 -0.51724E+03
 0.83199997E+02 -0.44200E+03
 0.83249992E+02 -0.42758E+03
 0.83299995E+02 -0.56242E+03
 0.83349998E+02 -0.71014E+03
 0.83399994E+02 -0.77067E+03
 0.83449997E+02 -0.73251E+03
 0.83499992E+02 -0.68800E+03
 0.83549995E+02 -0.60937E+03
 0.83599998E+02 -0.52292E+03
 0.83649994E+02 -0.62255E+03
 0.83699997E+02 -0.70551E+03
 0.83749992E+02 -0.69510E+03
 0.83799995E+02 -0.70821E+03
 0.83849998E+02 -0.77039E+03
 0.83899994E+02 -0.69917E+03
 0.83949997E+02 -0.70101E+03
 0.83999992E+02 -0.87110E+03
 0.84049995E+02 -0.99005E+03
 0.84099998E+02 -0.10538E+04
 0.84149994E+02 -0.90468E+03
 0.84199997E+02 -0.65554E+03
 0.84249992E+02 -0.51753E+03
 0.84299995E+02 -0.46529E+03
 0.84349998E+02 -0.48395E+03
 0.84399994E+02 -0.52984E+03
 0.84449997E+02 -0.50472E+03
 0.84499992E+02 -0.50627E+03
 0.84549995E+02 -0.54291E+03
 0.84599998E+02 -0.78104E+03
 0.84649994E+02 -0.10876E+04
 0.84699997E+02 -0.11908E+04
 0.84749992E+02 -0.11633E+04
 0.84799995E+02 -0.11212E+04
 0.84849998E+02 -0.10417E+04
 0.84899994E+02 -0.82293E+03
 0.84949997E+02 -0.60250E+03
 0.84999992E+02 -0.50956E+03
 0.85049995E+02 -0.61010E+03
 0.85099998E+02 -0.74498E+03
 0.85149994E+02 -0.77181E+03
 0.85199997E+02 -0.63818E+03
 0.85249992E+02 -0.57271E+03
 0.85299995E+02 -0.73534E+03
 0.85349998E+02 -0.87529E+03
 0.85399994E+02 -0.99210E+03
 0.85449997E+02 -0.11126E+04
 0.85499992E+02 -0.11883E+04
 0.85549995E+02 -0.11740E+04
 0.85599998E+02 -0.10769E+04
 0.85649994E+02 -0.10526E+04
 0.85699997E+02 -0.99858E+03
 0.85749992E+02 -0.92297E+03
 0.85799995E+02 -0.93223E+03
 0.85849998E+02 -0.90061E+03
 0.85899994E+02 -0.82113E+03
 0.85949997E+02 -0.68329E+03
 0.85999992E+02 -0.63056E+03
 0.86049995E+02 -0.71270E+03
 0.86099998E+02 -0.92198E+03
 0.86149994E+02 -0.10111E+04
 0.86199997E+02 -0.88321E+03
 0.86249992E+02 -0.79762E+03
 0.86299995E+02 -0.71590E+03
 0.86349998E+02 -0.61366E+03
 0.86399994E+02 -0.32396E+03
 0.86449997E+02  0.13041E+03
 0.86499992E+02  0.36467E+03
 0.86549995E+02  0.21150E+03
 0.86599998E+02 -0.18092E+03
 0.86649994E+02 -0.68769E+03
 0.86699997E+02 -0.96374E+03
 0.86749992E+02 -0.10787E+04
 0.86799995E+02 -0.10604E+04
 0.86849998E+02 -0.87248E+03
 0.86899994E+02 -0.80752E+03
 0.86949997E+02 -0.89769E+03
 0.86999992E+02 -0.99184E+03
 0.87049995E+02 -0.86564E+03
 0.87099998E+02 -0.72744E+03
 0.87149994E+02 -0.71499E+03
 0.87199997E+02 -0.84919E+03
 0.87249992E+02 -0.10208E+04
 0.87299995E+02 -0.99961E+03
 0.87349998E+02 -0.83897E+03
 0.87399994E+02 -0.62629E+03
 0.87449997E+02 -0.49045E+03
 0.87499992E+02 -0.48003E+03
 0.87549995E+02 -0.53045E+03
 0.87599991E+02 -0.70720E+03
 0.87649994E+02 -0.73746E+03
 0.87699997E+02 -0.58375E+03
 0.87749992E+02 -0.49462E+03
 0.87799995E+02 -0.52040E+03
 0.87849991E+02 -0.56952E+03
 0.87899994E+02 -0.54650E+03
 0.87949997E+02 -0.54872E+03
 0.87999992E+02 -0.52736E+03
 0.88049995E+02 -0.47443E+03
 0.88099991E+02 -0.60231E+03
 0.88149994E+02 -0.79995E+03
 0.88199997E+02 -0.83847E+03
 0.88249992E+02 -0.78680E+03
 0.88299995E+02 -0.81444E+03
 0.88349991E+02 -0.91791E+03
 0.88399994E+02 -0.10007E+04
 0.88449997E+02 -0.11817E+04
 0.88499992E+02 -0.12806E+04
 0.88549995E+02 -0.11413E+04
 0.88599991E+02 -0.85671E+03
 0.88649994E+02 -0.66839E+03
 0.88699997E+02 -0.76060E+03
 0.88749992E+02 -0.87583E+03
 0.88799995E+02 -0.90250E+03
 0.88849991E+02 -0.91449E+03
 0.88899994E+02 -0.95801E+03
 0.88949997E+02 -0.95034E+03
 0.88999992E+02 -0.89817E+03
 0.89049995E+02 -0.81147E+03
 0.89099991E+02 -0.74290E+03
 0.89149994E+02 -0.83811E+03
 0.89199997E+02 -0.82790E+03
 0.89249992E+02 -0.66545E+03
 0.89299995E+02 -0.49105E+03
 0.89349991E+02 -0.44452E+03
 0.89399994E+02 -0.57870E+03
 0.89449997E+02 -0.75966E+03
 0.89499992E+02 -0.93585E+03
 0.89549995E+02 -0.10519E+04
 0.89599991E+02 -0.11246E+04
 0.89649994E+02 -0.11658E+04
 0.89699997E+02 -0.10663E+04
 0.89749992E+02 -0.81171E+03
 0.89799995E+02 -0.50667E+03
 0.89849991E+02 -0.33655E+03
 0.89899994E+02 -0.28301E+03
 0.89949997E+02 -0.28112E+03
 0.89999992E+02 -0.39726E+03
 0.90049995E+02 -0.47665E+03
 0.90099991E+02 -0.63914E+03
 0.90149994E+02 -0.84965E+03
 0.90199997E+02 -0.96247E+03
 0.90249992E+02 -0.10700E+04
 0.90299995E+02 -0.10206E+04
 0.90349991E+02 -0.81355E+03
 0.90399994E+02 -0.61241E+03
 0.90449997E+02 -0.58057E+03
 0.90499992E+02 -0.68334E+03
 0.90549995E+02 -0.77411E+03
 0.90599991E+02 -0.84520E+03
 0.90649994E+02 -0.84793E+03
 0.90699997E+02 -0.75814E+03
 0.90749992E+02 -0.67270E+03
 0.90799995E+02 -0.73491E+03
 0.90849991E+02 -0.79485E+03
 0.90899994E+02 -0.78331E+03
 0.90949997E+02 -0.78947E+03
 0.90999992E+02 -0.85423E+03
 0.91049995E+02 -0.11005E+04
 0.91099991E+02 -0.12319E+04
 0.91149994E+02 -0.10652E+04
 0.91199997E+02 -0.84609E+03
 0.91249992E+02 -0.64301E+03
 0.91299995E+02 -0.44611E+03
 0.91349991E+02 -0.33079E+03
 0.91399994E+02 -0.32670E+03
 0.91449997E+02 -0.39048E+03
 0.91499992E+02 -0.48412E+03
 0.91549995E+02 -0.53850E+03
 0.91599991E+02 -0.63599E+03
 0.91649994E+02 -0.73985E+03
 0.91699997E+02 -0.75002E+03
 0.91749992E+02 -0.67233E+03
 0.91799995E+02 -0.60895E+03
 0.91849991E+02 -0.60443E+03
 0.91899994E+02 -0.64347E+03
 0.91949997E+02 -0.74659E+03
 0.91999992E+02 -0.75421E+03
 0.92049995E+02 -0.64469E+03
 0.92099991E+02 -0.49798E+03
 0.92149994E+02 -0.40220E+03
 0.92199997E+02 -0.33827E+03
 0.92249992E+02 -0.41937E+03
 0.92299995E+02 -0.63296E+03
 0.92349991E+02 -0.76803E+03
 0.92399994E+02 -0.87093E+03
 0.92449997E+02 -0.99638E+03
 0.92499992E+02 -0.11549E+04
 0.92549995E+02 -0.11430E+04
 0.92599991E+02 -0.10160E+04
 0.92649994E+02 -0.90370E+03
 0.92699997E+02 -0.76174E+03
 0.92749992E+02 -0.58978E+03
 0.92799995E+02 -0.42872E+03
 0.92849991E+02 -0.50348E+03
 0.92899994E+02 -0.54527E+03
 0.92949997E+02 -0.52989E+03
 0.92999992E+02 -0.68150E+03
 0.93049995E+02 -0.92530E+03
 0.93099991E+02 -0.11854E+04
 0.93149994E+02 -0.12529E+04
 0.93199997E+02 -0.11400E+04
 0.93249992E+02 -0.90258E+03
 0.93299995E+02 -0.69605E+03
 0.93349991E+02 -0.69474E+03
 0.93399994E+02 -0.84985E+03
 0.93449997E+02 -0.91456E+03
 0.93499992E+02 -0.89095E+03
 0.93549995E+02 -0.82729E+03
 0.93599991E+02 -0.57677E+03
 0.93649994E+02 -0.35639E+03
 0.93699997E+02 -0.22948E+03
 0.93749992E+02 -0.27697E+03
 0.93799995E+02 -0.56160E+03
 0.93849991E+02 -0.93438E+03
 0.93899994E+02 -0.11793E+04
 0.93949997E+02 -0.12944E+04
 0.93999992E+02 -0.13499E+04
 0.94049995E+02 -0.12334E+04
 0.94099991E+02 -0.89568E+03
 0.94149994E+02 -0.54624E+03
 0.94199997E+02 -0.48909E+03
 0.94249992E+02 -0.58748E+03
 0.94299995E+02 -0.69790E+03
 0.94349991E+02 -0.76205E+03
 0.94399994E+02 -0.79422E+03
 0.94449997E+02 -0.76210E+03
 0.94499992E+02 -0.78383E+03
 0.94549995E+02 -0.88631E+03
 0.94599991E+02 -0.93856E+03
 0.94649994E+02 -0.92871E+03
 0.94699997E+02 -0.82042E+03
 0.94749992E+02 -0.81404E+03
 0.94799995E+02 -0.84133E+03
 0.94849991E+02 -0.86890E+03
 0.94899994E+02 -0.92284E+03
 0.94949997E+02 -0.87307E+03
 0.94999992E+02 -0.76322E+03
 0.95049995E+02 -0.71337E+03
 0.95099991E+02 -0.70614E+03
 0.95149994E+02 -0.71569E+03
 0.95199997E+02 -0.79711E+03
 0.95249992E+02 -0.87194E+03
 0.95299995E+02 -0.83732E+03
 0.95349991E+02 -0.74003E+03
 0.95399994E+02 -0.66080E+03
 0.95449997E+02 -0.51508E+03
 0.95499992E+02 -0.41976E+03
 0.95549995E+02 -0.45539E+03
 0.95599991E+02 -0.49586E+03
 0.95649994E+02 -0.50290E+03
 0.95699997E+02 -0.54681E+03
 0.95749992E+02 -0.59331E+03
 0.95799995E+02 -0.64568E+03
 0.95849991E+02 -0.70272E+03
 0.95899994E+02 -0.78015E+03
 0.95949997E+02 -0.87873E+03
 0.95999992E+02 -0.88079E+03
 0.96049995E+02 -0.82554E+03
 0.96099991E+02 -0.82223E+03
 0.96149994E+02 -0.78607E+03
 0.96199997E+02 -0.66439E+03
 0.96249992E+02 -0.56223E+03
 0.96299995E+02 -0.48666E+03
 0.96349991E+02 -0.50905E+03
 0.96399994E+02 -0.54366E+03
 0.96449997E+02 -0.57420E+03
 0.96499992E+02 -0.63426E+03
 0.96549995E+02 -0.70646E+03
 0.96599991E+02 -0.80267E+03
 0.96649994E+02 -0.77039E+03
 0.96699997E+02 -0.71444E+03
 0.96749992E+02 -0.70846E+03
 0.96799995E+02 -0.72773E+03
 0.96849991E+02 -0.69828E+03
 0.96899994E+02 -0.61572E+03
 0.96949997E+02 -0.57094E+03
 0.96999992E+02 -0.56202E+03
 0.97049995E+02 -0.60893E+03
 0.97099991E+02 -0.64938E+03
 0.97149994E+02 -0.66704E+03
 0.97199997E+02 -0.64927E+03
 0.97249992E+02 -0.70378E+03
 0.97299995E+02 -0.83126E+03
 0.97349991E+02 -0.92565E+03
 0.97399994E+02 -0.96036E+03
 0.97449997E+02 -0.10086E+04
 0.97499992E+02 -0.10412E+04
 0.97549995E+02 -0.10042E+04
 0.97599991E+02 -0.91932E+03
 0.97649994E+02 -0.80849E+03
 0.97699997E+02 -0.74157E+03
 0.97749992E+02 -0.64103E+03
 0.97799995E+02 -0.64368E+03
 0.97849991E+02 -0.77381E+03
 0.97899994E+02 -0.86579E+03
 0.97949997E+02 -0.85725E+03
 0.97999992E+02 -0.72813E+03
