-0.20000000E+01  0.33944E+04
-0.19500000E+01  0.33868E+04
-0.19000000E+01  0.34376E+04
-0.18500000E+01  0.34439E+04
-0.18000000E+01  0.34516E+04
-0.17500000E+01  0.34475E+04
-0.17000000E+01  0.34613E+04
-0.16500001E+01  0.34604E+04
-0.16000000E+01  0.34620E+04
-0.15500000E+01  0.34596E+04
-0.15000000E+01  0.34350E+04
-0.14500000E+01  0.34393E+04
-0.14000001E+01  0.34332E+04
-0.13500000E+01  0.34464E+04
-0.13000001E+01  0.34414E+04
-0.12500000E+01  0.34631E+04
-0.12000000E+01  0.34636E+04
-0.11500001E+01  0.34821E+04
-0.11000000E+01  0.35163E+04
-0.10500001E+01  0.35349E+04
-0.10000000E+01  0.35587E+04
-0.95000005E+00  0.35731E+04
-0.90000010E+00  0.35771E+04
-0.85000002E+00  0.35791E+04
-0.80000007E+00  0.35931E+04
-0.75000012E+00  0.35777E+04
-0.70000005E+00  0.35657E+04
-0.65000010E+00  0.35599E+04
-0.60000014E+00  0.35714E+04
-0.55000007E+00  0.35683E+04
-0.50000012E+00  0.35523E+04
-0.45000005E+00  0.35440E+04
-0.40000010E+00  0.35392E+04
-0.35000014E+00  0.35190E+04
-0.30000007E+00  0.35195E+04
-0.25000012E+00  0.35243E+04
-0.20000005E+00  0.35239E+04
-0.15000010E+00  0.35356E+04
-0.10000014E+00  0.35350E+04
-0.50000072E-01  0.35316E+04
-0.11920929E-06  0.35244E+04
 0.49999952E-01  0.35146E+04
 0.99999905E-01  0.35228E+04
 0.14999986E+00  0.35218E+04
 0.19999981E+00  0.35128E+04
 0.24999976E+00  0.35180E+04
 0.29999995E+00  0.34993E+04
 0.34999990E+00  0.34982E+04
 0.39999986E+00  0.34885E+04
 0.44999981E+00  0.34850E+04
 0.49999976E+00  0.34875E+04
 0.54999995E+00  0.34930E+04
 0.59999990E+00  0.35164E+04
 0.64999986E+00  0.35086E+04
 0.69999981E+00  0.35290E+04
 0.74999976E+00  0.35274E+04
 0.79999971E+00  0.35370E+04
 0.84999990E+00  0.35435E+04
 0.89999986E+00  0.35429E+04
 0.94999981E+00  0.35532E+04
 0.99999976E+00  0.35259E+04
 0.10499997E+01  0.35310E+04
 0.10999999E+01  0.35228E+04
 0.11499999E+01  0.35221E+04
 0.11999998E+01  0.35289E+04
 0.12499998E+01  0.35245E+04
 0.12999997E+01  0.35281E+04
 0.13499999E+01  0.35175E+04
 0.13999999E+01  0.35133E+04
 0.14499998E+01  0.34993E+04
 0.14999998E+01  0.34987E+04
 0.15499997E+01  0.34778E+04
 0.15999999E+01  0.34653E+04
 0.16499999E+01  0.34717E+04
 0.16999998E+01  0.34354E+04
 0.17499998E+01  0.34451E+04
 0.17999997E+01  0.33877E+04
 0.18499997E+01  0.33939E+04
 0.18999999E+01  0.33929E+04
 0.19499998E+01  0.34034E+04
 0.19999998E+01  0.34255E+04
 0.20499997E+01  0.34364E+04
 0.20999999E+01  0.35073E+04
 0.21499996E+01  0.35186E+04
 0.21999998E+01  0.35438E+04
 0.22499995E+01  0.35455E+04
 0.22999997E+01  0.35459E+04
 0.23499999E+01  0.35193E+04
 0.23999996E+01  0.35137E+04
 0.24499998E+01  0.35105E+04
 0.24999995E+01  0.35287E+04
 0.25499997E+01  0.35574E+04
 0.25999999E+01  0.35576E+04
 0.26499996E+01  0.35711E+04
 0.26999998E+01  0.35757E+04
 0.27499995E+01  0.35979E+04
 0.27999997E+01  0.35856E+04
 0.28499999E+01  0.35758E+04
 0.28999996E+01  0.35646E+04
 0.29499998E+01  0.35545E+04
 0.29999995E+01  0.35642E+04
 0.30499997E+01  0.35416E+04
 0.30999999E+01  0.35166E+04
 0.31499996E+01  0.34910E+04
 0.31999998E+01  0.34715E+04
 0.32499995E+01  0.34604E+04
 0.32999997E+01  0.34534E+04
 0.33499999E+01  0.34518E+04
 0.33999996E+01  0.34635E+04
 0.34499998E+01  0.34677E+04
 0.34999995E+01  0.34811E+04
 0.35499997E+01  0.34914E+04
 0.35999994E+01  0.35056E+04
 0.36499996E+01  0.35061E+04
 0.36999998E+01  0.35089E+04
 0.37499995E+01  0.34954E+04
 0.37999997E+01  0.34772E+04
 0.38499994E+01  0.34863E+04
 0.38999996E+01  0.34702E+04
 0.39499998E+01  0.34799E+04
 0.39999995E+01  0.34677E+04
 0.40499997E+01  0.34442E+04
 0.40999994E+01  0.34092E+04
 0.41499996E+01  0.33977E+04
 0.41999998E+01  0.34101E+04
 0.42499995E+01  0.34093E+04
 0.42999997E+01  0.34157E+04
 0.43499994E+01  0.34328E+04
 0.43999996E+01  0.34507E+04
 0.44499998E+01  0.34481E+04
 0.44999995E+01  0.34909E+04
 0.45499997E+01  0.35107E+04
 0.45999994E+01  0.35283E+04
 0.46499996E+01  0.35491E+04
 0.46999998E+01  0.35509E+04
 0.47499995E+01  0.35572E+04
 0.47999997E+01  0.35566E+04
 0.48499994E+01  0.35619E+04
 0.48999996E+01  0.35542E+04
 0.49499998E+01  0.35708E+04
 0.49999995E+01  0.35769E+04
 0.50499997E+01  0.35921E+04
 0.50999994E+01  0.36099E+04
 0.51499996E+01  0.35962E+04
 0.51999998E+01  0.36048E+04
 0.52499995E+01  0.35857E+04
 0.52999997E+01  0.35943E+04
 0.53499994E+01  0.35746E+04
 0.53999996E+01  0.35656E+04
 0.54499993E+01  0.35615E+04
 0.54999995E+01  0.35170E+04
 0.55499997E+01  0.35287E+04
 0.55999994E+01  0.35118E+04
 0.56499996E+01  0.35007E+04
 0.56999993E+01  0.34905E+04
 0.57499995E+01  0.34725E+04
 0.57999997E+01  0.34571E+04
 0.58499994E+01  0.34126E+04
 0.58999996E+01  0.33978E+04
 0.59499993E+01  0.33814E+04
 0.59999995E+01  0.33668E+04
 0.60499992E+01  0.33699E+04
 0.60999994E+01  0.33765E+04
 0.61499996E+01  0.33772E+04
 0.61999998E+01  0.34106E+04
 0.62499990E+01  0.34471E+04
 0.62999992E+01  0.34674E+04
 0.63499994E+01  0.34888E+04
 0.63999996E+01  0.35086E+04
 0.64499998E+01  0.35456E+04
 0.64999990E+01  0.35662E+04
 0.65499992E+01  0.36001E+04
 0.65999994E+01  0.36016E+04
 0.66499996E+01  0.36006E+04
 0.66999998E+01  0.35762E+04
 0.67499990E+01  0.35615E+04
 0.67999992E+01  0.35496E+04
 0.68499994E+01  0.35554E+04
 0.68999996E+01  0.35472E+04
 0.69499998E+01  0.35418E+04
 0.69999990E+01  0.35309E+04
 0.70499992E+01  0.35058E+04
 0.70999994E+01  0.35144E+04
 0.71499996E+01  0.34875E+04
 0.71999998E+01  0.34736E+04
 0.72499990E+01  0.34589E+04
 0.72999992E+01  0.34541E+04
 0.73499994E+01  0.34508E+04
 0.73999996E+01  0.34581E+04
 0.74499998E+01  0.34521E+04
 0.74999990E+01  0.34414E+04
 0.75499992E+01  0.34541E+04
 0.75999994E+01  0.34381E+04
 0.76499996E+01  0.34347E+04
 0.76999998E+01  0.34314E+04
 0.77499990E+01  0.34131E+04
 0.77999992E+01  0.34102E+04
 0.78499994E+01  0.34141E+04
 0.78999996E+01  0.34291E+04
 0.79499998E+01  0.34461E+04
 0.79999990E+01  0.34783E+04
 0.80499992E+01  0.34933E+04
 0.80999994E+01  0.35069E+04
 0.81499996E+01  0.35057E+04
 0.81999998E+01  0.35051E+04
 0.82499990E+01  0.35163E+04
 0.82999992E+01  0.35191E+04
 0.83499994E+01  0.35418E+04
 0.83999996E+01  0.35552E+04
 0.84499998E+01  0.35755E+04
 0.84999990E+01  0.35896E+04
 0.85499992E+01  0.36198E+04
 0.85999994E+01  0.36236E+04
 0.86499996E+01  0.36323E+04
 0.86999998E+01  0.36259E+04
 0.87499990E+01  0.36240E+04
 0.87999992E+01  0.36392E+04
 0.88499994E+01  0.36129E+04
 0.88999996E+01  0.36330E+04
 0.89499998E+01  0.36286E+04
 0.89999990E+01  0.36105E+04
 0.90499992E+01  0.35973E+04
 0.90999994E+01  0.35850E+04
 0.91499996E+01  0.35874E+04
 0.91999989E+01  0.35937E+04
 0.92499990E+01  0.35835E+04
 0.92999992E+01  0.35727E+04
 0.93499994E+01  0.35547E+04
 0.93999996E+01  0.35469E+04
 0.94499989E+01  0.35323E+04
 0.94999990E+01  0.35129E+04
 0.95499992E+01  0.34894E+04
 0.95999994E+01  0.34588E+04
 0.96499996E+01  0.34311E+04
 0.96999989E+01  0.33935E+04
 0.97499990E+01  0.33770E+04
 0.97999992E+01  0.33548E+04
 0.98499994E+01  0.33602E+04
 0.98999996E+01  0.33479E+04
 0.99499989E+01  0.33496E+04
 0.99999990E+01  0.33345E+04
 0.10049999E+02  0.33279E+04
 0.10099999E+02  0.33532E+04
 0.10150000E+02  0.33610E+04
 0.10199999E+02  0.33989E+04
 0.10249999E+02  0.34276E+04
 0.10299999E+02  0.34513E+04
 0.10349999E+02  0.34819E+04
 0.10400000E+02  0.35119E+04
 0.10449999E+02  0.35231E+04
 0.10499999E+02  0.35525E+04
 0.10549999E+02  0.35633E+04
 0.10599999E+02  0.35795E+04
 0.10650000E+02  0.36041E+04
 0.10699999E+02  0.36003E+04
 0.10749999E+02  0.36048E+04
 0.10799999E+02  0.35884E+04
 0.10849999E+02  0.35853E+04
 0.10900000E+02  0.35604E+04
 0.10949999E+02  0.35379E+04
 0.10999999E+02  0.35246E+04
 0.11049999E+02  0.35133E+04
 0.11099999E+02  0.35072E+04
 0.11150000E+02  0.35000E+04
 0.11199999E+02  0.35044E+04
 0.11249999E+02  0.34858E+04
 0.11299999E+02  0.34730E+04
 0.11349999E+02  0.34628E+04
 0.11400000E+02  0.34604E+04
 0.11449999E+02  0.34734E+04
 0.11499999E+02  0.34847E+04
 0.11549999E+02  0.34875E+04
 0.11599999E+02  0.34917E+04
 0.11650000E+02  0.34832E+04
 0.11699999E+02  0.34783E+04
 0.11749999E+02  0.34689E+04
 0.11799999E+02  0.34534E+04
 0.11849999E+02  0.34453E+04
 0.11900000E+02  0.34269E+04
 0.11949999E+02  0.34178E+04
 0.11999999E+02  0.34050E+04
 0.12049999E+02  0.34039E+04
 0.12099999E+02  0.34131E+04
 0.12150000E+02  0.34274E+04
 0.12199999E+02  0.34421E+04
 0.12249999E+02  0.34618E+04
 0.12299999E+02  0.34830E+04
 0.12349999E+02  0.34925E+04
 0.12400000E+02  0.35265E+04
 0.12449999E+02  0.35146E+04
 0.12499999E+02  0.35128E+04
 0.12549999E+02  0.35091E+04
 0.12599999E+02  0.35056E+04
 0.12649999E+02  0.35118E+04
 0.12699999E+02  0.35275E+04
 0.12749999E+02  0.35600E+04
 0.12799999E+02  0.35790E+04
 0.12849999E+02  0.36170E+04
 0.12899999E+02  0.36260E+04
 0.12949999E+02  0.36397E+04
 0.12999999E+02  0.36692E+04
 0.13049999E+02  0.36693E+04
 0.13099999E+02  0.36707E+04
 0.13149999E+02  0.36568E+04
 0.13199999E+02  0.36410E+04
 0.13249999E+02  0.36226E+04
 0.13299999E+02  0.36008E+04
 0.13349999E+02  0.35834E+04
 0.13399999E+02  0.35475E+04
 0.13449999E+02  0.35246E+04
 0.13499999E+02  0.34850E+04
 0.13549999E+02  0.34778E+04
 0.13599999E+02  0.34474E+04
 0.13649999E+02  0.34377E+04
 0.13699999E+02  0.34259E+04
 0.13749999E+02  0.34233E+04
 0.13799999E+02  0.34203E+04
 0.13849999E+02  0.34335E+04
 0.13899999E+02  0.34648E+04
 0.13949999E+02  0.34705E+04
 0.13999999E+02  0.35065E+04
 0.14049999E+02  0.35137E+04
 0.14099998E+02  0.35407E+04
 0.14150000E+02  0.35382E+04
 0.14199999E+02  0.35351E+04
 0.14249998E+02  0.35310E+04
 0.14299999E+02  0.35338E+04
 0.14349998E+02  0.35319E+04
 0.14400000E+02  0.35404E+04
 0.14449999E+02  0.35343E+04
 0.14499998E+02  0.35242E+04
 0.14549999E+02  0.35100E+04
 0.14599998E+02  0.34962E+04
 0.14650000E+02  0.34714E+04
 0.14699999E+02  0.34668E+04
 0.14749998E+02  0.34563E+04
 0.14799999E+02  0.34241E+04
 0.14849998E+02  0.34235E+04
 0.14900000E+02  0.34003E+04
 0.14949999E+02  0.34184E+04
 0.14999998E+02  0.33980E+04
 0.15049999E+02  0.34305E+04
 0.15099998E+02  0.34249E+04
 0.15150000E+02  0.34340E+04
 0.15199999E+02  0.34548E+04
 0.15249998E+02  0.34610E+04
 0.15299999E+02  0.34872E+04
 0.15349998E+02  0.34822E+04
 0.15400000E+02  0.34631E+04
 0.15449999E+02  0.34410E+04
 0.15499998E+02  0.34440E+04
 0.15549999E+02  0.34294E+04
 0.15599998E+02  0.34534E+04
 0.15650000E+02  0.34561E+04
 0.15699999E+02  0.34814E+04
 0.15749998E+02  0.35183E+04
 0.15799999E+02  0.35547E+04
 0.15849998E+02  0.35860E+04
 0.15900000E+02  0.36110E+04
 0.15949999E+02  0.36184E+04
 0.15999998E+02  0.36230E+04
 0.16049999E+02  0.36312E+04
 0.16099998E+02  0.36292E+04
 0.16150000E+02  0.36145E+04
 0.16199999E+02  0.35821E+04
 0.16249998E+02  0.35538E+04
 0.16299999E+02  0.35243E+04
 0.16349998E+02  0.35084E+04
 0.16400000E+02  0.34983E+04
 0.16449999E+02  0.35064E+04
 0.16499998E+02  0.34999E+04
 0.16549999E+02  0.35012E+04
 0.16599998E+02  0.35160E+04
 0.16650000E+02  0.35135E+04
 0.16699999E+02  0.35357E+04
 0.16749998E+02  0.35336E+04
 0.16799999E+02  0.35382E+04
 0.16849998E+02  0.35392E+04
 0.16900000E+02  0.35369E+04
 0.16949999E+02  0.35406E+04
 0.16999998E+02  0.35305E+04
 0.17049999E+02  0.35144E+04
 0.17099998E+02  0.34700E+04
 0.17150000E+02  0.34750E+04
 0.17199999E+02  0.34238E+04
 0.17249998E+02  0.34344E+04
 0.17299999E+02  0.33981E+04
 0.17349998E+02  0.33788E+04
 0.17400000E+02  0.33740E+04
 0.17449999E+02  0.33426E+04
 0.17499998E+02  0.33599E+04
 0.17549999E+02  0.33269E+04
 0.17599998E+02  0.33521E+04
 0.17650000E+02  0.33379E+04
 0.17699999E+02  0.33718E+04
 0.17749998E+02  0.33440E+04
 0.17799999E+02  0.33661E+04
 0.17849998E+02  0.33818E+04
 0.17900000E+02  0.34083E+04
 0.17949999E+02  0.34612E+04
 0.17999998E+02  0.34844E+04
 0.18049999E+02  0.35489E+04
 0.18099998E+02  0.35682E+04
 0.18150000E+02  0.36367E+04
 0.18199999E+02  0.36688E+04
 0.18249998E+02  0.37056E+04
 0.18299999E+02  0.37107E+04
 0.18349998E+02  0.37270E+04
 0.18400000E+02  0.37518E+04
 0.18449999E+02  0.37411E+04
 0.18499998E+02  0.37530E+04
 0.18549999E+02  0.37117E+04
 0.18599998E+02  0.36870E+04
 0.18650000E+02  0.36708E+04
 0.18699999E+02  0.36438E+04
 0.18749998E+02  0.36165E+04
 0.18799999E+02  0.35787E+04
 0.18849998E+02  0.35638E+04
 0.18900000E+02  0.35391E+04
 0.18949999E+02  0.35218E+04
 0.18999998E+02  0.34800E+04
 0.19049999E+02  0.34566E+04
 0.19099998E+02  0.34214E+04
 0.19150000E+02  0.34155E+04
 0.19199999E+02  0.33916E+04
 0.19249998E+02  0.34065E+04
 0.19299999E+02  0.33904E+04
 0.19349998E+02  0.33958E+04
 0.19400000E+02  0.34217E+04
 0.19449999E+02  0.34243E+04
 0.19499998E+02  0.34607E+04
 0.19549999E+02  0.34411E+04
 0.19599998E+02  0.34722E+04
 0.19650000E+02  0.34454E+04
 0.19699999E+02  0.34661E+04
 0.19749998E+02  0.34480E+04
 0.19799999E+02  0.34585E+04
 0.19849998E+02  0.34476E+04
 0.19900000E+02  0.34502E+04
 0.19949999E+02  0.34644E+04
 0.19999998E+02  0.34684E+04
 0.20049999E+02  0.35039E+04
 0.20099998E+02  0.34914E+04
 0.20150000E+02  0.35391E+04
 0.20199999E+02  0.35227E+04
 0.20249998E+02  0.35390E+04
 0.20299999E+02  0.35171E+04
 0.20349998E+02  0.35063E+04
 0.20399998E+02  0.34865E+04
 0.20449999E+02  0.34595E+04
 0.20499998E+02  0.34331E+04
 0.20549999E+02  0.34217E+04
 0.20599998E+02  0.34229E+04
 0.20649998E+02  0.34107E+04
 0.20699999E+02  0.34334E+04
 0.20749998E+02  0.34277E+04
 0.20799999E+02  0.34606E+04
 0.20849998E+02  0.34525E+04
 0.20899998E+02  0.35031E+04
 0.20949999E+02  0.35108E+04
 0.20999998E+02  0.35242E+04
 0.21049999E+02  0.35349E+04
 0.21099998E+02  0.35165E+04
 0.21149998E+02  0.35241E+04
 0.21199999E+02  0.35110E+04
 0.21249998E+02  0.35355E+04
 0.21299999E+02  0.35492E+04
 0.21349998E+02  0.35620E+04
 0.21399998E+02  0.35692E+04
 0.21449999E+02  0.35692E+04
 0.21499998E+02  0.35668E+04
 0.21549999E+02  0.35641E+04
 0.21599998E+02  0.35550E+04
 0.21649998E+02  0.35573E+04
 0.21699999E+02  0.35587E+04
 0.21749998E+02  0.35574E+04
 0.21799999E+02  0.35622E+04
 0.21849998E+02  0.35520E+04
 0.21899998E+02  0.35388E+04
 0.21949999E+02  0.35294E+04
 0.21999998E+02  0.34897E+04
 0.22049999E+02  0.34866E+04
 0.22099998E+02  0.34693E+04
 0.22149998E+02  0.34941E+04
 0.22199999E+02  0.34871E+04
 0.22249998E+02  0.34963E+04
 0.22299999E+02  0.35196E+04
 0.22349998E+02  0.35024E+04
 0.22399998E+02  0.35190E+04
 0.22449999E+02  0.35360E+04
 0.22499998E+02  0.35428E+04
 0.22549999E+02  0.35361E+04
 0.22599998E+02  0.35293E+04
 0.22649998E+02  0.35176E+04
 0.22699999E+02  0.35069E+04
 0.22749998E+02  0.34777E+04
 0.22799999E+02  0.34860E+04
 0.22849998E+02  0.34634E+04
 0.22899998E+02  0.34695E+04
 0.22949999E+02  0.34635E+04
 0.22999998E+02  0.34630E+04
 0.23049999E+02  0.34693E+04
 0.23099998E+02  0.34642E+04
 0.23149998E+02  0.34793E+04
 0.23199999E+02  0.34866E+04
 0.23249998E+02  0.34957E+04
 0.23299999E+02  0.34908E+04
 0.23349998E+02  0.34839E+04
 0.23399998E+02  0.34823E+04
 0.23449999E+02  0.34636E+04
 0.23499998E+02  0.34583E+04
 0.23549999E+02  0.34479E+04
 0.23599998E+02  0.34248E+04
 0.23649998E+02  0.34215E+04
 0.23699999E+02  0.33944E+04
 0.23749998E+02  0.33873E+04
 0.23799999E+02  0.34184E+04
 0.23849998E+02  0.34461E+04
 0.23899998E+02  0.34846E+04
 0.23949999E+02  0.35081E+04
 0.23999998E+02  0.35222E+04
 0.24049999E+02  0.35219E+04
 0.24099998E+02  0.35027E+04
 0.24149998E+02  0.35007E+04
 0.24199999E+02  0.34776E+04
 0.24249998E+02  0.35095E+04
 0.24299999E+02  0.34960E+04
 0.24349998E+02  0.35190E+04
 0.24399998E+02  0.35157E+04
 0.24449999E+02  0.35226E+04
 0.24499998E+02  0.35386E+04
 0.24549999E+02  0.35297E+04
 0.24599998E+02  0.35630E+04
 0.24649998E+02  0.35601E+04
 0.24699999E+02  0.35897E+04
 0.24749998E+02  0.35784E+04
 0.24799999E+02  0.35891E+04
 0.24849998E+02  0.35880E+04
 0.24899998E+02  0.35769E+04
 0.24949999E+02  0.35828E+04
 0.24999998E+02  0.35622E+04
 0.25049999E+02  0.35675E+04
 0.25099998E+02  0.35657E+04
 0.25149998E+02  0.35857E+04
 0.25199999E+02  0.35629E+04
 0.25249998E+02  0.35521E+04
 0.25299999E+02  0.35558E+04
 0.25349998E+02  0.35379E+04
 0.25399998E+02  0.35320E+04
 0.25449999E+02  0.35315E+04
 0.25499998E+02  0.35320E+04
 0.25549999E+02  0.35042E+04
 0.25599998E+02  0.34771E+04
 0.25649998E+02  0.34732E+04
 0.25699999E+02  0.34532E+04
 0.25749998E+02  0.34428E+04
 0.25799999E+02  0.35045E+04
 0.25849998E+02  0.34551E+04
 0.25899998E+02  0.34559E+04
 0.25949999E+02  0.35331E+04
 0.25999998E+02  0.33859E+04
 0.26049999E+02  0.34717E+04
 0.26099998E+02  0.35530E+04
 0.26149998E+02  0.34195E+04
 0.26199999E+02  0.35077E+04
 0.26249998E+02  0.36098E+04
 0.26299999E+02  0.35977E+04
 0.26349998E+02  0.34170E+04
 0.26399998E+02  0.35019E+04
 0.26449999E+02  0.35616E+04
 0.26499998E+02  0.36054E+04
 0.26549999E+02  0.35044E+04
 0.26599998E+02  0.36614E+04
 0.26649998E+02  0.35681E+04
 0.26699999E+02  0.34127E+04
 0.26749998E+02  0.36329E+04
 0.26799999E+02  0.33385E+04
 0.26849998E+02  0.34151E+04
 0.26899998E+02  0.33259E+04
 0.26949999E+02  0.35573E+04
 0.26999998E+02  0.33450E+04
 0.27049997E+02  0.32630E+04
 0.27099998E+02  0.36115E+04
 0.27149998E+02  0.35648E+04
 0.27199999E+02  0.34282E+04
 0.27249998E+02  0.31947E+04
 0.27299997E+02  0.36422E+04
 0.27349998E+02  0.36851E+04
 0.27399998E+02  0.34051E+04
 0.27449999E+02  0.33629E+04
 0.27499998E+02  0.31928E+04
 0.27549997E+02  0.36123E+04
 0.27599998E+02  0.36844E+04
 0.27649998E+02  0.29462E+04
 0.27699999E+02  0.40020E+04
 0.27749998E+02  0.34550E+04
 0.27799997E+02  0.33654E+04
 0.27849998E+02  0.36822E+04
 0.27899998E+02  0.32344E+04
 0.27949999E+02  0.33741E+04
 0.27999998E+02  0.27797E+04
 0.28049997E+02  0.39325E+04
 0.28099998E+02  0.30512E+04
 0.28149998E+02  0.29021E+04
 0.28199999E+02  0.36357E+04
 0.28249998E+02  0.36654E+04
 0.28299997E+02  0.41297E+04
 0.28349998E+02  0.31960E+04
 0.28399998E+02  0.42062E+04
 0.28449999E+02  0.41055E+04
 0.28499998E+02  0.37225E+04
 0.28549997E+02  0.41573E+04
 0.28599998E+02  0.29579E+04
 0.28649998E+02  0.37106E+04
 0.28699999E+02  0.39681E+04
 0.28749998E+02  0.34214E+04
 0.28799997E+02  0.30643E+04
 0.28849998E+02  0.35591E+04
 0.28899998E+02  0.36093E+04
 0.28949999E+02  0.34185E+04
 0.28999998E+02  0.32377E+04
 0.29049997E+02  0.36407E+04
 0.29099998E+02  0.32881E+04
 0.29149998E+02  0.37055E+04
 0.29199999E+02  0.28569E+04
 0.29249998E+02  0.34865E+04
 0.29299997E+02  0.44220E+04
 0.29349998E+02  0.37866E+04
 0.29399998E+02  0.43447E+04
 0.29449999E+02  0.30532E+04
 0.29499998E+02  0.43767E+04
 0.29549997E+02  0.34421E+04
 0.29599998E+02  0.37465E+04
 0.29649998E+02  0.33102E+04
 0.29699999E+02  0.23263E+04
 0.29749998E+02  0.36409E+04
 0.29799997E+02  0.28187E+04
 0.29849998E+02  0.17784E+04
 0.29899998E+02  0.30355E+04
 0.29949999E+02  0.31144E+04
 0.29999998E+02  0.43625E+04
 0.30049999E+02  0.39597E+04
 0.30099998E+02  0.31721E+04
 0.30149998E+02  0.41501E+04
 0.30199997E+02  0.40369E+04
 0.30249996E+02  0.37266E+04
 0.30299999E+02  0.22852E+04
 0.30349998E+02  0.38808E+04
 0.30399998E+02  0.34261E+04
 0.30449997E+02  0.26146E+04
 0.30499996E+02  0.25308E+04
 0.30549999E+02  0.37653E+04
 0.30599998E+02  0.33162E+04
 0.30649998E+02  0.24631E+04
 0.30699997E+02  0.47007E+04
 0.30749996E+02  0.40236E+04
 0.30799999E+02  0.19829E+04
 0.30849998E+02  0.38100E+04
 0.30899998E+02  0.50113E+04
 0.30949997E+02  0.34450E+04
 0.30999996E+02  0.46196E+04
 0.31049999E+02  0.38085E+04
 0.31099998E+02  0.46022E+04
 0.31149998E+02  0.41311E+04
 0.31199997E+02  0.36344E+04
 0.31249996E+02  0.41724E+04
 0.31299999E+02  0.23636E+04
 0.31349998E+02  0.40479E+04
 0.31399998E+02  0.42807E+04
 0.31449997E+02  0.33161E+04
 0.31499996E+02  0.15983E+04
 0.31549999E+02  0.41173E+04
 0.31599998E+02  0.42998E+04
 0.31649998E+02  0.26349E+04
 0.31699997E+02  0.38589E+04
 0.31749996E+02  0.37295E+04
 0.31799999E+02  0.52332E+04
 0.31849998E+02  0.29767E+04
 0.31899998E+02  0.42549E+04
 0.31949997E+02  0.35186E+04
 0.31999996E+02  0.17382E+04
 0.32049999E+02  0.40833E+04
 0.32099998E+02  0.42276E+04
 0.32149998E+02  0.17540E+04
 0.32199997E+02  0.22691E+04
 0.32249996E+02  0.33255E+04
 0.32299999E+02  0.13515E+04
 0.32349998E+02  0.39204E+04
 0.32399998E+02  0.39534E+04
 0.32449997E+02  0.32802E+04
 0.32499996E+02  0.25339E+04
 0.32549999E+02  0.42755E+04
 0.32599998E+02  0.40898E+04
 0.32649998E+02  0.19991E+04
 0.32699997E+02  0.38305E+04
 0.32749996E+02  0.30155E+04
 0.32799999E+02  0.45128E+04
 0.32849998E+02  0.35486E+04
 0.32899998E+02  0.28616E+04
 0.32949997E+02  0.45195E+04
 0.32999996E+02  0.27680E+04
 0.33049999E+02  0.52591E+04
 0.33099998E+02  0.43911E+04
 0.33149998E+02  0.27643E+04
 0.33199997E+02  0.28469E+04
 0.33249996E+02  0.40313E+04
 0.33299999E+02  0.42823E+04
 0.33349998E+02  0.25763E+04
 0.33399998E+02  0.36073E+04
 0.33449997E+02  0.21455E+04
 0.33499996E+02  0.32321E+04
 0.33549999E+02  0.18966E+04
 0.33599998E+02  0.28529E+04
 0.33649998E+02  0.31636E+04
 0.33699997E+02  0.56155E+04
 0.33749996E+02  0.46960E+04
 0.33799999E+02  0.18153E+04
 0.33849998E+02  0.35294E+04
 0.33899998E+02  0.29413E+04
 0.33949997E+02  0.54700E+04
 0.33999996E+02  0.40134E+04
 0.34049999E+02  0.75960E+04
 0.34099998E+02  0.43029E+04
 0.34149998E+02  0.11498E+04
 0.34199997E+02  0.66067E+04
 0.34249996E+02  0.45574E+04
 0.34299999E+02  0.18515E+04
 0.34349998E+02  0.34358E+04
 0.34399998E+02  0.58861E+04
 0.34449997E+02  0.36987E+04
 0.34499996E+02  0.25475E+04
 0.34549999E+02  0.38970E+04
 0.34599998E+02  0.33533E+04
 0.34649998E+02  0.19765E+04
 0.34699997E+02  0.26830E+04
 0.34749996E+02  0.35522E+04
 0.34799999E+02  0.27403E+04
 0.34849998E+02  0.17645E+04
 0.34899998E+02  0.20315E+04
 0.34949997E+02  0.48439E+04
 0.34999996E+02  0.28781E+04
 0.35049999E+02  0.13834E+04
 0.35099998E+02  0.55128E+04
 0.35149998E+02  0.19201E+04
 0.35199997E+02  0.32999E+04
 0.35249996E+02  0.51033E+04
 0.35299999E+02  0.45441E+04
 0.35349998E+02  0.36327E+04
 0.35399998E+02  0.21131E+04
 0.35449997E+02  0.52914E+04
 0.35499996E+02  0.19982E+04
 0.35549999E+02  0.26067E+04
 0.35599998E+02  0.46233E+04
 0.35649998E+02  0.42125E+04
 0.35699997E+02  0.26837E+04
 0.35749996E+02  0.84154E+03
 0.35799999E+02  0.31606E+04
 0.35849998E+02  0.46202E+04
 0.35899998E+02  0.34741E+04
 0.35949997E+02  0.38590E+04
 0.35999996E+02  0.47360E+04
 0.36049999E+02  0.33316E+04
 0.36099998E+02  0.45109E+04
 0.36149998E+02  0.33699E+04
 0.36199997E+02  0.83317E+03
 0.36249996E+02  0.28712E+04
 0.36299999E+02  0.31429E+04
 0.36349998E+02  0.31280E+04
 0.36399998E+02  0.40566E+04
 0.36449997E+02  0.36426E+04
 0.36499996E+02  0.50164E+04
 0.36549999E+02  0.48516E+04
 0.36599998E+02  0.35389E+04
 0.36649998E+02  0.46666E+04
 0.36699997E+02  0.46208E+04
 0.36749996E+02  0.45042E+04
 0.36799999E+02  0.45696E+04
 0.36849998E+02  0.18477E+04
 0.36899998E+02  0.27258E+04
 0.36949997E+02  0.40288E+04
 0.36999996E+02  0.39263E+04
 0.37049999E+02  0.21243E+04
 0.37099998E+02  0.14772E+04
 0.37149998E+02  0.41569E+04
 0.37199997E+02  0.43125E+04
 0.37249996E+02  0.36715E+04
 0.37299999E+02  0.15524E+04
 0.37349998E+02  0.23691E+04
 0.37399998E+02  0.27933E+04
 0.37449997E+02  0.44423E+04
 0.37499996E+02  0.44056E+04
 0.37549999E+02  0.26135E+04
 0.37599998E+02  0.26591E+04
 0.37649998E+02  0.41526E+04
 0.37699997E+02  0.74344E+04
 0.37749996E+02  0.44032E+04
 0.37799999E+02  0.34356E+04
 0.37849998E+02  0.35192E+04
 0.37899998E+02  0.33968E+04
 0.37949997E+02  0.43841E+04
 0.37999996E+02  0.27191E+04
 0.38049999E+02  0.40475E+04
 0.38099998E+02  0.28789E+04
 0.38149998E+02  0.28201E+04
 0.38199997E+02  0.51091E+04
 0.38249996E+02  0.26313E+04
 0.38299999E+02  0.44414E+04
 0.38349998E+02  0.31328E+04
 0.38399998E+02  0.17708E+04
 0.38449997E+02  0.14544E+04
 0.38499996E+02  0.13250E+04
 0.38549999E+02  0.26744E+04
 0.38599998E+02  0.23038E+04
 0.38649998E+02  0.29217E+04
 0.38699997E+02  0.52337E+03
 0.38749996E+02  0.54402E+04
 0.38799999E+02  0.53607E+04
 0.38849998E+02  0.48678E+04
 0.38899998E+02  0.65704E+04
 0.38949997E+02  0.34993E+04
 0.38999996E+02  0.33456E+04
 0.39049999E+02  0.39348E+04
 0.39099998E+02  0.43817E+04
 0.39149998E+02  0.34835E+04
 0.39199997E+02  0.28395E+04
 0.39249996E+02  0.35484E+04
 0.39299999E+02  0.38243E+04
 0.39349998E+02  0.33625E+04
 0.39399998E+02  0.48422E+04
 0.39449997E+02  0.54722E+04
 0.39499996E+02  0.43516E+04
 0.39549999E+02  0.35114E+04
 0.39599998E+02  0.31427E+04
 0.39649998E+02  0.12771E+04
 0.39699997E+02  0.31263E+04
 0.39749996E+02  0.31758E+04
 0.39799999E+02  0.20769E+04
 0.39849998E+02  0.31608E+04
 0.39899998E+02  0.42485E+04
 0.39949997E+02  0.44587E+04
 0.39999996E+02  0.14950E+04
 0.40049999E+02  0.22019E+03
 0.40099998E+02  0.17256E+04
 0.40149998E+02  0.23289E+04
 0.40199997E+02  0.39371E+04
 0.40249996E+02  0.46217E+04
 0.40299999E+02  0.39303E+04
 0.40349998E+02  0.68692E+04
 0.40399998E+02  0.59310E+04
 0.40449997E+02  0.44628E+04
 0.40499996E+02  0.40741E+04
 0.40549999E+02  0.34847E+04
 0.40599998E+02  0.36435E+04
 0.40649998E+02  0.25855E+04
 0.40699997E+02  0.41177E+04
 0.40749996E+02  0.53266E+04
 0.40799999E+02  0.23181E+04
 0.40849998E+02  0.35245E+04
 0.40899998E+02  0.51605E+04
 0.40949997E+02  0.31570E+04
 0.40999996E+02  0.31386E+04
 0.41049999E+02  0.24964E+04
 0.41099998E+02  0.23734E+04
 0.41149998E+02  0.31297E+04
 0.41199997E+02  0.39154E+04
 0.41249996E+02  0.52830E+04
 0.41299999E+02  0.32730E+04
 0.41349998E+02  0.12400E+04
 0.41399998E+02  0.15642E+04
 0.41449997E+02  0.23215E+04
 0.41499996E+02  0.28770E+04
 0.41549999E+02  0.30996E+04
 0.41599998E+02  0.25462E+04
 0.41649998E+02  0.25294E+04
 0.41699997E+02  0.38468E+04
 0.41749996E+02  0.41731E+04
 0.41799999E+02  0.37849E+04
 0.41849998E+02  0.22273E+04
 0.41899998E+02  0.36005E+04
 0.41949997E+02  0.46743E+04
 0.41999996E+02  0.49249E+04
 0.42049999E+02  0.54656E+04
 0.42099998E+02  0.43768E+04
 0.42149998E+02  0.47811E+04
 0.42199997E+02  0.37935E+04
 0.42249996E+02  0.33067E+04
 0.42299999E+02  0.23151E+04
 0.42349998E+02  0.26460E+04
 0.42399998E+02  0.40040E+04
 0.42449997E+02  0.13744E+04
 0.42499996E+02  0.27754E+04
 0.42549999E+02  0.42294E+04
 0.42599998E+02  0.48955E+04
 0.42649998E+02  0.58960E+04
 0.42699997E+02  0.51556E+04
 0.42749996E+02  0.38538E+04
 0.42799995E+02  0.15588E+04
 0.42849998E+02  0.14275E+04
 0.42899998E+02  0.19412E+04
 0.42949997E+02  0.22489E+04
 0.42999996E+02  0.24955E+04
 0.43049995E+02  0.26557E+04
 0.43099998E+02  0.35004E+04
 0.43149998E+02  0.35823E+04
 0.43199997E+02  0.46939E+04
 0.43249996E+02  0.36151E+04
 0.43299995E+02  0.39895E+04
 0.43349998E+02  0.63875E+04
 0.43399998E+02  0.48215E+04
 0.43449997E+02  0.62246E+04
 0.43499996E+02  0.66005E+04
 0.43549995E+02  0.49626E+04
 0.43599998E+02  0.56890E+04
 0.43649998E+02  0.62945E+04
 0.43699997E+02  0.61139E+04
 0.43749996E+02  0.53126E+04
 0.43799995E+02  0.39774E+04
 0.43849998E+02  0.33722E+04
 0.43899998E+02  0.47266E+04
 0.43949997E+02  0.59802E+04
 0.43999996E+02  0.54000E+04
 0.44049995E+02  0.19196E+04
 0.44099998E+02 -0.10071E+03
 0.44149998E+02  0.12743E+04
 0.44199997E+02  0.46758E+03
 0.44249996E+02  0.80876E+03
 0.44299995E+02  0.17184E+04
 0.44349998E+02 -0.42275E+03
 0.44399998E+02 -0.62472E+01
 0.44449997E+02  0.47763E+04
 0.44499996E+02  0.56866E+04
 0.44549995E+02  0.45649E+04
 0.44599998E+02  0.31821E+04
 0.44649998E+02  0.22283E+04
 0.44699997E+02  0.56714E+04
 0.44749996E+02  0.63533E+04
 0.44799995E+02  0.53202E+04
 0.44849998E+02  0.32691E+04
 0.44899998E+02  0.11734E+04
 0.44949997E+02 -0.19477E+04
 0.44999996E+02 -0.62266E+04
 0.45049995E+02 -0.10072E+05
 0.45099998E+02 -0.13983E+05
 0.45149998E+02 -0.71681E+04
 0.45199997E+02  0.11780E+04
 0.45249996E+02  0.56587E+04
 0.45299995E+02  0.85741E+04
 0.45349998E+02  0.93002E+04
 0.45399998E+02  0.14546E+05
 0.45449997E+02  0.15460E+05
 0.45499996E+02  0.12835E+05
 0.45549995E+02  0.10745E+05
 0.45599998E+02  0.38797E+04
 0.45649998E+02  0.34556E+04
 0.45699997E+02  0.12371E+05
 0.45749996E+02  0.86270E+04
 0.45799995E+02  0.23459E+03
 0.45849998E+02 -0.86961E+04
 0.45899998E+02 -0.13806E+05
 0.45949997E+02 -0.39849E+04
 0.45999996E+02  0.37340E+04
 0.46049995E+02  0.99429E+04
 0.46099998E+02  0.12617E+05
 0.46149998E+02  0.88267E+04
 0.46199997E+02  0.94053E+04
 0.46249996E+02  0.11179E+05
 0.46299995E+02  0.17106E+05
 0.46349998E+02  0.15602E+05
 0.46399998E+02 -0.11373E+04
 0.46449997E+02 -0.33931E+04
 0.46499996E+02  0.19974E+04
 0.46549995E+02  0.69077E+04
 0.46599998E+02  0.56128E+04
 0.46649998E+02  0.54849E+04
 0.46699997E+02 -0.54870E+04
 0.46749996E+02 -0.93310E+04
 0.46799995E+02  0.25730E+04
 0.46849998E+02  0.33771E+04
 0.46899998E+02  0.10950E+05
 0.46949997E+02 -0.14257E+04
 0.46999996E+02 -0.41583E+04
 0.47049995E+02  0.53402E+04
 0.47099998E+02  0.11076E+05
 0.47149998E+02  0.13744E+05
 0.47199997E+02  0.69360E+04
 0.47249996E+02  0.71723E+03
 0.47299995E+02 -0.42705E+04
 0.47349998E+02  0.41886E+04
 0.47399998E+02  0.55863E+04
 0.47449997E+02  0.76429E+03
 0.47499996E+02  0.14751E+04
 0.47549995E+02 -0.18989E+04
 0.47599998E+02 -0.39202E+04
 0.47649998E+02 -0.90272E+03
 0.47699997E+02  0.62663E+04
 0.47749996E+02  0.27341E+04
 0.47799995E+02 -0.12339E+05
 0.47849998E+02 -0.11824E+05
 0.47899998E+02 -0.38868E+04
 0.47949997E+02  0.47208E+04
 0.47999996E+02  0.12733E+05
 0.48049995E+02  0.11679E+05
 0.48099998E+02  0.89591E+04
 0.48149998E+02  0.75081E+04
 0.48199997E+02  0.10457E+05
 0.48249996E+02  0.64182E+04
 0.48299995E+02 -0.65238E+03
 0.48349998E+02 -0.65328E+04
 0.48399998E+02 -0.52726E+04
 0.48449997E+02  0.79269E+04
 0.48499996E+02  0.27128E+03
 0.48549995E+02 -0.33774E+04
 0.48599998E+02  0.72382E+04
 0.48649998E+02  0.84451E+04
 0.48699997E+02  0.93014E+04
 0.48749996E+02  0.15220E+05
 0.48799995E+02  0.10378E+05
 0.48849998E+02  0.28274E+04
 0.48899998E+02  0.13386E+05
 0.48949997E+02  0.10186E+05
 0.48999996E+02  0.29745E+04
 0.49049995E+02  0.64113E+04
 0.49099998E+02 -0.24049E+03
 0.49149998E+02 -0.28580E+04
 0.49199997E+02 -0.33769E+04
 0.49249996E+02 -0.59812E+04
 0.49299995E+02  0.17730E+04
 0.49349998E+02  0.60745E+04
 0.49399998E+02  0.82326E+04
 0.49449997E+02  0.12459E+05
 0.49499996E+02  0.48774E+04
 0.49549995E+02  0.32224E+04
 0.49599998E+02  0.62905E+04
 0.49649998E+02  0.97981E+04
 0.49699997E+02  0.78798E+04
 0.49749996E+02  0.62779E+03
 0.49799995E+02  0.50665E+04
 0.49849998E+02  0.39815E+04
 0.49899998E+02  0.21990E+04
 0.49949997E+02  0.94151E+03
 0.49999996E+02 -0.16913E+04
 0.50049995E+02  0.86597E+04
 0.50099998E+02  0.55140E+04
 0.50149998E+02 -0.47314E+04
 0.50199997E+02 -0.66695E+04
 0.50249996E+02 -0.87707E+04
 0.50299995E+02  0.21174E+04
 0.50349998E+02  0.53489E+04
 0.50399998E+02  0.32521E+04
 0.50449997E+02  0.74856E+04
 0.50499996E+02  0.65314E+04
 0.50549995E+02  0.12713E+04
 0.50599998E+02  0.39661E+04
 0.50649998E+02  0.78086E+04
 0.50699997E+02  0.73357E+04
 0.50749996E+02  0.10540E+05
 0.50799995E+02  0.28850E+04
 0.50849998E+02 -0.93340E+04
 0.50899998E+02 -0.11729E+05
 0.50949997E+02 -0.10615E+05
 0.50999996E+02 -0.50714E+04
 0.51049995E+02  0.57706E+04
 0.51099998E+02  0.10649E+05
 0.51149998E+02  0.14058E+05
 0.51199997E+02  0.99806E+04
 0.51249996E+02  0.10444E+04
 0.51299995E+02  0.30982E+04
 0.51349998E+02  0.99555E+04
 0.51399998E+02  0.10410E+05
 0.51449997E+02  0.64333E+04
 0.51499996E+02  0.16757E+03
 0.51549995E+02 -0.57859E+04
 0.51599998E+02 -0.13688E+04
 0.51649998E+02  0.61947E+04
 0.51699997E+02  0.80911E+04
 0.51749996E+02  0.49847E+04
 0.51799995E+02 -0.19750E+04
 0.51849998E+02 -0.12151E+04
 0.51899998E+02  0.60661E+04
 0.51949997E+02  0.93863E+04
 0.51999996E+02  0.88425E+04
 0.52049995E+02  0.10275E+05
 0.52099998E+02  0.90954E+04
 0.52149998E+02  0.59797E+04
 0.52199997E+02  0.56028E+04
 0.52249996E+02 -0.90122E+02
 0.52299995E+02  0.16855E+04
 0.52349998E+02  0.45683E+04
 0.52399998E+02  0.35360E+04
 0.52449997E+02  0.80259E+04
 0.52499996E+02  0.66821E+04
 0.52549995E+02 -0.11775E+04
 0.52599998E+02 -0.30306E+04
 0.52649998E+02 -0.69810E+04
 0.52699997E+02 -0.64606E+04
 0.52749996E+02 -0.13037E+04
 0.52799995E+02  0.33915E+04
 0.52849998E+02  0.16225E+05
 0.52899998E+02  0.18547E+05
 0.52949997E+02  0.11265E+05
 0.52999996E+02  0.63878E+04
 0.53049995E+02  0.56682E+04
 0.53099998E+02  0.35801E+04
 0.53149998E+02  0.29720E+03
 0.53199997E+02 -0.12398E+04
 0.53249996E+02 -0.26265E+03
 0.53299995E+02  0.30437E+04
 0.53349998E+02  0.31513E+04
 0.53399998E+02  0.42295E+04
 0.53449997E+02 -0.92290E+02
 0.53499996E+02 -0.28172E+03
 0.53549995E+02  0.61872E+04
 0.53599998E+02  0.59758E+04
 0.53649998E+02  0.15774E+04
 0.53699997E+02 -0.39446E+04
 0.53749996E+02 -0.98604E+03
 0.53799995E+02  0.24785E+04
 0.53849998E+02  0.52785E+04
 0.53899998E+02  0.61827E+04
 0.53949997E+02  0.87999E+03
 0.53999996E+02 -0.12319E+04
 0.54049995E+02 -0.89669E+03
 0.54099998E+02 -0.19357E+04
 0.54149998E+02 -0.18276E+04
 0.54199997E+02 -0.11686E+04
 0.54249996E+02  0.23919E+04
 0.54299995E+02  0.82229E+04
 0.54349998E+02  0.80029E+04
 0.54399998E+02  0.77706E+04
 0.54449997E+02  0.88430E+04
 0.54499996E+02  0.64488E+04
 0.54549995E+02  0.40889E+04
 0.54599998E+02  0.69723E+04
 0.54649998E+02  0.11764E+05
 0.54699997E+02  0.12820E+05
 0.54749996E+02  0.88986E+04
 0.54799995E+02  0.39846E+04
 0.54849998E+02  0.61666E+04
 0.54899998E+02  0.59444E+04
 0.54949997E+02  0.11878E+04
 0.54999996E+02  0.13391E+04
 0.55049995E+02  0.38711E+04
 0.55099998E+02  0.34186E+04
 0.55149998E+02  0.42895E+04
 0.55199997E+02  0.57787E+04
 0.55249996E+02  0.34103E+04
 0.55299995E+02  0.28794E+04
 0.55349998E+02  0.28748E+04
 0.55399998E+02  0.23377E+03
 0.55449997E+02 -0.64699E+04
 0.55499996E+02 -0.67937E+04
 0.55549995E+02 -0.10864E+03
 0.55599998E+02  0.51034E+04
 0.55649998E+02  0.90224E+04
 0.55699997E+02  0.85272E+04
 0.55749996E+02  0.70859E+04
 0.55799995E+02  0.60505E+04
 0.55849995E+02  0.48586E+04
 0.55899998E+02  0.43048E+04
 0.55949997E+02  0.25043E+04
 0.55999996E+02 -0.13738E+04
 0.56049995E+02 -0.33028E+04
 0.56099995E+02 -0.46408E+03
 0.56149998E+02  0.50382E+04
 0.56199997E+02  0.80372E+04
 0.56249996E+02  0.78770E+04
 0.56299995E+02  0.79096E+04
 0.56349995E+02  0.96007E+04
 0.56399998E+02  0.14229E+05
 0.56449997E+02  0.12609E+05
 0.56499996E+02  0.77531E+04
 0.56549995E+02  0.52815E+04
 0.56599995E+02  0.64652E+03
 0.56649998E+02 -0.43982E+04
 0.56699997E+02 -0.79104E+04
 0.56749996E+02 -0.54843E+04
 0.56799995E+02 -0.61269E+04
 0.56849995E+02 -0.71119E+04
 0.56899998E+02 -0.38703E+04
 0.56949997E+02 -0.25920E+04
 0.56999996E+02  0.83615E+03
 0.57049995E+02  0.23430E+04
 0.57099995E+02 -0.45452E+02
 0.57149998E+02  0.18663E+04
 0.57199997E+02  0.86545E+04
 0.57249996E+02  0.13993E+05
 0.57299995E+02  0.17366E+05
 0.57349995E+02  0.14549E+05
 0.57399998E+02  0.10586E+05
 0.57449997E+02  0.42106E+04
 0.57499996E+02  0.12307E+03
 0.57549995E+02  0.35456E+03
 0.57599995E+02 -0.11004E+04
 0.57649998E+02 -0.34703E+04
 0.57699997E+02 -0.49261E+04
 0.57749996E+02 -0.62708E+03
 0.57799995E+02  0.38581E+04
 0.57849995E+02  0.83023E+04
 0.57899998E+02  0.73399E+04
 0.57949997E+02  0.60390E+04
 0.57999996E+02  0.52199E+04
 0.58049995E+02  0.66420E+04
 0.58099995E+02  0.88791E+04
 0.58149998E+02  0.63831E+04
 0.58199997E+02  0.61653E+04
 0.58249996E+02  0.57640E+04
 0.58299995E+02  0.27647E+04
 0.58349995E+02  0.11878E+03
 0.58399998E+02 -0.10908E+04
 0.58449997E+02 -0.27601E+04
 0.58499996E+02  0.79534E+03
 0.58549995E+02  0.52712E+04
 0.58599995E+02  0.85748E+04
 0.58649998E+02  0.10298E+05
 0.58699997E+02  0.91769E+04
 0.58749996E+02  0.84283E+04
 0.58799995E+02  0.53862E+04
 0.58849995E+02  0.19534E+04
 0.58899998E+02  0.87980E+03
 0.58949997E+02 -0.54794E+03
 0.58999996E+02 -0.47733E+03
 0.59049995E+02  0.28819E+04
 0.59099995E+02  0.27502E+04
 0.59149998E+02  0.10432E+04
 0.59199997E+02  0.16335E+04
 0.59249996E+02  0.30549E+04
 0.59299995E+02  0.46718E+04
 0.59349995E+02  0.61838E+04
 0.59399998E+02  0.66451E+04
 0.59449997E+02  0.37038E+04
 0.59499996E+02  0.31798E+04
 0.59549995E+02  0.20128E+04
 0.59599995E+02 -0.13541E+04
 0.59649998E+02 -0.18666E+04
 0.59699997E+02 -0.92385E+03
 0.59749996E+02  0.17524E+04
 0.59799995E+02  0.39994E+04
 0.59849995E+02  0.52992E+04
 0.59899998E+02  0.34847E+04
 0.59949997E+02  0.24824E+04
 0.59999996E+02  0.26712E+04
 0.60049995E+02  0.24869E+04
 0.60099995E+02  0.34792E+04
 0.60149998E+02  0.63811E+04
 0.60199997E+02  0.73010E+04
 0.60249996E+02  0.60578E+04
 0.60299995E+02  0.49509E+04
 0.60349995E+02  0.13481E+04
 0.60399998E+02  0.13930E+04
 0.60449997E+02  0.14471E+04
 0.60499996E+02  0.73682E+03
 0.60549995E+02  0.19319E+04
 0.60599995E+02  0.28099E+04
 0.60649998E+02  0.36864E+04
 0.60699997E+02  0.34627E+04
 0.60749996E+02  0.28823E+04
 0.60799995E+02  0.39127E+04
 0.60849995E+02  0.33981E+04
 0.60899998E+02  0.38815E+04
 0.60949997E+02  0.53800E+04
 0.60999996E+02  0.59953E+04
 0.61049995E+02  0.47549E+04
 0.61099995E+02  0.15379E+04
 0.61149998E+02  0.14092E+04
 0.61199997E+02  0.26839E+04
 0.61249996E+02  0.52183E+04
 0.61299995E+02  0.57771E+04
 0.61349995E+02  0.32098E+04
 0.61399998E+02  0.11705E+04
 0.61449997E+02  0.18520E+04
 0.61499996E+02  0.48712E+04
 0.61549995E+02  0.74394E+04
 0.61599995E+02  0.93705E+04
 0.61649998E+02  0.99535E+04
 0.61699997E+02  0.74401E+04
 0.61749996E+02  0.38678E+04
 0.61799995E+02  0.40767E+03
 0.61849995E+02 -0.90887E+03
 0.61899998E+02 -0.57840E+02
 0.61949997E+02  0.20404E+04
 0.61999996E+02  0.56210E+04
 0.62049995E+02  0.61938E+04
 0.62099998E+02  0.46989E+04
 0.62149994E+02  0.35708E+04
 0.62199997E+02  0.22711E+04
 0.62249992E+02  0.22150E+04
 0.62299995E+02  0.37105E+04
 0.62349998E+02  0.41386E+04
 0.62399994E+02  0.31871E+04
 0.62449997E+02  0.23358E+04
 0.62499992E+02  0.19453E+04
 0.62549995E+02  0.22578E+04
 0.62599998E+02  0.20595E+04
 0.62649994E+02  0.28930E+04
 0.62699997E+02  0.41156E+04
 0.62749992E+02  0.44180E+04
 0.62799995E+02  0.53224E+04
 0.62849998E+02  0.48821E+04
 0.62899994E+02  0.28431E+04
 0.62949997E+02  0.13146E+04
 0.62999992E+02  0.19466E+04
 0.63049995E+02  0.33964E+04
 0.63099998E+02  0.51043E+04
 0.63149994E+02  0.58850E+04
 0.63199997E+02  0.42964E+04
 0.63249992E+02  0.29399E+04
 0.63299995E+02  0.24535E+04
 0.63349998E+02  0.28624E+04
 0.63399994E+02  0.19694E+04
 0.63449997E+02  0.47345E+03
 0.63499992E+02  0.87524E+03
 0.63549995E+02  0.26627E+04
 0.63599998E+02  0.34741E+04
 0.63649994E+02  0.17692E+04
 0.63699997E+02  0.16828E+04
 0.63749992E+02  0.22301E+04
 0.63799995E+02  0.13257E+04
 0.63849998E+02  0.12488E+04
 0.63899994E+02  0.26743E+04
 0.63949997E+02  0.43312E+04
 0.63999992E+02  0.68493E+04
 0.64049995E+02  0.83688E+04
 0.64099998E+02  0.63507E+04
 0.64149994E+02  0.53968E+04
 0.64199997E+02  0.42668E+04
 0.64249992E+02  0.13958E+04
 0.64299995E+02 -0.48957E+03
 0.64349998E+02 -0.10030E+04
 0.64399994E+02  0.10678E+04
 0.64449997E+02  0.33818E+04
 0.64499992E+02  0.44291E+04
 0.64549995E+02  0.65315E+04
 0.64599998E+02  0.88820E+04
 0.64649994E+02  0.90852E+04
 0.64699997E+02  0.76257E+04
 0.64749992E+02  0.71169E+04
 0.64799995E+02  0.67250E+04
 0.64849998E+02  0.72907E+04
 0.64899994E+02  0.78097E+04
 0.64949997E+02  0.50829E+04
 0.64999992E+02  0.36495E+04
 0.65049995E+02  0.30304E+04
 0.65099998E+02  0.19735E+04
 0.65149994E+02  0.16416E+04
 0.65199997E+02  0.64070E+03
 0.65249992E+02  0.99376E+03
 0.65299995E+02  0.13786E+04
 0.65349998E+02  0.81701E+03
 0.65399994E+02  0.11057E+04
 0.65449997E+02  0.16172E+04
 0.65499992E+02  0.25088E+04
 0.65549995E+02  0.26191E+04
 0.65599998E+02  0.31905E+04
 0.65649994E+02  0.52879E+04
 0.65699997E+02  0.56349E+04
 0.65749992E+02  0.43350E+04
 0.65799995E+02  0.25036E+04
 0.65849998E+02  0.79225E+03
 0.65899994E+02  0.67732E+03
 0.65949997E+02  0.10227E+04
 0.65999992E+02  0.10620E+04
 0.66049995E+02  0.13360E+04
 0.66099998E+02  0.12743E+04
 0.66149994E+02  0.10866E+04
 0.66199997E+02  0.11909E+04
 0.66249992E+02  0.30360E+04
 0.66299995E+02  0.47585E+04
 0.66349998E+02  0.64413E+04
 0.66399994E+02  0.94324E+04
 0.66449997E+02  0.11254E+05
 0.66499992E+02  0.11486E+05
 0.66549995E+02  0.88291E+04
 0.66599998E+02  0.55266E+04
 0.66649994E+02  0.28747E+04
 0.66699997E+02  0.47629E+03
 0.66749992E+02 -0.18342E+02
 0.66799995E+02 -0.39436E+03
 0.66849998E+02 -0.15836E+03
 0.66899994E+02  0.67004E+03
 0.66949997E+02  0.30105E+03
 0.66999992E+02  0.69043E+03
 0.67049995E+02  0.24408E+04
 0.67099998E+02  0.36008E+04
 0.67149994E+02  0.41196E+04
 0.67199997E+02  0.46647E+04
 0.67249992E+02  0.43694E+04
 0.67299995E+02  0.40875E+04
 0.67349998E+02  0.39903E+04
 0.67399994E+02  0.42118E+04
 0.67449997E+02  0.49081E+04
 0.67499992E+02  0.49620E+04
 0.67549995E+02  0.46479E+04
 0.67599998E+02  0.38485E+04
 0.67649994E+02  0.37002E+04
 0.67699997E+02  0.38167E+04
 0.67749992E+02  0.43233E+04
 0.67799995E+02  0.54090E+04
 0.67849998E+02  0.49533E+04
 0.67899994E+02  0.35464E+04
 0.67949997E+02  0.17416E+04
 0.67999992E+02  0.99986E+03
 0.68049995E+02  0.12149E+04
 0.68099998E+02  0.13751E+04
 0.68149994E+02  0.15270E+04
 0.68199997E+02  0.12086E+04
 0.68249992E+02  0.19014E+04
 0.68299995E+02  0.40670E+04
 0.68349998E+02  0.55566E+04
 0.68399994E+02  0.55360E+04
 0.68449997E+02  0.50049E+04
 0.68499992E+02  0.35251E+04
 0.68549995E+02  0.27054E+04
 0.68599998E+02  0.32181E+04
 0.68649994E+02  0.35158E+04
 0.68699997E+02  0.39790E+04
 0.68749992E+02  0.44947E+04
 0.68799995E+02  0.47024E+04
 0.68849998E+02  0.51240E+04
 0.68899994E+02  0.65364E+04
 0.68949997E+02  0.70015E+04
 0.68999992E+02  0.64700E+04
 0.69049995E+02  0.64558E+04
 0.69099998E+02  0.60946E+04
 0.69149994E+02  0.54383E+04
 0.69199997E+02  0.37376E+04
 0.69249992E+02  0.23008E+04
 0.69299995E+02  0.10007E+04
 0.69349998E+02 -0.99819E+03
 0.69399994E+02 -0.12061E+04
 0.69449997E+02 -0.13794E+03
 0.69499992E+02  0.11389E+04
 0.69549995E+02  0.17270E+04
 0.69599998E+02  0.13193E+04
 0.69649994E+02  0.91234E+03
 0.69699997E+02  0.94819E+03
 0.69749992E+02  0.69763E+03
 0.69799995E+02  0.84283E+03
 0.69849998E+02  0.17139E+04
 0.69899994E+02  0.23693E+04
 0.69949997E+02  0.31752E+04
 0.69999992E+02  0.42674E+04
 0.70049995E+02  0.56312E+04
 0.70099998E+02  0.70153E+04
 0.70149994E+02  0.80194E+04
 0.70199997E+02  0.73872E+04
 0.70249992E+02  0.67563E+04
 0.70299995E+02  0.65692E+04
 0.70349998E+02  0.54887E+04
 0.70399994E+02  0.40529E+04
 0.70449997E+02  0.32825E+04
 0.70499992E+02  0.30642E+04
 0.70549995E+02  0.28687E+04
 0.70599998E+02  0.31637E+04
 0.70649994E+02  0.38732E+04
 0.70699997E+02  0.38594E+04
 0.70749992E+02  0.31788E+04
 0.70799995E+02  0.28810E+04
 0.70849998E+02  0.27020E+04
 0.70899994E+02  0.35503E+04
 0.70949997E+02  0.38918E+04
 0.70999992E+02  0.34439E+04
 0.71049995E+02  0.34778E+04
 0.71099998E+02  0.36167E+04
 0.71149994E+02  0.37976E+04
 0.71199997E+02  0.41151E+04
 0.71249992E+02  0.48071E+04
 0.71299995E+02  0.46657E+04
 0.71349998E+02  0.42665E+04
 0.71399994E+02  0.34584E+04
 0.71449997E+02  0.16385E+04
 0.71499992E+02  0.36334E+03
 0.71549995E+02  0.74650E+03
 0.71599998E+02  0.13688E+04
 0.71649994E+02  0.23011E+04
 0.71699997E+02  0.32965E+04
 0.71749992E+02  0.34569E+04
 0.71799995E+02  0.44813E+04
 0.71849998E+02  0.45612E+04
 0.71899994E+02  0.41042E+04
 0.71949997E+02  0.42678E+04
 0.71999992E+02  0.43045E+04
 0.72049995E+02  0.41710E+04
 0.72099998E+02  0.35107E+04
 0.72149994E+02  0.25284E+04
 0.72199997E+02  0.16129E+04
 0.72249992E+02  0.17359E+04
 0.72299995E+02  0.20258E+04
 0.72349998E+02  0.21825E+04
 0.72399994E+02  0.18063E+04
 0.72449997E+02  0.10409E+04
 0.72499992E+02  0.97136E+03
 0.72549995E+02  0.13879E+04
 0.72599998E+02  0.23232E+04
 0.72649994E+02  0.31247E+04
 0.72699997E+02  0.38663E+04
 0.72749992E+02  0.44682E+04
 0.72799995E+02  0.52062E+04
 0.72849998E+02  0.66047E+04
 0.72899994E+02  0.81295E+04
 0.72949997E+02  0.93704E+04
 0.72999992E+02  0.93778E+04
 0.73049995E+02  0.84017E+04
 0.73099998E+02  0.72709E+04
 0.73149994E+02  0.56224E+04
 0.73199997E+02  0.42459E+04
 0.73249992E+02  0.30563E+04
 0.73299995E+02  0.23595E+04
 0.73349998E+02  0.20901E+04
 0.73399994E+02  0.11912E+04
 0.73449997E+02  0.55583E+03
 0.73499992E+02  0.28927E+03
 0.73549995E+02  0.84175E+03
 0.73599998E+02  0.15591E+04
 0.73649994E+02  0.19268E+04
 0.73699997E+02  0.28747E+04
 0.73749992E+02  0.37917E+04
 0.73799995E+02  0.40956E+04
 0.73849998E+02  0.43071E+04
 0.73899994E+02  0.38020E+04
 0.73949997E+02  0.32083E+04
 0.73999992E+02  0.30100E+04
 0.74049995E+02  0.26338E+04
 0.74099998E+02  0.28836E+04
 0.74149994E+02  0.29217E+04
 0.74199997E+02  0.27624E+04
 0.74249992E+02  0.25080E+04
 0.74299995E+02  0.23731E+04
 0.74349998E+02  0.30974E+04
 0.74399994E+02  0.44696E+04
 0.74449997E+02  0.53309E+04
 0.74499992E+02  0.51354E+04
 0.74549995E+02  0.46291E+04
 0.74599998E+02  0.38620E+04
 0.74649994E+02  0.34154E+04
 0.74699997E+02  0.35306E+04
 0.74749992E+02  0.34975E+04
 0.74799995E+02  0.32069E+04
 0.74849998E+02  0.31970E+04
 0.74899994E+02  0.37549E+04
 0.74949997E+02  0.38239E+04
 0.74999992E+02  0.34713E+04
 0.75049995E+02  0.37930E+04
 0.75099998E+02  0.41105E+04
 0.75149994E+02  0.44913E+04
 0.75199997E+02  0.51913E+04
 0.75249992E+02  0.58121E+04
 0.75299995E+02  0.55373E+04
 0.75349998E+02  0.42324E+04
 0.75399994E+02  0.32085E+04
 0.75449997E+02  0.24052E+04
 0.75499992E+02  0.20294E+04
 0.75549995E+02  0.24194E+04
 0.75599998E+02  0.32167E+04
 0.75649994E+02  0.34256E+04
 0.75699997E+02  0.25844E+04
 0.75749992E+02  0.22107E+04
 0.75799995E+02  0.23300E+04
 0.75849998E+02  0.23542E+04
 0.75899994E+02  0.31301E+04
 0.75949997E+02  0.43358E+04
 0.75999992E+02  0.49403E+04
 0.76049995E+02  0.51024E+04
 0.76099998E+02  0.47354E+04
 0.76149994E+02  0.36416E+04
 0.76199997E+02  0.21730E+04
 0.76249992E+02  0.12613E+04
 0.76299995E+02  0.12434E+04
 0.76349998E+02  0.16944E+04
 0.76399994E+02  0.22404E+04
 0.76449997E+02  0.26800E+04
 0.76499992E+02  0.33779E+04
 0.76549995E+02  0.44855E+04
 0.76599998E+02  0.53330E+04
 0.76649994E+02  0.49983E+04
 0.76699997E+02  0.42109E+04
 0.76749992E+02  0.35537E+04
 0.76799995E+02  0.32397E+04
 0.76849998E+02  0.38124E+04
 0.76899994E+02  0.47599E+04
 0.76949997E+02  0.57621E+04
 0.76999992E+02  0.60486E+04
 0.77049995E+02  0.56873E+04
 0.77099998E+02  0.50460E+04
 0.77149994E+02  0.40320E+04
 0.77199997E+02  0.34946E+04
 0.77249992E+02  0.34097E+04
 0.77299995E+02  0.33899E+04
 0.77349998E+02  0.32405E+04
 0.77399994E+02  0.29920E+04
 0.77449997E+02  0.30384E+04
 0.77499992E+02  0.32187E+04
 0.77549995E+02  0.32708E+04
 0.77599998E+02  0.27964E+04
 0.77649994E+02  0.21442E+04
 0.77699997E+02  0.15505E+04
 0.77749992E+02  0.94378E+03
 0.77799995E+02  0.67787E+03
 0.77849998E+02  0.61133E+03
 0.77899994E+02  0.90893E+03
 0.77949997E+02  0.15842E+04
 0.77999992E+02  0.30174E+04
 0.78049995E+02  0.38943E+04
 0.78099998E+02  0.40707E+04
 0.78149994E+02  0.42387E+04
 0.78199997E+02  0.43655E+04
 0.78249992E+02  0.49307E+04
 0.78299995E+02  0.50674E+04
 0.78349998E+02  0.50872E+04
 0.78399994E+02  0.49123E+04
 0.78449997E+02  0.43364E+04
 0.78499992E+02  0.35589E+04
 0.78549995E+02  0.25132E+04
 0.78599998E+02  0.17236E+04
 0.78649994E+02  0.12272E+04
 0.78699997E+02  0.13388E+04
 0.78749992E+02  0.19012E+04
 0.78799995E+02  0.25805E+04
 0.78849998E+02  0.34591E+04
 0.78899994E+02  0.37845E+04
 0.78949997E+02  0.41300E+04
 0.78999992E+02  0.43963E+04
 0.79049995E+02  0.40717E+04
 0.79099998E+02  0.41490E+04
 0.79149994E+02  0.41719E+04
 0.79199997E+02  0.37275E+04
 0.79249992E+02  0.36317E+04
 0.79299995E+02  0.33854E+04
 0.79349998E+02  0.34003E+04
 0.79399994E+02  0.38124E+04
 0.79449997E+02  0.44454E+04
 0.79499992E+02  0.50378E+04
 0.79549995E+02  0.52219E+04
 0.79599998E+02  0.57260E+04
 0.79649994E+02  0.60273E+04
 0.79699997E+02  0.61429E+04
 0.79749992E+02  0.57067E+04
 0.79799995E+02  0.50558E+04
 0.79849998E+02  0.49914E+04
 0.79899994E+02  0.47997E+04
 0.79949997E+02  0.41837E+04
 0.79999992E+02  0.33390E+04
 0.80049995E+02  0.25984E+04
 0.80099998E+02  0.24824E+04
 0.80149994E+02  0.24541E+04
 0.80199997E+02  0.24529E+04
 0.80249992E+02  0.24880E+04
 0.80299995E+02  0.20971E+04
 0.80349998E+02  0.19167E+04
 0.80399994E+02  0.18635E+04
 0.80449997E+02  0.20133E+04
 0.80499992E+02  0.26552E+04
 0.80549995E+02  0.31960E+04
 0.80599998E+02  0.31263E+04
 0.80649994E+02  0.28748E+04
 0.80699997E+02  0.26553E+04
 0.80749992E+02  0.25077E+04
 0.80799995E+02  0.22701E+04
 0.80849998E+02  0.19478E+04
 0.80899994E+02  0.19117E+04
 0.80949997E+02  0.19547E+04
 0.80999992E+02  0.22555E+04
 0.81049995E+02  0.24621E+04
 0.81099998E+02  0.29068E+04
 0.81149994E+02  0.36974E+04
 0.81199997E+02  0.43859E+04
 0.81249992E+02  0.49672E+04
 0.81299995E+02  0.51255E+04
 0.81349998E+02  0.52624E+04
 0.81399994E+02  0.55400E+04
 0.81449997E+02  0.57746E+04
 0.81499992E+02  0.59319E+04
 0.81549995E+02  0.58806E+04
 0.81599998E+02  0.51505E+04
 0.81649994E+02  0.38918E+04
 0.81699997E+02  0.32110E+04
 0.81749992E+02  0.27695E+04
 0.81799995E+02  0.26052E+04
 0.81849998E+02  0.28874E+04
 0.81899994E+02  0.33760E+04
 0.81949997E+02  0.43418E+04
 0.81999992E+02  0.49696E+04
 0.82049995E+02  0.49966E+04
 0.82099998E+02  0.47393E+04
 0.82149994E+02  0.43042E+04
 0.82199997E+02  0.32376E+04
 0.82249992E+02  0.25022E+04
 0.82299995E+02  0.18708E+04
 0.82349998E+02  0.98315E+03
 0.82399994E+02  0.74794E+03
 0.82449997E+02  0.83435E+03
 0.82499992E+02  0.86045E+03
 0.82549995E+02  0.12407E+04
 0.82599998E+02  0.19443E+04
 0.82649994E+02  0.26658E+04
 0.82699997E+02  0.38334E+04
 0.82749992E+02  0.45797E+04
 0.82799995E+02  0.47473E+04
 0.82849998E+02  0.47903E+04
 0.82899994E+02  0.45907E+04
 0.82949997E+02  0.42053E+04
 0.82999992E+02  0.40293E+04
 0.83049995E+02  0.40252E+04
 0.83099998E+02  0.40777E+04
 0.83149994E+02  0.38729E+04
 0.83199997E+02  0.37794E+04
 0.83249992E+02  0.38823E+04
 0.83299995E+02  0.35099E+04
 0.83349998E+02  0.34174E+04
 0.83399994E+02  0.38204E+04
 0.83449997E+02  0.38963E+04
 0.83499992E+02  0.39531E+04
 0.83549995E+02  0.41718E+04
 0.83599998E+02  0.43609E+04
 0.83649994E+02  0.47403E+04
 0.83699997E+02  0.48462E+04
 0.83749992E+02  0.46195E+04
 0.83799995E+02  0.41242E+04
 0.83849998E+02  0.36975E+04
 0.83899994E+02  0.35136E+04
 0.83949997E+02  0.31643E+04
 0.83999992E+02  0.27871E+04
 0.84049995E+02  0.25918E+04
 0.84099998E+02  0.25659E+04
 0.84149994E+02  0.26480E+04
 0.84199997E+02  0.28262E+04
 0.84249992E+02  0.28633E+04
 0.84299995E+02  0.32207E+04
 0.84349998E+02  0.36528E+04
 0.84399994E+02  0.36056E+04
 0.84449997E+02  0.35144E+04
 0.84499992E+02  0.33039E+04
 0.84549995E+02  0.28980E+04
 0.84599998E+02  0.25347E+04
 0.84649994E+02  0.21674E+04
 0.84699997E+02  0.18116E+04
 0.84749992E+02  0.14120E+04
 0.84799995E+02  0.11985E+04
 0.84849998E+02  0.13984E+04
 0.84899994E+02  0.17532E+04
 0.84949997E+02  0.23941E+04
 0.84999992E+02  0.31785E+04
 0.85049995E+02  0.43325E+04
 0.85099998E+02  0.54272E+04
 0.85149994E+02  0.58102E+04
 0.85199997E+02  0.55858E+04
 0.85249992E+02  0.50077E+04
 0.85299995E+02  0.48232E+04
 0.85349998E+02  0.47807E+04
 0.85399994E+02  0.48806E+04
 0.85449997E+02  0.45027E+04
 0.85499992E+02  0.39659E+04
 0.85549995E+02  0.39303E+04
 0.85599998E+02  0.34726E+04
 0.85649994E+02  0.29498E+04
 0.85699997E+02  0.27808E+04
 0.85749992E+02  0.27208E+04
 0.85799995E+02  0.23972E+04
 0.85849998E+02  0.24795E+04
 0.85899994E+02  0.26294E+04
 0.85949997E+02  0.28736E+04
 0.85999992E+02  0.33614E+04
 0.86049995E+02  0.37642E+04
 0.86099998E+02  0.42103E+04
 0.86149994E+02  0.42976E+04
 0.86199997E+02  0.42089E+04
 0.86249992E+02  0.41562E+04
 0.86299995E+02  0.43792E+04
 0.86349998E+02  0.46860E+04
 0.86399994E+02  0.48832E+04
 0.86449997E+02  0.49897E+04
 0.86499992E+02  0.51181E+04
 0.86549995E+02  0.50905E+04
 0.86599998E+02  0.48345E+04
 0.86649994E+02  0.46326E+04
 0.86699997E+02  0.44709E+04
 0.86749992E+02  0.45610E+04
 0.86799995E+02  0.46617E+04
 0.86849998E+02  0.43045E+04
 0.86899994E+02  0.35888E+04
 0.86949997E+02  0.28195E+04
 0.86999992E+02  0.18188E+04
 0.87049995E+02  0.13065E+04
 0.87099998E+02  0.13569E+04
 0.87149994E+02  0.13162E+04
 0.87199997E+02  0.14082E+04
 0.87249992E+02  0.15357E+04
 0.87299995E+02  0.17154E+04
 0.87349998E+02  0.18865E+04
 0.87399994E+02  0.22782E+04
 0.87449997E+02  0.26093E+04
 0.87499992E+02  0.26941E+04
 0.87549995E+02  0.27515E+04
 0.87599991E+02  0.27918E+04
 0.87649994E+02  0.30151E+04
 0.87699997E+02  0.33018E+04
 0.87749992E+02  0.36001E+04
 0.87799995E+02  0.39235E+04
 0.87849991E+02  0.40014E+04
 0.87899994E+02  0.40694E+04
 0.87949997E+02  0.37863E+04
 0.87999992E+02  0.32106E+04
 0.88049995E+02  0.32954E+04
 0.88099991E+02  0.35574E+04
 0.88149994E+02  0.40235E+04
 0.88199997E+02  0.43963E+04
 0.88249992E+02  0.43486E+04
 0.88299995E+02  0.45013E+04
 0.88349991E+02  0.45700E+04
 0.88399994E+02  0.46120E+04
 0.88449997E+02  0.46367E+04
 0.88499992E+02  0.44465E+04
 0.88549995E+02  0.43192E+04
 0.88599991E+02  0.43047E+04
 0.88649994E+02  0.42340E+04
 0.88699997E+02  0.42433E+04
 0.88749992E+02  0.40453E+04
 0.88799995E+02  0.36969E+04
 0.88849991E+02  0.34827E+04
 0.88899994E+02  0.33078E+04
 0.88949997E+02  0.32625E+04
 0.88999992E+02  0.31354E+04
 0.89049995E+02  0.28778E+04
 0.89099991E+02  0.27224E+04
 0.89149994E+02  0.25880E+04
 0.89199997E+02  0.26299E+04
 0.89249992E+02  0.27454E+04
 0.89299995E+02  0.30405E+04
 0.89349991E+02  0.33720E+04
 0.89399994E+02  0.37427E+04
 0.89449997E+02  0.39879E+04
 0.89499992E+02  0.38523E+04
 0.89549995E+02  0.39686E+04
 0.89599991E+02  0.40325E+04
 0.89649994E+02  0.41190E+04
 0.89699997E+02  0.39687E+04
 0.89749992E+02  0.39754E+04
 0.89799995E+02  0.39277E+04
 0.89849991E+02  0.38408E+04
 0.89899994E+02  0.38918E+04
 0.89949997E+02  0.35624E+04
 0.89999992E+02  0.31090E+04
 0.90049995E+02  0.26688E+04
 0.90099991E+02  0.27319E+04
 0.90149994E+02  0.29416E+04
 0.90199997E+02  0.31947E+04
 0.90249992E+02  0.29912E+04
 0.90299995E+02  0.26813E+04
 0.90349991E+02  0.26266E+04
 0.90399994E+02  0.26747E+04
 0.90449997E+02  0.29914E+04
 0.90499992E+02  0.33099E+04
 0.90549995E+02  0.36301E+04
 0.90599991E+02  0.39909E+04
 0.90649994E+02  0.43576E+04
 0.90699997E+02  0.43583E+04
 0.90749992E+02  0.38358E+04
 0.90799995E+02  0.29402E+04
 0.90849991E+02  0.22494E+04
 0.90899994E+02  0.18692E+04
 0.90949997E+02  0.20243E+04
 0.90999992E+02  0.23330E+04
 0.91049995E+02  0.25338E+04
 0.91099991E+02  0.30980E+04
 0.91149994E+02  0.39368E+04
 0.91199997E+02  0.45254E+04
 0.91249992E+02  0.46894E+04
 0.91299995E+02  0.46053E+04
 0.91349991E+02  0.44248E+04
 0.91399994E+02  0.43720E+04
 0.91449997E+02  0.41414E+04
 0.91499992E+02  0.39684E+04
 0.91549995E+02  0.40647E+04
 0.91599991E+02  0.40731E+04
 0.91649994E+02  0.38682E+04
 0.91699997E+02  0.37474E+04
 0.91749992E+02  0.37609E+04
 0.91799995E+02  0.40084E+04
 0.91849991E+02  0.43755E+04
 0.91899994E+02  0.45387E+04
 0.91949997E+02  0.44881E+04
 0.91999992E+02  0.45935E+04
 0.92049995E+02  0.46923E+04
 0.92099991E+02  0.45553E+04
 0.92149994E+02  0.46253E+04
 0.92199997E+02  0.42252E+04
 0.92249992E+02  0.38701E+04
 0.92299995E+02  0.38594E+04
 0.92349991E+02  0.35095E+04
 0.92399994E+02  0.30429E+04
 0.92449997E+02  0.24706E+04
 0.92499992E+02  0.21453E+04
 0.92549995E+02  0.18650E+04
 0.92599991E+02  0.13865E+04
 0.92649994E+02  0.11010E+04
 0.92699997E+02  0.12450E+04
 0.92749992E+02  0.16151E+04
 0.92799995E+02  0.20326E+04
 0.92849991E+02  0.23163E+04
 0.92899994E+02  0.24303E+04
 0.92949997E+02  0.24225E+04
 0.92999992E+02  0.25847E+04
 0.93049995E+02  0.29454E+04
 0.93099991E+02  0.32419E+04
 0.93149994E+02  0.34500E+04
 0.93199997E+02  0.35958E+04
 0.93249992E+02  0.39957E+04
 0.93299995E+02  0.45077E+04
 0.93349991E+02  0.49897E+04
 0.93399994E+02  0.52442E+04
 0.93449997E+02  0.51460E+04
 0.93499992E+02  0.47035E+04
 0.93549995E+02  0.42302E+04
 0.93599991E+02  0.37359E+04
 0.93649994E+02  0.32528E+04
 0.93699997E+02  0.30137E+04
 0.93749992E+02  0.29029E+04
 0.93799995E+02  0.29167E+04
 0.93849991E+02  0.31774E+04
 0.93899994E+02  0.34935E+04
 0.93949997E+02  0.37815E+04
 0.93999992E+02  0.41495E+04
 0.94049995E+02  0.44202E+04
 0.94099991E+02  0.46184E+04
 0.94149994E+02  0.45401E+04
 0.94199997E+02  0.43922E+04
 0.94249992E+02  0.42771E+04
 0.94299995E+02  0.42391E+04
 0.94349991E+02  0.41942E+04
 0.94399994E+02  0.38146E+04
 0.94449997E+02  0.34378E+04
 0.94499992E+02  0.31628E+04
 0.94549995E+02  0.33318E+04
 0.94599991E+02  0.35993E+04
 0.94649994E+02  0.36108E+04
 0.94699997E+02  0.35128E+04
 0.94749992E+02  0.33895E+04
 0.94799995E+02  0.33421E+04
 0.94849991E+02  0.33122E+04
 0.94899994E+02  0.32198E+04
 0.94949997E+02  0.30665E+04
 0.94999992E+02  0.29598E+04
 0.95049995E+02  0.28722E+04
 0.95099991E+02  0.27787E+04
 0.95149994E+02  0.28326E+04
 0.95199997E+02  0.29720E+04
 0.95249992E+02  0.30213E+04
 0.95299995E+02  0.31007E+04
 0.95349991E+02  0.30861E+04
 0.95399994E+02  0.32683E+04
 0.95449997E+02  0.36662E+04
 0.95499992E+02  0.40306E+04
 0.95549995E+02  0.42388E+04
 0.95599991E+02  0.43666E+04
 0.95649994E+02  0.44534E+04
 0.95699997E+02  0.43837E+04
 0.95749992E+02  0.42238E+04
 0.95799995E+02  0.39871E+04
 0.95849991E+02  0.38132E+04
 0.95899994E+02  0.35650E+04
 0.95949997E+02  0.30976E+04
 0.95999992E+02  0.27581E+04
 0.96049995E+02  0.24751E+04
 0.96099991E+02  0.23311E+04
 0.96149994E+02  0.22115E+04
 0.96199997E+02  0.21102E+04
 0.96249992E+02  0.22095E+04
 0.96299995E+02  0.23545E+04
 0.96349991E+02  0.26453E+04
 0.96399994E+02  0.30944E+04
 0.96449997E+02  0.36184E+04
 0.96499992E+02  0.40191E+04
 0.96549995E+02  0.43194E+04
 0.96599991E+02  0.44274E+04
 0.96649994E+02  0.43832E+04
 0.96699997E+02  0.43783E+04
 0.96749992E+02  0.44208E+04
 0.96799995E+02  0.46072E+04
 0.96849991E+02  0.44852E+04
 0.96899994E+02  0.42483E+04
 0.96949997E+02  0.41219E+04
 0.96999992E+02  0.37736E+04
 0.97049995E+02  0.35336E+04
 0.97099991E+02  0.34749E+04
 0.97149994E+02  0.35011E+04
 0.97199997E+02  0.36798E+04
 0.97249992E+02  0.35516E+04
 0.97299995E+02  0.35376E+04
 0.97349991E+02  0.38220E+04
 0.97399994E+02  0.38772E+04
 0.97449997E+02  0.36935E+04
 0.97499992E+02  0.29224E+04
 0.97549995E+02  0.22679E+04
 0.97599991E+02  0.18597E+04
 0.97649994E+02  0.18530E+04
 0.97699997E+02  0.21614E+04
 0.97749992E+02  0.25387E+04
 0.97799995E+02  0.29420E+04
 0.97849991E+02  0.32551E+04
 0.97899994E+02  0.35636E+04
 0.97949997E+02  0.37313E+04
 0.97999992E+02  0.38704E+04
