-0.20000000E+01 -0.23076E+05
-0.19500000E+01 -0.24162E+05
-0.19000000E+01 -0.25482E+05
-0.18500000E+01 -0.27052E+05
-0.18000000E+01 -0.28619E+05
-0.17500000E+01 -0.30139E+05
-0.17000000E+01 -0.31537E+05
-0.16500001E+01 -0.32791E+05
-0.16000000E+01 -0.33848E+05
-0.15500000E+01 -0.34681E+05
-0.15000000E+01 -0.35137E+05
-0.14500000E+01 -0.34987E+05
-0.14000001E+01 -0.34156E+05
-0.13500000E+01 -0.32632E+05
-0.13000001E+01 -0.30416E+05
-0.12500000E+01 -0.27476E+05
-0.12000000E+01 -0.23810E+05
-0.11500001E+01 -0.19515E+05
-0.11000000E+01 -0.14862E+05
-0.10500001E+01 -0.10226E+05
-0.10000000E+01 -0.58937E+04
-0.95000005E+00 -0.20754E+04
-0.90000010E+00  0.11016E+04
-0.85000002E+00  0.36532E+04
-0.80000007E+00  0.56182E+04
-0.75000012E+00  0.70954E+04
-0.70000005E+00  0.82838E+04
-0.65000010E+00  0.94210E+04
-0.60000014E+00  0.10647E+05
-0.55000007E+00  0.11885E+05
-0.50000012E+00  0.12870E+05
-0.45000005E+00  0.13448E+05
-0.40000010E+00  0.13758E+05
-0.35000014E+00  0.14064E+05
-0.30000007E+00  0.14539E+05
-0.25000012E+00  0.15259E+05
-0.20000005E+00  0.16197E+05
-0.15000010E+00  0.17225E+05
-0.10000014E+00  0.18153E+05
-0.50000072E-01  0.18877E+05
-0.11920929E-06  0.19433E+05
 0.49999952E-01  0.19753E+05
 0.99999905E-01  0.19799E+05
 0.14999986E+00  0.19652E+05
 0.19999981E+00  0.19465E+05
 0.24999976E+00  0.19171E+05
 0.29999995E+00  0.18566E+05
 0.34999990E+00  0.17534E+05
 0.39999986E+00  0.16026E+05
 0.44999981E+00  0.14273E+05
 0.49999976E+00  0.12509E+05
 0.54999995E+00  0.10920E+05
 0.59999990E+00  0.95033E+04
 0.64999986E+00  0.82043E+04
 0.69999981E+00  0.69232E+04
 0.74999976E+00  0.55918E+04
 0.79999971E+00  0.42714E+04
 0.84999990E+00  0.30493E+04
 0.89999986E+00  0.20526E+04
 0.94999981E+00  0.13073E+04
 0.99999976E+00  0.87652E+03
 0.10499997E+01  0.69367E+03
 0.10999999E+01  0.58587E+03
 0.11499999E+01  0.31745E+03
 0.11999998E+01 -0.28474E+03
 0.12499998E+01 -0.11981E+04
 0.12999997E+01 -0.21656E+04
 0.13499999E+01 -0.29115E+04
 0.13999999E+01 -0.33652E+04
 0.14499998E+01 -0.36390E+04
 0.14999998E+01 -0.37523E+04
 0.15499997E+01 -0.35536E+04
 0.15999999E+01 -0.30109E+04
 0.16499999E+01 -0.22804E+04
 0.16999998E+01 -0.16125E+04
 0.17499998E+01 -0.11637E+04
 0.17999997E+01 -0.10680E+04
 0.18499997E+01 -0.13278E+04
 0.18999999E+01 -0.18933E+04
 0.19499998E+01 -0.27128E+04
 0.19999998E+01 -0.37058E+04
 0.20499997E+01 -0.47349E+04
 0.20999999E+01 -0.55164E+04
 0.21499996E+01 -0.58481E+04
 0.21999998E+01 -0.57869E+04
 0.22499995E+01 -0.55900E+04
 0.22999997E+01 -0.53952E+04
 0.23499999E+01 -0.52748E+04
 0.23999996E+01 -0.53238E+04
 0.24499998E+01 -0.54827E+04
 0.24999995E+01 -0.56011E+04
 0.25499997E+01 -0.54819E+04
 0.25999999E+01 -0.49039E+04
 0.26499996E+01 -0.37883E+04
 0.26999998E+01 -0.22760E+04
 0.27499995E+01 -0.54278E+03
 0.27999997E+01  0.12356E+04
 0.28499999E+01  0.28641E+04
 0.28999996E+01  0.42725E+04
 0.29499998E+01  0.55101E+04
 0.29999995E+01  0.66470E+04
 0.30499997E+01  0.77397E+04
 0.30999999E+01  0.89365E+04
 0.31499996E+01  0.10297E+05
 0.31999998E+01  0.11764E+05
 0.32499995E+01  0.13267E+05
 0.32999997E+01  0.14689E+05
 0.33499999E+01  0.15926E+05
 0.33999996E+01  0.16785E+05
 0.34499998E+01  0.17030E+05
 0.34999995E+01  0.16633E+05
 0.35499997E+01  0.15744E+05
 0.35999994E+01  0.14451E+05
 0.36499996E+01  0.12863E+05
 0.36999998E+01  0.11031E+05
 0.37499995E+01  0.89840E+04
 0.37999997E+01  0.67956E+04
 0.38499994E+01  0.44948E+04
 0.38999996E+01  0.21144E+04
 0.39499998E+01 -0.31476E+03
 0.39999995E+01 -0.27209E+04
 0.40499997E+01 -0.50182E+04
 0.40999994E+01 -0.72116E+04
 0.41499996E+01 -0.93663E+04
 0.41999998E+01 -0.11426E+05
 0.42499995E+01 -0.13239E+05
 0.42999997E+01 -0.14700E+05
 0.43499994E+01 -0.15743E+05
 0.43999996E+01 -0.16371E+05
 0.44499998E+01 -0.16659E+05
 0.44999995E+01 -0.16705E+05
 0.45499997E+01 -0.16592E+05
 0.45999994E+01 -0.16263E+05
 0.46499996E+01 -0.15702E+05
 0.46999998E+01 -0.15019E+05
 0.47499995E+01 -0.14226E+05
 0.47999997E+01 -0.13413E+05
 0.48499994E+01 -0.12675E+05
 0.48999996E+01 -0.12025E+05
 0.49499998E+01 -0.11428E+05
 0.49999995E+01 -0.10778E+05
 0.50499997E+01 -0.10064E+05
 0.50999994E+01 -0.91976E+04
 0.51499996E+01 -0.81410E+04
 0.51999998E+01 -0.69523E+04
 0.52499995E+01 -0.57100E+04
 0.52999997E+01 -0.45012E+04
 0.53499994E+01 -0.33537E+04
 0.53999996E+01 -0.23057E+04
 0.54499993E+01 -0.13920E+04
 0.54999995E+01 -0.70210E+03
 0.55499997E+01 -0.16377E+03
 0.55999994E+01  0.30598E+03
 0.56499996E+01  0.75035E+03
 0.56999993E+01  0.13118E+04
 0.57499995E+01  0.20388E+04
 0.57999997E+01  0.28865E+04
 0.58499994E+01  0.36781E+04
 0.58999996E+01  0.42248E+04
 0.59499993E+01  0.44339E+04
 0.59999995E+01  0.41854E+04
 0.60499992E+01  0.34324E+04
 0.60999994E+01  0.23543E+04
 0.61499996E+01  0.12868E+04
 0.61999998E+01  0.48083E+03
 0.62499990E+01 -0.17129E+02
 0.62999992E+01 -0.26015E+03
 0.63499994E+01 -0.35331E+03
 0.63999996E+01 -0.41765E+03
 0.64499998E+01 -0.57203E+03
 0.64999990E+01 -0.78502E+03
 0.65499992E+01 -0.11043E+04
 0.65999994E+01 -0.16026E+04
 0.66499996E+01 -0.22008E+04
 0.66999998E+01 -0.27880E+04
 0.67499990E+01 -0.32188E+04
 0.67999992E+01 -0.35016E+04
 0.68499994E+01 -0.37289E+04
 0.68999996E+01 -0.39473E+04
 0.69499998E+01 -0.40259E+04
 0.69999990E+01 -0.39124E+04
 0.70499992E+01 -0.36997E+04
 0.70999994E+01 -0.34947E+04
 0.71499996E+01 -0.34011E+04
 0.71999998E+01 -0.33951E+04
 0.72499990E+01 -0.33909E+04
 0.72999992E+01 -0.33064E+04
 0.73499994E+01 -0.30579E+04
 0.73999996E+01 -0.26222E+04
 0.74499998E+01 -0.20537E+04
 0.74999990E+01 -0.13717E+04
 0.75499992E+01 -0.63080E+03
 0.75999994E+01  0.66880E+02
 0.76499996E+01  0.62420E+03
 0.76999998E+01  0.10491E+04
 0.77499990E+01  0.13453E+04
 0.77999992E+01  0.15884E+04
 0.78499994E+01  0.19404E+04
 0.78999996E+01  0.24785E+04
 0.79499998E+01  0.33279E+04
 0.79999990E+01  0.44918E+04
 0.80499992E+01  0.58388E+04
 0.80999994E+01  0.73054E+04
 0.81499996E+01  0.88385E+04
 0.81999998E+01  0.10459E+05
 0.82499990E+01  0.12183E+05
 0.82999992E+01  0.13971E+05
 0.83499994E+01  0.15646E+05
 0.83999996E+01  0.17004E+05
 0.84499998E+01  0.17953E+05
 0.84999990E+01  0.18491E+05
 0.85499992E+01  0.18746E+05
 0.85999994E+01  0.18693E+05
 0.86499996E+01  0.18305E+05
 0.86999998E+01  0.17571E+05
 0.87499990E+01  0.16494E+05
 0.87999992E+01  0.15062E+05
 0.88499994E+01  0.13312E+05
 0.88999996E+01  0.11380E+05
 0.89499998E+01  0.93100E+04
 0.89999990E+01  0.70441E+04
 0.90499992E+01  0.45504E+04
 0.90999994E+01  0.19656E+04
 0.91499996E+01 -0.49226E+03
 0.91999989E+01 -0.24966E+04
 0.92499990E+01 -0.38438E+04
 0.92999992E+01 -0.45129E+04
 0.93499994E+01 -0.46396E+04
 0.93999996E+01 -0.44826E+04
 0.94499989E+01 -0.41536E+04
 0.94999990E+01 -0.36292E+04
 0.95499992E+01 -0.28527E+04
 0.95999994E+01 -0.18312E+04
 0.96499996E+01 -0.66504E+03
 0.96999989E+01  0.49863E+03
 0.97499990E+01  0.16307E+04
 0.97999992E+01  0.27309E+04
 0.98499994E+01  0.37239E+04
 0.98999996E+01  0.46403E+04
 0.99499989E+01  0.54285E+04
 0.99999990E+01  0.59939E+04
 0.10049999E+02  0.63329E+04
 0.10099999E+02  0.64669E+04
 0.10150000E+02  0.63943E+04
 0.10199999E+02  0.60176E+04
 0.10249999E+02  0.52516E+04
 0.10299999E+02  0.41005E+04
 0.10349999E+02  0.27177E+04
 0.10400000E+02  0.13258E+04
 0.10449999E+02  0.68108E+02
 0.10499999E+02 -0.98643E+03
 0.10549999E+02 -0.18945E+04
 0.10599999E+02 -0.28563E+04
 0.10650000E+02 -0.40235E+04
 0.10699999E+02 -0.53654E+04
 0.10749999E+02 -0.67499E+04
 0.10799999E+02 -0.79618E+04
 0.10849999E+02 -0.88693E+04
 0.10900000E+02 -0.94565E+04
 0.10949999E+02 -0.97525E+04
 0.10999999E+02 -0.98498E+04
 0.11049999E+02 -0.97366E+04
 0.11099999E+02 -0.93858E+04
 0.11150000E+02 -0.88177E+04
 0.11199999E+02 -0.81013E+04
 0.11249999E+02 -0.74073E+04
 0.11299999E+02 -0.69495E+04
 0.11349999E+02 -0.68862E+04
 0.11400000E+02 -0.72536E+04
 0.11449999E+02 -0.79857E+04
 0.11499999E+02 -0.89793E+04
 0.11549999E+02 -0.10134E+05
 0.11599999E+02 -0.11265E+05
 0.11650000E+02 -0.12178E+05
 0.11699999E+02 -0.12657E+05
 0.11749999E+02 -0.12527E+05
 0.11799999E+02 -0.11793E+05
 0.11849999E+02 -0.10522E+05
 0.11900000E+02 -0.88811E+04
 0.11949999E+02 -0.70144E+04
 0.11999999E+02 -0.49610E+04
 0.12049999E+02 -0.26217E+04
 0.12099999E+02  0.89996E+02
 0.12150000E+02  0.31414E+04
 0.12199999E+02  0.63117E+04
 0.12249999E+02  0.93064E+04
 0.12299999E+02  0.11900E+05
 0.12349999E+02  0.13881E+05
 0.12400000E+02  0.15146E+05
 0.12449999E+02  0.15631E+05
 0.12499999E+02  0.15405E+05
 0.12549999E+02  0.14676E+05
 0.12599999E+02  0.13720E+05
 0.12649999E+02  0.12685E+05
 0.12699999E+02  0.11608E+05
 0.12749999E+02  0.10429E+05
 0.12799999E+02  0.90464E+04
 0.12849999E+02  0.74734E+04
 0.12899999E+02  0.57662E+04
 0.12949999E+02  0.40216E+04
 0.12999999E+02  0.23830E+04
 0.13049999E+02  0.96514E+03
 0.13099999E+02 -0.16676E+03
 0.13149999E+02 -0.99926E+03
 0.13199999E+02 -0.15531E+04
 0.13249999E+02 -0.19878E+04
 0.13299999E+02 -0.24479E+04
 0.13349999E+02 -0.29804E+04
 0.13399999E+02 -0.35444E+04
 0.13449999E+02 -0.40558E+04
 0.13499999E+02 -0.44884E+04
 0.13549999E+02 -0.48271E+04
 0.13599999E+02 -0.51138E+04
 0.13649999E+02 -0.53265E+04
 0.13699999E+02 -0.54352E+04
 0.13749999E+02 -0.53485E+04
 0.13799999E+02 -0.50360E+04
 0.13849999E+02 -0.45466E+04
 0.13899999E+02 -0.39495E+04
 0.13949999E+02 -0.33296E+04
 0.13999999E+02 -0.26871E+04
 0.14049999E+02 -0.20982E+04
 0.14099998E+02 -0.17106E+04
 0.14150000E+02 -0.15470E+04
 0.14199999E+02 -0.15198E+04
 0.14249998E+02 -0.15023E+04
 0.14299999E+02 -0.14569E+04
 0.14349998E+02 -0.14080E+04
 0.14400000E+02 -0.13911E+04
 0.14449999E+02 -0.14434E+04
 0.14499998E+02 -0.15356E+04
 0.14549999E+02 -0.16726E+04
 0.14599998E+02 -0.19368E+04
 0.14650000E+02 -0.23593E+04
 0.14699999E+02 -0.28423E+04
 0.14749998E+02 -0.33478E+04
 0.14799999E+02 -0.38186E+04
 0.14849998E+02 -0.42116E+04
 0.14900000E+02 -0.44328E+04
 0.14949999E+02 -0.43645E+04
 0.14999998E+02 -0.40319E+04
 0.15049999E+02 -0.34529E+04
 0.15099998E+02 -0.26379E+04
 0.15150000E+02 -0.16430E+04
 0.15199999E+02 -0.54449E+03
 0.15249998E+02  0.56825E+03
 0.15299999E+02  0.16192E+04
 0.15349998E+02  0.25565E+04
 0.15400000E+02  0.33624E+04
 0.15449999E+02  0.40848E+04
 0.15499998E+02  0.47156E+04
 0.15549999E+02  0.51662E+04
 0.15599998E+02  0.53733E+04
 0.15650000E+02  0.52443E+04
 0.15699999E+02  0.47245E+04
 0.15749998E+02  0.38966E+04
 0.15799999E+02  0.28762E+04
 0.15849998E+02  0.17409E+04
 0.15900000E+02  0.50569E+03
 0.15949999E+02 -0.91861E+03
 0.15999998E+02 -0.25157E+04
 0.16049999E+02 -0.41284E+04
 0.16099998E+02 -0.56253E+04
 0.16150000E+02 -0.68535E+04
 0.16199999E+02 -0.77852E+04
 0.16249998E+02 -0.85414E+04
 0.16299999E+02 -0.91684E+04
 0.16349998E+02 -0.95781E+04
 0.16400000E+02 -0.96082E+04
 0.16449999E+02 -0.91936E+04
 0.16499998E+02 -0.83603E+04
 0.16549999E+02 -0.72201E+04
 0.16599998E+02 -0.59045E+04
 0.16650000E+02 -0.44711E+04
 0.16699999E+02 -0.30146E+04
 0.16749998E+02 -0.15963E+04
 0.16799999E+02 -0.23015E+03
 0.16849998E+02  0.11196E+04
 0.16900000E+02  0.25103E+04
 0.16949999E+02  0.38639E+04
 0.16999998E+02  0.49646E+04
 0.17049999E+02  0.56558E+04
 0.17099998E+02  0.58774E+04
 0.17150000E+02  0.56034E+04
 0.17199999E+02  0.49041E+04
 0.17249998E+02  0.38884E+04
 0.17299999E+02  0.26522E+04
 0.17349998E+02  0.12643E+04
 0.17400000E+02 -0.28191E+03
 0.17449999E+02 -0.20039E+04
 0.17499998E+02 -0.38112E+04
 0.17549999E+02 -0.54690E+04
 0.17599998E+02 -0.67416E+04
 0.17650000E+02 -0.75591E+04
 0.17699999E+02 -0.79367E+04
 0.17749998E+02 -0.78813E+04
 0.17799999E+02 -0.72981E+04
 0.17849998E+02 -0.61037E+04
 0.17900000E+02 -0.45179E+04
 0.17949999E+02 -0.28310E+04
 0.17999998E+02 -0.12015E+04
 0.18049999E+02  0.32796E+03
 0.18099998E+02  0.16830E+04
 0.18150000E+02  0.27535E+04
 0.18199999E+02  0.35847E+04
 0.18249998E+02  0.43439E+04
 0.18299999E+02  0.52318E+04
 0.18349998E+02  0.62585E+04
 0.18400000E+02  0.72203E+04
 0.18449999E+02  0.79599E+04
 0.18499998E+02  0.82971E+04
 0.18549999E+02  0.81372E+04
 0.18599998E+02  0.74379E+04
 0.18650000E+02  0.62043E+04
 0.18699999E+02  0.46551E+04
 0.18749998E+02  0.30083E+04
 0.18799999E+02  0.14995E+04
 0.18849998E+02  0.22182E+03
 0.18900000E+02 -0.88833E+03
 0.18949999E+02 -0.18742E+04
 0.18999998E+02 -0.27939E+04
 0.19049999E+02 -0.36552E+04
 0.19099998E+02 -0.43969E+04
 0.19150000E+02 -0.49484E+04
 0.19199999E+02 -0.52603E+04
 0.19249998E+02 -0.53464E+04
 0.19299999E+02 -0.52719E+04
 0.19349998E+02 -0.50524E+04
 0.19400000E+02 -0.46674E+04
 0.19449999E+02 -0.41589E+04
 0.19499998E+02 -0.35756E+04
 0.19549999E+02 -0.29989E+04
 0.19599998E+02 -0.24253E+04
 0.19650000E+02 -0.17895E+04
 0.19699999E+02 -0.10553E+04
 0.19749998E+02 -0.27373E+03
 0.19799999E+02  0.40362E+03
 0.19849998E+02  0.93980E+03
 0.19900000E+02  0.12337E+04
 0.19949999E+02  0.13112E+04
 0.19999998E+02  0.12544E+04
 0.20049999E+02  0.11148E+04
 0.20099998E+02  0.88248E+03
 0.20150000E+02  0.55112E+03
 0.20199999E+02  0.23916E+03
 0.20249998E+02  0.77732E+02
 0.20299999E+02  0.41240E+02
 0.20349998E+02 -0.59082E+02
 0.20399998E+02 -0.33370E+03
 0.20449999E+02 -0.79150E+03
 0.20499998E+02 -0.13718E+04
 0.20549999E+02 -0.20870E+04
 0.20599998E+02 -0.28446E+04
 0.20649998E+02 -0.35572E+04
 0.20699999E+02 -0.40615E+04
 0.20749998E+02 -0.41818E+04
 0.20799999E+02 -0.37884E+04
 0.20849998E+02 -0.28036E+04
 0.20899998E+02 -0.13741E+04
 0.20949999E+02  0.23923E+03
 0.20999998E+02  0.17701E+04
 0.21049999E+02  0.29978E+04
 0.21099998E+02  0.38009E+04
 0.21149998E+02  0.42064E+04
 0.21199999E+02  0.42379E+04
 0.21249998E+02  0.39775E+04
 0.21299999E+02  0.34374E+04
 0.21349998E+02  0.26743E+04
 0.21399998E+02  0.18336E+04
 0.21449999E+02  0.10723E+04
 0.21499998E+02  0.40301E+03
 0.21549999E+02 -0.26917E+03
 0.21599998E+02 -0.92619E+03
 0.21649998E+02 -0.14848E+04
 0.21699999E+02 -0.18257E+04
 0.21749998E+02 -0.20224E+04
 0.21799999E+02 -0.21780E+04
 0.21849998E+02 -0.23831E+04
 0.21899998E+02 -0.26513E+04
 0.21949999E+02 -0.28897E+04
 0.21999998E+02 -0.30514E+04
 0.22049999E+02 -0.31002E+04
 0.22099998E+02 -0.30160E+04
 0.22149998E+02 -0.27909E+04
 0.22199999E+02 -0.24539E+04
 0.22249998E+02 -0.20084E+04
 0.22299999E+02 -0.14969E+04
 0.22349998E+02 -0.10527E+04
 0.22399998E+02 -0.75272E+03
 0.22449999E+02 -0.64512E+03
 0.22499998E+02 -0.74784E+03
 0.22549999E+02 -0.98201E+03
 0.22599998E+02 -0.13220E+04
 0.22649998E+02 -0.17617E+04
 0.22699999E+02 -0.23379E+04
 0.22749998E+02 -0.30922E+04
 0.22799999E+02 -0.39626E+04
 0.22849998E+02 -0.48789E+04
 0.22899998E+02 -0.57182E+04
 0.22949999E+02 -0.64009E+04
 0.22999998E+02 -0.68991E+04
 0.23049999E+02 -0.72126E+04
 0.23099998E+02 -0.74698E+04
 0.23149998E+02 -0.77472E+04
 0.23199999E+02 -0.81976E+04
 0.23249998E+02 -0.87876E+04
 0.23299999E+02 -0.95401E+04
 0.23349998E+02 -0.10351E+05
 0.23399998E+02 -0.11099E+05
 0.23449999E+02 -0.11615E+05
 0.23499998E+02 -0.11854E+05
 0.23549999E+02 -0.11783E+05
 0.23599998E+02 -0.11517E+05
 0.23649998E+02 -0.11009E+05
 0.23699999E+02 -0.10283E+05
 0.23749998E+02 -0.93934E+04
 0.23799999E+02 -0.82886E+04
 0.23849998E+02 -0.70594E+04
 0.23899998E+02 -0.55709E+04
 0.23949999E+02 -0.38496E+04
 0.23999998E+02 -0.20247E+04
 0.24049999E+02 -0.38781E+03
 0.24099998E+02  0.13777E+04
 0.24149998E+02  0.32077E+04
 0.24199999E+02  0.46574E+04
 0.24249998E+02  0.63677E+04
 0.24299999E+02  0.79327E+04
 0.24349998E+02  0.96969E+04
 0.24399998E+02  0.10888E+05
 0.24449999E+02  0.10950E+05
 0.24499998E+02  0.10641E+05
 0.24549999E+02  0.99222E+04
 0.24599998E+02  0.10512E+05
 0.24649998E+02  0.98892E+04
 0.24699999E+02  0.84573E+04
 0.24749998E+02  0.43566E+04
 0.24799999E+02  0.16051E+04
 0.24849998E+02 -0.24838E+04
 0.24899998E+02 -0.53950E+04
 0.24949999E+02 -0.91600E+04
 0.24999998E+02 -0.16091E+05
 0.25049999E+02 -0.17852E+05
 0.25099998E+02 -0.17378E+05
 0.25149998E+02 -0.19367E+05
 0.25199999E+02 -0.24570E+05
 0.25249998E+02 -0.25784E+05
 0.25299999E+02 -0.28190E+05
 0.25349998E+02 -0.28156E+05
 0.25399998E+02 -0.31379E+05
 0.25449999E+02 -0.32205E+05
 0.25499998E+02 -0.38138E+05
 0.25549999E+02 -0.47595E+05
 0.25599998E+02 -0.43346E+05
 0.25649998E+02 -0.41938E+05
 0.25699999E+02 -0.44727E+05
 0.25749998E+02 -0.42425E+05
 0.25799999E+02 -0.40241E+05
 0.25849998E+02 -0.43321E+05
 0.25899998E+02 -0.43623E+05
 0.25949999E+02 -0.38520E+05
 0.25999998E+02 -0.25941E+05
 0.26049999E+02 -0.29539E+05
 0.26099998E+02 -0.39464E+05
 0.26149998E+02 -0.33002E+05
 0.26199999E+02 -0.20010E+05
 0.26249998E+02 -0.41118E+04
 0.26299999E+02  0.34390E+04
 0.26349998E+02  0.14225E+05
 0.26399998E+02  0.32088E+05
 0.26449999E+02  0.52309E+05
 0.26499998E+02  0.75629E+05
 0.26549999E+02  0.10516E+06
 0.26599998E+02  0.12923E+06
 0.26649998E+02  0.15240E+06
 0.26699999E+02  0.18107E+06
 0.26749998E+02  0.19536E+06
 0.26799999E+02  0.19436E+06
 0.26849998E+02  0.19106E+06
 0.26899998E+02  0.19478E+06
 0.26949999E+02  0.19520E+06
 0.26999998E+02  0.18414E+06
 0.27049997E+02  0.14572E+06
 0.27099998E+02  0.91022E+05
 0.27149998E+02  0.32567E+05
 0.27199999E+02  0.23842E+05
 0.27249998E+02  0.20888E+05
 0.27299997E+02 -0.27506E+05
 0.27349998E+02 -0.88861E+05
 0.27399998E+02 -0.11621E+06
 0.27449999E+02 -0.79657E+05
 0.27499998E+02 -0.67202E+05
 0.27549997E+02 -0.88372E+05
 0.27599998E+02 -0.10705E+06
 0.27649998E+02 -0.84476E+05
 0.27699999E+02 -0.67281E+05
 0.27749998E+02 -0.74437E+05
 0.27799997E+02 -0.95137E+05
 0.27849998E+02 -0.12148E+06
 0.27899998E+02 -0.10570E+06
 0.27949999E+02 -0.92841E+05
 0.27999998E+02 -0.84331E+05
 0.28049997E+02 -0.78930E+05
 0.28099998E+02 -0.82800E+05
 0.28149998E+02 -0.59254E+05
 0.28199999E+02 -0.59783E+05
 0.28249998E+02 -0.76536E+05
 0.28299997E+02 -0.64163E+05
 0.28349998E+02 -0.89429E+05
 0.28399998E+02 -0.69833E+05
 0.28449999E+02 -0.29228E+05
 0.28499998E+02 -0.27200E+05
 0.28549997E+02 -0.39699E+05
 0.28599998E+02 -0.10402E+06
 0.28649998E+02 -0.76513E+05
 0.28699999E+02 -0.23483E+05
 0.28749998E+02 -0.27778E+05
 0.28799997E+02 -0.35225E+05
 0.28849998E+02 -0.37848E+05
 0.28899998E+02  0.22516E+05
 0.28949999E+02  0.86465E+05
 0.28999998E+02  0.12119E+06
 0.29049997E+02  0.14654E+06
 0.29099998E+02  0.18768E+06
 0.29149998E+02  0.23608E+06
 0.29199999E+02  0.25919E+06
 0.29249998E+02  0.25522E+06
 0.29299997E+02  0.25231E+06
 0.29349998E+02  0.24780E+06
 0.29399998E+02  0.25142E+06
 0.29449999E+02  0.27583E+06
 0.29499998E+02  0.26231E+06
 0.29549997E+02  0.23317E+06
 0.29599998E+02  0.19368E+06
 0.29649998E+02  0.17660E+06
 0.29699999E+02  0.17815E+06
 0.29749998E+02  0.12478E+06
 0.29799997E+02  0.82053E+05
 0.29849998E+02  0.88286E+05
 0.29899998E+02  0.13319E+06
 0.29949999E+02  0.16009E+06
 0.29999998E+02  0.17467E+06
 0.30049999E+02  0.15561E+06
 0.30099998E+02  0.97899E+05
 0.30149998E+02  0.44094E+05
 0.30199997E+02  0.87652E+04
 0.30249996E+02  0.16391E+05
 0.30299999E+02 -0.60403E+04
 0.30349998E+02 -0.56101E+05
 0.30399998E+02 -0.62468E+05
 0.30449997E+02 -0.25701E+05
 0.30499996E+02 -0.12595E+05
 0.30549999E+02 -0.24932E+05
 0.30599998E+02 -0.30837E+05
 0.30649998E+02 -0.29475E+05
 0.30699997E+02 -0.72472E+05
 0.30749996E+02 -0.10751E+06
 0.30799999E+02 -0.96258E+05
 0.30849998E+02 -0.64863E+05
 0.30899998E+02 -0.90055E+04
 0.30949997E+02  0.39878E+05
 0.30999996E+02  0.31542E+05
 0.31049999E+02 -0.83942E+04
 0.31099998E+02 -0.40263E+05
 0.31149998E+02 -0.67135E+05
 0.31199997E+02 -0.97622E+05
 0.31249996E+02 -0.15280E+06
 0.31299999E+02 -0.20166E+06
 0.31349998E+02 -0.17017E+06
 0.31399998E+02 -0.36641E+05
 0.31449997E+02  0.10178E+06
 0.31499996E+02  0.22190E+06
 0.31549999E+02  0.25104E+06
 0.31599998E+02  0.22193E+06
 0.31649998E+02  0.18996E+06
 0.31699997E+02  0.16334E+06
 0.31749996E+02  0.18429E+06
 0.31799999E+02  0.23413E+06
 0.31849998E+02  0.27606E+06
 0.31899998E+02  0.24666E+06
 0.31949997E+02  0.17913E+06
 0.31999996E+02  0.13890E+06
 0.32049999E+02  0.11502E+06
 0.32099998E+02  0.72555E+05
 0.32149998E+02  0.28498E+04
 0.32199997E+02 -0.91335E+05
 0.32249996E+02 -0.14186E+06
 0.32299999E+02 -0.11437E+06
 0.32349998E+02 -0.53626E+05
 0.32399998E+02 -0.37675E+05
 0.32449997E+02 -0.92511E+05
 0.32499996E+02 -0.16970E+06
 0.32549999E+02 -0.20124E+06
 0.32599998E+02 -0.17001E+06
 0.32649998E+02 -0.97113E+05
 0.32699997E+02 -0.26010E+05
 0.32749996E+02  0.10064E+05
 0.32799999E+02  0.70241E+05
 0.32849998E+02  0.14938E+06
 0.32899998E+02  0.18837E+06
 0.32949997E+02  0.19645E+06
 0.32999996E+02  0.22172E+06
 0.33049999E+02  0.27710E+06
 0.33099998E+02  0.30660E+06
 0.33149998E+02  0.27605E+06
 0.33199997E+02  0.26264E+06
 0.33249996E+02  0.26799E+06
 0.33299999E+02  0.23476E+06
 0.33349998E+02  0.14837E+06
 0.33399998E+02  0.35377E+05
 0.33449997E+02 -0.66820E+05
 0.33499996E+02 -0.19398E+06
 0.33549999E+02 -0.27103E+06
 0.33599998E+02 -0.28812E+06
 0.33649998E+02 -0.25714E+06
 0.33699997E+02 -0.24484E+06
 0.33749996E+02 -0.27298E+06
 0.33799999E+02 -0.29338E+06
 0.33849998E+02 -0.32272E+06
 0.33899998E+02 -0.32376E+06
 0.33949997E+02 -0.34453E+06
 0.33999996E+02 -0.34843E+06
 0.34049999E+02 -0.33160E+06
 0.34099998E+02 -0.30256E+06
 0.34149998E+02 -0.25879E+06
 0.34199997E+02 -0.22605E+06
 0.34249996E+02 -0.20090E+06
 0.34299999E+02 -0.18846E+06
 0.34349998E+02 -0.18083E+06
 0.34399998E+02 -0.18334E+06
 0.34449997E+02 -0.16894E+06
 0.34499996E+02 -0.13230E+06
 0.34549999E+02 -0.12640E+06
 0.34599998E+02 -0.15054E+06
 0.34649998E+02 -0.14961E+06
 0.34699997E+02 -0.15200E+06
 0.34749996E+02 -0.16272E+06
 0.34799999E+02 -0.15923E+06
 0.34849998E+02 -0.12435E+06
 0.34899998E+02 -0.10145E+06
 0.34949997E+02 -0.70928E+05
 0.34999996E+02  0.16306E+05
 0.35049999E+02  0.70728E+05
 0.35099998E+02  0.74196E+05
 0.35149998E+02  0.24035E+05
 0.35199997E+02 -0.36828E+05
 0.35249996E+02 -0.31484E+05
 0.35299999E+02  0.38349E+04
 0.35349998E+02  0.42671E+05
 0.35399998E+02  0.87052E+05
 0.35449997E+02  0.94717E+05
 0.35499996E+02  0.97730E+05
 0.35549999E+02  0.85661E+05
 0.35599998E+02  0.48279E+05
 0.35649998E+02  0.14635E+05
 0.35699997E+02 -0.40980E+05
 0.35749996E+02 -0.48709E+05
 0.35799999E+02 -0.23205E+05
 0.35849998E+02 -0.11618E+05
 0.35899998E+02 -0.12441E+04
 0.35949997E+02  0.10346E+05
 0.35999996E+02 -0.11649E+05
 0.36049999E+02 -0.59912E+05
 0.36099998E+02 -0.91864E+05
 0.36149998E+02 -0.11370E+06
 0.36199997E+02 -0.11703E+06
 0.36249996E+02 -0.10364E+06
 0.36299999E+02 -0.68998E+05
 0.36349998E+02 -0.51953E+05
 0.36399998E+02 -0.69137E+05
 0.36449997E+02 -0.11078E+06
 0.36499996E+02 -0.15211E+06
 0.36549999E+02 -0.17243E+06
 0.36599998E+02 -0.17545E+06
 0.36649998E+02 -0.17073E+06
 0.36699997E+02 -0.16378E+06
 0.36749996E+02 -0.13952E+06
 0.36799999E+02 -0.98476E+05
 0.36849998E+02 -0.50717E+05
 0.36899998E+02 -0.33152E+05
 0.36949997E+02 -0.20220E+05
 0.36999996E+02  0.92292E+04
 0.37049999E+02  0.13181E+05
 0.37099998E+02 -0.17218E+05
 0.37149998E+02 -0.56828E+05
 0.37199997E+02 -0.90314E+05
 0.37249996E+02 -0.87013E+05
 0.37299999E+02 -0.78745E+05
 0.37349998E+02 -0.65217E+05
 0.37399998E+02 -0.73450E+05
 0.37449997E+02 -0.12648E+06
 0.37499996E+02 -0.15928E+06
 0.37549999E+02 -0.17949E+06
 0.37599998E+02 -0.16037E+06
 0.37649998E+02 -0.99840E+05
 0.37699997E+02 -0.26915E+05
 0.37749996E+02 -0.21535E+05
 0.37799999E+02 -0.63248E+05
 0.37849998E+02 -0.54885E+05
 0.37899998E+02 -0.19039E+04
 0.37949997E+02  0.63441E+05
 0.37999996E+02  0.93849E+05
 0.38049999E+02  0.76268E+05
 0.38099998E+02  0.44950E+05
 0.38149998E+02  0.25566E+05
 0.38199997E+02  0.58319E+05
 0.38249996E+02  0.15021E+06
 0.38299999E+02  0.21405E+06
 0.38349998E+02  0.19522E+06
 0.38399998E+02  0.11529E+06
 0.38449997E+02  0.76746E+05
 0.38499996E+02  0.81632E+05
 0.38549999E+02  0.76552E+05
 0.38599998E+02  0.64556E+05
 0.38649998E+02  0.61351E+05
 0.38699997E+02  0.53398E+05
 0.38749996E+02  0.26863E+05
 0.38799999E+02  0.69224E+04
 0.38849998E+02 -0.25386E+05
 0.38899998E+02 -0.57659E+05
 0.38949997E+02 -0.68886E+05
 0.38999996E+02 -0.53285E+05
 0.39049999E+02  0.31999E+03
 0.39099998E+02  0.56579E+05
 0.39149998E+02  0.10622E+06
 0.39199997E+02  0.15215E+06
 0.39249996E+02  0.17548E+06
 0.39299999E+02  0.20285E+06
 0.39349998E+02  0.25920E+06
 0.39399998E+02  0.30141E+06
 0.39449997E+02  0.26026E+06
 0.39499996E+02  0.17910E+06
 0.39549999E+02  0.10455E+06
 0.39599998E+02  0.52588E+05
 0.39649998E+02  0.21488E+05
 0.39699997E+02  0.15427E+05
 0.39749996E+02  0.18453E+05
 0.39799999E+02  0.14979E+04
 0.39849998E+02 -0.35892E+05
 0.39899998E+02 -0.76111E+05
 0.39949997E+02 -0.82335E+05
 0.39999996E+02 -0.85819E+05
 0.40049999E+02 -0.98613E+05
 0.40099998E+02 -0.11149E+06
 0.40149998E+02 -0.11393E+06
 0.40199997E+02 -0.87354E+05
 0.40249996E+02 -0.16374E+05
 0.40299999E+02  0.63464E+05
 0.40349998E+02  0.12920E+06
 0.40399998E+02  0.18456E+06
 0.40449997E+02  0.20804E+06
 0.40499996E+02  0.19649E+06
 0.40549999E+02  0.17111E+06
 0.40599998E+02  0.16594E+06
 0.40649998E+02  0.18964E+06
 0.40699997E+02  0.20942E+06
 0.40749996E+02  0.21336E+06
 0.40799999E+02  0.23702E+06
 0.40849998E+02  0.25482E+06
 0.40899998E+02  0.25566E+06
 0.40949997E+02  0.23175E+06
 0.40999996E+02  0.17319E+06
 0.41049999E+02  0.11641E+06
 0.41099998E+02  0.63113E+05
 0.41149998E+02  0.41232E+05
 0.41199997E+02  0.53074E+05
 0.41249996E+02  0.68241E+05
 0.41299999E+02  0.74736E+05
 0.41349998E+02  0.56956E+05
 0.41399998E+02  0.37813E+05
 0.41449997E+02  0.17179E+05
 0.41499996E+02  0.88388E+04
 0.41549999E+02  0.35789E+05
 0.41599998E+02  0.59851E+05
 0.41649998E+02  0.54045E+05
 0.41699997E+02  0.18797E+05
 0.41749996E+02 -0.36615E+05
 0.41799999E+02 -0.87996E+05
 0.41849998E+02 -0.10101E+06
 0.41899998E+02 -0.91255E+05
 0.41949997E+02 -0.69854E+05
 0.41999996E+02 -0.48892E+05
 0.42049999E+02 -0.44312E+05
 0.42099998E+02 -0.19081E+05
 0.42149998E+02  0.16278E+05
 0.42199997E+02  0.36724E+05
 0.42249996E+02  0.28766E+05
 0.42299999E+02 -0.12783E+05
 0.42349998E+02 -0.64879E+05
 0.42399998E+02 -0.10835E+06
 0.42449997E+02 -0.15588E+06
 0.42499996E+02 -0.18498E+06
 0.42549999E+02 -0.14088E+06
 0.42599998E+02 -0.58559E+05
 0.42649998E+02 -0.68407E+04
 0.42699997E+02 -0.23060E+05
 0.42749996E+02 -0.68382E+05
 0.42799995E+02 -0.76284E+05
 0.42849998E+02 -0.44656E+05
 0.42899998E+02 -0.35033E+05
 0.42949997E+02 -0.66875E+05
 0.42999996E+02 -0.13243E+06
 0.43049995E+02 -0.18254E+06
 0.43099998E+02 -0.18988E+06
 0.43149998E+02 -0.17156E+06
 0.43199997E+02 -0.11586E+06
 0.43249996E+02 -0.65245E+05
 0.43299995E+02 -0.43187E+05
 0.43349998E+02 -0.37817E+05
 0.43399998E+02 -0.68538E+04
 0.43449997E+02  0.32891E+05
 0.43499996E+02  0.40899E+05
 0.43549995E+02  0.26072E+05
 0.43599998E+02 -0.14953E+05
 0.43649998E+02 -0.65258E+05
 0.43699997E+02 -0.90441E+05
 0.43749996E+02 -0.47671E+05
 0.43799995E+02  0.10901E+06
 0.43849998E+02  0.38657E+06
 0.43899998E+02  0.68338E+06
 0.43949997E+02  0.84346E+06
 0.43999996E+02  0.74919E+06
 0.44049995E+02  0.44240E+06
 0.44099998E+02  0.69058E+05
 0.44149998E+02 -0.24742E+06
 0.44199997E+02 -0.37839E+06
 0.44249996E+02 -0.29336E+06
 0.44299995E+02 -0.13319E+06
 0.44349998E+02 -0.69839E+05
 0.44399998E+02 -0.15203E+06
 0.44449997E+02 -0.27379E+06
 0.44499996E+02 -0.31995E+06
 0.44549995E+02 -0.23056E+06
 0.44599998E+02 -0.39156E+05
 0.44649998E+02  0.12398E+06
 0.44699997E+02  0.14584E+06
 0.44749996E+02 -0.20884E+05
 0.44799995E+02 -0.27652E+06
 0.44849998E+02 -0.46301E+06
 0.44899998E+02 -0.49499E+06
 0.44949997E+02 -0.39108E+06
 0.44999996E+02 -0.25091E+06
 0.45049995E+02 -0.15204E+06
 0.45099998E+02 -0.96074E+05
 0.45149998E+02  0.27677E+05
 0.45199997E+02  0.20882E+06
 0.45249996E+02  0.24871E+06
 0.45299995E+02  0.70918E+05
 0.45349998E+02 -0.26778E+06
 0.45399998E+02 -0.53829E+06
 0.45449997E+02 -0.56029E+06
 0.45499996E+02 -0.40890E+06
 0.45549995E+02 -0.23951E+06
 0.45599998E+02 -0.10573E+06
 0.45649998E+02 -0.83719E+04
 0.45699997E+02  0.51728E+05
 0.45749996E+02  0.11579E+06
 0.45799995E+02  0.14398E+06
 0.45849998E+02  0.14724E+06
 0.45899998E+02  0.73265E+05
 0.45949997E+02 -0.11823E+06
 0.45999996E+02 -0.33729E+06
 0.46049995E+02 -0.42161E+06
 0.46099998E+02 -0.23406E+06
 0.46149998E+02  0.71843E+05
 0.46199997E+02  0.29774E+06
 0.46249996E+02  0.30255E+06
 0.46299995E+02  0.14947E+06
 0.46349998E+02  0.33863E+05
 0.46399998E+02 -0.29831E+05
 0.46449997E+02 -0.36709E+05
 0.46499996E+02 -0.72515E+04
 0.46549995E+02 -0.60386E+05
 0.46599998E+02 -0.10658E+06
 0.46649998E+02 -0.34104E+04
 0.46699997E+02  0.19625E+06
 0.46749996E+02  0.38432E+06
 0.46799995E+02  0.40166E+06
 0.46849998E+02  0.22343E+06
 0.46899998E+02  0.60305E+05
 0.46949997E+02  0.76857E+05
 0.46999996E+02  0.13907E+06
 0.47049995E+02  0.11466E+06
 0.47099998E+02  0.28563E+05
 0.47149998E+02 -0.13856E+05
 0.47199997E+02  0.69606E+05
 0.47249996E+02  0.14032E+06
 0.47299995E+02  0.47564E+05
 0.47349998E+02 -0.13957E+06
 0.47399998E+02 -0.25847E+06
 0.47449997E+02 -0.21650E+06
 0.47499996E+02  0.87492E+04
 0.47549995E+02  0.23975E+06
 0.47599998E+02  0.32991E+06
 0.47649998E+02  0.27710E+06
 0.47699997E+02  0.74092E+05
 0.47749996E+02 -0.20751E+06
 0.47799995E+02 -0.49497E+06
 0.47849998E+02 -0.66039E+06
 0.47899998E+02 -0.59764E+06
 0.47949997E+02 -0.41901E+06
 0.47999996E+02 -0.21812E+06
 0.48049995E+02 -0.42153E+05
 0.48099998E+02  0.10129E+05
 0.48149998E+02 -0.45027E+05
 0.48199997E+02 -0.21424E+06
 0.48249996E+02 -0.44562E+06
 0.48299995E+02 -0.56534E+06
 0.48349998E+02 -0.55232E+06
 0.48399998E+02 -0.47932E+06
 0.48449997E+02 -0.36461E+06
 0.48499996E+02 -0.25428E+06
 0.48549995E+02 -0.15803E+06
 0.48599998E+02 -0.20113E+05
 0.48649998E+02  0.87748E+05
 0.48699997E+02  0.12113E+06
 0.48749996E+02  0.18055E+06
 0.48799995E+02  0.29347E+06
 0.48849998E+02  0.41992E+06
 0.48899998E+02  0.55861E+06
 0.48949997E+02  0.67089E+06
 0.48999996E+02  0.74322E+06
 0.49049995E+02  0.74930E+06
 0.49099998E+02  0.61776E+06
 0.49149998E+02  0.34281E+06
 0.49199997E+02  0.51145E+05
 0.49249996E+02 -0.13126E+06
 0.49299995E+02 -0.24177E+06
 0.49349998E+02 -0.29486E+06
 0.49399998E+02 -0.22973E+06
 0.49449997E+02 -0.67444E+05
 0.49499996E+02  0.93933E+05
 0.49549995E+02  0.20461E+06
 0.49599998E+02  0.20917E+06
 0.49649998E+02  0.15579E+06
 0.49699997E+02  0.10079E+06
 0.49749996E+02  0.18510E+05
 0.49799995E+02 -0.91796E+05
 0.49849998E+02 -0.20497E+06
 0.49899998E+02 -0.21112E+06
 0.49949997E+02 -0.12515E+06
 0.49999996E+02 -0.52133E+05
 0.50049995E+02  0.27511E+04
 0.50099998E+02  0.80689E+05
 0.50149998E+02  0.10213E+06
 0.50199997E+02  0.68533E+05
 0.50249996E+02  0.20844E+05
 0.50299995E+02 -0.20993E+05
 0.50349998E+02 -0.21797E+04
 0.50399998E+02 -0.38606E+05
 0.50449997E+02 -0.17159E+06
 0.50499996E+02 -0.28520E+06
 0.50549995E+02 -0.30545E+06
 0.50599998E+02 -0.28712E+06
 0.50649998E+02 -0.21329E+06
 0.50699997E+02 -0.12603E+06
 0.50749996E+02 -0.10569E+06
 0.50799995E+02 -0.10044E+06
 0.50849998E+02 -0.91207E+05
 0.50899998E+02 -0.83326E+05
 0.50949997E+02 -0.88422E+05
 0.50999996E+02 -0.66320E+05
 0.51049995E+02  0.99529E+04
 0.51099998E+02  0.12491E+06
 0.51149998E+02  0.24480E+06
 0.51199997E+02  0.31431E+06
 0.51249996E+02  0.24248E+06
 0.51299995E+02  0.69935E+05
 0.51349998E+02 -0.87987E+05
 0.51399998E+02 -0.17474E+06
 0.51449997E+02 -0.20941E+06
 0.51499996E+02 -0.25492E+06
 0.51549995E+02 -0.30488E+06
 0.51599998E+02 -0.30599E+06
 0.51649998E+02 -0.23860E+06
 0.51699997E+02 -0.16875E+06
 0.51749996E+02 -0.12429E+06
 0.51799995E+02 -0.79303E+05
 0.51849998E+02 -0.18382E+05
 0.51899998E+02  0.24725E+05
 0.51949997E+02  0.54726E+05
 0.51999996E+02  0.65681E+05
 0.52049995E+02  0.15230E+05
 0.52099998E+02 -0.91052E+05
 0.52149998E+02 -0.21466E+06
 0.52199997E+02 -0.29852E+06
 0.52249996E+02 -0.31578E+06
 0.52299995E+02 -0.28546E+06
 0.52349998E+02 -0.23934E+06
 0.52399998E+02 -0.19734E+06
 0.52449997E+02 -0.15504E+06
 0.52499996E+02 -0.13339E+06
 0.52549995E+02 -0.19672E+06
 0.52599998E+02 -0.31682E+06
 0.52649998E+02 -0.36173E+06
 0.52699997E+02 -0.30156E+06
 0.52749996E+02 -0.17011E+06
 0.52799995E+02  0.27944E+04
 0.52849998E+02  0.13639E+06
 0.52899998E+02  0.20841E+06
 0.52949997E+02  0.24755E+06
 0.52999996E+02  0.26815E+06
 0.53049995E+02  0.27525E+06
 0.53099998E+02  0.28541E+06
 0.53149998E+02  0.26503E+06
 0.53199997E+02  0.21268E+06
 0.53249996E+02  0.16440E+06
 0.53299995E+02  0.11100E+06
 0.53349998E+02  0.48884E+05
 0.53399998E+02 -0.42202E+05
 0.53449997E+02 -0.14344E+06
 0.53499996E+02 -0.21721E+06
 0.53549995E+02 -0.25707E+06
 0.53599998E+02 -0.24865E+06
 0.53649998E+02 -0.18386E+06
 0.53699997E+02 -0.93035E+05
 0.53749996E+02 -0.36320E+05
 0.53799995E+02  0.41291E+04
 0.53849998E+02  0.62081E+05
 0.53899998E+02  0.12592E+06
 0.53949997E+02  0.16560E+06
 0.53999996E+02  0.11998E+06
 0.54049995E+02 -0.36851E+04
 0.54099998E+02 -0.13473E+06
 0.54149998E+02 -0.22934E+06
 0.54199997E+02 -0.28096E+06
 0.54249996E+02 -0.29914E+06
 0.54299995E+02 -0.27433E+06
 0.54349998E+02 -0.21362E+06
 0.54399998E+02 -0.12735E+06
 0.54449997E+02 -0.40673E+05
 0.54499996E+02 -0.22300E+05
 0.54549995E+02 -0.76475E+05
 0.54599998E+02 -0.16281E+06
 0.54649998E+02 -0.23442E+06
 0.54699997E+02 -0.23736E+06
 0.54749996E+02 -0.15411E+06
 0.54799995E+02 -0.42029E+05
 0.54849998E+02  0.64011E+05
 0.54899998E+02  0.17327E+06
 0.54949997E+02  0.29023E+06
 0.54999996E+02  0.39131E+06
 0.55049995E+02  0.44440E+06
 0.55099998E+02  0.45514E+06
 0.55149998E+02  0.43226E+06
 0.55199997E+02  0.40697E+06
 0.55249996E+02  0.41341E+06
 0.55299995E+02  0.44362E+06
 0.55349998E+02  0.49547E+06
 0.55399998E+02  0.54045E+06
 0.55449997E+02  0.52453E+06
 0.55499996E+02  0.43279E+06
 0.55549995E+02  0.28907E+06
 0.55599998E+02  0.16785E+06
 0.55649998E+02  0.10572E+06
 0.55699997E+02  0.11348E+06
 0.55749996E+02  0.17808E+06
 0.55799995E+02  0.25193E+06
 0.55849995E+02  0.28491E+06
 0.55899998E+02  0.27159E+06
 0.55949997E+02  0.26944E+06
 0.55999996E+02  0.30315E+06
 0.56049995E+02  0.38045E+06
 0.56099995E+02  0.46081E+06
 0.56149998E+02  0.48634E+06
 0.56199997E+02  0.46361E+06
 0.56249996E+02  0.42249E+06
 0.56299995E+02  0.35250E+06
 0.56349995E+02  0.25678E+06
 0.56399998E+02  0.16385E+06
 0.56449997E+02  0.79129E+05
 0.56499996E+02  0.44290E+05
 0.56549995E+02  0.76083E+05
 0.56599995E+02  0.15123E+06
 0.56649998E+02  0.23941E+06
 0.56699997E+02  0.29115E+06
 0.56749996E+02  0.29710E+06
 0.56799995E+02  0.29631E+06
 0.56849995E+02  0.30199E+06
 0.56899998E+02  0.28528E+06
 0.56949997E+02  0.23341E+06
 0.56999996E+02  0.15599E+06
 0.57049995E+02  0.84321E+05
 0.57099995E+02  0.54176E+05
 0.57149998E+02  0.53478E+05
 0.57199997E+02  0.71599E+05
 0.57249996E+02  0.96247E+05
 0.57299995E+02  0.96228E+05
 0.57349995E+02  0.84970E+05
 0.57399998E+02  0.77888E+05
 0.57449997E+02  0.44872E+05
 0.57499996E+02  0.24659E+04
 0.57549995E+02 -0.33053E+05
 0.57599995E+02 -0.82894E+05
 0.57649998E+02 -0.98800E+05
 0.57699997E+02 -0.41893E+05
 0.57749996E+02  0.78311E+05
 0.57799995E+02  0.21444E+06
 0.57849995E+02  0.29537E+06
 0.57899998E+02  0.30618E+06
 0.57949997E+02  0.29556E+06
 0.57999996E+02  0.29368E+06
 0.58049995E+02  0.28255E+06
 0.58099995E+02  0.26741E+06
 0.58149998E+02  0.25084E+06
 0.58199997E+02  0.23017E+06
 0.58249996E+02  0.24443E+06
 0.58299995E+02  0.29755E+06
 0.58349995E+02  0.35553E+06
 0.58399998E+02  0.38306E+06
 0.58449997E+02  0.35966E+06
 0.58499996E+02  0.29454E+06
 0.58549995E+02  0.21618E+06
 0.58599995E+02  0.15957E+06
 0.58649998E+02  0.10543E+06
 0.58699997E+02  0.25578E+05
 0.58749996E+02 -0.74842E+05
 0.58799995E+02 -0.13719E+06
 0.58849995E+02 -0.10706E+06
 0.58899998E+02 -0.12435E+04
 0.58949997E+02  0.12934E+06
 0.58999996E+02  0.21748E+06
 0.59049995E+02  0.24820E+06
 0.59099995E+02  0.23969E+06
 0.59149998E+02  0.21534E+06
 0.59199997E+02  0.19771E+06
 0.59249996E+02  0.18591E+06
 0.59299995E+02  0.16814E+06
 0.59349995E+02  0.16037E+06
 0.59399998E+02  0.18781E+06
 0.59449997E+02  0.24574E+06
 0.59499996E+02  0.32909E+06
 0.59549995E+02  0.39426E+06
 0.59599995E+02  0.39667E+06
 0.59649998E+02  0.35296E+06
 0.59699997E+02  0.29061E+06
 0.59749996E+02  0.21959E+06
 0.59799995E+02  0.13137E+06
 0.59849995E+02  0.12742E+05
 0.59899998E+02 -0.11460E+06
 0.59949997E+02 -0.22505E+06
 0.59999996E+02 -0.31801E+06
 0.60049995E+02 -0.37892E+06
 0.60099995E+02 -0.40829E+06
 0.60149998E+02 -0.41489E+06
 0.60199997E+02 -0.39563E+06
 0.60249996E+02 -0.37737E+06
 0.60299995E+02 -0.39351E+06
 0.60349995E+02 -0.43680E+06
 0.60399998E+02 -0.48265E+06
 0.60449997E+02 -0.51739E+06
 0.60499996E+02 -0.52548E+06
 0.60549995E+02 -0.49063E+06
 0.60599995E+02 -0.42182E+06
 0.60649998E+02 -0.33755E+06
 0.60699997E+02 -0.25858E+06
 0.60749996E+02 -0.21709E+06
 0.60799995E+02 -0.21805E+06
 0.60849995E+02 -0.23816E+06
 0.60899998E+02 -0.26605E+06
 0.60949997E+02 -0.30172E+06
 0.60999996E+02 -0.33884E+06
 0.61049995E+02 -0.36531E+06
 0.61099995E+02 -0.37145E+06
 0.61149998E+02 -0.35472E+06
 0.61199997E+02 -0.31775E+06
 0.61249996E+02 -0.29197E+06
 0.61299995E+02 -0.28981E+06
 0.61349995E+02 -0.30677E+06
 0.61399998E+02 -0.34797E+06
 0.61449997E+02 -0.39825E+06
 0.61499996E+02 -0.45369E+06
 0.61549995E+02 -0.51327E+06
 0.61599995E+02 -0.55054E+06
 0.61649998E+02 -0.53893E+06
 0.61699997E+02 -0.48096E+06
 0.61749996E+02 -0.39813E+06
 0.61799995E+02 -0.31741E+06
 0.61849995E+02 -0.25938E+06
 0.61899998E+02 -0.23072E+06
 0.61949997E+02 -0.22342E+06
 0.61999996E+02 -0.23603E+06
 0.62049995E+02 -0.26658E+06
 0.62099998E+02 -0.30537E+06
 0.62149994E+02 -0.34010E+06
 0.62199997E+02 -0.34777E+06
 0.62249992E+02 -0.32467E+06
 0.62299995E+02 -0.27809E+06
 0.62349998E+02 -0.22205E+06
 0.62399994E+02 -0.17854E+06
 0.62449997E+02 -0.15674E+06
 0.62499992E+02 -0.15537E+06
 0.62549995E+02 -0.17012E+06
 0.62599998E+02 -0.19577E+06
 0.62649994E+02 -0.22346E+06
 0.62699997E+02 -0.23660E+06
 0.62749992E+02 -0.22038E+06
 0.62799995E+02 -0.17252E+06
 0.62849998E+02 -0.10429E+06
 0.62899994E+02 -0.30145E+05
 0.62949997E+02  0.34165E+05
 0.62999992E+02  0.72483E+05
 0.63049995E+02  0.80493E+05
 0.63099998E+02  0.60033E+05
 0.63149994E+02  0.65490E+04
 0.63199997E+02 -0.73114E+05
 0.63249992E+02 -0.14989E+06
 0.63299995E+02 -0.20383E+06
 0.63349998E+02 -0.24000E+06
 0.63399994E+02 -0.25952E+06
 0.63449997E+02 -0.25452E+06
 0.63499992E+02 -0.23080E+06
 0.63549995E+02 -0.19963E+06
 0.63599998E+02 -0.17061E+06
 0.63649994E+02 -0.14323E+06
 0.63699997E+02 -0.11574E+06
 0.63749992E+02 -0.10233E+06
 0.63799995E+02 -0.11551E+06
 0.63849998E+02 -0.15219E+06
 0.63899994E+02 -0.19216E+06
 0.63949997E+02 -0.21140E+06
 0.63999992E+02 -0.19329E+06
 0.64049995E+02 -0.14487E+06
 0.64099998E+02 -0.91458E+05
 0.64149994E+02 -0.37028E+05
 0.64199997E+02  0.11405E+05
 0.64249992E+02  0.51686E+05
 0.64299995E+02  0.97766E+05
 0.64349998E+02  0.14418E+06
 0.64399994E+02  0.18389E+06
 0.64449997E+02  0.21868E+06
 0.64499992E+02  0.24932E+06
 0.64549995E+02  0.27305E+06
 0.64599998E+02  0.28857E+06
 0.64649994E+02  0.28677E+06
 0.64699997E+02  0.27129E+06
 0.64749992E+02  0.26344E+06
 0.64799995E+02  0.26904E+06
 0.64849998E+02  0.28149E+06
 0.64899994E+02  0.28667E+06
 0.64949997E+02  0.27541E+06
 0.64999992E+02  0.25209E+06
 0.65049995E+02  0.22750E+06
 0.65099998E+02  0.20364E+06
 0.65149994E+02  0.18553E+06
 0.65199997E+02  0.17758E+06
 0.65249992E+02  0.17093E+06
 0.65299995E+02  0.16370E+06
 0.65349998E+02  0.15525E+06
 0.65399994E+02  0.14301E+06
 0.65449997E+02  0.12381E+06
 0.65499992E+02  0.93468E+05
 0.65549995E+02  0.57740E+05
 0.65599998E+02  0.18889E+05
 0.65649994E+02 -0.17878E+05
 0.65699997E+02 -0.37283E+05
 0.65749992E+02 -0.35149E+05
 0.65799995E+02 -0.17158E+05
 0.65849998E+02  0.16684E+05
 0.65899994E+02  0.57073E+05
 0.65949997E+02  0.88893E+05
 0.65999992E+02  0.10891E+06
 0.66049995E+02  0.11221E+06
 0.66099998E+02  0.95233E+05
 0.66149994E+02  0.64500E+05
 0.66199997E+02  0.41637E+05
 0.66249992E+02  0.40859E+05
 0.66299995E+02  0.50161E+05
 0.66349998E+02  0.48100E+05
 0.66399994E+02  0.19405E+05
 0.66449997E+02 -0.33226E+05
 0.66499992E+02 -0.92804E+05
 0.66549995E+02 -0.14218E+06
 0.66599998E+02 -0.16738E+06
 0.66649994E+02 -0.16438E+06
 0.66699997E+02 -0.13648E+06
 0.66749992E+02 -0.88055E+05
 0.66799995E+02 -0.26652E+05
 0.66849998E+02  0.35578E+05
 0.66899994E+02  0.82554E+05
 0.66949997E+02  0.10528E+06
 0.66999992E+02  0.10285E+06
 0.67049995E+02  0.77789E+05
 0.67099998E+02  0.39930E+05
 0.67149994E+02 -0.25366E+04
 0.67199997E+02 -0.42806E+05
 0.67249992E+02 -0.72706E+05
 0.67299995E+02 -0.94522E+05
 0.67349998E+02 -0.11210E+06
 0.67399994E+02 -0.12800E+06
 0.67449997E+02 -0.13799E+06
 0.67499992E+02 -0.12822E+06
 0.67549995E+02 -0.92168E+05
 0.67599998E+02 -0.42881E+05
 0.67649994E+02  0.49028E+03
 0.67699997E+02  0.30408E+05
 0.67749992E+02  0.48221E+05
 0.67799995E+02  0.59545E+05
 0.67849998E+02  0.65482E+05
 0.67899994E+02  0.68946E+05
 0.67949997E+02  0.68716E+05
 0.67999992E+02  0.75876E+05
 0.68049995E+02  0.95167E+05
 0.68099998E+02  0.10872E+06
 0.68149994E+02  0.10456E+06
 0.68199997E+02  0.76987E+05
 0.68249992E+02  0.37416E+05
 0.68299995E+02  0.27500E+02
 0.68349998E+02 -0.27726E+05
 0.68399994E+02 -0.40534E+05
 0.68449997E+02 -0.36447E+05
 0.68499992E+02 -0.17942E+05
 0.68549995E+02  0.15410E+05
 0.68599998E+02  0.66645E+05
 0.68649994E+02  0.13168E+06
 0.68699997E+02  0.19708E+06
 0.68749992E+02  0.24996E+06
 0.68799995E+02  0.28788E+06
 0.68849998E+02  0.31328E+06
 0.68899994E+02  0.32231E+06
 0.68949997E+02  0.30579E+06
 0.68999992E+02  0.26957E+06
 0.69049995E+02  0.22654E+06
 0.69099998E+02  0.19052E+06
 0.69149994E+02  0.17674E+06
 0.69199997E+02  0.18267E+06
 0.69249992E+02  0.18569E+06
 0.69299995E+02  0.16997E+06
 0.69349998E+02  0.13470E+06
 0.69399994E+02  0.84671E+05
 0.69449997E+02  0.27867E+05
 0.69499992E+02 -0.31141E+05
 0.69549995E+02 -0.87248E+05
 0.69599998E+02 -0.13409E+06
 0.69649994E+02 -0.17006E+06
 0.69699997E+02 -0.19491E+06
 0.69749992E+02 -0.20106E+06
 0.69799995E+02 -0.18679E+06
 0.69849998E+02 -0.16158E+06
 0.69899994E+02 -0.13171E+06
 0.69949997E+02 -0.99827E+05
 0.69999992E+02 -0.63710E+05
 0.70049995E+02 -0.22908E+05
 0.70099998E+02  0.19231E+05
 0.70149994E+02  0.56937E+05
 0.70199997E+02  0.89066E+05
 0.70249992E+02  0.12466E+06
 0.70299995E+02  0.16484E+06
 0.70349998E+02  0.20807E+06
 0.70399994E+02  0.24516E+06
 0.70449997E+02  0.26717E+06
 0.70499992E+02  0.28178E+06
 0.70549995E+02  0.29652E+06
 0.70599998E+02  0.31323E+06
 0.70649994E+02  0.32496E+06
 0.70699997E+02  0.31725E+06
 0.70749992E+02  0.27823E+06
 0.70799995E+02  0.21233E+06
 0.70849998E+02  0.13020E+06
 0.70899994E+02  0.42290E+05
 0.70949997E+02 -0.35450E+05
 0.70999992E+02 -0.93409E+05
 0.71049995E+02 -0.13106E+06
 0.71099998E+02 -0.15073E+06
 0.71149994E+02 -0.15414E+06
 0.71199997E+02 -0.14350E+06
 0.71249992E+02 -0.12416E+06
 0.71299995E+02 -0.10630E+06
 0.71349998E+02 -0.96076E+05
 0.71399994E+02 -0.94524E+05
 0.71449997E+02 -0.11132E+06
 0.71499992E+02 -0.15222E+06
 0.71549995E+02 -0.20708E+06
 0.71599998E+02 -0.25722E+06
 0.71649994E+02 -0.28925E+06
 0.71699997E+02 -0.29176E+06
 0.71749992E+02 -0.26192E+06
 0.71799995E+02 -0.21460E+06
 0.71849998E+02 -0.16700E+06
 0.71899994E+02 -0.13118E+06
 0.71949997E+02 -0.10642E+06
 0.71999992E+02 -0.85195E+05
 0.72049995E+02 -0.65194E+05
 0.72099998E+02 -0.51813E+05
 0.72149994E+02 -0.50435E+05
 0.72199997E+02 -0.53625E+05
 0.72249992E+02 -0.45228E+05
 0.72299995E+02 -0.22647E+05
 0.72349998E+02  0.83745E+04
 0.72399994E+02  0.43896E+05
 0.72449997E+02  0.78393E+05
 0.72499992E+02  0.10931E+06
 0.72549995E+02  0.12893E+06
 0.72599998E+02  0.12877E+06
 0.72649994E+02  0.10854E+06
 0.72699997E+02  0.70452E+05
 0.72749992E+02  0.20906E+05
 0.72799995E+02 -0.21315E+05
 0.72849998E+02 -0.36821E+05
 0.72899994E+02 -0.21915E+05
 0.72949997E+02  0.20315E+05
 0.72999992E+02  0.81661E+05
 0.73049995E+02  0.14820E+06
 0.73099998E+02  0.20856E+06
 0.73149994E+02  0.25461E+06
 0.73199997E+02  0.28203E+06
 0.73249992E+02  0.29321E+06
 0.73299995E+02  0.29258E+06
 0.73349998E+02  0.27923E+06
 0.73399994E+02  0.25348E+06
 0.73449997E+02  0.22022E+06
 0.73499992E+02  0.18192E+06
 0.73549995E+02  0.14587E+06
 0.73599998E+02  0.11779E+06
 0.73649994E+02  0.94783E+05
 0.73699997E+02  0.73452E+05
 0.73749992E+02  0.53932E+05
 0.73799995E+02  0.33374E+05
 0.73849998E+02  0.91060E+04
 0.73899994E+02 -0.17198E+05
 0.73949997E+02 -0.41695E+05
 0.73999992E+02 -0.53317E+05
 0.74049995E+02 -0.49102E+05
 0.74099998E+02 -0.34692E+05
 0.74149994E+02 -0.15433E+05
 0.74199997E+02 -0.95093E+03
 0.74249992E+02  0.39682E+04
 0.74299995E+02 -0.13206E+04
 0.74349998E+02 -0.14423E+05
 0.74399994E+02 -0.27686E+05
 0.74449997E+02 -0.40494E+05
 0.74499992E+02 -0.57143E+05
 0.74549995E+02 -0.80002E+05
 0.74599998E+02 -0.10983E+06
 0.74649994E+02 -0.14412E+06
 0.74699997E+02 -0.17142E+06
 0.74749992E+02 -0.18049E+06
 0.74799995E+02 -0.17256E+06
 0.74849998E+02 -0.15552E+06
 0.74899994E+02 -0.14008E+06
 0.74949997E+02 -0.13015E+06
 0.74999992E+02 -0.12028E+06
 0.75049995E+02 -0.10656E+06
 0.75099998E+02 -0.90569E+05
 0.75149994E+02 -0.76507E+05
 0.75199997E+02 -0.63489E+05
 0.75249992E+02 -0.49044E+05
 0.75299995E+02 -0.32105E+05
 0.75349998E+02 -0.18729E+05
 0.75399994E+02 -0.13793E+05
 0.75449997E+02 -0.12901E+05
 0.75499992E+02 -0.14966E+05
 0.75549995E+02 -0.23916E+05
 0.75599998E+02 -0.41174E+05
 0.75649994E+02 -0.60718E+05
 0.75699997E+02 -0.75477E+05
 0.75749992E+02 -0.81585E+05
 0.75799995E+02 -0.79750E+05
 0.75849998E+02 -0.73550E+05
 0.75899994E+02 -0.69150E+05
 0.75949997E+02 -0.69817E+05
 0.75999992E+02 -0.77373E+05
 0.76049995E+02 -0.93231E+05
 0.76099998E+02 -0.11264E+06
 0.76149994E+02 -0.13116E+06
 0.76199997E+02 -0.14544E+06
 0.76249992E+02 -0.15120E+06
 0.76299995E+02 -0.14664E+06
 0.76349998E+02 -0.13173E+06
 0.76399994E+02 -0.10428E+06
 0.76449997E+02 -0.65675E+05
 0.76499992E+02 -0.21149E+05
 0.76549995E+02  0.20719E+05
 0.76599998E+02  0.50941E+05
 0.76649994E+02  0.69691E+05
 0.76699997E+02  0.78035E+05
 0.76749992E+02  0.77793E+05
 0.76799995E+02  0.70576E+05
 0.76849998E+02  0.57446E+05
 0.76899994E+02  0.45876E+05
 0.76949997E+02  0.44912E+05
 0.76999992E+02  0.59877E+05
 0.77049995E+02  0.88713E+05
 0.77099998E+02  0.12525E+06
 0.77149994E+02  0.15849E+06
 0.77199997E+02  0.18178E+06
 0.77249992E+02  0.19273E+06
 0.77299995E+02  0.18946E+06
 0.77349998E+02  0.17480E+06
 0.77399994E+02  0.15208E+06
 0.77449997E+02  0.12096E+06
 0.77499992E+02  0.80052E+05
 0.77549995E+02  0.35510E+05
 0.77599998E+02 -0.32977E+04
 0.77649994E+02 -0.29668E+05
 0.77699997E+02 -0.45544E+05
 0.77749992E+02 -0.54918E+05
 0.77799995E+02 -0.60046E+05
 0.77849998E+02 -0.58087E+05
 0.77899994E+02 -0.46231E+05
 0.77949997E+02 -0.30105E+05
 0.77999992E+02 -0.14617E+05
 0.78049995E+02 -0.51119E+04
 0.78099998E+02 -0.31351E+04
 0.78149994E+02 -0.38210E+04
 0.78199997E+02 -0.17141E+04
 0.78249992E+02  0.59504E+04
 0.78299995E+02  0.17149E+05
 0.78349998E+02  0.25305E+05
 0.78399994E+02  0.23202E+05
 0.78449997E+02  0.10720E+05
 0.78499992E+02 -0.36597E+04
 0.78549995E+02 -0.12551E+05
 0.78599998E+02 -0.12193E+05
 0.78649994E+02 -0.23529E+04
 0.78699997E+02  0.78872E+04
 0.78749992E+02  0.63640E+04
 0.78799995E+02 -0.11402E+05
 0.78849998E+02 -0.41344E+05
 0.78899994E+02 -0.70674E+05
 0.78949997E+02 -0.87294E+05
 0.78999992E+02 -0.92535E+05
 0.79049995E+02 -0.95357E+05
 0.79099998E+02 -0.98354E+05
 0.79149994E+02 -0.98965E+05
 0.79199997E+02 -0.96464E+05
 0.79249992E+02 -0.95323E+05
 0.79299995E+02 -0.97356E+05
 0.79349998E+02 -0.93989E+05
 0.79399994E+02 -0.79105E+05
 0.79449997E+02 -0.54800E+05
 0.79499992E+02 -0.29362E+05
 0.79549995E+02 -0.12515E+05
 0.79599998E+02 -0.58365E+04
 0.79649994E+02 -0.31964E+04
 0.79699997E+02  0.15266E+04
 0.79749992E+02  0.10925E+05
 0.79799995E+02  0.22544E+05
 0.79849998E+02  0.33904E+05
 0.79899994E+02  0.45461E+05
 0.79949997E+02  0.53832E+05
 0.79999992E+02  0.54568E+05
 0.80049995E+02  0.45636E+05
 0.80099998E+02  0.26905E+05
 0.80149994E+02  0.37966E+04
 0.80199997E+02 -0.21210E+05
 0.80249992E+02 -0.47660E+05
 0.80299995E+02 -0.77549E+05
 0.80349998E+02 -0.11547E+06
 0.80399994E+02 -0.15876E+06
 0.80449997E+02 -0.19862E+06
 0.80499992E+02 -0.22790E+06
 0.80549995E+02 -0.24207E+06
 0.80599998E+02 -0.23828E+06
 0.80649994E+02 -0.21983E+06
 0.80699997E+02 -0.19201E+06
 0.80749992E+02 -0.16334E+06
 0.80799995E+02 -0.13812E+06
 0.80849998E+02 -0.11263E+06
 0.80899994E+02 -0.86192E+05
 0.80949997E+02 -0.60786E+05
 0.80999992E+02 -0.38542E+05
 0.81049995E+02 -0.19176E+05
 0.81099998E+02  0.19567E+04
 0.81149994E+02  0.26218E+05
 0.81199997E+02  0.53934E+05
 0.81249992E+02  0.86685E+05
 0.81299995E+02  0.12237E+06
 0.81349998E+02  0.15540E+06
 0.81399994E+02  0.17983E+06
 0.81449997E+02  0.19597E+06
 0.81499992E+02  0.20977E+06
 0.81549995E+02  0.22237E+06
 0.81599998E+02  0.23102E+06
 0.81649994E+02  0.23198E+06
 0.81699997E+02  0.22010E+06
 0.81749992E+02  0.19255E+06
 0.81799995E+02  0.15169E+06
 0.81849998E+02  0.10503E+06
 0.81899994E+02  0.60020E+05
 0.81949997E+02  0.21848E+05
 0.81999992E+02 -0.75422E+04
 0.82049995E+02 -0.29583E+05
 0.82099998E+02 -0.51935E+05
 0.82149994E+02 -0.79491E+05
 0.82199997E+02 -0.11211E+06
 0.82249992E+02 -0.14512E+06
 0.82299995E+02 -0.16860E+06
 0.82349998E+02 -0.17600E+06
 0.82399994E+02 -0.16781E+06
 0.82449997E+02 -0.15228E+06
 0.82499992E+02 -0.14091E+06
 0.82549995E+02 -0.14203E+06
 0.82599998E+02 -0.15668E+06
 0.82649994E+02 -0.18361E+06
 0.82699997E+02 -0.21525E+06
 0.82749992E+02 -0.24011E+06
 0.82799995E+02 -0.25222E+06
 0.82849998E+02 -0.24716E+06
 0.82899994E+02 -0.22521E+06
 0.82949997E+02 -0.19236E+06
 0.82999992E+02 -0.15461E+06
 0.83049995E+02 -0.11853E+06
 0.83099998E+02 -0.86676E+05
 0.83149994E+02 -0.56577E+05
 0.83199997E+02 -0.24923E+05
 0.83249992E+02  0.93079E+04
 0.83299995E+02  0.42043E+05
 0.83349998E+02  0.68846E+05
 0.83399994E+02  0.84593E+05
 0.83449997E+02  0.88653E+05
 0.83499992E+02  0.85438E+05
 0.83549995E+02  0.81759E+05
 0.83599998E+02  0.83224E+05
 0.83649994E+02  0.88570E+05
 0.83699997E+02  0.96836E+05
 0.83749992E+02  0.10953E+06
 0.83799995E+02  0.13089E+06
 0.83849998E+02  0.15969E+06
 0.83899994E+02  0.18815E+06
 0.83949997E+02  0.21032E+06
 0.83999992E+02  0.22507E+06
 0.84049995E+02  0.23932E+06
 0.84099998E+02  0.25721E+06
 0.84149994E+02  0.27121E+06
 0.84199997E+02  0.27561E+06
 0.84249992E+02  0.26993E+06
 0.84299995E+02  0.25310E+06
 0.84349998E+02  0.22763E+06
 0.84399994E+02  0.19691E+06
 0.84449997E+02  0.16609E+06
 0.84499992E+02  0.14114E+06
 0.84549995E+02  0.12165E+06
 0.84599998E+02  0.10548E+06
 0.84649994E+02  0.92474E+05
 0.84699997E+02  0.79817E+05
 0.84749992E+02  0.66654E+05
 0.84799995E+02  0.56978E+05
 0.84849998E+02  0.53062E+05
 0.84899994E+02  0.55310E+05
 0.84949997E+02  0.58657E+05
 0.84999992E+02  0.54149E+05
 0.85049995E+02  0.43368E+05
 0.85099998E+02  0.34490E+05
 0.85149994E+02  0.31958E+05
 0.85199997E+02  0.33908E+05
 0.85249992E+02  0.33903E+05
 0.85299995E+02  0.27777E+05
 0.85349998E+02  0.15329E+05
 0.85399994E+02  0.10672E+04
 0.85449997E+02 -0.12712E+05
 0.85499992E+02 -0.25233E+05
 0.85549995E+02 -0.34385E+05
 0.85599998E+02 -0.40349E+05
 0.85649994E+02 -0.44143E+05
 0.85699997E+02 -0.47496E+05
 0.85749992E+02 -0.50616E+05
 0.85799995E+02 -0.49813E+05
 0.85849998E+02 -0.45034E+05
 0.85899994E+02 -0.41093E+05
 0.85949997E+02 -0.39082E+05
 0.85999992E+02 -0.40010E+05
 0.86049995E+02 -0.46420E+05
 0.86099998E+02 -0.59452E+05
 0.86149994E+02 -0.77497E+05
 0.86199997E+02 -0.94669E+05
 0.86249992E+02 -0.10736E+06
 0.86299995E+02 -0.11643E+06
 0.86349998E+02 -0.12199E+06
 0.86399994E+02 -0.12428E+06
 0.86449997E+02 -0.12421E+06
 0.86499992E+02 -0.12272E+06
 0.86549995E+02 -0.11824E+06
 0.86599998E+02 -0.10848E+06
 0.86649994E+02 -0.94757E+05
 0.86699997E+02 -0.76551E+05
 0.86749992E+02 -0.51282E+05
 0.86799995E+02 -0.19301E+05
 0.86849998E+02  0.14898E+05
 0.86899994E+02  0.48405E+05
 0.86949997E+02  0.81553E+05
 0.86999992E+02  0.11406E+06
 0.87049995E+02  0.14201E+06
 0.87099998E+02  0.16056E+06
 0.87149994E+02  0.17033E+06
 0.87199997E+02  0.17634E+06
 0.87249992E+02  0.18386E+06
 0.87299995E+02  0.19172E+06
 0.87349998E+02  0.19358E+06
 0.87399994E+02  0.18761E+06
 0.87449997E+02  0.17454E+06
 0.87499992E+02  0.15320E+06
 0.87549995E+02  0.12575E+06
 0.87599991E+02  0.97084E+05
 0.87649994E+02  0.74056E+05
 0.87699997E+02  0.60516E+05
 0.87749992E+02  0.56167E+05
 0.87799995E+02  0.59845E+05
 0.87849991E+02  0.65974E+05
 0.87899994E+02  0.67566E+05
 0.87949997E+02  0.61840E+05
 0.87999992E+02  0.50716E+05
 0.88049995E+02  0.36962E+05
 0.88099991E+02  0.19899E+05
 0.88149994E+02 -0.35207E+04
 0.88199997E+02 -0.30956E+05
 0.88249992E+02 -0.56050E+05
 0.88299995E+02 -0.77749E+05
 0.88349991E+02 -0.99367E+05
 0.88399994E+02 -0.12562E+06
 0.88449997E+02 -0.15922E+06
 0.88499992E+02 -0.19866E+06
 0.88549995E+02 -0.23971E+06
 0.88599991E+02 -0.27776E+06
 0.88649994E+02 -0.30993E+06
 0.88699997E+02 -0.33124E+06
 0.88749992E+02 -0.33808E+06
 0.88799995E+02 -0.33028E+06
 0.88849991E+02 -0.30841E+06
 0.88899994E+02 -0.27592E+06
 0.88949997E+02 -0.23750E+06
 0.88999992E+02 -0.19599E+06
 0.89049995E+02 -0.15480E+06
 0.89099991E+02 -0.11781E+06
 0.89149994E+02 -0.88134E+05
 0.89199997E+02 -0.68888E+05
 0.89249992E+02 -0.58988E+05
 0.89299995E+02 -0.52714E+05
 0.89349991E+02 -0.44854E+05
 0.89399994E+02 -0.31883E+05
 0.89449997E+02 -0.13366E+05
 0.89499992E+02  0.88206E+04
 0.89549995E+02  0.35403E+05
 0.89599991E+02  0.66124E+05
 0.89649994E+02  0.98168E+05
 0.89699997E+02  0.12893E+06
 0.89749992E+02  0.15602E+06
 0.89799995E+02  0.17872E+06
 0.89849991E+02  0.19565E+06
 0.89899994E+02  0.20284E+06
 0.89949997E+02  0.19882E+06
 0.89999992E+02  0.18776E+06
 0.90049995E+02  0.17435E+06
 0.90099991E+02  0.16266E+06
 0.90149994E+02  0.15371E+06
 0.90199997E+02  0.14514E+06
 0.90249992E+02  0.13405E+06
 0.90299995E+02  0.11776E+06
 0.90349991E+02  0.97027E+05
 0.90399994E+02  0.74924E+05
 0.90449997E+02  0.54274E+05
 0.90499992E+02  0.34470E+05
 0.90549995E+02  0.16588E+05
 0.90599991E+02  0.42558E+04
 0.90649994E+02 -0.14195E+04
 0.90699997E+02 -0.47400E+04
 0.90749992E+02 -0.11692E+05
 0.90799995E+02 -0.21937E+05
 0.90849991E+02 -0.33877E+05
 0.90899994E+02 -0.47820E+05
 0.90949997E+02 -0.62587E+05
 0.90999992E+02 -0.77987E+05
 0.91049995E+02 -0.93462E+05
 0.91099991E+02 -0.10387E+06
 0.91149994E+02 -0.10438E+06
 0.91199997E+02 -0.93180E+05
 0.91249992E+02 -0.72478E+05
 0.91299995E+02 -0.48881E+05
 0.91349991E+02 -0.29340E+05
 0.91399994E+02 -0.16121E+05
 0.91449997E+02 -0.87245E+04
 0.91499992E+02 -0.55327E+04
 0.91549995E+02 -0.18771E+04
 0.91599991E+02  0.39478E+04
 0.91649994E+02  0.12271E+05
 0.91699997E+02  0.21332E+05
 0.91749992E+02  0.26862E+05
 0.91799995E+02  0.27298E+05
 0.91849991E+02  0.23695E+05
 0.91899994E+02  0.18100E+05
 0.91949997E+02  0.13310E+05
 0.91999992E+02  0.10837E+05
 0.92049995E+02  0.96216E+04
 0.92099991E+02  0.83932E+04
 0.92149994E+02  0.59295E+04
 0.92199997E+02  0.19011E+04
 0.92249992E+02 -0.44430E+04
 0.92299995E+02 -0.13568E+05
 0.92349991E+02 -0.25154E+05
 0.92399994E+02 -0.37178E+05
 0.92449997E+02 -0.45440E+05
 0.92499992E+02 -0.45312E+05
 0.92549995E+02 -0.33255E+05
 0.92599991E+02 -0.93658E+04
 0.92649994E+02  0.21372E+05
 0.92699997E+02  0.51770E+05
 0.92749992E+02  0.75729E+05
 0.92799995E+02  0.89398E+05
 0.92849991E+02  0.95803E+05
 0.92899994E+02  0.10087E+06
 0.92949997E+02  0.10605E+06
 0.92999992E+02  0.10909E+06
 0.93049995E+02  0.10876E+06
 0.93099991E+02  0.10633E+06
 0.93149994E+02  0.10280E+06
 0.93199997E+02  0.97085E+05
 0.93249992E+02  0.86212E+05
 0.93299995E+02  0.72370E+05
 0.93349991E+02  0.60748E+05
 0.93399994E+02  0.53854E+05
 0.93449997E+02  0.50673E+05
 0.93499992E+02  0.46917E+05
 0.93549995E+02  0.39374E+05
 0.93599991E+02  0.29756E+05
 0.93649994E+02  0.19995E+05
 0.93699997E+02  0.81963E+04
 0.93749992E+02 -0.69863E+04
 0.93799995E+02 -0.26853E+05
 0.93849991E+02 -0.52654E+05
 0.93899994E+02 -0.83006E+05
 0.93949997E+02 -0.11387E+06
 0.93999992E+02 -0.13904E+06
 0.94049995E+02 -0.15274E+06
 0.94099991E+02 -0.15514E+06
 0.94149994E+02 -0.14940E+06
 0.94199997E+02 -0.13636E+06
 0.94249992E+02 -0.11671E+06
 0.94299995E+02 -0.91877E+05
 0.94349991E+02 -0.64639E+05
 0.94399994E+02 -0.38277E+05
 0.94449997E+02 -0.13887E+05
 0.94499992E+02  0.90346E+04
 0.94549995E+02  0.29183E+05
 0.94599991E+02  0.44088E+05
 0.94649994E+02  0.52146E+05
 0.94699997E+02  0.52253E+05
 0.94749992E+02  0.43283E+05
 0.94799995E+02  0.23830E+05
 0.94849991E+02 -0.35164E+04
 0.94899994E+02 -0.33469E+05
 0.94949997E+02 -0.61736E+05
 0.94999992E+02 -0.83891E+05
 0.95049995E+02 -0.95573E+05
 0.95099991E+02 -0.97686E+05
 0.95149994E+02 -0.94200E+05
 0.95199997E+02 -0.90283E+05
 0.95249992E+02 -0.87972E+05
 0.95299995E+02 -0.84861E+05
 0.95349991E+02 -0.81407E+05
 0.95399994E+02 -0.78502E+05
 0.95449997E+02 -0.76503E+05
 0.95499992E+02 -0.74445E+05
 0.95549995E+02 -0.72323E+05
 0.95599991E+02 -0.70621E+05
 0.95649994E+02 -0.70701E+05
 0.95699997E+02 -0.73414E+05
 0.95749992E+02 -0.76841E+05
 0.95799995E+02 -0.78290E+05
 0.95849991E+02 -0.76957E+05
 0.95899994E+02 -0.73078E+05
 0.95949997E+02 -0.65243E+05
 0.95999992E+02 -0.52827E+05
 0.96049995E+02 -0.35327E+05
 0.96099991E+02 -0.13932E+05
 0.96149994E+02  0.91390E+04
 0.96199997E+02  0.32134E+05
 0.96249992E+02  0.53062E+05
 0.96299995E+02  0.71404E+05
 0.96349991E+02  0.86974E+05
 0.96399994E+02  0.98918E+05
 0.96449997E+02  0.10660E+06
 0.96499992E+02  0.11128E+06
 0.96549995E+02  0.11452E+06
 0.96599991E+02  0.11422E+06
 0.96649994E+02  0.10766E+06
 0.96699997E+02  0.93171E+05
 0.96749992E+02  0.70076E+05
 0.96799995E+02  0.40130E+05
 0.96849991E+02  0.56799E+04
 0.96899994E+02 -0.29428E+05
 0.96949997E+02 -0.57461E+05
 0.96999992E+02 -0.71660E+05
 0.97049995E+02 -0.69414E+05
 0.97099991E+02 -0.53092E+05
 0.97149994E+02 -0.28702E+05
 0.97199997E+02 -0.91202E+03
 0.97249992E+02  0.26390E+05
 0.97299995E+02  0.49997E+05
 0.97349991E+02  0.68019E+05
 0.97399994E+02  0.80035E+05
 0.97449997E+02  0.88465E+05
 0.97499992E+02  0.97055E+05
 0.97549995E+02  0.10693E+06
 0.97599991E+02  0.11549E+06
 0.97649994E+02  0.11935E+06
 0.97699997E+02  0.11736E+06
 0.97749992E+02  0.11096E+06
 0.97799995E+02  0.10307E+06
 0.97849991E+02  0.95869E+05
 0.97899994E+02  0.89087E+05
 0.97949997E+02  0.80760E+05
 0.97999992E+02  0.70210E+05
