-0.19969940E+01 -0.47704E+04
-0.19469941E+01 -0.47597E+04
-0.18969940E+01 -0.48117E+04
-0.18469940E+01 -0.48674E+04
-0.17969940E+01 -0.49155E+04
-0.17469940E+01 -0.49665E+04
-0.16969941E+01 -0.50276E+04
-0.16469941E+01 -0.50556E+04
-0.15969940E+01 -0.50620E+04
-0.15469940E+01 -0.50528E+04
-0.14969940E+01 -0.50496E+04
-0.14469941E+01 -0.50418E+04
-0.13969941E+01 -0.50215E+04
-0.13469940E+01 -0.49927E+04
-0.12969941E+01 -0.49744E+04
-0.12469940E+01 -0.49722E+04
-0.11969941E+01 -0.49375E+04
-0.11469941E+01 -0.48867E+04
-0.10969940E+01 -0.48230E+04
-0.10469941E+01 -0.47551E+04
-0.99699408E+00 -0.46656E+04
-0.94699407E+00 -0.45621E+04
-0.89699411E+00 -0.44720E+04
-0.84699404E+00 -0.43723E+04
-0.79699409E+00 -0.43035E+04
-0.74699414E+00 -0.42596E+04
-0.69699407E+00 -0.42388E+04
-0.64699411E+00 -0.42458E+04
-0.59699416E+00 -0.42502E+04
-0.54699409E+00 -0.43004E+04
-0.49699414E+00 -0.43555E+04
-0.44699407E+00 -0.44114E+04
-0.39699411E+00 -0.44607E+04
-0.34699416E+00 -0.45097E+04
-0.29699409E+00 -0.45482E+04
-0.24699414E+00 -0.45756E+04
-0.19699407E+00 -0.46288E+04
-0.14699411E+00 -0.46719E+04
-0.96994162E-01 -0.46811E+04
-0.46994090E-01 -0.46886E+04
 0.30058622E-02 -0.47041E+04
 0.53005934E-01 -0.47468E+04
 0.10300589E+00 -0.47397E+04
 0.15300584E+00 -0.47263E+04
 0.20300579E+00 -0.47204E+04
 0.25300574E+00 -0.47268E+04
 0.30300593E+00 -0.47249E+04
 0.35300589E+00 -0.46948E+04
 0.40300584E+00 -0.47058E+04
 0.45300579E+00 -0.46991E+04
 0.50300574E+00 -0.47126E+04
 0.55300593E+00 -0.47022E+04
 0.60300589E+00 -0.47195E+04
 0.65300584E+00 -0.47145E+04
 0.70300579E+00 -0.47300E+04
 0.75300574E+00 -0.47463E+04
 0.80300570E+00 -0.47677E+04
 0.85300589E+00 -0.48153E+04
 0.90300584E+00 -0.48538E+04
 0.95300579E+00 -0.48955E+04
 0.10030057E+01 -0.49143E+04
 0.10530057E+01 -0.49230E+04
 0.11030059E+01 -0.48895E+04
 0.11530058E+01 -0.48642E+04
 0.12030058E+01 -0.48236E+04
 0.12530057E+01 -0.47863E+04
 0.13030057E+01 -0.47645E+04
 0.13530059E+01 -0.46670E+04
 0.14030058E+01 -0.45888E+04
 0.14530058E+01 -0.45122E+04
 0.15030057E+01 -0.44259E+04
 0.15530057E+01 -0.44088E+04
 0.16030059E+01 -0.43694E+04
 0.16530058E+01 -0.43826E+04
 0.17030058E+01 -0.44090E+04
 0.17530057E+01 -0.44205E+04
 0.18030057E+01 -0.44309E+04
 0.18530056E+01 -0.44720E+04
 0.19030058E+01 -0.45093E+04
 0.19530058E+01 -0.45544E+04
 0.20030057E+01 -0.46351E+04
 0.20530057E+01 -0.47272E+04
 0.21030059E+01 -0.48381E+04
 0.21530056E+01 -0.49338E+04
 0.22030058E+01 -0.49990E+04
 0.22530055E+01 -0.50548E+04
 0.23030057E+01 -0.50763E+04
 0.23530059E+01 -0.50562E+04
 0.24030056E+01 -0.50398E+04
 0.24530058E+01 -0.49939E+04
 0.25030055E+01 -0.49396E+04
 0.25530057E+01 -0.49262E+04
 0.26030059E+01 -0.49030E+04
 0.26530056E+01 -0.48711E+04
 0.27030058E+01 -0.48455E+04
 0.27530055E+01 -0.48068E+04
 0.28030057E+01 -0.48171E+04
 0.28530059E+01 -0.47562E+04
 0.29030056E+01 -0.46890E+04
 0.29530058E+01 -0.46420E+04
 0.30030055E+01 -0.45794E+04
 0.30530057E+01 -0.45250E+04
 0.31030059E+01 -0.44688E+04
 0.31530056E+01 -0.44185E+04
 0.32030058E+01 -0.43691E+04
 0.32530055E+01 -0.43401E+04
 0.33030057E+01 -0.43080E+04
 0.33530059E+01 -0.43029E+04
 0.34030056E+01 -0.43420E+04
 0.34530058E+01 -0.44010E+04
 0.35030055E+01 -0.44755E+04
 0.35530057E+01 -0.45483E+04
 0.36030054E+01 -0.46022E+04
 0.36530056E+01 -0.46590E+04
 0.37030058E+01 -0.46944E+04
 0.37530055E+01 -0.47843E+04
 0.38030057E+01 -0.48126E+04
 0.38530054E+01 -0.48480E+04
 0.39030056E+01 -0.48790E+04
 0.39530058E+01 -0.48384E+04
 0.40030055E+01 -0.48298E+04
 0.40530057E+01 -0.47918E+04
 0.41030054E+01 -0.47810E+04
 0.41530056E+01 -0.47201E+04
 0.42030058E+01 -0.46883E+04
 0.42530055E+01 -0.46652E+04
 0.43030057E+01 -0.46164E+04
 0.43530054E+01 -0.45966E+04
 0.44030056E+01 -0.45911E+04
 0.44530058E+01 -0.46324E+04
 0.45030055E+01 -0.46413E+04
 0.45530057E+01 -0.46482E+04
 0.46030054E+01 -0.46416E+04
 0.46530056E+01 -0.46466E+04
 0.47030058E+01 -0.46632E+04
 0.47530055E+01 -0.46573E+04
 0.48030057E+01 -0.47071E+04
 0.48530054E+01 -0.47451E+04
 0.49030056E+01 -0.47814E+04
 0.49530058E+01 -0.47718E+04
 0.50030055E+01 -0.47256E+04
 0.50530057E+01 -0.47156E+04
 0.51030054E+01 -0.46887E+04
 0.51530056E+01 -0.46954E+04
 0.52030058E+01 -0.46903E+04
 0.52530055E+01 -0.47018E+04
 0.53030057E+01 -0.47205E+04
 0.53530054E+01 -0.47155E+04
 0.54030056E+01 -0.47494E+04
 0.54530053E+01 -0.47570E+04
 0.55030055E+01 -0.48076E+04
 0.55530057E+01 -0.48370E+04
 0.56030054E+01 -0.48641E+04
 0.56530056E+01 -0.49152E+04
 0.57030053E+01 -0.49128E+04
 0.57530055E+01 -0.49248E+04
 0.58030057E+01 -0.48972E+04
 0.58530054E+01 -0.48996E+04
 0.59030056E+01 -0.48779E+04
 0.59530053E+01 -0.48603E+04
 0.60030055E+01 -0.48297E+04
 0.60530052E+01 -0.47962E+04
 0.61030054E+01 -0.47561E+04
 0.61530056E+01 -0.46623E+04
 0.62030058E+01 -0.46366E+04
 0.62530050E+01 -0.45814E+04
 0.63030052E+01 -0.45561E+04
 0.63530054E+01 -0.45257E+04
 0.64030056E+01 -0.45304E+04
 0.64530058E+01 -0.45023E+04
 0.65030050E+01 -0.44227E+04
 0.65530052E+01 -0.44114E+04
 0.66030054E+01 -0.43925E+04
 0.66530056E+01 -0.43933E+04
 0.67030058E+01 -0.44468E+04
 0.67530050E+01 -0.45224E+04
 0.68030052E+01 -0.46076E+04
 0.68530054E+01 -0.46947E+04
 0.69030056E+01 -0.47572E+04
 0.69530058E+01 -0.48222E+04
 0.70030050E+01 -0.48386E+04
 0.70530052E+01 -0.48900E+04
 0.71030054E+01 -0.49302E+04
 0.71530056E+01 -0.49342E+04
 0.72030058E+01 -0.49310E+04
 0.72530050E+01 -0.48827E+04
 0.73030052E+01 -0.48593E+04
 0.73530054E+01 -0.48339E+04
 0.74030056E+01 -0.48304E+04
 0.74530058E+01 -0.48188E+04
 0.75030050E+01 -0.48041E+04
 0.75530052E+01 -0.47771E+04
 0.76030054E+01 -0.47335E+04
 0.76530056E+01 -0.47180E+04
 0.77030058E+01 -0.46791E+04
 0.77530050E+01 -0.45984E+04
 0.78030052E+01 -0.45355E+04
 0.78530054E+01 -0.45375E+04
 0.79030056E+01 -0.44787E+04
 0.79530058E+01 -0.44203E+04
 0.80030050E+01 -0.44894E+04
 0.80530052E+01 -0.45543E+04
 0.81030054E+01 -0.46038E+04
 0.81530056E+01 -0.46809E+04
 0.82030058E+01 -0.47246E+04
 0.82530050E+01 -0.47614E+04
 0.83030052E+01 -0.47941E+04
 0.83530054E+01 -0.47881E+04
 0.84030056E+01 -0.48040E+04
 0.84530058E+01 -0.47908E+04
 0.85030050E+01 -0.47894E+04
 0.85530052E+01 -0.48105E+04
 0.86030054E+01 -0.47910E+04
 0.86530056E+01 -0.47564E+04
 0.87030058E+01 -0.46985E+04
 0.87530050E+01 -0.46497E+04
 0.88030052E+01 -0.46019E+04
 0.88530054E+01 -0.45685E+04
 0.89030056E+01 -0.45327E+04
 0.89530058E+01 -0.44939E+04
 0.90030050E+01 -0.45260E+04
 0.90530052E+01 -0.45134E+04
 0.91030054E+01 -0.45024E+04
 0.91530056E+01 -0.45268E+04
 0.92030048E+01 -0.45356E+04
 0.92530050E+01 -0.45649E+04
 0.93030052E+01 -0.45476E+04
 0.93530054E+01 -0.45696E+04
 0.94030056E+01 -0.45995E+04
 0.94530048E+01 -0.45909E+04
 0.95030050E+01 -0.46074E+04
 0.95530052E+01 -0.46072E+04
 0.96030054E+01 -0.46198E+04
 0.96530056E+01 -0.46416E+04
 0.97030048E+01 -0.45887E+04
 0.97530050E+01 -0.46729E+04
 0.98030052E+01 -0.46694E+04
 0.98530054E+01 -0.46720E+04
 0.99030056E+01 -0.47604E+04
 0.99530048E+01 -0.47703E+04
 0.10003005E+02 -0.48395E+04
 0.10053005E+02 -0.48316E+04
 0.10103005E+02 -0.48438E+04
 0.10153006E+02 -0.48008E+04
 0.10203005E+02 -0.47880E+04
 0.10253005E+02 -0.47448E+04
 0.10303005E+02 -0.47219E+04
 0.10353005E+02 -0.47406E+04
 0.10403006E+02 -0.47129E+04
 0.10453005E+02 -0.47183E+04
 0.10503005E+02 -0.47088E+04
 0.10553005E+02 -0.47259E+04
 0.10603005E+02 -0.47325E+04
 0.10653006E+02 -0.47377E+04
 0.10703005E+02 -0.47436E+04
 0.10753005E+02 -0.48059E+04
 0.10803005E+02 -0.48369E+04
 0.10853005E+02 -0.48390E+04
 0.10903006E+02 -0.48201E+04
 0.10953005E+02 -0.47985E+04
 0.11003005E+02 -0.47853E+04
 0.11053005E+02 -0.47689E+04
 0.11103005E+02 -0.47605E+04
 0.11153006E+02 -0.47165E+04
 0.11203005E+02 -0.47335E+04
 0.11253005E+02 -0.47384E+04
 0.11303005E+02 -0.47972E+04
 0.11353005E+02 -0.48516E+04
 0.11403006E+02 -0.48194E+04
 0.11453005E+02 -0.48294E+04
 0.11503005E+02 -0.47867E+04
 0.11553005E+02 -0.47343E+04
 0.11603005E+02 -0.46673E+04
 0.11653006E+02 -0.46372E+04
 0.11703005E+02 -0.45965E+04
 0.11753005E+02 -0.45371E+04
 0.11803005E+02 -0.44943E+04
 0.11853005E+02 -0.44427E+04
 0.11903006E+02 -0.43970E+04
 0.11953005E+02 -0.43421E+04
 0.12003005E+02 -0.43630E+04
 0.12053005E+02 -0.43534E+04
 0.12103005E+02 -0.43870E+04
 0.12153006E+02 -0.44559E+04
 0.12203005E+02 -0.45199E+04
 0.12253005E+02 -0.45703E+04
 0.12303005E+02 -0.46769E+04
 0.12353005E+02 -0.47702E+04
 0.12403006E+02 -0.48016E+04
 0.12453005E+02 -0.48642E+04
 0.12503005E+02 -0.48884E+04
 0.12553005E+02 -0.49117E+04
 0.12603005E+02 -0.49161E+04
 0.12653005E+02 -0.49548E+04
 0.12703005E+02 -0.49129E+04
 0.12753005E+02 -0.49109E+04
 0.12803005E+02 -0.48878E+04
 0.12853005E+02 -0.48814E+04
 0.12903005E+02 -0.48850E+04
 0.12953005E+02 -0.48127E+04
 0.13003005E+02 -0.48198E+04
 0.13053005E+02 -0.47404E+04
 0.13103005E+02 -0.47224E+04
 0.13153005E+02 -0.46808E+04
 0.13203005E+02 -0.46269E+04
 0.13253005E+02 -0.46026E+04
 0.13303005E+02 -0.45685E+04
 0.13353005E+02 -0.45608E+04
 0.13403005E+02 -0.45421E+04
 0.13453005E+02 -0.45358E+04
 0.13503005E+02 -0.45341E+04
 0.13553005E+02 -0.45520E+04
 0.13603005E+02 -0.45462E+04
 0.13653005E+02 -0.45025E+04
 0.13703005E+02 -0.45234E+04
 0.13753005E+02 -0.45013E+04
 0.13803005E+02 -0.44981E+04
 0.13853005E+02 -0.45356E+04
 0.13903005E+02 -0.45161E+04
 0.13953005E+02 -0.45687E+04
 0.14003005E+02 -0.45987E+04
 0.14053005E+02 -0.46309E+04
 0.14103004E+02 -0.46941E+04
 0.14153006E+02 -0.47338E+04
 0.14203005E+02 -0.47634E+04
 0.14253004E+02 -0.48240E+04
 0.14303005E+02 -0.48353E+04
 0.14353004E+02 -0.48845E+04
 0.14403006E+02 -0.49100E+04
 0.14453005E+02 -0.49262E+04
 0.14503004E+02 -0.49864E+04
 0.14553005E+02 -0.50342E+04
 0.14603004E+02 -0.50704E+04
 0.14653006E+02 -0.50956E+04
 0.14703005E+02 -0.51033E+04
 0.14753004E+02 -0.50708E+04
 0.14803005E+02 -0.50516E+04
 0.14853004E+02 -0.50109E+04
 0.14903006E+02 -0.49606E+04
 0.14953005E+02 -0.48615E+04
 0.15003004E+02 -0.48075E+04
 0.15053005E+02 -0.47319E+04
 0.15103004E+02 -0.46305E+04
 0.15153006E+02 -0.45565E+04
 0.15203005E+02 -0.44535E+04
 0.15253004E+02 -0.43609E+04
 0.15303005E+02 -0.43069E+04
 0.15353004E+02 -0.43011E+04
 0.15403006E+02 -0.42843E+04
 0.15453005E+02 -0.43028E+04
 0.15503004E+02 -0.43137E+04
 0.15553005E+02 -0.43376E+04
 0.15603004E+02 -0.43603E+04
 0.15653006E+02 -0.43724E+04
 0.15703005E+02 -0.43954E+04
 0.15753004E+02 -0.44056E+04
 0.15803005E+02 -0.44077E+04
 0.15853004E+02 -0.44486E+04
 0.15903006E+02 -0.44652E+04
 0.15953005E+02 -0.44598E+04
 0.16003004E+02 -0.45066E+04
 0.16053005E+02 -0.44870E+04
 0.16103004E+02 -0.45365E+04
 0.16153006E+02 -0.45946E+04
 0.16203005E+02 -0.46423E+04
 0.16253004E+02 -0.47030E+04
 0.16303005E+02 -0.47414E+04
 0.16353004E+02 -0.48178E+04
 0.16403006E+02 -0.48664E+04
 0.16453005E+02 -0.49317E+04
 0.16503004E+02 -0.49699E+04
 0.16553005E+02 -0.50011E+04
 0.16603004E+02 -0.50114E+04
 0.16653006E+02 -0.49855E+04
 0.16703005E+02 -0.49808E+04
 0.16753004E+02 -0.49207E+04
 0.16803005E+02 -0.49276E+04
 0.16853004E+02 -0.48757E+04
 0.16903006E+02 -0.48504E+04
 0.16953005E+02 -0.48450E+04
 0.17003004E+02 -0.48113E+04
 0.17053005E+02 -0.48281E+04
 0.17103004E+02 -0.47779E+04
 0.17153006E+02 -0.47548E+04
 0.17203005E+02 -0.47042E+04
 0.17253004E+02 -0.46892E+04
 0.17303005E+02 -0.46737E+04
 0.17353004E+02 -0.46771E+04
 0.17403006E+02 -0.46747E+04
 0.17453005E+02 -0.46612E+04
 0.17503004E+02 -0.46935E+04
 0.17553005E+02 -0.46848E+04
 0.17603004E+02 -0.47037E+04
 0.17653006E+02 -0.46716E+04
 0.17703005E+02 -0.46589E+04
 0.17753004E+02 -0.46592E+04
 0.17803005E+02 -0.46177E+04
 0.17853004E+02 -0.45877E+04
 0.17903006E+02 -0.45507E+04
 0.17953005E+02 -0.45450E+04
 0.18003004E+02 -0.45072E+04
 0.18053005E+02 -0.45178E+04
 0.18103004E+02 -0.45072E+04
 0.18153006E+02 -0.45183E+04
 0.18203005E+02 -0.45605E+04
 0.18253004E+02 -0.45565E+04
 0.18303005E+02 -0.46174E+04
 0.18353004E+02 -0.46363E+04
 0.18403006E+02 -0.46585E+04
 0.18453005E+02 -0.46787E+04
 0.18503004E+02 -0.46947E+04
 0.18553005E+02 -0.47144E+04
 0.18603004E+02 -0.47084E+04
 0.18653006E+02 -0.47139E+04
 0.18703005E+02 -0.47098E+04
 0.18753004E+02 -0.46941E+04
 0.18803005E+02 -0.47075E+04
 0.18853004E+02 -0.46753E+04
 0.18903006E+02 -0.46820E+04
 0.18953005E+02 -0.46884E+04
 0.19003004E+02 -0.46698E+04
 0.19053005E+02 -0.46526E+04
 0.19103004E+02 -0.46123E+04
 0.19153006E+02 -0.46613E+04
 0.19203005E+02 -0.46666E+04
 0.19253004E+02 -0.46784E+04
 0.19303005E+02 -0.47063E+04
 0.19353004E+02 -0.47160E+04
 0.19403006E+02 -0.47407E+04
 0.19453005E+02 -0.47670E+04
 0.19503004E+02 -0.47539E+04
 0.19553005E+02 -0.47611E+04
 0.19603004E+02 -0.47731E+04
 0.19653006E+02 -0.47945E+04
 0.19703005E+02 -0.48166E+04
 0.19753004E+02 -0.48544E+04
 0.19803005E+02 -0.48821E+04
 0.19853004E+02 -0.48870E+04
 0.19903006E+02 -0.49215E+04
 0.19953005E+02 -0.49109E+04
 0.20003004E+02 -0.48994E+04
 0.20053005E+02 -0.48775E+04
 0.20103004E+02 -0.48064E+04
 0.20153006E+02 -0.47569E+04
 0.20203005E+02 -0.47072E+04
 0.20253004E+02 -0.46920E+04
 0.20303005E+02 -0.46673E+04
 0.20353004E+02 -0.45936E+04
 0.20403004E+02 -0.45762E+04
 0.20453005E+02 -0.45301E+04
 0.20503004E+02 -0.45085E+04
 0.20553005E+02 -0.45127E+04
 0.20603004E+02 -0.45237E+04
 0.20653004E+02 -0.45978E+04
 0.20703005E+02 -0.46245E+04
 0.20753004E+02 -0.46074E+04
 0.20803005E+02 -0.47085E+04
 0.20853004E+02 -0.47091E+04
 0.20903004E+02 -0.46824E+04
 0.20953005E+02 -0.47778E+04
 0.21003004E+02 -0.46872E+04
 0.21053005E+02 -0.48536E+04
 0.21103004E+02 -0.47029E+04
 0.21153004E+02 -0.48439E+04
 0.21203005E+02 -0.47229E+04
 0.21253004E+02 -0.47317E+04
 0.21303005E+02 -0.47441E+04
 0.21353004E+02 -0.47091E+04
 0.21403004E+02 -0.45964E+04
 0.21453005E+02 -0.46174E+04
 0.21503004E+02 -0.47418E+04
 0.21553005E+02 -0.44028E+04
 0.21603004E+02 -0.46272E+04
 0.21653004E+02 -0.44237E+04
 0.21703005E+02 -0.49639E+04
 0.21753004E+02 -0.37421E+04
 0.21803005E+02 -0.56984E+04
 0.21853004E+02 -0.24955E+04
 0.21903004E+02 -0.62918E+04
 0.21953005E+02 -0.46057E+04
 0.22003004E+02 -0.25315E+04
 0.22053005E+02 -0.84361E+04
 0.22103004E+02 -0.12165E+04
 0.22153004E+02 -0.69842E+04
 0.22203005E+02 -0.34164E+04
 0.22253004E+02 -0.57386E+04
 0.22303005E+02 -0.52201E+04
 0.22353004E+02 -0.36450E+04
 0.22403004E+02 -0.68547E+04
 0.22453005E+02 -0.20288E+04
 0.22503004E+02 -0.71108E+04
 0.22553005E+02 -0.27892E+04
 0.22603004E+02 -0.58515E+04
 0.22653004E+02 -0.52199E+04
 0.22703005E+02 -0.36354E+04
 0.22753004E+02 -0.56371E+04
 0.22803005E+02 -0.34749E+04
 0.22853004E+02 -0.50854E+04
 0.22903004E+02 -0.44693E+04
 0.22953005E+02 -0.37668E+04
 0.23003004E+02 -0.61742E+04
 0.23053005E+02 -0.49204E+04
 0.23103004E+02 -0.30146E+04
 0.23153004E+02 -0.68893E+04
 0.23203005E+02 -0.35298E+04
 0.23253004E+02 -0.57534E+04
 0.23303005E+02 -0.47421E+04
 0.23353004E+02 -0.41078E+04
 0.23403004E+02 -0.68338E+04
 0.23453005E+02 -0.29803E+04
 0.23503004E+02 -0.33784E+04
 0.23553005E+02 -0.53045E+04
 0.23603004E+02 -0.53412E+04
 0.23653004E+02 -0.42675E+04
 0.23703005E+02 -0.58744E+04
 0.23753004E+02 -0.48824E+04
 0.23803005E+02 -0.38209E+04
 0.23853004E+02 -0.43333E+04
 0.23903004E+02 -0.39353E+04
 0.23953005E+02 -0.40444E+04
 0.24003004E+02 -0.57839E+04
 0.24053005E+02 -0.30831E+04
 0.24103004E+02 -0.50029E+04
 0.24153004E+02 -0.56371E+04
 0.24203005E+02 -0.21599E+04
 0.24253004E+02 -0.52948E+04
 0.24303005E+02 -0.38943E+04
 0.24353004E+02 -0.42573E+04
 0.24403004E+02 -0.58401E+04
 0.24453005E+02 -0.44681E+04
 0.24503004E+02 -0.36306E+04
 0.24553005E+02 -0.43136E+04
 0.24603004E+02 -0.49157E+04
 0.24653004E+02 -0.50238E+04
 0.24703005E+02 -0.44705E+04
 0.24753004E+02 -0.72606E+04
 0.24803005E+02 -0.28512E+04
 0.24853004E+02 -0.18260E+04
 0.24903004E+02 -0.98894E+04
 0.24953005E+02 -0.36859E+04
 0.25003004E+02 -0.33299E+04
 0.25053005E+02 -0.78844E+04
 0.25103004E+02 -0.33003E+04
 0.25153004E+02 -0.42290E+04
 0.25203005E+02 -0.59241E+04
 0.25253004E+02 -0.50343E+04
 0.25303005E+02 -0.47878E+04
 0.25353004E+02 -0.32930E+04
 0.25403004E+02 -0.70006E+04
 0.25453005E+02 -0.58597E+04
 0.25503004E+02 -0.36637E+04
 0.25553005E+02 -0.47751E+04
 0.25603004E+02 -0.66172E+04
 0.25653004E+02 -0.40717E+04
 0.25703005E+02 -0.39191E+04
 0.25753004E+02 -0.56149E+04
 0.25803005E+02 -0.28840E+04
 0.25853004E+02 -0.56904E+04
 0.25903004E+02 -0.36028E+04
 0.25953005E+02 -0.52736E+04
 0.26003004E+02 -0.54536E+04
 0.26053005E+02 -0.28819E+04
 0.26103004E+02 -0.63804E+04
 0.26153004E+02 -0.52789E+04
 0.26203005E+02 -0.67311E+04
 0.26253004E+02 -0.21828E+04
 0.26303005E+02 -0.32190E+04
 0.26353004E+02 -0.45332E+04
 0.26403004E+02 -0.38939E+04
 0.26453005E+02 -0.61012E+04
 0.26503004E+02 -0.44443E+04
 0.26553005E+02 -0.39010E+04
 0.26603004E+02 -0.54866E+04
 0.26653004E+02 -0.41441E+04
 0.26703005E+02 -0.41176E+04
 0.26753004E+02 -0.67892E+04
 0.26803005E+02 -0.38123E+04
 0.26853004E+02 -0.16810E+04
 0.26903004E+02 -0.53478E+04
 0.26953005E+02 -0.56485E+04
 0.27003004E+02 -0.49531E+04
 0.27053003E+02 -0.57234E+04
 0.27103004E+02 -0.29582E+04
 0.27153004E+02 -0.52628E+04
 0.27203005E+02 -0.40526E+04
 0.27253004E+02 -0.35397E+04
 0.27303003E+02 -0.42193E+04
 0.27353004E+02 -0.63869E+04
 0.27403004E+02 -0.58545E+04
 0.27453005E+02 -0.24478E+04
 0.27503004E+02 -0.22220E+04
 0.27553003E+02 -0.40169E+04
 0.27603004E+02 -0.65067E+04
 0.27653004E+02 -0.65604E+04
 0.27703005E+02 -0.43790E+04
 0.27753004E+02 -0.51378E+04
 0.27803003E+02 -0.59818E+04
 0.27853004E+02 -0.47851E+04
 0.27903004E+02 -0.47068E+04
 0.27953005E+02 -0.58552E+04
 0.28003004E+02 -0.30503E+04
 0.28053003E+02 -0.25482E+04
 0.28103004E+02 -0.51156E+04
 0.28153004E+02 -0.75290E+04
 0.28203005E+02 -0.69901E+04
 0.28253004E+02 -0.34000E+04
 0.28303003E+02 -0.46001E+04
 0.28353004E+02 -0.11278E+04
 0.28403004E+02 -0.73506E+04
 0.28453005E+02 -0.58460E+04
 0.28503004E+02 -0.10935E+04
 0.28553003E+02 -0.57676E+04
 0.28603004E+02 -0.52624E+04
 0.28653004E+02 -0.52906E+04
 0.28703005E+02 -0.60847E+04
 0.28753004E+02 -0.27035E+04
 0.28803003E+02 -0.63288E+04
 0.28853004E+02 -0.39693E+04
 0.28903004E+02 -0.45830E+04
 0.28953005E+02 -0.46865E+04
 0.29003004E+02 -0.28862E+04
 0.29053003E+02 -0.50490E+04
 0.29103004E+02 -0.14046E+04
 0.29153004E+02 -0.49356E+04
 0.29203005E+02 -0.74490E+04
 0.29253004E+02 -0.41624E+04
 0.29303003E+02 -0.43515E+04
 0.29353004E+02 -0.57933E+04
 0.29403004E+02 -0.19647E+04
 0.29453005E+02 -0.65835E+04
 0.29503004E+02 -0.43802E+04
 0.29553003E+02 -0.21477E+04
 0.29603004E+02 -0.42041E+04
 0.29653004E+02 -0.84453E+04
 0.29703005E+02 -0.60380E+04
 0.29753004E+02 -0.25236E+04
 0.29803003E+02 -0.27640E+04
 0.29853004E+02 -0.40458E+04
 0.29903004E+02 -0.73861E+04
 0.29953005E+02 -0.46227E+04
 0.30003004E+02 -0.55500E+04
 0.30053005E+02 -0.52019E+04
 0.30103004E+02 -0.65048E+04
 0.30153004E+02 -0.45232E+04
 0.30203003E+02 -0.36101E+04
 0.30253002E+02 -0.44754E+04
 0.30303005E+02 -0.24597E+04
 0.30353004E+02 -0.71989E+04
 0.30403004E+02 -0.48303E+04
 0.30453003E+02 -0.62318E+04
 0.30503002E+02 -0.42347E+04
 0.30553005E+02 -0.60822E+04
 0.30603004E+02 -0.40105E+04
 0.30653004E+02 -0.33648E+04
 0.30703003E+02 -0.66059E+04
 0.30753002E+02 -0.36243E+04
 0.30803005E+02 -0.56065E+04
 0.30853004E+02 -0.21384E+04
 0.30903004E+02 -0.67129E+04
 0.30953003E+02 -0.36441E+04
 0.31003002E+02 -0.36043E+04
 0.31053005E+02 -0.43703E+04
 0.31103004E+02 -0.43373E+04
 0.31153004E+02 -0.40374E+04
 0.31203003E+02 -0.43547E+04
 0.31253002E+02 -0.71196E+04
 0.31303005E+02 -0.23940E+04
 0.31353004E+02 -0.36977E+04
 0.31403004E+02 -0.83817E+04
 0.31453003E+02 -0.41489E+04
 0.31503002E+02 -0.53211E+04
 0.31553005E+02 -0.53876E+04
 0.31603004E+02 -0.46620E+04
 0.31653004E+02 -0.75243E+04
 0.31703003E+02 -0.19960E+04
 0.31753002E+02 -0.40224E+04
 0.31803005E+02 -0.30530E+04
 0.31853004E+02 -0.82423E+04
 0.31903004E+02 -0.50257E+04
 0.31953003E+02  0.19769E+03
 0.32003002E+02 -0.39693E+04
 0.32053005E+02 -0.57941E+04
 0.32103004E+02 -0.43837E+04
 0.32153004E+02 -0.25103E+04
 0.32203003E+02 -0.66242E+04
 0.32253002E+02 -0.83783E+04
 0.32303005E+02 -0.52718E+04
 0.32353004E+02 -0.39587E+04
 0.32403004E+02 -0.17350E+04
 0.32453003E+02 -0.33221E+04
 0.32503002E+02 -0.58172E+04
 0.32553005E+02 -0.43998E+04
 0.32603004E+02 -0.38116E+04
 0.32653004E+02 -0.31981E+04
 0.32703003E+02 -0.87428E+04
 0.32753002E+02 -0.57378E+04
 0.32803005E+02 -0.21758E+04
 0.32853004E+02 -0.38819E+04
 0.32903004E+02 -0.47222E+04
 0.32953003E+02 -0.23973E+04
 0.33003002E+02 -0.30080E+03
 0.33053005E+02 -0.57847E+04
 0.33103004E+02 -0.86073E+04
 0.33153004E+02 -0.37157E+04
 0.33203003E+02 -0.56792E+04
 0.33253002E+02 -0.80501E+04
 0.33303005E+02 -0.69690E+04
 0.33353004E+02 -0.72837E+04
 0.33403004E+02 -0.15827E+03
 0.33453003E+02 -0.19275E+04
 0.33503002E+02 -0.67517E+04
 0.33553005E+02 -0.22140E+04
 0.33603004E+02 -0.22843E+04
 0.33653004E+02 -0.72875E+04
 0.33703003E+02 -0.47874E+04
 0.33753002E+02 -0.40405E+04
 0.33803005E+02 -0.45159E+04
 0.33853004E+02 -0.91300E+04
 0.33903004E+02 -0.71228E+04
 0.33953003E+02 -0.40959E+04
 0.34003002E+02 -0.52586E+04
 0.34053005E+02 -0.40709E+04
 0.34103004E+02 -0.80456E+04
 0.34153004E+02 -0.54361E+03
 0.34203003E+02 -0.35099E+03
 0.34253002E+02 -0.38377E+04
 0.34303005E+02 -0.46681E+04
 0.34353004E+02 -0.16674E+04
 0.34403004E+02 -0.83776E+04
 0.34453003E+02 -0.97817E+04
 0.34503002E+02 -0.15460E+04
 0.34553005E+02 -0.14028E+04
 0.34603004E+02 -0.18015E+04
 0.34653004E+02 -0.76596E+04
 0.34703003E+02 -0.82084E+04
 0.34753002E+02 -0.72204E+04
 0.34803005E+02 -0.31906E+04
 0.34853004E+02 -0.34240E+04
 0.34903004E+02 -0.54353E+04
 0.34953003E+02 -0.20053E+03
 0.35003002E+02 -0.36706E+04
 0.35053005E+02 -0.43769E+04
 0.35103004E+02 -0.33178E+04
 0.35153004E+02 -0.53182E+04
 0.35203003E+02 -0.68785E+04
 0.35253002E+02 -0.10767E+05
 0.35303005E+02 -0.72782E+04
 0.35353004E+02 -0.15475E+04
 0.35403004E+02 -0.36108E+04
 0.35453003E+02 -0.29186E+04
 0.35503002E+02 -0.59008E+04
 0.35553005E+02 -0.97936E+04
 0.35603004E+02 -0.10606E+05
 0.35653004E+02 -0.33936E+04
 0.35703003E+02 -0.14648E+04
 0.35753002E+02 -0.69689E+04
 0.35803005E+02 -0.10165E+05
 0.35853004E+02 -0.10440E+05
 0.35903004E+02 -0.36033E+04
 0.35953003E+02 -0.96907E+03
 0.36003002E+02  0.77194E+04
 0.36053005E+02  0.17060E+04
 0.36103004E+02 -0.47446E+04
 0.36153004E+02 -0.11580E+05
 0.36203003E+02 -0.14029E+05
 0.36253002E+02 -0.28839E+05
 0.36303005E+02 -0.45125E+05
 0.36353004E+02 -0.54562E+05
 0.36403004E+02 -0.48863E+04
 0.36453003E+02  0.71064E+05
 0.36503002E+02  0.57576E+05
 0.36553005E+02 -0.54026E+04
 0.36603004E+02 -0.24507E+05
 0.36653004E+02  0.31054E+05
 0.36703003E+02  0.44726E+05
 0.36753002E+02  0.26553E+05
 0.36803005E+02 -0.13037E+05
 0.36853004E+02 -0.68100E+05
 0.36903004E+02 -0.76600E+05
 0.36953003E+02 -0.16309E+05
 0.37003002E+02  0.19499E+05
 0.37053005E+02  0.12578E+05
 0.37103004E+02  0.88132E+04
 0.37153004E+02 -0.84317E+04
 0.37203003E+02 -0.92510E+04
 0.37253002E+02  0.18316E+05
 0.37303005E+02  0.64020E+05
 0.37353004E+02 -0.13293E+04
 0.37403004E+02 -0.58147E+05
 0.37453003E+02 -0.36821E+05
 0.37503002E+02 -0.21662E+05
 0.37553005E+02 -0.20162E+05
 0.37603004E+02 -0.15104E+05
 0.37653004E+02  0.12597E+05
 0.37703003E+02 -0.35167E+04
 0.37753002E+02 -0.40185E+03
 0.37803005E+02  0.42676E+04
 0.37853004E+02  0.41876E+04
 0.37903004E+02  0.13893E+05
 0.37953003E+02  0.77393E+04
 0.38003002E+02 -0.10138E+05
 0.38053005E+02 -0.29719E+05
 0.38103004E+02 -0.18285E+05
 0.38153004E+02  0.78070E+04
 0.38203003E+02  0.68523E+03
 0.38253002E+02 -0.15990E+05
 0.38303005E+02 -0.17537E+04
 0.38353004E+02 -0.12200E+05
 0.38403004E+02 -0.21026E+05
 0.38453003E+02 -0.22386E+03
 0.38503002E+02  0.36517E+04
 0.38553005E+02 -0.10014E+05
 0.38603004E+02 -0.15777E+05
 0.38653004E+02 -0.54077E+03
 0.38703003E+02  0.94460E+04
 0.38753002E+02  0.96329E+04
 0.38803005E+02 -0.65252E+03
 0.38853004E+02 -0.12110E+05
 0.38903004E+02 -0.11975E+05
 0.38953003E+02 -0.11344E+05
 0.39003002E+02 -0.11159E+05
 0.39053005E+02 -0.59069E+04
 0.39103004E+02  0.36972E+04
 0.39153004E+02  0.32000E+04
 0.39203003E+02  0.16008E+02
 0.39253002E+02 -0.80003E+04
 0.39303005E+02 -0.13703E+04
 0.39353004E+02  0.51185E+04
 0.39403004E+02 -0.17395E+05
 0.39453003E+02 -0.12125E+05
 0.39503002E+02  0.22158E+05
 0.39553005E+02  0.30588E+05
 0.39603004E+02  0.60316E+04
 0.39653004E+02 -0.85200E+04
 0.39703003E+02 -0.90350E+04
 0.39753002E+02 -0.52688E+04
 0.39803005E+02 -0.65252E+04
 0.39853004E+02 -0.12067E+05
 0.39903004E+02 -0.86256E+04
 0.39953003E+02 -0.10409E+05
 0.40003002E+02 -0.23888E+05
 0.40053005E+02 -0.28408E+05
 0.40103004E+02 -0.10521E+05
 0.40153004E+02 -0.26132E+05
 0.40203003E+02 -0.36506E+05
 0.40253002E+02 -0.10216E+05
 0.40303005E+02 -0.82319E+04
 0.40353004E+02  0.12228E+05
 0.40403004E+02  0.22335E+05
 0.40453003E+02  0.24858E+04
 0.40503002E+02  0.93876E+04
 0.40553005E+02  0.36436E+04
 0.40603004E+02 -0.19728E+05
 0.40653004E+02  0.57886E+04
 0.40703003E+02  0.29539E+05
 0.40753002E+02 -0.13179E+05
 0.40803005E+02 -0.50170E+05
 0.40853004E+02 -0.22797E+05
 0.40903004E+02  0.14912E+05
 0.40953003E+02  0.49167E+04
 0.41003002E+02 -0.10941E+05
 0.41053005E+02  0.81290E+04
 0.41103004E+02  0.22999E+05
 0.41153004E+02 -0.18808E+05
 0.41203003E+02 -0.45136E+05
 0.41253002E+02 -0.28309E+05
 0.41303005E+02  0.15241E+04
 0.41353004E+02  0.18611E+05
 0.41403004E+02  0.11685E+05
 0.41453003E+02  0.27787E+04
 0.41503002E+02  0.10052E+05
 0.41553005E+02  0.41580E+04
 0.41603004E+02 -0.62804E+04
 0.41653004E+02  0.33523E+03
 0.41703003E+02 -0.52391E+03
 0.41753002E+02 -0.44838E+04
 0.41803005E+02 -0.10073E+05
 0.41853004E+02 -0.26561E+04
 0.41903004E+02 -0.14387E+05
 0.41953003E+02 -0.29529E+05
 0.42003002E+02 -0.18623E+05
 0.42053005E+02 -0.21356E+05
 0.42103004E+02 -0.12491E+05
 0.42153004E+02  0.40980E+04
 0.42203003E+02  0.63077E+04
 0.42253002E+02  0.35581E+04
 0.42303005E+02 -0.24034E+04
 0.42353004E+02  0.67969E+04
 0.42403004E+02 -0.68428E+04
 0.42453003E+02 -0.79840E+04
 0.42503002E+02  0.54485E+04
 0.42553005E+02  0.12732E+05
 0.42603004E+02  0.42955E+04
 0.42653004E+02 -0.84082E+04
 0.42703003E+02 -0.29912E+04
 0.42753002E+02 -0.38761E+04
 0.42803001E+02  0.38305E+04
 0.42853004E+02  0.72342E+04
 0.42903004E+02  0.82613E+04
 0.42953003E+02 -0.75396E+04
 0.43003002E+02 -0.12273E+05
 0.43053001E+02 -0.10861E+05
 0.43103004E+02 -0.10872E+05
 0.43153004E+02 -0.47683E+04
 0.43203003E+02 -0.84881E+03
 0.43253002E+02 -0.68870E+04
 0.43303001E+02 -0.16955E+05
 0.43353004E+02  0.33896E+04
 0.43403004E+02  0.50965E+04
 0.43453003E+02 -0.10432E+05
 0.43503002E+02 -0.42266E+04
 0.43553001E+02 -0.86252E+04
 0.43603004E+02 -0.11329E+05
 0.43653004E+02 -0.37187E+04
 0.43703003E+02  0.46005E+04
 0.43753002E+02 -0.13016E+03
 0.43803001E+02 -0.33984E+04
 0.43853004E+02 -0.14253E+04
 0.43903004E+02 -0.14724E+05
 0.43953003E+02 -0.19807E+05
 0.44003002E+02 -0.75662E+04
 0.44053001E+02  0.74853E+04
 0.44103004E+02 -0.70880E+04
 0.44153004E+02 -0.17496E+05
 0.44203003E+02 -0.14273E+05
 0.44253002E+02 -0.20423E+05
 0.44303001E+02 -0.16325E+05
 0.44353004E+02  0.58394E+04
 0.44403004E+02  0.28455E+04
 0.44453003E+02 -0.87474E+04
 0.44503002E+02 -0.16374E+05
 0.44553001E+02 -0.16149E+05
 0.44603004E+02 -0.13710E+05
 0.44653004E+02 -0.91718E+04
 0.44703003E+02 -0.60806E+03
 0.44753002E+02 -0.47675E+04
 0.44803001E+02  0.78570E+03
 0.44853004E+02  0.86403E+04
 0.44903004E+02  0.31852E+04
 0.44953003E+02  0.13586E+03
 0.45003002E+02  0.42158E+04
 0.45053001E+02  0.35726E+04
 0.45103004E+02  0.32213E+04
 0.45153004E+02  0.39990E+04
 0.45203003E+02  0.66835E+03
 0.45253002E+02 -0.56527E+04
 0.45303001E+02 -0.43227E+04
 0.45353004E+02 -0.41190E+04
 0.45403004E+02 -0.93730E+04
 0.45453003E+02 -0.20258E+05
 0.45503002E+02 -0.12480E+05
 0.45553001E+02  0.47984E+04
 0.45603004E+02  0.92873E+04
 0.45653004E+02 -0.13338E+04
 0.45703003E+02 -0.12881E+05
 0.45753002E+02 -0.14812E+05
 0.45803001E+02 -0.12469E+05
 0.45853004E+02 -0.78370E+04
 0.45903004E+02 -0.49205E+04
 0.45953003E+02 -0.56706E+04
 0.46003002E+02 -0.38995E+04
 0.46053001E+02 -0.23014E+04
 0.46103004E+02 -0.96687E+04
 0.46153004E+02 -0.39152E+04
 0.46203003E+02  0.73948E+03
 0.46253002E+02 -0.14512E+05
 0.46303001E+02 -0.15369E+05
 0.46353004E+02 -0.47047E+04
 0.46403004E+02  0.38845E+04
 0.46453003E+02  0.48188E+04
 0.46503002E+02 -0.22748E+04
 0.46553001E+02 -0.46644E+04
 0.46603004E+02 -0.57076E+04
 0.46653004E+02 -0.87477E+04
 0.46703003E+02 -0.62810E+04
 0.46753002E+02 -0.51264E+04
 0.46803001E+02  0.27946E+04
 0.46853004E+02  0.47304E+04
 0.46903004E+02 -0.57034E+04
 0.46953003E+02 -0.44927E+04
 0.47003002E+02 -0.25797E+04
 0.47053001E+02  0.53153E+04
 0.47103004E+02 -0.62270E+03
 0.47153004E+02 -0.12955E+05
 0.47203003E+02 -0.20133E+05
 0.47253002E+02 -0.18157E+05
 0.47303001E+02 -0.53732E+04
 0.47353004E+02 -0.47573E+04
 0.47403004E+02 -0.40465E+04
 0.47453003E+02 -0.93822E+04
 0.47503002E+02 -0.65629E+04
 0.47553001E+02  0.34963E+04
 0.47603004E+02 -0.18906E+02
 0.47653004E+02 -0.56395E+04
 0.47703003E+02 -0.12450E+04
 0.47753002E+02  0.51463E+04
 0.47803001E+02 -0.40907E+04
 0.47853004E+02 -0.53000E+04
 0.47903004E+02 -0.32793E+03
 0.47953003E+02 -0.67445E+03
 0.48003002E+02 -0.14229E+04
 0.48053001E+02 -0.17636E+04
 0.48103004E+02  0.41722E+03
 0.48153004E+02  0.41626E+04
 0.48203003E+02 -0.19365E+04
 0.48253002E+02 -0.78428E+04
 0.48303001E+02 -0.44502E+04
 0.48353004E+02 -0.26292E+04
 0.48403004E+02 -0.84690E+04
 0.48453003E+02 -0.16332E+05
 0.48503002E+02 -0.72483E+04
 0.48553001E+02  0.56333E+04
 0.48603004E+02  0.15073E+04
 0.48653004E+02 -0.12311E+05
 0.48703003E+02 -0.11425E+05
 0.48753002E+02 -0.12185E+05
 0.48803001E+02 -0.11744E+05
 0.48853004E+02 -0.14566E+05
 0.48903004E+02 -0.14735E+05
 0.48953003E+02 -0.53405E+04
 0.49003002E+02  0.10380E+04
 0.49053001E+02  0.54359E+04
 0.49103004E+02 -0.71877E+04
 0.49153004E+02 -0.14610E+05
 0.49203003E+02 -0.19405E+05
 0.49253002E+02 -0.19463E+05
 0.49303001E+02 -0.76703E+04
 0.49353004E+02 -0.14646E+04
 0.49403004E+02  0.53148E+04
 0.49453003E+02  0.65601E+04
 0.49503002E+02 -0.17547E+04
 0.49553001E+02 -0.49899E+04
 0.49603004E+02 -0.13998E+05
 0.49653004E+02 -0.16526E+05
 0.49703003E+02 -0.12210E+05
 0.49753002E+02 -0.10070E+05
 0.49803001E+02 -0.12275E+03
 0.49853004E+02  0.80476E+04
 0.49903004E+02  0.36381E+04
 0.49953003E+02 -0.18793E+04
 0.50003002E+02 -0.41090E+04
 0.50053001E+02 -0.29586E+04
 0.50103004E+02  0.18294E+04
 0.50153004E+02  0.48359E+04
 0.50203003E+02  0.65528E+03
 0.50253002E+02 -0.25173E+04
 0.50303001E+02  0.53724E+03
 0.50353004E+02 -0.63792E+04
 0.50403004E+02 -0.77249E+04
 0.50453003E+02  0.26266E+04
 0.50503002E+02  0.59651E+04
 0.50553001E+02  0.32334E+04
 0.50603004E+02 -0.18263E+04
 0.50653004E+02 -0.53296E+04
 0.50703003E+02 -0.87514E+04
 0.50753002E+02 -0.67901E+04
 0.50803001E+02 -0.48148E+04
 0.50853004E+02 -0.16193E+05
 0.50903004E+02 -0.18707E+05
 0.50953003E+02 -0.16770E+05
 0.51003002E+02 -0.17292E+05
 0.51053001E+02 -0.14356E+05
 0.51103004E+02 -0.78625E+04
 0.51153004E+02 -0.46673E+04
 0.51203003E+02 -0.39293E+04
 0.51253002E+02 -0.27403E+04
 0.51303001E+02  0.18638E+04
 0.51353004E+02  0.69116E+04
 0.51403004E+02  0.87715E+04
 0.51453003E+02  0.73082E+04
 0.51503002E+02 -0.49616E+04
 0.51553001E+02 -0.15280E+05
 0.51603004E+02 -0.14117E+05
 0.51653004E+02 -0.10328E+05
 0.51703003E+02 -0.72370E+04
 0.51753002E+02 -0.62749E+04
 0.51803001E+02 -0.24780E+04
 0.51853004E+02 -0.20111E+04
 0.51903004E+02 -0.13817E+04
 0.51953003E+02  0.24208E+04
 0.52003002E+02  0.10315E+04
 0.52053001E+02  0.14722E+04
 0.52103004E+02  0.43789E+04
 0.52153004E+02  0.14061E+04
 0.52203003E+02 -0.65776E+04
 0.52253002E+02 -0.86503E+04
 0.52303001E+02 -0.43688E+04
 0.52353004E+02 -0.18279E+04
 0.52403004E+02 -0.39671E+04
 0.52453003E+02 -0.75042E+04
 0.52503002E+02 -0.34516E+04
 0.52553001E+02  0.74060E+03
 0.52603004E+02 -0.22086E+04
 0.52653004E+02 -0.13368E+04
 0.52703003E+02 -0.22319E+04
 0.52753002E+02  0.15171E+04
 0.52803001E+02 -0.24169E+04
 0.52853004E+02 -0.11189E+05
 0.52903004E+02 -0.15557E+05
 0.52953003E+02 -0.91048E+04
 0.53003002E+02 -0.19538E+04
 0.53053001E+02 -0.54595E+04
 0.53103004E+02 -0.81171E+04
 0.53153004E+02 -0.13746E+05
 0.53203003E+02 -0.16586E+05
 0.53253002E+02 -0.16022E+05
 0.53303001E+02 -0.10520E+05
 0.53353004E+02 -0.10904E+04
 0.53403004E+02 -0.58015E+03
 0.53453003E+02  0.22027E+04
 0.53503002E+02  0.50881E+04
 0.53553001E+02 -0.53587E+04
 0.53603004E+02 -0.11567E+05
 0.53653004E+02 -0.18975E+05
 0.53703003E+02 -0.19408E+05
 0.53753002E+02 -0.11556E+05
 0.53803001E+02 -0.99946E+04
 0.53853004E+02 -0.70285E+04
 0.53903004E+02 -0.38789E+04
 0.53953003E+02  0.32962E+04
 0.54003002E+02  0.13026E+05
 0.54053001E+02  0.13922E+05
 0.54103004E+02  0.12631E+05
 0.54153004E+02  0.87338E+04
 0.54203003E+02  0.19324E+04
 0.54253002E+02 -0.42951E+04
 0.54303001E+02 -0.10755E+05
 0.54353004E+02 -0.59723E+04
 0.54403004E+02  0.51461E+04
 0.54453003E+02  0.68850E+04
 0.54503002E+02  0.79916E+04
 0.54553001E+02  0.84143E+04
 0.54603004E+02  0.60249E+04
 0.54653004E+02  0.20860E+03
 0.54703003E+02 -0.16645E+05
 0.54753002E+02 -0.28397E+05
 0.54803001E+02 -0.28410E+05
 0.54853004E+02 -0.24802E+05
 0.54903004E+02 -0.13814E+05
 0.54953003E+02 -0.10329E+04
 0.55003002E+02  0.79018E+03
 0.55053001E+02 -0.55166E+04
 0.55103004E+02 -0.10086E+05
 0.55153004E+02 -0.87108E+04
 0.55203003E+02 -0.82024E+04
 0.55253002E+02 -0.14124E+05
 0.55303001E+02 -0.17673E+05
 0.55353004E+02 -0.11702E+05
 0.55403004E+02 -0.34549E+04
 0.55453003E+02 -0.13212E+04
 0.55503002E+02 -0.47055E+04
 0.55553001E+02 -0.78391E+04
 0.55603004E+02 -0.11971E+05
 0.55653004E+02 -0.15211E+05
 0.55703003E+02 -0.12595E+05
 0.55753002E+02 -0.37203E+04
 0.55803001E+02  0.90127E+03
 0.55853001E+02  0.17384E+04
 0.55903004E+02  0.58691E+04
 0.55953003E+02  0.74019E+04
 0.56003002E+02  0.50967E+04
 0.56053001E+02  0.19841E+04
 0.56103001E+02  0.71523E+04
 0.56153004E+02  0.10817E+05
 0.56203003E+02  0.10355E+05
 0.56253002E+02  0.99591E+04
 0.56303001E+02  0.73971E+04
 0.56353001E+02  0.90075E+04
 0.56403004E+02  0.89717E+04
 0.56453003E+02  0.23633E+04
 0.56503002E+02 -0.50122E+04
 0.56553001E+02 -0.10798E+05
 0.56603001E+02 -0.18895E+05
 0.56653004E+02 -0.27138E+05
 0.56703003E+02 -0.24541E+05
 0.56753002E+02 -0.15609E+05
 0.56803001E+02 -0.14495E+05
 0.56853001E+02 -0.12452E+05
 0.56903004E+02 -0.97153E+04
 0.56953003E+02 -0.11704E+05
 0.57003002E+02 -0.11456E+05
 0.57053001E+02 -0.10256E+05
 0.57103001E+02 -0.71147E+04
 0.57153004E+02 -0.18449E+04
 0.57203003E+02  0.51735E+04
 0.57253002E+02  0.70973E+04
 0.57303001E+02  0.62300E+04
 0.57353001E+02  0.25834E+04
 0.57403004E+02 -0.72641E+04
 0.57453003E+02 -0.12965E+05
 0.57503002E+02 -0.15603E+05
 0.57553001E+02 -0.12409E+05
 0.57603001E+02 -0.71124E+04
 0.57653004E+02 -0.26479E+04
 0.57703003E+02 -0.29629E+03
 0.57753002E+02 -0.40391E+01
 0.57803001E+02 -0.21244E+04
 0.57853001E+02 -0.69444E+04
 0.57903004E+02 -0.89250E+04
 0.57953003E+02 -0.98423E+04
 0.58003002E+02 -0.86754E+04
 0.58053001E+02 -0.52322E+04
 0.58103001E+02  0.92584E+03
 0.58153004E+02  0.14436E+04
 0.58203003E+02  0.23263E+04
 0.58253002E+02  0.35391E+04
 0.58303001E+02 -0.73812E+03
 0.58353001E+02 -0.78414E+04
 0.58403004E+02 -0.13970E+05
 0.58453003E+02 -0.17035E+05
 0.58503002E+02 -0.15690E+05
 0.58553001E+02 -0.12573E+05
 0.58603001E+02 -0.13082E+05
 0.58653004E+02 -0.14054E+05
 0.58703003E+02 -0.13069E+05
 0.58753002E+02 -0.76852E+04
 0.58803001E+02 -0.50894E+04
 0.58853001E+02 -0.40671E+04
 0.58903004E+02 -0.16028E+04
 0.58953003E+02  0.25380E+04
 0.59003002E+02  0.22961E+04
 0.59053001E+02 -0.10149E+04
 0.59103001E+02 -0.32067E+03
 0.59153004E+02  0.21988E+04
 0.59203003E+02  0.62544E+04
 0.59253002E+02  0.72861E+04
 0.59303001E+02  0.36213E+04
 0.59353001E+02  0.41159E+04
 0.59403004E+02  0.25904E+04
 0.59453003E+02 -0.60255E+04
 0.59503002E+02 -0.11360E+05
 0.59553001E+02 -0.12125E+05
 0.59603001E+02 -0.12736E+05
 0.59653004E+02 -0.12002E+05
 0.59703003E+02 -0.71717E+04
 0.59753002E+02  0.83517E+03
 0.59803001E+02  0.63379E+04
 0.59853001E+02  0.67732E+04
 0.59903004E+02  0.56712E+04
 0.59953003E+02  0.17486E+04
 0.60003002E+02 -0.42668E+04
 0.60053001E+02 -0.10560E+05
 0.60103001E+02 -0.14873E+05
 0.60153004E+02 -0.17618E+05
 0.60203003E+02 -0.18314E+05
 0.60253002E+02 -0.17514E+05
 0.60303001E+02 -0.15130E+05
 0.60353001E+02 -0.10441E+05
 0.60403004E+02 -0.37665E+04
 0.60453003E+02  0.38339E+03
 0.60503002E+02  0.12606E+04
 0.60553001E+02 -0.31057E+04
 0.60603001E+02 -0.83884E+04
 0.60653004E+02 -0.85615E+04
 0.60703003E+02 -0.52974E+04
 0.60753002E+02  0.76127E+03
 0.60803001E+02  0.37350E+04
 0.60853001E+02  0.41200E+04
 0.60903004E+02  0.29894E+04
 0.60953003E+02  0.53364E+03
 0.61003002E+02 -0.26713E+04
 0.61053001E+02 -0.24150E+04
 0.61103001E+02 -0.10165E+04
 0.61153004E+02 -0.12080E+04
 0.61203003E+02 -0.20636E+03
 0.61253002E+02 -0.19378E+04
 0.61303001E+02 -0.61817E+04
 0.61353001E+02 -0.10240E+05
 0.61403004E+02 -0.14302E+05
 0.61453003E+02 -0.16753E+05
 0.61503002E+02 -0.17805E+05
 0.61553001E+02 -0.15506E+05
 0.61603001E+02 -0.10427E+05
 0.61653004E+02 -0.59693E+04
 0.61703003E+02 -0.10068E+04
 0.61753002E+02  0.23400E+04
 0.61803001E+02  0.32575E+04
 0.61853001E+02  0.10605E+04
 0.61903004E+02 -0.23659E+04
 0.61953003E+02 -0.22323E+04
 0.62003002E+02 -0.93630E+03
 0.62053001E+02  0.69615E+03
 0.62103004E+02  0.44174E+04
 0.62153000E+02  0.92119E+04
 0.62203003E+02  0.10110E+05
 0.62252998E+02  0.78046E+04
 0.62303001E+02  0.20831E+04
 0.62353004E+02 -0.63543E+04
 0.62403000E+02 -0.14384E+05
 0.62453003E+02 -0.17981E+05
 0.62502998E+02 -0.15225E+05
 0.62553001E+02 -0.12636E+05
 0.62603004E+02 -0.98745E+04
 0.62653000E+02 -0.74514E+04
 0.62703003E+02 -0.79887E+04
 0.62752998E+02 -0.86396E+04
 0.62803001E+02 -0.73117E+04
 0.62853004E+02 -0.51850E+04
 0.62903000E+02 -0.41788E+04
 0.62953003E+02 -0.21130E+04
 0.63002998E+02 -0.10536E+04
 0.63053001E+02 -0.13385E+04
 0.63103004E+02 -0.23970E+04
 0.63153000E+02 -0.52171E+04
 0.63203003E+02 -0.62272E+04
 0.63252998E+02 -0.41924E+04
 0.63303001E+02 -0.46159E+03
 0.63353004E+02  0.21668E+04
 0.63403000E+02  0.31384E+04
 0.63453003E+02  0.32613E+04
 0.63502998E+02  0.32399E+04
 0.63553001E+02  0.16129E+04
 0.63603004E+02 -0.19179E+04
 0.63653000E+02 -0.50969E+04
 0.63703003E+02 -0.86046E+04
 0.63752998E+02 -0.14836E+05
 0.63803001E+02 -0.17191E+05
 0.63853004E+02 -0.15756E+05
 0.63903000E+02 -0.12312E+05
 0.63953003E+02 -0.77122E+04
 0.64002998E+02 -0.41089E+04
 0.64053001E+02 -0.24277E+04
 0.64103004E+02 -0.21280E+04
 0.64153000E+02  0.64438E+02
 0.64203003E+02  0.18956E+04
 0.64252998E+02  0.97283E+03
 0.64303001E+02 -0.16641E+04
 0.64353004E+02 -0.30008E+04
 0.64403000E+02 -0.78560E+04
 0.64453003E+02 -0.13291E+05
 0.64502998E+02 -0.15845E+05
 0.64553001E+02 -0.14231E+05
 0.64603004E+02 -0.11189E+05
 0.64653000E+02 -0.64330E+04
 0.64703003E+02 -0.21921E+03
 0.64752998E+02  0.35272E+04
 0.64803001E+02  0.67559E+04
 0.64853004E+02  0.60530E+04
 0.64903000E+02  0.20795E+04
 0.64953003E+02 -0.54671E+04
 0.65002998E+02 -0.15137E+05
 0.65053001E+02 -0.23308E+05
 0.65103004E+02 -0.25956E+05
 0.65153000E+02 -0.23007E+05
 0.65203003E+02 -0.17146E+05
 0.65252998E+02 -0.71211E+04
 0.65303001E+02  0.53004E+04
 0.65353004E+02  0.13659E+05
 0.65403000E+02  0.14745E+05
 0.65453003E+02  0.12342E+05
 0.65502998E+02  0.72069E+04
 0.65553001E+02  0.29197E+04
 0.65603004E+02  0.79828E+03
 0.65653000E+02 -0.17370E+04
 0.65703003E+02 -0.49012E+04
 0.65752998E+02 -0.99353E+04
 0.65803001E+02 -0.15088E+05
 0.65853004E+02 -0.20397E+05
 0.65903000E+02 -0.22746E+05
 0.65953003E+02 -0.21328E+05
 0.66002998E+02 -0.18738E+05
 0.66053001E+02 -0.11980E+05
 0.66103004E+02 -0.40185E+04
 0.66153000E+02  0.36400E+04
 0.66203003E+02  0.86211E+04
 0.66252998E+02  0.86425E+04
 0.66303001E+02  0.72599E+04
 0.66353004E+02  0.44514E+04
 0.66403000E+02  0.57503E+03
 0.66453003E+02 -0.17579E+04
 0.66502998E+02 -0.20901E+04
 0.66553001E+02 -0.32098E+04
 0.66603004E+02 -0.63351E+04
 0.66653000E+02 -0.93967E+04
 0.66703003E+02 -0.11981E+05
 0.66752998E+02 -0.15761E+05
 0.66803001E+02 -0.19839E+05
 0.66853004E+02 -0.22466E+05
 0.66903000E+02 -0.22833E+05
 0.66953003E+02 -0.21256E+05
 0.67002998E+02 -0.16470E+05
 0.67053001E+02 -0.97721E+04
 0.67103004E+02 -0.13289E+04
 0.67153000E+02  0.61657E+04
 0.67203003E+02  0.10540E+05
 0.67252998E+02  0.12720E+05
 0.67303001E+02  0.12858E+05
 0.67353004E+02  0.10939E+05
 0.67403000E+02  0.58937E+04
 0.67453003E+02 -0.33297E+03
 0.67502998E+02 -0.56480E+04
 0.67553001E+02 -0.79516E+04
 0.67603004E+02 -0.89742E+04
 0.67653000E+02 -0.91229E+04
 0.67703003E+02 -0.75254E+04
 0.67752998E+02 -0.47348E+04
 0.67803001E+02 -0.14883E+04
 0.67853004E+02  0.20901E+04
 0.67903000E+02  0.57174E+04
 0.67953003E+02  0.75009E+04
 0.68002998E+02  0.64690E+04
 0.68053001E+02  0.39190E+04
 0.68103004E+02  0.10820E+03
 0.68153000E+02 -0.38717E+04
 0.68203003E+02 -0.82373E+04
 0.68252998E+02 -0.13022E+05
 0.68303001E+02 -0.15235E+05
 0.68353004E+02 -0.13842E+05
 0.68403000E+02 -0.10853E+05
 0.68453003E+02 -0.99538E+04
 0.68502998E+02 -0.90299E+04
 0.68553001E+02 -0.91730E+04
 0.68603004E+02 -0.11012E+05
 0.68653000E+02 -0.13376E+05
 0.68703003E+02 -0.14332E+05
 0.68752998E+02 -0.11713E+05
 0.68803001E+02 -0.88449E+04
 0.68853004E+02 -0.43961E+04
 0.68903000E+02 -0.49246E+03
 0.68953003E+02  0.24919E+04
 0.69002998E+02  0.61702E+04
 0.69053001E+02  0.70870E+04
 0.69103004E+02  0.51553E+04
 0.69153000E+02  0.28319E+04
 0.69203003E+02 -0.47033E+03
 0.69252998E+02 -0.44622E+04
 0.69303001E+02 -0.81926E+04
 0.69353004E+02 -0.10755E+05
 0.69403000E+02 -0.93259E+04
 0.69453003E+02 -0.58203E+04
 0.69502998E+02 -0.14192E+04
 0.69553001E+02  0.15277E+04
 0.69603004E+02  0.22260E+04
 0.69653000E+02  0.21292E+04
 0.69703003E+02  0.60619E+03
 0.69752998E+02 -0.67439E+03
 0.69803001E+02 -0.16045E+04
 0.69853004E+02 -0.30416E+04
 0.69903000E+02 -0.65522E+04
 0.69953003E+02 -0.11035E+05
 0.70002998E+02 -0.15386E+05
 0.70053001E+02 -0.18920E+05
 0.70103004E+02 -0.22081E+05
 0.70153000E+02 -0.22468E+05
 0.70203003E+02 -0.17317E+05
 0.70252998E+02 -0.10114E+05
 0.70303001E+02 -0.31554E+04
 0.70353004E+02  0.21127E+04
 0.70403000E+02  0.61864E+04
 0.70453003E+02  0.92384E+04
 0.70502998E+02  0.10861E+05
 0.70553001E+02  0.11469E+05
 0.70603004E+02  0.92449E+04
 0.70653000E+02  0.48684E+04
 0.70703003E+02  0.17205E+04
 0.70752998E+02 -0.26798E+04
 0.70803001E+02 -0.81974E+04
 0.70853004E+02 -0.12003E+05
 0.70903000E+02 -0.14715E+05
 0.70953003E+02 -0.15455E+05
 0.71002998E+02 -0.11977E+05
 0.71053001E+02 -0.63253E+04
 0.71103004E+02 -0.30139E+04
 0.71153000E+02 -0.22847E+04
 0.71203003E+02 -0.12527E+04
 0.71252998E+02 -0.73347E+03
 0.71303001E+02 -0.14022E+04
 0.71353004E+02 -0.18523E+04
 0.71403000E+02 -0.30465E+04
 0.71453003E+02 -0.54125E+04
 0.71502998E+02 -0.71766E+04
 0.71553001E+02 -0.79358E+04
 0.71603004E+02 -0.94534E+04
 0.71653000E+02 -0.91048E+04
 0.71703003E+02 -0.82077E+04
 0.71752998E+02 -0.70538E+04
 0.71803001E+02 -0.61499E+04
 0.71853004E+02 -0.76947E+04
 0.71903000E+02 -0.93086E+04
 0.71953003E+02 -0.11784E+05
 0.72002998E+02 -0.14112E+05
 0.72053001E+02 -0.15160E+05
 0.72103004E+02 -0.14104E+05
 0.72153000E+02 -0.10881E+05
 0.72203003E+02 -0.62834E+04
 0.72252998E+02 -0.13134E+04
 0.72303001E+02  0.29796E+04
 0.72353004E+02  0.72989E+04
 0.72403000E+02  0.10162E+05
 0.72453003E+02  0.10853E+05
 0.72502998E+02  0.10731E+05
 0.72553001E+02  0.93357E+04
 0.72603004E+02  0.61817E+04
 0.72653000E+02  0.20308E+04
 0.72703003E+02 -0.15189E+04
 0.72752998E+02 -0.49368E+04
 0.72803001E+02 -0.87300E+04
 0.72853004E+02 -0.13146E+05
 0.72903000E+02 -0.16534E+05
 0.72953003E+02 -0.16667E+05
 0.73002998E+02 -0.15359E+05
 0.73053001E+02 -0.14662E+05
 0.73103004E+02 -0.13403E+05
 0.73153000E+02 -0.10367E+05
 0.73203003E+02 -0.77233E+04
 0.73252998E+02 -0.44903E+04
 0.73303001E+02 -0.12737E+04
 0.73353004E+02  0.24474E+03
 0.73403000E+02  0.58368E+03
 0.73453003E+02 -0.91289E+03
 0.73502998E+02 -0.27659E+04
 0.73553001E+02 -0.30472E+04
 0.73603004E+02 -0.37243E+04
 0.73653000E+02 -0.48849E+04
 0.73703003E+02 -0.51563E+04
 0.73752998E+02 -0.48808E+04
 0.73803001E+02 -0.38090E+04
 0.73853004E+02 -0.21856E+04
 0.73903000E+02 -0.22239E+04
 0.73953003E+02 -0.24947E+04
 0.74002998E+02 -0.20820E+04
 0.74053001E+02 -0.32309E+04
 0.74103004E+02 -0.50663E+04
 0.74153000E+02 -0.84614E+04
 0.74203003E+02 -0.11592E+05
 0.74252998E+02 -0.12294E+05
 0.74303001E+02 -0.10118E+05
 0.74353004E+02 -0.69779E+04
 0.74403000E+02 -0.44456E+04
 0.74453003E+02 -0.23158E+04
 0.74502998E+02 -0.19790E+04
 0.74553001E+02 -0.20647E+04
 0.74603004E+02 -0.30290E+04
 0.74653000E+02 -0.53416E+04
 0.74703003E+02 -0.90549E+04
 0.74752998E+02 -0.12030E+05
 0.74803001E+02 -0.13185E+05
 0.74853004E+02 -0.13897E+05
 0.74903000E+02 -0.13941E+05
 0.74953003E+02 -0.13889E+05
 0.75002998E+02 -0.13525E+05
 0.75053001E+02 -0.12808E+05
 0.75103004E+02 -0.11228E+05
 0.75153000E+02 -0.73782E+04
 0.75203003E+02 -0.33001E+04
 0.75252998E+02  0.75746E+02
 0.75303001E+02  0.38518E+04
 0.75353004E+02  0.55098E+04
 0.75403000E+02  0.62650E+04
 0.75453003E+02  0.65971E+04
 0.75502998E+02  0.51776E+04
 0.75553001E+02  0.30486E+04
 0.75603004E+02  0.11776E+04
 0.75653000E+02  0.21400E+03
 0.75703003E+02 -0.15747E+04
 0.75752998E+02 -0.44144E+04
 0.75803001E+02 -0.64657E+04
 0.75853004E+02 -0.76797E+04
 0.75903000E+02 -0.84122E+04
 0.75953003E+02 -0.83300E+04
 0.76002998E+02 -0.82200E+04
 0.76053001E+02 -0.74947E+04
 0.76103004E+02 -0.70281E+04
 0.76153000E+02 -0.64298E+04
 0.76203003E+02 -0.37994E+04
 0.76252998E+02 -0.43303E+03
 0.76303001E+02  0.34238E+04
 0.76353004E+02  0.57161E+04
 0.76403000E+02  0.70658E+04
 0.76453003E+02  0.77241E+04
 0.76502998E+02  0.66235E+04
 0.76553001E+02  0.38160E+04
 0.76603004E+02  0.10137E+03
 0.76653000E+02 -0.31085E+04
 0.76703003E+02 -0.60830E+04
 0.76752998E+02 -0.69424E+04
 0.76803001E+02 -0.57230E+04
 0.76853004E+02 -0.57668E+04
 0.76903000E+02 -0.71660E+04
 0.76953003E+02 -0.85475E+04
 0.77002998E+02 -0.92667E+04
 0.77053001E+02 -0.85827E+04
 0.77103004E+02 -0.79760E+04
 0.77153000E+02 -0.69633E+04
 0.77203003E+02 -0.49633E+04
 0.77252998E+02 -0.34162E+04
 0.77303001E+02 -0.21623E+04
 0.77353004E+02 -0.68201E+03
 0.77403000E+02 -0.51469E+03
 0.77453003E+02 -0.18745E+04
 0.77502998E+02 -0.38080E+04
 0.77553001E+02 -0.50068E+04
 0.77603004E+02 -0.45641E+04
 0.77653000E+02 -0.38370E+04
 0.77703003E+02 -0.36022E+04
 0.77752998E+02 -0.40430E+04
 0.77803001E+02 -0.54581E+04
 0.77853004E+02 -0.73112E+04
 0.77903000E+02 -0.87957E+04
 0.77953003E+02 -0.96845E+04
 0.78002998E+02 -0.87451E+04
 0.78053001E+02 -0.70969E+04
 0.78103004E+02 -0.62210E+04
 0.78153000E+02 -0.68209E+04
 0.78203003E+02 -0.67889E+04
 0.78252998E+02 -0.48494E+04
 0.78303001E+02 -0.40071E+04
 0.78353004E+02 -0.51461E+04
 0.78403000E+02 -0.71063E+04
 0.78453003E+02 -0.85563E+04
 0.78502998E+02 -0.97919E+04
 0.78553001E+02 -0.10651E+05
 0.78603004E+02 -0.10859E+05
 0.78653000E+02 -0.91801E+04
 0.78703003E+02 -0.76487E+04
 0.78752998E+02 -0.72108E+04
 0.78803001E+02 -0.72836E+04
 0.78853004E+02 -0.72869E+04
 0.78903000E+02 -0.61382E+04
 0.78953003E+02 -0.54413E+04
 0.79002998E+02 -0.45852E+04
 0.79053001E+02 -0.36180E+04
 0.79103004E+02 -0.25228E+04
 0.79153000E+02 -0.30803E+04
 0.79203003E+02 -0.50015E+04
 0.79252998E+02 -0.59211E+04
 0.79303001E+02 -0.56739E+04
 0.79353004E+02 -0.58579E+04
 0.79403000E+02 -0.62943E+04
 0.79453003E+02 -0.57177E+04
 0.79502998E+02 -0.59012E+04
 0.79553001E+02 -0.66625E+04
 0.79603004E+02 -0.76713E+04
 0.79653000E+02 -0.85252E+04
 0.79703003E+02 -0.94443E+04
 0.79752998E+02 -0.10226E+05
 0.79803001E+02 -0.10495E+05
 0.79853004E+02 -0.96955E+04
 0.79903000E+02 -0.75057E+04
 0.79953003E+02 -0.51525E+04
 0.80002998E+02 -0.40333E+04
 0.80053001E+02 -0.37218E+04
 0.80103004E+02 -0.35838E+04
 0.80153000E+02 -0.33552E+04
 0.80203003E+02 -0.29745E+04
 0.80252998E+02 -0.35062E+04
 0.80303001E+02 -0.39672E+04
 0.80353004E+02 -0.43655E+04
 0.80403000E+02 -0.51290E+04
 0.80453003E+02 -0.53204E+04
 0.80502998E+02 -0.48308E+04
 0.80553001E+02 -0.37553E+04
 0.80603004E+02 -0.19232E+04
 0.80653000E+02 -0.12004E+03
 0.80703003E+02  0.94546E+03
 0.80752998E+02  0.18755E+04
 0.80803001E+02  0.26507E+04
 0.80853004E+02  0.27459E+04
 0.80903000E+02  0.34602E+04
 0.80953003E+02  0.43971E+04
 0.81002998E+02  0.40992E+04
 0.81053001E+02  0.30462E+04
 0.81103004E+02  0.18646E+04
 0.81153000E+02  0.14092E+02
 0.81203003E+02 -0.19718E+04
 0.81252998E+02 -0.35744E+04
 0.81303001E+02 -0.46374E+04
 0.81353004E+02 -0.49264E+04
 0.81403000E+02 -0.56705E+04
 0.81453003E+02 -0.55119E+04
 0.81502998E+02 -0.46391E+04
 0.81553001E+02 -0.40722E+04
 0.81603004E+02 -0.36768E+04
 0.81653000E+02 -0.30400E+04
 0.81703003E+02 -0.18515E+04
 0.81752998E+02 -0.19213E+04
 0.81803001E+02 -0.18403E+04
 0.81853004E+02 -0.18272E+04
 0.81903000E+02 -0.25859E+04
 0.81953003E+02 -0.30539E+04
 0.82002998E+02 -0.39674E+04
 0.82053001E+02 -0.44658E+04
 0.82103004E+02 -0.48293E+04
 0.82153000E+02 -0.59810E+04
 0.82203003E+02 -0.69336E+04
 0.82252998E+02 -0.71026E+04
 0.82303001E+02 -0.69430E+04
 0.82353004E+02 -0.70393E+04
 0.82403000E+02 -0.74083E+04
 0.82453003E+02 -0.76878E+04
 0.82502998E+02 -0.80140E+04
 0.82553001E+02 -0.88533E+04
 0.82603004E+02 -0.98901E+04
 0.82653000E+02 -0.10810E+05
 0.82703003E+02 -0.10716E+05
 0.82752998E+02 -0.96085E+04
 0.82803001E+02 -0.87038E+04
 0.82853004E+02 -0.81679E+04
 0.82903000E+02 -0.68292E+04
 0.82953003E+02 -0.56174E+04
 0.83002998E+02 -0.56133E+04
 0.83053001E+02 -0.58659E+04
 0.83103004E+02 -0.62480E+04
 0.83153000E+02 -0.60237E+04
 0.83203003E+02 -0.56064E+04
 0.83252998E+02 -0.53188E+04
 0.83303001E+02 -0.46726E+04
 0.83353004E+02 -0.50787E+04
 0.83403000E+02 -0.58171E+04
 0.83453003E+02 -0.49608E+04
 0.83502998E+02 -0.33192E+04
 0.83553001E+02 -0.29087E+04
 0.83603004E+02 -0.38928E+04
 0.83653000E+02 -0.56225E+04
 0.83703003E+02 -0.78486E+04
 0.83752998E+02 -0.90552E+04
 0.83803001E+02 -0.88117E+04
 0.83853004E+02 -0.73152E+04
 0.83903000E+02 -0.56124E+04
 0.83953003E+02 -0.39025E+04
 0.84002998E+02 -0.17718E+04
 0.84053001E+02 -0.36354E+03
 0.84103004E+02 -0.67877E+03
 0.84153000E+02 -0.20463E+04
 0.84203003E+02 -0.31685E+04
 0.84252998E+02 -0.44042E+04
 0.84303001E+02 -0.56616E+04
 0.84353004E+02 -0.71752E+04
 0.84403000E+02 -0.82954E+04
 0.84453003E+02 -0.86794E+04
 0.84502998E+02 -0.95345E+04
 0.84553001E+02 -0.95111E+04
 0.84603004E+02 -0.87667E+04
 0.84653000E+02 -0.71837E+04
 0.84703003E+02 -0.48494E+04
 0.84752998E+02 -0.30853E+04
 0.84803001E+02 -0.12078E+04
 0.84853004E+02  0.26147E+03
 0.84903000E+02  0.60642E+03
 0.84953003E+02  0.29278E+03
 0.85002998E+02  0.64778E+02
 0.85053001E+02 -0.27483E+03
 0.85103004E+02 -0.11948E+04
 0.85153000E+02 -0.19357E+04
 0.85203003E+02 -0.24515E+04
 0.85252998E+02 -0.25740E+04
 0.85303001E+02 -0.19416E+04
 0.85353004E+02 -0.17361E+04
 0.85403000E+02 -0.20594E+04
 0.85453003E+02 -0.23989E+04
 0.85502998E+02 -0.31999E+04
 0.85553001E+02 -0.43881E+04
 0.85603004E+02 -0.45897E+04
 0.85653000E+02 -0.36396E+04
 0.85703003E+02 -0.22871E+04
 0.85752998E+02 -0.72611E+03
 0.85803001E+02  0.10649E+04
 0.85853004E+02  0.19301E+04
 0.85903000E+02  0.19897E+04
 0.85953003E+02  0.13682E+04
 0.86002998E+02  0.26519E+03
 0.86053001E+02 -0.46780E+03
 0.86103004E+02 -0.14714E+04
 0.86153000E+02 -0.23581E+04
 0.86203003E+02 -0.36155E+04
 0.86252998E+02 -0.52595E+04
 0.86303001E+02 -0.68160E+04
 0.86353004E+02 -0.82868E+04
 0.86403000E+02 -0.96830E+04
 0.86453003E+02 -0.11268E+05
 0.86502998E+02 -0.13838E+05
 0.86553001E+02 -0.15784E+05
 0.86603004E+02 -0.16414E+05
 0.86653000E+02 -0.16623E+05
 0.86703003E+02 -0.16642E+05
 0.86752998E+02 -0.15914E+05
 0.86803001E+02 -0.13330E+05
 0.86853004E+02 -0.11078E+05
 0.86903000E+02 -0.97941E+04
 0.86953003E+02 -0.83637E+04
 0.87002998E+02 -0.65408E+04
 0.87053001E+02 -0.52048E+04
 0.87103004E+02 -0.46375E+04
 0.87153000E+02 -0.41811E+04
 0.87203003E+02 -0.35203E+04
 0.87252998E+02 -0.26887E+04
 0.87303001E+02 -0.23744E+04
 0.87353004E+02 -0.21310E+04
 0.87403000E+02 -0.11882E+04
 0.87453003E+02 -0.14441E+03
 0.87502998E+02  0.13478E+01
 0.87553001E+02 -0.81228E+03
 0.87602997E+02 -0.13761E+04
 0.87653000E+02 -0.20262E+04
 0.87703003E+02 -0.22786E+04
 0.87752998E+02 -0.12810E+04
 0.87803001E+02 -0.36737E+02
 0.87852997E+02  0.87982E+03
 0.87903000E+02  0.10185E+04
 0.87953003E+02  0.33878E+03
 0.88002998E+02 -0.13587E+04
 0.88053001E+02 -0.34245E+04
 0.88102997E+02 -0.45750E+04
 0.88153000E+02 -0.51293E+04
 0.88203003E+02 -0.48909E+04
 0.88252998E+02 -0.44811E+04
 0.88303001E+02 -0.40002E+04
 0.88352997E+02 -0.31134E+04
 0.88403000E+02 -0.25272E+04
 0.88453003E+02 -0.24116E+04
 0.88502998E+02 -0.26563E+04
 0.88553001E+02 -0.29847E+04
 0.88602997E+02 -0.33458E+04
 0.88653000E+02 -0.37315E+04
 0.88703003E+02 -0.37834E+04
 0.88752998E+02 -0.35448E+04
 0.88803001E+02 -0.31419E+04
 0.88852997E+02 -0.33171E+04
 0.88903000E+02 -0.41751E+04
 0.88953003E+02 -0.52673E+04
 0.89002998E+02 -0.70054E+04
 0.89053001E+02 -0.81569E+04
 0.89102997E+02 -0.87288E+04
 0.89153000E+02 -0.93679E+04
 0.89203003E+02 -0.99318E+04
 0.89252998E+02 -0.98344E+04
 0.89303001E+02 -0.96730E+04
 0.89352997E+02 -0.96169E+04
 0.89403000E+02 -0.94996E+04
 0.89453003E+02 -0.89764E+04
 0.89502998E+02 -0.83826E+04
 0.89553001E+02 -0.88209E+04
 0.89602997E+02 -0.89201E+04
 0.89653000E+02 -0.84410E+04
 0.89703003E+02 -0.77548E+04
 0.89752998E+02 -0.69201E+04
 0.89803001E+02 -0.56429E+04
 0.89852997E+02 -0.39958E+04
 0.89903000E+02 -0.24280E+04
 0.89953003E+02 -0.86996E+03
 0.90002998E+02  0.33340E+03
 0.90053001E+02  0.16209E+04
 0.90102997E+02  0.19215E+04
 0.90153000E+02  0.16690E+04
 0.90203003E+02  0.16373E+04
 0.90252998E+02  0.80549E+03
 0.90303001E+02 -0.69191E+02
 0.90352997E+02 -0.83768E+03
 0.90403000E+02 -0.15750E+04
 0.90453003E+02 -0.23191E+04
 0.90502998E+02 -0.35586E+04
 0.90553001E+02 -0.52324E+04
 0.90602997E+02 -0.67175E+04
 0.90653000E+02 -0.76957E+04
 0.90703003E+02 -0.79140E+04
 0.90752998E+02 -0.79415E+04
 0.90803001E+02 -0.82934E+04
 0.90852997E+02 -0.88999E+04
 0.90903000E+02 -0.92688E+04
 0.90953003E+02 -0.94221E+04
 0.91002998E+02 -0.95335E+04
 0.91053001E+02 -0.90264E+04
 0.91102997E+02 -0.85326E+04
 0.91153000E+02 -0.75863E+04
 0.91203003E+02 -0.65575E+04
 0.91252998E+02 -0.52350E+04
 0.91303001E+02 -0.38621E+04
 0.91352997E+02 -0.37896E+04
 0.91403000E+02 -0.40358E+04
 0.91453003E+02 -0.40915E+04
 0.91502998E+02 -0.45044E+04
 0.91553001E+02 -0.50733E+04
 0.91602997E+02 -0.58391E+04
 0.91653000E+02 -0.65252E+04
 0.91703003E+02 -0.63751E+04
 0.91752998E+02 -0.59455E+04
 0.91803001E+02 -0.51709E+04
 0.91852997E+02 -0.42180E+04
 0.91903000E+02 -0.32549E+04
 0.91953003E+02 -0.21151E+04
 0.92002998E+02 -0.12444E+04
 0.92053001E+02 -0.34337E+03
 0.92102997E+02  0.84852E+03
 0.92153000E+02  0.15491E+04
 0.92203003E+02  0.18001E+04
 0.92252998E+02  0.12220E+04
 0.92303001E+02 -0.36878E+03
 0.92352997E+02 -0.26741E+04
 0.92403000E+02 -0.51447E+04
 0.92453003E+02 -0.68348E+04
 0.92502998E+02 -0.74870E+04
 0.92553001E+02 -0.71924E+04
 0.92602997E+02 -0.62435E+04
 0.92653000E+02 -0.51191E+04
 0.92703003E+02 -0.38531E+04
 0.92752998E+02 -0.29208E+04
 0.92803001E+02 -0.24578E+04
 0.92852997E+02 -0.21021E+04
 0.92903000E+02 -0.21004E+04
 0.92953003E+02 -0.21197E+04
 0.93002998E+02 -0.21579E+04
 0.93053001E+02 -0.24272E+04
 0.93102997E+02 -0.27209E+04
 0.93153000E+02 -0.31913E+04
 0.93203003E+02 -0.40813E+04
 0.93252998E+02 -0.50326E+04
 0.93303001E+02 -0.58169E+04
 0.93352997E+02 -0.65452E+04
 0.93403000E+02 -0.74917E+04
 0.93453003E+02 -0.84174E+04
 0.93502998E+02 -0.94484E+04
 0.93553001E+02 -0.10665E+05
 0.93602997E+02 -0.11386E+05
 0.93653000E+02 -0.11617E+05
 0.93703003E+02 -0.11778E+05
 0.93752998E+02 -0.11008E+05
 0.93803001E+02 -0.96659E+04
 0.93852997E+02 -0.78135E+04
 0.93903000E+02 -0.55677E+04
 0.93953003E+02 -0.33566E+04
 0.94002998E+02 -0.11741E+04
 0.94053001E+02 -0.30738E+02
 0.94102997E+02  0.57768E+03
 0.94153000E+02  0.75785E+03
 0.94203003E+02  0.31915E+03
 0.94252998E+02 -0.63065E+03
 0.94303001E+02 -0.15680E+04
 0.94352997E+02 -0.19398E+04
 0.94403000E+02 -0.25726E+04
 0.94453003E+02 -0.30342E+04
 0.94502998E+02 -0.33363E+04
 0.94553001E+02 -0.37447E+04
 0.94602997E+02 -0.40179E+04
 0.94653000E+02 -0.43441E+04
 0.94703003E+02 -0.44337E+04
 0.94752998E+02 -0.48495E+04
 0.94803001E+02 -0.51024E+04
 0.94852997E+02 -0.50201E+04
 0.94903000E+02 -0.46362E+04
 0.94953003E+02 -0.41612E+04
 0.95002998E+02 -0.43439E+04
 0.95053001E+02 -0.46124E+04
 0.95102997E+02 -0.46197E+04
 0.95153000E+02 -0.48789E+04
 0.95203003E+02 -0.55939E+04
 0.95252998E+02 -0.65102E+04
 0.95303001E+02 -0.70133E+04
 0.95352997E+02 -0.72116E+04
 0.95403000E+02 -0.78411E+04
 0.95453003E+02 -0.80062E+04
 0.95502998E+02 -0.70973E+04
 0.95553001E+02 -0.56246E+04
 0.95602997E+02 -0.39534E+04
 0.95653000E+02 -0.22802E+04
 0.95703003E+02 -0.69986E+03
 0.95752998E+02  0.12790E+02
 0.95803001E+02 -0.12397E+03
 0.95852997E+02 -0.43443E+03
 0.95903000E+02 -0.11186E+04
 0.95953003E+02 -0.21610E+04
 0.96002998E+02 -0.34032E+04
 0.96053001E+02 -0.48842E+04
 0.96102997E+02 -0.61639E+04
 0.96153000E+02 -0.73803E+04
 0.96203003E+02 -0.83073E+04
 0.96252998E+02 -0.82890E+04
 0.96303001E+02 -0.80756E+04
 0.96352997E+02 -0.77071E+04
 0.96403000E+02 -0.73778E+04
 0.96453003E+02 -0.72119E+04
 0.96502998E+02 -0.71838E+04
 0.96553001E+02 -0.72754E+04
 0.96602997E+02 -0.72516E+04
 0.96653000E+02 -0.70132E+04
 0.96703003E+02 -0.68747E+04
 0.96752998E+02 -0.69937E+04
 0.96803001E+02 -0.66550E+04
 0.96852997E+02 -0.62371E+04
 0.96903000E+02 -0.59394E+04
 0.96953003E+02 -0.53504E+04
 0.97002998E+02 -0.44087E+04
 0.97053001E+02 -0.39183E+04
 0.97102997E+02 -0.37208E+04
 0.97153000E+02 -0.31084E+04
 0.97203003E+02 -0.23839E+04
 0.97252998E+02 -0.18981E+04
 0.97303001E+02 -0.19771E+04
 0.97352997E+02 -0.18538E+04
 0.97403000E+02 -0.12029E+04
 0.97453003E+02 -0.69325E+03
 0.97502998E+02 -0.46315E+03
 0.97553001E+02 -0.32260E+03
 0.97602997E+02 -0.20660E+03
 0.97653000E+02 -0.51104E+03
 0.97703003E+02 -0.10682E+04
 0.97752998E+02 -0.16132E+04
 0.97803001E+02 -0.24674E+04
 0.97852997E+02 -0.39762E+04
 0.97903000E+02 -0.57910E+04
 0.97953003E+02 -0.77054E+04
 0.98002998E+02 -0.90856E+04
