-0.20000000E+01 -0.26191E+02
-0.19500000E+01 -0.20067E+02
-0.19000000E+01 -0.22005E+02
-0.18500000E+01 -0.22293E+02
-0.18000000E+01 -0.24991E+02
-0.17500000E+01 -0.39705E+02
-0.17000000E+01 -0.34424E+02
-0.16500001E+01 -0.42867E+02
-0.16000000E+01 -0.40400E+02
-0.15500000E+01 -0.32142E+02
-0.15000000E+01 -0.31201E+02
-0.14500000E+01 -0.22760E+02
-0.14000001E+01 -0.10944E+02
-0.13500000E+01 -0.72464E+01
-0.13000001E+01  0.58398E+00
-0.12500000E+01  0.73493E+01
-0.12000000E+01  0.15934E+02
-0.11500001E+01  0.23584E+02
-0.11000000E+01  0.16476E+02
-0.10500001E+01  0.12754E+02
-0.10000000E+01  0.53036E+01
-0.95000005E+00  0.45211E+01
-0.90000010E+00  0.43234E+01
-0.85000002E+00  0.83313E+01
-0.80000007E+00 -0.31683E+01
-0.75000012E+00  0.77158E+01
-0.70000005E+00  0.12919E+02
-0.65000010E+00  0.25204E+02
-0.60000014E+00  0.18320E+02
-0.55000007E+00 -0.90517E+00
-0.50000012E+00  0.34165E+01
-0.45000005E+00 -0.45528E+01
-0.40000010E+00  0.59825E+01
-0.35000014E+00  0.11327E+01
-0.30000007E+00 -0.11774E+02
-0.25000012E+00 -0.27821E+02
-0.20000005E+00 -0.40950E+02
-0.15000010E+00 -0.37481E+02
-0.10000014E+00 -0.23580E+02
-0.50000072E-01 -0.17597E+02
-0.11920929E-06 -0.17075E+02
 0.49999952E-01 -0.19817E+02
 0.99999905E-01 -0.13989E+02
 0.14999986E+00 -0.31358E+01
 0.19999981E+00 -0.22115E+01
 0.24999976E+00  0.75535E+00
 0.29999995E+00 -0.85940E+01
 0.34999990E+00 -0.99892E+01
 0.39999986E+00 -0.80337E+01
 0.44999981E+00 -0.73692E+01
 0.49999976E+00  0.54521E+01
 0.54999995E+00 -0.13663E+02
 0.59999990E+00 -0.15254E+02
 0.64999986E+00 -0.31517E+02
 0.69999981E+00 -0.40107E+02
 0.74999976E+00 -0.31785E+02
 0.79999971E+00 -0.21215E+02
 0.84999990E+00  0.44173E+01
 0.89999986E+00 -0.39159E+01
 0.94999981E+00  0.35200E+01
 0.99999976E+00  0.93227E+01
 0.10499997E+01  0.26220E+02
 0.10999999E+01  0.18242E+02
 0.11499999E+01  0.21832E+02
 0.11999998E+01  0.20939E+02
 0.12499998E+01  0.14241E+02
 0.12999997E+01  0.97505E+00
 0.13499999E+01 -0.11351E+02
 0.13999999E+01 -0.85672E+01
 0.14499998E+01 -0.17057E+02
 0.14999998E+01 -0.11004E+02
 0.15499997E+01 -0.23795E+01
 0.15999999E+01 -0.60295E+01
 0.16499999E+01 -0.20659E+02
 0.16999998E+01 -0.93398E+01
 0.17499998E+01 -0.54140E+02
 0.17999997E+01 -0.55823E+02
 0.18499997E+01 -0.19446E+02
 0.18999999E+01 -0.46402E+02
 0.19499998E+01 -0.56222E+02
 0.19999998E+01 -0.12650E+02
 0.20499997E+01 -0.84291E-01
 0.20999999E+01  0.64445E+01
 0.21499996E+01  0.75791E+02
 0.21999998E+01  0.21502E+02
 0.22499995E+01 -0.31233E+01
 0.22999997E+01  0.48018E+02
 0.23499999E+01 -0.17464E+02
 0.23999996E+01  0.36469E+01
 0.24499998E+01  0.36627E+02
 0.24999995E+01 -0.36217E+02
 0.25499997E+01 -0.40162E+01
 0.25999999E+01  0.16857E+02
 0.26499996E+01 -0.41700E+02
 0.26999998E+01  0.15593E+02
 0.27499995E+01  0.28338E+02
 0.27999997E+01 -0.22243E+02
 0.28499999E+01  0.36822E+02
 0.28999996E+01  0.12761E+02
 0.29499998E+01 -0.42270E+02
 0.29999995E+01  0.17574E+02
 0.30499997E+01 -0.20515E+02
 0.30999999E+01 -0.35604E+02
 0.31499996E+01  0.34756E+02
 0.31999998E+01 -0.31388E+02
 0.32499995E+01 -0.15573E+02
 0.32999997E+01  0.30955E+02
 0.33499999E+01 -0.37803E+02
 0.33999996E+01 -0.10249E+02
 0.34499998E+01 -0.78348E+01
 0.34999995E+01 -0.79403E+02
 0.35499997E+01 -0.15876E+02
 0.35999994E+01 -0.31096E+01
 0.36499996E+01 -0.73997E+02
 0.36999998E+01 -0.55796E+01
 0.37499995E+01 -0.25617E+02
 0.37999997E+01 -0.73140E+02
 0.38499994E+01  0.38928E+02
 0.38999996E+01  0.34254E+01
 0.39499998E+01 -0.35646E+02
 0.39999995E+01  0.41970E+02
 0.40499997E+01 -0.30331E+02
 0.40999994E+01 -0.41685E+02
 0.41499996E+01  0.28535E+02
 0.41999998E+01 -0.29748E+02
 0.42499995E+01 -0.52334E+01
 0.42999997E+01  0.72221E+02
 0.43499994E+01  0.93555E+01
 0.43999996E+01  0.20510E+02
 0.44499998E+01  0.72676E+02
 0.44999995E+01 -0.17797E+02
 0.45499997E+01  0.11003E+02
 0.45999994E+01  0.61016E+02
 0.46499996E+01  0.83800E+01
 0.46999998E+01  0.35462E+02
 0.47499995E+01  0.58558E+02
 0.47999997E+01 -0.71739E+01
 0.48499994E+01  0.25294E+02
 0.48999996E+01  0.57953E+02
 0.49499998E+01 -0.16376E+02
 0.49999995E+01  0.31092E+02
 0.50499997E+01  0.26521E+02
 0.50999994E+01 -0.38349E+02
 0.51499996E+01  0.26755E+02
 0.51999998E+01  0.60649E+02
 0.52499995E+01  0.93449E+01
 0.52999997E+01  0.51959E+02
 0.53499994E+01  0.74688E+02
 0.53999996E+01 -0.30316E+01
 0.54499993E+01  0.29469E+02
 0.54999995E+01  0.43323E+02
 0.55499997E+01 -0.16773E+02
 0.55999994E+01  0.14622E+02
 0.56499996E+01  0.34984E+02
 0.56999993E+01 -0.32563E+02
 0.57499995E+01 -0.20196E+02
 0.57999997E+01  0.13178E+02
 0.58499994E+01 -0.56678E+02
 0.58999996E+01 -0.32544E+02
 0.59499993E+01  0.88258E+01
 0.59999995E+01 -0.62933E+02
 0.60499992E+01 -0.60791E+02
 0.60999994E+01 -0.13736E+02
 0.61499996E+01 -0.67793E+02
 0.61999998E+01 -0.68471E+02
 0.62499990E+01 -0.96428E+01
 0.62999992E+01 -0.69742E+02
 0.63499994E+01 -0.82144E+02
 0.63999996E+01 -0.60762E+01
 0.64499998E+01 -0.32107E+02
 0.64999990E+01 -0.67015E+02
 0.65499992E+01 -0.12186E+02
 0.65999994E+01 -0.63334E+02
 0.66499996E+01 -0.11603E+03
 0.66999998E+01 -0.44955E+02
 0.67499990E+01 -0.48196E+02
 0.67999992E+01 -0.69669E+02
 0.68499994E+01  0.20078E+01
 0.68999996E+01  0.51346E+01
 0.69499998E+01 -0.62175E+02
 0.69999990E+01  0.14691E+02
 0.70499992E+01  0.39887E+02
 0.70999994E+01 -0.21164E+02
 0.71499996E+01  0.44563E+02
 0.71999998E+01  0.78385E+02
 0.72499990E+01  0.25646E+02
 0.72999992E+01  0.32889E+02
 0.73499994E+01  0.81809E+02
 0.73999996E+01  0.29132E+02
 0.74499998E+01  0.32441E+02
 0.74999990E+01  0.70858E+02
 0.75499992E+01 -0.17009E+02
 0.75999994E+01 -0.34739E+02
 0.76499996E+01  0.24599E+02
 0.76999998E+01  0.11393E+02
 0.77499990E+01 -0.14048E+02
 0.77999992E+01  0.55639E+02
 0.78499994E+01  0.31222E+02
 0.78999996E+01 -0.29438E+02
 0.79499998E+01  0.28676E+02
 0.79999990E+01  0.29352E+02
 0.80499992E+01 -0.27806E+02
 0.80999994E+01  0.93662E+01
 0.81499996E+01  0.18780E+02
 0.81999998E+01 -0.54906E+02
 0.82499990E+01 -0.40560E+01
 0.82999992E+01  0.31168E+02
 0.83499994E+01 -0.45733E+02
 0.83999996E+01 -0.36118E+02
 0.84499998E+01  0.30611E+01
 0.84999990E+01 -0.34375E+02
 0.85499992E+01 -0.40692E+02
 0.85999994E+01  0.16521E+02
 0.86499996E+01 -0.18385E+02
 0.86999998E+01 -0.53557E+02
 0.87499990E+01  0.31627E+02
 0.87999992E+01  0.24613E+02
 0.88499994E+01 -0.29257E+02
 0.88999996E+01  0.16309E+02
 0.89499998E+01  0.40281E+02
 0.89999990E+01 -0.14704E+02
 0.90499992E+01  0.36638E+02
 0.90999994E+01  0.70849E+02
 0.91499996E+01 -0.14626E+02
 0.91999989E+01 -0.12417E+01
 0.92499990E+01  0.46178E+02
 0.92999992E+01 -0.11149E+02
 0.93499994E+01 -0.23869E+02
 0.93999996E+01  0.27664E+02
 0.94499989E+01 -0.35082E+02
 0.94999990E+01 -0.66408E+02
 0.95499992E+01  0.19020E+01
 0.95999994E+01 -0.87282E+01
 0.96499996E+01 -0.54643E+02
 0.96999989E+01  0.97667E+01
 0.97499990E+01  0.50411E+01
 0.97999992E+01 -0.68190E+02
 0.98499994E+01 -0.11964E+02
 0.98999996E+01  0.28368E+02
 0.99499989E+01 -0.47734E+02
 0.99999990E+01 -0.31932E+02
 0.10049999E+02  0.23163E+02
 0.10099999E+02 -0.59302E+02
 0.10150000E+02 -0.66054E+02
 0.10199999E+02  0.34631E+01
 0.10249999E+02 -0.22310E+02
 0.10299999E+02 -0.46302E+02
 0.10349999E+02  0.25025E+02
 0.10400000E+02  0.54184E+02
 0.10449999E+02  0.53873E+01
 0.10499999E+02 -0.71732E+01
 0.10549999E+02  0.37369E+02
 0.10599999E+02  0.14967E+02
 0.10650000E+02 -0.23174E+02
 0.10699999E+02  0.30196E+02
 0.10749999E+02  0.63569E+02
 0.10799999E+02  0.45233E+01
 0.10849999E+02 -0.53706E+02
 0.10900000E+02 -0.44099E+00
 0.10949999E+02  0.30262E+01
 0.10999999E+02 -0.34738E+02
 0.11049999E+02 -0.20651E+02
 0.11099999E+02  0.40668E+01
 0.11150000E+02 -0.28955E+02
 0.11199999E+02 -0.44477E+02
 0.11249999E+02 -0.89961E+01
 0.11299999E+02  0.24543E+02
 0.11349999E+02 -0.35975E+01
 0.11400000E+02 -0.42174E+02
 0.11449999E+02 -0.33310E+02
 0.11499999E+02 -0.33486E+01
 0.11549999E+02  0.15231E+02
 0.11599999E+02 -0.14879E+02
 0.11650000E+02  0.63761E+00
 0.11699999E+02  0.80749E+01
 0.11749999E+02  0.18740E+02
 0.11799999E+02 -0.33427E+02
 0.11849999E+02 -0.44217E+02
 0.11900000E+02  0.47586E+00
 0.11949999E+02  0.42428E+02
 0.11999999E+02  0.41073E+02
 0.12049999E+02 -0.18432E+02
 0.12099999E+02 -0.23914E+02
 0.12150000E+02  0.10467E+02
 0.12199999E+02  0.33451E+02
 0.12249999E+02  0.54303E+01
 0.12299999E+02 -0.64792E+01
 0.12349999E+02 -0.16004E+01
 0.12400000E+02 -0.87836E+01
 0.12449999E+02 -0.53869E+02
 0.12499999E+02 -0.61019E+02
 0.12549999E+02 -0.10551E+02
 0.12599999E+02  0.16270E+02
 0.12649999E+02 -0.22649E+02
 0.12699999E+02 -0.55924E+02
 0.12749999E+02 -0.37259E+02
 0.12799999E+02 -0.15021E+02
 0.12849999E+02 -0.17538E+02
 0.12899999E+02 -0.24332E+02
 0.12949999E+02  0.88775E+01
 0.12999999E+02  0.80411E+01
 0.13049999E+02 -0.40095E+02
 0.13099999E+02 -0.28127E+02
 0.13149999E+02  0.38354E+02
 0.13199999E+02  0.55938E+02
 0.13249999E+02  0.15654E+02
 0.13299999E+02  0.37430E+02
 0.13349999E+02  0.81740E+02
 0.13399999E+02  0.64464E+02
 0.13449999E+02  0.15431E+02
 0.13499999E+02  0.37551E+02
 0.13549999E+02  0.71529E+02
 0.13599999E+02  0.33582E+02
 0.13649999E+02  0.22150E+02
 0.13699999E+02  0.45352E+02
 0.13749999E+02  0.37737E+02
 0.13799999E+02 -0.20671E+02
 0.13849999E+02 -0.54865E+01
 0.13899999E+02  0.27358E+02
 0.13949999E+02 -0.61301E+01
 0.13999999E+02 -0.37251E+02
 0.14049999E+02  0.72653E+01
 0.14099998E+02  0.21461E+02
 0.14150000E+02 -0.21075E+02
 0.14199999E+02 -0.20095E+02
 0.14249998E+02  0.87454E+01
 0.14299999E+02  0.13314E+02
 0.14349998E+02 -0.32620E+02
 0.14400000E+02 -0.18572E+02
 0.14449999E+02  0.20675E+02
 0.14499998E+02  0.14688E+02
 0.14549999E+02 -0.27528E+02
 0.14599998E+02 -0.39814E+02
 0.14650000E+02 -0.11124E+02
 0.14699999E+02 -0.17602E+02
 0.14749998E+02 -0.52217E+02
 0.14799999E+02 -0.59165E+02
 0.14849998E+02 -0.29815E+02
 0.14900000E+02 -0.45695E+01
 0.14949999E+02 -0.27318E+02
 0.14999998E+02 -0.41833E+02
 0.15049999E+02 -0.29437E+02
 0.15099998E+02 -0.65875E+01
 0.15150000E+02  0.59036E+01
 0.15199999E+02 -0.12817E+02
 0.15249998E+02 -0.12905E+02
 0.15299999E+02 -0.22332E+02
 0.15349998E+02 -0.22646E+02
 0.15400000E+02 -0.46195E+02
 0.15449999E+02 -0.70981E+02
 0.15499998E+02 -0.53385E+02
 0.15549999E+02 -0.39699E+02
 0.15599998E+02 -0.16301E+02
 0.15650000E+02 -0.38173E+02
 0.15699999E+02 -0.15043E+02
 0.15749998E+02  0.33632E+02
 0.15799999E+02  0.58174E+02
 0.15849998E+02  0.57054E+02
 0.15900000E+02  0.17935E+02
 0.15949999E+02  0.26300E+02
 0.15999998E+02  0.40652E+02
 0.16049999E+02  0.32017E+02
 0.16099998E+02  0.13840E+02
 0.16150000E+02  0.91683E+01
 0.16199999E+02 -0.96825E+01
 0.16249998E+02 -0.23834E+02
 0.16299999E+02 -0.19019E+02
 0.16349998E+02 -0.24291E+02
 0.16400000E+02 -0.24614E+02
 0.16449999E+02 -0.31417E+02
 0.16499998E+02 -0.23168E+02
 0.16549999E+02 -0.11377E+02
 0.16599998E+02 -0.14067E+02
 0.16650000E+02 -0.84088E+01
 0.16699999E+02 -0.97658E+01
 0.16749998E+02  0.57083E+01
 0.16799999E+02  0.44961E+01
 0.16849998E+02 -0.77672E+01
 0.16900000E+02 -0.14540E+02
 0.16949999E+02 -0.15255E+02
 0.16999998E+02 -0.19022E+02
 0.17049999E+02 -0.16779E+02
 0.17099998E+02 -0.22113E+01
 0.17150000E+02 -0.12979E+02
 0.17199999E+02 -0.28542E+02
 0.17249998E+02 -0.27486E+02
 0.17299999E+02 -0.12307E+02
 0.17349998E+02  0.62748E+01
 0.17400000E+02  0.16082E+02
 0.17449999E+02  0.19925E+02
 0.17499998E+02  0.29491E+02
 0.17549999E+02  0.12327E+02
 0.17599998E+02  0.10573E+02
 0.17650000E+02  0.22925E+01
 0.17699999E+02  0.10198E+02
 0.17749998E+02  0.18715E+02
 0.17799999E+02  0.66226E+01
 0.17849998E+02  0.13824E+02
 0.17900000E+02  0.14797E+02
 0.17949999E+02  0.19893E+02
 0.17999998E+02  0.18856E+02
 0.18049999E+02  0.26858E+01
 0.18099998E+02 -0.17055E+02
 0.18150000E+02 -0.26055E+02
 0.18199999E+02 -0.35249E+02
 0.18249998E+02 -0.35549E+02
 0.18299999E+02 -0.21110E+02
 0.18349998E+02 -0.13904E+02
 0.18400000E+02 -0.29313E+02
 0.18449999E+02 -0.32187E+02
 0.18499998E+02 -0.32104E+02
 0.18549999E+02 -0.14565E+02
 0.18599998E+02  0.47210E-01
 0.18650000E+02 -0.11851E+02
 0.18699999E+02 -0.93292E+01
 0.18749998E+02 -0.52762E+00
 0.18799999E+02  0.15760E+02
 0.18849998E+02  0.31165E+02
 0.18900000E+02  0.12670E+02
 0.18949999E+02 -0.82417E+01
 0.18999998E+02 -0.14390E+02
 0.19049999E+02 -0.14855E+02
 0.19099998E+02 -0.11026E+01
 0.19150000E+02 -0.43584E+01
 0.19199999E+02  0.67913E+01
 0.19249998E+02  0.54510E+01
 0.19299999E+02 -0.11579E+02
 0.19349998E+02 -0.20806E+02
 0.19400000E+02 -0.19410E+02
 0.19449999E+02  0.27055E+01
 0.19499998E+02  0.13103E+02
 0.19549999E+02  0.19207E+02
 0.19599998E+02  0.16483E+02
 0.19650000E+02  0.11957E+02
 0.19699999E+02  0.89312E+01
 0.19749998E+02  0.24669E+02
 0.19799999E+02  0.19471E+02
 0.19849998E+02  0.37508E+01
 0.19900000E+02 -0.16248E+02
 0.19949999E+02 -0.10435E+02
 0.19999998E+02  0.66423E+01
 0.20049999E+02  0.99198E+01
 0.20099998E+02  0.94511E+01
 0.20150000E+02 -0.99100E+01
 0.20199999E+02 -0.80359E+01
 0.20249998E+02 -0.73679E+01
 0.20299999E+02  0.81271E+01
 0.20349998E+02 -0.69438E+01
 0.20399998E+02 -0.27362E+02
 0.20449999E+02 -0.36463E+02
 0.20499998E+02 -0.26239E+02
 0.20549999E+02 -0.34824E+01
 0.20599998E+02 -0.77021E+01
 0.20649998E+02 -0.70950E+01
 0.20699999E+02 -0.27005E+02
 0.20749998E+02 -0.19010E+02
 0.20799999E+02 -0.22023E+01
 0.20849998E+02 -0.14346E+02
 0.20899998E+02 -0.76864E+01
 0.20949999E+02  0.29784E+01
 0.20999998E+02 -0.51424E+01
 0.21049999E+02  0.22325E+02
 0.21099998E+02  0.11968E+02
 0.21149998E+02  0.21759E+02
 0.21199999E+02  0.55981E+02
 0.21249998E+02 -0.29378E+02
 0.21299999E+02  0.27445E+02
 0.21349998E+02  0.48910E+02
 0.21399998E+02 -0.14228E+02
 0.21449999E+02  0.73117E+02
 0.21499998E+02  0.24079E+02
 0.21549999E+02 -0.54534E+02
 0.21599998E+02 -0.11020E+02
 0.21649998E+02 -0.69131E+02
 0.21699999E+02  0.15565E+02
 0.21749998E+02  0.16142E+03
 0.21799999E+02  0.57095E+02
 0.21849998E+02 -0.78370E+01
 0.21899998E+02 -0.67212E+02
 0.21949999E+02 -0.16304E+03
 0.21999998E+02 -0.14580E+01
 0.22049999E+02  0.15625E+03
 0.22099998E+02  0.19555E+03
 0.22149998E+02  0.15961E+03
 0.22199999E+02 -0.66773E+02
 0.22249998E+02 -0.32779E+01
 0.22299999E+02  0.12262E+03
 0.22349998E+02  0.21912E+01
 0.22399998E+02  0.11104E+03
 0.22449999E+02  0.34690E+03
 0.22499998E+02  0.24122E+03
 0.22549999E+02  0.62283E+01
 0.22599998E+02  0.20350E+03
 0.22649998E+02 -0.12090E+03
 0.22699999E+02 -0.64223E+03
 0.22749998E+02 -0.80279E+03
 0.22799999E+02 -0.12250E+03
 0.22849998E+02  0.71697E+03
 0.22899998E+02  0.14250E+02
 0.22949999E+02 -0.56889E+03
 0.22999998E+02 -0.12440E+04
 0.23049999E+02 -0.13470E+04
 0.23099998E+02 -0.86174E+03
 0.23149998E+02  0.10942E+04
 0.23199999E+02  0.13743E+04
 0.23249998E+02 -0.10051E+04
 0.23299999E+02 -0.21991E+04
 0.23349998E+02 -0.15971E+04
 0.23399998E+02  0.10084E+04
 0.23449999E+02  0.10549E+04
 0.23499998E+02  0.65628E+03
 0.23549999E+02 -0.27584E+03
 0.23599998E+02 -0.18405E+04
 0.23649998E+02 -0.34862E+03
 0.23699999E+02  0.20253E+04
 0.23749998E+02  0.19412E+04
 0.23799999E+02  0.56878E+03
 0.23849998E+02  0.55328E+02
 0.23899998E+02 -0.80663E+02
 0.23949999E+02  0.91787E+03
 0.23999998E+02  0.95455E+03
 0.24049999E+02  0.73895E+03
 0.24099998E+02 -0.21754E+03
 0.24149998E+02 -0.54232E+03
 0.24199999E+02  0.97429E+03
 0.24249998E+02  0.26137E+02
 0.24299999E+02 -0.12726E+04
 0.24349998E+02 -0.35033E+03
 0.24399998E+02  0.89100E+03
 0.24449999E+02  0.15035E+04
 0.24499998E+02  0.13154E+04
 0.24549999E+02 -0.83698E+03
 0.24599998E+02 -0.16960E+04
 0.24649998E+02 -0.15538E+04
 0.24699999E+02  0.14131E+04
 0.24749998E+02  0.24553E+04
 0.24799999E+02 -0.41068E+03
 0.24849998E+02 -0.20261E+04
 0.24899998E+02 -0.28706E+04
 0.24949999E+02 -0.57110E+03
 0.24999998E+02  0.38418E+02
 0.25049999E+02  0.75535E+03
 0.25099998E+02  0.21175E+03
 0.25149998E+02 -0.20351E+04
 0.25199999E+02 -0.40107E+04
 0.25249998E+02 -0.83698E+03
 0.25299999E+02  0.38216E+04
 0.25349998E+02  0.15319E+04
 0.25399998E+02 -0.18248E+04
 0.25449999E+02 -0.17198E+04
 0.25499998E+02  0.27370E+04
 0.25549999E+02  0.52909E+03
 0.25599998E+02  0.98962E+03
 0.25649998E+02  0.31009E+04
 0.25699999E+02  0.34781E+03
 0.25749998E+02 -0.27496E+04
 0.25799999E+02 -0.33206E+04
 0.25849998E+02  0.31374E+04
 0.25899998E+02  0.46371E+04
 0.25949999E+02  0.15265E+03
 0.25999998E+02 -0.45485E+03
 0.26049999E+02 -0.24852E+04
 0.26099998E+02 -0.30240E+04
 0.26149998E+02  0.16322E+04
 0.26199999E+02  0.15843E+04
 0.26249998E+02  0.71197E+03
 0.26299999E+02 -0.19624E+04
 0.26349998E+02 -0.31171E+04
 0.26399998E+02 -0.24962E+04
 0.26449999E+02  0.95743E+03
 0.26499998E+02  0.13442E+04
 0.26549999E+02 -0.73933E+03
 0.26599998E+02 -0.30618E+03
 0.26649998E+02 -0.26562E+03
 0.26699999E+02  0.19239E+04
 0.26749998E+02 -0.89668E+03
 0.26799999E+02 -0.10881E+04
 0.26849998E+02  0.21141E+04
 0.26899998E+02  0.10738E+03
 0.26949999E+02 -0.34427E+04
 0.26999998E+02  0.19820E+04
 0.27049997E+02  0.24118E+04
 0.27099998E+02  0.52290E+02
 0.27149998E+02  0.16803E+03
 0.27199999E+02 -0.18469E+04
 0.27249998E+02  0.23092E+04
 0.27299997E+02  0.31693E+04
 0.27349998E+02  0.23401E+03
 0.27399998E+02 -0.55359E+03
 0.27449999E+02 -0.26135E+04
 0.27499998E+02 -0.29532E+04
 0.27549997E+02  0.35562E+04
 0.27599998E+02  0.51207E+04
 0.27649998E+02 -0.32087E+04
 0.27699999E+02 -0.38473E+04
 0.27749998E+02  0.19988E+04
 0.27799997E+02 -0.12455E+04
 0.27849998E+02 -0.13874E+04
 0.27899998E+02  0.14352E+04
 0.27949999E+02  0.35135E+04
 0.27999998E+02 -0.10926E+04
 0.28049997E+02 -0.49360E+04
 0.28099998E+02 -0.53530E+03
 0.28149998E+02  0.88995E+03
 0.28199999E+02  0.14266E+04
 0.28249998E+02  0.27896E+03
 0.28299997E+02  0.33503E+04
 0.28349998E+02  0.65617E+03
 0.28399998E+02 -0.28473E+04
 0.28449999E+02  0.22104E+04
 0.28499998E+02  0.34903E+01
 0.28549997E+02 -0.49702E+03
 0.28599998E+02  0.40862E+03
 0.28649998E+02  0.22853E+04
 0.28699999E+02 -0.45732E+03
 0.28749998E+02 -0.17541E+04
 0.28799997E+02 -0.99147E+03
 0.28849998E+02 -0.56974E+04
 0.28899998E+02 -0.31640E+04
 0.28949999E+02  0.28080E+04
 0.28999998E+02  0.37449E+04
 0.29049997E+02 -0.28853E+04
 0.29099998E+02 -0.13750E+04
 0.29149998E+02 -0.60325E+03
 0.29199999E+02  0.21307E+03
 0.29249998E+02  0.21967E+04
 0.29299997E+02  0.29867E+04
 0.29349998E+02  0.47795E+04
 0.29399998E+02 -0.11882E+04
 0.29449999E+02 -0.27797E+04
 0.29499998E+02  0.11216E+04
 0.29549997E+02 -0.99974E+03
 0.29599998E+02  0.41595E+03
 0.29649998E+02  0.41606E+04
 0.29699999E+02  0.99798E+03
 0.29749998E+02 -0.24260E+04
 0.29799997E+02 -0.42856E+04
 0.29849998E+02 -0.24499E+04
 0.29899998E+02  0.60605E+00
 0.29949999E+02  0.33416E+04
 0.29999998E+02  0.53942E+04
 0.30049999E+02 -0.11256E+03
 0.30099998E+02 -0.36491E+04
 0.30149998E+02 -0.14299E+04
 0.30199997E+02  0.36969E+04
 0.30249996E+02  0.23151E+04
 0.30299999E+02 -0.23385E+04
 0.30349998E+02  0.57604E+03
 0.30399998E+02 -0.74255E+03
 0.30449997E+02 -0.32043E+04
 0.30499996E+02 -0.73798E+03
 0.30549999E+02  0.39999E+04
 0.30599998E+02  0.48707E+04
 0.30649998E+02 -0.10217E+04
 0.30699997E+02 -0.42573E+04
 0.30749996E+02 -0.24601E+04
 0.30799999E+02  0.10280E+04
 0.30849998E+02  0.16110E+04
 0.30899998E+02  0.22783E+03
 0.30949997E+02 -0.20663E+04
 0.30999996E+02 -0.25085E+04
 0.31049999E+02 -0.13612E+03
 0.31099998E+02  0.47202E+03
 0.31149998E+02 -0.20228E+03
 0.31199997E+02  0.74459E+02
 0.31249996E+02 -0.47006E+03
 0.31299999E+02 -0.99149E+03
 0.31349998E+02  0.21080E+04
 0.31399998E+02  0.33310E+04
 0.31449997E+02  0.17949E+04
 0.31499996E+02 -0.30889E+03
 0.31549999E+02  0.12539E+04
 0.31599998E+02  0.11896E+04
 0.31649998E+02 -0.15186E+04
 0.31699997E+02  0.16819E+04
 0.31749996E+02  0.14165E+04
 0.31799999E+02 -0.32922E+04
 0.31849998E+02 -0.42903E+04
 0.31899998E+02  0.68675E+03
 0.31949997E+02  0.33460E+04
 0.31999996E+02 -0.10298E+04
 0.32049999E+02 -0.22530E+04
 0.32099998E+02  0.17066E+04
 0.32149998E+02  0.97983E+03
 0.32199997E+02 -0.84603E+03
 0.32249996E+02 -0.13354E+03
 0.32299999E+02 -0.14764E+04
 0.32349998E+02 -0.55955E+03
 0.32399998E+02 -0.19849E+04
 0.32449997E+02 -0.36505E+04
 0.32499996E+02 -0.14176E+04
 0.32549999E+02  0.29741E+04
 0.32599998E+02  0.46805E+04
 0.32649998E+02 -0.38228E+03
 0.32699997E+02 -0.45293E+04
 0.32749996E+02 -0.12633E+04
 0.32799999E+02  0.29961E+04
 0.32849998E+02  0.28700E+04
 0.32899998E+02 -0.84132E+03
 0.32949997E+02 -0.11367E+04
 0.32999996E+02  0.45577E+03
 0.33049999E+02 -0.20319E+04
 0.33099998E+02 -0.74386E+03
 0.33149998E+02  0.12963E+04
 0.33199997E+02  0.11830E+04
 0.33249996E+02  0.29958E+03
 0.33299999E+02 -0.87913E+03
 0.33349998E+02 -0.16749E+04
 0.33399998E+02  0.50828E+03
 0.33449997E+02  0.14478E+04
 0.33499996E+02  0.56443E+03
 0.33549999E+02 -0.22416E+04
 0.33599998E+02 -0.20321E+04
 0.33649998E+02  0.24659E+04
 0.33699997E+02  0.35924E+04
 0.33749996E+02 -0.76911E+03
 0.33799999E+02 -0.34875E+04
 0.33849998E+02 -0.32115E+04
 0.33899998E+02  0.13488E+04
 0.33949997E+02  0.55529E+04
 0.33999996E+02  0.24551E+04
 0.34049999E+02 -0.50119E+03
 0.34099998E+02 -0.23016E+04
 0.34149998E+02  0.88238E+03
 0.34199997E+02  0.65270E+03
 0.34249996E+02 -0.11902E+03
 0.34299999E+02 -0.18709E+04
 0.34349998E+02 -0.24604E+04
 0.34399998E+02 -0.24794E+04
 0.34449997E+02 -0.24169E+04
 0.34499996E+02  0.18022E+04
 0.34549999E+02  0.33412E+04
 0.34599998E+02  0.22367E+04
 0.34649998E+02 -0.18370E+04
 0.34699997E+02 -0.23787E+04
 0.34749996E+02 -0.17281E+04
 0.34799999E+02  0.33581E+03
 0.34849998E+02 -0.39260E+03
 0.34899998E+02 -0.13047E+04
 0.34949997E+02  0.15320E+04
 0.34999996E+02  0.22591E+03
 0.35049999E+02 -0.20314E+04
 0.35099998E+02 -0.36130E+04
 0.35149998E+02  0.78336E+03
 0.35199997E+02  0.39374E+04
 0.35249996E+02  0.17195E+04
 0.35299999E+02  0.19736E+04
 0.35349998E+02 -0.87647E+02
 0.35399998E+02 -0.19819E+04
 0.35449997E+02  0.97789E+03
 0.35499996E+02  0.87708E+03
 0.35549999E+02  0.60091E+03
 0.35599998E+02 -0.25825E+03
 0.35649998E+02  0.38119E+03
 0.35699997E+02  0.13907E+04
 0.35749996E+02 -0.28472E+03
 0.35799999E+02 -0.23969E+04
 0.35849998E+02 -0.22971E+04
 0.35899998E+02  0.23739E+04
 0.35949997E+02  0.13627E+04
 0.35999996E+02  0.65225E+03
 0.36049999E+02 -0.19644E+04
 0.36099998E+02 -0.19038E+04
 0.36149998E+02  0.53867E+03
 0.36199997E+02  0.47838E+04
 0.36249996E+02  0.41326E+04
 0.36299999E+02 -0.42978E+04
 0.36349998E+02 -0.21214E+04
 0.36399998E+02  0.95018E+03
 0.36449997E+02  0.14155E+04
 0.36499996E+02  0.25933E+04
 0.36549999E+02  0.87558E+03
 0.36599998E+02 -0.38027E+04
 0.36649998E+02 -0.49840E+04
 0.36699997E+02 -0.12508E+04
 0.36749996E+02  0.13607E+04
 0.36799999E+02  0.30468E+03
 0.36849998E+02  0.24509E+03
 0.36899998E+02  0.14005E+04
 0.36949997E+02  0.18244E+04
 0.36999996E+02  0.39282E+04
 0.37049999E+02  0.21045E+04
 0.37099998E+02 -0.45963E+04
 0.37149998E+02 -0.75819E+04
 0.37199997E+02 -0.31556E+04
 0.37249996E+02  0.23271E+04
 0.37299999E+02  0.90160E+04
 0.37349998E+02  0.66751E+04
 0.37399998E+02 -0.62323E+04
 0.37449997E+02 -0.97125E+04
 0.37499996E+02 -0.47265E+04
 0.37549999E+02  0.34542E+04
 0.37599998E+02  0.64225E+04
 0.37649998E+02  0.59162E+04
 0.37699997E+02  0.59873E+03
 0.37749996E+02 -0.56735E+04
 0.37799999E+02 -0.20405E+04
 0.37849998E+02  0.52391E+04
 0.37899998E+02  0.60552E+04
 0.37949997E+02 -0.33876E+04
 0.37999996E+02 -0.49229E+04
 0.38049999E+02  0.50303E+04
 0.38099998E+02  0.72549E+04
 0.38149998E+02 -0.52610E+04
 0.38199997E+02 -0.13116E+05
 0.38249996E+02 -0.60398E+04
 0.38299999E+02  0.51453E+04
 0.38349998E+02  0.66371E+04
 0.38399998E+02  0.55024E+04
 0.38449997E+02  0.60491E+04
 0.38499996E+02 -0.23203E+04
 0.38549999E+02 -0.34390E+04
 0.38599998E+02 -0.11080E+04
 0.38649998E+02 -0.73074E+04
 0.38699997E+02 -0.58841E+04
 0.38749996E+02  0.56209E+04
 0.38799999E+02  0.45608E+04
 0.38849998E+02 -0.20222E+04
 0.38899998E+02 -0.16086E+04
 0.38949997E+02 -0.41248E+04
 0.38999996E+02  0.39676E+03
 0.39049999E+02  0.49434E+04
 0.39099998E+02  0.60505E+04
 0.39149998E+02  0.46678E+04
 0.39199997E+02 -0.67325E+04
 0.39249996E+02 -0.10873E+05
 0.39299999E+02 -0.38671E+04
 0.39349998E+02  0.56678E+04
 0.39399998E+02  0.11986E+05
 0.39449997E+02  0.52396E+04
 0.39499996E+02 -0.43793E+04
 0.39549999E+02 -0.96182E+04
 0.39599998E+02 -0.10571E+05
 0.39649998E+02  0.21811E+04
 0.39699997E+02  0.15942E+05
 0.39749996E+02  0.52374E+04
 0.39799999E+02 -0.61751E+04
 0.39849998E+02 -0.27755E+04
 0.39899998E+02  0.51722E+03
 0.39949997E+02 -0.19652E+04
 0.39999996E+02 -0.73073E+04
 0.40049999E+02 -0.67374E+04
 0.40099998E+02 -0.81155E+04
 0.40149998E+02 -0.10308E+04
 0.40199997E+02  0.11674E+05
 0.40249996E+02  0.11262E+05
 0.40299999E+02  0.59122E+04
 0.40349998E+02  0.68232E+04
 0.40399998E+02  0.83487E+04
 0.40449997E+02  0.15591E+05
 0.40499996E+02  0.17317E+05
 0.40549999E+02 -0.89889E+04
 0.40599998E+02 -0.44156E+05
 0.40649998E+02 -0.55424E+05
 0.40699997E+02 -0.19078E+05
 0.40749996E+02  0.32701E+05
 0.40799999E+02  0.42114E+05
 0.40849998E+02  0.27904E+05
 0.40899998E+02  0.23226E+05
 0.40949997E+02  0.46863E+04
 0.40999996E+02 -0.21781E+05
 0.41049999E+02 -0.29853E+05
 0.41099998E+02 -0.22685E+05
 0.41149998E+02 -0.88187E+04
 0.41199997E+02 -0.42676E+04
 0.41249996E+02  0.38907E+04
 0.41299999E+02  0.22721E+05
 0.41349998E+02  0.22484E+05
 0.41399998E+02  0.38375E+04
 0.41449997E+02 -0.83034E+03
 0.41499996E+02  0.10475E+05
 0.41549999E+02 -0.76840E+04
 0.41599998E+02 -0.35472E+05
 0.41649998E+02 -0.27530E+05
 0.41699997E+02  0.11901E+04
 0.41749996E+02  0.19079E+05
 0.41799999E+02  0.12919E+05
 0.41849998E+02 -0.15740E+04
 0.41899998E+02  0.83594E+03
 0.41949997E+02  0.12984E+05
 0.41999996E+02  0.11478E+05
 0.42049999E+02  0.85365E+04
 0.42099998E+02 -0.41766E+04
 0.42149998E+02 -0.18737E+05
 0.42199997E+02 -0.10595E+05
 0.42249996E+02  0.12748E+04
 0.42299999E+02  0.24226E+04
 0.42349998E+02 -0.62535E+04
 0.42399998E+02 -0.19807E+05
 0.42449997E+02 -0.13437E+05
 0.42499996E+02  0.63550E+04
 0.42549999E+02  0.15049E+05
 0.42599998E+02  0.16253E+05
 0.42649998E+02  0.12006E+05
 0.42699997E+02  0.15795E+05
 0.42749996E+02  0.15494E+05
 0.42799995E+02  0.59121E+04
 0.42849998E+02 -0.96037E+04
 0.42899998E+02 -0.19948E+05
 0.42949997E+02 -0.87401E+04
 0.42999996E+02 -0.44670E+04
 0.43049995E+02 -0.36202E+04
 0.43099998E+02  0.65393E+04
 0.43149998E+02  0.61939E+04
 0.43199997E+02  0.18680E+04
 0.43249996E+02  0.41675E+04
 0.43299995E+02 -0.94653E+04
 0.43349998E+02 -0.19457E+05
 0.43399998E+02 -0.75535E+04
 0.43449997E+02 -0.15120E+04
 0.43499996E+02 -0.19566E+04
 0.43549995E+02 -0.28167E+04
 0.43599998E+02  0.64114E+03
 0.43649998E+02  0.19032E+05
 0.43699997E+02  0.27792E+05
 0.43749996E+02  0.14660E+05
 0.43799995E+02  0.34859E+04
 0.43849998E+02 -0.12771E+05
 0.43899998E+02 -0.29441E+05
 0.43949997E+02 -0.16672E+05
 0.43999996E+02  0.49121E+04
 0.44049995E+02  0.68187E+04
 0.44099998E+02  0.35800E+04
 0.44149998E+02  0.90295E+04
 0.44199997E+02  0.90457E+04
 0.44249996E+02  0.33081E+04
 0.44299995E+02 -0.54844E+04
 0.44349998E+02 -0.96473E+04
 0.44399998E+02 -0.80059E+04
 0.44449997E+02 -0.80710E+04
 0.44499996E+02  0.23865E+04
 0.44549995E+02  0.94678E+04
 0.44599998E+02 -0.15015E+04
 0.44649998E+02 -0.79229E+04
 0.44699997E+02  0.79444E+04
 0.44749996E+02  0.19752E+05
 0.44799995E+02  0.79065E+04
 0.44849998E+02 -0.11654E+05
 0.44899998E+02 -0.17118E+05
 0.44949997E+02 -0.45409E+04
 0.44999996E+02  0.10034E+05
 0.45049995E+02  0.83900E+04
 0.45099998E+02 -0.28055E+04
 0.45149998E+02 -0.92096E+04
 0.45199997E+02 -0.78366E+04
 0.45249996E+02 -0.24706E+04
 0.45299995E+02  0.41136E+04
 0.45349998E+02  0.11400E+05
 0.45399998E+02  0.10692E+05
 0.45449997E+02  0.58410E+04
 0.45499996E+02  0.22306E+04
 0.45549995E+02 -0.25843E+03
 0.45599998E+02 -0.33307E+04
 0.45649998E+02 -0.10417E+05
 0.45699997E+02 -0.14269E+05
 0.45749996E+02 -0.77279E+04
 0.45799995E+02  0.80311E+03
 0.45849998E+02  0.55581E+04
 0.45899998E+02  0.37748E+04
 0.45949997E+02 -0.13283E+04
 0.45999996E+02 -0.34572E+04
 0.46049995E+02 -0.14634E+04
 0.46099998E+02  0.33189E+04
 0.46149998E+02  0.31378E+04
 0.46199997E+02  0.14967E+04
 0.46249996E+02 -0.20771E+04
 0.46299995E+02 -0.62441E+04
 0.46349998E+02 -0.48638E+04
 0.46399998E+02  0.29417E+04
 0.46449997E+02  0.11111E+05
 0.46499996E+02  0.12961E+05
 0.46549995E+02  0.82896E+04
 0.46599998E+02  0.12477E+04
 0.46649998E+02 -0.60279E+04
 0.46699997E+02 -0.13347E+05
 0.46749996E+02 -0.76884E+04
 0.46799995E+02 -0.34005E+04
 0.46849998E+02 -0.84530E+04
 0.46899998E+02 -0.87310E+04
 0.46949997E+02 -0.23551E+04
 0.46999996E+02  0.76282E+04
 0.47049995E+02  0.94801E+04
 0.47099998E+02  0.43559E+04
 0.47149998E+02  0.73760E+03
 0.47199997E+02  0.22435E+04
 0.47249996E+02  0.33420E+04
 0.47299995E+02 -0.49831E+02
 0.47349998E+02 -0.25550E+04
 0.47399998E+02  0.62790E+03
 0.47449997E+02  0.75394E+04
 0.47499996E+02  0.99681E+04
 0.47549995E+02  0.59826E+04
 0.47599998E+02 -0.23512E+04
 0.47649998E+02 -0.57505E+04
 0.47699997E+02 -0.50395E+04
 0.47749996E+02 -0.28138E+04
 0.47799995E+02 -0.41936E+02
 0.47849998E+02 -0.89991E+03
 0.47899998E+02 -0.28005E+04
 0.47949997E+02 -0.29102E+04
 0.47999996E+02 -0.18289E+04
 0.48049995E+02 -0.19737E+04
 0.48099998E+02 -0.72544E+03
 0.48149998E+02  0.30515E+04
 0.48199997E+02  0.23751E+04
 0.48249996E+02 -0.25296E+04
 0.48299995E+02 -0.72709E+03
 0.48349998E+02  0.21206E+04
 0.48399998E+02  0.19701E+04
 0.48449997E+02 -0.83564E+03
 0.48499996E+02 -0.34177E+04
 0.48549995E+02 -0.42722E+04
 0.48599998E+02 -0.51491E+04
 0.48649998E+02 -0.34042E+04
 0.48699997E+02 -0.17566E+04
 0.48749996E+02  0.51918E+03
 0.48799995E+02  0.11536E+04
 0.48849998E+02  0.21420E+04
 0.48899998E+02  0.36961E+04
 0.48949997E+02  0.48154E+04
 0.48999996E+02  0.28807E+04
 0.49049995E+02 -0.10025E+04
 0.49099998E+02 -0.19875E+04
 0.49149998E+02  0.17302E+03
 0.49199997E+02  0.18638E+04
 0.49249996E+02 -0.34393E+03
 0.49299995E+02  0.20176E+03
 0.49349998E+02  0.27508E+04
 0.49399998E+02  0.53002E+04
 0.49449997E+02  0.56579E+04
 0.49499996E+02  0.33188E+04
 0.49549995E+02 -0.49429E+01
 0.49599998E+02 -0.40877E+04
 0.49649998E+02 -0.81051E+04
 0.49699997E+02 -0.77338E+04
 0.49749996E+02 -0.17297E+04
 0.49799995E+02  0.16065E+04
 0.49849998E+02  0.23149E+04
 0.49899998E+02  0.54299E+04
 0.49949997E+02  0.87866E+04
 0.49999996E+02  0.45934E+04
 0.50049995E+02 -0.35702E+04
 0.50099998E+02 -0.92457E+04
 0.50149998E+02 -0.69194E+04
 0.50199997E+02 -0.14294E+04
 0.50249996E+02 -0.33649E+04
 0.50299995E+02 -0.25351E+04
 0.50349998E+02  0.43051E+04
 0.50399998E+02  0.66461E+04
 0.50449997E+02  0.25649E+04
 0.50499996E+02  0.12551E+03
 0.50549995E+02 -0.34812E+03
 0.50599998E+02  0.11364E+04
 0.50649998E+02  0.26121E+04
 0.50699997E+02  0.13191E+04
 0.50749996E+02 -0.15850E+04
 0.50799995E+02 -0.76637E+04
 0.50849998E+02 -0.88484E+04
 0.50899998E+02 -0.22813E+04
 0.50949997E+02  0.32789E+04
 0.50999996E+02  0.48988E+04
 0.51049995E+02  0.17220E+04
 0.51099998E+02 -0.98717E+03
 0.51149998E+02  0.65699E+03
 0.51199997E+02  0.49813E+04
 0.51249996E+02  0.48040E+04
 0.51299995E+02  0.72533E+03
 0.51349998E+02 -0.12984E+04
 0.51399998E+02 -0.19987E+04
 0.51449997E+02  0.50524E+03
 0.51499996E+02  0.20061E+04
 0.51549995E+02  0.16970E+04
 0.51599998E+02 -0.24088E+04
 0.51649998E+02 -0.25548E+04
 0.51699997E+02  0.40727E+04
 0.51749996E+02  0.58263E+04
 0.51799995E+02 -0.19945E+03
 0.51849998E+02 -0.66989E+04
 0.51899998E+02 -0.66027E+04
 0.51949997E+02 -0.34512E+04
 0.51999996E+02 -0.44580E+03
 0.52049995E+02  0.24384E+04
 0.52099998E+02  0.57794E+04
 0.52149998E+02  0.65727E+04
 0.52199997E+02  0.64957E+04
 0.52249996E+02  0.28878E+04
 0.52299995E+02 -0.45938E+04
 0.52349998E+02 -0.83598E+04
 0.52399998E+02 -0.55063E+04
 0.52449997E+02 -0.76387E+03
 0.52499996E+02  0.38003E+03
 0.52549995E+02  0.15014E+04
 0.52599998E+02  0.22630E+04
 0.52649998E+02  0.24738E+04
 0.52699997E+02 -0.64819E+02
 0.52749996E+02 -0.34832E+04
 0.52799995E+02 -0.36049E+04
 0.52849998E+02 -0.16981E+04
 0.52899998E+02  0.37376E+03
 0.52949997E+02 -0.33430E+03
 0.52999996E+02 -0.13872E+04
 0.53049995E+02 -0.39169E+03
 0.53099998E+02  0.17039E+04
 0.53149998E+02  0.28398E+04
 0.53199997E+02  0.40068E+04
 0.53249996E+02  0.50162E+04
 0.53299995E+02  0.29270E+04
 0.53349998E+02  0.13653E+03
 0.53399998E+02 -0.92208E+03
 0.53449997E+02 -0.27497E+04
 0.53499996E+02 -0.36213E+04
 0.53549995E+02 -0.26847E+04
 0.53599998E+02 -0.24445E+04
 0.53649998E+02 -0.13678E+04
 0.53699997E+02 -0.11596E+04
 0.53749996E+02 -0.28471E+04
 0.53799995E+02 -0.41281E+04
 0.53849998E+02 -0.11790E+04
 0.53899998E+02  0.21529E+04
 0.53949997E+02  0.26736E+04
 0.53999996E+02  0.32730E+04
 0.54049995E+02  0.32520E+04
 0.54099998E+02  0.22776E+04
 0.54149998E+02 -0.65959E+03
 0.54199997E+02 -0.34211E+04
 0.54249996E+02 -0.30515E+04
 0.54299995E+02 -0.15274E+04
 0.54349998E+02 -0.14060E+04
 0.54399998E+02 -0.71906E+03
 0.54449997E+02  0.27293E+04
 0.54499996E+02  0.36278E+04
 0.54549995E+02  0.12450E+04
 0.54599998E+02  0.12189E+04
 0.54649998E+02  0.35584E+04
 0.54699997E+02  0.56852E+04
 0.54749996E+02  0.49369E+04
 0.54799995E+02  0.70968E+03
 0.54849998E+02 -0.34887E+04
 0.54899998E+02 -0.29603E+04
 0.54949997E+02 -0.42148E+03
 0.54999996E+02  0.13264E+04
 0.55049995E+02 -0.29813E+03
 0.55099998E+02 -0.55529E+04
 0.55149998E+02 -0.80645E+04
 0.55199997E+02 -0.63229E+04
 0.55249996E+02 -0.29948E+04
 0.55299995E+02 -0.88049E+03
 0.55349998E+02 -0.18019E+03
 0.55399998E+02  0.27155E+03
 0.55449997E+02  0.23992E+04
 0.55499996E+02  0.34768E+04
 0.55549995E+02  0.16545E+04
 0.55599998E+02 -0.24952E+03
 0.55649998E+02 -0.46391E+03
 0.55699997E+02  0.69077E+03
 0.55749996E+02  0.14064E+04
 0.55799995E+02  0.72816E+03
 0.55849995E+02  0.35823E+03
 0.55899998E+02  0.20168E+04
 0.55949997E+02  0.34576E+04
 0.55999996E+02  0.40273E+04
 0.56049995E+02  0.47123E+04
 0.56099995E+02  0.39581E+04
 0.56149998E+02  0.10050E+04
 0.56199997E+02 -0.13922E+04
 0.56249996E+02 -0.14246E+04
 0.56299995E+02 -0.11436E+04
 0.56349995E+02 -0.31840E+04
 0.56399998E+02 -0.40911E+04
 0.56449997E+02 -0.26034E+04
 0.56499996E+02 -0.76560E+03
 0.56549995E+02 -0.10590E+03
 0.56599995E+02 -0.18256E+04
 0.56649998E+02 -0.35113E+04
 0.56699997E+02 -0.47820E+04
 0.56749996E+02 -0.24942E+04
 0.56799995E+02  0.18032E+04
 0.56849995E+02  0.36335E+04
 0.56899998E+02  0.38746E+04
 0.56949997E+02  0.42523E+04
 0.56999996E+02  0.29249E+04
 0.57049995E+02 -0.54082E+03
 0.57099995E+02 -0.12096E+04
 0.57149998E+02 -0.21254E+02
 0.57199997E+02  0.26577E+03
 0.57249996E+02 -0.15257E+04
 0.57299995E+02 -0.20778E+04
 0.57349995E+02  0.16791E+03
 0.57399998E+02  0.13041E+04
 0.57449997E+02  0.20911E+03
 0.57499996E+02 -0.13230E+04
 0.57549995E+02 -0.27387E+03
 0.57599995E+02  0.15988E+04
 0.57649998E+02  0.14329E+04
 0.57699997E+02  0.24992E+02
 0.57749996E+02 -0.73143E+03
 0.57799995E+02 -0.17542E+04
 0.57849995E+02 -0.30669E+04
 0.57899998E+02 -0.37542E+04
 0.57949997E+02 -0.25414E+04
 0.57999996E+02  0.12815E+04
 0.58049995E+02  0.37193E+04
 0.58099995E+02  0.31701E+04
 0.58149998E+02  0.17462E+04
 0.58199997E+02  0.14767E+04
 0.58249996E+02  0.46943E+03
 0.58299995E+02 -0.17911E+04
 0.58349995E+02 -0.35770E+04
 0.58399998E+02 -0.33050E+04
 0.58449997E+02 -0.96922E+03
 0.58499996E+02  0.18825E+04
 0.58549995E+02  0.20444E+04
 0.58599995E+02 -0.75970E+03
 0.58649998E+02 -0.10253E+04
 0.58699997E+02 -0.11272E+03
 0.58749996E+02 -0.25543E+03
 0.58799995E+02  0.25092E+02
 0.58849995E+02  0.11863E+04
 0.58899998E+02  0.22900E+04
 0.58949997E+02  0.16144E+04
 0.58999996E+02  0.16094E+04
 0.59049995E+02  0.30186E+04
 0.59099995E+02  0.34478E+04
 0.59149998E+02  0.18853E+04
 0.59199997E+02 -0.43076E+03
 0.59249996E+02 -0.11802E+04
 0.59299995E+02 -0.10262E+04
 0.59349995E+02 -0.12456E+04
 0.59399998E+02 -0.20490E+04
 0.59449997E+02 -0.22266E+04
 0.59499996E+02 -0.15381E+04
 0.59549995E+02 -0.17895E+04
 0.59599995E+02 -0.33220E+04
 0.59649998E+02 -0.36889E+04
 0.59699997E+02 -0.24414E+04
 0.59749996E+02 -0.13216E+04
 0.59799995E+02  0.50982E+03
 0.59849995E+02  0.21446E+04
 0.59899998E+02  0.19199E+04
 0.59949997E+02  0.94570E+03
 0.59999996E+02  0.66674E+03
 0.60049995E+02  0.94926E+03
 0.60099995E+02  0.30597E+03
 0.60149998E+02 -0.67205E+03
 0.60199997E+02 -0.76287E+03
 0.60249996E+02  0.59750E+03
 0.60299995E+02  0.17894E+04
 0.60349995E+02  0.28943E+04
 0.60399998E+02  0.39562E+04
 0.60449997E+02  0.27033E+04
 0.60499996E+02  0.13503E+04
 0.60549995E+02  0.92184E+03
 0.60599995E+02 -0.39479E+03
 0.60649998E+02 -0.15381E+04
 0.60699997E+02 -0.16991E+04
 0.60749996E+02 -0.15995E+04
 0.60799995E+02 -0.18224E+04
 0.60849995E+02 -0.20999E+04
 0.60899998E+02 -0.11870E+04
 0.60949997E+02 -0.79924E+03
 0.60999996E+02 -0.71677E+03
 0.61049995E+02 -0.26784E+03
 0.61099995E+02 -0.98990E+03
 0.61149998E+02 -0.12772E+04
 0.61199997E+02  0.62022E+03
 0.61249996E+02  0.27556E+04
 0.61299995E+02  0.33408E+04
 0.61349995E+02  0.31780E+04
 0.61399998E+02  0.29514E+04
 0.61449997E+02  0.18907E+04
 0.61499996E+02 -0.54213E+02
 0.61549995E+02 -0.25346E+04
 0.61599995E+02 -0.36724E+04
 0.61649998E+02 -0.24175E+04
 0.61699997E+02 -0.11087E+04
 0.61749996E+02 -0.62211E+02
 0.61799995E+02  0.11646E+03
 0.61849995E+02 -0.83530E+03
 0.61899998E+02 -0.47822E+03
 0.61949997E+02  0.86170E+03
 0.61999996E+02  0.76801E+03
 0.62049995E+02  0.31662E+03
 0.62099998E+02  0.47843E+03
 0.62149994E+02  0.15871E+03
 0.62199997E+02 -0.11320E+03
 0.62249992E+02  0.91999E+03
 0.62299995E+02  0.22830E+04
 0.62349998E+02  0.18620E+04
 0.62399994E+02 -0.16927E+03
 0.62449997E+02 -0.20384E+04
 0.62499992E+02 -0.19264E+04
 0.62549995E+02 -0.45796E+03
 0.62599998E+02 -0.11730E+03
 0.62649994E+02 -0.10994E+04
 0.62699997E+02 -0.28889E+04
 0.62749992E+02 -0.36604E+04
 0.62799995E+02 -0.20199E+04
 0.62849998E+02 -0.57938E+02
 0.62899994E+02  0.10228E+03
 0.62949997E+02 -0.36813E+03
 0.62999992E+02  0.32982E+03
 0.63049995E+02  0.16546E+04
 0.63099998E+02  0.20330E+04
 0.63149994E+02  0.12098E+04
 0.63199997E+02  0.40547E+03
 0.63249992E+02  0.12484E+02
 0.63299995E+02 -0.18983E+03
 0.63349998E+02 -0.29331E+03
 0.63399994E+02 -0.40753E+03
 0.63449997E+02 -0.39104E+03
 0.63499992E+02 -0.28631E+03
 0.63549995E+02  0.28893E+03
 0.63599998E+02  0.70347E+03
 0.63649994E+02  0.52473E+03
 0.63699997E+02  0.17195E+03
 0.63749992E+02  0.70205E+03
 0.63799995E+02  0.21975E+04
 0.63849998E+02  0.22727E+04
 0.63899994E+02  0.15485E+04
 0.63949997E+02  0.80868E+03
 0.63999992E+02  0.31668E+03
 0.64049995E+02 -0.85480E+03
 0.64099998E+02 -0.20128E+04
 0.64149994E+02 -0.13932E+04
 0.64199997E+02 -0.12584E+03
 0.64249992E+02  0.66816E+03
 0.64299995E+02  0.68766E+03
 0.64349998E+02  0.20266E+03
 0.64399994E+02 -0.58949E+03
 0.64449997E+02 -0.11389E+04
 0.64499992E+02 -0.13332E+04
 0.64549995E+02 -0.10813E+04
 0.64599998E+02 -0.10710E+03
 0.64649994E+02  0.79192E+03
 0.64699997E+02  0.10757E+04
 0.64749992E+02  0.65376E+03
 0.64799995E+02 -0.19545E+03
 0.64849998E+02 -0.28391E+03
 0.64899994E+02  0.13400E+03
 0.64949997E+02  0.11684E+01
 0.64999992E+02 -0.46769E+03
 0.65049995E+02 -0.50781E+03
 0.65099998E+02 -0.17859E+03
 0.65149994E+02  0.40430E+03
 0.65199997E+02  0.10680E+04
 0.65249992E+02  0.82968E+03
 0.65299995E+02 -0.38541E+03
 0.65349998E+02 -0.16183E+04
 0.65399994E+02 -0.21837E+04
 0.65449997E+02 -0.20735E+04
 0.65499992E+02 -0.16248E+04
 0.65549995E+02 -0.73445E+03
 0.65599998E+02  0.37593E+03
 0.65649994E+02  0.14166E+04
 0.65699997E+02  0.19376E+04
 0.65749992E+02  0.17385E+04
 0.65799995E+02  0.77052E+03
 0.65849998E+02  0.13434E+03
 0.65899994E+02  0.21127E+03
 0.65949997E+02  0.53472E+03
 0.65999992E+02  0.82959E+03
 0.66049995E+02  0.10897E+04
 0.66099998E+02  0.11762E+04
 0.66149994E+02  0.79324E+03
 0.66199997E+02  0.29539E+03
 0.66249992E+02 -0.18702E+03
 0.66299995E+02 -0.15002E+03
 0.66349998E+02 -0.11804E+03
 0.66399994E+02 -0.14252E+03
 0.66449997E+02 -0.90417E+03
 0.66499992E+02 -0.17912E+04
 0.66549995E+02 -0.20325E+04
 0.66599998E+02 -0.19399E+04
 0.66649994E+02 -0.18218E+04
 0.66699997E+02 -0.13691E+04
 0.66749992E+02 -0.62259E+03
 0.66799995E+02 -0.48794E+03
 0.66849998E+02 -0.30574E+02
 0.66899994E+02  0.50619E+03
 0.66949997E+02  0.14738E+04
 0.66999992E+02  0.23136E+04
 0.67049995E+02  0.22066E+04
 0.67099998E+02  0.19772E+04
 0.67149994E+02  0.15036E+04
 0.67199997E+02  0.19198E+03
 0.67249992E+02 -0.13070E+04
 0.67299995E+02 -0.12114E+04
 0.67349998E+02  0.72230E+02
 0.67399994E+02  0.65352E+03
 0.67449997E+02  0.18525E+02
 0.67499992E+02 -0.11144E+04
 0.67549995E+02 -0.13470E+04
 0.67599998E+02 -0.28654E+03
 0.67649994E+02  0.42729E+03
 0.67699997E+02 -0.17685E+03
 0.67749992E+02 -0.14716E+04
 0.67799995E+02 -0.19414E+04
 0.67849998E+02 -0.10545E+04
 0.67899994E+02  0.41125E+03
 0.67949997E+02  0.13595E+04
 0.67999992E+02  0.10647E+04
 0.68049995E+02  0.42724E+03
 0.68099998E+02  0.55994E+01
 0.68149994E+02 -0.82994E+03
 0.68199997E+02 -0.14136E+04
 0.68249992E+02 -0.57882E+03
 0.68299995E+02  0.83894E+03
 0.68349998E+02  0.11648E+04
 0.68399994E+02  0.10000E+04
 0.68449997E+02  0.10428E+04
 0.68499992E+02  0.83545E+03
 0.68549995E+02  0.54710E+03
 0.68599998E+02  0.31457E+02
 0.68649994E+02 -0.50656E+03
 0.68699997E+02 -0.61514E+03
 0.68749992E+02 -0.57677E+03
 0.68799995E+02 -0.51761E+03
 0.68849998E+02 -0.18610E+03
 0.68899994E+02  0.57298E+03
 0.68949997E+02  0.11921E+04
 0.68999992E+02  0.66291E+03
 0.69049995E+02 -0.35660E+03
 0.69099998E+02 -0.29540E+03
 0.69149994E+02  0.43229E+03
 0.69199997E+02  0.62781E+03
 0.69249992E+02  0.28903E+03
 0.69299995E+02  0.13317E+03
 0.69349998E+02  0.26325E+03
 0.69399994E+02 -0.61994E+02
 0.69449997E+02 -0.50697E+03
 0.69499992E+02 -0.10628E+04
 0.69549995E+02 -0.17047E+04
 0.69599998E+02 -0.13375E+04
 0.69649994E+02  0.75641E+02
 0.69699997E+02  0.88289E+03
 0.69749992E+02  0.39358E+03
 0.69799995E+02 -0.58266E+03
 0.69849998E+02 -0.30151E+03
 0.69899994E+02  0.11938E+04
 0.69949997E+02  0.21442E+04
 0.69999992E+02  0.20897E+04
 0.70049995E+02  0.11940E+04
 0.70099998E+02  0.39875E+03
 0.70149994E+02 -0.18074E+03
 0.70199997E+02 -0.49891E+03
 0.70249992E+02 -0.88149E+03
 0.70299995E+02 -0.13203E+04
 0.70349998E+02 -0.17695E+04
 0.70399994E+02 -0.19236E+04
 0.70449997E+02 -0.14459E+04
 0.70499992E+02 -0.12943E+04
 0.70549995E+02 -0.12223E+04
 0.70599998E+02 -0.97395E+03
 0.70649994E+02 -0.58881E+03
 0.70699997E+02 -0.12355E+02
 0.70749992E+02  0.23204E+03
 0.70799995E+02  0.99221E+02
 0.70849998E+02  0.22966E+03
 0.70899994E+02  0.41499E+03
 0.70949997E+02  0.13106E+03
 0.70999992E+02  0.35438E+03
 0.71049995E+02  0.10457E+04
 0.71099998E+02  0.10268E+04
 0.71149994E+02  0.51721E+03
 0.71199997E+02  0.12700E+03
 0.71249992E+02  0.26091E+03
 0.71299995E+02  0.78358E+03
 0.71349998E+02  0.99000E+03
 0.71399994E+02  0.88404E+03
 0.71449997E+02  0.11038E+04
 0.71499992E+02  0.13888E+04
 0.71549995E+02  0.11715E+04
 0.71599998E+02  0.49332E+03
 0.71649994E+02 -0.35017E+03
 0.71699997E+02 -0.81239E+03
 0.71749992E+02 -0.40194E+03
 0.71799995E+02 -0.31526E+03
 0.71849998E+02 -0.10996E+04
 0.71899994E+02 -0.19637E+04
 0.71949997E+02 -0.23008E+04
 0.71999992E+02 -0.12356E+04
 0.72049995E+02  0.95435E+02
 0.72099998E+02  0.54223E+03
 0.72149994E+02  0.29207E+03
 0.72199997E+02 -0.23339E+03
 0.72249992E+02 -0.28425E+03
 0.72299995E+02  0.40498E+03
 0.72349998E+02  0.13317E+04
 0.72399994E+02  0.13204E+04
 0.72449997E+02  0.91207E+03
 0.72499992E+02  0.86098E+03
 0.72549995E+02  0.10010E+04
 0.72599998E+02  0.15304E+04
 0.72649994E+02  0.14527E+04
 0.72699997E+02  0.65566E+03
 0.72749992E+02 -0.34514E+02
 0.72799995E+02 -0.32437E+03
 0.72849998E+02 -0.45365E+03
 0.72899994E+02 -0.91610E+03
 0.72949997E+02 -0.11761E+04
 0.72999992E+02 -0.10831E+04
 0.73049995E+02 -0.75763E+03
 0.73099998E+02 -0.92638E+03
 0.73149994E+02 -0.12423E+04
 0.73199997E+02 -0.79720E+03
 0.73249992E+02 -0.27323E+03
 0.73299995E+02  0.44156E+02
 0.73349998E+02 -0.31308E+03
 0.73399994E+02 -0.11711E+04
 0.73449997E+02 -0.15205E+04
 0.73499992E+02 -0.14089E+04
 0.73549995E+02 -0.90077E+03
 0.73599998E+02  0.39650E+03
 0.73649994E+02  0.97495E+03
 0.73699997E+02  0.46644E+03
 0.73749992E+02  0.40179E+03
 0.73799995E+02  0.84739E+03
 0.73849998E+02  0.14714E+04
 0.73899994E+02  0.16831E+04
 0.73949997E+02  0.12104E+04
 0.73999992E+02  0.46523E+03
 0.74049995E+02  0.21825E+02
 0.74099998E+02 -0.12083E+03
 0.74149994E+02 -0.53781E+02
 0.74199997E+02 -0.25268E+02
 0.74249992E+02 -0.11784E+03
 0.74299995E+02  0.12051E+03
 0.74349998E+02  0.11288E+03
 0.74399994E+02 -0.40848E+03
 0.74449997E+02 -0.54405E+03
 0.74499992E+02  0.11593E+03
 0.74549995E+02  0.74467E+02
 0.74599998E+02 -0.53238E+03
 0.74649994E+02 -0.68553E+03
 0.74699997E+02 -0.50747E+03
 0.74749992E+02 -0.19232E+03
 0.74799995E+02 -0.28084E+03
 0.74849998E+02 -0.46584E+03
 0.74899994E+02 -0.10998E+03
 0.74949997E+02  0.47812E+03
 0.74999992E+02  0.61475E+03
 0.75049995E+02  0.38147E+03
 0.75099998E+02  0.11364E+03
 0.75149994E+02 -0.18804E+03
 0.75199997E+02 -0.37145E+03
 0.75249992E+02 -0.43394E+03
 0.75299995E+02 -0.61079E+03
 0.75349998E+02 -0.53776E+03
 0.75399994E+02 -0.40822E+03
 0.75449997E+02 -0.63110E+03
 0.75499992E+02 -0.80365E+03
 0.75549995E+02 -0.54931E+03
 0.75599998E+02 -0.56203E+02
 0.75649994E+02  0.30722E+03
 0.75699997E+02  0.44767E+03
 0.75749992E+02  0.81455E+03
 0.75799995E+02  0.11916E+04
 0.75849998E+02  0.10978E+04
 0.75899994E+02  0.86327E+03
 0.75949997E+02  0.58178E+03
 0.75999992E+02  0.24527E+03
 0.76049995E+02  0.28954E+03
 0.76099998E+02  0.71558E+03
 0.76149994E+02  0.68198E+03
 0.76199997E+02  0.41208E+03
 0.76249992E+02 -0.30089E+02
 0.76299995E+02 -0.53848E+03
 0.76349998E+02 -0.75262E+03
 0.76399994E+02 -0.54089E+03
 0.76449997E+02 -0.10771E+03
 0.76499992E+02  0.62636E+02
 0.76549995E+02 -0.85781E+02
 0.76599998E+02 -0.21504E+03
 0.76649994E+02  0.31430E+03
 0.76699997E+02  0.35717E+03
 0.76749992E+02 -0.77569E+02
 0.76799995E+02 -0.46642E+03
 0.76849998E+02 -0.80764E+03
 0.76899994E+02 -0.83534E+03
 0.76949997E+02 -0.84260E+03
 0.76999992E+02 -0.55405E+03
 0.77049995E+02 -0.40001E+03
 0.77099998E+02 -0.40333E+03
 0.77149994E+02 -0.33093E+03
 0.77199997E+02 -0.68726E+02
 0.77249992E+02  0.21747E+03
 0.77299995E+02  0.28690E+03
 0.77349998E+02  0.30889E+03
 0.77399994E+02  0.28366E+03
 0.77449997E+02  0.49085E+03
 0.77499992E+02  0.66712E+03
 0.77549995E+02  0.55840E+03
 0.77599998E+02  0.17696E+03
 0.77649994E+02 -0.34360E+03
 0.77699997E+02 -0.77669E+03
 0.77749992E+02 -0.10509E+04
 0.77799995E+02 -0.10778E+04
 0.77849998E+02 -0.50234E+03
 0.77899994E+02  0.34431E+03
 0.77949997E+02  0.68308E+03
 0.77999992E+02  0.60584E+03
 0.78049995E+02  0.70175E+03
 0.78099998E+02  0.97754E+03
 0.78149994E+02  0.51802E+03
 0.78199997E+02 -0.28231E+03
 0.78249992E+02 -0.71874E+03
 0.78299995E+02 -0.71916E+03
 0.78349998E+02 -0.45268E+03
 0.78399994E+02 -0.14128E+03
 0.78449997E+02  0.46055E+03
 0.78499992E+02  0.82060E+03
 0.78549995E+02  0.56840E+03
 0.78599998E+02  0.18242E+02
 0.78649994E+02 -0.24142E+03
 0.78699997E+02 -0.22573E+03
 0.78749992E+02 -0.19382E+03
 0.78799995E+02 -0.18849E+03
 0.78849998E+02 -0.29831E+03
 0.78899994E+02 -0.52046E+03
 0.78949997E+02 -0.83033E+03
 0.78999992E+02 -0.69731E+03
 0.79049995E+02 -0.29123E+02
 0.79099998E+02  0.52974E+03
 0.79149994E+02  0.81275E+03
 0.79199997E+02  0.98785E+03
 0.79249992E+02  0.10881E+04
 0.79299995E+02  0.73630E+03
 0.79349998E+02  0.12809E+03
 0.79399994E+02 -0.43059E+01
 0.79449997E+02  0.31069E+03
 0.79499992E+02  0.49016E+03
 0.79549995E+02  0.97960E+02
 0.79599998E+02 -0.61064E+03
 0.79649994E+02 -0.10484E+04
 0.79699997E+02 -0.84376E+03
 0.79749992E+02 -0.20808E+03
 0.79799995E+02  0.13236E+03
 0.79849998E+02 -0.34085E+03
 0.79899994E+02 -0.75102E+03
 0.79949997E+02 -0.58590E+03
 0.79999992E+02 -0.24420E+03
 0.80049995E+02  0.29613E+02
 0.80099998E+02  0.25136E+03
 0.80149994E+02  0.32622E+03
 0.80199997E+02  0.30827E+03
 0.80249992E+02  0.30345E+03
 0.80299995E+02  0.16757E+03
 0.80349998E+02  0.97103E+02
 0.80399994E+02  0.40680E+02
 0.80449997E+02  0.80608E+02
 0.80499992E+02  0.27207E+03
 0.80549995E+02  0.38343E+03
 0.80599998E+02  0.24085E+03
 0.80649994E+02 -0.71624E+02
 0.80699997E+02 -0.64049E+03
 0.80749992E+02 -0.87983E+03
 0.80799995E+02 -0.52989E+03
 0.80849998E+02 -0.19089E+03
 0.80899994E+02  0.36342E+01
 0.80949997E+02 -0.13450E+02
 0.80999992E+02 -0.34934E+03
 0.81049995E+02 -0.52825E+03
 0.81099998E+02 -0.25688E+02
 0.81149994E+02  0.64494E+03
 0.81199997E+02  0.10921E+04
 0.81249992E+02  0.98110E+03
 0.81299995E+02  0.40861E+03
 0.81349998E+02  0.43119E+02
 0.81399994E+02  0.34714E+03
 0.81449997E+02  0.72076E+03
 0.81499992E+02  0.47135E+03
 0.81549995E+02  0.43248E+03
 0.81599998E+02  0.63286E+03
 0.81649994E+02  0.52607E+03
 0.81699997E+02 -0.16803E+03
 0.81749992E+02 -0.11314E+04
 0.81799995E+02 -0.15000E+04
 0.81849998E+02 -0.14304E+04
 0.81899994E+02 -0.10299E+04
 0.81949997E+02 -0.36369E+03
 0.81999992E+02  0.26381E+03
 0.82049995E+02  0.47623E+03
 0.82099998E+02  0.14758E+03
 0.82149994E+02 -0.10563E+03
 0.82199997E+02 -0.65796E+02
 0.82249992E+02 -0.58205E+01
 0.82299995E+02  0.69425E+02
 0.82349998E+02  0.13429E+03
 0.82399994E+02 -0.14549E+02
 0.82449997E+02 -0.24112E+03
 0.82499992E+02 -0.22938E+03
 0.82549995E+02  0.22670E+02
 0.82599998E+02  0.44649E+03
 0.82649994E+02  0.88471E+03
 0.82699997E+02  0.10607E+04
 0.82749992E+02  0.10898E+04
 0.82799995E+02  0.70822E+03
 0.82849998E+02 -0.14868E+03
 0.82899994E+02 -0.10064E+04
 0.82949997E+02 -0.12696E+04
 0.82999992E+02 -0.89015E+03
 0.83049995E+02 -0.58722E+03
 0.83099998E+02 -0.72889E+03
 0.83149994E+02 -0.10101E+04
 0.83199997E+02 -0.76302E+03
 0.83249992E+02 -0.29038E+03
 0.83299995E+02 -0.86802E+02
 0.83349998E+02 -0.13599E+02
 0.83399994E+02  0.44322E+03
 0.83449997E+02  0.10456E+04
 0.83499992E+02  0.13193E+04
 0.83549995E+02  0.12592E+04
 0.83599998E+02  0.88841E+03
 0.83649994E+02  0.30913E+03
 0.83699997E+02 -0.43488E+03
 0.83749992E+02 -0.10074E+04
 0.83799995E+02 -0.10412E+04
 0.83849998E+02 -0.64616E+03
 0.83899994E+02 -0.63798E+03
 0.83949997E+02 -0.10117E+04
 0.83999992E+02 -0.11774E+04
 0.84049995E+02 -0.10733E+04
 0.84099998E+02 -0.67723E+03
 0.84149994E+02 -0.47662E+02
 0.84199997E+02  0.43649E+03
 0.84249992E+02  0.60663E+03
 0.84299995E+02  0.79071E+03
 0.84349998E+02  0.79695E+03
 0.84399994E+02  0.44644E+03
 0.84449997E+02  0.42283E+03
 0.84499992E+02  0.62362E+03
 0.84549995E+02  0.63007E+03
 0.84599998E+02  0.46850E+03
 0.84649994E+02  0.31294E+03
 0.84699997E+02  0.25479E+03
 0.84749992E+02  0.31294E+02
 0.84799995E+02 -0.27788E+03
 0.84849998E+02 -0.39686E+03
 0.84899994E+02 -0.40804E+03
 0.84949997E+02 -0.48325E+03
 0.84999992E+02 -0.33689E+03
 0.85049995E+02 -0.59878E+02
 0.85099998E+02  0.20347E+03
 0.85149994E+02  0.29621E+03
 0.85199997E+02  0.34829E+03
 0.85249992E+02  0.60604E+03
 0.85299995E+02  0.69025E+03
 0.85349998E+02  0.54372E+03
 0.85399994E+02  0.37798E+03
 0.85449997E+02  0.32089E+03
 0.85499992E+02  0.10667E+03
 0.85549995E+02 -0.32291E+03
 0.85599998E+02 -0.66235E+03
 0.85649994E+02 -0.74644E+03
 0.85699997E+02 -0.66695E+03
 0.85749992E+02 -0.59367E+03
 0.85799995E+02 -0.35102E+03
 0.85849998E+02  0.50142E+02
 0.85899994E+02  0.37326E+03
 0.85949997E+02  0.57689E+03
 0.85999992E+02  0.63466E+03
 0.86049995E+02  0.44245E+03
 0.86099998E+02  0.16059E+03
 0.86149994E+02 -0.27046E+02
 0.86199997E+02 -0.17372E+03
 0.86249992E+02 -0.24535E+03
 0.86299995E+02 -0.92616E+02
 0.86349998E+02  0.42632E+02
 0.86399994E+02  0.89361E+01
 0.86449997E+02  0.96857E+01
 0.86499992E+02  0.15361E+03
 0.86549995E+02  0.32371E+03
 0.86599998E+02  0.40319E+03
 0.86649994E+02  0.52371E+03
 0.86699997E+02  0.39272E+03
 0.86749992E+02  0.79432E+02
 0.86799995E+02 -0.25935E+03
 0.86849998E+02 -0.63448E+03
 0.86899994E+02 -0.67403E+03
 0.86949997E+02 -0.43972E+03
 0.86999992E+02 -0.44823E+03
 0.87049995E+02 -0.63122E+03
 0.87099998E+02 -0.60053E+03
 0.87149994E+02 -0.55429E+03
 0.87199997E+02 -0.72837E+03
 0.87249992E+02 -0.89937E+03
 0.87299995E+02 -0.60722E+03
 0.87349998E+02  0.20779E+03
 0.87399994E+02  0.83774E+03
 0.87449997E+02  0.75670E+03
 0.87499992E+02  0.13101E+03
 0.87549995E+02 -0.33752E+03
 0.87599991E+02 -0.31339E+03
 0.87649994E+02 -0.24281E+02
 0.87699997E+02  0.31806E+03
 0.87749992E+02  0.34836E+03
 0.87799995E+02  0.31871E+03
 0.87849991E+02  0.26516E+03
 0.87899994E+02  0.10954E+03
 0.87949997E+02  0.64595E+02
 0.87999992E+02  0.98894E+02
 0.88049995E+02  0.18949E+03
 0.88099991E+02  0.14878E+03
 0.88149994E+02  0.11779E+03
 0.88199997E+02  0.70310E+02
 0.88249992E+02 -0.39078E+02
 0.88299995E+02  0.12295E+03
 0.88349991E+02  0.29391E+03
 0.88399994E+02  0.10718E+03
 0.88449997E+02 -0.37332E+03
 0.88499992E+02 -0.66840E+03
 0.88549995E+02 -0.49257E+03
 0.88599991E+02 -0.27341E+02
 0.88649994E+02  0.31945E+03
 0.88699997E+02  0.33359E+03
 0.88749992E+02  0.16749E+03
 0.88799995E+02 -0.34823E+02
 0.88849991E+02 -0.16261E+03
 0.88899994E+02 -0.24584E+03
 0.88949997E+02 -0.36676E+03
 0.88999992E+02 -0.35663E+03
 0.89049995E+02 -0.18689E+03
 0.89099991E+02 -0.92788E+02
 0.89149994E+02 -0.16392E+03
 0.89199997E+02 -0.32272E+03
 0.89249992E+02 -0.35451E+03
 0.89299995E+02 -0.22599E+03
 0.89349991E+02 -0.30905E+02
 0.89399994E+02  0.12895E+03
 0.89449997E+02  0.22374E+03
 0.89499992E+02  0.42501E+03
 0.89549995E+02  0.65174E+03
 0.89599991E+02  0.57817E+03
 0.89649994E+02  0.73695E+02
 0.89699997E+02 -0.45875E+03
 0.89749992E+02 -0.69945E+03
 0.89799995E+02 -0.70122E+03
 0.89849991E+02 -0.42352E+03
 0.89899994E+02 -0.17729E+03
 0.89949997E+02 -0.14286E+03
 0.89999992E+02 -0.47691E+02
 0.90049995E+02  0.21137E+03
 0.90099991E+02  0.37979E+03
 0.90149994E+02  0.35979E+03
 0.90199997E+02  0.29089E+03
 0.90249992E+02  0.22047E+03
 0.90299995E+02  0.19893E+03
 0.90349991E+02  0.19849E+03
 0.90399994E+02  0.24800E+03
 0.90449997E+02  0.32790E+03
 0.90499992E+02  0.14005E+03
 0.90549995E+02 -0.61106E+02
 0.90599991E+02 -0.12401E+02
 0.90649994E+02  0.18359E+03
 0.90699997E+02  0.40983E+03
 0.90749992E+02  0.59735E+03
 0.90799995E+02  0.63995E+03
 0.90849991E+02  0.47395E+03
 0.90899994E+02  0.19884E+03
 0.90949997E+02 -0.14842E+03
 0.90999992E+02 -0.43837E+03
 0.91049995E+02 -0.63259E+03
 0.91099991E+02 -0.50502E+03
 0.91149994E+02 -0.24795E+03
 0.91199997E+02 -0.12485E+03
 0.91249992E+02 -0.61713E+02
 0.91299995E+02 -0.29485E+02
 0.91349991E+02  0.99458E+02
 0.91399994E+02  0.23230E+03
 0.91449997E+02  0.27837E+03
 0.91499992E+02  0.27077E+03
 0.91549995E+02  0.15501E+03
 0.91599991E+02 -0.96793E+02
 0.91649994E+02 -0.37243E+03
 0.91699997E+02 -0.61493E+03
 0.91749992E+02 -0.77217E+03
 0.91799995E+02 -0.70557E+03
 0.91849991E+02 -0.59212E+03
 0.91899994E+02 -0.54287E+03
 0.91949997E+02 -0.33818E+03
 0.91999992E+02  0.39350E+01
 0.92049995E+02  0.27311E+03
 0.92099991E+02  0.41402E+03
 0.92149994E+02  0.42315E+03
 0.92199997E+02  0.35274E+03
 0.92249992E+02  0.29024E+03
 0.92299995E+02  0.27427E+03
 0.92349991E+02  0.27205E+03
 0.92399994E+02  0.11877E+03
 0.92449997E+02 -0.14344E+03
 0.92499992E+02 -0.30758E+03
 0.92549995E+02 -0.29593E+03
 0.92599991E+02 -0.56254E+02
 0.92649994E+02  0.25089E+03
 0.92699997E+02  0.32622E+03
 0.92749992E+02  0.14757E+03
 0.92799995E+02 -0.33885E+02
 0.92849991E+02 -0.12307E+03
 0.92899994E+02 -0.29305E+03
 0.92949997E+02 -0.64416E+03
 0.92999992E+02 -0.81649E+03
 0.93049995E+02 -0.54129E+03
 0.93099991E+02 -0.22586E+03
 0.93149994E+02 -0.11170E+03
 0.93199997E+02  0.60750E-01
 0.93249992E+02  0.29142E+03
 0.93299995E+02  0.53232E+03
 0.93349991E+02  0.63552E+03
 0.93399994E+02  0.66058E+03
 0.93449997E+02  0.52635E+03
 0.93499992E+02  0.20087E+03
 0.93549995E+02  0.97999E+02
 0.93599991E+02  0.44990E+03
 0.93649994E+02  0.90796E+03
 0.93699997E+02  0.99152E+03
 0.93749992E+02  0.55542E+03
 0.93799995E+02 -0.23614E+02
 0.93849991E+02 -0.43454E+03
 0.93899994E+02 -0.47028E+03
 0.93949997E+02 -0.24685E+03
 0.93999992E+02 -0.73129E+02
 0.94049995E+02 -0.23055E+03
 0.94099991E+02 -0.50327E+03
 0.94149994E+02 -0.55301E+03
 0.94199997E+02 -0.31604E+03
 0.94249992E+02 -0.40934E+02
 0.94299995E+02 -0.35417E+02
 0.94349991E+02 -0.18707E+03
 0.94399994E+02 -0.32045E+03
 0.94449997E+02 -0.27888E+03
 0.94499992E+02 -0.36398E+02
 0.94549995E+02  0.10445E+03
 0.94599991E+02  0.11651E+02
 0.94649994E+02 -0.23860E+03
 0.94699997E+02 -0.48441E+03
 0.94749992E+02 -0.57751E+03
 0.94799995E+02 -0.45752E+03
 0.94849991E+02 -0.16011E+03
 0.94899994E+02  0.30012E+02
 0.94949997E+02  0.11230E+03
 0.94999992E+02  0.10024E+03
 0.95049995E+02  0.45450E+02
 0.95099991E+02  0.10355E+03
 0.95149994E+02  0.89223E+02
 0.95199997E+02 -0.97139E+02
 0.95249992E+02 -0.20553E+03
 0.95299995E+02 -0.65400E+02
 0.95349991E+02  0.17647E+03
 0.95399994E+02  0.22836E+03
 0.95449997E+02  0.60682E+02
 0.95499992E+02 -0.18739E+02
 0.95549995E+02  0.83838E+02
 0.95599991E+02  0.16498E+03
 0.95649994E+02  0.10561E+03
 0.95699997E+02  0.93478E+02
 0.95749992E+02  0.23410E+03
 0.95799995E+02  0.34850E+03
 0.95849991E+02  0.38076E+03
 0.95899994E+02  0.34648E+03
 0.95949997E+02  0.21428E+03
 0.95999992E+02  0.75411E+02
 0.96049995E+02 -0.75330E+02
 0.96099991E+02 -0.21228E+03
 0.96149994E+02 -0.27948E+03
 0.96199997E+02 -0.32938E+03
 0.96249992E+02 -0.33435E+03
 0.96299995E+02 -0.18775E+03
 0.96349991E+02  0.14820E+03
 0.96399994E+02  0.30601E+03
 0.96449997E+02  0.16269E+03
 0.96499992E+02 -0.18781E+02
 0.96549995E+02 -0.71640E+02
 0.96599991E+02 -0.13782E+03
 0.96649994E+02 -0.29143E+03
 0.96699997E+02 -0.39685E+03
 0.96749992E+02 -0.34657E+03
 0.96799995E+02 -0.20614E+03
 0.96849991E+02 -0.31196E+03
 0.96899994E+02 -0.48003E+03
 0.96949997E+02 -0.31560E+03
 0.96999992E+02  0.53413E+02
 0.97049995E+02  0.21706E+03
 0.97099991E+02  0.41685E+02
 0.97149994E+02 -0.12690E+03
 0.97199997E+02  0.28112E+02
 0.97249992E+02  0.32149E+03
 0.97299995E+02  0.37600E+03
 0.97349991E+02  0.37516E+03
 0.97399994E+02  0.49299E+03
 0.97449997E+02  0.64357E+03
 0.97499992E+02  0.73492E+03
 0.97549995E+02  0.61652E+03
 0.97599991E+02  0.34959E+03
 0.97649994E+02  0.12495E+03
 0.97699997E+02  0.23074E+02
 0.97749992E+02 -0.14691E+03
 0.97799995E+02 -0.31353E+03
 0.97849991E+02 -0.37529E+03
 0.97899994E+02 -0.32387E+03
 0.97949997E+02 -0.15556E+03
 0.97999992E+02 -0.14711E+02
