-0.20000000E+01  0.27018E+04
-0.19500000E+01  0.23820E+04
-0.19000000E+01  0.20740E+04
-0.18500000E+01  0.14697E+04
-0.18000000E+01  0.69239E+03
-0.17500000E+01 -0.19419E+03
-0.17000000E+01 -0.11735E+04
-0.16500001E+01 -0.22417E+04
-0.16000000E+01 -0.33160E+04
-0.15500000E+01 -0.42888E+04
-0.15000000E+01 -0.51299E+04
-0.14500000E+01 -0.58482E+04
-0.14000001E+01 -0.64867E+04
-0.13500000E+01 -0.70209E+04
-0.13000001E+01 -0.74231E+04
-0.12500000E+01 -0.76376E+04
-0.12000000E+01 -0.76148E+04
-0.11500001E+01 -0.73917E+04
-0.11000000E+01 -0.70087E+04
-0.10500001E+01 -0.64975E+04
-0.10000000E+01 -0.59214E+04
-0.95000005E+00 -0.53633E+04
-0.90000010E+00 -0.48743E+04
-0.85000002E+00 -0.45160E+04
-0.80000007E+00 -0.43424E+04
-0.75000012E+00 -0.43786E+04
-0.70000005E+00 -0.45789E+04
-0.65000010E+00 -0.48818E+04
-0.60000014E+00 -0.52980E+04
-0.55000007E+00 -0.58447E+04
-0.50000012E+00 -0.64707E+04
-0.45000005E+00 -0.70845E+04
-0.40000010E+00 -0.76923E+04
-0.35000014E+00 -0.83585E+04
-0.30000007E+00 -0.91097E+04
-0.25000012E+00 -0.98990E+04
-0.20000005E+00 -0.10600E+05
-0.15000010E+00 -0.11109E+05
-0.10000014E+00 -0.11364E+05
-0.50000072E-01 -0.11381E+05
-0.11920929E-06 -0.11189E+05
 0.49999952E-01 -0.10780E+05
 0.99999905E-01 -0.10178E+05
 0.14999986E+00 -0.94272E+04
 0.19999981E+00 -0.85858E+04
 0.24999976E+00 -0.76718E+04
 0.29999995E+00 -0.66606E+04
 0.34999990E+00 -0.55364E+04
 0.39999986E+00 -0.43572E+04
 0.44999981E+00 -0.31501E+04
 0.49999976E+00 -0.18626E+04
 0.54999995E+00 -0.55814E+03
 0.59999990E+00  0.70394E+03
 0.64999986E+00  0.19102E+04
 0.69999981E+00  0.30448E+04
 0.74999976E+00  0.41368E+04
 0.79999971E+00  0.52303E+04
 0.84999990E+00  0.63746E+04
 0.89999986E+00  0.75586E+04
 0.94999981E+00  0.88018E+04
 0.99999976E+00  0.10139E+05
 0.10499997E+01  0.11571E+05
 0.10999999E+01  0.13076E+05
 0.11499999E+01  0.14610E+05
 0.11999998E+01  0.16159E+05
 0.12499998E+01  0.17721E+05
 0.12999997E+01  0.19288E+05
 0.13499999E+01  0.20787E+05
 0.13999999E+01  0.22098E+05
 0.14499998E+01  0.23156E+05
 0.14999998E+01  0.23895E+05
 0.15499997E+01  0.24232E+05
 0.15999999E+01  0.24164E+05
 0.16499999E+01  0.23733E+05
 0.16999998E+01  0.23005E+05
 0.17499998E+01  0.22050E+05
 0.17999997E+01  0.20869E+05
 0.18499997E+01  0.19481E+05
 0.18999999E+01  0.17896E+05
 0.19499998E+01  0.16143E+05
 0.19999998E+01  0.14313E+05
 0.20499997E+01  0.12441E+05
 0.20999999E+01  0.10564E+05
 0.21499996E+01  0.87691E+04
 0.21999998E+01  0.71304E+04
 0.22499995E+01  0.56247E+04
 0.22999997E+01  0.42523E+04
 0.23499999E+01  0.30186E+04
 0.23999996E+01  0.18928E+04
 0.24499998E+01  0.87546E+03
 0.24999995E+01 -0.20342E+02
 0.25499997E+01 -0.79844E+03
 0.25999999E+01 -0.14219E+04
 0.26499996E+01 -0.18987E+04
 0.26999998E+01 -0.22984E+04
 0.27499995E+01 -0.26080E+04
 0.27999997E+01 -0.27975E+04
 0.28499999E+01 -0.28842E+04
 0.28999996E+01 -0.28560E+04
 0.29499998E+01 -0.26583E+04
 0.29999995E+01 -0.23157E+04
 0.30499997E+01 -0.18713E+04
 0.30999999E+01 -0.13086E+04
 0.31499996E+01 -0.65253E+03
 0.31999998E+01  0.17225E+02
 0.32499995E+01  0.68676E+03
 0.32999997E+01  0.14020E+04
 0.33499999E+01  0.21606E+04
 0.33999996E+01  0.29444E+04
 0.34499998E+01  0.37266E+04
 0.34999995E+01  0.44927E+04
 0.35499997E+01  0.52119E+04
 0.35999994E+01  0.58202E+04
 0.36499996E+01  0.63733E+04
 0.36999998E+01  0.69000E+04
 0.37499995E+01  0.73565E+04
 0.37999997E+01  0.77420E+04
 0.38499994E+01  0.81233E+04
 0.38999996E+01  0.85648E+04
 0.39499998E+01  0.90231E+04
 0.39999995E+01  0.95204E+04
 0.40499997E+01  0.10144E+05
 0.40999994E+01  0.10934E+05
 0.41499996E+01  0.11901E+05
 0.41999998E+01  0.13023E+05
 0.42499995E+01  0.14227E+05
 0.42999997E+01  0.15449E+05
 0.43499994E+01  0.16638E+05
 0.43999996E+01  0.17733E+05
 0.44499998E+01  0.18736E+05
 0.44999995E+01  0.19644E+05
 0.45499997E+01  0.20407E+05
 0.45999994E+01  0.20974E+05
 0.46499996E+01  0.21337E+05
 0.46999998E+01  0.21479E+05
 0.47499995E+01  0.21333E+05
 0.47999997E+01  0.20839E+05
 0.48499994E+01  0.20051E+05
 0.48999996E+01  0.19074E+05
 0.49499998E+01  0.17961E+05
 0.49999995E+01  0.16767E+05
 0.50499997E+01  0.15489E+05
 0.50999994E+01  0.14117E+05
 0.51499996E+01  0.12665E+05
 0.51999998E+01  0.11142E+05
 0.52499995E+01  0.95330E+04
 0.52999997E+01  0.78588E+04
 0.53499994E+01  0.61322E+04
 0.53999996E+01  0.43658E+04
 0.54499993E+01  0.25763E+04
 0.54999995E+01  0.71086E+03
 0.55499997E+01 -0.12437E+04
 0.55999994E+01 -0.32509E+04
 0.56499996E+01 -0.52344E+04
 0.56999993E+01 -0.70995E+04
 0.57499995E+01 -0.87760E+04
 0.57999997E+01 -0.10247E+05
 0.58499994E+01 -0.11509E+05
 0.58999996E+01 -0.12564E+05
 0.59499993E+01 -0.13417E+05
 0.59999995E+01 -0.14082E+05
 0.60499992E+01 -0.14612E+05
 0.60999994E+01 -0.15063E+05
 0.61499996E+01 -0.15417E+05
 0.61999998E+01 -0.15616E+05
 0.62499990E+01 -0.15687E+05
 0.62999992E+01 -0.15763E+05
 0.63499994E+01 -0.15919E+05
 0.63999996E+01 -0.16204E+05
 0.64499998E+01 -0.16631E+05
 0.64999990E+01 -0.17099E+05
 0.65499992E+01 -0.17509E+05
 0.65999994E+01 -0.17810E+05
 0.66499996E+01 -0.18028E+05
 0.66999998E+01 -0.18208E+05
 0.67499990E+01 -0.18385E+05
 0.67999992E+01 -0.18593E+05
 0.68499994E+01 -0.18864E+05
 0.68999996E+01 -0.19140E+05
 0.69499998E+01 -0.19374E+05
 0.69999990E+01 -0.19562E+05
 0.70499992E+01 -0.19723E+05
 0.70999994E+01 -0.19916E+05
 0.71499996E+01 -0.20113E+05
 0.71999998E+01 -0.20272E+05
 0.72499990E+01 -0.20372E+05
 0.72999992E+01 -0.20421E+05
 0.73499994E+01 -0.20421E+05
 0.73999996E+01 -0.20362E+05
 0.74499998E+01 -0.20218E+05
 0.74999990E+01 -0.19964E+05
 0.75499992E+01 -0.19550E+05
 0.75999994E+01 -0.18901E+05
 0.76499996E+01 -0.17998E+05
 0.76999998E+01 -0.16827E+05
 0.77499990E+01 -0.15487E+05
 0.77999992E+01 -0.14041E+05
 0.78499994E+01 -0.12553E+05
 0.78999996E+01 -0.11091E+05
 0.79499998E+01 -0.96411E+04
 0.79999990E+01 -0.82453E+04
 0.80499992E+01 -0.68882E+04
 0.80999994E+01 -0.55481E+04
 0.81499996E+01 -0.42360E+04
 0.81999998E+01 -0.30064E+04
 0.82499990E+01 -0.19534E+04
 0.82999992E+01 -0.11398E+04
 0.83499994E+01 -0.54615E+03
 0.83999996E+01 -0.12296E+03
 0.84499998E+01  0.14236E+03
 0.84999990E+01  0.19086E+03
 0.85499992E+01 -0.12724E+02
 0.85999994E+01 -0.46521E+03
 0.86499996E+01 -0.11522E+04
 0.86999998E+01 -0.20673E+04
 0.87499990E+01 -0.31674E+04
 0.87999992E+01 -0.43603E+04
 0.88499994E+01 -0.55810E+04
 0.88999996E+01 -0.67511E+04
 0.89499998E+01 -0.78391E+04
 0.89999990E+01 -0.89052E+04
 0.90499992E+01 -0.99519E+04
 0.90999994E+01 -0.10938E+05
 0.91499996E+01 -0.11820E+05
 0.91999989E+01 -0.12507E+05
 0.92499990E+01 -0.12970E+05
 0.92999992E+01 -0.13209E+05
 0.93499994E+01 -0.13209E+05
 0.93999996E+01 -0.12985E+05
 0.94499989E+01 -0.12583E+05
 0.94999990E+01 -0.12032E+05
 0.95499992E+01 -0.11378E+05
 0.95999994E+01 -0.10654E+05
 0.96499996E+01 -0.98668E+04
 0.96999989E+01 -0.90434E+04
 0.97499990E+01 -0.82274E+04
 0.97999992E+01 -0.74044E+04
 0.98499994E+01 -0.65021E+04
 0.98999996E+01 -0.55140E+04
 0.99499989E+01 -0.44773E+04
 0.99999990E+01 -0.34424E+04
 0.10049999E+02 -0.24718E+04
 0.10099999E+02 -0.16301E+04
 0.10150000E+02 -0.90476E+03
 0.10199999E+02 -0.19153E+03
 0.10249999E+02  0.59027E+03
 0.10299999E+02  0.14209E+04
 0.10349999E+02  0.22046E+04
 0.10400000E+02  0.28898E+04
 0.10449999E+02  0.34778E+04
 0.10499999E+02  0.39839E+04
 0.10549999E+02  0.43681E+04
 0.10599999E+02  0.45923E+04
 0.10650000E+02  0.46923E+04
 0.10699999E+02  0.47509E+04
 0.10749999E+02  0.48641E+04
 0.10799999E+02  0.50114E+04
 0.10849999E+02  0.51252E+04
 0.10900000E+02  0.52202E+04
 0.10949999E+02  0.53481E+04
 0.10999999E+02  0.55453E+04
 0.11049999E+02  0.58470E+04
 0.11099999E+02  0.63006E+04
 0.11150000E+02  0.69370E+04
 0.11199999E+02  0.77129E+04
 0.11249999E+02  0.85666E+04
 0.11299999E+02  0.94769E+04
 0.11349999E+02  0.10431E+05
 0.11400000E+02  0.11395E+05
 0.11449999E+02  0.12292E+05
 0.11499999E+02  0.13031E+05
 0.11549999E+02  0.13533E+05
 0.11599999E+02  0.13772E+05
 0.11650000E+02  0.13806E+05
 0.11699999E+02  0.13642E+05
 0.11749999E+02  0.13223E+05
 0.11799999E+02  0.12514E+05
 0.11849999E+02  0.11523E+05
 0.11900000E+02  0.10335E+05
 0.11949999E+02  0.90634E+04
 0.11999999E+02  0.77985E+04
 0.12049999E+02  0.66181E+04
 0.12099999E+02  0.55745E+04
 0.12150000E+02  0.47068E+04
 0.12199999E+02  0.39762E+04
 0.12249999E+02  0.33598E+04
 0.12299999E+02  0.28901E+04
 0.12349999E+02  0.25978E+04
 0.12400000E+02  0.24967E+04
 0.12449999E+02  0.25318E+04
 0.12499999E+02  0.26851E+04
 0.12549999E+02  0.29859E+04
 0.12599999E+02  0.34824E+04
 0.12649999E+02  0.41599E+04
 0.12699999E+02  0.50047E+04
 0.12749999E+02  0.60277E+04
 0.12799999E+02  0.72086E+04
 0.12849999E+02  0.85184E+04
 0.12899999E+02  0.98632E+04
 0.12949999E+02  0.11166E+05
 0.12999999E+02  0.12427E+05
 0.13049999E+02  0.13654E+05
 0.13099999E+02  0.14834E+05
 0.13149999E+02  0.15910E+05
 0.13199999E+02  0.16845E+05
 0.13249999E+02  0.17592E+05
 0.13299999E+02  0.18118E+05
 0.13349999E+02  0.18462E+05
 0.13399999E+02  0.18688E+05
 0.13449999E+02  0.18897E+05
 0.13499999E+02  0.19110E+05
 0.13549999E+02  0.19260E+05
 0.13599999E+02  0.19259E+05
 0.13649999E+02  0.19083E+05
 0.13699999E+02  0.18740E+05
 0.13749999E+02  0.18225E+05
 0.13799999E+02  0.17536E+05
 0.13849999E+02  0.16650E+05
 0.13899999E+02  0.15616E+05
 0.13949999E+02  0.14524E+05
 0.13999999E+02  0.13374E+05
 0.14049999E+02  0.12173E+05
 0.14099998E+02  0.10998E+05
 0.14150000E+02  0.98742E+04
 0.14199999E+02  0.88029E+04
 0.14249998E+02  0.77756E+04
 0.14299999E+02  0.67695E+04
 0.14349998E+02  0.57212E+04
 0.14400000E+02  0.46035E+04
 0.14449999E+02  0.34433E+04
 0.14499998E+02  0.22644E+04
 0.14549999E+02  0.10747E+04
 0.14599998E+02 -0.77384E+02
 0.14650000E+02 -0.11694E+04
 0.14699999E+02 -0.22326E+04
 0.14749998E+02 -0.32269E+04
 0.14799999E+02 -0.40901E+04
 0.14849998E+02 -0.47918E+04
 0.14900000E+02 -0.53691E+04
 0.14949999E+02 -0.58621E+04
 0.14999998E+02 -0.62887E+04
 0.15049999E+02 -0.66357E+04
 0.15099998E+02 -0.68800E+04
 0.15150000E+02 -0.70244E+04
 0.15199999E+02 -0.71129E+04
 0.15249998E+02 -0.72441E+04
 0.15299999E+02 -0.74263E+04
 0.15349998E+02 -0.76190E+04
 0.15400000E+02 -0.78238E+04
 0.15449999E+02 -0.80460E+04
 0.15499998E+02 -0.83119E+04
 0.15549999E+02 -0.86490E+04
 0.15599998E+02 -0.89821E+04
 0.15650000E+02 -0.92223E+04
 0.15699999E+02 -0.94137E+04
 0.15749998E+02 -0.96018E+04
 0.15799999E+02 -0.98175E+04
 0.15849998E+02 -0.10060E+05
 0.15900000E+02 -0.10289E+05
 0.15949999E+02 -0.10471E+05
 0.15999998E+02 -0.10531E+05
 0.16049999E+02 -0.10456E+05
 0.16099998E+02 -0.10309E+05
 0.16150000E+02 -0.10091E+05
 0.16199999E+02 -0.97563E+04
 0.16249998E+02 -0.93108E+04
 0.16299999E+02 -0.87994E+04
 0.16349998E+02 -0.82365E+04
 0.16400000E+02 -0.75922E+04
 0.16449999E+02 -0.68420E+04
 0.16499998E+02 -0.59649E+04
 0.16549999E+02 -0.49721E+04
 0.16599998E+02 -0.39037E+04
 0.16650000E+02 -0.28463E+04
 0.16699999E+02 -0.18137E+04
 0.16749998E+02 -0.81972E+03
 0.16799999E+02  0.11476E+03
 0.16849998E+02  0.10568E+04
 0.16900000E+02  0.19656E+04
 0.16949999E+02  0.27915E+04
 0.16999998E+02  0.34743E+04
 0.17049999E+02  0.39633E+04
 0.17099998E+02  0.42616E+04
 0.17150000E+02  0.43892E+04
 0.17199999E+02  0.43804E+04
 0.17249998E+02  0.42237E+04
 0.17299999E+02  0.39378E+04
 0.17349998E+02  0.35772E+04
 0.17400000E+02  0.31755E+04
 0.17449999E+02  0.27824E+04
 0.17499998E+02  0.24558E+04
 0.17549999E+02  0.21806E+04
 0.17599998E+02  0.19165E+04
 0.17650000E+02  0.16454E+04
 0.17699999E+02  0.13829E+04
 0.17749998E+02  0.11807E+04
 0.17799999E+02  0.10878E+04
 0.17849998E+02  0.10914E+04
 0.17900000E+02  0.11394E+04
 0.17949999E+02  0.12052E+04
 0.17999998E+02  0.12981E+04
 0.18049999E+02  0.14127E+04
 0.18099998E+02  0.15317E+04
 0.18150000E+02  0.16432E+04
 0.18199999E+02  0.17196E+04
 0.18249998E+02  0.17374E+04
 0.18299999E+02  0.17059E+04
 0.18349998E+02  0.16593E+04
 0.18400000E+02  0.16121E+04
 0.18449999E+02  0.15831E+04
 0.18499998E+02  0.15769E+04
 0.18549999E+02  0.15913E+04
 0.18599998E+02  0.16578E+04
 0.18650000E+02  0.17754E+04
 0.18699999E+02  0.18766E+04
 0.18749998E+02  0.19421E+04
 0.18799999E+02  0.20243E+04
 0.18849998E+02  0.21162E+04
 0.18900000E+02  0.21855E+04
 0.18949999E+02  0.22066E+04
 0.18999998E+02  0.21439E+04
 0.19049999E+02  0.20114E+04
 0.19099998E+02  0.18229E+04
 0.19150000E+02  0.16100E+04
 0.19199999E+02  0.14512E+04
 0.19249998E+02  0.14315E+04
 0.19299999E+02  0.15558E+04
 0.19349998E+02  0.17855E+04
 0.19400000E+02  0.20997E+04
 0.19449999E+02  0.25167E+04
 0.19499998E+02  0.30691E+04
 0.19549999E+02  0.36987E+04
 0.19599998E+02  0.43419E+04
 0.19650000E+02  0.49563E+04
 0.19699999E+02  0.55002E+04
 0.19749998E+02  0.59942E+04
 0.19799999E+02  0.64743E+04
 0.19849998E+02  0.69253E+04
 0.19900000E+02  0.73146E+04
 0.19949999E+02  0.75975E+04
 0.19999998E+02  0.77511E+04
 0.20049999E+02  0.77976E+04
 0.20099998E+02  0.77985E+04
 0.20150000E+02  0.77756E+04
 0.20199999E+02  0.77087E+04
 0.20249998E+02  0.75719E+04
 0.20299999E+02  0.73197E+04
 0.20349998E+02  0.69816E+04
 0.20399998E+02  0.66230E+04
 0.20449999E+02  0.62389E+04
 0.20499998E+02  0.57985E+04
 0.20549999E+02  0.52437E+04
 0.20599998E+02  0.45678E+04
 0.20649998E+02  0.38505E+04
 0.20699999E+02  0.31177E+04
 0.20749998E+02  0.23635E+04
 0.20799999E+02  0.15465E+04
 0.20849998E+02  0.70467E+03
 0.20899998E+02 -0.10167E+03
 0.20949999E+02 -0.89887E+03
 0.20999998E+02 -0.16850E+04
 0.21049999E+02 -0.24821E+04
 0.21099998E+02 -0.32491E+04
 0.21149998E+02 -0.39141E+04
 0.21199999E+02 -0.44340E+04
 0.21249998E+02 -0.48242E+04
 0.21299999E+02 -0.51493E+04
 0.21349998E+02 -0.54167E+04
 0.21399998E+02 -0.56189E+04
 0.21449999E+02 -0.57304E+04
 0.21499998E+02 -0.57831E+04
 0.21549999E+02 -0.58075E+04
 0.21599998E+02 -0.57898E+04
 0.21649998E+02 -0.57493E+04
 0.21699999E+02 -0.57555E+04
 0.21749998E+02 -0.58755E+04
 0.21799999E+02 -0.61118E+04
 0.21849998E+02 -0.64513E+04
 0.21899998E+02 -0.68449E+04
 0.21949999E+02 -0.71948E+04
 0.21999998E+02 -0.74930E+04
 0.22049999E+02 -0.77877E+04
 0.22099998E+02 -0.81096E+04
 0.22149998E+02 -0.84931E+04
 0.22199999E+02 -0.89250E+04
 0.22249998E+02 -0.93840E+04
 0.22299999E+02 -0.97803E+04
 0.22349998E+02 -0.10047E+05
 0.22399998E+02 -0.10192E+05
 0.22449999E+02 -0.10178E+05
 0.22499998E+02 -0.99915E+04
 0.22549999E+02 -0.96139E+04
 0.22599998E+02 -0.90606E+04
 0.22649998E+02 -0.83880E+04
 0.22699999E+02 -0.76448E+04
 0.22749998E+02 -0.68555E+04
 0.22799999E+02 -0.60489E+04
 0.22849998E+02 -0.52825E+04
 0.22899998E+02 -0.45617E+04
 0.22949999E+02 -0.38858E+04
 0.22999998E+02 -0.33170E+04
 0.23049999E+02 -0.28805E+04
 0.23099998E+02 -0.24889E+04
 0.23149998E+02 -0.21274E+04
 0.23199999E+02 -0.18446E+04
 0.23249998E+02 -0.16990E+04
 0.23299999E+02 -0.17365E+04
 0.23349998E+02 -0.19625E+04
 0.23399998E+02 -0.23821E+04
 0.23449999E+02 -0.29302E+04
 0.23499998E+02 -0.35271E+04
 0.23549999E+02 -0.41018E+04
 0.23599998E+02 -0.46120E+04
 0.23649998E+02 -0.50429E+04
 0.23699999E+02 -0.53361E+04
 0.23749998E+02 -0.54757E+04
 0.23799999E+02 -0.54867E+04
 0.23849998E+02 -0.53561E+04
 0.23899998E+02 -0.50763E+04
 0.23949999E+02 -0.46355E+04
 0.23999998E+02 -0.40269E+04
 0.24049999E+02 -0.32983E+04
 0.24099998E+02 -0.24693E+04
 0.24149998E+02 -0.15067E+04
 0.24199999E+02 -0.41380E+03
 0.24249998E+02  0.82063E+03
 0.24299999E+02  0.21889E+04
 0.24349998E+02  0.36239E+04
 0.24399998E+02  0.51181E+04
 0.24449999E+02  0.66531E+04
 0.24499998E+02  0.81291E+04
 0.24549999E+02  0.94957E+04
 0.24599998E+02  0.10757E+05
 0.24649998E+02  0.11884E+05
 0.24699999E+02  0.12811E+05
 0.24749998E+02  0.13527E+05
 0.24799999E+02  0.14026E+05
 0.24849998E+02  0.14279E+05
 0.24899998E+02  0.14287E+05
 0.24949999E+02  0.14068E+05
 0.24999998E+02  0.13672E+05
 0.25049999E+02  0.13115E+05
 0.25099998E+02  0.12434E+05
 0.25149998E+02  0.11698E+05
 0.25199999E+02  0.10898E+05
 0.25249998E+02  0.10015E+05
 0.25299999E+02  0.91083E+04
 0.25349998E+02  0.82006E+04
 0.25399998E+02  0.72817E+04
 0.25449999E+02  0.63455E+04
 0.25499998E+02  0.53598E+04
 0.25549999E+02  0.43656E+04
 0.25599998E+02  0.34119E+04
 0.25649998E+02  0.25479E+04
 0.25699999E+02  0.17740E+04
 0.25749998E+02  0.10349E+04
 0.25799999E+02  0.33825E+03
 0.25849998E+02 -0.28391E+03
 0.25899998E+02 -0.82256E+03
 0.25949999E+02 -0.13193E+04
 0.25999998E+02 -0.18222E+04
 0.26049999E+02 -0.23136E+04
 0.26099998E+02 -0.27335E+04
 0.26149998E+02 -0.30522E+04
 0.26199999E+02 -0.32590E+04
 0.26249998E+02 -0.33545E+04
 0.26299999E+02 -0.33570E+04
 0.26349998E+02 -0.32814E+04
 0.26399998E+02 -0.31552E+04
 0.26449999E+02 -0.30309E+04
 0.26499998E+02 -0.29666E+04
 0.26549999E+02 -0.30059E+04
 0.26599998E+02 -0.31501E+04
 0.26649998E+02 -0.33833E+04
 0.26699999E+02 -0.36833E+04
 0.26749998E+02 -0.40380E+04
 0.26799999E+02 -0.44462E+04
 0.26849998E+02 -0.49055E+04
 0.26899998E+02 -0.54131E+04
 0.26949999E+02 -0.59306E+04
 0.26999998E+02 -0.63982E+04
 0.27049997E+02 -0.67869E+04
 0.27099998E+02 -0.70794E+04
 0.27149998E+02 -0.72771E+04
 0.27199999E+02 -0.73675E+04
 0.27249998E+02 -0.72878E+04
 0.27299997E+02 -0.70139E+04
 0.27349998E+02 -0.65896E+04
 0.27399998E+02 -0.60655E+04
 0.27449999E+02 -0.54211E+04
 0.27499998E+02 -0.46166E+04
 0.27549997E+02 -0.36424E+04
 0.27599998E+02 -0.25374E+04
 0.27649998E+02 -0.13643E+04
 0.27699999E+02 -0.15597E+03
 0.27749998E+02  0.10638E+04
 0.27799997E+02  0.22583E+04
 0.27849998E+02  0.33850E+04
 0.27899998E+02  0.44163E+04
 0.27949999E+02  0.53405E+04
 0.27999998E+02  0.61303E+04
 0.28049997E+02  0.67515E+04
 0.28099998E+02  0.71388E+04
 0.28149998E+02  0.72186E+04
 0.28199999E+02  0.70457E+04
 0.28249998E+02  0.67096E+04
 0.28299997E+02  0.62686E+04
 0.28349998E+02  0.57508E+04
 0.28399998E+02  0.52328E+04
 0.28449999E+02  0.47963E+04
 0.28499998E+02  0.44160E+04
 0.28549997E+02  0.40826E+04
 0.28599998E+02  0.38070E+04
 0.28649998E+02  0.36170E+04
 0.28699999E+02  0.34929E+04
 0.28749998E+02  0.34294E+04
 0.28799997E+02  0.33912E+04
 0.28849998E+02  0.33042E+04
 0.28899998E+02  0.31662E+04
 0.28949999E+02  0.29797E+04
 0.28999998E+02  0.27985E+04
 0.29049997E+02  0.26435E+04
 0.29099998E+02  0.25280E+04
 0.29149998E+02  0.25019E+04
 0.29199999E+02  0.24788E+04
 0.29249998E+02  0.23486E+04
 0.29299997E+02  0.22026E+04
 0.29349998E+02  0.20670E+04
 0.29399998E+02  0.19085E+04
 0.29449999E+02  0.18527E+04
 0.29499998E+02  0.19088E+04
 0.29549997E+02  0.20403E+04
 0.29599998E+02  0.22069E+04
 0.29649998E+02  0.24130E+04
 0.29699999E+02  0.26861E+04
 0.29749998E+02  0.29438E+04
 0.29799997E+02  0.31227E+04
 0.29849998E+02  0.31209E+04
 0.29899998E+02  0.30267E+04
 0.29949999E+02  0.29484E+04
 0.29999998E+02  0.28504E+04
 0.30049999E+02  0.28199E+04
 0.30099998E+02  0.29002E+04
 0.30149998E+02  0.29765E+04
 0.30199997E+02  0.30307E+04
 0.30249996E+02  0.30428E+04
 0.30299999E+02  0.30258E+04
 0.30349998E+02  0.30627E+04
 0.30399998E+02  0.31151E+04
 0.30449997E+02  0.31914E+04
 0.30499996E+02  0.32402E+04
 0.30549999E+02  0.31723E+04
 0.30599998E+02  0.30481E+04
 0.30649998E+02  0.28378E+04
 0.30699997E+02  0.25869E+04
 0.30749996E+02  0.21009E+04
 0.30799999E+02  0.13202E+04
 0.30849998E+02  0.55624E+03
 0.30899998E+02 -0.22706E+03
 0.30949997E+02 -0.10138E+04
 0.30999996E+02 -0.18204E+04
 0.31049999E+02 -0.26997E+04
 0.31099998E+02 -0.36347E+04
 0.31149998E+02 -0.45247E+04
 0.31199997E+02 -0.53418E+04
 0.31249996E+02 -0.60303E+04
 0.31299999E+02 -0.64085E+04
 0.31349998E+02 -0.64573E+04
 0.31399998E+02 -0.64422E+04
 0.31449997E+02 -0.64669E+04
 0.31499996E+02 -0.64518E+04
 0.31549999E+02 -0.63546E+04
 0.31599998E+02 -0.61259E+04
 0.31649998E+02 -0.58057E+04
 0.31699997E+02 -0.53781E+04
 0.31749996E+02 -0.49836E+04
 0.31799999E+02 -0.46934E+04
 0.31849998E+02 -0.42298E+04
 0.31899998E+02 -0.36464E+04
 0.31949997E+02 -0.32595E+04
 0.31999996E+02 -0.28701E+04
 0.32049999E+02 -0.24661E+04
 0.32099998E+02 -0.20881E+04
 0.32149998E+02 -0.15125E+04
 0.32199997E+02 -0.11147E+04
 0.32249996E+02 -0.95252E+03
 0.32299999E+02 -0.95817E+03
 0.32349998E+02 -0.11850E+04
 0.32399998E+02 -0.12311E+04
 0.32449997E+02 -0.15554E+04
 0.32499996E+02 -0.20333E+04
 0.32549999E+02 -0.23833E+04
 0.32599998E+02 -0.29225E+04
 0.32649998E+02 -0.36162E+04
 0.32699997E+02 -0.43382E+04
 0.32749996E+02 -0.51977E+04
 0.32799999E+02 -0.61818E+04
 0.32849998E+02 -0.70030E+04
 0.32899998E+02 -0.74398E+04
 0.32949997E+02 -0.78947E+04
 0.32999996E+02 -0.88138E+04
 0.33049999E+02 -0.94743E+04
 0.33099998E+02 -0.96314E+04
 0.33149998E+02 -0.98322E+04
 0.33199997E+02 -0.10438E+05
 0.33249996E+02 -0.10851E+05
 0.33299999E+02 -0.11246E+05
 0.33349998E+02 -0.11203E+05
 0.33399998E+02 -0.11191E+05
 0.33449997E+02 -0.11241E+05
 0.33499996E+02 -0.10873E+05
 0.33549999E+02 -0.10229E+05
 0.33599998E+02 -0.93371E+04
 0.33649998E+02 -0.86350E+04
 0.33699997E+02 -0.81533E+04
 0.33749996E+02 -0.75699E+04
 0.33799999E+02 -0.61656E+04
 0.33849998E+02 -0.49702E+04
 0.33899998E+02 -0.39462E+04
 0.33949997E+02 -0.35068E+04
 0.33999996E+02 -0.27135E+04
 0.34049999E+02 -0.97173E+03
 0.34099998E+02  0.82552E+03
 0.34149998E+02  0.17357E+04
 0.34199997E+02  0.19727E+04
 0.34249996E+02  0.30402E+04
 0.34299999E+02  0.43644E+04
 0.34349998E+02  0.49898E+04
 0.34399998E+02  0.48567E+04
 0.34449997E+02  0.51146E+04
 0.34499996E+02  0.47784E+04
 0.34549999E+02  0.45096E+04
 0.34599998E+02  0.46942E+04
 0.34649998E+02  0.46810E+04
 0.34699997E+02  0.41086E+04
 0.34749996E+02  0.32145E+04
 0.34799999E+02  0.46243E+04
 0.34849998E+02  0.56979E+04
 0.34899998E+02  0.74156E+04
 0.34949997E+02  0.82768E+04
 0.34999996E+02  0.64513E+04
 0.35049999E+02  0.80314E+04
 0.35099998E+02  0.10308E+05
 0.35149998E+02  0.11529E+05
 0.35199997E+02  0.10996E+05
 0.35249996E+02  0.84326E+04
 0.35299999E+02  0.67046E+04
 0.35349998E+02  0.69020E+04
 0.35399998E+02  0.86361E+04
 0.35449997E+02  0.77370E+04
 0.35499996E+02  0.92873E+04
 0.35549999E+02  0.12786E+05
 0.35599998E+02  0.13335E+05
 0.35649998E+02  0.11752E+05
 0.35699997E+02  0.54059E+04
 0.35749996E+02  0.24800E+04
 0.35799999E+02  0.32804E+04
 0.35849998E+02  0.19989E+04
 0.35899998E+02  0.46200E+03
 0.35949997E+02 -0.30031E+03
 0.35999996E+02 -0.18763E+04
 0.36049999E+02 -0.21866E+04
 0.36099998E+02 -0.10097E+04
 0.36149998E+02 -0.10839E+04
 0.36199997E+02  0.61459E+03
 0.36249996E+02  0.61950E+04
 0.36299999E+02  0.10440E+05
 0.36349998E+02  0.10490E+05
 0.36399998E+02  0.53686E+04
 0.36449997E+02 -0.75630E+03
 0.36499996E+02  0.47976E+03
 0.36549999E+02  0.10915E+04
 0.36599998E+02 -0.17407E+04
 0.36649998E+02 -0.28197E+04
 0.36699997E+02 -0.17743E+04
 0.36749996E+02  0.15058E+04
 0.36799999E+02  0.34231E+04
 0.36849998E+02  0.11310E+04
 0.36899998E+02  0.25828E+03
 0.36949997E+02 -0.33012E+04
 0.36999996E+02 -0.72655E+04
 0.37049999E+02 -0.77237E+04
 0.37099998E+02 -0.91869E+04
 0.37149998E+02 -0.12664E+05
 0.37199997E+02 -0.18409E+05
 0.37249996E+02 -0.19358E+05
 0.37299999E+02 -0.15094E+05
 0.37349998E+02 -0.14892E+05
 0.37399998E+02 -0.16290E+05
 0.37449997E+02 -0.16159E+05
 0.37499996E+02 -0.14369E+05
 0.37549999E+02 -0.11118E+05
 0.37599998E+02 -0.77121E+04
 0.37649998E+02 -0.62354E+04
 0.37699997E+02 -0.50798E+04
 0.37749996E+02  0.10171E+04
 0.37799999E+02  0.21120E+04
 0.37849998E+02 -0.24190E+04
 0.37899998E+02 -0.14192E+05
 0.37949997E+02 -0.19034E+05
 0.37999996E+02 -0.12730E+05
 0.38049999E+02 -0.88329E+04
 0.38099998E+02 -0.90861E+04
 0.38149998E+02 -0.16196E+05
 0.38199997E+02 -0.14445E+05
 0.38249996E+02 -0.36031E+04
 0.38299999E+02  0.26379E+04
 0.38349998E+02 -0.29207E+04
 0.38399998E+02 -0.15234E+05
 0.38449997E+02 -0.20924E+05
 0.38499996E+02 -0.19736E+05
 0.38549999E+02 -0.17175E+05
 0.38599998E+02 -0.14675E+05
 0.38649998E+02 -0.17480E+05
 0.38699997E+02 -0.23245E+05
 0.38749996E+02 -0.27204E+05
 0.38799999E+02 -0.33876E+05
 0.38849998E+02 -0.29807E+05
 0.38899998E+02 -0.14385E+05
 0.38949997E+02 -0.45681E+04
 0.38999996E+02 -0.39587E+04
 0.39049999E+02 -0.47142E+04
 0.39099998E+02  0.33644E+04
 0.39149998E+02  0.17505E+05
 0.39199997E+02  0.25194E+05
 0.39249996E+02  0.20338E+05
 0.39299999E+02  0.12124E+05
 0.39349998E+02  0.36941E+04
 0.39399998E+02  0.28064E+03
 0.39449997E+02 -0.31575E+04
 0.39499996E+02 -0.32861E+04
 0.39549999E+02  0.67703E+04
 0.39599998E+02  0.28639E+04
 0.39649998E+02 -0.48253E+04
 0.39699997E+02 -0.59982E+03
 0.39749996E+02  0.57608E+04
 0.39799999E+02  0.58406E+03
 0.39849998E+02 -0.69925E+04
 0.39899998E+02 -0.77422E+04
 0.39949997E+02 -0.97509E+04
 0.39999996E+02 -0.15815E+05
 0.40049999E+02 -0.26908E+05
 0.40099998E+02 -0.30767E+05
 0.40149998E+02 -0.33207E+05
 0.40199997E+02 -0.31236E+05
 0.40249996E+02 -0.21986E+05
 0.40299999E+02 -0.17929E+05
 0.40349998E+02 -0.23220E+05
 0.40399998E+02 -0.22620E+05
 0.40449997E+02 -0.11101E+05
 0.40499996E+02 -0.23439E+04
 0.40549999E+02  0.97415E+04
 0.40599998E+02  0.19475E+05
 0.40649998E+02  0.23160E+05
 0.40699997E+02  0.21612E+05
 0.40749996E+02  0.13649E+05
 0.40799999E+02  0.70314E+04
 0.40849998E+02  0.10014E+05
 0.40899998E+02  0.95955E+04
 0.40949997E+02  0.10124E+05
 0.40999996E+02  0.18347E+05
 0.41049999E+02  0.17643E+05
 0.41099998E+02  0.17073E+05
 0.41149998E+02  0.96377E+04
 0.41199997E+02 -0.58055E+04
 0.41249996E+02 -0.16542E+05
 0.41299999E+02 -0.17173E+05
 0.41349998E+02 -0.21450E+05
 0.41399998E+02 -0.34113E+05
 0.41449997E+02 -0.31583E+05
 0.41499996E+02 -0.15458E+05
 0.41549999E+02  0.73025E+04
 0.41599998E+02  0.34174E+05
 0.41649998E+02  0.61467E+05
 0.41699997E+02  0.80460E+05
 0.41749996E+02  0.85405E+05
 0.41799999E+02  0.84109E+05
 0.41849998E+02  0.77144E+05
 0.41899998E+02  0.59215E+05
 0.41949997E+02  0.47813E+05
 0.41999996E+02  0.50894E+05
 0.42049999E+02  0.49137E+05
 0.42099998E+02  0.30528E+05
 0.42149998E+02  0.34872E+04
 0.42199997E+02 -0.16552E+05
 0.42249996E+02 -0.19917E+05
 0.42299999E+02 -0.12011E+04
 0.42349998E+02  0.22993E+05
 0.42399998E+02  0.37338E+05
 0.42449997E+02  0.41893E+05
 0.42499996E+02  0.36770E+05
 0.42549999E+02  0.34071E+05
 0.42599998E+02  0.41102E+05
 0.42649998E+02  0.49691E+05
 0.42699997E+02  0.49153E+05
 0.42749996E+02  0.41712E+05
 0.42799995E+02  0.28258E+05
 0.42849998E+02  0.11466E+05
 0.42899998E+02 -0.20792E+04
 0.42949997E+02 -0.64395E+04
 0.42999996E+02 -0.23588E+04
 0.43049995E+02  0.51339E+04
 0.43099998E+02  0.13592E+05
 0.43149998E+02  0.11261E+05
 0.43199997E+02  0.17067E+04
 0.43249996E+02 -0.62980E+04
 0.43299995E+02 -0.11635E+05
 0.43349998E+02 -0.87756E+04
 0.43399998E+02  0.21207E+04
 0.43449997E+02  0.12272E+05
 0.43499996E+02  0.21941E+05
 0.43549995E+02  0.29334E+05
 0.43599998E+02  0.27707E+05
 0.43649998E+02  0.25779E+05
 0.43699997E+02  0.25234E+05
 0.43749996E+02  0.24030E+05
 0.43799995E+02  0.23319E+05
 0.43849998E+02  0.17807E+05
 0.43899998E+02  0.42728E+04
 0.43949997E+02 -0.20678E+05
 0.43999996E+02 -0.37817E+05
 0.44049995E+02 -0.38734E+05
 0.44099998E+02 -0.46504E+05
 0.44149998E+02 -0.56300E+05
 0.44199997E+02 -0.56817E+05
 0.44249996E+02 -0.55735E+05
 0.44299995E+02 -0.49273E+05
 0.44349998E+02 -0.47902E+05
 0.44399998E+02 -0.47275E+05
 0.44449997E+02 -0.40238E+05
 0.44499996E+02 -0.29302E+05
 0.44549995E+02 -0.13508E+05
 0.44599998E+02  0.66607E+04
 0.44649998E+02  0.24840E+05
 0.44699997E+02  0.31213E+05
 0.44749996E+02  0.39853E+05
 0.44799995E+02  0.55163E+05
 0.44849998E+02  0.75355E+05
 0.44899998E+02  0.89207E+05
 0.44949997E+02  0.93045E+05
 0.44999996E+02  0.74667E+05
 0.45049995E+02  0.41393E+05
 0.45099998E+02  0.23274E+05
 0.45149998E+02  0.22147E+05
 0.45199997E+02  0.19120E+05
 0.45249996E+02  0.81663E+04
 0.45299995E+02  0.52260E+04
 0.45349998E+02  0.32631E+03
 0.45399998E+02 -0.14900E+05
 0.45449997E+02 -0.32127E+05
 0.45499996E+02 -0.47929E+05
 0.45549995E+02 -0.58753E+05
 0.45599998E+02 -0.65774E+05
 0.45649998E+02 -0.77262E+05
 0.45699997E+02 -0.82206E+05
 0.45749996E+02 -0.66961E+05
 0.45799995E+02 -0.42234E+05
 0.45849998E+02 -0.20326E+05
 0.45899998E+02 -0.19024E+04
 0.45949997E+02  0.15743E+05
 0.45999996E+02  0.30373E+05
 0.46049995E+02  0.42673E+05
 0.46099998E+02  0.51845E+05
 0.46149998E+02  0.56526E+05
 0.46199997E+02  0.59018E+05
 0.46249996E+02  0.46565E+05
 0.46299995E+02  0.34126E+05
 0.46349998E+02  0.40978E+05
 0.46399998E+02  0.53233E+05
 0.46449997E+02  0.54107E+05
 0.46499996E+02  0.46239E+05
 0.46549995E+02  0.35206E+05
 0.46599998E+02  0.15386E+05
 0.46649998E+02 -0.72583E+04
 0.46699997E+02 -0.19788E+05
 0.46749996E+02 -0.17765E+05
 0.46799995E+02 -0.80541E+04
 0.46849998E+02 -0.11566E+04
 0.46899998E+02 -0.70341E+03
 0.46949997E+02 -0.14514E+04
 0.46999996E+02 -0.59562E+04
 0.47049995E+02 -0.11724E+05
 0.47099998E+02 -0.10861E+05
 0.47149998E+02 -0.72816E+04
 0.47199997E+02 -0.20223E+04
 0.47249996E+02  0.31840E+04
 0.47299995E+02  0.59618E+04
 0.47349998E+02  0.10414E+05
 0.47399998E+02  0.69494E+04
 0.47449997E+02 -0.61635E+04
 0.47499996E+02 -0.16112E+05
 0.47549995E+02 -0.13210E+05
 0.47599998E+02 -0.59968E+04
 0.47649998E+02 -0.50261E+04
 0.47699997E+02 -0.16222E+04
 0.47749996E+02  0.59046E+04
 0.47799995E+02  0.19477E+05
 0.47849998E+02  0.38270E+05
 0.47899998E+02  0.48884E+05
 0.47949997E+02  0.56586E+05
 0.47999996E+02  0.63457E+05
 0.48049995E+02  0.58064E+05
 0.48099998E+02  0.41642E+05
 0.48149998E+02  0.20578E+05
 0.48199997E+02 -0.10812E+04
 0.48249996E+02 -0.18548E+05
 0.48299995E+02 -0.22174E+05
 0.48349998E+02 -0.15573E+05
 0.48399998E+02 -0.25219E+04
 0.48449997E+02  0.10798E+05
 0.48499996E+02  0.11304E+05
 0.48549995E+02  0.10584E+05
 0.48599998E+02  0.18088E+05
 0.48649998E+02  0.24822E+05
 0.48699997E+02  0.25264E+05
 0.48749996E+02  0.21362E+05
 0.48799995E+02  0.15922E+05
 0.48849998E+02  0.60317E+04
 0.48899998E+02 -0.16685E+04
 0.48949997E+02 -0.25563E+03
 0.48999996E+02  0.48081E+04
 0.49049995E+02  0.74452E+04
 0.49099998E+02  0.26012E+04
 0.49149998E+02 -0.39890E+04
 0.49199997E+02 -0.63989E+04
 0.49249996E+02 -0.61832E+04
 0.49299995E+02 -0.70069E+04
 0.49349998E+02 -0.68575E+04
 0.49399998E+02 -0.12312E+04
 0.49449997E+02  0.11043E+05
 0.49499996E+02  0.24994E+05
 0.49549995E+02  0.34162E+05
 0.49599998E+02  0.36705E+05
 0.49649998E+02  0.33529E+05
 0.49699997E+02  0.32967E+05
 0.49749996E+02  0.31870E+05
 0.49799995E+02  0.30034E+05
 0.49849998E+02  0.31370E+05
 0.49899998E+02  0.28519E+05
 0.49949997E+02  0.23264E+05
 0.49999996E+02  0.24398E+05
 0.50049995E+02  0.29598E+05
 0.50099998E+02  0.32446E+05
 0.50149998E+02  0.29853E+05
 0.50199997E+02  0.17838E+05
 0.50249996E+02  0.46175E+04
 0.50299995E+02  0.18420E+04
 0.50349998E+02  0.59547E+04
 0.50399998E+02  0.40164E+04
 0.50449997E+02 -0.99613E+04
 0.50499996E+02 -0.26103E+05
 0.50549995E+02 -0.35407E+05
 0.50599998E+02 -0.36718E+05
 0.50649998E+02 -0.31111E+05
 0.50699997E+02 -0.27964E+05
 0.50749996E+02 -0.27043E+05
 0.50799995E+02 -0.20463E+05
 0.50849998E+02 -0.16000E+05
 0.50899998E+02 -0.16786E+05
 0.50949997E+02 -0.20639E+05
 0.50999996E+02 -0.22735E+05
 0.51049995E+02 -0.18467E+05
 0.51099998E+02 -0.12826E+05
 0.51149998E+02  0.82456E+03
 0.51199997E+02  0.18821E+05
 0.51249996E+02  0.24562E+05
 0.51299995E+02  0.20539E+05
 0.51349998E+02  0.89280E+04
 0.51399998E+02 -0.12140E+05
 0.51449997E+02 -0.29920E+05
 0.51499996E+02 -0.35885E+05
 0.51549995E+02 -0.29179E+05
 0.51599998E+02 -0.17905E+05
 0.51649998E+02 -0.16549E+05
 0.51699997E+02 -0.25309E+05
 0.51749996E+02 -0.31077E+05
 0.51799995E+02 -0.34141E+05
 0.51849998E+02 -0.40756E+05
 0.51899998E+02 -0.40422E+05
 0.51949997E+02 -0.34534E+05
 0.51999996E+02 -0.29711E+05
 0.52049995E+02 -0.22181E+05
 0.52099998E+02 -0.97653E+04
 0.52149998E+02  0.32676E+03
 0.52199997E+02  0.63538E+04
 0.52249996E+02  0.61467E+04
 0.52299995E+02  0.18649E+03
 0.52349998E+02 -0.62052E+04
 0.52399998E+02 -0.12108E+05
 0.52449997E+02 -0.18256E+05
 0.52499996E+02 -0.22747E+05
 0.52549995E+02 -0.21536E+05
 0.52599998E+02 -0.24490E+05
 0.52649998E+02 -0.31179E+05
 0.52699997E+02 -0.36189E+05
 0.52749996E+02 -0.39068E+05
 0.52799995E+02 -0.41960E+05
 0.52849998E+02 -0.44293E+05
 0.52899998E+02 -0.36547E+05
 0.52949997E+02 -0.27236E+05
 0.52999996E+02 -0.23417E+05
 0.53049995E+02 -0.20152E+05
 0.53099998E+02 -0.20744E+05
 0.53149998E+02 -0.23497E+05
 0.53199997E+02 -0.26314E+05
 0.53249996E+02 -0.32597E+05
 0.53299995E+02 -0.41821E+05
 0.53349998E+02 -0.48635E+05
 0.53399998E+02 -0.45646E+05
 0.53449997E+02 -0.32447E+05
 0.53499996E+02 -0.18123E+05
 0.53549995E+02 -0.60224E+04
 0.53599998E+02  0.78015E+04
 0.53649998E+02  0.21216E+05
 0.53699997E+02  0.28972E+05
 0.53749996E+02  0.30522E+05
 0.53799995E+02  0.33562E+05
 0.53849998E+02  0.39366E+05
 0.53899998E+02  0.46081E+05
 0.53949997E+02  0.49756E+05
 0.53999996E+02  0.44742E+05
 0.54049995E+02  0.35680E+05
 0.54099998E+02  0.28303E+05
 0.54149998E+02  0.18638E+05
 0.54199997E+02  0.78832E+04
 0.54249996E+02 -0.10757E+04
 0.54299995E+02 -0.12522E+05
 0.54349998E+02 -0.22323E+05
 0.54399998E+02 -0.29044E+05
 0.54449997E+02 -0.30613E+05
 0.54499996E+02 -0.25734E+05
 0.54549995E+02 -0.19214E+05
 0.54599998E+02 -0.73804E+04
 0.54649998E+02  0.97551E+04
 0.54699997E+02  0.18865E+05
 0.54749996E+02  0.21228E+05
 0.54799995E+02  0.26169E+05
 0.54849998E+02  0.32116E+05
 0.54899998E+02  0.34865E+05
 0.54949997E+02  0.29747E+05
 0.54999996E+02  0.22523E+05
 0.55049995E+02  0.19982E+05
 0.55099998E+02  0.16782E+05
 0.55149998E+02  0.12187E+05
 0.55199997E+02  0.71392E+04
 0.55249996E+02 -0.64075E+03
 0.55299995E+02 -0.43390E+04
 0.55349998E+02 -0.24299E+04
 0.55399998E+02  0.45621E+04
 0.55449997E+02  0.18419E+05
 0.55499996E+02  0.32038E+05
 0.55549995E+02  0.37364E+05
 0.55599998E+02  0.31435E+05
 0.55649998E+02  0.19523E+05
 0.55699997E+02  0.11246E+05
 0.55749996E+02  0.70316E+04
 0.55799995E+02 -0.20494E+04
 0.55849995E+02 -0.13762E+05
 0.55899998E+02 -0.20135E+05
 0.55949997E+02 -0.21388E+05
 0.55999996E+02 -0.20217E+05
 0.56049995E+02 -0.16287E+05
 0.56099995E+02 -0.91805E+04
 0.56149998E+02  0.60780E+03
 0.56199997E+02  0.11108E+05
 0.56249996E+02  0.15300E+05
 0.56299995E+02  0.16052E+05
 0.56349995E+02  0.19176E+05
 0.56399998E+02  0.21535E+05
 0.56449997E+02  0.23164E+05
 0.56499996E+02  0.26844E+05
 0.56549995E+02  0.32218E+05
 0.56599995E+02  0.34713E+05
 0.56649998E+02  0.39598E+05
 0.56699997E+02  0.51272E+05
 0.56749996E+02  0.65389E+05
 0.56799995E+02  0.77212E+05
 0.56849995E+02  0.84041E+05
 0.56899998E+02  0.84483E+05
 0.56949997E+02  0.80757E+05
 0.56999996E+02  0.80416E+05
 0.57049995E+02  0.82840E+05
 0.57099995E+02  0.82144E+05
 0.57149998E+02  0.77755E+05
 0.57199997E+02  0.76167E+05
 0.57249996E+02  0.77225E+05
 0.57299995E+02  0.75997E+05
 0.57349995E+02  0.73324E+05
 0.57399998E+02  0.74931E+05
 0.57449997E+02  0.82149E+05
 0.57499996E+02  0.89276E+05
 0.57549995E+02  0.90507E+05
 0.57599995E+02  0.90852E+05
 0.57649998E+02  0.95215E+05
 0.57699997E+02  0.92800E+05
 0.57749996E+02  0.86075E+05
 0.57799995E+02  0.76917E+05
 0.57849995E+02  0.64878E+05
 0.57899998E+02  0.60499E+05
 0.57949997E+02  0.62551E+05
 0.57999996E+02  0.70867E+05
 0.58049995E+02  0.82893E+05
 0.58099995E+02  0.96445E+05
 0.58149998E+02  0.11162E+06
 0.58199997E+02  0.12447E+06
 0.58249996E+02  0.13433E+06
 0.58299995E+02  0.14067E+06
 0.58349995E+02  0.14657E+06
 0.58399998E+02  0.14513E+06
 0.58449997E+02  0.13308E+06
 0.58499996E+02  0.12072E+06
 0.58549995E+02  0.11072E+06
 0.58599995E+02  0.10409E+06
 0.58649998E+02  0.98289E+05
 0.58699997E+02  0.95913E+05
 0.58749996E+02  0.97265E+05
 0.58799995E+02  0.96324E+05
 0.58849995E+02  0.95568E+05
 0.58899998E+02  0.94484E+05
 0.58949997E+02  0.94441E+05
 0.58999996E+02  0.92450E+05
 0.59049995E+02  0.81441E+05
 0.59099995E+02  0.64510E+05
 0.59149998E+02  0.54744E+05
 0.59199997E+02  0.57328E+05
 0.59249996E+02  0.65965E+05
 0.59299995E+02  0.74347E+05
 0.59349995E+02  0.79979E+05
 0.59399998E+02  0.89022E+05
 0.59449997E+02  0.94315E+05
 0.59499996E+02  0.92763E+05
 0.59549995E+02  0.87522E+05
 0.59599995E+02  0.76593E+05
 0.59649998E+02  0.66331E+05
 0.59699997E+02  0.59145E+05
 0.59749996E+02  0.52899E+05
 0.59799995E+02  0.46214E+05
 0.59849995E+02  0.36072E+05
 0.59899998E+02  0.15994E+05
 0.59949997E+02 -0.84263E+04
 0.59999996E+02 -0.28589E+05
 0.60049995E+02 -0.45546E+05
 0.60099995E+02 -0.65258E+05
 0.60149998E+02 -0.94255E+05
 0.60199997E+02 -0.12673E+06
 0.60249996E+02 -0.15864E+06
 0.60299995E+02 -0.18928E+06
 0.60349995E+02 -0.21382E+06
 0.60399998E+02 -0.22577E+06
 0.60449997E+02 -0.22536E+06
 0.60499996E+02 -0.21913E+06
 0.60549995E+02 -0.20790E+06
 0.60599995E+02 -0.19837E+06
 0.60649998E+02 -0.19302E+06
 0.60699997E+02 -0.19226E+06
 0.60749996E+02 -0.18827E+06
 0.60799995E+02 -0.17029E+06
 0.60849995E+02 -0.14571E+06
 0.60899998E+02 -0.13306E+06
 0.60949997E+02 -0.13757E+06
 0.60999996E+02 -0.14417E+06
 0.61049995E+02 -0.14678E+06
 0.61099995E+02 -0.14305E+06
 0.61149998E+02 -0.13700E+06
 0.61199997E+02 -0.13132E+06
 0.61249996E+02 -0.12805E+06
 0.61299995E+02 -0.13268E+06
 0.61349995E+02 -0.14321E+06
 0.61399998E+02 -0.15574E+06
 0.61449997E+02 -0.16206E+06
 0.61499996E+02 -0.16048E+06
 0.61549995E+02 -0.15496E+06
 0.61599995E+02 -0.14050E+06
 0.61649998E+02 -0.11620E+06
 0.61699997E+02 -0.87529E+05
 0.61749996E+02 -0.69651E+05
 0.61799995E+02 -0.79673E+05
 0.61849995E+02 -0.10156E+06
 0.61899998E+02 -0.11926E+06
 0.61949997E+02 -0.13157E+06
 0.61999996E+02 -0.12691E+06
 0.62049995E+02 -0.10300E+06
 0.62099998E+02 -0.73945E+05
 0.62149994E+02 -0.48401E+05
 0.62199997E+02 -0.26040E+05
 0.62249992E+02 -0.11504E+05
 0.62299995E+02 -0.71271E+04
 0.62349998E+02 -0.15543E+05
 0.62399994E+02 -0.32062E+05
 0.62449997E+02 -0.35034E+05
 0.62499992E+02 -0.20092E+05
 0.62549995E+02  0.99702E+03
 0.62599998E+02  0.23213E+05
 0.62649994E+02  0.40396E+05
 0.62699997E+02  0.42069E+05
 0.62749992E+02  0.30829E+05
 0.62799995E+02  0.20712E+05
 0.62849998E+02  0.33546E+05
 0.62899994E+02  0.70698E+05
 0.62949997E+02  0.10205E+06
 0.62999992E+02  0.11893E+06
 0.63049995E+02  0.12324E+06
 0.63099998E+02  0.11087E+06
 0.63149994E+02  0.82576E+05
 0.63199997E+02  0.49423E+05
 0.63249992E+02  0.28901E+05
 0.63299995E+02  0.24901E+05
 0.63349998E+02  0.28156E+05
 0.63399994E+02  0.31417E+05
 0.63449997E+02  0.32085E+05
 0.63499992E+02  0.27911E+05
 0.63549995E+02  0.22696E+05
 0.63599998E+02  0.23758E+05
 0.63649994E+02  0.31487E+05
 0.63699997E+02  0.30402E+05
 0.63749992E+02  0.18868E+05
 0.63799995E+02  0.11906E+05
 0.63849998E+02  0.16277E+05
 0.63899994E+02  0.29970E+05
 0.63949997E+02  0.46388E+05
 0.63999992E+02  0.57042E+05
 0.64049995E+02  0.53232E+05
 0.64099998E+02  0.37066E+05
 0.64149994E+02  0.14257E+05
 0.64199997E+02 -0.85149E+04
 0.64249992E+02 -0.27123E+05
 0.64299995E+02 -0.45756E+05
 0.64349998E+02 -0.61902E+05
 0.64399994E+02 -0.79690E+05
 0.64449997E+02 -0.10100E+06
 0.64499992E+02 -0.11570E+06
 0.64549995E+02 -0.12024E+06
 0.64599998E+02 -0.12024E+06
 0.64649994E+02 -0.12555E+06
 0.64699997E+02 -0.13928E+06
 0.64749992E+02 -0.16354E+06
 0.64799995E+02 -0.18871E+06
 0.64849998E+02 -0.20358E+06
 0.64899994E+02 -0.20074E+06
 0.64949997E+02 -0.17805E+06
 0.64999992E+02 -0.14676E+06
 0.65049995E+02 -0.11803E+06
 0.65099998E+02 -0.10588E+06
 0.65149994E+02 -0.11351E+06
 0.65199997E+02 -0.12633E+06
 0.65249992E+02 -0.12668E+06
 0.65299995E+02 -0.10238E+06
 0.65349998E+02 -0.62768E+05
 0.65399994E+02 -0.36943E+05
 0.65449997E+02 -0.42573E+05
 0.65499992E+02 -0.72572E+05
 0.65549995E+02 -0.10655E+06
 0.65599998E+02 -0.12565E+06
 0.65649994E+02 -0.12079E+06
 0.65699997E+02 -0.99047E+05
 0.65749992E+02 -0.71190E+05
 0.65799995E+02 -0.49175E+05
 0.65849998E+02 -0.44865E+05
 0.65899994E+02 -0.55500E+05
 0.65949997E+02 -0.74441E+05
 0.65999992E+02 -0.10132E+06
 0.66049995E+02 -0.13263E+06
 0.66099998E+02 -0.15260E+06
 0.66149994E+02 -0.14505E+06
 0.66199997E+02 -0.10342E+06
 0.66249992E+02 -0.38417E+05
 0.66299995E+02  0.26794E+05
 0.66349998E+02  0.81674E+05
 0.66399994E+02  0.12689E+06
 0.66449997E+02  0.16295E+06
 0.66499992E+02  0.19024E+06
 0.66549995E+02  0.21095E+06
 0.66599998E+02  0.22566E+06
 0.66649994E+02  0.23669E+06
 0.66699997E+02  0.25012E+06
 0.66749992E+02  0.26986E+06
 0.66799995E+02  0.29385E+06
 0.66849998E+02  0.31211E+06
 0.66899994E+02  0.31733E+06
 0.66949997E+02  0.31593E+06
 0.66999992E+02  0.31229E+06
 0.67049995E+02  0.30260E+06
 0.67099998E+02  0.29224E+06
 0.67149994E+02  0.28947E+06
 0.67199997E+02  0.29379E+06
 0.67249992E+02  0.29499E+06
 0.67299995E+02  0.28862E+06
 0.67349998E+02  0.28144E+06
 0.67399994E+02  0.27172E+06
 0.67449997E+02  0.25660E+06
 0.67499992E+02  0.23462E+06
 0.67549995E+02  0.19991E+06
 0.67599998E+02  0.15434E+06
 0.67649994E+02  0.10375E+06
 0.67699997E+02  0.51632E+05
 0.67749992E+02  0.33526E+04
 0.67799995E+02 -0.38593E+05
 0.67849998E+02 -0.78906E+05
 0.67899994E+02 -0.11887E+06
 0.67949997E+02 -0.15713E+06
 0.67999992E+02 -0.19175E+06
 0.68049995E+02 -0.22172E+06
 0.68099998E+02 -0.24416E+06
 0.68149994E+02 -0.25856E+06
 0.68199997E+02 -0.26764E+06
 0.68249992E+02 -0.26466E+06
 0.68299995E+02 -0.24572E+06
 0.68349998E+02 -0.21653E+06
 0.68399994E+02 -0.18682E+06
 0.68449997E+02 -0.16489E+06
 0.68499992E+02 -0.15224E+06
 0.68549995E+02 -0.14412E+06
 0.68599998E+02 -0.13570E+06
 0.68649994E+02 -0.12365E+06
 0.68699997E+02 -0.11172E+06
 0.68749992E+02 -0.10501E+06
 0.68799995E+02 -0.10774E+06
 0.68849998E+02 -0.12506E+06
 0.68899994E+02 -0.15102E+06
 0.68949997E+02 -0.17378E+06
 0.68999992E+02 -0.18246E+06
 0.69049995E+02 -0.17742E+06
 0.69099998E+02 -0.17010E+06
 0.69149994E+02 -0.16671E+06
 0.69199997E+02 -0.16843E+06
 0.69249992E+02 -0.18009E+06
 0.69299995E+02 -0.20772E+06
 0.69349998E+02 -0.25116E+06
 0.69399994E+02 -0.29808E+06
 0.69449997E+02 -0.32983E+06
 0.69499992E+02 -0.34210E+06
 0.69549995E+02 -0.34601E+06
 0.69599998E+02 -0.35444E+06
 0.69649994E+02 -0.37282E+06
 0.69699997E+02 -0.39502E+06
 0.69749992E+02 -0.41381E+06
 0.69799995E+02 -0.42872E+06
 0.69849998E+02 -0.43687E+06
 0.69899994E+02 -0.43314E+06
 0.69949997E+02 -0.41718E+06
 0.69999992E+02 -0.39103E+06
 0.70049995E+02 -0.35388E+06
 0.70099998E+02 -0.31126E+06
 0.70149994E+02 -0.27295E+06
 0.70199997E+02 -0.24291E+06
 0.70249992E+02 -0.22122E+06
 0.70299995E+02 -0.20176E+06
 0.70349998E+02 -0.17803E+06
 0.70399994E+02 -0.15041E+06
 0.70449997E+02 -0.12104E+06
 0.70499992E+02 -0.91428E+05
 0.70549995E+02 -0.64272E+05
 0.70599998E+02 -0.38832E+05
 0.70649994E+02 -0.19117E+05
 0.70699997E+02 -0.81257E+04
 0.70749992E+02 -0.50091E+04
 0.70799995E+02 -0.10824E+05
 0.70849998E+02 -0.21375E+05
 0.70899994E+02 -0.28133E+05
 0.70949997E+02 -0.26850E+05
 0.70999992E+02 -0.20961E+05
 0.71049995E+02 -0.12860E+05
 0.71099998E+02 -0.66672E+03
 0.71149994E+02  0.18314E+05
 0.71199997E+02  0.39180E+05
 0.71249992E+02  0.54667E+05
 0.71299995E+02  0.64338E+05
 0.71349998E+02  0.69713E+05
 0.71399994E+02  0.74110E+05
 0.71449997E+02  0.84280E+05
 0.71499992E+02  0.10437E+06
 0.71549995E+02  0.12796E+06
 0.71599998E+02  0.14447E+06
 0.71649994E+02  0.14824E+06
 0.71699997E+02  0.13990E+06
 0.71749992E+02  0.12266E+06
 0.71799995E+02  0.98417E+05
 0.71849998E+02  0.69443E+05
 0.71899994E+02  0.36298E+05
 0.71949997E+02 -0.26202E+03
 0.71999992E+02 -0.36343E+05
 0.72049995E+02 -0.69719E+05
 0.72099998E+02 -0.10128E+06
 0.72149994E+02 -0.13124E+06
 0.72199997E+02 -0.16055E+06
 0.72249992E+02 -0.19193E+06
 0.72299995E+02 -0.22538E+06
 0.72349998E+02 -0.25343E+06
 0.72399994E+02 -0.26519E+06
 0.72449997E+02 -0.25410E+06
 0.72499992E+02 -0.22270E+06
 0.72549995E+02 -0.17956E+06
 0.72599998E+02 -0.13141E+06
 0.72649994E+02 -0.79329E+05
 0.72699997E+02 -0.22760E+05
 0.72749992E+02  0.32646E+05
 0.72799995E+02  0.83574E+05
 0.72849998E+02  0.13769E+06
 0.72899994E+02  0.19521E+06
 0.72949997E+02  0.24990E+06
 0.72999992E+02  0.29855E+06
 0.73049995E+02  0.33235E+06
 0.73099998E+02  0.34400E+06
 0.73149994E+02  0.33134E+06
 0.73199997E+02  0.30061E+06
 0.73249992E+02  0.26283E+06
 0.73299995E+02  0.22965E+06
 0.73349998E+02  0.20997E+06
 0.73399994E+02  0.20072E+06
 0.73449997E+02  0.18998E+06
 0.73499992E+02  0.16719E+06
 0.73549995E+02  0.13350E+06
 0.73599998E+02  0.93323E+05
 0.73649994E+02  0.54524E+05
 0.73699997E+02  0.29170E+05
 0.73749992E+02  0.25306E+05
 0.73799995E+02  0.46774E+05
 0.73849998E+02  0.86520E+05
 0.73899994E+02  0.13274E+06
 0.73949997E+02  0.17330E+06
 0.73999992E+02  0.19664E+06
 0.74049995E+02  0.20146E+06
 0.74099998E+02  0.19761E+06
 0.74149994E+02  0.19575E+06
 0.74199997E+02  0.20416E+06
 0.74249992E+02  0.22445E+06
 0.74299995E+02  0.24835E+06
 0.74349998E+02  0.26677E+06
 0.74399994E+02  0.27415E+06
 0.74449997E+02  0.27159E+06
 0.74499992E+02  0.26365E+06
 0.74549995E+02  0.25284E+06
 0.74599998E+02  0.23798E+06
 0.74649994E+02  0.21665E+06
 0.74699997E+02  0.18951E+06
 0.74749992E+02  0.15833E+06
 0.74799995E+02  0.12302E+06
 0.74849998E+02  0.88082E+05
 0.74899994E+02  0.61127E+05
 0.74949997E+02  0.46347E+05
 0.74999992E+02  0.41515E+05
 0.75049995E+02  0.41967E+05
 0.75099998E+02  0.46290E+05
 0.75149994E+02  0.53752E+05
 0.75199997E+02  0.62744E+05
 0.75249992E+02  0.73227E+05
 0.75299995E+02  0.87137E+05
 0.75349998E+02  0.10458E+06
 0.75399994E+02  0.12064E+06
 0.75449997E+02  0.13144E+06
 0.75499992E+02  0.13998E+06
 0.75549995E+02  0.14859E+06
 0.75599998E+02  0.15646E+06
 0.75649994E+02  0.16293E+06
 0.75699997E+02  0.16781E+06
 0.75749992E+02  0.17089E+06
 0.75799995E+02  0.16946E+06
 0.75849998E+02  0.16241E+06
 0.75899994E+02  0.15140E+06
 0.75949997E+02  0.13433E+06
 0.75999992E+02  0.11104E+06
 0.76049995E+02  0.86134E+05
 0.76099998E+02  0.67282E+05
 0.76149994E+02  0.59018E+05
 0.76199997E+02  0.58727E+05
 0.76249992E+02  0.63902E+05
 0.76299995E+02  0.73421E+05
 0.76349998E+02  0.86715E+05
 0.76399994E+02  0.97983E+05
 0.76449997E+02  0.98342E+05
 0.76499992E+02  0.86184E+05
 0.76549995E+02  0.63166E+05
 0.76599998E+02  0.31752E+05
 0.76649994E+02 -0.36940E+04
 0.76699997E+02 -0.36402E+05
 0.76749992E+02 -0.60634E+05
 0.76799995E+02 -0.76215E+05
 0.76849998E+02 -0.83411E+05
 0.76899994E+02 -0.82844E+05
 0.76949997E+02 -0.76682E+05
 0.76999992E+02 -0.67029E+05
 0.77049995E+02 -0.55192E+05
 0.77099998E+02 -0.42088E+05
 0.77149994E+02 -0.23701E+05
 0.77199997E+02  0.55498E+04
 0.77249992E+02  0.43650E+05
 0.77299995E+02  0.84174E+05
 0.77349998E+02  0.11944E+06
 0.77399994E+02  0.14328E+06
 0.77449997E+02  0.15340E+06
 0.77499992E+02  0.15018E+06
 0.77549995E+02  0.13422E+06
 0.77599998E+02  0.10942E+06
 0.77649994E+02  0.82842E+05
 0.77699997E+02  0.58670E+05
 0.77749992E+02  0.40679E+05
 0.77799995E+02  0.30250E+05
 0.77849998E+02  0.25489E+05
 0.77899994E+02  0.25566E+05
 0.77949997E+02  0.28868E+05
 0.77999992E+02  0.35534E+05
 0.78049995E+02  0.45448E+05
 0.78099998E+02  0.59174E+05
 0.78149994E+02  0.76755E+05
 0.78199997E+02  0.95314E+05
 0.78249992E+02  0.11272E+06
 0.78299995E+02  0.12798E+06
 0.78349998E+02  0.14221E+06
 0.78399994E+02  0.15643E+06
 0.78449997E+02  0.16870E+06
 0.78499992E+02  0.17311E+06
 0.78549995E+02  0.16422E+06
 0.78599998E+02  0.14354E+06
 0.78649994E+02  0.11866E+06
 0.78699997E+02  0.96263E+05
 0.78749992E+02  0.79761E+05
 0.78799995E+02  0.68834E+05
 0.78849998E+02  0.62903E+05
 0.78899994E+02  0.61702E+05
 0.78949997E+02  0.63244E+05
 0.78999992E+02  0.64125E+05
 0.79049995E+02  0.62675E+05
 0.79099998E+02  0.62101E+05
 0.79149994E+02  0.67010E+05
 0.79199997E+02  0.78075E+05
 0.79249992E+02  0.90664E+05
 0.79299995E+02  0.99091E+05
 0.79349998E+02  0.99608E+05
 0.79399994E+02  0.92205E+05
 0.79449997E+02  0.80098E+05
 0.79499992E+02  0.68199E+05
 0.79549995E+02  0.58860E+05
 0.79599998E+02  0.53126E+05
 0.79649994E+02  0.50454E+05
 0.79699997E+02  0.48871E+05
 0.79749992E+02  0.46792E+05
 0.79799995E+02  0.42081E+05
 0.79849998E+02  0.33553E+05
 0.79899994E+02  0.21682E+05
 0.79949997E+02  0.80669E+04
 0.79999992E+02 -0.72054E+04
 0.80049995E+02 -0.24338E+05
 0.80099998E+02 -0.45038E+05
 0.80149994E+02 -0.70088E+05
 0.80199997E+02 -0.96723E+05
 0.80249992E+02 -0.12080E+06
 0.80299995E+02 -0.13923E+06
 0.80349998E+02 -0.15190E+06
 0.80399994E+02 -0.16021E+06
 0.80449997E+02 -0.16757E+06
 0.80499992E+02 -0.17706E+06
 0.80549995E+02 -0.18698E+06
 0.80599998E+02 -0.19246E+06
 0.80649994E+02 -0.19062E+06
 0.80699997E+02 -0.18264E+06
 0.80749992E+02 -0.17128E+06
 0.80799995E+02 -0.15903E+06
 0.80849998E+02 -0.14565E+06
 0.80899994E+02 -0.12989E+06
 0.80949997E+02 -0.11123E+06
 0.80999992E+02 -0.88621E+05
 0.81049995E+02 -0.64112E+05
 0.81099998E+02 -0.40606E+05
 0.81149994E+02 -0.19485E+05
 0.81199997E+02 -0.22860E+03
 0.81249992E+02  0.16085E+05
 0.81299995E+02  0.27180E+05
 0.81349998E+02  0.31999E+05
 0.81399994E+02  0.30817E+05
 0.81449997E+02  0.25842E+05
 0.81499992E+02  0.18943E+05
 0.81549995E+02  0.11242E+05
 0.81599998E+02  0.14888E+04
 0.81649994E+02 -0.11132E+05
 0.81699997E+02 -0.26134E+05
 0.81749992E+02 -0.42764E+05
 0.81799995E+02 -0.57133E+05
 0.81849998E+02 -0.66469E+05
 0.81899994E+02 -0.72171E+05
 0.81949997E+02 -0.75447E+05
 0.81999992E+02 -0.77931E+05
 0.82049995E+02 -0.80347E+05
 0.82099998E+02 -0.82025E+05
 0.82149994E+02 -0.84600E+05
 0.82199997E+02 -0.89020E+05
 0.82249992E+02 -0.93111E+05
 0.82299995E+02 -0.93615E+05
 0.82349998E+02 -0.87886E+05
 0.82399994E+02 -0.76522E+05
 0.82449997E+02 -0.62619E+05
 0.82499992E+02 -0.49275E+05
 0.82549995E+02 -0.38819E+05
 0.82599998E+02 -0.31119E+05
 0.82649994E+02 -0.23283E+05
 0.82699997E+02 -0.13341E+05
 0.82749992E+02 -0.99228E+03
 0.82799995E+02  0.14801E+05
 0.82849998E+02  0.33173E+05
 0.82899994E+02  0.53833E+05
 0.82949997E+02  0.75765E+05
 0.82999992E+02  0.94534E+05
 0.83049995E+02  0.10769E+06
 0.83099998E+02  0.11466E+06
 0.83149994E+02  0.11574E+06
 0.83199997E+02  0.11112E+06
 0.83249992E+02  0.99877E+05
 0.83299995E+02  0.81804E+05
 0.83349998E+02  0.58530E+05
 0.83399994E+02  0.31035E+05
 0.83449997E+02  0.87386E+02
 0.83499992E+02 -0.30855E+05
 0.83549995E+02 -0.58347E+05
 0.83599998E+02 -0.79653E+05
 0.83649994E+02 -0.93051E+05
 0.83699997E+02 -0.97774E+05
 0.83749992E+02 -0.93149E+05
 0.83799995E+02 -0.78901E+05
 0.83849998E+02 -0.55250E+05
 0.83899994E+02 -0.25544E+05
 0.83949997E+02  0.40471E+04
 0.83999992E+02  0.27133E+05
 0.84049995E+02  0.41392E+05
 0.84099998E+02  0.48778E+05
 0.84149994E+02  0.52505E+05
 0.84199997E+02  0.54635E+05
 0.84249992E+02  0.52665E+05
 0.84299995E+02  0.44376E+05
 0.84349998E+02  0.29806E+05
 0.84399994E+02  0.10856E+05
 0.84449997E+02 -0.97513E+04
 0.84499992E+02 -0.30602E+05
 0.84549995E+02 -0.50742E+05
 0.84599998E+02 -0.68968E+05
 0.84649994E+02 -0.83437E+05
 0.84699997E+02 -0.93031E+05
 0.84749992E+02 -0.96708E+05
 0.84799995E+02 -0.93889E+05
 0.84849998E+02 -0.84257E+05
 0.84899994E+02 -0.69501E+05
 0.84949997E+02 -0.52801E+05
 0.84999992E+02 -0.36788E+05
 0.85049995E+02 -0.24045E+05
 0.85099998E+02 -0.15365E+05
 0.85149994E+02 -0.96785E+04
 0.85199997E+02 -0.44604E+04
 0.85249992E+02  0.23596E+04
 0.85299995E+02  0.11200E+05
 0.85349998E+02  0.23131E+05
 0.85399994E+02  0.39251E+05
 0.85449997E+02  0.59265E+05
 0.85499992E+02  0.82630E+05
 0.85549995E+02  0.10692E+06
 0.85599998E+02  0.12795E+06
 0.85649994E+02  0.14290E+06
 0.85699997E+02  0.15141E+06
 0.85749992E+02  0.15422E+06
 0.85799995E+02  0.15075E+06
 0.85849998E+02  0.13904E+06
 0.85899994E+02  0.11660E+06
 0.85949997E+02  0.83677E+05
 0.85999992E+02  0.44656E+05
 0.86049995E+02  0.54252E+04
 0.86099998E+02 -0.29183E+05
 0.86149994E+02 -0.57844E+05
 0.86199997E+02 -0.80494E+05
 0.86249992E+02 -0.96911E+05
 0.86299995E+02 -0.10713E+06
 0.86349998E+02 -0.11096E+06
 0.86399994E+02 -0.10815E+06
 0.86449997E+02 -0.98026E+05
 0.86499992E+02 -0.81136E+05
 0.86549995E+02 -0.59266E+05
 0.86599998E+02 -0.34469E+05
 0.86649994E+02 -0.86803E+04
 0.86699997E+02  0.17049E+05
 0.86749992E+02  0.40704E+05
 0.86799995E+02  0.59170E+05
 0.86849998E+02  0.70355E+05
 0.86899994E+02  0.73928E+05
 0.86949997E+02  0.70445E+05
 0.86999992E+02  0.59622E+05
 0.87049995E+02  0.42187E+05
 0.87099998E+02  0.20992E+05
 0.87149994E+02 -0.48696E+03
 0.87199997E+02 -0.19739E+05
 0.87249992E+02 -0.37087E+05
 0.87299995E+02 -0.53678E+05
 0.87349998E+02 -0.68350E+05
 0.87399994E+02 -0.79193E+05
 0.87449997E+02 -0.84386E+05
 0.87499992E+02 -0.83459E+05
 0.87549995E+02 -0.79226E+05
 0.87599991E+02 -0.73764E+05
 0.87649994E+02 -0.68169E+05
 0.87699997E+02 -0.65068E+05
 0.87749992E+02 -0.67183E+05
 0.87799995E+02 -0.73827E+05
 0.87849991E+02 -0.80665E+05
 0.87899994E+02 -0.84865E+05
 0.87949997E+02 -0.85545E+05
 0.87999992E+02 -0.80742E+05
 0.88049995E+02 -0.68895E+05
 0.88099991E+02 -0.52412E+05
 0.88149994E+02 -0.35156E+05
 0.88199997E+02 -0.19299E+05
 0.88249992E+02 -0.63481E+04
 0.88299995E+02  0.21114E+04
 0.88349991E+02  0.45810E+04
 0.88399994E+02  0.11777E+04
 0.88449997E+02 -0.70611E+04
 0.88499992E+02 -0.20675E+05
 0.88549995E+02 -0.39942E+05
 0.88599991E+02 -0.64428E+05
 0.88649994E+02 -0.93033E+05
 0.88699997E+02 -0.12329E+06
 0.88749992E+02 -0.15152E+06
 0.88799995E+02 -0.17318E+06
 0.88849991E+02 -0.18750E+06
 0.88899994E+02 -0.19582E+06
 0.88949997E+02 -0.19933E+06
 0.88999992E+02 -0.19830E+06
 0.89049995E+02 -0.19328E+06
 0.89099991E+02 -0.18623E+06
 0.89149994E+02 -0.17783E+06
 0.89199997E+02 -0.16757E+06
 0.89249992E+02 -0.15377E+06
 0.89299995E+02 -0.13448E+06
 0.89349991E+02 -0.10905E+06
 0.89399994E+02 -0.78871E+05
 0.89449997E+02 -0.46531E+05
 0.89499992E+02 -0.16056E+05
 0.89549995E+02  0.97044E+04
 0.89599991E+02  0.29978E+05
 0.89649994E+02  0.44435E+05
 0.89699997E+02  0.53901E+05
 0.89749992E+02  0.60195E+05
 0.89799995E+02  0.66276E+05
 0.89849991E+02  0.74632E+05
 0.89899994E+02  0.86220E+05
 0.89949997E+02  0.10053E+06
 0.89999992E+02  0.11458E+06
 0.90049995E+02  0.12604E+06
 0.90099991E+02  0.13428E+06
 0.90149994E+02  0.13848E+06
 0.90199997E+02  0.13873E+06
 0.90249992E+02  0.13613E+06
 0.90299995E+02  0.13107E+06
 0.90349991E+02  0.12383E+06
 0.90399994E+02  0.11456E+06
 0.90449997E+02  0.10376E+06
 0.90499992E+02  0.91782E+05
 0.90549995E+02  0.78308E+05
 0.90599991E+02  0.63417E+05
 0.90649994E+02  0.48123E+05
 0.90699997E+02  0.34201E+05
 0.90749992E+02  0.22282E+05
 0.90799995E+02  0.13545E+05
 0.90849991E+02  0.83080E+04
 0.90899994E+02  0.47308E+04
 0.90949997E+02  0.23789E+04
 0.90999992E+02  0.16906E+04
 0.91049995E+02  0.23311E+04
 0.91099991E+02  0.50839E+04
 0.91149994E+02  0.10096E+05
 0.91199997E+02  0.16189E+05
 0.91249992E+02  0.23683E+05
 0.91299995E+02  0.32868E+05
 0.91349991E+02  0.44033E+05
 0.91399994E+02  0.56714E+05
 0.91449997E+02  0.68701E+05
 0.91499992E+02  0.78362E+05
 0.91549995E+02  0.84608E+05
 0.91599991E+02  0.86931E+05
 0.91649994E+02  0.85927E+05
 0.91699997E+02  0.82574E+05
 0.91749992E+02  0.78760E+05
 0.91799995E+02  0.77309E+05
 0.91849991E+02  0.79778E+05
 0.91899994E+02  0.84389E+05
 0.91949997E+02  0.88910E+05
 0.91999992E+02  0.91888E+05
 0.92049995E+02  0.91910E+05
 0.92099991E+02  0.87962E+05
 0.92149994E+02  0.80606E+05
 0.92199997E+02  0.72903E+05
 0.92249992E+02  0.67781E+05
 0.92299995E+02  0.66341E+05
 0.92349991E+02  0.68725E+05
 0.92399994E+02  0.74731E+05
 0.92449997E+02  0.82399E+05
 0.92499992E+02  0.89578E+05
 0.92549995E+02  0.95345E+05
 0.92599991E+02  0.99504E+05
 0.92649994E+02  0.10317E+06
 0.92699997E+02  0.10706E+06
 0.92749992E+02  0.11084E+06
 0.92799995E+02  0.11363E+06
 0.92849991E+02  0.11442E+06
 0.92899994E+02  0.11176E+06
 0.92949997E+02  0.10301E+06
 0.92999992E+02  0.88115E+05
 0.93049995E+02  0.70251E+05
 0.93099991E+02  0.51912E+05
 0.93149994E+02  0.33443E+05
 0.93199997E+02  0.14193E+05
 0.93249992E+02 -0.57575E+04
 0.93299995E+02 -0.25140E+05
 0.93349991E+02 -0.42520E+05
 0.93399994E+02 -0.56071E+05
 0.93449997E+02 -0.64561E+05
 0.93499992E+02 -0.67895E+05
 0.93549995E+02 -0.66687E+05
 0.93599991E+02 -0.64052E+05
 0.93649994E+02 -0.63159E+05
 0.93699997E+02 -0.65452E+05
 0.93749992E+02 -0.70419E+05
 0.93799995E+02 -0.75450E+05
 0.93849991E+02 -0.78880E+05
 0.93899994E+02 -0.79702E+05
 0.93949997E+02 -0.77338E+05
 0.93999992E+02 -0.72396E+05
 0.94049995E+02 -0.66303E+05
 0.94099991E+02 -0.60739E+05
 0.94149994E+02 -0.56685E+05
 0.94199997E+02 -0.54133E+05
 0.94249992E+02 -0.52748E+05
 0.94299995E+02 -0.52674E+05
 0.94349991E+02 -0.53461E+05
 0.94399994E+02 -0.55230E+05
 0.94449997E+02 -0.58965E+05
 0.94499992E+02 -0.64476E+05
 0.94549995E+02 -0.71200E+05
 0.94599991E+02 -0.78731E+05
 0.94649994E+02 -0.87083E+05
 0.94699997E+02 -0.96574E+05
 0.94749992E+02 -0.10656E+06
 0.94799995E+02 -0.11556E+06
 0.94849991E+02 -0.12238E+06
 0.94899994E+02 -0.12702E+06
 0.94949997E+02 -0.13012E+06
 0.94999992E+02 -0.13207E+06
 0.95049995E+02 -0.13252E+06
 0.95099991E+02 -0.13063E+06
 0.95149994E+02 -0.12630E+06
 0.95199997E+02 -0.12028E+06
 0.95249992E+02 -0.11392E+06
 0.95299995E+02 -0.10924E+06
 0.95349991E+02 -0.10778E+06
 0.95399994E+02 -0.10946E+06
 0.95449997E+02 -0.11422E+06
 0.95499992E+02 -0.12250E+06
 0.95549995E+02 -0.13322E+06
 0.95599991E+02 -0.14412E+06
 0.95649994E+02 -0.15393E+06
 0.95699997E+02 -0.16271E+06
 0.95749992E+02 -0.17080E+06
 0.95799995E+02 -0.17799E+06
 0.95849991E+02 -0.18318E+06
 0.95899994E+02 -0.18521E+06
 0.95949997E+02 -0.18318E+06
 0.95999992E+02 -0.17705E+06
 0.96049995E+02 -0.16761E+06
 0.96099991E+02 -0.15542E+06
 0.96149994E+02 -0.14181E+06
 0.96199997E+02 -0.12874E+06
 0.96249992E+02 -0.11805E+06
 0.96299995E+02 -0.10987E+06
 0.96349991E+02 -0.10206E+06
 0.96399994E+02 -0.91769E+05
 0.96449997E+02 -0.77855E+05
 0.96499992E+02 -0.61591E+05
 0.96549995E+02 -0.45343E+05
 0.96599991E+02 -0.30898E+05
 0.96649994E+02 -0.19087E+05
 0.96699997E+02 -0.96370E+04
 0.96749992E+02 -0.14716E+04
 0.96799995E+02  0.57131E+04
 0.96849991E+02  0.12184E+05
 0.96899994E+02  0.18161E+05
 0.96949997E+02  0.23794E+05
 0.96999992E+02  0.30396E+05
 0.97049995E+02  0.38795E+05
 0.97099991E+02  0.49439E+05
 0.97149994E+02  0.62611E+05
 0.97199997E+02  0.76206E+05
 0.97249992E+02  0.87491E+05
 0.97299995E+02  0.95376E+05
 0.97349991E+02  0.10073E+06
 0.97399994E+02  0.10495E+06
 0.97449997E+02  0.10849E+06
 0.97499992E+02  0.11076E+06
 0.97549995E+02  0.11124E+06
 0.97599991E+02  0.10959E+06
 0.97649994E+02  0.10525E+06
 0.97699997E+02  0.98483E+05
 0.97749992E+02  0.90187E+05
 0.97799995E+02  0.81128E+05
 0.97849991E+02  0.71665E+05
 0.97899994E+02  0.62056E+05
 0.97949997E+02  0.52349E+05
 0.97999992E+02  0.41798E+05
