-0.20000000E+01 -0.13898E+05
-0.19500000E+01 -0.15573E+05
-0.19000000E+01 -0.16472E+05
-0.18500000E+01 -0.17370E+05
-0.18000000E+01 -0.17652E+05
-0.17500000E+01 -0.17466E+05
-0.17000000E+01 -0.17683E+05
-0.16500001E+01 -0.18305E+05
-0.16000000E+01 -0.19403E+05
-0.15500000E+01 -0.21142E+05
-0.15000000E+01 -0.23518E+05
-0.14500000E+01 -0.26453E+05
-0.14000001E+01 -0.29486E+05
-0.13500000E+01 -0.32925E+05
-0.13000001E+01 -0.36888E+05
-0.12500000E+01 -0.40906E+05
-0.12000000E+01 -0.44689E+05
-0.11500001E+01 -0.47936E+05
-0.11000000E+01 -0.50739E+05
-0.10500001E+01 -0.53223E+05
-0.10000000E+01 -0.54985E+05
-0.95000005E+00 -0.55740E+05
-0.90000010E+00 -0.55467E+05
-0.85000002E+00 -0.54053E+05
-0.80000007E+00 -0.51612E+05
-0.75000012E+00 -0.48423E+05
-0.70000005E+00 -0.44679E+05
-0.65000010E+00 -0.40699E+05
-0.60000014E+00 -0.36461E+05
-0.55000007E+00 -0.31850E+05
-0.50000012E+00 -0.26487E+05
-0.45000005E+00 -0.20682E+05
-0.40000010E+00 -0.14737E+05
-0.35000014E+00 -0.86858E+04
-0.30000007E+00 -0.25962E+04
-0.25000012E+00  0.39945E+04
-0.20000005E+00  0.10497E+05
-0.15000010E+00  0.17198E+05
-0.10000014E+00  0.24051E+05
-0.50000072E-01  0.30394E+05
-0.11920929E-06  0.36068E+05
 0.49999952E-01  0.40265E+05
 0.99999905E-01  0.43436E+05
 0.14999986E+00  0.45608E+05
 0.19999981E+00  0.46614E+05
 0.24999976E+00  0.46675E+05
 0.29999995E+00  0.45205E+05
 0.34999990E+00  0.42658E+05
 0.39999986E+00  0.38961E+05
 0.44999981E+00  0.34143E+05
 0.49999976E+00  0.28066E+05
 0.54999995E+00  0.21317E+05
 0.59999990E+00  0.14298E+05
 0.64999986E+00  0.65869E+04
 0.69999981E+00 -0.10833E+04
 0.74999976E+00 -0.89419E+04
 0.79999971E+00 -0.16628E+05
 0.84999990E+00 -0.23891E+05
 0.89999986E+00 -0.30461E+05
 0.94999981E+00 -0.36176E+05
 0.99999976E+00 -0.40653E+05
 0.10499997E+01 -0.43561E+05
 0.10999999E+01 -0.45315E+05
 0.11499999E+01 -0.45906E+05
 0.11999998E+01 -0.46017E+05
 0.12499998E+01 -0.45583E+05
 0.12999997E+01 -0.44728E+05
 0.13499999E+01 -0.43629E+05
 0.13999999E+01 -0.41903E+05
 0.14499998E+01 -0.40058E+05
 0.14999998E+01 -0.37673E+05
 0.15499997E+01 -0.34856E+05
 0.15999999E+01 -0.31933E+05
 0.16499999E+01 -0.28658E+05
 0.16999998E+01 -0.25616E+05
 0.17499998E+01 -0.22443E+05
 0.17999997E+01 -0.19308E+05
 0.18499997E+01 -0.16108E+05
 0.18999999E+01 -0.12836E+05
 0.19499998E+01 -0.94447E+04
 0.19999998E+01 -0.58492E+04
 0.20499997E+01 -0.26481E+04
 0.20999999E+01  0.74844E+03
 0.21499996E+01  0.44648E+04
 0.21999998E+01  0.86937E+04
 0.22499995E+01  0.13306E+05
 0.22999997E+01  0.18154E+05
 0.23499999E+01  0.23067E+05
 0.23999996E+01  0.27630E+05
 0.24499998E+01  0.31956E+05
 0.24999995E+01  0.35786E+05
 0.25499997E+01  0.39114E+05
 0.25999999E+01  0.41854E+05
 0.26499996E+01  0.44205E+05
 0.26999998E+01  0.46242E+05
 0.27499995E+01  0.47793E+05
 0.27999997E+01  0.48318E+05
 0.28499999E+01  0.48195E+05
 0.28999996E+01  0.47667E+05
 0.29499998E+01  0.46439E+05
 0.29999995E+01  0.44593E+05
 0.30499997E+01  0.42202E+05
 0.30999999E+01  0.39530E+05
 0.31499996E+01  0.37028E+05
 0.31999998E+01  0.34574E+05
 0.32499995E+01  0.32045E+05
 0.32999997E+01  0.29141E+05
 0.33499999E+01  0.26152E+05
 0.33999996E+01  0.24288E+05
 0.34499998E+01  0.20673E+05
 0.34999995E+01  0.18907E+05
 0.35499997E+01  0.17523E+05
 0.35999994E+01  0.16615E+05
 0.36499996E+01  0.16876E+05
 0.36999998E+01  0.15623E+05
 0.37499995E+01  0.16038E+05
 0.37999997E+01  0.14606E+05
 0.38499994E+01  0.13746E+05
 0.38999996E+01  0.12252E+05
 0.39499998E+01  0.10683E+05
 0.39999995E+01  0.92527E+04
 0.40499997E+01  0.69679E+04
 0.40999994E+01  0.47229E+04
 0.41499996E+01  0.19062E+04
 0.41999998E+01  0.47038E+03
 0.42499995E+01 -0.14705E+04
 0.42999997E+01 -0.27172E+04
 0.43499994E+01 -0.42681E+04
 0.43999996E+01 -0.57137E+04
 0.44499998E+01 -0.72338E+04
 0.44999995E+01 -0.86587E+04
 0.45499997E+01 -0.10001E+05
 0.45999994E+01 -0.12142E+05
 0.46499996E+01 -0.14295E+05
 0.46999998E+01 -0.16455E+05
 0.47499995E+01 -0.18100E+05
 0.47999997E+01 -0.20019E+05
 0.48499994E+01 -0.21816E+05
 0.48999996E+01 -0.23548E+05
 0.49499998E+01 -0.24987E+05
 0.49999995E+01 -0.25827E+05
 0.50499997E+01 -0.26657E+05
 0.50999994E+01 -0.27603E+05
 0.51499996E+01 -0.28609E+05
 0.51999998E+01 -0.30234E+05
 0.52499995E+01 -0.32337E+05
 0.52999997E+01 -0.34553E+05
 0.53499994E+01 -0.37014E+05
 0.53999996E+01 -0.38787E+05
 0.54499993E+01 -0.39633E+05
 0.54999995E+01 -0.39886E+05
 0.55499997E+01 -0.39547E+05
 0.55999994E+01 -0.39196E+05
 0.56499996E+01 -0.39003E+05
 0.56999993E+01 -0.38104E+05
 0.57499995E+01 -0.36243E+05
 0.57999997E+01 -0.33866E+05
 0.58499994E+01 -0.30633E+05
 0.58999996E+01 -0.27373E+05
 0.59499993E+01 -0.24121E+05
 0.59999995E+01 -0.21116E+05
 0.60499992E+01 -0.18553E+05
 0.60999994E+01 -0.16279E+05
 0.61499996E+01 -0.13874E+05
 0.61999998E+01 -0.11595E+05
 0.62499990E+01 -0.10576E+05
 0.62999992E+01 -0.96935E+04
 0.63499994E+01 -0.90715E+04
 0.63999996E+01 -0.86053E+04
 0.64499998E+01 -0.80499E+04
 0.64999990E+01 -0.60111E+04
 0.65499992E+01 -0.55376E+04
 0.65999994E+01 -0.30677E+04
 0.66499996E+01 -0.31759E+04
 0.66999998E+01 -0.12917E+04
 0.67499990E+01 -0.26264E+04
 0.67999992E+01 -0.69888E+03
 0.68499994E+01 -0.47048E+03
 0.68999996E+01  0.76629E+03
 0.69499998E+01  0.20157E+04
 0.69999990E+01  0.46999E+04
 0.70499992E+01  0.34438E+04
 0.70999994E+01  0.23392E+04
 0.71499996E+01  0.75089E+04
 0.71999998E+01  0.29431E+04
 0.72499990E+01  0.90316E+05
 0.72999992E+01  0.25805E+06
 0.73499994E+01  0.35077E+06
 0.73999996E+01  0.40306E+06
 0.74499998E+01  0.45877E+06
 0.74999990E+01  0.36658E+06
 0.75499992E+01  0.32394E+06
 0.75999994E+01  0.37068E+06
 0.76499996E+01  0.39030E+06
 0.76999998E+01  0.61584E+06
 0.77499990E+01  0.69823E+06
 0.77999992E+01  0.80168E+06
 0.78499994E+01  0.65786E+06
 0.78999996E+01  0.61262E+06
 0.79499998E+01  0.67425E+06
 0.79999990E+01  0.50102E+06
 0.80499992E+01  0.73709E+06
 0.80999994E+01  0.11887E+07
 0.81499996E+01  0.12380E+07
 0.81999998E+01  0.13294E+07
 0.82499990E+01  0.20089E+07
 0.82999992E+01  0.15864E+07
 0.83499994E+01  0.16962E+07
 0.83999996E+01  0.16408E+07
 0.84499998E+01  0.72292E+06
 0.84999990E+01  0.14166E+07
 0.85499992E+01  0.12450E+07
 0.85999994E+01 -0.26989E+06
 0.86499996E+01  0.91262E+06
 0.86999998E+01  0.44167E+06
 0.87499990E+01 -0.24629E+06
 0.87999992E+01  0.97075E+06
 0.88499994E+01 -0.78434E+06
 0.88999996E+01 -0.14649E+07
 0.89499998E+01  0.99762E+05
 0.89999990E+01  0.78079E+05
 0.90499992E+01 -0.37368E+06
 0.90999994E+01  0.47055E+06
 0.91499996E+01  0.14228E+07
 0.91999989E+01  0.13648E+07
 0.92499990E+01  0.95927E+06
 0.92999992E+01  0.18678E+07
 0.93499994E+01  0.17451E+07
 0.93999996E+01  0.85768E+06
 0.94499989E+01  0.11469E+07
 0.94999990E+01  0.27765E+07
 0.95499992E+01  0.15399E+07
 0.95999994E+01  0.63134E+06
 0.96499996E+01  0.38779E+06
 0.96999989E+01 -0.45754E+06
 0.97499990E+01 -0.47677E+06
 0.97999992E+01 -0.43569E+06
 0.98499994E+01  0.17372E+06
 0.98999996E+01 -0.78236E+06
 0.99499989E+01  0.18751E+06
 0.99999990E+01  0.96216E+06
 0.10049999E+02  0.72718E+06
 0.10099999E+02  0.20976E+07
 0.10150000E+02  0.40125E+06
 0.10199999E+02  0.14687E+07
 0.10249999E+02  0.18700E+07
 0.10299999E+02  0.10264E+07
 0.10349999E+02  0.26012E+07
 0.10400000E+02  0.74770E+06
 0.10449999E+02  0.14315E+07
 0.10499999E+02  0.15032E+07
 0.10549999E+02  0.16613E+06
 0.10599999E+02  0.17576E+06
 0.10650000E+02  0.27011E+05
 0.10699999E+02 -0.12483E+07
 0.10749999E+02 -0.18319E+07
 0.10799999E+02 -0.10945E+07
 0.10849999E+02 -0.16772E+06
 0.10900000E+02 -0.51959E+06
 0.10949999E+02 -0.17272E+07
 0.10999999E+02 -0.15964E+07
 0.11049999E+02 -0.11012E+07
 0.11099999E+02 -0.22325E+07
 0.11150000E+02 -0.11959E+07
 0.11199999E+02  0.10481E+06
 0.11249999E+02 -0.12135E+06
 0.11299999E+02  0.26518E+06
 0.11349999E+02  0.58035E+05
 0.11400000E+02  0.24136E+06
 0.11449999E+02  0.14537E+07
 0.11499999E+02  0.48610E+07
 0.11549999E+02  0.64549E+07
 0.11599999E+02  0.57637E+07
 0.11650000E+02  0.20265E+07
 0.11699999E+02 -0.33463E+07
 0.11749999E+02 -0.51393E+07
 0.11799999E+02 -0.31326E+07
 0.11849999E+02  0.16739E+07
 0.11900000E+02  0.46267E+07
 0.11949999E+02  0.48480E+07
 0.11999999E+02  0.45200E+07
 0.12049999E+02  0.56044E+06
 0.12099999E+02  0.33827E+06
 0.12150000E+02  0.31243E+07
 0.12199999E+02  0.59104E+07
 0.12249999E+02  0.65697E+07
 0.12299999E+02  0.62202E+07
 0.12349999E+02  0.64563E+07
 0.12400000E+02  0.42500E+07
 0.12449999E+02 -0.26899E+06
 0.12499999E+02 -0.21583E+07
 0.12549999E+02  0.33635E+07
 0.12599999E+02  0.61130E+07
 0.12649999E+02  0.65999E+07
 0.12699999E+02  0.63182E+07
 0.12749999E+02  0.66798E+07
 0.12799999E+02  0.60039E+07
 0.12849999E+02  0.70012E+07
 0.12899999E+02  0.22553E+07
 0.12949999E+02 -0.62884E+07
 0.12999999E+02 -0.62678E+07
 0.13049999E+02 -0.65585E+07
 0.13099999E+02 -0.63831E+07
 0.13149999E+02 -0.65090E+07
 0.13199999E+02 -0.64552E+07
 0.13249999E+02 -0.64054E+07
 0.13299999E+02 -0.64116E+07
 0.13349999E+02 -0.63346E+07
 0.13399999E+02 -0.64139E+07
 0.13449999E+02 -0.63093E+07
 0.13499999E+02 -0.64395E+07
 0.13549999E+02 -0.62247E+07
 0.13599999E+02 -0.65427E+07
 0.13649999E+02 -0.12221E+07
 0.13699999E+02  0.60743E+07
 0.13749999E+02  0.61706E+07
 0.13799999E+02  0.66696E+07
 0.13849999E+02  0.56004E+07
 0.13899999E+02  0.26014E+07
 0.13949999E+02  0.57833E+07
 0.13999999E+02  0.66267E+07
 0.14049999E+02  0.63369E+07
 0.14099998E+02  0.64119E+07
 0.14150000E+02  0.36916E+07
 0.14199999E+02 -0.14089E+07
 0.14249998E+02 -0.55542E+07
 0.14299999E+02 -0.59163E+07
 0.14349998E+02 -0.42504E+07
 0.14400000E+02 -0.38472E+07
 0.14449999E+02 -0.45107E+07
 0.14499998E+02 -0.45583E+07
 0.14549999E+02 -0.64211E+07
 0.14599998E+02 -0.38944E+07
 0.14650000E+02 -0.23380E+07
 0.14699999E+02 -0.21332E+07
 0.14749998E+02 -0.31189E+07
 0.14799999E+02 -0.64714E+07
 0.14849998E+02 -0.62619E+07
 0.14900000E+02 -0.64353E+07
 0.14949999E+02 -0.63037E+07
 0.14999998E+02 -0.63724E+07
 0.15049999E+02 -0.63329E+07
 0.15099998E+02 -0.63126E+07
 0.15150000E+02 -0.45237E+07
 0.15199999E+02  0.98608E+06
 0.15249998E+02  0.41163E+07
 0.15299999E+02  0.45554E+07
 0.15349998E+02  0.58450E+07
 0.15400000E+02  0.55019E+07
 0.15449999E+02  0.13084E+07
 0.15499998E+02 -0.21526E+07
 0.15549999E+02 -0.26099E+07
 0.15599998E+02 -0.31769E+07
 0.15650000E+02 -0.23413E+07
 0.15699999E+02 -0.29747E+07
 0.15749998E+02 -0.36626E+07
 0.15799999E+02 -0.20158E+07
 0.15849998E+02  0.14930E+05
 0.15900000E+02 -0.15011E+07
 0.15949999E+02 -0.60340E+07
 0.15999998E+02 -0.63637E+07
 0.16049999E+02 -0.63764E+07
 0.16099998E+02 -0.63317E+07
 0.16150000E+02 -0.64358E+07
 0.16199999E+02 -0.53600E+07
 0.16249998E+02 -0.19839E+07
 0.16299999E+02  0.82788E+06
 0.16349998E+02  0.46693E+07
 0.16400000E+02  0.65118E+07
 0.16449999E+02  0.62987E+07
 0.16499998E+02  0.64286E+07
 0.16549999E+02  0.63413E+07
 0.16599998E+02  0.63828E+07
 0.16650000E+02  0.63328E+07
 0.16699999E+02  0.63614E+07
 0.16749998E+02  0.63304E+07
 0.16799999E+02  0.63587E+07
 0.16849998E+02  0.63568E+07
 0.16900000E+02  0.63829E+07
 0.16949999E+02  0.64211E+07
 0.16999998E+02  0.63998E+07
 0.17049999E+02  0.62682E+07
 0.17099998E+02  0.41193E+07
 0.17150000E+02  0.29464E+07
 0.17199999E+02  0.32440E+07
 0.17249998E+02  0.26710E+07
 0.17299999E+02  0.28816E+07
 0.17349998E+02  0.46520E+07
 0.17400000E+02  0.62274E+07
 0.17449999E+02  0.63280E+07
 0.17499998E+02  0.63135E+07
 0.17549999E+02  0.63338E+07
 0.17599998E+02  0.58944E+07
 0.17650000E+02  0.52698E+07
 0.17699999E+02  0.41225E+07
 0.17749998E+02  0.29497E+07
 0.17799999E+02  0.61613E+06
 0.17849998E+02 -0.32309E+07
 0.17900000E+02 -0.58104E+07
 0.17949999E+02 -0.65006E+07
 0.17999998E+02 -0.64073E+07
 0.18049999E+02 -0.64068E+07
 0.18099998E+02 -0.64175E+07
 0.18150000E+02 -0.63236E+07
 0.18199999E+02 -0.64631E+07
 0.18249998E+02 -0.55379E+07
 0.18299999E+02 -0.38460E+07
 0.18349998E+02 -0.22523E+07
 0.18400000E+02 -0.27688E+06
 0.18449999E+02  0.17680E+07
 0.18499998E+02  0.33858E+07
 0.18549999E+02  0.45758E+07
 0.18599998E+02  0.59565E+07
 0.18650000E+02  0.64497E+07
 0.18699999E+02  0.63200E+07
 0.18749998E+02  0.64224E+07
 0.18799999E+02  0.63512E+07
 0.18849998E+02  0.64553E+07
 0.18900000E+02  0.60767E+07
 0.18949999E+02  0.36482E+07
 0.18999998E+02  0.13340E+07
 0.19049999E+02 -0.47816E+06
 0.19099998E+02 -0.20450E+07
 0.19150000E+02 -0.35951E+07
 0.19199999E+02 -0.45264E+07
 0.19249998E+02 -0.37949E+07
 0.19299999E+02 -0.38909E+07
 0.19349998E+02 -0.38001E+07
 0.19400000E+02 -0.38351E+07
 0.19449999E+02 -0.48851E+07
 0.19499998E+02 -0.48438E+07
 0.19549999E+02 -0.37316E+07
 0.19599998E+02 -0.31300E+07
 0.19650000E+02 -0.24055E+07
 0.19699999E+02 -0.15068E+07
 0.19749998E+02 -0.17907E+07
 0.19799999E+02 -0.30701E+07
 0.19849998E+02 -0.37016E+07
 0.19900000E+02 -0.36551E+07
 0.19949999E+02 -0.33068E+07
 0.19999998E+02 -0.28024E+07
 0.20049999E+02 -0.12294E+07
 0.20099998E+02  0.12868E+06
 0.20150000E+02 -0.46042E+03
 0.20199999E+02  0.10958E+07
 0.20249998E+02  0.18451E+07
 0.20299999E+02  0.24478E+07
 0.20349998E+02  0.32206E+07
 0.20399998E+02  0.26724E+07
 0.20449999E+02  0.12260E+07
 0.20499998E+02  0.19686E+06
 0.20549999E+02  0.84014E+05
 0.20599998E+02  0.61281E+05
 0.20649998E+02  0.51121E+04
 0.20699999E+02  0.49308E+06
 0.20749998E+02  0.16909E+07
 0.20799999E+02  0.28151E+07
 0.20849998E+02  0.36435E+07
 0.20899998E+02  0.33449E+07
 0.20949999E+02  0.27402E+07
 0.20999998E+02  0.27259E+07
 0.21049999E+02  0.28626E+07
 0.21099998E+02  0.23607E+07
 0.21149998E+02  0.85423E+06
 0.21199999E+02 -0.28259E+05
 0.21249998E+02  0.14712E+06
 0.21299999E+02 -0.91909E+05
 0.21349998E+02 -0.17450E+07
 0.21399998E+02 -0.31655E+07
 0.21449999E+02 -0.42022E+07
 0.21499998E+02 -0.58271E+07
 0.21549999E+02 -0.64152E+07
 0.21599998E+02 -0.63435E+07
 0.21649998E+02 -0.63731E+07
 0.21699999E+02 -0.56835E+07
 0.21749998E+02 -0.43526E+07
 0.21799999E+02 -0.34453E+07
 0.21849998E+02 -0.24886E+07
 0.21899998E+02 -0.81740E+06
 0.21949999E+02  0.61119E+06
 0.21999998E+02  0.10148E+07
 0.22049999E+02  0.40365E+06
 0.22099998E+02 -0.10448E+07
 0.22149998E+02 -0.20210E+07
 0.22199999E+02 -0.21330E+07
 0.22249998E+02 -0.16829E+07
 0.22299999E+02 -0.98433E+06
 0.22349998E+02 -0.79964E+06
 0.22399998E+02 -0.53105E+06
 0.22449999E+02  0.62490E+05
 0.22499998E+02  0.14363E+07
 0.22549999E+02  0.31551E+07
 0.22599998E+02  0.43949E+07
 0.22649998E+02  0.43988E+07
 0.22699999E+02  0.34991E+07
 0.22749998E+02  0.32799E+07
 0.22799999E+02  0.23312E+07
 0.22849998E+02  0.13351E+07
 0.22899998E+02  0.13641E+07
 0.22949999E+02  0.12314E+07
 0.22999998E+02  0.11175E+07
 0.23049999E+02  0.12184E+07
 0.23099998E+02  0.13830E+07
 0.23149998E+02  0.14040E+07
 0.23199999E+02  0.23761E+07
 0.23249998E+02  0.32186E+07
 0.23299999E+02  0.34986E+07
 0.23349998E+02  0.35651E+07
 0.23399998E+02  0.29618E+07
 0.23449999E+02  0.20276E+07
 0.23499998E+02  0.14366E+07
 0.23549999E+02  0.12005E+07
 0.23599998E+02  0.81047E+06
 0.23649998E+02  0.89875E+06
 0.23699999E+02  0.51133E+06
 0.23749998E+02  0.14226E+06
 0.23799999E+02 -0.49194E+06
 0.23849998E+02 -0.19653E+07
 0.23899998E+02 -0.31668E+07
 0.23949999E+02 -0.39921E+07
 0.23999998E+02 -0.43942E+07
 0.24049999E+02 -0.48928E+07
 0.24099998E+02 -0.50365E+07
 0.24149998E+02 -0.49637E+07
 0.24199999E+02 -0.54615E+07
 0.24249998E+02 -0.55933E+07
 0.24299999E+02 -0.50844E+07
 0.24349998E+02 -0.45699E+07
 0.24399998E+02 -0.37191E+07
 0.24449999E+02 -0.26134E+07
 0.24499998E+02 -0.14619E+07
 0.24549999E+02  0.10436E+06
 0.24599998E+02  0.11346E+07
 0.24649998E+02  0.19642E+07
 0.24699999E+02  0.23476E+07
 0.24749998E+02  0.25646E+07
 0.24799999E+02  0.34185E+07
 0.24849998E+02  0.36329E+07
 0.24899998E+02  0.35994E+07
 0.24949999E+02  0.32818E+07
 0.24999998E+02  0.24750E+07
 0.25049999E+02  0.18459E+07
 0.25099998E+02  0.94052E+06
 0.25149998E+02 -0.17525E+05
 0.25199999E+02 -0.47827E+06
 0.25249998E+02 -0.12947E+07
 0.25299999E+02 -0.21956E+07
 0.25349998E+02 -0.29872E+07
 0.25399998E+02 -0.34148E+07
 0.25449999E+02 -0.35152E+07
 0.25499998E+02 -0.36950E+07
 0.25549999E+02 -0.30737E+07
 0.25599998E+02 -0.20531E+07
 0.25649998E+02 -0.11890E+07
 0.25699999E+02 -0.26013E+06
 0.25749998E+02  0.61532E+06
 0.25799999E+02  0.14240E+07
 0.25849998E+02  0.18163E+07
 0.25899998E+02  0.18963E+07
 0.25949999E+02  0.15971E+07
 0.25999998E+02  0.90950E+06
 0.26049999E+02  0.77917E+06
 0.26099998E+02  0.28929E+06
 0.26149998E+02 -0.71841E+06
 0.26199999E+02 -0.16885E+07
 0.26249998E+02 -0.29712E+07
 0.26299999E+02 -0.38008E+07
 0.26349998E+02 -0.40793E+07
 0.26399998E+02 -0.42596E+07
 0.26449999E+02 -0.38922E+07
 0.26499998E+02 -0.35433E+07
 0.26549999E+02 -0.32769E+07
 0.26599998E+02 -0.25111E+07
 0.26649998E+02 -0.16453E+07
 0.26699999E+02 -0.12074E+07
 0.26749998E+02 -0.52499E+06
 0.26799999E+02  0.77864E+06
 0.26849998E+02  0.14048E+07
 0.26899998E+02  0.20740E+07
 0.26949999E+02  0.30123E+07
 0.26999998E+02  0.37930E+07
 0.27049997E+02  0.42670E+07
 0.27099998E+02  0.42820E+07
 0.27149998E+02  0.42029E+07
 0.27199999E+02  0.36477E+07
 0.27249998E+02  0.32441E+07
 0.27299997E+02  0.28774E+07
 0.27349998E+02  0.23081E+07
 0.27399998E+02  0.19143E+07
 0.27449999E+02  0.14030E+07
 0.27499998E+02  0.11499E+07
 0.27549997E+02  0.81557E+06
 0.27599998E+02  0.51832E+06
 0.27649998E+02  0.62796E+06
 0.27699999E+02  0.51973E+06
 0.27749998E+02  0.53745E+06
 0.27799997E+02  0.35549E+06
 0.27849998E+02  0.11350E+06
 0.27899998E+02  0.26880E+06
 0.27949999E+02  0.29851E+06
 0.27999998E+02  0.29240E+06
 0.28049997E+02  0.52168E+05
 0.28099998E+02 -0.15544E+06
 0.28149998E+02 -0.54220E+06
 0.28199999E+02 -0.10396E+07
 0.28249998E+02 -0.17075E+07
 0.28299997E+02 -0.24293E+07
 0.28349998E+02 -0.26316E+07
 0.28399998E+02 -0.30216E+07
 0.28449999E+02 -0.30971E+07
 0.28499998E+02 -0.27931E+07
 0.28549997E+02 -0.20232E+07
 0.28599998E+02 -0.10358E+07
 0.28649998E+02 -0.66212E+06
 0.28699999E+02 -0.37203E+06
 0.28749998E+02 -0.62934E+05
 0.28799997E+02  0.25302E+06
 0.28849998E+02  0.70852E+06
 0.28899998E+02  0.12173E+07
 0.28949999E+02  0.18556E+07
 0.28999998E+02  0.23618E+07
 0.29049997E+02  0.26539E+07
 0.29099998E+02  0.29472E+07
 0.29149998E+02  0.31442E+07
 0.29199999E+02  0.31430E+07
 0.29249998E+02  0.30710E+07
 0.29299997E+02  0.25579E+07
 0.29349998E+02  0.18472E+07
 0.29399998E+02  0.10429E+07
 0.29449999E+02  0.45904E+05
 0.29499998E+02 -0.67530E+06
 0.29549997E+02 -0.15066E+07
 0.29599998E+02 -0.24441E+07
 0.29649998E+02 -0.28551E+07
 0.29699999E+02 -0.28544E+07
 0.29749998E+02 -0.25494E+07
 0.29799997E+02 -0.18864E+07
 0.29849998E+02 -0.13153E+07
 0.29899998E+02 -0.10460E+07
 0.29949999E+02 -0.82586E+06
 0.29999998E+02 -0.60223E+06
 0.30049999E+02 -0.44330E+06
 0.30099998E+02 -0.42841E+06
 0.30149998E+02 -0.36304E+06
 0.30199997E+02 -0.16102E+06
 0.30249996E+02  0.15271E+06
 0.30299999E+02  0.72781E+06
 0.30349998E+02  0.93335E+06
 0.30399998E+02  0.99658E+06
 0.30449997E+02  0.13579E+07
 0.30499996E+02  0.17955E+07
 0.30549999E+02  0.22855E+07
 0.30599998E+02  0.25213E+07
 0.30649998E+02  0.25247E+07
 0.30699997E+02  0.23913E+07
 0.30749996E+02  0.21284E+07
 0.30799999E+02  0.16935E+07
 0.30849998E+02  0.10619E+07
 0.30899998E+02  0.51562E+06
 0.30949997E+02 -0.11498E+06
 0.30999996E+02 -0.13357E+07
 0.31049999E+02 -0.24423E+07
 0.31099998E+02 -0.31215E+07
 0.31149998E+02 -0.35956E+07
 0.31199997E+02 -0.39039E+07
 0.31249996E+02 -0.40542E+07
 0.31299999E+02 -0.38005E+07
 0.31349998E+02 -0.33300E+07
 0.31399998E+02 -0.27320E+07
 0.31449997E+02 -0.20446E+07
 0.31499996E+02 -0.95836E+06
 0.31549999E+02  0.11492E+06
 0.31599998E+02  0.69341E+06
 0.31649998E+02  0.12187E+07
 0.31699997E+02  0.16556E+07
 0.31749996E+02  0.20365E+07
 0.31799999E+02  0.24610E+07
 0.31849998E+02  0.27087E+07
 0.31899998E+02  0.27264E+07
 0.31949997E+02  0.25634E+07
 0.31999996E+02  0.21416E+07
 0.32049999E+02  0.16849E+07
 0.32099998E+02  0.13311E+07
 0.32149998E+02  0.10474E+07
 0.32199997E+02  0.10644E+07
 0.32249996E+02  0.11230E+07
 0.32299999E+02  0.10823E+07
 0.32349998E+02  0.87224E+06
 0.32399998E+02  0.33648E+06
 0.32449997E+02 -0.18704E+06
 0.32499996E+02 -0.58947E+06
 0.32549999E+02 -0.98044E+06
 0.32599998E+02 -0.10459E+07
 0.32649998E+02 -0.11265E+07
 0.32699997E+02 -0.14606E+07
 0.32749996E+02 -0.17762E+07
 0.32799999E+02 -0.19972E+07
 0.32849998E+02 -0.20309E+07
 0.32899998E+02 -0.19930E+07
 0.32949997E+02 -0.20225E+07
 0.32999996E+02 -0.17913E+07
 0.33049999E+02 -0.12200E+07
 0.33099998E+02 -0.90905E+06
 0.33149998E+02 -0.82211E+06
 0.33199997E+02 -0.66740E+06
 0.33249996E+02 -0.58998E+06
 0.33299999E+02 -0.30241E+06
 0.33349998E+02  0.20700E+06
 0.33399998E+02  0.52758E+06
 0.33449997E+02  0.63466E+06
 0.33499996E+02  0.52248E+06
 0.33549999E+02  0.54662E+06
 0.33599998E+02  0.58945E+06
 0.33649998E+02  0.48789E+06
 0.33699997E+02  0.48854E+06
 0.33749996E+02  0.63671E+06
 0.33799999E+02  0.88313E+06
 0.33849998E+02  0.82807E+06
 0.33899998E+02  0.63910E+06
 0.33949997E+02  0.77941E+06
 0.33999996E+02  0.98257E+06
 0.34049999E+02  0.10707E+07
 0.34099998E+02  0.10380E+07
 0.34149998E+02  0.78439E+06
 0.34199997E+02  0.53739E+06
 0.34249996E+02  0.38479E+06
 0.34299999E+02  0.18249E+06
 0.34349998E+02 -0.10943E+06
 0.34399998E+02 -0.33914E+05
 0.34449997E+02  0.17116E+06
 0.34499996E+02 -0.63693E+05
 0.34549999E+02 -0.32452E+06
 0.34599998E+02 -0.63241E+06
 0.34649998E+02 -0.75054E+06
 0.34699997E+02 -0.61483E+06
 0.34749996E+02 -0.69703E+06
 0.34799999E+02 -0.60698E+06
 0.34849998E+02 -0.42716E+06
 0.34899998E+02 -0.23066E+06
 0.34949997E+02  0.15538E+06
 0.34999996E+02  0.38889E+06
 0.35049999E+02  0.31291E+06
 0.35099998E+02 -0.38275E+05
 0.35149998E+02 -0.61203E+06
 0.35199997E+02 -0.10454E+07
 0.35249996E+02 -0.11434E+07
 0.35299999E+02 -0.14383E+07
 0.35349998E+02 -0.17321E+07
 0.35399998E+02 -0.16247E+07
 0.35449997E+02 -0.15713E+07
 0.35499996E+02 -0.15402E+07
 0.35549999E+02 -0.12336E+07
 0.35599998E+02 -0.73731E+06
 0.35649998E+02 -0.37590E+06
 0.35699997E+02 -0.40082E+05
 0.35749996E+02  0.42836E+06
 0.35799999E+02  0.73086E+06
 0.35849998E+02  0.10343E+07
 0.35899998E+02  0.13056E+07
 0.35949997E+02  0.16578E+07
 0.35999996E+02  0.20292E+07
 0.36049999E+02  0.20670E+07
 0.36099998E+02  0.20478E+07
 0.36149998E+02  0.21015E+07
 0.36199997E+02  0.20759E+07
 0.36249996E+02  0.19842E+07
 0.36299999E+02  0.19818E+07
 0.36349998E+02  0.19886E+07
 0.36399998E+02  0.20482E+07
 0.36449997E+02  0.20872E+07
 0.36499996E+02  0.19145E+07
 0.36549999E+02  0.18274E+07
 0.36599998E+02  0.18167E+07
 0.36649998E+02  0.16442E+07
 0.36699997E+02  0.15181E+07
 0.36749996E+02  0.13843E+07
 0.36799999E+02  0.12809E+07
 0.36849998E+02  0.12351E+07
 0.36899998E+02  0.10942E+07
 0.36949997E+02  0.11492E+07
 0.36999996E+02  0.13167E+07
 0.37049999E+02  0.13964E+07
 0.37099998E+02  0.12279E+07
 0.37149998E+02  0.88275E+06
 0.37199997E+02  0.48912E+06
 0.37249996E+02  0.27570E+06
 0.37299999E+02  0.40640E+06
 0.37349998E+02  0.40082E+06
 0.37399998E+02  0.16089E+06
 0.37449997E+02 -0.18701E+06
 0.37499996E+02 -0.46706E+06
 0.37549999E+02 -0.72307E+06
 0.37599998E+02 -0.96571E+06
 0.37649998E+02 -0.97714E+06
 0.37699997E+02 -0.87910E+06
 0.37749996E+02 -0.62387E+06
 0.37799999E+02 -0.16821E+06
 0.37849998E+02  0.20889E+06
 0.37899998E+02  0.51268E+06
 0.37949997E+02  0.66323E+06
 0.37999996E+02  0.63036E+06
 0.38049999E+02  0.63287E+06
 0.38099998E+02  0.81186E+06
 0.38149998E+02  0.84861E+06
 0.38199997E+02  0.58825E+06
 0.38249996E+02  0.47871E+06
 0.38299999E+02  0.32703E+06
 0.38349998E+02 -0.64291E+05
 0.38399998E+02 -0.34023E+06
 0.38449997E+02 -0.59588E+06
 0.38499996E+02 -0.77028E+06
 0.38549999E+02 -0.66291E+06
 0.38599998E+02 -0.65050E+06
 0.38649998E+02 -0.74441E+06
 0.38699997E+02 -0.73739E+06
 0.38749996E+02 -0.71094E+06
 0.38799999E+02 -0.69581E+06
 0.38849998E+02 -0.61780E+06
 0.38899998E+02 -0.63949E+06
 0.38949997E+02 -0.56319E+06
 0.38999996E+02 -0.47689E+06
 0.39049999E+02 -0.41357E+06
 0.39099998E+02 -0.32476E+06
 0.39149998E+02 -0.30644E+06
 0.39199997E+02 -0.23892E+06
 0.39249996E+02 -0.11509E+06
 0.39299999E+02  0.58611E+05
 0.39349998E+02  0.48611E+05
 0.39399998E+02  0.63708E+05
 0.39449997E+02  0.31288E+06
 0.39499996E+02  0.67050E+06
 0.39549999E+02  0.84254E+06
 0.39599998E+02  0.85716E+06
 0.39649998E+02  0.85126E+06
 0.39699997E+02  0.74872E+06
 0.39749996E+02  0.59488E+06
 0.39799999E+02  0.36860E+06
 0.39849998E+02  0.11339E+06
 0.39899998E+02 -0.41019E+05
 0.39949997E+02 -0.16877E+06
 0.39999996E+02 -0.20744E+06
 0.40049999E+02 -0.17530E+06
 0.40099998E+02 -0.13356E+06
 0.40149998E+02  0.34384E+05
 0.40199997E+02  0.33892E+06
 0.40249996E+02  0.53664E+06
 0.40299999E+02  0.54021E+06
 0.40349998E+02  0.62672E+06
 0.40399998E+02  0.77193E+06
 0.40449997E+02  0.92744E+06
 0.40499996E+02  0.96328E+06
 0.40549999E+02  0.97463E+06
 0.40599998E+02  0.99085E+06
 0.40649998E+02  0.95841E+06
 0.40699997E+02  0.89085E+06
 0.40749996E+02  0.62783E+06
 0.40799999E+02  0.21940E+06
 0.40849998E+02 -0.18023E+06
 0.40899998E+02 -0.57545E+06
 0.40949997E+02 -0.97759E+06
 0.40999996E+02 -0.12391E+07
 0.41049999E+02 -0.14363E+07
 0.41099998E+02 -0.15842E+07
 0.41149998E+02 -0.17089E+07
 0.41199997E+02 -0.18106E+07
 0.41249996E+02 -0.17560E+07
 0.41299999E+02 -0.15686E+07
 0.41349998E+02 -0.13689E+07
 0.41399998E+02 -0.12426E+07
 0.41449997E+02 -0.11355E+07
 0.41499996E+02 -0.10169E+07
 0.41549999E+02 -0.89034E+06
 0.41599998E+02 -0.83200E+06
 0.41649998E+02 -0.75043E+06
 0.41699997E+02 -0.75631E+06
 0.41749996E+02 -0.82818E+06
 0.41799999E+02 -0.79280E+06
 0.41849998E+02 -0.69332E+06
 0.41899998E+02 -0.49063E+06
 0.41949997E+02 -0.38772E+06
 0.41999996E+02 -0.27347E+06
 0.42049999E+02 -0.21138E+06
 0.42099998E+02 -0.12767E+06
 0.42149998E+02  0.14341E+06
 0.42199997E+02  0.44520E+06
 0.42249996E+02  0.67138E+06
 0.42299999E+02  0.74465E+06
 0.42349998E+02  0.89156E+06
 0.42399998E+02  0.11400E+07
 0.42449997E+02  0.14779E+07
 0.42499996E+02  0.18017E+07
 0.42549999E+02  0.19537E+07
 0.42599998E+02  0.19429E+07
 0.42649998E+02  0.18597E+07
 0.42699997E+02  0.18664E+07
 0.42749996E+02  0.17478E+07
 0.42799995E+02  0.15082E+07
 0.42849998E+02  0.13266E+07
 0.42899998E+02  0.10395E+07
 0.42949997E+02  0.74011E+06
 0.42999996E+02  0.43741E+06
 0.43049995E+02  0.10382E+06
 0.43099998E+02 -0.17365E+06
 0.43149998E+02 -0.36445E+06
 0.43199997E+02 -0.50475E+06
 0.43249996E+02 -0.72144E+06
 0.43299995E+02 -0.92139E+06
 0.43349998E+02 -0.10501E+07
 0.43399998E+02 -0.11411E+07
 0.43449997E+02 -0.11539E+07
 0.43499996E+02 -0.11012E+07
 0.43549995E+02 -0.10584E+07
 0.43599998E+02 -0.10896E+07
 0.43649998E+02 -0.11497E+07
 0.43699997E+02 -0.12066E+07
 0.43749996E+02 -0.11646E+07
 0.43799995E+02 -0.10902E+07
 0.43849998E+02 -0.11100E+07
 0.43899998E+02 -0.10114E+07
 0.43949997E+02 -0.85217E+06
 0.43999996E+02 -0.67688E+06
 0.44049995E+02 -0.46749E+06
 0.44099998E+02 -0.17804E+06
 0.44149998E+02  0.24917E+06
 0.44199997E+02  0.61800E+06
 0.44249996E+02  0.95917E+06
 0.44299995E+02  0.12095E+07
 0.44349998E+02  0.13478E+07
 0.44399998E+02  0.14243E+07
 0.44449997E+02  0.14368E+07
 0.44499996E+02  0.14662E+07
 0.44549995E+02  0.14777E+07
 0.44599998E+02  0.14236E+07
 0.44649998E+02  0.12490E+07
 0.44699997E+02  0.10501E+07
 0.44749996E+02  0.90107E+06
 0.44799995E+02  0.82551E+06
 0.44849998E+02  0.84685E+06
 0.44899998E+02  0.90965E+06
 0.44949997E+02  0.93805E+06
 0.44999996E+02  0.86058E+06
 0.45049995E+02  0.79730E+06
 0.45099998E+02  0.74474E+06
 0.45149998E+02  0.71671E+06
 0.45199997E+02  0.63737E+06
 0.45249996E+02  0.54424E+06
 0.45299995E+02  0.54217E+06
 0.45349998E+02  0.46806E+06
 0.45399998E+02  0.34759E+06
 0.45449997E+02  0.27112E+06
 0.45499996E+02  0.32636E+06
 0.45549995E+02  0.46563E+06
 0.45599998E+02  0.60691E+06
 0.45649998E+02  0.68146E+06
 0.45699997E+02  0.59217E+06
 0.45749996E+02  0.43946E+06
 0.45799995E+02  0.29220E+06
 0.45849998E+02  0.49131E+05
 0.45899998E+02 -0.10614E+06
 0.45949997E+02 -0.73136E+05
 0.45999996E+02 -0.62081E+05
 0.46049995E+02 -0.13058E+06
 0.46099998E+02 -0.14683E+06
 0.46149998E+02 -0.35399E+05
 0.46199997E+02  0.16854E+06
 0.46249996E+02  0.37241E+06
 0.46299995E+02  0.48219E+06
 0.46349998E+02  0.55499E+06
 0.46399998E+02  0.62430E+06
 0.46449997E+02  0.63174E+06
 0.46499996E+02  0.62097E+06
 0.46549995E+02  0.61025E+06
 0.46599998E+02  0.56932E+06
 0.46649998E+02  0.53204E+06
 0.46699997E+02  0.52055E+06
 0.46749996E+02  0.51466E+06
 0.46799995E+02  0.47010E+06
 0.46849998E+02  0.45023E+06
 0.46899998E+02  0.49308E+06
 0.46949997E+02  0.55748E+06
 0.46999996E+02  0.63583E+06
 0.47049995E+02  0.68407E+06
 0.47099998E+02  0.83637E+06
 0.47149998E+02  0.10358E+07
 0.47199997E+02  0.11375E+07
 0.47249996E+02  0.12190E+07
 0.47299995E+02  0.11807E+07
 0.47349998E+02  0.97039E+06
 0.47399998E+02  0.64421E+06
 0.47449997E+02  0.31064E+06
 0.47499996E+02 -0.67924E+05
 0.47549995E+02 -0.39666E+06
 0.47599998E+02 -0.63790E+06
 0.47649998E+02 -0.91053E+06
 0.47699997E+02 -0.11526E+07
 0.47749996E+02 -0.13959E+07
 0.47799995E+02 -0.15808E+07
 0.47849998E+02 -0.16300E+07
 0.47899998E+02 -0.15766E+07
 0.47949997E+02 -0.15200E+07
 0.47999996E+02 -0.15300E+07
 0.48049995E+02 -0.14789E+07
 0.48099998E+02 -0.13823E+07
 0.48149998E+02 -0.12876E+07
 0.48199997E+02 -0.11381E+07
 0.48249996E+02 -0.88139E+06
 0.48299995E+02 -0.49178E+06
 0.48349998E+02 -0.13126E+06
 0.48399998E+02  0.11413E+06
 0.48449997E+02  0.27096E+06
 0.48499996E+02  0.36387E+06
 0.48549995E+02  0.36997E+06
 0.48599998E+02  0.33840E+06
 0.48649998E+02  0.33519E+06
 0.48699997E+02  0.37102E+06
 0.48749996E+02  0.38650E+06
 0.48799995E+02  0.38453E+06
 0.48849998E+02  0.41195E+06
 0.48899998E+02  0.42468E+06
 0.48949997E+02  0.44759E+06
 0.48999996E+02  0.44763E+06
 0.49049995E+02  0.44763E+06
 0.49099998E+02  0.50104E+06
 0.49149998E+02  0.51320E+06
 0.49199997E+02  0.40814E+06
 0.49249996E+02  0.24799E+06
 0.49299995E+02  0.21713E+06
 0.49349998E+02  0.25401E+06
 0.49399998E+02  0.20499E+06
 0.49449997E+02  0.21726E+06
 0.49499996E+02  0.28201E+06
 0.49549995E+02  0.33451E+06
 0.49599998E+02  0.42675E+06
 0.49649998E+02  0.53443E+06
 0.49699997E+02  0.55650E+06
 0.49749996E+02  0.45203E+06
 0.49799995E+02  0.33146E+06
 0.49849998E+02  0.24246E+06
 0.49899998E+02  0.12464E+06
 0.49949997E+02 -0.25383E+04
 0.49999996E+02 -0.15116E+06
 0.50049995E+02 -0.39087E+06
 0.50099998E+02 -0.61175E+06
 0.50149998E+02 -0.80208E+06
 0.50199997E+02 -0.95734E+06
 0.50249996E+02 -0.10808E+07
 0.50299995E+02 -0.11480E+07
 0.50349998E+02 -0.11478E+07
 0.50399998E+02 -0.11299E+07
 0.50449997E+02 -0.10238E+07
 0.50499996E+02 -0.92232E+06
 0.50549995E+02 -0.86476E+06
 0.50599998E+02 -0.85661E+06
 0.50649998E+02 -0.87854E+06
 0.50699997E+02 -0.83468E+06
 0.50749996E+02 -0.66986E+06
 0.50799995E+02 -0.41619E+06
 0.50849998E+02 -0.11584E+06
 0.50899998E+02  0.14844E+06
 0.50949997E+02  0.30760E+06
 0.50999996E+02  0.41827E+06
 0.51049995E+02  0.49795E+06
 0.51099998E+02  0.55961E+06
 0.51149998E+02  0.60962E+06
 0.51199997E+02  0.62399E+06
 0.51249996E+02  0.60758E+06
 0.51299995E+02  0.60489E+06
 0.51349998E+02  0.56273E+06
 0.51399998E+02  0.47593E+06
 0.51449997E+02  0.42388E+06
 0.51499996E+02  0.37258E+06
 0.51549995E+02  0.33116E+06
 0.51599998E+02  0.35244E+06
 0.51649998E+02  0.36435E+06
 0.51699997E+02  0.42002E+06
 0.51749996E+02  0.50963E+06
 0.51799995E+02  0.55479E+06
 0.51849998E+02  0.55642E+06
 0.51899998E+02  0.52409E+06
 0.51949997E+02  0.57592E+06
 0.51999996E+02  0.62606E+06
 0.52049995E+02  0.61639E+06
 0.52099998E+02  0.60669E+06
 0.52149998E+02  0.59163E+06
 0.52199997E+02  0.54505E+06
 0.52249996E+02  0.47742E+06
 0.52299995E+02  0.45562E+06
 0.52349998E+02  0.46066E+06
 0.52399998E+02  0.46283E+06
 0.52449997E+02  0.47606E+06
 0.52499996E+02  0.50318E+06
 0.52549995E+02  0.52178E+06
 0.52599998E+02  0.57145E+06
 0.52649998E+02  0.67067E+06
 0.52699997E+02  0.71788E+06
 0.52749996E+02  0.64356E+06
 0.52799995E+02  0.51734E+06
 0.52849998E+02  0.34379E+06
 0.52899998E+02  0.15455E+06
 0.52949997E+02  0.15699E+04
 0.52999996E+02 -0.15999E+06
 0.53049995E+02 -0.35646E+06
 0.53099998E+02 -0.50867E+06
 0.53149998E+02 -0.58773E+06
 0.53199997E+02 -0.62415E+06
 0.53249996E+02 -0.63770E+06
 0.53299995E+02 -0.67506E+06
 0.53349998E+02 -0.70302E+06
 0.53399998E+02 -0.65775E+06
 0.53449997E+02 -0.55752E+06
 0.53499996E+02 -0.44974E+06
 0.53549995E+02 -0.33822E+06
 0.53599998E+02 -0.29244E+06
 0.53649998E+02 -0.28671E+06
 0.53699997E+02 -0.29980E+06
 0.53749996E+02 -0.30698E+06
 0.53799995E+02 -0.22484E+06
 0.53849998E+02 -0.11944E+06
 0.53899998E+02 -0.82419E+05
 0.53949997E+02 -0.12095E+06
 0.53999996E+02 -0.12384E+06
 0.54049995E+02 -0.16514E+05
 0.54099998E+02  0.13582E+06
 0.54149998E+02  0.21696E+06
 0.54199997E+02  0.24470E+06
 0.54249996E+02  0.26491E+06
 0.54299995E+02  0.25449E+06
 0.54349998E+02  0.19678E+06
 0.54399998E+02  0.57815E+05
 0.54449997E+02 -0.98762E+05
 0.54499996E+02 -0.22159E+06
 0.54549995E+02 -0.25364E+06
 0.54599998E+02 -0.25270E+06
 0.54649998E+02 -0.28720E+06
 0.54699997E+02 -0.32151E+06
 0.54749996E+02 -0.35384E+06
 0.54799995E+02 -0.36554E+06
 0.54849998E+02 -0.33040E+06
 0.54899998E+02 -0.23579E+06
 0.54949997E+02 -0.13117E+06
 0.54999996E+02  0.22633E+05
 0.55049995E+02  0.20020E+06
 0.55099998E+02  0.34270E+06
 0.55149998E+02  0.45008E+06
 0.55199997E+02  0.49613E+06
 0.55249996E+02  0.52993E+06
 0.55299995E+02  0.57299E+06
 0.55349998E+02  0.63999E+06
 0.55399998E+02  0.73138E+06
 0.55449997E+02  0.81904E+06
 0.55499996E+02  0.90267E+06
 0.55549995E+02  0.90670E+06
 0.55599998E+02  0.80427E+06
 0.55649998E+02  0.63787E+06
 0.55699997E+02  0.41730E+06
 0.55749996E+02  0.21179E+06
 0.55799995E+02 -0.15836E+05
 0.55849995E+02 -0.28661E+06
 0.55899998E+02 -0.53101E+06
 0.55949997E+02 -0.70737E+06
 0.55999996E+02 -0.78926E+06
 0.56049995E+02 -0.77351E+06
 0.56099995E+02 -0.71828E+06
 0.56149998E+02 -0.65400E+06
 0.56199997E+02 -0.56666E+06
 0.56249996E+02 -0.49178E+06
 0.56299995E+02 -0.37505E+06
 0.56349995E+02 -0.22562E+06
 0.56399998E+02 -0.64058E+05
 0.56449997E+02  0.80975E+05
 0.56499996E+02  0.17439E+06
 0.56549995E+02  0.26857E+06
 0.56599995E+02  0.39533E+06
 0.56649998E+02  0.54965E+06
 0.56699997E+02  0.70148E+06
 0.56749996E+02  0.84773E+06
 0.56799995E+02  0.10170E+07
 0.56849995E+02  0.11962E+07
 0.56899998E+02  0.13548E+07
 0.56949997E+02  0.14985E+07
 0.56999996E+02  0.16220E+07
 0.57049995E+02  0.16828E+07
 0.57099995E+02  0.16207E+07
 0.57149998E+02  0.14616E+07
 0.57199997E+02  0.12805E+07
 0.57249996E+02  0.11366E+07
 0.57299995E+02  0.10110E+07
 0.57349995E+02  0.86033E+06
 0.57399998E+02  0.73025E+06
 0.57449997E+02  0.60381E+06
 0.57499996E+02  0.46761E+06
 0.57549995E+02  0.33860E+06
 0.57599995E+02  0.19290E+06
 0.57649998E+02  0.57469E+05
 0.57699997E+02 -0.82701E+05
 0.57749996E+02 -0.25480E+06
 0.57799995E+02 -0.44842E+06
 0.57849995E+02 -0.62624E+06
 0.57899998E+02 -0.75843E+06
 0.57949997E+02 -0.83134E+06
 0.57999996E+02 -0.84298E+06
 0.58049995E+02 -0.84468E+06
 0.58099995E+02 -0.84408E+06
 0.58149998E+02 -0.78285E+06
 0.58199997E+02 -0.64353E+06
 0.58249996E+02 -0.48374E+06
 0.58299995E+02 -0.31690E+06
 0.58349995E+02 -0.18903E+06
 0.58399998E+02 -0.13092E+06
 0.58449997E+02 -0.12493E+06
 0.58499996E+02 -0.12250E+06
 0.58549995E+02 -0.80224E+05
 0.58599995E+02 -0.51295E+04
 0.58649998E+02  0.11117E+06
 0.58699997E+02  0.25796E+06
 0.58749996E+02  0.41298E+06
 0.58799995E+02  0.53624E+06
 0.58849995E+02  0.64699E+06
 0.58899998E+02  0.75151E+06
 0.58949997E+02  0.83486E+06
 0.58999996E+02  0.88757E+06
 0.59049995E+02  0.90711E+06
 0.59099995E+02  0.90348E+06
 0.59149998E+02  0.82479E+06
 0.59199997E+02  0.67177E+06
 0.59249996E+02  0.45820E+06
 0.59299995E+02  0.20956E+06
 0.59349995E+02 -0.23390E+05
 0.59399998E+02 -0.21740E+06
 0.59449997E+02 -0.34270E+06
 0.59499996E+02 -0.42901E+06
 0.59549995E+02 -0.49133E+06
 0.59599995E+02 -0.53945E+06
 0.59649998E+02 -0.56337E+06
 0.59699997E+02 -0.57265E+06
 0.59749996E+02 -0.60606E+06
 0.59799995E+02 -0.65628E+06
 0.59849995E+02 -0.69070E+06
 0.59899998E+02 -0.70778E+06
 0.59949997E+02 -0.71540E+06
 0.59999996E+02 -0.72160E+06
 0.60049995E+02 -0.72861E+06
 0.60099995E+02 -0.73620E+06
 0.60149998E+02 -0.74633E+06
 0.60199997E+02 -0.70895E+06
 0.60249996E+02 -0.64760E+06
 0.60299995E+02 -0.54741E+06
 0.60349995E+02 -0.39363E+06
 0.60399998E+02 -0.21633E+06
 0.60449997E+02 -0.26998E+05
 0.60499996E+02  0.14835E+06
 0.60549995E+02  0.28413E+06
 0.60599995E+02  0.35512E+06
 0.60649998E+02  0.36952E+06
 0.60699997E+02  0.34492E+06
 0.60749996E+02  0.31556E+06
 0.60799995E+02  0.31394E+06
 0.60849995E+02  0.33418E+06
 0.60899998E+02  0.34270E+06
 0.60949997E+02  0.34776E+06
 0.60999996E+02  0.35132E+06
 0.61049995E+02  0.32716E+06
 0.61099995E+02  0.27898E+06
 0.61149998E+02  0.21492E+06
 0.61199997E+02  0.14000E+06
 0.61249996E+02  0.94331E+05
 0.61299995E+02  0.68961E+05
 0.61349995E+02  0.17617E+05
 0.61399998E+02 -0.36171E+05
 0.61449997E+02 -0.82787E+05
 0.61499996E+02 -0.75492E+05
 0.61549995E+02  0.13010E+05
 0.61599995E+02  0.13844E+06
 0.61649998E+02  0.25853E+06
 0.61699997E+02  0.33239E+06
 0.61749996E+02  0.39786E+06
 0.61799995E+02  0.52715E+06
 0.61849995E+02  0.70475E+06
 0.61899998E+02  0.84795E+06
 0.61949997E+02  0.94112E+06
 0.61999996E+02  0.98737E+06
 0.62049995E+02  0.98517E+06
 0.62099998E+02  0.96694E+06
 0.62149994E+02  0.91596E+06
 0.62199997E+02  0.82732E+06
 0.62249992E+02  0.71244E+06
 0.62299995E+02  0.59286E+06
 0.62349998E+02  0.48761E+06
 0.62399994E+02  0.37813E+06
 0.62449997E+02  0.28571E+06
 0.62499992E+02  0.23001E+06
 0.62549995E+02  0.18168E+06
 0.62599998E+02  0.14717E+06
 0.62649994E+02  0.13277E+06
 0.62699997E+02  0.88548E+05
 0.62749992E+02  0.15555E+04
 0.62799995E+02 -0.67478E+05
 0.62849998E+02 -0.12978E+06
 0.62899994E+02 -0.20150E+06
 0.62949997E+02 -0.25408E+06
 0.62999992E+02 -0.30969E+06
 0.63049995E+02 -0.35384E+06
 0.63099998E+02 -0.38606E+06
 0.63149994E+02 -0.41078E+06
 0.63199997E+02 -0.44026E+06
 0.63249992E+02 -0.48533E+06
 0.63299995E+02 -0.51835E+06
 0.63349998E+02 -0.55310E+06
 0.63399994E+02 -0.59817E+06
 0.63449997E+02 -0.60878E+06
 0.63499992E+02 -0.55874E+06
 0.63549995E+02 -0.46624E+06
 0.63599998E+02 -0.36598E+06
 0.63649994E+02 -0.30103E+06
 0.63699997E+02 -0.25828E+06
 0.63749992E+02 -0.20252E+06
 0.63799995E+02 -0.14544E+06
 0.63849998E+02 -0.10421E+06
 0.63899994E+02 -0.69019E+05
 0.63949997E+02 -0.19795E+05
 0.63999992E+02  0.69864E+05
 0.64049995E+02  0.18625E+06
 0.64099998E+02  0.29199E+06
 0.64149994E+02  0.35668E+06
 0.64199997E+02  0.37653E+06
 0.64249992E+02  0.36668E+06
 0.64299995E+02  0.32353E+06
 0.64349998E+02  0.27504E+06
 0.64399994E+02  0.22274E+06
 0.64449997E+02  0.14700E+06
 0.64499992E+02  0.32876E+05
 0.64549995E+02 -0.14361E+06
 0.64599998E+02 -0.34636E+06
 0.64649994E+02 -0.54228E+06
 0.64699997E+02 -0.72460E+06
 0.64749992E+02 -0.86147E+06
 0.64799995E+02 -0.95771E+06
 0.64849998E+02 -0.10468E+07
 0.64899994E+02 -0.11278E+07
 0.64949997E+02 -0.11756E+07
 0.64999992E+02 -0.11733E+07
 0.65049995E+02 -0.11079E+07
 0.65099998E+02 -0.99372E+06
 0.65149994E+02 -0.88107E+06
 0.65199997E+02 -0.80232E+06
 0.65249992E+02 -0.71535E+06
 0.65299995E+02 -0.61277E+06
 0.65349998E+02 -0.51298E+06
 0.65399994E+02 -0.40672E+06
 0.65449997E+02 -0.31304E+06
 0.65499992E+02 -0.23709E+06
 0.65549995E+02 -0.18297E+06
 0.65599998E+02 -0.14116E+06
 0.65649994E+02 -0.10550E+06
 0.65699997E+02 -0.88937E+05
 0.65749992E+02 -0.86221E+05
 0.65799995E+02 -0.77084E+05
 0.65849998E+02 -0.63222E+05
 0.65899994E+02 -0.69899E+05
 0.65949997E+02 -0.84769E+05
 0.65999992E+02 -0.59361E+05
 0.66049995E+02  0.39626E+03
 0.66099998E+02  0.64091E+05
 0.66149994E+02  0.13014E+06
 0.66199997E+02  0.19888E+06
 0.66249992E+02  0.27758E+06
 0.66299995E+02  0.38702E+06
 0.66349998E+02  0.53391E+06
 0.66399994E+02  0.69390E+06
 0.66449997E+02  0.83962E+06
 0.66499992E+02  0.97461E+06
 0.66549995E+02  0.11123E+07
 0.66599998E+02  0.12171E+07
 0.66649994E+02  0.12563E+07
 0.66699997E+02  0.12674E+07
 0.66749992E+02  0.12655E+07
 0.66799995E+02  0.12316E+07
 0.66849998E+02  0.11748E+07
 0.66899994E+02  0.11126E+07
 0.66949997E+02  0.10715E+07
 0.66999992E+02  0.10549E+07
 0.67049995E+02  0.10251E+07
 0.67099998E+02  0.95140E+06
 0.67149994E+02  0.86420E+06
 0.67199997E+02  0.79302E+06
 0.67249992E+02  0.72844E+06
 0.67299995E+02  0.64352E+06
 0.67349998E+02  0.50686E+06
 0.67399994E+02  0.37293E+06
 0.67449997E+02  0.26431E+06
 0.67499992E+02  0.17022E+06
 0.67549995E+02  0.90893E+05
 0.67599998E+02 -0.43710E+04
 0.67649994E+02 -0.10307E+06
 0.67699997E+02 -0.19040E+06
 0.67749992E+02 -0.25836E+06
 0.67799995E+02 -0.31977E+06
 0.67849998E+02 -0.37036E+06
 0.67899994E+02 -0.40025E+06
 0.67949997E+02 -0.42050E+06
 0.67999992E+02 -0.42809E+06
 0.68049995E+02 -0.43421E+06
 0.68099998E+02 -0.42727E+06
 0.68149994E+02 -0.39580E+06
 0.68199997E+02 -0.34748E+06
 0.68249992E+02 -0.28777E+06
 0.68299995E+02 -0.20668E+06
 0.68349998E+02 -0.98193E+05
 0.68399994E+02  0.14750E+05
 0.68449997E+02  0.11393E+06
 0.68499992E+02  0.16742E+06
 0.68549995E+02  0.15290E+06
 0.68599998E+02  0.74963E+05
 0.68649994E+02 -0.35057E+05
 0.68699997E+02 -0.13329E+06
 0.68749992E+02 -0.19901E+06
 0.68799995E+02 -0.22774E+06
 0.68849998E+02 -0.20870E+06
 0.68899994E+02 -0.15235E+06
 0.68949997E+02 -0.95807E+05
 0.68999992E+02 -0.46147E+05
 0.69049995E+02  0.13564E+05
 0.69099998E+02  0.67586E+05
 0.69149994E+02  0.10367E+06
 0.69199997E+02  0.12990E+06
 0.69249992E+02  0.15333E+06
 0.69299995E+02  0.18101E+06
 0.69349998E+02  0.21337E+06
 0.69399994E+02  0.25354E+06
 0.69449997E+02  0.27316E+06
 0.69499992E+02  0.25386E+06
 0.69549995E+02  0.19483E+06
 0.69599998E+02  0.11042E+06
 0.69649994E+02  0.12914E+05
 0.69699997E+02 -0.10507E+06
 0.69749992E+02 -0.23541E+06
 0.69799995E+02 -0.36602E+06
 0.69849998E+02 -0.46128E+06
 0.69899994E+02 -0.52128E+06
 0.69949997E+02 -0.54828E+06
 0.69999992E+02 -0.55467E+06
 0.70049995E+02 -0.56446E+06
 0.70099998E+02 -0.55790E+06
 0.70149994E+02 -0.53867E+06
 0.70199997E+02 -0.51038E+06
 0.70249992E+02 -0.47302E+06
 0.70299995E+02 -0.41814E+06
 0.70349998E+02 -0.34163E+06
 0.70399994E+02 -0.25055E+06
 0.70449997E+02 -0.15218E+06
 0.70499992E+02 -0.68885E+05
 0.70549995E+02  0.84486E+03
 0.70599998E+02  0.72852E+05
 0.70649994E+02  0.14991E+06
 0.70699997E+02  0.23077E+06
 0.70749992E+02  0.28639E+06
 0.70799995E+02  0.30056E+06
 0.70849998E+02  0.28657E+06
 0.70899994E+02  0.24535E+06
 0.70949997E+02  0.20707E+06
 0.70999992E+02  0.19679E+06
 0.71049995E+02  0.18647E+06
 0.71099998E+02  0.15332E+06
 0.71149994E+02  0.96731E+05
 0.71199997E+02  0.38306E+05
 0.71249992E+02  0.11772E+05
 0.71299995E+02  0.32056E+05
 0.71349998E+02  0.77060E+05
 0.71399994E+02  0.12771E+06
 0.71449997E+02  0.17911E+06
 0.71499992E+02  0.22374E+06
 0.71549995E+02  0.24757E+06
 0.71599998E+02  0.25423E+06
 0.71649994E+02  0.24374E+06
 0.71699997E+02  0.20783E+06
 0.71749992E+02  0.15390E+06
 0.71799995E+02  0.88579E+05
 0.71849998E+02  0.32925E+05
 0.71899994E+02 -0.90067E+04
 0.71949997E+02 -0.38040E+05
 0.71999992E+02 -0.50033E+05
 0.72049995E+02 -0.39602E+05
 0.72099998E+02 -0.15041E+05
 0.72149994E+02  0.30552E+05
 0.72199997E+02  0.10418E+06
 0.72249992E+02  0.18034E+06
 0.72299995E+02  0.23723E+06
 0.72349998E+02  0.26839E+06
 0.72399994E+02  0.29149E+06
 0.72449997E+02  0.30631E+06
 0.72499992E+02  0.30356E+06
 0.72549995E+02  0.28266E+06
 0.72599998E+02  0.26351E+06
 0.72649994E+02  0.25387E+06
 0.72699997E+02  0.23660E+06
 0.72749992E+02  0.20325E+06
 0.72799995E+02  0.16531E+06
 0.72849998E+02  0.14997E+06
 0.72899994E+02  0.15769E+06
 0.72949997E+02  0.16416E+06
 0.72999992E+02  0.16419E+06
 0.73049995E+02  0.17593E+06
 0.73099998E+02  0.18696E+06
 0.73149994E+02  0.18482E+06
 0.73199997E+02  0.17606E+06
 0.73249992E+02  0.18878E+06
 0.73299995E+02  0.23161E+06
 0.73349998E+02  0.30324E+06
 0.73399994E+02  0.38848E+06
 0.73449997E+02  0.45151E+06
 0.73499992E+02  0.48937E+06
 0.73549995E+02  0.50494E+06
 0.73599998E+02  0.51634E+06
 0.73649994E+02  0.52745E+06
 0.73699997E+02  0.52458E+06
 0.73749992E+02  0.49937E+06
 0.73799995E+02  0.46136E+06
 0.73849998E+02  0.42432E+06
 0.73899994E+02  0.40237E+06
 0.73949997E+02  0.39982E+06
 0.73999992E+02  0.39955E+06
 0.74049995E+02  0.39374E+06
 0.74099998E+02  0.38959E+06
 0.74149994E+02  0.38375E+06
 0.74199997E+02  0.37384E+06
 0.74249992E+02  0.35395E+06
 0.74299995E+02  0.31461E+06
 0.74349998E+02  0.25834E+06
 0.74399994E+02  0.17651E+06
 0.74449997E+02  0.83274E+05
 0.74499992E+02 -0.39605E+04
 0.74549995E+02 -0.79781E+05
 0.74599998E+02 -0.14260E+06
 0.74649994E+02 -0.19959E+06
 0.74699997E+02 -0.24299E+06
 0.74749992E+02 -0.26473E+06
 0.74799995E+02 -0.27540E+06
 0.74849998E+02 -0.29068E+06
 0.74899994E+02 -0.31583E+06
 0.74949997E+02 -0.35591E+06
 0.74999992E+02 -0.40324E+06
 0.75049995E+02 -0.44107E+06
 0.75099998E+02 -0.46940E+06
 0.75149994E+02 -0.48674E+06
 0.75199997E+02 -0.47548E+06
 0.75249992E+02 -0.44160E+06
 0.75299995E+02 -0.39658E+06
 0.75349998E+02 -0.34681E+06
 0.75399994E+02 -0.30106E+06
 0.75449997E+02 -0.25718E+06
 0.75499992E+02 -0.21818E+06
 0.75549995E+02 -0.18495E+06
 0.75599998E+02 -0.16924E+06
 0.75649994E+02 -0.17284E+06
 0.75699997E+02 -0.18199E+06
 0.75749992E+02 -0.18224E+06
 0.75799995E+02 -0.17622E+06
 0.75849998E+02 -0.17897E+06
 0.75899994E+02 -0.20670E+06
 0.75949997E+02 -0.25132E+06
 0.75999992E+02 -0.29471E+06
 0.76049995E+02 -0.34189E+06
 0.76099998E+02 -0.39672E+06
 0.76149994E+02 -0.45160E+06
 0.76199997E+02 -0.49988E+06
 0.76249992E+02 -0.53479E+06
 0.76299995E+02 -0.53608E+06
 0.76349998E+02 -0.51312E+06
 0.76399994E+02 -0.46871E+06
 0.76449997E+02 -0.39648E+06
 0.76499992E+02 -0.30749E+06
 0.76549995E+02 -0.21134E+06
 0.76599998E+02 -0.11891E+06
 0.76649994E+02 -0.37213E+05
 0.76699997E+02  0.40989E+05
 0.76749992E+02  0.11946E+06
 0.76799995E+02  0.19189E+06
 0.76849998E+02  0.26439E+06
 0.76899994E+02  0.33645E+06
 0.76949997E+02  0.39937E+06
 0.76999992E+02  0.44098E+06
 0.77049995E+02  0.45926E+06
 0.77099998E+02  0.45969E+06
 0.77149994E+02  0.45297E+06
 0.77199997E+02  0.43788E+06
 0.77249992E+02  0.40543E+06
 0.77299995E+02  0.35841E+06
 0.77349998E+02  0.30863E+06
 0.77399994E+02  0.27912E+06
 0.77449997E+02  0.26008E+06
 0.77499992E+02  0.24553E+06
 0.77549995E+02  0.23841E+06
 0.77599998E+02  0.23443E+06
 0.77649994E+02  0.23848E+06
 0.77699997E+02  0.25052E+06
 0.77749992E+02  0.26933E+06
 0.77799995E+02  0.28608E+06
 0.77849998E+02  0.31202E+06
 0.77899994E+02  0.33940E+06
 0.77949997E+02  0.34977E+06
 0.77999992E+02  0.35267E+06
 0.78049995E+02  0.35103E+06
 0.78099998E+02  0.34948E+06
 0.78149994E+02  0.35550E+06
 0.78199997E+02  0.36663E+06
 0.78249992E+02  0.37933E+06
 0.78299995E+02  0.39191E+06
 0.78349998E+02  0.40538E+06
 0.78399994E+02  0.42053E+06
 0.78449997E+02  0.43395E+06
 0.78499992E+02  0.45428E+06
 0.78549995E+02  0.47457E+06
 0.78599998E+02  0.48497E+06
 0.78649994E+02  0.47833E+06
 0.78699997E+02  0.44127E+06
 0.78749992E+02  0.37807E+06
 0.78799995E+02  0.30405E+06
 0.78849998E+02  0.22807E+06
 0.78899994E+02  0.14272E+06
 0.78949997E+02  0.46167E+05
 0.78999992E+02 -0.60396E+05
 0.79049995E+02 -0.17269E+06
 0.79099998E+02 -0.27573E+06
 0.79149994E+02 -0.36500E+06
 0.79199997E+02 -0.43453E+06
 0.79249992E+02 -0.48045E+06
 0.79299995E+02 -0.50578E+06
 0.79349998E+02 -0.51371E+06
 0.79399994E+02 -0.51982E+06
 0.79449997E+02 -0.52583E+06
 0.79499992E+02 -0.53643E+06
 0.79549995E+02 -0.54697E+06
 0.79599998E+02 -0.55492E+06
 0.79649994E+02 -0.56938E+06
 0.79699997E+02 -0.58940E+06
 0.79749992E+02 -0.60113E+06
 0.79799995E+02 -0.57860E+06
 0.79849998E+02 -0.53119E+06
 0.79899994E+02 -0.47509E+06
 0.79949997E+02 -0.42252E+06
 0.79999992E+02 -0.37169E+06
 0.80049995E+02 -0.32074E+06
 0.80099998E+02 -0.28312E+06
 0.80149994E+02 -0.26443E+06
 0.80199997E+02 -0.24751E+06
 0.80249992E+02 -0.21906E+06
 0.80299995E+02 -0.19543E+06
 0.80349998E+02 -0.18500E+06
 0.80399994E+02 -0.19098E+06
 0.80449997E+02 -0.20327E+06
 0.80499992E+02 -0.21200E+06
 0.80549995E+02 -0.22112E+06
 0.80599998E+02 -0.24260E+06
 0.80649994E+02 -0.26704E+06
 0.80699997E+02 -0.27629E+06
 0.80749992E+02 -0.27652E+06
 0.80799995E+02 -0.26741E+06
 0.80849998E+02 -0.24775E+06
 0.80899994E+02 -0.23308E+06
 0.80949997E+02 -0.22227E+06
 0.80999992E+02 -0.20688E+06
 0.81049995E+02 -0.19832E+06
 0.81099998E+02 -0.19856E+06
 0.81149994E+02 -0.19455E+06
 0.81199997E+02 -0.18098E+06
 0.81249992E+02 -0.17176E+06
 0.81299995E+02 -0.16723E+06
 0.81349998E+02 -0.16032E+06
 0.81399994E+02 -0.15487E+06
 0.81449997E+02 -0.15410E+06
 0.81499992E+02 -0.15833E+06
 0.81549995E+02 -0.16011E+06
 0.81599998E+02 -0.15827E+06
 0.81649994E+02 -0.15757E+06
 0.81699997E+02 -0.16280E+06
 0.81749992E+02 -0.16747E+06
 0.81799995E+02 -0.15622E+06
 0.81849998E+02 -0.13020E+06
 0.81899994E+02 -0.10619E+06
 0.81949997E+02 -0.97117E+05
 0.81999992E+02 -0.10176E+06
 0.82049995E+02 -0.12459E+06
 0.82099998E+02 -0.16128E+06
 0.82149994E+02 -0.19994E+06
 0.82199997E+02 -0.22493E+06
 0.82249992E+02 -0.22119E+06
 0.82299995E+02 -0.18736E+06
 0.82349998E+02 -0.12959E+06
 0.82399994E+02 -0.50239E+05
 0.82449997E+02  0.53390E+05
 0.82499992E+02  0.15575E+06
 0.82549995E+02  0.24475E+06
 0.82599998E+02  0.31565E+06
 0.82649994E+02  0.36004E+06
 0.82699997E+02  0.39570E+06
 0.82749992E+02  0.41935E+06
 0.82799995E+02  0.42573E+06
 0.82849998E+02  0.41884E+06
 0.82899994E+02  0.39291E+06
 0.82949997E+02  0.35521E+06
 0.82999992E+02  0.31497E+06
 0.83049995E+02  0.27382E+06
 0.83099998E+02  0.22648E+06
 0.83149994E+02  0.16487E+06
 0.83199997E+02  0.97708E+05
 0.83249992E+02  0.39544E+05
 0.83299995E+02 -0.28063E+04
 0.83349998E+02 -0.20308E+05
 0.83399994E+02 -0.11111E+05
 0.83449997E+02  0.15773E+05
 0.83499992E+02  0.47597E+05
 0.83549995E+02  0.82183E+05
 0.83599998E+02  0.11856E+06
 0.83649994E+02  0.15348E+06
 0.83699997E+02  0.19480E+06
 0.83749992E+02  0.23944E+06
 0.83799995E+02  0.28001E+06
 0.83849998E+02  0.33365E+06
 0.83899994E+02  0.40028E+06
 0.83949997E+02  0.46054E+06
 0.83999992E+02  0.51447E+06
 0.84049995E+02  0.55831E+06
 0.84099998E+02  0.58060E+06
 0.84149994E+02  0.57504E+06
 0.84199997E+02  0.55012E+06
 0.84249992E+02  0.52086E+06
 0.84299995E+02  0.48600E+06
 0.84349998E+02  0.43827E+06
 0.84399994E+02  0.39359E+06
 0.84449997E+02  0.37113E+06
 0.84499992E+02  0.36447E+06
 0.84549995E+02  0.36585E+06
 0.84599998E+02  0.38000E+06
 0.84649994E+02  0.39382E+06
 0.84699997E+02  0.39592E+06
 0.84749992E+02  0.39028E+06
 0.84799995E+02  0.37216E+06
 0.84849998E+02  0.34892E+06
 0.84899994E+02  0.32965E+06
 0.84949997E+02  0.31331E+06
 0.84999992E+02  0.29997E+06
 0.85049995E+02  0.28243E+06
 0.85099998E+02  0.25053E+06
 0.85149994E+02  0.20795E+06
 0.85199997E+02  0.16245E+06
 0.85249992E+02  0.11885E+06
 0.85299995E+02  0.79046E+05
 0.85349998E+02  0.50746E+05
 0.85399994E+02  0.26938E+05
 0.85449997E+02 -0.12990E+05
 0.85499992E+02 -0.71590E+05
 0.85549995E+02 -0.14013E+06
 0.85599998E+02 -0.20644E+06
 0.85649994E+02 -0.27395E+06
 0.85699997E+02 -0.33783E+06
 0.85749992E+02 -0.37796E+06
 0.85799995E+02 -0.38990E+06
 0.85849998E+02 -0.37982E+06
 0.85899994E+02 -0.35310E+06
 0.85949997E+02 -0.31041E+06
 0.85999992E+02 -0.25550E+06
 0.86049995E+02 -0.20730E+06
 0.86099998E+02 -0.18026E+06
 0.86149994E+02 -0.17085E+06
 0.86199997E+02 -0.16043E+06
 0.86249992E+02 -0.14568E+06
 0.86299995E+02 -0.13680E+06
 0.86349998E+02 -0.12805E+06
 0.86399994E+02 -0.11850E+06
 0.86449997E+02 -0.10727E+06
 0.86499992E+02 -0.95875E+05
 0.86549995E+02 -0.85802E+05
 0.86599998E+02 -0.68271E+05
 0.86649994E+02 -0.45677E+05
 0.86699997E+02 -0.33357E+05
 0.86749992E+02 -0.31885E+05
 0.86799995E+02 -0.36418E+05
 0.86849998E+02 -0.37063E+05
 0.86899994E+02 -0.22103E+05
 0.86949997E+02 -0.54064E+03
 0.86999992E+02  0.15647E+05
 0.87049995E+02  0.19670E+05
 0.87099998E+02  0.16978E+05
 0.87149994E+02  0.80483E+04
 0.87199997E+02 -0.63449E+04
 0.87249992E+02 -0.14045E+05
 0.87299995E+02 -0.13526E+05
 0.87349998E+02 -0.91683E+04
 0.87399994E+02 -0.10779E+05
 0.87449997E+02 -0.25018E+05
 0.87499992E+02 -0.41329E+05
 0.87549995E+02 -0.51460E+05
 0.87599991E+02 -0.50326E+05
 0.87649994E+02 -0.37173E+05
 0.87699997E+02 -0.19453E+05
 0.87749992E+02  0.54253E+04
 0.87799995E+02  0.40464E+05
 0.87849991E+02  0.81621E+05
 0.87899994E+02  0.12620E+06
 0.87949997E+02  0.16848E+06
 0.87999992E+02  0.20354E+06
 0.88049995E+02  0.22604E+06
 0.88099991E+02  0.23242E+06
 0.88149994E+02  0.22471E+06
 0.88199997E+02  0.20483E+06
 0.88249992E+02  0.18297E+06
 0.88299995E+02  0.15528E+06
 0.88349991E+02  0.12000E+06
 0.88399994E+02  0.83596E+05
 0.88449997E+02  0.46375E+05
 0.88499992E+02  0.18635E+05
 0.88549995E+02 -0.42372E+04
 0.88599991E+02 -0.37806E+05
 0.88649994E+02 -0.82711E+05
 0.88699997E+02 -0.12432E+06
 0.88749992E+02 -0.15615E+06
 0.88799995E+02 -0.17953E+06
 0.88849991E+02 -0.19887E+06
 0.88899994E+02 -0.22398E+06
 0.88949997E+02 -0.25326E+06
 0.88999992E+02 -0.28270E+06
 0.89049995E+02 -0.31132E+06
 0.89099991E+02 -0.33615E+06
 0.89149994E+02 -0.35459E+06
 0.89199997E+02 -0.36548E+06
 0.89249992E+02 -0.37242E+06
 0.89299995E+02 -0.38073E+06
 0.89349991E+02 -0.38765E+06
 0.89399994E+02 -0.38352E+06
 0.89449997E+02 -0.36920E+06
 0.89499992E+02 -0.34148E+06
 0.89549995E+02 -0.30942E+06
 0.89599991E+02 -0.28471E+06
 0.89649994E+02 -0.25737E+06
 0.89699997E+02 -0.22935E+06
 0.89749992E+02 -0.20763E+06
 0.89799995E+02 -0.19614E+06
 0.89849991E+02 -0.18512E+06
 0.89899994E+02 -0.16865E+06
 0.89949997E+02 -0.14347E+06
 0.89999992E+02 -0.10378E+06
 0.90049995E+02 -0.63886E+05
 0.90099991E+02 -0.34195E+05
 0.90149994E+02 -0.13787E+05
 0.90199997E+02  0.30763E+04
 0.90249992E+02  0.16691E+05
 0.90299995E+02  0.21772E+05
 0.90349991E+02  0.20611E+05
 0.90399994E+02  0.21345E+05
 0.90449997E+02  0.23982E+05
 0.90499992E+02  0.20046E+05
 0.90549995E+02  0.96898E+04
 0.90599991E+02 -0.64327E+04
 0.90649994E+02 -0.26199E+05
 0.90699997E+02 -0.44294E+05
 0.90749992E+02 -0.60463E+05
 0.90799995E+02 -0.78194E+05
 0.90849991E+02 -0.99210E+05
 0.90899994E+02 -0.12471E+06
 0.90949997E+02 -0.14624E+06
 0.90999992E+02 -0.16237E+06
 0.91049995E+02 -0.17488E+06
 0.91099991E+02 -0.17551E+06
 0.91149994E+02 -0.16611E+06
 0.91199997E+02 -0.13966E+06
 0.91249992E+02 -0.95242E+05
 0.91299995E+02 -0.42704E+05
 0.91349991E+02  0.10856E+05
 0.91399994E+02  0.57174E+05
 0.91449997E+02  0.94108E+05
 0.91499992E+02  0.11058E+06
 0.91549995E+02  0.10542E+06
 0.91599991E+02  0.92464E+05
 0.91649994E+02  0.74353E+05
 0.91699997E+02  0.53924E+05
 0.91749992E+02  0.32342E+05
 0.91799995E+02  0.43144E+04
 0.91849991E+02 -0.23075E+05
 0.91899994E+02 -0.45809E+05
 0.91949997E+02 -0.65559E+05
 0.91999992E+02 -0.76640E+05
 0.92049995E+02 -0.81846E+05
 0.92099991E+02 -0.82847E+05
 0.92149994E+02 -0.80948E+05
 0.92199997E+02 -0.66112E+05
 0.92249992E+02 -0.36533E+05
 0.92299995E+02 -0.21713E+04
 0.92349991E+02  0.41763E+05
 0.92399994E+02  0.86455E+05
 0.92449997E+02  0.12813E+06
 0.92499992E+02  0.16975E+06
 0.92549995E+02  0.20338E+06
 0.92599991E+02  0.22218E+06
 0.92649994E+02  0.22266E+06
 0.92699997E+02  0.20224E+06
 0.92749992E+02  0.17287E+06
 0.92799995E+02  0.14973E+06
 0.92849991E+02  0.13145E+06
 0.92899994E+02  0.11536E+06
 0.92949997E+02  0.98292E+05
 0.92999992E+02  0.75396E+05
 0.93049995E+02  0.43707E+05
 0.93099991E+02  0.62797E+04
 0.93149994E+02 -0.30998E+05
 0.93199997E+02 -0.61116E+05
 0.93249992E+02 -0.79523E+05
 0.93299995E+02 -0.95496E+05
 0.93349991E+02 -0.12015E+06
 0.93399994E+02 -0.14997E+06
 0.93449997E+02 -0.18026E+06
 0.93499992E+02 -0.21154E+06
 0.93549995E+02 -0.23974E+06
 0.93599991E+02 -0.25794E+06
 0.93649994E+02 -0.26376E+06
 0.93699997E+02 -0.25633E+06
 0.93749992E+02 -0.23059E+06
 0.93799995E+02 -0.18109E+06
 0.93849991E+02 -0.11556E+06
 0.93899994E+02 -0.46913E+05
 0.93949997E+02  0.16196E+05
 0.93999992E+02  0.62646E+05
 0.94049995E+02  0.89359E+05
 0.94099991E+02  0.98203E+05
 0.94149994E+02  0.92488E+05
 0.94199997E+02  0.79004E+05
 0.94249992E+02  0.65022E+05
 0.94299995E+02  0.57820E+05
 0.94349991E+02  0.55779E+05
 0.94399994E+02  0.58252E+05
 0.94449997E+02  0.62399E+05
 0.94499992E+02  0.58819E+05
 0.94549995E+02  0.58799E+05
 0.94599991E+02  0.69803E+05
 0.94649994E+02  0.90973E+05
 0.94699997E+02  0.12348E+06
 0.94749992E+02  0.16382E+06
 0.94799995E+02  0.20875E+06
 0.94849991E+02  0.24935E+06
 0.94899994E+02  0.27905E+06
 0.94949997E+02  0.29579E+06
 0.94999992E+02  0.30643E+06
 0.95049995E+02  0.31694E+06
 0.95099991E+02  0.32504E+06
 0.95149994E+02  0.32917E+06
 0.95199997E+02  0.32521E+06
 0.95249992E+02  0.31324E+06
 0.95299995E+02  0.29528E+06
 0.95349991E+02  0.27516E+06
 0.95399994E+02  0.25870E+06
 0.95449997E+02  0.24498E+06
 0.95499992E+02  0.23277E+06
 0.95549995E+02  0.21445E+06
 0.95599991E+02  0.19376E+06
 0.95649994E+02  0.17655E+06
 0.95699997E+02  0.15985E+06
 0.95749992E+02  0.14931E+06
 0.95799995E+02  0.15385E+06
 0.95849991E+02  0.17730E+06
 0.95899994E+02  0.21309E+06
 0.95949997E+02  0.25450E+06
 0.95999992E+02  0.29553E+06
 0.96049995E+02  0.32840E+06
 0.96099991E+02  0.34297E+06
 0.96149994E+02  0.33439E+06
 0.96199997E+02  0.30608E+06
 0.96249992E+02  0.26704E+06
 0.96299995E+02  0.22644E+06
 0.96349991E+02  0.18324E+06
 0.96399994E+02  0.13764E+06
 0.96449997E+02  0.95542E+05
 0.96499992E+02  0.57635E+05
 0.96549995E+02  0.22391E+05
 0.96599991E+02 -0.16309E+05
 0.96649994E+02 -0.48692E+05
 0.96699997E+02 -0.62716E+05
 0.96749992E+02 -0.66883E+05
 0.96799995E+02 -0.67711E+05
 0.96849991E+02 -0.67293E+05
 0.96899994E+02 -0.61220E+05
 0.96949997E+02 -0.58218E+05
 0.96999992E+02 -0.60613E+05
 0.97049995E+02 -0.59322E+05
 0.97099991E+02 -0.59234E+05
 0.97149994E+02 -0.61840E+05
 0.97199997E+02 -0.64912E+05
 0.97249992E+02 -0.68075E+05
 0.97299995E+02 -0.67687E+05
 0.97349991E+02 -0.65447E+05
 0.97399994E+02 -0.66209E+05
 0.97449997E+02 -0.66362E+05
 0.97499992E+02 -0.69468E+05
 0.97549995E+02 -0.73457E+05
 0.97599991E+02 -0.74523E+05
 0.97649994E+02 -0.76340E+05
 0.97699997E+02 -0.79494E+05
 0.97749992E+02 -0.82176E+05
 0.97799995E+02 -0.78875E+05
 0.97849991E+02 -0.63940E+05
 0.97899994E+02 -0.49638E+05
 0.97949997E+02 -0.46279E+05
 0.97999992E+02 -0.43321E+05
